325.333	1	32
325.504	1	26
325.675	1	24
325.846	1	28
326.017	1	17
326.188	1	34
326.359	1	21
326.531	1	16
326.702	1	27
326.873	1	36
327.044	1	34
327.215	1	24
327.386	1	39
327.557	1	27
327.728	1	35
327.899	1	31
328.070	1	42
328.241	1	32
328.412	1	26
328.583	1	34
328.754	1	34
328.926	1	41
329.097	1	22
329.268	1	51
329.439	1	25
329.610	1	43
329.781	1	27
329.952	1	45
330.123	1	32
330.294	1	33
330.465	1	40
330.636	1	42
330.807	1	32
330.978	1	37
331.149	1	31
331.320	1	42
331.492	1	42
331.663	1	32
331.834	1	50
332.005	1	47
332.176	1	56
332.347	1	47
332.518	1	20
332.689	1	49
332.860	1	42
333.031	1	48
333.202	1	36
333.373	1	33
333.544	1	48
333.715	1	48
333.886	1	39
334.057	1	44
334.228	1	33
334.399	1	43
334.570	1	43
334.741	1	47
334.912	1	49
335.084	1	63
335.255	1	46
335.426	1	39
335.597	1	50
335.768	1	39
335.939	1	59
336.110	1	44
336.281	1	39
336.452	1	45
336.623	1	46
336.794	1	61
336.965	1	41
337.136	1	57
337.307	1	42
337.478	1	48
337.649	1	43
337.820	1	43
337.991	1	45
338.162	1	49
338.333	1	45
338.504	1	55
338.675	1	53
338.846	1	62
339.017	1	52
339.188	1	50
339.359	1	55
339.530	1	51
339.701	1	65
339.872	1	61
340.043	1	47
340.214	1	62
340.385	1	65
340.556	1	46
340.727	1	70
340.898	1	65
341.069	1	59
341.240	1	59
341.411	1	57
341.582	1	64
341.753	1	54
341.924	1	63
342.095	1	76
342.266	1	64
342.437	1	76
342.608	1	61
342.779	1	66
342.950	1	70
343.121	1	77
343.292	1	61
343.463	1	64
343.634	1	68
343.805	1	78
343.976	1	71
344.147	1	71
344.318	1	67
344.489	1	71
344.660	1	73
344.831	1	71
345.002	1	61
345.173	1	81
345.344	1	71
345.515	1	72
345.686	1	67
345.857	1	78
346.028	1	76
346.199	1	68
346.370	1	67
346.541	1	74
346.712	1	67
346.883	1	68
347.054	1	72
347.225	1	77
347.396	1	77
347.567	1	64
347.738	1	63
347.909	1	92
348.080	1	76
348.251	1	83
348.422	1	77
348.593	1	71
348.764	1	82
348.935	1	77
349.106	1	70
349.277	1	86
349.448	1	85
349.619	1	87
349.790	1	82
349.961	1	87
350.132	1	89
350.303	1	82
350.474	1	93
350.645	1	83
350.816	1	82
350.987	1	93
351.157	1	83
351.328	1	87
351.499	1	92
351.670	1	83
351.841	1	89
352.012	1	100
352.183	1	110
352.354	1	90
352.525	1	103
352.696	1	97
352.867	1	80
353.038	1	113
353.209	1	98
353.380	1	97
353.551	1	77
353.722	1	100
353.893	1	103
354.064	1	103
354.235	1	90
354.406	1	94
354.576	1	89
354.747	1	87
354.918	1	102
355.089	1	92
355.260	1	108
355.431	1	93
355.602	1	87
355.773	1	102
355.944	1	98
356.115	1	103
356.286	1	108
356.457	1	108
356.628	1	99
356.799	1	96
356.970	1	112
357.141	1	106
357.311	1	93
357.482	1	114
357.653	1	104
357.824	1	128
357.995	1	102
358.166	1	102
358.337	1	105
358.508	1	111
358.679	1	115
358.850	1	115
359.021	1	113
359.192	1	119
359.363	1	112
359.533	1	114
359.704	1	111
359.875	1	118
360.046	1	114
360.217	1	104
360.388	1	108
360.559	1	117
360.730	1	111
360.901	1	113
361.072	1	114
361.243	1	132
361.414	1	111
361.584	1	107
361.755	1	111
361.926	1	117
362.097	1	105
362.268	1	102
362.439	1	114
362.610	1	133
362.781	1	118
362.952	1	109
363.123	1	112
363.293	1	112
363.464	1	121
363.635	1	127
363.806	1	114
363.977	1	118
364.148	1	121
364.319	1	114
364.490	1	116
364.661	1	132
364.832	1	134
365.002	1	123
365.173	1	132
365.344	1	127
365.515	1	121
365.686	1	129
365.857	1	128
366.028	1	122
366.199	1	121
366.370	1	123
366.540	1	118
366.711	1	114
366.882	1	109
367.053	1	119
367.224	1	132
367.395	1	131
367.566	1	127
367.737	1	136
367.908	1	127
368.078	1	120
368.249	1	129
368.420	1	118
368.591	1	114
368.762	1	133
368.933	1	127
369.104	1	118
369.274	1	122
369.445	1	120
369.616	1	147
369.787	1	133
369.958	1	138
370.129	1	121
370.300	1	134
370.471	1	117
370.641	1	146
370.812	1	132
370.983	1	133
371.154	1	129
371.325	1	134
371.496	1	132
371.667	1	134
371.837	1	126
372.008	1	117
372.179	1	128
372.350	1	140
372.521	1	137
372.692	1	138
372.863	1	135
373.033	1	113
373.204	1	129
373.375	1	138
373.546	1	134
373.717	1	130
373.888	1	147
374.059	1	140
374.229	1	153
374.400	1	135
374.571	1	139
374.742	1	147
374.913	1	139
375.084	1	131
375.254	1	136
375.425	1	131
375.596	1	140
375.767	1	143
375.938	1	147
376.109	1	152
376.279	1	137
376.450	1	142
376.621	1	145
376.792	1	134
376.963	1	135
377.134	1	161
377.304	1	134
377.475	1	138
377.646	1	141
377.817	1	137
377.988	1	134
378.159	1	144
378.329	1	153
378.500	1	149
378.671	1	137
378.842	1	149
379.013	1	127
379.184	1	152
379.354	1	153
379.525	1	141
379.696	1	147
379.867	1	155
380.038	1	149
380.209	1	143
380.379	1	150
380.550	1	137
380.721	1	156
380.892	1	151
381.063	1	153
381.233	1	145
381.404	1	144
381.575	1	163
381.746	1	150
381.917	1	139
382.087	1	152
382.258	1	153
382.429	1	145
382.600	1	169
382.771	1	151
382.941	1	154
383.112	1	168
383.283	1	157
383.454	1	160
383.625	1	161
383.795	1	150
383.966	1	168
384.137	1	167
384.308	1	166
384.479	1	174
384.649	1	173
384.820	1	167
384.991	1	172
385.162	1	158
385.333	1	156
385.503	1	175
385.674	1	163
385.845	1	167
386.016	1	171
386.187	1	174
386.357	1	163
386.528	1	150
386.699	1	166
386.870	1	178
387.041	1	175
387.211	1	169
387.382	1	174
387.553	1	172
387.724	1	174
387.894	1	167
388.065	1	180
388.236	1	161
388.407	1	173
388.578	1	171
388.748	1	165
388.919	1	185
389.090	1	176
389.261	1	169
389.431	1	180
389.602	1	169
389.773	1	164
389.944	1	189
390.114	1	177
390.285	1	183
390.456	1	168
390.627	1	187
390.798	1	159
390.968	1	176
391.139	1	175
391.310	1	175
391.481	1	166
391.651	1	170
391.822	1	156
391.993	1	179
392.164	1	177
392.334	1	185
392.505	1	161
392.676	1	170
392.847	1	172
393.017	1	183
393.188	1	184
393.359	1	152
393.530	1	171
393.700	1	180
393.871	1	178
394.042	1	181
394.213	1	170
394.383	1	170
394.554	1	181
394.725	1	188
394.896	1	180
395.066	1	183
395.237	1	169
395.408	1	175
395.579	1	187
395.749	1	178
395.920	1	182
396.091	1	195
396.262	1	192
396.432	1	183
396.603	1	190
396.774	1	198
396.945	1	195
397.115	1	178
397.286	1	194
397.457	1	184
397.627	1	199
397.798	1	201
397.969	1	176
398.140	1	179
398.310	1	183
398.481	1	195
398.652	1	183
398.823	1	181
398.993	1	181
399.164	1	195
399.335	1	181
399.505	1	188
399.676	1	181
399.847	1	194
400.018	1	177
400.188	1	179
400.359	1	191
400.530	1	180
400.700	1	176
400.871	1	189
401.042	1	187
401.213	1	196
401.383	1	193
401.554	1	187
401.725	1	195
401.895	1	183
402.066	1	187
402.237	1	189
402.408	1	198
402.578	1	188
402.749	1	182
402.920	1	195
403.090	1	183
403.261	1	191
403.432	1	176
403.603	1	190
403.773	1	202
403.944	1	196
404.115	1	186
404.285	1	195
404.456	1	183
404.627	1	183
404.797	1	178
404.968	1	188
405.139	1	187
405.310	1	194
405.480	1	196
405.651	1	197
405.822	1	199
405.992	1	189
406.163	1	197
406.334	1	183
406.504	1	183
406.675	1	194
406.846	1	205
407.016	1	200
407.187	1	211
407.358	1	185
407.528	1	191
407.699	1	194
407.870	1	192
408.041	1	179
408.211	1	206
408.382	1	197
408.553	1	194
408.723	1	192
408.894	1	197
409.065	1	191
409.235	1	192
409.406	1	191
409.577	1	197
409.747	1	206
409.918	1	201
410.089	1	196
410.259	1	190
410.430	1	199
410.601	1	188
410.771	1	191
410.942	1	211
411.113	1	195
411.283	1	191
411.454	1	200
411.625	1	196
411.795	1	191
411.966	1	178
412.137	1	199
412.307	1	180
412.478	1	196
412.649	1	197
412.819	1	182
412.990	1	194
413.161	1	194
413.331	1	184
413.502	1	196
413.672	1	178
413.843	1	192
414.014	1	192
414.184	1	193
414.355	1	190
414.526	1	194
414.696	1	205
414.867	1	174
415.038	1	181
415.208	1	187
415.379	1	190
415.550	1	191
415.720	1	195
415.891	1	201
416.062	1	181
416.232	1	192
416.403	1	180
416.573	1	192
416.744	1	184
416.915	1	197
417.085	1	175
417.256	1	179
417.427	1	187
417.597	1	189
417.768	1	183
417.939	1	196
418.109	1	192
418.280	1	196
418.450	1	186
418.621	1	181
418.792	1	188
418.962	1	197
419.133	1	213
419.304	1	178
419.474	1	186
419.645	1	183
419.815	1	172
419.986	1	193
420.157	1	183
420.327	1	185
420.498	1	192
420.669	1	174
420.839	1	181
421.010	1	184
421.180	1	193
421.351	1	193
421.522	1	176
421.692	1	171
421.863	1	186
422.033	1	185
422.204	1	202
422.375	1	173
422.545	1	187
422.716	1	185
422.886	1	185
423.057	1	184
423.228	1	186
423.398	1	177
423.569	1	180
423.740	1	160
423.910	1	172
424.081	1	172
424.251	1	182
424.422	1	172
424.593	1	184
424.763	1	192
424.934	1	174
425.104	1	169
425.275	1	171
425.445	1	174
425.616	1	164
425.787	1	163
425.957	1	168
426.128	1	174
426.298	1	167
426.469	1	180
426.640	1	175
426.810	1	184
426.981	1	163
427.151	1	166
427.322	1	181
427.493	1	169
427.663	1	155
427.834	1	166
428.004	1	171
428.175	1	170
428.345	1	166
428.516	1	154
428.687	1	175
428.857	1	168
429.028	1	165
429.198	1	156
429.369	1	186
429.540	1	175
429.710	1	160
429.881	1	174
430.051	1	160
430.222	1	168
430.392	1	174
430.563	1	174
430.734	1	166
430.904	1	180
431.075	1	177
431.245	1	177
431.416	1	160
431.586	1	170
431.757	1	165
431.927	1	166
432.098	1	163
432.269	1	172
432.439	1	189
432.610	1	166
432.780	1	159
432.951	1	157
433.121	1	165
433.292	1	174
433.462	1	158
433.633	1	173
433.804	1	172
433.974	1	172
434.145	1	179
434.315	1	143
434.486	1	158
434.656	1	167
434.827	1	160
434.997	1	161
435.168	1	172
435.339	1	178
435.509	1	161
435.680	1	166
435.850	1	150
436.021	1	167
436.191	1	155
436.362	1	161
436.532	1	160
436.703	1	163
436.873	1	162
437.044	1	144
437.214	1	163
437.385	1	158
437.556	1	154
437.726	1	167
437.897	1	158
438.067	1	141
438.238	1	159
438.408	1	152
438.579	1	141
438.749	1	150
438.920	1	154
439.090	1	149
439.261	1	141
439.431	1	148
439.602	1	147
439.772	1	148
439.943	1	157
440.113	1	155
440.284	1	149
440.455	1	144
440.625	1	146
440.796	1	155
440.966	1	136
441.137	1	148
441.307	1	139
441.478	1	157
441.648	1	146
441.819	1	145
441.989	1	140
442.160	1	159
442.330	1	145
442.501	1	139
442.671	1	136
442.842	1	136
443.012	1	141
443.183	1	146
443.353	1	138
443.524	1	139
443.694	1	158
443.865	1	137
444.035	1	143
444.206	1	139
444.376	1	134
444.547	1	154
444.717	1	138
444.888	1	131
445.058	1	143
445.229	1	150
445.399	1	141
445.570	1	139
445.740	1	143
445.911	1	137
446.081	1	127
446.252	1	147
446.422	1	130
446.593	1	144
446.763	1	137
446.934	1	125
447.104	1	136
447.275	1	138
447.445	1	131
447.616	1	137
447.786	1	138
447.957	1	130
448.127	1	134
448.298	1	147
448.468	1	128
448.639	1	139
448.809	1	138
448.979	1	130
449.150	1	138
449.320	1	138
449.491	1	148
449.661	1	132
449.832	1	135
450.002	1	140
450.173	1	132
450.343	1	142
450.514	1	132
450.684	1	134
450.855	1	130
451.025	1	131
451.196	1	133
451.366	1	132
451.537	1	132
451.707	1	124
451.878	1	131
452.048	1	143
452.218	1	135
452.389	1	131
452.559	1	126
452.730	1	127
452.900	1	136
453.071	1	129
453.241	1	121
453.412	1	121
453.582	1	116
453.753	1	121
453.923	1	120
454.093	1	128
454.264	1	130
454.434	1	113
454.605	1	115
454.775	1	116
454.946	1	126
455.116	1	113
455.287	1	110
455.457	1	112
455.628	1	117
455.798	1	129
455.968	1	120
456.139	1	113
456.309	1	118
456.480	1	113
456.650	1	120
456.821	1	107
456.991	1	114
457.161	1	118
457.332	1	121
457.502	1	117
457.673	1	113
457.843	1	112
458.014	1	117
458.184	1	98
458.355	1	113
458.525	1	118
458.695	1	122
458.866	1	114
459.036	1	112
459.207	1	101
459.377	1	117
459.548	1	120
459.718	1	111
459.888	1	124
460.059	1	123
460.229	1	127
460.400	1	115
460.570	1	114
460.740	1	99
460.911	1	116
461.081	1	114
461.252	1	105
461.422	1	112
461.593	1	110
461.763	1	114
461.933	1	115
462.104	1	110
462.274	1	119
462.445	1	114
462.615	1	106
462.785	1	109
462.956	1	117
463.126	1	99
463.297	1	110
463.467	1	123
463.638	1	103
463.808	1	102
463.978	1	103
464.149	1	99
464.319	1	112
464.490	1	118
464.660	1	111
464.830	1	104
465.001	1	113
465.171	1	119
465.342	1	109
465.512	1	94
465.682	1	115
465.853	1	113
466.023	1	90
466.194	1	102
466.364	1	116
466.534	1	99
466.705	1	106
466.875	1	101
467.045	1	93
467.216	1	107
467.386	1	98
467.557	1	96
467.727	1	95
467.897	1	90
468.068	1	109
468.238	1	96
468.409	1	88
468.579	1	101
468.749	1	99
468.920	1	77
469.090	1	100
469.260	1	103
469.431	1	84
469.601	1	102
469.772	1	104
469.942	1	87
470.112	1	95
470.283	1	94
470.453	1	101
470.623	1	98
470.794	1	87
470.964	1	97
471.135	1	103
471.305	1	76
471.475	1	93
471.646	1	76
471.816	1	91
471.986	1	95
472.157	1	106
472.327	1	72
472.497	1	91
472.668	1	79
472.838	1	90
473.009	1	89
473.179	1	88
473.349	1	87
473.520	1	106
473.690	1	93
473.860	1	99
474.031	1	98
474.201	1	76
474.371	1	108
474.542	1	95
474.712	1	83
474.882	1	88
475.053	1	100
475.223	1	89
475.394	1	98
475.564	1	93
475.734	1	100
475.905	1	94
476.075	1	88
476.245	1	99
476.416	1	92
476.586	1	106
476.756	1	90
476.927	1	95
477.097	1	93
477.267	1	84
477.438	1	85
477.608	1	89
477.778	1	85
477.949	1	93
478.119	1	98
478.289	1	98
478.460	1	94
478.630	1	89
478.800	1	83
478.971	1	90
479.141	1	80
479.311	1	82
479.482	1	89
479.652	1	82
479.822	1	82
479.993	1	89
480.163	1	96
480.333	1	83
480.504	1	101
480.674	1	77
480.844	1	76
481.015	1	93
481.185	1	83
481.355	1	98
481.525	1	80
481.696	1	92
481.866	1	79
482.036	1	85
482.207	1	82
482.377	1	81
482.547	1	92
482.718	1	79
482.888	1	96
483.058	1	82
483.229	1	72
483.399	1	80
483.569	1	75
483.740	1	86
483.910	1	79
484.080	1	79
484.250	1	84
484.421	1	71
484.591	1	75
484.761	1	91
484.932	1	84
485.102	1	92
485.272	1	77
485.443	1	97
485.613	1	81
485.783	1	79
485.953	1	69
486.124	1	80
486.294	1	80
486.464	1	76
486.635	1	78
486.805	1	92
486.975	1	69
487.146	1	75
487.316	1	71
487.486	1	70
487.656	1	77
487.827	1	73
487.997	1	75
488.167	1	69
488.338	1	73
488.508	1	72
488.678	1	69
488.848	1	83
489.019	1	62
489.189	1	70
489.359	1	63
489.529	1	71
489.700	1	68
489.870	1	79
490.040	1	71
490.211	1	62
490.381	1	75
490.551	1	74
490.721	1	77
490.892	1	62
491.062	1	80
491.232	1	72
491.402	1	73
491.573	1	64
491.743	1	71
491.913	1	79
492.084	1	84
492.254	1	79
492.424	1	68
492.594	1	66
492.765	1	66
492.935	1	77
493.105	1	70
493.275	1	75
493.446	1	72
493.616	1	70
493.786	1	62
493.956	1	65
494.127	1	81
494.297	1	68
494.467	1	66
494.637	1	60
494.808	1	61
494.978	1	63
495.148	1	59
495.318	1	70
495.489	1	77
495.659	1	69
495.829	1	65
495.999	1	60
496.170	1	66
496.340	1	71
496.510	1	68
496.680	1	66
496.851	1	59
497.021	1	65
497.191	1	63
497.361	1	60
497.532	1	71
497.702	1	56
497.872	1	57
498.042	1	62
498.213	1	57
498.383	1	61
498.553	1	66
498.723	1	56
498.894	1	53
499.064	1	59
499.234	1	66
499.404	1	64
499.574	1	70
499.745	1	65
499.915	1	58
500.085	1	62
500.255	1	73
500.426	1	59
500.596	1	55
500.766	1	64
500.936	1	62
501.106	1	55
501.277	1	60
501.447	1	57
501.617	1	62
501.787	1	59
501.958	1	45
502.128	1	55
502.298	1	55
502.468	1	62
502.638	1	60
502.809	1	56
502.979	1	56
503.149	1	53
503.319	1	53
503.489	1	60
503.660	1	67
503.830	1	52
504.000	1	60
504.170	1	57
504.340	1	55
504.511	1	58
504.681	1	55
504.851	1	61
505.021	1	54
505.192	1	54
505.362	1	67
505.532	1	46
505.702	1	50
505.872	1	55
506.043	1	53
506.213	1	49
506.383	1	58
506.553	1	61
506.723	1	56
506.893	1	51
507.064	1	62
507.234	1	51
507.404	1	55
507.574	1	56
507.744	1	54
507.915	1	54
508.085	1	61
508.255	1	57
508.425	1	48
508.595	1	51
508.766	1	57
508.936	1	45
509.106	1	67
509.276	1	72
509.446	1	48
509.616	1	56
509.787	1	51
509.957	1	45
510.127	1	46
510.297	1	57
510.467	1	42
510.638	1	63
510.808	1	42
510.978	1	53
511.148	1	54
511.318	1	55
511.488	1	47
511.659	1	53
511.829	1	51
511.999	1	50
512.169	1	56
512.339	1	61
512.509	1	49
512.680	1	43
512.850	1	56
513.020	1	59
513.190	1	58
513.360	1	50
513.530	1	55
513.700	1	52
513.871	1	50
514.041	1	50
514.211	1	62
514.381	1	52
514.551	1	53
514.721	1	49
514.892	1	48
515.062	1	55
515.232	1	56
515.402	1	49
515.572	1	55
515.742	1	64
515.912	1	56
516.083	1	52
516.253	1	56
516.423	1	42
516.593	1	51
516.763	1	59
516.933	1	33
517.104	1	47
517.274	1	51
517.444	1	55
517.614	1	43
517.784	1	34
517.954	1	42
518.124	1	53
518.294	1	37
518.465	1	43
518.635	1	46
518.805	1	34
518.975	1	43
519.145	1	44
519.315	1	34
519.485	1	45
519.656	1	60
519.826	1	45
519.996	1	33
520.166	1	48
520.336	1	47
520.506	1	39
520.676	1	36
520.846	1	46
521.017	1	46
521.187	1	43
521.357	1	58
521.527	1	42
521.697	1	33
521.867	1	40
522.037	1	51
522.207	1	45
522.377	1	44
522.548	1	34
522.718	1	39
522.888	1	48
523.058	1	49
523.228	1	43
523.398	1	36
523.568	1	54
523.738	1	40
523.909	1	48
524.079	1	44
524.249	1	42
524.419	1	42
524.589	1	37
524.759	1	35
524.929	1	30
525.099	1	40
525.269	1	41
525.439	1	41
525.610	1	54
525.780	1	43
525.950	1	32
526.120	1	39
526.290	1	42
526.460	1	35
526.630	1	40
526.800	1	37
526.970	1	45
527.140	1	48
527.311	1	39
527.481	1	33
527.651	1	51
527.821	1	44
527.991	1	55
528.161	1	48
528.331	1	37
528.501	1	46
528.671	1	36
528.841	1	46
529.011	1	35
529.181	1	36
529.352	1	44
529.522	1	35
529.692	1	42
529.862	1	37
530.032	1	53
530.202	1	42
530.372	1	34
530.542	1	41
530.712	1	43
530.882	1	40
531.052	1	36
531.222	1	45
531.392	1	36
531.563	1	52
531.733	1	36
531.903	1	41
532.073	1	40
532.243	1	39
532.413	1	38
532.583	1	43
532.753	1	28
532.923	1	28
533.093	1	26
533.263	1	29
533.433	1	39
533.603	1	34
533.773	1	37
533.943	1	41
534.113	1	31
534.284	1	31
534.454	1	35
534.624	1	41
534.794	1	32
534.964	1	47
535.134	1	35
535.304	1	38
535.474	1	42
535.644	1	31
535.814	1	31
535.984	1	36
536.154	1	33
536.324	1	36
536.494	1	34
536.664	1	40
536.834	1	51
537.004	1	39
537.174	1	46
537.344	1	37
537.514	1	33
537.685	1	35
537.855	1	41
538.025	1	41
538.195	1	38
538.365	1	51
538.535	1	31
538.705	1	35
538.875	1	37
539.045	1	34
539.215	1	43
539.385	1	37
539.555	1	45
539.725	1	33
539.895	1	30
540.065	1	47
540.235	1	41
540.405	1	27
540.575	1	36
540.745	1	45
540.915	1	43
541.085	1	31
541.255	1	18
541.425	1	40
541.595	1	20
541.765	1	27
541.935	1	40
542.105	1	24
542.275	1	30
542.445	1	24
542.615	1	33
542.785	1	39
542.955	1	44
543.125	1	29
543.295	1	38
543.465	1	28
543.635	1	36
543.805	1	39
543.975	1	18
544.145	1	32
544.315	1	30
544.485	1	38
544.655	1	33
544.825	1	16
544.995	1	35
545.165	1	28
545.335	1	32
545.505	1	26
545.675	1	32
545.845	1	34
546.015	1	38
546.185	1	35
546.355	1	38
546.525	1	36
546.695	1	23
546.865	1	31
547.035	1	28
547.205	1	20
547.375	1	29
547.545	1	32
547.715	1	22
547.885	1	31
548.055	1	19
548.225	1	31
548.395	1	26
548.565	1	33
548.735	1	23
548.905	1	38
549.075	1	37
549.245	1	26
549.415	1	19
549.585	1	37
549.755	1	24
549.925	1	18
550.095	1	32
550.265	1	22
550.435	1	20
550.605	1	26
550.775	1	27
550.945	1	33
551.115	1	46
551.285	1	21
551.455	1	22
551.625	1	37
551.795	1	25
551.965	1	26
552.135	1	31
552.305	1	13
552.475	1	18
552.645	1	37
552.815	1	26
552.985	1	33
553.155	1	40
553.325	1	31
553.495	1	13
553.665	1	34
553.835	1	25
554.004	1	27
554.174	1	23
554.344	1	30
554.514	1	19
554.684	1	34
554.854	1	31
555.024	1	18
555.194	1	28
555.364	1	19
555.534	1	31
555.704	1	32
555.874	1	35
556.044	1	26
556.214	1	32
556.384	1	20
556.554	1	37
556.724	1	30
556.894	1	25
557.064	1	26
557.234	1	15
557.404	1	36
557.573	1	23
557.743	1	29
557.913	1	29
558.083	1	20
558.253	1	38
558.423	1	21
558.593	1	20
558.763	1	31
558.933	1	18
559.103	1	35
559.273	1	30
559.443	1	29
559.613	1	25
559.783	1	22
559.953	1	20
560.122	1	33
560.292	1	30
560.462	1	22
560.632	1	27
560.802	1	22
560.972	1	33
561.142	1	27
561.312	1	17
561.482	1	35
561.652	1	28
561.822	1	29
561.992	1	27
562.162	1	19
562.331	1	24
562.501	1	9
562.671	1	30
562.841	1	11
563.011	1	28
563.181	1	20
563.351	1	21
563.521	1	22
563.691	1	12
563.861	1	21
564.031	1	21
564.201	1	30
564.370	1	13
564.540	1	26
564.710	1	15
564.880	1	32
565.050	1	20
565.220	1	16
565.390	1	26
565.560	1	22
565.730	1	13
565.900	1	28
566.069	1	35
566.239	1	23
566.409	1	27
566.579	1	20
566.749	1	16
566.919	1	28
567.089	1	27
567.259	1	27
567.429	1	20
567.599	1	15
567.768	1	23
567.938	1	14
568.108	1	30
568.278	1	15
568.448	1	5
568.618	1	33
568.788	1	30
568.958	1	20
569.128	1	24
569.297	1	19
569.467	1	23
569.637	1	25
569.807	1	26
569.977	1	28
570.147	1	34
570.317	1	17
570.487	1	29
570.656	1	33
570.826	1	14
570.996	1	20
571.166	1	31
571.336	1	20
571.506	1	23
571.676	1	22
571.846	1	32
572.015	1	15
572.185	1	13
572.355	1	21
572.525	1	23
572.695	1	20
572.865	1	12
573.035	1	26
573.205	1	18
573.374	1	15
573.544	1	18
573.714	1	28
573.884	1	18
574.054	1	18
574.224	1	15
574.394	1	12
574.563	1	9
574.733	1	24
574.903	1	14
575.073	1	22
575.243	1	18
575.413	1	24
575.583	1	16
575.752	1	23
575.922	1	19
576.092	1	22
576.262	1	27
576.432	1	29
576.602	1	18
576.772	1	22
576.941	1	15
577.111	1	18
577.281	1	8
577.451	1	15
577.621	1	25
577.791	1	31
577.960	1	15
578.130	1	23
578.300	1	25
578.470	1	28
578.640	1	12
578.810	1	20
578.979	1	20
579.149	1	21
579.319	1	13
579.489	1	17
579.659	1	13
579.829	1	24
579.998	1	24
580.168	1	31
580.338	1	19
580.508	1	27
580.678	1	24
580.848	1	16
581.017	1	16
581.187	1	24
581.357	1	14
581.527	1	13
581.697	1	20
581.867	1	29
582.036	1	20
582.206	1	24
582.376	1	26
582.546	1	14
582.716	1	14
582.885	1	5
583.055	1	20
583.225	1	11
583.395	1	24
583.565	1	15
583.735	1	24
583.904	1	17
584.074	1	27
584.244	1	27
584.414	1	20
584.584	1	23
584.753	1	8
584.923	1	17
585.093	1	16
585.263	1	20
585.433	1	22
585.602	1	16
585.772	1	12
585.942	1	21
586.112	1	23
586.282	1	13
586.451	1	13
586.621	1	25
586.791	1	14
586.961	1	16
587.131	1	28
587.300	1	20
587.470	1	29
587.640	1	24
587.810	1	19
587.980	1	19
588.149	1	8
588.319	1	18
588.489	1	21
588.659	1	21
588.829	1	14
588.998	1	30
589.168	1	20
589.338	1	20
589.508	1	29
589.677	1	9
589.847	1	10
590.017	1	28
590.187	1	10
590.357	1	26
590.526	1	34
590.696	1	26
590.866	1	25
591.036	1	19
591.205	1	35
591.375	1	9
591.545	1	18
591.715	1	20
591.885	1	18
592.054	1	13
592.224	1	18
592.394	1	17
592.564	1	23
592.733	1	23
592.903	1	20
593.073	1	21
593.243	1	23
593.412	1	18
593.582	1	17
593.752	1	14
593.922	1	14
594.091	1	21
594.261	1	8
594.431	1	28
594.601	1	28
594.771	1	20
594.940	1	15
595.110	1	16
595.280	1	23
595.450	1	10
595.619	1	14
595.789	1	19
595.959	1	19
596.129	1	13
596.298	1	16
596.468	1	21
596.638	1	28
596.808	1	21
596.977	1	21
597.147	1	22
597.317	1	8
597.487	1	18
597.656	1	24
597.826	1	24
597.996	1	20
598.166	1	22
598.335	1	19
598.505	1	14
598.675	1	16
598.844	1	15
599.014	1	16
599.184	1	19
599.354	1	17
599.523	1	22
599.693	1	14
599.863	1	22
600.033	1	22
600.202	1	19
600.372	1	20
600.542	1	16
600.712	1	8
600.881	1	17
601.051	1	23
601.221	1	19
601.390	1	11
601.560	1	34
601.730	1	30
601.900	1	23
602.069	1	16
602.239	1	15
602.409	1	5
602.578	1	22
602.748	1	18
602.918	1	24
603.088	1	20
603.257	1	15
603.427	1	19
603.597	1	16
603.767	1	21
603.936	1	17
604.106	1	24
604.276	1	19
604.445	1	26
604.615	1	13
604.785	1	19
604.954	1	21
605.124	1	25
605.294	1	20
605.464	1	19
605.633	1	22
605.803	1	27
605.973	1	21
606.142	1	22
606.312	1	25
606.482	1	20
606.652	1	20
606.821	1	11
606.991	1	16
607.161	1	21
607.330	1	25
607.500	1	22
607.670	1	20
607.839	1	29
608.009	1	26
608.179	1	24
608.348	1	16
608.518	1	18
608.688	1	22
608.858	1	16
609.027	1	13
609.197	1	27
609.367	1	18
609.536	1	22
609.706	1	20
609.876	1	18
610.045	1	21
610.215	1	24
610.385	1	21
610.554	1	23
610.724	1	25
610.894	1	22
611.063	1	25
611.233	1	21
611.403	1	23
611.572	1	13
611.742	1	24
611.912	1	20
612.081	1	18
612.251	1	22
612.421	1	23
612.590	1	26
612.760	1	23
612.930	1	18
613.099	1	21
613.269	1	24
613.439	1	26
613.608	1	12
613.778	1	29
613.948	1	23
614.117	1	18
614.287	1	27
614.457	1	19
614.626	1	15
614.796	1	16
614.966	1	11
615.135	1	21
615.305	1	24
615.475	1	28
615.644	1	29
615.814	1	23
615.984	1	17
616.153	1	17
616.323	1	27
616.493	1	11
616.662	1	24
616.832	1	19
617.002	1	14
617.171	1	26
617.341	1	16
617.511	1	15
617.680	1	13
617.850	1	36
618.019	1	32
618.189	1	33
618.359	1	31
618.528	1	17
618.698	1	17
618.868	1	4
619.037	1	24
619.207	1	22
619.377	1	22
619.546	1	21
619.716	1	26
619.885	1	18
620.055	1	7
620.225	1	25
620.394	1	20
620.564	1	30
620.734	1	32
620.903	1	13
621.073	1	39
621.242	1	24
621.412	1	14
621.582	1	24
621.751	1	27
621.921	1	22
622.091	1	12
622.260	1	18
622.430	1	29
622.599	1	26
622.769	1	31
622.939	1	26
623.108	1	20
623.278	1	13
623.448	1	24
623.617	1	25
623.787	1	11
623.956	1	19
624.126	1	27
624.296	1	20
624.465	1	34
624.635	1	23
624.804	1	23
624.974	1	23
625.144	1	32
625.313	1	26
625.483	1	12
625.652	1	21
625.822	1	12
625.992	1	27
626.161	1	29
626.331	1	16
626.501	1	34
626.670	1	29
626.840	1	18
627.009	1	23
627.179	1	29
627.348	1	31
627.518	1	27
627.688	1	30
627.857	1	22
628.027	1	28
628.196	1	30
628.366	1	38
628.536	1	29
628.705	1	22
628.875	1	26
629.044	1	14
629.214	1	29
629.384	1	34
629.553	1	32
629.723	1	23
629.892	1	30
630.062	1	27
630.232	1	32
630.401	1	30
630.571	1	23
630.740	1	32
630.910	1	21
631.079	1	23
631.249	1	44
631.419	1	37
631.588	1	19
631.758	1	26
631.927	1	25
632.097	1	32
632.266	1	30
632.436	1	29
632.606	1	27
632.775	1	23
632.945	1	26
633.114	1	28
633.284	1	31
633.453	1	15
633.623	1	23
633.793	1	28
633.962	1	27
634.132	1	28
634.301	1	30
634.471	1	28
634.640	1	33
634.810	1	31
634.979	1	28
635.149	1	38
635.319	1	21
635.488	1	24
635.658	1	31
635.827	1	14
635.997	1	16
636.166	1	31
636.336	1	24
636.505	1	34
636.675	1	17
636.845	1	33
637.014	1	37
637.184	1	41
637.353	1	19
637.523	1	39
637.692	1	28
637.862	1	25
638.031	1	35
638.201	1	36
638.370	1	24
638.540	1	26
638.710	1	34
638.879	1	20
639.049	1	35
639.218	1	26
639.388	1	23
639.557	1	31
639.727	1	27
639.896	1	21
640.066	1	36
640.235	1	36
640.405	1	28
640.574	1	30
640.744	1	21
640.914	1	36
641.083	1	32
641.253	1	29
641.422	1	29
641.592	1	44
641.761	1	35
641.931	1	21
642.100	1	46
642.270	1	31
642.439	1	25
642.609	1	47
642.778	1	28
642.948	1	18
643.117	1	36
643.287	1	27
643.456	1	21
643.626	1	26
643.795	1	37
643.965	1	29
644.134	1	35
644.304	1	28
644.473	1	36
644.643	1	47
644.812	1	32
644.982	1	32
645.151	1	33
645.321	1	26
645.490	1	37
645.660	1	27
645.829	1	42
645.999	1	18
646.168	1	46
646.338	1	27
646.507	1	26
646.677	1	42
646.846	1	30
647.016	1	13
647.185	1	35
647.355	1	26
647.524	1	39
647.694	1	52
647.863	1	33
648.033	1	44
648.202	1	38
648.372	1	22
648.541	1	44
648.711	1	37
648.880	1	36
649.050	1	31
649.219	1	40
649.389	1	48
649.558	1	41
649.728	1	38
649.897	1	30
650.067	1	31
650.236	1	39
650.406	1	31
650.575	1	27
650.745	1	42
650.914	1	18
651.084	1	22
651.253	1	46
651.423	1	30
651.592	1	30
651.762	1	31
651.931	1	36
652.101	1	51
652.270	1	44
652.440	1	33
652.609	1	33
652.778	1	31
652.948	1	28
653.117	1	41
653.287	1	25
653.456	1	36
653.626	1	38
653.795	1	30
653.965	1	42
654.134	1	46
654.304	1	14
654.473	1	57
654.643	1	31
654.812	1	29
654.982	1	41
655.151	1	29
655.320	1	28
655.490	1	33
655.659	1	40
655.829	1	26
655.998	1	34
656.168	1	35
656.337	1	35
656.507	1	32
656.676	1	42
656.846	1	57
657.015	1	43
657.184	1	44
657.354	1	36
657.523	1	37
657.693	1	43
657.862	1	33
658.032	1	44
658.201	1	44
658.371	1	53
658.540	1	37
658.709	1	28
658.879	1	38
659.048	1	29
659.218	1	42
659.387	1	40
659.557	1	47
659.726	1	45
659.895	1	35
660.065	1	28
660.234	1	44
660.404	1	47
660.573	1	34
660.743	1	34
660.912	1	43
661.081	1	46
661.251	1	39
661.420	1	46
661.590	1	54
661.759	1	38
661.929	1	43
662.098	1	47
662.267	1	37
662.437	1	43
662.606	1	37
662.776	1	45
662.945	1	40
663.115	1	36
663.284	1	32
663.453	1	43
663.623	1	42
663.792	1	37
663.962	1	29
664.131	1	36
664.300	1	49
664.470	1	34
664.639	1	42
664.809	1	35
664.978	1	46
665.148	1	41
665.317	1	43
665.486	1	40
665.656	1	44
665.825	1	46
665.995	1	40
666.164	1	41
666.333	1	46
666.503	1	32
666.672	1	34
666.842	1	42
667.011	1	34
667.180	1	47
667.350	1	36
667.519	1	46
667.689	1	38
667.858	1	46
668.027	1	44
668.197	1	46
668.366	1	28
668.536	1	41
668.705	1	45
668.874	1	45
669.044	1	31
669.213	1	53
669.382	1	40
669.552	1	46
669.721	1	52
669.891	1	41
670.060	1	45
670.229	1	50
670.399	1	34
670.568	1	55
670.738	1	49
670.907	1	29
671.076	1	22
671.246	1	45
671.415	1	48
671.584	1	26
671.754	1	39
671.923	1	38
672.093	1	42
672.262	1	37
672.431	1	46
672.601	1	32
672.770	1	28
672.939	1	43
673.109	1	46
673.278	1	39
673.448	1	44
673.617	1	37
673.786	1	51
