325.333	1	14
325.504	1	5
325.675	1	-1
325.846	1	-4
326.017	1	0
326.188	1	2
326.359	1	2
326.531	1	-5
326.702	1	-1
326.873	1	11
327.044	1	-3
327.215	1	1
327.386	1	4
327.557	1	-4
327.728	1	2
327.899	1	8
328.070	1	16
328.241	1	4
328.412	1	-4
328.583	1	6
328.754	1	11
328.926	1	7
329.097	1	-10
329.268	1	10
329.439	1	2
329.610	1	12
329.781	1	0
329.952	1	9
330.123	1	9
330.294	1	6
330.465	1	4
330.636	1	11
330.807	1	-7
330.978	1	7
331.149	1	6
331.320	1	3
331.492	1	3
331.663	1	7
331.834	1	18
332.005	1	8
332.176	1	16
332.347	1	8
332.518	1	-2
332.689	1	11
332.860	1	2
333.031	1	2
333.202	1	5
333.373	1	3
333.544	1	3
333.715	1	7
333.886	1	-7
334.057	1	8
334.228	1	3
334.399	1	5
334.570	1	2
334.741	1	-1
334.912	1	9
335.084	1	17
335.255	1	8
335.426	1	7
335.597	1	2
335.768	1	3
335.939	1	17
336.110	1	-1
336.281	1	-7
336.452	1	-1
336.623	1	6
336.794	1	3
336.965	1	3
337.136	1	4
337.307	1	10
337.478	1	5
337.649	1	17
337.820	1	-3
337.991	1	5
338.162	1	1
338.333	1	0
338.504	1	4
338.675	1	10
338.846	1	11
339.017	1	8
339.188	1	0
339.359	1	-2
339.530	1	14
339.701	1	19
339.872	1	10
340.043	1	2
340.214	1	6
340.385	1	19
340.556	1	-3
340.727	1	8
340.898	1	21
341.069	1	16
341.240	1	6
341.411	1	15
341.582	1	13
341.753	1	-4
341.924	1	0
342.095	1	-4
342.266	1	17
342.437	1	15
342.608	1	4
342.779	1	11
342.950	1	15
343.121	1	4
343.292	1	5
343.463	1	8
343.634	1	10
343.805	1	10
343.976	1	13
344.147	1	10
344.318	1	3
344.489	1	6
344.660	1	13
344.831	1	9
345.002	1	-2
345.173	1	23
345.344	1	14
345.515	1	7
345.686	1	12
345.857	1	8
346.028	1	-3
346.199	1	-1
346.370	1	6
346.541	1	9
346.712	1	0
346.883	1	0
347.054	1	7
347.225	1	10
347.396	1	13
347.567	1	6
347.738	1	-9
347.909	1	22
348.080	1	1
348.251	1	25
348.422	1	12
348.593	1	15
348.764	1	12
348.935	1	15
349.106	1	8
349.277	1	-3
349.448	1	14
349.619	1	2
349.790	1	1
349.961	1	15
350.132	1	8
350.303	1	15
350.474	1	19
350.645	1	14
350.816	1	12
350.987	1	12
351.157	1	2
351.328	1	12
351.499	1	7
351.670	1	5
351.841	1	22
352.012	1	15
352.183	1	19
352.354	1	26
352.525	1	20
352.696	1	19
352.867	1	11
353.038	1	8
353.209	1	13
353.380	1	2
353.551	1	1
353.722	1	8
353.893	1	11
354.064	1	17
354.235	1	12
354.406	1	14
354.576	1	10
354.747	1	12
354.918	1	24
355.089	1	19
355.260	1	12
355.431	1	14
355.602	1	14
355.773	1	17
355.944	1	15
356.115	1	20
356.286	1	13
356.457	1	8
356.628	1	19
356.799	1	13
356.970	1	30
357.141	1	7
357.311	1	3
357.482	1	9
357.653	1	13
357.824	1	18
357.995	1	16
358.166	1	2
358.337	1	3
358.508	1	17
358.679	1	17
358.850	1	11
359.021	1	8
359.192	1	22
359.363	1	10
359.533	1	7
359.704	1	17
359.875	1	3
360.046	1	8
360.217	1	9
360.388	1	19
360.559	1	9
360.730	1	16
360.901	1	10
361.072	1	21
361.243	1	18
361.414	1	10
361.584	1	6
361.755	1	12
361.926	1	2
362.097	1	12
362.268	1	15
362.439	1	7
362.610	1	15
362.781	1	18
362.952	1	11
363.123	1	14
363.293	1	9
363.464	1	18
363.635	1	11
363.806	1	10
363.977	1	10
364.148	1	13
364.319	1	20
364.490	1	10
364.661	1	23
364.832	1	21
365.002	1	17
365.173	1	12
365.344	1	17
365.515	1	19
365.686	1	11
365.857	1	20
366.028	1	20
366.199	1	7
366.370	1	16
366.540	1	8
366.711	1	-2
366.882	1	11
367.053	1	10
367.224	1	21
367.395	1	21
367.566	1	25
367.737	1	17
367.908	1	10
368.078	1	17
368.249	1	22
368.420	1	3
368.591	1	10
368.762	1	15
368.933	1	16
369.104	1	7
369.274	1	11
369.445	1	18
369.616	1	20
369.787	1	18
369.958	1	22
370.129	1	10
370.300	1	24
370.471	1	16
370.641	1	15
370.812	1	17
370.983	1	17
371.154	1	5
371.325	1	20
371.496	1	7
371.667	1	11
371.837	1	16
372.008	1	13
372.179	1	2
372.350	1	31
372.521	1	19
372.692	1	17
372.863	1	24
373.033	1	14
373.204	1	15
373.375	1	11
373.546	1	18
373.717	1	26
373.888	1	20
374.059	1	28
374.229	1	23
374.400	1	20
374.571	1	18
374.742	1	25
374.913	1	23
375.084	1	20
375.254	1	11
375.425	1	19
375.596	1	27
375.767	1	20
375.938	1	21
376.109	1	21
376.279	1	11
376.450	1	27
376.621	1	26
376.792	1	13
376.963	1	26
377.134	1	17
377.304	1	24
377.475	1	13
377.646	1	17
377.817	1	1
377.988	1	19
378.159	1	16
378.329	1	22
378.500	1	9
378.671	1	18
378.842	1	15
379.013	1	2
379.184	1	23
379.354	1	21
379.525	1	9
379.696	1	28
379.867	1	24
380.038	1	11
380.209	1	24
380.379	1	15
380.550	1	14
380.721	1	20
380.892	1	25
381.063	1	24
381.233	1	25
381.404	1	7
381.575	1	21
381.746	1	22
381.917	1	19
382.087	1	29
382.258	1	13
382.429	1	22
382.600	1	20
382.771	1	8
382.941	1	16
383.112	1	9
383.283	1	19
383.454	1	23
383.625	1	11
383.795	1	26
383.966	1	18
384.137	1	19
384.308	1	29
384.479	1	20
384.649	1	14
384.820	1	14
384.991	1	22
385.162	1	27
385.333	1	25
385.503	1	14
385.674	1	10
385.845	1	28
386.016	1	17
386.187	1	19
386.357	1	22
386.528	1	23
386.699	1	12
386.870	1	28
387.041	1	27
387.211	1	21
387.382	1	33
387.553	1	23
387.724	1	12
387.894	1	24
388.065	1	10
388.236	1	28
388.407	1	23
388.578	1	9
388.748	1	20
388.919	1	33
389.090	1	23
389.261	1	19
389.431	1	25
389.602	1	17
389.773	1	17
389.944	1	9
390.114	1	19
390.285	1	25
390.456	1	16
390.627	1	20
390.798	1	20
390.968	1	23
391.139	1	24
391.310	1	16
391.481	1	22
391.651	1	19
391.822	1	23
391.993	1	17
392.164	1	12
392.334	1	24
392.505	1	14
392.676	1	23
392.847	1	32
393.017	1	33
393.188	1	29
393.359	1	10
393.530	1	21
393.700	1	8
393.871	1	16
394.042	1	19
394.213	1	20
394.383	1	23
394.554	1	22
394.725	1	34
394.896	1	22
395.066	1	16
395.237	1	17
395.408	1	14
395.579	1	21
395.749	1	19
395.920	1	18
396.091	1	26
396.262	1	25
396.432	1	18
396.603	1	30
396.774	1	31
396.945	1	23
397.115	1	19
397.286	1	26
397.457	1	22
397.627	1	21
397.798	1	20
397.969	1	19
398.140	1	16
398.310	1	19
398.481	1	24
398.652	1	26
398.823	1	15
398.993	1	28
399.164	1	22
399.335	1	37
399.505	1	35
399.676	1	24
399.847	1	27
400.018	1	23
400.188	1	21
400.359	1	31
400.530	1	16
400.700	1	12
400.871	1	20
401.042	1	17
401.213	1	22
401.383	1	27
401.554	1	34
401.725	1	33
401.895	1	12
402.066	1	23
402.237	1	30
402.408	1	25
402.578	1	24
402.749	1	27
402.920	1	25
403.090	1	23
403.261	1	24
403.432	1	21
403.603	1	27
403.773	1	37
403.944	1	33
404.115	1	33
404.285	1	27
404.456	1	24
404.627	1	17
404.797	1	12
404.968	1	19
405.139	1	20
405.310	1	34
405.480	1	22
405.651	1	26
405.822	1	15
405.992	1	15
406.163	1	14
406.334	1	18
406.504	1	22
406.675	1	29
406.846	1	20
407.016	1	31
407.187	1	27
407.358	1	25
407.528	1	17
407.699	1	13
407.870	1	22
408.041	1	28
408.211	1	30
408.382	1	15
408.553	1	8
408.723	1	34
408.894	1	20
409.065	1	31
409.235	1	25
409.406	1	32
409.577	1	21
409.747	1	36
409.918	1	30
410.089	1	20
410.259	1	34
410.430	1	21
410.601	1	26
410.771	1	28
410.942	1	27
411.113	1	23
411.283	1	17
411.454	1	26
411.625	1	26
411.795	1	22
411.966	1	25
412.137	1	20
412.307	1	17
412.478	1	24
412.649	1	24
412.819	1	27
412.990	1	17
413.161	1	20
413.331	1	14
413.502	1	28
413.672	1	27
413.843	1	15
414.014	1	28
414.184	1	31
414.355	1	25
414.526	1	35
414.696	1	27
414.867	1	17
415.038	1	16
415.208	1	19
415.379	1	24
415.550	1	29
415.720	1	23
415.891	1	16
416.062	1	25
416.232	1	22
416.403	1	31
416.573	1	26
416.744	1	22
416.915	1	28
417.085	1	22
417.256	1	20
417.427	1	22
417.597	1	24
417.768	1	22
417.939	1	24
418.109	1	26
418.280	1	28
418.450	1	19
418.621	1	14
418.792	1	28
418.962	1	28
419.133	1	39
419.304	1	19
419.474	1	21
419.645	1	34
419.815	1	16
419.986	1	24
420.157	1	34
420.327	1	20
420.498	1	29
420.669	1	35
420.839	1	30
421.010	1	28
421.180	1	21
421.351	1	20
421.522	1	25
421.692	1	29
421.863	1	26
422.033	1	31
422.204	1	28
422.375	1	20
422.545	1	37
422.716	1	21
422.886	1	24
423.057	1	37
423.228	1	29
423.398	1	22
423.569	1	33
423.740	1	11
423.910	1	16
424.081	1	19
424.251	1	23
424.422	1	24
424.593	1	12
424.763	1	27
424.934	1	22
425.104	1	32
425.275	1	20
425.445	1	23
425.616	1	18
425.787	1	19
425.957	1	30
426.128	1	33
426.298	1	21
426.469	1	11
426.640	1	26
426.810	1	26
426.981	1	17
427.151	1	23
427.322	1	25
427.493	1	19
427.663	1	29
427.834	1	18
428.004	1	22
428.175	1	24
428.345	1	23
428.516	1	16
428.687	1	14
428.857	1	12
429.028	1	15
429.198	1	26
429.369	1	25
429.540	1	23
429.710	1	16
429.881	1	20
430.051	1	22
430.222	1	12
430.392	1	25
430.563	1	25
430.734	1	36
430.904	1	21
431.075	1	26
431.245	1	12
431.416	1	37
431.586	1	18
431.757	1	26
431.927	1	23
432.098	1	21
432.269	1	20
432.439	1	27
432.610	1	21
432.780	1	31
432.951	1	13
433.121	1	33
433.292	1	31
433.462	1	30
433.633	1	32
433.804	1	22
433.974	1	17
434.145	1	37
434.315	1	17
434.486	1	7
434.656	1	26
434.827	1	19
434.997	1	18
435.168	1	27
435.339	1	25
435.509	1	19
435.680	1	26
435.850	1	21
436.021	1	15
436.191	1	24
436.362	1	33
436.532	1	19
436.703	1	21
436.873	1	28
437.044	1	9
437.214	1	14
437.385	1	18
437.556	1	23
437.726	1	31
437.897	1	22
438.067	1	32
438.238	1	16
438.408	1	20
438.579	1	14
438.749	1	16
438.920	1	21
439.090	1	23
439.261	1	8
439.431	1	17
439.602	1	10
439.772	1	23
439.943	1	25
440.113	1	24
440.284	1	14
440.455	1	14
440.625	1	19
440.796	1	33
440.966	1	23
441.137	1	17
441.307	1	20
441.478	1	27
441.648	1	24
441.819	1	20
441.989	1	21
442.160	1	21
442.330	1	25
442.501	1	25
442.671	1	12
442.842	1	12
443.012	1	9
443.183	1	26
443.353	1	5
443.524	1	20
443.694	1	29
443.865	1	17
444.035	1	15
444.206	1	16
444.376	1	19
444.547	1	29
444.717	1	24
444.888	1	20
445.058	1	32
445.229	1	22
445.399	1	15
445.570	1	19
445.740	1	10
445.911	1	8
446.081	1	16
446.252	1	25
446.422	1	21
446.593	1	14
446.763	1	27
446.934	1	13
447.104	1	21
447.275	1	15
447.445	1	19
447.616	1	17
447.786	1	24
447.957	1	24
448.127	1	17
448.298	1	16
448.468	1	12
448.639	1	25
448.809	1	16
448.979	1	14
449.150	1	24
449.320	1	26
449.491	1	20
449.661	1	18
449.832	1	17
450.002	1	27
450.173	1	26
450.343	1	19
450.514	1	15
450.684	1	12
450.855	1	18
451.025	1	20
451.196	1	11
451.366	1	22
451.537	1	10
451.707	1	7
451.878	1	12
452.048	1	19
452.218	1	27
452.389	1	19
452.559	1	12
452.730	1	23
452.900	1	17
453.071	1	-2
453.241	1	26
453.412	1	14
453.582	1	9
453.753	1	14
453.923	1	24
454.093	1	22
454.264	1	22
454.434	1	15
454.605	1	22
454.775	1	16
454.946	1	9
455.116	1	14
455.287	1	7
455.457	1	10
455.628	1	3
455.798	1	16
455.968	1	24
456.139	1	19
456.309	1	13
456.480	1	18
456.650	1	11
456.821	1	16
456.991	1	17
457.161	1	5
457.332	1	17
457.502	1	8
457.673	1	20
457.843	1	25
458.014	1	15
458.184	1	16
458.355	1	14
458.525	1	9
458.695	1	12
458.866	1	17
459.036	1	17
459.207	1	23
459.377	1	15
459.548	1	19
459.718	1	10
459.888	1	15
460.059	1	23
460.229	1	20
460.400	1	28
460.570	1	17
460.740	1	17
460.911	1	21
461.081	1	22
461.252	1	6
461.422	1	17
461.593	1	14
461.763	1	23
461.933	1	17
462.104	1	15
462.274	1	15
462.445	1	18
462.615	1	12
462.785	1	18
462.956	1	17
463.126	1	19
463.297	1	15
463.467	1	19
463.638	1	15
463.808	1	14
463.978	1	7
464.149	1	8
464.319	1	13
464.490	1	29
464.660	1	16
464.830	1	13
465.001	1	16
465.171	1	24
465.342	1	16
465.512	1	14
465.682	1	9
465.853	1	22
466.023	1	11
466.194	1	14
466.364	1	22
466.534	1	15
466.705	1	18
466.875	1	9
467.045	1	13
467.216	1	16
467.386	1	8
467.557	1	12
467.727	1	13
467.897	1	9
468.068	1	18
468.238	1	8
468.409	1	5
468.579	1	13
468.749	1	11
468.920	1	2
469.090	1	15
469.260	1	5
469.431	1	17
469.601	1	20
469.772	1	7
469.942	1	1
470.112	1	16
470.283	1	9
470.453	1	15
470.623	1	11
470.794	1	5
470.964	1	13
471.135	1	13
471.305	1	11
471.475	1	20
471.646	1	13
471.816	1	9
471.986	1	20
472.157	1	17
472.327	1	1
472.497	1	6
472.668	1	5
472.838	1	4
473.009	1	13
473.179	1	1
473.349	1	6
473.520	1	11
473.690	1	21
473.860	1	7
474.031	1	10
474.201	1	9
474.371	1	13
474.542	1	14
474.712	1	14
474.882	1	10
475.053	1	20
475.223	1	6
475.394	1	19
475.564	1	13
475.734	1	12
475.905	1	15
476.075	1	13
476.245	1	21
476.416	1	13
476.586	1	27
476.756	1	22
476.927	1	15
477.097	1	18
477.267	1	1
477.438	1	18
477.608	1	11
477.778	1	11
477.949	1	8
478.119	1	20
478.289	1	18
478.460	1	15
478.630	1	11
478.800	1	19
478.971	1	13
479.141	1	2
479.311	1	-5
479.482	1	2
479.652	1	5
479.822	1	18
479.993	1	12
480.163	1	17
480.333	1	16
480.504	1	20
480.674	1	3
480.844	1	9
481.015	1	21
481.185	1	2
481.355	1	14
481.525	1	10
481.696	1	8
481.866	1	9
482.036	1	15
482.207	1	10
482.377	1	15
482.547	1	19
482.718	1	3
482.888	1	14
483.058	1	-1
483.229	1	3
483.399	1	4
483.569	1	12
483.740	1	15
483.910	1	11
484.080	1	6
484.250	1	11
484.421	1	9
484.591	1	18
484.761	1	12
484.932	1	13
485.102	1	15
485.272	1	19
485.443	1	17
485.613	1	13
485.783	1	10
485.953	1	12
486.124	1	20
486.294	1	9
486.464	1	11
486.635	1	15
486.805	1	22
486.975	1	1
487.146	1	11
487.316	1	6
487.486	1	14
487.656	1	-2
487.827	1	0
487.997	1	3
488.167	1	6
488.338	1	18
488.508	1	6
488.678	1	7
488.848	1	15
489.019	1	2
489.189	1	3
489.359	1	19
489.529	1	8
489.700	1	9
489.870	1	22
490.040	1	3
490.211	1	0
490.381	1	14
490.551	1	3
490.721	1	9
490.892	1	1
491.062	1	10
491.232	1	11
491.402	1	10
491.573	1	4
491.743	1	3
491.913	1	4
492.084	1	21
492.254	1	-8
492.424	1	3
492.594	1	7
492.765	1	12
492.935	1	9
493.105	1	10
493.275	1	8
493.446	1	15
493.616	1	6
493.786	1	10
493.956	1	0
494.127	1	7
494.297	1	3
494.467	1	7
494.637	1	11
494.808	1	-1
494.978	1	7
495.148	1	5
495.318	1	5
495.489	1	9
495.659	1	13
495.829	1	7
495.999	1	0
496.170	1	15
496.340	1	6
496.510	1	9
496.680	1	3
496.851	1	11
497.021	1	12
497.191	1	2
497.361	1	0
497.532	1	9
497.702	1	5
497.872	1	3
498.042	1	18
498.213	1	3
498.383	1	8
498.553	1	1
498.723	1	4
498.894	1	8
499.064	1	6
499.234	1	14
499.404	1	0
499.574	1	9
499.745	1	12
499.915	1	6
500.085	1	4
500.255	1	20
500.426	1	9
500.596	1	13
500.766	1	7
500.936	1	4
501.106	1	-4
501.277	1	6
501.447	1	9
501.617	1	16
501.787	1	3
501.958	1	-7
502.128	1	6
502.298	1	8
502.468	1	19
502.638	1	5
502.809	1	8
502.979	1	2
503.149	1	7
503.319	1	-2
503.489	1	5
503.660	1	3
503.830	1	7
504.000	1	10
504.170	1	1
504.340	1	-3
504.511	1	14
504.681	1	9
504.851	1	12
505.021	1	4
505.192	1	-3
505.362	1	9
505.532	1	10
505.702	1	0
505.872	1	16
506.043	1	5
506.213	1	5
506.383	1	7
506.553	1	14
506.723	1	6
506.893	1	9
507.064	1	6
507.234	1	-4
507.404	1	1
507.574	1	14
507.744	1	12
507.915	1	16
508.085	1	15
508.255	1	7
508.425	1	-4
508.595	1	15
508.766	1	9
508.936	1	0
509.106	1	10
509.276	1	15
509.446	1	5
509.616	1	7
509.787	1	2
509.957	1	4
510.127	1	6
510.297	1	5
510.467	1	4
510.638	1	12
510.808	1	1
510.978	1	5
511.148	1	0
511.318	1	9
511.488	1	-2
511.659	1	8
511.829	1	6
511.999	1	10
512.169	1	13
512.339	1	3
512.509	1	10
512.680	1	4
512.850	1	1
513.020	1	8
513.190	1	12
513.360	1	-4
513.530	1	1
513.700	1	12
513.871	1	-1
514.041	1	7
514.211	1	7
514.381	1	17
514.551	1	-2
514.721	1	6
514.892	1	-4
515.062	1	-2
515.232	1	8
515.402	1	-2
515.572	1	-2
515.742	1	9
515.912	1	8
516.083	1	4
516.253	1	13
516.423	1	1
516.593	1	-1
516.763	1	7
516.933	1	-2
517.104	1	9
517.274	1	4
517.444	1	7
517.614	1	-1
517.784	1	9
517.954	1	21
518.124	1	5
518.294	1	5
518.465	1	-1
518.635	1	3
518.805	1	-10
518.975	1	6
519.145	1	1
519.315	1	4
519.485	1	2
519.656	1	11
519.826	1	-3
519.996	1	-3
520.166	1	5
520.336	1	12
520.506	1	3
520.676	1	-6
520.846	1	14
521.017	1	3
521.187	1	8
521.357	1	5
521.527	1	4
521.697	1	3
521.867	1	-1
522.037	1	14
522.207	1	10
522.377	1	9
522.548	1	9
522.718	1	7
522.888	1	14
523.058	1	4
523.228	1	12
523.398	1	8
523.568	1	2
523.738	1	7
523.909	1	9
524.079	1	6
524.249	1	12
524.419	1	2
524.589	1	0
524.759	1	-8
524.929	1	0
525.099	1	8
525.269	1	-3
525.439	1	2
525.610	1	20
525.780	1	2
525.950	1	11
526.120	1	6
526.290	1	3
526.460	1	0
526.630	1	4
526.800	1	8
526.970	1	6
527.140	1	19
527.311	1	2
527.481	1	3
527.651	1	12
527.821	1	-1
527.991	1	6
528.161	1	8
528.331	1	1
528.501	1	3
528.671	1	-1
528.841	1	11
529.011	1	2
529.181	1	11
529.352	1	-4
529.522	1	-2
529.692	1	9
529.862	1	-2
530.032	1	3
530.202	1	-1
530.372	1	13
530.542	1	4
530.712	1	12
530.882	1	7
531.052	1	9
531.222	1	7
531.392	1	1
531.563	1	3
531.733	1	3
531.903	1	2
532.073	1	18
532.243	1	11
532.413	1	13
532.583	1	6
532.753	1	8
532.923	1	1
533.093	1	2
533.263	1	-2
533.433	1	-2
533.603	1	8
533.773	1	-3
533.943	1	3
534.113	1	6
534.284	1	8
534.454	1	6
534.624	1	14
534.794	1	0
534.964	1	14
535.134	1	-2
535.304	1	4
535.474	1	5
535.644	1	3
535.814	1	1
535.984	1	-3
536.154	1	-4
536.324	1	6
536.494	1	8
536.664	1	8
536.834	1	-1
537.004	1	4
537.174	1	8
537.344	1	3
537.514	1	-7
537.685	1	3
537.855	1	12
538.025	1	5
538.195	1	10
538.365	1	7
538.535	1	1
538.705	1	3
538.875	1	9
539.045	1	14
539.215	1	12
539.385	1	16
539.555	1	-3
539.725	1	0
539.895	1	-5
540.065	1	10
540.235	1	10
540.405	1	0
540.575	1	8
540.745	1	5
540.915	1	9
541.085	1	16
541.255	1	-8
541.425	1	7
541.595	1	-3
541.765	1	8
541.935	1	-3
542.105	1	-8
542.275	1	-6
542.445	1	-1
542.615	1	7
542.785	1	2
542.955	1	7
543.125	1	1
543.295	1	12
543.465	1	11
543.635	1	3
543.805	1	9
543.975	1	0
544.145	1	9
544.315	1	9
544.485	1	1
544.655	1	7
544.825	1	-11
544.995	1	7
545.165	1	-4
545.335	1	7
545.505	1	6
545.675	1	9
545.845	1	1
546.015	1	6
546.185	1	9
546.355	1	-1
546.525	1	8
546.695	1	15
546.865	1	-7
547.035	1	11
547.205	1	-7
547.375	1	-2
547.545	1	8
547.715	1	2
547.885	1	3
548.055	1	-2
548.225	1	0
548.395	1	5
548.565	1	4
548.735	1	11
548.905	1	0
549.075	1	11
549.245	1	-1
549.415	1	0
549.585	1	6
549.755	1	4
549.925	1	4
550.095	1	1
550.265	1	-2
550.435	1	-2
550.605	1	-2
550.775	1	0
550.945	1	10
551.115	1	7
551.285	1	7
551.455	1	-5
551.625	1	10
551.795	1	4
551.965	1	-3
552.135	1	-5
552.305	1	1
552.475	1	-1
552.645	1	-6
552.815	1	1
552.985	1	6
553.155	1	0
553.325	1	-1
553.495	1	3
553.665	1	5
553.835	1	0
554.004	1	-5
554.174	1	1
554.344	1	16
554.514	1	4
554.684	1	1
554.854	1	10
555.024	1	4
555.194	1	-3
555.364	1	10
555.534	1	9
555.704	1	-6
555.874	1	6
556.044	1	-3
556.214	1	-4
556.384	1	-2
556.554	1	8
556.724	1	3
556.894	1	2
557.064	1	4
557.234	1	6
557.404	1	11
557.573	1	3
557.743	1	-4
557.913	1	-7
558.083	1	-2
558.253	1	4
558.423	1	2
558.593	1	14
558.763	1	4
558.933	1	5
559.103	1	1
559.273	1	9
559.443	1	2
559.613	1	-4
559.783	1	-11
559.953	1	0
560.122	1	0
560.292	1	-1
560.462	1	11
560.632	1	5
560.802	1	8
560.972	1	2
561.142	1	3
561.312	1	-8
561.482	1	2
561.652	1	5
561.822	1	-5
561.992	1	0
562.162	1	-2
562.331	1	8
562.501	1	-4
562.671	1	9
562.841	1	-8
563.011	1	3
563.181	1	-1
563.351	1	-5
563.521	1	6
563.691	1	4
563.861	1	4
564.031	1	8
564.201	1	7
564.370	1	-13
564.540	1	2
564.710	1	-1
564.880	1	-1
565.050	1	10
565.220	1	-6
565.390	1	2
565.560	1	3
565.730	1	1
565.900	1	6
566.069	1	9
566.239	1	-5
566.409	1	-2
566.579	1	2
566.749	1	0
566.919	1	2
567.089	1	0
567.259	1	4
567.429	1	1
567.599	1	4
567.768	1	2
567.938	1	9
568.108	1	6
568.278	1	3
568.448	1	-3
568.618	1	3
568.788	1	11
568.958	1	5
569.128	1	7
569.297	1	-8
569.467	1	-3
569.637	1	10
569.807	1	5
569.977	1	3
570.147	1	11
570.317	1	-5
570.487	1	1
570.656	1	4
570.826	1	-3
570.996	1	-6
571.166	1	22
571.336	1	2
571.506	1	10
571.676	1	5
571.846	1	1
572.015	1	5
572.185	1	-3
572.355	1	9
572.525	1	3
572.695	1	7
572.865	1	-9
573.035	1	-5
573.205	1	8
573.374	1	-12
573.544	1	1
573.714	1	14
573.884	1	10
574.054	1	2
574.224	1	9
574.394	1	-2
574.563	1	-7
574.733	1	-2
574.903	1	2
575.073	1	2
575.243	1	1
575.413	1	9
575.583	1	-4
575.752	1	3
575.922	1	-5
576.092	1	-3
576.262	1	4
576.432	1	1
576.602	1	-13
576.772	1	13
576.941	1	-7
577.111	1	-2
577.281	1	-14
577.451	1	-8
577.621	1	9
577.791	1	11
577.960	1	-2
578.130	1	3
578.300	1	3
578.470	1	13
578.640	1	1
578.810	1	2
578.979	1	5
579.149	1	3
579.319	1	-2
579.489	1	3
579.659	1	4
579.829	1	6
579.998	1	9
580.168	1	10
580.338	1	9
580.508	1	6
580.678	1	2
580.848	1	8
581.017	1	7
581.187	1	4
581.357	1	-4
581.527	1	16
581.697	1	9
581.867	1	3
582.036	1	4
582.206	1	2
582.376	1	9
582.546	1	-1
582.716	1	-8
582.885	1	4
583.055	1	-7
583.225	1	-1
583.395	1	7
583.565	1	-2
583.735	1	7
583.904	1	-2
584.074	1	1
584.244	1	3
584.414	1	2
584.584	1	11
584.753	1	-6
584.923	1	7
585.093	1	9
585.263	1	11
585.433	1	8
585.602	1	-8
585.772	1	-9
585.942	1	4
586.112	1	5
586.282	1	-5
586.451	1	6
586.621	1	0
586.791	1	1
586.961	1	-1
587.131	1	7
587.300	1	-5
587.470	1	16
587.640	1	8
587.810	1	-2
587.980	1	-5
588.149	1	-1
588.319	1	5
588.489	1	0
588.659	1	8
588.829	1	-2
588.998	1	17
589.168	1	5
589.338	1	-4
589.508	1	1
589.677	1	1
589.847	1	-10
590.017	1	12
590.187	1	-2
590.357	1	16
590.526	1	17
590.696	1	4
590.866	1	12
591.036	1	-3
591.205	1	10
591.375	1	1
591.545	1	-6
591.715	1	-1
591.885	1	1
592.054	1	2
592.224	1	2
592.394	1	-1
592.564	1	12
592.733	1	5
592.903	1	-1
593.073	1	0
593.243	1	6
593.412	1	0
593.582	1	5
593.752	1	-8
593.922	1	-4
594.091	1	-5
594.261	1	3
594.431	1	4
594.601	1	0
594.771	1	7
594.940	1	11
595.110	1	5
595.280	1	7
595.450	1	-3
595.619	1	8
595.789	1	-7
595.959	1	19
596.129	1	-4
596.298	1	-3
596.468	1	1
596.638	1	10
596.808	1	2
596.977	1	3
597.147	1	7
597.317	1	1
597.487	1	6
597.656	1	3
597.826	1	4
597.996	1	3
598.166	1	2
598.335	1	0
598.505	1	1
598.675	1	2
598.844	1	3
599.014	1	3
599.184	1	5
599.354	1	-10
599.523	1	6
599.693	1	-1
599.863	1	9
600.033	1	4
600.202	1	11
600.372	1	4
600.542	1	5
600.712	1	-6
600.881	1	7
601.051	1	15
601.221	1	7
601.390	1	0
601.560	1	6
601.730	1	5
601.900	1	0
602.069	1	11
602.239	1	-8
602.409	1	1
602.578	1	1
602.748	1	-6
602.918	1	2
603.088	1	4
603.257	1	5
603.427	1	-5
603.597	1	-2
603.767	1	6
603.936	1	8
604.106	1	6
604.276	1	8
604.445	1	2
604.615	1	-9
604.785	1	-6
604.954	1	-7
605.124	1	9
605.294	1	-3
605.464	1	-1
605.633	1	1
605.803	1	7
605.973	1	-9
606.142	1	7
606.312	1	10
606.482	1	2
606.652	1	6
606.821	1	-1
606.991	1	7
607.161	1	-6
607.330	1	0
607.500	1	1
607.670	1	-1
607.839	1	0
608.009	1	12
608.179	1	-2
608.348	1	0
608.518	1	3
608.688	1	10
608.858	1	-2
609.027	1	-11
609.197	1	2
609.367	1	10
609.536	1	-6
609.706	1	0
609.876	1	-4
610.045	1	-3
610.215	1	10
610.385	1	8
610.554	1	6
610.724	1	5
610.894	1	2
611.063	1	5
611.233	1	2
611.403	1	7
611.572	1	-5
611.742	1	5
611.912	1	-9
612.081	1	-6
612.251	1	16
612.421	1	-2
612.590	1	2
612.760	1	0
612.930	1	7
613.099	1	6
613.269	1	9
613.439	1	5
613.608	1	0
613.778	1	9
613.948	1	-7
614.117	1	4
614.287	1	20
614.457	1	4
614.626	1	-4
614.796	1	7
614.966	1	1
615.135	1	-3
615.305	1	12
615.475	1	5
615.644	1	8
615.814	1	-1
615.984	1	-1
616.153	1	3
616.323	1	-1
616.493	1	1
616.662	1	10
616.832	1	3
617.002	1	-2
617.171	1	7
617.341	1	3
617.511	1	3
617.680	1	0
617.850	1	10
618.019	1	11
618.189	1	14
618.359	1	0
618.528	1	-2
618.698	1	9
618.868	1	-10
619.037	1	5
619.207	1	2
619.377	1	-6
619.546	1	-1
619.716	1	2
619.885	1	14
620.055	1	-11
620.225	1	0
620.394	1	0
620.564	1	-1
620.734	1	6
620.903	1	-2
621.073	1	4
621.242	1	6
621.412	1	2
621.582	1	1
621.751	1	13
621.921	1	-1
622.091	1	-1
622.260	1	1
622.430	1	9
622.599	1	0
622.769	1	10
622.939	1	8
623.108	1	5
623.278	1	-11
623.448	1	7
623.617	1	-2
623.787	1	9
623.956	1	5
624.126	1	3
624.296	1	2
624.465	1	12
624.635	1	13
624.804	1	13
624.974	1	7
625.144	1	9
625.313	1	-9
625.483	1	3
625.652	1	-5
625.822	1	-1
625.992	1	-2
626.161	1	12
626.331	1	-2
626.501	1	7
626.670	1	8
626.840	1	5
627.009	1	-9
627.179	1	8
627.348	1	14
627.518	1	6
627.688	1	3
627.857	1	16
628.027	1	3
628.196	1	11
628.366	1	14
628.536	1	1
628.705	1	-1
628.875	1	2
629.044	1	-1
629.214	1	8
629.384	1	3
629.553	1	8
629.723	1	-1
629.892	1	11
630.062	1	10
630.232	1	-2
630.401	1	12
630.571	1	5
630.740	1	3
630.910	1	5
631.079	1	0
631.249	1	4
631.419	1	8
631.588	1	-3
631.758	1	2
631.927	1	-2
632.097	1	4
632.266	1	-6
632.436	1	7
632.606	1	-4
632.775	1	8
632.945	1	0
633.114	1	6
633.284	1	7
633.453	1	3
633.623	1	5
633.793	1	6
633.962	1	-1
634.132	1	11
634.301	1	13
634.471	1	8
634.640	1	8
634.810	1	1
634.979	1	7
635.149	1	4
635.319	1	5
635.488	1	7
635.658	1	3
635.827	1	-8
635.997	1	7
636.166	1	14
636.336	1	3
636.505	1	4
636.675	1	6
636.845	1	2
637.014	1	-6
637.184	1	10
637.353	1	5
637.523	1	14
637.692	1	2
637.862	1	3
638.031	1	9
638.201	1	4
638.370	1	-5
638.540	1	-4
638.710	1	6
638.879	1	-6
639.049	1	5
639.218	1	15
639.388	1	-2
639.557	1	-1
639.727	1	3
639.896	1	0
640.066	1	-3
640.235	1	6
640.405	1	6
640.574	1	4
640.744	1	-4
640.914	1	4
641.083	1	0
641.253	1	2
641.422	1	-7
641.592	1	22
641.761	1	2
641.931	1	-5
642.100	1	10
642.270	1	2
642.439	1	7
642.609	1	1
642.778	1	13
642.948	1	-5
643.117	1	8
643.287	1	9
643.456	1	-2
643.626	1	9
643.795	1	7
643.965	1	13
644.134	1	-3
644.304	1	11
644.473	1	14
644.643	1	12
644.812	1	8
644.982	1	4
645.151	1	5
645.321	1	3
645.490	1	8
645.660	1	0
645.829	1	0
645.999	1	-3
646.168	1	8
646.338	1	7
646.507	1	11
646.677	1	10
646.846	1	1
647.016	1	-4
647.185	1	5
647.355	1	-10
647.524	1	13
647.694	1	14
647.863	1	2
648.033	1	4
648.202	1	13
648.372	1	-2
648.541	1	-1
648.711	1	-2
648.880	1	-1
649.050	1	0
649.219	1	5
649.389	1	16
649.558	1	3
649.728	1	20
649.897	1	-4
650.067	1	-2
650.236	1	0
650.406	1	6
650.575	1	6
650.745	1	10
650.914	1	-8
651.084	1	-8
651.253	1	6
651.423	1	7
651.592	1	9
651.762	1	-5
651.931	1	4
652.101	1	1
652.270	1	8
652.440	1	3
652.609	1	1
652.778	1	-8
652.948	1	9
653.117	1	4
653.287	1	0
653.456	1	2
653.626	1	6
653.795	1	5
653.965	1	8
654.134	1	10
654.304	1	-4
654.473	1	15
654.643	1	7
654.812	1	7
654.982	1	0
655.151	1	2
655.320	1	1
655.490	1	1
655.659	1	1
655.829	1	13
655.998	1	1
656.168	1	5
656.337	1	7
656.507	1	7
656.676	1	9
656.846	1	7
657.015	1	2
657.184	1	12
657.354	1	9
657.523	1	2
657.693	1	17
657.862	1	9
658.032	1	3
658.201	1	5
658.371	1	12
658.540	1	3
658.709	1	6
658.879	1	-2
659.048	1	12
659.218	1	7
659.387	1	8
659.557	1	3
659.726	1	10
659.895	1	7
660.065	1	-7
660.234	1	6
660.404	1	5
660.573	1	6
660.743	1	5
660.912	1	6
661.081	1	11
661.251	1	-2
661.420	1	8
661.590	1	3
661.759	1	8
661.929	1	14
662.098	1	19
662.267	1	5
662.437	1	12
662.606	1	1
662.776	1	15
662.945	1	4
663.115	1	10
663.284	1	0
663.453	1	7
663.623	1	2
663.792	1	3
663.962	1	1
664.131	1	8
664.300	1	7
664.470	1	3
664.639	1	13
664.809	1	7
664.978	1	13
665.148	1	5
665.317	1	4
665.486	1	12
665.656	1	-1
665.825	1	5
665.995	1	-1
666.164	1	4
666.333	1	7
666.503	1	4
666.672	1	3
666.842	1	3
667.011	1	-4
667.180	1	5
667.350	1	2
667.519	1	2
667.689	1	-3
667.858	1	2
668.027	1	17
668.197	1	-4
668.366	1	1
668.536	1	7
668.705	1	9
668.874	1	6
669.044	1	9
669.213	1	8
669.382	1	-5
669.552	1	12
669.721	1	13
669.891	1	18
670.060	1	6
670.229	1	21
670.399	1	-1
670.568	1	15
670.738	1	8
670.907	1	-10
671.076	1	-4
671.246	1	3
671.415	1	5
671.584	1	8
671.754	1	4
671.923	1	5
672.093	1	9
672.262	1	0
672.431	1	9
672.601	1	4
672.770	1	-7
672.939	1	11
673.109	1	2
673.278	1	5
673.448	1	14
673.617	1	2
673.786	1	11
