325.333	1	12
325.504	1	13
325.675	1	8
325.846	1	13
326.017	1	8
326.188	1	8
326.359	1	6
326.531	1	-3
326.702	1	-8
326.873	1	17
327.044	1	8
327.215	1	2
327.386	1	13
327.557	1	3
327.728	1	6
327.899	1	11
328.070	1	16
328.241	1	11
328.412	1	2
328.583	1	4
328.754	1	13
328.926	1	15
329.097	1	9
329.268	1	21
329.439	1	11
329.610	1	10
329.781	1	9
329.952	1	18
330.123	1	21
330.294	1	8
330.465	1	16
330.636	1	15
330.807	1	5
330.978	1	6
331.149	1	3
331.320	1	9
331.492	1	9
331.663	1	14
331.834	1	30
332.005	1	14
332.176	1	32
332.347	1	22
332.518	1	4
332.689	1	19
332.860	1	9
333.031	1	15
333.202	1	7
333.373	1	16
333.544	1	13
333.715	1	30
333.886	1	15
334.057	1	19
334.228	1	9
334.399	1	18
334.570	1	20
334.741	1	13
334.912	1	19
335.084	1	30
335.255	1	21
335.426	1	13
335.597	1	12
335.768	1	13
335.939	1	29
336.110	1	7
336.281	1	13
336.452	1	8
336.623	1	21
336.794	1	31
336.965	1	21
337.136	1	23
337.307	1	17
337.478	1	15
337.649	1	9
337.820	1	17
337.991	1	17
338.162	1	15
338.333	1	16
338.504	1	12
338.675	1	20
338.846	1	19
339.017	1	17
339.188	1	7
339.359	1	17
339.530	1	22
339.701	1	19
339.872	1	27
340.043	1	9
340.214	1	12
340.385	1	26
340.556	1	11
340.727	1	25
340.898	1	21
341.069	1	26
341.240	1	11
341.411	1	18
341.582	1	18
341.753	1	23
341.924	1	18
342.095	1	24
342.266	1	38
342.437	1	28
342.608	1	17
342.779	1	25
342.950	1	23
343.121	1	33
343.292	1	23
343.463	1	20
343.634	1	33
343.805	1	23
343.976	1	22
344.147	1	22
344.318	1	18
344.489	1	19
344.660	1	27
344.831	1	25
345.002	1	21
345.173	1	25
345.344	1	27
345.515	1	32
345.686	1	17
345.857	1	26
346.028	1	25
346.199	1	16
346.370	1	24
346.541	1	31
346.712	1	19
346.883	1	28
347.054	1	23
347.225	1	22
347.396	1	33
347.567	1	7
347.738	1	11
347.909	1	39
348.080	1	24
348.251	1	34
348.422	1	35
348.593	1	44
348.764	1	41
348.935	1	29
349.106	1	28
349.277	1	28
349.448	1	35
349.619	1	34
349.790	1	39
349.961	1	42
350.132	1	40
350.303	1	28
350.474	1	42
350.645	1	39
350.816	1	28
350.987	1	45
351.157	1	31
351.328	1	30
351.499	1	40
351.670	1	33
351.841	1	34
352.012	1	38
352.183	1	49
352.354	1	30
352.525	1	42
352.696	1	46
352.867	1	29
353.038	1	44
353.209	1	40
353.380	1	33
353.551	1	37
353.722	1	28
353.893	1	38
354.064	1	43
354.235	1	33
354.406	1	40
354.576	1	31
354.747	1	34
354.918	1	42
355.089	1	34
355.260	1	41
355.431	1	41
355.602	1	40
355.773	1	36
355.944	1	42
356.115	1	43
356.286	1	44
356.457	1	40
356.628	1	45
356.799	1	39
356.970	1	45
357.141	1	30
357.311	1	36
357.482	1	38
357.653	1	41
357.824	1	46
357.995	1	40
358.166	1	37
358.337	1	35
358.508	1	40
358.679	1	33
358.850	1	49
359.021	1	36
359.192	1	38
359.363	1	49
359.533	1	51
359.704	1	45
359.875	1	37
360.046	1	40
360.217	1	30
360.388	1	49
360.559	1	28
360.730	1	49
360.901	1	41
361.072	1	51
361.243	1	51
361.414	1	36
361.584	1	32
361.755	1	44
361.926	1	41
362.097	1	43
362.268	1	36
362.439	1	38
362.610	1	54
362.781	1	37
362.952	1	38
363.123	1	42
363.293	1	39
363.464	1	45
363.635	1	42
363.806	1	46
363.977	1	50
364.148	1	41
364.319	1	53
364.490	1	49
364.661	1	47
364.832	1	52
365.002	1	38
365.173	1	43
365.344	1	54
365.515	1	41
365.686	1	50
365.857	1	48
366.028	1	46
366.199	1	37
366.370	1	51
366.540	1	28
366.711	1	32
366.882	1	35
367.053	1	44
367.224	1	56
367.395	1	48
367.566	1	53
367.737	1	46
367.908	1	46
368.078	1	52
368.249	1	56
368.420	1	41
368.591	1	33
368.762	1	41
368.933	1	39
369.104	1	37
369.274	1	50
369.445	1	49
369.616	1	53
369.787	1	44
369.958	1	48
370.129	1	36
370.300	1	54
370.471	1	42
370.641	1	47
370.812	1	43
370.983	1	52
371.154	1	38
371.325	1	49
371.496	1	42
371.667	1	50
371.837	1	35
372.008	1	47
372.179	1	44
372.350	1	51
372.521	1	54
372.692	1	44
372.863	1	45
373.033	1	33
373.204	1	42
373.375	1	47
373.546	1	37
373.717	1	52
373.888	1	52
374.059	1	47
374.229	1	53
374.400	1	34
374.571	1	45
374.742	1	60
374.913	1	56
375.084	1	39
375.254	1	57
375.425	1	50
375.596	1	51
375.767	1	50
375.938	1	55
376.109	1	51
376.279	1	49
376.450	1	52
376.621	1	52
376.792	1	38
376.963	1	48
377.134	1	50
377.304	1	58
377.475	1	52
377.646	1	46
377.817	1	42
377.988	1	51
378.159	1	57
378.329	1	64
378.500	1	37
378.671	1	52
378.842	1	39
379.013	1	52
379.184	1	56
379.354	1	70
379.525	1	39
379.696	1	56
379.867	1	58
380.038	1	54
380.209	1	59
380.379	1	52
380.550	1	47
380.721	1	61
380.892	1	60
381.063	1	67
381.233	1	51
381.404	1	58
381.575	1	58
381.746	1	60
381.917	1	44
382.087	1	56
382.258	1	50
382.429	1	53
382.600	1	59
382.771	1	57
382.941	1	52
383.112	1	54
383.283	1	65
383.454	1	55
383.625	1	54
383.795	1	60
383.966	1	53
384.137	1	58
384.308	1	58
384.479	1	63
384.649	1	61
384.820	1	59
384.991	1	55
385.162	1	68
385.333	1	45
385.503	1	55
385.674	1	46
385.845	1	71
386.016	1	57
386.187	1	48
386.357	1	70
386.528	1	67
386.699	1	59
386.870	1	72
387.041	1	70
387.211	1	70
387.382	1	66
387.553	1	72
387.724	1	60
387.894	1	75
388.065	1	56
388.236	1	63
388.407	1	62
388.578	1	55
388.748	1	52
388.919	1	59
389.090	1	62
389.261	1	60
389.431	1	66
389.602	1	74
389.773	1	70
389.944	1	63
390.114	1	56
390.285	1	67
390.456	1	59
390.627	1	58
390.798	1	59
390.968	1	60
391.139	1	65
391.310	1	55
391.481	1	67
391.651	1	64
391.822	1	51
391.993	1	68
392.164	1	56
392.334	1	66
392.505	1	62
392.676	1	74
392.847	1	73
393.017	1	67
393.188	1	64
393.359	1	57
393.530	1	64
393.700	1	57
393.871	1	57
394.042	1	55
394.213	1	61
394.383	1	62
394.554	1	69
394.725	1	71
394.896	1	63
395.066	1	67
395.237	1	64
395.408	1	63
395.579	1	69
395.749	1	62
395.920	1	55
396.091	1	70
396.262	1	51
396.432	1	68
396.603	1	61
396.774	1	77
396.945	1	65
397.115	1	70
397.286	1	60
397.457	1	70
397.627	1	72
397.798	1	73
397.969	1	61
398.140	1	66
398.310	1	71
398.481	1	66
398.652	1	74
398.823	1	57
398.993	1	69
399.164	1	74
399.335	1	88
399.505	1	78
399.676	1	64
399.847	1	73
400.018	1	69
400.188	1	70
400.359	1	76
400.530	1	69
400.700	1	71
400.871	1	69
401.042	1	69
401.213	1	63
401.383	1	75
401.554	1	80
401.725	1	79
401.895	1	73
402.066	1	72
402.237	1	66
402.408	1	76
402.578	1	74
402.749	1	82
402.920	1	79
403.090	1	62
403.261	1	70
403.432	1	67
403.603	1	79
403.773	1	77
403.944	1	80
404.115	1	78
404.285	1	80
404.456	1	70
404.627	1	62
404.797	1	64
404.968	1	66
405.139	1	64
405.310	1	82
405.480	1	80
405.651	1	63
405.822	1	72
405.992	1	72
406.163	1	61
406.334	1	57
406.504	1	69
406.675	1	75
406.846	1	66
407.016	1	82
407.187	1	78
407.358	1	76
407.528	1	61
407.699	1	65
407.870	1	68
408.041	1	79
408.211	1	75
408.382	1	66
408.553	1	79
408.723	1	80
408.894	1	72
409.065	1	66
409.235	1	71
409.406	1	75
409.577	1	67
409.747	1	83
409.918	1	66
410.089	1	74
410.259	1	78
410.430	1	74
410.601	1	74
410.771	1	79
410.942	1	76
411.113	1	85
411.283	1	68
411.454	1	77
411.625	1	74
411.795	1	65
411.966	1	70
412.137	1	76
412.307	1	68
412.478	1	68
412.649	1	82
412.819	1	76
412.990	1	77
413.161	1	71
413.331	1	72
413.502	1	81
413.672	1	68
413.843	1	74
414.014	1	69
414.184	1	77
414.355	1	77
414.526	1	81
414.696	1	76
414.867	1	73
415.038	1	51
415.208	1	67
415.379	1	71
415.550	1	79
415.720	1	76
415.891	1	63
416.062	1	70
416.232	1	77
416.403	1	80
416.573	1	62
416.744	1	66
416.915	1	83
417.085	1	72
417.256	1	60
417.427	1	71
417.597	1	73
417.768	1	57
417.939	1	74
418.109	1	67
418.280	1	72
418.450	1	67
418.621	1	69
418.792	1	67
418.962	1	69
419.133	1	78
419.304	1	72
419.474	1	52
419.645	1	65
419.815	1	67
419.986	1	75
420.157	1	69
420.327	1	82
420.498	1	84
420.669	1	71
420.839	1	77
421.010	1	69
421.180	1	71
421.351	1	68
421.522	1	73
421.692	1	73
421.863	1	76
422.033	1	83
422.204	1	70
422.375	1	68
422.545	1	82
422.716	1	57
422.886	1	61
423.057	1	72
423.228	1	66
423.398	1	70
423.569	1	66
423.740	1	71
423.910	1	63
424.081	1	73
424.251	1	57
424.422	1	76
424.593	1	67
424.763	1	67
424.934	1	63
425.104	1	67
425.275	1	74
425.445	1	66
425.616	1	65
425.787	1	66
425.957	1	58
426.128	1	76
426.298	1	71
426.469	1	54
426.640	1	67
426.810	1	68
426.981	1	69
427.151	1	55
427.322	1	74
427.493	1	71
427.663	1	68
427.834	1	53
428.004	1	71
428.175	1	68
428.345	1	60
428.516	1	62
428.687	1	67
428.857	1	60
429.028	1	58
429.198	1	71
429.369	1	72
429.540	1	57
429.710	1	58
429.881	1	70
430.051	1	62
430.222	1	71
430.392	1	72
430.563	1	69
430.734	1	83
430.904	1	63
431.075	1	67
431.245	1	65
431.416	1	57
431.586	1	57
431.757	1	62
431.927	1	62
432.098	1	66
432.269	1	64
432.439	1	75
432.610	1	61
432.780	1	69
432.951	1	48
433.121	1	64
433.292	1	74
433.462	1	67
433.633	1	62
433.804	1	63
433.974	1	74
434.145	1	75
434.315	1	56
434.486	1	52
434.656	1	64
434.827	1	51
434.997	1	56
435.168	1	66
435.339	1	73
435.509	1	77
435.680	1	64
435.850	1	71
436.021	1	59
436.191	1	61
436.362	1	57
436.532	1	60
436.703	1	59
436.873	1	69
437.044	1	50
437.214	1	55
437.385	1	55
437.556	1	62
437.726	1	76
437.897	1	77
438.067	1	58
438.238	1	67
438.408	1	67
438.579	1	50
438.749	1	53
438.920	1	50
439.090	1	46
439.261	1	53
439.431	1	54
439.602	1	60
439.772	1	49
439.943	1	69
440.113	1	55
440.284	1	56
440.455	1	59
440.625	1	61
440.796	1	58
440.966	1	57
441.137	1	56
441.307	1	49
441.478	1	63
441.648	1	56
441.819	1	55
441.989	1	59
442.160	1	64
442.330	1	57
442.501	1	54
442.671	1	56
442.842	1	48
443.012	1	60
443.183	1	65
443.353	1	57
443.524	1	60
443.694	1	64
443.865	1	62
444.035	1	62
444.206	1	45
444.376	1	49
444.547	1	54
444.717	1	62
444.888	1	58
445.058	1	64
445.229	1	56
445.399	1	51
445.570	1	66
445.740	1	54
445.911	1	47
446.081	1	49
446.252	1	61
446.422	1	57
446.593	1	52
446.763	1	51
446.934	1	40
447.104	1	48
447.275	1	58
447.445	1	60
447.616	1	63
447.786	1	51
447.957	1	65
448.127	1	44
448.298	1	50
448.468	1	59
448.639	1	45
448.809	1	55
448.979	1	55
449.150	1	66
449.320	1	52
449.491	1	57
449.661	1	47
449.832	1	50
450.002	1	53
450.173	1	52
450.343	1	45
450.514	1	53
450.684	1	40
450.855	1	48
451.025	1	49
451.196	1	54
451.366	1	61
451.537	1	51
451.707	1	41
451.878	1	51
452.048	1	62
452.218	1	49
452.389	1	55
452.559	1	43
452.730	1	47
452.900	1	48
453.071	1	38
453.241	1	51
453.412	1	43
453.582	1	53
453.753	1	54
453.923	1	50
454.093	1	55
454.264	1	54
454.434	1	38
454.605	1	45
454.775	1	53
454.946	1	49
455.116	1	44
455.287	1	40
455.457	1	43
455.628	1	42
455.798	1	44
455.968	1	46
456.139	1	40
456.309	1	34
456.480	1	40
456.650	1	38
456.821	1	50
456.991	1	46
457.161	1	50
457.332	1	57
457.502	1	44
457.673	1	47
457.843	1	49
458.014	1	55
458.184	1	53
458.355	1	46
458.525	1	52
458.695	1	47
458.866	1	41
459.036	1	42
459.207	1	35
459.377	1	45
459.548	1	44
459.718	1	33
459.888	1	40
460.059	1	45
460.229	1	48
460.400	1	45
460.570	1	42
460.740	1	44
460.911	1	46
461.081	1	50
461.252	1	40
461.422	1	44
461.593	1	40
461.763	1	46
461.933	1	36
462.104	1	31
462.274	1	42
462.445	1	47
462.615	1	47
462.785	1	36
462.956	1	45
463.126	1	45
463.297	1	41
463.467	1	41
463.638	1	47
463.808	1	32
463.978	1	41
464.149	1	32
464.319	1	41
464.490	1	59
464.660	1	35
464.830	1	36
465.001	1	30
465.171	1	46
465.342	1	39
465.512	1	25
465.682	1	34
465.853	1	46
466.023	1	39
466.194	1	36
466.364	1	48
466.534	1	46
466.705	1	43
466.875	1	29
467.045	1	33
467.216	1	37
467.386	1	33
467.557	1	26
467.727	1	25
467.897	1	42
468.068	1	33
468.238	1	44
468.409	1	32
468.579	1	49
468.749	1	35
468.920	1	36
469.090	1	44
469.260	1	36
469.431	1	39
469.601	1	43
469.772	1	34
469.942	1	29
470.112	1	32
470.283	1	34
470.453	1	34
470.623	1	24
470.794	1	30
470.964	1	42
471.135	1	39
471.305	1	31
471.475	1	41
471.646	1	24
471.816	1	33
471.986	1	31
472.157	1	35
472.327	1	24
472.497	1	33
472.668	1	30
472.838	1	37
473.009	1	40
473.179	1	30
473.349	1	23
473.520	1	40
473.690	1	35
473.860	1	43
474.031	1	32
474.201	1	36
474.371	1	44
474.542	1	41
474.712	1	43
474.882	1	25
475.053	1	50
475.223	1	28
475.394	1	33
475.564	1	32
475.734	1	32
475.905	1	50
476.075	1	33
476.245	1	26
476.416	1	42
476.586	1	41
476.756	1	33
476.927	1	35
477.097	1	35
477.267	1	27
477.438	1	47
477.608	1	35
477.778	1	42
477.949	1	34
478.119	1	47
478.289	1	32
478.460	1	45
478.630	1	27
478.800	1	25
478.971	1	32
479.141	1	26
479.311	1	21
479.482	1	39
479.652	1	20
479.822	1	42
479.993	1	25
480.163	1	35
480.333	1	29
480.504	1	34
480.674	1	30
480.844	1	14
481.015	1	30
481.185	1	38
481.355	1	28
481.525	1	22
481.696	1	31
481.866	1	28
482.036	1	29
482.207	1	19
482.377	1	29
482.547	1	29
482.718	1	27
482.888	1	37
483.058	1	31
483.229	1	14
483.399	1	21
483.569	1	24
483.740	1	29
483.910	1	31
484.080	1	25
484.250	1	24
484.421	1	19
484.591	1	32
484.761	1	28
484.932	1	29
485.102	1	23
485.272	1	23
485.443	1	28
485.613	1	36
485.783	1	28
485.953	1	18
486.124	1	34
486.294	1	28
486.464	1	22
486.635	1	23
486.805	1	35
486.975	1	27
487.146	1	24
487.316	1	24
487.486	1	34
487.656	1	19
487.827	1	21
487.997	1	14
488.167	1	30
488.338	1	26
488.508	1	21
488.678	1	24
488.848	1	31
489.019	1	20
489.189	1	24
489.359	1	26
489.529	1	13
489.700	1	23
489.870	1	30
490.040	1	11
490.211	1	23
490.381	1	19
490.551	1	30
490.721	1	25
490.892	1	18
491.062	1	38
491.232	1	21
491.402	1	24
491.573	1	10
491.743	1	35
491.913	1	11
492.084	1	26
492.254	1	19
492.424	1	22
492.594	1	24
492.765	1	21
492.935	1	23
493.105	1	16
493.275	1	20
493.446	1	27
493.616	1	24
493.786	1	25
493.956	1	12
494.127	1	25
494.297	1	18
494.467	1	18
494.637	1	20
494.808	1	22
494.978	1	11
495.148	1	26
495.318	1	19
495.489	1	18
495.659	1	23
495.829	1	12
495.999	1	22
496.170	1	22
496.340	1	24
496.510	1	24
496.680	1	10
496.851	1	22
497.021	1	16
497.191	1	9
497.361	1	17
497.532	1	18
497.702	1	27
497.872	1	30
498.042	1	24
498.213	1	9
498.383	1	25
498.553	1	17
498.723	1	13
498.894	1	24
499.064	1	24
499.234	1	21
499.404	1	17
499.574	1	21
499.745	1	20
499.915	1	18
500.085	1	24
500.255	1	29
500.426	1	11
500.596	1	26
500.766	1	27
500.936	1	16
501.106	1	14
501.277	1	16
501.447	1	18
501.617	1	15
501.787	1	8
501.958	1	18
502.128	1	21
502.298	1	18
502.468	1	9
502.638	1	19
502.809	1	25
502.979	1	5
503.149	1	8
503.319	1	5
503.489	1	17
503.660	1	26
503.830	1	14
504.000	1	26
504.170	1	12
504.340	1	20
504.511	1	16
504.681	1	22
504.851	1	17
505.021	1	23
505.192	1	10
505.362	1	22
505.532	1	13
505.702	1	19
505.872	1	24
506.043	1	15
506.213	1	10
506.383	1	20
506.553	1	28
506.723	1	15
506.893	1	24
507.064	1	20
507.234	1	18
507.404	1	19
507.574	1	21
507.744	1	14
507.915	1	14
508.085	1	23
508.255	1	13
508.425	1	12
508.595	1	35
508.766	1	20
508.936	1	8
509.106	1	29
509.276	1	25
509.446	1	6
509.616	1	3
509.787	1	14
509.957	1	21
510.127	1	24
510.297	1	11
510.467	1	7
510.638	1	19
510.808	1	11
510.978	1	1
511.148	1	21
511.318	1	11
511.488	1	7
511.659	1	9
511.829	1	18
511.999	1	10
512.169	1	15
512.339	1	7
512.509	1	14
512.680	1	12
512.850	1	5
513.020	1	21
513.190	1	15
513.360	1	0
513.530	1	17
513.700	1	21
513.871	1	8
514.041	1	11
514.211	1	21
514.381	1	17
514.551	1	14
514.721	1	11
514.892	1	18
515.062	1	8
515.232	1	10
515.402	1	9
515.572	1	8
515.742	1	16
515.912	1	13
516.083	1	15
516.253	1	18
516.423	1	10
516.593	1	8
516.763	1	29
516.933	1	13
517.104	1	10
517.274	1	10
517.444	1	14
517.614	1	6
517.784	1	14
517.954	1	13
518.124	1	13
518.294	1	20
518.465	1	-1
518.635	1	12
518.805	1	3
518.975	1	19
519.145	1	13
519.315	1	13
519.485	1	14
519.656	1	24
519.826	1	16
519.996	1	6
520.166	1	13
520.336	1	14
520.506	1	1
520.676	1	6
520.846	1	19
521.017	1	13
521.187	1	12
521.357	1	25
521.527	1	11
521.697	1	11
521.867	1	-1
522.037	1	16
522.207	1	14
522.377	1	13
522.548	1	14
522.718	1	16
522.888	1	22
523.058	1	13
523.228	1	17
523.398	1	20
523.568	1	18
523.738	1	11
523.909	1	19
524.079	1	13
524.249	1	13
524.419	1	5
524.589	1	18
524.759	1	4
524.929	1	6
525.099	1	13
525.269	1	17
525.439	1	-1
525.610	1	26
525.780	1	3
525.950	1	18
526.120	1	10
526.290	1	12
526.460	1	-2
526.630	1	12
526.800	1	5
526.970	1	7
527.140	1	14
527.311	1	3
527.481	1	6
527.651	1	11
527.821	1	5
527.991	1	12
528.161	1	17
528.331	1	8
528.501	1	23
528.671	1	7
528.841	1	7
529.011	1	4
529.181	1	3
529.352	1	16
529.522	1	3
529.692	1	15
529.862	1	17
530.032	1	17
530.202	1	10
530.372	1	8
530.542	1	12
530.712	1	10
530.882	1	16
531.052	1	7
531.222	1	9
531.392	1	9
531.563	1	17
531.733	1	8
531.903	1	12
532.073	1	15
532.243	1	12
532.413	1	14
532.583	1	4
532.753	1	16
532.923	1	6
533.093	1	10
533.263	1	14
533.433	1	4
533.603	1	13
533.773	1	9
533.943	1	6
534.113	1	8
534.284	1	8
534.454	1	16
534.624	1	14
534.794	1	2
534.964	1	16
535.134	1	7
535.304	1	6
535.474	1	12
535.644	1	4
535.814	1	1
535.984	1	3
536.154	1	-1
536.324	1	12
536.494	1	19
536.664	1	18
536.834	1	6
537.004	1	8
537.174	1	13
537.344	1	9
537.514	1	-1
537.685	1	10
537.855	1	15
538.025	1	11
538.195	1	5
538.365	1	15
538.535	1	14
538.705	1	4
538.875	1	15
539.045	1	16
539.215	1	13
539.385	1	3
539.555	1	16
539.725	1	2
539.895	1	0
540.065	1	21
540.235	1	21
540.405	1	6
540.575	1	8
540.745	1	16
540.915	1	6
541.085	1	17
541.255	1	6
541.425	1	18
541.595	1	8
541.765	1	15
541.935	1	7
542.105	1	-8
542.275	1	11
542.445	1	1
542.615	1	15
542.785	1	9
542.955	1	13
543.125	1	7
543.295	1	14
543.465	1	13
543.635	1	5
543.805	1	14
543.975	1	1
544.145	1	5
544.315	1	16
544.485	1	18
544.655	1	8
544.825	1	-1
544.995	1	8
545.165	1	-1
545.335	1	3
545.505	1	2
545.675	1	4
545.845	1	7
546.015	1	15
546.185	1	13
546.355	1	11
546.525	1	6
546.695	1	7
546.865	1	-2
547.035	1	10
547.205	1	-4
547.375	1	17
547.545	1	15
547.715	1	-4
547.885	1	10
548.055	1	0
548.225	1	9
548.395	1	6
548.565	1	10
548.735	1	11
548.905	1	1
549.075	1	8
549.245	1	-3
549.415	1	4
549.585	1	22
549.755	1	7
549.925	1	-4
550.095	1	9
550.265	1	-2
550.435	1	3
550.605	1	0
550.775	1	10
550.945	1	8
551.115	1	2
551.285	1	9
551.455	1	3
551.625	1	15
551.795	1	13
551.965	1	11
552.135	1	4
552.305	1	-4
552.475	1	-2
552.645	1	3
552.815	1	5
552.985	1	8
553.155	1	14
553.325	1	8
553.495	1	1
553.665	1	4
553.835	1	4
554.004	1	8
554.174	1	3
554.344	1	11
554.514	1	2
554.684	1	12
554.854	1	17
555.024	1	7
555.194	1	10
555.364	1	7
555.534	1	9
555.704	1	2
555.874	1	15
556.044	1	3
556.214	1	5
556.384	1	-4
556.554	1	18
556.724	1	7
556.894	1	9
557.064	1	7
557.234	1	4
557.404	1	14
557.573	1	9
557.743	1	4
557.913	1	-7
558.083	1	7
558.253	1	11
558.423	1	16
558.593	1	13
558.763	1	7
558.933	1	10
559.103	1	6
559.273	1	9
559.443	1	-1
559.613	1	12
559.783	1	1
559.953	1	17
560.122	1	16
560.292	1	4
560.462	1	5
560.632	1	9
560.802	1	0
560.972	1	6
561.142	1	8
561.312	1	-1
561.482	1	16
561.652	1	9
561.822	1	11
561.992	1	2
562.162	1	6
562.331	1	5
562.501	1	1
562.671	1	11
562.841	1	5
563.011	1	15
563.181	1	6
563.351	1	0
563.521	1	12
563.691	1	2
563.861	1	7
564.031	1	14
564.201	1	12
564.370	1	-1
564.540	1	8
564.710	1	3
564.880	1	6
565.050	1	13
565.220	1	-7
565.390	1	4
565.560	1	8
565.730	1	-1
565.900	1	11
566.069	1	7
566.239	1	8
566.409	1	9
566.579	1	15
566.749	1	2
566.919	1	12
567.089	1	0
567.259	1	15
567.429	1	5
567.599	1	10
567.768	1	7
567.938	1	2
568.108	1	2
568.278	1	2
568.448	1	4
568.618	1	2
568.788	1	4
568.958	1	-1
569.128	1	7
569.297	1	5
569.467	1	3
569.637	1	16
569.807	1	9
569.977	1	9
570.147	1	4
570.317	1	-8
570.487	1	9
570.656	1	9
570.826	1	5
570.996	1	5
571.166	1	11
571.336	1	3
571.506	1	12
571.676	1	9
571.846	1	13
572.015	1	5
572.185	1	1
572.355	1	0
572.525	1	6
572.695	1	3
572.865	1	4
573.035	1	10
573.205	1	4
573.374	1	7
573.544	1	1
573.714	1	12
573.884	1	8
574.054	1	5
574.224	1	-1
574.394	1	4
574.563	1	-2
574.733	1	10
574.903	1	0
575.073	1	4
575.243	1	5
575.413	1	12
575.583	1	-2
575.752	1	8
575.922	1	12
576.092	1	6
576.262	1	8
576.432	1	9
576.602	1	5
576.772	1	16
576.941	1	6
577.111	1	-1
577.281	1	3
577.451	1	-3
577.621	1	6
577.791	1	9
577.960	1	-5
578.130	1	2
578.300	1	4
578.470	1	14
578.640	1	4
578.810	1	3
578.979	1	4
579.149	1	1
579.319	1	-1
579.489	1	4
579.659	1	-1
579.829	1	6
579.998	1	9
580.168	1	14
580.338	1	8
580.508	1	10
580.678	1	4
580.848	1	-1
581.017	1	2
581.187	1	9
581.357	1	-5
581.527	1	10
581.697	1	10
581.867	1	5
582.036	1	10
582.206	1	7
582.376	1	6
582.546	1	-4
582.716	1	1
582.885	1	1
583.055	1	6
583.225	1	-3
583.395	1	6
583.565	1	0
583.735	1	11
583.904	1	10
584.074	1	5
584.244	1	9
584.414	1	4
584.584	1	9
584.753	1	-16
584.923	1	4
585.093	1	-2
585.263	1	3
585.433	1	1
585.602	1	5
585.772	1	-2
585.942	1	-2
586.112	1	6
586.282	1	3
586.451	1	-2
586.621	1	-3
586.791	1	8
586.961	1	-2
587.131	1	10
587.300	1	8
587.470	1	13
587.640	1	8
587.810	1	-3
587.980	1	9
588.149	1	7
588.319	1	3
588.489	1	0
588.659	1	11
588.829	1	14
588.998	1	12
589.168	1	7
589.338	1	7
589.508	1	10
589.677	1	-3
589.847	1	5
590.017	1	13
590.187	1	-2
590.357	1	6
590.526	1	11
590.696	1	9
590.866	1	19
591.036	1	-2
591.205	1	10
591.375	1	-5
591.545	1	5
591.715	1	11
591.885	1	0
592.054	1	9
592.224	1	5
592.394	1	4
592.564	1	9
592.733	1	8
592.903	1	3
593.073	1	5
593.243	1	-2
593.412	1	19
593.582	1	-5
593.752	1	-4
593.922	1	9
594.091	1	-4
594.261	1	5
594.431	1	4
594.601	1	6
594.771	1	12
594.940	1	6
595.110	1	-1
595.280	1	12
595.450	1	6
595.619	1	5
595.789	1	3
595.959	1	2
596.129	1	5
596.298	1	-2
596.468	1	7
596.638	1	5
596.808	1	8
596.977	1	8
597.147	1	11
597.317	1	2
597.487	1	7
597.656	1	-5
597.826	1	5
597.996	1	6
598.166	1	0
598.335	1	-5
598.505	1	2
598.675	1	5
598.844	1	12
599.014	1	7
599.184	1	10
599.354	1	-4
599.523	1	8
599.693	1	-5
599.863	1	12
600.033	1	0
600.202	1	7
600.372	1	5
600.542	1	18
600.712	1	-2
600.881	1	3
601.051	1	18
601.221	1	15
601.390	1	-5
601.560	1	8
601.730	1	11
601.900	1	3
602.069	1	5
602.239	1	1
602.409	1	2
602.578	1	0
602.748	1	15
602.918	1	10
603.088	1	11
603.257	1	5
603.427	1	-3
603.597	1	11
603.767	1	7
603.936	1	7
604.106	1	7
604.276	1	11
604.445	1	4
604.615	1	5
604.785	1	-5
604.954	1	5
605.124	1	3
605.294	1	0
605.464	1	-2
605.633	1	6
605.803	1	11
605.973	1	7
606.142	1	9
606.312	1	13
606.482	1	9
606.652	1	4
606.821	1	0
606.991	1	-6
607.161	1	4
607.330	1	6
607.500	1	5
607.670	1	4
607.839	1	23
608.009	1	14
608.179	1	7
608.348	1	3
608.518	1	8
608.688	1	17
608.858	1	4
609.027	1	-1
609.197	1	11
609.367	1	16
609.536	1	11
609.706	1	7
609.876	1	-3
610.045	1	12
610.215	1	15
610.385	1	7
610.554	1	1
610.724	1	2
610.894	1	4
611.063	1	8
611.233	1	0
611.403	1	6
611.572	1	5
611.742	1	11
611.912	1	1
612.081	1	1
612.251	1	10
612.421	1	3
612.590	1	0
612.760	1	3
612.930	1	10
613.099	1	7
613.269	1	7
613.439	1	7
613.608	1	-3
613.778	1	17
613.948	1	4
614.117	1	7
614.287	1	4
614.457	1	5
614.626	1	10
614.796	1	19
614.966	1	-5
615.135	1	-3
615.305	1	11
615.475	1	12
615.644	1	16
615.814	1	-3
615.984	1	1
616.153	1	8
616.323	1	4
616.493	1	11
616.662	1	14
616.832	1	11
617.002	1	-1
617.171	1	7
617.341	1	0
617.511	1	6
617.680	1	7
617.850	1	8
618.019	1	15
618.189	1	21
618.359	1	11
618.528	1	13
618.698	1	14
618.868	1	0
619.037	1	6
619.207	1	6
619.377	1	9
619.546	1	-4
619.716	1	5
619.885	1	9
620.055	1	-3
620.225	1	5
620.394	1	3
620.564	1	16
620.734	1	14
620.903	1	2
621.073	1	11
621.242	1	9
621.412	1	8
621.582	1	6
621.751	1	24
621.921	1	14
622.091	1	1
622.260	1	6
622.430	1	16
622.599	1	1
622.769	1	5
622.939	1	8
623.108	1	8
623.278	1	-2
623.448	1	8
623.617	1	10
623.787	1	8
623.956	1	2
624.126	1	5
624.296	1	-3
624.465	1	9
624.635	1	11
624.804	1	14
624.974	1	10
625.144	1	18
625.313	1	1
625.483	1	7
625.652	1	2
625.822	1	2
625.992	1	4
626.161	1	7
626.331	1	17
626.501	1	3
626.670	1	9
626.840	1	-1
627.009	1	-1
627.179	1	8
627.348	1	12
627.518	1	15
627.688	1	19
627.857	1	7
628.027	1	1
628.196	1	14
628.366	1	14
628.536	1	3
628.705	1	5
628.875	1	10
629.044	1	-2
629.214	1	13
629.384	1	14
629.553	1	16
629.723	1	1
629.892	1	3
630.062	1	13
630.232	1	8
630.401	1	8
630.571	1	9
630.740	1	8
630.910	1	16
631.079	1	10
631.249	1	12
631.419	1	11
631.588	1	-4
631.758	1	17
631.927	1	9
632.097	1	14
632.266	1	8
632.436	1	11
632.606	1	9
632.775	1	14
632.945	1	8
633.114	1	15
633.284	1	8
633.453	1	0
633.623	1	9
633.793	1	-3
633.962	1	11
634.132	1	7
634.301	1	3
634.471	1	6
634.640	1	15
634.810	1	9
634.979	1	16
635.149	1	15
635.319	1	3
635.488	1	7
635.658	1	12
635.827	1	0
635.997	1	10
636.166	1	5
636.336	1	9
636.505	1	9
636.675	1	2
636.845	1	15
637.014	1	13
637.184	1	13
637.353	1	16
637.523	1	14
637.692	1	5
637.862	1	12
638.031	1	12
638.201	1	15
638.370	1	10
638.540	1	8
638.710	1	7
638.879	1	-6
639.049	1	13
639.218	1	2
639.388	1	11
639.557	1	4
639.727	1	19
639.896	1	6
640.066	1	8
640.235	1	3
640.405	1	16
640.574	1	9
640.744	1	1
640.914	1	7
641.083	1	10
641.253	1	8
641.422	1	14
641.592	1	20
641.761	1	-6
641.931	1	10
642.100	1	23
642.270	1	15
642.439	1	14
642.609	1	12
642.778	1	7
642.948	1	3
643.117	1	19
643.287	1	13
643.456	1	12
643.626	1	28
643.795	1	6
643.965	1	17
644.134	1	5
644.304	1	12
644.473	1	10
644.643	1	22
644.812	1	6
644.982	1	17
645.151	1	4
645.321	1	6
645.490	1	25
645.660	1	5
645.829	1	9
645.999	1	11
646.168	1	17
646.338	1	4
646.507	1	6
646.677	1	19
646.846	1	7
647.016	1	-5
647.185	1	8
647.355	1	-2
647.524	1	21
647.694	1	15
647.863	1	16
648.033	1	19
648.202	1	21
648.372	1	5
648.541	1	8
648.711	1	-5
648.880	1	2
649.050	1	-1
649.219	1	22
649.389	1	13
649.558	1	6
649.728	1	13
649.897	1	6
650.067	1	15
650.236	1	9
650.406	1	3
650.575	1	21
650.745	1	17
650.914	1	12
651.084	1	2
651.253	1	12
651.423	1	18
651.592	1	6
651.762	1	1
651.931	1	19
652.101	1	12
652.270	1	18
652.440	1	21
652.609	1	15
652.778	1	10
652.948	1	18
653.117	1	20
653.287	1	9
653.456	1	17
653.626	1	17
653.795	1	9
653.965	1	12
654.134	1	16
654.304	1	-1
654.473	1	13
654.643	1	10
654.812	1	14
654.982	1	7
655.151	1	14
655.320	1	10
655.490	1	4
655.659	1	12
655.829	1	6
655.998	1	3
656.168	1	14
656.337	1	10
656.507	1	14
656.676	1	14
656.846	1	18
657.015	1	14
657.184	1	17
657.354	1	20
657.523	1	10
657.693	1	19
657.862	1	7
658.032	1	14
658.201	1	9
658.371	1	12
658.540	1	14
658.709	1	5
658.879	1	17
659.048	1	6
659.218	1	12
659.387	1	14
659.557	1	14
659.726	1	6
659.895	1	10
660.065	1	7
660.234	1	5
660.404	1	13
660.573	1	5
660.743	1	7
660.912	1	5
661.081	1	24
661.251	1	22
661.420	1	13
661.590	1	17
661.759	1	18
661.929	1	10
662.098	1	22
662.267	1	15
662.437	1	21
662.606	1	1
662.776	1	22
662.945	1	12
663.115	1	8
663.284	1	8
663.453	1	13
663.623	1	5
663.792	1	13
663.962	1	16
664.131	1	25
664.300	1	15
664.470	1	13
664.639	1	7
664.809	1	10
664.978	1	23
665.148	1	13
665.317	1	15
665.486	1	17
665.656	1	2
665.825	1	20
665.995	1	19
666.164	1	9
666.333	1	16
666.503	1	16
666.672	1	11
666.842	1	14
667.011	1	6
667.180	1	21
667.350	1	13
667.519	1	9
667.689	1	18
667.858	1	18
668.027	1	30
668.197	1	2
668.366	1	11
668.536	1	8
668.705	1	7
668.874	1	16
669.044	1	12
669.213	1	21
669.382	1	15
669.552	1	16
669.721	1	23
669.891	1	24
670.060	1	14
670.229	1	20
670.399	1	3
670.568	1	19
670.738	1	19
670.907	1	1
671.076	1	8
671.246	1	9
671.415	1	20
671.584	1	17
671.754	1	14
671.923	1	2
672.093	1	13
672.262	1	7
672.431	1	20
672.601	1	8
672.770	1	13
672.939	1	18
673.109	1	13
673.278	1	11
673.448	1	26
673.617	1	10
673.786	1	15
