325.333	1	11
325.504	1	3
325.675	1	3
325.846	1	6
326.017	1	10
326.188	1	6
326.359	1	9
326.531	1	3
326.702	1	-1
326.873	1	17
327.044	1	15
327.215	1	8
327.386	1	7
327.557	1	-2
327.728	1	13
327.899	1	8
328.070	1	17
328.241	1	12
328.412	1	-6
328.583	1	11
328.754	1	16
328.926	1	9
329.097	1	5
329.268	1	11
329.439	1	4
329.610	1	6
329.781	1	0
329.952	1	19
330.123	1	15
330.294	1	-1
330.465	1	12
330.636	1	19
330.807	1	1
330.978	1	0
331.149	1	5
331.320	1	7
331.492	1	10
331.663	1	7
331.834	1	15
332.005	1	15
332.176	1	18
332.347	1	11
332.518	1	1
332.689	1	13
332.860	1	8
333.031	1	11
333.202	1	8
333.373	1	14
333.544	1	6
333.715	1	19
333.886	1	7
334.057	1	7
334.228	1	12
334.399	1	10
334.570	1	16
334.741	1	12
334.912	1	14
335.084	1	32
335.255	1	9
335.426	1	4
335.597	1	11
335.768	1	2
335.939	1	17
336.110	1	10
336.281	1	7
336.452	1	7
336.623	1	12
336.794	1	21
336.965	1	5
337.136	1	17
337.307	1	10
337.478	1	6
337.649	1	13
337.820	1	13
337.991	1	11
338.162	1	24
338.333	1	8
338.504	1	11
338.675	1	19
338.846	1	13
339.017	1	3
339.188	1	2
339.359	1	8
339.530	1	13
339.701	1	20
339.872	1	27
340.043	1	14
340.214	1	16
340.385	1	25
340.556	1	3
340.727	1	19
340.898	1	14
341.069	1	21
341.240	1	16
341.411	1	12
341.582	1	13
341.753	1	3
341.924	1	13
342.095	1	13
342.266	1	24
342.437	1	28
342.608	1	4
342.779	1	15
342.950	1	22
343.121	1	22
343.292	1	13
343.463	1	13
343.634	1	13
343.805	1	27
343.976	1	31
344.147	1	18
344.318	1	25
344.489	1	19
344.660	1	23
344.831	1	23
345.002	1	12
345.173	1	25
345.344	1	21
345.515	1	17
345.686	1	14
345.857	1	14
346.028	1	10
346.199	1	15
346.370	1	20
346.541	1	15
346.712	1	15
346.883	1	19
347.054	1	17
347.225	1	16
347.396	1	17
347.567	1	12
347.738	1	8
347.909	1	30
348.080	1	20
348.251	1	21
348.422	1	32
348.593	1	17
348.764	1	27
348.935	1	25
349.106	1	15
349.277	1	25
349.448	1	25
349.619	1	21
349.790	1	20
349.961	1	29
350.132	1	27
350.303	1	19
350.474	1	36
350.645	1	32
350.816	1	21
350.987	1	27
351.157	1	30
351.328	1	24
351.499	1	24
351.670	1	23
351.841	1	30
352.012	1	26
352.183	1	28
352.354	1	27
352.525	1	34
352.696	1	22
352.867	1	20
353.038	1	31
353.209	1	22
353.380	1	29
353.551	1	18
353.722	1	33
353.893	1	29
354.064	1	29
354.235	1	34
354.406	1	26
354.576	1	20
354.747	1	31
354.918	1	26
355.089	1	24
355.260	1	28
355.431	1	19
355.602	1	22
355.773	1	26
355.944	1	35
356.115	1	24
356.286	1	18
356.457	1	26
356.628	1	30
356.799	1	34
356.970	1	27
357.141	1	16
357.311	1	27
357.482	1	31
357.653	1	28
357.824	1	36
357.995	1	37
358.166	1	20
358.337	1	23
358.508	1	40
358.679	1	25
358.850	1	34
359.021	1	29
359.192	1	30
359.363	1	33
359.533	1	26
359.704	1	13
359.875	1	31
360.046	1	22
360.217	1	20
360.388	1	46
360.559	1	27
360.730	1	31
360.901	1	29
361.072	1	48
361.243	1	30
361.414	1	25
361.584	1	28
361.755	1	33
361.926	1	23
362.097	1	32
362.268	1	36
362.439	1	18
362.610	1	39
362.781	1	31
362.952	1	22
363.123	1	32
363.293	1	27
363.464	1	25
363.635	1	34
363.806	1	28
363.977	1	34
364.148	1	35
364.319	1	37
364.490	1	31
364.661	1	38
364.832	1	39
365.002	1	29
365.173	1	34
365.344	1	47
365.515	1	25
365.686	1	39
365.857	1	42
366.028	1	40
366.199	1	29
366.370	1	33
366.540	1	21
366.711	1	28
366.882	1	39
367.053	1	24
367.224	1	39
367.395	1	43
367.566	1	40
367.737	1	32
367.908	1	46
368.078	1	48
368.249	1	31
368.420	1	28
368.591	1	32
368.762	1	37
368.933	1	22
369.104	1	22
369.274	1	33
369.445	1	29
369.616	1	39
369.787	1	40
369.958	1	30
370.129	1	28
370.300	1	46
370.471	1	22
370.641	1	39
370.812	1	35
370.983	1	32
371.154	1	28
371.325	1	50
371.496	1	39
371.667	1	42
371.837	1	39
372.008	1	37
372.179	1	31
372.350	1	41
372.521	1	36
372.692	1	31
372.863	1	45
373.033	1	22
373.204	1	37
373.375	1	48
373.546	1	53
373.717	1	38
373.888	1	43
374.059	1	44
374.229	1	36
374.400	1	31
374.571	1	36
374.742	1	42
374.913	1	33
375.084	1	35
375.254	1	41
375.425	1	39
375.596	1	39
375.767	1	49
375.938	1	45
376.109	1	38
376.279	1	26
376.450	1	42
376.621	1	42
376.792	1	36
376.963	1	41
377.134	1	49
377.304	1	48
377.475	1	30
377.646	1	37
377.817	1	30
377.988	1	41
378.159	1	52
378.329	1	51
378.500	1	29
378.671	1	43
378.842	1	37
379.013	1	41
379.184	1	32
379.354	1	52
379.525	1	37
379.696	1	47
379.867	1	46
380.038	1	45
380.209	1	45
380.379	1	27
380.550	1	31
380.721	1	48
380.892	1	38
381.063	1	42
381.233	1	44
381.404	1	45
381.575	1	55
381.746	1	46
381.917	1	38
382.087	1	45
382.258	1	46
382.429	1	48
382.600	1	54
382.771	1	42
382.941	1	42
383.112	1	56
383.283	1	38
383.454	1	42
383.625	1	46
383.795	1	40
383.966	1	47
384.137	1	46
384.308	1	50
384.479	1	47
384.649	1	42
384.820	1	45
384.991	1	39
385.162	1	45
385.333	1	46
385.503	1	37
385.674	1	47
385.845	1	51
386.016	1	44
386.187	1	45
386.357	1	45
386.528	1	47
386.699	1	48
386.870	1	46
387.041	1	52
387.211	1	49
387.382	1	56
387.553	1	59
387.724	1	41
387.894	1	56
388.065	1	49
388.236	1	50
388.407	1	49
388.578	1	45
388.748	1	53
388.919	1	45
389.090	1	50
389.261	1	49
389.431	1	56
389.602	1	52
389.773	1	41
389.944	1	45
390.114	1	52
390.285	1	48
390.456	1	52
390.627	1	44
390.798	1	43
390.968	1	54
391.139	1	54
391.310	1	38
391.481	1	61
391.651	1	46
391.822	1	46
391.993	1	50
392.164	1	42
392.334	1	60
392.505	1	50
392.676	1	61
392.847	1	57
393.017	1	51
393.188	1	50
393.359	1	42
393.530	1	35
393.700	1	47
393.871	1	46
394.042	1	56
394.213	1	50
394.383	1	47
394.554	1	50
394.725	1	57
394.896	1	44
395.066	1	47
395.237	1	52
395.408	1	55
395.579	1	50
395.749	1	52
395.920	1	44
396.091	1	51
396.262	1	47
396.432	1	51
396.603	1	63
396.774	1	65
396.945	1	50
397.115	1	48
397.286	1	58
397.457	1	54
397.627	1	48
397.798	1	56
397.969	1	53
398.140	1	46
398.310	1	41
398.481	1	56
398.652	1	47
398.823	1	55
398.993	1	53
399.164	1	59
399.335	1	61
399.505	1	57
399.676	1	37
399.847	1	52
400.018	1	54
400.188	1	44
400.359	1	62
400.530	1	48
400.700	1	57
400.871	1	64
401.042	1	56
401.213	1	51
401.383	1	53
401.554	1	62
401.725	1	66
401.895	1	54
402.066	1	64
402.237	1	49
402.408	1	50
402.578	1	61
402.749	1	62
402.920	1	62
403.090	1	35
403.261	1	58
403.432	1	54
403.603	1	61
403.773	1	55
403.944	1	56
404.115	1	61
404.285	1	65
404.456	1	44
404.627	1	47
404.797	1	44
404.968	1	53
405.139	1	55
405.310	1	57
405.480	1	59
405.651	1	44
405.822	1	59
405.992	1	45
406.163	1	49
406.334	1	41
406.504	1	50
406.675	1	62
406.846	1	55
407.016	1	55
407.187	1	57
407.358	1	59
407.528	1	44
407.699	1	47
407.870	1	41
408.041	1	60
408.211	1	60
408.382	1	46
408.553	1	49
408.723	1	62
408.894	1	57
409.065	1	58
409.235	1	50
409.406	1	56
409.577	1	52
409.747	1	54
409.918	1	45
410.089	1	58
410.259	1	55
410.430	1	54
410.601	1	59
410.771	1	55
410.942	1	61
411.113	1	55
411.283	1	43
411.454	1	53
411.625	1	55
411.795	1	48
411.966	1	56
412.137	1	49
412.307	1	58
412.478	1	57
412.649	1	47
412.819	1	56
412.990	1	51
413.161	1	55
413.331	1	41
413.502	1	55
413.672	1	64
413.843	1	59
414.014	1	60
414.184	1	61
414.355	1	47
414.526	1	56
414.696	1	63
414.867	1	60
415.038	1	44
415.208	1	51
415.379	1	57
415.550	1	56
415.720	1	45
415.891	1	52
416.062	1	61
416.232	1	48
416.403	1	51
416.573	1	51
416.744	1	53
416.915	1	48
417.085	1	55
417.256	1	61
417.427	1	51
417.597	1	44
417.768	1	63
417.939	1	65
418.109	1	66
418.280	1	57
418.450	1	66
418.621	1	46
418.792	1	49
418.962	1	53
419.133	1	55
419.304	1	58
419.474	1	45
419.645	1	76
419.815	1	55
419.986	1	63
420.157	1	50
420.327	1	56
420.498	1	65
420.669	1	61
420.839	1	59
421.010	1	53
421.180	1	62
421.351	1	56
421.522	1	54
421.692	1	62
421.863	1	61
422.033	1	65
422.204	1	48
422.375	1	40
422.545	1	73
422.716	1	60
422.886	1	50
423.057	1	66
423.228	1	52
423.398	1	45
423.569	1	61
423.740	1	40
423.910	1	38
424.081	1	55
424.251	1	50
424.422	1	56
424.593	1	47
424.763	1	51
424.934	1	52
425.104	1	55
425.275	1	54
425.445	1	53
425.616	1	46
425.787	1	46
425.957	1	44
426.128	1	57
426.298	1	49
426.469	1	47
426.640	1	52
426.810	1	52
426.981	1	55
427.151	1	54
427.322	1	49
427.493	1	50
427.663	1	53
427.834	1	51
428.004	1	61
428.175	1	56
428.345	1	49
428.516	1	49
428.687	1	46
428.857	1	46
429.028	1	47
429.198	1	45
429.369	1	47
429.540	1	56
429.710	1	47
429.881	1	50
430.051	1	51
430.222	1	55
430.392	1	61
430.563	1	66
430.734	1	60
430.904	1	55
431.075	1	57
431.245	1	35
431.416	1	43
431.586	1	40
431.757	1	48
431.927	1	57
432.098	1	54
432.269	1	53
432.439	1	51
432.610	1	49
432.780	1	53
432.951	1	54
433.121	1	52
433.292	1	62
433.462	1	46
433.633	1	50
433.804	1	56
433.974	1	37
434.145	1	61
434.315	1	53
434.486	1	49
434.656	1	51
434.827	1	43
434.997	1	40
435.168	1	62
435.339	1	47
435.509	1	54
435.680	1	49
435.850	1	40
436.021	1	49
436.191	1	49
436.362	1	51
436.532	1	58
436.703	1	42
436.873	1	45
437.044	1	33
437.214	1	60
437.385	1	46
437.556	1	46
437.726	1	62
437.897	1	54
438.067	1	42
438.238	1	45
438.408	1	46
438.579	1	43
438.749	1	44
438.920	1	48
439.090	1	50
439.261	1	46
439.431	1	42
439.602	1	46
439.772	1	48
439.943	1	53
440.113	1	47
440.284	1	53
440.455	1	42
440.625	1	49
440.796	1	55
440.966	1	42
441.137	1	43
441.307	1	44
441.478	1	50
441.648	1	48
441.819	1	42
441.989	1	44
442.160	1	42
442.330	1	45
442.501	1	47
442.671	1	36
442.842	1	30
443.012	1	28
443.183	1	46
443.353	1	31
443.524	1	47
443.694	1	55
443.865	1	32
444.035	1	40
444.206	1	47
444.376	1	39
444.547	1	57
444.717	1	54
444.888	1	43
445.058	1	52
445.229	1	45
445.399	1	41
445.570	1	45
445.740	1	32
445.911	1	40
446.081	1	38
446.252	1	59
446.422	1	39
446.593	1	30
446.763	1	48
446.934	1	33
447.104	1	41
447.275	1	43
447.445	1	45
447.616	1	51
447.786	1	42
447.957	1	44
448.127	1	46
448.298	1	53
448.468	1	39
448.639	1	36
448.809	1	39
448.979	1	33
449.150	1	46
449.320	1	46
449.491	1	49
449.661	1	41
449.832	1	41
450.002	1	49
450.173	1	42
450.343	1	44
450.514	1	44
450.684	1	47
450.855	1	34
451.025	1	42
451.196	1	41
451.366	1	44
451.537	1	44
451.707	1	32
451.878	1	38
452.048	1	49
452.218	1	36
452.389	1	41
452.559	1	38
452.730	1	52
452.900	1	37
453.071	1	39
453.241	1	44
453.412	1	37
453.582	1	29
453.753	1	36
453.923	1	49
454.093	1	46
454.264	1	44
454.434	1	45
454.605	1	37
454.775	1	41
454.946	1	43
455.116	1	47
455.287	1	37
455.457	1	24
455.628	1	30
455.798	1	42
455.968	1	45
456.139	1	35
456.309	1	29
456.480	1	31
456.650	1	28
456.821	1	30
456.991	1	41
457.161	1	32
457.332	1	38
457.502	1	15
457.673	1	35
457.843	1	37
458.014	1	22
458.184	1	33
458.355	1	34
458.525	1	32
458.695	1	43
458.866	1	31
459.036	1	36
459.207	1	37
459.377	1	37
459.548	1	45
459.718	1	33
459.888	1	34
460.059	1	37
460.229	1	42
460.400	1	39
460.570	1	34
460.740	1	38
460.911	1	33
461.081	1	43
461.252	1	27
461.422	1	35
461.593	1	24
461.763	1	41
461.933	1	44
462.104	1	31
462.274	1	32
462.445	1	29
462.615	1	29
462.785	1	35
462.956	1	33
463.126	1	48
463.297	1	31
463.467	1	42
463.638	1	37
463.808	1	20
463.978	1	25
464.149	1	35
464.319	1	30
464.490	1	51
464.660	1	40
464.830	1	33
465.001	1	34
465.171	1	29
465.342	1	37
465.512	1	20
465.682	1	27
465.853	1	39
466.023	1	29
466.194	1	27
466.364	1	33
466.534	1	21
466.705	1	24
466.875	1	17
467.045	1	19
467.216	1	40
467.386	1	27
467.557	1	33
467.727	1	31
467.897	1	34
468.068	1	28
468.238	1	24
468.409	1	36
468.579	1	31
468.749	1	21
468.920	1	22
469.090	1	30
469.260	1	18
469.431	1	24
469.601	1	21
469.772	1	30
469.942	1	23
470.112	1	28
470.283	1	17
470.453	1	16
470.623	1	20
470.794	1	24
470.964	1	32
471.135	1	26
471.305	1	28
471.475	1	30
471.646	1	9
471.816	1	20
471.986	1	27
472.157	1	40
472.327	1	18
472.497	1	22
472.668	1	27
472.838	1	21
473.009	1	20
473.179	1	21
473.349	1	20
473.520	1	32
473.690	1	28
473.860	1	25
474.031	1	21
474.201	1	14
474.371	1	28
474.542	1	26
474.712	1	26
474.882	1	19
475.053	1	37
475.223	1	15
475.394	1	21
475.564	1	25
475.734	1	23
475.905	1	31
476.075	1	22
476.245	1	33
476.416	1	36
476.586	1	25
476.756	1	20
476.927	1	27
477.097	1	26
477.267	1	23
477.438	1	23
477.608	1	17
477.778	1	27
477.949	1	40
478.119	1	27
478.289	1	22
478.460	1	28
478.630	1	31
478.800	1	26
478.971	1	22
479.141	1	10
479.311	1	13
479.482	1	21
479.652	1	17
479.822	1	24
479.993	1	28
480.163	1	19
480.333	1	20
480.504	1	14
480.674	1	22
480.844	1	14
481.015	1	34
481.185	1	23
481.355	1	28
481.525	1	24
481.696	1	15
481.866	1	17
482.036	1	22
482.207	1	11
482.377	1	25
482.547	1	26
482.718	1	16
482.888	1	19
483.058	1	24
483.229	1	14
483.399	1	18
483.569	1	22
483.740	1	25
483.910	1	13
484.080	1	25
484.250	1	21
484.421	1	26
484.591	1	21
484.761	1	25
484.932	1	24
485.102	1	31
485.272	1	26
485.443	1	30
485.613	1	22
485.783	1	19
485.953	1	18
486.124	1	29
486.294	1	20
486.464	1	20
486.635	1	20
486.805	1	20
486.975	1	13
487.146	1	19
487.316	1	11
487.486	1	17
487.656	1	19
487.827	1	25
487.997	1	13
488.167	1	18
488.338	1	29
488.508	1	15
488.678	1	22
488.848	1	29
489.019	1	8
489.189	1	24
489.359	1	23
489.529	1	10
489.700	1	18
489.870	1	32
490.040	1	11
490.211	1	17
490.381	1	21
490.551	1	20
490.721	1	21
490.892	1	20
491.062	1	21
491.232	1	25
491.402	1	15
491.573	1	4
491.743	1	21
491.913	1	16
492.084	1	23
492.254	1	17
492.424	1	15
492.594	1	22
492.765	1	14
492.935	1	14
493.105	1	24
493.275	1	18
493.446	1	25
493.616	1	28
493.786	1	14
493.956	1	16
494.127	1	15
494.297	1	21
494.467	1	18
494.637	1	20
494.808	1	6
494.978	1	1
495.148	1	13
495.318	1	20
495.489	1	22
495.659	1	15
495.829	1	19
495.999	1	20
496.170	1	21
496.340	1	25
496.510	1	12
496.680	1	14
496.851	1	9
497.021	1	11
497.191	1	7
497.361	1	12
497.532	1	6
497.702	1	16
497.872	1	8
498.042	1	24
498.213	1	20
498.383	1	14
498.553	1	17
498.723	1	12
498.894	1	14
499.064	1	18
499.234	1	18
499.404	1	10
499.574	1	20
499.745	1	23
499.915	1	10
500.085	1	25
500.255	1	23
500.426	1	15
500.596	1	18
500.766	1	18
500.936	1	18
501.106	1	3
501.277	1	19
501.447	1	14
501.617	1	19
501.787	1	15
501.958	1	10
502.128	1	20
502.298	1	7
502.468	1	12
502.638	1	15
502.809	1	15
502.979	1	10
503.149	1	3
503.319	1	4
503.489	1	12
503.660	1	8
503.830	1	19
504.000	1	25
504.170	1	6
504.340	1	17
504.511	1	16
504.681	1	13
504.851	1	12
505.021	1	13
505.192	1	8
505.362	1	22
505.532	1	12
505.702	1	8
505.872	1	20
506.043	1	6
506.213	1	11
506.383	1	4
506.553	1	19
506.723	1	14
506.893	1	11
507.064	1	17
507.234	1	13
507.404	1	2
507.574	1	8
507.744	1	13
507.915	1	13
508.085	1	20
508.255	1	13
508.425	1	4
508.595	1	11
508.766	1	12
508.936	1	5
509.106	1	20
509.276	1	15
509.446	1	3
509.616	1	5
509.787	1	17
509.957	1	18
510.127	1	16
510.297	1	13
510.467	1	13
510.638	1	14
510.808	1	0
510.978	1	4
511.148	1	16
511.318	1	17
511.488	1	2
511.659	1	15
511.829	1	2
511.999	1	23
512.169	1	13
512.339	1	10
512.509	1	5
512.680	1	8
512.850	1	12
513.020	1	20
513.190	1	27
513.360	1	2
513.530	1	15
513.700	1	16
513.871	1	18
514.041	1	9
514.211	1	20
514.381	1	17
514.551	1	10
514.721	1	8
514.892	1	15
515.062	1	9
515.232	1	10
515.402	1	4
515.572	1	1
515.742	1	14
515.912	1	10
516.083	1	7
516.253	1	17
516.423	1	4
516.593	1	14
516.763	1	19
516.933	1	5
517.104	1	10
517.274	1	8
517.444	1	15
517.614	1	6
517.784	1	15
517.954	1	18
518.124	1	5
518.294	1	5
518.465	1	7
518.635	1	12
518.805	1	-2
518.975	1	6
519.145	1	6
519.315	1	11
519.485	1	20
519.656	1	17
519.826	1	10
519.996	1	0
520.166	1	13
520.336	1	18
520.506	1	0
520.676	1	5
520.846	1	24
521.017	1	13
521.187	1	6
521.357	1	15
521.527	1	5
521.697	1	4
521.867	1	3
522.037	1	16
522.207	1	14
522.377	1	7
522.548	1	6
522.718	1	13
522.888	1	26
523.058	1	12
523.228	1	19
523.398	1	8
523.568	1	6
523.738	1	13
523.909	1	12
524.079	1	12
524.249	1	14
524.419	1	10
524.589	1	11
524.759	1	1
524.929	1	9
525.099	1	12
525.269	1	14
525.439	1	7
525.610	1	27
525.780	1	14
525.950	1	12
526.120	1	-4
526.290	1	7
526.460	1	7
526.630	1	7
526.800	1	12
526.970	1	7
527.140	1	17
527.311	1	7
527.481	1	6
527.651	1	13
527.821	1	-1
527.991	1	24
528.161	1	20
528.331	1	3
528.501	1	10
528.671	1	0
528.841	1	9
529.011	1	2
529.181	1	5
529.352	1	12
529.522	1	-3
529.692	1	13
529.862	1	4
530.032	1	7
530.202	1	0
530.372	1	9
530.542	1	7
530.712	1	6
530.882	1	8
531.052	1	9
531.222	1	8
531.392	1	14
531.563	1	12
531.733	1	8
531.903	1	12
532.073	1	6
532.243	1	8
532.413	1	-2
532.583	1	10
532.753	1	9
532.923	1	-1
533.093	1	11
533.263	1	8
533.433	1	6
533.603	1	8
533.773	1	4
533.943	1	11
534.113	1	11
534.284	1	10
534.454	1	12
534.624	1	17
534.794	1	8
534.964	1	11
535.134	1	-1
535.304	1	10
535.474	1	16
535.644	1	0
535.814	1	-7
535.984	1	3
536.154	1	0
536.324	1	6
536.494	1	11
536.664	1	12
536.834	1	10
537.004	1	10
537.174	1	16
537.344	1	4
537.514	1	-1
537.685	1	7
537.855	1	12
538.025	1	10
538.195	1	1
538.365	1	22
538.535	1	-3
538.705	1	5
538.875	1	12
539.045	1	5
539.215	1	7
539.385	1	12
539.555	1	8
539.725	1	10
539.895	1	14
540.065	1	8
540.235	1	5
540.405	1	3
540.575	1	12
540.745	1	1
540.915	1	11
541.085	1	10
541.255	1	8
541.425	1	14
541.595	1	8
541.765	1	12
541.935	1	4
542.105	1	5
542.275	1	3
542.445	1	4
542.615	1	7
542.785	1	16
542.955	1	6
543.125	1	4
543.295	1	11
543.465	1	6
543.635	1	5
543.805	1	14
543.975	1	7
544.145	1	2
544.315	1	13
544.485	1	7
544.655	1	10
544.825	1	-7
544.995	1	6
545.165	1	-6
545.335	1	9
545.505	1	3
545.675	1	7
545.845	1	16
546.015	1	12
546.185	1	12
546.355	1	5
546.525	1	6
546.695	1	4
546.865	1	-3
547.035	1	9
547.205	1	-5
547.375	1	5
547.545	1	15
547.715	1	10
547.885	1	10
548.055	1	4
548.225	1	4
548.395	1	-3
548.565	1	19
548.735	1	0
548.905	1	9
549.075	1	6
549.245	1	12
549.415	1	-4
549.585	1	5
549.755	1	7
549.925	1	-3
550.095	1	8
550.265	1	0
550.435	1	8
550.605	1	7
550.775	1	9
550.945	1	10
551.115	1	0
551.285	1	7
551.455	1	-7
551.625	1	9
551.795	1	8
551.965	1	4
552.135	1	2
552.305	1	-3
552.475	1	-5
552.645	1	0
552.815	1	3
552.985	1	11
553.155	1	2
553.325	1	2
553.495	1	-8
553.665	1	6
553.835	1	6
554.004	1	1
554.174	1	4
554.344	1	17
554.514	1	6
554.684	1	8
554.854	1	12
555.024	1	-2
555.194	1	4
555.364	1	0
555.534	1	1
555.704	1	-3
555.874	1	-1
556.044	1	12
556.214	1	9
556.384	1	5
556.554	1	10
556.724	1	7
556.894	1	3
557.064	1	1
557.234	1	9
557.404	1	11
557.573	1	3
557.743	1	-3
557.913	1	3
558.083	1	3
558.253	1	13
558.423	1	1
558.593	1	10
558.763	1	2
558.933	1	4
559.103	1	10
559.273	1	7
559.443	1	0
559.613	1	5
559.783	1	7
559.953	1	9
560.122	1	16
560.292	1	2
560.462	1	3
560.632	1	5
560.802	1	13
560.972	1	14
561.142	1	9
561.312	1	4
561.482	1	13
561.652	1	11
561.822	1	0
561.992	1	0
562.162	1	10
562.331	1	13
562.501	1	-1
562.671	1	14
562.841	1	-8
563.011	1	9
563.181	1	2
563.351	1	-8
563.521	1	1
563.691	1	-5
563.861	1	6
564.031	1	8
564.201	1	17
564.370	1	-3
564.540	1	8
564.710	1	-2
564.880	1	9
565.050	1	7
565.220	1	5
565.390	1	6
565.560	1	9
565.730	1	-1
565.900	1	8
566.069	1	14
566.239	1	11
566.409	1	4
566.579	1	14
566.749	1	-2
566.919	1	4
567.089	1	-3
567.259	1	9
567.429	1	3
567.599	1	-6
567.768	1	5
567.938	1	10
568.108	1	1
568.278	1	3
568.448	1	-4
568.618	1	7
568.788	1	7
568.958	1	-2
569.128	1	7
569.297	1	3
569.467	1	1
569.637	1	16
569.807	1	15
569.977	1	8
570.147	1	10
570.317	1	8
570.487	1	1
570.656	1	8
570.826	1	-3
570.996	1	-6
571.166	1	13
571.336	1	-2
571.506	1	10
571.676	1	1
571.846	1	16
572.015	1	4
572.185	1	-1
572.355	1	-1
572.525	1	4
572.695	1	0
572.865	1	-15
573.035	1	5
573.205	1	1
573.374	1	-5
573.544	1	6
573.714	1	11
573.884	1	16
574.054	1	4
574.224	1	10
574.394	1	0
574.563	1	2
574.733	1	0
574.903	1	-2
575.073	1	6
575.243	1	8
575.413	1	9
575.583	1	0
575.752	1	7
575.922	1	-3
576.092	1	4
576.262	1	11
576.432	1	7
576.602	1	9
576.772	1	14
576.941	1	5
577.111	1	-1
577.281	1	1
577.451	1	0
577.621	1	16
577.791	1	12
577.960	1	5
578.130	1	0
578.300	1	4
578.470	1	13
578.640	1	10
578.810	1	9
578.979	1	5
579.149	1	6
579.319	1	-8
579.489	1	0
579.659	1	4
579.829	1	4
579.998	1	13
580.168	1	16
580.338	1	11
580.508	1	3
580.678	1	0
580.848	1	2
581.017	1	2
581.187	1	14
581.357	1	-9
581.527	1	7
581.697	1	10
581.867	1	9
582.036	1	5
582.206	1	3
582.376	1	9
582.546	1	1
582.716	1	-2
582.885	1	2
583.055	1	9
583.225	1	-5
583.395	1	3
583.565	1	-4
583.735	1	2
583.904	1	2
584.074	1	12
584.244	1	7
584.414	1	8
584.584	1	2
584.753	1	3
584.923	1	-5
585.093	1	10
585.263	1	0
585.433	1	14
585.602	1	-6
585.772	1	4
585.942	1	0
586.112	1	-1
586.282	1	-1
586.451	1	-6
586.621	1	-2
586.791	1	-4
586.961	1	1
587.131	1	8
587.300	1	-2
587.470	1	11
587.640	1	11
587.810	1	3
587.980	1	0
588.149	1	0
588.319	1	5
588.489	1	2
588.659	1	-3
588.829	1	6
588.998	1	15
589.168	1	3
589.338	1	1
589.508	1	4
589.677	1	1
589.847	1	-4
590.017	1	16
590.187	1	-9
590.357	1	15
590.526	1	10
590.696	1	8
590.866	1	11
591.036	1	-1
591.205	1	6
591.375	1	-1
591.545	1	-6
591.715	1	1
591.885	1	6
592.054	1	-3
592.224	1	-1
592.394	1	6
592.564	1	6
592.733	1	4
592.903	1	-1
593.073	1	0
593.243	1	0
593.412	1	2
593.582	1	3
593.752	1	1
593.922	1	0
594.091	1	-3
594.261	1	1
594.431	1	10
594.601	1	10
594.771	1	3
594.940	1	8
595.110	1	6
595.280	1	12
595.450	1	-1
595.619	1	7
595.789	1	1
595.959	1	8
596.129	1	2
596.298	1	3
596.468	1	6
596.638	1	0
596.808	1	9
596.977	1	2
597.147	1	-5
597.317	1	7
597.487	1	6
597.656	1	-1
597.826	1	-2
597.996	1	4
598.166	1	11
598.335	1	-8
598.505	1	5
598.675	1	0
598.844	1	5
599.014	1	-2
599.184	1	12
599.354	1	-9
599.523	1	12
599.693	1	6
599.863	1	10
600.033	1	4
600.202	1	2
600.372	1	2
600.542	1	7
600.712	1	1
600.881	1	-2
601.051	1	8
601.221	1	6
601.390	1	-2
601.560	1	11
601.730	1	3
601.900	1	8
602.069	1	17
602.239	1	8
602.409	1	1
602.578	1	-5
602.748	1	3
602.918	1	9
603.088	1	5
603.257	1	10
603.427	1	-2
603.597	1	5
603.767	1	6
603.936	1	9
604.106	1	-1
604.276	1	-5
604.445	1	7
604.615	1	2
604.785	1	-4
604.954	1	6
605.124	1	3
605.294	1	0
605.464	1	-2
605.633	1	3
605.803	1	17
605.973	1	0
606.142	1	7
606.312	1	12
606.482	1	0
606.652	1	3
606.821	1	5
606.991	1	11
607.161	1	4
607.330	1	5
607.500	1	7
607.670	1	5
607.839	1	8
608.009	1	16
608.179	1	6
608.348	1	5
608.518	1	7
608.688	1	14
608.858	1	4
609.027	1	-3
609.197	1	15
609.367	1	16
609.536	1	4
609.706	1	-1
609.876	1	7
610.045	1	5
610.215	1	11
610.385	1	3
610.554	1	7
610.724	1	13
610.894	1	9
611.063	1	6
611.233	1	-2
611.403	1	11
611.572	1	8
611.742	1	9
611.912	1	4
612.081	1	8
612.251	1	18
612.421	1	6
612.590	1	5
612.760	1	10
612.930	1	8
613.099	1	9
613.269	1	17
613.439	1	4
613.608	1	4
613.778	1	7
613.948	1	2
614.117	1	3
614.287	1	10
614.457	1	12
614.626	1	6
614.796	1	4
614.966	1	-3
615.135	1	-9
615.305	1	11
615.475	1	8
615.644	1	0
615.814	1	1
615.984	1	9
616.153	1	4
616.323	1	10
616.493	1	-6
616.662	1	12
616.832	1	6
617.002	1	-3
617.171	1	0
617.341	1	-9
617.511	1	3
617.680	1	8
617.850	1	6
618.019	1	13
618.189	1	15
618.359	1	7
618.528	1	7
618.698	1	5
618.868	1	-2
619.037	1	10
619.207	1	5
619.377	1	2
619.546	1	4
619.716	1	5
619.885	1	8
620.055	1	5
620.225	1	-2
620.394	1	-3
620.564	1	6
620.734	1	7
620.903	1	-4
621.073	1	12
621.242	1	5
621.412	1	9
621.582	1	5
621.751	1	12
621.921	1	4
622.091	1	-2
622.260	1	6
622.430	1	8
622.599	1	9
622.769	1	6
622.939	1	0
623.108	1	0
623.278	1	-3
623.448	1	-5
623.617	1	7
623.787	1	0
623.956	1	8
624.126	1	3
624.296	1	2
624.465	1	11
624.635	1	11
624.804	1	6
624.974	1	9
625.144	1	12
625.313	1	1
625.483	1	-8
625.652	1	7
625.822	1	9
625.992	1	11
626.161	1	15
626.331	1	1
626.501	1	12
626.670	1	6
626.840	1	8
627.009	1	4
627.179	1	15
627.348	1	6
627.518	1	10
627.688	1	15
627.857	1	19
628.027	1	6
628.196	1	12
628.366	1	-1
628.536	1	4
628.705	1	-2
628.875	1	-3
629.044	1	5
629.214	1	9
629.384	1	6
629.553	1	14
629.723	1	9
629.892	1	4
630.062	1	8
630.232	1	0
630.401	1	5
630.571	1	8
630.740	1	14
630.910	1	9
631.079	1	11
631.249	1	9
631.419	1	6
631.588	1	-5
631.758	1	11
631.927	1	0
632.097	1	7
632.266	1	1
632.436	1	6
632.606	1	0
632.775	1	13
632.945	1	9
633.114	1	5
633.284	1	3
633.453	1	3
633.623	1	2
633.793	1	7
633.962	1	4
634.132	1	8
634.301	1	10
634.471	1	12
634.640	1	9
634.810	1	10
634.979	1	11
635.149	1	8
635.319	1	5
635.488	1	5
635.658	1	2
635.827	1	4
635.997	1	-2
636.166	1	7
636.336	1	6
636.505	1	10
636.675	1	10
636.845	1	7
637.014	1	7
637.184	1	10
637.353	1	20
637.523	1	10
637.692	1	8
637.862	1	9
638.031	1	11
638.201	1	15
638.370	1	6
638.540	1	8
638.710	1	1
638.879	1	-5
639.049	1	9
639.218	1	7
639.388	1	1
639.557	1	0
639.727	1	6
639.896	1	7
640.066	1	2
640.235	1	6
640.405	1	13
640.574	1	-3
640.744	1	0
640.914	1	5
641.083	1	12
641.253	1	9
641.422	1	5
641.592	1	19
641.761	1	4
641.931	1	-1
642.100	1	25
642.270	1	1
642.439	1	10
642.609	1	14
642.778	1	8
642.948	1	5
643.117	1	14
643.287	1	12
643.456	1	4
643.626	1	13
643.795	1	3
643.965	1	10
644.134	1	7
644.304	1	5
644.473	1	11
644.643	1	14
644.812	1	6
644.982	1	8
645.151	1	9
645.321	1	4
645.490	1	7
645.660	1	-4
645.829	1	3
645.999	1	4
646.168	1	13
646.338	1	9
646.507	1	8
646.677	1	15
646.846	1	3
647.016	1	3
647.185	1	9
647.355	1	-11
647.524	1	5
647.694	1	17
647.863	1	10
648.033	1	16
648.202	1	14
648.372	1	5
648.541	1	4
648.711	1	4
648.880	1	0
649.050	1	-2
649.219	1	-3
649.389	1	15
649.558	1	9
649.728	1	10
649.897	1	3
650.067	1	9
650.236	1	15
650.406	1	11
650.575	1	4
650.745	1	10
650.914	1	-3
651.084	1	1
651.253	1	13
651.423	1	5
651.592	1	5
651.762	1	2
651.931	1	18
652.101	1	4
652.270	1	15
652.440	1	9
652.609	1	9
652.778	1	2
652.948	1	17
653.117	1	8
653.287	1	11
653.456	1	19
653.626	1	8
653.795	1	6
653.965	1	3
654.134	1	16
654.304	1	-10
654.473	1	16
654.643	1	8
654.812	1	9
654.982	1	15
655.151	1	6
655.320	1	4
655.490	1	0
655.659	1	3
655.829	1	12
655.998	1	6
656.168	1	10
656.337	1	5
656.507	1	18
656.676	1	12
656.846	1	23
657.015	1	15
657.184	1	16
657.354	1	0
657.523	1	11
657.693	1	11
657.862	1	23
658.032	1	11
658.201	1	10
658.371	1	15
658.540	1	19
658.709	1	11
658.879	1	14
659.048	1	2
659.218	1	-3
659.387	1	6
659.557	1	10
659.726	1	19
659.895	1	4
660.065	1	7
660.234	1	15
660.404	1	10
660.573	1	6
660.743	1	10
660.912	1	12
661.081	1	13
661.251	1	0
661.420	1	18
661.590	1	6
661.759	1	19
661.929	1	10
662.098	1	21
662.267	1	6
662.437	1	14
662.606	1	7
662.776	1	7
662.945	1	8
663.115	1	10
663.284	1	0
663.453	1	13
663.623	1	12
663.792	1	13
663.962	1	11
664.131	1	9
664.300	1	18
664.470	1	-3
664.639	1	16
664.809	1	3
664.978	1	19
665.148	1	14
665.317	1	11
665.486	1	8
665.656	1	11
665.825	1	20
665.995	1	8
666.164	1	-2
666.333	1	13
666.503	1	5
666.672	1	-2
666.842	1	4
667.011	1	2
667.180	1	14
667.350	1	12
667.519	1	6
667.689	1	7
667.858	1	4
668.027	1	12
668.197	1	3
668.366	1	-9
668.536	1	7
668.705	1	9
668.874	1	11
669.044	1	0
669.213	1	5
669.382	1	0
669.552	1	18
669.721	1	20
669.891	1	14
670.060	1	8
670.229	1	22
670.399	1	0
670.568	1	14
670.738	1	12
670.907	1	-9
671.076	1	2
671.246	1	11
671.415	1	3
671.584	1	8
671.754	1	2
671.923	1	10
672.093	1	4
672.262	1	-4
672.431	1	11
672.601	1	10
672.770	1	-2
672.939	1	13
673.109	1	9
673.278	1	5
673.448	1	9
673.617	1	1
673.786	1	18
