325.333	1	18
325.504	1	8
325.675	1	17
325.846	1	17
326.017	1	22
326.188	1	24
326.359	1	21
326.531	1	13
326.702	1	13
326.873	1	35
327.044	1	24
327.215	1	18
327.386	1	24
327.557	1	23
327.728	1	13
327.899	1	16
328.070	1	26
328.241	1	26
328.412	1	12
328.583	1	27
328.754	1	26
328.926	1	17
329.097	1	6
329.268	1	30
329.439	1	4
329.610	1	28
329.781	1	10
329.952	1	39
330.123	1	30
330.294	1	14
330.465	1	34
330.636	1	33
330.807	1	13
330.978	1	26
331.149	1	28
331.320	1	29
331.492	1	29
331.663	1	27
331.834	1	33
332.005	1	30
332.176	1	35
332.347	1	20
332.518	1	23
332.689	1	25
332.860	1	20
333.031	1	35
333.202	1	18
333.373	1	22
333.544	1	29
333.715	1	32
333.886	1	12
334.057	1	37
334.228	1	25
334.399	1	19
334.570	1	42
334.741	1	26
334.912	1	36
335.084	1	54
335.255	1	30
335.426	1	30
335.597	1	29
335.768	1	31
335.939	1	33
336.110	1	28
336.281	1	21
336.452	1	33
336.623	1	38
336.794	1	40
336.965	1	29
337.136	1	40
337.307	1	35
337.478	1	34
337.649	1	37
337.820	1	37
337.991	1	34
338.162	1	42
338.333	1	39
338.504	1	49
338.675	1	41
338.846	1	32
339.017	1	33
339.188	1	29
339.359	1	35
339.530	1	32
339.701	1	41
339.872	1	43
340.043	1	45
340.214	1	37
340.385	1	48
340.556	1	35
340.727	1	47
340.898	1	43
341.069	1	32
341.240	1	37
341.411	1	41
341.582	1	47
341.753	1	35
341.924	1	43
342.095	1	51
342.266	1	43
342.437	1	39
342.608	1	41
342.779	1	45
342.950	1	41
343.121	1	56
343.292	1	37
343.463	1	51
343.634	1	40
343.805	1	44
343.976	1	47
344.147	1	51
344.318	1	46
344.489	1	47
344.660	1	62
344.831	1	47
345.002	1	39
345.173	1	56
345.344	1	57
345.515	1	47
345.686	1	47
345.857	1	53
346.028	1	36
346.199	1	42
346.370	1	46
346.541	1	48
346.712	1	45
346.883	1	45
347.054	1	46
347.225	1	53
347.396	1	51
347.567	1	58
347.738	1	42
347.909	1	55
348.080	1	41
348.251	1	56
348.422	1	50
348.593	1	57
348.764	1	50
348.935	1	50
349.106	1	41
349.277	1	50
349.448	1	59
349.619	1	53
349.790	1	51
349.961	1	55
350.132	1	62
350.303	1	46
350.474	1	57
350.645	1	61
350.816	1	62
350.987	1	63
351.157	1	63
351.328	1	69
351.499	1	60
351.670	1	65
351.841	1	64
352.012	1	55
352.183	1	75
352.354	1	62
352.525	1	72
352.696	1	70
352.867	1	58
353.038	1	72
353.209	1	72
353.380	1	67
353.551	1	61
353.722	1	64
353.893	1	55
354.064	1	70
354.235	1	63
354.406	1	58
354.576	1	61
354.747	1	66
354.918	1	64
355.089	1	82
355.260	1	63
355.431	1	68
355.602	1	77
355.773	1	61
355.944	1	70
356.115	1	69
356.286	1	64
356.457	1	73
356.628	1	60
356.799	1	76
356.970	1	78
357.141	1	82
357.311	1	68
357.482	1	77
357.653	1	69
357.824	1	79
357.995	1	68
358.166	1	62
358.337	1	79
358.508	1	79
358.679	1	78
358.850	1	78
359.021	1	64
359.192	1	76
359.363	1	72
359.533	1	74
359.704	1	74
359.875	1	76
360.046	1	69
360.217	1	66
360.388	1	65
360.559	1	81
360.730	1	73
360.901	1	84
361.072	1	78
361.243	1	85
361.414	1	74
361.584	1	66
361.755	1	78
361.926	1	74
362.097	1	82
362.268	1	68
362.439	1	63
362.610	1	77
362.781	1	73
362.952	1	71
363.123	1	73
363.293	1	70
363.464	1	78
363.635	1	82
363.806	1	68
363.977	1	70
364.148	1	79
364.319	1	74
364.490	1	72
364.661	1	71
364.832	1	86
365.002	1	82
365.173	1	86
365.344	1	88
365.515	1	83
365.686	1	76
365.857	1	70
366.028	1	83
366.199	1	79
366.370	1	81
366.540	1	80
366.711	1	71
366.882	1	71
367.053	1	74
367.224	1	88
367.395	1	82
367.566	1	83
367.737	1	86
367.908	1	92
368.078	1	84
368.249	1	94
368.420	1	69
368.591	1	77
368.762	1	84
368.933	1	80
369.104	1	76
369.274	1	78
369.445	1	78
369.616	1	75
369.787	1	91
369.958	1	89
370.129	1	69
370.300	1	88
370.471	1	85
370.641	1	89
370.812	1	82
370.983	1	79
371.154	1	75
371.325	1	81
371.496	1	91
371.667	1	96
371.837	1	74
372.008	1	79
372.179	1	71
372.350	1	98
372.521	1	90
372.692	1	84
372.863	1	93
373.033	1	78
373.204	1	76
373.375	1	90
373.546	1	92
373.717	1	83
373.888	1	87
374.059	1	87
374.229	1	90
374.400	1	77
374.571	1	79
374.742	1	93
374.913	1	93
375.084	1	89
375.254	1	93
375.425	1	95
375.596	1	88
375.767	1	82
375.938	1	95
376.109	1	94
376.279	1	85
376.450	1	101
376.621	1	96
376.792	1	90
376.963	1	87
377.134	1	87
377.304	1	102
377.475	1	81
377.646	1	86
377.817	1	85
377.988	1	94
378.159	1	94
378.329	1	99
378.500	1	97
378.671	1	86
378.842	1	90
379.013	1	90
379.184	1	93
379.354	1	95
379.525	1	92
379.696	1	106
379.867	1	88
380.038	1	91
380.209	1	92
380.379	1	90
380.550	1	96
380.721	1	108
380.892	1	91
381.063	1	101
381.233	1	104
381.404	1	85
381.575	1	104
381.746	1	94
381.917	1	101
382.087	1	106
382.258	1	103
382.429	1	98
382.600	1	109
382.771	1	100
382.941	1	102
383.112	1	90
383.283	1	101
383.454	1	106
383.625	1	99
383.795	1	108
383.966	1	103
384.137	1	112
384.308	1	106
384.479	1	110
384.649	1	111
384.820	1	99
384.991	1	99
385.162	1	110
385.333	1	102
385.503	1	95
385.674	1	96
385.845	1	111
386.016	1	106
386.187	1	99
386.357	1	115
386.528	1	120
386.699	1	102
386.870	1	121
387.041	1	112
387.211	1	107
387.382	1	124
387.553	1	115
387.724	1	106
387.894	1	110
388.065	1	120
388.236	1	112
388.407	1	113
388.578	1	107
388.748	1	102
388.919	1	122
389.090	1	119
389.261	1	98
389.431	1	120
389.602	1	118
389.773	1	112
389.944	1	114
390.114	1	118
390.285	1	125
390.456	1	115
390.627	1	111
390.798	1	131
390.968	1	98
391.139	1	124
391.310	1	101
391.481	1	124
391.651	1	110
391.822	1	104
391.993	1	117
392.164	1	117
392.334	1	115
392.505	1	102
392.676	1	109
392.847	1	124
393.017	1	112
393.188	1	114
393.359	1	103
393.530	1	112
393.700	1	115
393.871	1	115
394.042	1	118
394.213	1	106
394.383	1	126
394.554	1	113
394.725	1	117
394.896	1	113
395.066	1	122
395.237	1	111
395.408	1	107
395.579	1	115
395.749	1	125
395.920	1	120
396.091	1	125
396.262	1	118
396.432	1	114
396.603	1	124
396.774	1	129
396.945	1	116
397.115	1	126
397.286	1	127
397.457	1	122
397.627	1	126
397.798	1	109
397.969	1	117
398.140	1	119
398.310	1	116
398.481	1	118
398.652	1	117
398.823	1	130
398.993	1	117
399.164	1	119
399.335	1	128
399.505	1	122
399.676	1	126
399.847	1	119
400.018	1	123
400.188	1	117
400.359	1	128
400.530	1	121
400.700	1	121
400.871	1	126
401.042	1	123
401.213	1	112
401.383	1	119
401.554	1	123
401.725	1	142
401.895	1	111
402.066	1	123
402.237	1	130
402.408	1	123
402.578	1	122
402.749	1	135
402.920	1	128
403.090	1	107
403.261	1	117
403.432	1	122
403.603	1	133
403.773	1	135
403.944	1	137
404.115	1	130
404.285	1	130
404.456	1	122
404.627	1	124
404.797	1	118
404.968	1	111
405.139	1	113
405.310	1	143
405.480	1	126
405.651	1	129
405.822	1	132
405.992	1	112
406.163	1	133
406.334	1	119
406.504	1	120
406.675	1	137
406.846	1	132
407.016	1	123
407.187	1	145
407.358	1	118
407.528	1	123
407.699	1	116
407.870	1	123
408.041	1	126
408.211	1	140
408.382	1	118
408.553	1	125
408.723	1	132
408.894	1	126
409.065	1	127
409.235	1	137
409.406	1	128
409.577	1	123
409.747	1	137
409.918	1	116
410.089	1	137
410.259	1	134
410.430	1	133
410.601	1	133
410.771	1	123
410.942	1	135
411.113	1	128
411.283	1	130
411.454	1	133
411.625	1	124
411.795	1	134
411.966	1	127
412.137	1	133
412.307	1	125
412.478	1	129
412.649	1	143
412.819	1	130
412.990	1	116
413.161	1	117
413.331	1	117
413.502	1	128
413.672	1	118
413.843	1	127
414.014	1	124
414.184	1	137
414.355	1	125
414.526	1	132
414.696	1	135
414.867	1	114
415.038	1	102
415.208	1	124
415.379	1	119
415.550	1	133
415.720	1	118
415.891	1	132
416.062	1	123
416.232	1	128
416.403	1	123
416.573	1	125
416.744	1	122
416.915	1	131
417.085	1	124
417.256	1	123
417.427	1	135
417.597	1	136
417.768	1	110
417.939	1	128
418.109	1	119
418.280	1	125
418.450	1	122
418.621	1	112
418.792	1	126
418.962	1	124
419.133	1	133
419.304	1	116
419.474	1	114
419.645	1	127
419.815	1	120
419.986	1	135
420.157	1	134
420.327	1	115
420.498	1	127
420.669	1	124
420.839	1	132
421.010	1	126
421.180	1	130
421.351	1	103
421.522	1	121
421.692	1	130
421.863	1	118
422.033	1	128
422.204	1	129
422.375	1	124
422.545	1	118
422.716	1	112
422.886	1	119
423.057	1	133
423.228	1	119
423.398	1	120
423.569	1	128
423.740	1	120
423.910	1	98
424.081	1	122
424.251	1	123
424.422	1	113
424.593	1	99
424.763	1	119
424.934	1	129
425.104	1	124
425.275	1	127
425.445	1	108
425.616	1	110
425.787	1	111
425.957	1	123
426.128	1	124
426.298	1	112
426.469	1	105
426.640	1	117
426.810	1	113
426.981	1	116
427.151	1	102
427.322	1	115
427.493	1	108
427.663	1	118
427.834	1	109
428.004	1	111
428.175	1	124
428.345	1	103
428.516	1	107
428.687	1	102
428.857	1	107
429.028	1	106
429.198	1	112
429.369	1	118
429.540	1	114
429.710	1	100
429.881	1	116
430.051	1	106
430.222	1	108
430.392	1	110
430.563	1	117
430.734	1	120
430.904	1	101
431.075	1	110
431.245	1	97
431.416	1	120
431.586	1	114
431.757	1	120
431.927	1	109
432.098	1	110
432.269	1	105
432.439	1	106
432.610	1	102
432.780	1	116
432.951	1	98
433.121	1	105
433.292	1	108
433.462	1	115
433.633	1	121
433.804	1	119
433.974	1	120
434.145	1	121
434.315	1	105
434.486	1	102
434.656	1	111
434.827	1	97
434.997	1	105
435.168	1	113
435.339	1	112
435.509	1	103
435.680	1	116
435.850	1	110
436.021	1	109
436.191	1	99
436.362	1	111
436.532	1	112
436.703	1	111
436.873	1	105
437.044	1	89
437.214	1	106
437.385	1	105
437.556	1	110
437.726	1	111
437.897	1	113
438.067	1	112
438.238	1	105
438.408	1	111
438.579	1	101
438.749	1	106
438.920	1	105
439.090	1	104
439.261	1	93
439.431	1	88
439.602	1	96
439.772	1	98
439.943	1	100
440.113	1	113
440.284	1	100
440.455	1	99
440.625	1	110
440.796	1	102
440.966	1	87
441.137	1	99
441.307	1	96
441.478	1	106
441.648	1	97
441.819	1	107
441.989	1	95
442.160	1	114
442.330	1	92
442.501	1	97
442.671	1	94
442.842	1	80
443.012	1	97
443.183	1	99
443.353	1	85
443.524	1	94
443.694	1	110
443.865	1	84
444.035	1	110
444.206	1	94
444.376	1	93
444.547	1	107
444.717	1	93
444.888	1	94
445.058	1	106
445.229	1	102
445.399	1	91
445.570	1	95
445.740	1	87
445.911	1	86
446.081	1	85
446.252	1	95
446.422	1	89
446.593	1	83
446.763	1	95
446.934	1	88
447.104	1	95
447.275	1	93
447.445	1	85
447.616	1	104
447.786	1	82
447.957	1	98
448.127	1	93
448.298	1	85
448.468	1	98
448.639	1	106
448.809	1	102
448.979	1	83
449.150	1	92
449.320	1	89
449.491	1	90
449.661	1	90
449.832	1	84
450.002	1	90
450.173	1	94
450.343	1	88
450.514	1	83
450.684	1	84
450.855	1	91
451.025	1	88
451.196	1	92
451.366	1	87
451.537	1	83
451.707	1	83
451.878	1	84
452.048	1	98
452.218	1	94
452.389	1	91
452.559	1	80
452.730	1	83
452.900	1	92
453.071	1	75
453.241	1	74
453.412	1	73
453.582	1	80
453.753	1	84
453.923	1	77
454.093	1	88
454.264	1	92
454.434	1	80
454.605	1	87
454.775	1	83
454.946	1	80
455.116	1	86
455.287	1	65
455.457	1	68
455.628	1	67
455.798	1	79
455.968	1	90
456.139	1	70
456.309	1	82
456.480	1	71
456.650	1	67
456.821	1	75
456.991	1	70
457.161	1	77
457.332	1	89
457.502	1	69
457.673	1	82
457.843	1	78
458.014	1	77
458.184	1	63
458.355	1	78
458.525	1	74
458.695	1	86
458.866	1	75
459.036	1	76
459.207	1	73
459.377	1	69
459.548	1	74
459.718	1	71
459.888	1	75
460.059	1	78
460.229	1	74
460.400	1	80
460.570	1	79
460.740	1	78
460.911	1	73
461.081	1	77
461.252	1	68
461.422	1	70
461.593	1	69
461.763	1	62
461.933	1	71
462.104	1	73
462.274	1	76
462.445	1	78
462.615	1	70
462.785	1	65
462.956	1	77
463.126	1	77
463.297	1	80
463.467	1	75
463.638	1	75
463.808	1	55
463.978	1	67
464.149	1	66
464.319	1	70
464.490	1	87
464.660	1	61
464.830	1	67
465.001	1	74
465.171	1	69
465.342	1	79
465.512	1	62
465.682	1	77
465.853	1	72
466.023	1	67
466.194	1	71
466.364	1	67
466.534	1	72
466.705	1	65
466.875	1	60
467.045	1	67
467.216	1	69
467.386	1	72
467.557	1	61
467.727	1	57
467.897	1	61
468.068	1	69
468.238	1	66
468.409	1	63
468.579	1	61
468.749	1	64
468.920	1	53
469.090	1	54
469.260	1	65
469.431	1	52
469.601	1	75
469.772	1	56
469.942	1	61
470.112	1	66
470.283	1	54
470.453	1	60
470.623	1	55
470.794	1	58
470.964	1	60
471.135	1	68
471.305	1	48
471.475	1	68
471.646	1	60
471.816	1	54
471.986	1	58
472.157	1	68
472.327	1	45
472.497	1	54
472.668	1	43
472.838	1	63
473.009	1	59
473.179	1	51
473.349	1	46
473.520	1	69
473.690	1	56
473.860	1	62
474.031	1	62
474.201	1	60
474.371	1	72
474.542	1	58
474.712	1	55
474.882	1	54
475.053	1	68
475.223	1	51
475.394	1	64
475.564	1	52
475.734	1	56
475.905	1	58
476.075	1	58
476.245	1	65
476.416	1	65
476.586	1	66
476.756	1	61
476.927	1	56
477.097	1	63
477.267	1	45
477.438	1	62
477.608	1	49
477.778	1	63
477.949	1	60
478.119	1	72
478.289	1	66
478.460	1	65
478.630	1	54
478.800	1	53
478.971	1	50
479.141	1	56
479.311	1	43
479.482	1	63
479.652	1	46
479.822	1	55
479.993	1	55
480.163	1	64
480.333	1	62
480.504	1	63
480.674	1	50
480.844	1	53
481.015	1	56
481.185	1	58
481.355	1	49
481.525	1	48
481.696	1	47
481.866	1	55
482.036	1	46
482.207	1	47
482.377	1	57
482.547	1	59
482.718	1	48
482.888	1	53
483.058	1	49
483.229	1	46
483.399	1	42
483.569	1	56
483.740	1	55
483.910	1	50
484.080	1	46
484.250	1	49
484.421	1	61
484.591	1	59
484.761	1	64
484.932	1	40
485.102	1	58
485.272	1	48
485.443	1	52
485.613	1	54
485.783	1	33
485.953	1	44
486.124	1	54
486.294	1	48
486.464	1	32
486.635	1	46
486.805	1	48
486.975	1	43
487.146	1	46
487.316	1	47
487.486	1	42
487.656	1	43
487.827	1	47
487.997	1	41
488.167	1	47
488.338	1	56
488.508	1	40
488.678	1	37
488.848	1	57
489.019	1	40
489.189	1	44
489.359	1	39
489.529	1	47
489.700	1	40
489.870	1	52
490.040	1	34
490.211	1	27
490.381	1	49
490.551	1	41
490.721	1	52
490.892	1	41
491.062	1	51
491.232	1	45
491.402	1	37
491.573	1	33
491.743	1	46
491.913	1	41
492.084	1	47
492.254	1	45
492.424	1	36
492.594	1	43
492.765	1	44
492.935	1	35
493.105	1	32
493.275	1	31
493.446	1	47
493.616	1	37
493.786	1	34
493.956	1	43
494.127	1	27
494.297	1	41
494.467	1	35
494.637	1	31
494.808	1	33
494.978	1	26
495.148	1	35
495.318	1	43
495.489	1	51
495.659	1	52
495.829	1	38
495.999	1	40
496.170	1	39
496.340	1	52
496.510	1	38
496.680	1	32
496.851	1	31
497.021	1	37
497.191	1	43
497.361	1	36
497.532	1	32
497.702	1	44
497.872	1	40
498.042	1	46
498.213	1	35
498.383	1	40
498.553	1	39
498.723	1	24
498.894	1	38
499.064	1	38
499.234	1	37
499.404	1	41
499.574	1	49
499.745	1	42
499.915	1	27
500.085	1	35
500.255	1	39
500.426	1	28
500.596	1	37
500.766	1	40
500.936	1	31
501.106	1	37
501.277	1	42
501.447	1	43
501.617	1	33
501.787	1	32
501.958	1	24
502.128	1	42
502.298	1	30
502.468	1	37
502.638	1	28
502.809	1	24
502.979	1	28
503.149	1	20
503.319	1	32
503.489	1	31
503.660	1	32
503.830	1	33
504.000	1	31
504.170	1	28
504.340	1	26
504.511	1	34
504.681	1	38
504.851	1	40
505.021	1	23
505.192	1	26
505.362	1	34
505.532	1	20
505.702	1	33
505.872	1	26
506.043	1	30
506.213	1	20
506.383	1	27
506.553	1	41
506.723	1	27
506.893	1	32
507.064	1	43
507.234	1	28
507.404	1	30
507.574	1	31
507.744	1	33
507.915	1	23
508.085	1	35
508.255	1	37
508.425	1	29
508.595	1	22
508.766	1	45
508.936	1	19
509.106	1	32
509.276	1	39
509.446	1	14
509.616	1	16
509.787	1	26
509.957	1	33
510.127	1	30
510.297	1	28
510.467	1	23
510.638	1	26
510.808	1	24
510.978	1	18
511.148	1	27
511.318	1	30
511.488	1	14
511.659	1	24
511.829	1	22
511.999	1	29
512.169	1	26
512.339	1	29
512.509	1	31
512.680	1	14
512.850	1	30
513.020	1	37
513.190	1	37
513.360	1	33
513.530	1	28
513.700	1	31
513.871	1	25
514.041	1	25
514.211	1	26
514.381	1	22
514.551	1	18
514.721	1	24
514.892	1	36
515.062	1	27
515.232	1	21
515.402	1	26
515.572	1	8
515.742	1	32
515.912	1	36
516.083	1	29
516.253	1	23
516.423	1	24
516.593	1	34
516.763	1	40
516.933	1	23
517.104	1	27
517.274	1	26
517.444	1	23
517.614	1	9
517.784	1	21
517.954	1	26
518.124	1	32
518.294	1	28
518.465	1	17
518.635	1	30
518.805	1	19
518.975	1	22
519.145	1	25
519.315	1	27
519.485	1	17
519.656	1	25
519.826	1	22
519.996	1	12
520.166	1	29
520.336	1	36
520.506	1	12
520.676	1	8
520.846	1	24
521.017	1	21
521.187	1	20
521.357	1	33
521.527	1	13
521.697	1	20
521.867	1	14
522.037	1	24
522.207	1	32
522.377	1	25
522.548	1	16
522.718	1	28
522.888	1	28
523.058	1	14
523.228	1	14
523.398	1	34
523.568	1	25
523.738	1	17
523.909	1	27
524.079	1	9
524.249	1	20
524.419	1	11
524.589	1	20
524.759	1	12
524.929	1	6
525.099	1	15
525.269	1	27
525.439	1	25
525.610	1	25
525.780	1	17
525.950	1	22
526.120	1	16
526.290	1	24
526.460	1	13
526.630	1	23
526.800	1	14
526.970	1	18
527.140	1	15
527.311	1	16
527.481	1	12
527.651	1	24
527.821	1	9
527.991	1	21
528.161	1	30
528.331	1	19
528.501	1	24
528.671	1	14
528.841	1	21
529.011	1	15
529.181	1	16
529.352	1	15
529.522	1	18
529.692	1	14
529.862	1	15
530.032	1	26
530.202	1	17
530.372	1	14
530.542	1	18
530.712	1	25
530.882	1	11
531.052	1	18
531.222	1	11
531.392	1	11
531.563	1	26
531.733	1	22
531.903	1	22
532.073	1	9
532.243	1	18
532.413	1	18
532.583	1	13
532.753	1	11
532.923	1	1
533.093	1	16
533.263	1	11
533.433	1	22
533.603	1	22
533.773	1	5
533.943	1	14
534.113	1	15
534.284	1	18
534.454	1	16
534.624	1	21
534.794	1	8
534.964	1	17
535.134	1	21
535.304	1	13
535.474	1	33
535.644	1	9
535.814	1	9
535.984	1	12
536.154	1	6
536.324	1	8
536.494	1	17
536.664	1	10
536.834	1	21
537.004	1	10
537.174	1	27
537.344	1	19
537.514	1	10
537.685	1	17
537.855	1	23
538.025	1	13
538.195	1	10
538.365	1	19
538.535	1	2
538.705	1	13
538.875	1	15
539.045	1	22
539.215	1	27
539.385	1	20
539.555	1	19
539.725	1	14
539.895	1	5
540.065	1	28
540.235	1	21
540.405	1	13
540.575	1	12
540.745	1	20
540.915	1	30
541.085	1	16
541.255	1	5
541.425	1	15
541.595	1	15
541.765	1	18
541.935	1	13
542.105	1	4
542.275	1	14
542.445	1	1
542.615	1	18
542.785	1	12
542.955	1	10
543.125	1	15
543.295	1	14
543.465	1	13
543.635	1	17
543.805	1	20
543.975	1	18
544.145	1	22
544.315	1	21
544.485	1	21
544.655	1	13
544.825	1	5
544.995	1	15
545.165	1	5
545.335	1	21
545.505	1	19
545.675	1	17
545.845	1	6
546.015	1	20
546.185	1	16
546.355	1	15
546.525	1	11
546.695	1	23
546.865	1	4
547.035	1	27
547.205	1	5
547.375	1	20
547.545	1	24
547.715	1	12
547.885	1	5
548.055	1	9
548.225	1	15
548.395	1	5
548.565	1	15
548.735	1	10
548.905	1	5
549.075	1	15
549.245	1	6
549.415	1	4
549.585	1	11
549.755	1	17
549.925	1	8
550.095	1	20
550.265	1	4
550.435	1	7
550.605	1	8
550.775	1	15
550.945	1	16
551.115	1	14
551.285	1	6
551.455	1	7
551.625	1	23
551.795	1	18
551.965	1	6
552.135	1	9
552.305	1	1
552.475	1	5
552.645	1	6
552.815	1	5
552.985	1	5
553.155	1	10
553.325	1	23
553.495	1	4
553.665	1	6
553.835	1	10
554.004	1	11
554.174	1	4
554.344	1	18
554.514	1	10
554.684	1	16
554.854	1	17
555.024	1	4
555.194	1	13
555.364	1	14
555.534	1	6
555.704	1	4
555.874	1	14
556.044	1	8
556.214	1	4
556.384	1	14
556.554	1	23
556.724	1	14
556.894	1	9
557.064	1	10
557.234	1	8
557.404	1	13
557.573	1	13
557.743	1	13
557.913	1	7
558.083	1	13
558.253	1	15
558.423	1	6
558.593	1	2
558.763	1	9
558.933	1	11
559.103	1	18
559.273	1	6
559.443	1	9
559.613	1	18
559.783	1	17
559.953	1	16
560.122	1	19
560.292	1	12
560.462	1	0
560.632	1	17
560.802	1	17
560.972	1	10
561.142	1	15
561.312	1	4
561.482	1	20
561.652	1	11
561.822	1	5
561.992	1	8
562.162	1	13
562.331	1	6
562.501	1	10
562.671	1	13
562.841	1	7
563.011	1	18
563.181	1	15
563.351	1	11
563.521	1	9
563.691	1	7
563.861	1	15
564.031	1	8
564.201	1	21
564.370	1	5
564.540	1	11
564.710	1	10
564.880	1	8
565.050	1	15
565.220	1	7
565.390	1	7
565.560	1	21
565.730	1	5
565.900	1	6
566.069	1	15
566.239	1	13
566.409	1	5
566.579	1	19
566.749	1	4
566.919	1	14
567.089	1	12
567.259	1	14
567.429	1	13
567.599	1	10
567.768	1	7
567.938	1	5
568.108	1	11
568.278	1	6
568.448	1	4
568.618	1	7
568.788	1	17
568.958	1	5
569.128	1	11
569.297	1	0
569.467	1	15
569.637	1	17
569.807	1	11
569.977	1	15
570.147	1	12
570.317	1	-3
570.487	1	13
570.656	1	16
570.826	1	8
570.996	1	-3
571.166	1	19
571.336	1	12
571.506	1	8
571.676	1	10
571.846	1	9
572.015	1	6
572.185	1	4
572.355	1	11
572.525	1	14
572.695	1	7
572.865	1	-3
573.035	1	7
573.205	1	6
573.374	1	4
573.544	1	10
573.714	1	15
573.884	1	22
574.054	1	5
574.224	1	11
574.394	1	7
574.563	1	5
574.733	1	11
574.903	1	11
575.073	1	0
575.243	1	0
575.413	1	20
575.583	1	9
575.752	1	5
575.922	1	13
576.092	1	3
576.262	1	7
576.432	1	3
576.602	1	14
576.772	1	19
576.941	1	8
577.111	1	5
577.281	1	-5
577.451	1	0
577.621	1	4
577.791	1	10
577.960	1	7
578.130	1	14
578.300	1	-1
578.470	1	14
578.640	1	11
578.810	1	0
578.979	1	13
579.149	1	1
579.319	1	-4
579.489	1	6
579.659	1	4
579.829	1	3
579.998	1	13
580.168	1	28
580.338	1	9
580.508	1	1
580.678	1	9
580.848	1	7
581.017	1	7
581.187	1	9
581.357	1	1
581.527	1	20
581.697	1	11
581.867	1	8
582.036	1	10
582.206	1	12
582.376	1	16
582.546	1	1
582.716	1	2
582.885	1	8
583.055	1	9
583.225	1	-2
583.395	1	7
583.565	1	-2
583.735	1	17
583.904	1	3
584.074	1	5
584.244	1	12
584.414	1	8
584.584	1	11
584.753	1	8
584.923	1	9
585.093	1	6
585.263	1	14
585.433	1	12
585.602	1	10
585.772	1	8
585.942	1	2
586.112	1	5
586.282	1	7
586.451	1	0
586.621	1	-2
586.791	1	4
586.961	1	13
587.131	1	12
587.300	1	13
587.470	1	14
587.640	1	21
587.810	1	-3
587.980	1	6
588.149	1	8
588.319	1	8
588.489	1	12
588.659	1	13
588.829	1	13
588.998	1	13
589.168	1	12
589.338	1	14
589.508	1	11
589.677	1	6
589.847	1	1
590.017	1	22
590.187	1	0
590.357	1	13
590.526	1	20
590.696	1	17
590.866	1	12
591.036	1	8
591.205	1	22
591.375	1	10
591.545	1	7
591.715	1	12
591.885	1	7
592.054	1	7
592.224	1	9
592.394	1	5
592.564	1	10
592.733	1	11
592.903	1	10
593.073	1	9
593.243	1	16
593.412	1	22
593.582	1	6
593.752	1	6
593.922	1	4
594.091	1	8
594.261	1	12
594.431	1	10
594.601	1	2
594.771	1	11
594.940	1	4
595.110	1	10
595.280	1	12
595.450	1	13
595.619	1	5
595.789	1	8
595.959	1	7
596.129	1	11
596.298	1	11
596.468	1	8
596.638	1	13
596.808	1	3
596.977	1	8
597.147	1	8
597.317	1	-4
597.487	1	12
597.656	1	16
597.826	1	11
597.996	1	10
598.166	1	4
598.335	1	5
598.505	1	4
598.675	1	5
598.844	1	3
599.014	1	7
599.184	1	12
599.354	1	5
599.523	1	1
599.693	1	7
599.863	1	19
600.033	1	6
600.202	1	9
600.372	1	6
600.542	1	22
600.712	1	1
600.881	1	0
601.051	1	22
601.221	1	11
601.390	1	5
601.560	1	9
601.730	1	23
601.900	1	11
602.069	1	7
602.239	1	-3
602.409	1	-1
602.578	1	9
602.748	1	6
602.918	1	12
603.088	1	19
603.257	1	13
603.427	1	0
603.597	1	6
603.767	1	14
603.936	1	3
604.106	1	12
604.276	1	6
604.445	1	19
604.615	1	0
604.785	1	7
604.954	1	7
605.124	1	9
605.294	1	10
605.464	1	6
605.633	1	7
605.803	1	19
605.973	1	9
606.142	1	9
606.312	1	18
606.482	1	11
606.652	1	18
606.821	1	5
606.991	1	10
607.161	1	11
607.330	1	21
607.500	1	11
607.670	1	-2
607.839	1	12
608.009	1	26
608.179	1	15
608.348	1	13
608.518	1	16
608.688	1	17
608.858	1	19
609.027	1	0
609.197	1	12
609.367	1	20
609.536	1	16
609.706	1	1
609.876	1	4
610.045	1	9
610.215	1	17
610.385	1	15
610.554	1	12
610.724	1	15
610.894	1	9
611.063	1	7
611.233	1	2
611.403	1	6
611.572	1	14
611.742	1	16
611.912	1	15
612.081	1	2
612.251	1	12
612.421	1	16
612.590	1	9
612.760	1	5
612.930	1	12
613.099	1	8
613.269	1	12
613.439	1	7
613.608	1	7
613.778	1	16
613.948	1	10
614.117	1	14
614.287	1	14
614.457	1	14
614.626	1	6
614.796	1	17
614.966	1	2
615.135	1	9
615.305	1	16
615.475	1	17
615.644	1	17
615.814	1	6
615.984	1	9
616.153	1	8
616.323	1	9
616.493	1	14
616.662	1	15
616.832	1	12
617.002	1	1
617.171	1	14
617.341	1	11
617.511	1	4
617.680	1	5
617.850	1	6
618.019	1	17
618.189	1	22
618.359	1	9
618.528	1	5
618.698	1	11
618.868	1	9
619.037	1	8
619.207	1	3
619.377	1	1
619.546	1	12
619.716	1	12
619.885	1	18
620.055	1	4
620.225	1	13
620.394	1	7
620.564	1	15
620.734	1	15
620.903	1	4
621.073	1	18
621.242	1	13
621.412	1	13
621.582	1	10
621.751	1	14
621.921	1	18
622.091	1	7
622.260	1	7
622.430	1	18
622.599	1	10
622.769	1	14
622.939	1	22
623.108	1	5
623.278	1	4
623.448	1	15
623.617	1	10
623.787	1	13
623.956	1	12
624.126	1	8
624.296	1	7
624.465	1	13
624.635	1	18
624.804	1	18
624.974	1	12
625.144	1	27
625.313	1	5
625.483	1	3
625.652	1	5
625.822	1	7
625.992	1	12
626.161	1	14
626.331	1	20
626.501	1	11
626.670	1	14
626.840	1	11
627.009	1	6
627.179	1	20
627.348	1	23
627.518	1	10
627.688	1	19
627.857	1	21
628.027	1	4
628.196	1	9
628.366	1	19
628.536	1	10
628.705	1	12
628.875	1	13
629.044	1	22
629.214	1	11
629.384	1	9
629.553	1	18
629.723	1	11
629.892	1	22
630.062	1	14
630.232	1	16
630.401	1	17
630.571	1	18
630.740	1	23
630.910	1	17
631.079	1	15
631.249	1	8
631.419	1	18
631.588	1	5
631.758	1	26
631.927	1	5
632.097	1	15
632.266	1	7
632.436	1	12
632.606	1	11
632.775	1	18
632.945	1	19
633.114	1	22
633.284	1	25
633.453	1	14
633.623	1	4
633.793	1	23
633.962	1	17
634.132	1	18
634.301	1	14
634.471	1	17
634.640	1	23
634.810	1	21
634.979	1	22
635.149	1	23
635.319	1	20
635.488	1	16
635.658	1	13
635.827	1	13
635.997	1	17
636.166	1	18
636.336	1	5
636.505	1	30
636.675	1	16
636.845	1	10
637.014	1	22
637.184	1	18
637.353	1	22
637.523	1	14
637.692	1	15
637.862	1	22
638.031	1	20
638.201	1	22
638.370	1	17
638.540	1	22
638.710	1	19
638.879	1	10
639.049	1	12
639.218	1	17
639.388	1	9
639.557	1	12
639.727	1	18
639.896	1	21
640.066	1	8
640.235	1	22
640.405	1	24
640.574	1	17
640.744	1	12
640.914	1	12
641.083	1	11
641.253	1	12
641.422	1	17
641.592	1	27
641.761	1	13
641.931	1	18
642.100	1	30
642.270	1	26
642.439	1	19
642.609	1	22
642.778	1	17
642.948	1	14
643.117	1	27
643.287	1	12
643.456	1	16
643.626	1	20
643.795	1	6
643.965	1	25
644.134	1	13
644.304	1	12
644.473	1	20
644.643	1	16
644.812	1	18
644.982	1	17
645.151	1	15
645.321	1	17
645.490	1	17
645.660	1	8
645.829	1	10
645.999	1	18
646.168	1	27
646.338	1	25
646.507	1	17
646.677	1	25
646.846	1	22
647.016	1	7
647.185	1	19
647.355	1	2
647.524	1	24
647.694	1	33
647.863	1	22
648.033	1	25
648.202	1	22
648.372	1	16
648.541	1	14
648.711	1	14
648.880	1	11
649.050	1	5
649.219	1	23
649.389	1	23
649.558	1	16
649.728	1	23
649.897	1	19
650.067	1	23
650.236	1	11
650.406	1	20
650.575	1	34
650.745	1	17
650.914	1	20
651.084	1	16
651.253	1	14
651.423	1	20
651.592	1	17
651.762	1	8
651.931	1	26
652.101	1	23
652.270	1	17
652.440	1	18
652.609	1	15
652.778	1	17
652.948	1	26
653.117	1	19
653.287	1	16
653.456	1	21
653.626	1	20
653.795	1	20
653.965	1	23
654.134	1	24
654.304	1	9
654.473	1	22
654.643	1	23
654.812	1	24
654.982	1	24
655.151	1	12
655.320	1	16
655.490	1	11
655.659	1	25
655.829	1	19
655.998	1	11
656.168	1	19
656.337	1	24
656.507	1	21
656.676	1	29
656.846	1	22
657.015	1	24
657.184	1	28
657.354	1	27
657.523	1	24
657.693	1	29
657.862	1	26
658.032	1	18
658.201	1	17
658.371	1	20
658.540	1	20
658.709	1	13
658.879	1	19
659.048	1	21
659.218	1	23
659.387	1	29
659.557	1	26
659.726	1	26
659.895	1	15
660.065	1	14
660.234	1	25
660.404	1	28
660.573	1	24
660.743	1	18
660.912	1	28
661.081	1	35
661.251	1	26
661.420	1	16
661.590	1	19
661.759	1	16
661.929	1	21
662.098	1	26
662.267	1	24
662.437	1	31
662.606	1	23
662.776	1	23
662.945	1	27
663.115	1	30
663.284	1	14
663.453	1	24
663.623	1	20
663.792	1	25
663.962	1	24
664.131	1	25
664.300	1	34
664.470	1	19
664.639	1	18
664.809	1	20
664.978	1	25
665.148	1	20
665.317	1	23
665.486	1	26
665.656	1	10
665.825	1	21
665.995	1	8
666.164	1	23
666.333	1	26
666.503	1	25
666.672	1	15
666.842	1	19
667.011	1	22
667.180	1	26
667.350	1	14
667.519	1	23
667.689	1	29
667.858	1	19
668.027	1	22
668.197	1	16
668.366	1	8
668.536	1	19
668.705	1	18
668.874	1	18
669.044	1	12
669.213	1	28
669.382	1	14
669.552	1	26
669.721	1	29
669.891	1	27
670.060	1	28
670.229	1	37
670.399	1	17
670.568	1	31
670.738	1	26
670.907	1	22
671.076	1	19
671.246	1	25
671.415	1	25
671.584	1	20
671.754	1	19
671.923	1	28
672.093	1	25
672.262	1	8
672.431	1	16
672.601	1	26
672.770	1	15
672.939	1	31
673.109	1	22
673.278	1	21
673.448	1	30
673.617	1	18
673.786	1	27
