325.333	1	9
325.504	1	-1
325.675	1	7
325.846	1	1
326.017	1	1
326.188	1	-1
326.359	1	-2
326.531	1	-5
326.702	1	-3
326.873	1	17
327.044	1	16
327.215	1	1
327.386	1	11
327.557	1	-5
327.728	1	-5
327.899	1	10
328.070	1	13
328.241	1	7
328.412	1	1
328.583	1	10
328.754	1	8
328.926	1	10
329.097	1	-5
329.268	1	3
329.439	1	2
329.610	1	8
329.781	1	0
329.952	1	15
330.123	1	7
330.294	1	2
330.465	1	2
330.636	1	7
330.807	1	-2
330.978	1	3
331.149	1	4
331.320	1	2
331.492	1	-1
331.663	1	5
331.834	1	12
332.005	1	6
332.176	1	19
332.347	1	7
332.518	1	-2
332.689	1	5
332.860	1	-3
333.031	1	4
333.202	1	1
333.373	1	-2
333.544	1	-2
333.715	1	6
333.886	1	-3
334.057	1	7
334.228	1	-10
334.399	1	8
334.570	1	6
334.741	1	3
334.912	1	5
335.084	1	25
335.255	1	7
335.426	1	-6
335.597	1	-5
335.768	1	4
335.939	1	8
336.110	1	-6
336.281	1	-1
336.452	1	2
336.623	1	8
336.794	1	3
336.965	1	7
337.136	1	13
337.307	1	2
337.478	1	2
337.649	1	-2
337.820	1	-5
337.991	1	-1
338.162	1	3
338.333	1	1
338.504	1	-1
338.675	1	8
338.846	1	8
339.017	1	2
339.188	1	-3
339.359	1	-8
339.530	1	-3
339.701	1	1
339.872	1	17
340.043	1	1
340.214	1	4
340.385	1	10
340.556	1	-5
340.727	1	7
340.898	1	11
341.069	1	5
341.240	1	1
341.411	1	5
341.582	1	-5
341.753	1	-2
341.924	1	1
342.095	1	10
342.266	1	7
342.437	1	8
342.608	1	7
342.779	1	8
342.950	1	5
343.121	1	10
343.292	1	5
343.463	1	0
343.634	1	5
343.805	1	5
343.976	1	8
344.147	1	10
344.318	1	2
344.489	1	4
344.660	1	6
344.831	1	3
345.002	1	4
345.173	1	11
345.344	1	-2
345.515	1	3
345.686	1	12
345.857	1	8
346.028	1	9
346.199	1	2
346.370	1	6
346.541	1	9
346.712	1	-10
346.883	1	0
347.054	1	2
347.225	1	1
347.396	1	4
347.567	1	7
347.738	1	-6
347.909	1	13
348.080	1	3
348.251	1	14
348.422	1	13
348.593	1	3
348.764	1	5
348.935	1	4
349.106	1	0
349.277	1	4
349.448	1	9
349.619	1	1
349.790	1	8
349.961	1	14
350.132	1	17
350.303	1	3
350.474	1	11
350.645	1	4
350.816	1	5
350.987	1	10
351.157	1	4
351.328	1	11
351.499	1	16
351.670	1	6
351.841	1	11
352.012	1	14
352.183	1	16
352.354	1	15
352.525	1	5
352.696	1	4
352.867	1	3
353.038	1	16
353.209	1	9
353.380	1	11
353.551	1	2
353.722	1	9
353.893	1	4
354.064	1	7
354.235	1	6
354.406	1	5
354.576	1	4
354.747	1	6
354.918	1	6
355.089	1	10
355.260	1	12
355.431	1	19
355.602	1	6
355.773	1	2
355.944	1	8
356.115	1	1
356.286	1	11
356.457	1	15
356.628	1	10
356.799	1	11
356.970	1	19
357.141	1	3
357.311	1	2
357.482	1	2
357.653	1	6
357.824	1	14
357.995	1	-1
358.166	1	-4
358.337	1	13
358.508	1	20
358.679	1	7
358.850	1	17
359.021	1	8
359.192	1	14
359.363	1	5
359.533	1	7
359.704	1	10
359.875	1	10
360.046	1	5
360.217	1	5
360.388	1	13
360.559	1	-1
360.730	1	16
360.901	1	6
361.072	1	16
361.243	1	7
361.414	1	15
361.584	1	10
361.755	1	12
361.926	1	7
362.097	1	13
362.268	1	10
362.439	1	-1
362.610	1	22
362.781	1	1
362.952	1	-7
363.123	1	7
363.293	1	7
363.464	1	17
363.635	1	12
363.806	1	4
363.977	1	18
364.148	1	3
364.319	1	11
364.490	1	13
364.661	1	5
364.832	1	17
365.002	1	11
365.173	1	11
365.344	1	9
365.515	1	17
365.686	1	7
365.857	1	7
366.028	1	17
366.199	1	8
366.370	1	15
366.540	1	-2
366.711	1	-1
366.882	1	-6
367.053	1	-2
367.224	1	21
367.395	1	11
367.566	1	20
367.737	1	12
367.908	1	12
368.078	1	17
368.249	1	8
368.420	1	5
368.591	1	8
368.762	1	8
368.933	1	7
369.104	1	0
369.274	1	5
369.445	1	7
369.616	1	9
369.787	1	12
369.958	1	23
370.129	1	2
370.300	1	18
370.471	1	2
370.641	1	10
370.812	1	14
370.983	1	18
371.154	1	2
371.325	1	18
371.496	1	5
371.667	1	10
371.837	1	11
372.008	1	5
372.179	1	-1
372.350	1	19
372.521	1	9
372.692	1	13
372.863	1	14
373.033	1	-5
373.204	1	5
373.375	1	12
373.546	1	16
373.717	1	15
373.888	1	18
374.059	1	19
374.229	1	20
374.400	1	0
374.571	1	6
374.742	1	22
374.913	1	13
375.084	1	17
375.254	1	9
375.425	1	9
375.596	1	6
375.767	1	8
375.938	1	13
376.109	1	15
376.279	1	6
376.450	1	13
376.621	1	15
376.792	1	9
376.963	1	4
377.134	1	13
377.304	1	12
377.475	1	3
377.646	1	13
377.817	1	-1
377.988	1	9
378.159	1	13
378.329	1	17
378.500	1	-1
378.671	1	22
378.842	1	8
379.013	1	3
379.184	1	6
379.354	1	15
379.525	1	-2
379.696	1	13
379.867	1	18
380.038	1	16
380.209	1	16
380.379	1	8
380.550	1	0
380.721	1	17
380.892	1	13
381.063	1	20
381.233	1	21
381.404	1	0
381.575	1	11
381.746	1	21
381.917	1	16
382.087	1	16
382.258	1	14
382.429	1	7
382.600	1	23
382.771	1	12
382.941	1	16
383.112	1	14
383.283	1	22
383.454	1	11
383.625	1	11
383.795	1	18
383.966	1	11
384.137	1	24
384.308	1	15
384.479	1	20
384.649	1	23
384.820	1	10
384.991	1	2
385.162	1	16
385.333	1	14
385.503	1	10
385.674	1	9
385.845	1	20
386.016	1	14
386.187	1	6
386.357	1	15
386.528	1	23
386.699	1	12
386.870	1	17
387.041	1	10
387.211	1	14
387.382	1	28
387.553	1	23
387.724	1	14
387.894	1	9
388.065	1	6
388.236	1	12
388.407	1	22
388.578	1	9
388.748	1	9
388.919	1	22
389.090	1	15
389.261	1	14
389.431	1	20
389.602	1	19
389.773	1	12
389.944	1	14
390.114	1	18
390.285	1	12
390.456	1	16
390.627	1	11
390.798	1	16
390.968	1	18
391.139	1	17
391.310	1	12
391.481	1	23
391.651	1	6
391.822	1	13
391.993	1	18
392.164	1	11
392.334	1	13
392.505	1	4
392.676	1	27
392.847	1	18
393.017	1	24
393.188	1	17
393.359	1	6
393.530	1	19
393.700	1	16
393.871	1	10
394.042	1	14
394.213	1	2
394.383	1	24
394.554	1	18
394.725	1	17
394.896	1	5
395.066	1	16
395.237	1	8
395.408	1	15
395.579	1	1
395.749	1	12
395.920	1	6
396.091	1	14
396.262	1	13
396.432	1	9
396.603	1	20
396.774	1	25
396.945	1	23
397.115	1	17
397.286	1	13
397.457	1	9
397.627	1	9
397.798	1	21
397.969	1	2
398.140	1	11
398.310	1	18
398.481	1	18
398.652	1	9
398.823	1	6
398.993	1	20
399.164	1	10
399.335	1	24
399.505	1	17
399.676	1	11
399.847	1	12
400.018	1	14
400.188	1	6
400.359	1	18
400.530	1	14
400.700	1	10
400.871	1	18
401.042	1	17
401.213	1	7
401.383	1	11
401.554	1	16
401.725	1	23
401.895	1	9
402.066	1	21
402.237	1	25
402.408	1	22
402.578	1	9
402.749	1	16
402.920	1	19
403.090	1	15
403.261	1	18
403.432	1	27
403.603	1	26
403.773	1	23
403.944	1	20
404.115	1	22
404.285	1	22
404.456	1	8
404.627	1	13
404.797	1	7
404.968	1	17
405.139	1	4
405.310	1	25
405.480	1	19
405.651	1	13
405.822	1	17
405.992	1	14
406.163	1	13
406.334	1	8
406.504	1	12
406.675	1	20
406.846	1	19
407.016	1	15
407.187	1	19
407.358	1	5
407.528	1	19
407.699	1	-3
407.870	1	14
408.041	1	14
408.211	1	27
408.382	1	2
408.553	1	10
408.723	1	20
408.894	1	20
409.065	1	17
409.235	1	16
409.406	1	20
409.577	1	9
409.747	1	20
409.918	1	9
410.089	1	17
410.259	1	33
410.430	1	13
410.601	1	14
410.771	1	25
410.942	1	11
411.113	1	24
411.283	1	15
411.454	1	12
411.625	1	14
411.795	1	14
411.966	1	13
412.137	1	16
412.307	1	11
412.478	1	13
412.649	1	22
412.819	1	9
412.990	1	5
413.161	1	15
413.331	1	12
413.502	1	27
413.672	1	7
413.843	1	5
414.014	1	10
414.184	1	19
414.355	1	12
414.526	1	15
414.696	1	20
414.867	1	22
415.038	1	5
415.208	1	18
415.379	1	16
415.550	1	20
415.720	1	12
415.891	1	23
416.062	1	19
416.232	1	19
416.403	1	21
416.573	1	11
416.744	1	8
416.915	1	18
417.085	1	19
417.256	1	13
417.427	1	24
417.597	1	15
417.768	1	9
417.939	1	22
418.109	1	30
418.280	1	22
418.450	1	6
418.621	1	4
418.792	1	13
418.962	1	14
419.133	1	29
419.304	1	13
419.474	1	12
419.645	1	9
419.815	1	17
419.986	1	16
420.157	1	21
420.327	1	16
420.498	1	14
420.669	1	7
420.839	1	15
421.010	1	23
421.180	1	13
421.351	1	9
421.522	1	14
421.692	1	10
421.863	1	13
422.033	1	22
422.204	1	25
422.375	1	19
422.545	1	30
422.716	1	11
422.886	1	14
423.057	1	18
423.228	1	18
423.398	1	5
423.569	1	18
423.740	1	19
423.910	1	14
424.081	1	23
424.251	1	6
424.422	1	22
424.593	1	7
424.763	1	19
424.934	1	16
425.104	1	20
425.275	1	25
425.445	1	16
425.616	1	17
425.787	1	10
425.957	1	26
426.128	1	16
426.298	1	15
426.469	1	7
426.640	1	15
426.810	1	16
426.981	1	7
427.151	1	21
427.322	1	25
427.493	1	18
427.663	1	18
427.834	1	9
428.004	1	14
428.175	1	24
428.345	1	7
428.516	1	15
428.687	1	12
428.857	1	13
429.028	1	9
429.198	1	13
429.369	1	17
429.540	1	18
429.710	1	3
429.881	1	20
430.051	1	11
430.222	1	10
430.392	1	21
430.563	1	26
430.734	1	24
430.904	1	11
431.075	1	22
431.245	1	4
431.416	1	24
431.586	1	10
431.757	1	8
431.927	1	20
432.098	1	18
432.269	1	4
432.439	1	12
432.610	1	15
432.780	1	24
432.951	1	7
433.121	1	22
433.292	1	18
433.462	1	19
433.633	1	11
433.804	1	10
433.974	1	23
434.145	1	27
434.315	1	6
434.486	1	8
434.656	1	23
434.827	1	17
434.997	1	5
435.168	1	22
435.339	1	19
435.509	1	11
435.680	1	7
435.850	1	3
436.021	1	14
436.191	1	15
436.362	1	15
436.532	1	11
436.703	1	11
436.873	1	15
437.044	1	2
437.214	1	2
437.385	1	7
437.556	1	13
437.726	1	17
437.897	1	23
438.067	1	21
438.238	1	12
438.408	1	20
438.579	1	13
438.749	1	14
438.920	1	12
439.090	1	19
439.261	1	4
439.431	1	11
439.602	1	6
439.772	1	2
439.943	1	21
440.113	1	12
440.284	1	18
440.455	1	12
440.625	1	22
440.796	1	10
440.966	1	12
441.137	1	12
441.307	1	11
441.478	1	17
441.648	1	12
441.819	1	19
441.989	1	6
442.160	1	10
442.330	1	20
442.501	1	13
442.671	1	15
442.842	1	0
443.012	1	9
443.183	1	21
443.353	1	10
443.524	1	13
443.694	1	26
443.865	1	14
444.035	1	26
444.206	1	16
444.376	1	11
444.547	1	22
444.717	1	6
444.888	1	15
445.058	1	17
445.229	1	16
445.399	1	9
445.570	1	16
445.740	1	8
445.911	1	4
446.081	1	13
446.252	1	21
446.422	1	17
446.593	1	4
446.763	1	12
446.934	1	14
447.104	1	15
447.275	1	4
447.445	1	20
447.616	1	32
447.786	1	21
447.957	1	14
448.127	1	11
448.298	1	9
448.468	1	7
448.639	1	11
448.809	1	15
448.979	1	14
449.150	1	13
449.320	1	16
449.491	1	22
449.661	1	5
449.832	1	15
450.002	1	20
450.173	1	11
450.343	1	18
450.514	1	14
450.684	1	8
450.855	1	10
451.025	1	21
451.196	1	12
451.366	1	3
451.537	1	14
451.707	1	-1
451.878	1	6
452.048	1	25
452.218	1	27
452.389	1	16
452.559	1	-1
452.730	1	25
452.900	1	14
453.071	1	-2
453.241	1	14
453.412	1	4
453.582	1	12
453.753	1	7
453.923	1	8
454.093	1	24
454.264	1	22
454.434	1	10
454.605	1	16
454.775	1	15
454.946	1	8
455.116	1	9
455.287	1	2
455.457	1	7
455.628	1	6
455.798	1	19
455.968	1	20
456.139	1	10
456.309	1	15
456.480	1	-2
456.650	1	6
456.821	1	4
456.991	1	9
457.161	1	5
457.332	1	10
457.502	1	8
457.673	1	18
457.843	1	21
458.014	1	11
458.184	1	10
458.355	1	10
458.525	1	11
458.695	1	10
458.866	1	7
459.036	1	26
459.207	1	6
459.377	1	15
459.548	1	14
459.718	1	8
459.888	1	12
460.059	1	12
460.229	1	7
460.400	1	17
460.570	1	17
460.740	1	10
460.911	1	10
461.081	1	15
461.252	1	6
461.422	1	6
461.593	1	1
461.763	1	14
461.933	1	12
462.104	1	3
462.274	1	11
462.445	1	9
462.615	1	12
462.785	1	7
462.956	1	10
463.126	1	13
463.297	1	8
463.467	1	15
463.638	1	17
463.808	1	10
463.978	1	-7
464.149	1	4
464.319	1	2
464.490	1	30
464.660	1	3
464.830	1	9
465.001	1	14
465.171	1	15
465.342	1	15
465.512	1	3
465.682	1	9
465.853	1	15
466.023	1	5
466.194	1	0
466.364	1	12
466.534	1	11
466.705	1	16
466.875	1	6
467.045	1	6
467.216	1	15
467.386	1	10
467.557	1	14
467.727	1	3
467.897	1	0
468.068	1	9
468.238	1	10
468.409	1	6
468.579	1	21
468.749	1	12
468.920	1	6
469.090	1	7
469.260	1	0
469.431	1	2
469.601	1	13
469.772	1	10
469.942	1	3
470.112	1	8
470.283	1	4
470.453	1	9
470.623	1	8
470.794	1	4
470.964	1	14
471.135	1	17
471.305	1	-3
471.475	1	11
471.646	1	-12
471.816	1	5
471.986	1	12
472.157	1	19
472.327	1	4
472.497	1	8
472.668	1	11
472.838	1	7
473.009	1	14
473.179	1	3
473.349	1	3
473.520	1	11
473.690	1	15
473.860	1	7
474.031	1	16
474.201	1	7
474.371	1	20
474.542	1	14
474.712	1	7
474.882	1	15
475.053	1	11
475.223	1	5
475.394	1	7
475.564	1	8
475.734	1	2
475.905	1	17
476.075	1	3
476.245	1	27
476.416	1	14
476.586	1	18
476.756	1	7
476.927	1	16
477.097	1	7
477.267	1	7
477.438	1	5
477.608	1	4
477.778	1	11
477.949	1	4
478.119	1	14
478.289	1	17
478.460	1	15
478.630	1	10
478.800	1	1
478.971	1	11
479.141	1	7
479.311	1	0
479.482	1	3
479.652	1	3
479.822	1	10
479.993	1	13
480.163	1	10
480.333	1	12
480.504	1	11
480.674	1	9
480.844	1	-3
481.015	1	15
481.185	1	-1
481.355	1	13
481.525	1	0
481.696	1	18
481.866	1	4
482.036	1	9
482.207	1	7
482.377	1	0
482.547	1	9
482.718	1	1
482.888	1	12
483.058	1	7
483.229	1	9
483.399	1	7
483.569	1	8
483.740	1	4
483.910	1	7
484.080	1	8
484.250	1	9
484.421	1	8
484.591	1	9
484.761	1	15
484.932	1	15
485.102	1	22
485.272	1	5
485.443	1	16
485.613	1	18
485.783	1	1
485.953	1	2
486.124	1	7
486.294	1	10
486.464	1	1
486.635	1	15
486.805	1	13
486.975	1	-3
487.146	1	13
487.316	1	0
487.486	1	19
487.656	1	8
487.827	1	13
487.997	1	-3
488.167	1	7
488.338	1	5
488.508	1	-2
488.678	1	2
488.848	1	16
489.019	1	5
489.189	1	3
489.359	1	4
489.529	1	12
489.700	1	4
489.870	1	10
490.040	1	2
490.211	1	-1
490.381	1	17
490.551	1	11
490.721	1	19
490.892	1	3
491.062	1	9
491.232	1	9
491.402	1	5
491.573	1	-4
491.743	1	7
491.913	1	6
492.084	1	13
492.254	1	3
492.424	1	5
492.594	1	5
492.765	1	4
492.935	1	2
493.105	1	16
493.275	1	13
493.446	1	14
493.616	1	7
493.786	1	-1
493.956	1	-3
494.127	1	6
494.297	1	0
494.467	1	6
494.637	1	8
494.808	1	1
494.978	1	-2
495.148	1	-2
495.318	1	2
495.489	1	5
495.659	1	19
495.829	1	3
495.999	1	-4
496.170	1	10
496.340	1	12
496.510	1	3
496.680	1	10
496.851	1	9
497.021	1	4
497.191	1	-3
497.361	1	4
497.532	1	3
497.702	1	3
497.872	1	5
498.042	1	18
498.213	1	6
498.383	1	9
498.553	1	2
498.723	1	-6
498.894	1	8
499.064	1	2
499.234	1	8
499.404	1	9
499.574	1	14
499.745	1	3
499.915	1	1
500.085	1	8
500.255	1	14
500.426	1	7
500.596	1	7
500.766	1	2
500.936	1	2
501.106	1	2
501.277	1	8
501.447	1	6
501.617	1	4
501.787	1	0
501.958	1	9
502.128	1	-1
502.298	1	8
502.468	1	4
502.638	1	-1
502.809	1	8
502.979	1	-3
503.149	1	-2
503.319	1	1
503.489	1	6
503.660	1	9
503.830	1	-4
504.000	1	18
504.170	1	3
504.340	1	10
504.511	1	9
504.681	1	1
504.851	1	4
505.021	1	4
505.192	1	-1
505.362	1	11
505.532	1	0
505.702	1	1
505.872	1	6
506.043	1	8
506.213	1	4
506.383	1	8
506.553	1	6
506.723	1	9
506.893	1	5
507.064	1	5
507.234	1	-1
507.404	1	-2
507.574	1	4
507.744	1	2
507.915	1	3
508.085	1	16
508.255	1	10
508.425	1	3
508.595	1	4
508.766	1	-3
508.936	1	-6
509.106	1	10
509.276	1	8
509.446	1	5
509.616	1	5
509.787	1	9
509.957	1	8
510.127	1	6
510.297	1	3
510.467	1	-11
510.638	1	4
510.808	1	-7
510.978	1	-5
511.148	1	13
511.318	1	11
511.488	1	-9
511.659	1	4
511.829	1	-6
511.999	1	3
512.169	1	8
512.339	1	1
512.509	1	4
512.680	1	-2
512.850	1	10
513.020	1	5
513.190	1	7
513.360	1	-3
513.530	1	1
513.700	1	8
513.871	1	3
514.041	1	-1
514.211	1	9
514.381	1	13
514.551	1	-1
514.721	1	3
514.892	1	0
515.062	1	13
515.232	1	5
515.402	1	-1
515.572	1	-9
515.742	1	9
515.912	1	10
516.083	1	2
516.253	1	6
516.423	1	1
516.593	1	10
516.763	1	16
516.933	1	6
517.104	1	11
517.274	1	-4
517.444	1	9
517.614	1	-6
517.784	1	10
517.954	1	6
518.124	1	2
518.294	1	-5
518.465	1	5
518.635	1	6
518.805	1	-8
518.975	1	2
519.145	1	3
519.315	1	2
519.485	1	-2
519.656	1	8
519.826	1	3
519.996	1	-1
520.166	1	5
520.336	1	10
520.506	1	1
520.676	1	-10
520.846	1	8
521.017	1	7
521.187	1	-8
521.357	1	15
521.527	1	4
521.697	1	11
521.867	1	-3
522.037	1	13
522.207	1	11
522.377	1	4
522.548	1	7
522.718	1	4
522.888	1	12
523.058	1	9
523.228	1	6
523.398	1	3
523.568	1	7
523.738	1	2
523.909	1	19
524.079	1	-3
524.249	1	5
524.419	1	-3
524.589	1	2
524.759	1	5
524.929	1	-2
525.099	1	6
525.269	1	7
525.439	1	3
525.610	1	10
525.780	1	1
525.950	1	7
526.120	1	1
526.290	1	7
526.460	1	-5
526.630	1	11
526.800	1	3
526.970	1	-2
527.140	1	6
527.311	1	-4
527.481	1	2
527.651	1	12
527.821	1	1
527.991	1	18
528.161	1	9
528.331	1	2
528.501	1	-1
528.671	1	0
528.841	1	-2
529.011	1	3
529.181	1	7
529.352	1	4
529.522	1	1
529.692	1	10
529.862	1	1
530.032	1	0
530.202	1	-2
530.372	1	12
530.542	1	6
530.712	1	-2
530.882	1	10
531.052	1	7
531.222	1	-5
531.392	1	1
531.563	1	18
531.733	1	0
531.903	1	-6
532.073	1	8
532.243	1	6
532.413	1	-12
532.583	1	6
532.753	1	1
532.923	1	-5
533.093	1	4
533.263	1	4
533.433	1	11
533.603	1	2
533.773	1	2
533.943	1	3
534.113	1	3
534.284	1	6
534.454	1	4
534.624	1	17
534.794	1	-8
534.964	1	12
535.134	1	1
535.304	1	-2
535.474	1	5
535.644	1	1
535.814	1	-2
535.984	1	-7
536.154	1	-5
536.324	1	-1
536.494	1	6
536.664	1	6
536.834	1	8
537.004	1	6
537.174	1	10
537.344	1	1
537.514	1	-2
537.685	1	3
537.855	1	8
538.025	1	5
538.195	1	-3
538.365	1	12
538.535	1	2
538.705	1	4
538.875	1	10
539.045	1	-1
539.215	1	10
539.385	1	5
539.555	1	7
539.725	1	8
539.895	1	-4
540.065	1	17
540.235	1	1
540.405	1	-1
540.575	1	9
540.745	1	6
540.915	1	2
541.085	1	3
541.255	1	-8
541.425	1	3
541.595	1	0
541.765	1	8
541.935	1	3
542.105	1	2
542.275	1	-6
542.445	1	-1
542.615	1	2
542.785	1	13
542.955	1	-3
543.125	1	-6
543.295	1	-1
543.465	1	7
543.635	1	15
543.805	1	12
543.975	1	2
544.145	1	8
544.315	1	2
544.485	1	9
544.655	1	2
544.825	1	-8
544.995	1	2
545.165	1	2
545.335	1	5
545.505	1	-1
545.675	1	0
545.845	1	6
546.015	1	0
546.185	1	7
546.355	1	2
546.525	1	6
546.695	1	4
546.865	1	5
547.035	1	4
547.205	1	-5
547.375	1	6
547.545	1	7
547.715	1	-5
547.885	1	5
548.055	1	2
548.225	1	0
548.395	1	-1
548.565	1	2
548.735	1	3
548.905	1	6
549.075	1	8
549.245	1	0
549.415	1	-3
549.585	1	8
549.755	1	3
549.925	1	-6
550.095	1	8
550.265	1	-1
550.435	1	-5
550.605	1	-1
550.775	1	8
550.945	1	8
551.115	1	3
551.285	1	12
551.455	1	3
551.625	1	3
551.795	1	8
551.965	1	3
552.135	1	6
552.305	1	-3
552.475	1	-11
552.645	1	0
552.815	1	2
552.985	1	4
553.155	1	13
553.325	1	9
553.495	1	-4
553.665	1	-10
553.835	1	-4
554.004	1	12
554.174	1	2
554.344	1	9
554.514	1	3
554.684	1	4
554.854	1	4
555.024	1	-9
555.194	1	-3
555.364	1	3
555.534	1	0
555.704	1	10
555.874	1	10
556.044	1	9
556.214	1	-9
556.384	1	-8
556.554	1	6
556.724	1	0
556.894	1	2
557.064	1	9
557.234	1	-7
557.404	1	9
557.573	1	10
557.743	1	-8
557.913	1	-6
558.083	1	2
558.253	1	9
558.423	1	9
558.593	1	12
558.763	1	-6
558.933	1	1
559.103	1	9
559.273	1	1
559.443	1	6
559.613	1	4
559.783	1	4
559.953	1	0
560.122	1	7
560.292	1	4
560.462	1	2
560.632	1	7
560.802	1	4
560.972	1	0
561.142	1	3
561.312	1	-13
561.482	1	0
561.652	1	5
561.822	1	-4
561.992	1	-9
562.162	1	1
562.331	1	3
562.501	1	-10
562.671	1	9
562.841	1	-4
563.011	1	0
563.181	1	-7
563.351	1	-9
563.521	1	6
563.691	1	-8
563.861	1	6
564.031	1	13
564.201	1	14
564.370	1	-4
564.540	1	4
564.710	1	-3
564.880	1	3
565.050	1	9
565.220	1	-5
565.390	1	8
565.560	1	1
565.730	1	2
565.900	1	-1
566.069	1	5
566.239	1	-8
566.409	1	5
566.579	1	6
566.749	1	-1
566.919	1	10
567.089	1	2
567.259	1	4
567.429	1	2
567.599	1	1
567.768	1	-1
567.938	1	0
568.108	1	10
568.278	1	-2
568.448	1	2
568.618	1	-7
568.788	1	3
568.958	1	-1
569.128	1	5
569.297	1	-4
569.467	1	-5
569.637	1	10
569.807	1	6
569.977	1	12
570.147	1	7
570.317	1	0
570.487	1	4
570.656	1	17
570.826	1	-3
570.996	1	-2
571.166	1	8
571.336	1	-4
571.506	1	7
571.676	1	-4
571.846	1	14
572.015	1	4
572.185	1	-1
572.355	1	-3
572.525	1	6
572.695	1	4
572.865	1	-11
573.035	1	1
573.205	1	13
573.374	1	0
573.544	1	8
573.714	1	5
573.884	1	7
574.054	1	-3
574.224	1	1
574.394	1	-1
574.563	1	-1
574.733	1	4
574.903	1	0
575.073	1	0
575.243	1	4
575.413	1	6
575.583	1	-1
575.752	1	-1
575.922	1	5
576.092	1	7
576.262	1	-1
576.432	1	5
576.602	1	5
576.772	1	9
576.941	1	5
577.111	1	0
577.281	1	-6
577.451	1	-4
577.621	1	4
577.791	1	7
577.960	1	-7
578.130	1	5
578.300	1	11
578.470	1	16
578.640	1	0
578.810	1	-6
578.979	1	3
579.149	1	2
579.319	1	-11
579.489	1	-7
579.659	1	8
579.829	1	-1
579.998	1	8
580.168	1	16
580.338	1	3
580.508	1	12
580.678	1	2
580.848	1	-5
581.017	1	-2
581.187	1	-1
581.357	1	-12
581.527	1	17
581.697	1	9
581.867	1	10
582.036	1	-1
582.206	1	3
582.376	1	17
582.546	1	-5
582.716	1	4
582.885	1	3
583.055	1	3
583.225	1	-11
583.395	1	11
583.565	1	-4
583.735	1	15
583.904	1	-5
584.074	1	7
584.244	1	7
584.414	1	-2
584.584	1	-3
584.753	1	-3
584.923	1	-3
585.093	1	-4
585.263	1	-1
585.433	1	5
585.602	1	-8
585.772	1	-5
585.942	1	-7
586.112	1	8
586.282	1	-5
586.451	1	-7
586.621	1	-1
586.791	1	3
586.961	1	-3
587.131	1	2
587.300	1	2
587.470	1	4
587.640	1	20
587.810	1	-2
587.980	1	-2
588.149	1	-2
588.319	1	2
588.489	1	3
588.659	1	-7
588.829	1	1
588.998	1	18
589.168	1	0
589.338	1	2
589.508	1	1
589.677	1	-5
589.847	1	-5
590.017	1	22
590.187	1	-2
590.357	1	4
590.526	1	10
590.696	1	10
590.866	1	10
591.036	1	4
591.205	1	13
591.375	1	-6
591.545	1	0
591.715	1	8
591.885	1	-4
592.054	1	6
592.224	1	1
592.394	1	0
592.564	1	13
592.733	1	7
592.903	1	1
593.073	1	5
593.243	1	0
593.412	1	15
593.582	1	9
593.752	1	-4
593.922	1	0
594.091	1	3
594.261	1	1
594.431	1	8
594.601	1	8
594.771	1	-3
594.940	1	-3
595.110	1	1
595.280	1	1
595.450	1	3
595.619	1	-5
595.789	1	4
595.959	1	4
596.129	1	1
596.298	1	-4
596.468	1	5
596.638	1	1
596.808	1	4
596.977	1	4
597.147	1	4
597.317	1	-8
597.487	1	-2
597.656	1	0
597.826	1	1
597.996	1	-5
598.166	1	2
598.335	1	-5
598.505	1	-2
598.675	1	-3
598.844	1	-2
599.014	1	3
599.184	1	6
599.354	1	-4
599.523	1	9
599.693	1	6
599.863	1	2
600.033	1	-3
600.202	1	-3
600.372	1	3
600.542	1	0
600.712	1	-1
600.881	1	1
601.051	1	17
601.221	1	10
601.390	1	-5
601.560	1	4
601.730	1	8
601.900	1	7
602.069	1	9
602.239	1	-1
602.409	1	-12
602.578	1	4
602.748	1	3
602.918	1	12
603.088	1	7
603.257	1	5
603.427	1	-2
603.597	1	0
603.767	1	6
603.936	1	5
604.106	1	2
604.276	1	0
604.445	1	5
604.615	1	-4
604.785	1	-1
604.954	1	3
605.124	1	-2
605.294	1	-2
605.464	1	-2
605.633	1	7
605.803	1	1
605.973	1	6
606.142	1	0
606.312	1	1
606.482	1	0
606.652	1	5
606.821	1	-2
606.991	1	2
607.161	1	-5
607.330	1	9
607.500	1	1
607.670	1	-6
607.839	1	5
608.009	1	14
608.179	1	3
608.348	1	-1
608.518	1	2
608.688	1	11
608.858	1	0
609.027	1	-8
609.197	1	1
609.367	1	15
609.536	1	3
609.706	1	0
609.876	1	-4
610.045	1	1
610.215	1	4
610.385	1	-1
610.554	1	5
610.724	1	3
610.894	1	11
611.063	1	-6
611.233	1	-1
611.403	1	2
611.572	1	-1
611.742	1	6
611.912	1	4
612.081	1	-9
612.251	1	2
612.421	1	-1
612.590	1	-1
612.760	1	6
612.930	1	0
613.099	1	0
613.269	1	9
613.439	1	2
613.608	1	-4
613.778	1	4
613.948	1	-9
614.117	1	12
614.287	1	11
614.457	1	11
614.626	1	-1
614.796	1	8
614.966	1	7
615.135	1	2
615.305	1	6
615.475	1	1
615.644	1	7
615.814	1	7
615.984	1	2
616.153	1	1
616.323	1	2
616.493	1	2
616.662	1	6
616.832	1	1
617.002	1	-1
617.171	1	13
617.341	1	-1
617.511	1	-11
617.680	1	-4
617.850	1	5
618.019	1	8
618.189	1	14
618.359	1	12
618.528	1	3
618.698	1	0
618.868	1	-6
619.037	1	7
619.207	1	4
619.377	1	-7
619.546	1	3
619.716	1	4
619.885	1	0
620.055	1	-4
620.225	1	8
620.394	1	-3
620.564	1	11
620.734	1	4
620.903	1	-8
621.073	1	9
621.242	1	2
621.412	1	2
621.582	1	-3
621.751	1	10
621.921	1	-2
622.091	1	0
622.260	1	0
622.430	1	17
622.599	1	0
622.769	1	-6
622.939	1	4
623.108	1	3
623.278	1	-7
623.448	1	-1
623.617	1	-7
623.787	1	4
623.956	1	17
624.126	1	-4
624.296	1	3
624.465	1	13
624.635	1	9
624.804	1	-1
624.974	1	5
625.144	1	14
625.313	1	4
625.483	1	-8
625.652	1	3
625.822	1	-5
625.992	1	-2
626.161	1	10
626.331	1	2
626.501	1	6
626.670	1	3
626.840	1	5
627.009	1	-8
627.179	1	8
627.348	1	12
627.518	1	-3
627.688	1	2
627.857	1	15
628.027	1	-1
628.196	1	6
628.366	1	5
628.536	1	-1
628.705	1	-3
628.875	1	4
629.044	1	-5
629.214	1	10
629.384	1	-1
629.553	1	17
629.723	1	-5
629.892	1	4
630.062	1	6
630.232	1	5
630.401	1	9
630.571	1	3
630.740	1	-1
630.910	1	5
631.079	1	1
631.249	1	9
631.419	1	5
631.588	1	0
631.758	1	13
631.927	1	-3
632.097	1	1
632.266	1	7
632.436	1	8
632.606	1	-2
632.775	1	8
632.945	1	1
633.114	1	6
633.284	1	3
633.453	1	9
633.623	1	3
633.793	1	17
633.962	1	1
634.132	1	7
634.301	1	3
634.471	1	6
634.640	1	12
634.810	1	6
634.979	1	5
635.149	1	1
635.319	1	5
635.488	1	9
635.658	1	0
635.827	1	-1
635.997	1	-7
636.166	1	12
636.336	1	0
636.505	1	10
636.675	1	-6
636.845	1	6
637.014	1	4
637.184	1	-2
637.353	1	10
637.523	1	8
637.692	1	-4
637.862	1	9
638.031	1	8
638.201	1	13
638.370	1	3
638.540	1	1
638.710	1	5
638.879	1	-12
639.049	1	2
639.218	1	4
639.388	1	-10
639.557	1	-1
639.727	1	3
639.896	1	3
640.066	1	1
640.235	1	-2
640.405	1	9
640.574	1	2
640.744	1	-6
640.914	1	4
641.083	1	2
641.253	1	12
641.422	1	-2
641.592	1	11
641.761	1	1
641.931	1	0
642.100	1	10
642.270	1	-1
642.439	1	11
642.609	1	11
642.778	1	8
642.948	1	-3
643.117	1	12
643.287	1	6
643.456	1	1
643.626	1	10
643.795	1	6
643.965	1	4
644.134	1	0
644.304	1	4
644.473	1	-2
644.643	1	1
644.812	1	3
644.982	1	3
645.151	1	5
645.321	1	3
645.490	1	10
645.660	1	0
645.829	1	-4
645.999	1	8
646.168	1	4
646.338	1	11
646.507	1	5
646.677	1	3
646.846	1	-2
647.016	1	-9
647.185	1	15
647.355	1	-4
647.524	1	8
647.694	1	7
647.863	1	8
648.033	1	5
648.202	1	16
648.372	1	-13
648.541	1	3
648.711	1	5
648.880	1	-3
649.050	1	4
649.219	1	3
649.389	1	5
649.558	1	4
649.728	1	13
649.897	1	0
650.067	1	2
650.236	1	5
650.406	1	2
650.575	1	5
650.745	1	11
650.914	1	1
651.084	1	-5
651.253	1	9
651.423	1	4
651.592	1	6
651.762	1	0
651.931	1	16
652.101	1	2
652.270	1	1
652.440	1	14
652.609	1	-6
652.778	1	-2
652.948	1	2
653.117	1	3
653.287	1	7
653.456	1	6
653.626	1	13
653.795	1	-3
653.965	1	4
654.134	1	0
654.304	1	-15
654.473	1	11
654.643	1	4
654.812	1	3
654.982	1	13
655.151	1	2
655.320	1	2
655.490	1	-2
655.659	1	10
655.829	1	0
655.998	1	2
656.168	1	5
656.337	1	1
656.507	1	4
656.676	1	4
656.846	1	16
657.015	1	13
657.184	1	10
657.354	1	6
657.523	1	7
657.693	1	16
657.862	1	6
658.032	1	0
658.201	1	2
658.371	1	9
658.540	1	6
658.709	1	6
658.879	1	11
659.048	1	-5
659.218	1	0
659.387	1	10
659.557	1	0
659.726	1	3
659.895	1	-7
660.065	1	3
660.234	1	4
660.404	1	8
660.573	1	-5
660.743	1	10
660.912	1	2
661.081	1	9
661.251	1	-7
661.420	1	5
661.590	1	9
661.759	1	10
661.929	1	4
662.098	1	14
662.267	1	-5
662.437	1	3
662.606	1	-4
662.776	1	1
662.945	1	9
663.115	1	3
663.284	1	2
663.453	1	2
663.623	1	5
663.792	1	5
663.962	1	-1
664.131	1	8
664.300	1	11
664.470	1	4
664.639	1	4
664.809	1	2
664.978	1	11
665.148	1	8
665.317	1	7
665.486	1	5
665.656	1	-3
665.825	1	4
665.995	1	-1
666.164	1	-2
666.333	1	5
666.503	1	10
666.672	1	6
666.842	1	10
667.011	1	2
667.180	1	10
667.350	1	1
667.519	1	-1
667.689	1	10
667.858	1	11
668.027	1	13
668.197	1	-6
668.366	1	-4
668.536	1	-1
668.705	1	4
668.874	1	-3
669.044	1	5
669.213	1	7
669.382	1	-4
669.552	1	12
669.721	1	5
669.891	1	8
670.060	1	1
670.229	1	18
670.399	1	-3
670.568	1	6
670.738	1	20
670.907	1	-9
671.076	1	0
671.246	1	3
671.415	1	0
671.584	1	-5
671.754	1	0
671.923	1	6
672.093	1	3
672.262	1	-6
672.431	1	10
672.601	1	2
672.770	1	-11
672.939	1	3
673.109	1	-2
673.278	1	3
673.448	1	8
673.617	1	2
673.786	1	6
