325.333	1	14
325.504	1	8
325.675	1	17
325.846	1	6
326.017	1	12
326.188	1	9
326.359	1	6
326.531	1	-1
326.702	1	9
326.873	1	13
327.044	1	16
327.215	1	16
327.386	1	20
327.557	1	3
327.728	1	2
327.899	1	8
328.070	1	16
328.241	1	13
328.412	1	-1
328.583	1	16
328.754	1	14
328.926	1	29
329.097	1	0
329.268	1	18
329.439	1	1
329.610	1	15
329.781	1	6
329.952	1	14
330.123	1	7
330.294	1	14
330.465	1	15
330.636	1	15
330.807	1	13
330.978	1	10
331.149	1	6
331.320	1	12
331.492	1	11
331.663	1	12
331.834	1	24
332.005	1	5
332.176	1	16
332.347	1	21
332.518	1	-3
332.689	1	13
332.860	1	9
333.031	1	14
333.202	1	5
333.373	1	15
333.544	1	12
333.715	1	15
333.886	1	0
334.057	1	20
334.228	1	7
334.399	1	17
334.570	1	26
334.741	1	10
334.912	1	18
335.084	1	26
335.255	1	11
335.426	1	16
335.597	1	16
335.768	1	12
335.939	1	24
336.110	1	14
336.281	1	8
336.452	1	12
336.623	1	17
336.794	1	24
336.965	1	13
337.136	1	18
337.307	1	9
337.478	1	11
337.649	1	15
337.820	1	14
337.991	1	11
338.162	1	21
338.333	1	23
338.504	1	16
338.675	1	25
338.846	1	17
339.017	1	18
339.188	1	11
339.359	1	4
339.530	1	9
339.701	1	21
339.872	1	28
340.043	1	5
340.214	1	8
340.385	1	26
340.556	1	13
340.727	1	16
340.898	1	24
341.069	1	14
341.240	1	5
341.411	1	9
341.582	1	25
341.753	1	0
341.924	1	22
342.095	1	12
342.266	1	24
342.437	1	25
342.608	1	5
342.779	1	27
342.950	1	14
343.121	1	29
343.292	1	16
343.463	1	9
343.634	1	21
343.805	1	33
343.976	1	23
344.147	1	22
344.318	1	22
344.489	1	21
344.660	1	23
344.831	1	14
345.002	1	16
345.173	1	22
345.344	1	25
345.515	1	20
345.686	1	21
345.857	1	26
346.028	1	20
346.199	1	18
346.370	1	19
346.541	1	23
346.712	1	13
346.883	1	27
347.054	1	19
347.225	1	22
347.396	1	17
347.567	1	20
347.738	1	12
347.909	1	33
348.080	1	19
348.251	1	32
348.422	1	34
348.593	1	17
348.764	1	20
348.935	1	34
349.106	1	13
349.277	1	20
349.448	1	32
349.619	1	21
349.790	1	28
349.961	1	33
350.132	1	34
350.303	1	28
350.474	1	41
350.645	1	34
350.816	1	18
350.987	1	37
351.157	1	25
351.328	1	29
351.499	1	39
351.670	1	24
351.841	1	32
352.012	1	30
352.183	1	22
352.354	1	42
352.525	1	35
352.696	1	30
352.867	1	30
353.038	1	30
353.209	1	27
353.380	1	29
353.551	1	17
353.722	1	29
353.893	1	35
354.064	1	38
354.235	1	42
354.406	1	24
354.576	1	35
354.747	1	39
354.918	1	30
355.089	1	32
355.260	1	35
355.431	1	35
355.602	1	31
355.773	1	37
355.944	1	46
356.115	1	38
356.286	1	38
356.457	1	40
356.628	1	42
356.799	1	34
356.970	1	46
357.141	1	34
357.311	1	32
357.482	1	37
357.653	1	46
357.824	1	51
357.995	1	36
358.166	1	21
358.337	1	35
358.508	1	55
358.679	1	23
358.850	1	43
359.021	1	30
359.192	1	36
359.363	1	23
359.533	1	44
359.704	1	37
359.875	1	35
360.046	1	38
360.217	1	36
360.388	1	35
360.559	1	30
360.730	1	42
360.901	1	36
361.072	1	52
361.243	1	39
361.414	1	34
361.584	1	29
361.755	1	44
361.926	1	31
362.097	1	39
362.268	1	40
362.439	1	29
362.610	1	45
362.781	1	39
362.952	1	30
363.123	1	41
363.293	1	33
363.464	1	45
363.635	1	40
363.806	1	43
363.977	1	48
364.148	1	40
364.319	1	38
364.490	1	44
364.661	1	34
364.832	1	38
365.002	1	40
365.173	1	44
365.344	1	47
365.515	1	38
365.686	1	34
365.857	1	47
366.028	1	42
366.199	1	37
366.370	1	37
366.540	1	33
366.711	1	36
366.882	1	48
367.053	1	37
367.224	1	52
367.395	1	46
367.566	1	46
367.737	1	40
367.908	1	48
368.078	1	38
368.249	1	43
368.420	1	42
368.591	1	34
368.762	1	42
368.933	1	36
369.104	1	33
369.274	1	44
369.445	1	50
369.616	1	42
369.787	1	37
369.958	1	51
370.129	1	34
370.300	1	61
370.471	1	34
370.641	1	46
370.812	1	42
370.983	1	41
371.154	1	37
371.325	1	46
371.496	1	45
371.667	1	51
371.837	1	33
372.008	1	35
372.179	1	34
372.350	1	59
372.521	1	40
372.692	1	51
372.863	1	44
373.033	1	31
373.204	1	39
373.375	1	50
373.546	1	46
373.717	1	39
373.888	1	52
374.059	1	40
374.229	1	52
374.400	1	39
374.571	1	51
374.742	1	51
374.913	1	43
375.084	1	39
375.254	1	51
375.425	1	46
375.596	1	43
375.767	1	44
375.938	1	49
376.109	1	50
376.279	1	35
376.450	1	59
376.621	1	48
376.792	1	45
376.963	1	54
377.134	1	47
377.304	1	43
377.475	1	41
377.646	1	47
377.817	1	43
377.988	1	36
378.159	1	51
378.329	1	61
378.500	1	50
378.671	1	51
378.842	1	41
379.013	1	44
379.184	1	39
379.354	1	48
379.525	1	51
379.696	1	54
379.867	1	56
380.038	1	50
380.209	1	55
380.379	1	46
380.550	1	40
380.721	1	51
380.892	1	56
381.063	1	54
381.233	1	51
381.404	1	53
381.575	1	51
381.746	1	54
381.917	1	51
382.087	1	45
382.258	1	49
382.429	1	52
382.600	1	55
382.771	1	54
382.941	1	51
383.112	1	52
383.283	1	46
383.454	1	52
383.625	1	53
383.795	1	44
383.966	1	55
384.137	1	61
384.308	1	56
384.479	1	55
384.649	1	59
384.820	1	54
384.991	1	46
385.162	1	50
385.333	1	51
385.503	1	53
385.674	1	44
385.845	1	59
386.016	1	61
386.187	1	40
386.357	1	57
386.528	1	58
386.699	1	55
386.870	1	59
387.041	1	57
387.211	1	61
387.382	1	56
387.553	1	52
387.724	1	44
387.894	1	63
388.065	1	66
388.236	1	58
388.407	1	54
388.578	1	56
388.748	1	44
388.919	1	63
389.090	1	55
389.261	1	54
389.431	1	59
389.602	1	51
389.773	1	59
389.944	1	53
390.114	1	58
390.285	1	63
390.456	1	59
390.627	1	50
390.798	1	61
390.968	1	56
391.139	1	62
391.310	1	54
391.481	1	70
391.651	1	57
391.822	1	51
391.993	1	51
392.164	1	52
392.334	1	57
392.505	1	57
392.676	1	67
392.847	1	65
393.017	1	71
393.188	1	59
393.359	1	56
393.530	1	55
393.700	1	57
393.871	1	50
394.042	1	59
394.213	1	44
394.383	1	58
394.554	1	48
394.725	1	64
394.896	1	57
395.066	1	64
395.237	1	58
395.408	1	55
395.579	1	47
395.749	1	57
395.920	1	59
396.091	1	70
396.262	1	62
396.432	1	68
396.603	1	62
396.774	1	68
396.945	1	67
397.115	1	57
397.286	1	61
397.457	1	62
397.627	1	61
397.798	1	68
397.969	1	56
398.140	1	53
398.310	1	58
398.481	1	70
398.652	1	58
398.823	1	54
398.993	1	61
399.164	1	60
399.335	1	69
399.505	1	60
399.676	1	56
399.847	1	70
400.018	1	61
400.188	1	78
400.359	1	65
400.530	1	48
400.700	1	63
400.871	1	57
401.042	1	57
401.213	1	66
401.383	1	69
401.554	1	73
401.725	1	74
401.895	1	63
402.066	1	65
402.237	1	63
402.408	1	64
402.578	1	65
402.749	1	60
402.920	1	66
403.090	1	54
403.261	1	62
403.432	1	60
403.603	1	72
403.773	1	80
403.944	1	73
404.115	1	65
404.285	1	65
404.456	1	63
404.627	1	65
404.797	1	54
404.968	1	64
405.139	1	60
405.310	1	70
405.480	1	58
405.651	1	64
405.822	1	56
405.992	1	50
406.163	1	68
406.334	1	55
406.504	1	61
406.675	1	74
406.846	1	68
407.016	1	70
407.187	1	72
407.358	1	61
407.528	1	58
407.699	1	64
407.870	1	61
408.041	1	67
408.211	1	77
408.382	1	72
408.553	1	57
408.723	1	69
408.894	1	69
409.065	1	66
409.235	1	74
409.406	1	76
409.577	1	59
409.747	1	71
409.918	1	66
410.089	1	80
410.259	1	72
410.430	1	66
410.601	1	74
410.771	1	61
410.942	1	72
411.113	1	64
411.283	1	60
411.454	1	62
411.625	1	69
411.795	1	72
411.966	1	75
412.137	1	71
412.307	1	60
412.478	1	63
412.649	1	72
412.819	1	59
412.990	1	63
413.161	1	66
413.331	1	54
413.502	1	72
413.672	1	65
413.843	1	60
414.014	1	73
414.184	1	80
414.355	1	64
414.526	1	59
414.696	1	77
414.867	1	72
415.038	1	48
415.208	1	63
415.379	1	66
415.550	1	65
415.720	1	64
415.891	1	60
416.062	1	63
416.232	1	59
416.403	1	67
416.573	1	80
416.744	1	60
416.915	1	71
417.085	1	63
417.256	1	60
417.427	1	60
417.597	1	71
417.768	1	55
417.939	1	61
418.109	1	62
418.280	1	59
418.450	1	59
418.621	1	47
418.792	1	71
418.962	1	63
419.133	1	66
419.304	1	71
419.474	1	57
419.645	1	66
419.815	1	64
419.986	1	65
420.157	1	74
420.327	1	56
420.498	1	82
420.669	1	57
420.839	1	69
421.010	1	69
421.180	1	70
421.351	1	72
421.522	1	77
421.692	1	64
421.863	1	58
422.033	1	80
422.204	1	68
422.375	1	58
422.545	1	71
422.716	1	68
422.886	1	57
423.057	1	65
423.228	1	58
423.398	1	72
423.569	1	61
423.740	1	55
423.910	1	46
424.081	1	62
424.251	1	57
424.422	1	63
424.593	1	62
424.763	1	58
424.934	1	63
425.104	1	58
425.275	1	66
425.445	1	71
425.616	1	53
425.787	1	54
425.957	1	61
426.128	1	61
426.298	1	67
426.469	1	46
426.640	1	53
426.810	1	57
426.981	1	59
427.151	1	61
427.322	1	61
427.493	1	60
427.663	1	61
427.834	1	59
428.004	1	54
428.175	1	62
428.345	1	62
428.516	1	48
428.687	1	53
428.857	1	46
429.028	1	56
429.198	1	68
429.369	1	60
429.540	1	57
429.710	1	52
429.881	1	60
430.051	1	55
430.222	1	55
430.392	1	58
430.563	1	71
430.734	1	65
430.904	1	60
431.075	1	66
431.245	1	48
431.416	1	61
431.586	1	56
431.757	1	66
431.927	1	55
432.098	1	51
432.269	1	50
432.439	1	67
432.610	1	58
432.780	1	60
432.951	1	62
433.121	1	53
433.292	1	63
433.462	1	65
433.633	1	61
433.804	1	60
433.974	1	66
434.145	1	61
434.315	1	47
434.486	1	46
434.656	1	65
434.827	1	52
434.997	1	57
435.168	1	57
435.339	1	65
435.509	1	53
435.680	1	59
435.850	1	57
436.021	1	66
436.191	1	45
436.362	1	60
436.532	1	53
436.703	1	57
436.873	1	63
437.044	1	47
437.214	1	46
437.385	1	53
437.556	1	50
437.726	1	69
437.897	1	57
438.067	1	63
438.238	1	54
438.408	1	72
438.579	1	58
438.749	1	53
438.920	1	48
439.090	1	44
439.261	1	49
439.431	1	50
439.602	1	58
439.772	1	48
439.943	1	66
440.113	1	58
440.284	1	56
440.455	1	54
440.625	1	51
440.796	1	45
440.966	1	53
441.137	1	50
441.307	1	41
441.478	1	57
441.648	1	54
441.819	1	49
441.989	1	56
442.160	1	54
442.330	1	56
442.501	1	51
442.671	1	49
442.842	1	37
443.012	1	44
443.183	1	61
443.353	1	46
443.524	1	59
443.694	1	62
443.865	1	48
444.035	1	45
444.206	1	45
444.376	1	48
444.547	1	52
444.717	1	56
444.888	1	55
445.058	1	59
445.229	1	50
445.399	1	53
445.570	1	62
445.740	1	43
445.911	1	52
446.081	1	49
446.252	1	56
446.422	1	41
446.593	1	47
446.763	1	53
446.934	1	45
447.104	1	45
447.275	1	49
447.445	1	46
447.616	1	54
447.786	1	40
447.957	1	56
448.127	1	54
448.298	1	47
448.468	1	47
448.639	1	40
448.809	1	50
448.979	1	39
449.150	1	53
449.320	1	43
449.491	1	55
449.661	1	35
449.832	1	46
450.002	1	54
450.173	1	37
450.343	1	49
450.514	1	54
450.684	1	47
450.855	1	37
451.025	1	48
451.196	1	53
451.366	1	54
451.537	1	34
451.707	1	37
451.878	1	44
452.048	1	50
452.218	1	51
452.389	1	45
452.559	1	42
452.730	1	56
452.900	1	51
453.071	1	36
453.241	1	49
453.412	1	43
453.582	1	41
453.753	1	51
453.923	1	33
454.093	1	48
454.264	1	57
454.434	1	38
454.605	1	51
454.775	1	37
454.946	1	37
455.116	1	45
455.287	1	34
455.457	1	37
455.628	1	39
455.798	1	48
455.968	1	44
456.139	1	41
456.309	1	52
456.480	1	48
456.650	1	37
456.821	1	36
456.991	1	36
457.161	1	42
457.332	1	38
457.502	1	36
457.673	1	40
457.843	1	43
458.014	1	44
458.184	1	47
458.355	1	41
458.525	1	40
458.695	1	49
458.866	1	43
459.036	1	41
459.207	1	44
459.377	1	33
459.548	1	51
459.718	1	29
459.888	1	41
460.059	1	44
460.229	1	46
460.400	1	52
460.570	1	41
460.740	1	37
460.911	1	39
461.081	1	39
461.252	1	34
461.422	1	48
461.593	1	45
461.763	1	37
461.933	1	49
462.104	1	41
462.274	1	42
462.445	1	49
462.615	1	50
462.785	1	35
462.956	1	39
463.126	1	50
463.297	1	31
463.467	1	35
463.638	1	42
463.808	1	32
463.978	1	26
464.149	1	32
464.319	1	35
464.490	1	54
464.660	1	29
464.830	1	44
465.001	1	43
465.171	1	47
465.342	1	39
465.512	1	33
465.682	1	29
465.853	1	42
466.023	1	34
466.194	1	37
466.364	1	39
466.534	1	40
466.705	1	39
466.875	1	38
467.045	1	37
467.216	1	47
467.386	1	31
467.557	1	32
467.727	1	36
467.897	1	35
468.068	1	30
468.238	1	30
468.409	1	34
468.579	1	39
468.749	1	38
468.920	1	28
469.090	1	35
469.260	1	28
469.431	1	31
469.601	1	42
469.772	1	30
469.942	1	31
470.112	1	29
470.283	1	27
470.453	1	38
470.623	1	26
470.794	1	17
470.964	1	48
471.135	1	34
471.305	1	27
471.475	1	36
471.646	1	34
471.816	1	20
471.986	1	24
472.157	1	35
472.327	1	30
472.497	1	31
472.668	1	22
472.838	1	33
473.009	1	34
473.179	1	17
473.349	1	37
473.520	1	40
473.690	1	34
473.860	1	28
474.031	1	35
474.201	1	33
474.371	1	28
474.542	1	34
474.712	1	33
474.882	1	38
475.053	1	41
475.223	1	19
475.394	1	39
475.564	1	29
475.734	1	26
475.905	1	42
476.075	1	28
476.245	1	36
476.416	1	44
476.586	1	29
476.756	1	26
476.927	1	38
477.097	1	23
477.267	1	16
477.438	1	40
477.608	1	27
477.778	1	29
477.949	1	38
478.119	1	32
478.289	1	27
478.460	1	32
478.630	1	28
478.800	1	25
478.971	1	26
479.141	1	28
479.311	1	16
479.482	1	27
479.652	1	29
479.822	1	18
479.993	1	30
480.163	1	38
480.333	1	23
480.504	1	31
480.674	1	33
480.844	1	15
481.015	1	28
481.185	1	22
481.355	1	40
481.525	1	25
481.696	1	30
481.866	1	31
482.036	1	22
482.207	1	31
482.377	1	36
482.547	1	33
482.718	1	30
482.888	1	25
483.058	1	24
483.229	1	33
483.399	1	20
483.569	1	30
483.740	1	33
483.910	1	24
484.080	1	27
484.250	1	17
484.421	1	27
484.591	1	30
484.761	1	32
484.932	1	27
485.102	1	30
485.272	1	31
485.443	1	34
485.613	1	14
485.783	1	17
485.953	1	20
486.124	1	23
486.294	1	21
486.464	1	22
486.635	1	27
486.805	1	29
486.975	1	19
487.146	1	23
487.316	1	10
487.486	1	22
487.656	1	12
487.827	1	28
487.997	1	10
488.167	1	25
488.338	1	23
488.508	1	14
488.678	1	14
488.848	1	33
489.019	1	15
489.189	1	16
489.359	1	14
489.529	1	22
489.700	1	23
489.870	1	32
490.040	1	19
490.211	1	17
490.381	1	24
490.551	1	17
490.721	1	33
490.892	1	18
491.062	1	17
491.232	1	24
491.402	1	25
491.573	1	18
491.743	1	22
491.913	1	15
492.084	1	27
492.254	1	24
492.424	1	23
492.594	1	25
492.765	1	15
492.935	1	19
493.105	1	16
493.275	1	21
493.446	1	27
493.616	1	31
493.786	1	22
493.956	1	23
494.127	1	17
494.297	1	16
494.467	1	20
494.637	1	16
494.808	1	16
494.978	1	16
495.148	1	13
495.318	1	16
495.489	1	33
495.659	1	30
495.829	1	27
495.999	1	8
496.170	1	20
496.340	1	30
496.510	1	17
496.680	1	22
496.851	1	11
497.021	1	16
497.191	1	20
497.361	1	18
497.532	1	13
497.702	1	17
497.872	1	19
498.042	1	26
498.213	1	20
498.383	1	16
498.553	1	18
498.723	1	12
498.894	1	26
499.064	1	19
499.234	1	20
499.404	1	11
499.574	1	28
499.745	1	25
499.915	1	14
500.085	1	20
500.255	1	19
500.426	1	11
500.596	1	18
500.766	1	7
500.936	1	10
501.106	1	13
501.277	1	20
501.447	1	17
501.617	1	23
501.787	1	14
501.958	1	8
502.128	1	15
502.298	1	13
502.468	1	26
502.638	1	20
502.809	1	12
502.979	1	2
503.149	1	13
503.319	1	11
503.489	1	21
503.660	1	22
503.830	1	15
504.000	1	29
504.170	1	19
504.340	1	4
504.511	1	17
504.681	1	6
504.851	1	27
505.021	1	14
505.192	1	9
505.362	1	23
505.532	1	22
505.702	1	19
505.872	1	17
506.043	1	9
506.213	1	3
506.383	1	14
506.553	1	21
506.723	1	20
506.893	1	10
507.064	1	22
507.234	1	15
507.404	1	9
507.574	1	16
507.744	1	10
507.915	1	10
508.085	1	20
508.255	1	17
508.425	1	12
508.595	1	19
508.766	1	31
508.936	1	7
509.106	1	29
509.276	1	29
509.446	1	11
509.616	1	16
509.787	1	7
509.957	1	16
510.127	1	13
510.297	1	17
510.467	1	-4
510.638	1	18
510.808	1	6
510.978	1	13
511.148	1	18
511.318	1	22
511.488	1	7
511.659	1	10
511.829	1	5
511.999	1	15
512.169	1	14
512.339	1	12
512.509	1	6
512.680	1	7
512.850	1	10
513.020	1	14
513.190	1	14
513.360	1	14
513.530	1	16
513.700	1	15
513.871	1	14
514.041	1	10
514.211	1	26
514.381	1	23
514.551	1	17
514.721	1	10
514.892	1	17
515.062	1	14
515.232	1	15
515.402	1	4
515.572	1	3
515.742	1	14
515.912	1	15
516.083	1	13
516.253	1	17
516.423	1	9
516.593	1	14
516.763	1	10
516.933	1	8
517.104	1	7
517.274	1	10
517.444	1	8
517.614	1	0
517.784	1	2
517.954	1	19
518.124	1	15
518.294	1	4
518.465	1	10
518.635	1	12
518.805	1	6
518.975	1	20
519.145	1	3
519.315	1	7
519.485	1	13
519.656	1	23
519.826	1	14
519.996	1	5
520.166	1	12
520.336	1	9
520.506	1	8
520.676	1	4
520.846	1	21
521.017	1	8
521.187	1	5
521.357	1	17
521.527	1	7
521.697	1	11
521.867	1	3
522.037	1	22
522.207	1	16
522.377	1	12
522.548	1	14
522.718	1	23
522.888	1	14
523.058	1	11
523.228	1	21
523.398	1	14
523.568	1	16
523.738	1	13
523.909	1	19
524.079	1	12
524.249	1	8
524.419	1	8
524.589	1	5
524.759	1	3
524.929	1	-6
525.099	1	15
525.269	1	10
525.439	1	15
525.610	1	23
525.780	1	4
525.950	1	18
526.120	1	11
526.290	1	20
526.460	1	3
526.630	1	21
526.800	1	-1
526.970	1	16
527.140	1	9
527.311	1	11
527.481	1	8
527.651	1	13
527.821	1	2
527.991	1	15
528.161	1	16
528.331	1	8
528.501	1	11
528.671	1	0
528.841	1	9
529.011	1	6
529.181	1	12
529.352	1	13
529.522	1	7
529.692	1	10
529.862	1	9
530.032	1	9
530.202	1	12
530.372	1	6
530.542	1	14
530.712	1	13
530.882	1	5
531.052	1	12
531.222	1	4
531.392	1	10
531.563	1	22
531.733	1	9
531.903	1	0
532.073	1	9
532.243	1	4
532.413	1	11
532.583	1	7
532.753	1	3
532.923	1	4
533.093	1	11
533.263	1	6
533.433	1	12
533.603	1	10
533.773	1	4
533.943	1	13
534.113	1	13
534.284	1	15
534.454	1	13
534.624	1	14
534.794	1	2
534.964	1	15
535.134	1	8
535.304	1	6
535.474	1	20
535.644	1	4
535.814	1	3
535.984	1	-2
536.154	1	2
536.324	1	8
536.494	1	13
536.664	1	13
536.834	1	11
537.004	1	13
537.174	1	17
537.344	1	13
537.514	1	-2
537.685	1	9
537.855	1	12
538.025	1	15
538.195	1	10
538.365	1	21
538.535	1	10
538.705	1	9
538.875	1	10
539.045	1	5
539.215	1	17
539.385	1	11
539.555	1	3
539.725	1	10
539.895	1	2
540.065	1	16
540.235	1	13
540.405	1	10
540.575	1	15
540.745	1	11
540.915	1	11
541.085	1	8
541.255	1	-8
541.425	1	6
541.595	1	2
541.765	1	13
541.935	1	5
542.105	1	-8
542.275	1	9
542.445	1	1
542.615	1	14
542.785	1	8
542.955	1	5
543.125	1	-8
543.295	1	10
543.465	1	12
543.635	1	8
543.805	1	18
543.975	1	9
544.145	1	11
544.315	1	8
544.485	1	11
544.655	1	13
544.825	1	-4
544.995	1	0
545.165	1	1
545.335	1	7
545.505	1	1
545.675	1	13
545.845	1	12
546.015	1	15
546.185	1	16
546.355	1	4
546.525	1	14
546.695	1	7
546.865	1	3
547.035	1	8
547.205	1	0
547.375	1	6
547.545	1	11
547.715	1	5
547.885	1	8
548.055	1	-3
548.225	1	11
548.395	1	8
548.565	1	13
548.735	1	0
548.905	1	2
549.075	1	9
549.245	1	-1
549.415	1	-3
549.585	1	7
549.755	1	13
549.925	1	2
550.095	1	7
550.265	1	-2
550.435	1	2
550.605	1	0
550.775	1	10
550.945	1	2
551.115	1	2
551.285	1	5
551.455	1	5
551.625	1	21
551.795	1	16
551.965	1	6
552.135	1	3
552.305	1	9
552.475	1	1
552.645	1	-4
552.815	1	4
552.985	1	11
553.155	1	12
553.325	1	11
553.495	1	7
553.665	1	3
553.835	1	-1
554.004	1	-1
554.174	1	4
554.344	1	7
554.514	1	7
554.684	1	11
554.854	1	6
555.024	1	3
555.194	1	-3
555.364	1	11
555.534	1	12
555.704	1	3
555.874	1	11
556.044	1	6
556.214	1	-4
556.384	1	-9
556.554	1	13
556.724	1	11
556.894	1	5
557.064	1	7
557.234	1	4
557.404	1	10
557.573	1	7
557.743	1	2
557.913	1	1
558.083	1	-3
558.253	1	6
558.423	1	5
558.593	1	11
558.763	1	7
558.933	1	8
559.103	1	11
559.273	1	9
559.443	1	-1
559.613	1	4
559.783	1	-6
559.953	1	15
560.122	1	22
560.292	1	3
560.462	1	6
560.632	1	14
560.802	1	12
560.972	1	1
561.142	1	6
561.312	1	-5
561.482	1	9
561.652	1	15
561.822	1	7
561.992	1	8
562.162	1	2
562.331	1	3
562.501	1	-2
562.671	1	10
562.841	1	1
563.011	1	14
563.181	1	0
563.351	1	-1
563.521	1	13
563.691	1	1
563.861	1	3
564.031	1	11
564.201	1	17
564.370	1	-4
564.540	1	7
564.710	1	9
564.880	1	15
565.050	1	12
565.220	1	9
565.390	1	8
565.560	1	12
565.730	1	4
565.900	1	7
566.069	1	17
566.239	1	4
566.409	1	12
566.579	1	4
566.749	1	4
566.919	1	3
567.089	1	8
567.259	1	3
567.429	1	7
567.599	1	12
567.768	1	11
567.938	1	3
568.108	1	8
568.278	1	1
568.448	1	2
568.618	1	10
568.788	1	10
568.958	1	7
569.128	1	8
569.297	1	-1
569.467	1	9
569.637	1	14
569.807	1	3
569.977	1	5
570.147	1	14
570.317	1	-1
570.487	1	9
570.656	1	6
570.826	1	4
570.996	1	-4
571.166	1	11
571.336	1	13
571.506	1	12
571.676	1	7
571.846	1	14
572.015	1	3
572.185	1	-4
572.355	1	11
572.525	1	0
572.695	1	11
572.865	1	0
573.035	1	2
573.205	1	5
573.374	1	-2
573.544	1	-3
573.714	1	16
573.884	1	5
574.054	1	4
574.224	1	3
574.394	1	3
574.563	1	6
574.733	1	9
574.903	1	-1
575.073	1	5
575.243	1	3
575.413	1	10
575.583	1	-4
575.752	1	12
575.922	1	5
576.092	1	3
576.262	1	7
576.432	1	5
576.602	1	6
576.772	1	8
576.941	1	4
577.111	1	-7
577.281	1	-3
577.451	1	8
577.621	1	1
577.791	1	14
577.960	1	-4
578.130	1	2
578.300	1	9
578.470	1	11
578.640	1	7
578.810	1	7
578.979	1	16
579.149	1	13
579.319	1	3
579.489	1	7
579.659	1	-1
579.829	1	0
579.998	1	13
580.168	1	14
580.338	1	8
580.508	1	3
580.678	1	4
580.848	1	3
581.017	1	-8
581.187	1	9
581.357	1	-4
581.527	1	4
581.697	1	10
581.867	1	17
582.036	1	4
582.206	1	0
582.376	1	1
582.546	1	3
582.716	1	1
582.885	1	4
583.055	1	2
583.225	1	-9
583.395	1	6
583.565	1	5
583.735	1	6
583.904	1	6
584.074	1	7
584.244	1	3
584.414	1	3
584.584	1	5
584.753	1	-1
584.923	1	6
585.093	1	3
585.263	1	7
585.433	1	4
585.602	1	2
585.772	1	-7
585.942	1	6
586.112	1	5
586.282	1	-5
586.451	1	-2
586.621	1	2
586.791	1	9
586.961	1	13
587.131	1	5
587.300	1	0
587.470	1	12
587.640	1	14
587.810	1	4
587.980	1	0
588.149	1	0
588.319	1	0
588.489	1	11
588.659	1	3
588.829	1	9
588.998	1	5
589.168	1	10
589.338	1	11
589.508	1	1
589.677	1	-6
589.847	1	-8
590.017	1	28
590.187	1	2
590.357	1	10
590.526	1	12
590.696	1	12
590.866	1	13
591.036	1	10
591.205	1	17
591.375	1	2
591.545	1	-1
591.715	1	4
591.885	1	-8
592.054	1	6
592.224	1	3
592.394	1	2
592.564	1	8
592.733	1	4
592.903	1	5
593.073	1	-8
593.243	1	4
593.412	1	16
593.582	1	-5
593.752	1	3
593.922	1	-3
594.091	1	-1
594.261	1	1
594.431	1	3
594.601	1	5
594.771	1	10
594.940	1	-1
595.110	1	2
595.280	1	5
595.450	1	4
595.619	1	3
595.789	1	10
595.959	1	14
596.129	1	-1
596.298	1	-1
596.468	1	10
596.638	1	13
596.808	1	1
596.977	1	4
597.147	1	2
597.317	1	0
597.487	1	13
597.656	1	3
597.826	1	8
597.996	1	4
598.166	1	6
598.335	1	-2
598.505	1	3
598.675	1	0
598.844	1	6
599.014	1	2
599.184	1	4
599.354	1	-11
599.523	1	3
599.693	1	-2
599.863	1	14
600.033	1	4
600.202	1	17
600.372	1	-1
600.542	1	8
600.712	1	5
600.881	1	4
601.051	1	15
601.221	1	9
601.390	1	-8
601.560	1	7
601.730	1	6
601.900	1	18
602.069	1	11
602.239	1	2
602.409	1	-3
602.578	1	4
602.748	1	0
602.918	1	7
603.088	1	-2
603.257	1	10
603.427	1	4
603.597	1	10
603.767	1	11
603.936	1	0
604.106	1	5
604.276	1	4
604.445	1	9
604.615	1	-1
604.785	1	2
604.954	1	1
605.124	1	7
605.294	1	5
605.464	1	3
605.633	1	18
605.803	1	10
605.973	1	3
606.142	1	-1
606.312	1	17
606.482	1	11
606.652	1	14
606.821	1	-7
606.991	1	9
607.161	1	1
607.330	1	8
607.500	1	15
607.670	1	6
607.839	1	14
608.009	1	13
608.179	1	8
608.348	1	17
608.518	1	-3
608.688	1	14
608.858	1	4
609.027	1	3
609.197	1	6
609.367	1	13
609.536	1	10
609.706	1	11
609.876	1	5
610.045	1	3
610.215	1	10
610.385	1	-1
610.554	1	10
610.724	1	9
610.894	1	7
611.063	1	4
611.233	1	2
611.403	1	3
611.572	1	7
611.742	1	4
611.912	1	6
612.081	1	-1
612.251	1	10
612.421	1	4
612.590	1	11
612.760	1	13
612.930	1	12
613.099	1	8
613.269	1	16
613.439	1	2
613.608	1	3
613.778	1	13
613.948	1	10
614.117	1	12
614.287	1	14
614.457	1	13
614.626	1	4
614.796	1	14
614.966	1	2
615.135	1	15
615.305	1	14
615.475	1	7
615.644	1	0
615.814	1	2
615.984	1	6
616.153	1	5
616.323	1	4
616.493	1	-4
616.662	1	20
616.832	1	11
617.002	1	-3
617.171	1	9
617.341	1	10
617.511	1	2
617.680	1	-2
617.850	1	17
618.019	1	5
618.189	1	12
618.359	1	5
618.528	1	5
618.698	1	12
618.868	1	1
619.037	1	0
619.207	1	-1
619.377	1	5
619.546	1	9
619.716	1	11
619.885	1	10
620.055	1	-9
620.225	1	6
620.394	1	-4
620.564	1	16
620.734	1	9
620.903	1	4
621.073	1	14
621.242	1	11
621.412	1	6
621.582	1	-4
621.751	1	2
621.921	1	11
622.091	1	4
622.260	1	3
622.430	1	17
622.599	1	7
622.769	1	5
622.939	1	15
623.108	1	8
623.278	1	-7
623.448	1	11
623.617	1	5
623.787	1	8
623.956	1	8
624.126	1	9
624.296	1	7
624.465	1	1
624.635	1	20
624.804	1	9
624.974	1	8
625.144	1	12
625.313	1	-1
625.483	1	3
625.652	1	8
625.822	1	10
625.992	1	1
626.161	1	13
626.331	1	9
626.501	1	5
626.670	1	7
626.840	1	6
627.009	1	5
627.179	1	8
627.348	1	10
627.518	1	10
627.688	1	13
627.857	1	12
628.027	1	3
628.196	1	1
628.366	1	7
628.536	1	8
628.705	1	11
628.875	1	12
629.044	1	4
629.214	1	15
629.384	1	8
629.553	1	14
629.723	1	13
629.892	1	6
630.062	1	11
630.232	1	-1
630.401	1	16
630.571	1	11
630.740	1	10
630.910	1	4
631.079	1	-1
631.249	1	8
631.419	1	14
631.588	1	-1
631.758	1	12
631.927	1	4
632.097	1	8
632.266	1	1
632.436	1	9
632.606	1	4
632.775	1	15
632.945	1	17
633.114	1	14
633.284	1	13
633.453	1	2
633.623	1	13
633.793	1	10
633.962	1	10
634.132	1	2
634.301	1	3
634.471	1	10
634.640	1	9
634.810	1	9
634.979	1	13
635.149	1	15
635.319	1	5
635.488	1	4
635.658	1	6
635.827	1	-1
635.997	1	10
636.166	1	4
636.336	1	2
636.505	1	8
636.675	1	8
636.845	1	13
637.014	1	5
637.184	1	11
637.353	1	6
637.523	1	6
637.692	1	7
637.862	1	16
638.031	1	15
638.201	1	16
638.370	1	13
638.540	1	6
638.710	1	12
638.879	1	-1
639.049	1	15
639.218	1	13
639.388	1	-1
639.557	1	6
639.727	1	9
639.896	1	17
640.066	1	6
640.235	1	6
640.405	1	13
640.574	1	6
640.744	1	-6
640.914	1	2
641.083	1	7
641.253	1	3
641.422	1	12
641.592	1	20
641.761	1	17
641.931	1	2
642.100	1	22
642.270	1	6
642.439	1	10
642.609	1	13
642.778	1	8
642.948	1	12
643.117	1	18
643.287	1	17
643.456	1	7
643.626	1	20
643.795	1	8
643.965	1	16
644.134	1	0
644.304	1	3
644.473	1	17
644.643	1	9
644.812	1	11
644.982	1	13
645.151	1	10
645.321	1	2
645.490	1	21
645.660	1	-2
645.829	1	6
645.999	1	1
646.168	1	15
646.338	1	12
646.507	1	11
646.677	1	21
646.846	1	7
647.016	1	-7
647.185	1	15
647.355	1	-11
647.524	1	13
647.694	1	10
647.863	1	19
648.033	1	9
648.202	1	17
648.372	1	4
648.541	1	12
648.711	1	13
648.880	1	7
649.050	1	-2
649.219	1	7
649.389	1	15
649.558	1	16
649.728	1	22
649.897	1	6
650.067	1	21
650.236	1	15
650.406	1	11
650.575	1	18
650.745	1	4
650.914	1	8
651.084	1	-2
651.253	1	11
651.423	1	14
651.592	1	6
651.762	1	3
651.931	1	14
652.101	1	9
652.270	1	20
652.440	1	5
652.609	1	1
652.778	1	6
652.948	1	13
653.117	1	12
653.287	1	4
653.456	1	13
653.626	1	16
653.795	1	11
653.965	1	6
654.134	1	14
654.304	1	0
654.473	1	16
654.643	1	12
654.812	1	11
654.982	1	8
655.151	1	6
655.320	1	5
655.490	1	6
655.659	1	13
655.829	1	16
655.998	1	-4
656.168	1	9
656.337	1	11
656.507	1	18
656.676	1	18
656.846	1	21
657.015	1	17
657.184	1	17
657.354	1	13
657.523	1	16
657.693	1	15
657.862	1	14
658.032	1	11
658.201	1	11
658.371	1	13
658.540	1	13
658.709	1	5
658.879	1	15
659.048	1	12
659.218	1	18
659.387	1	12
659.557	1	-2
659.726	1	10
659.895	1	-2
660.065	1	3
660.234	1	12
660.404	1	7
660.573	1	4
660.743	1	16
660.912	1	9
661.081	1	17
661.251	1	7
661.420	1	11
661.590	1	9
661.759	1	11
661.929	1	15
662.098	1	20
662.267	1	12
662.437	1	14
662.606	1	17
662.776	1	11
662.945	1	12
663.115	1	11
663.284	1	9
663.453	1	18
663.623	1	15
663.792	1	11
663.962	1	15
664.131	1	24
664.300	1	23
664.470	1	7
664.639	1	12
664.809	1	18
664.978	1	18
665.148	1	15
665.317	1	13
665.486	1	18
665.656	1	0
665.825	1	19
665.995	1	2
666.164	1	10
666.333	1	6
666.503	1	18
666.672	1	6
666.842	1	10
667.011	1	5
667.180	1	17
667.350	1	8
667.519	1	9
667.689	1	17
667.858	1	20
668.027	1	21
668.197	1	5
668.366	1	8
668.536	1	11
668.705	1	10
668.874	1	15
669.044	1	8
669.213	1	16
669.382	1	-4
669.552	1	19
669.721	1	19
669.891	1	18
670.060	1	7
670.229	1	24
670.399	1	11
670.568	1	15
670.738	1	25
670.907	1	6
671.076	1	1
671.246	1	15
671.415	1	15
671.584	1	17
671.754	1	17
671.923	1	16
672.093	1	13
672.262	1	-2
672.431	1	4
672.601	1	7
672.770	1	6
672.939	1	19
673.109	1	5
673.278	1	10
673.448	1	9
673.617	1	14
673.786	1	16
