325.333	1	13
325.504	1	1
325.675	1	11
325.846	1	-1
326.017	1	3
326.188	1	7
326.359	1	-1
326.531	1	-4
326.702	1	-1
326.873	1	1
327.044	1	-8
327.215	1	7
327.386	1	5
327.557	1	0
327.728	1	1
327.899	1	5
328.070	1	7
328.241	1	9
328.412	1	-4
328.583	1	12
328.754	1	0
328.926	1	3
329.097	1	-9
329.268	1	4
329.439	1	2
329.610	1	2
329.781	1	-10
329.952	1	1
330.123	1	4
330.294	1	4
330.465	1	-3
330.636	1	7
330.807	1	-2
330.978	1	-7
331.149	1	-3
331.320	1	5
331.492	1	4
331.663	1	6
331.834	1	10
332.005	1	7
332.176	1	14
332.347	1	10
332.518	1	-6
332.689	1	8
332.860	1	7
333.031	1	7
333.202	1	7
333.373	1	3
333.544	1	-6
333.715	1	8
333.886	1	-4
334.057	1	12
334.228	1	0
334.399	1	7
334.570	1	1
334.741	1	1
334.912	1	8
335.084	1	25
335.255	1	9
335.426	1	-1
335.597	1	-6
335.768	1	-4
335.939	1	5
336.110	1	-5
336.281	1	-2
336.452	1	-6
336.623	1	-4
336.794	1	10
336.965	1	1
337.136	1	11
337.307	1	-3
337.478	1	-6
337.649	1	6
337.820	1	4
337.991	1	1
338.162	1	-1
338.333	1	5
338.504	1	1
338.675	1	6
338.846	1	2
339.017	1	10
339.188	1	6
339.359	1	-2
339.530	1	0
339.701	1	6
339.872	1	2
340.043	1	3
340.214	1	3
340.385	1	5
340.556	1	-13
340.727	1	9
340.898	1	8
341.069	1	5
341.240	1	-4
341.411	1	7
341.582	1	4
341.753	1	-2
341.924	1	8
342.095	1	2
342.266	1	11
342.437	1	14
342.608	1	5
342.779	1	14
342.950	1	8
343.121	1	17
343.292	1	0
343.463	1	8
343.634	1	-1
343.805	1	4
343.976	1	3
344.147	1	5
344.318	1	1
344.489	1	1
344.660	1	16
344.831	1	11
345.002	1	-5
345.173	1	2
345.344	1	6
345.515	1	3
345.686	1	-2
345.857	1	10
346.028	1	6
346.199	1	7
346.370	1	4
346.541	1	2
346.712	1	-3
346.883	1	11
347.054	1	6
347.225	1	11
347.396	1	12
347.567	1	5
347.738	1	-3
347.909	1	11
348.080	1	-3
348.251	1	15
348.422	1	11
348.593	1	8
348.764	1	2
348.935	1	0
349.106	1	1
349.277	1	7
349.448	1	10
349.619	1	2
349.790	1	4
349.961	1	5
350.132	1	7
350.303	1	3
350.474	1	10
350.645	1	-3
350.816	1	11
350.987	1	11
351.157	1	-3
351.328	1	10
351.499	1	8
351.670	1	-3
351.841	1	5
352.012	1	4
352.183	1	8
352.354	1	14
352.525	1	19
352.696	1	16
352.867	1	2
353.038	1	8
353.209	1	7
353.380	1	1
353.551	1	2
353.722	1	3
353.893	1	7
354.064	1	16
354.235	1	7
354.406	1	3
354.576	1	9
354.747	1	1
354.918	1	11
355.089	1	8
355.260	1	10
355.431	1	8
355.602	1	1
355.773	1	8
355.944	1	14
356.115	1	5
356.286	1	11
356.457	1	12
356.628	1	9
356.799	1	4
356.970	1	13
357.141	1	-1
357.311	1	1
357.482	1	7
357.653	1	2
357.824	1	9
357.995	1	7
358.166	1	0
358.337	1	5
358.508	1	10
358.679	1	14
358.850	1	10
359.021	1	0
359.192	1	13
359.363	1	-1
359.533	1	-2
359.704	1	3
359.875	1	11
360.046	1	3
360.217	1	-1
360.388	1	6
360.559	1	2
360.730	1	7
360.901	1	-4
361.072	1	22
361.243	1	7
361.414	1	3
361.584	1	9
361.755	1	12
361.926	1	9
362.097	1	3
362.268	1	6
362.439	1	0
362.610	1	14
362.781	1	3
362.952	1	-2
363.123	1	8
363.293	1	3
363.464	1	8
363.635	1	4
363.806	1	8
363.977	1	17
364.148	1	7
364.319	1	3
364.490	1	7
364.661	1	2
364.832	1	11
365.002	1	5
365.173	1	9
365.344	1	22
365.515	1	2
365.686	1	4
365.857	1	10
366.028	1	14
366.199	1	9
366.370	1	10
366.540	1	-2
366.711	1	-11
366.882	1	-1
367.053	1	0
367.224	1	17
367.395	1	17
367.566	1	12
367.737	1	17
367.908	1	16
368.078	1	11
368.249	1	17
368.420	1	-2
368.591	1	5
368.762	1	17
368.933	1	7
369.104	1	-2
369.274	1	8
369.445	1	-1
369.616	1	7
369.787	1	13
369.958	1	19
370.129	1	3
370.300	1	16
370.471	1	-2
370.641	1	5
370.812	1	17
370.983	1	10
371.154	1	6
371.325	1	7
371.496	1	7
371.667	1	14
371.837	1	-2
372.008	1	11
372.179	1	4
372.350	1	19
372.521	1	6
372.692	1	10
372.863	1	15
373.033	1	0
373.204	1	7
373.375	1	15
373.546	1	16
373.717	1	13
373.888	1	18
374.059	1	11
374.229	1	14
374.400	1	10
374.571	1	3
374.742	1	15
374.913	1	16
375.084	1	14
375.254	1	11
375.425	1	4
375.596	1	15
375.767	1	16
375.938	1	17
376.109	1	10
376.279	1	7
376.450	1	8
376.621	1	15
376.792	1	7
376.963	1	3
377.134	1	11
377.304	1	8
377.475	1	11
377.646	1	3
377.817	1	9
377.988	1	12
378.159	1	4
378.329	1	12
378.500	1	8
378.671	1	10
378.842	1	16
379.013	1	1
379.184	1	3
379.354	1	12
379.525	1	9
379.696	1	15
379.867	1	21
380.038	1	2
380.209	1	11
380.379	1	8
380.550	1	5
380.721	1	18
380.892	1	12
381.063	1	12
381.233	1	15
381.404	1	2
381.575	1	17
381.746	1	18
381.917	1	8
382.087	1	11
382.258	1	7
382.429	1	7
382.600	1	17
382.771	1	7
382.941	1	9
383.112	1	-3
383.283	1	5
383.454	1	12
383.625	1	-1
383.795	1	12
383.966	1	4
384.137	1	15
384.308	1	20
384.479	1	22
384.649	1	10
384.820	1	6
384.991	1	5
385.162	1	4
385.333	1	3
385.503	1	2
385.674	1	0
385.845	1	19
386.016	1	10
386.187	1	5
386.357	1	18
386.528	1	13
386.699	1	1
386.870	1	19
387.041	1	12
387.211	1	6
387.382	1	13
387.553	1	8
387.724	1	6
387.894	1	19
388.065	1	7
388.236	1	16
388.407	1	6
388.578	1	6
388.748	1	9
388.919	1	20
389.090	1	11
389.261	1	1
389.431	1	18
389.602	1	12
389.773	1	17
389.944	1	15
390.114	1	13
390.285	1	16
390.456	1	6
390.627	1	15
390.798	1	12
390.968	1	15
391.139	1	15
391.310	1	9
391.481	1	20
391.651	1	10
391.822	1	9
391.993	1	12
392.164	1	2
392.334	1	14
392.505	1	5
392.676	1	19
392.847	1	15
393.017	1	9
393.188	1	15
393.359	1	9
393.530	1	16
393.700	1	9
393.871	1	6
394.042	1	10
394.213	1	9
394.383	1	15
394.554	1	9
394.725	1	14
394.896	1	5
395.066	1	16
395.237	1	4
395.408	1	2
395.579	1	9
395.749	1	17
395.920	1	8
396.091	1	21
396.262	1	10
396.432	1	11
396.603	1	12
396.774	1	14
396.945	1	4
397.115	1	14
397.286	1	8
397.457	1	5
397.627	1	10
397.798	1	7
397.969	1	13
398.140	1	8
398.310	1	11
398.481	1	17
398.652	1	11
398.823	1	3
398.993	1	7
399.164	1	8
399.335	1	24
399.505	1	11
399.676	1	9
399.847	1	11
400.018	1	10
400.188	1	13
400.359	1	16
400.530	1	6
400.700	1	8
400.871	1	17
401.042	1	8
401.213	1	14
401.383	1	13
401.554	1	17
401.725	1	20
401.895	1	1
402.066	1	17
402.237	1	20
402.408	1	20
402.578	1	9
402.749	1	22
402.920	1	20
403.090	1	5
403.261	1	14
403.432	1	9
403.603	1	12
403.773	1	24
403.944	1	22
404.115	1	16
404.285	1	17
404.456	1	15
404.627	1	9
404.797	1	0
404.968	1	7
405.139	1	6
405.310	1	16
405.480	1	7
405.651	1	13
405.822	1	19
405.992	1	13
406.163	1	3
406.334	1	4
406.504	1	6
406.675	1	19
406.846	1	4
407.016	1	16
407.187	1	13
407.358	1	2
407.528	1	0
407.699	1	12
407.870	1	9
408.041	1	8
408.211	1	17
408.382	1	9
408.553	1	10
408.723	1	14
408.894	1	12
409.065	1	8
409.235	1	1
409.406	1	13
409.577	1	0
409.747	1	21
409.918	1	14
410.089	1	13
410.259	1	19
410.430	1	8
410.601	1	13
410.771	1	18
410.942	1	17
411.113	1	15
411.283	1	4
411.454	1	11
411.625	1	9
411.795	1	11
411.966	1	17
412.137	1	18
412.307	1	2
412.478	1	14
412.649	1	14
412.819	1	14
412.990	1	11
413.161	1	7
413.331	1	5
413.502	1	23
413.672	1	14
413.843	1	16
414.014	1	8
414.184	1	21
414.355	1	15
414.526	1	26
414.696	1	19
414.867	1	16
415.038	1	6
415.208	1	11
415.379	1	24
415.550	1	23
415.720	1	9
415.891	1	12
416.062	1	16
416.232	1	15
416.403	1	7
416.573	1	14
416.744	1	14
416.915	1	17
417.085	1	14
417.256	1	12
417.427	1	14
417.597	1	13
417.768	1	7
417.939	1	14
418.109	1	6
418.280	1	13
418.450	1	12
418.621	1	2
418.792	1	13
418.962	1	21
419.133	1	21
419.304	1	-1
419.474	1	2
419.645	1	10
419.815	1	3
419.986	1	17
420.157	1	19
420.327	1	19
420.498	1	27
420.669	1	11
420.839	1	20
421.010	1	10
421.180	1	10
421.351	1	8
421.522	1	15
421.692	1	18
421.863	1	18
422.033	1	31
422.204	1	13
422.375	1	2
422.545	1	23
422.716	1	1
422.886	1	6
423.057	1	22
423.228	1	15
423.398	1	3
423.569	1	14
423.740	1	17
423.910	1	-2
424.081	1	6
424.251	1	11
424.422	1	10
424.593	1	9
424.763	1	19
424.934	1	13
425.104	1	15
425.275	1	7
425.445	1	9
425.616	1	6
425.787	1	3
425.957	1	5
426.128	1	17
426.298	1	18
426.469	1	6
426.640	1	13
426.810	1	12
426.981	1	6
427.151	1	2
427.322	1	11
427.493	1	9
427.663	1	16
427.834	1	-6
428.004	1	17
428.175	1	9
428.345	1	18
428.516	1	5
428.687	1	16
428.857	1	7
429.028	1	14
429.198	1	8
429.369	1	17
429.540	1	8
429.710	1	11
429.881	1	14
430.051	1	14
430.222	1	10
430.392	1	11
430.563	1	20
430.734	1	27
430.904	1	17
431.075	1	12
431.245	1	11
431.416	1	15
431.586	1	13
431.757	1	14
431.927	1	0
432.098	1	16
432.269	1	5
432.439	1	23
432.610	1	7
432.780	1	24
432.951	1	7
433.121	1	11
433.292	1	19
433.462	1	18
433.633	1	11
433.804	1	2
433.974	1	12
434.145	1	25
434.315	1	6
434.486	1	4
434.656	1	10
434.827	1	-1
434.997	1	10
435.168	1	16
435.339	1	11
435.509	1	15
435.680	1	9
435.850	1	11
436.021	1	14
436.191	1	10
436.362	1	11
436.532	1	5
436.703	1	12
436.873	1	9
437.044	1	2
437.214	1	8
437.385	1	8
437.556	1	6
437.726	1	18
437.897	1	19
438.067	1	19
438.238	1	17
438.408	1	11
438.579	1	10
438.749	1	10
438.920	1	1
439.090	1	8
439.261	1	7
439.431	1	15
439.602	1	14
439.772	1	8
439.943	1	23
440.113	1	20
440.284	1	10
440.455	1	10
440.625	1	15
440.796	1	14
440.966	1	9
441.137	1	9
441.307	1	3
441.478	1	26
441.648	1	14
441.819	1	12
441.989	1	18
442.160	1	17
442.330	1	7
442.501	1	14
442.671	1	4
442.842	1	0
443.012	1	11
443.183	1	17
443.353	1	9
443.524	1	16
443.694	1	7
443.865	1	3
444.035	1	6
444.206	1	15
444.376	1	1
444.547	1	19
444.717	1	11
444.888	1	5
445.058	1	7
445.229	1	9
445.399	1	12
445.570	1	8
445.740	1	3
445.911	1	12
446.081	1	10
446.252	1	19
446.422	1	22
446.593	1	11
446.763	1	8
446.934	1	5
447.104	1	6
447.275	1	8
447.445	1	12
447.616	1	6
447.786	1	8
447.957	1	22
448.127	1	13
448.298	1	10
448.468	1	8
448.639	1	13
448.809	1	17
448.979	1	-1
449.150	1	16
449.320	1	4
449.491	1	12
449.661	1	7
449.832	1	5
450.002	1	15
450.173	1	14
450.343	1	14
450.514	1	17
450.684	1	4
450.855	1	8
451.025	1	12
451.196	1	11
451.366	1	16
451.537	1	4
451.707	1	-3
451.878	1	11
452.048	1	18
452.218	1	15
452.389	1	13
452.559	1	20
452.730	1	20
452.900	1	9
453.071	1	-3
453.241	1	7
453.412	1	7
453.582	1	12
453.753	1	11
453.923	1	17
454.093	1	24
454.264	1	13
454.434	1	9
454.605	1	9
454.775	1	8
454.946	1	12
455.116	1	11
455.287	1	6
455.457	1	8
455.628	1	9
455.798	1	12
455.968	1	17
456.139	1	9
456.309	1	5
456.480	1	8
456.650	1	4
456.821	1	5
456.991	1	7
457.161	1	10
457.332	1	13
457.502	1	2
457.673	1	19
457.843	1	12
458.014	1	5
458.184	1	14
458.355	1	4
458.525	1	12
458.695	1	15
458.866	1	2
459.036	1	5
459.207	1	10
459.377	1	9
459.548	1	19
459.718	1	1
459.888	1	5
460.059	1	12
460.229	1	16
460.400	1	11
460.570	1	6
460.740	1	9
460.911	1	7
461.081	1	6
461.252	1	-6
461.422	1	0
461.593	1	10
461.763	1	14
461.933	1	14
462.104	1	5
462.274	1	4
462.445	1	13
462.615	1	3
462.785	1	-1
462.956	1	5
463.126	1	14
463.297	1	10
463.467	1	2
463.638	1	15
463.808	1	8
463.978	1	4
464.149	1	-2
464.319	1	8
464.490	1	13
464.660	1	9
464.830	1	7
465.001	1	8
465.171	1	14
465.342	1	18
465.512	1	10
465.682	1	0
465.853	1	1
466.023	1	10
466.194	1	5
466.364	1	20
466.534	1	14
466.705	1	10
466.875	1	3
467.045	1	7
467.216	1	18
467.386	1	0
467.557	1	6
467.727	1	1
467.897	1	2
468.068	1	15
468.238	1	5
468.409	1	9
468.579	1	11
468.749	1	5
468.920	1	1
469.090	1	4
469.260	1	1
469.431	1	5
469.601	1	12
469.772	1	10
469.942	1	0
470.112	1	15
470.283	1	9
470.453	1	6
470.623	1	2
470.794	1	2
470.964	1	4
471.135	1	10
471.305	1	5
471.475	1	7
471.646	1	8
471.816	1	9
471.986	1	12
472.157	1	10
472.327	1	0
472.497	1	0
472.668	1	9
472.838	1	6
473.009	1	9
473.179	1	3
473.349	1	1
473.520	1	11
473.690	1	7
473.860	1	13
474.031	1	8
474.201	1	10
474.371	1	19
474.542	1	12
474.712	1	5
474.882	1	7
475.053	1	11
475.223	1	1
475.394	1	6
475.564	1	8
475.734	1	5
475.905	1	11
476.075	1	2
476.245	1	19
476.416	1	10
476.586	1	8
476.756	1	3
476.927	1	17
477.097	1	6
477.267	1	-3
477.438	1	8
477.608	1	3
477.778	1	8
477.949	1	4
478.119	1	21
478.289	1	16
478.460	1	19
478.630	1	11
478.800	1	10
478.971	1	7
479.141	1	9
479.311	1	-2
479.482	1	4
479.652	1	-1
479.822	1	-1
479.993	1	7
480.163	1	5
480.333	1	11
480.504	1	7
480.674	1	6
480.844	1	-1
481.015	1	10
481.185	1	-1
481.355	1	15
481.525	1	-5
481.696	1	0
481.866	1	-1
482.036	1	11
482.207	1	11
482.377	1	11
482.547	1	9
482.718	1	1
482.888	1	12
483.058	1	5
483.229	1	-8
483.399	1	6
483.569	1	3
483.740	1	4
483.910	1	3
484.080	1	14
484.250	1	11
484.421	1	10
484.591	1	14
484.761	1	6
484.932	1	15
485.102	1	16
485.272	1	6
485.443	1	13
485.613	1	5
485.783	1	10
485.953	1	0
486.124	1	9
486.294	1	5
486.464	1	9
486.635	1	16
486.805	1	12
486.975	1	3
487.146	1	5
487.316	1	8
487.486	1	10
487.656	1	5
487.827	1	5
487.997	1	-8
488.167	1	10
488.338	1	10
488.508	1	9
488.678	1	1
488.848	1	12
489.019	1	1
489.189	1	6
489.359	1	6
489.529	1	5
489.700	1	4
489.870	1	15
490.040	1	9
490.211	1	-5
490.381	1	8
490.551	1	3
490.721	1	15
490.892	1	6
491.062	1	6
491.232	1	9
491.402	1	4
491.573	1	0
491.743	1	14
491.913	1	-5
492.084	1	7
492.254	1	9
492.424	1	-3
492.594	1	6
492.765	1	-1
492.935	1	8
493.105	1	1
493.275	1	2
493.446	1	11
493.616	1	14
493.786	1	4
493.956	1	4
494.127	1	5
494.297	1	2
494.467	1	2
494.637	1	10
494.808	1	5
494.978	1	-7
495.148	1	0
495.318	1	2
495.489	1	15
495.659	1	2
495.829	1	8
495.999	1	-6
496.170	1	8
496.340	1	6
496.510	1	6
496.680	1	-9
496.851	1	8
497.021	1	9
497.191	1	-4
497.361	1	3
497.532	1	2
497.702	1	5
497.872	1	0
498.042	1	13
498.213	1	4
498.383	1	13
498.553	1	1
498.723	1	-2
498.894	1	1
499.064	1	12
499.234	1	6
499.404	1	9
499.574	1	6
499.745	1	12
499.915	1	5
500.085	1	9
500.255	1	18
500.426	1	3
500.596	1	9
500.766	1	3
500.936	1	5
501.106	1	-9
501.277	1	5
501.447	1	7
501.617	1	-4
501.787	1	7
501.958	1	0
502.128	1	1
502.298	1	-2
502.468	1	11
502.638	1	2
502.809	1	11
502.979	1	-1
503.149	1	-6
503.319	1	-8
503.489	1	2
503.660	1	7
503.830	1	8
504.000	1	14
504.170	1	2
504.340	1	-3
504.511	1	7
504.681	1	6
504.851	1	2
505.021	1	5
505.192	1	4
505.362	1	23
505.532	1	5
505.702	1	5
505.872	1	10
506.043	1	-4
506.213	1	2
506.383	1	5
506.553	1	-1
506.723	1	1
506.893	1	-2
507.064	1	8
507.234	1	2
507.404	1	-2
507.574	1	11
507.744	1	-1
507.915	1	3
508.085	1	9
508.255	1	12
508.425	1	2
508.595	1	11
508.766	1	2
508.936	1	-4
509.106	1	7
509.276	1	9
509.446	1	4
509.616	1	6
509.787	1	7
509.957	1	2
510.127	1	3
510.297	1	4
510.467	1	-4
510.638	1	5
510.808	1	-5
510.978	1	3
511.148	1	4
511.318	1	-4
511.488	1	3
511.659	1	2
511.829	1	-8
511.999	1	5
512.169	1	7
512.339	1	13
512.509	1	4
512.680	1	1
512.850	1	1
513.020	1	5
513.190	1	2
513.360	1	-4
513.530	1	3
513.700	1	7
513.871	1	2
514.041	1	-1
514.211	1	6
514.381	1	5
514.551	1	1
514.721	1	-3
514.892	1	7
515.062	1	7
515.232	1	4
515.402	1	-10
515.572	1	0
515.742	1	11
515.912	1	4
516.083	1	5
516.253	1	0
516.423	1	6
516.593	1	8
516.763	1	9
516.933	1	-3
517.104	1	-2
517.274	1	3
517.444	1	6
517.614	1	-1
517.784	1	5
517.954	1	5
518.124	1	11
518.294	1	-6
518.465	1	-5
518.635	1	1
518.805	1	-4
518.975	1	-1
519.145	1	-3
519.315	1	10
519.485	1	5
519.656	1	5
519.826	1	4
519.996	1	0
520.166	1	2
520.336	1	12
520.506	1	0
520.676	1	-2
520.846	1	8
521.017	1	1
521.187	1	-2
521.357	1	15
521.527	1	-4
521.697	1	-3
521.867	1	5
522.037	1	11
522.207	1	10
522.377	1	2
522.548	1	1
522.718	1	7
522.888	1	15
523.058	1	1
523.228	1	6
523.398	1	6
523.568	1	12
523.738	1	8
523.909	1	8
524.079	1	4
524.249	1	4
524.419	1	3
524.589	1	1
524.759	1	6
524.929	1	-7
525.099	1	-2
525.269	1	5
525.439	1	1
525.610	1	14
525.780	1	-4
525.950	1	-3
526.120	1	1
526.290	1	11
526.460	1	-11
526.630	1	-3
526.800	1	3
526.970	1	3
527.140	1	7
527.311	1	-5
527.481	1	-2
527.651	1	11
527.821	1	-8
527.991	1	11
528.161	1	10
528.331	1	2
528.501	1	8
528.671	1	-9
528.841	1	0
529.011	1	-5
529.181	1	11
529.352	1	3
529.522	1	-9
529.692	1	3
529.862	1	-6
530.032	1	6
530.202	1	13
530.372	1	-8
530.542	1	3
530.712	1	0
530.882	1	2
531.052	1	9
531.222	1	10
531.392	1	4
531.563	1	11
531.733	1	3
531.903	1	4
532.073	1	2
532.243	1	7
532.413	1	2
532.583	1	-4
532.753	1	4
532.923	1	-4
533.093	1	6
533.263	1	-9
533.433	1	-1
533.603	1	2
533.773	1	-1
533.943	1	6
534.113	1	-3
534.284	1	-5
534.454	1	4
534.624	1	8
534.794	1	-10
534.964	1	7
535.134	1	3
535.304	1	0
535.474	1	15
535.644	1	-7
535.814	1	-8
535.984	1	-7
536.154	1	-1
536.324	1	1
536.494	1	4
536.664	1	1
536.834	1	-1
537.004	1	3
537.174	1	4
537.344	1	0
537.514	1	-4
537.685	1	-3
537.855	1	11
538.025	1	3
538.195	1	-1
538.365	1	10
538.535	1	5
538.705	1	2
538.875	1	6
539.045	1	6
539.215	1	-1
539.385	1	6
539.555	1	8
539.725	1	0
539.895	1	-4
540.065	1	13
540.235	1	5
540.405	1	-6
540.575	1	0
540.745	1	10
540.915	1	6
541.085	1	2
541.255	1	0
541.425	1	8
541.595	1	5
541.765	1	8
541.935	1	-4
542.105	1	-1
542.275	1	0
542.445	1	-3
542.615	1	-4
542.785	1	-1
542.955	1	5
543.125	1	-6
543.295	1	6
543.465	1	5
543.635	1	3
543.805	1	13
543.975	1	0
544.145	1	11
544.315	1	10
544.485	1	2
544.655	1	9
544.825	1	-4
544.995	1	4
545.165	1	2
545.335	1	2
545.505	1	-6
545.675	1	-3
545.845	1	5
546.015	1	6
546.185	1	4
546.355	1	5
546.525	1	3
546.695	1	6
546.865	1	-4
547.035	1	5
547.205	1	-9
547.375	1	7
547.545	1	10
547.715	1	-1
547.885	1	9
548.055	1	3
548.225	1	7
548.395	1	3
548.565	1	3
548.735	1	3
548.905	1	-6
549.075	1	14
549.245	1	-2
549.415	1	-9
549.585	1	-2
549.755	1	4
549.925	1	-8
550.095	1	6
550.265	1	-2
550.435	1	5
550.605	1	-5
550.775	1	-2
550.945	1	5
551.115	1	4
551.285	1	2
551.455	1	-3
551.625	1	0
551.795	1	11
551.965	1	7
552.135	1	-1
552.305	1	3
552.475	1	-7
552.645	1	-6
552.815	1	4
552.985	1	1
553.155	1	1
553.325	1	9
553.495	1	-5
553.665	1	9
553.835	1	4
554.004	1	-1
554.174	1	-1
554.344	1	0
554.514	1	7
554.684	1	7
554.854	1	5
555.024	1	-10
555.194	1	1
555.364	1	9
555.534	1	5
555.704	1	1
555.874	1	8
556.044	1	3
556.214	1	-1
556.384	1	6
556.554	1	14
556.724	1	3
556.894	1	7
557.064	1	8
557.234	1	2
557.404	1	9
557.573	1	1
557.743	1	4
557.913	1	-8
558.083	1	1
558.253	1	-3
558.423	1	1
558.593	1	-1
558.763	1	-1
558.933	1	3
559.103	1	14
559.273	1	3
559.443	1	8
559.613	1	2
559.783	1	0
559.953	1	-6
560.122	1	17
560.292	1	8
560.462	1	0
560.632	1	8
560.802	1	-1
560.972	1	0
561.142	1	4
561.312	1	1
561.482	1	9
561.652	1	5
561.822	1	-5
561.992	1	-4
562.162	1	3
562.331	1	9
562.501	1	-6
562.671	1	13
562.841	1	-11
563.011	1	3
563.181	1	-3
563.351	1	-9
563.521	1	4
563.691	1	3
563.861	1	10
564.031	1	0
564.201	1	10
564.370	1	-5
564.540	1	7
564.710	1	0
564.880	1	8
565.050	1	10
565.220	1	-6
565.390	1	7
565.560	1	-5
565.730	1	-2
565.900	1	1
566.069	1	9
566.239	1	6
566.409	1	5
566.579	1	11
566.749	1	6
566.919	1	11
567.089	1	3
567.259	1	8
567.429	1	-7
567.599	1	-4
567.768	1	5
567.938	1	-1
568.108	1	7
568.278	1	-1
568.448	1	-1
568.618	1	-3
568.788	1	12
568.958	1	2
569.128	1	4
569.297	1	-1
569.467	1	0
569.637	1	5
569.807	1	-1
569.977	1	7
570.147	1	12
570.317	1	-2
570.487	1	7
570.656	1	6
570.826	1	-2
570.996	1	-3
571.166	1	9
571.336	1	-5
571.506	1	11
571.676	1	1
571.846	1	11
572.015	1	1
572.185	1	0
572.355	1	5
572.525	1	3
572.695	1	-7
572.865	1	-8
573.035	1	4
573.205	1	6
573.374	1	-2
573.544	1	9
573.714	1	3
573.884	1	5
574.054	1	0
574.224	1	-8
574.394	1	1
574.563	1	4
574.733	1	1
574.903	1	-3
575.073	1	-1
575.243	1	3
575.413	1	9
575.583	1	-9
575.752	1	11
575.922	1	3
576.092	1	1
576.262	1	8
576.432	1	13
576.602	1	-2
576.772	1	9
576.941	1	-3
577.111	1	-6
577.281	1	-11
577.451	1	-8
577.621	1	15
577.791	1	13
577.960	1	-2
578.130	1	2
578.300	1	11
578.470	1	9
578.640	1	3
578.810	1	2
578.979	1	3
579.149	1	3
579.319	1	0
579.489	1	1
579.659	1	4
579.829	1	-1
579.998	1	10
580.168	1	9
580.338	1	1
580.508	1	-2
580.678	1	3
580.848	1	-3
581.017	1	-2
581.187	1	4
581.357	1	-7
581.527	1	5
581.697	1	9
581.867	1	7
582.036	1	-4
582.206	1	7
582.376	1	10
582.546	1	-15
582.716	1	-1
582.885	1	-5
583.055	1	-2
583.225	1	-6
583.395	1	7
583.565	1	-6
583.735	1	8
583.904	1	2
584.074	1	6
584.244	1	6
584.414	1	-6
584.584	1	13
584.753	1	-2
584.923	1	-1
585.093	1	3
585.263	1	6
585.433	1	9
585.602	1	-9
585.772	1	2
585.942	1	-3
586.112	1	-2
586.282	1	7
586.451	1	5
586.621	1	-12
586.791	1	3
586.961	1	0
587.131	1	6
587.300	1	-7
587.470	1	14
587.640	1	6
587.810	1	-11
587.980	1	0
588.149	1	3
588.319	1	-3
588.489	1	0
588.659	1	-2
588.829	1	5
588.998	1	-6
589.168	1	7
589.338	1	-2
589.508	1	8
589.677	1	-12
589.847	1	1
590.017	1	10
590.187	1	1
590.357	1	5
590.526	1	8
590.696	1	4
590.866	1	5
591.036	1	-1
591.205	1	15
591.375	1	-4
591.545	1	1
591.715	1	9
591.885	1	-4
592.054	1	2
592.224	1	2
592.394	1	1
592.564	1	4
592.733	1	3
592.903	1	-2
593.073	1	5
593.243	1	1
593.412	1	1
593.582	1	0
593.752	1	9
593.922	1	-4
594.091	1	0
594.261	1	-7
594.431	1	3
594.601	1	13
594.771	1	-1
594.940	1	0
595.110	1	-6
595.280	1	5
595.450	1	-1
595.619	1	-1
595.789	1	7
595.959	1	6
596.129	1	1
596.298	1	0
596.468	1	-1
596.638	1	3
596.808	1	1
596.977	1	-1
597.147	1	8
597.317	1	0
597.487	1	5
597.656	1	-3
597.826	1	5
597.996	1	10
598.166	1	-4
598.335	1	-4
598.505	1	-3
598.675	1	1
598.844	1	-5
599.014	1	-5
599.184	1	8
599.354	1	-7
599.523	1	8
599.693	1	1
599.863	1	6
600.033	1	-4
600.202	1	-7
600.372	1	-2
600.542	1	9
600.712	1	-8
600.881	1	3
601.051	1	16
601.221	1	6
601.390	1	-6
601.560	1	8
601.730	1	3
601.900	1	10
602.069	1	9
602.239	1	6
602.409	1	-5
602.578	1	1
602.748	1	-3
602.918	1	1
603.088	1	5
603.257	1	5
603.427	1	-4
603.597	1	10
603.767	1	3
603.936	1	2
604.106	1	2
604.276	1	3
604.445	1	3
604.615	1	-2
604.785	1	1
604.954	1	4
605.124	1	1
605.294	1	10
605.464	1	-2
605.633	1	6
605.803	1	0
605.973	1	3
606.142	1	4
606.312	1	5
606.482	1	6
606.652	1	2
606.821	1	3
606.991	1	3
607.161	1	3
607.330	1	5
607.500	1	5
607.670	1	-13
607.839	1	13
608.009	1	11
608.179	1	-2
608.348	1	14
608.518	1	4
608.688	1	11
608.858	1	-2
609.027	1	-6
609.197	1	6
609.367	1	8
609.536	1	0
609.706	1	-5
609.876	1	5
610.045	1	-2
610.215	1	3
610.385	1	-2
610.554	1	1
610.724	1	9
610.894	1	4
611.063	1	1
611.233	1	-4
611.403	1	-5
611.572	1	-3
611.742	1	8
611.912	1	-1
612.081	1	2
612.251	1	7
612.421	1	4
612.590	1	5
612.760	1	6
612.930	1	10
613.099	1	5
613.269	1	15
613.439	1	-4
613.608	1	-12
613.778	1	3
613.948	1	-7
614.117	1	-6
614.287	1	13
614.457	1	3
614.626	1	-8
614.796	1	-1
614.966	1	-4
615.135	1	3
615.305	1	5
615.475	1	10
615.644	1	0
615.814	1	8
615.984	1	-12
616.153	1	-6
616.323	1	5
616.493	1	-4
616.662	1	11
616.832	1	2
617.002	1	-3
617.171	1	2
617.341	1	-1
617.511	1	3
617.680	1	-2
617.850	1	3
618.019	1	12
618.189	1	2
618.359	1	5
618.528	1	4
618.698	1	9
618.868	1	-4
619.037	1	-5
619.207	1	-4
619.377	1	2
619.546	1	9
619.716	1	3
619.885	1	2
620.055	1	-12
620.225	1	1
620.394	1	-8
620.564	1	12
620.734	1	12
620.903	1	1
621.073	1	3
621.242	1	5
621.412	1	-5
621.582	1	4
621.751	1	12
621.921	1	0
622.091	1	-2
622.260	1	5
622.430	1	7
622.599	1	3
622.769	1	7
622.939	1	7
623.108	1	2
623.278	1	-5
623.448	1	-3
623.617	1	0
623.787	1	-4
623.956	1	6
624.126	1	-3
624.296	1	-2
624.465	1	5
624.635	1	15
624.804	1	0
624.974	1	1
625.144	1	16
625.313	1	3
625.483	1	3
625.652	1	-4
625.822	1	-2
625.992	1	4
626.161	1	18
626.331	1	8
626.501	1	9
626.670	1	0
626.840	1	3
627.009	1	-4
627.179	1	16
627.348	1	9
627.518	1	2
627.688	1	9
627.857	1	13
628.027	1	-1
628.196	1	-9
628.366	1	10
628.536	1	-2
628.705	1	4
628.875	1	3
629.044	1	-3
629.214	1	15
629.384	1	1
629.553	1	12
629.723	1	2
629.892	1	3
630.062	1	2
630.232	1	3
630.401	1	1
630.571	1	3
630.740	1	1
630.910	1	11
631.079	1	-3
631.249	1	1
631.419	1	-1
631.588	1	-10
631.758	1	10
631.927	1	-4
632.097	1	0
632.266	1	-2
632.436	1	8
632.606	1	-7
632.775	1	8
632.945	1	3
633.114	1	11
633.284	1	10
633.453	1	-2
633.623	1	7
633.793	1	3
633.962	1	11
634.132	1	5
634.301	1	6
634.471	1	8
634.640	1	9
634.810	1	7
634.979	1	9
635.149	1	8
635.319	1	-3
635.488	1	-4
635.658	1	1
635.827	1	2
635.997	1	-3
636.166	1	-1
636.336	1	1
636.505	1	12
636.675	1	5
636.845	1	10
637.014	1	14
637.184	1	-1
637.353	1	8
637.523	1	2
637.692	1	-2
637.862	1	5
638.031	1	4
638.201	1	8
638.370	1	-1
638.540	1	10
638.710	1	-2
638.879	1	-13
639.049	1	3
639.218	1	6
639.388	1	-3
639.557	1	1
639.727	1	5
639.896	1	5
640.066	1	1
640.235	1	6
640.405	1	3
640.574	1	6
640.744	1	-8
640.914	1	1
641.083	1	-2
641.253	1	9
641.422	1	-3
641.592	1	13
641.761	1	-6
641.931	1	-7
642.100	1	9
642.270	1	-4
642.439	1	8
642.609	1	9
642.778	1	-1
642.948	1	-1
643.117	1	10
643.287	1	9
643.456	1	-4
643.626	1	13
643.795	1	1
643.965	1	8
644.134	1	-4
644.304	1	7
644.473	1	3
644.643	1	6
644.812	1	10
644.982	1	4
645.151	1	1
645.321	1	-3
645.490	1	7
645.660	1	-10
645.829	1	-4
645.999	1	0
646.168	1	0
646.338	1	6
646.507	1	3
646.677	1	6
646.846	1	9
647.016	1	-8
647.185	1	7
647.355	1	-11
647.524	1	5
647.694	1	12
647.863	1	10
648.033	1	5
648.202	1	4
648.372	1	-1
648.541	1	-8
648.711	1	4
648.880	1	-6
649.050	1	-1
649.219	1	3
649.389	1	3
649.558	1	3
649.728	1	4
649.897	1	-3
650.067	1	7
650.236	1	9
650.406	1	1
650.575	1	14
650.745	1	7
650.914	1	6
651.084	1	-9
651.253	1	1
651.423	1	-5
651.592	1	6
651.762	1	0
651.931	1	16
652.101	1	4
652.270	1	-3
652.440	1	5
652.609	1	6
652.778	1	-2
652.948	1	1
653.117	1	7
653.287	1	-2
653.456	1	6
653.626	1	9
653.795	1	5
653.965	1	3
654.134	1	4
654.304	1	-10
654.473	1	15
654.643	1	5
654.812	1	-2
654.982	1	4
655.151	1	3
655.320	1	-2
655.490	1	-3
655.659	1	2
655.829	1	-12
655.998	1	3
656.168	1	3
656.337	1	-2
656.507	1	1
656.676	1	6
656.846	1	6
657.015	1	8
657.184	1	8
657.354	1	11
657.523	1	4
657.693	1	4
657.862	1	9
658.032	1	4
658.201	1	-1
658.371	1	14
658.540	1	2
658.709	1	3
658.879	1	3
659.048	1	4
659.218	1	-1
659.387	1	5
659.557	1	5
659.726	1	9
659.895	1	2
660.065	1	-7
660.234	1	6
660.404	1	13
660.573	1	5
660.743	1	1
660.912	1	-1
661.081	1	3
661.251	1	-5
661.420	1	8
661.590	1	12
661.759	1	3
661.929	1	1
662.098	1	8
662.267	1	5
662.437	1	2
662.606	1	-1
662.776	1	0
662.945	1	-1
663.115	1	3
663.284	1	2
663.453	1	13
663.623	1	14
663.792	1	7
663.962	1	6
664.131	1	12
664.300	1	2
664.470	1	-3
664.639	1	6
664.809	1	8
664.978	1	13
665.148	1	4
665.317	1	0
665.486	1	13
665.656	1	3
665.825	1	9
665.995	1	-7
666.164	1	0
666.333	1	10
666.503	1	-7
666.672	1	-1
666.842	1	3
667.011	1	3
667.180	1	10
667.350	1	3
667.519	1	-4
667.689	1	2
667.858	1	4
668.027	1	4
668.197	1	1
668.366	1	-1
668.536	1	1
668.705	1	3
668.874	1	6
669.044	1	8
669.213	1	15
669.382	1	-6
669.552	1	11
669.721	1	12
669.891	1	11
670.060	1	7
670.229	1	13
670.399	1	-2
670.568	1	13
670.738	1	11
670.907	1	-10
671.076	1	-9
671.246	1	-2
671.415	1	-4
671.584	1	2
671.754	1	-3
671.923	1	4
672.093	1	10
672.262	1	-2
672.431	1	4
672.601	1	6
672.770	1	-10
672.939	1	4
673.109	1	-7
673.278	1	8
673.448	1	3
673.617	1	-6
673.786	1	8
