325.333	1	5
325.504	1	0
325.675	1	8
325.846	1	1
326.017	1	4
326.188	1	3
326.359	1	2
326.531	1	-11
326.702	1	2
326.873	1	12
327.044	1	12
327.215	1	9
327.386	1	8
327.557	1	-7
327.728	1	6
327.899	1	6
328.070	1	6
328.241	1	12
328.412	1	-2
328.583	1	4
328.754	1	8
328.926	1	14
329.097	1	-7
329.268	1	20
329.439	1	-1
329.610	1	4
329.781	1	-5
329.952	1	5
330.123	1	1
330.294	1	3
330.465	1	4
330.636	1	9
330.807	1	0
330.978	1	6
331.149	1	0
331.320	1	-3
331.492	1	0
331.663	1	-1
331.834	1	13
332.005	1	12
332.176	1	14
332.347	1	11
332.518	1	2
332.689	1	12
332.860	1	8
333.031	1	10
333.202	1	2
333.373	1	6
333.544	1	2
333.715	1	3
333.886	1	5
334.057	1	12
334.228	1	-2
334.399	1	10
334.570	1	13
334.741	1	4
334.912	1	8
335.084	1	25
335.255	1	6
335.426	1	0
335.597	1	-5
335.768	1	1
335.939	1	7
336.110	1	5
336.281	1	1
336.452	1	1
336.623	1	2
336.794	1	5
336.965	1	0
337.136	1	9
337.307	1	3
337.478	1	5
337.649	1	6
337.820	1	9
337.991	1	-2
338.162	1	7
338.333	1	1
338.504	1	14
338.675	1	11
338.846	1	7
339.017	1	10
339.188	1	-3
339.359	1	-5
339.530	1	8
339.701	1	12
339.872	1	16
340.043	1	0
340.214	1	-1
340.385	1	13
340.556	1	-4
340.727	1	6
340.898	1	11
341.069	1	6
341.240	1	-4
341.411	1	4
341.582	1	11
341.753	1	-1
341.924	1	-6
342.095	1	6
342.266	1	13
342.437	1	11
342.608	1	5
342.779	1	8
342.950	1	9
343.121	1	15
343.292	1	0
343.463	1	2
343.634	1	4
343.805	1	20
343.976	1	14
344.147	1	18
344.318	1	6
344.489	1	5
344.660	1	17
344.831	1	4
345.002	1	3
345.173	1	15
345.344	1	7
345.515	1	4
345.686	1	12
345.857	1	12
346.028	1	8
346.199	1	5
346.370	1	1
346.541	1	16
346.712	1	3
346.883	1	11
347.054	1	9
347.225	1	12
347.396	1	13
347.567	1	7
347.738	1	-1
347.909	1	18
348.080	1	-5
348.251	1	13
348.422	1	13
348.593	1	8
348.764	1	6
348.935	1	6
349.106	1	7
349.277	1	1
349.448	1	11
349.619	1	1
349.790	1	16
349.961	1	17
350.132	1	18
350.303	1	10
350.474	1	28
350.645	1	15
350.816	1	10
350.987	1	7
351.157	1	-1
351.328	1	14
351.499	1	10
351.670	1	4
351.841	1	28
352.012	1	20
352.183	1	19
352.354	1	18
352.525	1	25
352.696	1	4
352.867	1	1
353.038	1	18
353.209	1	12
353.380	1	14
353.551	1	-4
353.722	1	8
353.893	1	11
354.064	1	19
354.235	1	11
354.406	1	11
354.576	1	1
354.747	1	2
354.918	1	13
355.089	1	16
355.260	1	13
355.431	1	11
355.602	1	8
355.773	1	10
355.944	1	16
356.115	1	10
356.286	1	17
356.457	1	15
356.628	1	10
356.799	1	13
356.970	1	12
357.141	1	6
357.311	1	1
357.482	1	17
357.653	1	20
357.824	1	19
357.995	1	9
358.166	1	4
358.337	1	0
358.508	1	14
358.679	1	12
358.850	1	12
359.021	1	-3
359.192	1	13
359.363	1	15
359.533	1	8
359.704	1	12
359.875	1	9
360.046	1	11
360.217	1	3
360.388	1	12
360.559	1	6
360.730	1	16
360.901	1	11
361.072	1	27
361.243	1	12
361.414	1	17
361.584	1	2
361.755	1	13
361.926	1	2
362.097	1	13
362.268	1	11
362.439	1	6
362.610	1	21
362.781	1	7
362.952	1	10
363.123	1	17
363.293	1	-1
363.464	1	14
363.635	1	19
363.806	1	8
363.977	1	14
364.148	1	12
364.319	1	12
364.490	1	12
364.661	1	3
364.832	1	18
365.002	1	17
365.173	1	15
365.344	1	20
365.515	1	12
365.686	1	5
365.857	1	6
366.028	1	18
366.199	1	13
366.370	1	15
366.540	1	7
366.711	1	8
366.882	1	4
367.053	1	4
367.224	1	26
367.395	1	3
367.566	1	29
367.737	1	20
367.908	1	17
368.078	1	9
368.249	1	9
368.420	1	4
368.591	1	7
368.762	1	11
368.933	1	14
369.104	1	2
369.274	1	17
369.445	1	9
369.616	1	7
369.787	1	16
369.958	1	16
370.129	1	-1
370.300	1	13
370.471	1	5
370.641	1	20
370.812	1	20
370.983	1	13
371.154	1	13
371.325	1	18
371.496	1	8
371.667	1	20
371.837	1	6
372.008	1	11
372.179	1	7
372.350	1	19
372.521	1	15
372.692	1	3
372.863	1	19
373.033	1	12
373.204	1	9
373.375	1	9
373.546	1	12
373.717	1	8
373.888	1	20
374.059	1	6
374.229	1	18
374.400	1	12
374.571	1	22
374.742	1	20
374.913	1	18
375.084	1	11
375.254	1	25
375.425	1	17
375.596	1	10
375.767	1	14
375.938	1	16
376.109	1	16
376.279	1	9
376.450	1	17
376.621	1	17
376.792	1	-1
376.963	1	10
377.134	1	19
377.304	1	7
377.475	1	14
377.646	1	15
377.817	1	11
377.988	1	9
378.159	1	15
378.329	1	24
378.500	1	11
378.671	1	2
378.842	1	8
379.013	1	13
379.184	1	10
379.354	1	20
379.525	1	12
379.696	1	19
379.867	1	25
380.038	1	17
380.209	1	12
380.379	1	10
380.550	1	5
380.721	1	20
380.892	1	13
381.063	1	23
381.233	1	22
381.404	1	10
381.575	1	22
381.746	1	22
381.917	1	14
382.087	1	17
382.258	1	13
382.429	1	21
382.600	1	23
382.771	1	12
382.941	1	11
383.112	1	22
383.283	1	17
383.454	1	23
383.625	1	18
383.795	1	19
383.966	1	8
384.137	1	23
384.308	1	16
384.479	1	12
384.649	1	17
384.820	1	17
384.991	1	18
385.162	1	15
385.333	1	18
385.503	1	13
385.674	1	4
385.845	1	21
386.016	1	13
386.187	1	20
386.357	1	18
386.528	1	20
386.699	1	8
386.870	1	26
387.041	1	11
387.211	1	17
387.382	1	27
387.553	1	27
387.724	1	16
387.894	1	20
388.065	1	18
388.236	1	24
388.407	1	25
388.578	1	11
388.748	1	14
388.919	1	24
389.090	1	12
389.261	1	11
389.431	1	26
389.602	1	23
389.773	1	13
389.944	1	19
390.114	1	15
390.285	1	16
390.456	1	25
390.627	1	24
390.798	1	21
390.968	1	8
391.139	1	28
391.310	1	11
391.481	1	24
391.651	1	15
391.822	1	7
391.993	1	20
392.164	1	9
392.334	1	16
392.505	1	20
392.676	1	22
392.847	1	23
393.017	1	24
393.188	1	25
393.359	1	11
393.530	1	14
393.700	1	21
393.871	1	9
394.042	1	11
394.213	1	21
394.383	1	25
394.554	1	12
394.725	1	22
394.896	1	9
395.066	1	24
395.237	1	20
395.408	1	14
395.579	1	20
395.749	1	10
395.920	1	16
396.091	1	16
396.262	1	20
396.432	1	16
396.603	1	23
396.774	1	20
396.945	1	26
397.115	1	21
397.286	1	21
397.457	1	20
397.627	1	25
397.798	1	21
397.969	1	5
398.140	1	18
398.310	1	16
398.481	1	31
398.652	1	18
398.823	1	14
398.993	1	14
399.164	1	14
399.335	1	18
399.505	1	27
399.676	1	17
399.847	1	16
400.018	1	12
400.188	1	26
400.359	1	15
400.530	1	10
400.700	1	18
400.871	1	13
401.042	1	16
401.213	1	17
401.383	1	31
401.554	1	26
401.725	1	27
401.895	1	26
402.066	1	12
402.237	1	22
402.408	1	24
402.578	1	14
402.749	1	31
402.920	1	23
403.090	1	16
403.261	1	18
403.432	1	22
403.603	1	25
403.773	1	29
403.944	1	30
404.115	1	20
404.285	1	23
404.456	1	24
404.627	1	16
404.797	1	7
404.968	1	21
405.139	1	17
405.310	1	31
405.480	1	19
405.651	1	9
405.822	1	18
405.992	1	13
406.163	1	14
406.334	1	12
406.504	1	18
406.675	1	21
406.846	1	24
407.016	1	22
407.187	1	27
407.358	1	15
407.528	1	11
407.699	1	5
407.870	1	14
408.041	1	23
408.211	1	27
408.382	1	11
408.553	1	14
408.723	1	19
408.894	1	15
409.065	1	14
409.235	1	17
409.406	1	24
409.577	1	11
409.747	1	27
409.918	1	16
410.089	1	24
410.259	1	16
410.430	1	17
410.601	1	21
410.771	1	25
410.942	1	32
411.113	1	24
411.283	1	14
411.454	1	22
411.625	1	13
411.795	1	27
411.966	1	23
412.137	1	29
412.307	1	14
412.478	1	25
412.649	1	22
412.819	1	19
412.990	1	15
413.161	1	21
413.331	1	5
413.502	1	28
413.672	1	20
413.843	1	31
414.014	1	19
414.184	1	23
414.355	1	27
414.526	1	16
414.696	1	28
414.867	1	16
415.038	1	14
415.208	1	21
415.379	1	31
415.550	1	20
415.720	1	15
415.891	1	14
416.062	1	25
416.232	1	22
416.403	1	32
416.573	1	22
416.744	1	17
416.915	1	32
417.085	1	17
417.256	1	16
417.427	1	13
417.597	1	21
417.768	1	11
417.939	1	19
418.109	1	22
418.280	1	21
418.450	1	20
418.621	1	16
418.792	1	8
418.962	1	15
419.133	1	32
419.304	1	12
419.474	1	8
419.645	1	10
419.815	1	15
419.986	1	19
420.157	1	15
420.327	1	24
420.498	1	29
420.669	1	12
420.839	1	20
421.010	1	16
421.180	1	25
421.351	1	4
421.522	1	15
421.692	1	18
421.863	1	15
422.033	1	20
422.204	1	35
422.375	1	15
422.545	1	17
422.716	1	19
422.886	1	15
423.057	1	18
423.228	1	21
423.398	1	23
423.569	1	20
423.740	1	12
423.910	1	19
424.081	1	12
424.251	1	20
424.422	1	17
424.593	1	19
424.763	1	26
424.934	1	20
425.104	1	13
425.275	1	20
425.445	1	14
425.616	1	18
425.787	1	14
425.957	1	25
426.128	1	25
426.298	1	18
426.469	1	12
426.640	1	22
426.810	1	17
426.981	1	17
427.151	1	16
427.322	1	23
427.493	1	17
427.663	1	26
427.834	1	13
428.004	1	26
428.175	1	16
428.345	1	13
428.516	1	24
428.687	1	13
428.857	1	11
429.028	1	15
429.198	1	21
429.369	1	25
429.540	1	19
429.710	1	12
429.881	1	24
430.051	1	21
430.222	1	15
430.392	1	17
430.563	1	28
430.734	1	31
430.904	1	27
431.075	1	12
431.245	1	5
431.416	1	23
431.586	1	16
431.757	1	23
431.927	1	17
432.098	1	24
432.269	1	4
432.439	1	27
432.610	1	20
432.780	1	31
432.951	1	6
433.121	1	31
433.292	1	24
433.462	1	21
433.633	1	12
433.804	1	22
433.974	1	23
434.145	1	21
434.315	1	11
434.486	1	15
434.656	1	21
434.827	1	7
434.997	1	21
435.168	1	27
435.339	1	19
435.509	1	17
435.680	1	14
435.850	1	12
436.021	1	17
436.191	1	18
436.362	1	20
436.532	1	11
436.703	1	14
436.873	1	20
437.044	1	5
437.214	1	15
437.385	1	18
437.556	1	19
437.726	1	29
437.897	1	26
438.067	1	19
438.238	1	11
438.408	1	20
438.579	1	16
438.749	1	15
438.920	1	16
439.090	1	13
439.261	1	15
439.431	1	5
439.602	1	22
439.772	1	9
439.943	1	19
440.113	1	23
440.284	1	16
440.455	1	20
440.625	1	12
440.796	1	18
440.966	1	9
441.137	1	18
441.307	1	15
441.478	1	19
441.648	1	18
441.819	1	21
441.989	1	12
442.160	1	21
442.330	1	24
442.501	1	22
442.671	1	12
442.842	1	7
443.012	1	15
443.183	1	19
443.353	1	8
443.524	1	19
443.694	1	29
443.865	1	18
444.035	1	11
444.206	1	16
444.376	1	-1
444.547	1	26
444.717	1	18
444.888	1	9
445.058	1	29
445.229	1	15
445.399	1	7
445.570	1	17
445.740	1	6
445.911	1	15
446.081	1	8
446.252	1	24
446.422	1	13
446.593	1	1
446.763	1	9
446.934	1	10
447.104	1	9
447.275	1	14
447.445	1	20
447.616	1	21
447.786	1	17
447.957	1	13
448.127	1	8
448.298	1	19
448.468	1	16
448.639	1	8
448.809	1	18
448.979	1	9
449.150	1	20
449.320	1	14
449.491	1	12
449.661	1	15
449.832	1	14
450.002	1	22
450.173	1	21
450.343	1	13
450.514	1	10
450.684	1	12
450.855	1	4
451.025	1	17
451.196	1	17
451.366	1	16
451.537	1	14
451.707	1	-1
451.878	1	13
452.048	1	26
452.218	1	25
452.389	1	22
452.559	1	19
452.730	1	22
452.900	1	16
453.071	1	3
453.241	1	16
453.412	1	7
453.582	1	15
453.753	1	16
453.923	1	12
454.093	1	21
454.264	1	20
454.434	1	7
454.605	1	14
454.775	1	11
454.946	1	13
455.116	1	10
455.287	1	11
455.457	1	6
455.628	1	8
455.798	1	23
455.968	1	16
456.139	1	8
456.309	1	13
456.480	1	14
456.650	1	3
456.821	1	13
456.991	1	21
457.161	1	15
457.332	1	21
457.502	1	-6
457.673	1	20
457.843	1	20
458.014	1	7
458.184	1	13
458.355	1	10
458.525	1	18
458.695	1	14
458.866	1	12
459.036	1	17
459.207	1	9
459.377	1	5
459.548	1	20
459.718	1	-3
459.888	1	13
460.059	1	15
460.229	1	20
460.400	1	22
460.570	1	24
460.740	1	14
460.911	1	13
461.081	1	17
461.252	1	7
461.422	1	3
461.593	1	12
461.763	1	13
461.933	1	24
462.104	1	11
462.274	1	9
462.445	1	19
462.615	1	4
462.785	1	12
462.956	1	6
463.126	1	23
463.297	1	11
463.467	1	19
463.638	1	16
463.808	1	3
463.978	1	10
464.149	1	14
464.319	1	10
464.490	1	30
464.660	1	7
464.830	1	7
465.001	1	19
465.171	1	20
465.342	1	17
465.512	1	8
465.682	1	3
465.853	1	8
466.023	1	17
466.194	1	7
466.364	1	18
466.534	1	15
466.705	1	15
466.875	1	11
467.045	1	7
467.216	1	33
467.386	1	3
467.557	1	9
467.727	1	8
467.897	1	8
468.068	1	9
468.238	1	20
468.409	1	13
468.579	1	12
468.749	1	11
468.920	1	8
469.090	1	13
469.260	1	6
469.431	1	9
469.601	1	13
469.772	1	7
469.942	1	0
470.112	1	19
470.283	1	5
470.453	1	8
470.623	1	7
470.794	1	15
470.964	1	18
471.135	1	10
471.305	1	-3
471.475	1	19
471.646	1	10
471.816	1	10
471.986	1	8
472.157	1	15
472.327	1	0
472.497	1	6
472.668	1	12
472.838	1	10
473.009	1	12
473.179	1	4
473.349	1	2
473.520	1	15
473.690	1	13
473.860	1	11
474.031	1	9
474.201	1	6
474.371	1	16
474.542	1	19
474.712	1	12
474.882	1	14
475.053	1	18
475.223	1	0
475.394	1	11
475.564	1	15
475.734	1	14
475.905	1	16
476.075	1	17
476.245	1	12
476.416	1	20
476.586	1	18
476.756	1	11
476.927	1	24
477.097	1	5
477.267	1	9
477.438	1	7
477.608	1	18
477.778	1	20
477.949	1	14
478.119	1	11
478.289	1	13
478.460	1	19
478.630	1	18
478.800	1	13
478.971	1	9
479.141	1	4
479.311	1	-4
479.482	1	9
479.652	1	4
479.822	1	9
479.993	1	16
480.163	1	4
480.333	1	8
480.504	1	15
480.674	1	11
480.844	1	9
481.015	1	19
481.185	1	6
481.355	1	10
481.525	1	-4
481.696	1	5
481.866	1	15
482.036	1	13
482.207	1	9
482.377	1	10
482.547	1	15
482.718	1	8
482.888	1	9
483.058	1	5
483.229	1	3
483.399	1	3
483.569	1	11
483.740	1	10
483.910	1	11
484.080	1	7
484.250	1	6
484.421	1	-3
484.591	1	12
484.761	1	21
484.932	1	9
485.102	1	23
485.272	1	6
485.443	1	18
485.613	1	13
485.783	1	18
485.953	1	11
486.124	1	10
486.294	1	17
486.464	1	6
486.635	1	8
486.805	1	15
486.975	1	8
487.146	1	7
487.316	1	8
487.486	1	2
487.656	1	4
487.827	1	1
487.997	1	2
488.167	1	16
488.338	1	15
488.508	1	13
488.678	1	4
488.848	1	20
489.019	1	2
489.189	1	11
489.359	1	5
489.529	1	0
489.700	1	7
489.870	1	12
490.040	1	7
490.211	1	-4
490.381	1	11
490.551	1	1
490.721	1	11
490.892	1	5
491.062	1	9
491.232	1	11
491.402	1	2
491.573	1	-4
491.743	1	16
491.913	1	8
492.084	1	22
492.254	1	-2
492.424	1	2
492.594	1	4
492.765	1	8
492.935	1	2
493.105	1	8
493.275	1	13
493.446	1	19
493.616	1	13
493.786	1	6
493.956	1	-1
494.127	1	6
494.297	1	1
494.467	1	2
494.637	1	5
494.808	1	3
494.978	1	4
495.148	1	0
495.318	1	5
495.489	1	3
495.659	1	4
495.829	1	6
495.999	1	8
496.170	1	7
496.340	1	12
496.510	1	2
496.680	1	2
496.851	1	6
497.021	1	0
497.191	1	-3
497.361	1	8
497.532	1	1
497.702	1	11
497.872	1	-6
498.042	1	14
498.213	1	4
498.383	1	8
498.553	1	9
498.723	1	6
498.894	1	6
499.064	1	8
499.234	1	6
499.404	1	8
499.574	1	10
499.745	1	12
499.915	1	1
500.085	1	12
500.255	1	14
500.426	1	6
500.596	1	0
500.766	1	14
500.936	1	17
501.106	1	8
501.277	1	12
501.447	1	19
501.617	1	10
501.787	1	-4
501.958	1	-5
502.128	1	-1
502.298	1	14
502.468	1	8
502.638	1	12
502.809	1	4
502.979	1	0
503.149	1	-1
503.319	1	5
503.489	1	-1
503.660	1	16
503.830	1	1
504.000	1	18
504.170	1	3
504.340	1	2
504.511	1	15
504.681	1	5
504.851	1	10
505.021	1	5
505.192	1	3
505.362	1	18
505.532	1	2
505.702	1	0
505.872	1	2
506.043	1	6
506.213	1	-6
506.383	1	4
506.553	1	16
506.723	1	12
506.893	1	1
507.064	1	4
507.234	1	-1
507.404	1	3
507.574	1	7
507.744	1	9
507.915	1	5
508.085	1	12
508.255	1	9
508.425	1	-3
508.595	1	13
508.766	1	8
508.936	1	-5
509.106	1	10
509.276	1	15
509.446	1	-4
509.616	1	5
509.787	1	15
509.957	1	3
510.127	1	15
510.297	1	9
510.467	1	-3
510.638	1	11
510.808	1	-12
510.978	1	1
511.148	1	9
511.318	1	0
511.488	1	6
511.659	1	3
511.829	1	-1
511.999	1	12
512.169	1	6
512.339	1	15
512.509	1	-1
512.680	1	-1
512.850	1	6
513.020	1	3
513.190	1	9
513.360	1	10
513.530	1	5
513.700	1	10
513.871	1	5
514.041	1	2
514.211	1	17
514.381	1	3
514.551	1	-2
514.721	1	2
514.892	1	11
515.062	1	6
515.232	1	10
515.402	1	-5
515.572	1	-14
515.742	1	10
515.912	1	12
516.083	1	-7
516.253	1	9
516.423	1	1
516.593	1	9
516.763	1	9
516.933	1	-1
517.104	1	6
517.274	1	10
517.444	1	6
517.614	1	4
517.784	1	-3
517.954	1	11
518.124	1	2
518.294	1	7
518.465	1	1
518.635	1	4
518.805	1	-8
518.975	1	0
519.145	1	3
519.315	1	0
519.485	1	4
519.656	1	13
519.826	1	-2
519.996	1	-2
520.166	1	1
520.336	1	9
520.506	1	7
520.676	1	-10
520.846	1	10
521.017	1	6
521.187	1	-1
521.357	1	12
521.527	1	-3
521.697	1	6
521.867	1	4
522.037	1	10
522.207	1	3
522.377	1	-1
522.548	1	-1
522.718	1	-1
522.888	1	9
523.058	1	2
523.228	1	13
523.398	1	13
523.568	1	13
523.738	1	-1
523.909	1	11
524.079	1	-4
524.249	1	5
524.419	1	-2
524.589	1	3
524.759	1	-2
524.929	1	-3
525.099	1	1
525.269	1	1
525.439	1	4
525.610	1	27
525.780	1	-4
525.950	1	4
526.120	1	-10
526.290	1	8
526.460	1	-5
526.630	1	12
526.800	1	3
526.970	1	2
527.140	1	12
527.311	1	0
527.481	1	-3
527.651	1	10
527.821	1	-5
527.991	1	11
528.161	1	6
528.331	1	0
528.501	1	7
528.671	1	-1
528.841	1	6
529.011	1	3
529.181	1	7
529.352	1	3
529.522	1	6
529.692	1	14
529.862	1	10
530.032	1	6
530.202	1	2
530.372	1	5
530.542	1	-1
530.712	1	3
530.882	1	0
531.052	1	12
531.222	1	3
531.392	1	3
531.563	1	11
531.733	1	6
531.903	1	1
532.073	1	4
532.243	1	0
532.413	1	3
532.583	1	3
532.753	1	-3
532.923	1	2
533.093	1	5
533.263	1	3
533.433	1	5
533.603	1	0
533.773	1	-1
533.943	1	-7
534.113	1	4
534.284	1	-3
534.454	1	5
534.624	1	15
534.794	1	-5
534.964	1	10
535.134	1	9
535.304	1	7
535.474	1	6
535.644	1	-1
535.814	1	4
535.984	1	1
536.154	1	1
536.324	1	-4
536.494	1	2
536.664	1	8
536.834	1	1
537.004	1	2
537.174	1	3
537.344	1	-1
537.514	1	0
537.685	1	-2
537.855	1	13
538.025	1	4
538.195	1	7
538.365	1	9
538.535	1	1
538.705	1	1
538.875	1	3
539.045	1	8
539.215	1	8
539.385	1	6
539.555	1	0
539.725	1	2
539.895	1	5
540.065	1	20
540.235	1	3
540.405	1	-4
540.575	1	5
540.745	1	12
540.915	1	7
541.085	1	3
541.255	1	-9
541.425	1	13
541.595	1	3
541.765	1	11
541.935	1	-3
542.105	1	-2
542.275	1	0
542.445	1	-4
542.615	1	5
542.785	1	8
542.955	1	-2
543.125	1	-7
543.295	1	7
543.465	1	5
543.635	1	9
543.805	1	11
543.975	1	4
544.145	1	4
544.315	1	6
544.485	1	-6
544.655	1	1
544.825	1	-9
544.995	1	10
545.165	1	-4
545.335	1	6
545.505	1	-7
545.675	1	8
545.845	1	9
546.015	1	7
546.185	1	2
546.355	1	-3
546.525	1	11
546.695	1	7
546.865	1	-2
547.035	1	6
547.205	1	-7
547.375	1	10
547.545	1	10
547.715	1	3
547.885	1	6
548.055	1	2
548.225	1	6
548.395	1	5
548.565	1	2
548.735	1	4
548.905	1	3
549.075	1	11
549.245	1	1
549.415	1	-1
549.585	1	11
549.755	1	1
549.925	1	-10
550.095	1	13
550.265	1	6
550.435	1	-3
550.605	1	-4
550.775	1	3
550.945	1	11
551.115	1	4
551.285	1	3
551.455	1	2
551.625	1	2
551.795	1	11
551.965	1	9
552.135	1	-12
552.305	1	-5
552.475	1	-16
552.645	1	-1
552.815	1	3
552.985	1	0
553.155	1	3
553.325	1	5
553.495	1	6
553.665	1	5
553.835	1	5
554.004	1	-1
554.174	1	1
554.344	1	7
554.514	1	3
554.684	1	1
554.854	1	15
555.024	1	-1
555.194	1	-2
555.364	1	15
555.534	1	-4
555.704	1	-3
555.874	1	9
556.044	1	5
556.214	1	-6
556.384	1	0
556.554	1	5
556.724	1	6
556.894	1	3
557.064	1	-1
557.234	1	-6
557.404	1	12
557.573	1	5
557.743	1	-3
557.913	1	4
558.083	1	1
558.253	1	5
558.423	1	-2
558.593	1	11
558.763	1	0
558.933	1	3
559.103	1	18
559.273	1	4
559.443	1	8
559.613	1	4
559.783	1	-5
559.953	1	6
560.122	1	0
560.292	1	-7
560.462	1	0
560.632	1	7
560.802	1	3
560.972	1	4
561.142	1	8
561.312	1	0
561.482	1	11
561.652	1	4
561.822	1	2
561.992	1	-1
562.162	1	3
562.331	1	2
562.501	1	-4
562.671	1	14
562.841	1	-6
563.011	1	0
563.181	1	3
563.351	1	-3
563.521	1	6
563.691	1	-2
563.861	1	2
564.031	1	14
564.201	1	13
564.370	1	-10
564.540	1	6
564.710	1	-1
564.880	1	5
565.050	1	4
565.220	1	-3
565.390	1	13
565.560	1	6
565.730	1	-3
565.900	1	1
566.069	1	19
566.239	1	1
566.409	1	2
566.579	1	12
566.749	1	7
566.919	1	11
567.089	1	4
567.259	1	2
567.429	1	6
567.599	1	-3
567.768	1	2
567.938	1	-9
568.108	1	9
568.278	1	0
568.448	1	1
568.618	1	8
568.788	1	7
568.958	1	5
569.128	1	0
569.297	1	-5
569.467	1	6
569.637	1	2
569.807	1	0
569.977	1	6
570.147	1	7
570.317	1	-2
570.487	1	9
570.656	1	10
570.826	1	-5
570.996	1	-7
571.166	1	4
571.336	1	-4
571.506	1	5
571.676	1	9
571.846	1	15
572.015	1	5
572.185	1	4
572.355	1	8
572.525	1	9
572.695	1	1
572.865	1	-8
573.035	1	1
573.205	1	4
573.374	1	-4
573.544	1	1
573.714	1	13
573.884	1	10
574.054	1	6
574.224	1	1
574.394	1	-3
574.563	1	1
574.733	1	-2
574.903	1	-4
575.073	1	0
575.243	1	2
575.413	1	11
575.583	1	-5
575.752	1	4
575.922	1	5
576.092	1	1
576.262	1	15
576.432	1	5
576.602	1	-11
576.772	1	10
576.941	1	8
577.111	1	-2
577.281	1	-11
577.451	1	0
577.621	1	4
577.791	1	6
577.960	1	-3
578.130	1	7
578.300	1	1
578.470	1	12
578.640	1	-1
578.810	1	1
578.979	1	-4
579.149	1	3
579.319	1	-3
579.489	1	3
579.659	1	5
579.829	1	2
579.998	1	12
580.168	1	10
580.338	1	8
580.508	1	4
580.678	1	7
580.848	1	-8
581.017	1	1
581.187	1	-2
581.357	1	-9
581.527	1	7
581.697	1	16
581.867	1	5
582.036	1	2
582.206	1	1
582.376	1	12
582.546	1	-8
582.716	1	-5
582.885	1	-2
583.055	1	5
583.225	1	-5
583.395	1	9
583.565	1	5
583.735	1	12
583.904	1	2
584.074	1	12
584.244	1	11
584.414	1	1
584.584	1	9
584.753	1	0
584.923	1	4
585.093	1	0
585.263	1	4
585.433	1	-3
585.602	1	-3
585.772	1	0
585.942	1	-1
586.112	1	6
586.282	1	-1
586.451	1	-3
586.621	1	-7
586.791	1	1
586.961	1	2
587.131	1	12
587.300	1	-5
587.470	1	0
587.640	1	10
587.810	1	6
587.980	1	1
588.149	1	-4
588.319	1	0
588.489	1	-2
588.659	1	3
588.829	1	0
588.998	1	-1
589.168	1	2
589.338	1	4
589.508	1	11
589.677	1	-10
589.847	1	-3
590.017	1	22
590.187	1	-2
590.357	1	10
590.526	1	12
590.696	1	1
590.866	1	6
591.036	1	-1
591.205	1	4
591.375	1	-3
591.545	1	2
591.715	1	8
591.885	1	2
592.054	1	1
592.224	1	4
592.394	1	-3
592.564	1	5
592.733	1	9
592.903	1	6
593.073	1	-5
593.243	1	5
593.412	1	6
593.582	1	-1
593.752	1	4
593.922	1	-1
594.091	1	6
594.261	1	-1
594.431	1	4
594.601	1	7
594.771	1	2
594.940	1	11
595.110	1	2
595.280	1	13
595.450	1	2
595.619	1	3
595.789	1	0
595.959	1	2
596.129	1	-4
596.298	1	-3
596.468	1	4
596.638	1	12
596.808	1	6
596.977	1	2
597.147	1	-2
597.317	1	-1
597.487	1	6
597.656	1	-4
597.826	1	6
597.996	1	7
598.166	1	3
598.335	1	-5
598.505	1	7
598.675	1	-2
598.844	1	1
599.014	1	1
599.184	1	5
599.354	1	-12
599.523	1	6
599.693	1	-4
599.863	1	5
600.033	1	9
600.202	1	10
600.372	1	0
600.542	1	10
600.712	1	2
600.881	1	-6
601.051	1	1
601.221	1	10
601.390	1	-8
601.560	1	3
601.730	1	1
601.900	1	1
602.069	1	8
602.239	1	-1
602.409	1	-3
602.578	1	1
602.748	1	-1
602.918	1	8
603.088	1	9
603.257	1	6
603.427	1	-5
603.597	1	4
603.767	1	3
603.936	1	2
604.106	1	9
604.276	1	5
604.445	1	3
604.615	1	3
604.785	1	-2
604.954	1	0
605.124	1	6
605.294	1	6
605.464	1	4
605.633	1	2
605.803	1	0
605.973	1	-4
606.142	1	1
606.312	1	4
606.482	1	7
606.652	1	2
606.821	1	3
606.991	1	9
607.161	1	2
607.330	1	7
607.500	1	-1
607.670	1	-4
607.839	1	9
608.009	1	16
608.179	1	13
608.348	1	-2
608.518	1	1
608.688	1	13
608.858	1	-4
609.027	1	-12
609.197	1	1
609.367	1	15
609.536	1	-5
609.706	1	-9
609.876	1	4
610.045	1	5
610.215	1	2
610.385	1	2
610.554	1	5
610.724	1	4
610.894	1	-1
611.063	1	-3
611.233	1	3
611.403	1	-5
611.572	1	2
611.742	1	7
611.912	1	3
612.081	1	5
612.251	1	4
612.421	1	-8
612.590	1	7
612.760	1	-4
612.930	1	1
613.099	1	-2
613.269	1	6
613.439	1	0
613.608	1	-3
613.778	1	9
613.948	1	-3
614.117	1	4
614.287	1	11
614.457	1	4
614.626	1	0
614.796	1	5
614.966	1	-4
615.135	1	-2
615.305	1	10
615.475	1	0
615.644	1	3
615.814	1	6
615.984	1	0
616.153	1	1
616.323	1	-1
616.493	1	2
616.662	1	12
616.832	1	9
617.002	1	2
617.171	1	2
617.341	1	-3
617.511	1	-8
617.680	1	-3
617.850	1	4
618.019	1	4
618.189	1	11
618.359	1	10
618.528	1	1
618.698	1	1
618.868	1	-3
619.037	1	2
619.207	1	-6
619.377	1	-3
619.546	1	1
619.716	1	2
619.885	1	9
620.055	1	0
620.225	1	14
620.394	1	-9
620.564	1	15
620.734	1	10
620.903	1	-14
621.073	1	7
621.242	1	5
621.412	1	-6
621.582	1	7
621.751	1	13
621.921	1	3
622.091	1	0
622.260	1	-1
622.430	1	15
622.599	1	6
622.769	1	6
622.939	1	7
623.108	1	1
623.278	1	-3
623.448	1	-4
623.617	1	0
623.787	1	-4
623.956	1	10
624.126	1	10
624.296	1	0
624.465	1	5
624.635	1	6
624.804	1	-1
624.974	1	8
625.144	1	6
625.313	1	5
625.483	1	-3
625.652	1	1
625.822	1	4
625.992	1	4
626.161	1	11
626.331	1	-5
626.501	1	5
626.670	1	-5
626.840	1	-6
627.009	1	-1
627.179	1	7
627.348	1	-1
627.518	1	5
627.688	1	17
627.857	1	8
628.027	1	-11
628.196	1	0
628.366	1	13
628.536	1	2
628.705	1	5
628.875	1	2
629.044	1	-5
629.214	1	9
629.384	1	12
629.553	1	12
629.723	1	3
629.892	1	-2
630.062	1	8
630.232	1	6
630.401	1	-1
630.571	1	12
630.740	1	5
630.910	1	10
631.079	1	4
631.249	1	4
631.419	1	10
631.588	1	0
631.758	1	9
631.927	1	-3
632.097	1	3
632.266	1	2
632.436	1	15
632.606	1	-3
632.775	1	0
632.945	1	-5
633.114	1	11
633.284	1	3
633.453	1	4
633.623	1	6
633.793	1	12
633.962	1	8
634.132	1	1
634.301	1	5
634.471	1	13
634.640	1	5
634.810	1	-2
634.979	1	13
635.149	1	10
635.319	1	4
635.488	1	0
635.658	1	2
635.827	1	2
635.997	1	-4
636.166	1	5
636.336	1	-5
636.505	1	16
636.675	1	-4
636.845	1	8
637.014	1	7
637.184	1	9
637.353	1	10
637.523	1	4
637.692	1	4
637.862	1	6
638.031	1	6
638.201	1	10
638.370	1	-1
638.540	1	2
638.710	1	1
638.879	1	-2
639.049	1	0
639.218	1	1
639.388	1	4
639.557	1	-4
639.727	1	1
639.896	1	4
640.066	1	-4
640.235	1	10
640.405	1	8
640.574	1	0
640.744	1	3
640.914	1	5
641.083	1	0
641.253	1	6
641.422	1	1
641.592	1	18
641.761	1	2
641.931	1	-1
642.100	1	17
642.270	1	-1
642.439	1	7
642.609	1	10
642.778	1	1
642.948	1	2
643.117	1	12
643.287	1	3
643.456	1	5
643.626	1	8
643.795	1	6
643.965	1	6
644.134	1	4
644.304	1	1
644.473	1	0
644.643	1	8
644.812	1	0
644.982	1	3
645.151	1	7
645.321	1	3
645.490	1	3
645.660	1	-13
645.829	1	-2
645.999	1	4
646.168	1	8
646.338	1	11
646.507	1	3
646.677	1	2
646.846	1	-1
647.016	1	-7
647.185	1	9
647.355	1	-9
647.524	1	8
647.694	1	-2
647.863	1	3
648.033	1	10
648.202	1	8
648.372	1	1
648.541	1	3
648.711	1	5
648.880	1	-3
649.050	1	1
649.219	1	4
649.389	1	16
649.558	1	0
649.728	1	-2
649.897	1	-5
650.067	1	2
650.236	1	-6
650.406	1	7
650.575	1	8
650.745	1	7
650.914	1	4
651.084	1	0
651.253	1	2
651.423	1	1
651.592	1	-8
651.762	1	-3
651.931	1	14
652.101	1	9
652.270	1	10
652.440	1	0
652.609	1	5
652.778	1	-6
652.948	1	4
653.117	1	5
653.287	1	0
653.456	1	9
653.626	1	5
653.795	1	3
653.965	1	11
654.134	1	16
654.304	1	-3
654.473	1	17
654.643	1	1
654.812	1	1
654.982	1	2
655.151	1	-4
655.320	1	5
655.490	1	4
655.659	1	2
655.829	1	-3
655.998	1	-1
656.168	1	3
656.337	1	10
656.507	1	4
656.676	1	10
656.846	1	5
657.015	1	8
657.184	1	7
657.354	1	7
657.523	1	9
657.693	1	7
657.862	1	17
658.032	1	-4
658.201	1	11
658.371	1	19
658.540	1	7
658.709	1	0
658.879	1	10
659.048	1	3
659.218	1	11
659.387	1	0
659.557	1	-4
659.726	1	7
659.895	1	3
660.065	1	-8
660.234	1	11
660.404	1	13
660.573	1	5
660.743	1	3
660.912	1	-3
661.081	1	11
661.251	1	3
661.420	1	3
661.590	1	5
661.759	1	-2
661.929	1	4
662.098	1	14
662.267	1	2
662.437	1	5
662.606	1	-5
662.776	1	13
662.945	1	-2
663.115	1	-2
663.284	1	-3
663.453	1	5
663.623	1	-6
663.792	1	9
663.962	1	4
664.131	1	-2
664.300	1	11
664.470	1	1
664.639	1	6
664.809	1	-2
664.978	1	12
665.148	1	2
665.317	1	3
665.486	1	12
665.656	1	9
665.825	1	13
665.995	1	-2
666.164	1	3
666.333	1	9
666.503	1	8
666.672	1	-5
666.842	1	6
667.011	1	-2
667.180	1	4
667.350	1	8
667.519	1	15
667.689	1	0
667.858	1	0
668.027	1	9
668.197	1	0
668.366	1	-2
668.536	1	10
668.705	1	6
668.874	1	1
669.044	1	-4
669.213	1	12
669.382	1	-7
669.552	1	11
669.721	1	7
669.891	1	15
670.060	1	9
670.229	1	18
670.399	1	-6
670.568	1	17
670.738	1	18
670.907	1	-7
671.076	1	-3
671.246	1	3
671.415	1	8
671.584	1	7
671.754	1	-3
671.923	1	4
672.093	1	7
672.262	1	-6
672.431	1	5
672.601	1	3
672.770	1	-3
672.939	1	9
673.109	1	-3
673.278	1	11
673.448	1	5
673.617	1	-2
673.786	1	10
