325.333	1	14
325.504	1	14
325.675	1	8
325.846	1	3
326.017	1	8
326.188	1	13
326.359	1	9
326.531	1	-8
326.702	1	11
326.873	1	24
327.044	1	7
327.215	1	17
327.386	1	11
327.557	1	8
327.728	1	14
327.899	1	19
328.070	1	27
328.241	1	12
328.412	1	9
328.583	1	20
328.754	1	21
328.926	1	13
329.097	1	-4
329.268	1	24
329.439	1	12
329.610	1	18
329.781	1	8
329.952	1	25
330.123	1	13
330.294	1	8
330.465	1	17
330.636	1	22
330.807	1	17
330.978	1	11
331.149	1	12
331.320	1	9
331.492	1	16
331.663	1	19
331.834	1	28
332.005	1	14
332.176	1	31
332.347	1	19
332.518	1	7
332.689	1	17
332.860	1	4
333.031	1	24
333.202	1	18
333.373	1	17
333.544	1	16
333.715	1	14
333.886	1	12
334.057	1	15
334.228	1	1
334.399	1	14
334.570	1	30
334.741	1	17
334.912	1	19
335.084	1	43
335.255	1	20
335.426	1	11
335.597	1	25
335.768	1	13
335.939	1	22
336.110	1	18
336.281	1	17
336.452	1	14
336.623	1	23
336.794	1	23
336.965	1	21
337.136	1	24
337.307	1	18
337.478	1	20
337.649	1	28
337.820	1	26
337.991	1	19
338.162	1	22
338.333	1	21
338.504	1	14
338.675	1	18
338.846	1	16
339.017	1	17
339.188	1	12
339.359	1	6
339.530	1	24
339.701	1	28
339.872	1	35
340.043	1	17
340.214	1	27
340.385	1	22
340.556	1	13
340.727	1	35
340.898	1	29
341.069	1	29
341.240	1	26
341.411	1	33
341.582	1	23
341.753	1	29
341.924	1	23
342.095	1	23
342.266	1	36
342.437	1	34
342.608	1	21
342.779	1	24
342.950	1	32
343.121	1	26
343.292	1	23
343.463	1	36
343.634	1	27
343.805	1	32
343.976	1	36
344.147	1	26
344.318	1	21
344.489	1	39
344.660	1	22
344.831	1	30
345.002	1	18
345.173	1	35
345.344	1	40
345.515	1	15
345.686	1	39
345.857	1	33
346.028	1	37
346.199	1	24
346.370	1	37
346.541	1	39
346.712	1	23
346.883	1	32
347.054	1	31
347.225	1	39
347.396	1	37
347.567	1	36
347.738	1	26
347.909	1	49
348.080	1	40
348.251	1	49
348.422	1	37
348.593	1	37
348.764	1	34
348.935	1	40
349.106	1	34
349.277	1	31
349.448	1	38
349.619	1	47
349.790	1	43
349.961	1	41
350.132	1	50
350.303	1	33
350.474	1	54
350.645	1	42
350.816	1	37
350.987	1	51
351.157	1	37
351.328	1	47
351.499	1	51
351.670	1	32
351.841	1	41
352.012	1	51
352.183	1	50
352.354	1	45
352.525	1	51
352.696	1	51
352.867	1	44
353.038	1	55
353.209	1	48
353.380	1	44
353.551	1	35
353.722	1	45
353.893	1	40
354.064	1	48
354.235	1	49
354.406	1	44
354.576	1	45
354.747	1	48
354.918	1	51
355.089	1	51
355.260	1	53
355.431	1	54
355.602	1	47
355.773	1	53
355.944	1	40
356.115	1	44
356.286	1	49
356.457	1	56
356.628	1	57
356.799	1	52
356.970	1	52
357.141	1	45
357.311	1	41
357.482	1	45
357.653	1	53
357.824	1	67
357.995	1	46
358.166	1	35
358.337	1	54
358.508	1	55
358.679	1	54
358.850	1	50
359.021	1	49
359.192	1	46
359.363	1	54
359.533	1	42
359.704	1	50
359.875	1	53
360.046	1	55
360.217	1	36
360.388	1	48
360.559	1	50
360.730	1	62
360.901	1	52
361.072	1	60
361.243	1	55
361.414	1	44
361.584	1	41
361.755	1	48
361.926	1	51
362.097	1	48
362.268	1	48
362.439	1	43
362.610	1	59
362.781	1	54
362.952	1	50
363.123	1	43
363.293	1	47
363.464	1	53
363.635	1	59
363.806	1	47
363.977	1	58
364.148	1	54
364.319	1	63
364.490	1	50
364.661	1	54
364.832	1	50
365.002	1	64
365.173	1	55
365.344	1	60
365.515	1	48
365.686	1	52
365.857	1	56
366.028	1	66
366.199	1	60
366.370	1	54
366.540	1	40
366.711	1	41
366.882	1	40
367.053	1	53
367.224	1	68
367.395	1	62
367.566	1	58
367.737	1	59
367.908	1	57
368.078	1	54
368.249	1	57
368.420	1	49
368.591	1	48
368.762	1	63
368.933	1	55
369.104	1	50
369.274	1	53
369.445	1	54
369.616	1	57
369.787	1	65
369.958	1	67
370.129	1	43
370.300	1	73
370.471	1	48
370.641	1	62
370.812	1	64
370.983	1	58
371.154	1	54
371.325	1	60
371.496	1	62
371.667	1	62
371.837	1	54
372.008	1	53
372.179	1	46
372.350	1	62
372.521	1	58
372.692	1	64
372.863	1	67
373.033	1	35
373.204	1	58
373.375	1	61
373.546	1	55
373.717	1	72
373.888	1	74
374.059	1	64
374.229	1	64
374.400	1	56
374.571	1	55
374.742	1	57
374.913	1	69
375.084	1	59
375.254	1	56
375.425	1	64
375.596	1	61
375.767	1	64
375.938	1	65
376.109	1	61
376.279	1	47
376.450	1	75
376.621	1	59
376.792	1	60
376.963	1	60
377.134	1	71
377.304	1	77
377.475	1	56
377.646	1	64
377.817	1	53
377.988	1	64
378.159	1	68
378.329	1	81
378.500	1	68
378.671	1	60
378.842	1	57
379.013	1	58
379.184	1	66
379.354	1	68
379.525	1	67
379.696	1	83
379.867	1	71
380.038	1	60
380.209	1	59
380.379	1	78
380.550	1	50
380.721	1	73
380.892	1	77
381.063	1	58
381.233	1	67
381.404	1	62
381.575	1	72
381.746	1	72
381.917	1	61
382.087	1	62
382.258	1	67
382.429	1	71
382.600	1	72
382.771	1	73
382.941	1	69
383.112	1	64
383.283	1	66
383.454	1	73
383.625	1	61
383.795	1	70
383.966	1	70
384.137	1	78
384.308	1	74
384.479	1	82
384.649	1	82
384.820	1	79
384.991	1	73
385.162	1	80
385.333	1	69
385.503	1	71
385.674	1	71
385.845	1	75
386.016	1	74
386.187	1	74
386.357	1	89
386.528	1	73
386.699	1	73
386.870	1	86
387.041	1	77
387.211	1	80
387.382	1	89
387.553	1	79
387.724	1	78
387.894	1	74
388.065	1	78
388.236	1	95
388.407	1	87
388.578	1	70
388.748	1	69
388.919	1	77
389.090	1	74
389.261	1	83
389.431	1	83
389.602	1	80
389.773	1	76
389.944	1	76
390.114	1	83
390.285	1	81
390.456	1	68
390.627	1	73
390.798	1	78
390.968	1	78
391.139	1	81
391.310	1	77
391.481	1	80
391.651	1	79
391.822	1	67
391.993	1	82
392.164	1	71
392.334	1	67
392.505	1	69
392.676	1	82
392.847	1	73
393.017	1	94
393.188	1	83
393.359	1	74
393.530	1	77
393.700	1	86
393.871	1	77
394.042	1	68
394.213	1	76
394.383	1	83
394.554	1	82
394.725	1	85
394.896	1	87
395.066	1	86
395.237	1	79
395.408	1	76
395.579	1	83
395.749	1	84
395.920	1	79
396.091	1	76
396.262	1	86
396.432	1	83
396.603	1	97
396.774	1	101
396.945	1	88
397.115	1	88
397.286	1	78
397.457	1	85
397.627	1	83
397.798	1	83
397.969	1	81
398.140	1	79
398.310	1	83
398.481	1	87
398.652	1	88
398.823	1	70
398.993	1	81
399.164	1	84
399.335	1	81
399.505	1	83
399.676	1	66
399.847	1	85
400.018	1	76
400.188	1	83
400.359	1	87
400.530	1	76
400.700	1	78
400.871	1	77
401.042	1	94
401.213	1	78
401.383	1	92
401.554	1	94
401.725	1	96
401.895	1	70
402.066	1	86
402.237	1	75
402.408	1	87
402.578	1	84
402.749	1	86
402.920	1	88
403.090	1	76
403.261	1	83
403.432	1	87
403.603	1	93
403.773	1	85
403.944	1	92
404.115	1	91
404.285	1	87
404.456	1	86
404.627	1	79
404.797	1	80
404.968	1	75
405.139	1	78
405.310	1	98
405.480	1	86
405.651	1	82
405.822	1	86
405.992	1	88
406.163	1	85
406.334	1	78
406.504	1	85
406.675	1	101
406.846	1	100
407.016	1	82
407.187	1	84
407.358	1	84
407.528	1	82
407.699	1	82
407.870	1	80
408.041	1	87
408.211	1	102
408.382	1	81
408.553	1	91
408.723	1	89
408.894	1	94
409.065	1	92
409.235	1	84
409.406	1	90
409.577	1	72
409.747	1	93
409.918	1	80
410.089	1	97
410.259	1	91
410.430	1	91
410.601	1	100
410.771	1	79
410.942	1	96
411.113	1	89
411.283	1	88
411.454	1	88
411.625	1	103
411.795	1	100
411.966	1	95
412.137	1	85
412.307	1	78
412.478	1	78
412.649	1	92
412.819	1	83
412.990	1	88
413.161	1	95
413.331	1	78
413.502	1	96
413.672	1	81
413.843	1	91
414.014	1	84
414.184	1	101
414.355	1	78
414.526	1	89
414.696	1	90
414.867	1	97
415.038	1	71
415.208	1	86
415.379	1	98
415.550	1	98
415.720	1	91
415.891	1	83
416.062	1	67
416.232	1	84
416.403	1	89
416.573	1	83
416.744	1	80
416.915	1	93
417.085	1	96
417.256	1	84
417.427	1	94
417.597	1	85
417.768	1	69
417.939	1	102
418.109	1	84
418.280	1	91
418.450	1	79
418.621	1	64
418.792	1	87
418.962	1	85
419.133	1	92
419.304	1	91
419.474	1	81
419.645	1	87
419.815	1	91
419.986	1	89
420.157	1	84
420.327	1	90
420.498	1	95
420.669	1	82
420.839	1	85
421.010	1	96
421.180	1	88
421.351	1	91
421.522	1	87
421.692	1	86
421.863	1	86
422.033	1	99
422.204	1	86
422.375	1	80
422.545	1	92
422.716	1	81
422.886	1	93
423.057	1	81
423.228	1	96
423.398	1	78
423.569	1	70
423.740	1	71
423.910	1	67
424.081	1	84
424.251	1	71
424.422	1	74
424.593	1	77
424.763	1	92
424.934	1	74
425.104	1	80
425.275	1	84
425.445	1	67
425.616	1	71
425.787	1	72
425.957	1	85
426.128	1	84
426.298	1	79
426.469	1	60
426.640	1	79
426.810	1	72
426.981	1	81
427.151	1	68
427.322	1	95
427.493	1	75
427.663	1	82
427.834	1	82
428.004	1	75
428.175	1	79
428.345	1	75
428.516	1	67
428.687	1	74
428.857	1	63
429.028	1	84
429.198	1	78
429.369	1	88
429.540	1	76
429.710	1	68
429.881	1	83
430.051	1	72
430.222	1	68
430.392	1	76
430.563	1	82
430.734	1	84
430.904	1	78
431.075	1	91
431.245	1	69
431.416	1	87
431.586	1	73
431.757	1	76
431.927	1	80
432.098	1	87
432.269	1	65
432.439	1	74
432.610	1	76
432.780	1	83
432.951	1	83
433.121	1	86
433.292	1	79
433.462	1	84
433.633	1	74
433.804	1	84
433.974	1	81
434.145	1	87
434.315	1	77
434.486	1	72
434.656	1	80
434.827	1	75
434.997	1	62
435.168	1	82
435.339	1	81
435.509	1	78
435.680	1	71
435.850	1	80
436.021	1	69
436.191	1	71
436.362	1	74
436.532	1	74
436.703	1	70
436.873	1	70
437.044	1	67
437.214	1	71
437.385	1	75
437.556	1	76
437.726	1	88
437.897	1	88
438.067	1	72
438.238	1	69
438.408	1	81
438.579	1	66
438.749	1	70
438.920	1	72
439.090	1	78
439.261	1	69
439.431	1	65
439.602	1	69
439.772	1	70
439.943	1	79
440.113	1	76
440.284	1	74
440.455	1	73
440.625	1	71
440.796	1	74
440.966	1	75
441.137	1	64
441.307	1	67
441.478	1	83
441.648	1	72
441.819	1	73
441.989	1	71
442.160	1	74
442.330	1	81
442.501	1	63
442.671	1	68
442.842	1	47
443.012	1	61
443.183	1	75
443.353	1	58
443.524	1	69
443.694	1	71
443.865	1	63
444.035	1	74
444.206	1	63
444.376	1	59
444.547	1	72
444.717	1	75
444.888	1	66
445.058	1	66
445.229	1	67
445.399	1	68
445.570	1	77
445.740	1	61
445.911	1	63
446.081	1	55
446.252	1	76
446.422	1	61
446.593	1	70
446.763	1	56
446.934	1	66
447.104	1	70
447.275	1	52
447.445	1	73
447.616	1	62
447.786	1	73
447.957	1	76
448.127	1	75
448.298	1	66
448.468	1	67
448.639	1	59
448.809	1	65
448.979	1	62
449.150	1	73
449.320	1	73
449.491	1	67
449.661	1	55
449.832	1	59
450.002	1	64
450.173	1	62
450.343	1	68
450.514	1	57
450.684	1	65
450.855	1	58
451.025	1	67
451.196	1	67
451.366	1	61
451.537	1	67
451.707	1	55
451.878	1	61
452.048	1	74
452.218	1	70
452.389	1	66
452.559	1	54
452.730	1	73
452.900	1	62
453.071	1	55
453.241	1	55
453.412	1	58
453.582	1	61
453.753	1	64
453.923	1	57
454.093	1	64
454.264	1	64
454.434	1	61
454.605	1	48
454.775	1	61
454.946	1	65
455.116	1	51
455.287	1	43
455.457	1	54
455.628	1	55
455.798	1	65
455.968	1	59
456.139	1	51
456.309	1	50
456.480	1	47
456.650	1	57
456.821	1	47
456.991	1	54
457.161	1	53
457.332	1	69
457.502	1	48
457.673	1	64
457.843	1	57
458.014	1	51
458.184	1	47
458.355	1	57
458.525	1	55
458.695	1	59
458.866	1	48
459.036	1	54
459.207	1	52
459.377	1	49
459.548	1	56
459.718	1	48
459.888	1	50
460.059	1	56
460.229	1	57
460.400	1	58
460.570	1	53
460.740	1	56
460.911	1	54
461.081	1	62
461.252	1	52
461.422	1	48
461.593	1	56
461.763	1	55
461.933	1	49
462.104	1	43
462.274	1	50
462.445	1	46
462.615	1	47
462.785	1	49
462.956	1	60
463.126	1	60
463.297	1	47
463.467	1	42
463.638	1	55
463.808	1	41
463.978	1	46
464.149	1	56
464.319	1	49
464.490	1	63
464.660	1	44
464.830	1	46
465.001	1	53
465.171	1	49
465.342	1	47
465.512	1	49
465.682	1	57
465.853	1	54
466.023	1	54
466.194	1	53
466.364	1	54
466.534	1	44
466.705	1	45
466.875	1	44
467.045	1	49
467.216	1	56
467.386	1	46
467.557	1	43
467.727	1	43
467.897	1	50
468.068	1	49
468.238	1	46
468.409	1	43
468.579	1	49
468.749	1	47
468.920	1	39
469.090	1	50
469.260	1	45
469.431	1	41
469.601	1	42
469.772	1	48
469.942	1	26
470.112	1	53
470.283	1	41
470.453	1	47
470.623	1	40
470.794	1	46
470.964	1	43
471.135	1	55
471.305	1	31
471.475	1	49
471.646	1	41
471.816	1	33
471.986	1	37
472.157	1	56
472.327	1	40
472.497	1	46
472.668	1	31
472.838	1	49
473.009	1	49
473.179	1	31
473.349	1	33
473.520	1	52
473.690	1	47
473.860	1	39
474.031	1	35
474.201	1	38
474.371	1	44
474.542	1	40
474.712	1	43
474.882	1	49
475.053	1	51
475.223	1	30
475.394	1	36
475.564	1	43
475.734	1	47
475.905	1	56
476.075	1	41
476.245	1	42
476.416	1	58
476.586	1	49
476.756	1	36
476.927	1	42
477.097	1	46
477.267	1	33
477.438	1	41
477.608	1	35
477.778	1	44
477.949	1	48
478.119	1	49
478.289	1	42
478.460	1	39
478.630	1	32
478.800	1	39
478.971	1	48
479.141	1	40
479.311	1	38
479.482	1	39
479.652	1	37
479.822	1	35
479.993	1	33
480.163	1	35
480.333	1	46
480.504	1	47
480.674	1	41
480.844	1	30
481.015	1	45
481.185	1	36
481.355	1	41
481.525	1	31
481.696	1	43
481.866	1	43
482.036	1	36
482.207	1	42
482.377	1	38
482.547	1	47
482.718	1	20
482.888	1	47
483.058	1	31
483.229	1	31
483.399	1	35
483.569	1	40
483.740	1	42
483.910	1	43
484.080	1	41
484.250	1	44
484.421	1	34
484.591	1	39
484.761	1	48
484.932	1	40
485.102	1	48
485.272	1	39
485.443	1	41
485.613	1	43
485.783	1	33
485.953	1	29
486.124	1	32
486.294	1	44
486.464	1	27
486.635	1	40
486.805	1	38
486.975	1	23
487.146	1	31
487.316	1	33
487.486	1	36
487.656	1	28
487.827	1	37
487.997	1	29
488.167	1	40
488.338	1	28
488.508	1	27
488.678	1	30
488.848	1	32
489.019	1	19
489.189	1	31
489.359	1	31
489.529	1	27
489.700	1	19
489.870	1	50
490.040	1	26
490.211	1	25
490.381	1	38
490.551	1	38
490.721	1	43
490.892	1	29
491.062	1	28
491.232	1	29
491.402	1	29
491.573	1	15
491.743	1	29
491.913	1	34
492.084	1	28
492.254	1	19
492.424	1	30
492.594	1	19
492.765	1	22
492.935	1	36
493.105	1	25
493.275	1	25
493.446	1	31
493.616	1	39
493.786	1	31
493.956	1	26
494.127	1	22
494.297	1	34
494.467	1	24
494.637	1	28
494.808	1	35
494.978	1	19
495.148	1	18
495.318	1	29
495.489	1	30
495.659	1	34
495.829	1	29
495.999	1	18
496.170	1	38
496.340	1	36
496.510	1	21
496.680	1	24
496.851	1	28
497.021	1	23
497.191	1	32
497.361	1	8
497.532	1	17
497.702	1	29
497.872	1	21
498.042	1	38
498.213	1	31
498.383	1	18
498.553	1	28
498.723	1	24
498.894	1	25
499.064	1	37
499.234	1	21
499.404	1	31
499.574	1	34
499.745	1	22
499.915	1	32
500.085	1	18
500.255	1	29
500.426	1	21
500.596	1	19
500.766	1	28
500.936	1	24
501.106	1	16
501.277	1	25
501.447	1	30
501.617	1	39
501.787	1	19
501.958	1	21
502.128	1	19
502.298	1	16
502.468	1	20
502.638	1	26
502.809	1	23
502.979	1	14
503.149	1	20
503.319	1	17
503.489	1	17
503.660	1	28
503.830	1	21
504.000	1	27
504.170	1	23
504.340	1	19
504.511	1	27
504.681	1	13
504.851	1	21
505.021	1	14
505.192	1	20
505.362	1	31
505.532	1	22
505.702	1	20
505.872	1	23
506.043	1	23
506.213	1	11
506.383	1	12
506.553	1	21
506.723	1	25
506.893	1	18
507.064	1	32
507.234	1	22
507.404	1	24
507.574	1	32
507.744	1	19
507.915	1	23
508.085	1	24
508.255	1	20
508.425	1	15
508.595	1	19
508.766	1	29
508.936	1	10
509.106	1	27
509.276	1	23
509.446	1	19
509.616	1	14
509.787	1	17
509.957	1	17
510.127	1	19
510.297	1	15
510.467	1	8
510.638	1	21
510.808	1	9
510.978	1	21
511.148	1	19
511.318	1	24
511.488	1	18
511.659	1	18
511.829	1	10
511.999	1	32
512.169	1	11
512.339	1	20
512.509	1	27
512.680	1	11
512.850	1	27
513.020	1	9
513.190	1	28
513.360	1	12
513.530	1	19
513.700	1	18
513.871	1	26
514.041	1	11
514.211	1	33
514.381	1	14
514.551	1	17
514.721	1	13
514.892	1	27
515.062	1	17
515.232	1	13
515.402	1	7
515.572	1	21
515.742	1	20
515.912	1	26
516.083	1	14
516.253	1	27
516.423	1	20
516.593	1	17
516.763	1	30
516.933	1	11
517.104	1	19
517.274	1	8
517.444	1	18
517.614	1	5
517.784	1	19
517.954	1	16
518.124	1	17
518.294	1	15
518.465	1	17
518.635	1	5
518.805	1	6
518.975	1	18
519.145	1	20
519.315	1	20
519.485	1	15
519.656	1	28
519.826	1	19
519.996	1	8
520.166	1	16
520.336	1	30
520.506	1	13
520.676	1	7
520.846	1	26
521.017	1	10
521.187	1	15
521.357	1	21
521.527	1	13
521.697	1	18
521.867	1	3
522.037	1	23
522.207	1	17
522.377	1	12
522.548	1	16
522.718	1	10
522.888	1	24
523.058	1	12
523.228	1	13
523.398	1	21
523.568	1	14
523.738	1	17
523.909	1	23
524.079	1	13
524.249	1	24
524.419	1	12
524.589	1	12
524.759	1	11
524.929	1	6
525.099	1	16
525.269	1	15
525.439	1	16
525.610	1	21
525.780	1	12
525.950	1	17
526.120	1	7
526.290	1	18
526.460	1	8
526.630	1	19
526.800	1	17
526.970	1	13
527.140	1	19
527.311	1	5
527.481	1	5
527.651	1	22
527.821	1	7
527.991	1	29
528.161	1	14
528.331	1	1
528.501	1	17
528.671	1	4
528.841	1	12
529.011	1	12
529.181	1	19
529.352	1	17
529.522	1	6
529.692	1	24
529.862	1	14
530.032	1	10
530.202	1	18
530.372	1	13
530.542	1	10
530.712	1	16
530.882	1	17
531.052	1	17
531.222	1	10
531.392	1	9
531.563	1	15
531.733	1	12
531.903	1	16
532.073	1	16
532.243	1	14
532.413	1	10
532.583	1	14
532.753	1	6
532.923	1	2
533.093	1	20
533.263	1	19
533.433	1	3
533.603	1	8
533.773	1	1
533.943	1	13
534.113	1	8
534.284	1	15
534.454	1	18
534.624	1	21
534.794	1	6
534.964	1	20
535.134	1	8
535.304	1	9
535.474	1	23
535.644	1	5
535.814	1	1
535.984	1	11
536.154	1	8
536.324	1	10
536.494	1	17
536.664	1	20
536.834	1	6
537.004	1	13
537.174	1	23
537.344	1	9
537.514	1	10
537.685	1	11
537.855	1	14
538.025	1	12
538.195	1	4
538.365	1	12
538.535	1	6
538.705	1	12
538.875	1	18
539.045	1	16
539.215	1	15
539.385	1	8
539.555	1	11
539.725	1	8
539.895	1	12
540.065	1	18
540.235	1	19
540.405	1	6
540.575	1	8
540.745	1	9
540.915	1	13
541.085	1	15
541.255	1	6
541.425	1	19
541.595	1	15
541.765	1	7
541.935	1	14
542.105	1	8
542.275	1	17
542.445	1	-3
542.615	1	17
542.785	1	16
542.955	1	9
543.125	1	5
543.295	1	14
543.465	1	24
543.635	1	14
543.805	1	19
543.975	1	11
544.145	1	18
544.315	1	15
544.485	1	14
544.655	1	6
544.825	1	0
544.995	1	12
545.165	1	2
545.335	1	13
545.505	1	9
545.675	1	17
545.845	1	6
546.015	1	15
546.185	1	18
546.355	1	22
546.525	1	8
546.695	1	15
546.865	1	2
547.035	1	12
547.205	1	2
547.375	1	18
547.545	1	14
547.715	1	8
547.885	1	13
548.055	1	5
548.225	1	12
548.395	1	1
548.565	1	14
548.735	1	12
548.905	1	0
549.075	1	13
549.245	1	1
549.415	1	6
549.585	1	9
549.755	1	20
549.925	1	5
550.095	1	19
550.265	1	6
550.435	1	2
550.605	1	7
550.775	1	6
550.945	1	16
551.115	1	7
551.285	1	13
551.455	1	-4
551.625	1	9
551.795	1	14
551.965	1	14
552.135	1	5
552.305	1	2
552.475	1	9
552.645	1	-1
552.815	1	-2
552.985	1	10
553.155	1	17
553.325	1	16
553.495	1	14
553.665	1	4
553.835	1	7
554.004	1	6
554.174	1	9
554.344	1	6
554.514	1	6
554.684	1	7
554.854	1	9
555.024	1	-1
555.194	1	8
555.364	1	4
555.534	1	12
555.704	1	10
555.874	1	10
556.044	1	7
556.214	1	-5
556.384	1	2
556.554	1	16
556.724	1	11
556.894	1	4
557.064	1	9
557.234	1	-1
557.404	1	6
557.573	1	13
557.743	1	9
557.913	1	4
558.083	1	7
558.253	1	12
558.423	1	9
558.593	1	10
558.763	1	8
558.933	1	7
559.103	1	9
559.273	1	12
559.443	1	9
559.613	1	10
559.783	1	-3
559.953	1	0
560.122	1	10
560.292	1	5
560.462	1	14
560.632	1	12
560.802	1	11
560.972	1	11
561.142	1	5
561.312	1	-2
561.482	1	8
561.652	1	11
561.822	1	-2
561.992	1	3
562.162	1	2
562.331	1	6
562.501	1	-6
562.671	1	14
562.841	1	-10
563.011	1	13
563.181	1	0
563.351	1	-3
563.521	1	8
563.691	1	0
563.861	1	7
564.031	1	9
564.201	1	16
564.370	1	-1
564.540	1	1
564.710	1	6
564.880	1	10
565.050	1	14
565.220	1	5
565.390	1	5
565.560	1	9
565.730	1	-1
565.900	1	18
566.069	1	20
566.239	1	10
566.409	1	14
566.579	1	12
566.749	1	13
566.919	1	16
567.089	1	12
567.259	1	17
567.429	1	7
567.599	1	5
567.768	1	9
567.938	1	9
568.108	1	5
568.278	1	9
568.448	1	3
568.618	1	-6
568.788	1	5
568.958	1	4
569.128	1	5
569.297	1	6
569.467	1	6
569.637	1	15
569.807	1	3
569.977	1	14
570.147	1	16
570.317	1	7
570.487	1	13
570.656	1	10
570.826	1	-3
570.996	1	8
571.166	1	8
571.336	1	0
571.506	1	7
571.676	1	11
571.846	1	10
572.015	1	15
572.185	1	-4
572.355	1	3
572.525	1	6
572.695	1	13
572.865	1	0
573.035	1	4
573.205	1	1
573.374	1	3
573.544	1	3
573.714	1	13
573.884	1	9
574.054	1	7
574.224	1	8
574.394	1	3
574.563	1	1
574.733	1	0
574.903	1	5
575.073	1	-1
575.243	1	9
575.413	1	12
575.583	1	-2
575.752	1	8
575.922	1	5
576.092	1	10
576.262	1	11
576.432	1	12
576.602	1	9
576.772	1	13
576.941	1	6
577.111	1	3
577.281	1	-3
577.451	1	-1
577.621	1	17
577.791	1	7
577.960	1	3
578.130	1	4
578.300	1	11
578.470	1	17
578.640	1	7
578.810	1	-1
578.979	1	6
579.149	1	7
579.319	1	5
579.489	1	8
579.659	1	3
579.829	1	-1
579.998	1	11
580.168	1	10
580.338	1	2
580.508	1	10
580.678	1	13
580.848	1	5
581.017	1	5
581.187	1	3
581.357	1	-5
581.527	1	16
581.697	1	13
581.867	1	6
582.036	1	-5
582.206	1	2
582.376	1	16
582.546	1	-11
582.716	1	-6
582.885	1	-3
583.055	1	11
583.225	1	0
583.395	1	10
583.565	1	1
583.735	1	13
583.904	1	5
584.074	1	11
584.244	1	10
584.414	1	5
584.584	1	10
584.753	1	1
584.923	1	11
585.093	1	11
585.263	1	1
585.433	1	16
585.602	1	1
585.772	1	-1
585.942	1	1
586.112	1	6
586.282	1	2
586.451	1	6
586.621	1	-10
586.791	1	6
586.961	1	6
587.131	1	4
587.300	1	6
587.470	1	16
587.640	1	14
587.810	1	3
587.980	1	-3
588.149	1	10
588.319	1	11
588.489	1	2
588.659	1	3
588.829	1	10
588.998	1	27
589.168	1	10
589.338	1	8
589.508	1	6
589.677	1	-3
589.847	1	1
590.017	1	17
590.187	1	3
590.357	1	11
590.526	1	15
590.696	1	11
590.866	1	5
591.036	1	0
591.205	1	18
591.375	1	0
591.545	1	-2
591.715	1	6
591.885	1	3
592.054	1	14
592.224	1	8
592.394	1	-2
592.564	1	2
592.733	1	7
592.903	1	2
593.073	1	13
593.243	1	16
593.412	1	12
593.582	1	-5
593.752	1	-1
593.922	1	15
594.091	1	10
594.261	1	0
594.431	1	13
594.601	1	8
594.771	1	5
594.940	1	4
595.110	1	2
595.280	1	9
595.450	1	1
595.619	1	5
595.789	1	2
595.959	1	19
596.129	1	3
596.298	1	6
596.468	1	11
596.638	1	19
596.808	1	5
596.977	1	6
597.147	1	9
597.317	1	5
597.487	1	11
597.656	1	14
597.826	1	11
597.996	1	15
598.166	1	-4
598.335	1	-9
598.505	1	4
598.675	1	2
598.844	1	15
599.014	1	10
599.184	1	16
599.354	1	-1
599.523	1	3
599.693	1	1
599.863	1	12
600.033	1	2
600.202	1	11
600.372	1	16
600.542	1	12
600.712	1	4
600.881	1	7
601.051	1	16
601.221	1	13
601.390	1	-1
601.560	1	11
601.730	1	15
601.900	1	4
602.069	1	11
602.239	1	3
602.409	1	1
602.578	1	-1
602.748	1	4
602.918	1	9
603.088	1	9
603.257	1	0
603.427	1	0
603.597	1	2
603.767	1	7
603.936	1	7
604.106	1	10
604.276	1	4
604.445	1	12
604.615	1	4
604.785	1	1
604.954	1	6
605.124	1	5
605.294	1	2
605.464	1	-3
605.633	1	2
605.803	1	11
605.973	1	3
606.142	1	7
606.312	1	10
606.482	1	10
606.652	1	14
606.821	1	-6
606.991	1	9
607.161	1	9
607.330	1	10
607.500	1	9
607.670	1	-1
607.839	1	9
608.009	1	19
608.179	1	3
608.348	1	10
608.518	1	-1
608.688	1	10
608.858	1	0
609.027	1	-7
609.197	1	3
609.367	1	7
609.536	1	9
609.706	1	2
609.876	1	3
610.045	1	14
610.215	1	4
610.385	1	12
610.554	1	5
610.724	1	9
610.894	1	-5
611.063	1	-1
611.233	1	4
611.403	1	1
611.572	1	3
611.742	1	9
611.912	1	5
612.081	1	7
612.251	1	12
612.421	1	13
612.590	1	4
612.760	1	7
612.930	1	4
613.099	1	-5
613.269	1	19
613.439	1	8
613.608	1	6
613.778	1	17
613.948	1	10
614.117	1	7
614.287	1	20
614.457	1	7
614.626	1	2
614.796	1	11
614.966	1	3
615.135	1	10
615.305	1	10
615.475	1	7
615.644	1	5
615.814	1	6
615.984	1	3
616.153	1	15
616.323	1	12
616.493	1	5
616.662	1	11
616.832	1	11
617.002	1	9
617.171	1	16
617.341	1	8
617.511	1	8
617.680	1	-3
617.850	1	1
618.019	1	16
618.189	1	17
618.359	1	11
618.528	1	8
618.698	1	5
618.868	1	-1
619.037	1	11
619.207	1	4
619.377	1	3
619.546	1	2
619.716	1	11
619.885	1	1
620.055	1	1
620.225	1	6
620.394	1	-2
620.564	1	10
620.734	1	2
620.903	1	9
621.073	1	14
621.242	1	18
621.412	1	10
621.582	1	1
621.751	1	5
621.921	1	12
622.091	1	5
622.260	1	5
622.430	1	15
622.599	1	7
622.769	1	8
622.939	1	15
623.108	1	13
623.278	1	2
623.448	1	8
623.617	1	4
623.787	1	2
623.956	1	16
624.126	1	4
624.296	1	8
624.465	1	17
624.635	1	17
624.804	1	5
624.974	1	22
625.144	1	4
625.313	1	0
625.483	1	0
625.652	1	11
625.822	1	-1
625.992	1	5
626.161	1	17
626.331	1	13
626.501	1	16
626.670	1	4
626.840	1	5
627.009	1	4
627.179	1	26
627.348	1	16
627.518	1	9
627.688	1	8
627.857	1	25
628.027	1	2
628.196	1	6
628.366	1	13
628.536	1	16
628.705	1	4
628.875	1	14
629.044	1	6
629.214	1	9
629.384	1	8
629.553	1	24
629.723	1	14
629.892	1	7
630.062	1	8
630.232	1	2
630.401	1	21
630.571	1	11
630.740	1	7
630.910	1	7
631.079	1	4
631.249	1	14
631.419	1	7
631.588	1	4
631.758	1	9
631.927	1	4
632.097	1	6
632.266	1	13
632.436	1	10
632.606	1	8
632.775	1	18
632.945	1	16
633.114	1	8
633.284	1	19
633.453	1	15
633.623	1	18
633.793	1	11
633.962	1	14
634.132	1	10
634.301	1	11
634.471	1	21
634.640	1	11
634.810	1	19
634.979	1	18
635.149	1	15
635.319	1	11
635.488	1	5
635.658	1	13
635.827	1	5
635.997	1	8
636.166	1	9
636.336	1	0
636.505	1	15
636.675	1	4
636.845	1	27
637.014	1	12
637.184	1	10
637.353	1	15
637.523	1	19
637.692	1	10
637.862	1	6
638.031	1	8
638.201	1	20
638.370	1	12
638.540	1	12
638.710	1	11
638.879	1	-9
639.049	1	10
639.218	1	12
639.388	1	13
639.557	1	8
639.727	1	13
639.896	1	14
640.066	1	8
640.235	1	4
640.405	1	14
640.574	1	13
640.744	1	1
640.914	1	11
641.083	1	15
641.253	1	7
641.422	1	10
641.592	1	27
641.761	1	11
641.931	1	16
642.100	1	24
642.270	1	3
642.439	1	8
642.609	1	21
642.778	1	14
642.948	1	12
643.117	1	19
643.287	1	10
643.456	1	9
643.626	1	21
643.795	1	11
643.965	1	15
644.134	1	4
644.304	1	3
644.473	1	10
644.643	1	15
644.812	1	11
644.982	1	16
645.151	1	16
645.321	1	4
645.490	1	16
645.660	1	2
645.829	1	10
645.999	1	14
646.168	1	16
646.338	1	18
646.507	1	11
646.677	1	12
646.846	1	22
647.016	1	1
647.185	1	22
647.355	1	-5
647.524	1	16
647.694	1	17
647.863	1	10
648.033	1	16
648.202	1	11
648.372	1	13
648.541	1	14
648.711	1	16
648.880	1	2
649.050	1	9
649.219	1	7
649.389	1	12
649.558	1	18
649.728	1	19
649.897	1	13
650.067	1	13
650.236	1	22
650.406	1	11
650.575	1	18
650.745	1	16
650.914	1	5
651.084	1	6
651.253	1	10
651.423	1	16
651.592	1	1
651.762	1	9
651.931	1	28
652.101	1	17
652.270	1	25
652.440	1	3
652.609	1	0
652.778	1	15
652.948	1	17
653.117	1	18
653.287	1	13
653.456	1	21
653.626	1	12
653.795	1	18
653.965	1	16
654.134	1	25
654.304	1	-2
654.473	1	18
654.643	1	5
654.812	1	19
654.982	1	5
655.151	1	17
655.320	1	16
655.490	1	12
655.659	1	16
655.829	1	16
655.998	1	10
656.168	1	13
656.337	1	13
656.507	1	9
656.676	1	21
656.846	1	21
657.015	1	20
657.184	1	22
657.354	1	15
657.523	1	9
657.693	1	24
657.862	1	10
658.032	1	20
658.201	1	9
658.371	1	23
658.540	1	15
658.709	1	14
658.879	1	22
659.048	1	20
659.218	1	18
659.387	1	21
659.557	1	10
659.726	1	17
659.895	1	14
660.065	1	10
660.234	1	10
660.404	1	11
660.573	1	7
660.743	1	17
660.912	1	19
661.081	1	20
661.251	1	19
661.420	1	25
661.590	1	26
661.759	1	19
661.929	1	10
662.098	1	20
662.267	1	12
662.437	1	24
662.606	1	14
662.776	1	18
662.945	1	22
663.115	1	18
663.284	1	14
663.453	1	17
663.623	1	14
663.792	1	17
663.962	1	12
664.131	1	28
664.300	1	32
664.470	1	13
664.639	1	22
664.809	1	12
664.978	1	20
665.148	1	19
665.317	1	13
665.486	1	22
665.656	1	8
665.825	1	27
665.995	1	14
666.164	1	12
666.333	1	15
666.503	1	24
666.672	1	10
666.842	1	9
667.011	1	7
667.180	1	11
667.350	1	12
667.519	1	15
667.689	1	27
667.858	1	14
668.027	1	18
668.197	1	14
668.366	1	4
668.536	1	13
668.705	1	13
668.874	1	20
669.044	1	7
669.213	1	25
669.382	1	18
669.552	1	31
669.721	1	20
669.891	1	17
670.060	1	11
670.229	1	32
670.399	1	2
670.568	1	28
670.738	1	20
670.907	1	4
671.076	1	10
671.246	1	18
671.415	1	16
671.584	1	16
671.754	1	21
671.923	1	15
672.093	1	21
672.262	1	8
672.431	1	18
672.601	1	13
672.770	1	3
672.939	1	26
673.109	1	17
673.278	1	18
673.448	1	21
673.617	1	17
673.786	1	21
