325.333	1	2
325.504	1	3
325.675	1	12
325.846	1	2
326.017	1	-1
326.188	1	13
326.359	1	7
326.531	1	-9
326.702	1	3
326.873	1	6
327.044	1	1
327.215	1	-5
327.386	1	-3
327.557	1	-8
327.728	1	3
327.899	1	4
328.070	1	10
328.241	1	5
328.412	1	-5
328.583	1	3
328.754	1	3
328.926	1	4
329.097	1	-19
329.268	1	-1
329.439	1	-3
329.610	1	3
329.781	1	-4
329.952	1	11
330.123	1	2
330.294	1	-2
330.465	1	-2
330.636	1	-5
330.807	1	-8
330.978	1	-6
331.149	1	-6
331.320	1	2
331.492	1	-1
331.663	1	-2
331.834	1	10
332.005	1	0
332.176	1	14
332.347	1	3
332.518	1	-11
332.689	1	4
332.860	1	-6
333.031	1	1
333.202	1	2
333.373	1	7
333.544	1	-2
333.715	1	3
333.886	1	-2
334.057	1	6
334.228	1	-6
334.399	1	-3
334.570	1	5
334.741	1	-14
334.912	1	6
335.084	1	22
335.255	1	5
335.426	1	1
335.597	1	-4
335.768	1	-6
335.939	1	-2
336.110	1	-4
336.281	1	-4
336.452	1	-13
336.623	1	3
336.794	1	2
336.965	1	-6
337.136	1	10
337.307	1	-2
337.478	1	-5
337.649	1	1
337.820	1	-7
337.991	1	-8
338.162	1	1
338.333	1	-6
338.504	1	-4
338.675	1	3
338.846	1	2
339.017	1	-5
339.188	1	-8
339.359	1	-4
339.530	1	-1
339.701	1	2
339.872	1	9
340.043	1	-5
340.214	1	-1
340.385	1	1
340.556	1	-4
340.727	1	4
340.898	1	8
341.069	1	2
341.240	1	-2
341.411	1	1
341.582	1	-1
341.753	1	-13
341.924	1	-2
342.095	1	-1
342.266	1	7
342.437	1	5
342.608	1	-4
342.779	1	9
342.950	1	-2
343.121	1	3
343.292	1	0
343.463	1	-4
343.634	1	-7
343.805	1	13
343.976	1	-3
344.147	1	-3
344.318	1	2
344.489	1	4
344.660	1	7
344.831	1	0
345.002	1	-5
345.173	1	7
345.344	1	1
345.515	1	2
345.686	1	4
345.857	1	7
346.028	1	-5
346.199	1	-10
346.370	1	-4
346.541	1	4
346.712	1	-8
346.883	1	5
347.054	1	7
347.225	1	-5
347.396	1	0
347.567	1	-14
347.738	1	-11
347.909	1	9
348.080	1	-3
348.251	1	8
348.422	1	3
348.593	1	3
348.764	1	-2
348.935	1	-5
349.106	1	-3
349.277	1	-3
349.448	1	-3
349.619	1	4
349.790	1	3
349.961	1	6
350.132	1	5
350.303	1	2
350.474	1	10
350.645	1	-5
350.816	1	1
350.987	1	3
351.157	1	-8
351.328	1	2
351.499	1	-2
351.670	1	-1
351.841	1	9
352.012	1	1
352.183	1	10
352.354	1	5
352.525	1	2
352.696	1	1
352.867	1	1
353.038	1	-3
353.209	1	-2
353.380	1	0
353.551	1	-7
353.722	1	-1
353.893	1	-7
354.064	1	9
354.235	1	-3
354.406	1	-12
354.576	1	-1
354.747	1	-1
354.918	1	3
355.089	1	-1
355.260	1	-1
355.431	1	10
355.602	1	-6
355.773	1	-1
355.944	1	4
356.115	1	-3
356.286	1	-1
356.457	1	7
356.628	1	-5
356.799	1	-4
356.970	1	7
357.141	1	-6
357.311	1	-9
357.482	1	3
357.653	1	2
357.824	1	7
357.995	1	-1
358.166	1	-7
358.337	1	-2
358.508	1	9
358.679	1	0
358.850	1	4
359.021	1	-7
359.192	1	-12
359.363	1	-3
359.533	1	-4
359.704	1	-2
359.875	1	-3
360.046	1	-9
360.217	1	-7
360.388	1	4
360.559	1	2
360.730	1	1
360.901	1	-1
361.072	1	11
361.243	1	1
361.414	1	-2
361.584	1	-4
361.755	1	4
361.926	1	-3
362.097	1	6
362.268	1	0
362.439	1	-9
362.610	1	7
362.781	1	1
362.952	1	-12
363.123	1	-3
363.293	1	-6
363.464	1	3
363.635	1	10
363.806	1	-3
363.977	1	2
364.148	1	-1
364.319	1	0
364.490	1	11
364.661	1	-2
364.832	1	5
365.002	1	-4
365.173	1	9
365.344	1	16
365.515	1	-4
365.686	1	-6
365.857	1	-1
366.028	1	9
366.199	1	-13
366.370	1	-1
366.540	1	-8
366.711	1	-19
366.882	1	-10
367.053	1	-1
367.224	1	9
367.395	1	1
367.566	1	19
367.737	1	8
367.908	1	8
368.078	1	-3
368.249	1	5
368.420	1	-6
368.591	1	-14
368.762	1	4
368.933	1	7
369.104	1	-14
369.274	1	0
369.445	1	-7
369.616	1	2
369.787	1	2
369.958	1	6
370.129	1	-8
370.300	1	5
370.471	1	1
370.641	1	5
370.812	1	1
370.983	1	-3
371.154	1	-2
371.325	1	7
371.496	1	-3
371.667	1	4
371.837	1	-10
372.008	1	4
372.179	1	6
372.350	1	8
372.521	1	-1
372.692	1	-5
372.863	1	2
373.033	1	-10
373.204	1	-12
373.375	1	-2
373.546	1	3
373.717	1	6
373.888	1	5
374.059	1	10
374.229	1	1
374.400	1	-5
374.571	1	1
374.742	1	7
374.913	1	1
375.084	1	-5
375.254	1	10
375.425	1	2
375.596	1	-1
375.767	1	-7
375.938	1	9
376.109	1	0
376.279	1	-13
376.450	1	9
376.621	1	1
376.792	1	-2
376.963	1	7
377.134	1	8
377.304	1	0
377.475	1	-6
377.646	1	-1
377.817	1	2
377.988	1	-11
378.159	1	4
378.329	1	8
378.500	1	-5
378.671	1	-4
378.842	1	-4
379.013	1	-14
379.184	1	5
379.354	1	9
379.525	1	-6
379.696	1	5
379.867	1	-4
380.038	1	7
380.209	1	-4
380.379	1	-4
380.550	1	1
380.721	1	5
380.892	1	-7
381.063	1	1
381.233	1	10
381.404	1	0
381.575	1	2
381.746	1	4
381.917	1	-3
382.087	1	-1
382.258	1	-4
382.429	1	4
382.600	1	9
382.771	1	-2
382.941	1	-7
383.112	1	-4
383.283	1	5
383.454	1	3
383.625	1	-11
383.795	1	1
383.966	1	-2
384.137	1	8
384.308	1	7
384.479	1	11
384.649	1	0
384.820	1	5
384.991	1	1
385.162	1	4
385.333	1	-13
385.503	1	-5
385.674	1	-9
385.845	1	9
386.016	1	2
386.187	1	1
386.357	1	2
386.528	1	10
386.699	1	-5
386.870	1	14
387.041	1	-1
387.211	1	-3
387.382	1	5
387.553	1	-2
387.724	1	-4
387.894	1	0
388.065	1	-5
388.236	1	6
388.407	1	-3
388.578	1	-10
388.748	1	-6
388.919	1	19
389.090	1	-3
389.261	1	6
389.431	1	8
389.602	1	3
389.773	1	4
389.944	1	1
390.114	1	2
390.285	1	0
390.456	1	1
390.627	1	-6
390.798	1	2
390.968	1	-4
391.139	1	-4
391.310	1	-12
391.481	1	-1
391.651	1	0
391.822	1	-6
391.993	1	-2
392.164	1	-3
392.334	1	-3
392.505	1	3
392.676	1	0
392.847	1	-8
393.017	1	8
393.188	1	2
393.359	1	-13
393.530	1	1
393.700	1	-1
393.871	1	-11
394.042	1	-3
394.213	1	6
394.383	1	-2
394.554	1	13
394.725	1	7
394.896	1	-2
395.066	1	-3
395.237	1	-5
395.408	1	-6
395.579	1	0
395.749	1	-9
395.920	1	-1
396.091	1	2
396.262	1	7
396.432	1	-4
396.603	1	8
396.774	1	4
396.945	1	-4
397.115	1	-1
397.286	1	-5
397.457	1	-4
397.627	1	4
397.798	1	-1
397.969	1	-5
398.140	1	-4
398.310	1	-8
398.481	1	6
398.652	1	-2
398.823	1	-16
398.993	1	-14
399.164	1	2
399.335	1	15
399.505	1	1
399.676	1	-3
399.847	1	-7
400.018	1	-5
400.188	1	-6
400.359	1	-3
400.530	1	-1
400.700	1	-8
400.871	1	-11
401.042	1	-5
401.213	1	4
401.383	1	-7
401.554	1	-2
401.725	1	5
401.895	1	-7
402.066	1	2
402.237	1	3
402.408	1	10
402.578	1	0
402.749	1	6
402.920	1	7
403.090	1	-1
403.261	1	-6
403.432	1	-2
403.603	1	1
403.773	1	3
403.944	1	12
404.115	1	9
404.285	1	13
404.456	1	-1
404.627	1	0
404.797	1	-8
404.968	1	3
405.139	1	0
405.310	1	9
405.480	1	-7
405.651	1	-7
405.822	1	1
405.992	1	-11
406.163	1	-4
406.334	1	-5
406.504	1	3
406.675	1	9
406.846	1	-1
407.016	1	3
407.187	1	1
407.358	1	-5
407.528	1	-1
407.699	1	-12
407.870	1	-12
408.041	1	4
408.211	1	7
408.382	1	-11
408.553	1	-8
408.723	1	5
408.894	1	-14
409.065	1	2
409.235	1	-2
409.406	1	1
409.577	1	-7
409.747	1	7
409.918	1	-7
410.089	1	-1
410.259	1	-1
410.430	1	-7
410.601	1	-6
410.771	1	6
410.942	1	1
411.113	1	1
411.283	1	-6
411.454	1	5
411.625	1	4
411.795	1	5
411.966	1	-5
412.137	1	-1
412.307	1	-8
412.478	1	-4
412.649	1	7
412.819	1	8
412.990	1	0
413.161	1	-1
413.331	1	-5
413.502	1	3
413.672	1	-2
413.843	1	2
414.014	1	-4
414.184	1	1
414.355	1	-4
414.526	1	-5
414.696	1	4
414.867	1	-7
415.038	1	-13
415.208	1	-4
415.379	1	4
415.550	1	13
415.720	1	-9
415.891	1	5
416.062	1	-4
416.232	1	-3
416.403	1	-2
416.573	1	-1
416.744	1	-10
416.915	1	6
417.085	1	-3
417.256	1	8
417.427	1	-5
417.597	1	2
417.768	1	-11
417.939	1	-5
418.109	1	0
418.280	1	0
418.450	1	2
418.621	1	-9
418.792	1	0
418.962	1	-1
419.133	1	12
419.304	1	-3
419.474	1	-13
419.645	1	2
419.815	1	1
419.986	1	6
420.157	1	11
420.327	1	4
420.498	1	8
420.669	1	3
420.839	1	10
421.010	1	6
421.180	1	-5
421.351	1	-2
421.522	1	-1
421.692	1	0
421.863	1	7
422.033	1	2
422.204	1	2
422.375	1	-9
422.545	1	4
422.716	1	0
422.886	1	-2
423.057	1	-3
423.228	1	10
423.398	1	-8
423.569	1	11
423.740	1	-4
423.910	1	-18
424.081	1	-6
424.251	1	3
424.422	1	-3
424.593	1	-14
424.763	1	9
424.934	1	2
425.104	1	5
425.275	1	3
425.445	1	-5
425.616	1	3
425.787	1	-7
425.957	1	-3
426.128	1	7
426.298	1	7
426.469	1	-9
426.640	1	-4
426.810	1	5
426.981	1	-1
427.151	1	3
427.322	1	8
427.493	1	8
427.663	1	3
427.834	1	-14
428.004	1	-4
428.175	1	-1
428.345	1	3
428.516	1	-2
428.687	1	2
428.857	1	-11
429.028	1	-2
429.198	1	12
429.369	1	2
429.540	1	1
429.710	1	-2
429.881	1	-7
430.051	1	4
430.222	1	-3
430.392	1	-3
430.563	1	7
430.734	1	10
430.904	1	5
431.075	1	8
431.245	1	-7
431.416	1	10
431.586	1	-5
431.757	1	-9
431.927	1	3
432.098	1	-10
432.269	1	-2
432.439	1	-3
432.610	1	-5
432.780	1	6
432.951	1	-8
433.121	1	-2
433.292	1	3
433.462	1	1
433.633	1	-1
433.804	1	6
433.974	1	-2
434.145	1	12
434.315	1	-2
434.486	1	-3
434.656	1	1
434.827	1	0
434.997	1	-9
435.168	1	6
435.339	1	-1
435.509	1	0
435.680	1	1
435.850	1	-6
436.021	1	0
436.191	1	2
436.362	1	-10
436.532	1	5
436.703	1	-1
436.873	1	5
437.044	1	-12
437.214	1	-1
437.385	1	5
437.556	1	-10
437.726	1	7
437.897	1	11
438.067	1	-5
438.238	1	1
438.408	1	3
438.579	1	-11
438.749	1	0
438.920	1	-1
439.090	1	-1
439.261	1	5
439.431	1	-4
439.602	1	-5
439.772	1	-1
439.943	1	8
440.113	1	-1
440.284	1	1
440.455	1	-1
440.625	1	-4
440.796	1	-2
440.966	1	-1
441.137	1	0
441.307	1	1
441.478	1	8
441.648	1	1
441.819	1	0
441.989	1	4
442.160	1	11
442.330	1	11
442.501	1	2
442.671	1	-7
442.842	1	-18
443.012	1	-3
443.183	1	4
443.353	1	-5
443.524	1	4
443.694	1	7
443.865	1	-3
444.035	1	0
444.206	1	-1
444.376	1	-4
444.547	1	6
444.717	1	3
444.888	1	0
445.058	1	3
445.229	1	9
445.399	1	5
445.570	1	-4
445.740	1	-7
445.911	1	2
446.081	1	-5
446.252	1	7
446.422	1	-9
446.593	1	0
446.763	1	-3
446.934	1	-7
447.104	1	0
447.275	1	4
447.445	1	-2
447.616	1	6
447.786	1	-3
447.957	1	7
448.127	1	4
448.298	1	1
448.468	1	-11
448.639	1	-3
448.809	1	-1
448.979	1	-6
449.150	1	9
449.320	1	1
449.491	1	11
449.661	1	-12
449.832	1	0
450.002	1	4
450.173	1	-6
450.343	1	6
450.514	1	6
450.684	1	-3
450.855	1	-6
451.025	1	8
451.196	1	3
451.366	1	2
451.537	1	-6
451.707	1	-8
451.878	1	0
452.048	1	11
452.218	1	6
452.389	1	6
452.559	1	-1
452.730	1	9
452.900	1	5
453.071	1	-7
453.241	1	4
453.412	1	-4
453.582	1	3
453.753	1	-1
453.923	1	10
454.093	1	-6
454.264	1	11
454.434	1	-2
454.605	1	2
454.775	1	3
454.946	1	-1
455.116	1	-4
455.287	1	-6
455.457	1	1
455.628	1	-1
455.798	1	3
455.968	1	16
456.139	1	2
456.309	1	2
456.480	1	-1
456.650	1	-9
456.821	1	-10
456.991	1	-2
457.161	1	-4
457.332	1	-3
457.502	1	-13
457.673	1	9
457.843	1	1
458.014	1	-4
458.184	1	-8
458.355	1	-4
458.525	1	8
458.695	1	-2
458.866	1	4
459.036	1	-1
459.207	1	-3
459.377	1	-6
459.548	1	-6
459.718	1	-9
459.888	1	7
460.059	1	8
460.229	1	-3
460.400	1	-1
460.570	1	0
460.740	1	7
460.911	1	3
461.081	1	0
461.252	1	-8
461.422	1	-6
461.593	1	-1
461.763	1	-1
461.933	1	4
462.104	1	-6
462.274	1	-13
462.445	1	5
462.615	1	4
462.785	1	-6
462.956	1	2
463.126	1	8
463.297	1	-9
463.467	1	-1
463.638	1	1
463.808	1	-7
463.978	1	-9
464.149	1	-3
464.319	1	0
464.490	1	4
464.660	1	4
464.830	1	-8
465.001	1	-3
465.171	1	-5
465.342	1	3
465.512	1	-10
465.682	1	-3
465.853	1	6
466.023	1	-11
466.194	1	10
466.364	1	4
466.534	1	2
466.705	1	-1
466.875	1	-4
467.045	1	-8
467.216	1	20
467.386	1	3
467.557	1	-11
467.727	1	-8
467.897	1	2
468.068	1	-1
468.238	1	0
468.409	1	-12
468.579	1	8
468.749	1	-7
468.920	1	-11
469.090	1	-2
469.260	1	-1
469.431	1	3
469.601	1	9
469.772	1	-5
469.942	1	-13
470.112	1	3
470.283	1	-2
470.453	1	-6
470.623	1	1
470.794	1	-1
470.964	1	7
471.135	1	9
471.305	1	-9
471.475	1	-4
471.646	1	-10
471.816	1	-3
471.986	1	-4
472.157	1	8
472.327	1	-8
472.497	1	-7
472.668	1	-6
472.838	1	0
473.009	1	4
473.179	1	-4
473.349	1	-12
473.520	1	8
473.690	1	1
473.860	1	-6
474.031	1	3
474.201	1	1
474.371	1	-3
474.542	1	12
474.712	1	1
474.882	1	-4
475.053	1	9
475.223	1	0
475.394	1	6
475.564	1	-3
475.734	1	-1
475.905	1	8
476.075	1	-3
476.245	1	7
476.416	1	8
476.586	1	11
476.756	1	1
476.927	1	5
477.097	1	1
477.267	1	-6
477.438	1	7
477.608	1	3
477.778	1	8
477.949	1	0
478.119	1	8
478.289	1	11
478.460	1	-5
478.630	1	-6
478.800	1	-2
478.971	1	-9
479.141	1	4
479.311	1	-4
479.482	1	-1
479.652	1	-3
479.822	1	-3
479.993	1	2
480.163	1	13
480.333	1	-5
480.504	1	2
480.674	1	-1
480.844	1	-13
481.015	1	-5
481.185	1	2
481.355	1	3
481.525	1	-2
481.696	1	-7
481.866	1	3
482.036	1	7
482.207	1	-8
482.377	1	-1
482.547	1	12
482.718	1	-1
482.888	1	3
483.058	1	7
483.229	1	-5
483.399	1	-9
483.569	1	-7
483.740	1	9
483.910	1	5
484.080	1	-7
484.250	1	7
484.421	1	6
484.591	1	0
484.761	1	7
484.932	1	1
485.102	1	1
485.272	1	5
485.443	1	0
485.613	1	-5
485.783	1	-5
485.953	1	4
486.124	1	6
486.294	1	11
486.464	1	5
486.635	1	0
486.805	1	4
486.975	1	-5
487.146	1	1
487.316	1	-4
487.486	1	-6
487.656	1	1
487.827	1	3
487.997	1	-8
488.167	1	-2
488.338	1	11
488.508	1	-8
488.678	1	-4
488.848	1	6
489.019	1	-4
489.189	1	1
489.359	1	-16
489.529	1	6
489.700	1	-1
489.870	1	14
490.040	1	-13
490.211	1	-8
490.381	1	15
490.551	1	-1
490.721	1	4
490.892	1	-4
491.062	1	6
491.232	1	4
491.402	1	-11
491.573	1	-7
491.743	1	4
491.913	1	-3
492.084	1	3
492.254	1	-4
492.424	1	-2
492.594	1	1
492.765	1	5
492.935	1	0
493.105	1	0
493.275	1	6
493.446	1	4
493.616	1	-2
493.786	1	-10
493.956	1	-5
494.127	1	-4
494.297	1	-5
494.467	1	-4
494.637	1	-5
494.808	1	0
494.978	1	-7
495.148	1	-3
495.318	1	1
495.489	1	1
495.659	1	4
495.829	1	-1
495.999	1	-9
496.170	1	2
496.340	1	2
496.510	1	0
496.680	1	-5
496.851	1	-2
497.021	1	0
497.191	1	-6
497.361	1	0
497.532	1	-12
497.702	1	-1
497.872	1	-5
498.042	1	4
498.213	1	-2
498.383	1	0
498.553	1	-7
498.723	1	-6
498.894	1	7
499.064	1	2
499.234	1	-3
499.404	1	-1
499.574	1	10
499.745	1	8
499.915	1	0
500.085	1	-3
500.255	1	5
500.426	1	-1
500.596	1	-2
500.766	1	11
500.936	1	3
501.106	1	-6
501.277	1	8
501.447	1	3
501.617	1	3
501.787	1	-1
501.958	1	-3
502.128	1	-3
502.298	1	-3
502.468	1	-5
502.638	1	0
502.809	1	-12
502.979	1	-9
503.149	1	1
503.319	1	-2
503.489	1	0
503.660	1	1
503.830	1	0
504.000	1	8
504.170	1	-11
504.340	1	-5
504.511	1	11
504.681	1	-2
504.851	1	5
505.021	1	4
505.192	1	-2
505.362	1	4
505.532	1	4
505.702	1	-9
505.872	1	-3
506.043	1	-7
506.213	1	-8
506.383	1	1
506.553	1	7
506.723	1	-11
506.893	1	1
507.064	1	6
507.234	1	-7
507.404	1	-1
507.574	1	12
507.744	1	7
507.915	1	-2
508.085	1	10
508.255	1	6
508.425	1	4
508.595	1	4
508.766	1	6
508.936	1	-11
509.106	1	3
509.276	1	0
509.446	1	-12
509.616	1	-14
509.787	1	3
509.957	1	-10
510.127	1	2
510.297	1	4
510.467	1	-10
510.638	1	-4
510.808	1	-11
510.978	1	-6
511.148	1	7
511.318	1	-3
511.488	1	-4
511.659	1	0
511.829	1	-9
511.999	1	-1
512.169	1	3
512.339	1	-3
512.509	1	-2
512.680	1	0
512.850	1	2
513.020	1	4
513.190	1	5
513.360	1	0
513.530	1	-1
513.700	1	12
513.871	1	6
514.041	1	4
514.211	1	6
514.381	1	2
514.551	1	2
514.721	1	-4
514.892	1	4
515.062	1	-5
515.232	1	3
515.402	1	-3
515.572	1	-12
515.742	1	1
515.912	1	4
516.083	1	-7
516.253	1	3
516.423	1	1
516.593	1	4
516.763	1	11
516.933	1	-4
517.104	1	2
517.274	1	-4
517.444	1	-4
517.614	1	-6
517.784	1	4
517.954	1	5
518.124	1	-4
518.294	1	-1
518.465	1	-5
518.635	1	-9
518.805	1	-11
518.975	1	0
519.145	1	-12
519.315	1	-9
519.485	1	-5
519.656	1	2
519.826	1	-2
519.996	1	-13
520.166	1	10
520.336	1	3
520.506	1	-4
520.676	1	-2
520.846	1	3
521.017	1	6
521.187	1	-2
521.357	1	12
521.527	1	-11
521.697	1	-5
521.867	1	-5
522.037	1	16
522.207	1	4
522.377	1	3
522.548	1	-6
522.718	1	5
522.888	1	14
523.058	1	-6
523.228	1	0
523.398	1	11
523.568	1	0
523.738	1	-1
523.909	1	6
524.079	1	1
524.249	1	0
524.419	1	-5
524.589	1	3
524.759	1	-7
524.929	1	-9
525.099	1	6
525.269	1	5
525.439	1	-11
525.610	1	15
525.780	1	4
525.950	1	1
526.120	1	-15
526.290	1	2
526.460	1	-6
526.630	1	-1
526.800	1	-3
526.970	1	-8
527.140	1	3
527.311	1	-4
527.481	1	-7
527.651	1	7
527.821	1	-4
527.991	1	10
528.161	1	11
528.331	1	-1
528.501	1	0
528.671	1	-8
528.841	1	4
529.011	1	0
529.181	1	6
529.352	1	1
529.522	1	-4
529.692	1	2
529.862	1	3
530.032	1	3
530.202	1	-1
530.372	1	5
530.542	1	2
530.712	1	8
530.882	1	5
531.052	1	5
531.222	1	-3
531.392	1	-7
531.563	1	2
531.733	1	-3
531.903	1	-4
532.073	1	2
532.243	1	-3
532.413	1	-4
532.583	1	1
532.753	1	0
532.923	1	-14
533.093	1	6
533.263	1	-11
533.433	1	-3
533.603	1	0
533.773	1	-1
533.943	1	-8
534.113	1	10
534.284	1	-8
534.454	1	1
534.624	1	11
534.794	1	-11
534.964	1	4
535.134	1	-14
535.304	1	-5
535.474	1	9
535.644	1	-9
535.814	1	-12
535.984	1	-3
536.154	1	-5
536.324	1	-4
536.494	1	0
536.664	1	8
536.834	1	-1
537.004	1	-2
537.174	1	1
537.344	1	-2
537.514	1	-1
537.685	1	1
537.855	1	10
538.025	1	1
538.195	1	-2
538.365	1	9
538.535	1	3
538.705	1	3
538.875	1	-1
539.045	1	-3
539.215	1	1
539.385	1	11
539.555	1	3
539.725	1	8
539.895	1	-11
540.065	1	4
540.235	1	2
540.405	1	-4
540.575	1	-9
540.745	1	4
540.915	1	0
541.085	1	4
541.255	1	-1
541.425	1	-3
541.595	1	-5
541.765	1	-1
541.935	1	-6
542.105	1	-12
542.275	1	4
542.445	1	-13
542.615	1	0
542.785	1	0
542.955	1	-2
543.125	1	-5
543.295	1	4
543.465	1	6
543.635	1	-1
543.805	1	5
543.975	1	-3
544.145	1	5
544.315	1	1
544.485	1	4
544.655	1	1
544.825	1	-4
544.995	1	-5
545.165	1	-8
545.335	1	7
545.505	1	-12
545.675	1	14
545.845	1	-4
546.015	1	4
546.185	1	11
546.355	1	-3
546.525	1	1
546.695	1	-7
546.865	1	1
547.035	1	5
547.205	1	-11
547.375	1	2
547.545	1	5
547.715	1	2
547.885	1	2
548.055	1	0
548.225	1	3
548.395	1	3
548.565	1	0
548.735	1	-4
548.905	1	-5
549.075	1	-2
549.245	1	-7
549.415	1	-9
549.585	1	4
549.755	1	-6
549.925	1	-6
550.095	1	2
550.265	1	2
550.435	1	-9
550.605	1	-5
550.775	1	-5
550.945	1	3
551.115	1	0
551.285	1	2
551.455	1	-9
551.625	1	5
551.795	1	7
551.965	1	-9
552.135	1	8
552.305	1	-7
552.475	1	-7
552.645	1	0
552.815	1	-1
552.985	1	2
553.155	1	-4
553.325	1	2
553.495	1	-1
553.665	1	-6
553.835	1	7
554.004	1	1
554.174	1	1
554.344	1	0
554.514	1	9
554.684	1	4
554.854	1	-3
555.024	1	0
555.194	1	-6
555.364	1	7
555.534	1	2
555.704	1	-11
555.874	1	1
556.044	1	0
556.214	1	-17
556.384	1	-16
556.554	1	10
556.724	1	7
556.894	1	4
557.064	1	4
557.234	1	-7
557.404	1	1
557.573	1	-2
557.743	1	-4
557.913	1	-8
558.083	1	-3
558.253	1	-3
558.423	1	0
558.593	1	0
558.763	1	3
558.933	1	-4
559.103	1	1
559.273	1	-2
559.443	1	-4
559.613	1	2
559.783	1	0
559.953	1	-3
560.122	1	5
560.292	1	2
560.462	1	5
560.632	1	4
560.802	1	6
560.972	1	-2
561.142	1	-3
561.312	1	-7
561.482	1	-2
561.652	1	4
561.822	1	-2
561.992	1	-5
562.162	1	-3
562.331	1	4
562.501	1	-15
562.671	1	5
562.841	1	-5
563.011	1	9
563.181	1	-2
563.351	1	-10
563.521	1	-3
563.691	1	-10
563.861	1	-2
564.031	1	1
564.201	1	9
564.370	1	-8
564.540	1	3
564.710	1	-5
564.880	1	8
565.050	1	6
565.220	1	1
565.390	1	8
565.560	1	7
565.730	1	-11
565.900	1	-7
566.069	1	16
566.239	1	-3
566.409	1	7
566.579	1	7
566.749	1	-5
566.919	1	6
567.089	1	7
567.259	1	3
567.429	1	-4
567.599	1	5
567.768	1	-1
567.938	1	1
568.108	1	4
568.278	1	3
568.448	1	3
568.618	1	-8
568.788	1	0
568.958	1	0
569.128	1	6
569.297	1	-2
569.467	1	-9
569.637	1	8
569.807	1	-5
569.977	1	5
570.147	1	6
570.317	1	-13
570.487	1	2
570.656	1	7
570.826	1	-10
570.996	1	-10
571.166	1	11
571.336	1	-6
571.506	1	-1
571.676	1	0
571.846	1	1
572.015	1	0
572.185	1	4
572.355	1	-6
572.525	1	3
572.695	1	0
572.865	1	-13
573.035	1	5
573.205	1	7
573.374	1	-5
573.544	1	1
573.714	1	1
573.884	1	9
574.054	1	-5
574.224	1	4
574.394	1	-2
574.563	1	-6
574.733	1	-1
574.903	1	2
575.073	1	3
575.243	1	7
575.413	1	9
575.583	1	-7
575.752	1	7
575.922	1	-3
576.092	1	-7
576.262	1	3
576.432	1	1
576.602	1	-2
576.772	1	6
576.941	1	-6
577.111	1	-5
577.281	1	-13
577.451	1	-13
577.621	1	8
577.791	1	-4
577.960	1	-9
578.130	1	0
578.300	1	-2
578.470	1	8
578.640	1	1
578.810	1	-8
578.979	1	1
579.149	1	-6
579.319	1	-5
579.489	1	1
579.659	1	-8
579.829	1	-6
579.998	1	6
580.168	1	7
580.338	1	0
580.508	1	1
580.678	1	0
580.848	1	-9
581.017	1	0
581.187	1	-1
581.357	1	-17
581.527	1	0
581.697	1	8
581.867	1	0
582.036	1	-5
582.206	1	3
582.376	1	7
582.546	1	-5
582.716	1	-8
582.885	1	-9
583.055	1	-9
583.225	1	-4
583.395	1	5
583.565	1	-8
583.735	1	-8
583.904	1	3
584.074	1	7
584.244	1	11
584.414	1	-9
584.584	1	2
584.753	1	-6
584.923	1	-8
585.093	1	8
585.263	1	3
585.433	1	4
585.602	1	-8
585.772	1	-8
585.942	1	-1
586.112	1	1
586.282	1	-14
586.451	1	-10
586.621	1	-3
586.791	1	-8
586.961	1	1
587.131	1	11
587.300	1	-8
587.470	1	-2
587.640	1	3
587.810	1	-1
587.980	1	-4
588.149	1	7
588.319	1	1
588.489	1	-2
588.659	1	-10
588.829	1	-2
588.998	1	10
589.168	1	-1
589.338	1	-1
589.508	1	3
589.677	1	-20
589.847	1	-13
590.017	1	15
590.187	1	-9
590.357	1	11
590.526	1	11
590.696	1	-5
590.866	1	11
591.036	1	-3
591.205	1	10
591.375	1	-6
591.545	1	-3
591.715	1	-7
591.885	1	-1
592.054	1	2
592.224	1	-7
592.394	1	1
592.564	1	6
592.733	1	-6
592.903	1	1
593.073	1	-5
593.243	1	5
593.412	1	0
593.582	1	-7
593.752	1	-5
593.922	1	-3
594.091	1	-6
594.261	1	1
594.431	1	-3
594.601	1	-2
594.771	1	6
594.940	1	-5
595.110	1	-7
595.280	1	6
595.450	1	-5
595.619	1	-2
595.789	1	4
595.959	1	5
596.129	1	-8
596.298	1	-4
596.468	1	5
596.638	1	-3
596.808	1	5
596.977	1	0
597.147	1	-4
597.317	1	0
597.487	1	6
597.656	1	-9
597.826	1	-2
597.996	1	1
598.166	1	-5
598.335	1	-14
598.505	1	-2
598.675	1	-11
598.844	1	-2
599.014	1	4
599.184	1	0
599.354	1	-12
599.523	1	4
599.693	1	-3
599.863	1	-2
600.033	1	5
600.202	1	4
600.372	1	-5
600.542	1	-1
600.712	1	-4
600.881	1	-8
601.051	1	13
601.221	1	3
601.390	1	-9
601.560	1	3
601.730	1	6
601.900	1	-1
602.069	1	9
602.239	1	-3
602.409	1	-14
602.578	1	-7
602.748	1	-2
602.918	1	5
603.088	1	7
603.257	1	0
603.427	1	-5
603.597	1	-2
603.767	1	-7
603.936	1	11
604.106	1	-6
604.276	1	-4
604.445	1	3
604.615	1	-10
604.785	1	-10
604.954	1	5
605.124	1	-5
605.294	1	0
605.464	1	1
605.633	1	-3
605.803	1	3
605.973	1	-6
606.142	1	-7
606.312	1	6
606.482	1	-8
606.652	1	6
606.821	1	-3
606.991	1	0
607.161	1	-3
607.330	1	-4
607.500	1	-2
607.670	1	-8
607.839	1	2
608.009	1	5
608.179	1	1
608.348	1	-2
608.518	1	-7
608.688	1	11
608.858	1	-3
609.027	1	-13
609.197	1	2
609.367	1	10
609.536	1	2
609.706	1	1
609.876	1	2
610.045	1	0
610.215	1	2
610.385	1	3
610.554	1	5
610.724	1	4
610.894	1	-3
611.063	1	-7
611.233	1	-4
611.403	1	-1
611.572	1	-8
611.742	1	1
611.912	1	0
612.081	1	-2
612.251	1	8
612.421	1	-5
612.590	1	-2
612.760	1	-4
612.930	1	-12
613.099	1	3
613.269	1	6
613.439	1	-1
613.608	1	0
613.778	1	-4
613.948	1	-1
614.117	1	-7
614.287	1	6
614.457	1	-2
614.626	1	-6
614.796	1	3
614.966	1	-8
615.135	1	-3
615.305	1	8
615.475	1	-8
615.644	1	1
615.814	1	4
615.984	1	-12
616.153	1	-5
616.323	1	-5
616.493	1	-5
616.662	1	14
616.832	1	-3
617.002	1	-7
617.171	1	2
617.341	1	-1
617.511	1	0
617.680	1	-1
617.850	1	-7
618.019	1	1
618.189	1	5
618.359	1	4
618.528	1	6
618.698	1	0
618.868	1	0
619.037	1	-3
619.207	1	3
619.377	1	-12
619.546	1	-8
619.716	1	5
619.885	1	-9
620.055	1	-8
620.225	1	-3
620.394	1	-7
620.564	1	9
620.734	1	1
620.903	1	-5
621.073	1	3
621.242	1	-3
621.412	1	3
621.582	1	0
621.751	1	-2
621.921	1	-5
622.091	1	-4
622.260	1	0
622.430	1	10
622.599	1	-4
622.769	1	1
622.939	1	4
623.108	1	5
623.278	1	-11
623.448	1	-7
623.617	1	-7
623.787	1	-4
623.956	1	4
624.126	1	1
624.296	1	-7
624.465	1	4
624.635	1	11
624.804	1	-3
624.974	1	-6
625.144	1	3
625.313	1	-11
625.483	1	-10
625.652	1	-16
625.822	1	-4
625.992	1	-5
626.161	1	1
626.331	1	0
626.501	1	7
626.670	1	4
626.840	1	2
627.009	1	-11
627.179	1	4
627.348	1	-2
627.518	1	-4
627.688	1	8
627.857	1	2
628.027	1	-13
628.196	1	2
628.366	1	7
628.536	1	6
628.705	1	-10
628.875	1	6
629.044	1	-4
629.214	1	2
629.384	1	-2
629.553	1	6
629.723	1	3
629.892	1	6
630.062	1	12
630.232	1	0
630.401	1	1
630.571	1	-1
630.740	1	-2
630.910	1	0
631.079	1	0
631.249	1	-1
631.419	1	1
631.588	1	-6
631.758	1	10
631.927	1	-6
632.097	1	4
632.266	1	-8
632.436	1	1
632.606	1	-9
632.775	1	2
632.945	1	3
633.114	1	-2
633.284	1	13
633.453	1	-6
633.623	1	-3
633.793	1	5
633.962	1	5
634.132	1	-1
634.301	1	-2
634.471	1	1
634.640	1	6
634.810	1	3
634.979	1	0
635.149	1	4
635.319	1	-3
635.488	1	12
635.658	1	-3
635.827	1	-11
635.997	1	-8
636.166	1	3
636.336	1	-5
636.505	1	7
636.675	1	-2
636.845	1	3
637.014	1	6
637.184	1	6
637.353	1	-6
637.523	1	0
637.692	1	-4
637.862	1	-1
638.031	1	-7
638.201	1	-7
638.370	1	-4
638.540	1	-6
638.710	1	-2
638.879	1	-19
639.049	1	0
639.218	1	-5
639.388	1	-3
639.557	1	-3
639.727	1	0
639.896	1	5
640.066	1	5
640.235	1	5
640.405	1	4
640.574	1	0
640.744	1	-6
640.914	1	3
641.083	1	-5
641.253	1	-9
641.422	1	-1
641.592	1	8
641.761	1	-4
641.931	1	-3
642.100	1	16
642.270	1	-2
642.439	1	1
642.609	1	4
642.778	1	-1
642.948	1	-5
643.117	1	5
643.287	1	-4
643.456	1	-2
643.626	1	12
643.795	1	1
643.965	1	0
644.134	1	-2
644.304	1	-4
644.473	1	4
644.643	1	5
644.812	1	-5
644.982	1	3
645.151	1	-3
645.321	1	-6
645.490	1	10
645.660	1	-10
645.829	1	-1
645.999	1	-2
646.168	1	-2
646.338	1	4
646.507	1	4
646.677	1	3
646.846	1	-7
647.016	1	-10
647.185	1	2
647.355	1	-15
647.524	1	9
647.694	1	7
647.863	1	2
648.033	1	-3
648.202	1	5
648.372	1	0
648.541	1	-5
648.711	1	-3
648.880	1	-9
649.050	1	1
649.219	1	-4
649.389	1	5
649.558	1	0
649.728	1	5
649.897	1	-6
650.067	1	-2
650.236	1	4
650.406	1	0
650.575	1	0
650.745	1	-1
650.914	1	-9
651.084	1	-13
651.253	1	0
651.423	1	2
651.592	1	0
651.762	1	-13
651.931	1	5
652.101	1	3
652.270	1	5
652.440	1	4
652.609	1	-9
652.778	1	-6
652.948	1	3
653.117	1	4
653.287	1	5
653.456	1	11
653.626	1	3
653.795	1	0
653.965	1	1
654.134	1	2
654.304	1	-13
654.473	1	-7
654.643	1	-1
654.812	1	-3
654.982	1	2
655.151	1	-1
655.320	1	3
655.490	1	-6
655.659	1	-2
655.829	1	0
655.998	1	-9
656.168	1	-10
656.337	1	-3
656.507	1	4
656.676	1	3
656.846	1	8
657.015	1	10
657.184	1	-6
657.354	1	2
657.523	1	0
657.693	1	16
657.862	1	1
658.032	1	-11
658.201	1	-9
658.371	1	12
658.540	1	2
658.709	1	5
658.879	1	2
659.048	1	-2
659.218	1	-3
659.387	1	-8
659.557	1	-1
659.726	1	2
659.895	1	-2
660.065	1	-10
660.234	1	-5
660.404	1	-2
660.573	1	2
660.743	1	3
660.912	1	11
661.081	1	2
661.251	1	-3
661.420	1	-1
661.590	1	-6
661.759	1	2
661.929	1	-2
662.098	1	6
662.267	1	0
662.437	1	10
662.606	1	-3
662.776	1	-2
662.945	1	-1
663.115	1	2
663.284	1	-14
663.453	1	4
663.623	1	-4
663.792	1	-4
663.962	1	1
664.131	1	3
664.300	1	8
664.470	1	-3
664.639	1	5
664.809	1	5
664.978	1	1
665.148	1	-2
665.317	1	2
665.486	1	16
665.656	1	-2
665.825	1	4
665.995	1	-1
666.164	1	2
666.333	1	-2
666.503	1	1
666.672	1	-4
666.842	1	-7
667.011	1	1
667.180	1	-6
667.350	1	1
667.519	1	-12
667.689	1	1
667.858	1	-5
668.027	1	10
668.197	1	6
668.366	1	-6
668.536	1	2
668.705	1	-1
668.874	1	-3
669.044	1	0
669.213	1	7
669.382	1	-15
669.552	1	7
669.721	1	6
669.891	1	9
670.060	1	4
670.229	1	13
670.399	1	-1
670.568	1	12
670.738	1	5
670.907	1	-7
671.076	1	0
671.246	1	0
671.415	1	3
671.584	1	-5
671.754	1	-3
671.923	1	0
672.093	1	0
672.262	1	-1
672.431	1	-4
672.601	1	-16
672.770	1	-10
672.939	1	3
673.109	1	4
673.278	1	9
673.448	1	2
673.617	1	-2
673.786	1	4
