325.333	1	8
325.504	1	0
325.675	1	-6
325.846	1	5
326.017	1	5
326.188	1	8
326.359	1	-1
326.531	1	-13
326.702	1	-1
326.873	1	14
327.044	1	-2
327.215	1	-4
327.386	1	1
327.557	1	-3
327.728	1	2
327.899	1	2
328.070	1	9
328.241	1	4
328.412	1	-6
328.583	1	9
328.754	1	1
328.926	1	3
329.097	1	-7
329.268	1	11
329.439	1	8
329.610	1	-2
329.781	1	-17
329.952	1	6
330.123	1	6
330.294	1	4
330.465	1	2
330.636	1	9
330.807	1	-3
330.978	1	0
331.149	1	4
331.320	1	-1
331.492	1	6
331.663	1	9
331.834	1	11
332.005	1	10
332.176	1	11
332.347	1	4
332.518	1	2
332.689	1	5
332.860	1	2
333.031	1	1
333.202	1	-1
333.373	1	3
333.544	1	1
333.715	1	10
333.886	1	-2
334.057	1	17
334.228	1	-3
334.399	1	5
334.570	1	8
334.741	1	-3
334.912	1	4
335.084	1	27
335.255	1	5
335.426	1	3
335.597	1	5
335.768	1	9
335.939	1	7
336.110	1	8
336.281	1	-11
336.452	1	-1
336.623	1	1
336.794	1	6
336.965	1	9
337.136	1	6
337.307	1	2
337.478	1	1
337.649	1	5
337.820	1	-6
337.991	1	3
338.162	1	-2
338.333	1	7
338.504	1	-4
338.675	1	7
338.846	1	4
339.017	1	7
339.188	1	5
339.359	1	-2
339.530	1	4
339.701	1	5
339.872	1	14
340.043	1	6
340.214	1	4
340.385	1	14
340.556	1	-11
340.727	1	12
340.898	1	11
341.069	1	1
341.240	1	9
341.411	1	7
341.582	1	2
341.753	1	-3
341.924	1	2
342.095	1	6
342.266	1	12
342.437	1	7
342.608	1	4
342.779	1	6
342.950	1	12
343.121	1	11
343.292	1	2
343.463	1	3
343.634	1	5
343.805	1	17
343.976	1	11
344.147	1	14
344.318	1	5
344.489	1	5
344.660	1	22
344.831	1	4
345.002	1	3
345.173	1	19
345.344	1	4
345.515	1	4
345.686	1	3
345.857	1	3
346.028	1	9
346.199	1	0
346.370	1	1
346.541	1	9
346.712	1	13
346.883	1	3
347.054	1	-3
347.225	1	1
347.396	1	10
347.567	1	-5
347.738	1	5
347.909	1	17
348.080	1	5
348.251	1	8
348.422	1	7
348.593	1	8
348.764	1	5
348.935	1	0
349.106	1	1
349.277	1	12
349.448	1	8
349.619	1	6
349.790	1	12
349.961	1	8
350.132	1	6
350.303	1	-2
350.474	1	11
350.645	1	7
350.816	1	7
350.987	1	17
351.157	1	0
351.328	1	21
351.499	1	8
351.670	1	4
351.841	1	8
352.012	1	9
352.183	1	17
352.354	1	14
352.525	1	11
352.696	1	19
352.867	1	9
353.038	1	24
353.209	1	12
353.380	1	4
353.551	1	-6
353.722	1	8
353.893	1	2
354.064	1	14
354.235	1	6
354.406	1	4
354.576	1	10
354.747	1	15
354.918	1	12
355.089	1	17
355.260	1	12
355.431	1	6
355.602	1	9
355.773	1	10
355.944	1	10
356.115	1	4
356.286	1	10
356.457	1	15
356.628	1	8
356.799	1	11
356.970	1	14
357.141	1	3
357.311	1	5
357.482	1	8
357.653	1	10
357.824	1	21
357.995	1	8
358.166	1	-5
358.337	1	2
358.508	1	8
358.679	1	15
358.850	1	13
359.021	1	2
359.192	1	4
359.363	1	6
359.533	1	12
359.704	1	7
359.875	1	18
360.046	1	3
360.217	1	2
360.388	1	9
360.559	1	10
360.730	1	9
360.901	1	7
361.072	1	26
361.243	1	6
361.414	1	3
361.584	1	7
361.755	1	15
361.926	1	7
362.097	1	11
362.268	1	14
362.439	1	2
362.610	1	16
362.781	1	10
362.952	1	4
363.123	1	10
363.293	1	-4
363.464	1	9
363.635	1	15
363.806	1	6
363.977	1	9
364.148	1	4
364.319	1	17
364.490	1	15
364.661	1	12
364.832	1	13
365.002	1	12
365.173	1	15
365.344	1	18
365.515	1	3
365.686	1	6
365.857	1	10
366.028	1	16
366.199	1	15
366.370	1	11
366.540	1	7
366.711	1	-6
366.882	1	-3
367.053	1	3
367.224	1	19
367.395	1	13
367.566	1	20
367.737	1	17
367.908	1	16
368.078	1	8
368.249	1	14
368.420	1	5
368.591	1	8
368.762	1	17
368.933	1	5
369.104	1	-2
369.274	1	15
369.445	1	9
369.616	1	14
369.787	1	17
369.958	1	20
370.129	1	7
370.300	1	17
370.471	1	7
370.641	1	11
370.812	1	20
370.983	1	11
371.154	1	6
371.325	1	10
371.496	1	14
371.667	1	17
371.837	1	-2
372.008	1	8
372.179	1	2
372.350	1	13
372.521	1	10
372.692	1	4
372.863	1	19
373.033	1	-6
373.204	1	4
373.375	1	22
373.546	1	12
373.717	1	19
373.888	1	19
374.059	1	16
374.229	1	9
374.400	1	5
374.571	1	8
374.742	1	15
374.913	1	17
375.084	1	8
375.254	1	8
375.425	1	9
375.596	1	9
375.767	1	11
375.938	1	5
376.109	1	13
376.279	1	4
376.450	1	21
376.621	1	5
376.792	1	5
376.963	1	5
377.134	1	24
377.304	1	4
377.475	1	2
377.646	1	10
377.817	1	5
377.988	1	-1
378.159	1	14
378.329	1	18
378.500	1	12
378.671	1	10
378.842	1	5
379.013	1	5
379.184	1	-2
379.354	1	22
379.525	1	12
379.696	1	12
379.867	1	25
380.038	1	20
380.209	1	23
380.379	1	5
380.550	1	5
380.721	1	21
380.892	1	17
381.063	1	12
381.233	1	11
381.404	1	11
381.575	1	18
381.746	1	14
381.917	1	17
382.087	1	16
382.258	1	19
382.429	1	13
382.600	1	19
382.771	1	9
382.941	1	3
383.112	1	13
383.283	1	5
383.454	1	12
383.625	1	2
383.795	1	9
383.966	1	9
384.137	1	21
384.308	1	10
384.479	1	19
384.649	1	20
384.820	1	15
384.991	1	17
385.162	1	19
385.333	1	8
385.503	1	7
385.674	1	3
385.845	1	20
386.016	1	19
386.187	1	10
386.357	1	25
386.528	1	18
386.699	1	8
386.870	1	20
387.041	1	15
387.211	1	3
387.382	1	19
387.553	1	21
387.724	1	7
387.894	1	7
388.065	1	19
388.236	1	15
388.407	1	4
388.578	1	10
388.748	1	8
388.919	1	19
389.090	1	11
389.261	1	9
389.431	1	21
389.602	1	16
389.773	1	18
389.944	1	12
390.114	1	16
390.285	1	24
390.456	1	5
390.627	1	20
390.798	1	10
390.968	1	13
391.139	1	17
391.310	1	9
391.481	1	23
391.651	1	21
391.822	1	6
391.993	1	16
392.164	1	14
392.334	1	17
392.505	1	6
392.676	1	17
392.847	1	30
393.017	1	22
393.188	1	17
393.359	1	8
393.530	1	14
393.700	1	22
393.871	1	9
394.042	1	10
394.213	1	6
394.383	1	15
394.554	1	14
394.725	1	19
394.896	1	13
395.066	1	12
395.237	1	14
395.408	1	9
395.579	1	17
395.749	1	9
395.920	1	5
396.091	1	19
396.262	1	12
396.432	1	3
396.603	1	22
396.774	1	18
396.945	1	13
397.115	1	15
397.286	1	17
397.457	1	17
397.627	1	14
397.798	1	13
397.969	1	12
398.140	1	12
398.310	1	11
398.481	1	24
398.652	1	11
398.823	1	10
398.993	1	11
399.164	1	5
399.335	1	17
399.505	1	14
399.676	1	5
399.847	1	12
400.018	1	8
400.188	1	15
400.359	1	20
400.530	1	16
400.700	1	11
400.871	1	16
401.042	1	6
401.213	1	21
401.383	1	14
401.554	1	13
401.725	1	19
401.895	1	17
402.066	1	21
402.237	1	17
402.408	1	22
402.578	1	16
402.749	1	18
402.920	1	17
403.090	1	7
403.261	1	16
403.432	1	17
403.603	1	22
403.773	1	17
403.944	1	20
404.115	1	21
404.285	1	26
404.456	1	13
404.627	1	7
404.797	1	14
404.968	1	17
405.139	1	6
405.310	1	23
405.480	1	14
405.651	1	8
405.822	1	22
405.992	1	0
406.163	1	6
406.334	1	8
406.504	1	14
406.675	1	17
406.846	1	17
407.016	1	19
407.187	1	26
407.358	1	11
407.528	1	12
407.699	1	7
407.870	1	3
408.041	1	21
408.211	1	27
408.382	1	11
408.553	1	17
408.723	1	19
408.894	1	9
409.065	1	18
409.235	1	9
409.406	1	7
409.577	1	12
409.747	1	23
409.918	1	25
410.089	1	18
410.259	1	19
410.430	1	10
410.601	1	15
410.771	1	18
410.942	1	24
411.113	1	19
411.283	1	0
411.454	1	20
411.625	1	16
411.795	1	19
411.966	1	19
412.137	1	21
412.307	1	8
412.478	1	24
412.649	1	18
412.819	1	15
412.990	1	11
413.161	1	17
413.331	1	8
413.502	1	24
413.672	1	16
413.843	1	18
414.014	1	12
414.184	1	19
414.355	1	19
414.526	1	15
414.696	1	30
414.867	1	15
415.038	1	4
415.208	1	11
415.379	1	18
415.550	1	18
415.720	1	11
415.891	1	16
416.062	1	16
416.232	1	12
416.403	1	17
416.573	1	21
416.744	1	3
416.915	1	21
417.085	1	19
417.256	1	18
417.427	1	17
417.597	1	20
417.768	1	8
417.939	1	20
418.109	1	21
418.280	1	27
418.450	1	23
418.621	1	-4
418.792	1	11
418.962	1	16
419.133	1	23
419.304	1	14
419.474	1	6
419.645	1	13
419.815	1	13
419.986	1	18
420.157	1	20
420.327	1	20
420.498	1	23
420.669	1	23
420.839	1	18
421.010	1	20
421.180	1	14
421.351	1	16
421.522	1	22
421.692	1	14
421.863	1	22
422.033	1	22
422.204	1	15
422.375	1	11
422.545	1	23
422.716	1	1
422.886	1	12
423.057	1	15
423.228	1	22
423.398	1	19
423.569	1	22
423.740	1	5
423.910	1	14
424.081	1	23
424.251	1	5
424.422	1	21
424.593	1	5
424.763	1	24
424.934	1	14
425.104	1	22
425.275	1	17
425.445	1	11
425.616	1	8
425.787	1	7
425.957	1	11
426.128	1	24
426.298	1	9
426.469	1	3
426.640	1	22
426.810	1	18
426.981	1	10
427.151	1	14
427.322	1	23
427.493	1	16
427.663	1	24
427.834	1	12
428.004	1	27
428.175	1	6
428.345	1	15
428.516	1	3
428.687	1	17
428.857	1	13
429.028	1	13
429.198	1	24
429.369	1	27
429.540	1	21
429.710	1	9
429.881	1	20
430.051	1	16
430.222	1	13
430.392	1	24
430.563	1	20
430.734	1	17
430.904	1	23
431.075	1	15
431.245	1	15
431.416	1	20
431.586	1	13
431.757	1	18
431.927	1	6
432.098	1	14
432.269	1	3
432.439	1	9
432.610	1	9
432.780	1	22
432.951	1	11
433.121	1	17
433.292	1	23
433.462	1	28
433.633	1	16
433.804	1	11
433.974	1	16
434.145	1	25
434.315	1	12
434.486	1	10
434.656	1	18
434.827	1	20
434.997	1	8
435.168	1	22
435.339	1	14
435.509	1	16
435.680	1	14
435.850	1	13
436.021	1	15
436.191	1	16
436.362	1	18
436.532	1	12
436.703	1	20
436.873	1	20
437.044	1	-1
437.214	1	12
437.385	1	12
437.556	1	10
437.726	1	30
437.897	1	27
438.067	1	9
438.238	1	17
438.408	1	20
438.579	1	11
438.749	1	10
438.920	1	16
439.090	1	14
439.261	1	2
439.431	1	12
439.602	1	1
439.772	1	7
439.943	1	25
440.113	1	27
440.284	1	11
440.455	1	18
440.625	1	21
440.796	1	14
440.966	1	5
441.137	1	16
441.307	1	5
441.478	1	22
441.648	1	16
441.819	1	11
441.989	1	18
442.160	1	12
442.330	1	11
442.501	1	19
442.671	1	8
442.842	1	5
443.012	1	13
443.183	1	13
443.353	1	7
443.524	1	17
443.694	1	20
443.865	1	9
444.035	1	18
444.206	1	6
444.376	1	-1
444.547	1	23
444.717	1	11
444.888	1	7
445.058	1	18
445.229	1	13
445.399	1	12
445.570	1	13
445.740	1	3
445.911	1	17
446.081	1	1
446.252	1	15
446.422	1	7
446.593	1	3
446.763	1	6
446.934	1	6
447.104	1	18
447.275	1	7
447.445	1	15
447.616	1	17
447.786	1	8
447.957	1	13
448.127	1	11
448.298	1	14
448.468	1	10
448.639	1	7
448.809	1	16
448.979	1	6
449.150	1	19
449.320	1	15
449.491	1	12
449.661	1	1
449.832	1	9
450.002	1	21
450.173	1	12
450.343	1	14
450.514	1	14
450.684	1	5
450.855	1	9
451.025	1	21
451.196	1	7
451.366	1	11
451.537	1	14
451.707	1	6
451.878	1	0
452.048	1	19
452.218	1	9
452.389	1	21
452.559	1	6
452.730	1	23
452.900	1	10
453.071	1	3
453.241	1	5
453.412	1	14
453.582	1	4
453.753	1	15
453.923	1	13
454.093	1	17
454.264	1	22
454.434	1	5
454.605	1	16
454.775	1	16
454.946	1	12
455.116	1	11
455.287	1	-1
455.457	1	6
455.628	1	16
455.798	1	21
455.968	1	15
456.139	1	6
456.309	1	11
456.480	1	3
456.650	1	7
456.821	1	4
456.991	1	6
457.161	1	7
457.332	1	10
457.502	1	7
457.673	1	15
457.843	1	11
458.014	1	5
458.184	1	5
458.355	1	19
458.525	1	13
458.695	1	17
458.866	1	7
459.036	1	12
459.207	1	5
459.377	1	8
459.548	1	15
459.718	1	2
459.888	1	20
460.059	1	15
460.229	1	22
460.400	1	16
460.570	1	10
460.740	1	12
460.911	1	14
461.081	1	15
461.252	1	8
461.422	1	4
461.593	1	0
461.763	1	11
461.933	1	18
462.104	1	11
462.274	1	10
462.445	1	7
462.615	1	11
462.785	1	9
462.956	1	6
463.126	1	13
463.297	1	10
463.467	1	19
463.638	1	13
463.808	1	7
463.978	1	6
464.149	1	9
464.319	1	5
464.490	1	17
464.660	1	8
464.830	1	1
465.001	1	7
465.171	1	8
465.342	1	15
465.512	1	12
465.682	1	5
465.853	1	15
466.023	1	6
466.194	1	11
466.364	1	6
466.534	1	14
466.705	1	5
466.875	1	4
467.045	1	-2
467.216	1	22
467.386	1	1
467.557	1	7
467.727	1	-4
467.897	1	0
468.068	1	7
468.238	1	6
468.409	1	9
468.579	1	3
468.749	1	14
468.920	1	-2
469.090	1	14
469.260	1	9
469.431	1	9
469.601	1	9
469.772	1	4
469.942	1	2
470.112	1	12
470.283	1	11
470.453	1	16
470.623	1	11
470.794	1	-3
470.964	1	10
471.135	1	7
471.305	1	1
471.475	1	8
471.646	1	3
471.816	1	5
471.986	1	5
472.157	1	17
472.327	1	-3
472.497	1	17
472.668	1	-7
472.838	1	11
473.009	1	16
473.179	1	-2
473.349	1	8
473.520	1	19
473.690	1	12
473.860	1	11
474.031	1	13
474.201	1	14
474.371	1	16
474.542	1	6
474.712	1	12
474.882	1	4
475.053	1	12
475.223	1	-2
475.394	1	16
475.564	1	7
475.734	1	11
475.905	1	14
476.075	1	7
476.245	1	14
476.416	1	8
476.586	1	20
476.756	1	8
476.927	1	12
477.097	1	15
477.267	1	8
477.438	1	16
477.608	1	5
477.778	1	4
477.949	1	14
478.119	1	24
478.289	1	13
478.460	1	9
478.630	1	12
478.800	1	5
478.971	1	16
479.141	1	5
479.311	1	7
479.482	1	12
479.652	1	-2
479.822	1	7
479.993	1	3
480.163	1	25
480.333	1	5
480.504	1	17
480.674	1	2
480.844	1	-3
481.015	1	13
481.185	1	6
481.355	1	8
481.525	1	1
481.696	1	0
481.866	1	7
482.036	1	4
482.207	1	4
482.377	1	4
482.547	1	17
482.718	1	10
482.888	1	9
483.058	1	4
483.229	1	4
483.399	1	2
483.569	1	-5
483.740	1	10
483.910	1	11
484.080	1	1
484.250	1	10
484.421	1	3
484.591	1	16
484.761	1	14
484.932	1	9
485.102	1	10
485.272	1	15
485.443	1	9
485.613	1	7
485.783	1	14
485.953	1	10
486.124	1	11
486.294	1	10
486.464	1	7
486.635	1	13
486.805	1	10
486.975	1	8
487.146	1	5
487.316	1	5
487.486	1	14
487.656	1	15
487.827	1	9
487.997	1	-8
488.167	1	-2
488.338	1	12
488.508	1	5
488.678	1	10
488.848	1	15
489.019	1	5
489.189	1	3
489.359	1	13
489.529	1	-1
489.700	1	7
489.870	1	22
490.040	1	7
490.211	1	0
490.381	1	14
490.551	1	4
490.721	1	6
490.892	1	7
491.062	1	8
491.232	1	11
491.402	1	6
491.573	1	4
491.743	1	10
491.913	1	-2
492.084	1	5
492.254	1	2
492.424	1	3
492.594	1	2
492.765	1	2
492.935	1	5
493.105	1	8
493.275	1	8
493.446	1	19
493.616	1	9
493.786	1	9
493.956	1	2
494.127	1	3
494.297	1	10
494.467	1	-5
494.637	1	6
494.808	1	10
494.978	1	-1
495.148	1	7
495.318	1	9
495.489	1	9
495.659	1	10
495.829	1	4
495.999	1	4
496.170	1	4
496.340	1	0
496.510	1	3
496.680	1	2
496.851	1	-1
497.021	1	5
497.191	1	5
497.361	1	8
497.532	1	-1
497.702	1	-3
497.872	1	9
498.042	1	13
498.213	1	6
498.383	1	1
498.553	1	5
498.723	1	-2
498.894	1	16
499.064	1	5
499.234	1	11
499.404	1	2
499.574	1	10
499.745	1	15
499.915	1	6
500.085	1	6
500.255	1	11
500.426	1	8
500.596	1	11
500.766	1	11
500.936	1	4
501.106	1	-4
501.277	1	0
501.447	1	1
501.617	1	10
501.787	1	-5
501.958	1	-6
502.128	1	9
502.298	1	4
502.468	1	2
502.638	1	7
502.809	1	8
502.979	1	-7
503.149	1	-3
503.319	1	-8
503.489	1	11
503.660	1	9
503.830	1	4
504.000	1	4
504.170	1	5
504.340	1	-1
504.511	1	12
504.681	1	5
504.851	1	9
505.021	1	12
505.192	1	-4
505.362	1	17
505.532	1	-4
505.702	1	-2
505.872	1	6
506.043	1	3
506.213	1	3
506.383	1	7
506.553	1	0
506.723	1	-1
506.893	1	13
507.064	1	14
507.234	1	8
507.404	1	-5
507.574	1	5
507.744	1	6
507.915	1	13
508.085	1	16
508.255	1	10
508.425	1	10
508.595	1	5
508.766	1	9
508.936	1	-10
509.106	1	16
509.276	1	12
509.446	1	4
509.616	1	3
509.787	1	12
509.957	1	5
510.127	1	1
510.297	1	13
510.467	1	-2
510.638	1	7
510.808	1	-2
510.978	1	4
511.148	1	4
511.318	1	7
511.488	1	-5
511.659	1	8
511.829	1	-1
511.999	1	11
512.169	1	-5
512.339	1	6
512.509	1	6
512.680	1	-10
512.850	1	6
513.020	1	15
513.190	1	10
513.360	1	2
513.530	1	3
513.700	1	6
513.871	1	6
514.041	1	5
514.211	1	9
514.381	1	13
514.551	1	11
514.721	1	1
514.892	1	5
515.062	1	3
515.232	1	12
515.402	1	-7
515.572	1	-2
515.742	1	6
515.912	1	8
516.083	1	1
516.253	1	4
516.423	1	3
516.593	1	8
516.763	1	18
516.933	1	-3
517.104	1	2
517.274	1	4
517.444	1	1
517.614	1	-4
517.784	1	4
517.954	1	5
518.124	1	7
518.294	1	-5
518.465	1	6
518.635	1	-5
518.805	1	-9
518.975	1	9
519.145	1	-9
519.315	1	0
519.485	1	-5
519.656	1	12
519.826	1	10
519.996	1	-2
520.166	1	0
520.336	1	8
520.506	1	3
520.676	1	-9
520.846	1	13
521.017	1	-1
521.187	1	-2
521.357	1	12
521.527	1	11
521.697	1	8
521.867	1	-3
522.037	1	6
522.207	1	7
522.377	1	9
522.548	1	-4
522.718	1	7
522.888	1	14
523.058	1	-4
523.228	1	8
523.398	1	13
523.568	1	9
523.738	1	3
523.909	1	6
524.079	1	5
524.249	1	12
524.419	1	4
524.589	1	6
524.759	1	-1
524.929	1	1
525.099	1	7
525.269	1	14
525.439	1	-3
525.610	1	14
525.780	1	0
525.950	1	5
526.120	1	1
526.290	1	11
526.460	1	-9
526.630	1	3
526.800	1	-2
526.970	1	3
527.140	1	9
527.311	1	-2
527.481	1	-7
527.651	1	8
527.821	1	-12
527.991	1	5
528.161	1	13
528.331	1	5
528.501	1	1
528.671	1	5
528.841	1	4
529.011	1	1
529.181	1	3
529.352	1	3
529.522	1	2
529.692	1	3
529.862	1	6
530.032	1	7
530.202	1	3
530.372	1	4
530.542	1	-1
530.712	1	5
530.882	1	2
531.052	1	7
531.222	1	3
531.392	1	5
531.563	1	4
531.733	1	1
531.903	1	1
532.073	1	11
532.243	1	1
532.413	1	1
532.583	1	-5
532.753	1	-5
532.923	1	-1
533.093	1	1
533.263	1	-6
533.433	1	1
533.603	1	5
533.773	1	-3
533.943	1	-1
534.113	1	1
534.284	1	3
534.454	1	12
534.624	1	5
534.794	1	0
534.964	1	13
535.134	1	-7
535.304	1	0
535.474	1	9
535.644	1	-7
535.814	1	-7
535.984	1	0
536.154	1	-10
536.324	1	-4
536.494	1	2
536.664	1	9
536.834	1	10
537.004	1	3
537.174	1	9
537.344	1	6
537.514	1	1
537.685	1	1
537.855	1	11
538.025	1	-8
538.195	1	3
538.365	1	4
538.535	1	6
538.705	1	4
538.875	1	4
539.045	1	6
539.215	1	3
539.385	1	7
539.555	1	9
539.725	1	2
539.895	1	-3
540.065	1	11
540.235	1	1
540.405	1	-4
540.575	1	-3
540.745	1	6
540.915	1	11
541.085	1	1
541.255	1	-1
541.425	1	1
541.595	1	0
541.765	1	3
541.935	1	-2
542.105	1	-1
542.275	1	-2
542.445	1	-4
542.615	1	7
542.785	1	12
542.955	1	-2
543.125	1	-2
543.295	1	2
543.465	1	7
543.635	1	6
543.805	1	9
543.975	1	1
544.145	1	10
544.315	1	12
544.485	1	6
544.655	1	5
544.825	1	-11
544.995	1	4
545.165	1	-9
545.335	1	1
545.505	1	1
545.675	1	8
545.845	1	4
546.015	1	6
546.185	1	7
546.355	1	6
546.525	1	12
546.695	1	6
546.865	1	1
547.035	1	8
547.205	1	-15
547.375	1	3
547.545	1	2
547.715	1	2
547.885	1	5
548.055	1	-4
548.225	1	2
548.395	1	-2
548.565	1	2
548.735	1	2
548.905	1	-4
549.075	1	11
549.245	1	-5
549.415	1	-1
549.585	1	3
549.755	1	-4
549.925	1	-10
550.095	1	2
550.265	1	0
550.435	1	-11
550.605	1	6
550.775	1	1
550.945	1	9
551.115	1	-4
551.285	1	1
551.455	1	-2
551.625	1	-2
551.795	1	12
551.965	1	-4
552.135	1	-3
552.305	1	0
552.475	1	-3
552.645	1	-10
552.815	1	-4
552.985	1	8
553.155	1	0
553.325	1	11
553.495	1	-3
553.665	1	-1
553.835	1	3
554.004	1	-7
554.174	1	-12
554.344	1	7
554.514	1	7
554.684	1	-2
554.854	1	5
555.024	1	2
555.194	1	-5
555.364	1	10
555.534	1	12
555.704	1	-6
555.874	1	12
556.044	1	-5
556.214	1	1
556.384	1	0
556.554	1	6
556.724	1	3
556.894	1	-10
557.064	1	-4
557.234	1	-5
557.404	1	7
557.573	1	7
557.743	1	12
557.913	1	1
558.083	1	-2
558.253	1	2
558.423	1	4
558.593	1	4
558.763	1	1
558.933	1	7
559.103	1	8
559.273	1	0
559.443	1	5
559.613	1	1
559.783	1	4
559.953	1	-5
560.122	1	8
560.292	1	-4
560.462	1	-3
560.632	1	9
560.802	1	2
560.972	1	7
561.142	1	7
561.312	1	-2
561.482	1	10
561.652	1	4
561.822	1	-2
561.992	1	-4
562.162	1	2
562.331	1	2
562.501	1	-2
562.671	1	4
562.841	1	-3
563.011	1	-3
563.181	1	-1
563.351	1	-4
563.521	1	5
563.691	1	0
563.861	1	8
564.031	1	2
564.201	1	8
564.370	1	-6
564.540	1	6
564.710	1	-1
564.880	1	17
565.050	1	3
565.220	1	-8
565.390	1	5
565.560	1	11
565.730	1	-13
565.900	1	3
566.069	1	9
566.239	1	13
566.409	1	9
566.579	1	7
566.749	1	5
566.919	1	10
567.089	1	5
567.259	1	23
567.429	1	4
567.599	1	-2
567.768	1	3
567.938	1	1
568.108	1	10
568.278	1	-1
568.448	1	-2
568.618	1	2
568.788	1	0
568.958	1	-8
569.128	1	1
569.297	1	6
569.467	1	-1
569.637	1	14
569.807	1	2
569.977	1	12
570.147	1	5
570.317	1	-4
570.487	1	-1
570.656	1	10
570.826	1	-1
570.996	1	-4
571.166	1	3
571.336	1	4
571.506	1	5
571.676	1	2
571.846	1	16
572.015	1	1
572.185	1	-3
572.355	1	0
572.525	1	13
572.695	1	3
572.865	1	-8
573.035	1	-1
573.205	1	8
573.374	1	0
573.544	1	-7
573.714	1	11
573.884	1	7
574.054	1	6
574.224	1	6
574.394	1	-6
574.563	1	-4
574.733	1	7
574.903	1	-7
575.073	1	2
575.243	1	-6
575.413	1	-1
575.583	1	-6
575.752	1	7
575.922	1	5
576.092	1	3
576.262	1	9
576.432	1	7
576.602	1	-4
576.772	1	16
576.941	1	5
577.111	1	-2
577.281	1	-12
577.451	1	-3
577.621	1	7
577.791	1	9
577.960	1	-3
578.130	1	-7
578.300	1	-6
578.470	1	4
578.640	1	3
578.810	1	5
578.979	1	2
579.149	1	-5
579.319	1	-4
579.489	1	0
579.659	1	-2
579.829	1	6
579.998	1	7
580.168	1	11
580.338	1	3
580.508	1	-4
580.678	1	-4
580.848	1	-6
581.017	1	-3
581.187	1	0
581.357	1	-6
581.527	1	6
581.697	1	12
581.867	1	9
582.036	1	2
582.206	1	4
582.376	1	11
582.546	1	-1
582.716	1	0
582.885	1	-5
583.055	1	2
583.225	1	-6
583.395	1	5
583.565	1	3
583.735	1	6
583.904	1	-1
584.074	1	0
584.244	1	6
584.414	1	-3
584.584	1	9
584.753	1	-4
584.923	1	5
585.093	1	0
585.263	1	10
585.433	1	8
585.602	1	-6
585.772	1	-4
585.942	1	-3
586.112	1	0
586.282	1	1
586.451	1	-2
586.621	1	-5
586.791	1	-2
586.961	1	4
587.131	1	6
587.300	1	-3
587.470	1	9
587.640	1	-3
587.810	1	1
587.980	1	-2
588.149	1	1
588.319	1	1
588.489	1	1
588.659	1	2
588.829	1	7
588.998	1	12
589.168	1	6
589.338	1	0
589.508	1	5
589.677	1	-1
589.847	1	-6
590.017	1	23
590.187	1	-8
590.357	1	18
590.526	1	2
590.696	1	6
590.866	1	0
591.036	1	2
591.205	1	9
591.375	1	-3
591.545	1	-5
591.715	1	9
591.885	1	0
592.054	1	7
592.224	1	5
592.394	1	-2
592.564	1	-10
592.733	1	11
592.903	1	2
593.073	1	3
593.243	1	-1
593.412	1	6
593.582	1	6
593.752	1	-3
593.922	1	7
594.091	1	6
594.261	1	-1
594.431	1	3
594.601	1	1
594.771	1	-3
594.940	1	3
595.110	1	-9
595.280	1	4
595.450	1	2
595.619	1	2
595.789	1	-2
595.959	1	4
596.129	1	-7
596.298	1	5
596.468	1	10
596.638	1	-2
596.808	1	5
596.977	1	-3
597.147	1	-9
597.317	1	-9
597.487	1	7
597.656	1	1
597.826	1	2
597.996	1	9
598.166	1	-4
598.335	1	-7
598.505	1	-2
598.675	1	1
598.844	1	-3
599.014	1	-1
599.184	1	5
599.354	1	-9
599.523	1	15
599.693	1	3
599.863	1	10
600.033	1	-6
600.202	1	2
600.372	1	-4
600.542	1	11
600.712	1	-7
600.881	1	1
601.051	1	9
601.221	1	9
601.390	1	-7
601.560	1	13
601.730	1	0
601.900	1	-1
602.069	1	7
602.239	1	-6
602.409	1	-13
602.578	1	-8
602.748	1	1
602.918	1	4
603.088	1	8
603.257	1	7
603.427	1	0
603.597	1	-2
603.767	1	3
603.936	1	0
604.106	1	-4
604.276	1	2
604.445	1	8
604.615	1	0
604.785	1	2
604.954	1	-9
605.124	1	7
605.294	1	1
605.464	1	-5
605.633	1	8
605.803	1	8
605.973	1	4
606.142	1	5
606.312	1	4
606.482	1	1
606.652	1	6
606.821	1	-6
606.991	1	2
607.161	1	-3
607.330	1	4
607.500	1	1
607.670	1	-6
607.839	1	6
608.009	1	10
608.179	1	15
608.348	1	-2
608.518	1	2
608.688	1	7
608.858	1	-12
609.027	1	-10
609.197	1	2
609.367	1	2
609.536	1	6
609.706	1	5
609.876	1	6
610.045	1	2
610.215	1	2
610.385	1	-6
610.554	1	3
610.724	1	3
610.894	1	-5
611.063	1	9
611.233	1	2
611.403	1	-8
611.572	1	7
611.742	1	-1
611.912	1	-2
612.081	1	-11
612.251	1	12
612.421	1	0
612.590	1	-3
612.760	1	0
612.930	1	0
613.099	1	8
613.269	1	8
613.439	1	6
613.608	1	-2
613.778	1	-4
613.948	1	-4
614.117	1	6
614.287	1	4
614.457	1	2
614.626	1	2
614.796	1	7
614.966	1	5
615.135	1	-3
615.305	1	5
615.475	1	-4
615.644	1	7
615.814	1	7
615.984	1	-7
616.153	1	-2
616.323	1	7
616.493	1	-1
616.662	1	15
616.832	1	-1
617.002	1	-5
617.171	1	3
617.341	1	-3
617.511	1	6
617.680	1	-5
617.850	1	8
618.019	1	13
618.189	1	17
618.359	1	10
618.528	1	-2
618.698	1	4
618.868	1	-5
619.037	1	1
619.207	1	5
619.377	1	7
619.546	1	0
619.716	1	-3
619.885	1	-5
620.055	1	-11
620.225	1	0
620.394	1	1
620.564	1	2
620.734	1	12
620.903	1	-2
621.073	1	2
621.242	1	6
621.412	1	5
621.582	1	-4
621.751	1	6
621.921	1	10
622.091	1	1
622.260	1	2
622.430	1	9
622.599	1	-5
622.769	1	7
622.939	1	11
623.108	1	1
623.278	1	1
623.448	1	-2
623.617	1	-1
623.787	1	0
623.956	1	4
624.126	1	1
624.296	1	-2
624.465	1	-2
624.635	1	3
624.804	1	16
624.974	1	5
625.144	1	6
625.313	1	-5
625.483	1	-3
625.652	1	0
625.822	1	4
625.992	1	0
626.161	1	9
626.331	1	1
626.501	1	1
626.670	1	4
626.840	1	0
627.009	1	-2
627.179	1	2
627.348	1	6
627.518	1	-1
627.688	1	3
627.857	1	3
628.027	1	0
628.196	1	-1
628.366	1	-1
628.536	1	-1
628.705	1	3
628.875	1	1
629.044	1	-13
629.214	1	15
629.384	1	4
629.553	1	16
629.723	1	-1
629.892	1	-3
630.062	1	5
630.232	1	11
630.401	1	5
630.571	1	4
630.740	1	-3
630.910	1	15
631.079	1	3
631.249	1	1
631.419	1	4
631.588	1	-6
631.758	1	12
631.927	1	-6
632.097	1	4
632.266	1	-6
632.436	1	5
632.606	1	-2
632.775	1	7
632.945	1	8
633.114	1	7
633.284	1	6
633.453	1	0
633.623	1	-3
633.793	1	1
633.962	1	1
634.132	1	0
634.301	1	-3
634.471	1	11
634.640	1	10
634.810	1	2
634.979	1	4
635.149	1	3
635.319	1	10
635.488	1	3
635.658	1	-3
635.827	1	-12
635.997	1	0
636.166	1	4
636.336	1	-5
636.505	1	17
636.675	1	7
636.845	1	1
637.014	1	12
637.184	1	3
637.353	1	3
637.523	1	9
637.692	1	-2
637.862	1	5
638.031	1	6
638.201	1	15
638.370	1	5
638.540	1	-3
638.710	1	3
638.879	1	-4
639.049	1	2
639.218	1	-2
639.388	1	1
639.557	1	0
639.727	1	18
639.896	1	1
640.066	1	-1
640.235	1	5
640.405	1	9
640.574	1	2
640.744	1	-5
640.914	1	8
641.083	1	3
641.253	1	-6
641.422	1	4
641.592	1	9
641.761	1	0
641.931	1	5
642.100	1	15
642.270	1	2
642.439	1	10
642.609	1	5
642.778	1	0
642.948	1	7
643.117	1	7
643.287	1	3
643.456	1	-4
643.626	1	15
643.795	1	6
643.965	1	11
644.134	1	-6
644.304	1	1
644.473	1	4
644.643	1	5
644.812	1	0
644.982	1	1
645.151	1	3
645.321	1	-8
645.490	1	13
645.660	1	-1
645.829	1	5
645.999	1	1
646.168	1	9
646.338	1	3
646.507	1	7
646.677	1	10
646.846	1	-2
647.016	1	-7
647.185	1	15
647.355	1	-10
647.524	1	9
647.694	1	14
647.863	1	12
648.033	1	12
648.202	1	10
648.372	1	2
648.541	1	2
648.711	1	-8
648.880	1	-3
649.050	1	-1
649.219	1	2
649.389	1	10
649.558	1	5
649.728	1	8
649.897	1	-7
650.067	1	-1
650.236	1	9
650.406	1	10
650.575	1	-1
650.745	1	6
650.914	1	3
651.084	1	-5
651.253	1	13
651.423	1	5
651.592	1	-1
651.762	1	-9
651.931	1	8
652.101	1	-2
652.270	1	7
652.440	1	8
652.609	1	1
652.778	1	3
652.948	1	9
653.117	1	3
653.287	1	3
653.456	1	1
653.626	1	7
653.795	1	-1
653.965	1	9
654.134	1	15
654.304	1	-4
654.473	1	14
654.643	1	5
654.812	1	11
654.982	1	9
655.151	1	-1
655.320	1	3
655.490	1	-8
655.659	1	5
655.829	1	1
655.998	1	-2
656.168	1	1
656.337	1	1
656.507	1	9
656.676	1	5
656.846	1	7
657.015	1	15
657.184	1	10
657.354	1	6
657.523	1	7
657.693	1	8
657.862	1	3
658.032	1	1
658.201	1	3
658.371	1	7
658.540	1	3
658.709	1	-2
658.879	1	10
659.048	1	0
659.218	1	6
659.387	1	4
659.557	1	6
659.726	1	-3
659.895	1	8
660.065	1	-4
660.234	1	-3
660.404	1	0
660.573	1	1
660.743	1	-1
660.912	1	3
661.081	1	-2
661.251	1	5
661.420	1	1
661.590	1	14
661.759	1	11
661.929	1	1
662.098	1	19
662.267	1	0
662.437	1	11
662.606	1	-3
662.776	1	7
662.945	1	8
663.115	1	3
663.284	1	7
663.453	1	5
663.623	1	0
663.792	1	-2
663.962	1	7
664.131	1	7
664.300	1	7
664.470	1	7
664.639	1	1
664.809	1	4
664.978	1	8
665.148	1	9
665.317	1	4
665.486	1	15
665.656	1	5
665.825	1	4
665.995	1	6
666.164	1	3
666.333	1	6
666.503	1	7
666.672	1	-4
666.842	1	-4
667.011	1	-5
667.180	1	8
667.350	1	4
667.519	1	2
667.689	1	6
667.858	1	2
668.027	1	15
668.197	1	8
668.366	1	-8
668.536	1	12
668.705	1	-1
668.874	1	9
669.044	1	-3
669.213	1	8
669.382	1	-7
669.552	1	16
669.721	1	10
669.891	1	12
670.060	1	1
670.229	1	16
670.399	1	8
670.568	1	2
670.738	1	6
670.907	1	-11
671.076	1	1
671.246	1	7
671.415	1	-4
671.584	1	4
671.754	1	2
671.923	1	6
672.093	1	3
672.262	1	-2
672.431	1	4
672.601	1	8
672.770	1	-11
672.939	1	8
673.109	1	1
673.278	1	2
673.448	1	11
673.617	1	2
673.786	1	15
