325.333	1	26
325.504	1	10
325.675	1	22
325.846	1	16
326.017	1	17
326.188	1	19
326.359	1	21
326.531	1	6
326.702	1	24
326.873	1	30
327.044	1	12
327.215	1	16
327.386	1	23
327.557	1	15
327.728	1	14
327.899	1	18
328.070	1	24
328.241	1	26
328.412	1	10
328.583	1	17
328.754	1	18
328.926	1	18
329.097	1	14
329.268	1	20
329.439	1	12
329.610	1	17
329.781	1	6
329.952	1	18
330.123	1	14
330.294	1	14
330.465	1	22
330.636	1	31
330.807	1	11
330.978	1	15
331.149	1	11
331.320	1	22
331.492	1	21
331.663	1	23
331.834	1	34
332.005	1	14
332.176	1	28
332.347	1	28
332.518	1	20
332.689	1	28
332.860	1	19
333.031	1	37
333.202	1	12
333.373	1	29
333.544	1	30
333.715	1	20
333.886	1	19
334.057	1	31
334.228	1	11
334.399	1	16
334.570	1	39
334.741	1	22
334.912	1	29
335.084	1	39
335.255	1	30
335.426	1	10
335.597	1	21
335.768	1	22
335.939	1	26
336.110	1	33
336.281	1	20
336.452	1	25
336.623	1	28
336.794	1	41
336.965	1	22
337.136	1	39
337.307	1	29
337.478	1	30
337.649	1	29
337.820	1	31
337.991	1	28
338.162	1	37
338.333	1	29
338.504	1	34
338.675	1	35
338.846	1	35
339.017	1	38
339.188	1	37
339.359	1	23
339.530	1	36
339.701	1	31
339.872	1	35
340.043	1	35
340.214	1	34
340.385	1	31
340.556	1	33
340.727	1	34
340.898	1	38
341.069	1	33
341.240	1	39
341.411	1	47
341.582	1	33
341.753	1	21
341.924	1	32
342.095	1	35
342.266	1	44
342.437	1	40
342.608	1	40
342.779	1	46
342.950	1	40
343.121	1	46
343.292	1	33
343.463	1	42
343.634	1	40
343.805	1	47
343.976	1	43
344.147	1	41
344.318	1	45
344.489	1	42
344.660	1	47
344.831	1	36
345.002	1	28
345.173	1	48
345.344	1	42
345.515	1	42
345.686	1	28
345.857	1	48
346.028	1	42
346.199	1	44
346.370	1	42
346.541	1	48
346.712	1	38
346.883	1	37
347.054	1	48
347.225	1	37
347.396	1	46
347.567	1	34
347.738	1	44
347.909	1	52
348.080	1	44
348.251	1	51
348.422	1	54
348.593	1	50
348.764	1	40
348.935	1	51
349.106	1	46
349.277	1	52
349.448	1	55
349.619	1	47
349.790	1	51
349.961	1	44
350.132	1	64
350.303	1	51
350.474	1	55
350.645	1	56
350.816	1	49
350.987	1	69
351.157	1	57
351.328	1	64
351.499	1	49
351.670	1	47
351.841	1	56
352.012	1	70
352.183	1	65
352.354	1	63
352.525	1	62
352.696	1	60
352.867	1	52
353.038	1	59
353.209	1	66
353.380	1	58
353.551	1	39
353.722	1	64
353.893	1	51
354.064	1	61
354.235	1	52
354.406	1	55
354.576	1	55
354.747	1	56
354.918	1	61
355.089	1	67
355.260	1	68
355.431	1	70
355.602	1	54
355.773	1	59
355.944	1	60
356.115	1	51
356.286	1	55
356.457	1	66
356.628	1	60
356.799	1	62
356.970	1	76
357.141	1	58
357.311	1	44
357.482	1	62
357.653	1	64
357.824	1	79
357.995	1	61
358.166	1	54
358.337	1	62
358.508	1	65
358.679	1	72
358.850	1	65
359.021	1	44
359.192	1	68
359.363	1	64
359.533	1	65
359.704	1	66
359.875	1	71
360.046	1	79
360.217	1	60
360.388	1	76
360.559	1	66
360.730	1	65
360.901	1	65
361.072	1	82
361.243	1	67
361.414	1	77
361.584	1	63
361.755	1	75
361.926	1	60
362.097	1	57
362.268	1	74
362.439	1	63
362.610	1	74
362.781	1	75
362.952	1	60
363.123	1	76
363.293	1	66
363.464	1	77
363.635	1	69
363.806	1	75
363.977	1	67
364.148	1	63
364.319	1	77
364.490	1	74
364.661	1	72
364.832	1	74
365.002	1	73
365.173	1	75
365.344	1	74
365.515	1	64
365.686	1	70
365.857	1	73
366.028	1	79
366.199	1	68
366.370	1	75
366.540	1	63
366.711	1	62
366.882	1	51
367.053	1	64
367.224	1	86
367.395	1	71
367.566	1	79
367.737	1	84
367.908	1	79
368.078	1	71
368.249	1	71
368.420	1	68
368.591	1	75
368.762	1	78
368.933	1	74
369.104	1	57
369.274	1	71
369.445	1	74
369.616	1	76
369.787	1	76
369.958	1	75
370.129	1	72
370.300	1	76
370.471	1	56
370.641	1	84
370.812	1	70
370.983	1	69
371.154	1	78
371.325	1	88
371.496	1	76
371.667	1	78
371.837	1	67
372.008	1	78
372.179	1	66
372.350	1	78
372.521	1	79
372.692	1	76
372.863	1	79
373.033	1	62
373.204	1	61
373.375	1	93
373.546	1	75
373.717	1	80
373.888	1	85
374.059	1	79
374.229	1	82
374.400	1	77
374.571	1	74
374.742	1	85
374.913	1	87
375.084	1	83
375.254	1	87
375.425	1	84
375.596	1	94
375.767	1	80
375.938	1	83
376.109	1	81
376.279	1	75
376.450	1	96
376.621	1	79
376.792	1	84
376.963	1	82
377.134	1	90
377.304	1	78
377.475	1	80
377.646	1	84
377.817	1	69
377.988	1	85
378.159	1	78
378.329	1	87
378.500	1	88
378.671	1	89
378.842	1	88
379.013	1	70
379.184	1	86
379.354	1	92
379.525	1	92
379.696	1	89
379.867	1	101
380.038	1	86
380.209	1	89
380.379	1	87
380.550	1	78
380.721	1	99
380.892	1	84
381.063	1	82
381.233	1	81
381.404	1	87
381.575	1	92
381.746	1	93
381.917	1	86
382.087	1	93
382.258	1	86
382.429	1	92
382.600	1	109
382.771	1	81
382.941	1	87
383.112	1	86
383.283	1	94
383.454	1	87
383.625	1	86
383.795	1	103
383.966	1	85
384.137	1	97
384.308	1	91
384.479	1	87
384.649	1	89
384.820	1	95
384.991	1	84
385.162	1	96
385.333	1	82
385.503	1	99
385.674	1	90
385.845	1	106
386.016	1	99
386.187	1	100
386.357	1	97
386.528	1	97
386.699	1	101
386.870	1	98
387.041	1	100
387.211	1	109
387.382	1	119
387.553	1	109
387.724	1	98
387.894	1	107
388.065	1	93
388.236	1	105
388.407	1	98
388.578	1	96
388.748	1	80
388.919	1	108
389.090	1	108
389.261	1	105
389.431	1	112
389.602	1	107
389.773	1	112
389.944	1	90
390.114	1	107
390.285	1	111
390.456	1	98
390.627	1	106
390.798	1	103
390.968	1	95
391.139	1	107
391.310	1	103
391.481	1	106
391.651	1	106
391.822	1	101
391.993	1	99
392.164	1	89
392.334	1	102
392.505	1	104
392.676	1	116
392.847	1	108
393.017	1	105
393.188	1	109
393.359	1	96
393.530	1	105
393.700	1	102
393.871	1	97
394.042	1	103
394.213	1	96
394.383	1	97
394.554	1	102
394.725	1	118
394.896	1	106
395.066	1	104
395.237	1	108
395.408	1	105
395.579	1	110
395.749	1	105
395.920	1	105
396.091	1	104
396.262	1	103
396.432	1	110
396.603	1	117
396.774	1	123
396.945	1	113
397.115	1	120
397.286	1	105
397.457	1	112
397.627	1	122
397.798	1	108
397.969	1	107
398.140	1	110
398.310	1	116
398.481	1	110
398.652	1	111
398.823	1	109
398.993	1	102
399.164	1	112
399.335	1	121
399.505	1	113
399.676	1	110
399.847	1	106
400.018	1	119
400.188	1	112
400.359	1	115
400.530	1	108
400.700	1	118
400.871	1	108
401.042	1	111
401.213	1	111
401.383	1	118
401.554	1	108
401.725	1	125
401.895	1	109
402.066	1	115
402.237	1	111
402.408	1	119
402.578	1	112
402.749	1	116
402.920	1	122
403.090	1	108
403.261	1	110
403.432	1	100
403.603	1	121
403.773	1	120
403.944	1	117
404.115	1	116
404.285	1	124
404.456	1	120
404.627	1	104
404.797	1	99
404.968	1	108
405.139	1	113
405.310	1	115
405.480	1	123
405.651	1	112
405.822	1	115
405.992	1	118
406.163	1	120
406.334	1	99
406.504	1	114
406.675	1	122
406.846	1	130
407.016	1	123
407.187	1	118
407.358	1	113
407.528	1	112
407.699	1	112
407.870	1	102
408.041	1	123
408.211	1	120
408.382	1	118
408.553	1	106
408.723	1	120
408.894	1	117
409.065	1	125
409.235	1	119
409.406	1	125
409.577	1	113
409.747	1	124
409.918	1	122
410.089	1	117
410.259	1	115
410.430	1	112
410.601	1	122
410.771	1	114
410.942	1	116
411.113	1	116
411.283	1	115
411.454	1	117
411.625	1	124
411.795	1	123
411.966	1	128
412.137	1	110
412.307	1	99
412.478	1	119
412.649	1	128
412.819	1	118
412.990	1	104
413.161	1	129
413.331	1	112
413.502	1	121
413.672	1	113
413.843	1	113
414.014	1	111
414.184	1	117
414.355	1	110
414.526	1	114
414.696	1	124
414.867	1	120
415.038	1	98
415.208	1	117
415.379	1	117
415.550	1	114
415.720	1	101
415.891	1	114
416.062	1	108
416.232	1	119
416.403	1	122
416.573	1	124
416.744	1	107
416.915	1	126
417.085	1	108
417.256	1	114
417.427	1	107
417.597	1	112
417.768	1	101
417.939	1	121
418.109	1	124
418.280	1	114
418.450	1	122
418.621	1	100
418.792	1	120
418.962	1	105
419.133	1	111
419.304	1	107
419.474	1	114
419.645	1	117
419.815	1	133
419.986	1	118
420.157	1	122
420.327	1	116
420.498	1	114
420.669	1	115
420.839	1	125
421.010	1	114
421.180	1	112
421.351	1	110
421.522	1	115
421.692	1	113
421.863	1	110
422.033	1	122
422.204	1	114
422.375	1	110
422.545	1	111
422.716	1	118
422.886	1	103
423.057	1	114
423.228	1	104
423.398	1	105
423.569	1	107
423.740	1	105
423.910	1	98
424.081	1	109
424.251	1	104
424.422	1	102
424.593	1	98
424.763	1	121
424.934	1	106
425.104	1	111
425.275	1	108
425.445	1	100
425.616	1	106
425.787	1	107
425.957	1	108
426.128	1	105
426.298	1	107
426.469	1	92
426.640	1	111
426.810	1	107
426.981	1	107
427.151	1	96
427.322	1	114
427.493	1	97
427.663	1	114
427.834	1	91
428.004	1	113
428.175	1	110
428.345	1	96
428.516	1	90
428.687	1	99
428.857	1	97
429.028	1	94
429.198	1	109
429.369	1	105
429.540	1	109
429.710	1	95
429.881	1	108
430.051	1	108
430.222	1	107
430.392	1	99
430.563	1	111
430.734	1	106
430.904	1	110
431.075	1	114
431.245	1	107
431.416	1	105
431.586	1	98
431.757	1	106
431.927	1	95
432.098	1	106
432.269	1	104
432.439	1	112
432.610	1	97
432.780	1	107
432.951	1	93
433.121	1	111
433.292	1	109
433.462	1	103
433.633	1	102
433.804	1	109
433.974	1	95
434.145	1	124
434.315	1	91
434.486	1	99
434.656	1	105
434.827	1	110
434.997	1	98
435.168	1	99
435.339	1	94
435.509	1	93
435.680	1	111
435.850	1	94
436.021	1	91
436.191	1	90
436.362	1	107
436.532	1	92
436.703	1	101
436.873	1	95
437.044	1	85
437.214	1	82
437.385	1	83
437.556	1	111
437.726	1	113
437.897	1	111
438.067	1	102
438.238	1	98
438.408	1	100
438.579	1	99
438.749	1	88
438.920	1	93
439.090	1	96
439.261	1	84
439.431	1	81
439.602	1	95
439.772	1	87
439.943	1	107
440.113	1	91
440.284	1	92
440.455	1	92
440.625	1	94
440.796	1	89
440.966	1	81
441.137	1	83
441.307	1	89
441.478	1	97
441.648	1	88
441.819	1	99
441.989	1	87
442.160	1	96
442.330	1	79
442.501	1	77
442.671	1	82
442.842	1	68
443.012	1	80
443.183	1	84
443.353	1	83
443.524	1	88
443.694	1	105
443.865	1	80
444.035	1	95
444.206	1	89
444.376	1	83
444.547	1	92
444.717	1	88
444.888	1	88
445.058	1	85
445.229	1	89
445.399	1	90
445.570	1	84
445.740	1	84
445.911	1	78
446.081	1	77
446.252	1	93
446.422	1	75
446.593	1	92
446.763	1	90
446.934	1	87
447.104	1	92
447.275	1	78
447.445	1	79
447.616	1	91
447.786	1	82
447.957	1	93
448.127	1	78
448.298	1	95
448.468	1	87
448.639	1	75
448.809	1	73
448.979	1	78
449.150	1	90
449.320	1	86
449.491	1	88
449.661	1	68
449.832	1	71
450.002	1	80
450.173	1	78
450.343	1	82
450.514	1	87
450.684	1	80
450.855	1	75
451.025	1	87
451.196	1	86
451.366	1	84
451.537	1	72
451.707	1	70
451.878	1	69
452.048	1	84
452.218	1	82
452.389	1	85
452.559	1	74
452.730	1	86
452.900	1	71
453.071	1	72
453.241	1	88
453.412	1	76
453.582	1	69
453.753	1	71
453.923	1	87
454.093	1	81
454.264	1	90
454.434	1	72
454.605	1	72
454.775	1	64
454.946	1	80
455.116	1	69
455.287	1	68
455.457	1	69
455.628	1	67
455.798	1	78
455.968	1	85
456.139	1	75
456.309	1	70
456.480	1	65
456.650	1	65
456.821	1	63
456.991	1	71
457.161	1	67
457.332	1	80
457.502	1	60
457.673	1	78
457.843	1	68
458.014	1	74
458.184	1	76
458.355	1	76
458.525	1	73
458.695	1	68
458.866	1	74
459.036	1	74
459.207	1	75
459.377	1	61
459.548	1	81
459.718	1	63
459.888	1	72
460.059	1	73
460.229	1	79
460.400	1	75
460.570	1	72
460.740	1	64
460.911	1	66
461.081	1	66
461.252	1	68
461.422	1	64
461.593	1	77
461.763	1	66
461.933	1	83
462.104	1	65
462.274	1	68
462.445	1	76
462.615	1	79
462.785	1	59
462.956	1	66
463.126	1	70
463.297	1	60
463.467	1	56
463.638	1	69
463.808	1	67
463.978	1	65
464.149	1	54
464.319	1	63
464.490	1	71
464.660	1	54
464.830	1	60
465.001	1	61
465.171	1	59
465.342	1	79
465.512	1	54
465.682	1	67
465.853	1	69
466.023	1	60
466.194	1	63
466.364	1	60
466.534	1	59
466.705	1	58
466.875	1	51
467.045	1	54
467.216	1	72
467.386	1	54
467.557	1	46
467.727	1	54
467.897	1	50
468.068	1	66
468.238	1	56
468.409	1	56
468.579	1	61
468.749	1	54
468.920	1	55
469.090	1	52
469.260	1	42
469.431	1	55
469.601	1	63
469.772	1	57
469.942	1	56
470.112	1	70
470.283	1	54
470.453	1	53
470.623	1	51
470.794	1	47
470.964	1	54
471.135	1	66
471.305	1	40
471.475	1	58
471.646	1	48
471.816	1	50
471.986	1	59
472.157	1	60
472.327	1	40
472.497	1	54
472.668	1	56
472.838	1	47
473.009	1	59
473.179	1	51
473.349	1	48
473.520	1	61
473.690	1	55
473.860	1	56
474.031	1	57
474.201	1	52
474.371	1	64
474.542	1	55
474.712	1	58
474.882	1	56
475.053	1	59
475.223	1	51
475.394	1	55
475.564	1	55
475.734	1	53
475.905	1	65
476.075	1	49
476.245	1	70
476.416	1	67
476.586	1	62
476.756	1	58
476.927	1	62
477.097	1	50
477.267	1	46
477.438	1	56
477.608	1	57
477.778	1	60
477.949	1	50
478.119	1	63
478.289	1	52
478.460	1	58
478.630	1	49
478.800	1	65
478.971	1	49
479.141	1	51
479.311	1	36
479.482	1	47
479.652	1	33
479.822	1	44
479.993	1	55
480.163	1	54
480.333	1	53
480.504	1	62
480.674	1	57
480.844	1	42
481.015	1	56
481.185	1	42
481.355	1	46
481.525	1	48
481.696	1	52
481.866	1	58
482.036	1	48
482.207	1	50
482.377	1	44
482.547	1	63
482.718	1	41
482.888	1	50
483.058	1	37
483.229	1	39
483.399	1	42
483.569	1	43
483.740	1	43
483.910	1	38
484.080	1	52
484.250	1	46
484.421	1	43
484.591	1	49
484.761	1	57
484.932	1	52
485.102	1	50
485.272	1	50
485.443	1	52
485.613	1	55
485.783	1	45
485.953	1	53
486.124	1	41
486.294	1	52
486.464	1	45
486.635	1	47
486.805	1	46
486.975	1	40
487.146	1	47
487.316	1	46
487.486	1	44
487.656	1	42
487.827	1	42
487.997	1	31
488.167	1	36
488.338	1	49
488.508	1	45
488.678	1	41
488.848	1	53
489.019	1	37
489.189	1	43
489.359	1	45
489.529	1	45
489.700	1	34
489.870	1	56
490.040	1	42
490.211	1	38
490.381	1	45
490.551	1	39
490.721	1	41
490.892	1	33
491.062	1	35
491.232	1	43
491.402	1	43
491.573	1	29
491.743	1	38
491.913	1	41
492.084	1	43
492.254	1	45
492.424	1	42
492.594	1	37
492.765	1	41
492.935	1	38
493.105	1	52
493.275	1	37
493.446	1	42
493.616	1	46
493.786	1	34
493.956	1	35
494.127	1	32
494.297	1	38
494.467	1	41
494.637	1	38
494.808	1	32
494.978	1	26
495.148	1	33
495.318	1	32
495.489	1	49
495.659	1	38
495.829	1	36
495.999	1	26
496.170	1	45
496.340	1	37
496.510	1	46
496.680	1	24
496.851	1	45
497.021	1	34
497.191	1	30
497.361	1	49
497.532	1	31
497.702	1	29
497.872	1	38
498.042	1	46
498.213	1	42
498.383	1	37
498.553	1	32
498.723	1	38
498.894	1	38
499.064	1	35
499.234	1	32
499.404	1	34
499.574	1	39
499.745	1	24
499.915	1	39
500.085	1	29
500.255	1	43
500.426	1	35
500.596	1	25
500.766	1	28
500.936	1	31
501.106	1	23
501.277	1	31
501.447	1	35
501.617	1	26
501.787	1	34
501.958	1	33
502.128	1	24
502.298	1	36
502.468	1	39
502.638	1	32
502.809	1	35
502.979	1	24
503.149	1	31
503.319	1	37
503.489	1	28
503.660	1	36
503.830	1	33
504.000	1	28
504.170	1	30
504.340	1	26
504.511	1	33
504.681	1	37
504.851	1	37
505.021	1	39
505.192	1	32
505.362	1	40
505.532	1	29
505.702	1	26
505.872	1	35
506.043	1	34
506.213	1	18
506.383	1	33
506.553	1	38
506.723	1	35
506.893	1	32
507.064	1	29
507.234	1	28
507.404	1	30
507.574	1	25
507.744	1	35
507.915	1	36
508.085	1	32
508.255	1	27
508.425	1	28
508.595	1	34
508.766	1	23
508.936	1	22
509.106	1	31
509.276	1	28
509.446	1	31
509.616	1	22
509.787	1	40
509.957	1	22
510.127	1	21
510.297	1	25
510.467	1	23
510.638	1	24
510.808	1	19
510.978	1	16
511.148	1	34
511.318	1	15
511.488	1	18
511.659	1	32
511.829	1	20
511.999	1	25
512.169	1	33
512.339	1	17
512.509	1	10
512.680	1	26
512.850	1	21
513.020	1	24
513.190	1	33
513.360	1	19
513.530	1	18
513.700	1	35
513.871	1	25
514.041	1	29
514.211	1	25
514.381	1	24
514.551	1	22
514.721	1	20
514.892	1	23
515.062	1	21
515.232	1	23
515.402	1	15
515.572	1	11
515.742	1	23
515.912	1	26
516.083	1	17
516.253	1	34
516.423	1	18
516.593	1	24
516.763	1	37
516.933	1	7
517.104	1	14
517.274	1	26
517.444	1	18
517.614	1	17
517.784	1	11
517.954	1	21
518.124	1	23
518.294	1	15
518.465	1	16
518.635	1	25
518.805	1	20
518.975	1	23
519.145	1	9
519.315	1	22
519.485	1	14
519.656	1	23
519.826	1	21
519.996	1	8
520.166	1	21
520.336	1	26
520.506	1	18
520.676	1	8
520.846	1	25
521.017	1	22
521.187	1	20
521.357	1	29
521.527	1	16
521.697	1	29
521.867	1	14
522.037	1	29
522.207	1	27
522.377	1	26
522.548	1	17
522.718	1	16
522.888	1	26
523.058	1	15
523.228	1	28
523.398	1	30
523.568	1	24
523.738	1	22
523.909	1	21
524.079	1	13
524.249	1	10
524.419	1	18
524.589	1	17
524.759	1	5
524.929	1	15
525.099	1	25
525.269	1	23
525.439	1	4
525.610	1	33
525.780	1	19
525.950	1	21
526.120	1	7
526.290	1	17
526.460	1	13
526.630	1	23
526.800	1	14
526.970	1	17
527.140	1	19
527.311	1	14
527.481	1	7
527.651	1	24
527.821	1	12
527.991	1	26
528.161	1	20
528.331	1	17
528.501	1	13
528.671	1	9
528.841	1	27
529.011	1	10
529.181	1	22
529.352	1	13
529.522	1	-3
529.692	1	10
529.862	1	12
530.032	1	20
530.202	1	22
530.372	1	21
530.542	1	29
530.712	1	21
530.882	1	13
531.052	1	23
531.222	1	15
531.392	1	12
531.563	1	24
531.733	1	19
531.903	1	13
532.073	1	17
532.243	1	15
532.413	1	19
532.583	1	17
532.753	1	11
532.923	1	12
533.093	1	20
533.263	1	5
533.433	1	16
533.603	1	14
533.773	1	19
533.943	1	17
534.113	1	20
534.284	1	13
534.454	1	22
534.624	1	19
534.794	1	11
534.964	1	19
535.134	1	10
535.304	1	18
535.474	1	25
535.644	1	5
535.814	1	9
535.984	1	5
536.154	1	7
536.324	1	12
536.494	1	23
536.664	1	23
536.834	1	15
537.004	1	11
537.174	1	20
537.344	1	15
537.514	1	5
537.685	1	9
537.855	1	20
538.025	1	9
538.195	1	14
538.365	1	24
538.535	1	14
538.705	1	11
538.875	1	16
539.045	1	24
539.215	1	13
539.385	1	16
539.555	1	18
539.725	1	17
539.895	1	13
540.065	1	19
540.235	1	15
540.405	1	12
540.575	1	11
540.745	1	15
540.915	1	27
541.085	1	21
541.255	1	4
541.425	1	11
541.595	1	12
541.765	1	14
541.935	1	6
542.105	1	7
542.275	1	17
542.445	1	-2
542.615	1	17
542.785	1	10
542.955	1	7
543.125	1	17
543.295	1	11
543.465	1	16
543.635	1	11
543.805	1	25
543.975	1	11
544.145	1	19
544.315	1	25
544.485	1	16
544.655	1	15
544.825	1	7
544.995	1	8
545.165	1	4
545.335	1	16
545.505	1	0
545.675	1	11
545.845	1	22
546.015	1	12
546.185	1	26
546.355	1	17
546.525	1	18
546.695	1	13
546.865	1	0
547.035	1	17
547.205	1	1
547.375	1	17
547.545	1	20
547.715	1	11
547.885	1	16
548.055	1	14
548.225	1	26
548.395	1	5
548.565	1	11
548.735	1	9
548.905	1	9
549.075	1	17
549.245	1	5
549.415	1	0
549.585	1	17
549.755	1	13
549.925	1	10
550.095	1	24
550.265	1	8
550.435	1	7
550.605	1	11
550.775	1	13
550.945	1	20
551.115	1	5
551.285	1	7
551.455	1	6
551.625	1	14
551.795	1	16
551.965	1	12
552.135	1	5
552.305	1	7
552.475	1	6
552.645	1	6
552.815	1	7
552.985	1	15
553.155	1	7
553.325	1	13
553.495	1	3
553.665	1	4
553.835	1	11
554.004	1	10
554.174	1	9
554.344	1	20
554.514	1	11
554.684	1	9
554.854	1	10
555.024	1	5
555.194	1	2
555.364	1	10
555.534	1	8
555.704	1	1
555.874	1	19
556.044	1	12
556.214	1	1
556.384	1	7
556.554	1	20
556.724	1	20
556.894	1	16
557.064	1	12
557.234	1	12
557.404	1	20
557.573	1	8
557.743	1	12
557.913	1	8
558.083	1	10
558.253	1	15
558.423	1	9
558.593	1	18
558.763	1	9
558.933	1	10
559.103	1	26
559.273	1	17
559.443	1	14
559.613	1	8
559.783	1	7
559.953	1	-1
560.122	1	15
560.292	1	8
560.462	1	12
560.632	1	14
560.802	1	15
560.972	1	6
561.142	1	10
561.312	1	6
561.482	1	8
561.652	1	10
561.822	1	10
561.992	1	6
562.162	1	15
562.331	1	13
562.501	1	3
562.671	1	10
562.841	1	6
563.011	1	17
563.181	1	11
563.351	1	-4
563.521	1	5
563.691	1	8
563.861	1	13
564.031	1	10
564.201	1	13
564.370	1	5
564.540	1	4
564.710	1	1
564.880	1	10
565.050	1	12
565.220	1	8
565.390	1	9
565.560	1	11
565.730	1	5
565.900	1	9
566.069	1	17
566.239	1	9
566.409	1	12
566.579	1	13
566.749	1	4
566.919	1	13
567.089	1	10
567.259	1	17
567.429	1	5
567.599	1	2
567.768	1	13
567.938	1	11
568.108	1	2
568.278	1	10
568.448	1	-1
568.618	1	16
568.788	1	17
568.958	1	4
569.128	1	18
569.297	1	5
569.467	1	1
569.637	1	18
569.807	1	6
569.977	1	14
570.147	1	17
570.317	1	-1
570.487	1	19
570.656	1	14
570.826	1	8
570.996	1	9
571.166	1	21
571.336	1	2
571.506	1	17
571.676	1	8
571.846	1	7
572.015	1	9
572.185	1	9
572.355	1	7
572.525	1	17
572.695	1	13
572.865	1	12
573.035	1	9
573.205	1	6
573.374	1	7
573.544	1	5
573.714	1	18
573.884	1	9
574.054	1	12
574.224	1	12
574.394	1	5
574.563	1	4
574.733	1	9
574.903	1	2
575.073	1	6
575.243	1	4
575.413	1	11
575.583	1	9
575.752	1	8
575.922	1	14
576.092	1	11
576.262	1	8
576.432	1	11
576.602	1	0
576.772	1	21
576.941	1	12
577.111	1	3
577.281	1	-4
577.451	1	-2
577.621	1	14
577.791	1	11
577.960	1	6
578.130	1	6
578.300	1	6
578.470	1	4
578.640	1	5
578.810	1	7
578.979	1	12
579.149	1	-1
579.319	1	2
579.489	1	3
579.659	1	5
579.829	1	3
579.998	1	16
580.168	1	17
580.338	1	13
580.508	1	8
580.678	1	7
580.848	1	4
581.017	1	8
581.187	1	8
581.357	1	1
581.527	1	11
581.697	1	11
581.867	1	15
582.036	1	5
582.206	1	4
582.376	1	11
582.546	1	4
582.716	1	-2
582.885	1	0
583.055	1	4
583.225	1	-4
583.395	1	7
583.565	1	-6
583.735	1	16
583.904	1	13
584.074	1	6
584.244	1	10
584.414	1	8
584.584	1	12
584.753	1	-2
584.923	1	12
585.093	1	15
585.263	1	11
585.433	1	10
585.602	1	3
585.772	1	4
585.942	1	-1
586.112	1	-2
586.282	1	9
586.451	1	4
586.621	1	0
586.791	1	9
586.961	1	15
587.131	1	16
587.300	1	7
587.470	1	9
587.640	1	11
587.810	1	2
587.980	1	3
588.149	1	6
588.319	1	7
588.489	1	1
588.659	1	5
588.829	1	8
588.998	1	19
589.168	1	4
589.338	1	9
589.508	1	10
589.677	1	-3
589.847	1	4
590.017	1	24
590.187	1	3
590.357	1	20
590.526	1	17
590.696	1	9
590.866	1	13
591.036	1	9
591.205	1	13
591.375	1	-2
591.545	1	5
591.715	1	14
591.885	1	14
592.054	1	16
592.224	1	13
592.394	1	11
592.564	1	10
592.733	1	9
592.903	1	8
593.073	1	5
593.243	1	16
593.412	1	11
593.582	1	11
593.752	1	0
593.922	1	-3
594.091	1	9
594.261	1	1
594.431	1	5
594.601	1	17
594.771	1	11
594.940	1	7
595.110	1	6
595.280	1	19
595.450	1	7
595.619	1	6
595.789	1	8
595.959	1	13
596.129	1	7
596.298	1	4
596.468	1	11
596.638	1	15
596.808	1	14
596.977	1	10
597.147	1	7
597.317	1	2
597.487	1	20
597.656	1	10
597.826	1	18
597.996	1	7
598.166	1	1
598.335	1	6
598.505	1	8
598.675	1	3
598.844	1	9
599.014	1	5
599.184	1	14
599.354	1	-3
599.523	1	15
599.693	1	-7
599.863	1	21
600.033	1	4
600.202	1	15
600.372	1	8
600.542	1	13
600.712	1	-4
600.881	1	5
601.051	1	8
601.221	1	11
601.390	1	1
601.560	1	17
601.730	1	13
601.900	1	8
602.069	1	22
602.239	1	3
602.409	1	18
602.578	1	8
602.748	1	15
602.918	1	14
603.088	1	12
603.257	1	10
603.427	1	4
603.597	1	6
603.767	1	22
603.936	1	6
604.106	1	5
604.276	1	11
604.445	1	18
604.615	1	9
604.785	1	3
604.954	1	-3
605.124	1	14
605.294	1	17
605.464	1	5
605.633	1	9
605.803	1	13
605.973	1	5
606.142	1	9
606.312	1	13
606.482	1	10
606.652	1	15
606.821	1	4
606.991	1	11
607.161	1	4
607.330	1	7
607.500	1	5
607.670	1	4
607.839	1	7
608.009	1	16
608.179	1	18
608.348	1	16
608.518	1	13
608.688	1	18
608.858	1	2
609.027	1	-1
609.197	1	16
609.367	1	18
609.536	1	18
609.706	1	10
609.876	1	11
610.045	1	14
610.215	1	12
610.385	1	13
610.554	1	7
610.724	1	17
610.894	1	0
611.063	1	11
611.233	1	1
611.403	1	9
611.572	1	0
611.742	1	13
611.912	1	4
612.081	1	17
612.251	1	17
612.421	1	11
612.590	1	1
612.760	1	4
612.930	1	10
613.099	1	19
613.269	1	8
613.439	1	3
613.608	1	7
613.778	1	15
613.948	1	5
614.117	1	14
614.287	1	9
614.457	1	8
614.626	1	1
614.796	1	13
614.966	1	9
615.135	1	11
615.305	1	23
615.475	1	9
615.644	1	12
615.814	1	7
615.984	1	1
616.153	1	6
616.323	1	9
616.493	1	13
616.662	1	8
616.832	1	9
617.002	1	13
617.171	1	20
617.341	1	10
617.511	1	14
617.680	1	-4
617.850	1	15
618.019	1	18
618.189	1	19
618.359	1	9
618.528	1	16
618.698	1	12
618.868	1	-2
619.037	1	9
619.207	1	7
619.377	1	5
619.546	1	3
619.716	1	0
619.885	1	9
620.055	1	-4
620.225	1	20
620.394	1	9
620.564	1	19
620.734	1	17
620.903	1	5
621.073	1	22
621.242	1	17
621.412	1	7
621.582	1	11
621.751	1	18
621.921	1	16
622.091	1	4
622.260	1	2
622.430	1	13
622.599	1	7
622.769	1	16
622.939	1	23
623.108	1	5
623.278	1	5
623.448	1	7
623.617	1	4
623.787	1	2
623.956	1	16
624.126	1	15
624.296	1	15
624.465	1	13
624.635	1	24
624.804	1	9
624.974	1	12
625.144	1	15
625.313	1	17
625.483	1	3
625.652	1	7
625.822	1	6
625.992	1	-1
626.161	1	24
626.331	1	8
626.501	1	9
626.670	1	14
626.840	1	14
627.009	1	5
627.179	1	26
627.348	1	19
627.518	1	12
627.688	1	11
627.857	1	19
628.027	1	1
628.196	1	9
628.366	1	19
628.536	1	17
628.705	1	9
628.875	1	12
629.044	1	10
629.214	1	18
629.384	1	16
629.553	1	25
629.723	1	13
629.892	1	21
630.062	1	11
630.232	1	11
630.401	1	12
630.571	1	14
630.740	1	10
630.910	1	20
631.079	1	15
631.249	1	16
631.419	1	20
631.588	1	9
631.758	1	12
631.927	1	8
632.097	1	8
632.266	1	13
632.436	1	18
632.606	1	5
632.775	1	19
632.945	1	16
633.114	1	14
633.284	1	16
633.453	1	11
633.623	1	8
633.793	1	13
633.962	1	8
634.132	1	13
634.301	1	19
634.471	1	19
634.640	1	14
634.810	1	9
634.979	1	23
635.149	1	19
635.319	1	20
635.488	1	20
635.658	1	20
635.827	1	9
635.997	1	15
636.166	1	13
636.336	1	4
636.505	1	18
636.675	1	12
636.845	1	15
637.014	1	21
637.184	1	19
637.353	1	12
637.523	1	19
637.692	1	17
637.862	1	16
638.031	1	16
638.201	1	11
638.370	1	15
638.540	1	16
638.710	1	25
638.879	1	9
639.049	1	12
639.218	1	11
639.388	1	9
639.557	1	10
639.727	1	10
639.896	1	12
640.066	1	14
640.235	1	18
640.405	1	20
640.574	1	21
640.744	1	4
640.914	1	19
641.083	1	20
641.253	1	20
641.422	1	13
641.592	1	27
641.761	1	13
641.931	1	9
642.100	1	25
642.270	1	9
642.439	1	11
642.609	1	17
642.778	1	12
642.948	1	13
643.117	1	17
643.287	1	17
643.456	1	15
643.626	1	30
643.795	1	13
643.965	1	22
644.134	1	15
644.304	1	16
644.473	1	18
644.643	1	19
644.812	1	14
644.982	1	15
645.151	1	20
645.321	1	15
645.490	1	17
645.660	1	12
645.829	1	10
645.999	1	16
646.168	1	18
646.338	1	19
646.507	1	21
646.677	1	15
646.846	1	6
647.016	1	11
647.185	1	14
647.355	1	8
647.524	1	20
647.694	1	19
647.863	1	22
648.033	1	17
648.202	1	21
648.372	1	16
648.541	1	10
648.711	1	9
648.880	1	15
649.050	1	7
649.219	1	12
649.389	1	20
649.558	1	24
649.728	1	23
649.897	1	7
650.067	1	18
650.236	1	17
650.406	1	19
650.575	1	26
650.745	1	17
650.914	1	18
651.084	1	2
651.253	1	12
651.423	1	6
651.592	1	13
651.762	1	17
651.931	1	28
652.101	1	10
652.270	1	21
652.440	1	16
652.609	1	12
652.778	1	8
652.948	1	13
653.117	1	21
653.287	1	12
653.456	1	23
653.626	1	25
653.795	1	14
653.965	1	12
654.134	1	25
654.304	1	2
654.473	1	23
654.643	1	15
654.812	1	18
654.982	1	24
655.151	1	15
655.320	1	19
655.490	1	11
655.659	1	21
655.829	1	14
655.998	1	15
656.168	1	20
656.337	1	17
656.507	1	11
656.676	1	19
656.846	1	26
657.015	1	26
657.184	1	21
657.354	1	21
657.523	1	17
657.693	1	27
657.862	1	21
658.032	1	30
658.201	1	10
658.371	1	22
658.540	1	28
658.709	1	9
658.879	1	25
659.048	1	14
659.218	1	17
659.387	1	20
659.557	1	25
659.726	1	18
659.895	1	23
660.065	1	17
660.234	1	9
660.404	1	22
660.573	1	9
660.743	1	21
660.912	1	15
661.081	1	28
661.251	1	27
661.420	1	30
661.590	1	20
661.759	1	23
661.929	1	22
662.098	1	24
662.267	1	28
662.437	1	27
662.606	1	26
662.776	1	16
662.945	1	24
663.115	1	16
663.284	1	14
663.453	1	20
663.623	1	31
663.792	1	21
663.962	1	18
664.131	1	34
664.300	1	31
664.470	1	9
664.639	1	23
664.809	1	18
664.978	1	27
665.148	1	19
665.317	1	18
665.486	1	20
665.656	1	20
665.825	1	21
665.995	1	14
666.164	1	16
666.333	1	17
666.503	1	17
666.672	1	18
666.842	1	21
667.011	1	16
667.180	1	22
667.350	1	19
667.519	1	30
667.689	1	17
667.858	1	18
668.027	1	27
668.197	1	20
668.366	1	13
668.536	1	26
668.705	1	28
668.874	1	9
669.044	1	16
669.213	1	23
669.382	1	15
669.552	1	32
669.721	1	24
669.891	1	32
670.060	1	18
670.229	1	42
670.399	1	10
670.568	1	26
670.738	1	35
670.907	1	12
671.076	1	21
671.246	1	7
671.415	1	20
671.584	1	24
671.754	1	21
671.923	1	21
672.093	1	18
672.262	1	23
672.431	1	24
672.601	1	27
672.770	1	21
672.939	1	12
673.109	1	9
673.278	1	21
673.448	1	32
673.617	1	20
673.786	1	30
