325.333	1	10
325.504	1	-1
325.675	1	9
325.846	1	-3
326.017	1	6
326.188	1	3
326.359	1	-2
326.531	1	-14
326.702	1	2
326.873	1	2
327.044	1	6
327.215	1	-3
327.386	1	4
327.557	1	-3
327.728	1	0
327.899	1	9
328.070	1	13
328.241	1	17
328.412	1	-1
328.583	1	1
328.754	1	4
328.926	1	13
329.097	1	-8
329.268	1	8
329.439	1	-3
329.610	1	7
329.781	1	-2
329.952	1	6
330.123	1	4
330.294	1	8
330.465	1	-2
330.636	1	4
330.807	1	-9
330.978	1	-6
331.149	1	0
331.320	1	5
331.492	1	4
331.663	1	6
331.834	1	1
332.005	1	5
332.176	1	10
332.347	1	0
332.518	1	-7
332.689	1	11
332.860	1	1
333.031	1	-1
333.202	1	-6
333.373	1	3
333.544	1	2
333.715	1	9
333.886	1	-8
334.057	1	8
334.228	1	-6
334.399	1	7
334.570	1	10
334.741	1	3
334.912	1	6
335.084	1	20
335.255	1	-4
335.426	1	-3
335.597	1	-3
335.768	1	5
335.939	1	6
336.110	1	-2
336.281	1	-3
336.452	1	-1
336.623	1	17
336.794	1	2
336.965	1	6
337.136	1	3
337.307	1	-4
337.478	1	1
337.649	1	-5
337.820	1	4
337.991	1	6
338.162	1	15
338.333	1	0
338.504	1	11
338.675	1	4
338.846	1	4
339.017	1	0
339.188	1	-3
339.359	1	1
339.530	1	5
339.701	1	14
339.872	1	3
340.043	1	3
340.214	1	11
340.385	1	10
340.556	1	-9
340.727	1	17
340.898	1	12
341.069	1	6
341.240	1	5
341.411	1	2
341.582	1	3
341.753	1	0
341.924	1	0
342.095	1	11
342.266	1	9
342.437	1	11
342.608	1	2
342.779	1	15
342.950	1	9
343.121	1	4
343.292	1	-3
343.463	1	5
343.634	1	0
343.805	1	15
343.976	1	5
344.147	1	-2
344.318	1	0
344.489	1	-2
344.660	1	16
344.831	1	1
345.002	1	-9
345.173	1	8
345.344	1	9
345.515	1	10
345.686	1	3
345.857	1	12
346.028	1	5
346.199	1	-4
346.370	1	-2
346.541	1	11
346.712	1	-3
346.883	1	5
347.054	1	2
347.225	1	10
347.396	1	11
347.567	1	7
347.738	1	-11
347.909	1	13
348.080	1	1
348.251	1	15
348.422	1	4
348.593	1	4
348.764	1	7
348.935	1	6
349.106	1	6
349.277	1	3
349.448	1	14
349.619	1	6
349.790	1	10
349.961	1	9
350.132	1	12
350.303	1	1
350.474	1	9
350.645	1	7
350.816	1	5
350.987	1	11
351.157	1	0
351.328	1	7
351.499	1	18
351.670	1	-3
351.841	1	16
352.012	1	8
352.183	1	15
352.354	1	18
352.525	1	13
352.696	1	21
352.867	1	3
353.038	1	13
353.209	1	2
353.380	1	0
353.551	1	0
353.722	1	11
353.893	1	10
354.064	1	19
354.235	1	7
354.406	1	4
354.576	1	4
354.747	1	1
354.918	1	9
355.089	1	6
355.260	1	7
355.431	1	16
355.602	1	-1
355.773	1	9
355.944	1	10
356.115	1	8
356.286	1	6
356.457	1	13
356.628	1	7
356.799	1	-1
356.970	1	15
357.141	1	4
357.311	1	8
357.482	1	-4
357.653	1	11
357.824	1	13
357.995	1	12
358.166	1	1
358.337	1	10
358.508	1	3
358.679	1	9
358.850	1	8
359.021	1	2
359.192	1	8
359.363	1	10
359.533	1	9
359.704	1	0
359.875	1	-3
360.046	1	9
360.217	1	-4
360.388	1	9
360.559	1	6
360.730	1	6
360.901	1	1
361.072	1	15
361.243	1	10
361.414	1	10
361.584	1	2
361.755	1	8
361.926	1	3
362.097	1	15
362.268	1	5
362.439	1	6
362.610	1	16
362.781	1	8
362.952	1	-5
363.123	1	-6
363.293	1	-8
363.464	1	12
363.635	1	14
363.806	1	-3
363.977	1	9
364.148	1	8
364.319	1	11
364.490	1	8
364.661	1	8
364.832	1	9
365.002	1	19
365.173	1	3
365.344	1	18
365.515	1	-8
365.686	1	-2
365.857	1	9
366.028	1	17
366.199	1	1
366.370	1	5
366.540	1	0
366.711	1	-8
366.882	1	0
367.053	1	5
367.224	1	25
367.395	1	10
367.566	1	13
367.737	1	16
367.908	1	13
368.078	1	3
368.249	1	12
368.420	1	2
368.591	1	2
368.762	1	9
368.933	1	7
369.104	1	-5
369.274	1	7
369.445	1	8
369.616	1	5
369.787	1	5
369.958	1	20
370.129	1	-3
370.300	1	20
370.471	1	9
370.641	1	13
370.812	1	4
370.983	1	12
371.154	1	10
371.325	1	19
371.496	1	5
371.667	1	22
371.837	1	-8
372.008	1	15
372.179	1	7
372.350	1	10
372.521	1	8
372.692	1	7
372.863	1	12
373.033	1	0
373.204	1	7
373.375	1	13
373.546	1	9
373.717	1	12
373.888	1	27
374.059	1	19
374.229	1	9
374.400	1	0
374.571	1	-1
374.742	1	18
374.913	1	21
375.084	1	13
375.254	1	7
375.425	1	16
375.596	1	18
375.767	1	4
375.938	1	4
376.109	1	16
376.279	1	8
376.450	1	10
376.621	1	11
376.792	1	3
376.963	1	4
377.134	1	14
377.304	1	19
377.475	1	1
377.646	1	15
377.817	1	5
377.988	1	7
378.159	1	13
378.329	1	17
378.500	1	2
378.671	1	20
378.842	1	3
379.013	1	-2
379.184	1	11
379.354	1	12
379.525	1	9
379.696	1	17
379.867	1	11
380.038	1	6
380.209	1	19
380.379	1	11
380.550	1	9
380.721	1	23
380.892	1	8
381.063	1	22
381.233	1	11
381.404	1	6
381.575	1	15
381.746	1	18
381.917	1	4
382.087	1	11
382.258	1	10
382.429	1	17
382.600	1	27
382.771	1	2
382.941	1	9
383.112	1	10
383.283	1	24
383.454	1	7
383.625	1	7
383.795	1	5
383.966	1	20
384.137	1	13
384.308	1	17
384.479	1	12
384.649	1	16
384.820	1	12
384.991	1	7
385.162	1	11
385.333	1	8
385.503	1	14
385.674	1	1
385.845	1	12
386.016	1	8
386.187	1	9
386.357	1	20
386.528	1	21
386.699	1	7
386.870	1	28
387.041	1	18
387.211	1	14
387.382	1	28
387.553	1	24
387.724	1	12
387.894	1	10
388.065	1	10
388.236	1	11
388.407	1	12
388.578	1	6
388.748	1	1
388.919	1	10
389.090	1	10
389.261	1	5
389.431	1	17
389.602	1	13
389.773	1	12
389.944	1	12
390.114	1	13
390.285	1	11
390.456	1	10
390.627	1	13
390.798	1	13
390.968	1	5
391.139	1	12
391.310	1	9
391.481	1	19
391.651	1	12
391.822	1	-3
391.993	1	12
392.164	1	6
392.334	1	8
392.505	1	-2
392.676	1	13
392.847	1	18
393.017	1	21
393.188	1	18
393.359	1	9
393.530	1	16
393.700	1	13
393.871	1	6
394.042	1	12
394.213	1	4
394.383	1	15
394.554	1	9
394.725	1	18
394.896	1	9
395.066	1	13
395.237	1	1
395.408	1	13
395.579	1	3
395.749	1	9
395.920	1	7
396.091	1	14
396.262	1	11
396.432	1	13
396.603	1	14
396.774	1	24
396.945	1	12
397.115	1	24
397.286	1	11
397.457	1	6
397.627	1	10
397.798	1	7
397.969	1	12
398.140	1	2
398.310	1	9
398.481	1	16
398.652	1	18
398.823	1	4
398.993	1	15
399.164	1	5
399.335	1	21
399.505	1	13
399.676	1	16
399.847	1	2
400.018	1	3
400.188	1	9
400.359	1	24
400.530	1	13
400.700	1	14
400.871	1	8
401.042	1	10
401.213	1	13
401.383	1	6
401.554	1	14
401.725	1	15
401.895	1	14
402.066	1	12
402.237	1	21
402.408	1	19
402.578	1	15
402.749	1	15
402.920	1	12
403.090	1	11
403.261	1	4
403.432	1	10
403.603	1	22
403.773	1	18
403.944	1	17
404.115	1	21
404.285	1	25
404.456	1	13
404.627	1	10
404.797	1	3
404.968	1	13
405.139	1	1
405.310	1	21
405.480	1	15
405.651	1	11
405.822	1	10
405.992	1	2
406.163	1	16
406.334	1	2
406.504	1	23
406.675	1	16
406.846	1	16
407.016	1	22
407.187	1	8
407.358	1	9
407.528	1	10
407.699	1	2
407.870	1	9
408.041	1	11
408.211	1	22
408.382	1	10
408.553	1	1
408.723	1	16
408.894	1	9
409.065	1	10
409.235	1	9
409.406	1	12
409.577	1	10
409.747	1	18
409.918	1	4
410.089	1	15
410.259	1	13
410.430	1	4
410.601	1	8
410.771	1	15
410.942	1	21
411.113	1	21
411.283	1	13
411.454	1	14
411.625	1	10
411.795	1	17
411.966	1	24
412.137	1	10
412.307	1	11
412.478	1	8
412.649	1	20
412.819	1	16
412.990	1	12
413.161	1	21
413.331	1	3
413.502	1	15
413.672	1	15
413.843	1	7
414.014	1	5
414.184	1	18
414.355	1	14
414.526	1	19
414.696	1	23
414.867	1	20
415.038	1	-2
415.208	1	16
415.379	1	19
415.550	1	12
415.720	1	17
415.891	1	16
416.062	1	18
416.232	1	5
416.403	1	22
416.573	1	22
416.744	1	13
416.915	1	13
417.085	1	16
417.256	1	16
417.427	1	16
417.597	1	16
417.768	1	7
417.939	1	19
418.109	1	11
418.280	1	24
418.450	1	9
418.621	1	-10
418.792	1	12
418.962	1	17
419.133	1	27
419.304	1	3
419.474	1	10
419.645	1	12
419.815	1	10
419.986	1	17
420.157	1	18
420.327	1	24
420.498	1	24
420.669	1	6
420.839	1	29
421.010	1	22
421.180	1	15
421.351	1	14
421.522	1	6
421.692	1	12
421.863	1	17
422.033	1	19
422.204	1	23
422.375	1	13
422.545	1	20
422.716	1	8
422.886	1	12
423.057	1	13
423.228	1	10
423.398	1	5
423.569	1	22
423.740	1	8
423.910	1	2
424.081	1	13
424.251	1	17
424.422	1	7
424.593	1	10
424.763	1	10
424.934	1	17
425.104	1	17
425.275	1	10
425.445	1	9
425.616	1	10
425.787	1	3
425.957	1	14
426.128	1	16
426.298	1	15
426.469	1	-1
426.640	1	15
426.810	1	14
426.981	1	12
427.151	1	2
427.322	1	22
427.493	1	11
427.663	1	10
427.834	1	8
428.004	1	15
428.175	1	14
428.345	1	8
428.516	1	4
428.687	1	18
428.857	1	-3
429.028	1	6
429.198	1	18
429.369	1	16
429.540	1	13
429.710	1	1
429.881	1	16
430.051	1	16
430.222	1	11
430.392	1	10
430.563	1	26
430.734	1	26
430.904	1	23
431.075	1	20
431.245	1	12
431.416	1	22
431.586	1	9
431.757	1	19
431.927	1	15
432.098	1	15
432.269	1	4
432.439	1	10
432.610	1	17
432.780	1	13
432.951	1	11
433.121	1	15
433.292	1	22
433.462	1	21
433.633	1	18
433.804	1	15
433.974	1	13
434.145	1	28
434.315	1	10
434.486	1	5
434.656	1	19
434.827	1	9
434.997	1	8
435.168	1	25
435.339	1	19
435.509	1	18
435.680	1	13
435.850	1	12
436.021	1	12
436.191	1	8
436.362	1	5
436.532	1	17
436.703	1	9
436.873	1	16
437.044	1	6
437.214	1	11
437.385	1	16
437.556	1	12
437.726	1	20
437.897	1	17
438.067	1	15
438.238	1	14
438.408	1	18
438.579	1	12
438.749	1	4
438.920	1	6
439.090	1	14
439.261	1	10
439.431	1	12
439.602	1	11
439.772	1	12
439.943	1	23
440.113	1	4
440.284	1	21
440.455	1	15
440.625	1	18
440.796	1	16
440.966	1	5
441.137	1	12
441.307	1	3
441.478	1	22
441.648	1	8
441.819	1	15
441.989	1	13
442.160	1	20
442.330	1	2
442.501	1	15
442.671	1	2
442.842	1	-7
443.012	1	4
443.183	1	19
443.353	1	4
443.524	1	24
443.694	1	25
443.865	1	18
444.035	1	9
444.206	1	10
444.376	1	2
444.547	1	23
444.717	1	6
444.888	1	1
445.058	1	17
445.229	1	21
445.399	1	6
445.570	1	14
445.740	1	11
445.911	1	4
446.081	1	6
446.252	1	8
446.422	1	12
446.593	1	-7
446.763	1	8
446.934	1	2
447.104	1	11
447.275	1	6
447.445	1	16
447.616	1	18
447.786	1	5
447.957	1	19
448.127	1	1
448.298	1	13
448.468	1	9
448.639	1	15
448.809	1	10
448.979	1	9
449.150	1	19
449.320	1	8
449.491	1	18
449.661	1	4
449.832	1	14
450.002	1	17
450.173	1	14
450.343	1	9
450.514	1	13
450.684	1	7
450.855	1	7
451.025	1	11
451.196	1	12
451.366	1	12
451.537	1	11
451.707	1	-1
451.878	1	9
452.048	1	21
452.218	1	11
452.389	1	18
452.559	1	11
452.730	1	22
452.900	1	12
453.071	1	5
453.241	1	10
453.412	1	11
453.582	1	5
453.753	1	2
453.923	1	2
454.093	1	12
454.264	1	18
454.434	1	8
454.605	1	11
454.775	1	7
454.946	1	16
455.116	1	14
455.287	1	11
455.457	1	12
455.628	1	0
455.798	1	16
455.968	1	24
456.139	1	7
456.309	1	4
456.480	1	6
456.650	1	4
456.821	1	6
456.991	1	11
457.161	1	8
457.332	1	18
457.502	1	-6
457.673	1	16
457.843	1	7
458.014	1	9
458.184	1	5
458.355	1	6
458.525	1	8
458.695	1	11
458.866	1	8
459.036	1	16
459.207	1	9
459.377	1	2
459.548	1	10
459.718	1	7
459.888	1	21
460.059	1	13
460.229	1	18
460.400	1	14
460.570	1	19
460.740	1	3
460.911	1	18
461.081	1	4
461.252	1	1
461.422	1	11
461.593	1	18
461.763	1	1
461.933	1	18
462.104	1	4
462.274	1	11
462.445	1	5
462.615	1	5
462.785	1	12
462.956	1	19
463.126	1	14
463.297	1	2
463.467	1	9
463.638	1	18
463.808	1	-1
463.978	1	-8
464.149	1	9
464.319	1	-2
464.490	1	11
464.660	1	3
464.830	1	6
465.001	1	10
465.171	1	6
465.342	1	9
465.512	1	5
465.682	1	6
465.853	1	17
466.023	1	5
466.194	1	3
466.364	1	13
466.534	1	4
466.705	1	12
466.875	1	11
467.045	1	10
467.216	1	17
467.386	1	0
467.557	1	-1
467.727	1	3
467.897	1	-9
468.068	1	10
468.238	1	-2
468.409	1	8
468.579	1	10
468.749	1	14
468.920	1	-4
469.090	1	10
469.260	1	1
469.431	1	10
469.601	1	3
469.772	1	6
469.942	1	5
470.112	1	12
470.283	1	3
470.453	1	8
470.623	1	7
470.794	1	3
470.964	1	8
471.135	1	12
471.305	1	3
471.475	1	13
471.646	1	-5
471.816	1	4
471.986	1	1
472.157	1	18
472.327	1	2
472.497	1	15
472.668	1	1
472.838	1	7
473.009	1	8
473.179	1	7
473.349	1	-6
473.520	1	11
473.690	1	5
473.860	1	8
474.031	1	6
474.201	1	2
474.371	1	15
474.542	1	12
474.712	1	12
474.882	1	13
475.053	1	14
475.223	1	10
475.394	1	22
475.564	1	1
475.734	1	9
475.905	1	22
476.075	1	5
476.245	1	13
476.416	1	2
476.586	1	22
476.756	1	12
476.927	1	11
477.097	1	8
477.267	1	-4
477.438	1	14
477.608	1	7
477.778	1	3
477.949	1	16
478.119	1	13
478.289	1	10
478.460	1	14
478.630	1	13
478.800	1	4
478.971	1	8
479.141	1	-1
479.311	1	-3
479.482	1	7
479.652	1	5
479.822	1	7
479.993	1	4
480.163	1	2
480.333	1	13
480.504	1	10
480.674	1	8
480.844	1	2
481.015	1	13
481.185	1	3
481.355	1	9
481.525	1	2
481.696	1	21
481.866	1	6
482.036	1	-2
482.207	1	-3
482.377	1	4
482.547	1	8
482.718	1	5
482.888	1	14
483.058	1	1
483.229	1	1
483.399	1	-1
483.569	1	7
483.740	1	8
483.910	1	7
484.080	1	3
484.250	1	4
484.421	1	5
484.591	1	9
484.761	1	19
484.932	1	8
485.102	1	22
485.272	1	6
485.443	1	13
485.613	1	12
485.783	1	3
485.953	1	1
486.124	1	5
486.294	1	6
486.464	1	2
486.635	1	11
486.805	1	16
486.975	1	8
487.146	1	19
487.316	1	2
487.486	1	12
487.656	1	3
487.827	1	4
487.997	1	0
488.167	1	4
488.338	1	13
488.508	1	1
488.678	1	8
488.848	1	22
489.019	1	7
489.189	1	1
489.359	1	-2
489.529	1	3
489.700	1	-2
489.870	1	14
490.040	1	4
490.211	1	-1
490.381	1	7
490.551	1	8
490.721	1	16
490.892	1	-7
491.062	1	4
491.232	1	9
491.402	1	0
491.573	1	-13
491.743	1	5
491.913	1	-1
492.084	1	17
492.254	1	-5
492.424	1	1
492.594	1	2
492.765	1	-4
492.935	1	13
493.105	1	10
493.275	1	3
493.446	1	13
493.616	1	14
493.786	1	-2
493.956	1	3
494.127	1	11
494.297	1	7
494.467	1	13
494.637	1	0
494.808	1	0
494.978	1	-8
495.148	1	4
495.318	1	-1
495.489	1	10
495.659	1	13
495.829	1	3
495.999	1	5
496.170	1	10
496.340	1	10
496.510	1	14
496.680	1	5
496.851	1	1
497.021	1	4
497.191	1	1
497.361	1	2
497.532	1	-4
497.702	1	-3
497.872	1	8
498.042	1	9
498.213	1	4
498.383	1	3
498.553	1	2
498.723	1	5
498.894	1	-3
499.064	1	-2
499.234	1	16
499.404	1	5
499.574	1	6
499.745	1	4
499.915	1	-2
500.085	1	9
500.255	1	16
500.426	1	5
500.596	1	5
500.766	1	0
500.936	1	1
501.106	1	-5
501.277	1	2
501.447	1	12
501.617	1	7
501.787	1	-1
501.958	1	1
502.128	1	7
502.298	1	5
502.468	1	3
502.638	1	4
502.809	1	-7
502.979	1	-1
503.149	1	-1
503.319	1	0
503.489	1	2
503.660	1	5
503.830	1	11
504.000	1	19
504.170	1	3
504.340	1	-3
504.511	1	6
504.681	1	-1
504.851	1	3
505.021	1	7
505.192	1	0
505.362	1	14
505.532	1	-2
505.702	1	2
505.872	1	8
506.043	1	9
506.213	1	1
506.383	1	0
506.553	1	9
506.723	1	-1
506.893	1	5
507.064	1	12
507.234	1	-3
507.404	1	6
507.574	1	7
507.744	1	2
507.915	1	-5
508.085	1	10
508.255	1	5
508.425	1	-2
508.595	1	10
508.766	1	11
508.936	1	-9
509.106	1	5
509.276	1	18
509.446	1	-2
509.616	1	-4
509.787	1	-4
509.957	1	-6
510.127	1	5
510.297	1	7
510.467	1	-6
510.638	1	12
510.808	1	-3
510.978	1	8
511.148	1	13
511.318	1	12
511.488	1	-8
511.659	1	3
511.829	1	3
511.999	1	12
512.169	1	4
512.339	1	5
512.509	1	3
512.680	1	4
512.850	1	10
513.020	1	5
513.190	1	4
513.360	1	-1
513.530	1	3
513.700	1	10
513.871	1	-5
514.041	1	4
514.211	1	15
514.381	1	14
514.551	1	1
514.721	1	3
514.892	1	3
515.062	1	5
515.232	1	5
515.402	1	2
515.572	1	-1
515.742	1	4
515.912	1	9
516.083	1	5
516.253	1	4
516.423	1	1
516.593	1	6
516.763	1	10
516.933	1	-6
517.104	1	6
517.274	1	2
517.444	1	2
517.614	1	-3
517.784	1	8
517.954	1	6
518.124	1	-6
518.294	1	2
518.465	1	3
518.635	1	-1
518.805	1	-11
518.975	1	3
519.145	1	-5
519.315	1	11
519.485	1	-6
519.656	1	20
519.826	1	2
519.996	1	1
520.166	1	1
520.336	1	7
520.506	1	6
520.676	1	-13
520.846	1	8
521.017	1	11
521.187	1	-2
521.357	1	10
521.527	1	-8
521.697	1	2
521.867	1	-8
522.037	1	7
522.207	1	12
522.377	1	5
522.548	1	6
522.718	1	4
522.888	1	18
523.058	1	5
523.228	1	4
523.398	1	6
523.568	1	19
523.738	1	3
523.909	1	5
524.079	1	1
524.249	1	10
524.419	1	4
524.589	1	2
524.759	1	-5
524.929	1	-7
525.099	1	5
525.269	1	3
525.439	1	-3
525.610	1	18
525.780	1	2
525.950	1	9
526.120	1	1
526.290	1	2
526.460	1	-6
526.630	1	4
526.800	1	-3
526.970	1	0
527.140	1	8
527.311	1	0
527.481	1	0
527.651	1	9
527.821	1	-5
527.991	1	15
528.161	1	5
528.331	1	2
528.501	1	7
528.671	1	11
528.841	1	-5
529.011	1	2
529.181	1	-2
529.352	1	10
529.522	1	-2
529.692	1	2
529.862	1	8
530.032	1	2
530.202	1	5
530.372	1	3
530.542	1	1
530.712	1	7
530.882	1	7
531.052	1	5
531.222	1	-4
531.392	1	3
531.563	1	11
531.733	1	3
531.903	1	-2
532.073	1	15
532.243	1	1
532.413	1	1
532.583	1	-1
532.753	1	-1
532.923	1	-6
533.093	1	2
533.263	1	9
533.433	1	2
533.603	1	6
533.773	1	-8
533.943	1	1
534.113	1	0
534.284	1	2
534.454	1	4
534.624	1	10
534.794	1	-3
534.964	1	17
535.134	1	-1
535.304	1	-1
535.474	1	12
535.644	1	-1
535.814	1	3
535.984	1	-7
536.154	1	-7
536.324	1	-2
536.494	1	11
536.664	1	5
536.834	1	1
537.004	1	0
537.174	1	8
537.344	1	3
537.514	1	-1
537.685	1	2
537.855	1	5
538.025	1	-6
538.195	1	0
538.365	1	9
538.535	1	6
538.705	1	7
538.875	1	2
539.045	1	8
539.215	1	10
539.385	1	1
539.555	1	7
539.725	1	0
539.895	1	2
540.065	1	18
540.235	1	11
540.405	1	-4
540.575	1	1
540.745	1	1
540.915	1	10
541.085	1	9
541.255	1	-2
541.425	1	0
541.595	1	1
541.765	1	6
541.935	1	-3
542.105	1	-12
542.275	1	0
542.445	1	-5
542.615	1	-3
542.785	1	0
542.955	1	3
543.125	1	-12
543.295	1	6
543.465	1	-2
543.635	1	0
543.805	1	17
543.975	1	2
544.145	1	9
544.315	1	7
544.485	1	4
544.655	1	-6
544.825	1	-7
544.995	1	3
545.165	1	-13
545.335	1	2
545.505	1	4
545.675	1	-1
545.845	1	15
546.015	1	8
546.185	1	7
546.355	1	2
546.525	1	7
546.695	1	8
546.865	1	-3
547.035	1	12
547.205	1	-5
547.375	1	6
547.545	1	8
547.715	1	-6
547.885	1	7
548.055	1	4
548.225	1	1
548.395	1	-2
548.565	1	-1
548.735	1	7
548.905	1	-4
549.075	1	7
549.245	1	5
549.415	1	-3
549.585	1	2
549.755	1	3
549.925	1	-7
550.095	1	2
550.265	1	-7
550.435	1	2
550.605	1	1
550.775	1	-2
550.945	1	9
551.115	1	9
551.285	1	-1
551.455	1	0
551.625	1	4
551.795	1	0
551.965	1	2
552.135	1	6
552.305	1	1
552.475	1	1
552.645	1	-1
552.815	1	4
552.985	1	7
553.155	1	0
553.325	1	9
553.495	1	-8
553.665	1	3
553.835	1	-3
554.004	1	7
554.174	1	-2
554.344	1	3
554.514	1	-3
554.684	1	5
554.854	1	1
555.024	1	0
555.194	1	-7
555.364	1	3
555.534	1	6
555.704	1	4
555.874	1	1
556.044	1	7
556.214	1	-7
556.384	1	2
556.554	1	11
556.724	1	5
556.894	1	-4
557.064	1	-1
557.234	1	-2
557.404	1	12
557.573	1	-1
557.743	1	4
557.913	1	-10
558.083	1	-11
558.253	1	9
558.423	1	-1
558.593	1	3
558.763	1	-8
558.933	1	1
559.103	1	9
559.273	1	6
559.443	1	-1
559.613	1	1
559.783	1	-7
559.953	1	11
560.122	1	9
560.292	1	-6
560.462	1	4
560.632	1	7
560.802	1	-4
560.972	1	4
561.142	1	6
561.312	1	-8
561.482	1	4
561.652	1	11
561.822	1	-6
561.992	1	-5
562.162	1	-3
562.331	1	5
562.501	1	-13
562.671	1	10
562.841	1	-7
563.011	1	4
563.181	1	1
563.351	1	-16
563.521	1	4
563.691	1	-3
563.861	1	-4
564.031	1	2
564.201	1	13
564.370	1	-5
564.540	1	1
564.710	1	7
564.880	1	8
565.050	1	0
565.220	1	-11
565.390	1	3
565.560	1	-2
565.730	1	-12
565.900	1	1
566.069	1	12
566.239	1	-7
566.409	1	4
566.579	1	5
566.749	1	0
566.919	1	5
567.089	1	2
567.259	1	3
567.429	1	-10
567.599	1	4
567.768	1	0
567.938	1	6
568.108	1	7
568.278	1	5
568.448	1	-4
568.618	1	-3
568.788	1	2
568.958	1	1
569.128	1	3
569.297	1	1
569.467	1	3
569.637	1	12
569.807	1	4
569.977	1	12
570.147	1	5
570.317	1	-12
570.487	1	-4
570.656	1	10
570.826	1	4
570.996	1	-5
571.166	1	4
571.336	1	-2
571.506	1	7
571.676	1	-2
571.846	1	10
572.015	1	6
572.185	1	-6
572.355	1	4
572.525	1	10
572.695	1	-5
572.865	1	-8
573.035	1	11
573.205	1	-2
573.374	1	-4
573.544	1	-10
573.714	1	5
573.884	1	16
574.054	1	0
574.224	1	7
574.394	1	-5
574.563	1	2
574.733	1	1
574.903	1	3
575.073	1	-2
575.243	1	-5
575.413	1	2
575.583	1	-1
575.752	1	7
575.922	1	0
576.092	1	5
576.262	1	11
576.432	1	7
576.602	1	-3
576.772	1	5
576.941	1	-1
577.111	1	-5
577.281	1	-9
577.451	1	-10
577.621	1	5
577.791	1	8
577.960	1	-6
578.130	1	3
578.300	1	3
578.470	1	4
578.640	1	-2
578.810	1	5
578.979	1	2
579.149	1	8
579.319	1	-9
579.489	1	0
579.659	1	1
579.829	1	7
579.998	1	5
580.168	1	12
580.338	1	2
580.508	1	-8
580.678	1	3
580.848	1	2
581.017	1	0
581.187	1	0
581.357	1	-4
581.527	1	9
581.697	1	7
581.867	1	4
582.036	1	-4
582.206	1	-4
582.376	1	2
582.546	1	-9
582.716	1	-11
582.885	1	-9
583.055	1	5
583.225	1	-10
583.395	1	12
583.565	1	-3
583.735	1	1
583.904	1	1
584.074	1	0
584.244	1	7
584.414	1	6
584.584	1	-5
584.753	1	-4
584.923	1	2
585.093	1	-4
585.263	1	8
585.433	1	12
585.602	1	-4
585.772	1	-1
585.942	1	7
586.112	1	5
586.282	1	-2
586.451	1	-8
586.621	1	-5
586.791	1	-6
586.961	1	-2
587.131	1	6
587.300	1	-3
587.470	1	17
587.640	1	15
587.810	1	-2
587.980	1	-1
588.149	1	-2
588.319	1	0
588.489	1	-2
588.659	1	-1
588.829	1	5
588.998	1	9
589.168	1	4
589.338	1	1
589.508	1	10
589.677	1	-3
589.847	1	1
590.017	1	14
590.187	1	0
590.357	1	9
590.526	1	7
590.696	1	11
590.866	1	6
591.036	1	-6
591.205	1	17
591.375	1	-3
591.545	1	-1
591.715	1	6
591.885	1	4
592.054	1	2
592.224	1	-1
592.394	1	1
592.564	1	4
592.733	1	6
592.903	1	5
593.073	1	3
593.243	1	7
593.412	1	11
593.582	1	-2
593.752	1	2
593.922	1	0
594.091	1	2
594.261	1	-5
594.431	1	0
594.601	1	6
594.771	1	-4
594.940	1	-1
595.110	1	1
595.280	1	4
595.450	1	-1
595.619	1	2
595.789	1	2
595.959	1	3
596.129	1	0
596.298	1	12
596.468	1	-1
596.638	1	9
596.808	1	4
596.977	1	-1
597.147	1	15
597.317	1	-8
597.487	1	2
597.656	1	-1
597.826	1	11
597.996	1	2
598.166	1	0
598.335	1	-11
598.505	1	3
598.675	1	0
598.844	1	-4
599.014	1	3
599.184	1	5
599.354	1	-5
599.523	1	1
599.693	1	-4
599.863	1	-2
600.033	1	-3
600.202	1	4
600.372	1	3
600.542	1	1
600.712	1	-4
600.881	1	2
601.051	1	11
601.221	1	6
601.390	1	-3
601.560	1	3
601.730	1	3
601.900	1	1
602.069	1	9
602.239	1	7
602.409	1	-5
602.578	1	-4
602.748	1	2
602.918	1	10
603.088	1	-7
603.257	1	4
603.427	1	-4
603.597	1	5
603.767	1	3
603.936	1	4
604.106	1	8
604.276	1	1
604.445	1	4
604.615	1	4
604.785	1	3
604.954	1	4
605.124	1	0
605.294	1	2
605.464	1	0
605.633	1	0
605.803	1	1
605.973	1	3
606.142	1	3
606.312	1	10
606.482	1	2
606.652	1	11
606.821	1	-10
606.991	1	-4
607.161	1	1
607.330	1	4
607.500	1	2
607.670	1	-5
607.839	1	11
608.009	1	8
608.179	1	7
608.348	1	0
608.518	1	3
608.688	1	5
608.858	1	3
609.027	1	-14
609.197	1	6
609.367	1	1
609.536	1	1
609.706	1	1
609.876	1	1
610.045	1	4
610.215	1	6
610.385	1	5
610.554	1	-4
610.724	1	0
610.894	1	11
611.063	1	11
611.233	1	2
611.403	1	1
611.572	1	7
611.742	1	4
611.912	1	2
612.081	1	-7
612.251	1	-1
612.421	1	10
612.590	1	1
612.760	1	3
612.930	1	-2
613.099	1	-3
613.269	1	8
613.439	1	2
613.608	1	-14
613.778	1	7
613.948	1	0
614.117	1	0
614.287	1	10
614.457	1	7
614.626	1	2
614.796	1	-4
614.966	1	1
615.135	1	3
615.305	1	7
615.475	1	-1
615.644	1	2
615.814	1	0
615.984	1	-2
616.153	1	1
616.323	1	-1
616.493	1	7
616.662	1	7
616.832	1	9
617.002	1	-2
617.171	1	-1
617.341	1	-4
617.511	1	-3
617.680	1	0
617.850	1	8
618.019	1	13
618.189	1	12
618.359	1	7
618.528	1	3
618.698	1	4
618.868	1	-5
619.037	1	9
619.207	1	-3
619.377	1	-5
619.546	1	0
619.716	1	3
619.885	1	0
620.055	1	-12
620.225	1	10
620.394	1	-6
620.564	1	5
620.734	1	5
620.903	1	0
621.073	1	8
621.242	1	-1
621.412	1	-5
621.582	1	2
621.751	1	4
621.921	1	-2
622.091	1	-3
622.260	1	9
622.430	1	9
622.599	1	0
622.769	1	3
622.939	1	3
623.108	1	2
623.278	1	-2
623.448	1	3
623.617	1	7
623.787	1	3
623.956	1	8
624.126	1	-1
624.296	1	-3
624.465	1	4
624.635	1	10
624.804	1	2
624.974	1	-1
625.144	1	10
625.313	1	7
625.483	1	2
625.652	1	-5
625.822	1	1
625.992	1	1
626.161	1	11
626.331	1	-5
626.501	1	5
626.670	1	7
626.840	1	-1
627.009	1	-3
627.179	1	9
627.348	1	8
627.518	1	-7
627.688	1	0
627.857	1	19
628.027	1	-6
628.196	1	4
628.366	1	7
628.536	1	6
628.705	1	-5
628.875	1	3
629.044	1	-5
629.214	1	0
629.384	1	8
629.553	1	10
629.723	1	4
629.892	1	0
630.062	1	5
630.232	1	0
630.401	1	6
630.571	1	8
630.740	1	4
630.910	1	7
631.079	1	4
631.249	1	0
631.419	1	-2
631.588	1	-5
631.758	1	5
631.927	1	1
632.097	1	-3
632.266	1	-3
632.436	1	1
632.606	1	2
632.775	1	9
632.945	1	3
633.114	1	10
633.284	1	4
633.453	1	0
633.623	1	-7
633.793	1	5
633.962	1	0
634.132	1	-4
634.301	1	7
634.471	1	7
634.640	1	2
634.810	1	-1
634.979	1	10
635.149	1	10
635.319	1	3
635.488	1	9
635.658	1	2
635.827	1	-3
635.997	1	-4
636.166	1	-1
636.336	1	-3
636.505	1	12
636.675	1	-10
636.845	1	10
637.014	1	4
637.184	1	8
637.353	1	4
637.523	1	2
637.692	1	2
637.862	1	-3
638.031	1	7
638.201	1	3
638.370	1	-4
638.540	1	-1
638.710	1	4
638.879	1	-8
639.049	1	3
639.218	1	1
639.388	1	0
639.557	1	0
639.727	1	0
639.896	1	10
640.066	1	9
640.235	1	5
640.405	1	3
640.574	1	0
640.744	1	-3
640.914	1	2
641.083	1	3
641.253	1	-4
641.422	1	10
641.592	1	8
641.761	1	3
641.931	1	-1
642.100	1	15
642.270	1	0
642.439	1	5
642.609	1	17
642.778	1	-2
642.948	1	1
643.117	1	7
643.287	1	7
643.456	1	-4
643.626	1	10
643.795	1	5
643.965	1	9
644.134	1	-7
644.304	1	0
644.473	1	-4
644.643	1	1
644.812	1	7
644.982	1	2
645.151	1	4
645.321	1	-4
645.490	1	6
645.660	1	-4
645.829	1	2
645.999	1	1
646.168	1	7
646.338	1	7
646.507	1	2
646.677	1	17
646.846	1	-2
647.016	1	-2
647.185	1	2
647.355	1	-15
647.524	1	16
647.694	1	18
647.863	1	11
648.033	1	-5
648.202	1	10
648.372	1	-3
648.541	1	-2
648.711	1	1
648.880	1	-6
649.050	1	-9
649.219	1	2
649.389	1	16
649.558	1	4
649.728	1	6
649.897	1	-6
650.067	1	14
650.236	1	7
650.406	1	4
650.575	1	4
650.745	1	7
650.914	1	2
651.084	1	-2
651.253	1	8
651.423	1	6
651.592	1	3
651.762	1	-5
651.931	1	9
652.101	1	2
652.270	1	2
652.440	1	6
652.609	1	6
652.778	1	0
652.948	1	11
653.117	1	3
653.287	1	-3
653.456	1	14
653.626	1	4
653.795	1	10
653.965	1	-2
654.134	1	-4
654.304	1	-4
654.473	1	4
654.643	1	1
654.812	1	1
654.982	1	3
655.151	1	-2
655.320	1	-9
655.490	1	0
655.659	1	8
655.829	1	-1
655.998	1	0
656.168	1	1
656.337	1	9
656.507	1	5
656.676	1	12
656.846	1	16
657.015	1	5
657.184	1	9
657.354	1	7
657.523	1	0
657.693	1	17
657.862	1	11
658.032	1	-1
658.201	1	12
658.371	1	10
658.540	1	0
658.709	1	-5
658.879	1	4
659.048	1	7
659.218	1	-5
659.387	1	7
659.557	1	1
659.726	1	5
659.895	1	-11
660.065	1	-3
660.234	1	4
660.404	1	5
660.573	1	3
660.743	1	7
660.912	1	5
661.081	1	10
661.251	1	2
661.420	1	12
661.590	1	7
661.759	1	3
661.929	1	7
662.098	1	3
662.267	1	7
662.437	1	15
662.606	1	4
662.776	1	5
662.945	1	7
663.115	1	8
663.284	1	1
663.453	1	0
663.623	1	-3
663.792	1	8
663.962	1	0
664.131	1	-4
664.300	1	1
664.470	1	-4
664.639	1	7
664.809	1	3
664.978	1	9
665.148	1	0
665.317	1	1
665.486	1	12
665.656	1	1
665.825	1	14
665.995	1	-1
666.164	1	5
666.333	1	6
666.503	1	6
666.672	1	5
666.842	1	4
667.011	1	-2
667.180	1	12
667.350	1	4
667.519	1	1
667.689	1	0
667.858	1	-4
668.027	1	20
668.197	1	-4
668.366	1	-6
668.536	1	1
668.705	1	6
668.874	1	10
669.044	1	-10
669.213	1	8
669.382	1	-5
669.552	1	11
669.721	1	0
669.891	1	12
670.060	1	8
670.229	1	6
670.399	1	-1
670.568	1	11
670.738	1	11
670.907	1	-7
671.076	1	-1
671.246	1	5
671.415	1	16
671.584	1	0
671.754	1	-9
671.923	1	4
672.093	1	3
672.262	1	-8
672.431	1	-2
672.601	1	-6
672.770	1	-9
672.939	1	2
673.109	1	-6
673.278	1	13
673.448	1	6
673.617	1	7
673.786	1	8
