325.333	1	9
325.504	1	11
325.675	1	7
325.846	1	7
326.017	1	9
326.188	1	-3
326.359	1	3
326.531	1	-9
326.702	1	-1
326.873	1	13
327.044	1	2
327.215	1	0
327.386	1	7
327.557	1	-2
327.728	1	9
327.899	1	-1
328.070	1	13
328.241	1	1
328.412	1	-12
328.583	1	-1
328.754	1	2
328.926	1	2
329.097	1	-10
329.268	1	19
329.439	1	3
329.610	1	15
329.781	1	-5
329.952	1	6
330.123	1	12
330.294	1	5
330.465	1	1
330.636	1	10
330.807	1	5
330.978	1	-5
331.149	1	-5
331.320	1	0
331.492	1	14
331.663	1	-3
331.834	1	9
332.005	1	8
332.176	1	21
332.347	1	8
332.518	1	-6
332.689	1	15
332.860	1	-3
333.031	1	9
333.202	1	-2
333.373	1	13
333.544	1	-6
333.715	1	5
333.886	1	3
334.057	1	5
334.228	1	0
334.399	1	5
334.570	1	10
334.741	1	-6
334.912	1	3
335.084	1	23
335.255	1	11
335.426	1	-5
335.597	1	-1
335.768	1	6
335.939	1	7
336.110	1	-2
336.281	1	-4
336.452	1	4
336.623	1	11
336.794	1	5
336.965	1	-1
337.136	1	11
337.307	1	2
337.478	1	1
337.649	1	-3
337.820	1	2
337.991	1	-1
338.162	1	5
338.333	1	6
338.504	1	6
338.675	1	7
338.846	1	15
339.017	1	6
339.188	1	0
339.359	1	-6
339.530	1	6
339.701	1	11
339.872	1	18
340.043	1	2
340.214	1	-1
340.385	1	6
340.556	1	-4
340.727	1	14
340.898	1	9
341.069	1	7
341.240	1	5
341.411	1	0
341.582	1	14
341.753	1	-1
341.924	1	6
342.095	1	6
342.266	1	9
342.437	1	6
342.608	1	4
342.779	1	15
342.950	1	15
343.121	1	12
343.292	1	5
343.463	1	12
343.634	1	3
343.805	1	10
343.976	1	9
344.147	1	4
344.318	1	0
344.489	1	4
344.660	1	18
344.831	1	3
345.002	1	1
345.173	1	12
345.344	1	8
345.515	1	12
345.686	1	5
345.857	1	4
346.028	1	-1
346.199	1	4
346.370	1	6
346.541	1	15
346.712	1	2
346.883	1	10
347.054	1	5
347.225	1	9
347.396	1	9
347.567	1	4
347.738	1	0
347.909	1	16
348.080	1	11
348.251	1	9
348.422	1	15
348.593	1	-3
348.764	1	15
348.935	1	3
349.106	1	5
349.277	1	1
349.448	1	15
349.619	1	12
349.790	1	14
349.961	1	15
350.132	1	13
350.303	1	13
350.474	1	5
350.645	1	12
350.816	1	14
350.987	1	19
351.157	1	3
351.328	1	17
351.499	1	18
351.670	1	5
351.841	1	14
352.012	1	17
352.183	1	21
352.354	1	5
352.525	1	22
352.696	1	21
352.867	1	-1
353.038	1	16
353.209	1	9
353.380	1	8
353.551	1	6
353.722	1	10
353.893	1	10
354.064	1	15
354.235	1	15
354.406	1	9
354.576	1	5
354.747	1	11
354.918	1	10
355.089	1	13
355.260	1	9
355.431	1	17
355.602	1	10
355.773	1	8
355.944	1	20
356.115	1	0
356.286	1	18
356.457	1	3
356.628	1	8
356.799	1	16
356.970	1	26
357.141	1	15
357.311	1	8
357.482	1	10
357.653	1	7
357.824	1	13
357.995	1	11
358.166	1	-1
358.337	1	9
358.508	1	15
358.679	1	4
358.850	1	6
359.021	1	4
359.192	1	17
359.363	1	7
359.533	1	11
359.704	1	17
359.875	1	3
360.046	1	16
360.217	1	-1
360.388	1	13
360.559	1	7
360.730	1	21
360.901	1	7
361.072	1	14
361.243	1	20
361.414	1	6
361.584	1	8
361.755	1	10
361.926	1	4
362.097	1	11
362.268	1	20
362.439	1	9
362.610	1	25
362.781	1	13
362.952	1	10
363.123	1	14
363.293	1	0
363.464	1	25
363.635	1	13
363.806	1	7
363.977	1	18
364.148	1	13
364.319	1	20
364.490	1	17
364.661	1	17
364.832	1	13
365.002	1	21
365.173	1	11
365.344	1	19
365.515	1	10
365.686	1	16
365.857	1	10
366.028	1	19
366.199	1	16
366.370	1	20
366.540	1	5
366.711	1	5
366.882	1	9
367.053	1	4
367.224	1	26
367.395	1	21
367.566	1	19
367.737	1	17
367.908	1	19
368.078	1	17
368.249	1	17
368.420	1	13
368.591	1	3
368.762	1	15
368.933	1	11
369.104	1	4
369.274	1	17
369.445	1	14
369.616	1	10
369.787	1	16
369.958	1	19
370.129	1	3
370.300	1	22
370.471	1	10
370.641	1	17
370.812	1	15
370.983	1	14
371.154	1	11
371.325	1	15
371.496	1	6
371.667	1	20
371.837	1	6
372.008	1	10
372.179	1	8
372.350	1	19
372.521	1	9
372.692	1	9
372.863	1	15
373.033	1	8
373.204	1	8
373.375	1	18
373.546	1	14
373.717	1	16
373.888	1	19
374.059	1	11
374.229	1	21
374.400	1	14
374.571	1	11
374.742	1	20
374.913	1	11
375.084	1	10
375.254	1	23
375.425	1	16
375.596	1	9
375.767	1	18
375.938	1	13
376.109	1	16
376.279	1	12
376.450	1	19
376.621	1	15
376.792	1	17
376.963	1	16
377.134	1	22
377.304	1	8
377.475	1	12
377.646	1	1
377.817	1	9
377.988	1	19
378.159	1	30
378.329	1	20
378.500	1	11
378.671	1	12
378.842	1	13
379.013	1	9
379.184	1	9
379.354	1	21
379.525	1	18
379.696	1	15
379.867	1	28
380.038	1	19
380.209	1	15
380.379	1	10
380.550	1	5
380.721	1	24
380.892	1	13
381.063	1	7
381.233	1	21
381.404	1	11
381.575	1	27
381.746	1	11
381.917	1	9
382.087	1	17
382.258	1	9
382.429	1	23
382.600	1	25
382.771	1	4
382.941	1	20
383.112	1	19
383.283	1	14
383.454	1	17
383.625	1	8
383.795	1	15
383.966	1	10
384.137	1	12
384.308	1	16
384.479	1	25
384.649	1	18
384.820	1	13
384.991	1	23
385.162	1	23
385.333	1	15
385.503	1	11
385.674	1	10
385.845	1	27
386.016	1	22
386.187	1	13
386.357	1	18
386.528	1	22
386.699	1	19
386.870	1	28
387.041	1	19
387.211	1	21
387.382	1	28
387.553	1	25
387.724	1	13
387.894	1	21
388.065	1	16
388.236	1	24
388.407	1	14
388.578	1	12
388.748	1	10
388.919	1	22
389.090	1	26
389.261	1	16
389.431	1	28
389.602	1	20
389.773	1	21
389.944	1	16
390.114	1	22
390.285	1	7
390.456	1	24
390.627	1	14
390.798	1	26
390.968	1	11
391.139	1	24
391.310	1	15
391.481	1	20
391.651	1	19
391.822	1	10
391.993	1	24
392.164	1	16
392.334	1	20
392.505	1	10
392.676	1	23
392.847	1	18
393.017	1	25
393.188	1	12
393.359	1	16
393.530	1	22
393.700	1	13
393.871	1	22
394.042	1	13
394.213	1	11
394.383	1	21
394.554	1	22
394.725	1	25
394.896	1	10
395.066	1	27
395.237	1	10
395.408	1	18
395.579	1	16
395.749	1	28
395.920	1	15
396.091	1	21
396.262	1	18
396.432	1	22
396.603	1	30
396.774	1	32
396.945	1	26
397.115	1	29
397.286	1	17
397.457	1	14
397.627	1	15
397.798	1	35
397.969	1	12
398.140	1	12
398.310	1	21
398.481	1	21
398.652	1	16
398.823	1	14
398.993	1	15
399.164	1	24
399.335	1	32
399.505	1	20
399.676	1	18
399.847	1	12
400.018	1	19
400.188	1	19
400.359	1	19
400.530	1	10
400.700	1	21
400.871	1	19
401.042	1	23
401.213	1	14
401.383	1	22
401.554	1	23
401.725	1	29
401.895	1	21
402.066	1	24
402.237	1	26
402.408	1	33
402.578	1	26
402.749	1	21
402.920	1	20
403.090	1	14
403.261	1	27
403.432	1	19
403.603	1	26
403.773	1	28
403.944	1	27
404.115	1	28
404.285	1	33
404.456	1	23
404.627	1	15
404.797	1	20
404.968	1	14
405.139	1	9
405.310	1	28
405.480	1	19
405.651	1	21
405.822	1	21
405.992	1	15
406.163	1	22
406.334	1	10
406.504	1	25
406.675	1	33
406.846	1	21
407.016	1	17
407.187	1	30
407.358	1	11
407.528	1	9
407.699	1	8
407.870	1	14
408.041	1	30
408.211	1	28
408.382	1	17
408.553	1	21
408.723	1	28
408.894	1	18
409.065	1	13
409.235	1	24
409.406	1	19
409.577	1	7
409.747	1	23
409.918	1	26
410.089	1	27
410.259	1	31
410.430	1	26
410.601	1	27
410.771	1	24
410.942	1	27
411.113	1	26
411.283	1	18
411.454	1	18
411.625	1	25
411.795	1	20
411.966	1	26
412.137	1	18
412.307	1	22
412.478	1	24
412.649	1	18
412.819	1	31
412.990	1	19
413.161	1	23
413.331	1	16
413.502	1	35
413.672	1	7
413.843	1	15
414.014	1	16
414.184	1	34
414.355	1	26
414.526	1	28
414.696	1	28
414.867	1	22
415.038	1	6
415.208	1	16
415.379	1	32
415.550	1	25
415.720	1	25
415.891	1	18
416.062	1	15
416.232	1	22
416.403	1	22
416.573	1	17
416.744	1	13
416.915	1	18
417.085	1	30
417.256	1	23
417.427	1	19
417.597	1	19
417.768	1	16
417.939	1	18
418.109	1	26
418.280	1	28
418.450	1	23
418.621	1	14
418.792	1	12
418.962	1	18
419.133	1	28
419.304	1	14
419.474	1	15
419.645	1	23
419.815	1	10
419.986	1	24
420.157	1	24
420.327	1	26
420.498	1	22
420.669	1	19
420.839	1	22
421.010	1	22
421.180	1	27
421.351	1	18
421.522	1	23
421.692	1	21
421.863	1	25
422.033	1	33
422.204	1	23
422.375	1	26
422.545	1	27
422.716	1	9
422.886	1	18
423.057	1	22
423.228	1	21
423.398	1	9
423.569	1	25
423.740	1	13
423.910	1	24
424.081	1	19
424.251	1	19
424.422	1	33
424.593	1	9
424.763	1	14
424.934	1	33
425.104	1	23
425.275	1	17
425.445	1	29
425.616	1	14
425.787	1	23
425.957	1	24
426.128	1	37
426.298	1	22
426.469	1	17
426.640	1	26
426.810	1	17
426.981	1	14
427.151	1	18
427.322	1	32
427.493	1	20
427.663	1	26
427.834	1	17
428.004	1	28
428.175	1	24
428.345	1	12
428.516	1	12
428.687	1	22
428.857	1	13
429.028	1	21
429.198	1	23
429.369	1	27
429.540	1	22
429.710	1	10
429.881	1	23
430.051	1	14
430.222	1	16
430.392	1	22
430.563	1	25
430.734	1	23
430.904	1	25
431.075	1	31
431.245	1	17
431.416	1	24
431.586	1	17
431.757	1	25
431.927	1	18
432.098	1	24
432.269	1	15
432.439	1	22
432.610	1	14
432.780	1	34
432.951	1	19
433.121	1	19
433.292	1	22
433.462	1	21
433.633	1	30
433.804	1	18
433.974	1	17
434.145	1	22
434.315	1	18
434.486	1	14
434.656	1	31
434.827	1	7
434.997	1	12
435.168	1	22
435.339	1	22
435.509	1	24
435.680	1	19
435.850	1	22
436.021	1	8
436.191	1	18
436.362	1	21
436.532	1	27
436.703	1	17
436.873	1	23
437.044	1	13
437.214	1	5
437.385	1	16
437.556	1	8
437.726	1	23
437.897	1	22
438.067	1	15
438.238	1	12
438.408	1	28
438.579	1	24
438.749	1	19
438.920	1	9
439.090	1	18
439.261	1	5
439.431	1	12
439.602	1	11
439.772	1	9
439.943	1	32
440.113	1	22
440.284	1	15
440.455	1	12
440.625	1	18
440.796	1	20
440.966	1	16
441.137	1	15
441.307	1	6
441.478	1	22
441.648	1	13
441.819	1	24
441.989	1	26
442.160	1	28
442.330	1	21
442.501	1	19
442.671	1	14
442.842	1	9
443.012	1	10
443.183	1	18
443.353	1	15
443.524	1	23
443.694	1	27
443.865	1	16
444.035	1	21
444.206	1	13
444.376	1	10
444.547	1	27
444.717	1	16
444.888	1	18
445.058	1	29
445.229	1	21
445.399	1	14
445.570	1	15
445.740	1	11
445.911	1	8
446.081	1	4
446.252	1	18
446.422	1	12
446.593	1	4
446.763	1	12
446.934	1	8
447.104	1	19
447.275	1	13
447.445	1	23
447.616	1	21
447.786	1	17
447.957	1	13
448.127	1	24
448.298	1	18
448.468	1	14
448.639	1	11
448.809	1	21
448.979	1	12
449.150	1	22
449.320	1	17
449.491	1	17
449.661	1	12
449.832	1	9
450.002	1	23
450.173	1	14
450.343	1	21
450.514	1	18
450.684	1	11
450.855	1	17
451.025	1	20
451.196	1	16
451.366	1	17
451.537	1	10
451.707	1	4
451.878	1	24
452.048	1	19
452.218	1	26
452.389	1	14
452.559	1	19
452.730	1	28
452.900	1	23
453.071	1	1
453.241	1	10
453.412	1	11
453.582	1	16
453.753	1	19
453.923	1	16
454.093	1	16
454.264	1	22
454.434	1	17
454.605	1	11
454.775	1	18
454.946	1	16
455.116	1	18
455.287	1	13
455.457	1	15
455.628	1	2
455.798	1	21
455.968	1	17
456.139	1	15
456.309	1	13
456.480	1	8
456.650	1	9
456.821	1	6
456.991	1	15
457.161	1	13
457.332	1	21
457.502	1	12
457.673	1	21
457.843	1	22
458.014	1	21
458.184	1	12
458.355	1	8
458.525	1	14
458.695	1	1
458.866	1	21
459.036	1	20
459.207	1	19
459.377	1	13
459.548	1	25
459.718	1	6
459.888	1	14
460.059	1	21
460.229	1	16
460.400	1	14
460.570	1	14
460.740	1	12
460.911	1	14
461.081	1	16
461.252	1	13
461.422	1	9
461.593	1	7
461.763	1	25
461.933	1	20
462.104	1	0
462.274	1	25
462.445	1	15
462.615	1	3
462.785	1	15
462.956	1	19
463.126	1	20
463.297	1	16
463.467	1	13
463.638	1	19
463.808	1	9
463.978	1	3
464.149	1	9
464.319	1	11
464.490	1	24
464.660	1	9
464.830	1	7
465.001	1	14
465.171	1	7
465.342	1	14
465.512	1	8
465.682	1	13
465.853	1	13
466.023	1	16
466.194	1	15
466.364	1	29
466.534	1	16
466.705	1	13
466.875	1	6
467.045	1	6
467.216	1	22
467.386	1	2
467.557	1	7
467.727	1	11
467.897	1	14
468.068	1	15
468.238	1	9
468.409	1	3
468.579	1	20
468.749	1	4
468.920	1	1
469.090	1	20
469.260	1	9
469.431	1	11
469.601	1	15
469.772	1	18
469.942	1	14
470.112	1	17
470.283	1	10
470.453	1	13
470.623	1	7
470.794	1	4
470.964	1	14
471.135	1	15
471.305	1	2
471.475	1	13
471.646	1	7
471.816	1	10
471.986	1	13
472.157	1	24
472.327	1	-5
472.497	1	12
472.668	1	10
472.838	1	11
473.009	1	10
473.179	1	6
473.349	1	-2
473.520	1	18
473.690	1	11
473.860	1	5
474.031	1	14
474.201	1	5
474.371	1	25
474.542	1	13
474.712	1	17
474.882	1	15
475.053	1	21
475.223	1	5
475.394	1	23
475.564	1	4
475.734	1	15
475.905	1	16
476.075	1	10
476.245	1	18
476.416	1	25
476.586	1	16
476.756	1	7
476.927	1	9
477.097	1	8
477.267	1	7
477.438	1	16
477.608	1	17
477.778	1	8
477.949	1	6
478.119	1	24
478.289	1	18
478.460	1	23
478.630	1	8
478.800	1	7
478.971	1	6
479.141	1	3
479.311	1	4
479.482	1	9
479.652	1	11
479.822	1	7
479.993	1	12
480.163	1	16
480.333	1	18
480.504	1	7
480.674	1	15
480.844	1	5
481.015	1	13
481.185	1	12
481.355	1	12
481.525	1	2
481.696	1	13
481.866	1	12
482.036	1	13
482.207	1	5
482.377	1	7
482.547	1	9
482.718	1	7
482.888	1	11
483.058	1	8
483.229	1	8
483.399	1	8
483.569	1	5
483.740	1	15
483.910	1	9
484.080	1	10
484.250	1	1
484.421	1	11
484.591	1	6
484.761	1	16
484.932	1	19
485.102	1	25
485.272	1	6
485.443	1	16
485.613	1	14
485.783	1	14
485.953	1	9
486.124	1	15
486.294	1	15
486.464	1	6
486.635	1	9
486.805	1	14
486.975	1	10
487.146	1	9
487.316	1	11
487.486	1	11
487.656	1	12
487.827	1	3
487.997	1	-7
488.167	1	8
488.338	1	15
488.508	1	9
488.678	1	11
488.848	1	19
489.019	1	2
489.189	1	15
489.359	1	5
489.529	1	5
489.700	1	-7
489.870	1	16
490.040	1	2
490.211	1	10
490.381	1	13
490.551	1	7
490.721	1	13
490.892	1	8
491.062	1	13
491.232	1	11
491.402	1	-2
491.573	1	-5
491.743	1	9
491.913	1	8
492.084	1	12
492.254	1	6
492.424	1	3
492.594	1	12
492.765	1	6
492.935	1	5
493.105	1	5
493.275	1	15
493.446	1	18
493.616	1	21
493.786	1	5
493.956	1	3
494.127	1	9
494.297	1	9
494.467	1	2
494.637	1	1
494.808	1	2
494.978	1	1
495.148	1	0
495.318	1	7
495.489	1	7
495.659	1	12
495.829	1	-4
495.999	1	0
496.170	1	7
496.340	1	7
496.510	1	2
496.680	1	1
496.851	1	8
497.021	1	7
497.191	1	1
497.361	1	9
497.532	1	4
497.702	1	10
497.872	1	6
498.042	1	14
498.213	1	-1
498.383	1	10
498.553	1	1
498.723	1	0
498.894	1	9
499.064	1	6
499.234	1	7
499.404	1	5
499.574	1	16
499.745	1	11
499.915	1	0
500.085	1	13
500.255	1	22
500.426	1	6
500.596	1	11
500.766	1	7
500.936	1	11
501.106	1	-1
501.277	1	5
501.447	1	1
501.617	1	7
501.787	1	6
501.958	1	-3
502.128	1	1
502.298	1	15
502.468	1	9
502.638	1	14
502.809	1	10
502.979	1	-7
503.149	1	-1
503.319	1	-3
503.489	1	3
503.660	1	5
503.830	1	3
504.000	1	14
504.170	1	3
504.340	1	4
504.511	1	7
504.681	1	10
504.851	1	8
505.021	1	14
505.192	1	-13
505.362	1	11
505.532	1	0
505.702	1	0
505.872	1	7
506.043	1	6
506.213	1	5
506.383	1	-3
506.553	1	10
506.723	1	3
506.893	1	6
507.064	1	7
507.234	1	3
507.404	1	3
507.574	1	3
507.744	1	13
507.915	1	8
508.085	1	19
508.255	1	4
508.425	1	0
508.595	1	3
508.766	1	13
508.936	1	-11
509.106	1	20
509.276	1	4
509.446	1	7
509.616	1	4
509.787	1	12
509.957	1	8
510.127	1	1
510.297	1	0
510.467	1	-1
510.638	1	9
510.808	1	-2
510.978	1	-4
511.148	1	6
511.318	1	7
511.488	1	-8
511.659	1	13
511.829	1	-3
511.999	1	13
512.169	1	7
512.339	1	3
512.509	1	6
512.680	1	0
512.850	1	-2
513.020	1	16
513.190	1	9
513.360	1	-2
513.530	1	4
513.700	1	14
513.871	1	2
514.041	1	3
514.211	1	4
514.381	1	9
514.551	1	1
514.721	1	2
514.892	1	6
515.062	1	15
515.232	1	12
515.402	1	-8
515.572	1	6
515.742	1	16
515.912	1	14
516.083	1	4
516.253	1	5
516.423	1	8
516.593	1	0
516.763	1	7
516.933	1	6
517.104	1	8
517.274	1	3
517.444	1	0
517.614	1	-5
517.784	1	-1
517.954	1	6
518.124	1	8
518.294	1	4
518.465	1	0
518.635	1	6
518.805	1	-2
518.975	1	4
519.145	1	-1
519.315	1	-2
519.485	1	-5
519.656	1	9
519.826	1	10
519.996	1	3
520.166	1	1
520.336	1	8
520.506	1	3
520.676	1	-6
520.846	1	8
521.017	1	2
521.187	1	0
521.357	1	20
521.527	1	1
521.697	1	-2
521.867	1	-3
522.037	1	9
522.207	1	4
522.377	1	1
522.548	1	1
522.718	1	11
522.888	1	11
523.058	1	6
523.228	1	6
523.398	1	3
523.568	1	11
523.738	1	10
523.909	1	15
524.079	1	5
524.249	1	2
524.419	1	2
524.589	1	3
524.759	1	1
524.929	1	2
525.099	1	17
525.269	1	9
525.439	1	1
525.610	1	17
525.780	1	-6
525.950	1	4
526.120	1	3
526.290	1	1
526.460	1	-1
526.630	1	12
526.800	1	-4
526.970	1	16
527.140	1	15
527.311	1	-3
527.481	1	-2
527.651	1	11
527.821	1	-6
527.991	1	18
528.161	1	9
528.331	1	2
528.501	1	11
528.671	1	3
528.841	1	0
529.011	1	3
529.181	1	5
529.352	1	-1
529.522	1	-4
529.692	1	9
529.862	1	14
530.032	1	8
530.202	1	4
530.372	1	1
530.542	1	7
530.712	1	4
530.882	1	2
531.052	1	21
531.222	1	-3
531.392	1	-9
531.563	1	5
531.733	1	0
531.903	1	-2
532.073	1	9
532.243	1	-4
532.413	1	5
532.583	1	-1
532.753	1	1
532.923	1	-5
533.093	1	2
533.263	1	8
533.433	1	7
533.603	1	6
533.773	1	-2
533.943	1	7
534.113	1	1
534.284	1	-5
534.454	1	2
534.624	1	12
534.794	1	-3
534.964	1	1
535.134	1	6
535.304	1	3
535.474	1	11
535.644	1	0
535.814	1	-2
535.984	1	-1
536.154	1	-1
536.324	1	3
536.494	1	8
536.664	1	10
536.834	1	15
537.004	1	12
537.174	1	8
537.344	1	3
537.514	1	4
537.685	1	-3
537.855	1	0
538.025	1	0
538.195	1	7
538.365	1	10
538.535	1	0
538.705	1	6
538.875	1	10
539.045	1	0
539.215	1	5
539.385	1	-2
539.555	1	12
539.725	1	9
539.895	1	-9
540.065	1	7
540.235	1	9
540.405	1	-4
540.575	1	1
540.745	1	5
540.915	1	0
541.085	1	6
541.255	1	-4
541.425	1	11
541.595	1	2
541.765	1	7
541.935	1	-5
542.105	1	-5
542.275	1	-1
542.445	1	-2
542.615	1	4
542.785	1	5
542.955	1	0
543.125	1	0
543.295	1	8
543.465	1	12
543.635	1	8
543.805	1	7
543.975	1	-4
544.145	1	-1
544.315	1	3
544.485	1	10
544.655	1	6
544.825	1	-10
544.995	1	7
545.165	1	-3
545.335	1	1
545.505	1	0
545.675	1	9
545.845	1	11
546.015	1	2
546.185	1	17
546.355	1	13
546.525	1	17
546.695	1	1
546.865	1	-10
547.035	1	5
547.205	1	-5
547.375	1	3
547.545	1	15
547.715	1	5
547.885	1	7
548.055	1	0
548.225	1	10
548.395	1	4
548.565	1	2
548.735	1	4
548.905	1	3
549.075	1	9
549.245	1	-3
549.415	1	3
549.585	1	7
549.755	1	11
549.925	1	-4
550.095	1	8
550.265	1	-7
550.435	1	-1
550.605	1	-8
550.775	1	0
550.945	1	4
551.115	1	-2
551.285	1	11
551.455	1	-4
551.625	1	5
551.795	1	5
551.965	1	0
552.135	1	0
552.305	1	-6
552.475	1	-7
552.645	1	5
552.815	1	-1
552.985	1	15
553.155	1	11
553.325	1	14
553.495	1	0
553.665	1	1
553.835	1	8
554.004	1	1
554.174	1	5
554.344	1	-1
554.514	1	11
554.684	1	7
554.854	1	10
555.024	1	-1
555.194	1	-8
555.364	1	6
555.534	1	8
555.704	1	4
555.874	1	9
556.044	1	6
556.214	1	-9
556.384	1	0
556.554	1	10
556.724	1	3
556.894	1	-2
557.064	1	3
557.234	1	6
557.404	1	7
557.573	1	3
557.743	1	-1
557.913	1	-4
558.083	1	1
558.253	1	3
558.423	1	4
558.593	1	6
558.763	1	-1
558.933	1	10
559.103	1	8
559.273	1	8
559.443	1	0
559.613	1	9
559.783	1	1
559.953	1	4
560.122	1	4
560.292	1	1
560.462	1	-5
560.632	1	12
560.802	1	11
560.972	1	0
561.142	1	5
561.312	1	-6
561.482	1	2
561.652	1	11
561.822	1	3
561.992	1	0
562.162	1	1
562.331	1	8
562.501	1	0
562.671	1	5
562.841	1	-5
563.011	1	6
563.181	1	3
563.351	1	4
563.521	1	14
563.691	1	-9
563.861	1	0
564.031	1	1
564.201	1	13
564.370	1	-8
564.540	1	7
564.710	1	0
564.880	1	12
565.050	1	8
565.220	1	-5
565.390	1	10
565.560	1	8
565.730	1	0
565.900	1	-5
566.069	1	13
566.239	1	4
566.409	1	1
566.579	1	2
566.749	1	2
566.919	1	14
567.089	1	-1
567.259	1	9
567.429	1	5
567.599	1	0
567.768	1	8
567.938	1	-5
568.108	1	-2
568.278	1	2
568.448	1	1
568.618	1	-4
568.788	1	-3
568.958	1	3
569.128	1	11
569.297	1	-4
569.467	1	-4
569.637	1	16
569.807	1	14
569.977	1	5
570.147	1	5
570.317	1	-4
570.487	1	3
570.656	1	15
570.826	1	2
570.996	1	6
571.166	1	15
571.336	1	-6
571.506	1	6
571.676	1	3
571.846	1	-9
572.015	1	1
572.185	1	-6
572.355	1	1
572.525	1	5
572.695	1	-3
572.865	1	-8
573.035	1	-1
573.205	1	2
573.374	1	2
573.544	1	-7
573.714	1	11
573.884	1	6
574.054	1	3
574.224	1	2
574.394	1	-2
574.563	1	-4
574.733	1	-4
574.903	1	3
575.073	1	-1
575.243	1	-3
575.413	1	14
575.583	1	2
575.752	1	5
575.922	1	1
576.092	1	-2
576.262	1	5
576.432	1	9
576.602	1	-3
576.772	1	19
576.941	1	4
577.111	1	-1
577.281	1	-11
577.451	1	-5
577.621	1	5
577.791	1	8
577.960	1	-9
578.130	1	1
578.300	1	9
578.470	1	14
578.640	1	11
578.810	1	5
578.979	1	2
579.149	1	1
579.319	1	-7
579.489	1	-2
579.659	1	-5
579.829	1	8
579.998	1	10
580.168	1	5
580.338	1	12
580.508	1	5
580.678	1	3
580.848	1	-8
581.017	1	-6
581.187	1	-2
581.357	1	-3
581.527	1	2
581.697	1	11
581.867	1	1
582.036	1	2
582.206	1	4
582.376	1	9
582.546	1	3
582.716	1	-4
582.885	1	-3
583.055	1	-2
583.225	1	-3
583.395	1	7
583.565	1	-1
583.735	1	5
583.904	1	9
584.074	1	7
584.244	1	-3
584.414	1	1
584.584	1	5
584.753	1	2
584.923	1	3
585.093	1	3
585.263	1	8
585.433	1	5
585.602	1	-5
585.772	1	1
585.942	1	0
586.112	1	-1
586.282	1	-5
586.451	1	6
586.621	1	5
586.791	1	8
586.961	1	4
587.131	1	3
587.300	1	-6
587.470	1	5
587.640	1	9
587.810	1	-3
587.980	1	9
588.149	1	2
588.319	1	5
588.489	1	-3
588.659	1	4
588.829	1	4
588.998	1	13
589.168	1	3
589.338	1	8
589.508	1	12
589.677	1	-11
589.847	1	-8
590.017	1	11
590.187	1	0
590.357	1	7
590.526	1	10
590.696	1	5
590.866	1	13
591.036	1	8
591.205	1	21
591.375	1	-1
591.545	1	3
591.715	1	7
591.885	1	-3
592.054	1	13
592.224	1	-3
592.394	1	4
592.564	1	0
592.733	1	3
592.903	1	4
593.073	1	7
593.243	1	7
593.412	1	5
593.582	1	1
593.752	1	-2
593.922	1	1
594.091	1	3
594.261	1	1
594.431	1	0
594.601	1	10
594.771	1	9
594.940	1	9
595.110	1	4
595.280	1	3
595.450	1	-3
595.619	1	1
595.789	1	2
595.959	1	9
596.129	1	7
596.298	1	-7
596.468	1	3
596.638	1	7
596.808	1	7
596.977	1	7
597.147	1	0
597.317	1	-2
597.487	1	3
597.656	1	7
597.826	1	-6
597.996	1	9
598.166	1	5
598.335	1	0
598.505	1	7
598.675	1	0
598.844	1	-2
599.014	1	-9
599.184	1	8
599.354	1	-9
599.523	1	1
599.693	1	-1
599.863	1	12
600.033	1	3
600.202	1	3
600.372	1	6
600.542	1	16
600.712	1	-2
600.881	1	-1
601.051	1	17
601.221	1	3
601.390	1	-10
601.560	1	10
601.730	1	10
601.900	1	-1
602.069	1	7
602.239	1	-2
602.409	1	0
602.578	1	-1
602.748	1	-2
602.918	1	5
603.088	1	2
603.257	1	10
603.427	1	-4
603.597	1	12
603.767	1	5
603.936	1	8
604.106	1	-4
604.276	1	4
604.445	1	10
604.615	1	-4
604.785	1	4
604.954	1	8
605.124	1	4
605.294	1	0
605.464	1	3
605.633	1	14
605.803	1	8
605.973	1	-3
606.142	1	4
606.312	1	7
606.482	1	-2
606.652	1	11
606.821	1	-6
606.991	1	12
607.161	1	1
607.330	1	10
607.500	1	1
607.670	1	-3
607.839	1	7
608.009	1	12
608.179	1	12
608.348	1	5
608.518	1	3
608.688	1	6
608.858	1	-2
609.027	1	-7
609.197	1	-2
609.367	1	12
609.536	1	6
609.706	1	-4
609.876	1	-2
610.045	1	3
610.215	1	-1
610.385	1	8
610.554	1	1
610.724	1	-3
610.894	1	7
611.063	1	8
611.233	1	1
611.403	1	3
611.572	1	-4
611.742	1	4
611.912	1	7
612.081	1	3
612.251	1	2
612.421	1	-7
612.590	1	2
612.760	1	6
612.930	1	4
613.099	1	6
613.269	1	18
613.439	1	5
613.608	1	1
613.778	1	3
613.948	1	-3
614.117	1	-7
614.287	1	4
614.457	1	6
614.626	1	2
614.796	1	11
614.966	1	1
615.135	1	-2
615.305	1	6
615.475	1	-3
615.644	1	2
615.814	1	7
615.984	1	1
616.153	1	-1
616.323	1	-1
616.493	1	0
616.662	1	12
616.832	1	2
617.002	1	0
617.171	1	0
617.341	1	-1
617.511	1	-6
617.680	1	4
617.850	1	15
618.019	1	16
618.189	1	8
618.359	1	-2
618.528	1	3
618.698	1	5
618.868	1	-9
619.037	1	6
619.207	1	1
619.377	1	-5
619.546	1	5
619.716	1	9
619.885	1	5
620.055	1	0
620.225	1	10
620.394	1	-2
620.564	1	12
620.734	1	11
620.903	1	-3
621.073	1	6
621.242	1	3
621.412	1	2
621.582	1	0
621.751	1	6
621.921	1	12
622.091	1	-3
622.260	1	-2
622.430	1	8
622.599	1	3
622.769	1	2
622.939	1	11
623.108	1	2
623.278	1	2
623.448	1	-5
623.617	1	6
623.787	1	3
623.956	1	9
624.126	1	1
624.296	1	-3
624.465	1	3
624.635	1	15
624.804	1	10
624.974	1	6
625.144	1	5
625.313	1	2
625.483	1	-7
625.652	1	-1
625.822	1	-13
625.992	1	-2
626.161	1	13
626.331	1	12
626.501	1	4
626.670	1	-3
626.840	1	6
627.009	1	4
627.179	1	7
627.348	1	7
627.518	1	1
627.688	1	6
627.857	1	7
628.027	1	-9
628.196	1	5
628.366	1	9
628.536	1	3
628.705	1	-2
628.875	1	5
629.044	1	0
629.214	1	16
629.384	1	9
629.553	1	10
629.723	1	-2
629.892	1	5
630.062	1	4
630.232	1	-5
630.401	1	5
630.571	1	1
630.740	1	1
630.910	1	9
631.079	1	7
631.249	1	7
631.419	1	0
631.588	1	-8
631.758	1	6
631.927	1	1
632.097	1	1
632.266	1	-1
632.436	1	3
632.606	1	-4
632.775	1	2
632.945	1	7
633.114	1	4
633.284	1	13
633.453	1	-2
633.623	1	9
633.793	1	8
633.962	1	11
634.132	1	3
634.301	1	4
634.471	1	8
634.640	1	14
634.810	1	7
634.979	1	1
635.149	1	10
635.319	1	0
635.488	1	-4
635.658	1	-1
635.827	1	6
635.997	1	-5
636.166	1	5
636.336	1	1
636.505	1	2
636.675	1	-4
636.845	1	1
637.014	1	1
637.184	1	4
637.353	1	-8
637.523	1	13
637.692	1	2
637.862	1	-2
638.031	1	7
638.201	1	9
638.370	1	-3
638.540	1	4
638.710	1	6
638.879	1	-1
639.049	1	2
639.218	1	1
639.388	1	0
639.557	1	12
639.727	1	6
639.896	1	3
640.066	1	3
640.235	1	1
640.405	1	3
640.574	1	-5
640.744	1	-4
640.914	1	0
641.083	1	0
641.253	1	8
641.422	1	2
641.592	1	18
641.761	1	4
641.931	1	-4
642.100	1	11
642.270	1	5
642.439	1	4
642.609	1	11
642.778	1	-1
642.948	1	4
643.117	1	6
643.287	1	1
643.456	1	13
643.626	1	9
643.795	1	2
643.965	1	12
644.134	1	2
644.304	1	0
644.473	1	9
644.643	1	4
644.812	1	1
644.982	1	11
645.151	1	3
645.321	1	2
645.490	1	9
645.660	1	2
645.829	1	5
645.999	1	5
646.168	1	13
646.338	1	7
646.507	1	1
646.677	1	6
646.846	1	5
647.016	1	-6
647.185	1	9
647.355	1	-13
647.524	1	12
647.694	1	11
647.863	1	8
648.033	1	1
648.202	1	15
648.372	1	-3
648.541	1	4
648.711	1	5
648.880	1	0
649.050	1	-4
649.219	1	4
649.389	1	15
649.558	1	2
649.728	1	4
649.897	1	1
650.067	1	11
650.236	1	7
650.406	1	5
650.575	1	9
650.745	1	8
650.914	1	-2
651.084	1	-1
651.253	1	2
651.423	1	-2
651.592	1	4
651.762	1	-6
651.931	1	9
652.101	1	14
652.270	1	12
652.440	1	-5
652.609	1	-2
652.778	1	-1
652.948	1	5
653.117	1	5
653.287	1	2
653.456	1	10
653.626	1	12
653.795	1	4
653.965	1	6
654.134	1	6
654.304	1	-10
654.473	1	7
654.643	1	2
654.812	1	8
654.982	1	10
655.151	1	6
655.320	1	6
655.490	1	-2
655.659	1	8
655.829	1	6
655.998	1	8
656.168	1	-4
656.337	1	0
656.507	1	8
656.676	1	7
656.846	1	8
657.015	1	12
657.184	1	6
657.354	1	12
657.523	1	-3
657.693	1	14
657.862	1	8
658.032	1	-7
658.201	1	4
658.371	1	9
658.540	1	1
658.709	1	5
658.879	1	13
659.048	1	9
659.218	1	9
659.387	1	2
659.557	1	-1
659.726	1	10
659.895	1	-1
660.065	1	-7
660.234	1	5
660.404	1	9
660.573	1	9
660.743	1	5
660.912	1	6
661.081	1	12
661.251	1	0
661.420	1	3
661.590	1	5
661.759	1	-1
661.929	1	0
662.098	1	12
662.267	1	8
662.437	1	10
662.606	1	-2
662.776	1	5
662.945	1	5
663.115	1	2
663.284	1	-1
663.453	1	6
663.623	1	-3
663.792	1	3
663.962	1	6
664.131	1	8
664.300	1	12
664.470	1	4
664.639	1	10
664.809	1	-4
664.978	1	4
665.148	1	2
665.317	1	-6
665.486	1	10
665.656	1	6
665.825	1	6
665.995	1	-4
666.164	1	4
666.333	1	5
666.503	1	0
666.672	1	-5
666.842	1	4
667.011	1	5
667.180	1	7
667.350	1	4
667.519	1	4
667.689	1	2
667.858	1	2
668.027	1	15
668.197	1	-3
668.366	1	4
668.536	1	11
668.705	1	5
668.874	1	3
669.044	1	-2
669.213	1	10
669.382	1	-3
669.552	1	9
669.721	1	10
669.891	1	20
670.060	1	7
670.229	1	15
670.399	1	0
670.568	1	16
670.738	1	14
670.907	1	-5
671.076	1	2
671.246	1	11
671.415	1	9
671.584	1	-6
671.754	1	0
671.923	1	4
672.093	1	4
672.262	1	2
672.431	1	2
672.601	1	5
672.770	1	-7
672.939	1	14
673.109	1	5
673.278	1	16
673.448	1	7
673.617	1	-2
673.786	1	3
