325.333	1	15
325.504	1	8
325.675	1	3
325.846	1	2
326.017	1	11
326.188	1	10
326.359	1	-2
326.531	1	-5
326.702	1	1
326.873	1	24
327.044	1	4
327.215	1	9
327.386	1	11
327.557	1	4
327.728	1	8
327.899	1	9
328.070	1	9
328.241	1	13
328.412	1	-5
328.583	1	15
328.754	1	7
328.926	1	11
329.097	1	1
329.268	1	12
329.439	1	11
329.610	1	11
329.781	1	-7
329.952	1	18
330.123	1	4
330.294	1	4
330.465	1	5
330.636	1	13
330.807	1	1
330.978	1	3
331.149	1	10
331.320	1	5
331.492	1	8
331.663	1	12
331.834	1	13
332.005	1	9
332.176	1	19
332.347	1	10
332.518	1	0
332.689	1	14
332.860	1	11
333.031	1	15
333.202	1	10
333.373	1	8
333.544	1	8
333.715	1	14
333.886	1	3
334.057	1	13
334.228	1	-4
334.399	1	10
334.570	1	17
334.741	1	12
334.912	1	11
335.084	1	21
335.255	1	8
335.426	1	10
335.597	1	8
335.768	1	5
335.939	1	21
336.110	1	9
336.281	1	0
336.452	1	2
336.623	1	14
336.794	1	14
336.965	1	6
337.136	1	14
337.307	1	13
337.478	1	16
337.649	1	11
337.820	1	9
337.991	1	7
338.162	1	21
338.333	1	3
338.504	1	17
338.675	1	17
338.846	1	12
339.017	1	12
339.188	1	12
339.359	1	4
339.530	1	17
339.701	1	15
339.872	1	23
340.043	1	5
340.214	1	13
340.385	1	16
340.556	1	0
340.727	1	11
340.898	1	17
341.069	1	18
341.240	1	8
341.411	1	20
341.582	1	18
341.753	1	9
341.924	1	21
342.095	1	15
342.266	1	25
342.437	1	16
342.608	1	10
342.779	1	21
342.950	1	16
343.121	1	18
343.292	1	10
343.463	1	23
343.634	1	17
343.805	1	19
343.976	1	19
344.147	1	15
344.318	1	18
344.489	1	10
344.660	1	30
344.831	1	20
345.002	1	10
345.173	1	24
345.344	1	13
345.515	1	24
345.686	1	21
345.857	1	21
346.028	1	21
346.199	1	18
346.370	1	14
346.541	1	33
346.712	1	10
346.883	1	23
347.054	1	14
347.225	1	17
347.396	1	16
347.567	1	20
347.738	1	21
347.909	1	24
348.080	1	9
348.251	1	30
348.422	1	26
348.593	1	20
348.764	1	15
348.935	1	19
349.106	1	16
349.277	1	24
349.448	1	28
349.619	1	14
349.790	1	16
349.961	1	11
350.132	1	27
350.303	1	21
350.474	1	29
350.645	1	29
350.816	1	25
350.987	1	34
351.157	1	17
351.328	1	20
351.499	1	29
351.670	1	21
351.841	1	46
352.012	1	30
352.183	1	34
352.354	1	34
352.525	1	42
352.696	1	34
352.867	1	19
353.038	1	31
353.209	1	23
353.380	1	23
353.551	1	21
353.722	1	28
353.893	1	22
354.064	1	30
354.235	1	15
354.406	1	25
354.576	1	28
354.747	1	26
354.918	1	23
355.089	1	27
355.260	1	26
355.431	1	27
355.602	1	18
355.773	1	39
355.944	1	26
356.115	1	27
356.286	1	22
356.457	1	36
356.628	1	22
356.799	1	29
356.970	1	40
357.141	1	25
357.311	1	19
357.482	1	37
357.653	1	33
357.824	1	36
357.995	1	29
358.166	1	25
358.337	1	21
358.508	1	31
358.679	1	37
358.850	1	28
359.021	1	18
359.192	1	38
359.363	1	18
359.533	1	29
359.704	1	36
359.875	1	22
360.046	1	38
360.217	1	24
360.388	1	27
360.559	1	26
360.730	1	40
360.901	1	29
361.072	1	38
361.243	1	24
361.414	1	22
361.584	1	28
361.755	1	28
361.926	1	24
362.097	1	33
362.268	1	32
362.439	1	20
362.610	1	50
362.781	1	33
362.952	1	22
363.123	1	25
363.293	1	13
363.464	1	30
363.635	1	39
363.806	1	29
363.977	1	35
364.148	1	28
364.319	1	33
364.490	1	33
364.661	1	19
364.832	1	41
365.002	1	41
365.173	1	36
365.344	1	39
365.515	1	37
365.686	1	31
365.857	1	43
366.028	1	39
366.199	1	27
366.370	1	35
366.540	1	28
366.711	1	18
366.882	1	20
367.053	1	26
367.224	1	49
367.395	1	33
367.566	1	47
367.737	1	48
367.908	1	46
368.078	1	31
368.249	1	42
368.420	1	24
368.591	1	34
368.762	1	34
368.933	1	36
369.104	1	23
369.274	1	36
369.445	1	35
369.616	1	26
369.787	1	36
369.958	1	52
370.129	1	21
370.300	1	47
370.471	1	34
370.641	1	36
370.812	1	37
370.983	1	38
371.154	1	35
371.325	1	57
371.496	1	29
371.667	1	37
371.837	1	31
372.008	1	28
372.179	1	30
372.350	1	42
372.521	1	33
372.692	1	44
372.863	1	33
373.033	1	29
373.204	1	30
373.375	1	35
373.546	1	42
373.717	1	40
373.888	1	45
374.059	1	42
374.229	1	42
374.400	1	44
374.571	1	39
374.742	1	41
374.913	1	35
375.084	1	26
375.254	1	38
375.425	1	36
375.596	1	33
375.767	1	36
375.938	1	44
376.109	1	48
376.279	1	39
376.450	1	46
376.621	1	38
376.792	1	36
376.963	1	29
377.134	1	41
377.304	1	38
377.475	1	41
377.646	1	24
377.817	1	42
377.988	1	37
378.159	1	43
378.329	1	44
378.500	1	41
378.671	1	34
378.842	1	37
379.013	1	24
379.184	1	34
379.354	1	51
379.525	1	39
379.696	1	54
379.867	1	41
380.038	1	41
380.209	1	42
380.379	1	38
380.550	1	37
380.721	1	49
380.892	1	40
381.063	1	44
381.233	1	45
381.404	1	40
381.575	1	46
381.746	1	38
381.917	1	39
382.087	1	46
382.258	1	34
382.429	1	40
382.600	1	51
382.771	1	30
382.941	1	46
383.112	1	44
383.283	1	46
383.454	1	38
383.625	1	36
383.795	1	45
383.966	1	37
384.137	1	50
384.308	1	50
384.479	1	51
384.649	1	58
384.820	1	36
384.991	1	46
385.162	1	53
385.333	1	46
385.503	1	44
385.674	1	38
385.845	1	57
386.016	1	41
386.187	1	40
386.357	1	52
386.528	1	50
386.699	1	39
386.870	1	50
387.041	1	44
387.211	1	37
387.382	1	52
387.553	1	53
387.724	1	37
387.894	1	55
388.065	1	50
388.236	1	58
388.407	1	50
388.578	1	37
388.748	1	46
388.919	1	47
389.090	1	41
389.261	1	46
389.431	1	53
389.602	1	63
389.773	1	59
389.944	1	46
390.114	1	56
390.285	1	53
390.456	1	38
390.627	1	56
390.798	1	46
390.968	1	46
391.139	1	50
391.310	1	41
391.481	1	51
391.651	1	47
391.822	1	40
391.993	1	51
392.164	1	41
392.334	1	52
392.505	1	43
392.676	1	52
392.847	1	52
393.017	1	55
393.188	1	51
393.359	1	42
393.530	1	48
393.700	1	49
393.871	1	55
394.042	1	47
394.213	1	53
394.383	1	50
394.554	1	56
394.725	1	49
394.896	1	60
395.066	1	48
395.237	1	47
395.408	1	60
395.579	1	49
395.749	1	49
395.920	1	50
396.091	1	44
396.262	1	49
396.432	1	50
396.603	1	61
396.774	1	54
396.945	1	48
397.115	1	55
397.286	1	42
397.457	1	55
397.627	1	51
397.798	1	55
397.969	1	44
398.140	1	55
398.310	1	39
398.481	1	60
398.652	1	44
398.823	1	48
398.993	1	53
399.164	1	49
399.335	1	64
399.505	1	51
399.676	1	57
399.847	1	47
400.018	1	44
400.188	1	50
400.359	1	52
400.530	1	49
400.700	1	56
400.871	1	55
401.042	1	51
401.213	1	55
401.383	1	49
401.554	1	67
401.725	1	55
401.895	1	50
402.066	1	54
402.237	1	65
402.408	1	52
402.578	1	56
402.749	1	58
402.920	1	50
403.090	1	36
403.261	1	40
403.432	1	47
403.603	1	53
403.773	1	60
403.944	1	57
404.115	1	53
404.285	1	56
404.456	1	53
404.627	1	47
404.797	1	47
404.968	1	44
405.139	1	54
405.310	1	66
405.480	1	64
405.651	1	47
405.822	1	52
405.992	1	38
406.163	1	60
406.334	1	44
406.504	1	48
406.675	1	61
406.846	1	47
407.016	1	59
407.187	1	66
407.358	1	49
407.528	1	52
407.699	1	36
407.870	1	52
408.041	1	46
408.211	1	64
408.382	1	55
408.553	1	48
408.723	1	54
408.894	1	59
409.065	1	53
409.235	1	49
409.406	1	52
409.577	1	54
409.747	1	58
409.918	1	44
410.089	1	57
410.259	1	57
410.430	1	59
410.601	1	64
410.771	1	52
410.942	1	77
411.113	1	55
411.283	1	53
411.454	1	56
411.625	1	62
411.795	1	63
411.966	1	59
412.137	1	61
412.307	1	45
412.478	1	58
412.649	1	54
412.819	1	52
412.990	1	54
413.161	1	59
413.331	1	46
413.502	1	59
413.672	1	49
413.843	1	45
414.014	1	56
414.184	1	63
414.355	1	51
414.526	1	56
414.696	1	66
414.867	1	55
415.038	1	46
415.208	1	56
415.379	1	59
415.550	1	62
415.720	1	50
415.891	1	60
416.062	1	60
416.232	1	51
416.403	1	48
416.573	1	54
416.744	1	52
416.915	1	65
417.085	1	56
417.256	1	47
417.427	1	55
417.597	1	53
417.768	1	51
417.939	1	48
418.109	1	52
418.280	1	63
418.450	1	55
418.621	1	43
418.792	1	57
418.962	1	47
419.133	1	62
419.304	1	49
419.474	1	44
419.645	1	50
419.815	1	46
419.986	1	67
420.157	1	49
420.327	1	58
420.498	1	48
420.669	1	43
420.839	1	56
421.010	1	60
421.180	1	49
421.351	1	55
421.522	1	52
421.692	1	58
421.863	1	64
422.033	1	60
422.204	1	54
422.375	1	42
422.545	1	63
422.716	1	49
422.886	1	44
423.057	1	59
423.228	1	49
423.398	1	53
423.569	1	56
423.740	1	47
423.910	1	32
424.081	1	49
424.251	1	43
424.422	1	47
424.593	1	43
424.763	1	51
424.934	1	51
425.104	1	52
425.275	1	57
425.445	1	51
425.616	1	45
425.787	1	41
425.957	1	57
426.128	1	57
426.298	1	50
426.469	1	44
426.640	1	53
426.810	1	62
426.981	1	50
427.151	1	37
427.322	1	58
427.493	1	51
427.663	1	50
427.834	1	38
428.004	1	49
428.175	1	58
428.345	1	58
428.516	1	46
428.687	1	46
428.857	1	43
429.028	1	45
429.198	1	46
429.369	1	59
429.540	1	47
429.710	1	47
429.881	1	56
430.051	1	52
430.222	1	42
430.392	1	45
430.563	1	48
430.734	1	51
430.904	1	53
431.075	1	52
431.245	1	39
431.416	1	50
431.586	1	47
431.757	1	53
431.927	1	54
432.098	1	51
432.269	1	58
432.439	1	43
432.610	1	49
432.780	1	49
432.951	1	37
433.121	1	49
433.292	1	46
433.462	1	51
433.633	1	53
433.804	1	50
433.974	1	55
434.145	1	71
434.315	1	38
434.486	1	53
434.656	1	52
434.827	1	46
434.997	1	37
435.168	1	61
435.339	1	49
435.509	1	49
435.680	1	40
435.850	1	59
436.021	1	45
436.191	1	48
436.362	1	55
436.532	1	47
436.703	1	44
436.873	1	54
437.044	1	35
437.214	1	50
437.385	1	39
437.556	1	42
437.726	1	54
437.897	1	62
438.067	1	43
438.238	1	52
438.408	1	49
438.579	1	38
438.749	1	42
438.920	1	42
439.090	1	47
439.261	1	41
439.431	1	45
439.602	1	40
439.772	1	38
439.943	1	48
440.113	1	49
440.284	1	42
440.455	1	43
440.625	1	44
440.796	1	53
440.966	1	43
441.137	1	41
441.307	1	42
441.478	1	51
441.648	1	49
441.819	1	35
441.989	1	36
442.160	1	54
442.330	1	48
442.501	1	42
442.671	1	37
442.842	1	33
443.012	1	30
443.183	1	50
443.353	1	36
443.524	1	47
443.694	1	39
443.865	1	42
444.035	1	47
444.206	1	50
444.376	1	32
444.547	1	56
444.717	1	53
444.888	1	45
445.058	1	51
445.229	1	41
445.399	1	39
445.570	1	43
445.740	1	32
445.911	1	42
446.081	1	32
446.252	1	57
446.422	1	35
446.593	1	32
446.763	1	40
446.934	1	35
447.104	1	32
447.275	1	39
447.445	1	46
447.616	1	46
447.786	1	33
447.957	1	47
448.127	1	40
448.298	1	42
448.468	1	37
448.639	1	41
448.809	1	49
448.979	1	38
449.150	1	44
449.320	1	38
449.491	1	39
449.661	1	38
449.832	1	38
450.002	1	50
450.173	1	35
450.343	1	33
450.514	1	34
450.684	1	42
450.855	1	35
451.025	1	47
451.196	1	44
451.366	1	41
451.537	1	41
451.707	1	32
451.878	1	43
452.048	1	45
452.218	1	33
452.389	1	42
452.559	1	40
452.730	1	33
452.900	1	46
453.071	1	26
453.241	1	27
453.412	1	44
453.582	1	43
453.753	1	31
453.923	1	40
454.093	1	38
454.264	1	40
454.434	1	41
454.605	1	39
454.775	1	40
454.946	1	37
455.116	1	41
455.287	1	25
455.457	1	35
455.628	1	34
455.798	1	37
455.968	1	32
456.139	1	34
456.309	1	36
456.480	1	28
456.650	1	26
456.821	1	32
456.991	1	34
457.161	1	34
457.332	1	42
457.502	1	24
457.673	1	41
457.843	1	33
458.014	1	41
458.184	1	36
458.355	1	29
458.525	1	36
458.695	1	35
458.866	1	33
459.036	1	45
459.207	1	27
459.377	1	35
459.548	1	46
459.718	1	14
459.888	1	31
460.059	1	44
460.229	1	33
460.400	1	34
460.570	1	39
460.740	1	21
460.911	1	26
461.081	1	35
461.252	1	20
461.422	1	28
461.593	1	22
461.763	1	30
461.933	1	34
462.104	1	27
462.274	1	33
462.445	1	28
462.615	1	36
462.785	1	28
462.956	1	34
463.126	1	33
463.297	1	22
463.467	1	33
463.638	1	29
463.808	1	27
463.978	1	35
464.149	1	21
464.319	1	34
464.490	1	46
464.660	1	21
464.830	1	27
465.001	1	35
465.171	1	29
465.342	1	43
465.512	1	27
465.682	1	29
465.853	1	34
466.023	1	27
466.194	1	23
466.364	1	47
466.534	1	31
466.705	1	24
466.875	1	28
467.045	1	15
467.216	1	33
467.386	1	26
467.557	1	16
467.727	1	25
467.897	1	19
468.068	1	28
468.238	1	39
468.409	1	31
468.579	1	23
468.749	1	29
468.920	1	23
469.090	1	25
469.260	1	28
469.431	1	31
469.601	1	25
469.772	1	38
469.942	1	23
470.112	1	27
470.283	1	22
470.453	1	22
470.623	1	26
470.794	1	17
470.964	1	33
471.135	1	41
471.305	1	10
471.475	1	30
471.646	1	23
471.816	1	19
471.986	1	16
472.157	1	39
472.327	1	19
472.497	1	26
472.668	1	28
472.838	1	21
473.009	1	23
473.179	1	25
473.349	1	14
473.520	1	29
473.690	1	29
473.860	1	23
474.031	1	22
474.201	1	14
474.371	1	34
474.542	1	19
474.712	1	33
474.882	1	34
475.053	1	30
475.223	1	17
475.394	1	33
475.564	1	30
475.734	1	32
475.905	1	38
476.075	1	22
476.245	1	28
476.416	1	30
476.586	1	29
476.756	1	29
476.927	1	38
477.097	1	21
477.267	1	16
477.438	1	38
477.608	1	29
477.778	1	20
477.949	1	30
478.119	1	34
478.289	1	30
478.460	1	37
478.630	1	31
478.800	1	19
478.971	1	22
479.141	1	16
479.311	1	18
479.482	1	27
479.652	1	20
479.822	1	20
479.993	1	24
480.163	1	27
480.333	1	25
480.504	1	27
480.674	1	27
480.844	1	20
481.015	1	23
481.185	1	14
481.355	1	24
481.525	1	13
481.696	1	15
481.866	1	25
482.036	1	23
482.207	1	20
482.377	1	21
482.547	1	24
482.718	1	26
482.888	1	26
483.058	1	10
483.229	1	9
483.399	1	11
483.569	1	21
483.740	1	25
483.910	1	20
484.080	1	19
484.250	1	27
484.421	1	19
484.591	1	17
484.761	1	33
484.932	1	30
485.102	1	24
485.272	1	23
485.443	1	25
485.613	1	24
485.783	1	9
485.953	1	21
486.124	1	31
486.294	1	24
486.464	1	16
486.635	1	24
486.805	1	24
486.975	1	15
487.146	1	25
487.316	1	20
487.486	1	22
487.656	1	23
487.827	1	18
487.997	1	14
488.167	1	8
488.338	1	27
488.508	1	10
488.678	1	11
488.848	1	24
489.019	1	27
489.189	1	27
489.359	1	13
489.529	1	21
489.700	1	15
489.870	1	26
490.040	1	13
490.211	1	15
490.381	1	27
490.551	1	16
490.721	1	23
490.892	1	6
491.062	1	18
491.232	1	17
491.402	1	10
491.573	1	9
491.743	1	15
491.913	1	14
492.084	1	23
492.254	1	18
492.424	1	22
492.594	1	6
492.765	1	24
492.935	1	12
493.105	1	18
493.275	1	23
493.446	1	15
493.616	1	26
493.786	1	13
493.956	1	7
494.127	1	13
494.297	1	11
494.467	1	12
494.637	1	14
494.808	1	9
494.978	1	18
495.148	1	16
495.318	1	16
495.489	1	20
495.659	1	19
495.829	1	16
495.999	1	13
496.170	1	22
496.340	1	21
496.510	1	11
496.680	1	15
496.851	1	13
497.021	1	22
497.191	1	13
497.361	1	13
497.532	1	12
497.702	1	18
497.872	1	19
498.042	1	22
498.213	1	27
498.383	1	16
498.553	1	11
498.723	1	6
498.894	1	18
499.064	1	9
499.234	1	15
499.404	1	17
499.574	1	23
499.745	1	21
499.915	1	14
500.085	1	16
500.255	1	35
500.426	1	13
500.596	1	23
500.766	1	4
500.936	1	11
501.106	1	-2
501.277	1	16
501.447	1	12
501.617	1	15
501.787	1	6
501.958	1	8
502.128	1	13
502.298	1	16
502.468	1	21
502.638	1	17
502.809	1	10
502.979	1	4
503.149	1	7
503.319	1	-3
503.489	1	19
503.660	1	14
503.830	1	19
504.000	1	25
504.170	1	14
504.340	1	11
504.511	1	19
504.681	1	10
504.851	1	13
505.021	1	11
505.192	1	6
505.362	1	20
505.532	1	11
505.702	1	11
505.872	1	10
506.043	1	15
506.213	1	0
506.383	1	6
506.553	1	25
506.723	1	12
506.893	1	12
507.064	1	8
507.234	1	9
507.404	1	6
507.574	1	17
507.744	1	5
507.915	1	12
508.085	1	19
508.255	1	13
508.425	1	8
508.595	1	16
508.766	1	17
508.936	1	3
509.106	1	15
509.276	1	11
509.446	1	2
509.616	1	6
509.787	1	13
509.957	1	17
510.127	1	9
510.297	1	6
510.467	1	2
510.638	1	18
510.808	1	8
510.978	1	-4
511.148	1	8
511.318	1	9
511.488	1	7
511.659	1	14
511.829	1	9
511.999	1	11
512.169	1	2
512.339	1	13
512.509	1	10
512.680	1	-1
512.850	1	10
513.020	1	12
513.190	1	8
513.360	1	1
513.530	1	16
513.700	1	11
513.871	1	2
514.041	1	14
514.211	1	14
514.381	1	14
514.551	1	14
514.721	1	2
514.892	1	18
515.062	1	7
515.232	1	7
515.402	1	8
515.572	1	1
515.742	1	13
515.912	1	11
516.083	1	0
516.253	1	16
516.423	1	7
516.593	1	5
516.763	1	28
516.933	1	9
517.104	1	3
517.274	1	-4
517.444	1	14
517.614	1	8
517.784	1	15
517.954	1	10
518.124	1	17
518.294	1	5
518.465	1	16
518.635	1	10
518.805	1	-3
518.975	1	9
519.145	1	10
519.315	1	4
519.485	1	7
519.656	1	18
519.826	1	10
519.996	1	11
520.166	1	5
520.336	1	11
520.506	1	6
520.676	1	4
520.846	1	20
521.017	1	7
521.187	1	6
521.357	1	22
521.527	1	4
521.697	1	7
521.867	1	11
522.037	1	12
522.207	1	12
522.377	1	6
522.548	1	6
522.718	1	18
522.888	1	17
523.058	1	8
523.228	1	12
523.398	1	18
523.568	1	14
523.738	1	11
523.909	1	8
524.079	1	4
524.249	1	4
524.419	1	3
524.589	1	4
524.759	1	9
524.929	1	0
525.099	1	6
525.269	1	17
525.439	1	4
525.610	1	25
525.780	1	-7
525.950	1	7
526.120	1	-2
526.290	1	10
526.460	1	3
526.630	1	15
526.800	1	7
526.970	1	4
527.140	1	22
527.311	1	2
527.481	1	0
527.651	1	11
527.821	1	3
527.991	1	13
528.161	1	15
528.331	1	7
528.501	1	14
528.671	1	6
528.841	1	9
529.011	1	7
529.181	1	7
529.352	1	0
529.522	1	-1
529.692	1	16
529.862	1	9
530.032	1	12
530.202	1	11
530.372	1	9
530.542	1	11
530.712	1	13
530.882	1	8
531.052	1	5
531.222	1	7
531.392	1	3
531.563	1	13
531.733	1	10
531.903	1	4
532.073	1	13
532.243	1	6
532.413	1	10
532.583	1	-3
532.753	1	8
532.923	1	5
533.093	1	-2
533.263	1	5
533.433	1	9
533.603	1	15
533.773	1	5
533.943	1	10
534.113	1	3
534.284	1	8
534.454	1	11
534.624	1	16
534.794	1	4
534.964	1	14
535.134	1	-2
535.304	1	11
535.474	1	14
535.644	1	-5
535.814	1	-2
535.984	1	3
536.154	1	-3
536.324	1	1
536.494	1	6
536.664	1	9
536.834	1	7
537.004	1	8
537.174	1	6
537.344	1	4
537.514	1	-5
537.685	1	9
537.855	1	8
538.025	1	1
538.195	1	-4
538.365	1	13
538.535	1	5
538.705	1	8
538.875	1	2
539.045	1	10
539.215	1	16
539.385	1	14
539.555	1	17
539.725	1	-5
539.895	1	-1
540.065	1	21
540.235	1	6
540.405	1	1
540.575	1	8
540.745	1	15
540.915	1	15
541.085	1	9
541.255	1	-10
541.425	1	20
541.595	1	11
541.765	1	4
541.935	1	7
542.105	1	4
542.275	1	8
542.445	1	-3
542.615	1	-2
542.785	1	12
542.955	1	9
543.125	1	-6
543.295	1	14
543.465	1	2
543.635	1	11
543.805	1	13
543.975	1	-4
544.145	1	9
544.315	1	17
544.485	1	13
544.655	1	11
544.825	1	-4
544.995	1	7
545.165	1	1
545.335	1	15
545.505	1	-3
545.675	1	10
545.845	1	5
546.015	1	14
546.185	1	12
546.355	1	13
546.525	1	8
546.695	1	7
546.865	1	1
547.035	1	9
547.205	1	1
547.375	1	2
547.545	1	18
547.715	1	6
547.885	1	11
548.055	1	0
548.225	1	10
548.395	1	-4
548.565	1	-2
548.735	1	6
548.905	1	12
549.075	1	6
549.245	1	-3
549.415	1	4
549.585	1	15
549.755	1	9
549.925	1	-4
550.095	1	9
550.265	1	-3
550.435	1	0
550.605	1	4
550.775	1	7
550.945	1	8
551.115	1	5
551.285	1	3
551.455	1	-3
551.625	1	16
551.795	1	13
551.965	1	6
552.135	1	0
552.305	1	-1
552.475	1	2
552.645	1	4
552.815	1	5
552.985	1	10
553.155	1	13
553.325	1	12
553.495	1	7
553.665	1	-2
553.835	1	1
554.004	1	-1
554.174	1	-4
554.344	1	7
554.514	1	10
554.684	1	13
554.854	1	5
555.024	1	6
555.194	1	-4
555.364	1	12
555.534	1	-1
555.704	1	4
555.874	1	7
556.044	1	1
556.214	1	2
556.384	1	2
556.554	1	17
556.724	1	5
556.894	1	2
557.064	1	4
557.234	1	2
557.404	1	14
557.573	1	3
557.743	1	3
557.913	1	-6
558.083	1	-4
558.253	1	8
558.423	1	3
558.593	1	7
558.763	1	-3
558.933	1	5
559.103	1	5
559.273	1	6
559.443	1	-2
559.613	1	6
559.783	1	0
559.953	1	1
560.122	1	9
560.292	1	6
560.462	1	5
560.632	1	7
560.802	1	3
560.972	1	6
561.142	1	4
561.312	1	2
561.482	1	9
561.652	1	5
561.822	1	-1
561.992	1	5
562.162	1	12
562.331	1	0
562.501	1	-5
562.671	1	2
562.841	1	1
563.011	1	8
563.181	1	3
563.351	1	-1
563.521	1	6
563.691	1	1
563.861	1	9
564.031	1	17
564.201	1	18
564.370	1	-9
564.540	1	4
564.710	1	-6
564.880	1	11
565.050	1	2
565.220	1	-2
565.390	1	10
565.560	1	7
565.730	1	4
565.900	1	6
566.069	1	15
566.239	1	8
566.409	1	0
566.579	1	10
566.749	1	-1
566.919	1	8
567.089	1	4
567.259	1	11
567.429	1	12
567.599	1	3
567.768	1	4
567.938	1	-1
568.108	1	1
568.278	1	2
568.448	1	-4
568.618	1	4
568.788	1	-5
568.958	1	3
569.128	1	13
569.297	1	4
569.467	1	1
569.637	1	12
569.807	1	3
569.977	1	8
570.147	1	13
570.317	1	-5
570.487	1	11
570.656	1	6
570.826	1	2
570.996	1	-1
571.166	1	16
571.336	1	-4
571.506	1	3
571.676	1	9
571.846	1	10
572.015	1	9
572.185	1	6
572.355	1	-4
572.525	1	2
572.695	1	1
572.865	1	-3
573.035	1	4
573.205	1	10
573.374	1	-7
573.544	1	5
573.714	1	11
573.884	1	18
574.054	1	10
574.224	1	3
574.394	1	1
574.563	1	-1
574.733	1	9
574.903	1	1
575.073	1	0
575.243	1	-2
575.413	1	10
575.583	1	-5
575.752	1	11
575.922	1	11
576.092	1	6
576.262	1	17
576.432	1	4
576.602	1	0
576.772	1	17
576.941	1	3
577.111	1	-8
577.281	1	-9
577.451	1	-2
577.621	1	11
577.791	1	12
577.960	1	3
578.130	1	8
578.300	1	4
578.470	1	13
578.640	1	10
578.810	1	3
578.979	1	3
579.149	1	3
579.319	1	-4
579.489	1	0
579.659	1	4
579.829	1	4
579.998	1	13
580.168	1	12
580.338	1	9
580.508	1	2
580.678	1	12
580.848	1	5
581.017	1	0
581.187	1	3
581.357	1	-8
581.527	1	7
581.697	1	5
581.867	1	7
582.036	1	2
582.206	1	7
582.376	1	9
582.546	1	1
582.716	1	3
582.885	1	8
583.055	1	2
583.225	1	-15
583.395	1	4
583.565	1	-2
583.735	1	-2
583.904	1	6
584.074	1	2
584.244	1	14
584.414	1	-1
584.584	1	4
584.753	1	1
584.923	1	1
585.093	1	2
585.263	1	2
585.433	1	3
585.602	1	2
585.772	1	0
585.942	1	1
586.112	1	14
586.282	1	3
586.451	1	-3
586.621	1	-3
586.791	1	2
586.961	1	-7
587.131	1	12
587.300	1	-7
587.470	1	7
587.640	1	10
587.810	1	0
587.980	1	13
588.149	1	-5
588.319	1	-12
588.489	1	6
588.659	1	2
588.829	1	13
588.998	1	10
589.168	1	12
589.338	1	-5
589.508	1	8
589.677	1	-2
589.847	1	-1
590.017	1	6
590.187	1	3
590.357	1	17
590.526	1	19
590.696	1	2
590.866	1	6
591.036	1	-7
591.205	1	19
591.375	1	-1
591.545	1	-5
591.715	1	9
591.885	1	2
592.054	1	2
592.224	1	-4
592.394	1	-2
592.564	1	5
592.733	1	10
592.903	1	7
593.073	1	-3
593.243	1	0
593.412	1	5
593.582	1	0
593.752	1	-7
593.922	1	8
594.091	1	0
594.261	1	1
594.431	1	5
594.601	1	7
594.771	1	6
594.940	1	5
595.110	1	1
595.280	1	8
595.450	1	4
595.619	1	0
595.789	1	2
595.959	1	19
596.129	1	-7
596.298	1	1
596.468	1	0
596.638	1	6
596.808	1	2
596.977	1	-9
597.147	1	10
597.317	1	-4
597.487	1	9
597.656	1	4
597.826	1	11
597.996	1	5
598.166	1	-1
598.335	1	-11
598.505	1	2
598.675	1	-1
598.844	1	0
599.014	1	-3
599.184	1	5
599.354	1	-5
599.523	1	15
599.693	1	2
599.863	1	13
600.033	1	4
600.202	1	10
600.372	1	3
600.542	1	6
600.712	1	4
600.881	1	1
601.051	1	6
601.221	1	10
601.390	1	-4
601.560	1	14
601.730	1	17
601.900	1	8
602.069	1	16
602.239	1	-3
602.409	1	-4
602.578	1	-3
602.748	1	-5
602.918	1	14
603.088	1	7
603.257	1	8
603.427	1	-5
603.597	1	4
603.767	1	1
603.936	1	9
604.106	1	1
604.276	1	-5
604.445	1	15
604.615	1	7
604.785	1	-2
604.954	1	9
605.124	1	2
605.294	1	6
605.464	1	-8
605.633	1	7
605.803	1	10
605.973	1	12
606.142	1	11
606.312	1	8
606.482	1	14
606.652	1	7
606.821	1	-7
606.991	1	10
607.161	1	-3
607.330	1	6
607.500	1	0
607.670	1	1
607.839	1	8
608.009	1	17
608.179	1	7
608.348	1	2
608.518	1	1
608.688	1	12
608.858	1	4
609.027	1	0
609.197	1	6
609.367	1	12
609.536	1	6
609.706	1	0
609.876	1	8
610.045	1	4
610.215	1	7
610.385	1	7
610.554	1	6
610.724	1	11
610.894	1	7
611.063	1	-2
611.233	1	1
611.403	1	0
611.572	1	3
611.742	1	15
611.912	1	9
612.081	1	3
612.251	1	10
612.421	1	6
612.590	1	5
612.760	1	5
612.930	1	9
613.099	1	4
613.269	1	12
613.439	1	0
613.608	1	7
613.778	1	13
613.948	1	3
614.117	1	15
614.287	1	13
614.457	1	13
614.626	1	6
614.796	1	13
614.966	1	-2
615.135	1	4
615.305	1	12
615.475	1	8
615.644	1	15
615.814	1	2
615.984	1	4
616.153	1	4
616.323	1	9
616.493	1	2
616.662	1	14
616.832	1	0
617.002	1	8
617.171	1	6
617.341	1	8
617.511	1	-2
617.680	1	8
617.850	1	6
618.019	1	12
618.189	1	12
618.359	1	9
618.528	1	3
618.698	1	7
618.868	1	-4
619.037	1	8
619.207	1	0
619.377	1	3
619.546	1	4
619.716	1	6
619.885	1	6
620.055	1	-12
620.225	1	7
620.394	1	0
620.564	1	10
620.734	1	15
620.903	1	-2
621.073	1	7
621.242	1	11
621.412	1	13
621.582	1	-2
621.751	1	9
621.921	1	12
622.091	1	-1
622.260	1	3
622.430	1	16
622.599	1	10
622.769	1	9
622.939	1	8
623.108	1	4
623.278	1	-3
623.448	1	0
623.617	1	8
623.787	1	7
623.956	1	11
624.126	1	7
624.296	1	4
624.465	1	7
624.635	1	15
624.804	1	8
624.974	1	0
625.144	1	10
625.313	1	-4
625.483	1	6
625.652	1	8
625.822	1	-1
625.992	1	-3
626.161	1	14
626.331	1	13
626.501	1	6
626.670	1	8
626.840	1	-5
627.009	1	8
627.179	1	8
627.348	1	18
627.518	1	5
627.688	1	13
627.857	1	9
628.027	1	5
628.196	1	6
628.366	1	17
628.536	1	7
628.705	1	11
628.875	1	6
629.044	1	-2
629.214	1	11
629.384	1	19
629.553	1	9
629.723	1	13
629.892	1	13
630.062	1	9
630.232	1	-2
630.401	1	15
630.571	1	8
630.740	1	7
630.910	1	3
631.079	1	15
631.249	1	10
631.419	1	15
631.588	1	-6
631.758	1	13
631.927	1	-1
632.097	1	-1
632.266	1	7
632.436	1	13
632.606	1	3
632.775	1	7
632.945	1	15
633.114	1	9
633.284	1	11
633.453	1	-2
633.623	1	4
633.793	1	8
633.962	1	-1
634.132	1	8
634.301	1	5
634.471	1	14
634.640	1	5
634.810	1	4
634.979	1	10
635.149	1	11
635.319	1	0
635.488	1	11
635.658	1	8
635.827	1	3
635.997	1	7
636.166	1	7
636.336	1	8
636.505	1	7
636.675	1	3
636.845	1	10
637.014	1	9
637.184	1	13
637.353	1	3
637.523	1	3
637.692	1	6
637.862	1	4
638.031	1	11
638.201	1	7
638.370	1	11
638.540	1	12
638.710	1	9
638.879	1	-5
639.049	1	1
639.218	1	4
639.388	1	-3
639.557	1	6
639.727	1	8
639.896	1	4
640.066	1	4
640.235	1	11
640.405	1	12
640.574	1	6
640.744	1	-2
640.914	1	4
641.083	1	2
641.253	1	2
641.422	1	0
641.592	1	11
641.761	1	0
641.931	1	8
642.100	1	29
642.270	1	9
642.439	1	6
642.609	1	18
642.778	1	-6
642.948	1	5
643.117	1	7
643.287	1	7
643.456	1	-3
643.626	1	17
643.795	1	6
643.965	1	10
644.134	1	6
644.304	1	8
644.473	1	13
644.643	1	5
644.812	1	11
644.982	1	14
645.151	1	4
645.321	1	3
645.490	1	15
645.660	1	5
645.829	1	0
645.999	1	5
646.168	1	16
646.338	1	19
646.507	1	3
646.677	1	9
646.846	1	7
647.016	1	-4
647.185	1	9
647.355	1	-6
647.524	1	13
647.694	1	25
647.863	1	13
648.033	1	13
648.202	1	14
648.372	1	-2
648.541	1	2
648.711	1	0
648.880	1	16
649.050	1	3
649.219	1	12
649.389	1	19
649.558	1	16
649.728	1	8
649.897	1	1
650.067	1	9
650.236	1	4
650.406	1	20
650.575	1	7
650.745	1	10
650.914	1	-1
651.084	1	0
651.253	1	14
651.423	1	12
651.592	1	7
651.762	1	4
651.931	1	17
652.101	1	10
652.270	1	9
652.440	1	15
652.609	1	4
652.778	1	7
652.948	1	11
653.117	1	12
653.287	1	4
653.456	1	14
653.626	1	11
653.795	1	1
653.965	1	8
654.134	1	14
654.304	1	-2
654.473	1	9
654.643	1	16
654.812	1	5
654.982	1	11
655.151	1	3
655.320	1	13
655.490	1	-3
655.659	1	8
655.829	1	10
655.998	1	6
656.168	1	14
656.337	1	10
656.507	1	10
656.676	1	17
656.846	1	26
657.015	1	13
657.184	1	11
657.354	1	12
657.523	1	8
657.693	1	10
657.862	1	8
658.032	1	8
658.201	1	10
658.371	1	19
658.540	1	0
658.709	1	2
658.879	1	15
659.048	1	8
659.218	1	11
659.387	1	18
659.557	1	10
659.726	1	2
659.895	1	13
660.065	1	1
660.234	1	5
660.404	1	11
660.573	1	2
660.743	1	11
660.912	1	8
661.081	1	12
661.251	1	10
661.420	1	8
661.590	1	6
661.759	1	14
661.929	1	7
662.098	1	12
662.267	1	9
662.437	1	10
662.606	1	8
662.776	1	14
662.945	1	13
663.115	1	7
663.284	1	11
663.453	1	7
663.623	1	11
663.792	1	12
663.962	1	6
664.131	1	6
664.300	1	16
664.470	1	5
664.639	1	14
664.809	1	8
664.978	1	12
665.148	1	7
665.317	1	1
665.486	1	17
665.656	1	8
665.825	1	21
665.995	1	9
666.164	1	7
666.333	1	7
666.503	1	8
666.672	1	1
666.842	1	12
667.011	1	0
667.180	1	27
667.350	1	18
667.519	1	9
667.689	1	5
667.858	1	3
668.027	1	17
668.197	1	1
668.366	1	4
668.536	1	12
668.705	1	12
668.874	1	12
669.044	1	6
669.213	1	18
669.382	1	1
669.552	1	11
669.721	1	12
669.891	1	21
670.060	1	7
670.229	1	28
670.399	1	13
670.568	1	17
670.738	1	16
670.907	1	10
671.076	1	2
671.246	1	7
671.415	1	6
671.584	1	9
671.754	1	7
671.923	1	9
672.093	1	13
672.262	1	2
672.431	1	14
672.601	1	6
672.770	1	-3
672.939	1	14
673.109	1	1
673.278	1	7
673.448	1	11
673.617	1	10
673.786	1	7
