325.333	1	5
325.504	1	2
325.675	1	0
325.846	1	2
326.017	1	-2
326.188	1	7
326.359	1	-4
326.531	1	-11
326.702	1	0
326.873	1	13
327.044	1	1
327.215	1	1
327.386	1	5
327.557	1	-2
327.728	1	-4
327.899	1	-4
328.070	1	18
328.241	1	2
328.412	1	-1
328.583	1	8
328.754	1	6
328.926	1	8
329.097	1	-7
329.268	1	2
329.439	1	-8
329.610	1	3
329.781	1	-4
329.952	1	9
330.123	1	4
330.294	1	6
330.465	1	16
330.636	1	7
330.807	1	2
330.978	1	3
331.149	1	-8
331.320	1	-4
331.492	1	0
331.663	1	18
331.834	1	16
332.005	1	4
332.176	1	10
332.347	1	9
332.518	1	0
332.689	1	19
332.860	1	9
333.031	1	4
333.202	1	-2
333.373	1	11
333.544	1	1
333.715	1	11
333.886	1	-1
334.057	1	7
334.228	1	0
334.399	1	9
334.570	1	9
334.741	1	1
334.912	1	10
335.084	1	18
335.255	1	2
335.426	1	1
335.597	1	2
335.768	1	3
335.939	1	10
336.110	1	5
336.281	1	3
336.452	1	-9
336.623	1	6
336.794	1	2
336.965	1	5
337.136	1	9
337.307	1	2
337.478	1	1
337.649	1	5
337.820	1	8
337.991	1	4
338.162	1	2
338.333	1	-2
338.504	1	8
338.675	1	1
338.846	1	8
339.017	1	5
339.188	1	1
339.359	1	5
339.530	1	8
339.701	1	8
339.872	1	11
340.043	1	-2
340.214	1	5
340.385	1	19
340.556	1	-3
340.727	1	12
340.898	1	21
341.069	1	7
341.240	1	7
341.411	1	15
341.582	1	4
341.753	1	-2
341.924	1	0
342.095	1	6
342.266	1	11
342.437	1	13
342.608	1	6
342.779	1	12
342.950	1	7
343.121	1	12
343.292	1	5
343.463	1	3
343.634	1	7
343.805	1	11
343.976	1	16
344.147	1	3
344.318	1	7
344.489	1	6
344.660	1	12
344.831	1	14
345.002	1	-5
345.173	1	17
345.344	1	14
345.515	1	1
345.686	1	-6
345.857	1	7
346.028	1	8
346.199	1	11
346.370	1	6
346.541	1	15
346.712	1	3
346.883	1	6
347.054	1	-4
347.225	1	0
347.396	1	11
347.567	1	6
347.738	1	1
347.909	1	17
348.080	1	6
348.251	1	17
348.422	1	9
348.593	1	8
348.764	1	0
348.935	1	3
349.106	1	6
349.277	1	2
349.448	1	15
349.619	1	10
349.790	1	10
349.961	1	15
350.132	1	18
350.303	1	4
350.474	1	18
350.645	1	12
350.816	1	11
350.987	1	14
351.157	1	0
351.328	1	21
351.499	1	14
351.670	1	2
351.841	1	14
352.012	1	21
352.183	1	17
352.354	1	18
352.525	1	18
352.696	1	19
352.867	1	3
353.038	1	11
353.209	1	6
353.380	1	10
353.551	1	5
353.722	1	16
353.893	1	5
354.064	1	17
354.235	1	14
354.406	1	7
354.576	1	4
354.747	1	19
354.918	1	8
355.089	1	9
355.260	1	17
355.431	1	7
355.602	1	11
355.773	1	14
355.944	1	16
356.115	1	12
356.286	1	6
356.457	1	14
356.628	1	10
356.799	1	12
356.970	1	11
357.141	1	13
357.311	1	4
357.482	1	11
357.653	1	10
357.824	1	13
357.995	1	7
358.166	1	-1
358.337	1	5
358.508	1	23
358.679	1	6
358.850	1	18
359.021	1	12
359.192	1	14
359.363	1	12
359.533	1	8
359.704	1	11
359.875	1	17
360.046	1	10
360.217	1	-3
360.388	1	13
360.559	1	3
360.730	1	13
360.901	1	6
361.072	1	23
361.243	1	17
361.414	1	10
361.584	1	7
361.755	1	10
361.926	1	5
362.097	1	10
362.268	1	12
362.439	1	11
362.610	1	20
362.781	1	5
362.952	1	3
363.123	1	19
363.293	1	6
363.464	1	21
363.635	1	17
363.806	1	7
363.977	1	17
364.148	1	9
364.319	1	14
364.490	1	12
364.661	1	15
364.832	1	18
365.002	1	11
365.173	1	9
365.344	1	12
365.515	1	10
365.686	1	13
365.857	1	16
366.028	1	27
366.199	1	10
366.370	1	17
366.540	1	7
366.711	1	-2
366.882	1	5
367.053	1	-2
367.224	1	29
367.395	1	18
367.566	1	15
367.737	1	20
367.908	1	9
368.078	1	16
368.249	1	13
368.420	1	13
368.591	1	14
368.762	1	10
368.933	1	12
369.104	1	6
369.274	1	5
369.445	1	18
369.616	1	18
369.787	1	24
369.958	1	16
370.129	1	4
370.300	1	15
370.471	1	6
370.641	1	15
370.812	1	13
370.983	1	22
371.154	1	5
371.325	1	23
371.496	1	14
371.667	1	20
371.837	1	9
372.008	1	13
372.179	1	7
372.350	1	26
372.521	1	14
372.692	1	17
372.863	1	19
373.033	1	3
373.204	1	8
373.375	1	14
373.546	1	10
373.717	1	17
373.888	1	21
374.059	1	16
374.229	1	25
374.400	1	10
374.571	1	21
374.742	1	26
374.913	1	7
375.084	1	10
375.254	1	16
375.425	1	24
375.596	1	18
375.767	1	9
375.938	1	18
376.109	1	16
376.279	1	11
376.450	1	23
376.621	1	14
376.792	1	13
376.963	1	11
377.134	1	26
377.304	1	15
377.475	1	6
377.646	1	10
377.817	1	17
377.988	1	10
378.159	1	12
378.329	1	21
378.500	1	19
378.671	1	21
378.842	1	14
379.013	1	3
379.184	1	10
379.354	1	25
379.525	1	6
379.696	1	29
379.867	1	25
380.038	1	18
380.209	1	13
380.379	1	16
380.550	1	9
380.721	1	24
380.892	1	16
381.063	1	25
381.233	1	19
381.404	1	11
381.575	1	19
381.746	1	18
381.917	1	17
382.087	1	17
382.258	1	10
382.429	1	19
382.600	1	31
382.771	1	4
382.941	1	10
383.112	1	14
383.283	1	24
383.454	1	12
383.625	1	16
383.795	1	21
383.966	1	16
384.137	1	19
384.308	1	26
384.479	1	20
384.649	1	17
384.820	1	10
384.991	1	10
385.162	1	17
385.333	1	19
385.503	1	13
385.674	1	10
385.845	1	22
386.016	1	21
386.187	1	8
386.357	1	24
386.528	1	25
386.699	1	20
386.870	1	19
387.041	1	22
387.211	1	17
387.382	1	29
387.553	1	30
387.724	1	9
387.894	1	18
388.065	1	16
388.236	1	21
388.407	1	18
388.578	1	7
388.748	1	15
388.919	1	23
389.090	1	20
389.261	1	12
389.431	1	32
389.602	1	22
389.773	1	18
389.944	1	15
390.114	1	9
390.285	1	14
390.456	1	20
390.627	1	16
390.798	1	18
390.968	1	21
391.139	1	31
391.310	1	13
391.481	1	22
391.651	1	18
391.822	1	15
391.993	1	10
392.164	1	16
392.334	1	13
392.505	1	14
392.676	1	22
392.847	1	18
393.017	1	24
393.188	1	30
393.359	1	11
393.530	1	15
393.700	1	15
393.871	1	8
394.042	1	12
394.213	1	23
394.383	1	18
394.554	1	27
394.725	1	25
394.896	1	7
395.066	1	24
395.237	1	22
395.408	1	13
395.579	1	21
395.749	1	23
395.920	1	20
396.091	1	26
396.262	1	22
396.432	1	18
396.603	1	35
396.774	1	31
396.945	1	31
397.115	1	15
397.286	1	20
397.457	1	23
397.627	1	16
397.798	1	21
397.969	1	17
398.140	1	11
398.310	1	25
398.481	1	19
398.652	1	21
398.823	1	6
398.993	1	13
399.164	1	16
399.335	1	24
399.505	1	19
399.676	1	15
399.847	1	23
400.018	1	17
400.188	1	21
400.359	1	22
400.530	1	9
400.700	1	18
400.871	1	14
401.042	1	24
401.213	1	18
401.383	1	24
401.554	1	22
401.725	1	28
401.895	1	16
402.066	1	27
402.237	1	28
402.408	1	25
402.578	1	17
402.749	1	28
402.920	1	20
403.090	1	20
403.261	1	18
403.432	1	18
403.603	1	23
403.773	1	32
403.944	1	31
404.115	1	27
404.285	1	31
404.456	1	17
404.627	1	11
404.797	1	16
404.968	1	16
405.139	1	17
405.310	1	26
405.480	1	19
405.651	1	25
405.822	1	19
405.992	1	12
406.163	1	17
406.334	1	12
406.504	1	23
406.675	1	30
406.846	1	16
407.016	1	30
407.187	1	32
407.358	1	18
407.528	1	7
407.699	1	8
407.870	1	10
408.041	1	20
408.211	1	28
408.382	1	19
408.553	1	20
408.723	1	35
408.894	1	24
409.065	1	20
409.235	1	24
409.406	1	21
409.577	1	16
409.747	1	24
409.918	1	21
410.089	1	21
410.259	1	29
410.430	1	17
410.601	1	25
410.771	1	20
410.942	1	35
411.113	1	18
411.283	1	15
411.454	1	24
411.625	1	24
411.795	1	25
411.966	1	24
412.137	1	18
412.307	1	11
412.478	1	20
412.649	1	26
412.819	1	17
412.990	1	19
413.161	1	25
413.331	1	11
413.502	1	28
413.672	1	17
413.843	1	12
414.014	1	20
414.184	1	32
414.355	1	24
414.526	1	26
414.696	1	23
414.867	1	21
415.038	1	7
415.208	1	39
415.379	1	22
415.550	1	27
415.720	1	18
415.891	1	16
416.062	1	22
416.232	1	23
416.403	1	25
416.573	1	23
416.744	1	19
416.915	1	29
417.085	1	18
417.256	1	14
417.427	1	21
417.597	1	23
417.768	1	21
417.939	1	25
418.109	1	26
418.280	1	27
418.450	1	22
418.621	1	9
418.792	1	20
418.962	1	20
419.133	1	34
419.304	1	14
419.474	1	20
419.645	1	15
419.815	1	24
419.986	1	20
420.157	1	26
420.327	1	24
420.498	1	28
420.669	1	14
420.839	1	17
421.010	1	25
421.180	1	27
421.351	1	19
421.522	1	30
421.692	1	32
421.863	1	20
422.033	1	31
422.204	1	31
422.375	1	20
422.545	1	30
422.716	1	23
422.886	1	18
423.057	1	25
423.228	1	22
423.398	1	23
423.569	1	36
423.740	1	5
423.910	1	15
424.081	1	25
424.251	1	10
424.422	1	22
424.593	1	15
424.763	1	22
424.934	1	24
425.104	1	36
425.275	1	26
425.445	1	23
425.616	1	18
425.787	1	18
425.957	1	16
426.128	1	25
426.298	1	16
426.469	1	15
426.640	1	15
426.810	1	21
426.981	1	16
427.151	1	13
427.322	1	27
427.493	1	10
427.663	1	21
427.834	1	18
428.004	1	26
428.175	1	32
428.345	1	21
428.516	1	8
428.687	1	20
428.857	1	15
429.028	1	17
429.198	1	26
429.369	1	18
429.540	1	23
429.710	1	9
429.881	1	22
430.051	1	24
430.222	1	14
430.392	1	22
430.563	1	29
430.734	1	31
430.904	1	21
431.075	1	28
431.245	1	12
431.416	1	30
431.586	1	16
431.757	1	25
431.927	1	23
432.098	1	16
432.269	1	15
432.439	1	19
432.610	1	18
432.780	1	26
432.951	1	19
433.121	1	21
433.292	1	30
433.462	1	19
433.633	1	27
433.804	1	22
433.974	1	25
434.145	1	29
434.315	1	11
434.486	1	10
434.656	1	22
434.827	1	13
434.997	1	18
435.168	1	30
435.339	1	26
435.509	1	18
435.680	1	24
435.850	1	22
436.021	1	8
436.191	1	18
436.362	1	24
436.532	1	15
436.703	1	16
436.873	1	23
437.044	1	8
437.214	1	22
437.385	1	10
437.556	1	15
437.726	1	33
437.897	1	23
438.067	1	20
438.238	1	20
438.408	1	22
438.579	1	8
438.749	1	18
438.920	1	14
439.090	1	26
439.261	1	7
439.431	1	14
439.602	1	15
439.772	1	11
439.943	1	27
440.113	1	19
440.284	1	10
440.455	1	17
440.625	1	26
440.796	1	17
440.966	1	18
441.137	1	18
441.307	1	20
441.478	1	21
441.648	1	18
441.819	1	8
441.989	1	17
442.160	1	21
442.330	1	24
442.501	1	20
442.671	1	16
442.842	1	10
443.012	1	14
443.183	1	20
443.353	1	9
443.524	1	16
443.694	1	27
443.865	1	12
444.035	1	14
444.206	1	22
444.376	1	11
444.547	1	28
444.717	1	15
444.888	1	12
445.058	1	18
445.229	1	15
445.399	1	17
445.570	1	20
445.740	1	11
445.911	1	13
446.081	1	5
446.252	1	21
446.422	1	13
446.593	1	16
446.763	1	17
446.934	1	11
447.104	1	19
447.275	1	16
447.445	1	16
447.616	1	21
447.786	1	15
447.957	1	26
448.127	1	19
448.298	1	26
448.468	1	6
448.639	1	14
448.809	1	22
448.979	1	11
449.150	1	23
449.320	1	15
449.491	1	28
449.661	1	9
449.832	1	18
450.002	1	21
450.173	1	14
450.343	1	9
450.514	1	18
450.684	1	20
450.855	1	22
451.025	1	22
451.196	1	21
451.366	1	21
451.537	1	12
451.707	1	2
451.878	1	15
452.048	1	26
452.218	1	16
452.389	1	19
452.559	1	8
452.730	1	22
452.900	1	19
453.071	1	3
453.241	1	17
453.412	1	10
453.582	1	10
453.753	1	4
453.923	1	17
454.093	1	28
454.264	1	34
454.434	1	19
454.605	1	21
454.775	1	11
454.946	1	12
455.116	1	13
455.287	1	10
455.457	1	-3
455.628	1	10
455.798	1	12
455.968	1	22
456.139	1	9
456.309	1	9
456.480	1	17
456.650	1	15
456.821	1	11
456.991	1	22
457.161	1	12
457.332	1	16
457.502	1	-1
457.673	1	22
457.843	1	20
458.014	1	7
458.184	1	12
458.355	1	12
458.525	1	12
458.695	1	15
458.866	1	17
459.036	1	13
459.207	1	16
459.377	1	12
459.548	1	22
459.718	1	7
459.888	1	20
460.059	1	20
460.229	1	14
460.400	1	17
460.570	1	15
460.740	1	12
460.911	1	20
461.081	1	12
461.252	1	12
461.422	1	16
461.593	1	18
461.763	1	9
461.933	1	18
462.104	1	3
462.274	1	17
462.445	1	10
462.615	1	12
462.785	1	15
462.956	1	11
463.126	1	21
463.297	1	12
463.467	1	12
463.638	1	17
463.808	1	10
463.978	1	1
464.149	1	12
464.319	1	11
464.490	1	24
464.660	1	12
464.830	1	13
465.001	1	15
465.171	1	15
465.342	1	18
465.512	1	14
465.682	1	8
465.853	1	18
466.023	1	13
466.194	1	5
466.364	1	20
466.534	1	19
466.705	1	9
466.875	1	7
467.045	1	8
467.216	1	20
467.386	1	5
467.557	1	11
467.727	1	3
467.897	1	2
468.068	1	8
468.238	1	14
468.409	1	13
468.579	1	12
468.749	1	4
468.920	1	7
469.090	1	14
469.260	1	5
469.431	1	16
469.601	1	11
469.772	1	16
469.942	1	2
470.112	1	22
470.283	1	5
470.453	1	7
470.623	1	6
470.794	1	13
470.964	1	15
471.135	1	5
471.305	1	5
471.475	1	9
471.646	1	5
471.816	1	1
471.986	1	14
472.157	1	27
472.327	1	7
472.497	1	13
472.668	1	12
472.838	1	17
473.009	1	17
473.179	1	8
473.349	1	-3
473.520	1	4
473.690	1	9
473.860	1	11
474.031	1	11
474.201	1	22
474.371	1	20
474.542	1	14
474.712	1	18
474.882	1	4
475.053	1	22
475.223	1	12
475.394	1	12
475.564	1	8
475.734	1	8
475.905	1	20
476.075	1	11
476.245	1	23
476.416	1	22
476.586	1	18
476.756	1	15
476.927	1	19
477.097	1	9
477.267	1	3
477.438	1	21
477.608	1	9
477.778	1	12
477.949	1	17
478.119	1	19
478.289	1	16
478.460	1	18
478.630	1	8
478.800	1	12
478.971	1	15
479.141	1	9
479.311	1	1
479.482	1	6
479.652	1	5
479.822	1	11
479.993	1	13
480.163	1	17
480.333	1	14
480.504	1	18
480.674	1	6
480.844	1	3
481.015	1	17
481.185	1	5
481.355	1	10
481.525	1	3
481.696	1	13
481.866	1	17
482.036	1	13
482.207	1	9
482.377	1	16
482.547	1	13
482.718	1	5
482.888	1	15
483.058	1	11
483.229	1	7
483.399	1	7
483.569	1	7
483.740	1	10
483.910	1	10
484.080	1	15
484.250	1	15
484.421	1	7
484.591	1	11
484.761	1	9
484.932	1	13
485.102	1	18
485.272	1	15
485.443	1	24
485.613	1	14
485.783	1	-5
485.953	1	2
486.124	1	8
486.294	1	12
486.464	1	6
486.635	1	16
486.805	1	16
486.975	1	6
487.146	1	15
487.316	1	1
487.486	1	15
487.656	1	5
487.827	1	19
487.997	1	4
488.167	1	5
488.338	1	10
488.508	1	2
488.678	1	6
488.848	1	19
489.019	1	11
489.189	1	8
489.359	1	4
489.529	1	13
489.700	1	14
489.870	1	11
490.040	1	-7
490.211	1	1
490.381	1	9
490.551	1	14
490.721	1	23
490.892	1	13
491.062	1	8
491.232	1	9
491.402	1	17
491.573	1	1
491.743	1	10
491.913	1	4
492.084	1	10
492.254	1	4
492.424	1	8
492.594	1	8
492.765	1	9
492.935	1	3
493.105	1	7
493.275	1	14
493.446	1	17
493.616	1	15
493.786	1	8
493.956	1	13
494.127	1	11
494.297	1	7
494.467	1	15
494.637	1	10
494.808	1	9
494.978	1	-11
495.148	1	9
495.318	1	-3
495.489	1	10
495.659	1	10
495.829	1	12
495.999	1	9
496.170	1	6
496.340	1	6
496.510	1	13
496.680	1	3
496.851	1	6
497.021	1	3
497.191	1	-2
497.361	1	6
497.532	1	10
497.702	1	2
497.872	1	10
498.042	1	8
498.213	1	0
498.383	1	13
498.553	1	7
498.723	1	12
498.894	1	15
499.064	1	3
499.234	1	13
499.404	1	10
499.574	1	17
499.745	1	17
499.915	1	1
500.085	1	11
500.255	1	24
500.426	1	9
500.596	1	4
500.766	1	9
500.936	1	1
501.106	1	5
501.277	1	0
501.447	1	10
501.617	1	7
501.787	1	6
501.958	1	-2
502.128	1	5
502.298	1	6
502.468	1	4
502.638	1	12
502.809	1	-1
502.979	1	0
503.149	1	0
503.319	1	2
503.489	1	4
503.660	1	11
503.830	1	4
504.000	1	8
504.170	1	3
504.340	1	-3
504.511	1	16
504.681	1	-2
504.851	1	19
505.021	1	11
505.192	1	1
505.362	1	9
505.532	1	5
505.702	1	1
505.872	1	5
506.043	1	9
506.213	1	-3
506.383	1	2
506.553	1	11
506.723	1	16
506.893	1	16
507.064	1	6
507.234	1	11
507.404	1	1
507.574	1	2
507.744	1	10
507.915	1	3
508.085	1	13
508.255	1	9
508.425	1	5
508.595	1	16
508.766	1	16
508.936	1	-9
509.106	1	9
509.276	1	7
509.446	1	-8
509.616	1	8
509.787	1	7
509.957	1	-7
510.127	1	3
510.297	1	9
510.467	1	-2
510.638	1	8
510.808	1	2
510.978	1	-3
511.148	1	6
511.318	1	2
511.488	1	5
511.659	1	12
511.829	1	-6
511.999	1	2
512.169	1	2
512.339	1	2
512.509	1	5
512.680	1	3
512.850	1	2
513.020	1	10
513.190	1	19
513.360	1	6
513.530	1	-2
513.700	1	11
513.871	1	5
514.041	1	11
514.211	1	10
514.381	1	7
514.551	1	-3
514.721	1	-6
514.892	1	9
515.062	1	10
515.232	1	2
515.402	1	5
515.572	1	0
515.742	1	15
515.912	1	11
516.083	1	1
516.253	1	14
516.423	1	4
516.593	1	9
516.763	1	9
516.933	1	2
517.104	1	4
517.274	1	8
517.444	1	7
517.614	1	2
517.784	1	5
517.954	1	11
518.124	1	3
518.294	1	6
518.465	1	-1
518.635	1	1
518.805	1	-3
518.975	1	8
519.145	1	0
519.315	1	-1
519.485	1	4
519.656	1	6
519.826	1	8
519.996	1	0
520.166	1	7
520.336	1	17
520.506	1	0
520.676	1	-11
520.846	1	18
521.017	1	3
521.187	1	-2
521.357	1	4
521.527	1	5
521.697	1	2
521.867	1	-2
522.037	1	3
522.207	1	8
522.377	1	10
522.548	1	4
522.718	1	1
522.888	1	14
523.058	1	1
523.228	1	10
523.398	1	4
523.568	1	1
523.738	1	9
523.909	1	4
524.079	1	3
524.249	1	11
524.419	1	13
524.589	1	4
524.759	1	4
524.929	1	-3
525.099	1	7
525.269	1	5
525.439	1	-3
525.610	1	20
525.780	1	-3
525.950	1	6
526.120	1	0
526.290	1	9
526.460	1	-8
526.630	1	8
526.800	1	-5
526.970	1	6
527.140	1	3
527.311	1	3
527.481	1	-2
527.651	1	11
527.821	1	-2
527.991	1	12
528.161	1	10
528.331	1	2
528.501	1	4
528.671	1	-2
528.841	1	2
529.011	1	-2
529.181	1	10
529.352	1	2
529.522	1	6
529.692	1	7
529.862	1	-1
530.032	1	9
530.202	1	8
530.372	1	1
530.542	1	4
530.712	1	7
530.882	1	12
531.052	1	4
531.222	1	-2
531.392	1	2
531.563	1	8
531.733	1	10
531.903	1	8
532.073	1	12
532.243	1	10
532.413	1	5
532.583	1	3
532.753	1	9
532.923	1	5
533.093	1	2
533.263	1	-3
533.433	1	4
533.603	1	14
533.773	1	-3
533.943	1	1
534.113	1	7
534.284	1	-1
534.454	1	13
534.624	1	16
534.794	1	-2
534.964	1	15
535.134	1	-4
535.304	1	-4
535.474	1	9
535.644	1	0
535.814	1	-15
535.984	1	-8
536.154	1	9
536.324	1	2
536.494	1	12
536.664	1	10
536.834	1	4
537.004	1	0
537.174	1	17
537.344	1	0
537.514	1	-3
537.685	1	0
537.855	1	3
538.025	1	8
538.195	1	4
538.365	1	17
538.535	1	1
538.705	1	0
538.875	1	-3
539.045	1	13
539.215	1	0
539.385	1	5
539.555	1	7
539.725	1	1
539.895	1	-4
540.065	1	15
540.235	1	4
540.405	1	1
540.575	1	-6
540.745	1	12
540.915	1	12
541.085	1	6
541.255	1	-9
541.425	1	7
541.595	1	-2
541.765	1	14
541.935	1	-1
542.105	1	0
542.275	1	0
542.445	1	-11
542.615	1	11
542.785	1	1
542.955	1	11
543.125	1	-5
543.295	1	1
543.465	1	3
543.635	1	4
543.805	1	15
543.975	1	-5
544.145	1	9
544.315	1	8
544.485	1	10
544.655	1	-1
544.825	1	-6
544.995	1	9
545.165	1	-6
545.335	1	1
545.505	1	-3
545.675	1	14
545.845	1	12
546.015	1	9
546.185	1	2
546.355	1	2
546.525	1	10
546.695	1	4
546.865	1	0
547.035	1	10
547.205	1	-8
547.375	1	10
547.545	1	7
547.715	1	-7
547.885	1	2
548.055	1	9
548.225	1	1
548.395	1	-2
548.565	1	-1
548.735	1	8
548.905	1	4
549.075	1	17
549.245	1	-1
549.415	1	-5
549.585	1	3
549.755	1	5
549.925	1	-4
550.095	1	4
550.265	1	-2
550.435	1	-10
550.605	1	2
550.775	1	12
550.945	1	5
551.115	1	2
551.285	1	8
551.455	1	-5
551.625	1	12
551.795	1	10
551.965	1	1
552.135	1	1
552.305	1	-5
552.475	1	-8
552.645	1	-1
552.815	1	3
552.985	1	11
553.155	1	-7
553.325	1	3
553.495	1	4
553.665	1	4
553.835	1	-1
554.004	1	2
554.174	1	-1
554.344	1	5
554.514	1	1
554.684	1	4
554.854	1	5
555.024	1	-10
555.194	1	0
555.364	1	11
555.534	1	4
555.704	1	-10
555.874	1	10
556.044	1	10
556.214	1	-10
556.384	1	6
556.554	1	4
556.724	1	2
556.894	1	0
557.064	1	7
557.234	1	5
557.404	1	12
557.573	1	12
557.743	1	-2
557.913	1	2
558.083	1	-7
558.253	1	9
558.423	1	2
558.593	1	-2
558.763	1	-1
558.933	1	-1
559.103	1	13
559.273	1	7
559.443	1	5
559.613	1	7
559.783	1	6
559.953	1	5
560.122	1	13
560.292	1	1
560.462	1	-2
560.632	1	4
560.802	1	3
560.972	1	4
561.142	1	-1
561.312	1	-5
561.482	1	11
561.652	1	14
561.822	1	3
561.992	1	-7
562.162	1	3
562.331	1	4
562.501	1	-2
562.671	1	8
562.841	1	-10
563.011	1	-1
563.181	1	-5
563.351	1	-10
563.521	1	1
563.691	1	-4
563.861	1	-2
564.031	1	9
564.201	1	11
564.370	1	-13
564.540	1	3
564.710	1	-9
564.880	1	3
565.050	1	6
565.220	1	-5
565.390	1	8
565.560	1	5
565.730	1	1
565.900	1	1
566.069	1	15
566.239	1	-5
566.409	1	-1
566.579	1	10
566.749	1	-5
566.919	1	10
567.089	1	2
567.259	1	2
567.429	1	-1
567.599	1	1
567.768	1	0
567.938	1	5
568.108	1	6
568.278	1	3
568.448	1	-12
568.618	1	9
568.788	1	5
568.958	1	-1
569.128	1	9
569.297	1	0
569.467	1	-4
569.637	1	8
569.807	1	-8
569.977	1	12
570.147	1	3
570.317	1	-3
570.487	1	5
570.656	1	13
570.826	1	-7
570.996	1	-4
571.166	1	9
571.336	1	-5
571.506	1	9
571.676	1	5
571.846	1	5
572.015	1	4
572.185	1	7
572.355	1	3
572.525	1	3
572.695	1	-1
572.865	1	-3
573.035	1	3
573.205	1	2
573.374	1	-6
573.544	1	0
573.714	1	1
573.884	1	10
574.054	1	9
574.224	1	10
574.394	1	4
574.563	1	-4
574.733	1	-2
574.903	1	7
575.073	1	-5
575.243	1	6
575.413	1	5
575.583	1	-2
575.752	1	12
575.922	1	6
576.092	1	12
576.262	1	11
576.432	1	11
576.602	1	-2
576.772	1	18
576.941	1	2
577.111	1	-2
577.281	1	-10
577.451	1	-1
577.621	1	5
577.791	1	10
577.960	1	-10
578.130	1	3
578.300	1	0
578.470	1	6
578.640	1	-5
578.810	1	10
578.979	1	19
579.149	1	-5
579.319	1	-9
579.489	1	4
579.659	1	1
579.829	1	-1
579.998	1	-5
580.168	1	9
580.338	1	9
580.508	1	0
580.678	1	8
580.848	1	7
581.017	1	-2
581.187	1	5
581.357	1	-4
581.527	1	9
581.697	1	1
581.867	1	2
582.036	1	-3
582.206	1	-3
582.376	1	12
582.546	1	-6
582.716	1	3
582.885	1	1
583.055	1	3
583.225	1	-9
583.395	1	5
583.565	1	2
583.735	1	11
583.904	1	2
584.074	1	16
584.244	1	3
584.414	1	-3
584.584	1	6
584.753	1	2
584.923	1	9
585.093	1	5
585.263	1	5
585.433	1	4
585.602	1	5
585.772	1	-7
585.942	1	-2
586.112	1	2
586.282	1	-10
586.451	1	1
586.621	1	1
586.791	1	0
586.961	1	6
587.131	1	2
587.300	1	-1
587.470	1	12
587.640	1	16
587.810	1	-1
587.980	1	2
588.149	1	3
588.319	1	4
588.489	1	-2
588.659	1	-1
588.829	1	1
588.998	1	13
589.168	1	5
589.338	1	7
589.508	1	0
589.677	1	-7
589.847	1	-3
590.017	1	17
590.187	1	-2
590.357	1	10
590.526	1	10
590.696	1	9
590.866	1	9
591.036	1	5
591.205	1	8
591.375	1	-10
591.545	1	-5
591.715	1	12
591.885	1	-1
592.054	1	5
592.224	1	1
592.394	1	-1
592.564	1	6
592.733	1	4
592.903	1	3
593.073	1	6
593.243	1	3
593.412	1	10
593.582	1	-2
593.752	1	-3
593.922	1	-10
594.091	1	-1
594.261	1	-9
594.431	1	7
594.601	1	8
594.771	1	8
594.940	1	0
595.110	1	0
595.280	1	6
595.450	1	-3
595.619	1	0
595.789	1	4
595.959	1	9
596.129	1	-1
596.298	1	1
596.468	1	10
596.638	1	11
596.808	1	2
596.977	1	3
597.147	1	1
597.317	1	-6
597.487	1	7
597.656	1	3
597.826	1	4
597.996	1	1
598.166	1	1
598.335	1	-1
598.505	1	3
598.675	1	-7
598.844	1	6
599.014	1	6
599.184	1	3
599.354	1	-10
599.523	1	4
599.693	1	-4
599.863	1	15
600.033	1	9
600.202	1	-3
600.372	1	-5
600.542	1	4
600.712	1	4
600.881	1	-2
601.051	1	4
601.221	1	5
601.390	1	1
601.560	1	9
601.730	1	15
601.900	1	8
602.069	1	8
602.239	1	-2
602.409	1	0
602.578	1	3
602.748	1	0
602.918	1	9
603.088	1	1
603.257	1	8
603.427	1	-5
603.597	1	4
603.767	1	9
603.936	1	9
604.106	1	6
604.276	1	3
604.445	1	10
604.615	1	-3
604.785	1	7
604.954	1	0
605.124	1	0
605.294	1	2
605.464	1	-4
605.633	1	12
605.803	1	3
605.973	1	2
606.142	1	3
606.312	1	6
606.482	1	5
606.652	1	9
606.821	1	-6
606.991	1	4
607.161	1	-9
607.330	1	12
607.500	1	-1
607.670	1	-1
607.839	1	11
608.009	1	12
608.179	1	-1
608.348	1	1
608.518	1	0
608.688	1	13
608.858	1	2
609.027	1	-2
609.197	1	-2
609.367	1	11
609.536	1	7
609.706	1	-2
609.876	1	0
610.045	1	1
610.215	1	4
610.385	1	3
610.554	1	0
610.724	1	11
610.894	1	2
611.063	1	5
611.233	1	2
611.403	1	1
611.572	1	2
611.742	1	8
611.912	1	-9
612.081	1	-8
612.251	1	0
612.421	1	4
612.590	1	8
612.760	1	6
612.930	1	8
613.099	1	-3
613.269	1	6
613.439	1	3
613.608	1	-6
613.778	1	1
613.948	1	4
614.117	1	1
614.287	1	11
614.457	1	1
614.626	1	-4
614.796	1	3
614.966	1	2
615.135	1	11
615.305	1	13
615.475	1	-3
615.644	1	4
615.814	1	12
615.984	1	4
616.153	1	-3
616.323	1	5
616.493	1	0
616.662	1	16
616.832	1	3
617.002	1	-5
617.171	1	-1
617.341	1	3
617.511	1	2
617.680	1	5
617.850	1	2
618.019	1	13
618.189	1	7
618.359	1	4
618.528	1	-2
618.698	1	0
618.868	1	-7
619.037	1	-7
619.207	1	6
619.377	1	-1
619.546	1	-2
619.716	1	0
619.885	1	1
620.055	1	-10
620.225	1	5
620.394	1	-16
620.564	1	17
620.734	1	1
620.903	1	-7
621.073	1	-1
621.242	1	1
621.412	1	2
621.582	1	5
621.751	1	11
621.921	1	0
622.091	1	-2
622.260	1	1
622.430	1	2
622.599	1	-1
622.769	1	10
622.939	1	13
623.108	1	6
623.278	1	3
623.448	1	-1
623.617	1	2
623.787	1	2
623.956	1	9
624.126	1	-2
624.296	1	-6
624.465	1	4
624.635	1	8
624.804	1	5
624.974	1	12
625.144	1	15
625.313	1	1
625.483	1	-5
625.652	1	-1
625.822	1	6
625.992	1	-3
626.161	1	6
626.331	1	11
626.501	1	4
626.670	1	-3
626.840	1	-6
627.009	1	6
627.179	1	7
627.348	1	4
627.518	1	6
627.688	1	6
627.857	1	11
628.027	1	2
628.196	1	4
628.366	1	5
628.536	1	1
628.705	1	4
628.875	1	7
629.044	1	3
629.214	1	13
629.384	1	6
629.553	1	15
629.723	1	5
629.892	1	8
630.062	1	8
630.232	1	-5
630.401	1	6
630.571	1	7
630.740	1	1
630.910	1	13
631.079	1	5
631.249	1	0
631.419	1	-3
631.588	1	-8
631.758	1	9
631.927	1	-2
632.097	1	-3
632.266	1	-2
632.436	1	9
632.606	1	-5
632.775	1	6
632.945	1	2
633.114	1	12
633.284	1	6
633.453	1	6
633.623	1	2
633.793	1	1
633.962	1	1
634.132	1	2
634.301	1	8
634.471	1	0
634.640	1	5
634.810	1	5
634.979	1	8
635.149	1	11
635.319	1	6
635.488	1	7
635.658	1	1
635.827	1	-4
635.997	1	3
636.166	1	-1
636.336	1	0
636.505	1	12
636.675	1	-7
636.845	1	14
637.014	1	2
637.184	1	10
637.353	1	8
637.523	1	10
637.692	1	3
637.862	1	13
638.031	1	11
638.201	1	11
638.370	1	0
638.540	1	6
638.710	1	9
638.879	1	2
639.049	1	8
639.218	1	5
639.388	1	0
639.557	1	-1
639.727	1	6
639.896	1	3
640.066	1	7
640.235	1	10
640.405	1	6
640.574	1	3
640.744	1	1
640.914	1	-1
641.083	1	2
641.253	1	-4
641.422	1	9
641.592	1	11
641.761	1	2
641.931	1	2
642.100	1	22
642.270	1	7
642.439	1	6
642.609	1	10
642.778	1	4
642.948	1	-1
643.117	1	12
643.287	1	7
643.456	1	2
643.626	1	11
643.795	1	7
643.965	1	-1
644.134	1	1
644.304	1	-4
644.473	1	5
644.643	1	6
644.812	1	2
644.982	1	8
645.151	1	5
645.321	1	2
645.490	1	8
645.660	1	0
645.829	1	0
645.999	1	8
646.168	1	12
646.338	1	5
646.507	1	3
646.677	1	9
646.846	1	2
647.016	1	-14
647.185	1	5
647.355	1	-17
647.524	1	0
647.694	1	10
647.863	1	0
648.033	1	0
648.202	1	9
648.372	1	-2
648.541	1	7
648.711	1	0
648.880	1	-4
649.050	1	2
649.219	1	3
649.389	1	7
649.558	1	-1
649.728	1	6
649.897	1	4
650.067	1	11
650.236	1	1
650.406	1	4
650.575	1	14
650.745	1	11
650.914	1	-2
651.084	1	-12
651.253	1	6
651.423	1	3
651.592	1	1
651.762	1	-6
651.931	1	13
652.101	1	14
652.270	1	11
652.440	1	6
652.609	1	-6
652.778	1	1
652.948	1	10
653.117	1	7
653.287	1	-1
653.456	1	12
653.626	1	18
653.795	1	3
653.965	1	1
654.134	1	8
654.304	1	-10
654.473	1	9
654.643	1	6
654.812	1	2
654.982	1	9
655.151	1	1
655.320	1	7
655.490	1	-1
655.659	1	1
655.829	1	-5
655.998	1	2
656.168	1	-3
656.337	1	5
656.507	1	0
656.676	1	18
656.846	1	7
657.015	1	9
657.184	1	10
657.354	1	9
657.523	1	4
657.693	1	12
657.862	1	4
658.032	1	6
658.201	1	-4
658.371	1	8
658.540	1	3
658.709	1	-2
658.879	1	11
659.048	1	-1
659.218	1	7
659.387	1	6
659.557	1	7
659.726	1	8
659.895	1	0
660.065	1	-9
660.234	1	6
660.404	1	10
660.573	1	-2
660.743	1	4
660.912	1	11
661.081	1	9
661.251	1	-3
661.420	1	16
661.590	1	8
661.759	1	14
661.929	1	2
662.098	1	4
662.267	1	8
662.437	1	12
662.606	1	4
662.776	1	9
662.945	1	16
663.115	1	-2
663.284	1	-1
663.453	1	12
663.623	1	1
663.792	1	2
663.962	1	1
664.131	1	8
664.300	1	8
664.470	1	0
664.639	1	12
664.809	1	4
664.978	1	11
665.148	1	10
665.317	1	8
665.486	1	9
665.656	1	1
665.825	1	6
665.995	1	3
666.164	1	-2
666.333	1	9
666.503	1	6
666.672	1	2
666.842	1	-5
667.011	1	-1
667.180	1	6
667.350	1	-6
667.519	1	3
667.689	1	7
667.858	1	5
668.027	1	21
668.197	1	4
668.366	1	-6
668.536	1	3
668.705	1	6
668.874	1	4
669.044	1	3
669.213	1	1
669.382	1	5
669.552	1	12
669.721	1	4
669.891	1	15
670.060	1	8
670.229	1	23
670.399	1	-1
670.568	1	19
670.738	1	7
670.907	1	-4
671.076	1	2
671.246	1	9
671.415	1	10
671.584	1	-1
671.754	1	-2
671.923	1	0
672.093	1	9
672.262	1	-3
672.431	1	5
672.601	1	6
672.770	1	-2
672.939	1	7
673.109	1	1
673.278	1	0
673.448	1	15
673.617	1	1
673.786	1	4
