325.333	1	35
325.504	1	29
325.675	1	29
325.846	1	35
326.017	1	33
326.188	1	32
326.359	1	33
326.531	1	21
326.702	1	26
326.873	1	49
327.044	1	37
327.215	1	32
327.386	1	42
327.557	1	32
327.728	1	41
327.899	1	48
328.070	1	47
328.241	1	46
328.412	1	35
328.583	1	41
328.754	1	39
328.926	1	46
329.097	1	39
329.268	1	53
329.439	1	31
329.610	1	56
329.781	1	38
329.952	1	56
330.123	1	41
330.294	1	42
330.465	1	45
330.636	1	48
330.807	1	34
330.978	1	42
331.149	1	53
331.320	1	47
331.492	1	44
331.663	1	48
331.834	1	56
332.005	1	54
332.176	1	53
332.347	1	63
332.518	1	40
332.689	1	55
332.860	1	44
333.031	1	54
333.202	1	54
333.373	1	57
333.544	1	57
333.715	1	64
333.886	1	48
334.057	1	60
334.228	1	57
334.399	1	54
334.570	1	52
334.741	1	62
334.912	1	57
335.084	1	78
335.255	1	57
335.426	1	58
335.597	1	57
335.768	1	54
335.939	1	65
336.110	1	59
336.281	1	60
336.452	1	66
336.623	1	70
336.794	1	65
336.965	1	65
337.136	1	69
337.307	1	72
337.478	1	63
337.649	1	67
337.820	1	61
337.991	1	70
338.162	1	73
338.333	1	73
338.504	1	71
338.675	1	59
338.846	1	65
339.017	1	67
339.188	1	61
339.359	1	55
339.530	1	85
339.701	1	79
339.872	1	83
340.043	1	66
340.214	1	71
340.385	1	80
340.556	1	64
340.727	1	76
340.898	1	79
341.069	1	87
341.240	1	72
341.411	1	75
341.582	1	81
341.753	1	78
341.924	1	84
342.095	1	83
342.266	1	88
342.437	1	80
342.608	1	79
342.779	1	89
342.950	1	85
343.121	1	86
343.292	1	76
343.463	1	91
343.634	1	84
343.805	1	93
343.976	1	90
344.147	1	81
344.318	1	85
344.489	1	91
344.660	1	101
344.831	1	87
345.002	1	79
345.173	1	100
345.344	1	88
345.515	1	97
345.686	1	93
345.857	1	96
346.028	1	101
346.199	1	94
346.370	1	100
346.541	1	101
346.712	1	93
346.883	1	93
347.054	1	93
347.225	1	91
347.396	1	97
347.567	1	100
347.738	1	90
347.909	1	107
348.080	1	99
348.251	1	109
348.422	1	112
348.593	1	101
348.764	1	102
348.935	1	103
349.106	1	105
349.277	1	110
349.448	1	112
349.619	1	102
349.790	1	114
349.961	1	116
350.132	1	122
350.303	1	118
350.474	1	117
350.645	1	118
350.816	1	112
350.987	1	125
351.157	1	108
351.328	1	125
351.499	1	123
351.670	1	117
351.841	1	119
352.012	1	124
352.183	1	135
352.354	1	125
352.525	1	132
352.696	1	127
352.867	1	123
353.038	1	125
353.209	1	135
353.380	1	115
353.551	1	124
353.722	1	128
353.893	1	125
354.064	1	137
354.235	1	122
354.406	1	129
354.576	1	112
354.747	1	121
354.918	1	127
355.089	1	130
355.260	1	144
355.431	1	127
355.602	1	108
355.773	1	133
355.944	1	131
356.115	1	122
356.286	1	134
356.457	1	147
356.628	1	134
356.799	1	130
356.970	1	137
357.141	1	132
357.311	1	128
357.482	1	136
357.653	1	142
357.824	1	144
357.995	1	134
358.166	1	129
358.337	1	143
358.508	1	149
358.679	1	140
358.850	1	152
359.021	1	139
359.192	1	139
359.363	1	127
359.533	1	137
359.704	1	150
359.875	1	145
360.046	1	157
360.217	1	137
360.388	1	144
360.559	1	141
360.730	1	142
360.901	1	142
361.072	1	159
361.243	1	143
361.414	1	159
361.584	1	142
361.755	1	152
361.926	1	151
362.097	1	156
362.268	1	155
362.439	1	142
362.610	1	153
362.781	1	156
362.952	1	150
363.123	1	145
363.293	1	151
363.464	1	157
363.635	1	151
363.806	1	139
363.977	1	153
364.148	1	147
364.319	1	161
364.490	1	155
364.661	1	159
364.832	1	152
365.002	1	166
365.173	1	160
365.344	1	176
365.515	1	167
365.686	1	150
365.857	1	162
366.028	1	164
366.199	1	156
366.370	1	163
366.540	1	153
366.711	1	142
366.882	1	154
367.053	1	170
367.224	1	168
367.395	1	166
367.566	1	181
367.737	1	175
367.908	1	181
368.078	1	173
368.249	1	170
368.420	1	163
368.591	1	167
368.762	1	169
368.933	1	165
369.104	1	155
369.274	1	159
369.445	1	168
369.616	1	165
369.787	1	159
369.958	1	174
370.129	1	164
370.300	1	183
370.471	1	171
370.641	1	173
370.812	1	173
370.983	1	157
371.154	1	167
371.325	1	179
371.496	1	153
371.667	1	170
371.837	1	155
372.008	1	158
372.179	1	163
372.350	1	172
372.521	1	170
372.692	1	172
372.863	1	178
373.033	1	165
373.204	1	159
373.375	1	182
373.546	1	172
373.717	1	183
373.888	1	188
374.059	1	182
374.229	1	179
374.400	1	177
374.571	1	188
374.742	1	171
374.913	1	178
375.084	1	168
375.254	1	185
375.425	1	184
375.596	1	193
375.767	1	189
375.938	1	190
376.109	1	187
376.279	1	173
376.450	1	198
376.621	1	203
376.792	1	191
376.963	1	192
377.134	1	199
377.304	1	182
377.475	1	184
377.646	1	200
377.817	1	177
377.988	1	184
378.159	1	193
378.329	1	207
378.500	1	197
378.671	1	199
378.842	1	182
379.013	1	188
379.184	1	187
379.354	1	187
379.525	1	188
379.696	1	203
379.867	1	198
380.038	1	192
380.209	1	193
380.379	1	194
380.550	1	185
380.721	1	204
380.892	1	204
381.063	1	198
381.233	1	214
381.404	1	193
381.575	1	204
381.746	1	203
381.917	1	189
382.087	1	195
382.258	1	195
382.429	1	205
382.600	1	213
382.771	1	201
382.941	1	209
383.112	1	210
383.283	1	208
383.454	1	209
383.625	1	214
383.795	1	200
383.966	1	199
384.137	1	215
384.308	1	205
384.479	1	221
384.649	1	214
384.820	1	215
384.991	1	220
385.162	1	217
385.333	1	203
385.503	1	220
385.674	1	210
385.845	1	230
386.016	1	221
386.187	1	206
386.357	1	243
386.528	1	228
386.699	1	232
386.870	1	229
387.041	1	219
387.211	1	223
387.382	1	221
387.553	1	228
387.724	1	221
387.894	1	224
388.065	1	236
388.236	1	234
388.407	1	237
388.578	1	220
388.748	1	227
388.919	1	234
389.090	1	236
389.261	1	242
389.431	1	228
389.602	1	230
389.773	1	227
389.944	1	240
390.114	1	233
390.285	1	222
390.456	1	241
390.627	1	231
390.798	1	235
390.968	1	223
391.139	1	228
391.310	1	221
391.481	1	234
391.651	1	228
391.822	1	226
391.993	1	238
392.164	1	229
392.334	1	220
392.505	1	217
392.676	1	228
392.847	1	231
393.017	1	247
393.188	1	228
393.359	1	241
393.530	1	224
393.700	1	219
393.871	1	227
394.042	1	234
394.213	1	234
394.383	1	245
394.554	1	237
394.725	1	249
394.896	1	241
395.066	1	250
395.237	1	239
395.408	1	228
395.579	1	243
395.749	1	233
395.920	1	233
396.091	1	245
396.262	1	243
396.432	1	246
396.603	1	249
396.774	1	260
396.945	1	265
397.115	1	250
397.286	1	235
397.457	1	245
397.627	1	242
397.798	1	246
397.969	1	241
398.140	1	241
398.310	1	236
398.481	1	250
398.652	1	238
398.823	1	247
398.993	1	251
399.164	1	246
399.335	1	256
399.505	1	245
399.676	1	243
399.847	1	247
400.018	1	243
400.188	1	247
400.359	1	240
400.530	1	251
400.700	1	257
400.871	1	245
401.042	1	256
401.213	1	246
401.383	1	241
401.554	1	246
401.725	1	258
401.895	1	239
402.066	1	251
402.237	1	255
402.408	1	252
402.578	1	245
402.749	1	252
402.920	1	245
403.090	1	245
403.261	1	244
403.432	1	243
403.603	1	250
403.773	1	262
403.944	1	269
404.115	1	253
404.285	1	258
404.456	1	259
404.627	1	240
404.797	1	239
404.968	1	243
405.139	1	237
405.310	1	256
405.480	1	251
405.651	1	244
405.822	1	249
405.992	1	250
406.163	1	258
406.334	1	244
406.504	1	257
406.675	1	268
406.846	1	244
407.016	1	259
407.187	1	274
407.358	1	250
407.528	1	239
407.699	1	250
407.870	1	256
408.041	1	252
408.211	1	265
408.382	1	262
408.553	1	252
408.723	1	268
408.894	1	254
409.065	1	256
409.235	1	257
409.406	1	262
409.577	1	258
409.747	1	278
409.918	1	254
410.089	1	259
410.259	1	251
410.430	1	252
410.601	1	256
410.771	1	255
410.942	1	271
411.113	1	266
411.283	1	256
411.454	1	253
411.625	1	259
411.795	1	257
411.966	1	254
412.137	1	264
412.307	1	246
412.478	1	242
412.649	1	261
412.819	1	254
412.990	1	247
413.161	1	259
413.331	1	226
413.502	1	254
413.672	1	236
413.843	1	227
414.014	1	240
414.184	1	248
414.355	1	260
414.526	1	243
414.696	1	253
414.867	1	259
415.038	1	229
415.208	1	243
415.379	1	257
415.550	1	255
415.720	1	230
415.891	1	246
416.062	1	246
416.232	1	245
416.403	1	252
416.573	1	248
416.744	1	241
416.915	1	263
417.085	1	249
417.256	1	257
417.427	1	232
417.597	1	234
417.768	1	251
417.939	1	247
418.109	1	241
418.280	1	251
418.450	1	243
418.621	1	243
418.792	1	252
418.962	1	240
419.133	1	250
419.304	1	241
419.474	1	242
419.645	1	252
419.815	1	248
419.986	1	251
420.157	1	236
420.327	1	246
420.498	1	254
420.669	1	243
420.839	1	257
421.010	1	255
421.180	1	239
421.351	1	239
421.522	1	241
421.692	1	238
421.863	1	243
422.033	1	266
422.204	1	239
422.375	1	231
422.545	1	249
422.716	1	231
422.886	1	227
423.057	1	252
423.228	1	237
423.398	1	224
423.569	1	237
423.740	1	226
423.910	1	232
424.081	1	238
424.251	1	225
424.422	1	223
424.593	1	229
424.763	1	240
424.934	1	227
425.104	1	231
425.275	1	238
425.445	1	231
425.616	1	223
425.787	1	206
425.957	1	231
426.128	1	228
426.298	1	233
426.469	1	208
426.640	1	231
426.810	1	232
426.981	1	215
427.151	1	217
427.322	1	225
427.493	1	223
427.663	1	227
427.834	1	210
428.004	1	218
428.175	1	235
428.345	1	223
428.516	1	207
428.687	1	218
428.857	1	215
429.028	1	208
429.198	1	231
429.369	1	224
429.540	1	219
429.710	1	202
429.881	1	223
430.051	1	211
430.222	1	210
430.392	1	214
430.563	1	228
430.734	1	236
430.904	1	218
431.075	1	220
431.245	1	222
431.416	1	221
431.586	1	213
431.757	1	238
431.927	1	212
432.098	1	227
432.269	1	213
432.439	1	210
432.610	1	219
432.780	1	221
432.951	1	217
433.121	1	219
433.292	1	221
433.462	1	225
433.633	1	219
433.804	1	219
433.974	1	219
434.145	1	224
434.315	1	213
434.486	1	198
434.656	1	220
434.827	1	208
434.997	1	221
435.168	1	212
435.339	1	215
435.509	1	230
435.680	1	223
435.850	1	222
436.021	1	206
436.191	1	204
436.362	1	215
436.532	1	224
436.703	1	226
436.873	1	204
437.044	1	205
437.214	1	216
437.385	1	205
437.556	1	203
437.726	1	224
437.897	1	207
438.067	1	209
438.238	1	191
438.408	1	220
438.579	1	194
438.749	1	196
438.920	1	209
439.090	1	203
439.261	1	200
439.431	1	182
439.602	1	186
439.772	1	198
439.943	1	207
440.113	1	181
440.284	1	193
440.455	1	197
440.625	1	193
440.796	1	192
440.966	1	196
441.137	1	180
441.307	1	185
441.478	1	192
441.648	1	180
441.819	1	196
441.989	1	182
442.160	1	204
442.330	1	182
442.501	1	192
442.671	1	193
442.842	1	184
443.012	1	186
443.183	1	194
443.353	1	182
443.524	1	189
443.694	1	192
443.865	1	176
444.035	1	189
444.206	1	184
444.376	1	190
444.547	1	185
444.717	1	177
444.888	1	178
445.058	1	196
445.229	1	187
445.399	1	168
445.570	1	195
445.740	1	172
445.911	1	192
446.081	1	184
446.252	1	177
446.422	1	185
446.593	1	181
446.763	1	189
446.934	1	179
447.104	1	190
447.275	1	174
447.445	1	184
447.616	1	179
447.786	1	181
447.957	1	177
448.127	1	181
448.298	1	186
448.468	1	189
448.639	1	175
448.809	1	181
448.979	1	174
449.150	1	180
449.320	1	183
449.491	1	181
449.661	1	178
449.832	1	168
450.002	1	183
450.173	1	173
450.343	1	169
450.514	1	182
450.684	1	172
450.855	1	157
451.025	1	173
451.196	1	176
451.366	1	188
451.537	1	155
451.707	1	157
451.878	1	172
452.048	1	163
452.218	1	171
452.389	1	159
452.559	1	154
452.730	1	172
452.900	1	165
453.071	1	151
453.241	1	147
453.412	1	161
453.582	1	165
453.753	1	168
453.923	1	176
454.093	1	170
454.264	1	161
454.434	1	155
454.605	1	152
454.775	1	155
454.946	1	160
455.116	1	156
455.287	1	150
455.457	1	151
455.628	1	143
455.798	1	150
455.968	1	154
456.139	1	155
456.309	1	145
456.480	1	152
456.650	1	138
456.821	1	153
456.991	1	137
457.161	1	144
457.332	1	153
457.502	1	130
457.673	1	153
457.843	1	155
458.014	1	155
458.184	1	150
458.355	1	159
458.525	1	144
458.695	1	145
458.866	1	142
459.036	1	157
459.207	1	145
459.377	1	139
459.548	1	145
459.718	1	136
459.888	1	144
460.059	1	156
460.229	1	134
460.400	1	137
460.570	1	143
460.740	1	146
460.911	1	148
461.081	1	136
461.252	1	133
461.422	1	144
461.593	1	146
461.763	1	129
461.933	1	142
462.104	1	136
462.274	1	134
462.445	1	143
462.615	1	128
462.785	1	123
462.956	1	132
463.126	1	148
463.297	1	134
463.467	1	144
463.638	1	148
463.808	1	124
463.978	1	128
464.149	1	122
464.319	1	135
464.490	1	136
464.660	1	121
464.830	1	124
465.001	1	130
465.171	1	143
465.342	1	132
465.512	1	126
465.682	1	134
465.853	1	132
466.023	1	128
466.194	1	121
466.364	1	131
466.534	1	124
466.705	1	122
466.875	1	119
467.045	1	112
467.216	1	141
467.386	1	116
467.557	1	125
467.727	1	115
467.897	1	120
468.068	1	118
468.238	1	118
468.409	1	119
468.579	1	120
468.749	1	125
468.920	1	108
469.090	1	117
469.260	1	117
469.431	1	106
469.601	1	129
469.772	1	113
469.942	1	109
470.112	1	113
470.283	1	116
470.453	1	123
470.623	1	117
470.794	1	104
470.964	1	120
471.135	1	115
471.305	1	113
471.475	1	111
471.646	1	107
471.816	1	99
471.986	1	112
472.157	1	119
472.327	1	103
472.497	1	107
472.668	1	113
472.838	1	121
473.009	1	109
473.179	1	116
473.349	1	91
473.520	1	102
473.690	1	114
473.860	1	111
474.031	1	111
474.201	1	110
474.371	1	128
474.542	1	112
474.712	1	109
474.882	1	113
475.053	1	117
475.223	1	101
475.394	1	103
475.564	1	108
475.734	1	105
475.905	1	114
476.075	1	111
476.245	1	130
476.416	1	120
476.586	1	122
476.756	1	103
476.927	1	120
477.097	1	102
477.267	1	96
477.438	1	106
477.608	1	99
477.778	1	110
477.949	1	111
478.119	1	108
478.289	1	112
478.460	1	107
478.630	1	101
478.800	1	108
478.971	1	107
479.141	1	105
479.311	1	88
479.482	1	98
479.652	1	103
479.822	1	113
479.993	1	101
480.163	1	97
480.333	1	103
480.504	1	100
480.674	1	102
480.844	1	95
481.015	1	114
481.185	1	102
481.355	1	99
481.525	1	96
481.696	1	93
481.866	1	90
482.036	1	95
482.207	1	105
482.377	1	98
482.547	1	106
482.718	1	89
482.888	1	105
483.058	1	96
483.229	1	85
483.399	1	98
483.569	1	89
483.740	1	102
483.910	1	88
484.080	1	90
484.250	1	95
484.421	1	98
484.591	1	87
484.761	1	105
484.932	1	97
485.102	1	84
485.272	1	87
485.443	1	92
485.613	1	91
485.783	1	84
485.953	1	89
486.124	1	101
486.294	1	87
486.464	1	98
486.635	1	95
486.805	1	96
486.975	1	91
487.146	1	89
487.316	1	80
487.486	1	89
487.656	1	82
487.827	1	90
487.997	1	67
488.167	1	84
488.338	1	89
488.508	1	86
488.678	1	73
488.848	1	99
489.019	1	82
489.189	1	83
489.359	1	80
489.529	1	82
489.700	1	79
489.870	1	96
490.040	1	75
490.211	1	92
490.381	1	88
490.551	1	79
490.721	1	82
490.892	1	82
491.062	1	86
491.232	1	75
491.402	1	85
491.573	1	70
491.743	1	68
491.913	1	75
492.084	1	87
492.254	1	76
492.424	1	83
492.594	1	77
492.765	1	74
492.935	1	79
493.105	1	85
493.275	1	76
493.446	1	82
493.616	1	81
493.786	1	80
493.956	1	72
494.127	1	80
494.297	1	72
494.467	1	73
494.637	1	62
494.808	1	68
494.978	1	70
495.148	1	70
495.318	1	76
495.489	1	76
495.659	1	80
495.829	1	72
495.999	1	68
496.170	1	81
496.340	1	84
496.510	1	74
496.680	1	76
496.851	1	74
497.021	1	69
497.191	1	61
497.361	1	68
497.532	1	72
497.702	1	67
497.872	1	69
498.042	1	73
498.213	1	65
498.383	1	64
498.553	1	72
498.723	1	81
498.894	1	77
499.064	1	66
499.234	1	66
499.404	1	81
499.574	1	79
499.745	1	75
499.915	1	74
500.085	1	65
500.255	1	78
500.426	1	72
500.596	1	74
500.766	1	71
500.936	1	63
501.106	1	58
501.277	1	72
501.447	1	71
501.617	1	68
501.787	1	66
501.958	1	61
502.128	1	70
502.298	1	70
502.468	1	65
502.638	1	59
502.809	1	66
502.979	1	63
503.149	1	62
503.319	1	52
503.489	1	61
503.660	1	75
503.830	1	62
504.000	1	60
504.170	1	59
504.340	1	63
504.511	1	77
504.681	1	58
504.851	1	67
505.021	1	63
505.192	1	51
505.362	1	80
505.532	1	55
505.702	1	60
505.872	1	59
506.043	1	54
506.213	1	64
506.383	1	49
506.553	1	64
506.723	1	53
506.893	1	65
507.064	1	74
507.234	1	56
507.404	1	66
507.574	1	59
507.744	1	64
507.915	1	56
508.085	1	67
508.255	1	60
508.425	1	61
508.595	1	68
508.766	1	56
508.936	1	43
509.106	1	68
509.276	1	62
509.446	1	56
509.616	1	54
509.787	1	58
509.957	1	43
510.127	1	48
510.297	1	48
510.467	1	51
510.638	1	68
510.808	1	49
510.978	1	50
511.148	1	57
511.318	1	54
511.488	1	53
511.659	1	43
511.829	1	55
511.999	1	52
512.169	1	55
512.339	1	54
512.509	1	55
512.680	1	53
512.850	1	56
513.020	1	50
513.190	1	64
513.360	1	59
513.530	1	50
513.700	1	58
513.871	1	47
514.041	1	55
514.211	1	58
514.381	1	55
514.551	1	52
514.721	1	49
514.892	1	57
515.062	1	53
515.232	1	58
515.402	1	50
515.572	1	50
515.742	1	57
515.912	1	50
516.083	1	51
516.253	1	59
516.423	1	46
516.593	1	37
516.763	1	59
516.933	1	45
517.104	1	42
517.274	1	44
517.444	1	49
517.614	1	45
517.784	1	51
517.954	1	51
518.124	1	44
518.294	1	46
518.465	1	50
518.635	1	49
518.805	1	37
518.975	1	38
519.145	1	43
519.315	1	40
519.485	1	44
519.656	1	62
519.826	1	50
519.996	1	43
520.166	1	52
520.336	1	56
520.506	1	54
520.676	1	30
520.846	1	41
521.017	1	49
521.187	1	50
521.357	1	58
521.527	1	42
521.697	1	48
521.867	1	40
522.037	1	44
522.207	1	49
522.377	1	42
522.548	1	40
522.718	1	40
522.888	1	56
523.058	1	35
523.228	1	49
523.398	1	49
523.568	1	56
523.738	1	42
523.909	1	51
524.079	1	44
524.249	1	48
524.419	1	38
524.589	1	40
524.759	1	46
524.929	1	40
525.099	1	45
525.269	1	46
525.439	1	29
525.610	1	53
525.780	1	42
525.950	1	46
526.120	1	39
526.290	1	35
526.460	1	41
526.630	1	42
526.800	1	33
526.970	1	54
527.140	1	46
527.311	1	40
527.481	1	45
527.651	1	50
527.821	1	33
527.991	1	50
528.161	1	34
528.331	1	35
528.501	1	50
528.671	1	25
528.841	1	40
529.011	1	38
529.181	1	46
529.352	1	44
529.522	1	41
529.692	1	44
529.862	1	30
530.032	1	45
530.202	1	46
530.372	1	47
530.542	1	41
530.712	1	37
530.882	1	48
531.052	1	41
531.222	1	37
531.392	1	47
531.563	1	42
531.733	1	41
531.903	1	35
532.073	1	34
532.243	1	30
532.413	1	35
532.583	1	34
532.753	1	43
532.923	1	28
533.093	1	44
533.263	1	37
533.433	1	38
533.603	1	35
533.773	1	33
533.943	1	31
534.113	1	42
534.284	1	33
534.454	1	42
534.624	1	47
534.794	1	25
534.964	1	44
535.134	1	45
535.304	1	36
535.474	1	37
535.644	1	34
535.814	1	26
535.984	1	21
536.154	1	20
536.324	1	30
536.494	1	33
536.664	1	38
536.834	1	49
537.004	1	31
537.174	1	51
537.344	1	40
537.514	1	24
537.685	1	37
537.855	1	41
538.025	1	35
538.195	1	31
538.365	1	39
538.535	1	38
538.705	1	30
538.875	1	35
539.045	1	34
539.215	1	35
539.385	1	29
539.555	1	35
539.725	1	33
539.895	1	22
540.065	1	50
540.235	1	49
540.405	1	26
540.575	1	22
540.745	1	34
540.915	1	42
541.085	1	33
541.255	1	24
541.425	1	36
541.595	1	34
541.765	1	35
541.935	1	39
542.105	1	31
542.275	1	45
542.445	1	22
542.615	1	41
542.785	1	41
542.955	1	28
543.125	1	28
543.295	1	30
543.465	1	18
543.635	1	30
543.805	1	39
543.975	1	23
544.145	1	31
544.315	1	33
544.485	1	24
544.655	1	31
544.825	1	27
544.995	1	30
545.165	1	21
545.335	1	29
545.505	1	16
545.675	1	25
545.845	1	36
546.015	1	33
546.185	1	34
546.355	1	43
546.525	1	28
546.695	1	37
546.865	1	26
547.035	1	25
547.205	1	19
547.375	1	34
547.545	1	35
547.715	1	21
547.885	1	35
548.055	1	18
548.225	1	35
548.395	1	25
548.565	1	27
548.735	1	29
548.905	1	19
549.075	1	30
549.245	1	21
549.415	1	10
549.585	1	25
549.755	1	23
549.925	1	18
550.095	1	26
550.265	1	22
550.435	1	23
550.605	1	29
550.775	1	23
550.945	1	33
551.115	1	26
551.285	1	27
551.455	1	19
551.625	1	33
551.795	1	26
551.965	1	21
552.135	1	23
552.305	1	18
552.475	1	13
552.645	1	24
552.815	1	20
552.985	1	16
553.155	1	27
553.325	1	25
553.495	1	14
553.665	1	16
553.835	1	18
554.004	1	35
554.174	1	15
554.344	1	30
554.514	1	27
554.684	1	27
554.854	1	28
555.024	1	16
555.194	1	6
555.364	1	33
555.534	1	31
555.704	1	19
555.874	1	37
556.044	1	19
556.214	1	17
556.384	1	26
556.554	1	34
556.724	1	24
556.894	1	19
557.064	1	23
557.234	1	11
557.404	1	31
557.573	1	32
557.743	1	18
557.913	1	12
558.083	1	24
558.253	1	20
558.423	1	20
558.593	1	26
558.763	1	26
558.933	1	23
559.103	1	21
559.273	1	17
559.443	1	23
559.613	1	18
559.783	1	18
559.953	1	20
560.122	1	34
560.292	1	19
560.462	1	25
560.632	1	31
560.802	1	24
560.972	1	25
561.142	1	23
561.312	1	11
561.482	1	24
561.652	1	20
561.822	1	14
561.992	1	11
562.162	1	19
562.331	1	23
562.501	1	9
562.671	1	19
562.841	1	15
563.011	1	24
563.181	1	13
563.351	1	9
563.521	1	17
563.691	1	12
563.861	1	22
564.031	1	32
564.201	1	28
564.370	1	14
564.540	1	16
564.710	1	15
564.880	1	21
565.050	1	20
565.220	1	16
565.390	1	19
565.560	1	20
565.730	1	13
565.900	1	12
566.069	1	24
566.239	1	21
566.409	1	20
566.579	1	28
566.749	1	14
566.919	1	33
567.089	1	23
567.259	1	17
567.429	1	19
567.599	1	12
567.768	1	22
567.938	1	9
568.108	1	19
568.278	1	13
568.448	1	13
568.618	1	10
568.788	1	23
568.958	1	24
569.128	1	16
569.297	1	6
569.467	1	15
569.637	1	22
569.807	1	16
569.977	1	24
570.147	1	22
570.317	1	11
570.487	1	17
570.656	1	24
570.826	1	9
570.996	1	3
571.166	1	29
571.336	1	16
571.506	1	20
571.676	1	11
571.846	1	22
572.015	1	23
572.185	1	19
572.355	1	21
572.525	1	20
572.695	1	17
572.865	1	7
573.035	1	23
573.205	1	17
573.374	1	0
573.544	1	12
573.714	1	28
573.884	1	25
574.054	1	17
574.224	1	8
574.394	1	9
574.563	1	15
574.733	1	16
574.903	1	12
575.073	1	14
575.243	1	14
575.413	1	23
575.583	1	9
575.752	1	13
575.922	1	21
576.092	1	10
576.262	1	14
576.432	1	25
576.602	1	21
576.772	1	32
576.941	1	19
577.111	1	16
577.281	1	15
577.451	1	14
577.621	1	21
577.791	1	18
577.960	1	8
578.130	1	15
578.300	1	7
578.470	1	24
578.640	1	10
578.810	1	16
578.979	1	17
579.149	1	15
579.319	1	15
579.489	1	21
579.659	1	15
579.829	1	15
579.998	1	16
580.168	1	25
580.338	1	22
580.508	1	19
580.678	1	15
580.848	1	12
581.017	1	12
581.187	1	15
581.357	1	16
581.527	1	22
581.697	1	32
581.867	1	21
582.036	1	18
582.206	1	16
582.376	1	18
582.546	1	8
582.716	1	16
582.885	1	3
583.055	1	15
583.225	1	6
583.395	1	19
583.565	1	15
583.735	1	27
583.904	1	19
584.074	1	20
584.244	1	18
584.414	1	9
584.584	1	16
584.753	1	13
584.923	1	11
585.093	1	16
585.263	1	20
585.433	1	25
585.602	1	12
585.772	1	6
585.942	1	13
586.112	1	23
586.282	1	15
586.451	1	9
586.621	1	10
586.791	1	12
586.961	1	14
587.131	1	24
587.300	1	23
587.470	1	24
587.640	1	20
587.810	1	15
587.980	1	14
588.149	1	16
588.319	1	14
588.489	1	19
588.659	1	15
588.829	1	20
588.998	1	17
589.168	1	23
589.338	1	13
589.508	1	26
589.677	1	4
589.847	1	9
590.017	1	31
590.187	1	8
590.357	1	19
590.526	1	25
590.696	1	19
590.866	1	21
591.036	1	7
591.205	1	29
591.375	1	12
591.545	1	6
591.715	1	23
591.885	1	17
592.054	1	13
592.224	1	21
592.394	1	15
592.564	1	12
592.733	1	15
592.903	1	21
593.073	1	20
593.243	1	22
593.412	1	16
593.582	1	12
593.752	1	8
593.922	1	20
594.091	1	15
594.261	1	10
594.431	1	16
594.601	1	18
594.771	1	17
594.940	1	9
595.110	1	14
595.280	1	30
595.450	1	13
595.619	1	17
595.789	1	9
595.959	1	23
596.129	1	11
596.298	1	19
596.468	1	15
596.638	1	19
596.808	1	17
596.977	1	19
597.147	1	27
597.317	1	11
597.487	1	15
597.656	1	18
597.826	1	20
597.996	1	10
598.166	1	15
598.335	1	14
598.505	1	4
598.675	1	5
598.844	1	8
599.014	1	11
599.184	1	18
599.354	1	6
599.523	1	16
599.693	1	15
599.863	1	18
600.033	1	10
600.202	1	14
600.372	1	10
600.542	1	33
600.712	1	9
600.881	1	17
601.051	1	21
601.221	1	12
601.390	1	11
601.560	1	22
601.730	1	21
601.900	1	18
602.069	1	32
602.239	1	15
602.409	1	17
602.578	1	13
602.748	1	16
602.918	1	29
603.088	1	17
603.257	1	16
603.427	1	13
603.597	1	25
603.767	1	19
603.936	1	27
604.106	1	12
604.276	1	20
604.445	1	27
604.615	1	20
604.785	1	14
604.954	1	11
605.124	1	23
605.294	1	20
605.464	1	20
605.633	1	29
605.803	1	20
605.973	1	13
606.142	1	18
606.312	1	20
606.482	1	27
606.652	1	20
606.821	1	14
606.991	1	10
607.161	1	14
607.330	1	18
607.500	1	19
607.670	1	20
607.839	1	24
608.009	1	29
608.179	1	24
608.348	1	16
608.518	1	15
608.688	1	18
608.858	1	27
609.027	1	14
609.197	1	17
609.367	1	35
609.536	1	31
609.706	1	23
609.876	1	17
610.045	1	15
610.215	1	17
610.385	1	18
610.554	1	18
610.724	1	22
610.894	1	18
611.063	1	19
611.233	1	20
611.403	1	12
611.572	1	20
611.742	1	21
611.912	1	15
612.081	1	16
612.251	1	27
612.421	1	14
612.590	1	24
612.760	1	20
612.930	1	15
613.099	1	9
613.269	1	16
613.439	1	25
613.608	1	25
613.778	1	28
613.948	1	21
614.117	1	20
614.287	1	28
614.457	1	25
614.626	1	23
614.796	1	26
614.966	1	11
615.135	1	9
615.305	1	32
615.475	1	19
615.644	1	25
615.814	1	21
615.984	1	16
616.153	1	19
616.323	1	29
616.493	1	23
616.662	1	29
616.832	1	17
617.002	1	20
617.171	1	22
617.341	1	23
617.511	1	16
617.680	1	23
617.850	1	16
618.019	1	27
618.189	1	31
618.359	1	29
618.528	1	20
618.698	1	23
618.868	1	16
619.037	1	21
619.207	1	9
619.377	1	23
619.546	1	15
619.716	1	27
619.885	1	21
620.055	1	14
620.225	1	23
620.394	1	10
620.564	1	28
620.734	1	34
620.903	1	21
621.073	1	24
621.242	1	36
621.412	1	21
621.582	1	21
621.751	1	22
621.921	1	23
622.091	1	18
622.260	1	20
622.430	1	25
622.599	1	32
622.769	1	23
622.939	1	36
623.108	1	24
623.278	1	5
623.448	1	22
623.617	1	16
623.787	1	32
623.956	1	26
624.126	1	25
624.296	1	26
624.465	1	26
624.635	1	36
624.804	1	34
624.974	1	23
625.144	1	29
625.313	1	30
625.483	1	17
625.652	1	32
625.822	1	15
625.992	1	17
626.161	1	23
626.331	1	22
626.501	1	26
626.670	1	19
626.840	1	21
627.009	1	21
627.179	1	34
627.348	1	33
627.518	1	31
627.688	1	27
627.857	1	30
628.027	1	24
628.196	1	24
628.366	1	28
628.536	1	16
628.705	1	31
628.875	1	23
629.044	1	26
629.214	1	37
629.384	1	19
629.553	1	36
629.723	1	30
629.892	1	29
630.062	1	23
630.232	1	21
630.401	1	31
630.571	1	19
630.740	1	21
630.910	1	28
631.079	1	23
631.249	1	27
631.419	1	34
631.588	1	21
631.758	1	33
631.927	1	20
632.097	1	27
632.266	1	18
632.436	1	35
632.606	1	20
632.775	1	30
632.945	1	38
633.114	1	29
633.284	1	36
633.453	1	29
633.623	1	23
633.793	1	24
633.962	1	35
634.132	1	28
634.301	1	31
634.471	1	33
634.640	1	21
634.810	1	36
634.979	1	28
635.149	1	36
635.319	1	36
635.488	1	27
635.658	1	37
635.827	1	28
635.997	1	27
636.166	1	34
636.336	1	32
636.505	1	30
636.675	1	26
636.845	1	48
637.014	1	29
637.184	1	31
637.353	1	40
637.523	1	36
637.692	1	31
637.862	1	41
638.031	1	38
638.201	1	38
638.370	1	34
638.540	1	41
638.710	1	30
638.879	1	26
639.049	1	33
639.218	1	39
639.388	1	30
639.557	1	34
639.727	1	28
639.896	1	38
640.066	1	34
640.235	1	27
640.405	1	38
640.574	1	37
640.744	1	30
640.914	1	40
641.083	1	31
641.253	1	32
641.422	1	34
641.592	1	42
641.761	1	40
641.931	1	42
642.100	1	51
642.270	1	44
642.439	1	40
642.609	1	35
642.778	1	37
642.948	1	39
643.117	1	36
643.287	1	31
643.456	1	29
643.626	1	39
643.795	1	36
643.965	1	40
644.134	1	32
644.304	1	39
644.473	1	46
644.643	1	50
644.812	1	38
644.982	1	32
645.151	1	33
645.321	1	30
645.490	1	35
645.660	1	40
645.829	1	35
645.999	1	50
646.168	1	49
646.338	1	43
646.507	1	36
646.677	1	44
646.846	1	42
647.016	1	22
647.185	1	40
647.355	1	28
647.524	1	46
647.694	1	47
647.863	1	42
648.033	1	35
648.202	1	50
648.372	1	34
648.541	1	36
648.711	1	29
648.880	1	42
649.050	1	44
649.219	1	35
649.389	1	44
649.558	1	48
649.728	1	42
649.897	1	31
650.067	1	43
650.236	1	44
650.406	1	38
650.575	1	46
650.745	1	49
650.914	1	32
651.084	1	33
651.253	1	38
651.423	1	50
651.592	1	37
651.762	1	31
651.931	1	50
652.101	1	42
652.270	1	48
652.440	1	47
652.609	1	39
652.778	1	37
652.948	1	36
653.117	1	40
653.287	1	35
653.456	1	44
653.626	1	43
653.795	1	34
653.965	1	42
654.134	1	50
654.304	1	29
654.473	1	54
654.643	1	47
654.812	1	46
654.982	1	31
655.151	1	35
655.320	1	38
655.490	1	37
655.659	1	38
655.829	1	33
655.998	1	40
656.168	1	47
656.337	1	46
656.507	1	45
656.676	1	54
656.846	1	45
657.015	1	51
657.184	1	47
657.354	1	47
657.523	1	60
657.693	1	52
657.862	1	51
658.032	1	44
658.201	1	43
658.371	1	53
658.540	1	42
658.709	1	33
658.879	1	52
659.048	1	43
659.218	1	46
659.387	1	48
659.557	1	46
659.726	1	50
659.895	1	43
660.065	1	41
660.234	1	42
660.404	1	53
660.573	1	39
660.743	1	48
660.912	1	49
661.081	1	53
661.251	1	45
661.420	1	50
661.590	1	45
661.759	1	44
661.929	1	56
662.098	1	51
662.267	1	49
662.437	1	47
662.606	1	48
662.776	1	52
662.945	1	48
663.115	1	52
663.284	1	47
663.453	1	51
663.623	1	44
663.792	1	48
663.962	1	40
664.131	1	49
664.300	1	47
664.470	1	41
664.639	1	46
664.809	1	44
664.978	1	40
665.148	1	50
665.317	1	40
665.486	1	56
665.656	1	47
665.825	1	61
665.995	1	43
666.164	1	45
666.333	1	39
666.503	1	43
666.672	1	45
666.842	1	44
667.011	1	40
667.180	1	57
667.350	1	52
667.519	1	52
667.689	1	50
667.858	1	46
668.027	1	48
668.197	1	40
668.366	1	35
668.536	1	55
668.705	1	49
668.874	1	47
669.044	1	36
669.213	1	58
669.382	1	37
669.552	1	64
669.721	1	58
669.891	1	46
670.060	1	58
670.229	1	52
670.399	1	44
670.568	1	56
670.738	1	61
670.907	1	43
671.076	1	42
671.246	1	49
671.415	1	48
671.584	1	51
671.754	1	44
671.923	1	50
672.093	1	48
672.262	1	42
672.431	1	49
672.601	1	37
672.770	1	45
672.939	1	51
673.109	1	41
673.278	1	54
673.448	1	54
673.617	1	48
673.786	1	45
