325.333	1	29
325.504	1	20
325.675	1	27
325.846	1	23
326.017	1	26
326.188	1	27
326.359	1	28
326.531	1	21
326.702	1	21
326.873	1	31
327.044	1	25
327.215	1	31
327.386	1	21
327.557	1	21
327.728	1	29
327.899	1	30
328.070	1	39
328.241	1	31
328.412	1	19
328.583	1	30
328.754	1	34
328.926	1	50
329.097	1	27
329.268	1	36
329.439	1	30
329.610	1	34
329.781	1	36
329.952	1	44
330.123	1	33
330.294	1	31
330.465	1	27
330.636	1	46
330.807	1	32
330.978	1	29
331.149	1	25
331.320	1	39
331.492	1	34
331.663	1	29
331.834	1	42
332.005	1	38
332.176	1	44
332.347	1	41
332.518	1	28
332.689	1	46
332.860	1	27
333.031	1	42
333.202	1	32
333.373	1	47
333.544	1	40
333.715	1	48
333.886	1	31
334.057	1	29
334.228	1	26
334.399	1	43
334.570	1	48
334.741	1	37
334.912	1	51
335.084	1	50
335.255	1	39
335.426	1	46
335.597	1	44
335.768	1	47
335.939	1	50
336.110	1	37
336.281	1	33
336.452	1	37
336.623	1	42
336.794	1	44
336.965	1	40
337.136	1	48
337.307	1	41
337.478	1	51
337.649	1	53
337.820	1	38
337.991	1	48
338.162	1	57
338.333	1	53
338.504	1	58
338.675	1	52
338.846	1	54
339.017	1	43
339.188	1	41
339.359	1	46
339.530	1	48
339.701	1	53
339.872	1	53
340.043	1	58
340.214	1	42
340.385	1	57
340.556	1	41
340.727	1	64
340.898	1	64
341.069	1	45
341.240	1	58
341.411	1	51
341.582	1	58
341.753	1	54
341.924	1	53
342.095	1	57
342.266	1	61
342.437	1	68
342.608	1	56
342.779	1	67
342.950	1	59
343.121	1	61
343.292	1	64
343.463	1	55
343.634	1	65
343.805	1	56
343.976	1	61
344.147	1	62
344.318	1	63
344.489	1	59
344.660	1	79
344.831	1	66
345.002	1	61
345.173	1	66
345.344	1	65
345.515	1	67
345.686	1	62
345.857	1	77
346.028	1	61
346.199	1	63
346.370	1	67
346.541	1	70
346.712	1	61
346.883	1	64
347.054	1	55
347.225	1	60
347.396	1	79
347.567	1	65
347.738	1	52
347.909	1	74
348.080	1	65
348.251	1	78
348.422	1	82
348.593	1	71
348.764	1	69
348.935	1	82
349.106	1	69
349.277	1	76
349.448	1	81
349.619	1	86
349.790	1	77
349.961	1	77
350.132	1	83
350.303	1	84
350.474	1	83
350.645	1	81
350.816	1	80
350.987	1	86
351.157	1	66
351.328	1	89
351.499	1	92
351.670	1	84
351.841	1	69
352.012	1	96
352.183	1	92
352.354	1	82
352.525	1	94
352.696	1	82
352.867	1	81
353.038	1	85
353.209	1	88
353.380	1	87
353.551	1	88
353.722	1	82
353.893	1	92
354.064	1	98
354.235	1	83
354.406	1	86
354.576	1	86
354.747	1	95
354.918	1	88
355.089	1	88
355.260	1	84
355.431	1	83
355.602	1	86
355.773	1	90
355.944	1	85
356.115	1	88
356.286	1	100
356.457	1	98
356.628	1	93
356.799	1	101
356.970	1	110
357.141	1	81
357.311	1	91
357.482	1	92
357.653	1	102
357.824	1	103
357.995	1	98
358.166	1	84
358.337	1	104
358.508	1	108
358.679	1	86
358.850	1	105
359.021	1	93
359.192	1	102
359.363	1	91
359.533	1	95
359.704	1	101
359.875	1	112
360.046	1	97
360.217	1	85
360.388	1	98
360.559	1	95
360.730	1	108
360.901	1	102
361.072	1	110
361.243	1	102
361.414	1	98
361.584	1	98
361.755	1	107
361.926	1	109
362.097	1	103
362.268	1	109
362.439	1	101
362.610	1	110
362.781	1	98
362.952	1	108
363.123	1	101
363.293	1	98
363.464	1	104
363.635	1	110
363.806	1	106
363.977	1	102
364.148	1	97
364.319	1	105
364.490	1	104
364.661	1	107
364.832	1	106
365.002	1	119
365.173	1	99
365.344	1	105
365.515	1	95
365.686	1	96
365.857	1	114
366.028	1	121
366.199	1	107
366.370	1	104
366.540	1	109
366.711	1	96
366.882	1	111
367.053	1	110
367.224	1	119
367.395	1	110
367.566	1	119
367.737	1	119
367.908	1	114
368.078	1	108
368.249	1	112
368.420	1	104
368.591	1	109
368.762	1	113
368.933	1	117
369.104	1	103
369.274	1	121
369.445	1	112
369.616	1	117
369.787	1	111
369.958	1	120
370.129	1	109
370.300	1	123
370.471	1	115
370.641	1	113
370.812	1	122
370.983	1	117
371.154	1	105
371.325	1	128
371.496	1	111
371.667	1	114
371.837	1	102
372.008	1	118
372.179	1	107
372.350	1	128
372.521	1	123
372.692	1	112
372.863	1	120
373.033	1	104
373.204	1	110
373.375	1	119
373.546	1	124
373.717	1	117
373.888	1	127
374.059	1	116
374.229	1	128
374.400	1	118
374.571	1	117
374.742	1	128
374.913	1	121
375.084	1	117
375.254	1	116
375.425	1	117
375.596	1	122
375.767	1	120
375.938	1	119
376.109	1	124
376.279	1	106
376.450	1	126
376.621	1	122
376.792	1	126
376.963	1	128
377.134	1	124
377.304	1	129
377.475	1	118
377.646	1	130
377.817	1	118
377.988	1	124
378.159	1	127
378.329	1	137
378.500	1	126
378.671	1	116
378.842	1	112
379.013	1	133
379.184	1	127
379.354	1	148
379.525	1	134
379.696	1	141
379.867	1	141
380.038	1	139
380.209	1	124
380.379	1	126
380.550	1	134
380.721	1	148
380.892	1	138
381.063	1	137
381.233	1	136
381.404	1	133
381.575	1	141
381.746	1	148
381.917	1	131
382.087	1	154
382.258	1	130
382.429	1	136
382.600	1	143
382.771	1	137
382.941	1	128
383.112	1	139
383.283	1	129
383.454	1	139
383.625	1	142
383.795	1	154
383.966	1	142
384.137	1	143
384.308	1	142
384.479	1	153
384.649	1	145
384.820	1	133
384.991	1	141
385.162	1	148
385.333	1	134
385.503	1	147
385.674	1	133
385.845	1	157
386.016	1	139
386.187	1	139
386.357	1	153
386.528	1	148
386.699	1	147
386.870	1	161
387.041	1	151
387.211	1	154
387.382	1	159
387.553	1	155
387.724	1	144
387.894	1	159
388.065	1	146
388.236	1	151
388.407	1	140
388.578	1	168
388.748	1	147
388.919	1	158
389.090	1	150
389.261	1	156
389.431	1	150
389.602	1	154
389.773	1	172
389.944	1	155
390.114	1	140
390.285	1	152
390.456	1	157
390.627	1	151
390.798	1	155
390.968	1	153
391.139	1	171
391.310	1	170
391.481	1	156
391.651	1	160
391.822	1	147
391.993	1	161
392.164	1	154
392.334	1	150
392.505	1	153
392.676	1	166
392.847	1	162
393.017	1	163
393.188	1	170
393.359	1	148
393.530	1	151
393.700	1	151
393.871	1	151
394.042	1	163
394.213	1	157
394.383	1	172
394.554	1	164
394.725	1	163
394.896	1	154
395.066	1	155
395.237	1	169
395.408	1	170
395.579	1	153
395.749	1	159
395.920	1	162
396.091	1	185
396.262	1	183
396.432	1	171
396.603	1	176
396.774	1	168
396.945	1	169
397.115	1	170
397.286	1	172
397.457	1	181
397.627	1	164
397.798	1	188
397.969	1	169
398.140	1	167
398.310	1	171
398.481	1	190
398.652	1	174
398.823	1	161
398.993	1	173
399.164	1	179
399.335	1	188
399.505	1	162
399.676	1	177
399.847	1	173
400.018	1	174
400.188	1	174
400.359	1	180
400.530	1	169
400.700	1	174
400.871	1	183
401.042	1	161
401.213	1	162
401.383	1	169
401.554	1	177
401.725	1	181
401.895	1	168
402.066	1	159
402.237	1	180
402.408	1	160
402.578	1	188
402.749	1	163
402.920	1	163
403.090	1	176
403.261	1	168
403.432	1	163
403.603	1	186
403.773	1	177
403.944	1	189
404.115	1	177
404.285	1	166
404.456	1	158
404.627	1	161
404.797	1	161
404.968	1	180
405.139	1	165
405.310	1	189
405.480	1	170
405.651	1	171
405.822	1	176
405.992	1	166
406.163	1	179
406.334	1	168
406.504	1	164
406.675	1	188
406.846	1	180
407.016	1	185
407.187	1	181
407.358	1	176
407.528	1	160
407.699	1	172
407.870	1	166
408.041	1	177
408.211	1	185
408.382	1	181
408.553	1	174
408.723	1	190
408.894	1	172
409.065	1	180
409.235	1	178
409.406	1	182
409.577	1	185
409.747	1	180
409.918	1	182
410.089	1	191
410.259	1	189
410.430	1	180
410.601	1	185
410.771	1	173
410.942	1	180
411.113	1	169
411.283	1	182
411.454	1	183
411.625	1	177
411.795	1	188
411.966	1	182
412.137	1	183
412.307	1	162
412.478	1	177
412.649	1	179
412.819	1	186
412.990	1	186
413.161	1	180
413.331	1	145
413.502	1	166
413.672	1	182
413.843	1	183
414.014	1	185
414.184	1	187
414.355	1	186
414.526	1	176
414.696	1	175
414.867	1	173
415.038	1	168
415.208	1	167
415.379	1	170
415.550	1	169
415.720	1	160
415.891	1	166
416.062	1	175
416.232	1	171
416.403	1	179
416.573	1	173
416.744	1	166
416.915	1	176
417.085	1	161
417.256	1	171
417.427	1	164
417.597	1	177
417.768	1	161
417.939	1	170
418.109	1	175
418.280	1	176
418.450	1	171
418.621	1	158
418.792	1	162
418.962	1	181
419.133	1	171
419.304	1	172
419.474	1	158
419.645	1	177
419.815	1	154
419.986	1	169
420.157	1	162
420.327	1	185
420.498	1	183
420.669	1	159
420.839	1	187
421.010	1	175
421.180	1	178
421.351	1	163
421.522	1	173
421.692	1	183
421.863	1	177
422.033	1	171
422.204	1	181
422.375	1	169
422.545	1	161
422.716	1	152
422.886	1	148
423.057	1	174
423.228	1	162
423.398	1	169
423.569	1	168
423.740	1	147
423.910	1	154
424.081	1	154
424.251	1	155
424.422	1	171
424.593	1	150
424.763	1	170
424.934	1	167
425.104	1	149
425.275	1	180
425.445	1	160
425.616	1	145
425.787	1	158
425.957	1	164
426.128	1	158
426.298	1	158
426.469	1	152
426.640	1	160
426.810	1	166
426.981	1	140
427.151	1	161
427.322	1	155
427.493	1	152
427.663	1	152
427.834	1	146
428.004	1	157
428.175	1	155
428.345	1	144
428.516	1	140
428.687	1	148
428.857	1	150
429.028	1	149
429.198	1	154
429.369	1	149
429.540	1	152
429.710	1	164
429.881	1	160
430.051	1	147
430.222	1	138
430.392	1	150
430.563	1	165
430.734	1	152
430.904	1	149
431.075	1	154
431.245	1	151
431.416	1	163
431.586	1	145
431.757	1	150
431.927	1	147
432.098	1	150
432.269	1	156
432.439	1	155
432.610	1	143
432.780	1	149
432.951	1	148
433.121	1	150
433.292	1	153
433.462	1	157
433.633	1	162
433.804	1	149
433.974	1	146
434.145	1	168
434.315	1	140
434.486	1	149
434.656	1	152
434.827	1	144
434.997	1	145
435.168	1	156
435.339	1	140
435.509	1	163
435.680	1	151
435.850	1	139
436.021	1	151
436.191	1	150
436.362	1	154
436.532	1	140
436.703	1	138
436.873	1	156
437.044	1	137
437.214	1	142
437.385	1	131
437.556	1	141
437.726	1	147
437.897	1	146
438.067	1	148
438.238	1	148
438.408	1	146
438.579	1	129
438.749	1	132
438.920	1	137
439.090	1	133
439.261	1	132
439.431	1	120
439.602	1	139
439.772	1	136
439.943	1	152
440.113	1	136
440.284	1	137
440.455	1	135
440.625	1	138
440.796	1	135
440.966	1	116
441.137	1	119
441.307	1	119
441.478	1	138
441.648	1	138
441.819	1	129
441.989	1	132
442.160	1	137
442.330	1	131
442.501	1	123
442.671	1	127
442.842	1	116
443.012	1	127
443.183	1	139
443.353	1	125
443.524	1	141
443.694	1	146
443.865	1	124
444.035	1	123
444.206	1	113
444.376	1	120
444.547	1	137
444.717	1	140
444.888	1	122
445.058	1	141
445.229	1	125
445.399	1	118
445.570	1	122
445.740	1	123
445.911	1	124
446.081	1	117
446.252	1	123
446.422	1	117
446.593	1	113
446.763	1	128
446.934	1	117
447.104	1	129
447.275	1	130
447.445	1	108
447.616	1	136
447.786	1	130
447.957	1	130
448.127	1	118
448.298	1	132
448.468	1	128
448.639	1	122
448.809	1	127
448.979	1	114
449.150	1	132
449.320	1	117
449.491	1	124
449.661	1	121
449.832	1	123
450.002	1	140
450.173	1	107
450.343	1	129
450.514	1	128
450.684	1	117
450.855	1	112
451.025	1	113
451.196	1	119
451.366	1	123
451.537	1	109
451.707	1	96
451.878	1	105
452.048	1	128
452.218	1	116
452.389	1	119
452.559	1	107
452.730	1	115
452.900	1	121
453.071	1	99
453.241	1	114
453.412	1	116
453.582	1	110
453.753	1	114
453.923	1	124
454.093	1	112
454.264	1	114
454.434	1	110
454.605	1	105
454.775	1	123
454.946	1	115
455.116	1	111
455.287	1	98
455.457	1	94
455.628	1	102
455.798	1	105
455.968	1	109
456.139	1	90
456.309	1	113
456.480	1	111
456.650	1	94
456.821	1	106
456.991	1	105
457.161	1	105
457.332	1	113
457.502	1	90
457.673	1	101
457.843	1	106
458.014	1	102
458.184	1	96
458.355	1	104
458.525	1	104
458.695	1	103
458.866	1	98
459.036	1	98
459.207	1	105
459.377	1	92
459.548	1	101
459.718	1	100
459.888	1	104
460.059	1	102
460.229	1	104
460.400	1	101
460.570	1	104
460.740	1	104
460.911	1	98
461.081	1	103
461.252	1	87
461.422	1	95
461.593	1	101
461.763	1	103
461.933	1	109
462.104	1	89
462.274	1	108
462.445	1	104
462.615	1	102
462.785	1	91
462.956	1	104
463.126	1	92
463.297	1	89
463.467	1	91
463.638	1	95
463.808	1	88
463.978	1	78
464.149	1	93
464.319	1	91
464.490	1	106
464.660	1	87
464.830	1	90
465.001	1	105
465.171	1	84
465.342	1	96
465.512	1	101
465.682	1	91
465.853	1	89
466.023	1	91
466.194	1	77
466.364	1	89
466.534	1	96
466.705	1	84
466.875	1	76
467.045	1	87
467.216	1	95
467.386	1	89
467.557	1	87
467.727	1	82
467.897	1	78
468.068	1	77
468.238	1	81
468.409	1	78
468.579	1	96
468.749	1	86
468.920	1	81
469.090	1	79
469.260	1	86
469.431	1	83
469.601	1	90
469.772	1	83
469.942	1	75
470.112	1	89
470.283	1	79
470.453	1	78
470.623	1	81
470.794	1	80
470.964	1	81
471.135	1	74
471.305	1	73
471.475	1	89
471.646	1	80
471.816	1	73
471.986	1	84
472.157	1	79
472.327	1	61
472.497	1	79
472.668	1	74
472.838	1	86
473.009	1	74
473.179	1	79
473.349	1	77
473.520	1	88
473.690	1	81
473.860	1	79
474.031	1	91
474.201	1	77
474.371	1	85
474.542	1	94
474.712	1	67
474.882	1	83
475.053	1	87
475.223	1	79
475.394	1	81
475.564	1	81
475.734	1	73
475.905	1	94
476.075	1	72
476.245	1	83
476.416	1	78
476.586	1	84
476.756	1	69
476.927	1	82
477.097	1	69
477.267	1	69
477.438	1	72
477.608	1	80
477.778	1	70
477.949	1	77
478.119	1	80
478.289	1	74
478.460	1	82
478.630	1	72
478.800	1	67
478.971	1	85
479.141	1	72
479.311	1	74
479.482	1	72
479.652	1	66
479.822	1	60
479.993	1	68
480.163	1	72
480.333	1	67
480.504	1	83
480.674	1	71
480.844	1	66
481.015	1	72
481.185	1	66
481.355	1	72
481.525	1	59
481.696	1	74
481.866	1	63
482.036	1	74
482.207	1	72
482.377	1	68
482.547	1	77
482.718	1	65
482.888	1	76
483.058	1	66
483.229	1	62
483.399	1	67
483.569	1	70
483.740	1	69
483.910	1	70
484.080	1	72
484.250	1	66
484.421	1	59
484.591	1	69
484.761	1	75
484.932	1	72
485.102	1	70
485.272	1	71
485.443	1	67
485.613	1	69
485.783	1	58
485.953	1	63
486.124	1	74
486.294	1	61
486.464	1	76
486.635	1	63
486.805	1	64
486.975	1	49
487.146	1	72
487.316	1	60
487.486	1	64
487.656	1	53
487.827	1	59
487.997	1	54
488.167	1	66
488.338	1	63
488.508	1	59
488.678	1	52
488.848	1	65
489.019	1	47
489.189	1	56
489.359	1	65
489.529	1	57
489.700	1	66
489.870	1	64
490.040	1	51
490.211	1	39
490.381	1	62
490.551	1	61
490.721	1	71
490.892	1	56
491.062	1	49
491.232	1	62
491.402	1	54
491.573	1	46
491.743	1	52
491.913	1	49
492.084	1	69
492.254	1	53
492.424	1	55
492.594	1	61
492.765	1	56
492.935	1	53
493.105	1	66
493.275	1	55
493.446	1	64
493.616	1	56
493.786	1	55
493.956	1	44
494.127	1	55
494.297	1	48
494.467	1	52
494.637	1	54
494.808	1	55
494.978	1	47
495.148	1	49
495.318	1	43
495.489	1	63
495.659	1	52
495.829	1	53
495.999	1	42
496.170	1	55
496.340	1	51
496.510	1	52
496.680	1	42
496.851	1	51
497.021	1	50
497.191	1	49
497.361	1	51
497.532	1	39
497.702	1	49
497.872	1	45
498.042	1	54
498.213	1	47
498.383	1	47
498.553	1	44
498.723	1	46
498.894	1	56
499.064	1	55
499.234	1	53
499.404	1	44
499.574	1	50
499.745	1	60
499.915	1	37
500.085	1	47
500.255	1	46
500.426	1	56
500.596	1	35
500.766	1	51
500.936	1	42
501.106	1	42
501.277	1	50
501.447	1	39
501.617	1	52
501.787	1	43
501.958	1	42
502.128	1	46
502.298	1	51
502.468	1	47
502.638	1	43
502.809	1	49
502.979	1	40
503.149	1	43
503.319	1	34
503.489	1	46
503.660	1	42
503.830	1	48
504.000	1	63
504.170	1	38
504.340	1	42
504.511	1	45
504.681	1	42
504.851	1	50
505.021	1	45
505.192	1	42
505.362	1	40
505.532	1	39
505.702	1	44
505.872	1	55
506.043	1	45
506.213	1	42
506.383	1	41
506.553	1	54
506.723	1	43
506.893	1	43
507.064	1	52
507.234	1	42
507.404	1	45
507.574	1	45
507.744	1	39
507.915	1	41
508.085	1	43
508.255	1	49
508.425	1	44
508.595	1	59
508.766	1	47
508.936	1	38
509.106	1	51
509.276	1	47
509.446	1	35
509.616	1	45
509.787	1	32
509.957	1	46
510.127	1	37
510.297	1	42
510.467	1	36
510.638	1	46
510.808	1	28
510.978	1	37
511.148	1	37
511.318	1	38
511.488	1	27
511.659	1	36
511.829	1	23
511.999	1	39
512.169	1	34
512.339	1	39
512.509	1	31
512.680	1	31
512.850	1	35
513.020	1	43
513.190	1	46
513.360	1	31
513.530	1	38
513.700	1	47
513.871	1	32
514.041	1	39
514.211	1	44
514.381	1	40
514.551	1	39
514.721	1	29
514.892	1	38
515.062	1	35
515.232	1	48
515.402	1	40
515.572	1	31
515.742	1	43
515.912	1	50
516.083	1	39
516.253	1	35
516.423	1	24
516.593	1	36
516.763	1	42
516.933	1	25
517.104	1	35
517.274	1	40
517.444	1	39
517.614	1	32
517.784	1	35
517.954	1	44
518.124	1	37
518.294	1	39
518.465	1	41
518.635	1	33
518.805	1	20
518.975	1	36
519.145	1	27
519.315	1	25
519.485	1	34
519.656	1	43
519.826	1	31
519.996	1	25
520.166	1	35
520.336	1	44
520.506	1	37
520.676	1	25
520.846	1	37
521.017	1	33
521.187	1	31
521.357	1	38
521.527	1	26
521.697	1	25
521.867	1	33
522.037	1	49
522.207	1	28
522.377	1	32
522.548	1	30
522.718	1	40
522.888	1	35
523.058	1	41
523.228	1	26
523.398	1	34
523.568	1	29
523.738	1	29
523.909	1	43
524.079	1	33
524.249	1	22
524.419	1	33
524.589	1	25
524.759	1	23
524.929	1	24
525.099	1	33
525.269	1	27
525.439	1	17
525.610	1	44
525.780	1	22
525.950	1	26
526.120	1	37
526.290	1	32
526.460	1	19
526.630	1	33
526.800	1	28
526.970	1	25
527.140	1	37
527.311	1	21
527.481	1	16
527.651	1	37
527.821	1	21
527.991	1	32
528.161	1	42
528.331	1	16
528.501	1	27
528.671	1	25
528.841	1	29
529.011	1	14
529.181	1	30
529.352	1	19
529.522	1	25
529.692	1	18
529.862	1	25
530.032	1	35
530.202	1	16
530.372	1	17
530.542	1	26
530.712	1	29
530.882	1	33
531.052	1	26
531.222	1	22
531.392	1	26
531.563	1	28
531.733	1	19
531.903	1	13
532.073	1	32
532.243	1	23
532.413	1	35
532.583	1	21
532.753	1	21
532.923	1	25
533.093	1	12
533.263	1	13
533.433	1	28
533.603	1	27
533.773	1	16
533.943	1	18
534.113	1	18
534.284	1	31
534.454	1	27
534.624	1	34
534.794	1	24
534.964	1	22
535.134	1	22
535.304	1	28
535.474	1	30
535.644	1	12
535.814	1	10
535.984	1	13
536.154	1	9
536.324	1	20
536.494	1	23
536.664	1	25
536.834	1	27
537.004	1	5
537.174	1	25
537.344	1	29
537.514	1	17
537.685	1	19
537.855	1	35
538.025	1	19
538.195	1	20
538.365	1	41
538.535	1	19
538.705	1	11
538.875	1	23
539.045	1	21
539.215	1	27
539.385	1	27
539.555	1	32
539.725	1	20
539.895	1	13
540.065	1	27
540.235	1	34
540.405	1	12
540.575	1	17
540.745	1	17
540.915	1	22
541.085	1	17
541.255	1	22
541.425	1	29
541.595	1	30
541.765	1	24
541.935	1	13
542.105	1	15
542.275	1	16
542.445	1	18
542.615	1	20
542.785	1	28
542.955	1	18
543.125	1	9
543.295	1	21
543.465	1	24
543.635	1	26
543.805	1	36
543.975	1	9
544.145	1	21
544.315	1	16
544.485	1	25
544.655	1	17
544.825	1	10
544.995	1	20
545.165	1	20
545.335	1	15
545.505	1	13
545.675	1	18
545.845	1	18
546.015	1	26
546.185	1	30
546.355	1	23
546.525	1	21
546.695	1	21
546.865	1	10
547.035	1	26
547.205	1	11
547.375	1	22
547.545	1	26
547.715	1	17
547.885	1	12
548.055	1	21
548.225	1	25
548.395	1	10
548.565	1	12
548.735	1	16
548.905	1	17
549.075	1	17
549.245	1	19
549.415	1	5
549.585	1	19
549.755	1	11
549.925	1	3
550.095	1	27
550.265	1	9
550.435	1	10
550.605	1	2
550.775	1	17
550.945	1	20
551.115	1	15
551.285	1	21
551.455	1	15
551.625	1	30
551.795	1	21
551.965	1	8
552.135	1	12
552.305	1	18
552.475	1	8
552.645	1	4
552.815	1	17
552.985	1	18
553.155	1	26
553.325	1	18
553.495	1	23
553.665	1	18
553.835	1	8
554.004	1	13
554.174	1	21
554.344	1	21
554.514	1	14
554.684	1	15
554.854	1	22
555.024	1	9
555.194	1	11
555.364	1	18
555.534	1	18
555.704	1	7
555.874	1	23
556.044	1	19
556.214	1	7
556.384	1	6
556.554	1	24
556.724	1	11
556.894	1	17
557.064	1	11
557.234	1	6
557.404	1	17
557.573	1	10
557.743	1	28
557.913	1	10
558.083	1	12
558.253	1	16
558.423	1	13
558.593	1	18
558.763	1	1
558.933	1	12
559.103	1	18
559.273	1	13
559.443	1	20
559.613	1	10
559.783	1	18
559.953	1	15
560.122	1	18
560.292	1	9
560.462	1	11
560.632	1	11
560.802	1	3
560.972	1	11
561.142	1	14
561.312	1	7
561.482	1	13
561.652	1	17
561.822	1	9
561.992	1	16
562.162	1	14
562.331	1	15
562.501	1	9
562.671	1	24
562.841	1	17
563.011	1	19
563.181	1	9
563.351	1	5
563.521	1	17
563.691	1	11
563.861	1	15
564.031	1	11
564.201	1	20
564.370	1	12
564.540	1	23
564.710	1	12
564.880	1	12
565.050	1	18
565.220	1	9
565.390	1	19
565.560	1	9
565.730	1	5
565.900	1	13
566.069	1	11
566.239	1	13
566.409	1	20
566.579	1	17
566.749	1	10
566.919	1	26
567.089	1	12
567.259	1	23
567.429	1	12
567.599	1	11
567.768	1	15
567.938	1	4
568.108	1	10
568.278	1	9
568.448	1	5
568.618	1	2
568.788	1	13
568.958	1	11
569.128	1	20
569.297	1	14
569.467	1	4
569.637	1	26
569.807	1	7
569.977	1	19
570.147	1	13
570.317	1	10
570.487	1	18
570.656	1	15
570.826	1	8
570.996	1	-1
571.166	1	25
571.336	1	12
571.506	1	12
571.676	1	10
571.846	1	18
572.015	1	14
572.185	1	13
572.355	1	14
572.525	1	2
572.695	1	13
572.865	1	5
573.035	1	16
573.205	1	15
573.374	1	-3
573.544	1	12
573.714	1	13
573.884	1	17
574.054	1	12
574.224	1	16
574.394	1	9
574.563	1	5
574.733	1	11
574.903	1	-2
575.073	1	4
575.243	1	0
575.413	1	18
575.583	1	7
575.752	1	14
575.922	1	18
576.092	1	14
576.262	1	9
576.432	1	10
576.602	1	13
576.772	1	20
576.941	1	19
577.111	1	7
577.281	1	12
577.451	1	4
577.621	1	19
577.791	1	9
577.960	1	11
578.130	1	8
578.300	1	20
578.470	1	18
578.640	1	10
578.810	1	5
578.979	1	12
579.149	1	12
579.319	1	8
579.489	1	13
579.659	1	12
579.829	1	8
579.998	1	17
580.168	1	16
580.338	1	16
580.508	1	12
580.678	1	19
580.848	1	8
581.017	1	10
581.187	1	10
581.357	1	5
581.527	1	12
581.697	1	16
581.867	1	13
582.036	1	7
582.206	1	16
582.376	1	18
582.546	1	5
582.716	1	0
582.885	1	8
583.055	1	4
583.225	1	5
583.395	1	13
583.565	1	5
583.735	1	16
583.904	1	14
584.074	1	22
584.244	1	9
584.414	1	8
584.584	1	16
584.753	1	6
584.923	1	12
585.093	1	10
585.263	1	12
585.433	1	18
585.602	1	5
585.772	1	7
585.942	1	17
586.112	1	7
586.282	1	15
586.451	1	16
586.621	1	4
586.791	1	19
586.961	1	11
587.131	1	10
587.300	1	5
587.470	1	15
587.640	1	25
587.810	1	8
587.980	1	-2
588.149	1	15
588.319	1	9
588.489	1	11
588.659	1	13
588.829	1	6
588.998	1	15
589.168	1	11
589.338	1	11
589.508	1	12
589.677	1	8
589.847	1	6
590.017	1	29
590.187	1	7
590.357	1	19
590.526	1	21
590.696	1	7
590.866	1	14
591.036	1	6
591.205	1	22
591.375	1	5
591.545	1	11
591.715	1	16
591.885	1	9
592.054	1	17
592.224	1	16
592.394	1	6
592.564	1	13
592.733	1	12
592.903	1	12
593.073	1	13
593.243	1	15
593.412	1	14
593.582	1	19
593.752	1	5
593.922	1	4
594.091	1	11
594.261	1	12
594.431	1	10
594.601	1	7
594.771	1	20
594.940	1	18
595.110	1	4
595.280	1	14
595.450	1	10
595.619	1	9
595.789	1	8
595.959	1	11
596.129	1	14
596.298	1	5
596.468	1	20
596.638	1	16
596.808	1	10
596.977	1	7
597.147	1	8
597.317	1	9
597.487	1	9
597.656	1	11
597.826	1	20
597.996	1	9
598.166	1	19
598.335	1	7
598.505	1	13
598.675	1	9
598.844	1	11
599.014	1	4
599.184	1	8
599.354	1	8
599.523	1	17
599.693	1	5
599.863	1	12
600.033	1	13
600.202	1	15
600.372	1	14
600.542	1	10
600.712	1	8
600.881	1	10
601.051	1	18
601.221	1	14
601.390	1	4
601.560	1	22
601.730	1	13
601.900	1	15
602.069	1	13
602.239	1	5
602.409	1	1
602.578	1	7
602.748	1	17
602.918	1	19
603.088	1	16
603.257	1	10
603.427	1	16
603.597	1	9
603.767	1	9
603.936	1	12
604.106	1	14
604.276	1	6
604.445	1	14
604.615	1	7
604.785	1	11
604.954	1	9
605.124	1	20
605.294	1	17
605.464	1	14
605.633	1	16
605.803	1	11
605.973	1	14
606.142	1	19
606.312	1	14
606.482	1	17
606.652	1	22
606.821	1	5
606.991	1	15
607.161	1	12
607.330	1	16
607.500	1	16
607.670	1	7
607.839	1	9
608.009	1	19
608.179	1	9
608.348	1	17
608.518	1	12
608.688	1	30
608.858	1	15
609.027	1	11
609.197	1	13
609.367	1	27
609.536	1	7
609.706	1	8
609.876	1	5
610.045	1	16
610.215	1	15
610.385	1	10
610.554	1	11
610.724	1	13
610.894	1	14
611.063	1	17
611.233	1	19
611.403	1	7
611.572	1	11
611.742	1	21
611.912	1	13
612.081	1	14
612.251	1	16
612.421	1	14
612.590	1	17
612.760	1	10
612.930	1	10
613.099	1	13
613.269	1	27
613.439	1	10
613.608	1	10
613.778	1	15
613.948	1	12
614.117	1	9
614.287	1	16
614.457	1	15
614.626	1	14
614.796	1	19
614.966	1	12
615.135	1	10
615.305	1	25
615.475	1	9
615.644	1	18
615.814	1	12
615.984	1	9
616.153	1	10
616.323	1	12
616.493	1	6
616.662	1	23
616.832	1	11
617.002	1	12
617.171	1	12
617.341	1	26
617.511	1	5
617.680	1	8
617.850	1	11
618.019	1	27
618.189	1	20
618.359	1	14
618.528	1	14
618.698	1	21
618.868	1	0
619.037	1	14
619.207	1	23
619.377	1	9
619.546	1	13
619.716	1	9
619.885	1	19
620.055	1	7
620.225	1	21
620.394	1	12
620.564	1	27
620.734	1	20
620.903	1	9
621.073	1	18
621.242	1	15
621.412	1	17
621.582	1	7
621.751	1	21
621.921	1	15
622.091	1	11
622.260	1	17
622.430	1	23
622.599	1	12
622.769	1	9
622.939	1	23
623.108	1	18
623.278	1	9
623.448	1	17
623.617	1	19
623.787	1	15
623.956	1	18
624.126	1	11
624.296	1	15
624.465	1	16
624.635	1	26
624.804	1	21
624.974	1	23
625.144	1	25
625.313	1	15
625.483	1	12
625.652	1	7
625.822	1	14
625.992	1	13
626.161	1	22
626.331	1	25
626.501	1	23
626.670	1	11
626.840	1	12
627.009	1	9
627.179	1	22
627.348	1	23
627.518	1	18
627.688	1	21
627.857	1	23
628.027	1	17
628.196	1	17
628.366	1	28
628.536	1	25
628.705	1	15
628.875	1	17
629.044	1	11
629.214	1	27
629.384	1	21
629.553	1	30
629.723	1	15
629.892	1	25
630.062	1	18
630.232	1	16
630.401	1	19
630.571	1	17
630.740	1	21
630.910	1	29
631.079	1	22
631.249	1	27
631.419	1	23
631.588	1	12
631.758	1	17
631.927	1	14
632.097	1	25
632.266	1	19
632.436	1	21
632.606	1	9
632.775	1	26
632.945	1	20
633.114	1	36
633.284	1	24
633.453	1	21
633.623	1	21
633.793	1	25
633.962	1	20
634.132	1	24
634.301	1	27
634.471	1	32
634.640	1	25
634.810	1	26
634.979	1	24
635.149	1	16
635.319	1	13
635.488	1	20
635.658	1	21
635.827	1	6
635.997	1	21
636.166	1	17
636.336	1	18
636.505	1	33
636.675	1	13
636.845	1	22
637.014	1	21
637.184	1	20
637.353	1	23
637.523	1	33
637.692	1	27
637.862	1	30
638.031	1	26
638.201	1	18
638.370	1	18
638.540	1	23
638.710	1	15
638.879	1	13
639.049	1	24
639.218	1	23
639.388	1	18
639.557	1	11
639.727	1	22
639.896	1	30
640.066	1	20
640.235	1	19
640.405	1	24
640.574	1	29
640.744	1	13
640.914	1	25
641.083	1	26
641.253	1	16
641.422	1	15
641.592	1	33
641.761	1	20
641.931	1	25
642.100	1	32
642.270	1	19
642.439	1	28
642.609	1	22
642.778	1	17
642.948	1	17
643.117	1	29
643.287	1	29
643.456	1	17
643.626	1	25
643.795	1	14
643.965	1	25
644.134	1	18
644.304	1	25
644.473	1	23
644.643	1	23
644.812	1	28
644.982	1	22
645.151	1	23
645.321	1	6
645.490	1	36
645.660	1	9
645.829	1	23
645.999	1	13
646.168	1	41
646.338	1	30
646.507	1	32
646.677	1	25
646.846	1	25
647.016	1	23
647.185	1	27
647.355	1	0
647.524	1	37
647.694	1	31
647.863	1	29
648.033	1	25
648.202	1	32
648.372	1	13
648.541	1	24
648.711	1	23
648.880	1	22
649.050	1	24
649.219	1	30
649.389	1	30
649.558	1	29
649.728	1	22
649.897	1	21
650.067	1	15
650.236	1	34
650.406	1	28
650.575	1	30
650.745	1	30
650.914	1	24
651.084	1	16
651.253	1	29
651.423	1	26
651.592	1	28
651.762	1	19
651.931	1	36
652.101	1	33
652.270	1	28
652.440	1	33
652.609	1	32
652.778	1	25
652.948	1	33
653.117	1	21
653.287	1	31
653.456	1	28
653.626	1	26
653.795	1	34
653.965	1	31
654.134	1	32
654.304	1	20
654.473	1	29
654.643	1	27
654.812	1	36
654.982	1	24
655.151	1	23
655.320	1	26
655.490	1	20
655.659	1	27
655.829	1	19
655.998	1	29
656.168	1	25
656.337	1	28
656.507	1	29
656.676	1	35
656.846	1	29
657.015	1	38
657.184	1	34
657.354	1	24
657.523	1	22
657.693	1	31
657.862	1	37
658.032	1	27
658.201	1	31
658.371	1	41
658.540	1	22
658.709	1	28
658.879	1	39
659.048	1	28
659.218	1	36
659.387	1	39
659.557	1	24
659.726	1	38
659.895	1	23
660.065	1	22
660.234	1	30
660.404	1	26
660.573	1	18
660.743	1	25
660.912	1	36
661.081	1	33
661.251	1	27
661.420	1	37
661.590	1	32
661.759	1	31
661.929	1	26
662.098	1	28
662.267	1	25
662.437	1	37
662.606	1	31
662.776	1	32
662.945	1	33
663.115	1	37
663.284	1	37
663.453	1	38
663.623	1	37
663.792	1	34
663.962	1	30
664.131	1	29
664.300	1	39
664.470	1	37
664.639	1	27
664.809	1	37
664.978	1	34
665.148	1	29
665.317	1	37
665.486	1	30
665.656	1	32
665.825	1	44
665.995	1	19
666.164	1	39
666.333	1	25
666.503	1	28
666.672	1	26
666.842	1	25
667.011	1	27
667.180	1	40
667.350	1	21
667.519	1	31
667.689	1	35
667.858	1	30
668.027	1	39
668.197	1	32
668.366	1	25
668.536	1	38
668.705	1	29
668.874	1	42
669.044	1	37
669.213	1	38
669.382	1	28
669.552	1	43
669.721	1	39
669.891	1	52
670.060	1	38
670.229	1	49
670.399	1	29
670.568	1	45
670.738	1	40
670.907	1	33
671.076	1	28
671.246	1	45
671.415	1	37
671.584	1	32
671.754	1	27
671.923	1	33
672.093	1	31
672.262	1	16
672.431	1	39
672.601	1	34
672.770	1	21
672.939	1	44
673.109	1	35
673.278	1	33
673.448	1	42
673.617	1	26
673.786	1	40
