325.333	1	1
325.504	1	2
325.675	1	-1
325.846	1	3
326.017	1	-2
326.188	1	4
326.359	1	-2
326.531	1	-16
326.702	1	10
326.873	1	12
327.044	1	1
327.215	1	3
327.386	1	4
327.557	1	-8
327.728	1	11
327.899	1	-2
328.070	1	8
328.241	1	6
328.412	1	-2
328.583	1	5
328.754	1	5
328.926	1	8
329.097	1	-2
329.268	1	7
329.439	1	-5
329.610	1	3
329.781	1	-2
329.952	1	4
330.123	1	0
330.294	1	7
330.465	1	6
330.636	1	4
330.807	1	-4
330.978	1	-3
331.149	1	-2
331.320	1	-9
331.492	1	-4
331.663	1	0
331.834	1	5
332.005	1	9
332.176	1	13
332.347	1	22
332.518	1	-7
332.689	1	7
332.860	1	-3
333.031	1	8
333.202	1	-13
333.373	1	6
333.544	1	-1
333.715	1	3
333.886	1	-9
334.057	1	6
334.228	1	-5
334.399	1	0
334.570	1	-1
334.741	1	1
334.912	1	9
335.084	1	10
335.255	1	-3
335.426	1	-9
335.597	1	10
335.768	1	-1
335.939	1	15
336.110	1	5
336.281	1	-13
336.452	1	-5
336.623	1	-1
336.794	1	5
336.965	1	1
337.136	1	9
337.307	1	-5
337.478	1	1
337.649	1	3
337.820	1	8
337.991	1	-4
338.162	1	11
338.333	1	0
338.504	1	9
338.675	1	-5
338.846	1	9
339.017	1	-1
339.188	1	-4
339.359	1	-9
339.530	1	3
339.701	1	3
339.872	1	3
340.043	1	-7
340.214	1	1
340.385	1	12
340.556	1	-7
340.727	1	13
340.898	1	7
341.069	1	5
341.240	1	-3
341.411	1	1
341.582	1	-8
341.753	1	-4
341.924	1	-6
342.095	1	1
342.266	1	8
342.437	1	6
342.608	1	-2
342.779	1	2
342.950	1	5
343.121	1	9
343.292	1	-7
343.463	1	5
343.634	1	7
343.805	1	6
343.976	1	10
344.147	1	-6
344.318	1	-1
344.489	1	-3
344.660	1	4
344.831	1	-3
345.002	1	-5
345.173	1	5
345.344	1	1
345.515	1	-2
345.686	1	16
345.857	1	9
346.028	1	-2
346.199	1	-4
346.370	1	-7
346.541	1	2
346.712	1	-7
346.883	1	-3
347.054	1	-8
347.225	1	3
347.396	1	-3
347.567	1	-3
347.738	1	-5
347.909	1	13
348.080	1	0
348.251	1	5
348.422	1	0
348.593	1	-1
348.764	1	2
348.935	1	2
349.106	1	-1
349.277	1	3
349.448	1	3
349.619	1	6
349.790	1	7
349.961	1	-1
350.132	1	2
350.303	1	8
350.474	1	11
350.645	1	11
350.816	1	2
350.987	1	7
351.157	1	-6
351.328	1	10
351.499	1	3
351.670	1	-11
351.841	1	14
352.012	1	9
352.183	1	13
352.354	1	14
352.525	1	12
352.696	1	14
352.867	1	-10
353.038	1	2
353.209	1	12
353.380	1	5
353.551	1	-13
353.722	1	-6
353.893	1	-4
354.064	1	6
354.235	1	2
354.406	1	-2
354.576	1	2
354.747	1	-4
354.918	1	3
355.089	1	0
355.260	1	-4
355.431	1	3
355.602	1	-2
355.773	1	11
355.944	1	8
356.115	1	-1
356.286	1	-5
356.457	1	1
356.628	1	4
356.799	1	-9
356.970	1	11
357.141	1	-1
357.311	1	-5
357.482	1	8
357.653	1	3
357.824	1	16
357.995	1	-2
358.166	1	-2
358.337	1	1
358.508	1	2
358.679	1	1
358.850	1	5
359.021	1	2
359.192	1	1
359.363	1	0
359.533	1	4
359.704	1	8
359.875	1	4
360.046	1	-5
360.217	1	-9
360.388	1	0
360.559	1	-5
360.730	1	13
360.901	1	0
361.072	1	13
361.243	1	7
361.414	1	0
361.584	1	-1
361.755	1	4
361.926	1	-4
362.097	1	1
362.268	1	-1
362.439	1	-7
362.610	1	11
362.781	1	-3
362.952	1	-6
363.123	1	3
363.293	1	3
363.464	1	1
363.635	1	0
363.806	1	3
363.977	1	2
364.148	1	-2
364.319	1	12
364.490	1	5
364.661	1	-8
364.832	1	4
365.002	1	5
365.173	1	10
365.344	1	6
365.515	1	2
365.686	1	3
365.857	1	5
366.028	1	10
366.199	1	-4
366.370	1	0
366.540	1	-10
366.711	1	-10
366.882	1	-8
367.053	1	-10
367.224	1	15
367.395	1	12
367.566	1	5
367.737	1	9
367.908	1	3
368.078	1	6
368.249	1	9
368.420	1	-5
368.591	1	-12
368.762	1	0
368.933	1	-3
369.104	1	-12
369.274	1	2
369.445	1	5
369.616	1	-6
369.787	1	10
369.958	1	4
370.129	1	-6
370.300	1	6
370.471	1	-4
370.641	1	0
370.812	1	3
370.983	1	7
371.154	1	1
371.325	1	10
371.496	1	5
371.667	1	1
371.837	1	-1
372.008	1	3
372.179	1	-8
372.350	1	21
372.521	1	5
372.692	1	-3
372.863	1	5
373.033	1	-7
373.204	1	-2
373.375	1	5
373.546	1	1
373.717	1	3
373.888	1	9
374.059	1	2
374.229	1	6
374.400	1	0
374.571	1	4
374.742	1	10
374.913	1	-1
375.084	1	-2
375.254	1	6
375.425	1	-4
375.596	1	7
375.767	1	0
375.938	1	7
376.109	1	5
376.279	1	2
376.450	1	3
376.621	1	7
376.792	1	-5
376.963	1	2
377.134	1	5
377.304	1	6
377.475	1	3
377.646	1	4
377.817	1	-8
377.988	1	7
378.159	1	6
378.329	1	7
378.500	1	0
378.671	1	2
378.842	1	-3
379.013	1	-6
379.184	1	-3
379.354	1	5
379.525	1	3
379.696	1	13
379.867	1	12
380.038	1	0
380.209	1	5
380.379	1	6
380.550	1	-8
380.721	1	9
380.892	1	3
381.063	1	4
381.233	1	7
381.404	1	-5
381.575	1	11
381.746	1	4
381.917	1	9
382.087	1	0
382.258	1	7
382.429	1	0
382.600	1	-1
382.771	1	7
382.941	1	8
383.112	1	4
383.283	1	8
383.454	1	4
383.625	1	-3
383.795	1	2
383.966	1	9
384.137	1	7
384.308	1	8
384.479	1	6
384.649	1	13
384.820	1	1
384.991	1	9
385.162	1	3
385.333	1	0
385.503	1	-3
385.674	1	-10
385.845	1	16
386.016	1	0
386.187	1	-3
386.357	1	2
386.528	1	14
386.699	1	-1
386.870	1	14
387.041	1	4
387.211	1	4
387.382	1	12
387.553	1	8
387.724	1	-3
387.894	1	1
388.065	1	4
388.236	1	11
388.407	1	6
388.578	1	-7
388.748	1	-2
388.919	1	10
389.090	1	3
389.261	1	4
389.431	1	9
389.602	1	3
389.773	1	1
389.944	1	4
390.114	1	8
390.285	1	2
390.456	1	1
390.627	1	4
390.798	1	-5
390.968	1	-3
391.139	1	5
391.310	1	-2
391.481	1	3
391.651	1	2
391.822	1	2
391.993	1	9
392.164	1	-2
392.334	1	-5
392.505	1	-2
392.676	1	10
392.847	1	5
393.017	1	2
393.188	1	5
393.359	1	-15
393.530	1	1
393.700	1	3
393.871	1	0
394.042	1	2
394.213	1	-4
394.383	1	3
394.554	1	1
394.725	1	6
394.896	1	2
395.066	1	4
395.237	1	-3
395.408	1	1
395.579	1	5
395.749	1	3
395.920	1	-6
396.091	1	4
396.262	1	1
396.432	1	-11
396.603	1	13
396.774	1	13
396.945	1	0
397.115	1	4
397.286	1	-3
397.457	1	-1
397.627	1	0
397.798	1	6
397.969	1	-5
398.140	1	0
398.310	1	-3
398.481	1	9
398.652	1	-4
398.823	1	-7
398.993	1	-6
399.164	1	-3
399.335	1	20
399.505	1	9
399.676	1	4
399.847	1	-2
400.018	1	-3
400.188	1	0
400.359	1	6
400.530	1	-2
400.700	1	12
400.871	1	7
401.042	1	-1
401.213	1	-3
401.383	1	-2
401.554	1	14
401.725	1	1
401.895	1	1
402.066	1	-3
402.237	1	6
402.408	1	13
402.578	1	4
402.749	1	2
402.920	1	4
403.090	1	-9
403.261	1	4
403.432	1	-5
403.603	1	5
403.773	1	10
403.944	1	5
404.115	1	7
404.285	1	8
404.456	1	6
404.627	1	0
404.797	1	-3
404.968	1	-8
405.139	1	-1
405.310	1	3
405.480	1	-3
405.651	1	-4
405.822	1	-6
405.992	1	-7
406.163	1	-4
406.334	1	4
406.504	1	5
406.675	1	12
406.846	1	3
407.016	1	8
407.187	1	-2
407.358	1	-1
407.528	1	-2
407.699	1	-8
407.870	1	-3
408.041	1	-1
408.211	1	13
408.382	1	-6
408.553	1	-3
408.723	1	4
408.894	1	-2
409.065	1	-2
409.235	1	2
409.406	1	7
409.577	1	0
409.747	1	-3
409.918	1	-4
410.089	1	-2
410.259	1	3
410.430	1	1
410.601	1	8
410.771	1	3
410.942	1	8
411.113	1	6
411.283	1	0
411.454	1	3
411.625	1	-5
411.795	1	2
411.966	1	2
412.137	1	-3
412.307	1	-4
412.478	1	-2
412.649	1	3
412.819	1	-6
412.990	1	0
413.161	1	5
413.331	1	-6
413.502	1	9
413.672	1	-2
413.843	1	3
414.014	1	4
414.184	1	3
414.355	1	13
414.526	1	4
414.696	1	15
414.867	1	-2
415.038	1	-10
415.208	1	-4
415.379	1	-2
415.550	1	9
415.720	1	-1
415.891	1	-1
416.062	1	2
416.232	1	4
416.403	1	2
416.573	1	4
416.744	1	1
416.915	1	8
417.085	1	6
417.256	1	-1
417.427	1	-1
417.597	1	0
417.768	1	-5
417.939	1	6
418.109	1	0
418.280	1	6
418.450	1	-1
418.621	1	-5
418.792	1	3
418.962	1	3
419.133	1	11
419.304	1	-5
419.474	1	-4
419.645	1	1
419.815	1	2
419.986	1	4
420.157	1	17
420.327	1	6
420.498	1	12
420.669	1	-2
420.839	1	14
421.010	1	9
421.180	1	4
421.351	1	0
421.522	1	15
421.692	1	4
421.863	1	4
422.033	1	3
422.204	1	3
422.375	1	4
422.545	1	5
422.716	1	-3
422.886	1	13
423.057	1	7
423.228	1	8
423.398	1	-7
423.569	1	4
423.740	1	-6
423.910	1	-10
424.081	1	2
424.251	1	4
424.422	1	4
424.593	1	1
424.763	1	6
424.934	1	4
425.104	1	8
425.275	1	-6
425.445	1	2
425.616	1	-6
425.787	1	-3
425.957	1	11
426.128	1	14
426.298	1	-1
426.469	1	-10
426.640	1	6
426.810	1	0
426.981	1	-2
427.151	1	-2
427.322	1	3
427.493	1	8
427.663	1	7
427.834	1	-7
428.004	1	8
428.175	1	15
428.345	1	-8
428.516	1	0
428.687	1	0
428.857	1	-4
429.028	1	-5
429.198	1	8
429.369	1	3
429.540	1	12
429.710	1	-1
429.881	1	10
430.051	1	0
430.222	1	-2
430.392	1	4
430.563	1	11
430.734	1	15
430.904	1	10
431.075	1	11
431.245	1	1
431.416	1	17
431.586	1	5
431.757	1	-2
431.927	1	3
432.098	1	5
432.269	1	-10
432.439	1	5
432.610	1	2
432.780	1	6
432.951	1	0
433.121	1	-2
433.292	1	10
433.462	1	7
433.633	1	7
433.804	1	-3
433.974	1	-1
434.145	1	18
434.315	1	-1
434.486	1	5
434.656	1	12
434.827	1	-6
434.997	1	0
435.168	1	5
435.339	1	5
435.509	1	0
435.680	1	12
435.850	1	-6
436.021	1	4
436.191	1	1
436.362	1	-6
436.532	1	14
436.703	1	-1
436.873	1	8
437.044	1	-10
437.214	1	6
437.385	1	8
437.556	1	5
437.726	1	16
437.897	1	14
438.067	1	1
438.238	1	8
438.408	1	4
438.579	1	2
438.749	1	-3
438.920	1	-10
439.090	1	-1
439.261	1	-1
439.431	1	-6
439.602	1	-4
439.772	1	-2
439.943	1	12
440.113	1	-3
440.284	1	13
440.455	1	-7
440.625	1	5
440.796	1	0
440.966	1	5
441.137	1	-3
441.307	1	-6
441.478	1	8
441.648	1	6
441.819	1	-2
441.989	1	6
442.160	1	7
442.330	1	1
442.501	1	2
442.671	1	-5
442.842	1	-10
443.012	1	-1
443.183	1	12
443.353	1	-7
443.524	1	1
443.694	1	9
443.865	1	1
444.035	1	16
444.206	1	0
444.376	1	-2
444.547	1	11
444.717	1	0
444.888	1	-6
445.058	1	8
445.229	1	3
445.399	1	-7
445.570	1	4
445.740	1	-5
445.911	1	-3
446.081	1	-3
446.252	1	13
446.422	1	-2
446.593	1	1
446.763	1	0
446.934	1	-1
447.104	1	8
447.275	1	4
447.445	1	1
447.616	1	5
447.786	1	-2
447.957	1	6
448.127	1	-1
448.298	1	7
448.468	1	3
448.639	1	2
448.809	1	2
448.979	1	3
449.150	1	12
449.320	1	7
449.491	1	13
449.661	1	-3
449.832	1	-4
450.002	1	11
450.173	1	5
450.343	1	1
450.514	1	-3
450.684	1	1
450.855	1	11
451.025	1	2
451.196	1	6
451.366	1	4
451.537	1	-1
451.707	1	-7
451.878	1	5
452.048	1	10
452.218	1	4
452.389	1	4
452.559	1	1
452.730	1	15
452.900	1	-1
453.071	1	-10
453.241	1	3
453.412	1	2
453.582	1	0
453.753	1	8
453.923	1	5
454.093	1	5
454.264	1	6
454.434	1	1
454.605	1	8
454.775	1	-3
454.946	1	1
455.116	1	5
455.287	1	-7
455.457	1	-5
455.628	1	-1
455.798	1	10
455.968	1	5
456.139	1	0
456.309	1	-3
456.480	1	2
456.650	1	-8
456.821	1	-5
456.991	1	0
457.161	1	-1
457.332	1	10
457.502	1	-1
457.673	1	4
457.843	1	9
458.014	1	-6
458.184	1	7
458.355	1	1
458.525	1	10
458.695	1	-2
458.866	1	6
459.036	1	11
459.207	1	4
459.377	1	1
459.548	1	5
459.718	1	-10
459.888	1	-1
460.059	1	9
460.229	1	4
460.400	1	7
460.570	1	7
460.740	1	3
460.911	1	4
461.081	1	0
461.252	1	-3
461.422	1	2
461.593	1	3
461.763	1	7
461.933	1	2
462.104	1	0
462.274	1	-6
462.445	1	5
462.615	1	3
462.785	1	1
462.956	1	6
463.126	1	6
463.297	1	2
463.467	1	1
463.638	1	4
463.808	1	-12
463.978	1	-1
464.149	1	1
464.319	1	0
464.490	1	13
464.660	1	-4
464.830	1	-1
465.001	1	2
465.171	1	6
465.342	1	14
465.512	1	-3
465.682	1	0
465.853	1	8
466.023	1	4
466.194	1	-3
466.364	1	0
466.534	1	6
466.705	1	-1
466.875	1	-4
467.045	1	-7
467.216	1	21
467.386	1	-7
467.557	1	-4
467.727	1	-3
467.897	1	-9
468.068	1	8
468.238	1	3
468.409	1	-1
468.579	1	4
468.749	1	-11
468.920	1	8
469.090	1	2
469.260	1	-3
469.431	1	8
469.601	1	15
469.772	1	-3
469.942	1	-6
470.112	1	7
470.283	1	4
470.453	1	4
470.623	1	1
470.794	1	-8
470.964	1	1
471.135	1	9
471.305	1	0
471.475	1	8
471.646	1	-5
471.816	1	1
471.986	1	-3
472.157	1	12
472.327	1	-15
472.497	1	15
472.668	1	-7
472.838	1	-1
473.009	1	15
473.179	1	-5
473.349	1	-3
473.520	1	9
473.690	1	4
473.860	1	-4
474.031	1	4
474.201	1	-4
474.371	1	7
474.542	1	-4
474.712	1	-2
474.882	1	6
475.053	1	7
475.223	1	-4
475.394	1	6
475.564	1	11
475.734	1	-1
475.905	1	13
476.075	1	3
476.245	1	7
476.416	1	6
476.586	1	13
476.756	1	8
476.927	1	10
477.097	1	-2
477.267	1	-3
477.438	1	-4
477.608	1	-9
477.778	1	3
477.949	1	1
478.119	1	9
478.289	1	3
478.460	1	15
478.630	1	7
478.800	1	-3
478.971	1	5
479.141	1	-9
479.311	1	-14
479.482	1	-1
479.652	1	-1
479.822	1	-2
479.993	1	9
480.163	1	3
480.333	1	14
480.504	1	13
480.674	1	10
480.844	1	-5
481.015	1	8
481.185	1	0
481.355	1	11
481.525	1	-7
481.696	1	5
481.866	1	-2
482.036	1	-4
482.207	1	1
482.377	1	-3
482.547	1	12
482.718	1	8
482.888	1	5
483.058	1	3
483.229	1	-4
483.399	1	-2
483.569	1	-1
483.740	1	3
483.910	1	6
484.080	1	-4
484.250	1	6
484.421	1	5
484.591	1	3
484.761	1	6
484.932	1	3
485.102	1	17
485.272	1	-1
485.443	1	13
485.613	1	1
485.783	1	-2
485.953	1	-2
486.124	1	6
486.294	1	6
486.464	1	2
486.635	1	5
486.805	1	10
486.975	1	4
487.146	1	4
487.316	1	-3
487.486	1	8
487.656	1	4
487.827	1	0
487.997	1	-9
488.167	1	7
488.338	1	-1
488.508	1	-3
488.678	1	-6
488.848	1	10
489.019	1	-6
489.189	1	4
489.359	1	4
489.529	1	-3
489.700	1	-2
489.870	1	18
490.040	1	-3
490.211	1	-4
490.381	1	3
490.551	1	2
490.721	1	19
490.892	1	-3
491.062	1	5
491.232	1	-2
491.402	1	-1
491.573	1	0
491.743	1	-1
491.913	1	-10
492.084	1	5
492.254	1	7
492.424	1	7
492.594	1	2
492.765	1	-5
492.935	1	0
493.105	1	12
493.275	1	3
493.446	1	8
493.616	1	3
493.786	1	-3
493.956	1	1
494.127	1	3
494.297	1	5
494.467	1	2
494.637	1	1
494.808	1	-12
494.978	1	-11
495.148	1	1
495.318	1	1
495.489	1	4
495.659	1	10
495.829	1	-4
495.999	1	-1
496.170	1	15
496.340	1	-5
496.510	1	2
496.680	1	-7
496.851	1	-1
497.021	1	-9
497.191	1	-5
497.361	1	6
497.532	1	-14
497.702	1	2
497.872	1	-4
498.042	1	6
498.213	1	-3
498.383	1	3
498.553	1	-2
498.723	1	-1
498.894	1	8
499.064	1	-2
499.234	1	8
499.404	1	8
499.574	1	9
499.745	1	5
499.915	1	-3
500.085	1	-4
500.255	1	15
500.426	1	5
500.596	1	7
500.766	1	3
500.936	1	-8
501.106	1	-2
501.277	1	6
501.447	1	0
501.617	1	1
501.787	1	-5
501.958	1	-6
502.128	1	1
502.298	1	-6
502.468	1	0
502.638	1	2
502.809	1	-4
502.979	1	-4
503.149	1	-7
503.319	1	-11
503.489	1	2
503.660	1	8
503.830	1	9
504.000	1	4
504.170	1	-1
504.340	1	-4
504.511	1	14
504.681	1	-8
504.851	1	7
505.021	1	6
505.192	1	-5
505.362	1	6
505.532	1	1
505.702	1	9
505.872	1	-5
506.043	1	5
506.213	1	-8
506.383	1	0
506.553	1	11
506.723	1	4
506.893	1	-2
507.064	1	8
507.234	1	-1
507.404	1	-7
507.574	1	3
507.744	1	-2
507.915	1	2
508.085	1	7
508.255	1	2
508.425	1	-1
508.595	1	5
508.766	1	9
508.936	1	-7
509.106	1	2
509.276	1	15
509.446	1	-6
509.616	1	-7
509.787	1	4
509.957	1	2
510.127	1	-3
510.297	1	4
510.467	1	3
510.638	1	4
510.808	1	-12
510.978	1	-3
511.148	1	7
511.318	1	-1
511.488	1	-12
511.659	1	10
511.829	1	-6
511.999	1	6
512.169	1	1
512.339	1	3
512.509	1	1
512.680	1	1
512.850	1	-8
513.020	1	5
513.190	1	-4
513.360	1	-3
513.530	1	3
513.700	1	5
513.871	1	-5
514.041	1	5
514.211	1	1
514.381	1	2
514.551	1	2
514.721	1	5
514.892	1	6
515.062	1	2
515.232	1	0
515.402	1	-6
515.572	1	-7
515.742	1	13
515.912	1	3
516.083	1	3
516.253	1	2
516.423	1	1
516.593	1	5
516.763	1	16
516.933	1	-5
517.104	1	-6
517.274	1	0
517.444	1	4
517.614	1	-7
517.784	1	-5
517.954	1	8
518.124	1	6
518.294	1	-3
518.465	1	0
518.635	1	-4
518.805	1	-13
518.975	1	0
519.145	1	3
519.315	1	11
519.485	1	2
519.656	1	8
519.826	1	11
519.996	1	3
520.166	1	0
520.336	1	17
520.506	1	-6
520.676	1	4
520.846	1	15
521.017	1	1
521.187	1	5
521.357	1	9
521.527	1	-3
521.697	1	-1
521.867	1	-11
522.037	1	12
522.207	1	11
522.377	1	0
522.548	1	9
522.718	1	2
522.888	1	12
523.058	1	4
523.228	1	8
523.398	1	1
523.568	1	3
523.738	1	0
523.909	1	7
524.079	1	1
524.249	1	10
524.419	1	-4
524.589	1	4
524.759	1	-12
524.929	1	-3
525.099	1	1
525.269	1	4
525.439	1	-10
525.610	1	14
525.780	1	3
525.950	1	0
526.120	1	-3
526.290	1	1
526.460	1	-1
526.630	1	3
526.800	1	-4
526.970	1	7
527.140	1	12
527.311	1	-1
527.481	1	-1
527.651	1	5
527.821	1	-7
527.991	1	15
528.161	1	5
528.331	1	-5
528.501	1	3
528.671	1	-4
528.841	1	4
529.011	1	0
529.181	1	3
529.352	1	1
529.522	1	1
529.692	1	6
529.862	1	-4
530.032	1	13
530.202	1	-6
530.372	1	6
530.542	1	-1
530.712	1	0
530.882	1	0
531.052	1	17
531.222	1	8
531.392	1	11
531.563	1	2
531.733	1	3
531.903	1	-4
532.073	1	1
532.243	1	0
532.413	1	5
532.583	1	5
532.753	1	7
532.923	1	-3
533.093	1	2
533.263	1	-2
533.433	1	4
533.603	1	6
533.773	1	-2
533.943	1	-4
534.113	1	-1
534.284	1	-2
534.454	1	11
534.624	1	16
534.794	1	-4
534.964	1	6
535.134	1	2
535.304	1	3
535.474	1	9
535.644	1	-7
535.814	1	-9
535.984	1	-7
536.154	1	-5
536.324	1	8
536.494	1	18
536.664	1	3
536.834	1	10
537.004	1	6
537.174	1	15
537.344	1	1
537.514	1	-13
537.685	1	-7
537.855	1	6
538.025	1	-2
538.195	1	2
538.365	1	11
538.535	1	-11
538.705	1	-1
538.875	1	9
539.045	1	9
539.215	1	-2
539.385	1	9
539.555	1	0
539.725	1	-1
539.895	1	-9
540.065	1	9
540.235	1	7
540.405	1	-3
540.575	1	2
540.745	1	9
540.915	1	12
541.085	1	11
541.255	1	-9
541.425	1	4
541.595	1	-3
541.765	1	11
541.935	1	-10
542.105	1	0
542.275	1	3
542.445	1	-11
542.615	1	7
542.785	1	5
542.955	1	3
543.125	1	1
543.295	1	11
543.465	1	4
543.635	1	9
543.805	1	15
543.975	1	0
544.145	1	10
544.315	1	10
544.485	1	6
544.655	1	-7
544.825	1	-8
544.995	1	10
545.165	1	-6
545.335	1	7
545.505	1	-10
545.675	1	16
545.845	1	1
546.015	1	-2
546.185	1	5
546.355	1	-2
546.525	1	1
546.695	1	1
546.865	1	3
547.035	1	10
547.205	1	-13
547.375	1	1
547.545	1	8
547.715	1	-6
547.885	1	2
548.055	1	-4
548.225	1	5
548.395	1	4
548.565	1	1
548.735	1	3
548.905	1	1
549.075	1	1
549.245	1	7
549.415	1	-6
549.585	1	7
549.755	1	-2
549.925	1	-9
550.095	1	3
550.265	1	0
550.435	1	-2
550.605	1	1
550.775	1	1
550.945	1	9
551.115	1	-9
551.285	1	5
551.455	1	-12
551.625	1	2
551.795	1	8
551.965	1	-2
552.135	1	3
552.305	1	-2
552.475	1	-10
552.645	1	1
552.815	1	-2
552.985	1	17
553.155	1	5
553.325	1	6
553.495	1	1
553.665	1	-2
553.835	1	-1
554.004	1	3
554.174	1	10
554.344	1	6
554.514	1	1
554.684	1	2
554.854	1	3
555.024	1	-11
555.194	1	-6
555.364	1	6
555.534	1	-1
555.704	1	-3
555.874	1	4
556.044	1	2
556.214	1	-4
556.384	1	4
556.554	1	3
556.724	1	3
556.894	1	-5
557.064	1	-1
557.234	1	-4
557.404	1	8
557.573	1	5
557.743	1	7
557.913	1	-11
558.083	1	2
558.253	1	2
558.423	1	-3
558.593	1	6
558.763	1	4
558.933	1	-2
559.103	1	7
559.273	1	2
559.443	1	8
559.613	1	3
559.783	1	4
559.953	1	-1
560.122	1	8
560.292	1	2
560.462	1	1
560.632	1	10
560.802	1	7
560.972	1	4
561.142	1	4
561.312	1	6
561.482	1	7
561.652	1	3
561.822	1	-3
561.992	1	5
562.162	1	4
562.331	1	-6
562.501	1	-5
562.671	1	1
562.841	1	-16
563.011	1	5
563.181	1	0
563.351	1	-5
563.521	1	-1
563.691	1	-9
563.861	1	9
564.031	1	4
564.201	1	14
564.370	1	2
564.540	1	11
564.710	1	-10
564.880	1	4
565.050	1	3
565.220	1	-14
565.390	1	6
565.560	1	8
565.730	1	-3
565.900	1	-2
566.069	1	11
566.239	1	5
566.409	1	4
566.579	1	14
566.749	1	1
566.919	1	3
567.089	1	11
567.259	1	10
567.429	1	3
567.599	1	-1
567.768	1	1
567.938	1	2
568.108	1	2
568.278	1	-2
568.448	1	-3
568.618	1	-1
568.788	1	2
568.958	1	-2
569.128	1	7
569.297	1	1
569.467	1	-5
569.637	1	9
569.807	1	8
569.977	1	3
570.147	1	9
570.317	1	-13
570.487	1	9
570.656	1	8
570.826	1	-7
570.996	1	-1
571.166	1	20
571.336	1	-7
571.506	1	11
571.676	1	5
571.846	1	0
572.015	1	0
572.185	1	-7
572.355	1	2
572.525	1	16
572.695	1	-1
572.865	1	-1
573.035	1	5
573.205	1	6
573.374	1	-7
573.544	1	-9
573.714	1	8
573.884	1	4
574.054	1	4
574.224	1	-2
574.394	1	-2
574.563	1	1
574.733	1	-3
574.903	1	-4
575.073	1	-4
575.243	1	4
575.413	1	5
575.583	1	5
575.752	1	2
575.922	1	5
576.092	1	1
576.262	1	-3
576.432	1	2
576.602	1	4
576.772	1	8
576.941	1	10
577.111	1	-13
577.281	1	2
577.451	1	-8
577.621	1	4
577.791	1	-1
577.960	1	8
578.130	1	4
578.300	1	-4
578.470	1	10
578.640	1	2
578.810	1	2
578.979	1	-4
579.149	1	3
579.319	1	-2
579.489	1	0
579.659	1	-9
579.829	1	1
579.998	1	12
580.168	1	6
580.338	1	5
580.508	1	3
580.678	1	-8
580.848	1	0
581.017	1	-2
581.187	1	-1
581.357	1	-6
581.527	1	6
581.697	1	10
581.867	1	2
582.036	1	1
582.206	1	8
582.376	1	15
582.546	1	-2
582.716	1	-7
582.885	1	-1
583.055	1	1
583.225	1	-4
583.395	1	9
583.565	1	-3
583.735	1	7
583.904	1	2
584.074	1	5
584.244	1	6
584.414	1	0
584.584	1	6
584.753	1	-4
584.923	1	7
585.093	1	0
585.263	1	3
585.433	1	3
585.602	1	-8
585.772	1	-1
585.942	1	-11
586.112	1	12
586.282	1	-2
586.451	1	4
586.621	1	-5
586.791	1	3
586.961	1	2
587.131	1	-2
587.300	1	-7
587.470	1	7
587.640	1	-2
587.810	1	-11
587.980	1	8
588.149	1	-2
588.319	1	5
588.489	1	5
588.659	1	-3
588.829	1	2
588.998	1	13
589.168	1	2
589.338	1	11
589.508	1	8
589.677	1	-9
589.847	1	-5
590.017	1	17
590.187	1	-9
590.357	1	6
590.526	1	17
590.696	1	0
590.866	1	17
591.036	1	-5
591.205	1	13
591.375	1	-4
591.545	1	-3
591.715	1	9
591.885	1	-3
592.054	1	13
592.224	1	0
592.394	1	-5
592.564	1	4
592.733	1	0
592.903	1	1
593.073	1	-2
593.243	1	4
593.412	1	8
593.582	1	4
593.752	1	6
593.922	1	7
594.091	1	1
594.261	1	0
594.431	1	9
594.601	1	11
594.771	1	13
594.940	1	1
595.110	1	3
595.280	1	6
595.450	1	-1
595.619	1	2
595.789	1	1
595.959	1	11
596.129	1	-7
596.298	1	-3
596.468	1	4
596.638	1	3
596.808	1	1
596.977	1	5
597.147	1	6
597.317	1	0
597.487	1	7
597.656	1	1
597.826	1	6
597.996	1	10
598.166	1	1
598.335	1	-9
598.505	1	4
598.675	1	-1
598.844	1	8
599.014	1	4
599.184	1	7
599.354	1	-18
599.523	1	3
599.693	1	-1
599.863	1	10
600.033	1	8
600.202	1	9
600.372	1	3
600.542	1	12
600.712	1	1
600.881	1	-2
601.051	1	6
601.221	1	8
601.390	1	-6
601.560	1	15
601.730	1	0
601.900	1	0
602.069	1	10
602.239	1	-1
602.409	1	3
602.578	1	4
602.748	1	1
602.918	1	5
603.088	1	2
603.257	1	9
603.427	1	-4
603.597	1	4
603.767	1	-1
603.936	1	-2
604.106	1	5
604.276	1	-4
604.445	1	3
604.615	1	2
604.785	1	1
604.954	1	4
605.124	1	1
605.294	1	4
605.464	1	1
605.633	1	-2
605.803	1	8
605.973	1	2
606.142	1	6
606.312	1	0
606.482	1	-2
606.652	1	-3
606.821	1	0
606.991	1	3
607.161	1	-5
607.330	1	3
607.500	1	-6
607.670	1	-8
607.839	1	10
608.009	1	11
608.179	1	7
608.348	1	-1
608.518	1	-2
608.688	1	11
608.858	1	-4
609.027	1	-12
609.197	1	6
609.367	1	12
609.536	1	-3
609.706	1	4
609.876	1	4
610.045	1	1
610.215	1	8
610.385	1	6
610.554	1	-3
610.724	1	9
610.894	1	2
611.063	1	0
611.233	1	-5
611.403	1	-2
611.572	1	3
611.742	1	6
611.912	1	-7
612.081	1	-4
612.251	1	6
612.421	1	-14
612.590	1	3
612.760	1	-1
612.930	1	-6
613.099	1	-3
613.269	1	5
613.439	1	-4
613.608	1	-3
613.778	1	7
613.948	1	-8
614.117	1	3
614.287	1	-2
614.457	1	-7
614.626	1	4
614.796	1	4
614.966	1	-4
615.135	1	-3
615.305	1	3
615.475	1	5
615.644	1	7
615.814	1	-3
615.984	1	4
616.153	1	5
616.323	1	-5
616.493	1	7
616.662	1	5
616.832	1	-2
617.002	1	-6
617.171	1	3
617.341	1	-3
617.511	1	-11
617.680	1	-1
617.850	1	7
618.019	1	7
618.189	1	7
618.359	1	7
618.528	1	0
618.698	1	-3
618.868	1	-4
619.037	1	3
619.207	1	-12
619.377	1	3
619.546	1	4
619.716	1	2
619.885	1	2
620.055	1	-2
620.225	1	-4
620.394	1	-6
620.564	1	7
620.734	1	1
620.903	1	-8
621.073	1	9
621.242	1	-1
621.412	1	3
621.582	1	-1
621.751	1	15
621.921	1	11
622.091	1	-1
622.260	1	5
622.430	1	9
622.599	1	-2
622.769	1	-1
622.939	1	8
623.108	1	2
623.278	1	-12
623.448	1	1
623.617	1	-1
623.787	1	0
623.956	1	8
624.126	1	-3
624.296	1	-4
624.465	1	5
624.635	1	10
624.804	1	0
624.974	1	3
625.144	1	1
625.313	1	1
625.483	1	-11
625.652	1	-6
625.822	1	0
625.992	1	0
626.161	1	7
626.331	1	7
626.501	1	-2
626.670	1	4
626.840	1	-3
627.009	1	-4
627.179	1	5
627.348	1	8
627.518	1	7
627.688	1	11
627.857	1	9
628.027	1	0
628.196	1	-3
628.366	1	10
628.536	1	2
628.705	1	-6
628.875	1	-2
629.044	1	-5
629.214	1	3
629.384	1	3
629.553	1	3
629.723	1	3
629.892	1	5
630.062	1	-1
630.232	1	3
630.401	1	14
630.571	1	-2
630.740	1	6
630.910	1	4
631.079	1	12
631.249	1	0
631.419	1	5
631.588	1	-3
631.758	1	4
631.927	1	0
632.097	1	5
632.266	1	-2
632.436	1	-1
632.606	1	-3
632.775	1	2
632.945	1	1
633.114	1	8
633.284	1	0
633.453	1	-5
633.623	1	-4
633.793	1	-5
633.962	1	-2
634.132	1	8
634.301	1	-4
634.471	1	12
634.640	1	5
634.810	1	-1
634.979	1	5
635.149	1	10
635.319	1	-5
635.488	1	5
635.658	1	4
635.827	1	-3
635.997	1	-1
636.166	1	-3
636.336	1	-1
636.505	1	5
636.675	1	-6
636.845	1	2
637.014	1	12
637.184	1	-6
637.353	1	10
637.523	1	-2
637.692	1	0
637.862	1	13
638.031	1	1
638.201	1	4
638.370	1	-1
638.540	1	-3
638.710	1	1
638.879	1	-6
639.049	1	2
639.218	1	6
639.388	1	-5
639.557	1	-4
639.727	1	13
639.896	1	1
640.066	1	-4
640.235	1	3
640.405	1	11
640.574	1	0
640.744	1	-7
640.914	1	9
641.083	1	4
641.253	1	0
641.422	1	-4
641.592	1	11
641.761	1	-8
641.931	1	-6
642.100	1	19
642.270	1	-5
642.439	1	-1
642.609	1	15
642.778	1	6
642.948	1	2
643.117	1	4
643.287	1	3
643.456	1	-4
643.626	1	4
643.795	1	3
643.965	1	2
644.134	1	-5
644.304	1	-6
644.473	1	6
644.643	1	11
644.812	1	8
644.982	1	7
645.151	1	-2
645.321	1	-5
645.490	1	4
645.660	1	-9
645.829	1	-2
645.999	1	0
646.168	1	17
646.338	1	-1
646.507	1	5
646.677	1	-1
646.846	1	1
647.016	1	-7
647.185	1	-3
647.355	1	-7
647.524	1	8
647.694	1	7
647.863	1	6
648.033	1	1
648.202	1	10
648.372	1	-4
648.541	1	2
648.711	1	-5
648.880	1	-3
649.050	1	-10
649.219	1	9
649.389	1	15
649.558	1	4
649.728	1	0
649.897	1	7
650.067	1	10
650.236	1	0
650.406	1	0
650.575	1	7
650.745	1	3
650.914	1	-6
651.084	1	-2
651.253	1	4
651.423	1	-3
651.592	1	-6
651.762	1	-3
651.931	1	9
652.101	1	-1
652.270	1	7
652.440	1	9
652.609	1	-4
652.778	1	-7
652.948	1	5
653.117	1	3
653.287	1	-5
653.456	1	10
653.626	1	9
653.795	1	0
653.965	1	7
654.134	1	7
654.304	1	-10
654.473	1	6
654.643	1	3
654.812	1	12
654.982	1	-1
655.151	1	-4
655.320	1	1
655.490	1	-5
655.659	1	2
655.829	1	1
655.998	1	6
656.168	1	4
656.337	1	9
656.507	1	2
656.676	1	3
656.846	1	11
657.015	1	5
657.184	1	1
657.354	1	2
657.523	1	-1
657.693	1	5
657.862	1	3
658.032	1	1
658.201	1	2
658.371	1	8
658.540	1	2
658.709	1	-2
658.879	1	7
659.048	1	-6
659.218	1	-3
659.387	1	-2
659.557	1	-9
659.726	1	14
659.895	1	0
660.065	1	-1
660.234	1	6
660.404	1	17
660.573	1	-3
660.743	1	0
660.912	1	-5
661.081	1	10
661.251	1	0
661.420	1	14
661.590	1	7
661.759	1	5
661.929	1	0
662.098	1	2
662.267	1	1
662.437	1	4
662.606	1	-4
662.776	1	5
662.945	1	6
663.115	1	5
663.284	1	-6
663.453	1	6
663.623	1	4
663.792	1	4
663.962	1	4
664.131	1	3
664.300	1	1
664.470	1	-2
664.639	1	5
664.809	1	3
664.978	1	10
665.148	1	2
665.317	1	0
665.486	1	8
665.656	1	-3
665.825	1	4
665.995	1	-4
666.164	1	-2
666.333	1	2
666.503	1	7
666.672	1	-6
666.842	1	0
667.011	1	0
667.180	1	9
667.350	1	-7
667.519	1	-2
667.689	1	4
667.858	1	5
668.027	1	7
668.197	1	-2
668.366	1	-7
668.536	1	2
668.705	1	1
668.874	1	0
669.044	1	4
669.213	1	11
669.382	1	-3
669.552	1	3
669.721	1	3
669.891	1	10
670.060	1	13
670.229	1	10
670.399	1	-1
670.568	1	4
670.738	1	12
670.907	1	-3
671.076	1	-6
671.246	1	-6
671.415	1	9
671.584	1	-6
671.754	1	-5
671.923	1	4
672.093	1	1
672.262	1	-10
672.431	1	0
672.601	1	2
672.770	1	-8
672.939	1	-1
673.109	1	5
673.278	1	13
673.448	1	13
673.617	1	0
673.786	1	2
