325.333	1	22
325.504	1	22
325.675	1	22
325.846	1	22
326.017	1	12
326.188	1	28
326.359	1	30
326.531	1	15
326.702	1	18
326.873	1	33
327.044	1	26
327.215	1	32
327.386	1	31
327.557	1	18
327.728	1	25
327.899	1	20
328.070	1	39
328.241	1	35
328.412	1	6
328.583	1	24
328.754	1	30
328.926	1	34
329.097	1	21
329.268	1	40
329.439	1	23
329.610	1	26
329.781	1	19
329.952	1	41
330.123	1	21
330.294	1	24
330.465	1	30
330.636	1	33
330.807	1	26
330.978	1	32
331.149	1	29
331.320	1	31
331.492	1	35
331.663	1	42
331.834	1	38
332.005	1	39
332.176	1	44
332.347	1	41
332.518	1	32
332.689	1	43
332.860	1	29
333.031	1	42
333.202	1	29
333.373	1	43
333.544	1	32
333.715	1	42
333.886	1	24
334.057	1	39
334.228	1	18
334.399	1	36
334.570	1	40
334.741	1	28
334.912	1	42
335.084	1	52
335.255	1	40
335.426	1	38
335.597	1	38
335.768	1	35
335.939	1	44
336.110	1	38
336.281	1	30
336.452	1	34
336.623	1	40
336.794	1	32
336.965	1	43
337.136	1	51
337.307	1	43
337.478	1	44
337.649	1	48
337.820	1	32
337.991	1	42
338.162	1	44
338.333	1	43
338.504	1	50
338.675	1	37
338.846	1	44
339.017	1	47
339.188	1	43
339.359	1	38
339.530	1	45
339.701	1	50
339.872	1	55
340.043	1	42
340.214	1	47
340.385	1	53
340.556	1	45
340.727	1	51
340.898	1	60
341.069	1	50
341.240	1	55
341.411	1	47
341.582	1	48
341.753	1	41
341.924	1	43
342.095	1	51
342.266	1	58
342.437	1	53
342.608	1	47
342.779	1	62
342.950	1	64
343.121	1	67
343.292	1	44
343.463	1	61
343.634	1	52
343.805	1	68
343.976	1	57
344.147	1	56
344.318	1	59
344.489	1	47
344.660	1	63
344.831	1	62
345.002	1	49
345.173	1	62
345.344	1	56
345.515	1	61
345.686	1	49
345.857	1	56
346.028	1	51
346.199	1	52
346.370	1	54
346.541	1	63
346.712	1	56
346.883	1	59
347.054	1	58
347.225	1	64
347.396	1	64
347.567	1	53
347.738	1	61
347.909	1	65
348.080	1	69
348.251	1	75
348.422	1	72
348.593	1	61
348.764	1	69
348.935	1	71
349.106	1	66
349.277	1	66
349.448	1	69
349.619	1	62
349.790	1	73
349.961	1	73
350.132	1	72
350.303	1	73
350.474	1	81
350.645	1	78
350.816	1	72
350.987	1	74
351.157	1	63
351.328	1	81
351.499	1	81
351.670	1	73
351.841	1	70
352.012	1	81
352.183	1	84
352.354	1	79
352.525	1	76
352.696	1	73
352.867	1	70
353.038	1	87
353.209	1	84
353.380	1	84
353.551	1	76
353.722	1	71
353.893	1	67
354.064	1	83
354.235	1	76
354.406	1	72
354.576	1	74
354.747	1	75
354.918	1	74
355.089	1	87
355.260	1	79
355.431	1	80
355.602	1	83
355.773	1	81
355.944	1	82
356.115	1	81
356.286	1	88
356.457	1	89
356.628	1	83
356.799	1	77
356.970	1	86
357.141	1	82
357.311	1	74
357.482	1	72
357.653	1	93
357.824	1	90
357.995	1	92
358.166	1	80
358.337	1	84
358.508	1	95
358.679	1	81
358.850	1	95
359.021	1	82
359.192	1	95
359.363	1	82
359.533	1	89
359.704	1	90
359.875	1	100
360.046	1	92
360.217	1	93
360.388	1	94
360.559	1	75
360.730	1	99
360.901	1	87
361.072	1	110
361.243	1	100
361.414	1	91
361.584	1	90
361.755	1	97
361.926	1	87
362.097	1	89
362.268	1	91
362.439	1	88
362.610	1	98
362.781	1	86
362.952	1	92
363.123	1	94
363.293	1	84
363.464	1	88
363.635	1	91
363.806	1	82
363.977	1	96
364.148	1	97
364.319	1	97
364.490	1	116
364.661	1	82
364.832	1	104
365.002	1	92
365.173	1	89
365.344	1	114
365.515	1	85
365.686	1	91
365.857	1	100
366.028	1	114
366.199	1	93
366.370	1	108
366.540	1	101
366.711	1	88
366.882	1	91
367.053	1	80
367.224	1	114
367.395	1	107
367.566	1	107
367.737	1	116
367.908	1	102
368.078	1	99
368.249	1	103
368.420	1	94
368.591	1	111
368.762	1	101
368.933	1	94
369.104	1	85
369.274	1	90
369.445	1	107
369.616	1	97
369.787	1	104
369.958	1	111
370.129	1	95
370.300	1	113
370.471	1	82
370.641	1	110
370.812	1	103
370.983	1	106
371.154	1	95
371.325	1	98
371.496	1	97
371.667	1	102
371.837	1	91
372.008	1	103
372.179	1	101
372.350	1	117
372.521	1	97
372.692	1	109
372.863	1	112
373.033	1	87
373.204	1	97
373.375	1	111
373.546	1	104
373.717	1	105
373.888	1	126
374.059	1	113
374.229	1	112
374.400	1	104
374.571	1	106
374.742	1	94
374.913	1	121
375.084	1	111
375.254	1	114
375.425	1	119
375.596	1	108
375.767	1	106
375.938	1	110
376.109	1	113
376.279	1	110
376.450	1	114
376.621	1	118
376.792	1	102
376.963	1	123
377.134	1	124
377.304	1	108
377.475	1	118
377.646	1	114
377.817	1	92
377.988	1	115
378.159	1	130
378.329	1	126
378.500	1	109
378.671	1	115
378.842	1	122
379.013	1	111
379.184	1	109
379.354	1	122
379.525	1	109
379.696	1	126
379.867	1	123
380.038	1	122
380.209	1	131
380.379	1	115
380.550	1	124
380.721	1	121
380.892	1	118
381.063	1	119
381.233	1	130
381.404	1	109
381.575	1	121
381.746	1	119
381.917	1	126
382.087	1	123
382.258	1	118
382.429	1	125
382.600	1	139
382.771	1	110
382.941	1	127
383.112	1	125
383.283	1	134
383.454	1	122
383.625	1	121
383.795	1	126
383.966	1	133
384.137	1	125
384.308	1	131
384.479	1	132
384.649	1	127
384.820	1	133
384.991	1	116
385.162	1	133
385.333	1	127
385.503	1	130
385.674	1	131
385.845	1	142
386.016	1	134
386.187	1	137
386.357	1	130
386.528	1	134
386.699	1	132
386.870	1	143
387.041	1	134
387.211	1	121
387.382	1	144
387.553	1	139
387.724	1	128
387.894	1	142
388.065	1	138
388.236	1	145
388.407	1	133
388.578	1	130
388.748	1	127
388.919	1	153
389.090	1	129
389.261	1	144
389.431	1	138
389.602	1	146
389.773	1	137
389.944	1	140
390.114	1	132
390.285	1	148
390.456	1	133
390.627	1	145
390.798	1	129
390.968	1	145
391.139	1	152
391.310	1	160
391.481	1	151
391.651	1	142
391.822	1	131
391.993	1	141
392.164	1	127
392.334	1	133
392.505	1	120
392.676	1	143
392.847	1	152
393.017	1	145
393.188	1	137
393.359	1	143
393.530	1	132
393.700	1	133
393.871	1	136
394.042	1	137
394.213	1	138
394.383	1	136
394.554	1	136
394.725	1	161
394.896	1	143
395.066	1	150
395.237	1	154
395.408	1	140
395.579	1	145
395.749	1	157
395.920	1	132
396.091	1	148
396.262	1	155
396.432	1	139
396.603	1	144
396.774	1	158
396.945	1	150
397.115	1	148
397.286	1	151
397.457	1	147
397.627	1	148
397.798	1	147
397.969	1	139
398.140	1	141
398.310	1	137
398.481	1	146
398.652	1	167
398.823	1	155
398.993	1	152
399.164	1	149
399.335	1	152
399.505	1	138
399.676	1	155
399.847	1	150
400.018	1	159
400.188	1	147
400.359	1	151
400.530	1	143
400.700	1	146
400.871	1	142
401.042	1	151
401.213	1	147
401.383	1	145
401.554	1	158
401.725	1	147
401.895	1	136
402.066	1	136
402.237	1	161
402.408	1	149
402.578	1	156
402.749	1	147
402.920	1	145
403.090	1	141
403.261	1	155
403.432	1	149
403.603	1	155
403.773	1	154
403.944	1	154
404.115	1	149
404.285	1	163
404.456	1	144
404.627	1	140
404.797	1	142
404.968	1	149
405.139	1	155
405.310	1	155
405.480	1	143
405.651	1	160
405.822	1	157
405.992	1	150
406.163	1	155
406.334	1	143
406.504	1	145
406.675	1	147
406.846	1	157
407.016	1	169
407.187	1	155
407.358	1	136
407.528	1	160
407.699	1	159
407.870	1	158
408.041	1	163
408.211	1	186
408.382	1	149
408.553	1	162
408.723	1	167
408.894	1	147
409.065	1	160
409.235	1	163
409.406	1	165
409.577	1	166
409.747	1	165
409.918	1	165
410.089	1	173
410.259	1	162
410.430	1	167
410.601	1	176
410.771	1	160
410.942	1	166
411.113	1	172
411.283	1	156
411.454	1	153
411.625	1	158
411.795	1	174
411.966	1	154
412.137	1	162
412.307	1	145
412.478	1	154
412.649	1	157
412.819	1	143
412.990	1	174
413.161	1	160
413.331	1	145
413.502	1	159
413.672	1	155
413.843	1	163
414.014	1	155
414.184	1	150
414.355	1	151
414.526	1	155
414.696	1	158
414.867	1	163
415.038	1	124
415.208	1	154
415.379	1	156
415.550	1	157
415.720	1	149
415.891	1	155
416.062	1	158
416.232	1	147
416.403	1	152
416.573	1	158
416.744	1	134
416.915	1	168
417.085	1	148
417.256	1	151
417.427	1	150
417.597	1	154
417.768	1	159
417.939	1	162
418.109	1	162
418.280	1	152
418.450	1	159
418.621	1	148
418.792	1	151
418.962	1	154
419.133	1	157
419.304	1	144
419.474	1	139
419.645	1	147
419.815	1	151
419.986	1	156
420.157	1	153
420.327	1	162
420.498	1	155
420.669	1	154
420.839	1	157
421.010	1	158
421.180	1	154
421.351	1	145
421.522	1	148
421.692	1	150
421.863	1	163
422.033	1	150
422.204	1	164
422.375	1	141
422.545	1	157
422.716	1	148
422.886	1	151
423.057	1	151
423.228	1	141
423.398	1	136
423.569	1	158
423.740	1	128
423.910	1	130
424.081	1	131
424.251	1	133
424.422	1	149
424.593	1	141
424.763	1	155
424.934	1	136
425.104	1	146
425.275	1	134
425.445	1	134
425.616	1	123
425.787	1	132
425.957	1	137
426.128	1	147
426.298	1	135
426.469	1	131
426.640	1	141
426.810	1	144
426.981	1	137
427.151	1	147
427.322	1	128
427.493	1	128
427.663	1	139
427.834	1	133
428.004	1	137
428.175	1	139
428.345	1	129
428.516	1	142
428.687	1	136
428.857	1	138
429.028	1	131
429.198	1	132
429.369	1	149
429.540	1	138
429.710	1	125
429.881	1	149
430.051	1	143
430.222	1	140
430.392	1	133
430.563	1	151
430.734	1	136
430.904	1	131
431.075	1	134
431.245	1	132
431.416	1	140
431.586	1	139
431.757	1	141
431.927	1	154
432.098	1	135
432.269	1	117
432.439	1	133
432.610	1	129
432.780	1	135
432.951	1	135
433.121	1	136
433.292	1	140
433.462	1	139
433.633	1	125
433.804	1	120
433.974	1	135
434.145	1	138
434.315	1	139
434.486	1	124
434.656	1	133
434.827	1	131
434.997	1	139
435.168	1	134
435.339	1	142
435.509	1	128
435.680	1	125
435.850	1	138
436.021	1	131
436.191	1	123
436.362	1	134
436.532	1	132
436.703	1	134
436.873	1	134
437.044	1	115
437.214	1	129
437.385	1	121
437.556	1	118
437.726	1	141
437.897	1	141
438.067	1	126
438.238	1	121
438.408	1	128
438.579	1	132
438.749	1	123
438.920	1	122
439.090	1	131
439.261	1	109
439.431	1	117
439.602	1	115
439.772	1	120
439.943	1	130
440.113	1	124
440.284	1	126
440.455	1	111
440.625	1	116
440.796	1	123
440.966	1	121
441.137	1	122
441.307	1	109
441.478	1	130
441.648	1	122
441.819	1	115
441.989	1	118
442.160	1	124
442.330	1	121
442.501	1	118
442.671	1	117
442.842	1	108
443.012	1	111
443.183	1	132
443.353	1	116
443.524	1	122
443.694	1	119
443.865	1	106
444.035	1	111
444.206	1	107
444.376	1	107
444.547	1	122
444.717	1	115
444.888	1	103
445.058	1	117
445.229	1	113
445.399	1	113
445.570	1	120
445.740	1	111
445.911	1	109
446.081	1	110
446.252	1	120
446.422	1	113
446.593	1	115
446.763	1	110
446.934	1	111
447.104	1	104
447.275	1	119
447.445	1	115
447.616	1	119
447.786	1	112
447.957	1	121
448.127	1	103
448.298	1	110
448.468	1	106
448.639	1	99
448.809	1	112
448.979	1	98
449.150	1	125
449.320	1	100
449.491	1	117
449.661	1	112
449.832	1	98
450.002	1	108
450.173	1	116
450.343	1	113
450.514	1	104
450.684	1	102
450.855	1	100
451.025	1	119
451.196	1	97
451.366	1	102
451.537	1	101
451.707	1	79
451.878	1	105
452.048	1	112
452.218	1	114
452.389	1	100
452.559	1	102
452.730	1	104
452.900	1	117
453.071	1	92
453.241	1	100
453.412	1	104
453.582	1	94
453.753	1	100
453.923	1	98
454.093	1	109
454.264	1	112
454.434	1	96
454.605	1	102
454.775	1	90
454.946	1	102
455.116	1	101
455.287	1	89
455.457	1	88
455.628	1	94
455.798	1	103
455.968	1	103
456.139	1	90
456.309	1	95
456.480	1	81
456.650	1	96
456.821	1	94
456.991	1	98
457.161	1	86
457.332	1	99
457.502	1	70
457.673	1	101
457.843	1	99
458.014	1	101
458.184	1	93
458.355	1	96
458.525	1	90
458.695	1	92
458.866	1	98
459.036	1	88
459.207	1	83
459.377	1	87
459.548	1	99
459.718	1	94
459.888	1	94
460.059	1	94
460.229	1	93
460.400	1	104
460.570	1	89
460.740	1	87
460.911	1	95
461.081	1	91
461.252	1	90
461.422	1	86
461.593	1	84
461.763	1	101
461.933	1	92
462.104	1	78
462.274	1	88
462.445	1	83
462.615	1	79
462.785	1	82
462.956	1	88
463.126	1	105
463.297	1	86
463.467	1	87
463.638	1	95
463.808	1	83
463.978	1	73
464.149	1	73
464.319	1	81
464.490	1	93
464.660	1	80
464.830	1	77
465.001	1	89
465.171	1	86
465.342	1	84
465.512	1	75
465.682	1	87
465.853	1	86
466.023	1	81
466.194	1	71
466.364	1	91
466.534	1	82
466.705	1	80
466.875	1	70
467.045	1	80
467.216	1	87
467.386	1	76
467.557	1	75
467.727	1	61
467.897	1	77
468.068	1	83
468.238	1	81
468.409	1	83
468.579	1	77
468.749	1	86
468.920	1	64
469.090	1	73
469.260	1	65
469.431	1	71
469.601	1	81
469.772	1	77
469.942	1	67
470.112	1	74
470.283	1	73
470.453	1	83
470.623	1	77
470.794	1	63
470.964	1	68
471.135	1	84
471.305	1	53
471.475	1	85
471.646	1	61
471.816	1	72
471.986	1	70
472.157	1	88
472.327	1	68
472.497	1	72
472.668	1	61
472.838	1	69
473.009	1	76
473.179	1	67
473.349	1	59
473.520	1	71
473.690	1	68
473.860	1	69
474.031	1	66
474.201	1	78
474.371	1	81
474.542	1	74
474.712	1	73
474.882	1	70
475.053	1	86
475.223	1	70
475.394	1	84
475.564	1	64
475.734	1	68
475.905	1	79
476.075	1	66
476.245	1	83
476.416	1	75
476.586	1	75
476.756	1	74
476.927	1	72
477.097	1	74
477.267	1	68
477.438	1	72
477.608	1	66
477.778	1	62
477.949	1	76
478.119	1	71
478.289	1	71
478.460	1	77
478.630	1	69
478.800	1	67
478.971	1	70
479.141	1	58
479.311	1	68
479.482	1	72
479.652	1	60
479.822	1	64
479.993	1	66
480.163	1	71
480.333	1	66
480.504	1	65
480.674	1	68
480.844	1	49
481.015	1	56
481.185	1	65
481.355	1	69
481.525	1	74
481.696	1	61
481.866	1	60
482.036	1	65
482.207	1	61
482.377	1	62
482.547	1	72
482.718	1	52
482.888	1	62
483.058	1	57
483.229	1	55
483.399	1	48
483.569	1	60
483.740	1	67
483.910	1	53
484.080	1	53
484.250	1	62
484.421	1	54
484.591	1	64
484.761	1	65
484.932	1	72
485.102	1	51
485.272	1	54
485.443	1	65
485.613	1	70
485.783	1	52
485.953	1	53
486.124	1	64
486.294	1	58
486.464	1	56
486.635	1	52
486.805	1	67
486.975	1	53
487.146	1	49
487.316	1	47
487.486	1	58
487.656	1	53
487.827	1	62
487.997	1	44
488.167	1	46
488.338	1	56
488.508	1	52
488.678	1	51
488.848	1	59
489.019	1	55
489.189	1	51
489.359	1	57
489.529	1	48
489.700	1	55
489.870	1	65
490.040	1	49
490.211	1	41
490.381	1	68
490.551	1	53
490.721	1	59
490.892	1	55
491.062	1	55
491.232	1	47
491.402	1	53
491.573	1	48
491.743	1	60
491.913	1	43
492.084	1	53
492.254	1	44
492.424	1	40
492.594	1	40
492.765	1	56
492.935	1	51
493.105	1	58
493.275	1	52
493.446	1	61
493.616	1	58
493.786	1	55
493.956	1	56
494.127	1	49
494.297	1	41
494.467	1	42
494.637	1	59
494.808	1	45
494.978	1	40
495.148	1	48
495.318	1	56
495.489	1	61
495.659	1	51
495.829	1	58
495.999	1	53
496.170	1	52
496.340	1	45
496.510	1	51
496.680	1	45
496.851	1	48
497.021	1	54
497.191	1	44
497.361	1	46
497.532	1	45
497.702	1	36
497.872	1	39
498.042	1	49
498.213	1	42
498.383	1	42
498.553	1	45
498.723	1	48
498.894	1	45
499.064	1	53
499.234	1	50
499.404	1	47
499.574	1	49
499.745	1	46
499.915	1	41
500.085	1	46
500.255	1	44
500.426	1	50
500.596	1	45
500.766	1	38
500.936	1	33
501.106	1	33
501.277	1	58
501.447	1	50
501.617	1	45
501.787	1	41
501.958	1	36
502.128	1	36
502.298	1	43
502.468	1	42
502.638	1	46
502.809	1	39
502.979	1	39
503.149	1	34
503.319	1	35
503.489	1	43
503.660	1	41
503.830	1	34
504.000	1	43
504.170	1	43
504.340	1	41
504.511	1	43
504.681	1	39
504.851	1	37
505.021	1	39
505.192	1	28
505.362	1	46
505.532	1	31
505.702	1	42
505.872	1	37
506.043	1	45
506.213	1	33
506.383	1	40
506.553	1	40
506.723	1	41
506.893	1	34
507.064	1	37
507.234	1	35
507.404	1	31
507.574	1	38
507.744	1	42
507.915	1	42
508.085	1	51
508.255	1	39
508.425	1	29
508.595	1	41
508.766	1	33
508.936	1	21
509.106	1	52
509.276	1	42
509.446	1	35
509.616	1	32
509.787	1	41
509.957	1	38
510.127	1	33
510.297	1	27
510.467	1	31
510.638	1	47
510.808	1	19
510.978	1	32
511.148	1	40
511.318	1	27
511.488	1	34
511.659	1	35
511.829	1	15
511.999	1	35
512.169	1	32
512.339	1	39
512.509	1	33
512.680	1	35
512.850	1	35
513.020	1	35
513.190	1	43
513.360	1	25
513.530	1	40
513.700	1	49
513.871	1	27
514.041	1	32
514.211	1	42
514.381	1	40
514.551	1	37
514.721	1	33
514.892	1	37
515.062	1	34
515.232	1	40
515.402	1	26
515.572	1	28
515.742	1	31
515.912	1	43
516.083	1	28
516.253	1	33
516.423	1	32
516.593	1	35
516.763	1	37
516.933	1	29
517.104	1	27
517.274	1	26
517.444	1	35
517.614	1	16
517.784	1	31
517.954	1	39
518.124	1	22
518.294	1	34
518.465	1	18
518.635	1	28
518.805	1	16
518.975	1	22
519.145	1	30
519.315	1	15
519.485	1	28
519.656	1	46
519.826	1	24
519.996	1	29
520.166	1	25
520.336	1	33
520.506	1	26
520.676	1	23
520.846	1	41
521.017	1	28
521.187	1	21
521.357	1	35
521.527	1	20
521.697	1	28
521.867	1	18
522.037	1	32
522.207	1	24
522.377	1	27
522.548	1	12
522.718	1	30
522.888	1	31
523.058	1	24
523.228	1	26
523.398	1	24
523.568	1	26
523.738	1	29
523.909	1	29
524.079	1	21
524.249	1	17
524.419	1	18
524.589	1	20
524.759	1	19
524.929	1	17
525.099	1	30
525.269	1	28
525.439	1	19
525.610	1	32
525.780	1	17
525.950	1	29
526.120	1	21
526.290	1	26
526.460	1	17
526.630	1	23
526.800	1	20
526.970	1	26
527.140	1	25
527.311	1	23
527.481	1	21
527.651	1	30
527.821	1	11
527.991	1	35
528.161	1	28
528.331	1	23
528.501	1	25
528.671	1	13
528.841	1	20
529.011	1	15
529.181	1	26
529.352	1	20
529.522	1	27
529.692	1	25
529.862	1	20
530.032	1	24
530.202	1	18
530.372	1	25
530.542	1	27
530.712	1	19
530.882	1	27
531.052	1	33
531.222	1	26
531.392	1	27
531.563	1	30
531.733	1	18
531.903	1	15
532.073	1	27
532.243	1	19
532.413	1	27
532.583	1	20
532.753	1	14
532.923	1	13
533.093	1	22
533.263	1	25
533.433	1	16
533.603	1	20
533.773	1	17
533.943	1	24
534.113	1	25
534.284	1	16
534.454	1	29
534.624	1	31
534.794	1	11
534.964	1	25
535.134	1	12
535.304	1	25
535.474	1	24
535.644	1	17
535.814	1	14
535.984	1	12
536.154	1	17
536.324	1	17
536.494	1	20
536.664	1	22
536.834	1	20
537.004	1	22
537.174	1	30
537.344	1	24
537.514	1	13
537.685	1	28
537.855	1	25
538.025	1	17
538.195	1	30
538.365	1	32
538.535	1	20
538.705	1	17
538.875	1	17
539.045	1	28
539.215	1	22
539.385	1	18
539.555	1	19
539.725	1	19
539.895	1	11
540.065	1	36
540.235	1	23
540.405	1	14
540.575	1	13
540.745	1	29
540.915	1	31
541.085	1	19
541.255	1	12
541.425	1	25
541.595	1	16
541.765	1	23
541.935	1	6
542.105	1	12
542.275	1	16
542.445	1	8
542.615	1	11
542.785	1	25
542.955	1	17
543.125	1	13
543.295	1	17
543.465	1	18
543.635	1	25
543.805	1	27
543.975	1	17
544.145	1	21
544.315	1	22
544.485	1	12
544.655	1	16
544.825	1	14
544.995	1	16
545.165	1	21
545.335	1	20
545.505	1	13
545.675	1	20
545.845	1	20
546.015	1	19
546.185	1	18
546.355	1	24
546.525	1	12
546.695	1	9
546.865	1	18
547.035	1	25
547.205	1	8
547.375	1	22
547.545	1	19
547.715	1	6
547.885	1	16
548.055	1	11
548.225	1	24
548.395	1	19
548.565	1	23
548.735	1	8
548.905	1	14
549.075	1	22
549.245	1	14
549.415	1	10
549.585	1	16
549.755	1	17
549.925	1	8
550.095	1	7
550.265	1	12
550.435	1	12
550.605	1	6
550.775	1	13
550.945	1	29
551.115	1	26
551.285	1	17
551.455	1	5
551.625	1	14
551.795	1	20
551.965	1	13
552.135	1	6
552.305	1	24
552.475	1	8
552.645	1	7
552.815	1	6
552.985	1	14
553.155	1	13
553.325	1	18
553.495	1	5
553.665	1	12
553.835	1	20
554.004	1	12
554.174	1	18
554.344	1	17
554.514	1	16
554.684	1	21
554.854	1	20
555.024	1	9
555.194	1	1
555.364	1	23
555.534	1	16
555.704	1	10
555.874	1	17
556.044	1	15
556.214	1	9
556.384	1	3
556.554	1	24
556.724	1	17
556.894	1	12
557.064	1	11
557.234	1	8
557.404	1	20
557.573	1	13
557.743	1	11
557.913	1	4
558.083	1	7
558.253	1	15
558.423	1	15
558.593	1	12
558.763	1	6
558.933	1	19
559.103	1	24
559.273	1	13
559.443	1	10
559.613	1	14
559.783	1	10
559.953	1	7
560.122	1	24
560.292	1	14
560.462	1	11
560.632	1	22
560.802	1	8
560.972	1	21
561.142	1	15
561.312	1	11
561.482	1	14
561.652	1	20
561.822	1	5
561.992	1	8
562.162	1	9
562.331	1	16
562.501	1	13
562.671	1	13
562.841	1	5
563.011	1	6
563.181	1	15
563.351	1	6
563.521	1	18
563.691	1	1
563.861	1	9
564.031	1	10
564.201	1	23
564.370	1	5
564.540	1	17
564.710	1	-2
564.880	1	15
565.050	1	17
565.220	1	8
565.390	1	13
565.560	1	13
565.730	1	17
565.900	1	13
566.069	1	20
566.239	1	14
566.409	1	16
566.579	1	18
566.749	1	4
566.919	1	16
567.089	1	6
567.259	1	16
567.429	1	5
567.599	1	12
567.768	1	11
567.938	1	13
568.108	1	12
568.278	1	8
568.448	1	-2
568.618	1	11
568.788	1	18
568.958	1	3
569.128	1	13
569.297	1	5
569.467	1	5
569.637	1	15
569.807	1	7
569.977	1	22
570.147	1	13
570.317	1	4
570.487	1	9
570.656	1	15
570.826	1	9
570.996	1	-5
571.166	1	22
571.336	1	3
571.506	1	14
571.676	1	15
571.846	1	17
572.015	1	9
572.185	1	8
572.355	1	8
572.525	1	16
572.695	1	4
572.865	1	11
573.035	1	9
573.205	1	11
573.374	1	4
573.544	1	13
573.714	1	17
573.884	1	12
574.054	1	20
574.224	1	8
574.394	1	11
574.563	1	-1
574.733	1	8
574.903	1	13
575.073	1	11
575.243	1	3
575.413	1	15
575.583	1	3
575.752	1	19
575.922	1	14
576.092	1	13
576.262	1	15
576.432	1	9
576.602	1	7
576.772	1	30
576.941	1	10
577.111	1	7
577.281	1	0
577.451	1	2
577.621	1	20
577.791	1	7
577.960	1	7
578.130	1	13
578.300	1	8
578.470	1	22
578.640	1	16
578.810	1	13
578.979	1	16
579.149	1	4
579.319	1	3
579.489	1	8
579.659	1	12
579.829	1	15
579.998	1	15
580.168	1	29
580.338	1	16
580.508	1	3
580.678	1	9
580.848	1	16
581.017	1	11
581.187	1	13
581.357	1	10
581.527	1	19
581.697	1	15
581.867	1	19
582.036	1	12
582.206	1	9
582.376	1	20
582.546	1	8
582.716	1	7
582.885	1	6
583.055	1	7
583.225	1	2
583.395	1	22
583.565	1	7
583.735	1	15
583.904	1	11
584.074	1	13
584.244	1	5
584.414	1	1
584.584	1	11
584.753	1	3
584.923	1	12
585.093	1	9
585.263	1	12
585.433	1	22
585.602	1	0
585.772	1	2
585.942	1	1
586.112	1	12
586.282	1	11
586.451	1	3
586.621	1	4
586.791	1	15
586.961	1	7
587.131	1	8
587.300	1	3
587.470	1	17
587.640	1	4
587.810	1	4
587.980	1	5
588.149	1	14
588.319	1	4
588.489	1	15
588.659	1	3
588.829	1	10
588.998	1	12
589.168	1	17
589.338	1	3
589.508	1	11
589.677	1	-3
589.847	1	-3
590.017	1	33
590.187	1	-4
590.357	1	23
590.526	1	23
590.696	1	11
590.866	1	14
591.036	1	8
591.205	1	25
591.375	1	4
591.545	1	3
591.715	1	19
591.885	1	3
592.054	1	13
592.224	1	5
592.394	1	10
592.564	1	12
592.733	1	7
592.903	1	15
593.073	1	11
593.243	1	12
593.412	1	11
593.582	1	11
593.752	1	0
593.922	1	15
594.091	1	4
594.261	1	8
594.431	1	17
594.601	1	12
594.771	1	20
594.940	1	9
595.110	1	10
595.280	1	23
595.450	1	6
595.619	1	10
595.789	1	6
595.959	1	8
596.129	1	3
596.298	1	7
596.468	1	13
596.638	1	19
596.808	1	9
596.977	1	10
597.147	1	12
597.317	1	4
597.487	1	16
597.656	1	11
597.826	1	17
597.996	1	13
598.166	1	11
598.335	1	3
598.505	1	11
598.675	1	-5
598.844	1	4
599.014	1	4
599.184	1	10
599.354	1	6
599.523	1	9
599.693	1	2
599.863	1	16
600.033	1	6
600.202	1	12
600.372	1	6
600.542	1	22
600.712	1	2
600.881	1	3
601.051	1	19
601.221	1	21
601.390	1	2
601.560	1	14
601.730	1	21
601.900	1	13
602.069	1	7
602.239	1	6
602.409	1	8
602.578	1	13
602.748	1	4
602.918	1	8
603.088	1	8
603.257	1	14
603.427	1	11
603.597	1	16
603.767	1	13
603.936	1	9
604.106	1	15
604.276	1	14
604.445	1	17
604.615	1	13
604.785	1	11
604.954	1	16
605.124	1	11
605.294	1	16
605.464	1	3
605.633	1	9
605.803	1	16
605.973	1	15
606.142	1	15
606.312	1	6
606.482	1	12
606.652	1	17
606.821	1	3
606.991	1	15
607.161	1	7
607.330	1	23
607.500	1	13
607.670	1	9
607.839	1	17
608.009	1	26
608.179	1	18
608.348	1	18
608.518	1	9
608.688	1	19
608.858	1	5
609.027	1	5
609.197	1	12
609.367	1	16
609.536	1	16
609.706	1	9
609.876	1	13
610.045	1	11
610.215	1	13
610.385	1	10
610.554	1	19
610.724	1	23
610.894	1	13
611.063	1	15
611.233	1	7
611.403	1	12
611.572	1	16
611.742	1	12
611.912	1	18
612.081	1	11
612.251	1	15
612.421	1	16
612.590	1	8
612.760	1	7
612.930	1	9
613.099	1	3
613.269	1	19
613.439	1	14
613.608	1	4
613.778	1	13
613.948	1	14
614.117	1	15
614.287	1	23
614.457	1	23
614.626	1	19
614.796	1	6
614.966	1	6
615.135	1	12
615.305	1	23
615.475	1	8
615.644	1	17
615.814	1	15
615.984	1	11
616.153	1	3
616.323	1	18
616.493	1	8
616.662	1	20
616.832	1	16
617.002	1	6
617.171	1	10
617.341	1	16
617.511	1	0
617.680	1	7
617.850	1	13
618.019	1	10
618.189	1	19
618.359	1	16
618.528	1	14
618.698	1	4
618.868	1	6
619.037	1	14
619.207	1	9
619.377	1	0
619.546	1	19
619.716	1	7
619.885	1	13
620.055	1	0
620.225	1	18
620.394	1	5
620.564	1	22
620.734	1	11
620.903	1	16
621.073	1	14
621.242	1	19
621.412	1	9
621.582	1	9
621.751	1	13
621.921	1	25
622.091	1	17
622.260	1	20
622.430	1	27
622.599	1	8
622.769	1	19
622.939	1	14
623.108	1	22
623.278	1	3
623.448	1	5
623.617	1	16
623.787	1	17
623.956	1	22
624.126	1	11
624.296	1	11
624.465	1	22
624.635	1	24
624.804	1	23
624.974	1	19
625.144	1	19
625.313	1	13
625.483	1	12
625.652	1	12
625.822	1	9
625.992	1	18
626.161	1	18
626.331	1	14
626.501	1	12
626.670	1	16
626.840	1	12
627.009	1	14
627.179	1	19
627.348	1	24
627.518	1	21
627.688	1	24
627.857	1	23
628.027	1	10
628.196	1	19
628.366	1	16
628.536	1	16
628.705	1	11
628.875	1	14
629.044	1	12
629.214	1	18
629.384	1	20
629.553	1	24
629.723	1	21
629.892	1	13
630.062	1	16
630.232	1	4
630.401	1	17
630.571	1	14
630.740	1	14
630.910	1	17
631.079	1	23
631.249	1	14
631.419	1	28
631.588	1	11
631.758	1	20
631.927	1	17
632.097	1	15
632.266	1	4
632.436	1	16
632.606	1	11
632.775	1	14
632.945	1	12
633.114	1	23
633.284	1	23
633.453	1	11
633.623	1	10
633.793	1	15
633.962	1	22
634.132	1	19
634.301	1	18
634.471	1	24
634.640	1	17
634.810	1	15
634.979	1	17
635.149	1	30
635.319	1	13
635.488	1	19
635.658	1	11
635.827	1	8
635.997	1	24
636.166	1	24
636.336	1	17
636.505	1	22
636.675	1	21
636.845	1	18
637.014	1	25
637.184	1	23
637.353	1	25
637.523	1	16
637.692	1	21
637.862	1	14
638.031	1	14
638.201	1	13
638.370	1	24
638.540	1	21
638.710	1	6
638.879	1	6
639.049	1	20
639.218	1	16
639.388	1	14
639.557	1	17
639.727	1	25
639.896	1	23
640.066	1	20
640.235	1	20
640.405	1	24
640.574	1	14
640.744	1	15
640.914	1	24
641.083	1	19
641.253	1	18
641.422	1	14
641.592	1	27
641.761	1	21
641.931	1	15
642.100	1	35
642.270	1	14
642.439	1	20
642.609	1	27
642.778	1	20
642.948	1	16
643.117	1	22
643.287	1	22
643.456	1	12
643.626	1	36
643.795	1	7
643.965	1	26
644.134	1	14
644.304	1	22
644.473	1	24
644.643	1	23
644.812	1	21
644.982	1	20
645.151	1	19
645.321	1	7
645.490	1	30
645.660	1	14
645.829	1	19
645.999	1	25
646.168	1	25
646.338	1	32
646.507	1	15
646.677	1	24
646.846	1	20
647.016	1	8
647.185	1	12
647.355	1	5
647.524	1	32
647.694	1	29
647.863	1	26
648.033	1	23
648.202	1	25
648.372	1	24
648.541	1	12
648.711	1	21
648.880	1	12
649.050	1	23
649.219	1	13
649.389	1	30
649.558	1	16
649.728	1	28
649.897	1	15
650.067	1	26
650.236	1	25
650.406	1	22
650.575	1	35
650.745	1	24
650.914	1	21
651.084	1	11
651.253	1	22
651.423	1	23
651.592	1	23
651.762	1	9
651.931	1	21
652.101	1	29
652.270	1	26
652.440	1	30
652.609	1	10
652.778	1	25
652.948	1	33
653.117	1	29
653.287	1	33
653.456	1	38
653.626	1	21
653.795	1	31
653.965	1	33
654.134	1	34
654.304	1	21
654.473	1	24
654.643	1	27
654.812	1	30
654.982	1	20
655.151	1	19
655.320	1	16
655.490	1	16
655.659	1	24
655.829	1	26
655.998	1	23
656.168	1	30
656.337	1	25
656.507	1	30
656.676	1	33
656.846	1	22
657.015	1	25
657.184	1	26
657.354	1	32
657.523	1	25
657.693	1	32
657.862	1	26
658.032	1	25
658.201	1	25
658.371	1	30
658.540	1	25
658.709	1	19
658.879	1	29
659.048	1	19
659.218	1	27
659.387	1	26
659.557	1	28
659.726	1	29
659.895	1	23
660.065	1	17
660.234	1	27
660.404	1	30
660.573	1	22
660.743	1	23
660.912	1	30
661.081	1	35
661.251	1	23
661.420	1	25
661.590	1	25
661.759	1	35
661.929	1	30
662.098	1	34
662.267	1	23
662.437	1	26
662.606	1	34
662.776	1	25
662.945	1	28
663.115	1	35
663.284	1	20
663.453	1	27
663.623	1	28
663.792	1	17
663.962	1	31
664.131	1	26
664.300	1	42
664.470	1	29
664.639	1	29
664.809	1	32
664.978	1	36
665.148	1	32
665.317	1	27
665.486	1	31
665.656	1	30
665.825	1	28
665.995	1	28
666.164	1	34
666.333	1	22
666.503	1	30
666.672	1	28
666.842	1	19
667.011	1	32
667.180	1	30
667.350	1	22
667.519	1	31
667.689	1	21
667.858	1	36
668.027	1	21
668.197	1	22
668.366	1	29
668.536	1	30
668.705	1	28
668.874	1	32
669.044	1	21
669.213	1	32
669.382	1	33
669.552	1	33
669.721	1	32
669.891	1	37
670.060	1	30
670.229	1	34
670.399	1	14
670.568	1	28
670.738	1	37
670.907	1	10
671.076	1	26
671.246	1	35
671.415	1	22
671.584	1	34
671.754	1	28
671.923	1	20
672.093	1	30
672.262	1	27
672.431	1	34
672.601	1	26
672.770	1	32
672.939	1	41
673.109	1	27
673.278	1	34
673.448	1	34
673.617	1	32
673.786	1	38
