325.333	1	1
325.504	1	4
325.675	1	9
325.846	1	6
326.017	1	6
326.188	1	-1
326.359	1	-4
326.531	1	-13
326.702	1	-2
326.873	1	5
327.044	1	2
327.215	1	6
327.386	1	7
327.557	1	-1
327.728	1	2
327.899	1	6
328.070	1	4
328.241	1	-5
328.412	1	-7
328.583	1	4
328.754	1	-9
328.926	1	6
329.097	1	-7
329.268	1	6
329.439	1	0
329.610	1	1
329.781	1	0
329.952	1	5
330.123	1	7
330.294	1	-3
330.465	1	4
330.636	1	9
330.807	1	2
330.978	1	3
331.149	1	4
331.320	1	0
331.492	1	0
331.663	1	1
331.834	1	5
332.005	1	-1
332.176	1	15
332.347	1	-2
332.518	1	-5
332.689	1	-2
332.860	1	3
333.031	1	16
333.202	1	-3
333.373	1	0
333.544	1	4
333.715	1	8
333.886	1	-2
334.057	1	4
334.228	1	-5
334.399	1	1
334.570	1	14
334.741	1	5
334.912	1	7
335.084	1	18
335.255	1	-2
335.426	1	-9
335.597	1	0
335.768	1	-1
335.939	1	7
336.110	1	-9
336.281	1	-9
336.452	1	1
336.623	1	-3
336.794	1	8
336.965	1	-1
337.136	1	13
337.307	1	6
337.478	1	-11
337.649	1	-4
337.820	1	2
337.991	1	-5
338.162	1	10
338.333	1	-3
338.504	1	9
338.675	1	8
338.846	1	6
339.017	1	-7
339.188	1	-5
339.359	1	-8
339.530	1	-3
339.701	1	5
339.872	1	8
340.043	1	3
340.214	1	3
340.385	1	6
340.556	1	-10
340.727	1	11
340.898	1	5
341.069	1	3
341.240	1	-1
341.411	1	5
341.582	1	-5
341.753	1	-2
341.924	1	-3
342.095	1	2
342.266	1	6
342.437	1	0
342.608	1	-1
342.779	1	3
342.950	1	3
343.121	1	12
343.292	1	-6
343.463	1	1
343.634	1	-6
343.805	1	3
343.976	1	8
344.147	1	4
344.318	1	-3
344.489	1	5
344.660	1	13
344.831	1	-3
345.002	1	-13
345.173	1	10
345.344	1	7
345.515	1	-1
345.686	1	-5
345.857	1	1
346.028	1	-2
346.199	1	-12
346.370	1	-2
346.541	1	-3
346.712	1	-5
346.883	1	-3
347.054	1	-4
347.225	1	3
347.396	1	6
347.567	1	4
347.738	1	-4
347.909	1	11
348.080	1	-2
348.251	1	4
348.422	1	8
348.593	1	-5
348.764	1	4
348.935	1	6
349.106	1	-7
349.277	1	1
349.448	1	13
349.619	1	6
349.790	1	1
349.961	1	7
350.132	1	4
350.303	1	-4
350.474	1	5
350.645	1	1
350.816	1	1
350.987	1	11
351.157	1	3
351.328	1	7
351.499	1	2
351.670	1	-1
351.841	1	7
352.012	1	10
352.183	1	5
352.354	1	7
352.525	1	5
352.696	1	13
352.867	1	-2
353.038	1	11
353.209	1	2
353.380	1	2
353.551	1	-6
353.722	1	8
353.893	1	-4
354.064	1	13
354.235	1	-3
354.406	1	0
354.576	1	3
354.747	1	-7
354.918	1	12
355.089	1	-3
355.260	1	7
355.431	1	11
355.602	1	-12
355.773	1	-4
355.944	1	-2
356.115	1	-7
356.286	1	4
356.457	1	1
356.628	1	2
356.799	1	-1
356.970	1	10
357.141	1	1
357.311	1	-1
357.482	1	-1
357.653	1	3
357.824	1	7
357.995	1	7
358.166	1	0
358.337	1	-4
358.508	1	1
358.679	1	9
358.850	1	5
359.021	1	-4
359.192	1	6
359.363	1	4
359.533	1	-1
359.704	1	-1
359.875	1	-4
360.046	1	2
360.217	1	-11
360.388	1	-6
360.559	1	-1
360.730	1	12
360.901	1	-4
361.072	1	16
361.243	1	-6
361.414	1	0
361.584	1	-2
361.755	1	5
361.926	1	2
362.097	1	4
362.268	1	4
362.439	1	-3
362.610	1	3
362.781	1	-3
362.952	1	-7
363.123	1	-1
363.293	1	-3
363.464	1	9
363.635	1	2
363.806	1	2
363.977	1	-1
364.148	1	4
364.319	1	-1
364.490	1	6
364.661	1	-2
364.832	1	7
365.002	1	4
365.173	1	10
365.344	1	10
365.515	1	2
365.686	1	0
365.857	1	0
366.028	1	5
366.199	1	-3
366.370	1	5
366.540	1	4
366.711	1	-14
366.882	1	-4
367.053	1	-9
367.224	1	12
367.395	1	1
367.566	1	14
367.737	1	10
367.908	1	14
368.078	1	3
368.249	1	11
368.420	1	-13
368.591	1	4
368.762	1	14
368.933	1	-2
369.104	1	-13
369.274	1	-3
369.445	1	7
369.616	1	2
369.787	1	11
369.958	1	8
370.129	1	-7
370.300	1	6
370.471	1	-3
370.641	1	1
370.812	1	4
370.983	1	0
371.154	1	5
371.325	1	10
371.496	1	4
371.667	1	3
371.837	1	-2
372.008	1	4
372.179	1	-8
372.350	1	16
372.521	1	-3
372.692	1	1
372.863	1	5
373.033	1	-12
373.204	1	-3
373.375	1	1
373.546	1	-1
373.717	1	-2
373.888	1	11
374.059	1	11
374.229	1	14
374.400	1	-1
374.571	1	2
374.742	1	4
374.913	1	5
375.084	1	1
375.254	1	-1
375.425	1	13
375.596	1	7
375.767	1	1
375.938	1	10
376.109	1	9
376.279	1	-5
376.450	1	4
376.621	1	9
376.792	1	-7
376.963	1	-9
377.134	1	9
377.304	1	-5
377.475	1	-4
377.646	1	-1
377.817	1	-2
377.988	1	-4
378.159	1	8
378.329	1	8
378.500	1	1
378.671	1	10
378.842	1	-1
379.013	1	-5
379.184	1	4
379.354	1	2
379.525	1	-1
379.696	1	8
379.867	1	9
380.038	1	-1
380.209	1	2
380.379	1	7
380.550	1	-7
380.721	1	6
380.892	1	2
381.063	1	5
381.233	1	2
381.404	1	2
381.575	1	3
381.746	1	0
381.917	1	-2
382.087	1	9
382.258	1	0
382.429	1	-6
382.600	1	19
382.771	1	1
382.941	1	-3
383.112	1	-1
383.283	1	-4
383.454	1	7
383.625	1	3
383.795	1	5
383.966	1	2
384.137	1	15
384.308	1	6
384.479	1	5
384.649	1	8
384.820	1	3
384.991	1	0
385.162	1	7
385.333	1	-5
385.503	1	-2
385.674	1	-16
385.845	1	2
386.016	1	4
386.187	1	-4
386.357	1	6
386.528	1	10
386.699	1	-11
386.870	1	12
387.041	1	0
387.211	1	-2
387.382	1	4
387.553	1	2
387.724	1	10
387.894	1	-1
388.065	1	6
388.236	1	11
388.407	1	-9
388.578	1	-4
388.748	1	-2
388.919	1	7
389.090	1	1
389.261	1	1
389.431	1	3
389.602	1	5
389.773	1	10
389.944	1	4
390.114	1	-2
390.285	1	-5
390.456	1	-8
390.627	1	12
390.798	1	0
390.968	1	2
391.139	1	-4
391.310	1	-4
391.481	1	3
391.651	1	3
391.822	1	2
391.993	1	1
392.164	1	-7
392.334	1	3
392.505	1	2
392.676	1	9
392.847	1	8
393.017	1	11
393.188	1	-1
393.359	1	-6
393.530	1	-5
393.700	1	-6
393.871	1	0
394.042	1	-5
394.213	1	-2
394.383	1	8
394.554	1	-4
394.725	1	8
394.896	1	0
395.066	1	-1
395.237	1	-2
395.408	1	0
395.579	1	-5
395.749	1	-8
395.920	1	-8
396.091	1	5
396.262	1	-13
396.432	1	6
396.603	1	14
396.774	1	6
396.945	1	1
397.115	1	-3
397.286	1	-5
397.457	1	3
397.627	1	3
397.798	1	0
397.969	1	-12
398.140	1	-5
398.310	1	10
398.481	1	4
398.652	1	-4
398.823	1	-7
398.993	1	-1
399.164	1	6
399.335	1	16
399.505	1	6
399.676	1	-1
399.847	1	-6
400.018	1	-6
400.188	1	-1
400.359	1	6
400.530	1	-5
400.700	1	-9
400.871	1	-8
401.042	1	11
401.213	1	-1
401.383	1	3
401.554	1	-4
401.725	1	5
401.895	1	-4
402.066	1	0
402.237	1	-1
402.408	1	1
402.578	1	6
402.749	1	6
402.920	1	4
403.090	1	-2
403.261	1	6
403.432	1	-4
403.603	1	7
403.773	1	11
403.944	1	2
404.115	1	13
404.285	1	8
404.456	1	1
404.627	1	-9
404.797	1	2
404.968	1	-2
405.139	1	0
405.310	1	5
405.480	1	4
405.651	1	-6
405.822	1	-5
405.992	1	5
406.163	1	2
406.334	1	-14
406.504	1	-3
406.675	1	5
406.846	1	-1
407.016	1	6
407.187	1	10
407.358	1	-6
407.528	1	-6
407.699	1	-15
407.870	1	-6
408.041	1	-3
408.211	1	17
408.382	1	-3
408.553	1	-5
408.723	1	4
408.894	1	-2
409.065	1	3
409.235	1	-4
409.406	1	4
409.577	1	-13
409.747	1	4
409.918	1	-5
410.089	1	-2
410.259	1	9
410.430	1	0
410.601	1	-2
410.771	1	3
410.942	1	8
411.113	1	1
411.283	1	-1
411.454	1	7
411.625	1	2
411.795	1	2
411.966	1	1
412.137	1	-2
412.307	1	-5
412.478	1	-7
412.649	1	2
412.819	1	-3
412.990	1	-4
413.161	1	5
413.331	1	-7
413.502	1	10
413.672	1	4
413.843	1	6
414.014	1	-6
414.184	1	6
414.355	1	-1
414.526	1	-3
414.696	1	11
414.867	1	2
415.038	1	-11
415.208	1	1
415.379	1	9
415.550	1	10
415.720	1	1
415.891	1	2
416.062	1	-4
416.232	1	4
416.403	1	5
416.573	1	5
416.744	1	-4
416.915	1	-3
417.085	1	0
417.256	1	-3
417.427	1	4
417.597	1	7
417.768	1	7
417.939	1	4
418.109	1	-4
418.280	1	8
418.450	1	10
418.621	1	-13
418.792	1	-1
418.962	1	8
419.133	1	17
419.304	1	-3
419.474	1	-3
419.645	1	1
419.815	1	1
419.986	1	8
420.157	1	10
420.327	1	13
420.498	1	3
420.669	1	-4
420.839	1	7
421.010	1	7
421.180	1	11
421.351	1	3
421.522	1	9
421.692	1	-3
421.863	1	0
422.033	1	11
422.204	1	0
422.375	1	0
422.545	1	9
422.716	1	0
422.886	1	-3
423.057	1	11
423.228	1	1
423.398	1	-2
423.569	1	8
423.740	1	-4
423.910	1	-9
424.081	1	-7
424.251	1	3
424.422	1	3
424.593	1	-2
424.763	1	7
424.934	1	6
425.104	1	0
425.275	1	1
425.445	1	-2
425.616	1	-1
425.787	1	-14
425.957	1	3
426.128	1	7
426.298	1	9
426.469	1	-8
426.640	1	0
426.810	1	4
426.981	1	4
427.151	1	5
427.322	1	4
427.493	1	5
427.663	1	6
427.834	1	1
428.004	1	7
428.175	1	7
428.345	1	-4
428.516	1	-8
428.687	1	5
428.857	1	-5
429.028	1	-9
429.198	1	4
429.369	1	1
429.540	1	4
429.710	1	-5
429.881	1	4
430.051	1	5
430.222	1	7
430.392	1	2
430.563	1	9
430.734	1	10
430.904	1	6
431.075	1	1
431.245	1	0
431.416	1	13
431.586	1	-4
431.757	1	1
431.927	1	3
432.098	1	2
432.269	1	3
432.439	1	-4
432.610	1	0
432.780	1	14
432.951	1	-5
433.121	1	-4
433.292	1	8
433.462	1	7
433.633	1	5
433.804	1	8
433.974	1	2
434.145	1	19
434.315	1	1
434.486	1	-5
434.656	1	3
434.827	1	-1
434.997	1	-1
435.168	1	8
435.339	1	1
435.509	1	6
435.680	1	3
435.850	1	5
436.021	1	2
436.191	1	-2
436.362	1	4
436.532	1	-4
436.703	1	-6
436.873	1	9
437.044	1	-15
437.214	1	-2
437.385	1	-3
437.556	1	-2
437.726	1	16
437.897	1	14
438.067	1	-8
438.238	1	4
438.408	1	2
438.579	1	-6
438.749	1	-5
438.920	1	-7
439.090	1	0
439.261	1	-10
439.431	1	5
439.602	1	3
439.772	1	3
439.943	1	8
440.113	1	3
440.284	1	4
440.455	1	6
440.625	1	4
440.796	1	4
440.966	1	0
441.137	1	-2
441.307	1	1
441.478	1	12
441.648	1	0
441.819	1	9
441.989	1	2
442.160	1	8
442.330	1	2
442.501	1	6
442.671	1	-1
442.842	1	-6
443.012	1	-2
443.183	1	7
443.353	1	-3
443.524	1	8
443.694	1	2
443.865	1	-5
444.035	1	5
444.206	1	-7
444.376	1	-9
444.547	1	10
444.717	1	5
444.888	1	-5
445.058	1	7
445.229	1	-3
445.399	1	-4
445.570	1	1
445.740	1	-11
445.911	1	-4
446.081	1	-10
446.252	1	-1
446.422	1	2
446.593	1	-7
446.763	1	5
446.934	1	0
447.104	1	3
447.275	1	1
447.445	1	3
447.616	1	9
447.786	1	-4
447.957	1	4
448.127	1	2
448.298	1	6
448.468	1	6
448.639	1	0
448.809	1	4
448.979	1	-5
449.150	1	9
449.320	1	11
449.491	1	11
449.661	1	-3
449.832	1	-1
450.002	1	12
450.173	1	2
450.343	1	-3
450.514	1	6
450.684	1	-7
450.855	1	0
451.025	1	13
451.196	1	-2
451.366	1	8
451.537	1	-3
451.707	1	-17
451.878	1	2
452.048	1	8
452.218	1	3
452.389	1	3
452.559	1	7
452.730	1	14
452.900	1	3
453.071	1	-14
453.241	1	-3
453.412	1	-4
453.582	1	2
453.753	1	-8
453.923	1	7
454.093	1	7
454.264	1	9
454.434	1	-7
454.605	1	2
454.775	1	3
454.946	1	4
455.116	1	4
455.287	1	-2
455.457	1	-5
455.628	1	3
455.798	1	6
455.968	1	5
456.139	1	-3
456.309	1	0
456.480	1	2
456.650	1	1
456.821	1	-7
456.991	1	11
457.161	1	-4
457.332	1	9
457.502	1	-8
457.673	1	3
457.843	1	4
458.014	1	2
458.184	1	2
458.355	1	4
458.525	1	7
458.695	1	-1
458.866	1	2
459.036	1	6
459.207	1	-11
459.377	1	6
459.548	1	12
459.718	1	-2
459.888	1	2
460.059	1	8
460.229	1	8
460.400	1	8
460.570	1	2
460.740	1	1
460.911	1	0
461.081	1	-1
461.252	1	0
461.422	1	6
461.593	1	-3
461.763	1	8
461.933	1	6
462.104	1	-1
462.274	1	0
462.445	1	0
462.615	1	1
462.785	1	-2
462.956	1	12
463.126	1	7
463.297	1	0
463.467	1	3
463.638	1	0
463.808	1	-4
463.978	1	-13
464.149	1	3
464.319	1	-4
464.490	1	14
464.660	1	1
464.830	1	1
465.001	1	1
465.171	1	-3
465.342	1	2
465.512	1	-2
465.682	1	-2
465.853	1	3
466.023	1	-5
466.194	1	-1
466.364	1	9
466.534	1	0
466.705	1	4
466.875	1	-2
467.045	1	0
467.216	1	16
467.386	1	-3
467.557	1	-7
467.727	1	-2
467.897	1	-5
468.068	1	3
468.238	1	1
468.409	1	-5
468.579	1	-9
468.749	1	3
468.920	1	-9
469.090	1	5
469.260	1	-3
469.431	1	0
469.601	1	12
469.772	1	-4
469.942	1	-1
470.112	1	5
470.283	1	0
470.453	1	3
470.623	1	-3
470.794	1	-12
470.964	1	0
471.135	1	11
471.305	1	-4
471.475	1	5
471.646	1	-7
471.816	1	-6
471.986	1	0
472.157	1	11
472.327	1	-7
472.497	1	8
472.668	1	-8
472.838	1	9
473.009	1	4
473.179	1	-3
473.349	1	-11
473.520	1	6
473.690	1	1
473.860	1	1
474.031	1	0
474.201	1	8
474.371	1	9
474.542	1	6
474.712	1	-2
474.882	1	4
475.053	1	8
475.223	1	-6
475.394	1	2
475.564	1	11
475.734	1	3
475.905	1	11
476.075	1	5
476.245	1	16
476.416	1	8
476.586	1	7
476.756	1	-2
476.927	1	8
477.097	1	6
477.267	1	-7
477.438	1	10
477.608	1	4
477.778	1	2
477.949	1	-2
478.119	1	13
478.289	1	3
478.460	1	4
478.630	1	8
478.800	1	-10
478.971	1	1
479.141	1	-3
479.311	1	-9
479.482	1	0
479.652	1	0
479.822	1	0
479.993	1	0
480.163	1	2
480.333	1	12
480.504	1	1
480.674	1	5
480.844	1	-4
481.015	1	5
481.185	1	-4
481.355	1	3
481.525	1	2
481.696	1	9
481.866	1	-5
482.036	1	-4
482.207	1	4
482.377	1	1
482.547	1	5
482.718	1	-7
482.888	1	10
483.058	1	-1
483.229	1	-8
483.399	1	-2
483.569	1	-2
483.740	1	1
483.910	1	7
484.080	1	10
484.250	1	-8
484.421	1	-2
484.591	1	3
484.761	1	4
484.932	1	9
485.102	1	7
485.272	1	5
485.443	1	13
485.613	1	2
485.783	1	2
485.953	1	1
486.124	1	5
486.294	1	7
486.464	1	-1
486.635	1	5
486.805	1	4
486.975	1	5
487.146	1	2
487.316	1	-6
487.486	1	6
487.656	1	-2
487.827	1	-5
487.997	1	-12
488.167	1	1
488.338	1	6
488.508	1	-2
488.678	1	-3
488.848	1	7
489.019	1	2
489.189	1	6
489.359	1	3
489.529	1	2
489.700	1	-5
489.870	1	10
490.040	1	-7
490.211	1	-2
490.381	1	7
490.551	1	3
490.721	1	9
490.892	1	6
491.062	1	2
491.232	1	4
491.402	1	0
491.573	1	-11
491.743	1	-6
491.913	1	1
492.084	1	13
492.254	1	-4
492.424	1	7
492.594	1	-3
492.765	1	-1
492.935	1	4
493.105	1	9
493.275	1	10
493.446	1	8
493.616	1	12
493.786	1	2
493.956	1	5
494.127	1	5
494.297	1	3
494.467	1	1
494.637	1	-1
494.808	1	1
494.978	1	-14
495.148	1	-2
495.318	1	-2
495.489	1	4
495.659	1	5
495.829	1	2
495.999	1	0
496.170	1	4
496.340	1	2
496.510	1	0
496.680	1	1
496.851	1	0
497.021	1	-8
497.191	1	-6
497.361	1	3
497.532	1	-4
497.702	1	8
497.872	1	0
498.042	1	8
498.213	1	0
498.383	1	6
498.553	1	-2
498.723	1	2
498.894	1	3
499.064	1	1
499.234	1	5
499.404	1	6
499.574	1	2
499.745	1	11
499.915	1	-5
500.085	1	5
500.255	1	9
500.426	1	6
500.596	1	3
500.766	1	6
500.936	1	-1
501.106	1	-11
501.277	1	3
501.447	1	10
501.617	1	-2
501.787	1	2
501.958	1	-8
502.128	1	-4
502.298	1	4
502.468	1	6
502.638	1	10
502.809	1	-3
502.979	1	-3
503.149	1	-6
503.319	1	-10
503.489	1	6
503.660	1	9
503.830	1	4
504.000	1	8
504.170	1	-2
504.340	1	-2
504.511	1	11
504.681	1	1
504.851	1	1
505.021	1	-6
505.192	1	0
505.362	1	19
505.532	1	2
505.702	1	-3
505.872	1	6
506.043	1	4
506.213	1	-2
506.383	1	2
506.553	1	9
506.723	1	11
506.893	1	2
507.064	1	8
507.234	1	1
507.404	1	2
507.574	1	0
507.744	1	6
507.915	1	4
508.085	1	7
508.255	1	5
508.425	1	-3
508.595	1	9
508.766	1	2
508.936	1	-6
509.106	1	13
509.276	1	0
509.446	1	-3
509.616	1	2
509.787	1	-2
509.957	1	3
510.127	1	-4
510.297	1	1
510.467	1	-4
510.638	1	-4
510.808	1	-4
510.978	1	-6
511.148	1	-2
511.318	1	3
511.488	1	-9
511.659	1	-3
511.829	1	-8
511.999	1	-1
512.169	1	-5
512.339	1	5
512.509	1	-10
512.680	1	-6
512.850	1	7
513.020	1	2
513.190	1	5
513.360	1	-2
513.530	1	3
513.700	1	8
513.871	1	-1
514.041	1	-5
514.211	1	8
514.381	1	7
514.551	1	1
514.721	1	-2
514.892	1	4
515.062	1	0
515.232	1	8
515.402	1	-6
515.572	1	-8
515.742	1	-2
515.912	1	4
516.083	1	5
516.253	1	8
516.423	1	-1
516.593	1	0
516.763	1	7
516.933	1	-2
517.104	1	3
517.274	1	1
517.444	1	8
517.614	1	-3
517.784	1	-3
517.954	1	5
518.124	1	2
518.294	1	4
518.465	1	-7
518.635	1	-3
518.805	1	-8
518.975	1	-1
519.145	1	4
519.315	1	1
519.485	1	-8
519.656	1	3
519.826	1	4
519.996	1	-7
520.166	1	9
520.336	1	5
520.506	1	3
520.676	1	-7
520.846	1	16
521.017	1	-3
521.187	1	5
521.357	1	6
521.527	1	-6
521.697	1	-7
521.867	1	-1
522.037	1	10
522.207	1	3
522.377	1	-1
522.548	1	-2
522.718	1	4
522.888	1	7
523.058	1	3
523.228	1	5
523.398	1	2
523.568	1	3
523.738	1	-2
523.909	1	4
524.079	1	8
524.249	1	-1
524.419	1	9
524.589	1	-3
524.759	1	-3
524.929	1	-1
525.099	1	6
525.269	1	6
525.439	1	-6
525.610	1	18
525.780	1	2
525.950	1	0
526.120	1	-6
526.290	1	3
526.460	1	-4
526.630	1	-1
526.800	1	-1
526.970	1	-8
527.140	1	3
527.311	1	-6
527.481	1	-4
527.651	1	5
527.821	1	-11
527.991	1	4
528.161	1	5
528.331	1	-3
528.501	1	1
528.671	1	4
528.841	1	0
529.011	1	0
529.181	1	-4
529.352	1	4
529.522	1	-3
529.692	1	1
529.862	1	5
530.032	1	-1
530.202	1	5
530.372	1	-5
530.542	1	3
530.712	1	-2
530.882	1	1
531.052	1	8
531.222	1	-4
531.392	1	5
531.563	1	2
531.733	1	-6
531.903	1	-1
532.073	1	8
532.243	1	4
532.413	1	1
532.583	1	-4
532.753	1	5
532.923	1	-1
533.093	1	7
533.263	1	-7
533.433	1	6
533.603	1	-1
533.773	1	-3
533.943	1	6
534.113	1	2
534.284	1	1
534.454	1	3
534.624	1	3
534.794	1	-5
534.964	1	4
535.134	1	-9
535.304	1	3
535.474	1	10
535.644	1	-3
535.814	1	-6
535.984	1	-8
536.154	1	-14
536.324	1	-1
536.494	1	7
536.664	1	0
536.834	1	10
537.004	1	-4
537.174	1	1
537.344	1	0
537.514	1	0
537.685	1	0
537.855	1	9
538.025	1	-3
538.195	1	3
538.365	1	10
538.535	1	-9
538.705	1	7
538.875	1	2
539.045	1	7
539.215	1	9
539.385	1	-1
539.555	1	3
539.725	1	-3
539.895	1	-5
540.065	1	11
540.235	1	5
540.405	1	-3
540.575	1	2
540.745	1	10
540.915	1	14
541.085	1	7
541.255	1	-16
541.425	1	4
541.595	1	-1
541.765	1	7
541.935	1	-5
542.105	1	-9
542.275	1	4
542.445	1	1
542.615	1	5
542.785	1	2
542.955	1	3
543.125	1	-10
543.295	1	3
543.465	1	7
543.635	1	-8
543.805	1	20
543.975	1	0
544.145	1	3
544.315	1	2
544.485	1	10
544.655	1	12
544.825	1	0
544.995	1	7
545.165	1	-8
545.335	1	2
545.505	1	-2
545.675	1	6
545.845	1	-3
546.015	1	7
546.185	1	13
546.355	1	4
546.525	1	9
546.695	1	-2
546.865	1	-2
547.035	1	-3
547.205	1	-10
547.375	1	9
547.545	1	6
547.715	1	-1
547.885	1	9
548.055	1	-3
548.225	1	-2
548.395	1	-7
548.565	1	0
548.735	1	-6
548.905	1	-3
549.075	1	6
549.245	1	-10
549.415	1	-3
549.585	1	3
549.755	1	-1
549.925	1	-6
550.095	1	7
550.265	1	-10
550.435	1	4
550.605	1	0
550.775	1	-1
550.945	1	2
551.115	1	-2
551.285	1	-5
551.455	1	-6
551.625	1	18
551.795	1	5
551.965	1	-3
552.135	1	-2
552.305	1	-9
552.475	1	-6
552.645	1	4
552.815	1	0
552.985	1	7
553.155	1	2
553.325	1	9
553.495	1	-2
553.665	1	3
553.835	1	1
554.004	1	-2
554.174	1	-7
554.344	1	5
554.514	1	-5
554.684	1	0
554.854	1	10
555.024	1	-9
555.194	1	-1
555.364	1	3
555.534	1	0
555.704	1	-3
555.874	1	3
556.044	1	6
556.214	1	-6
556.384	1	-11
556.554	1	5
556.724	1	5
556.894	1	5
557.064	1	-2
557.234	1	0
557.404	1	9
557.573	1	2
557.743	1	9
557.913	1	-8
558.083	1	2
558.253	1	4
558.423	1	0
558.593	1	8
558.763	1	-3
558.933	1	-4
559.103	1	10
559.273	1	0
559.443	1	-5
559.613	1	2
559.783	1	-6
559.953	1	1
560.122	1	2
560.292	1	2
560.462	1	5
560.632	1	8
560.802	1	1
560.972	1	5
561.142	1	0
561.312	1	-2
561.482	1	2
561.652	1	-2
561.822	1	-3
561.992	1	0
562.162	1	2
562.331	1	3
562.501	1	3
562.671	1	10
562.841	1	-2
563.011	1	8
563.181	1	1
563.351	1	-14
563.521	1	1
563.691	1	-1
563.861	1	3
564.031	1	0
564.201	1	17
564.370	1	-1
564.540	1	-4
564.710	1	-1
564.880	1	7
565.050	1	5
565.220	1	-5
565.390	1	5
565.560	1	1
565.730	1	-3
565.900	1	0
566.069	1	4
566.239	1	3
566.409	1	4
566.579	1	1
566.749	1	-4
566.919	1	5
567.089	1	-3
567.259	1	1
567.429	1	2
567.599	1	-4
567.768	1	0
567.938	1	4
568.108	1	3
568.278	1	-1
568.448	1	0
568.618	1	0
568.788	1	-1
568.958	1	0
569.128	1	11
569.297	1	-7
569.467	1	-3
569.637	1	11
569.807	1	-3
569.977	1	2
570.147	1	-1
570.317	1	-10
570.487	1	-3
570.656	1	12
570.826	1	-8
570.996	1	-10
571.166	1	10
571.336	1	-10
571.506	1	1
571.676	1	9
571.846	1	6
572.015	1	10
572.185	1	-3
572.355	1	0
572.525	1	-3
572.695	1	-2
572.865	1	-11
573.035	1	4
573.205	1	3
573.374	1	-5
573.544	1	-8
573.714	1	6
573.884	1	4
574.054	1	0
574.224	1	-1
574.394	1	-3
574.563	1	1
574.733	1	-3
574.903	1	-9
575.073	1	-1
575.243	1	4
575.413	1	11
575.583	1	-5
575.752	1	5
575.922	1	1
576.092	1	0
576.262	1	6
576.432	1	6
576.602	1	4
576.772	1	13
576.941	1	7
577.111	1	-7
577.281	1	-14
577.451	1	-14
577.621	1	-3
577.791	1	12
577.960	1	-7
578.130	1	0
578.300	1	6
578.470	1	-1
578.640	1	13
578.810	1	-1
578.979	1	-3
579.149	1	-8
579.319	1	-3
579.489	1	0
579.659	1	5
579.829	1	-4
579.998	1	6
580.168	1	10
580.338	1	2
580.508	1	9
580.678	1	6
580.848	1	-1
581.017	1	-3
581.187	1	7
581.357	1	-6
581.527	1	6
581.697	1	6
581.867	1	5
582.036	1	2
582.206	1	4
582.376	1	8
582.546	1	-10
582.716	1	0
582.885	1	-2
583.055	1	-7
583.225	1	-8
583.395	1	4
583.565	1	-4
583.735	1	0
583.904	1	10
584.074	1	5
584.244	1	1
584.414	1	-1
584.584	1	16
584.753	1	-4
584.923	1	2
585.093	1	-4
585.263	1	7
585.433	1	3
585.602	1	-7
585.772	1	-2
585.942	1	2
586.112	1	6
586.282	1	2
586.451	1	-2
586.621	1	-14
586.791	1	-3
586.961	1	0
587.131	1	11
587.300	1	-4
587.470	1	14
587.640	1	9
587.810	1	5
587.980	1	-2
588.149	1	5
588.319	1	-11
588.489	1	7
588.659	1	-1
588.829	1	3
588.998	1	7
589.168	1	6
589.338	1	5
589.508	1	11
589.677	1	-9
589.847	1	-11
590.017	1	14
590.187	1	1
590.357	1	5
590.526	1	18
590.696	1	3
590.866	1	-3
591.036	1	-3
591.205	1	12
591.375	1	0
591.545	1	1
591.715	1	2
591.885	1	1
592.054	1	3
592.224	1	0
592.394	1	-2
592.564	1	2
592.733	1	5
592.903	1	2
593.073	1	1
593.243	1	4
593.412	1	4
593.582	1	-3
593.752	1	-3
593.922	1	8
594.091	1	6
594.261	1	-1
594.431	1	-2
594.601	1	7
594.771	1	8
594.940	1	2
595.110	1	1
595.280	1	6
595.450	1	-5
595.619	1	0
595.789	1	2
595.959	1	12
596.129	1	-4
596.298	1	-1
596.468	1	8
596.638	1	8
596.808	1	4
596.977	1	0
597.147	1	6
597.317	1	-9
597.487	1	13
597.656	1	-1
597.826	1	-7
597.996	1	4
598.166	1	4
598.335	1	-6
598.505	1	-7
598.675	1	2
598.844	1	-5
599.014	1	3
599.184	1	4
599.354	1	-7
599.523	1	7
599.693	1	1
599.863	1	9
600.033	1	4
600.202	1	2
600.372	1	1
600.542	1	9
600.712	1	-11
600.881	1	-2
601.051	1	12
601.221	1	3
601.390	1	-9
601.560	1	1
601.730	1	6
601.900	1	-4
602.069	1	3
602.239	1	-10
602.409	1	0
602.578	1	-4
602.748	1	-1
602.918	1	13
603.088	1	2
603.257	1	8
603.427	1	-3
603.597	1	2
603.767	1	5
603.936	1	1
604.106	1	-4
604.276	1	5
604.445	1	5
604.615	1	-1
604.785	1	-3
604.954	1	-3
605.124	1	1
605.294	1	1
605.464	1	-3
605.633	1	0
605.803	1	0
605.973	1	-3
606.142	1	2
606.312	1	6
606.482	1	3
606.652	1	2
606.821	1	-5
606.991	1	1
607.161	1	1
607.330	1	7
607.500	1	1
607.670	1	-6
607.839	1	8
608.009	1	7
608.179	1	5
608.348	1	3
608.518	1	-7
608.688	1	8
608.858	1	3
609.027	1	-2
609.197	1	2
609.367	1	8
609.536	1	11
609.706	1	2
609.876	1	-6
610.045	1	-3
610.215	1	-3
610.385	1	-4
610.554	1	1
610.724	1	3
610.894	1	2
611.063	1	9
611.233	1	-1
611.403	1	2
611.572	1	-3
611.742	1	7
611.912	1	2
612.081	1	-1
612.251	1	6
612.421	1	-4
612.590	1	3
612.760	1	5
612.930	1	8
613.099	1	0
613.269	1	9
613.439	1	-5
613.608	1	5
613.778	1	8
613.948	1	-3
614.117	1	3
614.287	1	3
614.457	1	10
614.626	1	0
614.796	1	-1
614.966	1	-6
615.135	1	1
615.305	1	5
615.475	1	-2
615.644	1	-4
615.814	1	1
615.984	1	-2
616.153	1	-6
616.323	1	11
616.493	1	-7
616.662	1	14
616.832	1	1
617.002	1	-6
617.171	1	1
617.341	1	1
617.511	1	-11
617.680	1	1
617.850	1	7
618.019	1	18
618.189	1	9
618.359	1	2
618.528	1	0
618.698	1	7
618.868	1	-3
619.037	1	-2
619.207	1	-13
619.377	1	-7
619.546	1	9
619.716	1	-2
619.885	1	3
620.055	1	-9
620.225	1	7
620.394	1	-10
620.564	1	10
620.734	1	4
620.903	1	-12
621.073	1	8
621.242	1	1
621.412	1	5
621.582	1	-1
621.751	1	14
621.921	1	8
622.091	1	-6
622.260	1	1
622.430	1	1
622.599	1	2
622.769	1	7
622.939	1	-4
623.108	1	-5
623.278	1	-7
623.448	1	0
623.617	1	-6
623.787	1	1
623.956	1	4
624.126	1	-3
624.296	1	-10
624.465	1	7
624.635	1	14
624.804	1	-3
624.974	1	-1
625.144	1	6
625.313	1	-9
625.483	1	-3
625.652	1	1
625.822	1	-10
625.992	1	2
626.161	1	9
626.331	1	3
626.501	1	-2
626.670	1	5
626.840	1	-1
627.009	1	-5
627.179	1	-2
627.348	1	14
627.518	1	4
627.688	1	2
627.857	1	4
628.027	1	-2
628.196	1	5
628.366	1	6
628.536	1	4
628.705	1	6
628.875	1	3
629.044	1	-2
629.214	1	7
629.384	1	2
629.553	1	4
629.723	1	2
629.892	1	3
630.062	1	-1
630.232	1	4
630.401	1	15
630.571	1	-5
630.740	1	0
630.910	1	11
631.079	1	-4
631.249	1	-1
631.419	1	4
631.588	1	-13
631.758	1	-1
631.927	1	-6
632.097	1	-5
632.266	1	4
632.436	1	15
632.606	1	-1
632.775	1	5
632.945	1	3
633.114	1	12
633.284	1	4
633.453	1	5
633.623	1	-2
633.793	1	1
633.962	1	8
634.132	1	4
634.301	1	-1
634.471	1	6
634.640	1	11
634.810	1	4
634.979	1	4
635.149	1	6
635.319	1	3
635.488	1	6
635.658	1	2
635.827	1	-10
635.997	1	1
636.166	1	-3
636.336	1	-12
636.505	1	9
636.675	1	-4
636.845	1	8
637.014	1	11
637.184	1	12
637.353	1	1
637.523	1	3
637.692	1	2
637.862	1	1
638.031	1	1
638.201	1	5
638.370	1	3
638.540	1	3
638.710	1	-4
638.879	1	-11
639.049	1	5
639.218	1	2
639.388	1	-5
639.557	1	-7
639.727	1	2
639.896	1	-3
640.066	1	-7
640.235	1	9
640.405	1	4
640.574	1	-1
640.744	1	-7
640.914	1	7
641.083	1	0
641.253	1	-4
641.422	1	4
641.592	1	10
641.761	1	1
641.931	1	3
642.100	1	11
642.270	1	0
642.439	1	3
642.609	1	2
642.778	1	-1
642.948	1	-2
643.117	1	-1
643.287	1	1
643.456	1	3
643.626	1	8
643.795	1	-1
643.965	1	6
644.134	1	-7
644.304	1	13
644.473	1	7
644.643	1	-2
644.812	1	4
644.982	1	10
645.151	1	-9
645.321	1	-13
645.490	1	9
645.660	1	-6
645.829	1	-6
645.999	1	-7
646.168	1	2
646.338	1	0
646.507	1	-6
646.677	1	-2
646.846	1	-6
647.016	1	-13
647.185	1	4
647.355	1	-20
647.524	1	1
647.694	1	8
647.863	1	7
648.033	1	2
648.202	1	2
648.372	1	4
648.541	1	7
648.711	1	-9
648.880	1	-6
649.050	1	-12
649.219	1	0
649.389	1	13
649.558	1	2
649.728	1	9
649.897	1	-6
650.067	1	5
650.236	1	-1
650.406	1	2
650.575	1	11
650.745	1	1
650.914	1	-3
651.084	1	-10
651.253	1	-6
651.423	1	5
651.592	1	-7
651.762	1	-4
651.931	1	4
652.101	1	5
652.270	1	4
652.440	1	-1
652.609	1	-8
652.778	1	-8
652.948	1	-3
653.117	1	2
653.287	1	-5
653.456	1	4
653.626	1	6
653.795	1	-2
653.965	1	1
654.134	1	3
654.304	1	-20
654.473	1	9
654.643	1	3
654.812	1	-5
654.982	1	-2
655.151	1	1
655.320	1	6
655.490	1	-1
655.659	1	-6
655.829	1	-2
655.998	1	5
656.168	1	-1
656.337	1	8
656.507	1	-2
656.676	1	5
656.846	1	0
657.015	1	12
657.184	1	14
657.354	1	3
657.523	1	2
657.693	1	7
657.862	1	9
658.032	1	3
658.201	1	-1
658.371	1	8
658.540	1	0
658.709	1	-6
658.879	1	5
659.048	1	3
659.218	1	1
659.387	1	4
659.557	1	4
659.726	1	1
659.895	1	-4
660.065	1	1
660.234	1	10
660.404	1	6
660.573	1	-5
660.743	1	-3
660.912	1	1
661.081	1	10
661.251	1	-2
661.420	1	20
661.590	1	-4
661.759	1	2
661.929	1	8
662.098	1	11
662.267	1	3
662.437	1	-2
662.606	1	5
662.776	1	1
662.945	1	8
663.115	1	4
663.284	1	-5
663.453	1	0
663.623	1	-2
663.792	1	5
663.962	1	0
664.131	1	7
664.300	1	1
664.470	1	-4
664.639	1	8
664.809	1	5
664.978	1	10
665.148	1	-1
665.317	1	-3
665.486	1	11
665.656	1	1
665.825	1	20
665.995	1	-7
666.164	1	-6
666.333	1	9
666.503	1	-9
666.672	1	-7
666.842	1	-4
667.011	1	-1
667.180	1	12
667.350	1	5
667.519	1	-4
667.689	1	1
667.858	1	2
668.027	1	3
668.197	1	1
668.366	1	-9
668.536	1	-5
668.705	1	3
668.874	1	5
669.044	1	2
669.213	1	10
669.382	1	-10
669.552	1	10
669.721	1	9
669.891	1	6
670.060	1	7
670.229	1	12
670.399	1	-2
670.568	1	15
670.738	1	9
670.907	1	6
671.076	1	-3
671.246	1	-3
671.415	1	-4
671.584	1	1
671.754	1	-3
671.923	1	3
672.093	1	3
672.262	1	0
672.431	1	-2
672.601	1	3
672.770	1	-3
672.939	1	3
673.109	1	-2
673.278	1	9
673.448	1	3
673.617	1	5
673.786	1	9
