325.333	1	23
325.504	1	21
325.675	1	23
325.846	1	16
326.017	1	16
326.188	1	26
326.359	1	21
326.531	1	14
326.702	1	21
326.873	1	31
327.044	1	30
327.215	1	36
327.386	1	30
327.557	1	16
327.728	1	20
327.899	1	31
328.070	1	36
328.241	1	25
328.412	1	22
328.583	1	32
328.754	1	20
328.926	1	37
329.097	1	20
329.268	1	35
329.439	1	22
329.610	1	32
329.781	1	23
329.952	1	37
330.123	1	33
330.294	1	37
330.465	1	29
330.636	1	40
330.807	1	25
330.978	1	25
331.149	1	27
331.320	1	39
331.492	1	35
331.663	1	27
331.834	1	40
332.005	1	37
332.176	1	43
332.347	1	34
332.518	1	17
332.689	1	38
332.860	1	43
333.031	1	28
333.202	1	32
333.373	1	33
333.544	1	31
333.715	1	35
333.886	1	35
334.057	1	33
334.228	1	25
334.399	1	30
334.570	1	42
334.741	1	31
334.912	1	46
335.084	1	45
335.255	1	37
335.426	1	40
335.597	1	40
335.768	1	42
335.939	1	35
336.110	1	40
336.281	1	32
336.452	1	33
336.623	1	46
336.794	1	47
336.965	1	47
337.136	1	46
337.307	1	38
337.478	1	40
337.649	1	36
337.820	1	39
337.991	1	37
338.162	1	51
338.333	1	42
338.504	1	39
338.675	1	43
338.846	1	46
339.017	1	49
339.188	1	46
339.359	1	39
339.530	1	44
339.701	1	55
339.872	1	55
340.043	1	40
340.214	1	46
340.385	1	52
340.556	1	35
340.727	1	49
340.898	1	57
341.069	1	49
341.240	1	45
341.411	1	50
341.582	1	57
341.753	1	47
341.924	1	49
342.095	1	55
342.266	1	56
342.437	1	53
342.608	1	43
342.779	1	59
342.950	1	52
343.121	1	60
343.292	1	55
343.463	1	59
343.634	1	48
343.805	1	57
343.976	1	60
344.147	1	52
344.318	1	42
344.489	1	49
344.660	1	67
344.831	1	61
345.002	1	45
345.173	1	63
345.344	1	65
345.515	1	59
345.686	1	57
345.857	1	66
346.028	1	57
346.199	1	56
346.370	1	59
346.541	1	71
346.712	1	67
346.883	1	63
347.054	1	60
347.225	1	67
347.396	1	69
347.567	1	56
347.738	1	52
347.909	1	73
348.080	1	49
348.251	1	59
348.422	1	72
348.593	1	68
348.764	1	62
348.935	1	65
349.106	1	62
349.277	1	61
349.448	1	65
349.619	1	64
349.790	1	70
349.961	1	70
350.132	1	82
350.303	1	70
350.474	1	76
350.645	1	84
350.816	1	69
350.987	1	81
351.157	1	74
351.328	1	71
351.499	1	80
351.670	1	67
351.841	1	82
352.012	1	78
352.183	1	83
352.354	1	68
352.525	1	84
352.696	1	88
352.867	1	76
353.038	1	77
353.209	1	90
353.380	1	78
353.551	1	70
353.722	1	76
353.893	1	76
354.064	1	83
354.235	1	77
354.406	1	75
354.576	1	78
354.747	1	85
354.918	1	97
355.089	1	77
355.260	1	80
355.431	1	91
355.602	1	74
355.773	1	84
355.944	1	80
356.115	1	85
356.286	1	93
356.457	1	86
356.628	1	84
356.799	1	87
356.970	1	89
357.141	1	82
357.311	1	80
357.482	1	75
357.653	1	77
357.824	1	101
357.995	1	87
358.166	1	83
358.337	1	91
358.508	1	94
358.679	1	90
358.850	1	84
359.021	1	89
359.192	1	87
359.363	1	90
359.533	1	96
359.704	1	96
359.875	1	77
360.046	1	103
360.217	1	90
360.388	1	101
360.559	1	89
360.730	1	85
360.901	1	94
361.072	1	101
361.243	1	101
361.414	1	107
361.584	1	87
361.755	1	94
361.926	1	92
362.097	1	89
362.268	1	93
362.439	1	92
362.610	1	104
362.781	1	95
362.952	1	81
363.123	1	87
363.293	1	88
363.464	1	94
363.635	1	101
363.806	1	79
363.977	1	95
364.148	1	94
364.319	1	97
364.490	1	98
364.661	1	89
364.832	1	96
365.002	1	103
365.173	1	94
365.344	1	105
365.515	1	96
365.686	1	88
365.857	1	105
366.028	1	105
366.199	1	93
366.370	1	104
366.540	1	90
366.711	1	96
366.882	1	96
367.053	1	90
367.224	1	104
367.395	1	100
367.566	1	104
367.737	1	106
367.908	1	108
368.078	1	105
368.249	1	111
368.420	1	107
368.591	1	101
368.762	1	110
368.933	1	89
369.104	1	94
369.274	1	96
369.445	1	99
369.616	1	99
369.787	1	104
369.958	1	105
370.129	1	86
370.300	1	115
370.471	1	106
370.641	1	102
370.812	1	111
370.983	1	108
371.154	1	102
371.325	1	107
371.496	1	95
371.667	1	109
371.837	1	88
372.008	1	103
372.179	1	111
372.350	1	107
372.521	1	105
372.692	1	92
372.863	1	105
373.033	1	89
373.204	1	98
373.375	1	108
373.546	1	110
373.717	1	116
373.888	1	109
374.059	1	124
374.229	1	98
374.400	1	109
374.571	1	114
374.742	1	110
374.913	1	112
375.084	1	102
375.254	1	116
375.425	1	112
375.596	1	106
375.767	1	116
375.938	1	114
376.109	1	113
376.279	1	103
376.450	1	112
376.621	1	121
376.792	1	101
376.963	1	107
377.134	1	123
377.304	1	118
377.475	1	111
377.646	1	107
377.817	1	116
377.988	1	116
378.159	1	124
378.329	1	105
378.500	1	115
378.671	1	125
378.842	1	116
379.013	1	110
379.184	1	113
379.354	1	123
379.525	1	124
379.696	1	121
379.867	1	124
380.038	1	125
380.209	1	128
380.379	1	112
380.550	1	111
380.721	1	115
380.892	1	129
381.063	1	126
381.233	1	126
381.404	1	118
381.575	1	127
381.746	1	128
381.917	1	118
382.087	1	119
382.258	1	128
382.429	1	122
382.600	1	126
382.771	1	113
382.941	1	120
383.112	1	123
383.283	1	126
383.454	1	126
383.625	1	119
383.795	1	142
383.966	1	132
384.137	1	139
384.308	1	130
384.479	1	120
384.649	1	126
384.820	1	130
384.991	1	132
385.162	1	136
385.333	1	129
385.503	1	140
385.674	1	133
385.845	1	144
386.016	1	134
386.187	1	129
386.357	1	137
386.528	1	143
386.699	1	136
386.870	1	152
387.041	1	154
387.211	1	131
387.382	1	140
387.553	1	145
387.724	1	137
387.894	1	140
388.065	1	138
388.236	1	142
388.407	1	133
388.578	1	131
388.748	1	138
388.919	1	154
389.090	1	140
389.261	1	143
389.431	1	152
389.602	1	135
389.773	1	138
389.944	1	137
390.114	1	147
390.285	1	145
390.456	1	141
390.627	1	139
390.798	1	144
390.968	1	146
391.139	1	146
391.310	1	139
391.481	1	145
391.651	1	133
391.822	1	122
391.993	1	126
392.164	1	127
392.334	1	144
392.505	1	138
392.676	1	134
392.847	1	145
393.017	1	149
393.188	1	142
393.359	1	132
393.530	1	137
393.700	1	131
393.871	1	140
394.042	1	132
394.213	1	133
394.383	1	143
394.554	1	151
394.725	1	151
394.896	1	145
395.066	1	136
395.237	1	136
395.408	1	149
395.579	1	148
395.749	1	141
395.920	1	141
396.091	1	155
396.262	1	141
396.432	1	153
396.603	1	150
396.774	1	169
396.945	1	156
397.115	1	139
397.286	1	151
397.457	1	156
397.627	1	148
397.798	1	160
397.969	1	150
398.140	1	139
398.310	1	158
398.481	1	139
398.652	1	152
398.823	1	143
398.993	1	140
399.164	1	147
399.335	1	155
399.505	1	155
399.676	1	136
399.847	1	151
400.018	1	142
400.188	1	159
400.359	1	153
400.530	1	148
400.700	1	151
400.871	1	151
401.042	1	136
401.213	1	159
401.383	1	157
401.554	1	156
401.725	1	153
401.895	1	139
402.066	1	163
402.237	1	152
402.408	1	153
402.578	1	158
402.749	1	158
402.920	1	151
403.090	1	123
403.261	1	147
403.432	1	158
403.603	1	173
403.773	1	157
403.944	1	155
404.115	1	150
404.285	1	155
404.456	1	169
404.627	1	162
404.797	1	158
404.968	1	157
405.139	1	148
405.310	1	170
405.480	1	154
405.651	1	135
405.822	1	152
405.992	1	159
406.163	1	150
406.334	1	160
406.504	1	163
406.675	1	169
406.846	1	153
407.016	1	160
407.187	1	167
407.358	1	145
407.528	1	146
407.699	1	142
407.870	1	163
408.041	1	157
408.211	1	174
408.382	1	166
408.553	1	149
408.723	1	167
408.894	1	157
409.065	1	165
409.235	1	151
409.406	1	156
409.577	1	153
409.747	1	170
409.918	1	171
410.089	1	160
410.259	1	164
410.430	1	162
410.601	1	168
410.771	1	177
410.942	1	174
411.113	1	151
411.283	1	171
411.454	1	155
411.625	1	150
411.795	1	177
411.966	1	151
412.137	1	173
412.307	1	165
412.478	1	152
412.649	1	155
412.819	1	148
412.990	1	155
413.161	1	156
413.331	1	161
413.502	1	167
413.672	1	149
413.843	1	164
414.014	1	150
414.184	1	157
414.355	1	149
414.526	1	161
414.696	1	152
414.867	1	156
415.038	1	148
415.208	1	152
415.379	1	174
415.550	1	155
415.720	1	149
415.891	1	149
416.062	1	154
416.232	1	147
416.403	1	155
416.573	1	164
416.744	1	151
416.915	1	158
417.085	1	162
417.256	1	150
417.427	1	149
417.597	1	153
417.768	1	155
417.939	1	151
418.109	1	159
418.280	1	162
418.450	1	154
418.621	1	135
418.792	1	167
418.962	1	143
419.133	1	172
419.304	1	146
419.474	1	135
419.645	1	152
419.815	1	148
419.986	1	150
420.157	1	157
420.327	1	141
420.498	1	157
420.669	1	148
420.839	1	165
421.010	1	163
421.180	1	165
421.351	1	164
421.522	1	156
421.692	1	152
421.863	1	152
422.033	1	159
422.204	1	148
422.375	1	156
422.545	1	146
422.716	1	144
422.886	1	149
423.057	1	161
423.228	1	150
423.398	1	138
423.569	1	167
423.740	1	143
423.910	1	134
424.081	1	146
424.251	1	128
424.422	1	156
424.593	1	141
424.763	1	141
424.934	1	140
425.104	1	139
425.275	1	147
425.445	1	127
425.616	1	141
425.787	1	130
425.957	1	140
426.128	1	142
426.298	1	135
426.469	1	129
426.640	1	142
426.810	1	143
426.981	1	140
427.151	1	128
427.322	1	142
427.493	1	125
427.663	1	141
427.834	1	130
428.004	1	134
428.175	1	148
428.345	1	146
428.516	1	131
428.687	1	146
428.857	1	134
429.028	1	125
429.198	1	125
429.369	1	144
429.540	1	135
429.710	1	133
429.881	1	151
430.051	1	149
430.222	1	144
430.392	1	141
430.563	1	141
430.734	1	148
430.904	1	139
431.075	1	127
431.245	1	135
431.416	1	139
431.586	1	142
431.757	1	142
431.927	1	148
432.098	1	142
432.269	1	121
432.439	1	135
432.610	1	133
432.780	1	133
432.951	1	139
433.121	1	132
433.292	1	140
433.462	1	140
433.633	1	131
433.804	1	128
433.974	1	136
434.145	1	156
434.315	1	130
434.486	1	133
434.656	1	147
434.827	1	129
434.997	1	126
435.168	1	134
435.339	1	130
435.509	1	132
435.680	1	138
435.850	1	136
436.021	1	134
436.191	1	129
436.362	1	146
436.532	1	136
436.703	1	126
436.873	1	134
437.044	1	125
437.214	1	134
437.385	1	126
437.556	1	118
437.726	1	145
437.897	1	143
438.067	1	139
438.238	1	126
438.408	1	138
438.579	1	133
438.749	1	120
438.920	1	126
439.090	1	116
439.261	1	119
439.431	1	135
439.602	1	131
439.772	1	128
439.943	1	130
440.113	1	133
440.284	1	130
440.455	1	123
440.625	1	123
440.796	1	122
440.966	1	103
441.137	1	118
441.307	1	119
441.478	1	123
441.648	1	127
441.819	1	131
441.989	1	111
442.160	1	133
442.330	1	117
442.501	1	118
442.671	1	108
442.842	1	105
443.012	1	106
443.183	1	119
443.353	1	108
443.524	1	113
443.694	1	117
443.865	1	117
444.035	1	119
444.206	1	131
444.376	1	95
444.547	1	127
444.717	1	111
444.888	1	114
445.058	1	129
445.229	1	124
445.399	1	115
445.570	1	117
445.740	1	119
445.911	1	112
446.081	1	105
446.252	1	109
446.422	1	102
446.593	1	125
446.763	1	108
446.934	1	110
447.104	1	122
447.275	1	109
447.445	1	111
447.616	1	107
447.786	1	112
447.957	1	106
448.127	1	119
448.298	1	115
448.468	1	116
448.639	1	117
448.809	1	116
448.979	1	108
449.150	1	125
449.320	1	97
449.491	1	115
449.661	1	99
449.832	1	112
450.002	1	102
450.173	1	104
450.343	1	118
450.514	1	109
450.684	1	115
450.855	1	107
451.025	1	103
451.196	1	116
451.366	1	113
451.537	1	107
451.707	1	100
451.878	1	104
452.048	1	118
452.218	1	113
452.389	1	112
452.559	1	109
452.730	1	107
452.900	1	101
453.071	1	97
453.241	1	109
453.412	1	104
453.582	1	103
453.753	1	92
453.923	1	96
454.093	1	100
454.264	1	108
454.434	1	101
454.605	1	98
454.775	1	96
454.946	1	101
455.116	1	107
455.287	1	94
455.457	1	97
455.628	1	95
455.798	1	103
455.968	1	94
456.139	1	90
456.309	1	100
456.480	1	92
456.650	1	90
456.821	1	90
456.991	1	97
457.161	1	98
457.332	1	105
457.502	1	86
457.673	1	95
457.843	1	104
458.014	1	103
458.184	1	83
458.355	1	86
458.525	1	103
458.695	1	95
458.866	1	94
459.036	1	101
459.207	1	84
459.377	1	103
459.548	1	97
459.718	1	93
459.888	1	90
460.059	1	84
460.229	1	103
460.400	1	90
460.570	1	92
460.740	1	88
460.911	1	88
461.081	1	97
461.252	1	86
461.422	1	88
461.593	1	89
461.763	1	95
461.933	1	90
462.104	1	82
462.274	1	86
462.445	1	81
462.615	1	97
462.785	1	91
462.956	1	92
463.126	1	101
463.297	1	76
463.467	1	90
463.638	1	98
463.808	1	85
463.978	1	83
464.149	1	91
464.319	1	78
464.490	1	90
464.660	1	72
464.830	1	76
465.001	1	90
465.171	1	78
465.342	1	83
465.512	1	71
465.682	1	89
465.853	1	92
466.023	1	86
466.194	1	68
466.364	1	94
466.534	1	88
466.705	1	84
466.875	1	74
467.045	1	80
467.216	1	89
467.386	1	78
467.557	1	68
467.727	1	69
467.897	1	65
468.068	1	87
468.238	1	77
468.409	1	83
468.579	1	83
468.749	1	67
468.920	1	62
469.090	1	76
469.260	1	69
469.431	1	70
469.601	1	75
469.772	1	76
469.942	1	69
470.112	1	75
470.283	1	70
470.453	1	70
470.623	1	74
470.794	1	67
470.964	1	80
471.135	1	68
471.305	1	57
471.475	1	79
471.646	1	65
471.816	1	62
471.986	1	66
472.157	1	81
472.327	1	65
472.497	1	76
472.668	1	62
472.838	1	63
473.009	1	77
473.179	1	69
473.349	1	71
473.520	1	79
473.690	1	71
473.860	1	76
474.031	1	63
474.201	1	69
474.371	1	74
474.542	1	77
474.712	1	71
474.882	1	77
475.053	1	84
475.223	1	67
475.394	1	72
475.564	1	63
475.734	1	71
475.905	1	87
476.075	1	76
476.245	1	83
476.416	1	72
476.586	1	86
476.756	1	73
476.927	1	86
477.097	1	72
477.267	1	65
477.438	1	67
477.608	1	59
477.778	1	71
477.949	1	75
478.119	1	74
478.289	1	72
478.460	1	72
478.630	1	72
478.800	1	69
478.971	1	64
479.141	1	68
479.311	1	57
479.482	1	71
479.652	1	60
479.822	1	65
479.993	1	71
480.163	1	81
480.333	1	60
480.504	1	66
480.674	1	66
480.844	1	61
481.015	1	71
481.185	1	60
481.355	1	71
481.525	1	59
481.696	1	72
481.866	1	72
482.036	1	67
482.207	1	59
482.377	1	61
482.547	1	73
482.718	1	62
482.888	1	68
483.058	1	57
483.229	1	65
483.399	1	70
483.569	1	58
483.740	1	61
483.910	1	68
484.080	1	55
484.250	1	59
484.421	1	58
484.591	1	60
484.761	1	60
484.932	1	58
485.102	1	76
485.272	1	61
485.443	1	60
485.613	1	59
485.783	1	61
485.953	1	55
486.124	1	63
486.294	1	64
486.464	1	64
486.635	1	67
486.805	1	57
486.975	1	53
487.146	1	62
487.316	1	50
487.486	1	56
487.656	1	46
487.827	1	66
487.997	1	59
488.167	1	42
488.338	1	55
488.508	1	57
488.678	1	44
488.848	1	62
489.019	1	50
489.189	1	53
489.359	1	47
489.529	1	49
489.700	1	45
489.870	1	59
490.040	1	46
490.211	1	53
490.381	1	55
490.551	1	53
490.721	1	58
490.892	1	49
491.062	1	60
491.232	1	56
491.402	1	57
491.573	1	41
491.743	1	57
491.913	1	38
492.084	1	63
492.254	1	45
492.424	1	55
492.594	1	38
492.765	1	53
492.935	1	54
493.105	1	51
493.275	1	50
493.446	1	52
493.616	1	49
493.786	1	45
493.956	1	52
494.127	1	47
494.297	1	43
494.467	1	41
494.637	1	54
494.808	1	49
494.978	1	35
495.148	1	59
495.318	1	51
495.489	1	56
495.659	1	51
495.829	1	51
495.999	1	38
496.170	1	59
496.340	1	53
496.510	1	51
496.680	1	43
496.851	1	47
497.021	1	44
497.191	1	41
497.361	1	53
497.532	1	40
497.702	1	43
497.872	1	40
498.042	1	45
498.213	1	43
498.383	1	51
498.553	1	46
498.723	1	29
498.894	1	47
499.064	1	45
499.234	1	45
499.404	1	42
499.574	1	50
499.745	1	48
499.915	1	47
500.085	1	48
500.255	1	53
500.426	1	49
500.596	1	49
500.766	1	50
500.936	1	40
501.106	1	38
501.277	1	42
501.447	1	42
501.617	1	46
501.787	1	43
501.958	1	42
502.128	1	46
502.298	1	47
502.468	1	39
502.638	1	44
502.809	1	52
502.979	1	31
503.149	1	32
503.319	1	37
503.489	1	42
503.660	1	44
503.830	1	37
504.000	1	55
504.170	1	35
504.340	1	32
504.511	1	53
504.681	1	34
504.851	1	47
505.021	1	46
505.192	1	24
505.362	1	43
505.532	1	37
505.702	1	25
505.872	1	42
506.043	1	37
506.213	1	19
506.383	1	45
506.553	1	46
506.723	1	39
506.893	1	48
507.064	1	44
507.234	1	35
507.404	1	39
507.574	1	41
507.744	1	36
507.915	1	32
508.085	1	41
508.255	1	38
508.425	1	29
508.595	1	43
508.766	1	39
508.936	1	30
509.106	1	44
509.276	1	44
509.446	1	37
509.616	1	35
509.787	1	46
509.957	1	41
510.127	1	38
510.297	1	32
510.467	1	30
510.638	1	43
510.808	1	28
510.978	1	27
511.148	1	33
511.318	1	33
511.488	1	27
511.659	1	39
511.829	1	26
511.999	1	40
512.169	1	31
512.339	1	33
512.509	1	26
512.680	1	19
512.850	1	38
513.020	1	32
513.190	1	29
513.360	1	38
513.530	1	22
513.700	1	42
513.871	1	32
514.041	1	27
514.211	1	42
514.381	1	39
514.551	1	21
514.721	1	34
514.892	1	34
515.062	1	32
515.232	1	39
515.402	1	38
515.572	1	31
515.742	1	31
515.912	1	36
516.083	1	36
516.253	1	27
516.423	1	33
516.593	1	28
516.763	1	35
516.933	1	35
517.104	1	23
517.274	1	19
517.444	1	34
517.614	1	18
517.784	1	33
517.954	1	36
518.124	1	28
518.294	1	33
518.465	1	34
518.635	1	30
518.805	1	20
518.975	1	31
519.145	1	29
519.315	1	30
519.485	1	22
519.656	1	36
519.826	1	35
519.996	1	19
520.166	1	26
520.336	1	42
520.506	1	27
520.676	1	14
520.846	1	33
521.017	1	21
521.187	1	14
521.357	1	24
521.527	1	22
521.697	1	31
521.867	1	25
522.037	1	31
522.207	1	31
522.377	1	12
522.548	1	24
522.718	1	30
522.888	1	33
523.058	1	29
523.228	1	35
523.398	1	31
523.568	1	41
523.738	1	34
523.909	1	32
524.079	1	24
524.249	1	31
524.419	1	16
524.589	1	25
524.759	1	25
524.929	1	22
525.099	1	29
525.269	1	36
525.439	1	26
525.610	1	40
525.780	1	24
525.950	1	21
526.120	1	17
526.290	1	18
526.460	1	18
526.630	1	26
526.800	1	18
526.970	1	27
527.140	1	35
527.311	1	13
527.481	1	6
527.651	1	36
527.821	1	17
527.991	1	35
528.161	1	29
528.331	1	10
528.501	1	30
528.671	1	26
528.841	1	23
529.011	1	23
529.181	1	38
529.352	1	24
529.522	1	18
529.692	1	27
529.862	1	21
530.032	1	25
530.202	1	24
530.372	1	26
530.542	1	28
530.712	1	29
530.882	1	26
531.052	1	23
531.222	1	22
531.392	1	19
531.563	1	22
531.733	1	18
531.903	1	20
532.073	1	34
532.243	1	19
532.413	1	19
532.583	1	21
532.753	1	19
532.923	1	18
533.093	1	24
533.263	1	20
533.433	1	11
533.603	1	30
533.773	1	21
533.943	1	15
534.113	1	20
534.284	1	20
534.454	1	26
534.624	1	24
534.794	1	8
534.964	1	24
535.134	1	21
535.304	1	25
535.474	1	27
535.644	1	13
535.814	1	17
535.984	1	12
536.154	1	12
536.324	1	17
536.494	1	19
536.664	1	22
536.834	1	26
537.004	1	23
537.174	1	38
537.344	1	20
537.514	1	13
537.685	1	29
537.855	1	25
538.025	1	14
538.195	1	24
538.365	1	21
538.535	1	20
538.705	1	22
538.875	1	18
539.045	1	24
539.215	1	25
539.385	1	17
539.555	1	21
539.725	1	23
539.895	1	12
540.065	1	31
540.235	1	22
540.405	1	18
540.575	1	18
540.745	1	21
540.915	1	26
541.085	1	26
541.255	1	7
541.425	1	14
541.595	1	17
541.765	1	15
541.935	1	12
542.105	1	17
542.275	1	21
542.445	1	7
542.615	1	24
542.785	1	29
542.955	1	20
543.125	1	5
543.295	1	18
543.465	1	15
543.635	1	18
543.805	1	28
543.975	1	12
544.145	1	13
544.315	1	23
544.485	1	24
544.655	1	27
544.825	1	1
544.995	1	13
545.165	1	1
545.335	1	27
545.505	1	11
545.675	1	15
545.845	1	14
546.015	1	27
546.185	1	13
546.355	1	17
546.525	1	17
546.695	1	11
546.865	1	11
547.035	1	18
547.205	1	8
547.375	1	16
547.545	1	25
547.715	1	15
547.885	1	11
548.055	1	8
548.225	1	28
548.395	1	4
548.565	1	14
548.735	1	13
548.905	1	17
549.075	1	13
549.245	1	16
549.415	1	12
549.585	1	17
549.755	1	14
549.925	1	5
550.095	1	17
550.265	1	16
550.435	1	4
550.605	1	7
550.775	1	17
550.945	1	21
551.115	1	17
551.285	1	18
551.455	1	9
551.625	1	25
551.795	1	19
551.965	1	13
552.135	1	16
552.305	1	14
552.475	1	4
552.645	1	6
552.815	1	16
552.985	1	20
553.155	1	14
553.325	1	18
553.495	1	14
553.665	1	8
553.835	1	14
554.004	1	23
554.174	1	17
554.344	1	12
554.514	1	12
554.684	1	18
554.854	1	14
555.024	1	7
555.194	1	9
555.364	1	13
555.534	1	18
555.704	1	13
555.874	1	15
556.044	1	13
556.214	1	5
556.384	1	8
556.554	1	16
556.724	1	19
556.894	1	12
557.064	1	18
557.234	1	9
557.404	1	27
557.573	1	15
557.743	1	8
557.913	1	6
558.083	1	11
558.253	1	14
558.423	1	3
558.593	1	18
558.763	1	14
558.933	1	7
559.103	1	28
559.273	1	10
559.443	1	18
559.613	1	12
559.783	1	13
559.953	1	10
560.122	1	19
560.292	1	6
560.462	1	11
560.632	1	11
560.802	1	7
560.972	1	19
561.142	1	18
561.312	1	12
561.482	1	14
561.652	1	21
561.822	1	13
561.992	1	12
562.162	1	8
562.331	1	9
562.501	1	6
562.671	1	14
562.841	1	1
563.011	1	12
563.181	1	9
563.351	1	7
563.521	1	14
563.691	1	15
563.861	1	12
564.031	1	10
564.201	1	26
564.370	1	0
564.540	1	9
564.710	1	2
564.880	1	20
565.050	1	21
565.220	1	9
565.390	1	14
565.560	1	21
565.730	1	2
565.900	1	6
566.069	1	17
566.239	1	12
566.409	1	13
566.579	1	20
566.749	1	9
566.919	1	17
567.089	1	13
567.259	1	25
567.429	1	12
567.599	1	12
567.768	1	15
567.938	1	7
568.108	1	14
568.278	1	8
568.448	1	0
568.618	1	7
568.788	1	9
568.958	1	9
569.128	1	14
569.297	1	12
569.467	1	7
569.637	1	12
569.807	1	12
569.977	1	8
570.147	1	20
570.317	1	3
570.487	1	10
570.656	1	12
570.826	1	9
570.996	1	5
571.166	1	11
571.336	1	-3
571.506	1	20
571.676	1	15
571.846	1	13
572.015	1	9
572.185	1	-7
572.355	1	13
572.525	1	13
572.695	1	6
572.865	1	9
573.035	1	10
573.205	1	9
573.374	1	1
573.544	1	11
573.714	1	11
573.884	1	13
574.054	1	9
574.224	1	14
574.394	1	10
574.563	1	9
574.733	1	12
574.903	1	1
575.073	1	1
575.243	1	14
575.413	1	20
575.583	1	3
575.752	1	11
575.922	1	13
576.092	1	14
576.262	1	10
576.432	1	15
576.602	1	7
576.772	1	22
576.941	1	6
577.111	1	6
577.281	1	1
577.451	1	2
577.621	1	14
577.791	1	9
577.960	1	-1
578.130	1	5
578.300	1	11
578.470	1	17
578.640	1	7
578.810	1	4
578.979	1	9
579.149	1	3
579.319	1	3
579.489	1	10
579.659	1	5
579.829	1	20
579.998	1	9
580.168	1	20
580.338	1	18
580.508	1	4
580.678	1	14
580.848	1	9
581.017	1	7
581.187	1	12
581.357	1	-6
581.527	1	14
581.697	1	16
581.867	1	14
582.036	1	9
582.206	1	13
582.376	1	17
582.546	1	-2
582.716	1	-1
582.885	1	1
583.055	1	13
583.225	1	5
583.395	1	13
583.565	1	-2
583.735	1	16
583.904	1	11
584.074	1	19
584.244	1	8
584.414	1	8
584.584	1	15
584.753	1	5
584.923	1	10
585.093	1	10
585.263	1	9
585.433	1	5
585.602	1	11
585.772	1	3
585.942	1	-1
586.112	1	9
586.282	1	16
586.451	1	12
586.621	1	2
586.791	1	6
586.961	1	17
587.131	1	13
587.300	1	5
587.470	1	10
587.640	1	10
587.810	1	6
587.980	1	9
588.149	1	4
588.319	1	8
588.489	1	-1
588.659	1	5
588.829	1	10
588.998	1	17
589.168	1	16
589.338	1	17
589.508	1	16
589.677	1	7
589.847	1	2
590.017	1	23
590.187	1	0
590.357	1	23
590.526	1	19
590.696	1	10
590.866	1	26
591.036	1	1
591.205	1	24
591.375	1	3
591.545	1	4
591.715	1	7
591.885	1	1
592.054	1	8
592.224	1	12
592.394	1	2
592.564	1	16
592.733	1	10
592.903	1	14
593.073	1	9
593.243	1	22
593.412	1	14
593.582	1	5
593.752	1	3
593.922	1	10
594.091	1	10
594.261	1	13
594.431	1	14
594.601	1	17
594.771	1	19
594.940	1	0
595.110	1	2
595.280	1	12
595.450	1	6
595.619	1	7
595.789	1	17
595.959	1	12
596.129	1	9
596.298	1	6
596.468	1	10
596.638	1	11
596.808	1	11
596.977	1	9
597.147	1	17
597.317	1	-1
597.487	1	10
597.656	1	10
597.826	1	16
597.996	1	15
598.166	1	-3
598.335	1	2
598.505	1	18
598.675	1	8
598.844	1	7
599.014	1	6
599.184	1	17
599.354	1	4
599.523	1	17
599.693	1	13
599.863	1	13
600.033	1	6
600.202	1	8
600.372	1	21
600.542	1	21
600.712	1	10
600.881	1	9
601.051	1	26
601.221	1	19
601.390	1	6
601.560	1	18
601.730	1	17
601.900	1	17
602.069	1	12
602.239	1	4
602.409	1	6
602.578	1	17
602.748	1	14
602.918	1	7
603.088	1	17
603.257	1	17
603.427	1	14
603.597	1	7
603.767	1	12
603.936	1	13
604.106	1	11
604.276	1	9
604.445	1	19
604.615	1	12
604.785	1	9
604.954	1	8
605.124	1	7
605.294	1	14
605.464	1	5
605.633	1	16
605.803	1	13
605.973	1	9
606.142	1	19
606.312	1	19
606.482	1	6
606.652	1	16
606.821	1	11
606.991	1	1
607.161	1	5
607.330	1	18
607.500	1	16
607.670	1	6
607.839	1	20
608.009	1	13
608.179	1	13
608.348	1	8
608.518	1	7
608.688	1	23
608.858	1	8
609.027	1	-2
609.197	1	24
609.367	1	21
609.536	1	14
609.706	1	13
609.876	1	4
610.045	1	10
610.215	1	20
610.385	1	11
610.554	1	8
610.724	1	23
610.894	1	7
611.063	1	12
611.233	1	15
611.403	1	17
611.572	1	9
611.742	1	9
611.912	1	15
612.081	1	2
612.251	1	16
612.421	1	19
612.590	1	20
612.760	1	6
612.930	1	13
613.099	1	10
613.269	1	29
613.439	1	3
613.608	1	2
613.778	1	27
613.948	1	11
614.117	1	10
614.287	1	20
614.457	1	19
614.626	1	8
614.796	1	18
614.966	1	6
615.135	1	13
615.305	1	27
615.475	1	14
615.644	1	15
615.814	1	16
615.984	1	6
616.153	1	11
616.323	1	15
616.493	1	9
616.662	1	23
616.832	1	20
617.002	1	11
617.171	1	7
617.341	1	8
617.511	1	13
617.680	1	4
617.850	1	18
618.019	1	24
618.189	1	22
618.359	1	21
618.528	1	13
618.698	1	15
618.868	1	10
619.037	1	2
619.207	1	6
619.377	1	7
619.546	1	13
619.716	1	15
619.885	1	9
620.055	1	4
620.225	1	15
620.394	1	3
620.564	1	18
620.734	1	16
620.903	1	4
621.073	1	16
621.242	1	17
621.412	1	10
621.582	1	10
621.751	1	19
621.921	1	21
622.091	1	14
622.260	1	10
622.430	1	27
622.599	1	16
622.769	1	20
622.939	1	15
623.108	1	16
623.278	1	5
623.448	1	8
623.617	1	15
623.787	1	11
623.956	1	20
624.126	1	14
624.296	1	4
624.465	1	15
624.635	1	22
624.804	1	24
624.974	1	27
625.144	1	17
625.313	1	14
625.483	1	8
625.652	1	11
625.822	1	9
625.992	1	16
626.161	1	20
626.331	1	11
626.501	1	19
626.670	1	11
626.840	1	14
627.009	1	16
627.179	1	22
627.348	1	24
627.518	1	12
627.688	1	13
627.857	1	21
628.027	1	12
628.196	1	11
628.366	1	27
628.536	1	16
628.705	1	14
628.875	1	15
629.044	1	7
629.214	1	23
629.384	1	25
629.553	1	21
629.723	1	19
629.892	1	17
630.062	1	18
630.232	1	15
630.401	1	19
630.571	1	20
630.740	1	18
630.910	1	24
631.079	1	14
631.249	1	15
631.419	1	19
631.588	1	11
631.758	1	29
631.927	1	17
632.097	1	13
632.266	1	13
632.436	1	26
632.606	1	8
632.775	1	26
632.945	1	16
633.114	1	15
633.284	1	22
633.453	1	25
633.623	1	7
633.793	1	17
633.962	1	16
634.132	1	19
634.301	1	27
634.471	1	22
634.640	1	21
634.810	1	15
634.979	1	26
635.149	1	25
635.319	1	12
635.488	1	15
635.658	1	12
635.827	1	9
635.997	1	15
636.166	1	19
636.336	1	15
636.505	1	25
636.675	1	19
636.845	1	26
637.014	1	22
637.184	1	29
637.353	1	24
637.523	1	25
637.692	1	20
637.862	1	29
638.031	1	26
638.201	1	19
638.370	1	20
638.540	1	17
638.710	1	15
638.879	1	8
639.049	1	20
639.218	1	22
639.388	1	15
639.557	1	19
639.727	1	25
639.896	1	25
640.066	1	24
640.235	1	27
640.405	1	30
640.574	1	20
640.744	1	9
640.914	1	22
641.083	1	23
641.253	1	21
641.422	1	16
641.592	1	25
641.761	1	14
641.931	1	20
642.100	1	34
642.270	1	14
642.439	1	30
642.609	1	27
642.778	1	21
642.948	1	17
643.117	1	21
643.287	1	25
643.456	1	18
643.626	1	29
643.795	1	13
643.965	1	24
644.134	1	20
644.304	1	23
644.473	1	30
644.643	1	18
644.812	1	27
644.982	1	15
645.151	1	18
645.321	1	15
645.490	1	30
645.660	1	10
645.829	1	21
645.999	1	23
646.168	1	24
646.338	1	31
646.507	1	14
646.677	1	19
646.846	1	16
647.016	1	16
647.185	1	25
647.355	1	3
647.524	1	25
647.694	1	31
647.863	1	27
648.033	1	23
648.202	1	27
648.372	1	27
648.541	1	20
648.711	1	27
648.880	1	12
649.050	1	17
649.219	1	21
649.389	1	33
649.558	1	23
649.728	1	24
649.897	1	15
650.067	1	26
650.236	1	23
650.406	1	27
650.575	1	29
650.745	1	28
650.914	1	19
651.084	1	25
651.253	1	21
651.423	1	32
651.592	1	26
651.762	1	20
651.931	1	38
652.101	1	22
652.270	1	27
652.440	1	35
652.609	1	19
652.778	1	23
652.948	1	32
653.117	1	17
653.287	1	20
653.456	1	22
653.626	1	30
653.795	1	25
653.965	1	29
654.134	1	24
654.304	1	19
654.473	1	29
654.643	1	20
654.812	1	27
654.982	1	24
655.151	1	24
655.320	1	22
655.490	1	27
655.659	1	25
655.829	1	15
655.998	1	28
656.168	1	23
656.337	1	29
656.507	1	29
656.676	1	32
656.846	1	25
657.015	1	32
657.184	1	32
657.354	1	26
657.523	1	27
657.693	1	29
657.862	1	24
658.032	1	22
658.201	1	29
658.371	1	29
658.540	1	29
658.709	1	21
658.879	1	27
659.048	1	20
659.218	1	30
659.387	1	25
659.557	1	20
659.726	1	36
659.895	1	20
660.065	1	12
660.234	1	33
660.404	1	30
660.573	1	22
660.743	1	30
660.912	1	23
661.081	1	32
661.251	1	29
661.420	1	29
661.590	1	24
661.759	1	29
661.929	1	25
662.098	1	33
662.267	1	17
662.437	1	27
662.606	1	24
662.776	1	29
662.945	1	32
663.115	1	26
663.284	1	15
663.453	1	40
663.623	1	21
663.792	1	34
663.962	1	27
664.131	1	26
664.300	1	50
664.470	1	26
664.639	1	35
664.809	1	33
664.978	1	29
665.148	1	38
665.317	1	29
665.486	1	43
665.656	1	28
665.825	1	43
665.995	1	24
666.164	1	36
666.333	1	22
666.503	1	21
666.672	1	21
666.842	1	27
667.011	1	25
667.180	1	28
667.350	1	22
667.519	1	32
667.689	1	26
667.858	1	17
668.027	1	29
668.197	1	23
668.366	1	21
668.536	1	35
668.705	1	24
668.874	1	28
669.044	1	33
669.213	1	32
669.382	1	25
669.552	1	34
669.721	1	32
669.891	1	47
670.060	1	35
670.229	1	37
670.399	1	29
670.568	1	48
670.738	1	35
670.907	1	27
671.076	1	26
671.246	1	25
671.415	1	34
671.584	1	30
671.754	1	23
671.923	1	31
672.093	1	34
672.262	1	16
672.431	1	46
672.601	1	30
672.770	1	16
672.939	1	35
673.109	1	29
673.278	1	33
673.448	1	32
673.617	1	27
673.786	1	41
