325.333	1	34
325.504	1	29
325.675	1	34
325.846	1	40
326.017	1	33
326.188	1	41
326.359	1	42
326.531	1	28
326.702	1	30
326.873	1	39
327.044	1	34
327.215	1	36
327.386	1	42
327.557	1	34
327.728	1	39
327.899	1	52
328.070	1	57
328.241	1	55
328.412	1	29
328.583	1	38
328.754	1	43
328.926	1	50
329.097	1	40
329.268	1	51
329.439	1	42
329.610	1	56
329.781	1	44
329.952	1	56
330.123	1	49
330.294	1	43
330.465	1	54
330.636	1	49
330.807	1	46
330.978	1	52
331.149	1	40
331.320	1	44
331.492	1	49
331.663	1	57
331.834	1	61
332.005	1	50
332.176	1	74
332.347	1	50
332.518	1	46
332.689	1	62
332.860	1	62
333.031	1	55
333.202	1	57
333.373	1	65
333.544	1	52
333.715	1	67
333.886	1	54
334.057	1	54
334.228	1	41
334.399	1	60
334.570	1	70
334.741	1	56
334.912	1	73
335.084	1	66
335.255	1	63
335.426	1	57
335.597	1	64
335.768	1	58
335.939	1	68
336.110	1	53
336.281	1	69
336.452	1	62
336.623	1	72
336.794	1	65
336.965	1	54
337.136	1	80
337.307	1	69
337.478	1	59
337.649	1	73
337.820	1	68
337.991	1	69
338.162	1	71
338.333	1	68
338.504	1	72
338.675	1	76
338.846	1	85
339.017	1	79
339.188	1	82
339.359	1	64
339.530	1	74
339.701	1	71
339.872	1	93
340.043	1	65
340.214	1	77
340.385	1	85
340.556	1	76
340.727	1	85
340.898	1	88
341.069	1	86
341.240	1	74
341.411	1	89
341.582	1	83
341.753	1	80
341.924	1	79
342.095	1	78
342.266	1	92
342.437	1	88
342.608	1	90
342.779	1	89
342.950	1	94
343.121	1	98
343.292	1	98
343.463	1	87
343.634	1	90
343.805	1	104
343.976	1	100
344.147	1	95
344.318	1	89
344.489	1	92
344.660	1	101
344.831	1	96
345.002	1	93
345.173	1	117
345.344	1	104
345.515	1	109
345.686	1	99
345.857	1	106
346.028	1	101
346.199	1	90
346.370	1	97
346.541	1	112
346.712	1	96
346.883	1	106
347.054	1	104
347.225	1	108
347.396	1	110
347.567	1	111
347.738	1	106
347.909	1	110
348.080	1	108
348.251	1	112
348.422	1	120
348.593	1	110
348.764	1	113
348.935	1	110
349.106	1	103
349.277	1	120
349.448	1	126
349.619	1	120
349.790	1	119
349.961	1	121
350.132	1	116
350.303	1	116
350.474	1	119
350.645	1	120
350.816	1	127
350.987	1	125
351.157	1	121
351.328	1	146
351.499	1	136
351.670	1	125
351.841	1	140
352.012	1	137
352.183	1	137
352.354	1	142
352.525	1	146
352.696	1	141
352.867	1	118
353.038	1	137
353.209	1	126
353.380	1	135
353.551	1	123
353.722	1	137
353.893	1	136
354.064	1	137
354.235	1	136
354.406	1	116
354.576	1	125
354.747	1	135
354.918	1	139
355.089	1	148
355.260	1	142
355.431	1	144
355.602	1	132
355.773	1	140
355.944	1	155
356.115	1	145
356.286	1	148
356.457	1	154
356.628	1	134
356.799	1	133
356.970	1	146
357.141	1	142
357.311	1	135
357.482	1	152
357.653	1	137
357.824	1	149
357.995	1	143
358.166	1	155
358.337	1	156
358.508	1	158
358.679	1	169
358.850	1	141
359.021	1	167
359.192	1	155
359.363	1	156
359.533	1	154
359.704	1	150
359.875	1	172
360.046	1	150
360.217	1	153
360.388	1	152
360.559	1	165
360.730	1	166
360.901	1	170
361.072	1	159
361.243	1	163
361.414	1	167
361.584	1	141
361.755	1	176
361.926	1	172
362.097	1	169
362.268	1	165
362.439	1	167
362.610	1	156
362.781	1	163
362.952	1	154
363.123	1	169
363.293	1	160
363.464	1	165
363.635	1	170
363.806	1	148
363.977	1	173
364.148	1	166
364.319	1	162
364.490	1	170
364.661	1	164
364.832	1	186
365.002	1	174
365.173	1	181
365.344	1	169
365.515	1	157
365.686	1	173
365.857	1	181
366.028	1	183
366.199	1	181
366.370	1	180
366.540	1	165
366.711	1	171
366.882	1	173
367.053	1	176
367.224	1	182
367.395	1	180
367.566	1	189
367.737	1	177
367.908	1	193
368.078	1	191
368.249	1	192
368.420	1	167
368.591	1	182
368.762	1	182
368.933	1	172
369.104	1	176
369.274	1	180
369.445	1	186
369.616	1	185
369.787	1	178
369.958	1	172
370.129	1	183
370.300	1	194
370.471	1	181
370.641	1	185
370.812	1	179
370.983	1	181
371.154	1	180
371.325	1	198
371.496	1	179
371.667	1	180
371.837	1	177
372.008	1	189
372.179	1	186
372.350	1	198
372.521	1	182
372.692	1	177
372.863	1	185
373.033	1	178
373.204	1	181
373.375	1	194
373.546	1	205
373.717	1	197
373.888	1	196
374.059	1	198
374.229	1	205
374.400	1	184
374.571	1	185
374.742	1	205
374.913	1	193
375.084	1	188
375.254	1	212
375.425	1	187
375.596	1	204
375.767	1	203
375.938	1	197
376.109	1	211
376.279	1	192
376.450	1	201
376.621	1	202
376.792	1	194
376.963	1	204
377.134	1	209
377.304	1	217
377.475	1	188
377.646	1	205
377.817	1	194
377.988	1	195
378.159	1	216
378.329	1	228
378.500	1	208
378.671	1	209
378.842	1	217
379.013	1	210
379.184	1	196
379.354	1	207
379.525	1	204
379.696	1	208
379.867	1	209
380.038	1	215
380.209	1	211
380.379	1	205
380.550	1	201
380.721	1	216
380.892	1	208
381.063	1	212
381.233	1	220
381.404	1	203
381.575	1	217
381.746	1	208
381.917	1	222
382.087	1	224
382.258	1	217
382.429	1	220
382.600	1	227
382.771	1	216
382.941	1	210
383.112	1	215
383.283	1	226
383.454	1	211
383.625	1	216
383.795	1	226
383.966	1	227
384.137	1	227
384.308	1	223
384.479	1	230
384.649	1	227
384.820	1	222
384.991	1	225
385.162	1	232
385.333	1	225
385.503	1	231
385.674	1	224
385.845	1	259
386.016	1	236
386.187	1	233
386.357	1	243
386.528	1	238
386.699	1	224
386.870	1	241
387.041	1	229
387.211	1	242
387.382	1	247
387.553	1	241
387.724	1	244
387.894	1	241
388.065	1	233
388.236	1	234
388.407	1	240
388.578	1	230
388.748	1	242
388.919	1	250
389.090	1	256
389.261	1	237
389.431	1	245
389.602	1	251
389.773	1	249
389.944	1	250
390.114	1	248
390.285	1	234
390.456	1	236
390.627	1	238
390.798	1	248
390.968	1	247
391.139	1	266
391.310	1	235
391.481	1	243
391.651	1	260
391.822	1	236
391.993	1	245
392.164	1	229
392.334	1	245
392.505	1	237
392.676	1	234
392.847	1	249
393.017	1	243
393.188	1	258
393.359	1	233
393.530	1	243
393.700	1	236
393.871	1	244
394.042	1	252
394.213	1	238
394.383	1	247
394.554	1	248
394.725	1	251
394.896	1	252
395.066	1	257
395.237	1	242
395.408	1	260
395.579	1	247
395.749	1	274
395.920	1	254
396.091	1	259
396.262	1	266
396.432	1	259
396.603	1	270
396.774	1	258
396.945	1	252
397.115	1	267
397.286	1	254
397.457	1	260
397.627	1	265
397.798	1	282
397.969	1	246
398.140	1	246
398.310	1	259
398.481	1	262
398.652	1	250
398.823	1	257
398.993	1	250
399.164	1	257
399.335	1	265
399.505	1	260
399.676	1	254
399.847	1	254
400.018	1	249
400.188	1	266
400.359	1	266
400.530	1	240
400.700	1	253
400.871	1	249
401.042	1	273
401.213	1	254
401.383	1	256
401.554	1	265
401.725	1	277
401.895	1	262
402.066	1	256
402.237	1	251
402.408	1	263
402.578	1	260
402.749	1	261
402.920	1	253
403.090	1	254
403.261	1	268
403.432	1	260
403.603	1	270
403.773	1	266
403.944	1	270
404.115	1	267
404.285	1	266
404.456	1	257
404.627	1	250
404.797	1	260
404.968	1	257
405.139	1	249
405.310	1	269
405.480	1	265
405.651	1	266
405.822	1	264
405.992	1	257
406.163	1	271
406.334	1	259
406.504	1	273
406.675	1	274
406.846	1	274
407.016	1	271
407.187	1	271
407.358	1	265
407.528	1	272
407.699	1	281
407.870	1	266
408.041	1	277
408.211	1	300
408.382	1	251
408.553	1	273
408.723	1	268
408.894	1	286
409.065	1	264
409.235	1	273
409.406	1	273
409.577	1	280
409.747	1	289
409.918	1	285
410.089	1	270
410.259	1	263
410.430	1	281
410.601	1	283
410.771	1	261
410.942	1	280
411.113	1	265
411.283	1	259
411.454	1	287
411.625	1	272
411.795	1	276
411.966	1	279
412.137	1	271
412.307	1	262
412.478	1	264
412.649	1	259
412.819	1	272
412.990	1	265
413.161	1	266
413.331	1	261
413.502	1	274
413.672	1	261
413.843	1	268
414.014	1	262
414.184	1	281
414.355	1	269
414.526	1	262
414.696	1	267
414.867	1	257
415.038	1	257
415.208	1	255
415.379	1	274
415.550	1	246
415.720	1	253
415.891	1	254
416.062	1	246
416.232	1	263
416.403	1	250
416.573	1	245
416.744	1	245
416.915	1	255
417.085	1	266
417.256	1	256
417.427	1	258
417.597	1	259
417.768	1	258
417.939	1	271
418.109	1	268
418.280	1	270
418.450	1	266
418.621	1	253
418.792	1	246
418.962	1	255
419.133	1	275
419.304	1	235
419.474	1	248
419.645	1	257
419.815	1	247
419.986	1	264
420.157	1	266
420.327	1	259
420.498	1	254
420.669	1	253
420.839	1	269
421.010	1	252
421.180	1	248
421.351	1	257
421.522	1	258
421.692	1	253
421.863	1	262
422.033	1	265
422.204	1	260
422.375	1	250
422.545	1	260
422.716	1	248
422.886	1	251
423.057	1	243
423.228	1	243
423.398	1	239
423.569	1	248
423.740	1	252
423.910	1	232
424.081	1	244
424.251	1	242
424.422	1	239
424.593	1	231
424.763	1	242
424.934	1	248
425.104	1	243
425.275	1	236
425.445	1	246
425.616	1	227
425.787	1	238
425.957	1	242
426.128	1	228
426.298	1	240
426.469	1	237
426.640	1	246
426.810	1	243
426.981	1	233
427.151	1	227
427.322	1	246
427.493	1	229
427.663	1	225
427.834	1	221
428.004	1	244
428.175	1	255
428.345	1	225
428.516	1	228
428.687	1	239
428.857	1	227
429.028	1	224
429.198	1	234
429.369	1	238
429.540	1	226
429.710	1	218
429.881	1	252
430.051	1	225
430.222	1	225
430.392	1	237
430.563	1	242
430.734	1	243
430.904	1	240
431.075	1	233
431.245	1	221
431.416	1	228
431.586	1	249
431.757	1	234
431.927	1	227
432.098	1	224
432.269	1	229
432.439	1	227
432.610	1	237
432.780	1	228
432.951	1	226
433.121	1	235
433.292	1	241
433.462	1	235
433.633	1	236
433.804	1	223
433.974	1	241
434.145	1	246
434.315	1	222
434.486	1	229
434.656	1	224
434.827	1	236
434.997	1	219
435.168	1	208
435.339	1	242
435.509	1	240
435.680	1	235
435.850	1	223
436.021	1	218
436.191	1	221
436.362	1	217
436.532	1	222
436.703	1	227
436.873	1	226
437.044	1	210
437.214	1	234
437.385	1	219
437.556	1	210
437.726	1	228
437.897	1	232
438.067	1	212
438.238	1	223
438.408	1	225
438.579	1	205
438.749	1	211
438.920	1	212
439.090	1	214
439.261	1	209
439.431	1	203
439.602	1	218
439.772	1	205
439.943	1	208
440.113	1	213
440.284	1	216
440.455	1	202
440.625	1	205
440.796	1	199
440.966	1	195
441.137	1	204
441.307	1	198
441.478	1	206
441.648	1	199
441.819	1	197
441.989	1	192
442.160	1	200
442.330	1	195
442.501	1	191
442.671	1	192
442.842	1	192
443.012	1	192
443.183	1	211
443.353	1	171
443.524	1	209
443.694	1	201
443.865	1	195
444.035	1	206
444.206	1	205
444.376	1	200
444.547	1	199
444.717	1	179
444.888	1	199
445.058	1	208
445.229	1	188
445.399	1	183
445.570	1	188
445.740	1	193
445.911	1	194
446.081	1	190
446.252	1	203
446.422	1	188
446.593	1	182
446.763	1	197
446.934	1	188
447.104	1	186
447.275	1	195
447.445	1	195
447.616	1	198
447.786	1	211
447.957	1	181
448.127	1	196
448.298	1	188
448.468	1	187
448.639	1	187
448.809	1	191
448.979	1	182
449.150	1	185
449.320	1	185
449.491	1	179
449.661	1	185
449.832	1	186
450.002	1	185
450.173	1	187
450.343	1	175
450.514	1	173
450.684	1	169
450.855	1	181
451.025	1	170
451.196	1	194
451.366	1	169
451.537	1	181
451.707	1	151
451.878	1	187
452.048	1	193
452.218	1	196
452.389	1	174
452.559	1	161
452.730	1	166
452.900	1	179
453.071	1	166
453.241	1	182
453.412	1	168
453.582	1	177
453.753	1	169
453.923	1	185
454.093	1	181
454.264	1	180
454.434	1	172
454.605	1	174
454.775	1	157
454.946	1	157
455.116	1	166
455.287	1	154
455.457	1	146
455.628	1	160
455.798	1	163
455.968	1	169
456.139	1	160
456.309	1	163
456.480	1	147
456.650	1	146
456.821	1	156
456.991	1	158
457.161	1	148
457.332	1	148
457.502	1	146
457.673	1	169
457.843	1	155
458.014	1	152
458.184	1	161
458.355	1	149
458.525	1	154
458.695	1	153
458.866	1	147
459.036	1	153
459.207	1	148
459.377	1	149
459.548	1	157
459.718	1	157
459.888	1	146
460.059	1	148
460.229	1	158
460.400	1	152
460.570	1	147
460.740	1	143
460.911	1	159
461.081	1	150
461.252	1	145
461.422	1	142
461.593	1	157
461.763	1	158
461.933	1	150
462.104	1	144
462.274	1	144
462.445	1	156
462.615	1	140
462.785	1	140
462.956	1	161
463.126	1	165
463.297	1	143
463.467	1	151
463.638	1	151
463.808	1	133
463.978	1	124
464.149	1	149
464.319	1	140
464.490	1	151
464.660	1	143
464.830	1	141
465.001	1	138
465.171	1	140
465.342	1	140
465.512	1	136
465.682	1	127
465.853	1	150
466.023	1	129
466.194	1	143
466.364	1	132
466.534	1	133
466.705	1	135
466.875	1	121
467.045	1	137
467.216	1	149
467.386	1	125
467.557	1	124
467.727	1	122
467.897	1	120
468.068	1	129
468.238	1	128
468.409	1	119
468.579	1	131
468.749	1	124
468.920	1	116
469.090	1	123
469.260	1	109
469.431	1	121
469.601	1	135
469.772	1	117
469.942	1	118
470.112	1	131
470.283	1	122
470.453	1	121
470.623	1	128
470.794	1	116
470.964	1	136
471.135	1	120
471.305	1	119
471.475	1	129
471.646	1	120
471.816	1	119
471.986	1	121
472.157	1	115
472.327	1	114
472.497	1	110
472.668	1	112
472.838	1	124
473.009	1	115
473.179	1	119
473.349	1	109
473.520	1	124
473.690	1	110
473.860	1	122
474.031	1	120
474.201	1	122
474.371	1	118
474.542	1	117
474.712	1	122
474.882	1	102
475.053	1	127
475.223	1	106
475.394	1	126
475.564	1	121
475.734	1	118
475.905	1	124
476.075	1	118
476.245	1	122
476.416	1	111
476.586	1	117
476.756	1	110
476.927	1	125
477.097	1	118
477.267	1	110
477.438	1	116
477.608	1	109
477.778	1	122
477.949	1	114
478.119	1	123
478.289	1	103
478.460	1	115
478.630	1	116
478.800	1	120
478.971	1	116
479.141	1	110
479.311	1	98
479.482	1	107
479.652	1	108
479.822	1	111
479.993	1	109
480.163	1	114
480.333	1	115
480.504	1	112
480.674	1	114
480.844	1	97
481.015	1	122
481.185	1	110
481.355	1	109
481.525	1	105
481.696	1	121
481.866	1	121
482.036	1	109
482.207	1	101
482.377	1	108
482.547	1	102
482.718	1	98
482.888	1	105
483.058	1	113
483.229	1	102
483.399	1	102
483.569	1	122
483.740	1	108
483.910	1	109
484.080	1	99
484.250	1	105
484.421	1	98
484.591	1	95
484.761	1	114
484.932	1	96
485.102	1	103
485.272	1	101
485.443	1	104
485.613	1	97
485.783	1	91
485.953	1	101
486.124	1	97
486.294	1	97
486.464	1	97
486.635	1	102
486.805	1	96
486.975	1	91
487.146	1	97
487.316	1	87
487.486	1	85
487.656	1	92
487.827	1	90
487.997	1	88
488.167	1	88
488.338	1	94
488.508	1	89
488.678	1	90
488.848	1	95
489.019	1	80
489.189	1	84
489.359	1	80
489.529	1	80
489.700	1	87
489.870	1	91
490.040	1	86
490.211	1	81
490.381	1	96
490.551	1	87
490.721	1	100
490.892	1	82
491.062	1	91
491.232	1	79
491.402	1	83
491.573	1	75
491.743	1	80
491.913	1	92
492.084	1	96
492.254	1	76
492.424	1	83
492.594	1	84
492.765	1	87
492.935	1	87
493.105	1	71
493.275	1	100
493.446	1	84
493.616	1	88
493.786	1	91
493.956	1	88
494.127	1	80
494.297	1	71
494.467	1	80
494.637	1	83
494.808	1	81
494.978	1	70
495.148	1	89
495.318	1	88
495.489	1	80
495.659	1	92
495.829	1	78
495.999	1	73
496.170	1	84
496.340	1	79
496.510	1	87
496.680	1	75
496.851	1	73
497.021	1	72
497.191	1	75
497.361	1	80
497.532	1	74
497.702	1	62
497.872	1	82
498.042	1	80
498.213	1	78
498.383	1	79
498.553	1	60
498.723	1	82
498.894	1	71
499.064	1	79
499.234	1	75
499.404	1	77
499.574	1	80
499.745	1	81
499.915	1	74
500.085	1	77
500.255	1	75
500.426	1	71
500.596	1	68
500.766	1	70
500.936	1	71
501.106	1	67
501.277	1	77
501.447	1	74
501.617	1	73
501.787	1	69
501.958	1	69
502.128	1	69
502.298	1	67
502.468	1	62
502.638	1	72
502.809	1	72
502.979	1	68
503.149	1	66
503.319	1	66
503.489	1	61
503.660	1	69
503.830	1	69
504.000	1	70
504.170	1	68
504.340	1	58
504.511	1	83
504.681	1	64
504.851	1	75
505.021	1	67
505.192	1	74
505.362	1	76
505.532	1	60
505.702	1	61
505.872	1	66
506.043	1	60
506.213	1	62
506.383	1	63
506.553	1	76
506.723	1	70
506.893	1	70
507.064	1	71
507.234	1	64
507.404	1	60
507.574	1	74
507.744	1	65
507.915	1	70
508.085	1	65
508.255	1	71
508.425	1	66
508.595	1	68
508.766	1	72
508.936	1	57
509.106	1	72
509.276	1	75
509.446	1	67
509.616	1	66
509.787	1	60
509.957	1	70
510.127	1	54
510.297	1	54
510.467	1	51
510.638	1	64
510.808	1	43
510.978	1	56
511.148	1	66
511.318	1	59
511.488	1	55
511.659	1	51
511.829	1	58
511.999	1	60
512.169	1	55
512.339	1	50
512.509	1	56
512.680	1	55
512.850	1	65
513.020	1	71
513.190	1	59
513.360	1	57
513.530	1	58
513.700	1	66
513.871	1	56
514.041	1	55
514.211	1	67
514.381	1	64
514.551	1	59
514.721	1	58
514.892	1	56
515.062	1	59
515.232	1	52
515.402	1	56
515.572	1	42
515.742	1	65
515.912	1	61
516.083	1	52
516.253	1	66
516.423	1	59
516.593	1	47
516.763	1	64
516.933	1	67
517.104	1	60
517.274	1	54
517.444	1	61
517.614	1	50
517.784	1	50
517.954	1	59
518.124	1	41
518.294	1	56
518.465	1	57
518.635	1	50
518.805	1	37
518.975	1	46
519.145	1	46
519.315	1	47
519.485	1	50
519.656	1	63
519.826	1	59
519.996	1	45
520.166	1	42
520.336	1	60
520.506	1	39
520.676	1	42
520.846	1	46
521.017	1	51
521.187	1	55
521.357	1	59
521.527	1	45
521.697	1	46
521.867	1	47
522.037	1	51
522.207	1	56
522.377	1	54
522.548	1	46
522.718	1	48
522.888	1	55
523.058	1	47
523.228	1	55
523.398	1	56
523.568	1	58
523.738	1	56
523.909	1	56
524.079	1	57
524.249	1	59
524.419	1	49
524.589	1	41
524.759	1	41
524.929	1	38
525.099	1	51
525.269	1	52
525.439	1	39
525.610	1	58
525.780	1	44
525.950	1	48
526.120	1	48
526.290	1	51
526.460	1	39
526.630	1	43
526.800	1	37
526.970	1	49
527.140	1	47
527.311	1	38
527.481	1	38
527.651	1	59
527.821	1	41
527.991	1	54
528.161	1	50
528.331	1	40
528.501	1	38
528.671	1	42
528.841	1	48
529.011	1	37
529.181	1	51
529.352	1	46
529.522	1	46
529.692	1	52
529.862	1	44
530.032	1	42
530.202	1	43
530.372	1	44
530.542	1	39
530.712	1	45
530.882	1	50
531.052	1	50
531.222	1	40
531.392	1	44
531.563	1	41
531.733	1	42
531.903	1	42
532.073	1	50
532.243	1	49
532.413	1	48
532.583	1	35
532.753	1	49
532.923	1	33
533.093	1	43
533.263	1	33
533.433	1	45
533.603	1	39
533.773	1	33
533.943	1	35
534.113	1	34
534.284	1	38
534.454	1	52
534.624	1	52
534.794	1	42
534.964	1	50
535.134	1	36
535.304	1	45
535.474	1	51
535.644	1	30
535.814	1	37
535.984	1	27
536.154	1	28
536.324	1	48
536.494	1	43
536.664	1	46
536.834	1	38
537.004	1	34
537.174	1	47
537.344	1	42
537.514	1	38
537.685	1	34
537.855	1	44
538.025	1	45
538.195	1	41
538.365	1	51
538.535	1	36
538.705	1	39
538.875	1	35
539.045	1	39
539.215	1	39
539.385	1	33
539.555	1	35
539.725	1	28
539.895	1	34
540.065	1	40
540.235	1	46
540.405	1	27
540.575	1	43
540.745	1	35
540.915	1	43
541.085	1	36
541.255	1	23
541.425	1	47
541.595	1	34
541.765	1	57
541.935	1	32
542.105	1	30
542.275	1	32
542.445	1	23
542.615	1	38
542.785	1	38
542.955	1	34
543.125	1	23
543.295	1	38
543.465	1	36
543.635	1	24
543.805	1	50
543.975	1	35
544.145	1	39
544.315	1	35
544.485	1	41
544.655	1	37
544.825	1	37
544.995	1	34
545.165	1	30
545.335	1	47
545.505	1	30
545.675	1	35
545.845	1	38
546.015	1	38
546.185	1	44
546.355	1	39
546.525	1	32
546.695	1	37
546.865	1	15
547.035	1	29
547.205	1	32
547.375	1	37
547.545	1	30
547.715	1	27
547.885	1	38
548.055	1	29
548.225	1	32
548.395	1	29
548.565	1	33
548.735	1	35
548.905	1	25
549.075	1	37
549.245	1	36
549.415	1	31
549.585	1	34
549.755	1	30
549.925	1	22
550.095	1	29
550.265	1	26
550.435	1	20
550.605	1	26
550.775	1	27
550.945	1	38
551.115	1	32
551.285	1	21
551.455	1	28
551.625	1	35
551.795	1	30
551.965	1	23
552.135	1	31
552.305	1	22
552.475	1	17
552.645	1	25
552.815	1	27
552.985	1	22
553.155	1	29
553.325	1	29
553.495	1	29
553.665	1	24
553.835	1	35
554.004	1	40
554.174	1	23
554.344	1	30
554.514	1	24
554.684	1	24
554.854	1	29
555.024	1	21
555.194	1	23
555.364	1	34
555.534	1	24
555.704	1	23
555.874	1	34
556.044	1	21
556.214	1	23
556.384	1	19
556.554	1	28
556.724	1	22
556.894	1	29
557.064	1	26
557.234	1	17
557.404	1	36
557.573	1	25
557.743	1	22
557.913	1	30
558.083	1	29
558.253	1	24
558.423	1	29
558.593	1	36
558.763	1	21
558.933	1	29
559.103	1	33
559.273	1	22
559.443	1	27
559.613	1	24
559.783	1	23
559.953	1	24
560.122	1	14
560.292	1	22
560.462	1	33
560.632	1	34
560.802	1	25
560.972	1	33
561.142	1	21
561.312	1	11
561.482	1	44
561.652	1	26
561.822	1	21
561.992	1	28
562.162	1	25
562.331	1	24
562.501	1	24
562.671	1	22
562.841	1	8
563.011	1	33
563.181	1	20
563.351	1	12
563.521	1	28
563.691	1	13
563.861	1	13
564.031	1	27
564.201	1	31
564.370	1	12
564.540	1	21
564.710	1	13
564.880	1	34
565.050	1	23
565.220	1	17
565.390	1	21
565.560	1	31
565.730	1	18
565.900	1	22
566.069	1	26
566.239	1	28
566.409	1	25
566.579	1	19
566.749	1	16
566.919	1	29
567.089	1	25
567.259	1	29
567.429	1	23
567.599	1	15
567.768	1	27
567.938	1	20
568.108	1	20
568.278	1	18
568.448	1	25
568.618	1	14
568.788	1	23
568.958	1	27
569.128	1	30
569.297	1	15
569.467	1	16
569.637	1	30
569.807	1	26
569.977	1	31
570.147	1	30
570.317	1	15
570.487	1	19
570.656	1	29
570.826	1	27
570.996	1	22
571.166	1	26
571.336	1	18
571.506	1	23
571.676	1	20
571.846	1	27
572.015	1	18
572.185	1	12
572.355	1	21
572.525	1	24
572.695	1	23
572.865	1	9
573.035	1	19
573.205	1	18
573.374	1	3
573.544	1	18
573.714	1	29
573.884	1	19
574.054	1	22
574.224	1	18
574.394	1	18
574.563	1	5
574.733	1	15
574.903	1	13
575.073	1	17
575.243	1	20
575.413	1	27
575.583	1	14
575.752	1	19
575.922	1	14
576.092	1	30
576.262	1	20
576.432	1	22
576.602	1	12
576.772	1	23
576.941	1	19
577.111	1	9
577.281	1	9
577.451	1	14
577.621	1	14
577.791	1	30
577.960	1	21
578.130	1	21
578.300	1	20
578.470	1	25
578.640	1	7
578.810	1	15
578.979	1	24
579.149	1	12
579.319	1	7
579.489	1	20
579.659	1	20
579.829	1	15
579.998	1	23
580.168	1	36
580.338	1	18
580.508	1	22
580.678	1	15
580.848	1	12
581.017	1	20
581.187	1	13
581.357	1	8
581.527	1	19
581.697	1	26
581.867	1	21
582.036	1	23
582.206	1	20
582.376	1	25
582.546	1	6
582.716	1	13
582.885	1	16
583.055	1	19
583.225	1	12
583.395	1	20
583.565	1	13
583.735	1	23
583.904	1	24
584.074	1	23
584.244	1	25
584.414	1	16
584.584	1	19
584.753	1	12
584.923	1	17
585.093	1	14
585.263	1	18
585.433	1	16
585.602	1	12
585.772	1	19
585.942	1	16
586.112	1	26
586.282	1	22
586.451	1	22
586.621	1	6
586.791	1	20
586.961	1	15
587.131	1	25
587.300	1	17
587.470	1	29
587.640	1	27
587.810	1	7
587.980	1	24
588.149	1	17
588.319	1	11
588.489	1	21
588.659	1	25
588.829	1	22
588.998	1	22
589.168	1	18
589.338	1	21
589.508	1	16
589.677	1	10
589.847	1	14
590.017	1	25
590.187	1	12
590.357	1	25
590.526	1	25
590.696	1	30
590.866	1	17
591.036	1	11
591.205	1	18
591.375	1	14
591.545	1	19
591.715	1	23
591.885	1	18
592.054	1	18
592.224	1	18
592.394	1	19
592.564	1	18
592.733	1	14
592.903	1	18
593.073	1	19
593.243	1	20
593.412	1	22
593.582	1	19
593.752	1	20
593.922	1	15
594.091	1	24
594.261	1	20
594.431	1	17
594.601	1	16
594.771	1	20
594.940	1	17
595.110	1	4
595.280	1	26
595.450	1	30
595.619	1	18
595.789	1	17
595.959	1	23
596.129	1	23
596.298	1	14
596.468	1	23
596.638	1	22
596.808	1	20
596.977	1	10
597.147	1	21
597.317	1	9
597.487	1	28
597.656	1	19
597.826	1	22
597.996	1	20
598.166	1	13
598.335	1	11
598.505	1	16
598.675	1	13
598.844	1	23
599.014	1	30
599.184	1	24
599.354	1	6
599.523	1	31
599.693	1	18
599.863	1	21
600.033	1	9
600.202	1	22
600.372	1	28
600.542	1	16
600.712	1	15
600.881	1	18
601.051	1	27
601.221	1	19
601.390	1	10
601.560	1	24
601.730	1	26
601.900	1	26
602.069	1	19
602.239	1	12
602.409	1	10
602.578	1	13
602.748	1	6
602.918	1	30
603.088	1	25
603.257	1	20
603.427	1	3
603.597	1	19
603.767	1	22
603.936	1	19
604.106	1	17
604.276	1	25
604.445	1	33
604.615	1	23
604.785	1	15
604.954	1	21
605.124	1	21
605.294	1	26
605.464	1	13
605.633	1	23
605.803	1	26
605.973	1	27
606.142	1	25
606.312	1	29
606.482	1	28
606.652	1	26
606.821	1	14
606.991	1	14
607.161	1	16
607.330	1	26
607.500	1	23
607.670	1	18
607.839	1	28
608.009	1	29
608.179	1	28
608.348	1	22
608.518	1	23
608.688	1	19
608.858	1	11
609.027	1	19
609.197	1	22
609.367	1	31
609.536	1	29
609.706	1	17
609.876	1	26
610.045	1	26
610.215	1	24
610.385	1	10
610.554	1	25
610.724	1	24
610.894	1	24
611.063	1	29
611.233	1	19
611.403	1	17
611.572	1	11
611.742	1	27
611.912	1	28
612.081	1	7
612.251	1	26
612.421	1	23
612.590	1	21
612.760	1	26
612.930	1	22
613.099	1	29
613.269	1	26
613.439	1	21
613.608	1	24
613.778	1	26
613.948	1	26
614.117	1	16
614.287	1	36
614.457	1	20
614.626	1	17
614.796	1	26
614.966	1	21
615.135	1	22
615.305	1	26
615.475	1	26
615.644	1	24
615.814	1	22
615.984	1	18
616.153	1	18
616.323	1	27
616.493	1	18
616.662	1	38
616.832	1	15
617.002	1	15
617.171	1	31
617.341	1	20
617.511	1	20
617.680	1	18
617.850	1	37
618.019	1	26
618.189	1	36
618.359	1	34
618.528	1	24
618.698	1	18
618.868	1	19
619.037	1	27
619.207	1	31
619.377	1	21
619.546	1	21
619.716	1	33
619.885	1	26
620.055	1	16
620.225	1	28
620.394	1	21
620.564	1	35
620.734	1	27
620.903	1	24
621.073	1	26
621.242	1	28
621.412	1	35
621.582	1	17
621.751	1	24
621.921	1	29
622.091	1	30
622.260	1	27
622.430	1	33
622.599	1	33
622.769	1	18
622.939	1	32
623.108	1	35
623.278	1	16
623.448	1	30
623.617	1	28
623.787	1	30
623.956	1	39
624.126	1	36
624.296	1	27
624.465	1	38
624.635	1	41
624.804	1	37
624.974	1	32
625.144	1	36
625.313	1	30
625.483	1	22
625.652	1	24
625.822	1	31
625.992	1	25
626.161	1	31
626.331	1	30
626.501	1	31
626.670	1	20
626.840	1	20
627.009	1	21
627.179	1	35
627.348	1	29
627.518	1	25
627.688	1	45
627.857	1	29
628.027	1	19
628.196	1	30
628.366	1	37
628.536	1	35
628.705	1	22
628.875	1	33
629.044	1	22
629.214	1	31
629.384	1	31
629.553	1	32
629.723	1	36
629.892	1	36
630.062	1	32
630.232	1	30
630.401	1	41
630.571	1	44
630.740	1	39
630.910	1	43
631.079	1	34
631.249	1	43
631.419	1	28
631.588	1	24
631.758	1	40
631.927	1	27
632.097	1	33
632.266	1	22
632.436	1	46
632.606	1	32
632.775	1	37
632.945	1	42
633.114	1	33
633.284	1	39
633.453	1	33
633.623	1	25
633.793	1	42
633.962	1	46
634.132	1	34
634.301	1	27
634.471	1	35
634.640	1	38
634.810	1	32
634.979	1	37
635.149	1	33
635.319	1	37
635.488	1	27
635.658	1	27
635.827	1	43
635.997	1	34
636.166	1	46
636.336	1	35
636.505	1	42
636.675	1	31
636.845	1	46
637.014	1	44
637.184	1	50
637.353	1	41
637.523	1	47
637.692	1	40
637.862	1	42
638.031	1	43
638.201	1	42
638.370	1	35
638.540	1	33
638.710	1	37
638.879	1	29
639.049	1	34
639.218	1	45
639.388	1	41
639.557	1	41
639.727	1	30
639.896	1	42
640.066	1	39
640.235	1	37
640.405	1	47
640.574	1	38
640.744	1	40
640.914	1	37
641.083	1	36
641.253	1	36
641.422	1	42
641.592	1	44
641.761	1	32
641.931	1	28
642.100	1	65
642.270	1	40
642.439	1	52
642.609	1	52
642.778	1	30
642.948	1	38
643.117	1	44
643.287	1	37
643.456	1	31
643.626	1	46
643.795	1	35
643.965	1	44
644.134	1	39
644.304	1	41
644.473	1	45
644.643	1	42
644.812	1	44
644.982	1	39
645.151	1	44
645.321	1	29
645.490	1	37
645.660	1	30
645.829	1	49
645.999	1	32
646.168	1	49
646.338	1	36
646.507	1	53
646.677	1	35
646.846	1	40
647.016	1	42
647.185	1	53
647.355	1	32
647.524	1	51
647.694	1	50
647.863	1	51
648.033	1	39
648.202	1	48
648.372	1	44
648.541	1	39
648.711	1	39
648.880	1	43
649.050	1	46
649.219	1	42
649.389	1	50
649.558	1	40
649.728	1	48
649.897	1	28
650.067	1	48
650.236	1	49
650.406	1	45
650.575	1	43
650.745	1	45
650.914	1	33
651.084	1	38
651.253	1	42
651.423	1	48
651.592	1	41
651.762	1	45
651.931	1	58
652.101	1	47
652.270	1	46
652.440	1	51
652.609	1	40
652.778	1	37
652.948	1	46
653.117	1	45
653.287	1	39
653.456	1	45
653.626	1	47
653.795	1	44
653.965	1	48
654.134	1	43
654.304	1	26
654.473	1	49
654.643	1	47
654.812	1	55
654.982	1	51
655.151	1	40
655.320	1	47
655.490	1	46
655.659	1	45
655.829	1	51
655.998	1	44
656.168	1	34
656.337	1	47
656.507	1	42
656.676	1	54
656.846	1	48
657.015	1	54
657.184	1	53
657.354	1	43
657.523	1	52
657.693	1	53
657.862	1	52
658.032	1	49
658.201	1	52
658.371	1	56
658.540	1	38
658.709	1	37
658.879	1	57
659.048	1	48
659.218	1	49
659.387	1	47
659.557	1	55
659.726	1	50
659.895	1	39
660.065	1	37
660.234	1	42
660.404	1	51
660.573	1	48
660.743	1	50
660.912	1	46
661.081	1	61
661.251	1	57
661.420	1	45
661.590	1	54
661.759	1	44
661.929	1	42
662.098	1	63
662.267	1	51
662.437	1	60
662.606	1	52
662.776	1	48
662.945	1	52
663.115	1	55
663.284	1	46
663.453	1	56
663.623	1	51
663.792	1	51
663.962	1	47
664.131	1	60
664.300	1	64
664.470	1	50
664.639	1	43
664.809	1	51
664.978	1	55
665.148	1	43
665.317	1	50
665.486	1	60
665.656	1	51
665.825	1	61
665.995	1	56
666.164	1	59
666.333	1	52
666.503	1	48
666.672	1	40
666.842	1	46
667.011	1	47
667.180	1	59
667.350	1	42
667.519	1	59
667.689	1	50
667.858	1	43
668.027	1	65
668.197	1	53
668.366	1	45
668.536	1	53
668.705	1	55
668.874	1	62
669.044	1	55
669.213	1	54
669.382	1	56
669.552	1	61
669.721	1	56
669.891	1	57
670.060	1	55
670.229	1	62
670.399	1	52
670.568	1	59
670.738	1	54
670.907	1	49
671.076	1	42
671.246	1	60
671.415	1	52
671.584	1	47
671.754	1	44
671.923	1	52
672.093	1	56
672.262	1	48
672.431	1	50
672.601	1	49
672.770	1	41
672.939	1	63
673.109	1	52
673.278	1	48
673.448	1	64
673.617	1	48
673.786	1	50
