325.333	1	7
325.504	1	9
325.675	1	10
325.846	1	10
326.017	1	11
326.188	1	17
326.359	1	6
326.531	1	-9
326.702	1	4
326.873	1	13
327.044	1	-1
327.215	1	19
327.386	1	3
327.557	1	2
327.728	1	-4
327.899	1	9
328.070	1	19
328.241	1	10
328.412	1	-4
328.583	1	14
328.754	1	7
328.926	1	10
329.097	1	2
329.268	1	19
329.439	1	9
329.610	1	15
329.781	1	-3
329.952	1	27
330.123	1	10
330.294	1	7
330.465	1	8
330.636	1	16
330.807	1	7
330.978	1	7
331.149	1	12
331.320	1	2
331.492	1	14
331.663	1	16
331.834	1	21
332.005	1	14
332.176	1	12
332.347	1	10
332.518	1	4
332.689	1	14
332.860	1	8
333.031	1	20
333.202	1	1
333.373	1	6
333.544	1	18
333.715	1	15
333.886	1	3
334.057	1	13
334.228	1	15
334.399	1	1
334.570	1	25
334.741	1	3
334.912	1	22
335.084	1	34
335.255	1	12
335.426	1	15
335.597	1	14
335.768	1	11
335.939	1	23
336.110	1	7
336.281	1	6
336.452	1	4
336.623	1	13
336.794	1	21
336.965	1	5
337.136	1	21
337.307	1	14
337.478	1	12
337.649	1	16
337.820	1	12
337.991	1	8
338.162	1	10
338.333	1	21
338.504	1	20
338.675	1	12
338.846	1	22
339.017	1	18
339.188	1	5
339.359	1	12
339.530	1	13
339.701	1	16
339.872	1	15
340.043	1	10
340.214	1	19
340.385	1	29
340.556	1	4
340.727	1	23
340.898	1	21
341.069	1	16
341.240	1	10
341.411	1	20
341.582	1	19
341.753	1	10
341.924	1	14
342.095	1	12
342.266	1	22
342.437	1	20
342.608	1	10
342.779	1	17
342.950	1	11
343.121	1	19
343.292	1	15
343.463	1	15
343.634	1	15
343.805	1	14
343.976	1	26
344.147	1	16
344.318	1	10
344.489	1	11
344.660	1	30
344.831	1	11
345.002	1	17
345.173	1	15
345.344	1	13
345.515	1	12
345.686	1	16
345.857	1	21
346.028	1	14
346.199	1	16
346.370	1	17
346.541	1	22
346.712	1	12
346.883	1	15
347.054	1	12
347.225	1	17
347.396	1	20
347.567	1	19
347.738	1	18
347.909	1	26
348.080	1	14
348.251	1	26
348.422	1	22
348.593	1	23
348.764	1	16
348.935	1	19
349.106	1	6
349.277	1	25
349.448	1	24
349.619	1	17
349.790	1	19
349.961	1	23
350.132	1	29
350.303	1	42
350.474	1	34
350.645	1	25
350.816	1	25
350.987	1	26
351.157	1	17
351.328	1	27
351.499	1	24
351.670	1	16
351.841	1	29
352.012	1	25
352.183	1	37
352.354	1	30
352.525	1	32
352.696	1	35
352.867	1	24
353.038	1	34
353.209	1	28
353.380	1	17
353.551	1	14
353.722	1	23
353.893	1	26
354.064	1	31
354.235	1	26
354.406	1	19
354.576	1	30
354.747	1	26
354.918	1	25
355.089	1	32
355.260	1	28
355.431	1	32
355.602	1	27
355.773	1	26
355.944	1	31
356.115	1	36
356.286	1	30
356.457	1	21
356.628	1	36
356.799	1	28
356.970	1	40
357.141	1	35
357.311	1	26
357.482	1	31
357.653	1	18
357.824	1	43
357.995	1	32
358.166	1	16
358.337	1	29
358.508	1	36
358.679	1	19
358.850	1	32
359.021	1	33
359.192	1	31
359.363	1	29
359.533	1	32
359.704	1	24
359.875	1	41
360.046	1	28
360.217	1	23
360.388	1	29
360.559	1	11
360.730	1	43
360.901	1	24
361.072	1	46
361.243	1	40
361.414	1	24
361.584	1	26
361.755	1	37
361.926	1	17
362.097	1	44
362.268	1	41
362.439	1	25
362.610	1	40
362.781	1	32
362.952	1	28
363.123	1	30
363.293	1	20
363.464	1	36
363.635	1	35
363.806	1	20
363.977	1	39
364.148	1	29
364.319	1	33
364.490	1	30
364.661	1	31
364.832	1	53
365.002	1	27
365.173	1	35
365.344	1	39
365.515	1	30
365.686	1	32
365.857	1	40
366.028	1	39
366.199	1	37
366.370	1	34
366.540	1	31
366.711	1	13
366.882	1	40
367.053	1	25
367.224	1	41
367.395	1	37
367.566	1	43
367.737	1	26
367.908	1	46
368.078	1	38
368.249	1	40
368.420	1	28
368.591	1	33
368.762	1	41
368.933	1	33
369.104	1	26
369.274	1	31
369.445	1	34
369.616	1	30
369.787	1	37
369.958	1	48
370.129	1	37
370.300	1	36
370.471	1	34
370.641	1	38
370.812	1	30
370.983	1	35
371.154	1	37
371.325	1	42
371.496	1	36
371.667	1	35
371.837	1	26
372.008	1	35
372.179	1	26
372.350	1	48
372.521	1	37
372.692	1	34
372.863	1	34
373.033	1	27
373.204	1	32
373.375	1	33
373.546	1	37
373.717	1	42
373.888	1	46
374.059	1	46
374.229	1	46
374.400	1	41
374.571	1	34
374.742	1	45
374.913	1	42
375.084	1	35
375.254	1	45
375.425	1	52
375.596	1	35
375.767	1	46
375.938	1	47
376.109	1	43
376.279	1	34
376.450	1	46
376.621	1	44
376.792	1	32
376.963	1	44
377.134	1	35
377.304	1	45
377.475	1	27
377.646	1	38
377.817	1	41
377.988	1	37
378.159	1	41
378.329	1	58
378.500	1	44
378.671	1	37
378.842	1	45
379.013	1	28
379.184	1	45
379.354	1	46
379.525	1	37
379.696	1	50
379.867	1	44
380.038	1	39
380.209	1	39
380.379	1	42
380.550	1	39
380.721	1	47
380.892	1	39
381.063	1	49
381.233	1	45
381.404	1	39
381.575	1	58
381.746	1	38
381.917	1	40
382.087	1	46
382.258	1	29
382.429	1	46
382.600	1	46
382.771	1	44
382.941	1	35
383.112	1	56
383.283	1	46
383.454	1	54
383.625	1	40
383.795	1	47
383.966	1	44
384.137	1	40
384.308	1	45
384.479	1	44
384.649	1	56
384.820	1	44
384.991	1	43
385.162	1	50
385.333	1	44
385.503	1	44
385.674	1	39
385.845	1	53
386.016	1	44
386.187	1	51
386.357	1	57
386.528	1	51
386.699	1	52
386.870	1	56
387.041	1	54
387.211	1	53
387.382	1	53
387.553	1	54
387.724	1	32
387.894	1	46
388.065	1	55
388.236	1	61
388.407	1	45
388.578	1	54
388.748	1	42
388.919	1	62
389.090	1	53
389.261	1	60
389.431	1	63
389.602	1	47
389.773	1	55
389.944	1	41
390.114	1	60
390.285	1	52
390.456	1	47
390.627	1	51
390.798	1	49
390.968	1	44
391.139	1	48
391.310	1	51
391.481	1	53
391.651	1	50
391.822	1	42
391.993	1	59
392.164	1	41
392.334	1	46
392.505	1	44
392.676	1	56
392.847	1	56
393.017	1	58
393.188	1	49
393.359	1	45
393.530	1	50
393.700	1	59
393.871	1	43
394.042	1	44
394.213	1	46
394.383	1	50
394.554	1	57
394.725	1	49
394.896	1	47
395.066	1	52
395.237	1	55
395.408	1	53
395.579	1	50
395.749	1	51
395.920	1	47
396.091	1	49
396.262	1	51
396.432	1	64
396.603	1	66
396.774	1	51
396.945	1	59
397.115	1	46
397.286	1	62
397.457	1	54
397.627	1	59
397.798	1	57
397.969	1	43
398.140	1	50
398.310	1	48
398.481	1	57
398.652	1	52
398.823	1	50
398.993	1	50
399.164	1	49
399.335	1	59
399.505	1	58
399.676	1	52
399.847	1	48
400.018	1	46
400.188	1	49
400.359	1	59
400.530	1	48
400.700	1	55
400.871	1	44
401.042	1	45
401.213	1	49
401.383	1	57
401.554	1	56
401.725	1	60
401.895	1	50
402.066	1	62
402.237	1	60
402.408	1	61
402.578	1	48
402.749	1	59
402.920	1	54
403.090	1	53
403.261	1	53
403.432	1	49
403.603	1	54
403.773	1	61
403.944	1	57
404.115	1	61
404.285	1	50
404.456	1	54
404.627	1	46
404.797	1	46
404.968	1	43
405.139	1	53
405.310	1	51
405.480	1	62
405.651	1	50
405.822	1	54
405.992	1	40
406.163	1	53
406.334	1	47
406.504	1	56
406.675	1	64
406.846	1	54
407.016	1	65
407.187	1	62
407.358	1	46
407.528	1	38
407.699	1	47
407.870	1	53
408.041	1	49
408.211	1	73
408.382	1	63
408.553	1	52
408.723	1	71
408.894	1	58
409.065	1	64
409.235	1	54
409.406	1	53
409.577	1	46
409.747	1	57
409.918	1	54
410.089	1	47
410.259	1	66
410.430	1	53
410.601	1	56
410.771	1	57
410.942	1	65
411.113	1	60
411.283	1	59
411.454	1	57
411.625	1	55
411.795	1	57
411.966	1	51
412.137	1	51
412.307	1	49
412.478	1	53
412.649	1	52
412.819	1	59
412.990	1	49
413.161	1	63
413.331	1	38
413.502	1	60
413.672	1	50
413.843	1	53
414.014	1	50
414.184	1	59
414.355	1	57
414.526	1	51
414.696	1	72
414.867	1	52
415.038	1	55
415.208	1	60
415.379	1	66
415.550	1	59
415.720	1	53
415.891	1	43
416.062	1	59
416.232	1	51
416.403	1	56
416.573	1	50
416.744	1	46
416.915	1	60
417.085	1	69
417.256	1	51
417.427	1	60
417.597	1	48
417.768	1	43
417.939	1	55
418.109	1	56
418.280	1	64
418.450	1	52
418.621	1	45
418.792	1	51
418.962	1	54
419.133	1	57
419.304	1	45
419.474	1	49
419.645	1	52
419.815	1	52
419.986	1	59
420.157	1	66
420.327	1	59
420.498	1	60
420.669	1	50
420.839	1	61
421.010	1	58
421.180	1	54
421.351	1	48
421.522	1	46
421.692	1	63
421.863	1	60
422.033	1	61
422.204	1	51
422.375	1	46
422.545	1	61
422.716	1	42
422.886	1	45
423.057	1	55
423.228	1	40
423.398	1	53
423.569	1	55
423.740	1	46
423.910	1	44
424.081	1	48
424.251	1	59
424.422	1	48
424.593	1	48
424.763	1	54
424.934	1	58
425.104	1	60
425.275	1	56
425.445	1	49
425.616	1	54
425.787	1	41
425.957	1	52
426.128	1	57
426.298	1	54
426.469	1	39
426.640	1	45
426.810	1	51
426.981	1	48
427.151	1	48
427.322	1	68
427.493	1	48
427.663	1	42
427.834	1	45
428.004	1	54
428.175	1	55
428.345	1	52
428.516	1	40
428.687	1	46
428.857	1	43
429.028	1	50
429.198	1	52
429.369	1	63
429.540	1	53
429.710	1	42
429.881	1	48
430.051	1	42
430.222	1	47
430.392	1	46
430.563	1	59
430.734	1	59
430.904	1	59
431.075	1	50
431.245	1	40
431.416	1	44
431.586	1	41
431.757	1	52
431.927	1	51
432.098	1	53
432.269	1	48
432.439	1	54
432.610	1	50
432.780	1	58
432.951	1	46
433.121	1	50
433.292	1	60
433.462	1	61
433.633	1	56
433.804	1	52
433.974	1	51
434.145	1	64
434.315	1	45
434.486	1	43
434.656	1	58
434.827	1	42
434.997	1	44
435.168	1	51
435.339	1	58
435.509	1	52
435.680	1	47
435.850	1	50
436.021	1	46
436.191	1	51
436.362	1	60
436.532	1	49
436.703	1	50
436.873	1	45
437.044	1	40
437.214	1	47
437.385	1	34
437.556	1	41
437.726	1	54
437.897	1	61
438.067	1	47
438.238	1	50
438.408	1	53
438.579	1	49
438.749	1	38
438.920	1	44
439.090	1	46
439.261	1	42
439.431	1	48
439.602	1	41
439.772	1	50
439.943	1	59
440.113	1	49
440.284	1	48
440.455	1	35
440.625	1	41
440.796	1	48
440.966	1	41
441.137	1	46
441.307	1	38
441.478	1	43
441.648	1	51
441.819	1	46
441.989	1	44
442.160	1	51
442.330	1	45
442.501	1	38
442.671	1	40
442.842	1	33
443.012	1	41
443.183	1	46
443.353	1	43
443.524	1	46
443.694	1	43
443.865	1	36
444.035	1	45
444.206	1	32
444.376	1	37
444.547	1	67
444.717	1	45
444.888	1	42
445.058	1	48
445.229	1	53
445.399	1	30
445.570	1	46
445.740	1	33
445.911	1	44
446.081	1	28
446.252	1	45
446.422	1	42
446.593	1	37
446.763	1	38
446.934	1	28
447.104	1	42
447.275	1	50
447.445	1	45
447.616	1	56
447.786	1	50
447.957	1	49
448.127	1	44
448.298	1	42
448.468	1	44
448.639	1	40
448.809	1	45
448.979	1	32
449.150	1	48
449.320	1	41
449.491	1	37
449.661	1	33
449.832	1	41
450.002	1	47
450.173	1	42
450.343	1	35
450.514	1	33
450.684	1	37
450.855	1	45
451.025	1	42
451.196	1	41
451.366	1	45
451.537	1	34
451.707	1	27
451.878	1	36
452.048	1	50
452.218	1	44
452.389	1	43
452.559	1	40
452.730	1	41
452.900	1	38
453.071	1	40
453.241	1	33
453.412	1	34
453.582	1	43
453.753	1	42
453.923	1	41
454.093	1	38
454.264	1	48
454.434	1	39
454.605	1	40
454.775	1	41
454.946	1	42
455.116	1	49
455.287	1	23
455.457	1	37
455.628	1	29
455.798	1	44
455.968	1	47
456.139	1	39
456.309	1	38
456.480	1	25
456.650	1	35
456.821	1	36
456.991	1	40
457.161	1	28
457.332	1	33
457.502	1	25
457.673	1	51
457.843	1	31
458.014	1	45
458.184	1	39
458.355	1	24
458.525	1	37
458.695	1	22
458.866	1	35
459.036	1	34
459.207	1	31
459.377	1	35
459.548	1	53
459.718	1	28
459.888	1	37
460.059	1	43
460.229	1	36
460.400	1	38
460.570	1	41
460.740	1	42
460.911	1	38
461.081	1	35
461.252	1	38
461.422	1	39
461.593	1	22
461.763	1	36
461.933	1	44
462.104	1	19
462.274	1	32
462.445	1	35
462.615	1	26
462.785	1	36
462.956	1	33
463.126	1	35
463.297	1	34
463.467	1	39
463.638	1	25
463.808	1	31
463.978	1	28
464.149	1	26
464.319	1	33
464.490	1	51
464.660	1	21
464.830	1	20
465.001	1	33
465.171	1	36
465.342	1	32
465.512	1	25
465.682	1	37
465.853	1	32
466.023	1	31
466.194	1	27
466.364	1	25
466.534	1	29
466.705	1	24
466.875	1	25
467.045	1	24
467.216	1	35
467.386	1	28
467.557	1	33
467.727	1	27
467.897	1	30
468.068	1	25
468.238	1	34
468.409	1	16
468.579	1	24
468.749	1	33
468.920	1	23
469.090	1	30
469.260	1	24
469.431	1	41
469.601	1	29
469.772	1	24
469.942	1	19
470.112	1	30
470.283	1	23
470.453	1	28
470.623	1	28
470.794	1	19
470.964	1	31
471.135	1	27
471.305	1	12
471.475	1	25
471.646	1	12
471.816	1	33
471.986	1	17
472.157	1	35
472.327	1	22
472.497	1	32
472.668	1	14
472.838	1	33
473.009	1	19
473.179	1	21
473.349	1	15
473.520	1	29
473.690	1	25
473.860	1	20
474.031	1	20
474.201	1	24
474.371	1	32
474.542	1	29
474.712	1	21
474.882	1	32
475.053	1	18
475.223	1	16
475.394	1	32
475.564	1	22
475.734	1	23
475.905	1	26
476.075	1	25
476.245	1	35
476.416	1	32
476.586	1	27
476.756	1	24
476.927	1	20
477.097	1	18
477.267	1	21
477.438	1	28
477.608	1	24
477.778	1	19
477.949	1	26
478.119	1	33
478.289	1	28
478.460	1	26
478.630	1	33
478.800	1	21
478.971	1	29
479.141	1	28
479.311	1	5
479.482	1	15
479.652	1	26
479.822	1	29
479.993	1	23
480.163	1	38
480.333	1	25
480.504	1	36
480.674	1	30
480.844	1	8
481.015	1	32
481.185	1	21
481.355	1	31
481.525	1	13
481.696	1	22
481.866	1	19
482.036	1	33
482.207	1	18
482.377	1	23
482.547	1	28
482.718	1	16
482.888	1	20
483.058	1	25
483.229	1	20
483.399	1	14
483.569	1	21
483.740	1	13
483.910	1	22
484.080	1	26
484.250	1	31
484.421	1	24
484.591	1	21
484.761	1	30
484.932	1	25
485.102	1	18
485.272	1	24
485.443	1	26
485.613	1	24
485.783	1	26
485.953	1	17
486.124	1	22
486.294	1	18
486.464	1	26
486.635	1	25
486.805	1	27
486.975	1	7
487.146	1	18
487.316	1	20
487.486	1	19
487.656	1	18
487.827	1	25
487.997	1	16
488.167	1	25
488.338	1	22
488.508	1	21
488.678	1	15
488.848	1	31
489.019	1	9
489.189	1	26
489.359	1	16
489.529	1	15
489.700	1	15
489.870	1	28
490.040	1	20
490.211	1	14
490.381	1	22
490.551	1	16
490.721	1	31
490.892	1	15
491.062	1	26
491.232	1	19
491.402	1	17
491.573	1	2
491.743	1	21
491.913	1	4
492.084	1	24
492.254	1	11
492.424	1	24
492.594	1	12
492.765	1	12
492.935	1	16
493.105	1	26
493.275	1	11
493.446	1	23
493.616	1	23
493.786	1	12
493.956	1	15
494.127	1	13
494.297	1	9
494.467	1	16
494.637	1	14
494.808	1	16
494.978	1	9
495.148	1	14
495.318	1	17
495.489	1	21
495.659	1	21
495.829	1	17
495.999	1	4
496.170	1	15
496.340	1	24
496.510	1	17
496.680	1	8
496.851	1	14
497.021	1	20
497.191	1	6
497.361	1	6
497.532	1	14
497.702	1	11
497.872	1	17
498.042	1	23
498.213	1	5
498.383	1	15
498.553	1	6
498.723	1	13
498.894	1	11
499.064	1	12
499.234	1	21
499.404	1	19
499.574	1	17
499.745	1	10
499.915	1	11
500.085	1	11
500.255	1	26
500.426	1	13
500.596	1	21
500.766	1	16
500.936	1	12
501.106	1	7
501.277	1	15
501.447	1	20
501.617	1	15
501.787	1	7
501.958	1	6
502.128	1	16
502.298	1	16
502.468	1	15
502.638	1	20
502.809	1	20
502.979	1	7
503.149	1	10
503.319	1	1
503.489	1	8
503.660	1	18
503.830	1	8
504.000	1	18
504.170	1	15
504.340	1	15
504.511	1	18
504.681	1	9
504.851	1	15
505.021	1	15
505.192	1	8
505.362	1	13
505.532	1	16
505.702	1	5
505.872	1	18
506.043	1	12
506.213	1	1
506.383	1	16
506.553	1	14
506.723	1	18
506.893	1	17
507.064	1	18
507.234	1	9
507.404	1	18
507.574	1	20
507.744	1	8
507.915	1	18
508.085	1	21
508.255	1	16
508.425	1	2
508.595	1	17
508.766	1	11
508.936	1	1
509.106	1	17
509.276	1	23
509.446	1	8
509.616	1	6
509.787	1	10
509.957	1	11
510.127	1	9
510.297	1	11
510.467	1	8
510.638	1	12
510.808	1	3
510.978	1	4
511.148	1	17
511.318	1	20
511.488	1	4
511.659	1	17
511.829	1	4
511.999	1	5
512.169	1	10
512.339	1	7
512.509	1	12
512.680	1	-2
512.850	1	5
513.020	1	15
513.190	1	19
513.360	1	6
513.530	1	9
513.700	1	15
513.871	1	-2
514.041	1	-1
514.211	1	23
514.381	1	11
514.551	1	13
514.721	1	10
514.892	1	21
515.062	1	16
515.232	1	7
515.402	1	2
515.572	1	9
515.742	1	10
515.912	1	12
516.083	1	15
516.253	1	15
516.423	1	13
516.593	1	5
516.763	1	19
516.933	1	13
517.104	1	7
517.274	1	5
517.444	1	17
517.614	1	0
517.784	1	9
517.954	1	5
518.124	1	19
518.294	1	5
518.465	1	7
518.635	1	6
518.805	1	9
518.975	1	1
519.145	1	9
519.315	1	8
519.485	1	0
519.656	1	17
519.826	1	14
519.996	1	5
520.166	1	9
520.336	1	15
520.506	1	5
520.676	1	7
520.846	1	20
521.017	1	7
521.187	1	5
521.357	1	24
521.527	1	7
521.697	1	10
521.867	1	11
522.037	1	13
522.207	1	15
522.377	1	10
522.548	1	9
522.718	1	11
522.888	1	16
523.058	1	0
523.228	1	13
523.398	1	3
523.568	1	6
523.738	1	6
523.909	1	13
524.079	1	1
524.249	1	7
524.419	1	3
524.589	1	17
524.759	1	0
524.929	1	-1
525.099	1	11
525.269	1	10
525.439	1	5
525.610	1	23
525.780	1	6
525.950	1	14
526.120	1	-3
526.290	1	10
526.460	1	-1
526.630	1	6
526.800	1	0
526.970	1	2
527.140	1	17
527.311	1	-2
527.481	1	2
527.651	1	13
527.821	1	4
527.991	1	21
528.161	1	24
528.331	1	11
528.501	1	4
528.671	1	-5
528.841	1	10
529.011	1	-3
529.181	1	11
529.352	1	6
529.522	1	-2
529.692	1	7
529.862	1	2
530.032	1	7
530.202	1	8
530.372	1	8
530.542	1	11
530.712	1	11
530.882	1	4
531.052	1	11
531.222	1	8
531.392	1	9
531.563	1	16
531.733	1	12
531.903	1	4
532.073	1	10
532.243	1	4
532.413	1	7
532.583	1	12
532.753	1	10
532.923	1	3
533.093	1	17
533.263	1	3
533.433	1	10
533.603	1	10
533.773	1	3
533.943	1	0
534.113	1	4
534.284	1	4
534.454	1	12
534.624	1	13
534.794	1	4
534.964	1	5
535.134	1	4
535.304	1	1
535.474	1	20
535.644	1	-8
535.814	1	4
535.984	1	2
536.154	1	13
536.324	1	2
536.494	1	10
536.664	1	13
536.834	1	9
537.004	1	9
537.174	1	11
537.344	1	6
537.514	1	-7
537.685	1	9
537.855	1	6
538.025	1	6
538.195	1	0
538.365	1	17
538.535	1	5
538.705	1	11
538.875	1	13
539.045	1	11
539.215	1	12
539.385	1	7
539.555	1	7
539.725	1	3
539.895	1	-4
540.065	1	14
540.235	1	19
540.405	1	-2
540.575	1	6
540.745	1	10
540.915	1	16
541.085	1	12
541.255	1	-9
541.425	1	9
541.595	1	6
541.765	1	17
541.935	1	8
542.105	1	1
542.275	1	12
542.445	1	-10
542.615	1	6
542.785	1	12
542.955	1	8
543.125	1	10
543.295	1	11
543.465	1	13
543.635	1	4
543.805	1	20
543.975	1	2
544.145	1	15
544.315	1	14
544.485	1	22
544.655	1	3
544.825	1	-9
544.995	1	8
545.165	1	1
545.335	1	6
545.505	1	0
545.675	1	6
545.845	1	11
546.015	1	14
546.185	1	15
546.355	1	5
546.525	1	8
546.695	1	2
546.865	1	-1
547.035	1	3
547.205	1	-14
547.375	1	0
547.545	1	14
547.715	1	1
547.885	1	15
548.055	1	1
548.225	1	9
548.395	1	3
548.565	1	9
548.735	1	-7
548.905	1	0
549.075	1	1
549.245	1	9
549.415	1	5
549.585	1	14
549.755	1	10
549.925	1	-5
550.095	1	6
550.265	1	11
550.435	1	3
550.605	1	0
550.775	1	12
550.945	1	12
551.115	1	6
551.285	1	7
551.455	1	6
551.625	1	18
551.795	1	10
551.965	1	-3
552.135	1	-4
552.305	1	6
552.475	1	3
552.645	1	-1
552.815	1	6
552.985	1	14
553.155	1	6
553.325	1	11
553.495	1	-3
553.665	1	-4
553.835	1	8
554.004	1	4
554.174	1	0
554.344	1	10
554.514	1	5
554.684	1	10
554.854	1	12
555.024	1	-1
555.194	1	1
555.364	1	5
555.534	1	3
555.704	1	-1
555.874	1	15
556.044	1	6
556.214	1	4
556.384	1	9
556.554	1	13
556.724	1	2
556.894	1	0
557.064	1	-3
557.234	1	0
557.404	1	12
557.573	1	2
557.743	1	2
557.913	1	-2
558.083	1	2
558.253	1	3
558.423	1	-2
558.593	1	13
558.763	1	3
558.933	1	6
559.103	1	14
559.273	1	7
559.443	1	4
559.613	1	9
559.783	1	1
559.953	1	-1
560.122	1	10
560.292	1	-4
560.462	1	-4
560.632	1	7
560.802	1	12
560.972	1	5
561.142	1	16
561.312	1	5
561.482	1	5
561.652	1	5
561.822	1	-2
561.992	1	5
562.162	1	3
562.331	1	5
562.501	1	-2
562.671	1	0
562.841	1	-6
563.011	1	4
563.181	1	2
563.351	1	2
563.521	1	7
563.691	1	-4
563.861	1	3
564.031	1	23
564.201	1	21
564.370	1	-3
564.540	1	7
564.710	1	-6
564.880	1	11
565.050	1	12
565.220	1	-1
565.390	1	10
565.560	1	1
565.730	1	-4
565.900	1	13
566.069	1	13
566.239	1	5
566.409	1	5
566.579	1	8
566.749	1	3
566.919	1	11
567.089	1	4
567.259	1	11
567.429	1	6
567.599	1	1
567.768	1	3
567.938	1	5
568.108	1	4
568.278	1	2
568.448	1	3
568.618	1	-1
568.788	1	0
568.958	1	-3
569.128	1	8
569.297	1	9
569.467	1	9
569.637	1	11
569.807	1	-4
569.977	1	13
570.147	1	12
570.317	1	-4
570.487	1	3
570.656	1	14
570.826	1	1
570.996	1	-2
571.166	1	17
571.336	1	6
571.506	1	6
571.676	1	2
571.846	1	10
572.015	1	9
572.185	1	-1
572.355	1	5
572.525	1	5
572.695	1	13
572.865	1	0
573.035	1	7
573.205	1	6
573.374	1	-7
573.544	1	2
573.714	1	12
573.884	1	9
574.054	1	11
574.224	1	3
574.394	1	1
574.563	1	-1
574.733	1	2
574.903	1	4
575.073	1	4
575.243	1	-4
575.413	1	8
575.583	1	-1
575.752	1	10
575.922	1	4
576.092	1	3
576.262	1	5
576.432	1	13
576.602	1	-2
576.772	1	5
576.941	1	5
577.111	1	4
577.281	1	-11
577.451	1	-3
577.621	1	11
577.791	1	6
577.960	1	-9
578.130	1	9
578.300	1	8
578.470	1	6
578.640	1	3
578.810	1	2
578.979	1	6
579.149	1	6
579.319	1	-1
579.489	1	1
579.659	1	6
579.829	1	6
579.998	1	18
580.168	1	4
580.338	1	4
580.508	1	4
580.678	1	6
580.848	1	8
581.017	1	7
581.187	1	-4
581.357	1	-7
581.527	1	6
581.697	1	3
581.867	1	6
582.036	1	-4
582.206	1	9
582.376	1	6
582.546	1	-5
582.716	1	-6
582.885	1	3
583.055	1	3
583.225	1	-2
583.395	1	7
583.565	1	-8
583.735	1	11
583.904	1	9
584.074	1	4
584.244	1	5
584.414	1	3
584.584	1	7
584.753	1	-3
584.923	1	6
585.093	1	-4
585.263	1	6
585.433	1	7
585.602	1	0
585.772	1	-1
585.942	1	-5
586.112	1	11
586.282	1	3
586.451	1	-11
586.621	1	6
586.791	1	5
586.961	1	4
587.131	1	12
587.300	1	2
587.470	1	10
587.640	1	6
587.810	1	6
587.980	1	0
588.149	1	0
588.319	1	1
588.489	1	-3
588.659	1	4
588.829	1	12
588.998	1	11
589.168	1	7
589.338	1	-1
589.508	1	7
589.677	1	-1
589.847	1	-2
590.017	1	9
590.187	1	0
590.357	1	14
590.526	1	14
590.696	1	11
590.866	1	16
591.036	1	3
591.205	1	10
591.375	1	-1
591.545	1	1
591.715	1	21
591.885	1	-4
592.054	1	12
592.224	1	10
592.394	1	-1
592.564	1	3
592.733	1	4
592.903	1	-3
593.073	1	4
593.243	1	6
593.412	1	8
593.582	1	3
593.752	1	6
593.922	1	5
594.091	1	-4
594.261	1	-6
594.431	1	0
594.601	1	8
594.771	1	6
594.940	1	17
595.110	1	5
595.280	1	9
595.450	1	0
595.619	1	8
595.789	1	12
595.959	1	5
596.129	1	-3
596.298	1	5
596.468	1	5
596.638	1	3
596.808	1	3
596.977	1	0
597.147	1	10
597.317	1	-1
597.487	1	12
597.656	1	12
597.826	1	9
597.996	1	-2
598.166	1	-3
598.335	1	-5
598.505	1	-3
598.675	1	2
598.844	1	6
599.014	1	-3
599.184	1	6
599.354	1	-11
599.523	1	14
599.693	1	0
599.863	1	16
600.033	1	9
600.202	1	8
600.372	1	-1
600.542	1	16
600.712	1	8
600.881	1	-2
601.051	1	7
601.221	1	14
601.390	1	-6
601.560	1	16
601.730	1	5
601.900	1	7
602.069	1	8
602.239	1	4
602.409	1	-10
602.578	1	2
602.748	1	-1
602.918	1	2
603.088	1	7
603.257	1	4
603.427	1	-7
603.597	1	-6
603.767	1	7
603.936	1	12
604.106	1	4
604.276	1	14
604.445	1	11
604.615	1	9
604.785	1	0
604.954	1	4
605.124	1	4
605.294	1	6
605.464	1	6
605.633	1	14
605.803	1	6
605.973	1	1
606.142	1	6
606.312	1	8
606.482	1	4
606.652	1	11
606.821	1	5
606.991	1	10
607.161	1	1
607.330	1	8
607.500	1	4
607.670	1	-10
607.839	1	11
608.009	1	20
608.179	1	7
608.348	1	3
608.518	1	5
608.688	1	11
608.858	1	2
609.027	1	-3
609.197	1	7
609.367	1	8
609.536	1	5
609.706	1	4
609.876	1	6
610.045	1	5
610.215	1	14
610.385	1	6
610.554	1	1
610.724	1	12
610.894	1	-4
611.063	1	9
611.233	1	10
611.403	1	-4
611.572	1	4
611.742	1	8
611.912	1	12
612.081	1	4
612.251	1	-3
612.421	1	0
612.590	1	5
612.760	1	5
612.930	1	5
613.099	1	4
613.269	1	17
613.439	1	1
613.608	1	0
613.778	1	8
613.948	1	5
614.117	1	3
614.287	1	-2
614.457	1	9
614.626	1	2
614.796	1	7
614.966	1	5
615.135	1	8
615.305	1	9
615.475	1	5
615.644	1	4
615.814	1	2
615.984	1	-1
616.153	1	3
616.323	1	9
616.493	1	2
616.662	1	13
616.832	1	1
617.002	1	3
617.171	1	11
617.341	1	7
617.511	1	3
617.680	1	-6
617.850	1	2
618.019	1	19
618.189	1	9
618.359	1	11
618.528	1	7
618.698	1	4
618.868	1	-3
619.037	1	12
619.207	1	3
619.377	1	0
619.546	1	-4
619.716	1	0
619.885	1	0
620.055	1	-6
620.225	1	10
620.394	1	4
620.564	1	10
620.734	1	8
620.903	1	2
621.073	1	19
621.242	1	11
621.412	1	-5
621.582	1	-2
621.751	1	9
621.921	1	6
622.091	1	-1
622.260	1	3
622.430	1	10
622.599	1	-2
622.769	1	3
622.939	1	12
623.108	1	8
623.278	1	-3
623.448	1	-7
623.617	1	4
623.787	1	7
623.956	1	11
624.126	1	3
624.296	1	7
624.465	1	15
624.635	1	14
624.804	1	12
624.974	1	8
625.144	1	8
625.313	1	4
625.483	1	-2
625.652	1	1
625.822	1	-5
625.992	1	9
626.161	1	10
626.331	1	3
626.501	1	6
626.670	1	9
626.840	1	7
627.009	1	2
627.179	1	17
627.348	1	16
627.518	1	4
627.688	1	5
627.857	1	10
628.027	1	0
628.196	1	6
628.366	1	15
628.536	1	5
628.705	1	1
628.875	1	4
629.044	1	10
629.214	1	13
629.384	1	9
629.553	1	16
629.723	1	7
629.892	1	12
630.062	1	3
630.232	1	2
630.401	1	23
630.571	1	9
630.740	1	14
630.910	1	14
631.079	1	7
631.249	1	3
631.419	1	8
631.588	1	-2
631.758	1	6
631.927	1	5
632.097	1	2
632.266	1	-2
632.436	1	7
632.606	1	0
632.775	1	16
632.945	1	12
633.114	1	20
633.284	1	5
633.453	1	-2
633.623	1	11
633.793	1	3
633.962	1	12
634.132	1	5
634.301	1	7
634.471	1	7
634.640	1	10
634.810	1	16
634.979	1	12
635.149	1	15
635.319	1	11
635.488	1	11
635.658	1	4
635.827	1	-3
635.997	1	5
636.166	1	12
636.336	1	-1
636.505	1	6
636.675	1	2
636.845	1	14
637.014	1	5
637.184	1	7
637.353	1	10
637.523	1	7
637.692	1	5
637.862	1	8
638.031	1	7
638.201	1	13
638.370	1	6
638.540	1	0
638.710	1	9
638.879	1	-1
639.049	1	13
639.218	1	10
639.388	1	2
639.557	1	3
639.727	1	11
639.896	1	4
640.066	1	6
640.235	1	5
640.405	1	5
640.574	1	7
640.744	1	2
640.914	1	10
641.083	1	7
641.253	1	3
641.422	1	8
641.592	1	20
641.761	1	6
641.931	1	9
642.100	1	21
642.270	1	5
642.439	1	9
642.609	1	12
642.778	1	0
642.948	1	-2
643.117	1	19
643.287	1	9
643.456	1	13
643.626	1	12
643.795	1	5
643.965	1	17
644.134	1	12
644.304	1	12
644.473	1	-2
644.643	1	7
644.812	1	7
644.982	1	-2
645.151	1	4
645.321	1	2
645.490	1	16
645.660	1	1
645.829	1	10
645.999	1	6
646.168	1	18
646.338	1	6
646.507	1	1
646.677	1	5
646.846	1	4
647.016	1	8
647.185	1	15
647.355	1	-11
647.524	1	14
647.694	1	8
647.863	1	6
648.033	1	16
648.202	1	18
648.372	1	8
648.541	1	10
648.711	1	10
648.880	1	7
649.050	1	-5
649.219	1	11
649.389	1	10
649.558	1	10
649.728	1	12
649.897	1	9
650.067	1	12
650.236	1	10
650.406	1	4
650.575	1	11
650.745	1	11
650.914	1	8
651.084	1	-5
651.253	1	11
651.423	1	8
651.592	1	7
651.762	1	7
651.931	1	10
652.101	1	11
652.270	1	11
652.440	1	17
652.609	1	1
652.778	1	1
652.948	1	7
653.117	1	8
653.287	1	6
653.456	1	10
653.626	1	10
653.795	1	6
653.965	1	10
654.134	1	12
654.304	1	-8
654.473	1	16
654.643	1	14
654.812	1	11
654.982	1	6
655.151	1	1
655.320	1	8
655.490	1	5
655.659	1	5
655.829	1	5
655.998	1	2
656.168	1	10
656.337	1	15
656.507	1	7
656.676	1	11
656.846	1	19
657.015	1	3
657.184	1	7
657.354	1	14
657.523	1	11
657.693	1	17
657.862	1	10
658.032	1	11
658.201	1	15
658.371	1	14
658.540	1	5
658.709	1	0
658.879	1	15
659.048	1	7
659.218	1	10
659.387	1	3
659.557	1	15
659.726	1	15
659.895	1	5
660.065	1	1
660.234	1	9
660.404	1	16
660.573	1	10
660.743	1	9
660.912	1	0
661.081	1	24
661.251	1	8
661.420	1	12
661.590	1	12
661.759	1	17
661.929	1	10
662.098	1	0
662.267	1	10
662.437	1	16
662.606	1	7
662.776	1	9
662.945	1	6
663.115	1	19
663.284	1	-1
663.453	1	6
663.623	1	6
663.792	1	8
663.962	1	5
664.131	1	6
664.300	1	17
664.470	1	8
664.639	1	15
664.809	1	14
664.978	1	22
665.148	1	2
665.317	1	3
665.486	1	17
665.656	1	5
665.825	1	10
665.995	1	2
666.164	1	8
666.333	1	15
666.503	1	4
666.672	1	1
666.842	1	3
667.011	1	4
667.180	1	13
667.350	1	5
667.519	1	8
667.689	1	7
667.858	1	12
668.027	1	12
668.197	1	12
668.366	1	3
668.536	1	11
668.705	1	4
668.874	1	7
669.044	1	6
669.213	1	20
669.382	1	7
669.552	1	21
669.721	1	26
669.891	1	15
670.060	1	25
670.229	1	24
670.399	1	4
670.568	1	18
670.738	1	16
670.907	1	6
671.076	1	4
671.246	1	8
671.415	1	2
671.584	1	7
671.754	1	3
671.923	1	10
672.093	1	8
672.262	1	2
672.431	1	7
672.601	1	6
672.770	1	-6
672.939	1	15
673.109	1	9
673.278	1	8
673.448	1	9
673.617	1	5
673.786	1	12
