325.333	1	29
325.504	1	20
325.675	1	28
325.846	1	26
326.017	1	27
326.188	1	35
326.359	1	27
326.531	1	16
326.702	1	31
326.873	1	40
327.044	1	31
327.215	1	25
327.386	1	35
327.557	1	23
327.728	1	32
327.899	1	30
328.070	1	39
328.241	1	43
328.412	1	26
328.583	1	33
328.754	1	25
328.926	1	47
329.097	1	34
329.268	1	52
329.439	1	42
329.610	1	50
329.781	1	34
329.952	1	42
330.123	1	38
330.294	1	41
330.465	1	37
330.636	1	43
330.807	1	34
330.978	1	36
331.149	1	32
331.320	1	43
331.492	1	48
331.663	1	48
331.834	1	54
332.005	1	50
332.176	1	55
332.347	1	52
332.518	1	35
332.689	1	47
332.860	1	37
333.031	1	50
333.202	1	30
333.373	1	44
333.544	1	49
333.715	1	51
333.886	1	45
334.057	1	55
334.228	1	43
334.399	1	37
334.570	1	56
334.741	1	36
334.912	1	54
335.084	1	60
335.255	1	54
335.426	1	48
335.597	1	54
335.768	1	41
335.939	1	53
336.110	1	52
336.281	1	44
336.452	1	47
336.623	1	49
336.794	1	54
336.965	1	56
337.136	1	55
337.307	1	50
337.478	1	45
337.649	1	52
337.820	1	50
337.991	1	48
338.162	1	60
338.333	1	58
338.504	1	58
338.675	1	52
338.846	1	61
339.017	1	53
339.188	1	50
339.359	1	38
339.530	1	67
339.701	1	58
339.872	1	70
340.043	1	46
340.214	1	57
340.385	1	69
340.556	1	64
340.727	1	57
340.898	1	66
341.069	1	58
341.240	1	66
341.411	1	61
341.582	1	65
341.753	1	56
341.924	1	59
342.095	1	70
342.266	1	68
342.437	1	74
342.608	1	77
342.779	1	75
342.950	1	69
343.121	1	70
343.292	1	60
343.463	1	69
343.634	1	67
343.805	1	77
343.976	1	82
344.147	1	67
344.318	1	67
344.489	1	80
344.660	1	83
344.831	1	71
345.002	1	65
345.173	1	76
345.344	1	79
345.515	1	81
345.686	1	78
345.857	1	78
346.028	1	79
346.199	1	78
346.370	1	74
346.541	1	90
346.712	1	76
346.883	1	75
347.054	1	87
347.225	1	81
347.396	1	85
347.567	1	74
347.738	1	70
347.909	1	89
348.080	1	66
348.251	1	84
348.422	1	92
348.593	1	79
348.764	1	86
348.935	1	81
349.106	1	78
349.277	1	96
349.448	1	87
349.619	1	92
349.790	1	104
349.961	1	89
350.132	1	91
350.303	1	88
350.474	1	95
350.645	1	91
350.816	1	87
350.987	1	102
351.157	1	82
351.328	1	98
351.499	1	98
351.670	1	90
351.841	1	114
352.012	1	98
352.183	1	105
352.354	1	106
352.525	1	105
352.696	1	114
352.867	1	102
353.038	1	110
353.209	1	105
353.380	1	96
353.551	1	97
353.722	1	104
353.893	1	106
354.064	1	112
354.235	1	100
354.406	1	103
354.576	1	108
354.747	1	114
354.918	1	105
355.089	1	102
355.260	1	111
355.431	1	119
355.602	1	99
355.773	1	105
355.944	1	115
356.115	1	112
356.286	1	110
356.457	1	111
356.628	1	114
356.799	1	106
356.970	1	115
357.141	1	119
357.311	1	101
357.482	1	108
357.653	1	111
357.824	1	123
357.995	1	122
358.166	1	98
358.337	1	116
358.508	1	119
358.679	1	120
358.850	1	113
359.021	1	113
359.192	1	112
359.363	1	114
359.533	1	106
359.704	1	122
359.875	1	103
360.046	1	114
360.217	1	113
360.388	1	125
360.559	1	132
360.730	1	116
360.901	1	118
361.072	1	123
361.243	1	123
361.414	1	115
361.584	1	118
361.755	1	120
361.926	1	110
362.097	1	127
362.268	1	126
362.439	1	116
362.610	1	131
362.781	1	115
362.952	1	120
363.123	1	114
363.293	1	129
363.464	1	126
363.635	1	128
363.806	1	113
363.977	1	128
364.148	1	110
364.319	1	126
364.490	1	130
364.661	1	126
364.832	1	126
365.002	1	128
365.173	1	127
365.344	1	132
365.515	1	124
365.686	1	126
365.857	1	119
366.028	1	142
366.199	1	130
366.370	1	134
366.540	1	124
366.711	1	116
366.882	1	133
367.053	1	130
367.224	1	142
367.395	1	123
367.566	1	134
367.737	1	145
367.908	1	141
368.078	1	135
368.249	1	132
368.420	1	127
368.591	1	133
368.762	1	134
368.933	1	129
369.104	1	126
369.274	1	123
369.445	1	143
369.616	1	127
369.787	1	134
369.958	1	137
370.129	1	123
370.300	1	139
370.471	1	139
370.641	1	142
370.812	1	136
370.983	1	139
371.154	1	142
371.325	1	130
371.496	1	136
371.667	1	132
371.837	1	129
372.008	1	133
372.179	1	138
372.350	1	146
372.521	1	140
372.692	1	134
372.863	1	140
373.033	1	120
373.204	1	125
373.375	1	143
373.546	1	145
373.717	1	136
373.888	1	146
374.059	1	152
374.229	1	148
374.400	1	130
374.571	1	142
374.742	1	145
374.913	1	146
375.084	1	155
375.254	1	152
375.425	1	147
375.596	1	141
375.767	1	149
375.938	1	151
376.109	1	142
376.279	1	135
376.450	1	138
376.621	1	149
376.792	1	143
376.963	1	138
377.134	1	158
377.304	1	147
377.475	1	159
377.646	1	133
377.817	1	136
377.988	1	149
378.159	1	162
378.329	1	156
378.500	1	136
378.671	1	143
378.842	1	135
379.013	1	144
379.184	1	150
379.354	1	167
379.525	1	147
379.696	1	170
379.867	1	167
380.038	1	144
380.209	1	158
380.379	1	151
380.550	1	148
380.721	1	157
380.892	1	157
381.063	1	153
381.233	1	169
381.404	1	159
381.575	1	162
381.746	1	166
381.917	1	176
382.087	1	150
382.258	1	167
382.429	1	176
382.600	1	171
382.771	1	168
382.941	1	165
383.112	1	173
383.283	1	168
383.454	1	165
383.625	1	164
383.795	1	160
383.966	1	172
384.137	1	157
384.308	1	180
384.479	1	178
384.649	1	172
384.820	1	180
384.991	1	181
385.162	1	172
385.333	1	164
385.503	1	164
385.674	1	167
385.845	1	186
386.016	1	184
386.187	1	178
386.357	1	180
386.528	1	192
386.699	1	182
386.870	1	184
387.041	1	177
387.211	1	181
387.382	1	190
387.553	1	169
387.724	1	186
387.894	1	200
388.065	1	188
388.236	1	191
388.407	1	185
388.578	1	189
388.748	1	182
388.919	1	197
389.090	1	186
389.261	1	182
389.431	1	187
389.602	1	180
389.773	1	195
389.944	1	194
390.114	1	185
390.285	1	194
390.456	1	186
390.627	1	179
390.798	1	201
390.968	1	172
391.139	1	196
391.310	1	185
391.481	1	196
391.651	1	190
391.822	1	179
391.993	1	185
392.164	1	178
392.334	1	178
392.505	1	172
392.676	1	189
392.847	1	203
393.017	1	194
393.188	1	200
393.359	1	175
393.530	1	183
393.700	1	187
393.871	1	192
394.042	1	177
394.213	1	187
394.383	1	183
394.554	1	198
394.725	1	209
394.896	1	178
395.066	1	200
395.237	1	198
395.408	1	204
395.579	1	190
395.749	1	201
395.920	1	194
396.091	1	199
396.262	1	196
396.432	1	183
396.603	1	205
396.774	1	204
396.945	1	205
397.115	1	211
397.286	1	206
397.457	1	190
397.627	1	197
397.798	1	200
397.969	1	188
398.140	1	206
398.310	1	200
398.481	1	215
398.652	1	202
398.823	1	203
398.993	1	203
399.164	1	196
399.335	1	207
399.505	1	207
399.676	1	188
399.847	1	192
400.018	1	195
400.188	1	204
400.359	1	211
400.530	1	203
400.700	1	191
400.871	1	193
401.042	1	211
401.213	1	200
401.383	1	206
401.554	1	206
401.725	1	206
401.895	1	203
402.066	1	197
402.237	1	197
402.408	1	213
402.578	1	187
402.749	1	199
402.920	1	203
403.090	1	213
403.261	1	195
403.432	1	204
403.603	1	200
403.773	1	200
403.944	1	195
404.115	1	202
404.285	1	224
404.456	1	215
404.627	1	201
404.797	1	198
404.968	1	200
405.139	1	205
405.310	1	207
405.480	1	213
405.651	1	197
405.822	1	210
405.992	1	198
406.163	1	215
406.334	1	207
406.504	1	213
406.675	1	218
406.846	1	214
407.016	1	213
407.187	1	210
407.358	1	212
407.528	1	206
407.699	1	203
407.870	1	208
408.041	1	210
408.211	1	229
408.382	1	198
408.553	1	213
408.723	1	209
408.894	1	205
409.065	1	214
409.235	1	217
409.406	1	219
409.577	1	209
409.747	1	211
409.918	1	209
410.089	1	200
410.259	1	201
410.430	1	204
410.601	1	212
410.771	1	200
410.942	1	225
411.113	1	214
411.283	1	206
411.454	1	204
411.625	1	214
411.795	1	211
411.966	1	220
412.137	1	209
412.307	1	195
412.478	1	204
412.649	1	211
412.819	1	215
412.990	1	208
413.161	1	200
413.331	1	187
413.502	1	212
413.672	1	199
413.843	1	207
414.014	1	199
414.184	1	212
414.355	1	198
414.526	1	205
414.696	1	216
414.867	1	208
415.038	1	184
415.208	1	203
415.379	1	202
415.550	1	209
415.720	1	198
415.891	1	206
416.062	1	206
416.232	1	206
416.403	1	211
416.573	1	213
416.744	1	199
416.915	1	203
417.085	1	217
417.256	1	214
417.427	1	201
417.597	1	183
417.768	1	197
417.939	1	209
418.109	1	215
418.280	1	210
418.450	1	204
418.621	1	193
418.792	1	196
418.962	1	204
419.133	1	221
419.304	1	200
419.474	1	209
419.645	1	202
419.815	1	194
419.986	1	191
420.157	1	208
420.327	1	200
420.498	1	202
420.669	1	198
420.839	1	196
421.010	1	209
421.180	1	195
421.351	1	200
421.522	1	197
421.692	1	205
421.863	1	199
422.033	1	208
422.204	1	196
422.375	1	200
422.545	1	197
422.716	1	192
422.886	1	202
423.057	1	211
423.228	1	197
423.398	1	187
423.569	1	193
423.740	1	181
423.910	1	191
424.081	1	187
424.251	1	177
424.422	1	189
424.593	1	174
424.763	1	193
424.934	1	188
425.104	1	175
425.275	1	193
425.445	1	196
425.616	1	184
425.787	1	178
425.957	1	202
426.128	1	201
426.298	1	189
426.469	1	171
426.640	1	190
426.810	1	184
426.981	1	171
427.151	1	189
427.322	1	191
427.493	1	180
427.663	1	181
427.834	1	179
428.004	1	181
428.175	1	177
428.345	1	169
428.516	1	181
428.687	1	181
428.857	1	177
429.028	1	173
429.198	1	191
429.369	1	177
429.540	1	183
429.710	1	162
429.881	1	201
430.051	1	184
430.222	1	177
430.392	1	177
430.563	1	187
430.734	1	198
430.904	1	176
431.075	1	183
431.245	1	184
431.416	1	190
431.586	1	182
431.757	1	168
431.927	1	191
432.098	1	174
432.269	1	180
432.439	1	174
432.610	1	166
432.780	1	202
432.951	1	178
433.121	1	181
433.292	1	185
433.462	1	175
433.633	1	176
433.804	1	193
433.974	1	176
434.145	1	192
434.315	1	181
434.486	1	173
434.656	1	178
434.827	1	167
434.997	1	177
435.168	1	185
435.339	1	181
435.509	1	178
435.680	1	166
435.850	1	171
436.021	1	172
436.191	1	169
436.362	1	190
436.532	1	173
436.703	1	143
436.873	1	162
437.044	1	166
437.214	1	168
437.385	1	158
437.556	1	174
437.726	1	174
437.897	1	173
438.067	1	170
438.238	1	181
438.408	1	181
438.579	1	161
438.749	1	166
438.920	1	160
439.090	1	165
439.261	1	158
439.431	1	151
439.602	1	167
439.772	1	169
439.943	1	158
440.113	1	159
440.284	1	155
440.455	1	164
440.625	1	160
440.796	1	161
440.966	1	145
441.137	1	149
441.307	1	161
441.478	1	159
441.648	1	159
441.819	1	157
441.989	1	153
442.160	1	147
442.330	1	138
442.501	1	154
442.671	1	144
442.842	1	133
443.012	1	152
443.183	1	150
443.353	1	137
443.524	1	149
443.694	1	156
443.865	1	144
444.035	1	154
444.206	1	150
444.376	1	147
444.547	1	163
444.717	1	139
444.888	1	159
445.058	1	148
445.229	1	155
445.399	1	149
445.570	1	142
445.740	1	144
445.911	1	141
446.081	1	146
446.252	1	167
446.422	1	138
446.593	1	143
446.763	1	144
446.934	1	133
447.104	1	163
447.275	1	151
447.445	1	146
447.616	1	162
447.786	1	148
447.957	1	152
448.127	1	136
448.298	1	153
448.468	1	138
448.639	1	140
448.809	1	143
448.979	1	142
449.150	1	151
449.320	1	143
449.491	1	147
449.661	1	139
449.832	1	141
450.002	1	148
450.173	1	141
450.343	1	155
450.514	1	132
450.684	1	121
450.855	1	138
451.025	1	136
451.196	1	130
451.366	1	145
451.537	1	140
451.707	1	121
451.878	1	133
452.048	1	149
452.218	1	133
452.389	1	132
452.559	1	122
452.730	1	136
452.900	1	139
453.071	1	114
453.241	1	129
453.412	1	137
453.582	1	127
453.753	1	129
453.923	1	129
454.093	1	138
454.264	1	147
454.434	1	137
454.605	1	125
454.775	1	138
454.946	1	124
455.116	1	128
455.287	1	117
455.457	1	114
455.628	1	120
455.798	1	121
455.968	1	126
456.139	1	127
456.309	1	120
456.480	1	123
456.650	1	120
456.821	1	108
456.991	1	120
457.161	1	129
457.332	1	128
457.502	1	111
457.673	1	131
457.843	1	124
458.014	1	120
458.184	1	132
458.355	1	123
458.525	1	125
458.695	1	106
458.866	1	116
459.036	1	129
459.207	1	128
459.377	1	104
459.548	1	125
459.718	1	116
459.888	1	109
460.059	1	127
460.229	1	109
460.400	1	129
460.570	1	111
460.740	1	123
460.911	1	118
461.081	1	114
461.252	1	120
461.422	1	111
461.593	1	131
461.763	1	112
461.933	1	120
462.104	1	113
462.274	1	117
462.445	1	124
462.615	1	109
462.785	1	111
462.956	1	124
463.126	1	119
463.297	1	110
463.467	1	103
463.638	1	107
463.808	1	98
463.978	1	97
464.149	1	104
464.319	1	107
464.490	1	123
464.660	1	114
464.830	1	120
465.001	1	118
465.171	1	99
465.342	1	114
465.512	1	104
465.682	1	107
465.853	1	100
466.023	1	107
466.194	1	99
466.364	1	113
466.534	1	103
466.705	1	108
466.875	1	100
467.045	1	107
467.216	1	106
467.386	1	97
467.557	1	97
467.727	1	94
467.897	1	89
468.068	1	99
468.238	1	90
468.409	1	98
468.579	1	99
468.749	1	98
468.920	1	91
469.090	1	94
469.260	1	91
469.431	1	89
469.601	1	101
469.772	1	92
469.942	1	85
470.112	1	95
470.283	1	98
470.453	1	88
470.623	1	81
470.794	1	82
470.964	1	103
471.135	1	97
471.305	1	83
471.475	1	93
471.646	1	86
471.816	1	89
471.986	1	80
472.157	1	110
472.327	1	85
472.497	1	94
472.668	1	87
472.838	1	105
473.009	1	86
473.179	1	79
473.349	1	82
473.520	1	95
473.690	1	81
473.860	1	79
474.031	1	84
474.201	1	90
474.371	1	96
474.542	1	98
474.712	1	86
474.882	1	107
475.053	1	101
475.223	1	82
475.394	1	92
475.564	1	88
475.734	1	83
475.905	1	98
476.075	1	98
476.245	1	100
476.416	1	89
476.586	1	106
476.756	1	86
476.927	1	98
477.097	1	93
477.267	1	81
477.438	1	100
477.608	1	87
477.778	1	87
477.949	1	88
478.119	1	86
478.289	1	86
478.460	1	91
478.630	1	95
478.800	1	86
478.971	1	90
479.141	1	65
479.311	1	72
479.482	1	91
479.652	1	90
479.822	1	80
479.993	1	85
480.163	1	89
480.333	1	87
480.504	1	100
480.674	1	86
480.844	1	78
481.015	1	86
481.185	1	85
481.355	1	85
481.525	1	80
481.696	1	86
481.866	1	81
482.036	1	76
482.207	1	88
482.377	1	81
482.547	1	88
482.718	1	77
482.888	1	74
483.058	1	77
483.229	1	77
483.399	1	69
483.569	1	80
483.740	1	82
483.910	1	74
484.080	1	69
484.250	1	88
484.421	1	84
484.591	1	71
484.761	1	80
484.932	1	82
485.102	1	91
485.272	1	75
485.443	1	81
485.613	1	77
485.783	1	65
485.953	1	76
486.124	1	84
486.294	1	75
486.464	1	71
486.635	1	77
486.805	1	81
486.975	1	66
487.146	1	73
487.316	1	71
487.486	1	76
487.656	1	75
487.827	1	66
487.997	1	64
488.167	1	77
488.338	1	71
488.508	1	63
488.678	1	77
488.848	1	79
489.019	1	65
489.189	1	66
489.359	1	69
489.529	1	70
489.700	1	66
489.870	1	89
490.040	1	55
490.211	1	54
490.381	1	71
490.551	1	65
490.721	1	77
490.892	1	59
491.062	1	68
491.232	1	68
491.402	1	59
491.573	1	53
491.743	1	66
491.913	1	67
492.084	1	66
492.254	1	66
492.424	1	50
492.594	1	64
492.765	1	66
492.935	1	72
493.105	1	77
493.275	1	63
493.446	1	68
493.616	1	80
493.786	1	61
493.956	1	75
494.127	1	62
494.297	1	65
494.467	1	62
494.637	1	62
494.808	1	61
494.978	1	54
495.148	1	64
495.318	1	63
495.489	1	65
495.659	1	57
495.829	1	58
495.999	1	48
496.170	1	65
496.340	1	60
496.510	1	59
496.680	1	56
496.851	1	60
497.021	1	59
497.191	1	60
497.361	1	60
497.532	1	58
497.702	1	58
497.872	1	53
498.042	1	66
498.213	1	58
498.383	1	51
498.553	1	57
498.723	1	55
498.894	1	61
499.064	1	55
499.234	1	57
499.404	1	61
499.574	1	66
499.745	1	66
499.915	1	63
500.085	1	62
500.255	1	53
500.426	1	56
500.596	1	56
500.766	1	58
500.936	1	49
501.106	1	53
501.277	1	57
501.447	1	55
501.617	1	50
501.787	1	54
501.958	1	41
502.128	1	55
502.298	1	57
502.468	1	50
502.638	1	54
502.809	1	50
502.979	1	49
503.149	1	48
503.319	1	46
503.489	1	54
503.660	1	56
503.830	1	56
504.000	1	63
504.170	1	48
504.340	1	51
504.511	1	49
504.681	1	51
504.851	1	53
505.021	1	45
505.192	1	38
505.362	1	62
505.532	1	49
505.702	1	54
505.872	1	52
506.043	1	52
506.213	1	44
506.383	1	55
506.553	1	52
506.723	1	50
506.893	1	59
507.064	1	60
507.234	1	40
507.404	1	40
507.574	1	52
507.744	1	51
507.915	1	48
508.085	1	59
508.255	1	51
508.425	1	49
508.595	1	60
508.766	1	58
508.936	1	35
509.106	1	48
509.276	1	55
509.446	1	47
509.616	1	48
509.787	1	57
509.957	1	56
510.127	1	52
510.297	1	45
510.467	1	45
510.638	1	47
510.808	1	23
510.978	1	41
511.148	1	46
511.318	1	57
511.488	1	31
511.659	1	49
511.829	1	35
511.999	1	51
512.169	1	45
512.339	1	53
512.509	1	42
512.680	1	43
512.850	1	47
513.020	1	46
513.190	1	51
513.360	1	44
513.530	1	43
513.700	1	64
513.871	1	42
514.041	1	45
514.211	1	45
514.381	1	49
514.551	1	55
514.721	1	37
514.892	1	41
515.062	1	43
515.232	1	43
515.402	1	38
515.572	1	40
515.742	1	38
515.912	1	48
516.083	1	42
516.253	1	48
516.423	1	49
516.593	1	33
516.763	1	49
516.933	1	35
517.104	1	42
517.274	1	35
517.444	1	45
517.614	1	31
517.784	1	35
517.954	1	30
518.124	1	48
518.294	1	38
518.465	1	28
518.635	1	37
518.805	1	32
518.975	1	37
519.145	1	34
519.315	1	38
519.485	1	32
519.656	1	46
519.826	1	39
519.996	1	36
520.166	1	46
520.336	1	50
520.506	1	42
520.676	1	29
520.846	1	39
521.017	1	34
521.187	1	40
521.357	1	50
521.527	1	30
521.697	1	32
521.867	1	33
522.037	1	48
522.207	1	40
522.377	1	40
522.548	1	30
522.718	1	42
522.888	1	41
523.058	1	39
523.228	1	41
523.398	1	37
523.568	1	37
523.738	1	35
523.909	1	45
524.079	1	35
524.249	1	42
524.419	1	34
524.589	1	33
524.759	1	27
524.929	1	34
525.099	1	38
525.269	1	33
525.439	1	34
525.610	1	48
525.780	1	27
525.950	1	38
526.120	1	29
526.290	1	22
526.460	1	38
526.630	1	30
526.800	1	26
526.970	1	38
527.140	1	22
527.311	1	23
527.481	1	33
527.651	1	35
527.821	1	22
527.991	1	51
528.161	1	42
528.331	1	24
528.501	1	33
528.671	1	24
528.841	1	25
529.011	1	32
529.181	1	28
529.352	1	27
529.522	1	25
529.692	1	19
529.862	1	34
530.032	1	40
530.202	1	24
530.372	1	32
530.542	1	31
530.712	1	29
530.882	1	31
531.052	1	48
531.222	1	29
531.392	1	26
531.563	1	30
531.733	1	21
531.903	1	27
532.073	1	31
532.243	1	28
532.413	1	33
532.583	1	28
532.753	1	42
532.923	1	31
533.093	1	32
533.263	1	28
533.433	1	32
533.603	1	30
533.773	1	32
533.943	1	26
534.113	1	30
534.284	1	28
534.454	1	31
534.624	1	39
534.794	1	22
534.964	1	22
535.134	1	23
535.304	1	23
535.474	1	40
535.644	1	23
535.814	1	20
535.984	1	27
536.154	1	18
536.324	1	19
536.494	1	35
536.664	1	36
536.834	1	30
537.004	1	25
537.174	1	42
537.344	1	36
537.514	1	17
537.685	1	29
537.855	1	33
538.025	1	26
538.195	1	39
538.365	1	31
538.535	1	15
538.705	1	25
538.875	1	28
539.045	1	38
539.215	1	32
539.385	1	30
539.555	1	29
539.725	1	22
539.895	1	21
540.065	1	32
540.235	1	22
540.405	1	24
540.575	1	26
540.745	1	35
540.915	1	35
541.085	1	32
541.255	1	24
541.425	1	34
541.595	1	25
541.765	1	30
541.935	1	29
542.105	1	18
542.275	1	26
542.445	1	17
542.615	1	21
542.785	1	26
542.955	1	19
543.125	1	19
543.295	1	25
543.465	1	24
543.635	1	21
543.805	1	41
543.975	1	14
544.145	1	29
544.315	1	39
544.485	1	31
544.655	1	25
544.825	1	12
544.995	1	21
545.165	1	20
545.335	1	25
545.505	1	22
545.675	1	35
545.845	1	23
546.015	1	23
546.185	1	35
546.355	1	27
546.525	1	21
546.695	1	11
546.865	1	14
547.035	1	21
547.205	1	11
547.375	1	32
547.545	1	34
547.715	1	16
547.885	1	22
548.055	1	23
548.225	1	32
548.395	1	8
548.565	1	20
548.735	1	27
548.905	1	13
549.075	1	25
549.245	1	13
549.415	1	14
549.585	1	23
549.755	1	26
549.925	1	21
550.095	1	16
550.265	1	16
550.435	1	16
550.605	1	19
550.775	1	20
550.945	1	27
551.115	1	20
551.285	1	23
551.455	1	2
551.625	1	28
551.795	1	17
551.965	1	16
552.135	1	8
552.305	1	13
552.475	1	9
552.645	1	18
552.815	1	16
552.985	1	19
553.155	1	23
553.325	1	25
553.495	1	22
553.665	1	18
553.835	1	13
554.004	1	16
554.174	1	15
554.344	1	25
554.514	1	13
554.684	1	21
554.854	1	26
555.024	1	9
555.194	1	8
555.364	1	21
555.534	1	18
555.704	1	22
555.874	1	24
556.044	1	21
556.214	1	11
556.384	1	16
556.554	1	23
556.724	1	15
556.894	1	13
557.064	1	35
557.234	1	16
557.404	1	20
557.573	1	32
557.743	1	8
557.913	1	22
558.083	1	18
558.253	1	17
558.423	1	16
558.593	1	25
558.763	1	12
558.933	1	26
559.103	1	17
559.273	1	17
559.443	1	22
559.613	1	12
559.783	1	12
559.953	1	10
560.122	1	24
560.292	1	7
560.462	1	10
560.632	1	20
560.802	1	15
560.972	1	21
561.142	1	20
561.312	1	11
561.482	1	28
561.652	1	24
561.822	1	10
561.992	1	13
562.162	1	16
562.331	1	21
562.501	1	3
562.671	1	19
562.841	1	18
563.011	1	15
563.181	1	15
563.351	1	8
563.521	1	22
563.691	1	13
563.861	1	14
564.031	1	17
564.201	1	34
564.370	1	9
564.540	1	17
564.710	1	13
564.880	1	24
565.050	1	19
565.220	1	15
565.390	1	21
565.560	1	18
565.730	1	13
565.900	1	9
566.069	1	26
566.239	1	8
566.409	1	13
566.579	1	21
566.749	1	15
566.919	1	18
567.089	1	25
567.259	1	18
567.429	1	11
567.599	1	16
567.768	1	16
567.938	1	14
568.108	1	16
568.278	1	7
568.448	1	-1
568.618	1	12
568.788	1	12
568.958	1	19
569.128	1	10
569.297	1	2
569.467	1	13
569.637	1	30
569.807	1	14
569.977	1	28
570.147	1	26
570.317	1	9
570.487	1	12
570.656	1	16
570.826	1	13
570.996	1	4
571.166	1	23
571.336	1	10
571.506	1	16
571.676	1	13
571.846	1	22
572.015	1	16
572.185	1	11
572.355	1	18
572.525	1	13
572.695	1	14
572.865	1	0
573.035	1	14
573.205	1	12
573.374	1	5
573.544	1	9
573.714	1	17
573.884	1	15
574.054	1	17
574.224	1	16
574.394	1	8
574.563	1	13
574.733	1	4
574.903	1	13
575.073	1	8
575.243	1	9
575.413	1	21
575.583	1	15
575.752	1	19
575.922	1	12
576.092	1	18
576.262	1	14
576.432	1	22
576.602	1	8
576.772	1	21
576.941	1	17
577.111	1	4
577.281	1	4
577.451	1	15
577.621	1	18
577.791	1	13
577.960	1	2
578.130	1	10
578.300	1	13
578.470	1	24
578.640	1	11
578.810	1	7
578.979	1	22
579.149	1	13
579.319	1	3
579.489	1	7
579.659	1	6
579.829	1	13
579.998	1	22
580.168	1	18
580.338	1	11
580.508	1	14
580.678	1	13
580.848	1	17
581.017	1	13
581.187	1	13
581.357	1	5
581.527	1	23
581.697	1	17
581.867	1	16
582.036	1	11
582.206	1	22
582.376	1	20
582.546	1	4
582.716	1	-1
582.885	1	3
583.055	1	8
583.225	1	-1
583.395	1	18
583.565	1	10
583.735	1	14
583.904	1	15
584.074	1	15
584.244	1	21
584.414	1	7
584.584	1	22
584.753	1	-1
584.923	1	21
585.093	1	20
585.263	1	7
585.433	1	20
585.602	1	2
585.772	1	12
585.942	1	10
586.112	1	9
586.282	1	9
586.451	1	2
586.621	1	10
586.791	1	10
586.961	1	17
587.131	1	21
587.300	1	0
587.470	1	22
587.640	1	18
587.810	1	6
587.980	1	10
588.149	1	14
588.319	1	10
588.489	1	8
588.659	1	17
588.829	1	17
588.998	1	16
589.168	1	14
589.338	1	13
589.508	1	15
589.677	1	14
589.847	1	-1
590.017	1	28
590.187	1	9
590.357	1	17
590.526	1	27
590.696	1	21
590.866	1	15
591.036	1	12
591.205	1	26
591.375	1	5
591.545	1	5
591.715	1	21
591.885	1	19
592.054	1	16
592.224	1	11
592.394	1	19
592.564	1	17
592.733	1	10
592.903	1	9
593.073	1	20
593.243	1	20
593.412	1	22
593.582	1	12
593.752	1	6
593.922	1	14
594.091	1	9
594.261	1	14
594.431	1	10
594.601	1	14
594.771	1	19
594.940	1	20
595.110	1	8
595.280	1	13
595.450	1	4
595.619	1	10
595.789	1	14
595.959	1	24
596.129	1	10
596.298	1	9
596.468	1	20
596.638	1	15
596.808	1	20
596.977	1	8
597.147	1	16
597.317	1	10
597.487	1	14
597.656	1	20
597.826	1	22
597.996	1	14
598.166	1	14
598.335	1	9
598.505	1	14
598.675	1	17
598.844	1	13
599.014	1	16
599.184	1	10
599.354	1	4
599.523	1	18
599.693	1	16
599.863	1	17
600.033	1	26
600.202	1	13
600.372	1	9
600.542	1	21
600.712	1	5
600.881	1	6
601.051	1	25
601.221	1	16
601.390	1	6
601.560	1	25
601.730	1	19
601.900	1	16
602.069	1	25
602.239	1	14
602.409	1	17
602.578	1	10
602.748	1	17
602.918	1	8
603.088	1	22
603.257	1	16
603.427	1	7
603.597	1	13
603.767	1	16
603.936	1	21
604.106	1	16
604.276	1	7
604.445	1	16
604.615	1	14
604.785	1	8
604.954	1	13
605.124	1	16
605.294	1	7
605.464	1	10
605.633	1	18
605.803	1	20
605.973	1	15
606.142	1	22
606.312	1	17
606.482	1	21
606.652	1	12
606.821	1	3
606.991	1	12
607.161	1	5
607.330	1	24
607.500	1	12
607.670	1	9
607.839	1	13
608.009	1	20
608.179	1	21
608.348	1	19
608.518	1	10
608.688	1	32
608.858	1	7
609.027	1	6
609.197	1	17
609.367	1	18
609.536	1	25
609.706	1	15
609.876	1	9
610.045	1	17
610.215	1	18
610.385	1	16
610.554	1	17
610.724	1	18
610.894	1	17
611.063	1	15
611.233	1	12
611.403	1	15
611.572	1	17
611.742	1	28
611.912	1	16
612.081	1	9
612.251	1	19
612.421	1	14
612.590	1	9
612.760	1	17
612.930	1	19
613.099	1	22
613.269	1	20
613.439	1	16
613.608	1	20
613.778	1	19
613.948	1	9
614.117	1	13
614.287	1	24
614.457	1	23
614.626	1	5
614.796	1	27
614.966	1	16
615.135	1	21
615.305	1	25
615.475	1	16
615.644	1	24
615.814	1	15
615.984	1	14
616.153	1	20
616.323	1	22
616.493	1	19
616.662	1	21
616.832	1	20
617.002	1	6
617.171	1	10
617.341	1	21
617.511	1	18
617.680	1	13
617.850	1	15
618.019	1	22
618.189	1	20
618.359	1	17
618.528	1	11
618.698	1	24
618.868	1	16
619.037	1	24
619.207	1	19
619.377	1	17
619.546	1	22
619.716	1	19
619.885	1	22
620.055	1	13
620.225	1	25
620.394	1	16
620.564	1	23
620.734	1	19
620.903	1	21
621.073	1	24
621.242	1	21
621.412	1	18
621.582	1	17
621.751	1	28
621.921	1	26
622.091	1	18
622.260	1	19
622.430	1	32
622.599	1	16
622.769	1	14
622.939	1	24
623.108	1	15
623.278	1	8
623.448	1	19
623.617	1	20
623.787	1	25
623.956	1	28
624.126	1	19
624.296	1	12
624.465	1	18
624.635	1	20
624.804	1	28
624.974	1	8
625.144	1	26
625.313	1	11
625.483	1	14
625.652	1	19
625.822	1	21
625.992	1	17
626.161	1	22
626.331	1	21
626.501	1	24
626.670	1	22
626.840	1	13
627.009	1	21
627.179	1	23
627.348	1	29
627.518	1	17
627.688	1	20
627.857	1	26
628.027	1	15
628.196	1	28
628.366	1	17
628.536	1	25
628.705	1	18
628.875	1	22
629.044	1	18
629.214	1	33
629.384	1	31
629.553	1	27
629.723	1	11
629.892	1	23
630.062	1	24
630.232	1	23
630.401	1	28
630.571	1	25
630.740	1	23
630.910	1	24
631.079	1	14
631.249	1	25
631.419	1	27
631.588	1	10
631.758	1	33
631.927	1	21
632.097	1	24
632.266	1	20
632.436	1	22
632.606	1	24
632.775	1	27
632.945	1	24
633.114	1	21
633.284	1	29
633.453	1	17
633.623	1	19
633.793	1	28
633.962	1	18
634.132	1	18
634.301	1	31
634.471	1	36
634.640	1	33
634.810	1	26
634.979	1	31
635.149	1	35
635.319	1	14
635.488	1	15
635.658	1	25
635.827	1	18
635.997	1	31
636.166	1	20
636.336	1	15
636.505	1	42
636.675	1	21
636.845	1	29
637.014	1	31
637.184	1	28
637.353	1	22
637.523	1	26
637.692	1	24
637.862	1	27
638.031	1	14
638.201	1	27
638.370	1	33
638.540	1	27
638.710	1	29
638.879	1	29
639.049	1	26
639.218	1	32
639.388	1	25
639.557	1	21
639.727	1	39
639.896	1	22
640.066	1	22
640.235	1	38
640.405	1	29
640.574	1	20
640.744	1	26
640.914	1	29
641.083	1	25
641.253	1	32
641.422	1	18
641.592	1	32
641.761	1	28
641.931	1	27
642.100	1	42
642.270	1	34
642.439	1	24
642.609	1	38
642.778	1	33
642.948	1	20
643.117	1	37
643.287	1	33
643.456	1	20
643.626	1	40
643.795	1	26
643.965	1	24
644.134	1	29
644.304	1	25
644.473	1	29
644.643	1	35
644.812	1	27
644.982	1	28
645.151	1	45
645.321	1	17
645.490	1	35
645.660	1	19
645.829	1	26
645.999	1	16
646.168	1	31
646.338	1	26
646.507	1	33
646.677	1	29
646.846	1	26
647.016	1	31
647.185	1	38
647.355	1	17
647.524	1	42
647.694	1	41
647.863	1	40
648.033	1	33
648.202	1	39
648.372	1	34
648.541	1	34
648.711	1	29
648.880	1	33
649.050	1	28
649.219	1	34
649.389	1	34
649.558	1	35
649.728	1	34
649.897	1	22
650.067	1	36
650.236	1	41
650.406	1	31
650.575	1	35
650.745	1	40
650.914	1	20
651.084	1	19
651.253	1	37
651.423	1	30
651.592	1	27
651.762	1	33
651.931	1	30
652.101	1	33
652.270	1	50
652.440	1	29
652.609	1	32
652.778	1	25
652.948	1	33
653.117	1	29
653.287	1	41
653.456	1	43
653.626	1	30
653.795	1	42
653.965	1	41
654.134	1	28
654.304	1	25
654.473	1	36
654.643	1	27
654.812	1	31
654.982	1	33
655.151	1	25
655.320	1	40
655.490	1	25
655.659	1	37
655.829	1	38
655.998	1	15
656.168	1	36
656.337	1	37
656.507	1	30
656.676	1	37
656.846	1	40
657.015	1	32
657.184	1	47
657.354	1	32
657.523	1	30
657.693	1	47
657.862	1	31
658.032	1	37
658.201	1	39
658.371	1	39
658.540	1	31
658.709	1	33
658.879	1	49
659.048	1	37
659.218	1	29
659.387	1	30
659.557	1	43
659.726	1	43
659.895	1	19
660.065	1	23
660.234	1	44
660.404	1	41
660.573	1	23
660.743	1	47
660.912	1	30
661.081	1	46
661.251	1	40
661.420	1	36
661.590	1	36
661.759	1	42
661.929	1	46
662.098	1	37
662.267	1	41
662.437	1	43
662.606	1	34
662.776	1	40
662.945	1	44
663.115	1	37
663.284	1	29
663.453	1	35
663.623	1	35
663.792	1	44
663.962	1	48
664.131	1	44
664.300	1	50
664.470	1	35
664.639	1	39
664.809	1	37
664.978	1	51
665.148	1	46
665.317	1	41
665.486	1	49
665.656	1	36
665.825	1	46
665.995	1	33
666.164	1	50
666.333	1	43
666.503	1	33
666.672	1	24
666.842	1	37
667.011	1	32
667.180	1	37
667.350	1	38
667.519	1	40
667.689	1	42
667.858	1	40
668.027	1	48
668.197	1	47
668.366	1	20
668.536	1	44
668.705	1	37
668.874	1	31
669.044	1	39
669.213	1	47
669.382	1	26
669.552	1	43
669.721	1	43
669.891	1	43
670.060	1	45
670.229	1	58
670.399	1	37
670.568	1	51
670.738	1	40
670.907	1	27
671.076	1	24
671.246	1	30
671.415	1	36
671.584	1	30
671.754	1	41
671.923	1	37
672.093	1	43
672.262	1	27
672.431	1	46
672.601	1	26
672.770	1	26
672.939	1	44
673.109	1	34
673.278	1	37
673.448	1	48
673.617	1	34
673.786	1	40
