325.333	1	7
325.504	1	7
325.675	1	6
325.846	1	10
326.017	1	7
326.188	1	5
326.359	1	3
326.531	1	-2
326.702	1	0
326.873	1	18
327.044	1	6
327.215	1	2
327.386	1	13
327.557	1	-6
327.728	1	2
327.899	1	5
328.070	1	21
328.241	1	19
328.412	1	-6
328.583	1	6
328.754	1	7
328.926	1	7
329.097	1	1
329.268	1	13
329.439	1	6
329.610	1	5
329.781	1	3
329.952	1	12
330.123	1	6
330.294	1	-2
330.465	1	10
330.636	1	7
330.807	1	6
330.978	1	14
331.149	1	7
331.320	1	12
331.492	1	12
331.663	1	2
331.834	1	16
332.005	1	11
332.176	1	21
332.347	1	14
332.518	1	-5
332.689	1	16
332.860	1	2
333.031	1	16
333.202	1	4
333.373	1	9
333.544	1	13
333.715	1	11
333.886	1	2
334.057	1	15
334.228	1	-7
334.399	1	4
334.570	1	7
334.741	1	7
334.912	1	14
335.084	1	31
335.255	1	9
335.426	1	14
335.597	1	13
335.768	1	2
335.939	1	10
336.110	1	11
336.281	1	12
336.452	1	3
336.623	1	9
336.794	1	14
336.965	1	3
337.136	1	8
337.307	1	6
337.478	1	5
337.649	1	12
337.820	1	7
337.991	1	16
338.162	1	12
338.333	1	6
338.504	1	14
338.675	1	5
338.846	1	21
339.017	1	11
339.188	1	8
339.359	1	2
339.530	1	6
339.701	1	13
339.872	1	15
340.043	1	3
340.214	1	11
340.385	1	20
340.556	1	3
340.727	1	13
340.898	1	22
341.069	1	21
341.240	1	6
341.411	1	8
341.582	1	11
341.753	1	4
341.924	1	7
342.095	1	12
342.266	1	15
342.437	1	20
342.608	1	8
342.779	1	12
342.950	1	17
343.121	1	11
343.292	1	9
343.463	1	9
343.634	1	14
343.805	1	25
343.976	1	15
344.147	1	18
344.318	1	7
344.489	1	12
344.660	1	25
344.831	1	11
345.002	1	6
345.173	1	21
345.344	1	13
345.515	1	25
345.686	1	17
345.857	1	23
346.028	1	7
346.199	1	6
346.370	1	17
346.541	1	14
346.712	1	6
346.883	1	19
347.054	1	16
347.225	1	12
347.396	1	32
347.567	1	21
347.738	1	5
347.909	1	25
348.080	1	12
348.251	1	21
348.422	1	26
348.593	1	26
348.764	1	17
348.935	1	18
349.106	1	4
349.277	1	21
349.448	1	23
349.619	1	20
349.790	1	17
349.961	1	16
350.132	1	16
350.303	1	19
350.474	1	21
350.645	1	24
350.816	1	15
350.987	1	23
351.157	1	17
351.328	1	22
351.499	1	25
351.670	1	18
351.841	1	22
352.012	1	30
352.183	1	21
352.354	1	27
352.525	1	31
352.696	1	26
352.867	1	25
353.038	1	20
353.209	1	28
353.380	1	21
353.551	1	17
353.722	1	19
353.893	1	20
354.064	1	35
354.235	1	22
354.406	1	19
354.576	1	13
354.747	1	21
354.918	1	24
355.089	1	29
355.260	1	25
355.431	1	27
355.602	1	12
355.773	1	18
355.944	1	29
356.115	1	35
356.286	1	25
356.457	1	21
356.628	1	26
356.799	1	26
356.970	1	40
357.141	1	16
357.311	1	21
357.482	1	28
357.653	1	21
357.824	1	33
357.995	1	21
358.166	1	12
358.337	1	17
358.508	1	29
358.679	1	20
358.850	1	33
359.021	1	18
359.192	1	27
359.363	1	32
359.533	1	20
359.704	1	28
359.875	1	28
360.046	1	16
360.217	1	9
360.388	1	22
360.559	1	21
360.730	1	23
360.901	1	17
361.072	1	31
361.243	1	28
361.414	1	23
361.584	1	17
361.755	1	34
361.926	1	23
362.097	1	26
362.268	1	25
362.439	1	18
362.610	1	24
362.781	1	15
362.952	1	16
363.123	1	23
363.293	1	22
363.464	1	25
363.635	1	24
363.806	1	18
363.977	1	21
364.148	1	21
364.319	1	14
364.490	1	19
364.661	1	34
364.832	1	29
365.002	1	27
365.173	1	23
365.344	1	23
365.515	1	29
365.686	1	16
365.857	1	34
366.028	1	33
366.199	1	19
366.370	1	33
366.540	1	21
366.711	1	11
366.882	1	25
367.053	1	16
367.224	1	33
367.395	1	44
367.566	1	23
367.737	1	33
367.908	1	39
368.078	1	16
368.249	1	29
368.420	1	16
368.591	1	30
368.762	1	33
368.933	1	27
369.104	1	29
369.274	1	26
369.445	1	21
369.616	1	32
369.787	1	30
369.958	1	34
370.129	1	30
370.300	1	32
370.471	1	16
370.641	1	25
370.812	1	35
370.983	1	23
371.154	1	19
371.325	1	36
371.496	1	35
371.667	1	25
371.837	1	29
372.008	1	34
372.179	1	23
372.350	1	44
372.521	1	32
372.692	1	27
372.863	1	47
373.033	1	22
373.204	1	24
373.375	1	35
373.546	1	37
373.717	1	29
373.888	1	45
374.059	1	40
374.229	1	25
374.400	1	35
374.571	1	36
374.742	1	35
374.913	1	49
375.084	1	27
375.254	1	26
375.425	1	34
375.596	1	34
375.767	1	18
375.938	1	45
376.109	1	34
376.279	1	22
376.450	1	45
376.621	1	31
376.792	1	18
376.963	1	31
377.134	1	33
377.304	1	32
377.475	1	37
377.646	1	29
377.817	1	29
377.988	1	33
378.159	1	43
378.329	1	50
378.500	1	28
378.671	1	26
378.842	1	30
379.013	1	31
379.184	1	26
379.354	1	45
379.525	1	35
379.696	1	42
379.867	1	35
380.038	1	36
380.209	1	37
380.379	1	30
380.550	1	26
380.721	1	49
380.892	1	41
381.063	1	34
381.233	1	43
381.404	1	31
381.575	1	48
381.746	1	37
381.917	1	32
382.087	1	37
382.258	1	34
382.429	1	30
382.600	1	53
382.771	1	27
382.941	1	29
383.112	1	31
383.283	1	32
383.454	1	45
383.625	1	43
383.795	1	27
383.966	1	36
384.137	1	43
384.308	1	33
384.479	1	40
384.649	1	46
384.820	1	43
384.991	1	27
385.162	1	39
385.333	1	28
385.503	1	35
385.674	1	32
385.845	1	48
386.016	1	40
386.187	1	38
386.357	1	44
386.528	1	44
386.699	1	44
386.870	1	46
387.041	1	47
387.211	1	45
387.382	1	52
387.553	1	54
387.724	1	38
387.894	1	40
388.065	1	41
388.236	1	36
388.407	1	43
388.578	1	27
388.748	1	39
388.919	1	45
389.090	1	50
389.261	1	44
389.431	1	46
389.602	1	35
389.773	1	43
389.944	1	38
390.114	1	43
390.285	1	44
390.456	1	42
390.627	1	36
390.798	1	38
390.968	1	43
391.139	1	58
391.310	1	30
391.481	1	43
391.651	1	41
391.822	1	37
391.993	1	43
392.164	1	37
392.334	1	40
392.505	1	30
392.676	1	46
392.847	1	57
393.017	1	43
393.188	1	39
393.359	1	36
393.530	1	42
393.700	1	40
393.871	1	41
394.042	1	32
394.213	1	41
394.383	1	40
394.554	1	48
394.725	1	41
394.896	1	37
395.066	1	47
395.237	1	41
395.408	1	38
395.579	1	38
395.749	1	39
395.920	1	38
396.091	1	50
396.262	1	49
396.432	1	32
396.603	1	51
396.774	1	54
396.945	1	52
397.115	1	46
397.286	1	31
397.457	1	48
397.627	1	56
397.798	1	49
397.969	1	42
398.140	1	36
398.310	1	50
398.481	1	51
398.652	1	42
398.823	1	47
398.993	1	39
399.164	1	32
399.335	1	54
399.505	1	54
399.676	1	49
399.847	1	48
400.018	1	44
400.188	1	40
400.359	1	43
400.530	1	42
400.700	1	42
400.871	1	42
401.042	1	40
401.213	1	50
401.383	1	46
401.554	1	50
401.725	1	51
401.895	1	41
402.066	1	49
402.237	1	50
402.408	1	53
402.578	1	43
402.749	1	58
402.920	1	44
403.090	1	43
403.261	1	45
403.432	1	49
403.603	1	64
403.773	1	55
403.944	1	46
404.115	1	44
404.285	1	49
404.456	1	41
404.627	1	35
404.797	1	35
404.968	1	42
405.139	1	48
405.310	1	60
405.480	1	59
405.651	1	41
405.822	1	45
405.992	1	36
406.163	1	50
406.334	1	37
406.504	1	42
406.675	1	55
406.846	1	54
407.016	1	41
407.187	1	55
407.358	1	27
407.528	1	43
407.699	1	39
407.870	1	35
408.041	1	52
408.211	1	48
408.382	1	43
408.553	1	38
408.723	1	43
408.894	1	45
409.065	1	53
409.235	1	49
409.406	1	50
409.577	1	50
409.747	1	54
409.918	1	45
410.089	1	49
410.259	1	48
410.430	1	44
410.601	1	50
410.771	1	46
410.942	1	50
411.113	1	46
411.283	1	45
411.454	1	42
411.625	1	54
411.795	1	48
411.966	1	46
412.137	1	52
412.307	1	38
412.478	1	39
412.649	1	44
412.819	1	44
412.990	1	46
413.161	1	55
413.331	1	44
413.502	1	48
413.672	1	46
413.843	1	48
414.014	1	45
414.184	1	54
414.355	1	46
414.526	1	50
414.696	1	50
414.867	1	44
415.038	1	41
415.208	1	42
415.379	1	50
415.550	1	38
415.720	1	35
415.891	1	40
416.062	1	49
416.232	1	53
416.403	1	46
416.573	1	52
416.744	1	39
416.915	1	56
417.085	1	53
417.256	1	38
417.427	1	43
417.597	1	51
417.768	1	40
417.939	1	39
418.109	1	45
418.280	1	50
418.450	1	48
418.621	1	33
418.792	1	48
418.962	1	53
419.133	1	48
419.304	1	43
419.474	1	34
419.645	1	45
419.815	1	38
419.986	1	43
420.157	1	42
420.327	1	50
420.498	1	58
420.669	1	45
420.839	1	52
421.010	1	50
421.180	1	53
421.351	1	45
421.522	1	44
421.692	1	43
421.863	1	46
422.033	1	53
422.204	1	48
422.375	1	49
422.545	1	49
422.716	1	44
422.886	1	42
423.057	1	54
423.228	1	52
423.398	1	39
423.569	1	48
423.740	1	28
423.910	1	33
424.081	1	45
424.251	1	42
424.422	1	53
424.593	1	41
424.763	1	42
424.934	1	47
425.104	1	52
425.275	1	43
425.445	1	48
425.616	1	40
425.787	1	40
425.957	1	45
426.128	1	53
426.298	1	45
426.469	1	38
426.640	1	46
426.810	1	49
426.981	1	41
427.151	1	40
427.322	1	55
427.493	1	45
427.663	1	42
427.834	1	47
428.004	1	42
428.175	1	50
428.345	1	42
428.516	1	40
428.687	1	41
428.857	1	22
429.028	1	41
429.198	1	45
429.369	1	43
429.540	1	44
429.710	1	38
429.881	1	47
430.051	1	39
430.222	1	42
430.392	1	42
430.563	1	56
430.734	1	49
430.904	1	53
431.075	1	52
431.245	1	21
431.416	1	46
431.586	1	45
431.757	1	32
431.927	1	36
432.098	1	49
432.269	1	39
432.439	1	49
432.610	1	42
432.780	1	48
432.951	1	36
433.121	1	38
433.292	1	43
433.462	1	49
433.633	1	46
433.804	1	53
433.974	1	39
434.145	1	50
434.315	1	34
434.486	1	43
434.656	1	46
434.827	1	39
434.997	1	39
435.168	1	47
435.339	1	41
435.509	1	42
435.680	1	40
435.850	1	32
436.021	1	40
436.191	1	47
436.362	1	47
436.532	1	40
436.703	1	31
436.873	1	33
437.044	1	33
437.214	1	49
437.385	1	44
437.556	1	32
437.726	1	50
437.897	1	47
438.067	1	42
438.238	1	52
438.408	1	48
438.579	1	33
438.749	1	39
438.920	1	37
439.090	1	44
439.261	1	39
439.431	1	37
439.602	1	40
439.772	1	31
439.943	1	42
440.113	1	38
440.284	1	44
440.455	1	31
440.625	1	40
440.796	1	39
440.966	1	27
441.137	1	31
441.307	1	31
441.478	1	47
441.648	1	41
441.819	1	34
441.989	1	39
442.160	1	44
442.330	1	45
442.501	1	43
442.671	1	35
442.842	1	20
443.012	1	28
443.183	1	42
443.353	1	32
443.524	1	36
443.694	1	36
443.865	1	42
444.035	1	39
444.206	1	32
444.376	1	17
444.547	1	51
444.717	1	36
444.888	1	33
445.058	1	45
445.229	1	33
445.399	1	26
445.570	1	33
445.740	1	35
445.911	1	25
446.081	1	29
446.252	1	41
446.422	1	29
446.593	1	39
446.763	1	37
446.934	1	37
447.104	1	38
447.275	1	44
447.445	1	33
447.616	1	36
447.786	1	33
447.957	1	31
448.127	1	37
448.298	1	37
448.468	1	30
448.639	1	38
448.809	1	31
448.979	1	38
449.150	1	38
449.320	1	35
449.491	1	37
449.661	1	39
449.832	1	37
450.002	1	36
450.173	1	30
450.343	1	42
450.514	1	36
450.684	1	24
450.855	1	32
451.025	1	39
451.196	1	24
451.366	1	34
451.537	1	24
451.707	1	14
451.878	1	36
452.048	1	27
452.218	1	40
452.389	1	37
452.559	1	27
452.730	1	40
452.900	1	37
453.071	1	15
453.241	1	33
453.412	1	28
453.582	1	22
453.753	1	35
453.923	1	37
454.093	1	28
454.264	1	43
454.434	1	32
454.605	1	27
454.775	1	37
454.946	1	38
455.116	1	17
455.287	1	29
455.457	1	27
455.628	1	19
455.798	1	37
455.968	1	40
456.139	1	18
456.309	1	32
456.480	1	29
456.650	1	23
456.821	1	21
456.991	1	36
457.161	1	26
457.332	1	24
457.502	1	20
457.673	1	36
457.843	1	23
458.014	1	31
458.184	1	37
458.355	1	28
458.525	1	34
458.695	1	41
458.866	1	31
459.036	1	40
459.207	1	30
459.377	1	34
459.548	1	39
459.718	1	30
459.888	1	40
460.059	1	29
460.229	1	36
460.400	1	36
460.570	1	21
460.740	1	28
460.911	1	36
461.081	1	28
461.252	1	19
461.422	1	30
461.593	1	24
461.763	1	32
461.933	1	39
462.104	1	20
462.274	1	28
462.445	1	34
462.615	1	28
462.785	1	21
462.956	1	43
463.126	1	31
463.297	1	25
463.467	1	44
463.638	1	21
463.808	1	12
463.978	1	24
464.149	1	20
464.319	1	21
464.490	1	33
464.660	1	19
464.830	1	20
465.001	1	27
465.171	1	24
465.342	1	26
465.512	1	19
465.682	1	14
465.853	1	24
466.023	1	28
466.194	1	31
466.364	1	27
466.534	1	24
466.705	1	29
466.875	1	18
467.045	1	22
467.216	1	36
467.386	1	25
467.557	1	15
467.727	1	16
467.897	1	20
468.068	1	19
468.238	1	20
468.409	1	15
468.579	1	23
468.749	1	16
468.920	1	19
469.090	1	21
469.260	1	15
469.431	1	28
469.601	1	19
469.772	1	22
469.942	1	22
470.112	1	22
470.283	1	25
470.453	1	16
470.623	1	19
470.794	1	23
470.964	1	29
471.135	1	26
471.305	1	6
471.475	1	23
471.646	1	11
471.816	1	27
471.986	1	19
472.157	1	25
472.327	1	8
472.497	1	22
472.668	1	16
472.838	1	27
473.009	1	27
473.179	1	16
473.349	1	7
473.520	1	24
473.690	1	23
473.860	1	27
474.031	1	22
474.201	1	11
474.371	1	30
474.542	1	29
474.712	1	26
474.882	1	19
475.053	1	33
475.223	1	19
475.394	1	16
475.564	1	10
475.734	1	22
475.905	1	33
476.075	1	24
476.245	1	26
476.416	1	38
476.586	1	22
476.756	1	22
476.927	1	31
477.097	1	13
477.267	1	12
477.438	1	22
477.608	1	18
477.778	1	26
477.949	1	20
478.119	1	25
478.289	1	17
478.460	1	28
478.630	1	21
478.800	1	11
478.971	1	20
479.141	1	17
479.311	1	4
479.482	1	22
479.652	1	17
479.822	1	10
479.993	1	21
480.163	1	20
480.333	1	20
480.504	1	29
480.674	1	18
480.844	1	13
481.015	1	18
481.185	1	24
481.355	1	28
481.525	1	23
481.696	1	24
481.866	1	19
482.036	1	19
482.207	1	19
482.377	1	27
482.547	1	23
482.718	1	14
482.888	1	22
483.058	1	15
483.229	1	10
483.399	1	17
483.569	1	13
483.740	1	24
483.910	1	19
484.080	1	13
484.250	1	12
484.421	1	13
484.591	1	26
484.761	1	13
484.932	1	12
485.102	1	22
485.272	1	14
485.443	1	30
485.613	1	24
485.783	1	13
485.953	1	21
486.124	1	22
486.294	1	22
486.464	1	12
486.635	1	18
486.805	1	22
486.975	1	25
487.146	1	19
487.316	1	21
487.486	1	20
487.656	1	12
487.827	1	14
487.997	1	12
488.167	1	15
488.338	1	22
488.508	1	10
488.678	1	3
488.848	1	26
489.019	1	11
489.189	1	17
489.359	1	9
489.529	1	16
489.700	1	11
489.870	1	23
490.040	1	13
490.211	1	15
490.381	1	15
490.551	1	15
490.721	1	12
490.892	1	6
491.062	1	16
491.232	1	14
491.402	1	4
491.573	1	7
491.743	1	16
491.913	1	16
492.084	1	26
492.254	1	11
492.424	1	18
492.594	1	8
492.765	1	1
492.935	1	16
493.105	1	21
493.275	1	19
493.446	1	18
493.616	1	21
493.786	1	13
493.956	1	14
494.127	1	5
494.297	1	7
494.467	1	9
494.637	1	10
494.808	1	5
494.978	1	8
495.148	1	11
495.318	1	15
495.489	1	26
495.659	1	12
495.829	1	13
495.999	1	16
496.170	1	14
496.340	1	17
496.510	1	14
496.680	1	9
496.851	1	12
497.021	1	5
497.191	1	11
497.361	1	11
497.532	1	6
497.702	1	11
497.872	1	11
498.042	1	15
498.213	1	7
498.383	1	14
498.553	1	14
498.723	1	4
498.894	1	13
499.064	1	14
499.234	1	20
499.404	1	17
499.574	1	28
499.745	1	19
499.915	1	7
500.085	1	18
500.255	1	27
500.426	1	19
500.596	1	21
500.766	1	8
500.936	1	12
501.106	1	13
501.277	1	19
501.447	1	7
501.617	1	8
501.787	1	11
501.958	1	13
502.128	1	6
502.298	1	12
502.468	1	6
502.638	1	16
502.809	1	15
502.979	1	7
503.149	1	0
503.319	1	4
503.489	1	6
503.660	1	13
503.830	1	13
504.000	1	20
504.170	1	8
504.340	1	-1
504.511	1	21
504.681	1	10
504.851	1	13
505.021	1	11
505.192	1	2
505.362	1	20
505.532	1	9
505.702	1	11
505.872	1	4
506.043	1	11
506.213	1	6
506.383	1	13
506.553	1	17
506.723	1	17
506.893	1	10
507.064	1	15
507.234	1	4
507.404	1	-2
507.574	1	8
507.744	1	4
507.915	1	12
508.085	1	15
508.255	1	10
508.425	1	0
508.595	1	20
508.766	1	11
508.936	1	7
509.106	1	18
509.276	1	23
509.446	1	3
509.616	1	3
509.787	1	11
509.957	1	9
510.127	1	16
510.297	1	2
510.467	1	-1
510.638	1	17
510.808	1	0
510.978	1	-2
511.148	1	12
511.318	1	13
511.488	1	-7
511.659	1	6
511.829	1	-5
511.999	1	10
512.169	1	5
512.339	1	15
512.509	1	9
512.680	1	14
512.850	1	7
513.020	1	7
513.190	1	14
513.360	1	4
513.530	1	13
513.700	1	16
513.871	1	6
514.041	1	5
514.211	1	21
514.381	1	14
514.551	1	5
514.721	1	8
514.892	1	14
515.062	1	8
515.232	1	4
515.402	1	6
515.572	1	11
515.742	1	11
515.912	1	8
516.083	1	7
516.253	1	10
516.423	1	3
516.593	1	10
516.763	1	18
516.933	1	-2
517.104	1	10
517.274	1	15
517.444	1	6
517.614	1	-2
517.784	1	2
517.954	1	13
518.124	1	4
518.294	1	8
518.465	1	8
518.635	1	5
518.805	1	-4
518.975	1	5
519.145	1	6
519.315	1	13
519.485	1	2
519.656	1	20
519.826	1	8
519.996	1	0
520.166	1	8
520.336	1	5
520.506	1	7
520.676	1	7
520.846	1	13
521.017	1	3
521.187	1	-1
521.357	1	12
521.527	1	3
521.697	1	6
521.867	1	-2
522.037	1	13
522.207	1	15
522.377	1	12
522.548	1	11
522.718	1	4
522.888	1	17
523.058	1	6
523.228	1	8
523.398	1	21
523.568	1	13
523.738	1	1
523.909	1	6
524.079	1	0
524.249	1	6
524.419	1	3
524.589	1	12
524.759	1	-6
524.929	1	-3
525.099	1	7
525.269	1	16
525.439	1	0
525.610	1	22
525.780	1	8
525.950	1	8
526.120	1	4
526.290	1	9
526.460	1	-3
526.630	1	2
526.800	1	4
526.970	1	0
527.140	1	17
527.311	1	-6
527.481	1	1
527.651	1	-1
527.821	1	-3
527.991	1	21
528.161	1	12
528.331	1	-1
528.501	1	5
528.671	1	5
528.841	1	12
529.011	1	3
529.181	1	9
529.352	1	4
529.522	1	3
529.692	1	10
529.862	1	4
530.032	1	12
530.202	1	2
530.372	1	14
530.542	1	9
530.712	1	7
530.882	1	2
531.052	1	15
531.222	1	-1
531.392	1	2
531.563	1	1
531.733	1	13
531.903	1	-2
532.073	1	7
532.243	1	0
532.413	1	11
532.583	1	9
532.753	1	16
532.923	1	2
533.093	1	6
533.263	1	4
533.433	1	-2
533.603	1	11
533.773	1	5
533.943	1	5
534.113	1	-3
534.284	1	7
534.454	1	9
534.624	1	14
534.794	1	-5
534.964	1	7
535.134	1	7
535.304	1	5
535.474	1	11
535.644	1	1
535.814	1	3
535.984	1	-5
536.154	1	2
536.324	1	5
536.494	1	9
536.664	1	5
536.834	1	4
537.004	1	3
537.174	1	19
537.344	1	11
537.514	1	-1
537.685	1	1
537.855	1	8
538.025	1	8
538.195	1	4
538.365	1	13
538.535	1	6
538.705	1	4
538.875	1	0
539.045	1	6
539.215	1	5
539.385	1	7
539.555	1	6
539.725	1	7
539.895	1	0
540.065	1	15
540.235	1	9
540.405	1	8
540.575	1	0
540.745	1	6
540.915	1	8
541.085	1	6
541.255	1	0
541.425	1	16
541.595	1	1
541.765	1	13
541.935	1	-2
542.105	1	1
542.275	1	6
542.445	1	-9
542.615	1	-1
542.785	1	15
542.955	1	7
543.125	1	7
543.295	1	4
543.465	1	8
543.635	1	2
543.805	1	15
543.975	1	1
544.145	1	8
544.315	1	11
544.485	1	8
544.655	1	5
544.825	1	-12
544.995	1	0
545.165	1	2
545.335	1	9
545.505	1	1
545.675	1	14
545.845	1	10
546.015	1	11
546.185	1	6
546.355	1	7
546.525	1	8
546.695	1	3
546.865	1	-1
547.035	1	12
547.205	1	-4
547.375	1	14
547.545	1	10
547.715	1	-7
547.885	1	4
548.055	1	-1
548.225	1	3
548.395	1	2
548.565	1	5
548.735	1	4
548.905	1	6
549.075	1	11
549.245	1	7
549.415	1	-7
549.585	1	3
549.755	1	6
549.925	1	3
550.095	1	7
550.265	1	11
550.435	1	6
550.605	1	2
550.775	1	14
550.945	1	1
551.115	1	3
551.285	1	4
551.455	1	4
551.625	1	6
551.795	1	2
551.965	1	0
552.135	1	2
552.305	1	6
552.475	1	-7
552.645	1	3
552.815	1	-1
552.985	1	16
553.155	1	7
553.325	1	7
553.495	1	-4
553.665	1	5
553.835	1	-3
554.004	1	6
554.174	1	7
554.344	1	0
554.514	1	-1
554.684	1	6
554.854	1	2
555.024	1	-3
555.194	1	-2
555.364	1	12
555.534	1	5
555.704	1	-3
555.874	1	12
556.044	1	13
556.214	1	-2
556.384	1	-3
556.554	1	11
556.724	1	8
556.894	1	3
557.064	1	2
557.234	1	-3
557.404	1	19
557.573	1	10
557.743	1	3
557.913	1	-4
558.083	1	5
558.253	1	4
558.423	1	3
558.593	1	2
558.763	1	6
558.933	1	6
559.103	1	9
559.273	1	3
559.443	1	7
559.613	1	2
559.783	1	3
559.953	1	8
560.122	1	10
560.292	1	7
560.462	1	3
560.632	1	5
560.802	1	6
560.972	1	-1
561.142	1	15
561.312	1	-3
561.482	1	6
561.652	1	8
561.822	1	-1
561.992	1	0
562.162	1	5
562.331	1	0
562.501	1	5
562.671	1	11
562.841	1	2
563.011	1	7
563.181	1	-1
563.351	1	-6
563.521	1	8
563.691	1	6
563.861	1	2
564.031	1	4
564.201	1	16
564.370	1	-5
564.540	1	6
564.710	1	4
564.880	1	9
565.050	1	7
565.220	1	-9
565.390	1	11
565.560	1	17
565.730	1	-5
565.900	1	4
566.069	1	4
566.239	1	4
566.409	1	-2
566.579	1	5
566.749	1	9
566.919	1	16
567.089	1	9
567.259	1	10
567.429	1	1
567.599	1	5
567.768	1	12
567.938	1	4
568.108	1	0
568.278	1	6
568.448	1	-2
568.618	1	3
568.788	1	9
568.958	1	-4
569.128	1	14
569.297	1	5
569.467	1	-1
569.637	1	6
569.807	1	8
569.977	1	7
570.147	1	13
570.317	1	0
570.487	1	10
570.656	1	12
570.826	1	-8
570.996	1	-8
571.166	1	16
571.336	1	-1
571.506	1	4
571.676	1	2
571.846	1	-2
572.015	1	10
572.185	1	-1
572.355	1	6
572.525	1	3
572.695	1	4
572.865	1	-11
573.035	1	6
573.205	1	10
573.374	1	-6
573.544	1	8
573.714	1	16
573.884	1	12
574.054	1	2
574.224	1	-6
574.394	1	4
574.563	1	4
574.733	1	-5
574.903	1	-5
575.073	1	-3
575.243	1	-2
575.413	1	6
575.583	1	-2
575.752	1	14
575.922	1	5
576.092	1	1
576.262	1	2
576.432	1	5
576.602	1	1
576.772	1	15
576.941	1	9
577.111	1	1
577.281	1	-14
577.451	1	0
577.621	1	5
577.791	1	0
577.960	1	-1
578.130	1	5
578.300	1	10
578.470	1	19
578.640	1	2
578.810	1	3
578.979	1	8
579.149	1	6
579.319	1	-3
579.489	1	3
579.659	1	-5
579.829	1	4
579.998	1	8
580.168	1	6
580.338	1	12
580.508	1	-1
580.678	1	-3
580.848	1	-7
581.017	1	3
581.187	1	-1
581.357	1	-1
581.527	1	3
581.697	1	13
581.867	1	1
582.036	1	6
582.206	1	3
582.376	1	7
582.546	1	-8
582.716	1	2
582.885	1	1
583.055	1	4
583.225	1	2
583.395	1	11
583.565	1	0
583.735	1	12
583.904	1	4
584.074	1	5
584.244	1	4
584.414	1	2
584.584	1	9
584.753	1	-2
584.923	1	0
585.093	1	1
585.263	1	-2
585.433	1	-1
585.602	1	-6
585.772	1	1
585.942	1	-6
586.112	1	8
586.282	1	-2
586.451	1	4
586.621	1	-2
586.791	1	-4
586.961	1	-2
587.131	1	7
587.300	1	-1
587.470	1	7
587.640	1	6
587.810	1	7
587.980	1	2
588.149	1	-2
588.319	1	-8
588.489	1	1
588.659	1	-1
588.829	1	3
588.998	1	12
589.168	1	5
589.338	1	3
589.508	1	15
589.677	1	-2
589.847	1	-6
590.017	1	10
590.187	1	-6
590.357	1	13
590.526	1	14
590.696	1	7
590.866	1	5
591.036	1	-3
591.205	1	15
591.375	1	-2
591.545	1	1
591.715	1	14
591.885	1	3
592.054	1	3
592.224	1	-3
592.394	1	-3
592.564	1	0
592.733	1	1
592.903	1	9
593.073	1	-4
593.243	1	7
593.412	1	5
593.582	1	0
593.752	1	7
593.922	1	10
594.091	1	4
594.261	1	-9
594.431	1	13
594.601	1	9
594.771	1	3
594.940	1	1
595.110	1	-5
595.280	1	0
595.450	1	5
595.619	1	3
595.789	1	-3
595.959	1	4
596.129	1	-3
596.298	1	9
596.468	1	18
596.638	1	10
596.808	1	2
596.977	1	2
597.147	1	9
597.317	1	-2
597.487	1	0
597.656	1	2
597.826	1	-3
597.996	1	3
598.166	1	3
598.335	1	-7
598.505	1	1
598.675	1	0
598.844	1	4
599.014	1	7
599.184	1	6
599.354	1	-11
599.523	1	8
599.693	1	0
599.863	1	13
600.033	1	-2
600.202	1	2
600.372	1	5
600.542	1	5
600.712	1	1
600.881	1	-1
601.051	1	19
601.221	1	1
601.390	1	-3
601.560	1	3
601.730	1	6
601.900	1	9
602.069	1	7
602.239	1	-4
602.409	1	-2
602.578	1	-1
602.748	1	6
602.918	1	3
603.088	1	12
603.257	1	3
603.427	1	2
603.597	1	4
603.767	1	-1
603.936	1	8
604.106	1	7
604.276	1	5
604.445	1	9
604.615	1	-2
604.785	1	4
604.954	1	6
605.124	1	11
605.294	1	3
605.464	1	0
605.633	1	2
605.803	1	2
605.973	1	-2
606.142	1	8
606.312	1	13
606.482	1	0
606.652	1	6
606.821	1	5
606.991	1	5
607.161	1	2
607.330	1	0
607.500	1	9
607.670	1	1
607.839	1	7
608.009	1	18
608.179	1	8
608.348	1	-2
608.518	1	-3
608.688	1	14
608.858	1	-2
609.027	1	-3
609.197	1	12
609.367	1	9
609.536	1	3
609.706	1	9
609.876	1	6
610.045	1	6
610.215	1	2
610.385	1	5
610.554	1	-2
610.724	1	13
610.894	1	8
611.063	1	-2
611.233	1	-1
611.403	1	2
611.572	1	-1
611.742	1	15
611.912	1	6
612.081	1	-2
612.251	1	6
612.421	1	5
612.590	1	1
612.760	1	2
612.930	1	7
613.099	1	4
613.269	1	15
613.439	1	8
613.608	1	4
613.778	1	4
613.948	1	4
614.117	1	-3
614.287	1	15
614.457	1	6
614.626	1	0
614.796	1	1
614.966	1	2
615.135	1	3
615.305	1	7
615.475	1	8
615.644	1	2
615.814	1	5
615.984	1	2
616.153	1	0
616.323	1	1
616.493	1	6
616.662	1	7
616.832	1	-1
617.002	1	1
617.171	1	9
617.341	1	4
617.511	1	-4
617.680	1	-7
617.850	1	8
618.019	1	14
618.189	1	10
618.359	1	16
618.528	1	5
618.698	1	8
618.868	1	-5
619.037	1	2
619.207	1	0
619.377	1	-8
619.546	1	7
619.716	1	3
619.885	1	-4
620.055	1	-4
620.225	1	5
620.394	1	-2
620.564	1	15
620.734	1	8
620.903	1	-3
621.073	1	0
621.242	1	11
621.412	1	-3
621.582	1	-4
621.751	1	13
621.921	1	13
622.091	1	8
622.260	1	5
622.430	1	11
622.599	1	1
622.769	1	8
622.939	1	3
623.108	1	3
623.278	1	-7
623.448	1	0
623.617	1	9
623.787	1	2
623.956	1	12
624.126	1	1
624.296	1	-5
624.465	1	6
624.635	1	19
624.804	1	10
624.974	1	8
625.144	1	7
625.313	1	-3
625.483	1	7
625.652	1	12
625.822	1	-3
625.992	1	-3
626.161	1	10
626.331	1	8
626.501	1	9
626.670	1	3
626.840	1	-2
627.009	1	5
627.179	1	10
627.348	1	13
627.518	1	3
627.688	1	6
627.857	1	10
628.027	1	-6
628.196	1	3
628.366	1	15
628.536	1	8
628.705	1	11
628.875	1	3
629.044	1	7
629.214	1	9
629.384	1	12
629.553	1	5
629.723	1	7
629.892	1	6
630.062	1	5
630.232	1	2
630.401	1	13
630.571	1	9
630.740	1	8
630.910	1	6
631.079	1	6
631.249	1	8
631.419	1	16
631.588	1	-4
631.758	1	13
631.927	1	10
632.097	1	6
632.266	1	6
632.436	1	8
632.606	1	1
632.775	1	8
632.945	1	10
633.114	1	16
633.284	1	9
633.453	1	0
633.623	1	-1
633.793	1	8
633.962	1	10
634.132	1	7
634.301	1	8
634.471	1	14
634.640	1	12
634.810	1	7
634.979	1	14
635.149	1	3
635.319	1	3
635.488	1	5
635.658	1	5
635.827	1	1
635.997	1	5
636.166	1	20
636.336	1	-4
636.505	1	12
636.675	1	-2
636.845	1	9
637.014	1	8
637.184	1	10
637.353	1	13
637.523	1	16
637.692	1	8
637.862	1	12
638.031	1	4
638.201	1	9
638.370	1	2
638.540	1	4
638.710	1	4
638.879	1	-5
639.049	1	10
639.218	1	12
639.388	1	8
639.557	1	3
639.727	1	9
639.896	1	9
640.066	1	-3
640.235	1	8
640.405	1	18
640.574	1	11
640.744	1	4
640.914	1	3
641.083	1	3
641.253	1	7
641.422	1	6
641.592	1	11
641.761	1	5
641.931	1	3
642.100	1	25
642.270	1	7
642.439	1	10
642.609	1	19
642.778	1	7
642.948	1	4
643.117	1	11
643.287	1	9
643.456	1	-6
643.626	1	15
643.795	1	1
643.965	1	11
644.134	1	2
644.304	1	3
644.473	1	15
644.643	1	7
644.812	1	10
644.982	1	11
645.151	1	1
645.321	1	0
645.490	1	14
645.660	1	0
645.829	1	1
645.999	1	7
646.168	1	10
646.338	1	5
646.507	1	6
646.677	1	7
646.846	1	10
647.016	1	-5
647.185	1	10
647.355	1	-7
647.524	1	15
647.694	1	14
647.863	1	13
648.033	1	7
648.202	1	13
648.372	1	-1
648.541	1	0
648.711	1	6
648.880	1	2
649.050	1	6
649.219	1	8
649.389	1	15
649.558	1	14
649.728	1	4
649.897	1	1
650.067	1	8
650.236	1	2
650.406	1	12
650.575	1	11
650.745	1	12
650.914	1	0
651.084	1	-4
651.253	1	-1
651.423	1	6
651.592	1	0
651.762	1	8
651.931	1	10
652.101	1	12
652.270	1	11
652.440	1	7
652.609	1	-2
652.778	1	-10
652.948	1	7
653.117	1	6
653.287	1	1
653.456	1	11
653.626	1	3
653.795	1	5
653.965	1	11
654.134	1	12
654.304	1	-2
654.473	1	17
654.643	1	11
654.812	1	6
654.982	1	3
655.151	1	0
655.320	1	7
655.490	1	2
655.659	1	6
655.829	1	2
655.998	1	11
656.168	1	5
656.337	1	7
656.507	1	1
656.676	1	14
656.846	1	15
657.015	1	6
657.184	1	19
657.354	1	8
657.523	1	9
657.693	1	16
657.862	1	0
658.032	1	8
658.201	1	8
658.371	1	8
658.540	1	3
658.709	1	-4
658.879	1	13
659.048	1	11
659.218	1	5
659.387	1	6
659.557	1	4
659.726	1	6
659.895	1	0
660.065	1	-1
660.234	1	8
660.404	1	8
660.573	1	8
660.743	1	13
660.912	1	6
661.081	1	11
661.251	1	3
661.420	1	4
661.590	1	12
661.759	1	7
661.929	1	9
662.098	1	16
662.267	1	1
662.437	1	13
662.606	1	6
662.776	1	12
662.945	1	9
663.115	1	13
663.284	1	3
663.453	1	0
663.623	1	-3
663.792	1	7
663.962	1	4
664.131	1	14
664.300	1	8
664.470	1	4
664.639	1	5
664.809	1	20
664.978	1	18
665.148	1	4
665.317	1	7
665.486	1	11
665.656	1	-1
665.825	1	18
665.995	1	2
666.164	1	7
666.333	1	9
666.503	1	11
666.672	1	3
666.842	1	-4
667.011	1	2
667.180	1	20
667.350	1	12
667.519	1	11
667.689	1	13
667.858	1	11
668.027	1	23
668.197	1	4
668.366	1	-1
668.536	1	8
668.705	1	9
668.874	1	6
669.044	1	4
669.213	1	13
669.382	1	12
669.552	1	6
669.721	1	7
669.891	1	12
670.060	1	17
670.229	1	24
670.399	1	6
670.568	1	18
670.738	1	16
670.907	1	1
671.076	1	3
671.246	1	8
671.415	1	10
671.584	1	4
671.754	1	7
671.923	1	2
672.093	1	14
672.262	1	1
672.431	1	6
672.601	1	2
672.770	1	-6
672.939	1	17
673.109	1	9
673.278	1	13
673.448	1	6
673.617	1	3
673.786	1	13
