325.333	1	10
325.504	1	3
325.675	1	12
325.846	1	-1
326.017	1	0
326.188	1	5
326.359	1	6
326.531	1	-4
326.702	1	-4
326.873	1	7
327.044	1	0
327.215	1	-7
327.386	1	-4
327.557	1	3
327.728	1	0
327.899	1	8
328.070	1	10
328.241	1	10
328.412	1	-10
328.583	1	9
328.754	1	-3
328.926	1	3
329.097	1	-6
329.268	1	3
329.439	1	2
329.610	1	1
329.781	1	-13
329.952	1	15
330.123	1	1
330.294	1	-2
330.465	1	4
330.636	1	12
330.807	1	3
330.978	1	-1
331.149	1	1
331.320	1	-1
331.492	1	-1
331.663	1	5
331.834	1	9
332.005	1	4
332.176	1	25
332.347	1	-3
332.518	1	1
332.689	1	7
332.860	1	6
333.031	1	6
333.202	1	0
333.373	1	7
333.544	1	1
333.715	1	12
333.886	1	-6
334.057	1	10
334.228	1	-9
334.399	1	1
334.570	1	7
334.741	1	-10
334.912	1	8
335.084	1	18
335.255	1	9
335.426	1	-4
335.597	1	8
335.768	1	-6
335.939	1	7
336.110	1	-6
336.281	1	-2
336.452	1	-1
336.623	1	-3
336.794	1	6
336.965	1	0
337.136	1	6
337.307	1	5
337.478	1	2
337.649	1	-2
337.820	1	-3
337.991	1	-6
338.162	1	4
338.333	1	0
338.504	1	12
338.675	1	-2
338.846	1	11
339.017	1	2
339.188	1	-2
339.359	1	-7
339.530	1	4
339.701	1	4
339.872	1	12
340.043	1	0
340.214	1	5
340.385	1	-1
340.556	1	-2
340.727	1	4
340.898	1	16
341.069	1	8
341.240	1	-4
341.411	1	4
341.582	1	3
341.753	1	-10
341.924	1	-5
342.095	1	6
342.266	1	10
342.437	1	9
342.608	1	3
342.779	1	4
342.950	1	6
343.121	1	8
343.292	1	3
343.463	1	-1
343.634	1	0
343.805	1	4
343.976	1	4
344.147	1	9
344.318	1	4
344.489	1	13
344.660	1	9
344.831	1	5
345.002	1	0
345.173	1	16
345.344	1	9
345.515	1	4
345.686	1	9
345.857	1	6
346.028	1	8
346.199	1	-5
346.370	1	3
346.541	1	4
346.712	1	-5
346.883	1	6
347.054	1	3
347.225	1	2
347.396	1	7
347.567	1	0
347.738	1	-3
347.909	1	6
348.080	1	-6
348.251	1	9
348.422	1	11
348.593	1	4
348.764	1	1
348.935	1	3
349.106	1	5
349.277	1	6
349.448	1	6
349.619	1	0
349.790	1	1
349.961	1	10
350.132	1	7
350.303	1	8
350.474	1	14
350.645	1	3
350.816	1	6
350.987	1	5
351.157	1	0
351.328	1	9
351.499	1	9
351.670	1	-3
351.841	1	12
352.012	1	12
352.183	1	12
352.354	1	24
352.525	1	14
352.696	1	17
352.867	1	6
353.038	1	6
353.209	1	1
353.380	1	-2
353.551	1	1
353.722	1	-3
353.893	1	4
354.064	1	14
354.235	1	11
354.406	1	0
354.576	1	13
354.747	1	7
354.918	1	12
355.089	1	10
355.260	1	8
355.431	1	8
355.602	1	1
355.773	1	10
355.944	1	0
356.115	1	3
356.286	1	14
356.457	1	9
356.628	1	6
356.799	1	3
356.970	1	8
357.141	1	0
357.311	1	0
357.482	1	9
357.653	1	2
357.824	1	11
357.995	1	9
358.166	1	3
358.337	1	9
358.508	1	5
358.679	1	6
358.850	1	12
359.021	1	11
359.192	1	9
359.363	1	2
359.533	1	7
359.704	1	7
359.875	1	5
360.046	1	8
360.217	1	1
360.388	1	9
360.559	1	3
360.730	1	5
360.901	1	10
361.072	1	19
361.243	1	14
361.414	1	3
361.584	1	1
361.755	1	15
361.926	1	6
362.097	1	-1
362.268	1	6
362.439	1	1
362.610	1	17
362.781	1	4
362.952	1	-2
363.123	1	5
363.293	1	3
363.464	1	15
363.635	1	17
363.806	1	4
363.977	1	15
364.148	1	-2
364.319	1	4
364.490	1	14
364.661	1	3
364.832	1	3
365.002	1	5
365.173	1	13
365.344	1	18
365.515	1	-3
365.686	1	7
365.857	1	14
366.028	1	20
366.199	1	3
366.370	1	4
366.540	1	-4
366.711	1	-5
366.882	1	-1
367.053	1	-3
367.224	1	13
367.395	1	15
367.566	1	15
367.737	1	16
367.908	1	8
368.078	1	1
368.249	1	10
368.420	1	1
368.591	1	5
368.762	1	7
368.933	1	6
369.104	1	-6
369.274	1	11
369.445	1	12
369.616	1	6
369.787	1	13
369.958	1	13
370.129	1	3
370.300	1	17
370.471	1	7
370.641	1	11
370.812	1	11
370.983	1	10
371.154	1	-2
371.325	1	12
371.496	1	12
371.667	1	9
371.837	1	-4
372.008	1	0
372.179	1	8
372.350	1	13
372.521	1	12
372.692	1	3
372.863	1	11
373.033	1	-8
373.204	1	3
373.375	1	13
373.546	1	18
373.717	1	8
373.888	1	8
374.059	1	18
374.229	1	17
374.400	1	4
374.571	1	4
374.742	1	19
374.913	1	13
375.084	1	9
375.254	1	10
375.425	1	11
375.596	1	19
375.767	1	13
375.938	1	15
376.109	1	14
376.279	1	1
376.450	1	15
376.621	1	11
376.792	1	-2
376.963	1	10
377.134	1	13
377.304	1	13
377.475	1	-3
377.646	1	11
377.817	1	-1
377.988	1	9
378.159	1	15
378.329	1	13
378.500	1	6
378.671	1	8
378.842	1	6
379.013	1	2
379.184	1	5
379.354	1	11
379.525	1	2
379.696	1	9
379.867	1	18
380.038	1	14
380.209	1	15
380.379	1	4
380.550	1	-1
380.721	1	13
380.892	1	11
381.063	1	11
381.233	1	8
381.404	1	2
381.575	1	13
381.746	1	15
381.917	1	8
382.087	1	10
382.258	1	8
382.429	1	6
382.600	1	22
382.771	1	10
382.941	1	10
383.112	1	12
383.283	1	8
383.454	1	3
383.625	1	8
383.795	1	8
383.966	1	11
384.137	1	17
384.308	1	19
384.479	1	9
384.649	1	7
384.820	1	9
384.991	1	8
385.162	1	7
385.333	1	5
385.503	1	5
385.674	1	-3
385.845	1	9
386.016	1	18
386.187	1	6
386.357	1	14
386.528	1	18
386.699	1	10
386.870	1	22
387.041	1	12
387.211	1	4
387.382	1	17
387.553	1	15
387.724	1	-2
387.894	1	17
388.065	1	6
388.236	1	21
388.407	1	5
388.578	1	8
388.748	1	10
388.919	1	25
389.090	1	-1
389.261	1	10
389.431	1	14
389.602	1	18
389.773	1	11
389.944	1	16
390.114	1	10
390.285	1	15
390.456	1	5
390.627	1	12
390.798	1	4
390.968	1	6
391.139	1	19
391.310	1	10
391.481	1	9
391.651	1	19
391.822	1	11
391.993	1	13
392.164	1	-1
392.334	1	6
392.505	1	8
392.676	1	9
392.847	1	21
393.017	1	21
393.188	1	15
393.359	1	9
393.530	1	12
393.700	1	11
393.871	1	13
394.042	1	6
394.213	1	9
394.383	1	12
394.554	1	16
394.725	1	20
394.896	1	12
395.066	1	17
395.237	1	10
395.408	1	14
395.579	1	3
395.749	1	13
395.920	1	3
396.091	1	10
396.262	1	4
396.432	1	6
396.603	1	23
396.774	1	18
396.945	1	15
397.115	1	15
397.286	1	6
397.457	1	10
397.627	1	21
397.798	1	13
397.969	1	8
398.140	1	11
398.310	1	7
398.481	1	19
398.652	1	7
398.823	1	-2
398.993	1	6
399.164	1	12
399.335	1	14
399.505	1	18
399.676	1	12
399.847	1	10
400.018	1	8
400.188	1	13
400.359	1	7
400.530	1	5
400.700	1	10
400.871	1	7
401.042	1	6
401.213	1	13
401.383	1	11
401.554	1	18
401.725	1	14
401.895	1	6
402.066	1	11
402.237	1	13
402.408	1	13
402.578	1	17
402.749	1	12
402.920	1	11
403.090	1	11
403.261	1	12
403.432	1	11
403.603	1	17
403.773	1	13
403.944	1	16
404.115	1	17
404.285	1	18
404.456	1	5
404.627	1	6
404.797	1	-3
404.968	1	4
405.139	1	-2
405.310	1	26
405.480	1	14
405.651	1	11
405.822	1	12
405.992	1	1
406.163	1	10
406.334	1	3
406.504	1	10
406.675	1	19
406.846	1	10
407.016	1	20
407.187	1	14
407.358	1	9
407.528	1	8
407.699	1	-1
407.870	1	11
408.041	1	20
408.211	1	18
408.382	1	14
408.553	1	2
408.723	1	17
408.894	1	3
409.065	1	17
409.235	1	5
409.406	1	11
409.577	1	-1
409.747	1	32
409.918	1	2
410.089	1	13
410.259	1	12
410.430	1	9
410.601	1	20
410.771	1	13
410.942	1	17
411.113	1	8
411.283	1	21
411.454	1	5
411.625	1	19
411.795	1	5
411.966	1	15
412.137	1	17
412.307	1	3
412.478	1	17
412.649	1	17
412.819	1	11
412.990	1	7
413.161	1	13
413.331	1	6
413.502	1	17
413.672	1	12
413.843	1	-1
414.014	1	11
414.184	1	16
414.355	1	16
414.526	1	13
414.696	1	19
414.867	1	17
415.038	1	-2
415.208	1	6
415.379	1	15
415.550	1	14
415.720	1	7
415.891	1	17
416.062	1	6
416.232	1	9
416.403	1	20
416.573	1	13
416.744	1	2
416.915	1	24
417.085	1	15
417.256	1	8
417.427	1	7
417.597	1	20
417.768	1	4
417.939	1	13
418.109	1	12
418.280	1	15
418.450	1	5
418.621	1	-3
418.792	1	14
418.962	1	16
419.133	1	17
419.304	1	5
419.474	1	6
419.645	1	17
419.815	1	5
419.986	1	12
420.157	1	18
420.327	1	18
420.498	1	19
420.669	1	13
420.839	1	16
421.010	1	12
421.180	1	17
421.351	1	7
421.522	1	17
421.692	1	8
421.863	1	14
422.033	1	21
422.204	1	16
422.375	1	9
422.545	1	20
422.716	1	12
422.886	1	7
423.057	1	17
423.228	1	12
423.398	1	13
423.569	1	18
423.740	1	8
423.910	1	-1
424.081	1	5
424.251	1	-1
424.422	1	19
424.593	1	7
424.763	1	13
424.934	1	2
425.104	1	13
425.275	1	15
425.445	1	6
425.616	1	4
425.787	1	8
425.957	1	11
426.128	1	19
426.298	1	9
426.469	1	9
426.640	1	19
426.810	1	14
426.981	1	6
427.151	1	11
427.322	1	14
427.493	1	6
427.663	1	15
427.834	1	0
428.004	1	15
428.175	1	18
428.345	1	10
428.516	1	10
428.687	1	7
428.857	1	8
429.028	1	11
429.198	1	12
429.369	1	22
429.540	1	13
429.710	1	3
429.881	1	21
430.051	1	10
430.222	1	10
430.392	1	12
430.563	1	20
430.734	1	18
430.904	1	14
431.075	1	21
431.245	1	3
431.416	1	15
431.586	1	9
431.757	1	11
431.927	1	4
432.098	1	13
432.269	1	-1
432.439	1	18
432.610	1	3
432.780	1	17
432.951	1	2
433.121	1	12
433.292	1	22
433.462	1	10
433.633	1	9
433.804	1	16
433.974	1	10
434.145	1	26
434.315	1	11
434.486	1	-3
434.656	1	11
434.827	1	6
434.997	1	4
435.168	1	22
435.339	1	17
435.509	1	15
435.680	1	16
435.850	1	17
436.021	1	9
436.191	1	5
436.362	1	17
436.532	1	8
436.703	1	15
436.873	1	9
437.044	1	-1
437.214	1	14
437.385	1	8
437.556	1	9
437.726	1	27
437.897	1	18
438.067	1	7
438.238	1	15
438.408	1	21
438.579	1	3
438.749	1	6
438.920	1	8
439.090	1	10
439.261	1	10
439.431	1	-4
439.602	1	8
439.772	1	1
439.943	1	19
440.113	1	16
440.284	1	21
440.455	1	6
440.625	1	9
440.796	1	15
440.966	1	1
441.137	1	14
441.307	1	7
441.478	1	10
441.648	1	8
441.819	1	22
441.989	1	19
442.160	1	17
442.330	1	9
442.501	1	11
442.671	1	0
442.842	1	0
443.012	1	4
443.183	1	18
443.353	1	5
443.524	1	13
443.694	1	17
443.865	1	2
444.035	1	9
444.206	1	13
444.376	1	3
444.547	1	22
444.717	1	14
444.888	1	-2
445.058	1	14
445.229	1	12
445.399	1	-5
445.570	1	7
445.740	1	10
445.911	1	2
446.081	1	5
446.252	1	14
446.422	1	16
446.593	1	5
446.763	1	1
446.934	1	-1
447.104	1	9
447.275	1	11
447.445	1	14
447.616	1	16
447.786	1	3
447.957	1	10
448.127	1	11
448.298	1	13
448.468	1	9
448.639	1	13
448.809	1	3
448.979	1	1
449.150	1	15
449.320	1	14
449.491	1	22
449.661	1	2
449.832	1	8
450.002	1	29
450.173	1	16
450.343	1	10
450.514	1	14
450.684	1	0
450.855	1	10
451.025	1	3
451.196	1	19
451.366	1	8
451.537	1	10
451.707	1	-2
451.878	1	13
452.048	1	16
452.218	1	8
452.389	1	15
452.559	1	11
452.730	1	10
452.900	1	13
453.071	1	0
453.241	1	6
453.412	1	7
453.582	1	4
453.753	1	16
453.923	1	5
454.093	1	16
454.264	1	16
454.434	1	4
454.605	1	2
454.775	1	12
454.946	1	10
455.116	1	10
455.287	1	10
455.457	1	5
455.628	1	5
455.798	1	10
455.968	1	5
456.139	1	11
456.309	1	3
456.480	1	3
456.650	1	4
456.821	1	0
456.991	1	4
457.161	1	6
457.332	1	14
457.502	1	-6
457.673	1	14
457.843	1	2
458.014	1	10
458.184	1	6
458.355	1	6
458.525	1	17
458.695	1	11
458.866	1	5
459.036	1	15
459.207	1	6
459.377	1	2
459.548	1	7
459.718	1	1
459.888	1	18
460.059	1	13
460.229	1	12
460.400	1	12
460.570	1	4
460.740	1	7
460.911	1	5
461.081	1	7
461.252	1	6
461.422	1	11
461.593	1	11
461.763	1	12
461.933	1	13
462.104	1	1
462.274	1	6
462.445	1	19
462.615	1	1
462.785	1	1
462.956	1	13
463.126	1	18
463.297	1	5
463.467	1	8
463.638	1	12
463.808	1	3
463.978	1	8
464.149	1	7
464.319	1	0
464.490	1	12
464.660	1	5
464.830	1	8
465.001	1	5
465.171	1	9
465.342	1	15
465.512	1	-3
465.682	1	7
465.853	1	12
466.023	1	12
466.194	1	12
466.364	1	12
466.534	1	3
466.705	1	13
466.875	1	3
467.045	1	8
467.216	1	12
467.386	1	4
467.557	1	4
467.727	1	1
467.897	1	9
468.068	1	13
468.238	1	4
468.409	1	-2
468.579	1	1
468.749	1	1
468.920	1	4
469.090	1	-1
469.260	1	4
469.431	1	-2
469.601	1	5
469.772	1	3
469.942	1	7
470.112	1	14
470.283	1	12
470.453	1	5
470.623	1	4
470.794	1	4
470.964	1	9
471.135	1	5
471.305	1	-1
471.475	1	11
471.646	1	9
471.816	1	-2
471.986	1	11
472.157	1	14
472.327	1	-6
472.497	1	6
472.668	1	-2
472.838	1	9
473.009	1	7
473.179	1	4
473.349	1	-3
473.520	1	21
473.690	1	8
473.860	1	3
474.031	1	12
474.201	1	4
474.371	1	12
474.542	1	10
474.712	1	3
474.882	1	15
475.053	1	25
475.223	1	1
475.394	1	11
475.564	1	9
475.734	1	12
475.905	1	17
476.075	1	-1
476.245	1	11
476.416	1	5
476.586	1	15
476.756	1	7
476.927	1	19
477.097	1	6
477.267	1	-2
477.438	1	11
477.608	1	3
477.778	1	3
477.949	1	11
478.119	1	13
478.289	1	10
478.460	1	12
478.630	1	6
478.800	1	0
478.971	1	8
479.141	1	0
479.311	1	-12
479.482	1	-3
479.652	1	0
479.822	1	3
479.993	1	14
480.163	1	6
480.333	1	0
480.504	1	13
480.674	1	5
480.844	1	7
481.015	1	15
481.185	1	1
481.355	1	15
481.525	1	-6
481.696	1	8
481.866	1	5
482.036	1	2
482.207	1	11
482.377	1	3
482.547	1	7
482.718	1	-4
482.888	1	7
483.058	1	7
483.229	1	9
483.399	1	1
483.569	1	1
483.740	1	6
483.910	1	12
484.080	1	11
484.250	1	5
484.421	1	1
484.591	1	6
484.761	1	18
484.932	1	14
485.102	1	6
485.272	1	13
485.443	1	17
485.613	1	12
485.783	1	11
485.953	1	-1
486.124	1	11
486.294	1	4
486.464	1	14
486.635	1	12
486.805	1	9
486.975	1	6
487.146	1	8
487.316	1	6
487.486	1	8
487.656	1	1
487.827	1	1
487.997	1	-8
488.167	1	-5
488.338	1	11
488.508	1	6
488.678	1	-7
488.848	1	8
489.019	1	3
489.189	1	12
489.359	1	3
489.529	1	5
489.700	1	8
489.870	1	12
490.040	1	1
490.211	1	-3
490.381	1	13
490.551	1	12
490.721	1	16
490.892	1	-2
491.062	1	10
491.232	1	9
491.402	1	2
491.573	1	-12
491.743	1	12
491.913	1	-1
492.084	1	16
492.254	1	2
492.424	1	7
492.594	1	8
492.765	1	6
492.935	1	-4
493.105	1	6
493.275	1	0
493.446	1	2
493.616	1	19
493.786	1	15
493.956	1	5
494.127	1	-1
494.297	1	-1
494.467	1	8
494.637	1	-2
494.808	1	5
494.978	1	-3
495.148	1	6
495.318	1	-1
495.489	1	11
495.659	1	19
495.829	1	-4
495.999	1	-6
496.170	1	13
496.340	1	1
496.510	1	1
496.680	1	-9
496.851	1	3
497.021	1	11
497.191	1	-3
497.361	1	4
497.532	1	-10
497.702	1	7
497.872	1	-2
498.042	1	4
498.213	1	-3
498.383	1	-1
498.553	1	0
498.723	1	4
498.894	1	7
499.064	1	12
499.234	1	6
499.404	1	5
499.574	1	5
499.745	1	14
499.915	1	2
500.085	1	8
500.255	1	10
500.426	1	1
500.596	1	13
500.766	1	-3
500.936	1	5
501.106	1	-2
501.277	1	2
501.447	1	3
501.617	1	3
501.787	1	2
501.958	1	-4
502.128	1	1
502.298	1	8
502.468	1	5
502.638	1	-1
502.809	1	4
502.979	1	-4
503.149	1	-9
503.319	1	-4
503.489	1	2
503.660	1	1
503.830	1	15
504.000	1	10
504.170	1	4
504.340	1	-2
504.511	1	2
504.681	1	-3
504.851	1	5
505.021	1	-3
505.192	1	-3
505.362	1	11
505.532	1	-2
505.702	1	8
505.872	1	2
506.043	1	5
506.213	1	1
506.383	1	-1
506.553	1	9
506.723	1	1
506.893	1	-2
507.064	1	7
507.234	1	3
507.404	1	2
507.574	1	2
507.744	1	10
507.915	1	2
508.085	1	20
508.255	1	0
508.425	1	-1
508.595	1	8
508.766	1	8
508.936	1	-6
509.106	1	4
509.276	1	8
509.446	1	-8
509.616	1	1
509.787	1	6
509.957	1	-2
510.127	1	7
510.297	1	7
510.467	1	4
510.638	1	6
510.808	1	-5
510.978	1	-13
511.148	1	4
511.318	1	11
511.488	1	-4
511.659	1	6
511.829	1	0
511.999	1	9
512.169	1	3
512.339	1	8
512.509	1	-7
512.680	1	-1
512.850	1	6
513.020	1	-1
513.190	1	10
513.360	1	0
513.530	1	-1
513.700	1	7
513.871	1	-7
514.041	1	-2
514.211	1	7
514.381	1	5
514.551	1	-1
514.721	1	-3
514.892	1	10
515.062	1	6
515.232	1	7
515.402	1	-8
515.572	1	-7
515.742	1	9
515.912	1	8
516.083	1	-1
516.253	1	10
516.423	1	-4
516.593	1	2
516.763	1	12
516.933	1	0
517.104	1	-3
517.274	1	-5
517.444	1	10
517.614	1	-11
517.784	1	1
517.954	1	6
518.124	1	2
518.294	1	2
518.465	1	3
518.635	1	1
518.805	1	-1
518.975	1	9
519.145	1	1
519.315	1	5
519.485	1	-5
519.656	1	9
519.826	1	11
519.996	1	-7
520.166	1	-1
520.336	1	18
520.506	1	1
520.676	1	-3
520.846	1	21
521.017	1	7
521.187	1	-5
521.357	1	10
521.527	1	2
521.697	1	-3
521.867	1	-2
522.037	1	12
522.207	1	11
522.377	1	6
522.548	1	-5
522.718	1	2
522.888	1	13
523.058	1	-9
523.228	1	7
523.398	1	2
523.568	1	8
523.738	1	5
523.909	1	8
524.079	1	4
524.249	1	2
524.419	1	5
524.589	1	-7
524.759	1	-1
524.929	1	-5
525.099	1	-1
525.269	1	9
525.439	1	6
525.610	1	15
525.780	1	1
525.950	1	5
526.120	1	4
526.290	1	-3
526.460	1	-10
526.630	1	3
526.800	1	-9
526.970	1	6
527.140	1	8
527.311	1	-1
527.481	1	-7
527.651	1	-1
527.821	1	-6
527.991	1	7
528.161	1	5
528.331	1	2
528.501	1	3
528.671	1	4
528.841	1	-4
529.011	1	1
529.181	1	3
529.352	1	4
529.522	1	0
529.692	1	-1
529.862	1	3
530.032	1	7
530.202	1	-1
530.372	1	-5
530.542	1	-3
530.712	1	-3
530.882	1	14
531.052	1	5
531.222	1	-2
531.392	1	-2
531.563	1	6
531.733	1	8
531.903	1	-1
532.073	1	2
532.243	1	-4
532.413	1	2
532.583	1	5
532.753	1	11
532.923	1	-12
533.093	1	2
533.263	1	0
533.433	1	6
533.603	1	8
533.773	1	-3
533.943	1	-2
534.113	1	10
534.284	1	-6
534.454	1	1
534.624	1	4
534.794	1	-9
534.964	1	6
535.134	1	2
535.304	1	8
535.474	1	10
535.644	1	-7
535.814	1	-10
535.984	1	-3
536.154	1	-4
536.324	1	-13
536.494	1	2
536.664	1	3
536.834	1	7
537.004	1	9
537.174	1	10
537.344	1	3
537.514	1	-11
537.685	1	-1
537.855	1	11
538.025	1	-8
538.195	1	-3
538.365	1	8
538.535	1	0
538.705	1	-7
538.875	1	9
539.045	1	11
539.215	1	8
539.385	1	5
539.555	1	3
539.725	1	-10
539.895	1	-2
540.065	1	8
540.235	1	7
540.405	1	5
540.575	1	0
540.745	1	4
540.915	1	7
541.085	1	6
541.255	1	-10
541.425	1	11
541.595	1	-9
541.765	1	-8
541.935	1	-1
542.105	1	1
542.275	1	-3
542.445	1	-7
542.615	1	3
542.785	1	14
542.955	1	-3
543.125	1	-3
543.295	1	5
543.465	1	4
543.635	1	-6
543.805	1	17
543.975	1	1
544.145	1	13
544.315	1	0
544.485	1	9
544.655	1	7
544.825	1	-4
544.995	1	-3
545.165	1	-5
545.335	1	9
545.505	1	-6
545.675	1	1
545.845	1	7
546.015	1	6
546.185	1	9
546.355	1	-7
546.525	1	6
546.695	1	3
546.865	1	-12
547.035	1	2
547.205	1	-15
547.375	1	8
547.545	1	12
547.715	1	3
547.885	1	5
548.055	1	1
548.225	1	-9
548.395	1	-3
548.565	1	2
548.735	1	-1
548.905	1	-1
549.075	1	-3
549.245	1	5
549.415	1	-3
549.585	1	12
549.755	1	6
549.925	1	-11
550.095	1	7
550.265	1	-3
550.435	1	2
550.605	1	-6
550.775	1	9
550.945	1	3
551.115	1	9
551.285	1	1
551.455	1	-4
551.625	1	1
551.795	1	10
551.965	1	-3
552.135	1	6
552.305	1	7
552.475	1	-2
552.645	1	0
552.815	1	-2
552.985	1	3
553.155	1	0
553.325	1	13
553.495	1	3
553.665	1	0
553.835	1	-9
554.004	1	2
554.174	1	4
554.344	1	0
554.514	1	6
554.684	1	10
554.854	1	0
555.024	1	-2
555.194	1	-3
555.364	1	6
555.534	1	-7
555.704	1	3
555.874	1	3
556.044	1	2
556.214	1	1
556.384	1	1
556.554	1	15
556.724	1	5
556.894	1	0
557.064	1	0
557.234	1	-7
557.404	1	3
557.573	1	-3
557.743	1	-4
557.913	1	-12
558.083	1	-5
558.253	1	7
558.423	1	-5
558.593	1	2
558.763	1	-9
558.933	1	1
559.103	1	3
559.273	1	1
559.443	1	-6
559.613	1	9
559.783	1	3
559.953	1	5
560.122	1	8
560.292	1	-3
560.462	1	-1
560.632	1	10
560.802	1	-2
560.972	1	-6
561.142	1	7
561.312	1	-4
561.482	1	6
561.652	1	12
561.822	1	1
561.992	1	5
562.162	1	-2
562.331	1	-8
562.501	1	-1
562.671	1	8
562.841	1	-2
563.011	1	10
563.181	1	0
563.351	1	-7
563.521	1	8
563.691	1	-2
563.861	1	6
564.031	1	11
564.201	1	10
564.370	1	-6
564.540	1	4
564.710	1	-9
564.880	1	9
565.050	1	10
565.220	1	-6
565.390	1	8
565.560	1	7
565.730	1	4
565.900	1	-7
566.069	1	14
566.239	1	2
566.409	1	-2
566.579	1	7
566.749	1	10
566.919	1	0
567.089	1	4
567.259	1	10
567.429	1	-2
567.599	1	-1
567.768	1	1
567.938	1	-2
568.108	1	0
568.278	1	8
568.448	1	-10
568.618	1	0
568.788	1	6
568.958	1	-4
569.128	1	6
569.297	1	-5
569.467	1	3
569.637	1	8
569.807	1	-3
569.977	1	8
570.147	1	8
570.317	1	-17
570.487	1	6
570.656	1	5
570.826	1	-6
570.996	1	0
571.166	1	16
571.336	1	4
571.506	1	7
571.676	1	-2
571.846	1	12
572.015	1	5
572.185	1	0
572.355	1	-1
572.525	1	-1
572.695	1	4
572.865	1	-12
573.035	1	-3
573.205	1	-5
573.374	1	2
573.544	1	-5
573.714	1	10
573.884	1	6
574.054	1	-5
574.224	1	5
574.394	1	4
574.563	1	-1
574.733	1	-3
574.903	1	-5
575.073	1	-4
575.243	1	-2
575.413	1	3
575.583	1	3
575.752	1	4
575.922	1	6
576.092	1	4
576.262	1	4
576.432	1	3
576.602	1	-4
576.772	1	7
576.941	1	0
577.111	1	-3
577.281	1	-7
577.451	1	-3
577.621	1	6
577.791	1	11
577.960	1	-12
578.130	1	13
578.300	1	0
578.470	1	4
578.640	1	0
578.810	1	7
578.979	1	4
579.149	1	3
579.319	1	-6
579.489	1	6
579.659	1	-3
579.829	1	0
579.998	1	4
580.168	1	13
580.338	1	-3
580.508	1	7
580.678	1	-2
580.848	1	-7
581.017	1	2
581.187	1	0
581.357	1	-8
581.527	1	10
581.697	1	2
581.867	1	11
582.036	1	7
582.206	1	-3
582.376	1	7
582.546	1	0
582.716	1	-10
582.885	1	-3
583.055	1	2
583.225	1	-14
583.395	1	6
583.565	1	-5
583.735	1	4
583.904	1	8
584.074	1	0
584.244	1	9
584.414	1	-2
584.584	1	11
584.753	1	-6
584.923	1	1
585.093	1	-1
585.263	1	-1
585.433	1	1
585.602	1	-15
585.772	1	-7
585.942	1	9
586.112	1	-7
586.282	1	-8
586.451	1	-2
586.621	1	-6
586.791	1	-12
586.961	1	0
587.131	1	3
587.300	1	1
587.470	1	4
587.640	1	12
587.810	1	-2
587.980	1	-2
588.149	1	-1
588.319	1	-4
588.489	1	-6
588.659	1	12
588.829	1	5
588.998	1	8
589.168	1	5
589.338	1	-4
589.508	1	0
589.677	1	-2
589.847	1	-5
590.017	1	17
590.187	1	-7
590.357	1	11
590.526	1	16
590.696	1	4
590.866	1	0
591.036	1	-3
591.205	1	11
591.375	1	-8
591.545	1	0
591.715	1	3
591.885	1	-4
592.054	1	7
592.224	1	4
592.394	1	3
592.564	1	-2
592.733	1	0
592.903	1	2
593.073	1	-3
593.243	1	-2
593.412	1	13
593.582	1	-10
593.752	1	-3
593.922	1	2
594.091	1	0
594.261	1	-3
594.431	1	5
594.601	1	11
594.771	1	6
594.940	1	-10
595.110	1	-3
595.280	1	5
595.450	1	3
595.619	1	-3
595.789	1	4
595.959	1	8
596.129	1	-3
596.298	1	1
596.468	1	1
596.638	1	3
596.808	1	5
596.977	1	12
597.147	1	-2
597.317	1	-1
597.487	1	10
597.656	1	8
597.826	1	4
597.996	1	-10
598.166	1	-5
598.335	1	-7
598.505	1	-4
598.675	1	-6
598.844	1	8
599.014	1	6
599.184	1	6
599.354	1	-12
599.523	1	3
599.693	1	-4
599.863	1	3
600.033	1	8
600.202	1	-5
600.372	1	2
600.542	1	8
600.712	1	-5
600.881	1	8
601.051	1	8
601.221	1	15
601.390	1	-3
601.560	1	10
601.730	1	6
601.900	1	-1
602.069	1	9
602.239	1	-3
602.409	1	-4
602.578	1	6
602.748	1	1
602.918	1	16
603.088	1	2
603.257	1	4
603.427	1	-9
603.597	1	-2
603.767	1	9
603.936	1	13
604.106	1	-1
604.276	1	1
604.445	1	5
604.615	1	7
604.785	1	8
604.954	1	-1
605.124	1	2
605.294	1	-4
605.464	1	-6
605.633	1	3
605.803	1	9
605.973	1	6
606.142	1	10
606.312	1	10
606.482	1	-2
606.652	1	11
606.821	1	-10
606.991	1	7
607.161	1	-4
607.330	1	11
607.500	1	2
607.670	1	6
607.839	1	5
608.009	1	20
608.179	1	1
608.348	1	5
608.518	1	1
608.688	1	11
608.858	1	-9
609.027	1	-7
609.197	1	3
609.367	1	14
609.536	1	3
609.706	1	-4
609.876	1	-1
610.045	1	-7
610.215	1	3
610.385	1	-2
610.554	1	2
610.724	1	2
610.894	1	-7
611.063	1	-2
611.233	1	-6
611.403	1	-7
611.572	1	-4
611.742	1	2
611.912	1	3
612.081	1	-4
612.251	1	6
612.421	1	3
612.590	1	-4
612.760	1	0
612.930	1	2
613.099	1	0
613.269	1	5
613.439	1	-1
613.608	1	-7
613.778	1	6
613.948	1	1
614.117	1	0
614.287	1	15
614.457	1	6
614.626	1	-1
614.796	1	2
614.966	1	-3
615.135	1	2
615.305	1	3
615.475	1	1
615.644	1	-4
615.814	1	7
615.984	1	-2
616.153	1	-7
616.323	1	4
616.493	1	4
616.662	1	6
616.832	1	9
617.002	1	-2
617.171	1	0
617.341	1	-1
617.511	1	3
617.680	1	0
617.850	1	2
618.019	1	3
618.189	1	19
618.359	1	0
618.528	1	7
618.698	1	-3
618.868	1	3
619.037	1	0
619.207	1	-7
619.377	1	-5
619.546	1	-8
619.716	1	-7
619.885	1	10
620.055	1	-4
620.225	1	-2
620.394	1	1
620.564	1	7
620.734	1	3
620.903	1	0
621.073	1	11
621.242	1	4
621.412	1	2
621.582	1	1
621.751	1	9
621.921	1	8
622.091	1	1
622.260	1	3
622.430	1	0
622.599	1	-3
622.769	1	12
622.939	1	5
623.108	1	6
623.278	1	-5
623.448	1	5
623.617	1	-1
623.787	1	10
623.956	1	15
624.126	1	4
624.296	1	-4
624.465	1	4
624.635	1	7
624.804	1	-3
624.974	1	-2
625.144	1	6
625.313	1	-2
625.483	1	-11
625.652	1	6
625.822	1	-12
625.992	1	-6
626.161	1	2
626.331	1	-3
626.501	1	-1
626.670	1	-5
626.840	1	-1
627.009	1	-3
627.179	1	3
627.348	1	4
627.518	1	-2
627.688	1	13
627.857	1	15
628.027	1	-7
628.196	1	-6
628.366	1	5
628.536	1	0
628.705	1	-6
628.875	1	-2
629.044	1	7
629.214	1	-1
629.384	1	7
629.553	1	12
629.723	1	5
629.892	1	3
630.062	1	-7
630.232	1	-8
630.401	1	6
630.571	1	0
630.740	1	3
630.910	1	7
631.079	1	15
631.249	1	13
631.419	1	8
631.588	1	-9
631.758	1	1
631.927	1	-6
632.097	1	7
632.266	1	-6
632.436	1	3
632.606	1	0
632.775	1	-3
632.945	1	1
633.114	1	-1
633.284	1	10
633.453	1	0
633.623	1	-9
633.793	1	2
633.962	1	7
634.132	1	1
634.301	1	6
634.471	1	9
634.640	1	6
634.810	1	6
634.979	1	8
635.149	1	5
635.319	1	-1
635.488	1	5
635.658	1	-2
635.827	1	-5
635.997	1	0
636.166	1	2
636.336	1	-4
636.505	1	8
636.675	1	-3
636.845	1	1
637.014	1	7
637.184	1	11
637.353	1	-8
637.523	1	9
637.692	1	5
637.862	1	3
638.031	1	3
638.201	1	8
638.370	1	2
638.540	1	2
638.710	1	-1
638.879	1	-8
639.049	1	2
639.218	1	2
639.388	1	-3
639.557	1	6
639.727	1	4
639.896	1	0
640.066	1	3
640.235	1	7
640.405	1	8
640.574	1	-3
640.744	1	-5
640.914	1	1
641.083	1	7
641.253	1	3
641.422	1	-2
641.592	1	14
641.761	1	6
641.931	1	3
642.100	1	17
642.270	1	-1
642.439	1	0
642.609	1	8
642.778	1	1
642.948	1	2
643.117	1	14
643.287	1	1
643.456	1	-1
643.626	1	9
643.795	1	9
643.965	1	-5
644.134	1	5
644.304	1	1
644.473	1	9
644.643	1	9
644.812	1	1
644.982	1	6
645.151	1	1
645.321	1	-5
645.490	1	6
645.660	1	-11
645.829	1	5
645.999	1	1
646.168	1	6
646.338	1	6
646.507	1	4
646.677	1	4
646.846	1	2
647.016	1	-11
647.185	1	6
647.355	1	-17
647.524	1	10
647.694	1	5
647.863	1	6
648.033	1	7
648.202	1	-2
648.372	1	-6
648.541	1	1
648.711	1	-2
648.880	1	-8
649.050	1	-5
649.219	1	6
649.389	1	4
649.558	1	11
649.728	1	6
649.897	1	-12
650.067	1	8
650.236	1	3
650.406	1	6
650.575	1	1
650.745	1	11
650.914	1	-7
651.084	1	-4
651.253	1	0
651.423	1	5
651.592	1	-3
651.762	1	-4
651.931	1	6
652.101	1	0
652.270	1	1
652.440	1	11
652.609	1	3
652.778	1	1
652.948	1	8
653.117	1	6
653.287	1	9
653.456	1	-1
653.626	1	11
653.795	1	1
653.965	1	9
654.134	1	11
654.304	1	-13
654.473	1	0
654.643	1	4
654.812	1	-1
654.982	1	-1
655.151	1	-3
655.320	1	3
655.490	1	-12
655.659	1	0
655.829	1	-3
655.998	1	2
656.168	1	4
656.337	1	5
656.507	1	-3
656.676	1	9
656.846	1	13
657.015	1	9
657.184	1	7
657.354	1	9
657.523	1	7
657.693	1	8
657.862	1	3
658.032	1	2
658.201	1	5
658.371	1	4
658.540	1	-1
658.709	1	1
658.879	1	15
659.048	1	0
659.218	1	3
659.387	1	-2
659.557	1	6
659.726	1	6
659.895	1	-8
660.065	1	-2
660.234	1	7
660.404	1	-1
660.573	1	-2
660.743	1	4
660.912	1	11
661.081	1	12
661.251	1	1
661.420	1	7
661.590	1	4
661.759	1	4
661.929	1	0
662.098	1	17
662.267	1	1
662.437	1	-3
662.606	1	1
662.776	1	8
662.945	1	7
663.115	1	-1
663.284	1	-3
663.453	1	4
663.623	1	6
663.792	1	1
663.962	1	1
664.131	1	9
664.300	1	9
664.470	1	-7
664.639	1	6
664.809	1	3
664.978	1	3
665.148	1	8
665.317	1	4
665.486	1	5
665.656	1	0
665.825	1	4
665.995	1	5
666.164	1	4
666.333	1	9
666.503	1	-5
666.672	1	-5
666.842	1	1
667.011	1	-1
667.180	1	9
667.350	1	-1
667.519	1	3
667.689	1	-2
667.858	1	7
668.027	1	10
668.197	1	-2
668.366	1	-12
668.536	1	0
668.705	1	4
668.874	1	-2
669.044	1	8
669.213	1	13
669.382	1	2
669.552	1	2
669.721	1	1
669.891	1	16
670.060	1	2
670.229	1	20
670.399	1	4
670.568	1	1
670.738	1	11
670.907	1	-1
671.076	1	-4
671.246	1	2
671.415	1	3
671.584	1	2
671.754	1	-2
671.923	1	-2
672.093	1	10
672.262	1	-2
672.431	1	4
672.601	1	-2
672.770	1	-6
672.939	1	1
673.109	1	0
673.278	1	-3
673.448	1	5
673.617	1	9
673.786	1	9
