325.333	1	34
325.504	1	31
325.675	1	39
325.846	1	24
326.017	1	32
326.188	1	36
326.359	1	39
326.531	1	29
326.702	1	33
326.873	1	44
327.044	1	46
327.215	1	42
327.386	1	44
327.557	1	33
327.728	1	38
327.899	1	39
328.070	1	52
328.241	1	43
328.412	1	34
328.583	1	48
328.754	1	51
328.926	1	52
329.097	1	34
329.268	1	52
329.439	1	31
329.610	1	48
329.781	1	45
329.952	1	52
330.123	1	52
330.294	1	43
330.465	1	50
330.636	1	58
330.807	1	44
330.978	1	46
331.149	1	47
331.320	1	45
331.492	1	43
331.663	1	43
331.834	1	51
332.005	1	51
332.176	1	60
332.347	1	55
332.518	1	49
332.689	1	54
332.860	1	54
333.031	1	58
333.202	1	58
333.373	1	61
333.544	1	59
333.715	1	62
333.886	1	50
334.057	1	54
334.228	1	47
334.399	1	60
334.570	1	64
334.741	1	55
334.912	1	59
335.084	1	77
335.255	1	72
335.426	1	64
335.597	1	62
335.768	1	63
335.939	1	65
336.110	1	52
336.281	1	46
336.452	1	55
336.623	1	68
336.794	1	74
336.965	1	61
337.136	1	70
337.307	1	70
337.478	1	55
337.649	1	65
337.820	1	64
337.991	1	62
338.162	1	70
338.333	1	65
338.504	1	77
338.675	1	74
338.846	1	72
339.017	1	60
339.188	1	58
339.359	1	66
339.530	1	68
339.701	1	69
339.872	1	84
340.043	1	76
340.214	1	73
340.385	1	87
340.556	1	71
340.727	1	92
340.898	1	89
341.069	1	81
341.240	1	67
341.411	1	89
341.582	1	79
341.753	1	73
341.924	1	84
342.095	1	91
342.266	1	89
342.437	1	86
342.608	1	78
342.779	1	89
342.950	1	87
343.121	1	99
343.292	1	80
343.463	1	87
343.634	1	101
343.805	1	87
343.976	1	93
344.147	1	85
344.318	1	82
344.489	1	78
344.660	1	97
344.831	1	90
345.002	1	91
345.173	1	95
345.344	1	99
345.515	1	100
345.686	1	96
345.857	1	93
346.028	1	97
346.199	1	84
346.370	1	87
346.541	1	102
346.712	1	104
346.883	1	95
347.054	1	99
347.225	1	100
347.396	1	105
347.567	1	90
347.738	1	86
347.909	1	114
348.080	1	96
348.251	1	101
348.422	1	94
348.593	1	111
348.764	1	102
348.935	1	99
349.106	1	104
349.277	1	107
349.448	1	111
349.619	1	108
349.790	1	105
349.961	1	107
350.132	1	115
350.303	1	119
350.474	1	118
350.645	1	133
350.816	1	109
350.987	1	121
351.157	1	117
351.328	1	115
351.499	1	119
351.670	1	122
351.841	1	120
352.012	1	123
352.183	1	143
352.354	1	127
352.525	1	137
352.696	1	128
352.867	1	122
353.038	1	131
353.209	1	133
353.380	1	122
353.551	1	118
353.722	1	128
353.893	1	123
354.064	1	136
354.235	1	136
354.406	1	122
354.576	1	127
354.747	1	126
354.918	1	129
355.089	1	135
355.260	1	131
355.431	1	146
355.602	1	126
355.773	1	138
355.944	1	129
356.115	1	120
356.286	1	135
356.457	1	134
356.628	1	135
356.799	1	134
356.970	1	142
357.141	1	136
357.311	1	138
357.482	1	137
357.653	1	138
357.824	1	157
357.995	1	137
358.166	1	126
358.337	1	160
358.508	1	142
358.679	1	156
358.850	1	148
359.021	1	136
359.192	1	151
359.363	1	156
359.533	1	157
359.704	1	155
359.875	1	148
360.046	1	143
360.217	1	136
360.388	1	153
360.559	1	147
360.730	1	156
360.901	1	152
361.072	1	153
361.243	1	157
361.414	1	159
361.584	1	150
361.755	1	154
361.926	1	146
362.097	1	162
362.268	1	137
362.439	1	147
362.610	1	161
362.781	1	149
362.952	1	152
363.123	1	158
363.293	1	157
363.464	1	154
363.635	1	154
363.806	1	148
363.977	1	154
364.148	1	154
364.319	1	151
364.490	1	169
364.661	1	148
364.832	1	166
365.002	1	167
365.173	1	160
365.344	1	178
365.515	1	172
365.686	1	156
365.857	1	163
366.028	1	183
366.199	1	154
366.370	1	166
366.540	1	169
366.711	1	144
366.882	1	162
367.053	1	164
367.224	1	168
367.395	1	181
367.566	1	180
367.737	1	182
367.908	1	194
368.078	1	159
368.249	1	180
368.420	1	156
368.591	1	168
368.762	1	181
368.933	1	173
369.104	1	160
369.274	1	177
369.445	1	168
369.616	1	170
369.787	1	191
369.958	1	184
370.129	1	170
370.300	1	189
370.471	1	180
370.641	1	155
370.812	1	178
370.983	1	171
371.154	1	156
371.325	1	184
371.496	1	179
371.667	1	177
371.837	1	155
372.008	1	178
372.179	1	172
372.350	1	188
372.521	1	187
372.692	1	184
372.863	1	186
373.033	1	173
373.204	1	179
373.375	1	179
373.546	1	175
373.717	1	175
373.888	1	187
374.059	1	177
374.229	1	189
374.400	1	186
374.571	1	184
374.742	1	190
374.913	1	187
375.084	1	183
375.254	1	200
375.425	1	198
375.596	1	187
375.767	1	188
375.938	1	188
376.109	1	196
376.279	1	183
376.450	1	195
376.621	1	187
376.792	1	181
376.963	1	212
377.134	1	198
377.304	1	202
377.475	1	195
377.646	1	196
377.817	1	198
377.988	1	193
378.159	1	203
378.329	1	197
378.500	1	197
378.671	1	202
378.842	1	204
379.013	1	178
379.184	1	200
379.354	1	200
379.525	1	193
379.696	1	209
379.867	1	211
380.038	1	208
380.209	1	203
380.379	1	194
380.550	1	197
380.721	1	204
380.892	1	209
381.063	1	214
381.233	1	204
381.404	1	199
381.575	1	204
381.746	1	208
381.917	1	216
382.087	1	208
382.258	1	207
382.429	1	212
382.600	1	193
382.771	1	205
382.941	1	215
383.112	1	218
383.283	1	212
383.454	1	209
383.625	1	223
383.795	1	217
383.966	1	214
384.137	1	220
384.308	1	214
384.479	1	213
384.649	1	224
384.820	1	225
384.991	1	219
385.162	1	227
385.333	1	225
385.503	1	209
385.674	1	207
385.845	1	230
386.016	1	219
386.187	1	216
386.357	1	229
386.528	1	206
386.699	1	229
386.870	1	235
387.041	1	231
387.211	1	240
387.382	1	248
387.553	1	232
387.724	1	224
387.894	1	248
388.065	1	220
388.236	1	244
388.407	1	236
388.578	1	232
388.748	1	231
388.919	1	242
389.090	1	229
389.261	1	221
389.431	1	235
389.602	1	237
389.773	1	236
389.944	1	225
390.114	1	229
390.285	1	218
390.456	1	238
390.627	1	244
390.798	1	237
390.968	1	233
391.139	1	244
391.310	1	225
391.481	1	235
391.651	1	236
391.822	1	229
391.993	1	238
392.164	1	214
392.334	1	221
392.505	1	222
392.676	1	246
392.847	1	231
393.017	1	242
393.188	1	238
393.359	1	226
393.530	1	222
393.700	1	228
393.871	1	232
394.042	1	233
394.213	1	231
394.383	1	239
394.554	1	237
394.725	1	240
394.896	1	247
395.066	1	243
395.237	1	236
395.408	1	222
395.579	1	229
395.749	1	259
395.920	1	243
396.091	1	240
396.262	1	241
396.432	1	229
396.603	1	249
396.774	1	257
396.945	1	245
397.115	1	243
397.286	1	250
397.457	1	241
397.627	1	250
397.798	1	249
397.969	1	255
398.140	1	229
398.310	1	250
398.481	1	264
398.652	1	253
398.823	1	242
398.993	1	234
399.164	1	260
399.335	1	252
399.505	1	253
399.676	1	242
399.847	1	247
400.018	1	250
400.188	1	256
400.359	1	245
400.530	1	252
400.700	1	249
400.871	1	245
401.042	1	239
401.213	1	244
401.383	1	251
401.554	1	259
401.725	1	264
401.895	1	255
402.066	1	253
402.237	1	247
402.408	1	235
402.578	1	253
402.749	1	252
402.920	1	251
403.090	1	241
403.261	1	230
403.432	1	254
403.603	1	245
403.773	1	250
403.944	1	258
404.115	1	252
404.285	1	256
404.456	1	248
404.627	1	246
404.797	1	254
404.968	1	257
405.139	1	251
405.310	1	271
405.480	1	256
405.651	1	252
405.822	1	252
405.992	1	248
406.163	1	244
406.334	1	238
406.504	1	248
406.675	1	261
406.846	1	267
407.016	1	252
407.187	1	268
407.358	1	245
407.528	1	261
407.699	1	264
407.870	1	246
408.041	1	261
408.211	1	268
408.382	1	259
408.553	1	247
408.723	1	267
408.894	1	273
409.065	1	270
409.235	1	260
409.406	1	267
409.577	1	254
409.747	1	267
409.918	1	256
410.089	1	278
410.259	1	274
410.430	1	263
410.601	1	262
410.771	1	252
410.942	1	273
411.113	1	266
411.283	1	250
411.454	1	270
411.625	1	255
411.795	1	264
411.966	1	268
412.137	1	263
412.307	1	254
412.478	1	249
412.649	1	263
412.819	1	252
412.990	1	253
413.161	1	240
413.331	1	256
413.502	1	252
413.672	1	247
413.843	1	249
414.014	1	247
414.184	1	249
414.355	1	254
414.526	1	247
414.696	1	257
414.867	1	257
415.038	1	246
415.208	1	254
415.379	1	254
415.550	1	245
415.720	1	258
415.891	1	244
416.062	1	248
416.232	1	242
416.403	1	241
416.573	1	253
416.744	1	234
416.915	1	258
417.085	1	253
417.256	1	242
417.427	1	245
417.597	1	246
417.768	1	244
417.939	1	247
418.109	1	242
418.280	1	254
418.450	1	250
418.621	1	223
418.792	1	255
418.962	1	248
419.133	1	256
419.304	1	241
419.474	1	241
419.645	1	247
419.815	1	253
419.986	1	252
420.157	1	242
420.327	1	250
420.498	1	236
420.669	1	243
420.839	1	241
421.010	1	252
421.180	1	231
421.351	1	243
421.522	1	248
421.692	1	237
421.863	1	243
422.033	1	243
422.204	1	258
422.375	1	222
422.545	1	249
422.716	1	233
422.886	1	235
423.057	1	229
423.228	1	242
423.398	1	228
423.569	1	237
423.740	1	220
423.910	1	218
424.081	1	231
424.251	1	234
424.422	1	229
424.593	1	226
424.763	1	227
424.934	1	234
425.104	1	225
425.275	1	230
425.445	1	228
425.616	1	234
425.787	1	230
425.957	1	228
426.128	1	242
426.298	1	224
426.469	1	218
426.640	1	221
426.810	1	213
426.981	1	225
427.151	1	220
427.322	1	233
427.493	1	222
427.663	1	236
427.834	1	219
428.004	1	231
428.175	1	223
428.345	1	227
428.516	1	219
428.687	1	218
428.857	1	207
429.028	1	217
429.198	1	223
429.369	1	220
429.540	1	225
429.710	1	218
429.881	1	229
430.051	1	222
430.222	1	219
430.392	1	211
430.563	1	226
430.734	1	224
430.904	1	224
431.075	1	231
431.245	1	210
431.416	1	231
431.586	1	223
431.757	1	230
431.927	1	224
432.098	1	218
432.269	1	214
432.439	1	219
432.610	1	210
432.780	1	221
432.951	1	228
433.121	1	225
433.292	1	233
433.462	1	225
433.633	1	229
433.804	1	213
433.974	1	216
434.145	1	235
434.315	1	211
434.486	1	215
434.656	1	225
434.827	1	216
434.997	1	204
435.168	1	222
435.339	1	220
435.509	1	220
435.680	1	223
435.850	1	213
436.021	1	215
436.191	1	210
436.362	1	212
436.532	1	221
436.703	1	202
436.873	1	203
437.044	1	198
437.214	1	207
437.385	1	209
437.556	1	190
437.726	1	215
437.897	1	214
438.067	1	208
438.238	1	199
438.408	1	207
438.579	1	214
438.749	1	213
438.920	1	195
439.090	1	201
439.261	1	188
439.431	1	195
439.602	1	206
439.772	1	199
439.943	1	202
440.113	1	200
440.284	1	186
440.455	1	189
440.625	1	192
440.796	1	202
440.966	1	189
441.137	1	189
441.307	1	176
441.478	1	209
441.648	1	192
441.819	1	205
441.989	1	195
442.160	1	198
442.330	1	189
442.501	1	195
442.671	1	192
442.842	1	181
443.012	1	175
443.183	1	189
443.353	1	176
443.524	1	201
443.694	1	200
443.865	1	186
444.035	1	193
444.206	1	185
444.376	1	178
444.547	1	202
444.717	1	193
444.888	1	186
445.058	1	192
445.229	1	196
445.399	1	188
445.570	1	193
445.740	1	174
445.911	1	195
446.081	1	181
446.252	1	204
446.422	1	181
446.593	1	177
446.763	1	182
446.934	1	197
447.104	1	171
447.275	1	180
447.445	1	187
447.616	1	189
447.786	1	185
447.957	1	198
448.127	1	177
448.298	1	189
448.468	1	183
448.639	1	192
448.809	1	176
448.979	1	179
449.150	1	186
449.320	1	169
449.491	1	189
449.661	1	180
449.832	1	175
450.002	1	183
450.173	1	178
450.343	1	182
450.514	1	164
450.684	1	173
450.855	1	154
451.025	1	172
451.196	1	154
451.366	1	165
451.537	1	167
451.707	1	153
451.878	1	168
452.048	1	173
452.218	1	179
452.389	1	184
452.559	1	157
452.730	1	177
452.900	1	169
453.071	1	161
453.241	1	160
453.412	1	153
453.582	1	171
453.753	1	163
453.923	1	154
454.093	1	165
454.264	1	168
454.434	1	146
454.605	1	147
454.775	1	155
454.946	1	158
455.116	1	147
455.287	1	152
455.457	1	147
455.628	1	156
455.798	1	166
455.968	1	149
456.139	1	139
456.309	1	156
456.480	1	156
456.650	1	147
456.821	1	142
456.991	1	149
457.161	1	153
457.332	1	156
457.502	1	131
457.673	1	144
457.843	1	160
458.014	1	144
458.184	1	146
458.355	1	142
458.525	1	157
458.695	1	149
458.866	1	141
459.036	1	148
459.207	1	150
459.377	1	143
459.548	1	144
459.718	1	142
459.888	1	152
460.059	1	142
460.229	1	156
460.400	1	146
460.570	1	152
460.740	1	141
460.911	1	146
461.081	1	140
461.252	1	125
461.422	1	143
461.593	1	127
461.763	1	138
461.933	1	148
462.104	1	133
462.274	1	149
462.445	1	145
462.615	1	131
462.785	1	143
462.956	1	134
463.126	1	141
463.297	1	131
463.467	1	132
463.638	1	147
463.808	1	135
463.978	1	134
464.149	1	144
464.319	1	132
464.490	1	152
464.660	1	138
464.830	1	127
465.001	1	127
465.171	1	137
465.342	1	133
465.512	1	141
465.682	1	137
465.853	1	133
466.023	1	125
466.194	1	124
466.364	1	133
466.534	1	132
466.705	1	123
466.875	1	136
467.045	1	126
467.216	1	140
467.386	1	120
467.557	1	131
467.727	1	105
467.897	1	120
468.068	1	111
468.238	1	131
468.409	1	126
468.579	1	131
468.749	1	131
468.920	1	104
469.090	1	129
469.260	1	116
469.431	1	113
469.601	1	124
469.772	1	119
469.942	1	114
470.112	1	110
470.283	1	126
470.453	1	118
470.623	1	105
470.794	1	115
470.964	1	116
471.135	1	119
471.305	1	103
471.475	1	124
471.646	1	108
471.816	1	112
471.986	1	113
472.157	1	128
472.327	1	109
472.497	1	130
472.668	1	110
472.838	1	116
473.009	1	111
473.179	1	102
473.349	1	104
473.520	1	131
473.690	1	117
473.860	1	110
474.031	1	109
474.201	1	115
474.371	1	117
474.542	1	111
474.712	1	118
474.882	1	115
475.053	1	127
475.223	1	113
475.394	1	120
475.564	1	122
475.734	1	107
475.905	1	126
476.075	1	115
476.245	1	126
476.416	1	114
476.586	1	113
476.756	1	102
476.927	1	117
477.097	1	112
477.267	1	100
477.438	1	115
477.608	1	112
477.778	1	102
477.949	1	116
478.119	1	117
478.289	1	119
478.460	1	115
478.630	1	115
478.800	1	102
478.971	1	104
479.141	1	103
479.311	1	106
479.482	1	114
479.652	1	108
479.822	1	96
479.993	1	116
480.163	1	121
480.333	1	106
480.504	1	114
480.674	1	112
480.844	1	91
481.015	1	115
481.185	1	98
481.355	1	101
481.525	1	103
481.696	1	107
481.866	1	100
482.036	1	104
482.207	1	105
482.377	1	101
482.547	1	122
482.718	1	99
482.888	1	97
483.058	1	105
483.229	1	96
483.399	1	100
483.569	1	98
483.740	1	106
483.910	1	105
484.080	1	95
484.250	1	94
484.421	1	100
484.591	1	111
484.761	1	106
484.932	1	106
485.102	1	108
485.272	1	95
485.443	1	110
485.613	1	88
485.783	1	91
485.953	1	100
486.124	1	98
486.294	1	85
486.464	1	87
486.635	1	90
486.805	1	98
486.975	1	89
487.146	1	90
487.316	1	86
487.486	1	84
487.656	1	86
487.827	1	102
487.997	1	85
488.167	1	96
488.338	1	93
488.508	1	93
488.678	1	88
488.848	1	96
489.019	1	81
489.189	1	88
489.359	1	85
489.529	1	92
489.700	1	94
489.870	1	88
490.040	1	88
490.211	1	90
490.381	1	93
490.551	1	80
490.721	1	96
490.892	1	90
491.062	1	86
491.232	1	83
491.402	1	85
491.573	1	66
491.743	1	81
491.913	1	84
492.084	1	80
492.254	1	76
492.424	1	81
492.594	1	91
492.765	1	93
492.935	1	76
493.105	1	81
493.275	1	88
493.446	1	88
493.616	1	88
493.786	1	85
493.956	1	86
494.127	1	76
494.297	1	81
494.467	1	78
494.637	1	76
494.808	1	75
494.978	1	78
495.148	1	77
495.318	1	79
495.489	1	92
495.659	1	94
495.829	1	64
495.999	1	76
496.170	1	76
496.340	1	87
496.510	1	82
496.680	1	68
496.851	1	81
497.021	1	76
497.191	1	64
497.361	1	80
497.532	1	85
497.702	1	73
497.872	1	78
498.042	1	82
498.213	1	76
498.383	1	79
498.553	1	80
498.723	1	64
498.894	1	83
499.064	1	76
499.234	1	82
499.404	1	68
499.574	1	78
499.745	1	80
499.915	1	73
500.085	1	71
500.255	1	72
500.426	1	71
500.596	1	74
500.766	1	70
500.936	1	68
501.106	1	67
501.277	1	71
501.447	1	59
501.617	1	67
501.787	1	72
501.958	1	64
502.128	1	64
502.298	1	62
502.468	1	68
502.638	1	63
502.809	1	63
502.979	1	60
503.149	1	59
503.319	1	52
503.489	1	58
503.660	1	65
503.830	1	68
504.000	1	70
504.170	1	70
504.340	1	70
504.511	1	68
504.681	1	65
504.851	1	60
505.021	1	71
505.192	1	55
505.362	1	71
505.532	1	56
505.702	1	64
505.872	1	73
506.043	1	61
506.213	1	65
506.383	1	63
506.553	1	83
506.723	1	62
506.893	1	79
507.064	1	71
507.234	1	52
507.404	1	71
507.574	1	69
507.744	1	69
507.915	1	63
508.085	1	67
508.255	1	64
508.425	1	50
508.595	1	69
508.766	1	78
508.936	1	56
509.106	1	76
509.276	1	60
509.446	1	55
509.616	1	55
509.787	1	58
509.957	1	59
510.127	1	66
510.297	1	63
510.467	1	52
510.638	1	62
510.808	1	55
510.978	1	51
511.148	1	60
511.318	1	69
511.488	1	49
511.659	1	59
511.829	1	50
511.999	1	54
512.169	1	59
512.339	1	55
512.509	1	49
512.680	1	56
512.850	1	66
513.020	1	64
513.190	1	71
513.360	1	57
513.530	1	54
513.700	1	61
513.871	1	46
514.041	1	59
514.211	1	61
514.381	1	50
514.551	1	54
514.721	1	57
514.892	1	58
515.062	1	52
515.232	1	55
515.402	1	55
515.572	1	53
515.742	1	52
515.912	1	66
516.083	1	56
516.253	1	58
516.423	1	45
516.593	1	47
516.763	1	63
516.933	1	49
517.104	1	56
517.274	1	40
517.444	1	62
517.614	1	46
517.784	1	61
517.954	1	48
518.124	1	54
518.294	1	47
518.465	1	46
518.635	1	51
518.805	1	35
518.975	1	52
519.145	1	47
519.315	1	56
519.485	1	50
519.656	1	53
519.826	1	47
519.996	1	41
520.166	1	49
520.336	1	60
520.506	1	54
520.676	1	49
520.846	1	49
521.017	1	53
521.187	1	47
521.357	1	47
521.527	1	39
521.697	1	44
521.867	1	44
522.037	1	47
522.207	1	44
522.377	1	49
522.548	1	42
522.718	1	59
522.888	1	64
523.058	1	46
523.228	1	44
523.398	1	53
523.568	1	51
523.738	1	44
523.909	1	51
524.079	1	46
524.249	1	43
524.419	1	46
524.589	1	38
524.759	1	30
524.929	1	39
525.099	1	48
525.269	1	51
525.439	1	46
525.610	1	57
525.780	1	46
525.950	1	48
526.120	1	39
526.290	1	43
526.460	1	40
526.630	1	48
526.800	1	42
526.970	1	55
527.140	1	51
527.311	1	36
527.481	1	37
527.651	1	59
527.821	1	34
527.991	1	56
528.161	1	48
528.331	1	41
528.501	1	46
528.671	1	43
528.841	1	44
529.011	1	35
529.181	1	44
529.352	1	39
529.522	1	43
529.692	1	45
529.862	1	49
530.032	1	45
530.202	1	42
530.372	1	39
530.542	1	47
530.712	1	35
530.882	1	48
531.052	1	47
531.222	1	42
531.392	1	40
531.563	1	46
531.733	1	48
531.903	1	47
532.073	1	48
532.243	1	43
532.413	1	44
532.583	1	35
532.753	1	47
532.923	1	42
533.093	1	40
533.263	1	40
533.433	1	43
533.603	1	42
533.773	1	39
533.943	1	36
534.113	1	36
534.284	1	28
534.454	1	44
534.624	1	43
534.794	1	44
534.964	1	42
535.134	1	42
535.304	1	44
535.474	1	56
535.644	1	31
535.814	1	29
535.984	1	36
536.154	1	24
536.324	1	37
536.494	1	42
536.664	1	50
536.834	1	44
537.004	1	38
537.174	1	58
537.344	1	36
537.514	1	33
537.685	1	40
537.855	1	49
538.025	1	41
538.195	1	36
538.365	1	46
538.535	1	37
538.705	1	37
538.875	1	39
539.045	1	50
539.215	1	39
539.385	1	39
539.555	1	39
539.725	1	28
539.895	1	34
540.065	1	52
540.235	1	57
540.405	1	36
540.575	1	36
540.745	1	41
540.915	1	49
541.085	1	45
541.255	1	33
541.425	1	38
541.595	1	35
541.765	1	41
541.935	1	37
542.105	1	35
542.275	1	30
542.445	1	21
542.615	1	33
542.785	1	44
542.955	1	36
543.125	1	28
543.295	1	38
543.465	1	41
543.635	1	37
543.805	1	47
543.975	1	40
544.145	1	36
544.315	1	37
544.485	1	45
544.655	1	37
544.825	1	20
544.995	1	23
545.165	1	26
545.335	1	38
545.505	1	20
545.675	1	33
545.845	1	34
546.015	1	31
546.185	1	46
546.355	1	33
546.525	1	26
546.695	1	33
546.865	1	27
547.035	1	31
547.205	1	21
547.375	1	41
547.545	1	31
547.715	1	43
547.885	1	30
548.055	1	26
548.225	1	36
548.395	1	17
548.565	1	27
548.735	1	38
548.905	1	23
549.075	1	33
549.245	1	28
549.415	1	21
549.585	1	28
549.755	1	39
549.925	1	18
550.095	1	26
550.265	1	19
550.435	1	29
550.605	1	22
550.775	1	20
550.945	1	36
551.115	1	31
551.285	1	25
551.455	1	34
551.625	1	30
551.795	1	41
551.965	1	26
552.135	1	20
552.305	1	23
552.475	1	16
552.645	1	30
552.815	1	36
552.985	1	28
553.155	1	31
553.325	1	32
553.495	1	22
553.665	1	20
553.835	1	20
554.004	1	27
554.174	1	22
554.344	1	26
554.514	1	18
554.684	1	35
554.854	1	31
555.024	1	20
555.194	1	29
555.364	1	22
555.534	1	28
555.704	1	24
555.874	1	42
556.044	1	27
556.214	1	23
556.384	1	26
556.554	1	31
556.724	1	21
556.894	1	14
557.064	1	27
557.234	1	20
557.404	1	25
557.573	1	27
557.743	1	22
557.913	1	20
558.083	1	18
558.253	1	33
558.423	1	24
558.593	1	26
558.763	1	11
558.933	1	16
559.103	1	26
559.273	1	29
559.443	1	30
559.613	1	23
559.783	1	12
559.953	1	25
560.122	1	36
560.292	1	32
560.462	1	28
560.632	1	34
560.802	1	29
560.972	1	25
561.142	1	35
561.312	1	15
561.482	1	24
561.652	1	34
561.822	1	18
561.992	1	13
562.162	1	29
562.331	1	20
562.501	1	17
562.671	1	30
562.841	1	14
563.011	1	28
563.181	1	19
563.351	1	18
563.521	1	26
563.691	1	13
563.861	1	16
564.031	1	23
564.201	1	35
564.370	1	27
564.540	1	21
564.710	1	12
564.880	1	32
565.050	1	24
565.220	1	16
565.390	1	29
565.560	1	31
565.730	1	9
565.900	1	23
566.069	1	29
566.239	1	25
566.409	1	31
566.579	1	28
566.749	1	15
566.919	1	33
567.089	1	22
567.259	1	31
567.429	1	22
567.599	1	9
567.768	1	22
567.938	1	26
568.108	1	25
568.278	1	15
568.448	1	20
568.618	1	14
568.788	1	22
568.958	1	18
569.128	1	27
569.297	1	17
569.467	1	16
569.637	1	24
569.807	1	15
569.977	1	25
570.147	1	27
570.317	1	16
570.487	1	22
570.656	1	28
570.826	1	10
570.996	1	22
571.166	1	27
571.336	1	23
571.506	1	27
571.676	1	19
571.846	1	23
572.015	1	26
572.185	1	19
572.355	1	28
572.525	1	18
572.695	1	14
572.865	1	5
573.035	1	23
573.205	1	19
573.374	1	11
573.544	1	24
573.714	1	19
573.884	1	28
574.054	1	23
574.224	1	22
574.394	1	16
574.563	1	21
574.733	1	21
574.903	1	13
575.073	1	17
575.243	1	25
575.413	1	20
575.583	1	10
575.752	1	33
575.922	1	18
576.092	1	22
576.262	1	21
576.432	1	14
576.602	1	10
576.772	1	28
576.941	1	24
577.111	1	17
577.281	1	9
577.451	1	22
577.621	1	24
577.791	1	23
577.960	1	14
578.130	1	22
578.300	1	24
578.470	1	26
578.640	1	19
578.810	1	27
578.979	1	24
579.149	1	18
579.319	1	14
579.489	1	21
579.659	1	15
579.829	1	18
579.998	1	27
580.168	1	28
580.338	1	19
580.508	1	21
580.678	1	22
580.848	1	16
581.017	1	12
581.187	1	17
581.357	1	15
581.527	1	21
581.697	1	21
581.867	1	23
582.036	1	19
582.206	1	23
582.376	1	24
582.546	1	12
582.716	1	15
582.885	1	8
583.055	1	17
583.225	1	5
583.395	1	20
583.565	1	13
583.735	1	30
583.904	1	18
584.074	1	19
584.244	1	14
584.414	1	17
584.584	1	28
584.753	1	10
584.923	1	23
585.093	1	23
585.263	1	18
585.433	1	24
585.602	1	21
585.772	1	19
585.942	1	11
586.112	1	15
586.282	1	6
586.451	1	9
586.621	1	19
586.791	1	19
586.961	1	17
587.131	1	25
587.300	1	16
587.470	1	29
587.640	1	21
587.810	1	12
587.980	1	20
588.149	1	23
588.319	1	13
588.489	1	20
588.659	1	23
588.829	1	24
588.998	1	20
589.168	1	20
589.338	1	23
589.508	1	23
589.677	1	17
589.847	1	10
590.017	1	24
590.187	1	8
590.357	1	34
590.526	1	29
590.696	1	18
590.866	1	28
591.036	1	16
591.205	1	25
591.375	1	17
591.545	1	13
591.715	1	22
591.885	1	16
592.054	1	21
592.224	1	19
592.394	1	18
592.564	1	11
592.733	1	18
592.903	1	18
593.073	1	21
593.243	1	28
593.412	1	20
593.582	1	20
593.752	1	18
593.922	1	18
594.091	1	15
594.261	1	13
594.431	1	19
594.601	1	23
594.771	1	17
594.940	1	19
595.110	1	19
595.280	1	21
595.450	1	29
595.619	1	24
595.789	1	22
595.959	1	28
596.129	1	10
596.298	1	18
596.468	1	29
596.638	1	23
596.808	1	19
596.977	1	18
597.147	1	15
597.317	1	12
597.487	1	20
597.656	1	17
597.826	1	14
597.996	1	19
598.166	1	14
598.335	1	18
598.505	1	25
598.675	1	26
598.844	1	21
599.014	1	19
599.184	1	24
599.354	1	7
599.523	1	23
599.693	1	20
599.863	1	25
600.033	1	16
600.202	1	9
600.372	1	19
600.542	1	37
600.712	1	20
600.881	1	12
601.051	1	30
601.221	1	12
601.390	1	12
601.560	1	21
601.730	1	31
601.900	1	23
602.069	1	27
602.239	1	21
602.409	1	9
602.578	1	15
602.748	1	18
602.918	1	25
603.088	1	18
603.257	1	19
603.427	1	10
603.597	1	22
603.767	1	23
603.936	1	28
604.106	1	16
604.276	1	24
604.445	1	24
604.615	1	20
604.785	1	14
604.954	1	20
605.124	1	24
605.294	1	12
605.464	1	22
605.633	1	23
605.803	1	30
605.973	1	9
606.142	1	15
606.312	1	22
606.482	1	17
606.652	1	28
606.821	1	16
606.991	1	13
607.161	1	19
607.330	1	19
607.500	1	26
607.670	1	7
607.839	1	21
608.009	1	24
608.179	1	18
608.348	1	21
608.518	1	25
608.688	1	31
608.858	1	21
609.027	1	17
609.197	1	18
609.367	1	18
609.536	1	33
609.706	1	20
609.876	1	16
610.045	1	26
610.215	1	17
610.385	1	23
610.554	1	25
610.724	1	30
610.894	1	28
611.063	1	26
611.233	1	14
611.403	1	16
611.572	1	20
611.742	1	19
611.912	1	25
612.081	1	20
612.251	1	32
612.421	1	20
612.590	1	24
612.760	1	14
612.930	1	29
613.099	1	22
613.269	1	29
613.439	1	16
613.608	1	19
613.778	1	34
613.948	1	27
614.117	1	26
614.287	1	30
614.457	1	19
614.626	1	23
614.796	1	25
614.966	1	21
615.135	1	15
615.305	1	29
615.475	1	30
615.644	1	20
615.814	1	25
615.984	1	24
616.153	1	27
616.323	1	28
616.493	1	19
616.662	1	32
616.832	1	20
617.002	1	13
617.171	1	27
617.341	1	21
617.511	1	23
617.680	1	20
617.850	1	25
618.019	1	29
618.189	1	30
618.359	1	30
618.528	1	20
618.698	1	32
618.868	1	25
619.037	1	27
619.207	1	31
619.377	1	25
619.546	1	23
619.716	1	23
619.885	1	24
620.055	1	14
620.225	1	20
620.394	1	14
620.564	1	35
620.734	1	31
620.903	1	17
621.073	1	20
621.242	1	29
621.412	1	20
621.582	1	24
621.751	1	31
621.921	1	34
622.091	1	27
622.260	1	23
622.430	1	40
622.599	1	26
622.769	1	23
622.939	1	36
623.108	1	24
623.278	1	9
623.448	1	26
623.617	1	22
623.787	1	27
623.956	1	28
624.126	1	20
624.296	1	24
624.465	1	30
624.635	1	30
624.804	1	20
624.974	1	22
625.144	1	40
625.313	1	14
625.483	1	20
625.652	1	30
625.822	1	17
625.992	1	21
626.161	1	39
626.331	1	20
626.501	1	32
626.670	1	33
626.840	1	20
627.009	1	34
627.179	1	32
627.348	1	29
627.518	1	32
627.688	1	35
627.857	1	33
628.027	1	34
628.196	1	38
628.366	1	37
628.536	1	33
628.705	1	24
628.875	1	28
629.044	1	24
629.214	1	26
629.384	1	35
629.553	1	41
629.723	1	27
629.892	1	38
630.062	1	35
630.232	1	35
630.401	1	35
630.571	1	38
630.740	1	28
630.910	1	37
631.079	1	35
631.249	1	29
631.419	1	40
631.588	1	25
631.758	1	30
631.927	1	25
632.097	1	39
632.266	1	29
632.436	1	28
632.606	1	32
632.775	1	38
632.945	1	23
633.114	1	39
633.284	1	45
633.453	1	27
633.623	1	31
633.793	1	29
633.962	1	27
634.132	1	27
634.301	1	28
634.471	1	31
634.640	1	45
634.810	1	30
634.979	1	37
635.149	1	50
635.319	1	32
635.488	1	37
635.658	1	27
635.827	1	31
635.997	1	28
636.166	1	34
636.336	1	33
636.505	1	51
636.675	1	34
636.845	1	37
637.014	1	41
637.184	1	46
637.353	1	37
637.523	1	44
637.692	1	41
637.862	1	38
638.031	1	43
638.201	1	39
638.370	1	36
638.540	1	34
638.710	1	32
638.879	1	37
639.049	1	36
639.218	1	38
639.388	1	33
639.557	1	25
639.727	1	34
639.896	1	36
640.066	1	35
640.235	1	35
640.405	1	37
640.574	1	35
640.744	1	22
640.914	1	34
641.083	1	43
641.253	1	23
641.422	1	33
641.592	1	37
641.761	1	31
641.931	1	35
642.100	1	47
642.270	1	37
642.439	1	38
642.609	1	46
642.778	1	37
642.948	1	40
643.117	1	47
643.287	1	50
643.456	1	33
643.626	1	52
643.795	1	32
643.965	1	44
644.134	1	33
644.304	1	33
644.473	1	39
644.643	1	37
644.812	1	43
644.982	1	46
645.151	1	38
645.321	1	25
645.490	1	47
645.660	1	27
645.829	1	41
645.999	1	43
646.168	1	50
646.338	1	47
646.507	1	41
646.677	1	37
646.846	1	46
647.016	1	39
647.185	1	46
647.355	1	24
647.524	1	43
647.694	1	53
647.863	1	42
648.033	1	41
648.202	1	48
648.372	1	43
648.541	1	34
648.711	1	40
648.880	1	40
649.050	1	36
649.219	1	42
649.389	1	39
649.558	1	49
649.728	1	43
649.897	1	43
650.067	1	37
650.236	1	38
650.406	1	44
650.575	1	50
650.745	1	44
650.914	1	36
651.084	1	31
651.253	1	49
651.423	1	44
651.592	1	45
651.762	1	33
651.931	1	44
652.101	1	44
652.270	1	47
652.440	1	57
652.609	1	32
652.778	1	37
652.948	1	48
653.117	1	51
653.287	1	40
653.456	1	43
653.626	1	41
653.795	1	36
653.965	1	41
654.134	1	47
654.304	1	31
654.473	1	59
654.643	1	54
654.812	1	38
654.982	1	44
655.151	1	48
655.320	1	37
655.490	1	38
655.659	1	48
655.829	1	42
655.998	1	37
656.168	1	41
656.337	1	47
656.507	1	48
656.676	1	47
656.846	1	50
657.015	1	50
657.184	1	47
657.354	1	43
657.523	1	37
657.693	1	53
657.862	1	42
658.032	1	44
658.201	1	50
658.371	1	55
658.540	1	39
658.709	1	51
658.879	1	45
659.048	1	51
659.218	1	43
659.387	1	52
659.557	1	42
659.726	1	50
659.895	1	46
660.065	1	37
660.234	1	47
660.404	1	52
660.573	1	40
660.743	1	54
660.912	1	47
661.081	1	53
661.251	1	40
661.420	1	61
661.590	1	50
661.759	1	42
661.929	1	53
662.098	1	55
662.267	1	49
662.437	1	52
662.606	1	52
662.776	1	51
662.945	1	54
663.115	1	47
663.284	1	43
663.453	1	49
663.623	1	53
663.792	1	47
663.962	1	47
664.131	1	56
664.300	1	60
664.470	1	46
664.639	1	44
664.809	1	39
664.978	1	52
665.148	1	51
665.317	1	46
665.486	1	60
665.656	1	53
665.825	1	57
665.995	1	42
666.164	1	50
666.333	1	48
666.503	1	42
666.672	1	38
666.842	1	51
667.011	1	50
667.180	1	47
667.350	1	45
667.519	1	52
667.689	1	50
667.858	1	58
668.027	1	52
668.197	1	41
668.366	1	49
668.536	1	48
668.705	1	64
668.874	1	50
669.044	1	50
669.213	1	58
669.382	1	41
669.552	1	53
669.721	1	49
669.891	1	56
670.060	1	49
670.229	1	52
670.399	1	41
670.568	1	57
670.738	1	58
670.907	1	39
671.076	1	49
671.246	1	48
671.415	1	52
671.584	1	54
671.754	1	51
671.923	1	46
672.093	1	52
672.262	1	41
672.431	1	51
672.601	1	49
672.770	1	39
672.939	1	61
673.109	1	56
673.278	1	58
673.448	1	59
673.617	1	41
673.786	1	51
