325.333	1	2
325.504	1	4
325.675	1	4
325.846	1	-2
326.017	1	6
326.188	1	9
326.359	1	8
326.531	1	-10
326.702	1	2
326.873	1	1
327.044	1	1
327.215	1	3
327.386	1	6
327.557	1	-8
327.728	1	9
327.899	1	13
328.070	1	6
328.241	1	11
328.412	1	-14
328.583	1	4
328.754	1	3
328.926	1	11
329.097	1	-3
329.268	1	11
329.439	1	5
329.610	1	4
329.781	1	-7
329.952	1	11
330.123	1	3
330.294	1	-4
330.465	1	2
330.636	1	11
330.807	1	-4
330.978	1	10
331.149	1	-7
331.320	1	6
331.492	1	0
331.663	1	3
331.834	1	7
332.005	1	1
332.176	1	14
332.347	1	8
332.518	1	-2
332.689	1	10
332.860	1	4
333.031	1	6
333.202	1	-4
333.373	1	-1
333.544	1	-7
333.715	1	15
333.886	1	-6
334.057	1	8
334.228	1	-6
334.399	1	3
334.570	1	13
334.741	1	0
334.912	1	15
335.084	1	15
335.255	1	1
335.426	1	-9
335.597	1	6
335.768	1	1
335.939	1	12
336.110	1	-6
336.281	1	3
336.452	1	-6
336.623	1	6
336.794	1	8
336.965	1	-1
337.136	1	4
337.307	1	-5
337.478	1	-7
337.649	1	7
337.820	1	-5
337.991	1	7
338.162	1	6
338.333	1	0
338.504	1	2
338.675	1	1
338.846	1	5
339.017	1	2
339.188	1	2
339.359	1	-2
339.530	1	0
339.701	1	5
339.872	1	22
340.043	1	2
340.214	1	5
340.385	1	9
340.556	1	-7
340.727	1	-4
340.898	1	1
341.069	1	7
341.240	1	-6
341.411	1	4
341.582	1	7
341.753	1	4
341.924	1	5
342.095	1	0
342.266	1	4
342.437	1	18
342.608	1	5
342.779	1	5
342.950	1	10
343.121	1	10
343.292	1	-1
343.463	1	7
343.634	1	9
343.805	1	11
343.976	1	9
344.147	1	0
344.318	1	-1
344.489	1	3
344.660	1	11
344.831	1	3
345.002	1	-4
345.173	1	7
345.344	1	10
345.515	1	7
345.686	1	-1
345.857	1	1
346.028	1	11
346.199	1	-10
346.370	1	3
346.541	1	9
346.712	1	3
346.883	1	4
347.054	1	2
347.225	1	5
347.396	1	3
347.567	1	1
347.738	1	-7
347.909	1	15
348.080	1	-6
348.251	1	18
348.422	1	8
348.593	1	7
348.764	1	6
348.935	1	2
349.106	1	-6
349.277	1	2
349.448	1	14
349.619	1	10
349.790	1	0
349.961	1	8
350.132	1	6
350.303	1	10
350.474	1	18
350.645	1	12
350.816	1	9
350.987	1	6
351.157	1	2
351.328	1	12
351.499	1	10
351.670	1	-15
351.841	1	11
352.012	1	12
352.183	1	18
352.354	1	7
352.525	1	14
352.696	1	7
352.867	1	8
353.038	1	10
353.209	1	9
353.380	1	0
353.551	1	-3
353.722	1	7
353.893	1	4
354.064	1	16
354.235	1	10
354.406	1	0
354.576	1	1
354.747	1	7
354.918	1	1
355.089	1	2
355.260	1	20
355.431	1	12
355.602	1	2
355.773	1	13
355.944	1	9
356.115	1	9
356.286	1	6
356.457	1	7
356.628	1	12
356.799	1	7
356.970	1	12
357.141	1	6
357.311	1	-2
357.482	1	-4
357.653	1	6
357.824	1	14
357.995	1	5
358.166	1	-3
358.337	1	8
358.508	1	12
358.679	1	11
358.850	1	0
359.021	1	-2
359.192	1	20
359.363	1	8
359.533	1	7
359.704	1	2
359.875	1	7
360.046	1	11
360.217	1	-1
360.388	1	9
360.559	1	3
360.730	1	9
360.901	1	9
361.072	1	19
361.243	1	13
361.414	1	5
361.584	1	0
361.755	1	7
361.926	1	2
362.097	1	8
362.268	1	8
362.439	1	-6
362.610	1	16
362.781	1	-4
362.952	1	9
363.123	1	6
363.293	1	4
363.464	1	10
363.635	1	9
363.806	1	8
363.977	1	10
364.148	1	6
364.319	1	9
364.490	1	9
364.661	1	9
364.832	1	23
365.002	1	10
365.173	1	5
365.344	1	17
365.515	1	9
365.686	1	0
365.857	1	18
366.028	1	14
366.199	1	9
366.370	1	8
366.540	1	-4
366.711	1	-4
366.882	1	1
367.053	1	2
367.224	1	16
367.395	1	6
367.566	1	7
367.737	1	17
367.908	1	23
368.078	1	4
368.249	1	12
368.420	1	-8
368.591	1	0
368.762	1	9
368.933	1	4
369.104	1	-5
369.274	1	6
369.445	1	12
369.616	1	5
369.787	1	9
369.958	1	16
370.129	1	-9
370.300	1	25
370.471	1	3
370.641	1	14
370.812	1	14
370.983	1	3
371.154	1	8
371.325	1	5
371.496	1	4
371.667	1	18
371.837	1	7
372.008	1	7
372.179	1	4
372.350	1	15
372.521	1	5
372.692	1	3
372.863	1	15
373.033	1	-2
373.204	1	0
373.375	1	8
373.546	1	4
373.717	1	9
373.888	1	11
374.059	1	19
374.229	1	18
374.400	1	4
374.571	1	-8
374.742	1	14
374.913	1	15
375.084	1	6
375.254	1	7
375.425	1	11
375.596	1	12
375.767	1	3
375.938	1	9
376.109	1	10
376.279	1	11
376.450	1	16
376.621	1	6
376.792	1	4
376.963	1	6
377.134	1	18
377.304	1	16
377.475	1	8
377.646	1	7
377.817	1	-3
377.988	1	11
378.159	1	10
378.329	1	15
378.500	1	0
378.671	1	12
378.842	1	6
379.013	1	3
379.184	1	12
379.354	1	9
379.525	1	5
379.696	1	21
379.867	1	17
380.038	1	7
380.209	1	5
380.379	1	8
380.550	1	5
380.721	1	19
380.892	1	7
381.063	1	11
381.233	1	15
381.404	1	7
381.575	1	23
381.746	1	15
381.917	1	5
382.087	1	12
382.258	1	0
382.429	1	19
382.600	1	16
382.771	1	5
382.941	1	4
383.112	1	14
383.283	1	14
383.454	1	5
383.625	1	4
383.795	1	1
383.966	1	7
384.137	1	14
384.308	1	11
384.479	1	16
384.649	1	15
384.820	1	12
384.991	1	5
385.162	1	13
385.333	1	6
385.503	1	13
385.674	1	3
385.845	1	22
386.016	1	18
386.187	1	5
386.357	1	13
386.528	1	19
386.699	1	7
386.870	1	20
387.041	1	26
387.211	1	4
387.382	1	17
387.553	1	13
387.724	1	10
387.894	1	17
388.065	1	11
388.236	1	23
388.407	1	16
388.578	1	12
388.748	1	9
388.919	1	10
389.090	1	13
389.261	1	5
389.431	1	15
389.602	1	15
389.773	1	17
389.944	1	4
390.114	1	14
390.285	1	12
390.456	1	10
390.627	1	2
390.798	1	14
390.968	1	12
391.139	1	17
391.310	1	7
391.481	1	11
391.651	1	19
391.822	1	4
391.993	1	7
392.164	1	-2
392.334	1	11
392.505	1	3
392.676	1	20
392.847	1	17
393.017	1	17
393.188	1	21
393.359	1	2
393.530	1	24
393.700	1	4
393.871	1	9
394.042	1	11
394.213	1	8
394.383	1	10
394.554	1	14
394.725	1	14
394.896	1	2
395.066	1	18
395.237	1	12
395.408	1	8
395.579	1	11
395.749	1	16
395.920	1	8
396.091	1	9
396.262	1	14
396.432	1	5
396.603	1	22
396.774	1	30
396.945	1	14
397.115	1	12
397.286	1	4
397.457	1	9
397.627	1	6
397.798	1	14
397.969	1	16
398.140	1	15
398.310	1	13
398.481	1	15
398.652	1	10
398.823	1	5
398.993	1	8
399.164	1	11
399.335	1	18
399.505	1	8
399.676	1	10
399.847	1	16
400.018	1	20
400.188	1	7
400.359	1	14
400.530	1	4
400.700	1	13
400.871	1	15
401.042	1	6
401.213	1	13
401.383	1	17
401.554	1	14
401.725	1	15
401.895	1	8
402.066	1	18
402.237	1	15
402.408	1	11
402.578	1	18
402.749	1	16
402.920	1	23
403.090	1	9
403.261	1	12
403.432	1	8
403.603	1	9
403.773	1	15
403.944	1	12
404.115	1	13
404.285	1	22
404.456	1	16
404.627	1	14
404.797	1	5
404.968	1	9
405.139	1	10
405.310	1	18
405.480	1	22
405.651	1	8
405.822	1	2
405.992	1	0
406.163	1	8
406.334	1	10
406.504	1	18
406.675	1	19
406.846	1	19
407.016	1	21
407.187	1	19
407.358	1	9
407.528	1	13
407.699	1	15
407.870	1	4
408.041	1	10
408.211	1	28
408.382	1	8
408.553	1	2
408.723	1	15
408.894	1	9
409.065	1	16
409.235	1	7
409.406	1	8
409.577	1	8
409.747	1	12
409.918	1	16
410.089	1	12
410.259	1	15
410.430	1	14
410.601	1	8
410.771	1	14
410.942	1	30
411.113	1	19
411.283	1	1
411.454	1	17
411.625	1	15
411.795	1	12
411.966	1	12
412.137	1	5
412.307	1	1
412.478	1	19
412.649	1	13
412.819	1	3
412.990	1	13
413.161	1	14
413.331	1	5
413.502	1	21
413.672	1	14
413.843	1	8
414.014	1	15
414.184	1	18
414.355	1	8
414.526	1	21
414.696	1	19
414.867	1	8
415.038	1	7
415.208	1	8
415.379	1	28
415.550	1	22
415.720	1	9
415.891	1	14
416.062	1	16
416.232	1	5
416.403	1	17
416.573	1	20
416.744	1	4
416.915	1	23
417.085	1	11
417.256	1	12
417.427	1	11
417.597	1	13
417.768	1	0
417.939	1	17
418.109	1	15
418.280	1	16
418.450	1	13
418.621	1	-5
418.792	1	10
418.962	1	14
419.133	1	27
419.304	1	11
419.474	1	-2
419.645	1	16
419.815	1	7
419.986	1	23
420.157	1	19
420.327	1	15
420.498	1	22
420.669	1	15
420.839	1	15
421.010	1	23
421.180	1	14
421.351	1	3
421.522	1	19
421.692	1	16
421.863	1	14
422.033	1	20
422.204	1	12
422.375	1	11
422.545	1	13
422.716	1	11
422.886	1	19
423.057	1	24
423.228	1	24
423.398	1	13
423.569	1	20
423.740	1	5
423.910	1	7
424.081	1	10
424.251	1	3
424.422	1	17
424.593	1	16
424.763	1	24
424.934	1	12
425.104	1	17
425.275	1	2
425.445	1	11
425.616	1	17
425.787	1	12
425.957	1	11
426.128	1	10
426.298	1	12
426.469	1	5
426.640	1	23
426.810	1	10
426.981	1	11
427.151	1	4
427.322	1	18
427.493	1	15
427.663	1	20
427.834	1	12
428.004	1	15
428.175	1	12
428.345	1	14
428.516	1	4
428.687	1	13
428.857	1	-1
429.028	1	0
429.198	1	20
429.369	1	17
429.540	1	23
429.710	1	1
429.881	1	9
430.051	1	16
430.222	1	5
430.392	1	13
430.563	1	22
430.734	1	25
430.904	1	12
431.075	1	12
431.245	1	1
431.416	1	20
431.586	1	9
431.757	1	13
431.927	1	14
432.098	1	16
432.269	1	11
432.439	1	16
432.610	1	15
432.780	1	28
432.951	1	8
433.121	1	25
433.292	1	15
433.462	1	13
433.633	1	22
433.804	1	15
433.974	1	10
434.145	1	27
434.315	1	8
434.486	1	10
434.656	1	27
434.827	1	4
434.997	1	7
435.168	1	15
435.339	1	6
435.509	1	9
435.680	1	8
435.850	1	15
436.021	1	13
436.191	1	16
436.362	1	16
436.532	1	12
436.703	1	19
436.873	1	25
437.044	1	0
437.214	1	11
437.385	1	7
437.556	1	6
437.726	1	22
437.897	1	19
438.067	1	12
438.238	1	16
438.408	1	18
438.579	1	8
438.749	1	10
438.920	1	-2
439.090	1	16
439.261	1	8
439.431	1	8
439.602	1	15
439.772	1	11
439.943	1	20
440.113	1	18
440.284	1	7
440.455	1	13
440.625	1	5
440.796	1	-1
440.966	1	7
441.137	1	4
441.307	1	8
441.478	1	18
441.648	1	7
441.819	1	8
441.989	1	15
442.160	1	22
442.330	1	22
442.501	1	14
442.671	1	10
442.842	1	0
443.012	1	5
443.183	1	15
443.353	1	-1
443.524	1	12
443.694	1	24
443.865	1	8
444.035	1	16
444.206	1	9
444.376	1	6
444.547	1	16
444.717	1	13
444.888	1	-1
445.058	1	16
445.229	1	5
445.399	1	11
445.570	1	10
445.740	1	6
445.911	1	11
446.081	1	1
446.252	1	23
446.422	1	-3
446.593	1	2
446.763	1	5
446.934	1	16
447.104	1	12
447.275	1	12
447.445	1	20
447.616	1	18
447.786	1	5
447.957	1	12
448.127	1	7
448.298	1	18
448.468	1	8
448.639	1	7
448.809	1	15
448.979	1	7
449.150	1	21
449.320	1	10
449.491	1	11
449.661	1	1
449.832	1	7
450.002	1	19
450.173	1	9
450.343	1	10
450.514	1	7
450.684	1	3
450.855	1	8
451.025	1	7
451.196	1	19
451.366	1	19
451.537	1	6
451.707	1	-1
451.878	1	3
452.048	1	16
452.218	1	19
452.389	1	12
452.559	1	9
452.730	1	28
452.900	1	16
453.071	1	2
453.241	1	9
453.412	1	-6
453.582	1	5
453.753	1	12
453.923	1	18
454.093	1	15
454.264	1	23
454.434	1	5
454.605	1	14
454.775	1	6
454.946	1	5
455.116	1	7
455.287	1	-1
455.457	1	-2
455.628	1	9
455.798	1	25
455.968	1	13
456.139	1	14
456.309	1	9
456.480	1	8
456.650	1	3
456.821	1	6
456.991	1	5
457.161	1	12
457.332	1	13
457.502	1	6
457.673	1	18
457.843	1	9
458.014	1	10
458.184	1	3
458.355	1	8
458.525	1	11
458.695	1	3
458.866	1	14
459.036	1	14
459.207	1	9
459.377	1	0
459.548	1	22
459.718	1	9
459.888	1	9
460.059	1	10
460.229	1	13
460.400	1	9
460.570	1	5
460.740	1	2
460.911	1	15
461.081	1	11
461.252	1	8
461.422	1	8
461.593	1	7
461.763	1	7
461.933	1	20
462.104	1	4
462.274	1	10
462.445	1	11
462.615	1	8
462.785	1	7
462.956	1	15
463.126	1	15
463.297	1	7
463.467	1	6
463.638	1	0
463.808	1	-3
463.978	1	3
464.149	1	15
464.319	1	6
464.490	1	25
464.660	1	7
464.830	1	2
465.001	1	3
465.171	1	14
465.342	1	10
465.512	1	4
465.682	1	3
465.853	1	13
466.023	1	7
466.194	1	1
466.364	1	3
466.534	1	13
466.705	1	14
466.875	1	5
467.045	1	1
467.216	1	19
467.386	1	0
467.557	1	2
467.727	1	-2
467.897	1	6
468.068	1	11
468.238	1	6
468.409	1	6
468.579	1	11
468.749	1	3
468.920	1	-3
469.090	1	8
469.260	1	6
469.431	1	-1
469.601	1	18
469.772	1	0
469.942	1	-3
470.112	1	16
470.283	1	7
470.453	1	5
470.623	1	4
470.794	1	1
470.964	1	6
471.135	1	14
471.305	1	-2
471.475	1	15
471.646	1	0
471.816	1	5
471.986	1	6
472.157	1	19
472.327	1	-4
472.497	1	-1
472.668	1	-1
472.838	1	7
473.009	1	12
473.179	1	0
473.349	1	8
473.520	1	21
473.690	1	4
473.860	1	6
474.031	1	11
474.201	1	4
474.371	1	14
474.542	1	15
474.712	1	11
474.882	1	11
475.053	1	12
475.223	1	0
475.394	1	10
475.564	1	8
475.734	1	7
475.905	1	22
476.075	1	-2
476.245	1	10
476.416	1	11
476.586	1	11
476.756	1	3
476.927	1	10
477.097	1	14
477.267	1	10
477.438	1	6
477.608	1	6
477.778	1	2
477.949	1	10
478.119	1	18
478.289	1	13
478.460	1	19
478.630	1	2
478.800	1	12
478.971	1	12
479.141	1	5
479.311	1	0
479.482	1	1
479.652	1	-7
479.822	1	3
479.993	1	18
480.163	1	4
480.333	1	4
480.504	1	15
480.674	1	4
480.844	1	0
481.015	1	9
481.185	1	2
481.355	1	9
481.525	1	1
481.696	1	7
481.866	1	2
482.036	1	1
482.207	1	-3
482.377	1	10
482.547	1	16
482.718	1	8
482.888	1	12
483.058	1	2
483.229	1	3
483.399	1	1
483.569	1	-2
483.740	1	14
483.910	1	10
484.080	1	6
484.250	1	7
484.421	1	7
484.591	1	5
484.761	1	13
484.932	1	7
485.102	1	16
485.272	1	10
485.443	1	18
485.613	1	3
485.783	1	3
485.953	1	2
486.124	1	7
486.294	1	7
486.464	1	-3
486.635	1	13
486.805	1	10
486.975	1	-4
487.146	1	6
487.316	1	6
487.486	1	19
487.656	1	5
487.827	1	8
487.997	1	-11
488.167	1	-3
488.338	1	15
488.508	1	2
488.678	1	2
488.848	1	17
489.019	1	6
489.189	1	12
489.359	1	4
489.529	1	5
489.700	1	3
489.870	1	10
490.040	1	-1
490.211	1	3
490.381	1	13
490.551	1	2
490.721	1	20
490.892	1	7
491.062	1	4
491.232	1	4
491.402	1	3
491.573	1	3
491.743	1	-3
491.913	1	5
492.084	1	6
492.254	1	-1
492.424	1	-1
492.594	1	0
492.765	1	-5
492.935	1	4
493.105	1	12
493.275	1	9
493.446	1	9
493.616	1	5
493.786	1	3
493.956	1	5
494.127	1	4
494.297	1	-4
494.467	1	9
494.637	1	3
494.808	1	1
494.978	1	-1
495.148	1	0
495.318	1	4
495.489	1	8
495.659	1	8
495.829	1	11
495.999	1	-5
496.170	1	2
496.340	1	13
496.510	1	18
496.680	1	1
496.851	1	3
497.021	1	-1
497.191	1	-5
497.361	1	2
497.532	1	3
497.702	1	5
497.872	1	9
498.042	1	18
498.213	1	7
498.383	1	6
498.553	1	3
498.723	1	7
498.894	1	2
499.064	1	4
499.234	1	2
499.404	1	8
499.574	1	15
499.745	1	6
499.915	1	9
500.085	1	1
500.255	1	10
500.426	1	14
500.596	1	8
500.766	1	2
500.936	1	7
501.106	1	-1
501.277	1	6
501.447	1	8
501.617	1	7
501.787	1	3
501.958	1	-8
502.128	1	8
502.298	1	9
502.468	1	5
502.638	1	10
502.809	1	12
502.979	1	-2
503.149	1	-5
503.319	1	-5
503.489	1	-2
503.660	1	7
503.830	1	16
504.000	1	13
504.170	1	-2
504.340	1	-10
504.511	1	8
504.681	1	3
504.851	1	8
505.021	1	6
505.192	1	-1
505.362	1	6
505.532	1	-1
505.702	1	7
505.872	1	8
506.043	1	5
506.213	1	-5
506.383	1	7
506.553	1	8
506.723	1	2
506.893	1	3
507.064	1	6
507.234	1	5
507.404	1	-9
507.574	1	7
507.744	1	4
507.915	1	10
508.085	1	21
508.255	1	7
508.425	1	0
508.595	1	12
508.766	1	10
508.936	1	-8
509.106	1	5
509.276	1	7
509.446	1	-5
509.616	1	6
509.787	1	9
509.957	1	6
510.127	1	6
510.297	1	-1
510.467	1	-4
510.638	1	-1
510.808	1	1
510.978	1	-2
511.148	1	10
511.318	1	4
511.488	1	-3
511.659	1	3
511.829	1	-1
511.999	1	5
512.169	1	0
512.339	1	4
512.509	1	1
512.680	1	4
512.850	1	11
513.020	1	5
513.190	1	10
513.360	1	-6
513.530	1	8
513.700	1	9
513.871	1	0
514.041	1	9
514.211	1	6
514.381	1	11
514.551	1	8
514.721	1	4
514.892	1	2
515.062	1	1
515.232	1	5
515.402	1	-5
515.572	1	-6
515.742	1	5
515.912	1	10
516.083	1	9
516.253	1	8
516.423	1	7
516.593	1	2
516.763	1	7
516.933	1	-10
517.104	1	7
517.274	1	5
517.444	1	-1
517.614	1	-11
517.784	1	9
517.954	1	7
518.124	1	2
518.294	1	3
518.465	1	0
518.635	1	6
518.805	1	-10
518.975	1	3
519.145	1	0
519.315	1	1
519.485	1	-2
519.656	1	10
519.826	1	-1
519.996	1	-2
520.166	1	-1
520.336	1	14
520.506	1	-1
520.676	1	-1
520.846	1	8
521.017	1	6
521.187	1	-6
521.357	1	13
521.527	1	-3
521.697	1	7
521.867	1	-4
522.037	1	11
522.207	1	11
522.377	1	8
522.548	1	6
522.718	1	0
522.888	1	16
523.058	1	0
523.228	1	8
523.398	1	4
523.568	1	8
523.738	1	1
523.909	1	10
524.079	1	-1
524.249	1	4
524.419	1	6
524.589	1	10
524.759	1	-5
524.929	1	1
525.099	1	1
525.269	1	16
525.439	1	2
525.610	1	19
525.780	1	4
525.950	1	7
526.120	1	-13
526.290	1	5
526.460	1	-7
526.630	1	8
526.800	1	4
526.970	1	-2
527.140	1	10
527.311	1	-1
527.481	1	0
527.651	1	3
527.821	1	-4
527.991	1	9
528.161	1	11
528.331	1	5
528.501	1	0
528.671	1	-4
528.841	1	0
529.011	1	0
529.181	1	10
529.352	1	5
529.522	1	4
529.692	1	6
529.862	1	3
530.032	1	3
530.202	1	3
530.372	1	3
530.542	1	3
530.712	1	4
530.882	1	10
531.052	1	11
531.222	1	-1
531.392	1	6
531.563	1	5
531.733	1	9
531.903	1	8
532.073	1	7
532.243	1	-2
532.413	1	6
532.583	1	-2
532.753	1	2
532.923	1	-8
533.093	1	2
533.263	1	-1
533.433	1	11
533.603	1	7
533.773	1	6
533.943	1	1
534.113	1	0
534.284	1	-4
534.454	1	5
534.624	1	11
534.794	1	-5
534.964	1	12
535.134	1	-2
535.304	1	12
535.474	1	4
535.644	1	-1
535.814	1	-10
535.984	1	3
536.154	1	-7
536.324	1	-6
536.494	1	5
536.664	1	11
536.834	1	-7
537.004	1	0
537.174	1	22
537.344	1	-1
537.514	1	-3
537.685	1	0
537.855	1	3
538.025	1	2
538.195	1	9
538.365	1	11
538.535	1	1
538.705	1	-3
538.875	1	6
539.045	1	3
539.215	1	7
539.385	1	2
539.555	1	6
539.725	1	4
539.895	1	1
540.065	1	6
540.235	1	7
540.405	1	1
540.575	1	7
540.745	1	-1
540.915	1	6
541.085	1	4
541.255	1	-6
541.425	1	13
541.595	1	-9
541.765	1	-2
541.935	1	2
542.105	1	3
542.275	1	0
542.445	1	-3
542.615	1	6
542.785	1	5
542.955	1	0
543.125	1	-10
543.295	1	8
543.465	1	4
543.635	1	2
543.805	1	16
543.975	1	0
544.145	1	9
544.315	1	0
544.485	1	8
544.655	1	-1
544.825	1	-9
544.995	1	0
545.165	1	-9
545.335	1	3
545.505	1	-1
545.675	1	6
545.845	1	8
546.015	1	8
546.185	1	8
546.355	1	2
546.525	1	6
546.695	1	-1
546.865	1	-2
547.035	1	4
547.205	1	-3
547.375	1	7
547.545	1	4
547.715	1	-9
547.885	1	-4
548.055	1	2
548.225	1	8
548.395	1	3
548.565	1	2
548.735	1	5
548.905	1	-2
549.075	1	13
549.245	1	4
549.415	1	-3
549.585	1	5
549.755	1	8
549.925	1	-6
550.095	1	4
550.265	1	0
550.435	1	-4
550.605	1	-1
550.775	1	2
550.945	1	9
551.115	1	5
551.285	1	-1
551.455	1	-1
551.625	1	9
551.795	1	2
551.965	1	-7
552.135	1	-1
552.305	1	5
552.475	1	-6
552.645	1	-10
552.815	1	-6
552.985	1	5
553.155	1	-4
553.325	1	-4
553.495	1	4
553.665	1	3
553.835	1	-1
554.004	1	8
554.174	1	-8
554.344	1	4
554.514	1	-16
554.684	1	11
554.854	1	8
555.024	1	1
555.194	1	-7
555.364	1	4
555.534	1	4
555.704	1	3
555.874	1	10
556.044	1	-5
556.214	1	-1
556.384	1	1
556.554	1	16
556.724	1	1
556.894	1	-2
557.064	1	8
557.234	1	7
557.404	1	13
557.573	1	2
557.743	1	-7
557.913	1	-6
558.083	1	-5
558.253	1	5
558.423	1	-7
558.593	1	14
558.763	1	5
558.933	1	-7
559.103	1	6
559.273	1	2
559.443	1	-3
559.613	1	0
559.783	1	-2
559.953	1	-1
560.122	1	10
560.292	1	6
560.462	1	12
560.632	1	4
560.802	1	-9
560.972	1	2
561.142	1	5
561.312	1	-4
561.482	1	6
561.652	1	9
561.822	1	-2
561.992	1	5
562.162	1	2
562.331	1	4
562.501	1	0
562.671	1	6
562.841	1	-11
563.011	1	4
563.181	1	1
563.351	1	-6
563.521	1	6
563.691	1	-3
563.861	1	8
564.031	1	6
564.201	1	15
564.370	1	-6
564.540	1	9
564.710	1	-5
564.880	1	8
565.050	1	10
565.220	1	-10
565.390	1	2
565.560	1	0
565.730	1	-7
565.900	1	-6
566.069	1	-1
566.239	1	4
566.409	1	4
566.579	1	7
566.749	1	1
566.919	1	6
567.089	1	0
567.259	1	9
567.429	1	5
567.599	1	-3
567.768	1	-3
567.938	1	0
568.108	1	3
568.278	1	3
568.448	1	3
568.618	1	6
568.788	1	0
568.958	1	0
569.128	1	-3
569.297	1	1
569.467	1	-6
569.637	1	12
569.807	1	-4
569.977	1	-1
570.147	1	7
570.317	1	-1
570.487	1	9
570.656	1	4
570.826	1	-8
570.996	1	-6
571.166	1	6
571.336	1	-5
571.506	1	1
571.676	1	8
571.846	1	19
572.015	1	2
572.185	1	4
572.355	1	2
572.525	1	5
572.695	1	3
572.865	1	-2
573.035	1	-2
573.205	1	13
573.374	1	3
573.544	1	2
573.714	1	7
573.884	1	1
574.054	1	5
574.224	1	8
574.394	1	0
574.563	1	-3
574.733	1	-3
574.903	1	3
575.073	1	2
575.243	1	2
575.413	1	5
575.583	1	2
575.752	1	13
575.922	1	5
576.092	1	-3
576.262	1	3
576.432	1	7
576.602	1	-3
576.772	1	12
576.941	1	2
577.111	1	4
577.281	1	-6
577.451	1	-11
577.621	1	1
577.791	1	6
577.960	1	-8
578.130	1	-1
578.300	1	13
578.470	1	3
578.640	1	-3
578.810	1	-7
578.979	1	1
579.149	1	-5
579.319	1	-11
579.489	1	3
579.659	1	-3
579.829	1	-2
579.998	1	4
580.168	1	11
580.338	1	5
580.508	1	-3
580.678	1	-3
580.848	1	4
581.017	1	0
581.187	1	-4
581.357	1	-5
581.527	1	7
581.697	1	8
581.867	1	5
582.036	1	-5
582.206	1	11
582.376	1	11
582.546	1	-4
582.716	1	-5
582.885	1	-7
583.055	1	1
583.225	1	-10
583.395	1	10
583.565	1	-2
583.735	1	13
583.904	1	4
584.074	1	11
584.244	1	1
584.414	1	0
584.584	1	10
584.753	1	-4
584.923	1	7
585.093	1	3
585.263	1	11
585.433	1	13
585.602	1	-3
585.772	1	-9
585.942	1	-3
586.112	1	2
586.282	1	-2
586.451	1	6
586.621	1	-13
586.791	1	-6
586.961	1	12
587.131	1	-4
587.300	1	5
587.470	1	-1
587.640	1	14
587.810	1	-14
587.980	1	1
588.149	1	-6
588.319	1	3
588.489	1	0
588.659	1	-5
588.829	1	4
588.998	1	9
589.168	1	2
589.338	1	2
589.508	1	-2
589.677	1	-4
589.847	1	-14
590.017	1	14
590.187	1	-5
590.357	1	6
590.526	1	17
590.696	1	5
590.866	1	8
591.036	1	-2
591.205	1	13
591.375	1	4
591.545	1	7
591.715	1	9
591.885	1	-6
592.054	1	5
592.224	1	-8
592.394	1	-8
592.564	1	-3
592.733	1	9
592.903	1	0
593.073	1	-3
593.243	1	13
593.412	1	4
593.582	1	-3
593.752	1	-5
593.922	1	2
594.091	1	4
594.261	1	-1
594.431	1	3
594.601	1	-4
594.771	1	8
594.940	1	2
595.110	1	-5
595.280	1	5
595.450	1	-1
595.619	1	-3
595.789	1	-6
595.959	1	9
596.129	1	1
596.298	1	-2
596.468	1	3
596.638	1	9
596.808	1	0
596.977	1	-2
597.147	1	2
597.317	1	-2
597.487	1	3
597.656	1	3
597.826	1	4
597.996	1	11
598.166	1	0
598.335	1	-4
598.505	1	0
598.675	1	2
598.844	1	-2
599.014	1	1
599.184	1	8
599.354	1	-18
599.523	1	15
599.693	1	-6
599.863	1	4
600.033	1	4
600.202	1	-2
600.372	1	5
600.542	1	9
600.712	1	-6
600.881	1	-8
601.051	1	13
601.221	1	8
601.390	1	-9
601.560	1	13
601.730	1	9
601.900	1	0
602.069	1	16
602.239	1	-1
602.409	1	-5
602.578	1	3
602.748	1	-1
602.918	1	5
603.088	1	7
603.257	1	7
603.427	1	-5
603.597	1	7
603.767	1	11
603.936	1	8
604.106	1	12
604.276	1	-3
604.445	1	7
604.615	1	-5
604.785	1	-1
604.954	1	3
605.124	1	3
605.294	1	-1
605.464	1	-8
605.633	1	12
605.803	1	9
605.973	1	-4
606.142	1	0
606.312	1	5
606.482	1	7
606.652	1	9
606.821	1	-3
606.991	1	1
607.161	1	0
607.330	1	7
607.500	1	6
607.670	1	-6
607.839	1	6
608.009	1	9
608.179	1	8
608.348	1	2
608.518	1	0
608.688	1	6
608.858	1	-2
609.027	1	-2
609.197	1	8
609.367	1	11
609.536	1	4
609.706	1	-1
609.876	1	6
610.045	1	1
610.215	1	8
610.385	1	2
610.554	1	2
610.724	1	8
610.894	1	1
611.063	1	6
611.233	1	4
611.403	1	7
611.572	1	-5
611.742	1	1
611.912	1	3
612.081	1	2
612.251	1	6
612.421	1	-3
612.590	1	2
612.760	1	2
612.930	1	2
613.099	1	7
613.269	1	7
613.439	1	-6
613.608	1	-6
613.778	1	5
613.948	1	3
614.117	1	0
614.287	1	4
614.457	1	12
614.626	1	10
614.796	1	6
614.966	1	-3
615.135	1	-1
615.305	1	9
615.475	1	2
615.644	1	12
615.814	1	6
615.984	1	-2
616.153	1	-2
616.323	1	4
616.493	1	-3
616.662	1	6
616.832	1	-10
617.002	1	2
617.171	1	8
617.341	1	-2
617.511	1	-3
617.680	1	-6
617.850	1	5
618.019	1	14
618.189	1	13
618.359	1	3
618.528	1	3
618.698	1	0
618.868	1	-1
619.037	1	5
619.207	1	4
619.377	1	-7
619.546	1	-3
619.716	1	5
619.885	1	7
620.055	1	-8
620.225	1	2
620.394	1	-6
620.564	1	8
620.734	1	2
620.903	1	-2
621.073	1	8
621.242	1	16
621.412	1	1
621.582	1	-7
621.751	1	8
621.921	1	3
622.091	1	-1
622.260	1	1
622.430	1	8
622.599	1	4
622.769	1	1
622.939	1	10
623.108	1	-2
623.278	1	3
623.448	1	4
623.617	1	5
623.787	1	-6
623.956	1	6
624.126	1	3
624.296	1	0
624.465	1	5
624.635	1	8
624.804	1	5
624.974	1	2
625.144	1	10
625.313	1	-3
625.483	1	1
625.652	1	2
625.822	1	-8
625.992	1	-4
626.161	1	2
626.331	1	-4
626.501	1	5
626.670	1	2
626.840	1	-1
627.009	1	-5
627.179	1	6
627.348	1	11
627.518	1	5
627.688	1	9
627.857	1	5
628.027	1	-9
628.196	1	-3
628.366	1	17
628.536	1	3
628.705	1	2
628.875	1	1
629.044	1	1
629.214	1	5
629.384	1	9
629.553	1	15
629.723	1	3
629.892	1	4
630.062	1	0
630.232	1	-3
630.401	1	15
630.571	1	2
630.740	1	6
630.910	1	9
631.079	1	12
631.249	1	-3
631.419	1	3
631.588	1	-6
631.758	1	2
631.927	1	0
632.097	1	11
632.266	1	-3
632.436	1	1
632.606	1	2
632.775	1	14
632.945	1	11
633.114	1	0
633.284	1	6
633.453	1	-7
633.623	1	-2
633.793	1	4
633.962	1	-1
634.132	1	4
634.301	1	6
634.471	1	3
634.640	1	3
634.810	1	0
634.979	1	3
635.149	1	4
635.319	1	8
635.488	1	5
635.658	1	-1
635.827	1	-3
635.997	1	2
636.166	1	6
636.336	1	-7
636.505	1	5
636.675	1	3
636.845	1	2
637.014	1	7
637.184	1	1
637.353	1	3
637.523	1	6
637.692	1	-2
637.862	1	10
638.031	1	10
638.201	1	9
638.370	1	2
638.540	1	3
638.710	1	2
638.879	1	-9
639.049	1	6
639.218	1	6
639.388	1	-3
639.557	1	11
639.727	1	7
639.896	1	3
640.066	1	0
640.235	1	1
640.405	1	7
640.574	1	5
640.744	1	-3
640.914	1	8
641.083	1	0
641.253	1	-7
641.422	1	-1
641.592	1	15
641.761	1	-4
641.931	1	-4
642.100	1	19
642.270	1	4
642.439	1	10
642.609	1	3
642.778	1	-1
642.948	1	4
643.117	1	3
643.287	1	2
643.456	1	-5
643.626	1	9
643.795	1	-4
643.965	1	10
644.134	1	-2
644.304	1	2
644.473	1	5
644.643	1	6
644.812	1	6
644.982	1	6
645.151	1	5
645.321	1	-4
645.490	1	19
645.660	1	-13
645.829	1	1
645.999	1	-4
646.168	1	5
646.338	1	6
646.507	1	4
646.677	1	4
646.846	1	1
647.016	1	-18
647.185	1	5
647.355	1	-3
647.524	1	10
647.694	1	14
647.863	1	10
648.033	1	1
648.202	1	7
648.372	1	-4
648.541	1	-4
648.711	1	4
648.880	1	1
649.050	1	-5
649.219	1	1
649.389	1	12
649.558	1	6
649.728	1	8
649.897	1	-1
650.067	1	13
650.236	1	5
650.406	1	6
650.575	1	7
650.745	1	7
650.914	1	1
651.084	1	-5
651.253	1	2
651.423	1	11
651.592	1	-7
651.762	1	-7
651.931	1	9
652.101	1	-4
652.270	1	13
652.440	1	13
652.609	1	-7
652.778	1	-3
652.948	1	15
653.117	1	7
653.287	1	8
653.456	1	1
653.626	1	14
653.795	1	-5
653.965	1	13
654.134	1	6
654.304	1	-11
654.473	1	4
654.643	1	10
654.812	1	-2
654.982	1	3
655.151	1	2
655.320	1	-2
655.490	1	0
655.659	1	4
655.829	1	-12
655.998	1	7
656.168	1	-1
656.337	1	7
656.507	1	2
656.676	1	10
656.846	1	4
657.015	1	12
657.184	1	6
657.354	1	9
657.523	1	1
657.693	1	10
657.862	1	6
658.032	1	0
658.201	1	0
658.371	1	12
658.540	1	6
658.709	1	-3
658.879	1	10
659.048	1	-10
659.218	1	-1
659.387	1	-4
659.557	1	2
659.726	1	15
659.895	1	3
660.065	1	0
660.234	1	3
660.404	1	8
660.573	1	0
660.743	1	3
660.912	1	-4
661.081	1	21
661.251	1	-4
661.420	1	6
661.590	1	3
661.759	1	10
661.929	1	6
662.098	1	12
662.267	1	-2
662.437	1	5
662.606	1	-2
662.776	1	1
662.945	1	7
663.115	1	6
663.284	1	3
663.453	1	6
663.623	1	0
663.792	1	11
663.962	1	2
664.131	1	11
664.300	1	9
664.470	1	1
664.639	1	8
664.809	1	5
664.978	1	3
665.148	1	6
665.317	1	0
665.486	1	5
665.656	1	10
665.825	1	7
665.995	1	1
666.164	1	-2
666.333	1	10
666.503	1	1
666.672	1	-6
666.842	1	-4
667.011	1	-1
667.180	1	14
667.350	1	1
667.519	1	3
667.689	1	11
667.858	1	5
668.027	1	9
668.197	1	0
668.366	1	-5
668.536	1	2
668.705	1	3
668.874	1	5
669.044	1	-2
669.213	1	15
669.382	1	-2
669.552	1	11
669.721	1	11
669.891	1	9
670.060	1	10
670.229	1	20
670.399	1	0
670.568	1	10
670.738	1	11
670.907	1	3
671.076	1	-2
671.246	1	5
671.415	1	3
671.584	1	2
671.754	1	0
671.923	1	-2
672.093	1	10
672.262	1	-11
672.431	1	3
672.601	1	-8
672.770	1	-8
672.939	1	6
673.109	1	-1
673.278	1	3
673.448	1	11
673.617	1	4
673.786	1	-2
