325.333	1	3
325.504	1	11
325.675	1	7
325.846	1	4
326.017	1	4
326.188	1	-1
326.359	1	4
326.531	1	-10
326.702	1	7
326.873	1	14
327.044	1	0
327.215	1	8
327.386	1	3
327.557	1	0
327.728	1	9
327.899	1	10
328.070	1	9
328.241	1	13
328.412	1	1
328.583	1	9
328.754	1	12
328.926	1	14
329.097	1	7
329.268	1	18
329.439	1	2
329.610	1	17
329.781	1	1
329.952	1	8
330.123	1	4
330.294	1	1
330.465	1	3
330.636	1	14
330.807	1	11
330.978	1	5
331.149	1	4
331.320	1	14
331.492	1	2
331.663	1	6
331.834	1	16
332.005	1	6
332.176	1	14
332.347	1	13
332.518	1	2
332.689	1	9
332.860	1	3
333.031	1	11
333.202	1	6
333.373	1	9
333.544	1	8
333.715	1	16
333.886	1	-3
334.057	1	7
334.228	1	11
334.399	1	12
334.570	1	25
334.741	1	-2
334.912	1	19
335.084	1	17
335.255	1	14
335.426	1	9
335.597	1	8
335.768	1	4
335.939	1	17
336.110	1	2
336.281	1	1
336.452	1	0
336.623	1	20
336.794	1	13
336.965	1	11
337.136	1	15
337.307	1	9
337.478	1	10
337.649	1	3
337.820	1	16
337.991	1	8
338.162	1	19
338.333	1	-2
338.504	1	13
338.675	1	4
338.846	1	11
339.017	1	3
339.188	1	3
339.359	1	-1
339.530	1	12
339.701	1	12
339.872	1	16
340.043	1	7
340.214	1	6
340.385	1	18
340.556	1	-1
340.727	1	10
340.898	1	25
341.069	1	10
341.240	1	6
341.411	1	15
341.582	1	9
341.753	1	1
341.924	1	6
342.095	1	6
342.266	1	21
342.437	1	20
342.608	1	8
342.779	1	14
342.950	1	10
343.121	1	12
343.292	1	9
343.463	1	7
343.634	1	11
343.805	1	14
343.976	1	11
344.147	1	2
344.318	1	18
344.489	1	9
344.660	1	20
344.831	1	17
345.002	1	-1
345.173	1	16
345.344	1	13
345.515	1	15
345.686	1	10
345.857	1	17
346.028	1	20
346.199	1	2
346.370	1	12
346.541	1	14
346.712	1	17
346.883	1	18
347.054	1	15
347.225	1	20
347.396	1	19
347.567	1	17
347.738	1	1
347.909	1	16
348.080	1	5
348.251	1	22
348.422	1	30
348.593	1	18
348.764	1	13
348.935	1	13
349.106	1	10
349.277	1	20
349.448	1	12
349.619	1	26
349.790	1	17
349.961	1	9
350.132	1	22
350.303	1	18
350.474	1	24
350.645	1	12
350.816	1	15
350.987	1	23
351.157	1	12
351.328	1	29
351.499	1	29
351.670	1	16
351.841	1	19
352.012	1	25
352.183	1	19
352.354	1	17
352.525	1	27
352.696	1	28
352.867	1	19
353.038	1	26
353.209	1	22
353.380	1	19
353.551	1	7
353.722	1	22
353.893	1	11
354.064	1	27
354.235	1	23
354.406	1	17
354.576	1	15
354.747	1	18
354.918	1	26
355.089	1	28
355.260	1	26
355.431	1	19
355.602	1	5
355.773	1	15
355.944	1	21
356.115	1	23
356.286	1	18
356.457	1	20
356.628	1	25
356.799	1	12
356.970	1	31
357.141	1	25
357.311	1	18
357.482	1	15
357.653	1	17
357.824	1	27
357.995	1	25
358.166	1	17
358.337	1	27
358.508	1	23
358.679	1	20
358.850	1	23
359.021	1	10
359.192	1	24
359.363	1	17
359.533	1	25
359.704	1	16
359.875	1	30
360.046	1	23
360.217	1	13
360.388	1	19
360.559	1	16
360.730	1	23
360.901	1	17
361.072	1	29
361.243	1	27
361.414	1	23
361.584	1	14
361.755	1	25
361.926	1	18
362.097	1	30
362.268	1	22
362.439	1	15
362.610	1	33
362.781	1	17
362.952	1	11
363.123	1	20
363.293	1	14
363.464	1	35
363.635	1	21
363.806	1	24
363.977	1	14
364.148	1	21
364.319	1	15
364.490	1	15
364.661	1	19
364.832	1	22
365.002	1	26
365.173	1	32
365.344	1	36
365.515	1	19
365.686	1	26
365.857	1	18
366.028	1	26
366.199	1	16
366.370	1	19
366.540	1	14
366.711	1	18
366.882	1	13
367.053	1	18
367.224	1	47
367.395	1	25
367.566	1	27
367.737	1	34
367.908	1	37
368.078	1	13
368.249	1	28
368.420	1	23
368.591	1	14
368.762	1	23
368.933	1	20
369.104	1	23
369.274	1	24
369.445	1	25
369.616	1	31
369.787	1	18
369.958	1	36
370.129	1	25
370.300	1	32
370.471	1	27
370.641	1	31
370.812	1	28
370.983	1	31
371.154	1	29
371.325	1	30
371.496	1	33
371.667	1	34
371.837	1	18
372.008	1	40
372.179	1	24
372.350	1	36
372.521	1	37
372.692	1	18
372.863	1	28
373.033	1	20
373.204	1	29
373.375	1	30
373.546	1	33
373.717	1	35
373.888	1	42
374.059	1	32
374.229	1	34
374.400	1	28
374.571	1	22
374.742	1	27
374.913	1	35
375.084	1	27
375.254	1	32
375.425	1	38
375.596	1	18
375.767	1	28
375.938	1	30
376.109	1	35
376.279	1	24
376.450	1	36
376.621	1	40
376.792	1	12
376.963	1	34
377.134	1	33
377.304	1	31
377.475	1	26
377.646	1	22
377.817	1	41
377.988	1	24
378.159	1	24
378.329	1	40
378.500	1	32
378.671	1	28
378.842	1	26
379.013	1	26
379.184	1	31
379.354	1	29
379.525	1	39
379.696	1	33
379.867	1	36
380.038	1	38
380.209	1	29
380.379	1	39
380.550	1	32
380.721	1	38
380.892	1	41
381.063	1	28
381.233	1	43
381.404	1	31
381.575	1	34
381.746	1	35
381.917	1	32
382.087	1	21
382.258	1	36
382.429	1	38
382.600	1	38
382.771	1	35
382.941	1	26
383.112	1	37
383.283	1	31
383.454	1	28
383.625	1	28
383.795	1	23
383.966	1	32
384.137	1	41
384.308	1	31
384.479	1	37
384.649	1	45
384.820	1	31
384.991	1	44
385.162	1	35
385.333	1	29
385.503	1	35
385.674	1	28
385.845	1	43
386.016	1	41
386.187	1	27
386.357	1	48
386.528	1	43
386.699	1	21
386.870	1	51
387.041	1	46
387.211	1	38
387.382	1	45
387.553	1	35
387.724	1	29
387.894	1	32
388.065	1	28
388.236	1	47
388.407	1	40
388.578	1	21
388.748	1	35
388.919	1	56
389.090	1	30
389.261	1	29
389.431	1	40
389.602	1	33
389.773	1	34
389.944	1	44
390.114	1	42
390.285	1	41
390.456	1	28
390.627	1	32
390.798	1	40
390.968	1	38
391.139	1	49
391.310	1	42
391.481	1	48
391.651	1	35
391.822	1	39
391.993	1	32
392.164	1	34
392.334	1	34
392.505	1	34
392.676	1	44
392.847	1	59
393.017	1	50
393.188	1	42
393.359	1	28
393.530	1	36
393.700	1	37
393.871	1	35
394.042	1	27
394.213	1	33
394.383	1	47
394.554	1	36
394.725	1	44
394.896	1	40
395.066	1	45
395.237	1	41
395.408	1	44
395.579	1	34
395.749	1	40
395.920	1	38
396.091	1	48
396.262	1	41
396.432	1	37
396.603	1	46
396.774	1	50
396.945	1	38
397.115	1	49
397.286	1	36
397.457	1	42
397.627	1	41
397.798	1	54
397.969	1	31
398.140	1	32
398.310	1	47
398.481	1	44
398.652	1	37
398.823	1	34
398.993	1	33
399.164	1	37
399.335	1	56
399.505	1	41
399.676	1	46
399.847	1	39
400.018	1	39
400.188	1	33
400.359	1	38
400.530	1	31
400.700	1	46
400.871	1	38
401.042	1	50
401.213	1	40
401.383	1	47
401.554	1	45
401.725	1	49
401.895	1	28
402.066	1	39
402.237	1	47
402.408	1	46
402.578	1	49
402.749	1	41
402.920	1	50
403.090	1	43
403.261	1	41
403.432	1	34
403.603	1	39
403.773	1	48
403.944	1	42
404.115	1	49
404.285	1	48
404.456	1	36
404.627	1	43
404.797	1	38
404.968	1	34
405.139	1	44
405.310	1	48
405.480	1	46
405.651	1	38
405.822	1	41
405.992	1	30
406.163	1	41
406.334	1	32
406.504	1	42
406.675	1	48
406.846	1	42
407.016	1	45
407.187	1	46
407.358	1	43
407.528	1	39
407.699	1	36
407.870	1	48
408.041	1	46
408.211	1	55
408.382	1	33
408.553	1	38
408.723	1	48
408.894	1	33
409.065	1	47
409.235	1	34
409.406	1	43
409.577	1	35
409.747	1	50
409.918	1	46
410.089	1	43
410.259	1	48
410.430	1	44
410.601	1	39
410.771	1	41
410.942	1	48
411.113	1	44
411.283	1	44
411.454	1	46
411.625	1	35
411.795	1	46
411.966	1	43
412.137	1	54
412.307	1	37
412.478	1	42
412.649	1	44
412.819	1	44
412.990	1	43
413.161	1	48
413.331	1	31
413.502	1	54
413.672	1	49
413.843	1	51
414.014	1	41
414.184	1	50
414.355	1	46
414.526	1	46
414.696	1	56
414.867	1	50
415.038	1	25
415.208	1	36
415.379	1	49
415.550	1	61
415.720	1	49
415.891	1	43
416.062	1	46
416.232	1	38
416.403	1	49
416.573	1	49
416.744	1	38
416.915	1	45
417.085	1	48
417.256	1	39
417.427	1	44
417.597	1	46
417.768	1	34
417.939	1	50
418.109	1	45
418.280	1	50
418.450	1	49
418.621	1	31
418.792	1	42
418.962	1	44
419.133	1	60
419.304	1	32
419.474	1	29
419.645	1	42
419.815	1	43
419.986	1	46
420.157	1	49
420.327	1	50
420.498	1	54
420.669	1	48
420.839	1	45
421.010	1	45
421.180	1	44
421.351	1	45
421.522	1	48
421.692	1	47
421.863	1	43
422.033	1	47
422.204	1	44
422.375	1	46
422.545	1	50
422.716	1	42
422.886	1	37
423.057	1	41
423.228	1	43
423.398	1	34
423.569	1	45
423.740	1	37
423.910	1	26
424.081	1	40
424.251	1	28
424.422	1	43
424.593	1	36
424.763	1	47
424.934	1	46
425.104	1	37
425.275	1	40
425.445	1	39
425.616	1	38
425.787	1	33
425.957	1	45
426.128	1	55
426.298	1	42
426.469	1	31
426.640	1	39
426.810	1	39
426.981	1	33
427.151	1	34
427.322	1	48
427.493	1	45
427.663	1	34
427.834	1	34
428.004	1	39
428.175	1	45
428.345	1	39
428.516	1	38
428.687	1	46
428.857	1	27
429.028	1	42
429.198	1	47
429.369	1	38
429.540	1	27
429.710	1	20
429.881	1	43
430.051	1	35
430.222	1	37
430.392	1	43
430.563	1	39
430.734	1	50
430.904	1	39
431.075	1	38
431.245	1	32
431.416	1	38
431.586	1	34
431.757	1	44
431.927	1	40
432.098	1	38
432.269	1	30
432.439	1	43
432.610	1	41
432.780	1	37
432.951	1	38
433.121	1	42
433.292	1	46
433.462	1	35
433.633	1	40
433.804	1	36
433.974	1	38
434.145	1	49
434.315	1	33
434.486	1	33
434.656	1	41
434.827	1	32
434.997	1	36
435.168	1	43
435.339	1	39
435.509	1	42
435.680	1	34
435.850	1	31
436.021	1	41
436.191	1	35
436.362	1	43
436.532	1	36
436.703	1	32
436.873	1	38
437.044	1	26
437.214	1	33
437.385	1	28
437.556	1	30
437.726	1	51
437.897	1	48
438.067	1	29
438.238	1	35
438.408	1	43
438.579	1	33
438.749	1	43
438.920	1	31
439.090	1	37
439.261	1	38
439.431	1	33
439.602	1	30
439.772	1	33
439.943	1	44
440.113	1	41
440.284	1	41
440.455	1	34
440.625	1	29
440.796	1	37
440.966	1	31
441.137	1	30
441.307	1	32
441.478	1	38
441.648	1	40
441.819	1	41
441.989	1	39
442.160	1	36
442.330	1	41
442.501	1	34
442.671	1	31
442.842	1	32
443.012	1	25
443.183	1	38
443.353	1	23
443.524	1	29
443.694	1	48
443.865	1	28
444.035	1	36
444.206	1	41
444.376	1	35
444.547	1	44
444.717	1	39
444.888	1	29
445.058	1	42
445.229	1	29
445.399	1	36
445.570	1	40
445.740	1	26
445.911	1	31
446.081	1	29
446.252	1	47
446.422	1	32
446.593	1	32
446.763	1	23
446.934	1	33
447.104	1	28
447.275	1	35
447.445	1	36
447.616	1	36
447.786	1	44
447.957	1	38
448.127	1	35
448.298	1	32
448.468	1	26
448.639	1	26
448.809	1	27
448.979	1	32
449.150	1	34
449.320	1	33
449.491	1	46
449.661	1	35
449.832	1	26
450.002	1	38
450.173	1	33
450.343	1	28
450.514	1	32
450.684	1	25
450.855	1	29
451.025	1	37
451.196	1	25
451.366	1	50
451.537	1	38
451.707	1	11
451.878	1	31
452.048	1	31
452.218	1	27
452.389	1	34
452.559	1	23
452.730	1	31
452.900	1	38
453.071	1	13
453.241	1	23
453.412	1	39
453.582	1	25
453.753	1	29
453.923	1	32
454.093	1	28
454.264	1	34
454.434	1	35
454.605	1	27
454.775	1	27
454.946	1	27
455.116	1	30
455.287	1	15
455.457	1	20
455.628	1	15
455.798	1	33
455.968	1	23
456.139	1	28
456.309	1	24
456.480	1	21
456.650	1	19
456.821	1	20
456.991	1	29
457.161	1	21
457.332	1	24
457.502	1	14
457.673	1	23
457.843	1	26
458.014	1	23
458.184	1	35
458.355	1	21
458.525	1	27
458.695	1	32
458.866	1	26
459.036	1	24
459.207	1	26
459.377	1	13
459.548	1	35
459.718	1	20
459.888	1	20
460.059	1	30
460.229	1	31
460.400	1	33
460.570	1	18
460.740	1	27
460.911	1	23
461.081	1	28
461.252	1	17
461.422	1	18
461.593	1	26
461.763	1	20
461.933	1	23
462.104	1	14
462.274	1	30
462.445	1	33
462.615	1	25
462.785	1	19
462.956	1	28
463.126	1	19
463.297	1	22
463.467	1	19
463.638	1	24
463.808	1	19
463.978	1	20
464.149	1	21
464.319	1	20
464.490	1	33
464.660	1	20
464.830	1	10
465.001	1	15
465.171	1	30
465.342	1	25
465.512	1	21
465.682	1	22
465.853	1	26
466.023	1	35
466.194	1	22
466.364	1	34
466.534	1	25
466.705	1	22
466.875	1	17
467.045	1	18
467.216	1	24
467.386	1	24
467.557	1	18
467.727	1	17
467.897	1	12
468.068	1	19
468.238	1	19
468.409	1	13
468.579	1	10
468.749	1	17
468.920	1	14
469.090	1	22
469.260	1	21
469.431	1	19
469.601	1	31
469.772	1	20
469.942	1	14
470.112	1	21
470.283	1	8
470.453	1	21
470.623	1	19
470.794	1	20
470.964	1	33
471.135	1	26
471.305	1	13
471.475	1	35
471.646	1	3
471.816	1	10
471.986	1	19
472.157	1	23
472.327	1	8
472.497	1	22
472.668	1	14
472.838	1	24
473.009	1	25
473.179	1	8
473.349	1	9
473.520	1	24
473.690	1	17
473.860	1	24
474.031	1	22
474.201	1	17
474.371	1	23
474.542	1	19
474.712	1	19
474.882	1	27
475.053	1	28
475.223	1	10
475.394	1	17
475.564	1	21
475.734	1	14
475.905	1	34
476.075	1	17
476.245	1	29
476.416	1	27
476.586	1	32
476.756	1	19
476.927	1	14
477.097	1	23
477.267	1	22
477.438	1	21
477.608	1	20
477.778	1	29
477.949	1	26
478.119	1	18
478.289	1	24
478.460	1	27
478.630	1	10
478.800	1	17
478.971	1	14
479.141	1	14
479.311	1	15
479.482	1	16
479.652	1	5
479.822	1	21
479.993	1	19
480.163	1	19
480.333	1	14
480.504	1	25
480.674	1	18
480.844	1	11
481.015	1	17
481.185	1	20
481.355	1	30
481.525	1	10
481.696	1	17
481.866	1	13
482.036	1	17
482.207	1	7
482.377	1	14
482.547	1	19
482.718	1	13
482.888	1	15
483.058	1	13
483.229	1	5
483.399	1	9
483.569	1	20
483.740	1	22
483.910	1	19
484.080	1	15
484.250	1	23
484.421	1	11
484.591	1	15
484.761	1	24
484.932	1	15
485.102	1	20
485.272	1	23
485.443	1	29
485.613	1	15
485.783	1	3
485.953	1	11
486.124	1	18
486.294	1	13
486.464	1	12
486.635	1	15
486.805	1	23
486.975	1	12
487.146	1	21
487.316	1	11
487.486	1	18
487.656	1	8
487.827	1	12
487.997	1	7
488.167	1	17
488.338	1	16
488.508	1	17
488.678	1	9
488.848	1	19
489.019	1	12
489.189	1	17
489.359	1	9
489.529	1	14
489.700	1	8
489.870	1	23
490.040	1	4
490.211	1	7
490.381	1	20
490.551	1	12
490.721	1	22
490.892	1	11
491.062	1	9
491.232	1	21
491.402	1	2
491.573	1	5
491.743	1	6
491.913	1	12
492.084	1	22
492.254	1	19
492.424	1	7
492.594	1	16
492.765	1	15
492.935	1	17
493.105	1	12
493.275	1	13
493.446	1	26
493.616	1	15
493.786	1	12
493.956	1	12
494.127	1	11
494.297	1	4
494.467	1	3
494.637	1	12
494.808	1	13
494.978	1	10
495.148	1	13
495.318	1	17
495.489	1	9
495.659	1	19
495.829	1	15
495.999	1	-4
496.170	1	16
496.340	1	22
496.510	1	18
496.680	1	9
496.851	1	20
497.021	1	20
497.191	1	13
497.361	1	6
497.532	1	11
497.702	1	5
497.872	1	8
498.042	1	15
498.213	1	12
498.383	1	9
498.553	1	9
498.723	1	19
498.894	1	10
499.064	1	9
499.234	1	17
499.404	1	5
499.574	1	18
499.745	1	15
499.915	1	14
500.085	1	9
500.255	1	18
500.426	1	8
500.596	1	14
500.766	1	11
500.936	1	10
501.106	1	3
501.277	1	13
501.447	1	15
501.617	1	9
501.787	1	6
501.958	1	13
502.128	1	7
502.298	1	12
502.468	1	12
502.638	1	6
502.809	1	7
502.979	1	3
503.149	1	6
503.319	1	6
503.489	1	7
503.660	1	12
503.830	1	6
504.000	1	28
504.170	1	3
504.340	1	9
504.511	1	11
504.681	1	6
504.851	1	10
505.021	1	12
505.192	1	-1
505.362	1	14
505.532	1	5
505.702	1	-2
505.872	1	20
506.043	1	4
506.213	1	10
506.383	1	12
506.553	1	16
506.723	1	12
506.893	1	8
507.064	1	23
507.234	1	4
507.404	1	13
507.574	1	2
507.744	1	16
507.915	1	12
508.085	1	13
508.255	1	19
508.425	1	5
508.595	1	19
508.766	1	11
508.936	1	-2
509.106	1	18
509.276	1	16
509.446	1	5
509.616	1	4
509.787	1	16
509.957	1	7
510.127	1	4
510.297	1	9
510.467	1	6
510.638	1	11
510.808	1	-8
510.978	1	1
511.148	1	9
511.318	1	6
511.488	1	4
511.659	1	12
511.829	1	7
511.999	1	12
512.169	1	7
512.339	1	14
512.509	1	7
512.680	1	5
512.850	1	-2
513.020	1	11
513.190	1	12
513.360	1	5
513.530	1	7
513.700	1	16
513.871	1	-2
514.041	1	8
514.211	1	14
514.381	1	14
514.551	1	15
514.721	1	2
514.892	1	8
515.062	1	10
515.232	1	11
515.402	1	3
515.572	1	2
515.742	1	7
515.912	1	17
516.083	1	6
516.253	1	6
516.423	1	8
516.593	1	6
516.763	1	12
516.933	1	4
517.104	1	11
517.274	1	5
517.444	1	6
517.614	1	-3
517.784	1	8
517.954	1	4
518.124	1	15
518.294	1	11
518.465	1	10
518.635	1	2
518.805	1	-9
518.975	1	18
519.145	1	3
519.315	1	17
519.485	1	7
519.656	1	21
519.826	1	12
519.996	1	0
520.166	1	12
520.336	1	12
520.506	1	7
520.676	1	2
520.846	1	16
521.017	1	0
521.187	1	9
521.357	1	17
521.527	1	0
521.697	1	1
521.867	1	0
522.037	1	8
522.207	1	9
522.377	1	6
522.548	1	7
522.718	1	10
522.888	1	23
523.058	1	10
523.228	1	9
523.398	1	10
523.568	1	7
523.738	1	13
523.909	1	11
524.079	1	4
524.249	1	10
524.419	1	5
524.589	1	3
524.759	1	0
524.929	1	-1
525.099	1	13
525.269	1	11
525.439	1	1
525.610	1	19
525.780	1	8
525.950	1	7
526.120	1	7
526.290	1	5
526.460	1	-9
526.630	1	16
526.800	1	7
526.970	1	6
527.140	1	12
527.311	1	5
527.481	1	-2
527.651	1	12
527.821	1	-1
527.991	1	3
528.161	1	12
528.331	1	-1
528.501	1	7
528.671	1	-4
528.841	1	8
529.011	1	6
529.181	1	8
529.352	1	-1
529.522	1	2
529.692	1	4
529.862	1	7
530.032	1	8
530.202	1	14
530.372	1	11
530.542	1	3
530.712	1	4
530.882	1	11
531.052	1	6
531.222	1	4
531.392	1	-3
531.563	1	20
531.733	1	1
531.903	1	14
532.073	1	15
532.243	1	5
532.413	1	9
532.583	1	3
532.753	1	1
532.923	1	-4
533.093	1	-5
533.263	1	9
533.433	1	13
533.603	1	8
533.773	1	0
533.943	1	9
534.113	1	18
534.284	1	5
534.454	1	4
534.624	1	13
534.794	1	0
534.964	1	5
535.134	1	-4
535.304	1	12
535.474	1	10
535.644	1	6
535.814	1	1
535.984	1	-2
536.154	1	-11
536.324	1	3
536.494	1	0
536.664	1	1
536.834	1	5
537.004	1	3
537.174	1	13
537.344	1	11
537.514	1	-6
537.685	1	1
537.855	1	9
538.025	1	10
538.195	1	7
538.365	1	7
538.535	1	8
538.705	1	5
538.875	1	11
539.045	1	4
539.215	1	8
539.385	1	0
539.555	1	12
539.725	1	4
539.895	1	1
540.065	1	14
540.235	1	8
540.405	1	9
540.575	1	9
540.745	1	7
540.915	1	17
541.085	1	13
541.255	1	4
541.425	1	3
541.595	1	8
541.765	1	4
541.935	1	2
542.105	1	-3
542.275	1	6
542.445	1	-15
542.615	1	2
542.785	1	10
542.955	1	3
543.125	1	-6
543.295	1	12
543.465	1	7
543.635	1	9
543.805	1	5
543.975	1	1
544.145	1	9
544.315	1	8
544.485	1	5
544.655	1	8
544.825	1	-7
544.995	1	4
545.165	1	-5
545.335	1	8
545.505	1	0
545.675	1	7
545.845	1	13
546.015	1	3
546.185	1	16
546.355	1	-6
546.525	1	2
546.695	1	-3
546.865	1	-3
547.035	1	7
547.205	1	-11
547.375	1	1
547.545	1	4
547.715	1	4
547.885	1	14
548.055	1	-1
548.225	1	11
548.395	1	-3
548.565	1	13
548.735	1	1
548.905	1	1
549.075	1	2
549.245	1	-2
549.415	1	-3
549.585	1	9
549.755	1	5
549.925	1	0
550.095	1	10
550.265	1	8
550.435	1	2
550.605	1	2
550.775	1	1
550.945	1	2
551.115	1	8
551.285	1	16
551.455	1	-8
551.625	1	11
551.795	1	10
551.965	1	3
552.135	1	-1
552.305	1	1
552.475	1	-16
552.645	1	-1
552.815	1	8
552.985	1	6
553.155	1	4
553.325	1	12
553.495	1	7
553.665	1	5
553.835	1	3
554.004	1	7
554.174	1	3
554.344	1	3
554.514	1	2
554.684	1	10
554.854	1	10
555.024	1	-3
555.194	1	-3
555.364	1	8
555.534	1	8
555.704	1	2
555.874	1	12
556.044	1	6
556.214	1	-11
556.384	1	5
556.554	1	8
556.724	1	9
556.894	1	2
557.064	1	6
557.234	1	6
557.404	1	12
557.573	1	0
557.743	1	5
557.913	1	-5
558.083	1	0
558.253	1	3
558.423	1	4
558.593	1	6
558.763	1	-2
558.933	1	8
559.103	1	-1
559.273	1	1
559.443	1	7
559.613	1	3
559.783	1	0
559.953	1	5
560.122	1	13
560.292	1	6
560.462	1	9
560.632	1	2
560.802	1	-4
560.972	1	6
561.142	1	-2
561.312	1	-13
561.482	1	8
561.652	1	5
561.822	1	-3
561.992	1	3
562.162	1	-6
562.331	1	-2
562.501	1	-9
562.671	1	5
562.841	1	-8
563.011	1	8
563.181	1	-4
563.351	1	-5
563.521	1	8
563.691	1	-8
563.861	1	4
564.031	1	5
564.201	1	11
564.370	1	-12
564.540	1	7
564.710	1	0
564.880	1	7
565.050	1	2
565.220	1	2
565.390	1	11
565.560	1	3
565.730	1	-1
565.900	1	-3
566.069	1	11
566.239	1	9
566.409	1	0
566.579	1	14
566.749	1	4
566.919	1	7
567.089	1	-1
567.259	1	8
567.429	1	2
567.599	1	-5
567.768	1	2
567.938	1	-2
568.108	1	-8
568.278	1	-4
568.448	1	-1
568.618	1	-2
568.788	1	10
568.958	1	3
569.128	1	6
569.297	1	-5
569.467	1	-5
569.637	1	8
569.807	1	3
569.977	1	11
570.147	1	6
570.317	1	0
570.487	1	3
570.656	1	8
570.826	1	-4
570.996	1	-4
571.166	1	2
571.336	1	-2
571.506	1	11
571.676	1	6
571.846	1	4
572.015	1	3
572.185	1	1
572.355	1	9
572.525	1	16
572.695	1	-7
572.865	1	-11
573.035	1	6
573.205	1	3
573.374	1	0
573.544	1	-2
573.714	1	12
573.884	1	8
574.054	1	5
574.224	1	12
574.394	1	0
574.563	1	-2
574.733	1	1
574.903	1	-10
575.073	1	8
575.243	1	3
575.413	1	5
575.583	1	-1
575.752	1	4
575.922	1	-6
576.092	1	4
576.262	1	1
576.432	1	-6
576.602	1	0
576.772	1	15
576.941	1	5
577.111	1	3
577.281	1	-10
577.451	1	1
577.621	1	7
577.791	1	15
577.960	1	1
578.130	1	7
578.300	1	3
578.470	1	15
578.640	1	-4
578.810	1	10
578.979	1	4
579.149	1	-5
579.319	1	1
579.489	1	6
579.659	1	1
579.829	1	2
579.998	1	7
580.168	1	10
580.338	1	1
580.508	1	-4
580.678	1	4
580.848	1	2
581.017	1	5
581.187	1	4
581.357	1	-6
581.527	1	10
581.697	1	6
581.867	1	8
582.036	1	4
582.206	1	3
582.376	1	9
582.546	1	-10
582.716	1	1
582.885	1	5
583.055	1	-3
583.225	1	-3
583.395	1	10
583.565	1	1
583.735	1	5
583.904	1	0
584.074	1	8
584.244	1	8
584.414	1	1
584.584	1	-3
584.753	1	0
584.923	1	6
585.093	1	0
585.263	1	2
585.433	1	-1
585.602	1	-9
585.772	1	-5
585.942	1	-5
586.112	1	-4
586.282	1	-1
586.451	1	-7
586.621	1	-6
586.791	1	3
586.961	1	-3
587.131	1	7
587.300	1	1
587.470	1	6
587.640	1	11
587.810	1	2
587.980	1	1
588.149	1	-1
588.319	1	-3
588.489	1	-1
588.659	1	-3
588.829	1	-3
588.998	1	14
589.168	1	10
589.338	1	1
589.508	1	1
589.677	1	-4
589.847	1	-8
590.017	1	16
590.187	1	2
590.357	1	15
590.526	1	10
590.696	1	9
590.866	1	4
591.036	1	3
591.205	1	7
591.375	1	8
591.545	1	-2
591.715	1	5
591.885	1	-1
592.054	1	11
592.224	1	10
592.394	1	3
592.564	1	-1
592.733	1	6
592.903	1	4
593.073	1	5
593.243	1	9
593.412	1	12
593.582	1	1
593.752	1	6
593.922	1	4
594.091	1	6
594.261	1	-1
594.431	1	4
594.601	1	9
594.771	1	9
594.940	1	3
595.110	1	-7
595.280	1	7
595.450	1	-1
595.619	1	4
595.789	1	0
595.959	1	5
596.129	1	-2
596.298	1	4
596.468	1	7
596.638	1	7
596.808	1	6
596.977	1	9
597.147	1	3
597.317	1	5
597.487	1	11
597.656	1	4
597.826	1	6
597.996	1	11
598.166	1	-2
598.335	1	-2
598.505	1	4
598.675	1	-10
598.844	1	2
599.014	1	5
599.184	1	3
599.354	1	-7
599.523	1	6
599.693	1	5
599.863	1	11
600.033	1	3
600.202	1	3
600.372	1	4
600.542	1	7
600.712	1	-2
600.881	1	-9
601.051	1	14
601.221	1	12
601.390	1	-5
601.560	1	9
601.730	1	12
601.900	1	2
602.069	1	14
602.239	1	-2
602.409	1	2
602.578	1	1
602.748	1	-3
602.918	1	-1
603.088	1	10
603.257	1	12
603.427	1	-1
603.597	1	5
603.767	1	9
603.936	1	5
604.106	1	1
604.276	1	0
604.445	1	14
604.615	1	3
604.785	1	-1
604.954	1	3
605.124	1	12
605.294	1	0
605.464	1	1
605.633	1	5
605.803	1	10
605.973	1	-4
606.142	1	5
606.312	1	12
606.482	1	2
606.652	1	5
606.821	1	-1
606.991	1	9
607.161	1	4
607.330	1	8
607.500	1	1
607.670	1	-1
607.839	1	6
608.009	1	17
608.179	1	5
608.348	1	1
608.518	1	-6
608.688	1	9
608.858	1	8
609.027	1	1
609.197	1	11
609.367	1	8
609.536	1	12
609.706	1	1
609.876	1	2
610.045	1	-8
610.215	1	4
610.385	1	-1
610.554	1	6
610.724	1	4
610.894	1	10
611.063	1	11
611.233	1	5
611.403	1	2
611.572	1	1
611.742	1	-2
611.912	1	5
612.081	1	0
612.251	1	8
612.421	1	6
612.590	1	0
612.760	1	4
612.930	1	19
613.099	1	0
613.269	1	16
613.439	1	0
613.608	1	3
613.778	1	-4
613.948	1	-1
614.117	1	6
614.287	1	11
614.457	1	6
614.626	1	1
614.796	1	10
614.966	1	3
615.135	1	-7
615.305	1	11
615.475	1	5
615.644	1	3
615.814	1	3
615.984	1	8
616.153	1	-3
616.323	1	3
616.493	1	-2
616.662	1	15
616.832	1	4
617.002	1	0
617.171	1	5
617.341	1	5
617.511	1	-5
617.680	1	-5
617.850	1	6
618.019	1	21
618.189	1	19
618.359	1	1
618.528	1	0
618.698	1	1
618.868	1	-3
619.037	1	5
619.207	1	3
619.377	1	5
619.546	1	0
619.716	1	2
619.885	1	-6
620.055	1	-6
620.225	1	8
620.394	1	-5
620.564	1	15
620.734	1	9
620.903	1	-8
621.073	1	13
621.242	1	7
621.412	1	8
621.582	1	-5
621.751	1	3
621.921	1	7
622.091	1	-1
622.260	1	11
622.430	1	12
622.599	1	7
622.769	1	10
622.939	1	3
623.108	1	4
623.278	1	-1
623.448	1	2
623.617	1	2
623.787	1	0
623.956	1	9
624.126	1	2
624.296	1	-3
624.465	1	15
624.635	1	15
624.804	1	2
624.974	1	-4
625.144	1	11
625.313	1	0
625.483	1	1
625.652	1	-6
625.822	1	3
625.992	1	1
626.161	1	12
626.331	1	9
626.501	1	7
626.670	1	3
626.840	1	2
627.009	1	0
627.179	1	4
627.348	1	18
627.518	1	3
627.688	1	11
627.857	1	9
628.027	1	-2
628.196	1	-1
628.366	1	17
628.536	1	8
628.705	1	2
628.875	1	7
629.044	1	2
629.214	1	6
629.384	1	6
629.553	1	-1
629.723	1	5
629.892	1	5
630.062	1	8
630.232	1	2
630.401	1	1
630.571	1	10
630.740	1	5
630.910	1	11
631.079	1	-3
631.249	1	6
631.419	1	11
631.588	1	-14
631.758	1	6
631.927	1	4
632.097	1	2
632.266	1	0
632.436	1	3
632.606	1	-2
632.775	1	0
632.945	1	4
633.114	1	7
633.284	1	4
633.453	1	16
633.623	1	9
633.793	1	10
633.962	1	6
634.132	1	-6
634.301	1	5
634.471	1	13
634.640	1	7
634.810	1	10
634.979	1	19
635.149	1	13
635.319	1	8
635.488	1	9
635.658	1	5
635.827	1	3
635.997	1	1
636.166	1	10
636.336	1	3
636.505	1	14
636.675	1	3
636.845	1	6
637.014	1	9
637.184	1	15
637.353	1	15
637.523	1	8
637.692	1	6
637.862	1	11
638.031	1	10
638.201	1	2
638.370	1	2
638.540	1	7
638.710	1	-6
638.879	1	-3
639.049	1	1
639.218	1	6
639.388	1	5
639.557	1	1
639.727	1	5
639.896	1	0
640.066	1	0
640.235	1	2
640.405	1	16
640.574	1	14
640.744	1	3
640.914	1	0
641.083	1	9
641.253	1	0
641.422	1	-3
641.592	1	11
641.761	1	7
641.931	1	-2
642.100	1	20
642.270	1	1
642.439	1	15
642.609	1	4
642.778	1	8
642.948	1	-3
643.117	1	12
643.287	1	6
643.456	1	6
643.626	1	10
643.795	1	0
643.965	1	9
644.134	1	1
644.304	1	6
644.473	1	0
644.643	1	6
644.812	1	15
644.982	1	3
645.151	1	8
645.321	1	2
645.490	1	10
645.660	1	-7
645.829	1	5
645.999	1	12
646.168	1	9
646.338	1	7
646.507	1	4
646.677	1	8
646.846	1	2
647.016	1	-4
647.185	1	4
647.355	1	-7
647.524	1	8
647.694	1	17
647.863	1	11
648.033	1	8
648.202	1	5
648.372	1	6
648.541	1	3
648.711	1	1
648.880	1	3
649.050	1	1
649.219	1	8
649.389	1	16
649.558	1	1
649.728	1	14
649.897	1	4
650.067	1	16
650.236	1	13
650.406	1	4
650.575	1	8
650.745	1	2
650.914	1	1
651.084	1	-2
651.253	1	9
651.423	1	9
651.592	1	2
651.762	1	3
651.931	1	19
652.101	1	14
652.270	1	14
652.440	1	11
652.609	1	2
652.778	1	8
652.948	1	7
653.117	1	2
653.287	1	-1
653.456	1	18
653.626	1	9
653.795	1	9
653.965	1	10
654.134	1	14
654.304	1	-9
654.473	1	12
654.643	1	10
654.812	1	10
654.982	1	6
655.151	1	4
655.320	1	4
655.490	1	-1
655.659	1	15
655.829	1	6
655.998	1	-2
656.168	1	-3
656.337	1	9
656.507	1	9
656.676	1	18
656.846	1	16
657.015	1	9
657.184	1	12
657.354	1	1
657.523	1	8
657.693	1	8
657.862	1	16
658.032	1	2
658.201	1	8
658.371	1	9
658.540	1	7
658.709	1	12
658.879	1	8
659.048	1	3
659.218	1	1
659.387	1	2
659.557	1	3
659.726	1	14
659.895	1	2
660.065	1	0
660.234	1	4
660.404	1	14
660.573	1	12
660.743	1	6
660.912	1	4
661.081	1	17
661.251	1	4
661.420	1	7
661.590	1	9
661.759	1	14
661.929	1	8
662.098	1	14
662.267	1	12
662.437	1	15
662.606	1	4
662.776	1	6
662.945	1	4
663.115	1	7
663.284	1	2
663.453	1	10
663.623	1	15
663.792	1	12
663.962	1	11
664.131	1	17
664.300	1	17
664.470	1	3
664.639	1	6
664.809	1	7
664.978	1	10
665.148	1	4
665.317	1	9
665.486	1	6
665.656	1	6
665.825	1	8
665.995	1	10
666.164	1	2
666.333	1	19
666.503	1	9
666.672	1	-9
666.842	1	2
667.011	1	5
667.180	1	10
667.350	1	8
667.519	1	12
667.689	1	10
667.858	1	6
668.027	1	24
668.197	1	9
668.366	1	-5
668.536	1	10
668.705	1	12
668.874	1	13
669.044	1	10
669.213	1	8
669.382	1	8
669.552	1	19
669.721	1	16
669.891	1	10
670.060	1	3
670.229	1	22
670.399	1	5
670.568	1	23
670.738	1	22
670.907	1	-5
671.076	1	-3
671.246	1	13
671.415	1	-5
671.584	1	5
671.754	1	4
671.923	1	1
672.093	1	20
672.262	1	11
672.431	1	15
672.601	1	2
672.770	1	6
672.939	1	11
673.109	1	5
673.278	1	5
673.448	1	8
673.617	1	4
673.786	1	12
