325.333	1	18
325.504	1	7
325.675	1	11
325.846	1	6
326.017	1	15
326.188	1	18
326.359	1	7
326.531	1	7
326.702	1	3
326.873	1	15
327.044	1	4
327.215	1	8
327.386	1	17
327.557	1	10
327.728	1	8
327.899	1	18
328.070	1	24
328.241	1	14
328.412	1	9
328.583	1	14
328.754	1	14
328.926	1	14
329.097	1	4
329.268	1	18
329.439	1	5
329.610	1	14
329.781	1	8
329.952	1	15
330.123	1	27
330.294	1	10
330.465	1	15
330.636	1	22
330.807	1	-1
330.978	1	19
331.149	1	15
331.320	1	16
331.492	1	21
331.663	1	10
331.834	1	20
332.005	1	16
332.176	1	24
332.347	1	20
332.518	1	6
332.689	1	20
332.860	1	23
333.031	1	20
333.202	1	23
333.373	1	23
333.544	1	21
333.715	1	32
333.886	1	9
334.057	1	14
334.228	1	2
334.399	1	18
334.570	1	32
334.741	1	8
334.912	1	15
335.084	1	31
335.255	1	24
335.426	1	15
335.597	1	10
335.768	1	19
335.939	1	25
336.110	1	18
336.281	1	16
336.452	1	8
336.623	1	21
336.794	1	20
336.965	1	31
337.136	1	28
337.307	1	19
337.478	1	23
337.649	1	24
337.820	1	22
337.991	1	18
338.162	1	18
338.333	1	16
338.504	1	24
338.675	1	14
338.846	1	21
339.017	1	20
339.188	1	16
339.359	1	10
339.530	1	32
339.701	1	24
339.872	1	19
340.043	1	23
340.214	1	20
340.385	1	35
340.556	1	13
340.727	1	25
340.898	1	33
341.069	1	25
341.240	1	30
341.411	1	22
341.582	1	23
341.753	1	21
341.924	1	20
342.095	1	27
342.266	1	44
342.437	1	32
342.608	1	19
342.779	1	32
342.950	1	30
343.121	1	24
343.292	1	27
343.463	1	21
343.634	1	28
343.805	1	42
343.976	1	34
344.147	1	28
344.318	1	22
344.489	1	28
344.660	1	38
344.831	1	24
345.002	1	25
345.173	1	44
345.344	1	34
345.515	1	40
345.686	1	29
345.857	1	35
346.028	1	27
346.199	1	29
346.370	1	34
346.541	1	29
346.712	1	43
346.883	1	32
347.054	1	25
347.225	1	37
347.396	1	39
347.567	1	22
347.738	1	30
347.909	1	42
348.080	1	22
348.251	1	44
348.422	1	37
348.593	1	34
348.764	1	34
348.935	1	46
349.106	1	33
349.277	1	30
349.448	1	46
349.619	1	40
349.790	1	34
349.961	1	44
350.132	1	44
350.303	1	35
350.474	1	45
350.645	1	41
350.816	1	36
350.987	1	52
351.157	1	42
351.328	1	52
351.499	1	43
351.670	1	37
351.841	1	52
352.012	1	42
352.183	1	60
352.354	1	48
352.525	1	46
352.696	1	56
352.867	1	43
353.038	1	40
353.209	1	48
353.380	1	42
353.551	1	37
353.722	1	49
353.893	1	38
354.064	1	54
354.235	1	39
354.406	1	39
354.576	1	42
354.747	1	44
354.918	1	42
355.089	1	44
355.260	1	46
355.431	1	47
355.602	1	44
355.773	1	55
355.944	1	52
356.115	1	51
356.286	1	44
356.457	1	49
356.628	1	37
356.799	1	44
356.970	1	53
357.141	1	43
357.311	1	51
357.482	1	40
357.653	1	51
357.824	1	57
357.995	1	57
358.166	1	39
358.337	1	47
358.508	1	61
358.679	1	53
358.850	1	51
359.021	1	40
359.192	1	53
359.363	1	45
359.533	1	54
359.704	1	45
359.875	1	50
360.046	1	50
360.217	1	40
360.388	1	63
360.559	1	46
360.730	1	47
360.901	1	56
361.072	1	60
361.243	1	57
361.414	1	44
361.584	1	50
361.755	1	55
361.926	1	53
362.097	1	63
362.268	1	53
362.439	1	48
362.610	1	60
362.781	1	48
362.952	1	44
363.123	1	55
363.293	1	52
363.464	1	65
363.635	1	63
363.806	1	49
363.977	1	54
364.148	1	51
364.319	1	51
364.490	1	51
364.661	1	48
364.832	1	53
365.002	1	58
365.173	1	66
365.344	1	67
365.515	1	48
365.686	1	45
365.857	1	56
366.028	1	59
366.199	1	53
366.370	1	54
366.540	1	40
366.711	1	40
366.882	1	45
367.053	1	52
367.224	1	64
367.395	1	64
367.566	1	66
367.737	1	64
367.908	1	69
368.078	1	58
368.249	1	52
368.420	1	58
368.591	1	60
368.762	1	62
368.933	1	54
369.104	1	45
369.274	1	51
369.445	1	55
369.616	1	58
369.787	1	56
369.958	1	58
370.129	1	50
370.300	1	67
370.471	1	58
370.641	1	62
370.812	1	56
370.983	1	63
371.154	1	48
371.325	1	56
371.496	1	57
371.667	1	61
371.837	1	46
372.008	1	52
372.179	1	54
372.350	1	68
372.521	1	66
372.692	1	60
372.863	1	51
373.033	1	39
373.204	1	49
373.375	1	71
373.546	1	64
373.717	1	62
373.888	1	68
374.059	1	62
374.229	1	56
374.400	1	47
374.571	1	57
374.742	1	63
374.913	1	67
375.084	1	60
375.254	1	68
375.425	1	57
375.596	1	62
375.767	1	60
375.938	1	57
376.109	1	58
376.279	1	61
376.450	1	66
376.621	1	63
376.792	1	65
376.963	1	57
377.134	1	67
377.304	1	57
377.475	1	54
377.646	1	65
377.817	1	61
377.988	1	59
378.159	1	69
378.329	1	71
378.500	1	59
378.671	1	76
378.842	1	58
379.013	1	53
379.184	1	55
379.354	1	64
379.525	1	68
379.696	1	67
379.867	1	73
380.038	1	61
380.209	1	73
380.379	1	63
380.550	1	47
380.721	1	73
380.892	1	69
381.063	1	76
381.233	1	76
381.404	1	67
381.575	1	72
381.746	1	54
381.917	1	75
382.087	1	63
382.258	1	65
382.429	1	63
382.600	1	76
382.771	1	66
382.941	1	65
383.112	1	67
383.283	1	75
383.454	1	66
383.625	1	54
383.795	1	65
383.966	1	75
384.137	1	75
384.308	1	75
384.479	1	78
384.649	1	69
384.820	1	84
384.991	1	72
385.162	1	67
385.333	1	69
385.503	1	72
385.674	1	66
385.845	1	71
386.016	1	70
386.187	1	67
386.357	1	79
386.528	1	79
386.699	1	73
386.870	1	75
387.041	1	70
387.211	1	77
387.382	1	86
387.553	1	83
387.724	1	62
387.894	1	78
388.065	1	77
388.236	1	80
388.407	1	77
388.578	1	73
388.748	1	71
388.919	1	85
389.090	1	73
389.261	1	72
389.431	1	80
389.602	1	83
389.773	1	77
389.944	1	85
390.114	1	83
390.285	1	75
390.456	1	75
390.627	1	75
390.798	1	76
390.968	1	71
391.139	1	85
391.310	1	73
391.481	1	80
391.651	1	84
391.822	1	66
391.993	1	75
392.164	1	70
392.334	1	82
392.505	1	74
392.676	1	88
392.847	1	89
393.017	1	87
393.188	1	76
393.359	1	75
393.530	1	81
393.700	1	77
393.871	1	73
394.042	1	71
394.213	1	84
394.383	1	81
394.554	1	83
394.725	1	84
394.896	1	84
395.066	1	85
395.237	1	75
395.408	1	82
395.579	1	86
395.749	1	81
395.920	1	82
396.091	1	87
396.262	1	77
396.432	1	77
396.603	1	99
396.774	1	103
396.945	1	87
397.115	1	76
397.286	1	89
397.457	1	89
397.627	1	82
397.798	1	83
397.969	1	73
398.140	1	74
398.310	1	92
398.481	1	94
398.652	1	96
398.823	1	80
398.993	1	65
399.164	1	79
399.335	1	84
399.505	1	83
399.676	1	83
399.847	1	73
400.018	1	78
400.188	1	76
400.359	1	87
400.530	1	81
400.700	1	89
400.871	1	74
401.042	1	75
401.213	1	71
401.383	1	84
401.554	1	87
401.725	1	83
401.895	1	71
402.066	1	80
402.237	1	92
402.408	1	79
402.578	1	86
402.749	1	85
402.920	1	87
403.090	1	78
403.261	1	87
403.432	1	73
403.603	1	89
403.773	1	89
403.944	1	94
404.115	1	88
404.285	1	90
404.456	1	85
404.627	1	88
404.797	1	78
404.968	1	79
405.139	1	76
405.310	1	87
405.480	1	84
405.651	1	82
405.822	1	87
405.992	1	81
406.163	1	84
406.334	1	78
406.504	1	83
406.675	1	92
406.846	1	90
407.016	1	81
407.187	1	96
407.358	1	79
407.528	1	86
407.699	1	71
407.870	1	95
408.041	1	90
408.211	1	102
408.382	1	75
408.553	1	84
408.723	1	91
408.894	1	97
409.065	1	90
409.235	1	80
409.406	1	93
409.577	1	87
409.747	1	88
409.918	1	96
410.089	1	88
410.259	1	91
410.430	1	78
410.601	1	78
410.771	1	92
410.942	1	99
411.113	1	95
411.283	1	90
411.454	1	84
411.625	1	88
411.795	1	102
411.966	1	90
412.137	1	86
412.307	1	81
412.478	1	88
412.649	1	91
412.819	1	86
412.990	1	86
413.161	1	98
413.331	1	74
413.502	1	93
413.672	1	90
413.843	1	83
414.014	1	82
414.184	1	93
414.355	1	82
414.526	1	85
414.696	1	87
414.867	1	84
415.038	1	69
415.208	1	83
415.379	1	80
415.550	1	97
415.720	1	84
415.891	1	82
416.062	1	89
416.232	1	82
416.403	1	88
416.573	1	88
416.744	1	79
416.915	1	84
417.085	1	83
417.256	1	90
417.427	1	85
417.597	1	90
417.768	1	81
417.939	1	94
418.109	1	89
418.280	1	92
418.450	1	79
418.621	1	77
418.792	1	91
418.962	1	76
419.133	1	89
419.304	1	87
419.474	1	85
419.645	1	83
419.815	1	85
419.986	1	83
420.157	1	88
420.327	1	79
420.498	1	99
420.669	1	85
420.839	1	91
421.010	1	90
421.180	1	89
421.351	1	89
421.522	1	81
421.692	1	93
421.863	1	90
422.033	1	100
422.204	1	73
422.375	1	76
422.545	1	89
422.716	1	82
422.886	1	90
423.057	1	96
423.228	1	70
423.398	1	76
423.569	1	76
423.740	1	85
423.910	1	73
424.081	1	74
424.251	1	74
424.422	1	93
424.593	1	76
424.763	1	82
424.934	1	88
425.104	1	80
425.275	1	81
425.445	1	78
425.616	1	79
425.787	1	69
425.957	1	78
426.128	1	79
426.298	1	88
426.469	1	76
426.640	1	75
426.810	1	85
426.981	1	84
427.151	1	79
427.322	1	83
427.493	1	82
427.663	1	74
427.834	1	74
428.004	1	88
428.175	1	74
428.345	1	90
428.516	1	72
428.687	1	68
428.857	1	74
429.028	1	76
429.198	1	78
429.369	1	83
429.540	1	77
429.710	1	65
429.881	1	92
430.051	1	82
430.222	1	75
430.392	1	85
430.563	1	82
430.734	1	85
430.904	1	82
431.075	1	80
431.245	1	60
431.416	1	86
431.586	1	59
431.757	1	82
431.927	1	64
432.098	1	81
432.269	1	64
432.439	1	85
432.610	1	81
432.780	1	82
432.951	1	77
433.121	1	87
433.292	1	79
433.462	1	68
433.633	1	72
433.804	1	77
433.974	1	77
434.145	1	89
434.315	1	72
434.486	1	77
434.656	1	74
434.827	1	68
434.997	1	66
435.168	1	76
435.339	1	73
435.509	1	79
435.680	1	76
435.850	1	77
436.021	1	80
436.191	1	76
436.362	1	81
436.532	1	84
436.703	1	74
436.873	1	77
437.044	1	67
437.214	1	70
437.385	1	73
437.556	1	64
437.726	1	92
437.897	1	82
438.067	1	64
438.238	1	83
438.408	1	84
438.579	1	65
438.749	1	70
438.920	1	70
439.090	1	75
439.261	1	76
439.431	1	66
439.602	1	75
439.772	1	71
439.943	1	90
440.113	1	66
440.284	1	72
440.455	1	81
440.625	1	77
440.796	1	75
440.966	1	64
441.137	1	66
441.307	1	79
441.478	1	73
441.648	1	67
441.819	1	71
441.989	1	69
442.160	1	80
442.330	1	68
442.501	1	75
442.671	1	67
442.842	1	59
443.012	1	65
443.183	1	79
443.353	1	54
443.524	1	66
443.694	1	78
443.865	1	64
444.035	1	73
444.206	1	65
444.376	1	64
444.547	1	81
444.717	1	72
444.888	1	53
445.058	1	68
445.229	1	60
445.399	1	63
445.570	1	63
445.740	1	67
445.911	1	64
446.081	1	58
446.252	1	84
446.422	1	63
446.593	1	71
446.763	1	63
446.934	1	62
447.104	1	65
447.275	1	72
447.445	1	72
447.616	1	73
447.786	1	59
447.957	1	72
448.127	1	68
448.298	1	77
448.468	1	59
448.639	1	67
448.809	1	65
448.979	1	69
449.150	1	68
449.320	1	68
449.491	1	64
449.661	1	59
449.832	1	51
450.002	1	71
450.173	1	66
450.343	1	66
450.514	1	66
450.684	1	56
450.855	1	67
451.025	1	64
451.196	1	68
451.366	1	61
451.537	1	56
451.707	1	58
451.878	1	54
452.048	1	64
452.218	1	68
452.389	1	72
452.559	1	68
452.730	1	63
452.900	1	68
453.071	1	41
453.241	1	51
453.412	1	56
453.582	1	62
453.753	1	62
453.923	1	70
454.093	1	64
454.264	1	59
454.434	1	52
454.605	1	67
454.775	1	67
454.946	1	52
455.116	1	57
455.287	1	46
455.457	1	38
455.628	1	49
455.798	1	63
455.968	1	59
456.139	1	50
456.309	1	49
456.480	1	52
456.650	1	45
456.821	1	54
456.991	1	48
457.161	1	56
457.332	1	60
457.502	1	54
457.673	1	57
457.843	1	56
458.014	1	52
458.184	1	46
458.355	1	43
458.525	1	61
458.695	1	60
458.866	1	58
459.036	1	53
459.207	1	57
459.377	1	47
459.548	1	60
459.718	1	49
459.888	1	50
460.059	1	42
460.229	1	62
460.400	1	55
460.570	1	48
460.740	1	57
460.911	1	56
461.081	1	64
461.252	1	41
461.422	1	54
461.593	1	46
461.763	1	57
461.933	1	60
462.104	1	58
462.274	1	60
462.445	1	56
462.615	1	41
462.785	1	53
462.956	1	51
463.126	1	67
463.297	1	46
463.467	1	49
463.638	1	43
463.808	1	47
463.978	1	48
464.149	1	40
464.319	1	49
464.490	1	60
464.660	1	47
464.830	1	46
465.001	1	54
465.171	1	64
465.342	1	46
465.512	1	45
465.682	1	48
465.853	1	49
466.023	1	47
466.194	1	47
466.364	1	52
466.534	1	53
466.705	1	43
466.875	1	40
467.045	1	50
467.216	1	58
467.386	1	46
467.557	1	41
467.727	1	42
467.897	1	37
468.068	1	43
468.238	1	49
468.409	1	43
468.579	1	47
468.749	1	49
468.920	1	44
469.090	1	47
469.260	1	39
469.431	1	43
469.601	1	53
469.772	1	42
469.942	1	32
470.112	1	42
470.283	1	40
470.453	1	44
470.623	1	49
470.794	1	33
470.964	1	38
471.135	1	42
471.305	1	30
471.475	1	50
471.646	1	36
471.816	1	46
471.986	1	46
472.157	1	47
472.327	1	26
472.497	1	43
472.668	1	44
472.838	1	40
473.009	1	39
473.179	1	42
473.349	1	33
473.520	1	49
473.690	1	44
473.860	1	32
474.031	1	43
474.201	1	42
474.371	1	47
474.542	1	48
474.712	1	33
474.882	1	50
475.053	1	49
475.223	1	38
475.394	1	50
475.564	1	44
475.734	1	36
475.905	1	51
476.075	1	27
476.245	1	42
476.416	1	52
476.586	1	47
476.756	1	42
476.927	1	52
477.097	1	42
477.267	1	39
477.438	1	48
477.608	1	37
477.778	1	31
477.949	1	34
478.119	1	55
478.289	1	53
478.460	1	49
478.630	1	46
478.800	1	48
478.971	1	41
479.141	1	30
479.311	1	31
479.482	1	43
479.652	1	40
479.822	1	44
479.993	1	47
480.163	1	45
480.333	1	40
480.504	1	45
480.674	1	31
480.844	1	36
481.015	1	36
481.185	1	38
481.355	1	45
481.525	1	40
481.696	1	42
481.866	1	31
482.036	1	33
482.207	1	33
482.377	1	43
482.547	1	45
482.718	1	35
482.888	1	38
483.058	1	36
483.229	1	19
483.399	1	36
483.569	1	39
483.740	1	32
483.910	1	34
484.080	1	43
484.250	1	26
484.421	1	29
484.591	1	38
484.761	1	36
484.932	1	38
485.102	1	43
485.272	1	40
485.443	1	51
485.613	1	38
485.783	1	44
485.953	1	32
486.124	1	45
486.294	1	23
486.464	1	32
486.635	1	42
486.805	1	36
486.975	1	37
487.146	1	40
487.316	1	31
487.486	1	47
487.656	1	21
487.827	1	36
487.997	1	26
488.167	1	25
488.338	1	35
488.508	1	30
488.678	1	20
488.848	1	36
489.019	1	28
489.189	1	27
489.359	1	27
489.529	1	37
489.700	1	26
489.870	1	40
490.040	1	23
490.211	1	13
490.381	1	38
490.551	1	31
490.721	1	35
490.892	1	29
491.062	1	36
491.232	1	25
491.402	1	33
491.573	1	24
491.743	1	25
491.913	1	30
492.084	1	42
492.254	1	18
492.424	1	27
492.594	1	19
492.765	1	15
492.935	1	26
493.105	1	21
493.275	1	27
493.446	1	28
493.616	1	28
493.786	1	20
493.956	1	24
494.127	1	28
494.297	1	15
494.467	1	17
494.637	1	16
494.808	1	29
494.978	1	16
495.148	1	19
495.318	1	28
495.489	1	23
495.659	1	19
495.829	1	26
495.999	1	19
496.170	1	34
496.340	1	24
496.510	1	30
496.680	1	27
496.851	1	20
497.021	1	13
497.191	1	17
497.361	1	18
497.532	1	16
497.702	1	24
497.872	1	23
498.042	1	23
498.213	1	21
498.383	1	32
498.553	1	16
498.723	1	12
498.894	1	29
499.064	1	21
499.234	1	23
499.404	1	33
499.574	1	29
499.745	1	32
499.915	1	31
500.085	1	21
500.255	1	28
500.426	1	33
500.596	1	25
500.766	1	25
500.936	1	29
501.106	1	14
501.277	1	32
501.447	1	24
501.617	1	29
501.787	1	14
501.958	1	23
502.128	1	16
502.298	1	25
502.468	1	19
502.638	1	27
502.809	1	14
502.979	1	13
503.149	1	19
503.319	1	12
503.489	1	27
503.660	1	21
503.830	1	25
504.000	1	18
504.170	1	27
504.340	1	15
504.511	1	28
504.681	1	9
504.851	1	24
505.021	1	25
505.192	1	11
505.362	1	20
505.532	1	20
505.702	1	26
505.872	1	11
506.043	1	19
506.213	1	20
506.383	1	16
506.553	1	33
506.723	1	26
506.893	1	27
507.064	1	24
507.234	1	13
507.404	1	16
507.574	1	20
507.744	1	16
507.915	1	29
508.085	1	34
508.255	1	24
508.425	1	14
508.595	1	25
508.766	1	20
508.936	1	4
509.106	1	33
509.276	1	29
509.446	1	14
509.616	1	15
509.787	1	16
509.957	1	24
510.127	1	19
510.297	1	23
510.467	1	14
510.638	1	22
510.808	1	-4
510.978	1	19
511.148	1	15
511.318	1	17
511.488	1	4
511.659	1	28
511.829	1	15
511.999	1	14
512.169	1	7
512.339	1	21
512.509	1	14
512.680	1	11
512.850	1	24
513.020	1	21
513.190	1	21
513.360	1	11
513.530	1	24
513.700	1	21
513.871	1	19
514.041	1	15
514.211	1	23
514.381	1	23
514.551	1	15
514.721	1	17
514.892	1	25
515.062	1	21
515.232	1	17
515.402	1	14
515.572	1	13
515.742	1	17
515.912	1	9
516.083	1	16
516.253	1	25
516.423	1	18
516.593	1	18
516.763	1	20
516.933	1	10
517.104	1	12
517.274	1	7
517.444	1	16
517.614	1	9
517.784	1	8
517.954	1	21
518.124	1	20
518.294	1	20
518.465	1	9
518.635	1	11
518.805	1	2
518.975	1	14
519.145	1	1
519.315	1	13
519.485	1	10
519.656	1	21
519.826	1	22
519.996	1	12
520.166	1	11
520.336	1	14
520.506	1	10
520.676	1	9
520.846	1	20
521.017	1	17
521.187	1	13
521.357	1	27
521.527	1	17
521.697	1	21
521.867	1	4
522.037	1	17
522.207	1	29
522.377	1	16
522.548	1	10
522.718	1	10
522.888	1	26
523.058	1	7
523.228	1	22
523.398	1	13
523.568	1	23
523.738	1	18
523.909	1	13
524.079	1	17
524.249	1	12
524.419	1	14
524.589	1	9
524.759	1	7
524.929	1	14
525.099	1	19
525.269	1	10
525.439	1	15
525.610	1	28
525.780	1	17
525.950	1	13
526.120	1	15
526.290	1	15
526.460	1	7
526.630	1	18
526.800	1	14
526.970	1	17
527.140	1	18
527.311	1	9
527.481	1	5
527.651	1	8
527.821	1	16
527.991	1	24
528.161	1	20
528.331	1	8
528.501	1	13
528.671	1	9
528.841	1	10
529.011	1	10
529.181	1	11
529.352	1	10
529.522	1	4
529.692	1	15
529.862	1	11
530.032	1	20
530.202	1	14
530.372	1	13
530.542	1	15
530.712	1	7
530.882	1	25
531.052	1	23
531.222	1	16
531.392	1	7
531.563	1	18
531.733	1	16
531.903	1	15
532.073	1	21
532.243	1	13
532.413	1	13
532.583	1	14
532.753	1	5
532.923	1	6
533.093	1	8
533.263	1	6
533.433	1	15
533.603	1	19
533.773	1	9
533.943	1	7
534.113	1	8
534.284	1	11
534.454	1	11
534.624	1	22
534.794	1	-6
534.964	1	16
535.134	1	16
535.304	1	5
535.474	1	15
535.644	1	3
535.814	1	10
535.984	1	2
536.154	1	-2
536.324	1	12
536.494	1	16
536.664	1	8
536.834	1	15
537.004	1	15
537.174	1	27
537.344	1	14
537.514	1	-1
537.685	1	0
537.855	1	20
538.025	1	7
538.195	1	2
538.365	1	18
538.535	1	15
538.705	1	7
538.875	1	11
539.045	1	12
539.215	1	17
539.385	1	11
539.555	1	11
539.725	1	12
539.895	1	2
540.065	1	20
540.235	1	18
540.405	1	4
540.575	1	15
540.745	1	-1
540.915	1	14
541.085	1	16
541.255	1	4
541.425	1	9
541.595	1	5
541.765	1	9
541.935	1	15
542.105	1	-1
542.275	1	15
542.445	1	0
542.615	1	3
542.785	1	13
542.955	1	7
543.125	1	4
543.295	1	12
543.465	1	5
543.635	1	9
543.805	1	17
543.975	1	13
544.145	1	20
544.315	1	17
544.485	1	12
544.655	1	23
544.825	1	-7
544.995	1	14
545.165	1	0
545.335	1	20
545.505	1	7
545.675	1	17
545.845	1	14
546.015	1	12
546.185	1	19
546.355	1	9
546.525	1	11
546.695	1	7
546.865	1	10
547.035	1	10
547.205	1	-3
547.375	1	17
547.545	1	19
547.715	1	6
547.885	1	13
548.055	1	1
548.225	1	9
548.395	1	-4
548.565	1	10
548.735	1	7
548.905	1	5
549.075	1	10
549.245	1	12
549.415	1	5
549.585	1	7
549.755	1	9
549.925	1	-2
550.095	1	5
550.265	1	2
550.435	1	6
550.605	1	7
550.775	1	12
550.945	1	11
551.115	1	12
551.285	1	12
551.455	1	0
551.625	1	9
551.795	1	14
551.965	1	7
552.135	1	6
552.305	1	3
552.475	1	2
552.645	1	5
552.815	1	4
552.985	1	6
553.155	1	12
553.325	1	13
553.495	1	7
553.665	1	1
553.835	1	8
554.004	1	12
554.174	1	8
554.344	1	3
554.514	1	-2
554.684	1	6
554.854	1	11
555.024	1	-1
555.194	1	9
555.364	1	6
555.534	1	3
555.704	1	5
555.874	1	17
556.044	1	15
556.214	1	9
556.384	1	3
556.554	1	23
556.724	1	6
556.894	1	9
557.064	1	-1
557.234	1	6
557.404	1	8
557.573	1	19
557.743	1	5
557.913	1	11
558.083	1	7
558.253	1	7
558.423	1	0
558.593	1	8
558.763	1	11
558.933	1	8
559.103	1	8
559.273	1	12
559.443	1	7
559.613	1	6
559.783	1	4
559.953	1	8
560.122	1	10
560.292	1	9
560.462	1	1
560.632	1	7
560.802	1	13
560.972	1	11
561.142	1	7
561.312	1	1
561.482	1	17
561.652	1	9
561.822	1	-5
561.992	1	4
562.162	1	5
562.331	1	9
562.501	1	7
562.671	1	14
562.841	1	-2
563.011	1	13
563.181	1	15
563.351	1	-3
563.521	1	7
563.691	1	2
563.861	1	11
564.031	1	7
564.201	1	16
564.370	1	8
564.540	1	10
564.710	1	3
564.880	1	17
565.050	1	10
565.220	1	0
565.390	1	11
565.560	1	15
565.730	1	-2
565.900	1	9
566.069	1	13
566.239	1	8
566.409	1	4
566.579	1	14
566.749	1	7
566.919	1	9
567.089	1	7
567.259	1	11
567.429	1	-3
567.599	1	2
567.768	1	10
567.938	1	9
568.108	1	9
568.278	1	9
568.448	1	1
568.618	1	5
568.788	1	8
568.958	1	7
569.128	1	10
569.297	1	-4
569.467	1	7
569.637	1	14
569.807	1	8
569.977	1	13
570.147	1	12
570.317	1	4
570.487	1	8
570.656	1	15
570.826	1	2
570.996	1	-5
571.166	1	9
571.336	1	-6
571.506	1	14
571.676	1	8
571.846	1	4
572.015	1	7
572.185	1	9
572.355	1	8
572.525	1	17
572.695	1	3
572.865	1	3
573.035	1	9
573.205	1	8
573.374	1	-4
573.544	1	10
573.714	1	13
573.884	1	17
574.054	1	7
574.224	1	12
574.394	1	-1
574.563	1	-1
574.733	1	3
574.903	1	9
575.073	1	-5
575.243	1	6
575.413	1	15
575.583	1	1
575.752	1	4
575.922	1	7
576.092	1	9
576.262	1	6
576.432	1	9
576.602	1	-1
576.772	1	19
576.941	1	4
577.111	1	5
577.281	1	0
577.451	1	1
577.621	1	8
577.791	1	3
577.960	1	1
578.130	1	8
578.300	1	13
578.470	1	16
578.640	1	3
578.810	1	0
578.979	1	7
579.149	1	6
579.319	1	-3
579.489	1	6
579.659	1	2
579.829	1	7
579.998	1	7
580.168	1	13
580.338	1	16
580.508	1	8
580.678	1	9
580.848	1	1
581.017	1	9
581.187	1	3
581.357	1	1
581.527	1	11
581.697	1	6
581.867	1	0
582.036	1	8
582.206	1	11
582.376	1	12
582.546	1	-1
582.716	1	5
582.885	1	-6
583.055	1	6
583.225	1	-1
583.395	1	6
583.565	1	3
583.735	1	11
583.904	1	7
584.074	1	5
584.244	1	15
584.414	1	4
584.584	1	9
584.753	1	-4
584.923	1	-1
585.093	1	-2
585.263	1	2
585.433	1	9
585.602	1	10
585.772	1	7
585.942	1	4
586.112	1	11
586.282	1	0
586.451	1	4
586.621	1	-2
586.791	1	6
586.961	1	5
587.131	1	12
587.300	1	3
587.470	1	13
587.640	1	19
587.810	1	2
587.980	1	-1
588.149	1	5
588.319	1	6
588.489	1	-2
588.659	1	5
588.829	1	3
588.998	1	14
589.168	1	8
589.338	1	0
589.508	1	11
589.677	1	0
589.847	1	-5
590.017	1	16
590.187	1	0
590.357	1	19
590.526	1	16
590.696	1	4
590.866	1	9
591.036	1	1
591.205	1	13
591.375	1	-4
591.545	1	1
591.715	1	21
591.885	1	2
592.054	1	3
592.224	1	2
592.394	1	6
592.564	1	10
592.733	1	14
592.903	1	6
593.073	1	3
593.243	1	7
593.412	1	8
593.582	1	0
593.752	1	6
593.922	1	4
594.091	1	3
594.261	1	6
594.431	1	8
594.601	1	7
594.771	1	9
594.940	1	5
595.110	1	0
595.280	1	9
595.450	1	13
595.619	1	13
595.789	1	-4
595.959	1	9
596.129	1	5
596.298	1	2
596.468	1	5
596.638	1	3
596.808	1	2
596.977	1	6
597.147	1	8
597.317	1	4
597.487	1	18
597.656	1	9
597.826	1	5
597.996	1	9
598.166	1	13
598.335	1	-2
598.505	1	5
598.675	1	8
598.844	1	2
599.014	1	4
599.184	1	6
599.354	1	0
599.523	1	5
599.693	1	6
599.863	1	8
600.033	1	13
600.202	1	3
600.372	1	7
600.542	1	6
600.712	1	-1
600.881	1	3
601.051	1	20
601.221	1	6
601.390	1	6
601.560	1	3
601.730	1	9
601.900	1	9
602.069	1	14
602.239	1	4
602.409	1	-2
602.578	1	4
602.748	1	11
602.918	1	14
603.088	1	6
603.257	1	-2
603.427	1	2
603.597	1	10
603.767	1	0
603.936	1	8
604.106	1	7
604.276	1	8
604.445	1	3
604.615	1	9
604.785	1	-8
604.954	1	5
605.124	1	-4
605.294	1	2
605.464	1	3
605.633	1	7
605.803	1	14
605.973	1	-6
606.142	1	5
606.312	1	6
606.482	1	8
606.652	1	5
606.821	1	2
606.991	1	10
607.161	1	15
607.330	1	12
607.500	1	7
607.670	1	-5
607.839	1	16
608.009	1	16
608.179	1	6
608.348	1	9
608.518	1	4
608.688	1	11
608.858	1	2
609.027	1	0
609.197	1	0
609.367	1	20
609.536	1	5
609.706	1	8
609.876	1	5
610.045	1	8
610.215	1	7
610.385	1	-1
610.554	1	13
610.724	1	9
610.894	1	6
611.063	1	7
611.233	1	2
611.403	1	9
611.572	1	3
611.742	1	7
611.912	1	0
612.081	1	6
612.251	1	11
612.421	1	7
612.590	1	6
612.760	1	9
612.930	1	5
613.099	1	6
613.269	1	15
613.439	1	6
613.608	1	3
613.778	1	14
613.948	1	7
614.117	1	16
614.287	1	10
614.457	1	13
614.626	1	-5
614.796	1	14
614.966	1	5
615.135	1	3
615.305	1	15
615.475	1	12
615.644	1	11
615.814	1	6
615.984	1	6
616.153	1	2
616.323	1	6
616.493	1	4
616.662	1	21
616.832	1	7
617.002	1	7
617.171	1	5
617.341	1	8
617.511	1	2
617.680	1	-1
617.850	1	13
618.019	1	17
618.189	1	19
618.359	1	7
618.528	1	7
618.698	1	9
618.868	1	-5
619.037	1	10
619.207	1	2
619.377	1	-1
619.546	1	4
619.716	1	12
619.885	1	1
620.055	1	-2
620.225	1	10
620.394	1	1
620.564	1	11
620.734	1	11
620.903	1	4
621.073	1	12
621.242	1	16
621.412	1	4
621.582	1	7
621.751	1	9
621.921	1	20
622.091	1	-1
622.260	1	5
622.430	1	6
622.599	1	-2
622.769	1	18
622.939	1	7
623.108	1	7
623.278	1	-2
623.448	1	1
623.617	1	4
623.787	1	15
623.956	1	16
624.126	1	13
624.296	1	9
624.465	1	4
624.635	1	21
624.804	1	8
624.974	1	9
625.144	1	0
625.313	1	4
625.483	1	3
625.652	1	4
625.822	1	1
625.992	1	9
626.161	1	22
626.331	1	8
626.501	1	17
626.670	1	14
626.840	1	1
627.009	1	1
627.179	1	15
627.348	1	10
627.518	1	2
627.688	1	17
627.857	1	16
628.027	1	15
628.196	1	8
628.366	1	9
628.536	1	4
628.705	1	2
628.875	1	10
629.044	1	6
629.214	1	15
629.384	1	15
629.553	1	15
629.723	1	8
629.892	1	8
630.062	1	10
630.232	1	-1
630.401	1	13
630.571	1	8
630.740	1	16
630.910	1	16
631.079	1	12
631.249	1	12
631.419	1	11
631.588	1	-3
631.758	1	16
631.927	1	12
632.097	1	7
632.266	1	0
632.436	1	7
632.606	1	0
632.775	1	12
632.945	1	14
633.114	1	13
633.284	1	16
633.453	1	5
633.623	1	10
633.793	1	9
633.962	1	4
634.132	1	18
634.301	1	6
634.471	1	14
634.640	1	11
634.810	1	11
634.979	1	13
635.149	1	16
635.319	1	9
635.488	1	10
635.658	1	10
635.827	1	6
635.997	1	4
636.166	1	0
636.336	1	5
636.505	1	11
636.675	1	12
636.845	1	7
637.014	1	17
637.184	1	11
637.353	1	18
637.523	1	11
637.692	1	7
637.862	1	10
638.031	1	11
638.201	1	17
638.370	1	7
638.540	1	12
638.710	1	6
638.879	1	3
639.049	1	4
639.218	1	16
639.388	1	2
639.557	1	8
639.727	1	9
639.896	1	12
640.066	1	6
640.235	1	11
640.405	1	17
640.574	1	10
640.744	1	2
640.914	1	12
641.083	1	-3
641.253	1	7
641.422	1	10
641.592	1	24
641.761	1	8
641.931	1	9
642.100	1	25
642.270	1	10
642.439	1	10
642.609	1	10
642.778	1	12
642.948	1	11
643.117	1	18
643.287	1	8
643.456	1	7
643.626	1	16
643.795	1	11
643.965	1	20
644.134	1	8
644.304	1	12
644.473	1	17
644.643	1	15
644.812	1	7
644.982	1	23
645.151	1	15
645.321	1	0
645.490	1	17
645.660	1	10
645.829	1	8
645.999	1	3
646.168	1	19
646.338	1	14
646.507	1	15
646.677	1	14
646.846	1	16
647.016	1	-6
647.185	1	13
647.355	1	-11
647.524	1	20
647.694	1	17
647.863	1	14
648.033	1	9
648.202	1	22
648.372	1	5
648.541	1	4
648.711	1	9
648.880	1	5
649.050	1	0
649.219	1	17
649.389	1	33
649.558	1	14
649.728	1	14
649.897	1	4
650.067	1	14
650.236	1	5
650.406	1	6
650.575	1	21
650.745	1	22
650.914	1	11
651.084	1	14
651.253	1	17
651.423	1	13
651.592	1	18
651.762	1	10
651.931	1	18
652.101	1	9
652.270	1	23
652.440	1	20
652.609	1	4
652.778	1	6
652.948	1	20
653.117	1	9
653.287	1	11
653.456	1	14
653.626	1	22
653.795	1	14
653.965	1	16
654.134	1	17
654.304	1	0
654.473	1	19
654.643	1	11
654.812	1	18
654.982	1	21
655.151	1	8
655.320	1	12
655.490	1	6
655.659	1	11
655.829	1	6
655.998	1	9
656.168	1	5
656.337	1	16
656.507	1	14
656.676	1	16
656.846	1	14
657.015	1	15
657.184	1	18
657.354	1	15
657.523	1	20
657.693	1	16
657.862	1	18
658.032	1	5
658.201	1	13
658.371	1	19
658.540	1	11
658.709	1	5
658.879	1	18
659.048	1	10
659.218	1	9
659.387	1	10
659.557	1	13
659.726	1	14
659.895	1	10
660.065	1	4
660.234	1	19
660.404	1	16
660.573	1	16
660.743	1	16
660.912	1	14
661.081	1	21
661.251	1	6
661.420	1	19
661.590	1	19
661.759	1	19
661.929	1	21
662.098	1	25
662.267	1	9
662.437	1	15
662.606	1	18
662.776	1	16
662.945	1	12
663.115	1	13
663.284	1	16
663.453	1	14
663.623	1	22
663.792	1	17
663.962	1	12
664.131	1	11
664.300	1	27
664.470	1	18
664.639	1	23
664.809	1	16
664.978	1	17
665.148	1	13
665.317	1	14
665.486	1	32
665.656	1	13
665.825	1	22
665.995	1	9
666.164	1	15
666.333	1	15
666.503	1	4
666.672	1	4
666.842	1	11
667.011	1	12
667.180	1	20
667.350	1	11
667.519	1	21
667.689	1	19
667.858	1	15
668.027	1	31
668.197	1	17
668.366	1	3
668.536	1	13
668.705	1	10
668.874	1	16
669.044	1	11
669.213	1	19
669.382	1	21
669.552	1	21
669.721	1	15
669.891	1	23
670.060	1	28
670.229	1	34
670.399	1	7
670.568	1	19
670.738	1	22
670.907	1	13
671.076	1	14
671.246	1	24
671.415	1	18
671.584	1	12
671.754	1	10
671.923	1	11
672.093	1	7
672.262	1	0
672.431	1	18
672.601	1	8
672.770	1	9
672.939	1	18
673.109	1	11
673.278	1	17
673.448	1	22
673.617	1	3
673.786	1	23
