325.333	1	5
325.504	1	8
325.675	1	3
325.846	1	5
326.017	1	4
326.188	1	7
326.359	1	4
326.531	1	-13
326.702	1	-5
326.873	1	6
327.044	1	8
327.215	1	0
327.386	1	6
327.557	1	0
327.728	1	-3
327.899	1	0
328.070	1	8
328.241	1	8
328.412	1	1
328.583	1	3
328.754	1	5
328.926	1	20
329.097	1	-8
329.268	1	16
329.439	1	6
329.610	1	7
329.781	1	-3
329.952	1	7
330.123	1	3
330.294	1	-4
330.465	1	3
330.636	1	12
330.807	1	-10
330.978	1	0
331.149	1	3
331.320	1	4
331.492	1	2
331.663	1	3
331.834	1	16
332.005	1	7
332.176	1	17
332.347	1	9
332.518	1	-4
332.689	1	10
332.860	1	-3
333.031	1	5
333.202	1	-1
333.373	1	5
333.544	1	6
333.715	1	4
333.886	1	-8
334.057	1	7
334.228	1	5
334.399	1	-3
334.570	1	10
334.741	1	3
334.912	1	8
335.084	1	19
335.255	1	10
335.426	1	10
335.597	1	-1
335.768	1	-4
335.939	1	9
336.110	1	5
336.281	1	-1
336.452	1	0
336.623	1	-3
336.794	1	9
336.965	1	9
337.136	1	15
337.307	1	0
337.478	1	-4
337.649	1	-1
337.820	1	1
337.991	1	-2
338.162	1	0
338.333	1	4
338.504	1	5
338.675	1	7
338.846	1	8
339.017	1	5
339.188	1	-4
339.359	1	-1
339.530	1	5
339.701	1	9
339.872	1	7
340.043	1	1
340.214	1	-3
340.385	1	10
340.556	1	-10
340.727	1	15
340.898	1	8
341.069	1	-3
341.240	1	12
341.411	1	6
341.582	1	7
341.753	1	-7
341.924	1	2
342.095	1	10
342.266	1	3
342.437	1	13
342.608	1	5
342.779	1	9
342.950	1	8
343.121	1	4
343.292	1	2
343.463	1	8
343.634	1	4
343.805	1	10
343.976	1	1
344.147	1	5
344.318	1	2
344.489	1	3
344.660	1	5
344.831	1	2
345.002	1	-1
345.173	1	21
345.344	1	2
345.515	1	17
345.686	1	0
345.857	1	6
346.028	1	8
346.199	1	6
346.370	1	-3
346.541	1	10
346.712	1	-6
346.883	1	7
347.054	1	8
347.225	1	5
347.396	1	17
347.567	1	4
347.738	1	3
347.909	1	13
348.080	1	-3
348.251	1	11
348.422	1	8
348.593	1	3
348.764	1	4
348.935	1	7
349.106	1	0
349.277	1	4
349.448	1	16
349.619	1	4
349.790	1	1
349.961	1	0
350.132	1	7
350.303	1	2
350.474	1	11
350.645	1	18
350.816	1	9
350.987	1	15
351.157	1	-7
351.328	1	5
351.499	1	9
351.670	1	-1
351.841	1	7
352.012	1	17
352.183	1	21
352.354	1	12
352.525	1	14
352.696	1	15
352.867	1	7
353.038	1	14
353.209	1	6
353.380	1	8
353.551	1	2
353.722	1	9
353.893	1	7
354.064	1	26
354.235	1	5
354.406	1	2
354.576	1	9
354.747	1	5
354.918	1	16
355.089	1	3
355.260	1	12
355.431	1	12
355.602	1	9
355.773	1	8
355.944	1	13
356.115	1	6
356.286	1	14
356.457	1	11
356.628	1	7
356.799	1	-1
356.970	1	19
357.141	1	7
357.311	1	5
357.482	1	7
357.653	1	14
357.824	1	12
357.995	1	11
358.166	1	-3
358.337	1	5
358.508	1	16
358.679	1	5
358.850	1	10
359.021	1	1
359.192	1	15
359.363	1	12
359.533	1	0
359.704	1	3
359.875	1	6
360.046	1	11
360.217	1	0
360.388	1	12
360.559	1	4
360.730	1	8
360.901	1	5
361.072	1	21
361.243	1	10
361.414	1	8
361.584	1	12
361.755	1	12
361.926	1	1
362.097	1	7
362.268	1	12
362.439	1	7
362.610	1	22
362.781	1	7
362.952	1	-3
363.123	1	3
363.293	1	4
363.464	1	19
363.635	1	17
363.806	1	1
363.977	1	4
364.148	1	8
364.319	1	8
364.490	1	10
364.661	1	6
364.832	1	6
365.002	1	8
365.173	1	8
365.344	1	21
365.515	1	3
365.686	1	14
365.857	1	7
366.028	1	10
366.199	1	5
366.370	1	5
366.540	1	4
366.711	1	-2
366.882	1	2
367.053	1	-7
367.224	1	19
367.395	1	14
367.566	1	9
367.737	1	14
367.908	1	12
368.078	1	10
368.249	1	14
368.420	1	6
368.591	1	9
368.762	1	8
368.933	1	16
369.104	1	7
369.274	1	6
369.445	1	3
369.616	1	8
369.787	1	24
369.958	1	17
370.129	1	0
370.300	1	14
370.471	1	6
370.641	1	14
370.812	1	12
370.983	1	17
371.154	1	6
371.325	1	15
371.496	1	11
371.667	1	20
371.837	1	-1
372.008	1	7
372.179	1	6
372.350	1	19
372.521	1	7
372.692	1	12
372.863	1	12
373.033	1	-1
373.204	1	9
373.375	1	15
373.546	1	11
373.717	1	9
373.888	1	23
374.059	1	22
374.229	1	15
374.400	1	4
374.571	1	11
374.742	1	16
374.913	1	12
375.084	1	11
375.254	1	18
375.425	1	17
375.596	1	8
375.767	1	8
375.938	1	11
376.109	1	15
376.279	1	-3
376.450	1	12
376.621	1	13
376.792	1	6
376.963	1	3
377.134	1	14
377.304	1	13
377.475	1	5
377.646	1	7
377.817	1	10
377.988	1	5
378.159	1	8
378.329	1	18
378.500	1	14
378.671	1	12
378.842	1	5
379.013	1	0
379.184	1	16
379.354	1	22
379.525	1	7
379.696	1	20
379.867	1	20
380.038	1	5
380.209	1	22
380.379	1	12
380.550	1	6
380.721	1	16
380.892	1	14
381.063	1	11
381.233	1	15
381.404	1	13
381.575	1	20
381.746	1	16
381.917	1	16
382.087	1	20
382.258	1	9
382.429	1	14
382.600	1	24
382.771	1	11
382.941	1	9
383.112	1	8
383.283	1	10
383.454	1	18
383.625	1	15
383.795	1	12
383.966	1	8
384.137	1	20
384.308	1	16
384.479	1	13
384.649	1	14
384.820	1	8
384.991	1	13
385.162	1	12
385.333	1	8
385.503	1	2
385.674	1	1
385.845	1	23
386.016	1	11
386.187	1	12
386.357	1	23
386.528	1	12
386.699	1	12
386.870	1	13
387.041	1	22
387.211	1	19
387.382	1	21
387.553	1	18
387.724	1	-2
387.894	1	20
388.065	1	19
388.236	1	14
388.407	1	9
388.578	1	5
388.748	1	15
388.919	1	11
389.090	1	13
389.261	1	9
389.431	1	5
389.602	1	16
389.773	1	10
389.944	1	22
390.114	1	8
390.285	1	26
390.456	1	8
390.627	1	8
390.798	1	5
390.968	1	12
391.139	1	18
391.310	1	-1
391.481	1	14
391.651	1	19
391.822	1	12
391.993	1	6
392.164	1	11
392.334	1	16
392.505	1	7
392.676	1	18
392.847	1	19
393.017	1	19
393.188	1	25
393.359	1	4
393.530	1	10
393.700	1	8
393.871	1	3
394.042	1	-1
394.213	1	6
394.383	1	18
394.554	1	14
394.725	1	22
394.896	1	13
395.066	1	16
395.237	1	6
395.408	1	13
395.579	1	5
395.749	1	7
395.920	1	12
396.091	1	21
396.262	1	13
396.432	1	16
396.603	1	21
396.774	1	27
396.945	1	9
397.115	1	20
397.286	1	3
397.457	1	8
397.627	1	12
397.798	1	20
397.969	1	5
398.140	1	6
398.310	1	16
398.481	1	16
398.652	1	8
398.823	1	11
398.993	1	10
399.164	1	22
399.335	1	20
399.505	1	10
399.676	1	20
399.847	1	9
400.018	1	12
400.188	1	15
400.359	1	3
400.530	1	6
400.700	1	18
400.871	1	15
401.042	1	10
401.213	1	13
401.383	1	12
401.554	1	25
401.725	1	18
401.895	1	9
402.066	1	17
402.237	1	20
402.408	1	15
402.578	1	19
402.749	1	16
402.920	1	23
403.090	1	6
403.261	1	8
403.432	1	17
403.603	1	13
403.773	1	28
403.944	1	27
404.115	1	20
404.285	1	18
404.456	1	7
404.627	1	13
404.797	1	13
404.968	1	2
405.139	1	9
405.310	1	22
405.480	1	18
405.651	1	19
405.822	1	15
405.992	1	9
406.163	1	7
406.334	1	13
406.504	1	8
406.675	1	17
406.846	1	12
407.016	1	30
407.187	1	22
407.358	1	7
407.528	1	6
407.699	1	7
407.870	1	-2
408.041	1	12
408.211	1	36
408.382	1	11
408.553	1	4
408.723	1	16
408.894	1	10
409.065	1	20
409.235	1	24
409.406	1	15
409.577	1	14
409.747	1	19
409.918	1	8
410.089	1	6
410.259	1	13
410.430	1	13
410.601	1	9
410.771	1	10
410.942	1	32
411.113	1	18
411.283	1	13
411.454	1	19
411.625	1	21
411.795	1	18
411.966	1	11
412.137	1	16
412.307	1	7
412.478	1	10
412.649	1	19
412.819	1	8
412.990	1	9
413.161	1	21
413.331	1	11
413.502	1	16
413.672	1	11
413.843	1	11
414.014	1	11
414.184	1	18
414.355	1	22
414.526	1	22
414.696	1	19
414.867	1	22
415.038	1	1
415.208	1	17
415.379	1	22
415.550	1	17
415.720	1	17
415.891	1	11
416.062	1	8
416.232	1	22
416.403	1	9
416.573	1	17
416.744	1	9
416.915	1	15
417.085	1	16
417.256	1	19
417.427	1	18
417.597	1	16
417.768	1	7
417.939	1	22
418.109	1	15
418.280	1	17
418.450	1	7
418.621	1	-7
418.792	1	11
418.962	1	20
419.133	1	21
419.304	1	10
419.474	1	14
419.645	1	17
419.815	1	12
419.986	1	12
420.157	1	12
420.327	1	18
420.498	1	33
420.669	1	14
420.839	1	24
421.010	1	15
421.180	1	21
421.351	1	13
421.522	1	20
421.692	1	16
421.863	1	21
422.033	1	20
422.204	1	19
422.375	1	7
422.545	1	25
422.716	1	12
422.886	1	9
423.057	1	19
423.228	1	20
423.398	1	5
423.569	1	19
423.740	1	8
423.910	1	11
424.081	1	16
424.251	1	16
424.422	1	13
424.593	1	11
424.763	1	14
424.934	1	13
425.104	1	9
425.275	1	11
425.445	1	9
425.616	1	13
425.787	1	8
425.957	1	19
426.128	1	23
426.298	1	14
426.469	1	8
426.640	1	7
426.810	1	18
426.981	1	14
427.151	1	13
427.322	1	23
427.493	1	14
427.663	1	15
427.834	1	3
428.004	1	20
428.175	1	9
428.345	1	18
428.516	1	12
428.687	1	14
428.857	1	9
429.028	1	11
429.198	1	11
429.369	1	25
429.540	1	14
429.710	1	2
429.881	1	15
430.051	1	10
430.222	1	3
430.392	1	11
430.563	1	26
430.734	1	21
430.904	1	15
431.075	1	8
431.245	1	11
431.416	1	24
431.586	1	20
431.757	1	16
431.927	1	9
432.098	1	12
432.269	1	7
432.439	1	16
432.610	1	12
432.780	1	23
432.951	1	12
433.121	1	17
433.292	1	23
433.462	1	21
433.633	1	23
433.804	1	23
433.974	1	9
434.145	1	25
434.315	1	6
434.486	1	9
434.656	1	13
434.827	1	12
434.997	1	7
435.168	1	18
435.339	1	21
435.509	1	8
435.680	1	14
435.850	1	15
436.021	1	2
436.191	1	12
436.362	1	17
436.532	1	19
436.703	1	16
436.873	1	16
437.044	1	6
437.214	1	10
437.385	1	9
437.556	1	8
437.726	1	21
437.897	1	27
438.067	1	14
438.238	1	10
438.408	1	24
438.579	1	14
438.749	1	1
438.920	1	12
439.090	1	13
439.261	1	3
439.431	1	10
439.602	1	12
439.772	1	9
439.943	1	21
440.113	1	14
440.284	1	9
440.455	1	14
440.625	1	20
440.796	1	11
440.966	1	8
441.137	1	17
441.307	1	7
441.478	1	16
441.648	1	19
441.819	1	17
441.989	1	14
442.160	1	13
442.330	1	22
442.501	1	12
442.671	1	8
442.842	1	0
443.012	1	0
443.183	1	14
443.353	1	2
443.524	1	12
443.694	1	20
443.865	1	13
444.035	1	15
444.206	1	8
444.376	1	13
444.547	1	19
444.717	1	10
444.888	1	4
445.058	1	27
445.229	1	17
445.399	1	8
445.570	1	7
445.740	1	5
445.911	1	3
446.081	1	-5
446.252	1	18
446.422	1	11
446.593	1	12
446.763	1	11
446.934	1	14
447.104	1	4
447.275	1	14
447.445	1	7
447.616	1	17
447.786	1	13
447.957	1	15
448.127	1	13
448.298	1	17
448.468	1	12
448.639	1	16
448.809	1	12
448.979	1	1
449.150	1	17
449.320	1	10
449.491	1	13
449.661	1	-6
449.832	1	4
450.002	1	15
450.173	1	15
450.343	1	15
450.514	1	18
450.684	1	11
450.855	1	17
451.025	1	10
451.196	1	8
451.366	1	9
451.537	1	13
451.707	1	4
451.878	1	16
452.048	1	17
452.218	1	24
452.389	1	12
452.559	1	5
452.730	1	21
452.900	1	18
453.071	1	1
453.241	1	8
453.412	1	1
453.582	1	4
453.753	1	16
453.923	1	10
454.093	1	18
454.264	1	14
454.434	1	9
454.605	1	11
454.775	1	8
454.946	1	5
455.116	1	10
455.287	1	4
455.457	1	2
455.628	1	-2
455.798	1	13
455.968	1	22
456.139	1	12
456.309	1	12
456.480	1	4
456.650	1	-1
456.821	1	0
456.991	1	11
457.161	1	7
457.332	1	4
457.502	1	1
457.673	1	16
457.843	1	20
458.014	1	7
458.184	1	5
458.355	1	11
458.525	1	13
458.695	1	10
458.866	1	4
459.036	1	8
459.207	1	7
459.377	1	7
459.548	1	14
459.718	1	-2
459.888	1	6
460.059	1	15
460.229	1	14
460.400	1	18
460.570	1	17
460.740	1	11
460.911	1	1
461.081	1	9
461.252	1	11
461.422	1	5
461.593	1	2
461.763	1	11
461.933	1	24
462.104	1	15
462.274	1	9
462.445	1	11
462.615	1	11
462.785	1	9
462.956	1	7
463.126	1	6
463.297	1	8
463.467	1	6
463.638	1	19
463.808	1	7
463.978	1	0
464.149	1	1
464.319	1	2
464.490	1	24
464.660	1	8
464.830	1	0
465.001	1	2
465.171	1	8
465.342	1	12
465.512	1	8
465.682	1	8
465.853	1	2
466.023	1	13
466.194	1	4
466.364	1	26
466.534	1	21
466.705	1	11
466.875	1	5
467.045	1	0
467.216	1	20
467.386	1	2
467.557	1	6
467.727	1	7
467.897	1	10
468.068	1	11
468.238	1	8
468.409	1	6
468.579	1	8
468.749	1	6
468.920	1	-2
469.090	1	7
469.260	1	-3
469.431	1	0
469.601	1	12
469.772	1	12
469.942	1	2
470.112	1	15
470.283	1	9
470.453	1	19
470.623	1	6
470.794	1	-4
470.964	1	11
471.135	1	12
471.305	1	-4
471.475	1	11
471.646	1	5
471.816	1	14
471.986	1	4
472.157	1	19
472.327	1	-7
472.497	1	7
472.668	1	4
472.838	1	14
473.009	1	15
473.179	1	3
473.349	1	9
473.520	1	13
473.690	1	10
473.860	1	4
474.031	1	7
474.201	1	4
474.371	1	11
474.542	1	9
474.712	1	12
474.882	1	10
475.053	1	27
475.223	1	12
475.394	1	12
475.564	1	3
475.734	1	9
475.905	1	18
476.075	1	6
476.245	1	14
476.416	1	7
476.586	1	13
476.756	1	8
476.927	1	19
477.097	1	8
477.267	1	5
477.438	1	14
477.608	1	10
477.778	1	3
477.949	1	11
478.119	1	16
478.289	1	15
478.460	1	8
478.630	1	4
478.800	1	12
478.971	1	9
479.141	1	8
479.311	1	-4
479.482	1	11
479.652	1	7
479.822	1	-2
479.993	1	12
480.163	1	15
480.333	1	14
480.504	1	14
480.674	1	6
480.844	1	-9
481.015	1	9
481.185	1	5
481.355	1	14
481.525	1	-4
481.696	1	4
481.866	1	4
482.036	1	16
482.207	1	6
482.377	1	0
482.547	1	15
482.718	1	3
482.888	1	9
483.058	1	4
483.229	1	2
483.399	1	6
483.569	1	13
483.740	1	12
483.910	1	10
484.080	1	3
484.250	1	4
484.421	1	1
484.591	1	8
484.761	1	14
484.932	1	9
485.102	1	6
485.272	1	16
485.443	1	16
485.613	1	10
485.783	1	15
485.953	1	7
486.124	1	8
486.294	1	13
486.464	1	9
486.635	1	12
486.805	1	1
486.975	1	9
487.146	1	12
487.316	1	7
487.486	1	4
487.656	1	3
487.827	1	8
487.997	1	-3
488.167	1	4
488.338	1	10
488.508	1	2
488.678	1	4
488.848	1	14
489.019	1	1
489.189	1	6
489.359	1	5
489.529	1	1
489.700	1	7
489.870	1	17
490.040	1	-3
490.211	1	0
490.381	1	14
490.551	1	9
490.721	1	6
490.892	1	5
491.062	1	8
491.232	1	16
491.402	1	4
491.573	1	0
491.743	1	-2
491.913	1	-4
492.084	1	9
492.254	1	10
492.424	1	14
492.594	1	-1
492.765	1	5
492.935	1	-2
493.105	1	16
493.275	1	9
493.446	1	14
493.616	1	5
493.786	1	3
493.956	1	3
494.127	1	-2
494.297	1	0
494.467	1	3
494.637	1	14
494.808	1	0
494.978	1	-7
495.148	1	6
495.318	1	6
495.489	1	6
495.659	1	7
495.829	1	4
495.999	1	-3
496.170	1	7
496.340	1	11
496.510	1	12
496.680	1	-3
496.851	1	9
497.021	1	3
497.191	1	-3
497.361	1	4
497.532	1	5
497.702	1	2
497.872	1	-2
498.042	1	7
498.213	1	-2
498.383	1	12
498.553	1	0
498.723	1	10
498.894	1	4
499.064	1	8
499.234	1	8
499.404	1	4
499.574	1	10
499.745	1	13
499.915	1	4
500.085	1	1
500.255	1	20
500.426	1	-1
500.596	1	11
500.766	1	4
500.936	1	6
501.106	1	-6
501.277	1	11
501.447	1	4
501.617	1	3
501.787	1	4
501.958	1	-3
502.128	1	2
502.298	1	5
502.468	1	8
502.638	1	3
502.809	1	11
502.979	1	11
503.149	1	-3
503.319	1	4
503.489	1	4
503.660	1	12
503.830	1	11
504.000	1	20
504.170	1	0
504.340	1	-5
504.511	1	14
504.681	1	1
504.851	1	7
505.021	1	9
505.192	1	10
505.362	1	10
505.532	1	8
505.702	1	5
505.872	1	5
506.043	1	-5
506.213	1	-6
506.383	1	12
506.553	1	7
506.723	1	2
506.893	1	5
507.064	1	12
507.234	1	-3
507.404	1	1
507.574	1	1
507.744	1	7
507.915	1	-1
508.085	1	11
508.255	1	12
508.425	1	5
508.595	1	7
508.766	1	1
508.936	1	-10
509.106	1	9
509.276	1	5
509.446	1	3
509.616	1	5
509.787	1	6
509.957	1	9
510.127	1	4
510.297	1	3
510.467	1	-6
510.638	1	5
510.808	1	-6
510.978	1	3
511.148	1	13
511.318	1	7
511.488	1	-3
511.659	1	3
511.829	1	0
511.999	1	5
512.169	1	1
512.339	1	4
512.509	1	-2
512.680	1	-1
512.850	1	5
513.020	1	6
513.190	1	2
513.360	1	1
513.530	1	5
513.700	1	13
513.871	1	1
514.041	1	5
514.211	1	10
514.381	1	9
514.551	1	1
514.721	1	-2
514.892	1	7
515.062	1	9
515.232	1	7
515.402	1	-7
515.572	1	0
515.742	1	-1
515.912	1	9
516.083	1	3
516.253	1	2
516.423	1	4
516.593	1	4
516.763	1	12
516.933	1	-6
517.104	1	5
517.274	1	5
517.444	1	9
517.614	1	1
517.784	1	-2
517.954	1	7
518.124	1	-1
518.294	1	-3
518.465	1	-3
518.635	1	2
518.805	1	-7
518.975	1	3
519.145	1	-6
519.315	1	-4
519.485	1	-2
519.656	1	14
519.826	1	0
519.996	1	-5
520.166	1	10
520.336	1	15
520.506	1	5
520.676	1	0
520.846	1	4
521.017	1	1
521.187	1	9
521.357	1	17
521.527	1	9
521.697	1	-4
521.867	1	0
522.037	1	6
522.207	1	4
522.377	1	0
522.548	1	1
522.718	1	3
522.888	1	8
523.058	1	8
523.228	1	9
523.398	1	4
523.568	1	9
523.738	1	0
523.909	1	6
524.079	1	-1
524.249	1	-1
524.419	1	-3
524.589	1	4
524.759	1	-3
524.929	1	-1
525.099	1	8
525.269	1	16
525.439	1	3
525.610	1	29
525.780	1	1
525.950	1	9
526.120	1	-2
526.290	1	2
526.460	1	-8
526.630	1	3
526.800	1	2
526.970	1	9
527.140	1	19
527.311	1	-2
527.481	1	-15
527.651	1	13
527.821	1	-8
527.991	1	20
528.161	1	13
528.331	1	7
528.501	1	3
528.671	1	-3
528.841	1	7
529.011	1	1
529.181	1	-6
529.352	1	0
529.522	1	-1
529.692	1	1
529.862	1	3
530.032	1	7
530.202	1	11
530.372	1	0
530.542	1	-2
530.712	1	7
530.882	1	7
531.052	1	-1
531.222	1	6
531.392	1	-2
531.563	1	-2
531.733	1	6
531.903	1	3
532.073	1	6
532.243	1	6
532.413	1	6
532.583	1	-6
532.753	1	1
532.923	1	-6
533.093	1	2
533.263	1	3
533.433	1	3
533.603	1	13
533.773	1	0
533.943	1	-2
534.113	1	0
534.284	1	4
534.454	1	5
534.624	1	4
534.794	1	-7
534.964	1	9
535.134	1	-7
535.304	1	7
535.474	1	9
535.644	1	-2
535.814	1	-8
535.984	1	-6
536.154	1	1
536.324	1	2
536.494	1	8
536.664	1	7
536.834	1	3
537.004	1	4
537.174	1	10
537.344	1	-9
537.514	1	-6
537.685	1	1
537.855	1	-4
538.025	1	4
538.195	1	5
538.365	1	10
538.535	1	2
538.705	1	-3
538.875	1	13
539.045	1	3
539.215	1	8
539.385	1	2
539.555	1	5
539.725	1	-4
539.895	1	4
540.065	1	15
540.235	1	11
540.405	1	0
540.575	1	-6
540.745	1	19
540.915	1	4
541.085	1	2
541.255	1	2
541.425	1	11
541.595	1	2
541.765	1	1
541.935	1	1
542.105	1	-3
542.275	1	5
542.445	1	-8
542.615	1	1
542.785	1	5
542.955	1	3
543.125	1	0
543.295	1	0
543.465	1	5
543.635	1	3
543.805	1	14
543.975	1	6
544.145	1	8
544.315	1	-2
544.485	1	9
544.655	1	6
544.825	1	-16
544.995	1	-3
545.165	1	-4
545.335	1	1
545.505	1	-6
545.675	1	4
545.845	1	2
546.015	1	5
546.185	1	9
546.355	1	12
546.525	1	4
546.695	1	-2
546.865	1	-4
547.035	1	2
547.205	1	-7
547.375	1	5
547.545	1	7
547.715	1	0
547.885	1	3
548.055	1	-2
548.225	1	2
548.395	1	-2
548.565	1	5
548.735	1	9
548.905	1	3
549.075	1	7
549.245	1	1
549.415	1	-6
549.585	1	10
549.755	1	2
549.925	1	1
550.095	1	4
550.265	1	1
550.435	1	-7
550.605	1	6
550.775	1	8
550.945	1	6
551.115	1	6
551.285	1	5
551.455	1	-8
551.625	1	7
551.795	1	16
551.965	1	2
552.135	1	2
552.305	1	0
552.475	1	-4
552.645	1	2
552.815	1	-5
552.985	1	6
553.155	1	2
553.325	1	8
553.495	1	6
553.665	1	10
553.835	1	-4
554.004	1	4
554.174	1	-4
554.344	1	11
554.514	1	-7
554.684	1	9
554.854	1	5
555.024	1	-1
555.194	1	-7
555.364	1	8
555.534	1	-2
555.704	1	6
555.874	1	0
556.044	1	9
556.214	1	-2
556.384	1	-3
556.554	1	9
556.724	1	5
556.894	1	2
557.064	1	6
557.234	1	-8
557.404	1	8
557.573	1	0
557.743	1	-4
557.913	1	4
558.083	1	0
558.253	1	0
558.423	1	1
558.593	1	9
558.763	1	6
558.933	1	6
559.103	1	20
559.273	1	-2
559.443	1	2
559.613	1	8
559.783	1	6
559.953	1	-1
560.122	1	3
560.292	1	10
560.462	1	-5
560.632	1	1
560.802	1	4
560.972	1	14
561.142	1	3
561.312	1	-4
561.482	1	-3
561.652	1	3
561.822	1	0
561.992	1	-4
562.162	1	-7
562.331	1	-7
562.501	1	-7
562.671	1	1
562.841	1	-7
563.011	1	6
563.181	1	-8
563.351	1	-7
563.521	1	11
563.691	1	-7
563.861	1	-2
564.031	1	7
564.201	1	10
564.370	1	2
564.540	1	-6
564.710	1	-4
564.880	1	3
565.050	1	-2
565.220	1	-2
565.390	1	4
565.560	1	7
565.730	1	-3
565.900	1	2
566.069	1	14
566.239	1	9
566.409	1	13
566.579	1	1
566.749	1	-8
566.919	1	15
567.089	1	1
567.259	1	6
567.429	1	-5
567.599	1	4
567.768	1	11
567.938	1	-2
568.108	1	2
568.278	1	-2
568.448	1	-14
568.618	1	-3
568.788	1	2
568.958	1	-1
569.128	1	7
569.297	1	-2
569.467	1	5
569.637	1	14
569.807	1	-9
569.977	1	1
570.147	1	0
570.317	1	-11
570.487	1	-2
570.656	1	4
570.826	1	-1
570.996	1	-6
571.166	1	19
571.336	1	0
571.506	1	14
571.676	1	4
571.846	1	5
572.015	1	-1
572.185	1	-5
572.355	1	9
572.525	1	10
572.695	1	-2
572.865	1	-4
573.035	1	1
573.205	1	6
573.374	1	-10
573.544	1	4
573.714	1	6
573.884	1	4
574.054	1	-2
574.224	1	4
574.394	1	4
574.563	1	-9
574.733	1	1
574.903	1	-10
575.073	1	-8
575.243	1	-2
575.413	1	10
575.583	1	-3
575.752	1	10
575.922	1	5
576.092	1	2
576.262	1	3
576.432	1	-2
576.602	1	2
576.772	1	11
576.941	1	1
577.111	1	-6
577.281	1	-7
577.451	1	-6
577.621	1	10
577.791	1	10
577.960	1	-2
578.130	1	-4
578.300	1	2
578.470	1	5
578.640	1	2
578.810	1	3
578.979	1	4
579.149	1	1
579.319	1	0
579.489	1	1
579.659	1	-2
579.829	1	4
579.998	1	9
580.168	1	10
580.338	1	5
580.508	1	9
580.678	1	5
580.848	1	-5
581.017	1	3
581.187	1	0
581.357	1	-8
581.527	1	10
581.697	1	11
581.867	1	1
582.036	1	5
582.206	1	6
582.376	1	3
582.546	1	-2
582.716	1	-5
582.885	1	1
583.055	1	5
583.225	1	-10
583.395	1	0
583.565	1	5
583.735	1	10
583.904	1	3
584.074	1	5
584.244	1	6
584.414	1	-5
584.584	1	7
584.753	1	2
584.923	1	-4
585.093	1	7
585.263	1	3
585.433	1	6
585.602	1	-2
585.772	1	-6
585.942	1	-3
586.112	1	2
586.282	1	0
586.451	1	2
586.621	1	-5
586.791	1	2
586.961	1	5
587.131	1	11
587.300	1	-7
587.470	1	6
587.640	1	6
587.810	1	0
587.980	1	6
588.149	1	-1
588.319	1	4
588.489	1	-5
588.659	1	6
588.829	1	5
588.998	1	3
589.168	1	6
589.338	1	2
589.508	1	4
589.677	1	-6
589.847	1	1
590.017	1	11
590.187	1	3
590.357	1	23
590.526	1	12
590.696	1	-4
590.866	1	4
591.036	1	-3
591.205	1	17
591.375	1	-1
591.545	1	-2
591.715	1	7
591.885	1	-2
592.054	1	15
592.224	1	8
592.394	1	1
592.564	1	1
592.733	1	14
592.903	1	-2
593.073	1	-4
593.243	1	5
593.412	1	0
593.582	1	-2
593.752	1	2
593.922	1	0
594.091	1	0
594.261	1	-10
594.431	1	12
594.601	1	-4
594.771	1	5
594.940	1	3
595.110	1	2
595.280	1	6
595.450	1	2
595.619	1	-1
595.789	1	11
595.959	1	6
596.129	1	2
596.298	1	1
596.468	1	4
596.638	1	0
596.808	1	3
596.977	1	2
597.147	1	6
597.317	1	-5
597.487	1	5
597.656	1	8
597.826	1	-4
597.996	1	6
598.166	1	-7
598.335	1	-5
598.505	1	5
598.675	1	-5
598.844	1	-3
599.014	1	-1
599.184	1	1
599.354	1	-5
599.523	1	0
599.693	1	-1
599.863	1	4
600.033	1	3
600.202	1	7
600.372	1	2
600.542	1	10
600.712	1	-5
600.881	1	8
601.051	1	17
601.221	1	2
601.390	1	-9
601.560	1	10
601.730	1	-3
601.900	1	2
602.069	1	9
602.239	1	-6
602.409	1	-7
602.578	1	-1
602.748	1	4
602.918	1	12
603.088	1	9
603.257	1	-1
603.427	1	-9
603.597	1	1
603.767	1	1
603.936	1	2
604.106	1	2
604.276	1	0
604.445	1	9
604.615	1	5
604.785	1	-6
604.954	1	1
605.124	1	1
605.294	1	-7
605.464	1	-14
605.633	1	5
605.803	1	-4
605.973	1	3
606.142	1	7
606.312	1	4
606.482	1	12
606.652	1	7
606.821	1	-8
606.991	1	8
607.161	1	-4
607.330	1	8
607.500	1	3
607.670	1	8
607.839	1	3
608.009	1	12
608.179	1	3
608.348	1	5
608.518	1	1
608.688	1	16
608.858	1	-1
609.027	1	-7
609.197	1	4
609.367	1	17
609.536	1	3
609.706	1	3
609.876	1	-5
610.045	1	5
610.215	1	-4
610.385	1	-1
610.554	1	12
610.724	1	8
610.894	1	7
611.063	1	2
611.233	1	2
611.403	1	5
611.572	1	3
611.742	1	0
611.912	1	10
612.081	1	-10
612.251	1	6
612.421	1	0
612.590	1	1
612.760	1	7
612.930	1	3
613.099	1	5
613.269	1	15
613.439	1	-1
613.608	1	2
613.778	1	-1
613.948	1	1
614.117	1	-1
614.287	1	9
614.457	1	11
614.626	1	7
614.796	1	9
614.966	1	1
615.135	1	4
615.305	1	10
615.475	1	0
615.644	1	0
615.814	1	5
615.984	1	-5
616.153	1	1
616.323	1	0
616.493	1	5
616.662	1	3
616.832	1	7
617.002	1	-2
617.171	1	0
617.341	1	2
617.511	1	-1
617.680	1	1
617.850	1	10
618.019	1	7
618.189	1	15
618.359	1	0
618.528	1	14
618.698	1	-2
618.868	1	-6
619.037	1	2
619.207	1	1
619.377	1	-4
619.546	1	7
619.716	1	2
619.885	1	0
620.055	1	-9
620.225	1	-2
620.394	1	-11
620.564	1	12
620.734	1	1
620.903	1	-11
621.073	1	5
621.242	1	7
621.412	1	5
621.582	1	3
621.751	1	9
621.921	1	4
622.091	1	-1
622.260	1	-1
622.430	1	8
622.599	1	-3
622.769	1	4
622.939	1	8
623.108	1	1
623.278	1	-2
623.448	1	11
623.617	1	-2
623.787	1	0
623.956	1	4
624.126	1	2
624.296	1	5
624.465	1	9
624.635	1	13
624.804	1	-1
624.974	1	2
625.144	1	1
625.313	1	-3
625.483	1	-4
625.652	1	-1
625.822	1	4
625.992	1	4
626.161	1	13
626.331	1	-1
626.501	1	10
626.670	1	3
626.840	1	3
627.009	1	1
627.179	1	10
627.348	1	15
627.518	1	-5
627.688	1	4
627.857	1	10
628.027	1	-1
628.196	1	1
628.366	1	9
628.536	1	7
628.705	1	-7
628.875	1	3
629.044	1	-5
629.214	1	9
629.384	1	6
629.553	1	17
629.723	1	3
629.892	1	6
630.062	1	9
630.232	1	1
630.401	1	4
630.571	1	6
630.740	1	4
630.910	1	7
631.079	1	1
631.249	1	2
631.419	1	8
631.588	1	-5
631.758	1	4
631.927	1	-2
632.097	1	-3
632.266	1	0
632.436	1	1
632.606	1	-8
632.775	1	6
632.945	1	4
633.114	1	-1
633.284	1	8
633.453	1	-1
633.623	1	0
633.793	1	-5
633.962	1	7
634.132	1	7
634.301	1	-7
634.471	1	4
634.640	1	7
634.810	1	-5
634.979	1	4
635.149	1	4
635.319	1	-2
635.488	1	4
635.658	1	0
635.827	1	-1
635.997	1	3
636.166	1	10
636.336	1	-1
636.505	1	10
636.675	1	-2
636.845	1	11
637.014	1	10
637.184	1	1
637.353	1	8
637.523	1	14
637.692	1	2
637.862	1	11
638.031	1	4
638.201	1	10
638.370	1	-3
638.540	1	-1
638.710	1	1
638.879	1	-5
639.049	1	7
639.218	1	4
639.388	1	-5
639.557	1	0
639.727	1	11
639.896	1	9
640.066	1	1
640.235	1	4
640.405	1	6
640.574	1	2
640.744	1	-9
640.914	1	-4
641.083	1	0
641.253	1	-1
641.422	1	3
641.592	1	7
641.761	1	8
641.931	1	3
642.100	1	17
642.270	1	-3
642.439	1	9
642.609	1	11
642.778	1	-4
642.948	1	-10
643.117	1	10
643.287	1	-1
643.456	1	5
643.626	1	12
643.795	1	8
643.965	1	7
644.134	1	-4
644.304	1	0
644.473	1	7
644.643	1	6
644.812	1	0
644.982	1	9
645.151	1	2
645.321	1	1
645.490	1	13
645.660	1	-8
645.829	1	2
645.999	1	2
646.168	1	14
646.338	1	10
646.507	1	3
646.677	1	-1
646.846	1	8
647.016	1	-7
647.185	1	5
647.355	1	-9
647.524	1	7
647.694	1	9
647.863	1	7
648.033	1	9
648.202	1	6
648.372	1	-1
648.541	1	-1
648.711	1	6
648.880	1	6
649.050	1	-6
649.219	1	8
649.389	1	7
649.558	1	8
649.728	1	10
649.897	1	-4
650.067	1	1
650.236	1	11
650.406	1	10
650.575	1	4
650.745	1	9
650.914	1	3
651.084	1	-3
651.253	1	-2
651.423	1	-1
651.592	1	2
651.762	1	-7
651.931	1	9
652.101	1	9
652.270	1	9
652.440	1	6
652.609	1	2
652.778	1	1
652.948	1	9
653.117	1	8
653.287	1	2
653.456	1	17
653.626	1	2
653.795	1	6
653.965	1	5
654.134	1	9
654.304	1	-8
654.473	1	10
654.643	1	9
654.812	1	-2
654.982	1	3
655.151	1	0
655.320	1	2
655.490	1	5
655.659	1	5
655.829	1	-1
655.998	1	1
656.168	1	7
656.337	1	10
656.507	1	6
656.676	1	5
656.846	1	-2
657.015	1	1
657.184	1	17
657.354	1	7
657.523	1	10
657.693	1	16
657.862	1	5
658.032	1	6
658.201	1	-2
658.371	1	12
658.540	1	3
658.709	1	-6
658.879	1	11
659.048	1	-3
659.218	1	-2
659.387	1	10
659.557	1	9
659.726	1	7
659.895	1	-5
660.065	1	-3
660.234	1	6
660.404	1	5
660.573	1	4
660.743	1	3
660.912	1	-1
661.081	1	13
661.251	1	-3
661.420	1	9
661.590	1	8
661.759	1	5
661.929	1	5
662.098	1	9
662.267	1	-7
662.437	1	6
662.606	1	13
662.776	1	6
662.945	1	8
663.115	1	1
663.284	1	7
663.453	1	5
663.623	1	-1
663.792	1	6
663.962	1	0
664.131	1	12
664.300	1	11
664.470	1	-3
664.639	1	3
664.809	1	2
664.978	1	14
665.148	1	3
665.317	1	6
665.486	1	7
665.656	1	-4
665.825	1	6
665.995	1	2
666.164	1	13
666.333	1	2
666.503	1	2
666.672	1	-2
666.842	1	-5
667.011	1	-4
667.180	1	2
667.350	1	-4
667.519	1	7
667.689	1	10
667.858	1	6
668.027	1	9
668.197	1	3
668.366	1	1
668.536	1	7
668.705	1	2
668.874	1	-1
669.044	1	1
669.213	1	8
669.382	1	-10
669.552	1	16
669.721	1	8
669.891	1	14
670.060	1	10
670.229	1	14
670.399	1	-1
670.568	1	12
670.738	1	10
670.907	1	-2
671.076	1	-2
671.246	1	2
671.415	1	1
671.584	1	5
671.754	1	5
671.923	1	13
672.093	1	6
672.262	1	-13
672.431	1	5
672.601	1	-2
672.770	1	0
672.939	1	3
673.109	1	0
673.278	1	8
673.448	1	6
673.617	1	2
673.786	1	4
