325.333	1	13
325.504	1	11
325.675	1	11
325.846	1	5
326.017	1	-3
326.188	1	5
326.359	1	-1
326.531	1	-11
326.702	1	3
326.873	1	9
327.044	1	0
327.215	1	6
327.386	1	-1
327.557	1	-4
327.728	1	-2
327.899	1	-2
328.070	1	12
328.241	1	6
328.412	1	-1
328.583	1	-4
328.754	1	8
328.926	1	18
329.097	1	-15
329.268	1	8
329.439	1	-4
329.610	1	4
329.781	1	-3
329.952	1	7
330.123	1	6
330.294	1	-3
330.465	1	3
330.636	1	7
330.807	1	3
330.978	1	2
331.149	1	8
331.320	1	7
331.492	1	-1
331.663	1	6
331.834	1	4
332.005	1	3
332.176	1	15
332.347	1	4
332.518	1	-9
332.689	1	10
332.860	1	-1
333.031	1	16
333.202	1	0
333.373	1	3
333.544	1	4
333.715	1	10
333.886	1	-3
334.057	1	5
334.228	1	-1
334.399	1	8
334.570	1	13
334.741	1	-4
334.912	1	7
335.084	1	18
335.255	1	0
335.426	1	1
335.597	1	0
335.768	1	5
335.939	1	8
336.110	1	5
336.281	1	2
336.452	1	-5
336.623	1	-2
336.794	1	5
336.965	1	-2
337.136	1	4
337.307	1	0
337.478	1	6
337.649	1	-1
337.820	1	3
337.991	1	5
338.162	1	7
338.333	1	0
338.504	1	5
338.675	1	1
338.846	1	9
339.017	1	0
339.188	1	6
339.359	1	-6
339.530	1	-2
339.701	1	2
339.872	1	9
340.043	1	-3
340.214	1	0
340.385	1	8
340.556	1	-9
340.727	1	2
340.898	1	16
341.069	1	4
341.240	1	-1
341.411	1	5
341.582	1	7
341.753	1	-5
341.924	1	-5
342.095	1	5
342.266	1	13
342.437	1	12
342.608	1	7
342.779	1	8
342.950	1	9
343.121	1	5
343.292	1	15
343.463	1	-2
343.634	1	1
343.805	1	7
343.976	1	5
344.147	1	7
344.318	1	-2
344.489	1	5
344.660	1	12
344.831	1	1
345.002	1	-11
345.173	1	1
345.344	1	7
345.515	1	10
345.686	1	2
345.857	1	8
346.028	1	9
346.199	1	-2
346.370	1	-3
346.541	1	5
346.712	1	-3
346.883	1	8
347.054	1	2
347.225	1	6
347.396	1	1
347.567	1	4
347.738	1	1
347.909	1	18
348.080	1	-6
348.251	1	13
348.422	1	5
348.593	1	8
348.764	1	1
348.935	1	-8
349.106	1	-4
349.277	1	10
349.448	1	9
349.619	1	4
349.790	1	-1
349.961	1	8
350.132	1	13
350.303	1	2
350.474	1	12
350.645	1	6
350.816	1	2
350.987	1	5
351.157	1	1
351.328	1	11
351.499	1	12
351.670	1	4
351.841	1	8
352.012	1	9
352.183	1	21
352.354	1	15
352.525	1	21
352.696	1	21
352.867	1	1
353.038	1	24
353.209	1	15
353.380	1	4
353.551	1	1
353.722	1	4
353.893	1	4
354.064	1	20
354.235	1	3
354.406	1	-2
354.576	1	3
354.747	1	-2
354.918	1	9
355.089	1	2
355.260	1	4
355.431	1	10
355.602	1	5
355.773	1	3
355.944	1	4
356.115	1	8
356.286	1	7
356.457	1	12
356.628	1	7
356.799	1	2
356.970	1	8
357.141	1	1
357.311	1	-4
357.482	1	8
357.653	1	7
357.824	1	13
357.995	1	12
358.166	1	-16
358.337	1	8
358.508	1	2
358.679	1	7
358.850	1	4
359.021	1	16
359.192	1	9
359.363	1	9
359.533	1	8
359.704	1	10
359.875	1	2
360.046	1	5
360.217	1	-6
360.388	1	7
360.559	1	7
360.730	1	10
360.901	1	5
361.072	1	15
361.243	1	11
361.414	1	9
361.584	1	7
361.755	1	4
361.926	1	-1
362.097	1	6
362.268	1	5
362.439	1	9
362.610	1	18
362.781	1	-5
362.952	1	1
363.123	1	0
363.293	1	11
363.464	1	4
363.635	1	9
363.806	1	4
363.977	1	9
364.148	1	3
364.319	1	19
364.490	1	8
364.661	1	5
364.832	1	10
365.002	1	11
365.173	1	13
365.344	1	7
365.515	1	2
365.686	1	8
365.857	1	5
366.028	1	13
366.199	1	11
366.370	1	12
366.540	1	9
366.711	1	-16
366.882	1	0
367.053	1	13
367.224	1	16
367.395	1	11
367.566	1	9
367.737	1	13
367.908	1	9
368.078	1	8
368.249	1	24
368.420	1	7
368.591	1	9
368.762	1	-1
368.933	1	0
369.104	1	-5
369.274	1	13
369.445	1	11
369.616	1	5
369.787	1	13
369.958	1	7
370.129	1	-1
370.300	1	14
370.471	1	5
370.641	1	14
370.812	1	9
370.983	1	11
371.154	1	6
371.325	1	17
371.496	1	12
371.667	1	13
371.837	1	1
372.008	1	4
372.179	1	9
372.350	1	20
372.521	1	6
372.692	1	2
372.863	1	16
373.033	1	2
373.204	1	2
373.375	1	9
373.546	1	6
373.717	1	18
373.888	1	16
374.059	1	14
374.229	1	18
374.400	1	3
374.571	1	10
374.742	1	13
374.913	1	10
375.084	1	6
375.254	1	10
375.425	1	11
375.596	1	11
375.767	1	12
375.938	1	10
376.109	1	5
376.279	1	-1
376.450	1	17
376.621	1	8
376.792	1	5
376.963	1	7
377.134	1	16
377.304	1	16
377.475	1	0
377.646	1	7
377.817	1	4
377.988	1	6
378.159	1	17
378.329	1	14
378.500	1	2
378.671	1	13
378.842	1	5
379.013	1	7
379.184	1	0
379.354	1	19
379.525	1	3
379.696	1	13
379.867	1	15
380.038	1	5
380.209	1	11
380.379	1	9
380.550	1	0
380.721	1	23
380.892	1	6
381.063	1	11
381.233	1	16
381.404	1	5
381.575	1	15
381.746	1	9
381.917	1	9
382.087	1	14
382.258	1	1
382.429	1	11
382.600	1	16
382.771	1	17
382.941	1	2
383.112	1	8
383.283	1	13
383.454	1	1
383.625	1	4
383.795	1	17
383.966	1	11
384.137	1	12
384.308	1	12
384.479	1	9
384.649	1	14
384.820	1	4
384.991	1	15
385.162	1	10
385.333	1	5
385.503	1	0
385.674	1	3
385.845	1	19
386.016	1	15
386.187	1	5
386.357	1	9
386.528	1	12
386.699	1	9
386.870	1	13
387.041	1	12
387.211	1	9
387.382	1	21
387.553	1	14
387.724	1	11
387.894	1	6
388.065	1	13
388.236	1	17
388.407	1	13
388.578	1	8
388.748	1	-1
388.919	1	20
389.090	1	4
389.261	1	8
389.431	1	8
389.602	1	13
389.773	1	5
389.944	1	8
390.114	1	5
390.285	1	7
390.456	1	10
390.627	1	14
390.798	1	12
390.968	1	1
391.139	1	17
391.310	1	2
391.481	1	22
391.651	1	8
391.822	1	4
391.993	1	12
392.164	1	8
392.334	1	13
392.505	1	8
392.676	1	18
392.847	1	19
393.017	1	15
393.188	1	16
393.359	1	5
393.530	1	13
393.700	1	10
393.871	1	11
394.042	1	1
394.213	1	0
394.383	1	11
394.554	1	10
394.725	1	17
394.896	1	3
395.066	1	19
395.237	1	4
395.408	1	7
395.579	1	6
395.749	1	7
395.920	1	10
396.091	1	16
396.262	1	12
396.432	1	0
396.603	1	21
396.774	1	12
396.945	1	18
397.115	1	7
397.286	1	10
397.457	1	-2
397.627	1	12
397.798	1	6
397.969	1	6
398.140	1	8
398.310	1	10
398.481	1	10
398.652	1	15
398.823	1	3
398.993	1	8
399.164	1	12
399.335	1	10
399.505	1	3
399.676	1	15
399.847	1	4
400.018	1	6
400.188	1	11
400.359	1	11
400.530	1	2
400.700	1	15
400.871	1	8
401.042	1	8
401.213	1	14
401.383	1	14
401.554	1	27
401.725	1	22
401.895	1	11
402.066	1	17
402.237	1	17
402.408	1	15
402.578	1	9
402.749	1	13
402.920	1	13
403.090	1	10
403.261	1	9
403.432	1	10
403.603	1	16
403.773	1	14
403.944	1	18
404.115	1	12
404.285	1	18
404.456	1	7
404.627	1	5
404.797	1	3
404.968	1	13
405.139	1	8
405.310	1	21
405.480	1	18
405.651	1	4
405.822	1	6
405.992	1	-2
406.163	1	7
406.334	1	7
406.504	1	4
406.675	1	16
406.846	1	16
407.016	1	20
407.187	1	4
407.358	1	12
407.528	1	8
407.699	1	1
407.870	1	6
408.041	1	12
408.211	1	26
408.382	1	8
408.553	1	4
408.723	1	19
408.894	1	12
409.065	1	14
409.235	1	15
409.406	1	18
409.577	1	4
409.747	1	19
409.918	1	9
410.089	1	10
410.259	1	6
410.430	1	11
410.601	1	9
410.771	1	11
410.942	1	19
411.113	1	20
411.283	1	12
411.454	1	10
411.625	1	20
411.795	1	14
411.966	1	11
412.137	1	14
412.307	1	4
412.478	1	10
412.649	1	16
412.819	1	16
412.990	1	12
413.161	1	16
413.331	1	-1
413.502	1	20
413.672	1	13
413.843	1	8
414.014	1	10
414.184	1	17
414.355	1	12
414.526	1	18
414.696	1	20
414.867	1	18
415.038	1	4
415.208	1	10
415.379	1	23
415.550	1	16
415.720	1	6
415.891	1	8
416.062	1	13
416.232	1	15
416.403	1	16
416.573	1	6
416.744	1	11
416.915	1	18
417.085	1	17
417.256	1	19
417.427	1	12
417.597	1	17
417.768	1	6
417.939	1	5
418.109	1	9
418.280	1	23
418.450	1	9
418.621	1	0
418.792	1	17
418.962	1	6
419.133	1	13
419.304	1	11
419.474	1	7
419.645	1	17
419.815	1	9
419.986	1	12
420.157	1	11
420.327	1	8
420.498	1	19
420.669	1	8
420.839	1	19
421.010	1	13
421.180	1	22
421.351	1	9
421.522	1	12
421.692	1	14
421.863	1	8
422.033	1	20
422.204	1	22
422.375	1	10
422.545	1	14
422.716	1	3
422.886	1	12
423.057	1	11
423.228	1	11
423.398	1	14
423.569	1	15
423.740	1	-1
423.910	1	5
424.081	1	10
424.251	1	5
424.422	1	17
424.593	1	-1
424.763	1	18
424.934	1	17
425.104	1	23
425.275	1	9
425.445	1	3
425.616	1	1
425.787	1	7
425.957	1	12
426.128	1	11
426.298	1	18
426.469	1	4
426.640	1	14
426.810	1	21
426.981	1	9
427.151	1	3
427.322	1	22
427.493	1	12
427.663	1	11
427.834	1	5
428.004	1	11
428.175	1	15
428.345	1	13
428.516	1	2
428.687	1	4
428.857	1	4
429.028	1	7
429.198	1	10
429.369	1	14
429.540	1	6
429.710	1	9
429.881	1	13
430.051	1	15
430.222	1	11
430.392	1	7
430.563	1	18
430.734	1	21
430.904	1	12
431.075	1	15
431.245	1	2
431.416	1	19
431.586	1	13
431.757	1	18
431.927	1	12
432.098	1	12
432.269	1	1
432.439	1	16
432.610	1	1
432.780	1	20
432.951	1	-1
433.121	1	16
433.292	1	7
433.462	1	16
433.633	1	19
433.804	1	22
433.974	1	10
434.145	1	29
434.315	1	11
434.486	1	10
434.656	1	13
434.827	1	10
434.997	1	17
435.168	1	11
435.339	1	10
435.509	1	17
435.680	1	16
435.850	1	18
436.021	1	7
436.191	1	18
436.362	1	9
436.532	1	12
436.703	1	5
436.873	1	14
437.044	1	2
437.214	1	5
437.385	1	9
437.556	1	10
437.726	1	24
437.897	1	12
438.067	1	9
438.238	1	12
438.408	1	15
438.579	1	9
438.749	1	10
438.920	1	1
439.090	1	12
439.261	1	12
439.431	1	8
439.602	1	8
439.772	1	4
439.943	1	19
440.113	1	10
440.284	1	8
440.455	1	7
440.625	1	10
440.796	1	3
440.966	1	3
441.137	1	13
441.307	1	20
441.478	1	28
441.648	1	13
441.819	1	12
441.989	1	12
442.160	1	16
442.330	1	12
442.501	1	13
442.671	1	8
442.842	1	-5
443.012	1	8
443.183	1	14
443.353	1	9
443.524	1	11
443.694	1	18
443.865	1	1
444.035	1	13
444.206	1	9
444.376	1	1
444.547	1	22
444.717	1	12
444.888	1	8
445.058	1	21
445.229	1	14
445.399	1	13
445.570	1	3
445.740	1	-2
445.911	1	9
446.081	1	2
446.252	1	27
446.422	1	1
446.593	1	9
446.763	1	10
446.934	1	3
447.104	1	10
447.275	1	8
447.445	1	9
447.616	1	12
447.786	1	8
447.957	1	12
448.127	1	10
448.298	1	10
448.468	1	4
448.639	1	6
448.809	1	17
448.979	1	5
449.150	1	18
449.320	1	15
449.491	1	14
449.661	1	3
449.832	1	6
450.002	1	14
450.173	1	10
450.343	1	7
450.514	1	11
450.684	1	10
450.855	1	3
451.025	1	13
451.196	1	7
451.366	1	13
451.537	1	2
451.707	1	4
451.878	1	3
452.048	1	12
452.218	1	15
452.389	1	13
452.559	1	1
452.730	1	15
452.900	1	11
453.071	1	2
453.241	1	9
453.412	1	13
453.582	1	13
453.753	1	5
453.923	1	8
454.093	1	14
454.264	1	19
454.434	1	1
454.605	1	8
454.775	1	8
454.946	1	6
455.116	1	13
455.287	1	10
455.457	1	0
455.628	1	3
455.798	1	12
455.968	1	12
456.139	1	-1
456.309	1	9
456.480	1	4
456.650	1	9
456.821	1	7
456.991	1	18
457.161	1	7
457.332	1	11
457.502	1	2
457.673	1	10
457.843	1	11
458.014	1	-1
458.184	1	7
458.355	1	7
458.525	1	12
458.695	1	9
458.866	1	4
459.036	1	11
459.207	1	9
459.377	1	-2
459.548	1	26
459.718	1	4
459.888	1	13
460.059	1	6
460.229	1	6
460.400	1	12
460.570	1	8
460.740	1	12
460.911	1	7
461.081	1	8
461.252	1	-2
461.422	1	1
461.593	1	3
461.763	1	10
461.933	1	11
462.104	1	1
462.274	1	16
462.445	1	13
462.615	1	6
462.785	1	4
462.956	1	15
463.126	1	18
463.297	1	-1
463.467	1	8
463.638	1	11
463.808	1	4
463.978	1	4
464.149	1	12
464.319	1	7
464.490	1	21
464.660	1	10
464.830	1	0
465.001	1	8
465.171	1	4
465.342	1	10
465.512	1	0
465.682	1	4
465.853	1	6
466.023	1	4
466.194	1	0
466.364	1	13
466.534	1	11
466.705	1	10
466.875	1	9
467.045	1	-1
467.216	1	18
467.386	1	2
467.557	1	3
467.727	1	1
467.897	1	5
468.068	1	8
468.238	1	7
468.409	1	3
468.579	1	10
468.749	1	7
468.920	1	-1
469.090	1	11
469.260	1	6
469.431	1	-2
469.601	1	11
469.772	1	11
469.942	1	-2
470.112	1	7
470.283	1	6
470.453	1	6
470.623	1	5
470.794	1	-1
470.964	1	19
471.135	1	8
471.305	1	-6
471.475	1	10
471.646	1	10
471.816	1	-3
471.986	1	6
472.157	1	19
472.327	1	-4
472.497	1	10
472.668	1	-3
472.838	1	9
473.009	1	5
473.179	1	6
473.349	1	-7
473.520	1	12
473.690	1	10
473.860	1	3
474.031	1	2
474.201	1	8
474.371	1	13
474.542	1	3
474.712	1	16
474.882	1	16
475.053	1	20
475.223	1	8
475.394	1	5
475.564	1	1
475.734	1	1
475.905	1	18
476.075	1	2
476.245	1	20
476.416	1	16
476.586	1	15
476.756	1	6
476.927	1	17
477.097	1	12
477.267	1	1
477.438	1	10
477.608	1	1
477.778	1	6
477.949	1	6
478.119	1	13
478.289	1	12
478.460	1	18
478.630	1	11
478.800	1	7
478.971	1	11
479.141	1	-7
479.311	1	1
479.482	1	7
479.652	1	0
479.822	1	5
479.993	1	7
480.163	1	10
480.333	1	11
480.504	1	11
480.674	1	5
480.844	1	-4
481.015	1	3
481.185	1	3
481.355	1	11
481.525	1	4
481.696	1	5
481.866	1	12
482.036	1	9
482.207	1	4
482.377	1	1
482.547	1	10
482.718	1	4
482.888	1	3
483.058	1	2
483.229	1	0
483.399	1	4
483.569	1	8
483.740	1	9
483.910	1	3
484.080	1	4
484.250	1	12
484.421	1	11
484.591	1	-4
484.761	1	15
484.932	1	11
485.102	1	14
485.272	1	9
485.443	1	8
485.613	1	10
485.783	1	-2
485.953	1	4
486.124	1	6
486.294	1	15
486.464	1	8
486.635	1	8
486.805	1	10
486.975	1	4
487.146	1	2
487.316	1	10
487.486	1	12
487.656	1	0
487.827	1	7
487.997	1	3
488.167	1	1
488.338	1	12
488.508	1	-1
488.678	1	3
488.848	1	8
489.019	1	-1
489.189	1	8
489.359	1	2
489.529	1	5
489.700	1	8
489.870	1	17
490.040	1	-1
490.211	1	3
490.381	1	19
490.551	1	2
490.721	1	16
490.892	1	0
491.062	1	10
491.232	1	0
491.402	1	-4
491.573	1	-10
491.743	1	-3
491.913	1	7
492.084	1	7
492.254	1	-2
492.424	1	9
492.594	1	0
492.765	1	3
492.935	1	0
493.105	1	3
493.275	1	13
493.446	1	10
493.616	1	15
493.786	1	4
493.956	1	4
494.127	1	1
494.297	1	-5
494.467	1	1
494.637	1	8
494.808	1	2
494.978	1	-6
495.148	1	4
495.318	1	6
495.489	1	9
495.659	1	7
495.829	1	4
495.999	1	-1
496.170	1	3
496.340	1	9
496.510	1	7
496.680	1	0
496.851	1	6
497.021	1	-1
497.191	1	0
497.361	1	-2
497.532	1	-5
497.702	1	1
497.872	1	-7
498.042	1	2
498.213	1	5
498.383	1	5
498.553	1	3
498.723	1	-1
498.894	1	2
499.064	1	12
499.234	1	13
499.404	1	10
499.574	1	3
499.745	1	12
499.915	1	7
500.085	1	-1
500.255	1	12
500.426	1	5
500.596	1	1
500.766	1	8
500.936	1	-5
501.106	1	-5
501.277	1	8
501.447	1	9
501.617	1	8
501.787	1	7
501.958	1	-5
502.128	1	-1
502.298	1	4
502.468	1	1
502.638	1	9
502.809	1	5
502.979	1	2
503.149	1	0
503.319	1	-6
503.489	1	4
503.660	1	18
503.830	1	2
504.000	1	13
504.170	1	4
504.340	1	1
504.511	1	11
504.681	1	1
504.851	1	4
505.021	1	3
505.192	1	5
505.362	1	13
505.532	1	9
505.702	1	6
505.872	1	3
506.043	1	-2
506.213	1	4
506.383	1	8
506.553	1	1
506.723	1	-3
506.893	1	10
507.064	1	5
507.234	1	-8
507.404	1	-4
507.574	1	7
507.744	1	3
507.915	1	2
508.085	1	9
508.255	1	1
508.425	1	-5
508.595	1	4
508.766	1	11
508.936	1	-6
509.106	1	9
509.276	1	13
509.446	1	-5
509.616	1	-7
509.787	1	3
509.957	1	3
510.127	1	2
510.297	1	-3
510.467	1	-3
510.638	1	5
510.808	1	-12
510.978	1	5
511.148	1	18
511.318	1	7
511.488	1	-12
511.659	1	-5
511.829	1	-6
511.999	1	-2
512.169	1	5
512.339	1	2
512.509	1	-2
512.680	1	2
512.850	1	9
513.020	1	6
513.190	1	-1
513.360	1	-4
513.530	1	7
513.700	1	7
513.871	1	6
514.041	1	-6
514.211	1	16
514.381	1	1
514.551	1	2
514.721	1	-1
514.892	1	6
515.062	1	1
515.232	1	14
515.402	1	-7
515.572	1	8
515.742	1	0
515.912	1	9
516.083	1	11
516.253	1	2
516.423	1	-2
516.593	1	-5
516.763	1	12
516.933	1	-2
517.104	1	-2
517.274	1	-4
517.444	1	6
517.614	1	2
517.784	1	5
517.954	1	5
518.124	1	3
518.294	1	0
518.465	1	-7
518.635	1	6
518.805	1	-4
518.975	1	2
519.145	1	-4
519.315	1	5
519.485	1	7
519.656	1	12
519.826	1	6
519.996	1	-1
520.166	1	4
520.336	1	-1
520.506	1	3
520.676	1	-11
520.846	1	9
521.017	1	5
521.187	1	0
521.357	1	10
521.527	1	-2
521.697	1	6
521.867	1	5
522.037	1	9
522.207	1	13
522.377	1	7
522.548	1	4
522.718	1	6
522.888	1	12
523.058	1	5
523.228	1	3
523.398	1	9
523.568	1	2
523.738	1	10
523.909	1	17
524.079	1	8
524.249	1	0
524.419	1	-2
524.589	1	3
524.759	1	3
524.929	1	-2
525.099	1	8
525.269	1	-2
525.439	1	7
525.610	1	12
525.780	1	7
525.950	1	1
526.120	1	-1
526.290	1	9
526.460	1	-5
526.630	1	0
526.800	1	4
526.970	1	4
527.140	1	-1
527.311	1	-4
527.481	1	1
527.651	1	12
527.821	1	-6
527.991	1	18
528.161	1	16
528.331	1	3
528.501	1	-3
528.671	1	-3
528.841	1	6
529.011	1	-5
529.181	1	7
529.352	1	11
529.522	1	1
529.692	1	0
529.862	1	4
530.032	1	5
530.202	1	8
530.372	1	8
530.542	1	0
530.712	1	-5
530.882	1	12
531.052	1	4
531.222	1	1
531.392	1	2
531.563	1	8
531.733	1	5
531.903	1	6
532.073	1	9
532.243	1	2
532.413	1	5
532.583	1	1
532.753	1	1
532.923	1	-9
533.093	1	9
533.263	1	1
533.433	1	3
533.603	1	10
533.773	1	-8
533.943	1	9
534.113	1	4
534.284	1	6
534.454	1	5
534.624	1	5
534.794	1	-9
534.964	1	8
535.134	1	-1
535.304	1	4
535.474	1	8
535.644	1	-5
535.814	1	-9
535.984	1	-8
536.154	1	-3
536.324	1	4
536.494	1	4
536.664	1	6
536.834	1	3
537.004	1	-2
537.174	1	15
537.344	1	10
537.514	1	-1
537.685	1	3
537.855	1	3
538.025	1	3
538.195	1	3
538.365	1	13
538.535	1	5
538.705	1	7
538.875	1	-1
539.045	1	3
539.215	1	6
539.385	1	13
539.555	1	7
539.725	1	-1
539.895	1	-6
540.065	1	13
540.235	1	6
540.405	1	-2
540.575	1	8
540.745	1	3
540.915	1	6
541.085	1	6
541.255	1	-1
541.425	1	13
541.595	1	0
541.765	1	17
541.935	1	-4
542.105	1	-4
542.275	1	-2
542.445	1	-5
542.615	1	0
542.785	1	8
542.955	1	11
543.125	1	-2
543.295	1	2
543.465	1	-3
543.635	1	-3
543.805	1	20
543.975	1	-4
544.145	1	4
544.315	1	0
544.485	1	11
544.655	1	5
544.825	1	-2
544.995	1	5
545.165	1	-6
545.335	1	5
545.505	1	-1
545.675	1	1
545.845	1	-1
546.015	1	6
546.185	1	14
546.355	1	5
546.525	1	8
546.695	1	2
546.865	1	-5
547.035	1	2
547.205	1	0
547.375	1	8
547.545	1	7
547.715	1	1
547.885	1	2
548.055	1	1
548.225	1	2
548.395	1	0
548.565	1	4
548.735	1	3
548.905	1	2
549.075	1	4
549.245	1	5
549.415	1	-10
549.585	1	-6
549.755	1	-4
549.925	1	-7
550.095	1	2
550.265	1	0
550.435	1	3
550.605	1	1
550.775	1	1
550.945	1	8
551.115	1	2
551.285	1	10
551.455	1	-10
551.625	1	9
551.795	1	16
551.965	1	3
552.135	1	-1
552.305	1	-3
552.475	1	-12
552.645	1	-1
552.815	1	1
552.985	1	-3
553.155	1	10
553.325	1	4
553.495	1	-4
553.665	1	5
553.835	1	6
554.004	1	4
554.174	1	-4
554.344	1	2
554.514	1	-1
554.684	1	1
554.854	1	12
555.024	1	-4
555.194	1	0
555.364	1	2
555.534	1	5
555.704	1	8
555.874	1	15
556.044	1	-2
556.214	1	-7
556.384	1	-7
556.554	1	5
556.724	1	4
556.894	1	3
557.064	1	-3
557.234	1	6
557.404	1	2
557.573	1	1
557.743	1	1
557.913	1	-6
558.083	1	3
558.253	1	3
558.423	1	3
558.593	1	12
558.763	1	0
558.933	1	-2
559.103	1	8
559.273	1	1
559.443	1	10
559.613	1	4
559.783	1	-3
559.953	1	-2
560.122	1	4
560.292	1	4
560.462	1	0
560.632	1	9
560.802	1	7
560.972	1	10
561.142	1	3
561.312	1	-5
561.482	1	8
561.652	1	11
561.822	1	-9
561.992	1	-5
562.162	1	0
562.331	1	-4
562.501	1	-8
562.671	1	7
562.841	1	-2
563.011	1	6
563.181	1	3
563.351	1	-10
563.521	1	4
563.691	1	-7
563.861	1	-6
564.031	1	8
564.201	1	9
564.370	1	-8
564.540	1	5
564.710	1	-14
564.880	1	12
565.050	1	-1
565.220	1	1
565.390	1	15
565.560	1	4
565.730	1	-7
565.900	1	2
566.069	1	6
566.239	1	2
566.409	1	3
566.579	1	7
566.749	1	-5
566.919	1	6
567.089	1	3
567.259	1	11
567.429	1	1
567.599	1	2
567.768	1	1
567.938	1	6
568.108	1	4
568.278	1	2
568.448	1	-4
568.618	1	1
568.788	1	1
568.958	1	2
569.128	1	7
569.297	1	-1
569.467	1	-13
569.637	1	3
569.807	1	7
569.977	1	9
570.147	1	4
570.317	1	-4
570.487	1	9
570.656	1	3
570.826	1	7
570.996	1	-10
571.166	1	13
571.336	1	-3
571.506	1	2
571.676	1	1
571.846	1	12
572.015	1	-12
572.185	1	4
572.355	1	5
572.525	1	-7
572.695	1	6
572.865	1	-1
573.035	1	4
573.205	1	-2
573.374	1	-12
573.544	1	1
573.714	1	10
573.884	1	5
574.054	1	5
574.224	1	3
574.394	1	1
574.563	1	-9
574.733	1	1
574.903	1	3
575.073	1	-7
575.243	1	7
575.413	1	6
575.583	1	-1
575.752	1	9
575.922	1	7
576.092	1	2
576.262	1	2
576.432	1	9
576.602	1	-13
576.772	1	10
576.941	1	12
577.111	1	3
577.281	1	-8
577.451	1	-5
577.621	1	7
577.791	1	2
577.960	1	-15
578.130	1	3
578.300	1	-4
578.470	1	18
578.640	1	-2
578.810	1	1
578.979	1	2
579.149	1	-2
579.319	1	-12
579.489	1	1
579.659	1	3
579.829	1	-4
579.998	1	10
580.168	1	13
580.338	1	3
580.508	1	3
580.678	1	1
580.848	1	0
581.017	1	-1
581.187	1	4
581.357	1	-6
581.527	1	13
581.697	1	0
581.867	1	7
582.036	1	5
582.206	1	2
582.376	1	10
582.546	1	-4
582.716	1	-10
582.885	1	-8
583.055	1	-2
583.225	1	-12
583.395	1	-5
583.565	1	-2
583.735	1	1
583.904	1	1
584.074	1	1
584.244	1	2
584.414	1	10
584.584	1	3
584.753	1	-5
584.923	1	3
585.093	1	9
585.263	1	1
585.433	1	4
585.602	1	-12
585.772	1	-4
585.942	1	-5
586.112	1	0
586.282	1	2
586.451	1	0
586.621	1	-1
586.791	1	0
586.961	1	0
587.131	1	6
587.300	1	-9
587.470	1	10
587.640	1	10
587.810	1	-3
587.980	1	-5
588.149	1	2
588.319	1	-4
588.489	1	-4
588.659	1	8
588.829	1	0
588.998	1	8
589.168	1	5
589.338	1	9
589.508	1	9
589.677	1	1
589.847	1	-3
590.017	1	16
590.187	1	-4
590.357	1	16
590.526	1	10
590.696	1	8
590.866	1	9
591.036	1	2
591.205	1	9
591.375	1	4
591.545	1	-1
591.715	1	10
591.885	1	-4
592.054	1	5
592.224	1	-2
592.394	1	3
592.564	1	-1
592.733	1	7
592.903	1	2
593.073	1	2
593.243	1	7
593.412	1	12
593.582	1	3
593.752	1	-2
593.922	1	4
594.091	1	3
594.261	1	3
594.431	1	6
594.601	1	5
594.771	1	3
594.940	1	0
595.110	1	-6
595.280	1	6
595.450	1	0
595.619	1	-10
595.789	1	3
595.959	1	12
596.129	1	-2
596.298	1	-2
596.468	1	8
596.638	1	1
596.808	1	7
596.977	1	4
597.147	1	7
597.317	1	1
597.487	1	8
597.656	1	1
597.826	1	10
597.996	1	2
598.166	1	1
598.335	1	-5
598.505	1	-9
598.675	1	-10
598.844	1	-2
599.014	1	5
599.184	1	-4
599.354	1	-23
599.523	1	13
599.693	1	-4
599.863	1	5
600.033	1	-1
600.202	1	12
600.372	1	2
600.542	1	13
600.712	1	-6
600.881	1	-1
601.051	1	11
601.221	1	10
601.390	1	-2
601.560	1	11
601.730	1	4
601.900	1	2
602.069	1	8
602.239	1	-11
602.409	1	-2
602.578	1	-7
602.748	1	1
602.918	1	6
603.088	1	4
603.257	1	6
603.427	1	-7
603.597	1	3
603.767	1	5
603.936	1	7
604.106	1	6
604.276	1	2
604.445	1	9
604.615	1	-3
604.785	1	3
604.954	1	-4
605.124	1	5
605.294	1	2
605.464	1	4
605.633	1	7
605.803	1	-1
605.973	1	-4
606.142	1	-1
606.312	1	5
606.482	1	3
606.652	1	16
606.821	1	0
606.991	1	4
607.161	1	-5
607.330	1	3
607.500	1	-1
607.670	1	-12
607.839	1	10
608.009	1	15
608.179	1	5
608.348	1	-1
608.518	1	-1
608.688	1	11
608.858	1	0
609.027	1	-11
609.197	1	9
609.367	1	9
609.536	1	5
609.706	1	-3
609.876	1	-1
610.045	1	5
610.215	1	10
610.385	1	1
610.554	1	-2
610.724	1	15
610.894	1	2
611.063	1	-3
611.233	1	-2
611.403	1	-3
611.572	1	-1
611.742	1	9
611.912	1	-2
612.081	1	-1
612.251	1	6
612.421	1	1
612.590	1	0
612.760	1	4
612.930	1	-8
613.099	1	1
613.269	1	11
613.439	1	1
613.608	1	-5
613.778	1	4
613.948	1	1
614.117	1	-1
614.287	1	5
614.457	1	9
614.626	1	5
614.796	1	-4
614.966	1	-2
615.135	1	-4
615.305	1	5
615.475	1	2
615.644	1	10
615.814	1	7
615.984	1	-5
616.153	1	-4
616.323	1	5
616.493	1	2
616.662	1	13
616.832	1	-1
617.002	1	-1
617.171	1	5
617.341	1	3
617.511	1	-6
617.680	1	3
617.850	1	6
618.019	1	16
618.189	1	8
618.359	1	4
618.528	1	7
618.698	1	6
618.868	1	-5
619.037	1	-2
619.207	1	-5
619.377	1	-3
619.546	1	11
619.716	1	9
619.885	1	3
620.055	1	-9
620.225	1	-3
620.394	1	-8
620.564	1	14
620.734	1	0
620.903	1	-2
621.073	1	9
621.242	1	4
621.412	1	1
621.582	1	0
621.751	1	16
621.921	1	0
622.091	1	-3
622.260	1	9
622.430	1	3
622.599	1	4
622.769	1	5
622.939	1	3
623.108	1	3
623.278	1	1
623.448	1	8
623.617	1	-6
623.787	1	12
623.956	1	-1
624.126	1	5
624.296	1	-3
624.465	1	5
624.635	1	15
624.804	1	2
624.974	1	6
625.144	1	6
625.313	1	-3
625.483	1	-9
625.652	1	2
625.822	1	1
625.992	1	-8
626.161	1	10
626.331	1	4
626.501	1	1
626.670	1	9
626.840	1	-3
627.009	1	-7
627.179	1	0
627.348	1	9
627.518	1	-2
627.688	1	12
627.857	1	-2
628.027	1	6
628.196	1	4
628.366	1	8
628.536	1	-1
628.705	1	3
628.875	1	6
629.044	1	-8
629.214	1	11
629.384	1	5
629.553	1	7
629.723	1	10
629.892	1	2
630.062	1	-1
630.232	1	-3
630.401	1	3
630.571	1	3
630.740	1	6
630.910	1	11
631.079	1	0
631.249	1	-11
631.419	1	5
631.588	1	-7
631.758	1	-2
631.927	1	8
632.097	1	10
632.266	1	-5
632.436	1	5
632.606	1	0
632.775	1	12
632.945	1	5
633.114	1	7
633.284	1	6
633.453	1	2
633.623	1	6
633.793	1	7
633.962	1	11
634.132	1	9
634.301	1	5
634.471	1	11
634.640	1	-2
634.810	1	3
634.979	1	7
635.149	1	2
635.319	1	1
635.488	1	-4
635.658	1	-2
635.827	1	-6
635.997	1	-6
636.166	1	-1
636.336	1	2
636.505	1	9
636.675	1	-7
636.845	1	10
637.014	1	8
637.184	1	2
637.353	1	3
637.523	1	4
637.692	1	5
637.862	1	6
638.031	1	3
638.201	1	2
638.370	1	8
638.540	1	5
638.710	1	-1
638.879	1	-8
639.049	1	1
639.218	1	4
639.388	1	-2
639.557	1	-1
639.727	1	4
639.896	1	11
640.066	1	-2
640.235	1	6
640.405	1	11
640.574	1	9
640.744	1	-8
640.914	1	-2
641.083	1	-2
641.253	1	-1
641.422	1	7
641.592	1	5
641.761	1	-4
641.931	1	0
642.100	1	20
642.270	1	1
642.439	1	-3
642.609	1	6
642.778	1	1
642.948	1	3
643.117	1	14
643.287	1	-1
643.456	1	7
643.626	1	9
643.795	1	-2
643.965	1	0
644.134	1	2
644.304	1	3
644.473	1	6
644.643	1	4
644.812	1	13
644.982	1	1
645.151	1	7
645.321	1	-5
645.490	1	8
645.660	1	-2
645.829	1	-5
645.999	1	11
646.168	1	3
646.338	1	16
646.507	1	-7
646.677	1	6
646.846	1	-6
647.016	1	-11
647.185	1	10
647.355	1	-17
647.524	1	15
647.694	1	11
647.863	1	6
648.033	1	10
648.202	1	11
648.372	1	1
648.541	1	3
648.711	1	-1
648.880	1	-2
649.050	1	-1
649.219	1	10
649.389	1	9
649.558	1	-1
649.728	1	-2
649.897	1	-4
650.067	1	5
650.236	1	-2
650.406	1	13
650.575	1	7
650.745	1	4
650.914	1	-3
651.084	1	-9
651.253	1	6
651.423	1	1
651.592	1	0
651.762	1	-2
651.931	1	11
652.101	1	7
652.270	1	10
652.440	1	9
652.609	1	-4
652.778	1	-3
652.948	1	2
653.117	1	4
653.287	1	2
653.456	1	7
653.626	1	6
653.795	1	3
653.965	1	11
654.134	1	8
654.304	1	-8
654.473	1	2
654.643	1	11
654.812	1	1
654.982	1	4
655.151	1	-1
655.320	1	8
655.490	1	7
655.659	1	-3
655.829	1	-11
655.998	1	-7
656.168	1	-2
656.337	1	-1
656.507	1	12
656.676	1	10
656.846	1	5
657.015	1	12
657.184	1	12
657.354	1	5
657.523	1	1
657.693	1	1
657.862	1	0
658.032	1	4
658.201	1	10
658.371	1	8
658.540	1	12
658.709	1	9
658.879	1	5
659.048	1	-7
659.218	1	-3
659.387	1	1
659.557	1	6
659.726	1	17
659.895	1	4
660.065	1	0
660.234	1	-2
660.404	1	3
660.573	1	-1
660.743	1	1
660.912	1	3
661.081	1	0
661.251	1	3
661.420	1	14
661.590	1	5
661.759	1	9
661.929	1	10
662.098	1	7
662.267	1	1
662.437	1	13
662.606	1	6
662.776	1	2
662.945	1	0
663.115	1	4
663.284	1	-6
663.453	1	9
663.623	1	3
663.792	1	1
663.962	1	0
664.131	1	3
664.300	1	5
664.470	1	3
664.639	1	6
664.809	1	3
664.978	1	15
665.148	1	7
665.317	1	5
665.486	1	-4
665.656	1	1
665.825	1	7
665.995	1	-4
666.164	1	7
666.333	1	4
666.503	1	5
666.672	1	-12
666.842	1	2
667.011	1	3
667.180	1	13
667.350	1	-2
667.519	1	5
667.689	1	-3
667.858	1	8
668.027	1	13
668.197	1	5
668.366	1	4
668.536	1	-3
668.705	1	2
668.874	1	-6
669.044	1	-3
669.213	1	2
669.382	1	-10
669.552	1	7
669.721	1	12
669.891	1	9
670.060	1	8
670.229	1	17
670.399	1	-1
670.568	1	11
670.738	1	6
670.907	1	-1
671.076	1	-4
671.246	1	7
671.415	1	-6
671.584	1	-1
671.754	1	0
671.923	1	-5
672.093	1	3
672.262	1	0
672.431	1	10
672.601	1	-3
672.770	1	-5
672.939	1	5
673.109	1	0
673.278	1	9
673.448	1	13
673.617	1	3
673.786	1	2
