325.333	1	41
325.504	1	34
325.675	1	22
325.846	1	25
326.017	1	37
326.188	1	30
326.359	1	29
326.531	1	21
326.702	1	42
326.873	1	38
327.044	1	27
327.215	1	32
327.386	1	36
327.557	1	30
327.728	1	40
327.899	1	45
328.070	1	44
328.241	1	40
328.412	1	31
328.583	1	43
328.754	1	44
328.926	1	49
329.097	1	32
329.268	1	45
329.439	1	39
329.610	1	37
329.781	1	32
329.952	1	47
330.123	1	49
330.294	1	41
330.465	1	53
330.636	1	49
330.807	1	43
330.978	1	41
331.149	1	36
331.320	1	47
331.492	1	48
331.663	1	44
331.834	1	46
332.005	1	48
332.176	1	58
332.347	1	45
332.518	1	39
332.689	1	54
332.860	1	52
333.031	1	55
333.202	1	49
333.373	1	49
333.544	1	51
333.715	1	54
333.886	1	44
334.057	1	57
334.228	1	45
334.399	1	64
334.570	1	59
334.741	1	53
334.912	1	61
335.084	1	83
335.255	1	65
335.426	1	45
335.597	1	54
335.768	1	56
335.939	1	67
336.110	1	56
336.281	1	56
336.452	1	55
336.623	1	62
336.794	1	66
336.965	1	60
337.136	1	66
337.307	1	58
337.478	1	54
337.649	1	63
337.820	1	61
337.991	1	56
338.162	1	69
338.333	1	63
338.504	1	74
338.675	1	70
338.846	1	65
339.017	1	62
339.188	1	63
339.359	1	60
339.530	1	70
339.701	1	69
339.872	1	76
340.043	1	67
340.214	1	68
340.385	1	82
340.556	1	67
340.727	1	77
340.898	1	84
341.069	1	76
341.240	1	74
341.411	1	76
341.582	1	73
341.753	1	72
341.924	1	78
342.095	1	78
342.266	1	76
342.437	1	87
342.608	1	80
342.779	1	95
342.950	1	78
343.121	1	81
343.292	1	78
343.463	1	76
343.634	1	86
343.805	1	90
343.976	1	81
344.147	1	89
344.318	1	85
344.489	1	81
344.660	1	91
344.831	1	89
345.002	1	69
345.173	1	99
345.344	1	98
345.515	1	94
345.686	1	92
345.857	1	94
346.028	1	91
346.199	1	91
346.370	1	93
346.541	1	84
346.712	1	81
346.883	1	104
347.054	1	84
347.225	1	99
347.396	1	108
347.567	1	90
347.738	1	92
347.909	1	106
348.080	1	88
348.251	1	96
348.422	1	104
348.593	1	96
348.764	1	112
348.935	1	106
349.106	1	90
349.277	1	96
349.448	1	105
349.619	1	112
349.790	1	107
349.961	1	109
350.132	1	116
350.303	1	109
350.474	1	117
350.645	1	109
350.816	1	120
350.987	1	114
351.157	1	103
351.328	1	110
351.499	1	122
351.670	1	116
351.841	1	118
352.012	1	119
352.183	1	122
352.354	1	119
352.525	1	119
352.696	1	117
352.867	1	117
353.038	1	120
353.209	1	119
353.380	1	114
353.551	1	105
353.722	1	117
353.893	1	108
354.064	1	132
354.235	1	123
354.406	1	121
354.576	1	121
354.747	1	115
354.918	1	126
355.089	1	128
355.260	1	127
355.431	1	119
355.602	1	127
355.773	1	127
355.944	1	130
356.115	1	127
356.286	1	119
356.457	1	122
356.628	1	127
356.799	1	127
356.970	1	145
357.141	1	116
357.311	1	136
357.482	1	119
357.653	1	138
357.824	1	151
357.995	1	126
358.166	1	136
358.337	1	128
358.508	1	136
358.679	1	141
358.850	1	143
359.021	1	131
359.192	1	136
359.363	1	135
359.533	1	141
359.704	1	142
359.875	1	142
360.046	1	137
360.217	1	132
360.388	1	144
360.559	1	137
360.730	1	135
360.901	1	145
361.072	1	149
361.243	1	150
361.414	1	140
361.584	1	134
361.755	1	143
361.926	1	146
362.097	1	146
362.268	1	144
362.439	1	133
362.610	1	146
362.781	1	147
362.952	1	131
363.123	1	145
363.293	1	139
363.464	1	164
363.635	1	147
363.806	1	147
363.977	1	152
364.148	1	151
364.319	1	151
364.490	1	147
364.661	1	149
364.832	1	145
365.002	1	165
365.173	1	151
365.344	1	149
365.515	1	163
365.686	1	152
365.857	1	173
366.028	1	164
366.199	1	150
366.370	1	151
366.540	1	142
366.711	1	142
366.882	1	138
367.053	1	139
367.224	1	168
367.395	1	148
367.566	1	167
367.737	1	159
367.908	1	160
368.078	1	155
368.249	1	170
368.420	1	145
368.591	1	154
368.762	1	152
368.933	1	160
369.104	1	153
369.274	1	149
369.445	1	171
369.616	1	157
369.787	1	169
369.958	1	184
370.129	1	137
370.300	1	182
370.471	1	160
370.641	1	151
370.812	1	167
370.983	1	159
371.154	1	154
371.325	1	174
371.496	1	174
371.667	1	171
371.837	1	156
372.008	1	161
372.179	1	158
372.350	1	167
372.521	1	174
372.692	1	157
372.863	1	165
373.033	1	168
373.204	1	171
373.375	1	171
373.546	1	175
373.717	1	173
373.888	1	177
374.059	1	163
374.229	1	178
374.400	1	176
374.571	1	160
374.742	1	169
374.913	1	177
375.084	1	176
375.254	1	185
375.425	1	179
375.596	1	193
375.767	1	191
375.938	1	172
376.109	1	188
376.279	1	180
376.450	1	186
376.621	1	186
376.792	1	172
376.963	1	184
377.134	1	178
377.304	1	182
377.475	1	181
377.646	1	183
377.817	1	186
377.988	1	188
378.159	1	193
378.329	1	196
378.500	1	195
378.671	1	199
378.842	1	183
379.013	1	176
379.184	1	187
379.354	1	189
379.525	1	193
379.696	1	192
379.867	1	195
380.038	1	183
380.209	1	186
380.379	1	176
380.550	1	178
380.721	1	189
380.892	1	197
381.063	1	187
381.233	1	188
381.404	1	187
381.575	1	208
381.746	1	193
381.917	1	196
382.087	1	196
382.258	1	201
382.429	1	189
382.600	1	204
382.771	1	202
382.941	1	187
383.112	1	199
383.283	1	211
383.454	1	202
383.625	1	196
383.795	1	208
383.966	1	201
384.137	1	197
384.308	1	203
384.479	1	211
384.649	1	197
384.820	1	199
384.991	1	198
385.162	1	205
385.333	1	200
385.503	1	203
385.674	1	199
385.845	1	219
386.016	1	224
386.187	1	221
386.357	1	216
386.528	1	218
386.699	1	210
386.870	1	223
387.041	1	219
387.211	1	202
387.382	1	229
387.553	1	216
387.724	1	201
387.894	1	218
388.065	1	218
388.236	1	227
388.407	1	215
388.578	1	219
388.748	1	210
388.919	1	228
389.090	1	221
389.261	1	212
389.431	1	223
389.602	1	238
389.773	1	216
389.944	1	235
390.114	1	211
390.285	1	220
390.456	1	210
390.627	1	214
390.798	1	225
390.968	1	227
391.139	1	225
391.310	1	229
391.481	1	229
391.651	1	234
391.822	1	207
391.993	1	226
392.164	1	213
392.334	1	204
392.505	1	212
392.676	1	218
392.847	1	222
393.017	1	220
393.188	1	242
393.359	1	218
393.530	1	221
393.700	1	230
393.871	1	213
394.042	1	209
394.213	1	226
394.383	1	220
394.554	1	231
394.725	1	231
394.896	1	223
395.066	1	242
395.237	1	209
395.408	1	215
395.579	1	216
395.749	1	220
395.920	1	225
396.091	1	237
396.262	1	238
396.432	1	221
396.603	1	245
396.774	1	250
396.945	1	238
397.115	1	235
397.286	1	237
397.457	1	230
397.627	1	229
397.798	1	247
397.969	1	245
398.140	1	234
398.310	1	237
398.481	1	229
398.652	1	249
398.823	1	240
398.993	1	241
399.164	1	239
399.335	1	250
399.505	1	230
399.676	1	230
399.847	1	247
400.018	1	215
400.188	1	230
400.359	1	248
400.530	1	219
400.700	1	243
400.871	1	233
401.042	1	230
401.213	1	246
401.383	1	220
401.554	1	246
401.725	1	254
401.895	1	235
402.066	1	233
402.237	1	242
402.408	1	246
402.578	1	245
402.749	1	248
402.920	1	246
403.090	1	236
403.261	1	227
403.432	1	235
403.603	1	237
403.773	1	248
403.944	1	249
404.115	1	251
404.285	1	250
404.456	1	242
404.627	1	242
404.797	1	222
404.968	1	229
405.139	1	243
405.310	1	250
405.480	1	234
405.651	1	234
405.822	1	242
405.992	1	238
406.163	1	232
406.334	1	247
406.504	1	243
406.675	1	253
406.846	1	245
407.016	1	250
407.187	1	249
407.358	1	237
407.528	1	246
407.699	1	236
407.870	1	230
408.041	1	249
408.211	1	260
408.382	1	230
408.553	1	245
408.723	1	258
408.894	1	243
409.065	1	260
409.235	1	260
409.406	1	236
409.577	1	244
409.747	1	243
409.918	1	243
410.089	1	241
410.259	1	247
410.430	1	237
410.601	1	240
410.771	1	256
410.942	1	267
411.113	1	261
411.283	1	242
411.454	1	260
411.625	1	249
411.795	1	269
411.966	1	246
412.137	1	252
412.307	1	235
412.478	1	246
412.649	1	255
412.819	1	238
412.990	1	239
413.161	1	235
413.331	1	236
413.502	1	242
413.672	1	236
413.843	1	242
414.014	1	235
414.184	1	247
414.355	1	238
414.526	1	235
414.696	1	227
414.867	1	242
415.038	1	233
415.208	1	231
415.379	1	249
415.550	1	254
415.720	1	234
415.891	1	253
416.062	1	242
416.232	1	250
416.403	1	252
416.573	1	228
416.744	1	230
416.915	1	259
417.085	1	235
417.256	1	225
417.427	1	241
417.597	1	233
417.768	1	227
417.939	1	239
418.109	1	231
418.280	1	236
418.450	1	233
418.621	1	231
418.792	1	218
418.962	1	237
419.133	1	263
419.304	1	227
419.474	1	240
419.645	1	223
419.815	1	220
419.986	1	246
420.157	1	248
420.327	1	235
420.498	1	247
420.669	1	233
420.839	1	245
421.010	1	239
421.180	1	229
421.351	1	233
421.522	1	232
421.692	1	233
421.863	1	244
422.033	1	226
422.204	1	232
422.375	1	228
422.545	1	233
422.716	1	221
422.886	1	211
423.057	1	246
423.228	1	233
423.398	1	214
423.569	1	217
423.740	1	229
423.910	1	210
424.081	1	220
424.251	1	224
424.422	1	222
424.593	1	228
424.763	1	209
424.934	1	221
425.104	1	219
425.275	1	221
425.445	1	220
425.616	1	212
425.787	1	205
425.957	1	227
426.128	1	217
426.298	1	214
426.469	1	216
426.640	1	225
426.810	1	220
426.981	1	223
427.151	1	211
427.322	1	228
427.493	1	217
427.663	1	212
427.834	1	200
428.004	1	225
428.175	1	229
428.345	1	198
428.516	1	186
428.687	1	212
428.857	1	203
429.028	1	203
429.198	1	217
429.369	1	225
429.540	1	218
429.710	1	199
429.881	1	212
430.051	1	210
430.222	1	208
430.392	1	210
430.563	1	217
430.734	1	201
430.904	1	216
431.075	1	227
431.245	1	207
431.416	1	211
431.586	1	210
431.757	1	206
431.927	1	221
432.098	1	202
432.269	1	203
432.439	1	208
432.610	1	212
432.780	1	220
432.951	1	215
433.121	1	197
433.292	1	196
433.462	1	213
433.633	1	213
433.804	1	200
433.974	1	215
434.145	1	229
434.315	1	211
434.486	1	213
434.656	1	209
434.827	1	209
434.997	1	188
435.168	1	200
435.339	1	199
435.509	1	217
435.680	1	205
435.850	1	198
436.021	1	207
436.191	1	194
436.362	1	212
436.532	1	213
436.703	1	209
436.873	1	201
437.044	1	190
437.214	1	195
437.385	1	186
437.556	1	186
437.726	1	223
437.897	1	195
438.067	1	192
438.238	1	197
438.408	1	212
438.579	1	194
438.749	1	190
438.920	1	182
439.090	1	183
439.261	1	193
439.431	1	187
439.602	1	190
439.772	1	175
439.943	1	196
440.113	1	194
440.284	1	187
440.455	1	193
440.625	1	193
440.796	1	183
440.966	1	187
441.137	1	173
441.307	1	183
441.478	1	203
441.648	1	197
441.819	1	180
441.989	1	177
442.160	1	191
442.330	1	181
442.501	1	180
442.671	1	169
442.842	1	168
443.012	1	180
443.183	1	163
443.353	1	185
443.524	1	187
443.694	1	190
443.865	1	181
444.035	1	185
444.206	1	190
444.376	1	167
444.547	1	188
444.717	1	188
444.888	1	175
445.058	1	185
445.229	1	166
445.399	1	171
445.570	1	180
445.740	1	162
445.911	1	176
446.081	1	175
446.252	1	174
446.422	1	184
446.593	1	180
446.763	1	178
446.934	1	159
447.104	1	172
447.275	1	188
447.445	1	179
447.616	1	188
447.786	1	178
447.957	1	164
448.127	1	174
448.298	1	176
448.468	1	169
448.639	1	178
448.809	1	147
448.979	1	159
449.150	1	171
449.320	1	178
449.491	1	173
449.661	1	168
449.832	1	172
450.002	1	171
450.173	1	161
450.343	1	182
450.514	1	161
450.684	1	159
450.855	1	152
451.025	1	171
451.196	1	166
451.366	1	151
451.537	1	158
451.707	1	155
451.878	1	161
452.048	1	171
452.218	1	177
452.389	1	175
452.559	1	156
452.730	1	168
452.900	1	163
453.071	1	140
453.241	1	170
453.412	1	173
453.582	1	152
453.753	1	146
453.923	1	155
454.093	1	153
454.264	1	155
454.434	1	151
454.605	1	163
454.775	1	147
454.946	1	155
455.116	1	148
455.287	1	143
455.457	1	140
455.628	1	143
455.798	1	153
455.968	1	158
456.139	1	139
456.309	1	138
456.480	1	124
456.650	1	143
456.821	1	130
456.991	1	144
457.161	1	141
457.332	1	145
457.502	1	138
457.673	1	143
457.843	1	150
458.014	1	136
458.184	1	146
458.355	1	145
458.525	1	148
458.695	1	153
458.866	1	128
459.036	1	140
459.207	1	129
459.377	1	133
459.548	1	137
459.718	1	136
459.888	1	146
460.059	1	138
460.229	1	141
460.400	1	149
460.570	1	148
460.740	1	146
460.911	1	140
461.081	1	137
461.252	1	135
461.422	1	133
461.593	1	131
461.763	1	151
461.933	1	135
462.104	1	117
462.274	1	135
462.445	1	133
462.615	1	140
462.785	1	133
462.956	1	137
463.126	1	129
463.297	1	139
463.467	1	124
463.638	1	136
463.808	1	121
463.978	1	126
464.149	1	128
464.319	1	126
464.490	1	148
464.660	1	132
464.830	1	119
465.001	1	120
465.171	1	123
465.342	1	125
465.512	1	120
465.682	1	124
465.853	1	136
466.023	1	124
466.194	1	111
466.364	1	121
466.534	1	122
466.705	1	117
466.875	1	126
467.045	1	109
467.216	1	132
467.386	1	115
467.557	1	114
467.727	1	98
467.897	1	121
468.068	1	107
468.238	1	121
468.409	1	114
468.579	1	118
468.749	1	107
468.920	1	113
469.090	1	122
469.260	1	106
469.431	1	103
469.601	1	123
469.772	1	112
469.942	1	102
470.112	1	117
470.283	1	107
470.453	1	120
470.623	1	105
470.794	1	105
470.964	1	105
471.135	1	115
471.305	1	99
471.475	1	114
471.646	1	116
471.816	1	110
471.986	1	117
472.157	1	106
472.327	1	108
472.497	1	109
472.668	1	91
472.838	1	109
473.009	1	121
473.179	1	89
473.349	1	109
473.520	1	118
473.690	1	111
473.860	1	102
474.031	1	101
474.201	1	100
474.371	1	108
474.542	1	113
474.712	1	105
474.882	1	109
475.053	1	119
475.223	1	104
475.394	1	113
475.564	1	108
475.734	1	102
475.905	1	132
476.075	1	102
476.245	1	108
476.416	1	106
476.586	1	114
476.756	1	100
476.927	1	111
477.097	1	97
477.267	1	101
477.438	1	106
477.608	1	95
477.778	1	105
477.949	1	102
478.119	1	111
478.289	1	109
478.460	1	120
478.630	1	105
478.800	1	99
478.971	1	114
479.141	1	99
479.311	1	96
479.482	1	97
479.652	1	95
479.822	1	91
479.993	1	108
480.163	1	110
480.333	1	106
480.504	1	103
480.674	1	92
480.844	1	102
481.015	1	105
481.185	1	79
481.355	1	100
481.525	1	104
481.696	1	94
481.866	1	91
482.036	1	94
482.207	1	87
482.377	1	96
482.547	1	98
482.718	1	88
482.888	1	90
483.058	1	88
483.229	1	86
483.399	1	97
483.569	1	92
483.740	1	92
483.910	1	91
484.080	1	87
484.250	1	90
484.421	1	94
484.591	1	90
484.761	1	93
484.932	1	101
485.102	1	94
485.272	1	96
485.443	1	99
485.613	1	91
485.783	1	71
485.953	1	90
486.124	1	101
486.294	1	88
486.464	1	84
486.635	1	88
486.805	1	86
486.975	1	82
487.146	1	76
487.316	1	76
487.486	1	90
487.656	1	77
487.827	1	76
487.997	1	74
488.167	1	82
488.338	1	91
488.508	1	80
488.678	1	67
488.848	1	87
489.019	1	67
489.189	1	80
489.359	1	76
489.529	1	78
489.700	1	78
489.870	1	87
490.040	1	73
490.211	1	80
490.381	1	85
490.551	1	79
490.721	1	73
490.892	1	74
491.062	1	87
491.232	1	78
491.402	1	69
491.573	1	64
491.743	1	79
491.913	1	73
492.084	1	80
492.254	1	77
492.424	1	89
492.594	1	69
492.765	1	83
492.935	1	71
493.105	1	77
493.275	1	80
493.446	1	77
493.616	1	82
493.786	1	80
493.956	1	69
494.127	1	70
494.297	1	69
494.467	1	73
494.637	1	78
494.808	1	60
494.978	1	74
495.148	1	68
495.318	1	74
495.489	1	82
495.659	1	76
495.829	1	68
495.999	1	75
496.170	1	80
496.340	1	81
496.510	1	75
496.680	1	59
496.851	1	65
497.021	1	62
497.191	1	64
497.361	1	83
497.532	1	67
497.702	1	83
497.872	1	56
498.042	1	79
498.213	1	66
498.383	1	69
498.553	1	68
498.723	1	67
498.894	1	74
499.064	1	69
499.234	1	70
499.404	1	65
499.574	1	80
499.745	1	69
499.915	1	60
500.085	1	66
500.255	1	76
500.426	1	64
500.596	1	66
500.766	1	57
500.936	1	60
501.106	1	56
501.277	1	57
501.447	1	52
501.617	1	66
501.787	1	67
501.958	1	54
502.128	1	59
502.298	1	61
502.468	1	64
502.638	1	66
502.809	1	59
502.979	1	50
503.149	1	58
503.319	1	60
503.489	1	58
503.660	1	66
503.830	1	59
504.000	1	65
504.170	1	61
504.340	1	52
504.511	1	62
504.681	1	52
504.851	1	63
505.021	1	62
505.192	1	55
505.362	1	69
505.532	1	60
505.702	1	54
505.872	1	69
506.043	1	57
506.213	1	53
506.383	1	61
506.553	1	69
506.723	1	56
506.893	1	65
507.064	1	62
507.234	1	48
507.404	1	55
507.574	1	61
507.744	1	54
507.915	1	58
508.085	1	57
508.255	1	62
508.425	1	51
508.595	1	66
508.766	1	51
508.936	1	51
509.106	1	63
509.276	1	67
509.446	1	46
509.616	1	50
509.787	1	43
509.957	1	45
510.127	1	55
510.297	1	57
510.467	1	51
510.638	1	62
510.808	1	42
510.978	1	49
511.148	1	45
511.318	1	52
511.488	1	53
511.659	1	55
511.829	1	49
511.999	1	41
512.169	1	48
512.339	1	45
512.509	1	48
512.680	1	50
512.850	1	53
513.020	1	58
513.190	1	64
513.360	1	53
513.530	1	58
513.700	1	53
513.871	1	53
514.041	1	46
514.211	1	54
514.381	1	59
514.551	1	60
514.721	1	49
514.892	1	56
515.062	1	52
515.232	1	51
515.402	1	48
515.572	1	41
515.742	1	65
515.912	1	47
516.083	1	50
516.253	1	55
516.423	1	43
516.593	1	46
516.763	1	65
516.933	1	42
517.104	1	51
517.274	1	54
517.444	1	50
517.614	1	48
517.784	1	46
517.954	1	47
518.124	1	57
518.294	1	39
518.465	1	39
518.635	1	43
518.805	1	37
518.975	1	46
519.145	1	37
519.315	1	39
519.485	1	42
519.656	1	39
519.826	1	46
519.996	1	46
520.166	1	50
520.336	1	50
520.506	1	47
520.676	1	43
520.846	1	52
521.017	1	47
521.187	1	35
521.357	1	58
521.527	1	41
521.697	1	39
521.867	1	37
522.037	1	47
522.207	1	53
522.377	1	41
522.548	1	37
522.718	1	40
522.888	1	52
523.058	1	36
523.228	1	46
523.398	1	44
523.568	1	46
523.738	1	40
523.909	1	48
524.079	1	37
524.249	1	42
524.419	1	39
524.589	1	45
524.759	1	40
524.929	1	39
525.099	1	38
525.269	1	37
525.439	1	42
525.610	1	51
525.780	1	48
525.950	1	40
526.120	1	33
526.290	1	43
526.460	1	43
526.630	1	36
526.800	1	36
526.970	1	47
527.140	1	47
527.311	1	36
527.481	1	28
527.651	1	43
527.821	1	35
527.991	1	46
528.161	1	43
528.331	1	33
528.501	1	33
528.671	1	38
528.841	1	40
529.011	1	40
529.181	1	32
529.352	1	42
529.522	1	31
529.692	1	29
529.862	1	32
530.032	1	38
530.202	1	29
530.372	1	43
530.542	1	49
530.712	1	31
530.882	1	41
531.052	1	45
531.222	1	40
531.392	1	47
531.563	1	44
531.733	1	37
531.903	1	26
532.073	1	34
532.243	1	28
532.413	1	35
532.583	1	27
532.753	1	51
532.923	1	32
533.093	1	30
533.263	1	28
533.433	1	34
533.603	1	40
533.773	1	37
533.943	1	30
534.113	1	37
534.284	1	33
534.454	1	49
534.624	1	37
534.794	1	31
534.964	1	34
535.134	1	29
535.304	1	33
535.474	1	47
535.644	1	33
535.814	1	35
535.984	1	32
536.154	1	24
536.324	1	29
536.494	1	31
536.664	1	45
536.834	1	44
537.004	1	31
537.174	1	36
537.344	1	31
537.514	1	30
537.685	1	21
537.855	1	37
538.025	1	36
538.195	1	32
538.365	1	40
538.535	1	32
538.705	1	28
538.875	1	33
539.045	1	31
539.215	1	37
539.385	1	37
539.555	1	32
539.725	1	29
539.895	1	27
540.065	1	32
540.235	1	36
540.405	1	27
540.575	1	33
540.745	1	32
540.915	1	35
541.085	1	30
541.255	1	38
541.425	1	30
541.595	1	32
541.765	1	33
541.935	1	19
542.105	1	28
542.275	1	29
542.445	1	20
542.615	1	26
542.785	1	29
542.955	1	27
543.125	1	24
543.295	1	27
543.465	1	30
543.635	1	26
543.805	1	34
543.975	1	27
544.145	1	33
544.315	1	28
544.485	1	23
544.655	1	27
544.825	1	13
544.995	1	32
545.165	1	19
545.335	1	24
545.505	1	19
545.675	1	23
545.845	1	29
546.015	1	21
546.185	1	36
546.355	1	33
546.525	1	19
546.695	1	33
546.865	1	27
547.035	1	26
547.205	1	17
547.375	1	33
547.545	1	30
547.715	1	21
547.885	1	40
548.055	1	15
548.225	1	28
548.395	1	26
548.565	1	29
548.735	1	23
548.905	1	29
549.075	1	26
549.245	1	22
549.415	1	19
549.585	1	29
549.755	1	28
549.925	1	17
550.095	1	27
550.265	1	10
550.435	1	20
550.605	1	16
550.775	1	23
550.945	1	29
551.115	1	21
551.285	1	20
551.455	1	13
551.625	1	22
551.795	1	30
551.965	1	30
552.135	1	21
552.305	1	20
552.475	1	12
552.645	1	9
552.815	1	19
552.985	1	24
553.155	1	23
553.325	1	27
553.495	1	22
553.665	1	15
553.835	1	22
554.004	1	24
554.174	1	21
554.344	1	18
554.514	1	19
554.684	1	25
554.854	1	30
555.024	1	13
555.194	1	16
555.364	1	22
555.534	1	27
555.704	1	22
555.874	1	30
556.044	1	21
556.214	1	16
556.384	1	13
556.554	1	35
556.724	1	28
556.894	1	20
557.064	1	21
557.234	1	6
557.404	1	27
557.573	1	28
557.743	1	20
557.913	1	12
558.083	1	11
558.253	1	16
558.423	1	19
558.593	1	34
558.763	1	21
558.933	1	17
559.103	1	28
559.273	1	18
559.443	1	20
559.613	1	24
559.783	1	19
559.953	1	22
560.122	1	25
560.292	1	23
560.462	1	21
560.632	1	23
560.802	1	21
560.972	1	23
561.142	1	34
561.312	1	14
561.482	1	21
561.652	1	24
561.822	1	14
561.992	1	16
562.162	1	18
562.331	1	20
562.501	1	13
562.671	1	24
562.841	1	10
563.011	1	24
563.181	1	15
563.351	1	12
563.521	1	18
563.691	1	16
563.861	1	20
564.031	1	34
564.201	1	31
564.370	1	13
564.540	1	8
564.710	1	5
564.880	1	14
565.050	1	14
565.220	1	15
565.390	1	21
565.560	1	23
565.730	1	21
565.900	1	25
566.069	1	24
566.239	1	17
566.409	1	29
566.579	1	22
566.749	1	17
566.919	1	19
567.089	1	23
567.259	1	24
567.429	1	8
567.599	1	17
567.768	1	24
567.938	1	19
568.108	1	16
568.278	1	28
568.448	1	14
568.618	1	12
568.788	1	15
568.958	1	15
569.128	1	25
569.297	1	10
569.467	1	14
569.637	1	29
569.807	1	8
569.977	1	14
570.147	1	17
570.317	1	14
570.487	1	12
570.656	1	27
570.826	1	8
570.996	1	6
571.166	1	25
571.336	1	14
571.506	1	21
571.676	1	16
571.846	1	21
572.015	1	20
572.185	1	17
572.355	1	26
572.525	1	14
572.695	1	13
572.865	1	11
573.035	1	16
573.205	1	18
573.374	1	10
573.544	1	14
573.714	1	21
573.884	1	22
574.054	1	25
574.224	1	19
574.394	1	17
574.563	1	11
574.733	1	15
574.903	1	16
575.073	1	14
575.243	1	13
575.413	1	14
575.583	1	14
575.752	1	24
575.922	1	15
576.092	1	15
576.262	1	15
576.432	1	17
576.602	1	10
576.772	1	24
576.941	1	9
577.111	1	9
577.281	1	12
577.451	1	10
577.621	1	24
577.791	1	16
577.960	1	8
578.130	1	12
578.300	1	23
578.470	1	22
578.640	1	24
578.810	1	16
578.979	1	24
579.149	1	21
579.319	1	18
579.489	1	15
579.659	1	10
579.829	1	14
579.998	1	26
580.168	1	26
580.338	1	14
580.508	1	18
580.678	1	18
580.848	1	17
581.017	1	18
581.187	1	15
581.357	1	10
581.527	1	25
581.697	1	21
581.867	1	21
582.036	1	12
582.206	1	16
582.376	1	20
582.546	1	8
582.716	1	2
582.885	1	-1
583.055	1	17
583.225	1	4
583.395	1	26
583.565	1	6
583.735	1	22
583.904	1	18
584.074	1	20
584.244	1	28
584.414	1	17
584.584	1	18
584.753	1	-1
584.923	1	10
585.093	1	15
585.263	1	14
585.433	1	16
585.602	1	5
585.772	1	12
585.942	1	19
586.112	1	11
586.282	1	16
586.451	1	6
586.621	1	8
586.791	1	17
586.961	1	12
587.131	1	16
587.300	1	9
587.470	1	17
587.640	1	15
587.810	1	9
587.980	1	22
588.149	1	15
588.319	1	12
588.489	1	15
588.659	1	13
588.829	1	19
588.998	1	25
589.168	1	20
589.338	1	18
589.508	1	18
589.677	1	9
589.847	1	11
590.017	1	18
590.187	1	4
590.357	1	24
590.526	1	26
590.696	1	21
590.866	1	24
591.036	1	9
591.205	1	26
591.375	1	11
591.545	1	12
591.715	1	15
591.885	1	10
592.054	1	14
592.224	1	13
592.394	1	13
592.564	1	16
592.733	1	16
592.903	1	21
593.073	1	12
593.243	1	9
593.412	1	14
593.582	1	2
593.752	1	12
593.922	1	20
594.091	1	12
594.261	1	8
594.431	1	22
594.601	1	25
594.771	1	21
594.940	1	14
595.110	1	19
595.280	1	18
595.450	1	12
595.619	1	10
595.789	1	13
595.959	1	24
596.129	1	11
596.298	1	11
596.468	1	18
596.638	1	23
596.808	1	8
596.977	1	16
597.147	1	20
597.317	1	5
597.487	1	27
597.656	1	19
597.826	1	17
597.996	1	17
598.166	1	22
598.335	1	12
598.505	1	16
598.675	1	5
598.844	1	22
599.014	1	15
599.184	1	15
599.354	1	4
599.523	1	27
599.693	1	10
599.863	1	19
600.033	1	21
600.202	1	19
600.372	1	23
600.542	1	19
600.712	1	15
600.881	1	3
601.051	1	24
601.221	1	23
601.390	1	10
601.560	1	22
601.730	1	21
601.900	1	21
602.069	1	20
602.239	1	20
602.409	1	4
602.578	1	15
602.748	1	17
602.918	1	22
603.088	1	16
603.257	1	18
603.427	1	14
603.597	1	19
603.767	1	28
603.936	1	16
604.106	1	20
604.276	1	12
604.445	1	16
604.615	1	13
604.785	1	9
604.954	1	5
605.124	1	22
605.294	1	18
605.464	1	16
605.633	1	18
605.803	1	19
605.973	1	22
606.142	1	19
606.312	1	21
606.482	1	10
606.652	1	28
606.821	1	13
606.991	1	21
607.161	1	25
607.330	1	24
607.500	1	28
607.670	1	8
607.839	1	27
608.009	1	27
608.179	1	30
608.348	1	18
608.518	1	14
608.688	1	24
608.858	1	8
609.027	1	16
609.197	1	23
609.367	1	17
609.536	1	22
609.706	1	15
609.876	1	19
610.045	1	23
610.215	1	19
610.385	1	15
610.554	1	23
610.724	1	26
610.894	1	17
611.063	1	23
611.233	1	5
611.403	1	15
611.572	1	24
611.742	1	18
611.912	1	25
612.081	1	18
612.251	1	18
612.421	1	7
612.590	1	19
612.760	1	18
612.930	1	9
613.099	1	20
613.269	1	29
613.439	1	21
613.608	1	14
613.778	1	25
613.948	1	23
614.117	1	20
614.287	1	30
614.457	1	19
614.626	1	19
614.796	1	31
614.966	1	15
615.135	1	13
615.305	1	21
615.475	1	19
615.644	1	26
615.814	1	21
615.984	1	13
616.153	1	14
616.323	1	21
616.493	1	17
616.662	1	32
616.832	1	22
617.002	1	11
617.171	1	12
617.341	1	17
617.511	1	23
617.680	1	15
617.850	1	17
618.019	1	21
618.189	1	32
618.359	1	21
618.528	1	21
618.698	1	22
618.868	1	12
619.037	1	24
619.207	1	20
619.377	1	19
619.546	1	21
619.716	1	10
619.885	1	16
620.055	1	14
620.225	1	27
620.394	1	17
620.564	1	26
620.734	1	17
620.903	1	14
621.073	1	29
621.242	1	13
621.412	1	18
621.582	1	19
621.751	1	29
621.921	1	25
622.091	1	20
622.260	1	20
622.430	1	28
622.599	1	17
622.769	1	28
622.939	1	31
623.108	1	29
623.278	1	12
623.448	1	19
623.617	1	18
623.787	1	20
623.956	1	27
624.126	1	27
624.296	1	18
624.465	1	31
624.635	1	33
624.804	1	25
624.974	1	24
625.144	1	21
625.313	1	19
625.483	1	18
625.652	1	19
625.822	1	17
625.992	1	24
626.161	1	40
626.331	1	22
626.501	1	25
626.670	1	27
626.840	1	15
627.009	1	21
627.179	1	26
627.348	1	28
627.518	1	21
627.688	1	32
627.857	1	34
628.027	1	18
628.196	1	23
628.366	1	30
628.536	1	24
628.705	1	24
628.875	1	23
629.044	1	28
629.214	1	20
629.384	1	34
629.553	1	38
629.723	1	29
629.892	1	38
630.062	1	35
630.232	1	17
630.401	1	36
630.571	1	30
630.740	1	27
630.910	1	22
631.079	1	32
631.249	1	35
631.419	1	30
631.588	1	27
631.758	1	37
631.927	1	24
632.097	1	25
632.266	1	27
632.436	1	32
632.606	1	13
632.775	1	45
632.945	1	23
633.114	1	37
633.284	1	41
633.453	1	15
633.623	1	32
633.793	1	38
633.962	1	31
634.132	1	39
634.301	1	35
634.471	1	42
634.640	1	36
634.810	1	31
634.979	1	33
635.149	1	33
635.319	1	27
635.488	1	29
635.658	1	29
635.827	1	22
635.997	1	32
636.166	1	42
636.336	1	28
636.505	1	30
636.675	1	35
636.845	1	44
637.014	1	26
637.184	1	41
637.353	1	37
637.523	1	31
637.692	1	30
637.862	1	34
638.031	1	30
638.201	1	45
638.370	1	16
638.540	1	29
638.710	1	31
638.879	1	19
639.049	1	31
639.218	1	35
639.388	1	16
639.557	1	36
639.727	1	33
639.896	1	22
640.066	1	27
640.235	1	33
640.405	1	34
640.574	1	24
640.744	1	36
640.914	1	30
641.083	1	32
641.253	1	33
641.422	1	39
641.592	1	48
641.761	1	35
641.931	1	28
642.100	1	55
642.270	1	30
642.439	1	48
642.609	1	32
642.778	1	38
642.948	1	33
643.117	1	41
643.287	1	39
643.456	1	33
643.626	1	51
643.795	1	32
643.965	1	33
644.134	1	29
644.304	1	34
644.473	1	34
644.643	1	51
644.812	1	39
644.982	1	43
645.151	1	40
645.321	1	26
645.490	1	41
645.660	1	39
645.829	1	45
645.999	1	34
646.168	1	28
646.338	1	45
646.507	1	30
646.677	1	28
646.846	1	36
647.016	1	32
647.185	1	36
647.355	1	25
647.524	1	41
647.694	1	51
647.863	1	38
648.033	1	41
648.202	1	41
648.372	1	34
648.541	1	29
648.711	1	41
648.880	1	32
649.050	1	39
649.219	1	33
649.389	1	42
649.558	1	34
649.728	1	38
649.897	1	34
650.067	1	43
650.236	1	40
650.406	1	33
650.575	1	39
650.745	1	43
650.914	1	43
651.084	1	41
651.253	1	42
651.423	1	46
651.592	1	47
651.762	1	27
651.931	1	36
652.101	1	34
652.270	1	50
652.440	1	28
652.609	1	36
652.778	1	28
652.948	1	39
653.117	1	35
653.287	1	48
653.456	1	44
653.626	1	43
653.795	1	41
653.965	1	41
654.134	1	42
654.304	1	27
654.473	1	48
654.643	1	44
654.812	1	45
654.982	1	45
655.151	1	40
655.320	1	38
655.490	1	31
655.659	1	46
655.829	1	41
655.998	1	31
656.168	1	41
656.337	1	52
656.507	1	37
656.676	1	44
656.846	1	50
657.015	1	46
657.184	1	48
657.354	1	47
657.523	1	40
657.693	1	54
657.862	1	40
658.032	1	44
658.201	1	35
658.371	1	54
658.540	1	34
658.709	1	35
658.879	1	46
659.048	1	41
659.218	1	42
659.387	1	53
659.557	1	47
659.726	1	41
659.895	1	45
660.065	1	38
660.234	1	37
660.404	1	40
660.573	1	35
660.743	1	44
660.912	1	34
661.081	1	50
661.251	1	41
661.420	1	44
661.590	1	49
661.759	1	38
661.929	1	44
662.098	1	50
662.267	1	40
662.437	1	46
662.606	1	43
662.776	1	45
662.945	1	36
663.115	1	49
663.284	1	32
663.453	1	48
663.623	1	45
663.792	1	61
663.962	1	46
664.131	1	51
664.300	1	48
664.470	1	43
664.639	1	35
664.809	1	45
664.978	1	57
665.148	1	44
665.317	1	51
665.486	1	41
665.656	1	44
665.825	1	51
665.995	1	52
666.164	1	51
666.333	1	45
666.503	1	44
666.672	1	40
666.842	1	35
667.011	1	43
667.180	1	47
667.350	1	37
667.519	1	39
667.689	1	50
667.858	1	47
668.027	1	47
668.197	1	47
668.366	1	42
668.536	1	50
668.705	1	51
668.874	1	49
669.044	1	42
669.213	1	54
669.382	1	51
669.552	1	50
669.721	1	45
669.891	1	55
670.060	1	50
670.229	1	60
670.399	1	46
670.568	1	60
670.738	1	57
670.907	1	35
671.076	1	35
671.246	1	45
671.415	1	40
671.584	1	47
671.754	1	41
671.923	1	39
672.093	1	48
672.262	1	39
672.431	1	57
672.601	1	40
672.770	1	33
672.939	1	46
673.109	1	43
673.278	1	54
673.448	1	60
673.617	1	46
673.786	1	44
