325.333	1	4
325.504	1	3
325.675	1	5
325.846	1	2
326.017	1	2
326.188	1	3
326.359	1	-6
326.531	1	-1
326.702	1	11
326.873	1	4
327.044	1	-3
327.215	1	-2
327.386	1	13
327.557	1	0
327.728	1	0
327.899	1	1
328.070	1	3
328.241	1	3
328.412	1	-7
328.583	1	-2
328.754	1	6
328.926	1	7
329.097	1	-7
329.268	1	14
329.439	1	0
329.610	1	8
329.781	1	-11
329.952	1	10
330.123	1	10
330.294	1	3
330.465	1	8
330.636	1	9
330.807	1	1
330.978	1	-3
331.149	1	4
331.320	1	-2
331.492	1	3
331.663	1	2
331.834	1	4
332.005	1	4
332.176	1	13
332.347	1	6
332.518	1	-2
332.689	1	18
332.860	1	2
333.031	1	5
333.202	1	-1
333.373	1	7
333.544	1	13
333.715	1	2
333.886	1	-7
334.057	1	8
334.228	1	-9
334.399	1	5
334.570	1	9
334.741	1	1
334.912	1	2
335.084	1	22
335.255	1	-4
335.426	1	3
335.597	1	0
335.768	1	1
335.939	1	2
336.110	1	1
336.281	1	-8
336.452	1	-10
336.623	1	10
336.794	1	6
336.965	1	8
337.136	1	5
337.307	1	5
337.478	1	-1
337.649	1	2
337.820	1	7
337.991	1	-2
338.162	1	7
338.333	1	6
338.504	1	14
338.675	1	3
338.846	1	10
339.017	1	8
339.188	1	-5
339.359	1	-7
339.530	1	12
339.701	1	5
339.872	1	10
340.043	1	0
340.214	1	-1
340.385	1	6
340.556	1	-4
340.727	1	12
340.898	1	15
341.069	1	9
341.240	1	3
341.411	1	9
341.582	1	5
341.753	1	4
341.924	1	0
342.095	1	2
342.266	1	3
342.437	1	8
342.608	1	-1
342.779	1	11
342.950	1	9
343.121	1	12
343.292	1	9
343.463	1	15
343.634	1	-1
343.805	1	17
343.976	1	8
344.147	1	2
344.318	1	0
344.489	1	3
344.660	1	14
344.831	1	10
345.002	1	4
345.173	1	11
345.344	1	3
345.515	1	7
345.686	1	5
345.857	1	3
346.028	1	0
346.199	1	1
346.370	1	6
346.541	1	10
346.712	1	-2
346.883	1	8
347.054	1	7
347.225	1	5
347.396	1	5
347.567	1	0
347.738	1	-7
347.909	1	11
348.080	1	-8
348.251	1	12
348.422	1	13
348.593	1	10
348.764	1	5
348.935	1	9
349.106	1	-1
349.277	1	9
349.448	1	5
349.619	1	-4
349.790	1	-1
349.961	1	11
350.132	1	17
350.303	1	8
350.474	1	16
350.645	1	2
350.816	1	7
350.987	1	10
351.157	1	1
351.328	1	7
351.499	1	12
351.670	1	0
351.841	1	13
352.012	1	12
352.183	1	14
352.354	1	13
352.525	1	12
352.696	1	7
352.867	1	-1
353.038	1	15
353.209	1	7
353.380	1	3
353.551	1	4
353.722	1	8
353.893	1	6
354.064	1	9
354.235	1	8
354.406	1	1
354.576	1	3
354.747	1	5
354.918	1	9
355.089	1	1
355.260	1	13
355.431	1	11
355.602	1	-1
355.773	1	13
355.944	1	10
356.115	1	-1
356.286	1	6
356.457	1	9
356.628	1	17
356.799	1	8
356.970	1	16
357.141	1	5
357.311	1	8
357.482	1	14
357.653	1	10
357.824	1	7
357.995	1	12
358.166	1	0
358.337	1	4
358.508	1	7
358.679	1	9
358.850	1	10
359.021	1	16
359.192	1	7
359.363	1	7
359.533	1	4
359.704	1	7
359.875	1	12
360.046	1	3
360.217	1	-4
360.388	1	10
360.559	1	2
360.730	1	15
360.901	1	5
361.072	1	16
361.243	1	5
361.414	1	7
361.584	1	3
361.755	1	18
361.926	1	2
362.097	1	12
362.268	1	16
362.439	1	-2
362.610	1	16
362.781	1	8
362.952	1	-2
363.123	1	-2
363.293	1	-2
363.464	1	24
363.635	1	13
363.806	1	5
363.977	1	11
364.148	1	0
364.319	1	15
364.490	1	11
364.661	1	14
364.832	1	10
365.002	1	10
365.173	1	10
365.344	1	10
365.515	1	2
365.686	1	16
365.857	1	15
366.028	1	19
366.199	1	4
366.370	1	2
366.540	1	2
366.711	1	1
366.882	1	0
367.053	1	0
367.224	1	24
367.395	1	7
367.566	1	17
367.737	1	18
367.908	1	9
368.078	1	9
368.249	1	11
368.420	1	-2
368.591	1	8
368.762	1	6
368.933	1	13
369.104	1	-3
369.274	1	3
369.445	1	8
369.616	1	6
369.787	1	7
369.958	1	13
370.129	1	5
370.300	1	14
370.471	1	0
370.641	1	9
370.812	1	13
370.983	1	13
371.154	1	8
371.325	1	16
371.496	1	10
371.667	1	14
371.837	1	6
372.008	1	13
372.179	1	5
372.350	1	17
372.521	1	4
372.692	1	6
372.863	1	14
373.033	1	3
373.204	1	5
373.375	1	10
373.546	1	6
373.717	1	11
373.888	1	19
374.059	1	16
374.229	1	10
374.400	1	12
374.571	1	10
374.742	1	9
374.913	1	15
375.084	1	9
375.254	1	9
375.425	1	12
375.596	1	9
375.767	1	-2
375.938	1	11
376.109	1	19
376.279	1	3
376.450	1	16
376.621	1	12
376.792	1	5
376.963	1	13
377.134	1	14
377.304	1	12
377.475	1	6
377.646	1	9
377.817	1	6
377.988	1	8
378.159	1	14
378.329	1	14
378.500	1	11
378.671	1	18
378.842	1	13
379.013	1	5
379.184	1	7
379.354	1	14
379.525	1	7
379.696	1	11
379.867	1	20
380.038	1	7
380.209	1	8
380.379	1	9
380.550	1	6
380.721	1	9
380.892	1	7
381.063	1	6
381.233	1	21
381.404	1	6
381.575	1	15
381.746	1	7
381.917	1	8
382.087	1	11
382.258	1	-1
382.429	1	9
382.600	1	17
382.771	1	16
382.941	1	7
383.112	1	9
383.283	1	14
383.454	1	15
383.625	1	13
383.795	1	9
383.966	1	14
384.137	1	19
384.308	1	11
384.479	1	8
384.649	1	19
384.820	1	11
384.991	1	13
385.162	1	18
385.333	1	10
385.503	1	13
385.674	1	0
385.845	1	27
386.016	1	19
386.187	1	13
386.357	1	21
386.528	1	16
386.699	1	8
386.870	1	14
387.041	1	13
387.211	1	16
387.382	1	28
387.553	1	10
387.724	1	6
387.894	1	11
388.065	1	12
388.236	1	23
388.407	1	4
388.578	1	-2
388.748	1	9
388.919	1	22
389.090	1	13
389.261	1	13
389.431	1	13
389.602	1	19
389.773	1	16
389.944	1	10
390.114	1	11
390.285	1	15
390.456	1	10
390.627	1	11
390.798	1	16
390.968	1	13
391.139	1	14
391.310	1	13
391.481	1	24
391.651	1	23
391.822	1	5
391.993	1	14
392.164	1	4
392.334	1	11
392.505	1	11
392.676	1	21
392.847	1	22
393.017	1	20
393.188	1	14
393.359	1	20
393.530	1	14
393.700	1	12
393.871	1	20
394.042	1	16
394.213	1	8
394.383	1	17
394.554	1	12
394.725	1	19
394.896	1	23
395.066	1	15
395.237	1	13
395.408	1	11
395.579	1	13
395.749	1	13
395.920	1	6
396.091	1	11
396.262	1	6
396.432	1	9
396.603	1	23
396.774	1	17
396.945	1	16
397.115	1	13
397.286	1	23
397.457	1	13
397.627	1	10
397.798	1	9
397.969	1	5
398.140	1	8
398.310	1	8
398.481	1	16
398.652	1	11
398.823	1	14
398.993	1	18
399.164	1	11
399.335	1	19
399.505	1	11
399.676	1	7
399.847	1	11
400.018	1	2
400.188	1	11
400.359	1	19
400.530	1	20
400.700	1	12
400.871	1	11
401.042	1	15
401.213	1	17
401.383	1	20
401.554	1	18
401.725	1	18
401.895	1	8
402.066	1	21
402.237	1	15
402.408	1	20
402.578	1	17
402.749	1	18
402.920	1	14
403.090	1	7
403.261	1	21
403.432	1	9
403.603	1	17
403.773	1	19
403.944	1	14
404.115	1	10
404.285	1	12
404.456	1	10
404.627	1	6
404.797	1	4
404.968	1	7
405.139	1	12
405.310	1	26
405.480	1	19
405.651	1	6
405.822	1	7
405.992	1	2
406.163	1	10
406.334	1	2
406.504	1	5
406.675	1	22
406.846	1	16
407.016	1	25
407.187	1	26
407.358	1	15
407.528	1	6
407.699	1	-2
407.870	1	11
408.041	1	5
408.211	1	27
408.382	1	8
408.553	1	14
408.723	1	18
408.894	1	16
409.065	1	20
409.235	1	13
409.406	1	18
409.577	1	16
409.747	1	25
409.918	1	10
410.089	1	7
410.259	1	15
410.430	1	12
410.601	1	9
410.771	1	22
410.942	1	26
411.113	1	17
411.283	1	6
411.454	1	20
411.625	1	12
411.795	1	19
411.966	1	21
412.137	1	13
412.307	1	4
412.478	1	19
412.649	1	22
412.819	1	10
412.990	1	17
413.161	1	15
413.331	1	6
413.502	1	20
413.672	1	7
413.843	1	7
414.014	1	16
414.184	1	15
414.355	1	10
414.526	1	25
414.696	1	26
414.867	1	15
415.038	1	2
415.208	1	18
415.379	1	25
415.550	1	19
415.720	1	21
415.891	1	14
416.062	1	14
416.232	1	12
416.403	1	20
416.573	1	10
416.744	1	8
416.915	1	22
417.085	1	12
417.256	1	13
417.427	1	9
417.597	1	17
417.768	1	5
417.939	1	11
418.109	1	13
418.280	1	19
418.450	1	17
418.621	1	1
418.792	1	22
418.962	1	11
419.133	1	32
419.304	1	15
419.474	1	7
419.645	1	5
419.815	1	13
419.986	1	15
420.157	1	15
420.327	1	21
420.498	1	27
420.669	1	16
420.839	1	25
421.010	1	18
421.180	1	13
421.351	1	21
421.522	1	6
421.692	1	15
421.863	1	15
422.033	1	20
422.204	1	17
422.375	1	9
422.545	1	23
422.716	1	12
422.886	1	1
423.057	1	22
423.228	1	15
423.398	1	5
423.569	1	19
423.740	1	12
423.910	1	3
424.081	1	15
424.251	1	15
424.422	1	23
424.593	1	3
424.763	1	20
424.934	1	13
425.104	1	13
425.275	1	11
425.445	1	6
425.616	1	10
425.787	1	5
425.957	1	8
426.128	1	25
426.298	1	24
426.469	1	8
426.640	1	10
426.810	1	19
426.981	1	10
427.151	1	9
427.322	1	15
427.493	1	13
427.663	1	16
427.834	1	9
428.004	1	15
428.175	1	12
428.345	1	9
428.516	1	10
428.687	1	13
428.857	1	-1
429.028	1	11
429.198	1	19
429.369	1	20
429.540	1	24
429.710	1	2
429.881	1	12
430.051	1	19
430.222	1	6
430.392	1	17
430.563	1	30
430.734	1	22
430.904	1	20
431.075	1	11
431.245	1	10
431.416	1	15
431.586	1	16
431.757	1	21
431.927	1	8
432.098	1	7
432.269	1	7
432.439	1	11
432.610	1	15
432.780	1	23
432.951	1	11
433.121	1	14
433.292	1	15
433.462	1	21
433.633	1	16
433.804	1	17
433.974	1	16
434.145	1	24
434.315	1	11
434.486	1	6
434.656	1	18
434.827	1	17
434.997	1	12
435.168	1	21
435.339	1	18
435.509	1	12
435.680	1	10
435.850	1	12
436.021	1	13
436.191	1	18
436.362	1	14
436.532	1	18
436.703	1	18
436.873	1	10
437.044	1	2
437.214	1	11
437.385	1	9
437.556	1	10
437.726	1	22
437.897	1	19
438.067	1	7
438.238	1	13
438.408	1	17
438.579	1	7
438.749	1	-3
438.920	1	5
439.090	1	14
439.261	1	15
439.431	1	5
439.602	1	7
439.772	1	4
439.943	1	17
440.113	1	21
440.284	1	12
440.455	1	14
440.625	1	14
440.796	1	24
440.966	1	8
441.137	1	11
441.307	1	13
441.478	1	19
441.648	1	21
441.819	1	8
441.989	1	17
442.160	1	19
442.330	1	6
442.501	1	18
442.671	1	12
442.842	1	2
443.012	1	7
443.183	1	21
443.353	1	-3
443.524	1	8
443.694	1	23
443.865	1	8
444.035	1	7
444.206	1	14
444.376	1	5
444.547	1	24
444.717	1	17
444.888	1	9
445.058	1	19
445.229	1	11
445.399	1	10
445.570	1	15
445.740	1	5
445.911	1	5
446.081	1	3
446.252	1	16
446.422	1	13
446.593	1	18
446.763	1	10
446.934	1	8
447.104	1	8
447.275	1	6
447.445	1	11
447.616	1	16
447.786	1	6
447.957	1	14
448.127	1	17
448.298	1	22
448.468	1	7
448.639	1	7
448.809	1	16
448.979	1	15
449.150	1	19
449.320	1	8
449.491	1	14
449.661	1	-2
449.832	1	8
450.002	1	29
450.173	1	19
450.343	1	11
450.514	1	14
450.684	1	8
450.855	1	14
451.025	1	13
451.196	1	11
451.366	1	21
451.537	1	12
451.707	1	0
451.878	1	5
452.048	1	20
452.218	1	12
452.389	1	20
452.559	1	6
452.730	1	20
452.900	1	22
453.071	1	7
453.241	1	9
453.412	1	4
453.582	1	17
453.753	1	13
453.923	1	11
454.093	1	9
454.264	1	18
454.434	1	12
454.605	1	1
454.775	1	4
454.946	1	12
455.116	1	15
455.287	1	-3
455.457	1	0
455.628	1	8
455.798	1	10
455.968	1	23
456.139	1	7
456.309	1	3
456.480	1	-7
456.650	1	6
456.821	1	6
456.991	1	7
457.161	1	14
457.332	1	19
457.502	1	-2
457.673	1	21
457.843	1	12
458.014	1	11
458.184	1	10
458.355	1	6
458.525	1	9
458.695	1	9
458.866	1	12
459.036	1	11
459.207	1	13
459.377	1	-2
459.548	1	14
459.718	1	-3
459.888	1	15
460.059	1	12
460.229	1	18
460.400	1	15
460.570	1	14
460.740	1	11
460.911	1	7
461.081	1	13
461.252	1	0
461.422	1	1
461.593	1	10
461.763	1	9
461.933	1	16
462.104	1	0
462.274	1	7
462.445	1	16
462.615	1	9
462.785	1	5
462.956	1	20
463.126	1	14
463.297	1	5
463.467	1	15
463.638	1	10
463.808	1	11
463.978	1	-2
464.149	1	9
464.319	1	5
464.490	1	23
464.660	1	-5
464.830	1	9
465.001	1	10
465.171	1	11
465.342	1	19
465.512	1	0
465.682	1	7
465.853	1	18
466.023	1	13
466.194	1	12
466.364	1	14
466.534	1	9
466.705	1	15
466.875	1	6
467.045	1	5
467.216	1	29
467.386	1	3
467.557	1	3
467.727	1	2
467.897	1	0
468.068	1	8
468.238	1	14
468.409	1	11
468.579	1	9
468.749	1	17
468.920	1	2
469.090	1	10
469.260	1	3
469.431	1	-1
469.601	1	11
469.772	1	8
469.942	1	1
470.112	1	11
470.283	1	4
470.453	1	8
470.623	1	-1
470.794	1	-1
470.964	1	9
471.135	1	15
471.305	1	-6
471.475	1	10
471.646	1	6
471.816	1	5
471.986	1	10
472.157	1	14
472.327	1	1
472.497	1	11
472.668	1	-3
472.838	1	7
473.009	1	16
473.179	1	4
473.349	1	0
473.520	1	16
473.690	1	13
473.860	1	8
474.031	1	2
474.201	1	13
474.371	1	12
474.542	1	9
474.712	1	-1
474.882	1	12
475.053	1	22
475.223	1	2
475.394	1	15
475.564	1	-1
475.734	1	6
475.905	1	11
476.075	1	6
476.245	1	16
476.416	1	12
476.586	1	13
476.756	1	7
476.927	1	18
477.097	1	7
477.267	1	-2
477.438	1	2
477.608	1	-3
477.778	1	1
477.949	1	8
478.119	1	19
478.289	1	15
478.460	1	11
478.630	1	5
478.800	1	11
478.971	1	6
479.141	1	4
479.311	1	-2
479.482	1	2
479.652	1	7
479.822	1	3
479.993	1	11
480.163	1	8
480.333	1	5
480.504	1	11
480.674	1	17
480.844	1	9
481.015	1	12
481.185	1	-4
481.355	1	13
481.525	1	6
481.696	1	10
481.866	1	8
482.036	1	7
482.207	1	2
482.377	1	7
482.547	1	15
482.718	1	-1
482.888	1	6
483.058	1	6
483.229	1	3
483.399	1	4
483.569	1	6
483.740	1	6
483.910	1	8
484.080	1	7
484.250	1	10
484.421	1	12
484.591	1	8
484.761	1	10
484.932	1	15
485.102	1	9
485.272	1	11
485.443	1	8
485.613	1	2
485.783	1	6
485.953	1	6
486.124	1	10
486.294	1	11
486.464	1	6
486.635	1	14
486.805	1	7
486.975	1	5
487.146	1	5
487.316	1	3
487.486	1	11
487.656	1	3
487.827	1	5
487.997	1	-4
488.167	1	11
488.338	1	1
488.508	1	8
488.678	1	2
488.848	1	19
489.019	1	3
489.189	1	3
489.359	1	7
489.529	1	12
489.700	1	1
489.870	1	18
490.040	1	7
490.211	1	-2
490.381	1	13
490.551	1	13
490.721	1	14
490.892	1	2
491.062	1	10
491.232	1	15
491.402	1	6
491.573	1	-5
491.743	1	4
491.913	1	5
492.084	1	8
492.254	1	6
492.424	1	1
492.594	1	3
492.765	1	2
492.935	1	7
493.105	1	7
493.275	1	6
493.446	1	12
493.616	1	9
493.786	1	5
493.956	1	4
494.127	1	6
494.297	1	5
494.467	1	1
494.637	1	8
494.808	1	-1
494.978	1	-3
495.148	1	4
495.318	1	-7
495.489	1	9
495.659	1	13
495.829	1	2
495.999	1	-1
496.170	1	7
496.340	1	9
496.510	1	11
496.680	1	-3
496.851	1	1
497.021	1	0
497.191	1	-9
497.361	1	10
497.532	1	7
497.702	1	0
497.872	1	1
498.042	1	17
498.213	1	-2
498.383	1	7
498.553	1	1
498.723	1	9
498.894	1	5
499.064	1	-3
499.234	1	5
499.404	1	8
499.574	1	10
499.745	1	13
499.915	1	4
500.085	1	6
500.255	1	12
500.426	1	7
500.596	1	14
500.766	1	-2
500.936	1	6
501.106	1	-10
501.277	1	13
501.447	1	3
501.617	1	1
501.787	1	8
501.958	1	-1
502.128	1	2
502.298	1	9
502.468	1	0
502.638	1	7
502.809	1	7
502.979	1	11
503.149	1	-3
503.319	1	0
503.489	1	6
503.660	1	8
503.830	1	3
504.000	1	11
504.170	1	-8
504.340	1	-3
504.511	1	10
504.681	1	5
504.851	1	6
505.021	1	0
505.192	1	5
505.362	1	5
505.532	1	6
505.702	1	3
505.872	1	13
506.043	1	3
506.213	1	-1
506.383	1	-3
506.553	1	13
506.723	1	1
506.893	1	4
507.064	1	12
507.234	1	5
507.404	1	-1
507.574	1	0
507.744	1	-2
507.915	1	16
508.085	1	12
508.255	1	3
508.425	1	8
508.595	1	3
508.766	1	7
508.936	1	-9
509.106	1	6
509.276	1	6
509.446	1	-2
509.616	1	7
509.787	1	2
509.957	1	1
510.127	1	6
510.297	1	2
510.467	1	-8
510.638	1	-1
510.808	1	-7
510.978	1	1
511.148	1	0
511.318	1	5
511.488	1	-7
511.659	1	6
511.829	1	-3
511.999	1	-1
512.169	1	7
512.339	1	-1
512.509	1	0
512.680	1	-2
512.850	1	2
513.020	1	4
513.190	1	11
513.360	1	4
513.530	1	7
513.700	1	7
513.871	1	0
514.041	1	-1
514.211	1	13
514.381	1	4
514.551	1	7
514.721	1	2
514.892	1	2
515.062	1	5
515.232	1	8
515.402	1	-3
515.572	1	-5
515.742	1	10
515.912	1	12
516.083	1	6
516.253	1	0
516.423	1	1
516.593	1	1
516.763	1	8
516.933	1	5
517.104	1	0
517.274	1	3
517.444	1	9
517.614	1	-4
517.784	1	1
517.954	1	12
518.124	1	10
518.294	1	3
518.465	1	-2
518.635	1	2
518.805	1	-11
518.975	1	11
519.145	1	-4
519.315	1	11
519.485	1	-1
519.656	1	8
519.826	1	2
519.996	1	-9
520.166	1	0
520.336	1	12
520.506	1	9
520.676	1	-5
520.846	1	10
521.017	1	0
521.187	1	9
521.357	1	13
521.527	1	2
521.697	1	-2
521.867	1	-4
522.037	1	7
522.207	1	11
522.377	1	5
522.548	1	4
522.718	1	4
522.888	1	16
523.058	1	10
523.228	1	6
523.398	1	4
523.568	1	-3
523.738	1	5
523.909	1	11
524.079	1	-7
524.249	1	5
524.419	1	2
524.589	1	1
524.759	1	-8
524.929	1	-2
525.099	1	6
525.269	1	0
525.439	1	3
525.610	1	14
525.780	1	1
525.950	1	5
526.120	1	4
526.290	1	3
526.460	1	-3
526.630	1	13
526.800	1	2
526.970	1	-4
527.140	1	12
527.311	1	-9
527.481	1	-12
527.651	1	11
527.821	1	-5
527.991	1	8
528.161	1	15
528.331	1	4
528.501	1	7
528.671	1	-7
528.841	1	5
529.011	1	-9
529.181	1	9
529.352	1	-1
529.522	1	5
529.692	1	7
529.862	1	8
530.032	1	8
530.202	1	1
530.372	1	1
530.542	1	9
530.712	1	13
530.882	1	10
531.052	1	1
531.222	1	4
531.392	1	4
531.563	1	9
531.733	1	2
531.903	1	4
532.073	1	8
532.243	1	-2
532.413	1	5
532.583	1	4
532.753	1	3
532.923	1	-6
533.093	1	5
533.263	1	-2
533.433	1	-7
533.603	1	0
533.773	1	1
533.943	1	-3
534.113	1	6
534.284	1	9
534.454	1	9
534.624	1	11
534.794	1	-4
534.964	1	12
535.134	1	-4
535.304	1	6
535.474	1	12
535.644	1	-5
535.814	1	-11
535.984	1	-13
536.154	1	1
536.324	1	-3
536.494	1	7
536.664	1	11
536.834	1	5
537.004	1	9
537.174	1	10
537.344	1	4
537.514	1	-10
537.685	1	-6
537.855	1	-3
538.025	1	13
538.195	1	2
538.365	1	7
538.535	1	3
538.705	1	7
538.875	1	8
539.045	1	4
539.215	1	7
539.385	1	6
539.555	1	3
539.725	1	-6
539.895	1	-12
540.065	1	17
540.235	1	8
540.405	1	-2
540.575	1	10
540.745	1	10
540.915	1	9
541.085	1	3
541.255	1	-5
541.425	1	3
541.595	1	4
541.765	1	5
541.935	1	-1
542.105	1	-8
542.275	1	5
542.445	1	-2
542.615	1	7
542.785	1	8
542.955	1	-3
543.125	1	5
543.295	1	-4
543.465	1	9
543.635	1	-3
543.805	1	18
543.975	1	2
544.145	1	2
544.315	1	12
544.485	1	5
544.655	1	4
544.825	1	-2
544.995	1	3
545.165	1	-6
545.335	1	11
545.505	1	2
545.675	1	6
545.845	1	7
546.015	1	4
546.185	1	6
546.355	1	3
546.525	1	6
546.695	1	2
546.865	1	-3
547.035	1	15
547.205	1	-5
547.375	1	9
547.545	1	2
547.715	1	-4
547.885	1	4
548.055	1	-9
548.225	1	-4
548.395	1	-1
548.565	1	6
548.735	1	6
548.905	1	2
549.075	1	10
549.245	1	1
549.415	1	-7
549.585	1	7
549.755	1	12
549.925	1	-6
550.095	1	1
550.265	1	0
550.435	1	-5
550.605	1	2
550.775	1	1
550.945	1	15
551.115	1	-1
551.285	1	-1
551.455	1	-10
551.625	1	3
551.795	1	6
551.965	1	3
552.135	1	10
552.305	1	7
552.475	1	-12
552.645	1	0
552.815	1	8
552.985	1	-7
553.155	1	3
553.325	1	8
553.495	1	0
553.665	1	-6
553.835	1	-1
554.004	1	12
554.174	1	-7
554.344	1	2
554.514	1	-6
554.684	1	6
554.854	1	1
555.024	1	-10
555.194	1	-4
555.364	1	5
555.534	1	7
555.704	1	-1
555.874	1	10
556.044	1	0
556.214	1	-6
556.384	1	1
556.554	1	9
556.724	1	6
556.894	1	-2
557.064	1	11
557.234	1	-5
557.404	1	16
557.573	1	5
557.743	1	1
557.913	1	-3
558.083	1	0
558.253	1	5
558.423	1	-4
558.593	1	3
558.763	1	2
558.933	1	-1
559.103	1	5
559.273	1	0
559.443	1	3
559.613	1	0
559.783	1	6
559.953	1	4
560.122	1	8
560.292	1	2
560.462	1	1
560.632	1	5
560.802	1	2
560.972	1	1
561.142	1	7
561.312	1	-4
561.482	1	3
561.652	1	4
561.822	1	2
561.992	1	0
562.162	1	6
562.331	1	5
562.501	1	-2
562.671	1	8
562.841	1	-7
563.011	1	6
563.181	1	6
563.351	1	-2
563.521	1	11
563.691	1	-3
563.861	1	3
564.031	1	1
564.201	1	17
564.370	1	-4
564.540	1	3
564.710	1	-11
564.880	1	9
565.050	1	4
565.220	1	-7
565.390	1	3
565.560	1	12
565.730	1	-6
565.900	1	0
566.069	1	8
566.239	1	5
566.409	1	2
566.579	1	9
566.749	1	-3
566.919	1	12
567.089	1	3
567.259	1	10
567.429	1	1
567.599	1	-4
567.768	1	4
567.938	1	7
568.108	1	9
568.278	1	1
568.448	1	-4
568.618	1	-1
568.788	1	9
568.958	1	0
569.128	1	10
569.297	1	1
569.467	1	-7
569.637	1	10
569.807	1	3
569.977	1	-2
570.147	1	14
570.317	1	-5
570.487	1	-3
570.656	1	3
570.826	1	-7
570.996	1	-9
571.166	1	10
571.336	1	-6
571.506	1	2
571.676	1	8
571.846	1	-1
572.015	1	3
572.185	1	1
572.355	1	-4
572.525	1	-2
572.695	1	3
572.865	1	-6
573.035	1	-2
573.205	1	3
573.374	1	0
573.544	1	-4
573.714	1	6
573.884	1	10
574.054	1	4
574.224	1	-2
574.394	1	-5
574.563	1	-1
574.733	1	0
574.903	1	6
575.073	1	-4
575.243	1	3
575.413	1	1
575.583	1	3
575.752	1	3
575.922	1	5
576.092	1	2
576.262	1	10
576.432	1	11
576.602	1	1
576.772	1	8
576.941	1	2
577.111	1	-1
577.281	1	-2
577.451	1	-1
577.621	1	8
577.791	1	8
577.960	1	-8
578.130	1	10
578.300	1	3
578.470	1	2
578.640	1	9
578.810	1	2
578.979	1	3
579.149	1	-2
579.319	1	-6
579.489	1	-2
579.659	1	0
579.829	1	-2
579.998	1	9
580.168	1	12
580.338	1	2
580.508	1	-1
580.678	1	3
580.848	1	3
581.017	1	5
581.187	1	3
581.357	1	-8
581.527	1	7
581.697	1	7
581.867	1	8
582.036	1	-9
582.206	1	-6
582.376	1	10
582.546	1	2
582.716	1	-6
582.885	1	-4
583.055	1	0
583.225	1	-5
583.395	1	2
583.565	1	-4
583.735	1	1
583.904	1	9
584.074	1	1
584.244	1	-3
584.414	1	0
584.584	1	6
584.753	1	-7
584.923	1	2
585.093	1	8
585.263	1	-1
585.433	1	-3
585.602	1	-9
585.772	1	6
585.942	1	0
586.112	1	-1
586.282	1	-8
586.451	1	-3
586.621	1	2
586.791	1	-7
586.961	1	6
587.131	1	7
587.300	1	-2
587.470	1	11
587.640	1	9
587.810	1	-6
587.980	1	-1
588.149	1	-3
588.319	1	6
588.489	1	-3
588.659	1	-2
588.829	1	8
588.998	1	5
589.168	1	13
589.338	1	1
589.508	1	2
589.677	1	0
589.847	1	-9
590.017	1	7
590.187	1	-6
590.357	1	4
590.526	1	11
590.696	1	8
590.866	1	4
591.036	1	0
591.205	1	10
591.375	1	7
591.545	1	-2
591.715	1	8
591.885	1	6
592.054	1	5
592.224	1	2
592.394	1	3
592.564	1	7
592.733	1	16
592.903	1	7
593.073	1	-1
593.243	1	7
593.412	1	12
593.582	1	2
593.752	1	-5
593.922	1	1
594.091	1	-1
594.261	1	3
594.431	1	-7
594.601	1	8
594.771	1	1
594.940	1	-1
595.110	1	1
595.280	1	1
595.450	1	-4
595.619	1	-8
595.789	1	7
595.959	1	8
596.129	1	-5
596.298	1	-1
596.468	1	4
596.638	1	-1
596.808	1	10
596.977	1	-1
597.147	1	3
597.317	1	-14
597.487	1	12
597.656	1	-8
597.826	1	10
597.996	1	6
598.166	1	6
598.335	1	-8
598.505	1	5
598.675	1	-4
598.844	1	1
599.014	1	-12
599.184	1	12
599.354	1	-5
599.523	1	9
599.693	1	-2
599.863	1	4
600.033	1	4
600.202	1	3
600.372	1	6
600.542	1	10
600.712	1	-6
600.881	1	-2
601.051	1	13
601.221	1	10
601.390	1	-7
601.560	1	2
601.730	1	2
601.900	1	10
602.069	1	2
602.239	1	-7
602.409	1	-3
602.578	1	-9
602.748	1	2
602.918	1	2
603.088	1	11
603.257	1	6
603.427	1	-6
603.597	1	10
603.767	1	4
603.936	1	-1
604.106	1	2
604.276	1	2
604.445	1	-1
604.615	1	2
604.785	1	6
604.954	1	-7
605.124	1	9
605.294	1	0
605.464	1	-5
605.633	1	12
605.803	1	-3
605.973	1	7
606.142	1	-5
606.312	1	6
606.482	1	-1
606.652	1	6
606.821	1	-1
606.991	1	5
607.161	1	-1
607.330	1	8
607.500	1	9
607.670	1	-4
607.839	1	8
608.009	1	15
608.179	1	-3
608.348	1	2
608.518	1	4
608.688	1	12
608.858	1	-5
609.027	1	-10
609.197	1	4
609.367	1	12
609.536	1	14
609.706	1	3
609.876	1	4
610.045	1	11
610.215	1	1
610.385	1	1
610.554	1	3
610.724	1	6
610.894	1	-3
611.063	1	2
611.233	1	-5
611.403	1	0
611.572	1	-3
611.742	1	7
611.912	1	11
612.081	1	-5
612.251	1	7
612.421	1	-8
612.590	1	2
612.760	1	-6
612.930	1	4
613.099	1	1
613.269	1	8
613.439	1	-3
613.608	1	3
613.778	1	6
613.948	1	-1
614.117	1	1
614.287	1	2
614.457	1	6
614.626	1	3
614.796	1	5
614.966	1	-9
615.135	1	3
615.305	1	5
615.475	1	-1
615.644	1	-4
615.814	1	7
615.984	1	-2
616.153	1	-3
616.323	1	1
616.493	1	3
616.662	1	4
616.832	1	0
617.002	1	-1
617.171	1	0
617.341	1	-9
617.511	1	1
617.680	1	-1
617.850	1	4
618.019	1	16
618.189	1	14
618.359	1	4
618.528	1	11
618.698	1	4
618.868	1	-6
619.037	1	-4
619.207	1	-5
619.377	1	-11
619.546	1	-5
619.716	1	4
619.885	1	-1
620.055	1	-10
620.225	1	6
620.394	1	-3
620.564	1	9
620.734	1	1
620.903	1	-9
621.073	1	6
621.242	1	4
621.412	1	-4
621.582	1	-2
621.751	1	8
621.921	1	9
622.091	1	-1
622.260	1	2
622.430	1	7
622.599	1	7
622.769	1	-5
622.939	1	10
623.108	1	6
623.278	1	-14
623.448	1	4
623.617	1	5
623.787	1	-9
623.956	1	3
624.126	1	-3
624.296	1	3
624.465	1	12
624.635	1	13
624.804	1	0
624.974	1	-3
625.144	1	9
625.313	1	2
625.483	1	-3
625.652	1	-1
625.822	1	-1
625.992	1	1
626.161	1	9
626.331	1	0
626.501	1	2
626.670	1	4
626.840	1	0
627.009	1	3
627.179	1	12
627.348	1	3
627.518	1	1
627.688	1	6
627.857	1	9
628.027	1	-3
628.196	1	0
628.366	1	5
628.536	1	5
628.705	1	6
628.875	1	2
629.044	1	4
629.214	1	4
629.384	1	4
629.553	1	8
629.723	1	8
629.892	1	1
630.062	1	3
630.232	1	0
630.401	1	2
630.571	1	13
630.740	1	1
630.910	1	4
631.079	1	-1
631.249	1	8
631.419	1	10
631.588	1	-3
631.758	1	6
631.927	1	-7
632.097	1	2
632.266	1	0
632.436	1	-3
632.606	1	-8
632.775	1	4
632.945	1	3
633.114	1	6
633.284	1	13
633.453	1	2
633.623	1	-5
633.793	1	-1
633.962	1	6
634.132	1	-4
634.301	1	-5
634.471	1	8
634.640	1	6
634.810	1	0
634.979	1	4
635.149	1	14
635.319	1	3
635.488	1	4
635.658	1	-1
635.827	1	2
635.997	1	4
636.166	1	-2
636.336	1	-2
636.505	1	11
636.675	1	-7
636.845	1	10
637.014	1	2
637.184	1	2
637.353	1	5
637.523	1	12
637.692	1	3
637.862	1	2
638.031	1	-2
638.201	1	7
638.370	1	9
638.540	1	-2
638.710	1	-8
638.879	1	-5
639.049	1	2
639.218	1	3
639.388	1	3
639.557	1	3
639.727	1	2
639.896	1	4
640.066	1	-2
640.235	1	3
640.405	1	5
640.574	1	7
640.744	1	-4
640.914	1	6
641.083	1	4
641.253	1	3
641.422	1	3
641.592	1	4
641.761	1	6
641.931	1	1
642.100	1	21
642.270	1	2
642.439	1	8
642.609	1	11
642.778	1	2
642.948	1	-4
643.117	1	6
643.287	1	4
643.456	1	-3
643.626	1	12
643.795	1	0
643.965	1	3
644.134	1	3
644.304	1	4
644.473	1	2
644.643	1	12
644.812	1	1
644.982	1	2
645.151	1	4
645.321	1	-6
645.490	1	12
645.660	1	-6
645.829	1	-8
645.999	1	5
646.168	1	4
646.338	1	7
646.507	1	4
646.677	1	7
646.846	1	3
647.016	1	-10
647.185	1	6
647.355	1	-17
647.524	1	9
647.694	1	3
647.863	1	4
648.033	1	6
648.202	1	-5
648.372	1	5
648.541	1	-2
648.711	1	-2
648.880	1	-4
649.050	1	-1
649.219	1	9
649.389	1	5
649.558	1	-2
649.728	1	7
649.897	1	0
650.067	1	-2
650.236	1	-4
650.406	1	10
650.575	1	12
650.745	1	7
650.914	1	-5
651.084	1	-4
651.253	1	2
651.423	1	6
651.592	1	5
651.762	1	-4
651.931	1	15
652.101	1	13
652.270	1	4
652.440	1	11
652.609	1	-8
652.778	1	-5
652.948	1	3
653.117	1	3
653.287	1	4
653.456	1	0
653.626	1	6
653.795	1	5
653.965	1	-3
654.134	1	8
654.304	1	-13
654.473	1	10
654.643	1	2
654.812	1	9
654.982	1	2
655.151	1	8
655.320	1	-2
655.490	1	4
655.659	1	7
655.829	1	-6
655.998	1	-2
656.168	1	2
656.337	1	3
656.507	1	13
656.676	1	5
656.846	1	15
657.015	1	6
657.184	1	11
657.354	1	3
657.523	1	8
657.693	1	7
657.862	1	-2
658.032	1	5
658.201	1	8
658.371	1	14
658.540	1	-2
658.709	1	6
658.879	1	4
659.048	1	-4
659.218	1	4
659.387	1	11
659.557	1	0
659.726	1	11
659.895	1	-5
660.065	1	-4
660.234	1	-2
660.404	1	13
660.573	1	1
660.743	1	1
660.912	1	0
661.081	1	8
661.251	1	0
661.420	1	13
661.590	1	4
661.759	1	12
661.929	1	1
662.098	1	15
662.267	1	-1
662.437	1	-3
662.606	1	3
662.776	1	3
662.945	1	4
663.115	1	-2
663.284	1	-13
663.453	1	10
663.623	1	3
663.792	1	4
663.962	1	0
664.131	1	4
664.300	1	6
664.470	1	5
664.639	1	1
664.809	1	2
664.978	1	5
665.148	1	-4
665.317	1	0
665.486	1	10
665.656	1	-6
665.825	1	5
665.995	1	-4
666.164	1	-8
666.333	1	1
666.503	1	5
666.672	1	-6
666.842	1	-2
667.011	1	-4
667.180	1	10
667.350	1	-4
667.519	1	5
667.689	1	1
667.858	1	0
668.027	1	7
668.197	1	-7
668.366	1	-2
668.536	1	11
668.705	1	5
668.874	1	3
669.044	1	3
669.213	1	11
669.382	1	-12
669.552	1	8
669.721	1	4
669.891	1	15
670.060	1	14
670.229	1	20
670.399	1	-1
670.568	1	8
670.738	1	13
670.907	1	-2
671.076	1	6
671.246	1	3
671.415	1	6
671.584	1	7
671.754	1	3
671.923	1	-5
672.093	1	3
672.262	1	-11
672.431	1	6
672.601	1	1
672.770	1	-2
672.939	1	7
673.109	1	0
673.278	1	1
673.448	1	7
673.617	1	6
673.786	1	9
