325.333	1	6
325.504	1	6
325.675	1	14
325.846	1	5
326.017	1	-4
326.188	1	7
326.359	1	-3
326.531	1	-9
326.702	1	-8
326.873	1	6
327.044	1	0
327.215	1	-3
327.386	1	8
327.557	1	-10
327.728	1	1
327.899	1	2
328.070	1	11
328.241	1	-9
328.412	1	-7
328.583	1	15
328.754	1	6
328.926	1	12
329.097	1	-6
329.268	1	2
329.439	1	-9
329.610	1	-2
329.781	1	-8
329.952	1	10
330.123	1	7
330.294	1	5
330.465	1	4
330.636	1	15
330.807	1	-6
330.978	1	4
331.149	1	0
331.320	1	8
331.492	1	3
331.663	1	6
331.834	1	13
332.005	1	5
332.176	1	17
332.347	1	4
332.518	1	-2
332.689	1	7
332.860	1	8
333.031	1	11
333.202	1	-7
333.373	1	8
333.544	1	0
333.715	1	14
333.886	1	-8
334.057	1	5
334.228	1	0
334.399	1	18
334.570	1	11
334.741	1	-1
334.912	1	12
335.084	1	13
335.255	1	3
335.426	1	4
335.597	1	6
335.768	1	3
335.939	1	14
336.110	1	6
336.281	1	-4
336.452	1	-4
336.623	1	-2
336.794	1	12
336.965	1	1
337.136	1	8
337.307	1	-6
337.478	1	2
337.649	1	8
337.820	1	4
337.991	1	-1
338.162	1	1
338.333	1	-1
338.504	1	5
338.675	1	3
338.846	1	1
339.017	1	5
339.188	1	2
339.359	1	0
339.530	1	3
339.701	1	12
339.872	1	24
340.043	1	-8
340.214	1	0
340.385	1	11
340.556	1	-2
340.727	1	9
340.898	1	21
341.069	1	15
341.240	1	4
341.411	1	6
341.582	1	0
341.753	1	-4
341.924	1	5
342.095	1	7
342.266	1	4
342.437	1	3
342.608	1	7
342.779	1	7
342.950	1	14
343.121	1	7
343.292	1	-3
343.463	1	0
343.634	1	6
343.805	1	11
343.976	1	7
344.147	1	2
344.318	1	5
344.489	1	10
344.660	1	18
344.831	1	3
345.002	1	-9
345.173	1	11
345.344	1	-2
345.515	1	18
345.686	1	11
345.857	1	15
346.028	1	13
346.199	1	-6
346.370	1	11
346.541	1	11
346.712	1	0
346.883	1	3
347.054	1	7
347.225	1	8
347.396	1	12
347.567	1	14
347.738	1	-6
347.909	1	21
348.080	1	-2
348.251	1	15
348.422	1	10
348.593	1	5
348.764	1	3
348.935	1	4
349.106	1	2
349.277	1	5
349.448	1	5
349.619	1	4
349.790	1	14
349.961	1	20
350.132	1	15
350.303	1	6
350.474	1	4
350.645	1	7
350.816	1	10
350.987	1	7
351.157	1	6
351.328	1	15
351.499	1	15
351.670	1	1
351.841	1	16
352.012	1	16
352.183	1	14
352.354	1	9
352.525	1	17
352.696	1	14
352.867	1	6
353.038	1	15
353.209	1	14
353.380	1	5
353.551	1	-6
353.722	1	10
353.893	1	8
354.064	1	20
354.235	1	8
354.406	1	10
354.576	1	0
354.747	1	1
354.918	1	0
355.089	1	12
355.260	1	15
355.431	1	13
355.602	1	2
355.773	1	16
355.944	1	12
356.115	1	8
356.286	1	9
356.457	1	9
356.628	1	17
356.799	1	10
356.970	1	28
357.141	1	14
357.311	1	1
357.482	1	8
357.653	1	13
357.824	1	18
357.995	1	11
358.166	1	-1
358.337	1	4
358.508	1	13
358.679	1	7
358.850	1	14
359.021	1	6
359.192	1	13
359.363	1	6
359.533	1	3
359.704	1	13
359.875	1	-3
360.046	1	9
360.217	1	-3
360.388	1	14
360.559	1	1
360.730	1	13
360.901	1	0
361.072	1	19
361.243	1	12
361.414	1	13
361.584	1	5
361.755	1	13
361.926	1	6
362.097	1	10
362.268	1	7
362.439	1	2
362.610	1	11
362.781	1	6
362.952	1	10
363.123	1	10
363.293	1	-3
363.464	1	10
363.635	1	10
363.806	1	13
363.977	1	9
364.148	1	15
364.319	1	11
364.490	1	9
364.661	1	9
364.832	1	17
365.002	1	7
365.173	1	11
365.344	1	12
365.515	1	6
365.686	1	8
365.857	1	12
366.028	1	21
366.199	1	14
366.370	1	22
366.540	1	-1
366.711	1	3
366.882	1	-1
367.053	1	0
367.224	1	24
367.395	1	27
367.566	1	18
367.737	1	16
367.908	1	23
368.078	1	6
368.249	1	14
368.420	1	7
368.591	1	0
368.762	1	9
368.933	1	2
369.104	1	-2
369.274	1	9
369.445	1	12
369.616	1	13
369.787	1	13
369.958	1	21
370.129	1	-5
370.300	1	23
370.471	1	6
370.641	1	10
370.812	1	18
370.983	1	10
371.154	1	11
371.325	1	16
371.496	1	12
371.667	1	13
371.837	1	6
372.008	1	4
372.179	1	6
372.350	1	24
372.521	1	18
372.692	1	17
372.863	1	18
373.033	1	7
373.204	1	11
373.375	1	5
373.546	1	17
373.717	1	17
373.888	1	22
374.059	1	9
374.229	1	15
374.400	1	9
374.571	1	11
374.742	1	25
374.913	1	17
375.084	1	6
375.254	1	13
375.425	1	18
375.596	1	20
375.767	1	15
375.938	1	17
376.109	1	17
376.279	1	12
376.450	1	15
376.621	1	15
376.792	1	5
376.963	1	13
377.134	1	13
377.304	1	15
377.475	1	6
377.646	1	10
377.817	1	4
377.988	1	15
378.159	1	14
378.329	1	25
378.500	1	12
378.671	1	10
378.842	1	11
379.013	1	1
379.184	1	9
379.354	1	20
379.525	1	11
379.696	1	16
379.867	1	25
380.038	1	8
380.209	1	16
380.379	1	6
380.550	1	10
380.721	1	17
380.892	1	18
381.063	1	18
381.233	1	19
381.404	1	12
381.575	1	22
381.746	1	23
381.917	1	12
382.087	1	16
382.258	1	14
382.429	1	11
382.600	1	21
382.771	1	14
382.941	1	9
383.112	1	11
383.283	1	10
383.454	1	13
383.625	1	8
383.795	1	15
383.966	1	12
384.137	1	17
384.308	1	19
384.479	1	12
384.649	1	13
384.820	1	16
384.991	1	13
385.162	1	10
385.333	1	14
385.503	1	15
385.674	1	2
385.845	1	22
386.016	1	12
386.187	1	10
386.357	1	18
386.528	1	18
386.699	1	6
386.870	1	26
387.041	1	17
387.211	1	7
387.382	1	24
387.553	1	17
387.724	1	9
387.894	1	19
388.065	1	13
388.236	1	19
388.407	1	11
388.578	1	15
388.748	1	11
388.919	1	30
389.090	1	17
389.261	1	17
389.431	1	21
389.602	1	22
389.773	1	17
389.944	1	9
390.114	1	14
390.285	1	20
390.456	1	12
390.627	1	11
390.798	1	17
390.968	1	23
391.139	1	19
391.310	1	10
391.481	1	19
391.651	1	17
391.822	1	6
391.993	1	19
392.164	1	9
392.334	1	15
392.505	1	11
392.676	1	26
392.847	1	29
393.017	1	21
393.188	1	21
393.359	1	8
393.530	1	12
393.700	1	11
393.871	1	10
394.042	1	9
394.213	1	12
394.383	1	23
394.554	1	19
394.725	1	23
394.896	1	9
395.066	1	21
395.237	1	9
395.408	1	13
395.579	1	19
395.749	1	11
395.920	1	12
396.091	1	16
396.262	1	17
396.432	1	17
396.603	1	21
396.774	1	33
396.945	1	21
397.115	1	16
397.286	1	10
397.457	1	19
397.627	1	20
397.798	1	21
397.969	1	9
398.140	1	15
398.310	1	13
398.481	1	17
398.652	1	22
398.823	1	9
398.993	1	13
399.164	1	12
399.335	1	29
399.505	1	17
399.676	1	11
399.847	1	18
400.018	1	14
400.188	1	13
400.359	1	20
400.530	1	13
400.700	1	11
400.871	1	18
401.042	1	15
401.213	1	20
401.383	1	20
401.554	1	24
401.725	1	15
401.895	1	11
402.066	1	16
402.237	1	17
402.408	1	21
402.578	1	19
402.749	1	19
402.920	1	25
403.090	1	23
403.261	1	24
403.432	1	24
403.603	1	17
403.773	1	25
403.944	1	18
404.115	1	26
404.285	1	19
404.456	1	15
404.627	1	9
404.797	1	10
404.968	1	11
405.139	1	15
405.310	1	32
405.480	1	19
405.651	1	11
405.822	1	17
405.992	1	19
406.163	1	20
406.334	1	6
406.504	1	17
406.675	1	23
406.846	1	8
407.016	1	22
407.187	1	17
407.358	1	16
407.528	1	8
407.699	1	13
407.870	1	22
408.041	1	16
408.211	1	35
408.382	1	12
408.553	1	6
408.723	1	16
408.894	1	16
409.065	1	24
409.235	1	15
409.406	1	21
409.577	1	16
409.747	1	26
409.918	1	20
410.089	1	18
410.259	1	19
410.430	1	19
410.601	1	16
410.771	1	10
410.942	1	31
411.113	1	28
411.283	1	14
411.454	1	21
411.625	1	20
411.795	1	16
411.966	1	14
412.137	1	18
412.307	1	12
412.478	1	13
412.649	1	19
412.819	1	15
412.990	1	18
413.161	1	20
413.331	1	6
413.502	1	19
413.672	1	18
413.843	1	17
414.014	1	15
414.184	1	21
414.355	1	24
414.526	1	20
414.696	1	28
414.867	1	26
415.038	1	3
415.208	1	25
415.379	1	21
415.550	1	30
415.720	1	2
415.891	1	9
416.062	1	16
416.232	1	16
416.403	1	23
416.573	1	22
416.744	1	13
416.915	1	25
417.085	1	19
417.256	1	12
417.427	1	15
417.597	1	17
417.768	1	6
417.939	1	20
418.109	1	15
418.280	1	26
418.450	1	14
418.621	1	6
418.792	1	18
418.962	1	20
419.133	1	24
419.304	1	9
419.474	1	15
419.645	1	20
419.815	1	11
419.986	1	19
420.157	1	26
420.327	1	19
420.498	1	33
420.669	1	18
420.839	1	27
421.010	1	21
421.180	1	18
421.351	1	8
421.522	1	20
421.692	1	15
421.863	1	25
422.033	1	17
422.204	1	21
422.375	1	8
422.545	1	24
422.716	1	9
422.886	1	15
423.057	1	17
423.228	1	18
423.398	1	10
423.569	1	25
423.740	1	8
423.910	1	9
424.081	1	9
424.251	1	13
424.422	1	21
424.593	1	16
424.763	1	27
424.934	1	20
425.104	1	19
425.275	1	9
425.445	1	10
425.616	1	9
425.787	1	12
425.957	1	10
426.128	1	14
426.298	1	20
426.469	1	7
426.640	1	14
426.810	1	26
426.981	1	8
427.151	1	5
427.322	1	18
427.493	1	14
427.663	1	13
427.834	1	7
428.004	1	25
428.175	1	26
428.345	1	12
428.516	1	1
428.687	1	30
428.857	1	11
429.028	1	14
429.198	1	12
429.369	1	17
429.540	1	16
429.710	1	4
429.881	1	21
430.051	1	15
430.222	1	15
430.392	1	15
430.563	1	19
430.734	1	25
430.904	1	21
431.075	1	19
431.245	1	5
431.416	1	21
431.586	1	22
431.757	1	14
431.927	1	14
432.098	1	13
432.269	1	10
432.439	1	17
432.610	1	12
432.780	1	15
432.951	1	17
433.121	1	19
433.292	1	22
433.462	1	24
433.633	1	17
433.804	1	20
433.974	1	11
434.145	1	29
434.315	1	10
434.486	1	5
434.656	1	13
434.827	1	15
434.997	1	9
435.168	1	22
435.339	1	23
435.509	1	19
435.680	1	14
435.850	1	16
436.021	1	12
436.191	1	12
436.362	1	17
436.532	1	13
436.703	1	20
436.873	1	17
437.044	1	3
437.214	1	11
437.385	1	9
437.556	1	13
437.726	1	20
437.897	1	25
438.067	1	11
438.238	1	18
438.408	1	26
438.579	1	11
438.749	1	14
438.920	1	8
439.090	1	19
439.261	1	8
439.431	1	17
439.602	1	18
439.772	1	13
439.943	1	29
440.113	1	18
440.284	1	20
440.455	1	15
440.625	1	21
440.796	1	9
440.966	1	7
441.137	1	-3
441.307	1	13
441.478	1	22
441.648	1	29
441.819	1	18
441.989	1	25
442.160	1	27
442.330	1	13
442.501	1	15
442.671	1	9
442.842	1	-1
443.012	1	5
443.183	1	16
443.353	1	8
443.524	1	17
443.694	1	21
443.865	1	17
444.035	1	13
444.206	1	10
444.376	1	9
444.547	1	26
444.717	1	16
444.888	1	12
445.058	1	19
445.229	1	15
445.399	1	11
445.570	1	16
445.740	1	7
445.911	1	8
446.081	1	3
446.252	1	14
446.422	1	18
446.593	1	12
446.763	1	13
446.934	1	4
447.104	1	22
447.275	1	11
447.445	1	12
447.616	1	12
447.786	1	9
447.957	1	17
448.127	1	8
448.298	1	19
448.468	1	10
448.639	1	7
448.809	1	21
448.979	1	-2
449.150	1	15
449.320	1	12
449.491	1	22
449.661	1	10
449.832	1	12
450.002	1	21
450.173	1	18
450.343	1	11
450.514	1	15
450.684	1	13
450.855	1	9
451.025	1	18
451.196	1	15
451.366	1	21
451.537	1	16
451.707	1	-4
451.878	1	13
452.048	1	22
452.218	1	21
452.389	1	26
452.559	1	11
452.730	1	16
452.900	1	23
453.071	1	2
453.241	1	14
453.412	1	9
453.582	1	10
453.753	1	14
453.923	1	10
454.093	1	25
454.264	1	21
454.434	1	12
454.605	1	11
454.775	1	12
454.946	1	13
455.116	1	20
455.287	1	-1
455.457	1	4
455.628	1	5
455.798	1	19
455.968	1	23
456.139	1	8
456.309	1	13
456.480	1	8
456.650	1	13
456.821	1	6
456.991	1	8
457.161	1	3
457.332	1	18
457.502	1	2
457.673	1	22
457.843	1	15
458.014	1	13
458.184	1	19
458.355	1	10
458.525	1	14
458.695	1	11
458.866	1	11
459.036	1	17
459.207	1	4
459.377	1	9
459.548	1	21
459.718	1	8
459.888	1	8
460.059	1	18
460.229	1	21
460.400	1	14
460.570	1	15
460.740	1	15
460.911	1	15
461.081	1	10
461.252	1	4
461.422	1	3
461.593	1	7
461.763	1	14
461.933	1	16
462.104	1	13
462.274	1	11
462.445	1	14
462.615	1	14
462.785	1	5
462.956	1	8
463.126	1	19
463.297	1	11
463.467	1	9
463.638	1	10
463.808	1	-2
463.978	1	14
464.149	1	11
464.319	1	7
464.490	1	24
464.660	1	8
464.830	1	3
465.001	1	9
465.171	1	19
465.342	1	16
465.512	1	-2
465.682	1	8
465.853	1	6
466.023	1	9
466.194	1	2
466.364	1	14
466.534	1	6
466.705	1	8
466.875	1	6
467.045	1	8
467.216	1	22
467.386	1	4
467.557	1	9
467.727	1	1
467.897	1	4
468.068	1	7
468.238	1	7
468.409	1	4
468.579	1	20
468.749	1	11
468.920	1	-6
469.090	1	11
469.260	1	4
469.431	1	9
469.601	1	17
469.772	1	5
469.942	1	-2
470.112	1	14
470.283	1	7
470.453	1	11
470.623	1	6
470.794	1	6
470.964	1	9
471.135	1	11
471.305	1	-2
471.475	1	8
471.646	1	4
471.816	1	13
471.986	1	1
472.157	1	13
472.327	1	5
472.497	1	16
472.668	1	2
472.838	1	8
473.009	1	9
473.179	1	3
473.349	1	-2
473.520	1	20
473.690	1	11
473.860	1	7
474.031	1	5
474.201	1	16
474.371	1	16
474.542	1	15
474.712	1	8
474.882	1	14
475.053	1	14
475.223	1	8
475.394	1	9
475.564	1	10
475.734	1	6
475.905	1	18
476.075	1	5
476.245	1	13
476.416	1	12
476.586	1	13
476.756	1	8
476.927	1	9
477.097	1	12
477.267	1	6
477.438	1	21
477.608	1	20
477.778	1	6
477.949	1	15
478.119	1	7
478.289	1	13
478.460	1	10
478.630	1	17
478.800	1	2
478.971	1	7
479.141	1	3
479.311	1	-1
479.482	1	15
479.652	1	3
479.822	1	8
479.993	1	7
480.163	1	13
480.333	1	7
480.504	1	6
480.674	1	13
480.844	1	0
481.015	1	14
481.185	1	6
481.355	1	13
481.525	1	5
481.696	1	11
481.866	1	8
482.036	1	5
482.207	1	1
482.377	1	7
482.547	1	13
482.718	1	6
482.888	1	19
483.058	1	11
483.229	1	-4
483.399	1	0
483.569	1	1
483.740	1	6
483.910	1	3
484.080	1	5
484.250	1	14
484.421	1	2
484.591	1	18
484.761	1	12
484.932	1	15
485.102	1	14
485.272	1	17
485.443	1	18
485.613	1	12
485.783	1	15
485.953	1	14
486.124	1	11
486.294	1	13
486.464	1	9
486.635	1	19
486.805	1	13
486.975	1	-1
487.146	1	14
487.316	1	8
487.486	1	3
487.656	1	-1
487.827	1	1
487.997	1	2
488.167	1	-2
488.338	1	11
488.508	1	1
488.678	1	-4
488.848	1	11
489.019	1	3
489.189	1	5
489.359	1	9
489.529	1	11
489.700	1	6
489.870	1	15
490.040	1	2
490.211	1	-1
490.381	1	11
490.551	1	2
490.721	1	14
490.892	1	4
491.062	1	8
491.232	1	17
491.402	1	5
491.573	1	-6
491.743	1	12
491.913	1	3
492.084	1	16
492.254	1	8
492.424	1	1
492.594	1	7
492.765	1	6
492.935	1	7
493.105	1	11
493.275	1	5
493.446	1	15
493.616	1	13
493.786	1	10
493.956	1	5
494.127	1	7
494.297	1	2
494.467	1	4
494.637	1	2
494.808	1	8
494.978	1	1
495.148	1	11
495.318	1	0
495.489	1	11
495.659	1	8
495.829	1	6
495.999	1	0
496.170	1	9
496.340	1	5
496.510	1	14
496.680	1	1
496.851	1	-2
497.021	1	-4
497.191	1	-1
497.361	1	3
497.532	1	5
497.702	1	4
497.872	1	0
498.042	1	10
498.213	1	7
498.383	1	4
498.553	1	12
498.723	1	-6
498.894	1	4
499.064	1	12
499.234	1	11
499.404	1	-1
499.574	1	8
499.745	1	15
499.915	1	11
500.085	1	7
500.255	1	15
500.426	1	5
500.596	1	9
500.766	1	11
500.936	1	0
501.106	1	3
501.277	1	5
501.447	1	5
501.617	1	3
501.787	1	6
501.958	1	-7
502.128	1	2
502.298	1	9
502.468	1	9
502.638	1	-6
502.809	1	1
502.979	1	-5
503.149	1	-9
503.319	1	6
503.489	1	4
503.660	1	1
503.830	1	3
504.000	1	10
504.170	1	10
504.340	1	5
504.511	1	9
504.681	1	2
504.851	1	6
505.021	1	3
505.192	1	-6
505.362	1	16
505.532	1	9
505.702	1	3
505.872	1	9
506.043	1	7
506.213	1	-1
506.383	1	1
506.553	1	12
506.723	1	8
506.893	1	3
507.064	1	3
507.234	1	4
507.404	1	2
507.574	1	1
507.744	1	-1
507.915	1	-2
508.085	1	17
508.255	1	6
508.425	1	1
508.595	1	7
508.766	1	10
508.936	1	-5
509.106	1	16
509.276	1	7
509.446	1	-5
509.616	1	-1
509.787	1	5
509.957	1	8
510.127	1	-3
510.297	1	7
510.467	1	4
510.638	1	6
510.808	1	-4
510.978	1	-12
511.148	1	7
511.318	1	5
511.488	1	-4
511.659	1	7
511.829	1	-2
511.999	1	3
512.169	1	13
512.339	1	2
512.509	1	4
512.680	1	6
512.850	1	10
513.020	1	10
513.190	1	7
513.360	1	-3
513.530	1	3
513.700	1	12
513.871	1	3
514.041	1	6
514.211	1	14
514.381	1	9
514.551	1	4
514.721	1	1
514.892	1	4
515.062	1	7
515.232	1	8
515.402	1	1
515.572	1	-4
515.742	1	5
515.912	1	0
516.083	1	1
516.253	1	4
516.423	1	-2
516.593	1	0
516.763	1	9
516.933	1	9
517.104	1	7
517.274	1	1
517.444	1	-3
517.614	1	-4
517.784	1	4
517.954	1	0
518.124	1	5
518.294	1	2
518.465	1	0
518.635	1	0
518.805	1	-12
518.975	1	4
519.145	1	8
519.315	1	2
519.485	1	1
519.656	1	14
519.826	1	8
519.996	1	-11
520.166	1	-1
520.336	1	18
520.506	1	-5
520.676	1	7
520.846	1	12
521.017	1	-6
521.187	1	-3
521.357	1	17
521.527	1	-2
521.697	1	2
521.867	1	-7
522.037	1	9
522.207	1	7
522.377	1	6
522.548	1	2
522.718	1	12
522.888	1	14
523.058	1	8
523.228	1	13
523.398	1	7
523.568	1	7
523.738	1	0
523.909	1	8
524.079	1	3
524.249	1	-4
524.419	1	7
524.589	1	-4
524.759	1	-1
524.929	1	-6
525.099	1	13
525.269	1	5
525.439	1	4
525.610	1	19
525.780	1	2
525.950	1	1
526.120	1	-5
526.290	1	15
526.460	1	-8
526.630	1	5
526.800	1	-2
526.970	1	-3
527.140	1	9
527.311	1	-6
527.481	1	-8
527.651	1	7
527.821	1	4
527.991	1	12
528.161	1	22
528.331	1	-1
528.501	1	6
528.671	1	1
528.841	1	8
529.011	1	4
529.181	1	8
529.352	1	6
529.522	1	1
529.692	1	2
529.862	1	5
530.032	1	13
530.202	1	-1
530.372	1	-5
530.542	1	6
530.712	1	12
530.882	1	8
531.052	1	9
531.222	1	0
531.392	1	9
531.563	1	2
531.733	1	7
531.903	1	9
532.073	1	1
532.243	1	1
532.413	1	4
532.583	1	-1
532.753	1	5
532.923	1	-2
533.093	1	7
533.263	1	-2
533.433	1	3
533.603	1	8
533.773	1	-4
533.943	1	3
534.113	1	2
534.284	1	7
534.454	1	7
534.624	1	5
534.794	1	5
534.964	1	7
535.134	1	-4
535.304	1	-2
535.474	1	6
535.644	1	-3
535.814	1	0
535.984	1	1
536.154	1	-6
536.324	1	0
536.494	1	1
536.664	1	8
536.834	1	-1
537.004	1	1
537.174	1	0
537.344	1	13
537.514	1	0
537.685	1	-2
537.855	1	4
538.025	1	0
538.195	1	7
538.365	1	4
538.535	1	-5
538.705	1	-4
538.875	1	1
539.045	1	5
539.215	1	3
539.385	1	3
539.555	1	6
539.725	1	0
539.895	1	1
540.065	1	12
540.235	1	8
540.405	1	0
540.575	1	4
540.745	1	4
540.915	1	7
541.085	1	9
541.255	1	2
541.425	1	7
541.595	1	3
541.765	1	4
541.935	1	3
542.105	1	-7
542.275	1	-1
542.445	1	0
542.615	1	3
542.785	1	11
542.955	1	2
543.125	1	9
543.295	1	8
543.465	1	-2
543.635	1	2
543.805	1	11
543.975	1	3
544.145	1	15
544.315	1	5
544.485	1	6
544.655	1	7
544.825	1	-11
544.995	1	2
545.165	1	-5
545.335	1	0
545.505	1	-3
545.675	1	1
545.845	1	14
546.015	1	0
546.185	1	14
546.355	1	3
546.525	1	2
546.695	1	11
546.865	1	-7
547.035	1	0
547.205	1	1
547.375	1	0
547.545	1	5
547.715	1	2
547.885	1	-4
548.055	1	4
548.225	1	-5
548.395	1	-1
548.565	1	9
548.735	1	-3
548.905	1	3
549.075	1	11
549.245	1	0
549.415	1	-3
549.585	1	2
549.755	1	17
549.925	1	-4
550.095	1	3
550.265	1	1
550.435	1	-3
550.605	1	3
550.775	1	3
550.945	1	16
551.115	1	3
551.285	1	10
551.455	1	-3
551.625	1	6
551.795	1	1
551.965	1	7
552.135	1	2
552.305	1	-3
552.475	1	-8
552.645	1	0
552.815	1	8
552.985	1	9
553.155	1	9
553.325	1	13
553.495	1	0
553.665	1	-1
553.835	1	1
554.004	1	4
554.174	1	4
554.344	1	18
554.514	1	6
554.684	1	3
554.854	1	8
555.024	1	-7
555.194	1	-9
555.364	1	0
555.534	1	1
555.704	1	0
555.874	1	8
556.044	1	7
556.214	1	0
556.384	1	7
556.554	1	10
556.724	1	7
556.894	1	-1
557.064	1	13
557.234	1	0
557.404	1	2
557.573	1	0
557.743	1	-3
557.913	1	-1
558.083	1	-3
558.253	1	9
558.423	1	-2
558.593	1	13
558.763	1	7
558.933	1	5
559.103	1	5
559.273	1	5
559.443	1	0
559.613	1	1
559.783	1	8
559.953	1	0
560.122	1	6
560.292	1	9
560.462	1	1
560.632	1	21
560.802	1	5
560.972	1	8
561.142	1	5
561.312	1	-10
561.482	1	3
561.652	1	14
561.822	1	-12
561.992	1	6
562.162	1	-1
562.331	1	7
562.501	1	4
562.671	1	10
562.841	1	-13
563.011	1	7
563.181	1	-5
563.351	1	-2
563.521	1	9
563.691	1	-7
563.861	1	0
564.031	1	3
564.201	1	18
564.370	1	0
564.540	1	8
564.710	1	-4
564.880	1	6
565.050	1	2
565.220	1	-4
565.390	1	3
565.560	1	5
565.730	1	0
565.900	1	7
566.069	1	8
566.239	1	3
566.409	1	13
566.579	1	1
566.749	1	-4
566.919	1	8
567.089	1	1
567.259	1	12
567.429	1	3
567.599	1	1
567.768	1	8
567.938	1	3
568.108	1	9
568.278	1	4
568.448	1	-2
568.618	1	0
568.788	1	3
568.958	1	-3
569.128	1	12
569.297	1	-4
569.467	1	4
569.637	1	9
569.807	1	11
569.977	1	5
570.147	1	0
570.317	1	-2
570.487	1	-2
570.656	1	-1
570.826	1	0
570.996	1	-6
571.166	1	10
571.336	1	2
571.506	1	4
571.676	1	-1
571.846	1	8
572.015	1	-2
572.185	1	-1
572.355	1	6
572.525	1	-1
572.695	1	8
572.865	1	-3
573.035	1	6
573.205	1	0
573.374	1	-1
573.544	1	6
573.714	1	6
573.884	1	5
574.054	1	5
574.224	1	0
574.394	1	-4
574.563	1	-2
574.733	1	12
574.903	1	1
575.073	1	-2
575.243	1	-4
575.413	1	9
575.583	1	5
575.752	1	3
575.922	1	0
576.092	1	1
576.262	1	5
576.432	1	6
576.602	1	-4
576.772	1	14
576.941	1	-2
577.111	1	-6
577.281	1	-10
577.451	1	-1
577.621	1	11
577.791	1	8
577.960	1	-1
578.130	1	3
578.300	1	2
578.470	1	3
578.640	1	3
578.810	1	2
578.979	1	4
579.149	1	6
579.319	1	-11
579.489	1	1
579.659	1	0
579.829	1	7
579.998	1	1
580.168	1	18
580.338	1	6
580.508	1	1
580.678	1	-2
580.848	1	-1
581.017	1	1
581.187	1	-1
581.357	1	-9
581.527	1	12
581.697	1	10
581.867	1	15
582.036	1	0
582.206	1	8
582.376	1	10
582.546	1	-4
582.716	1	-9
582.885	1	-1
583.055	1	0
583.225	1	-7
583.395	1	1
583.565	1	-2
583.735	1	7
583.904	1	5
584.074	1	4
584.244	1	10
584.414	1	1
584.584	1	3
584.753	1	0
584.923	1	1
585.093	1	4
585.263	1	2
585.433	1	3
585.602	1	-8
585.772	1	-2
585.942	1	6
586.112	1	1
586.282	1	1
586.451	1	-1
586.621	1	0
586.791	1	-3
586.961	1	2
587.131	1	0
587.300	1	-3
587.470	1	14
587.640	1	-4
587.810	1	-8
587.980	1	-9
588.149	1	6
588.319	1	1
588.489	1	-4
588.659	1	-9
588.829	1	7
588.998	1	6
589.168	1	7
589.338	1	-3
589.508	1	11
589.677	1	2
589.847	1	-5
590.017	1	15
590.187	1	-11
590.357	1	8
590.526	1	13
590.696	1	7
590.866	1	13
591.036	1	4
591.205	1	9
591.375	1	-5
591.545	1	1
591.715	1	8
591.885	1	1
592.054	1	6
592.224	1	3
592.394	1	3
592.564	1	-2
592.733	1	5
592.903	1	4
593.073	1	-2
593.243	1	8
593.412	1	11
593.582	1	2
593.752	1	-5
593.922	1	2
594.091	1	-1
594.261	1	4
594.431	1	4
594.601	1	-5
594.771	1	8
594.940	1	-2
595.110	1	-3
595.280	1	-2
595.450	1	0
595.619	1	0
595.789	1	-1
595.959	1	13
596.129	1	-4
596.298	1	5
596.468	1	2
596.638	1	11
596.808	1	4
596.977	1	2
597.147	1	2
597.317	1	-2
597.487	1	3
597.656	1	2
597.826	1	8
597.996	1	9
598.166	1	-5
598.335	1	-8
598.505	1	7
598.675	1	-2
598.844	1	5
599.014	1	4
599.184	1	4
599.354	1	-5
599.523	1	8
599.693	1	3
599.863	1	12
600.033	1	1
600.202	1	11
600.372	1	5
600.542	1	6
600.712	1	-6
600.881	1	-4
601.051	1	18
601.221	1	15
601.390	1	-6
601.560	1	2
601.730	1	7
601.900	1	8
602.069	1	4
602.239	1	-1
602.409	1	-7
602.578	1	-2
602.748	1	3
602.918	1	6
603.088	1	11
603.257	1	7
603.427	1	1
603.597	1	4
603.767	1	-3
603.936	1	4
604.106	1	6
604.276	1	1
604.445	1	12
604.615	1	-3
604.785	1	5
604.954	1	2
605.124	1	7
605.294	1	6
605.464	1	-4
605.633	1	3
605.803	1	4
605.973	1	-3
606.142	1	4
606.312	1	6
606.482	1	4
606.652	1	11
606.821	1	-3
606.991	1	-7
607.161	1	-9
607.330	1	12
607.500	1	4
607.670	1	-4
607.839	1	10
608.009	1	18
608.179	1	14
608.348	1	11
608.518	1	-3
608.688	1	11
608.858	1	-9
609.027	1	-8
609.197	1	1
609.367	1	8
609.536	1	10
609.706	1	7
609.876	1	1
610.045	1	-4
610.215	1	1
610.385	1	2
610.554	1	-8
610.724	1	13
610.894	1	-1
611.063	1	6
611.233	1	2
611.403	1	4
611.572	1	3
611.742	1	4
611.912	1	-1
612.081	1	-8
612.251	1	4
612.421	1	6
612.590	1	1
612.760	1	3
612.930	1	-1
613.099	1	7
613.269	1	8
613.439	1	2
613.608	1	8
613.778	1	2
613.948	1	-1
614.117	1	-7
614.287	1	17
614.457	1	3
614.626	1	-4
614.796	1	8
614.966	1	0
615.135	1	8
615.305	1	6
615.475	1	7
615.644	1	5
615.814	1	4
615.984	1	-13
616.153	1	-9
616.323	1	-1
616.493	1	-4
616.662	1	1
616.832	1	5
617.002	1	-4
617.171	1	-2
617.341	1	3
617.511	1	-9
617.680	1	4
617.850	1	0
618.019	1	8
618.189	1	7
618.359	1	5
618.528	1	7
618.698	1	1
618.868	1	-6
619.037	1	7
619.207	1	-2
619.377	1	3
619.546	1	2
619.716	1	5
619.885	1	6
620.055	1	-1
620.225	1	-2
620.394	1	2
620.564	1	15
620.734	1	3
620.903	1	-6
621.073	1	12
621.242	1	6
621.412	1	0
621.582	1	0
621.751	1	3
621.921	1	3
622.091	1	3
622.260	1	6
622.430	1	6
622.599	1	-3
622.769	1	2
622.939	1	8
623.108	1	13
623.278	1	0
623.448	1	-1
623.617	1	-4
623.787	1	2
623.956	1	8
624.126	1	4
624.296	1	0
624.465	1	6
624.635	1	3
624.804	1	6
624.974	1	7
625.144	1	3
625.313	1	-1
625.483	1	0
625.652	1	-1
625.822	1	2
625.992	1	-2
626.161	1	5
626.331	1	-1
626.501	1	1
626.670	1	1
626.840	1	7
627.009	1	2
627.179	1	6
627.348	1	7
627.518	1	1
627.688	1	3
627.857	1	13
628.027	1	0
628.196	1	3
628.366	1	5
628.536	1	4
628.705	1	5
628.875	1	4
629.044	1	-3
629.214	1	11
629.384	1	9
629.553	1	6
629.723	1	3
629.892	1	3
630.062	1	7
630.232	1	-2
630.401	1	4
630.571	1	4
630.740	1	3
630.910	1	11
631.079	1	-4
631.249	1	9
631.419	1	2
631.588	1	-7
631.758	1	11
631.927	1	0
632.097	1	9
632.266	1	0
632.436	1	0
632.606	1	2
632.775	1	6
632.945	1	2
633.114	1	10
633.284	1	14
633.453	1	-4
633.623	1	-2
633.793	1	4
633.962	1	13
634.132	1	4
634.301	1	5
634.471	1	6
634.640	1	10
634.810	1	3
634.979	1	5
635.149	1	9
635.319	1	3
635.488	1	5
635.658	1	-1
635.827	1	-8
635.997	1	3
636.166	1	11
636.336	1	2
636.505	1	10
636.675	1	3
636.845	1	7
637.014	1	0
637.184	1	16
637.353	1	8
637.523	1	2
637.692	1	-1
637.862	1	5
638.031	1	6
638.201	1	17
638.370	1	-2
638.540	1	1
638.710	1	-1
638.879	1	-8
639.049	1	2
639.218	1	-1
639.388	1	1
639.557	1	0
639.727	1	5
639.896	1	-3
640.066	1	-1
640.235	1	2
640.405	1	6
640.574	1	-6
640.744	1	-1
640.914	1	-2
641.083	1	1
641.253	1	0
641.422	1	5
641.592	1	9
641.761	1	2
641.931	1	0
642.100	1	16
642.270	1	2
642.439	1	14
642.609	1	4
642.778	1	3
642.948	1	-4
643.117	1	9
643.287	1	5
643.456	1	6
643.626	1	15
643.795	1	1
643.965	1	3
644.134	1	-1
644.304	1	2
644.473	1	10
644.643	1	5
644.812	1	0
644.982	1	5
645.151	1	-4
645.321	1	3
645.490	1	15
645.660	1	1
645.829	1	-7
645.999	1	10
646.168	1	8
646.338	1	4
646.507	1	0
646.677	1	7
646.846	1	2
647.016	1	-7
647.185	1	11
647.355	1	-4
647.524	1	14
647.694	1	11
647.863	1	2
648.033	1	-1
648.202	1	7
648.372	1	0
648.541	1	-11
648.711	1	1
648.880	1	0
649.050	1	-5
649.219	1	9
649.389	1	12
649.558	1	9
649.728	1	0
649.897	1	-2
650.067	1	6
650.236	1	-2
650.406	1	0
650.575	1	9
650.745	1	3
650.914	1	-1
651.084	1	1
651.253	1	11
651.423	1	4
651.592	1	1
651.762	1	-1
651.931	1	1
652.101	1	2
652.270	1	6
652.440	1	6
652.609	1	4
652.778	1	3
652.948	1	8
653.117	1	-1
653.287	1	8
653.456	1	4
653.626	1	13
653.795	1	0
653.965	1	9
654.134	1	2
654.304	1	-8
654.473	1	7
654.643	1	6
654.812	1	8
654.982	1	-2
655.151	1	2
655.320	1	4
655.490	1	-13
655.659	1	3
655.829	1	1
655.998	1	-3
656.168	1	-6
656.337	1	6
656.507	1	8
656.676	1	6
656.846	1	-1
657.015	1	9
657.184	1	3
657.354	1	4
657.523	1	4
657.693	1	6
657.862	1	7
658.032	1	7
658.201	1	10
658.371	1	8
658.540	1	2
658.709	1	0
658.879	1	13
659.048	1	3
659.218	1	3
659.387	1	4
659.557	1	6
659.726	1	8
659.895	1	8
660.065	1	5
660.234	1	7
660.404	1	6
660.573	1	-3
660.743	1	18
660.912	1	1
661.081	1	10
661.251	1	-8
661.420	1	1
661.590	1	12
661.759	1	4
661.929	1	0
662.098	1	4
662.267	1	3
662.437	1	6
662.606	1	1
662.776	1	7
662.945	1	5
663.115	1	3
663.284	1	-9
663.453	1	9
663.623	1	3
663.792	1	1
663.962	1	2
664.131	1	7
664.300	1	11
664.470	1	3
664.639	1	6
664.809	1	14
664.978	1	12
665.148	1	9
665.317	1	5
665.486	1	14
665.656	1	-3
665.825	1	13
665.995	1	-6
666.164	1	7
666.333	1	4
666.503	1	11
666.672	1	-4
666.842	1	9
667.011	1	3
667.180	1	11
667.350	1	-1
667.519	1	-3
667.689	1	2
667.858	1	3
668.027	1	10
668.197	1	2
668.366	1	2
668.536	1	1
668.705	1	5
668.874	1	4
669.044	1	7
669.213	1	12
669.382	1	1
669.552	1	9
669.721	1	8
669.891	1	15
670.060	1	8
670.229	1	10
670.399	1	7
670.568	1	14
670.738	1	17
670.907	1	-4
671.076	1	-9
671.246	1	8
671.415	1	5
671.584	1	3
671.754	1	2
671.923	1	2
672.093	1	0
672.262	1	-1
672.431	1	-1
672.601	1	-7
672.770	1	1
672.939	1	11
673.109	1	-1
673.278	1	3
673.448	1	15
673.617	1	4
673.786	1	9
