325.333	1	24
325.504	1	13
325.675	1	11
325.846	1	24
326.017	1	16
326.188	1	24
326.359	1	24
326.531	1	6
326.702	1	21
326.873	1	20
327.044	1	13
327.215	1	24
327.386	1	18
327.557	1	15
327.728	1	24
327.899	1	17
328.070	1	16
328.241	1	33
328.412	1	0
328.583	1	14
328.754	1	22
328.926	1	25
329.097	1	21
329.268	1	27
329.439	1	15
329.610	1	34
329.781	1	12
329.952	1	18
330.123	1	28
330.294	1	14
330.465	1	22
330.636	1	30
330.807	1	24
330.978	1	25
331.149	1	23
331.320	1	23
331.492	1	30
331.663	1	23
331.834	1	29
332.005	1	30
332.176	1	35
332.347	1	27
332.518	1	22
332.689	1	24
332.860	1	22
333.031	1	31
333.202	1	24
333.373	1	33
333.544	1	17
333.715	1	38
333.886	1	18
334.057	1	32
334.228	1	23
334.399	1	21
334.570	1	28
334.741	1	28
334.912	1	33
335.084	1	33
335.255	1	30
335.426	1	22
335.597	1	27
335.768	1	25
335.939	1	40
336.110	1	37
336.281	1	30
336.452	1	30
336.623	1	35
336.794	1	36
336.965	1	39
337.136	1	48
337.307	1	39
337.478	1	45
337.649	1	42
337.820	1	36
337.991	1	34
338.162	1	26
338.333	1	38
338.504	1	47
338.675	1	31
338.846	1	35
339.017	1	26
339.188	1	38
339.359	1	30
339.530	1	29
339.701	1	42
339.872	1	47
340.043	1	40
340.214	1	40
340.385	1	42
340.556	1	30
340.727	1	42
340.898	1	51
341.069	1	36
341.240	1	42
341.411	1	44
341.582	1	32
341.753	1	42
341.924	1	37
342.095	1	42
342.266	1	42
342.437	1	44
342.608	1	38
342.779	1	49
342.950	1	57
343.121	1	52
343.292	1	38
343.463	1	46
343.634	1	42
343.805	1	49
343.976	1	55
344.147	1	44
344.318	1	43
344.489	1	32
344.660	1	59
344.831	1	60
345.002	1	36
345.173	1	58
345.344	1	42
345.515	1	46
345.686	1	48
345.857	1	58
346.028	1	41
346.199	1	47
346.370	1	46
346.541	1	52
346.712	1	41
346.883	1	52
347.054	1	55
347.225	1	56
347.396	1	50
347.567	1	52
347.738	1	44
347.909	1	62
348.080	1	50
348.251	1	56
348.422	1	59
348.593	1	58
348.764	1	60
348.935	1	55
349.106	1	50
349.277	1	44
349.448	1	62
349.619	1	57
349.790	1	54
349.961	1	70
350.132	1	65
350.303	1	57
350.474	1	68
350.645	1	56
350.816	1	56
350.987	1	61
351.157	1	51
351.328	1	69
351.499	1	68
351.670	1	58
351.841	1	69
352.012	1	71
352.183	1	71
352.354	1	64
352.525	1	75
352.696	1	73
352.867	1	64
353.038	1	62
353.209	1	65
353.380	1	66
353.551	1	55
353.722	1	63
353.893	1	68
354.064	1	75
354.235	1	67
354.406	1	65
354.576	1	70
354.747	1	70
354.918	1	69
355.089	1	63
355.260	1	75
355.431	1	74
355.602	1	58
355.773	1	67
355.944	1	63
356.115	1	68
356.286	1	73
356.457	1	67
356.628	1	63
356.799	1	67
356.970	1	79
357.141	1	65
357.311	1	64
357.482	1	76
357.653	1	72
357.824	1	81
357.995	1	65
358.166	1	64
358.337	1	72
358.508	1	76
358.679	1	74
358.850	1	81
359.021	1	73
359.192	1	80
359.363	1	69
359.533	1	73
359.704	1	66
359.875	1	83
360.046	1	67
360.217	1	69
360.388	1	72
360.559	1	71
360.730	1	86
360.901	1	77
361.072	1	84
361.243	1	78
361.414	1	72
361.584	1	76
361.755	1	79
361.926	1	76
362.097	1	73
362.268	1	80
362.439	1	82
362.610	1	73
362.781	1	84
362.952	1	66
363.123	1	78
363.293	1	71
363.464	1	80
363.635	1	79
363.806	1	72
363.977	1	77
364.148	1	77
364.319	1	80
364.490	1	85
364.661	1	84
364.832	1	72
365.002	1	77
365.173	1	81
365.344	1	85
365.515	1	82
365.686	1	86
365.857	1	75
366.028	1	88
366.199	1	65
366.370	1	75
366.540	1	82
366.711	1	72
366.882	1	76
367.053	1	74
367.224	1	90
367.395	1	81
367.566	1	89
367.737	1	86
367.908	1	98
368.078	1	86
368.249	1	88
368.420	1	65
368.591	1	76
368.762	1	78
368.933	1	87
369.104	1	75
369.274	1	89
369.445	1	86
369.616	1	78
369.787	1	85
369.958	1	87
370.129	1	83
370.300	1	83
370.471	1	70
370.641	1	85
370.812	1	77
370.983	1	89
371.154	1	82
371.325	1	95
371.496	1	78
371.667	1	101
371.837	1	71
372.008	1	72
372.179	1	74
372.350	1	93
372.521	1	77
372.692	1	85
372.863	1	99
373.033	1	70
373.204	1	86
373.375	1	94
373.546	1	99
373.717	1	89
373.888	1	97
374.059	1	95
374.229	1	99
374.400	1	85
374.571	1	78
374.742	1	93
374.913	1	89
375.084	1	90
375.254	1	86
375.425	1	81
375.596	1	91
375.767	1	97
375.938	1	102
376.109	1	96
376.279	1	84
376.450	1	98
376.621	1	86
376.792	1	86
376.963	1	95
377.134	1	100
377.304	1	86
377.475	1	93
377.646	1	98
377.817	1	90
377.988	1	90
378.159	1	99
378.329	1	108
378.500	1	90
378.671	1	93
378.842	1	96
379.013	1	98
379.184	1	97
379.354	1	96
379.525	1	96
379.696	1	101
379.867	1	100
380.038	1	100
380.209	1	99
380.379	1	106
380.550	1	81
380.721	1	92
380.892	1	102
381.063	1	108
381.233	1	110
381.404	1	96
381.575	1	107
381.746	1	110
381.917	1	99
382.087	1	105
382.258	1	100
382.429	1	101
382.600	1	115
382.771	1	87
382.941	1	104
383.112	1	107
383.283	1	103
383.454	1	97
383.625	1	97
383.795	1	108
383.966	1	101
384.137	1	109
384.308	1	104
384.479	1	108
384.649	1	105
384.820	1	99
384.991	1	108
385.162	1	100
385.333	1	104
385.503	1	106
385.674	1	104
385.845	1	106
386.016	1	109
386.187	1	108
386.357	1	121
386.528	1	113
386.699	1	102
386.870	1	115
387.041	1	116
387.211	1	108
387.382	1	121
387.553	1	118
387.724	1	114
387.894	1	113
388.065	1	108
388.236	1	115
388.407	1	115
388.578	1	105
388.748	1	116
388.919	1	118
389.090	1	121
389.261	1	105
389.431	1	121
389.602	1	122
389.773	1	120
389.944	1	106
390.114	1	97
390.285	1	113
390.456	1	115
390.627	1	106
390.798	1	122
390.968	1	128
391.139	1	120
391.310	1	115
391.481	1	119
391.651	1	109
391.822	1	108
391.993	1	118
392.164	1	111
392.334	1	120
392.505	1	116
392.676	1	130
392.847	1	122
393.017	1	119
393.188	1	121
393.359	1	117
393.530	1	115
393.700	1	103
393.871	1	111
394.042	1	106
394.213	1	112
394.383	1	123
394.554	1	123
394.725	1	125
394.896	1	121
395.066	1	135
395.237	1	113
395.408	1	118
395.579	1	117
395.749	1	128
395.920	1	117
396.091	1	136
396.262	1	127
396.432	1	127
396.603	1	123
396.774	1	130
396.945	1	129
397.115	1	125
397.286	1	127
397.457	1	128
397.627	1	125
397.798	1	137
397.969	1	118
398.140	1	118
398.310	1	119
398.481	1	117
398.652	1	117
398.823	1	119
398.993	1	122
399.164	1	126
399.335	1	129
399.505	1	129
399.676	1	120
399.847	1	126
400.018	1	115
400.188	1	120
400.359	1	133
400.530	1	119
400.700	1	125
400.871	1	121
401.042	1	118
401.213	1	118
401.383	1	125
401.554	1	130
401.725	1	134
401.895	1	123
402.066	1	125
402.237	1	129
402.408	1	127
402.578	1	127
402.749	1	129
402.920	1	135
403.090	1	121
403.261	1	124
403.432	1	123
403.603	1	127
403.773	1	131
403.944	1	137
404.115	1	131
404.285	1	137
404.456	1	115
404.627	1	116
404.797	1	127
404.968	1	116
405.139	1	133
405.310	1	138
405.480	1	129
405.651	1	125
405.822	1	125
405.992	1	127
406.163	1	129
406.334	1	122
406.504	1	119
406.675	1	133
406.846	1	126
407.016	1	134
407.187	1	136
407.358	1	135
407.528	1	123
407.699	1	121
407.870	1	119
408.041	1	134
408.211	1	139
408.382	1	137
408.553	1	123
408.723	1	145
408.894	1	146
409.065	1	132
409.235	1	127
409.406	1	134
409.577	1	128
409.747	1	135
409.918	1	128
410.089	1	132
410.259	1	133
410.430	1	131
410.601	1	125
410.771	1	138
410.942	1	150
411.113	1	139
411.283	1	127
411.454	1	141
411.625	1	130
411.795	1	134
411.966	1	131
412.137	1	137
412.307	1	114
412.478	1	122
412.649	1	124
412.819	1	139
412.990	1	123
413.161	1	126
413.331	1	126
413.502	1	149
413.672	1	135
413.843	1	136
414.014	1	124
414.184	1	122
414.355	1	127
414.526	1	135
414.696	1	138
414.867	1	137
415.038	1	115
415.208	1	140
415.379	1	127
415.550	1	143
415.720	1	111
415.891	1	128
416.062	1	129
416.232	1	122
416.403	1	124
416.573	1	134
416.744	1	117
416.915	1	139
417.085	1	133
417.256	1	137
417.427	1	123
417.597	1	120
417.768	1	126
417.939	1	141
418.109	1	136
418.280	1	141
418.450	1	128
418.621	1	123
418.792	1	126
418.962	1	125
419.133	1	136
419.304	1	104
419.474	1	118
419.645	1	136
419.815	1	120
419.986	1	119
420.157	1	132
420.327	1	120
420.498	1	136
420.669	1	126
420.839	1	121
421.010	1	131
421.180	1	127
421.351	1	121
421.522	1	134
421.692	1	114
421.863	1	128
422.033	1	129
422.204	1	127
422.375	1	119
422.545	1	134
422.716	1	129
422.886	1	117
423.057	1	131
423.228	1	128
423.398	1	113
423.569	1	134
423.740	1	125
423.910	1	116
424.081	1	117
424.251	1	115
424.422	1	129
424.593	1	126
424.763	1	127
424.934	1	132
425.104	1	120
425.275	1	112
425.445	1	116
425.616	1	115
425.787	1	126
425.957	1	123
426.128	1	131
426.298	1	123
426.469	1	107
426.640	1	107
426.810	1	107
426.981	1	114
427.151	1	108
427.322	1	117
427.493	1	115
427.663	1	120
427.834	1	110
428.004	1	129
428.175	1	104
428.345	1	128
428.516	1	103
428.687	1	119
428.857	1	110
429.028	1	109
429.198	1	110
429.369	1	117
429.540	1	121
429.710	1	107
429.881	1	118
430.051	1	107
430.222	1	107
430.392	1	112
430.563	1	127
430.734	1	122
430.904	1	123
431.075	1	125
431.245	1	115
431.416	1	122
431.586	1	97
431.757	1	117
431.927	1	98
432.098	1	115
432.269	1	123
432.439	1	113
432.610	1	113
432.780	1	126
432.951	1	115
433.121	1	115
433.292	1	119
433.462	1	123
433.633	1	123
433.804	1	111
433.974	1	107
434.145	1	113
434.315	1	111
434.486	1	103
434.656	1	119
434.827	1	113
434.997	1	105
435.168	1	109
435.339	1	118
435.509	1	112
435.680	1	114
435.850	1	116
436.021	1	108
436.191	1	116
436.362	1	114
436.532	1	114
436.703	1	108
436.873	1	109
437.044	1	98
437.214	1	99
437.385	1	98
437.556	1	117
437.726	1	121
437.897	1	117
438.067	1	97
438.238	1	105
438.408	1	113
438.579	1	100
438.749	1	113
438.920	1	103
439.090	1	118
439.261	1	95
439.431	1	102
439.602	1	106
439.772	1	101
439.943	1	114
440.113	1	107
440.284	1	97
440.455	1	97
440.625	1	107
440.796	1	109
440.966	1	105
441.137	1	88
441.307	1	106
441.478	1	109
441.648	1	98
441.819	1	99
441.989	1	98
442.160	1	105
442.330	1	105
442.501	1	102
442.671	1	97
442.842	1	79
443.012	1	92
443.183	1	99
443.353	1	82
443.524	1	101
443.694	1	106
443.865	1	91
444.035	1	100
444.206	1	105
444.376	1	81
444.547	1	99
444.717	1	96
444.888	1	99
445.058	1	111
445.229	1	97
445.399	1	96
445.570	1	107
445.740	1	100
445.911	1	104
446.081	1	85
446.252	1	101
446.422	1	92
446.593	1	97
446.763	1	99
446.934	1	96
447.104	1	102
447.275	1	89
447.445	1	110
447.616	1	99
447.786	1	98
447.957	1	91
448.127	1	86
448.298	1	97
448.468	1	97
448.639	1	89
448.809	1	102
448.979	1	95
449.150	1	97
449.320	1	90
449.491	1	107
449.661	1	81
449.832	1	89
450.002	1	94
450.173	1	85
450.343	1	85
450.514	1	88
450.684	1	79
450.855	1	81
451.025	1	82
451.196	1	92
451.366	1	91
451.537	1	92
451.707	1	71
451.878	1	84
452.048	1	91
452.218	1	82
452.389	1	94
452.559	1	74
452.730	1	93
452.900	1	92
453.071	1	70
453.241	1	87
453.412	1	86
453.582	1	85
453.753	1	81
453.923	1	70
454.093	1	81
454.264	1	99
454.434	1	81
454.605	1	81
454.775	1	85
454.946	1	83
455.116	1	86
455.287	1	75
455.457	1	82
455.628	1	80
455.798	1	80
455.968	1	81
456.139	1	78
456.309	1	68
456.480	1	76
456.650	1	75
456.821	1	84
456.991	1	72
457.161	1	83
457.332	1	87
457.502	1	74
457.673	1	78
457.843	1	90
458.014	1	80
458.184	1	75
458.355	1	78
458.525	1	76
458.695	1	81
458.866	1	82
459.036	1	81
459.207	1	80
459.377	1	74
459.548	1	84
459.718	1	76
459.888	1	84
460.059	1	73
460.229	1	84
460.400	1	84
460.570	1	77
460.740	1	67
460.911	1	70
461.081	1	87
461.252	1	69
461.422	1	77
461.593	1	68
461.763	1	86
461.933	1	93
462.104	1	72
462.274	1	78
462.445	1	87
462.615	1	71
462.785	1	66
462.956	1	83
463.126	1	69
463.297	1	78
463.467	1	74
463.638	1	67
463.808	1	71
463.978	1	69
464.149	1	66
464.319	1	76
464.490	1	87
464.660	1	69
464.830	1	62
465.001	1	70
465.171	1	83
465.342	1	75
465.512	1	64
465.682	1	71
465.853	1	66
466.023	1	73
466.194	1	65
466.364	1	81
466.534	1	74
466.705	1	62
466.875	1	69
467.045	1	65
467.216	1	75
467.386	1	62
467.557	1	66
467.727	1	62
467.897	1	58
468.068	1	67
468.238	1	65
468.409	1	59
468.579	1	63
468.749	1	67
468.920	1	51
469.090	1	65
469.260	1	58
469.431	1	64
469.601	1	73
469.772	1	65
469.942	1	62
470.112	1	70
470.283	1	59
470.453	1	61
470.623	1	56
470.794	1	56
470.964	1	65
471.135	1	68
471.305	1	56
471.475	1	58
471.646	1	57
471.816	1	61
471.986	1	55
472.157	1	82
472.327	1	51
472.497	1	63
472.668	1	60
472.838	1	53
473.009	1	64
473.179	1	53
473.349	1	47
473.520	1	54
473.690	1	56
473.860	1	68
474.031	1	58
474.201	1	62
474.371	1	66
474.542	1	59
474.712	1	68
474.882	1	64
475.053	1	71
475.223	1	49
475.394	1	60
475.564	1	58
475.734	1	64
475.905	1	60
476.075	1	55
476.245	1	66
476.416	1	61
476.586	1	68
476.756	1	61
476.927	1	61
477.097	1	62
477.267	1	59
477.438	1	63
477.608	1	51
477.778	1	59
477.949	1	64
478.119	1	65
478.289	1	60
478.460	1	66
478.630	1	65
478.800	1	54
478.971	1	62
479.141	1	59
479.311	1	46
479.482	1	54
479.652	1	55
479.822	1	53
479.993	1	51
480.163	1	56
480.333	1	56
480.504	1	60
480.674	1	55
480.844	1	42
481.015	1	68
481.185	1	51
481.355	1	55
481.525	1	49
481.696	1	48
481.866	1	41
482.036	1	55
482.207	1	51
482.377	1	54
482.547	1	49
482.718	1	51
482.888	1	55
483.058	1	51
483.229	1	49
483.399	1	52
483.569	1	58
483.740	1	58
483.910	1	56
484.080	1	45
484.250	1	59
484.421	1	59
484.591	1	53
484.761	1	58
484.932	1	55
485.102	1	60
485.272	1	49
485.443	1	54
485.613	1	45
485.783	1	47
485.953	1	51
486.124	1	47
486.294	1	51
486.464	1	49
486.635	1	62
486.805	1	65
486.975	1	40
487.146	1	51
487.316	1	43
487.486	1	42
487.656	1	36
487.827	1	45
487.997	1	44
488.167	1	40
488.338	1	52
488.508	1	42
488.678	1	40
488.848	1	51
489.019	1	39
489.189	1	49
489.359	1	44
489.529	1	42
489.700	1	44
489.870	1	56
490.040	1	34
490.211	1	38
490.381	1	48
490.551	1	47
490.721	1	51
490.892	1	40
491.062	1	53
491.232	1	49
491.402	1	35
491.573	1	30
491.743	1	41
491.913	1	40
492.084	1	48
492.254	1	38
492.424	1	37
492.594	1	47
492.765	1	45
492.935	1	41
493.105	1	45
493.275	1	37
493.446	1	53
493.616	1	55
493.786	1	44
493.956	1	42
494.127	1	37
494.297	1	27
494.467	1	40
494.637	1	41
494.808	1	40
494.978	1	28
495.148	1	45
495.318	1	37
495.489	1	51
495.659	1	48
495.829	1	36
495.999	1	39
496.170	1	38
496.340	1	45
496.510	1	28
496.680	1	32
496.851	1	37
497.021	1	27
497.191	1	29
497.361	1	44
497.532	1	30
497.702	1	35
497.872	1	39
498.042	1	43
498.213	1	34
498.383	1	39
498.553	1	41
498.723	1	37
498.894	1	45
499.064	1	30
499.234	1	46
499.404	1	47
499.574	1	43
499.745	1	51
499.915	1	36
500.085	1	38
500.255	1	40
500.426	1	35
500.596	1	31
500.766	1	36
500.936	1	43
501.106	1	24
501.277	1	41
501.447	1	32
501.617	1	37
501.787	1	33
501.958	1	35
502.128	1	28
502.298	1	41
502.468	1	35
502.638	1	44
502.809	1	35
502.979	1	24
503.149	1	28
503.319	1	29
503.489	1	40
503.660	1	43
503.830	1	44
504.000	1	45
504.170	1	28
504.340	1	28
504.511	1	38
504.681	1	30
504.851	1	41
505.021	1	38
505.192	1	29
505.362	1	49
505.532	1	30
505.702	1	31
505.872	1	35
506.043	1	39
506.213	1	26
506.383	1	30
506.553	1	37
506.723	1	36
506.893	1	40
507.064	1	42
507.234	1	22
507.404	1	29
507.574	1	33
507.744	1	34
507.915	1	39
508.085	1	38
508.255	1	40
508.425	1	29
508.595	1	40
508.766	1	32
508.936	1	25
509.106	1	40
509.276	1	31
509.446	1	27
509.616	1	29
509.787	1	24
509.957	1	40
510.127	1	38
510.297	1	24
510.467	1	23
510.638	1	32
510.808	1	11
510.978	1	16
511.148	1	36
511.318	1	22
511.488	1	20
511.659	1	34
511.829	1	19
511.999	1	33
512.169	1	36
512.339	1	30
512.509	1	21
512.680	1	16
512.850	1	40
513.020	1	32
513.190	1	26
513.360	1	27
513.530	1	28
513.700	1	29
513.871	1	24
514.041	1	20
514.211	1	22
514.381	1	28
514.551	1	29
514.721	1	22
514.892	1	21
515.062	1	38
515.232	1	30
515.402	1	26
515.572	1	25
515.742	1	26
515.912	1	30
516.083	1	34
516.253	1	31
516.423	1	22
516.593	1	26
516.763	1	34
516.933	1	25
517.104	1	29
517.274	1	26
517.444	1	32
517.614	1	1
517.784	1	24
517.954	1	31
518.124	1	23
518.294	1	19
518.465	1	26
518.635	1	17
518.805	1	12
518.975	1	19
519.145	1	14
519.315	1	20
519.485	1	17
519.656	1	33
519.826	1	17
519.996	1	13
520.166	1	22
520.336	1	31
520.506	1	30
520.676	1	14
520.846	1	29
521.017	1	22
521.187	1	22
521.357	1	21
521.527	1	14
521.697	1	23
521.867	1	20
522.037	1	28
522.207	1	29
522.377	1	25
522.548	1	19
522.718	1	16
522.888	1	37
523.058	1	21
523.228	1	22
523.398	1	20
523.568	1	33
523.738	1	20
523.909	1	29
524.079	1	20
524.249	1	29
524.419	1	19
524.589	1	17
524.759	1	10
524.929	1	14
525.099	1	21
525.269	1	19
525.439	1	10
525.610	1	32
525.780	1	24
525.950	1	20
526.120	1	18
526.290	1	17
526.460	1	13
526.630	1	23
526.800	1	18
526.970	1	4
527.140	1	29
527.311	1	11
527.481	1	16
527.651	1	25
527.821	1	12
527.991	1	24
528.161	1	24
528.331	1	17
528.501	1	26
528.671	1	12
528.841	1	15
529.011	1	26
529.181	1	27
529.352	1	23
529.522	1	8
529.692	1	13
529.862	1	24
530.032	1	22
530.202	1	24
530.372	1	17
530.542	1	22
530.712	1	22
530.882	1	27
531.052	1	21
531.222	1	18
531.392	1	20
531.563	1	22
531.733	1	11
531.903	1	23
532.073	1	21
532.243	1	14
532.413	1	23
532.583	1	24
532.753	1	18
532.923	1	12
533.093	1	13
533.263	1	15
533.433	1	25
533.603	1	13
533.773	1	12
533.943	1	13
534.113	1	24
534.284	1	19
534.454	1	26
534.624	1	21
534.794	1	13
534.964	1	19
535.134	1	14
535.304	1	9
535.474	1	27
535.644	1	18
535.814	1	13
535.984	1	3
536.154	1	13
536.324	1	12
536.494	1	17
536.664	1	21
536.834	1	20
537.004	1	16
537.174	1	18
537.344	1	14
537.514	1	8
537.685	1	10
537.855	1	23
538.025	1	15
538.195	1	14
538.365	1	25
538.535	1	13
538.705	1	20
538.875	1	20
539.045	1	21
539.215	1	14
539.385	1	22
539.555	1	21
539.725	1	12
539.895	1	6
540.065	1	30
540.235	1	26
540.405	1	12
540.575	1	24
540.745	1	14
540.915	1	14
541.085	1	13
541.255	1	7
541.425	1	19
541.595	1	15
541.765	1	17
541.935	1	18
542.105	1	10
542.275	1	11
542.445	1	10
542.615	1	17
542.785	1	17
542.955	1	15
543.125	1	10
543.295	1	8
543.465	1	10
543.635	1	17
543.805	1	24
543.975	1	12
544.145	1	23
544.315	1	19
544.485	1	20
544.655	1	17
544.825	1	6
544.995	1	22
545.165	1	11
545.335	1	13
545.505	1	5
545.675	1	16
545.845	1	15
546.015	1	21
546.185	1	21
546.355	1	12
546.525	1	13
546.695	1	20
546.865	1	4
547.035	1	21
547.205	1	4
547.375	1	17
547.545	1	17
547.715	1	18
547.885	1	24
548.055	1	11
548.225	1	15
548.395	1	13
548.565	1	16
548.735	1	10
548.905	1	17
549.075	1	11
549.245	1	12
549.415	1	5
549.585	1	13
549.755	1	24
549.925	1	-3
550.095	1	15
550.265	1	13
550.435	1	15
550.605	1	10
550.775	1	15
550.945	1	23
551.115	1	13
551.285	1	9
551.455	1	3
551.625	1	17
551.795	1	12
551.965	1	15
552.135	1	10
552.305	1	8
552.475	1	-1
552.645	1	0
552.815	1	13
552.985	1	22
553.155	1	15
553.325	1	10
553.495	1	13
553.665	1	7
553.835	1	8
554.004	1	12
554.174	1	11
554.344	1	11
554.514	1	11
554.684	1	10
554.854	1	12
555.024	1	11
555.194	1	3
555.364	1	13
555.534	1	11
555.704	1	9
555.874	1	22
556.044	1	10
556.214	1	7
556.384	1	20
556.554	1	15
556.724	1	7
556.894	1	14
557.064	1	18
557.234	1	10
557.404	1	8
557.573	1	17
557.743	1	7
557.913	1	6
558.083	1	0
558.253	1	8
558.423	1	6
558.593	1	21
558.763	1	10
558.933	1	6
559.103	1	19
559.273	1	14
559.443	1	13
559.613	1	10
559.783	1	16
559.953	1	6
560.122	1	16
560.292	1	14
560.462	1	9
560.632	1	15
560.802	1	8
560.972	1	16
561.142	1	8
561.312	1	13
561.482	1	10
561.652	1	17
561.822	1	4
561.992	1	4
562.162	1	12
562.331	1	14
562.501	1	3
562.671	1	16
562.841	1	1
563.011	1	10
563.181	1	4
563.351	1	2
563.521	1	24
563.691	1	10
563.861	1	9
564.031	1	12
564.201	1	26
564.370	1	-5
564.540	1	11
564.710	1	6
564.880	1	20
565.050	1	18
565.220	1	-3
565.390	1	7
565.560	1	11
565.730	1	3
565.900	1	10
566.069	1	9
566.239	1	7
566.409	1	17
566.579	1	14
566.749	1	13
566.919	1	18
567.089	1	9
567.259	1	20
567.429	1	7
567.599	1	10
567.768	1	4
567.938	1	11
568.108	1	6
568.278	1	16
568.448	1	-3
568.618	1	7
568.788	1	10
568.958	1	1
569.128	1	10
569.297	1	6
569.467	1	19
569.637	1	5
569.807	1	13
569.977	1	18
570.147	1	16
570.317	1	0
570.487	1	10
570.656	1	12
570.826	1	5
570.996	1	-2
571.166	1	25
571.336	1	7
571.506	1	21
571.676	1	12
571.846	1	12
572.015	1	12
572.185	1	9
572.355	1	13
572.525	1	14
572.695	1	7
572.865	1	2
573.035	1	9
573.205	1	11
573.374	1	1
573.544	1	10
573.714	1	12
573.884	1	14
574.054	1	9
574.224	1	13
574.394	1	12
574.563	1	6
574.733	1	5
574.903	1	3
575.073	1	8
575.243	1	5
575.413	1	8
575.583	1	-4
575.752	1	6
575.922	1	10
576.092	1	2
576.262	1	10
576.432	1	11
576.602	1	3
576.772	1	26
576.941	1	2
577.111	1	-4
577.281	1	0
577.451	1	3
577.621	1	19
577.791	1	24
577.960	1	3
578.130	1	3
578.300	1	5
578.470	1	15
578.640	1	12
578.810	1	15
578.979	1	9
579.149	1	6
579.319	1	5
579.489	1	5
579.659	1	4
579.829	1	5
579.998	1	21
580.168	1	20
580.338	1	10
580.508	1	12
580.678	1	9
580.848	1	4
581.017	1	-1
581.187	1	10
581.357	1	6
581.527	1	14
581.697	1	18
581.867	1	15
582.036	1	12
582.206	1	9
582.376	1	16
582.546	1	1
582.716	1	-3
582.885	1	3
583.055	1	11
583.225	1	4
583.395	1	12
583.565	1	1
583.735	1	12
583.904	1	6
584.074	1	12
584.244	1	18
584.414	1	8
584.584	1	10
584.753	1	10
584.923	1	14
585.093	1	14
585.263	1	12
585.433	1	12
585.602	1	9
585.772	1	2
585.942	1	1
586.112	1	11
586.282	1	12
586.451	1	7
586.621	1	-3
586.791	1	16
586.961	1	10
587.131	1	10
587.300	1	0
587.470	1	17
587.640	1	8
587.810	1	3
587.980	1	5
588.149	1	17
588.319	1	6
588.489	1	3
588.659	1	7
588.829	1	11
588.998	1	24
589.168	1	11
589.338	1	7
589.508	1	22
589.677	1	3
589.847	1	-4
590.017	1	15
590.187	1	-2
590.357	1	21
590.526	1	21
590.696	1	9
590.866	1	15
591.036	1	10
591.205	1	15
591.375	1	2
591.545	1	6
591.715	1	13
591.885	1	6
592.054	1	8
592.224	1	10
592.394	1	14
592.564	1	9
592.733	1	17
592.903	1	9
593.073	1	10
593.243	1	14
593.412	1	10
593.582	1	5
593.752	1	1
593.922	1	6
594.091	1	8
594.261	1	2
594.431	1	11
594.601	1	5
594.771	1	16
594.940	1	1
595.110	1	7
595.280	1	15
595.450	1	5
595.619	1	10
595.789	1	5
595.959	1	17
596.129	1	2
596.298	1	7
596.468	1	7
596.638	1	14
596.808	1	7
596.977	1	9
597.147	1	9
597.317	1	5
597.487	1	12
597.656	1	12
597.826	1	10
597.996	1	14
598.166	1	8
598.335	1	0
598.505	1	10
598.675	1	7
598.844	1	10
599.014	1	6
599.184	1	7
599.354	1	11
599.523	1	22
599.693	1	-2
599.863	1	13
600.033	1	5
600.202	1	11
600.372	1	10
600.542	1	12
600.712	1	4
600.881	1	9
601.051	1	15
601.221	1	13
601.390	1	5
601.560	1	12
601.730	1	14
601.900	1	7
602.069	1	10
602.239	1	0
602.409	1	5
602.578	1	11
602.748	1	6
602.918	1	14
603.088	1	17
603.257	1	12
603.427	1	6
603.597	1	12
603.767	1	9
603.936	1	17
604.106	1	6
604.276	1	6
604.445	1	18
604.615	1	3
604.785	1	11
604.954	1	-1
605.124	1	14
605.294	1	9
605.464	1	1
605.633	1	9
605.803	1	12
605.973	1	2
606.142	1	14
606.312	1	11
606.482	1	2
606.652	1	18
606.821	1	10
606.991	1	4
607.161	1	7
607.330	1	5
607.500	1	9
607.670	1	-3
607.839	1	16
608.009	1	22
608.179	1	20
608.348	1	14
608.518	1	1
608.688	1	25
608.858	1	3
609.027	1	-1
609.197	1	8
609.367	1	12
609.536	1	11
609.706	1	10
609.876	1	14
610.045	1	7
610.215	1	4
610.385	1	6
610.554	1	9
610.724	1	20
610.894	1	5
611.063	1	13
611.233	1	12
611.403	1	14
611.572	1	8
611.742	1	17
611.912	1	12
612.081	1	9
612.251	1	18
612.421	1	6
612.590	1	3
612.760	1	8
612.930	1	12
613.099	1	14
613.269	1	16
613.439	1	15
613.608	1	10
613.778	1	13
613.948	1	1
614.117	1	8
614.287	1	26
614.457	1	16
614.626	1	3
614.796	1	15
614.966	1	12
615.135	1	5
615.305	1	24
615.475	1	11
615.644	1	14
615.814	1	8
615.984	1	11
616.153	1	1
616.323	1	9
616.493	1	16
616.662	1	13
616.832	1	11
617.002	1	5
617.171	1	15
617.341	1	9
617.511	1	2
617.680	1	8
617.850	1	13
618.019	1	27
618.189	1	18
618.359	1	8
618.528	1	16
618.698	1	25
618.868	1	10
619.037	1	8
619.207	1	5
619.377	1	8
619.546	1	8
619.716	1	13
619.885	1	5
620.055	1	3
620.225	1	13
620.394	1	9
620.564	1	17
620.734	1	16
620.903	1	6
621.073	1	26
621.242	1	12
621.412	1	4
621.582	1	9
621.751	1	12
621.921	1	19
622.091	1	8
622.260	1	13
622.430	1	19
622.599	1	6
622.769	1	20
622.939	1	16
623.108	1	6
623.278	1	3
623.448	1	9
623.617	1	13
623.787	1	11
623.956	1	10
624.126	1	16
624.296	1	5
624.465	1	6
624.635	1	24
624.804	1	11
624.974	1	11
625.144	1	29
625.313	1	18
625.483	1	5
625.652	1	10
625.822	1	8
625.992	1	7
626.161	1	19
626.331	1	7
626.501	1	14
626.670	1	4
626.840	1	23
627.009	1	14
627.179	1	26
627.348	1	20
627.518	1	12
627.688	1	20
627.857	1	21
628.027	1	0
628.196	1	11
628.366	1	22
628.536	1	10
628.705	1	10
628.875	1	15
629.044	1	10
629.214	1	18
629.384	1	17
629.553	1	23
629.723	1	10
629.892	1	11
630.062	1	13
630.232	1	18
630.401	1	19
630.571	1	7
630.740	1	17
630.910	1	23
631.079	1	22
631.249	1	16
631.419	1	17
631.588	1	2
631.758	1	22
631.927	1	3
632.097	1	17
632.266	1	17
632.436	1	25
632.606	1	6
632.775	1	20
632.945	1	21
633.114	1	21
633.284	1	17
633.453	1	12
633.623	1	5
633.793	1	22
633.962	1	18
634.132	1	14
634.301	1	11
634.471	1	22
634.640	1	12
634.810	1	20
634.979	1	15
635.149	1	27
635.319	1	19
635.488	1	10
635.658	1	18
635.827	1	5
635.997	1	11
636.166	1	20
636.336	1	13
636.505	1	21
636.675	1	12
636.845	1	18
637.014	1	27
637.184	1	15
637.353	1	20
637.523	1	26
637.692	1	5
637.862	1	11
638.031	1	26
638.201	1	14
638.370	1	9
638.540	1	13
638.710	1	11
638.879	1	10
639.049	1	14
639.218	1	8
639.388	1	10
639.557	1	9
639.727	1	19
639.896	1	26
640.066	1	15
640.235	1	19
640.405	1	14
640.574	1	17
640.744	1	3
640.914	1	24
641.083	1	10
641.253	1	17
641.422	1	20
641.592	1	21
641.761	1	20
641.931	1	13
642.100	1	32
642.270	1	19
642.439	1	23
642.609	1	23
642.778	1	16
642.948	1	8
643.117	1	27
643.287	1	19
643.456	1	13
643.626	1	27
643.795	1	16
643.965	1	25
644.134	1	9
644.304	1	23
644.473	1	18
644.643	1	26
644.812	1	30
644.982	1	18
645.151	1	9
645.321	1	20
645.490	1	28
645.660	1	2
645.829	1	4
645.999	1	21
646.168	1	22
646.338	1	21
646.507	1	17
646.677	1	28
646.846	1	17
647.016	1	11
647.185	1	22
647.355	1	-5
647.524	1	25
647.694	1	28
647.863	1	15
648.033	1	18
648.202	1	23
648.372	1	12
648.541	1	21
648.711	1	13
648.880	1	21
649.050	1	11
649.219	1	16
649.389	1	16
649.558	1	19
649.728	1	27
649.897	1	19
650.067	1	19
650.236	1	13
650.406	1	22
650.575	1	23
650.745	1	24
650.914	1	16
651.084	1	20
651.253	1	21
651.423	1	24
651.592	1	21
651.762	1	11
651.931	1	30
652.101	1	26
652.270	1	19
652.440	1	18
652.609	1	20
652.778	1	11
652.948	1	22
653.117	1	19
653.287	1	25
653.456	1	22
653.626	1	23
653.795	1	15
653.965	1	26
654.134	1	30
654.304	1	8
654.473	1	13
654.643	1	20
654.812	1	26
654.982	1	23
655.151	1	18
655.320	1	19
655.490	1	17
655.659	1	16
655.829	1	18
655.998	1	15
656.168	1	18
656.337	1	20
656.507	1	22
656.676	1	28
656.846	1	32
657.015	1	20
657.184	1	22
657.354	1	22
657.523	1	20
657.693	1	23
657.862	1	25
658.032	1	17
658.201	1	22
658.371	1	28
658.540	1	16
658.709	1	25
658.879	1	29
659.048	1	20
659.218	1	15
659.387	1	24
659.557	1	25
659.726	1	23
659.895	1	22
660.065	1	10
660.234	1	23
660.404	1	24
660.573	1	17
660.743	1	24
660.912	1	28
661.081	1	28
661.251	1	20
661.420	1	15
661.590	1	24
661.759	1	23
661.929	1	25
662.098	1	24
662.267	1	23
662.437	1	30
662.606	1	23
662.776	1	19
662.945	1	23
663.115	1	23
663.284	1	15
663.453	1	35
663.623	1	28
663.792	1	19
663.962	1	21
664.131	1	19
664.300	1	24
664.470	1	21
664.639	1	32
664.809	1	25
664.978	1	23
665.148	1	28
665.317	1	23
665.486	1	31
665.656	1	22
665.825	1	34
665.995	1	27
666.164	1	18
666.333	1	25
666.503	1	26
666.672	1	19
666.842	1	25
667.011	1	19
667.180	1	30
667.350	1	16
667.519	1	20
667.689	1	23
667.858	1	22
668.027	1	32
668.197	1	26
668.366	1	14
668.536	1	34
668.705	1	21
668.874	1	23
669.044	1	21
669.213	1	29
669.382	1	18
669.552	1	28
669.721	1	23
669.891	1	31
670.060	1	22
670.229	1	39
670.399	1	11
670.568	1	39
670.738	1	20
670.907	1	13
671.076	1	16
671.246	1	19
671.415	1	25
671.584	1	24
671.754	1	28
671.923	1	25
672.093	1	21
672.262	1	28
672.431	1	21
672.601	1	20
672.770	1	15
672.939	1	30
673.109	1	26
673.278	1	25
673.448	1	32
673.617	1	16
673.786	1	33
