325.333	1	7
325.504	1	8
325.675	1	9
325.846	1	7
326.017	1	-2
326.188	1	1
326.359	1	-2
326.531	1	-10
326.702	1	3
326.873	1	6
327.044	1	-11
327.215	1	1
327.386	1	1
327.557	1	-1
327.728	1	-1
327.899	1	7
328.070	1	13
328.241	1	5
328.412	1	-9
328.583	1	3
328.754	1	6
328.926	1	13
329.097	1	-2
329.268	1	13
329.439	1	-2
329.610	1	4
329.781	1	-8
329.952	1	10
330.123	1	1
330.294	1	0
330.465	1	-1
330.636	1	12
330.807	1	0
330.978	1	2
331.149	1	0
331.320	1	9
331.492	1	-3
331.663	1	6
331.834	1	18
332.005	1	16
332.176	1	7
332.347	1	5
332.518	1	0
332.689	1	9
332.860	1	-4
333.031	1	7
333.202	1	-3
333.373	1	7
333.544	1	11
333.715	1	9
333.886	1	-3
334.057	1	3
334.228	1	-2
334.399	1	11
334.570	1	7
334.741	1	2
334.912	1	15
335.084	1	20
335.255	1	-3
335.426	1	2
335.597	1	-2
335.768	1	5
335.939	1	-3
336.110	1	-5
336.281	1	-3
336.452	1	-6
336.623	1	2
336.794	1	6
336.965	1	6
337.136	1	10
337.307	1	2
337.478	1	-3
337.649	1	4
337.820	1	6
337.991	1	5
338.162	1	7
338.333	1	6
338.504	1	6
338.675	1	9
338.846	1	8
339.017	1	9
339.188	1	-6
339.359	1	-1
339.530	1	7
339.701	1	6
339.872	1	17
340.043	1	2
340.214	1	3
340.385	1	16
340.556	1	-6
340.727	1	10
340.898	1	16
341.069	1	11
341.240	1	-2
341.411	1	4
341.582	1	8
341.753	1	5
341.924	1	3
342.095	1	7
342.266	1	11
342.437	1	9
342.608	1	4
342.779	1	9
342.950	1	4
343.121	1	12
343.292	1	-2
343.463	1	8
343.634	1	1
343.805	1	12
343.976	1	1
344.147	1	6
344.318	1	10
344.489	1	4
344.660	1	16
344.831	1	-3
345.002	1	0
345.173	1	16
345.344	1	10
345.515	1	0
345.686	1	-2
345.857	1	4
346.028	1	2
346.199	1	5
346.370	1	2
346.541	1	2
346.712	1	-2
346.883	1	8
347.054	1	12
347.225	1	6
347.396	1	7
347.567	1	6
347.738	1	-5
347.909	1	13
348.080	1	6
348.251	1	11
348.422	1	12
348.593	1	3
348.764	1	11
348.935	1	12
349.106	1	2
349.277	1	5
349.448	1	6
349.619	1	9
349.790	1	6
349.961	1	15
350.132	1	14
350.303	1	9
350.474	1	19
350.645	1	11
350.816	1	6
350.987	1	14
351.157	1	2
351.328	1	8
351.499	1	7
351.670	1	1
351.841	1	16
352.012	1	12
352.183	1	20
352.354	1	16
352.525	1	15
352.696	1	11
352.867	1	10
353.038	1	20
353.209	1	12
353.380	1	5
353.551	1	5
353.722	1	4
353.893	1	14
354.064	1	14
354.235	1	11
354.406	1	9
354.576	1	3
354.747	1	5
354.918	1	9
355.089	1	6
355.260	1	12
355.431	1	22
355.602	1	9
355.773	1	8
355.944	1	4
356.115	1	4
356.286	1	18
356.457	1	14
356.628	1	10
356.799	1	14
356.970	1	16
357.141	1	7
357.311	1	6
357.482	1	5
357.653	1	15
357.824	1	13
357.995	1	10
358.166	1	1
358.337	1	8
358.508	1	11
358.679	1	2
358.850	1	16
359.021	1	4
359.192	1	5
359.363	1	6
359.533	1	17
359.704	1	16
359.875	1	4
360.046	1	11
360.217	1	-2
360.388	1	5
360.559	1	-3
360.730	1	16
360.901	1	4
361.072	1	21
361.243	1	6
361.414	1	10
361.584	1	3
361.755	1	12
361.926	1	2
362.097	1	10
362.268	1	6
362.439	1	3
362.610	1	14
362.781	1	14
362.952	1	-10
363.123	1	2
363.293	1	9
363.464	1	15
363.635	1	20
363.806	1	2
363.977	1	5
364.148	1	10
364.319	1	10
364.490	1	18
364.661	1	14
364.832	1	16
365.002	1	10
365.173	1	7
365.344	1	19
365.515	1	1
365.686	1	11
365.857	1	18
366.028	1	26
366.199	1	10
366.370	1	11
366.540	1	2
366.711	1	-5
366.882	1	6
367.053	1	-1
367.224	1	24
367.395	1	9
367.566	1	17
367.737	1	16
367.908	1	23
368.078	1	10
368.249	1	16
368.420	1	10
368.591	1	3
368.762	1	7
368.933	1	10
369.104	1	-1
369.274	1	12
369.445	1	13
369.616	1	13
369.787	1	13
369.958	1	15
370.129	1	10
370.300	1	13
370.471	1	9
370.641	1	15
370.812	1	17
370.983	1	7
371.154	1	6
371.325	1	18
371.496	1	18
371.667	1	18
371.837	1	6
372.008	1	20
372.179	1	-1
372.350	1	22
372.521	1	16
372.692	1	12
372.863	1	10
373.033	1	2
373.204	1	3
373.375	1	21
373.546	1	13
373.717	1	20
373.888	1	24
374.059	1	19
374.229	1	14
374.400	1	5
374.571	1	11
374.742	1	24
374.913	1	17
375.084	1	6
375.254	1	8
375.425	1	16
375.596	1	13
375.767	1	9
375.938	1	15
376.109	1	12
376.279	1	5
376.450	1	11
376.621	1	19
376.792	1	6
376.963	1	18
377.134	1	19
377.304	1	14
377.475	1	2
377.646	1	6
377.817	1	-1
377.988	1	10
378.159	1	14
378.329	1	21
378.500	1	12
378.671	1	12
378.842	1	0
379.013	1	6
379.184	1	10
379.354	1	22
379.525	1	6
379.696	1	17
379.867	1	14
380.038	1	6
380.209	1	10
380.379	1	13
380.550	1	7
380.721	1	19
380.892	1	15
381.063	1	13
381.233	1	6
381.404	1	13
381.575	1	20
381.746	1	5
381.917	1	12
382.087	1	19
382.258	1	16
382.429	1	10
382.600	1	27
382.771	1	22
382.941	1	12
383.112	1	12
383.283	1	18
383.454	1	15
383.625	1	7
383.795	1	14
383.966	1	17
384.137	1	24
384.308	1	14
384.479	1	21
384.649	1	18
384.820	1	14
384.991	1	11
385.162	1	21
385.333	1	14
385.503	1	10
385.674	1	8
385.845	1	31
386.016	1	6
386.187	1	15
386.357	1	12
386.528	1	17
386.699	1	7
386.870	1	19
387.041	1	13
387.211	1	21
387.382	1	24
387.553	1	12
387.724	1	4
387.894	1	21
388.065	1	18
388.236	1	12
388.407	1	12
388.578	1	15
388.748	1	4
388.919	1	26
389.090	1	18
389.261	1	6
389.431	1	19
389.602	1	19
389.773	1	17
389.944	1	17
390.114	1	15
390.285	1	16
390.456	1	11
390.627	1	22
390.798	1	15
390.968	1	4
391.139	1	20
391.310	1	19
391.481	1	15
391.651	1	18
391.822	1	3
391.993	1	23
392.164	1	9
392.334	1	11
392.505	1	9
392.676	1	25
392.847	1	25
393.017	1	24
393.188	1	13
393.359	1	15
393.530	1	16
393.700	1	6
393.871	1	6
394.042	1	26
394.213	1	10
394.383	1	28
394.554	1	19
394.725	1	19
394.896	1	10
395.066	1	22
395.237	1	15
395.408	1	14
395.579	1	8
395.749	1	9
395.920	1	18
396.091	1	16
396.262	1	19
396.432	1	12
396.603	1	12
396.774	1	25
396.945	1	14
397.115	1	15
397.286	1	20
397.457	1	21
397.627	1	17
397.798	1	20
397.969	1	7
398.140	1	15
398.310	1	14
398.481	1	11
398.652	1	19
398.823	1	11
398.993	1	17
399.164	1	21
399.335	1	25
399.505	1	17
399.676	1	18
399.847	1	18
400.018	1	12
400.188	1	12
400.359	1	15
400.530	1	11
400.700	1	16
400.871	1	8
401.042	1	15
401.213	1	17
401.383	1	15
401.554	1	21
401.725	1	26
401.895	1	8
402.066	1	21
402.237	1	21
402.408	1	24
402.578	1	21
402.749	1	18
402.920	1	17
403.090	1	16
403.261	1	20
403.432	1	25
403.603	1	29
403.773	1	26
403.944	1	25
404.115	1	28
404.285	1	21
404.456	1	15
404.627	1	12
404.797	1	10
404.968	1	9
405.139	1	6
405.310	1	28
405.480	1	22
405.651	1	12
405.822	1	21
405.992	1	9
406.163	1	19
406.334	1	3
406.504	1	18
406.675	1	19
406.846	1	28
407.016	1	18
407.187	1	20
407.358	1	11
407.528	1	7
407.699	1	17
407.870	1	7
408.041	1	17
408.211	1	29
408.382	1	12
408.553	1	11
408.723	1	24
408.894	1	17
409.065	1	26
409.235	1	11
409.406	1	10
409.577	1	17
409.747	1	29
409.918	1	8
410.089	1	18
410.259	1	22
410.430	1	12
410.601	1	13
410.771	1	10
410.942	1	29
411.113	1	20
411.283	1	14
411.454	1	19
411.625	1	23
411.795	1	17
411.966	1	15
412.137	1	16
412.307	1	20
412.478	1	13
412.649	1	23
412.819	1	11
412.990	1	24
413.161	1	18
413.331	1	11
413.502	1	26
413.672	1	8
413.843	1	19
414.014	1	13
414.184	1	14
414.355	1	12
414.526	1	18
414.696	1	22
414.867	1	24
415.038	1	13
415.208	1	23
415.379	1	18
415.550	1	21
415.720	1	10
415.891	1	19
416.062	1	31
416.232	1	23
416.403	1	23
416.573	1	28
416.744	1	8
416.915	1	19
417.085	1	28
417.256	1	5
417.427	1	16
417.597	1	11
417.768	1	22
417.939	1	24
418.109	1	15
418.280	1	30
418.450	1	21
418.621	1	2
418.792	1	22
418.962	1	21
419.133	1	18
419.304	1	12
419.474	1	11
419.645	1	13
419.815	1	15
419.986	1	24
420.157	1	19
420.327	1	24
420.498	1	20
420.669	1	13
420.839	1	22
421.010	1	29
421.180	1	24
421.351	1	13
421.522	1	22
421.692	1	21
421.863	1	22
422.033	1	18
422.204	1	19
422.375	1	11
422.545	1	23
422.716	1	11
422.886	1	22
423.057	1	25
423.228	1	16
423.398	1	6
423.569	1	18
423.740	1	17
423.910	1	0
424.081	1	13
424.251	1	12
424.422	1	22
424.593	1	8
424.763	1	19
424.934	1	16
425.104	1	25
425.275	1	25
425.445	1	20
425.616	1	7
425.787	1	9
425.957	1	19
426.128	1	19
426.298	1	21
426.469	1	1
426.640	1	24
426.810	1	19
426.981	1	20
427.151	1	10
427.322	1	20
427.493	1	10
427.663	1	16
427.834	1	17
428.004	1	21
428.175	1	16
428.345	1	11
428.516	1	16
428.687	1	20
428.857	1	10
429.028	1	19
429.198	1	16
429.369	1	22
429.540	1	16
429.710	1	12
429.881	1	20
430.051	1	18
430.222	1	4
430.392	1	19
430.563	1	21
430.734	1	26
430.904	1	23
431.075	1	18
431.245	1	14
431.416	1	21
431.586	1	4
431.757	1	17
431.927	1	12
432.098	1	14
432.269	1	16
432.439	1	18
432.610	1	9
432.780	1	25
432.951	1	15
433.121	1	19
433.292	1	30
433.462	1	20
433.633	1	29
433.804	1	10
433.974	1	16
434.145	1	29
434.315	1	13
434.486	1	13
434.656	1	16
434.827	1	15
434.997	1	13
435.168	1	14
435.339	1	15
435.509	1	22
435.680	1	19
435.850	1	13
436.021	1	21
436.191	1	22
436.362	1	26
436.532	1	16
436.703	1	15
436.873	1	6
437.044	1	1
437.214	1	15
437.385	1	8
437.556	1	16
437.726	1	29
437.897	1	24
438.067	1	16
438.238	1	20
438.408	1	26
438.579	1	18
438.749	1	3
438.920	1	5
439.090	1	12
439.261	1	7
439.431	1	7
439.602	1	22
439.772	1	8
439.943	1	29
440.113	1	28
440.284	1	20
440.455	1	10
440.625	1	16
440.796	1	18
440.966	1	11
441.137	1	15
441.307	1	12
441.478	1	26
441.648	1	14
441.819	1	28
441.989	1	23
442.160	1	20
442.330	1	12
442.501	1	10
442.671	1	13
442.842	1	3
443.012	1	9
443.183	1	22
443.353	1	10
443.524	1	9
443.694	1	19
443.865	1	16
444.035	1	15
444.206	1	12
444.376	1	9
444.547	1	21
444.717	1	9
444.888	1	12
445.058	1	17
445.229	1	6
445.399	1	14
445.570	1	17
445.740	1	8
445.911	1	11
446.081	1	7
446.252	1	24
446.422	1	2
446.593	1	13
446.763	1	14
446.934	1	5
447.104	1	21
447.275	1	20
447.445	1	13
447.616	1	17
447.786	1	19
447.957	1	12
448.127	1	10
448.298	1	21
448.468	1	4
448.639	1	11
448.809	1	15
448.979	1	14
449.150	1	18
449.320	1	6
449.491	1	23
449.661	1	15
449.832	1	8
450.002	1	23
450.173	1	16
450.343	1	15
450.514	1	11
450.684	1	19
450.855	1	10
451.025	1	15
451.196	1	15
451.366	1	16
451.537	1	11
451.707	1	-8
451.878	1	10
452.048	1	18
452.218	1	20
452.389	1	16
452.559	1	22
452.730	1	17
452.900	1	15
453.071	1	-6
453.241	1	16
453.412	1	11
453.582	1	11
453.753	1	15
453.923	1	5
454.093	1	15
454.264	1	28
454.434	1	12
454.605	1	14
454.775	1	15
454.946	1	10
455.116	1	10
455.287	1	-3
455.457	1	2
455.628	1	10
455.798	1	9
455.968	1	17
456.139	1	10
456.309	1	15
456.480	1	4
456.650	1	10
456.821	1	10
456.991	1	3
457.161	1	10
457.332	1	13
457.502	1	3
457.673	1	20
457.843	1	18
458.014	1	13
458.184	1	5
458.355	1	5
458.525	1	14
458.695	1	15
458.866	1	12
459.036	1	9
459.207	1	3
459.377	1	1
459.548	1	18
459.718	1	-1
459.888	1	5
460.059	1	20
460.229	1	16
460.400	1	30
460.570	1	16
460.740	1	13
460.911	1	9
461.081	1	16
461.252	1	3
461.422	1	11
461.593	1	20
461.763	1	12
461.933	1	19
462.104	1	10
462.274	1	7
462.445	1	14
462.615	1	2
462.785	1	23
462.956	1	10
463.126	1	11
463.297	1	14
463.467	1	13
463.638	1	14
463.808	1	2
463.978	1	1
464.149	1	8
464.319	1	14
464.490	1	18
464.660	1	12
464.830	1	8
465.001	1	14
465.171	1	19
465.342	1	11
465.512	1	5
465.682	1	15
465.853	1	8
466.023	1	8
466.194	1	12
466.364	1	14
466.534	1	15
466.705	1	9
466.875	1	11
467.045	1	4
467.216	1	17
467.386	1	4
467.557	1	7
467.727	1	6
467.897	1	8
468.068	1	6
468.238	1	16
468.409	1	-2
468.579	1	12
468.749	1	12
468.920	1	12
469.090	1	10
469.260	1	6
469.431	1	-3
469.601	1	10
469.772	1	7
469.942	1	12
470.112	1	16
470.283	1	7
470.453	1	9
470.623	1	11
470.794	1	8
470.964	1	9
471.135	1	17
471.305	1	-3
471.475	1	5
471.646	1	0
471.816	1	14
471.986	1	6
472.157	1	9
472.327	1	-9
472.497	1	10
472.668	1	3
472.838	1	13
473.009	1	13
473.179	1	11
473.349	1	-6
473.520	1	13
473.690	1	4
473.860	1	4
474.031	1	14
474.201	1	5
474.371	1	11
474.542	1	7
474.712	1	14
474.882	1	11
475.053	1	20
475.223	1	9
475.394	1	15
475.564	1	9
475.734	1	22
475.905	1	20
476.075	1	11
476.245	1	12
476.416	1	18
476.586	1	19
476.756	1	12
476.927	1	15
477.097	1	6
477.267	1	-4
477.438	1	14
477.608	1	-1
477.778	1	12
477.949	1	12
478.119	1	13
478.289	1	9
478.460	1	8
478.630	1	10
478.800	1	6
478.971	1	12
479.141	1	5
479.311	1	-5
479.482	1	2
479.652	1	8
479.822	1	8
479.993	1	15
480.163	1	11
480.333	1	12
480.504	1	15
480.674	1	6
480.844	1	-3
481.015	1	8
481.185	1	7
481.355	1	9
481.525	1	4
481.696	1	6
481.866	1	13
482.036	1	12
482.207	1	5
482.377	1	-7
482.547	1	19
482.718	1	2
482.888	1	21
483.058	1	-1
483.229	1	2
483.399	1	4
483.569	1	2
483.740	1	13
483.910	1	11
484.080	1	14
484.250	1	9
484.421	1	6
484.591	1	15
484.761	1	22
484.932	1	21
485.102	1	10
485.272	1	14
485.443	1	16
485.613	1	13
485.783	1	9
485.953	1	4
486.124	1	10
486.294	1	12
486.464	1	16
486.635	1	7
486.805	1	14
486.975	1	5
487.146	1	15
487.316	1	5
487.486	1	8
487.656	1	0
487.827	1	7
487.997	1	-8
488.167	1	6
488.338	1	17
488.508	1	4
488.678	1	12
488.848	1	14
489.019	1	2
489.189	1	12
489.359	1	2
489.529	1	12
489.700	1	-1
489.870	1	15
490.040	1	9
490.211	1	0
490.381	1	10
490.551	1	9
490.721	1	15
490.892	1	7
491.062	1	7
491.232	1	10
491.402	1	3
491.573	1	-7
491.743	1	10
491.913	1	15
492.084	1	23
492.254	1	0
492.424	1	10
492.594	1	10
492.765	1	13
492.935	1	7
493.105	1	10
493.275	1	5
493.446	1	4
493.616	1	12
493.786	1	3
493.956	1	7
494.127	1	1
494.297	1	7
494.467	1	0
494.637	1	6
494.808	1	4
494.978	1	8
495.148	1	-5
495.318	1	0
495.489	1	12
495.659	1	10
495.829	1	0
495.999	1	-3
496.170	1	10
496.340	1	17
496.510	1	10
496.680	1	2
496.851	1	2
497.021	1	-6
497.191	1	-11
497.361	1	8
497.532	1	4
497.702	1	3
497.872	1	3
498.042	1	13
498.213	1	2
498.383	1	6
498.553	1	0
498.723	1	1
498.894	1	4
499.064	1	13
499.234	1	3
499.404	1	4
499.574	1	10
499.745	1	8
499.915	1	9
500.085	1	8
500.255	1	11
500.426	1	11
500.596	1	8
500.766	1	-1
500.936	1	4
501.106	1	4
501.277	1	6
501.447	1	5
501.617	1	9
501.787	1	4
501.958	1	-10
502.128	1	0
502.298	1	8
502.468	1	0
502.638	1	14
502.809	1	-4
502.979	1	-5
503.149	1	4
503.319	1	-4
503.489	1	6
503.660	1	4
503.830	1	4
504.000	1	7
504.170	1	6
504.340	1	0
504.511	1	6
504.681	1	5
504.851	1	11
505.021	1	9
505.192	1	-1
505.362	1	7
505.532	1	-3
505.702	1	1
505.872	1	12
506.043	1	3
506.213	1	-4
506.383	1	12
506.553	1	11
506.723	1	8
506.893	1	-6
507.064	1	21
507.234	1	4
507.404	1	8
507.574	1	-2
507.744	1	1
507.915	1	2
508.085	1	20
508.255	1	15
508.425	1	-7
508.595	1	5
508.766	1	12
508.936	1	-4
509.106	1	13
509.276	1	7
509.446	1	7
509.616	1	6
509.787	1	8
509.957	1	4
510.127	1	3
510.297	1	-1
510.467	1	-1
510.638	1	5
510.808	1	2
510.978	1	-3
511.148	1	9
511.318	1	8
511.488	1	-6
511.659	1	2
511.829	1	-6
511.999	1	12
512.169	1	0
512.339	1	-5
512.509	1	11
512.680	1	-2
512.850	1	-15
513.020	1	1
513.190	1	12
513.360	1	-7
513.530	1	4
513.700	1	4
513.871	1	-4
514.041	1	4
514.211	1	13
514.381	1	14
514.551	1	11
514.721	1	-3
514.892	1	8
515.062	1	5
515.232	1	7
515.402	1	-4
515.572	1	0
515.742	1	14
515.912	1	12
516.083	1	4
516.253	1	8
516.423	1	0
516.593	1	0
516.763	1	14
516.933	1	-11
517.104	1	6
517.274	1	4
517.444	1	4
517.614	1	-4
517.784	1	9
517.954	1	6
518.124	1	9
518.294	1	-4
518.465	1	-4
518.635	1	-4
518.805	1	-8
518.975	1	11
519.145	1	8
519.315	1	0
519.485	1	4
519.656	1	15
519.826	1	2
519.996	1	-1
520.166	1	6
520.336	1	11
520.506	1	-1
520.676	1	-4
520.846	1	7
521.017	1	6
521.187	1	5
521.357	1	10
521.527	1	3
521.697	1	6
521.867	1	-1
522.037	1	8
522.207	1	7
522.377	1	7
522.548	1	1
522.718	1	4
522.888	1	16
523.058	1	2
523.228	1	13
523.398	1	5
523.568	1	6
523.738	1	3
523.909	1	5
524.079	1	0
524.249	1	5
524.419	1	8
524.589	1	6
524.759	1	-2
524.929	1	7
525.099	1	9
525.269	1	5
525.439	1	-5
525.610	1	22
525.780	1	1
525.950	1	2
526.120	1	0
526.290	1	4
526.460	1	-4
526.630	1	-1
526.800	1	10
526.970	1	-1
527.140	1	12
527.311	1	0
527.481	1	1
527.651	1	12
527.821	1	-2
527.991	1	12
528.161	1	8
528.331	1	-2
528.501	1	8
528.671	1	-2
528.841	1	7
529.011	1	10
529.181	1	3
529.352	1	7
529.522	1	-1
529.692	1	4
529.862	1	4
530.032	1	2
530.202	1	8
530.372	1	13
530.542	1	2
530.712	1	0
530.882	1	6
531.052	1	9
531.222	1	3
531.392	1	-2
531.563	1	11
531.733	1	3
531.903	1	8
532.073	1	12
532.243	1	-3
532.413	1	1
532.583	1	5
532.753	1	1
532.923	1	-5
533.093	1	-2
533.263	1	1
533.433	1	-2
533.603	1	9
533.773	1	5
533.943	1	2
534.113	1	1
534.284	1	0
534.454	1	9
534.624	1	12
534.794	1	-5
534.964	1	11
535.134	1	3
535.304	1	4
535.474	1	15
535.644	1	2
535.814	1	-10
535.984	1	-8
536.154	1	-5
536.324	1	-2
536.494	1	11
536.664	1	9
536.834	1	3
537.004	1	1
537.174	1	10
537.344	1	1
537.514	1	-9
537.685	1	-2
537.855	1	13
538.025	1	11
538.195	1	5
538.365	1	5
538.535	1	4
538.705	1	4
538.875	1	2
539.045	1	6
539.215	1	8
539.385	1	-2
539.555	1	8
539.725	1	2
539.895	1	-4
540.065	1	5
540.235	1	8
540.405	1	2
540.575	1	-3
540.745	1	2
540.915	1	9
541.085	1	-7
541.255	1	-14
541.425	1	9
541.595	1	1
541.765	1	6
541.935	1	-11
542.105	1	-5
542.275	1	-1
542.445	1	-13
542.615	1	9
542.785	1	4
542.955	1	-3
543.125	1	-6
543.295	1	9
543.465	1	8
543.635	1	5
543.805	1	13
543.975	1	4
544.145	1	9
544.315	1	10
544.485	1	3
544.655	1	12
544.825	1	-9
544.995	1	8
545.165	1	-4
545.335	1	5
545.505	1	-7
545.675	1	7
545.845	1	8
546.015	1	17
546.185	1	10
546.355	1	-1
546.525	1	7
546.695	1	9
546.865	1	6
547.035	1	5
547.205	1	-8
547.375	1	16
547.545	1	15
547.715	1	-1
547.885	1	0
548.055	1	3
548.225	1	9
548.395	1	9
548.565	1	10
548.735	1	-8
548.905	1	-2
549.075	1	6
549.245	1	0
549.415	1	-1
549.585	1	3
549.755	1	8
549.925	1	-6
550.095	1	9
550.265	1	3
550.435	1	-8
550.605	1	3
550.775	1	5
550.945	1	5
551.115	1	1
551.285	1	5
551.455	1	-3
551.625	1	6
551.795	1	5
551.965	1	-7
552.135	1	-1
552.305	1	-2
552.475	1	-9
552.645	1	4
552.815	1	5
552.985	1	11
553.155	1	4
553.325	1	7
553.495	1	-3
553.665	1	-1
553.835	1	1
554.004	1	5
554.174	1	-5
554.344	1	4
554.514	1	6
554.684	1	2
554.854	1	13
555.024	1	-3
555.194	1	3
555.364	1	-1
555.534	1	1
555.704	1	-1
555.874	1	2
556.044	1	-2
556.214	1	-7
556.384	1	-1
556.554	1	17
556.724	1	5
556.894	1	0
557.064	1	6
557.234	1	-4
557.404	1	15
557.573	1	1
557.743	1	0
557.913	1	3
558.083	1	-1
558.253	1	1
558.423	1	-4
558.593	1	8
558.763	1	-3
558.933	1	3
559.103	1	9
559.273	1	8
559.443	1	9
559.613	1	7
559.783	1	-4
559.953	1	6
560.122	1	6
560.292	1	11
560.462	1	-3
560.632	1	10
560.802	1	3
560.972	1	10
561.142	1	1
561.312	1	-1
561.482	1	2
561.652	1	6
561.822	1	-7
561.992	1	3
562.162	1	1
562.331	1	-1
562.501	1	0
562.671	1	10
562.841	1	-8
563.011	1	-2
563.181	1	1
563.351	1	-9
563.521	1	5
563.691	1	-5
563.861	1	8
564.031	1	8
564.201	1	9
564.370	1	-5
564.540	1	3
564.710	1	-3
564.880	1	-6
565.050	1	-2
565.220	1	1
565.390	1	6
565.560	1	1
565.730	1	-7
565.900	1	7
566.069	1	4
566.239	1	3
566.409	1	4
566.579	1	1
566.749	1	2
566.919	1	4
567.089	1	3
567.259	1	6
567.429	1	12
567.599	1	-4
567.768	1	5
567.938	1	2
568.108	1	3
568.278	1	2
568.448	1	0
568.618	1	7
568.788	1	2
568.958	1	-4
569.128	1	9
569.297	1	2
569.467	1	-8
569.637	1	10
569.807	1	2
569.977	1	-1
570.147	1	14
570.317	1	-10
570.487	1	2
570.656	1	10
570.826	1	-2
570.996	1	-1
571.166	1	9
571.336	1	-3
571.506	1	8
571.676	1	-1
571.846	1	6
572.015	1	-3
572.185	1	-4
572.355	1	3
572.525	1	11
572.695	1	1
572.865	1	-9
573.035	1	2
573.205	1	4
573.374	1	-5
573.544	1	4
573.714	1	5
573.884	1	13
574.054	1	-9
574.224	1	3
574.394	1	-1
574.563	1	-2
574.733	1	-4
574.903	1	2
575.073	1	-2
575.243	1	-12
575.413	1	10
575.583	1	-1
575.752	1	2
575.922	1	9
576.092	1	0
576.262	1	-2
576.432	1	7
576.602	1	-4
576.772	1	9
576.941	1	4
577.111	1	0
577.281	1	-1
577.451	1	-11
577.621	1	8
577.791	1	9
577.960	1	-2
578.130	1	12
578.300	1	4
578.470	1	11
578.640	1	7
578.810	1	-1
578.979	1	5
579.149	1	2
579.319	1	-3
579.489	1	-4
579.659	1	5
579.829	1	6
579.998	1	6
580.168	1	16
580.338	1	11
580.508	1	4
580.678	1	6
580.848	1	1
581.017	1	7
581.187	1	-3
581.357	1	-4
581.527	1	8
581.697	1	4
581.867	1	4
582.036	1	2
582.206	1	0
582.376	1	4
582.546	1	-9
582.716	1	5
582.885	1	-11
583.055	1	-3
583.225	1	-16
583.395	1	0
583.565	1	-11
583.735	1	0
583.904	1	2
584.074	1	4
584.244	1	3
584.414	1	3
584.584	1	3
584.753	1	-5
584.923	1	-6
585.093	1	1
585.263	1	3
585.433	1	-1
585.602	1	-10
585.772	1	-6
585.942	1	-5
586.112	1	5
586.282	1	6
586.451	1	-8
586.621	1	2
586.791	1	-6
586.961	1	1
587.131	1	-2
587.300	1	-5
587.470	1	2
587.640	1	8
587.810	1	-9
587.980	1	0
588.149	1	-4
588.319	1	2
588.489	1	0
588.659	1	-8
588.829	1	-1
588.998	1	8
589.168	1	1
589.338	1	-3
589.508	1	4
589.677	1	-8
589.847	1	-8
590.017	1	10
590.187	1	0
590.357	1	14
590.526	1	9
590.696	1	6
590.866	1	9
591.036	1	5
591.205	1	12
591.375	1	-6
591.545	1	-1
591.715	1	12
591.885	1	6
592.054	1	6
592.224	1	2
592.394	1	7
592.564	1	5
592.733	1	6
592.903	1	-5
593.073	1	5
593.243	1	9
593.412	1	7
593.582	1	-2
593.752	1	3
593.922	1	-3
594.091	1	-1
594.261	1	-1
594.431	1	9
594.601	1	14
594.771	1	6
594.940	1	1
595.110	1	-5
595.280	1	2
595.450	1	-4
595.619	1	8
595.789	1	4
595.959	1	6
596.129	1	-5
596.298	1	-1
596.468	1	3
596.638	1	10
596.808	1	0
596.977	1	1
597.147	1	6
597.317	1	-3
597.487	1	1
597.656	1	-4
597.826	1	-1
597.996	1	-3
598.166	1	-3
598.335	1	-2
598.505	1	-1
598.675	1	0
598.844	1	7
599.014	1	9
599.184	1	1
599.354	1	-7
599.523	1	4
599.693	1	-6
599.863	1	9
600.033	1	-1
600.202	1	0
600.372	1	12
600.542	1	7
600.712	1	4
600.881	1	4
601.051	1	8
601.221	1	5
601.390	1	-6
601.560	1	7
601.730	1	14
601.900	1	10
602.069	1	7
602.239	1	-3
602.409	1	-8
602.578	1	1
602.748	1	1
602.918	1	13
603.088	1	9
603.257	1	8
603.427	1	1
603.597	1	11
603.767	1	4
603.936	1	10
604.106	1	-1
604.276	1	0
604.445	1	-2
604.615	1	0
604.785	1	-5
604.954	1	5
605.124	1	5
605.294	1	1
605.464	1	-1
605.633	1	5
605.803	1	2
605.973	1	1
606.142	1	2
606.312	1	5
606.482	1	-1
606.652	1	6
606.821	1	2
606.991	1	6
607.161	1	-1
607.330	1	11
607.500	1	-3
607.670	1	-4
607.839	1	6
608.009	1	13
608.179	1	11
608.348	1	4
608.518	1	0
608.688	1	15
608.858	1	-5
609.027	1	-12
609.197	1	7
609.367	1	13
609.536	1	4
609.706	1	-5
609.876	1	-3
610.045	1	0
610.215	1	-1
610.385	1	2
610.554	1	5
610.724	1	5
610.894	1	-3
611.063	1	-6
611.233	1	-1
611.403	1	7
611.572	1	5
611.742	1	0
611.912	1	2
612.081	1	-1
612.251	1	1
612.421	1	2
612.590	1	1
612.760	1	-1
612.930	1	3
613.099	1	2
613.269	1	7
613.439	1	2
613.608	1	0
613.778	1	5
613.948	1	2
614.117	1	3
614.287	1	10
614.457	1	2
614.626	1	-4
614.796	1	5
614.966	1	1
615.135	1	8
615.305	1	15
615.475	1	3
615.644	1	5
615.814	1	-3
615.984	1	-14
616.153	1	-3
616.323	1	1
616.493	1	2
616.662	1	17
616.832	1	0
617.002	1	-4
617.171	1	3
617.341	1	1
617.511	1	0
617.680	1	3
617.850	1	2
618.019	1	7
618.189	1	20
618.359	1	7
618.528	1	4
618.698	1	7
618.868	1	-5
619.037	1	0
619.207	1	-10
619.377	1	1
619.546	1	-6
619.716	1	-3
619.885	1	6
620.055	1	-7
620.225	1	1
620.394	1	-10
620.564	1	9
620.734	1	11
620.903	1	-9
621.073	1	14
621.242	1	-3
621.412	1	2
621.582	1	-11
621.751	1	16
621.921	1	3
622.091	1	-5
622.260	1	-1
622.430	1	14
622.599	1	-1
622.769	1	4
622.939	1	10
623.108	1	1
623.278	1	-3
623.448	1	3
623.617	1	-3
623.787	1	3
623.956	1	11
624.126	1	-4
624.296	1	0
624.465	1	4
624.635	1	8
624.804	1	-7
624.974	1	0
625.144	1	7
625.313	1	1
625.483	1	4
625.652	1	7
625.822	1	-7
625.992	1	3
626.161	1	7
626.331	1	3
626.501	1	8
626.670	1	3
626.840	1	3
627.009	1	3
627.179	1	9
627.348	1	4
627.518	1	-1
627.688	1	-2
627.857	1	13
628.027	1	6
628.196	1	3
628.366	1	13
628.536	1	4
628.705	1	5
628.875	1	-1
629.044	1	4
629.214	1	10
629.384	1	4
629.553	1	15
629.723	1	2
629.892	1	11
630.062	1	3
630.232	1	-5
630.401	1	3
630.571	1	1
630.740	1	-1
630.910	1	9
631.079	1	4
631.249	1	1
631.419	1	8
631.588	1	-7
631.758	1	4
631.927	1	2
632.097	1	8
632.266	1	9
632.436	1	7
632.606	1	4
632.775	1	8
632.945	1	10
633.114	1	3
633.284	1	13
633.453	1	2
633.623	1	7
633.793	1	2
633.962	1	1
634.132	1	9
634.301	1	6
634.471	1	4
634.640	1	6
634.810	1	8
634.979	1	11
635.149	1	7
635.319	1	4
635.488	1	2
635.658	1	0
635.827	1	1
635.997	1	8
636.166	1	10
636.336	1	7
636.505	1	8
636.675	1	-2
636.845	1	1
637.014	1	7
637.184	1	8
637.353	1	3
637.523	1	7
637.692	1	11
637.862	1	-2
638.031	1	4
638.201	1	7
638.370	1	3
638.540	1	4
638.710	1	6
638.879	1	-2
639.049	1	5
639.218	1	3
639.388	1	9
639.557	1	-3
639.727	1	4
639.896	1	-6
640.066	1	4
640.235	1	0
640.405	1	7
640.574	1	-1
640.744	1	3
640.914	1	8
641.083	1	4
641.253	1	-5
641.422	1	11
641.592	1	12
641.761	1	5
641.931	1	-2
642.100	1	17
642.270	1	-1
642.439	1	3
642.609	1	9
642.778	1	4
642.948	1	12
643.117	1	12
643.287	1	8
643.456	1	3
643.626	1	9
643.795	1	7
643.965	1	-2
644.134	1	-6
644.304	1	0
644.473	1	14
644.643	1	1
644.812	1	6
644.982	1	2
645.151	1	5
645.321	1	-8
645.490	1	14
645.660	1	1
645.829	1	5
645.999	1	2
646.168	1	3
646.338	1	2
646.507	1	4
646.677	1	13
646.846	1	-4
647.016	1	-17
647.185	1	2
647.355	1	-12
647.524	1	12
647.694	1	7
647.863	1	8
648.033	1	5
648.202	1	12
648.372	1	-4
648.541	1	5
648.711	1	4
648.880	1	-4
649.050	1	-4
649.219	1	-3
649.389	1	10
649.558	1	7
649.728	1	4
649.897	1	-7
650.067	1	5
650.236	1	6
650.406	1	6
650.575	1	7
650.745	1	8
650.914	1	0
651.084	1	0
651.253	1	6
651.423	1	-1
651.592	1	9
651.762	1	-8
651.931	1	12
652.101	1	6
652.270	1	7
652.440	1	7
652.609	1	-7
652.778	1	-7
652.948	1	5
653.117	1	8
653.287	1	4
653.456	1	8
653.626	1	6
653.795	1	4
653.965	1	13
654.134	1	5
654.304	1	-13
654.473	1	7
654.643	1	10
654.812	1	9
654.982	1	5
655.151	1	3
655.320	1	5
655.490	1	-4
655.659	1	-1
655.829	1	0
655.998	1	-1
656.168	1	6
656.337	1	12
656.507	1	1
656.676	1	11
656.846	1	8
657.015	1	3
657.184	1	9
657.354	1	9
657.523	1	8
657.693	1	4
657.862	1	3
658.032	1	5
658.201	1	5
658.371	1	13
658.540	1	7
658.709	1	5
658.879	1	3
659.048	1	2
659.218	1	2
659.387	1	18
659.557	1	6
659.726	1	5
659.895	1	-3
660.065	1	1
660.234	1	4
660.404	1	8
660.573	1	-4
660.743	1	4
660.912	1	6
661.081	1	8
661.251	1	-8
661.420	1	-3
661.590	1	-1
661.759	1	16
661.929	1	6
662.098	1	13
662.267	1	6
662.437	1	10
662.606	1	6
662.776	1	5
662.945	1	2
663.115	1	1
663.284	1	4
663.453	1	10
663.623	1	3
663.792	1	3
663.962	1	0
664.131	1	12
664.300	1	11
664.470	1	-1
664.639	1	5
664.809	1	7
664.978	1	14
665.148	1	5
665.317	1	9
665.486	1	9
665.656	1	-2
665.825	1	6
665.995	1	-3
666.164	1	-7
666.333	1	5
666.503	1	8
666.672	1	-5
666.842	1	-2
667.011	1	0
667.180	1	8
667.350	1	0
667.519	1	13
667.689	1	12
667.858	1	2
668.027	1	7
668.197	1	3
668.366	1	-7
668.536	1	12
668.705	1	8
668.874	1	7
669.044	1	-1
669.213	1	7
669.382	1	-4
669.552	1	4
669.721	1	7
669.891	1	14
670.060	1	5
670.229	1	17
670.399	1	2
670.568	1	18
670.738	1	10
670.907	1	-1
671.076	1	4
671.246	1	9
671.415	1	0
671.584	1	1
671.754	1	5
671.923	1	2
672.093	1	5
672.262	1	-1
672.431	1	15
672.601	1	8
672.770	1	-4
672.939	1	8
673.109	1	-6
673.278	1	9
673.448	1	12
673.617	1	7
673.786	1	9
