325.333	1	10
325.504	1	-1
325.675	1	8
325.846	1	5
326.017	1	0
326.188	1	-2
326.359	1	0
326.531	1	-8
326.702	1	-5
326.873	1	12
327.044	1	1
327.215	1	5
327.386	1	8
327.557	1	-7
327.728	1	-2
327.899	1	5
328.070	1	14
328.241	1	11
328.412	1	-7
328.583	1	7
328.754	1	1
328.926	1	11
329.097	1	0
329.268	1	10
329.439	1	-3
329.610	1	1
329.781	1	-7
329.952	1	2
330.123	1	6
330.294	1	-1
330.465	1	11
330.636	1	9
330.807	1	5
330.978	1	6
331.149	1	1
331.320	1	-2
331.492	1	-5
331.663	1	6
331.834	1	9
332.005	1	11
332.176	1	10
332.347	1	6
332.518	1	-4
332.689	1	5
332.860	1	1
333.031	1	13
333.202	1	-1
333.373	1	2
333.544	1	0
333.715	1	11
333.886	1	-10
334.057	1	2
334.228	1	4
334.399	1	7
334.570	1	10
334.741	1	5
334.912	1	12
335.084	1	24
335.255	1	2
335.426	1	6
335.597	1	8
335.768	1	1
335.939	1	7
336.110	1	1
336.281	1	-1
336.452	1	4
336.623	1	4
336.794	1	2
336.965	1	2
337.136	1	15
337.307	1	3
337.478	1	6
337.649	1	4
337.820	1	9
337.991	1	-2
338.162	1	6
338.333	1	-2
338.504	1	14
338.675	1	-1
338.846	1	12
339.017	1	4
339.188	1	-4
339.359	1	-5
339.530	1	17
339.701	1	12
339.872	1	13
340.043	1	0
340.214	1	5
340.385	1	10
340.556	1	-2
340.727	1	8
340.898	1	17
341.069	1	7
341.240	1	8
341.411	1	10
341.582	1	10
341.753	1	3
341.924	1	7
342.095	1	14
342.266	1	13
342.437	1	6
342.608	1	4
342.779	1	0
342.950	1	2
343.121	1	11
343.292	1	2
343.463	1	9
343.634	1	3
343.805	1	15
343.976	1	13
344.147	1	4
344.318	1	1
344.489	1	3
344.660	1	17
344.831	1	4
345.002	1	0
345.173	1	12
345.344	1	8
345.515	1	7
345.686	1	5
345.857	1	10
346.028	1	17
346.199	1	0
346.370	1	0
346.541	1	12
346.712	1	11
346.883	1	10
347.054	1	7
347.225	1	24
347.396	1	6
347.567	1	0
347.738	1	11
347.909	1	24
348.080	1	4
348.251	1	5
348.422	1	14
348.593	1	11
348.764	1	9
348.935	1	1
349.106	1	0
349.277	1	8
349.448	1	12
349.619	1	4
349.790	1	13
349.961	1	13
350.132	1	8
350.303	1	7
350.474	1	9
350.645	1	11
350.816	1	14
350.987	1	18
351.157	1	0
351.328	1	10
351.499	1	7
351.670	1	4
351.841	1	18
352.012	1	17
352.183	1	18
352.354	1	22
352.525	1	22
352.696	1	15
352.867	1	2
353.038	1	14
353.209	1	3
353.380	1	-2
353.551	1	4
353.722	1	10
353.893	1	9
354.064	1	25
354.235	1	7
354.406	1	7
354.576	1	6
354.747	1	9
354.918	1	11
355.089	1	11
355.260	1	16
355.431	1	19
355.602	1	4
355.773	1	13
355.944	1	18
356.115	1	12
356.286	1	10
356.457	1	6
356.628	1	7
356.799	1	13
356.970	1	19
357.141	1	6
357.311	1	2
357.482	1	4
357.653	1	19
357.824	1	25
357.995	1	14
358.166	1	3
358.337	1	12
358.508	1	6
358.679	1	10
358.850	1	3
359.021	1	13
359.192	1	15
359.363	1	11
359.533	1	14
359.704	1	-1
359.875	1	9
360.046	1	13
360.217	1	-3
360.388	1	11
360.559	1	8
360.730	1	14
360.901	1	11
361.072	1	16
361.243	1	17
361.414	1	16
361.584	1	10
361.755	1	25
361.926	1	7
362.097	1	18
362.268	1	15
362.439	1	3
362.610	1	16
362.781	1	23
362.952	1	8
363.123	1	13
363.293	1	4
363.464	1	11
363.635	1	19
363.806	1	5
363.977	1	11
364.148	1	13
364.319	1	16
364.490	1	8
364.661	1	13
364.832	1	9
365.002	1	20
365.173	1	25
365.344	1	17
365.515	1	11
365.686	1	6
365.857	1	13
366.028	1	23
366.199	1	11
366.370	1	17
366.540	1	12
366.711	1	-9
366.882	1	11
367.053	1	5
367.224	1	21
367.395	1	12
367.566	1	16
367.737	1	17
367.908	1	13
368.078	1	17
368.249	1	18
368.420	1	1
368.591	1	9
368.762	1	11
368.933	1	7
369.104	1	8
369.274	1	11
369.445	1	15
369.616	1	16
369.787	1	13
369.958	1	22
370.129	1	4
370.300	1	17
370.471	1	0
370.641	1	15
370.812	1	18
370.983	1	13
371.154	1	5
371.325	1	15
371.496	1	9
371.667	1	12
371.837	1	5
372.008	1	13
372.179	1	14
372.350	1	22
372.521	1	5
372.692	1	17
372.863	1	16
373.033	1	2
373.204	1	7
373.375	1	17
373.546	1	18
373.717	1	11
373.888	1	24
374.059	1	20
374.229	1	18
374.400	1	11
374.571	1	20
374.742	1	13
374.913	1	18
375.084	1	-1
375.254	1	21
375.425	1	22
375.596	1	14
375.767	1	11
375.938	1	21
376.109	1	14
376.279	1	13
376.450	1	18
376.621	1	9
376.792	1	10
376.963	1	-1
377.134	1	15
377.304	1	15
377.475	1	9
377.646	1	2
377.817	1	19
377.988	1	15
378.159	1	16
378.329	1	25
378.500	1	8
378.671	1	21
378.842	1	8
379.013	1	9
379.184	1	9
379.354	1	19
379.525	1	7
379.696	1	20
379.867	1	19
380.038	1	8
380.209	1	18
380.379	1	11
380.550	1	8
380.721	1	21
380.892	1	18
381.063	1	12
381.233	1	18
381.404	1	11
381.575	1	9
381.746	1	25
381.917	1	13
382.087	1	16
382.258	1	15
382.429	1	21
382.600	1	20
382.771	1	6
382.941	1	10
383.112	1	13
383.283	1	13
383.454	1	9
383.625	1	8
383.795	1	7
383.966	1	18
384.137	1	12
384.308	1	14
384.479	1	20
384.649	1	23
384.820	1	5
384.991	1	16
385.162	1	12
385.333	1	13
385.503	1	17
385.674	1	14
385.845	1	24
386.016	1	14
386.187	1	11
386.357	1	22
386.528	1	33
386.699	1	5
386.870	1	28
387.041	1	18
387.211	1	18
387.382	1	23
387.553	1	22
387.724	1	15
387.894	1	18
388.065	1	8
388.236	1	10
388.407	1	19
388.578	1	14
388.748	1	13
388.919	1	22
389.090	1	17
389.261	1	24
389.431	1	25
389.602	1	19
389.773	1	17
389.944	1	15
390.114	1	24
390.285	1	17
390.456	1	13
390.627	1	21
390.798	1	21
390.968	1	19
391.139	1	19
391.310	1	17
391.481	1	17
391.651	1	21
391.822	1	12
391.993	1	15
392.164	1	10
392.334	1	22
392.505	1	11
392.676	1	22
392.847	1	20
393.017	1	17
393.188	1	22
393.359	1	6
393.530	1	16
393.700	1	11
393.871	1	13
394.042	1	14
394.213	1	8
394.383	1	18
394.554	1	25
394.725	1	16
394.896	1	16
395.066	1	27
395.237	1	18
395.408	1	15
395.579	1	13
395.749	1	18
395.920	1	18
396.091	1	18
396.262	1	16
396.432	1	16
396.603	1	26
396.774	1	33
396.945	1	19
397.115	1	24
397.286	1	14
397.457	1	22
397.627	1	22
397.798	1	20
397.969	1	3
398.140	1	19
398.310	1	23
398.481	1	18
398.652	1	20
398.823	1	13
398.993	1	21
399.164	1	25
399.335	1	22
399.505	1	14
399.676	1	20
399.847	1	22
400.018	1	12
400.188	1	20
400.359	1	17
400.530	1	12
400.700	1	13
400.871	1	16
401.042	1	23
401.213	1	14
401.383	1	14
401.554	1	30
401.725	1	27
401.895	1	15
402.066	1	19
402.237	1	23
402.408	1	29
402.578	1	21
402.749	1	17
402.920	1	23
403.090	1	21
403.261	1	9
403.432	1	21
403.603	1	18
403.773	1	25
403.944	1	33
404.115	1	30
404.285	1	34
404.456	1	16
404.627	1	19
404.797	1	11
404.968	1	22
405.139	1	9
405.310	1	38
405.480	1	23
405.651	1	21
405.822	1	13
405.992	1	19
406.163	1	24
406.334	1	10
406.504	1	22
406.675	1	24
406.846	1	21
407.016	1	29
407.187	1	23
407.358	1	5
407.528	1	17
407.699	1	10
407.870	1	12
408.041	1	24
408.211	1	33
408.382	1	15
408.553	1	13
408.723	1	24
408.894	1	24
409.065	1	20
409.235	1	14
409.406	1	18
409.577	1	14
409.747	1	26
409.918	1	20
410.089	1	13
410.259	1	21
410.430	1	13
410.601	1	23
410.771	1	21
410.942	1	29
411.113	1	21
411.283	1	20
411.454	1	23
411.625	1	18
411.795	1	21
411.966	1	18
412.137	1	20
412.307	1	7
412.478	1	9
412.649	1	18
412.819	1	12
412.990	1	18
413.161	1	21
413.331	1	18
413.502	1	17
413.672	1	18
413.843	1	13
414.014	1	18
414.184	1	27
414.355	1	21
414.526	1	14
414.696	1	34
414.867	1	23
415.038	1	7
415.208	1	16
415.379	1	29
415.550	1	25
415.720	1	15
415.891	1	15
416.062	1	26
416.232	1	28
416.403	1	26
416.573	1	22
416.744	1	8
416.915	1	18
417.085	1	13
417.256	1	16
417.427	1	12
417.597	1	19
417.768	1	13
417.939	1	20
418.109	1	26
418.280	1	19
418.450	1	20
418.621	1	4
418.792	1	15
418.962	1	16
419.133	1	34
419.304	1	15
419.474	1	17
419.645	1	23
419.815	1	25
419.986	1	18
420.157	1	22
420.327	1	28
420.498	1	24
420.669	1	0
420.839	1	21
421.010	1	21
421.180	1	26
421.351	1	18
421.522	1	22
421.692	1	32
421.863	1	17
422.033	1	27
422.204	1	30
422.375	1	9
422.545	1	18
422.716	1	15
422.886	1	13
423.057	1	29
423.228	1	27
423.398	1	12
423.569	1	26
423.740	1	11
423.910	1	-2
424.081	1	18
424.251	1	11
424.422	1	11
424.593	1	15
424.763	1	26
424.934	1	25
425.104	1	25
425.275	1	18
425.445	1	10
425.616	1	11
425.787	1	13
425.957	1	15
426.128	1	23
426.298	1	29
426.469	1	10
426.640	1	17
426.810	1	18
426.981	1	29
427.151	1	15
427.322	1	27
427.493	1	27
427.663	1	22
427.834	1	9
428.004	1	18
428.175	1	19
428.345	1	11
428.516	1	19
428.687	1	15
428.857	1	10
429.028	1	23
429.198	1	13
429.369	1	23
429.540	1	16
429.710	1	10
429.881	1	22
430.051	1	23
430.222	1	9
430.392	1	9
430.563	1	25
430.734	1	31
430.904	1	21
431.075	1	24
431.245	1	16
431.416	1	23
431.586	1	8
431.757	1	14
431.927	1	19
432.098	1	18
432.269	1	9
432.439	1	24
432.610	1	20
432.780	1	23
432.951	1	8
433.121	1	19
433.292	1	23
433.462	1	25
433.633	1	19
433.804	1	12
433.974	1	19
434.145	1	33
434.315	1	5
434.486	1	15
434.656	1	20
434.827	1	10
434.997	1	11
435.168	1	13
435.339	1	26
435.509	1	4
435.680	1	21
435.850	1	15
436.021	1	21
436.191	1	10
436.362	1	24
436.532	1	15
436.703	1	8
436.873	1	18
437.044	1	15
437.214	1	23
437.385	1	27
437.556	1	10
437.726	1	31
437.897	1	33
438.067	1	9
438.238	1	17
438.408	1	26
438.579	1	20
438.749	1	18
438.920	1	3
439.090	1	18
439.261	1	17
439.431	1	10
439.602	1	14
439.772	1	16
439.943	1	30
440.113	1	27
440.284	1	18
440.455	1	10
440.625	1	20
440.796	1	13
440.966	1	13
441.137	1	14
441.307	1	16
441.478	1	25
441.648	1	29
441.819	1	17
441.989	1	20
442.160	1	25
442.330	1	19
442.501	1	19
442.671	1	8
442.842	1	2
443.012	1	11
443.183	1	22
443.353	1	5
443.524	1	18
443.694	1	21
443.865	1	17
444.035	1	17
444.206	1	15
444.376	1	10
444.547	1	24
444.717	1	24
444.888	1	6
445.058	1	15
445.229	1	8
445.399	1	11
445.570	1	19
445.740	1	17
445.911	1	-1
446.081	1	11
446.252	1	24
446.422	1	13
446.593	1	17
446.763	1	12
446.934	1	10
447.104	1	13
447.275	1	12
447.445	1	17
447.616	1	22
447.786	1	15
447.957	1	23
448.127	1	22
448.298	1	14
448.468	1	13
448.639	1	20
448.809	1	14
448.979	1	16
449.150	1	19
449.320	1	13
449.491	1	21
449.661	1	9
449.832	1	11
450.002	1	21
450.173	1	9
450.343	1	14
450.514	1	18
450.684	1	9
450.855	1	16
451.025	1	21
451.196	1	13
451.366	1	21
451.537	1	9
451.707	1	9
451.878	1	15
452.048	1	26
452.218	1	12
452.389	1	19
452.559	1	15
452.730	1	20
452.900	1	13
453.071	1	8
453.241	1	16
453.412	1	12
453.582	1	12
453.753	1	19
453.923	1	21
454.093	1	10
454.264	1	32
454.434	1	3
454.605	1	10
454.775	1	22
454.946	1	9
455.116	1	23
455.287	1	0
455.457	1	9
455.628	1	13
455.798	1	24
455.968	1	22
456.139	1	8
456.309	1	21
456.480	1	0
456.650	1	8
456.821	1	11
456.991	1	15
457.161	1	4
457.332	1	19
457.502	1	0
457.673	1	23
457.843	1	23
458.014	1	20
458.184	1	11
458.355	1	10
458.525	1	14
458.695	1	8
458.866	1	4
459.036	1	11
459.207	1	11
459.377	1	8
459.548	1	20
459.718	1	9
459.888	1	14
460.059	1	11
460.229	1	29
460.400	1	14
460.570	1	15
460.740	1	15
460.911	1	15
461.081	1	19
461.252	1	6
461.422	1	8
461.593	1	15
461.763	1	13
461.933	1	16
462.104	1	6
462.274	1	11
462.445	1	24
462.615	1	15
462.785	1	16
462.956	1	14
463.126	1	11
463.297	1	4
463.467	1	15
463.638	1	13
463.808	1	7
463.978	1	6
464.149	1	14
464.319	1	9
464.490	1	26
464.660	1	10
464.830	1	7
465.001	1	17
465.171	1	8
465.342	1	18
465.512	1	4
465.682	1	13
465.853	1	5
466.023	1	13
466.194	1	11
466.364	1	29
466.534	1	9
466.705	1	16
466.875	1	13
467.045	1	13
467.216	1	29
467.386	1	6
467.557	1	12
467.727	1	-2
467.897	1	11
468.068	1	8
468.238	1	10
468.409	1	13
468.579	1	12
468.749	1	9
468.920	1	9
469.090	1	12
469.260	1	5
469.431	1	3
469.601	1	8
469.772	1	7
469.942	1	4
470.112	1	21
470.283	1	14
470.453	1	8
470.623	1	12
470.794	1	6
470.964	1	20
471.135	1	13
471.305	1	-10
471.475	1	14
471.646	1	6
471.816	1	12
471.986	1	7
472.157	1	10
472.327	1	14
472.497	1	15
472.668	1	8
472.838	1	3
473.009	1	12
473.179	1	11
473.349	1	-2
473.520	1	10
473.690	1	15
473.860	1	15
474.031	1	4
474.201	1	7
474.371	1	21
474.542	1	9
474.712	1	9
474.882	1	22
475.053	1	15
475.223	1	4
475.394	1	13
475.564	1	7
475.734	1	9
475.905	1	19
476.075	1	12
476.245	1	22
476.416	1	18
476.586	1	9
476.756	1	16
476.927	1	14
477.097	1	13
477.267	1	2
477.438	1	6
477.608	1	10
477.778	1	11
477.949	1	10
478.119	1	22
478.289	1	22
478.460	1	20
478.630	1	18
478.800	1	2
478.971	1	8
479.141	1	-2
479.311	1	-2
479.482	1	14
479.652	1	1
479.822	1	10
479.993	1	12
480.163	1	10
480.333	1	14
480.504	1	13
480.674	1	7
480.844	1	1
481.015	1	15
481.185	1	15
481.355	1	15
481.525	1	7
481.696	1	11
481.866	1	9
482.036	1	9
482.207	1	11
482.377	1	7
482.547	1	17
482.718	1	9
482.888	1	19
483.058	1	5
483.229	1	-2
483.399	1	2
483.569	1	6
483.740	1	16
483.910	1	7
484.080	1	12
484.250	1	16
484.421	1	2
484.591	1	13
484.761	1	14
484.932	1	21
485.102	1	15
485.272	1	9
485.443	1	14
485.613	1	11
485.783	1	10
485.953	1	11
486.124	1	14
486.294	1	7
486.464	1	11
486.635	1	12
486.805	1	24
486.975	1	0
487.146	1	14
487.316	1	3
487.486	1	17
487.656	1	5
487.827	1	2
487.997	1	8
488.167	1	-1
488.338	1	19
488.508	1	1
488.678	1	14
488.848	1	16
489.019	1	7
489.189	1	10
489.359	1	2
489.529	1	8
489.700	1	12
489.870	1	19
490.040	1	-2
490.211	1	-7
490.381	1	16
490.551	1	0
490.721	1	15
490.892	1	7
491.062	1	6
491.232	1	4
491.402	1	6
491.573	1	-2
491.743	1	4
491.913	1	6
492.084	1	15
492.254	1	8
492.424	1	7
492.594	1	3
492.765	1	10
492.935	1	1
493.105	1	6
493.275	1	10
493.446	1	16
493.616	1	14
493.786	1	2
493.956	1	8
494.127	1	4
494.297	1	2
494.467	1	-5
494.637	1	2
494.808	1	6
494.978	1	-4
495.148	1	12
495.318	1	9
495.489	1	11
495.659	1	3
495.829	1	4
495.999	1	5
496.170	1	17
496.340	1	6
496.510	1	12
496.680	1	-2
496.851	1	12
497.021	1	2
497.191	1	-1
497.361	1	0
497.532	1	4
497.702	1	-3
497.872	1	1
498.042	1	4
498.213	1	6
498.383	1	0
498.553	1	10
498.723	1	0
498.894	1	10
499.064	1	5
499.234	1	15
499.404	1	15
499.574	1	13
499.745	1	12
499.915	1	3
500.085	1	16
500.255	1	10
500.426	1	6
500.596	1	13
500.766	1	11
500.936	1	7
501.106	1	7
501.277	1	14
501.447	1	11
501.617	1	0
501.787	1	3
501.958	1	0
502.128	1	-3
502.298	1	-5
502.468	1	13
502.638	1	15
502.809	1	6
502.979	1	-4
503.149	1	4
503.319	1	-5
503.489	1	2
503.660	1	9
503.830	1	4
504.000	1	12
504.170	1	9
504.340	1	3
504.511	1	19
504.681	1	-1
504.851	1	9
505.021	1	3
505.192	1	0
505.362	1	12
505.532	1	6
505.702	1	-4
505.872	1	12
506.043	1	11
506.213	1	2
506.383	1	7
506.553	1	12
506.723	1	4
506.893	1	6
507.064	1	13
507.234	1	8
507.404	1	11
507.574	1	5
507.744	1	12
507.915	1	12
508.085	1	8
508.255	1	15
508.425	1	-4
508.595	1	5
508.766	1	9
508.936	1	-2
509.106	1	10
509.276	1	18
509.446	1	6
509.616	1	9
509.787	1	8
509.957	1	-4
510.127	1	0
510.297	1	2
510.467	1	-2
510.638	1	12
510.808	1	-1
510.978	1	-7
511.148	1	3
511.318	1	8
511.488	1	-5
511.659	1	10
511.829	1	-5
511.999	1	5
512.169	1	-1
512.339	1	-1
512.509	1	-1
512.680	1	13
512.850	1	3
513.020	1	7
513.190	1	8
513.360	1	-1
513.530	1	-1
513.700	1	9
513.871	1	0
514.041	1	1
514.211	1	6
514.381	1	9
514.551	1	5
514.721	1	6
514.892	1	7
515.062	1	7
515.232	1	-2
515.402	1	-4
515.572	1	-2
515.742	1	2
515.912	1	18
516.083	1	7
516.253	1	12
516.423	1	2
516.593	1	5
516.763	1	18
516.933	1	5
517.104	1	3
517.274	1	4
517.444	1	8
517.614	1	-4
517.784	1	10
517.954	1	14
518.124	1	13
518.294	1	8
518.465	1	2
518.635	1	-2
518.805	1	-6
518.975	1	7
519.145	1	-5
519.315	1	1
519.485	1	3
519.656	1	8
519.826	1	9
519.996	1	-5
520.166	1	8
520.336	1	15
520.506	1	-3
520.676	1	-1
520.846	1	9
521.017	1	-1
521.187	1	3
521.357	1	15
521.527	1	8
521.697	1	2
521.867	1	5
522.037	1	16
522.207	1	8
522.377	1	0
522.548	1	5
522.718	1	17
522.888	1	10
523.058	1	1
523.228	1	8
523.398	1	13
523.568	1	18
523.738	1	1
523.909	1	5
524.079	1	2
524.249	1	9
524.419	1	3
524.589	1	1
524.759	1	-4
524.929	1	-4
525.099	1	8
525.269	1	4
525.439	1	4
525.610	1	23
525.780	1	7
525.950	1	1
526.120	1	1
526.290	1	6
526.460	1	-3
526.630	1	0
526.800	1	2
526.970	1	6
527.140	1	1
527.311	1	4
527.481	1	5
527.651	1	8
527.821	1	-6
527.991	1	20
528.161	1	9
528.331	1	4
528.501	1	2
528.671	1	6
528.841	1	8
529.011	1	-5
529.181	1	1
529.352	1	4
529.522	1	1
529.692	1	12
529.862	1	1
530.032	1	8
530.202	1	12
530.372	1	7
530.542	1	12
530.712	1	4
530.882	1	6
531.052	1	4
531.222	1	3
531.392	1	0
531.563	1	10
531.733	1	4
531.903	1	9
532.073	1	9
532.243	1	2
532.413	1	-2
532.583	1	0
532.753	1	7
532.923	1	-12
533.093	1	6
533.263	1	4
533.433	1	7
533.603	1	6
533.773	1	2
533.943	1	2
534.113	1	2
534.284	1	4
534.454	1	5
534.624	1	14
534.794	1	-1
534.964	1	12
535.134	1	-4
535.304	1	-1
535.474	1	14
535.644	1	2
535.814	1	-2
535.984	1	-5
536.154	1	-5
536.324	1	-1
536.494	1	13
536.664	1	9
536.834	1	7
537.004	1	-4
537.174	1	13
537.344	1	5
537.514	1	2
537.685	1	4
537.855	1	10
538.025	1	6
538.195	1	3
538.365	1	15
538.535	1	-3
538.705	1	-3
538.875	1	3
539.045	1	10
539.215	1	3
539.385	1	4
539.555	1	4
539.725	1	6
539.895	1	-6
540.065	1	16
540.235	1	14
540.405	1	0
540.575	1	8
540.745	1	-2
540.915	1	14
541.085	1	6
541.255	1	-3
541.425	1	14
541.595	1	-3
541.765	1	14
541.935	1	1
542.105	1	5
542.275	1	2
542.445	1	-10
542.615	1	4
542.785	1	13
542.955	1	-12
543.125	1	2
543.295	1	11
543.465	1	2
543.635	1	2
543.805	1	9
543.975	1	5
544.145	1	10
544.315	1	4
544.485	1	6
544.655	1	-1
544.825	1	-2
544.995	1	9
545.165	1	-10
545.335	1	8
545.505	1	-1
545.675	1	0
545.845	1	8
546.015	1	5
546.185	1	8
546.355	1	0
546.525	1	5
546.695	1	-2
546.865	1	2
547.035	1	5
547.205	1	-10
547.375	1	10
547.545	1	12
547.715	1	1
547.885	1	0
548.055	1	5
548.225	1	0
548.395	1	-2
548.565	1	-3
548.735	1	9
548.905	1	3
549.075	1	-7
549.245	1	1
549.415	1	-3
549.585	1	10
549.755	1	9
549.925	1	-4
550.095	1	-1
550.265	1	-5
550.435	1	-7
550.605	1	2
550.775	1	20
550.945	1	9
551.115	1	12
551.285	1	7
551.455	1	-3
551.625	1	12
551.795	1	6
551.965	1	6
552.135	1	7
552.305	1	2
552.475	1	-10
552.645	1	1
552.815	1	1
552.985	1	12
553.155	1	11
553.325	1	11
553.495	1	1
553.665	1	-10
553.835	1	6
554.004	1	4
554.174	1	6
554.344	1	1
554.514	1	0
554.684	1	7
554.854	1	8
555.024	1	-3
555.194	1	-12
555.364	1	3
555.534	1	6
555.704	1	-4
555.874	1	16
556.044	1	9
556.214	1	-1
556.384	1	-4
556.554	1	11
556.724	1	4
556.894	1	11
557.064	1	-1
557.234	1	4
557.404	1	17
557.573	1	8
557.743	1	-1
557.913	1	-5
558.083	1	0
558.253	1	9
558.423	1	-7
558.593	1	10
558.763	1	-6
558.933	1	-4
559.103	1	13
559.273	1	-5
559.443	1	5
559.613	1	6
559.783	1	-1
559.953	1	2
560.122	1	9
560.292	1	-2
560.462	1	9
560.632	1	10
560.802	1	-2
560.972	1	2
561.142	1	1
561.312	1	-9
561.482	1	4
561.652	1	5
561.822	1	-15
561.992	1	0
562.162	1	2
562.331	1	1
562.501	1	-9
562.671	1	11
562.841	1	4
563.011	1	4
563.181	1	5
563.351	1	-13
563.521	1	8
563.691	1	-2
563.861	1	3
564.031	1	3
564.201	1	15
564.370	1	-2
564.540	1	11
564.710	1	1
564.880	1	10
565.050	1	8
565.220	1	1
565.390	1	1
565.560	1	6
565.730	1	-9
565.900	1	9
566.069	1	20
566.239	1	2
566.409	1	8
566.579	1	4
566.749	1	10
566.919	1	3
567.089	1	12
567.259	1	5
567.429	1	-5
567.599	1	-4
567.768	1	7
567.938	1	2
568.108	1	10
568.278	1	3
568.448	1	-7
568.618	1	-1
568.788	1	12
568.958	1	6
569.128	1	15
569.297	1	-4
569.467	1	-5
569.637	1	5
569.807	1	7
569.977	1	12
570.147	1	9
570.317	1	-3
570.487	1	-6
570.656	1	10
570.826	1	-3
570.996	1	-6
571.166	1	11
571.336	1	-6
571.506	1	8
571.676	1	-3
571.846	1	1
572.015	1	4
572.185	1	-3
572.355	1	-7
572.525	1	2
572.695	1	3
572.865	1	2
573.035	1	3
573.205	1	-2
573.374	1	0
573.544	1	-1
573.714	1	7
573.884	1	20
574.054	1	3
574.224	1	2
574.394	1	-2
574.563	1	0
574.733	1	2
574.903	1	-6
575.073	1	7
575.243	1	4
575.413	1	-2
575.583	1	-3
575.752	1	8
575.922	1	3
576.092	1	4
576.262	1	3
576.432	1	11
576.602	1	0
576.772	1	13
576.941	1	3
577.111	1	-2
577.281	1	-8
577.451	1	2
577.621	1	9
577.791	1	1
577.960	1	-1
578.130	1	1
578.300	1	1
578.470	1	8
578.640	1	9
578.810	1	2
578.979	1	7
579.149	1	5
579.319	1	-1
579.489	1	-3
579.659	1	-1
579.829	1	-3
579.998	1	13
580.168	1	19
580.338	1	0
580.508	1	8
580.678	1	4
580.848	1	-8
581.017	1	7
581.187	1	0
581.357	1	-11
581.527	1	12
581.697	1	15
581.867	1	5
582.036	1	-4
582.206	1	-5
582.376	1	10
582.546	1	-12
582.716	1	-8
582.885	1	-3
583.055	1	-9
583.225	1	-8
583.395	1	9
583.565	1	-3
583.735	1	11
583.904	1	4
584.074	1	2
584.244	1	5
584.414	1	4
584.584	1	11
584.753	1	-9
584.923	1	5
585.093	1	-5
585.263	1	8
585.433	1	8
585.602	1	-3
585.772	1	-4
585.942	1	-2
586.112	1	16
586.282	1	4
586.451	1	-3
586.621	1	-2
586.791	1	-7
586.961	1	1
587.131	1	12
587.300	1	-10
587.470	1	12
587.640	1	12
587.810	1	-2
587.980	1	-3
588.149	1	-4
588.319	1	4
588.489	1	0
588.659	1	5
588.829	1	5
588.998	1	5
589.168	1	2
589.338	1	2
589.508	1	1
589.677	1	-1
589.847	1	4
590.017	1	14
590.187	1	-6
590.357	1	13
590.526	1	12
590.696	1	6
590.866	1	6
591.036	1	-5
591.205	1	11
591.375	1	-2
591.545	1	-10
591.715	1	12
591.885	1	2
592.054	1	3
592.224	1	1
592.394	1	1
592.564	1	2
592.733	1	2
592.903	1	8
593.073	1	2
593.243	1	7
593.412	1	8
593.582	1	1
593.752	1	2
593.922	1	5
594.091	1	6
594.261	1	-2
594.431	1	2
594.601	1	7
594.771	1	3
594.940	1	0
595.110	1	-8
595.280	1	2
595.450	1	-1
595.619	1	10
595.789	1	-3
595.959	1	11
596.129	1	-2
596.298	1	-7
596.468	1	-8
596.638	1	1
596.808	1	1
596.977	1	3
597.147	1	12
597.317	1	-2
597.487	1	20
597.656	1	1
597.826	1	6
597.996	1	1
598.166	1	7
598.335	1	-1
598.505	1	7
598.675	1	-8
598.844	1	5
599.014	1	-5
599.184	1	1
599.354	1	-4
599.523	1	0
599.693	1	-1
599.863	1	8
600.033	1	6
600.202	1	7
600.372	1	7
600.542	1	14
600.712	1	-4
600.881	1	-9
601.051	1	12
601.221	1	11
601.390	1	-1
601.560	1	7
601.730	1	10
601.900	1	2
602.069	1	13
602.239	1	-9
602.409	1	-8
602.578	1	0
602.748	1	-1
602.918	1	5
603.088	1	3
603.257	1	3
603.427	1	0
603.597	1	-1
603.767	1	6
603.936	1	6
604.106	1	2
604.276	1	-2
604.445	1	9
604.615	1	4
604.785	1	3
604.954	1	5
605.124	1	6
605.294	1	0
605.464	1	-3
605.633	1	1
605.803	1	11
605.973	1	-5
606.142	1	6
606.312	1	7
606.482	1	11
606.652	1	1
606.821	1	-3
606.991	1	1
607.161	1	-1
607.330	1	0
607.500	1	5
607.670	1	-8
607.839	1	8
608.009	1	17
608.179	1	10
608.348	1	9
608.518	1	-1
608.688	1	10
608.858	1	-3
609.027	1	-10
609.197	1	4
609.367	1	11
609.536	1	14
609.706	1	-1
609.876	1	5
610.045	1	7
610.215	1	1
610.385	1	-3
610.554	1	-5
610.724	1	8
610.894	1	9
611.063	1	3
611.233	1	3
611.403	1	5
611.572	1	0
611.742	1	6
611.912	1	2
612.081	1	4
612.251	1	6
612.421	1	1
612.590	1	-4
612.760	1	10
612.930	1	3
613.099	1	3
613.269	1	16
613.439	1	-5
613.608	1	-5
613.778	1	8
613.948	1	-3
614.117	1	6
614.287	1	6
614.457	1	10
614.626	1	3
614.796	1	12
614.966	1	8
615.135	1	-2
615.305	1	6
615.475	1	-1
615.644	1	0
615.814	1	4
615.984	1	2
616.153	1	4
616.323	1	3
616.493	1	0
616.662	1	12
616.832	1	5
617.002	1	2
617.171	1	-1
617.341	1	2
617.511	1	-8
617.680	1	0
617.850	1	5
618.019	1	12
618.189	1	13
618.359	1	10
618.528	1	7
618.698	1	5
618.868	1	-6
619.037	1	5
619.207	1	-4
619.377	1	-10
619.546	1	0
619.716	1	3
619.885	1	-2
620.055	1	-6
620.225	1	-5
620.394	1	6
620.564	1	12
620.734	1	5
620.903	1	3
621.073	1	6
621.242	1	6
621.412	1	-3
621.582	1	-3
621.751	1	10
621.921	1	4
622.091	1	0
622.260	1	-1
622.430	1	9
622.599	1	-1
622.769	1	3
622.939	1	9
623.108	1	6
623.278	1	-2
623.448	1	3
623.617	1	2
623.787	1	-1
623.956	1	9
624.126	1	-1
624.296	1	1
624.465	1	1
624.635	1	11
624.804	1	4
624.974	1	9
625.144	1	5
625.313	1	-3
625.483	1	1
625.652	1	2
625.822	1	6
625.992	1	8
626.161	1	3
626.331	1	8
626.501	1	-5
626.670	1	-2
626.840	1	-1
627.009	1	1
627.179	1	16
627.348	1	10
627.518	1	-3
627.688	1	11
627.857	1	8
628.027	1	-5
628.196	1	6
628.366	1	8
628.536	1	3
628.705	1	-3
628.875	1	5
629.044	1	8
629.214	1	10
629.384	1	8
629.553	1	11
629.723	1	1
629.892	1	4
630.062	1	10
630.232	1	-4
630.401	1	9
630.571	1	14
630.740	1	8
630.910	1	4
631.079	1	13
631.249	1	7
631.419	1	10
631.588	1	-5
631.758	1	1
631.927	1	-4
632.097	1	3
632.266	1	-8
632.436	1	7
632.606	1	9
632.775	1	4
632.945	1	14
633.114	1	1
633.284	1	10
633.453	1	0
633.623	1	2
633.793	1	1
633.962	1	5
634.132	1	6
634.301	1	5
634.471	1	8
634.640	1	3
634.810	1	1
634.979	1	3
635.149	1	8
635.319	1	5
635.488	1	9
635.658	1	-4
635.827	1	-6
635.997	1	-2
636.166	1	4
636.336	1	0
636.505	1	16
636.675	1	-6
636.845	1	5
637.014	1	3
637.184	1	-2
637.353	1	11
637.523	1	7
637.692	1	8
637.862	1	5
638.031	1	2
638.201	1	7
638.370	1	0
638.540	1	9
638.710	1	2
638.879	1	-6
639.049	1	1
639.218	1	4
639.388	1	-1
639.557	1	-6
639.727	1	5
639.896	1	8
640.066	1	-2
640.235	1	9
640.405	1	2
640.574	1	0
640.744	1	-3
640.914	1	-4
641.083	1	-3
641.253	1	-4
641.422	1	-3
641.592	1	11
641.761	1	12
641.931	1	-7
642.100	1	14
642.270	1	4
642.439	1	4
642.609	1	12
642.778	1	11
642.948	1	5
643.117	1	7
643.287	1	6
643.456	1	-3
643.626	1	6
643.795	1	-2
643.965	1	14
644.134	1	1
644.304	1	2
644.473	1	6
644.643	1	10
644.812	1	10
644.982	1	9
645.151	1	3
645.321	1	-12
645.490	1	20
645.660	1	0
645.829	1	1
645.999	1	-4
646.168	1	10
646.338	1	5
646.507	1	18
646.677	1	3
646.846	1	-2
647.016	1	-5
647.185	1	11
647.355	1	-9
647.524	1	7
647.694	1	16
647.863	1	5
648.033	1	7
648.202	1	4
648.372	1	-4
648.541	1	-6
648.711	1	0
648.880	1	4
649.050	1	-5
649.219	1	6
649.389	1	13
649.558	1	4
649.728	1	11
649.897	1	-5
650.067	1	7
650.236	1	3
650.406	1	13
650.575	1	6
650.745	1	4
650.914	1	6
651.084	1	-3
651.253	1	7
651.423	1	13
651.592	1	1
651.762	1	6
651.931	1	9
652.101	1	1
652.270	1	9
652.440	1	15
652.609	1	-2
652.778	1	-1
652.948	1	5
653.117	1	8
653.287	1	4
653.456	1	13
653.626	1	3
653.795	1	5
653.965	1	5
654.134	1	15
654.304	1	-7
654.473	1	13
654.643	1	4
654.812	1	6
654.982	1	6
655.151	1	3
655.320	1	5
655.490	1	5
655.659	1	0
655.829	1	6
655.998	1	1
656.168	1	7
656.337	1	10
656.507	1	7
656.676	1	8
656.846	1	14
657.015	1	15
657.184	1	16
657.354	1	5
657.523	1	6
657.693	1	3
657.862	1	9
658.032	1	2
658.201	1	6
658.371	1	13
658.540	1	4
658.709	1	-3
658.879	1	4
659.048	1	-3
659.218	1	3
659.387	1	1
659.557	1	2
659.726	1	2
659.895	1	-3
660.065	1	-2
660.234	1	4
660.404	1	10
660.573	1	-5
660.743	1	5
660.912	1	7
661.081	1	7
661.251	1	8
661.420	1	13
661.590	1	3
661.759	1	3
661.929	1	7
662.098	1	15
662.267	1	0
662.437	1	-1
662.606	1	9
662.776	1	-5
662.945	1	9
663.115	1	14
663.284	1	-4
663.453	1	12
663.623	1	0
663.792	1	7
663.962	1	1
664.131	1	6
664.300	1	6
664.470	1	0
664.639	1	0
664.809	1	-2
664.978	1	-2
665.148	1	5
665.317	1	-8
665.486	1	8
665.656	1	3
665.825	1	13
665.995	1	-4
666.164	1	2
666.333	1	6
666.503	1	6
666.672	1	-2
666.842	1	12
667.011	1	4
667.180	1	9
667.350	1	4
667.519	1	10
667.689	1	6
667.858	1	1
668.027	1	10
668.197	1	-1
668.366	1	-3
668.536	1	9
668.705	1	8
668.874	1	11
669.044	1	3
669.213	1	11
669.382	1	0
669.552	1	10
669.721	1	14
669.891	1	12
670.060	1	13
670.229	1	18
670.399	1	-1
670.568	1	13
670.738	1	12
670.907	1	-3
671.076	1	-3
671.246	1	1
671.415	1	3
671.584	1	-1
671.754	1	5
671.923	1	1
672.093	1	4
672.262	1	-4
672.431	1	5
672.601	1	3
672.770	1	-1
672.939	1	15
673.109	1	5
673.278	1	9
673.448	1	5
673.617	1	3
673.786	1	12
