325.333	1	18
325.504	1	11
325.675	1	27
325.846	1	12
326.017	1	22
326.188	1	13
326.359	1	14
326.531	1	7
326.702	1	10
326.873	1	24
327.044	1	8
327.215	1	10
327.386	1	16
327.557	1	17
327.728	1	19
327.899	1	25
328.070	1	28
328.241	1	27
328.412	1	18
328.583	1	23
328.754	1	17
328.926	1	31
329.097	1	5
329.268	1	29
329.439	1	27
329.610	1	26
329.781	1	13
329.952	1	27
330.123	1	19
330.294	1	20
330.465	1	22
330.636	1	28
330.807	1	14
330.978	1	20
331.149	1	19
331.320	1	15
331.492	1	19
331.663	1	21
331.834	1	27
332.005	1	26
332.176	1	30
332.347	1	35
332.518	1	16
332.689	1	32
332.860	1	25
333.031	1	24
333.202	1	31
333.373	1	30
333.544	1	24
333.715	1	38
333.886	1	28
334.057	1	22
334.228	1	18
334.399	1	26
334.570	1	34
334.741	1	18
334.912	1	30
335.084	1	46
335.255	1	28
335.426	1	28
335.597	1	28
335.768	1	22
335.939	1	31
336.110	1	25
336.281	1	25
336.452	1	30
336.623	1	25
336.794	1	35
336.965	1	31
337.136	1	39
337.307	1	22
337.478	1	23
337.649	1	36
337.820	1	33
337.991	1	29
338.162	1	32
338.333	1	30
338.504	1	45
338.675	1	41
338.846	1	33
339.017	1	26
339.188	1	36
339.359	1	28
339.530	1	31
339.701	1	39
339.872	1	50
340.043	1	32
340.214	1	31
340.385	1	44
340.556	1	26
340.727	1	42
340.898	1	37
341.069	1	41
341.240	1	38
341.411	1	46
341.582	1	35
341.753	1	31
341.924	1	36
342.095	1	49
342.266	1	42
342.437	1	39
342.608	1	37
342.779	1	31
342.950	1	49
343.121	1	59
343.292	1	31
343.463	1	38
343.634	1	36
343.805	1	59
343.976	1	45
344.147	1	40
344.318	1	40
344.489	1	46
344.660	1	60
344.831	1	44
345.002	1	35
345.173	1	43
345.344	1	38
345.515	1	36
345.686	1	39
345.857	1	45
346.028	1	53
346.199	1	54
346.370	1	41
346.541	1	50
346.712	1	35
346.883	1	50
347.054	1	47
347.225	1	56
347.396	1	45
347.567	1	43
347.738	1	43
347.909	1	60
348.080	1	53
348.251	1	54
348.422	1	51
348.593	1	45
348.764	1	46
348.935	1	55
349.106	1	45
349.277	1	46
349.448	1	52
349.619	1	58
349.790	1	50
349.961	1	56
350.132	1	55
350.303	1	50
350.474	1	61
350.645	1	62
350.816	1	52
350.987	1	64
351.157	1	50
351.328	1	66
351.499	1	65
351.670	1	51
351.841	1	70
352.012	1	63
352.183	1	72
352.354	1	68
352.525	1	55
352.696	1	64
352.867	1	60
353.038	1	64
353.209	1	62
353.380	1	59
353.551	1	59
353.722	1	63
353.893	1	51
354.064	1	79
354.235	1	68
354.406	1	64
354.576	1	60
354.747	1	59
354.918	1	63
355.089	1	61
355.260	1	53
355.431	1	76
355.602	1	54
355.773	1	69
355.944	1	72
356.115	1	56
356.286	1	70
356.457	1	69
356.628	1	56
356.799	1	67
356.970	1	68
357.141	1	64
357.311	1	64
357.482	1	59
357.653	1	69
357.824	1	78
357.995	1	64
358.166	1	66
358.337	1	64
358.508	1	80
358.679	1	68
358.850	1	55
359.021	1	64
359.192	1	78
359.363	1	58
359.533	1	78
359.704	1	76
359.875	1	73
360.046	1	62
360.217	1	58
360.388	1	75
360.559	1	77
360.730	1	80
360.901	1	71
361.072	1	93
361.243	1	73
361.414	1	67
361.584	1	64
361.755	1	78
361.926	1	68
362.097	1	71
362.268	1	74
362.439	1	64
362.610	1	83
362.781	1	67
362.952	1	79
363.123	1	72
363.293	1	74
363.464	1	68
363.635	1	65
363.806	1	75
363.977	1	71
364.148	1	64
364.319	1	76
364.490	1	69
364.661	1	74
364.832	1	73
365.002	1	78
365.173	1	76
365.344	1	72
365.515	1	65
365.686	1	66
365.857	1	73
366.028	1	84
366.199	1	60
366.370	1	81
366.540	1	59
366.711	1	57
366.882	1	86
367.053	1	63
367.224	1	88
367.395	1	68
367.566	1	88
367.737	1	85
367.908	1	77
368.078	1	80
368.249	1	83
368.420	1	72
368.591	1	74
368.762	1	81
368.933	1	73
369.104	1	67
369.274	1	83
369.445	1	74
369.616	1	67
369.787	1	77
369.958	1	84
370.129	1	66
370.300	1	96
370.471	1	80
370.641	1	74
370.812	1	72
370.983	1	83
371.154	1	73
371.325	1	87
371.496	1	69
371.667	1	79
371.837	1	79
372.008	1	84
372.179	1	76
372.350	1	84
372.521	1	81
372.692	1	76
372.863	1	87
373.033	1	57
373.204	1	71
373.375	1	78
373.546	1	79
373.717	1	79
373.888	1	95
374.059	1	83
374.229	1	90
374.400	1	71
374.571	1	76
374.742	1	96
374.913	1	87
375.084	1	85
375.254	1	85
375.425	1	86
375.596	1	93
375.767	1	88
375.938	1	88
376.109	1	80
376.279	1	86
376.450	1	90
376.621	1	83
376.792	1	81
376.963	1	69
377.134	1	92
377.304	1	81
377.475	1	83
377.646	1	82
377.817	1	81
377.988	1	90
378.159	1	88
378.329	1	101
378.500	1	79
378.671	1	87
378.842	1	89
379.013	1	84
379.184	1	87
379.354	1	103
379.525	1	81
379.696	1	82
379.867	1	102
380.038	1	90
380.209	1	103
380.379	1	89
380.550	1	79
380.721	1	90
380.892	1	85
381.063	1	93
381.233	1	104
381.404	1	90
381.575	1	103
381.746	1	102
381.917	1	93
382.087	1	97
382.258	1	90
382.429	1	99
382.600	1	106
382.771	1	96
382.941	1	90
383.112	1	102
383.283	1	107
383.454	1	89
383.625	1	97
383.795	1	97
383.966	1	94
384.137	1	108
384.308	1	104
384.479	1	104
384.649	1	98
384.820	1	109
384.991	1	95
385.162	1	114
385.333	1	87
385.503	1	101
385.674	1	92
385.845	1	112
386.016	1	99
386.187	1	103
386.357	1	101
386.528	1	116
386.699	1	98
386.870	1	116
387.041	1	105
387.211	1	107
387.382	1	118
387.553	1	99
387.724	1	99
387.894	1	109
388.065	1	99
388.236	1	112
388.407	1	96
388.578	1	108
388.748	1	97
388.919	1	126
389.090	1	109
389.261	1	100
389.431	1	116
389.602	1	111
389.773	1	116
389.944	1	110
390.114	1	116
390.285	1	110
390.456	1	109
390.627	1	106
390.798	1	118
390.968	1	106
391.139	1	117
391.310	1	106
391.481	1	103
391.651	1	113
391.822	1	105
391.993	1	104
392.164	1	94
392.334	1	112
392.505	1	107
392.676	1	114
392.847	1	126
393.017	1	120
393.188	1	106
393.359	1	101
393.530	1	106
393.700	1	111
393.871	1	107
394.042	1	115
394.213	1	116
394.383	1	120
394.554	1	120
394.725	1	118
394.896	1	108
395.066	1	117
395.237	1	105
395.408	1	114
395.579	1	108
395.749	1	119
395.920	1	109
396.091	1	128
396.262	1	117
396.432	1	116
396.603	1	116
396.774	1	127
396.945	1	117
397.115	1	121
397.286	1	119
397.457	1	122
397.627	1	119
397.798	1	117
397.969	1	118
398.140	1	116
398.310	1	129
398.481	1	124
398.652	1	105
398.823	1	109
398.993	1	109
399.164	1	121
399.335	1	128
399.505	1	131
399.676	1	117
399.847	1	122
400.018	1	106
400.188	1	120
400.359	1	126
400.530	1	102
400.700	1	121
400.871	1	109
401.042	1	115
401.213	1	119
401.383	1	124
401.554	1	122
401.725	1	112
401.895	1	117
402.066	1	115
402.237	1	119
402.408	1	127
402.578	1	116
402.749	1	121
402.920	1	127
403.090	1	108
403.261	1	111
403.432	1	117
403.603	1	121
403.773	1	122
403.944	1	125
404.115	1	119
404.285	1	129
404.456	1	115
404.627	1	122
404.797	1	106
404.968	1	126
405.139	1	114
405.310	1	132
405.480	1	125
405.651	1	124
405.822	1	111
405.992	1	115
406.163	1	121
406.334	1	111
406.504	1	115
406.675	1	128
406.846	1	124
407.016	1	131
407.187	1	119
407.358	1	110
407.528	1	114
407.699	1	120
407.870	1	114
408.041	1	128
408.211	1	130
408.382	1	115
408.553	1	115
408.723	1	125
408.894	1	133
409.065	1	129
409.235	1	120
409.406	1	121
409.577	1	109
409.747	1	125
409.918	1	113
410.089	1	132
410.259	1	124
410.430	1	117
410.601	1	130
410.771	1	124
410.942	1	128
411.113	1	132
411.283	1	127
411.454	1	132
411.625	1	126
411.795	1	132
411.966	1	137
412.137	1	123
412.307	1	114
412.478	1	122
412.649	1	122
412.819	1	115
412.990	1	111
413.161	1	114
413.331	1	108
413.502	1	129
413.672	1	117
413.843	1	120
414.014	1	123
414.184	1	127
414.355	1	116
414.526	1	114
414.696	1	128
414.867	1	120
415.038	1	110
415.208	1	115
415.379	1	134
415.550	1	126
415.720	1	110
415.891	1	112
416.062	1	118
416.232	1	111
416.403	1	117
416.573	1	133
416.744	1	116
416.915	1	114
417.085	1	123
417.256	1	124
417.427	1	124
417.597	1	124
417.768	1	114
417.939	1	119
418.109	1	114
418.280	1	121
418.450	1	111
418.621	1	104
418.792	1	114
418.962	1	120
419.133	1	131
419.304	1	110
419.474	1	120
419.645	1	117
419.815	1	103
419.986	1	126
420.157	1	125
420.327	1	121
420.498	1	127
420.669	1	122
420.839	1	113
421.010	1	114
421.180	1	107
421.351	1	104
421.522	1	115
421.692	1	117
421.863	1	124
422.033	1	126
422.204	1	123
422.375	1	109
422.545	1	126
422.716	1	114
422.886	1	118
423.057	1	119
423.228	1	114
423.398	1	108
423.569	1	127
423.740	1	104
423.910	1	120
424.081	1	106
424.251	1	113
424.422	1	110
424.593	1	102
424.763	1	109
424.934	1	109
425.104	1	114
425.275	1	109
425.445	1	105
425.616	1	108
425.787	1	97
425.957	1	106
426.128	1	109
426.298	1	114
426.469	1	98
426.640	1	112
426.810	1	105
426.981	1	116
427.151	1	97
427.322	1	120
427.493	1	105
427.663	1	106
427.834	1	101
428.004	1	104
428.175	1	119
428.345	1	98
428.516	1	105
428.687	1	115
428.857	1	104
429.028	1	100
429.198	1	114
429.369	1	114
429.540	1	102
429.710	1	102
429.881	1	108
430.051	1	105
430.222	1	110
430.392	1	101
430.563	1	127
430.734	1	115
430.904	1	109
431.075	1	114
431.245	1	98
431.416	1	116
431.586	1	96
431.757	1	108
431.927	1	127
432.098	1	113
432.269	1	104
432.439	1	107
432.610	1	104
432.780	1	112
432.951	1	113
433.121	1	106
433.292	1	102
433.462	1	115
433.633	1	98
433.804	1	106
433.974	1	105
434.145	1	125
434.315	1	100
434.486	1	95
434.656	1	108
434.827	1	104
434.997	1	95
435.168	1	103
435.339	1	108
435.509	1	112
435.680	1	107
435.850	1	103
436.021	1	99
436.191	1	95
436.362	1	101
436.532	1	105
436.703	1	93
436.873	1	89
437.044	1	99
437.214	1	99
437.385	1	92
437.556	1	100
437.726	1	111
437.897	1	114
438.067	1	93
438.238	1	91
438.408	1	101
438.579	1	111
438.749	1	99
438.920	1	94
439.090	1	101
439.261	1	83
439.431	1	105
439.602	1	96
439.772	1	90
439.943	1	102
440.113	1	100
440.284	1	92
440.455	1	91
440.625	1	104
440.796	1	108
440.966	1	78
441.137	1	85
441.307	1	90
441.478	1	95
441.648	1	89
441.819	1	94
441.989	1	96
442.160	1	112
442.330	1	84
442.501	1	103
442.671	1	82
442.842	1	83
443.012	1	87
443.183	1	97
443.353	1	88
443.524	1	98
443.694	1	95
443.865	1	102
444.035	1	99
444.206	1	98
444.376	1	76
444.547	1	102
444.717	1	82
444.888	1	78
445.058	1	96
445.229	1	85
445.399	1	86
445.570	1	94
445.740	1	83
445.911	1	89
446.081	1	84
446.252	1	90
446.422	1	81
446.593	1	88
446.763	1	89
446.934	1	71
447.104	1	90
447.275	1	106
447.445	1	85
447.616	1	90
447.786	1	93
447.957	1	95
448.127	1	90
448.298	1	88
448.468	1	86
448.639	1	84
448.809	1	84
448.979	1	81
449.150	1	88
449.320	1	80
449.491	1	91
449.661	1	71
449.832	1	88
450.002	1	95
450.173	1	87
450.343	1	88
450.514	1	88
450.684	1	81
450.855	1	89
451.025	1	73
451.196	1	77
451.366	1	80
451.537	1	81
451.707	1	72
451.878	1	81
452.048	1	99
452.218	1	86
452.389	1	88
452.559	1	80
452.730	1	85
452.900	1	83
453.071	1	76
453.241	1	76
453.412	1	74
453.582	1	79
453.753	1	85
453.923	1	80
454.093	1	83
454.264	1	89
454.434	1	70
454.605	1	87
454.775	1	81
454.946	1	72
455.116	1	81
455.287	1	62
455.457	1	66
455.628	1	77
455.798	1	81
455.968	1	78
456.139	1	71
456.309	1	75
456.480	1	65
456.650	1	69
456.821	1	59
456.991	1	76
457.161	1	66
457.332	1	83
457.502	1	67
457.673	1	76
457.843	1	88
458.014	1	70
458.184	1	78
458.355	1	70
458.525	1	68
458.695	1	83
458.866	1	69
459.036	1	69
459.207	1	72
459.377	1	66
459.548	1	75
459.718	1	59
459.888	1	74
460.059	1	75
460.229	1	81
460.400	1	68
460.570	1	78
460.740	1	77
460.911	1	71
461.081	1	66
461.252	1	69
461.422	1	66
461.593	1	77
461.763	1	56
461.933	1	75
462.104	1	62
462.274	1	73
462.445	1	78
462.615	1	66
462.785	1	64
462.956	1	72
463.126	1	72
463.297	1	62
463.467	1	66
463.638	1	75
463.808	1	68
463.978	1	65
464.149	1	61
464.319	1	65
464.490	1	74
464.660	1	64
464.830	1	63
465.001	1	58
465.171	1	61
465.342	1	68
465.512	1	59
465.682	1	55
465.853	1	69
466.023	1	63
466.194	1	66
466.364	1	72
466.534	1	69
466.705	1	60
466.875	1	63
467.045	1	54
467.216	1	71
467.386	1	66
467.557	1	58
467.727	1	56
467.897	1	52
468.068	1	60
468.238	1	62
468.409	1	63
468.579	1	67
468.749	1	69
468.920	1	54
469.090	1	65
469.260	1	54
469.431	1	54
469.601	1	72
469.772	1	55
469.942	1	57
470.112	1	70
470.283	1	52
470.453	1	58
470.623	1	56
470.794	1	43
470.964	1	59
471.135	1	62
471.305	1	53
471.475	1	54
471.646	1	51
471.816	1	48
471.986	1	56
472.157	1	69
472.327	1	50
472.497	1	55
472.668	1	54
472.838	1	51
473.009	1	51
473.179	1	47
473.349	1	46
473.520	1	63
473.690	1	55
473.860	1	52
474.031	1	55
474.201	1	54
474.371	1	65
474.542	1	61
474.712	1	58
474.882	1	53
475.053	1	68
475.223	1	57
475.394	1	50
475.564	1	49
475.734	1	56
475.905	1	64
476.075	1	57
476.245	1	64
476.416	1	61
476.586	1	75
476.756	1	52
476.927	1	49
477.097	1	55
477.267	1	56
477.438	1	57
477.608	1	47
477.778	1	50
477.949	1	64
478.119	1	62
478.289	1	69
478.460	1	65
478.630	1	49
478.800	1	47
478.971	1	50
479.141	1	47
479.311	1	38
479.482	1	70
479.652	1	53
479.822	1	54
479.993	1	58
480.163	1	52
480.333	1	53
480.504	1	54
480.674	1	51
480.844	1	50
481.015	1	55
481.185	1	49
481.355	1	49
481.525	1	47
481.696	1	63
481.866	1	50
482.036	1	53
482.207	1	48
482.377	1	56
482.547	1	49
482.718	1	48
482.888	1	52
483.058	1	42
483.229	1	48
483.399	1	55
483.569	1	44
483.740	1	49
483.910	1	51
484.080	1	42
484.250	1	43
484.421	1	45
484.591	1	50
484.761	1	52
484.932	1	50
485.102	1	53
485.272	1	36
485.443	1	52
485.613	1	44
485.783	1	47
485.953	1	49
486.124	1	54
486.294	1	52
486.464	1	51
486.635	1	42
486.805	1	55
486.975	1	32
487.146	1	54
487.316	1	40
487.486	1	47
487.656	1	45
487.827	1	46
487.997	1	30
488.167	1	40
488.338	1	47
488.508	1	38
488.678	1	39
488.848	1	56
489.019	1	47
489.189	1	43
489.359	1	40
489.529	1	42
489.700	1	29
489.870	1	61
490.040	1	37
490.211	1	41
490.381	1	38
490.551	1	45
490.721	1	54
490.892	1	47
491.062	1	39
491.232	1	40
491.402	1	39
491.573	1	38
491.743	1	33
491.913	1	36
492.084	1	40
492.254	1	37
492.424	1	35
492.594	1	47
492.765	1	44
492.935	1	35
493.105	1	39
493.275	1	39
493.446	1	46
493.616	1	41
493.786	1	38
493.956	1	34
494.127	1	45
494.297	1	29
494.467	1	39
494.637	1	39
494.808	1	38
494.978	1	27
495.148	1	34
495.318	1	39
495.489	1	44
495.659	1	45
495.829	1	33
495.999	1	36
496.170	1	51
496.340	1	43
496.510	1	40
496.680	1	41
496.851	1	35
497.021	1	39
497.191	1	38
497.361	1	28
497.532	1	28
497.702	1	33
497.872	1	18
498.042	1	38
498.213	1	37
498.383	1	41
498.553	1	29
498.723	1	35
498.894	1	30
499.064	1	30
499.234	1	44
499.404	1	45
499.574	1	43
499.745	1	45
499.915	1	32
500.085	1	38
500.255	1	37
500.426	1	28
500.596	1	47
500.766	1	37
500.936	1	27
501.106	1	20
501.277	1	31
501.447	1	27
501.617	1	28
501.787	1	25
501.958	1	28
502.128	1	26
502.298	1	35
502.468	1	36
502.638	1	29
502.809	1	37
502.979	1	29
503.149	1	18
503.319	1	27
503.489	1	32
503.660	1	33
503.830	1	36
504.000	1	36
504.170	1	30
504.340	1	28
504.511	1	42
504.681	1	26
504.851	1	36
505.021	1	46
505.192	1	23
505.362	1	31
505.532	1	33
505.702	1	25
505.872	1	30
506.043	1	33
506.213	1	24
506.383	1	25
506.553	1	46
506.723	1	25
506.893	1	30
507.064	1	34
507.234	1	27
507.404	1	24
507.574	1	30
507.744	1	35
507.915	1	26
508.085	1	30
508.255	1	31
508.425	1	24
508.595	1	33
508.766	1	35
508.936	1	15
509.106	1	34
509.276	1	40
509.446	1	14
509.616	1	13
509.787	1	33
509.957	1	33
510.127	1	26
510.297	1	31
510.467	1	26
510.638	1	30
510.808	1	24
510.978	1	18
511.148	1	20
511.318	1	29
511.488	1	15
511.659	1	30
511.829	1	20
511.999	1	16
512.169	1	19
512.339	1	19
512.509	1	38
512.680	1	18
512.850	1	23
513.020	1	23
513.190	1	24
513.360	1	19
513.530	1	25
513.700	1	24
513.871	1	28
514.041	1	23
514.211	1	30
514.381	1	34
514.551	1	20
514.721	1	14
514.892	1	29
515.062	1	26
515.232	1	26
515.402	1	22
515.572	1	19
515.742	1	20
515.912	1	28
516.083	1	26
516.253	1	30
516.423	1	20
516.593	1	27
516.763	1	28
516.933	1	25
517.104	1	21
517.274	1	18
517.444	1	25
517.614	1	6
517.784	1	11
517.954	1	28
518.124	1	21
518.294	1	13
518.465	1	21
518.635	1	17
518.805	1	12
518.975	1	19
519.145	1	21
519.315	1	31
519.485	1	12
519.656	1	30
519.826	1	29
519.996	1	12
520.166	1	16
520.336	1	23
520.506	1	15
520.676	1	18
520.846	1	32
521.017	1	19
521.187	1	17
521.357	1	33
521.527	1	19
521.697	1	20
521.867	1	15
522.037	1	28
522.207	1	28
522.377	1	28
522.548	1	18
522.718	1	17
522.888	1	29
523.058	1	9
523.228	1	23
523.398	1	24
523.568	1	24
523.738	1	19
523.909	1	28
524.079	1	16
524.249	1	17
524.419	1	26
524.589	1	22
524.759	1	10
524.929	1	12
525.099	1	15
525.269	1	30
525.439	1	24
525.610	1	21
525.780	1	18
525.950	1	21
526.120	1	16
526.290	1	24
526.460	1	12
526.630	1	10
526.800	1	14
526.970	1	17
527.140	1	21
527.311	1	9
527.481	1	10
527.651	1	32
527.821	1	6
527.991	1	27
528.161	1	22
528.331	1	22
528.501	1	15
528.671	1	17
528.841	1	15
529.011	1	10
529.181	1	22
529.352	1	17
529.522	1	5
529.692	1	30
529.862	1	13
530.032	1	16
530.202	1	17
530.372	1	16
530.542	1	22
530.712	1	32
530.882	1	32
531.052	1	14
531.222	1	21
531.392	1	21
531.563	1	14
531.733	1	15
531.903	1	17
532.073	1	17
532.243	1	16
532.413	1	24
532.583	1	14
532.753	1	19
532.923	1	8
533.093	1	12
533.263	1	5
533.433	1	24
533.603	1	21
533.773	1	15
533.943	1	6
534.113	1	20
534.284	1	16
534.454	1	24
534.624	1	23
534.794	1	8
534.964	1	19
535.134	1	13
535.304	1	10
535.474	1	27
535.644	1	17
535.814	1	7
535.984	1	6
536.154	1	4
536.324	1	16
536.494	1	15
536.664	1	13
536.834	1	22
537.004	1	12
537.174	1	15
537.344	1	15
537.514	1	3
537.685	1	8
537.855	1	23
538.025	1	22
538.195	1	6
538.365	1	20
538.535	1	21
538.705	1	13
538.875	1	19
539.045	1	19
539.215	1	26
539.385	1	22
539.555	1	18
539.725	1	14
539.895	1	6
540.065	1	21
540.235	1	18
540.405	1	10
540.575	1	9
540.745	1	6
540.915	1	24
541.085	1	21
541.255	1	6
541.425	1	20
541.595	1	16
541.765	1	12
541.935	1	8
542.105	1	8
542.275	1	14
542.445	1	8
542.615	1	22
542.785	1	11
542.955	1	14
543.125	1	3
543.295	1	15
543.465	1	13
543.635	1	10
543.805	1	26
543.975	1	9
544.145	1	22
544.315	1	19
544.485	1	20
544.655	1	13
544.825	1	0
544.995	1	17
545.165	1	3
545.335	1	14
545.505	1	13
545.675	1	13
545.845	1	26
546.015	1	26
546.185	1	23
546.355	1	16
546.525	1	21
546.695	1	12
546.865	1	6
547.035	1	15
547.205	1	2
547.375	1	14
547.545	1	12
547.715	1	6
547.885	1	12
548.055	1	12
548.225	1	16
548.395	1	4
548.565	1	7
548.735	1	10
548.905	1	8
549.075	1	19
549.245	1	-1
549.415	1	6
549.585	1	14
549.755	1	9
549.925	1	-1
550.095	1	8
550.265	1	13
550.435	1	4
550.605	1	10
550.775	1	10
550.945	1	17
551.115	1	11
551.285	1	16
551.455	1	-2
551.625	1	18
551.795	1	21
551.965	1	9
552.135	1	8
552.305	1	10
552.475	1	6
552.645	1	9
552.815	1	5
552.985	1	16
553.155	1	6
553.325	1	14
553.495	1	9
553.665	1	9
553.835	1	9
554.004	1	11
554.174	1	7
554.344	1	9
554.514	1	8
554.684	1	19
554.854	1	21
555.024	1	5
555.194	1	1
555.364	1	10
555.534	1	11
555.704	1	4
555.874	1	24
556.044	1	12
556.214	1	9
556.384	1	9
556.554	1	19
556.724	1	8
556.894	1	13
557.064	1	13
557.234	1	12
557.404	1	17
557.573	1	9
557.743	1	12
557.913	1	-1
558.083	1	8
558.253	1	15
558.423	1	3
558.593	1	18
558.763	1	6
558.933	1	17
559.103	1	14
559.273	1	10
559.443	1	11
559.613	1	17
559.783	1	13
559.953	1	10
560.122	1	17
560.292	1	11
560.462	1	6
560.632	1	12
560.802	1	9
560.972	1	10
561.142	1	16
561.312	1	4
561.482	1	13
561.652	1	17
561.822	1	11
561.992	1	15
562.162	1	-1
562.331	1	8
562.501	1	-3
562.671	1	20
562.841	1	7
563.011	1	11
563.181	1	9
563.351	1	10
563.521	1	11
563.691	1	2
563.861	1	8
564.031	1	13
564.201	1	24
564.370	1	4
564.540	1	9
564.710	1	15
564.880	1	11
565.050	1	8
565.220	1	-1
565.390	1	6
565.560	1	11
565.730	1	0
565.900	1	12
566.069	1	21
566.239	1	16
566.409	1	5
566.579	1	19
566.749	1	1
566.919	1	15
567.089	1	18
567.259	1	11
567.429	1	10
567.599	1	7
567.768	1	1
567.938	1	4
568.108	1	15
568.278	1	13
568.448	1	5
568.618	1	6
568.788	1	13
568.958	1	9
569.128	1	15
569.297	1	7
569.467	1	6
569.637	1	15
569.807	1	4
569.977	1	22
570.147	1	12
570.317	1	6
570.487	1	7
570.656	1	11
570.826	1	4
570.996	1	4
571.166	1	13
571.336	1	13
571.506	1	11
571.676	1	13
571.846	1	18
572.015	1	9
572.185	1	6
572.355	1	5
572.525	1	6
572.695	1	7
572.865	1	5
573.035	1	1
573.205	1	8
573.374	1	2
573.544	1	5
573.714	1	25
573.884	1	7
574.054	1	17
574.224	1	5
574.394	1	4
574.563	1	4
574.733	1	5
574.903	1	2
575.073	1	8
575.243	1	4
575.413	1	5
575.583	1	2
575.752	1	10
575.922	1	11
576.092	1	9
576.262	1	3
576.432	1	4
576.602	1	3
576.772	1	21
576.941	1	6
577.111	1	1
577.281	1	1
577.451	1	1
577.621	1	15
577.791	1	18
577.960	1	2
578.130	1	14
578.300	1	10
578.470	1	22
578.640	1	16
578.810	1	8
578.979	1	14
579.149	1	7
579.319	1	5
579.489	1	4
579.659	1	-3
579.829	1	8
579.998	1	19
580.168	1	14
580.338	1	17
580.508	1	0
580.678	1	13
580.848	1	7
581.017	1	5
581.187	1	6
581.357	1	8
581.527	1	13
581.697	1	13
581.867	1	18
582.036	1	11
582.206	1	7
582.376	1	21
582.546	1	5
582.716	1	3
582.885	1	3
583.055	1	12
583.225	1	-2
583.395	1	12
583.565	1	2
583.735	1	13
583.904	1	20
584.074	1	10
584.244	1	2
584.414	1	8
584.584	1	13
584.753	1	-1
584.923	1	7
585.093	1	12
585.263	1	4
585.433	1	10
585.602	1	5
585.772	1	-2
585.942	1	3
586.112	1	7
586.282	1	6
586.451	1	3
586.621	1	1
586.791	1	7
586.961	1	2
587.131	1	21
587.300	1	12
587.470	1	13
587.640	1	9
587.810	1	5
587.980	1	5
588.149	1	7
588.319	1	7
588.489	1	10
588.659	1	8
588.829	1	4
588.998	1	8
589.168	1	19
589.338	1	15
589.508	1	8
589.677	1	-2
589.847	1	2
590.017	1	21
590.187	1	-6
590.357	1	11
590.526	1	21
590.696	1	13
590.866	1	16
591.036	1	6
591.205	1	15
591.375	1	5
591.545	1	8
591.715	1	12
591.885	1	3
592.054	1	11
592.224	1	5
592.394	1	6
592.564	1	8
592.733	1	12
592.903	1	7
593.073	1	9
593.243	1	12
593.412	1	20
593.582	1	12
593.752	1	4
593.922	1	11
594.091	1	6
594.261	1	8
594.431	1	18
594.601	1	15
594.771	1	23
594.940	1	9
595.110	1	0
595.280	1	16
595.450	1	3
595.619	1	5
595.789	1	5
595.959	1	20
596.129	1	-2
596.298	1	6
596.468	1	17
596.638	1	18
596.808	1	10
596.977	1	10
597.147	1	21
597.317	1	2
597.487	1	6
597.656	1	8
597.826	1	17
597.996	1	1
598.166	1	10
598.335	1	1
598.505	1	6
598.675	1	8
598.844	1	8
599.014	1	11
599.184	1	12
599.354	1	-4
599.523	1	12
599.693	1	2
599.863	1	10
600.033	1	8
600.202	1	11
600.372	1	16
600.542	1	14
600.712	1	1
600.881	1	9
601.051	1	25
601.221	1	15
601.390	1	1
601.560	1	22
601.730	1	12
601.900	1	19
602.069	1	16
602.239	1	1
602.409	1	4
602.578	1	5
602.748	1	12
602.918	1	6
603.088	1	10
603.257	1	10
603.427	1	7
603.597	1	9
603.767	1	15
603.936	1	14
604.106	1	5
604.276	1	3
604.445	1	13
604.615	1	6
604.785	1	3
604.954	1	3
605.124	1	6
605.294	1	12
605.464	1	8
605.633	1	4
605.803	1	15
605.973	1	0
606.142	1	11
606.312	1	9
606.482	1	4
606.652	1	17
606.821	1	13
606.991	1	7
607.161	1	10
607.330	1	10
607.500	1	11
607.670	1	-3
607.839	1	12
608.009	1	14
608.179	1	12
608.348	1	3
608.518	1	-1
608.688	1	18
608.858	1	11
609.027	1	-3
609.197	1	11
609.367	1	15
609.536	1	13
609.706	1	6
609.876	1	11
610.045	1	5
610.215	1	16
610.385	1	4
610.554	1	16
610.724	1	15
610.894	1	5
611.063	1	10
611.233	1	13
611.403	1	6
611.572	1	6
611.742	1	13
611.912	1	13
612.081	1	5
612.251	1	11
612.421	1	6
612.590	1	10
612.760	1	12
612.930	1	18
613.099	1	11
613.269	1	24
613.439	1	10
613.608	1	5
613.778	1	15
613.948	1	9
614.117	1	13
614.287	1	18
614.457	1	12
614.626	1	7
614.796	1	13
614.966	1	1
615.135	1	9
615.305	1	21
615.475	1	6
615.644	1	16
615.814	1	10
615.984	1	5
616.153	1	11
616.323	1	4
616.493	1	13
616.662	1	19
616.832	1	10
617.002	1	5
617.171	1	16
617.341	1	16
617.511	1	6
617.680	1	7
617.850	1	8
618.019	1	15
618.189	1	20
618.359	1	19
618.528	1	10
618.698	1	10
618.868	1	5
619.037	1	10
619.207	1	11
619.377	1	7
619.546	1	11
619.716	1	12
619.885	1	1
620.055	1	4
620.225	1	4
620.394	1	3
620.564	1	19
620.734	1	20
620.903	1	8
621.073	1	13
621.242	1	15
621.412	1	9
621.582	1	-1
621.751	1	18
621.921	1	14
622.091	1	9
622.260	1	9
622.430	1	22
622.599	1	10
622.769	1	20
622.939	1	13
623.108	1	7
623.278	1	3
623.448	1	13
623.617	1	12
623.787	1	14
623.956	1	19
624.126	1	12
624.296	1	11
624.465	1	19
624.635	1	22
624.804	1	17
624.974	1	23
625.144	1	22
625.313	1	7
625.483	1	-1
625.652	1	7
625.822	1	2
625.992	1	4
626.161	1	15
626.331	1	21
626.501	1	21
626.670	1	7
626.840	1	10
627.009	1	5
627.179	1	17
627.348	1	18
627.518	1	15
627.688	1	14
627.857	1	24
628.027	1	8
628.196	1	16
628.366	1	20
628.536	1	9
628.705	1	13
628.875	1	15
629.044	1	10
629.214	1	20
629.384	1	25
629.553	1	9
629.723	1	16
629.892	1	12
630.062	1	20
630.232	1	10
630.401	1	7
630.571	1	14
630.740	1	6
630.910	1	20
631.079	1	31
631.249	1	16
631.419	1	17
631.588	1	13
631.758	1	19
631.927	1	11
632.097	1	9
632.266	1	9
632.436	1	17
632.606	1	15
632.775	1	20
632.945	1	19
633.114	1	16
633.284	1	19
633.453	1	9
633.623	1	4
633.793	1	9
633.962	1	12
634.132	1	13
634.301	1	5
634.471	1	16
634.640	1	19
634.810	1	9
634.979	1	13
635.149	1	26
635.319	1	15
635.488	1	16
635.658	1	17
635.827	1	9
635.997	1	8
636.166	1	7
636.336	1	6
636.505	1	26
636.675	1	15
636.845	1	28
637.014	1	16
637.184	1	24
637.353	1	12
637.523	1	19
637.692	1	17
637.862	1	11
638.031	1	18
638.201	1	17
638.370	1	19
638.540	1	19
638.710	1	17
638.879	1	0
639.049	1	8
639.218	1	19
639.388	1	3
639.557	1	15
639.727	1	16
639.896	1	13
640.066	1	14
640.235	1	25
640.405	1	31
640.574	1	18
640.744	1	5
640.914	1	20
641.083	1	16
641.253	1	6
641.422	1	15
641.592	1	24
641.761	1	14
641.931	1	8
642.100	1	32
642.270	1	19
642.439	1	15
642.609	1	20
642.778	1	13
642.948	1	5
643.117	1	22
643.287	1	29
643.456	1	17
643.626	1	30
643.795	1	9
643.965	1	19
644.134	1	13
644.304	1	15
644.473	1	18
644.643	1	17
644.812	1	15
644.982	1	20
645.151	1	16
645.321	1	10
645.490	1	23
645.660	1	12
645.829	1	8
645.999	1	21
646.168	1	21
646.338	1	12
646.507	1	3
646.677	1	14
646.846	1	20
647.016	1	8
647.185	1	16
647.355	1	7
647.524	1	17
647.694	1	27
647.863	1	20
648.033	1	21
648.202	1	24
648.372	1	19
648.541	1	10
648.711	1	16
648.880	1	14
649.050	1	7
649.219	1	12
649.389	1	19
649.558	1	21
649.728	1	24
649.897	1	15
650.067	1	21
650.236	1	25
650.406	1	19
650.575	1	27
650.745	1	19
650.914	1	19
651.084	1	13
651.253	1	12
651.423	1	18
651.592	1	13
651.762	1	12
651.931	1	23
652.101	1	19
652.270	1	31
652.440	1	21
652.609	1	19
652.778	1	9
652.948	1	20
653.117	1	14
653.287	1	17
653.456	1	22
653.626	1	23
653.795	1	18
653.965	1	21
654.134	1	18
654.304	1	7
654.473	1	21
654.643	1	19
654.812	1	20
654.982	1	22
655.151	1	12
655.320	1	24
655.490	1	1
655.659	1	21
655.829	1	15
655.998	1	13
656.168	1	11
656.337	1	13
656.507	1	20
656.676	1	18
656.846	1	28
657.015	1	29
657.184	1	24
657.354	1	12
657.523	1	15
657.693	1	23
657.862	1	21
658.032	1	23
658.201	1	22
658.371	1	29
658.540	1	25
658.709	1	15
658.879	1	28
659.048	1	14
659.218	1	19
659.387	1	15
659.557	1	19
659.726	1	21
659.895	1	15
660.065	1	19
660.234	1	17
660.404	1	28
660.573	1	12
660.743	1	23
660.912	1	28
661.081	1	31
661.251	1	12
661.420	1	29
661.590	1	16
661.759	1	25
661.929	1	24
662.098	1	29
662.267	1	10
662.437	1	26
662.606	1	18
662.776	1	26
662.945	1	19
663.115	1	25
663.284	1	12
663.453	1	27
663.623	1	14
663.792	1	15
663.962	1	24
664.131	1	27
664.300	1	24
664.470	1	22
664.639	1	25
664.809	1	14
664.978	1	19
665.148	1	19
665.317	1	19
665.486	1	22
665.656	1	22
665.825	1	29
665.995	1	25
666.164	1	14
666.333	1	31
666.503	1	19
666.672	1	12
666.842	1	14
667.011	1	22
667.180	1	29
667.350	1	19
667.519	1	32
667.689	1	19
667.858	1	16
668.027	1	25
668.197	1	19
668.366	1	18
668.536	1	23
668.705	1	25
668.874	1	29
669.044	1	19
669.213	1	32
669.382	1	19
669.552	1	21
669.721	1	27
669.891	1	33
670.060	1	26
670.229	1	23
670.399	1	22
670.568	1	38
670.738	1	31
670.907	1	12
671.076	1	16
671.246	1	18
671.415	1	24
671.584	1	10
671.754	1	19
671.923	1	14
672.093	1	17
672.262	1	9
672.431	1	25
672.601	1	20
672.770	1	17
672.939	1	29
673.109	1	21
673.278	1	23
673.448	1	27
673.617	1	14
673.786	1	22
