325.333	1	41
325.504	1	31
325.675	1	36
325.846	1	32
326.017	1	42
326.188	1	32
326.359	1	25
326.531	1	22
326.702	1	33
326.873	1	46
327.044	1	33
327.215	1	46
327.386	1	44
327.557	1	34
327.728	1	33
327.899	1	46
328.070	1	52
328.241	1	45
328.412	1	38
328.583	1	47
328.754	1	41
328.926	1	52
329.097	1	35
329.268	1	48
329.439	1	39
329.610	1	44
329.781	1	40
329.952	1	53
330.123	1	38
330.294	1	47
330.465	1	46
330.636	1	43
330.807	1	43
330.978	1	46
331.149	1	42
331.320	1	47
331.492	1	46
331.663	1	48
331.834	1	54
332.005	1	58
332.176	1	55
332.347	1	52
332.518	1	43
332.689	1	52
332.860	1	48
333.031	1	53
333.202	1	58
333.373	1	52
333.544	1	54
333.715	1	62
333.886	1	52
334.057	1	58
334.228	1	39
334.399	1	67
334.570	1	50
334.741	1	58
334.912	1	60
335.084	1	78
335.255	1	58
335.426	1	58
335.597	1	61
335.768	1	50
335.939	1	75
336.110	1	67
336.281	1	56
336.452	1	57
336.623	1	59
336.794	1	58
336.965	1	72
337.136	1	65
337.307	1	58
337.478	1	55
337.649	1	67
337.820	1	69
337.991	1	58
338.162	1	69
338.333	1	65
338.504	1	78
338.675	1	66
338.846	1	69
339.017	1	70
339.188	1	70
339.359	1	67
339.530	1	72
339.701	1	66
339.872	1	84
340.043	1	75
340.214	1	69
340.385	1	73
340.556	1	61
340.727	1	75
340.898	1	94
341.069	1	80
341.240	1	87
341.411	1	75
341.582	1	76
341.753	1	69
341.924	1	73
342.095	1	71
342.266	1	88
342.437	1	89
342.608	1	76
342.779	1	90
342.950	1	87
343.121	1	90
343.292	1	75
343.463	1	88
343.634	1	85
343.805	1	101
343.976	1	90
344.147	1	88
344.318	1	88
344.489	1	83
344.660	1	93
344.831	1	89
345.002	1	85
345.173	1	102
345.344	1	88
345.515	1	89
345.686	1	90
345.857	1	95
346.028	1	98
346.199	1	88
346.370	1	89
346.541	1	102
346.712	1	92
346.883	1	102
347.054	1	96
347.225	1	96
347.396	1	106
347.567	1	87
347.738	1	93
347.909	1	101
348.080	1	101
348.251	1	111
348.422	1	102
348.593	1	106
348.764	1	110
348.935	1	99
349.106	1	96
349.277	1	103
349.448	1	109
349.619	1	115
349.790	1	111
349.961	1	124
350.132	1	105
350.303	1	106
350.474	1	120
350.645	1	115
350.816	1	112
350.987	1	112
351.157	1	109
351.328	1	128
351.499	1	118
351.670	1	123
351.841	1	123
352.012	1	118
352.183	1	124
352.354	1	137
352.525	1	139
352.696	1	130
352.867	1	129
353.038	1	126
353.209	1	126
353.380	1	119
353.551	1	115
353.722	1	120
353.893	1	121
354.064	1	131
354.235	1	110
354.406	1	113
354.576	1	126
354.747	1	132
354.918	1	117
355.089	1	135
355.260	1	134
355.431	1	138
355.602	1	115
355.773	1	137
355.944	1	127
356.115	1	123
356.286	1	135
356.457	1	131
356.628	1	129
356.799	1	131
356.970	1	147
357.141	1	136
357.311	1	125
357.482	1	134
357.653	1	142
357.824	1	145
357.995	1	126
358.166	1	136
358.337	1	155
358.508	1	140
358.679	1	141
358.850	1	140
359.021	1	140
359.192	1	138
359.363	1	139
359.533	1	123
359.704	1	141
359.875	1	148
360.046	1	147
360.217	1	131
360.388	1	158
360.559	1	138
360.730	1	154
360.901	1	142
361.072	1	161
361.243	1	149
361.414	1	152
361.584	1	143
361.755	1	163
361.926	1	145
362.097	1	137
362.268	1	152
362.439	1	149
362.610	1	156
362.781	1	142
362.952	1	136
363.123	1	138
363.293	1	140
363.464	1	154
363.635	1	155
363.806	1	143
363.977	1	155
364.148	1	148
364.319	1	154
364.490	1	147
364.661	1	142
364.832	1	148
365.002	1	152
365.173	1	147
365.344	1	160
365.515	1	143
365.686	1	158
365.857	1	159
366.028	1	171
366.199	1	166
366.370	1	146
366.540	1	162
366.711	1	153
366.882	1	151
367.053	1	151
367.224	1	174
367.395	1	182
367.566	1	161
367.737	1	165
367.908	1	165
368.078	1	157
368.249	1	167
368.420	1	162
368.591	1	146
368.762	1	173
368.933	1	164
369.104	1	156
369.274	1	178
369.445	1	168
369.616	1	171
369.787	1	156
369.958	1	179
370.129	1	173
370.300	1	173
370.471	1	152
370.641	1	183
370.812	1	171
370.983	1	170
371.154	1	161
371.325	1	181
371.496	1	164
371.667	1	169
371.837	1	168
372.008	1	167
372.179	1	156
372.350	1	183
372.521	1	171
372.692	1	181
372.863	1	180
373.033	1	139
373.204	1	161
373.375	1	168
373.546	1	178
373.717	1	172
373.888	1	174
374.059	1	172
374.229	1	182
374.400	1	173
374.571	1	173
374.742	1	189
374.913	1	163
375.084	1	173
375.254	1	179
375.425	1	186
375.596	1	184
375.767	1	188
375.938	1	191
376.109	1	177
376.279	1	178
376.450	1	183
376.621	1	190
376.792	1	187
376.963	1	181
377.134	1	186
377.304	1	193
377.475	1	185
377.646	1	196
377.817	1	183
377.988	1	194
378.159	1	180
378.329	1	197
378.500	1	201
378.671	1	190
378.842	1	187
379.013	1	173
379.184	1	178
379.354	1	205
379.525	1	193
379.696	1	205
379.867	1	193
380.038	1	185
380.209	1	204
380.379	1	182
380.550	1	174
380.721	1	208
380.892	1	194
381.063	1	203
381.233	1	179
381.404	1	196
381.575	1	210
381.746	1	197
381.917	1	206
382.087	1	186
382.258	1	202
382.429	1	196
382.600	1	215
382.771	1	207
382.941	1	191
383.112	1	207
383.283	1	208
383.454	1	203
383.625	1	205
383.795	1	209
383.966	1	212
384.137	1	204
384.308	1	204
384.479	1	213
384.649	1	222
384.820	1	208
384.991	1	200
385.162	1	212
385.333	1	211
385.503	1	216
385.674	1	216
385.845	1	214
386.016	1	224
386.187	1	224
386.357	1	211
386.528	1	223
386.699	1	202
386.870	1	231
387.041	1	237
387.211	1	214
387.382	1	228
387.553	1	223
387.724	1	203
387.894	1	212
388.065	1	202
388.236	1	232
388.407	1	224
388.578	1	213
388.748	1	225
388.919	1	228
389.090	1	219
389.261	1	215
389.431	1	221
389.602	1	218
389.773	1	213
389.944	1	224
390.114	1	217
390.285	1	231
390.456	1	235
390.627	1	235
390.798	1	244
390.968	1	228
391.139	1	221
391.310	1	225
391.481	1	221
391.651	1	224
391.822	1	233
391.993	1	220
392.164	1	222
392.334	1	222
392.505	1	211
392.676	1	223
392.847	1	240
393.017	1	224
393.188	1	225
393.359	1	218
393.530	1	220
393.700	1	229
393.871	1	231
394.042	1	228
394.213	1	231
394.383	1	241
394.554	1	232
394.725	1	234
394.896	1	237
395.066	1	258
395.237	1	232
395.408	1	237
395.579	1	238
395.749	1	229
395.920	1	241
396.091	1	249
396.262	1	242
396.432	1	230
396.603	1	238
396.774	1	247
396.945	1	249
397.115	1	237
397.286	1	238
397.457	1	249
397.627	1	240
397.798	1	253
397.969	1	230
398.140	1	253
398.310	1	235
398.481	1	248
398.652	1	247
398.823	1	224
398.993	1	229
399.164	1	242
399.335	1	248
399.505	1	243
399.676	1	225
399.847	1	241
400.018	1	244
400.188	1	248
400.359	1	247
400.530	1	233
400.700	1	237
400.871	1	231
401.042	1	249
401.213	1	240
401.383	1	245
401.554	1	240
401.725	1	250
401.895	1	233
402.066	1	248
402.237	1	244
402.408	1	246
402.578	1	243
402.749	1	238
402.920	1	259
403.090	1	239
403.261	1	252
403.432	1	250
403.603	1	237
403.773	1	249
403.944	1	245
404.115	1	257
404.285	1	254
404.456	1	238
404.627	1	233
404.797	1	239
404.968	1	252
405.139	1	241
405.310	1	267
405.480	1	238
405.651	1	242
405.822	1	242
405.992	1	230
406.163	1	242
406.334	1	256
406.504	1	235
406.675	1	256
406.846	1	250
407.016	1	264
407.187	1	240
407.358	1	250
407.528	1	255
407.699	1	254
407.870	1	242
408.041	1	252
408.211	1	271
408.382	1	241
408.553	1	239
408.723	1	264
408.894	1	253
409.065	1	257
409.235	1	258
409.406	1	255
409.577	1	243
409.747	1	252
409.918	1	259
410.089	1	252
410.259	1	254
410.430	1	252
410.601	1	251
410.771	1	249
410.942	1	263
411.113	1	247
411.283	1	234
411.454	1	246
411.625	1	252
411.795	1	261
411.966	1	245
412.137	1	257
412.307	1	243
412.478	1	256
412.649	1	254
412.819	1	251
412.990	1	244
413.161	1	245
413.331	1	233
413.502	1	259
413.672	1	256
413.843	1	242
414.014	1	243
414.184	1	242
414.355	1	251
414.526	1	245
414.696	1	260
414.867	1	241
415.038	1	236
415.208	1	246
415.379	1	254
415.550	1	244
415.720	1	235
415.891	1	247
416.062	1	237
416.232	1	259
416.403	1	247
416.573	1	248
416.744	1	237
416.915	1	244
417.085	1	240
417.256	1	241
417.427	1	247
417.597	1	245
417.768	1	230
417.939	1	259
418.109	1	245
418.280	1	250
418.450	1	238
418.621	1	231
418.792	1	246
418.962	1	259
419.133	1	236
419.304	1	231
419.474	1	230
419.645	1	244
419.815	1	233
419.986	1	240
420.157	1	243
420.327	1	240
420.498	1	247
420.669	1	224
420.839	1	244
421.010	1	251
421.180	1	243
421.351	1	241
421.522	1	247
421.692	1	231
421.863	1	238
422.033	1	244
422.204	1	237
422.375	1	226
422.545	1	248
422.716	1	220
422.886	1	228
423.057	1	235
423.228	1	227
423.398	1	219
423.569	1	232
423.740	1	212
423.910	1	228
424.081	1	228
424.251	1	243
424.422	1	231
424.593	1	211
424.763	1	229
424.934	1	216
425.104	1	228
425.275	1	232
425.445	1	221
425.616	1	233
425.787	1	221
425.957	1	228
426.128	1	231
426.298	1	221
426.469	1	223
426.640	1	212
426.810	1	218
426.981	1	212
427.151	1	206
427.322	1	230
427.493	1	225
427.663	1	219
427.834	1	213
428.004	1	225
428.175	1	221
428.345	1	202
428.516	1	213
428.687	1	219
428.857	1	215
429.028	1	208
429.198	1	224
429.369	1	215
429.540	1	220
429.710	1	213
429.881	1	226
430.051	1	214
430.222	1	208
430.392	1	218
430.563	1	225
430.734	1	225
430.904	1	204
431.075	1	218
431.245	1	214
431.416	1	219
431.586	1	208
431.757	1	224
431.927	1	206
432.098	1	212
432.269	1	209
432.439	1	217
432.610	1	201
432.780	1	226
432.951	1	207
433.121	1	216
433.292	1	208
433.462	1	224
433.633	1	213
433.804	1	209
433.974	1	218
434.145	1	231
434.315	1	199
434.486	1	195
434.656	1	216
434.827	1	210
434.997	1	204
435.168	1	215
435.339	1	220
435.509	1	221
435.680	1	214
435.850	1	207
436.021	1	203
436.191	1	216
436.362	1	201
436.532	1	199
436.703	1	203
436.873	1	214
437.044	1	197
437.214	1	201
437.385	1	210
437.556	1	205
437.726	1	216
437.897	1	204
438.067	1	199
438.238	1	200
438.408	1	201
438.579	1	189
438.749	1	197
438.920	1	188
439.090	1	189
439.261	1	199
439.431	1	201
439.602	1	191
439.772	1	188
439.943	1	216
440.113	1	200
440.284	1	213
440.455	1	185
440.625	1	193
440.796	1	199
440.966	1	182
441.137	1	192
441.307	1	179
441.478	1	211
441.648	1	194
441.819	1	199
441.989	1	189
442.160	1	199
442.330	1	183
442.501	1	170
442.671	1	171
442.842	1	176
443.012	1	182
443.183	1	187
443.353	1	179
443.524	1	176
443.694	1	195
443.865	1	188
444.035	1	181
444.206	1	177
444.376	1	181
444.547	1	204
444.717	1	183
444.888	1	175
445.058	1	195
445.229	1	184
445.399	1	173
445.570	1	185
445.740	1	167
445.911	1	186
446.081	1	159
446.252	1	175
446.422	1	171
446.593	1	180
446.763	1	169
446.934	1	176
447.104	1	175
447.275	1	174
447.445	1	168
447.616	1	189
447.786	1	184
447.957	1	190
448.127	1	184
448.298	1	173
448.468	1	168
448.639	1	162
448.809	1	168
448.979	1	168
449.150	1	190
449.320	1	162
449.491	1	193
449.661	1	157
449.832	1	180
450.002	1	173
450.173	1	176
450.343	1	182
450.514	1	175
450.684	1	172
450.855	1	162
451.025	1	161
451.196	1	154
451.366	1	169
451.537	1	169
451.707	1	146
451.878	1	164
452.048	1	171
452.218	1	167
452.389	1	160
452.559	1	170
452.730	1	170
452.900	1	172
453.071	1	150
453.241	1	162
453.412	1	148
453.582	1	163
453.753	1	163
453.923	1	174
454.093	1	158
454.264	1	178
454.434	1	157
454.605	1	150
454.775	1	147
454.946	1	153
455.116	1	146
455.287	1	131
455.457	1	127
455.628	1	141
455.798	1	157
455.968	1	158
456.139	1	136
456.309	1	148
456.480	1	142
456.650	1	137
456.821	1	129
456.991	1	144
457.161	1	137
457.332	1	152
457.502	1	125
457.673	1	148
457.843	1	148
458.014	1	137
458.184	1	138
458.355	1	140
458.525	1	151
458.695	1	143
458.866	1	141
459.036	1	147
459.207	1	120
459.377	1	150
459.548	1	140
459.718	1	139
459.888	1	131
460.059	1	138
460.229	1	160
460.400	1	145
460.570	1	142
460.740	1	137
460.911	1	128
461.081	1	133
461.252	1	134
461.422	1	151
461.593	1	126
461.763	1	143
461.933	1	153
462.104	1	135
462.274	1	133
462.445	1	135
462.615	1	132
462.785	1	140
462.956	1	133
463.126	1	145
463.297	1	126
463.467	1	128
463.638	1	139
463.808	1	133
463.978	1	132
464.149	1	127
464.319	1	118
464.490	1	144
464.660	1	123
464.830	1	120
465.001	1	137
465.171	1	129
465.342	1	136
465.512	1	113
465.682	1	134
465.853	1	126
466.023	1	120
466.194	1	121
466.364	1	131
466.534	1	130
466.705	1	121
466.875	1	130
467.045	1	124
467.216	1	132
467.386	1	118
467.557	1	119
467.727	1	121
467.897	1	107
468.068	1	121
468.238	1	123
468.409	1	121
468.579	1	114
468.749	1	118
468.920	1	104
469.090	1	123
469.260	1	116
469.431	1	116
469.601	1	130
469.772	1	119
469.942	1	106
470.112	1	121
470.283	1	113
470.453	1	118
470.623	1	121
470.794	1	104
470.964	1	128
471.135	1	116
471.305	1	116
471.475	1	117
471.646	1	103
471.816	1	110
471.986	1	107
472.157	1	113
472.327	1	104
472.497	1	114
472.668	1	106
472.838	1	104
473.009	1	114
473.179	1	99
473.349	1	101
473.520	1	113
473.690	1	109
473.860	1	115
474.031	1	105
474.201	1	101
474.371	1	115
474.542	1	104
474.712	1	104
474.882	1	102
475.053	1	113
475.223	1	95
475.394	1	118
475.564	1	99
475.734	1	103
475.905	1	107
476.075	1	107
476.245	1	111
476.416	1	108
476.586	1	117
476.756	1	106
476.927	1	101
477.097	1	110
477.267	1	101
477.438	1	108
477.608	1	101
477.778	1	106
477.949	1	106
478.119	1	109
478.289	1	109
478.460	1	119
478.630	1	96
478.800	1	101
478.971	1	95
479.141	1	101
479.311	1	94
479.482	1	100
479.652	1	106
479.822	1	99
479.993	1	97
480.163	1	102
480.333	1	98
480.504	1	98
480.674	1	99
480.844	1	87
481.015	1	102
481.185	1	102
481.355	1	108
481.525	1	91
481.696	1	97
481.866	1	101
482.036	1	96
482.207	1	94
482.377	1	93
482.547	1	108
482.718	1	91
482.888	1	94
483.058	1	92
483.229	1	88
483.399	1	92
483.569	1	87
483.740	1	93
483.910	1	94
484.080	1	82
484.250	1	83
484.421	1	100
484.591	1	93
484.761	1	95
484.932	1	89
485.102	1	96
485.272	1	88
485.443	1	93
485.613	1	89
485.783	1	84
485.953	1	85
486.124	1	95
486.294	1	88
486.464	1	86
486.635	1	99
486.805	1	91
486.975	1	80
487.146	1	97
487.316	1	87
487.486	1	92
487.656	1	91
487.827	1	80
487.997	1	70
488.167	1	88
488.338	1	87
488.508	1	94
488.678	1	72
488.848	1	85
489.019	1	78
489.189	1	80
489.359	1	74
489.529	1	98
489.700	1	74
489.870	1	79
490.040	1	76
490.211	1	80
490.381	1	84
490.551	1	77
490.721	1	88
490.892	1	78
491.062	1	75
491.232	1	77
491.402	1	69
491.573	1	66
491.743	1	79
491.913	1	71
492.084	1	78
492.254	1	84
492.424	1	70
492.594	1	77
492.765	1	84
492.935	1	82
493.105	1	73
493.275	1	74
493.446	1	86
493.616	1	88
493.786	1	69
493.956	1	77
494.127	1	73
494.297	1	69
494.467	1	77
494.637	1	71
494.808	1	70
494.978	1	59
495.148	1	72
495.318	1	78
495.489	1	70
495.659	1	78
495.829	1	62
495.999	1	64
496.170	1	72
496.340	1	80
496.510	1	72
496.680	1	74
496.851	1	84
497.021	1	78
497.191	1	66
497.361	1	72
497.532	1	65
497.702	1	69
497.872	1	59
498.042	1	85
498.213	1	74
498.383	1	70
498.553	1	64
498.723	1	62
498.894	1	76
499.064	1	65
499.234	1	64
499.404	1	66
499.574	1	80
499.745	1	64
499.915	1	63
500.085	1	74
500.255	1	75
500.426	1	66
500.596	1	72
500.766	1	65
500.936	1	59
501.106	1	54
501.277	1	66
501.447	1	65
501.617	1	64
501.787	1	70
501.958	1	60
502.128	1	63
502.298	1	71
502.468	1	69
502.638	1	60
502.809	1	68
502.979	1	55
503.149	1	58
503.319	1	50
503.489	1	60
503.660	1	76
503.830	1	58
504.000	1	67
504.170	1	58
504.340	1	51
504.511	1	66
504.681	1	64
504.851	1	66
505.021	1	68
505.192	1	58
505.362	1	68
505.532	1	51
505.702	1	66
505.872	1	59
506.043	1	48
506.213	1	50
506.383	1	51
506.553	1	68
506.723	1	55
506.893	1	57
507.064	1	65
507.234	1	57
507.404	1	56
507.574	1	57
507.744	1	60
507.915	1	52
508.085	1	64
508.255	1	57
508.425	1	51
508.595	1	58
508.766	1	63
508.936	1	53
509.106	1	57
509.276	1	51
509.446	1	40
509.616	1	55
509.787	1	60
509.957	1	56
510.127	1	53
510.297	1	49
510.467	1	46
510.638	1	58
510.808	1	48
510.978	1	46
511.148	1	57
511.318	1	53
511.488	1	44
511.659	1	57
511.829	1	46
511.999	1	57
512.169	1	54
512.339	1	48
512.509	1	51
512.680	1	55
512.850	1	47
513.020	1	54
513.190	1	51
513.360	1	42
513.530	1	53
513.700	1	49
513.871	1	56
514.041	1	50
514.211	1	56
514.381	1	58
514.551	1	48
514.721	1	55
514.892	1	45
515.062	1	54
515.232	1	55
515.402	1	46
515.572	1	35
515.742	1	47
515.912	1	57
516.083	1	54
516.253	1	60
516.423	1	47
516.593	1	59
516.763	1	54
516.933	1	43
517.104	1	40
517.274	1	44
517.444	1	53
517.614	1	43
517.784	1	47
517.954	1	58
518.124	1	53
518.294	1	43
518.465	1	46
518.635	1	42
518.805	1	25
518.975	1	47
519.145	1	45
519.315	1	47
519.485	1	45
519.656	1	58
519.826	1	46
519.996	1	35
520.166	1	46
520.336	1	54
520.506	1	46
520.676	1	37
520.846	1	58
521.017	1	43
521.187	1	36
521.357	1	51
521.527	1	42
521.697	1	43
521.867	1	32
522.037	1	50
522.207	1	41
522.377	1	48
522.548	1	41
522.718	1	40
522.888	1	44
523.058	1	34
523.228	1	48
523.398	1	44
523.568	1	43
523.738	1	42
523.909	1	41
524.079	1	38
524.249	1	42
524.419	1	40
524.589	1	41
524.759	1	29
524.929	1	43
525.099	1	40
525.269	1	49
525.439	1	36
525.610	1	50
525.780	1	45
525.950	1	49
526.120	1	36
526.290	1	40
526.460	1	39
526.630	1	41
526.800	1	33
526.970	1	43
527.140	1	53
527.311	1	35
527.481	1	31
527.651	1	46
527.821	1	41
527.991	1	52
528.161	1	45
528.331	1	39
528.501	1	33
528.671	1	38
528.841	1	45
529.011	1	35
529.181	1	38
529.352	1	44
529.522	1	32
529.692	1	42
529.862	1	34
530.032	1	44
530.202	1	33
530.372	1	43
530.542	1	47
530.712	1	36
530.882	1	42
531.052	1	41
531.222	1	35
531.392	1	28
531.563	1	39
531.733	1	28
531.903	1	41
532.073	1	44
532.243	1	27
532.413	1	38
532.583	1	32
532.753	1	30
532.923	1	31
533.093	1	41
533.263	1	41
533.433	1	36
533.603	1	33
533.773	1	27
533.943	1	32
534.113	1	43
534.284	1	31
534.454	1	38
534.624	1	43
534.794	1	33
534.964	1	32
535.134	1	28
535.304	1	38
535.474	1	43
535.644	1	30
535.814	1	40
535.984	1	34
536.154	1	31
536.324	1	30
536.494	1	39
536.664	1	32
536.834	1	39
537.004	1	31
537.174	1	44
537.344	1	32
537.514	1	28
537.685	1	33
537.855	1	45
538.025	1	30
538.195	1	30
538.365	1	40
538.535	1	19
538.705	1	41
538.875	1	40
539.045	1	36
539.215	1	37
539.385	1	26
539.555	1	43
539.725	1	27
539.895	1	25
540.065	1	42
540.235	1	34
540.405	1	43
540.575	1	36
540.745	1	30
540.915	1	52
541.085	1	35
541.255	1	19
541.425	1	36
541.595	1	32
541.765	1	21
541.935	1	31
542.105	1	25
542.275	1	22
542.445	1	26
542.615	1	29
542.785	1	31
542.955	1	28
543.125	1	13
543.295	1	31
543.465	1	21
543.635	1	37
543.805	1	30
543.975	1	20
544.145	1	31
544.315	1	30
544.485	1	32
544.655	1	28
544.825	1	11
544.995	1	27
545.165	1	22
545.335	1	23
545.505	1	29
545.675	1	32
545.845	1	33
546.015	1	36
546.185	1	26
546.355	1	18
546.525	1	35
546.695	1	23
546.865	1	23
547.035	1	27
547.205	1	13
547.375	1	26
547.545	1	31
547.715	1	23
547.885	1	20
548.055	1	17
548.225	1	23
548.395	1	15
548.565	1	30
548.735	1	18
548.905	1	22
549.075	1	23
549.245	1	25
549.415	1	20
549.585	1	25
549.755	1	20
549.925	1	11
550.095	1	27
550.265	1	21
550.435	1	29
550.605	1	16
550.775	1	31
550.945	1	29
551.115	1	28
551.285	1	20
551.455	1	25
551.625	1	27
551.795	1	39
551.965	1	30
552.135	1	19
552.305	1	28
552.475	1	20
552.645	1	18
552.815	1	17
552.985	1	20
553.155	1	18
553.325	1	26
553.495	1	21
553.665	1	25
553.835	1	27
554.004	1	12
554.174	1	27
554.344	1	29
554.514	1	22
554.684	1	26
554.854	1	21
555.024	1	14
555.194	1	10
555.364	1	30
555.534	1	23
555.704	1	24
555.874	1	21
556.044	1	23
556.214	1	14
556.384	1	19
556.554	1	31
556.724	1	36
556.894	1	24
557.064	1	26
557.234	1	30
557.404	1	34
557.573	1	22
557.743	1	24
557.913	1	13
558.083	1	17
558.253	1	21
558.423	1	19
558.593	1	25
558.763	1	17
558.933	1	14
559.103	1	26
559.273	1	26
559.443	1	20
559.613	1	18
559.783	1	20
559.953	1	13
560.122	1	28
560.292	1	23
560.462	1	31
560.632	1	34
560.802	1	10
560.972	1	27
561.142	1	19
561.312	1	7
561.482	1	19
561.652	1	20
561.822	1	8
561.992	1	26
562.162	1	24
562.331	1	19
562.501	1	14
562.671	1	17
562.841	1	5
563.011	1	26
563.181	1	23
563.351	1	8
563.521	1	18
563.691	1	15
563.861	1	19
564.031	1	28
564.201	1	28
564.370	1	10
564.540	1	25
564.710	1	15
564.880	1	22
565.050	1	18
565.220	1	10
565.390	1	20
565.560	1	8
565.730	1	18
565.900	1	20
566.069	1	21
566.239	1	27
566.409	1	24
566.579	1	27
566.749	1	16
566.919	1	20
567.089	1	15
567.259	1	25
567.429	1	19
567.599	1	19
567.768	1	27
567.938	1	17
568.108	1	16
568.278	1	8
568.448	1	14
568.618	1	4
568.788	1	23
568.958	1	20
569.128	1	19
569.297	1	18
569.467	1	12
569.637	1	30
569.807	1	5
569.977	1	25
570.147	1	18
570.317	1	6
570.487	1	18
570.656	1	19
570.826	1	13
570.996	1	9
571.166	1	26
571.336	1	15
571.506	1	22
571.676	1	23
571.846	1	18
572.015	1	13
572.185	1	22
572.355	1	13
572.525	1	19
572.695	1	14
572.865	1	5
573.035	1	15
573.205	1	21
573.374	1	14
573.544	1	16
573.714	1	23
573.884	1	26
574.054	1	19
574.224	1	20
574.394	1	10
574.563	1	16
574.733	1	16
574.903	1	15
575.073	1	5
575.243	1	14
575.413	1	21
575.583	1	8
575.752	1	13
575.922	1	18
576.092	1	12
576.262	1	18
576.432	1	13
576.602	1	12
576.772	1	26
576.941	1	22
577.111	1	16
577.281	1	-4
577.451	1	9
577.621	1	14
577.791	1	16
577.960	1	12
578.130	1	21
578.300	1	14
578.470	1	26
578.640	1	22
578.810	1	15
578.979	1	15
579.149	1	22
579.319	1	17
579.489	1	3
579.659	1	9
579.829	1	15
579.998	1	19
580.168	1	23
580.338	1	23
580.508	1	10
580.678	1	23
580.848	1	12
581.017	1	13
581.187	1	18
581.357	1	14
581.527	1	22
581.697	1	25
581.867	1	23
582.036	1	16
582.206	1	21
582.376	1	20
582.546	1	14
582.716	1	5
582.885	1	9
583.055	1	14
583.225	1	2
583.395	1	14
583.565	1	21
583.735	1	22
583.904	1	17
584.074	1	15
584.244	1	21
584.414	1	17
584.584	1	13
584.753	1	2
584.923	1	13
585.093	1	15
585.263	1	12
585.433	1	16
585.602	1	15
585.772	1	9
585.942	1	19
586.112	1	21
586.282	1	20
586.451	1	12
586.621	1	18
586.791	1	10
586.961	1	18
587.131	1	13
587.300	1	15
587.470	1	32
587.640	1	16
587.810	1	18
587.980	1	11
588.149	1	19
588.319	1	13
588.489	1	-2
588.659	1	20
588.829	1	12
588.998	1	22
589.168	1	15
589.338	1	22
589.508	1	17
589.677	1	10
589.847	1	11
590.017	1	30
590.187	1	11
590.357	1	23
590.526	1	29
590.696	1	15
590.866	1	19
591.036	1	14
591.205	1	30
591.375	1	7
591.545	1	11
591.715	1	15
591.885	1	8
592.054	1	15
592.224	1	16
592.394	1	16
592.564	1	3
592.733	1	12
592.903	1	13
593.073	1	22
593.243	1	11
593.412	1	14
593.582	1	19
593.752	1	14
593.922	1	16
594.091	1	18
594.261	1	12
594.431	1	22
594.601	1	14
594.771	1	21
594.940	1	16
595.110	1	13
595.280	1	13
595.450	1	21
595.619	1	15
595.789	1	13
595.959	1	31
596.129	1	5
596.298	1	4
596.468	1	12
596.638	1	14
596.808	1	14
596.977	1	13
597.147	1	25
597.317	1	9
597.487	1	24
597.656	1	13
597.826	1	20
597.996	1	22
598.166	1	18
598.335	1	10
598.505	1	7
598.675	1	12
598.844	1	7
599.014	1	20
599.184	1	16
599.354	1	10
599.523	1	24
599.693	1	13
599.863	1	11
600.033	1	14
600.202	1	26
600.372	1	26
600.542	1	33
600.712	1	10
600.881	1	15
601.051	1	26
601.221	1	27
601.390	1	11
601.560	1	17
601.730	1	24
601.900	1	16
602.069	1	26
602.239	1	6
602.409	1	12
602.578	1	15
602.748	1	22
602.918	1	23
603.088	1	22
603.257	1	24
603.427	1	14
603.597	1	18
603.767	1	13
603.936	1	22
604.106	1	20
604.276	1	17
604.445	1	17
604.615	1	12
604.785	1	21
604.954	1	24
605.124	1	25
605.294	1	13
605.464	1	16
605.633	1	21
605.803	1	21
605.973	1	2
606.142	1	18
606.312	1	24
606.482	1	23
606.652	1	25
606.821	1	12
606.991	1	13
607.161	1	10
607.330	1	29
607.500	1	19
607.670	1	11
607.839	1	21
608.009	1	34
608.179	1	15
608.348	1	21
608.518	1	7
608.688	1	39
608.858	1	14
609.027	1	8
609.197	1	23
609.367	1	19
609.536	1	19
609.706	1	14
609.876	1	22
610.045	1	26
610.215	1	16
610.385	1	21
610.554	1	13
610.724	1	31
610.894	1	18
611.063	1	17
611.233	1	8
611.403	1	26
611.572	1	25
611.742	1	16
611.912	1	17
612.081	1	13
612.251	1	19
612.421	1	14
612.590	1	22
612.760	1	17
612.930	1	9
613.099	1	26
613.269	1	29
613.439	1	18
613.608	1	10
613.778	1	29
613.948	1	15
614.117	1	15
614.287	1	22
614.457	1	20
614.626	1	24
614.796	1	29
614.966	1	21
615.135	1	26
615.305	1	26
615.475	1	16
615.644	1	24
615.814	1	23
615.984	1	13
616.153	1	15
616.323	1	28
616.493	1	19
616.662	1	31
616.832	1	17
617.002	1	22
617.171	1	16
617.341	1	15
617.511	1	14
617.680	1	13
617.850	1	20
618.019	1	27
618.189	1	33
618.359	1	30
618.528	1	17
618.698	1	31
618.868	1	17
619.037	1	23
619.207	1	20
619.377	1	7
619.546	1	14
619.716	1	21
619.885	1	23
620.055	1	15
620.225	1	23
620.394	1	19
620.564	1	26
620.734	1	22
620.903	1	14
621.073	1	26
621.242	1	27
621.412	1	17
621.582	1	25
621.751	1	26
621.921	1	21
622.091	1	25
622.260	1	21
622.430	1	38
622.599	1	13
622.769	1	27
622.939	1	38
623.108	1	24
623.278	1	18
623.448	1	38
623.617	1	24
623.787	1	25
623.956	1	35
624.126	1	26
624.296	1	24
624.465	1	36
624.635	1	24
624.804	1	30
624.974	1	25
625.144	1	25
625.313	1	21
625.483	1	11
625.652	1	25
625.822	1	18
625.992	1	23
626.161	1	33
626.331	1	32
626.501	1	28
626.670	1	29
626.840	1	21
627.009	1	19
627.179	1	23
627.348	1	26
627.518	1	25
627.688	1	32
627.857	1	24
628.027	1	12
628.196	1	28
628.366	1	32
628.536	1	23
628.705	1	15
628.875	1	27
629.044	1	20
629.214	1	31
629.384	1	26
629.553	1	29
629.723	1	31
629.892	1	23
630.062	1	44
630.232	1	22
630.401	1	25
630.571	1	33
630.740	1	22
630.910	1	31
631.079	1	32
631.249	1	25
631.419	1	31
631.588	1	27
631.758	1	31
631.927	1	19
632.097	1	27
632.266	1	30
632.436	1	27
632.606	1	24
632.775	1	45
632.945	1	28
633.114	1	27
633.284	1	37
633.453	1	30
633.623	1	23
633.793	1	36
633.962	1	34
634.132	1	26
634.301	1	28
634.471	1	33
634.640	1	30
634.810	1	26
634.979	1	31
635.149	1	35
635.319	1	24
635.488	1	21
635.658	1	28
635.827	1	22
635.997	1	26
636.166	1	37
636.336	1	23
636.505	1	34
636.675	1	30
636.845	1	40
637.014	1	33
637.184	1	42
637.353	1	46
637.523	1	31
637.692	1	38
637.862	1	37
638.031	1	24
638.201	1	44
638.370	1	28
638.540	1	42
638.710	1	30
638.879	1	12
639.049	1	40
639.218	1	29
639.388	1	27
639.557	1	28
639.727	1	29
639.896	1	38
640.066	1	27
640.235	1	28
640.405	1	55
640.574	1	26
640.744	1	27
640.914	1	41
641.083	1	29
641.253	1	30
641.422	1	31
641.592	1	49
641.761	1	22
641.931	1	43
642.100	1	50
642.270	1	28
642.439	1	38
642.609	1	41
642.778	1	39
642.948	1	31
643.117	1	34
643.287	1	39
643.456	1	39
643.626	1	35
643.795	1	45
643.965	1	41
644.134	1	28
644.304	1	38
644.473	1	37
644.643	1	41
644.812	1	36
644.982	1	40
645.151	1	40
645.321	1	36
645.490	1	38
645.660	1	46
645.829	1	38
645.999	1	40
646.168	1	39
646.338	1	34
646.507	1	38
646.677	1	43
646.846	1	34
647.016	1	18
647.185	1	43
647.355	1	30
647.524	1	37
647.694	1	50
647.863	1	44
648.033	1	43
648.202	1	46
648.372	1	30
648.541	1	35
648.711	1	27
648.880	1	39
649.050	1	36
649.219	1	33
649.389	1	35
649.558	1	38
649.728	1	37
649.897	1	29
650.067	1	44
650.236	1	38
650.406	1	44
650.575	1	43
650.745	1	51
650.914	1	37
651.084	1	35
651.253	1	47
651.423	1	43
651.592	1	46
651.762	1	31
651.931	1	50
652.101	1	37
652.270	1	48
652.440	1	48
652.609	1	40
652.778	1	44
652.948	1	42
653.117	1	38
653.287	1	41
653.456	1	43
653.626	1	42
653.795	1	50
653.965	1	39
654.134	1	41
654.304	1	34
654.473	1	48
654.643	1	49
654.812	1	45
654.982	1	43
655.151	1	34
655.320	1	34
655.490	1	35
655.659	1	41
655.829	1	36
655.998	1	47
656.168	1	36
656.337	1	40
656.507	1	43
656.676	1	48
656.846	1	41
657.015	1	44
657.184	1	51
657.354	1	52
657.523	1	40
657.693	1	45
657.862	1	50
658.032	1	36
658.201	1	48
658.371	1	52
658.540	1	45
658.709	1	40
658.879	1	43
659.048	1	48
659.218	1	40
659.387	1	46
659.557	1	48
659.726	1	50
659.895	1	32
660.065	1	38
660.234	1	40
660.404	1	50
660.573	1	39
660.743	1	39
660.912	1	51
661.081	1	51
661.251	1	41
661.420	1	54
661.590	1	39
661.759	1	50
661.929	1	54
662.098	1	47
662.267	1	44
662.437	1	52
662.606	1	41
662.776	1	45
662.945	1	45
663.115	1	50
663.284	1	39
663.453	1	51
663.623	1	39
663.792	1	52
663.962	1	49
664.131	1	49
664.300	1	50
664.470	1	47
664.639	1	43
664.809	1	44
664.978	1	53
665.148	1	48
665.317	1	42
665.486	1	51
665.656	1	47
665.825	1	51
665.995	1	47
666.164	1	42
666.333	1	47
666.503	1	45
666.672	1	39
666.842	1	42
667.011	1	47
667.180	1	55
667.350	1	45
667.519	1	49
667.689	1	40
667.858	1	53
668.027	1	54
668.197	1	50
668.366	1	29
668.536	1	45
668.705	1	46
668.874	1	46
669.044	1	50
669.213	1	45
669.382	1	38
669.552	1	56
669.721	1	44
669.891	1	52
670.060	1	46
670.229	1	57
670.399	1	43
670.568	1	53
670.738	1	50
670.907	1	37
671.076	1	41
671.246	1	42
671.415	1	52
671.584	1	50
671.754	1	42
671.923	1	51
672.093	1	51
672.262	1	37
672.431	1	46
672.601	1	46
672.770	1	40
672.939	1	53
673.109	1	46
673.278	1	52
673.448	1	44
673.617	1	46
673.786	1	52
