325.333	1	12
325.504	1	7
325.675	1	7
325.846	1	7
326.017	1	10
326.188	1	7
326.359	1	1
326.531	1	-9
326.702	1	5
326.873	1	15
327.044	1	4
327.215	1	2
327.386	1	5
327.557	1	-3
327.728	1	-1
327.899	1	6
328.070	1	16
328.241	1	9
328.412	1	-4
328.583	1	8
328.754	1	0
328.926	1	12
329.097	1	4
329.268	1	16
329.439	1	-1
329.610	1	5
329.781	1	-1
329.952	1	11
330.123	1	3
330.294	1	2
330.465	1	11
330.636	1	20
330.807	1	-6
330.978	1	10
331.149	1	10
331.320	1	16
331.492	1	13
331.663	1	6
331.834	1	16
332.005	1	4
332.176	1	13
332.347	1	6
332.518	1	-1
332.689	1	23
332.860	1	11
333.031	1	11
333.202	1	6
333.373	1	8
333.544	1	8
333.715	1	11
333.886	1	4
334.057	1	7
334.228	1	14
334.399	1	13
334.570	1	17
334.741	1	1
334.912	1	11
335.084	1	24
335.255	1	13
335.426	1	-2
335.597	1	0
335.768	1	12
335.939	1	11
336.110	1	3
336.281	1	5
336.452	1	2
336.623	1	7
336.794	1	15
336.965	1	10
337.136	1	12
337.307	1	7
337.478	1	11
337.649	1	15
337.820	1	4
337.991	1	10
338.162	1	10
338.333	1	10
338.504	1	20
338.675	1	6
338.846	1	7
339.017	1	8
339.188	1	4
339.359	1	-1
339.530	1	9
339.701	1	6
339.872	1	25
340.043	1	4
340.214	1	11
340.385	1	17
340.556	1	-6
340.727	1	21
340.898	1	14
341.069	1	10
341.240	1	5
341.411	1	14
341.582	1	13
341.753	1	0
341.924	1	18
342.095	1	12
342.266	1	21
342.437	1	15
342.608	1	4
342.779	1	25
342.950	1	19
343.121	1	17
343.292	1	5
343.463	1	13
343.634	1	9
343.805	1	9
343.976	1	22
344.147	1	14
344.318	1	11
344.489	1	14
344.660	1	23
344.831	1	15
345.002	1	5
345.173	1	26
345.344	1	14
345.515	1	15
345.686	1	2
345.857	1	19
346.028	1	16
346.199	1	10
346.370	1	15
346.541	1	20
346.712	1	3
346.883	1	15
347.054	1	17
347.225	1	13
347.396	1	15
347.567	1	4
347.738	1	9
347.909	1	28
348.080	1	16
348.251	1	14
348.422	1	23
348.593	1	22
348.764	1	8
348.935	1	5
349.106	1	0
349.277	1	3
349.448	1	29
349.619	1	14
349.790	1	14
349.961	1	24
350.132	1	20
350.303	1	19
350.474	1	20
350.645	1	15
350.816	1	13
350.987	1	22
351.157	1	10
351.328	1	18
351.499	1	20
351.670	1	11
351.841	1	28
352.012	1	23
352.183	1	20
352.354	1	22
352.525	1	19
352.696	1	25
352.867	1	16
353.038	1	23
353.209	1	17
353.380	1	11
353.551	1	13
353.722	1	9
353.893	1	20
354.064	1	12
354.235	1	21
354.406	1	13
354.576	1	21
354.747	1	13
354.918	1	25
355.089	1	22
355.260	1	26
355.431	1	21
355.602	1	22
355.773	1	24
355.944	1	16
356.115	1	23
356.286	1	24
356.457	1	21
356.628	1	26
356.799	1	16
356.970	1	31
357.141	1	11
357.311	1	23
357.482	1	21
357.653	1	10
357.824	1	26
357.995	1	30
358.166	1	7
358.337	1	26
358.508	1	18
358.679	1	23
358.850	1	21
359.021	1	15
359.192	1	16
359.363	1	14
359.533	1	13
359.704	1	23
359.875	1	18
360.046	1	30
360.217	1	19
360.388	1	21
360.559	1	21
360.730	1	16
360.901	1	27
361.072	1	29
361.243	1	26
361.414	1	23
361.584	1	18
361.755	1	25
361.926	1	25
362.097	1	24
362.268	1	18
362.439	1	10
362.610	1	18
362.781	1	21
362.952	1	19
363.123	1	15
363.293	1	18
363.464	1	26
363.635	1	32
363.806	1	21
363.977	1	23
364.148	1	18
364.319	1	24
364.490	1	29
364.661	1	25
364.832	1	26
365.002	1	20
365.173	1	24
365.344	1	24
365.515	1	22
365.686	1	31
365.857	1	28
366.028	1	26
366.199	1	30
366.370	1	19
366.540	1	20
366.711	1	17
366.882	1	17
367.053	1	10
367.224	1	34
367.395	1	18
367.566	1	25
367.737	1	31
367.908	1	28
368.078	1	24
368.249	1	27
368.420	1	19
368.591	1	30
368.762	1	26
368.933	1	20
369.104	1	21
369.274	1	17
369.445	1	28
369.616	1	26
369.787	1	20
369.958	1	32
370.129	1	10
370.300	1	27
370.471	1	20
370.641	1	23
370.812	1	29
370.983	1	16
371.154	1	16
371.325	1	27
371.496	1	25
371.667	1	33
371.837	1	20
372.008	1	22
372.179	1	22
372.350	1	29
372.521	1	28
372.692	1	19
372.863	1	27
373.033	1	10
373.204	1	21
373.375	1	26
373.546	1	17
373.717	1	26
373.888	1	23
374.059	1	28
374.229	1	30
374.400	1	26
374.571	1	28
374.742	1	32
374.913	1	17
375.084	1	21
375.254	1	25
375.425	1	19
375.596	1	31
375.767	1	26
375.938	1	28
376.109	1	20
376.279	1	22
376.450	1	35
376.621	1	25
376.792	1	20
376.963	1	42
377.134	1	32
377.304	1	35
377.475	1	18
377.646	1	33
377.817	1	29
377.988	1	23
378.159	1	34
378.329	1	43
378.500	1	30
378.671	1	33
378.842	1	27
379.013	1	30
379.184	1	35
379.354	1	42
379.525	1	26
379.696	1	40
379.867	1	31
380.038	1	38
380.209	1	35
380.379	1	27
380.550	1	24
380.721	1	45
380.892	1	31
381.063	1	33
381.233	1	44
381.404	1	15
381.575	1	51
381.746	1	35
381.917	1	22
382.087	1	26
382.258	1	29
382.429	1	31
382.600	1	31
382.771	1	34
382.941	1	22
383.112	1	25
383.283	1	37
383.454	1	26
383.625	1	25
383.795	1	39
383.966	1	22
384.137	1	45
384.308	1	46
384.479	1	45
384.649	1	38
384.820	1	35
384.991	1	33
385.162	1	41
385.333	1	32
385.503	1	32
385.674	1	24
385.845	1	44
386.016	1	37
386.187	1	33
386.357	1	36
386.528	1	44
386.699	1	36
386.870	1	49
387.041	1	42
387.211	1	36
387.382	1	46
387.553	1	45
387.724	1	34
387.894	1	33
388.065	1	36
388.236	1	45
388.407	1	39
388.578	1	31
388.748	1	31
388.919	1	40
389.090	1	33
389.261	1	35
389.431	1	29
389.602	1	40
389.773	1	29
389.944	1	41
390.114	1	40
390.285	1	28
390.456	1	42
390.627	1	35
390.798	1	28
390.968	1	38
391.139	1	34
391.310	1	35
391.481	1	42
391.651	1	39
391.822	1	29
391.993	1	44
392.164	1	22
392.334	1	43
392.505	1	35
392.676	1	35
392.847	1	40
393.017	1	44
393.188	1	39
393.359	1	29
393.530	1	42
393.700	1	37
393.871	1	39
394.042	1	45
394.213	1	35
394.383	1	44
394.554	1	35
394.725	1	37
394.896	1	28
395.066	1	47
395.237	1	31
395.408	1	40
395.579	1	36
395.749	1	39
395.920	1	30
396.091	1	44
396.262	1	42
396.432	1	37
396.603	1	44
396.774	1	55
396.945	1	45
397.115	1	40
397.286	1	46
397.457	1	39
397.627	1	38
397.798	1	42
397.969	1	39
398.140	1	30
398.310	1	38
398.481	1	28
398.652	1	36
398.823	1	27
398.993	1	32
399.164	1	39
399.335	1	39
399.505	1	38
399.676	1	38
399.847	1	44
400.018	1	31
400.188	1	38
400.359	1	42
400.530	1	36
400.700	1	40
400.871	1	42
401.042	1	33
401.213	1	41
401.383	1	35
401.554	1	50
401.725	1	42
401.895	1	31
402.066	1	36
402.237	1	44
402.408	1	57
402.578	1	40
402.749	1	45
402.920	1	40
403.090	1	39
403.261	1	36
403.432	1	42
403.603	1	47
403.773	1	36
403.944	1	46
404.115	1	50
404.285	1	39
404.456	1	39
404.627	1	39
404.797	1	34
404.968	1	27
405.139	1	40
405.310	1	51
405.480	1	42
405.651	1	41
405.822	1	43
405.992	1	36
406.163	1	39
406.334	1	39
406.504	1	46
406.675	1	42
406.846	1	48
407.016	1	43
407.187	1	50
407.358	1	37
407.528	1	41
407.699	1	30
407.870	1	33
408.041	1	43
408.211	1	58
408.382	1	41
408.553	1	34
408.723	1	43
408.894	1	41
409.065	1	47
409.235	1	39
409.406	1	44
409.577	1	42
409.747	1	50
409.918	1	35
410.089	1	45
410.259	1	40
410.430	1	38
410.601	1	45
410.771	1	45
410.942	1	45
411.113	1	42
411.283	1	37
411.454	1	49
411.625	1	51
411.795	1	52
411.966	1	41
412.137	1	40
412.307	1	37
412.478	1	34
412.649	1	48
412.819	1	34
412.990	1	48
413.161	1	47
413.331	1	34
413.502	1	53
413.672	1	39
413.843	1	45
414.014	1	46
414.184	1	47
414.355	1	40
414.526	1	41
414.696	1	53
414.867	1	40
415.038	1	26
415.208	1	36
415.379	1	56
415.550	1	40
415.720	1	45
415.891	1	41
416.062	1	43
416.232	1	37
416.403	1	43
416.573	1	43
416.744	1	35
416.915	1	42
417.085	1	40
417.256	1	43
417.427	1	33
417.597	1	49
417.768	1	35
417.939	1	42
418.109	1	46
418.280	1	46
418.450	1	49
418.621	1	27
418.792	1	45
418.962	1	49
419.133	1	56
419.304	1	36
419.474	1	45
419.645	1	35
419.815	1	36
419.986	1	40
420.157	1	40
420.327	1	50
420.498	1	36
420.669	1	49
420.839	1	53
421.010	1	38
421.180	1	45
421.351	1	42
421.522	1	48
421.692	1	41
421.863	1	46
422.033	1	54
422.204	1	40
422.375	1	39
422.545	1	48
422.716	1	37
422.886	1	39
423.057	1	51
423.228	1	40
423.398	1	25
423.569	1	46
423.740	1	33
423.910	1	39
424.081	1	49
424.251	1	38
424.422	1	43
424.593	1	41
424.763	1	35
424.934	1	36
425.104	1	44
425.275	1	37
425.445	1	44
425.616	1	32
425.787	1	39
425.957	1	46
426.128	1	45
426.298	1	46
426.469	1	33
426.640	1	34
426.810	1	34
426.981	1	37
427.151	1	38
427.322	1	46
427.493	1	43
427.663	1	42
427.834	1	35
428.004	1	39
428.175	1	42
428.345	1	41
428.516	1	32
428.687	1	43
428.857	1	34
429.028	1	32
429.198	1	40
429.369	1	45
429.540	1	41
429.710	1	31
429.881	1	37
430.051	1	45
430.222	1	38
430.392	1	36
430.563	1	45
430.734	1	44
430.904	1	37
431.075	1	38
431.245	1	38
431.416	1	52
431.586	1	37
431.757	1	39
431.927	1	38
432.098	1	35
432.269	1	37
432.439	1	42
432.610	1	47
432.780	1	40
432.951	1	36
433.121	1	38
433.292	1	47
433.462	1	44
433.633	1	29
433.804	1	47
433.974	1	38
434.145	1	52
434.315	1	33
434.486	1	33
434.656	1	41
434.827	1	37
434.997	1	38
435.168	1	38
435.339	1	40
435.509	1	40
435.680	1	38
435.850	1	36
436.021	1	31
436.191	1	43
436.362	1	32
436.532	1	41
436.703	1	33
436.873	1	50
437.044	1	35
437.214	1	36
437.385	1	26
437.556	1	24
437.726	1	49
437.897	1	38
438.067	1	28
438.238	1	35
438.408	1	32
438.579	1	23
438.749	1	37
438.920	1	36
439.090	1	36
439.261	1	19
439.431	1	31
439.602	1	34
439.772	1	17
439.943	1	44
440.113	1	37
440.284	1	34
440.455	1	28
440.625	1	34
440.796	1	39
440.966	1	20
441.137	1	33
441.307	1	29
441.478	1	35
441.648	1	26
441.819	1	47
441.989	1	26
442.160	1	40
442.330	1	43
442.501	1	26
442.671	1	35
442.842	1	22
443.012	1	20
443.183	1	32
443.353	1	28
443.524	1	27
443.694	1	34
443.865	1	25
444.035	1	34
444.206	1	36
444.376	1	24
444.547	1	48
444.717	1	31
444.888	1	30
445.058	1	32
445.229	1	31
445.399	1	33
445.570	1	28
445.740	1	30
445.911	1	31
446.081	1	21
446.252	1	40
446.422	1	28
446.593	1	21
446.763	1	28
446.934	1	27
447.104	1	28
447.275	1	32
447.445	1	32
447.616	1	35
447.786	1	40
447.957	1	42
448.127	1	18
448.298	1	41
448.468	1	25
448.639	1	30
448.809	1	27
448.979	1	22
449.150	1	43
449.320	1	32
449.491	1	22
449.661	1	27
449.832	1	26
450.002	1	31
450.173	1	33
450.343	1	31
450.514	1	36
450.684	1	25
450.855	1	28
451.025	1	31
451.196	1	26
451.366	1	25
451.537	1	17
451.707	1	13
451.878	1	29
452.048	1	40
452.218	1	33
452.389	1	40
452.559	1	33
452.730	1	29
452.900	1	25
453.071	1	21
453.241	1	23
453.412	1	21
453.582	1	28
453.753	1	30
453.923	1	36
454.093	1	39
454.264	1	33
454.434	1	31
454.605	1	41
454.775	1	19
454.946	1	28
455.116	1	32
455.287	1	14
455.457	1	27
455.628	1	30
455.798	1	24
455.968	1	34
456.139	1	28
456.309	1	20
456.480	1	7
456.650	1	12
456.821	1	21
456.991	1	32
457.161	1	22
457.332	1	23
457.502	1	16
457.673	1	26
457.843	1	20
458.014	1	23
458.184	1	14
458.355	1	24
458.525	1	20
458.695	1	19
458.866	1	24
459.036	1	27
459.207	1	23
459.377	1	11
459.548	1	29
459.718	1	16
459.888	1	26
460.059	1	23
460.229	1	29
460.400	1	33
460.570	1	24
460.740	1	16
460.911	1	19
461.081	1	28
461.252	1	23
461.422	1	25
461.593	1	21
461.763	1	23
461.933	1	28
462.104	1	13
462.274	1	20
462.445	1	25
462.615	1	18
462.785	1	29
462.956	1	28
463.126	1	28
463.297	1	35
463.467	1	23
463.638	1	31
463.808	1	16
463.978	1	20
464.149	1	23
464.319	1	16
464.490	1	35
464.660	1	16
464.830	1	18
465.001	1	21
465.171	1	23
465.342	1	21
465.512	1	16
465.682	1	21
465.853	1	22
466.023	1	24
466.194	1	21
466.364	1	27
466.534	1	27
466.705	1	29
466.875	1	28
467.045	1	12
467.216	1	32
467.386	1	21
467.557	1	14
467.727	1	22
467.897	1	12
468.068	1	17
468.238	1	20
468.409	1	19
468.579	1	28
468.749	1	14
468.920	1	11
469.090	1	15
469.260	1	10
469.431	1	17
469.601	1	19
469.772	1	27
469.942	1	17
470.112	1	17
470.283	1	24
470.453	1	11
470.623	1	14
470.794	1	11
470.964	1	14
471.135	1	22
471.305	1	15
471.475	1	24
471.646	1	22
471.816	1	10
471.986	1	20
472.157	1	17
472.327	1	10
472.497	1	11
472.668	1	22
472.838	1	26
473.009	1	23
473.179	1	16
473.349	1	11
473.520	1	21
473.690	1	13
473.860	1	27
474.031	1	23
474.201	1	19
474.371	1	21
474.542	1	32
474.712	1	20
474.882	1	17
475.053	1	19
475.223	1	3
475.394	1	18
475.564	1	15
475.734	1	22
475.905	1	37
476.075	1	15
476.245	1	28
476.416	1	21
476.586	1	28
476.756	1	9
476.927	1	23
477.097	1	23
477.267	1	12
477.438	1	27
477.608	1	22
477.778	1	22
477.949	1	18
478.119	1	23
478.289	1	21
478.460	1	18
478.630	1	20
478.800	1	26
478.971	1	23
479.141	1	11
479.311	1	13
479.482	1	17
479.652	1	25
479.822	1	14
479.993	1	21
480.163	1	16
480.333	1	7
480.504	1	23
480.674	1	17
480.844	1	13
481.015	1	22
481.185	1	20
481.355	1	25
481.525	1	10
481.696	1	21
481.866	1	7
482.036	1	19
482.207	1	11
482.377	1	16
482.547	1	24
482.718	1	9
482.888	1	17
483.058	1	18
483.229	1	19
483.399	1	11
483.569	1	14
483.740	1	16
483.910	1	18
484.080	1	7
484.250	1	11
484.421	1	24
484.591	1	16
484.761	1	19
484.932	1	12
485.102	1	20
485.272	1	19
485.443	1	33
485.613	1	25
485.783	1	11
485.953	1	13
486.124	1	14
486.294	1	19
486.464	1	13
486.635	1	17
486.805	1	25
486.975	1	0
487.146	1	10
487.316	1	18
487.486	1	20
487.656	1	13
487.827	1	15
487.997	1	8
488.167	1	12
488.338	1	28
488.508	1	9
488.678	1	17
488.848	1	27
489.019	1	5
489.189	1	18
489.359	1	13
489.529	1	14
489.700	1	15
489.870	1	25
490.040	1	6
490.211	1	6
490.381	1	19
490.551	1	10
490.721	1	16
490.892	1	7
491.062	1	11
491.232	1	17
491.402	1	11
491.573	1	3
491.743	1	22
491.913	1	12
492.084	1	13
492.254	1	12
492.424	1	16
492.594	1	2
492.765	1	11
492.935	1	7
493.105	1	23
493.275	1	16
493.446	1	17
493.616	1	12
493.786	1	19
493.956	1	7
494.127	1	13
494.297	1	4
494.467	1	10
494.637	1	15
494.808	1	15
494.978	1	8
495.148	1	11
495.318	1	18
495.489	1	15
495.659	1	8
495.829	1	7
495.999	1	7
496.170	1	11
496.340	1	16
496.510	1	11
496.680	1	-2
496.851	1	18
497.021	1	5
497.191	1	1
497.361	1	8
497.532	1	12
497.702	1	6
497.872	1	7
498.042	1	20
498.213	1	19
498.383	1	-1
498.553	1	12
498.723	1	10
498.894	1	9
499.064	1	10
499.234	1	17
499.404	1	16
499.574	1	12
499.745	1	17
499.915	1	7
500.085	1	27
500.255	1	22
500.426	1	6
500.596	1	9
500.766	1	4
500.936	1	10
501.106	1	5
501.277	1	15
501.447	1	12
501.617	1	12
501.787	1	7
501.958	1	-1
502.128	1	5
502.298	1	13
502.468	1	8
502.638	1	12
502.809	1	7
502.979	1	6
503.149	1	3
503.319	1	-1
503.489	1	2
503.660	1	10
503.830	1	1
504.000	1	20
504.170	1	13
504.340	1	6
504.511	1	13
504.681	1	12
504.851	1	8
505.021	1	14
505.192	1	8
505.362	1	14
505.532	1	6
505.702	1	1
505.872	1	15
506.043	1	13
506.213	1	9
506.383	1	9
506.553	1	18
506.723	1	14
506.893	1	13
507.064	1	18
507.234	1	4
507.404	1	10
507.574	1	8
507.744	1	11
507.915	1	9
508.085	1	19
508.255	1	12
508.425	1	10
508.595	1	13
508.766	1	17
508.936	1	2
509.106	1	18
509.276	1	13
509.446	1	5
509.616	1	7
509.787	1	24
509.957	1	10
510.127	1	8
510.297	1	9
510.467	1	-5
510.638	1	14
510.808	1	5
510.978	1	4
511.148	1	1
511.318	1	2
511.488	1	-1
511.659	1	4
511.829	1	13
511.999	1	18
512.169	1	11
512.339	1	5
512.509	1	10
512.680	1	4
512.850	1	15
513.020	1	11
513.190	1	20
513.360	1	4
513.530	1	10
513.700	1	8
513.871	1	1
514.041	1	20
514.211	1	14
514.381	1	7
514.551	1	8
514.721	1	2
514.892	1	8
515.062	1	8
515.232	1	10
515.402	1	6
515.572	1	9
515.742	1	20
515.912	1	13
516.083	1	1
516.253	1	7
516.423	1	10
516.593	1	14
516.763	1	15
516.933	1	-1
517.104	1	10
517.274	1	3
517.444	1	9
517.614	1	1
517.784	1	3
517.954	1	8
518.124	1	8
518.294	1	5
518.465	1	4
518.635	1	3
518.805	1	-7
518.975	1	5
519.145	1	6
519.315	1	12
519.485	1	-2
519.656	1	12
519.826	1	6
519.996	1	-4
520.166	1	8
520.336	1	9
520.506	1	6
520.676	1	-3
520.846	1	23
521.017	1	4
521.187	1	3
521.357	1	13
521.527	1	-1
521.697	1	0
521.867	1	1
522.037	1	12
522.207	1	11
522.377	1	6
522.548	1	8
522.718	1	9
522.888	1	13
523.058	1	5
523.228	1	13
523.398	1	17
523.568	1	11
523.738	1	4
523.909	1	11
524.079	1	9
524.249	1	3
524.419	1	4
524.589	1	4
524.759	1	5
524.929	1	-5
525.099	1	5
525.269	1	16
525.439	1	5
525.610	1	25
525.780	1	4
525.950	1	11
526.120	1	9
526.290	1	18
526.460	1	1
526.630	1	10
526.800	1	6
526.970	1	-1
527.140	1	3
527.311	1	-3
527.481	1	-2
527.651	1	7
527.821	1	10
527.991	1	17
528.161	1	16
528.331	1	-1
528.501	1	9
528.671	1	-5
528.841	1	8
529.011	1	3
529.181	1	8
529.352	1	12
529.522	1	12
529.692	1	3
529.862	1	-5
530.032	1	4
530.202	1	13
530.372	1	4
530.542	1	7
530.712	1	4
530.882	1	0
531.052	1	10
531.222	1	12
531.392	1	6
531.563	1	6
531.733	1	5
531.903	1	5
532.073	1	10
532.243	1	5
532.413	1	3
532.583	1	-3
532.753	1	8
532.923	1	1
533.093	1	4
533.263	1	7
533.433	1	7
533.603	1	8
533.773	1	4
533.943	1	8
534.113	1	7
534.284	1	6
534.454	1	10
534.624	1	17
534.794	1	-2
534.964	1	-2
535.134	1	11
535.304	1	5
535.474	1	-1
535.644	1	-1
535.814	1	4
535.984	1	-4
536.154	1	7
536.324	1	2
536.494	1	11
536.664	1	14
536.834	1	3
537.004	1	4
537.174	1	12
537.344	1	-1
537.514	1	-3
537.685	1	7
537.855	1	11
538.025	1	8
538.195	1	8
538.365	1	12
538.535	1	5
538.705	1	2
538.875	1	6
539.045	1	7
539.215	1	3
539.385	1	5
539.555	1	4
539.725	1	4
539.895	1	4
540.065	1	16
540.235	1	13
540.405	1	-4
540.575	1	12
540.745	1	10
540.915	1	9
541.085	1	6
541.255	1	-9
541.425	1	14
541.595	1	6
541.765	1	13
541.935	1	3
542.105	1	-5
542.275	1	10
542.445	1	-6
542.615	1	7
542.785	1	6
542.955	1	-2
543.125	1	-5
543.295	1	16
543.465	1	10
543.635	1	7
543.805	1	12
543.975	1	2
544.145	1	3
544.315	1	8
544.485	1	9
544.655	1	12
544.825	1	-6
544.995	1	-1
545.165	1	6
545.335	1	8
545.505	1	8
545.675	1	11
545.845	1	10
546.015	1	11
546.185	1	5
546.355	1	5
546.525	1	8
546.695	1	6
546.865	1	6
547.035	1	3
547.205	1	-8
547.375	1	10
547.545	1	10
547.715	1	1
547.885	1	10
548.055	1	-6
548.225	1	5
548.395	1	5
548.565	1	0
548.735	1	3
548.905	1	-4
549.075	1	4
549.245	1	-1
549.415	1	0
549.585	1	15
549.755	1	12
549.925	1	4
550.095	1	-4
550.265	1	-1
550.435	1	-2
550.605	1	-3
550.775	1	-3
550.945	1	7
551.115	1	11
551.285	1	5
551.455	1	1
551.625	1	10
551.795	1	12
551.965	1	5
552.135	1	-1
552.305	1	8
552.475	1	2
552.645	1	6
552.815	1	-8
552.985	1	14
553.155	1	3
553.325	1	10
553.495	1	5
553.665	1	-1
553.835	1	-5
554.004	1	6
554.174	1	2
554.344	1	11
554.514	1	-3
554.684	1	2
554.854	1	10
555.024	1	4
555.194	1	2
555.364	1	2
555.534	1	5
555.704	1	4
555.874	1	18
556.044	1	12
556.214	1	-6
556.384	1	3
556.554	1	13
556.724	1	7
556.894	1	0
557.064	1	1
557.234	1	-12
557.404	1	8
557.573	1	8
557.743	1	7
557.913	1	5
558.083	1	6
558.253	1	15
558.423	1	1
558.593	1	2
558.763	1	-4
558.933	1	4
559.103	1	5
559.273	1	1
559.443	1	3
559.613	1	7
559.783	1	1
559.953	1	0
560.122	1	17
560.292	1	3
560.462	1	-5
560.632	1	2
560.802	1	4
560.972	1	8
561.142	1	3
561.312	1	2
561.482	1	10
561.652	1	6
561.822	1	-10
561.992	1	5
562.162	1	4
562.331	1	6
562.501	1	-3
562.671	1	4
562.841	1	-4
563.011	1	7
563.181	1	1
563.351	1	-5
563.521	1	4
563.691	1	3
563.861	1	6
564.031	1	18
564.201	1	10
564.370	1	-6
564.540	1	6
564.710	1	2
564.880	1	12
565.050	1	3
565.220	1	3
565.390	1	8
565.560	1	13
565.730	1	1
565.900	1	-3
566.069	1	8
566.239	1	3
566.409	1	-5
566.579	1	11
566.749	1	-2
566.919	1	11
567.089	1	7
567.259	1	2
567.429	1	0
567.599	1	2
567.768	1	10
567.938	1	-3
568.108	1	5
568.278	1	-7
568.448	1	-8
568.618	1	-2
568.788	1	11
568.958	1	-4
569.128	1	12
569.297	1	-5
569.467	1	7
569.637	1	8
569.807	1	6
569.977	1	5
570.147	1	6
570.317	1	-4
570.487	1	-1
570.656	1	0
570.826	1	2
570.996	1	5
571.166	1	5
571.336	1	2
571.506	1	-1
571.676	1	-2
571.846	1	2
572.015	1	-1
572.185	1	3
572.355	1	5
572.525	1	11
572.695	1	5
572.865	1	-1
573.035	1	0
573.205	1	8
573.374	1	0
573.544	1	4
573.714	1	11
573.884	1	15
574.054	1	-1
574.224	1	9
574.394	1	-2
574.563	1	1
574.733	1	10
574.903	1	-1
575.073	1	2
575.243	1	-6
575.413	1	0
575.583	1	-8
575.752	1	10
575.922	1	4
576.092	1	3
576.262	1	8
576.432	1	5
576.602	1	0
576.772	1	4
576.941	1	8
577.111	1	2
577.281	1	-2
577.451	1	-2
577.621	1	12
577.791	1	6
577.960	1	-10
578.130	1	4
578.300	1	4
578.470	1	7
578.640	1	0
578.810	1	-1
578.979	1	8
579.149	1	1
579.319	1	2
579.489	1	3
579.659	1	-5
579.829	1	-3
579.998	1	-2
580.168	1	5
580.338	1	4
580.508	1	9
580.678	1	6
580.848	1	8
581.017	1	-2
581.187	1	4
581.357	1	-8
581.527	1	8
581.697	1	12
581.867	1	9
582.036	1	-2
582.206	1	9
582.376	1	8
582.546	1	-11
582.716	1	7
582.885	1	-2
583.055	1	3
583.225	1	-9
583.395	1	6
583.565	1	-2
583.735	1	7
583.904	1	2
584.074	1	-1
584.244	1	6
584.414	1	6
584.584	1	6
584.753	1	-1
584.923	1	-2
585.093	1	7
585.263	1	3
585.433	1	6
585.602	1	1
585.772	1	-1
585.942	1	-4
586.112	1	-4
586.282	1	3
586.451	1	-3
586.621	1	-4
586.791	1	2
586.961	1	-2
587.131	1	10
587.300	1	-6
587.470	1	17
587.640	1	11
587.810	1	9
587.980	1	-1
588.149	1	2
588.319	1	-3
588.489	1	4
588.659	1	5
588.829	1	4
588.998	1	8
589.168	1	7
589.338	1	2
589.508	1	3
589.677	1	-2
589.847	1	-2
590.017	1	14
590.187	1	-3
590.357	1	7
590.526	1	5
590.696	1	13
590.866	1	12
591.036	1	-3
591.205	1	16
591.375	1	3
591.545	1	-1
591.715	1	1
591.885	1	3
592.054	1	7
592.224	1	0
592.394	1	1
592.564	1	0
592.733	1	5
592.903	1	5
593.073	1	2
593.243	1	5
593.412	1	8
593.582	1	6
593.752	1	-3
593.922	1	2
594.091	1	-2
594.261	1	-2
594.431	1	10
594.601	1	9
594.771	1	11
594.940	1	1
595.110	1	2
595.280	1	8
595.450	1	1
595.619	1	-3
595.789	1	3
595.959	1	13
596.129	1	2
596.298	1	9
596.468	1	9
596.638	1	13
596.808	1	1
596.977	1	3
597.147	1	2
597.317	1	-6
597.487	1	11
597.656	1	5
597.826	1	5
597.996	1	6
598.166	1	6
598.335	1	-1
598.505	1	8
598.675	1	-4
598.844	1	5
599.014	1	3
599.184	1	2
599.354	1	-6
599.523	1	5
599.693	1	-1
599.863	1	-1
600.033	1	2
600.202	1	9
600.372	1	3
600.542	1	4
600.712	1	0
600.881	1	1
601.051	1	1
601.221	1	14
601.390	1	-5
601.560	1	15
601.730	1	5
601.900	1	6
602.069	1	12
602.239	1	-2
602.409	1	-10
602.578	1	2
602.748	1	3
602.918	1	9
603.088	1	9
603.257	1	11
603.427	1	-1
603.597	1	9
603.767	1	5
603.936	1	7
604.106	1	-2
604.276	1	7
604.445	1	3
604.615	1	-6
604.785	1	-3
604.954	1	7
605.124	1	-1
605.294	1	7
605.464	1	3
605.633	1	11
605.803	1	1
605.973	1	4
606.142	1	-1
606.312	1	17
606.482	1	-3
606.652	1	10
606.821	1	-7
606.991	1	-7
607.161	1	-1
607.330	1	9
607.500	1	0
607.670	1	-3
607.839	1	12
608.009	1	20
608.179	1	15
608.348	1	-4
608.518	1	3
608.688	1	12
608.858	1	-5
609.027	1	-8
609.197	1	5
609.367	1	16
609.536	1	9
609.706	1	6
609.876	1	5
610.045	1	0
610.215	1	10
610.385	1	4
610.554	1	-1
610.724	1	5
610.894	1	4
611.063	1	11
611.233	1	-1
611.403	1	-12
611.572	1	4
611.742	1	8
611.912	1	11
612.081	1	-4
612.251	1	9
612.421	1	1
612.590	1	-1
612.760	1	-1
612.930	1	1
613.099	1	7
613.269	1	16
613.439	1	5
613.608	1	-4
613.778	1	6
613.948	1	4
614.117	1	2
614.287	1	9
614.457	1	2
614.626	1	1
614.796	1	1
614.966	1	-3
615.135	1	9
615.305	1	7
615.475	1	7
615.644	1	3
615.814	1	5
615.984	1	-3
616.153	1	-3
616.323	1	5
616.493	1	7
616.662	1	10
616.832	1	-2
617.002	1	6
617.171	1	4
617.341	1	0
617.511	1	-5
617.680	1	-1
617.850	1	14
618.019	1	8
618.189	1	18
618.359	1	10
618.528	1	2
618.698	1	11
618.868	1	-1
619.037	1	3
619.207	1	3
619.377	1	-2
619.546	1	6
619.716	1	7
619.885	1	-1
620.055	1	1
620.225	1	3
620.394	1	2
620.564	1	11
620.734	1	17
620.903	1	-5
621.073	1	10
621.242	1	5
621.412	1	0
621.582	1	-1
621.751	1	7
621.921	1	10
622.091	1	-1
622.260	1	5
622.430	1	10
622.599	1	2
622.769	1	0
622.939	1	8
623.108	1	16
623.278	1	-3
623.448	1	7
623.617	1	-3
623.787	1	3
623.956	1	10
624.126	1	1
624.296	1	1
624.465	1	12
624.635	1	18
624.804	1	6
624.974	1	11
625.144	1	9
625.313	1	-4
625.483	1	-4
625.652	1	-1
625.822	1	-4
625.992	1	3
626.161	1	17
626.331	1	13
626.501	1	5
626.670	1	8
626.840	1	-1
627.009	1	1
627.179	1	10
627.348	1	18
627.518	1	3
627.688	1	3
627.857	1	13
628.027	1	-6
628.196	1	6
628.366	1	12
628.536	1	9
628.705	1	-2
628.875	1	6
629.044	1	5
629.214	1	7
629.384	1	6
629.553	1	13
629.723	1	12
629.892	1	3
630.062	1	3
630.232	1	-5
630.401	1	15
630.571	1	10
630.740	1	0
630.910	1	6
631.079	1	6
631.249	1	4
631.419	1	16
631.588	1	-11
631.758	1	12
631.927	1	-2
632.097	1	10
632.266	1	4
632.436	1	9
632.606	1	-6
632.775	1	11
632.945	1	15
633.114	1	13
633.284	1	4
633.453	1	-7
633.623	1	6
633.793	1	9
633.962	1	5
634.132	1	13
634.301	1	6
634.471	1	7
634.640	1	2
634.810	1	9
634.979	1	4
635.149	1	10
635.319	1	7
635.488	1	4
635.658	1	13
635.827	1	3
635.997	1	6
636.166	1	2
636.336	1	-3
636.505	1	17
636.675	1	-2
636.845	1	9
637.014	1	6
637.184	1	17
637.353	1	9
637.523	1	14
637.692	1	7
637.862	1	-1
638.031	1	-4
638.201	1	9
638.370	1	6
638.540	1	3
638.710	1	2
638.879	1	-5
639.049	1	2
639.218	1	9
639.388	1	-1
639.557	1	-2
639.727	1	-2
639.896	1	1
640.066	1	0
640.235	1	-3
640.405	1	9
640.574	1	5
640.744	1	-12
640.914	1	6
641.083	1	2
641.253	1	5
641.422	1	3
641.592	1	12
641.761	1	3
641.931	1	9
642.100	1	17
642.270	1	3
642.439	1	3
642.609	1	8
642.778	1	9
642.948	1	5
643.117	1	23
643.287	1	10
643.456	1	-10
643.626	1	16
643.795	1	1
643.965	1	7
644.134	1	-1
644.304	1	7
644.473	1	12
644.643	1	17
644.812	1	3
644.982	1	8
645.151	1	3
645.321	1	-4
645.490	1	14
645.660	1	3
645.829	1	9
645.999	1	7
646.168	1	12
646.338	1	8
646.507	1	3
646.677	1	1
646.846	1	1
647.016	1	-2
647.185	1	12
647.355	1	-8
647.524	1	12
647.694	1	13
647.863	1	4
648.033	1	0
648.202	1	7
648.372	1	0
648.541	1	4
648.711	1	4
648.880	1	0
649.050	1	0
649.219	1	13
649.389	1	11
649.558	1	3
649.728	1	7
649.897	1	2
650.067	1	13
650.236	1	3
650.406	1	2
650.575	1	13
650.745	1	13
650.914	1	-3
651.084	1	8
651.253	1	3
651.423	1	-1
651.592	1	2
651.762	1	8
651.931	1	11
652.101	1	1
652.270	1	8
652.440	1	7
652.609	1	11
652.778	1	1
652.948	1	9
653.117	1	14
653.287	1	6
653.456	1	9
653.626	1	14
653.795	1	2
653.965	1	7
654.134	1	7
654.304	1	-5
654.473	1	5
654.643	1	12
654.812	1	3
654.982	1	1
655.151	1	3
655.320	1	15
655.490	1	-1
655.659	1	-5
655.829	1	2
655.998	1	4
656.168	1	5
656.337	1	8
656.507	1	9
656.676	1	7
656.846	1	10
657.015	1	5
657.184	1	10
657.354	1	7
657.523	1	5
657.693	1	1
657.862	1	5
658.032	1	4
658.201	1	5
658.371	1	16
658.540	1	1
658.709	1	-2
658.879	1	11
659.048	1	3
659.218	1	2
659.387	1	12
659.557	1	7
659.726	1	12
659.895	1	3
660.065	1	1
660.234	1	6
660.404	1	17
660.573	1	6
660.743	1	8
660.912	1	10
661.081	1	13
661.251	1	6
661.420	1	12
661.590	1	3
661.759	1	5
661.929	1	13
662.098	1	28
662.267	1	11
662.437	1	10
662.606	1	7
662.776	1	5
662.945	1	7
663.115	1	13
663.284	1	-5
663.453	1	14
663.623	1	4
663.792	1	17
663.962	1	5
664.131	1	6
664.300	1	14
664.470	1	2
664.639	1	5
664.809	1	3
664.978	1	9
665.148	1	8
665.317	1	4
665.486	1	15
665.656	1	8
665.825	1	10
665.995	1	4
666.164	1	4
666.333	1	13
666.503	1	1
666.672	1	4
666.842	1	5
667.011	1	9
667.180	1	7
667.350	1	9
667.519	1	3
667.689	1	4
667.858	1	18
668.027	1	13
668.197	1	6
668.366	1	-3
668.536	1	13
668.705	1	1
668.874	1	12
669.044	1	9
669.213	1	18
669.382	1	-7
669.552	1	12
669.721	1	18
669.891	1	14
670.060	1	12
670.229	1	21
670.399	1	10
670.568	1	7
670.738	1	8
670.907	1	3
671.076	1	-4
671.246	1	2
671.415	1	4
671.584	1	14
671.754	1	6
671.923	1	0
672.093	1	9
672.262	1	5
672.431	1	10
672.601	1	11
672.770	1	8
672.939	1	17
673.109	1	0
673.278	1	16
673.448	1	15
673.617	1	9
673.786	1	4
