325.333	1	10
325.504	1	13
325.675	1	14
325.846	1	14
326.017	1	15
326.188	1	22
326.359	1	21
326.531	1	21
326.702	1	13
326.873	1	25
327.044	1	13
327.215	1	5
327.386	1	16
327.557	1	9
327.728	1	8
327.899	1	22
328.070	1	25
328.241	1	25
328.412	1	12
328.583	1	17
328.754	1	17
328.926	1	19
329.097	1	-1
329.268	1	31
329.439	1	15
329.610	1	21
329.781	1	15
329.952	1	20
330.123	1	24
330.294	1	21
330.465	1	15
330.636	1	20
330.807	1	16
330.978	1	9
331.149	1	15
331.320	1	16
331.492	1	24
331.663	1	21
331.834	1	30
332.005	1	25
332.176	1	27
332.347	1	24
332.518	1	10
332.689	1	29
332.860	1	22
333.031	1	28
333.202	1	22
333.373	1	26
333.544	1	22
333.715	1	24
333.886	1	19
334.057	1	25
334.228	1	19
334.399	1	17
334.570	1	26
334.741	1	16
334.912	1	28
335.084	1	39
335.255	1	24
335.426	1	11
335.597	1	29
335.768	1	23
335.939	1	28
336.110	1	32
336.281	1	14
336.452	1	24
336.623	1	32
336.794	1	28
336.965	1	41
337.136	1	34
337.307	1	25
337.478	1	25
337.649	1	31
337.820	1	30
337.991	1	32
338.162	1	32
338.333	1	29
338.504	1	31
338.675	1	30
338.846	1	38
339.017	1	35
339.188	1	28
339.359	1	31
339.530	1	32
339.701	1	38
339.872	1	46
340.043	1	30
340.214	1	32
340.385	1	41
340.556	1	29
340.727	1	34
340.898	1	39
341.069	1	38
341.240	1	24
341.411	1	37
341.582	1	42
341.753	1	21
341.924	1	36
342.095	1	45
342.266	1	55
342.437	1	43
342.608	1	26
342.779	1	41
342.950	1	37
343.121	1	44
343.292	1	33
343.463	1	44
343.634	1	40
343.805	1	43
343.976	1	34
344.147	1	49
344.318	1	36
344.489	1	44
344.660	1	44
344.831	1	34
345.002	1	35
345.173	1	56
345.344	1	46
345.515	1	48
345.686	1	47
345.857	1	46
346.028	1	48
346.199	1	39
346.370	1	42
346.541	1	40
346.712	1	35
346.883	1	52
347.054	1	51
347.225	1	58
347.396	1	54
347.567	1	48
347.738	1	29
347.909	1	52
348.080	1	33
348.251	1	50
348.422	1	44
348.593	1	48
348.764	1	41
348.935	1	47
349.106	1	42
349.277	1	62
349.448	1	52
349.619	1	50
349.790	1	50
349.961	1	57
350.132	1	55
350.303	1	41
350.474	1	59
350.645	1	58
350.816	1	47
350.987	1	59
351.157	1	40
351.328	1	58
351.499	1	49
351.670	1	48
351.841	1	59
352.012	1	63
352.183	1	61
352.354	1	53
352.525	1	63
352.696	1	55
352.867	1	58
353.038	1	63
353.209	1	57
353.380	1	40
353.551	1	55
353.722	1	52
353.893	1	60
354.064	1	69
354.235	1	52
354.406	1	56
354.576	1	69
354.747	1	57
354.918	1	65
355.089	1	57
355.260	1	62
355.431	1	72
355.602	1	49
355.773	1	57
355.944	1	50
356.115	1	58
356.286	1	64
356.457	1	65
356.628	1	66
356.799	1	61
356.970	1	62
357.141	1	54
357.311	1	47
357.482	1	56
357.653	1	56
357.824	1	74
357.995	1	62
358.166	1	57
358.337	1	67
358.508	1	69
358.679	1	65
358.850	1	68
359.021	1	68
359.192	1	65
359.363	1	55
359.533	1	57
359.704	1	71
359.875	1	70
360.046	1	57
360.217	1	57
360.388	1	69
360.559	1	62
360.730	1	74
360.901	1	69
361.072	1	72
361.243	1	69
361.414	1	68
361.584	1	59
361.755	1	69
361.926	1	51
362.097	1	70
362.268	1	62
362.439	1	52
362.610	1	63
362.781	1	66
362.952	1	54
363.123	1	58
363.293	1	56
363.464	1	76
363.635	1	72
363.806	1	66
363.977	1	71
364.148	1	65
364.319	1	62
364.490	1	69
364.661	1	66
364.832	1	63
365.002	1	76
365.173	1	72
365.344	1	72
365.515	1	70
365.686	1	75
365.857	1	70
366.028	1	81
366.199	1	63
366.370	1	62
366.540	1	64
366.711	1	48
366.882	1	62
367.053	1	65
367.224	1	76
367.395	1	77
367.566	1	84
367.737	1	76
367.908	1	73
368.078	1	70
368.249	1	80
368.420	1	62
368.591	1	62
368.762	1	63
368.933	1	76
369.104	1	64
369.274	1	71
369.445	1	60
369.616	1	70
369.787	1	74
369.958	1	81
370.129	1	67
370.300	1	79
370.471	1	73
370.641	1	74
370.812	1	78
370.983	1	75
371.154	1	61
371.325	1	84
371.496	1	74
371.667	1	79
371.837	1	62
372.008	1	71
372.179	1	61
372.350	1	95
372.521	1	65
372.692	1	71
372.863	1	74
373.033	1	66
373.204	1	72
373.375	1	75
373.546	1	83
373.717	1	70
373.888	1	86
374.059	1	85
374.229	1	80
374.400	1	69
374.571	1	66
374.742	1	84
374.913	1	82
375.084	1	79
375.254	1	88
375.425	1	75
375.596	1	77
375.767	1	77
375.938	1	81
376.109	1	75
376.279	1	77
376.450	1	75
376.621	1	81
376.792	1	76
376.963	1	84
377.134	1	80
377.304	1	84
377.475	1	89
377.646	1	88
377.817	1	68
377.988	1	81
378.159	1	76
378.329	1	87
378.500	1	81
378.671	1	82
378.842	1	74
379.013	1	75
379.184	1	77
379.354	1	92
379.525	1	90
379.696	1	93
379.867	1	93
380.038	1	75
380.209	1	78
380.379	1	83
380.550	1	74
380.721	1	101
380.892	1	87
381.063	1	89
381.233	1	88
381.404	1	85
381.575	1	99
381.746	1	102
381.917	1	87
382.087	1	82
382.258	1	85
382.429	1	95
382.600	1	105
382.771	1	92
382.941	1	86
383.112	1	103
383.283	1	94
383.454	1	89
383.625	1	84
383.795	1	97
383.966	1	85
384.137	1	104
384.308	1	101
384.479	1	96
384.649	1	85
384.820	1	95
384.991	1	90
385.162	1	97
385.333	1	95
385.503	1	85
385.674	1	84
385.845	1	103
386.016	1	96
386.187	1	89
386.357	1	89
386.528	1	98
386.699	1	98
386.870	1	104
387.041	1	92
387.211	1	92
387.382	1	109
387.553	1	103
387.724	1	88
387.894	1	101
388.065	1	99
388.236	1	100
388.407	1	101
388.578	1	95
388.748	1	93
388.919	1	104
389.090	1	104
389.261	1	101
389.431	1	103
389.602	1	107
389.773	1	94
389.944	1	104
390.114	1	104
390.285	1	104
390.456	1	97
390.627	1	102
390.798	1	95
390.968	1	93
391.139	1	108
391.310	1	98
391.481	1	105
391.651	1	102
391.822	1	97
391.993	1	101
392.164	1	89
392.334	1	104
392.505	1	94
392.676	1	107
392.847	1	111
393.017	1	105
393.188	1	100
393.359	1	105
393.530	1	107
393.700	1	101
393.871	1	102
394.042	1	95
394.213	1	99
394.383	1	104
394.554	1	97
394.725	1	110
394.896	1	101
395.066	1	107
395.237	1	94
395.408	1	111
395.579	1	109
395.749	1	105
395.920	1	111
396.091	1	103
396.262	1	104
396.432	1	108
396.603	1	114
396.774	1	110
396.945	1	114
397.115	1	100
397.286	1	91
397.457	1	105
397.627	1	114
397.798	1	113
397.969	1	106
398.140	1	103
398.310	1	110
398.481	1	116
398.652	1	109
398.823	1	105
398.993	1	103
399.164	1	118
399.335	1	115
399.505	1	114
399.676	1	107
399.847	1	102
400.018	1	109
400.188	1	112
400.359	1	113
400.530	1	114
400.700	1	96
400.871	1	108
401.042	1	100
401.213	1	113
401.383	1	111
401.554	1	113
401.725	1	111
401.895	1	100
402.066	1	105
402.237	1	116
402.408	1	102
402.578	1	104
402.749	1	113
402.920	1	110
403.090	1	106
403.261	1	106
403.432	1	107
403.603	1	112
403.773	1	107
403.944	1	112
404.115	1	113
404.285	1	122
404.456	1	103
404.627	1	123
404.797	1	100
404.968	1	105
405.139	1	106
405.310	1	108
405.480	1	103
405.651	1	103
405.822	1	117
405.992	1	111
406.163	1	106
406.334	1	97
406.504	1	114
406.675	1	120
406.846	1	120
407.016	1	123
407.187	1	109
407.358	1	104
407.528	1	118
407.699	1	100
407.870	1	115
408.041	1	115
408.211	1	127
408.382	1	101
408.553	1	110
408.723	1	124
408.894	1	106
409.065	1	124
409.235	1	126
409.406	1	101
409.577	1	107
409.747	1	128
409.918	1	106
410.089	1	128
410.259	1	116
410.430	1	119
410.601	1	113
410.771	1	114
410.942	1	128
411.113	1	115
411.283	1	110
411.454	1	115
411.625	1	103
411.795	1	129
411.966	1	109
412.137	1	110
412.307	1	114
412.478	1	104
412.649	1	113
412.819	1	110
412.990	1	115
413.161	1	120
413.331	1	114
413.502	1	111
413.672	1	101
413.843	1	116
414.014	1	116
414.184	1	120
414.355	1	114
414.526	1	108
414.696	1	118
414.867	1	111
415.038	1	103
415.208	1	113
415.379	1	109
415.550	1	112
415.720	1	100
415.891	1	112
416.062	1	109
416.232	1	112
416.403	1	107
416.573	1	127
416.744	1	106
416.915	1	116
417.085	1	113
417.256	1	110
417.427	1	101
417.597	1	113
417.768	1	102
417.939	1	115
418.109	1	107
418.280	1	110
418.450	1	115
418.621	1	99
418.792	1	106
418.962	1	112
419.133	1	123
419.304	1	108
419.474	1	104
419.645	1	111
419.815	1	99
419.986	1	111
420.157	1	115
420.327	1	115
420.498	1	116
420.669	1	100
420.839	1	116
421.010	1	101
421.180	1	107
421.351	1	104
421.522	1	112
421.692	1	111
421.863	1	109
422.033	1	113
422.204	1	109
422.375	1	95
422.545	1	116
422.716	1	95
422.886	1	105
423.057	1	115
423.228	1	110
423.398	1	103
423.569	1	109
423.740	1	98
423.910	1	95
424.081	1	106
424.251	1	97
424.422	1	121
424.593	1	103
424.763	1	98
424.934	1	97
425.104	1	94
425.275	1	96
425.445	1	108
425.616	1	98
425.787	1	87
425.957	1	102
426.128	1	121
426.298	1	107
426.469	1	91
426.640	1	101
426.810	1	98
426.981	1	99
427.151	1	86
427.322	1	110
427.493	1	104
427.663	1	102
427.834	1	97
428.004	1	109
428.175	1	105
428.345	1	95
428.516	1	94
428.687	1	106
428.857	1	95
429.028	1	94
429.198	1	96
429.369	1	108
429.540	1	107
429.710	1	89
429.881	1	101
430.051	1	99
430.222	1	97
430.392	1	103
430.563	1	101
430.734	1	108
430.904	1	112
431.075	1	107
431.245	1	101
431.416	1	96
431.586	1	99
431.757	1	99
431.927	1	88
432.098	1	102
432.269	1	108
432.439	1	98
432.610	1	108
432.780	1	110
432.951	1	101
433.121	1	93
433.292	1	101
433.462	1	107
433.633	1	90
433.804	1	100
433.974	1	99
434.145	1	105
434.315	1	90
434.486	1	102
434.656	1	90
434.827	1	92
434.997	1	79
435.168	1	102
435.339	1	107
435.509	1	95
435.680	1	97
435.850	1	103
436.021	1	94
436.191	1	100
436.362	1	96
436.532	1	101
436.703	1	98
436.873	1	97
437.044	1	82
437.214	1	101
437.385	1	96
437.556	1	87
437.726	1	104
437.897	1	99
438.067	1	96
438.238	1	81
438.408	1	91
438.579	1	89
438.749	1	87
438.920	1	100
439.090	1	103
439.261	1	80
439.431	1	77
439.602	1	92
439.772	1	80
439.943	1	90
440.113	1	90
440.284	1	95
440.455	1	88
440.625	1	81
440.796	1	102
440.966	1	87
441.137	1	82
441.307	1	78
441.478	1	91
441.648	1	91
441.819	1	79
441.989	1	87
442.160	1	91
442.330	1	81
442.501	1	83
442.671	1	85
442.842	1	76
443.012	1	76
443.183	1	89
443.353	1	78
443.524	1	84
443.694	1	95
443.865	1	78
444.035	1	91
444.206	1	87
444.376	1	71
444.547	1	93
444.717	1	86
444.888	1	76
445.058	1	79
445.229	1	84
445.399	1	78
445.570	1	93
445.740	1	82
445.911	1	75
446.081	1	70
446.252	1	90
446.422	1	73
446.593	1	73
446.763	1	86
446.934	1	86
447.104	1	87
447.275	1	81
447.445	1	88
447.616	1	80
447.786	1	79
447.957	1	78
448.127	1	90
448.298	1	81
448.468	1	75
448.639	1	79
448.809	1	77
448.979	1	92
449.150	1	78
449.320	1	89
449.491	1	89
449.661	1	70
449.832	1	68
450.002	1	88
450.173	1	89
450.343	1	78
450.514	1	85
450.684	1	74
450.855	1	83
451.025	1	81
451.196	1	75
451.366	1	77
451.537	1	79
451.707	1	64
451.878	1	69
452.048	1	82
452.218	1	79
452.389	1	87
452.559	1	85
452.730	1	82
452.900	1	72
453.071	1	62
453.241	1	80
453.412	1	62
453.582	1	77
453.753	1	73
453.923	1	79
454.093	1	74
454.264	1	83
454.434	1	71
454.605	1	73
454.775	1	71
454.946	1	71
455.116	1	74
455.287	1	70
455.457	1	62
455.628	1	64
455.798	1	71
455.968	1	73
456.139	1	79
456.309	1	68
456.480	1	57
456.650	1	67
456.821	1	56
456.991	1	70
457.161	1	63
457.332	1	74
457.502	1	60
457.673	1	72
457.843	1	73
458.014	1	62
458.184	1	63
458.355	1	56
458.525	1	74
458.695	1	73
458.866	1	63
459.036	1	69
459.207	1	69
459.377	1	59
459.548	1	76
459.718	1	65
459.888	1	69
460.059	1	67
460.229	1	72
460.400	1	77
460.570	1	67
460.740	1	67
460.911	1	72
461.081	1	67
461.252	1	61
461.422	1	63
461.593	1	64
461.763	1	62
461.933	1	67
462.104	1	61
462.274	1	70
462.445	1	73
462.615	1	68
462.785	1	56
462.956	1	70
463.126	1	67
463.297	1	60
463.467	1	61
463.638	1	66
463.808	1	68
463.978	1	65
464.149	1	61
464.319	1	51
464.490	1	78
464.660	1	64
464.830	1	64
465.001	1	63
465.171	1	63
465.342	1	72
465.512	1	58
465.682	1	65
465.853	1	67
466.023	1	70
466.194	1	59
466.364	1	71
466.534	1	75
466.705	1	62
466.875	1	57
467.045	1	49
467.216	1	63
467.386	1	50
467.557	1	64
467.727	1	54
467.897	1	48
468.068	1	67
468.238	1	54
468.409	1	60
468.579	1	55
468.749	1	53
468.920	1	50
469.090	1	57
469.260	1	49
469.431	1	52
469.601	1	64
469.772	1	59
469.942	1	46
470.112	1	61
470.283	1	53
470.453	1	60
470.623	1	51
470.794	1	52
470.964	1	55
471.135	1	56
471.305	1	47
471.475	1	52
471.646	1	53
471.816	1	51
471.986	1	58
472.157	1	59
472.327	1	48
472.497	1	59
472.668	1	48
472.838	1	49
473.009	1	63
473.179	1	47
473.349	1	42
473.520	1	61
473.690	1	54
473.860	1	52
474.031	1	48
474.201	1	48
474.371	1	57
474.542	1	53
474.712	1	57
474.882	1	46
475.053	1	69
475.223	1	35
475.394	1	54
475.564	1	46
475.734	1	62
475.905	1	65
476.075	1	60
476.245	1	63
476.416	1	64
476.586	1	44
476.756	1	60
476.927	1	49
477.097	1	57
477.267	1	41
477.438	1	57
477.608	1	50
477.778	1	57
477.949	1	52
478.119	1	53
478.289	1	52
478.460	1	52
478.630	1	47
478.800	1	50
478.971	1	50
479.141	1	43
479.311	1	42
479.482	1	54
479.652	1	41
479.822	1	44
479.993	1	50
480.163	1	49
480.333	1	48
480.504	1	56
480.674	1	45
480.844	1	46
481.015	1	58
481.185	1	50
481.355	1	48
481.525	1	49
481.696	1	53
481.866	1	48
482.036	1	48
482.207	1	40
482.377	1	44
482.547	1	49
482.718	1	43
482.888	1	43
483.058	1	43
483.229	1	35
483.399	1	46
483.569	1	44
483.740	1	49
483.910	1	47
484.080	1	47
484.250	1	50
484.421	1	40
484.591	1	49
484.761	1	46
484.932	1	51
485.102	1	58
485.272	1	39
485.443	1	57
485.613	1	46
485.783	1	37
485.953	1	42
486.124	1	52
486.294	1	38
486.464	1	42
486.635	1	54
486.805	1	47
486.975	1	37
487.146	1	42
487.316	1	36
487.486	1	40
487.656	1	34
487.827	1	34
487.997	1	40
488.167	1	31
488.338	1	50
488.508	1	33
488.678	1	33
488.848	1	55
489.019	1	40
489.189	1	45
489.359	1	38
489.529	1	42
489.700	1	43
489.870	1	51
490.040	1	28
490.211	1	37
490.381	1	46
490.551	1	31
490.721	1	41
490.892	1	37
491.062	1	41
491.232	1	40
491.402	1	33
491.573	1	33
491.743	1	39
491.913	1	32
492.084	1	49
492.254	1	31
492.424	1	36
492.594	1	41
492.765	1	35
492.935	1	31
493.105	1	47
493.275	1	42
493.446	1	50
493.616	1	41
493.786	1	37
493.956	1	40
494.127	1	33
494.297	1	39
494.467	1	37
494.637	1	31
494.808	1	31
494.978	1	27
495.148	1	39
495.318	1	39
495.489	1	38
495.659	1	45
495.829	1	33
495.999	1	23
496.170	1	38
496.340	1	38
496.510	1	26
496.680	1	26
496.851	1	39
497.021	1	30
497.191	1	35
497.361	1	38
497.532	1	33
497.702	1	24
497.872	1	44
498.042	1	43
498.213	1	22
498.383	1	38
498.553	1	36
498.723	1	24
498.894	1	39
499.064	1	51
499.234	1	28
499.404	1	35
499.574	1	43
499.745	1	32
499.915	1	32
500.085	1	33
500.255	1	36
500.426	1	34
500.596	1	44
500.766	1	24
500.936	1	32
501.106	1	23
501.277	1	37
501.447	1	32
501.617	1	25
501.787	1	35
501.958	1	29
502.128	1	25
502.298	1	29
502.468	1	32
502.638	1	23
502.809	1	31
502.979	1	27
503.149	1	17
503.319	1	29
503.489	1	25
503.660	1	25
503.830	1	35
504.000	1	30
504.170	1	19
504.340	1	21
504.511	1	29
504.681	1	16
504.851	1	32
505.021	1	34
505.192	1	20
505.362	1	24
505.532	1	40
505.702	1	26
505.872	1	27
506.043	1	24
506.213	1	16
506.383	1	23
506.553	1	24
506.723	1	29
506.893	1	24
507.064	1	27
507.234	1	21
507.404	1	22
507.574	1	21
507.744	1	20
507.915	1	26
508.085	1	34
508.255	1	36
508.425	1	21
508.595	1	25
508.766	1	33
508.936	1	11
509.106	1	29
509.276	1	35
509.446	1	22
509.616	1	26
509.787	1	17
509.957	1	31
510.127	1	21
510.297	1	19
510.467	1	15
510.638	1	23
510.808	1	16
510.978	1	22
511.148	1	23
511.318	1	28
511.488	1	14
511.659	1	24
511.829	1	11
511.999	1	28
512.169	1	27
512.339	1	27
512.509	1	22
512.680	1	20
512.850	1	22
513.020	1	25
513.190	1	35
513.360	1	23
513.530	1	23
513.700	1	32
513.871	1	14
514.041	1	19
514.211	1	20
514.381	1	23
514.551	1	22
514.721	1	15
514.892	1	28
515.062	1	28
515.232	1	22
515.402	1	13
515.572	1	9
515.742	1	18
515.912	1	19
516.083	1	21
516.253	1	24
516.423	1	21
516.593	1	29
516.763	1	28
516.933	1	16
517.104	1	16
517.274	1	10
517.444	1	30
517.614	1	11
517.784	1	21
517.954	1	20
518.124	1	17
518.294	1	17
518.465	1	17
518.635	1	21
518.805	1	10
518.975	1	22
519.145	1	23
519.315	1	23
519.485	1	11
519.656	1	23
519.826	1	15
519.996	1	10
520.166	1	20
520.336	1	27
520.506	1	14
520.676	1	19
520.846	1	25
521.017	1	11
521.187	1	14
521.357	1	20
521.527	1	18
521.697	1	20
521.867	1	11
522.037	1	20
522.207	1	21
522.377	1	20
522.548	1	12
522.718	1	24
522.888	1	25
523.058	1	20
523.228	1	27
523.398	1	25
523.568	1	15
523.738	1	20
523.909	1	26
524.079	1	13
524.249	1	22
524.419	1	24
524.589	1	16
524.759	1	10
524.929	1	8
525.099	1	24
525.269	1	23
525.439	1	15
525.610	1	24
525.780	1	15
525.950	1	19
526.120	1	17
526.290	1	11
526.460	1	9
526.630	1	12
526.800	1	6
526.970	1	12
527.140	1	25
527.311	1	12
527.481	1	14
527.651	1	18
527.821	1	12
527.991	1	25
528.161	1	21
528.331	1	17
528.501	1	21
528.671	1	9
528.841	1	17
529.011	1	12
529.181	1	21
529.352	1	21
529.522	1	10
529.692	1	19
529.862	1	11
530.032	1	17
530.202	1	16
530.372	1	11
530.542	1	25
530.712	1	15
530.882	1	22
531.052	1	16
531.222	1	16
531.392	1	10
531.563	1	15
531.733	1	19
531.903	1	8
532.073	1	15
532.243	1	11
532.413	1	15
532.583	1	19
532.753	1	16
532.923	1	10
533.093	1	9
533.263	1	27
533.433	1	21
533.603	1	14
533.773	1	18
533.943	1	16
534.113	1	15
534.284	1	13
534.454	1	23
534.624	1	25
534.794	1	10
534.964	1	20
535.134	1	12
535.304	1	15
535.474	1	19
535.644	1	17
535.814	1	12
535.984	1	12
536.154	1	8
536.324	1	14
536.494	1	22
536.664	1	16
536.834	1	11
537.004	1	14
537.174	1	22
537.344	1	14
537.514	1	6
537.685	1	7
537.855	1	21
538.025	1	22
538.195	1	9
538.365	1	21
538.535	1	6
538.705	1	5
538.875	1	19
539.045	1	18
539.215	1	17
539.385	1	15
539.555	1	26
539.725	1	15
539.895	1	-1
540.065	1	27
540.235	1	23
540.405	1	10
540.575	1	13
540.745	1	14
540.915	1	17
541.085	1	17
541.255	1	10
541.425	1	19
541.595	1	10
541.765	1	15
541.935	1	11
542.105	1	-1
542.275	1	15
542.445	1	4
542.615	1	15
542.785	1	23
542.955	1	12
543.125	1	4
543.295	1	12
543.465	1	12
543.635	1	16
543.805	1	25
543.975	1	7
544.145	1	14
544.315	1	3
544.485	1	23
544.655	1	17
544.825	1	2
544.995	1	14
545.165	1	6
545.335	1	17
545.505	1	5
545.675	1	11
545.845	1	23
546.015	1	19
546.185	1	20
546.355	1	18
546.525	1	14
546.695	1	4
546.865	1	9
547.035	1	17
547.205	1	8
547.375	1	10
547.545	1	28
547.715	1	3
547.885	1	19
548.055	1	11
548.225	1	17
548.395	1	7
548.565	1	11
548.735	1	20
548.905	1	7
549.075	1	14
549.245	1	8
549.415	1	2
549.585	1	17
549.755	1	18
549.925	1	0
550.095	1	10
550.265	1	15
550.435	1	12
550.605	1	1
550.775	1	10
550.945	1	17
551.115	1	12
551.285	1	12
551.455	1	0
551.625	1	14
551.795	1	10
551.965	1	17
552.135	1	2
552.305	1	12
552.475	1	0
552.645	1	0
552.815	1	9
552.985	1	14
553.155	1	20
553.325	1	9
553.495	1	9
553.665	1	10
553.835	1	13
554.004	1	13
554.174	1	7
554.344	1	9
554.514	1	5
554.684	1	16
554.854	1	17
555.024	1	3
555.194	1	9
555.364	1	11
555.534	1	11
555.704	1	6
555.874	1	10
556.044	1	7
556.214	1	8
556.384	1	3
556.554	1	21
556.724	1	22
556.894	1	10
557.064	1	8
557.234	1	5
557.404	1	9
557.573	1	12
557.743	1	8
557.913	1	4
558.083	1	10
558.253	1	9
558.423	1	7
558.593	1	24
558.763	1	5
558.933	1	15
559.103	1	12
559.273	1	11
559.443	1	14
559.613	1	11
559.783	1	8
559.953	1	7
560.122	1	9
560.292	1	10
560.462	1	2
560.632	1	10
560.802	1	10
560.972	1	9
561.142	1	10
561.312	1	4
561.482	1	11
561.652	1	16
561.822	1	7
561.992	1	6
562.162	1	8
562.331	1	16
562.501	1	6
562.671	1	16
562.841	1	-3
563.011	1	11
563.181	1	3
563.351	1	4
563.521	1	17
563.691	1	6
563.861	1	11
564.031	1	14
564.201	1	20
564.370	1	2
564.540	1	8
564.710	1	6
564.880	1	4
565.050	1	17
565.220	1	4
565.390	1	13
565.560	1	15
565.730	1	-1
565.900	1	9
566.069	1	12
566.239	1	9
566.409	1	11
566.579	1	13
566.749	1	6
566.919	1	11
567.089	1	6
567.259	1	19
567.429	1	6
567.599	1	8
567.768	1	15
567.938	1	13
568.108	1	10
568.278	1	4
568.448	1	8
568.618	1	1
568.788	1	0
568.958	1	8
569.128	1	6
569.297	1	2
569.467	1	9
569.637	1	11
569.807	1	10
569.977	1	11
570.147	1	17
570.317	1	1
570.487	1	5
570.656	1	9
570.826	1	1
570.996	1	1
571.166	1	14
571.336	1	-1
571.506	1	15
571.676	1	14
571.846	1	14
572.015	1	12
572.185	1	6
572.355	1	2
572.525	1	9
572.695	1	7
572.865	1	-5
573.035	1	13
573.205	1	11
573.374	1	6
573.544	1	9
573.714	1	10
573.884	1	20
574.054	1	8
574.224	1	10
574.394	1	10
574.563	1	7
574.733	1	-3
574.903	1	0
575.073	1	13
575.243	1	11
575.413	1	6
575.583	1	13
575.752	1	12
575.922	1	12
576.092	1	12
576.262	1	10
576.432	1	11
576.602	1	4
576.772	1	13
576.941	1	9
577.111	1	5
577.281	1	-2
577.451	1	3
577.621	1	5
577.791	1	13
577.960	1	0
578.130	1	12
578.300	1	6
578.470	1	13
578.640	1	13
578.810	1	12
578.979	1	5
579.149	1	5
579.319	1	4
579.489	1	3
579.659	1	6
579.829	1	13
579.998	1	8
580.168	1	23
580.338	1	10
580.508	1	7
580.678	1	12
580.848	1	-2
581.017	1	2
581.187	1	2
581.357	1	6
581.527	1	21
581.697	1	11
581.867	1	15
582.036	1	6
582.206	1	5
582.376	1	14
582.546	1	-3
582.716	1	-3
582.885	1	7
583.055	1	13
583.225	1	-5
583.395	1	10
583.565	1	0
583.735	1	17
583.904	1	6
584.074	1	13
584.244	1	5
584.414	1	5
584.584	1	11
584.753	1	-13
584.923	1	9
585.093	1	7
585.263	1	12
585.433	1	9
585.602	1	-2
585.772	1	1
585.942	1	-2
586.112	1	4
586.282	1	2
586.451	1	0
586.621	1	5
586.791	1	2
586.961	1	4
587.131	1	15
587.300	1	1
587.470	1	16
587.640	1	4
587.810	1	1
587.980	1	-1
588.149	1	10
588.319	1	7
588.489	1	9
588.659	1	-5
588.829	1	12
588.998	1	16
589.168	1	20
589.338	1	12
589.508	1	12
589.677	1	3
589.847	1	-5
590.017	1	22
590.187	1	4
590.357	1	11
590.526	1	14
590.696	1	14
590.866	1	20
591.036	1	2
591.205	1	23
591.375	1	13
591.545	1	6
591.715	1	13
591.885	1	6
592.054	1	3
592.224	1	9
592.394	1	4
592.564	1	3
592.733	1	3
592.903	1	7
593.073	1	5
593.243	1	16
593.412	1	15
593.582	1	14
593.752	1	1
593.922	1	6
594.091	1	13
594.261	1	8
594.431	1	14
594.601	1	10
594.771	1	18
594.940	1	11
595.110	1	5
595.280	1	9
595.450	1	2
595.619	1	8
595.789	1	6
595.959	1	8
596.129	1	8
596.298	1	2
596.468	1	16
596.638	1	1
596.808	1	16
596.977	1	9
597.147	1	15
597.317	1	-4
597.487	1	9
597.656	1	4
597.826	1	10
597.996	1	8
598.166	1	2
598.335	1	-3
598.505	1	3
598.675	1	6
598.844	1	5
599.014	1	16
599.184	1	13
599.354	1	-1
599.523	1	6
599.693	1	1
599.863	1	13
600.033	1	13
600.202	1	11
600.372	1	15
600.542	1	7
600.712	1	7
600.881	1	-5
601.051	1	22
601.221	1	11
601.390	1	7
601.560	1	17
601.730	1	21
601.900	1	3
602.069	1	12
602.239	1	9
602.409	1	-7
602.578	1	11
602.748	1	12
602.918	1	14
603.088	1	5
603.257	1	10
603.427	1	-1
603.597	1	16
603.767	1	6
603.936	1	11
604.106	1	9
604.276	1	6
604.445	1	14
604.615	1	1
604.785	1	8
604.954	1	-4
605.124	1	10
605.294	1	10
605.464	1	8
605.633	1	9
605.803	1	11
605.973	1	-4
606.142	1	6
606.312	1	19
606.482	1	17
606.652	1	12
606.821	1	-3
606.991	1	2
607.161	1	6
607.330	1	12
607.500	1	16
607.670	1	-1
607.839	1	15
608.009	1	21
608.179	1	13
608.348	1	10
608.518	1	3
608.688	1	12
608.858	1	-1
609.027	1	-8
609.197	1	9
609.367	1	18
609.536	1	15
609.706	1	10
609.876	1	-1
610.045	1	10
610.215	1	11
610.385	1	-2
610.554	1	5
610.724	1	10
610.894	1	3
611.063	1	8
611.233	1	8
611.403	1	4
611.572	1	15
611.742	1	9
611.912	1	13
612.081	1	9
612.251	1	13
612.421	1	13
612.590	1	16
612.760	1	5
612.930	1	-1
613.099	1	4
613.269	1	23
613.439	1	14
613.608	1	8
613.778	1	23
613.948	1	2
614.117	1	16
614.287	1	15
614.457	1	14
614.626	1	11
614.796	1	11
614.966	1	12
615.135	1	12
615.305	1	11
615.475	1	2
615.644	1	10
615.814	1	10
615.984	1	7
616.153	1	6
616.323	1	11
616.493	1	6
616.662	1	19
616.832	1	12
617.002	1	6
617.171	1	2
617.341	1	2
617.511	1	-7
617.680	1	13
617.850	1	10
618.019	1	18
618.189	1	22
618.359	1	13
618.528	1	11
618.698	1	16
618.868	1	-9
619.037	1	13
619.207	1	6
619.377	1	6
619.546	1	3
619.716	1	6
619.885	1	4
620.055	1	0
620.225	1	9
620.394	1	6
620.564	1	13
620.734	1	12
620.903	1	9
621.073	1	22
621.242	1	13
621.412	1	9
621.582	1	-1
621.751	1	16
621.921	1	15
622.091	1	5
622.260	1	8
622.430	1	19
622.599	1	9
622.769	1	18
622.939	1	13
623.108	1	12
623.278	1	8
623.448	1	5
623.617	1	-1
623.787	1	15
623.956	1	23
624.126	1	5
624.296	1	15
624.465	1	13
624.635	1	31
624.804	1	16
624.974	1	8
625.144	1	16
625.313	1	11
625.483	1	-3
625.652	1	13
625.822	1	8
625.992	1	8
626.161	1	21
626.331	1	10
626.501	1	13
626.670	1	19
626.840	1	3
627.009	1	10
627.179	1	11
627.348	1	13
627.518	1	22
627.688	1	20
627.857	1	28
628.027	1	11
628.196	1	13
628.366	1	18
628.536	1	15
628.705	1	10
628.875	1	12
629.044	1	5
629.214	1	14
629.384	1	12
629.553	1	16
629.723	1	6
629.892	1	5
630.062	1	6
630.232	1	13
630.401	1	31
630.571	1	16
630.740	1	2
630.910	1	13
631.079	1	12
631.249	1	10
631.419	1	8
631.588	1	6
631.758	1	18
631.927	1	8
632.097	1	12
632.266	1	0
632.436	1	16
632.606	1	1
632.775	1	18
632.945	1	16
633.114	1	29
633.284	1	21
633.453	1	12
633.623	1	14
633.793	1	11
633.962	1	16
634.132	1	13
634.301	1	16
634.471	1	18
634.640	1	15
634.810	1	13
634.979	1	19
635.149	1	18
635.319	1	12
635.488	1	15
635.658	1	14
635.827	1	12
635.997	1	14
636.166	1	19
636.336	1	3
636.505	1	21
636.675	1	6
636.845	1	21
637.014	1	20
637.184	1	17
637.353	1	15
637.523	1	18
637.692	1	5
637.862	1	18
638.031	1	13
638.201	1	19
638.370	1	8
638.540	1	19
638.710	1	18
638.879	1	17
639.049	1	16
639.218	1	13
639.388	1	11
639.557	1	5
639.727	1	14
639.896	1	14
640.066	1	13
640.235	1	21
640.405	1	13
640.574	1	14
640.744	1	18
640.914	1	13
641.083	1	10
641.253	1	20
641.422	1	14
641.592	1	18
641.761	1	15
641.931	1	16
642.100	1	26
642.270	1	8
642.439	1	24
642.609	1	7
642.778	1	12
642.948	1	8
643.117	1	21
643.287	1	18
643.456	1	14
643.626	1	29
643.795	1	13
643.965	1	16
644.134	1	12
644.304	1	9
644.473	1	19
644.643	1	17
644.812	1	10
644.982	1	22
645.151	1	12
645.321	1	18
645.490	1	23
645.660	1	3
645.829	1	14
645.999	1	14
646.168	1	22
646.338	1	19
646.507	1	20
646.677	1	14
646.846	1	12
647.016	1	8
647.185	1	23
647.355	1	10
647.524	1	22
647.694	1	22
647.863	1	22
648.033	1	11
648.202	1	24
648.372	1	13
648.541	1	11
648.711	1	8
648.880	1	7
649.050	1	10
649.219	1	17
649.389	1	11
649.558	1	22
649.728	1	28
649.897	1	10
650.067	1	24
650.236	1	25
650.406	1	14
650.575	1	22
650.745	1	18
650.914	1	18
651.084	1	7
651.253	1	22
651.423	1	9
651.592	1	15
651.762	1	10
651.931	1	25
652.101	1	28
652.270	1	25
652.440	1	24
652.609	1	11
652.778	1	13
652.948	1	26
653.117	1	14
653.287	1	22
653.456	1	22
653.626	1	21
653.795	1	9
653.965	1	16
654.134	1	29
654.304	1	0
654.473	1	21
654.643	1	23
654.812	1	12
654.982	1	17
655.151	1	16
655.320	1	11
655.490	1	12
655.659	1	23
655.829	1	22
655.998	1	19
656.168	1	11
656.337	1	16
656.507	1	23
656.676	1	21
656.846	1	19
657.015	1	17
657.184	1	31
657.354	1	21
657.523	1	13
657.693	1	16
657.862	1	30
658.032	1	9
658.201	1	20
658.371	1	19
658.540	1	25
658.709	1	17
658.879	1	16
659.048	1	21
659.218	1	21
659.387	1	20
659.557	1	19
659.726	1	20
659.895	1	19
660.065	1	14
660.234	1	21
660.404	1	22
660.573	1	8
660.743	1	21
660.912	1	20
661.081	1	21
661.251	1	19
661.420	1	15
661.590	1	16
661.759	1	22
661.929	1	15
662.098	1	27
662.267	1	11
662.437	1	18
662.606	1	13
662.776	1	23
662.945	1	14
663.115	1	21
663.284	1	17
663.453	1	18
663.623	1	16
663.792	1	21
663.962	1	16
664.131	1	24
664.300	1	21
664.470	1	19
664.639	1	30
664.809	1	26
664.978	1	27
665.148	1	18
665.317	1	15
665.486	1	28
665.656	1	15
665.825	1	33
665.995	1	8
666.164	1	19
666.333	1	19
666.503	1	19
666.672	1	9
666.842	1	16
667.011	1	14
667.180	1	28
667.350	1	16
667.519	1	31
667.689	1	19
667.858	1	22
668.027	1	17
668.197	1	15
668.366	1	9
668.536	1	19
668.705	1	17
668.874	1	19
669.044	1	18
669.213	1	30
669.382	1	12
669.552	1	31
669.721	1	28
669.891	1	23
670.060	1	17
670.229	1	27
670.399	1	13
670.568	1	25
670.738	1	23
670.907	1	12
671.076	1	9
671.246	1	23
671.415	1	21
671.584	1	22
671.754	1	18
671.923	1	13
672.093	1	24
672.262	1	5
672.431	1	20
672.601	1	18
672.770	1	12
672.939	1	24
673.109	1	19
673.278	1	18
673.448	1	22
673.617	1	15
673.786	1	20
