325.333	1	11
325.504	1	3
325.675	1	12
325.846	1	14
326.017	1	0
326.188	1	8
326.359	1	4
326.531	1	-7
326.702	1	3
326.873	1	9
327.044	1	6
327.215	1	3
327.386	1	10
327.557	1	-2
327.728	1	-3
327.899	1	12
328.070	1	12
328.241	1	11
328.412	1	-6
328.583	1	5
328.754	1	5
328.926	1	11
329.097	1	0
329.268	1	8
329.439	1	1
329.610	1	16
329.781	1	-1
329.952	1	11
330.123	1	10
330.294	1	-3
330.465	1	6
330.636	1	9
330.807	1	-3
330.978	1	7
331.149	1	4
331.320	1	3
331.492	1	5
331.663	1	-1
331.834	1	9
332.005	1	13
332.176	1	22
332.347	1	5
332.518	1	-7
332.689	1	15
332.860	1	10
333.031	1	10
333.202	1	-1
333.373	1	10
333.544	1	3
333.715	1	8
333.886	1	-2
334.057	1	4
334.228	1	-4
334.399	1	7
334.570	1	11
334.741	1	4
334.912	1	9
335.084	1	23
335.255	1	1
335.426	1	4
335.597	1	6
335.768	1	7
335.939	1	10
336.110	1	-1
336.281	1	1
336.452	1	-6
336.623	1	8
336.794	1	16
336.965	1	2
337.136	1	17
337.307	1	8
337.478	1	9
337.649	1	10
337.820	1	-3
337.991	1	8
338.162	1	2
338.333	1	10
338.504	1	5
338.675	1	16
338.846	1	17
339.017	1	-2
339.188	1	1
339.359	1	6
339.530	1	17
339.701	1	11
339.872	1	19
340.043	1	-2
340.214	1	12
340.385	1	17
340.556	1	-1
340.727	1	13
340.898	1	15
341.069	1	3
341.240	1	11
341.411	1	6
341.582	1	7
341.753	1	-1
341.924	1	15
342.095	1	18
342.266	1	12
342.437	1	10
342.608	1	5
342.779	1	15
342.950	1	16
343.121	1	14
343.292	1	3
343.463	1	10
343.634	1	7
343.805	1	14
343.976	1	13
344.147	1	5
344.318	1	7
344.489	1	10
344.660	1	20
344.831	1	12
345.002	1	0
345.173	1	12
345.344	1	15
345.515	1	12
345.686	1	12
345.857	1	19
346.028	1	9
346.199	1	5
346.370	1	13
346.541	1	14
346.712	1	0
346.883	1	9
347.054	1	6
347.225	1	24
347.396	1	15
347.567	1	11
347.738	1	4
347.909	1	12
348.080	1	10
348.251	1	15
348.422	1	13
348.593	1	14
348.764	1	4
348.935	1	8
349.106	1	13
349.277	1	5
349.448	1	14
349.619	1	15
349.790	1	9
349.961	1	17
350.132	1	16
350.303	1	6
350.474	1	21
350.645	1	13
350.816	1	8
350.987	1	21
351.157	1	3
351.328	1	19
351.499	1	15
351.670	1	7
351.841	1	27
352.012	1	20
352.183	1	21
352.354	1	14
352.525	1	25
352.696	1	23
352.867	1	10
353.038	1	20
353.209	1	24
353.380	1	14
353.551	1	4
353.722	1	9
353.893	1	10
354.064	1	25
354.235	1	12
354.406	1	-4
354.576	1	14
354.747	1	15
354.918	1	22
355.089	1	9
355.260	1	16
355.431	1	23
355.602	1	18
355.773	1	12
355.944	1	19
356.115	1	13
356.286	1	18
356.457	1	23
356.628	1	23
356.799	1	28
356.970	1	26
357.141	1	5
357.311	1	5
357.482	1	19
357.653	1	14
357.824	1	18
357.995	1	24
358.166	1	4
358.337	1	10
358.508	1	19
358.679	1	19
358.850	1	14
359.021	1	13
359.192	1	13
359.363	1	10
359.533	1	14
359.704	1	14
359.875	1	13
360.046	1	19
360.217	1	15
360.388	1	20
360.559	1	16
360.730	1	17
360.901	1	18
361.072	1	24
361.243	1	20
361.414	1	26
361.584	1	13
361.755	1	21
361.926	1	12
362.097	1	17
362.268	1	16
362.439	1	17
362.610	1	23
362.781	1	17
362.952	1	13
363.123	1	17
363.293	1	17
363.464	1	24
363.635	1	28
363.806	1	17
363.977	1	20
364.148	1	8
364.319	1	18
364.490	1	18
364.661	1	11
364.832	1	29
365.002	1	17
365.173	1	15
365.344	1	27
365.515	1	18
365.686	1	8
365.857	1	17
366.028	1	28
366.199	1	18
366.370	1	27
366.540	1	9
366.711	1	9
366.882	1	10
367.053	1	5
367.224	1	29
367.395	1	20
367.566	1	23
367.737	1	26
367.908	1	25
368.078	1	19
368.249	1	33
368.420	1	9
368.591	1	14
368.762	1	20
368.933	1	14
369.104	1	5
369.274	1	18
369.445	1	22
369.616	1	26
369.787	1	18
369.958	1	24
370.129	1	10
370.300	1	30
370.471	1	18
370.641	1	11
370.812	1	18
370.983	1	25
371.154	1	8
371.325	1	26
371.496	1	18
371.667	1	27
371.837	1	17
372.008	1	14
372.179	1	21
372.350	1	29
372.521	1	14
372.692	1	12
372.863	1	21
373.033	1	17
373.204	1	12
373.375	1	25
373.546	1	23
373.717	1	26
373.888	1	30
374.059	1	23
374.229	1	23
374.400	1	13
374.571	1	20
374.742	1	26
374.913	1	23
375.084	1	20
375.254	1	25
375.425	1	17
375.596	1	26
375.767	1	20
375.938	1	17
376.109	1	27
376.279	1	7
376.450	1	25
376.621	1	21
376.792	1	11
376.963	1	23
377.134	1	36
377.304	1	24
377.475	1	15
377.646	1	32
377.817	1	21
377.988	1	20
378.159	1	23
378.329	1	22
378.500	1	19
378.671	1	22
378.842	1	20
379.013	1	9
379.184	1	21
379.354	1	31
379.525	1	22
379.696	1	30
379.867	1	34
380.038	1	16
380.209	1	24
380.379	1	21
380.550	1	18
380.721	1	12
380.892	1	29
381.063	1	31
381.233	1	27
381.404	1	17
381.575	1	38
381.746	1	28
381.917	1	26
382.087	1	25
382.258	1	18
382.429	1	21
382.600	1	28
382.771	1	23
382.941	1	16
383.112	1	25
383.283	1	29
383.454	1	24
383.625	1	22
383.795	1	23
383.966	1	24
384.137	1	29
384.308	1	19
384.479	1	22
384.649	1	23
384.820	1	20
384.991	1	18
385.162	1	26
385.333	1	22
385.503	1	22
385.674	1	9
385.845	1	32
386.016	1	27
386.187	1	26
386.357	1	30
386.528	1	27
386.699	1	15
386.870	1	33
387.041	1	30
387.211	1	25
387.382	1	18
387.553	1	36
387.724	1	16
387.894	1	31
388.065	1	28
388.236	1	30
388.407	1	20
388.578	1	21
388.748	1	26
388.919	1	28
389.090	1	21
389.261	1	30
389.431	1	26
389.602	1	37
389.773	1	34
389.944	1	26
390.114	1	33
390.285	1	27
390.456	1	24
390.627	1	34
390.798	1	21
390.968	1	23
391.139	1	39
391.310	1	18
391.481	1	31
391.651	1	36
391.822	1	16
391.993	1	17
392.164	1	31
392.334	1	26
392.505	1	29
392.676	1	32
392.847	1	27
393.017	1	33
393.188	1	27
393.359	1	24
393.530	1	24
393.700	1	24
393.871	1	22
394.042	1	18
394.213	1	25
394.383	1	22
394.554	1	21
394.725	1	26
394.896	1	23
395.066	1	29
395.237	1	24
395.408	1	30
395.579	1	28
395.749	1	25
395.920	1	32
396.091	1	40
396.262	1	30
396.432	1	32
396.603	1	32
396.774	1	43
396.945	1	35
397.115	1	28
397.286	1	38
397.457	1	37
397.627	1	21
397.798	1	44
397.969	1	24
398.140	1	23
398.310	1	30
398.481	1	42
398.652	1	31
398.823	1	29
398.993	1	26
399.164	1	22
399.335	1	48
399.505	1	48
399.676	1	27
399.847	1	25
400.018	1	26
400.188	1	29
400.359	1	30
400.530	1	34
400.700	1	34
400.871	1	29
401.042	1	49
401.213	1	40
401.383	1	39
401.554	1	38
401.725	1	38
401.895	1	21
402.066	1	29
402.237	1	31
402.408	1	37
402.578	1	23
402.749	1	32
402.920	1	40
403.090	1	37
403.261	1	31
403.432	1	25
403.603	1	38
403.773	1	39
403.944	1	37
404.115	1	38
404.285	1	51
404.456	1	35
404.627	1	29
404.797	1	23
404.968	1	25
405.139	1	34
405.310	1	50
405.480	1	26
405.651	1	32
405.822	1	25
405.992	1	30
406.163	1	40
406.334	1	17
406.504	1	21
406.675	1	50
406.846	1	26
407.016	1	37
407.187	1	36
407.358	1	22
407.528	1	31
407.699	1	21
407.870	1	24
408.041	1	33
408.211	1	53
408.382	1	30
408.553	1	28
408.723	1	41
408.894	1	25
409.065	1	36
409.235	1	37
409.406	1	31
409.577	1	31
409.747	1	39
409.918	1	36
410.089	1	38
410.259	1	28
410.430	1	34
410.601	1	31
410.771	1	27
410.942	1	44
411.113	1	42
411.283	1	29
411.454	1	38
411.625	1	32
411.795	1	37
411.966	1	37
412.137	1	32
412.307	1	36
412.478	1	27
412.649	1	38
412.819	1	28
412.990	1	22
413.161	1	37
413.331	1	30
413.502	1	21
413.672	1	29
413.843	1	25
414.014	1	17
414.184	1	43
414.355	1	35
414.526	1	37
414.696	1	43
414.867	1	29
415.038	1	27
415.208	1	34
415.379	1	29
415.550	1	48
415.720	1	29
415.891	1	24
416.062	1	42
416.232	1	40
416.403	1	25
416.573	1	41
416.744	1	26
416.915	1	28
417.085	1	33
417.256	1	31
417.427	1	30
417.597	1	40
417.768	1	29
417.939	1	44
418.109	1	35
418.280	1	38
418.450	1	33
418.621	1	24
418.792	1	34
418.962	1	30
419.133	1	44
419.304	1	32
419.474	1	17
419.645	1	36
419.815	1	26
419.986	1	29
420.157	1	37
420.327	1	43
420.498	1	45
420.669	1	34
420.839	1	44
421.010	1	35
421.180	1	32
421.351	1	26
421.522	1	42
421.692	1	35
421.863	1	27
422.033	1	35
422.204	1	29
422.375	1	29
422.545	1	31
422.716	1	31
422.886	1	37
423.057	1	31
423.228	1	29
423.398	1	23
423.569	1	29
423.740	1	27
423.910	1	23
424.081	1	18
424.251	1	18
424.422	1	35
424.593	1	19
424.763	1	35
424.934	1	35
425.104	1	22
425.275	1	37
425.445	1	32
425.616	1	13
425.787	1	17
425.957	1	34
426.128	1	31
426.298	1	35
426.469	1	28
426.640	1	31
426.810	1	43
426.981	1	29
427.151	1	19
427.322	1	33
427.493	1	37
427.663	1	33
427.834	1	25
428.004	1	33
428.175	1	27
428.345	1	20
428.516	1	20
428.687	1	32
428.857	1	26
429.028	1	17
429.198	1	22
429.369	1	39
429.540	1	29
429.710	1	19
429.881	1	34
430.051	1	23
430.222	1	27
430.392	1	37
430.563	1	35
430.734	1	28
430.904	1	30
431.075	1	34
431.245	1	21
431.416	1	28
431.586	1	22
431.757	1	21
431.927	1	22
432.098	1	27
432.269	1	23
432.439	1	31
432.610	1	26
432.780	1	35
432.951	1	33
433.121	1	24
433.292	1	28
433.462	1	37
433.633	1	30
433.804	1	18
433.974	1	31
434.145	1	40
434.315	1	27
434.486	1	25
434.656	1	23
434.827	1	33
434.997	1	23
435.168	1	36
435.339	1	33
435.509	1	26
435.680	1	37
435.850	1	32
436.021	1	16
436.191	1	28
436.362	1	25
436.532	1	28
436.703	1	38
436.873	1	32
437.044	1	14
437.214	1	29
437.385	1	30
437.556	1	24
437.726	1	40
437.897	1	36
438.067	1	18
438.238	1	25
438.408	1	34
438.579	1	31
438.749	1	28
438.920	1	22
439.090	1	32
439.261	1	36
439.431	1	16
439.602	1	34
439.772	1	27
439.943	1	27
440.113	1	33
440.284	1	25
440.455	1	19
440.625	1	18
440.796	1	32
440.966	1	24
441.137	1	28
441.307	1	18
441.478	1	29
441.648	1	28
441.819	1	33
441.989	1	28
442.160	1	35
442.330	1	30
442.501	1	23
442.671	1	17
442.842	1	13
443.012	1	17
443.183	1	33
443.353	1	15
443.524	1	20
443.694	1	31
443.865	1	22
444.035	1	31
444.206	1	27
444.376	1	17
444.547	1	34
444.717	1	25
444.888	1	23
445.058	1	29
445.229	1	26
445.399	1	15
445.570	1	30
445.740	1	20
445.911	1	13
446.081	1	13
446.252	1	34
446.422	1	21
446.593	1	21
446.763	1	25
446.934	1	18
447.104	1	18
447.275	1	25
447.445	1	20
447.616	1	31
447.786	1	19
447.957	1	25
448.127	1	19
448.298	1	20
448.468	1	17
448.639	1	16
448.809	1	40
448.979	1	17
449.150	1	30
449.320	1	24
449.491	1	32
449.661	1	19
449.832	1	19
450.002	1	29
450.173	1	27
450.343	1	28
450.514	1	18
450.684	1	12
450.855	1	22
451.025	1	24
451.196	1	25
451.366	1	22
451.537	1	12
451.707	1	11
451.878	1	15
452.048	1	29
452.218	1	32
452.389	1	21
452.559	1	20
452.730	1	34
452.900	1	21
453.071	1	9
453.241	1	18
453.412	1	16
453.582	1	29
453.753	1	26
453.923	1	34
454.093	1	24
454.264	1	30
454.434	1	24
454.605	1	16
454.775	1	18
454.946	1	25
455.116	1	16
455.287	1	14
455.457	1	5
455.628	1	19
455.798	1	25
455.968	1	30
456.139	1	17
456.309	1	21
456.480	1	14
456.650	1	16
456.821	1	18
456.991	1	16
457.161	1	18
457.332	1	18
457.502	1	11
457.673	1	32
457.843	1	22
458.014	1	14
458.184	1	16
458.355	1	18
458.525	1	11
458.695	1	16
458.866	1	21
459.036	1	13
459.207	1	23
459.377	1	15
459.548	1	27
459.718	1	18
459.888	1	27
460.059	1	25
460.229	1	17
460.400	1	27
460.570	1	18
460.740	1	21
460.911	1	18
461.081	1	26
461.252	1	11
461.422	1	19
461.593	1	19
461.763	1	14
461.933	1	17
462.104	1	12
462.274	1	22
462.445	1	7
462.615	1	20
462.785	1	27
462.956	1	17
463.126	1	23
463.297	1	11
463.467	1	24
463.638	1	26
463.808	1	11
463.978	1	20
464.149	1	18
464.319	1	4
464.490	1	27
464.660	1	11
464.830	1	13
465.001	1	21
465.171	1	21
465.342	1	33
465.512	1	13
465.682	1	13
465.853	1	19
466.023	1	18
466.194	1	16
466.364	1	24
466.534	1	23
466.705	1	13
466.875	1	22
467.045	1	17
467.216	1	26
467.386	1	11
467.557	1	9
467.727	1	16
467.897	1	11
468.068	1	3
468.238	1	16
468.409	1	21
468.579	1	20
468.749	1	11
468.920	1	7
469.090	1	21
469.260	1	4
469.431	1	13
469.601	1	20
469.772	1	13
469.942	1	15
470.112	1	18
470.283	1	14
470.453	1	12
470.623	1	21
470.794	1	10
470.964	1	21
471.135	1	16
471.305	1	7
471.475	1	19
471.646	1	7
471.816	1	18
471.986	1	11
472.157	1	30
472.327	1	9
472.497	1	21
472.668	1	4
472.838	1	10
473.009	1	22
473.179	1	10
473.349	1	15
473.520	1	23
473.690	1	23
473.860	1	20
474.031	1	18
474.201	1	17
474.371	1	19
474.542	1	18
474.712	1	7
474.882	1	13
475.053	1	30
475.223	1	14
475.394	1	6
475.564	1	16
475.734	1	20
475.905	1	23
476.075	1	15
476.245	1	27
476.416	1	11
476.586	1	21
476.756	1	10
476.927	1	19
477.097	1	10
477.267	1	10
477.438	1	24
477.608	1	13
477.778	1	19
477.949	1	22
478.119	1	26
478.289	1	23
478.460	1	17
478.630	1	19
478.800	1	16
478.971	1	8
479.141	1	4
479.311	1	4
479.482	1	9
479.652	1	9
479.822	1	19
479.993	1	18
480.163	1	20
480.333	1	21
480.504	1	19
480.674	1	9
480.844	1	9
481.015	1	8
481.185	1	4
481.355	1	19
481.525	1	13
481.696	1	20
481.866	1	8
482.036	1	14
482.207	1	9
482.377	1	7
482.547	1	15
482.718	1	13
482.888	1	9
483.058	1	5
483.229	1	5
483.399	1	13
483.569	1	17
483.740	1	3
483.910	1	19
484.080	1	14
484.250	1	17
484.421	1	12
484.591	1	11
484.761	1	25
484.932	1	17
485.102	1	17
485.272	1	8
485.443	1	11
485.613	1	17
485.783	1	7
485.953	1	13
486.124	1	20
486.294	1	10
486.464	1	14
486.635	1	15
486.805	1	13
486.975	1	16
487.146	1	15
487.316	1	1
487.486	1	12
487.656	1	1
487.827	1	9
487.997	1	5
488.167	1	13
488.338	1	17
488.508	1	7
488.678	1	12
488.848	1	20
489.019	1	8
489.189	1	14
489.359	1	8
489.529	1	10
489.700	1	9
489.870	1	17
490.040	1	1
490.211	1	5
490.381	1	19
490.551	1	12
490.721	1	16
490.892	1	3
491.062	1	14
491.232	1	5
491.402	1	9
491.573	1	-5
491.743	1	14
491.913	1	5
492.084	1	18
492.254	1	7
492.424	1	7
492.594	1	8
492.765	1	15
492.935	1	12
493.105	1	12
493.275	1	15
493.446	1	12
493.616	1	17
493.786	1	0
493.956	1	7
494.127	1	8
494.297	1	16
494.467	1	10
494.637	1	11
494.808	1	1
494.978	1	-4
495.148	1	7
495.318	1	4
495.489	1	11
495.659	1	9
495.829	1	8
495.999	1	9
496.170	1	12
496.340	1	5
496.510	1	17
496.680	1	1
496.851	1	11
497.021	1	15
497.191	1	2
497.361	1	9
497.532	1	9
497.702	1	14
497.872	1	8
498.042	1	14
498.213	1	3
498.383	1	5
498.553	1	8
498.723	1	7
498.894	1	5
499.064	1	9
499.234	1	14
499.404	1	9
499.574	1	13
499.745	1	14
499.915	1	9
500.085	1	16
500.255	1	17
500.426	1	9
500.596	1	11
500.766	1	9
500.936	1	5
501.106	1	6
501.277	1	7
501.447	1	10
501.617	1	14
501.787	1	8
501.958	1	4
502.128	1	3
502.298	1	12
502.468	1	14
502.638	1	7
502.809	1	8
502.979	1	6
503.149	1	3
503.319	1	2
503.489	1	13
503.660	1	13
503.830	1	7
504.000	1	18
504.170	1	6
504.340	1	0
504.511	1	6
504.681	1	2
504.851	1	10
505.021	1	9
505.192	1	6
505.362	1	23
505.532	1	3
505.702	1	8
505.872	1	5
506.043	1	10
506.213	1	4
506.383	1	-1
506.553	1	8
506.723	1	1
506.893	1	11
507.064	1	10
507.234	1	9
507.404	1	7
507.574	1	7
507.744	1	10
507.915	1	9
508.085	1	16
508.255	1	10
508.425	1	-4
508.595	1	13
508.766	1	14
508.936	1	2
509.106	1	15
509.276	1	12
509.446	1	3
509.616	1	3
509.787	1	8
509.957	1	-1
510.127	1	1
510.297	1	6
510.467	1	2
510.638	1	9
510.808	1	2
510.978	1	1
511.148	1	8
511.318	1	14
511.488	1	6
511.659	1	9
511.829	1	7
511.999	1	13
512.169	1	11
512.339	1	8
512.509	1	0
512.680	1	-6
512.850	1	5
513.020	1	13
513.190	1	14
513.360	1	-2
513.530	1	10
513.700	1	5
513.871	1	8
514.041	1	1
514.211	1	16
514.381	1	14
514.551	1	6
514.721	1	6
514.892	1	6
515.062	1	5
515.232	1	7
515.402	1	0
515.572	1	-1
515.742	1	9
515.912	1	9
516.083	1	11
516.253	1	18
516.423	1	17
516.593	1	-1
516.763	1	23
516.933	1	-7
517.104	1	12
517.274	1	4
517.444	1	6
517.614	1	-4
517.784	1	4
517.954	1	5
518.124	1	21
518.294	1	5
518.465	1	9
518.635	1	5
518.805	1	-6
518.975	1	8
519.145	1	5
519.315	1	-6
519.485	1	0
519.656	1	15
519.826	1	-2
519.996	1	4
520.166	1	-3
520.336	1	9
520.506	1	3
520.676	1	0
520.846	1	14
521.017	1	9
521.187	1	11
521.357	1	6
521.527	1	-1
521.697	1	-1
521.867	1	-7
522.037	1	10
522.207	1	18
522.377	1	8
522.548	1	0
522.718	1	11
522.888	1	19
523.058	1	7
523.228	1	8
523.398	1	7
523.568	1	13
523.738	1	7
523.909	1	2
524.079	1	7
524.249	1	4
524.419	1	-6
524.589	1	7
524.759	1	-3
524.929	1	5
525.099	1	11
525.269	1	12
525.439	1	3
525.610	1	19
525.780	1	4
525.950	1	12
526.120	1	3
526.290	1	9
526.460	1	0
526.630	1	12
526.800	1	-3
526.970	1	9
527.140	1	10
527.311	1	4
527.481	1	-7
527.651	1	6
527.821	1	-7
527.991	1	16
528.161	1	8
528.331	1	6
528.501	1	6
528.671	1	-7
528.841	1	2
529.011	1	-2
529.181	1	19
529.352	1	8
529.522	1	2
529.692	1	13
529.862	1	3
530.032	1	12
530.202	1	1
530.372	1	9
530.542	1	7
530.712	1	7
530.882	1	9
531.052	1	10
531.222	1	7
531.392	1	-4
531.563	1	12
531.733	1	0
531.903	1	11
532.073	1	13
532.243	1	3
532.413	1	4
532.583	1	3
532.753	1	6
532.923	1	-9
533.093	1	-2
533.263	1	14
533.433	1	10
533.603	1	9
533.773	1	3
533.943	1	0
534.113	1	11
534.284	1	0
534.454	1	11
534.624	1	14
534.794	1	-1
534.964	1	13
535.134	1	6
535.304	1	3
535.474	1	9
535.644	1	-2
535.814	1	-11
535.984	1	-13
536.154	1	6
536.324	1	8
536.494	1	4
536.664	1	7
536.834	1	0
537.004	1	6
537.174	1	9
537.344	1	3
537.514	1	-5
537.685	1	8
537.855	1	7
538.025	1	17
538.195	1	3
538.365	1	19
538.535	1	1
538.705	1	4
538.875	1	0
539.045	1	1
539.215	1	1
539.385	1	9
539.555	1	2
539.725	1	11
539.895	1	-4
540.065	1	11
540.235	1	8
540.405	1	-1
540.575	1	6
540.745	1	-2
540.915	1	10
541.085	1	11
541.255	1	-1
541.425	1	12
541.595	1	0
541.765	1	10
541.935	1	-4
542.105	1	4
542.275	1	4
542.445	1	-7
542.615	1	2
542.785	1	2
542.955	1	6
543.125	1	-5
543.295	1	15
543.465	1	-1
543.635	1	3
543.805	1	11
543.975	1	-3
544.145	1	7
544.315	1	3
544.485	1	5
544.655	1	12
544.825	1	-3
544.995	1	5
545.165	1	-3
545.335	1	1
545.505	1	0
545.675	1	8
545.845	1	3
546.015	1	5
546.185	1	11
546.355	1	10
546.525	1	2
546.695	1	3
546.865	1	2
547.035	1	12
547.205	1	-7
547.375	1	20
547.545	1	8
547.715	1	8
547.885	1	8
548.055	1	-8
548.225	1	6
548.395	1	4
548.565	1	9
548.735	1	10
548.905	1	-3
549.075	1	0
549.245	1	0
549.415	1	0
549.585	1	5
549.755	1	10
549.925	1	-3
550.095	1	15
550.265	1	-8
550.435	1	0
550.605	1	-3
550.775	1	-4
550.945	1	11
551.115	1	-1
551.285	1	5
551.455	1	3
551.625	1	14
551.795	1	9
551.965	1	4
552.135	1	-9
552.305	1	-7
552.475	1	-8
552.645	1	-9
552.815	1	-7
552.985	1	14
553.155	1	5
553.325	1	1
553.495	1	7
553.665	1	3
553.835	1	-5
554.004	1	3
554.174	1	-4
554.344	1	11
554.514	1	1
554.684	1	8
554.854	1	14
555.024	1	-12
555.194	1	0
555.364	1	-1
555.534	1	4
555.704	1	7
555.874	1	4
556.044	1	11
556.214	1	-4
556.384	1	3
556.554	1	19
556.724	1	-1
556.894	1	3
557.064	1	-2
557.234	1	1
557.404	1	4
557.573	1	1
557.743	1	-5
557.913	1	-6
558.083	1	1
558.253	1	3
558.423	1	-5
558.593	1	5
558.763	1	-4
558.933	1	-8
559.103	1	17
559.273	1	7
559.443	1	4
559.613	1	1
559.783	1	1
559.953	1	1
560.122	1	14
560.292	1	3
560.462	1	4
560.632	1	4
560.802	1	0
560.972	1	-1
561.142	1	6
561.312	1	5
561.482	1	3
561.652	1	10
561.822	1	-7
561.992	1	4
562.162	1	6
562.331	1	4
562.501	1	-6
562.671	1	8
562.841	1	-8
563.011	1	4
563.181	1	4
563.351	1	4
563.521	1	9
563.691	1	-3
563.861	1	1
564.031	1	11
564.201	1	16
564.370	1	-2
564.540	1	7
564.710	1	-6
564.880	1	11
565.050	1	4
565.220	1	1
565.390	1	3
565.560	1	6
565.730	1	-5
565.900	1	3
566.069	1	12
566.239	1	4
566.409	1	8
566.579	1	8
566.749	1	7
566.919	1	7
567.089	1	3
567.259	1	8
567.429	1	7
567.599	1	1
567.768	1	14
567.938	1	1
568.108	1	7
568.278	1	0
568.448	1	-8
568.618	1	-2
568.788	1	8
568.958	1	-2
569.128	1	12
569.297	1	-3
569.467	1	-2
569.637	1	9
569.807	1	-2
569.977	1	14
570.147	1	18
570.317	1	-3
570.487	1	9
570.656	1	5
570.826	1	-8
570.996	1	0
571.166	1	7
571.336	1	-9
571.506	1	2
571.676	1	7
571.846	1	9
572.015	1	-3
572.185	1	-5
572.355	1	7
572.525	1	2
572.695	1	-4
572.865	1	-9
573.035	1	1
573.205	1	1
573.374	1	-7
573.544	1	8
573.714	1	8
573.884	1	17
574.054	1	-1
574.224	1	2
574.394	1	1
574.563	1	4
574.733	1	-9
574.903	1	-5
575.073	1	1
575.243	1	-5
575.413	1	11
575.583	1	1
575.752	1	4
575.922	1	-3
576.092	1	0
576.262	1	9
576.432	1	8
576.602	1	-3
576.772	1	13
576.941	1	-1
577.111	1	1
577.281	1	-6
577.451	1	-5
577.621	1	11
577.791	1	13
577.960	1	-13
578.130	1	1
578.300	1	3
578.470	1	3
578.640	1	1
578.810	1	4
578.979	1	3
579.149	1	-4
579.319	1	-11
579.489	1	-2
579.659	1	2
579.829	1	-2
579.998	1	21
580.168	1	10
580.338	1	9
580.508	1	-1
580.678	1	-5
580.848	1	-7
581.017	1	4
581.187	1	4
581.357	1	0
581.527	1	11
581.697	1	11
581.867	1	5
582.036	1	-4
582.206	1	4
582.376	1	11
582.546	1	-12
582.716	1	1
582.885	1	2
583.055	1	4
583.225	1	-5
583.395	1	1
583.565	1	-4
583.735	1	1
583.904	1	4
584.074	1	11
584.244	1	0
584.414	1	5
584.584	1	6
584.753	1	-4
584.923	1	3
585.093	1	3
585.263	1	6
585.433	1	9
585.602	1	-1
585.772	1	-1
585.942	1	-6
586.112	1	-3
586.282	1	-14
586.451	1	-1
586.621	1	-4
586.791	1	-1
586.961	1	7
587.131	1	10
587.300	1	2
587.470	1	13
587.640	1	3
587.810	1	3
587.980	1	2
588.149	1	8
588.319	1	-2
588.489	1	2
588.659	1	12
588.829	1	5
588.998	1	9
589.168	1	4
589.338	1	11
589.508	1	5
589.677	1	-1
589.847	1	-4
590.017	1	15
590.187	1	-1
590.357	1	15
590.526	1	15
590.696	1	4
590.866	1	3
591.036	1	-2
591.205	1	13
591.375	1	-7
591.545	1	3
591.715	1	9
591.885	1	-1
592.054	1	7
592.224	1	-5
592.394	1	-6
592.564	1	8
592.733	1	6
592.903	1	5
593.073	1	8
593.243	1	3
593.412	1	12
593.582	1	7
593.752	1	3
593.922	1	1
594.091	1	-3
594.261	1	-4
594.431	1	5
594.601	1	13
594.771	1	9
594.940	1	2
595.110	1	1
595.280	1	8
595.450	1	-4
595.619	1	-2
595.789	1	4
595.959	1	13
596.129	1	-3
596.298	1	1
596.468	1	6
596.638	1	6
596.808	1	-4
596.977	1	-1
597.147	1	3
597.317	1	-4
597.487	1	9
597.656	1	-1
597.826	1	-1
597.996	1	4
598.166	1	6
598.335	1	-8
598.505	1	11
598.675	1	-1
598.844	1	-2
599.014	1	1
599.184	1	3
599.354	1	-5
599.523	1	-1
599.693	1	-4
599.863	1	8
600.033	1	2
600.202	1	12
600.372	1	5
600.542	1	13
600.712	1	0
600.881	1	6
601.051	1	10
601.221	1	8
601.390	1	-9
601.560	1	12
601.730	1	18
601.900	1	0
602.069	1	2
602.239	1	-4
602.409	1	-4
602.578	1	1
602.748	1	-6
602.918	1	18
603.088	1	10
603.257	1	6
603.427	1	-9
603.597	1	9
603.767	1	10
603.936	1	3
604.106	1	5
604.276	1	3
604.445	1	6
604.615	1	0
604.785	1	0
604.954	1	4
605.124	1	3
605.294	1	0
605.464	1	-2
605.633	1	9
605.803	1	6
605.973	1	-7
606.142	1	2
606.312	1	6
606.482	1	-5
606.652	1	12
606.821	1	-6
606.991	1	-2
607.161	1	1
607.330	1	7
607.500	1	3
607.670	1	-6
607.839	1	17
608.009	1	11
608.179	1	3
608.348	1	4
608.518	1	-3
608.688	1	12
608.858	1	-2
609.027	1	-4
609.197	1	1
609.367	1	7
609.536	1	3
609.706	1	9
609.876	1	5
610.045	1	3
610.215	1	0
610.385	1	-5
610.554	1	0
610.724	1	9
610.894	1	-4
611.063	1	4
611.233	1	2
611.403	1	4
611.572	1	9
611.742	1	2
611.912	1	6
612.081	1	-7
612.251	1	7
612.421	1	-6
612.590	1	-1
612.760	1	5
612.930	1	4
613.099	1	2
613.269	1	18
613.439	1	15
613.608	1	-2
613.778	1	4
613.948	1	4
614.117	1	12
614.287	1	9
614.457	1	-2
614.626	1	2
614.796	1	11
614.966	1	0
615.135	1	10
615.305	1	7
615.475	1	1
615.644	1	1
615.814	1	9
615.984	1	1
616.153	1	-1
616.323	1	-1
616.493	1	11
616.662	1	1
616.832	1	4
617.002	1	-7
617.171	1	0
617.341	1	1
617.511	1	-2
617.680	1	1
617.850	1	3
618.019	1	9
618.189	1	17
618.359	1	0
618.528	1	4
618.698	1	4
618.868	1	-2
619.037	1	0
619.207	1	-4
619.377	1	-7
619.546	1	-5
619.716	1	3
619.885	1	2
620.055	1	-8
620.225	1	8
620.394	1	-7
620.564	1	15
620.734	1	11
620.903	1	0
621.073	1	6
621.242	1	6
621.412	1	8
621.582	1	-4
621.751	1	13
621.921	1	-2
622.091	1	-1
622.260	1	3
622.430	1	5
622.599	1	2
622.769	1	11
622.939	1	4
623.108	1	1
623.278	1	-10
623.448	1	4
623.617	1	3
623.787	1	1
623.956	1	7
624.126	1	5
624.296	1	-1
624.465	1	7
624.635	1	8
624.804	1	6
624.974	1	12
625.144	1	13
625.313	1	-7
625.483	1	-4
625.652	1	3
625.822	1	0
625.992	1	4
626.161	1	7
626.331	1	2
626.501	1	0
626.670	1	5
626.840	1	1
627.009	1	7
627.179	1	12
627.348	1	13
627.518	1	1
627.688	1	10
627.857	1	13
628.027	1	-10
628.196	1	1
628.366	1	11
628.536	1	4
628.705	1	3
628.875	1	1
629.044	1	1
629.214	1	16
629.384	1	1
629.553	1	13
629.723	1	0
629.892	1	0
630.062	1	10
630.232	1	-3
630.401	1	10
630.571	1	0
630.740	1	7
630.910	1	14
631.079	1	2
631.249	1	3
631.419	1	9
631.588	1	-1
631.758	1	13
631.927	1	-1
632.097	1	3
632.266	1	1
632.436	1	9
632.606	1	2
632.775	1	7
632.945	1	8
633.114	1	7
633.284	1	7
633.453	1	0
633.623	1	3
633.793	1	4
633.962	1	0
634.132	1	6
634.301	1	4
634.471	1	7
634.640	1	3
634.810	1	3
634.979	1	10
635.149	1	9
635.319	1	1
635.488	1	14
635.658	1	1
635.827	1	-7
635.997	1	6
636.166	1	4
636.336	1	-2
636.505	1	10
636.675	1	2
636.845	1	14
637.014	1	6
637.184	1	3
637.353	1	7
637.523	1	9
637.692	1	7
637.862	1	2
638.031	1	5
638.201	1	6
638.370	1	6
638.540	1	-3
638.710	1	-3
638.879	1	-6
639.049	1	-2
639.218	1	9
639.388	1	0
639.557	1	6
639.727	1	4
639.896	1	7
640.066	1	2
640.235	1	10
640.405	1	9
640.574	1	3
640.744	1	1
640.914	1	7
641.083	1	-3
641.253	1	3
641.422	1	13
641.592	1	15
641.761	1	6
641.931	1	2
642.100	1	22
642.270	1	1
642.439	1	12
642.609	1	-2
642.778	1	0
642.948	1	-6
643.117	1	4
643.287	1	3
643.456	1	0
643.626	1	8
643.795	1	0
643.965	1	9
644.134	1	-5
644.304	1	4
644.473	1	5
644.643	1	7
644.812	1	1
644.982	1	13
645.151	1	4
645.321	1	-4
645.490	1	12
645.660	1	-2
645.829	1	9
645.999	1	3
646.168	1	6
646.338	1	6
646.507	1	6
646.677	1	10
646.846	1	5
647.016	1	-7
647.185	1	7
647.355	1	-12
647.524	1	14
647.694	1	13
647.863	1	13
648.033	1	3
648.202	1	10
648.372	1	-1
648.541	1	6
648.711	1	10
648.880	1	-3
649.050	1	-11
649.219	1	5
649.389	1	10
649.558	1	0
649.728	1	9
649.897	1	-2
650.067	1	17
650.236	1	2
650.406	1	4
650.575	1	14
650.745	1	1
650.914	1	-1
651.084	1	-6
651.253	1	10
651.423	1	14
651.592	1	0
651.762	1	0
651.931	1	9
652.101	1	10
652.270	1	9
652.440	1	9
652.609	1	-7
652.778	1	3
652.948	1	12
653.117	1	14
653.287	1	7
653.456	1	8
653.626	1	3
653.795	1	5
653.965	1	6
654.134	1	8
654.304	1	-3
654.473	1	11
654.643	1	16
654.812	1	8
654.982	1	9
655.151	1	-2
655.320	1	4
655.490	1	-2
655.659	1	0
655.829	1	3
655.998	1	5
656.168	1	5
656.337	1	10
656.507	1	-1
656.676	1	8
656.846	1	10
657.015	1	1
657.184	1	11
657.354	1	-1
657.523	1	10
657.693	1	18
657.862	1	5
658.032	1	10
658.201	1	0
658.371	1	10
658.540	1	1
658.709	1	5
658.879	1	17
659.048	1	3
659.218	1	5
659.387	1	12
659.557	1	7
659.726	1	8
659.895	1	-1
660.065	1	-5
660.234	1	2
660.404	1	7
660.573	1	-1
660.743	1	-2
660.912	1	-5
661.081	1	15
661.251	1	2
661.420	1	4
661.590	1	9
661.759	1	10
661.929	1	9
662.098	1	13
662.267	1	8
662.437	1	2
662.606	1	8
662.776	1	7
662.945	1	6
663.115	1	14
663.284	1	-11
663.453	1	3
663.623	1	1
663.792	1	9
663.962	1	12
664.131	1	7
664.300	1	16
664.470	1	5
664.639	1	9
664.809	1	2
664.978	1	16
665.148	1	7
665.317	1	7
665.486	1	17
665.656	1	0
665.825	1	8
665.995	1	-2
666.164	1	7
666.333	1	6
666.503	1	-2
666.672	1	0
666.842	1	1
667.011	1	7
667.180	1	3
667.350	1	4
667.519	1	11
667.689	1	8
667.858	1	9
668.027	1	11
668.197	1	0
668.366	1	-1
668.536	1	9
668.705	1	5
668.874	1	7
669.044	1	6
669.213	1	6
669.382	1	-3
669.552	1	16
669.721	1	11
669.891	1	12
670.060	1	10
670.229	1	19
670.399	1	3
670.568	1	13
670.738	1	8
670.907	1	-6
671.076	1	5
671.246	1	4
671.415	1	4
671.584	1	8
671.754	1	5
671.923	1	6
672.093	1	9
672.262	1	4
672.431	1	4
672.601	1	4
672.770	1	-5
672.939	1	11
673.109	1	4
673.278	1	14
673.448	1	13
673.617	1	9
673.786	1	4
