325.333	1	28
325.504	1	15
325.675	1	25
325.846	1	25
326.017	1	22
326.188	1	24
326.359	1	27
326.531	1	14
326.702	1	26
326.873	1	38
327.044	1	24
327.215	1	23
327.386	1	38
327.557	1	26
327.728	1	27
327.899	1	32
328.070	1	45
328.241	1	36
328.412	1	25
328.583	1	40
328.754	1	31
328.926	1	42
329.097	1	19
329.268	1	38
329.439	1	28
329.610	1	42
329.781	1	22
329.952	1	46
330.123	1	27
330.294	1	29
330.465	1	36
330.636	1	43
330.807	1	39
330.978	1	30
331.149	1	30
331.320	1	29
331.492	1	36
331.663	1	33
331.834	1	48
332.005	1	41
332.176	1	45
332.347	1	50
332.518	1	28
332.689	1	52
332.860	1	34
333.031	1	42
333.202	1	50
333.373	1	46
333.544	1	43
333.715	1	46
333.886	1	39
334.057	1	47
334.228	1	33
334.399	1	45
334.570	1	52
334.741	1	42
334.912	1	52
335.084	1	59
335.255	1	56
335.426	1	51
335.597	1	46
335.768	1	46
335.939	1	55
336.110	1	45
336.281	1	38
336.452	1	43
336.623	1	49
336.794	1	50
336.965	1	46
337.136	1	50
337.307	1	53
337.478	1	51
337.649	1	64
337.820	1	62
337.991	1	59
338.162	1	69
338.333	1	58
338.504	1	51
338.675	1	57
338.846	1	59
339.017	1	52
339.188	1	47
339.359	1	47
339.530	1	56
339.701	1	55
339.872	1	51
340.043	1	50
340.214	1	61
340.385	1	62
340.556	1	45
340.727	1	59
340.898	1	70
341.069	1	60
341.240	1	50
341.411	1	59
341.582	1	60
341.753	1	59
341.924	1	58
342.095	1	67
342.266	1	67
342.437	1	74
342.608	1	58
342.779	1	72
342.950	1	69
343.121	1	75
343.292	1	63
343.463	1	63
343.634	1	63
343.805	1	65
343.976	1	68
344.147	1	66
344.318	1	61
344.489	1	63
344.660	1	81
344.831	1	67
345.002	1	61
345.173	1	73
345.344	1	71
345.515	1	78
345.686	1	77
345.857	1	73
346.028	1	76
346.199	1	71
346.370	1	70
346.541	1	72
346.712	1	64
346.883	1	77
347.054	1	68
347.225	1	73
347.396	1	72
347.567	1	77
347.738	1	81
347.909	1	88
348.080	1	74
348.251	1	96
348.422	1	87
348.593	1	79
348.764	1	69
348.935	1	79
349.106	1	70
349.277	1	79
349.448	1	85
349.619	1	81
349.790	1	74
349.961	1	90
350.132	1	80
350.303	1	83
350.474	1	81
350.645	1	76
350.816	1	70
350.987	1	100
351.157	1	81
351.328	1	92
351.499	1	98
351.670	1	76
351.841	1	99
352.012	1	99
352.183	1	98
352.354	1	101
352.525	1	101
352.696	1	97
352.867	1	96
353.038	1	108
353.209	1	100
353.380	1	89
353.551	1	80
353.722	1	103
353.893	1	88
354.064	1	102
354.235	1	98
354.406	1	95
354.576	1	104
354.747	1	101
354.918	1	106
355.089	1	101
355.260	1	105
355.431	1	99
355.602	1	94
355.773	1	95
355.944	1	104
356.115	1	105
356.286	1	102
356.457	1	117
356.628	1	107
356.799	1	110
356.970	1	108
357.141	1	92
357.311	1	100
357.482	1	107
357.653	1	109
357.824	1	117
357.995	1	110
358.166	1	103
358.337	1	112
358.508	1	101
358.679	1	111
358.850	1	102
359.021	1	101
359.192	1	116
359.363	1	100
359.533	1	104
359.704	1	121
359.875	1	114
360.046	1	103
360.217	1	109
360.388	1	111
360.559	1	108
360.730	1	115
360.901	1	120
361.072	1	121
361.243	1	110
361.414	1	115
361.584	1	107
361.755	1	105
361.926	1	108
362.097	1	119
362.268	1	110
362.439	1	112
362.610	1	124
362.781	1	105
362.952	1	127
363.123	1	116
363.293	1	105
363.464	1	114
363.635	1	113
363.806	1	110
363.977	1	110
364.148	1	116
364.319	1	113
364.490	1	120
364.661	1	109
364.832	1	126
365.002	1	111
365.173	1	116
365.344	1	117
365.515	1	120
365.686	1	120
365.857	1	130
366.028	1	126
366.199	1	112
366.370	1	123
366.540	1	121
366.711	1	110
366.882	1	114
367.053	1	129
367.224	1	128
367.395	1	124
367.566	1	125
367.737	1	123
367.908	1	128
368.078	1	121
368.249	1	135
368.420	1	116
368.591	1	123
368.762	1	125
368.933	1	111
369.104	1	118
369.274	1	111
369.445	1	126
369.616	1	130
369.787	1	124
369.958	1	135
370.129	1	116
370.300	1	141
370.471	1	120
370.641	1	132
370.812	1	136
370.983	1	122
371.154	1	135
371.325	1	132
371.496	1	131
371.667	1	131
371.837	1	126
372.008	1	124
372.179	1	126
372.350	1	134
372.521	1	121
372.692	1	128
372.863	1	131
373.033	1	113
373.204	1	117
373.375	1	133
373.546	1	133
373.717	1	125
373.888	1	139
374.059	1	140
374.229	1	135
374.400	1	129
374.571	1	127
374.742	1	137
374.913	1	138
375.084	1	138
375.254	1	139
375.425	1	139
375.596	1	143
375.767	1	137
375.938	1	137
376.109	1	137
376.279	1	121
376.450	1	148
376.621	1	145
376.792	1	124
376.963	1	138
377.134	1	149
377.304	1	136
377.475	1	128
377.646	1	154
377.817	1	140
377.988	1	143
378.159	1	142
378.329	1	147
378.500	1	129
378.671	1	138
378.842	1	142
379.013	1	135
379.184	1	145
379.354	1	149
379.525	1	148
379.696	1	147
379.867	1	143
380.038	1	133
380.209	1	143
380.379	1	144
380.550	1	142
380.721	1	158
380.892	1	148
381.063	1	141
381.233	1	155
381.404	1	146
381.575	1	158
381.746	1	159
381.917	1	140
382.087	1	146
382.258	1	140
382.429	1	152
382.600	1	176
382.771	1	141
382.941	1	158
383.112	1	161
383.283	1	151
383.454	1	162
383.625	1	152
383.795	1	153
383.966	1	159
384.137	1	161
384.308	1	165
384.479	1	179
384.649	1	156
384.820	1	160
384.991	1	167
385.162	1	161
385.333	1	157
385.503	1	169
385.674	1	150
385.845	1	181
386.016	1	150
386.187	1	176
386.357	1	172
386.528	1	161
386.699	1	164
386.870	1	181
387.041	1	169
387.211	1	176
387.382	1	186
387.553	1	157
387.724	1	159
387.894	1	178
388.065	1	182
388.236	1	179
388.407	1	173
388.578	1	185
388.748	1	167
388.919	1	198
389.090	1	176
389.261	1	164
389.431	1	178
389.602	1	173
389.773	1	185
389.944	1	180
390.114	1	173
390.285	1	179
390.456	1	181
390.627	1	170
390.798	1	174
390.968	1	172
391.139	1	176
391.310	1	161
391.481	1	188
391.651	1	164
391.822	1	172
391.993	1	191
392.164	1	177
392.334	1	170
392.505	1	163
392.676	1	181
392.847	1	176
393.017	1	173
393.188	1	167
393.359	1	169
393.530	1	190
393.700	1	167
393.871	1	182
394.042	1	167
394.213	1	165
394.383	1	176
394.554	1	174
394.725	1	177
394.896	1	187
395.066	1	196
395.237	1	179
395.408	1	191
395.579	1	176
395.749	1	186
395.920	1	178
396.091	1	189
396.262	1	186
396.432	1	185
396.603	1	193
396.774	1	199
396.945	1	190
397.115	1	178
397.286	1	188
397.457	1	182
397.627	1	198
397.798	1	182
397.969	1	179
398.140	1	189
398.310	1	188
398.481	1	196
398.652	1	203
398.823	1	178
398.993	1	178
399.164	1	193
399.335	1	189
399.505	1	191
399.676	1	187
399.847	1	198
400.018	1	189
400.188	1	198
400.359	1	193
400.530	1	185
400.700	1	192
400.871	1	188
401.042	1	173
401.213	1	187
401.383	1	194
401.554	1	199
401.725	1	201
401.895	1	183
402.066	1	191
402.237	1	192
402.408	1	198
402.578	1	202
402.749	1	189
402.920	1	178
403.090	1	178
403.261	1	189
403.432	1	195
403.603	1	197
403.773	1	197
403.944	1	206
404.115	1	189
404.285	1	199
404.456	1	188
404.627	1	175
404.797	1	178
404.968	1	179
405.139	1	177
405.310	1	200
405.480	1	194
405.651	1	197
405.822	1	194
405.992	1	185
406.163	1	194
406.334	1	185
406.504	1	206
406.675	1	203
406.846	1	194
407.016	1	196
407.187	1	210
407.358	1	183
407.528	1	189
407.699	1	183
407.870	1	191
408.041	1	193
408.211	1	219
408.382	1	199
408.553	1	206
408.723	1	205
408.894	1	197
409.065	1	214
409.235	1	200
409.406	1	199
409.577	1	184
409.747	1	217
409.918	1	196
410.089	1	194
410.259	1	199
410.430	1	196
410.601	1	197
410.771	1	195
410.942	1	206
411.113	1	206
411.283	1	197
411.454	1	201
411.625	1	203
411.795	1	200
411.966	1	191
412.137	1	191
412.307	1	183
412.478	1	180
412.649	1	201
412.819	1	191
412.990	1	185
413.161	1	198
413.331	1	194
413.502	1	203
413.672	1	184
413.843	1	193
414.014	1	188
414.184	1	199
414.355	1	199
414.526	1	200
414.696	1	200
414.867	1	195
415.038	1	184
415.208	1	188
415.379	1	194
415.550	1	192
415.720	1	179
415.891	1	185
416.062	1	189
416.232	1	197
416.403	1	194
416.573	1	192
416.744	1	194
416.915	1	199
417.085	1	178
417.256	1	191
417.427	1	193
417.597	1	185
417.768	1	183
417.939	1	183
418.109	1	200
418.280	1	196
418.450	1	187
418.621	1	182
418.792	1	192
418.962	1	190
419.133	1	199
419.304	1	187
419.474	1	174
419.645	1	188
419.815	1	182
419.986	1	197
420.157	1	191
420.327	1	197
420.498	1	196
420.669	1	194
420.839	1	202
421.010	1	178
421.180	1	195
421.351	1	191
421.522	1	194
421.692	1	193
421.863	1	191
422.033	1	200
422.204	1	181
422.375	1	178
422.545	1	195
422.716	1	193
422.886	1	168
423.057	1	181
423.228	1	189
423.398	1	186
423.569	1	183
423.740	1	181
423.910	1	173
424.081	1	172
424.251	1	185
424.422	1	176
424.593	1	171
424.763	1	178
424.934	1	179
425.104	1	185
425.275	1	180
425.445	1	169
425.616	1	179
425.787	1	160
425.957	1	181
426.128	1	181
426.298	1	175
426.469	1	175
426.640	1	166
426.810	1	163
426.981	1	161
427.151	1	165
427.322	1	172
427.493	1	162
427.663	1	165
427.834	1	169
428.004	1	182
428.175	1	171
428.345	1	152
428.516	1	175
428.687	1	165
428.857	1	162
429.028	1	169
429.198	1	169
429.369	1	173
429.540	1	175
429.710	1	163
429.881	1	174
430.051	1	160
430.222	1	176
430.392	1	158
430.563	1	173
430.734	1	175
430.904	1	180
431.075	1	185
431.245	1	166
431.416	1	175
431.586	1	160
431.757	1	178
431.927	1	170
432.098	1	153
432.269	1	166
432.439	1	157
432.610	1	174
432.780	1	162
432.951	1	165
433.121	1	172
433.292	1	172
433.462	1	171
433.633	1	165
433.804	1	176
433.974	1	172
434.145	1	174
434.315	1	168
434.486	1	164
434.656	1	175
434.827	1	168
434.997	1	159
435.168	1	178
435.339	1	153
435.509	1	156
435.680	1	182
435.850	1	160
436.021	1	160
436.191	1	169
436.362	1	167
436.532	1	160
436.703	1	167
436.873	1	167
437.044	1	152
437.214	1	158
437.385	1	157
437.556	1	151
437.726	1	167
437.897	1	164
438.067	1	155
438.238	1	142
438.408	1	146
438.579	1	167
438.749	1	147
438.920	1	159
439.090	1	144
439.261	1	147
439.431	1	153
439.602	1	144
439.772	1	155
439.943	1	155
440.113	1	160
440.284	1	150
440.455	1	135
440.625	1	144
440.796	1	147
440.966	1	141
441.137	1	143
441.307	1	139
441.478	1	147
441.648	1	160
441.819	1	146
441.989	1	145
442.160	1	149
442.330	1	145
442.501	1	144
442.671	1	137
442.842	1	135
443.012	1	144
443.183	1	148
443.353	1	132
443.524	1	143
443.694	1	149
443.865	1	145
444.035	1	135
444.206	1	156
444.376	1	142
444.547	1	154
444.717	1	139
444.888	1	125
445.058	1	144
445.229	1	137
445.399	1	143
445.570	1	130
445.740	1	146
445.911	1	131
446.081	1	138
446.252	1	149
446.422	1	136
446.593	1	141
446.763	1	133
446.934	1	139
447.104	1	140
447.275	1	139
447.445	1	145
447.616	1	144
447.786	1	117
447.957	1	132
448.127	1	131
448.298	1	140
448.468	1	126
448.639	1	134
448.809	1	134
448.979	1	124
449.150	1	136
449.320	1	124
449.491	1	140
449.661	1	122
449.832	1	135
450.002	1	128
450.173	1	127
450.343	1	123
450.514	1	135
450.684	1	137
450.855	1	125
451.025	1	131
451.196	1	132
451.366	1	132
451.537	1	122
451.707	1	125
451.878	1	126
452.048	1	135
452.218	1	138
452.389	1	137
452.559	1	126
452.730	1	132
452.900	1	123
453.071	1	116
453.241	1	109
453.412	1	119
453.582	1	113
453.753	1	114
453.923	1	121
454.093	1	132
454.264	1	141
454.434	1	117
454.605	1	117
454.775	1	126
454.946	1	122
455.116	1	122
455.287	1	105
455.457	1	109
455.628	1	104
455.798	1	122
455.968	1	122
456.139	1	128
456.309	1	114
456.480	1	101
456.650	1	121
456.821	1	108
456.991	1	122
457.161	1	103
457.332	1	108
457.502	1	102
457.673	1	127
457.843	1	115
458.014	1	112
458.184	1	107
458.355	1	108
458.525	1	112
458.695	1	112
458.866	1	123
459.036	1	105
459.207	1	117
459.377	1	100
459.548	1	114
459.718	1	109
459.888	1	120
460.059	1	116
460.229	1	111
460.400	1	120
460.570	1	111
460.740	1	101
460.911	1	112
461.081	1	112
461.252	1	95
461.422	1	106
461.593	1	108
461.763	1	106
461.933	1	122
462.104	1	109
462.274	1	96
462.445	1	97
462.615	1	103
462.785	1	108
462.956	1	115
463.126	1	113
463.297	1	106
463.467	1	106
463.638	1	106
463.808	1	95
463.978	1	94
464.149	1	99
464.319	1	98
464.490	1	114
464.660	1	89
464.830	1	104
465.001	1	89
465.171	1	97
465.342	1	102
465.512	1	94
465.682	1	103
465.853	1	106
466.023	1	99
466.194	1	99
466.364	1	112
466.534	1	102
466.705	1	90
466.875	1	89
467.045	1	95
467.216	1	107
467.386	1	90
467.557	1	104
467.727	1	86
467.897	1	89
468.068	1	91
468.238	1	94
468.409	1	86
468.579	1	93
468.749	1	95
468.920	1	85
469.090	1	94
469.260	1	89
469.431	1	89
469.601	1	93
469.772	1	97
469.942	1	78
470.112	1	100
470.283	1	96
470.453	1	95
470.623	1	89
470.794	1	77
470.964	1	87
471.135	1	91
471.305	1	76
471.475	1	89
471.646	1	84
471.816	1	80
471.986	1	94
472.157	1	91
472.327	1	83
472.497	1	86
472.668	1	88
472.838	1	84
473.009	1	81
473.179	1	87
473.349	1	84
473.520	1	80
473.690	1	84
473.860	1	92
474.031	1	93
474.201	1	85
474.371	1	94
474.542	1	84
474.712	1	84
474.882	1	84
475.053	1	88
475.223	1	85
475.394	1	89
475.564	1	87
475.734	1	90
475.905	1	91
476.075	1	94
476.245	1	92
476.416	1	90
476.586	1	87
476.756	1	78
476.927	1	96
477.097	1	77
477.267	1	66
477.438	1	84
477.608	1	75
477.778	1	82
477.949	1	93
478.119	1	89
478.289	1	83
478.460	1	84
478.630	1	91
478.800	1	73
478.971	1	87
479.141	1	80
479.311	1	70
479.482	1	75
479.652	1	76
479.822	1	95
479.993	1	78
480.163	1	79
480.333	1	83
480.504	1	86
480.674	1	78
480.844	1	73
481.015	1	76
481.185	1	71
481.355	1	80
481.525	1	73
481.696	1	85
481.866	1	64
482.036	1	67
482.207	1	82
482.377	1	72
482.547	1	88
482.718	1	67
482.888	1	67
483.058	1	69
483.229	1	63
483.399	1	64
483.569	1	78
483.740	1	76
483.910	1	77
484.080	1	76
484.250	1	78
484.421	1	73
484.591	1	73
484.761	1	81
484.932	1	67
485.102	1	79
485.272	1	58
485.443	1	87
485.613	1	71
485.783	1	65
485.953	1	77
486.124	1	71
486.294	1	69
486.464	1	64
486.635	1	75
486.805	1	67
486.975	1	67
487.146	1	71
487.316	1	68
487.486	1	68
487.656	1	67
487.827	1	62
487.997	1	50
488.167	1	69
488.338	1	76
488.508	1	63
488.678	1	66
488.848	1	77
489.019	1	59
489.189	1	59
489.359	1	63
489.529	1	73
489.700	1	51
489.870	1	86
490.040	1	61
490.211	1	56
490.381	1	66
490.551	1	64
490.721	1	72
490.892	1	65
491.062	1	62
491.232	1	65
491.402	1	60
491.573	1	46
491.743	1	60
491.913	1	58
492.084	1	74
492.254	1	48
492.424	1	55
492.594	1	60
492.765	1	58
492.935	1	52
493.105	1	63
493.275	1	58
493.446	1	66
493.616	1	62
493.786	1	56
493.956	1	57
494.127	1	54
494.297	1	61
494.467	1	53
494.637	1	50
494.808	1	60
494.978	1	56
495.148	1	50
495.318	1	56
495.489	1	58
495.659	1	61
495.829	1	62
495.999	1	52
496.170	1	62
496.340	1	61
496.510	1	58
496.680	1	49
496.851	1	60
497.021	1	55
497.191	1	60
497.361	1	45
497.532	1	49
497.702	1	50
497.872	1	57
498.042	1	67
498.213	1	57
498.383	1	53
498.553	1	43
498.723	1	44
498.894	1	52
499.064	1	62
499.234	1	51
499.404	1	52
499.574	1	63
499.745	1	53
499.915	1	63
500.085	1	52
500.255	1	61
500.426	1	56
500.596	1	69
500.766	1	64
500.936	1	53
501.106	1	48
501.277	1	57
501.447	1	44
501.617	1	53
501.787	1	48
501.958	1	47
502.128	1	46
502.298	1	56
502.468	1	49
502.638	1	53
502.809	1	48
502.979	1	45
503.149	1	57
503.319	1	40
503.489	1	41
503.660	1	51
503.830	1	53
504.000	1	48
504.170	1	33
504.340	1	45
504.511	1	48
504.681	1	48
504.851	1	53
505.021	1	51
505.192	1	44
505.362	1	54
505.532	1	43
505.702	1	51
505.872	1	49
506.043	1	44
506.213	1	43
506.383	1	47
506.553	1	45
506.723	1	59
506.893	1	54
507.064	1	46
507.234	1	47
507.404	1	49
507.574	1	43
507.744	1	43
507.915	1	50
508.085	1	49
508.255	1	51
508.425	1	47
508.595	1	49
508.766	1	50
508.936	1	27
509.106	1	46
509.276	1	45
509.446	1	32
509.616	1	44
509.787	1	48
509.957	1	42
510.127	1	45
510.297	1	47
510.467	1	39
510.638	1	39
510.808	1	37
510.978	1	36
511.148	1	39
511.318	1	40
511.488	1	37
511.659	1	38
511.829	1	32
511.999	1	42
512.169	1	39
512.339	1	50
512.509	1	49
512.680	1	35
512.850	1	39
513.020	1	37
513.190	1	51
513.360	1	39
513.530	1	35
513.700	1	46
513.871	1	29
514.041	1	35
514.211	1	41
514.381	1	47
514.551	1	36
514.721	1	43
514.892	1	38
515.062	1	45
515.232	1	45
515.402	1	32
515.572	1	27
515.742	1	37
515.912	1	49
516.083	1	50
516.253	1	47
516.423	1	42
516.593	1	40
516.763	1	51
516.933	1	33
517.104	1	30
517.274	1	39
517.444	1	43
517.614	1	31
517.784	1	32
517.954	1	45
518.124	1	44
518.294	1	34
518.465	1	30
518.635	1	37
518.805	1	33
518.975	1	38
519.145	1	36
519.315	1	35
519.485	1	31
519.656	1	44
519.826	1	32
519.996	1	34
520.166	1	34
520.336	1	45
520.506	1	39
520.676	1	30
520.846	1	39
521.017	1	34
521.187	1	31
521.357	1	42
521.527	1	29
521.697	1	40
521.867	1	44
522.037	1	43
522.207	1	33
522.377	1	47
522.548	1	26
522.718	1	25
522.888	1	45
523.058	1	34
523.228	1	28
523.398	1	40
523.568	1	35
523.738	1	25
523.909	1	36
524.079	1	32
524.249	1	33
524.419	1	33
524.589	1	26
524.759	1	34
524.929	1	38
525.099	1	25
525.269	1	39
525.439	1	34
525.610	1	47
525.780	1	30
525.950	1	34
526.120	1	24
526.290	1	36
526.460	1	25
526.630	1	28
526.800	1	29
526.970	1	40
527.140	1	31
527.311	1	26
527.481	1	22
527.651	1	28
527.821	1	26
527.991	1	29
528.161	1	41
528.331	1	33
528.501	1	30
528.671	1	26
528.841	1	36
529.011	1	17
529.181	1	31
529.352	1	24
529.522	1	23
529.692	1	32
529.862	1	25
530.032	1	31
530.202	1	40
530.372	1	31
530.542	1	26
530.712	1	29
530.882	1	36
531.052	1	24
531.222	1	19
531.392	1	27
531.563	1	34
531.733	1	27
531.903	1	23
532.073	1	24
532.243	1	24
532.413	1	29
532.583	1	25
532.753	1	28
532.923	1	14
533.093	1	28
533.263	1	27
533.433	1	23
533.603	1	24
533.773	1	23
533.943	1	19
534.113	1	28
534.284	1	26
534.454	1	22
534.624	1	33
534.794	1	10
534.964	1	32
535.134	1	19
535.304	1	24
535.474	1	31
535.644	1	19
535.814	1	20
535.984	1	8
536.154	1	7
536.324	1	22
536.494	1	34
536.664	1	28
536.834	1	15
537.004	1	23
537.174	1	28
537.344	1	25
537.514	1	19
537.685	1	25
537.855	1	38
538.025	1	17
538.195	1	27
538.365	1	38
538.535	1	25
538.705	1	21
538.875	1	30
539.045	1	28
539.215	1	35
539.385	1	11
539.555	1	30
539.725	1	27
539.895	1	13
540.065	1	31
540.235	1	23
540.405	1	21
540.575	1	21
540.745	1	27
540.915	1	26
541.085	1	29
541.255	1	26
541.425	1	25
541.595	1	15
541.765	1	32
541.935	1	15
542.105	1	14
542.275	1	20
542.445	1	9
542.615	1	24
542.785	1	28
542.955	1	20
543.125	1	20
543.295	1	19
543.465	1	23
543.635	1	21
543.805	1	34
543.975	1	19
544.145	1	24
544.315	1	20
544.485	1	26
544.655	1	17
544.825	1	11
544.995	1	22
545.165	1	15
545.335	1	20
545.505	1	9
545.675	1	16
545.845	1	26
546.015	1	21
546.185	1	16
546.355	1	18
546.525	1	25
546.695	1	26
546.865	1	12
547.035	1	29
547.205	1	2
547.375	1	22
547.545	1	32
547.715	1	15
547.885	1	21
548.055	1	17
548.225	1	21
548.395	1	17
548.565	1	18
548.735	1	9
548.905	1	10
549.075	1	16
549.245	1	14
549.415	1	16
549.585	1	28
549.755	1	21
549.925	1	13
550.095	1	24
550.265	1	13
550.435	1	12
550.605	1	18
550.775	1	19
550.945	1	25
551.115	1	20
551.285	1	16
551.455	1	8
551.625	1	24
551.795	1	29
551.965	1	16
552.135	1	12
552.305	1	10
552.475	1	16
552.645	1	22
552.815	1	13
552.985	1	14
553.155	1	17
553.325	1	19
553.495	1	15
553.665	1	9
553.835	1	22
554.004	1	21
554.174	1	12
554.344	1	23
554.514	1	19
554.684	1	22
554.854	1	22
555.024	1	1
555.194	1	4
555.364	1	11
555.534	1	18
555.704	1	12
555.874	1	20
556.044	1	13
556.214	1	13
556.384	1	11
556.554	1	27
556.724	1	15
556.894	1	20
557.064	1	20
557.234	1	22
557.404	1	18
557.573	1	25
557.743	1	22
557.913	1	6
558.083	1	5
558.253	1	16
558.423	1	15
558.593	1	16
558.763	1	18
558.933	1	18
559.103	1	28
559.273	1	9
559.443	1	17
559.613	1	27
559.783	1	12
559.953	1	18
560.122	1	17
560.292	1	26
560.462	1	16
560.632	1	25
560.802	1	14
560.972	1	12
561.142	1	19
561.312	1	2
561.482	1	24
561.652	1	29
561.822	1	15
561.992	1	14
562.162	1	10
562.331	1	8
562.501	1	17
562.671	1	24
562.841	1	11
563.011	1	17
563.181	1	14
563.351	1	14
563.521	1	15
563.691	1	9
563.861	1	17
564.031	1	20
564.201	1	30
564.370	1	9
564.540	1	18
564.710	1	1
564.880	1	16
565.050	1	22
565.220	1	11
565.390	1	20
565.560	1	14
565.730	1	5
565.900	1	16
566.069	1	24
566.239	1	8
566.409	1	17
566.579	1	11
566.749	1	14
566.919	1	21
567.089	1	18
567.259	1	18
567.429	1	17
567.599	1	15
567.768	1	13
567.938	1	15
568.108	1	17
568.278	1	8
568.448	1	4
568.618	1	16
568.788	1	18
568.958	1	4
569.128	1	21
569.297	1	7
569.467	1	12
569.637	1	24
569.807	1	7
569.977	1	15
570.147	1	12
570.317	1	15
570.487	1	10
570.656	1	20
570.826	1	11
570.996	1	9
571.166	1	27
571.336	1	10
571.506	1	13
571.676	1	7
571.846	1	22
572.015	1	20
572.185	1	9
572.355	1	18
572.525	1	19
572.695	1	10
572.865	1	13
573.035	1	18
573.205	1	19
573.374	1	9
573.544	1	9
573.714	1	15
573.884	1	16
574.054	1	14
574.224	1	18
574.394	1	10
574.563	1	10
574.733	1	14
574.903	1	9
575.073	1	2
575.243	1	10
575.413	1	17
575.583	1	6
575.752	1	7
575.922	1	11
576.092	1	18
576.262	1	15
576.432	1	20
576.602	1	13
576.772	1	22
576.941	1	19
577.111	1	13
577.281	1	-7
577.451	1	14
577.621	1	18
577.791	1	23
577.960	1	10
578.130	1	16
578.300	1	20
578.470	1	18
578.640	1	13
578.810	1	13
578.979	1	19
579.149	1	-1
579.319	1	3
579.489	1	13
579.659	1	8
579.829	1	8
579.998	1	20
580.168	1	18
580.338	1	17
580.508	1	16
580.678	1	9
580.848	1	9
581.017	1	4
581.187	1	14
581.357	1	3
581.527	1	20
581.697	1	19
581.867	1	12
582.036	1	11
582.206	1	7
582.376	1	20
582.546	1	2
582.716	1	10
582.885	1	0
583.055	1	5
583.225	1	0
583.395	1	11
583.565	1	5
583.735	1	18
583.904	1	13
584.074	1	24
584.244	1	13
584.414	1	16
584.584	1	14
584.753	1	6
584.923	1	13
585.093	1	10
585.263	1	14
585.433	1	13
585.602	1	11
585.772	1	16
585.942	1	8
586.112	1	12
586.282	1	5
586.451	1	7
586.621	1	7
586.791	1	8
586.961	1	10
587.131	1	20
587.300	1	10
587.470	1	17
587.640	1	18
587.810	1	5
587.980	1	20
588.149	1	17
588.319	1	13
588.489	1	6
588.659	1	8
588.829	1	14
588.998	1	27
589.168	1	8
589.338	1	12
589.508	1	14
589.677	1	2
589.847	1	2
590.017	1	27
590.187	1	7
590.357	1	20
590.526	1	24
590.696	1	5
590.866	1	19
591.036	1	1
591.205	1	23
591.375	1	14
591.545	1	8
591.715	1	18
591.885	1	10
592.054	1	17
592.224	1	10
592.394	1	17
592.564	1	11
592.733	1	8
592.903	1	16
593.073	1	12
593.243	1	11
593.412	1	16
593.582	1	11
593.752	1	13
593.922	1	8
594.091	1	13
594.261	1	7
594.431	1	19
594.601	1	7
594.771	1	17
594.940	1	18
595.110	1	15
595.280	1	10
595.450	1	16
595.619	1	10
595.789	1	17
595.959	1	8
596.129	1	13
596.298	1	14
596.468	1	23
596.638	1	14
596.808	1	14
596.977	1	19
597.147	1	22
597.317	1	5
597.487	1	19
597.656	1	9
597.826	1	14
597.996	1	17
598.166	1	11
598.335	1	8
598.505	1	12
598.675	1	-7
598.844	1	14
599.014	1	13
599.184	1	10
599.354	1	-1
599.523	1	27
599.693	1	6
599.863	1	14
600.033	1	15
600.202	1	13
600.372	1	19
600.542	1	23
600.712	1	5
600.881	1	13
601.051	1	19
601.221	1	13
601.390	1	7
601.560	1	32
601.730	1	17
601.900	1	7
602.069	1	19
602.239	1	6
602.409	1	3
602.578	1	16
602.748	1	9
602.918	1	16
603.088	1	17
603.257	1	23
603.427	1	1
603.597	1	17
603.767	1	6
603.936	1	16
604.106	1	15
604.276	1	12
604.445	1	25
604.615	1	13
604.785	1	12
604.954	1	24
605.124	1	16
605.294	1	7
605.464	1	10
605.633	1	13
605.803	1	12
605.973	1	15
606.142	1	12
606.312	1	18
606.482	1	21
606.652	1	22
606.821	1	4
606.991	1	16
607.161	1	6
607.330	1	19
607.500	1	9
607.670	1	5
607.839	1	19
608.009	1	29
608.179	1	9
608.348	1	22
608.518	1	14
608.688	1	25
608.858	1	9
609.027	1	12
609.197	1	14
609.367	1	22
609.536	1	17
609.706	1	15
609.876	1	18
610.045	1	24
610.215	1	14
610.385	1	8
610.554	1	22
610.724	1	19
610.894	1	5
611.063	1	10
611.233	1	16
611.403	1	9
611.572	1	13
611.742	1	18
611.912	1	14
612.081	1	16
612.251	1	21
612.421	1	18
612.590	1	19
612.760	1	6
612.930	1	11
613.099	1	15
613.269	1	24
613.439	1	11
613.608	1	25
613.778	1	14
613.948	1	15
614.117	1	12
614.287	1	20
614.457	1	22
614.626	1	5
614.796	1	21
614.966	1	10
615.135	1	13
615.305	1	30
615.475	1	10
615.644	1	21
615.814	1	20
615.984	1	16
616.153	1	5
616.323	1	21
616.493	1	6
616.662	1	13
616.832	1	15
617.002	1	11
617.171	1	16
617.341	1	23
617.511	1	13
617.680	1	14
617.850	1	5
618.019	1	28
618.189	1	32
618.359	1	28
618.528	1	11
618.698	1	18
618.868	1	17
619.037	1	15
619.207	1	13
619.377	1	17
619.546	1	15
619.716	1	14
619.885	1	10
620.055	1	14
620.225	1	21
620.394	1	4
620.564	1	26
620.734	1	14
620.903	1	19
621.073	1	20
621.242	1	25
621.412	1	16
621.582	1	20
621.751	1	24
621.921	1	18
622.091	1	9
622.260	1	19
622.430	1	34
622.599	1	13
622.769	1	20
622.939	1	15
623.108	1	20
623.278	1	8
623.448	1	13
623.617	1	8
623.787	1	15
623.956	1	25
624.126	1	14
624.296	1	20
624.465	1	21
624.635	1	27
624.804	1	19
624.974	1	14
625.144	1	26
625.313	1	15
625.483	1	15
625.652	1	10
625.822	1	15
625.992	1	16
626.161	1	23
626.331	1	21
626.501	1	19
626.670	1	22
626.840	1	11
627.009	1	22
627.179	1	22
627.348	1	27
627.518	1	19
627.688	1	20
627.857	1	24
628.027	1	16
628.196	1	27
628.366	1	13
628.536	1	20
628.705	1	13
628.875	1	23
629.044	1	18
629.214	1	36
629.384	1	28
629.553	1	28
629.723	1	22
629.892	1	10
630.062	1	22
630.232	1	22
630.401	1	26
630.571	1	21
630.740	1	26
630.910	1	31
631.079	1	17
631.249	1	31
631.419	1	27
631.588	1	15
631.758	1	37
631.927	1	16
632.097	1	23
632.266	1	25
632.436	1	22
632.606	1	16
632.775	1	25
632.945	1	22
633.114	1	17
633.284	1	22
633.453	1	24
633.623	1	21
633.793	1	20
633.962	1	29
634.132	1	29
634.301	1	24
634.471	1	20
634.640	1	32
634.810	1	26
634.979	1	29
635.149	1	23
635.319	1	18
635.488	1	22
635.658	1	21
635.827	1	16
635.997	1	13
636.166	1	18
636.336	1	15
636.505	1	35
636.675	1	19
636.845	1	27
637.014	1	25
637.184	1	27
637.353	1	23
637.523	1	30
637.692	1	25
637.862	1	27
638.031	1	27
638.201	1	26
638.370	1	26
638.540	1	26
638.710	1	22
638.879	1	17
639.049	1	16
639.218	1	18
639.388	1	23
639.557	1	20
639.727	1	34
639.896	1	21
640.066	1	23
640.235	1	23
640.405	1	30
640.574	1	21
640.744	1	10
640.914	1	20
641.083	1	18
641.253	1	26
641.422	1	20
641.592	1	39
641.761	1	11
641.931	1	19
642.100	1	45
642.270	1	20
642.439	1	22
642.609	1	38
642.778	1	23
642.948	1	20
643.117	1	43
643.287	1	30
643.456	1	22
643.626	1	29
643.795	1	25
643.965	1	24
644.134	1	20
644.304	1	26
644.473	1	32
644.643	1	36
644.812	1	17
644.982	1	32
645.151	1	41
645.321	1	17
645.490	1	26
645.660	1	21
645.829	1	24
645.999	1	23
646.168	1	33
646.338	1	36
646.507	1	21
646.677	1	31
646.846	1	28
647.016	1	16
647.185	1	20
647.355	1	20
647.524	1	26
647.694	1	33
647.863	1	30
648.033	1	29
648.202	1	28
648.372	1	28
648.541	1	24
648.711	1	26
648.880	1	27
649.050	1	15
649.219	1	28
649.389	1	38
649.558	1	23
649.728	1	31
649.897	1	34
650.067	1	28
650.236	1	21
650.406	1	34
650.575	1	33
650.745	1	35
650.914	1	33
651.084	1	15
651.253	1	43
651.423	1	29
651.592	1	26
651.762	1	22
651.931	1	39
652.101	1	26
652.270	1	36
652.440	1	38
652.609	1	23
652.778	1	30
652.948	1	26
653.117	1	21
653.287	1	38
653.456	1	35
653.626	1	39
653.795	1	39
653.965	1	33
654.134	1	40
654.304	1	13
654.473	1	28
654.643	1	37
654.812	1	37
654.982	1	30
655.151	1	34
655.320	1	36
655.490	1	18
655.659	1	24
655.829	1	22
655.998	1	18
656.168	1	25
656.337	1	26
656.507	1	31
656.676	1	37
656.846	1	30
657.015	1	32
657.184	1	42
657.354	1	31
657.523	1	18
657.693	1	37
657.862	1	35
658.032	1	23
658.201	1	41
658.371	1	51
658.540	1	32
658.709	1	33
658.879	1	42
659.048	1	30
659.218	1	31
659.387	1	29
659.557	1	35
659.726	1	44
659.895	1	26
660.065	1	36
660.234	1	44
660.404	1	26
660.573	1	35
660.743	1	39
660.912	1	35
661.081	1	36
661.251	1	36
661.420	1	44
661.590	1	33
661.759	1	43
661.929	1	35
662.098	1	38
662.267	1	39
662.437	1	40
662.606	1	23
662.776	1	34
662.945	1	38
663.115	1	30
663.284	1	38
663.453	1	28
663.623	1	26
663.792	1	43
663.962	1	25
664.131	1	29
664.300	1	39
664.470	1	27
664.639	1	31
664.809	1	41
664.978	1	42
665.148	1	33
665.317	1	36
665.486	1	43
665.656	1	38
665.825	1	40
665.995	1	37
666.164	1	32
666.333	1	27
666.503	1	32
666.672	1	35
666.842	1	30
667.011	1	38
667.180	1	42
667.350	1	36
667.519	1	37
667.689	1	35
667.858	1	44
668.027	1	45
668.197	1	30
668.366	1	33
668.536	1	44
668.705	1	42
668.874	1	31
669.044	1	46
669.213	1	42
669.382	1	18
669.552	1	40
669.721	1	48
669.891	1	38
670.060	1	34
670.229	1	49
670.399	1	29
670.568	1	44
670.738	1	39
670.907	1	35
671.076	1	29
671.246	1	33
671.415	1	26
671.584	1	41
671.754	1	38
671.923	1	27
672.093	1	42
672.262	1	32
672.431	1	33
672.601	1	34
672.770	1	39
672.939	1	45
673.109	1	27
673.278	1	39
673.448	1	44
673.617	1	26
673.786	1	38
