325.333	1	3
325.504	1	2
325.675	1	6
325.846	1	6
326.017	1	-6
326.188	1	-2
326.359	1	-3
326.531	1	-9
326.702	1	-7
326.873	1	5
327.044	1	-4
327.215	1	6
327.386	1	9
327.557	1	0
327.728	1	6
327.899	1	3
328.070	1	12
328.241	1	1
328.412	1	-4
328.583	1	13
328.754	1	1
328.926	1	3
329.097	1	5
329.268	1	5
329.439	1	11
329.610	1	13
329.781	1	-2
329.952	1	9
330.123	1	6
330.294	1	8
330.465	1	9
330.636	1	6
330.807	1	-6
330.978	1	-1
331.149	1	3
331.320	1	6
331.492	1	1
331.663	1	2
331.834	1	13
332.005	1	9
332.176	1	14
332.347	1	6
332.518	1	-5
332.689	1	8
332.860	1	16
333.031	1	10
333.202	1	-1
333.373	1	5
333.544	1	10
333.715	1	16
333.886	1	-12
334.057	1	5
334.228	1	2
334.399	1	11
334.570	1	3
334.741	1	3
334.912	1	15
335.084	1	26
335.255	1	1
335.426	1	-2
335.597	1	4
335.768	1	8
335.939	1	7
336.110	1	-1
336.281	1	2
336.452	1	9
336.623	1	9
336.794	1	2
336.965	1	5
337.136	1	8
337.307	1	12
337.478	1	-4
337.649	1	12
337.820	1	7
337.991	1	2
338.162	1	3
338.333	1	-2
338.504	1	8
338.675	1	5
338.846	1	10
339.017	1	5
339.188	1	0
339.359	1	-4
339.530	1	9
339.701	1	13
339.872	1	15
340.043	1	1
340.214	1	6
340.385	1	22
340.556	1	5
340.727	1	12
340.898	1	21
341.069	1	0
341.240	1	0
341.411	1	13
341.582	1	11
341.753	1	-3
341.924	1	9
342.095	1	13
342.266	1	14
342.437	1	18
342.608	1	4
342.779	1	9
342.950	1	6
343.121	1	7
343.292	1	11
343.463	1	3
343.634	1	6
343.805	1	17
343.976	1	15
344.147	1	2
344.318	1	1
344.489	1	6
344.660	1	12
344.831	1	3
345.002	1	1
345.173	1	6
345.344	1	5
345.515	1	6
345.686	1	9
345.857	1	14
346.028	1	4
346.199	1	-5
346.370	1	5
346.541	1	10
346.712	1	1
346.883	1	11
347.054	1	13
347.225	1	15
347.396	1	11
347.567	1	9
347.738	1	-6
347.909	1	18
348.080	1	0
348.251	1	15
348.422	1	11
348.593	1	11
348.764	1	10
348.935	1	17
349.106	1	-5
349.277	1	11
349.448	1	15
349.619	1	9
349.790	1	-5
349.961	1	11
350.132	1	19
350.303	1	11
350.474	1	29
350.645	1	15
350.816	1	9
350.987	1	17
351.157	1	6
351.328	1	13
351.499	1	12
351.670	1	0
351.841	1	22
352.012	1	10
352.183	1	18
352.354	1	22
352.525	1	19
352.696	1	12
352.867	1	6
353.038	1	10
353.209	1	14
353.380	1	12
353.551	1	4
353.722	1	11
353.893	1	8
354.064	1	18
354.235	1	13
354.406	1	15
354.576	1	14
354.747	1	4
354.918	1	12
355.089	1	17
355.260	1	11
355.431	1	20
355.602	1	5
355.773	1	10
355.944	1	8
356.115	1	-1
356.286	1	10
356.457	1	9
356.628	1	23
356.799	1	4
356.970	1	23
357.141	1	7
357.311	1	4
357.482	1	8
357.653	1	12
357.824	1	19
357.995	1	7
358.166	1	3
358.337	1	11
358.508	1	21
358.679	1	11
358.850	1	11
359.021	1	4
359.192	1	11
359.363	1	6
359.533	1	15
359.704	1	19
359.875	1	7
360.046	1	10
360.217	1	-3
360.388	1	12
360.559	1	5
360.730	1	11
360.901	1	14
361.072	1	16
361.243	1	20
361.414	1	13
361.584	1	8
361.755	1	19
361.926	1	10
362.097	1	8
362.268	1	18
362.439	1	6
362.610	1	18
362.781	1	7
362.952	1	6
363.123	1	12
363.293	1	8
363.464	1	10
363.635	1	11
363.806	1	9
363.977	1	15
364.148	1	17
364.319	1	14
364.490	1	8
364.661	1	17
364.832	1	19
365.002	1	25
365.173	1	19
365.344	1	27
365.515	1	14
365.686	1	7
365.857	1	11
366.028	1	22
366.199	1	-4
366.370	1	13
366.540	1	2
366.711	1	1
366.882	1	2
367.053	1	5
367.224	1	36
367.395	1	17
367.566	1	24
367.737	1	20
367.908	1	12
368.078	1	9
368.249	1	16
368.420	1	4
368.591	1	3
368.762	1	19
368.933	1	8
369.104	1	9
369.274	1	15
369.445	1	9
369.616	1	14
369.787	1	16
369.958	1	18
370.129	1	8
370.300	1	19
370.471	1	11
370.641	1	24
370.812	1	11
370.983	1	8
371.154	1	9
371.325	1	15
371.496	1	14
371.667	1	19
371.837	1	4
372.008	1	11
372.179	1	12
372.350	1	24
372.521	1	14
372.692	1	16
372.863	1	13
373.033	1	11
373.204	1	10
373.375	1	12
373.546	1	13
373.717	1	18
373.888	1	28
374.059	1	18
374.229	1	25
374.400	1	10
374.571	1	15
374.742	1	22
374.913	1	11
375.084	1	14
375.254	1	21
375.425	1	19
375.596	1	13
375.767	1	18
375.938	1	14
376.109	1	19
376.279	1	8
376.450	1	13
376.621	1	18
376.792	1	5
376.963	1	11
377.134	1	23
377.304	1	17
377.475	1	16
377.646	1	11
377.817	1	9
377.988	1	15
378.159	1	25
378.329	1	28
378.500	1	11
378.671	1	21
378.842	1	10
379.013	1	5
379.184	1	9
379.354	1	16
379.525	1	19
379.696	1	22
379.867	1	19
380.038	1	13
380.209	1	24
380.379	1	22
380.550	1	5
380.721	1	20
380.892	1	18
381.063	1	15
381.233	1	18
381.404	1	16
381.575	1	28
381.746	1	23
381.917	1	14
382.087	1	16
382.258	1	12
382.429	1	20
382.600	1	27
382.771	1	11
382.941	1	8
383.112	1	9
383.283	1	7
383.454	1	11
383.625	1	16
383.795	1	20
383.966	1	11
384.137	1	20
384.308	1	19
384.479	1	13
384.649	1	20
384.820	1	12
384.991	1	16
385.162	1	21
385.333	1	12
385.503	1	12
385.674	1	4
385.845	1	26
386.016	1	21
386.187	1	16
386.357	1	23
386.528	1	17
386.699	1	16
386.870	1	29
387.041	1	18
387.211	1	18
387.382	1	24
387.553	1	30
387.724	1	16
387.894	1	19
388.065	1	23
388.236	1	30
388.407	1	13
388.578	1	11
388.748	1	15
388.919	1	29
389.090	1	23
389.261	1	15
389.431	1	24
389.602	1	17
389.773	1	14
389.944	1	18
390.114	1	24
390.285	1	26
390.456	1	23
390.627	1	24
390.798	1	24
390.968	1	20
391.139	1	21
391.310	1	4
391.481	1	23
391.651	1	19
391.822	1	19
391.993	1	19
392.164	1	18
392.334	1	19
392.505	1	19
392.676	1	22
392.847	1	24
393.017	1	21
393.188	1	25
393.359	1	9
393.530	1	24
393.700	1	19
393.871	1	9
394.042	1	21
394.213	1	20
394.383	1	16
394.554	1	18
394.725	1	30
394.896	1	15
395.066	1	20
395.237	1	16
395.408	1	22
395.579	1	22
395.749	1	20
395.920	1	23
396.091	1	27
396.262	1	10
396.432	1	19
396.603	1	25
396.774	1	25
396.945	1	21
397.115	1	21
397.286	1	16
397.457	1	23
397.627	1	21
397.798	1	20
397.969	1	11
398.140	1	19
398.310	1	25
398.481	1	33
398.652	1	23
398.823	1	22
398.993	1	31
399.164	1	23
399.335	1	32
399.505	1	28
399.676	1	16
399.847	1	22
400.018	1	13
400.188	1	12
400.359	1	35
400.530	1	21
400.700	1	28
400.871	1	19
401.042	1	15
401.213	1	24
401.383	1	26
401.554	1	24
401.725	1	24
401.895	1	16
402.066	1	30
402.237	1	32
402.408	1	26
402.578	1	16
402.749	1	26
402.920	1	23
403.090	1	22
403.261	1	21
403.432	1	20
403.603	1	32
403.773	1	30
403.944	1	33
404.115	1	25
404.285	1	30
404.456	1	19
404.627	1	17
404.797	1	18
404.968	1	15
405.139	1	19
405.310	1	33
405.480	1	25
405.651	1	27
405.822	1	23
405.992	1	8
406.163	1	25
406.334	1	12
406.504	1	22
406.675	1	29
406.846	1	23
407.016	1	29
407.187	1	22
407.358	1	13
407.528	1	12
407.699	1	11
407.870	1	12
408.041	1	25
408.211	1	29
408.382	1	26
408.553	1	23
408.723	1	27
408.894	1	23
409.065	1	22
409.235	1	19
409.406	1	23
409.577	1	16
409.747	1	33
409.918	1	28
410.089	1	20
410.259	1	17
410.430	1	32
410.601	1	21
410.771	1	18
410.942	1	31
411.113	1	23
411.283	1	20
411.454	1	27
411.625	1	21
411.795	1	27
411.966	1	16
412.137	1	27
412.307	1	14
412.478	1	16
412.649	1	22
412.819	1	24
412.990	1	21
413.161	1	33
413.331	1	23
413.502	1	25
413.672	1	26
413.843	1	31
414.014	1	15
414.184	1	29
414.355	1	21
414.526	1	15
414.696	1	36
414.867	1	19
415.038	1	7
415.208	1	18
415.379	1	34
415.550	1	26
415.720	1	18
415.891	1	11
416.062	1	22
416.232	1	16
416.403	1	26
416.573	1	29
416.744	1	15
416.915	1	32
417.085	1	22
417.256	1	22
417.427	1	18
417.597	1	16
417.768	1	10
417.939	1	21
418.109	1	18
418.280	1	27
418.450	1	15
418.621	1	12
418.792	1	33
418.962	1	24
419.133	1	32
419.304	1	25
419.474	1	17
419.645	1	17
419.815	1	21
419.986	1	23
420.157	1	21
420.327	1	27
420.498	1	38
420.669	1	27
420.839	1	31
421.010	1	35
421.180	1	32
421.351	1	23
421.522	1	23
421.692	1	22
421.863	1	23
422.033	1	34
422.204	1	24
422.375	1	21
422.545	1	32
422.716	1	18
422.886	1	22
423.057	1	22
423.228	1	24
423.398	1	18
423.569	1	29
423.740	1	15
423.910	1	16
424.081	1	26
424.251	1	22
424.422	1	28
424.593	1	16
424.763	1	30
424.934	1	26
425.104	1	19
425.275	1	15
425.445	1	13
425.616	1	25
425.787	1	23
425.957	1	26
426.128	1	17
426.298	1	25
426.469	1	13
426.640	1	14
426.810	1	28
426.981	1	21
427.151	1	16
427.322	1	23
427.493	1	29
427.663	1	22
427.834	1	12
428.004	1	25
428.175	1	26
428.345	1	11
428.516	1	13
428.687	1	20
428.857	1	12
429.028	1	17
429.198	1	23
429.369	1	30
429.540	1	20
429.710	1	16
429.881	1	25
430.051	1	22
430.222	1	16
430.392	1	11
430.563	1	28
430.734	1	19
430.904	1	29
431.075	1	26
431.245	1	14
431.416	1	20
431.586	1	7
431.757	1	19
431.927	1	17
432.098	1	15
432.269	1	17
432.439	1	18
432.610	1	23
432.780	1	24
432.951	1	22
433.121	1	24
433.292	1	23
433.462	1	31
433.633	1	21
433.804	1	18
433.974	1	16
434.145	1	37
434.315	1	22
434.486	1	24
434.656	1	32
434.827	1	14
434.997	1	6
435.168	1	19
435.339	1	18
435.509	1	25
435.680	1	23
435.850	1	21
436.021	1	18
436.191	1	17
436.362	1	21
436.532	1	22
436.703	1	24
436.873	1	18
437.044	1	4
437.214	1	18
437.385	1	14
437.556	1	19
437.726	1	34
437.897	1	28
438.067	1	21
438.238	1	21
438.408	1	25
438.579	1	13
438.749	1	21
438.920	1	9
439.090	1	28
439.261	1	7
439.431	1	13
439.602	1	21
439.772	1	19
439.943	1	24
440.113	1	27
440.284	1	19
440.455	1	27
440.625	1	21
440.796	1	14
440.966	1	18
441.137	1	22
441.307	1	6
441.478	1	30
441.648	1	19
441.819	1	16
441.989	1	23
442.160	1	32
442.330	1	21
442.501	1	9
442.671	1	11
442.842	1	7
443.012	1	18
443.183	1	24
443.353	1	11
443.524	1	22
443.694	1	25
443.865	1	7
444.035	1	20
444.206	1	18
444.376	1	14
444.547	1	26
444.717	1	18
444.888	1	19
445.058	1	20
445.229	1	17
445.399	1	15
445.570	1	17
445.740	1	21
445.911	1	17
446.081	1	9
446.252	1	27
446.422	1	17
446.593	1	14
446.763	1	7
446.934	1	10
447.104	1	21
447.275	1	9
447.445	1	23
447.616	1	21
447.786	1	18
447.957	1	23
448.127	1	16
448.298	1	16
448.468	1	13
448.639	1	16
448.809	1	20
448.979	1	6
449.150	1	26
449.320	1	17
449.491	1	16
449.661	1	20
449.832	1	22
450.002	1	28
450.173	1	20
450.343	1	18
450.514	1	25
450.684	1	13
450.855	1	19
451.025	1	16
451.196	1	21
451.366	1	16
451.537	1	15
451.707	1	9
451.878	1	27
452.048	1	30
452.218	1	15
452.389	1	23
452.559	1	17
452.730	1	23
452.900	1	16
453.071	1	8
453.241	1	19
453.412	1	13
453.582	1	10
453.753	1	14
453.923	1	19
454.093	1	21
454.264	1	25
454.434	1	12
454.605	1	21
454.775	1	19
454.946	1	21
455.116	1	19
455.287	1	17
455.457	1	1
455.628	1	9
455.798	1	22
455.968	1	24
456.139	1	13
456.309	1	15
456.480	1	10
456.650	1	7
456.821	1	7
456.991	1	28
457.161	1	15
457.332	1	13
457.502	1	-6
457.673	1	25
457.843	1	18
458.014	1	17
458.184	1	10
458.355	1	6
458.525	1	19
458.695	1	12
458.866	1	16
459.036	1	21
459.207	1	23
459.377	1	7
459.548	1	15
459.718	1	2
459.888	1	12
460.059	1	16
460.229	1	19
460.400	1	26
460.570	1	13
460.740	1	17
460.911	1	17
461.081	1	14
461.252	1	13
461.422	1	18
461.593	1	11
461.763	1	15
461.933	1	16
462.104	1	12
462.274	1	9
462.445	1	23
462.615	1	17
462.785	1	12
462.956	1	18
463.126	1	18
463.297	1	13
463.467	1	26
463.638	1	17
463.808	1	10
463.978	1	6
464.149	1	10
464.319	1	5
464.490	1	32
464.660	1	6
464.830	1	12
465.001	1	17
465.171	1	10
465.342	1	18
465.512	1	7
465.682	1	14
465.853	1	12
466.023	1	8
466.194	1	17
466.364	1	16
466.534	1	15
466.705	1	5
466.875	1	16
467.045	1	10
467.216	1	22
467.386	1	9
467.557	1	6
467.727	1	1
467.897	1	6
468.068	1	10
468.238	1	10
468.409	1	9
468.579	1	13
468.749	1	16
468.920	1	4
469.090	1	18
469.260	1	8
469.431	1	5
469.601	1	18
469.772	1	11
469.942	1	8
470.112	1	17
470.283	1	1
470.453	1	3
470.623	1	4
470.794	1	8
470.964	1	13
471.135	1	18
471.305	1	0
471.475	1	14
471.646	1	7
471.816	1	12
471.986	1	10
472.157	1	22
472.327	1	5
472.497	1	9
472.668	1	2
472.838	1	8
473.009	1	16
473.179	1	7
473.349	1	10
473.520	1	20
473.690	1	13
473.860	1	11
474.031	1	6
474.201	1	11
474.371	1	23
474.542	1	6
474.712	1	3
474.882	1	14
475.053	1	16
475.223	1	1
475.394	1	16
475.564	1	15
475.734	1	18
475.905	1	19
476.075	1	9
476.245	1	17
476.416	1	14
476.586	1	17
476.756	1	19
476.927	1	13
477.097	1	16
477.267	1	5
477.438	1	16
477.608	1	13
477.778	1	12
477.949	1	14
478.119	1	25
478.289	1	17
478.460	1	26
478.630	1	15
478.800	1	9
478.971	1	11
479.141	1	12
479.311	1	-1
479.482	1	8
479.652	1	3
479.822	1	16
479.993	1	12
480.163	1	13
480.333	1	13
480.504	1	18
480.674	1	10
480.844	1	-2
481.015	1	14
481.185	1	0
481.355	1	11
481.525	1	8
481.696	1	20
481.866	1	15
482.036	1	3
482.207	1	13
482.377	1	16
482.547	1	16
482.718	1	12
482.888	1	8
483.058	1	12
483.229	1	-3
483.399	1	6
483.569	1	10
483.740	1	14
483.910	1	1
484.080	1	3
484.250	1	15
484.421	1	8
484.591	1	9
484.761	1	18
484.932	1	19
485.102	1	21
485.272	1	9
485.443	1	30
485.613	1	12
485.783	1	11
485.953	1	15
486.124	1	12
486.294	1	6
486.464	1	14
486.635	1	23
486.805	1	14
486.975	1	8
487.146	1	18
487.316	1	11
487.486	1	10
487.656	1	8
487.827	1	6
487.997	1	0
488.167	1	0
488.338	1	19
488.508	1	9
488.678	1	10
488.848	1	20
489.019	1	7
489.189	1	7
489.359	1	-3
489.529	1	6
489.700	1	2
489.870	1	24
490.040	1	5
490.211	1	6
490.381	1	10
490.551	1	4
490.721	1	8
490.892	1	4
491.062	1	6
491.232	1	8
491.402	1	8
491.573	1	2
491.743	1	-2
491.913	1	9
492.084	1	8
492.254	1	7
492.424	1	6
492.594	1	11
492.765	1	4
492.935	1	6
493.105	1	13
493.275	1	11
493.446	1	12
493.616	1	13
493.786	1	3
493.956	1	11
494.127	1	4
494.297	1	-3
494.467	1	4
494.637	1	14
494.808	1	6
494.978	1	6
495.148	1	10
495.318	1	12
495.489	1	9
495.659	1	13
495.829	1	14
495.999	1	3
496.170	1	14
496.340	1	8
496.510	1	17
496.680	1	-5
496.851	1	11
497.021	1	10
497.191	1	4
497.361	1	3
497.532	1	-5
497.702	1	4
497.872	1	9
498.042	1	13
498.213	1	6
498.383	1	9
498.553	1	3
498.723	1	5
498.894	1	9
499.064	1	4
499.234	1	6
499.404	1	7
499.574	1	15
499.745	1	21
499.915	1	12
500.085	1	9
500.255	1	14
500.426	1	6
500.596	1	10
500.766	1	-2
500.936	1	6
501.106	1	-8
501.277	1	10
501.447	1	9
501.617	1	5
501.787	1	5
501.958	1	7
502.128	1	3
502.298	1	8
502.468	1	2
502.638	1	10
502.809	1	10
502.979	1	4
503.149	1	-2
503.319	1	1
503.489	1	6
503.660	1	16
503.830	1	3
504.000	1	11
504.170	1	-1
504.340	1	4
504.511	1	8
504.681	1	8
504.851	1	9
505.021	1	10
505.192	1	-7
505.362	1	16
505.532	1	-1
505.702	1	7
505.872	1	9
506.043	1	9
506.213	1	4
506.383	1	3
506.553	1	18
506.723	1	7
506.893	1	17
507.064	1	10
507.234	1	0
507.404	1	-4
507.574	1	9
507.744	1	3
507.915	1	5
508.085	1	13
508.255	1	8
508.425	1	-3
508.595	1	17
508.766	1	7
508.936	1	-5
509.106	1	13
509.276	1	20
509.446	1	7
509.616	1	2
509.787	1	17
509.957	1	4
510.127	1	2
510.297	1	6
510.467	1	0
510.638	1	2
510.808	1	-6
510.978	1	0
511.148	1	2
511.318	1	8
511.488	1	7
511.659	1	10
511.829	1	3
511.999	1	12
512.169	1	3
512.339	1	1
512.509	1	4
512.680	1	5
512.850	1	1
513.020	1	17
513.190	1	6
513.360	1	10
513.530	1	9
513.700	1	4
513.871	1	9
514.041	1	0
514.211	1	5
514.381	1	5
514.551	1	-3
514.721	1	2
514.892	1	7
515.062	1	7
515.232	1	9
515.402	1	1
515.572	1	3
515.742	1	10
515.912	1	16
516.083	1	-4
516.253	1	12
516.423	1	3
516.593	1	1
516.763	1	2
516.933	1	5
517.104	1	10
517.274	1	4
517.444	1	11
517.614	1	-5
517.784	1	1
517.954	1	5
518.124	1	4
518.294	1	1
518.465	1	1
518.635	1	5
518.805	1	-11
518.975	1	4
519.145	1	0
519.315	1	4
519.485	1	-2
519.656	1	5
519.826	1	4
519.996	1	9
520.166	1	4
520.336	1	15
520.506	1	-1
520.676	1	3
520.846	1	16
521.017	1	-2
521.187	1	-3
521.357	1	19
521.527	1	-5
521.697	1	8
521.867	1	4
522.037	1	16
522.207	1	6
522.377	1	8
522.548	1	4
522.718	1	1
522.888	1	17
523.058	1	6
523.228	1	10
523.398	1	0
523.568	1	2
523.738	1	1
523.909	1	8
524.079	1	14
524.249	1	9
524.419	1	3
524.589	1	5
524.759	1	-11
524.929	1	2
525.099	1	8
525.269	1	8
525.439	1	2
525.610	1	22
525.780	1	9
525.950	1	13
526.120	1	5
526.290	1	8
526.460	1	-6
526.630	1	7
526.800	1	3
526.970	1	5
527.140	1	5
527.311	1	-6
527.481	1	-8
527.651	1	10
527.821	1	-4
527.991	1	16
528.161	1	14
528.331	1	0
528.501	1	4
528.671	1	-6
528.841	1	11
529.011	1	4
529.181	1	9
529.352	1	6
529.522	1	5
529.692	1	14
529.862	1	-4
530.032	1	7
530.202	1	4
530.372	1	12
530.542	1	2
530.712	1	10
530.882	1	4
531.052	1	15
531.222	1	9
531.392	1	3
531.563	1	7
531.733	1	-4
531.903	1	-1
532.073	1	8
532.243	1	-1
532.413	1	6
532.583	1	4
532.753	1	9
532.923	1	5
533.093	1	-4
533.263	1	1
533.433	1	8
533.603	1	0
533.773	1	3
533.943	1	-1
534.113	1	11
534.284	1	0
534.454	1	11
534.624	1	22
534.794	1	0
534.964	1	14
535.134	1	-1
535.304	1	0
535.474	1	-2
535.644	1	4
535.814	1	-6
535.984	1	-2
536.154	1	-5
536.324	1	3
536.494	1	4
536.664	1	6
536.834	1	10
537.004	1	-5
537.174	1	12
537.344	1	2
537.514	1	-8
537.685	1	-9
537.855	1	15
538.025	1	3
538.195	1	6
538.365	1	11
538.535	1	3
538.705	1	2
538.875	1	-5
539.045	1	3
539.215	1	7
539.385	1	6
539.555	1	9
539.725	1	8
539.895	1	-6
540.065	1	11
540.235	1	9
540.405	1	4
540.575	1	2
540.745	1	-2
540.915	1	9
541.085	1	8
541.255	1	-5
541.425	1	13
541.595	1	1
541.765	1	5
541.935	1	-9
542.105	1	2
542.275	1	8
542.445	1	-8
542.615	1	-4
542.785	1	8
542.955	1	-2
543.125	1	3
543.295	1	10
543.465	1	7
543.635	1	0
543.805	1	9
543.975	1	2
544.145	1	14
544.315	1	-1
544.485	1	8
544.655	1	2
544.825	1	-10
544.995	1	7
545.165	1	-2
545.335	1	3
545.505	1	2
545.675	1	4
545.845	1	8
546.015	1	4
546.185	1	9
546.355	1	5
546.525	1	8
546.695	1	4
546.865	1	-1
547.035	1	5
547.205	1	-10
547.375	1	11
547.545	1	6
547.715	1	-3
547.885	1	9
548.055	1	-8
548.225	1	11
548.395	1	-4
548.565	1	0
548.735	1	3
548.905	1	2
549.075	1	15
549.245	1	9
549.415	1	-10
549.585	1	4
549.755	1	9
549.925	1	-11
550.095	1	10
550.265	1	7
550.435	1	1
550.605	1	-4
550.775	1	10
550.945	1	4
551.115	1	1
551.285	1	2
551.455	1	0
551.625	1	9
551.795	1	10
551.965	1	4
552.135	1	0
552.305	1	3
552.475	1	-3
552.645	1	5
552.815	1	1
552.985	1	2
553.155	1	7
553.325	1	3
553.495	1	9
553.665	1	-6
553.835	1	-1
554.004	1	7
554.174	1	-1
554.344	1	6
554.514	1	6
554.684	1	10
554.854	1	8
555.024	1	-7
555.194	1	0
555.364	1	5
555.534	1	5
555.704	1	-1
555.874	1	10
556.044	1	5
556.214	1	-6
556.384	1	-5
556.554	1	10
556.724	1	0
556.894	1	2
557.064	1	4
557.234	1	-4
557.404	1	4
557.573	1	12
557.743	1	3
557.913	1	-6
558.083	1	1
558.253	1	8
558.423	1	0
558.593	1	10
558.763	1	8
558.933	1	0
559.103	1	2
559.273	1	6
559.443	1	10
559.613	1	2
559.783	1	-3
559.953	1	-1
560.122	1	12
560.292	1	2
560.462	1	12
560.632	1	8
560.802	1	6
560.972	1	-4
561.142	1	11
561.312	1	-7
561.482	1	-4
561.652	1	6
561.822	1	10
561.992	1	1
562.162	1	6
562.331	1	4
562.501	1	-2
562.671	1	5
562.841	1	-6
563.011	1	2
563.181	1	4
563.351	1	-6
563.521	1	7
563.691	1	-2
563.861	1	3
564.031	1	3
564.201	1	15
564.370	1	-7
564.540	1	4
564.710	1	-6
564.880	1	5
565.050	1	7
565.220	1	3
565.390	1	1
565.560	1	7
565.730	1	4
565.900	1	2
566.069	1	9
566.239	1	0
566.409	1	5
566.579	1	2
566.749	1	9
566.919	1	8
567.089	1	2
567.259	1	1
567.429	1	1
567.599	1	1
567.768	1	2
567.938	1	13
568.108	1	6
568.278	1	-3
568.448	1	-7
568.618	1	4
568.788	1	2
568.958	1	10
569.128	1	7
569.297	1	7
569.467	1	-7
569.637	1	9
569.807	1	7
569.977	1	5
570.147	1	7
570.317	1	-6
570.487	1	4
570.656	1	4
570.826	1	-1
570.996	1	-4
571.166	1	13
571.336	1	0
571.506	1	9
571.676	1	8
571.846	1	7
572.015	1	3
572.185	1	-3
572.355	1	1
572.525	1	9
572.695	1	0
572.865	1	-5
573.035	1	6
573.205	1	8
573.374	1	-3
573.544	1	-2
573.714	1	11
573.884	1	8
574.054	1	4
574.224	1	4
574.394	1	8
574.563	1	2
574.733	1	8
574.903	1	2
575.073	1	-5
575.243	1	6
575.413	1	15
575.583	1	-13
575.752	1	13
575.922	1	2
576.092	1	-3
576.262	1	2
576.432	1	9
576.602	1	-9
576.772	1	17
576.941	1	8
577.111	1	6
577.281	1	-5
577.451	1	-4
577.621	1	0
577.791	1	9
577.960	1	-3
578.130	1	3
578.300	1	1
578.470	1	17
578.640	1	5
578.810	1	4
578.979	1	-2
579.149	1	-3
579.319	1	-1
579.489	1	-6
579.659	1	5
579.829	1	4
579.998	1	5
580.168	1	15
580.338	1	15
580.508	1	-5
580.678	1	11
580.848	1	3
581.017	1	0
581.187	1	-1
581.357	1	-2
581.527	1	4
581.697	1	11
581.867	1	9
582.036	1	6
582.206	1	4
582.376	1	12
582.546	1	1
582.716	1	-7
582.885	1	-6
583.055	1	3
583.225	1	-10
583.395	1	1
583.565	1	-1
583.735	1	10
583.904	1	-6
584.074	1	6
584.244	1	6
584.414	1	1
584.584	1	-5
584.753	1	-11
584.923	1	6
585.093	1	6
585.263	1	7
585.433	1	4
585.602	1	-4
585.772	1	-3
585.942	1	-3
586.112	1	12
586.282	1	-3
586.451	1	1
586.621	1	-6
586.791	1	2
586.961	1	1
587.131	1	4
587.300	1	-6
587.470	1	10
587.640	1	0
587.810	1	-3
587.980	1	-1
588.149	1	1
588.319	1	-3
588.489	1	-2
588.659	1	3
588.829	1	3
588.998	1	11
589.168	1	10
589.338	1	7
589.508	1	-3
589.677	1	-9
589.847	1	-4
590.017	1	19
590.187	1	1
590.357	1	20
590.526	1	4
590.696	1	2
590.866	1	5
591.036	1	-3
591.205	1	8
591.375	1	-2
591.545	1	4
591.715	1	8
591.885	1	-7
592.054	1	3
592.224	1	4
592.394	1	2
592.564	1	4
592.733	1	1
592.903	1	-2
593.073	1	0
593.243	1	13
593.412	1	0
593.582	1	2
593.752	1	-4
593.922	1	1
594.091	1	1
594.261	1	1
594.431	1	-1
594.601	1	1
594.771	1	12
594.940	1	-3
595.110	1	-3
595.280	1	8
595.450	1	-1
595.619	1	-3
595.789	1	-1
595.959	1	10
596.129	1	-8
596.298	1	6
596.468	1	17
596.638	1	11
596.808	1	0
596.977	1	3
597.147	1	3
597.317	1	-1
597.487	1	8
597.656	1	3
597.826	1	13
597.996	1	-1
598.166	1	-4
598.335	1	-5
598.505	1	5
598.675	1	4
598.844	1	3
599.014	1	-4
599.184	1	8
599.354	1	-3
599.523	1	-4
599.693	1	-1
599.863	1	13
600.033	1	2
600.202	1	-7
600.372	1	6
600.542	1	7
600.712	1	4
600.881	1	-7
601.051	1	18
601.221	1	12
601.390	1	-5
601.560	1	10
601.730	1	9
601.900	1	6
602.069	1	3
602.239	1	-3
602.409	1	-4
602.578	1	4
602.748	1	-2
602.918	1	1
603.088	1	7
603.257	1	3
603.427	1	0
603.597	1	9
603.767	1	19
603.936	1	5
604.106	1	7
604.276	1	-1
604.445	1	8
604.615	1	-4
604.785	1	6
604.954	1	-5
605.124	1	5
605.294	1	2
605.464	1	-3
605.633	1	6
605.803	1	7
605.973	1	2
606.142	1	4
606.312	1	4
606.482	1	2
606.652	1	4
606.821	1	-11
606.991	1	3
607.161	1	9
607.330	1	2
607.500	1	1
607.670	1	-5
607.839	1	12
608.009	1	19
608.179	1	6
608.348	1	1
608.518	1	-5
608.688	1	12
608.858	1	8
609.027	1	-8
609.197	1	4
609.367	1	7
609.536	1	1
609.706	1	-2
609.876	1	3
610.045	1	-2
610.215	1	6
610.385	1	-5
610.554	1	0
610.724	1	1
610.894	1	4
611.063	1	2
611.233	1	-2
611.403	1	8
611.572	1	2
611.742	1	3
611.912	1	19
612.081	1	-6
612.251	1	9
612.421	1	1
612.590	1	1
612.760	1	6
612.930	1	1
613.099	1	5
613.269	1	12
613.439	1	9
613.608	1	2
613.778	1	5
613.948	1	3
614.117	1	4
614.287	1	6
614.457	1	8
614.626	1	9
614.796	1	4
614.966	1	-1
615.135	1	-3
615.305	1	15
615.475	1	3
615.644	1	3
615.814	1	1
615.984	1	8
616.153	1	0
616.323	1	6
616.493	1	0
616.662	1	12
616.832	1	5
617.002	1	-3
617.171	1	0
617.341	1	9
617.511	1	-2
617.680	1	3
617.850	1	0
618.019	1	17
618.189	1	13
618.359	1	9
618.528	1	-1
618.698	1	10
618.868	1	-3
619.037	1	13
619.207	1	-2
619.377	1	2
619.546	1	-6
619.716	1	8
619.885	1	6
620.055	1	-4
620.225	1	7
620.394	1	-6
620.564	1	9
620.734	1	8
620.903	1	-3
621.073	1	2
621.242	1	3
621.412	1	4
621.582	1	-2
621.751	1	8
621.921	1	9
622.091	1	-5
622.260	1	-1
622.430	1	6
622.599	1	-2
622.769	1	9
622.939	1	8
623.108	1	8
623.278	1	0
623.448	1	5
623.617	1	-7
623.787	1	4
623.956	1	11
624.126	1	-1
624.296	1	-2
624.465	1	5
624.635	1	10
624.804	1	9
624.974	1	0
625.144	1	14
625.313	1	-6
625.483	1	0
625.652	1	5
625.822	1	-5
625.992	1	-2
626.161	1	18
626.331	1	-1
626.501	1	9
626.670	1	-2
626.840	1	0
627.009	1	2
627.179	1	10
627.348	1	4
627.518	1	9
627.688	1	7
627.857	1	9
628.027	1	0
628.196	1	3
628.366	1	8
628.536	1	1
628.705	1	2
628.875	1	9
629.044	1	1
629.214	1	15
629.384	1	11
629.553	1	10
629.723	1	0
629.892	1	2
630.062	1	7
630.232	1	3
630.401	1	9
630.571	1	2
630.740	1	6
630.910	1	9
631.079	1	12
631.249	1	-2
631.419	1	5
631.588	1	-9
631.758	1	-4
631.927	1	-4
632.097	1	6
632.266	1	3
632.436	1	4
632.606	1	4
632.775	1	11
632.945	1	15
633.114	1	12
633.284	1	7
633.453	1	0
633.623	1	9
633.793	1	4
633.962	1	2
634.132	1	2
634.301	1	8
634.471	1	10
634.640	1	5
634.810	1	4
634.979	1	2
635.149	1	7
635.319	1	6
635.488	1	4
635.658	1	0
635.827	1	1
635.997	1	4
636.166	1	4
636.336	1	-1
636.505	1	7
636.675	1	2
636.845	1	0
637.014	1	13
637.184	1	9
637.353	1	6
637.523	1	4
637.692	1	1
637.862	1	8
638.031	1	5
638.201	1	9
638.370	1	3
638.540	1	10
638.710	1	3
638.879	1	-10
639.049	1	11
639.218	1	5
639.388	1	-1
639.557	1	2
639.727	1	9
639.896	1	2
640.066	1	-5
640.235	1	5
640.405	1	6
640.574	1	-3
640.744	1	-2
640.914	1	9
641.083	1	9
641.253	1	1
641.422	1	1
641.592	1	14
641.761	1	-4
641.931	1	6
642.100	1	12
642.270	1	7
642.439	1	1
642.609	1	-2
642.778	1	7
642.948	1	-5
643.117	1	13
643.287	1	6
643.456	1	3
643.626	1	20
643.795	1	-2
643.965	1	16
644.134	1	-2
644.304	1	15
644.473	1	10
644.643	1	11
644.812	1	10
644.982	1	17
645.151	1	3
645.321	1	-9
645.490	1	11
645.660	1	-2
645.829	1	-5
645.999	1	-4
646.168	1	7
646.338	1	8
646.507	1	15
646.677	1	8
646.846	1	4
647.016	1	-7
647.185	1	-2
647.355	1	-4
647.524	1	14
647.694	1	6
647.863	1	2
648.033	1	7
648.202	1	5
648.372	1	0
648.541	1	-4
648.711	1	2
648.880	1	-5
649.050	1	-2
649.219	1	6
649.389	1	13
649.558	1	8
649.728	1	8
649.897	1	2
650.067	1	9
650.236	1	4
650.406	1	9
650.575	1	10
650.745	1	6
650.914	1	8
651.084	1	1
651.253	1	4
651.423	1	9
651.592	1	1
651.762	1	-5
651.931	1	21
652.101	1	8
652.270	1	10
652.440	1	16
652.609	1	-2
652.778	1	-1
652.948	1	-1
653.117	1	1
653.287	1	9
653.456	1	0
653.626	1	5
653.795	1	6
653.965	1	-5
654.134	1	12
654.304	1	-4
654.473	1	8
654.643	1	13
654.812	1	11
654.982	1	4
655.151	1	-2
655.320	1	7
655.490	1	6
655.659	1	8
655.829	1	-2
655.998	1	1
656.168	1	4
656.337	1	12
656.507	1	7
656.676	1	12
656.846	1	9
657.015	1	7
657.184	1	17
657.354	1	0
657.523	1	3
657.693	1	7
657.862	1	-1
658.032	1	3
658.201	1	8
658.371	1	13
658.540	1	-1
658.709	1	1
658.879	1	7
659.048	1	8
659.218	1	-1
659.387	1	8
659.557	1	-3
659.726	1	7
659.895	1	3
660.065	1	-3
660.234	1	7
660.404	1	2
660.573	1	3
660.743	1	7
660.912	1	9
661.081	1	13
661.251	1	5
661.420	1	13
661.590	1	10
661.759	1	2
661.929	1	-1
662.098	1	10
662.267	1	1
662.437	1	9
662.606	1	3
662.776	1	13
662.945	1	5
663.115	1	6
663.284	1	2
663.453	1	10
663.623	1	10
663.792	1	6
663.962	1	10
664.131	1	12
664.300	1	12
664.470	1	-3
664.639	1	5
664.809	1	11
664.978	1	10
665.148	1	7
665.317	1	-2
665.486	1	9
665.656	1	-2
665.825	1	12
665.995	1	3
666.164	1	4
666.333	1	9
666.503	1	1
666.672	1	1
666.842	1	5
667.011	1	3
667.180	1	2
667.350	1	-3
667.519	1	6
667.689	1	0
667.858	1	11
668.027	1	19
668.197	1	-1
668.366	1	-8
668.536	1	7
668.705	1	5
668.874	1	7
669.044	1	3
669.213	1	5
669.382	1	1
669.552	1	7
669.721	1	12
669.891	1	10
670.060	1	8
670.229	1	13
670.399	1	4
670.568	1	14
670.738	1	9
670.907	1	-3
671.076	1	-7
671.246	1	6
671.415	1	2
671.584	1	12
671.754	1	1
671.923	1	7
672.093	1	-3
672.262	1	-4
672.431	1	2
672.601	1	5
672.770	1	-6
672.939	1	16
673.109	1	4
673.278	1	4
673.448	1	13
673.617	1	4
673.786	1	-4
