325.333	1	26
325.504	1	24
325.675	1	15
325.846	1	7
326.017	1	17
326.188	1	20
326.359	1	13
326.531	1	11
326.702	1	17
326.873	1	27
327.044	1	21
327.215	1	24
327.386	1	16
327.557	1	25
327.728	1	20
327.899	1	20
328.070	1	34
328.241	1	16
328.412	1	12
328.583	1	31
328.754	1	29
328.926	1	25
329.097	1	29
329.268	1	38
329.439	1	22
329.610	1	29
329.781	1	17
329.952	1	31
330.123	1	28
330.294	1	14
330.465	1	22
330.636	1	36
330.807	1	23
330.978	1	20
331.149	1	31
331.320	1	28
331.492	1	19
331.663	1	18
331.834	1	29
332.005	1	32
332.176	1	34
332.347	1	27
332.518	1	23
332.689	1	28
332.860	1	12
333.031	1	41
333.202	1	19
333.373	1	34
333.544	1	22
333.715	1	28
333.886	1	22
334.057	1	27
334.228	1	7
334.399	1	33
334.570	1	31
334.741	1	27
334.912	1	22
335.084	1	44
335.255	1	33
335.426	1	31
335.597	1	33
335.768	1	34
335.939	1	31
336.110	1	27
336.281	1	30
336.452	1	35
336.623	1	27
336.794	1	30
336.965	1	28
337.136	1	42
337.307	1	32
337.478	1	33
337.649	1	39
337.820	1	31
337.991	1	38
338.162	1	25
338.333	1	41
338.504	1	43
338.675	1	25
338.846	1	36
339.017	1	38
339.188	1	23
339.359	1	27
339.530	1	34
339.701	1	32
339.872	1	42
340.043	1	41
340.214	1	38
340.385	1	42
340.556	1	19
340.727	1	39
340.898	1	48
341.069	1	46
341.240	1	35
341.411	1	54
341.582	1	46
341.753	1	30
341.924	1	49
342.095	1	47
342.266	1	46
342.437	1	53
342.608	1	38
342.779	1	51
342.950	1	38
343.121	1	40
343.292	1	47
343.463	1	55
343.634	1	47
343.805	1	44
343.976	1	48
344.147	1	48
344.318	1	35
344.489	1	49
344.660	1	55
344.831	1	43
345.002	1	37
345.173	1	51
345.344	1	48
345.515	1	50
345.686	1	41
345.857	1	48
346.028	1	49
346.199	1	42
346.370	1	49
346.541	1	49
346.712	1	36
346.883	1	42
347.054	1	50
347.225	1	38
347.396	1	64
347.567	1	54
347.738	1	48
347.909	1	58
348.080	1	48
348.251	1	56
348.422	1	62
348.593	1	59
348.764	1	56
348.935	1	49
349.106	1	40
349.277	1	52
349.448	1	64
349.619	1	65
349.790	1	56
349.961	1	53
350.132	1	57
350.303	1	54
350.474	1	60
350.645	1	59
350.816	1	55
350.987	1	63
351.157	1	55
351.328	1	64
351.499	1	67
351.670	1	56
351.841	1	64
352.012	1	68
352.183	1	65
352.354	1	70
352.525	1	65
352.696	1	70
352.867	1	63
353.038	1	70
353.209	1	74
353.380	1	66
353.551	1	65
353.722	1	64
353.893	1	60
354.064	1	63
354.235	1	67
354.406	1	54
354.576	1	69
354.747	1	60
354.918	1	67
355.089	1	67
355.260	1	64
355.431	1	70
355.602	1	63
355.773	1	66
355.944	1	74
356.115	1	75
356.286	1	68
356.457	1	69
356.628	1	63
356.799	1	70
356.970	1	80
357.141	1	62
357.311	1	58
357.482	1	62
357.653	1	75
357.824	1	71
357.995	1	77
358.166	1	62
358.337	1	74
358.508	1	70
358.679	1	77
358.850	1	78
359.021	1	72
359.192	1	76
359.363	1	69
359.533	1	67
359.704	1	68
359.875	1	78
360.046	1	67
360.217	1	60
360.388	1	72
360.559	1	62
360.730	1	75
360.901	1	73
361.072	1	93
361.243	1	76
361.414	1	78
361.584	1	73
361.755	1	76
361.926	1	69
362.097	1	67
362.268	1	77
362.439	1	73
362.610	1	85
362.781	1	62
362.952	1	72
363.123	1	72
363.293	1	71
363.464	1	72
363.635	1	73
363.806	1	76
363.977	1	75
364.148	1	72
364.319	1	86
364.490	1	69
364.661	1	76
364.832	1	77
365.002	1	80
365.173	1	74
365.344	1	84
365.515	1	74
365.686	1	85
365.857	1	79
366.028	1	74
366.199	1	74
366.370	1	84
366.540	1	64
366.711	1	60
366.882	1	76
367.053	1	71
367.224	1	93
367.395	1	86
367.566	1	83
367.737	1	90
367.908	1	81
368.078	1	79
368.249	1	82
368.420	1	81
368.591	1	77
368.762	1	87
368.933	1	77
369.104	1	74
369.274	1	76
369.445	1	87
369.616	1	83
369.787	1	82
369.958	1	88
370.129	1	70
370.300	1	91
370.471	1	77
370.641	1	81
370.812	1	78
370.983	1	77
371.154	1	84
371.325	1	89
371.496	1	80
371.667	1	88
371.837	1	74
372.008	1	87
372.179	1	74
372.350	1	96
372.521	1	80
372.692	1	89
372.863	1	79
373.033	1	73
373.204	1	75
373.375	1	95
373.546	1	89
373.717	1	92
373.888	1	87
374.059	1	80
374.229	1	93
374.400	1	80
374.571	1	81
374.742	1	101
374.913	1	94
375.084	1	98
375.254	1	101
375.425	1	95
375.596	1	89
375.767	1	88
375.938	1	90
376.109	1	90
376.279	1	87
376.450	1	98
376.621	1	99
376.792	1	74
376.963	1	86
377.134	1	97
377.304	1	90
377.475	1	90
377.646	1	88
377.817	1	90
377.988	1	82
378.159	1	96
378.329	1	101
378.500	1	100
378.671	1	91
378.842	1	91
379.013	1	85
379.184	1	84
379.354	1	110
379.525	1	103
379.696	1	110
379.867	1	87
380.038	1	90
380.209	1	104
380.379	1	96
380.550	1	89
380.721	1	101
380.892	1	98
381.063	1	103
381.233	1	99
381.404	1	97
381.575	1	109
381.746	1	106
381.917	1	87
382.087	1	107
382.258	1	90
382.429	1	97
382.600	1	102
382.771	1	100
382.941	1	92
383.112	1	109
383.283	1	99
383.454	1	103
383.625	1	82
383.795	1	117
383.966	1	101
384.137	1	105
384.308	1	101
384.479	1	101
384.649	1	107
384.820	1	107
384.991	1	104
385.162	1	116
385.333	1	107
385.503	1	96
385.674	1	96
385.845	1	119
386.016	1	117
386.187	1	107
386.357	1	114
386.528	1	116
386.699	1	94
386.870	1	120
387.041	1	120
387.211	1	123
387.382	1	118
387.553	1	119
387.724	1	106
387.894	1	124
388.065	1	114
388.236	1	114
388.407	1	112
388.578	1	107
388.748	1	115
388.919	1	116
389.090	1	114
389.261	1	109
389.431	1	116
389.602	1	117
389.773	1	106
389.944	1	117
390.114	1	98
390.285	1	109
390.456	1	115
390.627	1	121
390.798	1	118
390.968	1	106
391.139	1	125
391.310	1	103
391.481	1	108
391.651	1	112
391.822	1	113
391.993	1	118
392.164	1	106
392.334	1	114
392.505	1	105
392.676	1	109
392.847	1	121
393.017	1	129
393.188	1	112
393.359	1	118
393.530	1	123
393.700	1	107
393.871	1	107
394.042	1	117
394.213	1	106
394.383	1	119
394.554	1	107
394.725	1	139
394.896	1	107
395.066	1	123
395.237	1	113
395.408	1	114
395.579	1	124
395.749	1	113
395.920	1	121
396.091	1	123
396.262	1	115
396.432	1	103
396.603	1	119
396.774	1	130
396.945	1	117
397.115	1	126
397.286	1	117
397.457	1	125
397.627	1	127
397.798	1	120
397.969	1	121
398.140	1	122
398.310	1	119
398.481	1	121
398.652	1	128
398.823	1	116
398.993	1	119
399.164	1	135
399.335	1	135
399.505	1	116
399.676	1	128
399.847	1	128
400.018	1	119
400.188	1	120
400.359	1	115
400.530	1	120
400.700	1	126
400.871	1	116
401.042	1	118
401.213	1	132
401.383	1	122
401.554	1	133
401.725	1	133
401.895	1	106
402.066	1	119
402.237	1	129
402.408	1	120
402.578	1	125
402.749	1	121
402.920	1	130
403.090	1	114
403.261	1	112
403.432	1	125
403.603	1	131
403.773	1	131
403.944	1	125
404.115	1	136
404.285	1	126
404.456	1	124
404.627	1	122
404.797	1	112
404.968	1	128
405.139	1	111
405.310	1	134
405.480	1	129
405.651	1	118
405.822	1	115
405.992	1	122
406.163	1	112
406.334	1	113
406.504	1	131
406.675	1	130
406.846	1	130
407.016	1	134
407.187	1	126
407.358	1	116
407.528	1	116
407.699	1	120
407.870	1	124
408.041	1	135
408.211	1	136
408.382	1	127
408.553	1	130
408.723	1	136
408.894	1	128
409.065	1	140
409.235	1	139
409.406	1	136
409.577	1	128
409.747	1	141
409.918	1	135
410.089	1	127
410.259	1	129
410.430	1	123
410.601	1	133
410.771	1	135
410.942	1	143
411.113	1	140
411.283	1	130
411.454	1	124
411.625	1	134
411.795	1	137
411.966	1	130
412.137	1	127
412.307	1	110
412.478	1	129
412.649	1	127
412.819	1	124
412.990	1	114
413.161	1	129
413.331	1	119
413.502	1	124
413.672	1	138
413.843	1	133
414.014	1	124
414.184	1	135
414.355	1	122
414.526	1	132
414.696	1	134
414.867	1	125
415.038	1	110
415.208	1	132
415.379	1	127
415.550	1	126
415.720	1	119
415.891	1	132
416.062	1	138
416.232	1	132
416.403	1	122
416.573	1	121
416.744	1	114
416.915	1	132
417.085	1	132
417.256	1	119
417.427	1	122
417.597	1	114
417.768	1	109
417.939	1	119
418.109	1	132
418.280	1	126
418.450	1	129
418.621	1	118
418.792	1	123
418.962	1	125
419.133	1	132
419.304	1	129
419.474	1	123
419.645	1	132
419.815	1	107
419.986	1	134
420.157	1	123
420.327	1	133
420.498	1	132
420.669	1	124
420.839	1	133
421.010	1	131
421.180	1	134
421.351	1	127
421.522	1	129
421.692	1	122
421.863	1	122
422.033	1	135
422.204	1	124
422.375	1	117
422.545	1	130
422.716	1	113
422.886	1	116
423.057	1	127
423.228	1	131
423.398	1	125
423.569	1	122
423.740	1	117
423.910	1	116
424.081	1	120
424.251	1	106
424.422	1	121
424.593	1	125
424.763	1	116
424.934	1	129
425.104	1	124
425.275	1	122
425.445	1	126
425.616	1	106
425.787	1	103
425.957	1	105
426.128	1	131
426.298	1	108
426.469	1	109
426.640	1	111
426.810	1	125
426.981	1	113
427.151	1	102
427.322	1	110
427.493	1	117
427.663	1	117
427.834	1	100
428.004	1	103
428.175	1	125
428.345	1	119
428.516	1	115
428.687	1	118
428.857	1	103
429.028	1	107
429.198	1	118
429.369	1	108
429.540	1	110
429.710	1	107
429.881	1	119
430.051	1	112
430.222	1	119
430.392	1	111
430.563	1	120
430.734	1	120
430.904	1	121
431.075	1	118
431.245	1	110
431.416	1	102
431.586	1	106
431.757	1	116
431.927	1	121
432.098	1	115
432.269	1	112
432.439	1	116
432.610	1	118
432.780	1	111
432.951	1	109
433.121	1	119
433.292	1	115
433.462	1	117
433.633	1	114
433.804	1	107
433.974	1	107
434.145	1	124
434.315	1	104
434.486	1	113
434.656	1	113
434.827	1	103
434.997	1	104
435.168	1	102
435.339	1	108
435.509	1	113
435.680	1	107
435.850	1	103
436.021	1	102
436.191	1	98
436.362	1	110
436.532	1	107
436.703	1	99
436.873	1	111
437.044	1	107
437.214	1	107
437.385	1	96
437.556	1	114
437.726	1	117
437.897	1	104
438.067	1	103
438.238	1	101
438.408	1	115
438.579	1	99
438.749	1	100
438.920	1	91
439.090	1	107
439.261	1	104
439.431	1	97
439.602	1	98
439.772	1	86
439.943	1	108
440.113	1	98
440.284	1	99
440.455	1	98
440.625	1	117
440.796	1	99
440.966	1	95
441.137	1	103
441.307	1	89
441.478	1	98
441.648	1	97
441.819	1	93
441.989	1	99
442.160	1	111
442.330	1	95
442.501	1	104
442.671	1	86
442.842	1	74
443.012	1	103
443.183	1	107
443.353	1	78
443.524	1	95
443.694	1	110
443.865	1	87
444.035	1	100
444.206	1	104
444.376	1	85
444.547	1	104
444.717	1	84
444.888	1	87
445.058	1	89
445.229	1	97
445.399	1	88
445.570	1	102
445.740	1	89
445.911	1	100
446.081	1	93
446.252	1	103
446.422	1	97
446.593	1	82
446.763	1	93
446.934	1	91
447.104	1	99
447.275	1	92
447.445	1	87
447.616	1	102
447.786	1	95
447.957	1	96
448.127	1	97
448.298	1	95
448.468	1	85
448.639	1	101
448.809	1	87
448.979	1	96
449.150	1	96
449.320	1	82
449.491	1	100
449.661	1	88
449.832	1	87
450.002	1	100
450.173	1	84
450.343	1	93
450.514	1	98
450.684	1	100
450.855	1	88
451.025	1	91
451.196	1	97
451.366	1	76
451.537	1	83
451.707	1	75
451.878	1	78
452.048	1	92
452.218	1	93
452.389	1	84
452.559	1	76
452.730	1	98
452.900	1	85
453.071	1	67
453.241	1	85
453.412	1	74
453.582	1	81
453.753	1	71
453.923	1	76
454.093	1	87
454.264	1	91
454.434	1	74
454.605	1	79
454.775	1	82
454.946	1	81
455.116	1	78
455.287	1	75
455.457	1	84
455.628	1	79
455.798	1	80
455.968	1	73
456.139	1	76
456.309	1	68
456.480	1	66
456.650	1	65
456.821	1	70
456.991	1	75
457.161	1	65
457.332	1	78
457.502	1	59
457.673	1	86
457.843	1	79
458.014	1	65
458.184	1	77
458.355	1	75
458.525	1	81
458.695	1	79
458.866	1	76
459.036	1	78
459.207	1	66
459.377	1	75
459.548	1	80
459.718	1	75
459.888	1	72
460.059	1	79
460.229	1	69
460.400	1	77
460.570	1	83
460.740	1	80
460.911	1	80
461.081	1	75
461.252	1	69
461.422	1	75
461.593	1	75
461.763	1	79
461.933	1	93
462.104	1	73
462.274	1	71
462.445	1	70
462.615	1	74
462.785	1	71
462.956	1	81
463.126	1	81
463.297	1	66
463.467	1	78
463.638	1	73
463.808	1	70
463.978	1	63
464.149	1	63
464.319	1	65
464.490	1	77
464.660	1	75
464.830	1	63
465.001	1	69
465.171	1	79
465.342	1	80
465.512	1	64
465.682	1	66
465.853	1	75
466.023	1	70
466.194	1	61
466.364	1	79
466.534	1	73
466.705	1	70
466.875	1	54
467.045	1	57
467.216	1	79
467.386	1	66
467.557	1	60
467.727	1	60
467.897	1	64
468.068	1	58
468.238	1	57
468.409	1	69
468.579	1	64
468.749	1	64
468.920	1	55
469.090	1	66
469.260	1	62
469.431	1	62
469.601	1	66
469.772	1	58
469.942	1	62
470.112	1	72
470.283	1	54
470.453	1	62
470.623	1	61
470.794	1	50
470.964	1	64
471.135	1	63
471.305	1	45
471.475	1	67
471.646	1	49
471.816	1	50
471.986	1	62
472.157	1	74
472.327	1	44
472.497	1	70
472.668	1	41
472.838	1	60
473.009	1	72
473.179	1	57
473.349	1	58
473.520	1	56
473.690	1	65
473.860	1	55
474.031	1	57
474.201	1	60
474.371	1	62
474.542	1	61
474.712	1	55
474.882	1	64
475.053	1	69
475.223	1	44
475.394	1	59
475.564	1	64
475.734	1	61
475.905	1	66
476.075	1	59
476.245	1	61
476.416	1	63
476.586	1	62
476.756	1	60
476.927	1	64
477.097	1	60
477.267	1	54
477.438	1	57
477.608	1	55
477.778	1	58
477.949	1	63
478.119	1	63
478.289	1	62
478.460	1	57
478.630	1	57
478.800	1	54
478.971	1	54
479.141	1	48
479.311	1	43
479.482	1	51
479.652	1	52
479.822	1	53
479.993	1	62
480.163	1	60
480.333	1	72
480.504	1	62
480.674	1	58
480.844	1	50
481.015	1	56
481.185	1	56
481.355	1	57
481.525	1	50
481.696	1	49
481.866	1	57
482.036	1	51
482.207	1	55
482.377	1	52
482.547	1	69
482.718	1	46
482.888	1	57
483.058	1	49
483.229	1	42
483.399	1	42
483.569	1	48
483.740	1	53
483.910	1	46
484.080	1	56
484.250	1	54
484.421	1	43
484.591	1	52
484.761	1	56
484.932	1	50
485.102	1	61
485.272	1	52
485.443	1	54
485.613	1	43
485.783	1	50
485.953	1	50
486.124	1	55
486.294	1	48
486.464	1	44
486.635	1	53
486.805	1	44
486.975	1	40
487.146	1	52
487.316	1	35
487.486	1	46
487.656	1	41
487.827	1	46
487.997	1	31
488.167	1	40
488.338	1	52
488.508	1	34
488.678	1	38
488.848	1	57
489.019	1	49
489.189	1	49
489.359	1	36
489.529	1	44
489.700	1	37
489.870	1	44
490.040	1	38
490.211	1	39
490.381	1	57
490.551	1	47
490.721	1	54
490.892	1	42
491.062	1	50
491.232	1	45
491.402	1	44
491.573	1	33
491.743	1	38
491.913	1	46
492.084	1	41
492.254	1	36
492.424	1	42
492.594	1	46
492.765	1	43
492.935	1	44
493.105	1	44
493.275	1	43
493.446	1	39
493.616	1	43
493.786	1	34
493.956	1	36
494.127	1	46
494.297	1	38
494.467	1	38
494.637	1	38
494.808	1	33
494.978	1	38
495.148	1	43
495.318	1	33
495.489	1	46
495.659	1	39
495.829	1	29
495.999	1	42
496.170	1	39
496.340	1	53
496.510	1	40
496.680	1	29
496.851	1	40
497.021	1	28
497.191	1	31
497.361	1	37
497.532	1	38
497.702	1	35
497.872	1	38
498.042	1	43
498.213	1	32
498.383	1	48
498.553	1	30
498.723	1	30
498.894	1	32
499.064	1	44
499.234	1	41
499.404	1	43
499.574	1	41
499.745	1	43
499.915	1	38
500.085	1	37
500.255	1	41
500.426	1	42
500.596	1	36
500.766	1	42
500.936	1	33
501.106	1	34
501.277	1	41
501.447	1	36
501.617	1	39
501.787	1	35
501.958	1	26
502.128	1	35
502.298	1	45
502.468	1	43
502.638	1	42
502.809	1	39
502.979	1	34
503.149	1	26
503.319	1	32
503.489	1	32
503.660	1	31
503.830	1	44
504.000	1	47
504.170	1	23
504.340	1	34
504.511	1	35
504.681	1	24
504.851	1	39
505.021	1	24
505.192	1	19
505.362	1	39
505.532	1	19
505.702	1	29
505.872	1	33
506.043	1	37
506.213	1	29
506.383	1	34
506.553	1	38
506.723	1	32
506.893	1	35
507.064	1	31
507.234	1	22
507.404	1	38
507.574	1	28
507.744	1	24
507.915	1	29
508.085	1	38
508.255	1	34
508.425	1	16
508.595	1	39
508.766	1	39
508.936	1	20
509.106	1	44
509.276	1	37
509.446	1	26
509.616	1	30
509.787	1	39
509.957	1	26
510.127	1	32
510.297	1	31
510.467	1	18
510.638	1	37
510.808	1	21
510.978	1	17
511.148	1	30
511.318	1	23
511.488	1	13
511.659	1	17
511.829	1	17
511.999	1	20
512.169	1	28
512.339	1	23
512.509	1	27
512.680	1	30
512.850	1	23
513.020	1	29
513.190	1	29
513.360	1	28
513.530	1	16
513.700	1	28
513.871	1	23
514.041	1	20
514.211	1	30
514.381	1	28
514.551	1	29
514.721	1	11
514.892	1	29
515.062	1	25
515.232	1	29
515.402	1	18
515.572	1	24
515.742	1	30
515.912	1	27
516.083	1	30
516.253	1	21
516.423	1	24
516.593	1	30
516.763	1	29
516.933	1	28
517.104	1	32
517.274	1	22
517.444	1	31
517.614	1	25
517.784	1	19
517.954	1	32
518.124	1	36
518.294	1	18
518.465	1	20
518.635	1	28
518.805	1	15
518.975	1	18
519.145	1	21
519.315	1	15
519.485	1	30
519.656	1	32
519.826	1	21
519.996	1	25
520.166	1	22
520.336	1	27
520.506	1	32
520.676	1	17
520.846	1	22
521.017	1	30
521.187	1	16
521.357	1	34
521.527	1	19
521.697	1	24
521.867	1	15
522.037	1	29
522.207	1	25
522.377	1	26
522.548	1	30
522.718	1	19
522.888	1	39
523.058	1	25
523.228	1	29
523.398	1	19
523.568	1	30
523.738	1	21
523.909	1	33
524.079	1	23
524.249	1	21
524.419	1	16
524.589	1	17
524.759	1	22
524.929	1	15
525.099	1	24
525.269	1	20
525.439	1	16
525.610	1	33
525.780	1	17
525.950	1	20
526.120	1	29
526.290	1	13
526.460	1	5
526.630	1	23
526.800	1	11
526.970	1	18
527.140	1	24
527.311	1	19
527.481	1	13
527.651	1	21
527.821	1	12
527.991	1	26
528.161	1	29
528.331	1	17
528.501	1	17
528.671	1	13
528.841	1	18
529.011	1	15
529.181	1	19
529.352	1	21
529.522	1	18
529.692	1	24
529.862	1	13
530.032	1	16
530.202	1	25
530.372	1	17
530.542	1	13
530.712	1	13
530.882	1	18
531.052	1	21
531.222	1	11
531.392	1	15
531.563	1	21
531.733	1	13
531.903	1	20
532.073	1	24
532.243	1	12
532.413	1	14
532.583	1	19
532.753	1	17
532.923	1	8
533.093	1	17
533.263	1	11
533.433	1	20
533.603	1	11
533.773	1	15
533.943	1	17
534.113	1	19
534.284	1	21
534.454	1	26
534.624	1	30
534.794	1	10
534.964	1	21
535.134	1	14
535.304	1	13
535.474	1	28
535.644	1	8
535.814	1	17
535.984	1	1
536.154	1	20
536.324	1	17
536.494	1	29
536.664	1	23
536.834	1	15
537.004	1	14
537.174	1	16
537.344	1	22
537.514	1	15
537.685	1	5
537.855	1	22
538.025	1	20
538.195	1	16
538.365	1	29
538.535	1	17
538.705	1	17
538.875	1	9
539.045	1	10
539.215	1	22
539.385	1	20
539.555	1	9
539.725	1	17
539.895	1	11
540.065	1	30
540.235	1	24
540.405	1	0
540.575	1	12
540.745	1	20
540.915	1	21
541.085	1	12
541.255	1	6
541.425	1	20
541.595	1	15
541.765	1	16
541.935	1	15
542.105	1	5
542.275	1	13
542.445	1	3
542.615	1	7
542.785	1	16
542.955	1	1
543.125	1	7
543.295	1	15
543.465	1	20
543.635	1	19
543.805	1	19
543.975	1	16
544.145	1	21
544.315	1	15
544.485	1	15
544.655	1	12
544.825	1	-4
544.995	1	18
545.165	1	11
545.335	1	15
545.505	1	6
545.675	1	18
545.845	1	15
546.015	1	16
546.185	1	31
546.355	1	13
546.525	1	8
546.695	1	12
546.865	1	12
547.035	1	19
547.205	1	11
547.375	1	16
547.545	1	14
547.715	1	7
547.885	1	7
548.055	1	9
548.225	1	16
548.395	1	3
548.565	1	11
548.735	1	22
548.905	1	6
549.075	1	20
549.245	1	7
549.415	1	13
549.585	1	26
549.755	1	12
549.925	1	8
550.095	1	18
550.265	1	5
550.435	1	10
550.605	1	11
550.775	1	15
550.945	1	10
551.115	1	14
551.285	1	9
551.455	1	8
551.625	1	26
551.795	1	19
551.965	1	15
552.135	1	3
552.305	1	9
552.475	1	1
552.645	1	16
552.815	1	3
552.985	1	13
553.155	1	15
553.325	1	20
553.495	1	13
553.665	1	8
553.835	1	12
554.004	1	8
554.174	1	4
554.344	1	18
554.514	1	18
554.684	1	12
554.854	1	15
555.024	1	-1
555.194	1	7
555.364	1	10
555.534	1	8
555.704	1	-3
555.874	1	12
556.044	1	8
556.214	1	7
556.384	1	8
556.554	1	24
556.724	1	12
556.894	1	13
557.064	1	5
557.234	1	3
557.404	1	17
557.573	1	11
557.743	1	6
557.913	1	10
558.083	1	-3
558.253	1	14
558.423	1	11
558.593	1	10
558.763	1	11
558.933	1	7
559.103	1	18
559.273	1	18
559.443	1	20
559.613	1	15
559.783	1	13
559.953	1	1
560.122	1	17
560.292	1	13
560.462	1	3
560.632	1	14
560.802	1	10
560.972	1	22
561.142	1	12
561.312	1	4
561.482	1	16
561.652	1	16
561.822	1	4
561.992	1	5
562.162	1	16
562.331	1	4
562.501	1	5
562.671	1	9
562.841	1	2
563.011	1	11
563.181	1	6
563.351	1	3
563.521	1	10
563.691	1	7
563.861	1	11
564.031	1	12
564.201	1	24
564.370	1	1
564.540	1	8
564.710	1	1
564.880	1	9
565.050	1	20
565.220	1	12
565.390	1	12
565.560	1	10
565.730	1	7
565.900	1	9
566.069	1	13
566.239	1	2
566.409	1	10
566.579	1	13
566.749	1	10
566.919	1	12
567.089	1	9
567.259	1	22
567.429	1	10
567.599	1	3
567.768	1	13
567.938	1	8
568.108	1	8
568.278	1	4
568.448	1	11
568.618	1	9
568.788	1	11
568.958	1	10
569.128	1	11
569.297	1	1
569.467	1	13
569.637	1	9
569.807	1	12
569.977	1	15
570.147	1	17
570.317	1	2
570.487	1	9
570.656	1	16
570.826	1	7
570.996	1	4
571.166	1	19
571.336	1	8
571.506	1	13
571.676	1	15
571.846	1	14
572.015	1	7
572.185	1	2
572.355	1	11
572.525	1	9
572.695	1	-8
572.865	1	2
573.035	1	9
573.205	1	11
573.374	1	2
573.544	1	11
573.714	1	15
573.884	1	10
574.054	1	3
574.224	1	18
574.394	1	8
574.563	1	3
574.733	1	9
574.903	1	-1
575.073	1	13
575.243	1	8
575.413	1	8
575.583	1	-4
575.752	1	13
575.922	1	13
576.092	1	12
576.262	1	11
576.432	1	15
576.602	1	4
576.772	1	20
576.941	1	1
577.111	1	2
577.281	1	-5
577.451	1	6
577.621	1	14
577.791	1	12
577.960	1	4
578.130	1	9
578.300	1	6
578.470	1	16
578.640	1	16
578.810	1	10
578.979	1	16
579.149	1	7
579.319	1	10
579.489	1	5
579.659	1	6
579.829	1	1
579.998	1	9
580.168	1	18
580.338	1	11
580.508	1	12
580.678	1	15
580.848	1	4
581.017	1	5
581.187	1	10
581.357	1	5
581.527	1	13
581.697	1	21
581.867	1	8
582.036	1	-4
582.206	1	6
582.376	1	14
582.546	1	-3
582.716	1	3
582.885	1	6
583.055	1	4
583.225	1	2
583.395	1	11
583.565	1	5
583.735	1	9
583.904	1	7
584.074	1	13
584.244	1	6
584.414	1	4
584.584	1	13
584.753	1	-2
584.923	1	13
585.093	1	10
585.263	1	8
585.433	1	14
585.602	1	-1
585.772	1	3
585.942	1	12
586.112	1	8
586.282	1	6
586.451	1	1
586.621	1	9
586.791	1	7
586.961	1	7
587.131	1	14
587.300	1	1
587.470	1	14
587.640	1	15
587.810	1	3
587.980	1	3
588.149	1	5
588.319	1	5
588.489	1	8
588.659	1	18
588.829	1	3
588.998	1	12
589.168	1	12
589.338	1	9
589.508	1	7
589.677	1	3
589.847	1	9
590.017	1	23
590.187	1	1
590.357	1	20
590.526	1	16
590.696	1	9
590.866	1	9
591.036	1	7
591.205	1	20
591.375	1	5
591.545	1	9
591.715	1	14
591.885	1	10
592.054	1	9
592.224	1	4
592.394	1	2
592.564	1	10
592.733	1	18
592.903	1	9
593.073	1	4
593.243	1	11
593.412	1	15
593.582	1	4
593.752	1	-2
593.922	1	15
594.091	1	1
594.261	1	1
594.431	1	10
594.601	1	16
594.771	1	15
594.940	1	14
595.110	1	-3
595.280	1	10
595.450	1	-1
595.619	1	-2
595.789	1	6
595.959	1	19
596.129	1	11
596.298	1	2
596.468	1	1
596.638	1	14
596.808	1	12
596.977	1	18
597.147	1	9
597.317	1	-3
597.487	1	19
597.656	1	10
597.826	1	8
597.996	1	18
598.166	1	3
598.335	1	8
598.505	1	7
598.675	1	-3
598.844	1	9
599.014	1	10
599.184	1	9
599.354	1	-4
599.523	1	18
599.693	1	-4
599.863	1	15
600.033	1	11
600.202	1	5
600.372	1	20
600.542	1	16
600.712	1	6
600.881	1	3
601.051	1	12
601.221	1	16
601.390	1	11
601.560	1	7
601.730	1	9
601.900	1	6
602.069	1	14
602.239	1	-4
602.409	1	4
602.578	1	13
602.748	1	8
602.918	1	12
603.088	1	16
603.257	1	20
603.427	1	1
603.597	1	7
603.767	1	4
603.936	1	9
604.106	1	7
604.276	1	10
604.445	1	16
604.615	1	13
604.785	1	3
604.954	1	3
605.124	1	14
605.294	1	11
605.464	1	13
605.633	1	17
605.803	1	-1
605.973	1	9
606.142	1	9
606.312	1	14
606.482	1	7
606.652	1	21
606.821	1	1
606.991	1	6
607.161	1	5
607.330	1	18
607.500	1	10
607.670	1	4
607.839	1	25
608.009	1	16
608.179	1	14
608.348	1	18
608.518	1	9
608.688	1	16
608.858	1	4
609.027	1	4
609.197	1	17
609.367	1	11
609.536	1	13
609.706	1	9
609.876	1	3
610.045	1	8
610.215	1	13
610.385	1	12
610.554	1	10
610.724	1	17
610.894	1	13
611.063	1	13
611.233	1	5
611.403	1	3
611.572	1	0
611.742	1	14
611.912	1	14
612.081	1	8
612.251	1	10
612.421	1	12
612.590	1	12
612.760	1	14
612.930	1	8
613.099	1	5
613.269	1	18
613.439	1	9
613.608	1	4
613.778	1	16
613.948	1	19
614.117	1	9
614.287	1	14
614.457	1	13
614.626	1	8
614.796	1	19
614.966	1	8
615.135	1	6
615.305	1	17
615.475	1	10
615.644	1	12
615.814	1	10
615.984	1	6
616.153	1	1
616.323	1	9
616.493	1	11
616.662	1	21
616.832	1	8
617.002	1	15
617.171	1	13
617.341	1	14
617.511	1	7
617.680	1	6
617.850	1	23
618.019	1	18
618.189	1	17
618.359	1	5
618.528	1	16
618.698	1	17
618.868	1	6
619.037	1	15
619.207	1	14
619.377	1	6
619.546	1	16
619.716	1	7
619.885	1	10
620.055	1	2
620.225	1	20
620.394	1	5
620.564	1	21
620.734	1	13
620.903	1	3
621.073	1	17
621.242	1	19
621.412	1	11
621.582	1	-2
621.751	1	12
621.921	1	11
622.091	1	15
622.260	1	12
622.430	1	24
622.599	1	12
622.769	1	11
622.939	1	16
623.108	1	17
623.278	1	5
623.448	1	6
623.617	1	6
623.787	1	4
623.956	1	18
624.126	1	14
624.296	1	10
624.465	1	16
624.635	1	18
624.804	1	16
624.974	1	20
625.144	1	10
625.313	1	14
625.483	1	13
625.652	1	5
625.822	1	6
625.992	1	10
626.161	1	15
626.331	1	14
626.501	1	1
626.670	1	18
626.840	1	6
627.009	1	10
627.179	1	24
627.348	1	14
627.518	1	9
627.688	1	8
627.857	1	28
628.027	1	0
628.196	1	6
628.366	1	22
628.536	1	10
628.705	1	16
628.875	1	9
629.044	1	14
629.214	1	18
629.384	1	17
629.553	1	18
629.723	1	12
629.892	1	22
630.062	1	15
630.232	1	12
630.401	1	21
630.571	1	8
630.740	1	11
630.910	1	25
631.079	1	12
631.249	1	17
631.419	1	17
631.588	1	6
631.758	1	18
631.927	1	13
632.097	1	17
632.266	1	12
632.436	1	11
632.606	1	5
632.775	1	18
632.945	1	19
633.114	1	18
633.284	1	20
633.453	1	11
633.623	1	20
633.793	1	20
633.962	1	14
634.132	1	13
634.301	1	16
634.471	1	27
634.640	1	14
634.810	1	18
634.979	1	18
635.149	1	9
635.319	1	10
635.488	1	15
635.658	1	8
635.827	1	11
635.997	1	20
636.166	1	15
636.336	1	12
636.505	1	28
636.675	1	6
636.845	1	23
637.014	1	16
637.184	1	17
637.353	1	26
637.523	1	18
637.692	1	14
637.862	1	16
638.031	1	23
638.201	1	32
638.370	1	18
638.540	1	9
638.710	1	11
638.879	1	9
639.049	1	16
639.218	1	8
639.388	1	13
639.557	1	9
639.727	1	12
639.896	1	15
640.066	1	17
640.235	1	13
640.405	1	24
640.574	1	15
640.744	1	16
640.914	1	17
641.083	1	8
641.253	1	14
641.422	1	15
641.592	1	26
641.761	1	18
641.931	1	22
642.100	1	25
642.270	1	11
642.439	1	17
642.609	1	25
642.778	1	19
642.948	1	6
643.117	1	17
643.287	1	16
643.456	1	12
643.626	1	32
643.795	1	26
643.965	1	24
644.134	1	16
644.304	1	16
644.473	1	16
644.643	1	28
644.812	1	17
644.982	1	16
645.151	1	12
645.321	1	9
645.490	1	16
645.660	1	8
645.829	1	17
645.999	1	9
646.168	1	20
646.338	1	23
646.507	1	19
646.677	1	19
646.846	1	20
647.016	1	10
647.185	1	20
647.355	1	8
647.524	1	19
647.694	1	35
647.863	1	12
648.033	1	19
648.202	1	15
648.372	1	22
648.541	1	14
648.711	1	20
648.880	1	10
649.050	1	13
649.219	1	24
649.389	1	29
649.558	1	23
649.728	1	21
649.897	1	15
650.067	1	20
650.236	1	18
650.406	1	17
650.575	1	26
650.745	1	36
650.914	1	25
651.084	1	6
651.253	1	28
651.423	1	19
651.592	1	13
651.762	1	13
651.931	1	25
652.101	1	24
652.270	1	27
652.440	1	31
652.609	1	17
652.778	1	13
652.948	1	20
653.117	1	24
653.287	1	20
653.456	1	18
653.626	1	27
653.795	1	16
653.965	1	25
654.134	1	26
654.304	1	10
654.473	1	28
654.643	1	22
654.812	1	13
654.982	1	13
655.151	1	17
655.320	1	28
655.490	1	19
655.659	1	21
655.829	1	18
655.998	1	9
656.168	1	19
656.337	1	13
656.507	1	10
656.676	1	21
656.846	1	24
657.015	1	26
657.184	1	31
657.354	1	20
657.523	1	16
657.693	1	29
657.862	1	25
658.032	1	19
658.201	1	14
658.371	1	30
658.540	1	21
658.709	1	14
658.879	1	23
659.048	1	21
659.218	1	22
659.387	1	18
659.557	1	24
659.726	1	25
659.895	1	19
660.065	1	11
660.234	1	18
660.404	1	23
660.573	1	15
660.743	1	18
660.912	1	23
661.081	1	33
661.251	1	11
661.420	1	18
661.590	1	18
661.759	1	15
661.929	1	24
662.098	1	30
662.267	1	18
662.437	1	29
662.606	1	19
662.776	1	24
662.945	1	23
663.115	1	20
663.284	1	15
663.453	1	21
663.623	1	22
663.792	1	19
663.962	1	26
664.131	1	31
664.300	1	22
664.470	1	18
664.639	1	25
664.809	1	25
664.978	1	18
665.148	1	26
665.317	1	19
665.486	1	34
665.656	1	25
665.825	1	32
665.995	1	14
666.164	1	16
666.333	1	27
666.503	1	14
666.672	1	17
666.842	1	15
667.011	1	26
667.180	1	32
667.350	1	21
667.519	1	22
667.689	1	21
667.858	1	27
668.027	1	25
668.197	1	14
668.366	1	16
668.536	1	31
668.705	1	15
668.874	1	31
669.044	1	19
669.213	1	30
669.382	1	17
669.552	1	24
669.721	1	22
669.891	1	30
670.060	1	21
670.229	1	38
670.399	1	19
670.568	1	31
670.738	1	31
670.907	1	4
671.076	1	19
671.246	1	27
671.415	1	18
671.584	1	23
671.754	1	14
671.923	1	28
672.093	1	23
672.262	1	20
672.431	1	17
672.601	1	19
672.770	1	15
672.939	1	35
673.109	1	23
673.278	1	23
673.448	1	34
673.617	1	20
673.786	1	30
