325.333	1	12
325.504	1	14
325.675	1	21
325.846	1	15
326.017	1	22
326.188	1	18
326.359	1	27
326.531	1	10
326.702	1	11
326.873	1	33
327.044	1	27
327.215	1	16
327.386	1	25
327.557	1	8
327.728	1	13
327.899	1	15
328.070	1	32
328.241	1	32
328.412	1	1
328.583	1	21
328.754	1	19
328.926	1	31
329.097	1	15
329.268	1	27
329.439	1	14
329.610	1	20
329.781	1	7
329.952	1	26
330.123	1	24
330.294	1	20
330.465	1	15
330.636	1	28
330.807	1	18
330.978	1	23
331.149	1	11
331.320	1	20
331.492	1	23
331.663	1	12
331.834	1	35
332.005	1	31
332.176	1	38
332.347	1	32
332.518	1	22
332.689	1	26
332.860	1	30
333.031	1	35
333.202	1	19
333.373	1	27
333.544	1	26
333.715	1	27
333.886	1	14
334.057	1	34
334.228	1	16
334.399	1	29
334.570	1	39
334.741	1	25
334.912	1	38
335.084	1	45
335.255	1	34
335.426	1	26
335.597	1	35
335.768	1	27
335.939	1	36
336.110	1	40
336.281	1	21
336.452	1	28
336.623	1	35
336.794	1	44
336.965	1	32
337.136	1	41
337.307	1	22
337.478	1	27
337.649	1	38
337.820	1	25
337.991	1	42
338.162	1	31
338.333	1	22
338.504	1	41
338.675	1	31
338.846	1	36
339.017	1	33
339.188	1	36
339.359	1	25
339.530	1	38
339.701	1	40
339.872	1	46
340.043	1	37
340.214	1	34
340.385	1	48
340.556	1	26
340.727	1	43
340.898	1	47
341.069	1	32
341.240	1	40
341.411	1	33
341.582	1	39
341.753	1	37
341.924	1	29
342.095	1	49
342.266	1	47
342.437	1	51
342.608	1	43
342.779	1	48
342.950	1	54
343.121	1	51
343.292	1	39
343.463	1	43
343.634	1	50
343.805	1	46
343.976	1	64
344.147	1	51
344.318	1	41
344.489	1	45
344.660	1	48
344.831	1	48
345.002	1	26
345.173	1	48
345.344	1	50
345.515	1	47
345.686	1	44
345.857	1	53
346.028	1	49
346.199	1	40
346.370	1	42
346.541	1	53
346.712	1	44
346.883	1	39
347.054	1	51
347.225	1	38
347.396	1	50
347.567	1	51
347.738	1	44
347.909	1	53
348.080	1	42
348.251	1	51
348.422	1	55
348.593	1	49
348.764	1	46
348.935	1	53
349.106	1	49
349.277	1	50
349.448	1	58
349.619	1	56
349.790	1	53
349.961	1	49
350.132	1	55
350.303	1	53
350.474	1	73
350.645	1	63
350.816	1	60
350.987	1	66
351.157	1	49
351.328	1	64
351.499	1	74
351.670	1	49
351.841	1	65
352.012	1	60
352.183	1	67
352.354	1	63
352.525	1	71
352.696	1	60
352.867	1	56
353.038	1	66
353.209	1	76
353.380	1	63
353.551	1	56
353.722	1	62
353.893	1	55
354.064	1	72
354.235	1	55
354.406	1	56
354.576	1	55
354.747	1	62
354.918	1	54
355.089	1	66
355.260	1	65
355.431	1	72
355.602	1	63
355.773	1	71
355.944	1	69
356.115	1	69
356.286	1	67
356.457	1	69
356.628	1	60
356.799	1	62
356.970	1	76
357.141	1	65
357.311	1	51
357.482	1	69
357.653	1	64
357.824	1	74
357.995	1	69
358.166	1	55
358.337	1	68
358.508	1	76
358.679	1	80
358.850	1	75
359.021	1	75
359.192	1	73
359.363	1	59
359.533	1	78
359.704	1	69
359.875	1	73
360.046	1	72
360.217	1	62
360.388	1	74
360.559	1	71
360.730	1	82
360.901	1	72
361.072	1	81
361.243	1	74
361.414	1	80
361.584	1	65
361.755	1	76
361.926	1	65
362.097	1	62
362.268	1	74
362.439	1	73
362.610	1	84
362.781	1	67
362.952	1	63
363.123	1	63
363.293	1	58
363.464	1	87
363.635	1	75
363.806	1	71
363.977	1	60
364.148	1	76
364.319	1	76
364.490	1	76
364.661	1	78
364.832	1	79
365.002	1	70
365.173	1	75
365.344	1	83
365.515	1	78
365.686	1	75
365.857	1	81
366.028	1	86
366.199	1	71
366.370	1	83
366.540	1	64
366.711	1	60
366.882	1	69
367.053	1	76
367.224	1	88
367.395	1	78
367.566	1	79
367.737	1	84
367.908	1	86
368.078	1	78
368.249	1	84
368.420	1	72
368.591	1	71
368.762	1	77
368.933	1	84
369.104	1	71
369.274	1	75
369.445	1	92
369.616	1	90
369.787	1	81
369.958	1	85
370.129	1	68
370.300	1	94
370.471	1	65
370.641	1	85
370.812	1	84
370.983	1	80
371.154	1	84
371.325	1	77
371.496	1	79
371.667	1	83
371.837	1	92
372.008	1	79
372.179	1	83
372.350	1	90
372.521	1	78
372.692	1	86
372.863	1	91
373.033	1	69
373.204	1	75
373.375	1	86
373.546	1	85
373.717	1	82
373.888	1	90
374.059	1	103
374.229	1	93
374.400	1	86
374.571	1	77
374.742	1	85
374.913	1	80
375.084	1	69
375.254	1	93
375.425	1	91
375.596	1	104
375.767	1	90
375.938	1	88
376.109	1	83
376.279	1	75
376.450	1	96
376.621	1	82
376.792	1	82
376.963	1	84
377.134	1	100
377.304	1	87
377.475	1	90
377.646	1	91
377.817	1	90
377.988	1	87
378.159	1	103
378.329	1	104
378.500	1	88
378.671	1	94
378.842	1	81
379.013	1	84
379.184	1	88
379.354	1	95
379.525	1	90
379.696	1	91
379.867	1	99
380.038	1	95
380.209	1	92
380.379	1	100
380.550	1	88
380.721	1	98
380.892	1	111
381.063	1	94
381.233	1	105
381.404	1	88
381.575	1	92
381.746	1	97
381.917	1	97
382.087	1	101
382.258	1	95
382.429	1	96
382.600	1	109
382.771	1	105
382.941	1	107
383.112	1	96
383.283	1	104
383.454	1	99
383.625	1	92
383.795	1	96
383.966	1	109
384.137	1	106
384.308	1	104
384.479	1	108
384.649	1	109
384.820	1	100
384.991	1	95
385.162	1	107
385.333	1	94
385.503	1	108
385.674	1	98
385.845	1	113
386.016	1	100
386.187	1	102
386.357	1	112
386.528	1	105
386.699	1	106
386.870	1	108
387.041	1	112
387.211	1	112
387.382	1	108
387.553	1	110
387.724	1	110
387.894	1	116
388.065	1	113
388.236	1	102
388.407	1	108
388.578	1	104
388.748	1	110
388.919	1	115
389.090	1	103
389.261	1	107
389.431	1	118
389.602	1	108
389.773	1	95
389.944	1	113
390.114	1	106
390.285	1	117
390.456	1	120
390.627	1	106
390.798	1	104
390.968	1	110
391.139	1	112
391.310	1	104
391.481	1	114
391.651	1	104
391.822	1	102
391.993	1	108
392.164	1	102
392.334	1	107
392.505	1	100
392.676	1	109
392.847	1	121
393.017	1	109
393.188	1	121
393.359	1	103
393.530	1	105
393.700	1	112
393.871	1	108
394.042	1	111
394.213	1	111
394.383	1	106
394.554	1	115
394.725	1	130
394.896	1	103
395.066	1	125
395.237	1	104
395.408	1	113
395.579	1	123
395.749	1	127
395.920	1	116
396.091	1	120
396.262	1	108
396.432	1	117
396.603	1	117
396.774	1	117
396.945	1	118
397.115	1	116
397.286	1	106
397.457	1	118
397.627	1	121
397.798	1	113
397.969	1	111
398.140	1	108
398.310	1	119
398.481	1	121
398.652	1	118
398.823	1	116
398.993	1	112
399.164	1	118
399.335	1	125
399.505	1	129
399.676	1	122
399.847	1	122
400.018	1	118
400.188	1	119
400.359	1	120
400.530	1	104
400.700	1	113
400.871	1	118
401.042	1	112
401.213	1	123
401.383	1	117
401.554	1	125
401.725	1	120
401.895	1	121
402.066	1	124
402.237	1	125
402.408	1	125
402.578	1	123
402.749	1	118
402.920	1	129
403.090	1	123
403.261	1	121
403.432	1	119
403.603	1	119
403.773	1	128
403.944	1	132
404.115	1	127
404.285	1	127
404.456	1	120
404.627	1	120
404.797	1	117
404.968	1	108
405.139	1	120
405.310	1	124
405.480	1	129
405.651	1	112
405.822	1	130
405.992	1	121
406.163	1	128
406.334	1	110
406.504	1	120
406.675	1	129
406.846	1	109
407.016	1	123
407.187	1	120
407.358	1	107
407.528	1	117
407.699	1	128
407.870	1	120
408.041	1	114
408.211	1	131
408.382	1	129
408.553	1	114
408.723	1	127
408.894	1	122
409.065	1	124
409.235	1	122
409.406	1	123
409.577	1	123
409.747	1	119
409.918	1	126
410.089	1	130
410.259	1	127
410.430	1	126
410.601	1	122
410.771	1	143
410.942	1	137
411.113	1	120
411.283	1	126
411.454	1	132
411.625	1	119
411.795	1	113
411.966	1	132
412.137	1	124
412.307	1	108
412.478	1	125
412.649	1	126
412.819	1	125
412.990	1	123
413.161	1	126
413.331	1	122
413.502	1	137
413.672	1	120
413.843	1	118
414.014	1	114
414.184	1	126
414.355	1	130
414.526	1	123
414.696	1	127
414.867	1	117
415.038	1	106
415.208	1	116
415.379	1	138
415.550	1	117
415.720	1	111
415.891	1	117
416.062	1	124
416.232	1	123
416.403	1	122
416.573	1	124
416.744	1	119
416.915	1	130
417.085	1	116
417.256	1	120
417.427	1	122
417.597	1	130
417.768	1	111
417.939	1	121
418.109	1	120
418.280	1	131
418.450	1	122
418.621	1	114
418.792	1	128
418.962	1	118
419.133	1	133
419.304	1	126
419.474	1	115
419.645	1	121
419.815	1	121
419.986	1	123
420.157	1	120
420.327	1	128
420.498	1	127
420.669	1	119
420.839	1	118
421.010	1	120
421.180	1	124
421.351	1	119
421.522	1	125
421.692	1	117
421.863	1	115
422.033	1	121
422.204	1	114
422.375	1	113
422.545	1	118
422.716	1	126
422.886	1	110
423.057	1	116
423.228	1	116
423.398	1	107
423.569	1	120
423.740	1	105
423.910	1	112
424.081	1	117
424.251	1	115
424.422	1	119
424.593	1	124
424.763	1	119
424.934	1	111
425.104	1	114
425.275	1	97
425.445	1	115
425.616	1	107
425.787	1	105
425.957	1	109
426.128	1	122
426.298	1	99
426.469	1	113
426.640	1	110
426.810	1	115
426.981	1	105
427.151	1	97
427.322	1	122
427.493	1	110
427.663	1	114
427.834	1	97
428.004	1	111
428.175	1	114
428.345	1	108
428.516	1	113
428.687	1	116
428.857	1	109
429.028	1	109
429.198	1	96
429.369	1	121
429.540	1	114
429.710	1	106
429.881	1	114
430.051	1	114
430.222	1	97
430.392	1	118
430.563	1	113
430.734	1	116
430.904	1	117
431.075	1	127
431.245	1	112
431.416	1	106
431.586	1	101
431.757	1	114
431.927	1	108
432.098	1	112
432.269	1	100
432.439	1	109
432.610	1	115
432.780	1	109
432.951	1	111
433.121	1	104
433.292	1	109
433.462	1	113
433.633	1	107
433.804	1	116
433.974	1	94
434.145	1	128
434.315	1	99
434.486	1	106
434.656	1	113
434.827	1	100
434.997	1	115
435.168	1	109
435.339	1	110
435.509	1	105
435.680	1	106
435.850	1	104
436.021	1	91
436.191	1	100
436.362	1	97
436.532	1	99
436.703	1	104
436.873	1	109
437.044	1	93
437.214	1	99
437.385	1	103
437.556	1	98
437.726	1	111
437.897	1	103
438.067	1	102
438.238	1	106
438.408	1	105
438.579	1	94
438.749	1	94
438.920	1	96
439.090	1	106
439.261	1	95
439.431	1	93
439.602	1	95
439.772	1	94
439.943	1	106
440.113	1	109
440.284	1	107
440.455	1	86
440.625	1	95
440.796	1	99
440.966	1	90
441.137	1	82
441.307	1	102
441.478	1	102
441.648	1	108
441.819	1	97
441.989	1	102
442.160	1	101
442.330	1	87
442.501	1	111
442.671	1	82
442.842	1	73
443.012	1	95
443.183	1	99
443.353	1	83
443.524	1	101
443.694	1	98
443.865	1	97
444.035	1	97
444.206	1	81
444.376	1	91
444.547	1	111
444.717	1	87
444.888	1	79
445.058	1	94
445.229	1	89
445.399	1	82
445.570	1	91
445.740	1	95
445.911	1	104
446.081	1	84
446.252	1	102
446.422	1	90
446.593	1	90
446.763	1	84
446.934	1	86
447.104	1	96
447.275	1	79
447.445	1	84
447.616	1	104
447.786	1	92
447.957	1	97
448.127	1	82
448.298	1	82
448.468	1	86
448.639	1	91
448.809	1	97
448.979	1	87
449.150	1	99
449.320	1	104
449.491	1	89
449.661	1	74
449.832	1	87
450.002	1	90
450.173	1	85
450.343	1	80
450.514	1	83
450.684	1	74
450.855	1	90
451.025	1	75
451.196	1	84
451.366	1	81
451.537	1	87
451.707	1	83
451.878	1	90
452.048	1	90
452.218	1	87
452.389	1	89
452.559	1	88
452.730	1	92
452.900	1	92
453.071	1	68
453.241	1	87
453.412	1	73
453.582	1	76
453.753	1	86
453.923	1	80
454.093	1	90
454.264	1	88
454.434	1	75
454.605	1	81
454.775	1	89
454.946	1	74
455.116	1	81
455.287	1	71
455.457	1	76
455.628	1	70
455.798	1	84
455.968	1	83
456.139	1	71
456.309	1	77
456.480	1	66
456.650	1	70
456.821	1	71
456.991	1	79
457.161	1	77
457.332	1	81
457.502	1	63
457.673	1	77
457.843	1	74
458.014	1	75
458.184	1	78
458.355	1	69
458.525	1	63
458.695	1	82
458.866	1	77
459.036	1	75
459.207	1	74
459.377	1	61
459.548	1	81
459.718	1	67
459.888	1	90
460.059	1	67
460.229	1	82
460.400	1	71
460.570	1	86
460.740	1	71
460.911	1	77
461.081	1	76
461.252	1	62
461.422	1	65
461.593	1	78
461.763	1	84
461.933	1	73
462.104	1	74
462.274	1	74
462.445	1	78
462.615	1	71
462.785	1	71
462.956	1	74
463.126	1	74
463.297	1	57
463.467	1	77
463.638	1	71
463.808	1	55
463.978	1	69
464.149	1	61
464.319	1	63
464.490	1	75
464.660	1	65
464.830	1	64
465.001	1	73
465.171	1	70
465.342	1	70
465.512	1	61
465.682	1	64
465.853	1	73
466.023	1	65
466.194	1	60
466.364	1	67
466.534	1	69
466.705	1	65
466.875	1	54
467.045	1	64
467.216	1	73
467.386	1	62
467.557	1	65
467.727	1	62
467.897	1	70
468.068	1	55
468.238	1	69
468.409	1	61
468.579	1	75
468.749	1	63
468.920	1	52
469.090	1	62
469.260	1	57
469.431	1	48
469.601	1	60
469.772	1	60
469.942	1	54
470.112	1	66
470.283	1	58
470.453	1	64
470.623	1	69
470.794	1	55
470.964	1	72
471.135	1	69
471.305	1	52
471.475	1	58
471.646	1	46
471.816	1	51
471.986	1	53
472.157	1	65
472.327	1	42
472.497	1	56
472.668	1	51
472.838	1	58
473.009	1	58
473.179	1	59
473.349	1	44
473.520	1	59
473.690	1	59
473.860	1	58
474.031	1	65
474.201	1	62
474.371	1	58
474.542	1	64
474.712	1	53
474.882	1	60
475.053	1	67
475.223	1	52
475.394	1	57
475.564	1	57
475.734	1	57
475.905	1	61
476.075	1	50
476.245	1	60
476.416	1	62
476.586	1	55
476.756	1	57
476.927	1	60
477.097	1	57
477.267	1	47
477.438	1	57
477.608	1	57
477.778	1	42
477.949	1	59
478.119	1	59
478.289	1	64
478.460	1	57
478.630	1	56
478.800	1	54
478.971	1	50
479.141	1	55
479.311	1	45
479.482	1	51
479.652	1	51
479.822	1	47
479.993	1	55
480.163	1	52
480.333	1	57
480.504	1	48
480.674	1	49
480.844	1	47
481.015	1	60
481.185	1	48
481.355	1	52
481.525	1	50
481.696	1	59
481.866	1	55
482.036	1	52
482.207	1	38
482.377	1	50
482.547	1	57
482.718	1	48
482.888	1	54
483.058	1	46
483.229	1	48
483.399	1	61
483.569	1	51
483.740	1	47
483.910	1	53
484.080	1	52
484.250	1	51
484.421	1	40
484.591	1	44
484.761	1	62
484.932	1	47
485.102	1	53
485.272	1	51
485.443	1	53
485.613	1	40
485.783	1	42
485.953	1	49
486.124	1	58
486.294	1	43
486.464	1	49
486.635	1	53
486.805	1	59
486.975	1	46
487.146	1	47
487.316	1	38
487.486	1	49
487.656	1	42
487.827	1	45
487.997	1	39
488.167	1	48
488.338	1	50
488.508	1	40
488.678	1	42
488.848	1	55
489.019	1	40
489.189	1	44
489.359	1	39
489.529	1	45
489.700	1	49
489.870	1	56
490.040	1	36
490.211	1	34
490.381	1	45
490.551	1	43
490.721	1	45
490.892	1	34
491.062	1	42
491.232	1	54
491.402	1	38
491.573	1	30
491.743	1	40
491.913	1	32
492.084	1	51
492.254	1	45
492.424	1	39
492.594	1	24
492.765	1	42
492.935	1	36
493.105	1	31
493.275	1	41
493.446	1	47
493.616	1	53
493.786	1	40
493.956	1	45
494.127	1	32
494.297	1	33
494.467	1	38
494.637	1	40
494.808	1	29
494.978	1	42
495.148	1	34
495.318	1	41
495.489	1	41
495.659	1	51
495.829	1	35
495.999	1	21
496.170	1	45
496.340	1	41
496.510	1	33
496.680	1	26
496.851	1	42
497.021	1	39
497.191	1	24
497.361	1	43
497.532	1	28
497.702	1	34
497.872	1	33
498.042	1	38
498.213	1	37
498.383	1	33
498.553	1	41
498.723	1	29
498.894	1	40
499.064	1	33
499.234	1	45
499.404	1	30
499.574	1	42
499.745	1	33
499.915	1	25
500.085	1	46
500.255	1	32
500.426	1	40
500.596	1	37
500.766	1	26
500.936	1	40
501.106	1	29
501.277	1	30
501.447	1	28
501.617	1	34
501.787	1	26
501.958	1	24
502.128	1	28
502.298	1	28
502.468	1	42
502.638	1	42
502.809	1	34
502.979	1	24
503.149	1	21
503.319	1	33
503.489	1	38
503.660	1	27
503.830	1	27
504.000	1	30
504.170	1	20
504.340	1	28
504.511	1	40
504.681	1	38
504.851	1	42
505.021	1	38
505.192	1	29
505.362	1	40
505.532	1	28
505.702	1	36
505.872	1	28
506.043	1	27
506.213	1	30
506.383	1	25
506.553	1	37
506.723	1	41
506.893	1	28
507.064	1	36
507.234	1	30
507.404	1	31
507.574	1	31
507.744	1	25
507.915	1	30
508.085	1	42
508.255	1	33
508.425	1	21
508.595	1	36
508.766	1	34
508.936	1	22
509.106	1	35
509.276	1	31
509.446	1	31
509.616	1	17
509.787	1	23
509.957	1	29
510.127	1	25
510.297	1	27
510.467	1	16
510.638	1	18
510.808	1	11
510.978	1	25
511.148	1	27
511.318	1	25
511.488	1	19
511.659	1	35
511.829	1	19
511.999	1	21
512.169	1	38
512.339	1	27
512.509	1	26
512.680	1	24
512.850	1	17
513.020	1	27
513.190	1	30
513.360	1	24
513.530	1	20
513.700	1	32
513.871	1	32
514.041	1	19
514.211	1	24
514.381	1	31
514.551	1	26
514.721	1	19
514.892	1	26
515.062	1	27
515.232	1	28
515.402	1	21
515.572	1	11
515.742	1	20
515.912	1	31
516.083	1	28
516.253	1	26
516.423	1	23
516.593	1	24
516.763	1	30
516.933	1	22
517.104	1	17
517.274	1	18
517.444	1	14
517.614	1	14
517.784	1	23
517.954	1	23
518.124	1	17
518.294	1	22
518.465	1	13
518.635	1	22
518.805	1	5
518.975	1	19
519.145	1	9
519.315	1	24
519.485	1	15
519.656	1	29
519.826	1	17
519.996	1	14
520.166	1	14
520.336	1	30
520.506	1	20
520.676	1	20
520.846	1	28
521.017	1	21
521.187	1	17
521.357	1	29
521.527	1	18
521.697	1	16
521.867	1	14
522.037	1	22
522.207	1	22
522.377	1	28
522.548	1	19
522.718	1	25
522.888	1	31
523.058	1	15
523.228	1	19
523.398	1	23
523.568	1	26
523.738	1	22
523.909	1	19
524.079	1	20
524.249	1	23
524.419	1	14
524.589	1	21
524.759	1	17
524.929	1	11
525.099	1	23
525.269	1	23
525.439	1	19
525.610	1	34
525.780	1	11
525.950	1	16
526.120	1	14
526.290	1	9
526.460	1	16
526.630	1	16
526.800	1	15
526.970	1	15
527.140	1	17
527.311	1	10
527.481	1	17
527.651	1	16
527.821	1	14
527.991	1	32
528.161	1	19
528.331	1	15
528.501	1	24
528.671	1	14
528.841	1	17
529.011	1	13
529.181	1	24
529.352	1	21
529.522	1	15
529.692	1	15
529.862	1	15
530.032	1	19
530.202	1	18
530.372	1	20
530.542	1	22
530.712	1	19
530.882	1	19
531.052	1	25
531.222	1	15
531.392	1	21
531.563	1	21
531.733	1	23
531.903	1	25
532.073	1	20
532.243	1	15
532.413	1	20
532.583	1	13
532.753	1	15
532.923	1	14
533.093	1	15
533.263	1	8
533.433	1	12
533.603	1	17
533.773	1	23
533.943	1	9
534.113	1	25
534.284	1	8
534.454	1	27
534.624	1	20
534.794	1	11
534.964	1	23
535.134	1	5
535.304	1	16
535.474	1	29
535.644	1	8
535.814	1	15
535.984	1	8
536.154	1	14
536.324	1	21
536.494	1	23
536.664	1	17
536.834	1	17
537.004	1	17
537.174	1	23
537.344	1	20
537.514	1	5
537.685	1	13
537.855	1	13
538.025	1	20
538.195	1	14
538.365	1	30
538.535	1	15
538.705	1	14
538.875	1	21
539.045	1	20
539.215	1	19
539.385	1	24
539.555	1	17
539.725	1	14
539.895	1	8
540.065	1	29
540.235	1	15
540.405	1	1
540.575	1	20
540.745	1	16
540.915	1	20
541.085	1	18
541.255	1	10
541.425	1	20
541.595	1	21
541.765	1	17
541.935	1	13
542.105	1	2
542.275	1	18
542.445	1	5
542.615	1	17
542.785	1	18
542.955	1	14
543.125	1	10
543.295	1	26
543.465	1	13
543.635	1	12
543.805	1	27
543.975	1	15
544.145	1	12
544.315	1	20
544.485	1	25
544.655	1	18
544.825	1	5
544.995	1	8
545.165	1	7
545.335	1	17
545.505	1	12
545.675	1	19
545.845	1	13
546.015	1	21
546.185	1	20
546.355	1	12
546.525	1	19
546.695	1	13
546.865	1	6
547.035	1	14
547.205	1	-1
547.375	1	13
547.545	1	18
547.715	1	9
547.885	1	19
548.055	1	8
548.225	1	18
548.395	1	11
548.565	1	11
548.735	1	12
548.905	1	10
549.075	1	17
549.245	1	10
549.415	1	6
549.585	1	19
549.755	1	18
549.925	1	3
550.095	1	17
550.265	1	9
550.435	1	1
550.605	1	13
550.775	1	1
550.945	1	16
551.115	1	4
551.285	1	20
551.455	1	10
551.625	1	23
551.795	1	11
551.965	1	14
552.135	1	8
552.305	1	10
552.475	1	2
552.645	1	7
552.815	1	-1
552.985	1	14
553.155	1	20
553.325	1	20
553.495	1	6
553.665	1	10
553.835	1	6
554.004	1	10
554.174	1	-2
554.344	1	1
554.514	1	12
554.684	1	19
554.854	1	19
555.024	1	4
555.194	1	9
555.364	1	19
555.534	1	12
555.704	1	5
555.874	1	12
556.044	1	10
556.214	1	9
556.384	1	8
556.554	1	16
556.724	1	18
556.894	1	16
557.064	1	17
557.234	1	-1
557.404	1	14
557.573	1	14
557.743	1	11
557.913	1	0
558.083	1	-1
558.253	1	14
558.423	1	9
558.593	1	18
558.763	1	16
558.933	1	7
559.103	1	13
559.273	1	13
559.443	1	14
559.613	1	5
559.783	1	11
559.953	1	3
560.122	1	26
560.292	1	4
560.462	1	5
560.632	1	13
560.802	1	8
560.972	1	9
561.142	1	17
561.312	1	-6
561.482	1	16
561.652	1	17
561.822	1	8
561.992	1	8
562.162	1	7
562.331	1	5
562.501	1	2
562.671	1	12
562.841	1	0
563.011	1	11
563.181	1	10
563.351	1	5
563.521	1	10
563.691	1	-1
563.861	1	7
564.031	1	22
564.201	1	14
564.370	1	4
564.540	1	3
564.710	1	2
564.880	1	10
565.050	1	16
565.220	1	3
565.390	1	2
565.560	1	18
565.730	1	7
565.900	1	12
566.069	1	14
566.239	1	13
566.409	1	7
566.579	1	9
566.749	1	6
566.919	1	10
567.089	1	13
567.259	1	15
567.429	1	0
567.599	1	10
567.768	1	12
567.938	1	9
568.108	1	12
568.278	1	9
568.448	1	6
568.618	1	7
568.788	1	13
568.958	1	6
569.128	1	17
569.297	1	5
569.467	1	0
569.637	1	17
569.807	1	12
569.977	1	15
570.147	1	13
570.317	1	-5
570.487	1	7
570.656	1	14
570.826	1	4
570.996	1	2
571.166	1	11
571.336	1	0
571.506	1	13
571.676	1	17
571.846	1	18
572.015	1	5
572.185	1	5
572.355	1	14
572.525	1	17
572.695	1	1
572.865	1	0
573.035	1	11
573.205	1	11
573.374	1	2
573.544	1	10
573.714	1	19
573.884	1	22
574.054	1	12
574.224	1	4
574.394	1	8
574.563	1	3
574.733	1	9
574.903	1	2
575.073	1	5
575.243	1	13
575.413	1	3
575.583	1	7
575.752	1	18
575.922	1	11
576.092	1	20
576.262	1	10
576.432	1	16
576.602	1	1
576.772	1	17
576.941	1	11
577.111	1	7
577.281	1	4
577.451	1	-1
577.621	1	19
577.791	1	6
577.960	1	5
578.130	1	3
578.300	1	8
578.470	1	17
578.640	1	9
578.810	1	10
578.979	1	5
579.149	1	-5
579.319	1	11
579.489	1	9
579.659	1	2
579.829	1	15
579.998	1	21
580.168	1	12
580.338	1	12
580.508	1	10
580.678	1	7
580.848	1	9
581.017	1	3
581.187	1	7
581.357	1	-5
581.527	1	19
581.697	1	9
581.867	1	12
582.036	1	12
582.206	1	4
582.376	1	16
582.546	1	-3
582.716	1	0
582.885	1	-1
583.055	1	-1
583.225	1	5
583.395	1	14
583.565	1	0
583.735	1	17
583.904	1	11
584.074	1	4
584.244	1	8
584.414	1	-3
584.584	1	13
584.753	1	3
584.923	1	9
585.093	1	9
585.263	1	7
585.433	1	7
585.602	1	-8
585.772	1	11
585.942	1	5
586.112	1	15
586.282	1	-4
586.451	1	8
586.621	1	4
586.791	1	10
586.961	1	4
587.131	1	14
587.300	1	9
587.470	1	13
587.640	1	19
587.810	1	-5
587.980	1	4
588.149	1	9
588.319	1	3
588.489	1	11
588.659	1	7
588.829	1	16
588.998	1	17
589.168	1	11
589.338	1	11
589.508	1	7
589.677	1	0
589.847	1	5
590.017	1	28
590.187	1	6
590.357	1	16
590.526	1	15
590.696	1	8
590.866	1	15
591.036	1	-2
591.205	1	19
591.375	1	-3
591.545	1	4
591.715	1	13
591.885	1	8
592.054	1	15
592.224	1	6
592.394	1	5
592.564	1	4
592.733	1	12
592.903	1	7
593.073	1	7
593.243	1	13
593.412	1	16
593.582	1	8
593.752	1	11
593.922	1	6
594.091	1	11
594.261	1	5
594.431	1	11
594.601	1	15
594.771	1	7
594.940	1	9
595.110	1	-2
595.280	1	9
595.450	1	5
595.619	1	6
595.789	1	12
595.959	1	23
596.129	1	6
596.298	1	12
596.468	1	10
596.638	1	7
596.808	1	12
596.977	1	15
597.147	1	9
597.317	1	-4
597.487	1	10
597.656	1	11
597.826	1	11
597.996	1	10
598.166	1	15
598.335	1	-5
598.505	1	5
598.675	1	2
598.844	1	14
599.014	1	2
599.184	1	11
599.354	1	-8
599.523	1	17
599.693	1	-3
599.863	1	20
600.033	1	8
600.202	1	16
600.372	1	11
600.542	1	15
600.712	1	10
600.881	1	2
601.051	1	22
601.221	1	15
601.390	1	1
601.560	1	12
601.730	1	7
601.900	1	8
602.069	1	9
602.239	1	0
602.409	1	3
602.578	1	14
602.748	1	8
602.918	1	7
603.088	1	22
603.257	1	12
603.427	1	-4
603.597	1	8
603.767	1	7
603.936	1	12
604.106	1	16
604.276	1	3
604.445	1	14
604.615	1	14
604.785	1	2
604.954	1	6
605.124	1	16
605.294	1	2
605.464	1	6
605.633	1	4
605.803	1	22
605.973	1	3
606.142	1	9
606.312	1	14
606.482	1	16
606.652	1	20
606.821	1	-1
606.991	1	19
607.161	1	12
607.330	1	15
607.500	1	8
607.670	1	12
607.839	1	11
608.009	1	19
608.179	1	10
608.348	1	15
608.518	1	6
608.688	1	18
608.858	1	9
609.027	1	6
609.197	1	15
609.367	1	11
609.536	1	11
609.706	1	1
609.876	1	9
610.045	1	15
610.215	1	12
610.385	1	6
610.554	1	7
610.724	1	13
610.894	1	12
611.063	1	12
611.233	1	9
611.403	1	2
611.572	1	11
611.742	1	10
611.912	1	8
612.081	1	8
612.251	1	16
612.421	1	4
612.590	1	9
612.760	1	8
612.930	1	8
613.099	1	18
613.269	1	13
613.439	1	13
613.608	1	8
613.778	1	17
613.948	1	10
614.117	1	16
614.287	1	21
614.457	1	15
614.626	1	10
614.796	1	15
614.966	1	4
615.135	1	15
615.305	1	16
615.475	1	2
615.644	1	3
615.814	1	6
615.984	1	3
616.153	1	11
616.323	1	1
616.493	1	10
616.662	1	23
616.832	1	9
617.002	1	6
617.171	1	12
617.341	1	8
617.511	1	1
617.680	1	0
617.850	1	16
618.019	1	16
618.189	1	15
618.359	1	16
618.528	1	11
618.698	1	15
618.868	1	4
619.037	1	12
619.207	1	-3
619.377	1	1
619.546	1	10
619.716	1	12
619.885	1	9
620.055	1	12
620.225	1	9
620.394	1	4
620.564	1	13
620.734	1	13
620.903	1	-3
621.073	1	19
621.242	1	10
621.412	1	11
621.582	1	14
621.751	1	14
621.921	1	18
622.091	1	9
622.260	1	7
622.430	1	16
622.599	1	8
622.769	1	13
622.939	1	19
623.108	1	19
623.278	1	1
623.448	1	11
623.617	1	10
623.787	1	20
623.956	1	20
624.126	1	2
624.296	1	8
624.465	1	18
624.635	1	19
624.804	1	14
624.974	1	20
625.144	1	18
625.313	1	11
625.483	1	15
625.652	1	4
625.822	1	7
625.992	1	3
626.161	1	18
626.331	1	12
626.501	1	24
626.670	1	6
626.840	1	10
627.009	1	7
627.179	1	24
627.348	1	21
627.518	1	15
627.688	1	8
627.857	1	22
628.027	1	13
628.196	1	18
628.366	1	17
628.536	1	18
628.705	1	8
628.875	1	8
629.044	1	17
629.214	1	20
629.384	1	19
629.553	1	21
629.723	1	21
629.892	1	18
630.062	1	18
630.232	1	7
630.401	1	11
630.571	1	7
630.740	1	10
630.910	1	12
631.079	1	17
631.249	1	16
631.419	1	18
631.588	1	3
631.758	1	25
631.927	1	16
632.097	1	20
632.266	1	14
632.436	1	13
632.606	1	1
632.775	1	12
632.945	1	18
633.114	1	15
633.284	1	29
633.453	1	12
633.623	1	15
633.793	1	11
633.962	1	17
634.132	1	15
634.301	1	18
634.471	1	21
634.640	1	17
634.810	1	9
634.979	1	15
635.149	1	16
635.319	1	21
635.488	1	13
635.658	1	12
635.827	1	14
635.997	1	13
636.166	1	16
636.336	1	8
636.505	1	16
636.675	1	21
636.845	1	14
637.014	1	17
637.184	1	16
637.353	1	14
637.523	1	8
637.692	1	19
637.862	1	20
638.031	1	11
638.201	1	18
638.370	1	20
638.540	1	10
638.710	1	11
638.879	1	10
639.049	1	11
639.218	1	12
639.388	1	16
639.557	1	8
639.727	1	17
639.896	1	12
640.066	1	9
640.235	1	18
640.405	1	19
640.574	1	13
640.744	1	14
640.914	1	22
641.083	1	18
641.253	1	14
641.422	1	17
641.592	1	15
641.761	1	4
641.931	1	20
642.100	1	33
642.270	1	15
642.439	1	19
642.609	1	27
642.778	1	14
642.948	1	7
643.117	1	24
643.287	1	16
643.456	1	11
643.626	1	23
643.795	1	22
643.965	1	21
644.134	1	24
644.304	1	23
644.473	1	21
644.643	1	23
644.812	1	20
644.982	1	18
645.151	1	15
645.321	1	6
645.490	1	29
645.660	1	12
645.829	1	9
645.999	1	21
646.168	1	21
646.338	1	16
646.507	1	15
646.677	1	20
646.846	1	8
647.016	1	9
647.185	1	21
647.355	1	6
647.524	1	29
647.694	1	26
647.863	1	24
648.033	1	19
648.202	1	18
648.372	1	13
648.541	1	12
648.711	1	12
648.880	1	6
649.050	1	11
649.219	1	10
649.389	1	29
649.558	1	15
649.728	1	21
649.897	1	9
650.067	1	23
650.236	1	23
650.406	1	24
650.575	1	16
650.745	1	22
650.914	1	13
651.084	1	10
651.253	1	14
651.423	1	19
651.592	1	18
651.762	1	12
651.931	1	28
652.101	1	20
652.270	1	26
652.440	1	19
652.609	1	17
652.778	1	3
652.948	1	23
653.117	1	31
653.287	1	20
653.456	1	24
653.626	1	28
653.795	1	22
653.965	1	21
654.134	1	31
654.304	1	2
654.473	1	22
654.643	1	23
654.812	1	24
654.982	1	24
655.151	1	13
655.320	1	23
655.490	1	18
655.659	1	15
655.829	1	22
655.998	1	20
656.168	1	19
656.337	1	23
656.507	1	24
656.676	1	32
656.846	1	30
657.015	1	28
657.184	1	29
657.354	1	21
657.523	1	19
657.693	1	33
657.862	1	26
658.032	1	8
658.201	1	25
658.371	1	19
658.540	1	21
658.709	1	28
658.879	1	23
659.048	1	17
659.218	1	24
659.387	1	13
659.557	1	23
659.726	1	17
659.895	1	16
660.065	1	13
660.234	1	23
660.404	1	28
660.573	1	13
660.743	1	21
660.912	1	14
661.081	1	23
661.251	1	18
661.420	1	27
661.590	1	17
661.759	1	28
661.929	1	24
662.098	1	34
662.267	1	19
662.437	1	28
662.606	1	15
662.776	1	17
662.945	1	11
663.115	1	21
663.284	1	15
663.453	1	14
663.623	1	20
663.792	1	28
663.962	1	8
664.131	1	23
664.300	1	32
664.470	1	15
664.639	1	25
664.809	1	12
664.978	1	19
665.148	1	26
665.317	1	16
665.486	1	28
665.656	1	11
665.825	1	25
665.995	1	13
666.164	1	18
666.333	1	24
666.503	1	24
666.672	1	21
666.842	1	15
667.011	1	14
667.180	1	26
667.350	1	26
667.519	1	23
667.689	1	18
667.858	1	18
668.027	1	32
668.197	1	21
668.366	1	15
668.536	1	34
668.705	1	22
668.874	1	30
669.044	1	21
669.213	1	18
669.382	1	19
669.552	1	29
669.721	1	28
669.891	1	35
670.060	1	28
670.229	1	34
670.399	1	17
670.568	1	33
670.738	1	23
670.907	1	14
671.076	1	7
671.246	1	21
671.415	1	23
671.584	1	17
671.754	1	23
671.923	1	20
672.093	1	30
672.262	1	9
672.431	1	27
672.601	1	13
672.770	1	16
672.939	1	30
673.109	1	20
673.278	1	22
673.448	1	35
673.617	1	20
673.786	1	26
