325.333	1	9
325.504	1	0
325.675	1	11
325.846	1	6
326.017	1	6
326.188	1	11
326.359	1	4
326.531	1	-4
326.702	1	-1
326.873	1	17
327.044	1	6
327.215	1	2
327.386	1	14
327.557	1	1
327.728	1	13
327.899	1	2
328.070	1	15
328.241	1	11
328.412	1	-7
328.583	1	8
328.754	1	4
328.926	1	9
329.097	1	-8
329.268	1	10
329.439	1	2
329.610	1	8
329.781	1	3
329.952	1	9
330.123	1	2
330.294	1	1
330.465	1	-1
330.636	1	9
330.807	1	7
330.978	1	3
331.149	1	9
331.320	1	10
331.492	1	12
331.663	1	4
331.834	1	10
332.005	1	12
332.176	1	14
332.347	1	12
332.518	1	-2
332.689	1	11
332.860	1	5
333.031	1	9
333.202	1	4
333.373	1	6
333.544	1	9
333.715	1	6
333.886	1	0
334.057	1	13
334.228	1	-2
334.399	1	8
334.570	1	14
334.741	1	-3
334.912	1	16
335.084	1	21
335.255	1	8
335.426	1	12
335.597	1	4
335.768	1	1
335.939	1	3
336.110	1	4
336.281	1	-3
336.452	1	5
336.623	1	6
336.794	1	11
336.965	1	7
337.136	1	12
337.307	1	0
337.478	1	4
337.649	1	12
337.820	1	-2
337.991	1	7
338.162	1	10
338.333	1	12
338.504	1	16
338.675	1	7
338.846	1	9
339.017	1	5
339.188	1	5
339.359	1	-3
339.530	1	6
339.701	1	10
339.872	1	23
340.043	1	5
340.214	1	6
340.385	1	14
340.556	1	-4
340.727	1	14
340.898	1	16
341.069	1	20
341.240	1	12
341.411	1	18
341.582	1	7
341.753	1	-3
341.924	1	4
342.095	1	10
342.266	1	13
342.437	1	12
342.608	1	5
342.779	1	7
342.950	1	10
343.121	1	15
343.292	1	1
343.463	1	17
343.634	1	4
343.805	1	10
343.976	1	12
344.147	1	8
344.318	1	14
344.489	1	9
344.660	1	16
344.831	1	14
345.002	1	14
345.173	1	21
345.344	1	8
345.515	1	10
345.686	1	8
345.857	1	15
346.028	1	9
346.199	1	7
346.370	1	2
346.541	1	10
346.712	1	9
346.883	1	20
347.054	1	10
347.225	1	18
347.396	1	13
347.567	1	14
347.738	1	9
347.909	1	24
348.080	1	4
348.251	1	22
348.422	1	24
348.593	1	8
348.764	1	13
348.935	1	19
349.106	1	11
349.277	1	16
349.448	1	19
349.619	1	16
349.790	1	10
349.961	1	21
350.132	1	23
350.303	1	14
350.474	1	26
350.645	1	16
350.816	1	21
350.987	1	11
351.157	1	8
351.328	1	21
351.499	1	18
351.670	1	15
351.841	1	19
352.012	1	22
352.183	1	18
352.354	1	15
352.525	1	29
352.696	1	26
352.867	1	9
353.038	1	15
353.209	1	19
353.380	1	13
353.551	1	5
353.722	1	21
353.893	1	20
354.064	1	24
354.235	1	22
354.406	1	17
354.576	1	18
354.747	1	16
354.918	1	19
355.089	1	16
355.260	1	18
355.431	1	23
355.602	1	14
355.773	1	25
355.944	1	28
356.115	1	18
356.286	1	18
356.457	1	17
356.628	1	12
356.799	1	21
356.970	1	35
357.141	1	10
357.311	1	14
357.482	1	21
357.653	1	20
357.824	1	14
357.995	1	15
358.166	1	-1
358.337	1	15
358.508	1	18
358.679	1	24
358.850	1	23
359.021	1	22
359.192	1	22
359.363	1	11
359.533	1	15
359.704	1	24
359.875	1	17
360.046	1	16
360.217	1	0
360.388	1	29
360.559	1	6
360.730	1	25
360.901	1	17
361.072	1	30
361.243	1	26
361.414	1	18
361.584	1	17
361.755	1	24
361.926	1	14
362.097	1	10
362.268	1	24
362.439	1	8
362.610	1	25
362.781	1	10
362.952	1	9
363.123	1	23
363.293	1	8
363.464	1	32
363.635	1	15
363.806	1	15
363.977	1	27
364.148	1	13
364.319	1	7
364.490	1	21
364.661	1	23
364.832	1	24
365.002	1	22
365.173	1	17
365.344	1	26
365.515	1	12
365.686	1	15
365.857	1	17
366.028	1	29
366.199	1	11
366.370	1	26
366.540	1	19
366.711	1	7
366.882	1	10
367.053	1	10
367.224	1	30
367.395	1	23
367.566	1	18
367.737	1	23
367.908	1	21
368.078	1	20
368.249	1	33
368.420	1	18
368.591	1	13
368.762	1	19
368.933	1	15
369.104	1	6
369.274	1	12
369.445	1	17
369.616	1	18
369.787	1	29
369.958	1	26
370.129	1	10
370.300	1	24
370.471	1	21
370.641	1	15
370.812	1	19
370.983	1	22
371.154	1	5
371.325	1	24
371.496	1	20
371.667	1	16
371.837	1	22
372.008	1	25
372.179	1	21
372.350	1	28
372.521	1	19
372.692	1	14
372.863	1	20
373.033	1	12
373.204	1	15
373.375	1	22
373.546	1	25
373.717	1	21
373.888	1	20
374.059	1	28
374.229	1	25
374.400	1	11
374.571	1	17
374.742	1	28
374.913	1	35
375.084	1	26
375.254	1	21
375.425	1	27
375.596	1	27
375.767	1	24
375.938	1	26
376.109	1	27
376.279	1	29
376.450	1	22
376.621	1	29
376.792	1	24
376.963	1	17
377.134	1	30
377.304	1	25
377.475	1	20
377.646	1	18
377.817	1	19
377.988	1	27
378.159	1	22
378.329	1	29
378.500	1	20
378.671	1	24
378.842	1	16
379.013	1	15
379.184	1	29
379.354	1	25
379.525	1	24
379.696	1	32
379.867	1	27
380.038	1	21
380.209	1	23
380.379	1	32
380.550	1	25
380.721	1	22
380.892	1	27
381.063	1	30
381.233	1	25
381.404	1	19
381.575	1	34
381.746	1	30
381.917	1	24
382.087	1	35
382.258	1	22
382.429	1	31
382.600	1	36
382.771	1	20
382.941	1	16
383.112	1	25
383.283	1	25
383.454	1	27
383.625	1	23
383.795	1	28
383.966	1	25
384.137	1	33
384.308	1	30
384.479	1	34
384.649	1	29
384.820	1	28
384.991	1	27
385.162	1	36
385.333	1	22
385.503	1	22
385.674	1	25
385.845	1	29
386.016	1	32
386.187	1	33
386.357	1	33
386.528	1	38
386.699	1	29
386.870	1	32
387.041	1	37
387.211	1	32
387.382	1	41
387.553	1	34
387.724	1	20
387.894	1	39
388.065	1	39
388.236	1	31
388.407	1	34
388.578	1	28
388.748	1	21
388.919	1	41
389.090	1	25
389.261	1	28
389.431	1	38
389.602	1	39
389.773	1	27
389.944	1	35
390.114	1	29
390.285	1	26
390.456	1	39
390.627	1	30
390.798	1	36
390.968	1	22
391.139	1	39
391.310	1	32
391.481	1	37
391.651	1	43
391.822	1	23
391.993	1	33
392.164	1	31
392.334	1	29
392.505	1	25
392.676	1	37
392.847	1	30
393.017	1	37
393.188	1	35
393.359	1	34
393.530	1	32
393.700	1	30
393.871	1	26
394.042	1	34
394.213	1	29
394.383	1	27
394.554	1	29
394.725	1	37
394.896	1	32
395.066	1	38
395.237	1	34
395.408	1	28
395.579	1	29
395.749	1	46
395.920	1	34
396.091	1	42
396.262	1	30
396.432	1	33
396.603	1	34
396.774	1	48
396.945	1	31
397.115	1	28
397.286	1	26
397.457	1	36
397.627	1	36
397.798	1	36
397.969	1	22
398.140	1	24
398.310	1	31
398.481	1	36
398.652	1	32
398.823	1	29
398.993	1	31
399.164	1	35
399.335	1	44
399.505	1	33
399.676	1	27
399.847	1	38
400.018	1	31
400.188	1	27
400.359	1	46
400.530	1	33
400.700	1	27
400.871	1	29
401.042	1	33
401.213	1	25
401.383	1	27
401.554	1	44
401.725	1	31
401.895	1	21
402.066	1	41
402.237	1	36
402.408	1	24
402.578	1	44
402.749	1	38
402.920	1	36
403.090	1	29
403.261	1	31
403.432	1	34
403.603	1	46
403.773	1	42
403.944	1	44
404.115	1	46
404.285	1	47
404.456	1	30
404.627	1	27
404.797	1	26
404.968	1	34
405.139	1	32
405.310	1	41
405.480	1	38
405.651	1	35
405.822	1	36
405.992	1	24
406.163	1	29
406.334	1	26
406.504	1	32
406.675	1	49
406.846	1	32
407.016	1	41
407.187	1	38
407.358	1	34
407.528	1	38
407.699	1	29
407.870	1	30
408.041	1	37
408.211	1	50
408.382	1	24
408.553	1	25
408.723	1	41
408.894	1	35
409.065	1	42
409.235	1	32
409.406	1	44
409.577	1	29
409.747	1	49
409.918	1	32
410.089	1	27
410.259	1	30
410.430	1	47
410.601	1	30
410.771	1	28
410.942	1	45
411.113	1	39
411.283	1	33
411.454	1	36
411.625	1	32
411.795	1	39
411.966	1	41
412.137	1	40
412.307	1	33
412.478	1	43
412.649	1	36
412.819	1	36
412.990	1	27
413.161	1	39
413.331	1	29
413.502	1	54
413.672	1	39
413.843	1	34
414.014	1	29
414.184	1	42
414.355	1	30
414.526	1	38
414.696	1	41
414.867	1	39
415.038	1	18
415.208	1	37
415.379	1	39
415.550	1	33
415.720	1	25
415.891	1	33
416.062	1	26
416.232	1	26
416.403	1	41
416.573	1	36
416.744	1	21
416.915	1	44
417.085	1	38
417.256	1	35
417.427	1	39
417.597	1	43
417.768	1	35
417.939	1	34
418.109	1	38
418.280	1	38
418.450	1	34
418.621	1	19
418.792	1	33
418.962	1	39
419.133	1	49
419.304	1	29
419.474	1	26
419.645	1	35
419.815	1	32
419.986	1	38
420.157	1	26
420.327	1	38
420.498	1	43
420.669	1	29
420.839	1	42
421.010	1	45
421.180	1	36
421.351	1	33
421.522	1	37
421.692	1	41
421.863	1	32
422.033	1	37
422.204	1	46
422.375	1	37
422.545	1	48
422.716	1	36
422.886	1	41
423.057	1	43
423.228	1	31
423.398	1	37
423.569	1	30
423.740	1	22
423.910	1	27
424.081	1	30
424.251	1	28
424.422	1	39
424.593	1	29
424.763	1	42
424.934	1	42
425.104	1	32
425.275	1	31
425.445	1	23
425.616	1	33
425.787	1	23
425.957	1	25
426.128	1	37
426.298	1	28
426.469	1	22
426.640	1	32
426.810	1	39
426.981	1	36
427.151	1	41
427.322	1	40
427.493	1	31
427.663	1	32
427.834	1	33
428.004	1	35
428.175	1	27
428.345	1	34
428.516	1	33
428.687	1	31
428.857	1	26
429.028	1	30
429.198	1	32
429.369	1	35
429.540	1	30
429.710	1	37
429.881	1	41
430.051	1	31
430.222	1	30
430.392	1	29
430.563	1	44
430.734	1	39
430.904	1	32
431.075	1	40
431.245	1	34
431.416	1	22
431.586	1	41
431.757	1	39
431.927	1	33
432.098	1	38
432.269	1	38
432.439	1	41
432.610	1	41
432.780	1	34
432.951	1	34
433.121	1	39
433.292	1	29
433.462	1	37
433.633	1	35
433.804	1	34
433.974	1	28
434.145	1	50
434.315	1	25
434.486	1	33
434.656	1	45
434.827	1	23
434.997	1	27
435.168	1	38
435.339	1	33
435.509	1	33
435.680	1	37
435.850	1	40
436.021	1	32
436.191	1	26
436.362	1	33
436.532	1	39
436.703	1	23
436.873	1	34
437.044	1	23
437.214	1	28
437.385	1	28
437.556	1	24
437.726	1	31
437.897	1	37
438.067	1	25
438.238	1	29
438.408	1	36
438.579	1	27
438.749	1	22
438.920	1	37
439.090	1	38
439.261	1	15
439.431	1	27
439.602	1	29
439.772	1	36
439.943	1	39
440.113	1	38
440.284	1	37
440.455	1	33
440.625	1	27
440.796	1	28
440.966	1	32
441.137	1	19
441.307	1	16
441.478	1	38
441.648	1	31
441.819	1	24
441.989	1	39
442.160	1	29
442.330	1	29
442.501	1	32
442.671	1	15
442.842	1	13
443.012	1	18
443.183	1	31
443.353	1	20
443.524	1	26
443.694	1	34
443.865	1	25
444.035	1	36
444.206	1	28
444.376	1	21
444.547	1	34
444.717	1	23
444.888	1	19
445.058	1	32
445.229	1	33
445.399	1	21
445.570	1	22
445.740	1	23
445.911	1	28
446.081	1	16
446.252	1	27
446.422	1	23
446.593	1	20
446.763	1	13
446.934	1	21
447.104	1	24
447.275	1	22
447.445	1	26
447.616	1	30
447.786	1	22
447.957	1	30
448.127	1	22
448.298	1	32
448.468	1	12
448.639	1	18
448.809	1	25
448.979	1	24
449.150	1	28
449.320	1	36
449.491	1	25
449.661	1	15
449.832	1	24
450.002	1	37
450.173	1	20
450.343	1	16
450.514	1	23
450.684	1	18
450.855	1	27
451.025	1	23
451.196	1	24
451.366	1	27
451.537	1	16
451.707	1	13
451.878	1	20
452.048	1	39
452.218	1	23
452.389	1	21
452.559	1	25
452.730	1	28
452.900	1	34
453.071	1	15
453.241	1	23
453.412	1	33
453.582	1	17
453.753	1	32
453.923	1	34
454.093	1	27
454.264	1	28
454.434	1	23
454.605	1	14
454.775	1	26
454.946	1	19
455.116	1	22
455.287	1	16
455.457	1	16
455.628	1	16
455.798	1	19
455.968	1	31
456.139	1	23
456.309	1	19
456.480	1	5
456.650	1	21
456.821	1	22
456.991	1	26
457.161	1	18
457.332	1	26
457.502	1	9
457.673	1	31
457.843	1	22
458.014	1	21
458.184	1	19
458.355	1	19
458.525	1	14
458.695	1	22
458.866	1	27
459.036	1	19
459.207	1	20
459.377	1	16
459.548	1	37
459.718	1	18
459.888	1	17
460.059	1	30
460.229	1	29
460.400	1	25
460.570	1	29
460.740	1	25
460.911	1	21
461.081	1	18
461.252	1	17
461.422	1	16
461.593	1	16
461.763	1	12
461.933	1	27
462.104	1	15
462.274	1	21
462.445	1	26
462.615	1	19
462.785	1	12
462.956	1	22
463.126	1	29
463.297	1	11
463.467	1	18
463.638	1	22
463.808	1	5
463.978	1	22
464.149	1	16
464.319	1	11
464.490	1	27
464.660	1	8
464.830	1	16
465.001	1	16
465.171	1	15
465.342	1	15
465.512	1	11
465.682	1	21
465.853	1	25
466.023	1	15
466.194	1	17
466.364	1	32
466.534	1	18
466.705	1	18
466.875	1	13
467.045	1	14
467.216	1	30
467.386	1	22
467.557	1	15
467.727	1	4
467.897	1	5
468.068	1	20
468.238	1	10
468.409	1	20
468.579	1	20
468.749	1	15
468.920	1	10
469.090	1	17
469.260	1	8
469.431	1	10
469.601	1	17
469.772	1	7
469.942	1	4
470.112	1	17
470.283	1	7
470.453	1	10
470.623	1	17
470.794	1	14
470.964	1	16
471.135	1	23
471.305	1	11
471.475	1	27
471.646	1	6
471.816	1	10
471.986	1	19
472.157	1	16
472.327	1	7
472.497	1	20
472.668	1	14
472.838	1	13
473.009	1	14
473.179	1	9
473.349	1	2
473.520	1	20
473.690	1	13
473.860	1	15
474.031	1	14
474.201	1	13
474.371	1	27
474.542	1	19
474.712	1	10
474.882	1	19
475.053	1	27
475.223	1	10
475.394	1	27
475.564	1	5
475.734	1	17
475.905	1	25
476.075	1	6
476.245	1	24
476.416	1	10
476.586	1	26
476.756	1	16
476.927	1	16
477.097	1	19
477.267	1	11
477.438	1	20
477.608	1	14
477.778	1	23
477.949	1	17
478.119	1	16
478.289	1	20
478.460	1	28
478.630	1	10
478.800	1	20
478.971	1	13
479.141	1	14
479.311	1	6
479.482	1	10
479.652	1	11
479.822	1	17
479.993	1	15
480.163	1	17
480.333	1	15
480.504	1	22
480.674	1	20
480.844	1	7
481.015	1	18
481.185	1	7
481.355	1	22
481.525	1	5
481.696	1	24
481.866	1	19
482.036	1	15
482.207	1	14
482.377	1	14
482.547	1	13
482.718	1	9
482.888	1	18
483.058	1	21
483.229	1	10
483.399	1	14
483.569	1	15
483.740	1	20
483.910	1	19
484.080	1	18
484.250	1	14
484.421	1	21
484.591	1	13
484.761	1	11
484.932	1	15
485.102	1	21
485.272	1	7
485.443	1	20
485.613	1	9
485.783	1	17
485.953	1	7
486.124	1	25
486.294	1	23
486.464	1	13
486.635	1	13
486.805	1	24
486.975	1	14
487.146	1	11
487.316	1	11
487.486	1	14
487.656	1	9
487.827	1	11
487.997	1	1
488.167	1	19
488.338	1	23
488.508	1	11
488.678	1	10
488.848	1	23
489.019	1	0
489.189	1	13
489.359	1	22
489.529	1	14
489.700	1	5
489.870	1	23
490.040	1	7
490.211	1	8
490.381	1	16
490.551	1	8
490.721	1	14
490.892	1	12
491.062	1	18
491.232	1	14
491.402	1	3
491.573	1	0
491.743	1	11
491.913	1	10
492.084	1	20
492.254	1	-1
492.424	1	10
492.594	1	23
492.765	1	6
492.935	1	7
493.105	1	14
493.275	1	16
493.446	1	24
493.616	1	16
493.786	1	12
493.956	1	12
494.127	1	2
494.297	1	8
494.467	1	4
494.637	1	12
494.808	1	1
494.978	1	0
495.148	1	17
495.318	1	12
495.489	1	7
495.659	1	12
495.829	1	9
495.999	1	-1
496.170	1	14
496.340	1	16
496.510	1	17
496.680	1	8
496.851	1	4
497.021	1	11
497.191	1	1
497.361	1	2
497.532	1	1
497.702	1	6
497.872	1	5
498.042	1	22
498.213	1	15
498.383	1	14
498.553	1	8
498.723	1	8
498.894	1	1
499.064	1	12
499.234	1	10
499.404	1	13
499.574	1	10
499.745	1	14
499.915	1	11
500.085	1	8
500.255	1	14
500.426	1	4
500.596	1	12
500.766	1	9
500.936	1	-3
501.106	1	4
501.277	1	5
501.447	1	11
501.617	1	13
501.787	1	12
501.958	1	0
502.128	1	5
502.298	1	3
502.468	1	11
502.638	1	8
502.809	1	12
502.979	1	8
503.149	1	3
503.319	1	0
503.489	1	2
503.660	1	11
503.830	1	13
504.000	1	17
504.170	1	9
504.340	1	9
504.511	1	16
504.681	1	5
504.851	1	9
505.021	1	8
505.192	1	1
505.362	1	16
505.532	1	10
505.702	1	17
505.872	1	11
506.043	1	10
506.213	1	11
506.383	1	12
506.553	1	12
506.723	1	11
506.893	1	10
507.064	1	10
507.234	1	8
507.404	1	2
507.574	1	11
507.744	1	7
507.915	1	7
508.085	1	15
508.255	1	9
508.425	1	3
508.595	1	13
508.766	1	13
508.936	1	-1
509.106	1	13
509.276	1	16
509.446	1	-2
509.616	1	9
509.787	1	17
509.957	1	12
510.127	1	3
510.297	1	9
510.467	1	-3
510.638	1	11
510.808	1	-7
510.978	1	-6
511.148	1	7
511.318	1	2
511.488	1	2
511.659	1	9
511.829	1	-2
511.999	1	-4
512.169	1	11
512.339	1	-1
512.509	1	8
512.680	1	-3
512.850	1	4
513.020	1	18
513.190	1	8
513.360	1	4
513.530	1	9
513.700	1	9
513.871	1	6
514.041	1	2
514.211	1	17
514.381	1	9
514.551	1	9
514.721	1	0
514.892	1	-1
515.062	1	7
515.232	1	6
515.402	1	-10
515.572	1	3
515.742	1	2
515.912	1	4
516.083	1	13
516.253	1	6
516.423	1	3
516.593	1	2
516.763	1	18
516.933	1	-2
517.104	1	11
517.274	1	7
517.444	1	14
517.614	1	2
517.784	1	6
517.954	1	-1
518.124	1	6
518.294	1	7
518.465	1	-2
518.635	1	4
518.805	1	-1
518.975	1	10
519.145	1	0
519.315	1	5
519.485	1	4
519.656	1	11
519.826	1	7
519.996	1	-7
520.166	1	0
520.336	1	14
520.506	1	10
520.676	1	2
520.846	1	15
521.017	1	12
521.187	1	7
521.357	1	15
521.527	1	2
521.697	1	5
521.867	1	1
522.037	1	12
522.207	1	18
522.377	1	11
522.548	1	1
522.718	1	6
522.888	1	21
523.058	1	4
523.228	1	11
523.398	1	7
523.568	1	5
523.738	1	7
523.909	1	11
524.079	1	9
524.249	1	6
524.419	1	7
524.589	1	2
524.759	1	-11
524.929	1	-3
525.099	1	6
525.269	1	20
525.439	1	6
525.610	1	19
525.780	1	9
525.950	1	3
526.120	1	4
526.290	1	3
526.460	1	2
526.630	1	10
526.800	1	-1
526.970	1	3
527.140	1	11
527.311	1	-7
527.481	1	-7
527.651	1	14
527.821	1	5
527.991	1	15
528.161	1	12
528.331	1	3
528.501	1	4
528.671	1	-3
528.841	1	6
529.011	1	12
529.181	1	7
529.352	1	0
529.522	1	6
529.692	1	9
529.862	1	2
530.032	1	-2
530.202	1	8
530.372	1	8
530.542	1	1
530.712	1	5
530.882	1	12
531.052	1	9
531.222	1	-1
531.392	1	5
531.563	1	6
531.733	1	5
531.903	1	4
532.073	1	11
532.243	1	4
532.413	1	4
532.583	1	1
532.753	1	5
532.923	1	0
533.093	1	4
533.263	1	0
533.433	1	0
533.603	1	10
533.773	1	2
533.943	1	6
534.113	1	5
534.284	1	3
534.454	1	9
534.624	1	14
534.794	1	1
534.964	1	4
535.134	1	3
535.304	1	-2
535.474	1	16
535.644	1	-2
535.814	1	6
535.984	1	9
536.154	1	-2
536.324	1	1
536.494	1	7
536.664	1	-3
536.834	1	4
537.004	1	4
537.174	1	8
537.344	1	6
537.514	1	-4
537.685	1	4
537.855	1	16
538.025	1	10
538.195	1	9
538.365	1	12
538.535	1	-1
538.705	1	2
538.875	1	10
539.045	1	14
539.215	1	8
539.385	1	7
539.555	1	13
539.725	1	7
539.895	1	1
540.065	1	10
540.235	1	8
540.405	1	0
540.575	1	4
540.745	1	12
540.915	1	11
541.085	1	7
541.255	1	-6
541.425	1	3
541.595	1	4
541.765	1	11
541.935	1	7
542.105	1	-7
542.275	1	7
542.445	1	3
542.615	1	11
542.785	1	13
542.955	1	0
543.125	1	2
543.295	1	6
543.465	1	4
543.635	1	2
543.805	1	19
543.975	1	7
544.145	1	11
544.315	1	4
544.485	1	8
544.655	1	10
544.825	1	-7
544.995	1	2
545.165	1	1
545.335	1	3
545.505	1	1
545.675	1	3
545.845	1	7
546.015	1	17
546.185	1	19
546.355	1	-2
546.525	1	2
546.695	1	2
546.865	1	2
547.035	1	21
547.205	1	-4
547.375	1	4
547.545	1	14
547.715	1	2
547.885	1	12
548.055	1	3
548.225	1	0
548.395	1	0
548.565	1	10
548.735	1	6
548.905	1	1
549.075	1	5
549.245	1	-2
549.415	1	-7
549.585	1	9
549.755	1	11
549.925	1	1
550.095	1	-5
550.265	1	3
550.435	1	-4
550.605	1	-7
550.775	1	5
550.945	1	16
551.115	1	0
551.285	1	6
551.455	1	3
551.625	1	12
551.795	1	5
551.965	1	-5
552.135	1	10
552.305	1	3
552.475	1	-8
552.645	1	4
552.815	1	4
552.985	1	12
553.155	1	10
553.325	1	13
553.495	1	2
553.665	1	0
553.835	1	-6
554.004	1	1
554.174	1	10
554.344	1	8
554.514	1	0
554.684	1	1
554.854	1	0
555.024	1	2
555.194	1	0
555.364	1	3
555.534	1	8
555.704	1	9
555.874	1	9
556.044	1	4
556.214	1	-9
556.384	1	4
556.554	1	11
556.724	1	4
556.894	1	-5
557.064	1	6
557.234	1	-5
557.404	1	8
557.573	1	-2
557.743	1	5
557.913	1	2
558.083	1	-8
558.253	1	9
558.423	1	6
558.593	1	7
558.763	1	-7
558.933	1	3
559.103	1	10
559.273	1	0
559.443	1	2
559.613	1	1
559.783	1	0
559.953	1	7
560.122	1	9
560.292	1	7
560.462	1	0
560.632	1	1
560.802	1	3
560.972	1	3
561.142	1	-2
561.312	1	1
561.482	1	1
561.652	1	11
561.822	1	7
561.992	1	3
562.162	1	9
562.331	1	7
562.501	1	-3
562.671	1	-1
562.841	1	-8
563.011	1	-9
563.181	1	-6
563.351	1	-2
563.521	1	5
563.691	1	2
563.861	1	9
564.031	1	9
564.201	1	4
564.370	1	-10
564.540	1	4
564.710	1	-9
564.880	1	12
565.050	1	8
565.220	1	-11
565.390	1	9
565.560	1	7
565.730	1	1
565.900	1	9
566.069	1	10
566.239	1	4
566.409	1	5
566.579	1	4
566.749	1	-3
566.919	1	3
567.089	1	9
567.259	1	9
567.429	1	2
567.599	1	5
567.768	1	2
567.938	1	0
568.108	1	0
568.278	1	5
568.448	1	-10
568.618	1	-1
568.788	1	2
568.958	1	-2
569.128	1	4
569.297	1	6
569.467	1	9
569.637	1	13
569.807	1	4
569.977	1	-2
570.147	1	12
570.317	1	-7
570.487	1	2
570.656	1	5
570.826	1	1
570.996	1	-5
571.166	1	14
571.336	1	-5
571.506	1	10
571.676	1	-4
571.846	1	8
572.015	1	-5
572.185	1	-2
572.355	1	3
572.525	1	3
572.695	1	0
572.865	1	-3
573.035	1	-2
573.205	1	-3
573.374	1	-4
573.544	1	2
573.714	1	8
573.884	1	12
574.054	1	2
574.224	1	0
574.394	1	-5
574.563	1	-2
574.733	1	3
574.903	1	2
575.073	1	-8
575.243	1	0
575.413	1	11
575.583	1	-4
575.752	1	11
575.922	1	9
576.092	1	6
576.262	1	2
576.432	1	-1
576.602	1	-10
576.772	1	11
576.941	1	17
577.111	1	0
577.281	1	-9
577.451	1	1
577.621	1	6
577.791	1	10
577.960	1	2
578.130	1	10
578.300	1	3
578.470	1	11
578.640	1	0
578.810	1	-4
578.979	1	4
579.149	1	-1
579.319	1	-6
579.489	1	9
579.659	1	5
579.829	1	6
579.998	1	13
580.168	1	14
580.338	1	2
580.508	1	2
580.678	1	-4
580.848	1	0
581.017	1	8
581.187	1	-3
581.357	1	-5
581.527	1	13
581.697	1	10
581.867	1	9
582.036	1	1
582.206	1	-6
582.376	1	1
582.546	1	-8
582.716	1	-7
582.885	1	-6
583.055	1	-3
583.225	1	-7
583.395	1	8
583.565	1	-5
583.735	1	9
583.904	1	0
584.074	1	8
584.244	1	0
584.414	1	3
584.584	1	4
584.753	1	-4
584.923	1	0
585.093	1	1
585.263	1	-1
585.433	1	1
585.602	1	-7
585.772	1	-8
585.942	1	4
586.112	1	5
586.282	1	4
586.451	1	-1
586.621	1	-3
586.791	1	2
586.961	1	1
587.131	1	13
587.300	1	-3
587.470	1	8
587.640	1	8
587.810	1	-5
587.980	1	7
588.149	1	5
588.319	1	4
588.489	1	0
588.659	1	1
588.829	1	4
588.998	1	9
589.168	1	5
589.338	1	-1
589.508	1	-2
589.677	1	-5
589.847	1	1
590.017	1	11
590.187	1	-1
590.357	1	6
590.526	1	15
590.696	1	4
590.866	1	16
591.036	1	-3
591.205	1	18
591.375	1	-4
591.545	1	7
591.715	1	8
591.885	1	4
592.054	1	4
592.224	1	8
592.394	1	5
592.564	1	1
592.733	1	4
592.903	1	6
593.073	1	11
593.243	1	2
593.412	1	-3
593.582	1	1
593.752	1	-2
593.922	1	2
594.091	1	4
594.261	1	-3
594.431	1	7
594.601	1	7
594.771	1	13
594.940	1	1
595.110	1	3
595.280	1	3
595.450	1	2
595.619	1	10
595.789	1	3
595.959	1	2
596.129	1	1
596.298	1	3
596.468	1	2
596.638	1	10
596.808	1	-2
596.977	1	11
597.147	1	8
597.317	1	-8
597.487	1	10
597.656	1	6
597.826	1	4
597.996	1	-4
598.166	1	3
598.335	1	-6
598.505	1	6
598.675	1	-6
598.844	1	2
599.014	1	5
599.184	1	5
599.354	1	-6
599.523	1	6
599.693	1	-2
599.863	1	5
600.033	1	3
600.202	1	11
600.372	1	0
600.542	1	7
600.712	1	-6
600.881	1	0
601.051	1	14
601.221	1	4
601.390	1	3
601.560	1	10
601.730	1	-1
601.900	1	-1
602.069	1	7
602.239	1	-5
602.409	1	-5
602.578	1	-6
602.748	1	9
602.918	1	1
603.088	1	6
603.257	1	6
603.427	1	-5
603.597	1	0
603.767	1	5
603.936	1	7
604.106	1	8
604.276	1	2
604.445	1	11
604.615	1	-3
604.785	1	-6
604.954	1	-1
605.124	1	10
605.294	1	0
605.464	1	-5
605.633	1	8
605.803	1	11
605.973	1	5
606.142	1	3
606.312	1	5
606.482	1	-4
606.652	1	18
606.821	1	-2
606.991	1	-1
607.161	1	-6
607.330	1	8
607.500	1	1
607.670	1	1
607.839	1	14
608.009	1	16
608.179	1	6
608.348	1	4
608.518	1	8
608.688	1	9
608.858	1	-5
609.027	1	-10
609.197	1	13
609.367	1	13
609.536	1	22
609.706	1	1
609.876	1	3
610.045	1	-5
610.215	1	3
610.385	1	-5
610.554	1	10
610.724	1	6
610.894	1	2
611.063	1	3
611.233	1	0
611.403	1	3
611.572	1	0
611.742	1	12
611.912	1	8
612.081	1	1
612.251	1	-1
612.421	1	3
612.590	1	1
612.760	1	1
612.930	1	6
613.099	1	5
613.269	1	13
613.439	1	-3
613.608	1	-8
613.778	1	10
613.948	1	8
614.117	1	-2
614.287	1	6
614.457	1	1
614.626	1	0
614.796	1	13
614.966	1	-2
615.135	1	0
615.305	1	11
615.475	1	-6
615.644	1	9
615.814	1	6
615.984	1	-4
616.153	1	0
616.323	1	-4
616.493	1	3
616.662	1	6
616.832	1	5
617.002	1	-3
617.171	1	6
617.341	1	0
617.511	1	4
617.680	1	3
617.850	1	7
618.019	1	17
618.189	1	16
618.359	1	-2
618.528	1	4
618.698	1	13
618.868	1	-3
619.037	1	2
619.207	1	-3
619.377	1	5
619.546	1	9
619.716	1	6
619.885	1	1
620.055	1	-6
620.225	1	8
620.394	1	-2
620.564	1	11
620.734	1	4
620.903	1	1
621.073	1	9
621.242	1	10
621.412	1	7
621.582	1	-6
621.751	1	11
621.921	1	12
622.091	1	0
622.260	1	3
622.430	1	9
622.599	1	7
622.769	1	5
622.939	1	12
623.108	1	-1
623.278	1	-1
623.448	1	0
623.617	1	2
623.787	1	5
623.956	1	7
624.126	1	-3
624.296	1	3
624.465	1	6
624.635	1	6
624.804	1	-2
624.974	1	7
625.144	1	13
625.313	1	-9
625.483	1	10
625.652	1	3
625.822	1	8
625.992	1	1
626.161	1	17
626.331	1	10
626.501	1	7
626.670	1	8
626.840	1	6
627.009	1	-8
627.179	1	15
627.348	1	13
627.518	1	9
627.688	1	6
627.857	1	13
628.027	1	0
628.196	1	3
628.366	1	20
628.536	1	-1
628.705	1	4
628.875	1	1
629.044	1	-9
629.214	1	3
629.384	1	12
629.553	1	16
629.723	1	7
629.892	1	-1
630.062	1	-1
630.232	1	0
630.401	1	18
630.571	1	-3
630.740	1	5
630.910	1	10
631.079	1	8
631.249	1	10
631.419	1	11
631.588	1	-8
631.758	1	2
631.927	1	-1
632.097	1	8
632.266	1	-4
632.436	1	7
632.606	1	-1
632.775	1	12
632.945	1	7
633.114	1	8
633.284	1	6
633.453	1	3
633.623	1	-4
633.793	1	14
633.962	1	9
634.132	1	10
634.301	1	2
634.471	1	12
634.640	1	7
634.810	1	5
634.979	1	10
635.149	1	9
635.319	1	9
635.488	1	13
635.658	1	5
635.827	1	-3
635.997	1	5
636.166	1	4
636.336	1	7
636.505	1	11
636.675	1	1
636.845	1	8
637.014	1	9
637.184	1	7
637.353	1	12
637.523	1	7
637.692	1	7
637.862	1	0
638.031	1	11
638.201	1	7
638.370	1	6
638.540	1	-3
638.710	1	0
638.879	1	-5
639.049	1	2
639.218	1	4
639.388	1	9
639.557	1	3
639.727	1	6
639.896	1	4
640.066	1	3
640.235	1	8
640.405	1	12
640.574	1	1
640.744	1	-1
640.914	1	3
641.083	1	3
641.253	1	0
641.422	1	2
641.592	1	13
641.761	1	2
641.931	1	6
642.100	1	21
642.270	1	4
642.439	1	12
642.609	1	10
642.778	1	7
642.948	1	2
643.117	1	12
643.287	1	6
643.456	1	-5
643.626	1	13
643.795	1	0
643.965	1	6
644.134	1	-5
644.304	1	3
644.473	1	12
644.643	1	11
644.812	1	4
644.982	1	-1
645.151	1	8
645.321	1	3
645.490	1	11
645.660	1	1
645.829	1	-7
645.999	1	7
646.168	1	8
646.338	1	12
646.507	1	-3
646.677	1	6
646.846	1	-2
647.016	1	-4
647.185	1	10
647.355	1	-8
647.524	1	5
647.694	1	6
647.863	1	7
648.033	1	8
648.202	1	12
648.372	1	1
648.541	1	2
648.711	1	4
648.880	1	-3
649.050	1	-8
649.219	1	6
649.389	1	19
649.558	1	2
649.728	1	0
649.897	1	0
650.067	1	-2
650.236	1	8
650.406	1	12
650.575	1	5
650.745	1	7
650.914	1	2
651.084	1	-5
651.253	1	0
651.423	1	4
651.592	1	5
651.762	1	-4
651.931	1	12
652.101	1	10
652.270	1	-1
652.440	1	3
652.609	1	1
652.778	1	-6
652.948	1	1
653.117	1	8
653.287	1	3
653.456	1	7
653.626	1	20
653.795	1	2
653.965	1	10
654.134	1	19
654.304	1	-13
654.473	1	9
654.643	1	5
654.812	1	5
654.982	1	1
655.151	1	-2
655.320	1	2
655.490	1	-8
655.659	1	10
655.829	1	0
655.998	1	0
656.168	1	0
656.337	1	9
656.507	1	13
656.676	1	9
656.846	1	11
657.015	1	7
657.184	1	11
657.354	1	5
657.523	1	12
657.693	1	15
657.862	1	7
658.032	1	-3
658.201	1	8
658.371	1	14
658.540	1	4
658.709	1	9
658.879	1	15
659.048	1	2
659.218	1	-4
659.387	1	4
659.557	1	8
659.726	1	2
659.895	1	10
660.065	1	-1
660.234	1	-3
660.404	1	3
660.573	1	-7
660.743	1	4
660.912	1	8
661.081	1	17
661.251	1	3
661.420	1	6
661.590	1	9
661.759	1	3
661.929	1	16
662.098	1	25
662.267	1	3
662.437	1	7
662.606	1	5
662.776	1	8
662.945	1	6
663.115	1	10
663.284	1	0
663.453	1	3
663.623	1	3
663.792	1	7
663.962	1	6
664.131	1	13
664.300	1	12
664.470	1	0
664.639	1	6
664.809	1	-4
664.978	1	11
665.148	1	3
665.317	1	3
665.486	1	14
665.656	1	10
665.825	1	10
665.995	1	3
666.164	1	-1
666.333	1	15
666.503	1	5
666.672	1	3
666.842	1	-2
667.011	1	4
667.180	1	14
667.350	1	6
667.519	1	9
667.689	1	-2
667.858	1	3
668.027	1	14
668.197	1	-2
668.366	1	-2
668.536	1	0
668.705	1	9
668.874	1	11
669.044	1	-1
669.213	1	13
669.382	1	2
669.552	1	15
669.721	1	9
669.891	1	12
670.060	1	18
670.229	1	15
670.399	1	2
670.568	1	2
670.738	1	16
670.907	1	-5
671.076	1	-3
671.246	1	-1
671.415	1	11
671.584	1	0
671.754	1	4
671.923	1	-1
672.093	1	2
672.262	1	0
672.431	1	8
672.601	1	0
672.770	1	2
672.939	1	9
673.109	1	0
673.278	1	9
673.448	1	14
673.617	1	1
673.786	1	10
