325.333	1	6
325.504	1	5
325.675	1	6
325.846	1	3
326.017	1	8
326.188	1	8
326.359	1	-5
326.531	1	8
326.702	1	-10
326.873	1	14
327.044	1	-5
327.215	1	4
327.386	1	18
327.557	1	-1
327.728	1	8
327.899	1	10
328.070	1	14
328.241	1	7
328.412	1	-1
328.583	1	10
328.754	1	1
328.926	1	18
329.097	1	-13
329.268	1	15
329.439	1	-5
329.610	1	11
329.781	1	-9
329.952	1	16
330.123	1	4
330.294	1	1
330.465	1	4
330.636	1	11
330.807	1	3
330.978	1	-7
331.149	1	7
331.320	1	1
331.492	1	14
331.663	1	12
331.834	1	13
332.005	1	12
332.176	1	10
332.347	1	9
332.518	1	9
332.689	1	9
332.860	1	5
333.031	1	9
333.202	1	5
333.373	1	13
333.544	1	8
333.715	1	7
333.886	1	10
334.057	1	10
334.228	1	4
334.399	1	9
334.570	1	12
334.741	1	3
334.912	1	14
335.084	1	28
335.255	1	9
335.426	1	3
335.597	1	5
335.768	1	0
335.939	1	15
336.110	1	10
336.281	1	0
336.452	1	8
336.623	1	8
336.794	1	7
336.965	1	9
337.136	1	16
337.307	1	8
337.478	1	1
337.649	1	17
337.820	1	-1
337.991	1	13
338.162	1	7
338.333	1	3
338.504	1	10
338.675	1	18
338.846	1	15
339.017	1	6
339.188	1	0
339.359	1	7
339.530	1	8
339.701	1	17
339.872	1	18
340.043	1	6
340.214	1	7
340.385	1	12
340.556	1	-2
340.727	1	7
340.898	1	19
341.069	1	7
341.240	1	9
341.411	1	10
341.582	1	16
341.753	1	3
341.924	1	7
342.095	1	10
342.266	1	13
342.437	1	11
342.608	1	-2
342.779	1	16
342.950	1	11
343.121	1	20
343.292	1	7
343.463	1	13
343.634	1	12
343.805	1	13
343.976	1	15
344.147	1	8
344.318	1	1
344.489	1	9
344.660	1	21
344.831	1	12
345.002	1	4
345.173	1	10
345.344	1	12
345.515	1	9
345.686	1	13
345.857	1	5
346.028	1	7
346.199	1	4
346.370	1	13
346.541	1	15
346.712	1	8
346.883	1	7
347.054	1	9
347.225	1	15
347.396	1	15
347.567	1	5
347.738	1	7
347.909	1	18
348.080	1	13
348.251	1	19
348.422	1	14
348.593	1	3
348.764	1	13
348.935	1	8
349.106	1	9
349.277	1	22
349.448	1	17
349.619	1	20
349.790	1	11
349.961	1	19
350.132	1	14
350.303	1	13
350.474	1	24
350.645	1	17
350.816	1	13
350.987	1	11
351.157	1	13
351.328	1	19
351.499	1	22
351.670	1	7
351.841	1	24
352.012	1	21
352.183	1	26
352.354	1	22
352.525	1	28
352.696	1	21
352.867	1	12
353.038	1	17
353.209	1	25
353.380	1	24
353.551	1	5
353.722	1	10
353.893	1	17
354.064	1	25
354.235	1	11
354.406	1	7
354.576	1	19
354.747	1	17
354.918	1	23
355.089	1	18
355.260	1	17
355.431	1	17
355.602	1	10
355.773	1	17
355.944	1	17
356.115	1	18
356.286	1	28
356.457	1	18
356.628	1	22
356.799	1	14
356.970	1	20
357.141	1	8
357.311	1	13
357.482	1	14
357.653	1	20
357.824	1	28
357.995	1	25
358.166	1	12
358.337	1	8
358.508	1	22
358.679	1	18
358.850	1	16
359.021	1	18
359.192	1	15
359.363	1	17
359.533	1	20
359.704	1	18
359.875	1	29
360.046	1	16
360.217	1	12
360.388	1	24
360.559	1	14
360.730	1	20
360.901	1	31
361.072	1	28
361.243	1	22
361.414	1	23
361.584	1	23
361.755	1	16
361.926	1	8
362.097	1	15
362.268	1	13
362.439	1	15
362.610	1	27
362.781	1	17
362.952	1	19
363.123	1	20
363.293	1	8
363.464	1	19
363.635	1	20
363.806	1	14
363.977	1	17
364.148	1	17
364.319	1	22
364.490	1	10
364.661	1	20
364.832	1	26
365.002	1	24
365.173	1	17
365.344	1	30
365.515	1	15
365.686	1	12
365.857	1	17
366.028	1	22
366.199	1	24
366.370	1	23
366.540	1	11
366.711	1	0
366.882	1	18
367.053	1	15
367.224	1	32
367.395	1	16
367.566	1	23
367.737	1	23
367.908	1	24
368.078	1	15
368.249	1	39
368.420	1	12
368.591	1	11
368.762	1	21
368.933	1	20
369.104	1	11
369.274	1	17
369.445	1	24
369.616	1	21
369.787	1	21
369.958	1	28
370.129	1	8
370.300	1	22
370.471	1	21
370.641	1	30
370.812	1	25
370.983	1	19
371.154	1	14
371.325	1	26
371.496	1	19
371.667	1	26
371.837	1	11
372.008	1	22
372.179	1	12
372.350	1	28
372.521	1	26
372.692	1	12
372.863	1	21
373.033	1	11
373.204	1	16
373.375	1	25
373.546	1	32
373.717	1	19
373.888	1	35
374.059	1	33
374.229	1	29
374.400	1	18
374.571	1	20
374.742	1	26
374.913	1	21
375.084	1	24
375.254	1	27
375.425	1	24
375.596	1	21
375.767	1	21
375.938	1	28
376.109	1	30
376.279	1	13
376.450	1	25
376.621	1	23
376.792	1	18
376.963	1	29
377.134	1	32
377.304	1	18
377.475	1	24
377.646	1	17
377.817	1	9
377.988	1	20
378.159	1	36
378.329	1	28
378.500	1	17
378.671	1	37
378.842	1	18
379.013	1	26
379.184	1	25
379.354	1	27
379.525	1	26
379.696	1	26
379.867	1	27
380.038	1	27
380.209	1	26
380.379	1	25
380.550	1	18
380.721	1	30
380.892	1	25
381.063	1	17
381.233	1	29
381.404	1	24
381.575	1	33
381.746	1	22
381.917	1	28
382.087	1	28
382.258	1	28
382.429	1	25
382.600	1	32
382.771	1	30
382.941	1	17
383.112	1	22
383.283	1	27
383.454	1	25
383.625	1	17
383.795	1	38
383.966	1	18
384.137	1	39
384.308	1	21
384.479	1	37
384.649	1	31
384.820	1	32
384.991	1	38
385.162	1	27
385.333	1	32
385.503	1	23
385.674	1	18
385.845	1	39
386.016	1	24
386.187	1	25
386.357	1	36
386.528	1	30
386.699	1	23
386.870	1	49
387.041	1	35
387.211	1	35
387.382	1	42
387.553	1	38
387.724	1	34
387.894	1	39
388.065	1	35
388.236	1	28
388.407	1	30
388.578	1	25
388.748	1	25
388.919	1	34
389.090	1	39
389.261	1	25
389.431	1	34
389.602	1	39
389.773	1	28
389.944	1	42
390.114	1	38
390.285	1	29
390.456	1	26
390.627	1	37
390.798	1	25
390.968	1	26
391.139	1	41
391.310	1	25
391.481	1	26
391.651	1	37
391.822	1	19
391.993	1	29
392.164	1	32
392.334	1	28
392.505	1	21
392.676	1	39
392.847	1	33
393.017	1	31
393.188	1	42
393.359	1	26
393.530	1	39
393.700	1	27
393.871	1	34
394.042	1	36
394.213	1	31
394.383	1	39
394.554	1	24
394.725	1	47
394.896	1	32
395.066	1	28
395.237	1	28
395.408	1	36
395.579	1	21
395.749	1	31
395.920	1	32
396.091	1	32
396.262	1	35
396.432	1	36
396.603	1	27
396.774	1	46
396.945	1	37
397.115	1	33
397.286	1	36
397.457	1	30
397.627	1	37
397.798	1	44
397.969	1	29
398.140	1	19
398.310	1	44
398.481	1	40
398.652	1	32
398.823	1	42
398.993	1	44
399.164	1	36
399.335	1	53
399.505	1	38
399.676	1	26
399.847	1	39
400.018	1	34
400.188	1	27
400.359	1	38
400.530	1	39
400.700	1	29
400.871	1	36
401.042	1	32
401.213	1	33
401.383	1	32
401.554	1	47
401.725	1	31
401.895	1	46
402.066	1	29
402.237	1	35
402.408	1	43
402.578	1	32
402.749	1	46
402.920	1	37
403.090	1	31
403.261	1	35
403.432	1	30
403.603	1	43
403.773	1	42
403.944	1	44
404.115	1	39
404.285	1	54
404.456	1	43
404.627	1	34
404.797	1	32
404.968	1	29
405.139	1	28
405.310	1	50
405.480	1	46
405.651	1	37
405.822	1	48
405.992	1	34
406.163	1	38
406.334	1	43
406.504	1	38
406.675	1	34
406.846	1	39
407.016	1	43
407.187	1	33
407.358	1	35
407.528	1	41
407.699	1	17
407.870	1	35
408.041	1	36
408.211	1	48
408.382	1	29
408.553	1	28
408.723	1	44
408.894	1	43
409.065	1	43
409.235	1	35
409.406	1	32
409.577	1	32
409.747	1	38
409.918	1	28
410.089	1	43
410.259	1	52
410.430	1	34
410.601	1	33
410.771	1	42
410.942	1	46
411.113	1	34
411.283	1	39
411.454	1	34
411.625	1	40
411.795	1	30
411.966	1	54
412.137	1	37
412.307	1	25
412.478	1	29
412.649	1	37
412.819	1	33
412.990	1	35
413.161	1	39
413.331	1	29
413.502	1	47
413.672	1	34
413.843	1	31
414.014	1	38
414.184	1	43
414.355	1	41
414.526	1	28
414.696	1	54
414.867	1	35
415.038	1	21
415.208	1	44
415.379	1	39
415.550	1	46
415.720	1	41
415.891	1	41
416.062	1	37
416.232	1	36
416.403	1	40
416.573	1	38
416.744	1	31
416.915	1	36
417.085	1	46
417.256	1	41
417.427	1	34
417.597	1	31
417.768	1	29
417.939	1	34
418.109	1	41
418.280	1	40
418.450	1	38
418.621	1	23
418.792	1	35
418.962	1	41
419.133	1	51
419.304	1	35
419.474	1	35
419.645	1	36
419.815	1	43
419.986	1	46
420.157	1	39
420.327	1	46
420.498	1	38
420.669	1	42
420.839	1	43
421.010	1	48
421.180	1	42
421.351	1	32
421.522	1	50
421.692	1	40
421.863	1	40
422.033	1	45
422.204	1	39
422.375	1	36
422.545	1	38
422.716	1	21
422.886	1	28
423.057	1	44
423.228	1	30
423.398	1	38
423.569	1	38
423.740	1	21
423.910	1	24
424.081	1	44
424.251	1	25
424.422	1	38
424.593	1	29
424.763	1	25
424.934	1	34
425.104	1	30
425.275	1	38
425.445	1	32
425.616	1	21
425.787	1	39
425.957	1	38
426.128	1	30
426.298	1	35
426.469	1	27
426.640	1	32
426.810	1	52
426.981	1	34
427.151	1	31
427.322	1	33
427.493	1	38
427.663	1	26
427.834	1	25
428.004	1	44
428.175	1	34
428.345	1	32
428.516	1	30
428.687	1	40
428.857	1	28
429.028	1	24
429.198	1	33
429.369	1	37
429.540	1	26
429.710	1	31
429.881	1	47
430.051	1	37
430.222	1	37
430.392	1	36
430.563	1	44
430.734	1	41
430.904	1	50
431.075	1	49
431.245	1	29
431.416	1	41
431.586	1	32
431.757	1	35
431.927	1	29
432.098	1	33
432.269	1	35
432.439	1	36
432.610	1	46
432.780	1	47
432.951	1	33
433.121	1	40
433.292	1	34
433.462	1	44
433.633	1	31
433.804	1	32
433.974	1	35
434.145	1	38
434.315	1	36
434.486	1	24
434.656	1	36
434.827	1	33
434.997	1	19
435.168	1	42
435.339	1	35
435.509	1	35
435.680	1	42
435.850	1	32
436.021	1	33
436.191	1	27
436.362	1	32
436.532	1	38
436.703	1	35
436.873	1	41
437.044	1	24
437.214	1	30
437.385	1	29
437.556	1	38
437.726	1	46
437.897	1	43
438.067	1	32
438.238	1	32
438.408	1	42
438.579	1	28
438.749	1	28
438.920	1	29
439.090	1	32
439.261	1	30
439.431	1	33
439.602	1	28
439.772	1	24
439.943	1	38
440.113	1	31
440.284	1	27
440.455	1	23
440.625	1	32
440.796	1	33
440.966	1	18
441.137	1	36
441.307	1	22
441.478	1	33
441.648	1	26
441.819	1	30
441.989	1	21
442.160	1	30
442.330	1	22
442.501	1	30
442.671	1	21
442.842	1	21
443.012	1	20
443.183	1	35
443.353	1	21
443.524	1	31
443.694	1	35
443.865	1	16
444.035	1	31
444.206	1	26
444.376	1	25
444.547	1	35
444.717	1	21
444.888	1	41
445.058	1	36
445.229	1	23
445.399	1	23
445.570	1	22
445.740	1	19
445.911	1	26
446.081	1	16
446.252	1	29
446.422	1	18
446.593	1	25
446.763	1	28
446.934	1	20
447.104	1	30
447.275	1	25
447.445	1	30
447.616	1	37
447.786	1	21
447.957	1	26
448.127	1	27
448.298	1	24
448.468	1	21
448.639	1	24
448.809	1	25
448.979	1	24
449.150	1	40
449.320	1	27
449.491	1	31
449.661	1	36
449.832	1	16
450.002	1	29
450.173	1	31
450.343	1	17
450.514	1	29
450.684	1	35
450.855	1	25
451.025	1	28
451.196	1	30
451.366	1	22
451.537	1	17
451.707	1	11
451.878	1	32
452.048	1	27
452.218	1	29
452.389	1	26
452.559	1	29
452.730	1	27
452.900	1	28
453.071	1	25
453.241	1	27
453.412	1	26
453.582	1	22
453.753	1	10
453.923	1	20
454.093	1	21
454.264	1	28
454.434	1	26
454.605	1	20
454.775	1	29
454.946	1	19
455.116	1	22
455.287	1	6
455.457	1	14
455.628	1	13
455.798	1	27
455.968	1	27
456.139	1	25
456.309	1	22
456.480	1	14
456.650	1	17
456.821	1	13
456.991	1	24
457.161	1	19
457.332	1	33
457.502	1	21
457.673	1	29
457.843	1	20
458.014	1	25
458.184	1	20
458.355	1	24
458.525	1	22
458.695	1	28
458.866	1	21
459.036	1	24
459.207	1	21
459.377	1	14
459.548	1	26
459.718	1	14
459.888	1	21
460.059	1	19
460.229	1	22
460.400	1	24
460.570	1	28
460.740	1	15
460.911	1	29
461.081	1	18
461.252	1	17
461.422	1	17
461.593	1	21
461.763	1	14
461.933	1	27
462.104	1	16
462.274	1	18
462.445	1	21
462.615	1	14
462.785	1	19
462.956	1	25
463.126	1	17
463.297	1	10
463.467	1	27
463.638	1	17
463.808	1	12
463.978	1	13
464.149	1	20
464.319	1	23
464.490	1	22
464.660	1	12
464.830	1	16
465.001	1	14
465.171	1	23
465.342	1	23
465.512	1	12
465.682	1	12
465.853	1	17
466.023	1	26
466.194	1	9
466.364	1	32
466.534	1	24
466.705	1	17
466.875	1	15
467.045	1	23
467.216	1	29
467.386	1	21
467.557	1	16
467.727	1	8
467.897	1	12
468.068	1	14
468.238	1	20
468.409	1	19
468.579	1	21
468.749	1	16
468.920	1	9
469.090	1	21
469.260	1	10
469.431	1	17
469.601	1	27
469.772	1	23
469.942	1	6
470.112	1	26
470.283	1	19
470.453	1	11
470.623	1	13
470.794	1	15
470.964	1	18
471.135	1	33
471.305	1	16
471.475	1	25
471.646	1	3
471.816	1	11
471.986	1	15
472.157	1	26
472.327	1	17
472.497	1	22
472.668	1	15
472.838	1	19
473.009	1	21
473.179	1	8
473.349	1	11
473.520	1	20
473.690	1	21
473.860	1	7
474.031	1	3
474.201	1	8
474.371	1	25
474.542	1	22
474.712	1	14
474.882	1	17
475.053	1	27
475.223	1	16
475.394	1	24
475.564	1	16
475.734	1	11
475.905	1	25
476.075	1	12
476.245	1	27
476.416	1	34
476.586	1	18
476.756	1	14
476.927	1	25
477.097	1	18
477.267	1	4
477.438	1	16
477.608	1	21
477.778	1	14
477.949	1	17
478.119	1	24
478.289	1	22
478.460	1	18
478.630	1	17
478.800	1	17
478.971	1	17
479.141	1	15
479.311	1	5
479.482	1	12
479.652	1	12
479.822	1	21
479.993	1	15
480.163	1	17
480.333	1	6
480.504	1	17
480.674	1	20
480.844	1	7
481.015	1	16
481.185	1	8
481.355	1	14
481.525	1	7
481.696	1	16
481.866	1	15
482.036	1	23
482.207	1	22
482.377	1	15
482.547	1	18
482.718	1	10
482.888	1	13
483.058	1	2
483.229	1	1
483.399	1	14
483.569	1	7
483.740	1	13
483.910	1	17
484.080	1	13
484.250	1	24
484.421	1	13
484.591	1	25
484.761	1	23
484.932	1	14
485.102	1	20
485.272	1	17
485.443	1	16
485.613	1	16
485.783	1	16
485.953	1	15
486.124	1	22
486.294	1	11
486.464	1	6
486.635	1	16
486.805	1	22
486.975	1	11
487.146	1	17
487.316	1	13
487.486	1	14
487.656	1	10
487.827	1	16
487.997	1	6
488.167	1	7
488.338	1	13
488.508	1	19
488.678	1	-1
488.848	1	27
489.019	1	4
489.189	1	17
489.359	1	9
489.529	1	17
489.700	1	21
489.870	1	22
490.040	1	7
490.211	1	5
490.381	1	15
490.551	1	4
490.721	1	20
490.892	1	6
491.062	1	15
491.232	1	6
491.402	1	5
491.573	1	3
491.743	1	22
491.913	1	6
492.084	1	15
492.254	1	6
492.424	1	12
492.594	1	0
492.765	1	13
492.935	1	7
493.105	1	18
493.275	1	13
493.446	1	22
493.616	1	19
493.786	1	8
493.956	1	11
494.127	1	6
494.297	1	7
494.467	1	4
494.637	1	9
494.808	1	4
494.978	1	13
495.148	1	11
495.318	1	7
495.489	1	14
495.659	1	14
495.829	1	6
495.999	1	7
496.170	1	15
496.340	1	24
496.510	1	8
496.680	1	3
496.851	1	4
497.021	1	4
497.191	1	10
497.361	1	3
497.532	1	3
497.702	1	12
497.872	1	5
498.042	1	10
498.213	1	5
498.383	1	5
498.553	1	8
498.723	1	4
498.894	1	17
499.064	1	15
499.234	1	23
499.404	1	11
499.574	1	18
499.745	1	22
499.915	1	10
500.085	1	3
500.255	1	17
500.426	1	10
500.596	1	18
500.766	1	11
500.936	1	6
501.106	1	6
501.277	1	15
501.447	1	10
501.617	1	9
501.787	1	11
501.958	1	3
502.128	1	8
502.298	1	7
502.468	1	4
502.638	1	13
502.809	1	16
502.979	1	-9
503.149	1	-1
503.319	1	6
503.489	1	7
503.660	1	12
503.830	1	10
504.000	1	20
504.170	1	2
504.340	1	3
504.511	1	17
504.681	1	5
504.851	1	5
505.021	1	16
505.192	1	0
505.362	1	21
505.532	1	11
505.702	1	11
505.872	1	9
506.043	1	11
506.213	1	-2
506.383	1	10
506.553	1	15
506.723	1	5
506.893	1	12
507.064	1	13
507.234	1	4
507.404	1	4
507.574	1	4
507.744	1	5
507.915	1	11
508.085	1	24
508.255	1	12
508.425	1	1
508.595	1	7
508.766	1	4
508.936	1	-3
509.106	1	10
509.276	1	17
509.446	1	1
509.616	1	11
509.787	1	7
509.957	1	4
510.127	1	7
510.297	1	8
510.467	1	4
510.638	1	14
510.808	1	8
510.978	1	-2
511.148	1	3
511.318	1	7
511.488	1	2
511.659	1	7
511.829	1	-5
511.999	1	17
512.169	1	11
512.339	1	9
512.509	1	10
512.680	1	4
512.850	1	3
513.020	1	5
513.190	1	7
513.360	1	4
513.530	1	8
513.700	1	11
513.871	1	9
514.041	1	6
514.211	1	17
514.381	1	12
514.551	1	10
514.721	1	11
514.892	1	9
515.062	1	7
515.232	1	12
515.402	1	1
515.572	1	-8
515.742	1	7
515.912	1	13
516.083	1	7
516.253	1	13
516.423	1	3
516.593	1	12
516.763	1	17
516.933	1	-4
517.104	1	5
517.274	1	8
517.444	1	9
517.614	1	-5
517.784	1	8
517.954	1	13
518.124	1	13
518.294	1	-3
518.465	1	-1
518.635	1	7
518.805	1	2
518.975	1	9
519.145	1	-3
519.315	1	1
519.485	1	-5
519.656	1	17
519.826	1	7
519.996	1	3
520.166	1	8
520.336	1	16
520.506	1	2
520.676	1	-5
520.846	1	7
521.017	1	6
521.187	1	3
521.357	1	8
521.527	1	5
521.697	1	6
521.867	1	4
522.037	1	17
522.207	1	12
522.377	1	2
522.548	1	10
522.718	1	1
522.888	1	15
523.058	1	6
523.228	1	14
523.398	1	5
523.568	1	5
523.738	1	1
523.909	1	15
524.079	1	3
524.249	1	5
524.419	1	1
524.589	1	8
524.759	1	-11
524.929	1	-4
525.099	1	2
525.269	1	9
525.439	1	6
525.610	1	21
525.780	1	7
525.950	1	14
526.120	1	-3
526.290	1	5
526.460	1	-9
526.630	1	7
526.800	1	9
526.970	1	11
527.140	1	5
527.311	1	-6
527.481	1	1
527.651	1	22
527.821	1	-4
527.991	1	14
528.161	1	11
528.331	1	4
528.501	1	-1
528.671	1	5
528.841	1	5
529.011	1	-4
529.181	1	3
529.352	1	-2
529.522	1	3
529.692	1	7
529.862	1	0
530.032	1	10
530.202	1	4
530.372	1	12
530.542	1	10
530.712	1	4
530.882	1	-2
531.052	1	5
531.222	1	7
531.392	1	0
531.563	1	7
531.733	1	4
531.903	1	0
532.073	1	8
532.243	1	-1
532.413	1	7
532.583	1	8
532.753	1	2
532.923	1	-10
533.093	1	9
533.263	1	-2
533.433	1	-5
533.603	1	-2
533.773	1	6
533.943	1	-1
534.113	1	4
534.284	1	5
534.454	1	6
534.624	1	15
534.794	1	-4
534.964	1	5
535.134	1	-5
535.304	1	9
535.474	1	14
535.644	1	1
535.814	1	-4
535.984	1	0
536.154	1	-6
536.324	1	-1
536.494	1	6
536.664	1	8
536.834	1	6
537.004	1	7
537.174	1	13
537.344	1	0
537.514	1	-15
537.685	1	1
537.855	1	6
538.025	1	7
538.195	1	-2
538.365	1	18
538.535	1	6
538.705	1	11
538.875	1	8
539.045	1	2
539.215	1	6
539.385	1	6
539.555	1	6
539.725	1	6
539.895	1	-4
540.065	1	13
540.235	1	7
540.405	1	-3
540.575	1	-1
540.745	1	9
540.915	1	18
541.085	1	4
541.255	1	0
541.425	1	8
541.595	1	-1
541.765	1	5
541.935	1	3
542.105	1	-5
542.275	1	6
542.445	1	-2
542.615	1	8
542.785	1	5
542.955	1	2
543.125	1	-1
543.295	1	8
543.465	1	-3
543.635	1	15
543.805	1	12
543.975	1	2
544.145	1	11
544.315	1	16
544.485	1	12
544.655	1	11
544.825	1	-11
544.995	1	3
545.165	1	-7
545.335	1	10
545.505	1	8
545.675	1	7
545.845	1	5
546.015	1	6
546.185	1	8
546.355	1	13
546.525	1	10
546.695	1	4
546.865	1	-2
547.035	1	11
547.205	1	-4
547.375	1	7
547.545	1	1
547.715	1	1
547.885	1	3
548.055	1	3
548.225	1	6
548.395	1	-2
548.565	1	-4
548.735	1	2
548.905	1	10
549.075	1	12
549.245	1	2
549.415	1	-4
549.585	1	10
549.755	1	2
549.925	1	-4
550.095	1	-4
550.265	1	-3
550.435	1	5
550.605	1	2
550.775	1	6
550.945	1	5
551.115	1	0
551.285	1	1
551.455	1	-1
551.625	1	13
551.795	1	2
551.965	1	-1
552.135	1	-10
552.305	1	3
552.475	1	-8
552.645	1	7
552.815	1	11
552.985	1	5
553.155	1	1
553.325	1	0
553.495	1	1
553.665	1	-2
553.835	1	-7
554.004	1	2
554.174	1	5
554.344	1	6
554.514	1	0
554.684	1	-3
554.854	1	6
555.024	1	0
555.194	1	-5
555.364	1	8
555.534	1	6
555.704	1	-1
555.874	1	5
556.044	1	2
556.214	1	-2
556.384	1	7
556.554	1	6
556.724	1	9
556.894	1	2
557.064	1	2
557.234	1	7
557.404	1	2
557.573	1	-1
557.743	1	3
557.913	1	-7
558.083	1	0
558.253	1	6
558.423	1	-4
558.593	1	11
558.763	1	0
558.933	1	2
559.103	1	11
559.273	1	8
559.443	1	0
559.613	1	4
559.783	1	-3
559.953	1	4
560.122	1	15
560.292	1	5
560.462	1	2
560.632	1	3
560.802	1	-3
560.972	1	6
561.142	1	11
561.312	1	-10
561.482	1	5
561.652	1	7
561.822	1	0
561.992	1	3
562.162	1	-1
562.331	1	6
562.501	1	-5
562.671	1	11
562.841	1	-10
563.011	1	10
563.181	1	7
563.351	1	-6
563.521	1	1
563.691	1	-1
563.861	1	7
564.031	1	11
564.201	1	14
564.370	1	2
564.540	1	2
564.710	1	-1
564.880	1	4
565.050	1	8
565.220	1	3
565.390	1	-3
565.560	1	-4
565.730	1	5
565.900	1	-2
566.069	1	14
566.239	1	0
566.409	1	2
566.579	1	6
566.749	1	10
566.919	1	9
567.089	1	7
567.259	1	8
567.429	1	1
567.599	1	1
567.768	1	5
567.938	1	7
568.108	1	1
568.278	1	4
568.448	1	-1
568.618	1	-1
568.788	1	2
568.958	1	0
569.128	1	10
569.297	1	10
569.467	1	-1
569.637	1	15
569.807	1	3
569.977	1	8
570.147	1	5
570.317	1	-9
570.487	1	3
570.656	1	10
570.826	1	-6
570.996	1	-4
571.166	1	8
571.336	1	-1
571.506	1	13
571.676	1	7
571.846	1	6
572.015	1	2
572.185	1	-9
572.355	1	8
572.525	1	1
572.695	1	-3
572.865	1	-5
573.035	1	0
573.205	1	9
573.374	1	-4
573.544	1	8
573.714	1	7
573.884	1	11
574.054	1	-1
574.224	1	14
574.394	1	-7
574.563	1	-8
574.733	1	-7
574.903	1	-11
575.073	1	6
575.243	1	7
575.413	1	9
575.583	1	-5
575.752	1	5
575.922	1	4
576.092	1	4
576.262	1	2
576.432	1	13
576.602	1	-4
576.772	1	11
576.941	1	0
577.111	1	-1
577.281	1	-4
577.451	1	4
577.621	1	8
577.791	1	6
577.960	1	-2
578.130	1	4
578.300	1	7
578.470	1	10
578.640	1	3
578.810	1	-2
578.979	1	-3
579.149	1	2
579.319	1	2
579.489	1	-9
579.659	1	-6
579.829	1	-1
579.998	1	6
580.168	1	6
580.338	1	6
580.508	1	4
580.678	1	0
580.848	1	5
581.017	1	0
581.187	1	3
581.357	1	-9
581.527	1	1
581.697	1	2
581.867	1	11
582.036	1	-4
582.206	1	5
582.376	1	6
582.546	1	-2
582.716	1	-7
582.885	1	-2
583.055	1	-8
583.225	1	-6
583.395	1	4
583.565	1	-4
583.735	1	9
583.904	1	-1
584.074	1	-4
584.244	1	5
584.414	1	-8
584.584	1	7
584.753	1	-10
584.923	1	-4
585.093	1	2
585.263	1	-7
585.433	1	5
585.602	1	-3
585.772	1	-8
585.942	1	6
586.112	1	-4
586.282	1	-4
586.451	1	-3
586.621	1	-9
586.791	1	-4
586.961	1	7
587.131	1	4
587.300	1	3
587.470	1	12
587.640	1	7
587.810	1	-2
587.980	1	2
588.149	1	3
588.319	1	-8
588.489	1	-2
588.659	1	10
588.829	1	-6
588.998	1	4
589.168	1	4
589.338	1	3
589.508	1	-3
589.677	1	-1
589.847	1	-1
590.017	1	13
590.187	1	-9
590.357	1	3
590.526	1	13
590.696	1	2
590.866	1	9
591.036	1	2
591.205	1	14
591.375	1	-7
591.545	1	0
591.715	1	4
591.885	1	3
592.054	1	1
592.224	1	5
592.394	1	2
592.564	1	6
592.733	1	-3
592.903	1	1
593.073	1	0
593.243	1	-3
593.412	1	10
593.582	1	3
593.752	1	0
593.922	1	-7
594.091	1	6
594.261	1	-9
594.431	1	-2
594.601	1	9
594.771	1	3
594.940	1	-1
595.110	1	-9
595.280	1	5
595.450	1	-2
595.619	1	-2
595.789	1	7
595.959	1	5
596.129	1	-5
596.298	1	-1
596.468	1	1
596.638	1	7
596.808	1	-1
596.977	1	3
597.147	1	1
597.317	1	-4
597.487	1	11
597.656	1	12
597.826	1	2
597.996	1	5
598.166	1	-4
598.335	1	-5
598.505	1	3
598.675	1	4
598.844	1	-2
599.014	1	0
599.184	1	8
599.354	1	-8
599.523	1	4
599.693	1	7
599.863	1	2
600.033	1	-2
600.202	1	3
600.372	1	7
600.542	1	11
600.712	1	3
600.881	1	-4
601.051	1	18
601.221	1	3
601.390	1	0
601.560	1	3
601.730	1	15
601.900	1	7
602.069	1	16
602.239	1	5
602.409	1	-3
602.578	1	3
602.748	1	3
602.918	1	13
603.088	1	8
603.257	1	0
603.427	1	0
603.597	1	1
603.767	1	7
603.936	1	4
604.106	1	-2
604.276	1	-2
604.445	1	8
604.615	1	0
604.785	1	-1
604.954	1	-1
605.124	1	0
605.294	1	3
605.464	1	-7
605.633	1	11
605.803	1	1
605.973	1	-10
606.142	1	6
606.312	1	18
606.482	1	-6
606.652	1	11
606.821	1	0
606.991	1	2
607.161	1	-5
607.330	1	-6
607.500	1	10
607.670	1	-3
607.839	1	20
608.009	1	17
608.179	1	9
608.348	1	-3
608.518	1	2
608.688	1	16
608.858	1	-6
609.027	1	-8
609.197	1	4
609.367	1	16
609.536	1	7
609.706	1	-1
609.876	1	4
610.045	1	3
610.215	1	4
610.385	1	5
610.554	1	0
610.724	1	5
610.894	1	-2
611.063	1	1
611.233	1	1
611.403	1	0
611.572	1	3
611.742	1	6
611.912	1	0
612.081	1	2
612.251	1	6
612.421	1	0
612.590	1	-1
612.760	1	3
612.930	1	2
613.099	1	-1
613.269	1	14
613.439	1	10
613.608	1	1
613.778	1	11
613.948	1	-2
614.117	1	7
614.287	1	9
614.457	1	5
614.626	1	6
614.796	1	8
614.966	1	2
615.135	1	2
615.305	1	13
615.475	1	-1
615.644	1	10
615.814	1	11
615.984	1	7
616.153	1	2
616.323	1	2
616.493	1	-2
616.662	1	9
616.832	1	4
617.002	1	0
617.171	1	2
617.341	1	-3
617.511	1	1
617.680	1	-2
617.850	1	3
618.019	1	11
618.189	1	11
618.359	1	3
618.528	1	11
618.698	1	11
618.868	1	-6
619.037	1	3
619.207	1	-4
619.377	1	-4
619.546	1	5
619.716	1	5
619.885	1	3
620.055	1	-9
620.225	1	4
620.394	1	-8
620.564	1	12
620.734	1	1
620.903	1	0
621.073	1	4
621.242	1	1
621.412	1	0
621.582	1	0
621.751	1	11
621.921	1	6
622.091	1	5
622.260	1	2
622.430	1	15
622.599	1	-2
622.769	1	5
622.939	1	12
623.108	1	12
623.278	1	-3
623.448	1	4
623.617	1	-2
623.787	1	4
623.956	1	11
624.126	1	8
624.296	1	3
624.465	1	13
624.635	1	10
624.804	1	7
624.974	1	1
625.144	1	8
625.313	1	4
625.483	1	-3
625.652	1	6
625.822	1	1
625.992	1	-4
626.161	1	15
626.331	1	3
626.501	1	13
626.670	1	0
626.840	1	7
627.009	1	1
627.179	1	11
627.348	1	9
627.518	1	2
627.688	1	7
627.857	1	15
628.027	1	-1
628.196	1	6
628.366	1	7
628.536	1	5
628.705	1	-2
628.875	1	-3
629.044	1	1
629.214	1	8
629.384	1	3
629.553	1	6
629.723	1	6
629.892	1	3
630.062	1	5
630.232	1	-4
630.401	1	6
630.571	1	2
630.740	1	4
630.910	1	7
631.079	1	6
631.249	1	3
631.419	1	10
631.588	1	-6
631.758	1	5
631.927	1	5
632.097	1	2
632.266	1	4
632.436	1	4
632.606	1	3
632.775	1	6
632.945	1	-2
633.114	1	12
633.284	1	-3
633.453	1	-4
633.623	1	1
633.793	1	5
633.962	1	6
634.132	1	5
634.301	1	4
634.471	1	15
634.640	1	8
634.810	1	6
634.979	1	2
635.149	1	6
635.319	1	11
635.488	1	3
635.658	1	1
635.827	1	-2
635.997	1	-4
636.166	1	4
636.336	1	-1
636.505	1	19
636.675	1	8
636.845	1	12
637.014	1	-1
637.184	1	6
637.353	1	6
637.523	1	5
637.692	1	5
637.862	1	-2
638.031	1	8
638.201	1	10
638.370	1	-1
638.540	1	8
638.710	1	-3
638.879	1	2
639.049	1	1
639.218	1	11
639.388	1	0
639.557	1	8
639.727	1	0
639.896	1	2
640.066	1	3
640.235	1	3
640.405	1	15
640.574	1	-5
640.744	1	4
640.914	1	5
641.083	1	3
641.253	1	-6
641.422	1	7
641.592	1	13
641.761	1	-4
641.931	1	-1
642.100	1	24
642.270	1	0
642.439	1	11
642.609	1	7
642.778	1	8
642.948	1	9
643.117	1	6
643.287	1	4
643.456	1	-10
643.626	1	12
643.795	1	1
643.965	1	3
644.134	1	3
644.304	1	6
644.473	1	7
644.643	1	5
644.812	1	7
644.982	1	4
645.151	1	1
645.321	1	0
645.490	1	7
645.660	1	-7
645.829	1	-1
645.999	1	-1
646.168	1	15
646.338	1	12
646.507	1	-2
646.677	1	12
646.846	1	2
647.016	1	-7
647.185	1	1
647.355	1	-12
647.524	1	9
647.694	1	2
647.863	1	12
648.033	1	5
648.202	1	6
648.372	1	2
648.541	1	7
648.711	1	4
648.880	1	3
649.050	1	-6
649.219	1	1
649.389	1	16
649.558	1	8
649.728	1	15
649.897	1	-6
650.067	1	5
650.236	1	7
650.406	1	11
650.575	1	14
650.745	1	3
650.914	1	3
651.084	1	4
651.253	1	14
651.423	1	12
651.592	1	1
651.762	1	7
651.931	1	15
652.101	1	12
652.270	1	1
652.440	1	-1
652.609	1	1
652.778	1	2
652.948	1	5
653.117	1	1
653.287	1	11
653.456	1	11
653.626	1	19
653.795	1	4
653.965	1	2
654.134	1	21
654.304	1	-9
654.473	1	9
654.643	1	16
654.812	1	9
654.982	1	12
655.151	1	5
655.320	1	10
655.490	1	-9
655.659	1	1
655.829	1	-1
655.998	1	5
656.168	1	6
656.337	1	10
656.507	1	8
656.676	1	10
656.846	1	15
657.015	1	15
657.184	1	3
657.354	1	5
657.523	1	2
657.693	1	10
657.862	1	8
658.032	1	15
658.201	1	2
658.371	1	8
658.540	1	6
658.709	1	5
658.879	1	19
659.048	1	2
659.218	1	-2
659.387	1	11
659.557	1	6
659.726	1	7
659.895	1	-1
660.065	1	-2
660.234	1	8
660.404	1	15
660.573	1	8
660.743	1	9
660.912	1	2
661.081	1	11
661.251	1	5
661.420	1	13
661.590	1	1
661.759	1	16
661.929	1	6
662.098	1	13
662.267	1	0
662.437	1	10
662.606	1	1
662.776	1	13
662.945	1	3
663.115	1	3
663.284	1	1
663.453	1	5
663.623	1	9
663.792	1	9
663.962	1	8
664.131	1	9
664.300	1	13
664.470	1	-2
664.639	1	1
664.809	1	2
664.978	1	8
665.148	1	4
665.317	1	8
665.486	1	14
665.656	1	7
665.825	1	11
665.995	1	4
666.164	1	7
666.333	1	7
666.503	1	6
666.672	1	-6
666.842	1	0
667.011	1	3
667.180	1	10
667.350	1	10
667.519	1	5
667.689	1	7
667.858	1	-1
668.027	1	11
668.197	1	5
668.366	1	0
668.536	1	6
668.705	1	6
668.874	1	12
669.044	1	-1
669.213	1	7
669.382	1	-1
669.552	1	10
669.721	1	12
669.891	1	19
670.060	1	6
670.229	1	13
670.399	1	-1
670.568	1	9
670.738	1	7
670.907	1	-5
671.076	1	-2
671.246	1	8
671.415	1	2
671.584	1	3
671.754	1	1
671.923	1	4
672.093	1	16
672.262	1	-1
672.431	1	7
672.601	1	-3
672.770	1	8
672.939	1	9
673.109	1	3
673.278	1	4
673.448	1	17
673.617	1	2
673.786	1	2
