325.333	1	2
325.504	1	2
325.675	1	6
325.846	1	-3
326.017	1	1
326.188	1	2
326.359	1	-5
326.531	1	-11
326.702	1	-16
326.873	1	10
327.044	1	2
327.215	1	-1
327.386	1	9
327.557	1	-5
327.728	1	3
327.899	1	6
328.070	1	15
328.241	1	10
328.412	1	-12
328.583	1	1
328.754	1	7
328.926	1	-3
329.097	1	-4
329.268	1	7
329.439	1	-1
329.610	1	12
329.781	1	-18
329.952	1	12
330.123	1	6
330.294	1	-4
330.465	1	2
330.636	1	5
330.807	1	-7
330.978	1	1
331.149	1	-1
331.320	1	-4
331.492	1	5
331.663	1	-8
331.834	1	10
332.005	1	6
332.176	1	13
332.347	1	5
332.518	1	-13
332.689	1	6
332.860	1	-1
333.031	1	3
333.202	1	1
333.373	1	0
333.544	1	4
333.715	1	4
333.886	1	-4
334.057	1	2
334.228	1	-1
334.399	1	1
334.570	1	2
334.741	1	-6
334.912	1	5
335.084	1	19
335.255	1	2
335.426	1	-6
335.597	1	-8
335.768	1	-7
335.939	1	-1
336.110	1	-6
336.281	1	-5
336.452	1	-3
336.623	1	7
336.794	1	6
336.965	1	-7
337.136	1	7
337.307	1	-2
337.478	1	-1
337.649	1	6
337.820	1	4
337.991	1	8
338.162	1	-7
338.333	1	4
338.504	1	-3
338.675	1	5
338.846	1	8
339.017	1	1
339.188	1	3
339.359	1	-14
339.530	1	-5
339.701	1	-4
339.872	1	7
340.043	1	1
340.214	1	-1
340.385	1	3
340.556	1	-8
340.727	1	-4
340.898	1	15
341.069	1	0
341.240	1	-5
341.411	1	7
341.582	1	4
341.753	1	-8
341.924	1	-9
342.095	1	7
342.266	1	9
342.437	1	6
342.608	1	-5
342.779	1	8
342.950	1	4
343.121	1	8
343.292	1	0
343.463	1	1
343.634	1	2
343.805	1	0
343.976	1	3
344.147	1	3
344.318	1	-3
344.489	1	-2
344.660	1	7
344.831	1	-1
345.002	1	-5
345.173	1	8
345.344	1	7
345.515	1	6
345.686	1	-2
345.857	1	6
346.028	1	3
346.199	1	-15
346.370	1	-2
346.541	1	9
346.712	1	-4
346.883	1	1
347.054	1	2
347.225	1	5
347.396	1	3
347.567	1	0
347.738	1	-8
347.909	1	10
348.080	1	-1
348.251	1	1
348.422	1	7
348.593	1	-2
348.764	1	0
348.935	1	7
349.106	1	-7
349.277	1	-2
349.448	1	4
349.619	1	0
349.790	1	-1
349.961	1	1
350.132	1	8
350.303	1	-1
350.474	1	6
350.645	1	4
350.816	1	-2
350.987	1	4
351.157	1	-9
351.328	1	5
351.499	1	7
351.670	1	1
351.841	1	10
352.012	1	11
352.183	1	7
352.354	1	4
352.525	1	4
352.696	1	10
352.867	1	-3
353.038	1	-2
353.209	1	5
353.380	1	6
353.551	1	-2
353.722	1	3
353.893	1	-7
354.064	1	4
354.235	1	1
354.406	1	-5
354.576	1	-6
354.747	1	2
354.918	1	5
355.089	1	7
355.260	1	10
355.431	1	6
355.602	1	-9
355.773	1	8
355.944	1	7
356.115	1	5
356.286	1	6
356.457	1	3
356.628	1	1
356.799	1	2
356.970	1	9
357.141	1	-2
357.311	1	-2
357.482	1	1
357.653	1	5
357.824	1	13
357.995	1	5
358.166	1	-8
358.337	1	-1
358.508	1	4
358.679	1	3
358.850	1	-2
359.021	1	3
359.192	1	5
359.363	1	1
359.533	1	-2
359.704	1	8
359.875	1	-6
360.046	1	-1
360.217	1	-9
360.388	1	5
360.559	1	3
360.730	1	6
360.901	1	5
361.072	1	14
361.243	1	8
361.414	1	-5
361.584	1	1
361.755	1	-2
361.926	1	6
362.097	1	-4
362.268	1	4
362.439	1	1
362.610	1	8
362.781	1	5
362.952	1	-1
363.123	1	7
363.293	1	0
363.464	1	10
363.635	1	6
363.806	1	-6
363.977	1	7
364.148	1	2
364.319	1	8
364.490	1	3
364.661	1	-1
364.832	1	9
365.002	1	9
365.173	1	3
365.344	1	4
365.515	1	5
365.686	1	-5
365.857	1	-2
366.028	1	5
366.199	1	-6
366.370	1	-2
366.540	1	-1
366.711	1	-9
366.882	1	0
367.053	1	-1
367.224	1	12
367.395	1	9
367.566	1	6
367.737	1	12
367.908	1	9
368.078	1	3
368.249	1	8
368.420	1	-6
368.591	1	-2
368.762	1	-1
368.933	1	-5
369.104	1	-14
369.274	1	4
369.445	1	-3
369.616	1	3
369.787	1	4
369.958	1	6
370.129	1	-3
370.300	1	16
370.471	1	2
370.641	1	-2
370.812	1	2
370.983	1	5
371.154	1	-3
371.325	1	9
371.496	1	11
371.667	1	0
371.837	1	-7
372.008	1	2
372.179	1	-7
372.350	1	15
372.521	1	9
372.692	1	-7
372.863	1	10
373.033	1	-4
373.204	1	-2
373.375	1	8
373.546	1	3
373.717	1	4
373.888	1	3
374.059	1	7
374.229	1	11
374.400	1	-1
374.571	1	6
374.742	1	8
374.913	1	1
375.084	1	1
375.254	1	7
375.425	1	8
375.596	1	6
375.767	1	4
375.938	1	6
376.109	1	6
376.279	1	-6
376.450	1	3
376.621	1	3
376.792	1	0
376.963	1	1
377.134	1	5
377.304	1	-2
377.475	1	9
377.646	1	-4
377.817	1	-6
377.988	1	-6
378.159	1	1
378.329	1	2
378.500	1	6
378.671	1	8
378.842	1	0
379.013	1	-10
379.184	1	0
379.354	1	5
379.525	1	-2
379.696	1	7
379.867	1	17
380.038	1	0
380.209	1	8
380.379	1	2
380.550	1	-7
380.721	1	-3
380.892	1	6
381.063	1	1
381.233	1	7
381.404	1	-5
381.575	1	10
381.746	1	7
381.917	1	5
382.087	1	1
382.258	1	-5
382.429	1	7
382.600	1	14
382.771	1	1
382.941	1	-9
383.112	1	3
383.283	1	3
383.454	1	6
383.625	1	-4
383.795	1	8
383.966	1	2
384.137	1	14
384.308	1	4
384.479	1	13
384.649	1	5
384.820	1	1
384.991	1	-1
385.162	1	-1
385.333	1	-4
385.503	1	4
385.674	1	-13
385.845	1	8
386.016	1	-6
386.187	1	-7
386.357	1	4
386.528	1	1
386.699	1	-3
386.870	1	14
387.041	1	8
387.211	1	7
387.382	1	11
387.553	1	6
387.724	1	1
387.894	1	5
388.065	1	0
388.236	1	1
388.407	1	-3
388.578	1	-10
388.748	1	-9
388.919	1	11
389.090	1	4
389.261	1	-6
389.431	1	6
389.602	1	6
389.773	1	-4
389.944	1	4
390.114	1	-2
390.285	1	-6
390.456	1	5
390.627	1	6
390.798	1	2
390.968	1	-1
391.139	1	4
391.310	1	-4
391.481	1	11
391.651	1	1
391.822	1	2
391.993	1	6
392.164	1	-6
392.334	1	2
392.505	1	-1
392.676	1	5
392.847	1	3
393.017	1	11
393.188	1	4
393.359	1	-9
393.530	1	-9
393.700	1	-2
393.871	1	-5
394.042	1	-2
394.213	1	-2
394.383	1	-3
394.554	1	0
394.725	1	5
394.896	1	-3
395.066	1	12
395.237	1	-8
395.408	1	-4
395.579	1	-1
395.749	1	5
395.920	1	-3
396.091	1	-6
396.262	1	1
396.432	1	0
396.603	1	9
396.774	1	6
396.945	1	5
397.115	1	7
397.286	1	-1
397.457	1	4
397.627	1	6
397.798	1	1
397.969	1	0
398.140	1	-12
398.310	1	-3
398.481	1	3
398.652	1	-2
398.823	1	-5
398.993	1	-4
399.164	1	2
399.335	1	7
399.505	1	14
399.676	1	-3
399.847	1	0
400.018	1	-11
400.188	1	4
400.359	1	8
400.530	1	-3
400.700	1	6
400.871	1	6
401.042	1	-6
401.213	1	-3
401.383	1	-5
401.554	1	4
401.725	1	0
401.895	1	-2
402.066	1	2
402.237	1	7
402.408	1	7
402.578	1	5
402.749	1	6
402.920	1	2
403.090	1	-5
403.261	1	4
403.432	1	-1
403.603	1	3
403.773	1	2
403.944	1	11
404.115	1	11
404.285	1	8
404.456	1	-5
404.627	1	-4
404.797	1	-2
404.968	1	-6
405.139	1	-1
405.310	1	11
405.480	1	5
405.651	1	-3
405.822	1	-3
405.992	1	-5
406.163	1	6
406.334	1	-8
406.504	1	10
406.675	1	11
406.846	1	-2
407.016	1	4
407.187	1	5
407.358	1	-3
407.528	1	-13
407.699	1	-10
407.870	1	-7
408.041	1	-6
408.211	1	12
408.382	1	1
408.553	1	-6
408.723	1	3
408.894	1	-1
409.065	1	3
409.235	1	-10
409.406	1	-10
409.577	1	-1
409.747	1	3
409.918	1	-4
410.089	1	2
410.259	1	1
410.430	1	2
410.601	1	-2
410.771	1	2
410.942	1	12
411.113	1	3
411.283	1	7
411.454	1	3
411.625	1	6
411.795	1	-7
411.966	1	12
412.137	1	0
412.307	1	-11
412.478	1	9
412.649	1	6
412.819	1	-8
412.990	1	-6
413.161	1	-3
413.331	1	-14
413.502	1	8
413.672	1	-6
413.843	1	1
414.014	1	4
414.184	1	5
414.355	1	-3
414.526	1	5
414.696	1	9
414.867	1	-5
415.038	1	-5
415.208	1	3
415.379	1	4
415.550	1	6
415.720	1	-6
415.891	1	-1
416.062	1	-1
416.232	1	6
416.403	1	1
416.573	1	-2
416.744	1	-15
416.915	1	10
417.085	1	3
417.256	1	-1
417.427	1	5
417.597	1	4
417.768	1	2
417.939	1	2
418.109	1	3
418.280	1	8
418.450	1	-3
418.621	1	-11
418.792	1	1
418.962	1	1
419.133	1	8
419.304	1	7
419.474	1	-5
419.645	1	8
419.815	1	1
419.986	1	11
420.157	1	2
420.327	1	2
420.498	1	12
420.669	1	7
420.839	1	13
421.010	1	4
421.180	1	4
421.351	1	9
421.522	1	8
421.692	1	8
421.863	1	-4
422.033	1	4
422.204	1	10
422.375	1	-1
422.545	1	0
422.716	1	-11
422.886	1	-1
423.057	1	-2
423.228	1	1
423.398	1	-7
423.569	1	-1
423.740	1	-8
423.910	1	0
424.081	1	5
424.251	1	2
424.422	1	7
424.593	1	0
424.763	1	5
424.934	1	5
425.104	1	8
425.275	1	0
425.445	1	1
425.616	1	-6
425.787	1	0
425.957	1	5
426.128	1	12
426.298	1	-2
426.469	1	-4
426.640	1	2
426.810	1	5
426.981	1	1
427.151	1	-3
427.322	1	1
427.493	1	2
427.663	1	3
427.834	1	-2
428.004	1	7
428.175	1	12
428.345	1	7
428.516	1	1
428.687	1	5
428.857	1	-11
429.028	1	-5
429.198	1	3
429.369	1	1
429.540	1	9
429.710	1	-10
429.881	1	3
430.051	1	3
430.222	1	-10
430.392	1	1
430.563	1	16
430.734	1	9
430.904	1	2
431.075	1	2
431.245	1	-5
431.416	1	10
431.586	1	0
431.757	1	3
431.927	1	3
432.098	1	6
432.269	1	-1
432.439	1	3
432.610	1	-2
432.780	1	8
432.951	1	-1
433.121	1	7
433.292	1	5
433.462	1	1
433.633	1	3
433.804	1	6
433.974	1	-7
434.145	1	10
434.315	1	-2
434.486	1	2
434.656	1	18
434.827	1	-2
434.997	1	-12
435.168	1	10
435.339	1	6
435.509	1	1
435.680	1	3
435.850	1	6
436.021	1	3
436.191	1	0
436.362	1	0
436.532	1	4
436.703	1	5
436.873	1	11
437.044	1	-11
437.214	1	-6
437.385	1	0
437.556	1	0
437.726	1	12
437.897	1	7
438.067	1	7
438.238	1	-1
438.408	1	8
438.579	1	-1
438.749	1	2
438.920	1	-2
439.090	1	4
439.261	1	1
439.431	1	-2
439.602	1	6
439.772	1	-3
439.943	1	19
440.113	1	0
440.284	1	6
440.455	1	-6
440.625	1	0
440.796	1	5
440.966	1	-1
441.137	1	4
441.307	1	9
441.478	1	15
441.648	1	3
441.819	1	9
441.989	1	7
442.160	1	6
442.330	1	5
442.501	1	5
442.671	1	3
442.842	1	-12
443.012	1	-4
443.183	1	5
443.353	1	2
443.524	1	10
443.694	1	11
443.865	1	-7
444.035	1	2
444.206	1	-1
444.376	1	-5
444.547	1	22
444.717	1	2
444.888	1	2
445.058	1	2
445.229	1	10
445.399	1	-1
445.570	1	13
445.740	1	-11
445.911	1	-1
446.081	1	-7
446.252	1	11
446.422	1	-4
446.593	1	-5
446.763	1	-3
446.934	1	-3
447.104	1	-4
447.275	1	1
447.445	1	-4
447.616	1	1
447.786	1	2
447.957	1	3
448.127	1	-4
448.298	1	7
448.468	1	6
448.639	1	-2
448.809	1	3
448.979	1	-5
449.150	1	9
449.320	1	-2
449.491	1	9
449.661	1	5
449.832	1	4
450.002	1	11
450.173	1	-3
450.343	1	5
450.514	1	-5
450.684	1	4
450.855	1	2
451.025	1	5
451.196	1	1
451.366	1	3
451.537	1	5
451.707	1	-9
451.878	1	-3
452.048	1	9
452.218	1	5
452.389	1	8
452.559	1	1
452.730	1	15
452.900	1	2
453.071	1	-4
453.241	1	5
453.412	1	4
453.582	1	1
453.753	1	-1
453.923	1	6
454.093	1	5
454.264	1	11
454.434	1	1
454.605	1	5
454.775	1	11
454.946	1	6
455.116	1	-6
455.287	1	-5
455.457	1	-10
455.628	1	2
455.798	1	7
455.968	1	-1
456.139	1	-3
456.309	1	-6
456.480	1	-3
456.650	1	6
456.821	1	-7
456.991	1	3
457.161	1	-3
457.332	1	9
457.502	1	-11
457.673	1	7
457.843	1	9
458.014	1	4
458.184	1	3
458.355	1	3
458.525	1	0
458.695	1	5
458.866	1	-3
459.036	1	2
459.207	1	6
459.377	1	-3
459.548	1	8
459.718	1	-1
459.888	1	6
460.059	1	5
460.229	1	9
460.400	1	8
460.570	1	3
460.740	1	-3
460.911	1	8
461.081	1	7
461.252	1	-6
461.422	1	5
461.593	1	-1
461.763	1	-1
461.933	1	9
462.104	1	-1
462.274	1	-8
462.445	1	2
462.615	1	4
462.785	1	1
462.956	1	2
463.126	1	9
463.297	1	4
463.467	1	8
463.638	1	-2
463.808	1	1
463.978	1	-1
464.149	1	1
464.319	1	-8
464.490	1	15
464.660	1	1
464.830	1	-10
465.001	1	4
465.171	1	3
465.342	1	1
465.512	1	-9
465.682	1	1
465.853	1	4
466.023	1	4
466.194	1	-1
466.364	1	15
466.534	1	-1
466.705	1	12
466.875	1	0
467.045	1	-11
467.216	1	3
467.386	1	9
467.557	1	0
467.727	1	-4
467.897	1	4
468.068	1	4
468.238	1	-1
468.409	1	4
468.579	1	-2
468.749	1	9
468.920	1	-8
469.090	1	2
469.260	1	-6
469.431	1	-2
469.601	1	8
469.772	1	3
469.942	1	-2
470.112	1	-4
470.283	1	-1
470.453	1	7
470.623	1	0
470.794	1	0
470.964	1	-4
471.135	1	-1
471.305	1	-2
471.475	1	5
471.646	1	-5
471.816	1	1
471.986	1	-1
472.157	1	17
472.327	1	-10
472.497	1	6
472.668	1	-4
472.838	1	2
473.009	1	8
473.179	1	-4
473.349	1	-5
473.520	1	2
473.690	1	4
473.860	1	-3
474.031	1	-2
474.201	1	-6
474.371	1	14
474.542	1	5
474.712	1	-14
474.882	1	2
475.053	1	9
475.223	1	-1
475.394	1	12
475.564	1	3
475.734	1	6
475.905	1	13
476.075	1	2
476.245	1	6
476.416	1	10
476.586	1	3
476.756	1	0
476.927	1	3
477.097	1	6
477.267	1	3
477.438	1	7
477.608	1	2
477.778	1	5
477.949	1	2
478.119	1	11
478.289	1	12
478.460	1	9
478.630	1	7
478.800	1	7
478.971	1	3
479.141	1	-8
479.311	1	-12
479.482	1	3
479.652	1	-4
479.822	1	-4
479.993	1	2
480.163	1	9
480.333	1	-5
480.504	1	16
480.674	1	-2
480.844	1	-4
481.015	1	9
481.185	1	12
481.355	1	8
481.525	1	-2
481.696	1	-1
481.866	1	6
482.036	1	-2
482.207	1	-7
482.377	1	-2
482.547	1	6
482.718	1	-2
482.888	1	2
483.058	1	0
483.229	1	7
483.399	1	2
483.569	1	-6
483.740	1	9
483.910	1	-5
484.080	1	-4
484.250	1	-3
484.421	1	-1
484.591	1	2
484.761	1	14
484.932	1	16
485.102	1	12
485.272	1	10
485.443	1	12
485.613	1	9
485.783	1	-4
485.953	1	0
486.124	1	11
486.294	1	0
486.464	1	-2
486.635	1	8
486.805	1	3
486.975	1	-3
487.146	1	6
487.316	1	-3
487.486	1	-2
487.656	1	2
487.827	1	10
487.997	1	-18
488.167	1	-13
488.338	1	2
488.508	1	1
488.678	1	-7
488.848	1	7
489.019	1	-2
489.189	1	3
489.359	1	2
489.529	1	1
489.700	1	-2
489.870	1	9
490.040	1	5
490.211	1	-4
490.381	1	14
490.551	1	3
490.721	1	7
490.892	1	-2
491.062	1	0
491.232	1	6
491.402	1	0
491.573	1	-2
491.743	1	0
491.913	1	-7
492.084	1	3
492.254	1	4
492.424	1	-4
492.594	1	-10
492.765	1	10
492.935	1	-1
493.105	1	-2
493.275	1	2
493.446	1	14
493.616	1	-3
493.786	1	-1
493.956	1	-5
494.127	1	6
494.297	1	-4
494.467	1	-2
494.637	1	1
494.808	1	4
494.978	1	-10
495.148	1	-2
495.318	1	-1
495.489	1	5
495.659	1	3
495.829	1	-8
495.999	1	4
496.170	1	6
496.340	1	-1
496.510	1	1
496.680	1	-11
496.851	1	-2
497.021	1	1
497.191	1	-8
497.361	1	-3
497.532	1	-4
497.702	1	6
497.872	1	1
498.042	1	14
498.213	1	3
498.383	1	1
498.553	1	-8
498.723	1	-7
498.894	1	2
499.064	1	-3
499.234	1	3
499.404	1	3
499.574	1	9
499.745	1	8
499.915	1	3
500.085	1	0
500.255	1	8
500.426	1	-5
500.596	1	3
500.766	1	0
500.936	1	0
501.106	1	-10
501.277	1	4
501.447	1	7
501.617	1	7
501.787	1	1
501.958	1	-6
502.128	1	5
502.298	1	-1
502.468	1	-4
502.638	1	1
502.809	1	8
502.979	1	-5
503.149	1	2
503.319	1	-11
503.489	1	3
503.660	1	5
503.830	1	6
504.000	1	9
504.170	1	5
504.340	1	3
504.511	1	8
504.681	1	9
504.851	1	1
505.021	1	3
505.192	1	-8
505.362	1	5
505.532	1	-1
505.702	1	-9
505.872	1	12
506.043	1	-1
506.213	1	-2
506.383	1	2
506.553	1	7
506.723	1	-2
506.893	1	2
507.064	1	11
507.234	1	-10
507.404	1	-5
507.574	1	1
507.744	1	10
507.915	1	6
508.085	1	5
508.255	1	5
508.425	1	-2
508.595	1	11
508.766	1	3
508.936	1	-4
509.106	1	3
509.276	1	17
509.446	1	-5
509.616	1	-9
509.787	1	0
509.957	1	-3
510.127	1	-2
510.297	1	5
510.467	1	-18
510.638	1	3
510.808	1	-8
510.978	1	-3
511.148	1	4
511.318	1	9
511.488	1	-8
511.659	1	2
511.829	1	-6
511.999	1	3
512.169	1	2
512.339	1	3
512.509	1	1
512.680	1	-1
512.850	1	2
513.020	1	11
513.190	1	-4
513.360	1	-6
513.530	1	6
513.700	1	-6
513.871	1	-2
514.041	1	4
514.211	1	11
514.381	1	9
514.551	1	4
514.721	1	1
514.892	1	0
515.062	1	-1
515.232	1	5
515.402	1	0
515.572	1	-1
515.742	1	3
515.912	1	5
516.083	1	9
516.253	1	9
516.423	1	1
516.593	1	7
516.763	1	8
516.933	1	-5
517.104	1	4
517.274	1	5
517.444	1	11
517.614	1	-3
517.784	1	-3
517.954	1	5
518.124	1	-1
518.294	1	6
518.465	1	-5
518.635	1	-6
518.805	1	-13
518.975	1	-1
519.145	1	-3
519.315	1	5
519.485	1	-1
519.656	1	3
519.826	1	6
519.996	1	-13
520.166	1	2
520.336	1	10
520.506	1	1
520.676	1	-1
520.846	1	8
521.017	1	4
521.187	1	-6
521.357	1	9
521.527	1	-6
521.697	1	-1
521.867	1	-12
522.037	1	14
522.207	1	12
522.377	1	7
522.548	1	2
522.718	1	6
522.888	1	15
523.058	1	-1
523.228	1	6
523.398	1	2
523.568	1	9
523.738	1	7
523.909	1	13
524.079	1	1
524.249	1	7
524.419	1	5
524.589	1	1
524.759	1	-3
524.929	1	0
525.099	1	1
525.269	1	6
525.439	1	-5
525.610	1	21
525.780	1	0
525.950	1	3
526.120	1	-1
526.290	1	1
526.460	1	-4
526.630	1	-4
526.800	1	-6
526.970	1	4
527.140	1	9
527.311	1	-5
527.481	1	-10
527.651	1	8
527.821	1	-2
527.991	1	7
528.161	1	5
528.331	1	-8
528.501	1	8
528.671	1	4
528.841	1	-4
529.011	1	-3
529.181	1	-6
529.352	1	-1
529.522	1	2
529.692	1	-1
529.862	1	7
530.032	1	-2
530.202	1	-3
530.372	1	-1
530.542	1	3
530.712	1	-1
530.882	1	4
531.052	1	7
531.222	1	10
531.392	1	-3
531.563	1	0
531.733	1	1
531.903	1	0
532.073	1	-3
532.243	1	-1
532.413	1	2
532.583	1	-2
532.753	1	0
532.923	1	-11
533.093	1	4
533.263	1	2
533.433	1	-5
533.603	1	3
533.773	1	2
533.943	1	-7
534.113	1	1
534.284	1	-1
534.454	1	2
534.624	1	14
534.794	1	-6
534.964	1	1
535.134	1	2
535.304	1	-8
535.474	1	17
535.644	1	-9
535.814	1	-9
535.984	1	-10
536.154	1	-2
536.324	1	-3
536.494	1	8
536.664	1	8
536.834	1	3
537.004	1	1
537.174	1	14
537.344	1	4
537.514	1	-6
537.685	1	-5
537.855	1	0
538.025	1	0
538.195	1	-3
538.365	1	2
538.535	1	3
538.705	1	-2
538.875	1	7
539.045	1	0
539.215	1	7
539.385	1	5
539.555	1	7
539.725	1	1
539.895	1	-4
540.065	1	11
540.235	1	3
540.405	1	-9
540.575	1	-4
540.745	1	10
540.915	1	7
541.085	1	7
541.255	1	-6
541.425	1	-1
541.595	1	-8
541.765	1	6
541.935	1	5
542.105	1	-5
542.275	1	-9
542.445	1	-11
542.615	1	5
542.785	1	4
542.955	1	6
543.125	1	-8
543.295	1	0
543.465	1	5
543.635	1	-3
543.805	1	12
543.975	1	-2
544.145	1	3
544.315	1	-2
544.485	1	3
544.655	1	3
544.825	1	-9
544.995	1	2
545.165	1	-5
545.335	1	4
545.505	1	-3
545.675	1	-1
545.845	1	11
546.015	1	13
546.185	1	10
546.355	1	1
546.525	1	5
546.695	1	-4
546.865	1	-3
547.035	1	7
547.205	1	-9
547.375	1	0
547.545	1	2
547.715	1	-4
547.885	1	7
548.055	1	-5
548.225	1	7
548.395	1	-3
548.565	1	2
548.735	1	-2
548.905	1	4
549.075	1	5
549.245	1	1
549.415	1	-3
549.585	1	-1
549.755	1	1
549.925	1	-10
550.095	1	-1
550.265	1	0
550.435	1	-2
550.605	1	-10
550.775	1	15
550.945	1	9
551.115	1	0
551.285	1	-2
551.455	1	-5
551.625	1	0
551.795	1	10
551.965	1	0
552.135	1	-1
552.305	1	-4
552.475	1	-3
552.645	1	-2
552.815	1	-1
552.985	1	4
553.155	1	3
553.325	1	-1
553.495	1	-8
553.665	1	6
553.835	1	0
554.004	1	4
554.174	1	-2
554.344	1	3
554.514	1	0
554.684	1	5
554.854	1	16
555.024	1	-5
555.194	1	-11
555.364	1	5
555.534	1	-3
555.704	1	0
555.874	1	7
556.044	1	0
556.214	1	-7
556.384	1	2
556.554	1	12
556.724	1	8
556.894	1	-5
557.064	1	8
557.234	1	4
557.404	1	8
557.573	1	-3
557.743	1	-1
557.913	1	2
558.083	1	-4
558.253	1	10
558.423	1	0
558.593	1	6
558.763	1	-1
558.933	1	-9
559.103	1	6
559.273	1	1
559.443	1	3
559.613	1	5
559.783	1	0
559.953	1	5
560.122	1	14
560.292	1	-2
560.462	1	0
560.632	1	2
560.802	1	5
560.972	1	5
561.142	1	-3
561.312	1	-5
561.482	1	15
561.652	1	11
561.822	1	1
561.992	1	-1
562.162	1	2
562.331	1	-4
562.501	1	-11
562.671	1	1
562.841	1	-11
563.011	1	3
563.181	1	-2
563.351	1	-6
563.521	1	1
563.691	1	0
563.861	1	2
564.031	1	7
564.201	1	2
564.370	1	-6
564.540	1	5
564.710	1	-11
564.880	1	3
565.050	1	1
565.220	1	-3
565.390	1	7
565.560	1	13
565.730	1	-11
565.900	1	7
566.069	1	6
566.239	1	6
566.409	1	5
566.579	1	13
566.749	1	-2
566.919	1	23
567.089	1	4
567.259	1	10
567.429	1	0
567.599	1	2
567.768	1	9
567.938	1	-2
568.108	1	-1
568.278	1	-3
568.448	1	-6
568.618	1	2
568.788	1	13
568.958	1	1
569.128	1	8
569.297	1	-3
569.467	1	-3
569.637	1	5
569.807	1	1
569.977	1	1
570.147	1	10
570.317	1	-2
570.487	1	1
570.656	1	5
570.826	1	-3
570.996	1	3
571.166	1	13
571.336	1	-2
571.506	1	13
571.676	1	-2
571.846	1	4
572.015	1	-7
572.185	1	0
572.355	1	2
572.525	1	6
572.695	1	8
572.865	1	-6
573.035	1	8
573.205	1	0
573.374	1	-2
573.544	1	-5
573.714	1	14
573.884	1	14
574.054	1	0
574.224	1	7
574.394	1	-10
574.563	1	-1
574.733	1	3
574.903	1	-4
575.073	1	2
575.243	1	-3
575.413	1	1
575.583	1	-3
575.752	1	5
575.922	1	-7
576.092	1	5
576.262	1	7
576.432	1	4
576.602	1	0
576.772	1	6
576.941	1	5
577.111	1	-5
577.281	1	-12
577.451	1	-11
577.621	1	6
577.791	1	8
577.960	1	-6
578.130	1	5
578.300	1	5
578.470	1	6
578.640	1	2
578.810	1	-6
578.979	1	6
579.149	1	9
579.319	1	0
579.489	1	-3
579.659	1	-11
579.829	1	-2
579.998	1	16
580.168	1	5
580.338	1	4
580.508	1	4
580.678	1	5
580.848	1	5
581.017	1	9
581.187	1	6
581.357	1	-10
581.527	1	8
581.697	1	2
581.867	1	11
582.036	1	-3
582.206	1	4
582.376	1	-1
582.546	1	0
582.716	1	-5
582.885	1	-3
583.055	1	3
583.225	1	-13
583.395	1	6
583.565	1	-3
583.735	1	-3
583.904	1	0
584.074	1	12
584.244	1	-4
584.414	1	-2
584.584	1	2
584.753	1	-10
584.923	1	0
585.093	1	12
585.263	1	2
585.433	1	3
585.602	1	-5
585.772	1	2
585.942	1	-3
586.112	1	4
586.282	1	4
586.451	1	-2
586.621	1	-12
586.791	1	-2
586.961	1	2
587.131	1	2
587.300	1	-1
587.470	1	9
587.640	1	1
587.810	1	0
587.980	1	-1
588.149	1	8
588.319	1	-1
588.489	1	-3
588.659	1	3
588.829	1	4
588.998	1	8
589.168	1	6
589.338	1	-3
589.508	1	11
589.677	1	-9
589.847	1	-10
590.017	1	14
590.187	1	1
590.357	1	-5
590.526	1	14
590.696	1	9
590.866	1	1
591.036	1	-5
591.205	1	9
591.375	1	-11
591.545	1	-3
591.715	1	13
591.885	1	2
592.054	1	-1
592.224	1	-7
592.394	1	2
592.564	1	-1
592.733	1	-1
592.903	1	2
593.073	1	8
593.243	1	-3
593.412	1	6
593.582	1	-2
593.752	1	1
593.922	1	6
594.091	1	1
594.261	1	0
594.431	1	11
594.601	1	10
594.771	1	10
594.940	1	0
595.110	1	-5
595.280	1	2
595.450	1	0
595.619	1	6
595.789	1	7
595.959	1	10
596.129	1	-3
596.298	1	6
596.468	1	4
596.638	1	4
596.808	1	4
596.977	1	-6
597.147	1	4
597.317	1	-1
597.487	1	11
597.656	1	5
597.826	1	9
597.996	1	8
598.166	1	2
598.335	1	-11
598.505	1	-4
598.675	1	-6
598.844	1	3
599.014	1	-2
599.184	1	6
599.354	1	-1
599.523	1	4
599.693	1	-3
599.863	1	8
600.033	1	4
600.202	1	-3
600.372	1	1
600.542	1	7
600.712	1	-1
600.881	1	3
601.051	1	12
601.221	1	12
601.390	1	-7
601.560	1	12
601.730	1	2
601.900	1	11
602.069	1	3
602.239	1	-8
602.409	1	-6
602.578	1	-9
602.748	1	-1
602.918	1	9
603.088	1	4
603.257	1	-3
603.427	1	-1
603.597	1	5
603.767	1	4
603.936	1	2
604.106	1	7
604.276	1	-2
604.445	1	4
604.615	1	7
604.785	1	3
604.954	1	-2
605.124	1	-1
605.294	1	-3
605.464	1	-6
605.633	1	6
605.803	1	0
605.973	1	8
606.142	1	7
606.312	1	-1
606.482	1	0
606.652	1	6
606.821	1	-8
606.991	1	3
607.161	1	-2
607.330	1	-4
607.500	1	0
607.670	1	-3
607.839	1	6
608.009	1	10
608.179	1	12
608.348	1	-2
608.518	1	-5
608.688	1	7
608.858	1	4
609.027	1	-6
609.197	1	8
609.367	1	8
609.536	1	9
609.706	1	3
609.876	1	2
610.045	1	3
610.215	1	0
610.385	1	-11
610.554	1	1
610.724	1	15
610.894	1	-2
611.063	1	9
611.233	1	-7
611.403	1	11
611.572	1	1
611.742	1	3
611.912	1	-9
612.081	1	-6
612.251	1	2
612.421	1	0
612.590	1	10
612.760	1	-2
612.930	1	7
613.099	1	1
613.269	1	11
613.439	1	-6
613.608	1	-4
613.778	1	0
613.948	1	-5
614.117	1	5
614.287	1	4
614.457	1	9
614.626	1	-1
614.796	1	5
614.966	1	-8
615.135	1	-2
615.305	1	4
615.475	1	-6
615.644	1	5
615.814	1	-2
615.984	1	-5
616.153	1	0
616.323	1	-8
616.493	1	-1
616.662	1	7
616.832	1	2
617.002	1	-3
617.171	1	2
617.341	1	4
617.511	1	-2
617.680	1	1
617.850	1	6
618.019	1	7
618.189	1	14
618.359	1	2
618.528	1	3
618.698	1	7
618.868	1	-7
619.037	1	7
619.207	1	-11
619.377	1	1
619.546	1	-3
619.716	1	1
619.885	1	0
620.055	1	-21
620.225	1	2
620.394	1	-5
620.564	1	11
620.734	1	-3
620.903	1	-4
621.073	1	8
621.242	1	-12
621.412	1	2
621.582	1	5
621.751	1	10
621.921	1	1
622.091	1	2
622.260	1	0
622.430	1	11
622.599	1	-4
622.769	1	6
622.939	1	-1
623.108	1	6
623.278	1	-17
623.448	1	-2
623.617	1	0
623.787	1	0
623.956	1	10
624.126	1	2
624.296	1	-5
624.465	1	1
624.635	1	9
624.804	1	3
624.974	1	7
625.144	1	6
625.313	1	2
625.483	1	2
625.652	1	2
625.822	1	-1
625.992	1	3
626.161	1	1
626.331	1	8
626.501	1	0
626.670	1	-4
626.840	1	0
627.009	1	6
627.179	1	9
627.348	1	12
627.518	1	8
627.688	1	6
627.857	1	3
628.027	1	-9
628.196	1	5
628.366	1	3
628.536	1	-1
628.705	1	4
628.875	1	-2
629.044	1	-5
629.214	1	9
629.384	1	5
629.553	1	12
629.723	1	5
629.892	1	0
630.062	1	4
630.232	1	-2
630.401	1	10
630.571	1	8
630.740	1	9
630.910	1	1
631.079	1	4
631.249	1	3
631.419	1	1
631.588	1	-6
631.758	1	6
631.927	1	-3
632.097	1	4
632.266	1	4
632.436	1	5
632.606	1	-12
632.775	1	-3
632.945	1	4
633.114	1	5
633.284	1	-1
633.453	1	0
633.623	1	-1
633.793	1	1
633.962	1	9
634.132	1	1
634.301	1	1
634.471	1	-2
634.640	1	13
634.810	1	-5
634.979	1	0
635.149	1	8
635.319	1	-3
635.488	1	4
635.658	1	-4
635.827	1	-10
635.997	1	-3
636.166	1	1
636.336	1	-1
636.505	1	16
636.675	1	8
636.845	1	9
637.014	1	7
637.184	1	5
637.353	1	4
637.523	1	0
637.692	1	1
637.862	1	3
638.031	1	0
638.201	1	9
638.370	1	-3
638.540	1	0
638.710	1	-9
638.879	1	-5
639.049	1	-2
639.218	1	-4
639.388	1	-9
639.557	1	1
639.727	1	-3
639.896	1	-2
640.066	1	0
640.235	1	11
640.405	1	4
640.574	1	-1
640.744	1	-10
640.914	1	3
641.083	1	-4
641.253	1	1
641.422	1	6
641.592	1	13
641.761	1	-4
641.931	1	4
642.100	1	14
642.270	1	-4
642.439	1	0
642.609	1	4
642.778	1	-1
642.948	1	-2
643.117	1	10
643.287	1	6
643.456	1	7
643.626	1	16
643.795	1	-12
643.965	1	0
644.134	1	-4
644.304	1	-8
644.473	1	3
644.643	1	9
644.812	1	-3
644.982	1	0
645.151	1	5
645.321	1	-8
645.490	1	2
645.660	1	-9
645.829	1	-2
645.999	1	-5
646.168	1	10
646.338	1	2
646.507	1	0
646.677	1	3
646.846	1	6
647.016	1	-6
647.185	1	6
647.355	1	-19
647.524	1	9
647.694	1	14
647.863	1	0
648.033	1	6
648.202	1	9
648.372	1	0
648.541	1	-11
648.711	1	5
648.880	1	-9
649.050	1	-7
649.219	1	0
649.389	1	8
649.558	1	9
649.728	1	8
649.897	1	-8
650.067	1	4
650.236	1	0
650.406	1	7
650.575	1	7
650.745	1	6
650.914	1	-4
651.084	1	-4
651.253	1	10
651.423	1	-2
651.592	1	3
651.762	1	-15
651.931	1	4
652.101	1	0
652.270	1	6
652.440	1	1
652.609	1	-1
652.778	1	-5
652.948	1	-2
653.117	1	2
653.287	1	-1
653.456	1	0
653.626	1	2
653.795	1	5
653.965	1	1
654.134	1	5
654.304	1	-9
654.473	1	1
654.643	1	5
654.812	1	-6
654.982	1	0
655.151	1	2
655.320	1	-3
655.490	1	-11
655.659	1	8
655.829	1	-6
655.998	1	2
656.168	1	2
656.337	1	4
656.507	1	9
656.676	1	6
656.846	1	4
657.015	1	6
657.184	1	1
657.354	1	1
657.523	1	-6
657.693	1	1
657.862	1	8
658.032	1	-5
658.201	1	0
658.371	1	-1
658.540	1	-4
658.709	1	4
658.879	1	15
659.048	1	-9
659.218	1	2
659.387	1	4
659.557	1	0
659.726	1	7
659.895	1	3
660.065	1	-2
660.234	1	2
660.404	1	4
660.573	1	-5
660.743	1	-1
660.912	1	-3
661.081	1	13
661.251	1	3
661.420	1	0
661.590	1	-5
661.759	1	-4
661.929	1	2
662.098	1	13
662.267	1	-4
662.437	1	7
662.606	1	0
662.776	1	4
662.945	1	11
663.115	1	0
663.284	1	-4
663.453	1	4
663.623	1	5
663.792	1	-1
663.962	1	1
664.131	1	-2
664.300	1	5
664.470	1	-3
664.639	1	1
664.809	1	6
664.978	1	13
665.148	1	11
665.317	1	6
665.486	1	13
665.656	1	1
665.825	1	1
665.995	1	6
666.164	1	-2
666.333	1	-4
666.503	1	-9
666.672	1	-2
666.842	1	-4
667.011	1	-3
667.180	1	-4
667.350	1	5
667.519	1	9
667.689	1	13
667.858	1	8
668.027	1	5
668.197	1	-6
668.366	1	-4
668.536	1	-3
668.705	1	-2
668.874	1	3
669.044	1	-4
669.213	1	10
669.382	1	-2
669.552	1	10
669.721	1	14
669.891	1	6
670.060	1	7
670.229	1	7
670.399	1	-3
670.568	1	11
670.738	1	0
670.907	1	-7
671.076	1	-3
671.246	1	4
671.415	1	10
671.584	1	-1
671.754	1	2
671.923	1	-5
672.093	1	6
672.262	1	0
672.431	1	2
672.601	1	-3
672.770	1	-2
672.939	1	11
673.109	1	-1
673.278	1	1
673.448	1	4
673.617	1	1
673.786	1	-2
