325.333	1	10
325.504	1	11
325.675	1	13
325.846	1	13
326.017	1	13
326.188	1	15
326.359	1	2
326.531	1	-1
326.702	1	5
326.873	1	22
327.044	1	17
327.215	1	18
327.386	1	23
327.557	1	6
327.728	1	10
327.899	1	14
328.070	1	19
328.241	1	19
328.412	1	8
328.583	1	23
328.754	1	16
328.926	1	14
329.097	1	13
329.268	1	19
329.439	1	6
329.610	1	18
329.781	1	8
329.952	1	27
330.123	1	10
330.294	1	7
330.465	1	11
330.636	1	17
330.807	1	13
330.978	1	9
331.149	1	16
331.320	1	18
331.492	1	20
331.663	1	8
331.834	1	31
332.005	1	12
332.176	1	26
332.347	1	18
332.518	1	15
332.689	1	10
332.860	1	12
333.031	1	16
333.202	1	12
333.373	1	26
333.544	1	17
333.715	1	33
333.886	1	10
334.057	1	24
334.228	1	13
334.399	1	21
334.570	1	22
334.741	1	13
334.912	1	21
335.084	1	38
335.255	1	8
335.426	1	16
335.597	1	11
335.768	1	1
335.939	1	23
336.110	1	14
336.281	1	10
336.452	1	21
336.623	1	25
336.794	1	24
336.965	1	13
337.136	1	24
337.307	1	19
337.478	1	20
337.649	1	21
337.820	1	19
337.991	1	23
338.162	1	23
338.333	1	24
338.504	1	25
338.675	1	19
338.846	1	19
339.017	1	15
339.188	1	19
339.359	1	21
339.530	1	30
339.701	1	28
339.872	1	50
340.043	1	26
340.214	1	19
340.385	1	41
340.556	1	23
340.727	1	26
340.898	1	40
341.069	1	34
341.240	1	19
341.411	1	31
341.582	1	35
341.753	1	18
341.924	1	31
342.095	1	27
342.266	1	29
342.437	1	45
342.608	1	24
342.779	1	40
342.950	1	36
343.121	1	32
343.292	1	31
343.463	1	41
343.634	1	30
343.805	1	40
343.976	1	32
344.147	1	31
344.318	1	24
344.489	1	26
344.660	1	40
344.831	1	34
345.002	1	27
345.173	1	44
345.344	1	41
345.515	1	38
345.686	1	36
345.857	1	42
346.028	1	39
346.199	1	41
346.370	1	26
346.541	1	46
346.712	1	34
346.883	1	27
347.054	1	31
347.225	1	34
347.396	1	28
347.567	1	35
347.738	1	30
347.909	1	46
348.080	1	36
348.251	1	41
348.422	1	49
348.593	1	43
348.764	1	28
348.935	1	42
349.106	1	30
349.277	1	29
349.448	1	46
349.619	1	47
349.790	1	45
349.961	1	42
350.132	1	40
350.303	1	43
350.474	1	48
350.645	1	44
350.816	1	47
350.987	1	45
351.157	1	37
351.328	1	50
351.499	1	50
351.670	1	36
351.841	1	55
352.012	1	48
352.183	1	53
352.354	1	49
352.525	1	56
352.696	1	51
352.867	1	43
353.038	1	47
353.209	1	54
353.380	1	44
353.551	1	47
353.722	1	57
353.893	1	41
354.064	1	54
354.235	1	43
354.406	1	38
354.576	1	54
354.747	1	47
354.918	1	52
355.089	1	43
355.260	1	58
355.431	1	53
355.602	1	42
355.773	1	46
355.944	1	50
356.115	1	42
356.286	1	57
356.457	1	61
356.628	1	43
356.799	1	57
356.970	1	55
357.141	1	44
357.311	1	46
357.482	1	50
357.653	1	51
357.824	1	56
357.995	1	58
358.166	1	36
358.337	1	44
358.508	1	52
358.679	1	53
358.850	1	54
359.021	1	46
359.192	1	57
359.363	1	57
359.533	1	49
359.704	1	50
359.875	1	57
360.046	1	54
360.217	1	41
360.388	1	57
360.559	1	49
360.730	1	53
360.901	1	51
361.072	1	56
361.243	1	59
361.414	1	58
361.584	1	49
361.755	1	59
361.926	1	56
362.097	1	50
362.268	1	61
362.439	1	52
362.610	1	57
362.781	1	55
362.952	1	45
363.123	1	53
363.293	1	49
363.464	1	62
363.635	1	70
363.806	1	51
363.977	1	56
364.148	1	54
364.319	1	60
364.490	1	50
364.661	1	57
364.832	1	58
365.002	1	64
365.173	1	61
365.344	1	63
365.515	1	59
365.686	1	51
365.857	1	51
366.028	1	69
366.199	1	47
366.370	1	58
366.540	1	57
366.711	1	50
366.882	1	41
367.053	1	52
367.224	1	64
367.395	1	64
367.566	1	60
367.737	1	66
367.908	1	62
368.078	1	56
368.249	1	53
368.420	1	53
368.591	1	53
368.762	1	62
368.933	1	58
369.104	1	53
369.274	1	56
369.445	1	64
369.616	1	53
369.787	1	61
369.958	1	60
370.129	1	47
370.300	1	64
370.471	1	55
370.641	1	65
370.812	1	57
370.983	1	60
371.154	1	51
371.325	1	69
371.496	1	58
371.667	1	68
371.837	1	53
372.008	1	65
372.179	1	68
372.350	1	66
372.521	1	60
372.692	1	60
372.863	1	68
373.033	1	47
373.204	1	55
373.375	1	64
373.546	1	59
373.717	1	56
373.888	1	66
374.059	1	75
374.229	1	70
374.400	1	53
374.571	1	57
374.742	1	74
374.913	1	69
375.084	1	65
375.254	1	62
375.425	1	64
375.596	1	80
375.767	1	62
375.938	1	64
376.109	1	65
376.279	1	60
376.450	1	77
376.621	1	68
376.792	1	62
376.963	1	67
377.134	1	67
377.304	1	72
377.475	1	71
377.646	1	67
377.817	1	72
377.988	1	66
378.159	1	66
378.329	1	73
378.500	1	71
378.671	1	75
378.842	1	69
379.013	1	60
379.184	1	62
379.354	1	78
379.525	1	66
379.696	1	72
379.867	1	68
380.038	1	63
380.209	1	66
380.379	1	72
380.550	1	64
380.721	1	83
380.892	1	70
381.063	1	72
381.233	1	65
381.404	1	73
381.575	1	64
381.746	1	71
381.917	1	82
382.087	1	75
382.258	1	57
382.429	1	68
382.600	1	74
382.771	1	72
382.941	1	69
383.112	1	68
383.283	1	74
383.454	1	76
383.625	1	77
383.795	1	80
383.966	1	74
384.137	1	78
384.308	1	77
384.479	1	81
384.649	1	84
384.820	1	66
384.991	1	79
385.162	1	83
385.333	1	81
385.503	1	78
385.674	1	67
385.845	1	80
386.016	1	80
386.187	1	75
386.357	1	75
386.528	1	81
386.699	1	79
386.870	1	93
387.041	1	91
387.211	1	77
387.382	1	89
387.553	1	90
387.724	1	82
387.894	1	92
388.065	1	92
388.236	1	86
388.407	1	80
388.578	1	81
388.748	1	81
388.919	1	101
389.090	1	86
389.261	1	80
389.431	1	96
389.602	1	92
389.773	1	91
389.944	1	78
390.114	1	77
390.285	1	74
390.456	1	77
390.627	1	85
390.798	1	86
390.968	1	92
391.139	1	92
391.310	1	87
391.481	1	93
391.651	1	101
391.822	1	82
391.993	1	72
392.164	1	79
392.334	1	73
392.505	1	72
392.676	1	90
392.847	1	89
393.017	1	91
393.188	1	89
393.359	1	82
393.530	1	89
393.700	1	79
393.871	1	87
394.042	1	83
394.213	1	91
394.383	1	83
394.554	1	80
394.725	1	97
394.896	1	73
395.066	1	88
395.237	1	90
395.408	1	89
395.579	1	94
395.749	1	84
395.920	1	82
396.091	1	87
396.262	1	95
396.432	1	83
396.603	1	91
396.774	1	98
396.945	1	88
397.115	1	82
397.286	1	93
397.457	1	85
397.627	1	101
397.798	1	108
397.969	1	92
398.140	1	88
398.310	1	85
398.481	1	97
398.652	1	88
398.823	1	87
398.993	1	101
399.164	1	89
399.335	1	91
399.505	1	103
399.676	1	80
399.847	1	90
400.018	1	89
400.188	1	93
400.359	1	89
400.530	1	82
400.700	1	105
400.871	1	87
401.042	1	88
401.213	1	93
401.383	1	96
401.554	1	99
401.725	1	88
401.895	1	81
402.066	1	95
402.237	1	97
402.408	1	97
402.578	1	91
402.749	1	87
402.920	1	89
403.090	1	81
403.261	1	84
403.432	1	88
403.603	1	94
403.773	1	93
403.944	1	107
404.115	1	97
404.285	1	94
404.456	1	93
404.627	1	82
404.797	1	82
404.968	1	89
405.139	1	85
405.310	1	106
405.480	1	81
405.651	1	85
405.822	1	97
405.992	1	92
406.163	1	91
406.334	1	87
406.504	1	89
406.675	1	95
406.846	1	89
407.016	1	97
407.187	1	101
407.358	1	84
407.528	1	81
407.699	1	85
407.870	1	86
408.041	1	91
408.211	1	107
408.382	1	84
408.553	1	76
408.723	1	95
408.894	1	88
409.065	1	96
409.235	1	91
409.406	1	84
409.577	1	93
409.747	1	108
409.918	1	90
410.089	1	89
410.259	1	99
410.430	1	90
410.601	1	96
410.771	1	97
410.942	1	97
411.113	1	100
411.283	1	95
411.454	1	88
411.625	1	101
411.795	1	90
411.966	1	96
412.137	1	103
412.307	1	89
412.478	1	82
412.649	1	97
412.819	1	103
412.990	1	80
413.161	1	105
413.331	1	82
413.502	1	94
413.672	1	91
413.843	1	82
414.014	1	91
414.184	1	93
414.355	1	88
414.526	1	81
414.696	1	103
414.867	1	98
415.038	1	75
415.208	1	90
415.379	1	97
415.550	1	109
415.720	1	82
415.891	1	96
416.062	1	88
416.232	1	92
416.403	1	83
416.573	1	75
416.744	1	79
416.915	1	97
417.085	1	92
417.256	1	104
417.427	1	86
417.597	1	89
417.768	1	88
417.939	1	99
418.109	1	100
418.280	1	101
418.450	1	85
418.621	1	85
418.792	1	97
418.962	1	82
419.133	1	104
419.304	1	88
419.474	1	89
419.645	1	92
419.815	1	85
419.986	1	88
420.157	1	93
420.327	1	93
420.498	1	100
420.669	1	90
420.839	1	97
421.010	1	98
421.180	1	97
421.351	1	91
421.522	1	90
421.692	1	97
421.863	1	90
422.033	1	94
422.204	1	101
422.375	1	84
422.545	1	96
422.716	1	86
422.886	1	85
423.057	1	94
423.228	1	91
423.398	1	83
423.569	1	88
423.740	1	78
423.910	1	98
424.081	1	85
424.251	1	85
424.422	1	91
424.593	1	87
424.763	1	94
424.934	1	81
425.104	1	85
425.275	1	99
425.445	1	85
425.616	1	86
425.787	1	85
425.957	1	89
426.128	1	85
426.298	1	87
426.469	1	84
426.640	1	87
426.810	1	92
426.981	1	85
427.151	1	89
427.322	1	86
427.493	1	84
427.663	1	83
427.834	1	79
428.004	1	76
428.175	1	77
428.345	1	76
428.516	1	83
428.687	1	82
428.857	1	87
429.028	1	82
429.198	1	84
429.369	1	90
429.540	1	70
429.710	1	74
429.881	1	81
430.051	1	85
430.222	1	85
430.392	1	76
430.563	1	91
430.734	1	105
430.904	1	93
431.075	1	87
431.245	1	73
431.416	1	75
431.586	1	72
431.757	1	78
431.927	1	83
432.098	1	83
432.269	1	75
432.439	1	77
432.610	1	84
432.780	1	101
432.951	1	82
433.121	1	79
433.292	1	90
433.462	1	81
433.633	1	88
433.804	1	73
433.974	1	76
434.145	1	96
434.315	1	84
434.486	1	71
434.656	1	86
434.827	1	78
434.997	1	66
435.168	1	83
435.339	1	75
435.509	1	92
435.680	1	85
435.850	1	84
436.021	1	87
436.191	1	73
436.362	1	78
436.532	1	69
436.703	1	72
436.873	1	76
437.044	1	70
437.214	1	79
437.385	1	83
437.556	1	76
437.726	1	91
437.897	1	90
438.067	1	84
438.238	1	80
438.408	1	85
438.579	1	80
438.749	1	86
438.920	1	58
439.090	1	86
439.261	1	71
439.431	1	79
439.602	1	78
439.772	1	73
439.943	1	90
440.113	1	88
440.284	1	68
440.455	1	67
440.625	1	68
440.796	1	80
440.966	1	75
441.137	1	69
441.307	1	74
441.478	1	89
441.648	1	73
441.819	1	61
441.989	1	72
442.160	1	82
442.330	1	81
442.501	1	86
442.671	1	72
442.842	1	62
443.012	1	58
443.183	1	71
443.353	1	50
443.524	1	70
443.694	1	79
443.865	1	60
444.035	1	70
444.206	1	61
444.376	1	74
444.547	1	91
444.717	1	69
444.888	1	64
445.058	1	64
445.229	1	67
445.399	1	62
445.570	1	78
445.740	1	57
445.911	1	75
446.081	1	65
446.252	1	74
446.422	1	61
446.593	1	67
446.763	1	68
446.934	1	68
447.104	1	67
447.275	1	69
447.445	1	71
447.616	1	76
447.786	1	61
447.957	1	74
448.127	1	71
448.298	1	72
448.468	1	62
448.639	1	72
448.809	1	72
448.979	1	51
449.150	1	76
449.320	1	64
449.491	1	77
449.661	1	58
449.832	1	62
450.002	1	53
450.173	1	65
450.343	1	59
450.514	1	73
450.684	1	56
450.855	1	70
451.025	1	68
451.196	1	72
451.366	1	66
451.537	1	56
451.707	1	48
451.878	1	67
452.048	1	78
452.218	1	61
452.389	1	77
452.559	1	62
452.730	1	68
452.900	1	61
453.071	1	59
453.241	1	52
453.412	1	66
453.582	1	61
453.753	1	67
453.923	1	64
454.093	1	69
454.264	1	72
454.434	1	60
454.605	1	62
454.775	1	63
454.946	1	62
455.116	1	56
455.287	1	55
455.457	1	53
455.628	1	48
455.798	1	71
455.968	1	51
456.139	1	64
456.309	1	55
456.480	1	51
456.650	1	44
456.821	1	53
456.991	1	55
457.161	1	54
457.332	1	62
457.502	1	51
457.673	1	57
457.843	1	60
458.014	1	55
458.184	1	48
458.355	1	56
458.525	1	56
458.695	1	61
458.866	1	64
459.036	1	50
459.207	1	50
459.377	1	50
459.548	1	70
459.718	1	46
459.888	1	60
460.059	1	67
460.229	1	58
460.400	1	56
460.570	1	51
460.740	1	54
460.911	1	52
461.081	1	56
461.252	1	43
461.422	1	52
461.593	1	50
461.763	1	62
461.933	1	65
462.104	1	45
462.274	1	55
462.445	1	52
462.615	1	54
462.785	1	55
462.956	1	61
463.126	1	52
463.297	1	49
463.467	1	55
463.638	1	58
463.808	1	50
463.978	1	52
464.149	1	51
464.319	1	46
464.490	1	65
464.660	1	44
464.830	1	44
465.001	1	47
465.171	1	58
465.342	1	54
465.512	1	50
465.682	1	54
465.853	1	58
466.023	1	49
466.194	1	47
466.364	1	59
466.534	1	50
466.705	1	57
466.875	1	43
467.045	1	44
467.216	1	49
467.386	1	49
467.557	1	52
467.727	1	45
467.897	1	49
468.068	1	49
468.238	1	44
468.409	1	38
468.579	1	45
468.749	1	43
468.920	1	45
469.090	1	47
469.260	1	49
469.431	1	44
469.601	1	52
469.772	1	43
469.942	1	48
470.112	1	46
470.283	1	40
470.453	1	42
470.623	1	47
470.794	1	41
470.964	1	51
471.135	1	56
471.305	1	36
471.475	1	47
471.646	1	45
471.816	1	42
471.986	1	41
472.157	1	51
472.327	1	38
472.497	1	42
472.668	1	43
472.838	1	45
473.009	1	46
473.179	1	48
473.349	1	30
473.520	1	55
473.690	1	35
473.860	1	44
474.031	1	43
474.201	1	44
474.371	1	53
474.542	1	48
474.712	1	35
474.882	1	46
475.053	1	43
475.223	1	41
475.394	1	56
475.564	1	47
475.734	1	52
475.905	1	52
476.075	1	40
476.245	1	51
476.416	1	45
476.586	1	51
476.756	1	45
476.927	1	55
477.097	1	36
477.267	1	37
477.438	1	40
477.608	1	39
477.778	1	46
477.949	1	39
478.119	1	44
478.289	1	41
478.460	1	56
478.630	1	40
478.800	1	42
478.971	1	56
479.141	1	41
479.311	1	27
479.482	1	41
479.652	1	43
479.822	1	37
479.993	1	43
480.163	1	38
480.333	1	50
480.504	1	48
480.674	1	45
480.844	1	24
481.015	1	44
481.185	1	34
481.355	1	51
481.525	1	35
481.696	1	41
481.866	1	39
482.036	1	42
482.207	1	42
482.377	1	41
482.547	1	45
482.718	1	44
482.888	1	40
483.058	1	39
483.229	1	31
483.399	1	36
483.569	1	35
483.740	1	43
483.910	1	41
484.080	1	42
484.250	1	46
484.421	1	41
484.591	1	42
484.761	1	40
484.932	1	38
485.102	1	49
485.272	1	39
485.443	1	42
485.613	1	35
485.783	1	34
485.953	1	38
486.124	1	39
486.294	1	36
486.464	1	41
486.635	1	42
486.805	1	47
486.975	1	34
487.146	1	44
487.316	1	36
487.486	1	44
487.656	1	24
487.827	1	31
487.997	1	23
488.167	1	27
488.338	1	47
488.508	1	34
488.678	1	24
488.848	1	46
489.019	1	26
489.189	1	36
489.359	1	19
489.529	1	22
489.700	1	33
489.870	1	33
490.040	1	22
490.211	1	31
490.381	1	41
490.551	1	20
490.721	1	38
490.892	1	35
491.062	1	27
491.232	1	35
491.402	1	28
491.573	1	22
491.743	1	34
491.913	1	25
492.084	1	39
492.254	1	40
492.424	1	20
492.594	1	36
492.765	1	37
492.935	1	29
493.105	1	31
493.275	1	37
493.446	1	39
493.616	1	31
493.786	1	33
493.956	1	29
494.127	1	30
494.297	1	31
494.467	1	30
494.637	1	32
494.808	1	23
494.978	1	31
495.148	1	32
495.318	1	25
495.489	1	31
495.659	1	35
495.829	1	22
495.999	1	17
496.170	1	40
496.340	1	27
496.510	1	32
496.680	1	17
496.851	1	30
497.021	1	19
497.191	1	22
497.361	1	24
497.532	1	23
497.702	1	33
497.872	1	23
498.042	1	20
498.213	1	24
498.383	1	21
498.553	1	23
498.723	1	22
498.894	1	27
499.064	1	34
499.234	1	32
499.404	1	31
499.574	1	38
499.745	1	26
499.915	1	38
500.085	1	38
500.255	1	37
500.426	1	29
500.596	1	25
500.766	1	26
500.936	1	21
501.106	1	16
501.277	1	18
501.447	1	22
501.617	1	34
501.787	1	27
501.958	1	16
502.128	1	22
502.298	1	17
502.468	1	23
502.638	1	23
502.809	1	31
502.979	1	14
503.149	1	15
503.319	1	17
503.489	1	20
503.660	1	18
503.830	1	24
504.000	1	30
504.170	1	26
504.340	1	17
504.511	1	17
504.681	1	23
504.851	1	25
505.021	1	23
505.192	1	14
505.362	1	38
505.532	1	23
505.702	1	17
505.872	1	26
506.043	1	17
506.213	1	17
506.383	1	21
506.553	1	23
506.723	1	26
506.893	1	19
507.064	1	27
507.234	1	19
507.404	1	28
507.574	1	18
507.744	1	20
507.915	1	28
508.085	1	34
508.255	1	25
508.425	1	14
508.595	1	29
508.766	1	24
508.936	1	16
509.106	1	29
509.276	1	26
509.446	1	14
509.616	1	13
509.787	1	18
509.957	1	15
510.127	1	26
510.297	1	18
510.467	1	14
510.638	1	19
510.808	1	11
510.978	1	14
511.148	1	18
511.318	1	13
511.488	1	9
511.659	1	20
511.829	1	5
511.999	1	19
512.169	1	21
512.339	1	16
512.509	1	21
512.680	1	17
512.850	1	13
513.020	1	15
513.190	1	23
513.360	1	10
513.530	1	19
513.700	1	23
513.871	1	25
514.041	1	15
514.211	1	27
514.381	1	15
514.551	1	20
514.721	1	14
514.892	1	15
515.062	1	15
515.232	1	14
515.402	1	10
515.572	1	14
515.742	1	16
515.912	1	13
516.083	1	13
516.253	1	15
516.423	1	16
516.593	1	23
516.763	1	17
516.933	1	9
517.104	1	16
517.274	1	16
517.444	1	16
517.614	1	9
517.784	1	11
517.954	1	19
518.124	1	24
518.294	1	12
518.465	1	16
518.635	1	19
518.805	1	10
518.975	1	16
519.145	1	12
519.315	1	12
519.485	1	18
519.656	1	33
519.826	1	9
519.996	1	3
520.166	1	13
520.336	1	21
520.506	1	13
520.676	1	6
520.846	1	27
521.017	1	10
521.187	1	17
521.357	1	17
521.527	1	13
521.697	1	14
521.867	1	8
522.037	1	24
522.207	1	14
522.377	1	20
522.548	1	14
522.718	1	20
522.888	1	22
523.058	1	19
523.228	1	17
523.398	1	20
523.568	1	24
523.738	1	8
523.909	1	15
524.079	1	6
524.249	1	24
524.419	1	21
524.589	1	9
524.759	1	16
524.929	1	3
525.099	1	22
525.269	1	15
525.439	1	7
525.610	1	20
525.780	1	7
525.950	1	16
526.120	1	13
526.290	1	11
526.460	1	3
526.630	1	26
526.800	1	8
526.970	1	10
527.140	1	18
527.311	1	13
527.481	1	4
527.651	1	21
527.821	1	8
527.991	1	19
528.161	1	17
528.331	1	7
528.501	1	15
528.671	1	5
528.841	1	9
529.011	1	9
529.181	1	16
529.352	1	14
529.522	1	11
529.692	1	14
529.862	1	2
530.032	1	18
530.202	1	12
530.372	1	19
530.542	1	9
530.712	1	7
530.882	1	8
531.052	1	16
531.222	1	20
531.392	1	8
531.563	1	5
531.733	1	11
531.903	1	15
532.073	1	19
532.243	1	5
532.413	1	15
532.583	1	8
532.753	1	2
532.923	1	5
533.093	1	16
533.263	1	4
533.433	1	14
533.603	1	10
533.773	1	9
533.943	1	6
534.113	1	13
534.284	1	7
534.454	1	20
534.624	1	24
534.794	1	11
534.964	1	20
535.134	1	13
535.304	1	12
535.474	1	23
535.644	1	-1
535.814	1	5
535.984	1	9
536.154	1	2
536.324	1	12
536.494	1	21
536.664	1	7
536.834	1	14
537.004	1	3
537.174	1	20
537.344	1	16
537.514	1	5
537.685	1	1
537.855	1	13
538.025	1	13
538.195	1	15
538.365	1	24
538.535	1	13
538.705	1	8
538.875	1	16
539.045	1	9
539.215	1	23
539.385	1	10
539.555	1	21
539.725	1	6
539.895	1	6
540.065	1	28
540.235	1	19
540.405	1	1
540.575	1	13
540.745	1	9
540.915	1	15
541.085	1	11
541.255	1	3
541.425	1	17
541.595	1	11
541.765	1	12
541.935	1	3
542.105	1	2
542.275	1	5
542.445	1	-2
542.615	1	6
542.785	1	5
542.955	1	10
543.125	1	9
543.295	1	13
543.465	1	7
543.635	1	16
543.805	1	24
543.975	1	12
544.145	1	13
544.315	1	10
544.485	1	11
544.655	1	16
544.825	1	2
544.995	1	4
545.165	1	3
545.335	1	5
545.505	1	5
545.675	1	7
545.845	1	13
546.015	1	15
546.185	1	11
546.355	1	7
546.525	1	15
546.695	1	14
546.865	1	6
547.035	1	8
547.205	1	-5
547.375	1	12
547.545	1	5
547.715	1	6
547.885	1	11
548.055	1	17
548.225	1	10
548.395	1	8
548.565	1	15
548.735	1	23
548.905	1	6
549.075	1	12
549.245	1	9
549.415	1	9
549.585	1	5
549.755	1	12
549.925	1	8
550.095	1	12
550.265	1	13
550.435	1	0
550.605	1	3
550.775	1	10
550.945	1	22
551.115	1	9
551.285	1	13
551.455	1	5
551.625	1	13
551.795	1	8
551.965	1	11
552.135	1	5
552.305	1	9
552.475	1	-2
552.645	1	15
552.815	1	9
552.985	1	15
553.155	1	6
553.325	1	13
553.495	1	-2
553.665	1	2
553.835	1	-6
554.004	1	12
554.174	1	6
554.344	1	9
554.514	1	2
554.684	1	12
554.854	1	14
555.024	1	9
555.194	1	-3
555.364	1	6
555.534	1	12
555.704	1	11
555.874	1	21
556.044	1	8
556.214	1	-4
556.384	1	12
556.554	1	16
556.724	1	16
556.894	1	9
557.064	1	6
557.234	1	6
557.404	1	11
557.573	1	9
557.743	1	13
557.913	1	-7
558.083	1	10
558.253	1	16
558.423	1	12
558.593	1	22
558.763	1	10
558.933	1	14
559.103	1	7
559.273	1	8
559.443	1	6
559.613	1	9
559.783	1	12
559.953	1	8
560.122	1	17
560.292	1	9
560.462	1	9
560.632	1	13
560.802	1	3
560.972	1	3
561.142	1	17
561.312	1	3
561.482	1	10
561.652	1	16
561.822	1	6
561.992	1	1
562.162	1	15
562.331	1	7
562.501	1	-9
562.671	1	7
562.841	1	-8
563.011	1	13
563.181	1	8
563.351	1	0
563.521	1	10
563.691	1	9
563.861	1	12
564.031	1	9
564.201	1	16
564.370	1	-3
564.540	1	10
564.710	1	2
564.880	1	10
565.050	1	13
565.220	1	5
565.390	1	10
565.560	1	9
565.730	1	-3
565.900	1	6
566.069	1	16
566.239	1	12
566.409	1	5
566.579	1	13
566.749	1	6
566.919	1	6
567.089	1	10
567.259	1	11
567.429	1	6
567.599	1	7
567.768	1	11
567.938	1	4
568.108	1	1
568.278	1	-1
568.448	1	3
568.618	1	0
568.788	1	13
568.958	1	0
569.128	1	12
569.297	1	6
569.467	1	2
569.637	1	19
569.807	1	1
569.977	1	5
570.147	1	17
570.317	1	-1
570.487	1	12
570.656	1	15
570.826	1	0
570.996	1	-1
571.166	1	15
571.336	1	-4
571.506	1	6
571.676	1	11
571.846	1	13
572.015	1	6
572.185	1	5
572.355	1	11
572.525	1	2
572.695	1	3
572.865	1	-4
573.035	1	12
573.205	1	6
573.374	1	9
573.544	1	9
573.714	1	14
573.884	1	11
574.054	1	13
574.224	1	5
574.394	1	3
574.563	1	6
574.733	1	10
574.903	1	7
575.073	1	5
575.243	1	5
575.413	1	11
575.583	1	5
575.752	1	2
575.922	1	7
576.092	1	6
576.262	1	10
576.432	1	15
576.602	1	3
576.772	1	20
576.941	1	0
577.111	1	-3
577.281	1	7
577.451	1	3
577.621	1	14
577.791	1	12
577.960	1	-1
578.130	1	7
578.300	1	7
578.470	1	15
578.640	1	6
578.810	1	6
578.979	1	9
579.149	1	-1
579.319	1	-2
579.489	1	3
579.659	1	7
579.829	1	5
579.998	1	9
580.168	1	20
580.338	1	9
580.508	1	18
580.678	1	14
580.848	1	10
581.017	1	4
581.187	1	2
581.357	1	1
581.527	1	8
581.697	1	12
581.867	1	9
582.036	1	-5
582.206	1	6
582.376	1	12
582.546	1	1
582.716	1	0
582.885	1	-1
583.055	1	6
583.225	1	0
583.395	1	14
583.565	1	0
583.735	1	-1
583.904	1	11
584.074	1	6
584.244	1	9
584.414	1	-1
584.584	1	1
584.753	1	5
584.923	1	14
585.093	1	-3
585.263	1	6
585.433	1	3
585.602	1	-3
585.772	1	6
585.942	1	7
586.112	1	8
586.282	1	3
586.451	1	0
586.621	1	1
586.791	1	6
586.961	1	5
587.131	1	16
587.300	1	-7
587.470	1	20
587.640	1	6
587.810	1	2
587.980	1	1
588.149	1	6
588.319	1	8
588.489	1	9
588.659	1	-4
588.829	1	11
588.998	1	14
589.168	1	8
589.338	1	9
589.508	1	8
589.677	1	4
589.847	1	-4
590.017	1	22
590.187	1	3
590.357	1	20
590.526	1	10
590.696	1	12
590.866	1	15
591.036	1	2
591.205	1	24
591.375	1	-6
591.545	1	10
591.715	1	4
591.885	1	-2
592.054	1	-1
592.224	1	11
592.394	1	-1
592.564	1	5
592.733	1	7
592.903	1	11
593.073	1	17
593.243	1	1
593.412	1	15
593.582	1	-4
593.752	1	2
593.922	1	1
594.091	1	6
594.261	1	5
594.431	1	12
594.601	1	13
594.771	1	7
594.940	1	8
595.110	1	5
595.280	1	14
595.450	1	-3
595.619	1	1
595.789	1	2
595.959	1	11
596.129	1	13
596.298	1	0
596.468	1	13
596.638	1	9
596.808	1	10
596.977	1	3
597.147	1	12
597.317	1	-10
597.487	1	10
597.656	1	7
597.826	1	8
597.996	1	-3
598.166	1	4
598.335	1	2
598.505	1	4
598.675	1	5
598.844	1	7
599.014	1	4
599.184	1	11
599.354	1	7
599.523	1	10
599.693	1	-6
599.863	1	12
600.033	1	4
600.202	1	15
600.372	1	14
600.542	1	20
600.712	1	-2
600.881	1	8
601.051	1	11
601.221	1	9
601.390	1	0
601.560	1	10
601.730	1	10
601.900	1	9
602.069	1	6
602.239	1	-1
602.409	1	2
602.578	1	2
602.748	1	5
602.918	1	12
603.088	1	7
603.257	1	11
603.427	1	-4
603.597	1	8
603.767	1	18
603.936	1	16
604.106	1	9
604.276	1	14
604.445	1	10
604.615	1	14
604.785	1	1
604.954	1	8
605.124	1	3
605.294	1	5
605.464	1	1
605.633	1	10
605.803	1	17
605.973	1	0
606.142	1	8
606.312	1	16
606.482	1	8
606.652	1	15
606.821	1	-1
606.991	1	7
607.161	1	6
607.330	1	17
607.500	1	10
607.670	1	2
607.839	1	13
608.009	1	15
608.179	1	11
608.348	1	8
608.518	1	4
608.688	1	14
608.858	1	-3
609.027	1	0
609.197	1	13
609.367	1	12
609.536	1	5
609.706	1	0
609.876	1	3
610.045	1	16
610.215	1	11
610.385	1	8
610.554	1	1
610.724	1	8
610.894	1	1
611.063	1	8
611.233	1	0
611.403	1	1
611.572	1	4
611.742	1	17
611.912	1	5
612.081	1	13
612.251	1	16
612.421	1	0
612.590	1	13
612.760	1	9
612.930	1	12
613.099	1	8
613.269	1	15
613.439	1	3
613.608	1	-1
613.778	1	8
613.948	1	8
614.117	1	12
614.287	1	13
614.457	1	7
614.626	1	5
614.796	1	8
614.966	1	8
615.135	1	7
615.305	1	16
615.475	1	-1
615.644	1	-3
615.814	1	7
615.984	1	4
616.153	1	-2
616.323	1	9
616.493	1	1
616.662	1	17
616.832	1	11
617.002	1	8
617.171	1	12
617.341	1	-2
617.511	1	0
617.680	1	3
617.850	1	14
618.019	1	17
618.189	1	15
618.359	1	11
618.528	1	4
618.698	1	14
618.868	1	-4
619.037	1	10
619.207	1	1
619.377	1	11
619.546	1	3
619.716	1	5
619.885	1	8
620.055	1	4
620.225	1	7
620.394	1	-1
620.564	1	17
620.734	1	17
620.903	1	7
621.073	1	12
621.242	1	13
621.412	1	4
621.582	1	2
621.751	1	16
621.921	1	16
622.091	1	4
622.260	1	7
622.430	1	11
622.599	1	-4
622.769	1	5
622.939	1	13
623.108	1	13
623.278	1	3
623.448	1	9
623.617	1	5
623.787	1	13
623.956	1	21
624.126	1	8
624.296	1	4
624.465	1	16
624.635	1	13
624.804	1	9
624.974	1	15
625.144	1	14
625.313	1	10
625.483	1	4
625.652	1	2
625.822	1	5
625.992	1	11
626.161	1	16
626.331	1	12
626.501	1	14
626.670	1	10
626.840	1	11
627.009	1	2
627.179	1	14
627.348	1	23
627.518	1	8
627.688	1	14
627.857	1	11
628.027	1	7
628.196	1	8
628.366	1	26
628.536	1	19
628.705	1	6
628.875	1	4
629.044	1	3
629.214	1	13
629.384	1	15
629.553	1	19
629.723	1	9
629.892	1	12
630.062	1	3
630.232	1	4
630.401	1	21
630.571	1	13
630.740	1	10
630.910	1	19
631.079	1	11
631.249	1	10
631.419	1	24
631.588	1	1
631.758	1	12
631.927	1	10
632.097	1	4
632.266	1	2
632.436	1	11
632.606	1	3
632.775	1	11
632.945	1	8
633.114	1	20
633.284	1	16
633.453	1	11
633.623	1	15
633.793	1	12
633.962	1	7
634.132	1	8
634.301	1	17
634.471	1	8
634.640	1	15
634.810	1	16
634.979	1	11
635.149	1	15
635.319	1	24
635.488	1	10
635.658	1	2
635.827	1	7
635.997	1	9
636.166	1	8
636.336	1	4
636.505	1	23
636.675	1	7
636.845	1	13
637.014	1	10
637.184	1	16
637.353	1	11
637.523	1	17
637.692	1	19
637.862	1	17
638.031	1	16
638.201	1	7
638.370	1	15
638.540	1	14
638.710	1	10
638.879	1	4
639.049	1	8
639.218	1	13
639.388	1	9
639.557	1	3
639.727	1	14
639.896	1	0
640.066	1	4
640.235	1	7
640.405	1	26
640.574	1	16
640.744	1	13
640.914	1	14
641.083	1	18
641.253	1	10
641.422	1	8
641.592	1	21
641.761	1	-1
641.931	1	15
642.100	1	19
642.270	1	6
642.439	1	22
642.609	1	16
642.778	1	13
642.948	1	2
643.117	1	13
643.287	1	14
643.456	1	15
643.626	1	28
643.795	1	14
643.965	1	19
644.134	1	9
644.304	1	13
644.473	1	17
644.643	1	20
644.812	1	13
644.982	1	16
645.151	1	18
645.321	1	0
645.490	1	22
645.660	1	11
645.829	1	3
645.999	1	8
646.168	1	15
646.338	1	18
646.507	1	13
646.677	1	12
646.846	1	14
647.016	1	8
647.185	1	18
647.355	1	3
647.524	1	27
647.694	1	25
647.863	1	15
648.033	1	15
648.202	1	12
648.372	1	14
648.541	1	9
648.711	1	17
648.880	1	9
649.050	1	5
649.219	1	22
649.389	1	28
649.558	1	8
649.728	1	17
649.897	1	-1
650.067	1	23
650.236	1	7
650.406	1	15
650.575	1	14
650.745	1	23
650.914	1	9
651.084	1	8
651.253	1	17
651.423	1	14
651.592	1	10
651.762	1	17
651.931	1	26
652.101	1	14
652.270	1	20
652.440	1	27
652.609	1	10
652.778	1	11
652.948	1	8
653.117	1	12
653.287	1	13
653.456	1	18
653.626	1	21
653.795	1	19
653.965	1	15
654.134	1	17
654.304	1	3
654.473	1	13
654.643	1	14
654.812	1	11
654.982	1	20
655.151	1	19
655.320	1	15
655.490	1	14
655.659	1	20
655.829	1	16
655.998	1	13
656.168	1	14
656.337	1	18
656.507	1	15
656.676	1	25
656.846	1	28
657.015	1	18
657.184	1	19
657.354	1	19
657.523	1	4
657.693	1	27
657.862	1	8
658.032	1	12
658.201	1	9
658.371	1	26
658.540	1	7
658.709	1	14
658.879	1	24
659.048	1	27
659.218	1	13
659.387	1	17
659.557	1	14
659.726	1	22
659.895	1	13
660.065	1	9
660.234	1	17
660.404	1	19
660.573	1	20
660.743	1	13
660.912	1	18
661.081	1	23
661.251	1	7
661.420	1	31
661.590	1	22
661.759	1	21
661.929	1	23
662.098	1	26
662.267	1	16
662.437	1	18
662.606	1	28
662.776	1	17
662.945	1	12
663.115	1	17
663.284	1	16
663.453	1	16
663.623	1	12
663.792	1	11
663.962	1	16
664.131	1	15
664.300	1	27
664.470	1	10
664.639	1	15
664.809	1	25
664.978	1	17
665.148	1	6
665.317	1	12
665.486	1	22
665.656	1	19
665.825	1	15
665.995	1	16
666.164	1	12
666.333	1	17
666.503	1	7
666.672	1	15
666.842	1	14
667.011	1	9
667.180	1	28
667.350	1	14
667.519	1	9
667.689	1	21
667.858	1	18
668.027	1	20
668.197	1	13
668.366	1	14
668.536	1	19
668.705	1	11
668.874	1	16
669.044	1	14
669.213	1	23
669.382	1	15
669.552	1	26
669.721	1	21
669.891	1	27
670.060	1	19
670.229	1	27
670.399	1	12
670.568	1	26
670.738	1	33
670.907	1	22
671.076	1	17
671.246	1	9
671.415	1	19
671.584	1	26
671.754	1	9
671.923	1	19
672.093	1	11
672.262	1	5
672.431	1	24
672.601	1	10
672.770	1	5
672.939	1	25
673.109	1	14
673.278	1	13
673.448	1	24
673.617	1	11
673.786	1	23
