325.333	1	13
325.504	1	3
325.675	1	17
325.846	1	-1
326.017	1	3
326.188	1	6
326.359	1	-1
326.531	1	-4
326.702	1	0
326.873	1	9
327.044	1	1
327.215	1	3
327.386	1	0
327.557	1	-2
327.728	1	12
327.899	1	10
328.070	1	4
328.241	1	11
328.412	1	-8
328.583	1	11
328.754	1	0
328.926	1	12
329.097	1	0
329.268	1	6
329.439	1	7
329.610	1	3
329.781	1	2
329.952	1	13
330.123	1	6
330.294	1	3
330.465	1	7
330.636	1	11
330.807	1	1
330.978	1	2
331.149	1	-5
331.320	1	6
331.492	1	7
331.663	1	1
331.834	1	13
332.005	1	9
332.176	1	20
332.347	1	14
332.518	1	2
332.689	1	6
332.860	1	9
333.031	1	5
333.202	1	9
333.373	1	7
333.544	1	9
333.715	1	2
333.886	1	-7
334.057	1	12
334.228	1	-3
334.399	1	12
334.570	1	19
334.741	1	8
334.912	1	6
335.084	1	14
335.255	1	16
335.426	1	4
335.597	1	6
335.768	1	5
335.939	1	11
336.110	1	3
336.281	1	-5
336.452	1	1
336.623	1	9
336.794	1	13
336.965	1	3
337.136	1	14
337.307	1	3
337.478	1	5
337.649	1	9
337.820	1	2
337.991	1	9
338.162	1	11
338.333	1	6
338.504	1	2
338.675	1	9
338.846	1	16
339.017	1	9
339.188	1	3
339.359	1	0
339.530	1	2
339.701	1	10
339.872	1	23
340.043	1	6
340.214	1	4
340.385	1	23
340.556	1	-1
340.727	1	14
340.898	1	18
341.069	1	11
341.240	1	5
341.411	1	11
341.582	1	8
341.753	1	-9
341.924	1	5
342.095	1	11
342.266	1	14
342.437	1	16
342.608	1	4
342.779	1	10
342.950	1	-1
343.121	1	12
343.292	1	2
343.463	1	2
343.634	1	8
343.805	1	14
343.976	1	11
344.147	1	9
344.318	1	12
344.489	1	8
344.660	1	16
344.831	1	2
345.002	1	2
345.173	1	6
345.344	1	13
345.515	1	9
345.686	1	9
345.857	1	20
346.028	1	4
346.199	1	4
346.370	1	5
346.541	1	10
346.712	1	6
346.883	1	9
347.054	1	7
347.225	1	9
347.396	1	13
347.567	1	8
347.738	1	7
347.909	1	21
348.080	1	10
348.251	1	13
348.422	1	15
348.593	1	9
348.764	1	4
348.935	1	15
349.106	1	5
349.277	1	15
349.448	1	17
349.619	1	14
349.790	1	12
349.961	1	21
350.132	1	16
350.303	1	9
350.474	1	22
350.645	1	16
350.816	1	13
350.987	1	20
351.157	1	8
351.328	1	11
351.499	1	19
351.670	1	2
351.841	1	24
352.012	1	16
352.183	1	20
352.354	1	13
352.525	1	18
352.696	1	14
352.867	1	17
353.038	1	21
353.209	1	12
353.380	1	13
353.551	1	10
353.722	1	7
353.893	1	12
354.064	1	14
354.235	1	17
354.406	1	12
354.576	1	16
354.747	1	11
354.918	1	12
355.089	1	8
355.260	1	12
355.431	1	13
355.602	1	19
355.773	1	18
355.944	1	26
356.115	1	14
356.286	1	17
356.457	1	16
356.628	1	16
356.799	1	15
356.970	1	23
357.141	1	18
357.311	1	20
357.482	1	18
357.653	1	15
357.824	1	23
357.995	1	16
358.166	1	3
358.337	1	19
358.508	1	13
358.679	1	8
358.850	1	14
359.021	1	22
359.192	1	18
359.363	1	10
359.533	1	16
359.704	1	20
359.875	1	10
360.046	1	17
360.217	1	10
360.388	1	19
360.559	1	9
360.730	1	24
360.901	1	17
361.072	1	26
361.243	1	18
361.414	1	19
361.584	1	16
361.755	1	18
361.926	1	8
362.097	1	14
362.268	1	13
362.439	1	5
362.610	1	25
362.781	1	15
362.952	1	6
363.123	1	15
363.293	1	19
363.464	1	27
363.635	1	10
363.806	1	11
363.977	1	16
364.148	1	14
364.319	1	20
364.490	1	8
364.661	1	21
364.832	1	21
365.002	1	18
365.173	1	18
365.344	1	25
365.515	1	11
365.686	1	16
365.857	1	19
366.028	1	25
366.199	1	6
366.370	1	18
366.540	1	12
366.711	1	0
366.882	1	13
367.053	1	15
367.224	1	30
367.395	1	21
367.566	1	24
367.737	1	20
367.908	1	23
368.078	1	22
368.249	1	17
368.420	1	12
368.591	1	9
368.762	1	24
368.933	1	17
369.104	1	7
369.274	1	14
369.445	1	18
369.616	1	25
369.787	1	22
369.958	1	25
370.129	1	-2
370.300	1	21
370.471	1	12
370.641	1	11
370.812	1	15
370.983	1	16
371.154	1	13
371.325	1	20
371.496	1	22
371.667	1	24
371.837	1	20
372.008	1	21
372.179	1	11
372.350	1	29
372.521	1	21
372.692	1	10
372.863	1	19
373.033	1	9
373.204	1	12
373.375	1	24
373.546	1	24
373.717	1	29
373.888	1	32
374.059	1	26
374.229	1	28
374.400	1	15
374.571	1	20
374.742	1	19
374.913	1	24
375.084	1	9
375.254	1	14
375.425	1	23
375.596	1	20
375.767	1	20
375.938	1	24
376.109	1	22
376.279	1	14
376.450	1	21
376.621	1	22
376.792	1	13
376.963	1	18
377.134	1	26
377.304	1	15
377.475	1	20
377.646	1	20
377.817	1	16
377.988	1	11
378.159	1	22
378.329	1	29
378.500	1	10
378.671	1	18
378.842	1	20
379.013	1	9
379.184	1	26
379.354	1	19
379.525	1	23
379.696	1	28
379.867	1	26
380.038	1	19
380.209	1	23
380.379	1	15
380.550	1	19
380.721	1	22
380.892	1	25
381.063	1	21
381.233	1	32
381.404	1	17
381.575	1	34
381.746	1	21
381.917	1	15
382.087	1	27
382.258	1	24
382.429	1	31
382.600	1	26
382.771	1	16
382.941	1	14
383.112	1	22
383.283	1	30
383.454	1	23
383.625	1	7
383.795	1	14
383.966	1	20
384.137	1	20
384.308	1	22
384.479	1	31
384.649	1	36
384.820	1	24
384.991	1	26
385.162	1	34
385.333	1	20
385.503	1	19
385.674	1	19
385.845	1	26
386.016	1	25
386.187	1	22
386.357	1	22
386.528	1	30
386.699	1	19
386.870	1	35
387.041	1	32
387.211	1	20
387.382	1	25
387.553	1	25
387.724	1	13
387.894	1	28
388.065	1	30
388.236	1	28
388.407	1	32
388.578	1	25
388.748	1	18
388.919	1	42
389.090	1	27
389.261	1	21
389.431	1	29
389.602	1	21
389.773	1	31
389.944	1	28
390.114	1	21
390.285	1	37
390.456	1	18
390.627	1	30
390.798	1	31
390.968	1	13
391.139	1	35
391.310	1	32
391.481	1	34
391.651	1	30
391.822	1	21
391.993	1	24
392.164	1	21
392.334	1	21
392.505	1	31
392.676	1	24
392.847	1	27
393.017	1	36
393.188	1	35
393.359	1	16
393.530	1	21
393.700	1	46
393.871	1	26
394.042	1	18
394.213	1	22
394.383	1	37
394.554	1	22
394.725	1	29
394.896	1	26
395.066	1	32
395.237	1	25
395.408	1	27
395.579	1	23
395.749	1	34
395.920	1	22
396.091	1	28
396.262	1	35
396.432	1	26
396.603	1	28
396.774	1	40
396.945	1	25
397.115	1	25
397.286	1	26
397.457	1	26
397.627	1	30
397.798	1	33
397.969	1	14
398.140	1	31
398.310	1	33
398.481	1	33
398.652	1	29
398.823	1	23
398.993	1	35
399.164	1	31
399.335	1	32
399.505	1	31
399.676	1	36
399.847	1	36
400.018	1	19
400.188	1	30
400.359	1	22
400.530	1	19
400.700	1	30
400.871	1	27
401.042	1	27
401.213	1	27
401.383	1	39
401.554	1	30
401.725	1	31
401.895	1	26
402.066	1	29
402.237	1	31
402.408	1	34
402.578	1	31
402.749	1	30
402.920	1	39
403.090	1	35
403.261	1	30
403.432	1	31
403.603	1	37
403.773	1	42
403.944	1	43
404.115	1	44
404.285	1	41
404.456	1	24
404.627	1	38
404.797	1	25
404.968	1	17
405.139	1	26
405.310	1	37
405.480	1	32
405.651	1	32
405.822	1	17
405.992	1	28
406.163	1	33
406.334	1	22
406.504	1	33
406.675	1	41
406.846	1	31
407.016	1	44
407.187	1	35
407.358	1	29
407.528	1	28
407.699	1	24
407.870	1	16
408.041	1	38
408.211	1	44
408.382	1	14
408.553	1	23
408.723	1	41
408.894	1	28
409.065	1	40
409.235	1	20
409.406	1	37
409.577	1	22
409.747	1	44
409.918	1	34
410.089	1	30
410.259	1	41
410.430	1	22
410.601	1	31
410.771	1	45
410.942	1	29
411.113	1	31
411.283	1	28
411.454	1	32
411.625	1	30
411.795	1	33
411.966	1	34
412.137	1	31
412.307	1	25
412.478	1	23
412.649	1	38
412.819	1	24
412.990	1	22
413.161	1	39
413.331	1	19
413.502	1	32
413.672	1	27
413.843	1	23
414.014	1	28
414.184	1	33
414.355	1	37
414.526	1	42
414.696	1	40
414.867	1	38
415.038	1	14
415.208	1	35
415.379	1	41
415.550	1	29
415.720	1	31
415.891	1	31
416.062	1	27
416.232	1	34
416.403	1	32
416.573	1	31
416.744	1	27
416.915	1	43
417.085	1	21
417.256	1	36
417.427	1	38
417.597	1	36
417.768	1	23
417.939	1	37
418.109	1	29
418.280	1	34
418.450	1	31
418.621	1	12
418.792	1	32
418.962	1	37
419.133	1	37
419.304	1	26
419.474	1	25
419.645	1	27
419.815	1	18
419.986	1	40
420.157	1	26
420.327	1	30
420.498	1	36
420.669	1	30
420.839	1	36
421.010	1	36
421.180	1	41
421.351	1	29
421.522	1	36
421.692	1	39
421.863	1	39
422.033	1	40
422.204	1	37
422.375	1	26
422.545	1	42
422.716	1	25
422.886	1	28
423.057	1	39
423.228	1	32
423.398	1	30
423.569	1	35
423.740	1	29
423.910	1	21
424.081	1	33
424.251	1	21
424.422	1	47
424.593	1	16
424.763	1	25
424.934	1	28
425.104	1	22
425.275	1	19
425.445	1	20
425.616	1	27
425.787	1	22
425.957	1	38
426.128	1	44
426.298	1	26
426.469	1	17
426.640	1	28
426.810	1	25
426.981	1	20
427.151	1	24
427.322	1	35
427.493	1	16
427.663	1	25
427.834	1	23
428.004	1	32
428.175	1	28
428.345	1	20
428.516	1	19
428.687	1	26
428.857	1	20
429.028	1	19
429.198	1	29
429.369	1	23
429.540	1	30
429.710	1	26
429.881	1	30
430.051	1	24
430.222	1	19
430.392	1	25
430.563	1	41
430.734	1	30
430.904	1	29
431.075	1	40
431.245	1	20
431.416	1	24
431.586	1	34
431.757	1	29
431.927	1	28
432.098	1	27
432.269	1	22
432.439	1	27
432.610	1	27
432.780	1	24
432.951	1	24
433.121	1	35
433.292	1	33
433.462	1	22
433.633	1	37
433.804	1	26
433.974	1	29
434.145	1	38
434.315	1	20
434.486	1	23
434.656	1	41
434.827	1	26
434.997	1	24
435.168	1	36
435.339	1	26
435.509	1	35
435.680	1	33
435.850	1	26
436.021	1	32
436.191	1	28
436.362	1	27
436.532	1	38
436.703	1	42
436.873	1	30
437.044	1	25
437.214	1	27
437.385	1	19
437.556	1	26
437.726	1	40
437.897	1	40
438.067	1	26
438.238	1	28
438.408	1	36
438.579	1	16
438.749	1	15
438.920	1	27
439.090	1	30
439.261	1	19
439.431	1	30
439.602	1	27
439.772	1	24
439.943	1	34
440.113	1	33
440.284	1	29
440.455	1	16
440.625	1	23
440.796	1	34
440.966	1	24
441.137	1	27
441.307	1	26
441.478	1	31
441.648	1	25
441.819	1	21
441.989	1	23
442.160	1	33
442.330	1	20
442.501	1	22
442.671	1	2
442.842	1	10
443.012	1	17
443.183	1	24
443.353	1	13
443.524	1	26
443.694	1	35
443.865	1	22
444.035	1	30
444.206	1	12
444.376	1	24
444.547	1	31
444.717	1	24
444.888	1	26
445.058	1	25
445.229	1	24
445.399	1	22
445.570	1	26
445.740	1	27
445.911	1	13
446.081	1	19
446.252	1	39
446.422	1	24
446.593	1	24
446.763	1	25
446.934	1	24
447.104	1	21
447.275	1	18
447.445	1	31
447.616	1	19
447.786	1	24
447.957	1	20
448.127	1	19
448.298	1	21
448.468	1	27
448.639	1	19
448.809	1	29
448.979	1	27
449.150	1	28
449.320	1	21
449.491	1	36
449.661	1	13
449.832	1	13
450.002	1	39
450.173	1	22
450.343	1	28
450.514	1	29
450.684	1	24
450.855	1	25
451.025	1	15
451.196	1	25
451.366	1	27
451.537	1	16
451.707	1	9
451.878	1	18
452.048	1	30
452.218	1	17
452.389	1	22
452.559	1	25
452.730	1	30
452.900	1	29
453.071	1	7
453.241	1	22
453.412	1	21
453.582	1	23
453.753	1	23
453.923	1	15
454.093	1	29
454.264	1	30
454.434	1	24
454.605	1	19
454.775	1	13
454.946	1	17
455.116	1	27
455.287	1	8
455.457	1	10
455.628	1	11
455.798	1	24
455.968	1	32
456.139	1	17
456.309	1	23
456.480	1	12
456.650	1	16
456.821	1	9
456.991	1	20
457.161	1	22
457.332	1	21
457.502	1	3
457.673	1	30
457.843	1	27
458.014	1	8
458.184	1	17
458.355	1	14
458.525	1	22
458.695	1	23
458.866	1	23
459.036	1	15
459.207	1	22
459.377	1	10
459.548	1	25
459.718	1	14
459.888	1	28
460.059	1	23
460.229	1	31
460.400	1	22
460.570	1	21
460.740	1	12
460.911	1	18
461.081	1	25
461.252	1	18
461.422	1	18
461.593	1	8
461.763	1	24
461.933	1	25
462.104	1	11
462.274	1	25
462.445	1	20
462.615	1	16
462.785	1	15
462.956	1	25
463.126	1	19
463.297	1	15
463.467	1	19
463.638	1	19
463.808	1	8
463.978	1	12
464.149	1	6
464.319	1	18
464.490	1	29
464.660	1	14
464.830	1	14
465.001	1	14
465.171	1	17
465.342	1	25
465.512	1	9
465.682	1	20
465.853	1	8
466.023	1	24
466.194	1	14
466.364	1	29
466.534	1	16
466.705	1	20
466.875	1	14
467.045	1	15
467.216	1	23
467.386	1	10
467.557	1	15
467.727	1	7
467.897	1	20
468.068	1	14
468.238	1	22
468.409	1	13
468.579	1	26
468.749	1	8
468.920	1	-2
469.090	1	22
469.260	1	7
469.431	1	11
469.601	1	22
469.772	1	14
469.942	1	4
470.112	1	24
470.283	1	6
470.453	1	9
470.623	1	19
470.794	1	3
470.964	1	16
471.135	1	16
471.305	1	3
471.475	1	19
471.646	1	3
471.816	1	10
471.986	1	13
472.157	1	24
472.327	1	7
472.497	1	9
472.668	1	10
472.838	1	19
473.009	1	18
473.179	1	8
473.349	1	3
473.520	1	30
473.690	1	9
473.860	1	21
474.031	1	14
474.201	1	12
474.371	1	15
474.542	1	19
474.712	1	10
474.882	1	21
475.053	1	23
475.223	1	3
475.394	1	14
475.564	1	16
475.734	1	14
475.905	1	21
476.075	1	14
476.245	1	14
476.416	1	19
476.586	1	16
476.756	1	24
476.927	1	11
477.097	1	15
477.267	1	0
477.438	1	21
477.608	1	11
477.778	1	7
477.949	1	17
478.119	1	25
478.289	1	23
478.460	1	27
478.630	1	14
478.800	1	9
478.971	1	20
479.141	1	15
479.311	1	1
479.482	1	16
479.652	1	15
479.822	1	9
479.993	1	23
480.163	1	19
480.333	1	16
480.504	1	21
480.674	1	23
480.844	1	4
481.015	1	17
481.185	1	11
481.355	1	14
481.525	1	5
481.696	1	16
481.866	1	7
482.036	1	8
482.207	1	10
482.377	1	5
482.547	1	17
482.718	1	12
482.888	1	18
483.058	1	16
483.229	1	12
483.399	1	5
483.569	1	11
483.740	1	23
483.910	1	5
484.080	1	7
484.250	1	6
484.421	1	13
484.591	1	12
484.761	1	19
484.932	1	12
485.102	1	22
485.272	1	15
485.443	1	30
485.613	1	21
485.783	1	7
485.953	1	11
486.124	1	20
486.294	1	13
486.464	1	14
486.635	1	12
486.805	1	20
486.975	1	14
487.146	1	19
487.316	1	11
487.486	1	22
487.656	1	8
487.827	1	13
487.997	1	11
488.167	1	9
488.338	1	10
488.508	1	5
488.678	1	15
488.848	1	26
489.019	1	4
489.189	1	10
489.359	1	13
489.529	1	18
489.700	1	4
489.870	1	32
490.040	1	12
490.211	1	8
490.381	1	18
490.551	1	16
490.721	1	9
490.892	1	4
491.062	1	15
491.232	1	17
491.402	1	10
491.573	1	-2
491.743	1	15
491.913	1	-1
492.084	1	20
492.254	1	4
492.424	1	10
492.594	1	10
492.765	1	8
492.935	1	8
493.105	1	8
493.275	1	17
493.446	1	16
493.616	1	13
493.786	1	7
493.956	1	9
494.127	1	8
494.297	1	6
494.467	1	12
494.637	1	11
494.808	1	3
494.978	1	2
495.148	1	11
495.318	1	-5
495.489	1	13
495.659	1	11
495.829	1	7
495.999	1	-3
496.170	1	13
496.340	1	10
496.510	1	15
496.680	1	-2
496.851	1	6
497.021	1	10
497.191	1	4
497.361	1	11
497.532	1	7
497.702	1	4
497.872	1	4
498.042	1	13
498.213	1	7
498.383	1	14
498.553	1	5
498.723	1	6
498.894	1	8
499.064	1	10
499.234	1	13
499.404	1	5
499.574	1	15
499.745	1	17
499.915	1	5
500.085	1	11
500.255	1	13
500.426	1	16
500.596	1	6
500.766	1	13
500.936	1	13
501.106	1	-10
501.277	1	8
501.447	1	10
501.617	1	5
501.787	1	9
501.958	1	-6
502.128	1	13
502.298	1	5
502.468	1	10
502.638	1	7
502.809	1	8
502.979	1	4
503.149	1	2
503.319	1	1
503.489	1	8
503.660	1	12
503.830	1	4
504.000	1	11
504.170	1	1
504.340	1	11
504.511	1	15
504.681	1	10
504.851	1	16
505.021	1	5
505.192	1	-5
505.362	1	7
505.532	1	6
505.702	1	-1
505.872	1	5
506.043	1	6
506.213	1	9
506.383	1	9
506.553	1	14
506.723	1	6
506.893	1	15
507.064	1	13
507.234	1	6
507.404	1	5
507.574	1	11
507.744	1	8
507.915	1	7
508.085	1	17
508.255	1	-1
508.425	1	4
508.595	1	10
508.766	1	16
508.936	1	-5
509.106	1	14
509.276	1	19
509.446	1	5
509.616	1	9
509.787	1	11
509.957	1	4
510.127	1	8
510.297	1	9
510.467	1	-6
510.638	1	7
510.808	1	-7
510.978	1	0
511.148	1	9
511.318	1	10
511.488	1	-3
511.659	1	3
511.829	1	0
511.999	1	7
512.169	1	8
512.339	1	2
512.509	1	8
512.680	1	-4
512.850	1	10
513.020	1	13
513.190	1	14
513.360	1	-4
513.530	1	6
513.700	1	1
513.871	1	7
514.041	1	6
514.211	1	12
514.381	1	10
514.551	1	5
514.721	1	-2
514.892	1	13
515.062	1	7
515.232	1	-1
515.402	1	0
515.572	1	-7
515.742	1	6
515.912	1	13
516.083	1	5
516.253	1	14
516.423	1	5
516.593	1	4
516.763	1	15
516.933	1	5
517.104	1	1
517.274	1	-1
517.444	1	9
517.614	1	-1
517.784	1	0
517.954	1	9
518.124	1	15
518.294	1	7
518.465	1	7
518.635	1	-2
518.805	1	-6
518.975	1	6
519.145	1	-6
519.315	1	-1
519.485	1	4
519.656	1	15
519.826	1	2
519.996	1	0
520.166	1	5
520.336	1	12
520.506	1	1
520.676	1	-2
520.846	1	-3
521.017	1	12
521.187	1	0
521.357	1	13
521.527	1	0
521.697	1	8
521.867	1	-1
522.037	1	12
522.207	1	4
522.377	1	14
522.548	1	0
522.718	1	13
522.888	1	12
523.058	1	4
523.228	1	7
523.398	1	12
523.568	1	8
523.738	1	3
523.909	1	7
524.079	1	6
524.249	1	5
524.419	1	0
524.589	1	-2
524.759	1	4
524.929	1	3
525.099	1	12
525.269	1	11
525.439	1	-2
525.610	1	17
525.780	1	2
525.950	1	7
526.120	1	1
526.290	1	2
526.460	1	-7
526.630	1	4
526.800	1	1
526.970	1	7
527.140	1	9
527.311	1	2
527.481	1	2
527.651	1	9
527.821	1	-3
527.991	1	12
528.161	1	9
528.331	1	5
528.501	1	9
528.671	1	2
528.841	1	-2
529.011	1	1
529.181	1	8
529.352	1	13
529.522	1	-4
529.692	1	5
529.862	1	-1
530.032	1	13
530.202	1	8
530.372	1	4
530.542	1	7
530.712	1	3
530.882	1	8
531.052	1	12
531.222	1	13
531.392	1	12
531.563	1	16
531.733	1	-1
531.903	1	16
532.073	1	14
532.243	1	4
532.413	1	7
532.583	1	6
532.753	1	7
532.923	1	-3
533.093	1	6
533.263	1	5
533.433	1	0
533.603	1	4
533.773	1	-6
533.943	1	6
534.113	1	11
534.284	1	-2
534.454	1	10
534.624	1	9
534.794	1	1
534.964	1	13
535.134	1	1
535.304	1	1
535.474	1	10
535.644	1	-2
535.814	1	-1
535.984	1	0
536.154	1	1
536.324	1	4
536.494	1	1
536.664	1	7
536.834	1	1
537.004	1	-4
537.174	1	17
537.344	1	5
537.514	1	5
537.685	1	2
537.855	1	15
538.025	1	0
538.195	1	5
538.365	1	12
538.535	1	-8
538.705	1	3
538.875	1	4
539.045	1	3
539.215	1	1
539.385	1	4
539.555	1	11
539.725	1	0
539.895	1	-2
540.065	1	9
540.235	1	10
540.405	1	-3
540.575	1	9
540.745	1	12
540.915	1	12
541.085	1	8
541.255	1	3
541.425	1	6
541.595	1	6
541.765	1	8
541.935	1	5
542.105	1	1
542.275	1	-6
542.445	1	-2
542.615	1	-3
542.785	1	5
542.955	1	0
543.125	1	-4
543.295	1	10
543.465	1	-2
543.635	1	10
543.805	1	16
543.975	1	-1
544.145	1	-3
544.315	1	3
544.485	1	14
544.655	1	7
544.825	1	-3
544.995	1	7
545.165	1	-5
545.335	1	7
545.505	1	-1
545.675	1	5
545.845	1	6
546.015	1	6
546.185	1	8
546.355	1	6
546.525	1	5
546.695	1	6
546.865	1	2
547.035	1	14
547.205	1	-11
547.375	1	4
547.545	1	7
547.715	1	-3
547.885	1	8
548.055	1	-2
548.225	1	8
548.395	1	6
548.565	1	6
548.735	1	5
548.905	1	-1
549.075	1	-1
549.245	1	3
549.415	1	-1
549.585	1	12
549.755	1	12
549.925	1	-3
550.095	1	4
550.265	1	2
550.435	1	-1
550.605	1	-1
550.775	1	7
550.945	1	10
551.115	1	3
551.285	1	7
551.455	1	-1
551.625	1	13
551.795	1	1
551.965	1	2
552.135	1	3
552.305	1	-3
552.475	1	-1
552.645	1	6
552.815	1	5
552.985	1	5
553.155	1	7
553.325	1	7
553.495	1	-2
553.665	1	4
553.835	1	-7
554.004	1	8
554.174	1	0
554.344	1	7
554.514	1	-1
554.684	1	6
554.854	1	11
555.024	1	5
555.194	1	-6
555.364	1	11
555.534	1	4
555.704	1	3
555.874	1	14
556.044	1	12
556.214	1	-2
556.384	1	2
556.554	1	12
556.724	1	8
556.894	1	4
557.064	1	4
557.234	1	-1
557.404	1	10
557.573	1	0
557.743	1	4
557.913	1	-8
558.083	1	-2
558.253	1	-3
558.423	1	10
558.593	1	5
558.763	1	3
558.933	1	1
559.103	1	7
559.273	1	-2
559.443	1	4
559.613	1	6
559.783	1	4
559.953	1	1
560.122	1	10
560.292	1	6
560.462	1	6
560.632	1	12
560.802	1	5
560.972	1	9
561.142	1	6
561.312	1	-7
561.482	1	10
561.652	1	12
561.822	1	4
561.992	1	4
562.162	1	4
562.331	1	-2
562.501	1	-2
562.671	1	-7
562.841	1	-6
563.011	1	7
563.181	1	-4
563.351	1	-4
563.521	1	-2
563.691	1	-3
563.861	1	2
564.031	1	11
564.201	1	19
564.370	1	-6
564.540	1	2
564.710	1	-6
564.880	1	8
565.050	1	5
565.220	1	2
565.390	1	4
565.560	1	12
565.730	1	3
565.900	1	2
566.069	1	16
566.239	1	3
566.409	1	4
566.579	1	0
566.749	1	1
566.919	1	6
567.089	1	3
567.259	1	16
567.429	1	-6
567.599	1	5
567.768	1	-3
567.938	1	2
568.108	1	3
568.278	1	4
568.448	1	-1
568.618	1	10
568.788	1	2
568.958	1	4
569.128	1	-3
569.297	1	1
569.467	1	-6
569.637	1	11
569.807	1	3
569.977	1	3
570.147	1	9
570.317	1	-4
570.487	1	3
570.656	1	18
570.826	1	-1
570.996	1	-2
571.166	1	8
571.336	1	2
571.506	1	3
571.676	1	8
571.846	1	8
572.015	1	6
572.185	1	3
572.355	1	6
572.525	1	2
572.695	1	11
572.865	1	-6
573.035	1	0
573.205	1	7
573.374	1	-8
573.544	1	9
573.714	1	4
573.884	1	9
574.054	1	7
574.224	1	-3
574.394	1	1
574.563	1	-1
574.733	1	0
574.903	1	-1
575.073	1	-3
575.243	1	2
575.413	1	6
575.583	1	-1
575.752	1	4
575.922	1	6
576.092	1	6
576.262	1	7
576.432	1	1
576.602	1	-12
576.772	1	6
576.941	1	-2
577.111	1	-3
577.281	1	-13
577.451	1	2
577.621	1	5
577.791	1	9
577.960	1	-6
578.130	1	5
578.300	1	5
578.470	1	14
578.640	1	-1
578.810	1	8
578.979	1	2
579.149	1	8
579.319	1	-1
579.489	1	8
579.659	1	3
579.829	1	8
579.998	1	10
580.168	1	10
580.338	1	-3
580.508	1	-3
580.678	1	-2
580.848	1	-6
581.017	1	9
581.187	1	9
581.357	1	-8
581.527	1	7
581.697	1	10
581.867	1	8
582.036	1	-3
582.206	1	10
582.376	1	12
582.546	1	2
582.716	1	-10
582.885	1	0
583.055	1	5
583.225	1	-8
583.395	1	5
583.565	1	1
583.735	1	-4
583.904	1	-4
584.074	1	8
584.244	1	5
584.414	1	-4
584.584	1	-2
584.753	1	7
584.923	1	2
585.093	1	4
585.263	1	-3
585.433	1	5
585.602	1	-10
585.772	1	-9
585.942	1	-5
586.112	1	7
586.282	1	3
586.451	1	-6
586.621	1	-2
586.791	1	4
586.961	1	-2
587.131	1	-1
587.300	1	-1
587.470	1	10
587.640	1	10
587.810	1	-1
587.980	1	4
588.149	1	-2
588.319	1	-5
588.489	1	4
588.659	1	0
588.829	1	7
588.998	1	13
589.168	1	5
589.338	1	-2
589.508	1	0
589.677	1	-1
589.847	1	0
590.017	1	14
590.187	1	-8
590.357	1	1
590.526	1	7
590.696	1	2
590.866	1	3
591.036	1	-4
591.205	1	23
591.375	1	-11
591.545	1	4
591.715	1	6
591.885	1	10
592.054	1	8
592.224	1	3
592.394	1	4
592.564	1	-3
592.733	1	8
592.903	1	3
593.073	1	1
593.243	1	8
593.412	1	8
593.582	1	3
593.752	1	3
593.922	1	5
594.091	1	0
594.261	1	1
594.431	1	1
594.601	1	6
594.771	1	6
594.940	1	5
595.110	1	2
595.280	1	2
595.450	1	-6
595.619	1	-2
595.789	1	5
595.959	1	-4
596.129	1	-2
596.298	1	-2
596.468	1	8
596.638	1	-1
596.808	1	8
596.977	1	11
597.147	1	6
597.317	1	-1
597.487	1	4
597.656	1	6
597.826	1	-3
597.996	1	10
598.166	1	-7
598.335	1	-6
598.505	1	8
598.675	1	4
598.844	1	1
599.014	1	2
599.184	1	-2
599.354	1	-5
599.523	1	1
599.693	1	1
599.863	1	8
600.033	1	-8
600.202	1	4
600.372	1	14
600.542	1	9
600.712	1	-2
600.881	1	0
601.051	1	14
601.221	1	11
601.390	1	-6
601.560	1	5
601.730	1	12
601.900	1	10
602.069	1	11
602.239	1	-3
602.409	1	-1
602.578	1	0
602.748	1	-5
602.918	1	4
603.088	1	1
603.257	1	6
603.427	1	0
603.597	1	3
603.767	1	9
603.936	1	3
604.106	1	6
604.276	1	3
604.445	1	10
604.615	1	-2
604.785	1	-6
604.954	1	-9
605.124	1	11
605.294	1	-5
605.464	1	-1
605.633	1	10
605.803	1	3
605.973	1	0
606.142	1	3
606.312	1	0
606.482	1	3
606.652	1	18
606.821	1	-8
606.991	1	-6
607.161	1	-6
607.330	1	2
607.500	1	5
607.670	1	-5
607.839	1	12
608.009	1	12
608.179	1	0
608.348	1	-3
608.518	1	-2
608.688	1	3
608.858	1	5
609.027	1	-6
609.197	1	-2
609.367	1	13
609.536	1	8
609.706	1	-4
609.876	1	-5
610.045	1	-5
610.215	1	4
610.385	1	0
610.554	1	7
610.724	1	12
610.894	1	-7
611.063	1	5
611.233	1	-3
611.403	1	-1
611.572	1	-5
611.742	1	9
611.912	1	6
612.081	1	-7
612.251	1	4
612.421	1	2
612.590	1	3
612.760	1	-1
612.930	1	-1
613.099	1	-4
613.269	1	18
613.439	1	1
613.608	1	-3
613.778	1	-1
613.948	1	2
614.117	1	-1
614.287	1	-3
614.457	1	3
614.626	1	6
614.796	1	3
614.966	1	5
615.135	1	1
615.305	1	13
615.475	1	4
615.644	1	6
615.814	1	2
615.984	1	5
616.153	1	-7
616.323	1	2
616.493	1	6
616.662	1	9
616.832	1	5
617.002	1	2
617.171	1	-1
617.341	1	3
617.511	1	-5
617.680	1	2
617.850	1	5
618.019	1	14
618.189	1	18
618.359	1	-3
618.528	1	-9
618.698	1	12
618.868	1	0
619.037	1	6
619.207	1	0
619.377	1	-9
619.546	1	3
619.716	1	-5
619.885	1	7
620.055	1	2
620.225	1	5
620.394	1	-1
620.564	1	15
620.734	1	8
620.903	1	-6
621.073	1	9
621.242	1	5
621.412	1	5
621.582	1	3
621.751	1	10
621.921	1	-5
622.091	1	4
622.260	1	-1
622.430	1	4
622.599	1	-6
622.769	1	0
622.939	1	4
623.108	1	5
623.278	1	-1
623.448	1	8
623.617	1	7
623.787	1	5
623.956	1	14
624.126	1	2
624.296	1	0
624.465	1	-4
624.635	1	13
624.804	1	5
624.974	1	6
625.144	1	15
625.313	1	6
625.483	1	-9
625.652	1	-10
625.822	1	2
625.992	1	-11
626.161	1	7
626.331	1	2
626.501	1	1
626.670	1	7
626.840	1	-2
627.009	1	5
627.179	1	4
627.348	1	11
627.518	1	-6
627.688	1	15
627.857	1	8
628.027	1	4
628.196	1	3
628.366	1	7
628.536	1	5
628.705	1	5
628.875	1	-3
629.044	1	-4
629.214	1	9
629.384	1	8
629.553	1	14
629.723	1	6
629.892	1	1
630.062	1	4
630.232	1	0
630.401	1	11
630.571	1	4
630.740	1	7
630.910	1	7
631.079	1	4
631.249	1	6
631.419	1	5
631.588	1	-10
631.758	1	6
631.927	1	5
632.097	1	2
632.266	1	-3
632.436	1	3
632.606	1	10
632.775	1	8
632.945	1	6
633.114	1	12
633.284	1	10
633.453	1	3
633.623	1	2
633.793	1	9
633.962	1	2
634.132	1	-4
634.301	1	2
634.471	1	12
634.640	1	0
634.810	1	-1
634.979	1	10
635.149	1	9
635.319	1	-2
635.488	1	6
635.658	1	5
635.827	1	0
635.997	1	-3
636.166	1	1
636.336	1	-2
636.505	1	11
636.675	1	2
636.845	1	8
637.014	1	5
637.184	1	12
637.353	1	7
637.523	1	6
637.692	1	10
637.862	1	0
638.031	1	1
638.201	1	7
638.370	1	7
638.540	1	12
638.710	1	3
638.879	1	-11
639.049	1	5
639.218	1	3
639.388	1	3
639.557	1	-5
639.727	1	4
639.896	1	8
640.066	1	5
640.235	1	9
640.405	1	14
640.574	1	1
640.744	1	-6
640.914	1	-7
641.083	1	-9
641.253	1	8
641.422	1	1
641.592	1	9
641.761	1	-3
641.931	1	-1
642.100	1	19
642.270	1	-3
642.439	1	6
642.609	1	6
642.778	1	1
642.948	1	-5
643.117	1	11
643.287	1	13
643.456	1	9
643.626	1	10
643.795	1	0
643.965	1	13
644.134	1	-5
644.304	1	8
644.473	1	3
644.643	1	12
644.812	1	-1
644.982	1	7
645.151	1	6
645.321	1	1
645.490	1	16
645.660	1	-4
645.829	1	-1
645.999	1	4
646.168	1	4
646.338	1	-3
646.507	1	3
646.677	1	3
646.846	1	1
647.016	1	-8
647.185	1	11
647.355	1	-2
647.524	1	11
647.694	1	9
647.863	1	4
648.033	1	14
648.202	1	4
648.372	1	6
648.541	1	4
648.711	1	5
648.880	1	0
649.050	1	-5
649.219	1	10
649.389	1	12
649.558	1	13
649.728	1	11
649.897	1	2
650.067	1	-2
650.236	1	21
650.406	1	8
650.575	1	12
650.745	1	13
650.914	1	0
651.084	1	5
651.253	1	-2
651.423	1	6
651.592	1	0
651.762	1	-14
651.931	1	10
652.101	1	6
652.270	1	14
652.440	1	8
652.609	1	4
652.778	1	-9
652.948	1	5
653.117	1	-1
653.287	1	-2
653.456	1	12
653.626	1	11
653.795	1	9
653.965	1	10
654.134	1	13
654.304	1	2
654.473	1	6
654.643	1	6
654.812	1	7
654.982	1	4
655.151	1	10
655.320	1	5
655.490	1	6
655.659	1	7
655.829	1	5
655.998	1	-7
656.168	1	-7
656.337	1	10
656.507	1	6
656.676	1	9
656.846	1	3
657.015	1	12
657.184	1	11
657.354	1	-3
657.523	1	4
657.693	1	2
657.862	1	8
658.032	1	5
658.201	1	0
658.371	1	17
658.540	1	1
658.709	1	2
658.879	1	13
659.048	1	5
659.218	1	0
659.387	1	4
659.557	1	-1
659.726	1	1
659.895	1	8
660.065	1	-4
660.234	1	3
660.404	1	3
660.573	1	-2
660.743	1	4
660.912	1	6
661.081	1	12
661.251	1	3
661.420	1	10
661.590	1	4
661.759	1	4
661.929	1	10
662.098	1	5
662.267	1	2
662.437	1	13
662.606	1	3
662.776	1	7
662.945	1	3
663.115	1	4
663.284	1	-11
663.453	1	7
663.623	1	7
663.792	1	5
663.962	1	8
664.131	1	11
664.300	1	12
664.470	1	1
664.639	1	11
664.809	1	0
664.978	1	12
665.148	1	-4
665.317	1	0
665.486	1	11
665.656	1	1
665.825	1	13
665.995	1	4
666.164	1	5
666.333	1	9
666.503	1	2
666.672	1	1
666.842	1	3
667.011	1	-5
667.180	1	3
667.350	1	1
667.519	1	-2
667.689	1	-7
667.858	1	13
668.027	1	21
668.197	1	9
668.366	1	-2
668.536	1	2
668.705	1	1
668.874	1	-2
669.044	1	2
669.213	1	18
669.382	1	-3
669.552	1	10
669.721	1	11
669.891	1	18
670.060	1	7
670.229	1	18
670.399	1	2
670.568	1	12
670.738	1	15
670.907	1	-5
671.076	1	-4
671.246	1	2
671.415	1	4
671.584	1	3
671.754	1	6
671.923	1	2
672.093	1	8
672.262	1	2
672.431	1	5
672.601	1	3
672.770	1	-4
672.939	1	9
673.109	1	-4
673.278	1	7
673.448	1	21
673.617	1	9
673.786	1	9
