325.333	1	5
325.504	1	-2
325.675	1	2
325.846	1	-1
326.017	1	3
326.188	1	0
326.359	1	-1
326.531	1	-9
326.702	1	-1
326.873	1	4
327.044	1	0
327.215	1	-7
327.386	1	3
327.557	1	0
327.728	1	-3
327.899	1	-4
328.070	1	10
328.241	1	4
328.412	1	-4
328.583	1	-1
328.754	1	2
328.926	1	0
329.097	1	-4
329.268	1	5
329.439	1	-5
329.610	1	-3
329.781	1	-8
329.952	1	4
330.123	1	8
330.294	1	-3
330.465	1	8
330.636	1	6
330.807	1	-2
330.978	1	-1
331.149	1	-2
331.320	1	7
331.492	1	-7
331.663	1	2
331.834	1	7
332.005	1	-13
332.176	1	6
332.347	1	4
332.518	1	-15
332.689	1	5
332.860	1	0
333.031	1	4
333.202	1	-7
333.373	1	0
333.544	1	2
333.715	1	7
333.886	1	-8
334.057	1	7
334.228	1	-3
334.399	1	-2
334.570	1	11
334.741	1	-9
334.912	1	2
335.084	1	18
335.255	1	0
335.426	1	-8
335.597	1	0
335.768	1	-7
335.939	1	6
336.110	1	-10
336.281	1	2
336.452	1	-7
336.623	1	-8
336.794	1	-1
336.965	1	5
337.136	1	5
337.307	1	0
337.478	1	-2
337.649	1	4
337.820	1	-2
337.991	1	-7
338.162	1	0
338.333	1	-7
338.504	1	-4
338.675	1	5
338.846	1	-5
339.017	1	-8
339.188	1	-7
339.359	1	-7
339.530	1	3
339.701	1	2
339.872	1	5
340.043	1	-11
340.214	1	-1
340.385	1	6
340.556	1	-4
340.727	1	0
340.898	1	10
341.069	1	6
341.240	1	-4
341.411	1	5
341.582	1	5
341.753	1	-8
341.924	1	-8
342.095	1	-4
342.266	1	5
342.437	1	-3
342.608	1	-8
342.779	1	10
342.950	1	0
343.121	1	0
343.292	1	-5
343.463	1	-2
343.634	1	-8
343.805	1	3
343.976	1	3
344.147	1	2
344.318	1	-2
344.489	1	-1
344.660	1	12
344.831	1	-4
345.002	1	-7
345.173	1	9
345.344	1	0
345.515	1	4
345.686	1	-5
345.857	1	-3
346.028	1	-6
346.199	1	-16
346.370	1	-1
346.541	1	-2
346.712	1	-7
346.883	1	1
347.054	1	-6
347.225	1	1
347.396	1	8
347.567	1	-6
347.738	1	-8
347.909	1	10
348.080	1	-12
348.251	1	2
348.422	1	2
348.593	1	1
348.764	1	-4
348.935	1	5
349.106	1	-13
349.277	1	-17
349.448	1	6
349.619	1	0
349.790	1	1
349.961	1	1
350.132	1	-4
350.303	1	0
350.474	1	7
350.645	1	3
350.816	1	-4
350.987	1	5
351.157	1	-6
351.328	1	1
351.499	1	1
351.670	1	-6
351.841	1	-5
352.012	1	10
352.183	1	7
352.354	1	3
352.525	1	14
352.696	1	6
352.867	1	-9
353.038	1	4
353.209	1	9
353.380	1	-4
353.551	1	-7
353.722	1	-9
353.893	1	-7
354.064	1	16
354.235	1	1
354.406	1	-9
354.576	1	-7
354.747	1	-5
354.918	1	2
355.089	1	-1
355.260	1	1
355.431	1	9
355.602	1	-10
355.773	1	0
355.944	1	-2
356.115	1	3
356.286	1	13
356.457	1	0
356.628	1	-6
356.799	1	-3
356.970	1	0
357.141	1	-2
357.311	1	-9
357.482	1	-13
357.653	1	-3
357.824	1	2
357.995	1	1
358.166	1	-13
358.337	1	4
358.508	1	6
358.679	1	0
358.850	1	-9
359.021	1	-4
359.192	1	5
359.363	1	-6
359.533	1	1
359.704	1	-2
359.875	1	-7
360.046	1	-2
360.217	1	0
360.388	1	0
360.559	1	-1
360.730	1	0
360.901	1	-1
361.072	1	9
361.243	1	9
361.414	1	6
361.584	1	3
361.755	1	10
361.926	1	0
362.097	1	-4
362.268	1	3
362.439	1	1
362.610	1	2
362.781	1	-1
362.952	1	-3
363.123	1	-4
363.293	1	-9
363.464	1	1
363.635	1	-3
363.806	1	1
363.977	1	0
364.148	1	-11
364.319	1	4
364.490	1	5
364.661	1	-2
364.832	1	10
365.002	1	6
365.173	1	6
365.344	1	1
365.515	1	-10
365.686	1	-4
365.857	1	4
366.028	1	5
366.199	1	-6
366.370	1	1
366.540	1	-12
366.711	1	-15
366.882	1	-8
367.053	1	-14
367.224	1	23
367.395	1	6
367.566	1	-6
367.737	1	3
367.908	1	12
368.078	1	3
368.249	1	0
368.420	1	-4
368.591	1	-6
368.762	1	-8
368.933	1	-9
369.104	1	0
369.274	1	-3
369.445	1	-9
369.616	1	-4
369.787	1	3
369.958	1	1
370.129	1	-9
370.300	1	14
370.471	1	-6
370.641	1	4
370.812	1	-10
370.983	1	11
371.154	1	-5
371.325	1	6
371.496	1	-5
371.667	1	11
371.837	1	-5
372.008	1	2
372.179	1	-4
372.350	1	12
372.521	1	8
372.692	1	3
372.863	1	7
373.033	1	-6
373.204	1	-10
373.375	1	5
373.546	1	-1
373.717	1	4
373.888	1	8
374.059	1	-4
374.229	1	8
374.400	1	-6
374.571	1	4
374.742	1	7
374.913	1	2
375.084	1	-5
375.254	1	4
375.425	1	0
375.596	1	-4
375.767	1	0
375.938	1	3
376.109	1	0
376.279	1	-2
376.450	1	-4
376.621	1	2
376.792	1	-4
376.963	1	1
377.134	1	8
377.304	1	4
377.475	1	-7
377.646	1	3
377.817	1	-11
377.988	1	-1
378.159	1	4
378.329	1	8
378.500	1	0
378.671	1	1
378.842	1	-2
379.013	1	-13
379.184	1	-2
379.354	1	1
379.525	1	0
379.696	1	1
379.867	1	2
380.038	1	-1
380.209	1	2
380.379	1	-11
380.550	1	-6
380.721	1	10
380.892	1	3
381.063	1	3
381.233	1	1
381.404	1	-7
381.575	1	12
381.746	1	-1
381.917	1	-3
382.087	1	-2
382.258	1	-8
382.429	1	6
382.600	1	0
382.771	1	-5
382.941	1	3
383.112	1	3
383.283	1	-2
383.454	1	8
383.625	1	-8
383.795	1	0
383.966	1	-1
384.137	1	2
384.308	1	4
384.479	1	3
384.649	1	6
384.820	1	4
384.991	1	-4
385.162	1	5
385.333	1	-10
385.503	1	-1
385.674	1	-8
385.845	1	9
386.016	1	2
386.187	1	-1
386.357	1	9
386.528	1	5
386.699	1	1
386.870	1	3
387.041	1	4
387.211	1	3
387.382	1	12
387.553	1	6
387.724	1	-9
387.894	1	-1
388.065	1	-3
388.236	1	-1
388.407	1	-7
388.578	1	-3
388.748	1	-5
388.919	1	9
389.090	1	3
389.261	1	5
389.431	1	-1
389.602	1	3
389.773	1	0
389.944	1	-6
390.114	1	6
390.285	1	-3
390.456	1	0
390.627	1	2
390.798	1	-9
390.968	1	-1
391.139	1	5
391.310	1	0
391.481	1	16
391.651	1	-2
391.822	1	-6
391.993	1	9
392.164	1	-13
392.334	1	2
392.505	1	-9
392.676	1	-2
392.847	1	11
393.017	1	5
393.188	1	-2
393.359	1	-8
393.530	1	19
393.700	1	0
393.871	1	2
394.042	1	-3
394.213	1	-5
394.383	1	3
394.554	1	-1
394.725	1	4
394.896	1	-11
395.066	1	10
395.237	1	3
395.408	1	-4
395.579	1	6
395.749	1	7
395.920	1	-14
396.091	1	-1
396.262	1	-1
396.432	1	-3
396.603	1	2
396.774	1	6
396.945	1	5
397.115	1	3
397.286	1	-9
397.457	1	-3
397.627	1	3
397.798	1	2
397.969	1	-1
398.140	1	0
398.310	1	-3
398.481	1	-1
398.652	1	0
398.823	1	-7
398.993	1	-10
399.164	1	4
399.335	1	5
399.505	1	4
399.676	1	-4
399.847	1	-3
400.018	1	-2
400.188	1	6
400.359	1	3
400.530	1	-3
400.700	1	-1
400.871	1	0
401.042	1	3
401.213	1	-8
401.383	1	6
401.554	1	3
401.725	1	7
401.895	1	-2
402.066	1	-2
402.237	1	12
402.408	1	2
402.578	1	-3
402.749	1	2
402.920	1	12
403.090	1	0
403.261	1	2
403.432	1	-8
403.603	1	-2
403.773	1	9
403.944	1	2
404.115	1	10
404.285	1	4
404.456	1	-5
404.627	1	-11
404.797	1	1
404.968	1	-10
405.139	1	-12
405.310	1	2
405.480	1	-2
405.651	1	-4
405.822	1	4
405.992	1	-2
406.163	1	5
406.334	1	-13
406.504	1	-1
406.675	1	10
406.846	1	-6
407.016	1	4
407.187	1	0
407.358	1	-6
407.528	1	-5
407.699	1	-2
407.870	1	-1
408.041	1	-2
408.211	1	3
408.382	1	-5
408.553	1	-2
408.723	1	-1
408.894	1	4
409.065	1	6
409.235	1	-7
409.406	1	-1
409.577	1	-12
409.747	1	6
409.918	1	-2
410.089	1	4
410.259	1	9
410.430	1	4
410.601	1	-3
410.771	1	1
410.942	1	12
411.113	1	3
411.283	1	-5
411.454	1	-2
411.625	1	3
411.795	1	4
411.966	1	0
412.137	1	3
412.307	1	-6
412.478	1	0
412.649	1	7
412.819	1	-2
412.990	1	-3
413.161	1	2
413.331	1	-4
413.502	1	5
413.672	1	6
413.843	1	-7
414.014	1	1
414.184	1	3
414.355	1	-7
414.526	1	2
414.696	1	10
414.867	1	0
415.038	1	-11
415.208	1	8
415.379	1	2
415.550	1	9
415.720	1	-8
415.891	1	-11
416.062	1	3
416.232	1	7
416.403	1	7
416.573	1	2
416.744	1	-2
416.915	1	-1
417.085	1	5
417.256	1	-2
417.427	1	-6
417.597	1	0
417.768	1	-10
417.939	1	-2
418.109	1	4
418.280	1	6
418.450	1	-2
418.621	1	-11
418.792	1	-6
418.962	1	-2
419.133	1	8
419.304	1	-5
419.474	1	-15
419.645	1	-4
419.815	1	1
419.986	1	-2
420.157	1	3
420.327	1	4
420.498	1	2
420.669	1	-1
420.839	1	3
421.010	1	4
421.180	1	8
421.351	1	-12
421.522	1	0
421.692	1	-5
421.863	1	-2
422.033	1	6
422.204	1	4
422.375	1	-5
422.545	1	10
422.716	1	-7
422.886	1	0
423.057	1	1
423.228	1	-2
423.398	1	-5
423.569	1	9
423.740	1	-10
423.910	1	-3
424.081	1	-3
424.251	1	-5
424.422	1	-2
424.593	1	-5
424.763	1	11
424.934	1	0
425.104	1	3
425.275	1	-1
425.445	1	-4
425.616	1	-8
425.787	1	-9
425.957	1	-2
426.128	1	-1
426.298	1	2
426.469	1	-7
426.640	1	-3
426.810	1	4
426.981	1	-3
427.151	1	-8
427.322	1	6
427.493	1	2
427.663	1	-1
427.834	1	-4
428.004	1	-1
428.175	1	0
428.345	1	-1
428.516	1	-8
428.687	1	-8
428.857	1	-8
429.028	1	-6
429.198	1	3
429.369	1	6
429.540	1	-8
429.710	1	-7
429.881	1	7
430.051	1	3
430.222	1	-5
430.392	1	4
430.563	1	7
430.734	1	7
430.904	1	5
431.075	1	4
431.245	1	-5
431.416	1	8
431.586	1	2
431.757	1	3
431.927	1	4
432.098	1	1
432.269	1	-2
432.439	1	-6
432.610	1	4
432.780	1	2
432.951	1	-4
433.121	1	0
433.292	1	9
433.462	1	8
433.633	1	2
433.804	1	-9
433.974	1	-3
434.145	1	17
434.315	1	-4
434.486	1	-1
434.656	1	-4
434.827	1	-2
434.997	1	-8
435.168	1	7
435.339	1	16
435.509	1	-1
435.680	1	-2
435.850	1	6
436.021	1	7
436.191	1	-1
436.362	1	1
436.532	1	0
436.703	1	0
436.873	1	10
437.044	1	-11
437.214	1	-1
437.385	1	-2
437.556	1	-4
437.726	1	9
437.897	1	1
438.067	1	3
438.238	1	-5
438.408	1	3
438.579	1	-3
438.749	1	-1
438.920	1	-4
439.090	1	2
439.261	1	-9
439.431	1	-4
439.602	1	-1
439.772	1	-8
439.943	1	11
440.113	1	4
440.284	1	0
440.455	1	0
440.625	1	3
440.796	1	-6
440.966	1	-3
441.137	1	-8
441.307	1	-2
441.478	1	9
441.648	1	8
441.819	1	-4
441.989	1	-1
442.160	1	0
442.330	1	3
442.501	1	-8
442.671	1	-11
442.842	1	-10
443.012	1	-5
443.183	1	7
443.353	1	-4
443.524	1	3
443.694	1	11
443.865	1	-3
444.035	1	2
444.206	1	-2
444.376	1	-5
444.547	1	14
444.717	1	3
444.888	1	-6
445.058	1	2
445.229	1	9
445.399	1	-8
445.570	1	-2
445.740	1	-3
445.911	1	-9
446.081	1	-14
446.252	1	6
446.422	1	-4
446.593	1	-6
446.763	1	-12
446.934	1	-6
447.104	1	6
447.275	1	-3
447.445	1	3
447.616	1	4
447.786	1	-11
447.957	1	2
448.127	1	0
448.298	1	6
448.468	1	-10
448.639	1	-2
448.809	1	1
448.979	1	-7
449.150	1	10
449.320	1	5
449.491	1	2
449.661	1	-9
449.832	1	-1
450.002	1	-3
450.173	1	-2
450.343	1	0
450.514	1	10
450.684	1	-2
450.855	1	0
451.025	1	-4
451.196	1	0
451.366	1	-3
451.537	1	-9
451.707	1	-11
451.878	1	-4
452.048	1	6
452.218	1	12
452.389	1	-2
452.559	1	-1
452.730	1	8
452.900	1	5
453.071	1	0
453.241	1	4
453.412	1	7
453.582	1	0
453.753	1	3
453.923	1	0
454.093	1	2
454.264	1	10
454.434	1	-7
454.605	1	4
454.775	1	1
454.946	1	2
455.116	1	2
455.287	1	-4
455.457	1	1
455.628	1	-4
455.798	1	6
455.968	1	3
456.139	1	-2
456.309	1	2
456.480	1	-14
456.650	1	-6
456.821	1	-12
456.991	1	7
457.161	1	9
457.332	1	4
457.502	1	-9
457.673	1	-3
457.843	1	4
458.014	1	0
458.184	1	4
458.355	1	1
458.525	1	11
458.695	1	1
458.866	1	5
459.036	1	4
459.207	1	-1
459.377	1	0
459.548	1	8
459.718	1	-1
459.888	1	-2
460.059	1	1
460.229	1	3
460.400	1	2
460.570	1	-2
460.740	1	2
460.911	1	-3
461.081	1	-1
461.252	1	2
461.422	1	3
461.593	1	-7
461.763	1	3
461.933	1	-4
462.104	1	-5
462.274	1	1
462.445	1	0
462.615	1	1
462.785	1	-1
462.956	1	4
463.126	1	3
463.297	1	-4
463.467	1	2
463.638	1	-2
463.808	1	-3
463.978	1	-4
464.149	1	-5
464.319	1	-3
464.490	1	12
464.660	1	-2
464.830	1	-6
465.001	1	3
465.171	1	0
465.342	1	2
465.512	1	-3
465.682	1	-7
465.853	1	3
466.023	1	-1
466.194	1	-8
466.364	1	2
466.534	1	2
466.705	1	3
466.875	1	-3
467.045	1	5
467.216	1	15
467.386	1	-5
467.557	1	-3
467.727	1	-8
467.897	1	-1
468.068	1	3
468.238	1	6
468.409	1	-3
468.579	1	9
468.749	1	2
468.920	1	1
469.090	1	1
469.260	1	-7
469.431	1	-2
469.601	1	8
469.772	1	3
469.942	1	-13
470.112	1	0
470.283	1	0
470.453	1	6
470.623	1	1
470.794	1	-7
470.964	1	0
471.135	1	6
471.305	1	-18
471.475	1	11
471.646	1	-8
471.816	1	-3
471.986	1	-5
472.157	1	4
472.327	1	-8
472.497	1	0
472.668	1	-14
472.838	1	-2
473.009	1	1
473.179	1	-4
473.349	1	-7
473.520	1	3
473.690	1	-8
473.860	1	0
474.031	1	12
474.201	1	-1
474.371	1	11
474.542	1	7
474.712	1	7
474.882	1	-2
475.053	1	5
475.223	1	-8
475.394	1	3
475.564	1	4
475.734	1	0
475.905	1	15
476.075	1	-2
476.245	1	9
476.416	1	-4
476.586	1	4
476.756	1	1
476.927	1	3
477.097	1	8
477.267	1	0
477.438	1	3
477.608	1	-1
477.778	1	-3
477.949	1	1
478.119	1	9
478.289	1	8
478.460	1	8
478.630	1	-6
478.800	1	4
478.971	1	0
479.141	1	-3
479.311	1	-8
479.482	1	3
479.652	1	0
479.822	1	-1
479.993	1	-5
480.163	1	7
480.333	1	4
480.504	1	4
480.674	1	-4
480.844	1	-6
481.015	1	16
481.185	1	-10
481.355	1	1
481.525	1	-2
481.696	1	-2
481.866	1	0
482.036	1	2
482.207	1	-2
482.377	1	2
482.547	1	-3
482.718	1	0
482.888	1	3
483.058	1	0
483.229	1	-1
483.399	1	-4
483.569	1	-1
483.740	1	2
483.910	1	-1
484.080	1	-1
484.250	1	12
484.421	1	-7
484.591	1	3
484.761	1	12
484.932	1	4
485.102	1	12
485.272	1	1
485.443	1	10
485.613	1	6
485.783	1	6
485.953	1	3
486.124	1	-1
486.294	1	3
486.464	1	0
486.635	1	-2
486.805	1	4
486.975	1	-5
487.146	1	3
487.316	1	-1
487.486	1	-11
487.656	1	-5
487.827	1	-2
487.997	1	-12
488.167	1	-3
488.338	1	10
488.508	1	-10
488.678	1	-6
488.848	1	0
489.019	1	-2
489.189	1	3
489.359	1	-4
489.529	1	3
489.700	1	-7
489.870	1	11
490.040	1	-3
490.211	1	-2
490.381	1	9
490.551	1	2
490.721	1	5
490.892	1	-1
491.062	1	1
491.232	1	4
491.402	1	-5
491.573	1	2
491.743	1	-3
491.913	1	-1
492.084	1	9
492.254	1	-8
492.424	1	-3
492.594	1	-7
492.765	1	2
492.935	1	3
493.105	1	-1
493.275	1	5
493.446	1	10
493.616	1	4
493.786	1	-6
493.956	1	-3
494.127	1	3
494.297	1	-8
494.467	1	0
494.637	1	-3
494.808	1	-1
494.978	1	-3
495.148	1	8
495.318	1	-7
495.489	1	3
495.659	1	5
495.829	1	-4
495.999	1	-5
496.170	1	1
496.340	1	-5
496.510	1	12
496.680	1	-18
496.851	1	-2
497.021	1	-6
497.191	1	-1
497.361	1	3
497.532	1	-4
497.702	1	-3
497.872	1	-3
498.042	1	4
498.213	1	1
498.383	1	8
498.553	1	-7
498.723	1	-5
498.894	1	0
499.064	1	0
499.234	1	5
499.404	1	7
499.574	1	10
499.745	1	11
499.915	1	-8
500.085	1	-3
500.255	1	9
500.426	1	9
500.596	1	1
500.766	1	-3
500.936	1	3
501.106	1	-3
501.277	1	0
501.447	1	-3
501.617	1	2
501.787	1	-12
501.958	1	-9
502.128	1	3
502.298	1	-2
502.468	1	-6
502.638	1	3
502.809	1	-11
502.979	1	1
503.149	1	-14
503.319	1	-8
503.489	1	-5
503.660	1	3
503.830	1	6
504.000	1	2
504.170	1	1
504.340	1	3
504.511	1	2
504.681	1	4
504.851	1	4
505.021	1	13
505.192	1	-2
505.362	1	10
505.532	1	-5
505.702	1	-7
505.872	1	-3
506.043	1	-5
506.213	1	-6
506.383	1	0
506.553	1	12
506.723	1	-1
506.893	1	2
507.064	1	12
507.234	1	2
507.404	1	-10
507.574	1	-5
507.744	1	4
507.915	1	2
508.085	1	11
508.255	1	1
508.425	1	-5
508.595	1	3
508.766	1	11
508.936	1	-17
509.106	1	12
509.276	1	12
509.446	1	-3
509.616	1	3
509.787	1	-3
509.957	1	-3
510.127	1	-2
510.297	1	-5
510.467	1	-11
510.638	1	0
510.808	1	-13
510.978	1	-8
511.148	1	1
511.318	1	-2
511.488	1	0
511.659	1	5
511.829	1	-4
511.999	1	-1
512.169	1	0
512.339	1	-6
512.509	1	-5
512.680	1	-3
512.850	1	-3
513.020	1	1
513.190	1	0
513.360	1	-9
513.530	1	6
513.700	1	3
513.871	1	0
514.041	1	4
514.211	1	6
514.381	1	10
514.551	1	-7
514.721	1	-3
514.892	1	-4
515.062	1	-6
515.232	1	5
515.402	1	-14
515.572	1	-14
515.742	1	1
515.912	1	2
516.083	1	-7
516.253	1	5
516.423	1	-6
516.593	1	1
516.763	1	10
516.933	1	-5
517.104	1	-1
517.274	1	-5
517.444	1	0
517.614	1	-10
517.784	1	-5
517.954	1	-3
518.124	1	-7
518.294	1	-2
518.465	1	-11
518.635	1	4
518.805	1	-21
518.975	1	-5
519.145	1	2
519.315	1	-5
519.485	1	-9
519.656	1	9
519.826	1	-5
519.996	1	-14
520.166	1	1
520.336	1	7
520.506	1	-6
520.676	1	-8
520.846	1	8
521.017	1	1
521.187	1	-10
521.357	1	-2
521.527	1	1
521.697	1	5
521.867	1	-1
522.037	1	4
522.207	1	9
522.377	1	2
522.548	1	-10
522.718	1	2
522.888	1	12
523.058	1	-5
523.228	1	4
523.398	1	6
523.568	1	-3
523.738	1	3
523.909	1	3
524.079	1	-5
524.249	1	1
524.419	1	-12
524.589	1	4
524.759	1	0
524.929	1	-11
525.099	1	1
525.269	1	2
525.439	1	-9
525.610	1	19
525.780	1	-2
525.950	1	-10
526.120	1	-2
526.290	1	5
526.460	1	-9
526.630	1	-4
526.800	1	4
526.970	1	4
527.140	1	-2
527.311	1	-11
527.481	1	-10
527.651	1	5
527.821	1	-6
527.991	1	5
528.161	1	2
528.331	1	-2
528.501	1	5
528.671	1	-9
528.841	1	-6
529.011	1	1
529.181	1	6
529.352	1	2
529.522	1	-6
529.692	1	4
529.862	1	1
530.032	1	9
530.202	1	6
530.372	1	6
530.542	1	-6
530.712	1	-5
530.882	1	2
531.052	1	0
531.222	1	-3
531.392	1	-1
531.563	1	7
531.733	1	-3
531.903	1	-4
532.073	1	3
532.243	1	-12
532.413	1	3
532.583	1	3
532.753	1	7
532.923	1	-13
533.093	1	-4
533.263	1	-6
533.433	1	3
533.603	1	1
533.773	1	-7
533.943	1	-7
534.113	1	5
534.284	1	-2
534.454	1	-1
534.624	1	4
534.794	1	-6
534.964	1	2
535.134	1	-6
535.304	1	-3
535.474	1	8
535.644	1	-12
535.814	1	-7
535.984	1	-11
536.154	1	-13
536.324	1	-11
536.494	1	2
536.664	1	7
536.834	1	-1
537.004	1	-1
537.174	1	6
537.344	1	0
537.514	1	-12
537.685	1	6
537.855	1	-1
538.025	1	1
538.195	1	-3
538.365	1	9
538.535	1	5
538.705	1	-5
538.875	1	-3
539.045	1	6
539.215	1	-3
539.385	1	-1
539.555	1	0
539.725	1	3
539.895	1	5
540.065	1	2
540.235	1	1
540.405	1	-7
540.575	1	-5
540.745	1	-6
540.915	1	6
541.085	1	-2
541.255	1	-6
541.425	1	7
541.595	1	-3
541.765	1	3
541.935	1	-3
542.105	1	-1
542.275	1	5
542.445	1	-6
542.615	1	3
542.785	1	-2
542.955	1	-5
543.125	1	-1
543.295	1	1
543.465	1	3
543.635	1	4
543.805	1	16
543.975	1	-8
544.145	1	4
544.315	1	-1
544.485	1	0
544.655	1	0
544.825	1	-20
544.995	1	-2
545.165	1	-5
545.335	1	2
545.505	1	-8
545.675	1	3
545.845	1	8
546.015	1	-2
546.185	1	5
546.355	1	3
546.525	1	2
546.695	1	6
546.865	1	2
547.035	1	2
547.205	1	-12
547.375	1	9
547.545	1	10
547.715	1	-8
547.885	1	5
548.055	1	-4
548.225	1	4
548.395	1	-9
548.565	1	4
548.735	1	-8
548.905	1	-6
549.075	1	3
549.245	1	2
549.415	1	-11
549.585	1	6
549.755	1	1
549.925	1	-12
550.095	1	3
550.265	1	3
550.435	1	-10
550.605	1	0
550.775	1	-6
550.945	1	3
551.115	1	-3
551.285	1	1
551.455	1	-11
551.625	1	-4
551.795	1	5
551.965	1	-2
552.135	1	-2
552.305	1	-4
552.475	1	-8
552.645	1	-1
552.815	1	-1
552.985	1	6
553.155	1	1
553.325	1	3
553.495	1	0
553.665	1	-4
553.835	1	1
554.004	1	3
554.174	1	2
554.344	1	1
554.514	1	6
554.684	1	-10
554.854	1	8
555.024	1	0
555.194	1	-10
555.364	1	1
555.534	1	-3
555.704	1	-3
555.874	1	3
556.044	1	-5
556.214	1	-2
556.384	1	-2
556.554	1	13
556.724	1	8
556.894	1	3
557.064	1	-5
557.234	1	-9
557.404	1	3
557.573	1	3
557.743	1	-4
557.913	1	-5
558.083	1	1
558.253	1	1
558.423	1	-8
558.593	1	-6
558.763	1	-6
558.933	1	-4
559.103	1	1
559.273	1	-1
559.443	1	2
559.613	1	0
559.783	1	0
559.953	1	-1
560.122	1	2
560.292	1	-4
560.462	1	0
560.632	1	-6
560.802	1	2
560.972	1	4
561.142	1	1
561.312	1	-5
561.482	1	-2
561.652	1	8
561.822	1	-10
561.992	1	-4
562.162	1	-1
562.331	1	-4
562.501	1	-8
562.671	1	1
562.841	1	-14
563.011	1	2
563.181	1	-17
563.351	1	-7
563.521	1	6
563.691	1	-15
563.861	1	0
564.031	1	7
564.201	1	10
564.370	1	2
564.540	1	7
564.710	1	-4
564.880	1	8
565.050	1	6
565.220	1	-2
565.390	1	7
565.560	1	-1
565.730	1	3
565.900	1	3
566.069	1	11
566.239	1	-3
566.409	1	10
566.579	1	2
566.749	1	-8
566.919	1	3
567.089	1	-5
567.259	1	7
567.429	1	-5
567.599	1	-11
567.768	1	4
567.938	1	0
568.108	1	1
568.278	1	-4
568.448	1	-2
568.618	1	-4
568.788	1	-5
568.958	1	-7
569.128	1	7
569.297	1	0
569.467	1	-5
569.637	1	2
569.807	1	6
569.977	1	11
570.147	1	-2
570.317	1	-6
570.487	1	-2
570.656	1	3
570.826	1	-3
570.996	1	-9
571.166	1	11
571.336	1	-4
571.506	1	1
571.676	1	0
571.846	1	8
572.015	1	3
572.185	1	0
572.355	1	7
572.525	1	6
572.695	1	1
572.865	1	-12
573.035	1	3
573.205	1	6
573.374	1	1
573.544	1	-3
573.714	1	7
573.884	1	10
574.054	1	6
574.224	1	-2
574.394	1	-1
574.563	1	-8
574.733	1	-5
574.903	1	-3
575.073	1	-7
575.243	1	-1
575.413	1	6
575.583	1	-10
575.752	1	5
575.922	1	3
576.092	1	1
576.262	1	6
576.432	1	0
576.602	1	2
576.772	1	12
576.941	1	-2
577.111	1	-12
577.281	1	-4
577.451	1	-15
577.621	1	4
577.791	1	-3
577.960	1	-5
578.130	1	2
578.300	1	4
578.470	1	6
578.640	1	-4
578.810	1	-6
578.979	1	4
579.149	1	3
579.319	1	-6
579.489	1	-2
579.659	1	-12
579.829	1	-1
579.998	1	4
580.168	1	12
580.338	1	-1
580.508	1	5
580.678	1	-1
580.848	1	-8
581.017	1	-5
581.187	1	-1
581.357	1	-2
581.527	1	-1
581.697	1	4
581.867	1	5
582.036	1	0
582.206	1	5
582.376	1	4
582.546	1	-3
582.716	1	-3
582.885	1	-13
583.055	1	-2
583.225	1	-13
583.395	1	0
583.565	1	-5
583.735	1	-3
583.904	1	2
584.074	1	3
584.244	1	-5
584.414	1	-1
584.584	1	7
584.753	1	-8
584.923	1	3
585.093	1	3
585.263	1	7
585.433	1	1
585.602	1	-13
585.772	1	-3
585.942	1	-6
586.112	1	-7
586.282	1	-1
586.451	1	-6
586.621	1	4
586.791	1	0
586.961	1	2
587.131	1	2
587.300	1	2
587.470	1	10
587.640	1	-2
587.810	1	2
587.980	1	3
588.149	1	7
588.319	1	0
588.489	1	-4
588.659	1	1
588.829	1	3
588.998	1	6
589.168	1	7
589.338	1	-1
589.508	1	11
589.677	1	-12
589.847	1	-6
590.017	1	12
590.187	1	-10
590.357	1	6
590.526	1	9
590.696	1	-1
590.866	1	8
591.036	1	0
591.205	1	9
591.375	1	-6
591.545	1	-2
591.715	1	11
591.885	1	1
592.054	1	-1
592.224	1	-6
592.394	1	3
592.564	1	-7
592.733	1	0
592.903	1	4
593.073	1	-7
593.243	1	3
593.412	1	6
593.582	1	-2
593.752	1	-7
593.922	1	1
594.091	1	1
594.261	1	-5
594.431	1	-8
594.601	1	6
594.771	1	1
594.940	1	0
595.110	1	-4
595.280	1	-1
595.450	1	-3
595.619	1	8
595.789	1	1
595.959	1	16
596.129	1	-7
596.298	1	8
596.468	1	4
596.638	1	11
596.808	1	5
596.977	1	2
597.147	1	7
597.317	1	-10
597.487	1	7
597.656	1	-1
597.826	1	-2
597.996	1	3
598.166	1	2
598.335	1	-13
598.505	1	2
598.675	1	-4
598.844	1	0
599.014	1	-3
599.184	1	7
599.354	1	-5
599.523	1	2
599.693	1	-12
599.863	1	5
600.033	1	-1
600.202	1	-2
600.372	1	14
600.542	1	6
600.712	1	-7
600.881	1	-9
601.051	1	8
601.221	1	0
601.390	1	-8
601.560	1	5
601.730	1	-1
601.900	1	2
602.069	1	9
602.239	1	-9
602.409	1	-8
602.578	1	-10
602.748	1	3
602.918	1	5
603.088	1	4
603.257	1	2
603.427	1	-8
603.597	1	2
603.767	1	10
603.936	1	-4
604.106	1	-2
604.276	1	5
604.445	1	-3
604.615	1	-5
604.785	1	-2
604.954	1	-3
605.124	1	3
605.294	1	0
605.464	1	-7
605.633	1	-1
605.803	1	3
605.973	1	-3
606.142	1	-2
606.312	1	7
606.482	1	6
606.652	1	3
606.821	1	-5
606.991	1	4
607.161	1	-3
607.330	1	0
607.500	1	-11
607.670	1	-9
607.839	1	7
608.009	1	10
608.179	1	3
608.348	1	5
608.518	1	-3
608.688	1	14
608.858	1	-6
609.027	1	-11
609.197	1	2
609.367	1	11
609.536	1	0
609.706	1	-11
609.876	1	1
610.045	1	-6
610.215	1	-3
610.385	1	-3
610.554	1	3
610.724	1	3
610.894	1	-6
611.063	1	2
611.233	1	-5
611.403	1	-5
611.572	1	9
611.742	1	13
611.912	1	-11
612.081	1	-3
612.251	1	5
612.421	1	-6
612.590	1	4
612.760	1	-5
612.930	1	2
613.099	1	-5
613.269	1	3
613.439	1	0
613.608	1	-6
613.778	1	6
613.948	1	-1
614.117	1	-5
614.287	1	5
614.457	1	0
614.626	1	0
614.796	1	13
614.966	1	1
615.135	1	-2
615.305	1	0
615.475	1	-3
615.644	1	0
615.814	1	3
615.984	1	1
616.153	1	-8
616.323	1	-3
616.493	1	3
616.662	1	9
616.832	1	-1
617.002	1	4
617.171	1	1
617.341	1	1
617.511	1	-5
617.680	1	-8
617.850	1	5
618.019	1	9
618.189	1	0
618.359	1	-2
618.528	1	-3
618.698	1	1
618.868	1	-9
619.037	1	-4
619.207	1	-4
619.377	1	-13
619.546	1	-4
619.716	1	4
619.885	1	-4
620.055	1	4
620.225	1	1
620.394	1	-7
620.564	1	5
620.734	1	6
620.903	1	-2
621.073	1	4
621.242	1	7
621.412	1	2
621.582	1	-9
621.751	1	2
621.921	1	2
622.091	1	-7
622.260	1	-11
622.430	1	8
622.599	1	-1
622.769	1	1
622.939	1	-6
623.108	1	-4
623.278	1	-14
623.448	1	-4
623.617	1	-4
623.787	1	2
623.956	1	1
624.126	1	-3
624.296	1	-2
624.465	1	0
624.635	1	10
624.804	1	5
624.974	1	-5
625.144	1	4
625.313	1	-6
625.483	1	-4
625.652	1	2
625.822	1	-14
625.992	1	0
626.161	1	4
626.331	1	6
626.501	1	0
626.670	1	-10
626.840	1	-6
627.009	1	-11
627.179	1	8
627.348	1	-5
627.518	1	-7
627.688	1	5
627.857	1	-2
628.027	1	-4
628.196	1	-2
628.366	1	9
628.536	1	-3
628.705	1	-8
628.875	1	-1
629.044	1	-5
629.214	1	0
629.384	1	-4
629.553	1	11
629.723	1	4
629.892	1	-1
630.062	1	7
630.232	1	-4
630.401	1	9
630.571	1	2
630.740	1	7
630.910	1	8
631.079	1	0
631.249	1	2
631.419	1	5
631.588	1	-3
631.758	1	6
631.927	1	-6
632.097	1	-7
632.266	1	-8
632.436	1	10
632.606	1	-5
632.775	1	11
632.945	1	1
633.114	1	8
633.284	1	5
633.453	1	3
633.623	1	-2
633.793	1	9
633.962	1	-11
634.132	1	-1
634.301	1	-1
634.471	1	6
634.640	1	4
634.810	1	-6
634.979	1	3
635.149	1	4
635.319	1	4
635.488	1	1
635.658	1	-8
635.827	1	-10
635.997	1	-3
636.166	1	3
636.336	1	-10
636.505	1	11
636.675	1	-12
636.845	1	2
637.014	1	4
637.184	1	-1
637.353	1	9
637.523	1	3
637.692	1	2
637.862	1	1
638.031	1	0
638.201	1	4
638.370	1	2
638.540	1	8
638.710	1	6
638.879	1	-8
639.049	1	0
639.218	1	1
639.388	1	-3
639.557	1	0
639.727	1	0
639.896	1	-2
640.066	1	0
640.235	1	7
640.405	1	2
640.574	1	5
640.744	1	-9
640.914	1	-8
641.083	1	0
641.253	1	-2
641.422	1	-1
641.592	1	7
641.761	1	-6
641.931	1	-3
642.100	1	24
642.270	1	-3
642.439	1	15
642.609	1	-5
642.778	1	-2
642.948	1	-9
643.117	1	5
643.287	1	-4
643.456	1	-10
643.626	1	10
643.795	1	-1
643.965	1	5
644.134	1	-9
644.304	1	3
644.473	1	-4
644.643	1	2
644.812	1	-4
644.982	1	0
645.151	1	-5
645.321	1	-8
645.490	1	6
645.660	1	-9
645.829	1	1
645.999	1	-3
646.168	1	3
646.338	1	-4
646.507	1	-5
646.677	1	7
646.846	1	-4
647.016	1	-11
647.185	1	5
647.355	1	-9
647.524	1	14
647.694	1	5
647.863	1	0
648.033	1	5
648.202	1	-7
648.372	1	-3
648.541	1	-8
648.711	1	-2
648.880	1	-6
649.050	1	-4
649.219	1	-1
649.389	1	-1
649.558	1	-1
649.728	1	5
649.897	1	-8
650.067	1	2
650.236	1	0
650.406	1	-1
650.575	1	3
650.745	1	9
650.914	1	-2
651.084	1	-9
651.253	1	2
651.423	1	8
651.592	1	-1
651.762	1	-9
651.931	1	6
652.101	1	3
652.270	1	0
652.440	1	4
652.609	1	-4
652.778	1	-2
652.948	1	5
653.117	1	-2
653.287	1	-2
653.456	1	4
653.626	1	0
653.795	1	3
653.965	1	-3
654.134	1	2
654.304	1	-12
654.473	1	5
654.643	1	-4
654.812	1	-1
654.982	1	-5
655.151	1	-3
655.320	1	-4
655.490	1	-5
655.659	1	-7
655.829	1	4
655.998	1	-5
656.168	1	-3
656.337	1	6
656.507	1	-4
656.676	1	17
656.846	1	11
657.015	1	-3
657.184	1	-4
657.354	1	-1
657.523	1	7
657.693	1	11
657.862	1	7
658.032	1	0
658.201	1	2
658.371	1	5
658.540	1	0
658.709	1	-2
658.879	1	5
659.048	1	2
659.218	1	4
659.387	1	5
659.557	1	-1
659.726	1	1
659.895	1	-11
660.065	1	-11
660.234	1	-2
660.404	1	10
660.573	1	-3
660.743	1	-8
660.912	1	6
661.081	1	17
661.251	1	-8
661.420	1	-2
661.590	1	1
661.759	1	4
661.929	1	2
662.098	1	7
662.267	1	-3
662.437	1	4
662.606	1	1
662.776	1	4
662.945	1	6
663.115	1	-3
663.284	1	-8
663.453	1	9
663.623	1	-7
663.792	1	0
663.962	1	1
664.131	1	5
664.300	1	5
664.470	1	-2
664.639	1	3
664.809	1	2
664.978	1	-4
665.148	1	5
665.317	1	-2
665.486	1	7
665.656	1	-3
665.825	1	10
665.995	1	-3
666.164	1	-4
666.333	1	-1
666.503	1	-2
666.672	1	3
666.842	1	-9
667.011	1	7
667.180	1	4
667.350	1	-8
667.519	1	-5
667.689	1	3
667.858	1	-4
668.027	1	-2
668.197	1	0
668.366	1	-7
668.536	1	-3
668.705	1	0
668.874	1	7
669.044	1	-3
669.213	1	2
669.382	1	-16
669.552	1	17
669.721	1	3
669.891	1	11
670.060	1	8
670.229	1	15
670.399	1	-1
670.568	1	0
670.738	1	2
670.907	1	-6
671.076	1	-3
671.246	1	-5
671.415	1	3
671.584	1	5
671.754	1	-2
671.923	1	0
672.093	1	3
672.262	1	-3
672.431	1	5
672.601	1	5
672.770	1	-9
672.939	1	9
673.109	1	-5
673.278	1	4
673.448	1	11
673.617	1	-13
673.786	1	6
