325.333	1	16
325.504	1	7
325.675	1	-1
325.846	1	3
326.017	1	7
326.188	1	5
326.359	1	2
326.531	1	0
326.702	1	2
326.873	1	8
327.044	1	-5
327.215	1	5
327.386	1	-4
327.557	1	3
327.728	1	-5
327.899	1	-2
328.070	1	16
328.241	1	10
328.412	1	4
328.583	1	12
328.754	1	4
328.926	1	12
329.097	1	-9
329.268	1	2
329.439	1	-3
329.610	1	11
329.781	1	7
329.952	1	6
330.123	1	3
330.294	1	10
330.465	1	6
330.636	1	12
330.807	1	-6
330.978	1	13
331.149	1	2
331.320	1	-1
331.492	1	2
331.663	1	1
331.834	1	20
332.005	1	12
332.176	1	15
332.347	1	9
332.518	1	-1
332.689	1	10
332.860	1	-1
333.031	1	15
333.202	1	7
333.373	1	5
333.544	1	3
333.715	1	19
333.886	1	-4
334.057	1	12
334.228	1	-7
334.399	1	11
334.570	1	17
334.741	1	1
334.912	1	11
335.084	1	27
335.255	1	0
335.426	1	-3
335.597	1	1
335.768	1	5
335.939	1	11
336.110	1	10
336.281	1	-3
336.452	1	7
336.623	1	7
336.794	1	7
336.965	1	5
337.136	1	15
337.307	1	9
337.478	1	2
337.649	1	2
337.820	1	3
337.991	1	3
338.162	1	4
338.333	1	10
338.504	1	7
338.675	1	5
338.846	1	12
339.017	1	5
339.188	1	3
339.359	1	-4
339.530	1	0
339.701	1	3
339.872	1	16
340.043	1	0
340.214	1	4
340.385	1	11
340.556	1	-3
340.727	1	6
340.898	1	16
341.069	1	6
341.240	1	5
341.411	1	3
341.582	1	15
341.753	1	4
341.924	1	5
342.095	1	14
342.266	1	9
342.437	1	11
342.608	1	11
342.779	1	7
342.950	1	16
343.121	1	11
343.292	1	7
343.463	1	14
343.634	1	12
343.805	1	16
343.976	1	18
344.147	1	8
344.318	1	5
344.489	1	9
344.660	1	19
344.831	1	14
345.002	1	5
345.173	1	16
345.344	1	9
345.515	1	15
345.686	1	6
345.857	1	9
346.028	1	13
346.199	1	4
346.370	1	9
346.541	1	15
346.712	1	3
346.883	1	16
347.054	1	2
347.225	1	17
347.396	1	19
347.567	1	5
347.738	1	2
347.909	1	24
348.080	1	7
348.251	1	16
348.422	1	23
348.593	1	18
348.764	1	6
348.935	1	7
349.106	1	5
349.277	1	13
349.448	1	12
349.619	1	9
349.790	1	21
349.961	1	20
350.132	1	7
350.303	1	22
350.474	1	23
350.645	1	16
350.816	1	11
350.987	1	15
351.157	1	0
351.328	1	12
351.499	1	28
351.670	1	9
351.841	1	22
352.012	1	19
352.183	1	28
352.354	1	15
352.525	1	19
352.696	1	20
352.867	1	20
353.038	1	22
353.209	1	21
353.380	1	19
353.551	1	14
353.722	1	9
353.893	1	6
354.064	1	21
354.235	1	21
354.406	1	9
354.576	1	13
354.747	1	15
354.918	1	20
355.089	1	29
355.260	1	24
355.431	1	25
355.602	1	14
355.773	1	17
355.944	1	14
356.115	1	23
356.286	1	17
356.457	1	23
356.628	1	26
356.799	1	21
356.970	1	25
357.141	1	22
357.311	1	20
357.482	1	16
357.653	1	15
357.824	1	23
357.995	1	9
358.166	1	13
358.337	1	19
358.508	1	26
358.679	1	8
358.850	1	16
359.021	1	13
359.192	1	16
359.363	1	18
359.533	1	13
359.704	1	12
359.875	1	7
360.046	1	27
360.217	1	11
360.388	1	22
360.559	1	11
360.730	1	21
360.901	1	16
361.072	1	30
361.243	1	17
361.414	1	21
361.584	1	17
361.755	1	28
361.926	1	13
362.097	1	13
362.268	1	18
362.439	1	10
362.610	1	32
362.781	1	13
362.952	1	13
363.123	1	10
363.293	1	18
363.464	1	19
363.635	1	21
363.806	1	22
363.977	1	17
364.148	1	25
364.319	1	16
364.490	1	21
364.661	1	24
364.832	1	23
365.002	1	20
365.173	1	19
365.344	1	21
365.515	1	12
365.686	1	24
365.857	1	26
366.028	1	10
366.199	1	20
366.370	1	19
366.540	1	15
366.711	1	2
366.882	1	14
367.053	1	6
367.224	1	36
367.395	1	14
367.566	1	22
367.737	1	29
367.908	1	18
368.078	1	20
368.249	1	26
368.420	1	11
368.591	1	12
368.762	1	23
368.933	1	19
369.104	1	22
369.274	1	29
369.445	1	19
369.616	1	19
369.787	1	25
369.958	1	23
370.129	1	14
370.300	1	25
370.471	1	19
370.641	1	16
370.812	1	31
370.983	1	15
371.154	1	11
371.325	1	20
371.496	1	28
371.667	1	25
371.837	1	18
372.008	1	16
372.179	1	13
372.350	1	34
372.521	1	32
372.692	1	17
372.863	1	25
373.033	1	14
373.204	1	10
373.375	1	19
373.546	1	26
373.717	1	30
373.888	1	33
374.059	1	29
374.229	1	28
374.400	1	20
374.571	1	26
374.742	1	23
374.913	1	20
375.084	1	20
375.254	1	22
375.425	1	30
375.596	1	25
375.767	1	23
375.938	1	25
376.109	1	33
376.279	1	15
376.450	1	27
376.621	1	35
376.792	1	20
376.963	1	28
377.134	1	44
377.304	1	25
377.475	1	16
377.646	1	33
377.817	1	24
377.988	1	14
378.159	1	33
378.329	1	26
378.500	1	15
378.671	1	30
378.842	1	15
379.013	1	15
379.184	1	17
379.354	1	23
379.525	1	16
379.696	1	27
379.867	1	30
380.038	1	23
380.209	1	24
380.379	1	18
380.550	1	21
380.721	1	32
380.892	1	20
381.063	1	30
381.233	1	26
381.404	1	26
381.575	1	38
381.746	1	23
381.917	1	22
382.087	1	25
382.258	1	17
382.429	1	18
382.600	1	32
382.771	1	22
382.941	1	24
383.112	1	21
383.283	1	32
383.454	1	31
383.625	1	18
383.795	1	16
383.966	1	33
384.137	1	33
384.308	1	34
384.479	1	33
384.649	1	19
384.820	1	33
384.991	1	26
385.162	1	25
385.333	1	22
385.503	1	22
385.674	1	16
385.845	1	38
386.016	1	25
386.187	1	24
386.357	1	41
386.528	1	23
386.699	1	14
386.870	1	37
387.041	1	35
387.211	1	32
387.382	1	35
387.553	1	40
387.724	1	29
387.894	1	23
388.065	1	27
388.236	1	35
388.407	1	26
388.578	1	30
388.748	1	31
388.919	1	42
389.090	1	37
389.261	1	40
389.431	1	35
389.602	1	40
389.773	1	38
389.944	1	25
390.114	1	35
390.285	1	34
390.456	1	26
390.627	1	31
390.798	1	35
390.968	1	24
391.139	1	36
391.310	1	34
391.481	1	27
391.651	1	36
391.822	1	30
391.993	1	37
392.164	1	24
392.334	1	30
392.505	1	33
392.676	1	39
392.847	1	49
393.017	1	38
393.188	1	36
393.359	1	19
393.530	1	40
393.700	1	28
393.871	1	15
394.042	1	35
394.213	1	26
394.383	1	33
394.554	1	32
394.725	1	44
394.896	1	29
395.066	1	34
395.237	1	33
395.408	1	37
395.579	1	37
395.749	1	35
395.920	1	31
396.091	1	37
396.262	1	43
396.432	1	37
396.603	1	49
396.774	1	46
396.945	1	30
397.115	1	36
397.286	1	28
397.457	1	29
397.627	1	36
397.798	1	33
397.969	1	33
398.140	1	25
398.310	1	29
398.481	1	37
398.652	1	41
398.823	1	32
398.993	1	30
399.164	1	45
399.335	1	32
399.505	1	35
399.676	1	34
399.847	1	26
400.018	1	36
400.188	1	37
400.359	1	33
400.530	1	42
400.700	1	35
400.871	1	41
401.042	1	34
401.213	1	32
401.383	1	32
401.554	1	42
401.725	1	42
401.895	1	36
402.066	1	35
402.237	1	35
402.408	1	38
402.578	1	44
402.749	1	38
402.920	1	34
403.090	1	27
403.261	1	36
403.432	1	44
403.603	1	36
403.773	1	48
403.944	1	48
404.115	1	46
404.285	1	40
404.456	1	39
404.627	1	30
404.797	1	26
404.968	1	28
405.139	1	32
405.310	1	41
405.480	1	46
405.651	1	33
405.822	1	35
405.992	1	31
406.163	1	41
406.334	1	20
406.504	1	36
406.675	1	41
406.846	1	30
407.016	1	33
407.187	1	36
407.358	1	32
407.528	1	25
407.699	1	24
407.870	1	32
408.041	1	38
408.211	1	50
408.382	1	33
408.553	1	32
408.723	1	39
408.894	1	38
409.065	1	41
409.235	1	41
409.406	1	47
409.577	1	31
409.747	1	52
409.918	1	34
410.089	1	43
410.259	1	39
410.430	1	31
410.601	1	37
410.771	1	32
410.942	1	52
411.113	1	32
411.283	1	34
411.454	1	41
411.625	1	41
411.795	1	50
411.966	1	34
412.137	1	48
412.307	1	25
412.478	1	33
412.649	1	40
412.819	1	38
412.990	1	22
413.161	1	42
413.331	1	42
413.502	1	35
413.672	1	37
413.843	1	25
414.014	1	29
414.184	1	38
414.355	1	33
414.526	1	42
414.696	1	35
414.867	1	34
415.038	1	24
415.208	1	26
415.379	1	38
415.550	1	33
415.720	1	26
415.891	1	29
416.062	1	36
416.232	1	49
416.403	1	41
416.573	1	39
416.744	1	31
416.915	1	45
417.085	1	34
417.256	1	31
417.427	1	45
417.597	1	28
417.768	1	28
417.939	1	41
418.109	1	34
418.280	1	46
418.450	1	26
418.621	1	27
418.792	1	37
418.962	1	32
419.133	1	44
419.304	1	29
419.474	1	36
419.645	1	37
419.815	1	36
419.986	1	41
420.157	1	33
420.327	1	37
420.498	1	48
420.669	1	36
420.839	1	43
421.010	1	43
421.180	1	48
421.351	1	32
421.522	1	46
421.692	1	33
421.863	1	39
422.033	1	37
422.204	1	39
422.375	1	37
422.545	1	46
422.716	1	23
422.886	1	36
423.057	1	40
423.228	1	30
423.398	1	34
423.569	1	45
423.740	1	24
423.910	1	27
424.081	1	28
424.251	1	36
424.422	1	38
424.593	1	29
424.763	1	35
424.934	1	37
425.104	1	39
425.275	1	37
425.445	1	39
425.616	1	25
425.787	1	28
425.957	1	39
426.128	1	32
426.298	1	40
426.469	1	23
426.640	1	34
426.810	1	31
426.981	1	19
427.151	1	30
427.322	1	36
427.493	1	26
427.663	1	38
427.834	1	30
428.004	1	34
428.175	1	32
428.345	1	39
428.516	1	18
428.687	1	30
428.857	1	24
429.028	1	25
429.198	1	27
429.369	1	43
429.540	1	30
429.710	1	20
429.881	1	41
430.051	1	27
430.222	1	32
430.392	1	29
430.563	1	36
430.734	1	41
430.904	1	35
431.075	1	27
431.245	1	33
431.416	1	39
431.586	1	32
431.757	1	30
431.927	1	27
432.098	1	38
432.269	1	28
432.439	1	24
432.610	1	26
432.780	1	50
432.951	1	30
433.121	1	38
433.292	1	42
433.462	1	38
433.633	1	34
433.804	1	30
433.974	1	40
434.145	1	43
434.315	1	32
434.486	1	30
434.656	1	34
434.827	1	30
434.997	1	32
435.168	1	47
435.339	1	37
435.509	1	31
435.680	1	37
435.850	1	40
436.021	1	28
436.191	1	34
436.362	1	28
436.532	1	41
436.703	1	34
436.873	1	35
437.044	1	19
437.214	1	30
437.385	1	28
437.556	1	20
437.726	1	43
437.897	1	33
438.067	1	23
438.238	1	30
438.408	1	35
438.579	1	28
438.749	1	27
438.920	1	22
439.090	1	36
439.261	1	17
439.431	1	30
439.602	1	31
439.772	1	17
439.943	1	46
440.113	1	35
440.284	1	27
440.455	1	31
440.625	1	32
440.796	1	26
440.966	1	26
441.137	1	30
441.307	1	28
441.478	1	31
441.648	1	34
441.819	1	29
441.989	1	29
442.160	1	37
442.330	1	24
442.501	1	27
442.671	1	18
442.842	1	21
443.012	1	20
443.183	1	25
443.353	1	32
443.524	1	32
443.694	1	31
443.865	1	31
444.035	1	28
444.206	1	29
444.376	1	22
444.547	1	35
444.717	1	25
444.888	1	17
445.058	1	38
445.229	1	30
445.399	1	19
445.570	1	34
445.740	1	20
445.911	1	18
446.081	1	24
446.252	1	35
446.422	1	23
446.593	1	21
446.763	1	25
446.934	1	15
447.104	1	23
447.275	1	26
447.445	1	23
447.616	1	27
447.786	1	23
447.957	1	21
448.127	1	21
448.298	1	36
448.468	1	20
448.639	1	19
448.809	1	29
448.979	1	19
449.150	1	32
449.320	1	29
449.491	1	30
449.661	1	29
449.832	1	12
450.002	1	29
450.173	1	20
450.343	1	21
450.514	1	21
450.684	1	21
450.855	1	21
451.025	1	14
451.196	1	20
451.366	1	32
451.537	1	16
451.707	1	18
451.878	1	29
452.048	1	34
452.218	1	25
452.389	1	34
452.559	1	17
452.730	1	31
452.900	1	34
453.071	1	16
453.241	1	20
453.412	1	36
453.582	1	17
453.753	1	17
453.923	1	25
454.093	1	24
454.264	1	37
454.434	1	18
454.605	1	27
454.775	1	13
454.946	1	12
455.116	1	27
455.287	1	11
455.457	1	13
455.628	1	14
455.798	1	27
455.968	1	24
456.139	1	23
456.309	1	24
456.480	1	18
456.650	1	20
456.821	1	10
456.991	1	24
457.161	1	22
457.332	1	29
457.502	1	17
457.673	1	21
457.843	1	20
458.014	1	19
458.184	1	20
458.355	1	18
458.525	1	16
458.695	1	15
458.866	1	16
459.036	1	15
459.207	1	13
459.377	1	12
459.548	1	26
459.718	1	0
459.888	1	27
460.059	1	27
460.229	1	24
460.400	1	28
460.570	1	25
460.740	1	31
460.911	1	25
461.081	1	20
461.252	1	25
461.422	1	15
461.593	1	14
461.763	1	8
461.933	1	28
462.104	1	13
462.274	1	31
462.445	1	24
462.615	1	29
462.785	1	22
462.956	1	28
463.126	1	28
463.297	1	9
463.467	1	12
463.638	1	24
463.808	1	4
463.978	1	10
464.149	1	21
464.319	1	22
464.490	1	31
464.660	1	16
464.830	1	12
465.001	1	22
465.171	1	26
465.342	1	29
465.512	1	7
465.682	1	15
465.853	1	15
466.023	1	15
466.194	1	18
466.364	1	31
466.534	1	16
466.705	1	18
466.875	1	13
467.045	1	22
467.216	1	31
467.386	1	16
467.557	1	10
467.727	1	11
467.897	1	14
468.068	1	17
468.238	1	14
468.409	1	16
468.579	1	28
468.749	1	18
468.920	1	7
469.090	1	17
469.260	1	10
469.431	1	20
469.601	1	23
469.772	1	21
469.942	1	6
470.112	1	22
470.283	1	13
470.453	1	17
470.623	1	13
470.794	1	13
470.964	1	26
471.135	1	24
471.305	1	9
471.475	1	21
471.646	1	19
471.816	1	14
471.986	1	11
472.157	1	26
472.327	1	17
472.497	1	21
472.668	1	11
472.838	1	12
473.009	1	17
473.179	1	12
473.349	1	6
473.520	1	28
473.690	1	16
473.860	1	14
474.031	1	12
474.201	1	11
474.371	1	26
474.542	1	15
474.712	1	17
474.882	1	28
475.053	1	27
475.223	1	13
475.394	1	32
475.564	1	23
475.734	1	22
475.905	1	34
476.075	1	20
476.245	1	25
476.416	1	18
476.586	1	20
476.756	1	15
476.927	1	17
477.097	1	18
477.267	1	10
477.438	1	19
477.608	1	14
477.778	1	24
477.949	1	24
478.119	1	23
478.289	1	19
478.460	1	26
478.630	1	24
478.800	1	15
478.971	1	10
479.141	1	13
479.311	1	0
479.482	1	17
479.652	1	12
479.822	1	9
479.993	1	24
480.163	1	21
480.333	1	15
480.504	1	16
480.674	1	11
480.844	1	1
481.015	1	14
481.185	1	6
481.355	1	23
481.525	1	0
481.696	1	17
481.866	1	20
482.036	1	14
482.207	1	8
482.377	1	13
482.547	1	13
482.718	1	17
482.888	1	24
483.058	1	14
483.229	1	14
483.399	1	9
483.569	1	11
483.740	1	29
483.910	1	7
484.080	1	7
484.250	1	15
484.421	1	15
484.591	1	17
484.761	1	18
484.932	1	13
485.102	1	15
485.272	1	21
485.443	1	19
485.613	1	9
485.783	1	17
485.953	1	8
486.124	1	21
486.294	1	13
486.464	1	12
486.635	1	19
486.805	1	23
486.975	1	-1
487.146	1	14
487.316	1	16
487.486	1	12
487.656	1	6
487.827	1	19
487.997	1	1
488.167	1	9
488.338	1	16
488.508	1	4
488.678	1	18
488.848	1	20
489.019	1	6
489.189	1	4
489.359	1	16
489.529	1	9
489.700	1	6
489.870	1	21
490.040	1	7
490.211	1	4
490.381	1	15
490.551	1	12
490.721	1	22
490.892	1	8
491.062	1	10
491.232	1	18
491.402	1	7
491.573	1	-2
491.743	1	14
491.913	1	7
492.084	1	20
492.254	1	13
492.424	1	12
492.594	1	15
492.765	1	17
492.935	1	7
493.105	1	13
493.275	1	20
493.446	1	15
493.616	1	18
493.786	1	10
493.956	1	8
494.127	1	12
494.297	1	6
494.467	1	6
494.637	1	16
494.808	1	12
494.978	1	5
495.148	1	11
495.318	1	7
495.489	1	20
495.659	1	11
495.829	1	5
495.999	1	0
496.170	1	17
496.340	1	16
496.510	1	16
496.680	1	6
496.851	1	10
497.021	1	10
497.191	1	4
497.361	1	9
497.532	1	4
497.702	1	5
497.872	1	12
498.042	1	14
498.213	1	10
498.383	1	3
498.553	1	0
498.723	1	4
498.894	1	13
499.064	1	4
499.234	1	10
499.404	1	13
499.574	1	13
499.745	1	21
499.915	1	5
500.085	1	7
500.255	1	20
500.426	1	13
500.596	1	5
500.766	1	8
500.936	1	8
501.106	1	6
501.277	1	6
501.447	1	1
501.617	1	10
501.787	1	7
501.958	1	13
502.128	1	4
502.298	1	15
502.468	1	15
502.638	1	11
502.809	1	10
502.979	1	0
503.149	1	-5
503.319	1	0
503.489	1	16
503.660	1	15
503.830	1	13
504.000	1	16
504.170	1	6
504.340	1	-5
504.511	1	10
504.681	1	5
504.851	1	13
505.021	1	6
505.192	1	3
505.362	1	13
505.532	1	5
505.702	1	2
505.872	1	11
506.043	1	6
506.213	1	8
506.383	1	-1
506.553	1	15
506.723	1	5
506.893	1	17
507.064	1	19
507.234	1	13
507.404	1	5
507.574	1	16
507.744	1	13
507.915	1	5
508.085	1	18
508.255	1	9
508.425	1	5
508.595	1	8
508.766	1	21
508.936	1	-4
509.106	1	8
509.276	1	13
509.446	1	5
509.616	1	3
509.787	1	5
509.957	1	5
510.127	1	8
510.297	1	4
510.467	1	-7
510.638	1	11
510.808	1	-1
510.978	1	-1
511.148	1	8
511.318	1	8
511.488	1	-13
511.659	1	-1
511.829	1	-3
511.999	1	5
512.169	1	10
512.339	1	6
512.509	1	6
512.680	1	10
512.850	1	1
513.020	1	6
513.190	1	14
513.360	1	-2
513.530	1	3
513.700	1	5
513.871	1	2
514.041	1	6
514.211	1	5
514.381	1	6
514.551	1	13
514.721	1	0
514.892	1	3
515.062	1	1
515.232	1	9
515.402	1	3
515.572	1	-3
515.742	1	14
515.912	1	10
516.083	1	-2
516.253	1	13
516.423	1	4
516.593	1	5
516.763	1	16
516.933	1	4
517.104	1	1
517.274	1	8
517.444	1	1
517.614	1	-3
517.784	1	12
517.954	1	10
518.124	1	11
518.294	1	4
518.465	1	0
518.635	1	5
518.805	1	5
518.975	1	7
519.145	1	-1
519.315	1	2
519.485	1	-1
519.656	1	8
519.826	1	10
519.996	1	-3
520.166	1	11
520.336	1	11
520.506	1	0
520.676	1	-5
520.846	1	12
521.017	1	6
521.187	1	2
521.357	1	20
521.527	1	2
521.697	1	3
521.867	1	1
522.037	1	13
522.207	1	14
522.377	1	4
522.548	1	12
522.718	1	7
522.888	1	15
523.058	1	2
523.228	1	13
523.398	1	4
523.568	1	6
523.738	1	4
523.909	1	13
524.079	1	13
524.249	1	6
524.419	1	6
524.589	1	5
524.759	1	-7
524.929	1	10
525.099	1	16
525.269	1	9
525.439	1	2
525.610	1	16
525.780	1	5
525.950	1	5
526.120	1	-5
526.290	1	4
526.460	1	3
526.630	1	9
526.800	1	3
526.970	1	9
527.140	1	10
527.311	1	5
527.481	1	3
527.651	1	16
527.821	1	-1
527.991	1	10
528.161	1	9
528.331	1	-5
528.501	1	2
528.671	1	5
528.841	1	13
529.011	1	-5
529.181	1	10
529.352	1	3
529.522	1	7
529.692	1	3
529.862	1	-1
530.032	1	13
530.202	1	4
530.372	1	2
530.542	1	3
530.712	1	14
530.882	1	10
531.052	1	12
531.222	1	0
531.392	1	3
531.563	1	8
531.733	1	2
531.903	1	-2
532.073	1	15
532.243	1	5
532.413	1	13
532.583	1	0
532.753	1	11
532.923	1	-1
533.093	1	1
533.263	1	2
533.433	1	7
533.603	1	-1
533.773	1	1
533.943	1	5
534.113	1	5
534.284	1	11
534.454	1	13
534.624	1	20
534.794	1	-10
534.964	1	11
535.134	1	-2
535.304	1	-2
535.474	1	5
535.644	1	0
535.814	1	-1
535.984	1	-5
536.154	1	-7
536.324	1	1
536.494	1	9
536.664	1	13
536.834	1	8
537.004	1	2
537.174	1	8
537.344	1	3
537.514	1	-9
537.685	1	2
537.855	1	11
538.025	1	14
538.195	1	11
538.365	1	13
538.535	1	3
538.705	1	-3
538.875	1	0
539.045	1	5
539.215	1	7
539.385	1	4
539.555	1	13
539.725	1	-1
539.895	1	2
540.065	1	13
540.235	1	10
540.405	1	1
540.575	1	0
540.745	1	0
540.915	1	10
541.085	1	11
541.255	1	2
541.425	1	2
541.595	1	7
541.765	1	12
541.935	1	5
542.105	1	2
542.275	1	8
542.445	1	-9
542.615	1	2
542.785	1	3
542.955	1	2
543.125	1	3
543.295	1	12
543.465	1	9
543.635	1	5
543.805	1	8
543.975	1	9
544.145	1	1
544.315	1	3
544.485	1	10
544.655	1	1
544.825	1	-8
544.995	1	8
545.165	1	-6
545.335	1	6
545.505	1	-8
545.675	1	12
545.845	1	9
546.015	1	10
546.185	1	7
546.355	1	1
546.525	1	4
546.695	1	12
546.865	1	-6
547.035	1	7
547.205	1	-8
547.375	1	3
547.545	1	13
547.715	1	2
547.885	1	4
548.055	1	-1
548.225	1	7
548.395	1	-1
548.565	1	8
548.735	1	0
548.905	1	-2
549.075	1	1
549.245	1	9
549.415	1	0
549.585	1	9
549.755	1	6
549.925	1	-2
550.095	1	10
550.265	1	5
550.435	1	-2
550.605	1	-7
550.775	1	1
550.945	1	10
551.115	1	0
551.285	1	9
551.455	1	-1
551.625	1	11
551.795	1	15
551.965	1	-6
552.135	1	3
552.305	1	3
552.475	1	-7
552.645	1	-2
552.815	1	5
552.985	1	9
553.155	1	12
553.325	1	-2
553.495	1	-3
553.665	1	-7
553.835	1	-3
554.004	1	6
554.174	1	2
554.344	1	11
554.514	1	-1
554.684	1	9
554.854	1	5
555.024	1	-9
555.194	1	-9
555.364	1	0
555.534	1	-8
555.704	1	0
555.874	1	10
556.044	1	-2
556.214	1	-5
556.384	1	-6
556.554	1	7
556.724	1	6
556.894	1	-6
557.064	1	6
557.234	1	-3
557.404	1	3
557.573	1	0
557.743	1	10
557.913	1	-9
558.083	1	-3
558.253	1	-2
558.423	1	-16
558.593	1	7
558.763	1	-8
558.933	1	2
559.103	1	13
559.273	1	1
559.443	1	4
559.613	1	18
559.783	1	3
559.953	1	-1
560.122	1	8
560.292	1	-3
560.462	1	2
560.632	1	9
560.802	1	1
560.972	1	3
561.142	1	7
561.312	1	1
561.482	1	5
561.652	1	2
561.822	1	0
561.992	1	-1
562.162	1	-6
562.331	1	-6
562.501	1	-7
562.671	1	0
562.841	1	-8
563.011	1	15
563.181	1	4
563.351	1	-2
563.521	1	4
563.691	1	-5
563.861	1	3
564.031	1	5
564.201	1	13
564.370	1	-4
564.540	1	5
564.710	1	-4
564.880	1	6
565.050	1	6
565.220	1	-1
565.390	1	-6
565.560	1	4
565.730	1	-2
565.900	1	3
566.069	1	11
566.239	1	6
566.409	1	8
566.579	1	7
566.749	1	6
566.919	1	4
567.089	1	8
567.259	1	14
567.429	1	5
567.599	1	4
567.768	1	-1
567.938	1	2
568.108	1	3
568.278	1	0
568.448	1	-1
568.618	1	4
568.788	1	6
568.958	1	1
569.128	1	15
569.297	1	-1
569.467	1	0
569.637	1	0
569.807	1	1
569.977	1	7
570.147	1	15
570.317	1	0
570.487	1	5
570.656	1	11
570.826	1	-2
570.996	1	-1
571.166	1	14
571.336	1	4
571.506	1	7
571.676	1	12
571.846	1	7
572.015	1	9
572.185	1	0
572.355	1	5
572.525	1	3
572.695	1	5
572.865	1	-12
573.035	1	-2
573.205	1	0
573.374	1	2
573.544	1	-5
573.714	1	16
573.884	1	12
574.054	1	4
574.224	1	-2
574.394	1	7
574.563	1	-1
574.733	1	-2
574.903	1	4
575.073	1	-1
575.243	1	1
575.413	1	-1
575.583	1	-11
575.752	1	7
575.922	1	2
576.092	1	5
576.262	1	13
576.432	1	9
576.602	1	2
576.772	1	19
576.941	1	0
577.111	1	4
577.281	1	-6
577.451	1	1
577.621	1	-3
577.791	1	17
577.960	1	1
578.130	1	1
578.300	1	1
578.470	1	14
578.640	1	5
578.810	1	0
578.979	1	-1
579.149	1	-8
579.319	1	-5
579.489	1	-8
579.659	1	1
579.829	1	1
579.998	1	0
580.168	1	8
580.338	1	1
580.508	1	0
580.678	1	4
580.848	1	0
581.017	1	1
581.187	1	5
581.357	1	-7
581.527	1	7
581.697	1	2
581.867	1	4
582.036	1	0
582.206	1	3
582.376	1	12
582.546	1	-9
582.716	1	-5
582.885	1	-5
583.055	1	-2
583.225	1	-6
583.395	1	1
583.565	1	0
583.735	1	8
583.904	1	2
584.074	1	7
584.244	1	6
584.414	1	-1
584.584	1	9
584.753	1	2
584.923	1	2
585.093	1	-5
585.263	1	-6
585.433	1	4
585.602	1	-7
585.772	1	2
585.942	1	11
586.112	1	3
586.282	1	-3
586.451	1	-12
586.621	1	2
586.791	1	-3
586.961	1	0
587.131	1	3
587.300	1	4
587.470	1	11
587.640	1	11
587.810	1	-8
587.980	1	-6
588.149	1	0
588.319	1	4
588.489	1	-2
588.659	1	2
588.829	1	3
588.998	1	4
589.168	1	15
589.338	1	-4
589.508	1	-1
589.677	1	-13
589.847	1	-9
590.017	1	17
590.187	1	-11
590.357	1	9
590.526	1	8
590.696	1	4
590.866	1	9
591.036	1	3
591.205	1	11
591.375	1	-5
591.545	1	-2
591.715	1	5
591.885	1	4
592.054	1	4
592.224	1	3
592.394	1	9
592.564	1	-1
592.733	1	6
592.903	1	5
593.073	1	5
593.243	1	1
593.412	1	10
593.582	1	-8
593.752	1	4
593.922	1	3
594.091	1	-4
594.261	1	-8
594.431	1	4
594.601	1	3
594.771	1	7
594.940	1	6
595.110	1	0
595.280	1	6
595.450	1	-8
595.619	1	5
595.789	1	2
595.959	1	1
596.129	1	3
596.298	1	-6
596.468	1	-2
596.638	1	1
596.808	1	-3
596.977	1	8
597.147	1	5
597.317	1	-14
597.487	1	-4
597.656	1	-1
597.826	1	-2
597.996	1	1
598.166	1	8
598.335	1	-8
598.505	1	-3
598.675	1	-4
598.844	1	8
599.014	1	-5
599.184	1	-2
599.354	1	-11
599.523	1	13
599.693	1	-9
599.863	1	9
600.033	1	-5
600.202	1	1
600.372	1	2
600.542	1	10
600.712	1	7
600.881	1	-10
601.051	1	12
601.221	1	11
601.390	1	-2
601.560	1	7
601.730	1	8
601.900	1	6
602.069	1	4
602.239	1	-5
602.409	1	-7
602.578	1	-1
602.748	1	-3
602.918	1	12
603.088	1	9
603.257	1	10
603.427	1	-3
603.597	1	6
603.767	1	4
603.936	1	2
604.106	1	-11
604.276	1	3
604.445	1	15
604.615	1	1
604.785	1	3
604.954	1	-4
605.124	1	0
605.294	1	5
605.464	1	0
605.633	1	8
605.803	1	5
605.973	1	-10
606.142	1	6
606.312	1	2
606.482	1	-5
606.652	1	6
606.821	1	-1
606.991	1	-2
607.161	1	1
607.330	1	-4
607.500	1	1
607.670	1	-10
607.839	1	3
608.009	1	8
608.179	1	5
608.348	1	4
608.518	1	2
608.688	1	26
608.858	1	-1
609.027	1	-5
609.197	1	5
609.367	1	8
609.536	1	10
609.706	1	1
609.876	1	8
610.045	1	-2
610.215	1	5
610.385	1	-10
610.554	1	9
610.724	1	10
610.894	1	0
611.063	1	4
611.233	1	3
611.403	1	5
611.572	1	-9
611.742	1	6
611.912	1	-1
612.081	1	-8
612.251	1	7
612.421	1	4
612.590	1	-1
612.760	1	0
612.930	1	8
613.099	1	6
613.269	1	10
613.439	1	0
613.608	1	-1
613.778	1	8
613.948	1	1
614.117	1	12
614.287	1	3
614.457	1	11
614.626	1	6
614.796	1	0
614.966	1	-2
615.135	1	-1
615.305	1	4
615.475	1	5
615.644	1	4
615.814	1	8
615.984	1	4
616.153	1	-9
616.323	1	-3
616.493	1	-1
616.662	1	10
616.832	1	5
617.002	1	6
617.171	1	9
617.341	1	-2
617.511	1	-2
617.680	1	-3
617.850	1	2
618.019	1	3
618.189	1	21
618.359	1	1
618.528	1	4
618.698	1	6
618.868	1	-1
619.037	1	4
619.207	1	-2
619.377	1	3
619.546	1	3
619.716	1	-3
619.885	1	-3
620.055	1	-8
620.225	1	10
620.394	1	-1
620.564	1	13
620.734	1	9
620.903	1	-11
621.073	1	9
621.242	1	7
621.412	1	-8
621.582	1	-7
621.751	1	11
621.921	1	12
622.091	1	-1
622.260	1	1
622.430	1	11
622.599	1	4
622.769	1	8
622.939	1	2
623.108	1	1
623.278	1	-5
623.448	1	1
623.617	1	0
623.787	1	3
623.956	1	12
624.126	1	0
624.296	1	-1
624.465	1	6
624.635	1	12
624.804	1	8
624.974	1	4
625.144	1	11
625.313	1	1
625.483	1	5
625.652	1	-8
625.822	1	5
625.992	1	-1
626.161	1	12
626.331	1	-2
626.501	1	7
626.670	1	-6
626.840	1	-6
627.009	1	-1
627.179	1	8
627.348	1	9
627.518	1	-1
627.688	1	1
627.857	1	17
628.027	1	-4
628.196	1	9
628.366	1	11
628.536	1	7
628.705	1	4
628.875	1	1
629.044	1	-1
629.214	1	4
629.384	1	7
629.553	1	10
629.723	1	10
629.892	1	-2
630.062	1	3
630.232	1	2
630.401	1	12
630.571	1	2
630.740	1	10
630.910	1	6
631.079	1	12
631.249	1	2
631.419	1	8
631.588	1	-5
631.758	1	12
631.927	1	-6
632.097	1	1
632.266	1	-5
632.436	1	8
632.606	1	3
632.775	1	11
632.945	1	3
633.114	1	14
633.284	1	3
633.453	1	-1
633.623	1	-1
633.793	1	13
633.962	1	8
634.132	1	1
634.301	1	3
634.471	1	7
634.640	1	11
634.810	1	5
634.979	1	13
635.149	1	8
635.319	1	4
635.488	1	2
635.658	1	-2
635.827	1	-6
635.997	1	-1
636.166	1	-2
636.336	1	0
636.505	1	9
636.675	1	-8
636.845	1	2
637.014	1	7
637.184	1	2
637.353	1	10
637.523	1	13
637.692	1	0
637.862	1	8
638.031	1	1
638.201	1	11
638.370	1	-1
638.540	1	15
638.710	1	5
638.879	1	-6
639.049	1	4
639.218	1	-1
639.388	1	-2
639.557	1	3
639.727	1	3
639.896	1	3
640.066	1	-1
640.235	1	2
640.405	1	9
640.574	1	3
640.744	1	-6
640.914	1	2
641.083	1	3
641.253	1	5
641.422	1	10
641.592	1	13
641.761	1	-3
641.931	1	7
642.100	1	17
642.270	1	-1
642.439	1	7
642.609	1	13
642.778	1	6
642.948	1	6
643.117	1	14
643.287	1	6
643.456	1	4
643.626	1	13
643.795	1	2
643.965	1	3
644.134	1	1
644.304	1	0
644.473	1	4
644.643	1	11
644.812	1	4
644.982	1	5
645.151	1	1
645.321	1	-2
645.490	1	11
645.660	1	-5
645.829	1	11
645.999	1	-1
646.168	1	7
646.338	1	8
646.507	1	0
646.677	1	18
646.846	1	-2
647.016	1	-10
647.185	1	11
647.355	1	-5
647.524	1	14
647.694	1	15
647.863	1	0
648.033	1	2
648.202	1	5
648.372	1	0
648.541	1	0
648.711	1	3
648.880	1	7
649.050	1	3
649.219	1	13
649.389	1	8
649.558	1	11
649.728	1	10
649.897	1	3
650.067	1	6
650.236	1	10
650.406	1	7
650.575	1	11
650.745	1	13
650.914	1	1
651.084	1	3
651.253	1	3
651.423	1	15
651.592	1	3
651.762	1	6
651.931	1	11
652.101	1	13
652.270	1	8
652.440	1	15
652.609	1	0
652.778	1	6
652.948	1	15
653.117	1	4
653.287	1	0
653.456	1	4
653.626	1	3
653.795	1	0
653.965	1	9
654.134	1	4
654.304	1	-8
654.473	1	16
654.643	1	5
654.812	1	-1
654.982	1	6
655.151	1	0
655.320	1	6
655.490	1	3
655.659	1	5
655.829	1	-1
655.998	1	-3
656.168	1	6
656.337	1	13
656.507	1	11
656.676	1	14
656.846	1	16
657.015	1	17
657.184	1	7
657.354	1	2
657.523	1	5
657.693	1	16
657.862	1	13
658.032	1	5
658.201	1	2
658.371	1	10
658.540	1	2
658.709	1	6
658.879	1	21
659.048	1	1
659.218	1	-3
659.387	1	14
659.557	1	10
659.726	1	6
659.895	1	-1
660.065	1	3
660.234	1	12
660.404	1	12
660.573	1	0
660.743	1	1
660.912	1	8
661.081	1	12
661.251	1	3
661.420	1	11
661.590	1	9
661.759	1	14
661.929	1	10
662.098	1	15
662.267	1	6
662.437	1	10
662.606	1	8
662.776	1	1
662.945	1	5
663.115	1	4
663.284	1	-1
663.453	1	12
663.623	1	11
663.792	1	8
663.962	1	10
664.131	1	1
664.300	1	15
664.470	1	3
664.639	1	2
664.809	1	7
664.978	1	11
665.148	1	2
665.317	1	5
665.486	1	8
665.656	1	9
665.825	1	12
665.995	1	1
666.164	1	8
666.333	1	3
666.503	1	5
666.672	1	-1
666.842	1	5
667.011	1	0
667.180	1	4
667.350	1	0
667.519	1	2
667.689	1	4
667.858	1	0
668.027	1	13
668.197	1	3
668.366	1	2
668.536	1	9
668.705	1	8
668.874	1	-2
669.044	1	7
669.213	1	19
669.382	1	-3
669.552	1	7
669.721	1	6
669.891	1	12
670.060	1	9
670.229	1	17
670.399	1	8
670.568	1	24
670.738	1	9
670.907	1	-5
671.076	1	3
671.246	1	5
671.415	1	9
671.584	1	3
671.754	1	2
671.923	1	0
672.093	1	8
672.262	1	-2
672.431	1	13
672.601	1	-6
672.770	1	-9
672.939	1	5
673.109	1	-4
673.278	1	9
673.448	1	15
673.617	1	7
673.786	1	13
