325.333	1	15
325.504	1	14
325.675	1	11
325.846	1	8
326.017	1	8
326.188	1	10
326.359	1	5
326.531	1	-12
326.702	1	-1
326.873	1	10
327.044	1	-4
327.215	1	5
327.386	1	11
327.557	1	-5
327.728	1	5
327.899	1	9
328.070	1	17
328.241	1	2
328.412	1	-12
328.583	1	7
328.754	1	1
328.926	1	9
329.097	1	0
329.268	1	13
329.439	1	-1
329.610	1	5
329.781	1	-4
329.952	1	15
330.123	1	2
330.294	1	2
330.465	1	13
330.636	1	9
330.807	1	1
330.978	1	9
331.149	1	6
331.320	1	9
331.492	1	8
331.663	1	2
331.834	1	19
332.005	1	3
332.176	1	15
332.347	1	11
332.518	1	0
332.689	1	16
332.860	1	0
333.031	1	5
333.202	1	6
333.373	1	7
333.544	1	4
333.715	1	6
333.886	1	-3
334.057	1	6
334.228	1	1
334.399	1	-2
334.570	1	16
334.741	1	-1
334.912	1	9
335.084	1	13
335.255	1	8
335.426	1	0
335.597	1	0
335.768	1	-2
335.939	1	19
336.110	1	-2
336.281	1	-8
336.452	1	1
336.623	1	2
336.794	1	7
336.965	1	11
337.136	1	16
337.307	1	7
337.478	1	7
337.649	1	15
337.820	1	1
337.991	1	-2
338.162	1	4
338.333	1	1
338.504	1	8
338.675	1	6
338.846	1	6
339.017	1	4
339.188	1	4
339.359	1	5
339.530	1	3
339.701	1	6
339.872	1	16
340.043	1	6
340.214	1	10
340.385	1	11
340.556	1	-3
340.727	1	16
340.898	1	18
341.069	1	10
341.240	1	13
341.411	1	11
341.582	1	12
341.753	1	-3
341.924	1	-1
342.095	1	4
342.266	1	17
342.437	1	14
342.608	1	7
342.779	1	9
342.950	1	10
343.121	1	7
343.292	1	-2
343.463	1	9
343.634	1	6
343.805	1	12
343.976	1	5
344.147	1	12
344.318	1	2
344.489	1	7
344.660	1	12
344.831	1	4
345.002	1	5
345.173	1	9
345.344	1	6
345.515	1	17
345.686	1	10
345.857	1	9
346.028	1	5
346.199	1	7
346.370	1	10
346.541	1	10
346.712	1	-1
346.883	1	10
347.054	1	7
347.225	1	4
347.396	1	14
347.567	1	11
347.738	1	1
347.909	1	23
348.080	1	-4
348.251	1	17
348.422	1	14
348.593	1	12
348.764	1	11
348.935	1	7
349.106	1	4
349.277	1	7
349.448	1	20
349.619	1	10
349.790	1	9
349.961	1	15
350.132	1	14
350.303	1	5
350.474	1	21
350.645	1	10
350.816	1	12
350.987	1	17
351.157	1	6
351.328	1	15
351.499	1	10
351.670	1	10
351.841	1	17
352.012	1	20
352.183	1	15
352.354	1	14
352.525	1	11
352.696	1	20
352.867	1	10
353.038	1	21
353.209	1	13
353.380	1	19
353.551	1	8
353.722	1	11
353.893	1	9
354.064	1	23
354.235	1	13
354.406	1	16
354.576	1	21
354.747	1	2
354.918	1	11
355.089	1	18
355.260	1	18
355.431	1	24
355.602	1	11
355.773	1	20
355.944	1	11
356.115	1	10
356.286	1	9
356.457	1	17
356.628	1	18
356.799	1	16
356.970	1	18
357.141	1	13
357.311	1	10
357.482	1	7
357.653	1	20
357.824	1	15
357.995	1	23
358.166	1	4
358.337	1	5
358.508	1	25
358.679	1	9
358.850	1	21
359.021	1	5
359.192	1	18
359.363	1	14
359.533	1	11
359.704	1	12
359.875	1	20
360.046	1	18
360.217	1	1
360.388	1	18
360.559	1	11
360.730	1	24
360.901	1	15
361.072	1	21
361.243	1	16
361.414	1	10
361.584	1	9
361.755	1	11
361.926	1	5
362.097	1	11
362.268	1	10
362.439	1	2
362.610	1	16
362.781	1	-1
362.952	1	18
363.123	1	11
363.293	1	10
363.464	1	26
363.635	1	19
363.806	1	11
363.977	1	14
364.148	1	15
364.319	1	13
364.490	1	11
364.661	1	21
364.832	1	24
365.002	1	17
365.173	1	17
365.344	1	21
365.515	1	17
365.686	1	14
365.857	1	17
366.028	1	20
366.199	1	14
366.370	1	21
366.540	1	4
366.711	1	-6
366.882	1	8
367.053	1	15
367.224	1	25
367.395	1	25
367.566	1	24
367.737	1	24
367.908	1	18
368.078	1	18
368.249	1	19
368.420	1	9
368.591	1	7
368.762	1	25
368.933	1	23
369.104	1	2
369.274	1	19
369.445	1	20
369.616	1	24
369.787	1	16
369.958	1	18
370.129	1	11
370.300	1	22
370.471	1	9
370.641	1	26
370.812	1	20
370.983	1	10
371.154	1	10
371.325	1	22
371.496	1	22
371.667	1	26
371.837	1	6
372.008	1	19
372.179	1	0
372.350	1	28
372.521	1	15
372.692	1	15
372.863	1	15
373.033	1	9
373.204	1	16
373.375	1	21
373.546	1	22
373.717	1	22
373.888	1	30
374.059	1	25
374.229	1	24
374.400	1	6
374.571	1	15
374.742	1	21
374.913	1	21
375.084	1	9
375.254	1	21
375.425	1	15
375.596	1	20
375.767	1	12
375.938	1	14
376.109	1	19
376.279	1	8
376.450	1	20
376.621	1	21
376.792	1	11
376.963	1	25
377.134	1	36
377.304	1	13
377.475	1	11
377.646	1	14
377.817	1	2
377.988	1	23
378.159	1	25
378.329	1	32
378.500	1	16
378.671	1	20
378.842	1	18
379.013	1	17
379.184	1	11
379.354	1	29
379.525	1	14
379.696	1	26
379.867	1	19
380.038	1	18
380.209	1	19
380.379	1	14
380.550	1	18
380.721	1	30
380.892	1	31
381.063	1	18
381.233	1	25
381.404	1	14
381.575	1	17
381.746	1	17
381.917	1	18
382.087	1	25
382.258	1	20
382.429	1	27
382.600	1	35
382.771	1	20
382.941	1	16
383.112	1	7
383.283	1	26
383.454	1	14
383.625	1	13
383.795	1	23
383.966	1	26
384.137	1	26
384.308	1	28
384.479	1	27
384.649	1	26
384.820	1	29
384.991	1	19
385.162	1	25
385.333	1	24
385.503	1	14
385.674	1	14
385.845	1	22
386.016	1	21
386.187	1	25
386.357	1	27
386.528	1	11
386.699	1	24
386.870	1	25
387.041	1	27
387.211	1	19
387.382	1	26
387.553	1	22
387.724	1	25
387.894	1	24
388.065	1	21
388.236	1	36
388.407	1	19
388.578	1	22
388.748	1	27
388.919	1	35
389.090	1	14
389.261	1	22
389.431	1	31
389.602	1	28
389.773	1	29
389.944	1	16
390.114	1	23
390.285	1	29
390.456	1	21
390.627	1	21
390.798	1	20
390.968	1	22
391.139	1	29
391.310	1	30
391.481	1	30
391.651	1	22
391.822	1	18
391.993	1	28
392.164	1	16
392.334	1	24
392.505	1	14
392.676	1	31
392.847	1	28
393.017	1	33
393.188	1	25
393.359	1	19
393.530	1	27
393.700	1	22
393.871	1	21
394.042	1	24
394.213	1	30
394.383	1	24
394.554	1	23
394.725	1	29
394.896	1	15
395.066	1	30
395.237	1	23
395.408	1	23
395.579	1	13
395.749	1	30
395.920	1	19
396.091	1	20
396.262	1	28
396.432	1	33
396.603	1	31
396.774	1	36
396.945	1	31
397.115	1	29
397.286	1	22
397.457	1	35
397.627	1	18
397.798	1	25
397.969	1	23
398.140	1	26
398.310	1	19
398.481	1	33
398.652	1	29
398.823	1	24
398.993	1	29
399.164	1	29
399.335	1	42
399.505	1	31
399.676	1	25
399.847	1	34
400.018	1	21
400.188	1	16
400.359	1	32
400.530	1	21
400.700	1	34
400.871	1	29
401.042	1	15
401.213	1	27
401.383	1	32
401.554	1	27
401.725	1	25
401.895	1	27
402.066	1	17
402.237	1	28
402.408	1	32
402.578	1	20
402.749	1	20
402.920	1	28
403.090	1	25
403.261	1	26
403.432	1	29
403.603	1	31
403.773	1	44
403.944	1	41
404.115	1	22
404.285	1	38
404.456	1	31
404.627	1	25
404.797	1	21
404.968	1	29
405.139	1	24
405.310	1	39
405.480	1	31
405.651	1	8
405.822	1	33
405.992	1	26
406.163	1	17
406.334	1	15
406.504	1	26
406.675	1	39
406.846	1	29
407.016	1	27
407.187	1	44
407.358	1	15
407.528	1	27
407.699	1	18
407.870	1	15
408.041	1	40
408.211	1	38
408.382	1	26
408.553	1	25
408.723	1	31
408.894	1	32
409.065	1	29
409.235	1	18
409.406	1	37
409.577	1	23
409.747	1	36
409.918	1	34
410.089	1	32
410.259	1	32
410.430	1	26
410.601	1	31
410.771	1	29
410.942	1	24
411.113	1	35
411.283	1	36
411.454	1	36
411.625	1	34
411.795	1	31
411.966	1	35
412.137	1	25
412.307	1	16
412.478	1	24
412.649	1	26
412.819	1	32
412.990	1	31
413.161	1	26
413.331	1	36
413.502	1	35
413.672	1	29
413.843	1	22
414.014	1	12
414.184	1	36
414.355	1	32
414.526	1	35
414.696	1	36
414.867	1	36
415.038	1	18
415.208	1	20
415.379	1	35
415.550	1	30
415.720	1	22
415.891	1	35
416.062	1	30
416.232	1	30
416.403	1	34
416.573	1	32
416.744	1	24
416.915	1	36
417.085	1	26
417.256	1	27
417.427	1	36
417.597	1	25
417.768	1	18
417.939	1	29
418.109	1	34
418.280	1	31
418.450	1	27
418.621	1	24
418.792	1	29
418.962	1	21
419.133	1	38
419.304	1	32
419.474	1	19
419.645	1	14
419.815	1	23
419.986	1	30
420.157	1	41
420.327	1	23
420.498	1	44
420.669	1	34
420.839	1	30
421.010	1	36
421.180	1	33
421.351	1	27
421.522	1	35
421.692	1	14
421.863	1	20
422.033	1	36
422.204	1	33
422.375	1	21
422.545	1	30
422.716	1	26
422.886	1	18
423.057	1	32
423.228	1	20
423.398	1	19
423.569	1	30
423.740	1	17
423.910	1	12
424.081	1	33
424.251	1	20
424.422	1	23
424.593	1	15
424.763	1	22
424.934	1	35
425.104	1	29
425.275	1	30
425.445	1	24
425.616	1	19
425.787	1	30
425.957	1	30
426.128	1	32
426.298	1	34
426.469	1	10
426.640	1	26
426.810	1	38
426.981	1	24
427.151	1	23
427.322	1	31
427.493	1	25
427.663	1	27
427.834	1	18
428.004	1	22
428.175	1	31
428.345	1	20
428.516	1	17
428.687	1	23
428.857	1	21
429.028	1	17
429.198	1	23
429.369	1	37
429.540	1	26
429.710	1	17
429.881	1	29
430.051	1	24
430.222	1	12
430.392	1	28
430.563	1	37
430.734	1	33
430.904	1	21
431.075	1	31
431.245	1	21
431.416	1	26
431.586	1	35
431.757	1	24
431.927	1	25
432.098	1	32
432.269	1	20
432.439	1	17
432.610	1	22
432.780	1	35
432.951	1	26
433.121	1	22
433.292	1	28
433.462	1	27
433.633	1	24
433.804	1	27
433.974	1	24
434.145	1	38
434.315	1	25
434.486	1	21
434.656	1	32
434.827	1	17
434.997	1	14
435.168	1	28
435.339	1	25
435.509	1	25
435.680	1	22
435.850	1	22
436.021	1	26
436.191	1	27
436.362	1	28
436.532	1	21
436.703	1	19
436.873	1	17
437.044	1	16
437.214	1	23
437.385	1	22
437.556	1	24
437.726	1	42
437.897	1	32
438.067	1	25
438.238	1	32
438.408	1	23
438.579	1	17
438.749	1	25
438.920	1	17
439.090	1	31
439.261	1	21
439.431	1	14
439.602	1	15
439.772	1	28
439.943	1	40
440.113	1	27
440.284	1	27
440.455	1	17
440.625	1	27
440.796	1	26
440.966	1	14
441.137	1	18
441.307	1	23
441.478	1	36
441.648	1	25
441.819	1	27
441.989	1	18
442.160	1	23
442.330	1	18
442.501	1	29
442.671	1	16
442.842	1	6
443.012	1	19
443.183	1	30
443.353	1	19
443.524	1	23
443.694	1	27
443.865	1	18
444.035	1	14
444.206	1	27
444.376	1	16
444.547	1	32
444.717	1	9
444.888	1	23
445.058	1	27
445.229	1	27
445.399	1	14
445.570	1	23
445.740	1	21
445.911	1	5
446.081	1	5
446.252	1	30
446.422	1	16
446.593	1	16
446.763	1	20
446.934	1	19
447.104	1	18
447.275	1	18
447.445	1	19
447.616	1	28
447.786	1	19
447.957	1	19
448.127	1	22
448.298	1	20
448.468	1	17
448.639	1	17
448.809	1	26
448.979	1	12
449.150	1	29
449.320	1	20
449.491	1	13
449.661	1	9
449.832	1	18
450.002	1	26
450.173	1	19
450.343	1	18
450.514	1	13
450.684	1	13
450.855	1	25
451.025	1	19
451.196	1	20
451.366	1	19
451.537	1	21
451.707	1	9
451.878	1	17
452.048	1	29
452.218	1	20
452.389	1	26
452.559	1	17
452.730	1	29
452.900	1	20
453.071	1	13
453.241	1	19
453.412	1	15
453.582	1	18
453.753	1	24
453.923	1	20
454.093	1	28
454.264	1	31
454.434	1	19
454.605	1	14
454.775	1	14
454.946	1	18
455.116	1	16
455.287	1	20
455.457	1	19
455.628	1	12
455.798	1	27
455.968	1	24
456.139	1	10
456.309	1	13
456.480	1	10
456.650	1	13
456.821	1	21
456.991	1	20
457.161	1	18
457.332	1	24
457.502	1	18
457.673	1	20
457.843	1	19
458.014	1	14
458.184	1	22
458.355	1	16
458.525	1	21
458.695	1	18
458.866	1	15
459.036	1	18
459.207	1	17
459.377	1	11
459.548	1	27
459.718	1	8
459.888	1	19
460.059	1	23
460.229	1	26
460.400	1	25
460.570	1	21
460.740	1	14
460.911	1	13
461.081	1	16
461.252	1	13
461.422	1	11
461.593	1	8
461.763	1	14
461.933	1	15
462.104	1	11
462.274	1	19
462.445	1	19
462.615	1	16
462.785	1	20
462.956	1	19
463.126	1	19
463.297	1	18
463.467	1	21
463.638	1	19
463.808	1	7
463.978	1	17
464.149	1	17
464.319	1	6
464.490	1	31
464.660	1	13
464.830	1	16
465.001	1	14
465.171	1	20
465.342	1	16
465.512	1	7
465.682	1	14
465.853	1	22
466.023	1	21
466.194	1	4
466.364	1	25
466.534	1	14
466.705	1	18
466.875	1	14
467.045	1	12
467.216	1	19
467.386	1	12
467.557	1	9
467.727	1	9
467.897	1	14
468.068	1	15
468.238	1	7
468.409	1	9
468.579	1	14
468.749	1	7
468.920	1	0
469.090	1	12
469.260	1	10
469.431	1	17
469.601	1	19
469.772	1	24
469.942	1	1
470.112	1	22
470.283	1	10
470.453	1	15
470.623	1	13
470.794	1	10
470.964	1	9
471.135	1	22
471.305	1	2
471.475	1	19
471.646	1	10
471.816	1	7
471.986	1	16
472.157	1	20
472.327	1	0
472.497	1	8
472.668	1	3
472.838	1	16
473.009	1	10
473.179	1	4
473.349	1	4
473.520	1	31
473.690	1	8
473.860	1	7
474.031	1	21
474.201	1	14
474.371	1	16
474.542	1	17
474.712	1	18
474.882	1	14
475.053	1	28
475.223	1	7
475.394	1	19
475.564	1	15
475.734	1	17
475.905	1	26
476.075	1	12
476.245	1	18
476.416	1	15
476.586	1	20
476.756	1	15
476.927	1	10
477.097	1	26
477.267	1	10
477.438	1	17
477.608	1	13
477.778	1	14
477.949	1	27
478.119	1	22
478.289	1	20
478.460	1	24
478.630	1	21
478.800	1	11
478.971	1	12
479.141	1	11
479.311	1	0
479.482	1	7
479.652	1	13
479.822	1	15
479.993	1	13
480.163	1	17
480.333	1	13
480.504	1	16
480.674	1	16
480.844	1	3
481.015	1	12
481.185	1	15
481.355	1	20
481.525	1	9
481.696	1	17
481.866	1	12
482.036	1	14
482.207	1	9
482.377	1	5
482.547	1	18
482.718	1	11
482.888	1	20
483.058	1	7
483.229	1	4
483.399	1	8
483.569	1	11
483.740	1	15
483.910	1	12
484.080	1	17
484.250	1	11
484.421	1	20
484.591	1	8
484.761	1	18
484.932	1	15
485.102	1	25
485.272	1	7
485.443	1	20
485.613	1	10
485.783	1	11
485.953	1	9
486.124	1	12
486.294	1	20
486.464	1	14
486.635	1	17
486.805	1	20
486.975	1	6
487.146	1	7
487.316	1	12
487.486	1	13
487.656	1	12
487.827	1	13
487.997	1	2
488.167	1	8
488.338	1	10
488.508	1	11
488.678	1	8
488.848	1	16
489.019	1	4
489.189	1	6
489.359	1	7
489.529	1	10
489.700	1	13
489.870	1	26
490.040	1	-4
490.211	1	5
490.381	1	16
490.551	1	13
490.721	1	12
490.892	1	13
491.062	1	8
491.232	1	15
491.402	1	6
491.573	1	-1
491.743	1	6
491.913	1	0
492.084	1	14
492.254	1	19
492.424	1	10
492.594	1	7
492.765	1	11
492.935	1	3
493.105	1	16
493.275	1	15
493.446	1	19
493.616	1	10
493.786	1	3
493.956	1	0
494.127	1	8
494.297	1	2
494.467	1	-5
494.637	1	7
494.808	1	17
494.978	1	-6
495.148	1	17
495.318	1	17
495.489	1	12
495.659	1	13
495.829	1	9
495.999	1	-6
496.170	1	12
496.340	1	15
496.510	1	16
496.680	1	11
496.851	1	7
497.021	1	6
497.191	1	15
497.361	1	9
497.532	1	4
497.702	1	-3
497.872	1	-2
498.042	1	10
498.213	1	5
498.383	1	18
498.553	1	3
498.723	1	8
498.894	1	11
499.064	1	18
499.234	1	16
499.404	1	6
499.574	1	15
499.745	1	5
499.915	1	4
500.085	1	3
500.255	1	17
500.426	1	8
500.596	1	10
500.766	1	13
500.936	1	3
501.106	1	-1
501.277	1	5
501.447	1	18
501.617	1	2
501.787	1	5
501.958	1	10
502.128	1	11
502.298	1	8
502.468	1	8
502.638	1	-3
502.809	1	10
502.979	1	-6
503.149	1	-1
503.319	1	3
503.489	1	9
503.660	1	9
503.830	1	1
504.000	1	7
504.170	1	8
504.340	1	0
504.511	1	9
504.681	1	-2
504.851	1	5
505.021	1	10
505.192	1	2
505.362	1	13
505.532	1	5
505.702	1	8
505.872	1	4
506.043	1	3
506.213	1	-2
506.383	1	14
506.553	1	11
506.723	1	11
506.893	1	8
507.064	1	15
507.234	1	6
507.404	1	2
507.574	1	9
507.744	1	6
507.915	1	13
508.085	1	10
508.255	1	14
508.425	1	4
508.595	1	14
508.766	1	9
508.936	1	-7
509.106	1	12
509.276	1	6
509.446	1	-1
509.616	1	11
509.787	1	7
509.957	1	1
510.127	1	12
510.297	1	8
510.467	1	-2
510.638	1	4
510.808	1	6
510.978	1	-1
511.148	1	4
511.318	1	11
511.488	1	-4
511.659	1	7
511.829	1	-2
511.999	1	16
512.169	1	11
512.339	1	4
512.509	1	3
512.680	1	-2
512.850	1	12
513.020	1	5
513.190	1	5
513.360	1	-4
513.530	1	0
513.700	1	12
513.871	1	5
514.041	1	6
514.211	1	19
514.381	1	8
514.551	1	6
514.721	1	3
514.892	1	7
515.062	1	5
515.232	1	13
515.402	1	-4
515.572	1	-2
515.742	1	7
515.912	1	7
516.083	1	7
516.253	1	11
516.423	1	7
516.593	1	8
516.763	1	15
516.933	1	-4
517.104	1	3
517.274	1	5
517.444	1	11
517.614	1	0
517.784	1	10
517.954	1	13
518.124	1	10
518.294	1	6
518.465	1	3
518.635	1	1
518.805	1	-8
518.975	1	0
519.145	1	5
519.315	1	5
519.485	1	0
519.656	1	7
519.826	1	8
519.996	1	-14
520.166	1	0
520.336	1	17
520.506	1	-2
520.676	1	0
520.846	1	10
521.017	1	14
521.187	1	-2
521.357	1	15
521.527	1	-5
521.697	1	13
521.867	1	1
522.037	1	13
522.207	1	14
522.377	1	-1
522.548	1	10
522.718	1	6
522.888	1	23
523.058	1	-5
523.228	1	4
523.398	1	11
523.568	1	-1
523.738	1	8
523.909	1	12
524.079	1	4
524.249	1	-2
524.419	1	5
524.589	1	7
524.759	1	-4
524.929	1	2
525.099	1	11
525.269	1	9
525.439	1	0
525.610	1	17
525.780	1	1
525.950	1	7
526.120	1	4
526.290	1	4
526.460	1	-4
526.630	1	9
526.800	1	4
526.970	1	17
527.140	1	14
527.311	1	-9
527.481	1	1
527.651	1	7
527.821	1	1
527.991	1	8
528.161	1	11
528.331	1	7
528.501	1	9
528.671	1	2
528.841	1	8
529.011	1	-4
529.181	1	6
529.352	1	2
529.522	1	5
529.692	1	10
529.862	1	1
530.032	1	10
530.202	1	6
530.372	1	8
530.542	1	6
530.712	1	6
530.882	1	9
531.052	1	12
531.222	1	-2
531.392	1	11
531.563	1	13
531.733	1	14
531.903	1	3
532.073	1	13
532.243	1	11
532.413	1	3
532.583	1	-1
532.753	1	13
532.923	1	-4
533.093	1	6
533.263	1	-2
533.433	1	0
533.603	1	13
533.773	1	-6
533.943	1	3
534.113	1	4
534.284	1	-5
534.454	1	4
534.624	1	9
534.794	1	-4
534.964	1	8
535.134	1	5
535.304	1	4
535.474	1	11
535.644	1	-7
535.814	1	-5
535.984	1	5
536.154	1	0
536.324	1	2
536.494	1	10
536.664	1	4
536.834	1	6
537.004	1	5
537.174	1	10
537.344	1	-1
537.514	1	0
537.685	1	3
537.855	1	14
538.025	1	0
538.195	1	4
538.365	1	2
538.535	1	-1
538.705	1	3
538.875	1	14
539.045	1	0
539.215	1	10
539.385	1	-1
539.555	1	3
539.725	1	0
539.895	1	0
540.065	1	18
540.235	1	10
540.405	1	-7
540.575	1	4
540.745	1	1
540.915	1	16
541.085	1	2
541.255	1	0
541.425	1	1
541.595	1	9
541.765	1	12
541.935	1	-1
542.105	1	0
542.275	1	10
542.445	1	3
542.615	1	0
542.785	1	8
542.955	1	6
543.125	1	-7
543.295	1	8
543.465	1	3
543.635	1	4
543.805	1	7
543.975	1	2
544.145	1	8
544.315	1	8
544.485	1	7
544.655	1	3
544.825	1	-7
544.995	1	4
545.165	1	-2
545.335	1	7
545.505	1	-3
545.675	1	9
545.845	1	4
546.015	1	8
546.185	1	10
546.355	1	10
546.525	1	5
546.695	1	6
546.865	1	-3
547.035	1	16
547.205	1	-8
547.375	1	10
547.545	1	5
547.715	1	2
547.885	1	2
548.055	1	-4
548.225	1	11
548.395	1	7
548.565	1	4
548.735	1	9
548.905	1	-3
549.075	1	5
549.245	1	0
549.415	1	0
549.585	1	8
549.755	1	7
549.925	1	-4
550.095	1	1
550.265	1	3
550.435	1	2
550.605	1	-6
550.775	1	14
550.945	1	3
551.115	1	0
551.285	1	-1
551.455	1	-5
551.625	1	11
551.795	1	7
551.965	1	4
552.135	1	2
552.305	1	-2
552.475	1	-2
552.645	1	-3
552.815	1	-2
552.985	1	2
553.155	1	8
553.325	1	13
553.495	1	-1
553.665	1	1
553.835	1	3
554.004	1	9
554.174	1	-2
554.344	1	6
554.514	1	1
554.684	1	2
554.854	1	8
555.024	1	-9
555.194	1	-4
555.364	1	2
555.534	1	-1
555.704	1	4
555.874	1	11
556.044	1	0
556.214	1	0
556.384	1	4
556.554	1	12
556.724	1	8
556.894	1	-4
557.064	1	10
557.234	1	1
557.404	1	15
557.573	1	2
557.743	1	4
557.913	1	-6
558.083	1	1
558.253	1	0
558.423	1	5
558.593	1	7
558.763	1	-1
558.933	1	7
559.103	1	11
559.273	1	4
559.443	1	4
559.613	1	-1
559.783	1	-6
559.953	1	-1
560.122	1	3
560.292	1	2
560.462	1	5
560.632	1	3
560.802	1	1
560.972	1	6
561.142	1	12
561.312	1	-7
561.482	1	3
561.652	1	5
561.822	1	2
561.992	1	0
562.162	1	-1
562.331	1	9
562.501	1	0
562.671	1	5
562.841	1	-3
563.011	1	3
563.181	1	-4
563.351	1	-7
563.521	1	5
563.691	1	-6
563.861	1	9
564.031	1	12
564.201	1	11
564.370	1	-4
564.540	1	2
564.710	1	-4
564.880	1	13
565.050	1	0
565.220	1	-9
565.390	1	9
565.560	1	12
565.730	1	-8
565.900	1	9
566.069	1	15
566.239	1	9
566.409	1	2
566.579	1	4
566.749	1	-2
566.919	1	7
567.089	1	8
567.259	1	14
567.429	1	-5
567.599	1	2
567.768	1	7
567.938	1	-2
568.108	1	3
568.278	1	-3
568.448	1	1
568.618	1	-5
568.788	1	13
568.958	1	9
569.128	1	10
569.297	1	5
569.467	1	-3
569.637	1	11
569.807	1	6
569.977	1	2
570.147	1	2
570.317	1	-12
570.487	1	6
570.656	1	6
570.826	1	-1
570.996	1	-2
571.166	1	11
571.336	1	4
571.506	1	13
571.676	1	2
571.846	1	13
572.015	1	3
572.185	1	-1
572.355	1	2
572.525	1	11
572.695	1	2
572.865	1	-7
573.035	1	6
573.205	1	3
573.374	1	0
573.544	1	-2
573.714	1	10
573.884	1	3
574.054	1	8
574.224	1	6
574.394	1	-7
574.563	1	-8
574.733	1	-2
574.903	1	-7
575.073	1	-7
575.243	1	-5
575.413	1	1
575.583	1	3
575.752	1	2
575.922	1	6
576.092	1	11
576.262	1	2
576.432	1	-6
576.602	1	-5
576.772	1	10
576.941	1	1
577.111	1	3
577.281	1	-4
577.451	1	0
577.621	1	5
577.791	1	0
577.960	1	-2
578.130	1	4
578.300	1	10
578.470	1	19
578.640	1	4
578.810	1	0
578.979	1	2
579.149	1	-5
579.319	1	-2
579.489	1	0
579.659	1	-5
579.829	1	1
579.998	1	10
580.168	1	5
580.338	1	5
580.508	1	2
580.678	1	5
580.848	1	1
581.017	1	-1
581.187	1	4
581.357	1	-4
581.527	1	4
581.697	1	11
581.867	1	3
582.036	1	7
582.206	1	-7
582.376	1	16
582.546	1	-2
582.716	1	5
582.885	1	1
583.055	1	9
583.225	1	-6
583.395	1	7
583.565	1	-7
583.735	1	3
583.904	1	4
584.074	1	17
584.244	1	4
584.414	1	-2
584.584	1	6
584.753	1	-10
584.923	1	4
585.093	1	7
585.263	1	0
585.433	1	3
585.602	1	-8
585.772	1	0
585.942	1	-2
586.112	1	6
586.282	1	4
586.451	1	-2
586.621	1	-2
586.791	1	1
586.961	1	-5
587.131	1	6
587.300	1	7
587.470	1	5
587.640	1	3
587.810	1	-11
587.980	1	1
588.149	1	3
588.319	1	-7
588.489	1	12
588.659	1	13
588.829	1	3
588.998	1	5
589.168	1	4
589.338	1	2
589.508	1	2
589.677	1	-7
589.847	1	6
590.017	1	17
590.187	1	9
590.357	1	0
590.526	1	10
590.696	1	2
590.866	1	8
591.036	1	3
591.205	1	16
591.375	1	-2
591.545	1	-2
591.715	1	9
591.885	1	-2
592.054	1	6
592.224	1	5
592.394	1	11
592.564	1	-5
592.733	1	5
592.903	1	-4
593.073	1	2
593.243	1	3
593.412	1	12
593.582	1	5
593.752	1	4
593.922	1	5
594.091	1	4
594.261	1	-3
594.431	1	1
594.601	1	1
594.771	1	5
594.940	1	6
595.110	1	-8
595.280	1	4
595.450	1	1
595.619	1	-6
595.789	1	0
595.959	1	11
596.129	1	-1
596.298	1	8
596.468	1	2
596.638	1	6
596.808	1	6
596.977	1	-1
597.147	1	4
597.317	1	-6
597.487	1	6
597.656	1	6
597.826	1	2
597.996	1	-5
598.166	1	-7
598.335	1	3
598.505	1	7
598.675	1	-8
598.844	1	2
599.014	1	-10
599.184	1	3
599.354	1	-4
599.523	1	6
599.693	1	7
599.863	1	10
600.033	1	8
600.202	1	7
600.372	1	-7
600.542	1	8
600.712	1	-9
600.881	1	0
601.051	1	9
601.221	1	3
601.390	1	5
601.560	1	11
601.730	1	10
601.900	1	4
602.069	1	10
602.239	1	-9
602.409	1	-3
602.578	1	-3
602.748	1	0
602.918	1	8
603.088	1	15
603.257	1	6
603.427	1	-7
603.597	1	6
603.767	1	7
603.936	1	12
604.106	1	3
604.276	1	3
604.445	1	5
604.615	1	5
604.785	1	5
604.954	1	3
605.124	1	7
605.294	1	-4
605.464	1	-4
605.633	1	4
605.803	1	7
605.973	1	7
606.142	1	5
606.312	1	0
606.482	1	-2
606.652	1	7
606.821	1	-8
606.991	1	7
607.161	1	-5
607.330	1	8
607.500	1	-2
607.670	1	-8
607.839	1	12
608.009	1	15
608.179	1	13
608.348	1	2
608.518	1	-4
608.688	1	7
608.858	1	7
609.027	1	-2
609.197	1	1
609.367	1	7
609.536	1	12
609.706	1	10
609.876	1	2
610.045	1	5
610.215	1	4
610.385	1	3
610.554	1	5
610.724	1	1
610.894	1	5
611.063	1	9
611.233	1	2
611.403	1	5
611.572	1	2
611.742	1	2
611.912	1	9
612.081	1	1
612.251	1	11
612.421	1	4
612.590	1	1
612.760	1	1
612.930	1	4
613.099	1	11
613.269	1	4
613.439	1	1
613.608	1	-8
613.778	1	-2
613.948	1	4
614.117	1	1
614.287	1	9
614.457	1	13
614.626	1	-1
614.796	1	4
614.966	1	-5
615.135	1	3
615.305	1	9
615.475	1	-5
615.644	1	-4
615.814	1	6
615.984	1	2
616.153	1	-10
616.323	1	1
616.493	1	7
616.662	1	6
616.832	1	1
617.002	1	3
617.171	1	0
617.341	1	-4
617.511	1	-7
617.680	1	-4
617.850	1	7
618.019	1	13
618.189	1	15
618.359	1	6
618.528	1	1
618.698	1	0
618.868	1	-1
619.037	1	-1
619.207	1	-2
619.377	1	2
619.546	1	1
619.716	1	-2
619.885	1	-4
620.055	1	-7
620.225	1	5
620.394	1	-3
620.564	1	4
620.734	1	13
620.903	1	9
621.073	1	8
621.242	1	1
621.412	1	0
621.582	1	-7
621.751	1	10
621.921	1	7
622.091	1	-7
622.260	1	-1
622.430	1	11
622.599	1	0
622.769	1	6
622.939	1	8
623.108	1	4
623.278	1	-7
623.448	1	2
623.617	1	5
623.787	1	-7
623.956	1	11
624.126	1	6
624.296	1	3
624.465	1	7
624.635	1	17
624.804	1	-4
624.974	1	-4
625.144	1	4
625.313	1	-2
625.483	1	0
625.652	1	-2
625.822	1	-4
625.992	1	5
626.161	1	7
626.331	1	8
626.501	1	4
626.670	1	5
626.840	1	-2
627.009	1	-3
627.179	1	3
627.348	1	9
627.518	1	4
627.688	1	14
627.857	1	14
628.027	1	2
628.196	1	8
628.366	1	9
628.536	1	4
628.705	1	-2
628.875	1	-6
629.044	1	4
629.214	1	7
629.384	1	5
629.553	1	7
629.723	1	15
629.892	1	4
630.062	1	6
630.232	1	2
630.401	1	7
630.571	1	8
630.740	1	3
630.910	1	16
631.079	1	5
631.249	1	10
631.419	1	17
631.588	1	-6
631.758	1	2
631.927	1	-7
632.097	1	12
632.266	1	1
632.436	1	2
632.606	1	1
632.775	1	5
632.945	1	0
633.114	1	5
633.284	1	4
633.453	1	4
633.623	1	9
633.793	1	5
633.962	1	6
634.132	1	4
634.301	1	-1
634.471	1	9
634.640	1	16
634.810	1	4
634.979	1	10
635.149	1	8
635.319	1	3
635.488	1	14
635.658	1	5
635.827	1	2
635.997	1	5
636.166	1	2
636.336	1	2
636.505	1	13
636.675	1	-2
636.845	1	6
637.014	1	16
637.184	1	5
637.353	1	9
637.523	1	1
637.692	1	8
637.862	1	5
638.031	1	7
638.201	1	14
638.370	1	0
638.540	1	2
638.710	1	2
638.879	1	-11
639.049	1	3
639.218	1	6
639.388	1	5
639.557	1	9
639.727	1	-4
639.896	1	6
640.066	1	1
640.235	1	5
640.405	1	3
640.574	1	-1
640.744	1	-6
640.914	1	5
641.083	1	2
641.253	1	0
641.422	1	4
641.592	1	19
641.761	1	8
641.931	1	5
642.100	1	22
642.270	1	8
642.439	1	4
642.609	1	12
642.778	1	-3
642.948	1	2
643.117	1	10
643.287	1	10
643.456	1	8
643.626	1	14
643.795	1	0
643.965	1	14
644.134	1	-4
644.304	1	12
644.473	1	10
644.643	1	4
644.812	1	4
644.982	1	13
645.151	1	1
645.321	1	0
645.490	1	14
645.660	1	-3
645.829	1	8
645.999	1	2
646.168	1	4
646.338	1	9
646.507	1	2
646.677	1	5
646.846	1	2
647.016	1	-5
647.185	1	8
647.355	1	-5
647.524	1	18
647.694	1	21
647.863	1	12
648.033	1	5
648.202	1	0
648.372	1	-3
648.541	1	2
648.711	1	-3
648.880	1	-1
649.050	1	2
649.219	1	11
649.389	1	14
649.558	1	7
649.728	1	0
649.897	1	-6
650.067	1	9
650.236	1	7
650.406	1	4
650.575	1	10
650.745	1	4
650.914	1	7
651.084	1	-2
651.253	1	13
651.423	1	7
651.592	1	5
651.762	1	-2
651.931	1	14
652.101	1	6
652.270	1	4
652.440	1	1
652.609	1	-5
652.778	1	12
652.948	1	0
653.117	1	14
653.287	1	1
653.456	1	-1
653.626	1	4
653.795	1	7
653.965	1	5
654.134	1	6
654.304	1	-5
654.473	1	7
654.643	1	4
654.812	1	14
654.982	1	14
655.151	1	4
655.320	1	8
655.490	1	-4
655.659	1	11
655.829	1	-2
655.998	1	5
656.168	1	-2
656.337	1	11
656.507	1	8
656.676	1	12
656.846	1	6
657.015	1	10
657.184	1	11
657.354	1	10
657.523	1	6
657.693	1	7
657.862	1	5
658.032	1	9
658.201	1	7
658.371	1	9
658.540	1	4
658.709	1	3
658.879	1	6
659.048	1	-1
659.218	1	4
659.387	1	10
659.557	1	1
659.726	1	9
659.895	1	-2
660.065	1	-1
660.234	1	3
660.404	1	8
660.573	1	4
660.743	1	5
660.912	1	1
661.081	1	9
661.251	1	4
661.420	1	2
661.590	1	8
661.759	1	15
661.929	1	18
662.098	1	19
662.267	1	-7
662.437	1	11
662.606	1	3
662.776	1	4
662.945	1	9
663.115	1	3
663.284	1	-2
663.453	1	9
663.623	1	12
663.792	1	2
663.962	1	5
664.131	1	18
664.300	1	18
664.470	1	2
664.639	1	7
664.809	1	7
664.978	1	10
665.148	1	6
665.317	1	2
665.486	1	18
665.656	1	3
665.825	1	17
665.995	1	-6
666.164	1	9
666.333	1	5
666.503	1	5
666.672	1	2
666.842	1	2
667.011	1	0
667.180	1	10
667.350	1	2
667.519	1	15
667.689	1	4
667.858	1	7
668.027	1	13
668.197	1	6
668.366	1	-6
668.536	1	5
668.705	1	6
668.874	1	7
669.044	1	7
669.213	1	11
669.382	1	-6
669.552	1	17
669.721	1	6
669.891	1	23
670.060	1	7
670.229	1	21
670.399	1	-8
670.568	1	14
670.738	1	9
670.907	1	0
671.076	1	-3
671.246	1	6
671.415	1	9
671.584	1	9
671.754	1	-5
671.923	1	1
672.093	1	6
672.262	1	-5
672.431	1	10
672.601	1	-2
672.770	1	-1
672.939	1	12
673.109	1	3
673.278	1	8
673.448	1	15
673.617	1	0
673.786	1	4
