325.333	1	3
325.504	1	7
325.675	1	10
325.846	1	5
326.017	1	2
326.188	1	13
326.359	1	-5
326.531	1	-12
326.702	1	7
326.873	1	14
327.044	1	0
327.215	1	1
327.386	1	6
327.557	1	-7
327.728	1	-1
327.899	1	12
328.070	1	11
328.241	1	3
328.412	1	-8
328.583	1	8
328.754	1	8
328.926	1	5
329.097	1	-7
329.268	1	5
329.439	1	1
329.610	1	4
329.781	1	1
329.952	1	9
330.123	1	5
330.294	1	-1
330.465	1	7
330.636	1	10
330.807	1	5
330.978	1	6
331.149	1	-1
331.320	1	-5
331.492	1	2
331.663	1	1
331.834	1	16
332.005	1	2
332.176	1	17
332.347	1	16
332.518	1	-3
332.689	1	7
332.860	1	3
333.031	1	7
333.202	1	2
333.373	1	1
333.544	1	6
333.715	1	10
333.886	1	-3
334.057	1	10
334.228	1	-3
334.399	1	-6
334.570	1	7
334.741	1	-2
334.912	1	10
335.084	1	26
335.255	1	5
335.426	1	6
335.597	1	1
335.768	1	-1
335.939	1	3
336.110	1	9
336.281	1	-12
336.452	1	1
336.623	1	6
336.794	1	14
336.965	1	5
337.136	1	7
337.307	1	7
337.478	1	2
337.649	1	-4
337.820	1	1
337.991	1	6
338.162	1	5
338.333	1	-5
338.504	1	18
338.675	1	2
338.846	1	7
339.017	1	-5
339.188	1	3
339.359	1	-1
339.530	1	7
339.701	1	7
339.872	1	17
340.043	1	5
340.214	1	6
340.385	1	14
340.556	1	-1
340.727	1	11
340.898	1	15
341.069	1	13
341.240	1	0
341.411	1	6
341.582	1	-5
341.753	1	-12
341.924	1	-8
342.095	1	6
342.266	1	4
342.437	1	13
342.608	1	9
342.779	1	15
342.950	1	10
343.121	1	9
343.292	1	7
343.463	1	11
343.634	1	0
343.805	1	7
343.976	1	8
344.147	1	7
344.318	1	11
344.489	1	5
344.660	1	13
344.831	1	8
345.002	1	0
345.173	1	18
345.344	1	-4
345.515	1	0
345.686	1	5
345.857	1	10
346.028	1	12
346.199	1	7
346.370	1	1
346.541	1	8
346.712	1	-3
346.883	1	7
347.054	1	-1
347.225	1	5
347.396	1	13
347.567	1	12
347.738	1	2
347.909	1	19
348.080	1	4
348.251	1	13
348.422	1	14
348.593	1	7
348.764	1	5
348.935	1	12
349.106	1	8
349.277	1	15
349.448	1	14
349.619	1	6
349.790	1	12
349.961	1	14
350.132	1	13
350.303	1	12
350.474	1	14
350.645	1	13
350.816	1	7
350.987	1	20
351.157	1	9
351.328	1	13
351.499	1	4
351.670	1	8
351.841	1	3
352.012	1	10
352.183	1	9
352.354	1	14
352.525	1	20
352.696	1	16
352.867	1	3
353.038	1	15
353.209	1	10
353.380	1	8
353.551	1	3
353.722	1	12
353.893	1	9
354.064	1	25
354.235	1	9
354.406	1	0
354.576	1	8
354.747	1	1
354.918	1	18
355.089	1	11
355.260	1	22
355.431	1	16
355.602	1	7
355.773	1	18
355.944	1	11
356.115	1	5
356.286	1	8
356.457	1	9
356.628	1	10
356.799	1	15
356.970	1	22
357.141	1	7
357.311	1	10
357.482	1	8
357.653	1	11
357.824	1	19
357.995	1	6
358.166	1	1
358.337	1	10
358.508	1	15
358.679	1	4
358.850	1	13
359.021	1	5
359.192	1	16
359.363	1	7
359.533	1	11
359.704	1	16
359.875	1	9
360.046	1	10
360.217	1	7
360.388	1	9
360.559	1	-3
360.730	1	5
360.901	1	11
361.072	1	19
361.243	1	14
361.414	1	8
361.584	1	9
361.755	1	15
361.926	1	11
362.097	1	12
362.268	1	15
362.439	1	9
362.610	1	18
362.781	1	7
362.952	1	6
363.123	1	9
363.293	1	0
363.464	1	12
363.635	1	18
363.806	1	8
363.977	1	13
364.148	1	13
364.319	1	16
364.490	1	15
364.661	1	12
364.832	1	10
365.002	1	16
365.173	1	7
365.344	1	20
365.515	1	6
365.686	1	12
365.857	1	11
366.028	1	15
366.199	1	9
366.370	1	13
366.540	1	10
366.711	1	2
366.882	1	11
367.053	1	-2
367.224	1	28
367.395	1	19
367.566	1	17
367.737	1	21
367.908	1	20
368.078	1	10
368.249	1	14
368.420	1	10
368.591	1	9
368.762	1	20
368.933	1	9
369.104	1	6
369.274	1	9
369.445	1	7
369.616	1	7
369.787	1	15
369.958	1	24
370.129	1	5
370.300	1	13
370.471	1	9
370.641	1	14
370.812	1	16
370.983	1	3
371.154	1	10
371.325	1	17
371.496	1	18
371.667	1	19
371.837	1	4
372.008	1	11
372.179	1	6
372.350	1	23
372.521	1	21
372.692	1	16
372.863	1	17
373.033	1	3
373.204	1	7
373.375	1	15
373.546	1	16
373.717	1	13
373.888	1	19
374.059	1	16
374.229	1	26
374.400	1	12
374.571	1	6
374.742	1	17
374.913	1	22
375.084	1	17
375.254	1	14
375.425	1	24
375.596	1	19
375.767	1	16
375.938	1	16
376.109	1	12
376.279	1	12
376.450	1	17
376.621	1	12
376.792	1	12
376.963	1	17
377.134	1	20
377.304	1	20
377.475	1	10
377.646	1	7
377.817	1	9
377.988	1	10
378.159	1	13
378.329	1	30
378.500	1	17
378.671	1	25
378.842	1	18
379.013	1	2
379.184	1	16
379.354	1	8
379.525	1	7
379.696	1	17
379.867	1	27
380.038	1	14
380.209	1	15
380.379	1	16
380.550	1	12
380.721	1	24
380.892	1	13
381.063	1	19
381.233	1	22
381.404	1	7
381.575	1	29
381.746	1	21
381.917	1	11
382.087	1	24
382.258	1	16
382.429	1	15
382.600	1	23
382.771	1	15
382.941	1	15
383.112	1	18
383.283	1	22
383.454	1	17
383.625	1	16
383.795	1	11
383.966	1	24
384.137	1	18
384.308	1	11
384.479	1	10
384.649	1	26
384.820	1	16
384.991	1	23
385.162	1	17
385.333	1	15
385.503	1	8
385.674	1	12
385.845	1	23
386.016	1	14
386.187	1	19
386.357	1	18
386.528	1	25
386.699	1	11
386.870	1	34
387.041	1	21
387.211	1	25
387.382	1	34
387.553	1	21
387.724	1	9
387.894	1	14
388.065	1	12
388.236	1	23
388.407	1	9
388.578	1	11
388.748	1	20
388.919	1	28
389.090	1	14
389.261	1	16
389.431	1	16
389.602	1	27
389.773	1	16
389.944	1	18
390.114	1	18
390.285	1	25
390.456	1	20
390.627	1	22
390.798	1	11
390.968	1	16
391.139	1	16
391.310	1	13
391.481	1	18
391.651	1	17
391.822	1	9
391.993	1	11
392.164	1	16
392.334	1	19
392.505	1	17
392.676	1	23
392.847	1	22
393.017	1	25
393.188	1	17
393.359	1	11
393.530	1	27
393.700	1	25
393.871	1	16
394.042	1	26
394.213	1	15
394.383	1	23
394.554	1	22
394.725	1	24
394.896	1	18
395.066	1	29
395.237	1	21
395.408	1	14
395.579	1	18
395.749	1	19
395.920	1	19
396.091	1	32
396.262	1	22
396.432	1	18
396.603	1	20
396.774	1	21
396.945	1	17
397.115	1	29
397.286	1	17
397.457	1	32
397.627	1	13
397.798	1	19
397.969	1	14
398.140	1	17
398.310	1	14
398.481	1	16
398.652	1	22
398.823	1	23
398.993	1	23
399.164	1	23
399.335	1	19
399.505	1	23
399.676	1	11
399.847	1	21
400.018	1	15
400.188	1	15
400.359	1	21
400.530	1	17
400.700	1	21
400.871	1	11
401.042	1	12
401.213	1	16
401.383	1	16
401.554	1	25
401.725	1	32
401.895	1	13
402.066	1	22
402.237	1	23
402.408	1	26
402.578	1	17
402.749	1	21
402.920	1	32
403.090	1	19
403.261	1	21
403.432	1	18
403.603	1	21
403.773	1	35
403.944	1	26
404.115	1	35
404.285	1	25
404.456	1	26
404.627	1	12
404.797	1	16
404.968	1	19
405.139	1	24
405.310	1	30
405.480	1	28
405.651	1	5
405.822	1	17
405.992	1	11
406.163	1	20
406.334	1	11
406.504	1	20
406.675	1	31
406.846	1	25
407.016	1	32
407.187	1	28
407.358	1	23
407.528	1	14
407.699	1	10
407.870	1	11
408.041	1	26
408.211	1	33
408.382	1	24
408.553	1	15
408.723	1	22
408.894	1	32
409.065	1	25
409.235	1	19
409.406	1	29
409.577	1	10
409.747	1	30
409.918	1	34
410.089	1	19
410.259	1	25
410.430	1	35
410.601	1	18
410.771	1	23
410.942	1	38
411.113	1	29
411.283	1	13
411.454	1	31
411.625	1	21
411.795	1	32
411.966	1	36
412.137	1	17
412.307	1	26
412.478	1	28
412.649	1	15
412.819	1	24
412.990	1	21
413.161	1	21
413.331	1	20
413.502	1	19
413.672	1	20
413.843	1	16
414.014	1	18
414.184	1	26
414.355	1	22
414.526	1	22
414.696	1	26
414.867	1	18
415.038	1	11
415.208	1	26
415.379	1	29
415.550	1	27
415.720	1	9
415.891	1	17
416.062	1	28
416.232	1	17
416.403	1	29
416.573	1	26
416.744	1	12
416.915	1	26
417.085	1	22
417.256	1	25
417.427	1	19
417.597	1	25
417.768	1	13
417.939	1	19
418.109	1	29
418.280	1	25
418.450	1	18
418.621	1	8
418.792	1	20
418.962	1	28
419.133	1	31
419.304	1	20
419.474	1	23
419.645	1	26
419.815	1	13
419.986	1	21
420.157	1	23
420.327	1	25
420.498	1	29
420.669	1	19
420.839	1	32
421.010	1	22
421.180	1	23
421.351	1	9
421.522	1	21
421.692	1	30
421.863	1	19
422.033	1	40
422.204	1	21
422.375	1	20
422.545	1	39
422.716	1	10
422.886	1	15
423.057	1	29
423.228	1	18
423.398	1	19
423.569	1	25
423.740	1	14
423.910	1	15
424.081	1	19
424.251	1	20
424.422	1	21
424.593	1	16
424.763	1	18
424.934	1	22
425.104	1	18
425.275	1	21
425.445	1	13
425.616	1	15
425.787	1	12
425.957	1	29
426.128	1	26
426.298	1	21
426.469	1	16
426.640	1	17
426.810	1	26
426.981	1	17
427.151	1	10
427.322	1	25
427.493	1	19
427.663	1	20
427.834	1	20
428.004	1	26
428.175	1	24
428.345	1	9
428.516	1	15
428.687	1	17
428.857	1	9
429.028	1	16
429.198	1	20
429.369	1	22
429.540	1	21
429.710	1	21
429.881	1	20
430.051	1	20
430.222	1	18
430.392	1	18
430.563	1	30
430.734	1	22
430.904	1	18
431.075	1	23
431.245	1	10
431.416	1	34
431.586	1	21
431.757	1	32
431.927	1	25
432.098	1	21
432.269	1	17
432.439	1	19
432.610	1	20
432.780	1	26
432.951	1	14
433.121	1	27
433.292	1	32
433.462	1	21
433.633	1	21
433.804	1	21
433.974	1	19
434.145	1	34
434.315	1	14
434.486	1	31
434.656	1	31
434.827	1	14
434.997	1	23
435.168	1	24
435.339	1	22
435.509	1	15
435.680	1	20
435.850	1	20
436.021	1	16
436.191	1	11
436.362	1	21
436.532	1	19
436.703	1	13
436.873	1	27
437.044	1	13
437.214	1	13
437.385	1	19
437.556	1	20
437.726	1	25
437.897	1	24
438.067	1	10
438.238	1	16
438.408	1	23
438.579	1	10
438.749	1	17
438.920	1	13
439.090	1	15
439.261	1	23
439.431	1	11
439.602	1	13
439.772	1	12
439.943	1	20
440.113	1	27
440.284	1	24
440.455	1	12
440.625	1	17
440.796	1	21
440.966	1	15
441.137	1	28
441.307	1	23
441.478	1	25
441.648	1	10
441.819	1	25
441.989	1	17
442.160	1	27
442.330	1	21
442.501	1	24
442.671	1	17
442.842	1	2
443.012	1	21
443.183	1	16
443.353	1	11
443.524	1	19
443.694	1	23
443.865	1	12
444.035	1	19
444.206	1	14
444.376	1	11
444.547	1	21
444.717	1	18
444.888	1	17
445.058	1	23
445.229	1	19
445.399	1	19
445.570	1	22
445.740	1	17
445.911	1	7
446.081	1	12
446.252	1	28
446.422	1	19
446.593	1	11
446.763	1	19
446.934	1	20
447.104	1	22
447.275	1	16
447.445	1	22
447.616	1	20
447.786	1	12
447.957	1	24
448.127	1	20
448.298	1	17
448.468	1	16
448.639	1	5
448.809	1	17
448.979	1	15
449.150	1	22
449.320	1	24
449.491	1	21
449.661	1	21
449.832	1	14
450.002	1	33
450.173	1	18
450.343	1	14
450.514	1	13
450.684	1	10
450.855	1	8
451.025	1	21
451.196	1	13
451.366	1	25
451.537	1	13
451.707	1	2
451.878	1	18
452.048	1	23
452.218	1	21
452.389	1	18
452.559	1	16
452.730	1	26
452.900	1	23
453.071	1	9
453.241	1	16
453.412	1	9
453.582	1	11
453.753	1	18
453.923	1	19
454.093	1	18
454.264	1	32
454.434	1	15
454.605	1	10
454.775	1	17
454.946	1	11
455.116	1	17
455.287	1	4
455.457	1	7
455.628	1	14
455.798	1	26
455.968	1	17
456.139	1	21
456.309	1	12
456.480	1	2
456.650	1	9
456.821	1	1
456.991	1	20
457.161	1	6
457.332	1	29
457.502	1	-1
457.673	1	16
457.843	1	23
458.014	1	13
458.184	1	12
458.355	1	10
458.525	1	10
458.695	1	18
458.866	1	9
459.036	1	12
459.207	1	11
459.377	1	14
459.548	1	12
459.718	1	5
459.888	1	18
460.059	1	21
460.229	1	15
460.400	1	21
460.570	1	24
460.740	1	13
460.911	1	20
461.081	1	20
461.252	1	13
461.422	1	12
461.593	1	10
461.763	1	15
461.933	1	12
462.104	1	3
462.274	1	4
462.445	1	12
462.615	1	13
462.785	1	8
462.956	1	25
463.126	1	21
463.297	1	12
463.467	1	16
463.638	1	16
463.808	1	5
463.978	1	1
464.149	1	11
464.319	1	11
464.490	1	28
464.660	1	12
464.830	1	15
465.001	1	19
465.171	1	14
465.342	1	14
465.512	1	8
465.682	1	11
465.853	1	15
466.023	1	11
466.194	1	11
466.364	1	15
466.534	1	11
466.705	1	5
466.875	1	11
467.045	1	7
467.216	1	23
467.386	1	-6
467.557	1	8
467.727	1	3
467.897	1	6
468.068	1	12
468.238	1	11
468.409	1	15
468.579	1	15
468.749	1	11
468.920	1	1
469.090	1	8
469.260	1	7
469.431	1	15
469.601	1	17
469.772	1	18
469.942	1	5
470.112	1	17
470.283	1	2
470.453	1	13
470.623	1	5
470.794	1	8
470.964	1	1
471.135	1	9
471.305	1	6
471.475	1	22
471.646	1	-2
471.816	1	14
471.986	1	11
472.157	1	28
472.327	1	0
472.497	1	14
472.668	1	5
472.838	1	12
473.009	1	18
473.179	1	3
473.349	1	4
473.520	1	19
473.690	1	9
473.860	1	17
474.031	1	14
474.201	1	9
474.371	1	18
474.542	1	11
474.712	1	13
474.882	1	24
475.053	1	22
475.223	1	4
475.394	1	20
475.564	1	8
475.734	1	15
475.905	1	22
476.075	1	1
476.245	1	13
476.416	1	15
476.586	1	18
476.756	1	5
476.927	1	16
477.097	1	16
477.267	1	8
477.438	1	-2
477.608	1	7
477.778	1	12
477.949	1	12
478.119	1	16
478.289	1	11
478.460	1	16
478.630	1	16
478.800	1	9
478.971	1	12
479.141	1	8
479.311	1	-5
479.482	1	-1
479.652	1	5
479.822	1	9
479.993	1	17
480.163	1	16
480.333	1	11
480.504	1	19
480.674	1	5
480.844	1	10
481.015	1	13
481.185	1	8
481.355	1	7
481.525	1	4
481.696	1	5
481.866	1	10
482.036	1	10
482.207	1	4
482.377	1	5
482.547	1	13
482.718	1	9
482.888	1	15
483.058	1	2
483.229	1	8
483.399	1	8
483.569	1	12
483.740	1	3
483.910	1	3
484.080	1	6
484.250	1	17
484.421	1	15
484.591	1	16
484.761	1	23
484.932	1	15
485.102	1	24
485.272	1	17
485.443	1	18
485.613	1	4
485.783	1	15
485.953	1	5
486.124	1	15
486.294	1	9
486.464	1	16
486.635	1	15
486.805	1	17
486.975	1	11
487.146	1	14
487.316	1	5
487.486	1	3
487.656	1	6
487.827	1	17
487.997	1	0
488.167	1	12
488.338	1	20
488.508	1	2
488.678	1	-1
488.848	1	10
489.019	1	3
489.189	1	6
489.359	1	0
489.529	1	12
489.700	1	12
489.870	1	20
490.040	1	2
490.211	1	4
490.381	1	9
490.551	1	10
490.721	1	9
490.892	1	4
491.062	1	13
491.232	1	11
491.402	1	15
491.573	1	1
491.743	1	5
491.913	1	10
492.084	1	8
492.254	1	-3
492.424	1	-1
492.594	1	17
492.765	1	12
492.935	1	6
493.105	1	17
493.275	1	15
493.446	1	15
493.616	1	18
493.786	1	1
493.956	1	8
494.127	1	1
494.297	1	4
494.467	1	6
494.637	1	8
494.808	1	7
494.978	1	0
495.148	1	6
495.318	1	3
495.489	1	6
495.659	1	9
495.829	1	0
495.999	1	4
496.170	1	14
496.340	1	8
496.510	1	8
496.680	1	4
496.851	1	5
497.021	1	-1
497.191	1	5
497.361	1	11
497.532	1	-2
497.702	1	1
497.872	1	9
498.042	1	14
498.213	1	10
498.383	1	12
498.553	1	4
498.723	1	10
498.894	1	11
499.064	1	12
499.234	1	2
499.404	1	5
499.574	1	4
499.745	1	9
499.915	1	10
500.085	1	17
500.255	1	13
500.426	1	4
500.596	1	8
500.766	1	5
500.936	1	5
501.106	1	-3
501.277	1	7
501.447	1	10
501.617	1	9
501.787	1	5
501.958	1	-2
502.128	1	11
502.298	1	-3
502.468	1	10
502.638	1	5
502.809	1	7
502.979	1	3
503.149	1	-6
503.319	1	3
503.489	1	7
503.660	1	8
503.830	1	3
504.000	1	15
504.170	1	1
504.340	1	1
504.511	1	12
504.681	1	6
504.851	1	5
505.021	1	12
505.192	1	-2
505.362	1	18
505.532	1	6
505.702	1	6
505.872	1	1
506.043	1	7
506.213	1	3
506.383	1	9
506.553	1	15
506.723	1	13
506.893	1	6
507.064	1	9
507.234	1	1
507.404	1	0
507.574	1	12
507.744	1	4
507.915	1	6
508.085	1	17
508.255	1	18
508.425	1	8
508.595	1	13
508.766	1	11
508.936	1	-11
509.106	1	10
509.276	1	13
509.446	1	9
509.616	1	8
509.787	1	5
509.957	1	13
510.127	1	15
510.297	1	-4
510.467	1	-9
510.638	1	4
510.808	1	4
510.978	1	-7
511.148	1	9
511.318	1	2
511.488	1	7
511.659	1	8
511.829	1	6
511.999	1	11
512.169	1	7
512.339	1	0
512.509	1	2
512.680	1	7
512.850	1	10
513.020	1	6
513.190	1	8
513.360	1	-5
513.530	1	7
513.700	1	14
513.871	1	4
514.041	1	-3
514.211	1	14
514.381	1	9
514.551	1	3
514.721	1	-6
514.892	1	8
515.062	1	7
515.232	1	4
515.402	1	-3
515.572	1	0
515.742	1	6
515.912	1	12
516.083	1	0
516.253	1	17
516.423	1	3
516.593	1	5
516.763	1	3
516.933	1	1
517.104	1	7
517.274	1	1
517.444	1	13
517.614	1	-3
517.784	1	10
517.954	1	6
518.124	1	3
518.294	1	2
518.465	1	1
518.635	1	8
518.805	1	-20
518.975	1	-3
519.145	1	0
519.315	1	6
519.485	1	-5
519.656	1	17
519.826	1	11
519.996	1	2
520.166	1	7
520.336	1	10
520.506	1	-3
520.676	1	-4
520.846	1	16
521.017	1	9
521.187	1	-1
521.357	1	17
521.527	1	3
521.697	1	5
521.867	1	-4
522.037	1	11
522.207	1	12
522.377	1	8
522.548	1	0
522.718	1	7
522.888	1	21
523.058	1	5
523.228	1	9
523.398	1	5
523.568	1	10
523.738	1	4
523.909	1	10
524.079	1	6
524.249	1	4
524.419	1	2
524.589	1	7
524.759	1	-4
524.929	1	4
525.099	1	5
525.269	1	10
525.439	1	0
525.610	1	22
525.780	1	9
525.950	1	0
526.120	1	4
526.290	1	-1
526.460	1	4
526.630	1	9
526.800	1	5
526.970	1	9
527.140	1	14
527.311	1	1
527.481	1	-8
527.651	1	1
527.821	1	4
527.991	1	18
528.161	1	10
528.331	1	6
528.501	1	7
528.671	1	3
528.841	1	-7
529.011	1	-4
529.181	1	-2
529.352	1	0
529.522	1	1
529.692	1	0
529.862	1	-1
530.032	1	8
530.202	1	8
530.372	1	11
530.542	1	12
530.712	1	8
530.882	1	3
531.052	1	-5
531.222	1	-4
531.392	1	-5
531.563	1	12
531.733	1	-3
531.903	1	7
532.073	1	6
532.243	1	5
532.413	1	2
532.583	1	2
532.753	1	4
532.923	1	-3
533.093	1	3
533.263	1	-4
533.433	1	0
533.603	1	14
533.773	1	6
533.943	1	8
534.113	1	-1
534.284	1	1
534.454	1	7
534.624	1	13
534.794	1	-6
534.964	1	6
535.134	1	2
535.304	1	2
535.474	1	18
535.644	1	-6
535.814	1	-1
535.984	1	-4
536.154	1	-5
536.324	1	5
536.494	1	9
536.664	1	8
536.834	1	1
537.004	1	0
537.174	1	14
537.344	1	0
537.514	1	2
537.685	1	3
537.855	1	8
538.025	1	7
538.195	1	-1
538.365	1	13
538.535	1	-1
538.705	1	12
538.875	1	0
539.045	1	10
539.215	1	-1
539.385	1	6
539.555	1	8
539.725	1	2
539.895	1	-2
540.065	1	8
540.235	1	10
540.405	1	-4
540.575	1	4
540.745	1	3
540.915	1	11
541.085	1	8
541.255	1	0
541.425	1	9
541.595	1	-3
541.765	1	3
541.935	1	5
542.105	1	5
542.275	1	1
542.445	1	-3
542.615	1	0
542.785	1	3
542.955	1	6
543.125	1	-5
543.295	1	3
543.465	1	5
543.635	1	7
543.805	1	15
543.975	1	2
544.145	1	1
544.315	1	7
544.485	1	4
544.655	1	1
544.825	1	-10
544.995	1	-2
545.165	1	-1
545.335	1	2
545.505	1	-8
545.675	1	8
545.845	1	6
546.015	1	3
546.185	1	13
546.355	1	9
546.525	1	5
546.695	1	5
546.865	1	-5
547.035	1	1
547.205	1	-6
547.375	1	10
547.545	1	9
547.715	1	0
547.885	1	8
548.055	1	6
548.225	1	11
548.395	1	5
548.565	1	7
548.735	1	4
548.905	1	4
549.075	1	12
549.245	1	1
549.415	1	-4
549.585	1	5
549.755	1	10
549.925	1	-1
550.095	1	5
550.265	1	-11
550.435	1	-1
550.605	1	-4
550.775	1	7
550.945	1	7
551.115	1	10
551.285	1	3
551.455	1	-6
551.625	1	9
551.795	1	12
551.965	1	1
552.135	1	-3
552.305	1	-1
552.475	1	1
552.645	1	2
552.815	1	3
552.985	1	6
553.155	1	3
553.325	1	11
553.495	1	1
553.665	1	3
553.835	1	2
554.004	1	18
554.174	1	-1
554.344	1	2
554.514	1	1
554.684	1	12
554.854	1	9
555.024	1	-3
555.194	1	-1
555.364	1	14
555.534	1	10
555.704	1	0
555.874	1	11
556.044	1	3
556.214	1	1
556.384	1	-2
556.554	1	8
556.724	1	11
556.894	1	2
557.064	1	10
557.234	1	3
557.404	1	4
557.573	1	7
557.743	1	1
557.913	1	0
558.083	1	-5
558.253	1	8
558.423	1	7
558.593	1	10
558.763	1	0
558.933	1	-5
559.103	1	10
559.273	1	3
559.443	1	3
559.613	1	1
559.783	1	6
559.953	1	6
560.122	1	12
560.292	1	2
560.462	1	-3
560.632	1	7
560.802	1	-1
560.972	1	7
561.142	1	7
561.312	1	-7
561.482	1	-2
561.652	1	1
561.822	1	4
561.992	1	3
562.162	1	4
562.331	1	7
562.501	1	-3
562.671	1	4
562.841	1	-4
563.011	1	-2
563.181	1	5
563.351	1	-22
563.521	1	3
563.691	1	4
563.861	1	1
564.031	1	8
564.201	1	15
564.370	1	7
564.540	1	16
564.710	1	-6
564.880	1	5
565.050	1	6
565.220	1	2
565.390	1	12
565.560	1	7
565.730	1	-3
565.900	1	7
566.069	1	17
566.239	1	3
566.409	1	6
566.579	1	4
566.749	1	-2
566.919	1	6
567.089	1	4
567.259	1	6
567.429	1	5
567.599	1	-1
567.768	1	6
567.938	1	7
568.108	1	0
568.278	1	2
568.448	1	-3
568.618	1	-4
568.788	1	3
568.958	1	1
569.128	1	-2
569.297	1	-4
569.467	1	5
569.637	1	9
569.807	1	1
569.977	1	3
570.147	1	17
570.317	1	-9
570.487	1	-2
570.656	1	2
570.826	1	0
570.996	1	2
571.166	1	8
571.336	1	4
571.506	1	14
571.676	1	4
571.846	1	5
572.015	1	5
572.185	1	-1
572.355	1	2
572.525	1	1
572.695	1	-4
572.865	1	5
573.035	1	2
573.205	1	3
573.374	1	-5
573.544	1	11
573.714	1	12
573.884	1	9
574.054	1	1
574.224	1	-4
574.394	1	-5
574.563	1	2
574.733	1	-3
574.903	1	2
575.073	1	-2
575.243	1	6
575.413	1	6
575.583	1	1
575.752	1	5
575.922	1	-1
576.092	1	-5
576.262	1	3
576.432	1	10
576.602	1	1
576.772	1	19
576.941	1	3
577.111	1	-9
577.281	1	-10
577.451	1	-9
577.621	1	6
577.791	1	12
577.960	1	-3
578.130	1	6
578.300	1	2
578.470	1	20
578.640	1	-5
578.810	1	3
578.979	1	-4
579.149	1	1
579.319	1	-9
579.489	1	5
579.659	1	4
579.829	1	1
579.998	1	15
580.168	1	13
580.338	1	-3
580.508	1	3
580.678	1	4
580.848	1	-6
581.017	1	-2
581.187	1	10
581.357	1	-4
581.527	1	14
581.697	1	9
581.867	1	4
582.036	1	0
582.206	1	2
582.376	1	10
582.546	1	-2
582.716	1	-6
582.885	1	-3
583.055	1	7
583.225	1	-10
583.395	1	6
583.565	1	1
583.735	1	11
583.904	1	11
584.074	1	5
584.244	1	4
584.414	1	2
584.584	1	15
584.753	1	-6
584.923	1	4
585.093	1	3
585.263	1	4
585.433	1	1
585.602	1	-6
585.772	1	3
585.942	1	0
586.112	1	-2
586.282	1	-7
586.451	1	-6
586.621	1	-7
586.791	1	-1
586.961	1	2
587.131	1	9
587.300	1	5
587.470	1	13
587.640	1	6
587.810	1	1
587.980	1	1
588.149	1	-6
588.319	1	-11
588.489	1	3
588.659	1	4
588.829	1	2
588.998	1	5
589.168	1	5
589.338	1	4
589.508	1	-4
589.677	1	-4
589.847	1	-5
590.017	1	12
590.187	1	-10
590.357	1	7
590.526	1	18
590.696	1	6
590.866	1	5
591.036	1	3
591.205	1	12
591.375	1	1
591.545	1	-7
591.715	1	9
591.885	1	11
592.054	1	2
592.224	1	0
592.394	1	2
592.564	1	2
592.733	1	1
592.903	1	6
593.073	1	-5
593.243	1	7
593.412	1	5
593.582	1	5
593.752	1	-7
593.922	1	8
594.091	1	0
594.261	1	-9
594.431	1	1
594.601	1	2
594.771	1	6
594.940	1	7
595.110	1	-2
595.280	1	0
595.450	1	0
595.619	1	4
595.789	1	-8
595.959	1	3
596.129	1	-2
596.298	1	-2
596.468	1	-1
596.638	1	5
596.808	1	0
596.977	1	-2
597.147	1	5
597.317	1	3
597.487	1	6
597.656	1	-4
597.826	1	4
597.996	1	3
598.166	1	-4
598.335	1	-6
598.505	1	0
598.675	1	-3
598.844	1	5
599.014	1	10
599.184	1	-4
599.354	1	-5
599.523	1	7
599.693	1	-2
599.863	1	0
600.033	1	6
600.202	1	8
600.372	1	4
600.542	1	17
600.712	1	-4
600.881	1	1
601.051	1	10
601.221	1	17
601.390	1	-2
601.560	1	8
601.730	1	9
601.900	1	10
602.069	1	6
602.239	1	-3
602.409	1	-6
602.578	1	-1
602.748	1	4
602.918	1	7
603.088	1	9
603.257	1	11
603.427	1	7
603.597	1	4
603.767	1	0
603.936	1	0
604.106	1	8
604.276	1	4
604.445	1	0
604.615	1	5
604.785	1	0
604.954	1	3
605.124	1	11
605.294	1	4
605.464	1	-9
605.633	1	-1
605.803	1	9
605.973	1	-10
606.142	1	-2
606.312	1	14
606.482	1	3
606.652	1	8
606.821	1	-3
606.991	1	5
607.161	1	2
607.330	1	10
607.500	1	4
607.670	1	1
607.839	1	10
608.009	1	8
608.179	1	0
608.348	1	7
608.518	1	7
608.688	1	2
608.858	1	-3
609.027	1	-5
609.197	1	4
609.367	1	8
609.536	1	3
609.706	1	5
609.876	1	0
610.045	1	7
610.215	1	2
610.385	1	7
610.554	1	-3
610.724	1	10
610.894	1	1
611.063	1	1
611.233	1	-4
611.403	1	6
611.572	1	8
611.742	1	8
611.912	1	-1
612.081	1	0
612.251	1	6
612.421	1	-4
612.590	1	-6
612.760	1	6
612.930	1	4
613.099	1	-1
613.269	1	11
613.439	1	4
613.608	1	5
613.778	1	10
613.948	1	0
614.117	1	-7
614.287	1	14
614.457	1	0
614.626	1	2
614.796	1	8
614.966	1	11
615.135	1	11
615.305	1	16
615.475	1	5
615.644	1	-7
615.814	1	-1
615.984	1	6
616.153	1	-6
616.323	1	11
616.493	1	6
616.662	1	18
616.832	1	8
617.002	1	1
617.171	1	-2
617.341	1	2
617.511	1	-2
617.680	1	-2
617.850	1	0
618.019	1	8
618.189	1	9
618.359	1	13
618.528	1	10
618.698	1	6
618.868	1	-8
619.037	1	4
619.207	1	4
619.377	1	3
619.546	1	0
619.716	1	-1
619.885	1	3
620.055	1	1
620.225	1	4
620.394	1	-6
620.564	1	10
620.734	1	2
620.903	1	0
621.073	1	14
621.242	1	0
621.412	1	2
621.582	1	-4
621.751	1	1
621.921	1	5
622.091	1	-7
622.260	1	0
622.430	1	11
622.599	1	-3
622.769	1	9
622.939	1	6
623.108	1	15
623.278	1	-12
623.448	1	1
623.617	1	-1
623.787	1	4
623.956	1	10
624.126	1	3
624.296	1	-4
624.465	1	5
624.635	1	3
624.804	1	4
624.974	1	6
625.144	1	4
625.313	1	-5
625.483	1	-5
625.652	1	-3
625.822	1	-3
625.992	1	7
626.161	1	21
626.331	1	10
626.501	1	7
626.670	1	-4
626.840	1	-1
627.009	1	0
627.179	1	6
627.348	1	12
627.518	1	5
627.688	1	16
627.857	1	16
628.027	1	-4
628.196	1	-4
628.366	1	7
628.536	1	-2
628.705	1	1
628.875	1	2
629.044	1	-3
629.214	1	14
629.384	1	1
629.553	1	11
629.723	1	0
629.892	1	11
630.062	1	2
630.232	1	2
630.401	1	8
630.571	1	2
630.740	1	-7
630.910	1	7
631.079	1	7
631.249	1	9
631.419	1	5
631.588	1	-12
631.758	1	7
631.927	1	1
632.097	1	-3
632.266	1	-3
632.436	1	6
632.606	1	-4
632.775	1	10
632.945	1	0
633.114	1	8
633.284	1	1
633.453	1	5
633.623	1	-3
633.793	1	4
633.962	1	1
634.132	1	7
634.301	1	12
634.471	1	2
634.640	1	4
634.810	1	0
634.979	1	15
635.149	1	7
635.319	1	5
635.488	1	-1
635.658	1	0
635.827	1	-2
635.997	1	-1
636.166	1	3
636.336	1	0
636.505	1	16
636.675	1	2
636.845	1	3
637.014	1	-3
637.184	1	7
637.353	1	7
637.523	1	10
637.692	1	6
637.862	1	-4
638.031	1	14
638.201	1	19
638.370	1	-3
638.540	1	0
638.710	1	-2
638.879	1	5
639.049	1	-4
639.218	1	1
639.388	1	-1
639.557	1	7
639.727	1	4
639.896	1	4
640.066	1	2
640.235	1	6
640.405	1	9
640.574	1	-4
640.744	1	-2
640.914	1	5
641.083	1	-5
641.253	1	4
641.422	1	3
641.592	1	11
641.761	1	2
641.931	1	8
642.100	1	22
642.270	1	-3
642.439	1	4
642.609	1	18
642.778	1	-6
642.948	1	-7
643.117	1	8
643.287	1	10
643.456	1	1
643.626	1	19
643.795	1	-4
643.965	1	9
644.134	1	5
644.304	1	1
644.473	1	1
644.643	1	11
644.812	1	-1
644.982	1	8
645.151	1	8
645.321	1	5
645.490	1	11
645.660	1	-1
645.829	1	-4
645.999	1	3
646.168	1	-5
646.338	1	8
646.507	1	-8
646.677	1	6
646.846	1	-2
647.016	1	-7
647.185	1	11
647.355	1	-14
647.524	1	15
647.694	1	13
647.863	1	6
648.033	1	-3
648.202	1	5
648.372	1	4
648.541	1	-4
648.711	1	3
648.880	1	4
649.050	1	0
649.219	1	-3
649.389	1	8
649.558	1	4
649.728	1	12
649.897	1	6
650.067	1	7
650.236	1	17
650.406	1	5
650.575	1	10
650.745	1	10
650.914	1	10
651.084	1	-12
651.253	1	2
651.423	1	-2
651.592	1	0
651.762	1	-2
651.931	1	6
652.101	1	14
652.270	1	5
652.440	1	8
652.609	1	4
652.778	1	1
652.948	1	12
653.117	1	0
653.287	1	4
653.456	1	5
653.626	1	8
653.795	1	10
653.965	1	7
654.134	1	5
654.304	1	-5
654.473	1	10
654.643	1	8
654.812	1	3
654.982	1	4
655.151	1	1
655.320	1	0
655.490	1	0
655.659	1	10
655.829	1	-3
655.998	1	0
656.168	1	-1
656.337	1	18
656.507	1	3
656.676	1	8
656.846	1	7
657.015	1	3
657.184	1	13
657.354	1	9
657.523	1	9
657.693	1	16
657.862	1	9
658.032	1	-1
658.201	1	1
658.371	1	13
658.540	1	7
658.709	1	4
658.879	1	3
659.048	1	0
659.218	1	7
659.387	1	3
659.557	1	5
659.726	1	13
659.895	1	-4
660.065	1	0
660.234	1	1
660.404	1	5
660.573	1	6
660.743	1	6
660.912	1	9
661.081	1	15
661.251	1	-3
661.420	1	5
661.590	1	10
661.759	1	-1
661.929	1	13
662.098	1	13
662.267	1	-2
662.437	1	7
662.606	1	11
662.776	1	7
662.945	1	14
663.115	1	4
663.284	1	-7
663.453	1	6
663.623	1	7
663.792	1	13
663.962	1	1
664.131	1	7
664.300	1	19
664.470	1	-2
664.639	1	6
664.809	1	4
664.978	1	9
665.148	1	1
665.317	1	1
665.486	1	13
665.656	1	-6
665.825	1	11
665.995	1	3
666.164	1	2
666.333	1	9
666.503	1	4
666.672	1	-6
666.842	1	-5
667.011	1	2
667.180	1	21
667.350	1	-1
667.519	1	7
667.689	1	4
667.858	1	-1
668.027	1	12
668.197	1	5
668.366	1	-10
668.536	1	7
668.705	1	12
668.874	1	6
669.044	1	-2
669.213	1	6
669.382	1	-6
669.552	1	7
669.721	1	0
669.891	1	10
670.060	1	7
670.229	1	16
670.399	1	2
670.568	1	19
670.738	1	11
670.907	1	-4
671.076	1	-10
671.246	1	3
671.415	1	4
671.584	1	2
671.754	1	3
671.923	1	7
672.093	1	5
672.262	1	-5
672.431	1	7
672.601	1	4
672.770	1	-2
672.939	1	7
673.109	1	6
673.278	1	9
673.448	1	22
673.617	1	9
673.786	1	18
