325.333	1	24
325.504	1	19
325.675	1	24
325.846	1	29
326.017	1	18
326.188	1	26
326.359	1	24
326.531	1	17
326.702	1	22
326.873	1	30
327.044	1	30
327.215	1	18
327.386	1	35
327.557	1	27
327.728	1	27
327.899	1	35
328.070	1	43
328.241	1	40
328.412	1	20
328.583	1	36
328.754	1	25
328.926	1	35
329.097	1	26
329.268	1	35
329.439	1	29
329.610	1	40
329.781	1	28
329.952	1	41
330.123	1	42
330.294	1	29
330.465	1	35
330.636	1	41
330.807	1	38
330.978	1	32
331.149	1	35
331.320	1	45
331.492	1	40
331.663	1	27
331.834	1	40
332.005	1	40
332.176	1	50
332.347	1	50
332.518	1	33
332.689	1	39
332.860	1	41
333.031	1	47
333.202	1	33
333.373	1	48
333.544	1	34
333.715	1	47
333.886	1	32
334.057	1	50
334.228	1	36
334.399	1	37
334.570	1	48
334.741	1	41
334.912	1	48
335.084	1	50
335.255	1	47
335.426	1	51
335.597	1	42
335.768	1	35
335.939	1	53
336.110	1	46
336.281	1	43
336.452	1	39
336.623	1	38
336.794	1	52
336.965	1	56
337.136	1	53
337.307	1	43
337.478	1	44
337.649	1	54
337.820	1	48
337.991	1	46
338.162	1	53
338.333	1	43
338.504	1	39
338.675	1	56
338.846	1	51
339.017	1	44
339.188	1	44
339.359	1	49
339.530	1	55
339.701	1	53
339.872	1	64
340.043	1	47
340.214	1	55
340.385	1	62
340.556	1	45
340.727	1	53
340.898	1	59
341.069	1	52
341.240	1	64
341.411	1	61
341.582	1	63
341.753	1	50
341.924	1	57
342.095	1	56
342.266	1	59
342.437	1	70
342.608	1	64
342.779	1	61
342.950	1	63
343.121	1	65
343.292	1	69
343.463	1	57
343.634	1	60
343.805	1	66
343.976	1	71
344.147	1	58
344.318	1	61
344.489	1	62
344.660	1	64
344.831	1	70
345.002	1	58
345.173	1	70
345.344	1	67
345.515	1	58
345.686	1	74
345.857	1	68
346.028	1	64
346.199	1	64
346.370	1	66
346.541	1	68
346.712	1	68
346.883	1	72
347.054	1	69
347.225	1	66
347.396	1	78
347.567	1	79
347.738	1	65
347.909	1	81
348.080	1	76
348.251	1	86
348.422	1	76
348.593	1	73
348.764	1	77
348.935	1	71
349.106	1	73
349.277	1	79
349.448	1	69
349.619	1	88
349.790	1	67
349.961	1	92
350.132	1	88
350.303	1	79
350.474	1	92
350.645	1	88
350.816	1	84
350.987	1	87
351.157	1	74
351.328	1	103
351.499	1	92
351.670	1	88
351.841	1	109
352.012	1	88
352.183	1	95
352.354	1	99
352.525	1	101
352.696	1	97
352.867	1	84
353.038	1	106
353.209	1	96
353.380	1	94
353.551	1	86
353.722	1	84
353.893	1	97
354.064	1	97
354.235	1	87
354.406	1	91
354.576	1	78
354.747	1	86
354.918	1	103
355.089	1	92
355.260	1	101
355.431	1	106
355.602	1	99
355.773	1	102
355.944	1	97
356.115	1	88
356.286	1	94
356.457	1	105
356.628	1	89
356.799	1	91
356.970	1	118
357.141	1	95
357.311	1	87
357.482	1	95
357.653	1	111
357.824	1	103
357.995	1	102
358.166	1	89
358.337	1	108
358.508	1	106
358.679	1	105
358.850	1	104
359.021	1	102
359.192	1	112
359.363	1	97
359.533	1	106
359.704	1	117
359.875	1	103
360.046	1	112
360.217	1	108
360.388	1	98
360.559	1	100
360.730	1	109
360.901	1	112
361.072	1	126
361.243	1	121
361.414	1	107
361.584	1	105
361.755	1	106
361.926	1	106
362.097	1	106
362.268	1	112
362.439	1	103
362.610	1	106
362.781	1	98
362.952	1	103
363.123	1	112
363.293	1	99
363.464	1	113
363.635	1	119
363.806	1	114
363.977	1	95
364.148	1	109
364.319	1	109
364.490	1	116
364.661	1	112
364.832	1	118
365.002	1	113
365.173	1	108
365.344	1	114
365.515	1	110
365.686	1	120
365.857	1	110
366.028	1	116
366.199	1	120
366.370	1	122
366.540	1	115
366.711	1	104
366.882	1	110
367.053	1	112
367.224	1	124
367.395	1	118
367.566	1	125
367.737	1	131
367.908	1	122
368.078	1	121
368.249	1	123
368.420	1	110
368.591	1	109
368.762	1	110
368.933	1	112
369.104	1	106
369.274	1	118
369.445	1	126
369.616	1	122
369.787	1	124
369.958	1	129
370.129	1	115
370.300	1	130
370.471	1	118
370.641	1	130
370.812	1	121
370.983	1	117
371.154	1	118
371.325	1	126
371.496	1	116
371.667	1	119
371.837	1	114
372.008	1	127
372.179	1	117
372.350	1	129
372.521	1	105
372.692	1	115
372.863	1	129
373.033	1	108
373.204	1	119
373.375	1	130
373.546	1	131
373.717	1	118
373.888	1	134
374.059	1	132
374.229	1	128
374.400	1	125
374.571	1	125
374.742	1	122
374.913	1	129
375.084	1	115
375.254	1	151
375.425	1	132
375.596	1	138
375.767	1	130
375.938	1	125
376.109	1	131
376.279	1	145
376.450	1	136
376.621	1	131
376.792	1	131
376.963	1	141
377.134	1	147
377.304	1	140
377.475	1	144
377.646	1	120
377.817	1	131
377.988	1	130
378.159	1	138
378.329	1	151
378.500	1	129
378.671	1	137
378.842	1	130
379.013	1	129
379.184	1	131
379.354	1	153
379.525	1	148
379.696	1	144
379.867	1	147
380.038	1	138
380.209	1	144
380.379	1	138
380.550	1	140
380.721	1	151
380.892	1	146
381.063	1	127
381.233	1	151
381.404	1	147
381.575	1	152
381.746	1	153
381.917	1	146
382.087	1	154
382.258	1	148
382.429	1	140
382.600	1	156
382.771	1	143
382.941	1	147
383.112	1	137
383.283	1	152
383.454	1	156
383.625	1	142
383.795	1	153
383.966	1	145
384.137	1	155
384.308	1	143
384.479	1	150
384.649	1	158
384.820	1	149
384.991	1	159
385.162	1	153
385.333	1	157
385.503	1	157
385.674	1	145
385.845	1	167
386.016	1	159
386.187	1	151
386.357	1	169
386.528	1	171
386.699	1	170
386.870	1	161
387.041	1	172
387.211	1	167
387.382	1	169
387.553	1	177
387.724	1	166
387.894	1	159
388.065	1	166
388.236	1	179
388.407	1	162
388.578	1	168
388.748	1	157
388.919	1	185
389.090	1	172
389.261	1	178
389.431	1	187
389.602	1	172
389.773	1	165
389.944	1	163
390.114	1	163
390.285	1	164
390.456	1	178
390.627	1	170
390.798	1	164
390.968	1	165
391.139	1	172
391.310	1	174
391.481	1	161
391.651	1	177
391.822	1	167
391.993	1	162
392.164	1	169
392.334	1	158
392.505	1	161
392.676	1	178
392.847	1	188
393.017	1	176
393.188	1	163
393.359	1	156
393.530	1	149
393.700	1	170
393.871	1	165
394.042	1	163
394.213	1	162
394.383	1	169
394.554	1	162
394.725	1	189
394.896	1	173
395.066	1	176
395.237	1	177
395.408	1	178
395.579	1	178
395.749	1	180
395.920	1	182
396.091	1	180
396.262	1	171
396.432	1	170
396.603	1	190
396.774	1	182
396.945	1	191
397.115	1	186
397.286	1	175
397.457	1	174
397.627	1	180
397.798	1	191
397.969	1	185
398.140	1	182
398.310	1	179
398.481	1	175
398.652	1	177
398.823	1	182
398.993	1	155
399.164	1	182
399.335	1	183
399.505	1	190
399.676	1	180
399.847	1	174
400.018	1	175
400.188	1	180
400.359	1	198
400.530	1	184
400.700	1	183
400.871	1	184
401.042	1	170
401.213	1	190
401.383	1	195
401.554	1	184
401.725	1	188
401.895	1	176
402.066	1	181
402.237	1	178
402.408	1	192
402.578	1	178
402.749	1	188
402.920	1	174
403.090	1	177
403.261	1	179
403.432	1	187
403.603	1	193
403.773	1	193
403.944	1	204
404.115	1	193
404.285	1	190
404.456	1	184
404.627	1	181
404.797	1	175
404.968	1	187
405.139	1	186
405.310	1	195
405.480	1	193
405.651	1	184
405.822	1	187
405.992	1	185
406.163	1	179
406.334	1	192
406.504	1	188
406.675	1	207
406.846	1	183
407.016	1	197
407.187	1	194
407.358	1	191
407.528	1	188
407.699	1	182
407.870	1	180
408.041	1	202
408.211	1	199
408.382	1	197
408.553	1	177
408.723	1	199
408.894	1	180
409.065	1	193
409.235	1	188
409.406	1	190
409.577	1	182
409.747	1	202
409.918	1	193
410.089	1	195
410.259	1	193
410.430	1	194
410.601	1	182
410.771	1	197
410.942	1	197
411.113	1	195
411.283	1	197
411.454	1	192
411.625	1	186
411.795	1	190
411.966	1	185
412.137	1	194
412.307	1	182
412.478	1	194
412.649	1	191
412.819	1	193
412.990	1	187
413.161	1	176
413.331	1	176
413.502	1	182
413.672	1	183
413.843	1	183
414.014	1	177
414.184	1	190
414.355	1	180
414.526	1	191
414.696	1	192
414.867	1	182
415.038	1	168
415.208	1	186
415.379	1	179
415.550	1	196
415.720	1	189
415.891	1	190
416.062	1	180
416.232	1	178
416.403	1	192
416.573	1	177
416.744	1	175
416.915	1	182
417.085	1	183
417.256	1	190
417.427	1	184
417.597	1	183
417.768	1	180
417.939	1	180
418.109	1	191
418.280	1	204
418.450	1	180
418.621	1	159
418.792	1	186
418.962	1	192
419.133	1	183
419.304	1	185
419.474	1	173
419.645	1	179
419.815	1	179
419.986	1	187
420.157	1	193
420.327	1	191
420.498	1	183
420.669	1	180
420.839	1	187
421.010	1	186
421.180	1	187
421.351	1	180
421.522	1	184
421.692	1	177
421.863	1	172
422.033	1	178
422.204	1	180
422.375	1	169
422.545	1	172
422.716	1	186
422.886	1	179
423.057	1	181
423.228	1	168
423.398	1	171
423.569	1	185
423.740	1	170
423.910	1	166
424.081	1	173
424.251	1	178
424.422	1	179
424.593	1	179
424.763	1	181
424.934	1	181
425.104	1	175
425.275	1	174
425.445	1	152
425.616	1	159
425.787	1	177
425.957	1	174
426.128	1	191
426.298	1	179
426.469	1	170
426.640	1	163
426.810	1	168
426.981	1	165
427.151	1	168
427.322	1	162
427.493	1	176
427.663	1	148
427.834	1	155
428.004	1	172
428.175	1	173
428.345	1	177
428.516	1	159
428.687	1	170
428.857	1	149
429.028	1	168
429.198	1	179
429.369	1	175
429.540	1	156
429.710	1	143
429.881	1	169
430.051	1	171
430.222	1	160
430.392	1	156
430.563	1	179
430.734	1	169
430.904	1	153
431.075	1	169
431.245	1	162
431.416	1	167
431.586	1	169
431.757	1	162
431.927	1	168
432.098	1	154
432.269	1	165
432.439	1	158
432.610	1	165
432.780	1	173
432.951	1	156
433.121	1	157
433.292	1	166
433.462	1	175
433.633	1	167
433.804	1	153
433.974	1	164
434.145	1	179
434.315	1	148
434.486	1	160
434.656	1	162
434.827	1	145
434.997	1	151
435.168	1	160
435.339	1	161
435.509	1	152
435.680	1	155
435.850	1	162
436.021	1	167
436.191	1	160
436.362	1	145
436.532	1	150
436.703	1	145
436.873	1	167
437.044	1	131
437.214	1	151
437.385	1	146
437.556	1	147
437.726	1	160
437.897	1	153
438.067	1	148
438.238	1	131
438.408	1	159
438.579	1	144
438.749	1	155
438.920	1	144
439.090	1	140
439.261	1	134
439.431	1	139
439.602	1	135
439.772	1	145
439.943	1	164
440.113	1	140
440.284	1	139
440.455	1	136
440.625	1	145
440.796	1	155
440.966	1	133
441.137	1	130
441.307	1	125
441.478	1	160
441.648	1	142
441.819	1	142
441.989	1	137
442.160	1	150
442.330	1	142
442.501	1	143
442.671	1	133
442.842	1	116
443.012	1	132
443.183	1	141
443.353	1	131
443.524	1	139
443.694	1	139
443.865	1	138
444.035	1	134
444.206	1	135
444.376	1	127
444.547	1	141
444.717	1	135
444.888	1	129
445.058	1	142
445.229	1	134
445.399	1	128
445.570	1	137
445.740	1	138
445.911	1	134
446.081	1	128
446.252	1	145
446.422	1	133
446.593	1	133
446.763	1	135
446.934	1	126
447.104	1	129
447.275	1	137
447.445	1	148
447.616	1	145
447.786	1	120
447.957	1	136
448.127	1	128
448.298	1	134
448.468	1	130
448.639	1	126
448.809	1	135
448.979	1	120
449.150	1	138
449.320	1	131
449.491	1	126
449.661	1	127
449.832	1	129
450.002	1	133
450.173	1	117
450.343	1	120
450.514	1	130
450.684	1	117
450.855	1	124
451.025	1	127
451.196	1	132
451.366	1	131
451.537	1	113
451.707	1	110
451.878	1	132
452.048	1	131
452.218	1	125
452.389	1	114
452.559	1	118
452.730	1	138
452.900	1	126
453.071	1	103
453.241	1	122
453.412	1	116
453.582	1	111
453.753	1	126
453.923	1	118
454.093	1	115
454.264	1	118
454.434	1	103
454.605	1	113
454.775	1	114
454.946	1	118
455.116	1	121
455.287	1	101
455.457	1	113
455.628	1	108
455.798	1	111
455.968	1	103
456.139	1	112
456.309	1	115
456.480	1	112
456.650	1	106
456.821	1	112
456.991	1	109
457.161	1	93
457.332	1	117
457.502	1	98
457.673	1	114
457.843	1	115
458.014	1	101
458.184	1	104
458.355	1	116
458.525	1	102
458.695	1	111
458.866	1	112
459.036	1	110
459.207	1	105
459.377	1	108
459.548	1	109
459.718	1	106
459.888	1	113
460.059	1	115
460.229	1	115
460.400	1	119
460.570	1	111
460.740	1	106
460.911	1	111
461.081	1	114
461.252	1	103
461.422	1	106
461.593	1	89
461.763	1	108
461.933	1	105
462.104	1	99
462.274	1	101
462.445	1	105
462.615	1	104
462.785	1	107
462.956	1	106
463.126	1	101
463.297	1	98
463.467	1	101
463.638	1	117
463.808	1	96
463.978	1	91
464.149	1	93
464.319	1	91
464.490	1	106
464.660	1	97
464.830	1	103
465.001	1	99
465.171	1	100
465.342	1	117
465.512	1	88
465.682	1	96
465.853	1	100
466.023	1	97
466.194	1	91
466.364	1	101
466.534	1	95
466.705	1	89
466.875	1	99
467.045	1	84
467.216	1	105
467.386	1	81
467.557	1	94
467.727	1	87
467.897	1	87
468.068	1	94
468.238	1	91
468.409	1	82
468.579	1	103
468.749	1	87
468.920	1	80
469.090	1	92
469.260	1	82
469.431	1	90
469.601	1	97
469.772	1	78
469.942	1	81
470.112	1	78
470.283	1	85
470.453	1	89
470.623	1	81
470.794	1	87
470.964	1	89
471.135	1	86
471.305	1	68
471.475	1	91
471.646	1	87
471.816	1	89
471.986	1	91
472.157	1	85
472.327	1	71
472.497	1	79
472.668	1	77
472.838	1	73
473.009	1	87
473.179	1	75
473.349	1	84
473.520	1	85
473.690	1	84
473.860	1	78
474.031	1	79
474.201	1	82
474.371	1	90
474.542	1	91
474.712	1	86
474.882	1	91
475.053	1	89
475.223	1	84
475.394	1	72
475.564	1	81
475.734	1	84
475.905	1	81
476.075	1	81
476.245	1	95
476.416	1	83
476.586	1	78
476.756	1	92
476.927	1	85
477.097	1	86
477.267	1	69
477.438	1	86
477.608	1	81
477.778	1	82
477.949	1	85
478.119	1	95
478.289	1	79
478.460	1	79
478.630	1	80
478.800	1	76
478.971	1	84
479.141	1	75
479.311	1	68
479.482	1	72
479.652	1	75
479.822	1	66
479.993	1	74
480.163	1	77
480.333	1	91
480.504	1	84
480.674	1	72
480.844	1	71
481.015	1	83
481.185	1	66
481.355	1	80
481.525	1	76
481.696	1	73
481.866	1	75
482.036	1	70
482.207	1	79
482.377	1	77
482.547	1	78
482.718	1	72
482.888	1	80
483.058	1	72
483.229	1	69
483.399	1	69
483.569	1	68
483.740	1	70
483.910	1	63
484.080	1	69
484.250	1	74
484.421	1	66
484.591	1	69
484.761	1	84
484.932	1	66
485.102	1	78
485.272	1	67
485.443	1	72
485.613	1	75
485.783	1	54
485.953	1	74
486.124	1	68
486.294	1	68
486.464	1	58
486.635	1	74
486.805	1	73
486.975	1	52
487.146	1	65
487.316	1	58
487.486	1	70
487.656	1	65
487.827	1	65
487.997	1	55
488.167	1	62
488.338	1	74
488.508	1	71
488.678	1	63
488.848	1	86
489.019	1	52
489.189	1	66
489.359	1	52
489.529	1	62
489.700	1	68
489.870	1	69
490.040	1	59
490.211	1	57
490.381	1	65
490.551	1	63
490.721	1	69
490.892	1	60
491.062	1	59
491.232	1	66
491.402	1	65
491.573	1	51
491.743	1	68
491.913	1	73
492.084	1	60
492.254	1	60
492.424	1	60
492.594	1	51
492.765	1	53
492.935	1	51
493.105	1	72
493.275	1	67
493.446	1	70
493.616	1	58
493.786	1	57
493.956	1	69
494.127	1	64
494.297	1	47
494.467	1	56
494.637	1	48
494.808	1	58
494.978	1	49
495.148	1	51
495.318	1	46
495.489	1	60
495.659	1	64
495.829	1	64
495.999	1	44
496.170	1	48
496.340	1	53
496.510	1	59
496.680	1	50
496.851	1	48
497.021	1	54
497.191	1	44
497.361	1	58
497.532	1	45
497.702	1	62
497.872	1	50
498.042	1	54
498.213	1	54
498.383	1	51
498.553	1	55
498.723	1	46
498.894	1	57
499.064	1	54
499.234	1	46
499.404	1	48
499.574	1	58
499.745	1	65
499.915	1	43
500.085	1	47
500.255	1	57
500.426	1	51
500.596	1	55
500.766	1	50
500.936	1	41
501.106	1	47
501.277	1	50
501.447	1	49
501.617	1	45
501.787	1	47
501.958	1	47
502.128	1	41
502.298	1	53
502.468	1	50
502.638	1	50
502.809	1	51
502.979	1	44
503.149	1	37
503.319	1	39
503.489	1	44
503.660	1	43
503.830	1	50
504.000	1	54
504.170	1	47
504.340	1	52
504.511	1	53
504.681	1	49
504.851	1	45
505.021	1	43
505.192	1	47
505.362	1	51
505.532	1	45
505.702	1	42
505.872	1	46
506.043	1	48
506.213	1	40
506.383	1	46
506.553	1	49
506.723	1	40
506.893	1	47
507.064	1	50
507.234	1	38
507.404	1	44
507.574	1	33
507.744	1	40
507.915	1	46
508.085	1	51
508.255	1	47
508.425	1	30
508.595	1	52
508.766	1	50
508.936	1	33
509.106	1	50
509.276	1	47
509.446	1	40
509.616	1	45
509.787	1	45
509.957	1	31
510.127	1	50
510.297	1	40
510.467	1	38
510.638	1	38
510.808	1	34
510.978	1	32
511.148	1	43
511.318	1	44
511.488	1	47
511.659	1	42
511.829	1	30
511.999	1	48
512.169	1	46
512.339	1	39
512.509	1	37
512.680	1	48
512.850	1	46
513.020	1	43
513.190	1	42
513.360	1	39
513.530	1	42
513.700	1	46
513.871	1	42
514.041	1	34
514.211	1	51
514.381	1	42
514.551	1	49
514.721	1	45
514.892	1	53
515.062	1	42
515.232	1	43
515.402	1	35
515.572	1	32
515.742	1	39
515.912	1	37
516.083	1	37
516.253	1	31
516.423	1	42
516.593	1	38
516.763	1	46
516.933	1	27
517.104	1	42
517.274	1	40
517.444	1	34
517.614	1	25
517.784	1	35
517.954	1	36
518.124	1	39
518.294	1	38
518.465	1	37
518.635	1	24
518.805	1	22
518.975	1	31
519.145	1	29
519.315	1	39
519.485	1	34
519.656	1	38
519.826	1	34
519.996	1	26
520.166	1	39
520.336	1	40
520.506	1	29
520.676	1	23
520.846	1	42
521.017	1	34
521.187	1	18
521.357	1	37
521.527	1	33
521.697	1	27
521.867	1	17
522.037	1	35
522.207	1	36
522.377	1	30
522.548	1	34
522.718	1	34
522.888	1	40
523.058	1	39
523.228	1	28
523.398	1	34
523.568	1	36
523.738	1	29
523.909	1	36
524.079	1	36
524.249	1	32
524.419	1	40
524.589	1	24
524.759	1	28
524.929	1	27
525.099	1	25
525.269	1	34
525.439	1	29
525.610	1	43
525.780	1	29
525.950	1	37
526.120	1	29
526.290	1	38
526.460	1	21
526.630	1	34
526.800	1	29
526.970	1	27
527.140	1	37
527.311	1	25
527.481	1	14
527.651	1	31
527.821	1	32
527.991	1	38
528.161	1	35
528.331	1	23
528.501	1	32
528.671	1	17
528.841	1	32
529.011	1	35
529.181	1	34
529.352	1	27
529.522	1	24
529.692	1	36
529.862	1	20
530.032	1	29
530.202	1	31
530.372	1	29
530.542	1	18
530.712	1	38
530.882	1	27
531.052	1	40
531.222	1	30
531.392	1	16
531.563	1	38
531.733	1	24
531.903	1	26
532.073	1	28
532.243	1	13
532.413	1	24
532.583	1	21
532.753	1	29
532.923	1	20
533.093	1	18
533.263	1	20
533.433	1	25
533.603	1	28
533.773	1	18
533.943	1	22
534.113	1	27
534.284	1	17
534.454	1	22
534.624	1	40
534.794	1	14
534.964	1	26
535.134	1	22
535.304	1	19
535.474	1	23
535.644	1	17
535.814	1	11
535.984	1	19
536.154	1	18
536.324	1	20
536.494	1	33
536.664	1	32
536.834	1	23
537.004	1	20
537.174	1	29
537.344	1	18
537.514	1	10
537.685	1	16
537.855	1	30
538.025	1	23
538.195	1	32
538.365	1	26
538.535	1	17
538.705	1	28
538.875	1	29
539.045	1	25
539.215	1	15
539.385	1	13
539.555	1	27
539.725	1	24
539.895	1	15
540.065	1	27
540.235	1	27
540.405	1	10
540.575	1	19
540.745	1	22
540.915	1	30
541.085	1	27
541.255	1	17
541.425	1	26
541.595	1	16
541.765	1	20
541.935	1	28
542.105	1	14
542.275	1	16
542.445	1	13
542.615	1	25
542.785	1	32
542.955	1	18
543.125	1	21
543.295	1	19
543.465	1	23
543.635	1	20
543.805	1	27
543.975	1	16
544.145	1	22
544.315	1	20
544.485	1	27
544.655	1	22
544.825	1	10
544.995	1	15
545.165	1	9
545.335	1	22
545.505	1	16
545.675	1	23
545.845	1	18
546.015	1	28
546.185	1	31
546.355	1	30
546.525	1	24
546.695	1	20
546.865	1	11
547.035	1	20
547.205	1	8
547.375	1	23
547.545	1	19
547.715	1	5
547.885	1	25
548.055	1	11
548.225	1	22
548.395	1	8
548.565	1	18
548.735	1	16
548.905	1	17
549.075	1	21
549.245	1	17
549.415	1	8
549.585	1	21
549.755	1	25
549.925	1	7
550.095	1	13
550.265	1	14
550.435	1	19
550.605	1	8
550.775	1	13
550.945	1	29
551.115	1	20
551.285	1	15
551.455	1	14
551.625	1	18
551.795	1	14
551.965	1	15
552.135	1	12
552.305	1	15
552.475	1	4
552.645	1	18
552.815	1	16
552.985	1	21
553.155	1	12
553.325	1	23
553.495	1	10
553.665	1	12
553.835	1	12
554.004	1	16
554.174	1	18
554.344	1	16
554.514	1	15
554.684	1	17
554.854	1	17
555.024	1	8
555.194	1	12
555.364	1	18
555.534	1	16
555.704	1	12
555.874	1	25
556.044	1	26
556.214	1	11
556.384	1	14
556.554	1	19
556.724	1	13
556.894	1	12
557.064	1	18
557.234	1	9
557.404	1	32
557.573	1	18
557.743	1	13
557.913	1	15
558.083	1	14
558.253	1	25
558.423	1	14
558.593	1	31
558.763	1	5
558.933	1	12
559.103	1	19
559.273	1	20
559.443	1	19
559.613	1	7
559.783	1	15
559.953	1	9
560.122	1	16
560.292	1	17
560.462	1	14
560.632	1	20
560.802	1	19
560.972	1	15
561.142	1	21
561.312	1	10
561.482	1	19
561.652	1	19
561.822	1	7
561.992	1	9
562.162	1	15
562.331	1	14
562.501	1	14
562.671	1	23
562.841	1	9
563.011	1	18
563.181	1	19
563.351	1	14
563.521	1	17
563.691	1	9
563.861	1	15
564.031	1	27
564.201	1	26
564.370	1	9
564.540	1	12
564.710	1	14
564.880	1	18
565.050	1	20
565.220	1	12
565.390	1	10
565.560	1	26
565.730	1	16
565.900	1	15
566.069	1	22
566.239	1	17
566.409	1	17
566.579	1	20
566.749	1	16
566.919	1	19
567.089	1	22
567.259	1	24
567.429	1	7
567.599	1	13
567.768	1	6
567.938	1	12
568.108	1	12
568.278	1	5
568.448	1	12
568.618	1	9
568.788	1	14
568.958	1	6
569.128	1	20
569.297	1	8
569.467	1	11
569.637	1	22
569.807	1	10
569.977	1	18
570.147	1	26
570.317	1	7
570.487	1	21
570.656	1	17
570.826	1	-4
570.996	1	11
571.166	1	21
571.336	1	14
571.506	1	22
571.676	1	13
571.846	1	23
572.015	1	8
572.185	1	5
572.355	1	12
572.525	1	20
572.695	1	16
572.865	1	2
573.035	1	18
573.205	1	16
573.374	1	8
573.544	1	18
573.714	1	25
573.884	1	19
574.054	1	15
574.224	1	9
574.394	1	-2
574.563	1	12
574.733	1	17
574.903	1	11
575.073	1	14
575.243	1	13
575.413	1	21
575.583	1	12
575.752	1	16
575.922	1	9
576.092	1	5
576.262	1	14
576.432	1	19
576.602	1	11
576.772	1	13
576.941	1	15
577.111	1	2
577.281	1	5
577.451	1	-1
577.621	1	17
577.791	1	18
577.960	1	2
578.130	1	15
578.300	1	11
578.470	1	12
578.640	1	8
578.810	1	12
578.979	1	17
579.149	1	7
579.319	1	5
579.489	1	21
579.659	1	7
579.829	1	17
579.998	1	17
580.168	1	18
580.338	1	11
580.508	1	13
580.678	1	15
580.848	1	11
581.017	1	9
581.187	1	17
581.357	1	6
581.527	1	20
581.697	1	19
581.867	1	25
582.036	1	5
582.206	1	10
582.376	1	15
582.546	1	9
582.716	1	-8
582.885	1	-2
583.055	1	12
583.225	1	4
583.395	1	22
583.565	1	7
583.735	1	5
583.904	1	15
584.074	1	13
584.244	1	12
584.414	1	18
584.584	1	12
584.753	1	1
584.923	1	15
585.093	1	11
585.263	1	11
585.433	1	10
585.602	1	4
585.772	1	5
585.942	1	10
586.112	1	16
586.282	1	8
586.451	1	8
586.621	1	-3
586.791	1	5
586.961	1	9
587.131	1	22
587.300	1	9
587.470	1	17
587.640	1	21
587.810	1	-1
587.980	1	8
588.149	1	11
588.319	1	9
588.489	1	7
588.659	1	10
588.829	1	11
588.998	1	20
589.168	1	22
589.338	1	8
589.508	1	12
589.677	1	2
589.847	1	5
590.017	1	22
590.187	1	-5
590.357	1	16
590.526	1	16
590.696	1	8
590.866	1	23
591.036	1	4
591.205	1	22
591.375	1	15
591.545	1	15
591.715	1	19
591.885	1	8
592.054	1	16
592.224	1	10
592.394	1	5
592.564	1	14
592.733	1	14
592.903	1	10
593.073	1	7
593.243	1	20
593.412	1	17
593.582	1	10
593.752	1	6
593.922	1	5
594.091	1	0
594.261	1	10
594.431	1	12
594.601	1	13
594.771	1	8
594.940	1	7
595.110	1	10
595.280	1	15
595.450	1	6
595.619	1	0
595.789	1	13
595.959	1	12
596.129	1	8
596.298	1	8
596.468	1	15
596.638	1	15
596.808	1	15
596.977	1	18
597.147	1	13
597.317	1	11
597.487	1	7
597.656	1	12
597.826	1	7
597.996	1	17
598.166	1	4
598.335	1	1
598.505	1	14
598.675	1	13
598.844	1	14
599.014	1	16
599.184	1	13
599.354	1	-5
599.523	1	19
599.693	1	3
599.863	1	14
600.033	1	11
600.202	1	14
600.372	1	9
600.542	1	19
600.712	1	4
600.881	1	8
601.051	1	17
601.221	1	15
601.390	1	7
601.560	1	13
601.730	1	16
601.900	1	7
602.069	1	19
602.239	1	0
602.409	1	0
602.578	1	10
602.748	1	6
602.918	1	21
603.088	1	11
603.257	1	23
603.427	1	4
603.597	1	18
603.767	1	14
603.936	1	14
604.106	1	15
604.276	1	4
604.445	1	19
604.615	1	9
604.785	1	4
604.954	1	9
605.124	1	10
605.294	1	13
605.464	1	1
605.633	1	15
605.803	1	21
605.973	1	2
606.142	1	9
606.312	1	16
606.482	1	3
606.652	1	20
606.821	1	10
606.991	1	16
607.161	1	7
607.330	1	18
607.500	1	13
607.670	1	11
607.839	1	25
608.009	1	30
608.179	1	21
608.348	1	19
608.518	1	10
608.688	1	21
608.858	1	12
609.027	1	1
609.197	1	14
609.367	1	30
609.536	1	23
609.706	1	9
609.876	1	9
610.045	1	5
610.215	1	16
610.385	1	9
610.554	1	16
610.724	1	26
610.894	1	19
611.063	1	19
611.233	1	11
611.403	1	11
611.572	1	17
611.742	1	27
611.912	1	7
612.081	1	8
612.251	1	23
612.421	1	17
612.590	1	18
612.760	1	13
612.930	1	14
613.099	1	13
613.269	1	20
613.439	1	19
613.608	1	10
613.778	1	12
613.948	1	16
614.117	1	16
614.287	1	20
614.457	1	16
614.626	1	8
614.796	1	20
614.966	1	22
615.135	1	19
615.305	1	27
615.475	1	9
615.644	1	14
615.814	1	16
615.984	1	10
616.153	1	6
616.323	1	15
616.493	1	9
616.662	1	16
616.832	1	19
617.002	1	10
617.171	1	10
617.341	1	15
617.511	1	9
617.680	1	8
617.850	1	12
618.019	1	29
618.189	1	24
618.359	1	18
618.528	1	9
618.698	1	29
618.868	1	19
619.037	1	13
619.207	1	10
619.377	1	3
619.546	1	13
619.716	1	14
619.885	1	7
620.055	1	6
620.225	1	15
620.394	1	10
620.564	1	22
620.734	1	22
620.903	1	2
621.073	1	22
621.242	1	24
621.412	1	12
621.582	1	3
621.751	1	18
621.921	1	25
622.091	1	10
622.260	1	10
622.430	1	22
622.599	1	17
622.769	1	23
622.939	1	24
623.108	1	18
623.278	1	6
623.448	1	23
623.617	1	15
623.787	1	22
623.956	1	15
624.126	1	24
624.296	1	16
624.465	1	22
624.635	1	31
624.804	1	19
624.974	1	18
625.144	1	19
625.313	1	15
625.483	1	9
625.652	1	11
625.822	1	19
625.992	1	18
626.161	1	24
626.331	1	27
626.501	1	27
626.670	1	13
626.840	1	17
627.009	1	12
627.179	1	18
627.348	1	21
627.518	1	12
627.688	1	17
627.857	1	33
628.027	1	15
628.196	1	20
628.366	1	39
628.536	1	18
628.705	1	19
628.875	1	17
629.044	1	18
629.214	1	19
629.384	1	17
629.553	1	31
629.723	1	17
629.892	1	17
630.062	1	24
630.232	1	15
630.401	1	27
630.571	1	20
630.740	1	19
630.910	1	20
631.079	1	23
631.249	1	23
631.419	1	19
631.588	1	11
631.758	1	21
631.927	1	17
632.097	1	12
632.266	1	18
632.436	1	22
632.606	1	15
632.775	1	22
632.945	1	21
633.114	1	25
633.284	1	22
633.453	1	20
633.623	1	15
633.793	1	26
633.962	1	23
634.132	1	24
634.301	1	19
634.471	1	29
634.640	1	21
634.810	1	29
634.979	1	27
635.149	1	21
635.319	1	25
635.488	1	28
635.658	1	12
635.827	1	17
635.997	1	19
636.166	1	31
636.336	1	17
636.505	1	22
636.675	1	21
636.845	1	35
637.014	1	30
637.184	1	35
637.353	1	27
637.523	1	23
637.692	1	28
637.862	1	24
638.031	1	21
638.201	1	34
638.370	1	25
638.540	1	23
638.710	1	24
638.879	1	16
639.049	1	24
639.218	1	21
639.388	1	13
639.557	1	17
639.727	1	27
639.896	1	26
640.066	1	20
640.235	1	30
640.405	1	28
640.574	1	24
640.744	1	18
640.914	1	13
641.083	1	18
641.253	1	20
641.422	1	25
641.592	1	33
641.761	1	28
641.931	1	17
642.100	1	37
642.270	1	25
642.439	1	27
642.609	1	44
642.778	1	23
642.948	1	16
643.117	1	38
643.287	1	24
643.456	1	31
643.626	1	38
643.795	1	17
643.965	1	33
644.134	1	15
644.304	1	25
644.473	1	22
644.643	1	32
644.812	1	32
644.982	1	34
645.151	1	32
645.321	1	22
645.490	1	43
645.660	1	14
645.829	1	12
645.999	1	19
646.168	1	30
646.338	1	27
646.507	1	23
646.677	1	30
646.846	1	21
647.016	1	15
647.185	1	34
647.355	1	13
647.524	1	30
647.694	1	38
647.863	1	30
648.033	1	21
648.202	1	42
648.372	1	19
648.541	1	21
648.711	1	35
648.880	1	16
649.050	1	24
649.219	1	30
649.389	1	31
649.558	1	21
649.728	1	34
649.897	1	12
650.067	1	25
650.236	1	39
650.406	1	28
650.575	1	42
650.745	1	25
650.914	1	24
651.084	1	26
651.253	1	27
651.423	1	30
651.592	1	30
651.762	1	23
651.931	1	25
652.101	1	32
652.270	1	34
652.440	1	36
652.609	1	22
652.778	1	14
652.948	1	37
653.117	1	23
653.287	1	26
653.456	1	41
653.626	1	37
653.795	1	31
653.965	1	30
654.134	1	40
654.304	1	19
654.473	1	28
654.643	1	29
654.812	1	35
654.982	1	28
655.151	1	29
655.320	1	37
655.490	1	27
655.659	1	34
655.829	1	29
655.998	1	21
656.168	1	30
656.337	1	37
656.507	1	28
656.676	1	40
656.846	1	36
657.015	1	33
657.184	1	40
657.354	1	42
657.523	1	19
657.693	1	43
657.862	1	32
658.032	1	26
658.201	1	30
658.371	1	32
658.540	1	37
658.709	1	34
658.879	1	36
659.048	1	31
659.218	1	34
659.387	1	34
659.557	1	34
659.726	1	37
659.895	1	28
660.065	1	33
660.234	1	34
660.404	1	37
660.573	1	24
660.743	1	41
660.912	1	37
661.081	1	37
661.251	1	37
661.420	1	42
661.590	1	24
661.759	1	40
661.929	1	37
662.098	1	40
662.267	1	33
662.437	1	30
662.606	1	34
662.776	1	44
662.945	1	32
663.115	1	35
663.284	1	32
663.453	1	36
663.623	1	31
663.792	1	39
663.962	1	37
664.131	1	51
664.300	1	38
664.470	1	38
664.639	1	36
664.809	1	25
664.978	1	44
665.148	1	42
665.317	1	30
665.486	1	51
665.656	1	38
665.825	1	52
665.995	1	40
666.164	1	30
666.333	1	42
666.503	1	26
666.672	1	30
666.842	1	30
667.011	1	25
667.180	1	43
667.350	1	32
667.519	1	41
667.689	1	27
667.858	1	38
668.027	1	37
668.197	1	34
668.366	1	21
668.536	1	33
668.705	1	42
668.874	1	30
669.044	1	39
669.213	1	34
669.382	1	24
669.552	1	37
669.721	1	30
669.891	1	42
670.060	1	46
670.229	1	40
670.399	1	40
670.568	1	40
670.738	1	35
670.907	1	31
671.076	1	36
671.246	1	25
671.415	1	31
671.584	1	32
671.754	1	29
671.923	1	35
672.093	1	44
672.262	1	23
672.431	1	39
672.601	1	36
672.770	1	31
672.939	1	43
673.109	1	34
673.278	1	39
673.448	1	42
673.617	1	29
673.786	1	39
