325.333	1	17
325.504	1	11
325.675	1	14
325.846	1	14
326.017	1	9
326.188	1	13
326.359	1	13
326.531	1	-7
326.702	1	10
326.873	1	21
327.044	1	6
327.215	1	7
327.386	1	20
327.557	1	6
327.728	1	9
327.899	1	11
328.070	1	20
328.241	1	13
328.412	1	-4
328.583	1	7
328.754	1	17
328.926	1	22
329.097	1	5
329.268	1	20
329.439	1	7
329.610	1	14
329.781	1	8
329.952	1	21
330.123	1	14
330.294	1	7
330.465	1	14
330.636	1	16
330.807	1	11
330.978	1	1
331.149	1	3
331.320	1	10
331.492	1	12
331.663	1	13
331.834	1	25
332.005	1	8
332.176	1	21
332.347	1	13
332.518	1	3
332.689	1	22
332.860	1	10
333.031	1	21
333.202	1	12
333.373	1	21
333.544	1	13
333.715	1	26
333.886	1	3
334.057	1	6
334.228	1	10
334.399	1	14
334.570	1	26
334.741	1	4
334.912	1	13
335.084	1	19
335.255	1	11
335.426	1	10
335.597	1	9
335.768	1	12
335.939	1	12
336.110	1	16
336.281	1	15
336.452	1	9
336.623	1	13
336.794	1	14
336.965	1	11
337.136	1	12
337.307	1	7
337.478	1	15
337.649	1	12
337.820	1	13
337.991	1	11
338.162	1	26
338.333	1	11
338.504	1	23
338.675	1	16
338.846	1	23
339.017	1	17
339.188	1	7
339.359	1	9
339.530	1	7
339.701	1	7
339.872	1	22
340.043	1	10
340.214	1	13
340.385	1	24
340.556	1	6
340.727	1	21
340.898	1	23
341.069	1	20
341.240	1	19
341.411	1	14
341.582	1	23
341.753	1	13
341.924	1	18
342.095	1	11
342.266	1	25
342.437	1	31
342.608	1	16
342.779	1	22
342.950	1	22
343.121	1	24
343.292	1	15
343.463	1	27
343.634	1	8
343.805	1	25
343.976	1	20
344.147	1	27
344.318	1	12
344.489	1	15
344.660	1	21
344.831	1	15
345.002	1	7
345.173	1	27
345.344	1	15
345.515	1	29
345.686	1	22
345.857	1	29
346.028	1	19
346.199	1	21
346.370	1	8
346.541	1	24
346.712	1	20
346.883	1	13
347.054	1	27
347.225	1	24
347.396	1	26
347.567	1	17
347.738	1	19
347.909	1	34
348.080	1	12
348.251	1	33
348.422	1	26
348.593	1	21
348.764	1	18
348.935	1	28
349.106	1	16
349.277	1	21
349.448	1	27
349.619	1	23
349.790	1	28
349.961	1	32
350.132	1	36
350.303	1	20
350.474	1	32
350.645	1	38
350.816	1	29
350.987	1	25
351.157	1	17
351.328	1	35
351.499	1	31
351.670	1	17
351.841	1	43
352.012	1	40
352.183	1	34
352.354	1	40
352.525	1	37
352.696	1	34
352.867	1	31
353.038	1	50
353.209	1	30
353.380	1	37
353.551	1	21
353.722	1	29
353.893	1	37
354.064	1	42
354.235	1	36
354.406	1	25
354.576	1	27
354.747	1	31
354.918	1	25
355.089	1	26
355.260	1	37
355.431	1	37
355.602	1	28
355.773	1	30
355.944	1	37
356.115	1	36
356.286	1	36
356.457	1	29
356.628	1	42
356.799	1	31
356.970	1	38
357.141	1	30
357.311	1	33
357.482	1	21
357.653	1	38
357.824	1	40
357.995	1	33
358.166	1	21
358.337	1	32
358.508	1	45
358.679	1	28
358.850	1	36
359.021	1	27
359.192	1	34
359.363	1	37
359.533	1	30
359.704	1	30
359.875	1	40
360.046	1	37
360.217	1	30
360.388	1	34
360.559	1	29
360.730	1	37
360.901	1	44
361.072	1	42
361.243	1	42
361.414	1	37
361.584	1	30
361.755	1	38
361.926	1	36
362.097	1	40
362.268	1	34
362.439	1	39
362.610	1	44
362.781	1	36
362.952	1	27
363.123	1	28
363.293	1	32
363.464	1	40
363.635	1	33
363.806	1	30
363.977	1	34
364.148	1	28
364.319	1	43
364.490	1	39
364.661	1	37
364.832	1	41
365.002	1	48
365.173	1	42
365.344	1	44
365.515	1	33
365.686	1	41
365.857	1	41
366.028	1	39
366.199	1	45
366.370	1	42
366.540	1	41
366.711	1	24
366.882	1	30
367.053	1	32
367.224	1	50
367.395	1	43
367.566	1	46
367.737	1	56
367.908	1	47
368.078	1	42
368.249	1	48
368.420	1	32
368.591	1	36
368.762	1	33
368.933	1	44
369.104	1	22
369.274	1	38
369.445	1	39
369.616	1	48
369.787	1	44
369.958	1	54
370.129	1	34
370.300	1	36
370.471	1	39
370.641	1	44
370.812	1	30
370.983	1	35
371.154	1	42
371.325	1	31
371.496	1	40
371.667	1	48
371.837	1	24
372.008	1	35
372.179	1	35
372.350	1	38
372.521	1	43
372.692	1	40
372.863	1	42
373.033	1	35
373.204	1	32
373.375	1	50
373.546	1	45
373.717	1	49
373.888	1	50
374.059	1	43
374.229	1	48
374.400	1	34
374.571	1	45
374.742	1	48
374.913	1	41
375.084	1	47
375.254	1	52
375.425	1	54
375.596	1	50
375.767	1	48
375.938	1	49
376.109	1	40
376.279	1	34
376.450	1	50
376.621	1	53
376.792	1	48
376.963	1	42
377.134	1	53
377.304	1	41
377.475	1	37
377.646	1	48
377.817	1	42
377.988	1	47
378.159	1	43
378.329	1	57
378.500	1	49
378.671	1	51
378.842	1	51
379.013	1	39
379.184	1	35
379.354	1	54
379.525	1	43
379.696	1	45
379.867	1	49
380.038	1	48
380.209	1	45
380.379	1	48
380.550	1	41
380.721	1	58
380.892	1	53
381.063	1	46
381.233	1	59
381.404	1	47
381.575	1	54
381.746	1	58
381.917	1	55
382.087	1	52
382.258	1	44
382.429	1	64
382.600	1	64
382.771	1	54
382.941	1	42
383.112	1	50
383.283	1	55
383.454	1	50
383.625	1	40
383.795	1	51
383.966	1	60
384.137	1	57
384.308	1	58
384.479	1	60
384.649	1	50
384.820	1	57
384.991	1	48
385.162	1	63
385.333	1	47
385.503	1	54
385.674	1	39
385.845	1	71
386.016	1	47
386.187	1	52
386.357	1	57
386.528	1	60
386.699	1	54
386.870	1	55
387.041	1	59
387.211	1	49
387.382	1	58
387.553	1	60
387.724	1	52
387.894	1	55
388.065	1	45
388.236	1	63
388.407	1	52
388.578	1	62
388.748	1	39
388.919	1	55
389.090	1	51
389.261	1	47
389.431	1	65
389.602	1	62
389.773	1	57
389.944	1	49
390.114	1	51
390.285	1	51
390.456	1	60
390.627	1	60
390.798	1	50
390.968	1	46
391.139	1	45
391.310	1	54
391.481	1	66
391.651	1	51
391.822	1	49
391.993	1	50
392.164	1	46
392.334	1	56
392.505	1	53
392.676	1	57
392.847	1	58
393.017	1	52
393.188	1	50
393.359	1	52
393.530	1	59
393.700	1	54
393.871	1	46
394.042	1	44
394.213	1	49
394.383	1	59
394.554	1	63
394.725	1	59
394.896	1	49
395.066	1	63
395.237	1	55
395.408	1	59
395.579	1	48
395.749	1	48
395.920	1	54
396.091	1	67
396.262	1	62
396.432	1	57
396.603	1	66
396.774	1	72
396.945	1	61
397.115	1	69
397.286	1	59
397.457	1	62
397.627	1	58
397.798	1	68
397.969	1	64
398.140	1	50
398.310	1	63
398.481	1	64
398.652	1	60
398.823	1	55
398.993	1	66
399.164	1	62
399.335	1	67
399.505	1	66
399.676	1	72
399.847	1	60
400.018	1	60
400.188	1	56
400.359	1	57
400.530	1	55
400.700	1	56
400.871	1	57
401.042	1	66
401.213	1	65
401.383	1	58
401.554	1	76
401.725	1	67
401.895	1	54
402.066	1	56
402.237	1	70
402.408	1	76
402.578	1	57
402.749	1	68
402.920	1	66
403.090	1	59
403.261	1	65
403.432	1	52
403.603	1	72
403.773	1	78
403.944	1	63
404.115	1	70
404.285	1	76
404.456	1	55
404.627	1	66
404.797	1	46
404.968	1	58
405.139	1	61
405.310	1	69
405.480	1	64
405.651	1	65
405.822	1	68
405.992	1	62
406.163	1	54
406.334	1	55
406.504	1	62
406.675	1	61
406.846	1	69
407.016	1	68
407.187	1	71
407.358	1	61
407.528	1	61
407.699	1	61
407.870	1	65
408.041	1	67
408.211	1	76
408.382	1	73
408.553	1	59
408.723	1	72
408.894	1	62
409.065	1	65
409.235	1	65
409.406	1	68
409.577	1	61
409.747	1	78
409.918	1	55
410.089	1	67
410.259	1	72
410.430	1	66
410.601	1	67
410.771	1	64
410.942	1	74
411.113	1	74
411.283	1	63
411.454	1	64
411.625	1	68
411.795	1	69
411.966	1	69
412.137	1	62
412.307	1	60
412.478	1	61
412.649	1	66
412.819	1	67
412.990	1	59
413.161	1	70
413.331	1	43
413.502	1	72
413.672	1	68
413.843	1	58
414.014	1	62
414.184	1	74
414.355	1	61
414.526	1	71
414.696	1	64
414.867	1	62
415.038	1	48
415.208	1	68
415.379	1	54
415.550	1	63
415.720	1	57
415.891	1	62
416.062	1	55
416.232	1	60
416.403	1	60
416.573	1	64
416.744	1	49
416.915	1	68
417.085	1	63
417.256	1	69
417.427	1	65
417.597	1	69
417.768	1	62
417.939	1	59
418.109	1	71
418.280	1	61
418.450	1	58
418.621	1	53
418.792	1	60
418.962	1	67
419.133	1	82
419.304	1	56
419.474	1	55
419.645	1	60
419.815	1	55
419.986	1	54
420.157	1	59
420.327	1	58
420.498	1	67
420.669	1	56
420.839	1	70
421.010	1	71
421.180	1	61
421.351	1	67
421.522	1	72
421.692	1	58
421.863	1	69
422.033	1	68
422.204	1	58
422.375	1	55
422.545	1	63
422.716	1	55
422.886	1	60
423.057	1	69
423.228	1	62
423.398	1	57
423.569	1	70
423.740	1	62
423.910	1	50
424.081	1	58
424.251	1	61
424.422	1	61
424.593	1	58
424.763	1	60
424.934	1	57
425.104	1	58
425.275	1	62
425.445	1	60
425.616	1	50
425.787	1	57
425.957	1	71
426.128	1	66
426.298	1	68
426.469	1	49
426.640	1	63
426.810	1	61
426.981	1	50
427.151	1	54
427.322	1	61
427.493	1	65
427.663	1	55
427.834	1	58
428.004	1	67
428.175	1	62
428.345	1	54
428.516	1	52
428.687	1	54
428.857	1	63
429.028	1	50
429.198	1	53
429.369	1	61
429.540	1	54
429.710	1	50
429.881	1	60
430.051	1	54
430.222	1	63
430.392	1	58
430.563	1	54
430.734	1	75
430.904	1	71
431.075	1	62
431.245	1	57
431.416	1	57
431.586	1	53
431.757	1	59
431.927	1	55
432.098	1	66
432.269	1	53
432.439	1	63
432.610	1	55
432.780	1	65
432.951	1	66
433.121	1	65
433.292	1	66
433.462	1	61
433.633	1	72
433.804	1	52
433.974	1	56
434.145	1	74
434.315	1	56
434.486	1	55
434.656	1	58
434.827	1	53
434.997	1	47
435.168	1	61
435.339	1	59
435.509	1	61
435.680	1	63
435.850	1	39
436.021	1	56
436.191	1	51
436.362	1	65
436.532	1	56
436.703	1	50
436.873	1	57
437.044	1	44
437.214	1	57
437.385	1	52
437.556	1	54
437.726	1	70
437.897	1	66
438.067	1	51
438.238	1	53
438.408	1	62
438.579	1	52
438.749	1	43
438.920	1	37
439.090	1	58
439.261	1	49
439.431	1	53
439.602	1	46
439.772	1	57
439.943	1	50
440.113	1	57
440.284	1	45
440.455	1	56
440.625	1	58
440.796	1	58
440.966	1	49
441.137	1	48
441.307	1	47
441.478	1	62
441.648	1	58
441.819	1	49
441.989	1	54
442.160	1	66
442.330	1	50
442.501	1	53
442.671	1	44
442.842	1	37
443.012	1	41
443.183	1	63
443.353	1	48
443.524	1	53
443.694	1	60
443.865	1	44
444.035	1	56
444.206	1	38
444.376	1	45
444.547	1	58
444.717	1	49
444.888	1	42
445.058	1	63
445.229	1	50
445.399	1	45
445.570	1	49
445.740	1	48
445.911	1	46
446.081	1	44
446.252	1	52
446.422	1	47
446.593	1	47
446.763	1	46
446.934	1	37
447.104	1	56
447.275	1	57
447.445	1	51
447.616	1	49
447.786	1	40
447.957	1	51
448.127	1	49
448.298	1	47
448.468	1	49
448.639	1	43
448.809	1	53
448.979	1	41
449.150	1	52
449.320	1	53
449.491	1	53
449.661	1	42
449.832	1	41
450.002	1	50
450.173	1	51
450.343	1	42
450.514	1	47
450.684	1	51
450.855	1	38
451.025	1	52
451.196	1	50
451.366	1	50
451.537	1	33
451.707	1	40
451.878	1	46
452.048	1	57
452.218	1	50
452.389	1	47
452.559	1	40
452.730	1	47
452.900	1	39
453.071	1	38
453.241	1	44
453.412	1	38
453.582	1	45
453.753	1	49
453.923	1	38
454.093	1	48
454.264	1	61
454.434	1	30
454.605	1	37
454.775	1	37
454.946	1	51
455.116	1	35
455.287	1	35
455.457	1	46
455.628	1	41
455.798	1	51
455.968	1	40
456.139	1	45
456.309	1	33
456.480	1	27
456.650	1	37
456.821	1	38
456.991	1	53
457.161	1	29
457.332	1	39
457.502	1	37
457.673	1	51
457.843	1	41
458.014	1	41
458.184	1	36
458.355	1	34
458.525	1	36
458.695	1	40
458.866	1	42
459.036	1	51
459.207	1	36
459.377	1	41
459.548	1	51
459.718	1	34
459.888	1	46
460.059	1	39
460.229	1	36
460.400	1	47
460.570	1	39
460.740	1	40
460.911	1	35
461.081	1	49
461.252	1	34
461.422	1	35
461.593	1	36
461.763	1	53
461.933	1	58
462.104	1	41
462.274	1	42
462.445	1	33
462.615	1	38
462.785	1	51
462.956	1	42
463.126	1	42
463.297	1	38
463.467	1	44
463.638	1	33
463.808	1	27
463.978	1	42
464.149	1	35
464.319	1	29
464.490	1	58
464.660	1	38
464.830	1	28
465.001	1	35
465.171	1	37
465.342	1	49
465.512	1	37
465.682	1	38
465.853	1	41
466.023	1	29
466.194	1	37
466.364	1	42
466.534	1	30
466.705	1	43
466.875	1	30
467.045	1	26
467.216	1	46
467.386	1	35
467.557	1	19
467.727	1	24
467.897	1	41
468.068	1	23
468.238	1	37
468.409	1	36
468.579	1	37
468.749	1	35
468.920	1	27
469.090	1	36
469.260	1	24
469.431	1	34
469.601	1	48
469.772	1	29
469.942	1	25
470.112	1	27
470.283	1	27
470.453	1	39
470.623	1	26
470.794	1	30
470.964	1	33
471.135	1	25
471.305	1	23
471.475	1	42
471.646	1	19
471.816	1	27
471.986	1	31
472.157	1	34
472.327	1	3
472.497	1	39
472.668	1	25
472.838	1	25
473.009	1	39
473.179	1	28
473.349	1	27
473.520	1	33
473.690	1	38
473.860	1	32
474.031	1	23
474.201	1	36
474.371	1	45
474.542	1	33
474.712	1	26
474.882	1	31
475.053	1	39
475.223	1	23
475.394	1	21
475.564	1	35
475.734	1	35
475.905	1	44
476.075	1	26
476.245	1	38
476.416	1	42
476.586	1	21
476.756	1	34
476.927	1	33
477.097	1	32
477.267	1	22
477.438	1	26
477.608	1	34
477.778	1	31
477.949	1	31
478.119	1	37
478.289	1	47
478.460	1	32
478.630	1	43
478.800	1	25
478.971	1	28
479.141	1	24
479.311	1	14
479.482	1	14
479.652	1	27
479.822	1	23
479.993	1	29
480.163	1	33
480.333	1	20
480.504	1	33
480.674	1	19
480.844	1	20
481.015	1	25
481.185	1	29
481.355	1	21
481.525	1	24
481.696	1	30
481.866	1	24
482.036	1	33
482.207	1	17
482.377	1	21
482.547	1	36
482.718	1	17
482.888	1	32
483.058	1	26
483.229	1	19
483.399	1	27
483.569	1	18
483.740	1	22
483.910	1	39
484.080	1	16
484.250	1	36
484.421	1	31
484.591	1	19
484.761	1	36
484.932	1	35
485.102	1	38
485.272	1	26
485.443	1	40
485.613	1	31
485.783	1	28
485.953	1	17
486.124	1	21
486.294	1	15
486.464	1	17
486.635	1	30
486.805	1	23
486.975	1	20
487.146	1	20
487.316	1	33
487.486	1	18
487.656	1	20
487.827	1	25
487.997	1	14
488.167	1	18
488.338	1	30
488.508	1	26
488.678	1	16
488.848	1	32
489.019	1	24
489.189	1	21
489.359	1	18
489.529	1	22
489.700	1	25
489.870	1	33
490.040	1	10
490.211	1	18
490.381	1	25
490.551	1	24
490.721	1	26
490.892	1	23
491.062	1	18
491.232	1	22
491.402	1	17
491.573	1	5
491.743	1	19
491.913	1	14
492.084	1	36
492.254	1	19
492.424	1	24
492.594	1	26
492.765	1	20
492.935	1	12
493.105	1	15
493.275	1	15
493.446	1	26
493.616	1	24
493.786	1	18
493.956	1	17
494.127	1	23
494.297	1	23
494.467	1	18
494.637	1	19
494.808	1	21
494.978	1	16
495.148	1	21
495.318	1	16
495.489	1	21
495.659	1	17
495.829	1	15
495.999	1	13
496.170	1	23
496.340	1	23
496.510	1	22
496.680	1	9
496.851	1	18
497.021	1	18
497.191	1	15
497.361	1	18
497.532	1	11
497.702	1	11
497.872	1	27
498.042	1	34
498.213	1	16
498.383	1	17
498.553	1	19
498.723	1	12
498.894	1	21
499.064	1	20
499.234	1	15
499.404	1	23
499.574	1	27
499.745	1	24
499.915	1	19
500.085	1	14
500.255	1	28
500.426	1	19
500.596	1	15
500.766	1	19
500.936	1	21
501.106	1	4
501.277	1	20
501.447	1	21
501.617	1	15
501.787	1	11
501.958	1	7
502.128	1	17
502.298	1	23
502.468	1	8
502.638	1	13
502.809	1	24
502.979	1	5
503.149	1	9
503.319	1	1
503.489	1	10
503.660	1	21
503.830	1	12
504.000	1	26
504.170	1	4
504.340	1	13
504.511	1	19
504.681	1	15
504.851	1	24
505.021	1	13
505.192	1	3
505.362	1	21
505.532	1	9
505.702	1	22
505.872	1	19
506.043	1	21
506.213	1	12
506.383	1	14
506.553	1	11
506.723	1	14
506.893	1	8
507.064	1	27
507.234	1	5
507.404	1	10
507.574	1	13
507.744	1	11
507.915	1	9
508.085	1	15
508.255	1	17
508.425	1	8
508.595	1	16
508.766	1	25
508.936	1	4
509.106	1	15
509.276	1	29
509.446	1	11
509.616	1	9
509.787	1	15
509.957	1	10
510.127	1	9
510.297	1	14
510.467	1	5
510.638	1	16
510.808	1	12
510.978	1	6
511.148	1	17
511.318	1	18
511.488	1	5
511.659	1	22
511.829	1	4
511.999	1	12
512.169	1	17
512.339	1	3
512.509	1	8
512.680	1	11
512.850	1	10
513.020	1	22
513.190	1	23
513.360	1	12
513.530	1	11
513.700	1	23
513.871	1	9
514.041	1	5
514.211	1	22
514.381	1	13
514.551	1	9
514.721	1	8
514.892	1	17
515.062	1	12
515.232	1	14
515.402	1	12
515.572	1	7
515.742	1	7
515.912	1	18
516.083	1	15
516.253	1	21
516.423	1	10
516.593	1	14
516.763	1	20
516.933	1	3
517.104	1	12
517.274	1	8
517.444	1	8
517.614	1	4
517.784	1	10
517.954	1	15
518.124	1	17
518.294	1	12
518.465	1	13
518.635	1	12
518.805	1	5
518.975	1	15
519.145	1	11
519.315	1	5
519.485	1	5
519.656	1	14
519.826	1	17
519.996	1	7
520.166	1	13
520.336	1	19
520.506	1	7
520.676	1	4
520.846	1	14
521.017	1	8
521.187	1	8
521.357	1	19
521.527	1	13
521.697	1	4
521.867	1	11
522.037	1	14
522.207	1	14
522.377	1	19
522.548	1	6
522.718	1	15
522.888	1	24
523.058	1	10
523.228	1	18
523.398	1	12
523.568	1	11
523.738	1	12
523.909	1	18
524.079	1	8
524.249	1	11
524.419	1	5
524.589	1	5
524.759	1	11
524.929	1	12
525.099	1	22
525.269	1	9
525.439	1	5
525.610	1	18
525.780	1	13
525.950	1	16
526.120	1	10
526.290	1	10
526.460	1	8
526.630	1	13
526.800	1	2
526.970	1	8
527.140	1	19
527.311	1	-1
527.481	1	-5
527.651	1	12
527.821	1	-3
527.991	1	9
528.161	1	13
528.331	1	9
528.501	1	12
528.671	1	0
528.841	1	11
529.011	1	2
529.181	1	13
529.352	1	8
529.522	1	-2
529.692	1	9
529.862	1	-1
530.032	1	12
530.202	1	16
530.372	1	15
530.542	1	8
530.712	1	20
530.882	1	12
531.052	1	15
531.222	1	4
531.392	1	9
531.563	1	4
531.733	1	4
531.903	1	2
532.073	1	10
532.243	1	9
532.413	1	13
532.583	1	12
532.753	1	13
532.923	1	-3
533.093	1	13
533.263	1	4
533.433	1	12
533.603	1	12
533.773	1	2
533.943	1	-4
534.113	1	17
534.284	1	14
534.454	1	20
534.624	1	13
534.794	1	7
534.964	1	18
535.134	1	3
535.304	1	11
535.474	1	16
535.644	1	2
535.814	1	-3
535.984	1	-2
536.154	1	2
536.324	1	13
536.494	1	18
536.664	1	8
536.834	1	3
537.004	1	2
537.174	1	11
537.344	1	2
537.514	1	-2
537.685	1	-5
537.855	1	13
538.025	1	12
538.195	1	6
538.365	1	13
538.535	1	1
538.705	1	14
538.875	1	1
539.045	1	11
539.215	1	6
539.385	1	0
539.555	1	13
539.725	1	1
539.895	1	10
540.065	1	12
540.235	1	19
540.405	1	9
540.575	1	15
540.745	1	1
540.915	1	17
541.085	1	12
541.255	1	-1
541.425	1	22
541.595	1	5
541.765	1	13
541.935	1	-2
542.105	1	-3
542.275	1	3
542.445	1	-8
542.615	1	3
542.785	1	11
542.955	1	4
543.125	1	-4
543.295	1	13
543.465	1	8
543.635	1	11
543.805	1	23
543.975	1	7
544.145	1	12
544.315	1	9
544.485	1	11
544.655	1	8
544.825	1	-4
544.995	1	14
545.165	1	2
545.335	1	9
545.505	1	-2
545.675	1	17
545.845	1	11
546.015	1	2
546.185	1	20
546.355	1	17
546.525	1	14
546.695	1	10
546.865	1	7
547.035	1	3
547.205	1	-8
547.375	1	9
547.545	1	13
547.715	1	12
547.885	1	3
548.055	1	2
548.225	1	11
548.395	1	9
548.565	1	6
548.735	1	4
548.905	1	9
549.075	1	9
549.245	1	0
549.415	1	0
549.585	1	11
549.755	1	10
549.925	1	2
550.095	1	16
550.265	1	12
550.435	1	-4
550.605	1	2
550.775	1	6
550.945	1	9
551.115	1	1
551.285	1	5
551.455	1	0
551.625	1	9
551.795	1	10
551.965	1	3
552.135	1	0
552.305	1	3
552.475	1	-2
552.645	1	4
552.815	1	8
552.985	1	13
553.155	1	8
553.325	1	16
553.495	1	-2
553.665	1	13
553.835	1	4
554.004	1	8
554.174	1	4
554.344	1	10
554.514	1	1
554.684	1	14
554.854	1	11
555.024	1	4
555.194	1	-9
555.364	1	12
555.534	1	18
555.704	1	8
555.874	1	7
556.044	1	12
556.214	1	3
556.384	1	-5
556.554	1	18
556.724	1	8
556.894	1	4
557.064	1	17
557.234	1	8
557.404	1	21
557.573	1	8
557.743	1	5
557.913	1	2
558.083	1	4
558.253	1	11
558.423	1	11
558.593	1	9
558.763	1	4
558.933	1	5
559.103	1	13
559.273	1	4
559.443	1	3
559.613	1	7
559.783	1	7
559.953	1	0
560.122	1	15
560.292	1	5
560.462	1	7
560.632	1	8
560.802	1	0
560.972	1	6
561.142	1	5
561.312	1	1
561.482	1	10
561.652	1	5
561.822	1	-4
561.992	1	12
562.162	1	11
562.331	1	12
562.501	1	-2
562.671	1	2
562.841	1	-4
563.011	1	-3
563.181	1	7
563.351	1	1
563.521	1	0
563.691	1	8
563.861	1	20
564.031	1	6
564.201	1	14
564.370	1	-1
564.540	1	6
564.710	1	0
564.880	1	10
565.050	1	18
565.220	1	-5
565.390	1	7
565.560	1	12
565.730	1	6
565.900	1	5
566.069	1	12
566.239	1	8
566.409	1	7
566.579	1	7
566.749	1	8
566.919	1	12
567.089	1	18
567.259	1	14
567.429	1	12
567.599	1	1
567.768	1	5
567.938	1	0
568.108	1	8
568.278	1	12
568.448	1	-3
568.618	1	2
568.788	1	-2
568.958	1	13
569.128	1	7
569.297	1	0
569.467	1	14
569.637	1	13
569.807	1	6
569.977	1	18
570.147	1	15
570.317	1	1
570.487	1	5
570.656	1	9
570.826	1	8
570.996	1	-2
571.166	1	14
571.336	1	-1
571.506	1	9
571.676	1	5
571.846	1	13
572.015	1	2
572.185	1	-6
572.355	1	4
572.525	1	11
572.695	1	2
572.865	1	5
573.035	1	5
573.205	1	4
573.374	1	-6
573.544	1	5
573.714	1	12
573.884	1	5
574.054	1	5
574.224	1	8
574.394	1	3
574.563	1	-2
574.733	1	0
574.903	1	3
575.073	1	7
575.243	1	4
575.413	1	7
575.583	1	-1
575.752	1	10
575.922	1	5
576.092	1	10
576.262	1	11
576.432	1	15
576.602	1	-11
576.772	1	13
576.941	1	3
577.111	1	-5
577.281	1	4
577.451	1	-7
577.621	1	5
577.791	1	0
577.960	1	0
578.130	1	9
578.300	1	9
578.470	1	9
578.640	1	-3
578.810	1	3
578.979	1	7
579.149	1	-9
579.319	1	-2
579.489	1	-2
579.659	1	7
579.829	1	2
579.998	1	15
580.168	1	9
580.338	1	12
580.508	1	5
580.678	1	20
580.848	1	-1
581.017	1	-4
581.187	1	9
581.357	1	-9
581.527	1	15
581.697	1	0
581.867	1	10
582.036	1	0
582.206	1	6
582.376	1	11
582.546	1	-9
582.716	1	1
582.885	1	0
583.055	1	-2
583.225	1	-6
583.395	1	9
583.565	1	5
583.735	1	-1
583.904	1	3
584.074	1	11
584.244	1	7
584.414	1	1
584.584	1	5
584.753	1	-6
584.923	1	14
585.093	1	8
585.263	1	3
585.433	1	-1
585.602	1	1
585.772	1	2
585.942	1	5
586.112	1	-8
586.282	1	4
586.451	1	4
586.621	1	-8
586.791	1	10
586.961	1	8
587.131	1	3
587.300	1	0
587.470	1	17
587.640	1	13
587.810	1	-1
587.980	1	0
588.149	1	11
588.319	1	10
588.489	1	-1
588.659	1	5
588.829	1	6
588.998	1	13
589.168	1	1
589.338	1	9
589.508	1	5
589.677	1	-8
589.847	1	3
590.017	1	19
590.187	1	8
590.357	1	8
590.526	1	13
590.696	1	7
590.866	1	7
591.036	1	7
591.205	1	16
591.375	1	-7
591.545	1	-2
591.715	1	5
591.885	1	9
592.054	1	8
592.224	1	10
592.394	1	0
592.564	1	8
592.733	1	6
592.903	1	1
593.073	1	1
593.243	1	13
593.412	1	12
593.582	1	-4
593.752	1	9
593.922	1	4
594.091	1	-1
594.261	1	2
594.431	1	3
594.601	1	13
594.771	1	14
594.940	1	0
595.110	1	3
595.280	1	12
595.450	1	3
595.619	1	3
595.789	1	2
595.959	1	16
596.129	1	4
596.298	1	-3
596.468	1	4
596.638	1	8
596.808	1	8
596.977	1	1
597.147	1	9
597.317	1	3
597.487	1	4
597.656	1	8
597.826	1	12
597.996	1	-1
598.166	1	2
598.335	1	-8
598.505	1	13
598.675	1	1
598.844	1	10
599.014	1	-8
599.184	1	4
599.354	1	-6
599.523	1	3
599.693	1	3
599.863	1	9
600.033	1	3
600.202	1	2
600.372	1	3
600.542	1	15
600.712	1	-5
600.881	1	1
601.051	1	14
601.221	1	17
601.390	1	8
601.560	1	8
601.730	1	10
601.900	1	3
602.069	1	17
602.239	1	-9
602.409	1	-3
602.578	1	3
602.748	1	1
602.918	1	11
603.088	1	8
603.257	1	13
603.427	1	-4
603.597	1	4
603.767	1	5
603.936	1	7
604.106	1	8
604.276	1	-1
604.445	1	5
604.615	1	-1
604.785	1	-2
604.954	1	10
605.124	1	10
605.294	1	2
605.464	1	-2
605.633	1	7
605.803	1	7
605.973	1	7
606.142	1	-1
606.312	1	5
606.482	1	1
606.652	1	18
606.821	1	3
606.991	1	6
607.161	1	1
607.330	1	6
607.500	1	8
607.670	1	-2
607.839	1	8
608.009	1	11
608.179	1	9
608.348	1	5
608.518	1	-5
608.688	1	17
608.858	1	-1
609.027	1	-5
609.197	1	6
609.367	1	8
609.536	1	3
609.706	1	0
609.876	1	-1
610.045	1	15
610.215	1	13
610.385	1	-1
610.554	1	15
610.724	1	12
610.894	1	7
611.063	1	6
611.233	1	6
611.403	1	6
611.572	1	0
611.742	1	5
611.912	1	10
612.081	1	-5
612.251	1	8
612.421	1	5
612.590	1	6
612.760	1	6
612.930	1	16
613.099	1	9
613.269	1	13
613.439	1	5
613.608	1	-4
613.778	1	5
613.948	1	8
614.117	1	17
614.287	1	11
614.457	1	10
614.626	1	8
614.796	1	9
614.966	1	-1
615.135	1	10
615.305	1	5
615.475	1	6
615.644	1	0
615.814	1	15
615.984	1	8
616.153	1	12
616.323	1	13
616.493	1	0
616.662	1	22
616.832	1	2
617.002	1	7
617.171	1	13
617.341	1	4
617.511	1	2
617.680	1	2
617.850	1	3
618.019	1	16
618.189	1	22
618.359	1	4
618.528	1	8
618.698	1	6
618.868	1	2
619.037	1	8
619.207	1	3
619.377	1	1
619.546	1	13
619.716	1	5
619.885	1	11
620.055	1	-5
620.225	1	5
620.394	1	-2
620.564	1	13
620.734	1	13
620.903	1	-4
621.073	1	12
621.242	1	4
621.412	1	6
621.582	1	-1
621.751	1	7
621.921	1	10
622.091	1	1
622.260	1	3
622.430	1	10
622.599	1	1
622.769	1	14
622.939	1	14
623.108	1	11
623.278	1	6
623.448	1	5
623.617	1	4
623.787	1	10
623.956	1	14
624.126	1	6
624.296	1	1
624.465	1	11
624.635	1	21
624.804	1	3
624.974	1	8
625.144	1	9
625.313	1	2
625.483	1	5
625.652	1	5
625.822	1	0
625.992	1	2
626.161	1	11
626.331	1	4
626.501	1	8
626.670	1	2
626.840	1	8
627.009	1	6
627.179	1	9
627.348	1	17
627.518	1	2
627.688	1	11
627.857	1	17
628.027	1	9
628.196	1	10
628.366	1	8
628.536	1	11
628.705	1	7
628.875	1	9
629.044	1	-1
629.214	1	21
629.384	1	2
629.553	1	20
629.723	1	4
629.892	1	8
630.062	1	14
630.232	1	5
630.401	1	7
630.571	1	5
630.740	1	11
630.910	1	10
631.079	1	11
631.249	1	6
631.419	1	10
631.588	1	2
631.758	1	10
631.927	1	2
632.097	1	11
632.266	1	5
632.436	1	15
632.606	1	1
632.775	1	9
632.945	1	13
633.114	1	17
633.284	1	7
633.453	1	7
633.623	1	-2
633.793	1	7
633.962	1	5
634.132	1	14
634.301	1	4
634.471	1	14
634.640	1	15
634.810	1	3
634.979	1	20
635.149	1	15
635.319	1	0
635.488	1	9
635.658	1	-4
635.827	1	-5
635.997	1	9
636.166	1	11
636.336	1	2
636.505	1	11
636.675	1	0
636.845	1	17
637.014	1	11
637.184	1	13
637.353	1	10
637.523	1	11
637.692	1	3
637.862	1	21
638.031	1	9
638.201	1	12
638.370	1	7
638.540	1	14
638.710	1	2
638.879	1	2
639.049	1	9
639.218	1	10
639.388	1	0
639.557	1	1
639.727	1	9
639.896	1	10
640.066	1	8
640.235	1	11
640.405	1	11
640.574	1	12
640.744	1	-7
640.914	1	14
641.083	1	-1
641.253	1	5
641.422	1	12
641.592	1	22
641.761	1	11
641.931	1	2
642.100	1	21
642.270	1	1
642.439	1	10
642.609	1	16
642.778	1	10
642.948	1	5
643.117	1	9
643.287	1	12
643.456	1	-1
643.626	1	19
643.795	1	7
643.965	1	9
644.134	1	1
644.304	1	11
644.473	1	3
644.643	1	14
644.812	1	1
644.982	1	9
645.151	1	5
645.321	1	7
645.490	1	12
645.660	1	5
645.829	1	1
645.999	1	7
646.168	1	6
646.338	1	17
646.507	1	8
646.677	1	12
646.846	1	7
647.016	1	-3
647.185	1	12
647.355	1	-10
647.524	1	18
647.694	1	15
647.863	1	15
648.033	1	8
648.202	1	15
648.372	1	4
648.541	1	5
648.711	1	7
648.880	1	-4
649.050	1	3
649.219	1	7
649.389	1	15
649.558	1	12
649.728	1	18
649.897	1	2
650.067	1	0
650.236	1	13
650.406	1	13
650.575	1	11
650.745	1	8
650.914	1	8
651.084	1	0
651.253	1	10
651.423	1	5
651.592	1	5
651.762	1	7
651.931	1	13
652.101	1	5
652.270	1	14
652.440	1	17
652.609	1	0
652.778	1	7
652.948	1	8
653.117	1	16
653.287	1	12
653.456	1	10
653.626	1	18
653.795	1	4
653.965	1	18
654.134	1	11
654.304	1	4
654.473	1	14
654.643	1	13
654.812	1	9
654.982	1	2
655.151	1	7
655.320	1	10
655.490	1	0
655.659	1	8
655.829	1	4
655.998	1	5
656.168	1	11
656.337	1	14
656.507	1	19
656.676	1	19
656.846	1	18
657.015	1	14
657.184	1	22
657.354	1	10
657.523	1	2
657.693	1	22
657.862	1	12
658.032	1	9
658.201	1	11
658.371	1	12
658.540	1	12
658.709	1	2
658.879	1	8
659.048	1	6
659.218	1	8
659.387	1	10
659.557	1	14
659.726	1	13
659.895	1	3
660.065	1	0
660.234	1	16
660.404	1	21
660.573	1	6
660.743	1	1
660.912	1	7
661.081	1	21
661.251	1	2
661.420	1	17
661.590	1	10
661.759	1	16
661.929	1	13
662.098	1	19
662.267	1	11
662.437	1	15
662.606	1	8
662.776	1	11
662.945	1	16
663.115	1	10
663.284	1	2
663.453	1	15
663.623	1	14
663.792	1	11
663.962	1	15
664.131	1	20
664.300	1	19
664.470	1	7
664.639	1	5
664.809	1	3
664.978	1	17
665.148	1	16
665.317	1	12
665.486	1	19
665.656	1	13
665.825	1	12
665.995	1	3
666.164	1	8
666.333	1	20
666.503	1	10
666.672	1	12
666.842	1	7
667.011	1	5
667.180	1	14
667.350	1	10
667.519	1	8
667.689	1	14
667.858	1	22
668.027	1	24
668.197	1	4
668.366	1	3
668.536	1	13
668.705	1	13
668.874	1	20
669.044	1	11
669.213	1	23
669.382	1	0
669.552	1	14
669.721	1	12
669.891	1	19
670.060	1	12
670.229	1	25
670.399	1	12
670.568	1	24
670.738	1	22
670.907	1	4
671.076	1	8
671.246	1	16
671.415	1	10
671.584	1	-3
671.754	1	9
671.923	1	10
672.093	1	18
672.262	1	4
672.431	1	15
672.601	1	6
672.770	1	1
672.939	1	11
673.109	1	10
673.278	1	18
673.448	1	21
673.617	1	8
673.786	1	14
