325.333	1	11
325.504	1	3
325.675	1	5
325.846	1	8
326.017	1	8
326.188	1	4
326.359	1	0
326.531	1	-10
326.702	1	9
326.873	1	6
327.044	1	-5
327.215	1	6
327.386	1	10
327.557	1	6
327.728	1	-2
327.899	1	6
328.070	1	15
328.241	1	2
328.412	1	-9
328.583	1	4
328.754	1	3
328.926	1	12
329.097	1	-4
329.268	1	9
329.439	1	-4
329.610	1	2
329.781	1	-7
329.952	1	7
330.123	1	16
330.294	1	-1
330.465	1	5
330.636	1	11
330.807	1	1
330.978	1	1
331.149	1	-3
331.320	1	-4
331.492	1	-1
331.663	1	0
331.834	1	13
332.005	1	6
332.176	1	11
332.347	1	0
332.518	1	1
332.689	1	9
332.860	1	8
333.031	1	9
333.202	1	0
333.373	1	-3
333.544	1	6
333.715	1	13
333.886	1	-5
334.057	1	3
334.228	1	-3
334.399	1	4
334.570	1	4
334.741	1	-4
334.912	1	6
335.084	1	16
335.255	1	14
335.426	1	1
335.597	1	-7
335.768	1	-1
335.939	1	11
336.110	1	8
336.281	1	-9
336.452	1	-3
336.623	1	9
336.794	1	6
336.965	1	-2
337.136	1	6
337.307	1	2
337.478	1	1
337.649	1	7
337.820	1	2
337.991	1	7
338.162	1	7
338.333	1	-2
338.504	1	8
338.675	1	-1
338.846	1	-1
339.017	1	9
339.188	1	4
339.359	1	0
339.530	1	3
339.701	1	8
339.872	1	14
340.043	1	-2
340.214	1	5
340.385	1	3
340.556	1	4
340.727	1	4
340.898	1	16
341.069	1	4
341.240	1	1
341.411	1	4
341.582	1	4
341.753	1	-3
341.924	1	4
342.095	1	9
342.266	1	6
342.437	1	8
342.608	1	-2
342.779	1	15
342.950	1	13
343.121	1	8
343.292	1	0
343.463	1	7
343.634	1	5
343.805	1	13
343.976	1	17
344.147	1	11
344.318	1	0
344.489	1	11
344.660	1	6
344.831	1	8
345.002	1	-4
345.173	1	16
345.344	1	7
345.515	1	11
345.686	1	2
345.857	1	9
346.028	1	8
346.199	1	-6
346.370	1	0
346.541	1	8
346.712	1	3
346.883	1	1
347.054	1	10
347.225	1	12
347.396	1	11
347.567	1	7
347.738	1	1
347.909	1	17
348.080	1	-5
348.251	1	5
348.422	1	13
348.593	1	7
348.764	1	4
348.935	1	9
349.106	1	-4
349.277	1	-8
349.448	1	16
349.619	1	9
349.790	1	14
349.961	1	10
350.132	1	14
350.303	1	9
350.474	1	23
350.645	1	5
350.816	1	0
350.987	1	18
351.157	1	-1
351.328	1	17
351.499	1	13
351.670	1	12
351.841	1	12
352.012	1	15
352.183	1	13
352.354	1	14
352.525	1	12
352.696	1	16
352.867	1	7
353.038	1	2
353.209	1	25
353.380	1	6
353.551	1	-4
353.722	1	5
353.893	1	0
354.064	1	20
354.235	1	2
354.406	1	5
354.576	1	1
354.747	1	14
354.918	1	6
355.089	1	21
355.260	1	10
355.431	1	12
355.602	1	8
355.773	1	14
355.944	1	7
356.115	1	7
356.286	1	6
356.457	1	14
356.628	1	15
356.799	1	6
356.970	1	20
357.141	1	1
357.311	1	2
357.482	1	10
357.653	1	18
357.824	1	10
357.995	1	15
358.166	1	15
358.337	1	9
358.508	1	14
358.679	1	-1
358.850	1	19
359.021	1	2
359.192	1	9
359.363	1	5
359.533	1	8
359.704	1	8
359.875	1	5
360.046	1	15
360.217	1	8
360.388	1	8
360.559	1	7
360.730	1	16
360.901	1	11
361.072	1	23
361.243	1	10
361.414	1	7
361.584	1	7
361.755	1	10
361.926	1	7
362.097	1	7
362.268	1	8
362.439	1	2
362.610	1	22
362.781	1	6
362.952	1	9
363.123	1	6
363.293	1	-3
363.464	1	11
363.635	1	10
363.806	1	9
363.977	1	2
364.148	1	15
364.319	1	12
364.490	1	15
364.661	1	9
364.832	1	14
365.002	1	2
365.173	1	18
365.344	1	18
365.515	1	9
365.686	1	4
365.857	1	16
366.028	1	14
366.199	1	10
366.370	1	16
366.540	1	12
366.711	1	-4
366.882	1	6
367.053	1	1
367.224	1	25
367.395	1	7
367.566	1	19
367.737	1	11
367.908	1	18
368.078	1	6
368.249	1	11
368.420	1	2
368.591	1	9
368.762	1	13
368.933	1	12
369.104	1	7
369.274	1	6
369.445	1	12
369.616	1	14
369.787	1	13
369.958	1	15
370.129	1	2
370.300	1	19
370.471	1	9
370.641	1	15
370.812	1	9
370.983	1	7
371.154	1	0
371.325	1	14
371.496	1	5
371.667	1	17
371.837	1	4
372.008	1	4
372.179	1	11
372.350	1	19
372.521	1	8
372.692	1	8
372.863	1	20
373.033	1	1
373.204	1	5
373.375	1	3
373.546	1	14
373.717	1	16
373.888	1	21
374.059	1	14
374.229	1	15
374.400	1	13
374.571	1	12
374.742	1	19
374.913	1	14
375.084	1	3
375.254	1	11
375.425	1	18
375.596	1	17
375.767	1	18
375.938	1	17
376.109	1	16
376.279	1	2
376.450	1	18
376.621	1	18
376.792	1	18
376.963	1	5
377.134	1	24
377.304	1	19
377.475	1	11
377.646	1	11
377.817	1	14
377.988	1	7
378.159	1	20
378.329	1	22
378.500	1	14
378.671	1	4
378.842	1	15
379.013	1	8
379.184	1	13
379.354	1	24
379.525	1	10
379.696	1	17
379.867	1	21
380.038	1	6
380.209	1	10
380.379	1	9
380.550	1	0
380.721	1	10
380.892	1	9
381.063	1	12
381.233	1	17
381.404	1	12
381.575	1	25
381.746	1	14
381.917	1	19
382.087	1	22
382.258	1	10
382.429	1	14
382.600	1	24
382.771	1	9
382.941	1	14
383.112	1	20
383.283	1	21
383.454	1	6
383.625	1	3
383.795	1	14
383.966	1	25
384.137	1	19
384.308	1	16
384.479	1	11
384.649	1	12
384.820	1	8
384.991	1	23
385.162	1	15
385.333	1	8
385.503	1	8
385.674	1	6
385.845	1	27
386.016	1	19
386.187	1	9
386.357	1	14
386.528	1	20
386.699	1	17
386.870	1	18
387.041	1	20
387.211	1	13
387.382	1	30
387.553	1	21
387.724	1	11
387.894	1	19
388.065	1	19
388.236	1	15
388.407	1	21
388.578	1	4
388.748	1	10
388.919	1	19
389.090	1	12
389.261	1	12
389.431	1	17
389.602	1	14
389.773	1	18
389.944	1	12
390.114	1	13
390.285	1	16
390.456	1	11
390.627	1	18
390.798	1	20
390.968	1	19
391.139	1	18
391.310	1	10
391.481	1	19
391.651	1	11
391.822	1	18
391.993	1	14
392.164	1	14
392.334	1	15
392.505	1	10
392.676	1	18
392.847	1	24
393.017	1	24
393.188	1	11
393.359	1	11
393.530	1	10
393.700	1	17
393.871	1	12
394.042	1	15
394.213	1	12
394.383	1	18
394.554	1	19
394.725	1	17
394.896	1	-5
395.066	1	29
395.237	1	7
395.408	1	22
395.579	1	13
395.749	1	16
395.920	1	12
396.091	1	19
396.262	1	15
396.432	1	13
396.603	1	29
396.774	1	26
396.945	1	11
397.115	1	14
397.286	1	20
397.457	1	18
397.627	1	20
397.798	1	16
397.969	1	11
398.140	1	6
398.310	1	20
398.481	1	17
398.652	1	10
398.823	1	15
398.993	1	18
399.164	1	7
399.335	1	27
399.505	1	20
399.676	1	19
399.847	1	10
400.018	1	12
400.188	1	5
400.359	1	20
400.530	1	6
400.700	1	15
400.871	1	10
401.042	1	11
401.213	1	19
401.383	1	18
401.554	1	18
401.725	1	22
401.895	1	11
402.066	1	20
402.237	1	30
402.408	1	16
402.578	1	11
402.749	1	16
402.920	1	28
403.090	1	9
403.261	1	13
403.432	1	12
403.603	1	20
403.773	1	22
403.944	1	21
404.115	1	21
404.285	1	23
404.456	1	19
404.627	1	18
404.797	1	4
404.968	1	12
405.139	1	14
405.310	1	26
405.480	1	16
405.651	1	18
405.822	1	12
405.992	1	11
406.163	1	13
406.334	1	10
406.504	1	16
406.675	1	26
406.846	1	22
407.016	1	22
407.187	1	19
407.358	1	16
407.528	1	8
407.699	1	10
407.870	1	7
408.041	1	28
408.211	1	22
408.382	1	17
408.553	1	10
408.723	1	19
408.894	1	17
409.065	1	22
409.235	1	22
409.406	1	18
409.577	1	13
409.747	1	21
409.918	1	16
410.089	1	17
410.259	1	22
410.430	1	18
410.601	1	22
410.771	1	14
410.942	1	19
411.113	1	21
411.283	1	23
411.454	1	17
411.625	1	14
411.795	1	25
411.966	1	18
412.137	1	18
412.307	1	8
412.478	1	18
412.649	1	19
412.819	1	19
412.990	1	11
413.161	1	18
413.331	1	14
413.502	1	25
413.672	1	19
413.843	1	14
414.014	1	20
414.184	1	23
414.355	1	27
414.526	1	19
414.696	1	34
414.867	1	16
415.038	1	9
415.208	1	13
415.379	1	21
415.550	1	28
415.720	1	7
415.891	1	19
416.062	1	15
416.232	1	20
416.403	1	16
416.573	1	26
416.744	1	14
416.915	1	29
417.085	1	24
417.256	1	8
417.427	1	17
417.597	1	15
417.768	1	13
417.939	1	21
418.109	1	21
418.280	1	22
418.450	1	12
418.621	1	3
418.792	1	15
418.962	1	22
419.133	1	29
419.304	1	9
419.474	1	12
419.645	1	25
419.815	1	21
419.986	1	19
420.157	1	16
420.327	1	23
420.498	1	36
420.669	1	17
420.839	1	25
421.010	1	13
421.180	1	19
421.351	1	20
421.522	1	31
421.692	1	26
421.863	1	12
422.033	1	25
422.204	1	18
422.375	1	14
422.545	1	24
422.716	1	11
422.886	1	7
423.057	1	21
423.228	1	27
423.398	1	12
423.569	1	27
423.740	1	12
423.910	1	12
424.081	1	20
424.251	1	11
424.422	1	19
424.593	1	14
424.763	1	28
424.934	1	12
425.104	1	17
425.275	1	14
425.445	1	19
425.616	1	13
425.787	1	13
425.957	1	23
426.128	1	28
426.298	1	25
426.469	1	16
426.640	1	21
426.810	1	18
426.981	1	20
427.151	1	17
427.322	1	20
427.493	1	9
427.663	1	21
427.834	1	17
428.004	1	14
428.175	1	24
428.345	1	11
428.516	1	11
428.687	1	17
428.857	1	9
429.028	1	7
429.198	1	22
429.369	1	22
429.540	1	20
429.710	1	8
429.881	1	21
430.051	1	19
430.222	1	19
430.392	1	10
430.563	1	31
430.734	1	19
430.904	1	15
431.075	1	17
431.245	1	6
431.416	1	17
431.586	1	17
431.757	1	16
431.927	1	20
432.098	1	21
432.269	1	15
432.439	1	20
432.610	1	16
432.780	1	24
432.951	1	13
433.121	1	16
433.292	1	26
433.462	1	18
433.633	1	21
433.804	1	19
433.974	1	21
434.145	1	25
434.315	1	11
434.486	1	5
434.656	1	12
434.827	1	7
434.997	1	13
435.168	1	15
435.339	1	14
435.509	1	16
435.680	1	22
435.850	1	16
436.021	1	6
436.191	1	5
436.362	1	19
436.532	1	15
436.703	1	25
436.873	1	20
437.044	1	7
437.214	1	12
437.385	1	22
437.556	1	12
437.726	1	27
437.897	1	24
438.067	1	23
438.238	1	18
438.408	1	17
438.579	1	12
438.749	1	18
438.920	1	10
439.090	1	11
439.261	1	3
439.431	1	17
439.602	1	16
439.772	1	10
439.943	1	28
440.113	1	24
440.284	1	16
440.455	1	13
440.625	1	15
440.796	1	8
440.966	1	18
441.137	1	8
441.307	1	11
441.478	1	25
441.648	1	12
441.819	1	22
441.989	1	13
442.160	1	26
442.330	1	14
442.501	1	17
442.671	1	9
442.842	1	7
443.012	1	18
443.183	1	16
443.353	1	7
443.524	1	21
443.694	1	16
443.865	1	4
444.035	1	22
444.206	1	9
444.376	1	11
444.547	1	24
444.717	1	12
444.888	1	4
445.058	1	12
445.229	1	17
445.399	1	10
445.570	1	20
445.740	1	10
445.911	1	10
446.081	1	7
446.252	1	22
446.422	1	10
446.593	1	8
446.763	1	18
446.934	1	10
447.104	1	13
447.275	1	18
447.445	1	17
447.616	1	23
447.786	1	19
447.957	1	16
448.127	1	3
448.298	1	20
448.468	1	5
448.639	1	15
448.809	1	22
448.979	1	9
449.150	1	24
449.320	1	15
449.491	1	23
449.661	1	8
449.832	1	13
450.002	1	26
450.173	1	12
450.343	1	11
450.514	1	7
450.684	1	14
450.855	1	13
451.025	1	12
451.196	1	16
451.366	1	17
451.537	1	5
451.707	1	1
451.878	1	17
452.048	1	19
452.218	1	15
452.389	1	23
452.559	1	21
452.730	1	27
452.900	1	15
453.071	1	8
453.241	1	14
453.412	1	8
453.582	1	5
453.753	1	14
453.923	1	13
454.093	1	20
454.264	1	22
454.434	1	15
454.605	1	11
454.775	1	7
454.946	1	16
455.116	1	11
455.287	1	5
455.457	1	1
455.628	1	12
455.798	1	16
455.968	1	17
456.139	1	17
456.309	1	16
456.480	1	7
456.650	1	17
456.821	1	1
456.991	1	16
457.161	1	7
457.332	1	19
457.502	1	6
457.673	1	10
457.843	1	17
458.014	1	11
458.184	1	3
458.355	1	10
458.525	1	12
458.695	1	14
458.866	1	9
459.036	1	13
459.207	1	8
459.377	1	6
459.548	1	17
459.718	1	3
459.888	1	17
460.059	1	8
460.229	1	13
460.400	1	31
460.570	1	15
460.740	1	14
460.911	1	10
461.081	1	10
461.252	1	0
461.422	1	8
461.593	1	9
461.763	1	14
461.933	1	17
462.104	1	7
462.274	1	12
462.445	1	15
462.615	1	5
462.785	1	14
462.956	1	13
463.126	1	12
463.297	1	8
463.467	1	11
463.638	1	15
463.808	1	9
463.978	1	6
464.149	1	8
464.319	1	12
464.490	1	26
464.660	1	6
464.830	1	12
465.001	1	14
465.171	1	12
465.342	1	18
465.512	1	11
465.682	1	7
465.853	1	11
466.023	1	13
466.194	1	1
466.364	1	16
466.534	1	21
466.705	1	7
466.875	1	13
467.045	1	-2
467.216	1	27
467.386	1	16
467.557	1	8
467.727	1	3
467.897	1	5
468.068	1	5
468.238	1	9
468.409	1	6
468.579	1	18
468.749	1	10
468.920	1	1
469.090	1	19
469.260	1	5
469.431	1	13
469.601	1	8
469.772	1	4
469.942	1	6
470.112	1	8
470.283	1	5
470.453	1	18
470.623	1	10
470.794	1	-1
470.964	1	13
471.135	1	17
471.305	1	-2
471.475	1	11
471.646	1	-7
471.816	1	12
471.986	1	5
472.157	1	20
472.327	1	3
472.497	1	13
472.668	1	0
472.838	1	5
473.009	1	8
473.179	1	8
473.349	1	7
473.520	1	12
473.690	1	11
473.860	1	9
474.031	1	5
474.201	1	6
474.371	1	15
474.542	1	16
474.712	1	6
474.882	1	9
475.053	1	16
475.223	1	-1
475.394	1	4
475.564	1	8
475.734	1	11
475.905	1	18
476.075	1	11
476.245	1	23
476.416	1	17
476.586	1	13
476.756	1	13
476.927	1	15
477.097	1	12
477.267	1	6
477.438	1	11
477.608	1	11
477.778	1	11
477.949	1	9
478.119	1	16
478.289	1	7
478.460	1	23
478.630	1	7
478.800	1	4
478.971	1	15
479.141	1	1
479.311	1	6
479.482	1	10
479.652	1	13
479.822	1	4
479.993	1	9
480.163	1	14
480.333	1	8
480.504	1	16
480.674	1	4
480.844	1	7
481.015	1	17
481.185	1	12
481.355	1	10
481.525	1	-5
481.696	1	12
481.866	1	11
482.036	1	1
482.207	1	1
482.377	1	12
482.547	1	11
482.718	1	6
482.888	1	11
483.058	1	9
483.229	1	1
483.399	1	7
483.569	1	10
483.740	1	16
483.910	1	13
484.080	1	6
484.250	1	8
484.421	1	7
484.591	1	10
484.761	1	14
484.932	1	14
485.102	1	19
485.272	1	12
485.443	1	21
485.613	1	1
485.783	1	5
485.953	1	7
486.124	1	21
486.294	1	10
486.464	1	3
486.635	1	9
486.805	1	18
486.975	1	7
487.146	1	0
487.316	1	8
487.486	1	11
487.656	1	-4
487.827	1	3
487.997	1	1
488.167	1	9
488.338	1	17
488.508	1	5
488.678	1	8
488.848	1	21
489.019	1	11
489.189	1	13
489.359	1	1
489.529	1	13
489.700	1	6
489.870	1	15
490.040	1	-4
490.211	1	-2
490.381	1	14
490.551	1	4
490.721	1	11
490.892	1	2
491.062	1	6
491.232	1	13
491.402	1	3
491.573	1	-4
491.743	1	11
491.913	1	-1
492.084	1	6
492.254	1	3
492.424	1	3
492.594	1	5
492.765	1	5
492.935	1	6
493.105	1	10
493.275	1	2
493.446	1	6
493.616	1	22
493.786	1	5
493.956	1	12
494.127	1	6
494.297	1	11
494.467	1	4
494.637	1	2
494.808	1	4
494.978	1	3
495.148	1	4
495.318	1	3
495.489	1	8
495.659	1	14
495.829	1	8
495.999	1	-1
496.170	1	11
496.340	1	8
496.510	1	8
496.680	1	5
496.851	1	-1
497.021	1	2
497.191	1	-3
497.361	1	6
497.532	1	5
497.702	1	5
497.872	1	4
498.042	1	9
498.213	1	4
498.383	1	7
498.553	1	2
498.723	1	7
498.894	1	5
499.064	1	0
499.234	1	3
499.404	1	2
499.574	1	17
499.745	1	9
499.915	1	3
500.085	1	10
500.255	1	13
500.426	1	9
500.596	1	7
500.766	1	1
500.936	1	10
501.106	1	-5
501.277	1	3
501.447	1	5
501.617	1	8
501.787	1	7
501.958	1	-1
502.128	1	-1
502.298	1	4
502.468	1	5
502.638	1	5
502.809	1	2
502.979	1	-8
503.149	1	-5
503.319	1	-6
503.489	1	9
503.660	1	2
503.830	1	7
504.000	1	8
504.170	1	7
504.340	1	-5
504.511	1	16
504.681	1	-5
504.851	1	5
505.021	1	5
505.192	1	-3
505.362	1	13
505.532	1	4
505.702	1	5
505.872	1	9
506.043	1	-1
506.213	1	0
506.383	1	8
506.553	1	10
506.723	1	-1
506.893	1	-1
507.064	1	6
507.234	1	11
507.404	1	4
507.574	1	4
507.744	1	9
507.915	1	10
508.085	1	19
508.255	1	3
508.425	1	-8
508.595	1	9
508.766	1	11
508.936	1	-15
509.106	1	9
509.276	1	16
509.446	1	4
509.616	1	3
509.787	1	2
509.957	1	10
510.127	1	9
510.297	1	-3
510.467	1	-3
510.638	1	11
510.808	1	-10
510.978	1	1
511.148	1	2
511.318	1	8
511.488	1	-7
511.659	1	10
511.829	1	-11
511.999	1	3
512.169	1	2
512.339	1	4
512.509	1	-2
512.680	1	0
512.850	1	6
513.020	1	12
513.190	1	11
513.360	1	-1
513.530	1	2
513.700	1	9
513.871	1	-1
514.041	1	-3
514.211	1	8
514.381	1	12
514.551	1	14
514.721	1	5
514.892	1	12
515.062	1	-4
515.232	1	6
515.402	1	-5
515.572	1	-10
515.742	1	6
515.912	1	15
516.083	1	-4
516.253	1	8
516.423	1	6
516.593	1	4
516.763	1	16
516.933	1	-4
517.104	1	10
517.274	1	1
517.444	1	4
517.614	1	-4
517.784	1	3
517.954	1	3
518.124	1	3
518.294	1	3
518.465	1	-2
518.635	1	3
518.805	1	-10
518.975	1	6
519.145	1	-8
519.315	1	2
519.485	1	-1
519.656	1	12
519.826	1	3
519.996	1	-3
520.166	1	9
520.336	1	9
520.506	1	10
520.676	1	6
520.846	1	16
521.017	1	2
521.187	1	-7
521.357	1	24
521.527	1	-1
521.697	1	3
521.867	1	8
522.037	1	13
522.207	1	15
522.377	1	6
522.548	1	5
522.718	1	8
522.888	1	10
523.058	1	2
523.228	1	10
523.398	1	15
523.568	1	7
523.738	1	13
523.909	1	14
524.079	1	-3
524.249	1	6
524.419	1	10
524.589	1	1
524.759	1	-1
524.929	1	-6
525.099	1	5
525.269	1	8
525.439	1	9
525.610	1	19
525.780	1	1
525.950	1	4
526.120	1	-6
526.290	1	1
526.460	1	3
526.630	1	9
526.800	1	5
526.970	1	-5
527.140	1	0
527.311	1	-3
527.481	1	-5
527.651	1	7
527.821	1	-6
527.991	1	13
528.161	1	9
528.331	1	3
528.501	1	11
528.671	1	-2
528.841	1	-2
529.011	1	-3
529.181	1	-4
529.352	1	6
529.522	1	-2
529.692	1	1
529.862	1	2
530.032	1	12
530.202	1	4
530.372	1	3
530.542	1	-1
530.712	1	-1
530.882	1	10
531.052	1	9
531.222	1	15
531.392	1	3
531.563	1	4
531.733	1	9
531.903	1	4
532.073	1	-1
532.243	1	1
532.413	1	0
532.583	1	-4
532.753	1	0
532.923	1	-9
533.093	1	1
533.263	1	2
533.433	1	8
533.603	1	10
533.773	1	1
533.943	1	-7
534.113	1	2
534.284	1	0
534.454	1	5
534.624	1	7
534.794	1	-10
534.964	1	6
535.134	1	2
535.304	1	-5
535.474	1	14
535.644	1	-10
535.814	1	-6
535.984	1	-9
536.154	1	-11
536.324	1	3
536.494	1	11
536.664	1	11
536.834	1	8
537.004	1	1
537.174	1	2
537.344	1	-7
537.514	1	-6
537.685	1	-1
537.855	1	1
538.025	1	6
538.195	1	4
538.365	1	9
538.535	1	-3
538.705	1	5
538.875	1	5
539.045	1	6
539.215	1	2
539.385	1	4
539.555	1	8
539.725	1	10
539.895	1	4
540.065	1	18
540.235	1	5
540.405	1	-8
540.575	1	-6
540.745	1	9
540.915	1	7
541.085	1	2
541.255	1	-5
541.425	1	6
541.595	1	3
541.765	1	8
541.935	1	-2
542.105	1	-2
542.275	1	4
542.445	1	-12
542.615	1	-1
542.785	1	8
542.955	1	6
543.125	1	0
543.295	1	10
543.465	1	5
543.635	1	9
543.805	1	9
543.975	1	-3
544.145	1	-1
544.315	1	5
544.485	1	6
544.655	1	7
544.825	1	-6
544.995	1	4
545.165	1	-6
545.335	1	7
545.505	1	4
545.675	1	14
545.845	1	5
546.015	1	3
546.185	1	9
546.355	1	8
546.525	1	10
546.695	1	7
546.865	1	4
547.035	1	-1
547.205	1	-3
547.375	1	5
547.545	1	3
547.715	1	-6
547.885	1	4
548.055	1	-7
548.225	1	16
548.395	1	-2
548.565	1	8
548.735	1	3
548.905	1	-1
549.075	1	0
549.245	1	0
549.415	1	-1
549.585	1	7
549.755	1	7
549.925	1	-2
550.095	1	13
550.265	1	-1
550.435	1	1
550.605	1	-6
550.775	1	1
550.945	1	6
551.115	1	6
551.285	1	4
551.455	1	-2
551.625	1	7
551.795	1	6
551.965	1	-2
552.135	1	1
552.305	1	6
552.475	1	-4
552.645	1	-5
552.815	1	-2
552.985	1	8
553.155	1	5
553.325	1	3
553.495	1	0
553.665	1	0
553.835	1	-1
554.004	1	-1
554.174	1	4
554.344	1	9
554.514	1	1
554.684	1	2
554.854	1	12
555.024	1	-15
555.194	1	-5
555.364	1	5
555.534	1	3
555.704	1	4
555.874	1	11
556.044	1	11
556.214	1	-2
556.384	1	-10
556.554	1	15
556.724	1	8
556.894	1	-4
557.064	1	-1
557.234	1	-7
557.404	1	12
557.573	1	12
557.743	1	5
557.913	1	0
558.083	1	-6
558.253	1	0
558.423	1	2
558.593	1	1
558.763	1	-4
558.933	1	0
559.103	1	4
559.273	1	8
559.443	1	3
559.613	1	8
559.783	1	1
559.953	1	3
560.122	1	8
560.292	1	2
560.462	1	0
560.632	1	13
560.802	1	9
560.972	1	5
561.142	1	9
561.312	1	-1
561.482	1	12
561.652	1	9
561.822	1	-2
561.992	1	1
562.162	1	0
562.331	1	1
562.501	1	-5
562.671	1	5
562.841	1	-4
563.011	1	9
563.181	1	6
563.351	1	-5
563.521	1	-5
563.691	1	-5
563.861	1	7
564.031	1	3
564.201	1	22
564.370	1	0
564.540	1	14
564.710	1	-4
564.880	1	16
565.050	1	9
565.220	1	-1
565.390	1	-1
565.560	1	8
565.730	1	0
565.900	1	0
566.069	1	16
566.239	1	8
566.409	1	12
566.579	1	3
566.749	1	0
566.919	1	8
567.089	1	5
567.259	1	7
567.429	1	8
567.599	1	-1
567.768	1	4
567.938	1	1
568.108	1	7
568.278	1	3
568.448	1	-13
568.618	1	-2
568.788	1	3
568.958	1	3
569.128	1	9
569.297	1	-3
569.467	1	3
569.637	1	7
569.807	1	1
569.977	1	7
570.147	1	9
570.317	1	-6
570.487	1	-6
570.656	1	8
570.826	1	-1
570.996	1	-7
571.166	1	10
571.336	1	-2
571.506	1	13
571.676	1	11
571.846	1	9
572.015	1	-6
572.185	1	-4
572.355	1	3
572.525	1	-3
572.695	1	2
572.865	1	-1
573.035	1	6
573.205	1	1
573.374	1	0
573.544	1	-1
573.714	1	8
573.884	1	17
574.054	1	0
574.224	1	4
574.394	1	-1
574.563	1	-5
574.733	1	-3
574.903	1	0
575.073	1	2
575.243	1	1
575.413	1	8
575.583	1	-1
575.752	1	-1
575.922	1	8
576.092	1	-3
576.262	1	14
576.432	1	6
576.602	1	-5
576.772	1	15
576.941	1	4
577.111	1	1
577.281	1	-7
577.451	1	6
577.621	1	6
577.791	1	9
577.960	1	-6
578.130	1	4
578.300	1	3
578.470	1	8
578.640	1	7
578.810	1	2
578.979	1	14
579.149	1	-4
579.319	1	0
579.489	1	-5
579.659	1	0
579.829	1	-2
579.998	1	3
580.168	1	16
580.338	1	0
580.508	1	-9
580.678	1	-2
580.848	1	2
581.017	1	0
581.187	1	-2
581.357	1	-9
581.527	1	3
581.697	1	6
581.867	1	6
582.036	1	7
582.206	1	0
582.376	1	9
582.546	1	-1
582.716	1	3
582.885	1	-1
583.055	1	3
583.225	1	-7
583.395	1	11
583.565	1	-4
583.735	1	3
583.904	1	15
584.074	1	10
584.244	1	12
584.414	1	-7
584.584	1	13
584.753	1	-7
584.923	1	-1
585.093	1	2
585.263	1	1
585.433	1	7
585.602	1	-2
585.772	1	-4
585.942	1	-1
586.112	1	4
586.282	1	-1
586.451	1	-3
586.621	1	-8
586.791	1	1
586.961	1	-4
587.131	1	3
587.300	1	2
587.470	1	5
587.640	1	13
587.810	1	5
587.980	1	5
588.149	1	2
588.319	1	7
588.489	1	5
588.659	1	-1
588.829	1	4
588.998	1	13
589.168	1	11
589.338	1	5
589.508	1	0
589.677	1	-2
589.847	1	-6
590.017	1	2
590.187	1	-5
590.357	1	10
590.526	1	11
590.696	1	8
590.866	1	8
591.036	1	8
591.205	1	12
591.375	1	-4
591.545	1	0
591.715	1	10
591.885	1	-1
592.054	1	1
592.224	1	-2
592.394	1	12
592.564	1	8
592.733	1	6
592.903	1	-6
593.073	1	5
593.243	1	2
593.412	1	7
593.582	1	-5
593.752	1	0
593.922	1	5
594.091	1	-2
594.261	1	2
594.431	1	-1
594.601	1	5
594.771	1	7
594.940	1	-2
595.110	1	-10
595.280	1	3
595.450	1	4
595.619	1	-2
595.789	1	8
595.959	1	8
596.129	1	8
596.298	1	-2
596.468	1	6
596.638	1	2
596.808	1	-3
596.977	1	2
597.147	1	6
597.317	1	-7
597.487	1	9
597.656	1	-2
597.826	1	3
597.996	1	-3
598.166	1	-4
598.335	1	-6
598.505	1	-1
598.675	1	8
598.844	1	-3
599.014	1	7
599.184	1	1
599.354	1	-8
599.523	1	14
599.693	1	-7
599.863	1	12
600.033	1	0
600.202	1	9
600.372	1	4
600.542	1	7
600.712	1	-4
600.881	1	0
601.051	1	5
601.221	1	10
601.390	1	-7
601.560	1	6
601.730	1	9
601.900	1	6
602.069	1	4
602.239	1	0
602.409	1	-9
602.578	1	5
602.748	1	-9
602.918	1	1
603.088	1	3
603.257	1	8
603.427	1	-1
603.597	1	3
603.767	1	6
603.936	1	10
604.106	1	6
604.276	1	4
604.445	1	12
604.615	1	-7
604.785	1	0
604.954	1	-4
605.124	1	4
605.294	1	5
605.464	1	-5
605.633	1	8
605.803	1	9
605.973	1	-1
606.142	1	6
606.312	1	8
606.482	1	7
606.652	1	6
606.821	1	0
606.991	1	-1
607.161	1	-2
607.330	1	8
607.500	1	6
607.670	1	2
607.839	1	10
608.009	1	2
608.179	1	10
608.348	1	9
608.518	1	-9
608.688	1	8
608.858	1	7
609.027	1	-5
609.197	1	2
609.367	1	6
609.536	1	5
609.706	1	-2
609.876	1	-8
610.045	1	5
610.215	1	1
610.385	1	6
610.554	1	7
610.724	1	5
610.894	1	6
611.063	1	3
611.233	1	1
611.403	1	5
611.572	1	-3
611.742	1	0
611.912	1	-6
612.081	1	-3
612.251	1	3
612.421	1	3
612.590	1	3
612.760	1	8
612.930	1	3
613.099	1	7
613.269	1	8
613.439	1	1
613.608	1	-1
613.778	1	3
613.948	1	2
614.117	1	13
614.287	1	17
614.457	1	1
614.626	1	4
614.796	1	-1
614.966	1	6
615.135	1	6
615.305	1	13
615.475	1	4
615.644	1	0
615.814	1	2
615.984	1	-4
616.153	1	2
616.323	1	-3
616.493	1	7
616.662	1	13
616.832	1	-1
617.002	1	5
617.171	1	1
617.341	1	-3
617.511	1	-8
617.680	1	-3
617.850	1	16
618.019	1	11
618.189	1	8
618.359	1	7
618.528	1	12
618.698	1	3
618.868	1	1
619.037	1	-1
619.207	1	-4
619.377	1	-6
619.546	1	0
619.716	1	6
619.885	1	11
620.055	1	-4
620.225	1	4
620.394	1	-1
620.564	1	6
620.734	1	10
620.903	1	-2
621.073	1	12
621.242	1	9
621.412	1	1
621.582	1	1
621.751	1	-2
621.921	1	7
622.091	1	5
622.260	1	-1
622.430	1	4
622.599	1	-3
622.769	1	6
622.939	1	-3
623.108	1	6
623.278	1	-11
623.448	1	-3
623.617	1	7
623.787	1	-3
623.956	1	6
624.126	1	1
624.296	1	-3
624.465	1	8
624.635	1	5
624.804	1	3
624.974	1	-2
625.144	1	8
625.313	1	6
625.483	1	-7
625.652	1	2
625.822	1	3
625.992	1	-6
626.161	1	15
626.331	1	4
626.501	1	1
626.670	1	2
626.840	1	3
627.009	1	-7
627.179	1	4
627.348	1	7
627.518	1	2
627.688	1	9
627.857	1	8
628.027	1	-1
628.196	1	2
628.366	1	13
628.536	1	2
628.705	1	1
628.875	1	1
629.044	1	2
629.214	1	10
629.384	1	0
629.553	1	15
629.723	1	6
629.892	1	-3
630.062	1	11
630.232	1	-6
630.401	1	3
630.571	1	8
630.740	1	8
630.910	1	9
631.079	1	5
631.249	1	-12
631.419	1	6
631.588	1	-7
631.758	1	10
631.927	1	-5
632.097	1	4
632.266	1	-6
632.436	1	6
632.606	1	2
632.775	1	7
632.945	1	9
633.114	1	3
633.284	1	-1
633.453	1	-4
633.623	1	7
633.793	1	3
633.962	1	7
634.132	1	2
634.301	1	-3
634.471	1	8
634.640	1	7
634.810	1	7
634.979	1	5
635.149	1	0
635.319	1	0
635.488	1	3
635.658	1	-3
635.827	1	1
635.997	1	6
636.166	1	12
636.336	1	-8
636.505	1	16
636.675	1	-1
636.845	1	3
637.014	1	8
637.184	1	2
637.353	1	9
637.523	1	-5
637.692	1	16
637.862	1	-3
638.031	1	7
638.201	1	7
638.370	1	1
638.540	1	-1
638.710	1	3
638.879	1	-10
639.049	1	3
639.218	1	3
639.388	1	9
639.557	1	3
639.727	1	3
639.896	1	-1
640.066	1	9
640.235	1	4
640.405	1	8
640.574	1	-1
640.744	1	-1
640.914	1	6
641.083	1	2
641.253	1	-5
641.422	1	8
641.592	1	8
641.761	1	7
641.931	1	-1
642.100	1	21
642.270	1	4
642.439	1	0
642.609	1	14
642.778	1	1
642.948	1	-4
643.117	1	8
643.287	1	15
643.456	1	0
643.626	1	10
643.795	1	1
643.965	1	5
644.134	1	-6
644.304	1	0
644.473	1	7
644.643	1	7
644.812	1	6
644.982	1	3
645.151	1	-1
645.321	1	-4
645.490	1	5
645.660	1	6
645.829	1	7
645.999	1	-1
646.168	1	11
646.338	1	10
646.507	1	6
646.677	1	10
646.846	1	4
647.016	1	0
647.185	1	4
647.355	1	-7
647.524	1	10
647.694	1	11
647.863	1	8
648.033	1	5
648.202	1	13
648.372	1	-4
648.541	1	-1
648.711	1	8
648.880	1	1
649.050	1	4
649.219	1	-5
649.389	1	9
649.558	1	6
649.728	1	13
649.897	1	-4
650.067	1	11
650.236	1	7
650.406	1	6
650.575	1	6
650.745	1	4
650.914	1	-2
651.084	1	-2
651.253	1	7
651.423	1	4
651.592	1	-7
651.762	1	-3
651.931	1	5
652.101	1	-3
652.270	1	12
652.440	1	13
652.609	1	-5
652.778	1	0
652.948	1	4
653.117	1	10
653.287	1	-3
653.456	1	7
653.626	1	8
653.795	1	6
653.965	1	2
654.134	1	9
654.304	1	-12
654.473	1	15
654.643	1	9
654.812	1	7
654.982	1	7
655.151	1	-2
655.320	1	7
655.490	1	-1
655.659	1	7
655.829	1	5
655.998	1	5
656.168	1	0
656.337	1	4
656.507	1	4
656.676	1	6
656.846	1	4
657.015	1	13
657.184	1	15
657.354	1	2
657.523	1	1
657.693	1	20
657.862	1	4
658.032	1	2
658.201	1	0
658.371	1	9
658.540	1	11
658.709	1	-1
658.879	1	7
659.048	1	0
659.218	1	-4
659.387	1	1
659.557	1	3
659.726	1	3
659.895	1	-6
660.065	1	3
660.234	1	9
660.404	1	0
660.573	1	-6
660.743	1	-4
660.912	1	6
661.081	1	7
661.251	1	5
661.420	1	13
661.590	1	8
661.759	1	7
661.929	1	9
662.098	1	11
662.267	1	10
662.437	1	4
662.606	1	6
662.776	1	4
662.945	1	8
663.115	1	6
663.284	1	-1
663.453	1	5
663.623	1	3
663.792	1	10
663.962	1	0
664.131	1	4
664.300	1	12
664.470	1	2
664.639	1	1
664.809	1	3
664.978	1	11
665.148	1	8
665.317	1	2
665.486	1	10
665.656	1	4
665.825	1	12
665.995	1	-3
666.164	1	2
666.333	1	5
666.503	1	1
666.672	1	-13
666.842	1	2
667.011	1	2
667.180	1	8
667.350	1	-1
667.519	1	1
667.689	1	11
667.858	1	0
668.027	1	17
668.197	1	0
668.366	1	-4
668.536	1	5
668.705	1	6
668.874	1	12
669.044	1	-3
669.213	1	3
669.382	1	-1
669.552	1	11
669.721	1	0
669.891	1	10
670.060	1	9
670.229	1	12
670.399	1	4
670.568	1	8
670.738	1	12
670.907	1	1
671.076	1	1
671.246	1	0
671.415	1	6
671.584	1	4
671.754	1	2
671.923	1	0
672.093	1	10
672.262	1	-5
672.431	1	12
672.601	1	-2
672.770	1	-3
672.939	1	3
673.109	1	12
673.278	1	4
673.448	1	8
673.617	1	2
673.786	1	2
