325.333	1	9
325.504	1	10
325.675	1	9
325.846	1	5
326.017	1	4
326.188	1	-3
326.359	1	-1
326.531	1	-12
326.702	1	6
326.873	1	5
327.044	1	-1
327.215	1	5
327.386	1	9
327.557	1	-5
327.728	1	-4
327.899	1	-3
328.070	1	18
328.241	1	8
328.412	1	-3
328.583	1	9
328.754	1	11
328.926	1	5
329.097	1	-11
329.268	1	11
329.439	1	-8
329.610	1	11
329.781	1	-6
329.952	1	8
330.123	1	1
330.294	1	6
330.465	1	8
330.636	1	5
330.807	1	4
330.978	1	6
331.149	1	1
331.320	1	3
331.492	1	1
331.663	1	0
331.834	1	20
332.005	1	4
332.176	1	12
332.347	1	9
332.518	1	0
332.689	1	5
332.860	1	-4
333.031	1	15
333.202	1	5
333.373	1	6
333.544	1	2
333.715	1	6
333.886	1	-9
334.057	1	11
334.228	1	-7
334.399	1	8
334.570	1	14
334.741	1	1
334.912	1	9
335.084	1	19
335.255	1	4
335.426	1	-1
335.597	1	1
335.768	1	-3
335.939	1	7
336.110	1	-3
336.281	1	-9
336.452	1	3
336.623	1	11
336.794	1	5
336.965	1	-4
337.136	1	9
337.307	1	0
337.478	1	6
337.649	1	2
337.820	1	4
337.991	1	-4
338.162	1	15
338.333	1	-1
338.504	1	8
338.675	1	8
338.846	1	10
339.017	1	5
339.188	1	4
339.359	1	-8
339.530	1	4
339.701	1	14
339.872	1	22
340.043	1	2
340.214	1	9
340.385	1	14
340.556	1	0
340.727	1	13
340.898	1	25
341.069	1	9
341.240	1	7
341.411	1	13
341.582	1	6
341.753	1	-4
341.924	1	3
342.095	1	12
342.266	1	9
342.437	1	7
342.608	1	5
342.779	1	11
342.950	1	6
343.121	1	13
343.292	1	3
343.463	1	16
343.634	1	-3
343.805	1	12
343.976	1	10
344.147	1	6
344.318	1	-2
344.489	1	3
344.660	1	16
344.831	1	2
345.002	1	0
345.173	1	10
345.344	1	15
345.515	1	2
345.686	1	-2
345.857	1	14
346.028	1	5
346.199	1	-3
346.370	1	-1
346.541	1	11
346.712	1	2
346.883	1	10
347.054	1	2
347.225	1	4
347.396	1	12
347.567	1	10
347.738	1	-3
347.909	1	11
348.080	1	-3
348.251	1	17
348.422	1	7
348.593	1	8
348.764	1	0
348.935	1	10
349.106	1	2
349.277	1	11
349.448	1	11
349.619	1	0
349.790	1	-1
349.961	1	8
350.132	1	8
350.303	1	13
350.474	1	15
350.645	1	10
350.816	1	12
350.987	1	10
351.157	1	3
351.328	1	5
351.499	1	12
351.670	1	1
351.841	1	11
352.012	1	12
352.183	1	23
352.354	1	18
352.525	1	17
352.696	1	19
352.867	1	7
353.038	1	24
353.209	1	12
353.380	1	9
353.551	1	4
353.722	1	11
353.893	1	7
354.064	1	17
354.235	1	2
354.406	1	7
354.576	1	11
354.747	1	3
354.918	1	6
355.089	1	7
355.260	1	16
355.431	1	13
355.602	1	7
355.773	1	16
355.944	1	17
356.115	1	12
356.286	1	18
356.457	1	7
356.628	1	7
356.799	1	3
356.970	1	22
357.141	1	2
357.311	1	12
357.482	1	7
357.653	1	17
357.824	1	11
357.995	1	17
358.166	1	1
358.337	1	3
358.508	1	16
358.679	1	6
358.850	1	11
359.021	1	9
359.192	1	17
359.363	1	7
359.533	1	4
359.704	1	10
359.875	1	4
360.046	1	3
360.217	1	2
360.388	1	12
360.559	1	13
360.730	1	12
360.901	1	17
361.072	1	22
361.243	1	11
361.414	1	8
361.584	1	1
361.755	1	16
361.926	1	9
362.097	1	8
362.268	1	6
362.439	1	6
362.610	1	15
362.781	1	3
362.952	1	7
363.123	1	10
363.293	1	10
363.464	1	17
363.635	1	15
363.806	1	3
363.977	1	9
364.148	1	8
364.319	1	16
364.490	1	14
364.661	1	13
364.832	1	17
365.002	1	22
365.173	1	18
365.344	1	12
365.515	1	2
365.686	1	18
365.857	1	11
366.028	1	15
366.199	1	7
366.370	1	22
366.540	1	-3
366.711	1	-5
366.882	1	3
367.053	1	7
367.224	1	19
367.395	1	18
367.566	1	23
367.737	1	23
367.908	1	22
368.078	1	15
368.249	1	20
368.420	1	-2
368.591	1	3
368.762	1	15
368.933	1	4
369.104	1	-1
369.274	1	21
369.445	1	11
369.616	1	12
369.787	1	18
369.958	1	13
370.129	1	3
370.300	1	19
370.471	1	7
370.641	1	14
370.812	1	10
370.983	1	10
371.154	1	5
371.325	1	24
371.496	1	10
371.667	1	22
371.837	1	12
372.008	1	12
372.179	1	8
372.350	1	30
372.521	1	16
372.692	1	9
372.863	1	20
373.033	1	3
373.204	1	6
373.375	1	22
373.546	1	15
373.717	1	13
373.888	1	23
374.059	1	20
374.229	1	26
374.400	1	8
374.571	1	12
374.742	1	22
374.913	1	17
375.084	1	0
375.254	1	21
375.425	1	19
375.596	1	18
375.767	1	16
375.938	1	14
376.109	1	19
376.279	1	11
376.450	1	22
376.621	1	23
376.792	1	7
376.963	1	7
377.134	1	13
377.304	1	18
377.475	1	13
377.646	1	14
377.817	1	6
377.988	1	9
378.159	1	17
378.329	1	17
378.500	1	4
378.671	1	21
378.842	1	5
379.013	1	4
379.184	1	15
379.354	1	22
379.525	1	7
379.696	1	16
379.867	1	13
380.038	1	8
380.209	1	14
380.379	1	13
380.550	1	5
380.721	1	18
380.892	1	13
381.063	1	16
381.233	1	12
381.404	1	1
381.575	1	20
381.746	1	19
381.917	1	24
382.087	1	12
382.258	1	13
382.429	1	20
382.600	1	19
382.771	1	11
382.941	1	10
383.112	1	13
383.283	1	16
383.454	1	8
383.625	1	2
383.795	1	18
383.966	1	12
384.137	1	27
384.308	1	21
384.479	1	21
384.649	1	22
384.820	1	14
384.991	1	13
385.162	1	18
385.333	1	15
385.503	1	9
385.674	1	9
385.845	1	23
386.016	1	13
386.187	1	18
386.357	1	21
386.528	1	18
386.699	1	13
386.870	1	17
387.041	1	19
387.211	1	19
387.382	1	19
387.553	1	26
387.724	1	14
387.894	1	27
388.065	1	15
388.236	1	23
388.407	1	15
388.578	1	21
388.748	1	7
388.919	1	25
389.090	1	13
389.261	1	18
389.431	1	27
389.602	1	23
389.773	1	14
389.944	1	16
390.114	1	16
390.285	1	20
390.456	1	13
390.627	1	21
390.798	1	21
390.968	1	19
391.139	1	19
391.310	1	10
391.481	1	19
391.651	1	11
391.822	1	9
391.993	1	11
392.164	1	9
392.334	1	16
392.505	1	11
392.676	1	26
392.847	1	27
393.017	1	22
393.188	1	18
393.359	1	0
393.530	1	21
393.700	1	16
393.871	1	21
394.042	1	9
394.213	1	5
394.383	1	19
394.554	1	20
394.725	1	19
394.896	1	15
395.066	1	18
395.237	1	20
395.408	1	8
395.579	1	21
395.749	1	17
395.920	1	26
396.091	1	24
396.262	1	22
396.432	1	14
396.603	1	19
396.774	1	26
396.945	1	25
397.115	1	21
397.286	1	17
397.457	1	21
397.627	1	20
397.798	1	29
397.969	1	17
398.140	1	10
398.310	1	19
398.481	1	26
398.652	1	26
398.823	1	9
398.993	1	11
399.164	1	14
399.335	1	30
399.505	1	28
399.676	1	20
399.847	1	21
400.018	1	9
400.188	1	19
400.359	1	14
400.530	1	17
400.700	1	20
400.871	1	17
401.042	1	14
401.213	1	26
401.383	1	25
401.554	1	25
401.725	1	29
401.895	1	20
402.066	1	21
402.237	1	18
402.408	1	25
402.578	1	17
402.749	1	20
402.920	1	27
403.090	1	18
403.261	1	25
403.432	1	22
403.603	1	27
403.773	1	30
403.944	1	30
404.115	1	18
404.285	1	29
404.456	1	15
404.627	1	17
404.797	1	11
404.968	1	14
405.139	1	14
405.310	1	26
405.480	1	13
405.651	1	24
405.822	1	17
405.992	1	12
406.163	1	19
406.334	1	10
406.504	1	6
406.675	1	28
406.846	1	21
407.016	1	28
407.187	1	21
407.358	1	1
407.528	1	15
407.699	1	13
407.870	1	14
408.041	1	23
408.211	1	32
408.382	1	17
408.553	1	14
408.723	1	22
408.894	1	20
409.065	1	16
409.235	1	20
409.406	1	20
409.577	1	16
409.747	1	20
409.918	1	26
410.089	1	3
410.259	1	14
410.430	1	13
410.601	1	25
410.771	1	13
410.942	1	32
411.113	1	29
411.283	1	17
411.454	1	17
411.625	1	29
411.795	1	24
411.966	1	20
412.137	1	22
412.307	1	3
412.478	1	19
412.649	1	21
412.819	1	19
412.990	1	16
413.161	1	18
413.331	1	19
413.502	1	28
413.672	1	18
413.843	1	30
414.014	1	19
414.184	1	25
414.355	1	27
414.526	1	24
414.696	1	32
414.867	1	21
415.038	1	4
415.208	1	15
415.379	1	23
415.550	1	29
415.720	1	20
415.891	1	22
416.062	1	16
416.232	1	22
416.403	1	25
416.573	1	30
416.744	1	15
416.915	1	26
417.085	1	17
417.256	1	22
417.427	1	24
417.597	1	18
417.768	1	13
417.939	1	23
418.109	1	21
418.280	1	30
418.450	1	18
418.621	1	8
418.792	1	21
418.962	1	18
419.133	1	29
419.304	1	14
419.474	1	10
419.645	1	22
419.815	1	7
419.986	1	25
420.157	1	22
420.327	1	23
420.498	1	29
420.669	1	21
420.839	1	25
421.010	1	21
421.180	1	25
421.351	1	25
421.522	1	18
421.692	1	13
421.863	1	26
422.033	1	32
422.204	1	18
422.375	1	15
422.545	1	23
422.716	1	17
422.886	1	21
423.057	1	29
423.228	1	23
423.398	1	15
423.569	1	11
423.740	1	15
423.910	1	12
424.081	1	17
424.251	1	18
424.422	1	16
424.593	1	8
424.763	1	18
424.934	1	19
425.104	1	20
425.275	1	19
425.445	1	27
425.616	1	21
425.787	1	6
425.957	1	23
426.128	1	18
426.298	1	16
426.469	1	9
426.640	1	17
426.810	1	24
426.981	1	20
427.151	1	20
427.322	1	21
427.493	1	12
427.663	1	20
427.834	1	11
428.004	1	24
428.175	1	18
428.345	1	19
428.516	1	5
428.687	1	27
428.857	1	20
429.028	1	13
429.198	1	28
429.369	1	24
429.540	1	19
429.710	1	5
429.881	1	19
430.051	1	23
430.222	1	13
430.392	1	20
430.563	1	25
430.734	1	29
430.904	1	14
431.075	1	25
431.245	1	9
431.416	1	27
431.586	1	4
431.757	1	19
431.927	1	24
432.098	1	18
432.269	1	11
432.439	1	19
432.610	1	18
432.780	1	19
432.951	1	17
433.121	1	15
433.292	1	19
433.462	1	14
433.633	1	16
433.804	1	23
433.974	1	14
434.145	1	30
434.315	1	15
434.486	1	12
434.656	1	17
434.827	1	10
434.997	1	7
435.168	1	13
435.339	1	16
435.509	1	14
435.680	1	23
435.850	1	19
436.021	1	12
436.191	1	12
436.362	1	19
436.532	1	26
436.703	1	20
436.873	1	14
437.044	1	1
437.214	1	8
437.385	1	8
437.556	1	13
437.726	1	29
437.897	1	29
438.067	1	17
438.238	1	21
438.408	1	15
438.579	1	23
438.749	1	18
438.920	1	13
439.090	1	14
439.261	1	8
439.431	1	8
439.602	1	14
439.772	1	8
439.943	1	24
440.113	1	22
440.284	1	24
440.455	1	14
440.625	1	25
440.796	1	11
440.966	1	12
441.137	1	13
441.307	1	17
441.478	1	23
441.648	1	18
441.819	1	14
441.989	1	17
442.160	1	24
442.330	1	17
442.501	1	19
442.671	1	15
442.842	1	3
443.012	1	14
443.183	1	18
443.353	1	15
443.524	1	19
443.694	1	25
443.865	1	11
444.035	1	20
444.206	1	15
444.376	1	0
444.547	1	25
444.717	1	12
444.888	1	7
445.058	1	27
445.229	1	18
445.399	1	18
445.570	1	15
445.740	1	7
445.911	1	12
446.081	1	1
446.252	1	26
446.422	1	10
446.593	1	9
446.763	1	9
446.934	1	6
447.104	1	16
447.275	1	15
447.445	1	16
447.616	1	18
447.786	1	18
447.957	1	21
448.127	1	8
448.298	1	20
448.468	1	13
448.639	1	11
448.809	1	18
448.979	1	16
449.150	1	14
449.320	1	14
449.491	1	20
449.661	1	11
449.832	1	17
450.002	1	31
450.173	1	17
450.343	1	14
450.514	1	10
450.684	1	10
450.855	1	9
451.025	1	18
451.196	1	9
451.366	1	20
451.537	1	15
451.707	1	13
451.878	1	17
452.048	1	26
452.218	1	19
452.389	1	15
452.559	1	14
452.730	1	21
452.900	1	11
453.071	1	2
453.241	1	14
453.412	1	7
453.582	1	16
453.753	1	21
453.923	1	17
454.093	1	21
454.264	1	28
454.434	1	11
454.605	1	18
454.775	1	14
454.946	1	15
455.116	1	11
455.287	1	-3
455.457	1	14
455.628	1	5
455.798	1	15
455.968	1	18
456.139	1	9
456.309	1	10
456.480	1	18
456.650	1	16
456.821	1	9
456.991	1	16
457.161	1	13
457.332	1	15
457.502	1	3
457.673	1	21
457.843	1	14
458.014	1	13
458.184	1	14
458.355	1	12
458.525	1	10
458.695	1	17
458.866	1	12
459.036	1	19
459.207	1	20
459.377	1	12
459.548	1	17
459.718	1	6
459.888	1	11
460.059	1	16
460.229	1	23
460.400	1	15
460.570	1	14
460.740	1	12
460.911	1	19
461.081	1	23
461.252	1	5
461.422	1	8
461.593	1	12
461.763	1	14
461.933	1	18
462.104	1	7
462.274	1	11
462.445	1	7
462.615	1	9
462.785	1	11
462.956	1	9
463.126	1	14
463.297	1	5
463.467	1	22
463.638	1	16
463.808	1	6
463.978	1	8
464.149	1	17
464.319	1	-2
464.490	1	22
464.660	1	14
464.830	1	7
465.001	1	10
465.171	1	14
465.342	1	13
465.512	1	8
465.682	1	11
465.853	1	13
466.023	1	18
466.194	1	13
466.364	1	24
466.534	1	16
466.705	1	18
466.875	1	8
467.045	1	3
467.216	1	16
467.386	1	11
467.557	1	12
467.727	1	18
467.897	1	12
468.068	1	10
468.238	1	10
468.409	1	10
468.579	1	14
468.749	1	10
468.920	1	1
469.090	1	16
469.260	1	6
469.431	1	13
469.601	1	16
469.772	1	11
469.942	1	9
470.112	1	17
470.283	1	14
470.453	1	15
470.623	1	8
470.794	1	7
470.964	1	5
471.135	1	9
471.305	1	-4
471.475	1	17
471.646	1	2
471.816	1	16
471.986	1	6
472.157	1	12
472.327	1	5
472.497	1	12
472.668	1	3
472.838	1	7
473.009	1	9
473.179	1	13
473.349	1	4
473.520	1	21
473.690	1	15
473.860	1	6
474.031	1	21
474.201	1	4
474.371	1	12
474.542	1	14
474.712	1	12
474.882	1	24
475.053	1	11
475.223	1	3
475.394	1	16
475.564	1	15
475.734	1	10
475.905	1	12
476.075	1	8
476.245	1	21
476.416	1	14
476.586	1	20
476.756	1	13
476.927	1	10
477.097	1	10
477.267	1	-2
477.438	1	9
477.608	1	11
477.778	1	11
477.949	1	13
478.119	1	11
478.289	1	14
478.460	1	25
478.630	1	9
478.800	1	-1
478.971	1	17
479.141	1	5
479.311	1	7
479.482	1	10
479.652	1	8
479.822	1	11
479.993	1	15
480.163	1	7
480.333	1	7
480.504	1	9
480.674	1	2
480.844	1	-3
481.015	1	15
481.185	1	8
481.355	1	9
481.525	1	13
481.696	1	12
481.866	1	7
482.036	1	5
482.207	1	5
482.377	1	2
482.547	1	16
482.718	1	15
482.888	1	14
483.058	1	10
483.229	1	0
483.399	1	0
483.569	1	6
483.740	1	12
483.910	1	15
484.080	1	5
484.250	1	12
484.421	1	2
484.591	1	20
484.761	1	15
484.932	1	14
485.102	1	15
485.272	1	5
485.443	1	6
485.613	1	13
485.783	1	9
485.953	1	13
486.124	1	12
486.294	1	16
486.464	1	-3
486.635	1	17
486.805	1	16
486.975	1	5
487.146	1	6
487.316	1	5
487.486	1	5
487.656	1	4
487.827	1	9
487.997	1	7
488.167	1	5
488.338	1	12
488.508	1	2
488.678	1	1
488.848	1	13
489.019	1	1
489.189	1	13
489.359	1	4
489.529	1	7
489.700	1	7
489.870	1	18
490.040	1	8
490.211	1	-2
490.381	1	10
490.551	1	7
490.721	1	22
490.892	1	3
491.062	1	7
491.232	1	4
491.402	1	9
491.573	1	-2
491.743	1	4
491.913	1	0
492.084	1	22
492.254	1	1
492.424	1	7
492.594	1	6
492.765	1	11
492.935	1	3
493.105	1	12
493.275	1	12
493.446	1	20
493.616	1	15
493.786	1	3
493.956	1	3
494.127	1	5
494.297	1	3
494.467	1	5
494.637	1	7
494.808	1	1
494.978	1	3
495.148	1	4
495.318	1	13
495.489	1	14
495.659	1	6
495.829	1	8
495.999	1	3
496.170	1	15
496.340	1	10
496.510	1	7
496.680	1	-12
496.851	1	-2
497.021	1	1
497.191	1	-2
497.361	1	2
497.532	1	4
497.702	1	7
497.872	1	8
498.042	1	8
498.213	1	1
498.383	1	15
498.553	1	10
498.723	1	1
498.894	1	2
499.064	1	0
499.234	1	10
499.404	1	0
499.574	1	10
499.745	1	13
499.915	1	12
500.085	1	9
500.255	1	17
500.426	1	-1
500.596	1	11
500.766	1	2
500.936	1	2
501.106	1	-7
501.277	1	12
501.447	1	7
501.617	1	8
501.787	1	-3
501.958	1	0
502.128	1	3
502.298	1	14
502.468	1	4
502.638	1	9
502.809	1	-4
502.979	1	8
503.149	1	-3
503.319	1	-3
503.489	1	6
503.660	1	13
503.830	1	7
504.000	1	15
504.170	1	8
504.340	1	6
504.511	1	13
504.681	1	8
504.851	1	8
505.021	1	4
505.192	1	-1
505.362	1	4
505.532	1	7
505.702	1	4
505.872	1	7
506.043	1	1
506.213	1	10
506.383	1	5
506.553	1	5
506.723	1	11
506.893	1	5
507.064	1	14
507.234	1	1
507.404	1	0
507.574	1	1
507.744	1	1
507.915	1	5
508.085	1	11
508.255	1	8
508.425	1	10
508.595	1	12
508.766	1	4
508.936	1	-11
509.106	1	11
509.276	1	10
509.446	1	1
509.616	1	-2
509.787	1	6
509.957	1	7
510.127	1	5
510.297	1	2
510.467	1	-3
510.638	1	5
510.808	1	1
510.978	1	-3
511.148	1	12
511.318	1	11
511.488	1	-5
511.659	1	5
511.829	1	-6
511.999	1	7
512.169	1	5
512.339	1	2
512.509	1	1
512.680	1	4
512.850	1	6
513.020	1	2
513.190	1	12
513.360	1	10
513.530	1	11
513.700	1	6
513.871	1	0
514.041	1	3
514.211	1	14
514.381	1	5
514.551	1	9
514.721	1	1
514.892	1	2
515.062	1	10
515.232	1	11
515.402	1	-4
515.572	1	-6
515.742	1	10
515.912	1	13
516.083	1	0
516.253	1	15
516.423	1	2
516.593	1	1
516.763	1	8
516.933	1	-1
517.104	1	3
517.274	1	3
517.444	1	9
517.614	1	0
517.784	1	4
517.954	1	10
518.124	1	5
518.294	1	2
518.465	1	2
518.635	1	4
518.805	1	-11
518.975	1	6
519.145	1	-8
519.315	1	7
519.485	1	1
519.656	1	4
519.826	1	5
519.996	1	-4
520.166	1	-6
520.336	1	8
520.506	1	11
520.676	1	-2
520.846	1	8
521.017	1	-1
521.187	1	0
521.357	1	14
521.527	1	4
521.697	1	5
521.867	1	0
522.037	1	8
522.207	1	8
522.377	1	8
522.548	1	5
522.718	1	10
522.888	1	12
523.058	1	6
523.228	1	12
523.398	1	11
523.568	1	11
523.738	1	-1
523.909	1	12
524.079	1	6
524.249	1	1
524.419	1	0
524.589	1	5
524.759	1	2
524.929	1	2
525.099	1	15
525.269	1	10
525.439	1	2
525.610	1	21
525.780	1	-2
525.950	1	1
526.120	1	7
526.290	1	6
526.460	1	0
526.630	1	7
526.800	1	-5
526.970	1	14
527.140	1	5
527.311	1	-3
527.481	1	-5
527.651	1	12
527.821	1	-3
527.991	1	11
528.161	1	13
528.331	1	0
528.501	1	6
528.671	1	-6
528.841	1	7
529.011	1	-4
529.181	1	10
529.352	1	7
529.522	1	-4
529.692	1	2
529.862	1	3
530.032	1	9
530.202	1	5
530.372	1	3
530.542	1	5
530.712	1	3
530.882	1	6
531.052	1	2
531.222	1	6
531.392	1	2
531.563	1	11
531.733	1	2
531.903	1	8
532.073	1	11
532.243	1	4
532.413	1	2
532.583	1	4
532.753	1	5
532.923	1	0
533.093	1	12
533.263	1	0
533.433	1	4
533.603	1	9
533.773	1	6
533.943	1	-3
534.113	1	7
534.284	1	-3
534.454	1	6
534.624	1	9
534.794	1	-2
534.964	1	9
535.134	1	-4
535.304	1	1
535.474	1	20
535.644	1	-4
535.814	1	1
535.984	1	-10
536.154	1	-4
536.324	1	-6
536.494	1	4
536.664	1	4
536.834	1	8
537.004	1	-1
537.174	1	10
537.344	1	6
537.514	1	6
537.685	1	-2
537.855	1	5
538.025	1	12
538.195	1	14
538.365	1	21
538.535	1	3
538.705	1	1
538.875	1	7
539.045	1	3
539.215	1	3
539.385	1	5
539.555	1	5
539.725	1	-2
539.895	1	1
540.065	1	21
540.235	1	14
540.405	1	2
540.575	1	-3
540.745	1	0
540.915	1	10
541.085	1	0
541.255	1	-3
541.425	1	4
541.595	1	-1
541.765	1	4
541.935	1	-3
542.105	1	0
542.275	1	1
542.445	1	2
542.615	1	0
542.785	1	1
542.955	1	-8
543.125	1	1
543.295	1	3
543.465	1	12
543.635	1	6
543.805	1	19
543.975	1	-3
544.145	1	9
544.315	1	6
544.485	1	10
544.655	1	4
544.825	1	-11
544.995	1	7
545.165	1	-1
545.335	1	14
545.505	1	-4
545.675	1	0
545.845	1	7
546.015	1	-6
546.185	1	-1
546.355	1	7
546.525	1	7
546.695	1	4
546.865	1	-2
547.035	1	4
547.205	1	-5
547.375	1	7
547.545	1	5
547.715	1	-3
547.885	1	5
548.055	1	-6
548.225	1	3
548.395	1	1
548.565	1	-2
548.735	1	-2
548.905	1	1
549.075	1	2
549.245	1	-5
549.415	1	3
549.585	1	9
549.755	1	6
549.925	1	-7
550.095	1	10
550.265	1	-2
550.435	1	-6
550.605	1	-2
550.775	1	2
550.945	1	6
551.115	1	11
551.285	1	12
551.455	1	1
551.625	1	4
551.795	1	10
551.965	1	-2
552.135	1	2
552.305	1	2
552.475	1	-13
552.645	1	0
552.815	1	0
552.985	1	8
553.155	1	2
553.325	1	8
553.495	1	4
553.665	1	-1
553.835	1	2
554.004	1	6
554.174	1	-2
554.344	1	5
554.514	1	0
554.684	1	9
554.854	1	15
555.024	1	0
555.194	1	1
555.364	1	6
555.534	1	-3
555.704	1	-2
555.874	1	10
556.044	1	-1
556.214	1	-1
556.384	1	0
556.554	1	15
556.724	1	12
556.894	1	-4
557.064	1	3
557.234	1	-7
557.404	1	4
557.573	1	3
557.743	1	-5
557.913	1	-4
558.083	1	-4
558.253	1	0
558.423	1	2
558.593	1	10
558.763	1	-1
558.933	1	7
559.103	1	10
559.273	1	0
559.443	1	-4
559.613	1	7
559.783	1	5
559.953	1	4
560.122	1	13
560.292	1	1
560.462	1	6
560.632	1	11
560.802	1	3
560.972	1	-2
561.142	1	5
561.312	1	-4
561.482	1	3
561.652	1	8
561.822	1	9
561.992	1	-2
562.162	1	-2
562.331	1	-4
562.501	1	-8
562.671	1	9
562.841	1	-7
563.011	1	9
563.181	1	7
563.351	1	-2
563.521	1	2
563.691	1	-7
563.861	1	0
564.031	1	8
564.201	1	3
564.370	1	-7
564.540	1	1
564.710	1	1
564.880	1	5
565.050	1	6
565.220	1	-5
565.390	1	7
565.560	1	0
565.730	1	5
565.900	1	0
566.069	1	10
566.239	1	-1
566.409	1	6
566.579	1	16
566.749	1	-2
566.919	1	9
567.089	1	1
567.259	1	12
567.429	1	3
567.599	1	2
567.768	1	4
567.938	1	2
568.108	1	1
568.278	1	6
568.448	1	1
568.618	1	2
568.788	1	1
568.958	1	2
569.128	1	5
569.297	1	-1
569.467	1	-6
569.637	1	19
569.807	1	1
569.977	1	-1
570.147	1	4
570.317	1	-6
570.487	1	7
570.656	1	-2
570.826	1	2
570.996	1	1
571.166	1	10
571.336	1	-1
571.506	1	7
571.676	1	10
571.846	1	8
572.015	1	12
572.185	1	-4
572.355	1	1
572.525	1	4
572.695	1	-1
572.865	1	-4
573.035	1	7
573.205	1	8
573.374	1	-5
573.544	1	-1
573.714	1	16
573.884	1	6
574.054	1	3
574.224	1	-7
574.394	1	-1
574.563	1	0
574.733	1	1
574.903	1	-1
575.073	1	6
575.243	1	-7
575.413	1	7
575.583	1	-2
575.752	1	4
575.922	1	1
576.092	1	2
576.262	1	7
576.432	1	11
576.602	1	-8
576.772	1	10
576.941	1	6
577.111	1	-8
577.281	1	1
577.451	1	-4
577.621	1	4
577.791	1	2
577.960	1	-5
578.130	1	4
578.300	1	1
578.470	1	14
578.640	1	-1
578.810	1	7
578.979	1	7
579.149	1	6
579.319	1	-3
579.489	1	-12
579.659	1	3
579.829	1	10
579.998	1	10
580.168	1	16
580.338	1	10
580.508	1	6
580.678	1	5
580.848	1	9
581.017	1	3
581.187	1	6
581.357	1	-8
581.527	1	8
581.697	1	10
581.867	1	8
582.036	1	-4
582.206	1	5
582.376	1	12
582.546	1	-3
582.716	1	-2
582.885	1	-3
583.055	1	-3
583.225	1	-14
583.395	1	5
583.565	1	3
583.735	1	5
583.904	1	-2
584.074	1	-1
584.244	1	13
584.414	1	0
584.584	1	3
584.753	1	-11
584.923	1	4
585.093	1	2
585.263	1	5
585.433	1	-3
585.602	1	-7
585.772	1	3
585.942	1	6
586.112	1	6
586.282	1	-4
586.451	1	-9
586.621	1	-9
586.791	1	3
586.961	1	-1
587.131	1	7
587.300	1	4
587.470	1	14
587.640	1	4
587.810	1	-3
587.980	1	5
588.149	1	5
588.319	1	-4
588.489	1	-3
588.659	1	2
588.829	1	-3
588.998	1	6
589.168	1	9
589.338	1	2
589.508	1	5
589.677	1	0
589.847	1	-1
590.017	1	14
590.187	1	-4
590.357	1	8
590.526	1	11
590.696	1	12
590.866	1	8
591.036	1	2
591.205	1	11
591.375	1	1
591.545	1	-5
591.715	1	2
591.885	1	5
592.054	1	7
592.224	1	-1
592.394	1	2
592.564	1	7
592.733	1	2
592.903	1	3
593.073	1	-7
593.243	1	2
593.412	1	13
593.582	1	-7
593.752	1	8
593.922	1	6
594.091	1	3
594.261	1	-1
594.431	1	4
594.601	1	6
594.771	1	7
594.940	1	-1
595.110	1	1
595.280	1	-4
595.450	1	-7
595.619	1	-1
595.789	1	-1
595.959	1	-2
596.129	1	4
596.298	1	3
596.468	1	4
596.638	1	4
596.808	1	-2
596.977	1	1
597.147	1	1
597.317	1	-7
597.487	1	3
597.656	1	7
597.826	1	2
597.996	1	2
598.166	1	3
598.335	1	-4
598.505	1	0
598.675	1	-5
598.844	1	-2
599.014	1	0
599.184	1	11
599.354	1	-7
599.523	1	9
599.693	1	-11
599.863	1	13
600.033	1	0
600.202	1	7
600.372	1	6
600.542	1	18
600.712	1	-6
600.881	1	4
601.051	1	10
601.221	1	14
601.390	1	-3
601.560	1	2
601.730	1	-7
601.900	1	1
602.069	1	5
602.239	1	-5
602.409	1	-3
602.578	1	12
602.748	1	4
602.918	1	13
603.088	1	10
603.257	1	7
603.427	1	-4
603.597	1	4
603.767	1	4
603.936	1	1
604.106	1	1
604.276	1	9
604.445	1	7
604.615	1	-3
604.785	1	-4
604.954	1	8
605.124	1	11
605.294	1	-8
605.464	1	-9
605.633	1	8
605.803	1	1
605.973	1	1
606.142	1	2
606.312	1	12
606.482	1	-1
606.652	1	2
606.821	1	-2
606.991	1	0
607.161	1	-2
607.330	1	7
607.500	1	9
607.670	1	-16
607.839	1	4
608.009	1	9
608.179	1	-1
608.348	1	-5
608.518	1	8
608.688	1	7
608.858	1	2
609.027	1	-7
609.197	1	8
609.367	1	16
609.536	1	-1
609.706	1	0
609.876	1	2
610.045	1	-4
610.215	1	6
610.385	1	0
610.554	1	6
610.724	1	8
610.894	1	-3
611.063	1	5
611.233	1	-2
611.403	1	-2
611.572	1	-1
611.742	1	4
611.912	1	-1
612.081	1	-5
612.251	1	7
612.421	1	-7
612.590	1	0
612.760	1	-3
612.930	1	5
613.099	1	2
613.269	1	11
613.439	1	-12
613.608	1	-7
613.778	1	-2
613.948	1	0
614.117	1	16
614.287	1	10
614.457	1	0
614.626	1	1
614.796	1	1
614.966	1	6
615.135	1	-3
615.305	1	7
615.475	1	4
615.644	1	2
615.814	1	10
615.984	1	3
616.153	1	-7
616.323	1	-2
616.493	1	1
616.662	1	10
616.832	1	9
617.002	1	-2
617.171	1	6
617.341	1	3
617.511	1	0
617.680	1	0
617.850	1	3
618.019	1	13
618.189	1	5
618.359	1	4
618.528	1	-3
618.698	1	8
618.868	1	0
619.037	1	3
619.207	1	-4
619.377	1	1
619.546	1	3
619.716	1	-1
619.885	1	9
620.055	1	-6
620.225	1	6
620.394	1	-6
620.564	1	7
620.734	1	-1
620.903	1	-5
621.073	1	11
621.242	1	1
621.412	1	3
621.582	1	2
621.751	1	9
621.921	1	2
622.091	1	0
622.260	1	-3
622.430	1	6
622.599	1	-5
622.769	1	10
622.939	1	9
623.108	1	0
623.278	1	1
623.448	1	-2
623.617	1	-9
623.787	1	-3
623.956	1	15
624.126	1	-6
624.296	1	4
624.465	1	1
624.635	1	15
624.804	1	8
624.974	1	12
625.144	1	10
625.313	1	2
625.483	1	-4
625.652	1	-1
625.822	1	-6
625.992	1	1
626.161	1	8
626.331	1	1
626.501	1	-2
626.670	1	3
626.840	1	7
627.009	1	-1
627.179	1	9
627.348	1	12
627.518	1	2
627.688	1	3
627.857	1	9
628.027	1	6
628.196	1	12
628.366	1	7
628.536	1	9
628.705	1	-1
628.875	1	10
629.044	1	-2
629.214	1	8
629.384	1	7
629.553	1	7
629.723	1	7
629.892	1	5
630.062	1	7
630.232	1	0
630.401	1	5
630.571	1	-2
630.740	1	-3
630.910	1	5
631.079	1	6
631.249	1	4
631.419	1	7
631.588	1	-5
631.758	1	1
631.927	1	1
632.097	1	3
632.266	1	-1
632.436	1	2
632.606	1	-3
632.775	1	9
632.945	1	6
633.114	1	11
633.284	1	9
633.453	1	8
633.623	1	1
633.793	1	3
633.962	1	-2
634.132	1	4
634.301	1	6
634.471	1	16
634.640	1	4
634.810	1	7
634.979	1	4
635.149	1	3
635.319	1	7
635.488	1	8
635.658	1	7
635.827	1	-1
635.997	1	-5
636.166	1	0
636.336	1	0
636.505	1	17
636.675	1	3
636.845	1	3
637.014	1	10
637.184	1	9
637.353	1	5
637.523	1	2
637.692	1	3
637.862	1	-10
638.031	1	6
638.201	1	9
638.370	1	-1
638.540	1	6
638.710	1	5
638.879	1	-6
639.049	1	10
639.218	1	8
639.388	1	-6
639.557	1	1
639.727	1	9
639.896	1	3
640.066	1	-2
640.235	1	8
640.405	1	5
640.574	1	5
640.744	1	6
640.914	1	0
641.083	1	-6
641.253	1	-2
641.422	1	-1
641.592	1	14
641.761	1	-3
641.931	1	2
642.100	1	15
642.270	1	-1
642.439	1	13
642.609	1	13
642.778	1	1
642.948	1	3
643.117	1	5
643.287	1	6
643.456	1	-2
643.626	1	15
643.795	1	1
643.965	1	2
644.134	1	0
644.304	1	5
644.473	1	12
644.643	1	5
644.812	1	-1
644.982	1	7
645.151	1	11
645.321	1	-2
645.490	1	13
645.660	1	-3
645.829	1	-9
645.999	1	6
646.168	1	10
646.338	1	9
646.507	1	-5
646.677	1	4
646.846	1	1
647.016	1	-4
647.185	1	10
647.355	1	-15
647.524	1	8
647.694	1	3
647.863	1	15
648.033	1	3
648.202	1	-3
648.372	1	-4
648.541	1	-6
648.711	1	2
648.880	1	-2
649.050	1	-4
649.219	1	9
649.389	1	14
649.558	1	6
649.728	1	4
649.897	1	0
650.067	1	6
650.236	1	1
650.406	1	12
650.575	1	5
650.745	1	12
650.914	1	2
651.084	1	8
651.253	1	3
651.423	1	7
651.592	1	0
651.762	1	-7
651.931	1	5
652.101	1	0
652.270	1	10
652.440	1	7
652.609	1	-2
652.778	1	-3
652.948	1	5
653.117	1	-1
653.287	1	2
653.456	1	4
653.626	1	9
653.795	1	6
653.965	1	2
654.134	1	11
654.304	1	-12
654.473	1	8
654.643	1	9
654.812	1	2
654.982	1	4
655.151	1	-8
655.320	1	1
655.490	1	-3
655.659	1	5
655.829	1	1
655.998	1	-2
656.168	1	2
656.337	1	7
656.507	1	8
656.676	1	5
656.846	1	8
657.015	1	4
657.184	1	9
657.354	1	4
657.523	1	4
657.693	1	19
657.862	1	-2
658.032	1	2
658.201	1	10
658.371	1	8
658.540	1	-1
658.709	1	3
658.879	1	10
659.048	1	2
659.218	1	-1
659.387	1	3
659.557	1	2
659.726	1	9
659.895	1	1
660.065	1	5
660.234	1	2
660.404	1	6
660.573	1	-1
660.743	1	3
660.912	1	11
661.081	1	4
661.251	1	7
661.420	1	2
661.590	1	3
661.759	1	7
661.929	1	13
662.098	1	13
662.267	1	-4
662.437	1	7
662.606	1	3
662.776	1	-5
662.945	1	10
663.115	1	7
663.284	1	-2
663.453	1	1
663.623	1	4
663.792	1	4
663.962	1	-2
664.131	1	-4
664.300	1	8
664.470	1	5
664.639	1	0
664.809	1	-2
664.978	1	10
665.148	1	11
665.317	1	0
665.486	1	16
665.656	1	-4
665.825	1	13
665.995	1	-3
666.164	1	2
666.333	1	5
666.503	1	-2
666.672	1	1
666.842	1	0
667.011	1	1
667.180	1	8
667.350	1	15
667.519	1	9
667.689	1	15
667.858	1	14
668.027	1	10
668.197	1	2
668.366	1	-11
668.536	1	-4
668.705	1	6
668.874	1	3
669.044	1	1
669.213	1	8
669.382	1	6
669.552	1	10
669.721	1	13
669.891	1	10
670.060	1	8
670.229	1	13
670.399	1	3
670.568	1	4
670.738	1	13
670.907	1	-3
671.076	1	2
671.246	1	3
671.415	1	2
671.584	1	7
671.754	1	4
671.923	1	0
672.093	1	8
672.262	1	2
672.431	1	3
672.601	1	1
672.770	1	-2
672.939	1	18
673.109	1	3
673.278	1	10
673.448	1	11
673.617	1	1
673.786	1	3
