325.333	1	4
325.504	1	0
325.675	1	9
325.846	1	2
326.017	1	-8
326.188	1	7
326.359	1	2
326.531	1	-1
326.702	1	2
326.873	1	4
327.044	1	0
327.215	1	5
327.386	1	12
327.557	1	3
327.728	1	7
327.899	1	13
328.070	1	15
328.241	1	15
328.412	1	-9
328.583	1	4
328.754	1	-1
328.926	1	8
329.097	1	-5
329.268	1	13
329.439	1	5
329.610	1	15
329.781	1	-3
329.952	1	14
330.123	1	4
330.294	1	3
330.465	1	2
330.636	1	18
330.807	1	-3
330.978	1	3
331.149	1	6
331.320	1	4
331.492	1	3
331.663	1	9
331.834	1	14
332.005	1	0
332.176	1	18
332.347	1	11
332.518	1	-10
332.689	1	8
332.860	1	0
333.031	1	16
333.202	1	7
333.373	1	5
333.544	1	11
333.715	1	5
333.886	1	1
334.057	1	6
334.228	1	-2
334.399	1	4
334.570	1	16
334.741	1	2
334.912	1	10
335.084	1	22
335.255	1	5
335.426	1	0
335.597	1	3
335.768	1	-1
335.939	1	11
336.110	1	3
336.281	1	-5
336.452	1	1
336.623	1	12
336.794	1	9
336.965	1	1
337.136	1	12
337.307	1	4
337.478	1	2
337.649	1	8
337.820	1	3
337.991	1	10
338.162	1	9
338.333	1	0
338.504	1	11
338.675	1	7
338.846	1	9
339.017	1	1
339.188	1	-8
339.359	1	-2
339.530	1	-4
339.701	1	22
339.872	1	20
340.043	1	8
340.214	1	5
340.385	1	18
340.556	1	4
340.727	1	11
340.898	1	8
341.069	1	12
341.240	1	0
341.411	1	11
341.582	1	11
341.753	1	-1
341.924	1	6
342.095	1	8
342.266	1	20
342.437	1	13
342.608	1	1
342.779	1	15
342.950	1	4
343.121	1	17
343.292	1	4
343.463	1	13
343.634	1	17
343.805	1	8
343.976	1	17
344.147	1	14
344.318	1	5
344.489	1	9
344.660	1	12
344.831	1	6
345.002	1	-2
345.173	1	13
345.344	1	12
345.515	1	11
345.686	1	12
345.857	1	8
346.028	1	9
346.199	1	4
346.370	1	17
346.541	1	10
346.712	1	8
346.883	1	15
347.054	1	10
347.225	1	12
347.396	1	9
347.567	1	13
347.738	1	2
347.909	1	22
348.080	1	12
348.251	1	13
348.422	1	16
348.593	1	13
348.764	1	7
348.935	1	13
349.106	1	-1
349.277	1	9
349.448	1	24
349.619	1	11
349.790	1	11
349.961	1	12
350.132	1	16
350.303	1	9
350.474	1	19
350.645	1	14
350.816	1	16
350.987	1	16
351.157	1	5
351.328	1	12
351.499	1	14
351.670	1	11
351.841	1	31
352.012	1	27
352.183	1	27
352.354	1	16
352.525	1	17
352.696	1	25
352.867	1	9
353.038	1	17
353.209	1	22
353.380	1	4
353.551	1	7
353.722	1	18
353.893	1	14
354.064	1	22
354.235	1	9
354.406	1	18
354.576	1	18
354.747	1	6
354.918	1	21
355.089	1	19
355.260	1	23
355.431	1	21
355.602	1	8
355.773	1	23
355.944	1	28
356.115	1	11
356.286	1	13
356.457	1	19
356.628	1	14
356.799	1	20
356.970	1	24
357.141	1	12
357.311	1	14
357.482	1	19
357.653	1	18
357.824	1	21
357.995	1	19
358.166	1	2
358.337	1	19
358.508	1	28
358.679	1	23
358.850	1	18
359.021	1	12
359.192	1	13
359.363	1	18
359.533	1	11
359.704	1	17
359.875	1	12
360.046	1	15
360.217	1	10
360.388	1	15
360.559	1	15
360.730	1	31
360.901	1	21
361.072	1	28
361.243	1	23
361.414	1	10
361.584	1	19
361.755	1	19
361.926	1	12
362.097	1	7
362.268	1	15
362.439	1	11
362.610	1	30
362.781	1	17
362.952	1	7
363.123	1	16
363.293	1	6
363.464	1	16
363.635	1	15
363.806	1	19
363.977	1	15
364.148	1	15
364.319	1	22
364.490	1	24
364.661	1	16
364.832	1	27
365.002	1	22
365.173	1	23
365.344	1	34
365.515	1	16
365.686	1	9
365.857	1	12
366.028	1	25
366.199	1	22
366.370	1	22
366.540	1	12
366.711	1	2
366.882	1	10
367.053	1	8
367.224	1	39
367.395	1	18
367.566	1	28
367.737	1	22
367.908	1	28
368.078	1	21
368.249	1	27
368.420	1	14
368.591	1	15
368.762	1	22
368.933	1	14
369.104	1	9
369.274	1	19
369.445	1	18
369.616	1	14
369.787	1	24
369.958	1	28
370.129	1	13
370.300	1	22
370.471	1	12
370.641	1	12
370.812	1	21
370.983	1	16
371.154	1	17
371.325	1	25
371.496	1	24
371.667	1	26
371.837	1	14
372.008	1	25
372.179	1	14
372.350	1	24
372.521	1	16
372.692	1	25
372.863	1	24
373.033	1	11
373.204	1	21
373.375	1	16
373.546	1	27
373.717	1	27
373.888	1	26
374.059	1	33
374.229	1	22
374.400	1	23
374.571	1	15
374.742	1	24
374.913	1	27
375.084	1	21
375.254	1	26
375.425	1	24
375.596	1	21
375.767	1	13
375.938	1	26
376.109	1	29
376.279	1	10
376.450	1	27
376.621	1	32
376.792	1	26
376.963	1	26
377.134	1	21
377.304	1	25
377.475	1	19
377.646	1	16
377.817	1	17
377.988	1	23
378.159	1	28
378.329	1	34
378.500	1	20
378.671	1	26
378.842	1	13
379.013	1	16
379.184	1	15
379.354	1	28
379.525	1	22
379.696	1	26
379.867	1	23
380.038	1	17
380.209	1	25
380.379	1	14
380.550	1	8
380.721	1	23
380.892	1	24
381.063	1	25
381.233	1	25
381.404	1	25
381.575	1	37
381.746	1	21
381.917	1	20
382.087	1	35
382.258	1	22
382.429	1	21
382.600	1	30
382.771	1	12
382.941	1	21
383.112	1	28
383.283	1	34
383.454	1	23
383.625	1	13
383.795	1	27
383.966	1	25
384.137	1	32
384.308	1	23
384.479	1	38
384.649	1	29
384.820	1	24
384.991	1	30
385.162	1	22
385.333	1	25
385.503	1	19
385.674	1	10
385.845	1	30
386.016	1	25
386.187	1	28
386.357	1	33
386.528	1	23
386.699	1	18
386.870	1	29
387.041	1	34
387.211	1	28
387.382	1	31
387.553	1	36
387.724	1	23
387.894	1	31
388.065	1	24
388.236	1	32
388.407	1	21
388.578	1	18
388.748	1	30
388.919	1	42
389.090	1	26
389.261	1	29
389.431	1	35
389.602	1	26
389.773	1	27
389.944	1	38
390.114	1	25
390.285	1	28
390.456	1	14
390.627	1	23
390.798	1	28
390.968	1	33
391.139	1	40
391.310	1	25
391.481	1	38
391.651	1	30
391.822	1	19
391.993	1	27
392.164	1	17
392.334	1	24
392.505	1	26
392.676	1	32
392.847	1	33
393.017	1	40
393.188	1	31
393.359	1	16
393.530	1	29
393.700	1	31
393.871	1	31
394.042	1	23
394.213	1	28
394.383	1	29
394.554	1	25
394.725	1	40
394.896	1	23
395.066	1	37
395.237	1	28
395.408	1	30
395.579	1	31
395.749	1	42
395.920	1	29
396.091	1	31
396.262	1	37
396.432	1	27
396.603	1	35
396.774	1	57
396.945	1	28
397.115	1	28
397.286	1	28
397.457	1	25
397.627	1	14
397.798	1	36
397.969	1	30
398.140	1	23
398.310	1	36
398.481	1	35
398.652	1	24
398.823	1	26
398.993	1	33
399.164	1	27
399.335	1	48
399.505	1	29
399.676	1	30
399.847	1	27
400.018	1	31
400.188	1	37
400.359	1	28
400.530	1	35
400.700	1	36
400.871	1	26
401.042	1	37
401.213	1	34
401.383	1	35
401.554	1	42
401.725	1	36
401.895	1	31
402.066	1	39
402.237	1	40
402.408	1	39
402.578	1	43
402.749	1	44
402.920	1	40
403.090	1	32
403.261	1	32
403.432	1	32
403.603	1	43
403.773	1	43
403.944	1	49
404.115	1	44
404.285	1	41
404.456	1	43
404.627	1	36
404.797	1	16
404.968	1	21
405.139	1	27
405.310	1	38
405.480	1	30
405.651	1	34
405.822	1	28
405.992	1	28
406.163	1	33
406.334	1	21
406.504	1	37
406.675	1	50
406.846	1	37
407.016	1	38
407.187	1	45
407.358	1	33
407.528	1	31
407.699	1	27
407.870	1	35
408.041	1	37
408.211	1	43
408.382	1	28
408.553	1	26
408.723	1	42
408.894	1	42
409.065	1	40
409.235	1	30
409.406	1	32
409.577	1	30
409.747	1	44
409.918	1	38
410.089	1	32
410.259	1	34
410.430	1	28
410.601	1	40
410.771	1	41
410.942	1	48
411.113	1	33
411.283	1	36
411.454	1	41
411.625	1	41
411.795	1	36
411.966	1	40
412.137	1	32
412.307	1	31
412.478	1	37
412.649	1	43
412.819	1	28
412.990	1	31
413.161	1	39
413.331	1	28
413.502	1	46
413.672	1	30
413.843	1	43
414.014	1	35
414.184	1	38
414.355	1	29
414.526	1	39
414.696	1	50
414.867	1	29
415.038	1	35
415.208	1	35
415.379	1	39
415.550	1	45
415.720	1	31
415.891	1	29
416.062	1	36
416.232	1	28
416.403	1	42
416.573	1	38
416.744	1	27
416.915	1	39
417.085	1	33
417.256	1	33
417.427	1	31
417.597	1	39
417.768	1	33
417.939	1	46
418.109	1	34
418.280	1	40
418.450	1	33
418.621	1	33
418.792	1	36
418.962	1	45
419.133	1	42
419.304	1	24
419.474	1	24
419.645	1	36
419.815	1	22
419.986	1	43
420.157	1	38
420.327	1	28
420.498	1	35
420.669	1	37
420.839	1	40
421.010	1	33
421.180	1	41
421.351	1	29
421.522	1	34
421.692	1	31
421.863	1	39
422.033	1	42
422.204	1	42
422.375	1	34
422.545	1	47
422.716	1	33
422.886	1	24
423.057	1	38
423.228	1	33
423.398	1	32
423.569	1	39
423.740	1	26
423.910	1	30
424.081	1	33
424.251	1	27
424.422	1	45
424.593	1	27
424.763	1	45
424.934	1	29
425.104	1	32
425.275	1	31
425.445	1	25
425.616	1	33
425.787	1	30
425.957	1	31
426.128	1	36
426.298	1	37
426.469	1	17
426.640	1	38
426.810	1	43
426.981	1	25
427.151	1	33
427.322	1	41
427.493	1	21
427.663	1	36
427.834	1	36
428.004	1	25
428.175	1	34
428.345	1	39
428.516	1	22
428.687	1	38
428.857	1	30
429.028	1	32
429.198	1	39
429.369	1	35
429.540	1	27
429.710	1	18
429.881	1	39
430.051	1	23
430.222	1	26
430.392	1	30
430.563	1	45
430.734	1	33
430.904	1	45
431.075	1	34
431.245	1	31
431.416	1	34
431.586	1	25
431.757	1	41
431.927	1	30
432.098	1	29
432.269	1	29
432.439	1	37
432.610	1	23
432.780	1	43
432.951	1	28
433.121	1	26
433.292	1	45
433.462	1	37
433.633	1	33
433.804	1	32
433.974	1	35
434.145	1	49
434.315	1	31
434.486	1	33
434.656	1	42
434.827	1	29
434.997	1	16
435.168	1	43
435.339	1	29
435.509	1	25
435.680	1	42
435.850	1	29
436.021	1	24
436.191	1	33
436.362	1	38
436.532	1	31
436.703	1	34
436.873	1	28
437.044	1	22
437.214	1	26
437.385	1	26
437.556	1	28
437.726	1	43
437.897	1	31
438.067	1	31
438.238	1	32
438.408	1	23
438.579	1	35
438.749	1	38
438.920	1	17
439.090	1	32
439.261	1	30
439.431	1	24
439.602	1	28
439.772	1	34
439.943	1	32
440.113	1	26
440.284	1	26
440.455	1	25
440.625	1	26
440.796	1	24
440.966	1	29
441.137	1	27
441.307	1	13
441.478	1	33
441.648	1	34
441.819	1	17
441.989	1	18
442.160	1	39
442.330	1	23
442.501	1	29
442.671	1	23
442.842	1	13
443.012	1	16
443.183	1	33
443.353	1	17
443.524	1	31
443.694	1	35
443.865	1	27
444.035	1	32
444.206	1	21
444.376	1	24
444.547	1	33
444.717	1	26
444.888	1	26
445.058	1	33
445.229	1	24
445.399	1	19
445.570	1	27
445.740	1	15
445.911	1	16
446.081	1	17
446.252	1	33
446.422	1	23
446.593	1	23
446.763	1	19
446.934	1	18
447.104	1	21
447.275	1	20
447.445	1	30
447.616	1	29
447.786	1	24
447.957	1	22
448.127	1	24
448.298	1	19
448.468	1	9
448.639	1	17
448.809	1	25
448.979	1	24
449.150	1	25
449.320	1	25
449.491	1	27
449.661	1	14
449.832	1	23
450.002	1	27
450.173	1	28
450.343	1	28
450.514	1	24
450.684	1	22
450.855	1	19
451.025	1	30
451.196	1	20
451.366	1	19
451.537	1	12
451.707	1	15
451.878	1	11
452.048	1	33
452.218	1	30
452.389	1	31
452.559	1	22
452.730	1	32
452.900	1	33
453.071	1	10
453.241	1	15
453.412	1	6
453.582	1	23
453.753	1	17
453.923	1	27
454.093	1	26
454.264	1	33
454.434	1	23
454.605	1	19
454.775	1	21
454.946	1	14
455.116	1	18
455.287	1	11
455.457	1	15
455.628	1	19
455.798	1	28
455.968	1	26
456.139	1	23
456.309	1	21
456.480	1	15
456.650	1	20
456.821	1	12
456.991	1	29
457.161	1	20
457.332	1	22
457.502	1	7
457.673	1	19
457.843	1	24
458.014	1	19
458.184	1	23
458.355	1	19
458.525	1	17
458.695	1	22
458.866	1	8
459.036	1	28
459.207	1	20
459.377	1	12
459.548	1	22
459.718	1	17
459.888	1	25
460.059	1	25
460.229	1	16
460.400	1	33
460.570	1	18
460.740	1	16
460.911	1	21
461.081	1	21
461.252	1	18
461.422	1	16
461.593	1	21
461.763	1	26
461.933	1	25
462.104	1	11
462.274	1	24
462.445	1	24
462.615	1	26
462.785	1	9
462.956	1	19
463.126	1	26
463.297	1	12
463.467	1	28
463.638	1	25
463.808	1	12
463.978	1	6
464.149	1	17
464.319	1	20
464.490	1	31
464.660	1	16
464.830	1	12
465.001	1	19
465.171	1	18
465.342	1	20
465.512	1	9
465.682	1	9
465.853	1	29
466.023	1	20
466.194	1	18
466.364	1	20
466.534	1	21
466.705	1	19
466.875	1	9
467.045	1	15
467.216	1	29
467.386	1	12
467.557	1	16
467.727	1	12
467.897	1	14
468.068	1	16
468.238	1	18
468.409	1	21
468.579	1	30
468.749	1	17
468.920	1	6
469.090	1	12
469.260	1	10
469.431	1	10
469.601	1	20
469.772	1	21
469.942	1	12
470.112	1	19
470.283	1	10
470.453	1	21
470.623	1	21
470.794	1	-2
470.964	1	16
471.135	1	27
471.305	1	5
471.475	1	18
471.646	1	16
471.816	1	7
471.986	1	29
472.157	1	27
472.327	1	1
472.497	1	26
472.668	1	6
472.838	1	12
473.009	1	14
473.179	1	11
473.349	1	12
473.520	1	27
473.690	1	18
473.860	1	17
474.031	1	17
474.201	1	4
474.371	1	11
474.542	1	16
474.712	1	18
474.882	1	16
475.053	1	15
475.223	1	3
475.394	1	18
475.564	1	19
475.734	1	15
475.905	1	21
476.075	1	11
476.245	1	22
476.416	1	35
476.586	1	13
476.756	1	11
476.927	1	15
477.097	1	19
477.267	1	9
477.438	1	14
477.608	1	12
477.778	1	24
477.949	1	16
478.119	1	22
478.289	1	24
478.460	1	12
478.630	1	15
478.800	1	12
478.971	1	20
479.141	1	9
479.311	1	6
479.482	1	6
479.652	1	3
479.822	1	17
479.993	1	23
480.163	1	24
480.333	1	14
480.504	1	21
480.674	1	22
480.844	1	8
481.015	1	23
481.185	1	10
481.355	1	21
481.525	1	14
481.696	1	14
481.866	1	17
482.036	1	13
482.207	1	9
482.377	1	18
482.547	1	25
482.718	1	7
482.888	1	15
483.058	1	6
483.229	1	2
483.399	1	12
483.569	1	21
483.740	1	18
483.910	1	21
484.080	1	10
484.250	1	24
484.421	1	12
484.591	1	17
484.761	1	22
484.932	1	24
485.102	1	22
485.272	1	14
485.443	1	22
485.613	1	19
485.783	1	3
485.953	1	10
486.124	1	12
486.294	1	21
486.464	1	10
486.635	1	23
486.805	1	15
486.975	1	18
487.146	1	11
487.316	1	8
487.486	1	14
487.656	1	5
487.827	1	13
487.997	1	5
488.167	1	8
488.338	1	17
488.508	1	6
488.678	1	12
488.848	1	19
489.019	1	16
489.189	1	18
489.359	1	3
489.529	1	6
489.700	1	16
489.870	1	20
490.040	1	5
490.211	1	4
490.381	1	15
490.551	1	18
490.721	1	15
490.892	1	4
491.062	1	12
491.232	1	19
491.402	1	0
491.573	1	1
491.743	1	7
491.913	1	2
492.084	1	12
492.254	1	7
492.424	1	8
492.594	1	15
492.765	1	9
492.935	1	9
493.105	1	7
493.275	1	12
493.446	1	20
493.616	1	11
493.786	1	7
493.956	1	11
494.127	1	16
494.297	1	-3
494.467	1	9
494.637	1	8
494.808	1	9
494.978	1	2
495.148	1	1
495.318	1	10
495.489	1	13
495.659	1	12
495.829	1	10
495.999	1	7
496.170	1	17
496.340	1	17
496.510	1	10
496.680	1	0
496.851	1	6
497.021	1	10
497.191	1	8
497.361	1	13
497.532	1	0
497.702	1	22
497.872	1	11
498.042	1	17
498.213	1	0
498.383	1	8
498.553	1	3
498.723	1	11
498.894	1	17
499.064	1	11
499.234	1	7
499.404	1	14
499.574	1	13
499.745	1	22
499.915	1	7
500.085	1	12
500.255	1	10
500.426	1	5
500.596	1	17
500.766	1	5
500.936	1	9
501.106	1	7
501.277	1	10
501.447	1	15
501.617	1	15
501.787	1	7
501.958	1	4
502.128	1	11
502.298	1	-1
502.468	1	21
502.638	1	7
502.809	1	7
502.979	1	-5
503.149	1	0
503.319	1	2
503.489	1	10
503.660	1	21
503.830	1	5
504.000	1	17
504.170	1	17
504.340	1	1
504.511	1	15
504.681	1	12
504.851	1	-4
505.021	1	13
505.192	1	3
505.362	1	13
505.532	1	7
505.702	1	14
505.872	1	19
506.043	1	11
506.213	1	4
506.383	1	7
506.553	1	17
506.723	1	18
506.893	1	6
507.064	1	13
507.234	1	5
507.404	1	7
507.574	1	11
507.744	1	7
507.915	1	5
508.085	1	15
508.255	1	8
508.425	1	2
508.595	1	16
508.766	1	17
508.936	1	2
509.106	1	16
509.276	1	11
509.446	1	6
509.616	1	14
509.787	1	10
509.957	1	5
510.127	1	10
510.297	1	-8
510.467	1	-2
510.638	1	13
510.808	1	8
510.978	1	6
511.148	1	9
511.318	1	13
511.488	1	-5
511.659	1	2
511.829	1	3
511.999	1	9
512.169	1	4
512.339	1	6
512.509	1	8
512.680	1	7
512.850	1	3
513.020	1	15
513.190	1	10
513.360	1	2
513.530	1	0
513.700	1	12
513.871	1	2
514.041	1	8
514.211	1	13
514.381	1	14
514.551	1	5
514.721	1	10
514.892	1	10
515.062	1	3
515.232	1	4
515.402	1	1
515.572	1	6
515.742	1	9
515.912	1	13
516.083	1	5
516.253	1	12
516.423	1	0
516.593	1	-1
516.763	1	22
516.933	1	2
517.104	1	-1
517.274	1	6
517.444	1	2
517.614	1	7
517.784	1	12
517.954	1	12
518.124	1	13
518.294	1	2
518.465	1	-7
518.635	1	2
518.805	1	-8
518.975	1	-2
519.145	1	4
519.315	1	4
519.485	1	6
519.656	1	10
519.826	1	3
519.996	1	1
520.166	1	11
520.336	1	17
520.506	1	5
520.676	1	-2
520.846	1	10
521.017	1	4
521.187	1	3
521.357	1	19
521.527	1	2
521.697	1	5
521.867	1	6
522.037	1	18
522.207	1	9
522.377	1	7
522.548	1	7
522.718	1	11
522.888	1	9
523.058	1	2
523.228	1	8
523.398	1	11
523.568	1	11
523.738	1	9
523.909	1	14
524.079	1	-2
524.249	1	6
524.419	1	6
524.589	1	5
524.759	1	-2
524.929	1	2
525.099	1	7
525.269	1	14
525.439	1	7
525.610	1	15
525.780	1	0
525.950	1	8
526.120	1	2
526.290	1	10
526.460	1	-2
526.630	1	3
526.800	1	-8
526.970	1	4
527.140	1	15
527.311	1	-10
527.481	1	-3
527.651	1	7
527.821	1	-3
527.991	1	11
528.161	1	12
528.331	1	-1
528.501	1	10
528.671	1	-7
528.841	1	11
529.011	1	9
529.181	1	7
529.352	1	0
529.522	1	-4
529.692	1	6
529.862	1	2
530.032	1	9
530.202	1	2
530.372	1	1
530.542	1	10
530.712	1	5
530.882	1	4
531.052	1	9
531.222	1	3
531.392	1	-1
531.563	1	9
531.733	1	10
531.903	1	5
532.073	1	16
532.243	1	-1
532.413	1	4
532.583	1	5
532.753	1	7
532.923	1	-6
533.093	1	2
533.263	1	4
533.433	1	6
533.603	1	15
533.773	1	-2
533.943	1	9
534.113	1	5
534.284	1	5
534.454	1	7
534.624	1	14
534.794	1	-5
534.964	1	8
535.134	1	1
535.304	1	11
535.474	1	13
535.644	1	-8
535.814	1	-1
535.984	1	-2
536.154	1	-4
536.324	1	-1
536.494	1	8
536.664	1	10
536.834	1	0
537.004	1	10
537.174	1	11
537.344	1	9
537.514	1	-12
537.685	1	9
537.855	1	6
538.025	1	-8
538.195	1	-1
538.365	1	14
538.535	1	1
538.705	1	2
538.875	1	6
539.045	1	13
539.215	1	4
539.385	1	6
539.555	1	8
539.725	1	7
539.895	1	-2
540.065	1	15
540.235	1	8
540.405	1	0
540.575	1	-8
540.745	1	4
540.915	1	8
541.085	1	9
541.255	1	-3
541.425	1	15
541.595	1	4
541.765	1	2
541.935	1	-4
542.105	1	-10
542.275	1	0
542.445	1	1
542.615	1	3
542.785	1	16
542.955	1	10
543.125	1	9
543.295	1	9
543.465	1	7
543.635	1	11
543.805	1	19
543.975	1	3
544.145	1	5
544.315	1	12
544.485	1	11
544.655	1	14
544.825	1	-8
544.995	1	8
545.165	1	-11
545.335	1	4
545.505	1	-3
545.675	1	2
545.845	1	15
546.015	1	11
546.185	1	10
546.355	1	2
546.525	1	6
546.695	1	3
546.865	1	-2
547.035	1	-1
547.205	1	5
547.375	1	2
547.545	1	6
547.715	1	1
547.885	1	7
548.055	1	3
548.225	1	-2
548.395	1	2
548.565	1	14
548.735	1	-5
548.905	1	3
549.075	1	9
549.245	1	4
549.415	1	-6
549.585	1	5
549.755	1	12
549.925	1	-1
550.095	1	4
550.265	1	4
550.435	1	3
550.605	1	-9
550.775	1	12
550.945	1	11
551.115	1	2
551.285	1	6
551.455	1	-4
551.625	1	11
551.795	1	6
551.965	1	2
552.135	1	-2
552.305	1	0
552.475	1	-8
552.645	1	-1
552.815	1	-5
552.985	1	6
553.155	1	10
553.325	1	4
553.495	1	3
553.665	1	4
553.835	1	7
554.004	1	6
554.174	1	-3
554.344	1	8
554.514	1	1
554.684	1	13
554.854	1	3
555.024	1	4
555.194	1	-11
555.364	1	11
555.534	1	6
555.704	1	4
555.874	1	4
556.044	1	2
556.214	1	1
556.384	1	0
556.554	1	6
556.724	1	8
556.894	1	10
557.064	1	13
557.234	1	6
557.404	1	1
557.573	1	6
557.743	1	-1
557.913	1	-8
558.083	1	1
558.253	1	4
558.423	1	4
558.593	1	10
558.763	1	2
558.933	1	1
559.103	1	2
559.273	1	3
559.443	1	5
559.613	1	8
559.783	1	7
559.953	1	0
560.122	1	11
560.292	1	-1
560.462	1	2
560.632	1	-1
560.802	1	13
560.972	1	11
561.142	1	4
561.312	1	-4
561.482	1	12
561.652	1	7
561.822	1	8
561.992	1	-4
562.162	1	2
562.331	1	-1
562.501	1	-1
562.671	1	8
562.841	1	-2
563.011	1	5
563.181	1	5
563.351	1	-4
563.521	1	9
563.691	1	-1
563.861	1	5
564.031	1	4
564.201	1	9
564.370	1	5
564.540	1	11
564.710	1	1
564.880	1	-1
565.050	1	7
565.220	1	-8
565.390	1	0
565.560	1	15
565.730	1	-4
565.900	1	6
566.069	1	8
566.239	1	14
566.409	1	3
566.579	1	11
566.749	1	-1
566.919	1	19
567.089	1	4
567.259	1	7
567.429	1	-5
567.599	1	-5
567.768	1	7
567.938	1	6
568.108	1	2
568.278	1	6
568.448	1	-8
568.618	1	1
568.788	1	-5
568.958	1	-3
569.128	1	4
569.297	1	-2
569.467	1	5
569.637	1	5
569.807	1	3
569.977	1	10
570.147	1	16
570.317	1	-4
570.487	1	8
570.656	1	1
570.826	1	-7
570.996	1	-8
571.166	1	7
571.336	1	-10
571.506	1	-1
571.676	1	8
571.846	1	4
572.015	1	8
572.185	1	1
572.355	1	0
572.525	1	13
572.695	1	-6
572.865	1	-6
573.035	1	6
573.205	1	4
573.374	1	-1
573.544	1	3
573.714	1	12
573.884	1	15
574.054	1	0
574.224	1	0
574.394	1	-5
574.563	1	6
574.733	1	7
574.903	1	-1
575.073	1	4
575.243	1	5
575.413	1	6
575.583	1	-1
575.752	1	3
575.922	1	1
576.092	1	2
576.262	1	5
576.432	1	9
576.602	1	-10
576.772	1	23
576.941	1	-3
577.111	1	-10
577.281	1	-12
577.451	1	-6
577.621	1	5
577.791	1	-1
577.960	1	6
578.130	1	0
578.300	1	1
578.470	1	7
578.640	1	7
578.810	1	-1
578.979	1	8
579.149	1	1
579.319	1	0
579.489	1	-1
579.659	1	0
579.829	1	1
579.998	1	12
580.168	1	14
580.338	1	13
580.508	1	-2
580.678	1	-5
580.848	1	-4
581.017	1	-2
581.187	1	-2
581.357	1	3
581.527	1	8
581.697	1	12
581.867	1	1
582.036	1	4
582.206	1	11
582.376	1	8
582.546	1	-3
582.716	1	2
582.885	1	-2
583.055	1	2
583.225	1	-4
583.395	1	9
583.565	1	2
583.735	1	6
583.904	1	1
584.074	1	7
584.244	1	5
584.414	1	7
584.584	1	3
584.753	1	-3
584.923	1	-5
585.093	1	3
585.263	1	7
585.433	1	6
585.602	1	-9
585.772	1	-8
585.942	1	-1
586.112	1	0
586.282	1	-6
586.451	1	2
586.621	1	-3
586.791	1	-5
586.961	1	6
587.131	1	6
587.300	1	-11
587.470	1	13
587.640	1	1
587.810	1	-2
587.980	1	-2
588.149	1	-1
588.319	1	3
588.489	1	0
588.659	1	5
588.829	1	0
588.998	1	12
589.168	1	2
589.338	1	-3
589.508	1	7
589.677	1	-10
589.847	1	-3
590.017	1	16
590.187	1	-5
590.357	1	9
590.526	1	7
590.696	1	3
590.866	1	9
591.036	1	-2
591.205	1	19
591.375	1	-4
591.545	1	-4
591.715	1	3
591.885	1	0
592.054	1	12
592.224	1	2
592.394	1	-5
592.564	1	1
592.733	1	-1
592.903	1	1
593.073	1	7
593.243	1	11
593.412	1	12
593.582	1	1
593.752	1	2
593.922	1	4
594.091	1	2
594.261	1	-2
594.431	1	5
594.601	1	-1
594.771	1	5
594.940	1	4
595.110	1	-5
595.280	1	7
595.450	1	-8
595.619	1	0
595.789	1	1
595.959	1	13
596.129	1	3
596.298	1	1
596.468	1	6
596.638	1	10
596.808	1	4
596.977	1	7
597.147	1	11
597.317	1	3
597.487	1	4
597.656	1	-2
597.826	1	3
597.996	1	2
598.166	1	-1
598.335	1	-4
598.505	1	0
598.675	1	-6
598.844	1	14
599.014	1	2
599.184	1	5
599.354	1	-6
599.523	1	12
599.693	1	2
599.863	1	7
600.033	1	1
600.202	1	1
600.372	1	-5
600.542	1	10
600.712	1	-4
600.881	1	-8
601.051	1	12
601.221	1	10
601.390	1	-6
601.560	1	6
601.730	1	10
601.900	1	6
602.069	1	1
602.239	1	-3
602.409	1	0
602.578	1	-4
602.748	1	8
602.918	1	12
603.088	1	4
603.257	1	3
603.427	1	2
603.597	1	4
603.767	1	4
603.936	1	7
604.106	1	1
604.276	1	2
604.445	1	7
604.615	1	0
604.785	1	0
604.954	1	2
605.124	1	6
605.294	1	-2
605.464	1	3
605.633	1	0
605.803	1	9
605.973	1	3
606.142	1	7
606.312	1	12
606.482	1	7
606.652	1	13
606.821	1	-14
606.991	1	3
607.161	1	4
607.330	1	5
607.500	1	1
607.670	1	-3
607.839	1	21
608.009	1	6
608.179	1	8
608.348	1	11
608.518	1	2
608.688	1	3
608.858	1	3
609.027	1	-7
609.197	1	-2
609.367	1	9
609.536	1	7
609.706	1	6
609.876	1	-2
610.045	1	-1
610.215	1	6
610.385	1	-2
610.554	1	1
610.724	1	7
610.894	1	-2
611.063	1	6
611.233	1	7
611.403	1	0
611.572	1	-11
611.742	1	4
611.912	1	10
612.081	1	-2
612.251	1	-2
612.421	1	5
612.590	1	0
612.760	1	3
612.930	1	4
613.099	1	8
613.269	1	11
613.439	1	-7
613.608	1	2
613.778	1	6
613.948	1	0
614.117	1	-2
614.287	1	15
614.457	1	4
614.626	1	3
614.796	1	9
614.966	1	1
615.135	1	8
615.305	1	7
615.475	1	9
615.644	1	-4
615.814	1	8
615.984	1	-3
616.153	1	-3
616.323	1	2
616.493	1	3
616.662	1	9
616.832	1	7
617.002	1	1
617.171	1	1
617.341	1	4
617.511	1	5
617.680	1	-6
617.850	1	11
618.019	1	16
618.189	1	19
618.359	1	4
618.528	1	4
618.698	1	5
618.868	1	6
619.037	1	4
619.207	1	-1
619.377	1	-8
619.546	1	4
619.716	1	1
619.885	1	6
620.055	1	-5
620.225	1	2
620.394	1	4
620.564	1	16
620.734	1	2
620.903	1	-6
621.073	1	10
621.242	1	6
621.412	1	5
621.582	1	-3
621.751	1	7
621.921	1	10
622.091	1	-2
622.260	1	-1
622.430	1	6
622.599	1	4
622.769	1	5
622.939	1	5
623.108	1	6
623.278	1	-6
623.448	1	3
623.617	1	7
623.787	1	8
623.956	1	11
624.126	1	2
624.296	1	-9
624.465	1	15
624.635	1	13
624.804	1	-2
624.974	1	9
625.144	1	4
625.313	1	-1
625.483	1	-4
625.652	1	-3
625.822	1	0
625.992	1	0
626.161	1	10
626.331	1	-7
626.501	1	4
626.670	1	-1
626.840	1	3
627.009	1	1
627.179	1	8
627.348	1	7
627.518	1	-2
627.688	1	9
627.857	1	7
628.027	1	-3
628.196	1	0
628.366	1	14
628.536	1	-3
628.705	1	5
628.875	1	6
629.044	1	3
629.214	1	6
629.384	1	10
629.553	1	9
629.723	1	2
629.892	1	1
630.062	1	4
630.232	1	2
630.401	1	13
630.571	1	-4
630.740	1	6
630.910	1	15
631.079	1	2
631.249	1	-1
631.419	1	14
631.588	1	-13
631.758	1	10
631.927	1	-4
632.097	1	10
632.266	1	-4
632.436	1	8
632.606	1	3
632.775	1	13
632.945	1	-9
633.114	1	1
633.284	1	5
633.453	1	5
633.623	1	1
633.793	1	13
633.962	1	1
634.132	1	4
634.301	1	-1
634.471	1	11
634.640	1	-1
634.810	1	9
634.979	1	11
635.149	1	4
635.319	1	3
635.488	1	5
635.658	1	1
635.827	1	1
635.997	1	-3
636.166	1	4
636.336	1	6
636.505	1	12
636.675	1	3
636.845	1	6
637.014	1	1
637.184	1	11
637.353	1	5
637.523	1	5
637.692	1	4
637.862	1	-2
638.031	1	10
638.201	1	5
638.370	1	2
638.540	1	6
638.710	1	6
638.879	1	-2
639.049	1	4
639.218	1	-1
639.388	1	-2
639.557	1	0
639.727	1	5
639.896	1	6
640.066	1	8
640.235	1	10
640.405	1	2
640.574	1	2
640.744	1	-8
640.914	1	-1
641.083	1	1
641.253	1	5
641.422	1	7
641.592	1	23
641.761	1	-3
641.931	1	6
642.100	1	21
642.270	1	0
642.439	1	2
642.609	1	9
642.778	1	8
642.948	1	0
643.117	1	10
643.287	1	8
643.456	1	-3
643.626	1	11
643.795	1	-1
643.965	1	10
644.134	1	-4
644.304	1	6
644.473	1	10
644.643	1	13
644.812	1	1
644.982	1	11
645.151	1	1
645.321	1	-10
645.490	1	10
645.660	1	0
645.829	1	-2
645.999	1	0
646.168	1	10
646.338	1	13
646.507	1	10
646.677	1	10
646.846	1	-3
647.016	1	-3
647.185	1	5
647.355	1	-5
647.524	1	14
647.694	1	11
647.863	1	10
648.033	1	5
648.202	1	11
648.372	1	2
648.541	1	6
648.711	1	7
648.880	1	-2
649.050	1	-4
649.219	1	2
649.389	1	11
649.558	1	5
649.728	1	13
649.897	1	1
650.067	1	10
650.236	1	-1
650.406	1	7
650.575	1	10
650.745	1	5
650.914	1	6
651.084	1	-4
651.253	1	5
651.423	1	2
651.592	1	8
651.762	1	2
651.931	1	3
652.101	1	4
652.270	1	14
652.440	1	5
652.609	1	-2
652.778	1	5
652.948	1	5
653.117	1	12
653.287	1	4
653.456	1	6
653.626	1	3
653.795	1	5
653.965	1	14
654.134	1	13
654.304	1	-6
654.473	1	10
654.643	1	12
654.812	1	14
654.982	1	13
655.151	1	2
655.320	1	0
655.490	1	-3
655.659	1	10
655.829	1	9
655.998	1	-1
656.168	1	8
656.337	1	9
656.507	1	8
656.676	1	9
656.846	1	5
657.015	1	10
657.184	1	9
657.354	1	3
657.523	1	0
657.693	1	14
657.862	1	8
658.032	1	5
658.201	1	5
658.371	1	14
658.540	1	6
658.709	1	2
658.879	1	21
659.048	1	0
659.218	1	11
659.387	1	7
659.557	1	3
659.726	1	2
659.895	1	6
660.065	1	-1
660.234	1	2
660.404	1	9
660.573	1	9
660.743	1	7
660.912	1	3
661.081	1	19
661.251	1	3
661.420	1	13
661.590	1	7
661.759	1	9
661.929	1	2
662.098	1	14
662.267	1	-5
662.437	1	18
662.606	1	1
662.776	1	5
662.945	1	-3
663.115	1	5
663.284	1	4
663.453	1	3
663.623	1	6
663.792	1	5
663.962	1	2
664.131	1	12
664.300	1	12
664.470	1	10
664.639	1	6
664.809	1	-1
664.978	1	3
665.148	1	0
665.317	1	2
665.486	1	11
665.656	1	3
665.825	1	15
665.995	1	2
666.164	1	0
666.333	1	9
666.503	1	7
666.672	1	-3
666.842	1	-2
667.011	1	-1
667.180	1	11
667.350	1	8
667.519	1	10
667.689	1	3
667.858	1	4
668.027	1	9
668.197	1	0
668.366	1	-5
668.536	1	7
668.705	1	9
668.874	1	8
669.044	1	-1
669.213	1	24
669.382	1	7
669.552	1	5
669.721	1	2
669.891	1	9
670.060	1	12
670.229	1	8
670.399	1	6
670.568	1	11
670.738	1	16
670.907	1	-6
671.076	1	3
671.246	1	-3
671.415	1	9
671.584	1	-3
671.754	1	4
671.923	1	4
672.093	1	6
672.262	1	-1
672.431	1	9
672.601	1	4
672.770	1	0
672.939	1	10
673.109	1	5
673.278	1	10
673.448	1	11
673.617	1	6
673.786	1	1
