325.333	1	1
325.504	1	4
325.675	1	7
325.846	1	3
326.017	1	0
326.188	1	-2
326.359	1	-1
326.531	1	-3
326.702	1	0
326.873	1	10
327.044	1	11
327.215	1	4
327.386	1	6
327.557	1	-1
327.728	1	1
327.899	1	5
328.070	1	9
328.241	1	0
328.412	1	-10
328.583	1	15
328.754	1	18
328.926	1	14
329.097	1	2
329.268	1	7
329.439	1	-4
329.610	1	8
329.781	1	-5
329.952	1	11
330.123	1	5
330.294	1	4
330.465	1	5
330.636	1	17
330.807	1	-2
330.978	1	0
331.149	1	-3
331.320	1	2
331.492	1	5
331.663	1	10
331.834	1	15
332.005	1	12
332.176	1	24
332.347	1	8
332.518	1	5
332.689	1	6
332.860	1	1
333.031	1	13
333.202	1	0
333.373	1	10
333.544	1	-1
333.715	1	5
333.886	1	-7
334.057	1	9
334.228	1	-2
334.399	1	7
334.570	1	16
334.741	1	2
334.912	1	2
335.084	1	16
335.255	1	9
335.426	1	5
335.597	1	-4
335.768	1	4
335.939	1	8
336.110	1	3
336.281	1	-4
336.452	1	1
336.623	1	8
336.794	1	5
336.965	1	7
337.136	1	13
337.307	1	1
337.478	1	5
337.649	1	6
337.820	1	6
337.991	1	0
338.162	1	8
338.333	1	5
338.504	1	11
338.675	1	6
338.846	1	8
339.017	1	5
339.188	1	1
339.359	1	-3
339.530	1	5
339.701	1	16
339.872	1	7
340.043	1	7
340.214	1	6
340.385	1	6
340.556	1	-10
340.727	1	11
340.898	1	12
341.069	1	7
341.240	1	-2
341.411	1	10
341.582	1	6
341.753	1	2
341.924	1	7
342.095	1	12
342.266	1	11
342.437	1	12
342.608	1	2
342.779	1	10
342.950	1	2
343.121	1	6
343.292	1	0
343.463	1	1
343.634	1	6
343.805	1	10
343.976	1	8
344.147	1	10
344.318	1	8
344.489	1	11
344.660	1	18
344.831	1	2
345.002	1	6
345.173	1	11
345.344	1	8
345.515	1	11
345.686	1	0
345.857	1	8
346.028	1	6
346.199	1	10
346.370	1	2
346.541	1	10
346.712	1	-1
346.883	1	4
347.054	1	7
347.225	1	9
347.396	1	9
347.567	1	4
347.738	1	1
347.909	1	15
348.080	1	8
348.251	1	11
348.422	1	10
348.593	1	10
348.764	1	10
348.935	1	2
349.106	1	4
349.277	1	6
349.448	1	12
349.619	1	12
349.790	1	8
349.961	1	13
350.132	1	18
350.303	1	3
350.474	1	8
350.645	1	12
350.816	1	0
350.987	1	15
351.157	1	-1
351.328	1	24
351.499	1	10
351.670	1	9
351.841	1	16
352.012	1	11
352.183	1	13
352.354	1	5
352.525	1	21
352.696	1	19
352.867	1	7
353.038	1	17
353.209	1	6
353.380	1	11
353.551	1	4
353.722	1	17
353.893	1	7
354.064	1	24
354.235	1	11
354.406	1	3
354.576	1	-4
354.747	1	14
354.918	1	16
355.089	1	9
355.260	1	6
355.431	1	15
355.602	1	8
355.773	1	7
355.944	1	10
356.115	1	7
356.286	1	16
356.457	1	17
356.628	1	12
356.799	1	15
356.970	1	26
357.141	1	13
357.311	1	5
357.482	1	-2
357.653	1	14
357.824	1	17
357.995	1	14
358.166	1	7
358.337	1	13
358.508	1	18
358.679	1	14
358.850	1	23
359.021	1	10
359.192	1	12
359.363	1	8
359.533	1	7
359.704	1	2
359.875	1	10
360.046	1	10
360.217	1	4
360.388	1	6
360.559	1	18
360.730	1	11
360.901	1	12
361.072	1	18
361.243	1	18
361.414	1	1
361.584	1	13
361.755	1	15
361.926	1	11
362.097	1	9
362.268	1	10
362.439	1	10
362.610	1	15
362.781	1	5
362.952	1	1
363.123	1	11
363.293	1	13
363.464	1	17
363.635	1	7
363.806	1	9
363.977	1	13
364.148	1	9
364.319	1	8
364.490	1	19
364.661	1	8
364.832	1	13
365.002	1	13
365.173	1	7
365.344	1	17
365.515	1	10
365.686	1	14
365.857	1	13
366.028	1	17
366.199	1	9
366.370	1	7
366.540	1	7
366.711	1	-11
366.882	1	7
367.053	1	6
367.224	1	26
367.395	1	21
367.566	1	17
367.737	1	27
367.908	1	18
368.078	1	11
368.249	1	7
368.420	1	3
368.591	1	10
368.762	1	14
368.933	1	12
369.104	1	0
369.274	1	12
369.445	1	17
369.616	1	8
369.787	1	12
369.958	1	20
370.129	1	-5
370.300	1	12
370.471	1	10
370.641	1	14
370.812	1	11
370.983	1	15
371.154	1	16
371.325	1	17
371.496	1	21
371.667	1	18
371.837	1	11
372.008	1	16
372.179	1	3
372.350	1	30
372.521	1	15
372.692	1	12
372.863	1	18
373.033	1	-1
373.204	1	11
373.375	1	12
373.546	1	16
373.717	1	18
373.888	1	21
374.059	1	16
374.229	1	21
374.400	1	7
374.571	1	9
374.742	1	25
374.913	1	18
375.084	1	8
375.254	1	21
375.425	1	24
375.596	1	18
375.767	1	14
375.938	1	21
376.109	1	19
376.279	1	8
376.450	1	20
376.621	1	14
376.792	1	8
376.963	1	19
377.134	1	12
377.304	1	13
377.475	1	18
377.646	1	9
377.817	1	10
377.988	1	8
378.159	1	11
378.329	1	18
378.500	1	13
378.671	1	12
378.842	1	1
379.013	1	4
379.184	1	19
379.354	1	19
379.525	1	10
379.696	1	19
379.867	1	16
380.038	1	16
380.209	1	12
380.379	1	9
380.550	1	4
380.721	1	10
380.892	1	16
381.063	1	12
381.233	1	15
381.404	1	20
381.575	1	25
381.746	1	23
381.917	1	16
382.087	1	20
382.258	1	12
382.429	1	19
382.600	1	24
382.771	1	22
382.941	1	10
383.112	1	8
383.283	1	19
383.454	1	17
383.625	1	10
383.795	1	22
383.966	1	16
384.137	1	21
384.308	1	20
384.479	1	13
384.649	1	23
384.820	1	12
384.991	1	11
385.162	1	16
385.333	1	8
385.503	1	16
385.674	1	19
385.845	1	21
386.016	1	19
386.187	1	10
386.357	1	20
386.528	1	16
386.699	1	17
386.870	1	27
387.041	1	23
387.211	1	22
387.382	1	33
387.553	1	20
387.724	1	11
387.894	1	11
388.065	1	8
388.236	1	24
388.407	1	9
388.578	1	3
388.748	1	13
388.919	1	29
389.090	1	15
389.261	1	16
389.431	1	22
389.602	1	20
389.773	1	15
389.944	1	21
390.114	1	18
390.285	1	22
390.456	1	14
390.627	1	22
390.798	1	24
390.968	1	17
391.139	1	23
391.310	1	22
391.481	1	27
391.651	1	13
391.822	1	14
391.993	1	21
392.164	1	13
392.334	1	14
392.505	1	14
392.676	1	16
392.847	1	34
393.017	1	18
393.188	1	27
393.359	1	12
393.530	1	19
393.700	1	16
393.871	1	10
394.042	1	11
394.213	1	10
394.383	1	18
394.554	1	9
394.725	1	27
394.896	1	11
395.066	1	19
395.237	1	17
395.408	1	20
395.579	1	22
395.749	1	18
395.920	1	15
396.091	1	14
396.262	1	21
396.432	1	16
396.603	1	23
396.774	1	31
396.945	1	12
397.115	1	14
397.286	1	13
397.457	1	20
397.627	1	23
397.798	1	22
397.969	1	12
398.140	1	13
398.310	1	18
398.481	1	33
398.652	1	23
398.823	1	17
398.993	1	15
399.164	1	14
399.335	1	31
399.505	1	18
399.676	1	18
399.847	1	19
400.018	1	15
400.188	1	17
400.359	1	25
400.530	1	13
400.700	1	20
400.871	1	25
401.042	1	25
401.213	1	20
401.383	1	20
401.554	1	17
401.725	1	22
401.895	1	17
402.066	1	27
402.237	1	24
402.408	1	25
402.578	1	27
402.749	1	21
402.920	1	16
403.090	1	14
403.261	1	17
403.432	1	19
403.603	1	30
403.773	1	30
403.944	1	20
404.115	1	32
404.285	1	19
404.456	1	10
404.627	1	16
404.797	1	10
404.968	1	22
405.139	1	16
405.310	1	29
405.480	1	26
405.651	1	16
405.822	1	14
405.992	1	10
406.163	1	10
406.334	1	15
406.504	1	20
406.675	1	22
406.846	1	21
407.016	1	20
407.187	1	27
407.358	1	18
407.528	1	18
407.699	1	6
407.870	1	18
408.041	1	8
408.211	1	29
408.382	1	10
408.553	1	18
408.723	1	22
408.894	1	17
409.065	1	25
409.235	1	19
409.406	1	18
409.577	1	13
409.747	1	31
409.918	1	18
410.089	1	21
410.259	1	14
410.430	1	17
410.601	1	26
410.771	1	14
410.942	1	30
411.113	1	19
411.283	1	19
411.454	1	17
411.625	1	10
411.795	1	23
411.966	1	26
412.137	1	25
412.307	1	11
412.478	1	14
412.649	1	17
412.819	1	16
412.990	1	12
413.161	1	20
413.331	1	8
413.502	1	27
413.672	1	22
413.843	1	24
414.014	1	10
414.184	1	23
414.355	1	23
414.526	1	17
414.696	1	28
414.867	1	15
415.038	1	12
415.208	1	21
415.379	1	27
415.550	1	26
415.720	1	9
415.891	1	17
416.062	1	18
416.232	1	20
416.403	1	20
416.573	1	29
416.744	1	18
416.915	1	23
417.085	1	25
417.256	1	15
417.427	1	19
417.597	1	14
417.768	1	11
417.939	1	17
418.109	1	18
418.280	1	25
418.450	1	17
418.621	1	4
418.792	1	23
418.962	1	25
419.133	1	33
419.304	1	13
419.474	1	19
419.645	1	15
419.815	1	9
419.986	1	17
420.157	1	19
420.327	1	15
420.498	1	30
420.669	1	16
420.839	1	22
421.010	1	35
421.180	1	26
421.351	1	23
421.522	1	32
421.692	1	17
421.863	1	15
422.033	1	25
422.204	1	26
422.375	1	10
422.545	1	25
422.716	1	14
422.886	1	13
423.057	1	26
423.228	1	15
423.398	1	16
423.569	1	12
423.740	1	6
423.910	1	5
424.081	1	20
424.251	1	6
424.422	1	28
424.593	1	15
424.763	1	26
424.934	1	23
425.104	1	17
425.275	1	19
425.445	1	9
425.616	1	15
425.787	1	10
425.957	1	24
426.128	1	29
426.298	1	20
426.469	1	12
426.640	1	23
426.810	1	28
426.981	1	17
427.151	1	15
427.322	1	19
427.493	1	17
427.663	1	22
427.834	1	2
428.004	1	25
428.175	1	24
428.345	1	22
428.516	1	7
428.687	1	25
428.857	1	8
429.028	1	25
429.198	1	21
429.369	1	35
429.540	1	17
429.710	1	10
429.881	1	22
430.051	1	26
430.222	1	17
430.392	1	17
430.563	1	22
430.734	1	27
430.904	1	22
431.075	1	16
431.245	1	12
431.416	1	28
431.586	1	18
431.757	1	12
431.927	1	19
432.098	1	20
432.269	1	20
432.439	1	13
432.610	1	19
432.780	1	22
432.951	1	12
433.121	1	16
433.292	1	32
433.462	1	22
433.633	1	22
433.804	1	16
433.974	1	16
434.145	1	25
434.315	1	12
434.486	1	15
434.656	1	25
434.827	1	14
434.997	1	10
435.168	1	22
435.339	1	17
435.509	1	26
435.680	1	23
435.850	1	23
436.021	1	12
436.191	1	10
436.362	1	13
436.532	1	24
436.703	1	6
436.873	1	22
437.044	1	7
437.214	1	14
437.385	1	3
437.556	1	17
437.726	1	19
437.897	1	18
438.067	1	17
438.238	1	21
438.408	1	18
438.579	1	19
438.749	1	15
438.920	1	10
439.090	1	18
439.261	1	8
439.431	1	12
439.602	1	10
439.772	1	15
439.943	1	32
440.113	1	16
440.284	1	15
440.455	1	13
440.625	1	17
440.796	1	16
440.966	1	15
441.137	1	10
441.307	1	9
441.478	1	33
441.648	1	23
441.819	1	17
441.989	1	14
442.160	1	20
442.330	1	15
442.501	1	9
442.671	1	13
442.842	1	-3
443.012	1	14
443.183	1	20
443.353	1	15
443.524	1	25
443.694	1	19
443.865	1	14
444.035	1	19
444.206	1	6
444.376	1	10
444.547	1	25
444.717	1	24
444.888	1	17
445.058	1	27
445.229	1	11
445.399	1	6
445.570	1	10
445.740	1	16
445.911	1	23
446.081	1	14
446.252	1	27
446.422	1	9
446.593	1	10
446.763	1	21
446.934	1	9
447.104	1	17
447.275	1	13
447.445	1	19
447.616	1	23
447.786	1	19
447.957	1	17
448.127	1	12
448.298	1	18
448.468	1	6
448.639	1	15
448.809	1	18
448.979	1	16
449.150	1	20
449.320	1	17
449.491	1	22
449.661	1	19
449.832	1	22
450.002	1	20
450.173	1	10
450.343	1	10
450.514	1	20
450.684	1	17
450.855	1	16
451.025	1	21
451.196	1	18
451.366	1	17
451.537	1	15
451.707	1	3
451.878	1	10
452.048	1	25
452.218	1	19
452.389	1	20
452.559	1	12
452.730	1	24
452.900	1	24
453.071	1	-1
453.241	1	16
453.412	1	9
453.582	1	13
453.753	1	17
453.923	1	18
454.093	1	21
454.264	1	28
454.434	1	8
454.605	1	16
454.775	1	12
454.946	1	15
455.116	1	17
455.287	1	1
455.457	1	9
455.628	1	12
455.798	1	22
455.968	1	15
456.139	1	13
456.309	1	14
456.480	1	14
456.650	1	10
456.821	1	1
456.991	1	9
457.161	1	12
457.332	1	24
457.502	1	5
457.673	1	18
457.843	1	19
458.014	1	13
458.184	1	5
458.355	1	14
458.525	1	11
458.695	1	24
458.866	1	9
459.036	1	16
459.207	1	14
459.377	1	9
459.548	1	15
459.718	1	8
459.888	1	9
460.059	1	15
460.229	1	24
460.400	1	22
460.570	1	14
460.740	1	15
460.911	1	19
461.081	1	12
461.252	1	0
461.422	1	21
461.593	1	13
461.763	1	19
461.933	1	22
462.104	1	9
462.274	1	4
462.445	1	17
462.615	1	20
462.785	1	10
462.956	1	20
463.126	1	18
463.297	1	12
463.467	1	11
463.638	1	22
463.808	1	8
463.978	1	-2
464.149	1	0
464.319	1	1
464.490	1	22
464.660	1	20
464.830	1	13
465.001	1	14
465.171	1	8
465.342	1	14
465.512	1	-1
465.682	1	6
465.853	1	18
466.023	1	13
466.194	1	15
466.364	1	16
466.534	1	14
466.705	1	9
466.875	1	6
467.045	1	9
467.216	1	15
467.386	1	7
467.557	1	9
467.727	1	6
467.897	1	11
468.068	1	5
468.238	1	7
468.409	1	14
468.579	1	10
468.749	1	3
468.920	1	1
469.090	1	14
469.260	1	6
469.431	1	10
469.601	1	12
469.772	1	8
469.942	1	6
470.112	1	17
470.283	1	10
470.453	1	12
470.623	1	2
470.794	1	5
470.964	1	19
471.135	1	12
471.305	1	8
471.475	1	16
471.646	1	2
471.816	1	1
471.986	1	14
472.157	1	16
472.327	1	1
472.497	1	13
472.668	1	2
472.838	1	13
473.009	1	22
473.179	1	10
473.349	1	1
473.520	1	17
473.690	1	8
473.860	1	5
474.031	1	12
474.201	1	15
474.371	1	12
474.542	1	12
474.712	1	7
474.882	1	11
475.053	1	22
475.223	1	5
475.394	1	9
475.564	1	9
475.734	1	18
475.905	1	25
476.075	1	1
476.245	1	13
476.416	1	17
476.586	1	17
476.756	1	8
476.927	1	18
477.097	1	4
477.267	1	6
477.438	1	16
477.608	1	10
477.778	1	9
477.949	1	12
478.119	1	12
478.289	1	21
478.460	1	19
478.630	1	14
478.800	1	13
478.971	1	8
479.141	1	1
479.311	1	0
479.482	1	9
479.652	1	3
479.822	1	11
479.993	1	14
480.163	1	17
480.333	1	7
480.504	1	18
480.674	1	13
480.844	1	-5
481.015	1	8
481.185	1	2
481.355	1	11
481.525	1	-1
481.696	1	9
481.866	1	23
482.036	1	12
482.207	1	0
482.377	1	5
482.547	1	18
482.718	1	10
482.888	1	15
483.058	1	-1
483.229	1	-3
483.399	1	2
483.569	1	17
483.740	1	15
483.910	1	7
484.080	1	2
484.250	1	7
484.421	1	6
484.591	1	7
484.761	1	10
484.932	1	16
485.102	1	18
485.272	1	12
485.443	1	12
485.613	1	12
485.783	1	5
485.953	1	11
486.124	1	16
486.294	1	9
486.464	1	7
486.635	1	10
486.805	1	22
486.975	1	8
487.146	1	4
487.316	1	17
487.486	1	9
487.656	1	2
487.827	1	13
487.997	1	7
488.167	1	3
488.338	1	9
488.508	1	8
488.678	1	7
488.848	1	17
489.019	1	-3
489.189	1	7
489.359	1	6
489.529	1	8
489.700	1	1
489.870	1	19
490.040	1	1
490.211	1	4
490.381	1	12
490.551	1	12
490.721	1	14
490.892	1	9
491.062	1	6
491.232	1	8
491.402	1	8
491.573	1	0
491.743	1	10
491.913	1	8
492.084	1	12
492.254	1	6
492.424	1	6
492.594	1	11
492.765	1	9
492.935	1	5
493.105	1	7
493.275	1	15
493.446	1	13
493.616	1	11
493.786	1	-1
493.956	1	8
494.127	1	6
494.297	1	10
494.467	1	-2
494.637	1	2
494.808	1	8
494.978	1	0
495.148	1	3
495.318	1	14
495.489	1	15
495.659	1	13
495.829	1	9
495.999	1	-2
496.170	1	11
496.340	1	10
496.510	1	6
496.680	1	9
496.851	1	5
497.021	1	-1
497.191	1	5
497.361	1	11
497.532	1	4
497.702	1	-1
497.872	1	2
498.042	1	3
498.213	1	-2
498.383	1	4
498.553	1	7
498.723	1	10
498.894	1	7
499.064	1	10
499.234	1	14
499.404	1	8
499.574	1	3
499.745	1	14
499.915	1	9
500.085	1	8
500.255	1	16
500.426	1	10
500.596	1	6
500.766	1	-2
500.936	1	4
501.106	1	3
501.277	1	12
501.447	1	6
501.617	1	5
501.787	1	5
501.958	1	-3
502.128	1	0
502.298	1	8
502.468	1	7
502.638	1	10
502.809	1	5
502.979	1	3
503.149	1	1
503.319	1	6
503.489	1	9
503.660	1	16
503.830	1	7
504.000	1	14
504.170	1	2
504.340	1	-2
504.511	1	6
504.681	1	3
504.851	1	14
505.021	1	6
505.192	1	-6
505.362	1	14
505.532	1	14
505.702	1	1
505.872	1	10
506.043	1	7
506.213	1	-1
506.383	1	5
506.553	1	12
506.723	1	7
506.893	1	4
507.064	1	9
507.234	1	5
507.404	1	5
507.574	1	-2
507.744	1	3
507.915	1	6
508.085	1	9
508.255	1	13
508.425	1	-1
508.595	1	8
508.766	1	11
508.936	1	-4
509.106	1	10
509.276	1	13
509.446	1	5
509.616	1	-1
509.787	1	9
509.957	1	3
510.127	1	9
510.297	1	7
510.467	1	-3
510.638	1	6
510.808	1	-12
510.978	1	-1
511.148	1	1
511.318	1	7
511.488	1	-6
511.659	1	5
511.829	1	-3
511.999	1	9
512.169	1	0
512.339	1	4
512.509	1	4
512.680	1	4
512.850	1	2
513.020	1	15
513.190	1	15
513.360	1	7
513.530	1	2
513.700	1	10
513.871	1	-6
514.041	1	4
514.211	1	6
514.381	1	13
514.551	1	7
514.721	1	6
514.892	1	5
515.062	1	7
515.232	1	11
515.402	1	-9
515.572	1	3
515.742	1	3
515.912	1	5
516.083	1	-3
516.253	1	1
516.423	1	1
516.593	1	11
516.763	1	5
516.933	1	0
517.104	1	8
517.274	1	14
517.444	1	2
517.614	1	3
517.784	1	7
517.954	1	8
518.124	1	10
518.294	1	-1
518.465	1	7
518.635	1	7
518.805	1	-8
518.975	1	3
519.145	1	3
519.315	1	-3
519.485	1	2
519.656	1	10
519.826	1	7
519.996	1	-5
520.166	1	5
520.336	1	17
520.506	1	7
520.676	1	-5
520.846	1	8
521.017	1	2
521.187	1	-1
521.357	1	13
521.527	1	-3
521.697	1	0
521.867	1	-5
522.037	1	11
522.207	1	10
522.377	1	3
522.548	1	7
522.718	1	9
522.888	1	17
523.058	1	2
523.228	1	1
523.398	1	11
523.568	1	10
523.738	1	1
523.909	1	6
524.079	1	7
524.249	1	6
524.419	1	3
524.589	1	5
524.759	1	-5
524.929	1	1
525.099	1	13
525.269	1	11
525.439	1	6
525.610	1	27
525.780	1	-4
525.950	1	6
526.120	1	-5
526.290	1	4
526.460	1	-5
526.630	1	11
526.800	1	-1
526.970	1	4
527.140	1	8
527.311	1	-1
527.481	1	-1
527.651	1	9
527.821	1	-5
527.991	1	13
528.161	1	9
528.331	1	4
528.501	1	1
528.671	1	-3
528.841	1	4
529.011	1	4
529.181	1	5
529.352	1	6
529.522	1	-3
529.692	1	9
529.862	1	-1
530.032	1	8
530.202	1	10
530.372	1	4
530.542	1	4
530.712	1	-3
530.882	1	7
531.052	1	4
531.222	1	5
531.392	1	3
531.563	1	12
531.733	1	13
531.903	1	10
532.073	1	2
532.243	1	-3
532.413	1	4
532.583	1	4
532.753	1	14
532.923	1	-4
533.093	1	10
533.263	1	10
533.433	1	2
533.603	1	6
533.773	1	4
533.943	1	2
534.113	1	0
534.284	1	-1
534.454	1	12
534.624	1	15
534.794	1	-10
534.964	1	7
535.134	1	6
535.304	1	-9
535.474	1	7
535.644	1	5
535.814	1	7
535.984	1	-2
536.154	1	-2
536.324	1	5
536.494	1	7
536.664	1	11
536.834	1	1
537.004	1	7
537.174	1	5
537.344	1	-3
537.514	1	-1
537.685	1	10
537.855	1	11
538.025	1	13
538.195	1	1
538.365	1	11
538.535	1	2
538.705	1	8
538.875	1	14
539.045	1	4
539.215	1	5
539.385	1	-1
539.555	1	7
539.725	1	-1
539.895	1	-10
540.065	1	14
540.235	1	15
540.405	1	-7
540.575	1	3
540.745	1	7
540.915	1	11
541.085	1	2
541.255	1	1
541.425	1	9
541.595	1	3
541.765	1	12
541.935	1	-10
542.105	1	-4
542.275	1	11
542.445	1	-13
542.615	1	2
542.785	1	13
542.955	1	9
543.125	1	-3
543.295	1	5
543.465	1	10
543.635	1	12
543.805	1	17
543.975	1	-2
544.145	1	5
544.315	1	12
544.485	1	5
544.655	1	10
544.825	1	-6
544.995	1	0
545.165	1	5
545.335	1	6
545.505	1	-3
545.675	1	4
545.845	1	0
546.015	1	10
546.185	1	12
546.355	1	6
546.525	1	7
546.695	1	8
546.865	1	-2
547.035	1	7
547.205	1	-9
547.375	1	1
547.545	1	6
547.715	1	-2
547.885	1	11
548.055	1	5
548.225	1	6
548.395	1	-2
548.565	1	9
548.735	1	1
548.905	1	-6
549.075	1	10
549.245	1	8
549.415	1	-8
549.585	1	13
549.755	1	5
549.925	1	0
550.095	1	5
550.265	1	1
550.435	1	-7
550.605	1	-6
550.775	1	7
550.945	1	5
551.115	1	-1
551.285	1	0
551.455	1	-2
551.625	1	10
551.795	1	7
551.965	1	1
552.135	1	7
552.305	1	-3
552.475	1	2
552.645	1	4
552.815	1	10
552.985	1	2
553.155	1	9
553.325	1	7
553.495	1	0
553.665	1	1
553.835	1	3
554.004	1	4
554.174	1	7
554.344	1	5
554.514	1	11
554.684	1	-3
554.854	1	6
555.024	1	-8
555.194	1	2
555.364	1	9
555.534	1	4
555.704	1	4
555.874	1	11
556.044	1	4
556.214	1	3
556.384	1	-9
556.554	1	7
556.724	1	3
556.894	1	-3
557.064	1	4
557.234	1	-2
557.404	1	8
557.573	1	5
557.743	1	2
557.913	1	1
558.083	1	-8
558.253	1	5
558.423	1	-6
558.593	1	5
558.763	1	3
558.933	1	-1
559.103	1	10
559.273	1	4
559.443	1	8
559.613	1	12
559.783	1	-1
559.953	1	1
560.122	1	9
560.292	1	1
560.462	1	-4
560.632	1	0
560.802	1	0
560.972	1	3
561.142	1	12
561.312	1	5
561.482	1	13
561.652	1	1
561.822	1	1
561.992	1	-4
562.162	1	4
562.331	1	-1
562.501	1	2
562.671	1	1
562.841	1	-2
563.011	1	7
563.181	1	-6
563.351	1	-4
563.521	1	16
563.691	1	-3
563.861	1	1
564.031	1	-4
564.201	1	12
564.370	1	-4
564.540	1	1
564.710	1	-3
564.880	1	6
565.050	1	6
565.220	1	7
565.390	1	10
565.560	1	15
565.730	1	-6
565.900	1	-1
566.069	1	4
566.239	1	4
566.409	1	11
566.579	1	2
566.749	1	3
566.919	1	13
567.089	1	7
567.259	1	7
567.429	1	9
567.599	1	-8
567.768	1	1
567.938	1	7
568.108	1	3
568.278	1	6
568.448	1	2
568.618	1	1
568.788	1	10
568.958	1	3
569.128	1	4
569.297	1	3
569.467	1	-2
569.637	1	8
569.807	1	3
569.977	1	3
570.147	1	11
570.317	1	-10
570.487	1	5
570.656	1	9
570.826	1	0
570.996	1	-2
571.166	1	13
571.336	1	0
571.506	1	10
571.676	1	4
571.846	1	6
572.015	1	5
572.185	1	-2
572.355	1	5
572.525	1	5
572.695	1	8
572.865	1	-3
573.035	1	7
573.205	1	3
573.374	1	-4
573.544	1	-8
573.714	1	16
573.884	1	15
574.054	1	-1
574.224	1	4
574.394	1	1
574.563	1	7
574.733	1	-1
574.903	1	9
575.073	1	-1
575.243	1	6
575.413	1	7
575.583	1	-3
575.752	1	1
575.922	1	2
576.092	1	9
576.262	1	5
576.432	1	6
576.602	1	7
576.772	1	10
576.941	1	4
577.111	1	-1
577.281	1	-3
577.451	1	5
577.621	1	3
577.791	1	9
577.960	1	-5
578.130	1	-5
578.300	1	-5
578.470	1	7
578.640	1	0
578.810	1	1
578.979	1	7
579.149	1	-3
579.319	1	-5
579.489	1	-5
579.659	1	-2
579.829	1	3
579.998	1	3
580.168	1	18
580.338	1	8
580.508	1	-8
580.678	1	-3
580.848	1	-2
581.017	1	-4
581.187	1	6
581.357	1	1
581.527	1	-3
581.697	1	1
581.867	1	7
582.036	1	-1
582.206	1	1
582.376	1	11
582.546	1	-5
582.716	1	-3
582.885	1	-3
583.055	1	12
583.225	1	-9
583.395	1	7
583.565	1	-6
583.735	1	7
583.904	1	1
584.074	1	1
584.244	1	7
584.414	1	7
584.584	1	6
584.753	1	-2
584.923	1	-1
585.093	1	9
585.263	1	3
585.433	1	15
585.602	1	-2
585.772	1	4
585.942	1	-14
586.112	1	3
586.282	1	8
586.451	1	-2
586.621	1	-1
586.791	1	-3
586.961	1	2
587.131	1	7
587.300	1	9
587.470	1	10
587.640	1	10
587.810	1	-6
587.980	1	-4
588.149	1	8
588.319	1	14
588.489	1	8
588.659	1	-6
588.829	1	2
588.998	1	8
589.168	1	5
589.338	1	7
589.508	1	12
589.677	1	-2
589.847	1	-5
590.017	1	14
590.187	1	-11
590.357	1	4
590.526	1	10
590.696	1	6
590.866	1	11
591.036	1	-9
591.205	1	21
591.375	1	-12
591.545	1	-3
591.715	1	9
591.885	1	1
592.054	1	4
592.224	1	-8
592.394	1	0
592.564	1	5
592.733	1	11
592.903	1	-4
593.073	1	-2
593.243	1	7
593.412	1	0
593.582	1	-2
593.752	1	-1
593.922	1	2
594.091	1	-4
594.261	1	3
594.431	1	4
594.601	1	13
594.771	1	7
594.940	1	4
595.110	1	1
595.280	1	1
595.450	1	-5
595.619	1	10
595.789	1	8
595.959	1	10
596.129	1	0
596.298	1	2
596.468	1	-3
596.638	1	-1
596.808	1	-4
596.977	1	-3
597.147	1	0
597.317	1	-7
597.487	1	-1
597.656	1	6
597.826	1	11
597.996	1	12
598.166	1	-3
598.335	1	-2
598.505	1	1
598.675	1	2
598.844	1	-2
599.014	1	3
599.184	1	5
599.354	1	-11
599.523	1	11
599.693	1	2
599.863	1	7
600.033	1	-4
600.202	1	3
600.372	1	9
600.542	1	7
600.712	1	-1
600.881	1	9
601.051	1	6
601.221	1	12
601.390	1	-5
601.560	1	7
601.730	1	7
601.900	1	-3
602.069	1	9
602.239	1	0
602.409	1	-12
602.578	1	0
602.748	1	-4
602.918	1	6
603.088	1	11
603.257	1	2
603.427	1	0
603.597	1	7
603.767	1	7
603.936	1	7
604.106	1	0
604.276	1	-4
604.445	1	-3
604.615	1	-7
604.785	1	-3
604.954	1	6
605.124	1	2
605.294	1	9
605.464	1	-3
605.633	1	-6
605.803	1	8
605.973	1	-2
606.142	1	8
606.312	1	10
606.482	1	10
606.652	1	12
606.821	1	-5
606.991	1	-4
607.161	1	0
607.330	1	7
607.500	1	-7
607.670	1	1
607.839	1	1
608.009	1	13
608.179	1	5
608.348	1	0
608.518	1	-4
608.688	1	17
608.858	1	1
609.027	1	4
609.197	1	2
609.367	1	8
609.536	1	-2
609.706	1	-1
609.876	1	0
610.045	1	-1
610.215	1	4
610.385	1	9
610.554	1	7
610.724	1	9
610.894	1	2
611.063	1	5
611.233	1	-2
611.403	1	-10
611.572	1	4
611.742	1	15
611.912	1	8
612.081	1	2
612.251	1	8
612.421	1	-6
612.590	1	4
612.760	1	-2
612.930	1	0
613.099	1	3
613.269	1	7
613.439	1	8
613.608	1	-5
613.778	1	9
613.948	1	-8
614.117	1	8
614.287	1	9
614.457	1	1
614.626	1	-6
614.796	1	5
614.966	1	1
615.135	1	-6
615.305	1	9
615.475	1	4
615.644	1	9
615.814	1	11
615.984	1	2
616.153	1	4
616.323	1	-1
616.493	1	0
616.662	1	15
616.832	1	9
617.002	1	-1
617.171	1	1
617.341	1	-4
617.511	1	1
617.680	1	-1
617.850	1	14
618.019	1	7
618.189	1	8
618.359	1	11
618.528	1	4
618.698	1	8
618.868	1	-8
619.037	1	1
619.207	1	0
619.377	1	6
619.546	1	2
619.716	1	4
619.885	1	-3
620.055	1	-4
620.225	1	9
620.394	1	-8
620.564	1	7
620.734	1	-8
620.903	1	-5
621.073	1	8
621.242	1	8
621.412	1	-1
621.582	1	6
621.751	1	7
621.921	1	3
622.091	1	-8
622.260	1	-2
622.430	1	6
622.599	1	1
622.769	1	13
622.939	1	13
623.108	1	4
623.278	1	-1
623.448	1	9
623.617	1	10
623.787	1	-2
623.956	1	14
624.126	1	-2
624.296	1	-6
624.465	1	4
624.635	1	7
624.804	1	10
624.974	1	5
625.144	1	9
625.313	1	1
625.483	1	-6
625.652	1	1
625.822	1	4
625.992	1	-3
626.161	1	7
626.331	1	10
626.501	1	6
626.670	1	6
626.840	1	1
627.009	1	0
627.179	1	7
627.348	1	2
627.518	1	6
627.688	1	3
627.857	1	12
628.027	1	-1
628.196	1	2
628.366	1	7
628.536	1	1
628.705	1	1
628.875	1	1
629.044	1	-9
629.214	1	8
629.384	1	0
629.553	1	7
629.723	1	5
629.892	1	-3
630.062	1	13
630.232	1	2
630.401	1	9
630.571	1	3
630.740	1	4
630.910	1	2
631.079	1	-3
631.249	1	1
631.419	1	8
631.588	1	-11
631.758	1	11
631.927	1	-3
632.097	1	10
632.266	1	-1
632.436	1	10
632.606	1	2
632.775	1	9
632.945	1	4
633.114	1	5
633.284	1	2
633.453	1	8
633.623	1	7
633.793	1	2
633.962	1	6
634.132	1	-4
634.301	1	7
634.471	1	6
634.640	1	11
634.810	1	1
634.979	1	11
635.149	1	3
635.319	1	8
635.488	1	5
635.658	1	2
635.827	1	5
635.997	1	-3
636.166	1	-3
636.336	1	-1
636.505	1	12
636.675	1	6
636.845	1	13
637.014	1	10
637.184	1	1
637.353	1	6
637.523	1	12
637.692	1	-1
637.862	1	8
638.031	1	0
638.201	1	7
638.370	1	2
638.540	1	3
638.710	1	4
638.879	1	-11
639.049	1	2
639.218	1	2
639.388	1	3
639.557	1	1
639.727	1	6
639.896	1	-1
640.066	1	4
640.235	1	3
640.405	1	-3
640.574	1	-4
640.744	1	-3
640.914	1	10
641.083	1	-3
641.253	1	-3
641.422	1	3
641.592	1	9
641.761	1	3
641.931	1	0
642.100	1	21
642.270	1	-1
642.439	1	12
642.609	1	4
642.778	1	2
642.948	1	2
643.117	1	17
643.287	1	1
643.456	1	6
643.626	1	15
643.795	1	7
643.965	1	1
644.134	1	4
644.304	1	9
644.473	1	3
644.643	1	8
644.812	1	1
644.982	1	4
645.151	1	8
645.321	1	-1
645.490	1	20
645.660	1	-6
645.829	1	-5
645.999	1	-8
646.168	1	10
646.338	1	12
646.507	1	0
646.677	1	3
646.846	1	2
647.016	1	-5
647.185	1	14
647.355	1	-5
647.524	1	8
647.694	1	13
647.863	1	10
648.033	1	2
648.202	1	8
648.372	1	-2
648.541	1	1
648.711	1	5
648.880	1	0
649.050	1	-5
649.219	1	14
649.389	1	8
649.558	1	6
649.728	1	-1
649.897	1	0
650.067	1	10
650.236	1	6
650.406	1	11
650.575	1	18
650.745	1	12
650.914	1	-6
651.084	1	-5
651.253	1	6
651.423	1	-4
651.592	1	-3
651.762	1	-2
651.931	1	14
652.101	1	8
652.270	1	15
652.440	1	11
652.609	1	2
652.778	1	-7
652.948	1	8
653.117	1	4
653.287	1	6
653.456	1	6
653.626	1	11
653.795	1	4
653.965	1	3
654.134	1	10
654.304	1	-4
654.473	1	13
654.643	1	7
654.812	1	-4
654.982	1	-3
655.151	1	2
655.320	1	-4
655.490	1	2
655.659	1	4
655.829	1	2
655.998	1	6
656.168	1	-4
656.337	1	11
656.507	1	8
656.676	1	6
656.846	1	11
657.015	1	7
657.184	1	5
657.354	1	8
657.523	1	9
657.693	1	8
657.862	1	4
658.032	1	2
658.201	1	5
658.371	1	9
658.540	1	4
658.709	1	0
658.879	1	16
659.048	1	-2
659.218	1	10
659.387	1	7
659.557	1	9
659.726	1	9
659.895	1	-3
660.065	1	0
660.234	1	0
660.404	1	3
660.573	1	3
660.743	1	5
660.912	1	13
661.081	1	13
661.251	1	3
661.420	1	1
661.590	1	11
661.759	1	11
661.929	1	12
662.098	1	14
662.267	1	5
662.437	1	13
662.606	1	1
662.776	1	5
662.945	1	1
663.115	1	4
663.284	1	-2
663.453	1	1
663.623	1	3
663.792	1	10
663.962	1	1
664.131	1	8
664.300	1	9
664.470	1	7
664.639	1	4
664.809	1	3
664.978	1	4
665.148	1	17
665.317	1	-1
665.486	1	14
665.656	1	2
665.825	1	10
665.995	1	3
666.164	1	9
666.333	1	6
666.503	1	4
666.672	1	-8
666.842	1	6
667.011	1	-2
667.180	1	11
667.350	1	7
667.519	1	9
667.689	1	4
667.858	1	8
668.027	1	23
668.197	1	0
668.366	1	-8
668.536	1	12
668.705	1	12
668.874	1	9
669.044	1	-1
669.213	1	11
669.382	1	2
669.552	1	13
669.721	1	11
669.891	1	15
670.060	1	8
670.229	1	19
670.399	1	-7
670.568	1	15
670.738	1	9
670.907	1	1
671.076	1	0
671.246	1	3
671.415	1	-3
671.584	1	5
671.754	1	3
671.923	1	-6
672.093	1	7
672.262	1	-4
672.431	1	4
672.601	1	-2
672.770	1	-2
672.939	1	10
673.109	1	1
673.278	1	8
673.448	1	13
673.617	1	3
673.786	1	2
