325.333	1	8
325.504	1	11
325.675	1	6
325.846	1	6
326.017	1	5
326.188	1	2
326.359	1	0
326.531	1	-12
326.702	1	-7
326.873	1	3
327.044	1	-2
327.215	1	10
327.386	1	-2
327.557	1	-5
327.728	1	-1
327.899	1	11
328.070	1	13
328.241	1	3
328.412	1	-9
328.583	1	4
328.754	1	-1
328.926	1	13
329.097	1	-5
329.268	1	13
329.439	1	-9
329.610	1	8
329.781	1	-6
329.952	1	4
330.123	1	12
330.294	1	0
330.465	1	6
330.636	1	15
330.807	1	3
330.978	1	4
331.149	1	6
331.320	1	-9
331.492	1	10
331.663	1	-2
331.834	1	5
332.005	1	12
332.176	1	21
332.347	1	6
332.518	1	-4
332.689	1	14
332.860	1	5
333.031	1	12
333.202	1	1
333.373	1	11
333.544	1	-2
333.715	1	8
333.886	1	-5
334.057	1	5
334.228	1	1
334.399	1	8
334.570	1	12
334.741	1	1
334.912	1	5
335.084	1	14
335.255	1	6
335.426	1	1
335.597	1	9
335.768	1	0
335.939	1	12
336.110	1	7
336.281	1	7
336.452	1	-4
336.623	1	4
336.794	1	14
336.965	1	9
337.136	1	11
337.307	1	5
337.478	1	0
337.649	1	11
337.820	1	1
337.991	1	8
338.162	1	10
338.333	1	9
338.504	1	13
338.675	1	15
338.846	1	6
339.017	1	11
339.188	1	5
339.359	1	-3
339.530	1	-2
339.701	1	15
339.872	1	18
340.043	1	4
340.214	1	10
340.385	1	16
340.556	1	2
340.727	1	7
340.898	1	16
341.069	1	12
341.240	1	2
341.411	1	4
341.582	1	6
341.753	1	-3
341.924	1	-2
342.095	1	16
342.266	1	18
342.437	1	7
342.608	1	-1
342.779	1	12
342.950	1	9
343.121	1	15
343.292	1	1
343.463	1	10
343.634	1	4
343.805	1	17
343.976	1	6
344.147	1	13
344.318	1	14
344.489	1	7
344.660	1	27
344.831	1	14
345.002	1	0
345.173	1	17
345.344	1	8
345.515	1	12
345.686	1	3
345.857	1	6
346.028	1	11
346.199	1	1
346.370	1	14
346.541	1	18
346.712	1	4
346.883	1	12
347.054	1	14
347.225	1	4
347.396	1	10
347.567	1	7
347.738	1	4
347.909	1	22
348.080	1	3
348.251	1	6
348.422	1	14
348.593	1	7
348.764	1	3
348.935	1	13
349.106	1	9
349.277	1	12
349.448	1	16
349.619	1	15
349.790	1	10
349.961	1	15
350.132	1	19
350.303	1	12
350.474	1	20
350.645	1	18
350.816	1	10
350.987	1	8
351.157	1	10
351.328	1	12
351.499	1	16
351.670	1	3
351.841	1	15
352.012	1	9
352.183	1	14
352.354	1	21
352.525	1	22
352.696	1	18
352.867	1	9
353.038	1	21
353.209	1	10
353.380	1	15
353.551	1	6
353.722	1	21
353.893	1	6
354.064	1	13
354.235	1	11
354.406	1	8
354.576	1	10
354.747	1	6
354.918	1	7
355.089	1	19
355.260	1	17
355.431	1	16
355.602	1	13
355.773	1	14
355.944	1	20
356.115	1	18
356.286	1	11
356.457	1	16
356.628	1	11
356.799	1	15
356.970	1	19
357.141	1	7
357.311	1	9
357.482	1	14
357.653	1	17
357.824	1	26
357.995	1	6
358.166	1	11
358.337	1	12
358.508	1	23
358.679	1	14
358.850	1	16
359.021	1	14
359.192	1	15
359.363	1	10
359.533	1	16
359.704	1	12
359.875	1	12
360.046	1	11
360.217	1	7
360.388	1	6
360.559	1	10
360.730	1	17
360.901	1	17
361.072	1	26
361.243	1	26
361.414	1	16
361.584	1	12
361.755	1	18
361.926	1	11
362.097	1	6
362.268	1	10
362.439	1	10
362.610	1	22
362.781	1	11
362.952	1	5
363.123	1	18
363.293	1	10
363.464	1	24
363.635	1	22
363.806	1	14
363.977	1	20
364.148	1	16
364.319	1	16
364.490	1	12
364.661	1	11
364.832	1	12
365.002	1	26
365.173	1	17
365.344	1	15
365.515	1	13
365.686	1	17
365.857	1	24
366.028	1	22
366.199	1	4
366.370	1	19
366.540	1	5
366.711	1	2
366.882	1	12
367.053	1	5
367.224	1	32
367.395	1	19
367.566	1	26
367.737	1	11
367.908	1	22
368.078	1	22
368.249	1	18
368.420	1	1
368.591	1	13
368.762	1	9
368.933	1	13
369.104	1	0
369.274	1	12
369.445	1	13
369.616	1	19
369.787	1	23
369.958	1	15
370.129	1	5
370.300	1	25
370.471	1	4
370.641	1	17
370.812	1	21
370.983	1	19
371.154	1	13
371.325	1	26
371.496	1	22
371.667	1	21
371.837	1	11
372.008	1	18
372.179	1	18
372.350	1	27
372.521	1	18
372.692	1	10
372.863	1	30
373.033	1	10
373.204	1	12
373.375	1	19
373.546	1	14
373.717	1	22
373.888	1	29
374.059	1	21
374.229	1	21
374.400	1	11
374.571	1	16
374.742	1	28
374.913	1	21
375.084	1	10
375.254	1	20
375.425	1	17
375.596	1	21
375.767	1	24
375.938	1	18
376.109	1	22
376.279	1	20
376.450	1	26
376.621	1	22
376.792	1	16
376.963	1	17
377.134	1	24
377.304	1	16
377.475	1	14
377.646	1	18
377.817	1	16
377.988	1	19
378.159	1	15
378.329	1	18
378.500	1	12
378.671	1	16
378.842	1	23
379.013	1	10
379.184	1	16
379.354	1	20
379.525	1	15
379.696	1	25
379.867	1	31
380.038	1	16
380.209	1	27
380.379	1	16
380.550	1	16
380.721	1	30
380.892	1	25
381.063	1	23
381.233	1	18
381.404	1	22
381.575	1	23
381.746	1	23
381.917	1	13
382.087	1	29
382.258	1	18
382.429	1	23
382.600	1	23
382.771	1	14
382.941	1	6
383.112	1	23
383.283	1	25
383.454	1	20
383.625	1	17
383.795	1	26
383.966	1	19
384.137	1	26
384.308	1	26
384.479	1	22
384.649	1	25
384.820	1	25
384.991	1	17
385.162	1	31
385.333	1	21
385.503	1	16
385.674	1	18
385.845	1	21
386.016	1	19
386.187	1	20
386.357	1	21
386.528	1	26
386.699	1	14
386.870	1	30
387.041	1	28
387.211	1	20
387.382	1	36
387.553	1	26
387.724	1	23
387.894	1	17
388.065	1	23
388.236	1	33
388.407	1	20
388.578	1	20
388.748	1	14
388.919	1	25
389.090	1	17
389.261	1	25
389.431	1	28
389.602	1	17
389.773	1	24
389.944	1	16
390.114	1	16
390.285	1	15
390.456	1	24
390.627	1	29
390.798	1	21
390.968	1	20
391.139	1	22
391.310	1	22
391.481	1	19
391.651	1	25
391.822	1	14
391.993	1	24
392.164	1	12
392.334	1	26
392.505	1	20
392.676	1	25
392.847	1	27
393.017	1	25
393.188	1	22
393.359	1	13
393.530	1	27
393.700	1	19
393.871	1	12
394.042	1	24
394.213	1	17
394.383	1	24
394.554	1	17
394.725	1	26
394.896	1	29
395.066	1	29
395.237	1	14
395.408	1	21
395.579	1	15
395.749	1	30
395.920	1	19
396.091	1	23
396.262	1	17
396.432	1	27
396.603	1	37
396.774	1	40
396.945	1	30
397.115	1	19
397.286	1	29
397.457	1	14
397.627	1	30
397.798	1	34
397.969	1	21
398.140	1	23
398.310	1	26
398.481	1	26
398.652	1	24
398.823	1	25
398.993	1	18
399.164	1	14
399.335	1	40
399.505	1	21
399.676	1	21
399.847	1	27
400.018	1	27
400.188	1	21
400.359	1	29
400.530	1	28
400.700	1	26
400.871	1	22
401.042	1	28
401.213	1	24
401.383	1	31
401.554	1	45
401.725	1	23
401.895	1	29
402.066	1	23
402.237	1	25
402.408	1	34
402.578	1	28
402.749	1	21
402.920	1	40
403.090	1	11
403.261	1	19
403.432	1	20
403.603	1	33
403.773	1	29
403.944	1	37
404.115	1	31
404.285	1	28
404.456	1	33
404.627	1	18
404.797	1	21
404.968	1	27
405.139	1	21
405.310	1	34
405.480	1	42
405.651	1	16
405.822	1	19
405.992	1	26
406.163	1	30
406.334	1	14
406.504	1	26
406.675	1	38
406.846	1	29
407.016	1	28
407.187	1	32
407.358	1	22
407.528	1	29
407.699	1	14
407.870	1	20
408.041	1	29
408.211	1	35
408.382	1	17
408.553	1	29
408.723	1	20
408.894	1	20
409.065	1	30
409.235	1	22
409.406	1	38
409.577	1	25
409.747	1	37
409.918	1	28
410.089	1	32
410.259	1	32
410.430	1	31
410.601	1	29
410.771	1	29
410.942	1	45
411.113	1	25
411.283	1	28
411.454	1	29
411.625	1	25
411.795	1	31
411.966	1	27
412.137	1	27
412.307	1	18
412.478	1	21
412.649	1	30
412.819	1	34
412.990	1	25
413.161	1	22
413.331	1	25
413.502	1	26
413.672	1	29
413.843	1	38
414.014	1	26
414.184	1	33
414.355	1	23
414.526	1	23
414.696	1	37
414.867	1	39
415.038	1	9
415.208	1	26
415.379	1	34
415.550	1	28
415.720	1	20
415.891	1	24
416.062	1	24
416.232	1	23
416.403	1	25
416.573	1	33
416.744	1	25
416.915	1	26
417.085	1	37
417.256	1	36
417.427	1	28
417.597	1	33
417.768	1	25
417.939	1	28
418.109	1	31
418.280	1	26
418.450	1	26
418.621	1	9
418.792	1	25
418.962	1	31
419.133	1	40
419.304	1	26
419.474	1	19
419.645	1	22
419.815	1	19
419.986	1	29
420.157	1	21
420.327	1	37
420.498	1	30
420.669	1	27
420.839	1	48
421.010	1	28
421.180	1	21
421.351	1	28
421.522	1	31
421.692	1	29
421.863	1	29
422.033	1	22
422.204	1	21
422.375	1	15
422.545	1	38
422.716	1	21
422.886	1	31
423.057	1	32
423.228	1	23
423.398	1	20
423.569	1	24
423.740	1	14
423.910	1	17
424.081	1	23
424.251	1	29
424.422	1	32
424.593	1	14
424.763	1	31
424.934	1	13
425.104	1	22
425.275	1	27
425.445	1	23
425.616	1	18
425.787	1	25
425.957	1	21
426.128	1	33
426.298	1	34
426.469	1	23
426.640	1	21
426.810	1	42
426.981	1	21
427.151	1	15
427.322	1	37
427.493	1	16
427.663	1	27
427.834	1	27
428.004	1	29
428.175	1	23
428.345	1	27
428.516	1	14
428.687	1	27
428.857	1	6
429.028	1	19
429.198	1	22
429.369	1	32
429.540	1	30
429.710	1	18
429.881	1	29
430.051	1	26
430.222	1	21
430.392	1	20
430.563	1	29
430.734	1	24
430.904	1	27
431.075	1	26
431.245	1	20
431.416	1	30
431.586	1	26
431.757	1	25
431.927	1	21
432.098	1	22
432.269	1	26
432.439	1	23
432.610	1	19
432.780	1	34
432.951	1	25
433.121	1	20
433.292	1	34
433.462	1	27
433.633	1	21
433.804	1	19
433.974	1	17
434.145	1	41
434.315	1	17
434.486	1	19
434.656	1	25
434.827	1	16
434.997	1	9
435.168	1	31
435.339	1	29
435.509	1	29
435.680	1	28
435.850	1	23
436.021	1	17
436.191	1	17
436.362	1	22
436.532	1	23
436.703	1	29
436.873	1	15
437.044	1	20
437.214	1	14
437.385	1	12
437.556	1	23
437.726	1	29
437.897	1	35
438.067	1	20
438.238	1	20
438.408	1	25
438.579	1	24
438.749	1	11
438.920	1	14
439.090	1	19
439.261	1	8
439.431	1	11
439.602	1	23
439.772	1	23
439.943	1	39
440.113	1	20
440.284	1	25
440.455	1	30
440.625	1	22
440.796	1	22
440.966	1	17
441.137	1	19
441.307	1	20
441.478	1	25
441.648	1	29
441.819	1	23
441.989	1	22
442.160	1	31
442.330	1	21
442.501	1	31
442.671	1	20
442.842	1	6
443.012	1	13
443.183	1	18
443.353	1	9
443.524	1	18
443.694	1	28
443.865	1	21
444.035	1	24
444.206	1	16
444.376	1	7
444.547	1	27
444.717	1	21
444.888	1	20
445.058	1	35
445.229	1	24
445.399	1	14
445.570	1	19
445.740	1	20
445.911	1	23
446.081	1	19
446.252	1	32
446.422	1	17
446.593	1	19
446.763	1	24
446.934	1	13
447.104	1	21
447.275	1	17
447.445	1	24
447.616	1	31
447.786	1	19
447.957	1	29
448.127	1	15
448.298	1	25
448.468	1	15
448.639	1	17
448.809	1	24
448.979	1	18
449.150	1	30
449.320	1	16
449.491	1	30
449.661	1	14
449.832	1	24
450.002	1	24
450.173	1	18
450.343	1	15
450.514	1	24
450.684	1	15
450.855	1	18
451.025	1	30
451.196	1	19
451.366	1	33
451.537	1	6
451.707	1	7
451.878	1	25
452.048	1	21
452.218	1	13
452.389	1	26
452.559	1	11
452.730	1	27
452.900	1	21
453.071	1	8
453.241	1	18
453.412	1	13
453.582	1	5
453.753	1	25
453.923	1	16
454.093	1	21
454.264	1	30
454.434	1	13
454.605	1	16
454.775	1	20
454.946	1	21
455.116	1	22
455.287	1	16
455.457	1	9
455.628	1	12
455.798	1	15
455.968	1	24
456.139	1	13
456.309	1	16
456.480	1	13
456.650	1	9
456.821	1	18
456.991	1	20
457.161	1	11
457.332	1	17
457.502	1	15
457.673	1	23
457.843	1	17
458.014	1	9
458.184	1	13
458.355	1	5
458.525	1	12
458.695	1	25
458.866	1	13
459.036	1	20
459.207	1	17
459.377	1	17
459.548	1	26
459.718	1	6
459.888	1	25
460.059	1	20
460.229	1	25
460.400	1	25
460.570	1	21
460.740	1	23
460.911	1	13
461.081	1	18
461.252	1	14
461.422	1	14
461.593	1	15
461.763	1	21
461.933	1	21
462.104	1	12
462.274	1	24
462.445	1	28
462.615	1	7
462.785	1	16
462.956	1	21
463.126	1	18
463.297	1	17
463.467	1	16
463.638	1	16
463.808	1	16
463.978	1	13
464.149	1	13
464.319	1	12
464.490	1	27
464.660	1	6
464.830	1	14
465.001	1	13
465.171	1	15
465.342	1	20
465.512	1	8
465.682	1	12
465.853	1	23
466.023	1	19
466.194	1	16
466.364	1	22
466.534	1	16
466.705	1	12
466.875	1	10
467.045	1	19
467.216	1	25
467.386	1	11
467.557	1	13
467.727	1	8
467.897	1	9
468.068	1	22
468.238	1	14
468.409	1	14
468.579	1	19
468.749	1	16
468.920	1	1
469.090	1	23
469.260	1	6
469.431	1	7
469.601	1	17
469.772	1	19
469.942	1	11
470.112	1	22
470.283	1	9
470.453	1	15
470.623	1	12
470.794	1	10
470.964	1	23
471.135	1	17
471.305	1	-3
471.475	1	13
471.646	1	4
471.816	1	5
471.986	1	4
472.157	1	22
472.327	1	12
472.497	1	9
472.668	1	4
472.838	1	10
473.009	1	16
473.179	1	0
473.349	1	5
473.520	1	21
473.690	1	23
473.860	1	11
474.031	1	14
474.201	1	11
474.371	1	24
474.542	1	13
474.712	1	12
474.882	1	6
475.053	1	23
475.223	1	7
475.394	1	20
475.564	1	17
475.734	1	14
475.905	1	17
476.075	1	11
476.245	1	16
476.416	1	17
476.586	1	12
476.756	1	12
476.927	1	19
477.097	1	10
477.267	1	5
477.438	1	13
477.608	1	5
477.778	1	22
477.949	1	14
478.119	1	21
478.289	1	17
478.460	1	21
478.630	1	18
478.800	1	13
478.971	1	15
479.141	1	10
479.311	1	3
479.482	1	9
479.652	1	2
479.822	1	15
479.993	1	17
480.163	1	21
480.333	1	14
480.504	1	19
480.674	1	7
480.844	1	-2
481.015	1	14
481.185	1	12
481.355	1	13
481.525	1	7
481.696	1	17
481.866	1	11
482.036	1	13
482.207	1	8
482.377	1	12
482.547	1	17
482.718	1	14
482.888	1	17
483.058	1	10
483.229	1	8
483.399	1	9
483.569	1	17
483.740	1	9
483.910	1	13
484.080	1	14
484.250	1	9
484.421	1	19
484.591	1	8
484.761	1	22
484.932	1	19
485.102	1	18
485.272	1	19
485.443	1	17
485.613	1	9
485.783	1	8
485.953	1	16
486.124	1	19
486.294	1	13
486.464	1	12
486.635	1	15
486.805	1	15
486.975	1	2
487.146	1	14
487.316	1	12
487.486	1	14
487.656	1	8
487.827	1	4
487.997	1	0
488.167	1	9
488.338	1	17
488.508	1	4
488.678	1	5
488.848	1	20
489.019	1	7
489.189	1	14
489.359	1	9
489.529	1	17
489.700	1	6
489.870	1	25
490.040	1	-1
490.211	1	7
490.381	1	18
490.551	1	9
490.721	1	12
490.892	1	0
491.062	1	4
491.232	1	14
491.402	1	9
491.573	1	4
491.743	1	7
491.913	1	4
492.084	1	25
492.254	1	9
492.424	1	4
492.594	1	3
492.765	1	7
492.935	1	12
493.105	1	11
493.275	1	16
493.446	1	14
493.616	1	18
493.786	1	11
493.956	1	16
494.127	1	11
494.297	1	0
494.467	1	0
494.637	1	4
494.808	1	9
494.978	1	9
495.148	1	4
495.318	1	8
495.489	1	14
495.659	1	14
495.829	1	3
495.999	1	-5
496.170	1	12
496.340	1	12
496.510	1	15
496.680	1	0
496.851	1	14
497.021	1	9
497.191	1	10
497.361	1	6
497.532	1	4
497.702	1	12
497.872	1	11
498.042	1	17
498.213	1	9
498.383	1	5
498.553	1	5
498.723	1	12
498.894	1	11
499.064	1	8
499.234	1	11
499.404	1	6
499.574	1	17
499.745	1	15
499.915	1	10
500.085	1	9
500.255	1	11
500.426	1	7
500.596	1	4
500.766	1	12
500.936	1	11
501.106	1	3
501.277	1	7
501.447	1	5
501.617	1	3
501.787	1	9
501.958	1	4
502.128	1	4
502.298	1	10
502.468	1	4
502.638	1	15
502.809	1	16
502.979	1	2
503.149	1	-9
503.319	1	5
503.489	1	9
503.660	1	3
503.830	1	7
504.000	1	6
504.170	1	9
504.340	1	4
504.511	1	12
504.681	1	11
504.851	1	12
505.021	1	9
505.192	1	0
505.362	1	16
505.532	1	7
505.702	1	4
505.872	1	1
506.043	1	9
506.213	1	-12
506.383	1	14
506.553	1	8
506.723	1	11
506.893	1	11
507.064	1	15
507.234	1	-1
507.404	1	4
507.574	1	4
507.744	1	9
507.915	1	8
508.085	1	21
508.255	1	9
508.425	1	-2
508.595	1	15
508.766	1	11
508.936	1	-3
509.106	1	13
509.276	1	16
509.446	1	4
509.616	1	4
509.787	1	12
509.957	1	-3
510.127	1	13
510.297	1	7
510.467	1	-3
510.638	1	9
510.808	1	0
510.978	1	-5
511.148	1	9
511.318	1	-2
511.488	1	2
511.659	1	8
511.829	1	5
511.999	1	14
512.169	1	6
512.339	1	3
512.509	1	1
512.680	1	2
512.850	1	2
513.020	1	7
513.190	1	7
513.360	1	5
513.530	1	6
513.700	1	12
513.871	1	1
514.041	1	10
514.211	1	10
514.381	1	10
514.551	1	3
514.721	1	-3
514.892	1	11
515.062	1	7
515.232	1	16
515.402	1	1
515.572	1	-1
515.742	1	16
515.912	1	-2
516.083	1	3
516.253	1	3
516.423	1	-4
516.593	1	7
516.763	1	16
516.933	1	2
517.104	1	12
517.274	1	2
517.444	1	3
517.614	1	-5
517.784	1	2
517.954	1	7
518.124	1	8
518.294	1	13
518.465	1	3
518.635	1	3
518.805	1	0
518.975	1	10
519.145	1	8
519.315	1	1
519.485	1	3
519.656	1	7
519.826	1	10
519.996	1	2
520.166	1	4
520.336	1	10
520.506	1	5
520.676	1	-6
520.846	1	9
521.017	1	9
521.187	1	9
521.357	1	13
521.527	1	4
521.697	1	11
521.867	1	5
522.037	1	13
522.207	1	14
522.377	1	14
522.548	1	10
522.718	1	5
522.888	1	12
523.058	1	1
523.228	1	13
523.398	1	5
523.568	1	15
523.738	1	7
523.909	1	21
524.079	1	5
524.249	1	1
524.419	1	1
524.589	1	5
524.759	1	2
524.929	1	10
525.099	1	3
525.269	1	4
525.439	1	6
525.610	1	17
525.780	1	-2
525.950	1	4
526.120	1	2
526.290	1	5
526.460	1	-4
526.630	1	6
526.800	1	3
526.970	1	2
527.140	1	12
527.311	1	2
527.481	1	-1
527.651	1	7
527.821	1	5
527.991	1	13
528.161	1	20
528.331	1	-5
528.501	1	6
528.671	1	-1
528.841	1	7
529.011	1	-5
529.181	1	-1
529.352	1	10
529.522	1	1
529.692	1	2
529.862	1	7
530.032	1	4
530.202	1	-2
530.372	1	6
530.542	1	9
530.712	1	-2
530.882	1	14
531.052	1	2
531.222	1	1
531.392	1	-4
531.563	1	8
531.733	1	-5
531.903	1	3
532.073	1	12
532.243	1	9
532.413	1	13
532.583	1	15
532.753	1	2
532.923	1	-5
533.093	1	0
533.263	1	6
533.433	1	7
533.603	1	1
533.773	1	0
533.943	1	6
534.113	1	7
534.284	1	2
534.454	1	11
534.624	1	9
534.794	1	-11
534.964	1	9
535.134	1	8
535.304	1	-1
535.474	1	14
535.644	1	4
535.814	1	2
535.984	1	-2
536.154	1	-8
536.324	1	0
536.494	1	9
536.664	1	4
536.834	1	1
537.004	1	2
537.174	1	16
537.344	1	5
537.514	1	-5
537.685	1	0
537.855	1	9
538.025	1	9
538.195	1	2
538.365	1	19
538.535	1	3
538.705	1	8
538.875	1	9
539.045	1	8
539.215	1	0
539.385	1	6
539.555	1	8
539.725	1	-5
539.895	1	-1
540.065	1	17
540.235	1	-2
540.405	1	0
540.575	1	1
540.745	1	3
540.915	1	10
541.085	1	13
541.255	1	-7
541.425	1	6
541.595	1	12
541.765	1	3
541.935	1	3
542.105	1	-5
542.275	1	2
542.445	1	-8
542.615	1	-1
542.785	1	4
542.955	1	1
543.125	1	1
543.295	1	3
543.465	1	12
543.635	1	3
543.805	1	19
543.975	1	0
544.145	1	13
544.315	1	8
544.485	1	8
544.655	1	-2
544.825	1	-11
544.995	1	6
545.165	1	3
545.335	1	4
545.505	1	-2
545.675	1	5
545.845	1	11
546.015	1	9
546.185	1	8
546.355	1	6
546.525	1	-1
546.695	1	14
546.865	1	1
547.035	1	8
547.205	1	-14
547.375	1	16
547.545	1	8
547.715	1	-4
547.885	1	0
548.055	1	3
548.225	1	6
548.395	1	-2
548.565	1	4
548.735	1	-3
548.905	1	11
549.075	1	-3
549.245	1	2
549.415	1	-7
549.585	1	3
549.755	1	6
549.925	1	-6
550.095	1	5
550.265	1	1
550.435	1	3
550.605	1	5
550.775	1	-4
550.945	1	7
551.115	1	1
551.285	1	4
551.455	1	-6
551.625	1	6
551.795	1	13
551.965	1	-5
552.135	1	-1
552.305	1	-1
552.475	1	-11
552.645	1	-5
552.815	1	-4
552.985	1	-1
553.155	1	3
553.325	1	13
553.495	1	-3
553.665	1	-2
553.835	1	-4
554.004	1	4
554.174	1	1
554.344	1	9
554.514	1	-1
554.684	1	0
554.854	1	17
555.024	1	0
555.194	1	0
555.364	1	4
555.534	1	0
555.704	1	-3
555.874	1	6
556.044	1	8
556.214	1	-11
556.384	1	5
556.554	1	8
556.724	1	10
556.894	1	4
557.064	1	6
557.234	1	-1
557.404	1	14
557.573	1	-7
557.743	1	5
557.913	1	-5
558.083	1	2
558.253	1	11
558.423	1	4
558.593	1	13
558.763	1	-9
558.933	1	7
559.103	1	8
559.273	1	11
559.443	1	6
559.613	1	8
559.783	1	-6
559.953	1	-1
560.122	1	12
560.292	1	3
560.462	1	-6
560.632	1	1
560.802	1	6
560.972	1	10
561.142	1	-4
561.312	1	-10
561.482	1	13
561.652	1	7
561.822	1	-5
561.992	1	1
562.162	1	8
562.331	1	8
562.501	1	-4
562.671	1	4
562.841	1	-6
563.011	1	6
563.181	1	3
563.351	1	-10
563.521	1	7
563.691	1	-5
563.861	1	-7
564.031	1	11
564.201	1	13
564.370	1	-7
564.540	1	13
564.710	1	3
564.880	1	11
565.050	1	1
565.220	1	-2
565.390	1	8
565.560	1	9
565.730	1	-1
565.900	1	-1
566.069	1	13
566.239	1	3
566.409	1	13
566.579	1	1
566.749	1	1
566.919	1	8
567.089	1	5
567.259	1	10
567.429	1	-2
567.599	1	-3
567.768	1	4
567.938	1	-1
568.108	1	0
568.278	1	-2
568.448	1	1
568.618	1	0
568.788	1	8
568.958	1	2
569.128	1	14
569.297	1	1
569.467	1	-7
569.637	1	4
569.807	1	-4
569.977	1	5
570.147	1	-1
570.317	1	-5
570.487	1	1
570.656	1	6
570.826	1	-6
570.996	1	-3
571.166	1	15
571.336	1	4
571.506	1	9
571.676	1	9
571.846	1	-1
572.015	1	-2
572.185	1	2
572.355	1	4
572.525	1	7
572.695	1	6
572.865	1	-7
573.035	1	6
573.205	1	3
573.374	1	-3
573.544	1	-1
573.714	1	5
573.884	1	2
574.054	1	4
574.224	1	4
574.394	1	-5
574.563	1	-10
574.733	1	3
574.903	1	8
575.073	1	-5
575.243	1	-7
575.413	1	6
575.583	1	-2
575.752	1	7
575.922	1	4
576.092	1	-1
576.262	1	9
576.432	1	2
576.602	1	0
576.772	1	11
576.941	1	8
577.111	1	-3
577.281	1	-1
577.451	1	-5
577.621	1	2
577.791	1	3
577.960	1	-9
578.130	1	3
578.300	1	15
578.470	1	12
578.640	1	5
578.810	1	2
578.979	1	4
579.149	1	-4
579.319	1	1
579.489	1	1
579.659	1	5
579.829	1	5
579.998	1	8
580.168	1	11
580.338	1	3
580.508	1	7
580.678	1	6
580.848	1	5
581.017	1	0
581.187	1	-2
581.357	1	-10
581.527	1	-2
581.697	1	9
581.867	1	13
582.036	1	1
582.206	1	-7
582.376	1	5
582.546	1	2
582.716	1	-2
582.885	1	-5
583.055	1	8
583.225	1	-5
583.395	1	16
583.565	1	-5
583.735	1	0
583.904	1	-4
584.074	1	8
584.244	1	-1
584.414	1	-6
584.584	1	6
584.753	1	-11
584.923	1	-3
585.093	1	6
585.263	1	0
585.433	1	-4
585.602	1	0
585.772	1	0
585.942	1	-5
586.112	1	5
586.282	1	-8
586.451	1	-8
586.621	1	-5
586.791	1	3
586.961	1	-2
587.131	1	4
587.300	1	-5
587.470	1	13
587.640	1	9
587.810	1	0
587.980	1	-1
588.149	1	-5
588.319	1	2
588.489	1	-1
588.659	1	0
588.829	1	1
588.998	1	8
589.168	1	12
589.338	1	2
589.508	1	9
589.677	1	-3
589.847	1	-2
590.017	1	15
590.187	1	-7
590.357	1	12
590.526	1	16
590.696	1	10
590.866	1	9
591.036	1	5
591.205	1	4
591.375	1	-1
591.545	1	-2
591.715	1	7
591.885	1	4
592.054	1	9
592.224	1	0
592.394	1	4
592.564	1	8
592.733	1	1
592.903	1	5
593.073	1	0
593.243	1	11
593.412	1	9
593.582	1	12
593.752	1	-1
593.922	1	6
594.091	1	5
594.261	1	7
594.431	1	6
594.601	1	5
594.771	1	9
594.940	1	-2
595.110	1	-4
595.280	1	9
595.450	1	4
595.619	1	3
595.789	1	6
595.959	1	6
596.129	1	1
596.298	1	0
596.468	1	10
596.638	1	8
596.808	1	8
596.977	1	7
597.147	1	-1
597.317	1	-6
597.487	1	8
597.656	1	-3
597.826	1	14
597.996	1	5
598.166	1	-4
598.335	1	-9
598.505	1	12
598.675	1	-1
598.844	1	3
599.014	1	-6
599.184	1	5
599.354	1	-5
599.523	1	3
599.693	1	-7
599.863	1	10
600.033	1	5
600.202	1	4
600.372	1	6
600.542	1	8
600.712	1	-3
600.881	1	2
601.051	1	9
601.221	1	7
601.390	1	-11
601.560	1	6
601.730	1	14
601.900	1	1
602.069	1	9
602.239	1	-2
602.409	1	-6
602.578	1	-5
602.748	1	1
602.918	1	8
603.088	1	1
603.257	1	6
603.427	1	-2
603.597	1	1
603.767	1	12
603.936	1	-3
604.106	1	13
604.276	1	-1
604.445	1	9
604.615	1	-4
604.785	1	-2
604.954	1	5
605.124	1	8
605.294	1	-6
605.464	1	-3
605.633	1	-1
605.803	1	-5
605.973	1	-6
606.142	1	1
606.312	1	7
606.482	1	-2
606.652	1	14
606.821	1	-2
606.991	1	3
607.161	1	-1
607.330	1	2
607.500	1	3
607.670	1	-4
607.839	1	11
608.009	1	14
608.179	1	10
608.348	1	4
608.518	1	0
608.688	1	12
608.858	1	-5
609.027	1	-6
609.197	1	4
609.367	1	7
609.536	1	12
609.706	1	1
609.876	1	10
610.045	1	-6
610.215	1	4
610.385	1	2
610.554	1	2
610.724	1	16
610.894	1	1
611.063	1	5
611.233	1	9
611.403	1	6
611.572	1	6
611.742	1	5
611.912	1	5
612.081	1	4
612.251	1	3
612.421	1	-1
612.590	1	2
612.760	1	4
612.930	1	5
613.099	1	8
613.269	1	12
613.439	1	-3
613.608	1	1
613.778	1	3
613.948	1	2
614.117	1	1
614.287	1	10
614.457	1	5
614.626	1	5
614.796	1	7
614.966	1	-7
615.135	1	-1
615.305	1	8
615.475	1	-7
615.644	1	9
615.814	1	11
615.984	1	-1
616.153	1	1
616.323	1	-1
616.493	1	-4
616.662	1	10
616.832	1	15
617.002	1	9
617.171	1	7
617.341	1	3
617.511	1	-2
617.680	1	-2
617.850	1	3
618.019	1	16
618.189	1	10
618.359	1	8
618.528	1	12
618.698	1	8
618.868	1	1
619.037	1	5
619.207	1	1
619.377	1	-5
619.546	1	-3
619.716	1	0
619.885	1	-4
620.055	1	-3
620.225	1	11
620.394	1	-6
620.564	1	10
620.734	1	12
620.903	1	-2
621.073	1	3
621.242	1	7
621.412	1	8
621.582	1	2
621.751	1	7
621.921	1	7
622.091	1	-1
622.260	1	3
622.430	1	11
622.599	1	-1
622.769	1	-3
622.939	1	2
623.108	1	-7
623.278	1	-3
623.448	1	2
623.617	1	-1
623.787	1	-2
623.956	1	7
624.126	1	12
624.296	1	-8
624.465	1	3
624.635	1	14
624.804	1	11
624.974	1	0
625.144	1	9
625.313	1	4
625.483	1	-3
625.652	1	2
625.822	1	1
625.992	1	-8
626.161	1	1
626.331	1	4
626.501	1	2
626.670	1	-2
626.840	1	6
627.009	1	6
627.179	1	10
627.348	1	-2
627.518	1	8
627.688	1	3
627.857	1	13
628.027	1	-4
628.196	1	-1
628.366	1	11
628.536	1	1
628.705	1	7
628.875	1	5
629.044	1	4
629.214	1	7
629.384	1	-1
629.553	1	10
629.723	1	1
629.892	1	4
630.062	1	4
630.232	1	-1
630.401	1	13
630.571	1	6
630.740	1	11
630.910	1	6
631.079	1	6
631.249	1	2
631.419	1	12
631.588	1	-8
631.758	1	5
631.927	1	1
632.097	1	6
632.266	1	1
632.436	1	8
632.606	1	-1
632.775	1	13
632.945	1	6
633.114	1	5
633.284	1	7
633.453	1	-2
633.623	1	0
633.793	1	3
633.962	1	4
634.132	1	1
634.301	1	8
634.471	1	11
634.640	1	10
634.810	1	2
634.979	1	11
635.149	1	11
635.319	1	3
635.488	1	7
635.658	1	1
635.827	1	-2
635.997	1	2
636.166	1	2
636.336	1	2
636.505	1	8
636.675	1	7
636.845	1	14
637.014	1	17
637.184	1	5
637.353	1	3
637.523	1	0
637.692	1	4
637.862	1	7
638.031	1	-1
638.201	1	8
638.370	1	4
638.540	1	3
638.710	1	1
638.879	1	-9
639.049	1	18
639.218	1	0
639.388	1	-3
639.557	1	2
639.727	1	3
639.896	1	7
640.066	1	4
640.235	1	16
640.405	1	13
640.574	1	-2
640.744	1	-4
640.914	1	-4
641.083	1	-1
641.253	1	1
641.422	1	3
641.592	1	13
641.761	1	3
641.931	1	2
642.100	1	16
642.270	1	-6
642.439	1	7
642.609	1	18
642.778	1	1
642.948	1	-2
643.117	1	10
643.287	1	3
643.456	1	-3
643.626	1	7
643.795	1	6
643.965	1	11
644.134	1	1
644.304	1	6
644.473	1	7
644.643	1	10
644.812	1	-4
644.982	1	4
645.151	1	-2
645.321	1	-7
645.490	1	10
645.660	1	-11
645.829	1	7
645.999	1	6
646.168	1	13
646.338	1	10
646.507	1	-2
646.677	1	-4
646.846	1	2
647.016	1	-6
647.185	1	3
647.355	1	-16
647.524	1	7
647.694	1	13
647.863	1	7
648.033	1	6
648.202	1	8
648.372	1	8
648.541	1	0
648.711	1	-5
648.880	1	-6
649.050	1	1
649.219	1	4
649.389	1	12
649.558	1	10
649.728	1	8
649.897	1	-1
650.067	1	9
650.236	1	5
650.406	1	8
650.575	1	21
650.745	1	8
650.914	1	1
651.084	1	-1
651.253	1	6
651.423	1	7
651.592	1	4
651.762	1	0
651.931	1	9
652.101	1	10
652.270	1	6
652.440	1	9
652.609	1	-5
652.778	1	-1
652.948	1	12
653.117	1	6
653.287	1	4
653.456	1	9
653.626	1	13
653.795	1	3
653.965	1	11
654.134	1	5
654.304	1	-8
654.473	1	14
654.643	1	12
654.812	1	-1
654.982	1	10
655.151	1	0
655.320	1	8
655.490	1	-7
655.659	1	5
655.829	1	-1
655.998	1	1
656.168	1	9
656.337	1	9
656.507	1	5
656.676	1	6
656.846	1	17
657.015	1	19
657.184	1	11
657.354	1	5
657.523	1	2
657.693	1	14
657.862	1	7
658.032	1	7
658.201	1	11
658.371	1	9
658.540	1	10
658.709	1	-8
658.879	1	7
659.048	1	-1
659.218	1	10
659.387	1	6
659.557	1	7
659.726	1	9
659.895	1	1
660.065	1	-4
660.234	1	4
660.404	1	8
660.573	1	-1
660.743	1	4
660.912	1	8
661.081	1	13
661.251	1	9
661.420	1	10
661.590	1	6
661.759	1	7
661.929	1	10
662.098	1	15
662.267	1	2
662.437	1	6
662.606	1	4
662.776	1	10
662.945	1	8
663.115	1	5
663.284	1	-1
663.453	1	14
663.623	1	1
663.792	1	-1
663.962	1	0
664.131	1	6
664.300	1	6
664.470	1	-1
664.639	1	12
664.809	1	5
664.978	1	20
665.148	1	12
665.317	1	0
665.486	1	17
665.656	1	0
665.825	1	4
665.995	1	-2
666.164	1	6
666.333	1	9
666.503	1	1
666.672	1	-12
666.842	1	8
667.011	1	9
667.180	1	13
667.350	1	-3
667.519	1	3
667.689	1	0
667.858	1	9
668.027	1	14
668.197	1	0
668.366	1	-1
668.536	1	3
668.705	1	9
668.874	1	4
669.044	1	-4
669.213	1	13
669.382	1	-1
669.552	1	10
669.721	1	8
669.891	1	15
670.060	1	13
670.229	1	14
670.399	1	6
670.568	1	17
670.738	1	16
670.907	1	1
671.076	1	-7
671.246	1	-7
671.415	1	4
671.584	1	8
671.754	1	5
671.923	1	1
672.093	1	5
672.262	1	-1
672.431	1	12
672.601	1	6
672.770	1	0
672.939	1	2
673.109	1	0
673.278	1	8
673.448	1	3
673.617	1	10
673.786	1	3
