325.333	1	16
325.504	1	9
325.675	1	16
325.846	1	28
326.017	1	24
326.188	1	28
326.359	1	22
326.531	1	19
326.702	1	27
326.873	1	32
327.044	1	27
327.215	1	27
327.386	1	31
327.557	1	17
327.728	1	29
327.899	1	30
328.070	1	31
328.241	1	34
328.412	1	15
328.583	1	24
328.754	1	22
328.926	1	37
329.097	1	19
329.268	1	24
329.439	1	30
329.610	1	37
329.781	1	11
329.952	1	41
330.123	1	25
330.294	1	16
330.465	1	38
330.636	1	35
330.807	1	24
330.978	1	30
331.149	1	33
331.320	1	38
331.492	1	34
331.663	1	34
331.834	1	38
332.005	1	38
332.176	1	49
332.347	1	34
332.518	1	29
332.689	1	45
332.860	1	45
333.031	1	44
333.202	1	37
333.373	1	37
333.544	1	37
333.715	1	43
333.886	1	30
334.057	1	36
334.228	1	31
334.399	1	29
334.570	1	43
334.741	1	30
334.912	1	44
335.084	1	57
335.255	1	37
335.426	1	38
335.597	1	43
335.768	1	33
335.939	1	35
336.110	1	35
336.281	1	35
336.452	1	48
336.623	1	45
336.794	1	43
336.965	1	51
337.136	1	54
337.307	1	42
337.478	1	42
337.649	1	44
337.820	1	47
337.991	1	41
338.162	1	45
338.333	1	49
338.504	1	48
338.675	1	51
338.846	1	50
339.017	1	46
339.188	1	37
339.359	1	48
339.530	1	43
339.701	1	48
339.872	1	50
340.043	1	35
340.214	1	41
340.385	1	50
340.556	1	38
340.727	1	48
340.898	1	61
341.069	1	51
341.240	1	48
341.411	1	66
341.582	1	54
341.753	1	41
341.924	1	58
342.095	1	54
342.266	1	56
342.437	1	59
342.608	1	59
342.779	1	56
342.950	1	58
343.121	1	62
343.292	1	61
343.463	1	61
343.634	1	55
343.805	1	67
343.976	1	74
344.147	1	50
344.318	1	61
344.489	1	57
344.660	1	66
344.831	1	63
345.002	1	63
345.173	1	71
345.344	1	57
345.515	1	61
345.686	1	63
345.857	1	60
346.028	1	60
346.199	1	55
346.370	1	52
346.541	1	62
346.712	1	56
346.883	1	66
347.054	1	64
347.225	1	62
347.396	1	72
347.567	1	62
347.738	1	57
347.909	1	76
348.080	1	59
348.251	1	81
348.422	1	76
348.593	1	74
348.764	1	65
348.935	1	64
349.106	1	65
349.277	1	76
349.448	1	75
349.619	1	74
349.790	1	76
349.961	1	86
350.132	1	71
350.303	1	83
350.474	1	80
350.645	1	77
350.816	1	75
350.987	1	79
351.157	1	79
351.328	1	75
351.499	1	82
351.670	1	79
351.841	1	83
352.012	1	88
352.183	1	91
352.354	1	77
352.525	1	85
352.696	1	84
352.867	1	84
353.038	1	90
353.209	1	84
353.380	1	76
353.551	1	68
353.722	1	94
353.893	1	75
354.064	1	90
354.235	1	98
354.406	1	66
354.576	1	79
354.747	1	84
354.918	1	80
355.089	1	87
355.260	1	80
355.431	1	93
355.602	1	85
355.773	1	92
355.944	1	81
356.115	1	87
356.286	1	92
356.457	1	88
356.628	1	81
356.799	1	80
356.970	1	101
357.141	1	88
357.311	1	92
357.482	1	90
357.653	1	89
357.824	1	84
357.995	1	93
358.166	1	84
358.337	1	97
358.508	1	96
358.679	1	95
358.850	1	100
359.021	1	93
359.192	1	107
359.363	1	91
359.533	1	98
359.704	1	98
359.875	1	104
360.046	1	98
360.217	1	84
360.388	1	109
360.559	1	98
360.730	1	103
360.901	1	95
361.072	1	116
361.243	1	108
361.414	1	96
361.584	1	91
361.755	1	108
361.926	1	88
362.097	1	99
362.268	1	93
362.439	1	86
362.610	1	114
362.781	1	96
362.952	1	98
363.123	1	100
363.293	1	98
363.464	1	108
363.635	1	105
363.806	1	101
363.977	1	100
364.148	1	97
364.319	1	99
364.490	1	106
364.661	1	96
364.832	1	115
365.002	1	110
365.173	1	110
365.344	1	110
365.515	1	97
365.686	1	105
365.857	1	105
366.028	1	114
366.199	1	103
366.370	1	103
366.540	1	95
366.711	1	91
366.882	1	99
367.053	1	107
367.224	1	110
367.395	1	111
367.566	1	112
367.737	1	109
367.908	1	100
368.078	1	110
368.249	1	114
368.420	1	93
368.591	1	102
368.762	1	109
368.933	1	115
369.104	1	99
369.274	1	115
369.445	1	105
369.616	1	111
369.787	1	118
369.958	1	102
370.129	1	97
370.300	1	120
370.471	1	108
370.641	1	110
370.812	1	113
370.983	1	118
371.154	1	95
371.325	1	129
371.496	1	110
371.667	1	115
371.837	1	104
372.008	1	100
372.179	1	112
372.350	1	110
372.521	1	103
372.692	1	109
372.863	1	103
373.033	1	87
373.204	1	103
373.375	1	113
373.546	1	116
373.717	1	118
373.888	1	130
374.059	1	120
374.229	1	122
374.400	1	110
374.571	1	115
374.742	1	121
374.913	1	108
375.084	1	116
375.254	1	122
375.425	1	121
375.596	1	116
375.767	1	113
375.938	1	117
376.109	1	126
376.279	1	108
376.450	1	118
376.621	1	114
376.792	1	112
376.963	1	110
377.134	1	124
377.304	1	123
377.475	1	121
377.646	1	113
377.817	1	119
377.988	1	112
378.159	1	135
378.329	1	114
378.500	1	122
378.671	1	122
378.842	1	124
379.013	1	110
379.184	1	106
379.354	1	135
379.525	1	119
379.696	1	134
379.867	1	136
380.038	1	119
380.209	1	137
380.379	1	129
380.550	1	122
380.721	1	138
380.892	1	130
381.063	1	127
381.233	1	117
381.404	1	125
381.575	1	126
381.746	1	126
381.917	1	125
382.087	1	128
382.258	1	130
382.429	1	137
382.600	1	132
382.771	1	133
382.941	1	130
383.112	1	132
383.283	1	140
383.454	1	133
383.625	1	129
383.795	1	124
383.966	1	130
384.137	1	136
384.308	1	142
384.479	1	141
384.649	1	146
384.820	1	135
384.991	1	129
385.162	1	141
385.333	1	129
385.503	1	128
385.674	1	130
385.845	1	146
386.016	1	145
386.187	1	135
386.357	1	168
386.528	1	138
386.699	1	142
386.870	1	151
387.041	1	147
387.211	1	144
387.382	1	157
387.553	1	153
387.724	1	146
387.894	1	137
388.065	1	141
388.236	1	141
388.407	1	136
388.578	1	142
388.748	1	145
388.919	1	151
389.090	1	149
389.261	1	141
389.431	1	154
389.602	1	164
389.773	1	146
389.944	1	162
390.114	1	145
390.285	1	146
390.456	1	150
390.627	1	148
390.798	1	151
390.968	1	146
391.139	1	161
391.310	1	141
391.481	1	155
391.651	1	161
391.822	1	133
391.993	1	141
392.164	1	153
392.334	1	147
392.505	1	140
392.676	1	146
392.847	1	145
393.017	1	154
393.188	1	148
393.359	1	140
393.530	1	147
393.700	1	168
393.871	1	155
394.042	1	147
394.213	1	155
394.383	1	160
394.554	1	148
394.725	1	146
394.896	1	147
395.066	1	147
395.237	1	147
395.408	1	148
395.579	1	161
395.749	1	159
395.920	1	159
396.091	1	160
396.262	1	170
396.432	1	164
396.603	1	158
396.774	1	174
396.945	1	172
397.115	1	164
397.286	1	156
397.457	1	163
397.627	1	154
397.798	1	168
397.969	1	170
398.140	1	151
398.310	1	165
398.481	1	159
398.652	1	158
398.823	1	169
398.993	1	158
399.164	1	176
399.335	1	178
399.505	1	165
399.676	1	168
399.847	1	149
400.018	1	167
400.188	1	157
400.359	1	165
400.530	1	160
400.700	1	181
400.871	1	157
401.042	1	165
401.213	1	158
401.383	1	168
401.554	1	183
401.725	1	180
401.895	1	144
402.066	1	160
402.237	1	161
402.408	1	167
402.578	1	164
402.749	1	168
402.920	1	174
403.090	1	164
403.261	1	158
403.432	1	169
403.603	1	173
403.773	1	166
403.944	1	173
404.115	1	176
404.285	1	170
404.456	1	181
404.627	1	155
404.797	1	163
404.968	1	176
405.139	1	157
405.310	1	167
405.480	1	180
405.651	1	148
405.822	1	175
405.992	1	170
406.163	1	173
406.334	1	155
406.504	1	164
406.675	1	180
406.846	1	170
407.016	1	170
407.187	1	160
407.358	1	184
407.528	1	173
407.699	1	159
407.870	1	182
408.041	1	168
408.211	1	177
408.382	1	178
408.553	1	164
408.723	1	177
408.894	1	174
409.065	1	166
409.235	1	171
409.406	1	181
409.577	1	166
409.747	1	192
409.918	1	187
410.089	1	166
410.259	1	179
410.430	1	176
410.601	1	168
410.771	1	171
410.942	1	189
411.113	1	167
411.283	1	184
411.454	1	176
411.625	1	149
411.795	1	177
411.966	1	191
412.137	1	163
412.307	1	162
412.478	1	169
412.649	1	173
412.819	1	155
412.990	1	156
413.161	1	163
413.331	1	157
413.502	1	185
413.672	1	154
413.843	1	169
414.014	1	166
414.184	1	176
414.355	1	160
414.526	1	172
414.696	1	169
414.867	1	171
415.038	1	156
415.208	1	166
415.379	1	170
415.550	1	180
415.720	1	162
415.891	1	165
416.062	1	170
416.232	1	174
416.403	1	172
416.573	1	166
416.744	1	156
416.915	1	169
417.085	1	173
417.256	1	164
417.427	1	164
417.597	1	157
417.768	1	170
417.939	1	158
418.109	1	154
418.280	1	179
418.450	1	164
418.621	1	146
418.792	1	181
418.962	1	160
419.133	1	163
419.304	1	164
419.474	1	173
419.645	1	163
419.815	1	159
419.986	1	161
420.157	1	167
420.327	1	159
420.498	1	181
420.669	1	159
420.839	1	174
421.010	1	162
421.180	1	187
421.351	1	147
421.522	1	165
421.692	1	150
421.863	1	149
422.033	1	163
422.204	1	151
422.375	1	154
422.545	1	167
422.716	1	161
422.886	1	154
423.057	1	158
423.228	1	153
423.398	1	152
423.569	1	153
423.740	1	143
423.910	1	141
424.081	1	142
424.251	1	143
424.422	1	154
424.593	1	145
424.763	1	156
424.934	1	156
425.104	1	153
425.275	1	145
425.445	1	140
425.616	1	146
425.787	1	145
425.957	1	153
426.128	1	168
426.298	1	146
426.469	1	137
426.640	1	150
426.810	1	142
426.981	1	139
427.151	1	138
427.322	1	150
427.493	1	151
427.663	1	141
427.834	1	139
428.004	1	143
428.175	1	141
428.345	1	145
428.516	1	134
428.687	1	142
428.857	1	137
429.028	1	136
429.198	1	142
429.369	1	156
429.540	1	142
429.710	1	140
429.881	1	153
430.051	1	140
430.222	1	138
430.392	1	140
430.563	1	152
430.734	1	151
430.904	1	147
431.075	1	151
431.245	1	137
431.416	1	157
431.586	1	145
431.757	1	144
431.927	1	138
432.098	1	145
432.269	1	140
432.439	1	155
432.610	1	138
432.780	1	143
432.951	1	138
433.121	1	135
433.292	1	163
433.462	1	142
433.633	1	155
433.804	1	143
433.974	1	156
434.145	1	146
434.315	1	120
434.486	1	126
434.656	1	150
434.827	1	132
434.997	1	144
435.168	1	151
435.339	1	158
435.509	1	140
435.680	1	144
435.850	1	146
436.021	1	141
436.191	1	135
436.362	1	143
436.532	1	142
436.703	1	122
436.873	1	143
437.044	1	121
437.214	1	132
437.385	1	129
437.556	1	140
437.726	1	147
437.897	1	144
438.067	1	134
438.238	1	137
438.408	1	145
438.579	1	127
438.749	1	116
438.920	1	134
439.090	1	140
439.261	1	122
439.431	1	118
439.602	1	113
439.772	1	129
439.943	1	129
440.113	1	140
440.284	1	129
440.455	1	140
440.625	1	135
440.796	1	133
440.966	1	119
441.137	1	126
441.307	1	123
441.478	1	142
441.648	1	135
441.819	1	127
441.989	1	140
442.160	1	121
442.330	1	123
442.501	1	139
442.671	1	108
442.842	1	107
443.012	1	113
443.183	1	134
443.353	1	114
443.524	1	114
443.694	1	129
443.865	1	116
444.035	1	127
444.206	1	123
444.376	1	115
444.547	1	121
444.717	1	119
444.888	1	131
445.058	1	137
445.229	1	114
445.399	1	120
445.570	1	122
445.740	1	111
445.911	1	114
446.081	1	112
446.252	1	132
446.422	1	121
446.593	1	113
446.763	1	126
446.934	1	116
447.104	1	118
447.275	1	130
447.445	1	123
447.616	1	113
447.786	1	116
447.957	1	116
448.127	1	125
448.298	1	126
448.468	1	115
448.639	1	116
448.809	1	123
448.979	1	113
449.150	1	119
449.320	1	125
449.491	1	118
449.661	1	115
449.832	1	113
450.002	1	126
450.173	1	106
450.343	1	114
450.514	1	117
450.684	1	112
450.855	1	108
451.025	1	108
451.196	1	114
451.366	1	109
451.537	1	116
451.707	1	103
451.878	1	110
452.048	1	118
452.218	1	116
452.389	1	128
452.559	1	121
452.730	1	117
452.900	1	111
453.071	1	105
453.241	1	104
453.412	1	95
453.582	1	113
453.753	1	111
453.923	1	117
454.093	1	111
454.264	1	126
454.434	1	99
454.605	1	102
454.775	1	107
454.946	1	108
455.116	1	101
455.287	1	102
455.457	1	90
455.628	1	98
455.798	1	103
455.968	1	110
456.139	1	96
456.309	1	99
456.480	1	98
456.650	1	100
456.821	1	91
456.991	1	99
457.161	1	91
457.332	1	103
457.502	1	94
457.673	1	95
457.843	1	106
458.014	1	101
458.184	1	95
458.355	1	94
458.525	1	91
458.695	1	118
458.866	1	88
459.036	1	93
459.207	1	100
459.377	1	87
459.548	1	97
459.718	1	88
459.888	1	95
460.059	1	95
460.229	1	95
460.400	1	107
460.570	1	96
460.740	1	92
460.911	1	103
461.081	1	108
461.252	1	79
461.422	1	90
461.593	1	89
461.763	1	104
461.933	1	104
462.104	1	90
462.274	1	100
462.445	1	103
462.615	1	100
462.785	1	91
462.956	1	95
463.126	1	112
463.297	1	85
463.467	1	83
463.638	1	94
463.808	1	94
463.978	1	81
464.149	1	82
464.319	1	83
464.490	1	110
464.660	1	75
464.830	1	88
465.001	1	89
465.171	1	86
465.342	1	96
465.512	1	78
465.682	1	91
465.853	1	93
466.023	1	87
466.194	1	90
466.364	1	94
466.534	1	82
466.705	1	81
466.875	1	83
467.045	1	89
467.216	1	99
467.386	1	69
467.557	1	83
467.727	1	88
467.897	1	77
468.068	1	81
468.238	1	79
468.409	1	79
468.579	1	82
468.749	1	83
468.920	1	78
469.090	1	89
469.260	1	83
469.431	1	81
469.601	1	83
469.772	1	80
469.942	1	77
470.112	1	81
470.283	1	73
470.453	1	80
470.623	1	67
470.794	1	72
470.964	1	83
471.135	1	75
471.305	1	70
471.475	1	84
471.646	1	80
471.816	1	81
471.986	1	80
472.157	1	87
472.327	1	67
472.497	1	76
472.668	1	71
472.838	1	75
473.009	1	75
473.179	1	62
473.349	1	66
473.520	1	75
473.690	1	77
473.860	1	72
474.031	1	69
474.201	1	80
474.371	1	79
474.542	1	77
474.712	1	70
474.882	1	78
475.053	1	78
475.223	1	74
475.394	1	74
475.564	1	64
475.734	1	86
475.905	1	88
476.075	1	74
476.245	1	78
476.416	1	69
476.586	1	80
476.756	1	69
476.927	1	77
477.097	1	75
477.267	1	74
477.438	1	77
477.608	1	78
477.778	1	71
477.949	1	68
478.119	1	85
478.289	1	80
478.460	1	71
478.630	1	75
478.800	1	70
478.971	1	72
479.141	1	63
479.311	1	58
479.482	1	72
479.652	1	62
479.822	1	77
479.993	1	67
480.163	1	79
480.333	1	72
480.504	1	71
480.674	1	68
480.844	1	58
481.015	1	73
481.185	1	80
481.355	1	70
481.525	1	67
481.696	1	65
481.866	1	67
482.036	1	62
482.207	1	67
482.377	1	64
482.547	1	75
482.718	1	61
482.888	1	62
483.058	1	53
483.229	1	66
483.399	1	71
483.569	1	60
483.740	1	64
483.910	1	61
484.080	1	58
484.250	1	76
484.421	1	58
484.591	1	66
484.761	1	67
484.932	1	63
485.102	1	67
485.272	1	65
485.443	1	62
485.613	1	62
485.783	1	64
485.953	1	60
486.124	1	64
486.294	1	62
486.464	1	63
486.635	1	70
486.805	1	66
486.975	1	61
487.146	1	62
487.316	1	54
487.486	1	67
487.656	1	53
487.827	1	60
487.997	1	48
488.167	1	59
488.338	1	64
488.508	1	56
488.678	1	45
488.848	1	68
489.019	1	58
489.189	1	55
489.359	1	51
489.529	1	54
489.700	1	49
489.870	1	59
490.040	1	47
490.211	1	53
490.381	1	64
490.551	1	61
490.721	1	56
490.892	1	52
491.062	1	49
491.232	1	59
491.402	1	47
491.573	1	38
491.743	1	48
491.913	1	52
492.084	1	63
492.254	1	54
492.424	1	45
492.594	1	46
492.765	1	47
492.935	1	55
493.105	1	59
493.275	1	58
493.446	1	47
493.616	1	61
493.786	1	43
493.956	1	52
494.127	1	49
494.297	1	44
494.467	1	50
494.637	1	53
494.808	1	60
494.978	1	49
495.148	1	55
495.318	1	50
495.489	1	53
495.659	1	56
495.829	1	54
495.999	1	44
496.170	1	53
496.340	1	50
496.510	1	49
496.680	1	47
496.851	1	55
497.021	1	52
497.191	1	38
497.361	1	50
497.532	1	41
497.702	1	49
497.872	1	51
498.042	1	55
498.213	1	49
498.383	1	56
498.553	1	42
498.723	1	45
498.894	1	46
499.064	1	48
499.234	1	48
499.404	1	44
499.574	1	51
499.745	1	48
499.915	1	47
500.085	1	45
500.255	1	58
500.426	1	48
500.596	1	56
500.766	1	46
500.936	1	49
501.106	1	39
501.277	1	50
501.447	1	43
501.617	1	44
501.787	1	46
501.958	1	36
502.128	1	42
502.298	1	48
502.468	1	41
502.638	1	45
502.809	1	55
502.979	1	33
503.149	1	38
503.319	1	36
503.489	1	45
503.660	1	45
503.830	1	47
504.000	1	49
504.170	1	40
504.340	1	37
504.511	1	44
504.681	1	46
504.851	1	40
505.021	1	47
505.192	1	34
505.362	1	48
505.532	1	44
505.702	1	38
505.872	1	47
506.043	1	37
506.213	1	27
506.383	1	39
506.553	1	47
506.723	1	42
506.893	1	41
507.064	1	44
507.234	1	37
507.404	1	44
507.574	1	46
507.744	1	37
507.915	1	46
508.085	1	49
508.255	1	43
508.425	1	31
508.595	1	47
508.766	1	42
508.936	1	33
509.106	1	50
509.276	1	42
509.446	1	35
509.616	1	34
509.787	1	41
509.957	1	39
510.127	1	43
510.297	1	38
510.467	1	36
510.638	1	46
510.808	1	30
510.978	1	37
511.148	1	32
511.318	1	42
511.488	1	28
511.659	1	46
511.829	1	24
511.999	1	46
512.169	1	38
512.339	1	37
512.509	1	30
512.680	1	40
512.850	1	34
513.020	1	50
513.190	1	32
513.360	1	41
513.530	1	44
513.700	1	29
513.871	1	36
514.041	1	35
514.211	1	34
514.381	1	37
514.551	1	40
514.721	1	28
514.892	1	41
515.062	1	40
515.232	1	42
515.402	1	28
515.572	1	18
515.742	1	42
515.912	1	35
516.083	1	33
516.253	1	42
516.423	1	41
516.593	1	30
516.763	1	48
516.933	1	25
517.104	1	35
517.274	1	28
517.444	1	37
517.614	1	26
517.784	1	38
517.954	1	42
518.124	1	40
518.294	1	36
518.465	1	32
518.635	1	31
518.805	1	22
518.975	1	31
519.145	1	24
519.315	1	31
519.485	1	25
519.656	1	34
519.826	1	37
519.996	1	18
520.166	1	33
520.336	1	45
520.506	1	20
520.676	1	22
520.846	1	36
521.017	1	35
521.187	1	17
521.357	1	40
521.527	1	31
521.697	1	23
521.867	1	21
522.037	1	32
522.207	1	42
522.377	1	30
522.548	1	21
522.718	1	32
522.888	1	38
523.058	1	26
523.228	1	32
523.398	1	26
523.568	1	27
523.738	1	23
523.909	1	35
524.079	1	22
524.249	1	26
524.419	1	25
524.589	1	20
524.759	1	22
524.929	1	21
525.099	1	27
525.269	1	32
525.439	1	16
525.610	1	35
525.780	1	15
525.950	1	27
526.120	1	29
526.290	1	32
526.460	1	16
526.630	1	31
526.800	1	25
526.970	1	20
527.140	1	20
527.311	1	14
527.481	1	5
527.651	1	31
527.821	1	22
527.991	1	35
528.161	1	30
528.331	1	16
528.501	1	32
528.671	1	25
528.841	1	20
529.011	1	18
529.181	1	32
529.352	1	27
529.522	1	14
529.692	1	24
529.862	1	24
530.032	1	26
530.202	1	17
530.372	1	26
530.542	1	21
530.712	1	27
530.882	1	24
531.052	1	31
531.222	1	26
531.392	1	32
531.563	1	30
531.733	1	30
531.903	1	27
532.073	1	20
532.243	1	27
532.413	1	23
532.583	1	26
532.753	1	24
532.923	1	21
533.093	1	15
533.263	1	22
533.433	1	23
533.603	1	25
533.773	1	27
533.943	1	18
534.113	1	26
534.284	1	16
534.454	1	27
534.624	1	29
534.794	1	23
534.964	1	24
535.134	1	23
535.304	1	32
535.474	1	34
535.644	1	19
535.814	1	22
535.984	1	16
536.154	1	21
536.324	1	12
536.494	1	27
536.664	1	22
536.834	1	24
537.004	1	18
537.174	1	28
537.344	1	21
537.514	1	11
537.685	1	16
537.855	1	30
538.025	1	19
538.195	1	16
538.365	1	28
538.535	1	23
538.705	1	18
538.875	1	21
539.045	1	27
539.215	1	21
539.385	1	22
539.555	1	24
539.725	1	16
539.895	1	17
540.065	1	30
540.235	1	29
540.405	1	16
540.575	1	22
540.745	1	22
540.915	1	25
541.085	1	23
541.255	1	11
541.425	1	22
541.595	1	13
541.765	1	27
541.935	1	8
542.105	1	24
542.275	1	14
542.445	1	10
542.615	1	27
542.785	1	26
542.955	1	22
543.125	1	15
543.295	1	14
543.465	1	30
543.635	1	19
543.805	1	23
543.975	1	16
544.145	1	28
544.315	1	16
544.485	1	23
544.655	1	16
544.825	1	10
544.995	1	19
545.165	1	21
545.335	1	10
545.505	1	10
545.675	1	14
545.845	1	19
546.015	1	26
546.185	1	14
546.355	1	22
546.525	1	17
546.695	1	17
546.865	1	15
547.035	1	25
547.205	1	8
547.375	1	12
547.545	1	25
547.715	1	19
547.885	1	21
548.055	1	8
548.225	1	29
548.395	1	11
548.565	1	10
548.735	1	15
548.905	1	23
549.075	1	20
549.245	1	24
549.415	1	4
549.585	1	20
549.755	1	27
549.925	1	-3
550.095	1	19
550.265	1	20
550.435	1	5
550.605	1	16
550.775	1	15
550.945	1	21
551.115	1	13
551.285	1	17
551.455	1	14
551.625	1	11
551.795	1	25
551.965	1	20
552.135	1	20
552.305	1	11
552.475	1	8
552.645	1	15
552.815	1	14
552.985	1	17
553.155	1	10
553.325	1	22
553.495	1	8
553.665	1	15
553.835	1	11
554.004	1	22
554.174	1	14
554.344	1	24
554.514	1	11
554.684	1	13
554.854	1	16
555.024	1	3
555.194	1	11
555.364	1	7
555.534	1	20
555.704	1	9
555.874	1	23
556.044	1	19
556.214	1	8
556.384	1	4
556.554	1	27
556.724	1	20
556.894	1	12
557.064	1	21
557.234	1	11
557.404	1	18
557.573	1	14
557.743	1	15
557.913	1	13
558.083	1	7
558.253	1	22
558.423	1	11
558.593	1	20
558.763	1	19
558.933	1	6
559.103	1	23
559.273	1	17
559.443	1	18
559.613	1	12
559.783	1	12
559.953	1	15
560.122	1	19
560.292	1	19
560.462	1	9
560.632	1	13
560.802	1	19
560.972	1	18
561.142	1	15
561.312	1	12
561.482	1	12
561.652	1	22
561.822	1	10
561.992	1	10
562.162	1	19
562.331	1	25
562.501	1	5
562.671	1	14
562.841	1	0
563.011	1	18
563.181	1	11
563.351	1	5
563.521	1	16
563.691	1	7
563.861	1	9
564.031	1	12
564.201	1	21
564.370	1	3
564.540	1	17
564.710	1	4
564.880	1	14
565.050	1	12
565.220	1	6
565.390	1	15
565.560	1	16
565.730	1	16
565.900	1	9
566.069	1	20
566.239	1	11
566.409	1	8
566.579	1	21
566.749	1	13
566.919	1	20
567.089	1	18
567.259	1	21
567.429	1	18
567.599	1	14
567.768	1	7
567.938	1	8
568.108	1	9
568.278	1	14
568.448	1	16
568.618	1	6
568.788	1	19
568.958	1	11
569.128	1	15
569.297	1	12
569.467	1	9
569.637	1	23
569.807	1	7
569.977	1	16
570.147	1	10
570.317	1	12
570.487	1	8
570.656	1	21
570.826	1	9
570.996	1	9
571.166	1	16
571.336	1	13
571.506	1	20
571.676	1	13
571.846	1	18
572.015	1	18
572.185	1	6
572.355	1	14
572.525	1	6
572.695	1	25
572.865	1	4
573.035	1	5
573.205	1	16
573.374	1	6
573.544	1	11
573.714	1	13
573.884	1	10
574.054	1	8
574.224	1	14
574.394	1	11
574.563	1	6
574.733	1	2
574.903	1	4
575.073	1	3
575.243	1	9
575.413	1	10
575.583	1	2
575.752	1	20
575.922	1	12
576.092	1	10
576.262	1	23
576.432	1	12
576.602	1	7
576.772	1	18
576.941	1	14
577.111	1	7
577.281	1	-2
577.451	1	3
577.621	1	15
577.791	1	22
577.960	1	0
578.130	1	12
578.300	1	9
578.470	1	19
578.640	1	15
578.810	1	11
578.979	1	7
579.149	1	8
579.319	1	2
579.489	1	14
579.659	1	8
579.829	1	4
579.998	1	17
580.168	1	17
580.338	1	9
580.508	1	11
580.678	1	13
580.848	1	10
581.017	1	6
581.187	1	8
581.357	1	9
581.527	1	7
581.697	1	17
581.867	1	18
582.036	1	9
582.206	1	10
582.376	1	20
582.546	1	3
582.716	1	0
582.885	1	3
583.055	1	13
583.225	1	9
583.395	1	10
583.565	1	7
583.735	1	14
583.904	1	16
584.074	1	12
584.244	1	10
584.414	1	5
584.584	1	15
584.753	1	3
584.923	1	8
585.093	1	10
585.263	1	10
585.433	1	21
585.602	1	8
585.772	1	1
585.942	1	4
586.112	1	17
586.282	1	1
586.451	1	9
586.621	1	9
586.791	1	11
586.961	1	9
587.131	1	17
587.300	1	3
587.470	1	12
587.640	1	12
587.810	1	12
587.980	1	11
588.149	1	12
588.319	1	4
588.489	1	9
588.659	1	7
588.829	1	12
588.998	1	16
589.168	1	19
589.338	1	9
589.508	1	18
589.677	1	5
589.847	1	8
590.017	1	19
590.187	1	4
590.357	1	17
590.526	1	15
590.696	1	20
590.866	1	12
591.036	1	9
591.205	1	27
591.375	1	7
591.545	1	7
591.715	1	10
591.885	1	7
592.054	1	18
592.224	1	8
592.394	1	14
592.564	1	14
592.733	1	13
592.903	1	17
593.073	1	7
593.243	1	12
593.412	1	22
593.582	1	2
593.752	1	12
593.922	1	6
594.091	1	9
594.261	1	10
594.431	1	11
594.601	1	15
594.771	1	16
594.940	1	1
595.110	1	10
595.280	1	11
595.450	1	10
595.619	1	15
595.789	1	17
595.959	1	7
596.129	1	10
596.298	1	12
596.468	1	14
596.638	1	12
596.808	1	6
596.977	1	12
597.147	1	5
597.317	1	10
597.487	1	17
597.656	1	8
597.826	1	16
597.996	1	12
598.166	1	11
598.335	1	-4
598.505	1	13
598.675	1	5
598.844	1	13
599.014	1	11
599.184	1	11
599.354	1	-1
599.523	1	16
599.693	1	5
599.863	1	14
600.033	1	11
600.202	1	13
600.372	1	15
600.542	1	18
600.712	1	2
600.881	1	-1
601.051	1	22
601.221	1	8
601.390	1	5
601.560	1	6
601.730	1	16
601.900	1	10
602.069	1	19
602.239	1	4
602.409	1	0
602.578	1	14
602.748	1	7
602.918	1	23
603.088	1	16
603.257	1	13
603.427	1	8
603.597	1	9
603.767	1	16
603.936	1	14
604.106	1	17
604.276	1	9
604.445	1	18
604.615	1	10
604.785	1	10
604.954	1	12
605.124	1	1
605.294	1	5
605.464	1	7
605.633	1	15
605.803	1	17
605.973	1	9
606.142	1	12
606.312	1	18
606.482	1	9
606.652	1	19
606.821	1	4
606.991	1	10
607.161	1	4
607.330	1	10
607.500	1	12
607.670	1	15
607.839	1	26
608.009	1	20
608.179	1	14
608.348	1	11
608.518	1	11
608.688	1	15
608.858	1	5
609.027	1	5
609.197	1	22
609.367	1	15
609.536	1	14
609.706	1	11
609.876	1	11
610.045	1	11
610.215	1	15
610.385	1	3
610.554	1	19
610.724	1	15
610.894	1	10
611.063	1	17
611.233	1	9
611.403	1	14
611.572	1	12
611.742	1	11
611.912	1	10
612.081	1	7
612.251	1	11
612.421	1	11
612.590	1	9
612.760	1	5
612.930	1	5
613.099	1	10
613.269	1	19
613.439	1	11
613.608	1	11
613.778	1	20
613.948	1	10
614.117	1	16
614.287	1	20
614.457	1	17
614.626	1	11
614.796	1	7
614.966	1	12
615.135	1	9
615.305	1	14
615.475	1	16
615.644	1	9
615.814	1	14
615.984	1	4
616.153	1	13
616.323	1	13
616.493	1	14
616.662	1	15
616.832	1	11
617.002	1	14
617.171	1	8
617.341	1	11
617.511	1	10
617.680	1	8
617.850	1	18
618.019	1	18
618.189	1	22
618.359	1	18
618.528	1	12
618.698	1	16
618.868	1	12
619.037	1	12
619.207	1	4
619.377	1	10
619.546	1	13
619.716	1	17
619.885	1	14
620.055	1	8
620.225	1	9
620.394	1	12
620.564	1	24
620.734	1	15
620.903	1	13
621.073	1	16
621.242	1	20
621.412	1	14
621.582	1	17
621.751	1	20
621.921	1	24
622.091	1	11
622.260	1	17
622.430	1	23
622.599	1	20
622.769	1	25
622.939	1	31
623.108	1	10
623.278	1	4
623.448	1	12
623.617	1	11
623.787	1	20
623.956	1	19
624.126	1	9
624.296	1	17
624.465	1	21
624.635	1	26
624.804	1	16
624.974	1	23
625.144	1	21
625.313	1	17
625.483	1	17
625.652	1	14
625.822	1	14
625.992	1	19
626.161	1	19
626.331	1	21
626.501	1	22
626.670	1	9
626.840	1	17
627.009	1	13
627.179	1	16
627.348	1	24
627.518	1	18
627.688	1	16
627.857	1	25
628.027	1	12
628.196	1	16
628.366	1	17
628.536	1	20
628.705	1	17
628.875	1	17
629.044	1	14
629.214	1	25
629.384	1	28
629.553	1	20
629.723	1	8
629.892	1	9
630.062	1	23
630.232	1	17
630.401	1	27
630.571	1	13
630.740	1	26
630.910	1	23
631.079	1	13
631.249	1	19
631.419	1	23
631.588	1	9
631.758	1	22
631.927	1	18
632.097	1	19
632.266	1	16
632.436	1	19
632.606	1	13
632.775	1	21
632.945	1	24
633.114	1	26
633.284	1	23
633.453	1	16
633.623	1	15
633.793	1	19
633.962	1	22
634.132	1	20
634.301	1	16
634.471	1	25
634.640	1	29
634.810	1	20
634.979	1	24
635.149	1	24
635.319	1	19
635.488	1	24
635.658	1	23
635.827	1	19
635.997	1	16
636.166	1	22
636.336	1	11
636.505	1	21
636.675	1	20
636.845	1	31
637.014	1	33
637.184	1	31
637.353	1	22
637.523	1	16
637.692	1	24
637.862	1	27
638.031	1	14
638.201	1	37
638.370	1	17
638.540	1	21
638.710	1	18
638.879	1	12
639.049	1	23
639.218	1	18
639.388	1	16
639.557	1	21
639.727	1	21
639.896	1	19
640.066	1	15
640.235	1	26
640.405	1	36
640.574	1	21
640.744	1	18
640.914	1	30
641.083	1	13
641.253	1	17
641.422	1	28
641.592	1	20
641.761	1	21
641.931	1	19
642.100	1	32
642.270	1	25
642.439	1	20
642.609	1	33
642.778	1	19
642.948	1	21
643.117	1	23
643.287	1	11
643.456	1	19
643.626	1	31
643.795	1	25
643.965	1	23
644.134	1	20
644.304	1	29
644.473	1	28
644.643	1	22
644.812	1	21
644.982	1	27
645.151	1	19
645.321	1	11
645.490	1	38
645.660	1	19
645.829	1	22
645.999	1	28
646.168	1	27
646.338	1	25
646.507	1	34
646.677	1	21
646.846	1	15
647.016	1	17
647.185	1	30
647.355	1	4
647.524	1	35
647.694	1	24
647.863	1	24
648.033	1	21
648.202	1	36
648.372	1	25
648.541	1	25
648.711	1	31
648.880	1	9
649.050	1	17
649.219	1	36
649.389	1	26
649.558	1	33
649.728	1	29
649.897	1	16
650.067	1	32
650.236	1	27
650.406	1	27
650.575	1	31
650.745	1	28
650.914	1	25
651.084	1	22
651.253	1	27
651.423	1	21
651.592	1	26
651.762	1	19
651.931	1	38
652.101	1	30
652.270	1	26
652.440	1	37
652.609	1	15
652.778	1	15
652.948	1	43
653.117	1	17
653.287	1	25
653.456	1	34
653.626	1	27
653.795	1	25
653.965	1	35
654.134	1	38
654.304	1	22
654.473	1	33
654.643	1	25
654.812	1	34
654.982	1	25
655.151	1	22
655.320	1	34
655.490	1	24
655.659	1	30
655.829	1	24
655.998	1	14
656.168	1	21
656.337	1	25
656.507	1	27
656.676	1	32
656.846	1	38
657.015	1	34
657.184	1	40
657.354	1	36
657.523	1	23
657.693	1	41
657.862	1	29
658.032	1	26
658.201	1	30
658.371	1	32
658.540	1	29
658.709	1	23
658.879	1	38
659.048	1	16
659.218	1	24
659.387	1	28
659.557	1	27
659.726	1	27
659.895	1	21
660.065	1	19
660.234	1	23
660.404	1	30
660.573	1	18
660.743	1	33
660.912	1	34
661.081	1	29
661.251	1	39
661.420	1	36
661.590	1	26
661.759	1	36
661.929	1	39
662.098	1	37
662.267	1	30
662.437	1	46
662.606	1	25
662.776	1	39
662.945	1	32
663.115	1	19
663.284	1	24
663.453	1	36
663.623	1	25
663.792	1	22
663.962	1	35
664.131	1	31
664.300	1	44
664.470	1	35
664.639	1	34
664.809	1	30
664.978	1	43
665.148	1	33
665.317	1	19
665.486	1	33
665.656	1	31
665.825	1	32
665.995	1	26
666.164	1	27
666.333	1	32
666.503	1	40
666.672	1	20
666.842	1	40
667.011	1	22
667.180	1	27
667.350	1	36
667.519	1	32
667.689	1	25
667.858	1	38
668.027	1	32
668.197	1	17
668.366	1	21
668.536	1	23
668.705	1	25
668.874	1	22
669.044	1	24
669.213	1	34
669.382	1	26
669.552	1	37
669.721	1	33
669.891	1	47
670.060	1	35
670.229	1	35
670.399	1	28
670.568	1	48
670.738	1	31
670.907	1	19
671.076	1	31
671.246	1	34
671.415	1	27
671.584	1	34
671.754	1	28
671.923	1	24
672.093	1	40
672.262	1	28
672.431	1	32
672.601	1	21
672.770	1	25
672.939	1	32
673.109	1	28
673.278	1	33
673.448	1	33
673.617	1	41
673.786	1	38
