325.333	1	11
325.504	1	14
325.675	1	22
325.846	1	16
326.017	1	5
326.188	1	14
326.359	1	11
326.531	1	-1
326.702	1	8
326.873	1	10
327.044	1	8
327.215	1	14
327.386	1	10
327.557	1	0
327.728	1	12
327.899	1	12
328.070	1	16
328.241	1	6
328.412	1	4
328.583	1	9
328.754	1	18
328.926	1	16
329.097	1	11
329.268	1	21
329.439	1	11
329.610	1	18
329.781	1	1
329.952	1	21
330.123	1	12
330.294	1	0
330.465	1	4
330.636	1	15
330.807	1	12
330.978	1	14
331.149	1	6
331.320	1	23
331.492	1	16
331.663	1	10
331.834	1	23
332.005	1	8
332.176	1	27
332.347	1	20
332.518	1	8
332.689	1	20
332.860	1	12
333.031	1	26
333.202	1	16
333.373	1	8
333.544	1	17
333.715	1	16
333.886	1	15
334.057	1	17
334.228	1	10
334.399	1	18
334.570	1	25
334.741	1	12
334.912	1	13
335.084	1	36
335.255	1	15
335.426	1	19
335.597	1	12
335.768	1	19
335.939	1	22
336.110	1	9
336.281	1	3
336.452	1	14
336.623	1	15
336.794	1	25
336.965	1	14
337.136	1	21
337.307	1	10
337.478	1	9
337.649	1	16
337.820	1	13
337.991	1	18
338.162	1	15
338.333	1	10
338.504	1	19
338.675	1	25
338.846	1	27
339.017	1	18
339.188	1	18
339.359	1	9
339.530	1	8
339.701	1	19
339.872	1	27
340.043	1	14
340.214	1	17
340.385	1	28
340.556	1	17
340.727	1	26
340.898	1	29
341.069	1	25
341.240	1	22
341.411	1	27
341.582	1	16
341.753	1	7
341.924	1	18
342.095	1	28
342.266	1	34
342.437	1	30
342.608	1	15
342.779	1	26
342.950	1	28
343.121	1	31
343.292	1	22
343.463	1	26
343.634	1	26
343.805	1	33
343.976	1	26
344.147	1	22
344.318	1	25
344.489	1	24
344.660	1	28
344.831	1	18
345.002	1	16
345.173	1	35
345.344	1	28
345.515	1	28
345.686	1	31
345.857	1	26
346.028	1	24
346.199	1	19
346.370	1	25
346.541	1	26
346.712	1	19
346.883	1	28
347.054	1	13
347.225	1	29
347.396	1	28
347.567	1	30
347.738	1	15
347.909	1	31
348.080	1	28
348.251	1	31
348.422	1	34
348.593	1	26
348.764	1	29
348.935	1	35
349.106	1	21
349.277	1	42
349.448	1	37
349.619	1	33
349.790	1	46
349.961	1	51
350.132	1	43
350.303	1	38
350.474	1	42
350.645	1	38
350.816	1	30
350.987	1	37
351.157	1	31
351.328	1	46
351.499	1	40
351.670	1	30
351.841	1	50
352.012	1	35
352.183	1	45
352.354	1	45
352.525	1	38
352.696	1	48
352.867	1	45
353.038	1	44
353.209	1	33
353.380	1	37
353.551	1	38
353.722	1	24
353.893	1	34
354.064	1	42
354.235	1	28
354.406	1	34
354.576	1	38
354.747	1	33
354.918	1	40
355.089	1	41
355.260	1	51
355.431	1	38
355.602	1	38
355.773	1	37
355.944	1	47
356.115	1	30
356.286	1	44
356.457	1	42
356.628	1	46
356.799	1	50
356.970	1	57
357.141	1	40
357.311	1	39
357.482	1	45
357.653	1	34
357.824	1	41
357.995	1	51
358.166	1	33
358.337	1	37
358.508	1	53
358.679	1	46
358.850	1	42
359.021	1	42
359.192	1	42
359.363	1	34
359.533	1	49
359.704	1	48
359.875	1	47
360.046	1	46
360.217	1	48
360.388	1	46
360.559	1	43
360.730	1	47
360.901	1	37
361.072	1	56
361.243	1	54
361.414	1	30
361.584	1	46
361.755	1	52
361.926	1	47
362.097	1	48
362.268	1	46
362.439	1	38
362.610	1	55
362.781	1	42
362.952	1	40
363.123	1	40
363.293	1	39
363.464	1	45
363.635	1	47
363.806	1	51
363.977	1	32
364.148	1	44
364.319	1	46
364.490	1	41
364.661	1	40
364.832	1	55
365.002	1	51
365.173	1	51
365.344	1	51
365.515	1	52
365.686	1	47
365.857	1	44
366.028	1	66
366.199	1	46
366.370	1	54
366.540	1	40
366.711	1	39
366.882	1	46
367.053	1	36
367.224	1	62
367.395	1	54
367.566	1	57
367.737	1	60
367.908	1	47
368.078	1	53
368.249	1	56
368.420	1	51
368.591	1	31
368.762	1	64
368.933	1	40
369.104	1	49
369.274	1	43
369.445	1	45
369.616	1	44
369.787	1	56
369.958	1	47
370.129	1	41
370.300	1	49
370.471	1	43
370.641	1	57
370.812	1	65
370.983	1	49
371.154	1	47
371.325	1	53
371.496	1	56
371.667	1	63
371.837	1	51
372.008	1	58
372.179	1	43
372.350	1	58
372.521	1	51
372.692	1	52
372.863	1	59
373.033	1	40
373.204	1	50
373.375	1	58
373.546	1	52
373.717	1	59
373.888	1	61
374.059	1	55
374.229	1	61
374.400	1	56
374.571	1	59
374.742	1	59
374.913	1	52
375.084	1	57
375.254	1	49
375.425	1	60
375.596	1	56
375.767	1	52
375.938	1	53
376.109	1	52
376.279	1	51
376.450	1	59
376.621	1	49
376.792	1	51
376.963	1	63
377.134	1	66
377.304	1	55
377.475	1	58
377.646	1	50
377.817	1	52
377.988	1	47
378.159	1	62
378.329	1	65
378.500	1	51
378.671	1	57
378.842	1	55
379.013	1	45
379.184	1	59
379.354	1	69
379.525	1	54
379.696	1	64
379.867	1	63
380.038	1	61
380.209	1	59
380.379	1	57
380.550	1	36
380.721	1	61
380.892	1	64
381.063	1	66
381.233	1	63
381.404	1	56
381.575	1	68
381.746	1	64
381.917	1	58
382.087	1	63
382.258	1	46
382.429	1	57
382.600	1	67
382.771	1	53
382.941	1	57
383.112	1	55
383.283	1	69
383.454	1	55
383.625	1	51
383.795	1	60
383.966	1	52
384.137	1	68
384.308	1	59
384.479	1	71
384.649	1	66
384.820	1	62
384.991	1	56
385.162	1	75
385.333	1	60
385.503	1	65
385.674	1	60
385.845	1	77
386.016	1	64
386.187	1	63
386.357	1	71
386.528	1	64
386.699	1	63
386.870	1	71
387.041	1	69
387.211	1	69
387.382	1	78
387.553	1	77
387.724	1	58
387.894	1	72
388.065	1	61
388.236	1	70
388.407	1	60
388.578	1	63
388.748	1	56
388.919	1	68
389.090	1	62
389.261	1	70
389.431	1	68
389.602	1	72
389.773	1	74
389.944	1	79
390.114	1	79
390.285	1	66
390.456	1	66
390.627	1	63
390.798	1	74
390.968	1	67
391.139	1	76
391.310	1	64
391.481	1	66
391.651	1	70
391.822	1	66
391.993	1	79
392.164	1	58
392.334	1	69
392.505	1	59
392.676	1	74
392.847	1	76
393.017	1	75
393.188	1	71
393.359	1	62
393.530	1	68
393.700	1	76
393.871	1	65
394.042	1	66
394.213	1	60
394.383	1	72
394.554	1	67
394.725	1	77
394.896	1	67
395.066	1	74
395.237	1	64
395.408	1	74
395.579	1	79
395.749	1	71
395.920	1	65
396.091	1	89
396.262	1	76
396.432	1	74
396.603	1	80
396.774	1	79
396.945	1	77
397.115	1	71
397.286	1	75
397.457	1	63
397.627	1	84
397.798	1	74
397.969	1	79
398.140	1	77
398.310	1	70
398.481	1	76
398.652	1	74
398.823	1	69
398.993	1	74
399.164	1	68
399.335	1	77
399.505	1	91
399.676	1	68
399.847	1	76
400.018	1	64
400.188	1	78
400.359	1	77
400.530	1	69
400.700	1	74
400.871	1	70
401.042	1	76
401.213	1	76
401.383	1	81
401.554	1	76
401.725	1	79
401.895	1	74
402.066	1	79
402.237	1	75
402.408	1	82
402.578	1	75
402.749	1	83
402.920	1	80
403.090	1	80
403.261	1	69
403.432	1	70
403.603	1	75
403.773	1	88
403.944	1	78
404.115	1	83
404.285	1	85
404.456	1	77
404.627	1	67
404.797	1	76
404.968	1	78
405.139	1	70
405.310	1	88
405.480	1	79
405.651	1	68
405.822	1	78
405.992	1	77
406.163	1	79
406.334	1	69
406.504	1	80
406.675	1	86
406.846	1	79
407.016	1	80
407.187	1	92
407.358	1	66
407.528	1	71
407.699	1	63
407.870	1	78
408.041	1	77
408.211	1	83
408.382	1	72
408.553	1	82
408.723	1	90
408.894	1	70
409.065	1	80
409.235	1	79
409.406	1	83
409.577	1	77
409.747	1	86
409.918	1	73
410.089	1	84
410.259	1	93
410.430	1	72
410.601	1	78
410.771	1	72
410.942	1	82
411.113	1	88
411.283	1	76
411.454	1	87
411.625	1	81
411.795	1	83
411.966	1	91
412.137	1	87
412.307	1	69
412.478	1	74
412.649	1	82
412.819	1	67
412.990	1	80
413.161	1	88
413.331	1	58
413.502	1	82
413.672	1	73
413.843	1	81
414.014	1	73
414.184	1	81
414.355	1	81
414.526	1	64
414.696	1	93
414.867	1	73
415.038	1	77
415.208	1	66
415.379	1	86
415.550	1	71
415.720	1	69
415.891	1	71
416.062	1	79
416.232	1	79
416.403	1	85
416.573	1	89
416.744	1	69
416.915	1	81
417.085	1	73
417.256	1	75
417.427	1	74
417.597	1	69
417.768	1	62
417.939	1	82
418.109	1	84
418.280	1	85
418.450	1	72
418.621	1	63
418.792	1	73
418.962	1	79
419.133	1	92
419.304	1	69
419.474	1	63
419.645	1	81
419.815	1	69
419.986	1	79
420.157	1	65
420.327	1	88
420.498	1	87
420.669	1	87
420.839	1	82
421.010	1	94
421.180	1	78
421.351	1	66
421.522	1	80
421.692	1	83
421.863	1	70
422.033	1	83
422.204	1	78
422.375	1	74
422.545	1	80
422.716	1	72
422.886	1	76
423.057	1	78
423.228	1	78
423.398	1	82
423.569	1	74
423.740	1	62
423.910	1	59
424.081	1	71
424.251	1	71
424.422	1	75
424.593	1	59
424.763	1	68
424.934	1	66
425.104	1	80
425.275	1	60
425.445	1	79
425.616	1	62
425.787	1	63
425.957	1	71
426.128	1	91
426.298	1	67
426.469	1	61
426.640	1	71
426.810	1	69
426.981	1	68
427.151	1	65
427.322	1	74
427.493	1	70
427.663	1	62
427.834	1	60
428.004	1	73
428.175	1	62
428.345	1	71
428.516	1	65
428.687	1	64
428.857	1	65
429.028	1	71
429.198	1	65
429.369	1	75
429.540	1	72
429.710	1	58
429.881	1	73
430.051	1	70
430.222	1	61
430.392	1	67
430.563	1	75
430.734	1	73
430.904	1	76
431.075	1	69
431.245	1	65
431.416	1	71
431.586	1	70
431.757	1	68
431.927	1	78
432.098	1	73
432.269	1	54
432.439	1	64
432.610	1	72
432.780	1	70
432.951	1	74
433.121	1	69
433.292	1	76
433.462	1	85
433.633	1	76
433.804	1	69
433.974	1	78
434.145	1	80
434.315	1	64
434.486	1	67
434.656	1	70
434.827	1	55
434.997	1	63
435.168	1	73
435.339	1	69
435.509	1	67
435.680	1	66
435.850	1	67
436.021	1	71
436.191	1	65
436.362	1	73
436.532	1	62
436.703	1	64
436.873	1	71
437.044	1	60
437.214	1	68
437.385	1	67
437.556	1	54
437.726	1	81
437.897	1	80
438.067	1	61
438.238	1	56
438.408	1	70
438.579	1	61
438.749	1	58
438.920	1	65
439.090	1	74
439.261	1	62
439.431	1	56
439.602	1	63
439.772	1	69
439.943	1	75
440.113	1	78
440.284	1	67
440.455	1	65
440.625	1	55
440.796	1	67
440.966	1	58
441.137	1	61
441.307	1	59
441.478	1	61
441.648	1	68
441.819	1	67
441.989	1	60
442.160	1	63
442.330	1	53
442.501	1	61
442.671	1	60
442.842	1	49
443.012	1	61
443.183	1	66
443.353	1	54
443.524	1	61
443.694	1	60
443.865	1	59
444.035	1	60
444.206	1	55
444.376	1	52
444.547	1	68
444.717	1	55
444.888	1	62
445.058	1	62
445.229	1	58
445.399	1	65
445.570	1	60
445.740	1	56
445.911	1	61
446.081	1	51
446.252	1	56
446.422	1	54
446.593	1	59
446.763	1	60
446.934	1	55
447.104	1	61
447.275	1	55
447.445	1	60
447.616	1	64
447.786	1	62
447.957	1	61
448.127	1	50
448.298	1	62
448.468	1	55
448.639	1	59
448.809	1	51
448.979	1	56
449.150	1	63
449.320	1	55
449.491	1	62
449.661	1	55
449.832	1	49
450.002	1	53
450.173	1	47
450.343	1	62
450.514	1	56
450.684	1	53
450.855	1	57
451.025	1	59
451.196	1	47
451.366	1	56
451.537	1	49
451.707	1	40
451.878	1	55
452.048	1	60
452.218	1	65
452.389	1	53
452.559	1	60
452.730	1	62
452.900	1	66
453.071	1	43
453.241	1	47
453.412	1	48
453.582	1	48
453.753	1	56
453.923	1	46
454.093	1	58
454.264	1	60
454.434	1	53
454.605	1	48
454.775	1	54
454.946	1	49
455.116	1	54
455.287	1	34
455.457	1	50
455.628	1	39
455.798	1	54
455.968	1	51
456.139	1	56
456.309	1	51
456.480	1	44
456.650	1	45
456.821	1	42
456.991	1	49
457.161	1	55
457.332	1	61
457.502	1	36
457.673	1	59
457.843	1	55
458.014	1	52
458.184	1	58
458.355	1	46
458.525	1	52
458.695	1	55
458.866	1	47
459.036	1	43
459.207	1	43
459.377	1	47
459.548	1	54
459.718	1	40
459.888	1	55
460.059	1	57
460.229	1	52
460.400	1	60
460.570	1	52
460.740	1	48
460.911	1	43
461.081	1	47
461.252	1	36
461.422	1	50
461.593	1	43
461.763	1	46
461.933	1	53
462.104	1	34
462.274	1	49
462.445	1	51
462.615	1	49
462.785	1	43
462.956	1	50
463.126	1	52
463.297	1	35
463.467	1	55
463.638	1	45
463.808	1	32
463.978	1	32
464.149	1	41
464.319	1	44
464.490	1	59
464.660	1	35
464.830	1	32
465.001	1	43
465.171	1	54
465.342	1	48
465.512	1	38
465.682	1	46
465.853	1	44
466.023	1	38
466.194	1	46
466.364	1	43
466.534	1	42
466.705	1	51
466.875	1	44
467.045	1	32
467.216	1	57
467.386	1	36
467.557	1	40
467.727	1	40
467.897	1	41
468.068	1	38
468.238	1	37
468.409	1	34
468.579	1	42
468.749	1	44
468.920	1	35
469.090	1	42
469.260	1	29
469.431	1	40
469.601	1	41
469.772	1	29
469.942	1	38
470.112	1	34
470.283	1	30
470.453	1	37
470.623	1	29
470.794	1	34
470.964	1	45
471.135	1	52
471.305	1	29
471.475	1	43
471.646	1	28
471.816	1	38
471.986	1	37
472.157	1	41
472.327	1	25
472.497	1	31
472.668	1	30
472.838	1	42
473.009	1	30
473.179	1	34
473.349	1	33
473.520	1	37
473.690	1	38
473.860	1	35
474.031	1	46
474.201	1	46
474.371	1	40
474.542	1	33
474.712	1	43
474.882	1	38
475.053	1	40
475.223	1	29
475.394	1	38
475.564	1	46
475.734	1	41
475.905	1	47
476.075	1	45
476.245	1	34
476.416	1	38
476.586	1	44
476.756	1	31
476.927	1	40
477.097	1	39
477.267	1	29
477.438	1	33
477.608	1	39
477.778	1	30
477.949	1	36
478.119	1	47
478.289	1	34
478.460	1	47
478.630	1	32
478.800	1	28
478.971	1	33
479.141	1	38
479.311	1	12
479.482	1	45
479.652	1	37
479.822	1	33
479.993	1	39
480.163	1	36
480.333	1	34
480.504	1	50
480.674	1	33
480.844	1	29
481.015	1	41
481.185	1	32
481.355	1	30
481.525	1	29
481.696	1	27
481.866	1	35
482.036	1	36
482.207	1	29
482.377	1	35
482.547	1	34
482.718	1	31
482.888	1	39
483.058	1	24
483.229	1	25
483.399	1	24
483.569	1	25
483.740	1	37
483.910	1	29
484.080	1	27
484.250	1	32
484.421	1	31
484.591	1	35
484.761	1	26
484.932	1	35
485.102	1	40
485.272	1	35
485.443	1	46
485.613	1	39
485.783	1	30
485.953	1	36
486.124	1	36
486.294	1	41
486.464	1	26
486.635	1	35
486.805	1	41
486.975	1	16
487.146	1	38
487.316	1	28
487.486	1	31
487.656	1	23
487.827	1	31
487.997	1	21
488.167	1	28
488.338	1	36
488.508	1	16
488.678	1	22
488.848	1	33
489.019	1	33
489.189	1	23
489.359	1	19
489.529	1	34
489.700	1	21
489.870	1	40
490.040	1	27
490.211	1	17
490.381	1	36
490.551	1	35
490.721	1	34
490.892	1	30
491.062	1	23
491.232	1	20
491.402	1	26
491.573	1	9
491.743	1	26
491.913	1	16
492.084	1	28
492.254	1	19
492.424	1	28
492.594	1	23
492.765	1	26
492.935	1	17
493.105	1	17
493.275	1	24
493.446	1	33
493.616	1	32
493.786	1	22
493.956	1	15
494.127	1	21
494.297	1	21
494.467	1	27
494.637	1	30
494.808	1	17
494.978	1	11
495.148	1	29
495.318	1	16
495.489	1	22
495.659	1	31
495.829	1	14
495.999	1	17
496.170	1	25
496.340	1	34
496.510	1	30
496.680	1	12
496.851	1	26
497.021	1	21
497.191	1	24
497.361	1	16
497.532	1	21
497.702	1	32
497.872	1	15
498.042	1	30
498.213	1	21
498.383	1	28
498.553	1	20
498.723	1	13
498.894	1	20
499.064	1	18
499.234	1	16
499.404	1	20
499.574	1	23
499.745	1	21
499.915	1	17
500.085	1	24
500.255	1	30
500.426	1	25
500.596	1	33
500.766	1	16
500.936	1	14
501.106	1	10
501.277	1	23
501.447	1	11
501.617	1	15
501.787	1	18
501.958	1	12
502.128	1	24
502.298	1	21
502.468	1	27
502.638	1	24
502.809	1	7
502.979	1	11
503.149	1	8
503.319	1	13
503.489	1	7
503.660	1	28
503.830	1	19
504.000	1	21
504.170	1	13
504.340	1	23
504.511	1	25
504.681	1	17
504.851	1	21
505.021	1	15
505.192	1	13
505.362	1	21
505.532	1	18
505.702	1	13
505.872	1	20
506.043	1	21
506.213	1	18
506.383	1	15
506.553	1	16
506.723	1	18
506.893	1	14
507.064	1	22
507.234	1	15
507.404	1	13
507.574	1	29
507.744	1	24
507.915	1	20
508.085	1	25
508.255	1	19
508.425	1	13
508.595	1	23
508.766	1	24
508.936	1	8
509.106	1	25
509.276	1	27
509.446	1	17
509.616	1	11
509.787	1	11
509.957	1	27
510.127	1	22
510.297	1	12
510.467	1	1
510.638	1	15
510.808	1	14
510.978	1	6
511.148	1	15
511.318	1	14
511.488	1	4
511.659	1	7
511.829	1	13
511.999	1	19
512.169	1	19
512.339	1	15
512.509	1	10
512.680	1	12
512.850	1	21
513.020	1	20
513.190	1	16
513.360	1	11
513.530	1	19
513.700	1	23
513.871	1	10
514.041	1	9
514.211	1	31
514.381	1	11
514.551	1	14
514.721	1	13
514.892	1	15
515.062	1	10
515.232	1	15
515.402	1	13
515.572	1	10
515.742	1	22
515.912	1	21
516.083	1	12
516.253	1	21
516.423	1	17
516.593	1	3
516.763	1	26
516.933	1	12
517.104	1	8
517.274	1	11
517.444	1	17
517.614	1	12
517.784	1	9
517.954	1	22
518.124	1	23
518.294	1	7
518.465	1	7
518.635	1	12
518.805	1	2
518.975	1	19
519.145	1	13
519.315	1	10
519.485	1	6
519.656	1	19
519.826	1	7
519.996	1	6
520.166	1	12
520.336	1	22
520.506	1	8
520.676	1	7
520.846	1	27
521.017	1	10
521.187	1	12
521.357	1	25
521.527	1	5
521.697	1	15
521.867	1	6
522.037	1	18
522.207	1	21
522.377	1	10
522.548	1	11
522.718	1	12
522.888	1	18
523.058	1	6
523.228	1	13
523.398	1	19
523.568	1	10
523.738	1	10
523.909	1	14
524.079	1	20
524.249	1	5
524.419	1	11
524.589	1	11
524.759	1	10
524.929	1	1
525.099	1	15
525.269	1	13
525.439	1	10
525.610	1	28
525.780	1	9
525.950	1	8
526.120	1	13
526.290	1	13
526.460	1	13
526.630	1	12
526.800	1	9
526.970	1	11
527.140	1	19
527.311	1	4
527.481	1	8
527.651	1	20
527.821	1	5
527.991	1	28
528.161	1	20
528.331	1	2
528.501	1	13
528.671	1	2
528.841	1	12
529.011	1	5
529.181	1	10
529.352	1	15
529.522	1	11
529.692	1	10
529.862	1	12
530.032	1	14
530.202	1	7
530.372	1	14
530.542	1	11
530.712	1	12
530.882	1	9
531.052	1	17
531.222	1	3
531.392	1	5
531.563	1	13
531.733	1	13
531.903	1	12
532.073	1	13
532.243	1	7
532.413	1	14
532.583	1	13
532.753	1	19
532.923	1	4
533.093	1	12
533.263	1	7
533.433	1	5
533.603	1	11
533.773	1	8
533.943	1	17
534.113	1	12
534.284	1	16
534.454	1	19
534.624	1	21
534.794	1	7
534.964	1	20
535.134	1	3
535.304	1	15
535.474	1	18
535.644	1	7
535.814	1	4
535.984	1	3
536.154	1	9
536.324	1	13
536.494	1	20
536.664	1	14
536.834	1	7
537.004	1	9
537.174	1	11
537.344	1	13
537.514	1	-2
537.685	1	6
537.855	1	21
538.025	1	10
538.195	1	6
538.365	1	16
538.535	1	7
538.705	1	6
538.875	1	3
539.045	1	11
539.215	1	11
539.385	1	18
539.555	1	24
539.725	1	13
539.895	1	0
540.065	1	17
540.235	1	8
540.405	1	4
540.575	1	2
540.745	1	11
540.915	1	7
541.085	1	16
541.255	1	8
541.425	1	9
541.595	1	3
541.765	1	11
541.935	1	6
542.105	1	4
542.275	1	4
542.445	1	-10
542.615	1	3
542.785	1	17
542.955	1	5
543.125	1	5
543.295	1	11
543.465	1	14
543.635	1	11
543.805	1	19
543.975	1	10
544.145	1	16
544.315	1	17
544.485	1	20
544.655	1	7
544.825	1	4
544.995	1	13
545.165	1	-2
545.335	1	14
545.505	1	-6
545.675	1	9
545.845	1	9
546.015	1	14
546.185	1	9
546.355	1	9
546.525	1	10
546.695	1	5
546.865	1	-7
547.035	1	12
547.205	1	-2
547.375	1	10
547.545	1	8
547.715	1	5
547.885	1	12
548.055	1	0
548.225	1	15
548.395	1	3
548.565	1	10
548.735	1	11
548.905	1	11
549.075	1	-3
549.245	1	0
549.415	1	7
549.585	1	9
549.755	1	10
549.925	1	-4
550.095	1	18
550.265	1	6
550.435	1	5
550.605	1	2
550.775	1	9
550.945	1	11
551.115	1	5
551.285	1	10
551.455	1	1
551.625	1	15
551.795	1	3
551.965	1	5
552.135	1	5
552.305	1	3
552.475	1	-1
552.645	1	7
552.815	1	10
552.985	1	8
553.155	1	7
553.325	1	17
553.495	1	1
553.665	1	0
553.835	1	2
554.004	1	3
554.174	1	7
554.344	1	6
554.514	1	5
554.684	1	5
554.854	1	5
555.024	1	3
555.194	1	-3
555.364	1	11
555.534	1	7
555.704	1	7
555.874	1	17
556.044	1	16
556.214	1	-8
556.384	1	4
556.554	1	20
556.724	1	12
556.894	1	7
557.064	1	2
557.234	1	9
557.404	1	10
557.573	1	15
557.743	1	2
557.913	1	10
558.083	1	10
558.253	1	7
558.423	1	8
558.593	1	15
558.763	1	-4
558.933	1	2
559.103	1	11
559.273	1	3
559.443	1	11
559.613	1	5
559.783	1	11
559.953	1	8
560.122	1	16
560.292	1	9
560.462	1	-2
560.632	1	10
560.802	1	5
560.972	1	8
561.142	1	3
561.312	1	-4
561.482	1	11
561.652	1	18
561.822	1	2
561.992	1	1
562.162	1	13
562.331	1	-3
562.501	1	1
562.671	1	15
562.841	1	-7
563.011	1	12
563.181	1	0
563.351	1	-3
563.521	1	5
563.691	1	-8
563.861	1	9
564.031	1	13
564.201	1	14
564.370	1	-2
564.540	1	10
564.710	1	5
564.880	1	16
565.050	1	7
565.220	1	4
565.390	1	1
565.560	1	4
565.730	1	-1
565.900	1	8
566.069	1	12
566.239	1	9
566.409	1	15
566.579	1	13
566.749	1	5
566.919	1	16
567.089	1	9
567.259	1	17
567.429	1	7
567.599	1	0
567.768	1	4
567.938	1	6
568.108	1	5
568.278	1	6
568.448	1	3
568.618	1	0
568.788	1	14
568.958	1	6
569.128	1	15
569.297	1	2
569.467	1	2
569.637	1	11
569.807	1	5
569.977	1	10
570.147	1	15
570.317	1	-6
570.487	1	7
570.656	1	15
570.826	1	-4
570.996	1	-5
571.166	1	12
571.336	1	5
571.506	1	4
571.676	1	1
571.846	1	7
572.015	1	10
572.185	1	5
572.355	1	6
572.525	1	11
572.695	1	2
572.865	1	-10
573.035	1	6
573.205	1	10
573.374	1	-2
573.544	1	3
573.714	1	15
573.884	1	10
574.054	1	14
574.224	1	3
574.394	1	-3
574.563	1	-5
574.733	1	7
574.903	1	2
575.073	1	3
575.243	1	0
575.413	1	12
575.583	1	-2
575.752	1	15
575.922	1	2
576.092	1	-1
576.262	1	5
576.432	1	4
576.602	1	3
576.772	1	7
576.941	1	11
577.111	1	0
577.281	1	-7
577.451	1	-6
577.621	1	12
577.791	1	17
577.960	1	-1
578.130	1	8
578.300	1	5
578.470	1	11
578.640	1	8
578.810	1	2
578.979	1	9
579.149	1	9
579.319	1	4
579.489	1	8
579.659	1	7
579.829	1	5
579.998	1	2
580.168	1	8
580.338	1	3
580.508	1	6
580.678	1	5
580.848	1	8
581.017	1	9
581.187	1	10
581.357	1	-1
581.527	1	6
581.697	1	12
581.867	1	11
582.036	1	4
582.206	1	2
582.376	1	6
582.546	1	-4
582.716	1	-4
582.885	1	3
583.055	1	9
583.225	1	-3
583.395	1	9
583.565	1	-2
583.735	1	5
583.904	1	8
584.074	1	13
584.244	1	6
584.414	1	5
584.584	1	6
584.753	1	4
584.923	1	3
585.093	1	0
585.263	1	5
585.433	1	9
585.602	1	-3
585.772	1	3
585.942	1	7
586.112	1	12
586.282	1	-2
586.451	1	3
586.621	1	-7
586.791	1	4
586.961	1	5
587.131	1	12
587.300	1	8
587.470	1	10
587.640	1	9
587.810	1	-6
587.980	1	-1
588.149	1	2
588.319	1	9
588.489	1	7
588.659	1	15
588.829	1	7
588.998	1	17
589.168	1	7
589.338	1	8
589.508	1	7
589.677	1	3
589.847	1	5
590.017	1	17
590.187	1	5
590.357	1	15
590.526	1	12
590.696	1	4
590.866	1	6
591.036	1	6
591.205	1	15
591.375	1	9
591.545	1	0
591.715	1	8
591.885	1	3
592.054	1	4
592.224	1	8
592.394	1	-6
592.564	1	5
592.733	1	11
592.903	1	8
593.073	1	9
593.243	1	8
593.412	1	4
593.582	1	-2
593.752	1	-7
593.922	1	10
594.091	1	2
594.261	1	-2
594.431	1	21
594.601	1	16
594.771	1	7
594.940	1	5
595.110	1	-2
595.280	1	0
595.450	1	1
595.619	1	5
595.789	1	8
595.959	1	14
596.129	1	5
596.298	1	10
596.468	1	13
596.638	1	10
596.808	1	2
596.977	1	0
597.147	1	5
597.317	1	1
597.487	1	12
597.656	1	0
597.826	1	3
597.996	1	9
598.166	1	12
598.335	1	-3
598.505	1	1
598.675	1	-4
598.844	1	9
599.014	1	4
599.184	1	7
599.354	1	-9
599.523	1	6
599.693	1	2
599.863	1	19
600.033	1	8
600.202	1	8
600.372	1	14
600.542	1	11
600.712	1	-1
600.881	1	-1
601.051	1	15
601.221	1	10
601.390	1	2
601.560	1	12
601.730	1	8
601.900	1	9
602.069	1	4
602.239	1	-1
602.409	1	6
602.578	1	7
602.748	1	9
602.918	1	13
603.088	1	10
603.257	1	4
603.427	1	-3
603.597	1	-1
603.767	1	2
603.936	1	6
604.106	1	6
604.276	1	4
604.445	1	12
604.615	1	7
604.785	1	7
604.954	1	6
605.124	1	3
605.294	1	-3
605.464	1	-4
605.633	1	7
605.803	1	6
605.973	1	0
606.142	1	6
606.312	1	14
606.482	1	5
606.652	1	11
606.821	1	4
606.991	1	0
607.161	1	2
607.330	1	3
607.500	1	1
607.670	1	-1
607.839	1	9
608.009	1	18
608.179	1	10
608.348	1	10
608.518	1	4
608.688	1	15
608.858	1	4
609.027	1	-2
609.197	1	3
609.367	1	11
609.536	1	1
609.706	1	2
609.876	1	3
610.045	1	8
610.215	1	9
610.385	1	-3
610.554	1	5
610.724	1	8
610.894	1	1
611.063	1	12
611.233	1	1
611.403	1	4
611.572	1	0
611.742	1	6
611.912	1	9
612.081	1	3
612.251	1	9
612.421	1	-5
612.590	1	14
612.760	1	1
612.930	1	10
613.099	1	3
613.269	1	21
613.439	1	4
613.608	1	-3
613.778	1	8
613.948	1	6
614.117	1	10
614.287	1	7
614.457	1	12
614.626	1	4
614.796	1	10
614.966	1	6
615.135	1	-1
615.305	1	12
615.475	1	-1
615.644	1	6
615.814	1	7
615.984	1	0
616.153	1	1
616.323	1	13
616.493	1	12
616.662	1	12
616.832	1	4
617.002	1	1
617.171	1	2
617.341	1	7
617.511	1	-2
617.680	1	3
617.850	1	9
618.019	1	13
618.189	1	19
618.359	1	13
618.528	1	6
618.698	1	3
618.868	1	-6
619.037	1	-1
619.207	1	-1
619.377	1	3
619.546	1	13
619.716	1	3
619.885	1	9
620.055	1	-4
620.225	1	17
620.394	1	-5
620.564	1	15
620.734	1	9
620.903	1	-2
621.073	1	14
621.242	1	4
621.412	1	6
621.582	1	7
621.751	1	19
621.921	1	15
622.091	1	-2
622.260	1	9
622.430	1	10
622.599	1	10
622.769	1	9
622.939	1	11
623.108	1	-1
623.278	1	-5
623.448	1	-1
623.617	1	2
623.787	1	3
623.956	1	15
624.126	1	10
624.296	1	10
624.465	1	13
624.635	1	16
624.804	1	7
624.974	1	2
625.144	1	18
625.313	1	0
625.483	1	-4
625.652	1	8
625.822	1	3
625.992	1	11
626.161	1	15
626.331	1	10
626.501	1	15
626.670	1	5
626.840	1	6
627.009	1	-3
627.179	1	14
627.348	1	4
627.518	1	12
627.688	1	9
627.857	1	19
628.027	1	10
628.196	1	1
628.366	1	8
628.536	1	8
628.705	1	22
628.875	1	8
629.044	1	4
629.214	1	13
629.384	1	20
629.553	1	25
629.723	1	14
629.892	1	5
630.062	1	14
630.232	1	-1
630.401	1	18
630.571	1	4
630.740	1	7
630.910	1	15
631.079	1	10
631.249	1	13
631.419	1	10
631.588	1	-5
631.758	1	19
631.927	1	3
632.097	1	5
632.266	1	12
632.436	1	15
632.606	1	8
632.775	1	12
632.945	1	16
633.114	1	4
633.284	1	3
633.453	1	9
633.623	1	-1
633.793	1	8
633.962	1	5
634.132	1	7
634.301	1	20
634.471	1	6
634.640	1	20
634.810	1	19
634.979	1	14
635.149	1	4
635.319	1	6
635.488	1	12
635.658	1	10
635.827	1	6
635.997	1	5
636.166	1	9
636.336	1	0
636.505	1	10
636.675	1	6
636.845	1	12
637.014	1	4
637.184	1	14
637.353	1	12
637.523	1	16
637.692	1	11
637.862	1	14
638.031	1	10
638.201	1	13
638.370	1	5
638.540	1	12
638.710	1	7
638.879	1	5
639.049	1	15
639.218	1	7
639.388	1	5
639.557	1	9
639.727	1	9
639.896	1	7
640.066	1	7
640.235	1	9
640.405	1	18
640.574	1	12
640.744	1	10
640.914	1	10
641.083	1	2
641.253	1	3
641.422	1	-3
641.592	1	17
641.761	1	11
641.931	1	2
642.100	1	21
642.270	1	1
642.439	1	16
642.609	1	18
642.778	1	7
642.948	1	4
643.117	1	22
643.287	1	12
643.456	1	2
643.626	1	25
643.795	1	6
643.965	1	9
644.134	1	7
644.304	1	14
644.473	1	17
644.643	1	18
644.812	1	12
644.982	1	17
645.151	1	1
645.321	1	0
645.490	1	24
645.660	1	9
645.829	1	5
645.999	1	14
646.168	1	28
646.338	1	11
646.507	1	7
646.677	1	12
646.846	1	8
647.016	1	1
647.185	1	9
647.355	1	-7
647.524	1	18
647.694	1	17
647.863	1	21
648.033	1	6
648.202	1	19
648.372	1	7
648.541	1	7
648.711	1	16
648.880	1	-4
649.050	1	6
649.219	1	7
649.389	1	16
649.558	1	8
649.728	1	20
649.897	1	-1
650.067	1	12
650.236	1	15
650.406	1	5
650.575	1	13
650.745	1	16
650.914	1	14
651.084	1	9
651.253	1	12
651.423	1	12
651.592	1	9
651.762	1	4
651.931	1	19
652.101	1	15
652.270	1	13
652.440	1	14
652.609	1	-1
652.778	1	7
652.948	1	13
653.117	1	20
653.287	1	7
653.456	1	18
653.626	1	25
653.795	1	8
653.965	1	17
654.134	1	16
654.304	1	4
654.473	1	12
654.643	1	12
654.812	1	12
654.982	1	10
655.151	1	-3
655.320	1	9
655.490	1	8
655.659	1	20
655.829	1	7
655.998	1	6
656.168	1	5
656.337	1	12
656.507	1	11
656.676	1	22
656.846	1	18
657.015	1	11
657.184	1	22
657.354	1	9
657.523	1	13
657.693	1	18
657.862	1	10
658.032	1	11
658.201	1	13
658.371	1	19
658.540	1	14
658.709	1	9
658.879	1	22
659.048	1	13
659.218	1	3
659.387	1	5
659.557	1	11
659.726	1	16
659.895	1	3
660.065	1	8
660.234	1	14
660.404	1	17
660.573	1	3
660.743	1	15
660.912	1	4
661.081	1	21
661.251	1	7
661.420	1	16
661.590	1	5
661.759	1	16
661.929	1	13
662.098	1	27
662.267	1	2
662.437	1	16
662.606	1	14
662.776	1	14
662.945	1	6
663.115	1	23
663.284	1	13
663.453	1	11
663.623	1	10
663.792	1	14
663.962	1	3
664.131	1	15
664.300	1	19
664.470	1	7
664.639	1	15
664.809	1	5
664.978	1	23
665.148	1	11
665.317	1	13
665.486	1	19
665.656	1	7
665.825	1	19
665.995	1	4
666.164	1	11
666.333	1	12
666.503	1	8
666.672	1	5
666.842	1	9
667.011	1	6
667.180	1	17
667.350	1	12
667.519	1	21
667.689	1	16
667.858	1	23
668.027	1	15
668.197	1	17
668.366	1	6
668.536	1	15
668.705	1	8
668.874	1	10
669.044	1	6
669.213	1	16
669.382	1	5
669.552	1	12
669.721	1	16
669.891	1	32
670.060	1	17
670.229	1	18
670.399	1	6
670.568	1	9
670.738	1	17
670.907	1	7
671.076	1	8
671.246	1	10
671.415	1	18
671.584	1	16
671.754	1	13
671.923	1	12
672.093	1	15
672.262	1	16
672.431	1	14
672.601	1	14
672.770	1	9
672.939	1	17
673.109	1	11
673.278	1	19
673.448	1	11
673.617	1	12
673.786	1	18
