325.333	1	18
325.504	1	7
325.675	1	11
325.846	1	7
326.017	1	9
326.188	1	6
326.359	1	4
326.531	1	-3
326.702	1	8
326.873	1	16
327.044	1	15
327.215	1	5
327.386	1	12
327.557	1	-1
327.728	1	13
327.899	1	10
328.070	1	24
328.241	1	16
328.412	1	4
328.583	1	11
328.754	1	18
328.926	1	11
329.097	1	5
329.268	1	18
329.439	1	11
329.610	1	13
329.781	1	11
329.952	1	16
330.123	1	21
330.294	1	6
330.465	1	1
330.636	1	20
330.807	1	12
330.978	1	11
331.149	1	13
331.320	1	9
331.492	1	13
331.663	1	9
331.834	1	21
332.005	1	9
332.176	1	16
332.347	1	19
332.518	1	11
332.689	1	15
332.860	1	13
333.031	1	24
333.202	1	-2
333.373	1	9
333.544	1	24
333.715	1	13
333.886	1	2
334.057	1	14
334.228	1	7
334.399	1	19
334.570	1	22
334.741	1	9
334.912	1	17
335.084	1	28
335.255	1	17
335.426	1	17
335.597	1	15
335.768	1	14
335.939	1	15
336.110	1	4
336.281	1	8
336.452	1	21
336.623	1	21
336.794	1	16
336.965	1	17
337.136	1	24
337.307	1	19
337.478	1	11
337.649	1	15
337.820	1	13
337.991	1	14
338.162	1	20
338.333	1	23
338.504	1	19
338.675	1	13
338.846	1	13
339.017	1	16
339.188	1	21
339.359	1	10
339.530	1	20
339.701	1	18
339.872	1	28
340.043	1	14
340.214	1	25
340.385	1	24
340.556	1	6
340.727	1	18
340.898	1	33
341.069	1	18
341.240	1	12
341.411	1	32
341.582	1	27
341.753	1	8
341.924	1	21
342.095	1	15
342.266	1	20
342.437	1	26
342.608	1	18
342.779	1	27
342.950	1	22
343.121	1	22
343.292	1	13
343.463	1	17
343.634	1	22
343.805	1	21
343.976	1	25
344.147	1	25
344.318	1	17
344.489	1	35
344.660	1	27
344.831	1	17
345.002	1	23
345.173	1	27
345.344	1	25
345.515	1	27
345.686	1	22
345.857	1	14
346.028	1	20
346.199	1	15
346.370	1	26
346.541	1	22
346.712	1	21
346.883	1	20
347.054	1	25
347.225	1	20
347.396	1	22
347.567	1	27
347.738	1	14
347.909	1	41
348.080	1	30
348.251	1	33
348.422	1	36
348.593	1	27
348.764	1	23
348.935	1	38
349.106	1	21
349.277	1	20
349.448	1	37
349.619	1	31
349.790	1	29
349.961	1	36
350.132	1	40
350.303	1	39
350.474	1	40
350.645	1	31
350.816	1	39
350.987	1	38
351.157	1	29
351.328	1	42
351.499	1	41
351.670	1	31
351.841	1	47
352.012	1	41
352.183	1	45
352.354	1	35
352.525	1	40
352.696	1	45
352.867	1	34
353.038	1	40
353.209	1	44
353.380	1	36
353.551	1	26
353.722	1	29
353.893	1	35
354.064	1	48
354.235	1	42
354.406	1	29
354.576	1	30
354.747	1	30
354.918	1	39
355.089	1	38
355.260	1	44
355.431	1	43
355.602	1	31
355.773	1	43
355.944	1	36
356.115	1	41
356.286	1	42
356.457	1	40
356.628	1	41
356.799	1	33
356.970	1	49
357.141	1	43
357.311	1	37
357.482	1	37
357.653	1	34
357.824	1	51
357.995	1	42
358.166	1	36
358.337	1	42
358.508	1	40
358.679	1	40
358.850	1	41
359.021	1	38
359.192	1	48
359.363	1	35
359.533	1	44
359.704	1	41
359.875	1	45
360.046	1	49
360.217	1	33
360.388	1	51
360.559	1	41
360.730	1	49
360.901	1	46
361.072	1	49
361.243	1	56
361.414	1	47
361.584	1	34
361.755	1	52
361.926	1	44
362.097	1	47
362.268	1	51
362.439	1	38
362.610	1	53
362.781	1	38
362.952	1	37
363.123	1	48
363.293	1	38
363.464	1	58
363.635	1	46
363.806	1	40
363.977	1	46
364.148	1	37
364.319	1	49
364.490	1	39
364.661	1	44
364.832	1	56
365.002	1	48
365.173	1	39
365.344	1	52
365.515	1	35
365.686	1	41
365.857	1	44
366.028	1	57
366.199	1	51
366.370	1	56
366.540	1	46
366.711	1	27
366.882	1	42
367.053	1	37
367.224	1	70
367.395	1	56
367.566	1	63
367.737	1	42
367.908	1	54
368.078	1	42
368.249	1	54
368.420	1	42
368.591	1	36
368.762	1	40
368.933	1	46
369.104	1	32
369.274	1	42
369.445	1	50
369.616	1	50
369.787	1	50
369.958	1	56
370.129	1	48
370.300	1	57
370.471	1	46
370.641	1	42
370.812	1	52
370.983	1	44
371.154	1	44
371.325	1	53
371.496	1	46
371.667	1	53
371.837	1	46
372.008	1	43
372.179	1	44
372.350	1	56
372.521	1	48
372.692	1	42
372.863	1	49
373.033	1	42
373.204	1	36
373.375	1	40
373.546	1	54
373.717	1	55
373.888	1	49
374.059	1	53
374.229	1	58
374.400	1	40
374.571	1	56
374.742	1	53
374.913	1	61
375.084	1	48
375.254	1	58
375.425	1	52
375.596	1	54
375.767	1	44
375.938	1	59
376.109	1	57
376.279	1	40
376.450	1	56
376.621	1	50
376.792	1	46
376.963	1	59
377.134	1	54
377.304	1	58
377.475	1	49
377.646	1	56
377.817	1	42
377.988	1	49
378.159	1	51
378.329	1	61
378.500	1	53
378.671	1	57
378.842	1	51
379.013	1	33
379.184	1	47
379.354	1	61
379.525	1	49
379.696	1	64
379.867	1	61
380.038	1	53
380.209	1	59
380.379	1	54
380.550	1	45
380.721	1	61
380.892	1	59
381.063	1	52
381.233	1	59
381.404	1	57
381.575	1	64
381.746	1	65
381.917	1	60
382.087	1	59
382.258	1	54
382.429	1	55
382.600	1	63
382.771	1	53
382.941	1	49
383.112	1	59
383.283	1	62
383.454	1	58
383.625	1	52
383.795	1	59
383.966	1	58
384.137	1	53
384.308	1	65
384.479	1	58
384.649	1	70
384.820	1	68
384.991	1	54
385.162	1	60
385.333	1	60
385.503	1	50
385.674	1	49
385.845	1	64
386.016	1	55
386.187	1	71
386.357	1	72
386.528	1	78
386.699	1	55
386.870	1	62
387.041	1	71
387.211	1	54
387.382	1	66
387.553	1	65
387.724	1	60
387.894	1	60
388.065	1	69
388.236	1	70
388.407	1	65
388.578	1	66
388.748	1	62
388.919	1	68
389.090	1	60
389.261	1	59
389.431	1	69
389.602	1	64
389.773	1	70
389.944	1	66
390.114	1	59
390.285	1	66
390.456	1	61
390.627	1	63
390.798	1	65
390.968	1	68
391.139	1	66
391.310	1	55
391.481	1	64
391.651	1	73
391.822	1	60
391.993	1	64
392.164	1	61
392.334	1	64
392.505	1	58
392.676	1	76
392.847	1	66
393.017	1	80
393.188	1	66
393.359	1	63
393.530	1	67
393.700	1	72
393.871	1	66
394.042	1	62
394.213	1	65
394.383	1	68
394.554	1	74
394.725	1	78
394.896	1	66
395.066	1	72
395.237	1	62
395.408	1	65
395.579	1	65
395.749	1	85
395.920	1	63
396.091	1	81
396.262	1	66
396.432	1	72
396.603	1	75
396.774	1	88
396.945	1	70
397.115	1	67
397.286	1	57
397.457	1	71
397.627	1	74
397.798	1	81
397.969	1	77
398.140	1	69
398.310	1	79
398.481	1	69
398.652	1	66
398.823	1	64
398.993	1	73
399.164	1	72
399.335	1	84
399.505	1	68
399.676	1	72
399.847	1	73
400.018	1	80
400.188	1	73
400.359	1	65
400.530	1	61
400.700	1	72
400.871	1	69
401.042	1	68
401.213	1	73
401.383	1	78
401.554	1	83
401.725	1	76
401.895	1	69
402.066	1	68
402.237	1	83
402.408	1	71
402.578	1	67
402.749	1	69
402.920	1	77
403.090	1	76
403.261	1	66
403.432	1	67
403.603	1	78
403.773	1	80
403.944	1	81
404.115	1	76
404.285	1	81
404.456	1	60
404.627	1	64
404.797	1	57
404.968	1	83
405.139	1	70
405.310	1	80
405.480	1	76
405.651	1	72
405.822	1	80
405.992	1	64
406.163	1	78
406.334	1	61
406.504	1	70
406.675	1	83
406.846	1	70
407.016	1	78
407.187	1	84
407.358	1	72
407.528	1	73
407.699	1	64
407.870	1	80
408.041	1	70
408.211	1	85
408.382	1	73
408.553	1	68
408.723	1	72
408.894	1	75
409.065	1	86
409.235	1	83
409.406	1	67
409.577	1	72
409.747	1	88
409.918	1	78
410.089	1	66
410.259	1	88
410.430	1	69
410.601	1	77
410.771	1	68
410.942	1	89
411.113	1	80
411.283	1	78
411.454	1	82
411.625	1	75
411.795	1	80
411.966	1	78
412.137	1	66
412.307	1	69
412.478	1	67
412.649	1	82
412.819	1	75
412.990	1	71
413.161	1	74
413.331	1	68
413.502	1	83
413.672	1	65
413.843	1	66
414.014	1	63
414.184	1	71
414.355	1	82
414.526	1	81
414.696	1	89
414.867	1	71
415.038	1	70
415.208	1	79
415.379	1	86
415.550	1	72
415.720	1	67
415.891	1	69
416.062	1	81
416.232	1	75
416.403	1	81
416.573	1	73
416.744	1	76
416.915	1	71
417.085	1	84
417.256	1	77
417.427	1	74
417.597	1	79
417.768	1	71
417.939	1	69
418.109	1	78
418.280	1	78
418.450	1	69
418.621	1	62
418.792	1	64
418.962	1	74
419.133	1	79
419.304	1	74
419.474	1	75
419.645	1	80
419.815	1	60
419.986	1	86
420.157	1	77
420.327	1	76
420.498	1	76
420.669	1	71
420.839	1	86
421.010	1	81
421.180	1	69
421.351	1	78
421.522	1	71
421.692	1	64
421.863	1	75
422.033	1	75
422.204	1	78
422.375	1	65
422.545	1	87
422.716	1	63
422.886	1	70
423.057	1	83
423.228	1	73
423.398	1	75
423.569	1	84
423.740	1	59
423.910	1	58
424.081	1	71
424.251	1	62
424.422	1	76
424.593	1	68
424.763	1	72
424.934	1	65
425.104	1	61
425.275	1	64
425.445	1	74
425.616	1	61
425.787	1	62
425.957	1	65
426.128	1	72
426.298	1	63
426.469	1	67
426.640	1	71
426.810	1	71
426.981	1	56
427.151	1	65
427.322	1	67
427.493	1	65
427.663	1	58
427.834	1	58
428.004	1	68
428.175	1	68
428.345	1	74
428.516	1	65
428.687	1	65
428.857	1	60
429.028	1	63
429.198	1	70
429.369	1	75
429.540	1	66
429.710	1	59
429.881	1	73
430.051	1	60
430.222	1	77
430.392	1	65
430.563	1	74
430.734	1	71
430.904	1	62
431.075	1	67
431.245	1	64
431.416	1	66
431.586	1	67
431.757	1	62
431.927	1	77
432.098	1	74
432.269	1	59
432.439	1	63
432.610	1	63
432.780	1	73
432.951	1	64
433.121	1	67
433.292	1	77
433.462	1	72
433.633	1	76
433.804	1	66
433.974	1	61
434.145	1	77
434.315	1	65
434.486	1	65
434.656	1	61
434.827	1	70
434.997	1	62
435.168	1	69
435.339	1	65
435.509	1	61
435.680	1	64
435.850	1	63
436.021	1	68
436.191	1	66
436.362	1	70
436.532	1	68
436.703	1	63
436.873	1	76
437.044	1	52
437.214	1	68
437.385	1	63
437.556	1	60
437.726	1	72
437.897	1	75
438.067	1	63
438.238	1	62
438.408	1	54
438.579	1	57
438.749	1	61
438.920	1	55
439.090	1	61
439.261	1	49
439.431	1	55
439.602	1	54
439.772	1	58
439.943	1	74
440.113	1	70
440.284	1	57
440.455	1	60
440.625	1	51
440.796	1	71
440.966	1	50
441.137	1	61
441.307	1	50
441.478	1	63
441.648	1	66
441.819	1	48
441.989	1	57
442.160	1	67
442.330	1	69
442.501	1	66
442.671	1	52
442.842	1	42
443.012	1	52
443.183	1	59
443.353	1	41
443.524	1	63
443.694	1	68
443.865	1	49
444.035	1	55
444.206	1	50
444.376	1	56
444.547	1	55
444.717	1	50
444.888	1	59
445.058	1	54
445.229	1	65
445.399	1	48
445.570	1	62
445.740	1	48
445.911	1	59
446.081	1	43
446.252	1	64
446.422	1	53
446.593	1	53
446.763	1	57
446.934	1	62
447.104	1	54
447.275	1	66
447.445	1	62
447.616	1	57
447.786	1	57
447.957	1	57
448.127	1	57
448.298	1	67
448.468	1	48
448.639	1	49
448.809	1	52
448.979	1	49
449.150	1	52
449.320	1	52
449.491	1	57
449.661	1	50
449.832	1	50
450.002	1	67
450.173	1	57
450.343	1	49
450.514	1	53
450.684	1	51
450.855	1	52
451.025	1	49
451.196	1	61
451.366	1	58
451.537	1	44
451.707	1	35
451.878	1	49
452.048	1	65
452.218	1	50
452.389	1	57
452.559	1	47
452.730	1	62
452.900	1	57
453.071	1	36
453.241	1	47
453.412	1	43
453.582	1	47
453.753	1	53
453.923	1	45
454.093	1	52
454.264	1	63
454.434	1	39
454.605	1	51
454.775	1	40
454.946	1	55
455.116	1	62
455.287	1	34
455.457	1	39
455.628	1	44
455.798	1	54
455.968	1	44
456.139	1	42
456.309	1	37
456.480	1	45
456.650	1	45
456.821	1	46
456.991	1	52
457.161	1	47
457.332	1	49
457.502	1	44
457.673	1	52
457.843	1	45
458.014	1	47
458.184	1	52
458.355	1	50
458.525	1	46
458.695	1	51
458.866	1	44
459.036	1	50
459.207	1	51
459.377	1	39
459.548	1	54
459.718	1	40
459.888	1	42
460.059	1	56
460.229	1	54
460.400	1	58
460.570	1	41
460.740	1	50
460.911	1	47
461.081	1	49
461.252	1	42
461.422	1	45
461.593	1	48
461.763	1	49
461.933	1	51
462.104	1	38
462.274	1	45
462.445	1	42
462.615	1	44
462.785	1	39
462.956	1	44
463.126	1	48
463.297	1	41
463.467	1	45
463.638	1	42
463.808	1	44
463.978	1	25
464.149	1	52
464.319	1	42
464.490	1	59
464.660	1	35
464.830	1	29
465.001	1	46
465.171	1	46
465.342	1	46
465.512	1	40
465.682	1	41
465.853	1	49
466.023	1	51
466.194	1	44
466.364	1	53
466.534	1	48
466.705	1	40
466.875	1	37
467.045	1	42
467.216	1	46
467.386	1	33
467.557	1	33
467.727	1	33
467.897	1	36
468.068	1	39
468.238	1	31
468.409	1	28
468.579	1	48
468.749	1	44
468.920	1	20
469.090	1	51
469.260	1	48
469.431	1	28
469.601	1	43
469.772	1	25
469.942	1	39
470.112	1	27
470.283	1	27
470.453	1	39
470.623	1	26
470.794	1	19
470.964	1	35
471.135	1	41
471.305	1	26
471.475	1	45
471.646	1	30
471.816	1	42
471.986	1	32
472.157	1	45
472.327	1	32
472.497	1	37
472.668	1	27
472.838	1	32
473.009	1	44
473.179	1	38
473.349	1	30
473.520	1	35
473.690	1	33
473.860	1	39
474.031	1	30
474.201	1	35
474.371	1	43
474.542	1	24
474.712	1	37
474.882	1	42
475.053	1	40
475.223	1	27
475.394	1	44
475.564	1	32
475.734	1	49
475.905	1	40
476.075	1	35
476.245	1	40
476.416	1	38
476.586	1	47
476.756	1	34
476.927	1	41
477.097	1	36
477.267	1	30
477.438	1	35
477.608	1	29
477.778	1	34
477.949	1	44
478.119	1	38
478.289	1	42
478.460	1	47
478.630	1	41
478.800	1	36
478.971	1	38
479.141	1	30
479.311	1	23
479.482	1	40
479.652	1	27
479.822	1	32
479.993	1	34
480.163	1	37
480.333	1	34
480.504	1	42
480.674	1	32
480.844	1	23
481.015	1	37
481.185	1	34
481.355	1	41
481.525	1	26
481.696	1	31
481.866	1	30
482.036	1	25
482.207	1	23
482.377	1	22
482.547	1	39
482.718	1	23
482.888	1	33
483.058	1	36
483.229	1	21
483.399	1	30
483.569	1	29
483.740	1	28
483.910	1	34
484.080	1	32
484.250	1	29
484.421	1	29
484.591	1	36
484.761	1	34
484.932	1	32
485.102	1	36
485.272	1	30
485.443	1	21
485.613	1	29
485.783	1	21
485.953	1	25
486.124	1	29
486.294	1	37
486.464	1	24
486.635	1	26
486.805	1	43
486.975	1	22
487.146	1	33
487.316	1	38
487.486	1	20
487.656	1	27
487.827	1	25
487.997	1	16
488.167	1	27
488.338	1	24
488.508	1	25
488.678	1	20
488.848	1	35
489.019	1	10
489.189	1	25
489.359	1	24
489.529	1	24
489.700	1	15
489.870	1	26
490.040	1	20
490.211	1	26
490.381	1	21
490.551	1	19
490.721	1	40
490.892	1	22
491.062	1	29
491.232	1	28
491.402	1	16
491.573	1	6
491.743	1	19
491.913	1	23
492.084	1	25
492.254	1	25
492.424	1	20
492.594	1	27
492.765	1	23
492.935	1	16
493.105	1	20
493.275	1	19
493.446	1	29
493.616	1	28
493.786	1	18
493.956	1	22
494.127	1	22
494.297	1	23
494.467	1	22
494.637	1	25
494.808	1	13
494.978	1	15
495.148	1	17
495.318	1	25
495.489	1	18
495.659	1	28
495.829	1	25
495.999	1	18
496.170	1	27
496.340	1	21
496.510	1	28
496.680	1	12
496.851	1	24
497.021	1	11
497.191	1	14
497.361	1	15
497.532	1	10
497.702	1	26
497.872	1	23
498.042	1	21
498.213	1	16
498.383	1	17
498.553	1	19
498.723	1	18
498.894	1	14
499.064	1	15
499.234	1	17
499.404	1	24
499.574	1	33
499.745	1	28
499.915	1	19
500.085	1	20
500.255	1	24
500.426	1	17
500.596	1	33
500.766	1	21
500.936	1	17
501.106	1	15
501.277	1	28
501.447	1	25
501.617	1	18
501.787	1	8
501.958	1	6
502.128	1	20
502.298	1	24
502.468	1	14
502.638	1	27
502.809	1	15
502.979	1	14
503.149	1	17
503.319	1	10
503.489	1	16
503.660	1	27
503.830	1	18
504.000	1	23
504.170	1	13
504.340	1	20
504.511	1	22
504.681	1	15
504.851	1	20
505.021	1	18
505.192	1	5
505.362	1	24
505.532	1	16
505.702	1	14
505.872	1	18
506.043	1	21
506.213	1	10
506.383	1	23
506.553	1	23
506.723	1	17
506.893	1	16
507.064	1	29
507.234	1	9
507.404	1	12
507.574	1	15
507.744	1	13
507.915	1	23
508.085	1	28
508.255	1	17
508.425	1	15
508.595	1	13
508.766	1	29
508.936	1	3
509.106	1	16
509.276	1	13
509.446	1	10
509.616	1	10
509.787	1	24
509.957	1	8
510.127	1	12
510.297	1	19
510.467	1	7
510.638	1	13
510.808	1	10
510.978	1	15
511.148	1	12
511.318	1	23
511.488	1	1
511.659	1	16
511.829	1	6
511.999	1	14
512.169	1	16
512.339	1	13
512.509	1	12
512.680	1	13
512.850	1	20
513.020	1	21
513.190	1	21
513.360	1	10
513.530	1	12
513.700	1	19
513.871	1	12
514.041	1	11
514.211	1	19
514.381	1	22
514.551	1	21
514.721	1	7
514.892	1	27
515.062	1	11
515.232	1	16
515.402	1	11
515.572	1	7
515.742	1	18
515.912	1	21
516.083	1	17
516.253	1	17
516.423	1	6
516.593	1	18
516.763	1	27
516.933	1	8
517.104	1	18
517.274	1	15
517.444	1	11
517.614	1	12
517.784	1	10
517.954	1	9
518.124	1	10
518.294	1	10
518.465	1	12
518.635	1	12
518.805	1	2
518.975	1	6
519.145	1	7
519.315	1	6
519.485	1	13
519.656	1	14
519.826	1	14
519.996	1	6
520.166	1	19
520.336	1	21
520.506	1	11
520.676	1	1
520.846	1	21
521.017	1	14
521.187	1	14
521.357	1	19
521.527	1	11
521.697	1	7
521.867	1	5
522.037	1	18
522.207	1	23
522.377	1	13
522.548	1	9
522.718	1	9
522.888	1	21
523.058	1	11
523.228	1	18
523.398	1	14
523.568	1	17
523.738	1	7
523.909	1	12
524.079	1	5
524.249	1	7
524.419	1	9
524.589	1	13
524.759	1	9
524.929	1	8
525.099	1	15
525.269	1	15
525.439	1	1
525.610	1	26
525.780	1	14
525.950	1	8
526.120	1	8
526.290	1	7
526.460	1	12
526.630	1	17
526.800	1	13
526.970	1	11
527.140	1	20
527.311	1	1
527.481	1	-3
527.651	1	21
527.821	1	9
527.991	1	23
528.161	1	20
528.331	1	2
528.501	1	19
528.671	1	11
528.841	1	7
529.011	1	6
529.181	1	14
529.352	1	15
529.522	1	6
529.692	1	11
529.862	1	8
530.032	1	11
530.202	1	12
530.372	1	9
530.542	1	5
530.712	1	6
530.882	1	12
531.052	1	22
531.222	1	10
531.392	1	8
531.563	1	14
531.733	1	15
531.903	1	15
532.073	1	15
532.243	1	11
532.413	1	13
532.583	1	7
532.753	1	9
532.923	1	3
533.093	1	8
533.263	1	2
533.433	1	9
533.603	1	13
533.773	1	16
533.943	1	4
534.113	1	11
534.284	1	4
534.454	1	13
534.624	1	12
534.794	1	3
534.964	1	15
535.134	1	15
535.304	1	11
535.474	1	16
535.644	1	3
535.814	1	-3
535.984	1	0
536.154	1	-2
536.324	1	11
536.494	1	20
536.664	1	7
536.834	1	16
537.004	1	10
537.174	1	20
537.344	1	10
537.514	1	2
537.685	1	6
537.855	1	15
538.025	1	17
538.195	1	16
538.365	1	15
538.535	1	11
538.705	1	13
538.875	1	5
539.045	1	3
539.215	1	18
539.385	1	5
539.555	1	15
539.725	1	6
539.895	1	4
540.065	1	21
540.235	1	16
540.405	1	3
540.575	1	-4
540.745	1	8
540.915	1	11
541.085	1	6
541.255	1	-1
541.425	1	12
541.595	1	5
541.765	1	20
541.935	1	5
542.105	1	8
542.275	1	5
542.445	1	5
542.615	1	14
542.785	1	18
542.955	1	0
543.125	1	2
543.295	1	12
543.465	1	9
543.635	1	4
543.805	1	12
543.975	1	3
544.145	1	12
544.315	1	1
544.485	1	5
544.655	1	16
544.825	1	0
544.995	1	9
545.165	1	-5
545.335	1	5
545.505	1	3
545.675	1	10
545.845	1	11
546.015	1	11
546.185	1	20
546.355	1	12
546.525	1	8
546.695	1	12
546.865	1	-2
547.035	1	9
547.205	1	-4
547.375	1	10
547.545	1	22
547.715	1	1
547.885	1	4
548.055	1	10
548.225	1	16
548.395	1	2
548.565	1	7
548.735	1	11
548.905	1	8
549.075	1	8
549.245	1	11
549.415	1	-6
549.585	1	13
549.755	1	6
549.925	1	-1
550.095	1	9
550.265	1	-1
550.435	1	0
550.605	1	2
550.775	1	11
550.945	1	13
551.115	1	11
551.285	1	7
551.455	1	-4
551.625	1	17
551.795	1	14
551.965	1	27
552.135	1	3
552.305	1	8
552.475	1	1
552.645	1	2
552.815	1	12
552.985	1	5
553.155	1	5
553.325	1	12
553.495	1	4
553.665	1	10
553.835	1	12
554.004	1	15
554.174	1	0
554.344	1	11
554.514	1	9
554.684	1	6
554.854	1	12
555.024	1	0
555.194	1	6
555.364	1	7
555.534	1	9
555.704	1	-1
555.874	1	6
556.044	1	11
556.214	1	0
556.384	1	3
556.554	1	18
556.724	1	12
556.894	1	8
557.064	1	3
557.234	1	3
557.404	1	12
557.573	1	3
557.743	1	6
557.913	1	-2
558.083	1	5
558.253	1	11
558.423	1	11
558.593	1	10
558.763	1	9
558.933	1	0
559.103	1	7
559.273	1	10
559.443	1	3
559.613	1	4
559.783	1	0
559.953	1	13
560.122	1	13
560.292	1	9
560.462	1	14
560.632	1	5
560.802	1	9
560.972	1	9
561.142	1	9
561.312	1	5
561.482	1	2
561.652	1	20
561.822	1	-1
561.992	1	9
562.162	1	2
562.331	1	11
562.501	1	-2
562.671	1	4
562.841	1	-3
563.011	1	10
563.181	1	14
563.351	1	4
563.521	1	9
563.691	1	2
563.861	1	8
564.031	1	10
564.201	1	19
564.370	1	-2
564.540	1	4
564.710	1	-1
564.880	1	11
565.050	1	13
565.220	1	6
565.390	1	8
565.560	1	7
565.730	1	5
565.900	1	9
566.069	1	12
566.239	1	15
566.409	1	7
566.579	1	16
566.749	1	4
566.919	1	11
567.089	1	7
567.259	1	20
567.429	1	-1
567.599	1	2
567.768	1	0
567.938	1	6
568.108	1	5
568.278	1	7
568.448	1	1
568.618	1	-1
568.788	1	-1
568.958	1	4
569.128	1	14
569.297	1	4
569.467	1	-3
569.637	1	10
569.807	1	1
569.977	1	9
570.147	1	7
570.317	1	-3
570.487	1	2
570.656	1	12
570.826	1	-1
570.996	1	2
571.166	1	19
571.336	1	-2
571.506	1	9
571.676	1	11
571.846	1	10
572.015	1	2
572.185	1	8
572.355	1	4
572.525	1	18
572.695	1	0
572.865	1	-2
573.035	1	5
573.205	1	9
573.374	1	-1
573.544	1	-4
573.714	1	12
573.884	1	19
574.054	1	3
574.224	1	6
574.394	1	-1
574.563	1	4
574.733	1	5
574.903	1	2
575.073	1	4
575.243	1	7
575.413	1	3
575.583	1	2
575.752	1	10
575.922	1	6
576.092	1	5
576.262	1	-1
576.432	1	12
576.602	1	0
576.772	1	15
576.941	1	5
577.111	1	8
577.281	1	-6
577.451	1	-3
577.621	1	7
577.791	1	11
577.960	1	-2
578.130	1	-2
578.300	1	5
578.470	1	15
578.640	1	-2
578.810	1	4
578.979	1	7
579.149	1	8
579.319	1	-2
579.489	1	8
579.659	1	6
579.829	1	7
579.998	1	9
580.168	1	15
580.338	1	3
580.508	1	8
580.678	1	4
580.848	1	7
581.017	1	2
581.187	1	3
581.357	1	2
581.527	1	6
581.697	1	6
581.867	1	8
582.036	1	7
582.206	1	2
582.376	1	1
582.546	1	-2
582.716	1	-5
582.885	1	-10
583.055	1	4
583.225	1	-9
583.395	1	8
583.565	1	-4
583.735	1	12
583.904	1	15
584.074	1	1
584.244	1	11
584.414	1	0
584.584	1	9
584.753	1	-2
584.923	1	4
585.093	1	1
585.263	1	5
585.433	1	3
585.602	1	-1
585.772	1	-1
585.942	1	3
586.112	1	5
586.282	1	5
586.451	1	-6
586.621	1	1
586.791	1	2
586.961	1	10
587.131	1	7
587.300	1	13
587.470	1	9
587.640	1	6
587.810	1	3
587.980	1	6
588.149	1	7
588.319	1	-2
588.489	1	3
588.659	1	2
588.829	1	13
588.998	1	14
589.168	1	8
589.338	1	-1
589.508	1	20
589.677	1	-1
589.847	1	7
590.017	1	18
590.187	1	5
590.357	1	6
590.526	1	18
590.696	1	11
590.866	1	13
591.036	1	8
591.205	1	16
591.375	1	2
591.545	1	3
591.715	1	13
591.885	1	6
592.054	1	-1
592.224	1	13
592.394	1	0
592.564	1	-1
592.733	1	6
592.903	1	10
593.073	1	9
593.243	1	9
593.412	1	10
593.582	1	1
593.752	1	-1
593.922	1	1
594.091	1	8
594.261	1	5
594.431	1	4
594.601	1	1
594.771	1	10
594.940	1	10
595.110	1	-2
595.280	1	14
595.450	1	-2
595.619	1	5
595.789	1	4
595.959	1	15
596.129	1	6
596.298	1	4
596.468	1	7
596.638	1	10
596.808	1	1
596.977	1	10
597.147	1	6
597.317	1	8
597.487	1	10
597.656	1	11
597.826	1	-2
597.996	1	1
598.166	1	3
598.335	1	-13
598.505	1	4
598.675	1	-4
598.844	1	14
599.014	1	3
599.184	1	1
599.354	1	-3
599.523	1	8
599.693	1	2
599.863	1	11
600.033	1	5
600.202	1	1
600.372	1	9
600.542	1	3
600.712	1	7
600.881	1	-5
601.051	1	10
601.221	1	4
601.390	1	-5
601.560	1	10
601.730	1	14
601.900	1	2
602.069	1	8
602.239	1	0
602.409	1	-2
602.578	1	11
602.748	1	8
602.918	1	2
603.088	1	3
603.257	1	17
603.427	1	-4
603.597	1	0
603.767	1	6
603.936	1	8
604.106	1	6
604.276	1	6
604.445	1	7
604.615	1	2
604.785	1	10
604.954	1	12
605.124	1	8
605.294	1	-3
605.464	1	10
605.633	1	5
605.803	1	10
605.973	1	8
606.142	1	10
606.312	1	3
606.482	1	12
606.652	1	12
606.821	1	0
606.991	1	5
607.161	1	5
607.330	1	5
607.500	1	8
607.670	1	1
607.839	1	12
608.009	1	14
608.179	1	9
608.348	1	3
608.518	1	6
608.688	1	14
608.858	1	-4
609.027	1	-6
609.197	1	8
609.367	1	17
609.536	1	9
609.706	1	-3
609.876	1	4
610.045	1	5
610.215	1	12
610.385	1	8
610.554	1	22
610.724	1	16
610.894	1	3
611.063	1	3
611.233	1	6
611.403	1	9
611.572	1	6
611.742	1	10
611.912	1	9
612.081	1	-4
612.251	1	8
612.421	1	9
612.590	1	10
612.760	1	-3
612.930	1	4
613.099	1	7
613.269	1	18
613.439	1	1
613.608	1	-1
613.778	1	7
613.948	1	8
614.117	1	18
614.287	1	12
614.457	1	4
614.626	1	2
614.796	1	12
614.966	1	10
615.135	1	3
615.305	1	8
615.475	1	1
615.644	1	5
615.814	1	3
615.984	1	10
616.153	1	3
616.323	1	8
616.493	1	0
616.662	1	15
616.832	1	12
617.002	1	3
617.171	1	4
617.341	1	9
617.511	1	2
617.680	1	0
617.850	1	6
618.019	1	12
618.189	1	18
618.359	1	12
618.528	1	9
618.698	1	16
618.868	1	-2
619.037	1	12
619.207	1	7
619.377	1	4
619.546	1	-2
619.716	1	7
619.885	1	4
620.055	1	-2
620.225	1	14
620.394	1	1
620.564	1	15
620.734	1	9
620.903	1	3
621.073	1	11
621.242	1	11
621.412	1	2
621.582	1	7
621.751	1	16
621.921	1	14
622.091	1	2
622.260	1	6
622.430	1	13
622.599	1	9
622.769	1	6
622.939	1	5
623.108	1	10
623.278	1	7
623.448	1	1
623.617	1	12
623.787	1	14
623.956	1	20
624.126	1	2
624.296	1	6
624.465	1	12
624.635	1	14
624.804	1	9
624.974	1	-3
625.144	1	8
625.313	1	7
625.483	1	-5
625.652	1	8
625.822	1	11
625.992	1	3
626.161	1	10
626.331	1	7
626.501	1	11
626.670	1	5
626.840	1	4
627.009	1	-2
627.179	1	8
627.348	1	21
627.518	1	11
627.688	1	14
627.857	1	10
628.027	1	-1
628.196	1	8
628.366	1	16
628.536	1	6
628.705	1	4
628.875	1	-1
629.044	1	8
629.214	1	14
629.384	1	20
629.553	1	12
629.723	1	13
629.892	1	6
630.062	1	11
630.232	1	6
630.401	1	12
630.571	1	1
630.740	1	12
630.910	1	15
631.079	1	8
631.249	1	5
631.419	1	9
631.588	1	6
631.758	1	20
631.927	1	3
632.097	1	5
632.266	1	2
632.436	1	10
632.606	1	0
632.775	1	17
632.945	1	13
633.114	1	16
633.284	1	4
633.453	1	-1
633.623	1	-1
633.793	1	14
633.962	1	7
634.132	1	7
634.301	1	-2
634.471	1	10
634.640	1	9
634.810	1	12
634.979	1	11
635.149	1	7
635.319	1	12
635.488	1	8
635.658	1	3
635.827	1	-2
635.997	1	4
636.166	1	16
636.336	1	8
636.505	1	7
636.675	1	5
636.845	1	11
637.014	1	10
637.184	1	11
637.353	1	1
637.523	1	15
637.692	1	6
637.862	1	12
638.031	1	8
638.201	1	13
638.370	1	16
638.540	1	1
638.710	1	3
638.879	1	2
639.049	1	14
639.218	1	7
639.388	1	7
639.557	1	8
639.727	1	10
639.896	1	3
640.066	1	9
640.235	1	10
640.405	1	12
640.574	1	1
640.744	1	10
640.914	1	13
641.083	1	5
641.253	1	3
641.422	1	2
641.592	1	15
641.761	1	6
641.931	1	8
642.100	1	31
642.270	1	9
642.439	1	8
642.609	1	19
642.778	1	6
642.948	1	3
643.117	1	12
643.287	1	14
643.456	1	13
643.626	1	14
643.795	1	-1
643.965	1	22
644.134	1	-1
644.304	1	9
644.473	1	9
644.643	1	12
644.812	1	4
644.982	1	16
645.151	1	7
645.321	1	9
645.490	1	12
645.660	1	5
645.829	1	10
645.999	1	5
646.168	1	18
646.338	1	10
646.507	1	16
646.677	1	6
646.846	1	12
647.016	1	-3
647.185	1	13
647.355	1	-5
647.524	1	22
647.694	1	23
647.863	1	10
648.033	1	12
648.202	1	6
648.372	1	7
648.541	1	8
648.711	1	7
648.880	1	9
649.050	1	10
649.219	1	8
649.389	1	20
649.558	1	13
649.728	1	19
649.897	1	1
650.067	1	14
650.236	1	14
650.406	1	14
650.575	1	18
650.745	1	15
650.914	1	2
651.084	1	4
651.253	1	13
651.423	1	9
651.592	1	12
651.762	1	1
651.931	1	14
652.101	1	14
652.270	1	22
652.440	1	23
652.609	1	8
652.778	1	4
652.948	1	15
653.117	1	13
653.287	1	10
653.456	1	17
653.626	1	13
653.795	1	12
653.965	1	8
654.134	1	19
654.304	1	-9
654.473	1	14
654.643	1	14
654.812	1	9
654.982	1	10
655.151	1	9
655.320	1	12
655.490	1	4
655.659	1	13
655.829	1	6
655.998	1	9
656.168	1	6
656.337	1	14
656.507	1	9
656.676	1	16
656.846	1	17
657.015	1	17
657.184	1	13
657.354	1	11
657.523	1	13
657.693	1	18
657.862	1	9
658.032	1	7
658.201	1	20
658.371	1	28
658.540	1	13
658.709	1	6
658.879	1	18
659.048	1	5
659.218	1	10
659.387	1	18
659.557	1	13
659.726	1	13
659.895	1	11
660.065	1	-4
660.234	1	7
660.404	1	20
660.573	1	20
660.743	1	20
660.912	1	11
661.081	1	12
661.251	1	13
661.420	1	20
661.590	1	10
661.759	1	13
661.929	1	24
662.098	1	18
662.267	1	14
662.437	1	20
662.606	1	7
662.776	1	9
662.945	1	11
663.115	1	7
663.284	1	5
663.453	1	18
663.623	1	17
663.792	1	21
663.962	1	11
664.131	1	9
664.300	1	17
664.470	1	12
664.639	1	16
664.809	1	18
664.978	1	24
665.148	1	16
665.317	1	13
665.486	1	15
665.656	1	11
665.825	1	22
665.995	1	3
666.164	1	-6
666.333	1	11
666.503	1	14
666.672	1	4
666.842	1	2
667.011	1	10
667.180	1	19
667.350	1	10
667.519	1	12
667.689	1	10
667.858	1	17
668.027	1	17
668.197	1	12
668.366	1	12
668.536	1	15
668.705	1	13
668.874	1	19
669.044	1	9
669.213	1	10
669.382	1	13
669.552	1	28
669.721	1	20
669.891	1	16
670.060	1	10
670.229	1	27
670.399	1	6
670.568	1	23
670.738	1	22
670.907	1	6
671.076	1	9
671.246	1	8
671.415	1	11
671.584	1	20
671.754	1	12
671.923	1	6
672.093	1	12
672.262	1	6
672.431	1	14
672.601	1	12
672.770	1	7
672.939	1	17
673.109	1	6
673.278	1	15
673.448	1	25
673.617	1	11
673.786	1	13
