325.333	1	23
325.504	1	15
325.675	1	16
325.846	1	22
326.017	1	15
326.188	1	22
326.359	1	25
326.531	1	12
326.702	1	19
326.873	1	30
327.044	1	20
327.215	1	18
327.386	1	28
327.557	1	22
327.728	1	18
327.899	1	29
328.070	1	32
328.241	1	26
328.412	1	17
328.583	1	20
328.754	1	18
328.926	1	30
329.097	1	12
329.268	1	29
329.439	1	13
329.610	1	32
329.781	1	10
329.952	1	25
330.123	1	24
330.294	1	19
330.465	1	22
330.636	1	17
330.807	1	24
330.978	1	23
331.149	1	16
331.320	1	32
331.492	1	16
331.663	1	26
331.834	1	27
332.005	1	20
332.176	1	48
332.347	1	28
332.518	1	21
332.689	1	31
332.860	1	18
333.031	1	33
333.202	1	13
333.373	1	27
333.544	1	27
333.715	1	21
333.886	1	9
334.057	1	38
334.228	1	19
334.399	1	31
334.570	1	47
334.741	1	27
334.912	1	41
335.084	1	42
335.255	1	27
335.426	1	20
335.597	1	25
335.768	1	24
335.939	1	25
336.110	1	39
336.281	1	31
336.452	1	31
336.623	1	34
336.794	1	37
336.965	1	35
337.136	1	38
337.307	1	36
337.478	1	29
337.649	1	39
337.820	1	30
337.991	1	37
338.162	1	36
338.333	1	34
338.504	1	36
338.675	1	38
338.846	1	33
339.017	1	29
339.188	1	35
339.359	1	32
339.530	1	42
339.701	1	35
339.872	1	48
340.043	1	32
340.214	1	38
340.385	1	42
340.556	1	32
340.727	1	42
340.898	1	49
341.069	1	37
341.240	1	37
341.411	1	48
341.582	1	41
341.753	1	31
341.924	1	46
342.095	1	46
342.266	1	48
342.437	1	46
342.608	1	44
342.779	1	42
342.950	1	46
343.121	1	40
343.292	1	30
343.463	1	50
343.634	1	46
343.805	1	53
343.976	1	49
344.147	1	43
344.318	1	51
344.489	1	50
344.660	1	50
344.831	1	51
345.002	1	37
345.173	1	55
345.344	1	51
345.515	1	58
345.686	1	43
345.857	1	55
346.028	1	53
346.199	1	48
346.370	1	52
346.541	1	58
346.712	1	37
346.883	1	51
347.054	1	54
347.225	1	59
347.396	1	56
347.567	1	47
347.738	1	46
347.909	1	59
348.080	1	48
348.251	1	61
348.422	1	51
348.593	1	53
348.764	1	63
348.935	1	59
349.106	1	38
349.277	1	55
349.448	1	54
349.619	1	53
349.790	1	59
349.961	1	62
350.132	1	64
350.303	1	56
350.474	1	63
350.645	1	70
350.816	1	51
350.987	1	62
351.157	1	45
351.328	1	61
351.499	1	57
351.670	1	54
351.841	1	71
352.012	1	68
352.183	1	80
352.354	1	68
352.525	1	64
352.696	1	70
352.867	1	74
353.038	1	74
353.209	1	63
353.380	1	62
353.551	1	60
353.722	1	66
353.893	1	59
354.064	1	75
354.235	1	73
354.406	1	61
354.576	1	67
354.747	1	63
354.918	1	62
355.089	1	67
355.260	1	61
355.431	1	72
355.602	1	60
355.773	1	57
355.944	1	68
356.115	1	67
356.286	1	80
356.457	1	60
356.628	1	66
356.799	1	61
356.970	1	81
357.141	1	69
357.311	1	63
357.482	1	66
357.653	1	72
357.824	1	89
357.995	1	74
358.166	1	61
358.337	1	68
358.508	1	68
358.679	1	70
358.850	1	78
359.021	1	76
359.192	1	72
359.363	1	77
359.533	1	71
359.704	1	73
359.875	1	71
360.046	1	71
360.217	1	68
360.388	1	78
360.559	1	69
360.730	1	70
360.901	1	80
361.072	1	85
361.243	1	70
361.414	1	69
361.584	1	66
361.755	1	71
361.926	1	69
362.097	1	67
362.268	1	73
362.439	1	69
362.610	1	81
362.781	1	75
362.952	1	68
363.123	1	80
363.293	1	69
363.464	1	73
363.635	1	85
363.806	1	78
363.977	1	72
364.148	1	70
364.319	1	81
364.490	1	89
364.661	1	67
364.832	1	81
365.002	1	84
365.173	1	75
365.344	1	85
365.515	1	72
365.686	1	75
365.857	1	78
366.028	1	81
366.199	1	74
366.370	1	89
366.540	1	74
366.711	1	63
366.882	1	76
367.053	1	75
367.224	1	91
367.395	1	87
367.566	1	92
367.737	1	88
367.908	1	89
368.078	1	85
368.249	1	87
368.420	1	78
368.591	1	93
368.762	1	84
368.933	1	82
369.104	1	73
369.274	1	86
369.445	1	75
369.616	1	84
369.787	1	87
369.958	1	95
370.129	1	76
370.300	1	91
370.471	1	76
370.641	1	86
370.812	1	83
370.983	1	72
371.154	1	77
371.325	1	85
371.496	1	91
371.667	1	88
371.837	1	76
372.008	1	90
372.179	1	77
372.350	1	94
372.521	1	80
372.692	1	83
372.863	1	93
373.033	1	81
373.204	1	82
373.375	1	92
373.546	1	88
373.717	1	91
373.888	1	97
374.059	1	92
374.229	1	89
374.400	1	95
374.571	1	86
374.742	1	89
374.913	1	95
375.084	1	84
375.254	1	89
375.425	1	96
375.596	1	86
375.767	1	92
375.938	1	91
376.109	1	90
376.279	1	92
376.450	1	89
376.621	1	100
376.792	1	88
376.963	1	86
377.134	1	95
377.304	1	85
377.475	1	87
377.646	1	84
377.817	1	97
377.988	1	93
378.159	1	95
378.329	1	106
378.500	1	87
378.671	1	89
378.842	1	86
379.013	1	91
379.184	1	86
379.354	1	93
379.525	1	101
379.696	1	100
379.867	1	102
380.038	1	102
380.209	1	99
380.379	1	90
380.550	1	80
380.721	1	108
380.892	1	96
381.063	1	97
381.233	1	100
381.404	1	104
381.575	1	107
381.746	1	113
381.917	1	92
382.087	1	110
382.258	1	99
382.429	1	94
382.600	1	101
382.771	1	102
382.941	1	99
383.112	1	105
383.283	1	100
383.454	1	104
383.625	1	94
383.795	1	90
383.966	1	98
384.137	1	101
384.308	1	104
384.479	1	111
384.649	1	108
384.820	1	117
384.991	1	97
385.162	1	105
385.333	1	99
385.503	1	101
385.674	1	107
385.845	1	121
386.016	1	104
386.187	1	105
386.357	1	117
386.528	1	121
386.699	1	119
386.870	1	117
387.041	1	115
387.211	1	105
387.382	1	114
387.553	1	125
387.724	1	103
387.894	1	120
388.065	1	107
388.236	1	117
388.407	1	115
388.578	1	116
388.748	1	104
388.919	1	126
389.090	1	108
389.261	1	98
389.431	1	121
389.602	1	104
389.773	1	124
389.944	1	113
390.114	1	106
390.285	1	118
390.456	1	116
390.627	1	109
390.798	1	112
390.968	1	128
391.139	1	114
391.310	1	109
391.481	1	122
391.651	1	121
391.822	1	100
391.993	1	105
392.164	1	109
392.334	1	121
392.505	1	111
392.676	1	115
392.847	1	120
393.017	1	123
393.188	1	117
393.359	1	109
393.530	1	116
393.700	1	122
393.871	1	121
394.042	1	103
394.213	1	108
394.383	1	105
394.554	1	114
394.725	1	115
394.896	1	113
395.066	1	122
395.237	1	127
395.408	1	115
395.579	1	121
395.749	1	121
395.920	1	105
396.091	1	123
396.262	1	125
396.432	1	119
396.603	1	122
396.774	1	124
396.945	1	118
397.115	1	123
397.286	1	126
397.457	1	111
397.627	1	124
397.798	1	125
397.969	1	118
398.140	1	115
398.310	1	119
398.481	1	131
398.652	1	128
398.823	1	109
398.993	1	114
399.164	1	121
399.335	1	133
399.505	1	119
399.676	1	128
399.847	1	128
400.018	1	113
400.188	1	121
400.359	1	122
400.530	1	117
400.700	1	128
400.871	1	125
401.042	1	127
401.213	1	124
401.383	1	121
401.554	1	128
401.725	1	139
401.895	1	115
402.066	1	131
402.237	1	129
402.408	1	135
402.578	1	117
402.749	1	120
402.920	1	124
403.090	1	119
403.261	1	122
403.432	1	127
403.603	1	125
403.773	1	129
403.944	1	138
404.115	1	129
404.285	1	137
404.456	1	116
404.627	1	122
404.797	1	124
404.968	1	128
405.139	1	122
405.310	1	145
405.480	1	128
405.651	1	128
405.822	1	131
405.992	1	130
406.163	1	134
406.334	1	120
406.504	1	130
406.675	1	140
406.846	1	127
407.016	1	136
407.187	1	132
407.358	1	124
407.528	1	122
407.699	1	131
407.870	1	128
408.041	1	131
408.211	1	146
408.382	1	128
408.553	1	129
408.723	1	137
408.894	1	130
409.065	1	145
409.235	1	135
409.406	1	132
409.577	1	129
409.747	1	147
409.918	1	130
410.089	1	135
410.259	1	132
410.430	1	125
410.601	1	135
410.771	1	143
410.942	1	139
411.113	1	136
411.283	1	123
411.454	1	139
411.625	1	128
411.795	1	133
411.966	1	129
412.137	1	130
412.307	1	124
412.478	1	128
412.649	1	138
412.819	1	124
412.990	1	127
413.161	1	134
413.331	1	132
413.502	1	132
413.672	1	124
413.843	1	125
414.014	1	128
414.184	1	125
414.355	1	117
414.526	1	138
414.696	1	130
414.867	1	121
415.038	1	115
415.208	1	131
415.379	1	137
415.550	1	126
415.720	1	126
415.891	1	122
416.062	1	124
416.232	1	112
416.403	1	130
416.573	1	129
416.744	1	117
416.915	1	139
417.085	1	134
417.256	1	125
417.427	1	141
417.597	1	132
417.768	1	117
417.939	1	126
418.109	1	124
418.280	1	135
418.450	1	127
418.621	1	131
418.792	1	124
418.962	1	120
419.133	1	138
419.304	1	116
419.474	1	106
419.645	1	123
419.815	1	124
419.986	1	127
420.157	1	121
420.327	1	131
420.498	1	130
420.669	1	117
420.839	1	139
421.010	1	135
421.180	1	130
421.351	1	118
421.522	1	134
421.692	1	127
421.863	1	123
422.033	1	124
422.204	1	121
422.375	1	128
422.545	1	125
422.716	1	123
422.886	1	131
423.057	1	127
423.228	1	111
423.398	1	117
423.569	1	121
423.740	1	109
423.910	1	113
424.081	1	115
424.251	1	104
424.422	1	127
424.593	1	108
424.763	1	128
424.934	1	117
425.104	1	119
425.275	1	105
425.445	1	121
425.616	1	121
425.787	1	117
425.957	1	122
426.128	1	122
426.298	1	125
426.469	1	118
426.640	1	117
426.810	1	108
426.981	1	120
427.151	1	118
427.322	1	127
427.493	1	111
427.663	1	106
427.834	1	105
428.004	1	123
428.175	1	120
428.345	1	117
428.516	1	118
428.687	1	110
428.857	1	104
429.028	1	108
429.198	1	123
429.369	1	118
429.540	1	116
429.710	1	113
429.881	1	118
430.051	1	119
430.222	1	121
430.392	1	101
430.563	1	130
430.734	1	123
430.904	1	111
431.075	1	120
431.245	1	111
431.416	1	112
431.586	1	100
431.757	1	108
431.927	1	115
432.098	1	113
432.269	1	106
432.439	1	116
432.610	1	116
432.780	1	112
432.951	1	107
433.121	1	113
433.292	1	115
433.462	1	116
433.633	1	119
433.804	1	115
433.974	1	117
434.145	1	114
434.315	1	109
434.486	1	107
434.656	1	126
434.827	1	112
434.997	1	102
435.168	1	116
435.339	1	113
435.509	1	104
435.680	1	106
435.850	1	109
436.021	1	106
436.191	1	113
436.362	1	103
436.532	1	103
436.703	1	107
436.873	1	120
437.044	1	113
437.214	1	110
437.385	1	112
437.556	1	108
437.726	1	121
437.897	1	108
438.067	1	101
438.238	1	100
438.408	1	110
438.579	1	111
438.749	1	98
438.920	1	105
439.090	1	114
439.261	1	99
439.431	1	93
439.602	1	101
439.772	1	90
439.943	1	105
440.113	1	105
440.284	1	105
440.455	1	106
440.625	1	105
440.796	1	93
440.966	1	92
441.137	1	103
441.307	1	103
441.478	1	104
441.648	1	99
441.819	1	102
441.989	1	117
442.160	1	107
442.330	1	103
442.501	1	95
442.671	1	90
442.842	1	85
443.012	1	87
443.183	1	94
443.353	1	94
443.524	1	104
443.694	1	103
443.865	1	97
444.035	1	96
444.206	1	98
444.376	1	88
444.547	1	101
444.717	1	102
444.888	1	104
445.058	1	98
445.229	1	97
445.399	1	88
445.570	1	96
445.740	1	93
445.911	1	97
446.081	1	82
446.252	1	100
446.422	1	92
446.593	1	85
446.763	1	87
446.934	1	91
447.104	1	83
447.275	1	96
447.445	1	90
447.616	1	93
447.786	1	96
447.957	1	91
448.127	1	89
448.298	1	107
448.468	1	82
448.639	1	93
448.809	1	100
448.979	1	85
449.150	1	108
449.320	1	88
449.491	1	89
449.661	1	86
449.832	1	86
450.002	1	96
450.173	1	79
450.343	1	88
450.514	1	88
450.684	1	91
450.855	1	82
451.025	1	87
451.196	1	88
451.366	1	81
451.537	1	75
451.707	1	67
451.878	1	91
452.048	1	90
452.218	1	95
452.389	1	86
452.559	1	91
452.730	1	90
452.900	1	86
453.071	1	76
453.241	1	85
453.412	1	79
453.582	1	81
453.753	1	87
453.923	1	86
454.093	1	86
454.264	1	88
454.434	1	81
454.605	1	81
454.775	1	86
454.946	1	80
455.116	1	84
455.287	1	73
455.457	1	66
455.628	1	84
455.798	1	88
455.968	1	87
456.139	1	73
456.309	1	83
456.480	1	72
456.650	1	68
456.821	1	64
456.991	1	79
457.161	1	85
457.332	1	78
457.502	1	70
457.673	1	75
457.843	1	85
458.014	1	80
458.184	1	75
458.355	1	66
458.525	1	80
458.695	1	77
458.866	1	85
459.036	1	71
459.207	1	82
459.377	1	65
459.548	1	74
459.718	1	61
459.888	1	82
460.059	1	78
460.229	1	75
460.400	1	82
460.570	1	70
460.740	1	78
460.911	1	77
461.081	1	86
461.252	1	74
461.422	1	79
461.593	1	75
461.763	1	74
461.933	1	78
462.104	1	65
462.274	1	77
462.445	1	79
462.615	1	66
462.785	1	71
462.956	1	77
463.126	1	80
463.297	1	74
463.467	1	69
463.638	1	70
463.808	1	56
463.978	1	65
464.149	1	59
464.319	1	75
464.490	1	85
464.660	1	71
464.830	1	62
465.001	1	76
465.171	1	87
465.342	1	79
465.512	1	59
465.682	1	68
465.853	1	74
466.023	1	67
466.194	1	59
466.364	1	81
466.534	1	67
466.705	1	71
466.875	1	58
467.045	1	64
467.216	1	77
467.386	1	46
467.557	1	59
467.727	1	60
467.897	1	61
468.068	1	56
468.238	1	70
468.409	1	58
468.579	1	56
468.749	1	56
468.920	1	53
469.090	1	71
469.260	1	54
469.431	1	52
469.601	1	64
469.772	1	68
469.942	1	56
470.112	1	68
470.283	1	60
470.453	1	54
470.623	1	58
470.794	1	48
470.964	1	58
471.135	1	67
471.305	1	48
471.475	1	75
471.646	1	57
471.816	1	54
471.986	1	61
472.157	1	63
472.327	1	56
472.497	1	61
472.668	1	57
472.838	1	60
473.009	1	62
473.179	1	52
473.349	1	52
473.520	1	77
473.690	1	60
473.860	1	56
474.031	1	54
474.201	1	65
474.371	1	66
474.542	1	57
474.712	1	61
474.882	1	68
475.053	1	71
475.223	1	43
475.394	1	67
475.564	1	65
475.734	1	63
475.905	1	70
476.075	1	55
476.245	1	63
476.416	1	66
476.586	1	63
476.756	1	59
476.927	1	66
477.097	1	65
477.267	1	49
477.438	1	59
477.608	1	57
477.778	1	52
477.949	1	54
478.119	1	70
478.289	1	68
478.460	1	66
478.630	1	57
478.800	1	62
478.971	1	55
479.141	1	45
479.311	1	43
479.482	1	57
479.652	1	59
479.822	1	55
479.993	1	63
480.163	1	58
480.333	1	51
480.504	1	53
480.674	1	57
480.844	1	44
481.015	1	61
481.185	1	44
481.355	1	56
481.525	1	45
481.696	1	57
481.866	1	55
482.036	1	59
482.207	1	47
482.377	1	41
482.547	1	56
482.718	1	58
482.888	1	54
483.058	1	45
483.229	1	53
483.399	1	51
483.569	1	49
483.740	1	53
483.910	1	55
484.080	1	46
484.250	1	49
484.421	1	49
484.591	1	52
484.761	1	62
484.932	1	58
485.102	1	61
485.272	1	54
485.443	1	57
485.613	1	46
485.783	1	36
485.953	1	46
486.124	1	50
486.294	1	47
486.464	1	46
486.635	1	47
486.805	1	57
486.975	1	48
487.146	1	42
487.316	1	49
487.486	1	50
487.656	1	41
487.827	1	43
487.997	1	50
488.167	1	43
488.338	1	58
488.508	1	44
488.678	1	36
488.848	1	56
489.019	1	47
489.189	1	51
489.359	1	44
489.529	1	47
489.700	1	38
489.870	1	53
490.040	1	34
490.211	1	42
490.381	1	49
490.551	1	47
490.721	1	50
490.892	1	45
491.062	1	41
491.232	1	48
491.402	1	39
491.573	1	37
491.743	1	52
491.913	1	42
492.084	1	60
492.254	1	46
492.424	1	38
492.594	1	42
492.765	1	54
492.935	1	42
493.105	1	42
493.275	1	43
493.446	1	49
493.616	1	52
493.786	1	43
493.956	1	35
494.127	1	44
494.297	1	36
494.467	1	37
494.637	1	45
494.808	1	40
494.978	1	41
495.148	1	39
495.318	1	40
495.489	1	45
495.659	1	31
495.829	1	33
495.999	1	31
496.170	1	37
496.340	1	43
496.510	1	44
496.680	1	38
496.851	1	39
497.021	1	36
497.191	1	29
497.361	1	34
497.532	1	43
497.702	1	48
497.872	1	36
498.042	1	41
498.213	1	34
498.383	1	46
498.553	1	33
498.723	1	37
498.894	1	38
499.064	1	35
499.234	1	33
499.404	1	41
499.574	1	48
499.745	1	42
499.915	1	31
500.085	1	30
500.255	1	43
500.426	1	43
500.596	1	41
500.766	1	36
500.936	1	46
501.106	1	30
501.277	1	44
501.447	1	42
501.617	1	32
501.787	1	30
501.958	1	35
502.128	1	39
502.298	1	35
502.468	1	32
502.638	1	36
502.809	1	43
502.979	1	39
503.149	1	33
503.319	1	29
503.489	1	29
503.660	1	37
503.830	1	32
504.000	1	33
504.170	1	34
504.340	1	27
504.511	1	40
504.681	1	35
504.851	1	37
505.021	1	29
505.192	1	29
505.362	1	43
505.532	1	24
505.702	1	42
505.872	1	33
506.043	1	24
506.213	1	24
506.383	1	30
506.553	1	34
506.723	1	28
506.893	1	36
507.064	1	30
507.234	1	23
507.404	1	31
507.574	1	22
507.744	1	23
507.915	1	31
508.085	1	24
508.255	1	29
508.425	1	31
508.595	1	28
508.766	1	37
508.936	1	24
509.106	1	31
509.276	1	37
509.446	1	31
509.616	1	24
509.787	1	31
509.957	1	37
510.127	1	31
510.297	1	30
510.467	1	25
510.638	1	32
510.808	1	28
510.978	1	25
511.148	1	28
511.318	1	30
511.488	1	20
511.659	1	23
511.829	1	26
511.999	1	22
512.169	1	29
512.339	1	33
512.509	1	30
512.680	1	30
512.850	1	34
513.020	1	32
513.190	1	29
513.360	1	19
513.530	1	14
513.700	1	28
513.871	1	18
514.041	1	24
514.211	1	32
514.381	1	29
514.551	1	26
514.721	1	20
514.892	1	26
515.062	1	22
515.232	1	33
515.402	1	22
515.572	1	18
515.742	1	43
515.912	1	31
516.083	1	16
516.253	1	31
516.423	1	24
516.593	1	25
516.763	1	30
516.933	1	24
517.104	1	25
517.274	1	21
517.444	1	19
517.614	1	25
517.784	1	24
517.954	1	22
518.124	1	31
518.294	1	20
518.465	1	23
518.635	1	19
518.805	1	17
518.975	1	19
519.145	1	21
519.315	1	21
519.485	1	15
519.656	1	30
519.826	1	28
519.996	1	12
520.166	1	24
520.336	1	19
520.506	1	17
520.676	1	10
520.846	1	27
521.017	1	21
521.187	1	22
521.357	1	26
521.527	1	21
521.697	1	19
521.867	1	17
522.037	1	28
522.207	1	27
522.377	1	29
522.548	1	15
522.718	1	15
522.888	1	31
523.058	1	15
523.228	1	29
523.398	1	26
523.568	1	27
523.738	1	28
523.909	1	24
524.079	1	16
524.249	1	20
524.419	1	16
524.589	1	23
524.759	1	21
524.929	1	13
525.099	1	16
525.269	1	20
525.439	1	17
525.610	1	30
525.780	1	25
525.950	1	15
526.120	1	16
526.290	1	25
526.460	1	3
526.630	1	28
526.800	1	15
526.970	1	17
527.140	1	11
527.311	1	21
527.481	1	13
527.651	1	26
527.821	1	14
527.991	1	29
528.161	1	26
528.331	1	26
528.501	1	26
528.671	1	11
528.841	1	18
529.011	1	15
529.181	1	24
529.352	1	12
529.522	1	24
529.692	1	13
529.862	1	20
530.032	1	19
530.202	1	27
530.372	1	17
530.542	1	24
530.712	1	22
530.882	1	18
531.052	1	23
531.222	1	19
531.392	1	25
531.563	1	23
531.733	1	18
531.903	1	5
532.073	1	24
532.243	1	9
532.413	1	17
532.583	1	23
532.753	1	22
532.923	1	6
533.093	1	11
533.263	1	12
533.433	1	13
533.603	1	17
533.773	1	25
533.943	1	12
534.113	1	22
534.284	1	13
534.454	1	31
534.624	1	21
534.794	1	11
534.964	1	23
535.134	1	9
535.304	1	13
535.474	1	25
535.644	1	8
535.814	1	15
535.984	1	8
536.154	1	12
536.324	1	15
536.494	1	15
536.664	1	25
536.834	1	18
537.004	1	14
537.174	1	17
537.344	1	16
537.514	1	5
537.685	1	14
537.855	1	26
538.025	1	16
538.195	1	18
538.365	1	28
538.535	1	13
538.705	1	15
538.875	1	22
539.045	1	21
539.215	1	16
539.385	1	15
539.555	1	18
539.725	1	14
539.895	1	9
540.065	1	23
540.235	1	19
540.405	1	15
540.575	1	14
540.745	1	27
540.915	1	18
541.085	1	21
541.255	1	6
541.425	1	18
541.595	1	25
541.765	1	19
541.935	1	8
542.105	1	13
542.275	1	22
542.445	1	1
542.615	1	12
542.785	1	10
542.955	1	17
543.125	1	12
543.295	1	11
543.465	1	15
543.635	1	11
543.805	1	31
543.975	1	13
544.145	1	18
544.315	1	14
544.485	1	17
544.655	1	16
544.825	1	5
544.995	1	6
545.165	1	22
545.335	1	9
545.505	1	11
545.675	1	12
545.845	1	13
546.015	1	12
546.185	1	22
546.355	1	17
546.525	1	16
546.695	1	12
546.865	1	11
547.035	1	11
547.205	1	4
547.375	1	13
547.545	1	22
547.715	1	9
547.885	1	9
548.055	1	14
548.225	1	15
548.395	1	5
548.565	1	12
548.735	1	10
548.905	1	8
549.075	1	10
549.245	1	10
549.415	1	11
549.585	1	13
549.755	1	20
549.925	1	8
550.095	1	10
550.265	1	2
550.435	1	10
550.605	1	18
550.775	1	11
550.945	1	17
551.115	1	14
551.285	1	14
551.455	1	4
551.625	1	20
551.795	1	13
551.965	1	16
552.135	1	12
552.305	1	11
552.475	1	6
552.645	1	8
552.815	1	17
552.985	1	12
553.155	1	5
553.325	1	13
553.495	1	3
553.665	1	8
553.835	1	12
554.004	1	16
554.174	1	7
554.344	1	20
554.514	1	1
554.684	1	14
554.854	1	12
555.024	1	5
555.194	1	8
555.364	1	17
555.534	1	14
555.704	1	18
555.874	1	28
556.044	1	16
556.214	1	-1
556.384	1	9
556.554	1	20
556.724	1	15
556.894	1	1
557.064	1	2
557.234	1	3
557.404	1	26
557.573	1	15
557.743	1	17
557.913	1	7
558.083	1	8
558.253	1	26
558.423	1	8
558.593	1	7
558.763	1	12
558.933	1	16
559.103	1	19
559.273	1	16
559.443	1	6
559.613	1	16
559.783	1	10
559.953	1	8
560.122	1	7
560.292	1	11
560.462	1	6
560.632	1	24
560.802	1	13
560.972	1	12
561.142	1	10
561.312	1	4
561.482	1	9
561.652	1	15
561.822	1	5
561.992	1	11
562.162	1	13
562.331	1	3
562.501	1	0
562.671	1	15
562.841	1	6
563.011	1	11
563.181	1	9
563.351	1	-4
563.521	1	16
563.691	1	-1
563.861	1	15
564.031	1	7
564.201	1	15
564.370	1	13
564.540	1	19
564.710	1	3
564.880	1	16
565.050	1	19
565.220	1	0
565.390	1	11
565.560	1	13
565.730	1	11
565.900	1	13
566.069	1	7
566.239	1	11
566.409	1	5
566.579	1	22
566.749	1	5
566.919	1	19
567.089	1	12
567.259	1	21
567.429	1	6
567.599	1	-1
567.768	1	14
567.938	1	14
568.108	1	10
568.278	1	8
568.448	1	-1
568.618	1	6
568.788	1	4
568.958	1	9
569.128	1	7
569.297	1	10
569.467	1	4
569.637	1	24
569.807	1	9
569.977	1	5
570.147	1	18
570.317	1	-2
570.487	1	8
570.656	1	14
570.826	1	13
570.996	1	-5
571.166	1	15
571.336	1	5
571.506	1	17
571.676	1	17
571.846	1	10
572.015	1	11
572.185	1	11
572.355	1	7
572.525	1	14
572.695	1	8
572.865	1	-4
573.035	1	8
573.205	1	2
573.374	1	10
573.544	1	4
573.714	1	19
573.884	1	21
574.054	1	9
574.224	1	6
574.394	1	15
574.563	1	1
574.733	1	6
574.903	1	7
575.073	1	8
575.243	1	11
575.413	1	14
575.583	1	6
575.752	1	16
575.922	1	5
576.092	1	14
576.262	1	13
576.432	1	20
576.602	1	-1
576.772	1	20
576.941	1	17
577.111	1	-1
577.281	1	-1
577.451	1	8
577.621	1	15
577.791	1	18
577.960	1	2
578.130	1	8
578.300	1	12
578.470	1	22
578.640	1	9
578.810	1	12
578.979	1	10
579.149	1	6
579.319	1	7
579.489	1	10
579.659	1	6
579.829	1	8
579.998	1	19
580.168	1	21
580.338	1	8
580.508	1	8
580.678	1	16
580.848	1	2
581.017	1	3
581.187	1	8
581.357	1	-6
581.527	1	12
581.697	1	12
581.867	1	19
582.036	1	6
582.206	1	2
582.376	1	20
582.546	1	1
582.716	1	4
582.885	1	-5
583.055	1	7
583.225	1	1
583.395	1	17
583.565	1	0
583.735	1	14
583.904	1	8
584.074	1	9
584.244	1	9
584.414	1	12
584.584	1	14
584.753	1	0
584.923	1	3
585.093	1	13
585.263	1	8
585.433	1	8
585.602	1	1
585.772	1	4
585.942	1	10
586.112	1	8
586.282	1	6
586.451	1	-2
586.621	1	2
586.791	1	2
586.961	1	10
587.131	1	9
587.300	1	1
587.470	1	17
587.640	1	18
587.810	1	1
587.980	1	1
588.149	1	-4
588.319	1	8
588.489	1	10
588.659	1	10
588.829	1	8
588.998	1	11
589.168	1	17
589.338	1	13
589.508	1	10
589.677	1	-2
589.847	1	-4
590.017	1	35
590.187	1	-6
590.357	1	11
590.526	1	13
590.696	1	11
590.866	1	15
591.036	1	7
591.205	1	12
591.375	1	6
591.545	1	7
591.715	1	13
591.885	1	2
592.054	1	13
592.224	1	4
592.394	1	5
592.564	1	6
592.733	1	11
592.903	1	6
593.073	1	5
593.243	1	11
593.412	1	12
593.582	1	6
593.752	1	6
593.922	1	11
594.091	1	9
594.261	1	10
594.431	1	9
594.601	1	10
594.771	1	8
594.940	1	14
595.110	1	13
595.280	1	17
595.450	1	1
595.619	1	4
595.789	1	3
595.959	1	15
596.129	1	6
596.298	1	10
596.468	1	5
596.638	1	14
596.808	1	7
596.977	1	15
597.147	1	14
597.317	1	7
597.487	1	22
597.656	1	14
597.826	1	12
597.996	1	11
598.166	1	6
598.335	1	-4
598.505	1	11
598.675	1	9
598.844	1	10
599.014	1	12
599.184	1	3
599.354	1	7
599.523	1	8
599.693	1	9
599.863	1	21
600.033	1	12
600.202	1	22
600.372	1	12
600.542	1	18
600.712	1	8
600.881	1	4
601.051	1	13
601.221	1	17
601.390	1	2
601.560	1	17
601.730	1	6
601.900	1	11
602.069	1	12
602.239	1	4
602.409	1	0
602.578	1	7
602.748	1	5
602.918	1	20
603.088	1	12
603.257	1	12
603.427	1	0
603.597	1	8
603.767	1	15
603.936	1	14
604.106	1	4
604.276	1	-2
604.445	1	13
604.615	1	5
604.785	1	9
604.954	1	7
605.124	1	8
605.294	1	3
605.464	1	9
605.633	1	7
605.803	1	7
605.973	1	14
606.142	1	8
606.312	1	5
606.482	1	4
606.652	1	18
606.821	1	13
606.991	1	4
607.161	1	0
607.330	1	5
607.500	1	1
607.670	1	3
607.839	1	13
608.009	1	28
608.179	1	6
608.348	1	11
608.518	1	9
608.688	1	17
608.858	1	-1
609.027	1	4
609.197	1	7
609.367	1	11
609.536	1	15
609.706	1	12
609.876	1	10
610.045	1	3
610.215	1	18
610.385	1	9
610.554	1	15
610.724	1	23
610.894	1	8
611.063	1	14
611.233	1	2
611.403	1	9
611.572	1	8
611.742	1	4
611.912	1	2
612.081	1	13
612.251	1	23
612.421	1	14
612.590	1	9
612.760	1	11
612.930	1	11
613.099	1	9
613.269	1	22
613.439	1	12
613.608	1	-2
613.778	1	13
613.948	1	9
614.117	1	15
614.287	1	18
614.457	1	19
614.626	1	14
614.796	1	15
614.966	1	5
615.135	1	16
615.305	1	22
615.475	1	10
615.644	1	12
615.814	1	13
615.984	1	9
616.153	1	4
616.323	1	10
616.493	1	16
616.662	1	18
616.832	1	6
617.002	1	11
617.171	1	11
617.341	1	17
617.511	1	4
617.680	1	3
617.850	1	16
618.019	1	24
618.189	1	13
618.359	1	20
618.528	1	16
618.698	1	8
618.868	1	9
619.037	1	9
619.207	1	8
619.377	1	8
619.546	1	14
619.716	1	5
619.885	1	12
620.055	1	6
620.225	1	4
620.394	1	0
620.564	1	20
620.734	1	11
620.903	1	4
621.073	1	12
621.242	1	11
621.412	1	9
621.582	1	9
621.751	1	23
621.921	1	21
622.091	1	3
622.260	1	10
622.430	1	18
622.599	1	14
622.769	1	9
622.939	1	14
623.108	1	20
623.278	1	-2
623.448	1	21
623.617	1	7
623.787	1	21
623.956	1	16
624.126	1	10
624.296	1	0
624.465	1	15
624.635	1	18
624.804	1	6
624.974	1	9
625.144	1	21
625.313	1	6
625.483	1	-1
625.652	1	9
625.822	1	10
625.992	1	6
626.161	1	21
626.331	1	18
626.501	1	10
626.670	1	20
626.840	1	9
627.009	1	7
627.179	1	20
627.348	1	20
627.518	1	9
627.688	1	16
627.857	1	27
628.027	1	3
628.196	1	15
628.366	1	25
628.536	1	8
628.705	1	13
628.875	1	17
629.044	1	14
629.214	1	17
629.384	1	19
629.553	1	19
629.723	1	15
629.892	1	18
630.062	1	6
630.232	1	16
630.401	1	13
630.571	1	8
630.740	1	11
630.910	1	16
631.079	1	20
631.249	1	15
631.419	1	22
631.588	1	1
631.758	1	24
631.927	1	13
632.097	1	20
632.266	1	14
632.436	1	17
632.606	1	14
632.775	1	24
632.945	1	22
633.114	1	16
633.284	1	20
633.453	1	7
633.623	1	13
633.793	1	13
633.962	1	11
634.132	1	14
634.301	1	16
634.471	1	14
634.640	1	12
634.810	1	21
634.979	1	13
635.149	1	18
635.319	1	10
635.488	1	14
635.658	1	7
635.827	1	16
635.997	1	15
636.166	1	22
636.336	1	9
636.505	1	26
636.675	1	14
636.845	1	20
637.014	1	11
637.184	1	17
637.353	1	13
637.523	1	23
637.692	1	13
637.862	1	19
638.031	1	21
638.201	1	23
638.370	1	15
638.540	1	14
638.710	1	14
638.879	1	0
639.049	1	13
639.218	1	18
639.388	1	5
639.557	1	12
639.727	1	24
639.896	1	21
640.066	1	13
640.235	1	18
640.405	1	18
640.574	1	17
640.744	1	4
640.914	1	13
641.083	1	22
641.253	1	12
641.422	1	14
641.592	1	28
641.761	1	19
641.931	1	17
642.100	1	33
642.270	1	4
642.439	1	18
642.609	1	28
642.778	1	16
642.948	1	16
643.117	1	35
643.287	1	19
643.456	1	17
643.626	1	28
643.795	1	13
643.965	1	19
644.134	1	7
644.304	1	6
644.473	1	15
644.643	1	18
644.812	1	22
644.982	1	27
645.151	1	14
645.321	1	11
645.490	1	17
645.660	1	5
645.829	1	11
645.999	1	6
646.168	1	22
646.338	1	24
646.507	1	21
646.677	1	17
646.846	1	13
647.016	1	11
647.185	1	23
647.355	1	5
647.524	1	22
647.694	1	27
647.863	1	29
648.033	1	19
648.202	1	20
648.372	1	9
648.541	1	16
648.711	1	10
648.880	1	12
649.050	1	8
649.219	1	12
649.389	1	23
649.558	1	13
649.728	1	26
649.897	1	16
650.067	1	22
650.236	1	25
650.406	1	21
650.575	1	27
650.745	1	21
650.914	1	21
651.084	1	14
651.253	1	20
651.423	1	20
651.592	1	9
651.762	1	22
651.931	1	22
652.101	1	14
652.270	1	22
652.440	1	30
652.609	1	16
652.778	1	17
652.948	1	27
653.117	1	20
653.287	1	26
653.456	1	20
653.626	1	21
653.795	1	23
653.965	1	19
654.134	1	26
654.304	1	17
654.473	1	28
654.643	1	20
654.812	1	20
654.982	1	14
655.151	1	18
655.320	1	17
655.490	1	13
655.659	1	23
655.829	1	13
655.998	1	21
656.168	1	16
656.337	1	26
656.507	1	21
656.676	1	22
656.846	1	25
657.015	1	23
657.184	1	31
657.354	1	20
657.523	1	18
657.693	1	24
657.862	1	22
658.032	1	15
658.201	1	18
658.371	1	22
658.540	1	24
658.709	1	19
658.879	1	29
659.048	1	30
659.218	1	10
659.387	1	26
659.557	1	31
659.726	1	28
659.895	1	22
660.065	1	5
660.234	1	20
660.404	1	22
660.573	1	19
660.743	1	24
660.912	1	29
661.081	1	35
661.251	1	20
661.420	1	23
661.590	1	20
661.759	1	29
661.929	1	23
662.098	1	28
662.267	1	13
662.437	1	20
662.606	1	21
662.776	1	29
662.945	1	26
663.115	1	17
663.284	1	17
663.453	1	25
663.623	1	12
663.792	1	30
663.962	1	19
664.131	1	32
664.300	1	35
664.470	1	12
664.639	1	23
664.809	1	24
664.978	1	28
665.148	1	24
665.317	1	27
665.486	1	24
665.656	1	23
665.825	1	13
665.995	1	13
666.164	1	19
666.333	1	22
666.503	1	23
666.672	1	19
666.842	1	27
667.011	1	17
667.180	1	29
667.350	1	20
667.519	1	31
667.689	1	21
667.858	1	29
668.027	1	27
668.197	1	24
668.366	1	13
668.536	1	28
668.705	1	15
668.874	1	25
669.044	1	25
669.213	1	34
669.382	1	17
669.552	1	28
669.721	1	22
669.891	1	31
670.060	1	26
670.229	1	28
670.399	1	20
670.568	1	24
670.738	1	22
670.907	1	25
671.076	1	23
671.246	1	24
671.415	1	21
671.584	1	21
671.754	1	18
671.923	1	14
672.093	1	28
672.262	1	16
672.431	1	23
672.601	1	18
672.770	1	20
672.939	1	26
673.109	1	20
673.278	1	21
673.448	1	26
673.617	1	18
673.786	1	19
