325.333	1	14
325.504	1	13
325.675	1	2
325.846	1	9
326.017	1	2
326.188	1	6
326.359	1	3
326.531	1	1
326.702	1	0
326.873	1	9
327.044	1	9
327.215	1	-1
327.386	1	14
327.557	1	-1
327.728	1	2
327.899	1	5
328.070	1	17
328.241	1	3
328.412	1	2
328.583	1	9
328.754	1	-4
328.926	1	5
329.097	1	2
329.268	1	15
329.439	1	2
329.610	1	17
329.781	1	-3
329.952	1	9
330.123	1	5
330.294	1	4
330.465	1	9
330.636	1	16
330.807	1	3
330.978	1	10
331.149	1	11
331.320	1	-6
331.492	1	14
331.663	1	3
331.834	1	8
332.005	1	14
332.176	1	14
332.347	1	9
332.518	1	1
332.689	1	17
332.860	1	2
333.031	1	13
333.202	1	8
333.373	1	10
333.544	1	14
333.715	1	5
333.886	1	-1
334.057	1	8
334.228	1	3
334.399	1	3
334.570	1	16
334.741	1	2
334.912	1	19
335.084	1	19
335.255	1	10
335.426	1	4
335.597	1	12
335.768	1	8
335.939	1	11
336.110	1	5
336.281	1	5
336.452	1	2
336.623	1	13
336.794	1	7
336.965	1	9
337.136	1	20
337.307	1	7
337.478	1	5
337.649	1	4
337.820	1	14
337.991	1	6
338.162	1	15
338.333	1	6
338.504	1	15
338.675	1	14
338.846	1	15
339.017	1	2
339.188	1	12
339.359	1	-2
339.530	1	13
339.701	1	19
339.872	1	20
340.043	1	11
340.214	1	6
340.385	1	18
340.556	1	-2
340.727	1	0
340.898	1	16
341.069	1	9
341.240	1	9
341.411	1	11
341.582	1	13
341.753	1	0
341.924	1	13
342.095	1	16
342.266	1	22
342.437	1	19
342.608	1	3
342.779	1	17
342.950	1	23
343.121	1	13
343.292	1	10
343.463	1	12
343.634	1	9
343.805	1	18
343.976	1	18
344.147	1	17
344.318	1	10
344.489	1	10
344.660	1	18
344.831	1	16
345.002	1	0
345.173	1	15
345.344	1	16
345.515	1	10
345.686	1	15
345.857	1	13
346.028	1	17
346.199	1	10
346.370	1	14
346.541	1	14
346.712	1	3
346.883	1	10
347.054	1	10
347.225	1	23
347.396	1	25
347.567	1	6
347.738	1	12
347.909	1	26
348.080	1	14
348.251	1	18
348.422	1	24
348.593	1	13
348.764	1	13
348.935	1	11
349.106	1	5
349.277	1	8
349.448	1	24
349.619	1	17
349.790	1	15
349.961	1	19
350.132	1	20
350.303	1	10
350.474	1	32
350.645	1	13
350.816	1	21
350.987	1	21
351.157	1	10
351.328	1	15
351.499	1	19
351.670	1	14
351.841	1	28
352.012	1	22
352.183	1	23
352.354	1	23
352.525	1	37
352.696	1	29
352.867	1	27
353.038	1	26
353.209	1	25
353.380	1	13
353.551	1	16
353.722	1	17
353.893	1	17
354.064	1	30
354.235	1	24
354.406	1	19
354.576	1	17
354.747	1	15
354.918	1	24
355.089	1	25
355.260	1	20
355.431	1	22
355.602	1	13
355.773	1	18
355.944	1	26
356.115	1	8
356.286	1	22
356.457	1	21
356.628	1	29
356.799	1	17
356.970	1	32
357.141	1	24
357.311	1	24
357.482	1	16
357.653	1	14
357.824	1	25
357.995	1	20
358.166	1	14
358.337	1	22
358.508	1	28
358.679	1	22
358.850	1	25
359.021	1	21
359.192	1	19
359.363	1	20
359.533	1	13
359.704	1	20
359.875	1	21
360.046	1	23
360.217	1	13
360.388	1	27
360.559	1	16
360.730	1	24
360.901	1	24
361.072	1	36
361.243	1	22
361.414	1	19
361.584	1	24
361.755	1	17
361.926	1	23
362.097	1	18
362.268	1	25
362.439	1	18
362.610	1	28
362.781	1	18
362.952	1	24
363.123	1	23
363.293	1	13
363.464	1	25
363.635	1	31
363.806	1	25
363.977	1	18
364.148	1	20
364.319	1	30
364.490	1	25
364.661	1	24
364.832	1	26
365.002	1	28
365.173	1	22
365.344	1	37
365.515	1	29
365.686	1	22
365.857	1	33
366.028	1	39
366.199	1	16
366.370	1	27
366.540	1	14
366.711	1	11
366.882	1	17
367.053	1	13
367.224	1	37
367.395	1	38
367.566	1	27
367.737	1	29
367.908	1	27
368.078	1	32
368.249	1	39
368.420	1	22
368.591	1	23
368.762	1	29
368.933	1	22
369.104	1	15
369.274	1	19
369.445	1	28
369.616	1	29
369.787	1	23
369.958	1	32
370.129	1	12
370.300	1	32
370.471	1	19
370.641	1	25
370.812	1	30
370.983	1	20
371.154	1	21
371.325	1	28
371.496	1	34
371.667	1	23
371.837	1	24
372.008	1	28
372.179	1	20
372.350	1	31
372.521	1	22
372.692	1	26
372.863	1	39
373.033	1	13
373.204	1	18
373.375	1	45
373.546	1	26
373.717	1	31
373.888	1	33
374.059	1	36
374.229	1	35
374.400	1	24
374.571	1	27
374.742	1	32
374.913	1	20
375.084	1	25
375.254	1	35
375.425	1	30
375.596	1	29
375.767	1	31
375.938	1	33
376.109	1	25
376.279	1	38
376.450	1	41
376.621	1	29
376.792	1	29
376.963	1	42
377.134	1	34
377.304	1	32
377.475	1	27
377.646	1	22
377.817	1	18
377.988	1	34
378.159	1	34
378.329	1	38
378.500	1	20
378.671	1	34
378.842	1	29
379.013	1	18
379.184	1	41
379.354	1	33
379.525	1	25
379.696	1	29
379.867	1	33
380.038	1	25
380.209	1	35
380.379	1	17
380.550	1	27
380.721	1	48
380.892	1	30
381.063	1	31
381.233	1	47
381.404	1	27
381.575	1	44
381.746	1	35
381.917	1	40
382.087	1	32
382.258	1	35
382.429	1	36
382.600	1	33
382.771	1	38
382.941	1	36
383.112	1	30
383.283	1	47
383.454	1	27
383.625	1	31
383.795	1	49
383.966	1	32
384.137	1	43
384.308	1	39
384.479	1	41
384.649	1	33
384.820	1	32
384.991	1	37
385.162	1	32
385.333	1	40
385.503	1	31
385.674	1	28
385.845	1	53
386.016	1	39
386.187	1	35
386.357	1	37
386.528	1	46
386.699	1	35
386.870	1	47
387.041	1	39
387.211	1	36
387.382	1	56
387.553	1	47
387.724	1	34
387.894	1	34
388.065	1	37
388.236	1	41
388.407	1	37
388.578	1	40
388.748	1	40
388.919	1	55
389.090	1	37
389.261	1	36
389.431	1	58
389.602	1	41
389.773	1	46
389.944	1	46
390.114	1	43
390.285	1	38
390.456	1	35
390.627	1	40
390.798	1	53
390.968	1	32
391.139	1	42
391.310	1	39
391.481	1	51
391.651	1	38
391.822	1	27
391.993	1	44
392.164	1	36
392.334	1	45
392.505	1	41
392.676	1	48
392.847	1	44
393.017	1	42
393.188	1	39
393.359	1	31
393.530	1	51
393.700	1	39
393.871	1	42
394.042	1	31
394.213	1	38
394.383	1	44
394.554	1	36
394.725	1	52
394.896	1	38
395.066	1	41
395.237	1	40
395.408	1	37
395.579	1	36
395.749	1	43
395.920	1	37
396.091	1	53
396.262	1	44
396.432	1	38
396.603	1	56
396.774	1	41
396.945	1	47
397.115	1	42
397.286	1	46
397.457	1	47
397.627	1	45
397.798	1	42
397.969	1	43
398.140	1	34
398.310	1	38
398.481	1	44
398.652	1	45
398.823	1	43
398.993	1	44
399.164	1	55
399.335	1	45
399.505	1	43
399.676	1	34
399.847	1	46
400.018	1	44
400.188	1	38
400.359	1	46
400.530	1	29
400.700	1	43
400.871	1	40
401.042	1	41
401.213	1	41
401.383	1	44
401.554	1	48
401.725	1	42
401.895	1	35
402.066	1	41
402.237	1	45
402.408	1	53
402.578	1	47
402.749	1	46
402.920	1	43
403.090	1	50
403.261	1	45
403.432	1	45
403.603	1	48
403.773	1	49
403.944	1	52
404.115	1	42
404.285	1	44
404.456	1	30
404.627	1	46
404.797	1	40
404.968	1	40
405.139	1	26
405.310	1	60
405.480	1	49
405.651	1	44
405.822	1	40
405.992	1	34
406.163	1	44
406.334	1	37
406.504	1	40
406.675	1	58
406.846	1	55
407.016	1	47
407.187	1	57
407.358	1	38
407.528	1	49
407.699	1	38
407.870	1	39
408.041	1	49
408.211	1	59
408.382	1	42
408.553	1	36
408.723	1	48
408.894	1	49
409.065	1	42
409.235	1	42
409.406	1	52
409.577	1	43
409.747	1	52
409.918	1	48
410.089	1	57
410.259	1	50
410.430	1	30
410.601	1	47
410.771	1	45
410.942	1	50
411.113	1	46
411.283	1	47
411.454	1	47
411.625	1	42
411.795	1	47
411.966	1	54
412.137	1	56
412.307	1	32
412.478	1	51
412.649	1	46
412.819	1	50
412.990	1	43
413.161	1	50
413.331	1	31
413.502	1	58
413.672	1	56
413.843	1	51
414.014	1	46
414.184	1	52
414.355	1	38
414.526	1	40
414.696	1	38
414.867	1	41
415.038	1	31
415.208	1	55
415.379	1	55
415.550	1	47
415.720	1	42
415.891	1	40
416.062	1	36
416.232	1	52
416.403	1	44
416.573	1	43
416.744	1	37
416.915	1	47
417.085	1	42
417.256	1	41
417.427	1	47
417.597	1	43
417.768	1	43
417.939	1	51
418.109	1	45
418.280	1	46
418.450	1	47
418.621	1	23
418.792	1	37
418.962	1	47
419.133	1	61
419.304	1	42
419.474	1	44
419.645	1	53
419.815	1	31
419.986	1	54
420.157	1	45
420.327	1	47
420.498	1	49
420.669	1	35
420.839	1	54
421.010	1	41
421.180	1	48
421.351	1	46
421.522	1	51
421.692	1	44
421.863	1	43
422.033	1	57
422.204	1	57
422.375	1	37
422.545	1	51
422.716	1	31
422.886	1	48
423.057	1	38
423.228	1	43
423.398	1	39
423.569	1	35
423.740	1	39
423.910	1	30
424.081	1	46
424.251	1	42
424.422	1	45
424.593	1	25
424.763	1	54
424.934	1	46
425.104	1	53
425.275	1	44
425.445	1	40
425.616	1	36
425.787	1	31
425.957	1	47
426.128	1	50
426.298	1	53
426.469	1	41
426.640	1	44
426.810	1	47
426.981	1	34
427.151	1	42
427.322	1	48
427.493	1	39
427.663	1	31
427.834	1	35
428.004	1	48
428.175	1	36
428.345	1	42
428.516	1	30
428.687	1	40
428.857	1	31
429.028	1	41
429.198	1	37
429.369	1	45
429.540	1	43
429.710	1	33
429.881	1	48
430.051	1	47
430.222	1	40
430.392	1	39
430.563	1	53
430.734	1	50
430.904	1	51
431.075	1	39
431.245	1	39
431.416	1	42
431.586	1	53
431.757	1	44
431.927	1	42
432.098	1	54
432.269	1	37
432.439	1	46
432.610	1	40
432.780	1	48
432.951	1	38
433.121	1	52
433.292	1	43
433.462	1	40
433.633	1	46
433.804	1	30
433.974	1	38
434.145	1	55
434.315	1	25
434.486	1	34
434.656	1	37
434.827	1	30
434.997	1	37
435.168	1	38
435.339	1	51
435.509	1	49
435.680	1	39
435.850	1	27
436.021	1	35
436.191	1	41
436.362	1	32
436.532	1	33
436.703	1	42
436.873	1	46
437.044	1	30
437.214	1	41
437.385	1	36
437.556	1	32
437.726	1	42
437.897	1	44
438.067	1	37
438.238	1	41
438.408	1	38
438.579	1	34
438.749	1	34
438.920	1	32
439.090	1	29
439.261	1	33
439.431	1	36
439.602	1	28
439.772	1	32
439.943	1	44
440.113	1	36
440.284	1	36
440.455	1	35
440.625	1	42
440.796	1	40
440.966	1	29
441.137	1	36
441.307	1	24
441.478	1	50
441.648	1	37
441.819	1	29
441.989	1	46
442.160	1	48
442.330	1	38
442.501	1	40
442.671	1	30
442.842	1	30
443.012	1	33
443.183	1	54
443.353	1	28
443.524	1	39
443.694	1	45
443.865	1	36
444.035	1	37
444.206	1	27
444.376	1	29
444.547	1	46
444.717	1	30
444.888	1	33
445.058	1	38
445.229	1	34
445.399	1	31
445.570	1	45
445.740	1	33
445.911	1	15
446.081	1	24
446.252	1	44
446.422	1	20
446.593	1	38
446.763	1	27
446.934	1	22
447.104	1	34
447.275	1	29
447.445	1	37
447.616	1	42
447.786	1	22
447.957	1	40
448.127	1	32
448.298	1	33
448.468	1	26
448.639	1	39
448.809	1	17
448.979	1	29
449.150	1	41
449.320	1	32
449.491	1	40
449.661	1	32
449.832	1	37
450.002	1	39
450.173	1	30
450.343	1	41
450.514	1	27
450.684	1	34
450.855	1	30
451.025	1	30
451.196	1	37
451.366	1	39
451.537	1	33
451.707	1	26
451.878	1	27
452.048	1	50
452.218	1	44
452.389	1	34
452.559	1	27
452.730	1	38
452.900	1	41
453.071	1	12
453.241	1	32
453.412	1	26
453.582	1	26
453.753	1	36
453.923	1	32
454.093	1	36
454.264	1	36
454.434	1	43
454.605	1	35
454.775	1	26
454.946	1	28
455.116	1	36
455.287	1	14
455.457	1	20
455.628	1	21
455.798	1	33
455.968	1	42
456.139	1	18
456.309	1	29
456.480	1	25
456.650	1	25
456.821	1	35
456.991	1	30
457.161	1	22
457.332	1	36
457.502	1	11
457.673	1	26
457.843	1	33
458.014	1	30
458.184	1	19
458.355	1	14
458.525	1	38
458.695	1	31
458.866	1	26
459.036	1	37
459.207	1	23
459.377	1	11
459.548	1	35
459.718	1	20
459.888	1	44
460.059	1	34
460.229	1	24
460.400	1	36
460.570	1	34
460.740	1	27
460.911	1	29
461.081	1	38
461.252	1	24
461.422	1	20
461.593	1	27
461.763	1	24
461.933	1	33
462.104	1	13
462.274	1	31
462.445	1	14
462.615	1	32
462.785	1	26
462.956	1	22
463.126	1	40
463.297	1	13
463.467	1	20
463.638	1	29
463.808	1	25
463.978	1	17
464.149	1	19
464.319	1	31
464.490	1	34
464.660	1	17
464.830	1	20
465.001	1	29
465.171	1	24
465.342	1	22
465.512	1	13
465.682	1	29
465.853	1	19
466.023	1	34
466.194	1	26
466.364	1	34
466.534	1	27
466.705	1	20
466.875	1	17
467.045	1	11
467.216	1	37
467.386	1	15
467.557	1	16
467.727	1	14
467.897	1	14
468.068	1	27
468.238	1	25
468.409	1	22
468.579	1	33
468.749	1	16
468.920	1	13
469.090	1	22
469.260	1	20
469.431	1	24
469.601	1	20
469.772	1	19
469.942	1	13
470.112	1	18
470.283	1	20
470.453	1	28
470.623	1	13
470.794	1	15
470.964	1	23
471.135	1	24
471.305	1	11
471.475	1	28
471.646	1	16
471.816	1	8
471.986	1	18
472.157	1	16
472.327	1	6
472.497	1	14
472.668	1	18
472.838	1	26
473.009	1	27
473.179	1	17
473.349	1	26
473.520	1	27
473.690	1	29
473.860	1	17
474.031	1	21
474.201	1	21
474.371	1	35
474.542	1	20
474.712	1	17
474.882	1	19
475.053	1	24
475.223	1	15
475.394	1	25
475.564	1	18
475.734	1	14
475.905	1	34
476.075	1	19
476.245	1	26
476.416	1	23
476.586	1	23
476.756	1	20
476.927	1	13
477.097	1	18
477.267	1	11
477.438	1	24
477.608	1	29
477.778	1	19
477.949	1	21
478.119	1	37
478.289	1	19
478.460	1	28
478.630	1	27
478.800	1	11
478.971	1	21
479.141	1	3
479.311	1	7
479.482	1	14
479.652	1	13
479.822	1	23
479.993	1	16
480.163	1	22
480.333	1	15
480.504	1	27
480.674	1	10
480.844	1	7
481.015	1	17
481.185	1	15
481.355	1	26
481.525	1	12
481.696	1	21
481.866	1	23
482.036	1	21
482.207	1	10
482.377	1	8
482.547	1	25
482.718	1	15
482.888	1	18
483.058	1	21
483.229	1	15
483.399	1	16
483.569	1	9
483.740	1	22
483.910	1	18
484.080	1	10
484.250	1	26
484.421	1	16
484.591	1	18
484.761	1	18
484.932	1	26
485.102	1	29
485.272	1	6
485.443	1	17
485.613	1	15
485.783	1	15
485.953	1	10
486.124	1	26
486.294	1	25
486.464	1	15
486.635	1	21
486.805	1	19
486.975	1	12
487.146	1	8
487.316	1	5
487.486	1	18
487.656	1	4
487.827	1	12
487.997	1	15
488.167	1	10
488.338	1	18
488.508	1	15
488.678	1	17
488.848	1	18
489.019	1	17
489.189	1	19
489.359	1	9
489.529	1	19
489.700	1	13
489.870	1	25
490.040	1	6
490.211	1	10
490.381	1	14
490.551	1	15
490.721	1	20
490.892	1	13
491.062	1	27
491.232	1	14
491.402	1	9
491.573	1	3
491.743	1	13
491.913	1	14
492.084	1	18
492.254	1	8
492.424	1	6
492.594	1	15
492.765	1	19
492.935	1	1
493.105	1	15
493.275	1	16
493.446	1	23
493.616	1	19
493.786	1	15
493.956	1	9
494.127	1	11
494.297	1	1
494.467	1	8
494.637	1	17
494.808	1	10
494.978	1	8
495.148	1	8
495.318	1	0
495.489	1	19
495.659	1	13
495.829	1	21
495.999	1	5
496.170	1	23
496.340	1	16
496.510	1	11
496.680	1	1
496.851	1	18
497.021	1	8
497.191	1	7
497.361	1	14
497.532	1	5
497.702	1	2
497.872	1	15
498.042	1	15
498.213	1	7
498.383	1	5
498.553	1	14
498.723	1	9
498.894	1	15
499.064	1	9
499.234	1	10
499.404	1	9
499.574	1	17
499.745	1	19
499.915	1	6
500.085	1	9
500.255	1	23
500.426	1	15
500.596	1	17
500.766	1	14
500.936	1	18
501.106	1	10
501.277	1	21
501.447	1	6
501.617	1	17
501.787	1	7
501.958	1	13
502.128	1	4
502.298	1	10
502.468	1	14
502.638	1	19
502.809	1	11
502.979	1	4
503.149	1	11
503.319	1	12
503.489	1	16
503.660	1	9
503.830	1	8
504.000	1	13
504.170	1	9
504.340	1	5
504.511	1	17
504.681	1	5
504.851	1	12
505.021	1	9
505.192	1	9
505.362	1	21
505.532	1	8
505.702	1	19
505.872	1	10
506.043	1	5
506.213	1	10
506.383	1	9
506.553	1	18
506.723	1	16
506.893	1	11
507.064	1	13
507.234	1	5
507.404	1	7
507.574	1	12
507.744	1	3
507.915	1	10
508.085	1	24
508.255	1	17
508.425	1	-2
508.595	1	8
508.766	1	17
508.936	1	-4
509.106	1	14
509.276	1	15
509.446	1	-5
509.616	1	4
509.787	1	13
509.957	1	13
510.127	1	11
510.297	1	4
510.467	1	-2
510.638	1	13
510.808	1	3
510.978	1	6
511.148	1	7
511.318	1	5
511.488	1	2
511.659	1	8
511.829	1	3
511.999	1	13
512.169	1	7
512.339	1	4
512.509	1	14
512.680	1	4
512.850	1	11
513.020	1	5
513.190	1	10
513.360	1	-1
513.530	1	8
513.700	1	15
513.871	1	10
514.041	1	12
514.211	1	6
514.381	1	4
514.551	1	8
514.721	1	2
514.892	1	10
515.062	1	16
515.232	1	11
515.402	1	-1
515.572	1	5
515.742	1	7
515.912	1	20
516.083	1	7
516.253	1	13
516.423	1	2
516.593	1	18
516.763	1	20
516.933	1	-7
517.104	1	11
517.274	1	2
517.444	1	14
517.614	1	-1
517.784	1	12
517.954	1	7
518.124	1	14
518.294	1	0
518.465	1	3
518.635	1	1
518.805	1	-7
518.975	1	-1
519.145	1	5
519.315	1	7
519.485	1	2
519.656	1	13
519.826	1	3
519.996	1	0
520.166	1	4
520.336	1	12
520.506	1	7
520.676	1	-1
520.846	1	19
521.017	1	11
521.187	1	7
521.357	1	15
521.527	1	4
521.697	1	4
521.867	1	6
522.037	1	18
522.207	1	18
522.377	1	11
522.548	1	1
522.718	1	11
522.888	1	17
523.058	1	0
523.228	1	13
523.398	1	21
523.568	1	23
523.738	1	10
523.909	1	26
524.079	1	11
524.249	1	8
524.419	1	7
524.589	1	11
524.759	1	0
524.929	1	-4
525.099	1	13
525.269	1	6
525.439	1	3
525.610	1	21
525.780	1	7
525.950	1	14
526.120	1	-1
526.290	1	1
526.460	1	5
526.630	1	8
526.800	1	2
526.970	1	-4
527.140	1	10
527.311	1	10
527.481	1	4
527.651	1	9
527.821	1	-1
527.991	1	13
528.161	1	16
528.331	1	2
528.501	1	15
528.671	1	2
528.841	1	2
529.011	1	2
529.181	1	6
529.352	1	3
529.522	1	6
529.692	1	11
529.862	1	3
530.032	1	7
530.202	1	6
530.372	1	7
530.542	1	10
530.712	1	5
530.882	1	17
531.052	1	9
531.222	1	7
531.392	1	6
531.563	1	9
531.733	1	10
531.903	1	6
532.073	1	21
532.243	1	7
532.413	1	12
532.583	1	9
532.753	1	6
532.923	1	-6
533.093	1	14
533.263	1	13
533.433	1	6
533.603	1	13
533.773	1	0
533.943	1	-4
534.113	1	5
534.284	1	8
534.454	1	5
534.624	1	12
534.794	1	4
534.964	1	9
535.134	1	0
535.304	1	9
535.474	1	14
535.644	1	-2
535.814	1	-4
535.984	1	6
536.154	1	-6
536.324	1	1
536.494	1	5
536.664	1	12
536.834	1	13
537.004	1	5
537.174	1	14
537.344	1	6
537.514	1	0
537.685	1	7
537.855	1	15
538.025	1	0
538.195	1	3
538.365	1	14
538.535	1	4
538.705	1	3
538.875	1	4
539.045	1	5
539.215	1	6
539.385	1	6
539.555	1	11
539.725	1	5
539.895	1	6
540.065	1	12
540.235	1	8
540.405	1	7
540.575	1	3
540.745	1	3
540.915	1	7
541.085	1	12
541.255	1	-8
541.425	1	18
541.595	1	7
541.765	1	16
541.935	1	6
542.105	1	-1
542.275	1	1
542.445	1	-7
542.615	1	10
542.785	1	4
542.955	1	7
543.125	1	7
543.295	1	13
543.465	1	9
543.635	1	12
543.805	1	15
543.975	1	2
544.145	1	0
544.315	1	5
544.485	1	11
544.655	1	0
544.825	1	-9
544.995	1	8
545.165	1	3
545.335	1	2
545.505	1	-2
545.675	1	-1
545.845	1	16
546.015	1	5
546.185	1	3
546.355	1	14
546.525	1	6
546.695	1	2
546.865	1	-4
547.035	1	7
547.205	1	2
547.375	1	8
547.545	1	4
547.715	1	3
547.885	1	0
548.055	1	10
548.225	1	9
548.395	1	-1
548.565	1	0
548.735	1	-3
548.905	1	0
549.075	1	8
549.245	1	-2
549.415	1	4
549.585	1	16
549.755	1	6
549.925	1	1
550.095	1	3
550.265	1	0
550.435	1	7
550.605	1	4
550.775	1	5
550.945	1	8
551.115	1	10
551.285	1	12
551.455	1	-2
551.625	1	8
551.795	1	8
551.965	1	-5
552.135	1	-3
552.305	1	1
552.475	1	-5
552.645	1	5
552.815	1	1
552.985	1	8
553.155	1	9
553.325	1	9
553.495	1	5
553.665	1	-2
553.835	1	-2
554.004	1	5
554.174	1	0
554.344	1	7
554.514	1	6
554.684	1	6
554.854	1	6
555.024	1	-4
555.194	1	-1
555.364	1	1
555.534	1	2
555.704	1	2
555.874	1	10
556.044	1	6
556.214	1	-3
556.384	1	-4
556.554	1	16
556.724	1	9
556.894	1	-1
557.064	1	1
557.234	1	-3
557.404	1	8
557.573	1	4
557.743	1	6
557.913	1	6
558.083	1	7
558.253	1	1
558.423	1	1
558.593	1	13
558.763	1	0
558.933	1	8
559.103	1	13
559.273	1	-5
559.443	1	8
559.613	1	8
559.783	1	-3
559.953	1	6
560.122	1	0
560.292	1	6
560.462	1	-1
560.632	1	4
560.802	1	0
560.972	1	-1
561.142	1	7
561.312	1	4
561.482	1	12
561.652	1	20
561.822	1	6
561.992	1	4
562.162	1	0
562.331	1	2
562.501	1	-1
562.671	1	4
562.841	1	-4
563.011	1	19
563.181	1	3
563.351	1	-1
563.521	1	4
563.691	1	-9
563.861	1	8
564.031	1	6
564.201	1	7
564.370	1	-3
564.540	1	6
564.710	1	6
564.880	1	18
565.050	1	6
565.220	1	-3
565.390	1	7
565.560	1	9
565.730	1	-5
565.900	1	4
566.069	1	11
566.239	1	8
566.409	1	8
566.579	1	7
566.749	1	4
566.919	1	7
567.089	1	6
567.259	1	11
567.429	1	1
567.599	1	1
567.768	1	7
567.938	1	8
568.108	1	-2
568.278	1	-2
568.448	1	-5
568.618	1	1
568.788	1	7
568.958	1	5
569.128	1	13
569.297	1	-8
569.467	1	-2
569.637	1	5
569.807	1	-2
569.977	1	11
570.147	1	7
570.317	1	-11
570.487	1	8
570.656	1	4
570.826	1	0
570.996	1	-4
571.166	1	14
571.336	1	-2
571.506	1	4
571.676	1	7
571.846	1	10
572.015	1	5
572.185	1	0
572.355	1	4
572.525	1	-2
572.695	1	3
572.865	1	-5
573.035	1	1
573.205	1	6
573.374	1	-5
573.544	1	1
573.714	1	6
573.884	1	8
574.054	1	4
574.224	1	0
574.394	1	1
574.563	1	-1
574.733	1	5
574.903	1	-1
575.073	1	1
575.243	1	7
575.413	1	5
575.583	1	0
575.752	1	10
575.922	1	-2
576.092	1	11
576.262	1	5
576.432	1	0
576.602	1	8
576.772	1	13
576.941	1	-1
577.111	1	-6
577.281	1	-6
577.451	1	-9
577.621	1	9
577.791	1	9
577.960	1	-10
578.130	1	4
578.300	1	10
578.470	1	13
578.640	1	2
578.810	1	3
578.979	1	11
579.149	1	3
579.319	1	0
579.489	1	3
579.659	1	0
579.829	1	4
579.998	1	5
580.168	1	14
580.338	1	5
580.508	1	-2
580.678	1	7
580.848	1	10
581.017	1	2
581.187	1	-6
581.357	1	-12
581.527	1	5
581.697	1	3
581.867	1	7
582.036	1	3
582.206	1	4
582.376	1	15
582.546	1	-8
582.716	1	-2
582.885	1	0
583.055	1	4
583.225	1	-6
583.395	1	3
583.565	1	-4
583.735	1	11
583.904	1	4
584.074	1	3
584.244	1	8
584.414	1	3
584.584	1	4
584.753	1	-9
584.923	1	9
585.093	1	10
585.263	1	0
585.433	1	-3
585.602	1	-1
585.772	1	1
585.942	1	-3
586.112	1	-8
586.282	1	1
586.451	1	-2
586.621	1	-6
586.791	1	-10
586.961	1	3
587.131	1	5
587.300	1	-2
587.470	1	7
587.640	1	9
587.810	1	6
587.980	1	-5
588.149	1	6
588.319	1	5
588.489	1	-7
588.659	1	-1
588.829	1	1
588.998	1	10
589.168	1	12
589.338	1	2
589.508	1	3
589.677	1	-1
589.847	1	1
590.017	1	22
590.187	1	-6
590.357	1	4
590.526	1	6
590.696	1	12
590.866	1	9
591.036	1	-5
591.205	1	16
591.375	1	-3
591.545	1	-8
591.715	1	7
591.885	1	2
592.054	1	4
592.224	1	2
592.394	1	5
592.564	1	10
592.733	1	16
592.903	1	4
593.073	1	5
593.243	1	1
593.412	1	4
593.582	1	-8
593.752	1	5
593.922	1	3
594.091	1	2
594.261	1	-2
594.431	1	11
594.601	1	10
594.771	1	4
594.940	1	-4
595.110	1	-2
595.280	1	7
595.450	1	0
595.619	1	-3
595.789	1	5
595.959	1	13
596.129	1	2
596.298	1	-1
596.468	1	5
596.638	1	-3
596.808	1	11
596.977	1	7
597.147	1	1
597.317	1	1
597.487	1	10
597.656	1	1
597.826	1	6
597.996	1	4
598.166	1	6
598.335	1	-5
598.505	1	12
598.675	1	-2
598.844	1	-1
599.014	1	-1
599.184	1	2
599.354	1	-8
599.523	1	5
599.693	1	1
599.863	1	12
600.033	1	1
600.202	1	4
600.372	1	15
600.542	1	18
600.712	1	3
600.881	1	-6
601.051	1	13
601.221	1	7
601.390	1	-10
601.560	1	11
601.730	1	10
601.900	1	8
602.069	1	14
602.239	1	-7
602.409	1	-10
602.578	1	-5
602.748	1	6
602.918	1	9
603.088	1	5
603.257	1	11
603.427	1	8
603.597	1	12
603.767	1	5
603.936	1	7
604.106	1	-2
604.276	1	-2
604.445	1	7
604.615	1	-6
604.785	1	3
604.954	1	0
605.124	1	1
605.294	1	8
605.464	1	6
605.633	1	10
605.803	1	3
605.973	1	-5
606.142	1	-1
606.312	1	11
606.482	1	8
606.652	1	7
606.821	1	0
606.991	1	0
607.161	1	3
607.330	1	4
607.500	1	10
607.670	1	-8
607.839	1	9
608.009	1	9
608.179	1	7
608.348	1	3
608.518	1	-3
608.688	1	8
608.858	1	5
609.027	1	1
609.197	1	8
609.367	1	13
609.536	1	-1
609.706	1	-4
609.876	1	7
610.045	1	7
610.215	1	2
610.385	1	2
610.554	1	10
610.724	1	12
610.894	1	1
611.063	1	-1
611.233	1	4
611.403	1	-1
611.572	1	13
611.742	1	10
611.912	1	6
612.081	1	-3
612.251	1	10
612.421	1	1
612.590	1	-6
612.760	1	-5
612.930	1	-1
613.099	1	4
613.269	1	5
613.439	1	5
613.608	1	5
613.778	1	10
613.948	1	1
614.117	1	7
614.287	1	14
614.457	1	4
614.626	1	-2
614.796	1	1
614.966	1	4
615.135	1	6
615.305	1	8
615.475	1	2
615.644	1	2
615.814	1	7
615.984	1	-4
616.153	1	-3
616.323	1	12
616.493	1	10
616.662	1	9
616.832	1	9
617.002	1	-4
617.171	1	5
617.341	1	3
617.511	1	0
617.680	1	-8
617.850	1	6
618.019	1	19
618.189	1	2
618.359	1	5
618.528	1	-2
618.698	1	4
618.868	1	-3
619.037	1	4
619.207	1	0
619.377	1	-10
619.546	1	1
619.716	1	0
619.885	1	9
620.055	1	-7
620.225	1	5
620.394	1	1
620.564	1	5
620.734	1	7
620.903	1	-1
621.073	1	3
621.242	1	5
621.412	1	-2
621.582	1	2
621.751	1	9
621.921	1	9
622.091	1	1
622.260	1	-2
622.430	1	15
622.599	1	1
622.769	1	13
622.939	1	11
623.108	1	6
623.278	1	-1
623.448	1	8
623.617	1	1
623.787	1	2
623.956	1	12
624.126	1	1
624.296	1	-5
624.465	1	3
624.635	1	13
624.804	1	3
624.974	1	10
625.144	1	18
625.313	1	8
625.483	1	-7
625.652	1	-2
625.822	1	4
625.992	1	3
626.161	1	3
626.331	1	7
626.501	1	12
626.670	1	8
626.840	1	2
627.009	1	2
627.179	1	9
627.348	1	6
627.518	1	2
627.688	1	10
627.857	1	14
628.027	1	3
628.196	1	7
628.366	1	18
628.536	1	10
628.705	1	2
628.875	1	6
629.044	1	3
629.214	1	11
629.384	1	9
629.553	1	9
629.723	1	9
629.892	1	8
630.062	1	11
630.232	1	8
630.401	1	19
630.571	1	8
630.740	1	3
630.910	1	7
631.079	1	4
631.249	1	14
631.419	1	7
631.588	1	-2
631.758	1	2
631.927	1	3
632.097	1	13
632.266	1	-3
632.436	1	5
632.606	1	-8
632.775	1	5
632.945	1	7
633.114	1	5
633.284	1	2
633.453	1	2
633.623	1	15
633.793	1	4
633.962	1	1
634.132	1	-3
634.301	1	4
634.471	1	18
634.640	1	-2
634.810	1	7
634.979	1	12
635.149	1	5
635.319	1	5
635.488	1	4
635.658	1	-1
635.827	1	-3
635.997	1	9
636.166	1	9
636.336	1	3
636.505	1	9
636.675	1	-1
636.845	1	10
637.014	1	8
637.184	1	11
637.353	1	6
637.523	1	8
637.692	1	7
637.862	1	7
638.031	1	2
638.201	1	13
638.370	1	3
638.540	1	1
638.710	1	-1
638.879	1	1
639.049	1	4
639.218	1	9
639.388	1	0
639.557	1	-2
639.727	1	0
639.896	1	9
640.066	1	1
640.235	1	10
640.405	1	8
640.574	1	9
640.744	1	-3
640.914	1	11
641.083	1	5
641.253	1	4
641.422	1	5
641.592	1	12
641.761	1	-4
641.931	1	-5
642.100	1	12
642.270	1	7
642.439	1	10
642.609	1	10
642.778	1	4
642.948	1	-3
643.117	1	7
643.287	1	9
643.456	1	-1
643.626	1	18
643.795	1	5
643.965	1	22
644.134	1	-4
644.304	1	9
644.473	1	11
644.643	1	14
644.812	1	5
644.982	1	5
645.151	1	11
645.321	1	-3
645.490	1	8
645.660	1	-4
645.829	1	2
645.999	1	5
646.168	1	11
646.338	1	9
646.507	1	16
646.677	1	13
646.846	1	2
647.016	1	-5
647.185	1	9
647.355	1	-14
647.524	1	15
647.694	1	19
647.863	1	17
648.033	1	5
648.202	1	7
648.372	1	-7
648.541	1	3
648.711	1	-2
648.880	1	-2
649.050	1	1
649.219	1	7
649.389	1	13
649.558	1	11
649.728	1	10
649.897	1	-5
650.067	1	3
650.236	1	15
650.406	1	10
650.575	1	12
650.745	1	3
650.914	1	12
651.084	1	2
651.253	1	3
651.423	1	13
651.592	1	4
651.762	1	2
651.931	1	14
652.101	1	-3
652.270	1	18
652.440	1	16
652.609	1	-2
652.778	1	3
652.948	1	8
653.117	1	13
653.287	1	11
653.456	1	14
653.626	1	7
653.795	1	16
653.965	1	8
654.134	1	12
654.304	1	-8
654.473	1	8
654.643	1	5
654.812	1	10
654.982	1	11
655.151	1	8
655.320	1	9
655.490	1	6
655.659	1	13
655.829	1	-1
655.998	1	2
656.168	1	1
656.337	1	14
656.507	1	11
656.676	1	16
656.846	1	14
657.015	1	8
657.184	1	10
657.354	1	13
657.523	1	8
657.693	1	8
657.862	1	14
658.032	1	10
658.201	1	2
658.371	1	19
658.540	1	9
658.709	1	5
658.879	1	11
659.048	1	8
659.218	1	-5
659.387	1	9
659.557	1	0
659.726	1	10
659.895	1	8
660.065	1	1
660.234	1	-5
660.404	1	17
660.573	1	0
660.743	1	8
660.912	1	4
661.081	1	17
661.251	1	8
661.420	1	9
661.590	1	8
661.759	1	9
661.929	1	9
662.098	1	4
662.267	1	8
662.437	1	9
662.606	1	8
662.776	1	7
662.945	1	15
663.115	1	17
663.284	1	3
663.453	1	9
663.623	1	13
663.792	1	12
663.962	1	2
664.131	1	3
664.300	1	17
664.470	1	8
664.639	1	10
664.809	1	14
664.978	1	14
665.148	1	7
665.317	1	9
665.486	1	8
665.656	1	8
665.825	1	10
665.995	1	-4
666.164	1	9
666.333	1	13
666.503	1	8
666.672	1	1
666.842	1	6
667.011	1	10
667.180	1	5
667.350	1	6
667.519	1	7
667.689	1	8
667.858	1	13
668.027	1	12
668.197	1	5
668.366	1	0
668.536	1	7
668.705	1	13
668.874	1	6
669.044	1	3
669.213	1	9
669.382	1	3
669.552	1	12
669.721	1	17
669.891	1	18
670.060	1	7
670.229	1	17
670.399	1	6
670.568	1	20
670.738	1	12
670.907	1	-5
671.076	1	-2
671.246	1	10
671.415	1	2
671.584	1	14
671.754	1	10
671.923	1	9
672.093	1	9
672.262	1	-4
672.431	1	11
672.601	1	1
672.770	1	-2
672.939	1	7
673.109	1	5
673.278	1	-1
673.448	1	11
673.617	1	8
673.786	1	9
