325.333	1	9
325.504	1	10
325.675	1	16
325.846	1	3
326.017	1	3
326.188	1	9
326.359	1	4
326.531	1	-5
326.702	1	-1
326.873	1	15
327.044	1	5
327.215	1	6
327.386	1	7
327.557	1	6
327.728	1	7
327.899	1	14
328.070	1	21
328.241	1	19
328.412	1	-11
328.583	1	17
328.754	1	3
328.926	1	19
329.097	1	9
329.268	1	19
329.439	1	10
329.610	1	8
329.781	1	4
329.952	1	11
330.123	1	8
330.294	1	-1
330.465	1	12
330.636	1	24
330.807	1	2
330.978	1	7
331.149	1	6
331.320	1	9
331.492	1	12
331.663	1	13
331.834	1	21
332.005	1	11
332.176	1	19
332.347	1	9
332.518	1	-1
332.689	1	9
332.860	1	15
333.031	1	15
333.202	1	2
333.373	1	8
333.544	1	6
333.715	1	11
333.886	1	5
334.057	1	8
334.228	1	10
334.399	1	11
334.570	1	10
334.741	1	11
334.912	1	18
335.084	1	29
335.255	1	6
335.426	1	4
335.597	1	10
335.768	1	10
335.939	1	19
336.110	1	12
336.281	1	15
336.452	1	10
336.623	1	18
336.794	1	10
336.965	1	7
337.136	1	12
337.307	1	22
337.478	1	11
337.649	1	17
337.820	1	4
337.991	1	16
338.162	1	8
338.333	1	17
338.504	1	18
338.675	1	12
338.846	1	15
339.017	1	14
339.188	1	16
339.359	1	0
339.530	1	7
339.701	1	17
339.872	1	23
340.043	1	5
340.214	1	22
340.385	1	24
340.556	1	1
340.727	1	11
340.898	1	29
341.069	1	11
341.240	1	15
341.411	1	12
341.582	1	19
341.753	1	10
341.924	1	10
342.095	1	9
342.266	1	25
342.437	1	23
342.608	1	14
342.779	1	20
342.950	1	21
343.121	1	17
343.292	1	16
343.463	1	25
343.634	1	25
343.805	1	22
343.976	1	17
344.147	1	17
344.318	1	16
344.489	1	10
344.660	1	26
344.831	1	22
345.002	1	15
345.173	1	21
345.344	1	13
345.515	1	17
345.686	1	18
345.857	1	18
346.028	1	18
346.199	1	9
346.370	1	13
346.541	1	21
346.712	1	23
346.883	1	15
347.054	1	10
347.225	1	26
347.396	1	30
347.567	1	18
347.738	1	12
347.909	1	32
348.080	1	20
348.251	1	31
348.422	1	30
348.593	1	26
348.764	1	20
348.935	1	19
349.106	1	10
349.277	1	17
349.448	1	29
349.619	1	26
349.790	1	17
349.961	1	31
350.132	1	15
350.303	1	22
350.474	1	33
350.645	1	24
350.816	1	21
350.987	1	30
351.157	1	17
351.328	1	34
351.499	1	32
351.670	1	19
351.841	1	37
352.012	1	22
352.183	1	23
352.354	1	40
352.525	1	34
352.696	1	26
352.867	1	29
353.038	1	32
353.209	1	28
353.380	1	28
353.551	1	18
353.722	1	26
353.893	1	22
354.064	1	35
354.235	1	29
354.406	1	21
354.576	1	16
354.747	1	23
354.918	1	29
355.089	1	25
355.260	1	29
355.431	1	24
355.602	1	23
355.773	1	28
355.944	1	27
356.115	1	25
356.286	1	23
356.457	1	28
356.628	1	28
356.799	1	22
356.970	1	37
357.141	1	18
357.311	1	25
357.482	1	28
357.653	1	24
357.824	1	40
357.995	1	25
358.166	1	19
358.337	1	39
358.508	1	37
358.679	1	21
358.850	1	33
359.021	1	29
359.192	1	33
359.363	1	38
359.533	1	38
359.704	1	35
359.875	1	31
360.046	1	35
360.217	1	21
360.388	1	29
360.559	1	29
360.730	1	38
360.901	1	27
361.072	1	40
361.243	1	36
361.414	1	27
361.584	1	27
361.755	1	25
361.926	1	22
362.097	1	33
362.268	1	25
362.439	1	22
362.610	1	49
362.781	1	25
362.952	1	24
363.123	1	41
363.293	1	26
363.464	1	39
363.635	1	34
363.806	1	40
363.977	1	31
364.148	1	39
364.319	1	37
364.490	1	37
364.661	1	36
364.832	1	44
365.002	1	41
365.173	1	33
365.344	1	41
365.515	1	30
365.686	1	30
365.857	1	31
366.028	1	41
366.199	1	39
366.370	1	27
366.540	1	32
366.711	1	13
366.882	1	17
367.053	1	29
367.224	1	39
367.395	1	31
367.566	1	32
367.737	1	40
367.908	1	32
368.078	1	37
368.249	1	41
368.420	1	20
368.591	1	28
368.762	1	38
368.933	1	26
369.104	1	29
369.274	1	34
369.445	1	26
369.616	1	42
369.787	1	38
369.958	1	34
370.129	1	20
370.300	1	45
370.471	1	27
370.641	1	25
370.812	1	42
370.983	1	36
371.154	1	23
371.325	1	35
371.496	1	29
371.667	1	43
371.837	1	20
372.008	1	28
372.179	1	23
372.350	1	38
372.521	1	31
372.692	1	32
372.863	1	35
373.033	1	27
373.204	1	28
373.375	1	40
373.546	1	46
373.717	1	44
373.888	1	39
374.059	1	42
374.229	1	43
374.400	1	39
374.571	1	34
374.742	1	41
374.913	1	33
375.084	1	33
375.254	1	37
375.425	1	37
375.596	1	41
375.767	1	38
375.938	1	33
376.109	1	39
376.279	1	31
376.450	1	48
376.621	1	36
376.792	1	34
376.963	1	44
377.134	1	52
377.304	1	44
377.475	1	34
377.646	1	39
377.817	1	30
377.988	1	31
378.159	1	36
378.329	1	48
378.500	1	45
378.671	1	38
378.842	1	32
379.013	1	31
379.184	1	31
379.354	1	41
379.525	1	37
379.696	1	46
379.867	1	45
380.038	1	43
380.209	1	47
380.379	1	41
380.550	1	30
380.721	1	41
380.892	1	46
381.063	1	44
381.233	1	44
381.404	1	40
381.575	1	57
381.746	1	46
381.917	1	45
382.087	1	44
382.258	1	42
382.429	1	49
382.600	1	43
382.771	1	23
382.941	1	38
383.112	1	37
383.283	1	41
383.454	1	46
383.625	1	27
383.795	1	46
383.966	1	45
384.137	1	51
384.308	1	48
384.479	1	48
384.649	1	52
384.820	1	47
384.991	1	37
385.162	1	50
385.333	1	47
385.503	1	41
385.674	1	40
385.845	1	54
386.016	1	44
386.187	1	41
386.357	1	53
386.528	1	47
386.699	1	46
386.870	1	56
387.041	1	52
387.211	1	51
387.382	1	52
387.553	1	55
387.724	1	38
387.894	1	49
388.065	1	40
388.236	1	55
388.407	1	46
388.578	1	33
388.748	1	49
388.919	1	57
389.090	1	58
389.261	1	46
389.431	1	59
389.602	1	62
389.773	1	58
389.944	1	42
390.114	1	43
390.285	1	50
390.456	1	47
390.627	1	56
390.798	1	49
390.968	1	52
391.139	1	53
391.310	1	54
391.481	1	40
391.651	1	47
391.822	1	40
391.993	1	49
392.164	1	31
392.334	1	58
392.505	1	47
392.676	1	50
392.847	1	58
393.017	1	52
393.188	1	51
393.359	1	35
393.530	1	46
393.700	1	50
393.871	1	37
394.042	1	45
394.213	1	49
394.383	1	51
394.554	1	52
394.725	1	55
394.896	1	37
395.066	1	57
395.237	1	47
395.408	1	48
395.579	1	35
395.749	1	59
395.920	1	56
396.091	1	52
396.262	1	45
396.432	1	52
396.603	1	52
396.774	1	69
396.945	1	62
397.115	1	65
397.286	1	52
397.457	1	48
397.627	1	56
397.798	1	57
397.969	1	49
398.140	1	40
398.310	1	50
398.481	1	59
398.652	1	47
398.823	1	42
398.993	1	40
399.164	1	52
399.335	1	66
399.505	1	56
399.676	1	50
399.847	1	58
400.018	1	51
400.188	1	49
400.359	1	52
400.530	1	45
400.700	1	48
400.871	1	51
401.042	1	53
401.213	1	59
401.383	1	50
401.554	1	57
401.725	1	53
401.895	1	45
402.066	1	52
402.237	1	69
402.408	1	55
402.578	1	57
402.749	1	54
402.920	1	61
403.090	1	49
403.261	1	50
403.432	1	53
403.603	1	56
403.773	1	64
403.944	1	67
404.115	1	67
404.285	1	56
404.456	1	51
404.627	1	45
404.797	1	47
404.968	1	49
405.139	1	50
405.310	1	67
405.480	1	55
405.651	1	52
405.822	1	55
405.992	1	45
406.163	1	50
406.334	1	45
406.504	1	56
406.675	1	61
406.846	1	52
407.016	1	57
407.187	1	71
407.358	1	48
407.528	1	50
407.699	1	49
407.870	1	52
408.041	1	61
408.211	1	53
408.382	1	48
408.553	1	55
408.723	1	60
408.894	1	57
409.065	1	55
409.235	1	50
409.406	1	57
409.577	1	58
409.747	1	62
409.918	1	50
410.089	1	55
410.259	1	51
410.430	1	54
410.601	1	56
410.771	1	61
410.942	1	63
411.113	1	55
411.283	1	58
411.454	1	40
411.625	1	55
411.795	1	57
411.966	1	55
412.137	1	51
412.307	1	44
412.478	1	45
412.649	1	55
412.819	1	51
412.990	1	53
413.161	1	56
413.331	1	44
413.502	1	60
413.672	1	55
413.843	1	47
414.014	1	43
414.184	1	59
414.355	1	51
414.526	1	55
414.696	1	68
414.867	1	56
415.038	1	41
415.208	1	53
415.379	1	56
415.550	1	68
415.720	1	44
415.891	1	53
416.062	1	54
416.232	1	54
416.403	1	54
416.573	1	68
416.744	1	49
416.915	1	61
417.085	1	60
417.256	1	54
417.427	1	43
417.597	1	56
417.768	1	48
417.939	1	57
418.109	1	61
418.280	1	52
418.450	1	60
418.621	1	38
418.792	1	51
418.962	1	63
419.133	1	65
419.304	1	53
419.474	1	48
419.645	1	56
419.815	1	50
419.986	1	62
420.157	1	55
420.327	1	60
420.498	1	63
420.669	1	55
420.839	1	51
421.010	1	67
421.180	1	54
421.351	1	41
421.522	1	62
421.692	1	47
421.863	1	45
422.033	1	57
422.204	1	50
422.375	1	44
422.545	1	64
422.716	1	53
422.886	1	56
423.057	1	49
423.228	1	55
423.398	1	48
423.569	1	53
423.740	1	43
423.910	1	39
424.081	1	51
424.251	1	50
424.422	1	52
424.593	1	39
424.763	1	67
424.934	1	45
425.104	1	48
425.275	1	55
425.445	1	54
425.616	1	40
425.787	1	43
425.957	1	57
426.128	1	57
426.298	1	48
426.469	1	40
426.640	1	47
426.810	1	43
426.981	1	60
427.151	1	39
427.322	1	58
427.493	1	46
427.663	1	49
427.834	1	42
428.004	1	52
428.175	1	52
428.345	1	42
428.516	1	39
428.687	1	50
428.857	1	40
429.028	1	49
429.198	1	53
429.369	1	57
429.540	1	48
429.710	1	47
429.881	1	52
430.051	1	49
430.222	1	48
430.392	1	52
430.563	1	60
430.734	1	58
430.904	1	58
431.075	1	48
431.245	1	49
431.416	1	48
431.586	1	48
431.757	1	40
431.927	1	50
432.098	1	60
432.269	1	50
432.439	1	50
432.610	1	49
432.780	1	60
432.951	1	39
433.121	1	60
433.292	1	47
433.462	1	51
433.633	1	52
433.804	1	52
433.974	1	54
434.145	1	62
434.315	1	45
434.486	1	42
434.656	1	56
434.827	1	37
434.997	1	40
435.168	1	56
435.339	1	55
435.509	1	50
435.680	1	51
435.850	1	38
436.021	1	54
436.191	1	41
436.362	1	53
436.532	1	49
436.703	1	49
436.873	1	49
437.044	1	40
437.214	1	47
437.385	1	49
437.556	1	42
437.726	1	54
437.897	1	52
438.067	1	39
438.238	1	48
438.408	1	55
438.579	1	41
438.749	1	54
438.920	1	44
439.090	1	40
439.261	1	46
439.431	1	38
439.602	1	45
439.772	1	44
439.943	1	55
440.113	1	57
440.284	1	51
440.455	1	43
440.625	1	50
440.796	1	59
440.966	1	36
441.137	1	47
441.307	1	35
441.478	1	45
441.648	1	51
441.819	1	45
441.989	1	45
442.160	1	45
442.330	1	45
442.501	1	42
442.671	1	28
442.842	1	26
443.012	1	39
443.183	1	54
443.353	1	38
443.524	1	42
443.694	1	61
443.865	1	44
444.035	1	52
444.206	1	41
444.376	1	41
444.547	1	53
444.717	1	44
444.888	1	41
445.058	1	49
445.229	1	47
445.399	1	43
445.570	1	45
445.740	1	31
445.911	1	45
446.081	1	45
446.252	1	42
446.422	1	37
446.593	1	45
446.763	1	39
446.934	1	44
447.104	1	41
447.275	1	42
447.445	1	47
447.616	1	47
447.786	1	40
447.957	1	45
448.127	1	38
448.298	1	49
448.468	1	36
448.639	1	42
448.809	1	38
448.979	1	34
449.150	1	39
449.320	1	42
449.491	1	51
449.661	1	32
449.832	1	34
450.002	1	40
450.173	1	37
450.343	1	40
450.514	1	38
450.684	1	24
450.855	1	44
451.025	1	39
451.196	1	38
451.366	1	37
451.537	1	41
451.707	1	25
451.878	1	35
452.048	1	36
452.218	1	49
452.389	1	41
452.559	1	34
452.730	1	51
452.900	1	42
453.071	1	27
453.241	1	37
453.412	1	38
453.582	1	33
453.753	1	37
453.923	1	48
454.093	1	39
454.264	1	52
454.434	1	36
454.605	1	38
454.775	1	30
454.946	1	39
455.116	1	52
455.287	1	24
455.457	1	32
455.628	1	28
455.798	1	43
455.968	1	36
456.139	1	31
456.309	1	37
456.480	1	37
456.650	1	29
456.821	1	30
456.991	1	36
457.161	1	40
457.332	1	35
457.502	1	25
457.673	1	49
457.843	1	47
458.014	1	35
458.184	1	28
458.355	1	37
458.525	1	40
458.695	1	30
458.866	1	32
459.036	1	38
459.207	1	28
459.377	1	23
459.548	1	40
459.718	1	28
459.888	1	36
460.059	1	35
460.229	1	43
460.400	1	38
460.570	1	35
460.740	1	32
460.911	1	40
461.081	1	38
461.252	1	28
461.422	1	40
461.593	1	27
461.763	1	44
461.933	1	38
462.104	1	26
462.274	1	36
462.445	1	35
462.615	1	33
462.785	1	29
462.956	1	40
463.126	1	32
463.297	1	40
463.467	1	33
463.638	1	26
463.808	1	26
463.978	1	29
464.149	1	28
464.319	1	35
464.490	1	44
464.660	1	21
464.830	1	27
465.001	1	42
465.171	1	26
465.342	1	52
465.512	1	27
465.682	1	31
465.853	1	38
466.023	1	31
466.194	1	26
466.364	1	41
466.534	1	32
466.705	1	29
466.875	1	33
467.045	1	25
467.216	1	34
467.386	1	29
467.557	1	19
467.727	1	22
467.897	1	27
468.068	1	22
468.238	1	15
468.409	1	38
468.579	1	37
468.749	1	26
468.920	1	24
469.090	1	36
469.260	1	21
469.431	1	29
469.601	1	28
469.772	1	25
469.942	1	26
470.112	1	28
470.283	1	24
470.453	1	31
470.623	1	20
470.794	1	19
470.964	1	28
471.135	1	24
471.305	1	13
471.475	1	33
471.646	1	19
471.816	1	12
471.986	1	24
472.157	1	26
472.327	1	20
472.497	1	28
472.668	1	26
472.838	1	24
473.009	1	22
473.179	1	18
473.349	1	19
473.520	1	31
473.690	1	28
473.860	1	27
474.031	1	24
474.201	1	25
474.371	1	34
474.542	1	27
474.712	1	21
474.882	1	34
475.053	1	32
475.223	1	16
475.394	1	23
475.564	1	17
475.734	1	21
475.905	1	35
476.075	1	18
476.245	1	32
476.416	1	24
476.586	1	30
476.756	1	26
476.927	1	27
477.097	1	26
477.267	1	5
477.438	1	40
477.608	1	26
477.778	1	22
477.949	1	23
478.119	1	25
478.289	1	26
478.460	1	24
478.630	1	27
478.800	1	24
478.971	1	35
479.141	1	22
479.311	1	16
479.482	1	23
479.652	1	18
479.822	1	20
479.993	1	22
480.163	1	26
480.333	1	14
480.504	1	34
480.674	1	19
480.844	1	17
481.015	1	22
481.185	1	22
481.355	1	29
481.525	1	17
481.696	1	29
481.866	1	18
482.036	1	26
482.207	1	20
482.377	1	24
482.547	1	28
482.718	1	19
482.888	1	18
483.058	1	24
483.229	1	6
483.399	1	15
483.569	1	17
483.740	1	24
483.910	1	23
484.080	1	17
484.250	1	23
484.421	1	20
484.591	1	23
484.761	1	34
484.932	1	18
485.102	1	22
485.272	1	20
485.443	1	25
485.613	1	33
485.783	1	15
485.953	1	18
486.124	1	25
486.294	1	25
486.464	1	9
486.635	1	27
486.805	1	22
486.975	1	12
487.146	1	20
487.316	1	25
487.486	1	27
487.656	1	18
487.827	1	12
487.997	1	3
488.167	1	9
488.338	1	28
488.508	1	25
488.678	1	18
488.848	1	23
489.019	1	13
489.189	1	16
489.359	1	17
489.529	1	23
489.700	1	25
489.870	1	26
490.040	1	15
490.211	1	11
490.381	1	29
490.551	1	14
490.721	1	24
490.892	1	17
491.062	1	22
491.232	1	16
491.402	1	26
491.573	1	5
491.743	1	24
491.913	1	7
492.084	1	22
492.254	1	16
492.424	1	17
492.594	1	19
492.765	1	13
492.935	1	17
493.105	1	18
493.275	1	10
493.446	1	25
493.616	1	27
493.786	1	3
493.956	1	16
494.127	1	15
494.297	1	15
494.467	1	18
494.637	1	17
494.808	1	15
494.978	1	11
495.148	1	11
495.318	1	7
495.489	1	16
495.659	1	20
495.829	1	15
495.999	1	7
496.170	1	25
496.340	1	23
496.510	1	18
496.680	1	9
496.851	1	4
497.021	1	15
497.191	1	10
497.361	1	11
497.532	1	11
497.702	1	20
497.872	1	23
498.042	1	17
498.213	1	5
498.383	1	14
498.553	1	13
498.723	1	9
498.894	1	17
499.064	1	7
499.234	1	21
499.404	1	18
499.574	1	23
499.745	1	23
499.915	1	14
500.085	1	21
500.255	1	32
500.426	1	13
500.596	1	18
500.766	1	17
500.936	1	13
501.106	1	10
501.277	1	16
501.447	1	16
501.617	1	16
501.787	1	12
501.958	1	10
502.128	1	10
502.298	1	17
502.468	1	23
502.638	1	9
502.809	1	17
502.979	1	13
503.149	1	6
503.319	1	8
503.489	1	23
503.660	1	7
503.830	1	17
504.000	1	22
504.170	1	17
504.340	1	6
504.511	1	13
504.681	1	8
504.851	1	15
505.021	1	13
505.192	1	6
505.362	1	22
505.532	1	7
505.702	1	13
505.872	1	17
506.043	1	10
506.213	1	6
506.383	1	9
506.553	1	16
506.723	1	13
506.893	1	9
507.064	1	18
507.234	1	17
507.404	1	13
507.574	1	9
507.744	1	3
507.915	1	17
508.085	1	28
508.255	1	19
508.425	1	12
508.595	1	13
508.766	1	20
508.936	1	12
509.106	1	14
509.276	1	27
509.446	1	8
509.616	1	1
509.787	1	2
509.957	1	10
510.127	1	11
510.297	1	15
510.467	1	14
510.638	1	15
510.808	1	-9
510.978	1	1
511.148	1	11
511.318	1	18
511.488	1	2
511.659	1	4
511.829	1	0
511.999	1	15
512.169	1	9
512.339	1	17
512.509	1	4
512.680	1	6
512.850	1	8
513.020	1	13
513.190	1	17
513.360	1	0
513.530	1	13
513.700	1	18
513.871	1	5
514.041	1	4
514.211	1	15
514.381	1	18
514.551	1	8
514.721	1	6
514.892	1	6
515.062	1	8
515.232	1	19
515.402	1	7
515.572	1	5
515.742	1	11
515.912	1	12
516.083	1	5
516.253	1	14
516.423	1	10
516.593	1	9
516.763	1	18
516.933	1	9
517.104	1	11
517.274	1	10
517.444	1	14
517.614	1	3
517.784	1	11
517.954	1	3
518.124	1	11
518.294	1	6
518.465	1	7
518.635	1	0
518.805	1	-4
518.975	1	17
519.145	1	11
519.315	1	9
519.485	1	11
519.656	1	19
519.826	1	9
519.996	1	6
520.166	1	8
520.336	1	9
520.506	1	6
520.676	1	8
520.846	1	23
521.017	1	19
521.187	1	6
521.357	1	14
521.527	1	2
521.697	1	5
521.867	1	1
522.037	1	21
522.207	1	10
522.377	1	11
522.548	1	6
522.718	1	13
522.888	1	21
523.058	1	12
523.228	1	13
523.398	1	15
523.568	1	8
523.738	1	10
523.909	1	9
524.079	1	18
524.249	1	11
524.419	1	3
524.589	1	4
524.759	1	8
524.929	1	18
525.099	1	11
525.269	1	10
525.439	1	8
525.610	1	21
525.780	1	5
525.950	1	16
526.120	1	2
526.290	1	-1
526.460	1	-4
526.630	1	10
526.800	1	13
526.970	1	1
527.140	1	7
527.311	1	3
527.481	1	6
527.651	1	18
527.821	1	2
527.991	1	14
528.161	1	9
528.331	1	2
528.501	1	13
528.671	1	1
528.841	1	0
529.011	1	4
529.181	1	17
529.352	1	17
529.522	1	11
529.692	1	11
529.862	1	-1
530.032	1	16
530.202	1	11
530.372	1	5
530.542	1	10
530.712	1	4
530.882	1	5
531.052	1	16
531.222	1	9
531.392	1	14
531.563	1	11
531.733	1	7
531.903	1	10
532.073	1	20
532.243	1	7
532.413	1	8
532.583	1	12
532.753	1	1
532.923	1	1
533.093	1	6
533.263	1	7
533.433	1	9
533.603	1	6
533.773	1	3
533.943	1	3
534.113	1	5
534.284	1	6
534.454	1	8
534.624	1	15
534.794	1	0
534.964	1	13
535.134	1	1
535.304	1	11
535.474	1	18
535.644	1	-3
535.814	1	3
535.984	1	-3
536.154	1	2
536.324	1	6
536.494	1	8
536.664	1	13
536.834	1	17
537.004	1	6
537.174	1	15
537.344	1	9
537.514	1	8
537.685	1	6
537.855	1	9
538.025	1	11
538.195	1	6
538.365	1	14
538.535	1	3
538.705	1	3
538.875	1	5
539.045	1	12
539.215	1	4
539.385	1	13
539.555	1	13
539.725	1	2
539.895	1	0
540.065	1	24
540.235	1	11
540.405	1	0
540.575	1	1
540.745	1	3
540.915	1	20
541.085	1	0
541.255	1	1
541.425	1	1
541.595	1	3
541.765	1	8
541.935	1	3
542.105	1	-3
542.275	1	10
542.445	1	5
542.615	1	10
542.785	1	15
542.955	1	0
543.125	1	1
543.295	1	14
543.465	1	13
543.635	1	10
543.805	1	11
543.975	1	2
544.145	1	13
544.315	1	6
544.485	1	6
544.655	1	10
544.825	1	0
544.995	1	6
545.165	1	2
545.335	1	12
545.505	1	0
545.675	1	11
545.845	1	17
546.015	1	9
546.185	1	21
546.355	1	3
546.525	1	5
546.695	1	9
546.865	1	-2
547.035	1	9
547.205	1	-6
547.375	1	10
547.545	1	12
547.715	1	4
547.885	1	10
548.055	1	6
548.225	1	7
548.395	1	-8
548.565	1	10
548.735	1	10
548.905	1	2
549.075	1	6
549.245	1	4
549.415	1	-2
549.585	1	4
549.755	1	-2
549.925	1	0
550.095	1	6
550.265	1	-1
550.435	1	3
550.605	1	2
550.775	1	10
550.945	1	12
551.115	1	14
551.285	1	1
551.455	1	8
551.625	1	10
551.795	1	16
551.965	1	-2
552.135	1	-2
552.305	1	-3
552.475	1	-5
552.645	1	-6
552.815	1	6
552.985	1	10
553.155	1	6
553.325	1	12
553.495	1	-1
553.665	1	0
553.835	1	-1
554.004	1	9
554.174	1	4
554.344	1	15
554.514	1	4
554.684	1	10
554.854	1	11
555.024	1	5
555.194	1	-5
555.364	1	11
555.534	1	5
555.704	1	1
555.874	1	8
556.044	1	5
556.214	1	-6
556.384	1	3
556.554	1	11
556.724	1	5
556.894	1	9
557.064	1	3
557.234	1	0
557.404	1	19
557.573	1	8
557.743	1	0
557.913	1	-3
558.083	1	3
558.253	1	8
558.423	1	-3
558.593	1	17
558.763	1	8
558.933	1	3
559.103	1	8
559.273	1	2
559.443	1	1
559.613	1	10
559.783	1	0
559.953	1	10
560.122	1	12
560.292	1	4
560.462	1	-2
560.632	1	12
560.802	1	2
560.972	1	8
561.142	1	8
561.312	1	-3
561.482	1	8
561.652	1	15
561.822	1	7
561.992	1	-2
562.162	1	8
562.331	1	-3
562.501	1	1
562.671	1	3
562.841	1	-3
563.011	1	5
563.181	1	4
563.351	1	-1
563.521	1	2
563.691	1	-7
563.861	1	2
564.031	1	14
564.201	1	18
564.370	1	3
564.540	1	0
564.710	1	-3
564.880	1	7
565.050	1	12
565.220	1	-6
565.390	1	2
565.560	1	7
565.730	1	-2
565.900	1	9
566.069	1	7
566.239	1	11
566.409	1	6
566.579	1	18
566.749	1	1
566.919	1	5
567.089	1	-4
567.259	1	18
567.429	1	5
567.599	1	3
567.768	1	4
567.938	1	12
568.108	1	0
568.278	1	1
568.448	1	-2
568.618	1	3
568.788	1	5
568.958	1	2
569.128	1	16
569.297	1	4
569.467	1	4
569.637	1	7
569.807	1	0
569.977	1	9
570.147	1	15
570.317	1	-3
570.487	1	6
570.656	1	8
570.826	1	-1
570.996	1	-8
571.166	1	19
571.336	1	5
571.506	1	1
571.676	1	6
571.846	1	19
572.015	1	6
572.185	1	-1
572.355	1	6
572.525	1	4
572.695	1	0
572.865	1	5
573.035	1	5
573.205	1	1
573.374	1	-6
573.544	1	4
573.714	1	19
573.884	1	6
574.054	1	9
574.224	1	6
574.394	1	7
574.563	1	8
574.733	1	-7
574.903	1	3
575.073	1	-1
575.243	1	-1
575.413	1	8
575.583	1	-6
575.752	1	7
575.922	1	4
576.092	1	10
576.262	1	1
576.432	1	8
576.602	1	-1
576.772	1	30
576.941	1	11
577.111	1	2
577.281	1	-6
577.451	1	2
577.621	1	8
577.791	1	5
577.960	1	0
578.130	1	10
578.300	1	9
578.470	1	9
578.640	1	-2
578.810	1	6
578.979	1	-5
579.149	1	-4
579.319	1	-5
579.489	1	0
579.659	1	11
579.829	1	0
579.998	1	2
580.168	1	8
580.338	1	7
580.508	1	6
580.678	1	9
580.848	1	2
581.017	1	1
581.187	1	7
581.357	1	2
581.527	1	1
581.697	1	2
581.867	1	3
582.036	1	2
582.206	1	14
582.376	1	17
582.546	1	-1
582.716	1	-4
582.885	1	2
583.055	1	2
583.225	1	-5
583.395	1	3
583.565	1	4
583.735	1	1
583.904	1	9
584.074	1	1
584.244	1	0
584.414	1	3
584.584	1	7
584.753	1	-9
584.923	1	5
585.093	1	4
585.263	1	3
585.433	1	1
585.602	1	-6
585.772	1	8
585.942	1	-3
586.112	1	2
586.282	1	-2
586.451	1	-1
586.621	1	-14
586.791	1	-2
586.961	1	-2
587.131	1	8
587.300	1	8
587.470	1	15
587.640	1	9
587.810	1	-1
587.980	1	2
588.149	1	2
588.319	1	0
588.489	1	2
588.659	1	4
588.829	1	9
588.998	1	12
589.168	1	6
589.338	1	-2
589.508	1	11
589.677	1	-4
589.847	1	2
590.017	1	18
590.187	1	-7
590.357	1	18
590.526	1	12
590.696	1	7
590.866	1	7
591.036	1	-1
591.205	1	4
591.375	1	-7
591.545	1	-1
591.715	1	10
591.885	1	0
592.054	1	12
592.224	1	-6
592.394	1	11
592.564	1	-2
592.733	1	4
592.903	1	7
593.073	1	7
593.243	1	5
593.412	1	10
593.582	1	2
593.752	1	-2
593.922	1	-1
594.091	1	10
594.261	1	7
594.431	1	1
594.601	1	2
594.771	1	2
594.940	1	-1
595.110	1	2
595.280	1	15
595.450	1	-4
595.619	1	-9
595.789	1	5
595.959	1	19
596.129	1	8
596.298	1	4
596.468	1	0
596.638	1	11
596.808	1	10
596.977	1	0
597.147	1	6
597.317	1	-1
597.487	1	6
597.656	1	3
597.826	1	6
597.996	1	6
598.166	1	-1
598.335	1	-9
598.505	1	1
598.675	1	-1
598.844	1	7
599.014	1	1
599.184	1	6
599.354	1	-11
599.523	1	7
599.693	1	-2
599.863	1	14
600.033	1	-3
600.202	1	11
600.372	1	1
600.542	1	16
600.712	1	-5
600.881	1	-1
601.051	1	3
601.221	1	10
601.390	1	-2
601.560	1	6
601.730	1	9
601.900	1	7
602.069	1	6
602.239	1	-1
602.409	1	1
602.578	1	7
602.748	1	3
602.918	1	13
603.088	1	9
603.257	1	3
603.427	1	0
603.597	1	8
603.767	1	7
603.936	1	8
604.106	1	3
604.276	1	-2
604.445	1	5
604.615	1	6
604.785	1	2
604.954	1	2
605.124	1	1
605.294	1	-1
605.464	1	5
605.633	1	3
605.803	1	3
605.973	1	-7
606.142	1	7
606.312	1	14
606.482	1	-1
606.652	1	10
606.821	1	-6
606.991	1	5
607.161	1	2
607.330	1	6
607.500	1	9
607.670	1	2
607.839	1	11
608.009	1	6
608.179	1	5
608.348	1	11
608.518	1	-1
608.688	1	11
608.858	1	-1
609.027	1	-4
609.197	1	3
609.367	1	12
609.536	1	9
609.706	1	0
609.876	1	-4
610.045	1	10
610.215	1	5
610.385	1	3
610.554	1	-3
610.724	1	8
610.894	1	1
611.063	1	-2
611.233	1	1
611.403	1	-1
611.572	1	3
611.742	1	4
611.912	1	1
612.081	1	0
612.251	1	11
612.421	1	2
612.590	1	-2
612.760	1	2
612.930	1	5
613.099	1	7
613.269	1	17
613.439	1	-6
613.608	1	0
613.778	1	6
613.948	1	-2
614.117	1	3
614.287	1	18
614.457	1	8
614.626	1	8
614.796	1	4
614.966	1	9
615.135	1	1
615.305	1	9
615.475	1	5
615.644	1	4
615.814	1	9
615.984	1	-3
616.153	1	6
616.323	1	7
616.493	1	1
616.662	1	14
616.832	1	5
617.002	1	9
617.171	1	-9
617.341	1	0
617.511	1	-7
617.680	1	3
617.850	1	6
618.019	1	16
618.189	1	20
618.359	1	13
618.528	1	1
618.698	1	6
618.868	1	-6
619.037	1	2
619.207	1	-4
619.377	1	0
619.546	1	-2
619.716	1	4
619.885	1	-1
620.055	1	-4
620.225	1	8
620.394	1	7
620.564	1	8
620.734	1	4
620.903	1	-3
621.073	1	9
621.242	1	10
621.412	1	8
621.582	1	5
621.751	1	6
621.921	1	10
622.091	1	4
622.260	1	-1
622.430	1	11
622.599	1	-6
622.769	1	9
622.939	1	12
623.108	1	1
623.278	1	-5
623.448	1	3
623.617	1	11
623.787	1	8
623.956	1	8
624.126	1	-2
624.296	1	2
624.465	1	9
624.635	1	22
624.804	1	10
624.974	1	5
625.144	1	15
625.313	1	-4
625.483	1	-3
625.652	1	4
625.822	1	0
625.992	1	-2
626.161	1	13
626.331	1	7
626.501	1	9
626.670	1	7
626.840	1	13
627.009	1	2
627.179	1	7
627.348	1	10
627.518	1	20
627.688	1	14
627.857	1	11
628.027	1	0
628.196	1	15
628.366	1	9
628.536	1	10
628.705	1	1
628.875	1	1
629.044	1	-2
629.214	1	7
629.384	1	13
629.553	1	10
629.723	1	10
629.892	1	15
630.062	1	5
630.232	1	-1
630.401	1	18
630.571	1	5
630.740	1	7
630.910	1	9
631.079	1	7
631.249	1	10
631.419	1	13
631.588	1	-9
631.758	1	7
631.927	1	1
632.097	1	9
632.266	1	9
632.436	1	5
632.606	1	10
632.775	1	3
632.945	1	9
633.114	1	10
633.284	1	18
633.453	1	1
633.623	1	3
633.793	1	8
633.962	1	8
634.132	1	8
634.301	1	10
634.471	1	14
634.640	1	10
634.810	1	12
634.979	1	9
635.149	1	7
635.319	1	0
635.488	1	3
635.658	1	1
635.827	1	-3
635.997	1	7
636.166	1	13
636.336	1	6
636.505	1	12
636.675	1	3
636.845	1	11
637.014	1	8
637.184	1	15
637.353	1	8
637.523	1	9
637.692	1	-2
637.862	1	9
638.031	1	20
638.201	1	13
638.370	1	4
638.540	1	5
638.710	1	2
638.879	1	-1
639.049	1	9
639.218	1	7
639.388	1	4
639.557	1	5
639.727	1	0
639.896	1	4
640.066	1	7
640.235	1	19
640.405	1	16
640.574	1	1
640.744	1	2
640.914	1	3
641.083	1	3
641.253	1	7
641.422	1	5
641.592	1	20
641.761	1	6
641.931	1	-1
642.100	1	20
642.270	1	5
642.439	1	19
642.609	1	15
642.778	1	10
642.948	1	2
643.117	1	12
643.287	1	10
643.456	1	2
643.626	1	14
643.795	1	0
643.965	1	6
644.134	1	3
644.304	1	14
644.473	1	11
644.643	1	10
644.812	1	13
644.982	1	10
645.151	1	5
645.321	1	-5
645.490	1	12
645.660	1	-1
645.829	1	-5
645.999	1	5
646.168	1	15
646.338	1	20
646.507	1	5
646.677	1	10
646.846	1	8
647.016	1	1
647.185	1	15
647.355	1	-7
647.524	1	12
647.694	1	11
647.863	1	14
648.033	1	2
648.202	1	9
648.372	1	-3
648.541	1	-2
648.711	1	9
648.880	1	-5
649.050	1	8
649.219	1	9
649.389	1	19
649.558	1	3
649.728	1	20
649.897	1	1
650.067	1	9
650.236	1	9
650.406	1	7
650.575	1	12
650.745	1	14
650.914	1	7
651.084	1	9
651.253	1	5
651.423	1	6
651.592	1	6
651.762	1	-5
651.931	1	19
652.101	1	7
652.270	1	11
652.440	1	12
652.609	1	0
652.778	1	-7
652.948	1	10
653.117	1	3
653.287	1	10
653.456	1	12
653.626	1	11
653.795	1	6
653.965	1	1
654.134	1	15
654.304	1	-4
654.473	1	9
654.643	1	14
654.812	1	6
654.982	1	7
655.151	1	6
655.320	1	2
655.490	1	-4
655.659	1	8
655.829	1	14
655.998	1	2
656.168	1	8
656.337	1	5
656.507	1	9
656.676	1	7
656.846	1	15
657.015	1	9
657.184	1	8
657.354	1	6
657.523	1	7
657.693	1	17
657.862	1	21
658.032	1	10
658.201	1	12
658.371	1	23
658.540	1	11
658.709	1	1
658.879	1	9
659.048	1	3
659.218	1	3
659.387	1	6
659.557	1	13
659.726	1	14
659.895	1	10
660.065	1	3
660.234	1	2
660.404	1	11
660.573	1	3
660.743	1	16
660.912	1	10
661.081	1	19
661.251	1	10
661.420	1	14
661.590	1	17
661.759	1	6
661.929	1	18
662.098	1	17
662.267	1	5
662.437	1	9
662.606	1	7
662.776	1	15
662.945	1	14
663.115	1	7
663.284	1	-3
663.453	1	9
663.623	1	11
663.792	1	14
663.962	1	16
664.131	1	20
664.300	1	9
664.470	1	5
664.639	1	11
664.809	1	11
664.978	1	14
665.148	1	9
665.317	1	5
665.486	1	22
665.656	1	8
665.825	1	13
665.995	1	9
666.164	1	7
666.333	1	12
666.503	1	1
666.672	1	5
666.842	1	4
667.011	1	12
667.180	1	19
667.350	1	9
667.519	1	12
667.689	1	8
667.858	1	19
668.027	1	17
668.197	1	1
668.366	1	2
668.536	1	13
668.705	1	7
668.874	1	16
669.044	1	3
669.213	1	18
669.382	1	0
669.552	1	22
669.721	1	2
669.891	1	18
670.060	1	13
670.229	1	15
670.399	1	11
670.568	1	19
670.738	1	12
670.907	1	-5
671.076	1	-4
671.246	1	4
671.415	1	10
671.584	1	8
671.754	1	7
671.923	1	4
672.093	1	12
672.262	1	7
672.431	1	5
672.601	1	1
672.770	1	0
672.939	1	14
673.109	1	0
673.278	1	20
673.448	1	8
673.617	1	14
673.786	1	7
