325.333	1	11
325.504	1	7
325.675	1	0
325.846	1	11
326.017	1	12
326.188	1	9
326.359	1	-2
326.531	1	-6
326.702	1	4
326.873	1	13
327.044	1	6
327.215	1	11
327.386	1	15
327.557	1	-1
327.728	1	7
327.899	1	6
328.070	1	13
328.241	1	13
328.412	1	-13
328.583	1	11
328.754	1	10
328.926	1	23
329.097	1	-1
329.268	1	13
329.439	1	12
329.610	1	16
329.781	1	2
329.952	1	16
330.123	1	11
330.294	1	9
330.465	1	5
330.636	1	13
330.807	1	-2
330.978	1	10
331.149	1	15
331.320	1	14
331.492	1	14
331.663	1	1
331.834	1	15
332.005	1	22
332.176	1	15
332.347	1	8
332.518	1	7
332.689	1	12
332.860	1	14
333.031	1	24
333.202	1	9
333.373	1	17
333.544	1	8
333.715	1	12
333.886	1	5
334.057	1	8
334.228	1	7
334.399	1	23
334.570	1	18
334.741	1	13
334.912	1	19
335.084	1	31
335.255	1	17
335.426	1	3
335.597	1	11
335.768	1	3
335.939	1	15
336.110	1	23
336.281	1	9
336.452	1	10
336.623	1	16
336.794	1	16
336.965	1	11
337.136	1	17
337.307	1	8
337.478	1	17
337.649	1	17
337.820	1	12
337.991	1	9
338.162	1	24
338.333	1	11
338.504	1	20
338.675	1	16
338.846	1	9
339.017	1	14
339.188	1	13
339.359	1	4
339.530	1	8
339.701	1	23
339.872	1	33
340.043	1	12
340.214	1	9
340.385	1	31
340.556	1	13
340.727	1	16
340.898	1	21
341.069	1	13
341.240	1	15
341.411	1	18
341.582	1	21
341.753	1	4
341.924	1	20
342.095	1	4
342.266	1	29
342.437	1	18
342.608	1	21
342.779	1	18
342.950	1	25
343.121	1	18
343.292	1	14
343.463	1	19
343.634	1	15
343.805	1	20
343.976	1	19
344.147	1	9
344.318	1	17
344.489	1	16
344.660	1	18
344.831	1	22
345.002	1	11
345.173	1	20
345.344	1	21
345.515	1	19
345.686	1	21
345.857	1	22
346.028	1	28
346.199	1	12
346.370	1	14
346.541	1	26
346.712	1	12
346.883	1	13
347.054	1	23
347.225	1	29
347.396	1	19
347.567	1	25
347.738	1	14
347.909	1	31
348.080	1	16
348.251	1	28
348.422	1	22
348.593	1	17
348.764	1	20
348.935	1	20
349.106	1	22
349.277	1	18
349.448	1	22
349.619	1	26
349.790	1	19
349.961	1	28
350.132	1	26
350.303	1	15
350.474	1	26
350.645	1	25
350.816	1	28
350.987	1	24
351.157	1	17
351.328	1	20
351.499	1	28
351.670	1	12
351.841	1	32
352.012	1	27
352.183	1	31
352.354	1	37
352.525	1	28
352.696	1	34
352.867	1	23
353.038	1	28
353.209	1	32
353.380	1	18
353.551	1	29
353.722	1	25
353.893	1	23
354.064	1	40
354.235	1	23
354.406	1	26
354.576	1	21
354.747	1	26
354.918	1	24
355.089	1	27
355.260	1	25
355.431	1	35
355.602	1	15
355.773	1	27
355.944	1	34
356.115	1	30
356.286	1	18
356.457	1	35
356.628	1	38
356.799	1	23
356.970	1	43
357.141	1	19
357.311	1	20
357.482	1	41
357.653	1	27
357.824	1	38
357.995	1	36
358.166	1	15
358.337	1	40
358.508	1	35
358.679	1	29
358.850	1	36
359.021	1	27
359.192	1	24
359.363	1	41
359.533	1	43
359.704	1	20
359.875	1	38
360.046	1	35
360.217	1	23
360.388	1	39
360.559	1	23
360.730	1	40
360.901	1	36
361.072	1	37
361.243	1	38
361.414	1	38
361.584	1	34
361.755	1	41
361.926	1	31
362.097	1	35
362.268	1	34
362.439	1	26
362.610	1	39
362.781	1	31
362.952	1	32
363.123	1	35
363.293	1	39
363.464	1	39
363.635	1	37
363.806	1	20
363.977	1	32
364.148	1	35
364.319	1	32
364.490	1	40
364.661	1	32
364.832	1	33
365.002	1	44
365.173	1	42
365.344	1	32
365.515	1	35
365.686	1	34
365.857	1	32
366.028	1	43
366.199	1	39
366.370	1	46
366.540	1	31
366.711	1	31
366.882	1	29
367.053	1	24
367.224	1	48
367.395	1	28
367.566	1	49
367.737	1	48
367.908	1	37
368.078	1	46
368.249	1	45
368.420	1	40
368.591	1	37
368.762	1	40
368.933	1	35
369.104	1	30
369.274	1	42
369.445	1	27
369.616	1	42
369.787	1	35
369.958	1	40
370.129	1	29
370.300	1	46
370.471	1	28
370.641	1	37
370.812	1	36
370.983	1	42
371.154	1	32
371.325	1	43
371.496	1	37
371.667	1	49
371.837	1	29
372.008	1	36
372.179	1	28
372.350	1	46
372.521	1	35
372.692	1	34
372.863	1	44
373.033	1	32
373.204	1	36
373.375	1	43
373.546	1	37
373.717	1	43
373.888	1	43
374.059	1	49
374.229	1	45
374.400	1	40
374.571	1	33
374.742	1	41
374.913	1	42
375.084	1	36
375.254	1	44
375.425	1	41
375.596	1	52
375.767	1	41
375.938	1	37
376.109	1	38
376.279	1	22
376.450	1	44
376.621	1	47
376.792	1	34
376.963	1	38
377.134	1	44
377.304	1	50
377.475	1	46
377.646	1	43
377.817	1	35
377.988	1	39
378.159	1	44
378.329	1	53
378.500	1	43
378.671	1	35
378.842	1	40
379.013	1	34
379.184	1	40
379.354	1	51
379.525	1	37
379.696	1	48
379.867	1	49
380.038	1	45
380.209	1	40
380.379	1	37
380.550	1	28
380.721	1	53
380.892	1	38
381.063	1	49
381.233	1	51
381.404	1	35
381.575	1	52
381.746	1	51
381.917	1	40
382.087	1	37
382.258	1	38
382.429	1	57
382.600	1	50
382.771	1	44
382.941	1	38
383.112	1	50
383.283	1	56
383.454	1	48
383.625	1	43
383.795	1	39
383.966	1	47
384.137	1	61
384.308	1	56
384.479	1	57
384.649	1	49
384.820	1	39
384.991	1	48
385.162	1	45
385.333	1	50
385.503	1	44
385.674	1	40
385.845	1	46
386.016	1	50
386.187	1	48
386.357	1	53
386.528	1	55
386.699	1	54
386.870	1	51
387.041	1	51
387.211	1	49
387.382	1	56
387.553	1	57
387.724	1	50
387.894	1	61
388.065	1	46
388.236	1	55
388.407	1	52
388.578	1	33
388.748	1	43
388.919	1	59
389.090	1	40
389.261	1	46
389.431	1	58
389.602	1	55
389.773	1	59
389.944	1	44
390.114	1	55
390.285	1	59
390.456	1	48
390.627	1	55
390.798	1	50
390.968	1	56
391.139	1	52
391.310	1	40
391.481	1	61
391.651	1	51
391.822	1	52
391.993	1	44
392.164	1	39
392.334	1	56
392.505	1	46
392.676	1	52
392.847	1	66
393.017	1	59
393.188	1	66
393.359	1	46
393.530	1	50
393.700	1	49
393.871	1	47
394.042	1	43
394.213	1	52
394.383	1	46
394.554	1	54
394.725	1	62
394.896	1	56
395.066	1	60
395.237	1	56
395.408	1	52
395.579	1	41
395.749	1	57
395.920	1	48
396.091	1	50
396.262	1	46
396.432	1	48
396.603	1	58
396.774	1	58
396.945	1	54
397.115	1	57
397.286	1	60
397.457	1	57
397.627	1	63
397.798	1	63
397.969	1	54
398.140	1	59
398.310	1	58
398.481	1	47
398.652	1	53
398.823	1	46
398.993	1	37
399.164	1	55
399.335	1	59
399.505	1	55
399.676	1	58
399.847	1	56
400.018	1	55
400.188	1	51
400.359	1	54
400.530	1	51
400.700	1	50
400.871	1	57
401.042	1	55
401.213	1	57
401.383	1	51
401.554	1	69
401.725	1	56
401.895	1	51
402.066	1	59
402.237	1	59
402.408	1	67
402.578	1	47
402.749	1	55
402.920	1	59
403.090	1	53
403.261	1	52
403.432	1	60
403.603	1	58
403.773	1	59
403.944	1	54
404.115	1	62
404.285	1	64
404.456	1	54
404.627	1	55
404.797	1	50
404.968	1	45
405.139	1	52
405.310	1	69
405.480	1	51
405.651	1	49
405.822	1	54
405.992	1	47
406.163	1	53
406.334	1	54
406.504	1	58
406.675	1	61
406.846	1	54
407.016	1	71
407.187	1	65
407.358	1	48
407.528	1	45
407.699	1	49
407.870	1	54
408.041	1	60
408.211	1	62
408.382	1	55
408.553	1	41
408.723	1	62
408.894	1	61
409.065	1	62
409.235	1	57
409.406	1	60
409.577	1	63
409.747	1	69
409.918	1	54
410.089	1	63
410.259	1	59
410.430	1	62
410.601	1	62
410.771	1	50
410.942	1	66
411.113	1	61
411.283	1	51
411.454	1	61
411.625	1	62
411.795	1	56
411.966	1	57
412.137	1	60
412.307	1	49
412.478	1	53
412.649	1	54
412.819	1	54
412.990	1	50
413.161	1	62
413.331	1	55
413.502	1	73
413.672	1	54
413.843	1	58
414.014	1	65
414.184	1	63
414.355	1	65
414.526	1	66
414.696	1	58
414.867	1	50
415.038	1	42
415.208	1	58
415.379	1	59
415.550	1	64
415.720	1	48
415.891	1	56
416.062	1	50
416.232	1	74
416.403	1	55
416.573	1	60
416.744	1	50
416.915	1	52
417.085	1	54
417.256	1	57
417.427	1	55
417.597	1	59
417.768	1	55
417.939	1	62
418.109	1	61
418.280	1	54
418.450	1	54
418.621	1	39
418.792	1	55
418.962	1	62
419.133	1	68
419.304	1	55
419.474	1	32
419.645	1	56
419.815	1	53
419.986	1	59
420.157	1	61
420.327	1	67
420.498	1	63
420.669	1	53
420.839	1	70
421.010	1	65
421.180	1	60
421.351	1	56
421.522	1	56
421.692	1	65
421.863	1	59
422.033	1	57
422.204	1	54
422.375	1	46
422.545	1	64
422.716	1	56
422.886	1	50
423.057	1	57
423.228	1	51
423.398	1	56
423.569	1	65
423.740	1	48
423.910	1	49
424.081	1	44
424.251	1	45
424.422	1	54
424.593	1	52
424.763	1	63
424.934	1	47
425.104	1	59
425.275	1	54
425.445	1	57
425.616	1	46
425.787	1	53
425.957	1	54
426.128	1	56
426.298	1	56
426.469	1	45
426.640	1	63
426.810	1	44
426.981	1	43
427.151	1	45
427.322	1	56
427.493	1	63
427.663	1	55
427.834	1	43
428.004	1	62
428.175	1	60
428.345	1	54
428.516	1	45
428.687	1	53
428.857	1	51
429.028	1	49
429.198	1	57
429.369	1	60
429.540	1	54
429.710	1	43
429.881	1	62
430.051	1	51
430.222	1	54
430.392	1	54
430.563	1	51
430.734	1	59
430.904	1	61
431.075	1	60
431.245	1	48
431.416	1	55
431.586	1	47
431.757	1	54
431.927	1	51
432.098	1	50
432.269	1	43
432.439	1	42
432.610	1	46
432.780	1	58
432.951	1	51
433.121	1	54
433.292	1	60
433.462	1	67
433.633	1	64
433.804	1	51
433.974	1	50
434.145	1	62
434.315	1	49
434.486	1	44
434.656	1	57
434.827	1	48
434.997	1	43
435.168	1	46
435.339	1	58
435.509	1	58
435.680	1	46
435.850	1	53
436.021	1	54
436.191	1	58
436.362	1	48
436.532	1	46
436.703	1	45
436.873	1	55
437.044	1	33
437.214	1	45
437.385	1	43
437.556	1	44
437.726	1	67
437.897	1	69
438.067	1	47
438.238	1	49
438.408	1	52
438.579	1	44
438.749	1	47
438.920	1	46
439.090	1	47
439.261	1	46
439.431	1	48
439.602	1	42
439.772	1	47
439.943	1	53
440.113	1	49
440.284	1	44
440.455	1	51
440.625	1	42
440.796	1	39
440.966	1	37
441.137	1	48
441.307	1	45
441.478	1	62
441.648	1	41
441.819	1	60
441.989	1	47
442.160	1	61
442.330	1	47
442.501	1	41
442.671	1	34
442.842	1	21
443.012	1	45
443.183	1	50
443.353	1	50
443.524	1	50
443.694	1	46
443.865	1	39
444.035	1	51
444.206	1	47
444.376	1	47
444.547	1	61
444.717	1	54
444.888	1	43
445.058	1	54
445.229	1	49
445.399	1	41
445.570	1	40
445.740	1	38
445.911	1	41
446.081	1	37
446.252	1	51
446.422	1	43
446.593	1	38
446.763	1	44
446.934	1	44
447.104	1	47
447.275	1	43
447.445	1	48
447.616	1	50
447.786	1	44
447.957	1	47
448.127	1	44
448.298	1	44
448.468	1	47
448.639	1	38
448.809	1	48
448.979	1	45
449.150	1	49
449.320	1	41
449.491	1	50
449.661	1	34
449.832	1	46
450.002	1	52
450.173	1	49
450.343	1	43
450.514	1	45
450.684	1	41
450.855	1	30
451.025	1	37
451.196	1	41
451.366	1	46
451.537	1	36
451.707	1	28
451.878	1	37
452.048	1	43
452.218	1	38
452.389	1	52
452.559	1	45
452.730	1	54
452.900	1	50
453.071	1	35
453.241	1	40
453.412	1	47
453.582	1	39
453.753	1	48
453.923	1	42
454.093	1	47
454.264	1	46
454.434	1	43
454.605	1	36
454.775	1	40
454.946	1	42
455.116	1	39
455.287	1	34
455.457	1	25
455.628	1	34
455.798	1	37
455.968	1	43
456.139	1	35
456.309	1	42
456.480	1	24
456.650	1	34
456.821	1	27
456.991	1	25
457.161	1	39
457.332	1	41
457.502	1	26
457.673	1	41
457.843	1	36
458.014	1	37
458.184	1	36
458.355	1	37
458.525	1	35
458.695	1	35
458.866	1	38
459.036	1	38
459.207	1	28
459.377	1	32
459.548	1	41
459.718	1	28
459.888	1	37
460.059	1	43
460.229	1	33
460.400	1	43
460.570	1	35
460.740	1	43
460.911	1	36
461.081	1	41
461.252	1	30
461.422	1	38
461.593	1	27
461.763	1	39
461.933	1	42
462.104	1	14
462.274	1	39
462.445	1	30
462.615	1	29
462.785	1	40
462.956	1	32
463.126	1	43
463.297	1	28
463.467	1	39
463.638	1	35
463.808	1	29
463.978	1	34
464.149	1	38
464.319	1	36
464.490	1	54
464.660	1	27
464.830	1	37
465.001	1	37
465.171	1	37
465.342	1	41
465.512	1	28
465.682	1	25
465.853	1	36
466.023	1	33
466.194	1	27
466.364	1	41
466.534	1	28
466.705	1	23
466.875	1	30
467.045	1	25
467.216	1	43
467.386	1	26
467.557	1	20
467.727	1	25
467.897	1	22
468.068	1	27
468.238	1	34
468.409	1	27
468.579	1	35
468.749	1	24
468.920	1	7
469.090	1	34
469.260	1	18
469.431	1	24
469.601	1	41
469.772	1	38
469.942	1	23
470.112	1	33
470.283	1	22
470.453	1	33
470.623	1	30
470.794	1	19
470.964	1	37
471.135	1	32
471.305	1	13
471.475	1	40
471.646	1	23
471.816	1	22
471.986	1	29
472.157	1	30
472.327	1	24
472.497	1	35
472.668	1	11
472.838	1	30
473.009	1	32
473.179	1	25
473.349	1	24
473.520	1	28
473.690	1	35
473.860	1	25
474.031	1	18
474.201	1	30
474.371	1	29
474.542	1	27
474.712	1	31
474.882	1	22
475.053	1	29
475.223	1	26
475.394	1	36
475.564	1	16
475.734	1	37
475.905	1	34
476.075	1	23
476.245	1	39
476.416	1	33
476.586	1	28
476.756	1	26
476.927	1	20
477.097	1	24
477.267	1	13
477.438	1	27
477.608	1	23
477.778	1	28
477.949	1	28
478.119	1	30
478.289	1	32
478.460	1	29
478.630	1	21
478.800	1	23
478.971	1	28
479.141	1	25
479.311	1	16
479.482	1	18
479.652	1	21
479.822	1	14
479.993	1	29
480.163	1	24
480.333	1	28
480.504	1	28
480.674	1	25
480.844	1	17
481.015	1	24
481.185	1	24
481.355	1	29
481.525	1	18
481.696	1	20
481.866	1	23
482.036	1	15
482.207	1	24
482.377	1	23
482.547	1	37
482.718	1	19
482.888	1	20
483.058	1	21
483.229	1	5
483.399	1	20
483.569	1	23
483.740	1	24
483.910	1	20
484.080	1	16
484.250	1	26
484.421	1	20
484.591	1	29
484.761	1	36
484.932	1	22
485.102	1	32
485.272	1	19
485.443	1	35
485.613	1	25
485.783	1	20
485.953	1	21
486.124	1	27
486.294	1	20
486.464	1	14
486.635	1	25
486.805	1	28
486.975	1	23
487.146	1	28
487.316	1	22
487.486	1	21
487.656	1	11
487.827	1	17
487.997	1	7
488.167	1	17
488.338	1	26
488.508	1	22
488.678	1	18
488.848	1	28
489.019	1	22
489.189	1	22
489.359	1	17
489.529	1	22
489.700	1	24
489.870	1	25
490.040	1	13
490.211	1	4
490.381	1	22
490.551	1	21
490.721	1	24
490.892	1	18
491.062	1	14
491.232	1	15
491.402	1	18
491.573	1	10
491.743	1	16
491.913	1	12
492.084	1	24
492.254	1	17
492.424	1	20
492.594	1	19
492.765	1	25
492.935	1	16
493.105	1	19
493.275	1	18
493.446	1	17
493.616	1	31
493.786	1	16
493.956	1	18
494.127	1	21
494.297	1	16
494.467	1	16
494.637	1	23
494.808	1	16
494.978	1	7
495.148	1	19
495.318	1	19
495.489	1	23
495.659	1	25
495.829	1	17
495.999	1	13
496.170	1	19
496.340	1	21
496.510	1	15
496.680	1	8
496.851	1	15
497.021	1	12
497.191	1	8
497.361	1	15
497.532	1	19
497.702	1	19
497.872	1	13
498.042	1	22
498.213	1	12
498.383	1	15
498.553	1	16
498.723	1	21
498.894	1	16
499.064	1	12
499.234	1	17
499.404	1	20
499.574	1	14
499.745	1	19
499.915	1	8
500.085	1	15
500.255	1	36
500.426	1	15
500.596	1	14
500.766	1	7
500.936	1	7
501.106	1	10
501.277	1	16
501.447	1	16
501.617	1	19
501.787	1	6
501.958	1	10
502.128	1	11
502.298	1	14
502.468	1	24
502.638	1	14
502.809	1	11
502.979	1	4
503.149	1	11
503.319	1	17
503.489	1	24
503.660	1	18
503.830	1	19
504.000	1	22
504.170	1	10
504.340	1	5
504.511	1	20
504.681	1	3
504.851	1	15
505.021	1	17
505.192	1	12
505.362	1	18
505.532	1	12
505.702	1	8
505.872	1	23
506.043	1	12
506.213	1	14
506.383	1	8
506.553	1	21
506.723	1	10
506.893	1	7
507.064	1	22
507.234	1	8
507.404	1	13
507.574	1	23
507.744	1	22
507.915	1	15
508.085	1	29
508.255	1	12
508.425	1	13
508.595	1	18
508.766	1	16
508.936	1	9
509.106	1	7
509.276	1	13
509.446	1	9
509.616	1	17
509.787	1	17
509.957	1	19
510.127	1	11
510.297	1	17
510.467	1	-2
510.638	1	11
510.808	1	9
510.978	1	7
511.148	1	17
511.318	1	11
511.488	1	-1
511.659	1	11
511.829	1	0
511.999	1	10
512.169	1	6
512.339	1	7
512.509	1	7
512.680	1	9
512.850	1	8
513.020	1	13
513.190	1	11
513.360	1	10
513.530	1	13
513.700	1	22
513.871	1	11
514.041	1	3
514.211	1	19
514.381	1	24
514.551	1	8
514.721	1	-2
514.892	1	16
515.062	1	21
515.232	1	8
515.402	1	5
515.572	1	4
515.742	1	17
515.912	1	12
516.083	1	-7
516.253	1	13
516.423	1	1
516.593	1	12
516.763	1	11
516.933	1	7
517.104	1	4
517.274	1	9
517.444	1	13
517.614	1	5
517.784	1	8
517.954	1	10
518.124	1	11
518.294	1	11
518.465	1	9
518.635	1	5
518.805	1	-7
518.975	1	10
519.145	1	9
519.315	1	9
519.485	1	8
519.656	1	9
519.826	1	14
519.996	1	3
520.166	1	14
520.336	1	15
520.506	1	7
520.676	1	10
520.846	1	16
521.017	1	14
521.187	1	9
521.357	1	19
521.527	1	4
521.697	1	13
521.867	1	-4
522.037	1	19
522.207	1	18
522.377	1	12
522.548	1	11
522.718	1	9
522.888	1	29
523.058	1	16
523.228	1	12
523.398	1	5
523.568	1	15
523.738	1	12
523.909	1	14
524.079	1	14
524.249	1	2
524.419	1	16
524.589	1	5
524.759	1	3
524.929	1	4
525.099	1	12
525.269	1	14
525.439	1	5
525.610	1	17
525.780	1	6
525.950	1	15
526.120	1	-1
526.290	1	8
526.460	1	-5
526.630	1	9
526.800	1	8
526.970	1	2
527.140	1	16
527.311	1	7
527.481	1	6
527.651	1	8
527.821	1	-3
527.991	1	20
528.161	1	11
528.331	1	9
528.501	1	10
528.671	1	11
528.841	1	5
529.011	1	8
529.181	1	17
529.352	1	11
529.522	1	-3
529.692	1	12
529.862	1	3
530.032	1	12
530.202	1	12
530.372	1	6
530.542	1	6
530.712	1	15
530.882	1	18
531.052	1	6
531.222	1	11
531.392	1	10
531.563	1	25
531.733	1	10
531.903	1	5
532.073	1	10
532.243	1	11
532.413	1	7
532.583	1	-1
532.753	1	0
532.923	1	-2
533.093	1	2
533.263	1	12
533.433	1	9
533.603	1	10
533.773	1	0
533.943	1	-3
534.113	1	13
534.284	1	9
534.454	1	14
534.624	1	6
534.794	1	-2
534.964	1	4
535.134	1	8
535.304	1	8
535.474	1	14
535.644	1	6
535.814	1	0
535.984	1	-5
536.154	1	-1
536.324	1	8
536.494	1	9
536.664	1	13
536.834	1	4
537.004	1	-2
537.174	1	11
537.344	1	8
537.514	1	0
537.685	1	7
537.855	1	8
538.025	1	2
538.195	1	8
538.365	1	9
538.535	1	8
538.705	1	9
538.875	1	11
539.045	1	9
539.215	1	18
539.385	1	11
539.555	1	9
539.725	1	9
539.895	1	6
540.065	1	24
540.235	1	11
540.405	1	4
540.575	1	18
540.745	1	11
540.915	1	14
541.085	1	17
541.255	1	-1
541.425	1	12
541.595	1	9
541.765	1	14
541.935	1	6
542.105	1	4
542.275	1	12
542.445	1	-5
542.615	1	3
542.785	1	11
542.955	1	4
543.125	1	6
543.295	1	8
543.465	1	8
543.635	1	2
543.805	1	18
543.975	1	5
544.145	1	15
544.315	1	9
544.485	1	15
544.655	1	17
544.825	1	-2
544.995	1	12
545.165	1	4
545.335	1	11
545.505	1	0
545.675	1	8
545.845	1	7
546.015	1	6
546.185	1	12
546.355	1	3
546.525	1	13
546.695	1	13
546.865	1	-2
547.035	1	18
547.205	1	-5
547.375	1	7
547.545	1	13
547.715	1	9
547.885	1	4
548.055	1	6
548.225	1	6
548.395	1	3
548.565	1	4
548.735	1	1
548.905	1	-8
549.075	1	-7
549.245	1	6
549.415	1	6
549.585	1	7
549.755	1	7
549.925	1	-3
550.095	1	7
550.265	1	-7
550.435	1	-3
550.605	1	-1
550.775	1	0
550.945	1	10
551.115	1	8
551.285	1	13
551.455	1	0
551.625	1	9
551.795	1	12
551.965	1	11
552.135	1	3
552.305	1	3
552.475	1	-10
552.645	1	-2
552.815	1	13
552.985	1	14
553.155	1	6
553.325	1	16
553.495	1	3
553.665	1	-1
553.835	1	4
554.004	1	-1
554.174	1	5
554.344	1	6
554.514	1	8
554.684	1	9
554.854	1	13
555.024	1	5
555.194	1	2
555.364	1	15
555.534	1	-3
555.704	1	0
555.874	1	9
556.044	1	4
556.214	1	3
556.384	1	4
556.554	1	4
556.724	1	2
556.894	1	1
557.064	1	6
557.234	1	-2
557.404	1	7
557.573	1	9
557.743	1	7
557.913	1	-2
558.083	1	-3
558.253	1	8
558.423	1	-2
558.593	1	13
558.763	1	0
558.933	1	5
559.103	1	15
559.273	1	11
559.443	1	-4
559.613	1	4
559.783	1	-1
559.953	1	8
560.122	1	14
560.292	1	16
560.462	1	-1
560.632	1	11
560.802	1	5
560.972	1	7
561.142	1	10
561.312	1	2
561.482	1	9
561.652	1	10
561.822	1	2
561.992	1	10
562.162	1	8
562.331	1	6
562.501	1	3
562.671	1	9
562.841	1	4
563.011	1	13
563.181	1	9
563.351	1	-2
563.521	1	4
563.691	1	4
563.861	1	11
564.031	1	4
564.201	1	19
564.370	1	0
564.540	1	7
564.710	1	-9
564.880	1	13
565.050	1	1
565.220	1	-3
565.390	1	14
565.560	1	7
565.730	1	-3
565.900	1	10
566.069	1	16
566.239	1	7
566.409	1	7
566.579	1	16
566.749	1	10
566.919	1	14
567.089	1	9
567.259	1	7
567.429	1	8
567.599	1	5
567.768	1	5
567.938	1	5
568.108	1	4
568.278	1	6
568.448	1	3
568.618	1	5
568.788	1	5
568.958	1	1
569.128	1	12
569.297	1	5
569.467	1	8
569.637	1	9
569.807	1	8
569.977	1	14
570.147	1	12
570.317	1	-7
570.487	1	6
570.656	1	8
570.826	1	7
570.996	1	-5
571.166	1	13
571.336	1	-2
571.506	1	9
571.676	1	7
571.846	1	6
572.015	1	12
572.185	1	-1
572.355	1	9
572.525	1	13
572.695	1	1
572.865	1	5
573.035	1	8
573.205	1	5
573.374	1	-3
573.544	1	5
573.714	1	14
573.884	1	9
574.054	1	11
574.224	1	7
574.394	1	-4
574.563	1	-3
574.733	1	-1
574.903	1	2
575.073	1	4
575.243	1	6
575.413	1	4
575.583	1	5
575.752	1	6
575.922	1	5
576.092	1	4
576.262	1	8
576.432	1	7
576.602	1	-2
576.772	1	14
576.941	1	5
577.111	1	5
577.281	1	-4
577.451	1	7
577.621	1	11
577.791	1	3
577.960	1	-3
578.130	1	0
578.300	1	9
578.470	1	13
578.640	1	3
578.810	1	2
578.979	1	8
579.149	1	2
579.319	1	4
579.489	1	-2
579.659	1	13
579.829	1	-8
579.998	1	12
580.168	1	11
580.338	1	13
580.508	1	8
580.678	1	1
580.848	1	-2
581.017	1	9
581.187	1	5
581.357	1	-4
581.527	1	6
581.697	1	9
581.867	1	-1
582.036	1	12
582.206	1	11
582.376	1	6
582.546	1	-7
582.716	1	-4
582.885	1	5
583.055	1	4
583.225	1	-10
583.395	1	17
583.565	1	2
583.735	1	14
583.904	1	3
584.074	1	9
584.244	1	3
584.414	1	3
584.584	1	9
584.753	1	-8
584.923	1	-3
585.093	1	1
585.263	1	6
585.433	1	5
585.602	1	-5
585.772	1	7
585.942	1	-2
586.112	1	9
586.282	1	-3
586.451	1	7
586.621	1	-7
586.791	1	2
586.961	1	0
587.131	1	12
587.300	1	-1
587.470	1	9
587.640	1	5
587.810	1	3
587.980	1	-1
588.149	1	11
588.319	1	4
588.489	1	-2
588.659	1	2
588.829	1	4
588.998	1	14
589.168	1	12
589.338	1	2
589.508	1	9
589.677	1	-1
589.847	1	3
590.017	1	20
590.187	1	5
590.357	1	12
590.526	1	17
590.696	1	2
590.866	1	7
591.036	1	-2
591.205	1	16
591.375	1	2
591.545	1	8
591.715	1	9
591.885	1	3
592.054	1	6
592.224	1	10
592.394	1	-4
592.564	1	-2
592.733	1	3
592.903	1	1
593.073	1	7
593.243	1	9
593.412	1	17
593.582	1	5
593.752	1	2
593.922	1	2
594.091	1	11
594.261	1	-13
594.431	1	5
594.601	1	7
594.771	1	5
594.940	1	10
595.110	1	-7
595.280	1	5
595.450	1	-2
595.619	1	3
595.789	1	1
595.959	1	16
596.129	1	-1
596.298	1	-3
596.468	1	2
596.638	1	3
596.808	1	8
596.977	1	6
597.147	1	5
597.317	1	-5
597.487	1	13
597.656	1	13
597.826	1	8
597.996	1	1
598.166	1	1
598.335	1	-2
598.505	1	7
598.675	1	0
598.844	1	7
599.014	1	7
599.184	1	12
599.354	1	-4
599.523	1	0
599.693	1	-6
599.863	1	4
600.033	1	-1
600.202	1	-2
600.372	1	3
600.542	1	13
600.712	1	2
600.881	1	1
601.051	1	13
601.221	1	13
601.390	1	-1
601.560	1	10
601.730	1	15
601.900	1	-2
602.069	1	8
602.239	1	2
602.409	1	-12
602.578	1	1
602.748	1	4
602.918	1	11
603.088	1	11
603.257	1	3
603.427	1	5
603.597	1	3
603.767	1	5
603.936	1	7
604.106	1	5
604.276	1	6
604.445	1	9
604.615	1	-1
604.785	1	-1
604.954	1	-1
605.124	1	11
605.294	1	-3
605.464	1	3
605.633	1	3
605.803	1	5
605.973	1	0
606.142	1	4
606.312	1	14
606.482	1	0
606.652	1	4
606.821	1	-2
606.991	1	3
607.161	1	7
607.330	1	12
607.500	1	2
607.670	1	1
607.839	1	15
608.009	1	13
608.179	1	8
608.348	1	0
608.518	1	4
608.688	1	14
608.858	1	8
609.027	1	-8
609.197	1	10
609.367	1	10
609.536	1	8
609.706	1	4
609.876	1	-3
610.045	1	1
610.215	1	11
610.385	1	1
610.554	1	-2
610.724	1	12
610.894	1	12
611.063	1	5
611.233	1	3
611.403	1	2
611.572	1	2
611.742	1	4
611.912	1	4
612.081	1	-3
612.251	1	12
612.421	1	4
612.590	1	4
612.760	1	0
612.930	1	6
613.099	1	3
613.269	1	15
613.439	1	7
613.608	1	0
613.778	1	5
613.948	1	-1
614.117	1	11
614.287	1	14
614.457	1	16
614.626	1	6
614.796	1	11
614.966	1	9
615.135	1	2
615.305	1	5
615.475	1	0
615.644	1	7
615.814	1	3
615.984	1	-1
616.153	1	8
616.323	1	13
616.493	1	5
616.662	1	12
616.832	1	2
617.002	1	0
617.171	1	9
617.341	1	-2
617.511	1	2
617.680	1	4
617.850	1	10
618.019	1	14
618.189	1	19
618.359	1	12
618.528	1	7
618.698	1	6
618.868	1	-6
619.037	1	9
619.207	1	3
619.377	1	-2
619.546	1	1
619.716	1	-1
619.885	1	-2
620.055	1	-6
620.225	1	10
620.394	1	5
620.564	1	19
620.734	1	8
620.903	1	1
621.073	1	8
621.242	1	0
621.412	1	3
621.582	1	8
621.751	1	9
621.921	1	11
622.091	1	1
622.260	1	8
622.430	1	21
622.599	1	4
622.769	1	1
622.939	1	5
623.108	1	4
623.278	1	-7
623.448	1	6
623.617	1	3
623.787	1	8
623.956	1	7
624.126	1	3
624.296	1	-3
624.465	1	12
624.635	1	14
624.804	1	7
624.974	1	-2
625.144	1	8
625.313	1	5
625.483	1	-2
625.652	1	6
625.822	1	4
625.992	1	-1
626.161	1	10
626.331	1	5
626.501	1	7
626.670	1	7
626.840	1	0
627.009	1	4
627.179	1	7
627.348	1	20
627.518	1	4
627.688	1	10
627.857	1	22
628.027	1	-4
628.196	1	10
628.366	1	10
628.536	1	5
628.705	1	-9
628.875	1	10
629.044	1	3
629.214	1	9
629.384	1	16
629.553	1	15
629.723	1	7
629.892	1	5
630.062	1	6
630.232	1	5
630.401	1	14
630.571	1	10
630.740	1	9
630.910	1	1
631.079	1	12
631.249	1	7
631.419	1	8
631.588	1	-2
631.758	1	19
631.927	1	3
632.097	1	-1
632.266	1	10
632.436	1	6
632.606	1	4
632.775	1	7
632.945	1	13
633.114	1	10
633.284	1	14
633.453	1	-2
633.623	1	0
633.793	1	1
633.962	1	6
634.132	1	9
634.301	1	9
634.471	1	17
634.640	1	15
634.810	1	5
634.979	1	12
635.149	1	11
635.319	1	12
635.488	1	4
635.658	1	2
635.827	1	-2
635.997	1	16
636.166	1	10
636.336	1	3
636.505	1	18
636.675	1	-2
636.845	1	10
637.014	1	12
637.184	1	7
637.353	1	7
637.523	1	13
637.692	1	7
637.862	1	4
638.031	1	18
638.201	1	7
638.370	1	12
638.540	1	8
638.710	1	1
638.879	1	-3
639.049	1	10
639.218	1	5
639.388	1	-1
639.557	1	5
639.727	1	4
639.896	1	1
640.066	1	7
640.235	1	15
640.405	1	12
640.574	1	1
640.744	1	-6
640.914	1	8
641.083	1	4
641.253	1	8
641.422	1	8
641.592	1	23
641.761	1	-2
641.931	1	10
642.100	1	18
642.270	1	9
642.439	1	8
642.609	1	15
642.778	1	1
642.948	1	7
643.117	1	12
643.287	1	14
643.456	1	0
643.626	1	14
643.795	1	2
643.965	1	19
644.134	1	1
644.304	1	13
644.473	1	4
644.643	1	13
644.812	1	6
644.982	1	8
645.151	1	2
645.321	1	6
645.490	1	12
645.660	1	-1
645.829	1	15
645.999	1	6
646.168	1	11
646.338	1	9
646.507	1	12
646.677	1	8
646.846	1	6
647.016	1	-6
647.185	1	16
647.355	1	-5
647.524	1	13
647.694	1	10
647.863	1	10
648.033	1	10
648.202	1	12
648.372	1	7
648.541	1	8
648.711	1	10
648.880	1	4
649.050	1	2
649.219	1	1
649.389	1	11
649.558	1	12
649.728	1	8
649.897	1	-5
650.067	1	5
650.236	1	10
650.406	1	16
650.575	1	16
650.745	1	14
650.914	1	-4
651.084	1	4
651.253	1	11
651.423	1	12
651.592	1	3
651.762	1	1
651.931	1	15
652.101	1	5
652.270	1	15
652.440	1	10
652.609	1	-4
652.778	1	-4
652.948	1	12
653.117	1	9
653.287	1	0
653.456	1	-1
653.626	1	13
653.795	1	14
653.965	1	11
654.134	1	16
654.304	1	-6
654.473	1	18
654.643	1	8
654.812	1	9
654.982	1	6
655.151	1	5
655.320	1	4
655.490	1	9
655.659	1	6
655.829	1	3
655.998	1	6
656.168	1	6
656.337	1	12
656.507	1	8
656.676	1	12
656.846	1	6
657.015	1	21
657.184	1	10
657.354	1	16
657.523	1	8
657.693	1	14
657.862	1	11
658.032	1	9
658.201	1	13
658.371	1	18
658.540	1	2
658.709	1	-1
658.879	1	13
659.048	1	2
659.218	1	9
659.387	1	16
659.557	1	12
659.726	1	21
659.895	1	12
660.065	1	-1
660.234	1	15
660.404	1	17
660.573	1	7
660.743	1	5
660.912	1	16
661.081	1	16
661.251	1	8
661.420	1	17
661.590	1	15
661.759	1	13
661.929	1	10
662.098	1	17
662.267	1	12
662.437	1	14
662.606	1	17
662.776	1	6
662.945	1	11
663.115	1	16
663.284	1	4
663.453	1	10
663.623	1	8
663.792	1	10
663.962	1	14
664.131	1	16
664.300	1	10
664.470	1	6
664.639	1	13
664.809	1	10
664.978	1	12
665.148	1	11
665.317	1	7
665.486	1	20
665.656	1	10
665.825	1	8
665.995	1	-1
666.164	1	13
666.333	1	15
666.503	1	10
666.672	1	7
666.842	1	0
667.011	1	6
667.180	1	16
667.350	1	5
667.519	1	5
667.689	1	12
667.858	1	13
668.027	1	22
668.197	1	5
668.366	1	4
668.536	1	7
668.705	1	5
668.874	1	10
669.044	1	6
669.213	1	19
669.382	1	3
669.552	1	8
669.721	1	10
669.891	1	29
670.060	1	7
670.229	1	19
670.399	1	10
670.568	1	16
670.738	1	18
670.907	1	-2
671.076	1	7
671.246	1	6
671.415	1	2
671.584	1	8
671.754	1	6
671.923	1	16
672.093	1	10
672.262	1	4
672.431	1	11
672.601	1	16
672.770	1	-8
672.939	1	17
673.109	1	7
673.278	1	6
673.448	1	12
673.617	1	9
673.786	1	13
