325.333	1	10
325.504	1	2
325.675	1	-1
325.846	1	10
326.017	1	3
326.188	1	6
326.359	1	3
326.531	1	-8
326.702	1	1
326.873	1	11
327.044	1	-4
327.215	1	2
327.386	1	0
327.557	1	-4
327.728	1	3
327.899	1	-2
328.070	1	11
328.241	1	7
328.412	1	-6
328.583	1	6
328.754	1	2
328.926	1	10
329.097	1	2
329.268	1	7
329.439	1	4
329.610	1	3
329.781	1	-6
329.952	1	4
330.123	1	0
330.294	1	10
330.465	1	5
330.636	1	7
330.807	1	-12
330.978	1	5
331.149	1	1
331.320	1	-1
331.492	1	8
331.663	1	3
331.834	1	6
332.005	1	8
332.176	1	15
332.347	1	9
332.518	1	4
332.689	1	18
332.860	1	0
333.031	1	10
333.202	1	4
333.373	1	-3
333.544	1	8
333.715	1	5
333.886	1	9
334.057	1	10
334.228	1	7
334.399	1	12
334.570	1	13
334.741	1	5
334.912	1	7
335.084	1	13
335.255	1	8
335.426	1	-6
335.597	1	3
335.768	1	-2
335.939	1	5
336.110	1	2
336.281	1	-1
336.452	1	-2
336.623	1	11
336.794	1	-2
336.965	1	5
337.136	1	13
337.307	1	6
337.478	1	3
337.649	1	5
337.820	1	-2
337.991	1	7
338.162	1	8
338.333	1	3
338.504	1	15
338.675	1	2
338.846	1	13
339.017	1	10
339.188	1	6
339.359	1	-13
339.530	1	4
339.701	1	4
339.872	1	19
340.043	1	-1
340.214	1	0
340.385	1	19
340.556	1	1
340.727	1	12
340.898	1	18
341.069	1	4
341.240	1	3
341.411	1	4
341.582	1	17
341.753	1	-6
341.924	1	4
342.095	1	3
342.266	1	13
342.437	1	13
342.608	1	0
342.779	1	10
342.950	1	13
343.121	1	18
343.292	1	6
343.463	1	1
343.634	1	14
343.805	1	3
343.976	1	14
344.147	1	6
344.318	1	12
344.489	1	10
344.660	1	15
344.831	1	12
345.002	1	-2
345.173	1	14
345.344	1	1
345.515	1	9
345.686	1	1
345.857	1	12
346.028	1	6
346.199	1	0
346.370	1	5
346.541	1	14
346.712	1	-1
346.883	1	9
347.054	1	9
347.225	1	14
347.396	1	14
347.567	1	12
347.738	1	5
347.909	1	16
348.080	1	6
348.251	1	13
348.422	1	8
348.593	1	8
348.764	1	10
348.935	1	6
349.106	1	1
349.277	1	10
349.448	1	21
349.619	1	5
349.790	1	2
349.961	1	18
350.132	1	14
350.303	1	9
350.474	1	15
350.645	1	13
350.816	1	18
350.987	1	18
351.157	1	7
351.328	1	6
351.499	1	16
351.670	1	9
351.841	1	21
352.012	1	19
352.183	1	18
352.354	1	14
352.525	1	17
352.696	1	12
352.867	1	8
353.038	1	13
353.209	1	18
353.380	1	5
353.551	1	6
353.722	1	15
353.893	1	14
354.064	1	23
354.235	1	8
354.406	1	2
354.576	1	8
354.747	1	22
354.918	1	9
355.089	1	11
355.260	1	17
355.431	1	12
355.602	1	3
355.773	1	19
355.944	1	19
356.115	1	11
356.286	1	13
356.457	1	17
356.628	1	9
356.799	1	4
356.970	1	21
357.141	1	6
357.311	1	10
357.482	1	5
357.653	1	13
357.824	1	16
357.995	1	21
358.166	1	3
358.337	1	12
358.508	1	9
358.679	1	11
358.850	1	4
359.021	1	8
359.192	1	13
359.363	1	9
359.533	1	8
359.704	1	23
359.875	1	14
360.046	1	14
360.217	1	-2
360.388	1	6
360.559	1	12
360.730	1	16
360.901	1	14
361.072	1	29
361.243	1	15
361.414	1	17
361.584	1	13
361.755	1	12
361.926	1	10
362.097	1	7
362.268	1	16
362.439	1	5
362.610	1	19
362.781	1	10
362.952	1	12
363.123	1	8
363.293	1	16
363.464	1	21
363.635	1	18
363.806	1	7
363.977	1	17
364.148	1	11
364.319	1	15
364.490	1	20
364.661	1	10
364.832	1	9
365.002	1	17
365.173	1	5
365.344	1	20
365.515	1	8
365.686	1	7
365.857	1	-1
366.028	1	29
366.199	1	19
366.370	1	9
366.540	1	10
366.711	1	-1
366.882	1	4
367.053	1	5
367.224	1	24
367.395	1	14
367.566	1	20
367.737	1	25
367.908	1	16
368.078	1	19
368.249	1	24
368.420	1	11
368.591	1	18
368.762	1	20
368.933	1	4
369.104	1	2
369.274	1	9
369.445	1	15
369.616	1	13
369.787	1	16
369.958	1	21
370.129	1	4
370.300	1	16
370.471	1	9
370.641	1	20
370.812	1	11
370.983	1	2
371.154	1	6
371.325	1	15
371.496	1	14
371.667	1	14
371.837	1	16
372.008	1	12
372.179	1	24
372.350	1	23
372.521	1	9
372.692	1	15
372.863	1	20
373.033	1	4
373.204	1	3
373.375	1	20
373.546	1	29
373.717	1	-1
373.888	1	23
374.059	1	14
374.229	1	18
374.400	1	9
374.571	1	10
374.742	1	17
374.913	1	12
375.084	1	20
375.254	1	16
375.425	1	20
375.596	1	21
375.767	1	13
375.938	1	19
376.109	1	19
376.279	1	4
376.450	1	24
376.621	1	16
376.792	1	7
376.963	1	13
377.134	1	17
377.304	1	25
377.475	1	14
377.646	1	12
377.817	1	2
377.988	1	13
378.159	1	16
378.329	1	24
378.500	1	15
378.671	1	10
378.842	1	16
379.013	1	4
379.184	1	12
379.354	1	25
379.525	1	15
379.696	1	19
379.867	1	13
380.038	1	22
380.209	1	16
380.379	1	19
380.550	1	12
380.721	1	20
380.892	1	14
381.063	1	20
381.233	1	20
381.404	1	9
381.575	1	16
381.746	1	15
381.917	1	10
382.087	1	20
382.258	1	17
382.429	1	20
382.600	1	23
382.771	1	19
382.941	1	20
383.112	1	24
383.283	1	16
383.454	1	12
383.625	1	10
383.795	1	7
383.966	1	19
384.137	1	23
384.308	1	21
384.479	1	17
384.649	1	16
384.820	1	24
384.991	1	22
385.162	1	12
385.333	1	7
385.503	1	19
385.674	1	6
385.845	1	26
386.016	1	19
386.187	1	18
386.357	1	22
386.528	1	20
386.699	1	12
386.870	1	34
387.041	1	11
387.211	1	17
387.382	1	29
387.553	1	19
387.724	1	16
387.894	1	18
388.065	1	22
388.236	1	29
388.407	1	14
388.578	1	4
388.748	1	9
388.919	1	33
389.090	1	13
389.261	1	18
389.431	1	31
389.602	1	35
389.773	1	21
389.944	1	18
390.114	1	26
390.285	1	26
390.456	1	10
390.627	1	17
390.798	1	19
390.968	1	17
391.139	1	29
391.310	1	17
391.481	1	32
391.651	1	19
391.822	1	14
391.993	1	21
392.164	1	10
392.334	1	14
392.505	1	15
392.676	1	26
392.847	1	25
393.017	1	29
393.188	1	19
393.359	1	10
393.530	1	22
393.700	1	21
393.871	1	14
394.042	1	21
394.213	1	15
394.383	1	14
394.554	1	16
394.725	1	28
394.896	1	25
395.066	1	29
395.237	1	19
395.408	1	12
395.579	1	15
395.749	1	17
395.920	1	22
396.091	1	21
396.262	1	21
396.432	1	21
396.603	1	29
396.774	1	30
396.945	1	21
397.115	1	21
397.286	1	23
397.457	1	21
397.627	1	16
397.798	1	18
397.969	1	22
398.140	1	18
398.310	1	23
398.481	1	12
398.652	1	21
398.823	1	8
398.993	1	18
399.164	1	21
399.335	1	38
399.505	1	25
399.676	1	20
399.847	1	32
400.018	1	15
400.188	1	16
400.359	1	29
400.530	1	8
400.700	1	20
400.871	1	15
401.042	1	13
401.213	1	27
401.383	1	20
401.554	1	26
401.725	1	33
401.895	1	17
402.066	1	17
402.237	1	17
402.408	1	22
402.578	1	23
402.749	1	14
402.920	1	21
403.090	1	20
403.261	1	27
403.432	1	19
403.603	1	25
403.773	1	31
403.944	1	30
404.115	1	28
404.285	1	22
404.456	1	14
404.627	1	20
404.797	1	12
404.968	1	21
405.139	1	18
405.310	1	28
405.480	1	17
405.651	1	20
405.822	1	26
405.992	1	24
406.163	1	21
406.334	1	13
406.504	1	24
406.675	1	29
406.846	1	22
407.016	1	28
407.187	1	30
407.358	1	15
407.528	1	18
407.699	1	14
407.870	1	10
408.041	1	15
408.211	1	28
408.382	1	8
408.553	1	8
408.723	1	23
408.894	1	23
409.065	1	27
409.235	1	8
409.406	1	28
409.577	1	15
409.747	1	30
409.918	1	15
410.089	1	28
410.259	1	25
410.430	1	25
410.601	1	19
410.771	1	15
410.942	1	34
411.113	1	29
411.283	1	22
411.454	1	29
411.625	1	19
411.795	1	27
411.966	1	15
412.137	1	26
412.307	1	11
412.478	1	20
412.649	1	25
412.819	1	20
412.990	1	28
413.161	1	19
413.331	1	18
413.502	1	39
413.672	1	13
413.843	1	19
414.014	1	17
414.184	1	30
414.355	1	20
414.526	1	17
414.696	1	25
414.867	1	15
415.038	1	3
415.208	1	26
415.379	1	29
415.550	1	32
415.720	1	21
415.891	1	21
416.062	1	22
416.232	1	19
416.403	1	26
416.573	1	31
416.744	1	18
416.915	1	29
417.085	1	21
417.256	1	19
417.427	1	21
417.597	1	22
417.768	1	18
417.939	1	19
418.109	1	21
418.280	1	21
418.450	1	20
418.621	1	15
418.792	1	15
418.962	1	27
419.133	1	33
419.304	1	22
419.474	1	28
419.645	1	16
419.815	1	25
419.986	1	27
420.157	1	29
420.327	1	19
420.498	1	31
420.669	1	24
420.839	1	27
421.010	1	20
421.180	1	20
421.351	1	18
421.522	1	21
421.692	1	24
421.863	1	20
422.033	1	26
422.204	1	18
422.375	1	14
422.545	1	29
422.716	1	22
422.886	1	18
423.057	1	36
423.228	1	21
423.398	1	9
423.569	1	35
423.740	1	7
423.910	1	19
424.081	1	27
424.251	1	13
424.422	1	22
424.593	1	14
424.763	1	30
424.934	1	22
425.104	1	27
425.275	1	19
425.445	1	27
425.616	1	22
425.787	1	16
425.957	1	23
426.128	1	20
426.298	1	24
426.469	1	13
426.640	1	32
426.810	1	21
426.981	1	21
427.151	1	20
427.322	1	29
427.493	1	26
427.663	1	23
427.834	1	10
428.004	1	30
428.175	1	24
428.345	1	25
428.516	1	18
428.687	1	28
428.857	1	13
429.028	1	11
429.198	1	16
429.369	1	28
429.540	1	15
429.710	1	17
429.881	1	24
430.051	1	27
430.222	1	24
430.392	1	22
430.563	1	31
430.734	1	16
430.904	1	26
431.075	1	15
431.245	1	10
431.416	1	22
431.586	1	19
431.757	1	27
431.927	1	19
432.098	1	18
432.269	1	11
432.439	1	18
432.610	1	22
432.780	1	27
432.951	1	19
433.121	1	18
433.292	1	26
433.462	1	25
433.633	1	27
433.804	1	19
433.974	1	21
434.145	1	30
434.315	1	11
434.486	1	16
434.656	1	22
434.827	1	14
434.997	1	13
435.168	1	25
435.339	1	20
435.509	1	22
435.680	1	26
435.850	1	19
436.021	1	11
436.191	1	19
436.362	1	19
436.532	1	22
436.703	1	17
436.873	1	21
437.044	1	9
437.214	1	18
437.385	1	22
437.556	1	14
437.726	1	27
437.897	1	27
438.067	1	13
438.238	1	17
438.408	1	19
438.579	1	24
438.749	1	20
438.920	1	15
439.090	1	23
439.261	1	13
439.431	1	13
439.602	1	11
439.772	1	21
439.943	1	25
440.113	1	18
440.284	1	23
440.455	1	21
440.625	1	20
440.796	1	18
440.966	1	15
441.137	1	18
441.307	1	17
441.478	1	28
441.648	1	18
441.819	1	20
441.989	1	20
442.160	1	22
442.330	1	21
442.501	1	25
442.671	1	16
442.842	1	7
443.012	1	15
443.183	1	29
443.353	1	9
443.524	1	17
443.694	1	21
443.865	1	16
444.035	1	20
444.206	1	21
444.376	1	14
444.547	1	24
444.717	1	8
444.888	1	18
445.058	1	24
445.229	1	16
445.399	1	19
445.570	1	17
445.740	1	15
445.911	1	10
446.081	1	21
446.252	1	25
446.422	1	12
446.593	1	10
446.763	1	21
446.934	1	9
447.104	1	18
447.275	1	20
447.445	1	17
447.616	1	17
447.786	1	17
447.957	1	24
448.127	1	16
448.298	1	12
448.468	1	11
448.639	1	12
448.809	1	20
448.979	1	16
449.150	1	22
449.320	1	17
449.491	1	17
449.661	1	17
449.832	1	16
450.002	1	24
450.173	1	19
450.343	1	25
450.514	1	13
450.684	1	4
450.855	1	16
451.025	1	20
451.196	1	23
451.366	1	21
451.537	1	20
451.707	1	4
451.878	1	13
452.048	1	14
452.218	1	28
452.389	1	21
452.559	1	8
452.730	1	21
452.900	1	13
453.071	1	4
453.241	1	14
453.412	1	6
453.582	1	15
453.753	1	20
453.923	1	20
454.093	1	18
454.264	1	34
454.434	1	15
454.605	1	11
454.775	1	22
454.946	1	12
455.116	1	18
455.287	1	8
455.457	1	2
455.628	1	14
455.798	1	16
455.968	1	25
456.139	1	12
456.309	1	13
456.480	1	9
456.650	1	4
456.821	1	12
456.991	1	18
457.161	1	8
457.332	1	13
457.502	1	1
457.673	1	21
457.843	1	17
458.014	1	19
458.184	1	23
458.355	1	8
458.525	1	11
458.695	1	12
458.866	1	10
459.036	1	13
459.207	1	16
459.377	1	9
459.548	1	28
459.718	1	4
459.888	1	11
460.059	1	18
460.229	1	22
460.400	1	20
460.570	1	17
460.740	1	9
460.911	1	20
461.081	1	9
461.252	1	15
461.422	1	19
461.593	1	11
461.763	1	11
461.933	1	23
462.104	1	6
462.274	1	17
462.445	1	12
462.615	1	9
462.785	1	11
462.956	1	18
463.126	1	17
463.297	1	12
463.467	1	18
463.638	1	18
463.808	1	14
463.978	1	11
464.149	1	11
464.319	1	17
464.490	1	19
464.660	1	14
464.830	1	10
465.001	1	11
465.171	1	12
465.342	1	14
465.512	1	5
465.682	1	15
465.853	1	19
466.023	1	12
466.194	1	14
466.364	1	19
466.534	1	20
466.705	1	10
466.875	1	11
467.045	1	13
467.216	1	27
467.386	1	1
467.557	1	16
467.727	1	8
467.897	1	8
468.068	1	8
468.238	1	14
468.409	1	7
468.579	1	11
468.749	1	12
468.920	1	3
469.090	1	10
469.260	1	6
469.431	1	15
469.601	1	18
469.772	1	9
469.942	1	2
470.112	1	20
470.283	1	11
470.453	1	9
470.623	1	9
470.794	1	0
470.964	1	13
471.135	1	11
471.305	1	0
471.475	1	16
471.646	1	5
471.816	1	14
471.986	1	3
472.157	1	21
472.327	1	-1
472.497	1	10
472.668	1	3
472.838	1	15
473.009	1	11
473.179	1	0
473.349	1	7
473.520	1	24
473.690	1	15
473.860	1	11
474.031	1	5
474.201	1	7
474.371	1	13
474.542	1	16
474.712	1	5
474.882	1	16
475.053	1	23
475.223	1	3
475.394	1	18
475.564	1	19
475.734	1	15
475.905	1	17
476.075	1	4
476.245	1	15
476.416	1	13
476.586	1	15
476.756	1	10
476.927	1	15
477.097	1	11
477.267	1	8
477.438	1	26
477.608	1	8
477.778	1	2
477.949	1	11
478.119	1	18
478.289	1	16
478.460	1	14
478.630	1	5
478.800	1	8
478.971	1	16
479.141	1	8
479.311	1	1
479.482	1	3
479.652	1	9
479.822	1	10
479.993	1	20
480.163	1	16
480.333	1	14
480.504	1	16
480.674	1	6
480.844	1	7
481.015	1	13
481.185	1	11
481.355	1	14
481.525	1	5
481.696	1	15
481.866	1	10
482.036	1	8
482.207	1	1
482.377	1	19
482.547	1	14
482.718	1	10
482.888	1	20
483.058	1	14
483.229	1	2
483.399	1	3
483.569	1	4
483.740	1	12
483.910	1	18
484.080	1	3
484.250	1	9
484.421	1	9
484.591	1	14
484.761	1	21
484.932	1	12
485.102	1	15
485.272	1	17
485.443	1	20
485.613	1	12
485.783	1	4
485.953	1	9
486.124	1	19
486.294	1	12
486.464	1	11
486.635	1	12
486.805	1	14
486.975	1	6
487.146	1	14
487.316	1	10
487.486	1	8
487.656	1	7
487.827	1	9
487.997	1	9
488.167	1	9
488.338	1	15
488.508	1	3
488.678	1	-2
488.848	1	14
489.019	1	7
489.189	1	9
489.359	1	9
489.529	1	18
489.700	1	14
489.870	1	28
490.040	1	1
490.211	1	9
490.381	1	20
490.551	1	11
490.721	1	11
490.892	1	8
491.062	1	9
491.232	1	20
491.402	1	8
491.573	1	10
491.743	1	14
491.913	1	-2
492.084	1	11
492.254	1	16
492.424	1	8
492.594	1	11
492.765	1	5
492.935	1	2
493.105	1	4
493.275	1	5
493.446	1	15
493.616	1	13
493.786	1	4
493.956	1	5
494.127	1	3
494.297	1	6
494.467	1	9
494.637	1	2
494.808	1	-1
494.978	1	6
495.148	1	11
495.318	1	5
495.489	1	9
495.659	1	7
495.829	1	16
495.999	1	4
496.170	1	13
496.340	1	12
496.510	1	14
496.680	1	-4
496.851	1	11
497.021	1	8
497.191	1	-7
497.361	1	4
497.532	1	4
497.702	1	9
497.872	1	5
498.042	1	15
498.213	1	4
498.383	1	7
498.553	1	1
498.723	1	7
498.894	1	12
499.064	1	5
499.234	1	11
499.404	1	-4
499.574	1	12
499.745	1	18
499.915	1	1
500.085	1	13
500.255	1	11
500.426	1	12
500.596	1	9
500.766	1	7
500.936	1	6
501.106	1	1
501.277	1	6
501.447	1	8
501.617	1	6
501.787	1	5
501.958	1	0
502.128	1	8
502.298	1	10
502.468	1	3
502.638	1	11
502.809	1	12
502.979	1	5
503.149	1	3
503.319	1	-7
503.489	1	1
503.660	1	14
503.830	1	9
504.000	1	11
504.170	1	7
504.340	1	4
504.511	1	14
504.681	1	3
504.851	1	5
505.021	1	4
505.192	1	2
505.362	1	17
505.532	1	9
505.702	1	-3
505.872	1	11
506.043	1	0
506.213	1	8
506.383	1	8
506.553	1	13
506.723	1	3
506.893	1	9
507.064	1	13
507.234	1	0
507.404	1	-3
507.574	1	9
507.744	1	7
507.915	1	12
508.085	1	13
508.255	1	15
508.425	1	1
508.595	1	16
508.766	1	11
508.936	1	-1
509.106	1	9
509.276	1	12
509.446	1	0
509.616	1	1
509.787	1	5
509.957	1	6
510.127	1	5
510.297	1	7
510.467	1	2
510.638	1	12
510.808	1	-1
510.978	1	0
511.148	1	8
511.318	1	4
511.488	1	1
511.659	1	7
511.829	1	-10
511.999	1	7
512.169	1	9
512.339	1	-5
512.509	1	-3
512.680	1	0
512.850	1	-4
513.020	1	11
513.190	1	8
513.360	1	3
513.530	1	9
513.700	1	11
513.871	1	7
514.041	1	4
514.211	1	10
514.381	1	1
514.551	1	7
514.721	1	6
514.892	1	7
515.062	1	15
515.232	1	7
515.402	1	-10
515.572	1	-5
515.742	1	10
515.912	1	3
516.083	1	5
516.253	1	8
516.423	1	9
516.593	1	7
516.763	1	27
516.933	1	-5
517.104	1	2
517.274	1	6
517.444	1	10
517.614	1	2
517.784	1	-5
517.954	1	2
518.124	1	5
518.294	1	6
518.465	1	3
518.635	1	2
518.805	1	-12
518.975	1	4
519.145	1	1
519.315	1	6
519.485	1	-6
519.656	1	7
519.826	1	6
519.996	1	3
520.166	1	8
520.336	1	8
520.506	1	9
520.676	1	-7
520.846	1	5
521.017	1	2
521.187	1	-3
521.357	1	13
521.527	1	-2
521.697	1	8
521.867	1	1
522.037	1	9
522.207	1	9
522.377	1	8
522.548	1	11
522.718	1	5
522.888	1	3
523.058	1	5
523.228	1	6
523.398	1	7
523.568	1	16
523.738	1	4
523.909	1	14
524.079	1	1
524.249	1	12
524.419	1	3
524.589	1	5
524.759	1	-3
524.929	1	-1
525.099	1	7
525.269	1	12
525.439	1	3
525.610	1	17
525.780	1	6
525.950	1	9
526.120	1	-3
526.290	1	7
526.460	1	-4
526.630	1	10
526.800	1	9
526.970	1	0
527.140	1	7
527.311	1	-3
527.481	1	-2
527.651	1	10
527.821	1	-1
527.991	1	14
528.161	1	9
528.331	1	3
528.501	1	4
528.671	1	-2
528.841	1	7
529.011	1	1
529.181	1	10
529.352	1	2
529.522	1	-2
529.692	1	6
529.862	1	7
530.032	1	5
530.202	1	6
530.372	1	2
530.542	1	5
530.712	1	2
530.882	1	9
531.052	1	3
531.222	1	7
531.392	1	3
531.563	1	5
531.733	1	6
531.903	1	1
532.073	1	8
532.243	1	-5
532.413	1	11
532.583	1	-5
532.753	1	4
532.923	1	-2
533.093	1	-4
533.263	1	-3
533.433	1	2
533.603	1	-3
533.773	1	4
533.943	1	0
534.113	1	0
534.284	1	2
534.454	1	10
534.624	1	8
534.794	1	6
534.964	1	5
535.134	1	-1
535.304	1	-3
535.474	1	16
535.644	1	-5
535.814	1	7
535.984	1	1
536.154	1	0
536.324	1	0
536.494	1	4
536.664	1	9
536.834	1	9
537.004	1	7
537.174	1	9
537.344	1	2
537.514	1	-7
537.685	1	1
537.855	1	4
538.025	1	11
538.195	1	6
538.365	1	14
538.535	1	-2
538.705	1	-3
538.875	1	7
539.045	1	4
539.215	1	10
539.385	1	9
539.555	1	13
539.725	1	9
539.895	1	-7
540.065	1	18
540.235	1	13
540.405	1	-3
540.575	1	-2
540.745	1	5
540.915	1	13
541.085	1	9
541.255	1	-9
541.425	1	13
541.595	1	-1
541.765	1	15
541.935	1	-5
542.105	1	-9
542.275	1	5
542.445	1	-3
542.615	1	10
542.785	1	4
542.955	1	1
543.125	1	-10
543.295	1	10
543.465	1	8
543.635	1	-5
543.805	1	10
543.975	1	2
544.145	1	-3
544.315	1	5
544.485	1	4
544.655	1	11
544.825	1	-8
544.995	1	8
545.165	1	-2
545.335	1	4
545.505	1	-5
545.675	1	9
545.845	1	2
546.015	1	6
546.185	1	18
546.355	1	-1
546.525	1	7
546.695	1	2
546.865	1	-1
547.035	1	5
547.205	1	-5
547.375	1	9
547.545	1	11
547.715	1	-1
547.885	1	13
548.055	1	-3
548.225	1	9
548.395	1	1
548.565	1	10
548.735	1	3
548.905	1	0
549.075	1	0
549.245	1	8
549.415	1	-4
549.585	1	10
549.755	1	3
549.925	1	2
550.095	1	1
550.265	1	0
550.435	1	-3
550.605	1	4
550.775	1	4
550.945	1	10
551.115	1	2
551.285	1	10
551.455	1	-3
551.625	1	1
551.795	1	10
551.965	1	4
552.135	1	2
552.305	1	8
552.475	1	-5
552.645	1	7
552.815	1	-3
552.985	1	12
553.155	1	6
553.325	1	8
553.495	1	-6
553.665	1	7
553.835	1	10
554.004	1	-7
554.174	1	2
554.344	1	8
554.514	1	4
554.684	1	7
554.854	1	11
555.024	1	2
555.194	1	-5
555.364	1	1
555.534	1	-3
555.704	1	-4
555.874	1	14
556.044	1	-3
556.214	1	-7
556.384	1	-3
556.554	1	14
556.724	1	8
556.894	1	-1
557.064	1	10
557.234	1	3
557.404	1	-3
557.573	1	-3
557.743	1	2
557.913	1	0
558.083	1	-4
558.253	1	8
558.423	1	5
558.593	1	13
558.763	1	-2
558.933	1	0
559.103	1	16
559.273	1	-3
559.443	1	3
559.613	1	5
559.783	1	-1
559.953	1	0
560.122	1	9
560.292	1	11
560.462	1	-3
560.632	1	6
560.802	1	3
560.972	1	4
561.142	1	13
561.312	1	-2
561.482	1	9
561.652	1	2
561.822	1	0
561.992	1	0
562.162	1	-2
562.331	1	6
562.501	1	-3
562.671	1	12
562.841	1	-6
563.011	1	2
563.181	1	-2
563.351	1	0
563.521	1	11
563.691	1	-2
563.861	1	-1
564.031	1	4
564.201	1	15
564.370	1	0
564.540	1	7
564.710	1	-7
564.880	1	6
565.050	1	12
565.220	1	3
565.390	1	10
565.560	1	-2
565.730	1	3
565.900	1	2
566.069	1	10
566.239	1	2
566.409	1	-1
566.579	1	9
566.749	1	9
566.919	1	4
567.089	1	4
567.259	1	3
567.429	1	8
567.599	1	5
567.768	1	0
567.938	1	-1
568.108	1	-5
568.278	1	1
568.448	1	-1
568.618	1	0
568.788	1	8
568.958	1	6
569.128	1	4
569.297	1	6
569.467	1	2
569.637	1	7
569.807	1	4
569.977	1	5
570.147	1	13
570.317	1	-7
570.487	1	2
570.656	1	8
570.826	1	0
570.996	1	-2
571.166	1	6
571.336	1	4
571.506	1	7
571.676	1	9
571.846	1	1
572.015	1	3
572.185	1	3
572.355	1	2
572.525	1	1
572.695	1	-1
572.865	1	-1
573.035	1	11
573.205	1	14
573.374	1	-4
573.544	1	-2
573.714	1	-3
573.884	1	4
574.054	1	5
574.224	1	2
574.394	1	7
574.563	1	-1
574.733	1	2
574.903	1	3
575.073	1	6
575.243	1	-1
575.413	1	12
575.583	1	-1
575.752	1	9
575.922	1	0
576.092	1	5
576.262	1	5
576.432	1	6
576.602	1	2
576.772	1	21
576.941	1	6
577.111	1	4
577.281	1	-9
577.451	1	-12
577.621	1	1
577.791	1	12
577.960	1	-9
578.130	1	3
578.300	1	12
578.470	1	13
578.640	1	-1
578.810	1	4
578.979	1	3
579.149	1	-3
579.319	1	-7
579.489	1	3
579.659	1	2
579.829	1	3
579.998	1	5
580.168	1	16
580.338	1	6
580.508	1	12
580.678	1	5
580.848	1	-2
581.017	1	-1
581.187	1	1
581.357	1	-12
581.527	1	2
581.697	1	10
581.867	1	5
582.036	1	7
582.206	1	4
582.376	1	9
582.546	1	-5
582.716	1	-11
582.885	1	-3
583.055	1	-3
583.225	1	-11
583.395	1	5
583.565	1	-14
583.735	1	20
583.904	1	4
584.074	1	4
584.244	1	11
584.414	1	5
584.584	1	8
584.753	1	-6
584.923	1	2
585.093	1	-7
585.263	1	6
585.433	1	7
585.602	1	-10
585.772	1	-1
585.942	1	0
586.112	1	5
586.282	1	-2
586.451	1	-3
586.621	1	-7
586.791	1	5
586.961	1	2
587.131	1	9
587.300	1	-1
587.470	1	13
587.640	1	2
587.810	1	-8
587.980	1	3
588.149	1	1
588.319	1	-3
588.489	1	2
588.659	1	4
588.829	1	1
588.998	1	10
589.168	1	5
589.338	1	-1
589.508	1	4
589.677	1	0
589.847	1	-11
590.017	1	12
590.187	1	-2
590.357	1	10
590.526	1	8
590.696	1	6
590.866	1	6
591.036	1	3
591.205	1	10
591.375	1	-3
591.545	1	-10
591.715	1	11
591.885	1	0
592.054	1	-2
592.224	1	2
592.394	1	1
592.564	1	2
592.733	1	9
592.903	1	10
593.073	1	2
593.243	1	7
593.412	1	-2
593.582	1	-1
593.752	1	-2
593.922	1	5
594.091	1	-5
594.261	1	3
594.431	1	-3
594.601	1	8
594.771	1	1
594.940	1	-2
595.110	1	1
595.280	1	-5
595.450	1	5
595.619	1	5
595.789	1	2
595.959	1	2
596.129	1	-3
596.298	1	-4
596.468	1	3
596.638	1	9
596.808	1	10
596.977	1	-5
597.147	1	1
597.317	1	-4
597.487	1	4
597.656	1	6
597.826	1	4
597.996	1	5
598.166	1	-2
598.335	1	-4
598.505	1	1
598.675	1	-1
598.844	1	8
599.014	1	-8
599.184	1	9
599.354	1	-7
599.523	1	2
599.693	1	0
599.863	1	13
600.033	1	3
600.202	1	7
600.372	1	-1
600.542	1	11
600.712	1	1
600.881	1	1
601.051	1	14
601.221	1	4
601.390	1	-4
601.560	1	-1
601.730	1	0
601.900	1	5
602.069	1	11
602.239	1	1
602.409	1	0
602.578	1	-2
602.748	1	3
602.918	1	9
603.088	1	7
603.257	1	2
603.427	1	-7
603.597	1	4
603.767	1	7
603.936	1	5
604.106	1	5
604.276	1	5
604.445	1	1
604.615	1	1
604.785	1	9
604.954	1	-5
605.124	1	1
605.294	1	-1
605.464	1	-4
605.633	1	4
605.803	1	0
605.973	1	2
606.142	1	4
606.312	1	5
606.482	1	12
606.652	1	7
606.821	1	-7
606.991	1	3
607.161	1	-1
607.330	1	8
607.500	1	-3
607.670	1	-10
607.839	1	12
608.009	1	15
608.179	1	2
608.348	1	5
608.518	1	-3
608.688	1	16
608.858	1	-2
609.027	1	-9
609.197	1	10
609.367	1	11
609.536	1	8
609.706	1	-8
609.876	1	-1
610.045	1	-1
610.215	1	10
610.385	1	2
610.554	1	4
610.724	1	15
610.894	1	3
611.063	1	5
611.233	1	4
611.403	1	2
611.572	1	-2
611.742	1	6
611.912	1	1
612.081	1	0
612.251	1	4
612.421	1	4
612.590	1	4
612.760	1	6
612.930	1	5
613.099	1	-1
613.269	1	14
613.439	1	4
613.608	1	-2
613.778	1	9
613.948	1	-3
614.117	1	4
614.287	1	15
614.457	1	7
614.626	1	5
614.796	1	6
614.966	1	0
615.135	1	-3
615.305	1	14
615.475	1	-6
615.644	1	-2
615.814	1	-2
615.984	1	3
616.153	1	-3
616.323	1	4
616.493	1	10
616.662	1	6
616.832	1	2
617.002	1	2
617.171	1	3
617.341	1	-1
617.511	1	-9
617.680	1	1
617.850	1	8
618.019	1	5
618.189	1	11
618.359	1	0
618.528	1	4
618.698	1	14
618.868	1	1
619.037	1	1
619.207	1	-3
619.377	1	-1
619.546	1	-2
619.716	1	6
619.885	1	5
620.055	1	-5
620.225	1	9
620.394	1	-6
620.564	1	12
620.734	1	4
620.903	1	0
621.073	1	4
621.242	1	11
621.412	1	6
621.582	1	3
621.751	1	2
621.921	1	7
622.091	1	-6
622.260	1	-3
622.430	1	4
622.599	1	8
622.769	1	13
622.939	1	5
623.108	1	4
623.278	1	-7
623.448	1	2
623.617	1	-1
623.787	1	-1
623.956	1	7
624.126	1	3
624.296	1	-5
624.465	1	6
624.635	1	4
624.804	1	5
624.974	1	-4
625.144	1	14
625.313	1	2
625.483	1	4
625.652	1	-2
625.822	1	-4
625.992	1	-6
626.161	1	9
626.331	1	10
626.501	1	2
626.670	1	9
626.840	1	-3
627.009	1	6
627.179	1	9
627.348	1	12
627.518	1	4
627.688	1	2
627.857	1	12
628.027	1	-7
628.196	1	6
628.366	1	7
628.536	1	8
628.705	1	4
628.875	1	3
629.044	1	-5
629.214	1	9
629.384	1	-1
629.553	1	18
629.723	1	-2
629.892	1	3
630.062	1	5
630.232	1	-6
630.401	1	5
630.571	1	7
630.740	1	5
630.910	1	12
631.079	1	3
631.249	1	3
631.419	1	7
631.588	1	-10
631.758	1	8
631.927	1	-2
632.097	1	2
632.266	1	-1
632.436	1	7
632.606	1	-3
632.775	1	15
632.945	1	11
633.114	1	10
633.284	1	-2
633.453	1	-4
633.623	1	-6
633.793	1	3
633.962	1	6
634.132	1	0
634.301	1	1
634.471	1	9
634.640	1	9
634.810	1	7
634.979	1	4
635.149	1	6
635.319	1	4
635.488	1	7
635.658	1	4
635.827	1	1
635.997	1	1
636.166	1	8
636.336	1	-4
636.505	1	2
636.675	1	-2
636.845	1	12
637.014	1	4
637.184	1	15
637.353	1	11
637.523	1	9
637.692	1	15
637.862	1	4
638.031	1	5
638.201	1	6
638.370	1	-1
638.540	1	7
638.710	1	-2
638.879	1	-4
639.049	1	4
639.218	1	3
639.388	1	3
639.557	1	7
639.727	1	3
639.896	1	2
640.066	1	-1
640.235	1	7
640.405	1	8
640.574	1	11
640.744	1	0
640.914	1	-1
641.083	1	3
641.253	1	3
641.422	1	3
641.592	1	7
641.761	1	1
641.931	1	-3
642.100	1	21
642.270	1	-7
642.439	1	8
642.609	1	9
642.778	1	-2
642.948	1	-5
643.117	1	11
643.287	1	4
643.456	1	-7
643.626	1	7
643.795	1	2
643.965	1	12
644.134	1	9
644.304	1	2
644.473	1	2
644.643	1	10
644.812	1	7
644.982	1	8
645.151	1	-2
645.321	1	-5
645.490	1	3
645.660	1	-6
645.829	1	7
645.999	1	0
646.168	1	13
646.338	1	12
646.507	1	6
646.677	1	2
646.846	1	4
647.016	1	-2
647.185	1	10
647.355	1	-9
647.524	1	13
647.694	1	17
647.863	1	17
648.033	1	7
648.202	1	10
648.372	1	-1
648.541	1	1
648.711	1	-2
648.880	1	-1
649.050	1	-2
649.219	1	9
649.389	1	11
649.558	1	6
649.728	1	6
649.897	1	-3
650.067	1	16
650.236	1	11
650.406	1	14
650.575	1	-6
650.745	1	10
650.914	1	3
651.084	1	-4
651.253	1	1
651.423	1	3
651.592	1	-1
651.762	1	10
651.931	1	15
652.101	1	6
652.270	1	12
652.440	1	11
652.609	1	-2
652.778	1	-1
652.948	1	12
653.117	1	2
653.287	1	-5
653.456	1	5
653.626	1	10
653.795	1	1
653.965	1	7
654.134	1	7
654.304	1	-11
654.473	1	10
654.643	1	4
654.812	1	3
654.982	1	-7
655.151	1	-1
655.320	1	14
655.490	1	2
655.659	1	6
655.829	1	-4
655.998	1	5
656.168	1	-1
656.337	1	6
656.507	1	5
656.676	1	13
656.846	1	8
657.015	1	6
657.184	1	14
657.354	1	7
657.523	1	1
657.693	1	8
657.862	1	11
658.032	1	2
658.201	1	4
658.371	1	10
658.540	1	9
658.709	1	3
658.879	1	8
659.048	1	-4
659.218	1	2
659.387	1	8
659.557	1	0
659.726	1	8
659.895	1	3
660.065	1	0
660.234	1	3
660.404	1	7
660.573	1	0
660.743	1	7
660.912	1	6
661.081	1	16
661.251	1	11
661.420	1	8
661.590	1	6
661.759	1	14
661.929	1	6
662.098	1	12
662.267	1	5
662.437	1	9
662.606	1	1
662.776	1	11
662.945	1	12
663.115	1	10
663.284	1	3
663.453	1	9
663.623	1	-7
663.792	1	9
663.962	1	-7
664.131	1	2
664.300	1	13
664.470	1	7
664.639	1	5
664.809	1	3
664.978	1	10
665.148	1	12
665.317	1	2
665.486	1	14
665.656	1	4
665.825	1	9
665.995	1	-2
666.164	1	3
666.333	1	7
666.503	1	5
666.672	1	-10
666.842	1	0
667.011	1	5
667.180	1	3
667.350	1	2
667.519	1	11
667.689	1	3
667.858	1	6
668.027	1	8
668.197	1	1
668.366	1	-1
668.536	1	8
668.705	1	2
668.874	1	9
669.044	1	8
669.213	1	15
669.382	1	-5
669.552	1	17
669.721	1	6
669.891	1	18
670.060	1	6
670.229	1	13
670.399	1	5
670.568	1	12
670.738	1	9
670.907	1	-3
671.076	1	1
671.246	1	1
671.415	1	13
671.584	1	5
671.754	1	0
671.923	1	10
672.093	1	7
672.262	1	1
672.431	1	8
672.601	1	0
672.770	1	-1
672.939	1	4
673.109	1	4
673.278	1	9
673.448	1	16
673.617	1	6
673.786	1	4
