325.333	1	11
325.504	1	7
325.675	1	2
325.846	1	2
326.017	1	6
326.188	1	-2
326.359	1	8
326.531	1	-4
326.702	1	-4
326.873	1	7
327.044	1	4
327.215	1	-9
327.386	1	10
327.557	1	5
327.728	1	3
327.899	1	8
328.070	1	7
328.241	1	5
328.412	1	-13
328.583	1	7
328.754	1	0
328.926	1	12
329.097	1	-2
329.268	1	2
329.439	1	-9
329.610	1	3
329.781	1	-5
329.952	1	8
330.123	1	-5
330.294	1	2
330.465	1	4
330.636	1	9
330.807	1	-5
330.978	1	0
331.149	1	0
331.320	1	0
331.492	1	7
331.663	1	6
331.834	1	12
332.005	1	-4
332.176	1	8
332.347	1	11
332.518	1	4
332.689	1	5
332.860	1	0
333.031	1	8
333.202	1	-4
333.373	1	2
333.544	1	4
333.715	1	9
333.886	1	-5
334.057	1	4
334.228	1	-1
334.399	1	4
334.570	1	5
334.741	1	4
334.912	1	7
335.084	1	13
335.255	1	4
335.426	1	0
335.597	1	5
335.768	1	5
335.939	1	9
336.110	1	5
336.281	1	-4
336.452	1	7
336.623	1	7
336.794	1	11
336.965	1	9
337.136	1	13
337.307	1	2
337.478	1	6
337.649	1	3
337.820	1	-3
337.991	1	7
338.162	1	16
338.333	1	6
338.504	1	6
338.675	1	11
338.846	1	9
339.017	1	8
339.188	1	-1
339.359	1	-7
339.530	1	7
339.701	1	13
339.872	1	17
340.043	1	2
340.214	1	-2
340.385	1	14
340.556	1	0
340.727	1	10
340.898	1	12
341.069	1	5
341.240	1	5
341.411	1	5
341.582	1	0
341.753	1	-4
341.924	1	0
342.095	1	10
342.266	1	8
342.437	1	10
342.608	1	3
342.779	1	1
342.950	1	2
343.121	1	7
343.292	1	2
343.463	1	8
343.634	1	1
343.805	1	9
343.976	1	6
344.147	1	6
344.318	1	4
344.489	1	-2
344.660	1	11
344.831	1	8
345.002	1	-6
345.173	1	9
345.344	1	6
345.515	1	5
345.686	1	9
345.857	1	12
346.028	1	0
346.199	1	-3
346.370	1	8
346.541	1	8
346.712	1	-2
346.883	1	3
347.054	1	3
347.225	1	2
347.396	1	7
347.567	1	9
347.738	1	2
347.909	1	19
348.080	1	3
348.251	1	11
348.422	1	7
348.593	1	7
348.764	1	8
348.935	1	7
349.106	1	5
349.277	1	10
349.448	1	13
349.619	1	8
349.790	1	7
349.961	1	15
350.132	1	13
350.303	1	5
350.474	1	15
350.645	1	11
350.816	1	14
350.987	1	12
351.157	1	5
351.328	1	20
351.499	1	13
351.670	1	5
351.841	1	16
352.012	1	8
352.183	1	16
352.354	1	12
352.525	1	15
352.696	1	13
352.867	1	7
353.038	1	13
353.209	1	20
353.380	1	10
353.551	1	-3
353.722	1	9
353.893	1	-4
354.064	1	18
354.235	1	12
354.406	1	18
354.576	1	4
354.747	1	12
354.918	1	9
355.089	1	19
355.260	1	11
355.431	1	17
355.602	1	9
355.773	1	15
355.944	1	11
356.115	1	7
356.286	1	12
356.457	1	16
356.628	1	9
356.799	1	14
356.970	1	17
357.141	1	9
357.311	1	-3
357.482	1	12
357.653	1	5
357.824	1	8
357.995	1	6
358.166	1	6
358.337	1	15
358.508	1	12
358.679	1	6
358.850	1	9
359.021	1	11
359.192	1	7
359.363	1	4
359.533	1	13
359.704	1	5
359.875	1	4
360.046	1	17
360.217	1	-1
360.388	1	14
360.559	1	13
360.730	1	25
360.901	1	10
361.072	1	27
361.243	1	17
361.414	1	4
361.584	1	4
361.755	1	18
361.926	1	10
362.097	1	-4
362.268	1	11
362.439	1	5
362.610	1	13
362.781	1	7
362.952	1	2
363.123	1	7
363.293	1	6
363.464	1	26
363.635	1	15
363.806	1	9
363.977	1	9
364.148	1	11
364.319	1	16
364.490	1	10
364.661	1	9
364.832	1	13
365.002	1	11
365.173	1	9
365.344	1	21
365.515	1	6
365.686	1	7
365.857	1	12
366.028	1	19
366.199	1	13
366.370	1	12
366.540	1	8
366.711	1	-1
366.882	1	7
367.053	1	4
367.224	1	22
367.395	1	11
367.566	1	14
367.737	1	19
367.908	1	17
368.078	1	9
368.249	1	19
368.420	1	5
368.591	1	13
368.762	1	20
368.933	1	9
369.104	1	1
369.274	1	6
369.445	1	8
369.616	1	12
369.787	1	14
369.958	1	13
370.129	1	5
370.300	1	18
370.471	1	6
370.641	1	14
370.812	1	12
370.983	1	14
371.154	1	5
371.325	1	14
371.496	1	11
371.667	1	16
371.837	1	6
372.008	1	9
372.179	1	12
372.350	1	19
372.521	1	9
372.692	1	12
372.863	1	10
373.033	1	-4
373.204	1	5
373.375	1	13
373.546	1	19
373.717	1	19
373.888	1	19
374.059	1	16
374.229	1	19
374.400	1	7
374.571	1	9
374.742	1	11
374.913	1	22
375.084	1	11
375.254	1	17
375.425	1	9
375.596	1	17
375.767	1	10
375.938	1	15
376.109	1	16
376.279	1	8
376.450	1	8
376.621	1	12
376.792	1	15
376.963	1	11
377.134	1	12
377.304	1	10
377.475	1	10
377.646	1	21
377.817	1	3
377.988	1	6
378.159	1	15
378.329	1	27
378.500	1	15
378.671	1	12
378.842	1	6
379.013	1	3
379.184	1	9
379.354	1	19
379.525	1	7
379.696	1	17
379.867	1	18
380.038	1	14
380.209	1	11
380.379	1	19
380.550	1	8
380.721	1	11
380.892	1	18
381.063	1	24
381.233	1	15
381.404	1	8
381.575	1	17
381.746	1	24
381.917	1	10
382.087	1	19
382.258	1	-3
382.429	1	18
382.600	1	14
382.771	1	16
382.941	1	7
383.112	1	13
383.283	1	16
383.454	1	16
383.625	1	4
383.795	1	11
383.966	1	12
384.137	1	14
384.308	1	17
384.479	1	15
384.649	1	22
384.820	1	19
384.991	1	11
385.162	1	20
385.333	1	4
385.503	1	17
385.674	1	3
385.845	1	20
386.016	1	13
386.187	1	15
386.357	1	20
386.528	1	16
386.699	1	8
386.870	1	23
387.041	1	21
387.211	1	13
387.382	1	29
387.553	1	20
387.724	1	3
387.894	1	25
388.065	1	18
388.236	1	20
388.407	1	8
388.578	1	6
388.748	1	14
388.919	1	17
389.090	1	17
389.261	1	20
389.431	1	25
389.602	1	27
389.773	1	13
389.944	1	19
390.114	1	7
390.285	1	17
390.456	1	13
390.627	1	22
390.798	1	13
390.968	1	22
391.139	1	14
391.310	1	14
391.481	1	19
391.651	1	19
391.822	1	12
391.993	1	19
392.164	1	8
392.334	1	14
392.505	1	11
392.676	1	13
392.847	1	23
393.017	1	19
393.188	1	29
393.359	1	10
393.530	1	18
393.700	1	3
393.871	1	11
394.042	1	12
394.213	1	12
394.383	1	17
394.554	1	19
394.725	1	12
394.896	1	6
395.066	1	17
395.237	1	13
395.408	1	10
395.579	1	13
395.749	1	16
395.920	1	13
396.091	1	23
396.262	1	22
396.432	1	22
396.603	1	15
396.774	1	33
396.945	1	16
397.115	1	10
397.286	1	12
397.457	1	18
397.627	1	12
397.798	1	20
397.969	1	8
398.140	1	14
398.310	1	14
398.481	1	18
398.652	1	22
398.823	1	6
398.993	1	18
399.164	1	16
399.335	1	31
399.505	1	18
399.676	1	14
399.847	1	15
400.018	1	10
400.188	1	9
400.359	1	19
400.530	1	14
400.700	1	8
400.871	1	14
401.042	1	13
401.213	1	14
401.383	1	19
401.554	1	22
401.725	1	18
401.895	1	18
402.066	1	18
402.237	1	16
402.408	1	16
402.578	1	16
402.749	1	16
402.920	1	23
403.090	1	7
403.261	1	24
403.432	1	13
403.603	1	17
403.773	1	26
403.944	1	26
404.115	1	17
404.285	1	25
404.456	1	17
404.627	1	21
404.797	1	15
404.968	1	17
405.139	1	6
405.310	1	33
405.480	1	18
405.651	1	8
405.822	1	20
405.992	1	8
406.163	1	12
406.334	1	11
406.504	1	10
406.675	1	33
406.846	1	21
407.016	1	25
407.187	1	19
407.358	1	11
407.528	1	2
407.699	1	17
407.870	1	11
408.041	1	20
408.211	1	30
408.382	1	3
408.553	1	10
408.723	1	15
408.894	1	16
409.065	1	23
409.235	1	10
409.406	1	22
409.577	1	12
409.747	1	24
409.918	1	17
410.089	1	13
410.259	1	23
410.430	1	5
410.601	1	19
410.771	1	24
410.942	1	24
411.113	1	26
411.283	1	13
411.454	1	22
411.625	1	8
411.795	1	21
411.966	1	23
412.137	1	19
412.307	1	8
412.478	1	12
412.649	1	25
412.819	1	24
412.990	1	21
413.161	1	16
413.331	1	12
413.502	1	28
413.672	1	25
413.843	1	14
414.014	1	23
414.184	1	17
414.355	1	18
414.526	1	16
414.696	1	28
414.867	1	13
415.038	1	10
415.208	1	15
415.379	1	19
415.550	1	18
415.720	1	19
415.891	1	22
416.062	1	15
416.232	1	23
416.403	1	20
416.573	1	24
416.744	1	14
416.915	1	30
417.085	1	19
417.256	1	14
417.427	1	20
417.597	1	16
417.768	1	18
417.939	1	20
418.109	1	18
418.280	1	22
418.450	1	16
418.621	1	6
418.792	1	22
418.962	1	15
419.133	1	33
419.304	1	6
419.474	1	11
419.645	1	18
419.815	1	17
419.986	1	22
420.157	1	22
420.327	1	22
420.498	1	24
420.669	1	15
420.839	1	30
421.010	1	33
421.180	1	20
421.351	1	15
421.522	1	18
421.692	1	22
421.863	1	27
422.033	1	25
422.204	1	18
422.375	1	11
422.545	1	21
422.716	1	12
422.886	1	25
423.057	1	27
423.228	1	23
423.398	1	5
423.569	1	20
423.740	1	19
423.910	1	17
424.081	1	24
424.251	1	12
424.422	1	22
424.593	1	4
424.763	1	20
424.934	1	15
425.104	1	16
425.275	1	20
425.445	1	19
425.616	1	17
425.787	1	5
425.957	1	23
426.128	1	22
426.298	1	24
426.469	1	1
426.640	1	13
426.810	1	19
426.981	1	13
427.151	1	16
427.322	1	31
427.493	1	19
427.663	1	20
427.834	1	9
428.004	1	21
428.175	1	22
428.345	1	11
428.516	1	5
428.687	1	16
428.857	1	8
429.028	1	15
429.198	1	18
429.369	1	24
429.540	1	17
429.710	1	8
429.881	1	19
430.051	1	15
430.222	1	23
430.392	1	12
430.563	1	27
430.734	1	25
430.904	1	12
431.075	1	25
431.245	1	11
431.416	1	25
431.586	1	16
431.757	1	26
431.927	1	18
432.098	1	20
432.269	1	15
432.439	1	20
432.610	1	12
432.780	1	27
432.951	1	16
433.121	1	22
433.292	1	30
433.462	1	29
433.633	1	19
433.804	1	20
433.974	1	17
434.145	1	36
434.315	1	15
434.486	1	9
434.656	1	25
434.827	1	12
434.997	1	8
435.168	1	26
435.339	1	23
435.509	1	9
435.680	1	12
435.850	1	9
436.021	1	17
436.191	1	12
436.362	1	23
436.532	1	19
436.703	1	18
436.873	1	14
437.044	1	9
437.214	1	18
437.385	1	8
437.556	1	15
437.726	1	23
437.897	1	20
438.067	1	15
438.238	1	19
438.408	1	21
438.579	1	17
438.749	1	25
438.920	1	13
439.090	1	16
439.261	1	9
439.431	1	7
439.602	1	13
439.772	1	7
439.943	1	21
440.113	1	18
440.284	1	10
440.455	1	10
440.625	1	18
440.796	1	19
440.966	1	7
441.137	1	8
441.307	1	9
441.478	1	21
441.648	1	16
441.819	1	20
441.989	1	15
442.160	1	16
442.330	1	12
442.501	1	19
442.671	1	10
442.842	1	-2
443.012	1	14
443.183	1	19
443.353	1	-3
443.524	1	14
443.694	1	20
443.865	1	8
444.035	1	17
444.206	1	18
444.376	1	7
444.547	1	28
444.717	1	17
444.888	1	12
445.058	1	21
445.229	1	15
445.399	1	17
445.570	1	11
445.740	1	14
445.911	1	16
446.081	1	3
446.252	1	22
446.422	1	14
446.593	1	14
446.763	1	16
446.934	1	11
447.104	1	21
447.275	1	17
447.445	1	18
447.616	1	10
447.786	1	11
447.957	1	7
448.127	1	14
448.298	1	11
448.468	1	10
448.639	1	16
448.809	1	18
448.979	1	8
449.150	1	21
449.320	1	17
449.491	1	15
449.661	1	12
449.832	1	10
450.002	1	20
450.173	1	15
450.343	1	12
450.514	1	14
450.684	1	6
450.855	1	13
451.025	1	23
451.196	1	9
451.366	1	14
451.537	1	6
451.707	1	3
451.878	1	11
452.048	1	14
452.218	1	20
452.389	1	16
452.559	1	9
452.730	1	18
452.900	1	16
453.071	1	2
453.241	1	15
453.412	1	5
453.582	1	10
453.753	1	19
453.923	1	19
454.093	1	24
454.264	1	30
454.434	1	9
454.605	1	16
454.775	1	10
454.946	1	12
455.116	1	21
455.287	1	0
455.457	1	7
455.628	1	13
455.798	1	27
455.968	1	21
456.139	1	19
456.309	1	7
456.480	1	9
456.650	1	11
456.821	1	6
456.991	1	16
457.161	1	14
457.332	1	21
457.502	1	7
457.673	1	13
457.843	1	21
458.014	1	3
458.184	1	5
458.355	1	15
458.525	1	16
458.695	1	16
458.866	1	7
459.036	1	12
459.207	1	12
459.377	1	9
459.548	1	16
459.718	1	11
459.888	1	13
460.059	1	17
460.229	1	18
460.400	1	18
460.570	1	6
460.740	1	11
460.911	1	12
461.081	1	8
461.252	1	1
461.422	1	18
461.593	1	10
461.763	1	11
461.933	1	16
462.104	1	4
462.274	1	9
462.445	1	11
462.615	1	14
462.785	1	14
462.956	1	14
463.126	1	12
463.297	1	13
463.467	1	14
463.638	1	16
463.808	1	7
463.978	1	7
464.149	1	2
464.319	1	4
464.490	1	21
464.660	1	4
464.830	1	8
465.001	1	15
465.171	1	10
465.342	1	11
465.512	1	8
465.682	1	18
465.853	1	15
466.023	1	12
466.194	1	2
466.364	1	13
466.534	1	20
466.705	1	12
466.875	1	5
467.045	1	1
467.216	1	20
467.386	1	5
467.557	1	9
467.727	1	0
467.897	1	5
468.068	1	12
468.238	1	14
468.409	1	15
468.579	1	22
468.749	1	10
468.920	1	6
469.090	1	17
469.260	1	-5
469.431	1	5
469.601	1	20
469.772	1	6
469.942	1	-4
470.112	1	9
470.283	1	3
470.453	1	11
470.623	1	5
470.794	1	16
470.964	1	6
471.135	1	21
471.305	1	8
471.475	1	21
471.646	1	5
471.816	1	8
471.986	1	3
472.157	1	26
472.327	1	8
472.497	1	10
472.668	1	-6
472.838	1	5
473.009	1	13
473.179	1	3
473.349	1	1
473.520	1	5
473.690	1	11
473.860	1	11
474.031	1	13
474.201	1	6
474.371	1	13
474.542	1	12
474.712	1	11
474.882	1	14
475.053	1	17
475.223	1	-4
475.394	1	15
475.564	1	5
475.734	1	13
475.905	1	19
476.075	1	16
476.245	1	12
476.416	1	14
476.586	1	12
476.756	1	15
476.927	1	8
477.097	1	18
477.267	1	8
477.438	1	12
477.608	1	5
477.778	1	13
477.949	1	9
478.119	1	24
478.289	1	17
478.460	1	21
478.630	1	8
478.800	1	13
478.971	1	1
479.141	1	9
479.311	1	-1
479.482	1	6
479.652	1	2
479.822	1	11
479.993	1	15
480.163	1	15
480.333	1	7
480.504	1	8
480.674	1	6
480.844	1	6
481.015	1	20
481.185	1	4
481.355	1	9
481.525	1	11
481.696	1	15
481.866	1	0
482.036	1	12
482.207	1	2
482.377	1	10
482.547	1	18
482.718	1	12
482.888	1	0
483.058	1	3
483.229	1	-3
483.399	1	7
483.569	1	7
483.740	1	16
483.910	1	19
484.080	1	8
484.250	1	8
484.421	1	5
484.591	1	8
484.761	1	16
484.932	1	9
485.102	1	7
485.272	1	12
485.443	1	13
485.613	1	17
485.783	1	5
485.953	1	-1
486.124	1	14
486.294	1	13
486.464	1	17
486.635	1	11
486.805	1	12
486.975	1	5
487.146	1	5
487.316	1	11
487.486	1	16
487.656	1	6
487.827	1	9
487.997	1	-1
488.167	1	5
488.338	1	11
488.508	1	5
488.678	1	11
488.848	1	11
489.019	1	2
489.189	1	13
489.359	1	10
489.529	1	21
489.700	1	8
489.870	1	22
490.040	1	11
490.211	1	1
490.381	1	9
490.551	1	6
490.721	1	19
490.892	1	12
491.062	1	15
491.232	1	14
491.402	1	10
491.573	1	-5
491.743	1	12
491.913	1	3
492.084	1	15
492.254	1	5
492.424	1	7
492.594	1	8
492.765	1	15
492.935	1	5
493.105	1	6
493.275	1	14
493.446	1	19
493.616	1	16
493.786	1	-3
493.956	1	1
494.127	1	1
494.297	1	3
494.467	1	5
494.637	1	1
494.808	1	6
494.978	1	-3
495.148	1	7
495.318	1	3
495.489	1	10
495.659	1	20
495.829	1	0
495.999	1	7
496.170	1	14
496.340	1	7
496.510	1	3
496.680	1	1
496.851	1	3
497.021	1	5
497.191	1	-1
497.361	1	7
497.532	1	8
497.702	1	6
497.872	1	8
498.042	1	6
498.213	1	9
498.383	1	9
498.553	1	5
498.723	1	1
498.894	1	3
499.064	1	3
499.234	1	9
499.404	1	5
499.574	1	9
499.745	1	9
499.915	1	7
500.085	1	9
500.255	1	12
500.426	1	7
500.596	1	5
500.766	1	3
500.936	1	10
501.106	1	-1
501.277	1	7
501.447	1	6
501.617	1	11
501.787	1	5
501.958	1	-2
502.128	1	5
502.298	1	11
502.468	1	8
502.638	1	4
502.809	1	0
502.979	1	0
503.149	1	-7
503.319	1	-4
503.489	1	3
503.660	1	12
503.830	1	8
504.000	1	13
504.170	1	1
504.340	1	-4
504.511	1	10
504.681	1	7
504.851	1	16
505.021	1	8
505.192	1	-7
505.362	1	12
505.532	1	7
505.702	1	7
505.872	1	3
506.043	1	0
506.213	1	0
506.383	1	-1
506.553	1	12
506.723	1	10
506.893	1	8
507.064	1	18
507.234	1	3
507.404	1	6
507.574	1	-4
507.744	1	6
507.915	1	3
508.085	1	19
508.255	1	1
508.425	1	-5
508.595	1	8
508.766	1	11
508.936	1	6
509.106	1	15
509.276	1	9
509.446	1	0
509.616	1	3
509.787	1	3
509.957	1	9
510.127	1	4
510.297	1	6
510.467	1	-6
510.638	1	7
510.808	1	-2
510.978	1	-1
511.148	1	-1
511.318	1	1
511.488	1	3
511.659	1	11
511.829	1	-5
511.999	1	5
512.169	1	11
512.339	1	7
512.509	1	9
512.680	1	-7
512.850	1	3
513.020	1	13
513.190	1	7
513.360	1	-4
513.530	1	2
513.700	1	5
513.871	1	0
514.041	1	12
514.211	1	17
514.381	1	2
514.551	1	3
514.721	1	2
514.892	1	5
515.062	1	10
515.232	1	2
515.402	1	-10
515.572	1	-8
515.742	1	9
515.912	1	1
516.083	1	-1
516.253	1	10
516.423	1	1
516.593	1	7
516.763	1	13
516.933	1	-6
517.104	1	6
517.274	1	6
517.444	1	9
517.614	1	-7
517.784	1	-8
517.954	1	1
518.124	1	8
518.294	1	-3
518.465	1	4
518.635	1	6
518.805	1	-7
518.975	1	5
519.145	1	-4
519.315	1	1
519.485	1	1
519.656	1	11
519.826	1	10
519.996	1	-4
520.166	1	1
520.336	1	9
520.506	1	0
520.676	1	0
520.846	1	11
521.017	1	6
521.187	1	8
521.357	1	9
521.527	1	5
521.697	1	5
521.867	1	-3
522.037	1	17
522.207	1	16
522.377	1	14
522.548	1	12
522.718	1	12
522.888	1	19
523.058	1	-1
523.228	1	5
523.398	1	3
523.568	1	8
523.738	1	12
523.909	1	13
524.079	1	0
524.249	1	2
524.419	1	8
524.589	1	0
524.759	1	-6
524.929	1	2
525.099	1	10
525.269	1	4
525.439	1	-1
525.610	1	24
525.780	1	6
525.950	1	8
526.120	1	-1
526.290	1	4
526.460	1	-5
526.630	1	4
526.800	1	-8
526.970	1	-1
527.140	1	12
527.311	1	-1
527.481	1	-5
527.651	1	5
527.821	1	-1
527.991	1	12
528.161	1	9
528.331	1	0
528.501	1	5
528.671	1	3
528.841	1	5
529.011	1	4
529.181	1	11
529.352	1	1
529.522	1	-4
529.692	1	0
529.862	1	5
530.032	1	1
530.202	1	7
530.372	1	1
530.542	1	9
530.712	1	5
530.882	1	2
531.052	1	11
531.222	1	-1
531.392	1	8
531.563	1	0
531.733	1	-1
531.903	1	3
532.073	1	11
532.243	1	1
532.413	1	6
532.583	1	4
532.753	1	5
532.923	1	-6
533.093	1	8
533.263	1	0
533.433	1	1
533.603	1	9
533.773	1	4
533.943	1	-1
534.113	1	-3
534.284	1	2
534.454	1	8
534.624	1	12
534.794	1	-12
534.964	1	9
535.134	1	3
535.304	1	7
535.474	1	18
535.644	1	-5
535.814	1	-2
535.984	1	-3
536.154	1	-5
536.324	1	1
536.494	1	5
536.664	1	11
536.834	1	5
537.004	1	-1
537.174	1	6
537.344	1	3
537.514	1	0
537.685	1	7
537.855	1	8
538.025	1	8
538.195	1	2
538.365	1	14
538.535	1	-5
538.705	1	6
538.875	1	4
539.045	1	10
539.215	1	4
539.385	1	6
539.555	1	8
539.725	1	4
539.895	1	2
540.065	1	9
540.235	1	10
540.405	1	-4
540.575	1	9
540.745	1	1
540.915	1	5
541.085	1	6
541.255	1	-4
541.425	1	2
541.595	1	4
541.765	1	10
541.935	1	2
542.105	1	-11
542.275	1	4
542.445	1	-8
542.615	1	5
542.785	1	7
542.955	1	8
543.125	1	3
543.295	1	-3
543.465	1	2
543.635	1	4
543.805	1	12
543.975	1	-1
544.145	1	7
544.315	1	2
544.485	1	9
544.655	1	4
544.825	1	-2
544.995	1	13
545.165	1	-2
545.335	1	3
545.505	1	0
545.675	1	7
545.845	1	4
546.015	1	0
546.185	1	8
546.355	1	2
546.525	1	1
546.695	1	5
546.865	1	1
547.035	1	7
547.205	1	-10
547.375	1	8
547.545	1	7
547.715	1	4
547.885	1	8
548.055	1	-6
548.225	1	3
548.395	1	0
548.565	1	3
548.735	1	7
548.905	1	-1
549.075	1	6
549.245	1	-3
549.415	1	-5
549.585	1	11
549.755	1	14
549.925	1	-10
550.095	1	4
550.265	1	-2
550.435	1	-2
550.605	1	0
550.775	1	0
550.945	1	7
551.115	1	-2
551.285	1	3
551.455	1	-7
551.625	1	12
551.795	1	4
551.965	1	-5
552.135	1	2
552.305	1	0
552.475	1	-12
552.645	1	-1
552.815	1	3
552.985	1	8
553.155	1	12
553.325	1	6
553.495	1	2
553.665	1	1
553.835	1	-6
554.004	1	0
554.174	1	-7
554.344	1	-5
554.514	1	4
554.684	1	5
554.854	1	10
555.024	1	-2
555.194	1	-8
555.364	1	10
555.534	1	8
555.704	1	1
555.874	1	7
556.044	1	3
556.214	1	0
556.384	1	-3
556.554	1	10
556.724	1	4
556.894	1	-2
557.064	1	14
557.234	1	0
557.404	1	10
557.573	1	-1
557.743	1	-2
557.913	1	-7
558.083	1	-8
558.253	1	7
558.423	1	6
558.593	1	2
558.763	1	-3
558.933	1	8
559.103	1	6
559.273	1	4
559.443	1	1
559.613	1	9
559.783	1	-3
559.953	1	3
560.122	1	14
560.292	1	11
560.462	1	-1
560.632	1	7
560.802	1	7
560.972	1	5
561.142	1	5
561.312	1	-5
561.482	1	0
561.652	1	12
561.822	1	-10
561.992	1	-4
562.162	1	-4
562.331	1	6
562.501	1	0
562.671	1	-3
562.841	1	2
563.011	1	12
563.181	1	-3
563.351	1	-8
563.521	1	4
563.691	1	0
563.861	1	10
564.031	1	4
564.201	1	5
564.370	1	-6
564.540	1	7
564.710	1	-6
564.880	1	12
565.050	1	5
565.220	1	0
565.390	1	1
565.560	1	12
565.730	1	-4
565.900	1	7
566.069	1	4
566.239	1	4
566.409	1	10
566.579	1	13
566.749	1	9
566.919	1	-3
567.089	1	2
567.259	1	9
567.429	1	-1
567.599	1	1
567.768	1	4
567.938	1	9
568.108	1	3
568.278	1	8
568.448	1	-11
568.618	1	-6
568.788	1	7
568.958	1	13
569.128	1	7
569.297	1	-5
569.467	1	-1
569.637	1	6
569.807	1	14
569.977	1	9
570.147	1	9
570.317	1	-8
570.487	1	1
570.656	1	11
570.826	1	6
570.996	1	1
571.166	1	12
571.336	1	-2
571.506	1	8
571.676	1	1
571.846	1	13
572.015	1	7
572.185	1	5
572.355	1	-4
572.525	1	9
572.695	1	-3
572.865	1	1
573.035	1	2
573.205	1	7
573.374	1	-7
573.544	1	6
573.714	1	6
573.884	1	5
574.054	1	2
574.224	1	6
574.394	1	2
574.563	1	-2
574.733	1	-4
574.903	1	-7
575.073	1	6
575.243	1	1
575.413	1	7
575.583	1	-7
575.752	1	13
575.922	1	4
576.092	1	-1
576.262	1	11
576.432	1	6
576.602	1	1
576.772	1	9
576.941	1	13
577.111	1	-7
577.281	1	-4
577.451	1	-6
577.621	1	0
577.791	1	7
577.960	1	-1
578.130	1	-1
578.300	1	8
578.470	1	16
578.640	1	-1
578.810	1	3
578.979	1	5
579.149	1	1
579.319	1	-5
579.489	1	1
579.659	1	4
579.829	1	7
579.998	1	6
580.168	1	12
580.338	1	4
580.508	1	6
580.678	1	0
580.848	1	-2
581.017	1	9
581.187	1	6
581.357	1	-5
581.527	1	6
581.697	1	6
581.867	1	9
582.036	1	-1
582.206	1	4
582.376	1	1
582.546	1	-4
582.716	1	3
582.885	1	-7
583.055	1	4
583.225	1	-8
583.395	1	8
583.565	1	-5
583.735	1	7
583.904	1	8
584.074	1	12
584.244	1	0
584.414	1	-1
584.584	1	-2
584.753	1	-3
584.923	1	-5
585.093	1	-3
585.263	1	3
585.433	1	7
585.602	1	-8
585.772	1	-4
585.942	1	2
586.112	1	7
586.282	1	4
586.451	1	-7
586.621	1	-3
586.791	1	-3
586.961	1	-4
587.131	1	13
587.300	1	-9
587.470	1	9
587.640	1	8
587.810	1	-9
587.980	1	1
588.149	1	-3
588.319	1	8
588.489	1	0
588.659	1	-6
588.829	1	0
588.998	1	7
589.168	1	11
589.338	1	4
589.508	1	5
589.677	1	-4
589.847	1	2
590.017	1	11
590.187	1	0
590.357	1	7
590.526	1	12
590.696	1	8
590.866	1	4
591.036	1	0
591.205	1	15
591.375	1	-7
591.545	1	-2
591.715	1	0
591.885	1	0
592.054	1	-1
592.224	1	-2
592.394	1	9
592.564	1	-3
592.733	1	7
592.903	1	-2
593.073	1	-1
593.243	1	8
593.412	1	5
593.582	1	-4
593.752	1	2
593.922	1	1
594.091	1	5
594.261	1	-10
594.431	1	4
594.601	1	8
594.771	1	2
594.940	1	2
595.110	1	-3
595.280	1	16
595.450	1	-6
595.619	1	-2
595.789	1	-6
595.959	1	4
596.129	1	-1
596.298	1	-12
596.468	1	1
596.638	1	1
596.808	1	7
596.977	1	10
597.147	1	10
597.317	1	2
597.487	1	8
597.656	1	3
597.826	1	5
597.996	1	-2
598.166	1	1
598.335	1	-10
598.505	1	-5
598.675	1	4
598.844	1	-7
599.014	1	6
599.184	1	-4
599.354	1	-2
599.523	1	10
599.693	1	-3
599.863	1	10
600.033	1	-1
600.202	1	7
600.372	1	3
600.542	1	13
600.712	1	1
600.881	1	0
601.051	1	9
601.221	1	4
601.390	1	-4
601.560	1	8
601.730	1	14
601.900	1	6
602.069	1	8
602.239	1	-6
602.409	1	-2
602.578	1	7
602.748	1	2
602.918	1	5
603.088	1	1
603.257	1	-2
603.427	1	1
603.597	1	-3
603.767	1	4
603.936	1	10
604.106	1	-6
604.276	1	0
604.445	1	6
604.615	1	-9
604.785	1	-6
604.954	1	4
605.124	1	3
605.294	1	-3
605.464	1	-2
605.633	1	4
605.803	1	8
605.973	1	1
606.142	1	6
606.312	1	-2
606.482	1	-2
606.652	1	7
606.821	1	-2
606.991	1	-1
607.161	1	-6
607.330	1	2
607.500	1	1
607.670	1	-8
607.839	1	7
608.009	1	10
608.179	1	8
608.348	1	-2
608.518	1	-1
608.688	1	5
608.858	1	-10
609.027	1	-2
609.197	1	1
609.367	1	7
609.536	1	11
609.706	1	3
609.876	1	-1
610.045	1	-3
610.215	1	1
610.385	1	-1
610.554	1	7
610.724	1	5
610.894	1	-3
611.063	1	5
611.233	1	3
611.403	1	2
611.572	1	1
611.742	1	7
611.912	1	-6
612.081	1	6
612.251	1	11
612.421	1	-1
612.590	1	-11
612.760	1	2
612.930	1	2
613.099	1	11
613.269	1	12
613.439	1	7
613.608	1	-3
613.778	1	10
613.948	1	5
614.117	1	-1
614.287	1	4
614.457	1	9
614.626	1	3
614.796	1	6
614.966	1	-3
615.135	1	-8
615.305	1	11
615.475	1	3
615.644	1	11
615.814	1	4
615.984	1	-8
616.153	1	-6
616.323	1	-1
616.493	1	-4
616.662	1	12
616.832	1	8
617.002	1	-3
617.171	1	4
617.341	1	1
617.511	1	-6
617.680	1	-5
617.850	1	-3
618.019	1	14
618.189	1	7
618.359	1	5
618.528	1	-2
618.698	1	7
618.868	1	-3
619.037	1	2
619.207	1	-1
619.377	1	-7
619.546	1	-2
619.716	1	-6
619.885	1	4
620.055	1	1
620.225	1	15
620.394	1	-3
620.564	1	19
620.734	1	15
620.903	1	-7
621.073	1	14
621.242	1	5
621.412	1	-2
621.582	1	0
621.751	1	-1
621.921	1	2
622.091	1	3
622.260	1	3
622.430	1	11
622.599	1	-6
622.769	1	7
622.939	1	12
623.108	1	1
623.278	1	3
623.448	1	9
623.617	1	-3
623.787	1	1
623.956	1	7
624.126	1	7
624.296	1	0
624.465	1	8
624.635	1	11
624.804	1	8
624.974	1	0
625.144	1	5
625.313	1	-4
625.483	1	-2
625.652	1	0
625.822	1	-1
625.992	1	6
626.161	1	7
626.331	1	7
626.501	1	4
626.670	1	-2
626.840	1	0
627.009	1	-2
627.179	1	10
627.348	1	3
627.518	1	6
627.688	1	2
627.857	1	4
628.027	1	3
628.196	1	3
628.366	1	3
628.536	1	9
628.705	1	3
628.875	1	-1
629.044	1	4
629.214	1	5
629.384	1	8
629.553	1	17
629.723	1	4
629.892	1	4
630.062	1	5
630.232	1	4
630.401	1	9
630.571	1	-1
630.740	1	9
630.910	1	6
631.079	1	6
631.249	1	2
631.419	1	11
631.588	1	-5
631.758	1	7
631.927	1	-5
632.097	1	11
632.266	1	0
632.436	1	12
632.606	1	-12
632.775	1	7
632.945	1	11
633.114	1	1
633.284	1	5
633.453	1	-7
633.623	1	0
633.793	1	9
633.962	1	1
634.132	1	8
634.301	1	1
634.471	1	9
634.640	1	6
634.810	1	3
634.979	1	10
635.149	1	0
635.319	1	5
635.488	1	9
635.658	1	0
635.827	1	-1
635.997	1	7
636.166	1	10
636.336	1	2
636.505	1	6
636.675	1	-5
636.845	1	7
637.014	1	3
637.184	1	7
637.353	1	3
637.523	1	12
637.692	1	2
637.862	1	7
638.031	1	5
638.201	1	9
638.370	1	-2
638.540	1	6
638.710	1	-4
638.879	1	-12
639.049	1	1
639.218	1	4
639.388	1	-3
639.557	1	6
639.727	1	8
639.896	1	4
640.066	1	-4
640.235	1	6
640.405	1	10
640.574	1	-2
640.744	1	-1
640.914	1	-7
641.083	1	2
641.253	1	3
641.422	1	12
641.592	1	16
641.761	1	7
641.931	1	8
642.100	1	20
642.270	1	-10
642.439	1	8
642.609	1	7
642.778	1	6
642.948	1	2
643.117	1	9
643.287	1	4
643.456	1	0
643.626	1	12
643.795	1	9
643.965	1	8
644.134	1	2
644.304	1	0
644.473	1	5
644.643	1	6
644.812	1	12
644.982	1	8
645.151	1	5
645.321	1	-2
645.490	1	12
645.660	1	-5
645.829	1	2
645.999	1	2
646.168	1	11
646.338	1	2
646.507	1	2
646.677	1	7
646.846	1	2
647.016	1	-16
647.185	1	2
647.355	1	-9
647.524	1	9
647.694	1	18
647.863	1	8
648.033	1	12
648.202	1	11
648.372	1	-4
648.541	1	-1
648.711	1	2
648.880	1	0
649.050	1	-3
649.219	1	8
649.389	1	6
649.558	1	0
649.728	1	7
649.897	1	-6
650.067	1	7
650.236	1	4
650.406	1	7
650.575	1	13
650.745	1	9
650.914	1	-3
651.084	1	-12
651.253	1	5
651.423	1	7
651.592	1	-4
651.762	1	-6
651.931	1	10
652.101	1	6
652.270	1	5
652.440	1	9
652.609	1	-10
652.778	1	1
652.948	1	7
653.117	1	5
653.287	1	6
653.456	1	7
653.626	1	17
653.795	1	5
653.965	1	7
654.134	1	7
654.304	1	-9
654.473	1	11
654.643	1	17
654.812	1	6
654.982	1	12
655.151	1	6
655.320	1	3
655.490	1	-1
655.659	1	-1
655.829	1	-3
655.998	1	6
656.168	1	2
656.337	1	8
656.507	1	3
656.676	1	4
656.846	1	7
657.015	1	9
657.184	1	10
657.354	1	5
657.523	1	6
657.693	1	7
657.862	1	5
658.032	1	8
658.201	1	3
658.371	1	15
658.540	1	6
658.709	1	1
658.879	1	7
659.048	1	5
659.218	1	-4
659.387	1	6
659.557	1	5
659.726	1	10
659.895	1	5
660.065	1	-6
660.234	1	5
660.404	1	1
660.573	1	-13
660.743	1	3
660.912	1	6
661.081	1	10
661.251	1	7
661.420	1	7
661.590	1	7
661.759	1	10
661.929	1	5
662.098	1	3
662.267	1	-1
662.437	1	10
662.606	1	0
662.776	1	4
662.945	1	1
663.115	1	5
663.284	1	-3
663.453	1	4
663.623	1	-8
663.792	1	6
663.962	1	3
664.131	1	8
664.300	1	7
664.470	1	3
664.639	1	3
664.809	1	3
664.978	1	8
665.148	1	6
665.317	1	-1
665.486	1	11
665.656	1	0
665.825	1	11
665.995	1	0
666.164	1	10
666.333	1	9
666.503	1	3
666.672	1	5
666.842	1	6
667.011	1	0
667.180	1	11
667.350	1	3
667.519	1	8
667.689	1	1
667.858	1	10
668.027	1	7
668.197	1	5
668.366	1	-6
668.536	1	15
668.705	1	2
668.874	1	1
669.044	1	-7
669.213	1	10
669.382	1	2
669.552	1	7
669.721	1	15
669.891	1	7
670.060	1	10
670.229	1	16
670.399	1	3
670.568	1	10
670.738	1	17
670.907	1	-4
671.076	1	4
671.246	1	5
671.415	1	7
671.584	1	4
671.754	1	-4
671.923	1	6
672.093	1	0
672.262	1	8
672.431	1	3
672.601	1	-5
672.770	1	-6
672.939	1	9
673.109	1	-2
673.278	1	5
673.448	1	2
673.617	1	5
673.786	1	8
