325.333	1	9
325.504	1	1
325.675	1	-2
325.846	1	2
326.017	1	-1
326.188	1	-1
326.359	1	2
326.531	1	-4
326.702	1	7
326.873	1	15
327.044	1	4
327.215	1	-2
327.386	1	6
327.557	1	8
327.728	1	14
327.899	1	6
328.070	1	10
328.241	1	5
328.412	1	-11
328.583	1	10
328.754	1	4
328.926	1	9
329.097	1	-7
329.268	1	9
329.439	1	-1
329.610	1	-6
329.781	1	-15
329.952	1	14
330.123	1	1
330.294	1	-3
330.465	1	-1
330.636	1	15
330.807	1	-4
330.978	1	1
331.149	1	2
331.320	1	8
331.492	1	-1
331.663	1	1
331.834	1	13
332.005	1	7
332.176	1	21
332.347	1	11
332.518	1	-10
332.689	1	12
332.860	1	1
333.031	1	2
333.202	1	3
333.373	1	3
333.544	1	5
333.715	1	4
333.886	1	-4
334.057	1	4
334.228	1	-6
334.399	1	6
334.570	1	12
334.741	1	-5
334.912	1	5
335.084	1	18
335.255	1	18
335.426	1	2
335.597	1	1
335.768	1	-4
335.939	1	7
336.110	1	3
336.281	1	-2
336.452	1	3
336.623	1	-2
336.794	1	-1
336.965	1	1
337.136	1	7
337.307	1	0
337.478	1	6
337.649	1	2
337.820	1	2
337.991	1	-3
338.162	1	2
338.333	1	2
338.504	1	5
338.675	1	1
338.846	1	2
339.017	1	0
339.188	1	-7
339.359	1	0
339.530	1	-8
339.701	1	9
339.872	1	16
340.043	1	0
340.214	1	5
340.385	1	10
340.556	1	-8
340.727	1	6
340.898	1	15
341.069	1	6
341.240	1	-4
341.411	1	8
341.582	1	16
341.753	1	-5
341.924	1	-1
342.095	1	6
342.266	1	10
342.437	1	11
342.608	1	2
342.779	1	5
342.950	1	3
343.121	1	11
343.292	1	-4
343.463	1	0
343.634	1	1
343.805	1	9
343.976	1	13
344.147	1	6
344.318	1	4
344.489	1	-3
344.660	1	7
344.831	1	10
345.002	1	1
345.173	1	16
345.344	1	2
345.515	1	13
345.686	1	2
345.857	1	7
346.028	1	2
346.199	1	1
346.370	1	5
346.541	1	13
346.712	1	-4
346.883	1	10
347.054	1	1
347.225	1	11
347.396	1	1
347.567	1	0
347.738	1	3
347.909	1	17
348.080	1	-7
348.251	1	7
348.422	1	8
348.593	1	11
348.764	1	3
348.935	1	11
349.106	1	-8
349.277	1	4
349.448	1	15
349.619	1	7
349.790	1	13
349.961	1	15
350.132	1	10
350.303	1	7
350.474	1	7
350.645	1	7
350.816	1	6
350.987	1	11
351.157	1	4
351.328	1	11
351.499	1	9
351.670	1	-2
351.841	1	13
352.012	1	11
352.183	1	11
352.354	1	16
352.525	1	13
352.696	1	15
352.867	1	-1
353.038	1	11
353.209	1	14
353.380	1	6
353.551	1	-4
353.722	1	12
353.893	1	7
354.064	1	13
354.235	1	8
354.406	1	4
354.576	1	11
354.747	1	-1
354.918	1	5
355.089	1	11
355.260	1	10
355.431	1	16
355.602	1	1
355.773	1	15
355.944	1	12
356.115	1	6
356.286	1	12
356.457	1	8
356.628	1	10
356.799	1	5
356.970	1	18
357.141	1	3
357.311	1	8
357.482	1	8
357.653	1	15
357.824	1	16
357.995	1	8
358.166	1	-7
358.337	1	7
358.508	1	11
358.679	1	8
358.850	1	13
359.021	1	6
359.192	1	10
359.363	1	6
359.533	1	9
359.704	1	9
359.875	1	3
360.046	1	11
360.217	1	-4
360.388	1	15
360.559	1	4
360.730	1	11
360.901	1	9
361.072	1	21
361.243	1	9
361.414	1	13
361.584	1	3
361.755	1	9
361.926	1	20
362.097	1	15
362.268	1	14
362.439	1	-3
362.610	1	15
362.781	1	-5
362.952	1	0
363.123	1	3
363.293	1	2
363.464	1	11
363.635	1	14
363.806	1	13
363.977	1	3
364.148	1	9
364.319	1	12
364.490	1	19
364.661	1	4
364.832	1	12
365.002	1	8
365.173	1	10
365.344	1	17
365.515	1	0
365.686	1	4
365.857	1	17
366.028	1	19
366.199	1	9
366.370	1	12
366.540	1	-7
366.711	1	-8
366.882	1	-4
367.053	1	4
367.224	1	15
367.395	1	13
367.566	1	9
367.737	1	24
367.908	1	16
368.078	1	13
368.249	1	13
368.420	1	4
368.591	1	0
368.762	1	11
368.933	1	5
369.104	1	7
369.274	1	11
369.445	1	4
369.616	1	10
369.787	1	12
369.958	1	22
370.129	1	-3
370.300	1	17
370.471	1	13
370.641	1	12
370.812	1	17
370.983	1	7
371.154	1	3
371.325	1	16
371.496	1	10
371.667	1	10
371.837	1	4
372.008	1	13
372.179	1	3
372.350	1	14
372.521	1	9
372.692	1	13
372.863	1	10
373.033	1	2
373.204	1	11
373.375	1	5
373.546	1	17
373.717	1	15
373.888	1	31
374.059	1	7
374.229	1	12
374.400	1	2
374.571	1	11
374.742	1	13
374.913	1	12
375.084	1	8
375.254	1	17
375.425	1	13
375.596	1	5
375.767	1	6
375.938	1	11
376.109	1	11
376.279	1	8
376.450	1	11
376.621	1	11
376.792	1	7
376.963	1	11
377.134	1	24
377.304	1	9
377.475	1	5
377.646	1	13
377.817	1	6
377.988	1	15
378.159	1	14
378.329	1	13
378.500	1	13
378.671	1	10
378.842	1	10
379.013	1	4
379.184	1	8
379.354	1	2
379.525	1	8
379.696	1	15
379.867	1	20
380.038	1	11
380.209	1	10
380.379	1	13
380.550	1	3
380.721	1	16
380.892	1	20
381.063	1	9
381.233	1	8
381.404	1	14
381.575	1	18
381.746	1	14
381.917	1	7
382.087	1	18
382.258	1	16
382.429	1	24
382.600	1	24
382.771	1	7
382.941	1	13
383.112	1	9
383.283	1	5
383.454	1	15
383.625	1	3
383.795	1	13
383.966	1	15
384.137	1	22
384.308	1	13
384.479	1	19
384.649	1	19
384.820	1	14
384.991	1	7
385.162	1	15
385.333	1	12
385.503	1	3
385.674	1	-1
385.845	1	23
386.016	1	15
386.187	1	8
386.357	1	18
386.528	1	25
386.699	1	7
386.870	1	18
387.041	1	16
387.211	1	17
387.382	1	18
387.553	1	18
387.724	1	6
387.894	1	16
388.065	1	12
388.236	1	9
388.407	1	20
388.578	1	10
388.748	1	7
388.919	1	21
389.090	1	18
389.261	1	31
389.431	1	26
389.602	1	15
389.773	1	11
389.944	1	10
390.114	1	12
390.285	1	7
390.456	1	8
390.627	1	12
390.798	1	12
390.968	1	15
391.139	1	25
391.310	1	6
391.481	1	27
391.651	1	17
391.822	1	12
391.993	1	10
392.164	1	8
392.334	1	11
392.505	1	18
392.676	1	27
392.847	1	20
393.017	1	24
393.188	1	14
393.359	1	-1
393.530	1	8
393.700	1	9
393.871	1	7
394.042	1	15
394.213	1	8
394.383	1	18
394.554	1	17
394.725	1	16
394.896	1	7
395.066	1	23
395.237	1	12
395.408	1	9
395.579	1	6
395.749	1	22
395.920	1	3
396.091	1	22
396.262	1	8
396.432	1	18
396.603	1	21
396.774	1	26
396.945	1	14
397.115	1	18
397.286	1	19
397.457	1	8
397.627	1	23
397.798	1	18
397.969	1	-3
398.140	1	9
398.310	1	13
398.481	1	12
398.652	1	18
398.823	1	14
398.993	1	15
399.164	1	15
399.335	1	23
399.505	1	18
399.676	1	21
399.847	1	5
400.018	1	6
400.188	1	13
400.359	1	10
400.530	1	0
400.700	1	20
400.871	1	13
401.042	1	11
401.213	1	9
401.383	1	21
401.554	1	13
401.725	1	24
401.895	1	12
402.066	1	18
402.237	1	17
402.408	1	18
402.578	1	16
402.749	1	25
402.920	1	24
403.090	1	8
403.261	1	11
403.432	1	9
403.603	1	23
403.773	1	26
403.944	1	21
404.115	1	22
404.285	1	30
404.456	1	25
404.627	1	17
404.797	1	7
404.968	1	17
405.139	1	9
405.310	1	32
405.480	1	16
405.651	1	12
405.822	1	13
405.992	1	11
406.163	1	17
406.334	1	8
406.504	1	13
406.675	1	20
406.846	1	19
407.016	1	22
407.187	1	13
407.358	1	12
407.528	1	2
407.699	1	5
407.870	1	14
408.041	1	21
408.211	1	27
408.382	1	3
408.553	1	7
408.723	1	24
408.894	1	12
409.065	1	14
409.235	1	13
409.406	1	7
409.577	1	7
409.747	1	19
409.918	1	11
410.089	1	15
410.259	1	15
410.430	1	15
410.601	1	24
410.771	1	15
410.942	1	25
411.113	1	21
411.283	1	15
411.454	1	12
411.625	1	16
411.795	1	15
411.966	1	22
412.137	1	21
412.307	1	3
412.478	1	16
412.649	1	11
412.819	1	10
412.990	1	10
413.161	1	18
413.331	1	11
413.502	1	23
413.672	1	20
413.843	1	9
414.014	1	12
414.184	1	25
414.355	1	16
414.526	1	26
414.696	1	17
414.867	1	11
415.038	1	7
415.208	1	14
415.379	1	17
415.550	1	27
415.720	1	12
415.891	1	13
416.062	1	23
416.232	1	17
416.403	1	18
416.573	1	22
416.744	1	13
416.915	1	16
417.085	1	17
417.256	1	10
417.427	1	15
417.597	1	12
417.768	1	12
417.939	1	18
418.109	1	13
418.280	1	24
418.450	1	15
418.621	1	6
418.792	1	12
418.962	1	13
419.133	1	18
419.304	1	10
419.474	1	9
419.645	1	12
419.815	1	5
419.986	1	27
420.157	1	15
420.327	1	18
420.498	1	23
420.669	1	13
420.839	1	28
421.010	1	24
421.180	1	17
421.351	1	17
421.522	1	16
421.692	1	18
421.863	1	27
422.033	1	20
422.204	1	12
422.375	1	3
422.545	1	22
422.716	1	14
422.886	1	15
423.057	1	27
423.228	1	16
423.398	1	12
423.569	1	13
423.740	1	13
423.910	1	6
424.081	1	4
424.251	1	8
424.422	1	22
424.593	1	10
424.763	1	18
424.934	1	17
425.104	1	20
425.275	1	16
425.445	1	10
425.616	1	3
425.787	1	14
425.957	1	17
426.128	1	26
426.298	1	23
426.469	1	12
426.640	1	8
426.810	1	27
426.981	1	11
427.151	1	15
427.322	1	16
427.493	1	14
427.663	1	16
427.834	1	15
428.004	1	21
428.175	1	18
428.345	1	13
428.516	1	16
428.687	1	17
428.857	1	14
429.028	1	8
429.198	1	17
429.369	1	14
429.540	1	14
429.710	1	11
429.881	1	26
430.051	1	16
430.222	1	11
430.392	1	13
430.563	1	21
430.734	1	21
430.904	1	14
431.075	1	22
431.245	1	12
431.416	1	19
431.586	1	9
431.757	1	9
431.927	1	16
432.098	1	19
432.269	1	11
432.439	1	22
432.610	1	13
432.780	1	26
432.951	1	4
433.121	1	20
433.292	1	20
433.462	1	24
433.633	1	12
433.804	1	16
433.974	1	16
434.145	1	28
434.315	1	10
434.486	1	6
434.656	1	19
434.827	1	13
434.997	1	0
435.168	1	18
435.339	1	24
435.509	1	14
435.680	1	16
435.850	1	17
436.021	1	4
436.191	1	13
436.362	1	20
436.532	1	15
436.703	1	16
436.873	1	19
437.044	1	1
437.214	1	15
437.385	1	7
437.556	1	12
437.726	1	24
437.897	1	23
438.067	1	13
438.238	1	9
438.408	1	22
438.579	1	7
438.749	1	8
438.920	1	14
439.090	1	14
439.261	1	11
439.431	1	11
439.602	1	11
439.772	1	15
439.943	1	26
440.113	1	17
440.284	1	21
440.455	1	14
440.625	1	8
440.796	1	24
440.966	1	-2
441.137	1	18
441.307	1	11
441.478	1	19
441.648	1	6
441.819	1	18
441.989	1	12
442.160	1	24
442.330	1	21
442.501	1	13
442.671	1	15
442.842	1	-2
443.012	1	0
443.183	1	22
443.353	1	0
443.524	1	17
443.694	1	15
443.865	1	16
444.035	1	20
444.206	1	-3
444.376	1	10
444.547	1	28
444.717	1	18
444.888	1	4
445.058	1	17
445.229	1	16
445.399	1	12
445.570	1	8
445.740	1	14
445.911	1	13
446.081	1	13
446.252	1	19
446.422	1	8
446.593	1	11
446.763	1	7
446.934	1	7
447.104	1	14
447.275	1	17
447.445	1	11
447.616	1	11
447.786	1	9
447.957	1	7
448.127	1	13
448.298	1	17
448.468	1	17
448.639	1	20
448.809	1	12
448.979	1	4
449.150	1	11
449.320	1	13
449.491	1	26
449.661	1	1
449.832	1	1
450.002	1	18
450.173	1	9
450.343	1	22
450.514	1	7
450.684	1	4
450.855	1	4
451.025	1	19
451.196	1	18
451.366	1	6
451.537	1	9
451.707	1	5
451.878	1	10
452.048	1	20
452.218	1	13
452.389	1	17
452.559	1	8
452.730	1	24
452.900	1	11
453.071	1	6
453.241	1	3
453.412	1	12
453.582	1	7
453.753	1	9
453.923	1	15
454.093	1	13
454.264	1	25
454.434	1	10
454.605	1	17
454.775	1	10
454.946	1	10
455.116	1	14
455.287	1	3
455.457	1	-2
455.628	1	-5
455.798	1	18
455.968	1	18
456.139	1	13
456.309	1	9
456.480	1	3
456.650	1	7
456.821	1	4
456.991	1	9
457.161	1	11
457.332	1	8
457.502	1	4
457.673	1	12
457.843	1	15
458.014	1	23
458.184	1	9
458.355	1	11
458.525	1	16
458.695	1	13
458.866	1	8
459.036	1	13
459.207	1	13
459.377	1	8
459.548	1	23
459.718	1	5
459.888	1	16
460.059	1	11
460.229	1	21
460.400	1	16
460.570	1	16
460.740	1	15
460.911	1	8
461.081	1	12
461.252	1	7
461.422	1	6
461.593	1	5
461.763	1	7
461.933	1	13
462.104	1	-1
462.274	1	7
462.445	1	13
462.615	1	9
462.785	1	15
462.956	1	8
463.126	1	15
463.297	1	5
463.467	1	10
463.638	1	15
463.808	1	-1
463.978	1	0
464.149	1	6
464.319	1	-1
464.490	1	23
464.660	1	1
464.830	1	12
465.001	1	8
465.171	1	21
465.342	1	16
465.512	1	-1
465.682	1	2
465.853	1	8
466.023	1	3
466.194	1	1
466.364	1	20
466.534	1	16
466.705	1	6
466.875	1	0
467.045	1	15
467.216	1	20
467.386	1	0
467.557	1	13
467.727	1	7
467.897	1	6
468.068	1	11
468.238	1	7
468.409	1	10
468.579	1	8
468.749	1	-6
468.920	1	0
469.090	1	15
469.260	1	-2
469.431	1	1
469.601	1	16
469.772	1	8
469.942	1	-1
470.112	1	7
470.283	1	6
470.453	1	17
470.623	1	3
470.794	1	0
470.964	1	11
471.135	1	15
471.305	1	3
471.475	1	14
471.646	1	4
471.816	1	8
471.986	1	9
472.157	1	19
472.327	1	2
472.497	1	1
472.668	1	0
472.838	1	18
473.009	1	16
473.179	1	8
473.349	1	5
473.520	1	14
473.690	1	8
473.860	1	0
474.031	1	9
474.201	1	12
474.371	1	14
474.542	1	13
474.712	1	6
474.882	1	13
475.053	1	29
475.223	1	4
475.394	1	14
475.564	1	4
475.734	1	9
475.905	1	18
476.075	1	5
476.245	1	13
476.416	1	8
476.586	1	14
476.756	1	7
476.927	1	16
477.097	1	17
477.267	1	12
477.438	1	7
477.608	1	5
477.778	1	9
477.949	1	7
478.119	1	17
478.289	1	10
478.460	1	22
478.630	1	8
478.800	1	9
478.971	1	15
479.141	1	5
479.311	1	-1
479.482	1	6
479.652	1	-1
479.822	1	0
479.993	1	18
480.163	1	11
480.333	1	10
480.504	1	12
480.674	1	1
480.844	1	2
481.015	1	17
481.185	1	5
481.355	1	14
481.525	1	3
481.696	1	15
481.866	1	10
482.036	1	26
482.207	1	2
482.377	1	7
482.547	1	8
482.718	1	7
482.888	1	9
483.058	1	8
483.229	1	-1
483.399	1	11
483.569	1	7
483.740	1	15
483.910	1	13
484.080	1	9
484.250	1	10
484.421	1	6
484.591	1	9
484.761	1	11
484.932	1	14
485.102	1	13
485.272	1	13
485.443	1	6
485.613	1	8
485.783	1	8
485.953	1	11
486.124	1	13
486.294	1	5
486.464	1	10
486.635	1	13
486.805	1	13
486.975	1	3
487.146	1	16
487.316	1	4
487.486	1	11
487.656	1	8
487.827	1	4
487.997	1	-4
488.167	1	1
488.338	1	16
488.508	1	4
488.678	1	2
488.848	1	12
489.019	1	8
489.189	1	10
489.359	1	7
489.529	1	7
489.700	1	5
489.870	1	18
490.040	1	-5
490.211	1	3
490.381	1	10
490.551	1	11
490.721	1	2
490.892	1	11
491.062	1	4
491.232	1	11
491.402	1	7
491.573	1	3
491.743	1	6
491.913	1	8
492.084	1	17
492.254	1	6
492.424	1	1
492.594	1	6
492.765	1	9
492.935	1	0
493.105	1	11
493.275	1	2
493.446	1	10
493.616	1	15
493.786	1	3
493.956	1	8
494.127	1	9
494.297	1	1
494.467	1	6
494.637	1	12
494.808	1	-3
494.978	1	3
495.148	1	-3
495.318	1	5
495.489	1	12
495.659	1	9
495.829	1	11
495.999	1	1
496.170	1	10
496.340	1	-1
496.510	1	13
496.680	1	2
496.851	1	-2
497.021	1	4
497.191	1	6
497.361	1	8
497.532	1	-6
497.702	1	4
497.872	1	-8
498.042	1	15
498.213	1	2
498.383	1	0
498.553	1	-2
498.723	1	-4
498.894	1	8
499.064	1	3
499.234	1	4
499.404	1	11
499.574	1	10
499.745	1	14
499.915	1	8
500.085	1	5
500.255	1	16
500.426	1	7
500.596	1	4
500.766	1	2
500.936	1	3
501.106	1	-1
501.277	1	14
501.447	1	4
501.617	1	10
501.787	1	3
501.958	1	2
502.128	1	1
502.298	1	0
502.468	1	15
502.638	1	9
502.809	1	8
502.979	1	2
503.149	1	-2
503.319	1	-3
503.489	1	-3
503.660	1	9
503.830	1	8
504.000	1	10
504.170	1	3
504.340	1	2
504.511	1	16
504.681	1	-5
504.851	1	10
505.021	1	12
505.192	1	-2
505.362	1	8
505.532	1	4
505.702	1	-4
505.872	1	6
506.043	1	-5
506.213	1	4
506.383	1	4
506.553	1	4
506.723	1	7
506.893	1	1
507.064	1	16
507.234	1	-1
507.404	1	6
507.574	1	6
507.744	1	3
507.915	1	-1
508.085	1	7
508.255	1	20
508.425	1	6
508.595	1	10
508.766	1	8
508.936	1	-8
509.106	1	7
509.276	1	10
509.446	1	-1
509.616	1	2
509.787	1	1
509.957	1	3
510.127	1	6
510.297	1	8
510.467	1	-3
510.638	1	5
510.808	1	-8
510.978	1	2
511.148	1	6
511.318	1	1
511.488	1	-8
511.659	1	3
511.829	1	-3
511.999	1	5
512.169	1	7
512.339	1	1
512.509	1	-6
512.680	1	-2
512.850	1	12
513.020	1	4
513.190	1	6
513.360	1	1
513.530	1	7
513.700	1	11
513.871	1	-1
514.041	1	11
514.211	1	9
514.381	1	8
514.551	1	-3
514.721	1	12
514.892	1	5
515.062	1	2
515.232	1	7
515.402	1	-1
515.572	1	2
515.742	1	2
515.912	1	9
516.083	1	-1
516.253	1	2
516.423	1	3
516.593	1	7
516.763	1	13
516.933	1	-2
517.104	1	10
517.274	1	6
517.444	1	8
517.614	1	-5
517.784	1	5
517.954	1	2
518.124	1	5
518.294	1	4
518.465	1	6
518.635	1	4
518.805	1	0
518.975	1	9
519.145	1	6
519.315	1	-3
519.485	1	2
519.656	1	13
519.826	1	1
519.996	1	-11
520.166	1	6
520.336	1	17
520.506	1	7
520.676	1	-4
520.846	1	13
521.017	1	5
521.187	1	-5
521.357	1	19
521.527	1	-2
521.697	1	-3
521.867	1	-1
522.037	1	14
522.207	1	15
522.377	1	7
522.548	1	12
522.718	1	13
522.888	1	13
523.058	1	-3
523.228	1	4
523.398	1	12
523.568	1	9
523.738	1	1
523.909	1	12
524.079	1	2
524.249	1	7
524.419	1	10
524.589	1	-1
524.759	1	-2
524.929	1	3
525.099	1	6
525.269	1	11
525.439	1	0
525.610	1	17
525.780	1	1
525.950	1	1
526.120	1	0
526.290	1	0
526.460	1	-4
526.630	1	9
526.800	1	1
526.970	1	0
527.140	1	5
527.311	1	0
527.481	1	-7
527.651	1	10
527.821	1	-4
527.991	1	5
528.161	1	5
528.331	1	6
528.501	1	9
528.671	1	-1
528.841	1	-3
529.011	1	1
529.181	1	9
529.352	1	-4
529.522	1	1
529.692	1	13
529.862	1	0
530.032	1	5
530.202	1	6
530.372	1	13
530.542	1	11
530.712	1	1
530.882	1	10
531.052	1	17
531.222	1	-8
531.392	1	0
531.563	1	11
531.733	1	10
531.903	1	7
532.073	1	0
532.243	1	7
532.413	1	3
532.583	1	-2
532.753	1	-3
532.923	1	1
533.093	1	-5
533.263	1	-4
533.433	1	9
533.603	1	9
533.773	1	9
533.943	1	-2
534.113	1	7
534.284	1	-6
534.454	1	6
534.624	1	12
534.794	1	-1
534.964	1	9
535.134	1	2
535.304	1	3
535.474	1	14
535.644	1	-1
535.814	1	-6
535.984	1	-6
536.154	1	-2
536.324	1	2
536.494	1	1
536.664	1	7
536.834	1	6
537.004	1	6
537.174	1	11
537.344	1	-2
537.514	1	-1
537.685	1	3
537.855	1	9
538.025	1	9
538.195	1	5
538.365	1	10
538.535	1	10
538.705	1	0
538.875	1	3
539.045	1	-3
539.215	1	4
539.385	1	7
539.555	1	-1
539.725	1	2
539.895	1	0
540.065	1	16
540.235	1	6
540.405	1	-2
540.575	1	5
540.745	1	8
540.915	1	6
541.085	1	5
541.255	1	-6
541.425	1	10
541.595	1	2
541.765	1	5
541.935	1	7
542.105	1	-4
542.275	1	2
542.445	1	-6
542.615	1	7
542.785	1	3
542.955	1	-2
543.125	1	12
543.295	1	7
543.465	1	11
543.635	1	-2
543.805	1	8
543.975	1	4
544.145	1	9
544.315	1	2
544.485	1	0
544.655	1	1
544.825	1	-7
544.995	1	0
545.165	1	1
545.335	1	2
545.505	1	-2
545.675	1	3
545.845	1	12
546.015	1	1
546.185	1	14
546.355	1	5
546.525	1	7
546.695	1	4
546.865	1	-2
547.035	1	7
547.205	1	-11
547.375	1	8
547.545	1	9
547.715	1	1
547.885	1	-5
548.055	1	-1
548.225	1	15
548.395	1	-12
548.565	1	8
548.735	1	-1
548.905	1	-2
549.075	1	10
549.245	1	6
549.415	1	0
549.585	1	7
549.755	1	7
549.925	1	-12
550.095	1	1
550.265	1	-5
550.435	1	0
550.605	1	-9
550.775	1	11
550.945	1	14
551.115	1	4
551.285	1	0
551.455	1	1
551.625	1	12
551.795	1	12
551.965	1	-4
552.135	1	5
552.305	1	2
552.475	1	1
552.645	1	0
552.815	1	0
552.985	1	11
553.155	1	7
553.325	1	8
553.495	1	-2
553.665	1	2
553.835	1	0
554.004	1	6
554.174	1	-4
554.344	1	3
554.514	1	0
554.684	1	7
554.854	1	4
555.024	1	-1
555.194	1	-10
555.364	1	9
555.534	1	-5
555.704	1	0
555.874	1	11
556.044	1	-3
556.214	1	-1
556.384	1	-5
556.554	1	8
556.724	1	-5
556.894	1	2
557.064	1	5
557.234	1	2
557.404	1	9
557.573	1	12
557.743	1	6
557.913	1	-9
558.083	1	7
558.253	1	8
558.423	1	-5
558.593	1	1
558.763	1	0
558.933	1	-3
559.103	1	12
559.273	1	6
559.443	1	6
559.613	1	5
559.783	1	1
559.953	1	-1
560.122	1	5
560.292	1	7
560.462	1	0
560.632	1	10
560.802	1	5
560.972	1	3
561.142	1	6
561.312	1	-6
561.482	1	11
561.652	1	6
561.822	1	-1
561.992	1	4
562.162	1	1
562.331	1	2
562.501	1	-8
562.671	1	7
562.841	1	-3
563.011	1	9
563.181	1	4
563.351	1	-6
563.521	1	2
563.691	1	1
563.861	1	2
564.031	1	2
564.201	1	16
564.370	1	-6
564.540	1	3
564.710	1	-6
564.880	1	11
565.050	1	13
565.220	1	-1
565.390	1	3
565.560	1	6
565.730	1	-9
565.900	1	11
566.069	1	11
566.239	1	6
566.409	1	5
566.579	1	4
566.749	1	-3
566.919	1	4
567.089	1	5
567.259	1	-2
567.429	1	8
567.599	1	1
567.768	1	9
567.938	1	4
568.108	1	-1
568.278	1	-6
568.448	1	-1
568.618	1	0
568.788	1	6
568.958	1	2
569.128	1	13
569.297	1	0
569.467	1	-1
569.637	1	6
569.807	1	2
569.977	1	4
570.147	1	4
570.317	1	-1
570.487	1	0
570.656	1	4
570.826	1	1
570.996	1	-3
571.166	1	9
571.336	1	-1
571.506	1	19
571.676	1	6
571.846	1	9
572.015	1	4
572.185	1	4
572.355	1	-4
572.525	1	12
572.695	1	4
572.865	1	-3
573.035	1	3
573.205	1	-1
573.374	1	3
573.544	1	7
573.714	1	6
573.884	1	4
574.054	1	2
574.224	1	-1
574.394	1	-6
574.563	1	-8
574.733	1	4
574.903	1	-6
575.073	1	-3
575.243	1	0
575.413	1	6
575.583	1	1
575.752	1	7
575.922	1	5
576.092	1	7
576.262	1	6
576.432	1	5
576.602	1	-7
576.772	1	7
576.941	1	4
577.111	1	-6
577.281	1	-10
577.451	1	-4
577.621	1	8
577.791	1	9
577.960	1	-8
578.130	1	7
578.300	1	4
578.470	1	9
578.640	1	-3
578.810	1	0
578.979	1	3
579.149	1	-1
579.319	1	12
579.489	1	0
579.659	1	2
579.829	1	5
579.998	1	-1
580.168	1	9
580.338	1	5
580.508	1	-9
580.678	1	4
580.848	1	4
581.017	1	5
581.187	1	3
581.357	1	-5
581.527	1	13
581.697	1	10
581.867	1	0
582.036	1	9
582.206	1	7
582.376	1	4
582.546	1	3
582.716	1	-5
582.885	1	-3
583.055	1	8
583.225	1	-8
583.395	1	12
583.565	1	-3
583.735	1	6
583.904	1	4
584.074	1	7
584.244	1	3
584.414	1	4
584.584	1	3
584.753	1	-2
584.923	1	-4
585.093	1	5
585.263	1	5
585.433	1	1
585.602	1	-10
585.772	1	-3
585.942	1	-7
586.112	1	-11
586.282	1	-8
586.451	1	-1
586.621	1	-6
586.791	1	-3
586.961	1	0
587.131	1	3
587.300	1	0
587.470	1	8
587.640	1	10
587.810	1	-2
587.980	1	-4
588.149	1	3
588.319	1	6
588.489	1	2
588.659	1	6
588.829	1	7
588.998	1	10
589.168	1	10
589.338	1	-4
589.508	1	9
589.677	1	-3
589.847	1	-15
590.017	1	20
590.187	1	-7
590.357	1	6
590.526	1	7
590.696	1	15
590.866	1	12
591.036	1	-4
591.205	1	15
591.375	1	-1
591.545	1	-4
591.715	1	9
591.885	1	-5
592.054	1	5
592.224	1	-5
592.394	1	0
592.564	1	4
592.733	1	3
592.903	1	7
593.073	1	1
593.243	1	8
593.412	1	11
593.582	1	-2
593.752	1	-4
593.922	1	6
594.091	1	-3
594.261	1	-3
594.431	1	7
594.601	1	19
594.771	1	11
594.940	1	-9
595.110	1	-1
595.280	1	4
595.450	1	-1
595.619	1	-5
595.789	1	8
595.959	1	10
596.129	1	-6
596.298	1	2
596.468	1	8
596.638	1	6
596.808	1	6
596.977	1	-5
597.147	1	4
597.317	1	-3
597.487	1	-6
597.656	1	5
597.826	1	4
597.996	1	5
598.166	1	5
598.335	1	1
598.505	1	-1
598.675	1	5
598.844	1	1
599.014	1	-4
599.184	1	-7
599.354	1	-5
599.523	1	1
599.693	1	-3
599.863	1	5
600.033	1	-7
600.202	1	3
600.372	1	3
600.542	1	4
600.712	1	-3
600.881	1	-3
601.051	1	7
601.221	1	9
601.390	1	0
601.560	1	14
601.730	1	11
601.900	1	9
602.069	1	-4
602.239	1	-3
602.409	1	-11
602.578	1	2
602.748	1	6
602.918	1	2
603.088	1	11
603.257	1	9
603.427	1	-9
603.597	1	1
603.767	1	4
603.936	1	3
604.106	1	-4
604.276	1	1
604.445	1	11
604.615	1	-2
604.785	1	-3
604.954	1	0
605.124	1	-2
605.294	1	-4
605.464	1	-2
605.633	1	2
605.803	1	9
605.973	1	-8
606.142	1	6
606.312	1	14
606.482	1	0
606.652	1	12
606.821	1	4
606.991	1	9
607.161	1	2
607.330	1	1
607.500	1	5
607.670	1	-2
607.839	1	5
608.009	1	13
608.179	1	3
608.348	1	0
608.518	1	3
608.688	1	16
608.858	1	-2
609.027	1	-1
609.197	1	-3
609.367	1	13
609.536	1	7
609.706	1	-5
609.876	1	9
610.045	1	3
610.215	1	5
610.385	1	6
610.554	1	5
610.724	1	9
610.894	1	-2
611.063	1	4
611.233	1	0
611.403	1	-8
611.572	1	-3
611.742	1	2
611.912	1	0
612.081	1	0
612.251	1	4
612.421	1	4
612.590	1	-3
612.760	1	4
612.930	1	8
613.099	1	-6
613.269	1	13
613.439	1	5
613.608	1	1
613.778	1	7
613.948	1	4
614.117	1	0
614.287	1	3
614.457	1	-2
614.626	1	3
614.796	1	-1
614.966	1	0
615.135	1	-2
615.305	1	15
615.475	1	7
615.644	1	-1
615.814	1	9
615.984	1	2
616.153	1	10
616.323	1	1
616.493	1	-3
616.662	1	12
616.832	1	5
617.002	1	0
617.171	1	5
617.341	1	-2
617.511	1	-1
617.680	1	-3
617.850	1	7
618.019	1	6
618.189	1	15
618.359	1	10
618.528	1	4
618.698	1	8
618.868	1	5
619.037	1	1
619.207	1	0
619.377	1	-8
619.546	1	2
619.716	1	-1
619.885	1	-5
620.055	1	-4
620.225	1	6
620.394	1	-9
620.564	1	10
620.734	1	7
620.903	1	-8
621.073	1	5
621.242	1	-1
621.412	1	10
621.582	1	5
621.751	1	2
621.921	1	3
622.091	1	-10
622.260	1	1
622.430	1	9
622.599	1	-1
622.769	1	3
622.939	1	5
623.108	1	-8
623.278	1	0
623.448	1	2
623.617	1	9
623.787	1	3
623.956	1	2
624.126	1	7
624.296	1	-2
624.465	1	-3
624.635	1	10
624.804	1	6
624.974	1	-10
625.144	1	7
625.313	1	3
625.483	1	-8
625.652	1	7
625.822	1	-3
625.992	1	2
626.161	1	8
626.331	1	6
626.501	1	8
626.670	1	-3
626.840	1	-7
627.009	1	5
627.179	1	4
627.348	1	14
627.518	1	-2
627.688	1	8
627.857	1	13
628.027	1	3
628.196	1	3
628.366	1	4
628.536	1	3
628.705	1	6
628.875	1	-2
629.044	1	1
629.214	1	7
629.384	1	17
629.553	1	15
629.723	1	5
629.892	1	12
630.062	1	0
630.232	1	-2
630.401	1	9
630.571	1	2
630.740	1	0
630.910	1	7
631.079	1	14
631.249	1	-3
631.419	1	4
631.588	1	-4
631.758	1	11
631.927	1	0
632.097	1	1
632.266	1	0
632.436	1	5
632.606	1	-5
632.775	1	13
632.945	1	10
633.114	1	7
633.284	1	6
633.453	1	-1
633.623	1	-1
633.793	1	7
633.962	1	4
634.132	1	0
634.301	1	1
634.471	1	7
634.640	1	12
634.810	1	-1
634.979	1	5
635.149	1	1
635.319	1	7
635.488	1	6
635.658	1	-1
635.827	1	-6
635.997	1	5
636.166	1	5
636.336	1	2
636.505	1	12
636.675	1	4
636.845	1	8
637.014	1	3
637.184	1	8
637.353	1	5
637.523	1	7
637.692	1	0
637.862	1	4
638.031	1	-1
638.201	1	6
638.370	1	1
638.540	1	3
638.710	1	-7
638.879	1	-7
639.049	1	-6
639.218	1	2
639.388	1	-4
639.557	1	5
639.727	1	2
639.896	1	3
640.066	1	4
640.235	1	10
640.405	1	9
640.574	1	11
640.744	1	-7
640.914	1	-5
641.083	1	2
641.253	1	-3
641.422	1	1
641.592	1	16
641.761	1	6
641.931	1	-2
642.100	1	17
642.270	1	-4
642.439	1	12
642.609	1	12
642.778	1	-4
642.948	1	0
643.117	1	5
643.287	1	2
643.456	1	-2
643.626	1	13
643.795	1	1
643.965	1	6
644.134	1	3
644.304	1	-1
644.473	1	4
644.643	1	7
644.812	1	3
644.982	1	-1
645.151	1	8
645.321	1	-7
645.490	1	8
645.660	1	-7
645.829	1	3
645.999	1	3
646.168	1	2
646.338	1	4
646.507	1	-4
646.677	1	0
646.846	1	0
647.016	1	-9
647.185	1	3
647.355	1	-3
647.524	1	8
647.694	1	11
647.863	1	12
648.033	1	0
648.202	1	10
648.372	1	-5
648.541	1	-3
648.711	1	0
648.880	1	-3
649.050	1	-3
649.219	1	2
649.389	1	11
649.558	1	-2
649.728	1	11
649.897	1	2
650.067	1	11
650.236	1	9
650.406	1	8
650.575	1	11
650.745	1	17
650.914	1	7
651.084	1	-7
651.253	1	3
651.423	1	5
651.592	1	1
651.762	1	-2
651.931	1	11
652.101	1	9
652.270	1	19
652.440	1	13
652.609	1	-6
652.778	1	1
652.948	1	-1
653.117	1	2
653.287	1	-2
653.456	1	2
653.626	1	8
653.795	1	3
653.965	1	9
654.134	1	7
654.304	1	-10
654.473	1	2
654.643	1	14
654.812	1	3
654.982	1	0
655.151	1	-2
655.320	1	8
655.490	1	-6
655.659	1	1
655.829	1	3
655.998	1	4
656.168	1	-5
656.337	1	5
656.507	1	6
656.676	1	4
656.846	1	10
657.015	1	9
657.184	1	18
657.354	1	10
657.523	1	3
657.693	1	14
657.862	1	7
658.032	1	0
658.201	1	-4
658.371	1	12
658.540	1	3
658.709	1	3
658.879	1	10
659.048	1	4
659.218	1	4
659.387	1	3
659.557	1	6
659.726	1	2
659.895	1	-3
660.065	1	-6
660.234	1	1
660.404	1	10
660.573	1	1
660.743	1	5
660.912	1	8
661.081	1	9
661.251	1	10
661.420	1	7
661.590	1	6
661.759	1	3
661.929	1	6
662.098	1	15
662.267	1	3
662.437	1	10
662.606	1	3
662.776	1	5
662.945	1	10
663.115	1	-5
663.284	1	-1
663.453	1	4
663.623	1	5
663.792	1	3
663.962	1	5
664.131	1	3
664.300	1	9
664.470	1	1
664.639	1	9
664.809	1	4
664.978	1	10
665.148	1	4
665.317	1	0
665.486	1	9
665.656	1	9
665.825	1	4
665.995	1	-2
666.164	1	4
666.333	1	6
666.503	1	7
666.672	1	-7
666.842	1	-2
667.011	1	0
667.180	1	14
667.350	1	3
667.519	1	14
667.689	1	0
667.858	1	1
668.027	1	9
668.197	1	4
668.366	1	4
668.536	1	1
668.705	1	5
668.874	1	0
669.044	1	3
669.213	1	12
669.382	1	-3
669.552	1	15
669.721	1	6
669.891	1	11
670.060	1	-1
670.229	1	17
670.399	1	-3
670.568	1	13
670.738	1	5
670.907	1	-1
671.076	1	0
671.246	1	5
671.415	1	7
671.584	1	0
671.754	1	-9
671.923	1	8
672.093	1	7
672.262	1	-2
672.431	1	10
672.601	1	-2
672.770	1	-7
672.939	1	7
673.109	1	0
673.278	1	-6
673.448	1	11
673.617	1	3
673.786	1	3
