325.333	1	12
325.504	1	0
325.675	1	5
325.846	1	3
326.017	1	-2
326.188	1	1
326.359	1	-2
326.531	1	-4
326.702	1	-9
326.873	1	11
327.044	1	1
327.215	1	-3
327.386	1	4
327.557	1	1
327.728	1	6
327.899	1	8
328.070	1	13
328.241	1	12
328.412	1	-2
328.583	1	3
328.754	1	12
328.926	1	10
329.097	1	-4
329.268	1	13
329.439	1	-2
329.610	1	11
329.781	1	-3
329.952	1	4
330.123	1	5
330.294	1	3
330.465	1	7
330.636	1	13
330.807	1	3
330.978	1	-1
331.149	1	4
331.320	1	-1
331.492	1	7
331.663	1	10
331.834	1	9
332.005	1	7
332.176	1	15
332.347	1	10
332.518	1	-5
332.689	1	9
332.860	1	6
333.031	1	8
333.202	1	1
333.373	1	1
333.544	1	2
333.715	1	13
333.886	1	-6
334.057	1	8
334.228	1	-4
334.399	1	5
334.570	1	18
334.741	1	0
334.912	1	15
335.084	1	22
335.255	1	4
335.426	1	7
335.597	1	10
335.768	1	1
335.939	1	16
336.110	1	10
336.281	1	-1
336.452	1	3
336.623	1	11
336.794	1	11
336.965	1	1
337.136	1	9
337.307	1	13
337.478	1	3
337.649	1	9
337.820	1	17
337.991	1	6
338.162	1	11
338.333	1	6
338.504	1	6
338.675	1	13
338.846	1	14
339.017	1	18
339.188	1	0
339.359	1	2
339.530	1	1
339.701	1	14
339.872	1	20
340.043	1	6
340.214	1	15
340.385	1	15
340.556	1	-2
340.727	1	19
340.898	1	21
341.069	1	9
341.240	1	13
341.411	1	12
341.582	1	11
341.753	1	0
341.924	1	11
342.095	1	3
342.266	1	17
342.437	1	23
342.608	1	1
342.779	1	13
342.950	1	16
343.121	1	17
343.292	1	3
343.463	1	14
343.634	1	16
343.805	1	12
343.976	1	26
344.147	1	6
344.318	1	8
344.489	1	4
344.660	1	27
344.831	1	9
345.002	1	9
345.173	1	14
345.344	1	14
345.515	1	20
345.686	1	6
345.857	1	19
346.028	1	18
346.199	1	11
346.370	1	9
346.541	1	20
346.712	1	-2
346.883	1	16
347.054	1	14
347.225	1	8
347.396	1	19
347.567	1	14
347.738	1	6
347.909	1	21
348.080	1	7
348.251	1	20
348.422	1	17
348.593	1	17
348.764	1	11
348.935	1	-2
349.106	1	12
349.277	1	12
349.448	1	22
349.619	1	13
349.790	1	18
349.961	1	17
350.132	1	25
350.303	1	17
350.474	1	24
350.645	1	12
350.816	1	10
350.987	1	16
351.157	1	5
351.328	1	19
351.499	1	17
351.670	1	12
351.841	1	21
352.012	1	21
352.183	1	22
352.354	1	24
352.525	1	25
352.696	1	18
352.867	1	11
353.038	1	16
353.209	1	9
353.380	1	12
353.551	1	3
353.722	1	15
353.893	1	12
354.064	1	18
354.235	1	17
354.406	1	17
354.576	1	10
354.747	1	7
354.918	1	14
355.089	1	26
355.260	1	8
355.431	1	29
355.602	1	15
355.773	1	12
355.944	1	19
356.115	1	19
356.286	1	22
356.457	1	13
356.628	1	14
356.799	1	23
356.970	1	22
357.141	1	21
357.311	1	14
357.482	1	19
357.653	1	21
357.824	1	25
357.995	1	13
358.166	1	9
358.337	1	15
358.508	1	20
358.679	1	18
358.850	1	21
359.021	1	21
359.192	1	24
359.363	1	17
359.533	1	8
359.704	1	23
359.875	1	21
360.046	1	11
360.217	1	8
360.388	1	18
360.559	1	9
360.730	1	25
360.901	1	26
361.072	1	31
361.243	1	23
361.414	1	18
361.584	1	22
361.755	1	25
361.926	1	17
362.097	1	20
362.268	1	18
362.439	1	8
362.610	1	22
362.781	1	20
362.952	1	26
363.123	1	17
363.293	1	11
363.464	1	28
363.635	1	19
363.806	1	18
363.977	1	22
364.148	1	17
364.319	1	23
364.490	1	15
364.661	1	24
364.832	1	17
365.002	1	10
365.173	1	20
365.344	1	26
365.515	1	19
365.686	1	15
365.857	1	23
366.028	1	29
366.199	1	11
366.370	1	22
366.540	1	8
366.711	1	2
366.882	1	8
367.053	1	21
367.224	1	33
367.395	1	23
367.566	1	23
367.737	1	16
367.908	1	25
368.078	1	18
368.249	1	18
368.420	1	12
368.591	1	13
368.762	1	18
368.933	1	19
369.104	1	9
369.274	1	16
369.445	1	17
369.616	1	20
369.787	1	19
369.958	1	21
370.129	1	11
370.300	1	26
370.471	1	13
370.641	1	23
370.812	1	21
370.983	1	20
371.154	1	19
371.325	1	22
371.496	1	24
371.667	1	21
371.837	1	15
372.008	1	20
372.179	1	17
372.350	1	29
372.521	1	22
372.692	1	24
372.863	1	30
373.033	1	5
373.204	1	13
373.375	1	25
373.546	1	28
373.717	1	24
373.888	1	31
374.059	1	23
374.229	1	27
374.400	1	22
374.571	1	17
374.742	1	31
374.913	1	22
375.084	1	12
375.254	1	25
375.425	1	26
375.596	1	24
375.767	1	32
375.938	1	22
376.109	1	27
376.279	1	20
376.450	1	22
376.621	1	21
376.792	1	18
376.963	1	15
377.134	1	36
377.304	1	24
377.475	1	16
377.646	1	38
377.817	1	26
377.988	1	21
378.159	1	31
378.329	1	32
378.500	1	20
378.671	1	24
378.842	1	24
379.013	1	17
379.184	1	31
379.354	1	26
379.525	1	24
379.696	1	40
379.867	1	30
380.038	1	22
380.209	1	38
380.379	1	17
380.550	1	16
380.721	1	39
380.892	1	33
381.063	1	23
381.233	1	33
381.404	1	25
381.575	1	33
381.746	1	16
381.917	1	29
382.087	1	30
382.258	1	22
382.429	1	37
382.600	1	34
382.771	1	21
382.941	1	30
383.112	1	21
383.283	1	30
383.454	1	30
383.625	1	21
383.795	1	24
383.966	1	26
384.137	1	33
384.308	1	26
384.479	1	32
384.649	1	30
384.820	1	24
384.991	1	20
385.162	1	27
385.333	1	25
385.503	1	27
385.674	1	15
385.845	1	32
386.016	1	35
386.187	1	26
386.357	1	22
386.528	1	29
386.699	1	24
386.870	1	40
387.041	1	29
387.211	1	33
387.382	1	53
387.553	1	28
387.724	1	33
387.894	1	31
388.065	1	28
388.236	1	38
388.407	1	20
388.578	1	24
388.748	1	34
388.919	1	43
389.090	1	26
389.261	1	30
389.431	1	31
389.602	1	32
389.773	1	32
389.944	1	20
390.114	1	33
390.285	1	25
390.456	1	26
390.627	1	36
390.798	1	36
390.968	1	26
391.139	1	48
391.310	1	27
391.481	1	33
391.651	1	32
391.822	1	34
391.993	1	30
392.164	1	27
392.334	1	41
392.505	1	31
392.676	1	32
392.847	1	42
393.017	1	40
393.188	1	31
393.359	1	36
393.530	1	37
393.700	1	24
393.871	1	23
394.042	1	31
394.213	1	22
394.383	1	23
394.554	1	36
394.725	1	41
394.896	1	32
395.066	1	37
395.237	1	21
395.408	1	30
395.579	1	28
395.749	1	37
395.920	1	37
396.091	1	44
396.262	1	30
396.432	1	28
396.603	1	36
396.774	1	49
396.945	1	34
397.115	1	32
397.286	1	29
397.457	1	29
397.627	1	43
397.798	1	40
397.969	1	30
398.140	1	34
398.310	1	35
398.481	1	40
398.652	1	28
398.823	1	26
398.993	1	46
399.164	1	32
399.335	1	36
399.505	1	36
399.676	1	29
399.847	1	19
400.018	1	44
400.188	1	45
400.359	1	39
400.530	1	31
400.700	1	33
400.871	1	32
401.042	1	29
401.213	1	35
401.383	1	33
401.554	1	45
401.725	1	37
401.895	1	29
402.066	1	33
402.237	1	43
402.408	1	40
402.578	1	41
402.749	1	39
402.920	1	36
403.090	1	36
403.261	1	42
403.432	1	37
403.603	1	29
403.773	1	40
403.944	1	49
404.115	1	36
404.285	1	42
404.456	1	39
404.627	1	30
404.797	1	28
404.968	1	28
405.139	1	33
405.310	1	45
405.480	1	45
405.651	1	39
405.822	1	31
405.992	1	35
406.163	1	38
406.334	1	33
406.504	1	42
406.675	1	44
406.846	1	33
407.016	1	44
407.187	1	39
407.358	1	36
407.528	1	27
407.699	1	24
407.870	1	31
408.041	1	27
408.211	1	47
408.382	1	32
408.553	1	27
408.723	1	38
408.894	1	37
409.065	1	38
409.235	1	39
409.406	1	37
409.577	1	36
409.747	1	39
409.918	1	35
410.089	1	35
410.259	1	40
410.430	1	35
410.601	1	28
410.771	1	38
410.942	1	46
411.113	1	30
411.283	1	44
411.454	1	41
411.625	1	20
411.795	1	45
411.966	1	32
412.137	1	35
412.307	1	30
412.478	1	40
412.649	1	37
412.819	1	45
412.990	1	36
413.161	1	37
413.331	1	35
413.502	1	44
413.672	1	37
413.843	1	37
414.014	1	33
414.184	1	41
414.355	1	39
414.526	1	38
414.696	1	50
414.867	1	40
415.038	1	29
415.208	1	38
415.379	1	36
415.550	1	42
415.720	1	29
415.891	1	39
416.062	1	29
416.232	1	42
416.403	1	35
416.573	1	28
416.744	1	35
416.915	1	48
417.085	1	36
417.256	1	39
417.427	1	42
417.597	1	36
417.768	1	27
417.939	1	27
418.109	1	43
418.280	1	35
418.450	1	35
418.621	1	15
418.792	1	43
418.962	1	27
419.133	1	44
419.304	1	29
419.474	1	24
419.645	1	27
419.815	1	35
419.986	1	41
420.157	1	28
420.327	1	41
420.498	1	41
420.669	1	23
420.839	1	40
421.010	1	43
421.180	1	39
421.351	1	45
421.522	1	40
421.692	1	39
421.863	1	41
422.033	1	45
422.204	1	33
422.375	1	30
422.545	1	44
422.716	1	33
422.886	1	35
423.057	1	29
423.228	1	42
423.398	1	33
423.569	1	38
423.740	1	23
423.910	1	32
424.081	1	31
424.251	1	20
424.422	1	33
424.593	1	25
424.763	1	41
424.934	1	40
425.104	1	40
425.275	1	38
425.445	1	28
425.616	1	33
425.787	1	29
425.957	1	34
426.128	1	31
426.298	1	46
426.469	1	25
426.640	1	40
426.810	1	33
426.981	1	27
427.151	1	23
427.322	1	35
427.493	1	30
427.663	1	34
427.834	1	25
428.004	1	47
428.175	1	39
428.345	1	35
428.516	1	27
428.687	1	35
428.857	1	30
429.028	1	28
429.198	1	42
429.369	1	37
429.540	1	35
429.710	1	21
429.881	1	36
430.051	1	39
430.222	1	29
430.392	1	31
430.563	1	39
430.734	1	31
430.904	1	32
431.075	1	47
431.245	1	31
431.416	1	28
431.586	1	32
431.757	1	29
431.927	1	31
432.098	1	28
432.269	1	22
432.439	1	41
432.610	1	16
432.780	1	37
432.951	1	40
433.121	1	34
433.292	1	50
433.462	1	41
433.633	1	41
433.804	1	38
433.974	1	26
434.145	1	50
434.315	1	34
434.486	1	23
434.656	1	36
434.827	1	31
434.997	1	24
435.168	1	40
435.339	1	40
435.509	1	40
435.680	1	31
435.850	1	29
436.021	1	24
436.191	1	32
436.362	1	39
436.532	1	27
436.703	1	26
436.873	1	30
437.044	1	21
437.214	1	31
437.385	1	26
437.556	1	31
437.726	1	45
437.897	1	32
438.067	1	31
438.238	1	32
438.408	1	35
438.579	1	32
438.749	1	32
438.920	1	13
439.090	1	38
439.261	1	28
439.431	1	26
439.602	1	34
439.772	1	29
439.943	1	43
440.113	1	36
440.284	1	32
440.455	1	32
440.625	1	33
440.796	1	29
440.966	1	24
441.137	1	24
441.307	1	18
441.478	1	34
441.648	1	24
441.819	1	27
441.989	1	14
442.160	1	27
442.330	1	25
442.501	1	27
442.671	1	28
442.842	1	19
443.012	1	19
443.183	1	36
443.353	1	29
443.524	1	28
443.694	1	37
443.865	1	26
444.035	1	31
444.206	1	20
444.376	1	14
444.547	1	33
444.717	1	28
444.888	1	22
445.058	1	34
445.229	1	20
445.399	1	22
445.570	1	27
445.740	1	29
445.911	1	25
446.081	1	19
446.252	1	38
446.422	1	22
446.593	1	16
446.763	1	30
446.934	1	22
447.104	1	27
447.275	1	35
447.445	1	18
447.616	1	23
447.786	1	21
447.957	1	27
448.127	1	31
448.298	1	31
448.468	1	26
448.639	1	27
448.809	1	31
448.979	1	12
449.150	1	29
449.320	1	21
449.491	1	29
449.661	1	24
449.832	1	23
450.002	1	25
450.173	1	20
450.343	1	14
450.514	1	28
450.684	1	14
450.855	1	23
451.025	1	18
451.196	1	36
451.366	1	31
451.537	1	24
451.707	1	11
451.878	1	26
452.048	1	27
452.218	1	29
452.389	1	29
452.559	1	29
452.730	1	23
452.900	1	25
453.071	1	22
453.241	1	25
453.412	1	22
453.582	1	22
453.753	1	26
453.923	1	21
454.093	1	25
454.264	1	35
454.434	1	15
454.605	1	19
454.775	1	30
454.946	1	25
455.116	1	27
455.287	1	13
455.457	1	18
455.628	1	17
455.798	1	26
455.968	1	26
456.139	1	23
456.309	1	6
456.480	1	19
456.650	1	12
456.821	1	21
456.991	1	19
457.161	1	17
457.332	1	29
457.502	1	10
457.673	1	24
457.843	1	32
458.014	1	20
458.184	1	15
458.355	1	13
458.525	1	27
458.695	1	28
458.866	1	20
459.036	1	29
459.207	1	18
459.377	1	17
459.548	1	25
459.718	1	17
459.888	1	19
460.059	1	31
460.229	1	25
460.400	1	31
460.570	1	31
460.740	1	24
460.911	1	23
461.081	1	9
461.252	1	10
461.422	1	14
461.593	1	21
461.763	1	27
461.933	1	29
462.104	1	15
462.274	1	15
462.445	1	33
462.615	1	17
462.785	1	23
462.956	1	26
463.126	1	31
463.297	1	14
463.467	1	27
463.638	1	22
463.808	1	9
463.978	1	10
464.149	1	18
464.319	1	23
464.490	1	40
464.660	1	17
464.830	1	17
465.001	1	22
465.171	1	18
465.342	1	22
465.512	1	18
465.682	1	17
465.853	1	16
466.023	1	19
466.194	1	17
466.364	1	17
466.534	1	20
466.705	1	23
466.875	1	20
467.045	1	20
467.216	1	26
467.386	1	17
467.557	1	15
467.727	1	14
467.897	1	10
468.068	1	20
468.238	1	16
468.409	1	15
468.579	1	30
468.749	1	19
468.920	1	12
469.090	1	16
469.260	1	7
469.431	1	13
469.601	1	17
469.772	1	20
469.942	1	13
470.112	1	20
470.283	1	18
470.453	1	26
470.623	1	18
470.794	1	1
470.964	1	20
471.135	1	17
471.305	1	1
471.475	1	20
471.646	1	17
471.816	1	9
471.986	1	15
472.157	1	23
472.327	1	2
472.497	1	25
472.668	1	9
472.838	1	16
473.009	1	26
473.179	1	10
473.349	1	12
473.520	1	30
473.690	1	17
473.860	1	14
474.031	1	17
474.201	1	19
474.371	1	20
474.542	1	10
474.712	1	14
474.882	1	21
475.053	1	19
475.223	1	18
475.394	1	21
475.564	1	12
475.734	1	18
475.905	1	24
476.075	1	19
476.245	1	26
476.416	1	23
476.586	1	18
476.756	1	17
476.927	1	24
477.097	1	15
477.267	1	9
477.438	1	17
477.608	1	8
477.778	1	16
477.949	1	17
478.119	1	18
478.289	1	18
478.460	1	22
478.630	1	15
478.800	1	16
478.971	1	22
479.141	1	2
479.311	1	9
479.482	1	20
479.652	1	12
479.822	1	17
479.993	1	15
480.163	1	22
480.333	1	15
480.504	1	22
480.674	1	19
480.844	1	6
481.015	1	17
481.185	1	10
481.355	1	13
481.525	1	5
481.696	1	15
481.866	1	17
482.036	1	15
482.207	1	6
482.377	1	17
482.547	1	13
482.718	1	7
482.888	1	11
483.058	1	14
483.229	1	3
483.399	1	14
483.569	1	12
483.740	1	21
483.910	1	11
484.080	1	4
484.250	1	20
484.421	1	5
484.591	1	10
484.761	1	21
484.932	1	12
485.102	1	22
485.272	1	15
485.443	1	35
485.613	1	26
485.783	1	1
485.953	1	15
486.124	1	16
486.294	1	15
486.464	1	16
486.635	1	11
486.805	1	16
486.975	1	10
487.146	1	16
487.316	1	8
487.486	1	10
487.656	1	6
487.827	1	12
487.997	1	2
488.167	1	9
488.338	1	19
488.508	1	15
488.678	1	10
488.848	1	22
489.019	1	4
489.189	1	8
489.359	1	13
489.529	1	17
489.700	1	6
489.870	1	23
490.040	1	8
490.211	1	8
490.381	1	22
490.551	1	5
490.721	1	17
490.892	1	11
491.062	1	15
491.232	1	8
491.402	1	14
491.573	1	-3
491.743	1	7
491.913	1	8
492.084	1	19
492.254	1	14
492.424	1	17
492.594	1	-1
492.765	1	16
492.935	1	13
493.105	1	13
493.275	1	16
493.446	1	17
493.616	1	17
493.786	1	18
493.956	1	16
494.127	1	7
494.297	1	5
494.467	1	9
494.637	1	10
494.808	1	9
494.978	1	2
495.148	1	6
495.318	1	7
495.489	1	13
495.659	1	18
495.829	1	8
495.999	1	9
496.170	1	23
496.340	1	18
496.510	1	23
496.680	1	7
496.851	1	7
497.021	1	10
497.191	1	1
497.361	1	1
497.532	1	5
497.702	1	14
497.872	1	7
498.042	1	16
498.213	1	8
498.383	1	11
498.553	1	0
498.723	1	8
498.894	1	11
499.064	1	16
499.234	1	9
499.404	1	7
499.574	1	16
499.745	1	18
499.915	1	2
500.085	1	13
500.255	1	20
500.426	1	12
500.596	1	14
500.766	1	0
500.936	1	8
501.106	1	1
501.277	1	17
501.447	1	10
501.617	1	18
501.787	1	10
501.958	1	0
502.128	1	3
502.298	1	9
502.468	1	9
502.638	1	10
502.809	1	12
502.979	1	0
503.149	1	1
503.319	1	3
503.489	1	19
503.660	1	8
503.830	1	0
504.000	1	9
504.170	1	5
504.340	1	10
504.511	1	10
504.681	1	4
504.851	1	14
505.021	1	7
505.192	1	4
505.362	1	17
505.532	1	6
505.702	1	10
505.872	1	3
506.043	1	10
506.213	1	1
506.383	1	5
506.553	1	18
506.723	1	15
506.893	1	8
507.064	1	11
507.234	1	10
507.404	1	2
507.574	1	3
507.744	1	-2
507.915	1	0
508.085	1	13
508.255	1	8
508.425	1	10
508.595	1	11
508.766	1	8
508.936	1	2
509.106	1	17
509.276	1	7
509.446	1	-9
509.616	1	4
509.787	1	5
509.957	1	6
510.127	1	1
510.297	1	2
510.467	1	-1
510.638	1	3
510.808	1	-3
510.978	1	3
511.148	1	12
511.318	1	6
511.488	1	-7
511.659	1	10
511.829	1	-7
511.999	1	9
512.169	1	-2
512.339	1	10
512.509	1	4
512.680	1	10
512.850	1	4
513.020	1	11
513.190	1	11
513.360	1	0
513.530	1	9
513.700	1	6
513.871	1	-5
514.041	1	1
514.211	1	22
514.381	1	15
514.551	1	0
514.721	1	4
514.892	1	8
515.062	1	6
515.232	1	7
515.402	1	3
515.572	1	-4
515.742	1	11
515.912	1	13
516.083	1	12
516.253	1	16
516.423	1	5
516.593	1	5
516.763	1	9
516.933	1	6
517.104	1	6
517.274	1	1
517.444	1	9
517.614	1	4
517.784	1	0
517.954	1	10
518.124	1	7
518.294	1	8
518.465	1	1
518.635	1	-7
518.805	1	-7
518.975	1	5
519.145	1	-1
519.315	1	4
519.485	1	3
519.656	1	19
519.826	1	2
519.996	1	-3
520.166	1	11
520.336	1	13
520.506	1	5
520.676	1	-2
520.846	1	14
521.017	1	2
521.187	1	6
521.357	1	17
521.527	1	3
521.697	1	2
521.867	1	-3
522.037	1	17
522.207	1	14
522.377	1	13
522.548	1	6
522.718	1	7
522.888	1	16
523.058	1	4
523.228	1	5
523.398	1	11
523.568	1	12
523.738	1	7
523.909	1	7
524.079	1	12
524.249	1	9
524.419	1	1
524.589	1	6
524.759	1	-2
524.929	1	6
525.099	1	-1
525.269	1	6
525.439	1	0
525.610	1	24
525.780	1	1
525.950	1	4
526.120	1	-4
526.290	1	1
526.460	1	-3
526.630	1	8
526.800	1	5
526.970	1	1
527.140	1	9
527.311	1	-2
527.481	1	-4
527.651	1	8
527.821	1	5
527.991	1	9
528.161	1	15
528.331	1	6
528.501	1	12
528.671	1	1
528.841	1	-5
529.011	1	-2
529.181	1	10
529.352	1	0
529.522	1	-5
529.692	1	8
529.862	1	3
530.032	1	8
530.202	1	8
530.372	1	-5
530.542	1	9
530.712	1	11
530.882	1	6
531.052	1	6
531.222	1	6
531.392	1	2
531.563	1	8
531.733	1	9
531.903	1	-2
532.073	1	13
532.243	1	-1
532.413	1	4
532.583	1	-1
532.753	1	6
532.923	1	-7
533.093	1	3
533.263	1	14
533.433	1	14
533.603	1	5
533.773	1	2
533.943	1	4
534.113	1	0
534.284	1	4
534.454	1	12
534.624	1	12
534.794	1	0
534.964	1	9
535.134	1	5
535.304	1	2
535.474	1	18
535.644	1	-3
535.814	1	8
535.984	1	-13
536.154	1	-5
536.324	1	0
536.494	1	4
536.664	1	17
536.834	1	3
537.004	1	3
537.174	1	-4
537.344	1	6
537.514	1	-4
537.685	1	5
537.855	1	7
538.025	1	5
538.195	1	-1
538.365	1	17
538.535	1	6
538.705	1	4
538.875	1	2
539.045	1	2
539.215	1	0
539.385	1	-1
539.555	1	11
539.725	1	-2
539.895	1	-3
540.065	1	14
540.235	1	9
540.405	1	-3
540.575	1	6
540.745	1	14
540.915	1	3
541.085	1	13
541.255	1	-2
541.425	1	9
541.595	1	6
541.765	1	8
541.935	1	-3
542.105	1	-5
542.275	1	6
542.445	1	0
542.615	1	5
542.785	1	11
542.955	1	8
543.125	1	-7
543.295	1	4
543.465	1	5
543.635	1	9
543.805	1	11
543.975	1	3
544.145	1	3
544.315	1	7
544.485	1	2
544.655	1	4
544.825	1	-10
544.995	1	9
545.165	1	-4
545.335	1	6
545.505	1	-1
545.675	1	2
545.845	1	6
546.015	1	9
546.185	1	13
546.355	1	6
546.525	1	6
546.695	1	5
546.865	1	3
547.035	1	7
547.205	1	-14
547.375	1	12
547.545	1	12
547.715	1	3
547.885	1	1
548.055	1	0
548.225	1	5
548.395	1	-3
548.565	1	7
548.735	1	0
548.905	1	0
549.075	1	5
549.245	1	0
549.415	1	0
549.585	1	11
549.755	1	8
549.925	1	-2
550.095	1	1
550.265	1	3
550.435	1	-7
550.605	1	4
550.775	1	8
550.945	1	13
551.115	1	6
551.285	1	7
551.455	1	5
551.625	1	4
551.795	1	5
551.965	1	-2
552.135	1	5
552.305	1	-2
552.475	1	-9
552.645	1	2
552.815	1	3
552.985	1	8
553.155	1	2
553.325	1	8
553.495	1	5
553.665	1	0
553.835	1	1
554.004	1	9
554.174	1	0
554.344	1	10
554.514	1	1
554.684	1	14
554.854	1	4
555.024	1	-10
555.194	1	3
555.364	1	14
555.534	1	2
555.704	1	2
555.874	1	1
556.044	1	-3
556.214	1	-7
556.384	1	5
556.554	1	7
556.724	1	0
556.894	1	-3
557.064	1	0
557.234	1	-4
557.404	1	4
557.573	1	8
557.743	1	4
557.913	1	-4
558.083	1	-2
558.253	1	11
558.423	1	2
558.593	1	10
558.763	1	-7
558.933	1	-5
559.103	1	4
559.273	1	-2
559.443	1	6
559.613	1	2
559.783	1	-1
559.953	1	-8
560.122	1	17
560.292	1	0
560.462	1	5
560.632	1	7
560.802	1	12
560.972	1	7
561.142	1	16
561.312	1	-5
561.482	1	7
561.652	1	1
561.822	1	-1
561.992	1	0
562.162	1	-2
562.331	1	4
562.501	1	-7
562.671	1	4
562.841	1	-6
563.011	1	4
563.181	1	7
563.351	1	4
563.521	1	5
563.691	1	-12
563.861	1	5
564.031	1	7
564.201	1	8
564.370	1	-3
564.540	1	0
564.710	1	5
564.880	1	1
565.050	1	6
565.220	1	-6
565.390	1	5
565.560	1	5
565.730	1	0
565.900	1	8
566.069	1	13
566.239	1	7
566.409	1	5
566.579	1	3
566.749	1	-4
566.919	1	8
567.089	1	11
567.259	1	-1
567.429	1	7
567.599	1	-8
567.768	1	7
567.938	1	4
568.108	1	-1
568.278	1	-4
568.448	1	-3
568.618	1	-2
568.788	1	0
568.958	1	-1
569.128	1	7
569.297	1	-1
569.467	1	-2
569.637	1	9
569.807	1	-3
569.977	1	12
570.147	1	11
570.317	1	-12
570.487	1	8
570.656	1	11
570.826	1	1
570.996	1	-2
571.166	1	9
571.336	1	-7
571.506	1	9
571.676	1	8
571.846	1	2
572.015	1	-5
572.185	1	-2
572.355	1	2
572.525	1	2
572.695	1	4
572.865	1	2
573.035	1	7
573.205	1	7
573.374	1	-5
573.544	1	-3
573.714	1	14
573.884	1	1
574.054	1	7
574.224	1	-7
574.394	1	-6
574.563	1	0
574.733	1	3
574.903	1	-3
575.073	1	-2
575.243	1	-5
575.413	1	6
575.583	1	-3
575.752	1	11
575.922	1	-2
576.092	1	1
576.262	1	7
576.432	1	2
576.602	1	-1
576.772	1	8
576.941	1	4
577.111	1	-2
577.281	1	0
577.451	1	3
577.621	1	4
577.791	1	5
577.960	1	-9
578.130	1	16
578.300	1	2
578.470	1	6
578.640	1	12
578.810	1	-1
578.979	1	5
579.149	1	-5
579.319	1	-4
579.489	1	-1
579.659	1	0
579.829	1	7
579.998	1	17
580.168	1	15
580.338	1	7
580.508	1	-1
580.678	1	3
580.848	1	-6
581.017	1	2
581.187	1	1
581.357	1	-7
581.527	1	6
581.697	1	5
581.867	1	5
582.036	1	-4
582.206	1	9
582.376	1	14
582.546	1	-10
582.716	1	0
582.885	1	-4
583.055	1	10
583.225	1	-3
583.395	1	2
583.565	1	-5
583.735	1	13
583.904	1	13
584.074	1	11
584.244	1	5
584.414	1	2
584.584	1	10
584.753	1	0
584.923	1	8
585.093	1	7
585.263	1	7
585.433	1	5
585.602	1	-6
585.772	1	-2
585.942	1	3
586.112	1	2
586.282	1	6
586.451	1	-9
586.621	1	-4
586.791	1	6
586.961	1	-4
587.131	1	6
587.300	1	-3
587.470	1	10
587.640	1	5
587.810	1	-4
587.980	1	1
588.149	1	3
588.319	1	10
588.489	1	1
588.659	1	-1
588.829	1	-4
588.998	1	19
589.168	1	4
589.338	1	1
589.508	1	10
589.677	1	-3
589.847	1	-5
590.017	1	18
590.187	1	-5
590.357	1	6
590.526	1	5
590.696	1	8
590.866	1	13
591.036	1	-5
591.205	1	13
591.375	1	-1
591.545	1	-2
591.715	1	10
591.885	1	-2
592.054	1	0
592.224	1	-3
592.394	1	2
592.564	1	7
592.733	1	0
592.903	1	0
593.073	1	2
593.243	1	11
593.412	1	10
593.582	1	-1
593.752	1	-9
593.922	1	-2
594.091	1	4
594.261	1	-4
594.431	1	-3
594.601	1	5
594.771	1	16
594.940	1	-6
595.110	1	-1
595.280	1	5
595.450	1	0
595.619	1	-4
595.789	1	6
595.959	1	8
596.129	1	-4
596.298	1	-2
596.468	1	4
596.638	1	10
596.808	1	1
596.977	1	-6
597.147	1	3
597.317	1	-5
597.487	1	2
597.656	1	5
597.826	1	4
597.996	1	-8
598.166	1	2
598.335	1	-3
598.505	1	3
598.675	1	-2
598.844	1	1
599.014	1	-2
599.184	1	11
599.354	1	-4
599.523	1	9
599.693	1	-5
599.863	1	1
600.033	1	3
600.202	1	12
600.372	1	4
600.542	1	8
600.712	1	-7
600.881	1	4
601.051	1	4
601.221	1	-7
601.390	1	-6
601.560	1	9
601.730	1	-1
601.900	1	-3
602.069	1	11
602.239	1	-4
602.409	1	-9
602.578	1	-6
602.748	1	7
602.918	1	13
603.088	1	5
603.257	1	9
603.427	1	-1
603.597	1	1
603.767	1	-2
603.936	1	4
604.106	1	10
604.276	1	-1
604.445	1	18
604.615	1	-5
604.785	1	5
604.954	1	-2
605.124	1	10
605.294	1	0
605.464	1	2
605.633	1	2
605.803	1	4
605.973	1	-2
606.142	1	11
606.312	1	4
606.482	1	2
606.652	1	8
606.821	1	2
606.991	1	6
607.161	1	-1
607.330	1	6
607.500	1	11
607.670	1	-6
607.839	1	13
608.009	1	5
608.179	1	5
608.348	1	7
608.518	1	0
608.688	1	7
608.858	1	5
609.027	1	-2
609.197	1	9
609.367	1	12
609.536	1	6
609.706	1	7
609.876	1	-6
610.045	1	-4
610.215	1	2
610.385	1	2
610.554	1	1
610.724	1	15
610.894	1	-1
611.063	1	3
611.233	1	-4
611.403	1	4
611.572	1	1
611.742	1	1
611.912	1	-3
612.081	1	-3
612.251	1	8
612.421	1	-5
612.590	1	4
612.760	1	3
612.930	1	2
613.099	1	-2
613.269	1	10
613.439	1	0
613.608	1	0
613.778	1	11
613.948	1	1
614.117	1	1
614.287	1	8
614.457	1	0
614.626	1	6
614.796	1	6
614.966	1	4
615.135	1	-3
615.305	1	12
615.475	1	-5
615.644	1	9
615.814	1	-2
615.984	1	0
616.153	1	-1
616.323	1	-5
616.493	1	-2
616.662	1	12
616.832	1	0
617.002	1	-7
617.171	1	2
617.341	1	8
617.511	1	-7
617.680	1	-1
617.850	1	5
618.019	1	18
618.189	1	16
618.359	1	8
618.528	1	5
618.698	1	6
618.868	1	-1
619.037	1	-4
619.207	1	-5
619.377	1	0
619.546	1	-10
619.716	1	3
619.885	1	1
620.055	1	-14
620.225	1	-1
620.394	1	-4
620.564	1	8
620.734	1	16
620.903	1	-2
621.073	1	5
621.242	1	8
621.412	1	-2
621.582	1	-3
621.751	1	-1
621.921	1	7
622.091	1	-5
622.260	1	2
622.430	1	17
622.599	1	3
622.769	1	8
622.939	1	9
623.108	1	0
623.278	1	3
623.448	1	7
623.617	1	6
623.787	1	2
623.956	1	12
624.126	1	-2
624.296	1	-2
624.465	1	8
624.635	1	11
624.804	1	8
624.974	1	-6
625.144	1	5
625.313	1	4
625.483	1	-4
625.652	1	2
625.822	1	-8
625.992	1	3
626.161	1	14
626.331	1	5
626.501	1	10
626.670	1	9
626.840	1	1
627.009	1	4
627.179	1	9
627.348	1	5
627.518	1	9
627.688	1	7
627.857	1	21
628.027	1	-6
628.196	1	0
628.366	1	10
628.536	1	4
628.705	1	6
628.875	1	1
629.044	1	4
629.214	1	15
629.384	1	5
629.553	1	16
629.723	1	7
629.892	1	7
630.062	1	5
630.232	1	10
630.401	1	13
630.571	1	1
630.740	1	-2
630.910	1	12
631.079	1	3
631.249	1	-7
631.419	1	11
631.588	1	-3
631.758	1	5
631.927	1	3
632.097	1	2
632.266	1	-6
632.436	1	12
632.606	1	6
632.775	1	9
632.945	1	-5
633.114	1	9
633.284	1	9
633.453	1	4
633.623	1	3
633.793	1	5
633.962	1	11
634.132	1	9
634.301	1	5
634.471	1	16
634.640	1	5
634.810	1	-4
634.979	1	4
635.149	1	12
635.319	1	2
635.488	1	11
635.658	1	3
635.827	1	-13
635.997	1	6
636.166	1	9
636.336	1	-1
636.505	1	13
636.675	1	8
636.845	1	7
637.014	1	4
637.184	1	5
637.353	1	4
637.523	1	8
637.692	1	8
637.862	1	16
638.031	1	-2
638.201	1	11
638.370	1	10
638.540	1	-2
638.710	1	1
638.879	1	-3
639.049	1	4
639.218	1	4
639.388	1	2
639.557	1	-2
639.727	1	5
639.896	1	10
640.066	1	1
640.235	1	5
640.405	1	6
640.574	1	8
640.744	1	1
640.914	1	9
641.083	1	5
641.253	1	-2
641.422	1	4
641.592	1	22
641.761	1	4
641.931	1	0
642.100	1	11
642.270	1	5
642.439	1	7
642.609	1	2
642.778	1	4
642.948	1	0
643.117	1	9
643.287	1	9
643.456	1	0
643.626	1	11
643.795	1	10
643.965	1	7
644.134	1	3
644.304	1	1
644.473	1	2
644.643	1	9
644.812	1	5
644.982	1	14
645.151	1	3
645.321	1	-3
645.490	1	21
645.660	1	-6
645.829	1	2
645.999	1	-9
646.168	1	6
646.338	1	3
646.507	1	4
646.677	1	16
646.846	1	-2
647.016	1	-7
647.185	1	4
647.355	1	-10
647.524	1	11
647.694	1	12
647.863	1	3
648.033	1	1
648.202	1	7
648.372	1	-1
648.541	1	1
648.711	1	12
648.880	1	1
649.050	1	9
649.219	1	-1
649.389	1	18
649.558	1	9
649.728	1	11
649.897	1	-4
650.067	1	7
650.236	1	4
650.406	1	12
650.575	1	8
650.745	1	14
650.914	1	-8
651.084	1	5
651.253	1	2
651.423	1	11
651.592	1	6
651.762	1	-2
651.931	1	10
652.101	1	11
652.270	1	6
652.440	1	7
652.609	1	-3
652.778	1	-5
652.948	1	3
653.117	1	7
653.287	1	2
653.456	1	4
653.626	1	14
653.795	1	9
653.965	1	10
654.134	1	2
654.304	1	-8
654.473	1	16
654.643	1	2
654.812	1	4
654.982	1	1
655.151	1	12
655.320	1	3
655.490	1	-3
655.659	1	11
655.829	1	4
655.998	1	6
656.168	1	9
656.337	1	3
656.507	1	5
656.676	1	9
656.846	1	14
657.015	1	20
657.184	1	12
657.354	1	5
657.523	1	8
657.693	1	9
657.862	1	10
658.032	1	4
658.201	1	6
658.371	1	14
658.540	1	5
658.709	1	-5
658.879	1	20
659.048	1	5
659.218	1	-4
659.387	1	9
659.557	1	13
659.726	1	3
659.895	1	4
660.065	1	-8
660.234	1	0
660.404	1	5
660.573	1	6
660.743	1	4
660.912	1	11
661.081	1	15
661.251	1	6
661.420	1	3
661.590	1	10
661.759	1	0
661.929	1	14
662.098	1	16
662.267	1	0
662.437	1	5
662.606	1	0
662.776	1	6
662.945	1	1
663.115	1	4
663.284	1	1
663.453	1	8
663.623	1	4
663.792	1	6
663.962	1	3
664.131	1	7
664.300	1	15
664.470	1	-2
664.639	1	10
664.809	1	13
664.978	1	14
665.148	1	2
665.317	1	2
665.486	1	14
665.656	1	4
665.825	1	13
665.995	1	4
666.164	1	4
666.333	1	4
666.503	1	9
666.672	1	-1
666.842	1	8
667.011	1	-2
667.180	1	12
667.350	1	7
667.519	1	11
667.689	1	1
667.858	1	4
668.027	1	15
668.197	1	12
668.366	1	-4
668.536	1	5
668.705	1	8
668.874	1	9
669.044	1	0
669.213	1	11
669.382	1	5
669.552	1	10
669.721	1	9
669.891	1	18
670.060	1	5
670.229	1	15
670.399	1	5
670.568	1	17
670.738	1	15
670.907	1	1
671.076	1	-6
671.246	1	10
671.415	1	4
671.584	1	5
671.754	1	5
671.923	1	5
672.093	1	11
672.262	1	1
672.431	1	12
672.601	1	8
672.770	1	1
672.939	1	15
673.109	1	5
673.278	1	7
673.448	1	14
673.617	1	-2
673.786	1	12
