325.333	1	10
325.504	1	8
325.675	1	13
325.846	1	3
326.017	1	6
326.188	1	20
326.359	1	7
326.531	1	-9
326.702	1	10
326.873	1	10
327.044	1	6
327.215	1	6
327.386	1	9
327.557	1	8
327.728	1	14
327.899	1	9
328.070	1	20
328.241	1	11
328.412	1	-8
328.583	1	12
328.754	1	-1
328.926	1	13
329.097	1	5
329.268	1	22
329.439	1	8
329.610	1	8
329.781	1	-2
329.952	1	17
330.123	1	9
330.294	1	11
330.465	1	14
330.636	1	12
330.807	1	5
330.978	1	5
331.149	1	3
331.320	1	8
331.492	1	13
331.663	1	5
331.834	1	24
332.005	1	8
332.176	1	20
332.347	1	8
332.518	1	7
332.689	1	14
332.860	1	9
333.031	1	18
333.202	1	13
333.373	1	12
333.544	1	3
333.715	1	11
333.886	1	13
334.057	1	18
334.228	1	7
334.399	1	13
334.570	1	13
334.741	1	2
334.912	1	21
335.084	1	26
335.255	1	11
335.426	1	5
335.597	1	13
335.768	1	6
335.939	1	21
336.110	1	23
336.281	1	8
336.452	1	8
336.623	1	8
336.794	1	11
336.965	1	3
337.136	1	19
337.307	1	10
337.478	1	13
337.649	1	15
337.820	1	14
337.991	1	18
338.162	1	12
338.333	1	14
338.504	1	16
338.675	1	9
338.846	1	15
339.017	1	16
339.188	1	8
339.359	1	4
339.530	1	9
339.701	1	26
339.872	1	30
340.043	1	10
340.214	1	13
340.385	1	22
340.556	1	12
340.727	1	12
340.898	1	23
341.069	1	16
341.240	1	12
341.411	1	26
341.582	1	18
341.753	1	5
341.924	1	13
342.095	1	21
342.266	1	28
342.437	1	22
342.608	1	12
342.779	1	18
342.950	1	24
343.121	1	24
343.292	1	16
343.463	1	27
343.634	1	19
343.805	1	31
343.976	1	13
344.147	1	18
344.318	1	19
344.489	1	14
344.660	1	35
344.831	1	18
345.002	1	10
345.173	1	19
345.344	1	22
345.515	1	22
345.686	1	21
345.857	1	19
346.028	1	20
346.199	1	15
346.370	1	17
346.541	1	20
346.712	1	11
346.883	1	25
347.054	1	23
347.225	1	22
347.396	1	21
347.567	1	19
347.738	1	5
347.909	1	30
348.080	1	21
348.251	1	32
348.422	1	27
348.593	1	17
348.764	1	17
348.935	1	22
349.106	1	20
349.277	1	19
349.448	1	32
349.619	1	18
349.790	1	19
349.961	1	21
350.132	1	31
350.303	1	26
350.474	1	42
350.645	1	21
350.816	1	22
350.987	1	32
351.157	1	10
351.328	1	29
351.499	1	26
351.670	1	21
351.841	1	32
352.012	1	40
352.183	1	38
352.354	1	28
352.525	1	47
352.696	1	38
352.867	1	22
353.038	1	36
353.209	1	35
353.380	1	25
353.551	1	32
353.722	1	30
353.893	1	22
354.064	1	43
354.235	1	33
354.406	1	21
354.576	1	31
354.747	1	31
354.918	1	28
355.089	1	25
355.260	1	38
355.431	1	25
355.602	1	26
355.773	1	36
355.944	1	23
356.115	1	21
356.286	1	35
356.457	1	30
356.628	1	25
356.799	1	29
356.970	1	32
357.141	1	29
357.311	1	22
357.482	1	32
357.653	1	36
357.824	1	32
357.995	1	41
358.166	1	25
358.337	1	30
358.508	1	28
358.679	1	29
358.850	1	45
359.021	1	26
359.192	1	25
359.363	1	26
359.533	1	34
359.704	1	32
359.875	1	31
360.046	1	34
360.217	1	24
360.388	1	36
360.559	1	30
360.730	1	39
360.901	1	34
361.072	1	50
361.243	1	42
361.414	1	34
361.584	1	30
361.755	1	41
361.926	1	31
362.097	1	43
362.268	1	46
362.439	1	27
362.610	1	45
362.781	1	26
362.952	1	25
363.123	1	36
363.293	1	18
363.464	1	41
363.635	1	28
363.806	1	34
363.977	1	35
364.148	1	38
364.319	1	32
364.490	1	39
364.661	1	33
364.832	1	31
365.002	1	32
365.173	1	38
365.344	1	39
365.515	1	25
365.686	1	37
365.857	1	40
366.028	1	37
366.199	1	33
366.370	1	43
366.540	1	26
366.711	1	25
366.882	1	36
367.053	1	32
367.224	1	54
367.395	1	41
367.566	1	41
367.737	1	45
367.908	1	38
368.078	1	49
368.249	1	49
368.420	1	29
368.591	1	30
368.762	1	45
368.933	1	35
369.104	1	26
369.274	1	40
369.445	1	32
369.616	1	36
369.787	1	28
369.958	1	45
370.129	1	33
370.300	1	41
370.471	1	36
370.641	1	37
370.812	1	41
370.983	1	36
371.154	1	32
371.325	1	46
371.496	1	45
371.667	1	40
371.837	1	25
372.008	1	28
372.179	1	30
372.350	1	44
372.521	1	41
372.692	1	39
372.863	1	45
373.033	1	33
373.204	1	30
373.375	1	37
373.546	1	39
373.717	1	38
373.888	1	38
374.059	1	45
374.229	1	50
374.400	1	32
374.571	1	41
374.742	1	44
374.913	1	42
375.084	1	32
375.254	1	50
375.425	1	36
375.596	1	47
375.767	1	46
375.938	1	45
376.109	1	41
376.279	1	39
376.450	1	42
376.621	1	52
376.792	1	34
376.963	1	38
377.134	1	43
377.304	1	50
377.475	1	40
377.646	1	34
377.817	1	39
377.988	1	40
378.159	1	54
378.329	1	49
378.500	1	36
378.671	1	43
378.842	1	40
379.013	1	35
379.184	1	33
379.354	1	53
379.525	1	40
379.696	1	44
379.867	1	51
380.038	1	42
380.209	1	45
380.379	1	54
380.550	1	43
380.721	1	51
380.892	1	50
381.063	1	43
381.233	1	37
381.404	1	45
381.575	1	55
381.746	1	46
381.917	1	47
382.087	1	46
382.258	1	38
382.429	1	48
382.600	1	49
382.771	1	40
382.941	1	48
383.112	1	42
383.283	1	50
383.454	1	51
383.625	1	42
383.795	1	50
383.966	1	40
384.137	1	53
384.308	1	54
384.479	1	53
384.649	1	49
384.820	1	57
384.991	1	52
385.162	1	51
385.333	1	39
385.503	1	48
385.674	1	35
385.845	1	52
386.016	1	50
386.187	1	51
386.357	1	54
386.528	1	61
386.699	1	34
386.870	1	53
387.041	1	55
387.211	1	54
387.382	1	53
387.553	1	55
387.724	1	46
387.894	1	53
388.065	1	42
388.236	1	53
388.407	1	57
388.578	1	46
388.748	1	54
388.919	1	65
389.090	1	51
389.261	1	55
389.431	1	56
389.602	1	60
389.773	1	45
389.944	1	55
390.114	1	56
390.285	1	49
390.456	1	53
390.627	1	55
390.798	1	53
390.968	1	46
391.139	1	57
391.310	1	44
391.481	1	56
391.651	1	57
391.822	1	44
391.993	1	51
392.164	1	49
392.334	1	56
392.505	1	49
392.676	1	59
392.847	1	74
393.017	1	59
393.188	1	48
393.359	1	51
393.530	1	53
393.700	1	48
393.871	1	52
394.042	1	49
394.213	1	54
394.383	1	50
394.554	1	51
394.725	1	52
394.896	1	50
395.066	1	54
395.237	1	48
395.408	1	57
395.579	1	55
395.749	1	57
395.920	1	48
396.091	1	64
396.262	1	48
396.432	1	53
396.603	1	59
396.774	1	61
396.945	1	57
397.115	1	58
397.286	1	64
397.457	1	61
397.627	1	57
397.798	1	56
397.969	1	50
398.140	1	46
398.310	1	59
398.481	1	57
398.652	1	58
398.823	1	52
398.993	1	65
399.164	1	52
399.335	1	62
399.505	1	51
399.676	1	55
399.847	1	49
400.018	1	57
400.188	1	57
400.359	1	57
400.530	1	46
400.700	1	47
400.871	1	53
401.042	1	57
401.213	1	54
401.383	1	51
401.554	1	61
401.725	1	63
401.895	1	46
402.066	1	73
402.237	1	60
402.408	1	63
402.578	1	52
402.749	1	61
402.920	1	62
403.090	1	48
403.261	1	60
403.432	1	59
403.603	1	61
403.773	1	71
403.944	1	65
404.115	1	54
404.285	1	71
404.456	1	53
404.627	1	60
404.797	1	50
404.968	1	54
405.139	1	57
405.310	1	65
405.480	1	63
405.651	1	57
405.822	1	56
405.992	1	52
406.163	1	54
406.334	1	51
406.504	1	54
406.675	1	63
406.846	1	56
407.016	1	56
407.187	1	70
407.358	1	46
407.528	1	48
407.699	1	59
407.870	1	65
408.041	1	59
408.211	1	76
408.382	1	58
408.553	1	43
408.723	1	70
408.894	1	52
409.065	1	72
409.235	1	62
409.406	1	61
409.577	1	57
409.747	1	68
409.918	1	53
410.089	1	57
410.259	1	60
410.430	1	58
410.601	1	61
410.771	1	58
410.942	1	68
411.113	1	63
411.283	1	62
411.454	1	66
411.625	1	60
411.795	1	62
411.966	1	71
412.137	1	51
412.307	1	47
412.478	1	59
412.649	1	61
412.819	1	62
412.990	1	60
413.161	1	61
413.331	1	55
413.502	1	59
413.672	1	64
413.843	1	59
414.014	1	59
414.184	1	65
414.355	1	55
414.526	1	53
414.696	1	62
414.867	1	61
415.038	1	46
415.208	1	53
415.379	1	54
415.550	1	60
415.720	1	53
415.891	1	57
416.062	1	66
416.232	1	62
416.403	1	62
416.573	1	60
416.744	1	51
416.915	1	61
417.085	1	59
417.256	1	56
417.427	1	49
417.597	1	56
417.768	1	42
417.939	1	54
418.109	1	68
418.280	1	65
418.450	1	55
418.621	1	44
418.792	1	56
418.962	1	55
419.133	1	66
419.304	1	56
419.474	1	55
419.645	1	59
419.815	1	53
419.986	1	52
420.157	1	62
420.327	1	63
420.498	1	71
420.669	1	56
420.839	1	62
421.010	1	53
421.180	1	62
421.351	1	55
421.522	1	74
421.692	1	52
421.863	1	60
422.033	1	62
422.204	1	69
422.375	1	49
422.545	1	65
422.716	1	62
422.886	1	45
423.057	1	57
423.228	1	56
423.398	1	46
423.569	1	54
423.740	1	60
423.910	1	48
424.081	1	49
424.251	1	53
424.422	1	63
424.593	1	51
424.763	1	63
424.934	1	55
425.104	1	67
425.275	1	54
425.445	1	50
425.616	1	48
425.787	1	54
425.957	1	50
426.128	1	62
426.298	1	47
426.469	1	63
426.640	1	53
426.810	1	55
426.981	1	53
427.151	1	54
427.322	1	50
427.493	1	53
427.663	1	55
427.834	1	57
428.004	1	55
428.175	1	62
428.345	1	43
428.516	1	54
428.687	1	46
428.857	1	55
429.028	1	50
429.198	1	46
429.369	1	66
429.540	1	57
429.710	1	45
429.881	1	51
430.051	1	56
430.222	1	39
430.392	1	51
430.563	1	60
430.734	1	63
430.904	1	58
431.075	1	57
431.245	1	43
431.416	1	59
431.586	1	48
431.757	1	55
431.927	1	55
432.098	1	53
432.269	1	47
432.439	1	46
432.610	1	52
432.780	1	58
432.951	1	51
433.121	1	50
433.292	1	51
433.462	1	55
433.633	1	61
433.804	1	56
433.974	1	46
434.145	1	63
434.315	1	48
434.486	1	50
434.656	1	59
434.827	1	54
434.997	1	46
435.168	1	63
435.339	1	55
435.509	1	51
435.680	1	42
435.850	1	56
436.021	1	53
436.191	1	55
436.362	1	57
436.532	1	57
436.703	1	47
436.873	1	53
437.044	1	43
437.214	1	54
437.385	1	42
437.556	1	46
437.726	1	58
437.897	1	57
438.067	1	48
438.238	1	53
438.408	1	51
438.579	1	54
438.749	1	46
438.920	1	39
439.090	1	44
439.261	1	45
439.431	1	41
439.602	1	42
439.772	1	42
439.943	1	57
440.113	1	48
440.284	1	53
440.455	1	49
440.625	1	44
440.796	1	48
440.966	1	42
441.137	1	41
441.307	1	33
441.478	1	54
441.648	1	56
441.819	1	49
441.989	1	49
442.160	1	55
442.330	1	52
442.501	1	42
442.671	1	37
442.842	1	34
443.012	1	44
443.183	1	50
443.353	1	33
443.524	1	50
443.694	1	47
443.865	1	35
444.035	1	50
444.206	1	45
444.376	1	39
444.547	1	63
444.717	1	54
444.888	1	37
445.058	1	53
445.229	1	51
445.399	1	43
445.570	1	50
445.740	1	48
445.911	1	29
446.081	1	39
446.252	1	53
446.422	1	47
446.593	1	45
446.763	1	40
446.934	1	40
447.104	1	48
447.275	1	30
447.445	1	49
447.616	1	44
447.786	1	39
447.957	1	44
448.127	1	46
448.298	1	52
448.468	1	30
448.639	1	43
448.809	1	50
448.979	1	45
449.150	1	57
449.320	1	49
449.491	1	44
449.661	1	30
449.832	1	39
450.002	1	50
450.173	1	41
450.343	1	36
450.514	1	42
450.684	1	47
450.855	1	42
451.025	1	41
451.196	1	40
451.366	1	47
451.537	1	37
451.707	1	31
451.878	1	36
452.048	1	51
452.218	1	44
452.389	1	35
452.559	1	43
452.730	1	51
452.900	1	40
453.071	1	34
453.241	1	45
453.412	1	38
453.582	1	43
453.753	1	39
453.923	1	48
454.093	1	32
454.264	1	56
454.434	1	31
454.605	1	28
454.775	1	45
454.946	1	40
455.116	1	32
455.287	1	35
455.457	1	32
455.628	1	44
455.798	1	40
455.968	1	50
456.139	1	36
456.309	1	33
456.480	1	25
456.650	1	35
456.821	1	35
456.991	1	44
457.161	1	32
457.332	1	44
457.502	1	31
457.673	1	40
457.843	1	42
458.014	1	32
458.184	1	40
458.355	1	30
458.525	1	44
458.695	1	34
458.866	1	32
459.036	1	36
459.207	1	31
459.377	1	34
459.548	1	44
459.718	1	28
459.888	1	45
460.059	1	34
460.229	1	45
460.400	1	44
460.570	1	42
460.740	1	37
460.911	1	37
461.081	1	35
461.252	1	32
461.422	1	37
461.593	1	33
461.763	1	40
461.933	1	36
462.104	1	30
462.274	1	44
462.445	1	39
462.615	1	39
462.785	1	27
462.956	1	38
463.126	1	42
463.297	1	23
463.467	1	39
463.638	1	36
463.808	1	31
463.978	1	26
464.149	1	34
464.319	1	38
464.490	1	49
464.660	1	25
464.830	1	34
465.001	1	31
465.171	1	27
465.342	1	33
465.512	1	27
465.682	1	26
465.853	1	30
466.023	1	32
466.194	1	27
466.364	1	31
466.534	1	36
466.705	1	28
466.875	1	25
467.045	1	30
467.216	1	30
467.386	1	21
467.557	1	27
467.727	1	21
467.897	1	23
468.068	1	29
468.238	1	30
468.409	1	34
468.579	1	24
468.749	1	29
468.920	1	22
469.090	1	28
469.260	1	36
469.431	1	19
469.601	1	37
469.772	1	31
469.942	1	29
470.112	1	39
470.283	1	34
470.453	1	29
470.623	1	32
470.794	1	28
470.964	1	21
471.135	1	33
471.305	1	18
471.475	1	24
471.646	1	23
471.816	1	24
471.986	1	19
472.157	1	30
472.327	1	22
472.497	1	30
472.668	1	13
472.838	1	38
473.009	1	28
473.179	1	18
473.349	1	21
473.520	1	37
473.690	1	24
473.860	1	28
474.031	1	29
474.201	1	29
474.371	1	22
474.542	1	29
474.712	1	27
474.882	1	31
475.053	1	34
475.223	1	16
475.394	1	22
475.564	1	23
475.734	1	25
475.905	1	37
476.075	1	29
476.245	1	37
476.416	1	27
476.586	1	38
476.756	1	30
476.927	1	23
477.097	1	33
477.267	1	8
477.438	1	28
477.608	1	23
477.778	1	21
477.949	1	37
478.119	1	30
478.289	1	23
478.460	1	43
478.630	1	22
478.800	1	23
478.971	1	24
479.141	1	24
479.311	1	18
479.482	1	23
479.652	1	23
479.822	1	21
479.993	1	32
480.163	1	25
480.333	1	26
480.504	1	32
480.674	1	21
480.844	1	13
481.015	1	35
481.185	1	19
481.355	1	24
481.525	1	25
481.696	1	19
481.866	1	20
482.036	1	26
482.207	1	17
482.377	1	14
482.547	1	26
482.718	1	19
482.888	1	18
483.058	1	22
483.229	1	18
483.399	1	19
483.569	1	24
483.740	1	21
483.910	1	18
484.080	1	24
484.250	1	23
484.421	1	30
484.591	1	19
484.761	1	29
484.932	1	27
485.102	1	29
485.272	1	28
485.443	1	33
485.613	1	20
485.783	1	20
485.953	1	19
486.124	1	22
486.294	1	15
486.464	1	26
486.635	1	21
486.805	1	30
486.975	1	18
487.146	1	29
487.316	1	18
487.486	1	14
487.656	1	12
487.827	1	15
487.997	1	17
488.167	1	20
488.338	1	25
488.508	1	13
488.678	1	18
488.848	1	21
489.019	1	17
489.189	1	16
489.359	1	18
489.529	1	27
489.700	1	19
489.870	1	28
490.040	1	16
490.211	1	12
490.381	1	30
490.551	1	18
490.721	1	16
490.892	1	24
491.062	1	25
491.232	1	25
491.402	1	16
491.573	1	6
491.743	1	28
491.913	1	19
492.084	1	21
492.254	1	15
492.424	1	17
492.594	1	13
492.765	1	22
492.935	1	24
493.105	1	26
493.275	1	21
493.446	1	24
493.616	1	23
493.786	1	17
493.956	1	12
494.127	1	8
494.297	1	11
494.467	1	16
494.637	1	20
494.808	1	25
494.978	1	12
495.148	1	10
495.318	1	13
495.489	1	25
495.659	1	22
495.829	1	24
495.999	1	11
496.170	1	23
496.340	1	18
496.510	1	27
496.680	1	7
496.851	1	19
497.021	1	12
497.191	1	14
497.361	1	15
497.532	1	17
497.702	1	15
497.872	1	21
498.042	1	23
498.213	1	20
498.383	1	20
498.553	1	9
498.723	1	15
498.894	1	15
499.064	1	19
499.234	1	17
499.404	1	21
499.574	1	30
499.745	1	15
499.915	1	12
500.085	1	21
500.255	1	27
500.426	1	15
500.596	1	6
500.766	1	11
500.936	1	20
501.106	1	9
501.277	1	20
501.447	1	11
501.617	1	23
501.787	1	11
501.958	1	2
502.128	1	18
502.298	1	11
502.468	1	24
502.638	1	17
502.809	1	15
502.979	1	11
503.149	1	9
503.319	1	16
503.489	1	8
503.660	1	15
503.830	1	19
504.000	1	27
504.170	1	8
504.340	1	2
504.511	1	22
504.681	1	11
504.851	1	17
505.021	1	16
505.192	1	15
505.362	1	26
505.532	1	21
505.702	1	10
505.872	1	18
506.043	1	15
506.213	1	8
506.383	1	8
506.553	1	21
506.723	1	12
506.893	1	10
507.064	1	16
507.234	1	0
507.404	1	14
507.574	1	12
507.744	1	16
507.915	1	14
508.085	1	27
508.255	1	19
508.425	1	8
508.595	1	22
508.766	1	20
508.936	1	-1
509.106	1	13
509.276	1	25
509.446	1	9
509.616	1	13
509.787	1	8
509.957	1	11
510.127	1	16
510.297	1	21
510.467	1	5
510.638	1	11
510.808	1	-9
510.978	1	4
511.148	1	10
511.318	1	17
511.488	1	5
511.659	1	16
511.829	1	0
511.999	1	16
512.169	1	13
512.339	1	13
512.509	1	8
512.680	1	10
512.850	1	14
513.020	1	10
513.190	1	18
513.360	1	6
513.530	1	12
513.700	1	18
513.871	1	11
514.041	1	3
514.211	1	20
514.381	1	19
514.551	1	13
514.721	1	12
514.892	1	25
515.062	1	15
515.232	1	13
515.402	1	4
515.572	1	10
515.742	1	14
515.912	1	20
516.083	1	10
516.253	1	15
516.423	1	17
516.593	1	12
516.763	1	15
516.933	1	7
517.104	1	11
517.274	1	14
517.444	1	7
517.614	1	-4
517.784	1	10
517.954	1	14
518.124	1	15
518.294	1	6
518.465	1	3
518.635	1	1
518.805	1	6
518.975	1	12
519.145	1	9
519.315	1	7
519.485	1	5
519.656	1	20
519.826	1	21
519.996	1	7
520.166	1	9
520.336	1	18
520.506	1	6
520.676	1	3
520.846	1	8
521.017	1	15
521.187	1	4
521.357	1	19
521.527	1	3
521.697	1	13
521.867	1	7
522.037	1	20
522.207	1	13
522.377	1	13
522.548	1	6
522.718	1	13
522.888	1	20
523.058	1	3
523.228	1	10
523.398	1	1
523.568	1	15
523.738	1	15
523.909	1	18
524.079	1	3
524.249	1	16
524.419	1	2
524.589	1	8
524.759	1	-3
524.929	1	6
525.099	1	15
525.269	1	11
525.439	1	1
525.610	1	17
525.780	1	8
525.950	1	9
526.120	1	13
526.290	1	4
526.460	1	8
526.630	1	11
526.800	1	8
526.970	1	10
527.140	1	13
527.311	1	0
527.481	1	9
527.651	1	20
527.821	1	3
527.991	1	21
528.161	1	18
528.331	1	7
528.501	1	10
528.671	1	3
528.841	1	9
529.011	1	2
529.181	1	8
529.352	1	8
529.522	1	-2
529.692	1	-1
529.862	1	5
530.032	1	10
530.202	1	8
530.372	1	5
530.542	1	13
530.712	1	6
530.882	1	9
531.052	1	8
531.222	1	4
531.392	1	5
531.563	1	23
531.733	1	11
531.903	1	6
532.073	1	15
532.243	1	11
532.413	1	2
532.583	1	10
532.753	1	7
532.923	1	0
533.093	1	9
533.263	1	9
533.433	1	8
533.603	1	14
533.773	1	-4
533.943	1	4
534.113	1	11
534.284	1	14
534.454	1	13
534.624	1	14
534.794	1	-9
534.964	1	6
535.134	1	6
535.304	1	11
535.474	1	17
535.644	1	4
535.814	1	-4
535.984	1	1
536.154	1	0
536.324	1	4
536.494	1	10
536.664	1	16
536.834	1	8
537.004	1	5
537.174	1	8
537.344	1	8
537.514	1	-4
537.685	1	11
537.855	1	13
538.025	1	8
538.195	1	12
538.365	1	15
538.535	1	9
538.705	1	10
538.875	1	8
539.045	1	10
539.215	1	11
539.385	1	10
539.555	1	11
539.725	1	1
539.895	1	3
540.065	1	22
540.235	1	16
540.405	1	-1
540.575	1	5
540.745	1	12
540.915	1	8
541.085	1	11
541.255	1	4
541.425	1	5
541.595	1	5
541.765	1	10
541.935	1	-1
542.105	1	-1
542.275	1	1
542.445	1	-2
542.615	1	16
542.785	1	9
542.955	1	7
543.125	1	3
543.295	1	7
543.465	1	0
543.635	1	5
543.805	1	21
543.975	1	2
544.145	1	5
544.315	1	12
544.485	1	5
544.655	1	11
544.825	1	0
544.995	1	6
545.165	1	-4
545.335	1	11
545.505	1	2
545.675	1	15
545.845	1	12
546.015	1	5
546.185	1	9
546.355	1	12
546.525	1	4
546.695	1	5
546.865	1	4
547.035	1	7
547.205	1	-4
547.375	1	9
547.545	1	12
547.715	1	0
547.885	1	6
548.055	1	4
548.225	1	8
548.395	1	1
548.565	1	11
548.735	1	9
548.905	1	0
549.075	1	12
549.245	1	4
549.415	1	4
549.585	1	5
549.755	1	8
549.925	1	-1
550.095	1	11
550.265	1	-2
550.435	1	5
550.605	1	0
550.775	1	10
550.945	1	14
551.115	1	2
551.285	1	-2
551.455	1	7
551.625	1	13
551.795	1	9
551.965	1	-4
552.135	1	3
552.305	1	3
552.475	1	-1
552.645	1	2
552.815	1	3
552.985	1	9
553.155	1	10
553.325	1	9
553.495	1	-4
553.665	1	2
553.835	1	-2
554.004	1	13
554.174	1	1
554.344	1	17
554.514	1	0
554.684	1	13
554.854	1	13
555.024	1	-3
555.194	1	-3
555.364	1	9
555.534	1	3
555.704	1	7
555.874	1	18
556.044	1	1
556.214	1	-12
556.384	1	4
556.554	1	13
556.724	1	11
556.894	1	4
557.064	1	6
557.234	1	0
557.404	1	21
557.573	1	3
557.743	1	3
557.913	1	5
558.083	1	6
558.253	1	9
558.423	1	4
558.593	1	18
558.763	1	1
558.933	1	14
559.103	1	4
559.273	1	5
559.443	1	6
559.613	1	11
559.783	1	4
559.953	1	7
560.122	1	14
560.292	1	-1
560.462	1	-1
560.632	1	0
560.802	1	11
560.972	1	0
561.142	1	13
561.312	1	0
561.482	1	12
561.652	1	11
561.822	1	2
561.992	1	9
562.162	1	7
562.331	1	10
562.501	1	-9
562.671	1	14
562.841	1	1
563.011	1	9
563.181	1	5
563.351	1	-3
563.521	1	9
563.691	1	6
563.861	1	3
564.031	1	13
564.201	1	8
564.370	1	-5
564.540	1	1
564.710	1	4
564.880	1	12
565.050	1	10
565.220	1	1
565.390	1	13
565.560	1	0
565.730	1	2
565.900	1	6
566.069	1	10
566.239	1	9
566.409	1	6
566.579	1	16
566.749	1	2
566.919	1	19
567.089	1	7
567.259	1	9
567.429	1	0
567.599	1	5
567.768	1	7
567.938	1	4
568.108	1	1
568.278	1	0
568.448	1	-3
568.618	1	7
568.788	1	7
568.958	1	10
569.128	1	12
569.297	1	6
569.467	1	1
569.637	1	14
569.807	1	4
569.977	1	6
570.147	1	13
570.317	1	0
570.487	1	10
570.656	1	11
570.826	1	-1
570.996	1	-1
571.166	1	16
571.336	1	-2
571.506	1	10
571.676	1	7
571.846	1	14
572.015	1	0
572.185	1	-2
572.355	1	12
572.525	1	7
572.695	1	-1
572.865	1	-2
573.035	1	-2
573.205	1	13
573.374	1	-3
573.544	1	0
573.714	1	14
573.884	1	14
574.054	1	11
574.224	1	13
574.394	1	6
574.563	1	-1
574.733	1	-2
574.903	1	7
575.073	1	1
575.243	1	5
575.413	1	9
575.583	1	1
575.752	1	10
575.922	1	-5
576.092	1	4
576.262	1	8
576.432	1	11
576.602	1	-2
576.772	1	14
576.941	1	0
577.111	1	0
577.281	1	-1
577.451	1	6
577.621	1	5
577.791	1	8
577.960	1	-1
578.130	1	3
578.300	1	6
578.470	1	13
578.640	1	11
578.810	1	1
578.979	1	4
579.149	1	7
579.319	1	4
579.489	1	9
579.659	1	-3
579.829	1	2
579.998	1	11
580.168	1	12
580.338	1	11
580.508	1	2
580.678	1	1
580.848	1	10
581.017	1	-5
581.187	1	3
581.357	1	-2
581.527	1	14
581.697	1	14
581.867	1	13
582.036	1	2
582.206	1	8
582.376	1	13
582.546	1	-5
582.716	1	-6
582.885	1	6
583.055	1	8
583.225	1	-4
583.395	1	8
583.565	1	0
583.735	1	7
583.904	1	5
584.074	1	7
584.244	1	5
584.414	1	6
584.584	1	5
584.753	1	-3
584.923	1	12
585.093	1	0
585.263	1	11
585.433	1	13
585.602	1	2
585.772	1	-7
585.942	1	3
586.112	1	14
586.282	1	0
586.451	1	-7
586.621	1	3
586.791	1	-3
586.961	1	6
587.131	1	13
587.300	1	1
587.470	1	11
587.640	1	7
587.810	1	-1
587.980	1	1
588.149	1	14
588.319	1	0
588.489	1	8
588.659	1	-2
588.829	1	13
588.998	1	18
589.168	1	15
589.338	1	3
589.508	1	11
589.677	1	-6
589.847	1	3
590.017	1	17
590.187	1	-3
590.357	1	12
590.526	1	17
590.696	1	15
590.866	1	7
591.036	1	0
591.205	1	17
591.375	1	-4
591.545	1	2
591.715	1	14
591.885	1	0
592.054	1	8
592.224	1	0
592.394	1	6
592.564	1	6
592.733	1	7
592.903	1	1
593.073	1	3
593.243	1	11
593.412	1	11
593.582	1	-2
593.752	1	0
593.922	1	5
594.091	1	2
594.261	1	1
594.431	1	-3
594.601	1	12
594.771	1	9
594.940	1	-5
595.110	1	-6
595.280	1	10
595.450	1	5
595.619	1	-1
595.789	1	4
595.959	1	4
596.129	1	1
596.298	1	-8
596.468	1	8
596.638	1	2
596.808	1	3
596.977	1	10
597.147	1	-2
597.317	1	4
597.487	1	5
597.656	1	5
597.826	1	4
597.996	1	8
598.166	1	5
598.335	1	-2
598.505	1	11
598.675	1	1
598.844	1	8
599.014	1	2
599.184	1	5
599.354	1	-4
599.523	1	3
599.693	1	-1
599.863	1	5
600.033	1	1
600.202	1	7
600.372	1	1
600.542	1	12
600.712	1	-3
600.881	1	7
601.051	1	6
601.221	1	6
601.390	1	-5
601.560	1	6
601.730	1	10
601.900	1	10
602.069	1	4
602.239	1	-6
602.409	1	-1
602.578	1	6
602.748	1	2
602.918	1	13
603.088	1	3
603.257	1	17
603.427	1	-5
603.597	1	3
603.767	1	6
603.936	1	-1
604.106	1	6
604.276	1	6
604.445	1	6
604.615	1	0
604.785	1	3
604.954	1	6
605.124	1	5
605.294	1	5
605.464	1	0
605.633	1	8
605.803	1	6
605.973	1	6
606.142	1	10
606.312	1	2
606.482	1	2
606.652	1	14
606.821	1	-4
606.991	1	5
607.161	1	2
607.330	1	6
607.500	1	2
607.670	1	-3
607.839	1	14
608.009	1	24
608.179	1	7
608.348	1	4
608.518	1	0
608.688	1	12
608.858	1	2
609.027	1	-9
609.197	1	13
609.367	1	13
609.536	1	12
609.706	1	-1
609.876	1	14
610.045	1	1
610.215	1	0
610.385	1	2
610.554	1	15
610.724	1	16
610.894	1	-4
611.063	1	4
611.233	1	-1
611.403	1	-5
611.572	1	1
611.742	1	10
611.912	1	-1
612.081	1	4
612.251	1	16
612.421	1	1
612.590	1	1
612.760	1	-9
612.930	1	6
613.099	1	11
613.269	1	16
613.439	1	3
613.608	1	5
613.778	1	6
613.948	1	6
614.117	1	8
614.287	1	6
614.457	1	10
614.626	1	1
614.796	1	17
614.966	1	5
615.135	1	6
615.305	1	11
615.475	1	5
615.644	1	3
615.814	1	9
615.984	1	7
616.153	1	0
616.323	1	2
616.493	1	7
616.662	1	14
616.832	1	12
617.002	1	3
617.171	1	13
617.341	1	-5
617.511	1	10
617.680	1	-3
617.850	1	3
618.019	1	16
618.189	1	23
618.359	1	4
618.528	1	7
618.698	1	9
618.868	1	9
619.037	1	14
619.207	1	-5
619.377	1	4
619.546	1	-4
619.716	1	14
619.885	1	3
620.055	1	-1
620.225	1	9
620.394	1	6
620.564	1	14
620.734	1	12
620.903	1	-6
621.073	1	10
621.242	1	1
621.412	1	2
621.582	1	12
621.751	1	5
621.921	1	9
622.091	1	11
622.260	1	10
622.430	1	20
622.599	1	8
622.769	1	2
622.939	1	5
623.108	1	10
623.278	1	-4
623.448	1	11
623.617	1	5
623.787	1	-2
623.956	1	14
624.126	1	5
624.296	1	6
624.465	1	4
624.635	1	15
624.804	1	8
624.974	1	11
625.144	1	7
625.313	1	3
625.483	1	5
625.652	1	4
625.822	1	5
625.992	1	7
626.161	1	7
626.331	1	7
626.501	1	8
626.670	1	12
626.840	1	5
627.009	1	8
627.179	1	14
627.348	1	15
627.518	1	-7
627.688	1	5
627.857	1	12
628.027	1	-3
628.196	1	10
628.366	1	11
628.536	1	9
628.705	1	1
628.875	1	4
629.044	1	2
629.214	1	16
629.384	1	9
629.553	1	7
629.723	1	7
629.892	1	18
630.062	1	7
630.232	1	1
630.401	1	5
630.571	1	6
630.740	1	15
630.910	1	14
631.079	1	9
631.249	1	16
631.419	1	13
631.588	1	-1
631.758	1	6
631.927	1	8
632.097	1	10
632.266	1	4
632.436	1	14
632.606	1	-1
632.775	1	12
632.945	1	8
633.114	1	12
633.284	1	8
633.453	1	1
633.623	1	8
633.793	1	16
633.962	1	9
634.132	1	3
634.301	1	17
634.471	1	13
634.640	1	9
634.810	1	11
634.979	1	9
635.149	1	17
635.319	1	8
635.488	1	13
635.658	1	-1
635.827	1	-4
635.997	1	5
636.166	1	16
636.336	1	7
636.505	1	13
636.675	1	1
636.845	1	10
637.014	1	11
637.184	1	14
637.353	1	9
637.523	1	8
637.692	1	12
637.862	1	9
638.031	1	7
638.201	1	6
638.370	1	1
638.540	1	5
638.710	1	7
638.879	1	1
639.049	1	-5
639.218	1	5
639.388	1	4
639.557	1	2
639.727	1	10
639.896	1	1
640.066	1	7
640.235	1	15
640.405	1	14
640.574	1	7
640.744	1	-7
640.914	1	13
641.083	1	4
641.253	1	9
641.422	1	8
641.592	1	23
641.761	1	1
641.931	1	4
642.100	1	27
642.270	1	2
642.439	1	6
642.609	1	11
642.778	1	7
642.948	1	6
643.117	1	12
643.287	1	6
643.456	1	3
643.626	1	12
643.795	1	5
643.965	1	10
644.134	1	1
644.304	1	4
644.473	1	16
644.643	1	7
644.812	1	8
644.982	1	15
645.151	1	13
645.321	1	-3
645.490	1	13
645.660	1	-5
645.829	1	4
645.999	1	8
646.168	1	6
646.338	1	12
646.507	1	9
646.677	1	9
646.846	1	4
647.016	1	-3
647.185	1	9
647.355	1	-8
647.524	1	17
647.694	1	15
647.863	1	12
648.033	1	5
648.202	1	4
648.372	1	4
648.541	1	3
648.711	1	10
648.880	1	-4
649.050	1	9
649.219	1	13
649.389	1	17
649.558	1	6
649.728	1	14
649.897	1	1
650.067	1	15
650.236	1	2
650.406	1	12
650.575	1	21
650.745	1	17
650.914	1	5
651.084	1	7
651.253	1	4
651.423	1	14
651.592	1	0
651.762	1	2
651.931	1	13
652.101	1	13
652.270	1	17
652.440	1	14
652.609	1	-2
652.778	1	0
652.948	1	10
653.117	1	16
653.287	1	8
653.456	1	4
653.626	1	11
653.795	1	7
653.965	1	9
654.134	1	14
654.304	1	-3
654.473	1	12
654.643	1	8
654.812	1	6
654.982	1	8
655.151	1	6
655.320	1	9
655.490	1	10
655.659	1	15
655.829	1	1
655.998	1	2
656.168	1	2
656.337	1	15
656.507	1	13
656.676	1	19
656.846	1	15
657.015	1	12
657.184	1	15
657.354	1	7
657.523	1	15
657.693	1	17
657.862	1	17
658.032	1	4
658.201	1	9
658.371	1	16
658.540	1	8
658.709	1	15
658.879	1	17
659.048	1	7
659.218	1	11
659.387	1	8
659.557	1	7
659.726	1	12
659.895	1	7
660.065	1	2
660.234	1	13
660.404	1	14
660.573	1	16
660.743	1	9
660.912	1	13
661.081	1	14
661.251	1	13
661.420	1	11
661.590	1	17
661.759	1	11
661.929	1	16
662.098	1	20
662.267	1	10
662.437	1	4
662.606	1	13
662.776	1	11
662.945	1	9
663.115	1	11
663.284	1	-1
663.453	1	16
663.623	1	11
663.792	1	16
663.962	1	6
664.131	1	13
664.300	1	9
664.470	1	3
664.639	1	11
664.809	1	12
664.978	1	20
665.148	1	10
665.317	1	9
665.486	1	20
665.656	1	11
665.825	1	21
665.995	1	7
666.164	1	4
666.333	1	21
666.503	1	10
666.672	1	7
666.842	1	2
667.011	1	2
667.180	1	14
667.350	1	6
667.519	1	12
667.689	1	9
667.858	1	15
668.027	1	16
668.197	1	6
668.366	1	4
668.536	1	4
668.705	1	17
668.874	1	12
669.044	1	7
669.213	1	13
669.382	1	3
669.552	1	17
669.721	1	5
669.891	1	14
670.060	1	11
670.229	1	26
670.399	1	12
670.568	1	22
670.738	1	6
670.907	1	6
671.076	1	0
671.246	1	12
671.415	1	10
671.584	1	2
671.754	1	7
671.923	1	15
672.093	1	18
672.262	1	-4
672.431	1	15
672.601	1	12
672.770	1	8
672.939	1	15
673.109	1	9
673.278	1	12
673.448	1	21
673.617	1	6
673.786	1	10
