325.333	1	17
325.504	1	13
325.675	1	11
325.846	1	19
326.017	1	-4
326.188	1	11
326.359	1	12
326.531	1	-5
326.702	1	7
326.873	1	18
327.044	1	6
327.215	1	12
327.386	1	23
327.557	1	8
327.728	1	10
327.899	1	6
328.070	1	21
328.241	1	12
328.412	1	1
328.583	1	17
328.754	1	17
328.926	1	18
329.097	1	15
329.268	1	9
329.439	1	16
329.610	1	16
329.781	1	10
329.952	1	16
330.123	1	21
330.294	1	10
330.465	1	12
330.636	1	15
330.807	1	10
330.978	1	6
331.149	1	8
331.320	1	15
331.492	1	9
331.663	1	18
331.834	1	17
332.005	1	18
332.176	1	28
332.347	1	14
332.518	1	7
332.689	1	15
332.860	1	14
333.031	1	22
333.202	1	7
333.373	1	14
333.544	1	9
333.715	1	24
333.886	1	11
334.057	1	17
334.228	1	6
334.399	1	13
334.570	1	19
334.741	1	8
334.912	1	19
335.084	1	30
335.255	1	16
335.426	1	22
335.597	1	19
335.768	1	14
335.939	1	18
336.110	1	11
336.281	1	3
336.452	1	11
336.623	1	17
336.794	1	25
336.965	1	19
337.136	1	27
337.307	1	14
337.478	1	23
337.649	1	19
337.820	1	13
337.991	1	12
338.162	1	19
338.333	1	18
338.504	1	30
338.675	1	21
338.846	1	18
339.017	1	24
339.188	1	19
339.359	1	4
339.530	1	21
339.701	1	24
339.872	1	35
340.043	1	23
340.214	1	25
340.385	1	22
340.556	1	11
340.727	1	25
340.898	1	36
341.069	1	29
341.240	1	16
341.411	1	19
341.582	1	20
341.753	1	18
341.924	1	18
342.095	1	32
342.266	1	32
342.437	1	32
342.608	1	27
342.779	1	29
342.950	1	26
343.121	1	32
343.292	1	19
343.463	1	25
343.634	1	19
343.805	1	34
343.976	1	27
344.147	1	31
344.318	1	40
344.489	1	19
344.660	1	33
344.831	1	27
345.002	1	16
345.173	1	32
345.344	1	35
345.515	1	35
345.686	1	27
345.857	1	29
346.028	1	26
346.199	1	24
346.370	1	23
346.541	1	37
346.712	1	28
346.883	1	19
347.054	1	41
347.225	1	33
347.396	1	26
347.567	1	32
347.738	1	26
347.909	1	41
348.080	1	28
348.251	1	40
348.422	1	43
348.593	1	35
348.764	1	33
348.935	1	39
349.106	1	32
349.277	1	35
349.448	1	42
349.619	1	38
349.790	1	33
349.961	1	36
350.132	1	42
350.303	1	40
350.474	1	46
350.645	1	40
350.816	1	42
350.987	1	38
351.157	1	33
351.328	1	50
351.499	1	47
351.670	1	28
351.841	1	53
352.012	1	48
352.183	1	54
352.354	1	45
352.525	1	42
352.696	1	41
352.867	1	39
353.038	1	44
353.209	1	40
353.380	1	40
353.551	1	32
353.722	1	42
353.893	1	46
354.064	1	52
354.235	1	37
354.406	1	40
354.576	1	40
354.747	1	34
354.918	1	41
355.089	1	39
355.260	1	39
355.431	1	45
355.602	1	39
355.773	1	48
355.944	1	42
356.115	1	41
356.286	1	45
356.457	1	49
356.628	1	36
356.799	1	41
356.970	1	50
357.141	1	44
357.311	1	38
357.482	1	55
357.653	1	52
357.824	1	49
357.995	1	42
358.166	1	39
358.337	1	50
358.508	1	52
358.679	1	55
358.850	1	53
359.021	1	55
359.192	1	52
359.363	1	46
359.533	1	43
359.704	1	46
359.875	1	43
360.046	1	46
360.217	1	49
360.388	1	49
360.559	1	54
360.730	1	50
360.901	1	51
361.072	1	62
361.243	1	56
361.414	1	50
361.584	1	51
361.755	1	48
361.926	1	50
362.097	1	52
362.268	1	47
362.439	1	35
362.610	1	54
362.781	1	51
362.952	1	44
363.123	1	46
363.293	1	47
363.464	1	50
363.635	1	54
363.806	1	45
363.977	1	47
364.148	1	52
364.319	1	50
364.490	1	51
364.661	1	46
364.832	1	52
365.002	1	51
365.173	1	55
365.344	1	54
365.515	1	43
365.686	1	46
365.857	1	43
366.028	1	53
366.199	1	47
366.370	1	48
366.540	1	45
366.711	1	26
366.882	1	49
367.053	1	45
367.224	1	59
367.395	1	55
367.566	1	55
367.737	1	56
367.908	1	49
368.078	1	58
368.249	1	62
368.420	1	44
368.591	1	43
368.762	1	46
368.933	1	47
369.104	1	46
369.274	1	50
369.445	1	53
369.616	1	48
369.787	1	59
369.958	1	53
370.129	1	35
370.300	1	60
370.471	1	53
370.641	1	50
370.812	1	42
370.983	1	45
371.154	1	50
371.325	1	67
371.496	1	57
371.667	1	57
371.837	1	41
372.008	1	55
372.179	1	62
372.350	1	68
372.521	1	49
372.692	1	49
372.863	1	58
373.033	1	40
373.204	1	59
373.375	1	50
373.546	1	55
373.717	1	64
373.888	1	64
374.059	1	60
374.229	1	59
374.400	1	51
374.571	1	57
374.742	1	64
374.913	1	62
375.084	1	49
375.254	1	54
375.425	1	63
375.596	1	53
375.767	1	47
375.938	1	67
376.109	1	60
376.279	1	56
376.450	1	60
376.621	1	59
376.792	1	47
376.963	1	63
377.134	1	65
377.304	1	62
377.475	1	61
377.646	1	59
377.817	1	54
377.988	1	53
378.159	1	58
378.329	1	62
378.500	1	51
378.671	1	63
378.842	1	56
379.013	1	51
379.184	1	62
379.354	1	67
379.525	1	60
379.696	1	65
379.867	1	63
380.038	1	70
380.209	1	61
380.379	1	62
380.550	1	63
380.721	1	74
380.892	1	57
381.063	1	69
381.233	1	68
381.404	1	57
381.575	1	70
381.746	1	78
381.917	1	58
382.087	1	67
382.258	1	48
382.429	1	61
382.600	1	78
382.771	1	48
382.941	1	54
383.112	1	76
383.283	1	74
383.454	1	61
383.625	1	56
383.795	1	71
383.966	1	65
384.137	1	68
384.308	1	69
384.479	1	72
384.649	1	70
384.820	1	78
384.991	1	76
385.162	1	69
385.333	1	61
385.503	1	61
385.674	1	70
385.845	1	78
386.016	1	66
386.187	1	70
386.357	1	79
386.528	1	79
386.699	1	69
386.870	1	78
387.041	1	65
387.211	1	77
387.382	1	79
387.553	1	67
387.724	1	68
387.894	1	63
388.065	1	80
388.236	1	72
388.407	1	68
388.578	1	77
388.748	1	71
388.919	1	77
389.090	1	83
389.261	1	64
389.431	1	82
389.602	1	70
389.773	1	79
389.944	1	66
390.114	1	74
390.285	1	78
390.456	1	74
390.627	1	69
390.798	1	77
390.968	1	67
391.139	1	70
391.310	1	68
391.481	1	75
391.651	1	76
391.822	1	71
391.993	1	74
392.164	1	75
392.334	1	69
392.505	1	75
392.676	1	70
392.847	1	79
393.017	1	75
393.188	1	67
393.359	1	62
393.530	1	83
393.700	1	85
393.871	1	76
394.042	1	77
394.213	1	68
394.383	1	72
394.554	1	81
394.725	1	75
394.896	1	68
395.066	1	76
395.237	1	73
395.408	1	77
395.579	1	75
395.749	1	72
395.920	1	78
396.091	1	92
396.262	1	81
396.432	1	67
396.603	1	78
396.774	1	96
396.945	1	72
397.115	1	86
397.286	1	73
397.457	1	74
397.627	1	81
397.798	1	80
397.969	1	73
398.140	1	78
398.310	1	77
398.481	1	86
398.652	1	70
398.823	1	81
398.993	1	69
399.164	1	72
399.335	1	93
399.505	1	70
399.676	1	84
399.847	1	83
400.018	1	85
400.188	1	80
400.359	1	76
400.530	1	79
400.700	1	89
400.871	1	77
401.042	1	80
401.213	1	71
401.383	1	79
401.554	1	90
401.725	1	77
401.895	1	76
402.066	1	83
402.237	1	86
402.408	1	77
402.578	1	89
402.749	1	80
402.920	1	76
403.090	1	64
403.261	1	72
403.432	1	73
403.603	1	90
403.773	1	86
403.944	1	76
404.115	1	82
404.285	1	80
404.456	1	69
404.627	1	82
404.797	1	67
404.968	1	67
405.139	1	69
405.310	1	101
405.480	1	81
405.651	1	80
405.822	1	83
405.992	1	81
406.163	1	86
406.334	1	75
406.504	1	74
406.675	1	87
406.846	1	87
407.016	1	83
407.187	1	88
407.358	1	79
407.528	1	88
407.699	1	86
407.870	1	79
408.041	1	96
408.211	1	91
408.382	1	83
408.553	1	80
408.723	1	95
408.894	1	84
409.065	1	78
409.235	1	82
409.406	1	85
409.577	1	86
409.747	1	90
409.918	1	85
410.089	1	78
410.259	1	90
410.430	1	89
410.601	1	79
410.771	1	76
410.942	1	90
411.113	1	86
411.283	1	81
411.454	1	84
411.625	1	82
411.795	1	87
411.966	1	78
412.137	1	77
412.307	1	71
412.478	1	89
412.649	1	85
412.819	1	84
412.990	1	74
413.161	1	83
413.331	1	74
413.502	1	82
413.672	1	86
413.843	1	76
414.014	1	75
414.184	1	83
414.355	1	85
414.526	1	79
414.696	1	94
414.867	1	81
415.038	1	68
415.208	1	82
415.379	1	80
415.550	1	86
415.720	1	84
415.891	1	85
416.062	1	82
416.232	1	88
416.403	1	78
416.573	1	84
416.744	1	75
416.915	1	91
417.085	1	78
417.256	1	81
417.427	1	77
417.597	1	75
417.768	1	84
417.939	1	68
418.109	1	90
418.280	1	83
418.450	1	80
418.621	1	67
418.792	1	83
418.962	1	83
419.133	1	87
419.304	1	79
419.474	1	70
419.645	1	87
419.815	1	84
419.986	1	78
420.157	1	72
420.327	1	81
420.498	1	83
420.669	1	81
420.839	1	87
421.010	1	86
421.180	1	84
421.351	1	79
421.522	1	75
421.692	1	79
421.863	1	71
422.033	1	80
422.204	1	83
422.375	1	78
422.545	1	87
422.716	1	76
422.886	1	83
423.057	1	77
423.228	1	83
423.398	1	70
423.569	1	79
423.740	1	73
423.910	1	63
424.081	1	68
424.251	1	76
424.422	1	78
424.593	1	71
424.763	1	71
424.934	1	80
425.104	1	84
425.275	1	82
425.445	1	69
425.616	1	69
425.787	1	63
425.957	1	73
426.128	1	84
426.298	1	82
426.469	1	68
426.640	1	76
426.810	1	72
426.981	1	73
427.151	1	66
427.322	1	86
427.493	1	78
427.663	1	82
427.834	1	64
428.004	1	79
428.175	1	86
428.345	1	64
428.516	1	57
428.687	1	75
428.857	1	72
429.028	1	75
429.198	1	74
429.369	1	84
429.540	1	76
429.710	1	65
429.881	1	85
430.051	1	80
430.222	1	70
430.392	1	73
430.563	1	86
430.734	1	84
430.904	1	77
431.075	1	88
431.245	1	77
431.416	1	75
431.586	1	71
431.757	1	69
431.927	1	81
432.098	1	76
432.269	1	64
432.439	1	68
432.610	1	74
432.780	1	84
432.951	1	65
433.121	1	76
433.292	1	76
433.462	1	69
433.633	1	76
433.804	1	70
433.974	1	74
434.145	1	83
434.315	1	68
434.486	1	71
434.656	1	76
434.827	1	70
434.997	1	77
435.168	1	83
435.339	1	66
435.509	1	72
435.680	1	71
435.850	1	69
436.021	1	64
436.191	1	72
436.362	1	72
436.532	1	69
436.703	1	74
436.873	1	72
437.044	1	61
437.214	1	67
437.385	1	66
437.556	1	66
437.726	1	83
437.897	1	77
438.067	1	67
438.238	1	66
438.408	1	70
438.579	1	65
438.749	1	66
438.920	1	69
439.090	1	78
439.261	1	51
439.431	1	57
439.602	1	68
439.772	1	65
439.943	1	68
440.113	1	70
440.284	1	62
440.455	1	53
440.625	1	65
440.796	1	61
440.966	1	60
441.137	1	63
441.307	1	65
441.478	1	61
441.648	1	79
441.819	1	65
441.989	1	63
442.160	1	69
442.330	1	64
442.501	1	62
442.671	1	54
442.842	1	50
443.012	1	50
443.183	1	70
443.353	1	55
443.524	1	68
443.694	1	70
443.865	1	59
444.035	1	52
444.206	1	57
444.376	1	59
444.547	1	78
444.717	1	66
444.888	1	59
445.058	1	63
445.229	1	70
445.399	1	63
445.570	1	65
445.740	1	59
445.911	1	56
446.081	1	47
446.252	1	73
446.422	1	51
446.593	1	65
446.763	1	57
446.934	1	52
447.104	1	61
447.275	1	62
447.445	1	55
447.616	1	65
447.786	1	65
447.957	1	59
448.127	1	58
448.298	1	58
448.468	1	60
448.639	1	71
448.809	1	60
448.979	1	57
449.150	1	67
449.320	1	61
449.491	1	66
449.661	1	55
449.832	1	48
450.002	1	65
450.173	1	50
450.343	1	64
450.514	1	63
450.684	1	55
450.855	1	57
451.025	1	61
451.196	1	56
451.366	1	63
451.537	1	47
451.707	1	58
451.878	1	48
452.048	1	63
452.218	1	58
452.389	1	61
452.559	1	55
452.730	1	60
452.900	1	66
453.071	1	53
453.241	1	57
453.412	1	57
453.582	1	50
453.753	1	49
453.923	1	63
454.093	1	50
454.264	1	67
454.434	1	55
454.605	1	56
454.775	1	44
454.946	1	63
455.116	1	50
455.287	1	44
455.457	1	55
455.628	1	58
455.798	1	57
455.968	1	55
456.139	1	49
456.309	1	51
456.480	1	51
456.650	1	55
456.821	1	36
456.991	1	52
457.161	1	41
457.332	1	53
457.502	1	31
457.673	1	53
457.843	1	56
458.014	1	44
458.184	1	53
458.355	1	44
458.525	1	54
458.695	1	58
458.866	1	47
459.036	1	53
459.207	1	54
459.377	1	45
459.548	1	64
459.718	1	46
459.888	1	56
460.059	1	42
460.229	1	55
460.400	1	48
460.570	1	50
460.740	1	48
460.911	1	50
461.081	1	50
461.252	1	41
461.422	1	52
461.593	1	51
461.763	1	45
461.933	1	54
462.104	1	41
462.274	1	40
462.445	1	56
462.615	1	43
462.785	1	44
462.956	1	65
463.126	1	41
463.297	1	46
463.467	1	56
463.638	1	53
463.808	1	38
463.978	1	46
464.149	1	38
464.319	1	47
464.490	1	61
464.660	1	43
464.830	1	45
465.001	1	46
465.171	1	50
465.342	1	60
465.512	1	35
465.682	1	36
465.853	1	44
466.023	1	43
466.194	1	43
466.364	1	50
466.534	1	54
466.705	1	43
466.875	1	46
467.045	1	46
467.216	1	45
467.386	1	46
467.557	1	47
467.727	1	40
467.897	1	34
468.068	1	38
468.238	1	48
468.409	1	44
468.579	1	45
468.749	1	38
468.920	1	42
469.090	1	41
469.260	1	36
469.431	1	35
469.601	1	48
469.772	1	44
469.942	1	23
470.112	1	47
470.283	1	35
470.453	1	31
470.623	1	38
470.794	1	38
470.964	1	43
471.135	1	48
471.305	1	39
471.475	1	43
471.646	1	29
471.816	1	29
471.986	1	41
472.157	1	48
472.327	1	27
472.497	1	40
472.668	1	36
472.838	1	41
473.009	1	37
473.179	1	40
473.349	1	31
473.520	1	43
473.690	1	36
473.860	1	47
474.031	1	35
474.201	1	42
474.371	1	42
474.542	1	40
474.712	1	42
474.882	1	42
475.053	1	44
475.223	1	37
475.394	1	37
475.564	1	42
475.734	1	41
475.905	1	44
476.075	1	35
476.245	1	50
476.416	1	50
476.586	1	40
476.756	1	42
476.927	1	46
477.097	1	44
477.267	1	26
477.438	1	37
477.608	1	38
477.778	1	39
477.949	1	45
478.119	1	45
478.289	1	49
478.460	1	43
478.630	1	41
478.800	1	34
478.971	1	40
479.141	1	30
479.311	1	23
479.482	1	46
479.652	1	26
479.822	1	39
479.993	1	32
480.163	1	45
480.333	1	42
480.504	1	33
480.674	1	36
480.844	1	25
481.015	1	32
481.185	1	38
481.355	1	41
481.525	1	28
481.696	1	38
481.866	1	40
482.036	1	40
482.207	1	42
482.377	1	39
482.547	1	43
482.718	1	28
482.888	1	40
483.058	1	30
483.229	1	36
483.399	1	35
483.569	1	42
483.740	1	33
483.910	1	43
484.080	1	37
484.250	1	29
484.421	1	30
484.591	1	37
484.761	1	33
484.932	1	41
485.102	1	45
485.272	1	34
485.443	1	42
485.613	1	31
485.783	1	32
485.953	1	37
486.124	1	34
486.294	1	38
486.464	1	36
486.635	1	25
486.805	1	40
486.975	1	27
487.146	1	39
487.316	1	31
487.486	1	27
487.656	1	28
487.827	1	25
487.997	1	20
488.167	1	37
488.338	1	37
488.508	1	17
488.678	1	28
488.848	1	47
489.019	1	18
489.189	1	31
489.359	1	27
489.529	1	24
489.700	1	22
489.870	1	48
490.040	1	21
490.211	1	14
490.381	1	38
490.551	1	20
490.721	1	29
490.892	1	26
491.062	1	27
491.232	1	27
491.402	1	22
491.573	1	13
491.743	1	24
491.913	1	17
492.084	1	30
492.254	1	23
492.424	1	24
492.594	1	18
492.765	1	27
492.935	1	21
493.105	1	35
493.275	1	33
493.446	1	31
493.616	1	37
493.786	1	27
493.956	1	17
494.127	1	21
494.297	1	18
494.467	1	27
494.637	1	23
494.808	1	23
494.978	1	20
495.148	1	35
495.318	1	20
495.489	1	30
495.659	1	30
495.829	1	20
495.999	1	17
496.170	1	26
496.340	1	27
496.510	1	28
496.680	1	20
496.851	1	23
497.021	1	19
497.191	1	10
497.361	1	17
497.532	1	13
497.702	1	20
497.872	1	22
498.042	1	27
498.213	1	16
498.383	1	24
498.553	1	20
498.723	1	21
498.894	1	20
499.064	1	23
499.234	1	28
499.404	1	20
499.574	1	32
499.745	1	18
499.915	1	18
500.085	1	25
500.255	1	23
500.426	1	22
500.596	1	22
500.766	1	10
500.936	1	17
501.106	1	7
501.277	1	23
501.447	1	16
501.617	1	15
501.787	1	17
501.958	1	14
502.128	1	19
502.298	1	18
502.468	1	18
502.638	1	21
502.809	1	21
502.979	1	24
503.149	1	14
503.319	1	10
503.489	1	25
503.660	1	15
503.830	1	18
504.000	1	29
504.170	1	14
504.340	1	25
504.511	1	28
504.681	1	20
504.851	1	15
505.021	1	22
505.192	1	19
505.362	1	23
505.532	1	18
505.702	1	15
505.872	1	18
506.043	1	18
506.213	1	10
506.383	1	21
506.553	1	19
506.723	1	21
506.893	1	23
507.064	1	24
507.234	1	16
507.404	1	22
507.574	1	20
507.744	1	25
507.915	1	17
508.085	1	24
508.255	1	21
508.425	1	9
508.595	1	19
508.766	1	29
508.936	1	-3
509.106	1	25
509.276	1	24
509.446	1	13
509.616	1	12
509.787	1	22
509.957	1	16
510.127	1	14
510.297	1	15
510.467	1	12
510.638	1	16
510.808	1	3
510.978	1	13
511.148	1	24
511.318	1	26
511.488	1	13
511.659	1	16
511.829	1	12
511.999	1	18
512.169	1	16
512.339	1	21
512.509	1	25
512.680	1	21
512.850	1	12
513.020	1	22
513.190	1	19
513.360	1	11
513.530	1	16
513.700	1	22
513.871	1	13
514.041	1	22
514.211	1	17
514.381	1	21
514.551	1	24
514.721	1	7
514.892	1	21
515.062	1	23
515.232	1	22
515.402	1	6
515.572	1	12
515.742	1	17
515.912	1	20
516.083	1	12
516.253	1	26
516.423	1	17
516.593	1	5
516.763	1	26
516.933	1	9
517.104	1	15
517.274	1	14
517.444	1	21
517.614	1	1
517.784	1	16
517.954	1	11
518.124	1	13
518.294	1	7
518.465	1	11
518.635	1	14
518.805	1	-5
518.975	1	17
519.145	1	13
519.315	1	17
519.485	1	11
519.656	1	25
519.826	1	21
519.996	1	11
520.166	1	11
520.336	1	15
520.506	1	10
520.676	1	7
520.846	1	13
521.017	1	12
521.187	1	15
521.357	1	23
521.527	1	16
521.697	1	15
521.867	1	6
522.037	1	19
522.207	1	17
522.377	1	21
522.548	1	13
522.718	1	12
522.888	1	29
523.058	1	8
523.228	1	19
523.398	1	18
523.568	1	16
523.738	1	17
523.909	1	16
524.079	1	7
524.249	1	12
524.419	1	11
524.589	1	8
524.759	1	7
524.929	1	6
525.099	1	20
525.269	1	15
525.439	1	3
525.610	1	25
525.780	1	9
525.950	1	14
526.120	1	12
526.290	1	16
526.460	1	5
526.630	1	24
526.800	1	9
526.970	1	8
527.140	1	17
527.311	1	-4
527.481	1	8
527.651	1	10
527.821	1	3
527.991	1	16
528.161	1	13
528.331	1	4
528.501	1	17
528.671	1	17
528.841	1	8
529.011	1	7
529.181	1	22
529.352	1	9
529.522	1	-1
529.692	1	9
529.862	1	18
530.032	1	6
530.202	1	8
530.372	1	18
530.542	1	14
530.712	1	17
530.882	1	4
531.052	1	18
531.222	1	15
531.392	1	7
531.563	1	24
531.733	1	13
531.903	1	5
532.073	1	21
532.243	1	11
532.413	1	7
532.583	1	14
532.753	1	6
532.923	1	-2
533.093	1	11
533.263	1	18
533.433	1	7
533.603	1	13
533.773	1	11
533.943	1	6
534.113	1	11
534.284	1	6
534.454	1	12
534.624	1	19
534.794	1	6
534.964	1	13
535.134	1	9
535.304	1	6
535.474	1	25
535.644	1	10
535.814	1	6
535.984	1	4
536.154	1	0
536.324	1	9
536.494	1	12
536.664	1	14
536.834	1	6
537.004	1	6
537.174	1	17
537.344	1	7
537.514	1	1
537.685	1	13
537.855	1	10
538.025	1	10
538.195	1	10
538.365	1	17
538.535	1	11
538.705	1	3
538.875	1	-1
539.045	1	14
539.215	1	12
539.385	1	11
539.555	1	11
539.725	1	7
539.895	1	2
540.065	1	13
540.235	1	20
540.405	1	4
540.575	1	12
540.745	1	20
540.915	1	16
541.085	1	10
541.255	1	3
541.425	1	12
541.595	1	2
541.765	1	15
541.935	1	9
542.105	1	3
542.275	1	3
542.445	1	0
542.615	1	15
542.785	1	12
542.955	1	10
543.125	1	10
543.295	1	23
543.465	1	14
543.635	1	8
543.805	1	18
543.975	1	2
544.145	1	18
544.315	1	12
544.485	1	20
544.655	1	7
544.825	1	0
544.995	1	8
545.165	1	-2
545.335	1	12
545.505	1	1
545.675	1	7
545.845	1	12
546.015	1	4
546.185	1	24
546.355	1	19
546.525	1	9
546.695	1	9
546.865	1	11
547.035	1	13
547.205	1	-1
547.375	1	20
547.545	1	15
547.715	1	5
547.885	1	6
548.055	1	5
548.225	1	8
548.395	1	11
548.565	1	12
548.735	1	21
548.905	1	11
549.075	1	10
549.245	1	7
549.415	1	-9
549.585	1	10
549.755	1	3
549.925	1	-4
550.095	1	9
550.265	1	9
550.435	1	10
550.605	1	-2
550.775	1	13
550.945	1	8
551.115	1	3
551.285	1	6
551.455	1	-2
551.625	1	19
551.795	1	7
551.965	1	5
552.135	1	11
552.305	1	3
552.475	1	-8
552.645	1	0
552.815	1	13
552.985	1	15
553.155	1	3
553.325	1	15
553.495	1	1
553.665	1	5
553.835	1	0
554.004	1	16
554.174	1	0
554.344	1	12
554.514	1	5
554.684	1	10
554.854	1	5
555.024	1	9
555.194	1	-1
555.364	1	9
555.534	1	5
555.704	1	6
555.874	1	15
556.044	1	8
556.214	1	-7
556.384	1	2
556.554	1	10
556.724	1	11
556.894	1	2
557.064	1	12
557.234	1	8
557.404	1	13
557.573	1	5
557.743	1	8
557.913	1	5
558.083	1	4
558.253	1	3
558.423	1	4
558.593	1	13
558.763	1	6
558.933	1	11
559.103	1	10
559.273	1	10
559.443	1	4
559.613	1	4
559.783	1	5
559.953	1	0
560.122	1	10
560.292	1	8
560.462	1	7
560.632	1	15
560.802	1	12
560.972	1	10
561.142	1	0
561.312	1	-6
561.482	1	16
561.652	1	13
561.822	1	1
561.992	1	2
562.162	1	8
562.331	1	4
562.501	1	4
562.671	1	3
562.841	1	-3
563.011	1	13
563.181	1	9
563.351	1	5
563.521	1	6
563.691	1	-1
563.861	1	7
564.031	1	11
564.201	1	18
564.370	1	2
564.540	1	10
564.710	1	-5
564.880	1	11
565.050	1	10
565.220	1	-1
565.390	1	17
565.560	1	8
565.730	1	7
565.900	1	10
566.069	1	17
566.239	1	9
566.409	1	2
566.579	1	11
566.749	1	4
566.919	1	12
567.089	1	10
567.259	1	8
567.429	1	6
567.599	1	16
567.768	1	2
567.938	1	8
568.108	1	4
568.278	1	4
568.448	1	-4
568.618	1	8
568.788	1	-2
568.958	1	0
569.128	1	12
569.297	1	3
569.467	1	6
569.637	1	10
569.807	1	14
569.977	1	8
570.147	1	14
570.317	1	1
570.487	1	10
570.656	1	12
570.826	1	4
570.996	1	3
571.166	1	10
571.336	1	-1
571.506	1	10
571.676	1	8
571.846	1	12
572.015	1	7
572.185	1	7
572.355	1	9
572.525	1	16
572.695	1	3
572.865	1	1
573.035	1	11
573.205	1	1
573.374	1	-9
573.544	1	8
573.714	1	7
573.884	1	9
574.054	1	0
574.224	1	16
574.394	1	3
574.563	1	7
574.733	1	11
574.903	1	8
575.073	1	5
575.243	1	5
575.413	1	7
575.583	1	5
575.752	1	6
575.922	1	11
576.092	1	8
576.262	1	13
576.432	1	10
576.602	1	-1
576.772	1	21
576.941	1	10
577.111	1	2
577.281	1	0
577.451	1	-6
577.621	1	9
577.791	1	12
577.960	1	0
578.130	1	14
578.300	1	9
578.470	1	8
578.640	1	3
578.810	1	12
578.979	1	12
579.149	1	7
579.319	1	-1
579.489	1	7
579.659	1	4
579.829	1	7
579.998	1	14
580.168	1	15
580.338	1	12
580.508	1	8
580.678	1	9
580.848	1	-1
581.017	1	2
581.187	1	13
581.357	1	3
581.527	1	14
581.697	1	8
581.867	1	3
582.036	1	1
582.206	1	7
582.376	1	12
582.546	1	1
582.716	1	0
582.885	1	-10
583.055	1	4
583.225	1	-8
583.395	1	10
583.565	1	-2
583.735	1	7
583.904	1	15
584.074	1	12
584.244	1	13
584.414	1	-5
584.584	1	0
584.753	1	-1
584.923	1	1
585.093	1	3
585.263	1	5
585.433	1	9
585.602	1	-5
585.772	1	-2
585.942	1	6
586.112	1	9
586.282	1	-1
586.451	1	0
586.621	1	4
586.791	1	-2
586.961	1	8
587.131	1	5
587.300	1	0
587.470	1	13
587.640	1	8
587.810	1	-4
587.980	1	-3
588.149	1	5
588.319	1	8
588.489	1	4
588.659	1	6
588.829	1	8
588.998	1	14
589.168	1	6
589.338	1	4
589.508	1	5
589.677	1	2
589.847	1	-1
590.017	1	20
590.187	1	1
590.357	1	14
590.526	1	18
590.696	1	15
590.866	1	11
591.036	1	-3
591.205	1	18
591.375	1	-7
591.545	1	13
591.715	1	14
591.885	1	8
592.054	1	11
592.224	1	8
592.394	1	9
592.564	1	2
592.733	1	10
592.903	1	1
593.073	1	5
593.243	1	6
593.412	1	8
593.582	1	2
593.752	1	0
593.922	1	7
594.091	1	9
594.261	1	8
594.431	1	9
594.601	1	13
594.771	1	5
594.940	1	6
595.110	1	-2
595.280	1	11
595.450	1	-3
595.619	1	8
595.789	1	8
595.959	1	13
596.129	1	0
596.298	1	2
596.468	1	2
596.638	1	1
596.808	1	4
596.977	1	9
597.147	1	7
597.317	1	-1
597.487	1	11
597.656	1	9
597.826	1	3
597.996	1	7
598.166	1	11
598.335	1	-7
598.505	1	15
598.675	1	-4
598.844	1	8
599.014	1	3
599.184	1	8
599.354	1	-4
599.523	1	10
599.693	1	0
599.863	1	5
600.033	1	9
600.202	1	9
600.372	1	10
600.542	1	15
600.712	1	-2
600.881	1	5
601.051	1	16
601.221	1	10
601.390	1	-2
601.560	1	14
601.730	1	8
601.900	1	2
602.069	1	11
602.239	1	0
602.409	1	9
602.578	1	3
602.748	1	2
602.918	1	18
603.088	1	8
603.257	1	5
603.427	1	1
603.597	1	-3
603.767	1	9
603.936	1	12
604.106	1	4
604.276	1	5
604.445	1	22
604.615	1	2
604.785	1	0
604.954	1	6
605.124	1	6
605.294	1	-2
605.464	1	0
605.633	1	1
605.803	1	11
605.973	1	5
606.142	1	15
606.312	1	7
606.482	1	8
606.652	1	9
606.821	1	-2
606.991	1	7
607.161	1	3
607.330	1	8
607.500	1	5
607.670	1	1
607.839	1	11
608.009	1	23
608.179	1	-1
608.348	1	7
608.518	1	2
608.688	1	12
608.858	1	0
609.027	1	2
609.197	1	12
609.367	1	14
609.536	1	5
609.706	1	3
609.876	1	9
610.045	1	-3
610.215	1	0
610.385	1	11
610.554	1	12
610.724	1	9
610.894	1	8
611.063	1	5
611.233	1	0
611.403	1	9
611.572	1	12
611.742	1	8
611.912	1	9
612.081	1	6
612.251	1	6
612.421	1	4
612.590	1	-4
612.760	1	3
612.930	1	17
613.099	1	-1
613.269	1	14
613.439	1	8
613.608	1	11
613.778	1	10
613.948	1	-1
614.117	1	12
614.287	1	12
614.457	1	7
614.626	1	-1
614.796	1	13
614.966	1	3
615.135	1	8
615.305	1	16
615.475	1	10
615.644	1	6
615.814	1	2
615.984	1	3
616.153	1	-6
616.323	1	8
616.493	1	8
616.662	1	21
616.832	1	5
617.002	1	9
617.171	1	8
617.341	1	9
617.511	1	2
617.680	1	-5
617.850	1	5
618.019	1	20
618.189	1	18
618.359	1	12
618.528	1	8
618.698	1	9
618.868	1	-10
619.037	1	3
619.207	1	4
619.377	1	1
619.546	1	7
619.716	1	-1
619.885	1	11
620.055	1	-2
620.225	1	14
620.394	1	5
620.564	1	23
620.734	1	11
620.903	1	11
621.073	1	15
621.242	1	-2
621.412	1	9
621.582	1	6
621.751	1	18
621.921	1	12
622.091	1	6
622.260	1	5
622.430	1	13
622.599	1	9
622.769	1	13
622.939	1	15
623.108	1	8
623.278	1	8
623.448	1	6
623.617	1	5
623.787	1	14
623.956	1	23
624.126	1	1
624.296	1	8
624.465	1	5
624.635	1	16
624.804	1	6
624.974	1	20
625.144	1	22
625.313	1	0
625.483	1	1
625.652	1	11
625.822	1	12
625.992	1	2
626.161	1	20
626.331	1	13
626.501	1	4
626.670	1	4
626.840	1	3
627.009	1	8
627.179	1	20
627.348	1	12
627.518	1	9
627.688	1	8
627.857	1	19
628.027	1	4
628.196	1	8
628.366	1	10
628.536	1	7
628.705	1	7
628.875	1	8
629.044	1	8
629.214	1	20
629.384	1	19
629.553	1	11
629.723	1	15
629.892	1	5
630.062	1	5
630.232	1	9
630.401	1	6
630.571	1	8
630.740	1	14
630.910	1	14
631.079	1	11
631.249	1	8
631.419	1	12
631.588	1	1
631.758	1	15
631.927	1	6
632.097	1	4
632.266	1	9
632.436	1	11
632.606	1	-1
632.775	1	16
632.945	1	18
633.114	1	18
633.284	1	6
633.453	1	9
633.623	1	6
633.793	1	13
633.962	1	12
634.132	1	11
634.301	1	10
634.471	1	4
634.640	1	8
634.810	1	16
634.979	1	13
635.149	1	13
635.319	1	9
635.488	1	8
635.658	1	8
635.827	1	5
635.997	1	0
636.166	1	16
636.336	1	5
636.505	1	16
636.675	1	8
636.845	1	11
637.014	1	16
637.184	1	10
637.353	1	7
637.523	1	14
637.692	1	17
637.862	1	14
638.031	1	17
638.201	1	18
638.370	1	13
638.540	1	4
638.710	1	5
638.879	1	6
639.049	1	11
639.218	1	6
639.388	1	9
639.557	1	4
639.727	1	18
639.896	1	17
640.066	1	11
640.235	1	17
640.405	1	22
640.574	1	-3
640.744	1	9
640.914	1	11
641.083	1	15
641.253	1	5
641.422	1	15
641.592	1	9
641.761	1	7
641.931	1	1
642.100	1	32
642.270	1	6
642.439	1	22
642.609	1	10
642.778	1	8
642.948	1	13
643.117	1	15
643.287	1	12
643.456	1	1
643.626	1	15
643.795	1	4
643.965	1	20
644.134	1	9
644.304	1	7
644.473	1	8
644.643	1	11
644.812	1	11
644.982	1	12
645.151	1	11
645.321	1	7
645.490	1	16
645.660	1	12
645.829	1	10
645.999	1	2
646.168	1	7
646.338	1	13
646.507	1	9
646.677	1	8
646.846	1	9
647.016	1	5
647.185	1	9
647.355	1	3
647.524	1	24
647.694	1	19
647.863	1	16
648.033	1	4
648.202	1	15
648.372	1	7
648.541	1	11
648.711	1	15
648.880	1	12
649.050	1	12
649.219	1	4
649.389	1	22
649.558	1	13
649.728	1	16
649.897	1	8
650.067	1	9
650.236	1	12
650.406	1	18
650.575	1	25
650.745	1	10
650.914	1	8
651.084	1	9
651.253	1	13
651.423	1	8
651.592	1	10
651.762	1	7
651.931	1	18
652.101	1	7
652.270	1	24
652.440	1	11
652.609	1	10
652.778	1	5
652.948	1	17
653.117	1	14
653.287	1	14
653.456	1	17
653.626	1	12
653.795	1	11
653.965	1	26
654.134	1	24
654.304	1	5
654.473	1	13
654.643	1	16
654.812	1	7
654.982	1	12
655.151	1	7
655.320	1	16
655.490	1	14
655.659	1	9
655.829	1	6
655.998	1	18
656.168	1	8
656.337	1	13
656.507	1	10
656.676	1	19
656.846	1	18
657.015	1	17
657.184	1	18
657.354	1	10
657.523	1	9
657.693	1	22
657.862	1	12
658.032	1	3
658.201	1	13
658.371	1	17
658.540	1	13
658.709	1	10
658.879	1	17
659.048	1	14
659.218	1	14
659.387	1	17
659.557	1	13
659.726	1	20
659.895	1	8
660.065	1	2
660.234	1	17
660.404	1	19
660.573	1	10
660.743	1	14
660.912	1	15
661.081	1	20
661.251	1	9
661.420	1	22
661.590	1	15
661.759	1	23
661.929	1	19
662.098	1	24
662.267	1	8
662.437	1	19
662.606	1	15
662.776	1	15
662.945	1	19
663.115	1	11
663.284	1	1
663.453	1	17
663.623	1	18
663.792	1	17
663.962	1	10
664.131	1	18
664.300	1	20
664.470	1	8
664.639	1	19
664.809	1	9
664.978	1	14
665.148	1	13
665.317	1	11
665.486	1	20
665.656	1	16
665.825	1	16
665.995	1	6
666.164	1	13
666.333	1	23
666.503	1	12
666.672	1	7
666.842	1	7
667.011	1	2
667.180	1	14
667.350	1	11
667.519	1	19
667.689	1	12
667.858	1	18
668.027	1	24
668.197	1	10
668.366	1	11
668.536	1	14
668.705	1	13
668.874	1	19
669.044	1	10
669.213	1	22
669.382	1	6
669.552	1	16
669.721	1	17
669.891	1	24
670.060	1	20
670.229	1	25
670.399	1	18
670.568	1	23
670.738	1	12
670.907	1	10
671.076	1	20
671.246	1	9
671.415	1	18
671.584	1	19
671.754	1	16
671.923	1	11
672.093	1	11
672.262	1	1
672.431	1	6
672.601	1	8
672.770	1	9
672.939	1	19
673.109	1	16
673.278	1	14
673.448	1	17
673.617	1	15
673.786	1	19
