325.333	1	17
325.504	1	7
325.675	1	10
325.846	1	0
326.017	1	11
326.188	1	11
326.359	1	1
326.531	1	-7
326.702	1	-2
326.873	1	8
327.044	1	0
327.215	1	-6
327.386	1	4
327.557	1	-5
327.728	1	6
327.899	1	3
328.070	1	10
328.241	1	3
328.412	1	-6
328.583	1	3
328.754	1	-6
328.926	1	-1
329.097	1	0
329.268	1	9
329.439	1	7
329.610	1	16
329.781	1	-6
329.952	1	9
330.123	1	2
330.294	1	1
330.465	1	0
330.636	1	6
330.807	1	-3
330.978	1	4
331.149	1	-2
331.320	1	-3
331.492	1	4
331.663	1	10
331.834	1	10
332.005	1	5
332.176	1	20
332.347	1	8
332.518	1	-12
332.689	1	0
332.860	1	5
333.031	1	9
333.202	1	0
333.373	1	5
333.544	1	6
333.715	1	4
333.886	1	-4
334.057	1	-1
334.228	1	-1
334.399	1	-5
334.570	1	7
334.741	1	-1
334.912	1	7
335.084	1	20
335.255	1	5
335.426	1	0
335.597	1	12
335.768	1	4
335.939	1	9
336.110	1	-5
336.281	1	-3
336.452	1	-5
336.623	1	1
336.794	1	8
336.965	1	5
337.136	1	5
337.307	1	2
337.478	1	0
337.649	1	3
337.820	1	1
337.991	1	3
338.162	1	10
338.333	1	-2
338.504	1	11
338.675	1	3
338.846	1	10
339.017	1	10
339.188	1	5
339.359	1	-1
339.530	1	1
339.701	1	2
339.872	1	6
340.043	1	6
340.214	1	14
340.385	1	14
340.556	1	-3
340.727	1	10
340.898	1	15
341.069	1	3
341.240	1	-2
341.411	1	4
341.582	1	3
341.753	1	2
341.924	1	-1
342.095	1	8
342.266	1	8
342.437	1	9
342.608	1	2
342.779	1	6
342.950	1	7
343.121	1	9
343.292	1	-3
343.463	1	0
343.634	1	6
343.805	1	7
343.976	1	12
344.147	1	8
344.318	1	0
344.489	1	3
344.660	1	5
344.831	1	3
345.002	1	-3
345.173	1	10
345.344	1	5
345.515	1	5
345.686	1	3
345.857	1	9
346.028	1	6
346.199	1	-1
346.370	1	1
346.541	1	7
346.712	1	0
346.883	1	-1
347.054	1	3
347.225	1	8
347.396	1	6
347.567	1	0
347.738	1	2
347.909	1	19
348.080	1	2
348.251	1	9
348.422	1	12
348.593	1	3
348.764	1	1
348.935	1	8
349.106	1	1
349.277	1	13
349.448	1	12
349.619	1	3
349.790	1	10
349.961	1	3
350.132	1	10
350.303	1	-4
350.474	1	15
350.645	1	16
350.816	1	5
350.987	1	7
351.157	1	2
351.328	1	14
351.499	1	8
351.670	1	0
351.841	1	17
352.012	1	7
352.183	1	8
352.354	1	16
352.525	1	22
352.696	1	13
352.867	1	4
353.038	1	6
353.209	1	9
353.380	1	2
353.551	1	-3
353.722	1	0
353.893	1	4
354.064	1	17
354.235	1	3
354.406	1	9
354.576	1	4
354.747	1	12
354.918	1	14
355.089	1	5
355.260	1	8
355.431	1	5
355.602	1	4
355.773	1	8
355.944	1	11
356.115	1	10
356.286	1	7
356.457	1	10
356.628	1	12
356.799	1	9
356.970	1	14
357.141	1	3
357.311	1	1
357.482	1	8
357.653	1	8
357.824	1	22
357.995	1	1
358.166	1	0
358.337	1	7
358.508	1	22
358.679	1	11
358.850	1	8
359.021	1	4
359.192	1	9
359.363	1	7
359.533	1	11
359.704	1	18
359.875	1	2
360.046	1	-1
360.217	1	-1
360.388	1	3
360.559	1	5
360.730	1	17
360.901	1	5
361.072	1	6
361.243	1	14
361.414	1	8
361.584	1	6
361.755	1	4
361.926	1	4
362.097	1	4
362.268	1	5
362.439	1	-2
362.610	1	22
362.781	1	7
362.952	1	6
363.123	1	8
363.293	1	-2
363.464	1	4
363.635	1	5
363.806	1	6
363.977	1	16
364.148	1	5
364.319	1	11
364.490	1	13
364.661	1	14
364.832	1	11
365.002	1	10
365.173	1	7
365.344	1	13
365.515	1	1
365.686	1	7
365.857	1	5
366.028	1	15
366.199	1	8
366.370	1	14
366.540	1	9
366.711	1	-6
366.882	1	0
367.053	1	-3
367.224	1	20
367.395	1	13
367.566	1	15
367.737	1	18
367.908	1	15
368.078	1	11
368.249	1	8
368.420	1	9
368.591	1	2
368.762	1	8
368.933	1	8
369.104	1	-1
369.274	1	2
369.445	1	10
369.616	1	9
369.787	1	10
369.958	1	19
370.129	1	-3
370.300	1	17
370.471	1	-2
370.641	1	15
370.812	1	15
370.983	1	4
371.154	1	7
371.325	1	13
371.496	1	12
371.667	1	15
371.837	1	-2
372.008	1	9
372.179	1	9
372.350	1	19
372.521	1	2
372.692	1	7
372.863	1	12
373.033	1	1
373.204	1	8
373.375	1	7
373.546	1	14
373.717	1	10
373.888	1	24
374.059	1	16
374.229	1	13
374.400	1	5
374.571	1	9
374.742	1	17
374.913	1	13
375.084	1	2
375.254	1	14
375.425	1	10
375.596	1	8
375.767	1	2
375.938	1	14
376.109	1	3
376.279	1	3
376.450	1	14
376.621	1	19
376.792	1	2
376.963	1	7
377.134	1	22
377.304	1	14
377.475	1	9
377.646	1	10
377.817	1	7
377.988	1	3
378.159	1	9
378.329	1	25
378.500	1	-4
378.671	1	10
378.842	1	4
379.013	1	-2
379.184	1	6
379.354	1	19
379.525	1	9
379.696	1	21
379.867	1	10
380.038	1	6
380.209	1	15
380.379	1	3
380.550	1	5
380.721	1	14
380.892	1	12
381.063	1	21
381.233	1	10
381.404	1	8
381.575	1	15
381.746	1	17
381.917	1	5
382.087	1	12
382.258	1	-3
382.429	1	19
382.600	1	21
382.771	1	14
382.941	1	12
383.112	1	7
383.283	1	14
383.454	1	18
383.625	1	9
383.795	1	6
383.966	1	5
384.137	1	15
384.308	1	20
384.479	1	14
384.649	1	8
384.820	1	9
384.991	1	8
385.162	1	14
385.333	1	4
385.503	1	0
385.674	1	-6
385.845	1	23
386.016	1	9
386.187	1	6
386.357	1	11
386.528	1	21
386.699	1	12
386.870	1	18
387.041	1	20
387.211	1	14
387.382	1	14
387.553	1	23
387.724	1	7
387.894	1	18
388.065	1	14
388.236	1	18
388.407	1	9
388.578	1	-1
388.748	1	12
388.919	1	19
389.090	1	8
389.261	1	16
389.431	1	23
389.602	1	8
389.773	1	18
389.944	1	11
390.114	1	6
390.285	1	8
390.456	1	6
390.627	1	12
390.798	1	9
390.968	1	8
391.139	1	14
391.310	1	12
391.481	1	9
391.651	1	14
391.822	1	2
391.993	1	10
392.164	1	0
392.334	1	18
392.505	1	12
392.676	1	24
392.847	1	20
393.017	1	21
393.188	1	16
393.359	1	-2
393.530	1	19
393.700	1	8
393.871	1	15
394.042	1	11
394.213	1	7
394.383	1	13
394.554	1	-1
394.725	1	19
394.896	1	12
395.066	1	24
395.237	1	4
395.408	1	8
395.579	1	12
395.749	1	8
395.920	1	6
396.091	1	19
396.262	1	15
396.432	1	9
396.603	1	18
396.774	1	22
396.945	1	14
397.115	1	9
397.286	1	15
397.457	1	16
397.627	1	22
397.798	1	19
397.969	1	14
398.140	1	4
398.310	1	2
398.481	1	22
398.652	1	12
398.823	1	12
398.993	1	6
399.164	1	19
399.335	1	12
399.505	1	16
399.676	1	15
399.847	1	13
400.018	1	11
400.188	1	7
400.359	1	6
400.530	1	5
400.700	1	16
400.871	1	9
401.042	1	17
401.213	1	16
401.383	1	7
401.554	1	22
401.725	1	20
401.895	1	8
402.066	1	14
402.237	1	10
402.408	1	17
402.578	1	9
402.749	1	16
402.920	1	9
403.090	1	10
403.261	1	7
403.432	1	9
403.603	1	17
403.773	1	25
403.944	1	24
404.115	1	21
404.285	1	19
404.456	1	11
404.627	1	11
404.797	1	1
404.968	1	2
405.139	1	19
405.310	1	26
405.480	1	13
405.651	1	13
405.822	1	18
405.992	1	10
406.163	1	13
406.334	1	4
406.504	1	13
406.675	1	16
406.846	1	9
407.016	1	22
407.187	1	20
407.358	1	7
407.528	1	13
407.699	1	3
407.870	1	6
408.041	1	13
408.211	1	18
408.382	1	6
408.553	1	16
408.723	1	22
408.894	1	6
409.065	1	14
409.235	1	20
409.406	1	18
409.577	1	16
409.747	1	14
409.918	1	7
410.089	1	13
410.259	1	21
410.430	1	10
410.601	1	16
410.771	1	11
410.942	1	29
411.113	1	17
411.283	1	12
411.454	1	12
411.625	1	16
411.795	1	17
411.966	1	7
412.137	1	10
412.307	1	7
412.478	1	10
412.649	1	16
412.819	1	9
412.990	1	13
413.161	1	16
413.331	1	7
413.502	1	21
413.672	1	14
413.843	1	20
414.014	1	16
414.184	1	25
414.355	1	20
414.526	1	14
414.696	1	19
414.867	1	14
415.038	1	6
415.208	1	18
415.379	1	8
415.550	1	24
415.720	1	12
415.891	1	18
416.062	1	14
416.232	1	16
416.403	1	13
416.573	1	18
416.744	1	12
416.915	1	14
417.085	1	11
417.256	1	5
417.427	1	6
417.597	1	18
417.768	1	8
417.939	1	19
418.109	1	11
418.280	1	26
418.450	1	7
418.621	1	3
418.792	1	13
418.962	1	17
419.133	1	24
419.304	1	2
419.474	1	7
419.645	1	13
419.815	1	9
419.986	1	17
420.157	1	10
420.327	1	14
420.498	1	25
420.669	1	15
420.839	1	18
421.010	1	23
421.180	1	19
421.351	1	10
421.522	1	21
421.692	1	16
421.863	1	13
422.033	1	16
422.204	1	18
422.375	1	2
422.545	1	17
422.716	1	17
422.886	1	9
423.057	1	20
423.228	1	9
423.398	1	2
423.569	1	20
423.740	1	15
423.910	1	7
424.081	1	13
424.251	1	9
424.422	1	14
424.593	1	-1
424.763	1	16
424.934	1	17
425.104	1	14
425.275	1	6
425.445	1	13
425.616	1	12
425.787	1	9
425.957	1	9
426.128	1	20
426.298	1	26
426.469	1	5
426.640	1	22
426.810	1	28
426.981	1	5
427.151	1	14
427.322	1	13
427.493	1	13
427.663	1	20
427.834	1	8
428.004	1	19
428.175	1	16
428.345	1	6
428.516	1	7
428.687	1	20
428.857	1	11
429.028	1	-1
429.198	1	14
429.369	1	19
429.540	1	30
429.710	1	5
429.881	1	19
430.051	1	11
430.222	1	0
430.392	1	12
430.563	1	23
430.734	1	14
430.904	1	16
431.075	1	28
431.245	1	14
431.416	1	16
431.586	1	10
431.757	1	17
431.927	1	18
432.098	1	13
432.269	1	16
432.439	1	13
432.610	1	11
432.780	1	16
432.951	1	7
433.121	1	18
433.292	1	21
433.462	1	16
433.633	1	16
433.804	1	16
433.974	1	12
434.145	1	23
434.315	1	9
434.486	1	14
434.656	1	17
434.827	1	11
434.997	1	8
435.168	1	9
435.339	1	23
435.509	1	18
435.680	1	6
435.850	1	2
436.021	1	11
436.191	1	12
436.362	1	19
436.532	1	14
436.703	1	14
436.873	1	4
437.044	1	-7
437.214	1	14
437.385	1	7
437.556	1	3
437.726	1	32
437.897	1	31
438.067	1	20
438.238	1	11
438.408	1	19
438.579	1	3
438.749	1	16
438.920	1	15
439.090	1	10
439.261	1	8
439.431	1	9
439.602	1	14
439.772	1	14
439.943	1	24
440.113	1	16
440.284	1	17
440.455	1	9
440.625	1	7
440.796	1	14
440.966	1	3
441.137	1	10
441.307	1	8
441.478	1	31
441.648	1	16
441.819	1	15
441.989	1	17
442.160	1	16
442.330	1	10
442.501	1	8
442.671	1	9
442.842	1	2
443.012	1	12
443.183	1	15
443.353	1	3
443.524	1	19
443.694	1	21
443.865	1	11
444.035	1	12
444.206	1	13
444.376	1	2
444.547	1	27
444.717	1	10
444.888	1	4
445.058	1	21
445.229	1	15
445.399	1	13
445.570	1	12
445.740	1	0
445.911	1	12
446.081	1	4
446.252	1	16
446.422	1	8
446.593	1	13
446.763	1	12
446.934	1	11
447.104	1	6
447.275	1	11
447.445	1	12
447.616	1	9
447.786	1	3
447.957	1	23
448.127	1	10
448.298	1	16
448.468	1	1
448.639	1	6
448.809	1	10
448.979	1	8
449.150	1	25
449.320	1	18
449.491	1	19
449.661	1	16
449.832	1	14
450.002	1	20
450.173	1	12
450.343	1	7
450.514	1	8
450.684	1	2
450.855	1	12
451.025	1	8
451.196	1	15
451.366	1	0
451.537	1	15
451.707	1	-9
451.878	1	9
452.048	1	21
452.218	1	13
452.389	1	7
452.559	1	3
452.730	1	22
452.900	1	16
453.071	1	2
453.241	1	9
453.412	1	6
453.582	1	13
453.753	1	7
453.923	1	15
454.093	1	13
454.264	1	8
454.434	1	12
454.605	1	14
454.775	1	14
454.946	1	6
455.116	1	9
455.287	1	1
455.457	1	6
455.628	1	4
455.798	1	14
455.968	1	19
456.139	1	0
456.309	1	13
456.480	1	12
456.650	1	-4
456.821	1	12
456.991	1	12
457.161	1	13
457.332	1	14
457.502	1	-6
457.673	1	13
457.843	1	9
458.014	1	10
458.184	1	7
458.355	1	1
458.525	1	14
458.695	1	6
458.866	1	4
459.036	1	17
459.207	1	15
459.377	1	8
459.548	1	11
459.718	1	5
459.888	1	6
460.059	1	13
460.229	1	14
460.400	1	14
460.570	1	10
460.740	1	11
460.911	1	4
461.081	1	4
461.252	1	0
461.422	1	16
461.593	1	9
461.763	1	16
461.933	1	12
462.104	1	3
462.274	1	16
462.445	1	5
462.615	1	10
462.785	1	12
462.956	1	11
463.126	1	18
463.297	1	1
463.467	1	13
463.638	1	8
463.808	1	2
463.978	1	3
464.149	1	5
464.319	1	7
464.490	1	21
464.660	1	6
464.830	1	0
465.001	1	16
465.171	1	8
465.342	1	13
465.512	1	4
465.682	1	0
465.853	1	13
466.023	1	9
466.194	1	5
466.364	1	16
466.534	1	2
466.705	1	17
466.875	1	-2
467.045	1	2
467.216	1	20
467.386	1	2
467.557	1	-4
467.727	1	-2
467.897	1	3
468.068	1	15
468.238	1	5
468.409	1	0
468.579	1	15
468.749	1	4
468.920	1	4
469.090	1	11
469.260	1	3
469.431	1	6
469.601	1	7
469.772	1	13
469.942	1	6
470.112	1	13
470.283	1	5
470.453	1	6
470.623	1	8
470.794	1	5
470.964	1	14
471.135	1	9
471.305	1	-4
471.475	1	5
471.646	1	0
471.816	1	-6
471.986	1	2
472.157	1	18
472.327	1	-6
472.497	1	9
472.668	1	5
472.838	1	12
473.009	1	9
473.179	1	3
473.349	1	-3
473.520	1	13
473.690	1	0
473.860	1	6
474.031	1	14
474.201	1	3
474.371	1	19
474.542	1	11
474.712	1	15
474.882	1	11
475.053	1	12
475.223	1	7
475.394	1	13
475.564	1	6
475.734	1	11
475.905	1	22
476.075	1	0
476.245	1	11
476.416	1	14
476.586	1	10
476.756	1	13
476.927	1	12
477.097	1	9
477.267	1	2
477.438	1	7
477.608	1	12
477.778	1	12
477.949	1	12
478.119	1	10
478.289	1	16
478.460	1	7
478.630	1	5
478.800	1	3
478.971	1	6
479.141	1	8
479.311	1	-2
479.482	1	11
479.652	1	-9
479.822	1	17
479.993	1	0
480.163	1	8
480.333	1	9
480.504	1	5
480.674	1	6
480.844	1	-7
481.015	1	12
481.185	1	-6
481.355	1	15
481.525	1	10
481.696	1	10
481.866	1	8
482.036	1	0
482.207	1	7
482.377	1	4
482.547	1	9
482.718	1	4
482.888	1	11
483.058	1	5
483.229	1	7
483.399	1	1
483.569	1	5
483.740	1	5
483.910	1	7
484.080	1	1
484.250	1	9
484.421	1	7
484.591	1	9
484.761	1	13
484.932	1	11
485.102	1	15
485.272	1	-2
485.443	1	14
485.613	1	9
485.783	1	5
485.953	1	8
486.124	1	8
486.294	1	9
486.464	1	3
486.635	1	13
486.805	1	18
486.975	1	4
487.146	1	1
487.316	1	6
487.486	1	6
487.656	1	7
487.827	1	6
487.997	1	-2
488.167	1	3
488.338	1	18
488.508	1	7
488.678	1	3
488.848	1	12
489.019	1	3
489.189	1	10
489.359	1	2
489.529	1	14
489.700	1	2
489.870	1	16
490.040	1	-3
490.211	1	-1
490.381	1	6
490.551	1	7
490.721	1	10
490.892	1	5
491.062	1	3
491.232	1	13
491.402	1	6
491.573	1	-3
491.743	1	8
491.913	1	4
492.084	1	11
492.254	1	4
492.424	1	5
492.594	1	3
492.765	1	9
492.935	1	1
493.105	1	10
493.275	1	4
493.446	1	23
493.616	1	13
493.786	1	5
493.956	1	-2
494.127	1	0
494.297	1	7
494.467	1	6
494.637	1	5
494.808	1	2
494.978	1	-1
495.148	1	-6
495.318	1	1
495.489	1	11
495.659	1	14
495.829	1	-1
495.999	1	0
496.170	1	16
496.340	1	2
496.510	1	4
496.680	1	-2
496.851	1	11
497.021	1	0
497.191	1	-3
497.361	1	1
497.532	1	0
497.702	1	2
497.872	1	3
498.042	1	11
498.213	1	7
498.383	1	1
498.553	1	-2
498.723	1	5
498.894	1	7
499.064	1	0
499.234	1	11
499.404	1	7
499.574	1	13
499.745	1	12
499.915	1	10
500.085	1	15
500.255	1	11
500.426	1	3
500.596	1	4
500.766	1	-1
500.936	1	-3
501.106	1	-4
501.277	1	13
501.447	1	4
501.617	1	2
501.787	1	2
501.958	1	-5
502.128	1	8
502.298	1	9
502.468	1	12
502.638	1	-1
502.809	1	1
502.979	1	-1
503.149	1	-1
503.319	1	-5
503.489	1	7
503.660	1	6
503.830	1	2
504.000	1	9
504.170	1	1
504.340	1	-2
504.511	1	14
504.681	1	3
504.851	1	11
505.021	1	2
505.192	1	-1
505.362	1	15
505.532	1	5
505.702	1	-5
505.872	1	6
506.043	1	2
506.213	1	-2
506.383	1	-3
506.553	1	13
506.723	1	8
506.893	1	5
507.064	1	10
507.234	1	1
507.404	1	-4
507.574	1	5
507.744	1	5
507.915	1	15
508.085	1	13
508.255	1	13
508.425	1	-5
508.595	1	-1
508.766	1	2
508.936	1	2
509.106	1	5
509.276	1	2
509.446	1	1
509.616	1	9
509.787	1	2
509.957	1	7
510.127	1	3
510.297	1	-4
510.467	1	-6
510.638	1	14
510.808	1	-15
510.978	1	-2
511.148	1	9
511.318	1	3
511.488	1	-12
511.659	1	3
511.829	1	14
511.999	1	3
512.169	1	5
512.339	1	-5
512.509	1	2
512.680	1	7
512.850	1	1
513.020	1	11
513.190	1	3
513.360	1	-4
513.530	1	-3
513.700	1	11
513.871	1	8
514.041	1	-10
514.211	1	13
514.381	1	1
514.551	1	6
514.721	1	3
514.892	1	-1
515.062	1	0
515.232	1	5
515.402	1	-7
515.572	1	1
515.742	1	5
515.912	1	7
516.083	1	4
516.253	1	9
516.423	1	2
516.593	1	0
516.763	1	3
516.933	1	-2
517.104	1	5
517.274	1	-1
517.444	1	9
517.614	1	-3
517.784	1	4
517.954	1	9
518.124	1	-1
518.294	1	-6
518.465	1	3
518.635	1	-4
518.805	1	-6
518.975	1	7
519.145	1	3
519.315	1	4
519.485	1	0
519.656	1	16
519.826	1	-2
519.996	1	-2
520.166	1	-1
520.336	1	13
520.506	1	-3
520.676	1	-6
520.846	1	11
521.017	1	12
521.187	1	-1
521.357	1	10
521.527	1	3
521.697	1	1
521.867	1	0
522.037	1	11
522.207	1	9
522.377	1	2
522.548	1	8
522.718	1	1
522.888	1	14
523.058	1	0
523.228	1	6
523.398	1	8
523.568	1	10
523.738	1	10
523.909	1	8
524.079	1	9
524.249	1	1
524.419	1	3
524.589	1	9
524.759	1	-1
524.929	1	-6
525.099	1	2
525.269	1	6
525.439	1	-2
525.610	1	18
525.780	1	4
525.950	1	7
526.120	1	-9
526.290	1	5
526.460	1	-5
526.630	1	2
526.800	1	-1
526.970	1	3
527.140	1	4
527.311	1	0
527.481	1	2
527.651	1	10
527.821	1	-6
527.991	1	14
528.161	1	6
528.331	1	-4
528.501	1	6
528.671	1	-2
528.841	1	9
529.011	1	-9
529.181	1	9
529.352	1	2
529.522	1	5
529.692	1	10
529.862	1	-2
530.032	1	7
530.202	1	4
530.372	1	-4
530.542	1	9
530.712	1	-3
530.882	1	-2
531.052	1	-2
531.222	1	2
531.392	1	-2
531.563	1	8
531.733	1	7
531.903	1	-1
532.073	1	-1
532.243	1	-4
532.413	1	5
532.583	1	-4
532.753	1	7
532.923	1	-7
533.093	1	6
533.263	1	-2
533.433	1	1
533.603	1	2
533.773	1	6
533.943	1	0
534.113	1	8
534.284	1	4
534.454	1	8
534.624	1	16
534.794	1	3
534.964	1	6
535.134	1	1
535.304	1	4
535.474	1	12
535.644	1	-3
535.814	1	-9
535.984	1	-1
536.154	1	-8
536.324	1	7
536.494	1	15
536.664	1	15
536.834	1	4
537.004	1	-2
537.174	1	9
537.344	1	5
537.514	1	-2
537.685	1	2
537.855	1	9
538.025	1	5
538.195	1	0
538.365	1	8
538.535	1	-2
538.705	1	-2
538.875	1	6
539.045	1	6
539.215	1	6
539.385	1	0
539.555	1	14
539.725	1	-2
539.895	1	2
540.065	1	3
540.235	1	9
540.405	1	1
540.575	1	4
540.745	1	1
540.915	1	10
541.085	1	7
541.255	1	-4
541.425	1	10
541.595	1	6
541.765	1	1
541.935	1	-4
542.105	1	-8
542.275	1	2
542.445	1	-10
542.615	1	7
542.785	1	8
542.955	1	-1
543.125	1	0
543.295	1	-3
543.465	1	5
543.635	1	-5
543.805	1	18
543.975	1	5
544.145	1	8
544.315	1	10
544.485	1	6
544.655	1	10
544.825	1	-5
544.995	1	7
545.165	1	-4
545.335	1	-2
545.505	1	-2
545.675	1	11
545.845	1	1
546.015	1	11
546.185	1	9
546.355	1	5
546.525	1	1
546.695	1	2
546.865	1	-1
547.035	1	5
547.205	1	-5
547.375	1	6
547.545	1	9
547.715	1	0
547.885	1	8
548.055	1	-2
548.225	1	-4
548.395	1	-2
548.565	1	2
548.735	1	3
548.905	1	-3
549.075	1	4
549.245	1	1
549.415	1	1
549.585	1	0
549.755	1	7
549.925	1	1
550.095	1	-3
550.265	1	0
550.435	1	-6
550.605	1	-1
550.775	1	-2
550.945	1	2
551.115	1	6
551.285	1	3
551.455	1	-9
551.625	1	8
551.795	1	-2
551.965	1	-6
552.135	1	5
552.305	1	-7
552.475	1	-6
552.645	1	-3
552.815	1	-5
552.985	1	10
553.155	1	7
553.325	1	1
553.495	1	7
553.665	1	-3
553.835	1	-6
554.004	1	4
554.174	1	-6
554.344	1	0
554.514	1	1
554.684	1	-1
554.854	1	-2
555.024	1	2
555.194	1	-3
555.364	1	1
555.534	1	6
555.704	1	-1
555.874	1	14
556.044	1	-5
556.214	1	-4
556.384	1	8
556.554	1	15
556.724	1	4
556.894	1	0
557.064	1	10
557.234	1	-5
557.404	1	13
557.573	1	3
557.743	1	3
557.913	1	-8
558.083	1	2
558.253	1	-2
558.423	1	6
558.593	1	7
558.763	1	2
558.933	1	-2
559.103	1	3
559.273	1	6
559.443	1	4
559.613	1	0
559.783	1	-4
559.953	1	6
560.122	1	2
560.292	1	6
560.462	1	-4
560.632	1	13
560.802	1	0
560.972	1	-5
561.142	1	5
561.312	1	-9
561.482	1	-4
561.652	1	4
561.822	1	-7
561.992	1	-5
562.162	1	-6
562.331	1	5
562.501	1	-6
562.671	1	6
562.841	1	-7
563.011	1	6
563.181	1	6
563.351	1	-7
563.521	1	1
563.691	1	-4
563.861	1	8
564.031	1	10
564.201	1	4
564.370	1	-6
564.540	1	-4
564.710	1	4
564.880	1	-4
565.050	1	6
565.220	1	-7
565.390	1	9
565.560	1	10
565.730	1	0
565.900	1	5
566.069	1	9
566.239	1	-4
566.409	1	-3
566.579	1	-4
566.749	1	-3
566.919	1	10
567.089	1	2
567.259	1	15
567.429	1	-3
567.599	1	-1
567.768	1	4
567.938	1	7
568.108	1	-5
568.278	1	3
568.448	1	6
568.618	1	-10
568.788	1	10
568.958	1	0
569.128	1	1
569.297	1	-3
569.467	1	-6
569.637	1	8
569.807	1	5
569.977	1	2
570.147	1	8
570.317	1	5
570.487	1	14
570.656	1	12
570.826	1	-7
570.996	1	-7
571.166	1	16
571.336	1	-5
571.506	1	17
571.676	1	3
571.846	1	12
572.015	1	1
572.185	1	-4
572.355	1	0
572.525	1	7
572.695	1	9
572.865	1	3
573.035	1	-2
573.205	1	7
573.374	1	-1
573.544	1	-6
573.714	1	8
573.884	1	13
574.054	1	-1
574.224	1	-1
574.394	1	-1
574.563	1	4
574.733	1	5
574.903	1	-5
575.073	1	4
575.243	1	1
575.413	1	7
575.583	1	5
575.752	1	5
575.922	1	5
576.092	1	2
576.262	1	6
576.432	1	9
576.602	1	1
576.772	1	16
576.941	1	3
577.111	1	-13
577.281	1	-12
577.451	1	-8
577.621	1	8
577.791	1	-3
577.960	1	-7
578.130	1	4
578.300	1	-2
578.470	1	12
578.640	1	1
578.810	1	-5
578.979	1	11
579.149	1	1
579.319	1	-13
579.489	1	3
579.659	1	0
579.829	1	-2
579.998	1	1
580.168	1	11
580.338	1	6
580.508	1	-3
580.678	1	6
580.848	1	1
581.017	1	-4
581.187	1	2
581.357	1	-9
581.527	1	3
581.697	1	19
581.867	1	10
582.036	1	0
582.206	1	-2
582.376	1	13
582.546	1	-5
582.716	1	-22
582.885	1	-5
583.055	1	1
583.225	1	-6
583.395	1	2
583.565	1	-1
583.735	1	9
583.904	1	10
584.074	1	1
584.244	1	-2
584.414	1	4
584.584	1	10
584.753	1	-7
584.923	1	-4
585.093	1	2
585.263	1	4
585.433	1	-3
585.602	1	-4
585.772	1	-4
585.942	1	-10
586.112	1	3
586.282	1	-6
586.451	1	-10
586.621	1	-6
586.791	1	-4
586.961	1	1
587.131	1	0
587.300	1	-2
587.470	1	-1
587.640	1	11
587.810	1	-7
587.980	1	-4
588.149	1	8
588.319	1	5
588.489	1	6
588.659	1	2
588.829	1	3
588.998	1	13
589.168	1	11
589.338	1	1
589.508	1	2
589.677	1	-2
589.847	1	-9
590.017	1	18
590.187	1	-3
590.357	1	11
590.526	1	16
590.696	1	6
590.866	1	5
591.036	1	5
591.205	1	15
591.375	1	-2
591.545	1	0
591.715	1	14
591.885	1	10
592.054	1	1
592.224	1	-2
592.394	1	-5
592.564	1	7
592.733	1	3
592.903	1	-2
593.073	1	-4
593.243	1	-2
593.412	1	-5
593.582	1	0
593.752	1	-8
593.922	1	6
594.091	1	2
594.261	1	0
594.431	1	6
594.601	1	6
594.771	1	1
594.940	1	3
595.110	1	-2
595.280	1	-1
595.450	1	0
595.619	1	-10
595.789	1	2
595.959	1	10
596.129	1	2
596.298	1	1
596.468	1	-2
596.638	1	2
596.808	1	0
596.977	1	-3
597.147	1	8
597.317	1	-2
597.487	1	5
597.656	1	6
597.826	1	5
597.996	1	5
598.166	1	-2
598.335	1	-8
598.505	1	-2
598.675	1	1
598.844	1	-3
599.014	1	8
599.184	1	5
599.354	1	-3
599.523	1	0
599.693	1	-4
599.863	1	9
600.033	1	4
600.202	1	0
600.372	1	1
600.542	1	10
600.712	1	-2
600.881	1	5
601.051	1	4
601.221	1	2
601.390	1	-7
601.560	1	-3
601.730	1	9
601.900	1	-3
602.069	1	5
602.239	1	0
602.409	1	-5
602.578	1	5
602.748	1	-4
602.918	1	7
603.088	1	8
603.257	1	0
603.427	1	2
603.597	1	6
603.767	1	5
603.936	1	-1
604.106	1	-5
604.276	1	10
604.445	1	9
604.615	1	1
604.785	1	-4
604.954	1	0
605.124	1	-1
605.294	1	2
605.464	1	-5
605.633	1	9
605.803	1	7
605.973	1	1
606.142	1	9
606.312	1	14
606.482	1	1
606.652	1	5
606.821	1	-12
606.991	1	-6
607.161	1	-3
607.330	1	10
607.500	1	7
607.670	1	-4
607.839	1	6
608.009	1	13
608.179	1	8
608.348	1	-1
608.518	1	-3
608.688	1	4
608.858	1	-5
609.027	1	-5
609.197	1	0
609.367	1	13
609.536	1	4
609.706	1	-1
609.876	1	1
610.045	1	4
610.215	1	4
610.385	1	-1
610.554	1	-10
610.724	1	6
610.894	1	-2
611.063	1	3
611.233	1	0
611.403	1	1
611.572	1	-5
611.742	1	6
611.912	1	7
612.081	1	-3
612.251	1	9
612.421	1	-3
612.590	1	-2
612.760	1	3
612.930	1	2
613.099	1	-2
613.269	1	9
613.439	1	-7
613.608	1	-1
613.778	1	1
613.948	1	-4
614.117	1	7
614.287	1	13
614.457	1	-3
614.626	1	3
614.796	1	3
614.966	1	-1
615.135	1	3
615.305	1	18
615.475	1	-1
615.644	1	1
615.814	1	-1
615.984	1	0
616.153	1	-2
616.323	1	1
616.493	1	1
616.662	1	14
616.832	1	-2
617.002	1	8
617.171	1	-7
617.341	1	-5
617.511	1	2
617.680	1	-8
617.850	1	-1
618.019	1	13
618.189	1	5
618.359	1	5
618.528	1	4
618.698	1	9
618.868	1	-7
619.037	1	-1
619.207	1	-6
619.377	1	-7
619.546	1	3
619.716	1	6
619.885	1	10
620.055	1	-6
620.225	1	-3
620.394	1	-4
620.564	1	9
620.734	1	-1
620.903	1	-7
621.073	1	13
621.242	1	5
621.412	1	0
621.582	1	-4
621.751	1	11
621.921	1	14
622.091	1	4
622.260	1	8
622.430	1	3
622.599	1	-2
622.769	1	2
622.939	1	10
623.108	1	2
623.278	1	-8
623.448	1	1
623.617	1	2
623.787	1	11
623.956	1	10
624.126	1	-5
624.296	1	-13
624.465	1	4
624.635	1	6
624.804	1	2
624.974	1	8
625.144	1	13
625.313	1	7
625.483	1	-10
625.652	1	0
625.822	1	-8
625.992	1	-1
626.161	1	7
626.331	1	4
626.501	1	-2
626.670	1	-5
626.840	1	-5
627.009	1	0
627.179	1	4
627.348	1	7
627.518	1	7
627.688	1	3
627.857	1	10
628.027	1	-9
628.196	1	5
628.366	1	3
628.536	1	11
628.705	1	3
628.875	1	0
629.044	1	-6
629.214	1	9
629.384	1	3
629.553	1	0
629.723	1	9
629.892	1	12
630.062	1	4
630.232	1	3
630.401	1	0
630.571	1	1
630.740	1	0
630.910	1	1
631.079	1	12
631.249	1	11
631.419	1	-1
631.588	1	-10
631.758	1	6
631.927	1	-1
632.097	1	7
632.266	1	1
632.436	1	-1
632.606	1	-8
632.775	1	6
632.945	1	6
633.114	1	6
633.284	1	4
633.453	1	-1
633.623	1	0
633.793	1	-3
633.962	1	5
634.132	1	6
634.301	1	6
634.471	1	13
634.640	1	3
634.810	1	-3
634.979	1	6
635.149	1	7
635.319	1	3
635.488	1	0
635.658	1	0
635.827	1	-1
635.997	1	-1
636.166	1	-1
636.336	1	3
636.505	1	6
636.675	1	-6
636.845	1	11
637.014	1	0
637.184	1	-4
637.353	1	1
637.523	1	8
637.692	1	2
637.862	1	11
638.031	1	2
638.201	1	10
638.370	1	-4
638.540	1	8
638.710	1	-4
638.879	1	-11
639.049	1	4
639.218	1	4
639.388	1	-9
639.557	1	2
639.727	1	8
639.896	1	6
640.066	1	-5
640.235	1	-1
640.405	1	6
640.574	1	0
640.744	1	-5
640.914	1	1
641.083	1	5
641.253	1	2
641.422	1	4
641.592	1	14
641.761	1	-2
641.931	1	-1
642.100	1	16
642.270	1	-2
642.439	1	4
642.609	1	8
642.778	1	0
642.948	1	3
643.117	1	14
643.287	1	4
643.456	1	-3
643.626	1	13
643.795	1	7
643.965	1	1
644.134	1	0
644.304	1	7
644.473	1	0
644.643	1	11
644.812	1	2
644.982	1	1
645.151	1	2
645.321	1	-10
645.490	1	9
645.660	1	-4
645.829	1	-7
645.999	1	1
646.168	1	12
646.338	1	4
646.507	1	-4
646.677	1	15
646.846	1	-3
647.016	1	-9
647.185	1	1
647.355	1	-12
647.524	1	12
647.694	1	12
647.863	1	4
648.033	1	-3
648.202	1	8
648.372	1	-3
648.541	1	3
648.711	1	4
648.880	1	-7
649.050	1	0
649.219	1	1
649.389	1	15
649.558	1	-2
649.728	1	6
649.897	1	-9
650.067	1	13
650.236	1	5
650.406	1	6
650.575	1	10
650.745	1	7
650.914	1	-6
651.084	1	-3
651.253	1	1
651.423	1	1
651.592	1	-1
651.762	1	2
651.931	1	12
652.101	1	1
652.270	1	7
652.440	1	6
652.609	1	2
652.778	1	-3
652.948	1	7
653.117	1	5
653.287	1	-1
653.456	1	6
653.626	1	1
653.795	1	5
653.965	1	6
654.134	1	1
654.304	1	-3
654.473	1	0
654.643	1	-7
654.812	1	-4
654.982	1	6
655.151	1	-3
655.320	1	5
655.490	1	2
655.659	1	8
655.829	1	-2
655.998	1	5
656.168	1	3
656.337	1	11
656.507	1	8
656.676	1	12
656.846	1	8
657.015	1	9
657.184	1	10
657.354	1	3
657.523	1	12
657.693	1	11
657.862	1	6
658.032	1	0
658.201	1	9
658.371	1	7
658.540	1	2
658.709	1	-1
658.879	1	10
659.048	1	3
659.218	1	3
659.387	1	0
659.557	1	2
659.726	1	6
659.895	1	6
660.065	1	-1
660.234	1	9
660.404	1	4
660.573	1	-4
660.743	1	5
660.912	1	5
661.081	1	5
661.251	1	-10
661.420	1	5
661.590	1	0
661.759	1	14
661.929	1	9
662.098	1	10
662.267	1	1
662.437	1	9
662.606	1	1
662.776	1	3
662.945	1	1
663.115	1	8
663.284	1	-6
663.453	1	6
663.623	1	7
663.792	1	14
663.962	1	1
664.131	1	7
664.300	1	11
664.470	1	2
664.639	1	7
664.809	1	-2
664.978	1	7
665.148	1	-1
665.317	1	-1
665.486	1	7
665.656	1	-3
665.825	1	14
665.995	1	2
666.164	1	3
666.333	1	-1
666.503	1	2
666.672	1	-2
666.842	1	-4
667.011	1	-8
667.180	1	6
667.350	1	1
667.519	1	4
667.689	1	9
667.858	1	6
668.027	1	12
668.197	1	-3
668.366	1	1
668.536	1	4
668.705	1	5
668.874	1	3
669.044	1	6
669.213	1	10
669.382	1	4
669.552	1	11
669.721	1	4
669.891	1	15
670.060	1	4
670.229	1	19
670.399	1	0
670.568	1	16
670.738	1	6
670.907	1	-8
671.076	1	0
671.246	1	-1
671.415	1	3
671.584	1	-3
671.754	1	0
671.923	1	-1
672.093	1	11
672.262	1	-6
672.431	1	6
672.601	1	3
672.770	1	-7
672.939	1	11
673.109	1	3
673.278	1	9
673.448	1	9
673.617	1	-1
673.786	1	3
