325.333	1	2
325.504	1	1
325.675	1	5
325.846	1	-4
326.017	1	4
326.188	1	-3
326.359	1	-3
326.531	1	-24
326.702	1	-2
326.873	1	3
327.044	1	-6
327.215	1	-6
327.386	1	-1
327.557	1	3
327.728	1	-6
327.899	1	9
328.070	1	6
328.241	1	-1
328.412	1	-17
328.583	1	11
328.754	1	-5
328.926	1	8
329.097	1	-7
329.268	1	11
329.439	1	-7
329.610	1	-3
329.781	1	-9
329.952	1	4
330.123	1	3
330.294	1	-7
330.465	1	-4
330.636	1	10
330.807	1	-5
330.978	1	-1
331.149	1	1
331.320	1	-6
331.492	1	-6
331.663	1	-3
331.834	1	12
332.005	1	7
332.176	1	21
332.347	1	6
332.518	1	-10
332.689	1	8
332.860	1	2
333.031	1	0
333.202	1	-3
333.373	1	3
333.544	1	5
333.715	1	2
333.886	1	-5
334.057	1	2
334.228	1	-8
334.399	1	-5
334.570	1	7
334.741	1	-7
334.912	1	2
335.084	1	18
335.255	1	2
335.426	1	3
335.597	1	-5
335.768	1	0
335.939	1	8
336.110	1	-10
336.281	1	-4
336.452	1	-8
336.623	1	0
336.794	1	6
336.965	1	-1
337.136	1	7
337.307	1	-9
337.478	1	-1
337.649	1	4
337.820	1	-3
337.991	1	-1
338.162	1	5
338.333	1	-13
338.504	1	-3
338.675	1	-1
338.846	1	-1
339.017	1	-4
339.188	1	-1
339.359	1	-4
339.530	1	3
339.701	1	6
339.872	1	16
340.043	1	-6
340.214	1	-2
340.385	1	5
340.556	1	-13
340.727	1	-4
340.898	1	7
341.069	1	3
341.240	1	1
341.411	1	6
341.582	1	-2
341.753	1	-7
341.924	1	-1
342.095	1	-3
342.266	1	17
342.437	1	2
342.608	1	-10
342.779	1	-5
342.950	1	5
343.121	1	2
343.292	1	-16
343.463	1	-1
343.634	1	5
343.805	1	0
343.976	1	13
344.147	1	4
344.318	1	-1
344.489	1	-4
344.660	1	11
344.831	1	-1
345.002	1	-8
345.173	1	12
345.344	1	3
345.515	1	-7
345.686	1	-8
345.857	1	8
346.028	1	-8
346.199	1	-6
346.370	1	-1
346.541	1	-3
346.712	1	-10
346.883	1	-4
347.054	1	-3
347.225	1	1
347.396	1	2
347.567	1	-8
347.738	1	-10
347.909	1	10
348.080	1	-8
348.251	1	-4
348.422	1	-2
348.593	1	11
348.764	1	3
348.935	1	3
349.106	1	-13
349.277	1	-2
349.448	1	7
349.619	1	-2
349.790	1	-2
349.961	1	5
350.132	1	9
350.303	1	0
350.474	1	11
350.645	1	-4
350.816	1	0
350.987	1	-4
351.157	1	-8
351.328	1	7
351.499	1	-5
351.670	1	2
351.841	1	7
352.012	1	-1
352.183	1	10
352.354	1	9
352.525	1	3
352.696	1	8
352.867	1	-10
353.038	1	-4
353.209	1	5
353.380	1	-3
353.551	1	-1
353.722	1	4
353.893	1	-2
354.064	1	15
354.235	1	-2
354.406	1	-9
354.576	1	-8
354.747	1	2
354.918	1	5
355.089	1	-4
355.260	1	6
355.431	1	5
355.602	1	-4
355.773	1	-3
355.944	1	-2
356.115	1	1
356.286	1	3
356.457	1	-3
356.628	1	-4
356.799	1	3
356.970	1	9
357.141	1	0
357.311	1	-1
357.482	1	2
357.653	1	4
357.824	1	3
357.995	1	1
358.166	1	-10
358.337	1	-6
358.508	1	3
358.679	1	1
358.850	1	0
359.021	1	-4
359.192	1	-1
359.363	1	-1
359.533	1	-3
359.704	1	-7
359.875	1	-9
360.046	1	-5
360.217	1	-10
360.388	1	3
360.559	1	-7
360.730	1	0
360.901	1	5
361.072	1	1
361.243	1	-3
361.414	1	-6
361.584	1	-5
361.755	1	4
361.926	1	-3
362.097	1	1
362.268	1	2
362.439	1	-12
362.610	1	6
362.781	1	-4
362.952	1	-4
363.123	1	-4
363.293	1	-2
363.464	1	1
363.635	1	-7
363.806	1	0
363.977	1	-7
364.148	1	-8
364.319	1	-2
364.490	1	0
364.661	1	-6
364.832	1	-4
365.002	1	9
365.173	1	-5
365.344	1	2
365.515	1	-11
365.686	1	0
365.857	1	-3
366.028	1	7
366.199	1	4
366.370	1	5
366.540	1	-7
366.711	1	-12
366.882	1	-12
367.053	1	-10
367.224	1	9
367.395	1	1
367.566	1	0
367.737	1	-3
367.908	1	8
368.078	1	-4
368.249	1	3
368.420	1	-13
368.591	1	-6
368.762	1	4
368.933	1	-10
369.104	1	-9
369.274	1	-3
369.445	1	2
369.616	1	3
369.787	1	4
369.958	1	14
370.129	1	-18
370.300	1	1
370.471	1	-5
370.641	1	-6
370.812	1	6
370.983	1	3
371.154	1	0
371.325	1	6
371.496	1	-1
371.667	1	10
371.837	1	-2
372.008	1	6
372.179	1	-5
372.350	1	5
372.521	1	-2
372.692	1	0
372.863	1	0
373.033	1	-4
373.204	1	-8
373.375	1	6
373.546	1	1
373.717	1	-1
373.888	1	9
374.059	1	-3
374.229	1	5
374.400	1	-6
374.571	1	-5
374.742	1	10
374.913	1	-1
375.084	1	-1
375.254	1	4
375.425	1	-3
375.596	1	1
375.767	1	-1
375.938	1	3
376.109	1	-5
376.279	1	3
376.450	1	11
376.621	1	5
376.792	1	0
376.963	1	2
377.134	1	10
377.304	1	-5
377.475	1	-1
377.646	1	-1
377.817	1	-6
377.988	1	1
378.159	1	5
378.329	1	8
378.500	1	-3
378.671	1	3
378.842	1	-1
379.013	1	-5
379.184	1	-7
379.354	1	-1
379.525	1	-2
379.696	1	6
379.867	1	1
380.038	1	3
380.209	1	-1
380.379	1	-15
380.550	1	-15
380.721	1	11
380.892	1	-3
381.063	1	2
381.233	1	-3
381.404	1	-5
381.575	1	12
381.746	1	-2
381.917	1	5
382.087	1	-2
382.258	1	-6
382.429	1	-2
382.600	1	3
382.771	1	-11
382.941	1	-18
383.112	1	-10
383.283	1	3
383.454	1	4
383.625	1	-6
383.795	1	2
383.966	1	-3
384.137	1	15
384.308	1	2
384.479	1	0
384.649	1	4
384.820	1	-5
384.991	1	-5
385.162	1	2
385.333	1	0
385.503	1	5
385.674	1	-2
385.845	1	7
386.016	1	0
386.187	1	-2
386.357	1	2
386.528	1	13
386.699	1	4
386.870	1	12
387.041	1	4
387.211	1	-3
387.382	1	11
387.553	1	5
387.724	1	-14
387.894	1	4
388.065	1	-3
388.236	1	-4
388.407	1	1
388.578	1	-5
388.748	1	-1
388.919	1	5
389.090	1	-4
389.261	1	-6
389.431	1	13
389.602	1	0
389.773	1	3
389.944	1	-4
390.114	1	8
390.285	1	7
390.456	1	-6
390.627	1	2
390.798	1	3
390.968	1	0
391.139	1	4
391.310	1	-9
391.481	1	5
391.651	1	0
391.822	1	-3
391.993	1	4
392.164	1	-6
392.334	1	3
392.505	1	-4
392.676	1	13
392.847	1	10
393.017	1	11
393.188	1	1
393.359	1	-1
393.530	1	-7
393.700	1	-6
393.871	1	-4
394.042	1	-6
394.213	1	-5
394.383	1	5
394.554	1	2
394.725	1	3
394.896	1	-11
395.066	1	-6
395.237	1	-5
395.408	1	-12
395.579	1	-3
395.749	1	-3
395.920	1	-5
396.091	1	0
396.262	1	3
396.432	1	3
396.603	1	4
396.774	1	8
396.945	1	3
397.115	1	-1
397.286	1	-1
397.457	1	-3
397.627	1	-2
397.798	1	8
397.969	1	-2
398.140	1	0
398.310	1	3
398.481	1	3
398.652	1	2
398.823	1	-9
398.993	1	-6
399.164	1	-3
399.335	1	2
399.505	1	8
399.676	1	5
399.847	1	0
400.018	1	-11
400.188	1	1
400.359	1	16
400.530	1	-9
400.700	1	-6
400.871	1	-1
401.042	1	-1
401.213	1	0
401.383	1	-1
401.554	1	8
401.725	1	10
401.895	1	-2
402.066	1	9
402.237	1	2
402.408	1	5
402.578	1	2
402.749	1	1
402.920	1	3
403.090	1	0
403.261	1	-9
403.432	1	-1
403.603	1	5
403.773	1	8
403.944	1	7
404.115	1	7
404.285	1	16
404.456	1	-1
404.627	1	-10
404.797	1	-9
404.968	1	-6
405.139	1	-16
405.310	1	9
405.480	1	5
405.651	1	-6
405.822	1	-5
405.992	1	-13
406.163	1	-3
406.334	1	-10
406.504	1	4
406.675	1	8
406.846	1	7
407.016	1	-3
407.187	1	8
407.358	1	-7
407.528	1	-11
407.699	1	-8
407.870	1	-9
408.041	1	3
408.211	1	9
408.382	1	-8
408.553	1	-14
408.723	1	7
408.894	1	-1
409.065	1	-6
409.235	1	-3
409.406	1	-3
409.577	1	-6
409.747	1	0
409.918	1	-1
410.089	1	-4
410.259	1	-3
410.430	1	1
410.601	1	-2
410.771	1	-3
410.942	1	3
411.113	1	12
411.283	1	-6
411.454	1	1
411.625	1	-1
411.795	1	4
411.966	1	-2
412.137	1	8
412.307	1	-15
412.478	1	-2
412.649	1	-1
412.819	1	0
412.990	1	1
413.161	1	-5
413.331	1	-9
413.502	1	7
413.672	1	-7
413.843	1	-8
414.014	1	-2
414.184	1	5
414.355	1	-3
414.526	1	4
414.696	1	4
414.867	1	-9
415.038	1	-13
415.208	1	-3
415.379	1	8
415.550	1	6
415.720	1	-10
415.891	1	-5
416.062	1	-6
416.232	1	-6
416.403	1	-4
416.573	1	5
416.744	1	-7
416.915	1	4
417.085	1	5
417.256	1	4
417.427	1	-1
417.597	1	4
417.768	1	-12
417.939	1	-7
418.109	1	-11
418.280	1	1
418.450	1	-2
418.621	1	-9
418.792	1	7
418.962	1	2
419.133	1	6
419.304	1	2
419.474	1	-5
419.645	1	-1
419.815	1	-9
419.986	1	1
420.157	1	3
420.327	1	7
420.498	1	8
420.669	1	-4
420.839	1	-2
421.010	1	5
421.180	1	-5
421.351	1	-6
421.522	1	7
421.692	1	6
421.863	1	4
422.033	1	5
422.204	1	-4
422.375	1	3
422.545	1	10
422.716	1	-7
422.886	1	1
423.057	1	1
423.228	1	-6
423.398	1	0
423.569	1	-2
423.740	1	-4
423.910	1	-4
424.081	1	-3
424.251	1	0
424.422	1	1
424.593	1	-1
424.763	1	-1
424.934	1	10
425.104	1	4
425.275	1	-7
425.445	1	-3
425.616	1	-1
425.787	1	-7
425.957	1	-1
426.128	1	3
426.298	1	12
426.469	1	-11
426.640	1	-8
426.810	1	12
426.981	1	0
427.151	1	-4
427.322	1	6
427.493	1	3
427.663	1	14
427.834	1	-4
428.004	1	9
428.175	1	-1
428.345	1	-3
428.516	1	-9
428.687	1	1
428.857	1	-5
429.028	1	-6
429.198	1	-1
429.369	1	3
429.540	1	-2
429.710	1	-7
429.881	1	5
430.051	1	-1
430.222	1	-4
430.392	1	-8
430.563	1	11
430.734	1	8
430.904	1	7
431.075	1	10
431.245	1	-7
431.416	1	5
431.586	1	-9
431.757	1	-2
431.927	1	-5
432.098	1	3
432.269	1	-10
432.439	1	3
432.610	1	1
432.780	1	2
432.951	1	1
433.121	1	0
433.292	1	2
433.462	1	7
433.633	1	4
433.804	1	-3
433.974	1	-3
434.145	1	6
434.315	1	-13
434.486	1	-14
434.656	1	1
434.827	1	-2
434.997	1	-5
435.168	1	-3
435.339	1	9
435.509	1	-5
435.680	1	5
435.850	1	2
436.021	1	3
436.191	1	-7
436.362	1	-4
436.532	1	3
436.703	1	-9
436.873	1	3
437.044	1	-11
437.214	1	0
437.385	1	-6
437.556	1	5
437.726	1	0
437.897	1	13
438.067	1	-7
438.238	1	2
438.408	1	2
438.579	1	-6
438.749	1	-5
438.920	1	-5
439.090	1	6
439.261	1	-1
439.431	1	2
439.602	1	-2
439.772	1	0
439.943	1	10
440.113	1	3
440.284	1	-2
440.455	1	0
440.625	1	7
440.796	1	-2
440.966	1	-1
441.137	1	0
441.307	1	-9
441.478	1	7
441.648	1	6
441.819	1	-2
441.989	1	2
442.160	1	4
442.330	1	0
442.501	1	8
442.671	1	-8
442.842	1	-8
443.012	1	-3
443.183	1	1
443.353	1	-11
443.524	1	7
443.694	1	5
443.865	1	-1
444.035	1	6
444.206	1	2
444.376	1	-7
444.547	1	4
444.717	1	-6
444.888	1	-5
445.058	1	8
445.229	1	6
445.399	1	-4
445.570	1	0
445.740	1	4
445.911	1	1
446.081	1	-17
446.252	1	6
446.422	1	-10
446.593	1	-12
446.763	1	-2
446.934	1	-7
447.104	1	-5
447.275	1	2
447.445	1	1
447.616	1	5
447.786	1	6
447.957	1	-6
448.127	1	-6
448.298	1	4
448.468	1	-8
448.639	1	-3
448.809	1	6
448.979	1	-5
449.150	1	6
449.320	1	3
449.491	1	3
449.661	1	-5
449.832	1	-7
450.002	1	2
450.173	1	-5
450.343	1	-6
450.514	1	-4
450.684	1	-6
450.855	1	1
451.025	1	5
451.196	1	0
451.366	1	0
451.537	1	4
451.707	1	-14
451.878	1	6
452.048	1	3
452.218	1	-2
452.389	1	4
452.559	1	-8
452.730	1	8
452.900	1	0
453.071	1	-14
453.241	1	-2
453.412	1	-9
453.582	1	-6
453.753	1	2
453.923	1	4
454.093	1	0
454.264	1	12
454.434	1	3
454.605	1	3
454.775	1	-3
454.946	1	-3
455.116	1	3
455.287	1	-15
455.457	1	-5
455.628	1	0
455.798	1	3
455.968	1	4
456.139	1	-2
456.309	1	-2
456.480	1	-7
456.650	1	-8
456.821	1	-9
456.991	1	5
457.161	1	-10
457.332	1	1
457.502	1	-12
457.673	1	10
457.843	1	6
458.014	1	3
458.184	1	-3
458.355	1	-7
458.525	1	1
458.695	1	2
458.866	1	0
459.036	1	13
459.207	1	1
459.377	1	-12
459.548	1	12
459.718	1	-7
459.888	1	6
460.059	1	-4
460.229	1	9
460.400	1	7
460.570	1	6
460.740	1	-2
460.911	1	-2
461.081	1	6
461.252	1	-1
461.422	1	-5
461.593	1	10
461.763	1	1
461.933	1	-5
462.104	1	-3
462.274	1	9
462.445	1	12
462.615	1	2
462.785	1	0
462.956	1	-2
463.126	1	2
463.297	1	-2
463.467	1	-6
463.638	1	0
463.808	1	-5
463.978	1	-6
464.149	1	5
464.319	1	-1
464.490	1	8
464.660	1	0
464.830	1	-1
465.001	1	1
465.171	1	-5
465.342	1	7
465.512	1	6
465.682	1	-10
465.853	1	9
466.023	1	-1
466.194	1	-2
466.364	1	15
466.534	1	1
466.705	1	-3
466.875	1	-7
467.045	1	1
467.216	1	11
467.386	1	2
467.557	1	-4
467.727	1	-9
467.897	1	-13
468.068	1	9
468.238	1	-12
468.409	1	-5
468.579	1	9
468.749	1	-8
468.920	1	-10
469.090	1	0
469.260	1	-12
469.431	1	-5
469.601	1	-2
469.772	1	-7
469.942	1	-10
470.112	1	6
470.283	1	-3
470.453	1	1
470.623	1	2
470.794	1	-3
470.964	1	-2
471.135	1	5
471.305	1	-16
471.475	1	1
471.646	1	-9
471.816	1	-6
471.986	1	-1
472.157	1	0
472.327	1	-14
472.497	1	2
472.668	1	-9
472.838	1	3
473.009	1	4
473.179	1	-8
473.349	1	-5
473.520	1	3
473.690	1	1
473.860	1	3
474.031	1	-3
474.201	1	4
474.371	1	4
474.542	1	3
474.712	1	-6
474.882	1	-2
475.053	1	12
475.223	1	-4
475.394	1	-1
475.564	1	-4
475.734	1	2
475.905	1	14
476.075	1	-4
476.245	1	1
476.416	1	4
476.586	1	8
476.756	1	-1
476.927	1	8
477.097	1	2
477.267	1	5
477.438	1	4
477.608	1	-1
477.778	1	0
477.949	1	6
478.119	1	14
478.289	1	5
478.460	1	6
478.630	1	0
478.800	1	-1
478.971	1	0
479.141	1	0
479.311	1	-12
479.482	1	8
479.652	1	-5
479.822	1	-9
479.993	1	-1
480.163	1	6
480.333	1	0
480.504	1	-1
480.674	1	-6
480.844	1	-13
481.015	1	5
481.185	1	-4
481.355	1	-2
481.525	1	-6
481.696	1	0
481.866	1	5
482.036	1	-7
482.207	1	0
482.377	1	-3
482.547	1	2
482.718	1	0
482.888	1	4
483.058	1	1
483.229	1	-9
483.399	1	12
483.569	1	-6
483.740	1	-5
483.910	1	1
484.080	1	-4
484.250	1	-2
484.421	1	4
484.591	1	2
484.761	1	6
484.932	1	6
485.102	1	3
485.272	1	-1
485.443	1	0
485.613	1	-6
485.783	1	-8
485.953	1	3
486.124	1	-1
486.294	1	-3
486.464	1	3
486.635	1	7
486.805	1	5
486.975	1	4
487.146	1	9
487.316	1	-11
487.486	1	4
487.656	1	6
487.827	1	-4
487.997	1	-13
488.167	1	-4
488.338	1	7
488.508	1	0
488.678	1	2
488.848	1	5
489.019	1	1
489.189	1	-5
489.359	1	-9
489.529	1	6
489.700	1	-10
489.870	1	14
490.040	1	-2
490.211	1	-9
490.381	1	-2
490.551	1	-9
490.721	1	3
490.892	1	-3
491.062	1	-2
491.232	1	1
491.402	1	-1
491.573	1	-9
491.743	1	-7
491.913	1	-6
492.084	1	4
492.254	1	0
492.424	1	-4
492.594	1	3
492.765	1	1
492.935	1	-8
493.105	1	4
493.275	1	4
493.446	1	1
493.616	1	6
493.786	1	-1
493.956	1	-13
494.127	1	7
494.297	1	-7
494.467	1	-9
494.637	1	-2
494.808	1	-11
494.978	1	-13
495.148	1	1
495.318	1	3
495.489	1	0
495.659	1	2
495.829	1	-2
495.999	1	-9
496.170	1	5
496.340	1	10
496.510	1	2
496.680	1	-9
496.851	1	10
497.021	1	2
497.191	1	-12
497.361	1	-3
497.532	1	4
497.702	1	-8
497.872	1	2
498.042	1	7
498.213	1	-5
498.383	1	4
498.553	1	3
498.723	1	-11
498.894	1	-2
499.064	1	0
499.234	1	0
499.404	1	3
499.574	1	4
499.745	1	2
499.915	1	6
500.085	1	4
500.255	1	-5
500.426	1	2
500.596	1	0
500.766	1	6
500.936	1	-1
501.106	1	-14
501.277	1	4
501.447	1	-2
501.617	1	-6
501.787	1	-3
501.958	1	3
502.128	1	-2
502.298	1	4
502.468	1	-3
502.638	1	-2
502.809	1	6
502.979	1	-12
503.149	1	-15
503.319	1	-9
503.489	1	1
503.660	1	6
503.830	1	1
504.000	1	-9
504.170	1	0
504.340	1	-6
504.511	1	-1
504.681	1	-2
504.851	1	11
505.021	1	-7
505.192	1	-9
505.362	1	8
505.532	1	-4
505.702	1	-4
505.872	1	4
506.043	1	-9
506.213	1	-6
506.383	1	2
506.553	1	5
506.723	1	2
506.893	1	4
507.064	1	5
507.234	1	-7
507.404	1	-2
507.574	1	0
507.744	1	-3
507.915	1	4
508.085	1	7
508.255	1	-2
508.425	1	-5
508.595	1	6
508.766	1	-4
508.936	1	-10
509.106	1	3
509.276	1	11
509.446	1	-14
509.616	1	-6
509.787	1	1
509.957	1	1
510.127	1	-1
510.297	1	2
510.467	1	-7
510.638	1	-2
510.808	1	-6
510.978	1	-6
511.148	1	3
511.318	1	0
511.488	1	-9
511.659	1	5
511.829	1	-6
511.999	1	6
512.169	1	1
512.339	1	2
512.509	1	-6
512.680	1	-5
512.850	1	-4
513.020	1	2
513.190	1	2
513.360	1	-14
513.530	1	1
513.700	1	-4
513.871	1	-1
514.041	1	-3
514.211	1	9
514.381	1	1
514.551	1	4
514.721	1	-5
514.892	1	-4
515.062	1	1
515.232	1	0
515.402	1	-9
515.572	1	-5
515.742	1	4
515.912	1	4
516.083	1	0
516.253	1	4
516.423	1	-3
516.593	1	-3
516.763	1	8
516.933	1	-5
517.104	1	-4
517.274	1	-2
517.444	1	0
517.614	1	-9
517.784	1	-5
517.954	1	-5
518.124	1	6
518.294	1	-6
518.465	1	-3
518.635	1	-6
518.805	1	-14
518.975	1	-1
519.145	1	0
519.315	1	-4
519.485	1	-9
519.656	1	10
519.826	1	-5
519.996	1	-14
520.166	1	-4
520.336	1	5
520.506	1	-1
520.676	1	-11
520.846	1	10
521.017	1	2
521.187	1	-1
521.357	1	13
521.527	1	0
521.697	1	1
521.867	1	-4
522.037	1	4
522.207	1	3
522.377	1	-1
522.548	1	-8
522.718	1	0
522.888	1	5
523.058	1	-5
523.228	1	14
523.398	1	1
523.568	1	5
523.738	1	4
523.909	1	1
524.079	1	0
524.249	1	-3
524.419	1	-5
524.589	1	0
524.759	1	-8
524.929	1	-11
525.099	1	1
525.269	1	-3
525.439	1	-7
525.610	1	21
525.780	1	-13
525.950	1	1
526.120	1	-3
526.290	1	-6
526.460	1	-5
526.630	1	0
526.800	1	-8
526.970	1	-3
527.140	1	-3
527.311	1	1
527.481	1	-14
527.651	1	1
527.821	1	-3
527.991	1	5
528.161	1	8
528.331	1	-7
528.501	1	7
528.671	1	-1
528.841	1	-4
529.011	1	-12
529.181	1	7
529.352	1	5
529.522	1	-9
529.692	1	5
529.862	1	5
530.032	1	0
530.202	1	3
530.372	1	-1
530.542	1	1
530.712	1	4
530.882	1	2
531.052	1	8
531.222	1	-1
531.392	1	-3
531.563	1	4
531.733	1	6
531.903	1	0
532.073	1	7
532.243	1	-1
532.413	1	-1
532.583	1	-2
532.753	1	-6
532.923	1	-6
533.093	1	4
533.263	1	-2
533.433	1	-2
533.603	1	-1
533.773	1	-1
533.943	1	-1
534.113	1	0
534.284	1	-5
534.454	1	7
534.624	1	5
534.794	1	-10
534.964	1	8
535.134	1	-4
535.304	1	-8
535.474	1	-2
535.644	1	2
535.814	1	-10
535.984	1	-3
536.154	1	-9
536.324	1	-10
536.494	1	5
536.664	1	8
536.834	1	-6
537.004	1	-8
537.174	1	7
537.344	1	-3
537.514	1	-10
537.685	1	2
537.855	1	11
538.025	1	0
538.195	1	7
538.365	1	12
538.535	1	-4
538.705	1	-8
538.875	1	4
539.045	1	-1
539.215	1	3
539.385	1	6
539.555	1	-5
539.725	1	-7
539.895	1	-3
540.065	1	0
540.235	1	1
540.405	1	-9
540.575	1	-2
540.745	1	-5
540.915	1	3
541.085	1	5
541.255	1	-11
541.425	1	-3
541.595	1	0
541.765	1	6
541.935	1	-3
542.105	1	-6
542.275	1	-2
542.445	1	-10
542.615	1	-1
542.785	1	7
542.955	1	-10
543.125	1	-7
543.295	1	0
543.465	1	-1
543.635	1	4
543.805	1	20
543.975	1	-6
544.145	1	6
544.315	1	-3
544.485	1	7
544.655	1	-3
544.825	1	-10
544.995	1	-3
545.165	1	-8
545.335	1	2
545.505	1	-9
545.675	1	1
545.845	1	11
546.015	1	-4
546.185	1	10
546.355	1	-5
546.525	1	13
546.695	1	-1
546.865	1	-8
547.035	1	7
547.205	1	1
547.375	1	-1
547.545	1	3
547.715	1	-1
547.885	1	1
548.055	1	-5
548.225	1	3
548.395	1	-1
548.565	1	-2
548.735	1	1
548.905	1	-3
549.075	1	0
549.245	1	3
549.415	1	-8
549.585	1	2
549.755	1	0
549.925	1	-5
550.095	1	-2
550.265	1	2
550.435	1	-3
550.605	1	-10
550.775	1	4
550.945	1	9
551.115	1	-10
551.285	1	4
551.455	1	-9
551.625	1	11
551.795	1	9
551.965	1	-11
552.135	1	3
552.305	1	-7
552.475	1	-10
552.645	1	0
552.815	1	-5
552.985	1	-1
553.155	1	-4
553.325	1	1
553.495	1	-4
553.665	1	0
553.835	1	-6
554.004	1	4
554.174	1	1
554.344	1	-5
554.514	1	3
554.684	1	2
554.854	1	4
555.024	1	-15
555.194	1	-3
555.364	1	-2
555.534	1	7
555.704	1	0
555.874	1	11
556.044	1	1
556.214	1	-3
556.384	1	-6
556.554	1	11
556.724	1	-2
556.894	1	-10
557.064	1	4
557.234	1	-3
557.404	1	8
557.573	1	4
557.743	1	-5
557.913	1	-7
558.083	1	-3
558.253	1	3
558.423	1	-3
558.593	1	-3
558.763	1	-4
558.933	1	6
559.103	1	-3
559.273	1	5
559.443	1	-3
559.613	1	4
559.783	1	-6
559.953	1	-14
560.122	1	3
560.292	1	-2
560.462	1	2
560.632	1	9
560.802	1	0
560.972	1	-2
561.142	1	2
561.312	1	-9
561.482	1	-2
561.652	1	10
561.822	1	-10
561.992	1	-8
562.162	1	7
562.331	1	3
562.501	1	-11
562.671	1	2
562.841	1	-13
563.011	1	-4
563.181	1	-4
563.351	1	-10
563.521	1	1
563.691	1	-12
563.861	1	-9
564.031	1	6
564.201	1	16
564.370	1	-7
564.540	1	-4
564.710	1	3
564.880	1	8
565.050	1	7
565.220	1	-3
565.390	1	5
565.560	1	9
565.730	1	-2
565.900	1	0
566.069	1	1
566.239	1	2
566.409	1	9
566.579	1	0
566.749	1	3
566.919	1	7
567.089	1	-6
567.259	1	7
567.429	1	-8
567.599	1	-3
567.768	1	7
567.938	1	5
568.108	1	0
568.278	1	-5
568.448	1	-7
568.618	1	-3
568.788	1	3
568.958	1	-4
569.128	1	5
569.297	1	-7
569.467	1	-6
569.637	1	9
569.807	1	-1
569.977	1	3
570.147	1	10
570.317	1	-4
570.487	1	9
570.656	1	-3
570.826	1	-7
570.996	1	0
571.166	1	2
571.336	1	-8
571.506	1	3
571.676	1	-2
571.846	1	2
572.015	1	0
572.185	1	-2
572.355	1	-4
572.525	1	-3
572.695	1	0
572.865	1	-10
573.035	1	-2
573.205	1	-1
573.374	1	-1
573.544	1	0
573.714	1	-1
573.884	1	4
574.054	1	-4
574.224	1	-7
574.394	1	3
574.563	1	-13
574.733	1	9
574.903	1	4
575.073	1	-2
575.243	1	6
575.413	1	3
575.583	1	-5
575.752	1	12
575.922	1	-3
576.092	1	1
576.262	1	-2
576.432	1	0
576.602	1	-5
576.772	1	7
576.941	1	4
577.111	1	-3
577.281	1	-17
577.451	1	-3
577.621	1	15
577.791	1	-2
577.960	1	-8
578.130	1	-4
578.300	1	-2
578.470	1	0
578.640	1	2
578.810	1	0
578.979	1	2
579.149	1	0
579.319	1	-3
579.489	1	-8
579.659	1	-5
579.829	1	0
579.998	1	3
580.168	1	1
580.338	1	2
580.508	1	-8
580.678	1	7
580.848	1	-1
581.017	1	-11
581.187	1	1
581.357	1	-6
581.527	1	11
581.697	1	-2
581.867	1	4
582.036	1	-3
582.206	1	-3
582.376	1	7
582.546	1	-4
582.716	1	-12
582.885	1	-4
583.055	1	1
583.225	1	-14
583.395	1	-3
583.565	1	-4
583.735	1	-1
583.904	1	-4
584.074	1	6
584.244	1	3
584.414	1	-5
584.584	1	4
584.753	1	-5
584.923	1	-4
585.093	1	-1
585.263	1	-7
585.433	1	2
585.602	1	-8
585.772	1	-9
585.942	1	1
586.112	1	9
586.282	1	-2
586.451	1	-4
586.621	1	-1
586.791	1	2
586.961	1	-2
587.131	1	3
587.300	1	-6
587.470	1	4
587.640	1	11
587.810	1	1
587.980	1	-10
588.149	1	11
588.319	1	-9
588.489	1	-5
588.659	1	0
588.829	1	4
588.998	1	7
589.168	1	8
589.338	1	1
589.508	1	-2
589.677	1	-9
589.847	1	-3
590.017	1	12
590.187	1	-9
590.357	1	5
590.526	1	8
590.696	1	3
590.866	1	2
591.036	1	1
591.205	1	19
591.375	1	-8
591.545	1	1
591.715	1	3
591.885	1	-17
592.054	1	5
592.224	1	9
592.394	1	-3
592.564	1	-2
592.733	1	5
592.903	1	11
593.073	1	-7
593.243	1	-2
593.412	1	3
593.582	1	-2
593.752	1	-2
593.922	1	4
594.091	1	-2
594.261	1	-8
594.431	1	-1
594.601	1	5
594.771	1	12
594.940	1	-8
595.110	1	-7
595.280	1	-3
595.450	1	-6
595.619	1	0
595.789	1	-1
595.959	1	-6
596.129	1	2
596.298	1	-3
596.468	1	4
596.638	1	-1
596.808	1	-3
596.977	1	1
597.147	1	-1
597.317	1	-4
597.487	1	6
597.656	1	0
597.826	1	7
597.996	1	-1
598.166	1	-2
598.335	1	-9
598.505	1	-9
598.675	1	-7
598.844	1	3
599.014	1	0
599.184	1	-1
599.354	1	-3
599.523	1	10
599.693	1	-12
599.863	1	8
600.033	1	6
600.202	1	1
600.372	1	2
600.542	1	12
600.712	1	-7
600.881	1	-6
601.051	1	5
601.221	1	-2
601.390	1	-6
601.560	1	7
601.730	1	6
601.900	1	5
602.069	1	7
602.239	1	-11
602.409	1	-15
602.578	1	-1
602.748	1	-3
602.918	1	9
603.088	1	7
603.257	1	7
603.427	1	-6
603.597	1	2
603.767	1	-1
603.936	1	5
604.106	1	-8
604.276	1	0
604.445	1	6
604.615	1	1
604.785	1	-6
604.954	1	0
605.124	1	3
605.294	1	-12
605.464	1	3
605.633	1	-5
605.803	1	-2
605.973	1	-3
606.142	1	1
606.312	1	5
606.482	1	-2
606.652	1	5
606.821	1	1
606.991	1	2
607.161	1	-9
607.330	1	2
607.500	1	-3
607.670	1	-4
607.839	1	7
608.009	1	5
608.179	1	10
608.348	1	-1
608.518	1	-7
608.688	1	5
608.858	1	2
609.027	1	-10
609.197	1	-3
609.367	1	1
609.536	1	13
609.706	1	-6
609.876	1	-2
610.045	1	4
610.215	1	0
610.385	1	-3
610.554	1	-5
610.724	1	5
610.894	1	-2
611.063	1	-4
611.233	1	1
611.403	1	-3
611.572	1	-5
611.742	1	4
611.912	1	4
612.081	1	-9
612.251	1	0
612.421	1	3
612.590	1	-5
612.760	1	-1
612.930	1	-1
613.099	1	-1
613.269	1	7
613.439	1	2
613.608	1	-3
613.778	1	13
613.948	1	-7
614.117	1	12
614.287	1	10
614.457	1	5
614.626	1	3
614.796	1	7
614.966	1	3
615.135	1	2
615.305	1	2
615.475	1	0
615.644	1	0
615.814	1	-9
615.984	1	-2
616.153	1	-5
616.323	1	1
616.493	1	-3
616.662	1	8
616.832	1	1
617.002	1	-6
617.171	1	-6
617.341	1	3
617.511	1	-11
617.680	1	-2
617.850	1	11
618.019	1	9
618.189	1	1
618.359	1	2
618.528	1	6
618.698	1	3
618.868	1	-9
619.037	1	-1
619.207	1	-8
619.377	1	-5
619.546	1	-3
619.716	1	-7
619.885	1	-6
620.055	1	-5
620.225	1	-8
620.394	1	-14
620.564	1	4
620.734	1	3
620.903	1	-7
621.073	1	-4
621.242	1	7
621.412	1	-2
621.582	1	-9
621.751	1	0
621.921	1	8
622.091	1	-3
622.260	1	-10
622.430	1	-2
622.599	1	4
622.769	1	5
622.939	1	3
623.108	1	2
623.278	1	-10
623.448	1	3
623.617	1	-11
623.787	1	14
623.956	1	1
624.126	1	-3
624.296	1	2
624.465	1	6
624.635	1	13
624.804	1	5
624.974	1	-2
625.144	1	2
625.313	1	-2
625.483	1	-3
625.652	1	-7
625.822	1	-4
625.992	1	-2
626.161	1	10
626.331	1	-9
626.501	1	-1
626.670	1	6
626.840	1	2
627.009	1	-16
627.179	1	9
627.348	1	5
627.518	1	1
627.688	1	-1
627.857	1	9
628.027	1	-6
628.196	1	0
628.366	1	5
628.536	1	4
628.705	1	-1
628.875	1	0
629.044	1	-2
629.214	1	8
629.384	1	1
629.553	1	-3
629.723	1	-2
629.892	1	3
630.062	1	2
630.232	1	-3
630.401	1	8
630.571	1	1
630.740	1	3
630.910	1	7
631.079	1	-4
631.249	1	5
631.419	1	4
631.588	1	-9
631.758	1	-3
631.927	1	-4
632.097	1	-4
632.266	1	-8
632.436	1	-5
632.606	1	-7
632.775	1	-2
632.945	1	3
633.114	1	6
633.284	1	-1
633.453	1	0
633.623	1	5
633.793	1	0
633.962	1	-6
634.132	1	-4
634.301	1	0
634.471	1	5
634.640	1	-5
634.810	1	-2
634.979	1	6
635.149	1	2
635.319	1	1
635.488	1	0
635.658	1	4
635.827	1	-11
635.997	1	-12
636.166	1	-5
636.336	1	-15
636.505	1	15
636.675	1	-5
636.845	1	0
637.014	1	3
637.184	1	12
637.353	1	-3
637.523	1	8
637.692	1	-4
637.862	1	-8
638.031	1	-4
638.201	1	4
638.370	1	2
638.540	1	2
638.710	1	5
638.879	1	-14
639.049	1	-2
639.218	1	1
639.388	1	-6
639.557	1	0
639.727	1	1
639.896	1	-1
640.066	1	-2
640.235	1	4
640.405	1	-3
640.574	1	1
640.744	1	-7
640.914	1	-11
641.083	1	2
641.253	1	-13
641.422	1	1
641.592	1	7
641.761	1	-2
641.931	1	-2
642.100	1	20
642.270	1	-9
642.439	1	6
642.609	1	1
642.778	1	-12
642.948	1	1
643.117	1	3
643.287	1	3
643.456	1	-4
643.626	1	3
643.795	1	0
643.965	1	-2
644.134	1	-5
644.304	1	-2
644.473	1	3
644.643	1	5
644.812	1	7
644.982	1	13
645.151	1	0
645.321	1	-7
645.490	1	8
645.660	1	-9
645.829	1	-4
645.999	1	-4
646.168	1	11
646.338	1	3
646.507	1	2
646.677	1	1
646.846	1	11
647.016	1	-10
647.185	1	7
647.355	1	-18
647.524	1	0
647.694	1	4
647.863	1	3
648.033	1	-10
648.202	1	5
648.372	1	-7
648.541	1	0
648.711	1	-5
648.880	1	-8
649.050	1	-11
649.219	1	4
649.389	1	0
649.558	1	1
649.728	1	0
649.897	1	-15
650.067	1	0
650.236	1	-4
650.406	1	2
650.575	1	-5
650.745	1	-4
650.914	1	7
651.084	1	-12
651.253	1	0
651.423	1	-5
651.592	1	0
651.762	1	-9
651.931	1	5
652.101	1	0
652.270	1	4
652.440	1	5
652.609	1	-7
652.778	1	-6
652.948	1	-3
653.117	1	7
653.287	1	-2
653.456	1	0
653.626	1	11
653.795	1	-2
653.965	1	-2
654.134	1	7
654.304	1	-19
654.473	1	6
654.643	1	3
654.812	1	-6
654.982	1	-3
655.151	1	2
655.320	1	-2
655.490	1	0
655.659	1	-2
655.829	1	-3
655.998	1	-8
656.168	1	-2
656.337	1	4
656.507	1	1
656.676	1	8
656.846	1	5
657.015	1	16
657.184	1	10
657.354	1	4
657.523	1	-7
657.693	1	0
657.862	1	3
658.032	1	-5
658.201	1	-2
658.371	1	6
658.540	1	-8
658.709	1	-6
658.879	1	4
659.048	1	-7
659.218	1	-2
659.387	1	2
659.557	1	-1
659.726	1	2
659.895	1	0
660.065	1	-11
660.234	1	-10
660.404	1	-1
660.573	1	-2
660.743	1	-8
660.912	1	-6
661.081	1	0
661.251	1	1
661.420	1	-6
661.590	1	2
661.759	1	1
661.929	1	9
662.098	1	12
662.267	1	-3
662.437	1	1
662.606	1	-6
662.776	1	3
662.945	1	-11
663.115	1	1
663.284	1	-6
663.453	1	-4
663.623	1	6
663.792	1	3
663.962	1	-4
664.131	1	3
664.300	1	9
664.470	1	-5
664.639	1	1
664.809	1	-2
664.978	1	8
665.148	1	2
665.317	1	-13
665.486	1	8
665.656	1	-6
665.825	1	10
665.995	1	-15
666.164	1	-2
666.333	1	-5
666.503	1	-4
666.672	1	-11
666.842	1	-5
667.011	1	-1
667.180	1	3
667.350	1	-4
667.519	1	9
667.689	1	-1
667.858	1	-4
668.027	1	12
668.197	1	1
668.366	1	-10
668.536	1	1
668.705	1	6
668.874	1	-3
669.044	1	5
669.213	1	4
669.382	1	-6
669.552	1	7
669.721	1	2
669.891	1	0
670.060	1	2
670.229	1	19
670.399	1	2
670.568	1	17
670.738	1	7
670.907	1	-6
671.076	1	-10
671.246	1	-7
671.415	1	7
671.584	1	-7
671.754	1	-9
671.923	1	-4
672.093	1	-4
672.262	1	-6
672.431	1	-2
672.601	1	-1
672.770	1	-5
672.939	1	3
673.109	1	-8
673.278	1	2
673.448	1	0
673.617	1	5
673.786	1	4
