325.333	1	10
325.504	1	9
325.675	1	2
325.846	1	-5
326.017	1	-6
326.188	1	8
326.359	1	-4
326.531	1	-13
326.702	1	-5
326.873	1	4
327.044	1	-1
327.215	1	0
327.386	1	9
327.557	1	-5
327.728	1	0
327.899	1	1
328.070	1	12
328.241	1	3
328.412	1	-4
328.583	1	13
328.754	1	5
328.926	1	5
329.097	1	-3
329.268	1	6
329.439	1	-5
329.610	1	4
329.781	1	-4
329.952	1	12
330.123	1	2
330.294	1	3
330.465	1	3
330.636	1	1
330.807	1	1
330.978	1	-1
331.149	1	-7
331.320	1	-1
331.492	1	4
331.663	1	8
331.834	1	9
332.005	1	9
332.176	1	11
332.347	1	10
332.518	1	-5
332.689	1	7
332.860	1	7
333.031	1	13
333.202	1	-2
333.373	1	6
333.544	1	4
333.715	1	1
333.886	1	-1
334.057	1	11
334.228	1	-5
334.399	1	-6
334.570	1	6
334.741	1	-2
334.912	1	4
335.084	1	16
335.255	1	1
335.426	1	-5
335.597	1	4
335.768	1	7
335.939	1	9
336.110	1	-4
336.281	1	-8
336.452	1	4
336.623	1	9
336.794	1	10
336.965	1	5
337.136	1	8
337.307	1	8
337.478	1	-1
337.649	1	10
337.820	1	5
337.991	1	-1
338.162	1	3
338.333	1	1
338.504	1	0
338.675	1	7
338.846	1	2
339.017	1	7
339.188	1	2
339.359	1	4
339.530	1	6
339.701	1	7
339.872	1	13
340.043	1	-2
340.214	1	3
340.385	1	13
340.556	1	-6
340.727	1	4
340.898	1	9
341.069	1	2
341.240	1	5
341.411	1	5
341.582	1	7
341.753	1	-4
341.924	1	4
342.095	1	0
342.266	1	19
342.437	1	5
342.608	1	1
342.779	1	11
342.950	1	13
343.121	1	12
343.292	1	-5
343.463	1	4
343.634	1	4
343.805	1	13
343.976	1	2
344.147	1	1
344.318	1	-2
344.489	1	5
344.660	1	8
344.831	1	8
345.002	1	0
345.173	1	17
345.344	1	2
345.515	1	5
345.686	1	3
345.857	1	7
346.028	1	3
346.199	1	-12
346.370	1	1
346.541	1	5
346.712	1	5
346.883	1	2
347.054	1	-1
347.225	1	4
347.396	1	8
347.567	1	1
347.738	1	2
347.909	1	12
348.080	1	0
348.251	1	20
348.422	1	8
348.593	1	4
348.764	1	5
348.935	1	6
349.106	1	-1
349.277	1	-2
349.448	1	1
349.619	1	11
349.790	1	-1
349.961	1	14
350.132	1	3
350.303	1	14
350.474	1	19
350.645	1	5
350.816	1	6
350.987	1	11
351.157	1	-6
351.328	1	22
351.499	1	12
351.670	1	1
351.841	1	10
352.012	1	17
352.183	1	15
352.354	1	6
352.525	1	18
352.696	1	12
352.867	1	7
353.038	1	15
353.209	1	16
353.380	1	9
353.551	1	-5
353.722	1	2
353.893	1	1
354.064	1	15
354.235	1	4
354.406	1	-4
354.576	1	9
354.747	1	7
354.918	1	11
355.089	1	14
355.260	1	12
355.431	1	6
355.602	1	-1
355.773	1	8
355.944	1	4
356.115	1	11
356.286	1	9
356.457	1	10
356.628	1	-2
356.799	1	15
356.970	1	10
357.141	1	12
357.311	1	14
357.482	1	6
357.653	1	12
357.824	1	15
357.995	1	12
358.166	1	-2
358.337	1	3
358.508	1	8
358.679	1	6
358.850	1	10
359.021	1	-4
359.192	1	10
359.363	1	3
359.533	1	6
359.704	1	3
359.875	1	3
360.046	1	-1
360.217	1	4
360.388	1	11
360.559	1	7
360.730	1	3
360.901	1	6
361.072	1	22
361.243	1	15
361.414	1	14
361.584	1	0
361.755	1	9
361.926	1	6
362.097	1	5
362.268	1	16
362.439	1	-8
362.610	1	15
362.781	1	9
362.952	1	9
363.123	1	8
363.293	1	1
363.464	1	12
363.635	1	10
363.806	1	10
363.977	1	8
364.148	1	10
364.319	1	10
364.490	1	10
364.661	1	8
364.832	1	16
365.002	1	13
365.173	1	12
365.344	1	11
365.515	1	2
365.686	1	6
365.857	1	7
366.028	1	21
366.199	1	8
366.370	1	7
366.540	1	6
366.711	1	-6
366.882	1	6
367.053	1	2
367.224	1	20
367.395	1	3
367.566	1	7
367.737	1	21
367.908	1	12
368.078	1	10
368.249	1	3
368.420	1	2
368.591	1	-1
368.762	1	15
368.933	1	8
369.104	1	2
369.274	1	14
369.445	1	13
369.616	1	10
369.787	1	16
369.958	1	13
370.129	1	-1
370.300	1	10
370.471	1	7
370.641	1	14
370.812	1	9
370.983	1	8
371.154	1	5
371.325	1	21
371.496	1	7
371.667	1	9
371.837	1	4
372.008	1	17
372.179	1	1
372.350	1	18
372.521	1	10
372.692	1	0
372.863	1	16
373.033	1	7
373.204	1	5
373.375	1	13
373.546	1	19
373.717	1	13
373.888	1	16
374.059	1	14
374.229	1	16
374.400	1	1
374.571	1	10
374.742	1	19
374.913	1	9
375.084	1	1
375.254	1	8
375.425	1	8
375.596	1	9
375.767	1	10
375.938	1	7
376.109	1	12
376.279	1	3
376.450	1	6
376.621	1	11
376.792	1	12
376.963	1	9
377.134	1	14
377.304	1	15
377.475	1	5
377.646	1	12
377.817	1	7
377.988	1	1
378.159	1	1
378.329	1	14
378.500	1	6
378.671	1	13
378.842	1	6
379.013	1	3
379.184	1	4
379.354	1	21
379.525	1	9
379.696	1	15
379.867	1	16
380.038	1	11
380.209	1	5
380.379	1	-1
380.550	1	3
380.721	1	12
380.892	1	14
381.063	1	15
381.233	1	21
381.404	1	2
381.575	1	23
381.746	1	9
381.917	1	9
382.087	1	13
382.258	1	7
382.429	1	15
382.600	1	17
382.771	1	7
382.941	1	8
383.112	1	6
383.283	1	14
383.454	1	6
383.625	1	4
383.795	1	6
383.966	1	15
384.137	1	16
384.308	1	24
384.479	1	17
384.649	1	11
384.820	1	10
384.991	1	11
385.162	1	5
385.333	1	1
385.503	1	7
385.674	1	4
385.845	1	26
386.016	1	10
386.187	1	8
386.357	1	15
386.528	1	21
386.699	1	7
386.870	1	14
387.041	1	21
387.211	1	8
387.382	1	14
387.553	1	18
387.724	1	6
387.894	1	16
388.065	1	13
388.236	1	16
388.407	1	9
388.578	1	14
388.748	1	2
388.919	1	21
389.090	1	5
389.261	1	16
389.431	1	18
389.602	1	11
389.773	1	15
389.944	1	9
390.114	1	8
390.285	1	11
390.456	1	6
390.627	1	9
390.798	1	13
390.968	1	15
391.139	1	12
391.310	1	14
391.481	1	11
391.651	1	9
391.822	1	14
391.993	1	8
392.164	1	0
392.334	1	21
392.505	1	10
392.676	1	22
392.847	1	15
393.017	1	21
393.188	1	12
393.359	1	13
393.530	1	1
393.700	1	18
393.871	1	3
394.042	1	8
394.213	1	10
394.383	1	10
394.554	1	21
394.725	1	19
394.896	1	11
395.066	1	13
395.237	1	15
395.408	1	2
395.579	1	11
395.749	1	13
395.920	1	13
396.091	1	11
396.262	1	10
396.432	1	18
396.603	1	27
396.774	1	18
396.945	1	13
397.115	1	12
397.286	1	9
397.457	1	10
397.627	1	19
397.798	1	12
397.969	1	6
398.140	1	13
398.310	1	13
398.481	1	19
398.652	1	19
398.823	1	6
398.993	1	15
399.164	1	4
399.335	1	17
399.505	1	15
399.676	1	12
399.847	1	22
400.018	1	9
400.188	1	14
400.359	1	15
400.530	1	10
400.700	1	13
400.871	1	0
401.042	1	20
401.213	1	12
401.383	1	20
401.554	1	20
401.725	1	20
401.895	1	6
402.066	1	23
402.237	1	21
402.408	1	27
402.578	1	23
402.749	1	14
402.920	1	12
403.090	1	12
403.261	1	14
403.432	1	6
403.603	1	18
403.773	1	24
403.944	1	21
404.115	1	17
404.285	1	21
404.456	1	15
404.627	1	4
404.797	1	10
404.968	1	10
405.139	1	10
405.310	1	26
405.480	1	14
405.651	1	5
405.822	1	18
405.992	1	6
406.163	1	16
406.334	1	2
406.504	1	7
406.675	1	21
406.846	1	19
407.016	1	16
407.187	1	21
407.358	1	0
407.528	1	-1
407.699	1	8
407.870	1	10
408.041	1	8
408.211	1	24
408.382	1	6
408.553	1	15
408.723	1	18
408.894	1	11
409.065	1	23
409.235	1	9
409.406	1	3
409.577	1	7
409.747	1	25
409.918	1	3
410.089	1	10
410.259	1	17
410.430	1	15
410.601	1	21
410.771	1	17
410.942	1	28
411.113	1	5
411.283	1	13
411.454	1	17
411.625	1	18
411.795	1	21
411.966	1	17
412.137	1	15
412.307	1	9
412.478	1	14
412.649	1	20
412.819	1	16
412.990	1	13
413.161	1	18
413.331	1	3
413.502	1	20
413.672	1	19
413.843	1	4
414.014	1	19
414.184	1	13
414.355	1	14
414.526	1	6
414.696	1	21
414.867	1	24
415.038	1	4
415.208	1	9
415.379	1	23
415.550	1	19
415.720	1	8
415.891	1	13
416.062	1	7
416.232	1	12
416.403	1	10
416.573	1	14
416.744	1	14
416.915	1	15
417.085	1	21
417.256	1	13
417.427	1	12
417.597	1	9
417.768	1	7
417.939	1	15
418.109	1	18
418.280	1	17
418.450	1	9
418.621	1	10
418.792	1	19
418.962	1	8
419.133	1	27
419.304	1	13
419.474	1	8
419.645	1	14
419.815	1	5
419.986	1	24
420.157	1	16
420.327	1	21
420.498	1	24
420.669	1	12
420.839	1	25
421.010	1	20
421.180	1	22
421.351	1	12
421.522	1	11
421.692	1	24
421.863	1	15
422.033	1	11
422.204	1	11
422.375	1	0
422.545	1	23
422.716	1	5
422.886	1	12
423.057	1	18
423.228	1	14
423.398	1	13
423.569	1	7
423.740	1	4
423.910	1	5
424.081	1	6
424.251	1	8
424.422	1	17
424.593	1	5
424.763	1	13
424.934	1	9
425.104	1	16
425.275	1	10
425.445	1	16
425.616	1	10
425.787	1	3
425.957	1	21
426.128	1	17
426.298	1	13
426.469	1	4
426.640	1	10
426.810	1	21
426.981	1	13
427.151	1	8
427.322	1	16
427.493	1	17
427.663	1	17
427.834	1	16
428.004	1	18
428.175	1	22
428.345	1	5
428.516	1	5
428.687	1	11
428.857	1	4
429.028	1	12
429.198	1	20
429.369	1	20
429.540	1	15
429.710	1	6
429.881	1	17
430.051	1	10
430.222	1	13
430.392	1	16
430.563	1	14
430.734	1	23
430.904	1	22
431.075	1	17
431.245	1	4
431.416	1	18
431.586	1	9
431.757	1	14
431.927	1	22
432.098	1	19
432.269	1	9
432.439	1	17
432.610	1	14
432.780	1	20
432.951	1	14
433.121	1	9
433.292	1	23
433.462	1	17
433.633	1	20
433.804	1	14
433.974	1	15
434.145	1	21
434.315	1	4
434.486	1	1
434.656	1	9
434.827	1	11
434.997	1	7
435.168	1	19
435.339	1	15
435.509	1	10
435.680	1	21
435.850	1	7
436.021	1	6
436.191	1	10
436.362	1	16
436.532	1	19
436.703	1	9
436.873	1	10
437.044	1	3
437.214	1	6
437.385	1	3
437.556	1	7
437.726	1	25
437.897	1	22
438.067	1	9
438.238	1	14
438.408	1	14
438.579	1	8
438.749	1	2
438.920	1	2
439.090	1	13
439.261	1	10
439.431	1	8
439.602	1	9
439.772	1	11
439.943	1	23
440.113	1	16
440.284	1	6
440.455	1	3
440.625	1	13
440.796	1	8
440.966	1	6
441.137	1	9
441.307	1	7
441.478	1	20
441.648	1	12
441.819	1	14
441.989	1	4
442.160	1	11
442.330	1	11
442.501	1	17
442.671	1	4
442.842	1	-1
443.012	1	5
443.183	1	21
443.353	1	0
443.524	1	11
443.694	1	15
443.865	1	14
444.035	1	17
444.206	1	14
444.376	1	6
444.547	1	28
444.717	1	15
444.888	1	5
445.058	1	14
445.229	1	19
445.399	1	9
445.570	1	16
445.740	1	1
445.911	1	2
446.081	1	0
446.252	1	15
446.422	1	10
446.593	1	3
446.763	1	3
446.934	1	3
447.104	1	12
447.275	1	10
447.445	1	15
447.616	1	11
447.786	1	8
447.957	1	10
448.127	1	15
448.298	1	20
448.468	1	-2
448.639	1	8
448.809	1	6
448.979	1	4
449.150	1	21
449.320	1	20
449.491	1	13
449.661	1	11
449.832	1	2
450.002	1	18
450.173	1	12
450.343	1	2
450.514	1	11
450.684	1	1
450.855	1	13
451.025	1	17
451.196	1	17
451.366	1	13
451.537	1	15
451.707	1	7
451.878	1	-2
452.048	1	11
452.218	1	16
452.389	1	22
452.559	1	8
452.730	1	12
452.900	1	11
453.071	1	-3
453.241	1	14
453.412	1	1
453.582	1	7
453.753	1	21
453.923	1	12
454.093	1	16
454.264	1	28
454.434	1	11
454.605	1	4
454.775	1	17
454.946	1	11
455.116	1	12
455.287	1	-8
455.457	1	6
455.628	1	2
455.798	1	15
455.968	1	15
456.139	1	11
456.309	1	7
456.480	1	8
456.650	1	9
456.821	1	7
456.991	1	2
457.161	1	8
457.332	1	20
457.502	1	5
457.673	1	15
457.843	1	9
458.014	1	11
458.184	1	6
458.355	1	10
458.525	1	7
458.695	1	13
458.866	1	8
459.036	1	20
459.207	1	6
459.377	1	4
459.548	1	14
459.718	1	9
459.888	1	14
460.059	1	18
460.229	1	15
460.400	1	9
460.570	1	10
460.740	1	-4
460.911	1	13
461.081	1	7
461.252	1	0
461.422	1	4
461.593	1	15
461.763	1	10
461.933	1	13
462.104	1	5
462.274	1	12
462.445	1	0
462.615	1	3
462.785	1	7
462.956	1	12
463.126	1	12
463.297	1	6
463.467	1	14
463.638	1	12
463.808	1	6
463.978	1	1
464.149	1	7
464.319	1	8
464.490	1	26
464.660	1	0
464.830	1	11
465.001	1	7
465.171	1	19
465.342	1	17
465.512	1	7
465.682	1	5
465.853	1	8
466.023	1	8
466.194	1	-4
466.364	1	18
466.534	1	8
466.705	1	12
466.875	1	6
467.045	1	13
467.216	1	11
467.386	1	5
467.557	1	2
467.727	1	5
467.897	1	6
468.068	1	2
468.238	1	13
468.409	1	5
468.579	1	20
468.749	1	7
468.920	1	0
469.090	1	2
469.260	1	4
469.431	1	7
469.601	1	10
469.772	1	7
469.942	1	-2
470.112	1	18
470.283	1	12
470.453	1	6
470.623	1	7
470.794	1	-9
470.964	1	6
471.135	1	11
471.305	1	0
471.475	1	11
471.646	1	0
471.816	1	3
471.986	1	10
472.157	1	12
472.327	1	-1
472.497	1	4
472.668	1	-2
472.838	1	6
473.009	1	5
473.179	1	-12
473.349	1	-2
473.520	1	9
473.690	1	11
473.860	1	2
474.031	1	12
474.201	1	9
474.371	1	16
474.542	1	7
474.712	1	11
474.882	1	10
475.053	1	18
475.223	1	-1
475.394	1	15
475.564	1	6
475.734	1	12
475.905	1	14
476.075	1	5
476.245	1	7
476.416	1	17
476.586	1	11
476.756	1	7
476.927	1	10
477.097	1	4
477.267	1	5
477.438	1	6
477.608	1	10
477.778	1	8
477.949	1	14
478.119	1	6
478.289	1	11
478.460	1	13
478.630	1	13
478.800	1	11
478.971	1	10
479.141	1	3
479.311	1	0
479.482	1	-3
479.652	1	1
479.822	1	4
479.993	1	11
480.163	1	13
480.333	1	16
480.504	1	9
480.674	1	7
480.844	1	4
481.015	1	9
481.185	1	-1
481.355	1	11
481.525	1	-2
481.696	1	-1
481.866	1	5
482.036	1	6
482.207	1	3
482.377	1	10
482.547	1	14
482.718	1	2
482.888	1	9
483.058	1	8
483.229	1	9
483.399	1	3
483.569	1	4
483.740	1	10
483.910	1	17
484.080	1	7
484.250	1	12
484.421	1	7
484.591	1	9
484.761	1	13
484.932	1	5
485.102	1	13
485.272	1	3
485.443	1	15
485.613	1	6
485.783	1	2
485.953	1	3
486.124	1	15
486.294	1	8
486.464	1	12
486.635	1	8
486.805	1	7
486.975	1	16
487.146	1	12
487.316	1	5
487.486	1	16
487.656	1	5
487.827	1	8
487.997	1	1
488.167	1	3
488.338	1	9
488.508	1	4
488.678	1	3
488.848	1	10
489.019	1	3
489.189	1	9
489.359	1	-1
489.529	1	8
489.700	1	3
489.870	1	26
490.040	1	4
490.211	1	3
490.381	1	7
490.551	1	11
490.721	1	8
490.892	1	11
491.062	1	12
491.232	1	7
491.402	1	-2
491.573	1	-2
491.743	1	2
491.913	1	-1
492.084	1	12
492.254	1	-3
492.424	1	-2
492.594	1	14
492.765	1	6
492.935	1	-3
493.105	1	4
493.275	1	5
493.446	1	18
493.616	1	13
493.786	1	0
493.956	1	4
494.127	1	5
494.297	1	6
494.467	1	7
494.637	1	6
494.808	1	-5
494.978	1	-5
495.148	1	10
495.318	1	-8
495.489	1	6
495.659	1	6
495.829	1	7
495.999	1	10
496.170	1	11
496.340	1	9
496.510	1	6
496.680	1	1
496.851	1	-6
497.021	1	-3
497.191	1	-3
497.361	1	7
497.532	1	3
497.702	1	0
497.872	1	7
498.042	1	7
498.213	1	6
498.383	1	7
498.553	1	4
498.723	1	1
498.894	1	8
499.064	1	10
499.234	1	7
499.404	1	10
499.574	1	10
499.745	1	14
499.915	1	-8
500.085	1	11
500.255	1	5
500.426	1	11
500.596	1	7
500.766	1	11
500.936	1	10
501.106	1	-2
501.277	1	10
501.447	1	-1
501.617	1	1
501.787	1	3
501.958	1	8
502.128	1	10
502.298	1	1
502.468	1	10
502.638	1	3
502.809	1	8
502.979	1	3
503.149	1	-4
503.319	1	-3
503.489	1	-2
503.660	1	5
503.830	1	6
504.000	1	21
504.170	1	2
504.340	1	8
504.511	1	13
504.681	1	0
504.851	1	10
505.021	1	9
505.192	1	5
505.362	1	10
505.532	1	0
505.702	1	-5
505.872	1	0
506.043	1	7
506.213	1	-5
506.383	1	9
506.553	1	13
506.723	1	4
506.893	1	8
507.064	1	15
507.234	1	-1
507.404	1	1
507.574	1	3
507.744	1	3
507.915	1	8
508.085	1	12
508.255	1	10
508.425	1	3
508.595	1	7
508.766	1	19
508.936	1	-2
509.106	1	6
509.276	1	8
509.446	1	-2
509.616	1	-3
509.787	1	5
509.957	1	3
510.127	1	10
510.297	1	2
510.467	1	-3
510.638	1	-4
510.808	1	4
510.978	1	2
511.148	1	7
511.318	1	-2
511.488	1	-4
511.659	1	4
511.829	1	8
511.999	1	2
512.169	1	3
512.339	1	-7
512.509	1	0
512.680	1	-7
512.850	1	3
513.020	1	7
513.190	1	3
513.360	1	-3
513.530	1	-3
513.700	1	12
513.871	1	5
514.041	1	-1
514.211	1	12
514.381	1	6
514.551	1	8
514.721	1	2
514.892	1	7
515.062	1	2
515.232	1	-2
515.402	1	0
515.572	1	1
515.742	1	6
515.912	1	4
516.083	1	2
516.253	1	12
516.423	1	5
516.593	1	4
516.763	1	18
516.933	1	3
517.104	1	7
517.274	1	4
517.444	1	4
517.614	1	-1
517.784	1	10
517.954	1	5
518.124	1	4
518.294	1	-7
518.465	1	1
518.635	1	1
518.805	1	-10
518.975	1	-1
519.145	1	-1
519.315	1	6
519.485	1	-2
519.656	1	14
519.826	1	8
519.996	1	-3
520.166	1	5
520.336	1	10
520.506	1	5
520.676	1	-9
520.846	1	18
521.017	1	-2
521.187	1	-7
521.357	1	11
521.527	1	-9
521.697	1	-1
521.867	1	-3
522.037	1	8
522.207	1	7
522.377	1	6
522.548	1	12
522.718	1	4
522.888	1	20
523.058	1	-3
523.228	1	10
523.398	1	-1
523.568	1	6
523.738	1	6
523.909	1	4
524.079	1	9
524.249	1	-5
524.419	1	17
524.589	1	0
524.759	1	-6
524.929	1	-3
525.099	1	5
525.269	1	3
525.439	1	6
525.610	1	14
525.780	1	1
525.950	1	-4
526.120	1	3
526.290	1	0
526.460	1	-4
526.630	1	7
526.800	1	2
526.970	1	6
527.140	1	7
527.311	1	-6
527.481	1	-1
527.651	1	-5
527.821	1	-5
527.991	1	13
528.161	1	13
528.331	1	-4
528.501	1	15
528.671	1	-9
528.841	1	0
529.011	1	-1
529.181	1	5
529.352	1	7
529.522	1	-7
529.692	1	7
529.862	1	-4
530.032	1	12
530.202	1	-3
530.372	1	2
530.542	1	4
530.712	1	-3
530.882	1	4
531.052	1	13
531.222	1	8
531.392	1	10
531.563	1	1
531.733	1	6
531.903	1	-5
532.073	1	2
532.243	1	4
532.413	1	5
532.583	1	1
532.753	1	6
532.923	1	-1
533.093	1	7
533.263	1	1
533.433	1	14
533.603	1	-6
533.773	1	-2
533.943	1	-3
534.113	1	8
534.284	1	3
534.454	1	5
534.624	1	15
534.794	1	-9
534.964	1	6
535.134	1	-3
535.304	1	4
535.474	1	13
535.644	1	8
535.814	1	-5
535.984	1	-8
536.154	1	0
536.324	1	-2
536.494	1	9
536.664	1	9
536.834	1	3
537.004	1	4
537.174	1	8
537.344	1	2
537.514	1	-7
537.685	1	9
537.855	1	10
538.025	1	9
538.195	1	0
538.365	1	10
538.535	1	-2
538.705	1	4
538.875	1	-4
539.045	1	2
539.215	1	4
539.385	1	-2
539.555	1	5
539.725	1	-4
539.895	1	2
540.065	1	19
540.235	1	8
540.405	1	-1
540.575	1	3
540.745	1	11
540.915	1	8
541.085	1	-1
541.255	1	-9
541.425	1	2
541.595	1	2
541.765	1	7
541.935	1	6
542.105	1	-1
542.275	1	9
542.445	1	-5
542.615	1	-4
542.785	1	6
542.955	1	0
543.125	1	0
543.295	1	2
543.465	1	11
543.635	1	2
543.805	1	15
543.975	1	5
544.145	1	8
544.315	1	2
544.485	1	8
544.655	1	-1
544.825	1	-9
544.995	1	7
545.165	1	3
545.335	1	7
545.505	1	-3
545.675	1	-4
545.845	1	3
546.015	1	10
546.185	1	8
546.355	1	4
546.525	1	10
546.695	1	3
546.865	1	2
547.035	1	3
547.205	1	-3
547.375	1	6
547.545	1	9
547.715	1	1
547.885	1	10
548.055	1	-2
548.225	1	-2
548.395	1	-6
548.565	1	9
548.735	1	-2
548.905	1	1
549.075	1	-3
549.245	1	1
549.415	1	-7
549.585	1	4
549.755	1	2
549.925	1	-2
550.095	1	0
550.265	1	2
550.435	1	-9
550.605	1	2
550.775	1	2
550.945	1	4
551.115	1	-2
551.285	1	9
551.455	1	-2
551.625	1	10
551.795	1	6
551.965	1	-2
552.135	1	-3
552.305	1	0
552.475	1	-10
552.645	1	-1
552.815	1	0
552.985	1	17
553.155	1	-4
553.325	1	12
553.495	1	-7
553.665	1	0
553.835	1	-6
554.004	1	-4
554.174	1	-2
554.344	1	-9
554.514	1	-10
554.684	1	10
554.854	1	4
555.024	1	-13
555.194	1	-10
555.364	1	10
555.534	1	3
555.704	1	-6
555.874	1	9
556.044	1	-2
556.214	1	-1
556.384	1	-3
556.554	1	9
556.724	1	7
556.894	1	3
557.064	1	0
557.234	1	5
557.404	1	9
557.573	1	3
557.743	1	2
557.913	1	1
558.083	1	5
558.253	1	7
558.423	1	5
558.593	1	12
558.763	1	3
558.933	1	3
559.103	1	6
559.273	1	2
559.443	1	1
559.613	1	4
559.783	1	-5
559.953	1	-5
560.122	1	6
560.292	1	-2
560.462	1	4
560.632	1	15
560.802	1	-1
560.972	1	3
561.142	1	-1
561.312	1	-4
561.482	1	1
561.652	1	7
561.822	1	8
561.992	1	2
562.162	1	0
562.331	1	3
562.501	1	4
562.671	1	0
562.841	1	0
563.011	1	7
563.181	1	-5
563.351	1	-5
563.521	1	5
563.691	1	-15
563.861	1	-1
564.031	1	4
564.201	1	11
564.370	1	-3
564.540	1	-1
564.710	1	-1
564.880	1	0
565.050	1	7
565.220	1	-2
565.390	1	9
565.560	1	5
565.730	1	-8
565.900	1	4
566.069	1	10
566.239	1	6
566.409	1	8
566.579	1	13
566.749	1	-1
566.919	1	10
567.089	1	-2
567.259	1	17
567.429	1	-4
567.599	1	-6
567.768	1	1
567.938	1	-1
568.108	1	1
568.278	1	9
568.448	1	-1
568.618	1	2
568.788	1	6
568.958	1	-2
569.128	1	10
569.297	1	-4
569.467	1	-1
569.637	1	4
569.807	1	1
569.977	1	14
570.147	1	6
570.317	1	-7
570.487	1	-2
570.656	1	11
570.826	1	-9
570.996	1	-5
571.166	1	11
571.336	1	1
571.506	1	15
571.676	1	7
571.846	1	8
572.015	1	4
572.185	1	-6
572.355	1	7
572.525	1	-1
572.695	1	5
572.865	1	-7
573.035	1	1
573.205	1	1
573.374	1	-6
573.544	1	3
573.714	1	8
573.884	1	10
574.054	1	1
574.224	1	3
574.394	1	-8
574.563	1	1
574.733	1	0
574.903	1	0
575.073	1	-5
575.243	1	-2
575.413	1	-1
575.583	1	-3
575.752	1	10
575.922	1	6
576.092	1	8
576.262	1	2
576.432	1	-2
576.602	1	-3
576.772	1	14
576.941	1	0
577.111	1	-13
577.281	1	-3
577.451	1	3
577.621	1	3
577.791	1	5
577.960	1	-2
578.130	1	-2
578.300	1	1
578.470	1	8
578.640	1	-2
578.810	1	1
578.979	1	10
579.149	1	-4
579.319	1	-6
579.489	1	-3
579.659	1	4
579.829	1	-3
579.998	1	10
580.168	1	8
580.338	1	-1
580.508	1	6
580.678	1	2
580.848	1	-4
581.017	1	5
581.187	1	1
581.357	1	-2
581.527	1	7
581.697	1	0
581.867	1	8
582.036	1	6
582.206	1	11
582.376	1	12
582.546	1	3
582.716	1	-6
582.885	1	-2
583.055	1	-7
583.225	1	-8
583.395	1	8
583.565	1	-7
583.735	1	0
583.904	1	15
584.074	1	14
584.244	1	6
584.414	1	2
584.584	1	-1
584.753	1	6
584.923	1	-4
585.093	1	1
585.263	1	3
585.433	1	1
585.602	1	-7
585.772	1	-3
585.942	1	-3
586.112	1	11
586.282	1	-7
586.451	1	3
586.621	1	-8
586.791	1	1
586.961	1	0
587.131	1	5
587.300	1	-9
587.470	1	10
587.640	1	8
587.810	1	-8
587.980	1	-3
588.149	1	1
588.319	1	3
588.489	1	2
588.659	1	5
588.829	1	-3
588.998	1	9
589.168	1	5
589.338	1	-5
589.508	1	5
589.677	1	0
589.847	1	-7
590.017	1	12
590.187	1	-5
590.357	1	13
590.526	1	8
590.696	1	1
590.866	1	9
591.036	1	4
591.205	1	7
591.375	1	-10
591.545	1	0
591.715	1	10
591.885	1	1
592.054	1	0
592.224	1	-2
592.394	1	-4
592.564	1	6
592.733	1	6
592.903	1	2
593.073	1	6
593.243	1	6
593.412	1	0
593.582	1	0
593.752	1	4
593.922	1	1
594.091	1	3
594.261	1	-1
594.431	1	-2
594.601	1	3
594.771	1	8
594.940	1	3
595.110	1	4
595.280	1	1
595.450	1	-5
595.619	1	-5
595.789	1	11
595.959	1	7
596.129	1	-5
596.298	1	9
596.468	1	9
596.638	1	7
596.808	1	1
596.977	1	10
597.147	1	4
597.317	1	-2
597.487	1	9
597.656	1	12
597.826	1	11
597.996	1	2
598.166	1	-4
598.335	1	-12
598.505	1	6
598.675	1	-3
598.844	1	0
599.014	1	-2
599.184	1	3
599.354	1	3
599.523	1	5
599.693	1	0
599.863	1	1
600.033	1	8
600.202	1	1
600.372	1	3
600.542	1	13
600.712	1	-2
600.881	1	-4
601.051	1	16
601.221	1	4
601.390	1	-13
601.560	1	6
601.730	1	7
601.900	1	-3
602.069	1	6
602.239	1	-1
602.409	1	-3
602.578	1	5
602.748	1	6
602.918	1	3
603.088	1	4
603.257	1	6
603.427	1	-4
603.597	1	-4
603.767	1	4
603.936	1	8
604.106	1	7
604.276	1	3
604.445	1	6
604.615	1	-2
604.785	1	-7
604.954	1	9
605.124	1	3
605.294	1	0
605.464	1	4
605.633	1	-2
605.803	1	6
605.973	1	-2
606.142	1	0
606.312	1	11
606.482	1	-1
606.652	1	5
606.821	1	-5
606.991	1	-2
607.161	1	0
607.330	1	11
607.500	1	4
607.670	1	2
607.839	1	9
608.009	1	12
608.179	1	-2
608.348	1	2
608.518	1	2
608.688	1	4
608.858	1	-4
609.027	1	-9
609.197	1	-1
609.367	1	8
609.536	1	6
609.706	1	-6
609.876	1	4
610.045	1	-9
610.215	1	0
610.385	1	7
610.554	1	7
610.724	1	14
610.894	1	5
611.063	1	9
611.233	1	-3
611.403	1	-2
611.572	1	2
611.742	1	2
611.912	1	6
612.081	1	-5
612.251	1	10
612.421	1	1
612.590	1	4
612.760	1	6
612.930	1	-3
613.099	1	-2
613.269	1	7
613.439	1	-7
613.608	1	-1
613.778	1	0
613.948	1	-11
614.117	1	-1
614.287	1	5
614.457	1	7
614.626	1	2
614.796	1	10
614.966	1	-11
615.135	1	2
615.305	1	20
615.475	1	2
615.644	1	4
615.814	1	2
615.984	1	-6
616.153	1	-3
616.323	1	2
616.493	1	2
616.662	1	9
616.832	1	-4
617.002	1	-7
617.171	1	-3
617.341	1	0
617.511	1	-5
617.680	1	-12
617.850	1	5
618.019	1	9
618.189	1	11
618.359	1	8
618.528	1	-7
618.698	1	0
618.868	1	-5
619.037	1	3
619.207	1	-3
619.377	1	-4
619.546	1	2
619.716	1	8
619.885	1	-5
620.055	1	-8
620.225	1	6
620.394	1	-9
620.564	1	17
620.734	1	12
620.903	1	-2
621.073	1	10
621.242	1	1
621.412	1	5
621.582	1	-1
621.751	1	16
621.921	1	8
622.091	1	-4
622.260	1	-7
622.430	1	7
622.599	1	3
622.769	1	-3
622.939	1	11
623.108	1	-6
623.278	1	-10
623.448	1	0
623.617	1	-4
623.787	1	0
623.956	1	3
624.126	1	0
624.296	1	7
624.465	1	2
624.635	1	3
624.804	1	-4
624.974	1	12
625.144	1	3
625.313	1	-1
625.483	1	-3
625.652	1	-11
625.822	1	2
625.992	1	-4
626.161	1	-1
626.331	1	-1
626.501	1	-2
626.670	1	7
626.840	1	3
627.009	1	-2
627.179	1	0
627.348	1	2
627.518	1	1
627.688	1	5
627.857	1	1
628.027	1	0
628.196	1	4
628.366	1	11
628.536	1	4
628.705	1	2
628.875	1	-6
629.044	1	2
629.214	1	6
629.384	1	-1
629.553	1	8
629.723	1	6
629.892	1	-2
630.062	1	9
630.232	1	-1
630.401	1	-5
630.571	1	16
630.740	1	4
630.910	1	1
631.079	1	-1
631.249	1	13
631.419	1	6
631.588	1	-12
631.758	1	0
631.927	1	0
632.097	1	-4
632.266	1	2
632.436	1	0
632.606	1	-3
632.775	1	9
632.945	1	1
633.114	1	9
633.284	1	3
633.453	1	2
633.623	1	-1
633.793	1	2
633.962	1	-1
634.132	1	-1
634.301	1	-3
634.471	1	3
634.640	1	11
634.810	1	-5
634.979	1	5
635.149	1	4
635.319	1	0
635.488	1	5
635.658	1	3
635.827	1	-6
635.997	1	0
636.166	1	2
636.336	1	-1
636.505	1	4
636.675	1	2
636.845	1	14
637.014	1	4
637.184	1	0
637.353	1	2
637.523	1	2
637.692	1	5
637.862	1	2
638.031	1	0
638.201	1	-2
638.370	1	10
638.540	1	-1
638.710	1	-4
638.879	1	-7
639.049	1	7
639.218	1	1
639.388	1	1
639.557	1	-3
639.727	1	-1
639.896	1	-2
640.066	1	1
640.235	1	7
640.405	1	9
640.574	1	4
640.744	1	-11
640.914	1	6
641.083	1	-3
641.253	1	-7
641.422	1	9
641.592	1	10
641.761	1	-6
641.931	1	-2
642.100	1	18
642.270	1	-13
642.439	1	5
642.609	1	6
642.778	1	1
642.948	1	0
643.117	1	11
643.287	1	3
643.456	1	-2
643.626	1	11
643.795	1	9
643.965	1	8
644.134	1	1
644.304	1	-4
644.473	1	6
644.643	1	9
644.812	1	15
644.982	1	2
645.151	1	2
645.321	1	-2
645.490	1	12
645.660	1	-7
645.829	1	7
645.999	1	4
646.168	1	13
646.338	1	9
646.507	1	2
646.677	1	8
646.846	1	-4
647.016	1	-4
647.185	1	6
647.355	1	-12
647.524	1	2
647.694	1	15
647.863	1	0
648.033	1	2
648.202	1	11
648.372	1	-2
648.541	1	2
648.711	1	-3
648.880	1	1
649.050	1	-12
649.219	1	9
649.389	1	6
649.558	1	8
649.728	1	7
649.897	1	-7
650.067	1	3
650.236	1	3
650.406	1	8
650.575	1	11
650.745	1	6
650.914	1	-7
651.084	1	-4
651.253	1	2
651.423	1	-3
651.592	1	-3
651.762	1	-1
651.931	1	17
652.101	1	7
652.270	1	7
652.440	1	5
652.609	1	-5
652.778	1	-6
652.948	1	7
653.117	1	1
653.287	1	5
653.456	1	5
653.626	1	10
653.795	1	-4
653.965	1	12
654.134	1	5
654.304	1	-11
654.473	1	4
654.643	1	13
654.812	1	2
654.982	1	6
655.151	1	-1
655.320	1	6
655.490	1	-2
655.659	1	3
655.829	1	-1
655.998	1	-4
656.168	1	2
656.337	1	8
656.507	1	15
656.676	1	6
656.846	1	5
657.015	1	3
657.184	1	6
657.354	1	6
657.523	1	3
657.693	1	13
657.862	1	-1
658.032	1	4
658.201	1	7
658.371	1	5
658.540	1	4
658.709	1	1
658.879	1	7
659.048	1	2
659.218	1	-8
659.387	1	1
659.557	1	5
659.726	1	6
659.895	1	1
660.065	1	1
660.234	1	-5
660.404	1	3
660.573	1	-4
660.743	1	4
660.912	1	-5
661.081	1	7
661.251	1	1
661.420	1	4
661.590	1	6
661.759	1	10
661.929	1	10
662.098	1	8
662.267	1	6
662.437	1	9
662.606	1	1
662.776	1	8
662.945	1	0
663.115	1	2
663.284	1	2
663.453	1	11
663.623	1	-4
663.792	1	9
663.962	1	-1
664.131	1	1
664.300	1	14
664.470	1	2
664.639	1	-2
664.809	1	4
664.978	1	5
665.148	1	-1
665.317	1	-1
665.486	1	18
665.656	1	0
665.825	1	5
665.995	1	-1
666.164	1	0
666.333	1	5
666.503	1	-1
666.672	1	3
666.842	1	5
667.011	1	-4
667.180	1	8
667.350	1	-2
667.519	1	10
667.689	1	11
667.858	1	6
668.027	1	6
668.197	1	1
668.366	1	-5
668.536	1	6
668.705	1	-1
668.874	1	7
669.044	1	11
669.213	1	9
669.382	1	-9
669.552	1	9
669.721	1	7
669.891	1	11
670.060	1	6
670.229	1	17
670.399	1	-2
670.568	1	19
670.738	1	12
670.907	1	3
671.076	1	2
671.246	1	3
671.415	1	-3
671.584	1	1
671.754	1	7
671.923	1	-2
672.093	1	4
672.262	1	-8
672.431	1	10
672.601	1	3
672.770	1	-10
672.939	1	5
673.109	1	-7
673.278	1	5
673.448	1	7
673.617	1	1
673.786	1	10
