325.333	1	12
325.504	1	5
325.675	1	6
325.846	1	11
326.017	1	5
326.188	1	14
326.359	1	1
326.531	1	-6
326.702	1	-3
326.873	1	20
327.044	1	1
327.215	1	1
327.386	1	12
327.557	1	-1
327.728	1	12
327.899	1	6
328.070	1	19
328.241	1	19
328.412	1	-4
328.583	1	12
328.754	1	3
328.926	1	16
329.097	1	-8
329.268	1	21
329.439	1	10
329.610	1	9
329.781	1	-3
329.952	1	11
330.123	1	14
330.294	1	-1
330.465	1	10
330.636	1	16
330.807	1	11
330.978	1	4
331.149	1	12
331.320	1	12
331.492	1	12
331.663	1	12
331.834	1	20
332.005	1	11
332.176	1	22
332.347	1	13
332.518	1	4
332.689	1	15
332.860	1	5
333.031	1	20
333.202	1	-3
333.373	1	14
333.544	1	4
333.715	1	15
333.886	1	2
334.057	1	15
334.228	1	6
334.399	1	12
334.570	1	13
334.741	1	2
334.912	1	17
335.084	1	35
335.255	1	14
335.426	1	10
335.597	1	8
335.768	1	12
335.939	1	26
336.110	1	12
336.281	1	2
336.452	1	4
336.623	1	14
336.794	1	20
336.965	1	10
337.136	1	14
337.307	1	21
337.478	1	18
337.649	1	15
337.820	1	13
337.991	1	8
338.162	1	15
338.333	1	10
338.504	1	14
338.675	1	20
338.846	1	18
339.017	1	14
339.188	1	10
339.359	1	11
339.530	1	11
339.701	1	18
339.872	1	22
340.043	1	11
340.214	1	16
340.385	1	23
340.556	1	-1
340.727	1	24
340.898	1	23
341.069	1	21
341.240	1	9
341.411	1	19
341.582	1	21
341.753	1	8
341.924	1	16
342.095	1	14
342.266	1	29
342.437	1	22
342.608	1	16
342.779	1	17
342.950	1	17
343.121	1	18
343.292	1	16
343.463	1	16
343.634	1	19
343.805	1	27
343.976	1	24
344.147	1	20
344.318	1	21
344.489	1	20
344.660	1	30
344.831	1	15
345.002	1	10
345.173	1	30
345.344	1	25
345.515	1	26
345.686	1	19
345.857	1	16
346.028	1	19
346.199	1	13
346.370	1	26
346.541	1	27
346.712	1	9
346.883	1	15
347.054	1	12
347.225	1	21
347.396	1	24
347.567	1	20
347.738	1	16
347.909	1	27
348.080	1	13
348.251	1	21
348.422	1	23
348.593	1	20
348.764	1	22
348.935	1	16
349.106	1	12
349.277	1	23
349.448	1	27
349.619	1	26
349.790	1	22
349.961	1	30
350.132	1	37
350.303	1	24
350.474	1	38
350.645	1	28
350.816	1	15
350.987	1	37
351.157	1	18
351.328	1	38
351.499	1	31
351.670	1	23
351.841	1	34
352.012	1	25
352.183	1	34
352.354	1	35
352.525	1	30
352.696	1	34
352.867	1	28
353.038	1	30
353.209	1	31
353.380	1	36
353.551	1	14
353.722	1	21
353.893	1	25
354.064	1	35
354.235	1	29
354.406	1	28
354.576	1	34
354.747	1	19
354.918	1	31
355.089	1	37
355.260	1	22
355.431	1	40
355.602	1	29
355.773	1	24
355.944	1	36
356.115	1	45
356.286	1	38
356.457	1	44
356.628	1	29
356.799	1	31
356.970	1	43
357.141	1	28
357.311	1	28
357.482	1	34
357.653	1	39
357.824	1	38
357.995	1	45
358.166	1	21
358.337	1	38
358.508	1	35
358.679	1	19
358.850	1	40
359.021	1	33
359.192	1	29
359.363	1	33
359.533	1	35
359.704	1	28
359.875	1	34
360.046	1	40
360.217	1	26
360.388	1	40
360.559	1	31
360.730	1	35
360.901	1	25
361.072	1	50
361.243	1	45
361.414	1	31
361.584	1	23
361.755	1	38
361.926	1	36
362.097	1	28
362.268	1	37
362.439	1	28
362.610	1	42
362.781	1	31
362.952	1	35
363.123	1	38
363.293	1	36
363.464	1	32
363.635	1	41
363.806	1	37
363.977	1	26
364.148	1	35
364.319	1	36
364.490	1	38
364.661	1	35
364.832	1	38
365.002	1	40
365.173	1	39
365.344	1	42
365.515	1	31
365.686	1	32
365.857	1	47
366.028	1	42
366.199	1	38
366.370	1	30
366.540	1	30
366.711	1	26
366.882	1	25
367.053	1	29
367.224	1	55
367.395	1	47
367.566	1	46
367.737	1	43
367.908	1	53
368.078	1	28
368.249	1	41
368.420	1	32
368.591	1	28
368.762	1	41
368.933	1	40
369.104	1	31
369.274	1	40
369.445	1	35
369.616	1	40
369.787	1	41
369.958	1	41
370.129	1	33
370.300	1	46
370.471	1	34
370.641	1	37
370.812	1	40
370.983	1	35
371.154	1	33
371.325	1	43
371.496	1	42
371.667	1	39
371.837	1	25
372.008	1	44
372.179	1	36
372.350	1	47
372.521	1	36
372.692	1	43
372.863	1	46
373.033	1	36
373.204	1	33
373.375	1	34
373.546	1	52
373.717	1	45
373.888	1	55
374.059	1	56
374.229	1	47
374.400	1	37
374.571	1	41
374.742	1	50
374.913	1	42
375.084	1	42
375.254	1	51
375.425	1	50
375.596	1	39
375.767	1	52
375.938	1	49
376.109	1	44
376.279	1	26
376.450	1	42
376.621	1	51
376.792	1	43
376.963	1	47
377.134	1	51
377.304	1	46
377.475	1	50
377.646	1	37
377.817	1	42
377.988	1	45
378.159	1	46
378.329	1	38
378.500	1	42
378.671	1	42
378.842	1	44
379.013	1	38
379.184	1	47
379.354	1	54
379.525	1	45
379.696	1	53
379.867	1	47
380.038	1	53
380.209	1	47
380.379	1	42
380.550	1	31
380.721	1	54
380.892	1	45
381.063	1	50
381.233	1	53
381.404	1	45
381.575	1	46
381.746	1	40
381.917	1	50
382.087	1	54
382.258	1	48
382.429	1	48
382.600	1	59
382.771	1	42
382.941	1	50
383.112	1	43
383.283	1	54
383.454	1	44
383.625	1	37
383.795	1	58
383.966	1	57
384.137	1	66
384.308	1	47
384.479	1	54
384.649	1	46
384.820	1	48
384.991	1	45
385.162	1	50
385.333	1	53
385.503	1	43
385.674	1	44
385.845	1	58
386.016	1	49
386.187	1	48
386.357	1	53
386.528	1	60
386.699	1	41
386.870	1	53
387.041	1	53
387.211	1	52
387.382	1	63
387.553	1	61
387.724	1	55
387.894	1	51
388.065	1	48
388.236	1	55
388.407	1	46
388.578	1	48
388.748	1	54
388.919	1	57
389.090	1	60
389.261	1	55
389.431	1	64
389.602	1	54
389.773	1	56
389.944	1	50
390.114	1	42
390.285	1	64
390.456	1	57
390.627	1	59
390.798	1	61
390.968	1	48
391.139	1	56
391.310	1	47
391.481	1	54
391.651	1	50
391.822	1	46
391.993	1	47
392.164	1	44
392.334	1	49
392.505	1	51
392.676	1	59
392.847	1	59
393.017	1	67
393.188	1	61
393.359	1	52
393.530	1	50
393.700	1	56
393.871	1	54
394.042	1	58
394.213	1	49
394.383	1	63
394.554	1	53
394.725	1	51
394.896	1	55
395.066	1	64
395.237	1	54
395.408	1	50
395.579	1	53
395.749	1	63
395.920	1	57
396.091	1	58
396.262	1	59
396.432	1	54
396.603	1	61
396.774	1	65
396.945	1	60
397.115	1	58
397.286	1	56
397.457	1	50
397.627	1	57
397.798	1	52
397.969	1	49
398.140	1	59
398.310	1	60
398.481	1	60
398.652	1	56
398.823	1	47
398.993	1	52
399.164	1	56
399.335	1	72
399.505	1	63
399.676	1	52
399.847	1	62
400.018	1	45
400.188	1	56
400.359	1	67
400.530	1	52
400.700	1	55
400.871	1	59
401.042	1	57
401.213	1	63
401.383	1	55
401.554	1	66
401.725	1	69
401.895	1	55
402.066	1	62
402.237	1	56
402.408	1	55
402.578	1	62
402.749	1	65
402.920	1	72
403.090	1	60
403.261	1	60
403.432	1	61
403.603	1	71
403.773	1	55
403.944	1	76
404.115	1	72
404.285	1	69
404.456	1	57
404.627	1	62
404.797	1	49
404.968	1	57
405.139	1	55
405.310	1	63
405.480	1	63
405.651	1	55
405.822	1	60
405.992	1	60
406.163	1	62
406.334	1	55
406.504	1	66
406.675	1	71
406.846	1	60
407.016	1	66
407.187	1	62
407.358	1	50
407.528	1	63
407.699	1	51
407.870	1	61
408.041	1	75
408.211	1	75
408.382	1	54
408.553	1	51
408.723	1	70
408.894	1	54
409.065	1	64
409.235	1	64
409.406	1	55
409.577	1	56
409.747	1	76
409.918	1	61
410.089	1	63
410.259	1	73
410.430	1	55
410.601	1	66
410.771	1	66
410.942	1	60
411.113	1	67
411.283	1	49
411.454	1	62
411.625	1	60
411.795	1	58
411.966	1	73
412.137	1	50
412.307	1	60
412.478	1	52
412.649	1	70
412.819	1	55
412.990	1	61
413.161	1	55
413.331	1	48
413.502	1	74
413.672	1	59
413.843	1	58
414.014	1	54
414.184	1	66
414.355	1	57
414.526	1	60
414.696	1	66
414.867	1	59
415.038	1	52
415.208	1	59
415.379	1	73
415.550	1	64
415.720	1	55
415.891	1	60
416.062	1	55
416.232	1	61
416.403	1	60
416.573	1	63
416.744	1	53
416.915	1	66
417.085	1	53
417.256	1	57
417.427	1	58
417.597	1	67
417.768	1	60
417.939	1	67
418.109	1	55
418.280	1	64
418.450	1	57
418.621	1	31
418.792	1	58
418.962	1	65
419.133	1	71
419.304	1	53
419.474	1	58
419.645	1	71
419.815	1	43
419.986	1	67
420.157	1	57
420.327	1	61
420.498	1	71
420.669	1	59
420.839	1	67
421.010	1	73
421.180	1	55
421.351	1	52
421.522	1	69
421.692	1	56
421.863	1	61
422.033	1	70
422.204	1	51
422.375	1	50
422.545	1	65
422.716	1	47
422.886	1	59
423.057	1	63
423.228	1	63
423.398	1	53
423.569	1	58
423.740	1	53
423.910	1	53
424.081	1	53
424.251	1	52
424.422	1	64
424.593	1	43
424.763	1	65
424.934	1	50
425.104	1	59
425.275	1	67
425.445	1	63
425.616	1	52
425.787	1	48
425.957	1	51
426.128	1	59
426.298	1	64
426.469	1	50
426.640	1	59
426.810	1	54
426.981	1	53
427.151	1	45
427.322	1	53
427.493	1	60
427.663	1	53
427.834	1	42
428.004	1	49
428.175	1	63
428.345	1	51
428.516	1	40
428.687	1	58
428.857	1	47
429.028	1	36
429.198	1	54
429.369	1	57
429.540	1	51
429.710	1	46
429.881	1	59
430.051	1	51
430.222	1	51
430.392	1	51
430.563	1	68
430.734	1	61
430.904	1	65
431.075	1	55
431.245	1	46
431.416	1	55
431.586	1	55
431.757	1	54
431.927	1	53
432.098	1	57
432.269	1	48
432.439	1	50
432.610	1	49
432.780	1	62
432.951	1	58
433.121	1	55
433.292	1	52
433.462	1	60
433.633	1	60
433.804	1	52
433.974	1	51
434.145	1	67
434.315	1	50
434.486	1	50
434.656	1	64
434.827	1	60
434.997	1	55
435.168	1	60
435.339	1	68
435.509	1	49
435.680	1	54
435.850	1	49
436.021	1	50
436.191	1	55
436.362	1	61
436.532	1	56
436.703	1	55
436.873	1	52
437.044	1	46
437.214	1	48
437.385	1	44
437.556	1	46
437.726	1	58
437.897	1	65
438.067	1	46
438.238	1	60
438.408	1	59
438.579	1	46
438.749	1	51
438.920	1	38
439.090	1	45
439.261	1	43
439.431	1	41
439.602	1	49
439.772	1	49
439.943	1	57
440.113	1	56
440.284	1	51
440.455	1	47
440.625	1	62
440.796	1	51
440.966	1	46
441.137	1	47
441.307	1	39
441.478	1	60
441.648	1	49
441.819	1	55
441.989	1	60
442.160	1	61
442.330	1	50
442.501	1	50
442.671	1	36
442.842	1	43
443.012	1	50
443.183	1	53
443.353	1	48
443.524	1	52
443.694	1	57
443.865	1	46
444.035	1	53
444.206	1	52
444.376	1	39
444.547	1	53
444.717	1	46
444.888	1	42
445.058	1	54
445.229	1	46
445.399	1	48
445.570	1	55
445.740	1	30
445.911	1	53
446.081	1	46
446.252	1	50
446.422	1	51
446.593	1	39
446.763	1	46
446.934	1	44
447.104	1	54
447.275	1	50
447.445	1	57
447.616	1	51
447.786	1	41
447.957	1	46
448.127	1	45
448.298	1	55
448.468	1	47
448.639	1	56
448.809	1	48
448.979	1	51
449.150	1	55
449.320	1	40
449.491	1	56
449.661	1	40
449.832	1	50
450.002	1	56
450.173	1	45
450.343	1	48
450.514	1	45
450.684	1	36
450.855	1	50
451.025	1	39
451.196	1	40
451.366	1	39
451.537	1	48
451.707	1	31
451.878	1	44
452.048	1	57
452.218	1	53
452.389	1	43
452.559	1	41
452.730	1	46
452.900	1	46
453.071	1	33
453.241	1	37
453.412	1	36
453.582	1	45
453.753	1	42
453.923	1	50
454.093	1	49
454.264	1	52
454.434	1	41
454.605	1	31
454.775	1	48
454.946	1	41
455.116	1	55
455.287	1	36
455.457	1	39
455.628	1	39
455.798	1	43
455.968	1	39
456.139	1	42
456.309	1	39
456.480	1	42
456.650	1	36
456.821	1	34
456.991	1	43
457.161	1	30
457.332	1	41
457.502	1	22
457.673	1	46
457.843	1	46
458.014	1	48
458.184	1	36
458.355	1	40
458.525	1	37
458.695	1	31
458.866	1	38
459.036	1	47
459.207	1	35
459.377	1	34
459.548	1	41
459.718	1	24
459.888	1	43
460.059	1	40
460.229	1	39
460.400	1	46
460.570	1	40
460.740	1	41
460.911	1	35
461.081	1	33
461.252	1	31
461.422	1	34
461.593	1	34
461.763	1	44
461.933	1	45
462.104	1	31
462.274	1	39
462.445	1	45
462.615	1	35
462.785	1	38
462.956	1	39
463.126	1	54
463.297	1	37
463.467	1	39
463.638	1	43
463.808	1	26
463.978	1	30
464.149	1	31
464.319	1	44
464.490	1	43
464.660	1	41
464.830	1	36
465.001	1	40
465.171	1	27
465.342	1	34
465.512	1	28
465.682	1	30
465.853	1	34
466.023	1	28
466.194	1	28
466.364	1	44
466.534	1	36
466.705	1	37
466.875	1	26
467.045	1	37
467.216	1	48
467.386	1	24
467.557	1	31
467.727	1	24
467.897	1	22
468.068	1	32
468.238	1	27
468.409	1	17
468.579	1	34
468.749	1	20
468.920	1	16
469.090	1	34
469.260	1	26
469.431	1	21
469.601	1	36
469.772	1	35
469.942	1	24
470.112	1	40
470.283	1	39
470.453	1	25
470.623	1	29
470.794	1	17
470.964	1	31
471.135	1	37
471.305	1	21
471.475	1	35
471.646	1	29
471.816	1	12
471.986	1	40
472.157	1	39
472.327	1	17
472.497	1	26
472.668	1	29
472.838	1	25
473.009	1	29
473.179	1	23
473.349	1	15
473.520	1	35
473.690	1	19
473.860	1	31
474.031	1	26
474.201	1	31
474.371	1	44
474.542	1	26
474.712	1	32
474.882	1	29
475.053	1	38
475.223	1	27
475.394	1	26
475.564	1	27
475.734	1	32
475.905	1	36
476.075	1	26
476.245	1	35
476.416	1	28
476.586	1	29
476.756	1	35
476.927	1	34
477.097	1	27
477.267	1	29
477.438	1	25
477.608	1	15
477.778	1	38
477.949	1	27
478.119	1	34
478.289	1	39
478.460	1	36
478.630	1	30
478.800	1	33
478.971	1	23
479.141	1	21
479.311	1	18
479.482	1	27
479.652	1	27
479.822	1	18
479.993	1	26
480.163	1	41
480.333	1	25
480.504	1	26
480.674	1	27
480.844	1	22
481.015	1	29
481.185	1	19
481.355	1	30
481.525	1	20
481.696	1	27
481.866	1	31
482.036	1	22
482.207	1	16
482.377	1	24
482.547	1	35
482.718	1	24
482.888	1	21
483.058	1	9
483.229	1	23
483.399	1	15
483.569	1	18
483.740	1	20
483.910	1	37
484.080	1	24
484.250	1	36
484.421	1	29
484.591	1	24
484.761	1	39
484.932	1	16
485.102	1	31
485.272	1	26
485.443	1	30
485.613	1	19
485.783	1	23
485.953	1	31
486.124	1	30
486.294	1	17
486.464	1	34
486.635	1	27
486.805	1	33
486.975	1	18
487.146	1	35
487.316	1	15
487.486	1	16
487.656	1	24
487.827	1	20
487.997	1	12
488.167	1	21
488.338	1	27
488.508	1	18
488.678	1	17
488.848	1	23
489.019	1	18
489.189	1	21
489.359	1	13
489.529	1	15
489.700	1	19
489.870	1	27
490.040	1	15
490.211	1	9
490.381	1	24
490.551	1	18
490.721	1	33
490.892	1	17
491.062	1	18
491.232	1	20
491.402	1	18
491.573	1	2
491.743	1	22
491.913	1	13
492.084	1	16
492.254	1	17
492.424	1	24
492.594	1	18
492.765	1	30
492.935	1	15
493.105	1	24
493.275	1	12
493.446	1	24
493.616	1	24
493.786	1	13
493.956	1	21
494.127	1	18
494.297	1	18
494.467	1	26
494.637	1	15
494.808	1	17
494.978	1	13
495.148	1	19
495.318	1	17
495.489	1	26
495.659	1	24
495.829	1	24
495.999	1	17
496.170	1	20
496.340	1	19
496.510	1	20
496.680	1	4
496.851	1	8
497.021	1	16
497.191	1	7
497.361	1	5
497.532	1	14
497.702	1	12
497.872	1	22
498.042	1	18
498.213	1	14
498.383	1	16
498.553	1	16
498.723	1	5
498.894	1	16
499.064	1	14
499.234	1	17
499.404	1	21
499.574	1	23
499.745	1	25
499.915	1	12
500.085	1	24
500.255	1	26
500.426	1	19
500.596	1	24
500.766	1	10
500.936	1	17
501.106	1	12
501.277	1	21
501.447	1	13
501.617	1	7
501.787	1	10
501.958	1	6
502.128	1	10
502.298	1	9
502.468	1	18
502.638	1	20
502.809	1	9
502.979	1	14
503.149	1	11
503.319	1	10
503.489	1	14
503.660	1	14
503.830	1	12
504.000	1	14
504.170	1	13
504.340	1	12
504.511	1	17
504.681	1	14
504.851	1	18
505.021	1	12
505.192	1	10
505.362	1	23
505.532	1	16
505.702	1	12
505.872	1	22
506.043	1	7
506.213	1	9
506.383	1	9
506.553	1	23
506.723	1	21
506.893	1	8
507.064	1	25
507.234	1	13
507.404	1	13
507.574	1	19
507.744	1	10
507.915	1	18
508.085	1	28
508.255	1	22
508.425	1	12
508.595	1	19
508.766	1	21
508.936	1	12
509.106	1	22
509.276	1	20
509.446	1	7
509.616	1	17
509.787	1	22
509.957	1	6
510.127	1	12
510.297	1	5
510.467	1	11
510.638	1	10
510.808	1	11
510.978	1	4
511.148	1	21
511.318	1	11
511.488	1	9
511.659	1	10
511.829	1	5
511.999	1	12
512.169	1	6
512.339	1	14
512.509	1	16
512.680	1	19
512.850	1	14
513.020	1	12
513.190	1	15
513.360	1	6
513.530	1	6
513.700	1	26
513.871	1	4
514.041	1	21
514.211	1	31
514.381	1	15
514.551	1	9
514.721	1	3
514.892	1	15
515.062	1	8
515.232	1	15
515.402	1	5
515.572	1	7
515.742	1	16
515.912	1	19
516.083	1	14
516.253	1	14
516.423	1	13
516.593	1	18
516.763	1	26
516.933	1	11
517.104	1	16
517.274	1	12
517.444	1	11
517.614	1	-2
517.784	1	18
517.954	1	15
518.124	1	9
518.294	1	7
518.465	1	5
518.635	1	10
518.805	1	-4
518.975	1	12
519.145	1	-1
519.315	1	18
519.485	1	-3
519.656	1	19
519.826	1	10
519.996	1	8
520.166	1	3
520.336	1	22
520.506	1	7
520.676	1	0
520.846	1	16
521.017	1	8
521.187	1	8
521.357	1	15
521.527	1	2
521.697	1	9
521.867	1	5
522.037	1	13
522.207	1	14
522.377	1	8
522.548	1	12
522.718	1	8
522.888	1	19
523.058	1	12
523.228	1	17
523.398	1	9
523.568	1	8
523.738	1	5
523.909	1	14
524.079	1	12
524.249	1	15
524.419	1	2
524.589	1	15
524.759	1	5
524.929	1	8
525.099	1	7
525.269	1	17
525.439	1	12
525.610	1	22
525.780	1	3
525.950	1	17
526.120	1	9
526.290	1	4
526.460	1	5
526.630	1	8
526.800	1	8
526.970	1	15
527.140	1	8
527.311	1	13
527.481	1	8
527.651	1	19
527.821	1	5
527.991	1	15
528.161	1	20
528.331	1	6
528.501	1	10
528.671	1	0
528.841	1	2
529.011	1	3
529.181	1	10
529.352	1	7
529.522	1	10
529.692	1	20
529.862	1	16
530.032	1	9
530.202	1	10
530.372	1	9
530.542	1	6
530.712	1	6
530.882	1	11
531.052	1	5
531.222	1	12
531.392	1	8
531.563	1	8
531.733	1	12
531.903	1	10
532.073	1	17
532.243	1	6
532.413	1	11
532.583	1	10
532.753	1	-2
532.923	1	6
533.093	1	8
533.263	1	16
533.433	1	6
533.603	1	13
533.773	1	7
533.943	1	9
534.113	1	12
534.284	1	-1
534.454	1	11
534.624	1	16
534.794	1	0
534.964	1	9
535.134	1	11
535.304	1	15
535.474	1	21
535.644	1	4
535.814	1	-2
535.984	1	-11
536.154	1	-1
536.324	1	-1
536.494	1	14
536.664	1	5
536.834	1	10
537.004	1	6
537.174	1	16
537.344	1	11
537.514	1	0
537.685	1	2
537.855	1	6
538.025	1	10
538.195	1	4
538.365	1	16
538.535	1	4
538.705	1	5
538.875	1	10
539.045	1	6
539.215	1	7
539.385	1	4
539.555	1	7
539.725	1	4
539.895	1	9
540.065	1	8
540.235	1	14
540.405	1	4
540.575	1	11
540.745	1	11
540.915	1	9
541.085	1	9
541.255	1	-7
541.425	1	13
541.595	1	14
541.765	1	14
541.935	1	-1
542.105	1	0
542.275	1	8
542.445	1	1
542.615	1	11
542.785	1	12
542.955	1	3
543.125	1	-1
543.295	1	13
543.465	1	3
543.635	1	0
543.805	1	15
543.975	1	11
544.145	1	10
544.315	1	2
544.485	1	6
544.655	1	16
544.825	1	-3
544.995	1	6
545.165	1	1
545.335	1	8
545.505	1	-6
545.675	1	8
545.845	1	18
546.015	1	12
546.185	1	7
546.355	1	10
546.525	1	10
546.695	1	13
546.865	1	5
547.035	1	14
547.205	1	-9
547.375	1	5
547.545	1	10
547.715	1	5
547.885	1	18
548.055	1	5
548.225	1	5
548.395	1	-7
548.565	1	0
548.735	1	6
548.905	1	-3
549.075	1	14
549.245	1	-2
549.415	1	8
549.585	1	10
549.755	1	7
549.925	1	-3
550.095	1	12
550.265	1	-3
550.435	1	9
550.605	1	2
550.775	1	2
550.945	1	14
551.115	1	14
551.285	1	13
551.455	1	2
551.625	1	22
551.795	1	6
551.965	1	-4
552.135	1	-1
552.305	1	10
552.475	1	3
552.645	1	1
552.815	1	0
552.985	1	16
553.155	1	12
553.325	1	15
553.495	1	-4
553.665	1	1
553.835	1	-2
554.004	1	15
554.174	1	4
554.344	1	4
554.514	1	6
554.684	1	17
554.854	1	13
555.024	1	-3
555.194	1	-6
555.364	1	5
555.534	1	8
555.704	1	0
555.874	1	22
556.044	1	2
556.214	1	5
556.384	1	-4
556.554	1	12
556.724	1	8
556.894	1	6
557.064	1	0
557.234	1	3
557.404	1	14
557.573	1	6
557.743	1	5
557.913	1	-1
558.083	1	4
558.253	1	13
558.423	1	0
558.593	1	16
558.763	1	1
558.933	1	4
559.103	1	5
559.273	1	4
559.443	1	1
559.613	1	7
559.783	1	1
559.953	1	3
560.122	1	5
560.292	1	9
560.462	1	9
560.632	1	14
560.802	1	3
560.972	1	13
561.142	1	7
561.312	1	2
561.482	1	11
561.652	1	10
561.822	1	0
561.992	1	1
562.162	1	9
562.331	1	12
562.501	1	3
562.671	1	5
562.841	1	-8
563.011	1	7
563.181	1	4
563.351	1	2
563.521	1	13
563.691	1	-4
563.861	1	0
564.031	1	12
564.201	1	10
564.370	1	-4
564.540	1	7
564.710	1	1
564.880	1	15
565.050	1	12
565.220	1	1
565.390	1	1
565.560	1	9
565.730	1	-1
565.900	1	11
566.069	1	16
566.239	1	6
566.409	1	17
566.579	1	6
566.749	1	0
566.919	1	6
567.089	1	13
567.259	1	15
567.429	1	7
567.599	1	8
567.768	1	11
567.938	1	4
568.108	1	7
568.278	1	-7
568.448	1	-2
568.618	1	2
568.788	1	3
568.958	1	3
569.128	1	13
569.297	1	3
569.467	1	4
569.637	1	11
569.807	1	7
569.977	1	7
570.147	1	14
570.317	1	0
570.487	1	0
570.656	1	8
570.826	1	7
570.996	1	5
571.166	1	14
571.336	1	6
571.506	1	6
571.676	1	10
571.846	1	5
572.015	1	3
572.185	1	2
572.355	1	9
572.525	1	3
572.695	1	8
572.865	1	4
573.035	1	10
573.205	1	1
573.374	1	1
573.544	1	-4
573.714	1	13
573.884	1	15
574.054	1	13
574.224	1	8
574.394	1	-5
574.563	1	2
574.733	1	4
574.903	1	3
575.073	1	8
575.243	1	-6
575.413	1	11
575.583	1	7
575.752	1	19
575.922	1	7
576.092	1	10
576.262	1	8
576.432	1	6
576.602	1	-7
576.772	1	9
576.941	1	7
577.111	1	-10
577.281	1	3
577.451	1	-4
577.621	1	7
577.791	1	6
577.960	1	3
578.130	1	2
578.300	1	1
578.470	1	12
578.640	1	6
578.810	1	3
578.979	1	6
579.149	1	-1
579.319	1	-6
579.489	1	5
579.659	1	1
579.829	1	1
579.998	1	17
580.168	1	4
580.338	1	1
580.508	1	-2
580.678	1	7
580.848	1	3
581.017	1	8
581.187	1	7
581.357	1	1
581.527	1	6
581.697	1	10
581.867	1	0
582.036	1	9
582.206	1	2
582.376	1	8
582.546	1	0
582.716	1	0
582.885	1	3
583.055	1	10
583.225	1	-6
583.395	1	7
583.565	1	4
583.735	1	17
583.904	1	4
584.074	1	5
584.244	1	1
584.414	1	9
584.584	1	6
584.753	1	-8
584.923	1	9
585.093	1	7
585.263	1	1
585.433	1	-3
585.602	1	0
585.772	1	-4
585.942	1	-6
586.112	1	9
586.282	1	5
586.451	1	-4
586.621	1	-6
586.791	1	-4
586.961	1	-3
587.131	1	11
587.300	1	-3
587.470	1	9
587.640	1	9
587.810	1	4
587.980	1	3
588.149	1	7
588.319	1	-1
588.489	1	-6
588.659	1	9
588.829	1	8
588.998	1	18
589.168	1	6
589.338	1	7
589.508	1	9
589.677	1	1
589.847	1	-3
590.017	1	14
590.187	1	-9
590.357	1	7
590.526	1	13
590.696	1	1
590.866	1	10
591.036	1	2
591.205	1	17
591.375	1	-5
591.545	1	1
591.715	1	5
591.885	1	1
592.054	1	-2
592.224	1	5
592.394	1	4
592.564	1	4
592.733	1	13
592.903	1	6
593.073	1	2
593.243	1	6
593.412	1	4
593.582	1	-6
593.752	1	4
593.922	1	6
594.091	1	7
594.261	1	4
594.431	1	10
594.601	1	7
594.771	1	4
594.940	1	-1
595.110	1	-9
595.280	1	6
595.450	1	0
595.619	1	7
595.789	1	0
595.959	1	7
596.129	1	0
596.298	1	5
596.468	1	4
596.638	1	8
596.808	1	7
596.977	1	9
597.147	1	9
597.317	1	1
597.487	1	11
597.656	1	5
597.826	1	10
597.996	1	9
598.166	1	2
598.335	1	-1
598.505	1	-1
598.675	1	5
598.844	1	12
599.014	1	7
599.184	1	8
599.354	1	-11
599.523	1	4
599.693	1	-4
599.863	1	12
600.033	1	3
600.202	1	10
600.372	1	4
600.542	1	12
600.712	1	-2
600.881	1	6
601.051	1	17
601.221	1	11
601.390	1	-10
601.560	1	6
601.730	1	11
601.900	1	1
602.069	1	15
602.239	1	6
602.409	1	-3
602.578	1	1
602.748	1	2
602.918	1	7
603.088	1	11
603.257	1	6
603.427	1	2
603.597	1	3
603.767	1	10
603.936	1	6
604.106	1	12
604.276	1	-1
604.445	1	13
604.615	1	-3
604.785	1	0
604.954	1	1
605.124	1	9
605.294	1	2
605.464	1	7
605.633	1	6
605.803	1	5
605.973	1	-1
606.142	1	2
606.312	1	12
606.482	1	15
606.652	1	8
606.821	1	-3
606.991	1	5
607.161	1	3
607.330	1	5
607.500	1	6
607.670	1	-4
607.839	1	19
608.009	1	15
608.179	1	11
608.348	1	9
608.518	1	-5
608.688	1	9
608.858	1	-2
609.027	1	0
609.197	1	13
609.367	1	18
609.536	1	7
609.706	1	1
609.876	1	3
610.045	1	-4
610.215	1	-1
610.385	1	3
610.554	1	6
610.724	1	9
610.894	1	2
611.063	1	10
611.233	1	6
611.403	1	4
611.572	1	0
611.742	1	13
611.912	1	14
612.081	1	0
612.251	1	10
612.421	1	4
612.590	1	3
612.760	1	5
612.930	1	13
613.099	1	0
613.269	1	10
613.439	1	3
613.608	1	2
613.778	1	8
613.948	1	3
614.117	1	10
614.287	1	13
614.457	1	8
614.626	1	6
614.796	1	17
614.966	1	-3
615.135	1	10
615.305	1	8
615.475	1	10
615.644	1	7
615.814	1	6
615.984	1	1
616.153	1	9
616.323	1	10
616.493	1	2
616.662	1	10
616.832	1	1
617.002	1	0
617.171	1	2
617.341	1	7
617.511	1	-2
617.680	1	1
617.850	1	12
618.019	1	16
618.189	1	15
618.359	1	6
618.528	1	11
618.698	1	7
618.868	1	-2
619.037	1	3
619.207	1	4
619.377	1	6
619.546	1	2
619.716	1	6
619.885	1	5
620.055	1	6
620.225	1	8
620.394	1	-9
620.564	1	10
620.734	1	10
620.903	1	-4
621.073	1	9
621.242	1	13
621.412	1	-1
621.582	1	4
621.751	1	6
621.921	1	14
622.091	1	8
622.260	1	6
622.430	1	16
622.599	1	5
622.769	1	10
622.939	1	9
623.108	1	15
623.278	1	-1
623.448	1	5
623.617	1	5
623.787	1	0
623.956	1	12
624.126	1	-5
624.296	1	5
624.465	1	11
624.635	1	10
624.804	1	7
624.974	1	15
625.144	1	16
625.313	1	4
625.483	1	-2
625.652	1	1
625.822	1	-3
625.992	1	4
626.161	1	16
626.331	1	5
626.501	1	8
626.670	1	0
626.840	1	12
627.009	1	8
627.179	1	9
627.348	1	8
627.518	1	6
627.688	1	14
627.857	1	14
628.027	1	-1
628.196	1	3
628.366	1	13
628.536	1	9
628.705	1	15
628.875	1	7
629.044	1	10
629.214	1	17
629.384	1	11
629.553	1	9
629.723	1	6
629.892	1	-2
630.062	1	10
630.232	1	6
630.401	1	5
630.571	1	1
630.740	1	9
630.910	1	8
631.079	1	6
631.249	1	5
631.419	1	8
631.588	1	-1
631.758	1	13
631.927	1	-1
632.097	1	4
632.266	1	5
632.436	1	10
632.606	1	-6
632.775	1	10
632.945	1	4
633.114	1	11
633.284	1	8
633.453	1	16
633.623	1	7
633.793	1	8
633.962	1	5
634.132	1	11
634.301	1	14
634.471	1	1
634.640	1	14
634.810	1	18
634.979	1	9
635.149	1	10
635.319	1	10
635.488	1	10
635.658	1	-1
635.827	1	7
635.997	1	8
636.166	1	8
636.336	1	-1
636.505	1	17
636.675	1	8
636.845	1	12
637.014	1	11
637.184	1	9
637.353	1	20
637.523	1	3
637.692	1	12
637.862	1	14
638.031	1	6
638.201	1	20
638.370	1	8
638.540	1	8
638.710	1	6
638.879	1	-5
639.049	1	15
639.218	1	-5
639.388	1	-1
639.557	1	13
639.727	1	4
639.896	1	11
640.066	1	4
640.235	1	13
640.405	1	16
640.574	1	7
640.744	1	-1
640.914	1	6
641.083	1	10
641.253	1	6
641.422	1	13
641.592	1	17
641.761	1	3
641.931	1	-1
642.100	1	20
642.270	1	-6
642.439	1	11
642.609	1	4
642.778	1	9
642.948	1	-5
643.117	1	24
643.287	1	8
643.456	1	16
643.626	1	18
643.795	1	7
643.965	1	8
644.134	1	3
644.304	1	10
644.473	1	4
644.643	1	15
644.812	1	7
644.982	1	19
645.151	1	13
645.321	1	4
645.490	1	9
645.660	1	-1
645.829	1	5
645.999	1	-4
646.168	1	11
646.338	1	12
646.507	1	7
646.677	1	18
646.846	1	14
647.016	1	1
647.185	1	22
647.355	1	-7
647.524	1	12
647.694	1	20
647.863	1	13
648.033	1	11
648.202	1	12
648.372	1	4
648.541	1	1
648.711	1	12
648.880	1	5
649.050	1	8
649.219	1	7
649.389	1	17
649.558	1	5
649.728	1	11
649.897	1	1
650.067	1	6
650.236	1	17
650.406	1	6
650.575	1	17
650.745	1	10
650.914	1	-2
651.084	1	-4
651.253	1	9
651.423	1	14
651.592	1	7
651.762	1	2
651.931	1	18
652.101	1	16
652.270	1	21
652.440	1	10
652.609	1	-2
652.778	1	1
652.948	1	11
653.117	1	8
653.287	1	9
653.456	1	9
653.626	1	13
653.795	1	11
653.965	1	18
654.134	1	15
654.304	1	-4
654.473	1	11
654.643	1	19
654.812	1	13
654.982	1	14
655.151	1	7
655.320	1	17
655.490	1	7
655.659	1	12
655.829	1	8
655.998	1	0
656.168	1	5
656.337	1	11
656.507	1	20
656.676	1	17
656.846	1	3
657.015	1	14
657.184	1	20
657.354	1	7
657.523	1	9
657.693	1	11
657.862	1	16
658.032	1	9
658.201	1	12
658.371	1	19
658.540	1	9
658.709	1	1
658.879	1	5
659.048	1	7
659.218	1	6
659.387	1	10
659.557	1	12
659.726	1	13
659.895	1	0
660.065	1	4
660.234	1	5
660.404	1	9
660.573	1	11
660.743	1	13
660.912	1	2
661.081	1	13
661.251	1	4
661.420	1	11
661.590	1	11
661.759	1	17
661.929	1	12
662.098	1	25
662.267	1	7
662.437	1	19
662.606	1	6
662.776	1	6
662.945	1	9
663.115	1	20
663.284	1	5
663.453	1	10
663.623	1	12
663.792	1	21
663.962	1	15
664.131	1	8
664.300	1	13
664.470	1	4
664.639	1	13
664.809	1	17
664.978	1	22
665.148	1	12
665.317	1	12
665.486	1	17
665.656	1	6
665.825	1	16
665.995	1	2
666.164	1	6
666.333	1	7
666.503	1	14
666.672	1	7
666.842	1	13
667.011	1	13
667.180	1	12
667.350	1	11
667.519	1	11
667.689	1	4
667.858	1	10
668.027	1	20
668.197	1	7
668.366	1	8
668.536	1	7
668.705	1	12
668.874	1	13
669.044	1	1
669.213	1	23
669.382	1	4
669.552	1	20
669.721	1	16
669.891	1	22
670.060	1	10
670.229	1	26
670.399	1	8
670.568	1	23
670.738	1	18
670.907	1	4
671.076	1	8
671.246	1	9
671.415	1	14
671.584	1	11
671.754	1	8
671.923	1	7
672.093	1	14
672.262	1	0
672.431	1	12
672.601	1	7
672.770	1	9
672.939	1	20
673.109	1	11
673.278	1	19
673.448	1	21
673.617	1	-1
673.786	1	19
