325.333	1	11
325.504	1	5
325.675	1	8
325.846	1	7
326.017	1	5
326.188	1	7
326.359	1	1
326.531	1	-3
326.702	1	7
326.873	1	14
327.044	1	-1
327.215	1	3
327.386	1	12
327.557	1	-6
327.728	1	14
327.899	1	0
328.070	1	14
328.241	1	-1
328.412	1	-7
328.583	1	11
328.754	1	8
328.926	1	14
329.097	1	1
329.268	1	16
329.439	1	0
329.610	1	10
329.781	1	2
329.952	1	3
330.123	1	10
330.294	1	6
330.465	1	7
330.636	1	7
330.807	1	-6
330.978	1	5
331.149	1	0
331.320	1	11
331.492	1	4
331.663	1	5
331.834	1	13
332.005	1	11
332.176	1	27
332.347	1	10
332.518	1	8
332.689	1	15
332.860	1	1
333.031	1	6
333.202	1	7
333.373	1	8
333.544	1	8
333.715	1	12
333.886	1	-5
334.057	1	4
334.228	1	1
334.399	1	10
334.570	1	15
334.741	1	-5
334.912	1	11
335.084	1	18
335.255	1	8
335.426	1	7
335.597	1	12
335.768	1	-5
335.939	1	15
336.110	1	9
336.281	1	6
336.452	1	5
336.623	1	9
336.794	1	14
336.965	1	5
337.136	1	21
337.307	1	6
337.478	1	2
337.649	1	19
337.820	1	-1
337.991	1	13
338.162	1	6
338.333	1	10
338.504	1	10
338.675	1	15
338.846	1	19
339.017	1	9
339.188	1	8
339.359	1	-2
339.530	1	10
339.701	1	23
339.872	1	25
340.043	1	8
340.214	1	13
340.385	1	25
340.556	1	1
340.727	1	8
340.898	1	16
341.069	1	2
341.240	1	9
341.411	1	12
341.582	1	17
341.753	1	6
341.924	1	11
342.095	1	10
342.266	1	13
342.437	1	16
342.608	1	9
342.779	1	8
342.950	1	11
343.121	1	14
343.292	1	12
343.463	1	7
343.634	1	8
343.805	1	17
343.976	1	19
344.147	1	11
344.318	1	10
344.489	1	13
344.660	1	19
344.831	1	8
345.002	1	8
345.173	1	14
345.344	1	13
345.515	1	20
345.686	1	24
345.857	1	19
346.028	1	2
346.199	1	6
346.370	1	14
346.541	1	19
346.712	1	9
346.883	1	19
347.054	1	17
347.225	1	6
347.396	1	24
347.567	1	16
347.738	1	11
347.909	1	27
348.080	1	4
348.251	1	23
348.422	1	15
348.593	1	12
348.764	1	14
348.935	1	18
349.106	1	11
349.277	1	19
349.448	1	26
349.619	1	19
349.790	1	6
349.961	1	20
350.132	1	19
350.303	1	13
350.474	1	23
350.645	1	17
350.816	1	15
350.987	1	21
351.157	1	12
351.328	1	32
351.499	1	23
351.670	1	19
351.841	1	20
352.012	1	33
352.183	1	21
352.354	1	29
352.525	1	28
352.696	1	34
352.867	1	19
353.038	1	34
353.209	1	22
353.380	1	19
353.551	1	6
353.722	1	20
353.893	1	11
354.064	1	19
354.235	1	14
354.406	1	22
354.576	1	22
354.747	1	25
354.918	1	17
355.089	1	23
355.260	1	14
355.431	1	33
355.602	1	13
355.773	1	19
355.944	1	23
356.115	1	21
356.286	1	29
356.457	1	22
356.628	1	22
356.799	1	17
356.970	1	27
357.141	1	19
357.311	1	22
357.482	1	18
357.653	1	32
357.824	1	30
357.995	1	27
358.166	1	18
358.337	1	21
358.508	1	22
358.679	1	18
358.850	1	26
359.021	1	24
359.192	1	25
359.363	1	17
359.533	1	21
359.704	1	29
359.875	1	18
360.046	1	17
360.217	1	4
360.388	1	24
360.559	1	20
360.730	1	33
360.901	1	20
361.072	1	30
361.243	1	35
361.414	1	19
361.584	1	14
361.755	1	31
361.926	1	24
362.097	1	16
362.268	1	22
362.439	1	22
362.610	1	31
362.781	1	25
362.952	1	16
363.123	1	26
363.293	1	17
363.464	1	32
363.635	1	27
363.806	1	23
363.977	1	16
364.148	1	30
364.319	1	31
364.490	1	28
364.661	1	32
364.832	1	31
365.002	1	31
365.173	1	37
365.344	1	18
365.515	1	22
365.686	1	32
365.857	1	27
366.028	1	23
366.199	1	37
366.370	1	25
366.540	1	22
366.711	1	12
366.882	1	13
367.053	1	15
367.224	1	46
367.395	1	23
367.566	1	28
367.737	1	34
367.908	1	34
368.078	1	26
368.249	1	34
368.420	1	17
368.591	1	16
368.762	1	25
368.933	1	26
369.104	1	20
369.274	1	26
369.445	1	23
369.616	1	22
369.787	1	16
369.958	1	35
370.129	1	21
370.300	1	32
370.471	1	27
370.641	1	31
370.812	1	14
370.983	1	31
371.154	1	17
371.325	1	28
371.496	1	31
371.667	1	29
371.837	1	16
372.008	1	25
372.179	1	16
372.350	1	37
372.521	1	29
372.692	1	28
372.863	1	31
373.033	1	7
373.204	1	26
373.375	1	29
373.546	1	32
373.717	1	33
373.888	1	34
374.059	1	43
374.229	1	45
374.400	1	16
374.571	1	38
374.742	1	35
374.913	1	26
375.084	1	27
375.254	1	34
375.425	1	32
375.596	1	19
375.767	1	25
375.938	1	33
376.109	1	29
376.279	1	19
376.450	1	36
376.621	1	30
376.792	1	33
376.963	1	45
377.134	1	33
377.304	1	39
377.475	1	30
377.646	1	21
377.817	1	27
377.988	1	34
378.159	1	29
378.329	1	40
378.500	1	29
378.671	1	27
378.842	1	32
379.013	1	27
379.184	1	23
379.354	1	45
379.525	1	34
379.696	1	30
379.867	1	42
380.038	1	33
380.209	1	25
380.379	1	29
380.550	1	28
380.721	1	43
380.892	1	29
381.063	1	45
381.233	1	31
381.404	1	31
381.575	1	49
381.746	1	31
381.917	1	37
382.087	1	39
382.258	1	23
382.429	1	31
382.600	1	37
382.771	1	26
382.941	1	18
383.112	1	33
383.283	1	33
383.454	1	39
383.625	1	31
383.795	1	39
383.966	1	35
384.137	1	45
384.308	1	35
384.479	1	39
384.649	1	38
384.820	1	49
384.991	1	35
385.162	1	44
385.333	1	34
385.503	1	30
385.674	1	30
385.845	1	52
386.016	1	39
386.187	1	46
386.357	1	36
386.528	1	46
386.699	1	35
386.870	1	48
387.041	1	36
387.211	1	43
387.382	1	44
387.553	1	41
387.724	1	37
387.894	1	35
388.065	1	41
388.236	1	44
388.407	1	43
388.578	1	40
388.748	1	46
388.919	1	47
389.090	1	34
389.261	1	34
389.431	1	46
389.602	1	43
389.773	1	42
389.944	1	39
390.114	1	38
390.285	1	36
390.456	1	40
390.627	1	49
390.798	1	43
390.968	1	38
391.139	1	40
391.310	1	38
391.481	1	51
391.651	1	35
391.822	1	31
391.993	1	40
392.164	1	37
392.334	1	46
392.505	1	37
392.676	1	54
392.847	1	52
393.017	1	42
393.188	1	46
393.359	1	31
393.530	1	37
393.700	1	34
393.871	1	30
394.042	1	29
394.213	1	35
394.383	1	50
394.554	1	44
394.725	1	52
394.896	1	36
395.066	1	46
395.237	1	38
395.408	1	41
395.579	1	33
395.749	1	41
395.920	1	39
396.091	1	42
396.262	1	46
396.432	1	36
396.603	1	45
396.774	1	58
396.945	1	40
397.115	1	43
397.286	1	49
397.457	1	44
397.627	1	37
397.798	1	46
397.969	1	30
398.140	1	36
398.310	1	38
398.481	1	46
398.652	1	38
398.823	1	38
398.993	1	43
399.164	1	45
399.335	1	48
399.505	1	41
399.676	1	39
399.847	1	43
400.018	1	25
400.188	1	44
400.359	1	49
400.530	1	26
400.700	1	52
400.871	1	44
401.042	1	42
401.213	1	48
401.383	1	48
401.554	1	44
401.725	1	61
401.895	1	45
402.066	1	50
402.237	1	50
402.408	1	50
402.578	1	43
402.749	1	55
402.920	1	49
403.090	1	38
403.261	1	40
403.432	1	49
403.603	1	48
403.773	1	52
403.944	1	55
404.115	1	50
404.285	1	46
404.456	1	39
404.627	1	46
404.797	1	42
404.968	1	34
405.139	1	39
405.310	1	59
405.480	1	48
405.651	1	42
405.822	1	54
405.992	1	51
406.163	1	41
406.334	1	48
406.504	1	40
406.675	1	47
406.846	1	38
407.016	1	53
407.187	1	42
407.358	1	43
407.528	1	34
407.699	1	39
407.870	1	44
408.041	1	47
408.211	1	54
408.382	1	32
408.553	1	43
408.723	1	36
408.894	1	47
409.065	1	37
409.235	1	42
409.406	1	48
409.577	1	48
409.747	1	44
409.918	1	47
410.089	1	35
410.259	1	45
410.430	1	45
410.601	1	47
410.771	1	47
410.942	1	62
411.113	1	48
411.283	1	46
411.454	1	55
411.625	1	53
411.795	1	46
411.966	1	44
412.137	1	43
412.307	1	38
412.478	1	46
412.649	1	46
412.819	1	48
412.990	1	42
413.161	1	54
413.331	1	45
413.502	1	43
413.672	1	43
413.843	1	46
414.014	1	34
414.184	1	47
414.355	1	48
414.526	1	44
414.696	1	48
414.867	1	46
415.038	1	26
415.208	1	55
415.379	1	47
415.550	1	47
415.720	1	41
415.891	1	50
416.062	1	51
416.232	1	42
416.403	1	35
416.573	1	44
416.744	1	41
416.915	1	51
417.085	1	41
417.256	1	47
417.427	1	52
417.597	1	50
417.768	1	37
417.939	1	56
418.109	1	43
418.280	1	48
418.450	1	43
418.621	1	31
418.792	1	47
418.962	1	41
419.133	1	45
419.304	1	47
419.474	1	40
419.645	1	47
419.815	1	48
419.986	1	53
420.157	1	41
420.327	1	44
420.498	1	50
420.669	1	37
420.839	1	50
421.010	1	56
421.180	1	54
421.351	1	45
421.522	1	53
421.692	1	44
421.863	1	57
422.033	1	51
422.204	1	52
422.375	1	47
422.545	1	50
422.716	1	45
422.886	1	42
423.057	1	43
423.228	1	45
423.398	1	36
423.569	1	51
423.740	1	35
423.910	1	35
424.081	1	42
424.251	1	43
424.422	1	52
424.593	1	41
424.763	1	44
424.934	1	38
425.104	1	56
425.275	1	38
425.445	1	39
425.616	1	46
425.787	1	41
425.957	1	35
426.128	1	49
426.298	1	50
426.469	1	39
426.640	1	44
426.810	1	48
426.981	1	35
427.151	1	43
427.322	1	39
427.493	1	45
427.663	1	54
427.834	1	43
428.004	1	44
428.175	1	42
428.345	1	38
428.516	1	44
428.687	1	43
428.857	1	47
429.028	1	35
429.198	1	40
429.369	1	34
429.540	1	50
429.710	1	25
429.881	1	40
430.051	1	47
430.222	1	43
430.392	1	43
430.563	1	46
430.734	1	47
430.904	1	51
431.075	1	46
431.245	1	38
431.416	1	45
431.586	1	36
431.757	1	40
431.927	1	43
432.098	1	37
432.269	1	38
432.439	1	50
432.610	1	43
432.780	1	45
432.951	1	33
433.121	1	37
433.292	1	56
433.462	1	50
433.633	1	43
433.804	1	41
433.974	1	46
434.145	1	50
434.315	1	35
434.486	1	32
434.656	1	49
434.827	1	41
434.997	1	42
435.168	1	48
435.339	1	38
435.509	1	43
435.680	1	39
435.850	1	36
436.021	1	30
436.191	1	29
436.362	1	44
436.532	1	45
436.703	1	38
436.873	1	39
437.044	1	29
437.214	1	42
437.385	1	28
437.556	1	42
437.726	1	54
437.897	1	55
438.067	1	49
438.238	1	36
438.408	1	52
438.579	1	39
438.749	1	37
438.920	1	39
439.090	1	29
439.261	1	34
439.431	1	31
439.602	1	27
439.772	1	39
439.943	1	52
440.113	1	45
440.284	1	35
440.455	1	36
440.625	1	35
440.796	1	32
440.966	1	42
441.137	1	40
441.307	1	20
441.478	1	36
441.648	1	34
441.819	1	33
441.989	1	39
442.160	1	42
442.330	1	39
442.501	1	44
442.671	1	33
442.842	1	20
443.012	1	27
443.183	1	40
443.353	1	29
443.524	1	41
443.694	1	48
443.865	1	35
444.035	1	43
444.206	1	28
444.376	1	31
444.547	1	46
444.717	1	28
444.888	1	41
445.058	1	45
445.229	1	31
445.399	1	33
445.570	1	37
445.740	1	22
445.911	1	37
446.081	1	24
446.252	1	37
446.422	1	39
446.593	1	28
446.763	1	33
446.934	1	27
447.104	1	41
447.275	1	31
447.445	1	31
447.616	1	41
447.786	1	37
447.957	1	35
448.127	1	40
448.298	1	38
448.468	1	36
448.639	1	34
448.809	1	36
448.979	1	30
449.150	1	43
449.320	1	34
449.491	1	43
449.661	1	20
449.832	1	39
450.002	1	30
450.173	1	33
450.343	1	34
450.514	1	27
450.684	1	25
450.855	1	35
451.025	1	21
451.196	1	26
451.366	1	36
451.537	1	26
451.707	1	27
451.878	1	36
452.048	1	31
452.218	1	44
452.389	1	31
452.559	1	25
452.730	1	38
452.900	1	31
453.071	1	22
453.241	1	35
453.412	1	23
453.582	1	36
453.753	1	33
453.923	1	23
454.093	1	34
454.264	1	46
454.434	1	25
454.605	1	31
454.775	1	40
454.946	1	26
455.116	1	38
455.287	1	21
455.457	1	18
455.628	1	21
455.798	1	31
455.968	1	32
456.139	1	20
456.309	1	29
456.480	1	17
456.650	1	17
456.821	1	27
456.991	1	30
457.161	1	19
457.332	1	32
457.502	1	6
457.673	1	27
457.843	1	35
458.014	1	21
458.184	1	32
458.355	1	34
458.525	1	27
458.695	1	38
458.866	1	30
459.036	1	24
459.207	1	29
459.377	1	15
459.548	1	34
459.718	1	10
459.888	1	23
460.059	1	31
460.229	1	35
460.400	1	25
460.570	1	29
460.740	1	23
460.911	1	24
461.081	1	34
461.252	1	28
461.422	1	26
461.593	1	36
461.763	1	35
461.933	1	34
462.104	1	27
462.274	1	24
462.445	1	22
462.615	1	23
462.785	1	27
462.956	1	32
463.126	1	33
463.297	1	12
463.467	1	22
463.638	1	25
463.808	1	25
463.978	1	25
464.149	1	14
464.319	1	29
464.490	1	36
464.660	1	17
464.830	1	14
465.001	1	28
465.171	1	24
465.342	1	28
465.512	1	17
465.682	1	14
465.853	1	26
466.023	1	25
466.194	1	20
466.364	1	18
466.534	1	25
466.705	1	25
466.875	1	22
467.045	1	24
467.216	1	31
467.386	1	22
467.557	1	16
467.727	1	7
467.897	1	19
468.068	1	16
468.238	1	23
468.409	1	20
468.579	1	20
468.749	1	16
468.920	1	10
469.090	1	26
469.260	1	18
469.431	1	20
469.601	1	31
469.772	1	19
469.942	1	17
470.112	1	26
470.283	1	21
470.453	1	20
470.623	1	15
470.794	1	13
470.964	1	20
471.135	1	19
471.305	1	13
471.475	1	20
471.646	1	13
471.816	1	13
471.986	1	21
472.157	1	28
472.327	1	10
472.497	1	25
472.668	1	14
472.838	1	16
473.009	1	16
473.179	1	15
473.349	1	9
473.520	1	22
473.690	1	28
473.860	1	6
474.031	1	17
474.201	1	17
474.371	1	25
474.542	1	26
474.712	1	21
474.882	1	32
475.053	1	27
475.223	1	4
475.394	1	18
475.564	1	26
475.734	1	22
475.905	1	34
476.075	1	19
476.245	1	24
476.416	1	18
476.586	1	27
476.756	1	20
476.927	1	26
477.097	1	9
477.267	1	12
477.438	1	16
477.608	1	18
477.778	1	12
477.949	1	18
478.119	1	21
478.289	1	25
478.460	1	28
478.630	1	26
478.800	1	10
478.971	1	20
479.141	1	27
479.311	1	13
479.482	1	17
479.652	1	19
479.822	1	25
479.993	1	33
480.163	1	16
480.333	1	15
480.504	1	27
480.674	1	12
480.844	1	11
481.015	1	21
481.185	1	13
481.355	1	24
481.525	1	19
481.696	1	14
481.866	1	17
482.036	1	21
482.207	1	21
482.377	1	10
482.547	1	26
482.718	1	18
482.888	1	15
483.058	1	11
483.229	1	16
483.399	1	11
483.569	1	14
483.740	1	15
483.910	1	24
484.080	1	21
484.250	1	18
484.421	1	21
484.591	1	15
484.761	1	24
484.932	1	24
485.102	1	22
485.272	1	18
485.443	1	26
485.613	1	15
485.783	1	19
485.953	1	24
486.124	1	21
486.294	1	15
486.464	1	11
486.635	1	24
486.805	1	23
486.975	1	8
487.146	1	21
487.316	1	21
487.486	1	18
487.656	1	17
487.827	1	15
487.997	1	16
488.167	1	9
488.338	1	14
488.508	1	7
488.678	1	14
488.848	1	30
489.019	1	9
489.189	1	13
489.359	1	7
489.529	1	14
489.700	1	20
489.870	1	29
490.040	1	4
490.211	1	8
490.381	1	21
490.551	1	21
490.721	1	22
490.892	1	13
491.062	1	8
491.232	1	20
491.402	1	11
491.573	1	14
491.743	1	19
491.913	1	7
492.084	1	16
492.254	1	9
492.424	1	5
492.594	1	13
492.765	1	6
492.935	1	13
493.105	1	15
493.275	1	18
493.446	1	28
493.616	1	22
493.786	1	14
493.956	1	10
494.127	1	21
494.297	1	12
494.467	1	9
494.637	1	14
494.808	1	13
494.978	1	10
495.148	1	18
495.318	1	17
495.489	1	19
495.659	1	25
495.829	1	17
495.999	1	5
496.170	1	12
496.340	1	25
496.510	1	20
496.680	1	6
496.851	1	17
497.021	1	14
497.191	1	7
497.361	1	9
497.532	1	3
497.702	1	5
497.872	1	12
498.042	1	10
498.213	1	14
498.383	1	17
498.553	1	14
498.723	1	4
498.894	1	11
499.064	1	14
499.234	1	14
499.404	1	8
499.574	1	17
499.745	1	12
499.915	1	-2
500.085	1	8
500.255	1	26
500.426	1	6
500.596	1	13
500.766	1	18
500.936	1	9
501.106	1	6
501.277	1	11
501.447	1	11
501.617	1	14
501.787	1	6
501.958	1	6
502.128	1	8
502.298	1	14
502.468	1	15
502.638	1	10
502.809	1	10
502.979	1	7
503.149	1	9
503.319	1	10
503.489	1	12
503.660	1	23
503.830	1	15
504.000	1	16
504.170	1	15
504.340	1	6
504.511	1	18
504.681	1	6
504.851	1	8
505.021	1	10
505.192	1	0
505.362	1	12
505.532	1	20
505.702	1	5
505.872	1	21
506.043	1	3
506.213	1	8
506.383	1	5
506.553	1	17
506.723	1	10
506.893	1	14
507.064	1	16
507.234	1	5
507.404	1	2
507.574	1	12
507.744	1	12
507.915	1	8
508.085	1	23
508.255	1	12
508.425	1	3
508.595	1	10
508.766	1	13
508.936	1	-5
509.106	1	14
509.276	1	11
509.446	1	4
509.616	1	3
509.787	1	11
509.957	1	-3
510.127	1	12
510.297	1	4
510.467	1	6
510.638	1	14
510.808	1	7
510.978	1	2
511.148	1	9
511.318	1	14
511.488	1	4
511.659	1	16
511.829	1	9
511.999	1	10
512.169	1	9
512.339	1	12
512.509	1	3
512.680	1	0
512.850	1	7
513.020	1	13
513.190	1	14
513.360	1	1
513.530	1	13
513.700	1	7
513.871	1	-1
514.041	1	5
514.211	1	14
514.381	1	15
514.551	1	9
514.721	1	9
514.892	1	9
515.062	1	7
515.232	1	9
515.402	1	3
515.572	1	-3
515.742	1	12
515.912	1	11
516.083	1	2
516.253	1	11
516.423	1	11
516.593	1	10
516.763	1	23
516.933	1	1
517.104	1	11
517.274	1	6
517.444	1	3
517.614	1	-2
517.784	1	10
517.954	1	8
518.124	1	4
518.294	1	0
518.465	1	-4
518.635	1	7
518.805	1	-4
518.975	1	7
519.145	1	-1
519.315	1	8
519.485	1	3
519.656	1	18
519.826	1	12
519.996	1	-7
520.166	1	7
520.336	1	14
520.506	1	7
520.676	1	2
520.846	1	11
521.017	1	11
521.187	1	15
521.357	1	12
521.527	1	11
521.697	1	8
521.867	1	3
522.037	1	15
522.207	1	11
522.377	1	6
522.548	1	17
522.718	1	-5
522.888	1	14
523.058	1	6
523.228	1	16
523.398	1	16
523.568	1	13
523.738	1	1
523.909	1	10
524.079	1	7
524.249	1	8
524.419	1	0
524.589	1	10
524.759	1	9
524.929	1	-3
525.099	1	6
525.269	1	15
525.439	1	5
525.610	1	22
525.780	1	8
525.950	1	3
526.120	1	1
526.290	1	12
526.460	1	-4
526.630	1	10
526.800	1	-2
526.970	1	14
527.140	1	12
527.311	1	-1
527.481	1	7
527.651	1	9
527.821	1	5
527.991	1	7
528.161	1	15
528.331	1	3
528.501	1	10
528.671	1	4
528.841	1	8
529.011	1	7
529.181	1	10
529.352	1	5
529.522	1	5
529.692	1	7
529.862	1	11
530.032	1	11
530.202	1	0
530.372	1	1
530.542	1	14
530.712	1	4
530.882	1	7
531.052	1	8
531.222	1	11
531.392	1	1
531.563	1	7
531.733	1	5
531.903	1	8
532.073	1	11
532.243	1	5
532.413	1	16
532.583	1	2
532.753	1	5
532.923	1	-3
533.093	1	9
533.263	1	7
533.433	1	6
533.603	1	11
533.773	1	5
533.943	1	2
534.113	1	11
534.284	1	9
534.454	1	10
534.624	1	4
534.794	1	-1
534.964	1	6
535.134	1	-8
535.304	1	2
535.474	1	12
535.644	1	-10
535.814	1	0
535.984	1	7
536.154	1	-6
536.324	1	7
536.494	1	11
536.664	1	8
536.834	1	4
537.004	1	5
537.174	1	14
537.344	1	6
537.514	1	-4
537.685	1	13
537.855	1	14
538.025	1	8
538.195	1	13
538.365	1	13
538.535	1	2
538.705	1	3
538.875	1	7
539.045	1	8
539.215	1	9
539.385	1	19
539.555	1	7
539.725	1	4
539.895	1	-4
540.065	1	15
540.235	1	14
540.405	1	-2
540.575	1	0
540.745	1	4
540.915	1	8
541.085	1	6
541.255	1	2
541.425	1	8
541.595	1	2
541.765	1	6
541.935	1	-3
542.105	1	3
542.275	1	3
542.445	1	-5
542.615	1	8
542.785	1	10
542.955	1	8
543.125	1	5
543.295	1	13
543.465	1	0
543.635	1	2
543.805	1	20
543.975	1	11
544.145	1	10
544.315	1	15
544.485	1	8
544.655	1	1
544.825	1	-8
544.995	1	13
545.165	1	-1
545.335	1	7
545.505	1	-4
545.675	1	2
545.845	1	11
546.015	1	5
546.185	1	10
546.355	1	-2
546.525	1	3
546.695	1	4
546.865	1	-1
547.035	1	7
547.205	1	-3
547.375	1	11
547.545	1	11
547.715	1	-2
547.885	1	3
548.055	1	1
548.225	1	9
548.395	1	4
548.565	1	9
548.735	1	14
548.905	1	3
549.075	1	7
549.245	1	1
549.415	1	3
549.585	1	1
549.755	1	1
549.925	1	-11
550.095	1	6
550.265	1	7
550.435	1	2
550.605	1	5
550.775	1	5
550.945	1	2
551.115	1	3
551.285	1	4
551.455	1	-9
551.625	1	10
551.795	1	16
551.965	1	-6
552.135	1	2
552.305	1	5
552.475	1	-4
552.645	1	3
552.815	1	0
552.985	1	4
553.155	1	9
553.325	1	10
553.495	1	4
553.665	1	5
553.835	1	1
554.004	1	2
554.174	1	7
554.344	1	6
554.514	1	3
554.684	1	7
554.854	1	10
555.024	1	-2
555.194	1	-5
555.364	1	1
555.534	1	10
555.704	1	4
555.874	1	12
556.044	1	0
556.214	1	5
556.384	1	9
556.554	1	14
556.724	1	8
556.894	1	0
557.064	1	9
557.234	1	-6
557.404	1	8
557.573	1	7
557.743	1	8
557.913	1	-2
558.083	1	3
558.253	1	7
558.423	1	6
558.593	1	4
558.763	1	2
558.933	1	4
559.103	1	5
559.273	1	3
559.443	1	2
559.613	1	10
559.783	1	-1
559.953	1	8
560.122	1	12
560.292	1	4
560.462	1	2
560.632	1	9
560.802	1	7
560.972	1	8
561.142	1	13
561.312	1	-2
561.482	1	1
561.652	1	1
561.822	1	0
561.992	1	11
562.162	1	2
562.331	1	-2
562.501	1	-8
562.671	1	-2
562.841	1	-2
563.011	1	6
563.181	1	5
563.351	1	-6
563.521	1	9
563.691	1	4
563.861	1	0
564.031	1	7
564.201	1	12
564.370	1	-2
564.540	1	6
564.710	1	1
564.880	1	8
565.050	1	3
565.220	1	-1
565.390	1	12
565.560	1	18
565.730	1	1
565.900	1	-1
566.069	1	15
566.239	1	1
566.409	1	6
566.579	1	4
566.749	1	-5
566.919	1	5
567.089	1	10
567.259	1	5
567.429	1	4
567.599	1	0
567.768	1	-1
567.938	1	-1
568.108	1	1
568.278	1	-10
568.448	1	7
568.618	1	0
568.788	1	1
568.958	1	-3
569.128	1	7
569.297	1	7
569.467	1	3
569.637	1	9
569.807	1	-2
569.977	1	8
570.147	1	8
570.317	1	2
570.487	1	7
570.656	1	5
570.826	1	1
570.996	1	0
571.166	1	12
571.336	1	-6
571.506	1	8
571.676	1	-1
571.846	1	10
572.015	1	-4
572.185	1	-6
572.355	1	8
572.525	1	8
572.695	1	-9
572.865	1	-6
573.035	1	8
573.205	1	2
573.374	1	-4
573.544	1	6
573.714	1	8
573.884	1	6
574.054	1	-3
574.224	1	2
574.394	1	-1
574.563	1	2
574.733	1	5
574.903	1	-1
575.073	1	7
575.243	1	0
575.413	1	9
575.583	1	-2
575.752	1	1
575.922	1	3
576.092	1	6
576.262	1	13
576.432	1	2
576.602	1	-9
576.772	1	11
576.941	1	2
577.111	1	-2
577.281	1	-4
577.451	1	-10
577.621	1	18
577.791	1	7
577.960	1	-3
578.130	1	3
578.300	1	2
578.470	1	16
578.640	1	-10
578.810	1	11
578.979	1	2
579.149	1	4
579.319	1	-10
579.489	1	-4
579.659	1	11
579.829	1	3
579.998	1	5
580.168	1	7
580.338	1	-2
580.508	1	3
580.678	1	6
580.848	1	-5
581.017	1	7
581.187	1	4
581.357	1	-9
581.527	1	12
581.697	1	0
581.867	1	3
582.036	1	1
582.206	1	-1
582.376	1	6
582.546	1	-1
582.716	1	4
582.885	1	-1
583.055	1	-7
583.225	1	-2
583.395	1	5
583.565	1	-9
583.735	1	13
583.904	1	6
584.074	1	-1
584.244	1	2
584.414	1	0
584.584	1	5
584.753	1	-5
584.923	1	10
585.093	1	-6
585.263	1	5
585.433	1	2
585.602	1	-1
585.772	1	-9
585.942	1	3
586.112	1	4
586.282	1	-8
586.451	1	-5
586.621	1	-5
586.791	1	-5
586.961	1	-2
587.131	1	9
587.300	1	-8
587.470	1	11
587.640	1	7
587.810	1	-3
587.980	1	-5
588.149	1	4
588.319	1	-3
588.489	1	-8
588.659	1	3
588.829	1	7
588.998	1	5
589.168	1	11
589.338	1	-1
589.508	1	-1
589.677	1	-3
589.847	1	-4
590.017	1	15
590.187	1	-9
590.357	1	16
590.526	1	18
590.696	1	6
590.866	1	7
591.036	1	1
591.205	1	12
591.375	1	-5
591.545	1	-1
591.715	1	2
591.885	1	0
592.054	1	7
592.224	1	0
592.394	1	5
592.564	1	-2
592.733	1	3
592.903	1	8
593.073	1	4
593.243	1	0
593.412	1	3
593.582	1	-3
593.752	1	1
593.922	1	8
594.091	1	3
594.261	1	-3
594.431	1	-1
594.601	1	10
594.771	1	16
594.940	1	-11
595.110	1	4
595.280	1	-1
595.450	1	9
595.619	1	5
595.789	1	-8
595.959	1	6
596.129	1	0
596.298	1	0
596.468	1	12
596.638	1	3
596.808	1	8
596.977	1	-9
597.147	1	-1
597.317	1	3
597.487	1	8
597.656	1	0
597.826	1	6
597.996	1	9
598.166	1	14
598.335	1	-1
598.505	1	-5
598.675	1	2
598.844	1	6
599.014	1	1
599.184	1	5
599.354	1	-6
599.523	1	8
599.693	1	4
599.863	1	14
600.033	1	6
600.202	1	12
600.372	1	1
600.542	1	16
600.712	1	7
600.881	1	8
601.051	1	12
601.221	1	9
601.390	1	1
601.560	1	10
601.730	1	14
601.900	1	4
602.069	1	13
602.239	1	-10
602.409	1	-3
602.578	1	7
602.748	1	1
602.918	1	2
603.088	1	3
603.257	1	9
603.427	1	-6
603.597	1	8
603.767	1	0
603.936	1	7
604.106	1	-2
604.276	1	8
604.445	1	9
604.615	1	3
604.785	1	-5
604.954	1	4
605.124	1	1
605.294	1	4
605.464	1	-2
605.633	1	1
605.803	1	6
605.973	1	2
606.142	1	7
606.312	1	7
606.482	1	-2
606.652	1	13
606.821	1	3
606.991	1	2
607.161	1	-2
607.330	1	4
607.500	1	1
607.670	1	-7
607.839	1	7
608.009	1	9
608.179	1	3
608.348	1	11
608.518	1	11
608.688	1	16
608.858	1	-1
609.027	1	-16
609.197	1	4
609.367	1	4
609.536	1	6
609.706	1	4
609.876	1	5
610.045	1	10
610.215	1	5
610.385	1	4
610.554	1	-1
610.724	1	8
610.894	1	-7
611.063	1	7
611.233	1	4
611.403	1	1
611.572	1	1
611.742	1	-1
611.912	1	4
612.081	1	-5
612.251	1	5
612.421	1	5
612.590	1	7
612.760	1	-2
612.930	1	-4
613.099	1	-1
613.269	1	15
613.439	1	1
613.608	1	2
613.778	1	5
613.948	1	-2
614.117	1	0
614.287	1	20
614.457	1	6
614.626	1	3
614.796	1	9
614.966	1	1
615.135	1	3
615.305	1	11
615.475	1	11
615.644	1	4
615.814	1	4
615.984	1	-3
616.153	1	1
616.323	1	1
616.493	1	3
616.662	1	6
616.832	1	5
617.002	1	6
617.171	1	1
617.341	1	3
617.511	1	-6
617.680	1	-1
617.850	1	8
618.019	1	10
618.189	1	5
618.359	1	4
618.528	1	17
618.698	1	8
618.868	1	4
619.037	1	5
619.207	1	6
619.377	1	-5
619.546	1	0
619.716	1	6
619.885	1	5
620.055	1	-7
620.225	1	9
620.394	1	-2
620.564	1	15
620.734	1	11
620.903	1	3
621.073	1	10
621.242	1	9
621.412	1	-1
621.582	1	6
621.751	1	25
621.921	1	8
622.091	1	0
622.260	1	3
622.430	1	9
622.599	1	5
622.769	1	12
622.939	1	10
623.108	1	7
623.278	1	-1
623.448	1	4
623.617	1	7
623.787	1	3
623.956	1	10
624.126	1	-2
624.296	1	-1
624.465	1	4
624.635	1	9
624.804	1	10
624.974	1	13
625.144	1	9
625.313	1	-2
625.483	1	-10
625.652	1	7
625.822	1	2
625.992	1	-9
626.161	1	15
626.331	1	8
626.501	1	3
626.670	1	6
626.840	1	2
627.009	1	-10
627.179	1	11
627.348	1	2
627.518	1	0
627.688	1	10
627.857	1	18
628.027	1	-3
628.196	1	7
628.366	1	9
628.536	1	8
628.705	1	9
628.875	1	5
629.044	1	7
629.214	1	6
629.384	1	0
629.553	1	15
629.723	1	0
629.892	1	8
630.062	1	13
630.232	1	8
630.401	1	13
630.571	1	2
630.740	1	2
630.910	1	6
631.079	1	5
631.249	1	6
631.419	1	12
631.588	1	-5
631.758	1	5
631.927	1	1
632.097	1	0
632.266	1	2
632.436	1	5
632.606	1	3
632.775	1	11
632.945	1	8
633.114	1	12
633.284	1	1
633.453	1	9
633.623	1	2
633.793	1	9
633.962	1	0
634.132	1	10
634.301	1	1
634.471	1	14
634.640	1	0
634.810	1	9
634.979	1	6
635.149	1	6
635.319	1	8
635.488	1	9
635.658	1	4
635.827	1	-4
635.997	1	2
636.166	1	13
636.336	1	-1
636.505	1	12
636.675	1	4
636.845	1	7
637.014	1	10
637.184	1	8
637.353	1	2
637.523	1	9
637.692	1	2
637.862	1	6
638.031	1	2
638.201	1	9
638.370	1	10
638.540	1	6
638.710	1	1
638.879	1	-1
639.049	1	12
639.218	1	11
639.388	1	3
639.557	1	-3
639.727	1	0
639.896	1	10
640.066	1	2
640.235	1	11
640.405	1	0
640.574	1	6
640.744	1	0
640.914	1	0
641.083	1	0
641.253	1	2
641.422	1	4
641.592	1	17
641.761	1	1
641.931	1	4
642.100	1	16
642.270	1	5
642.439	1	16
642.609	1	10
642.778	1	-2
642.948	1	4
643.117	1	11
643.287	1	8
643.456	1	2
643.626	1	9
643.795	1	0
643.965	1	10
644.134	1	5
644.304	1	10
644.473	1	17
644.643	1	8
644.812	1	6
644.982	1	9
645.151	1	4
645.321	1	-3
645.490	1	13
645.660	1	-2
645.829	1	4
645.999	1	3
646.168	1	10
646.338	1	8
646.507	1	0
646.677	1	8
646.846	1	-5
647.016	1	-7
647.185	1	1
647.355	1	-13
647.524	1	14
647.694	1	8
647.863	1	10
648.033	1	8
648.202	1	8
648.372	1	3
648.541	1	7
648.711	1	6
648.880	1	0
649.050	1	6
649.219	1	8
649.389	1	11
649.558	1	8
649.728	1	8
649.897	1	8
650.067	1	11
650.236	1	9
650.406	1	11
650.575	1	11
650.745	1	14
650.914	1	7
651.084	1	-4
651.253	1	7
651.423	1	13
651.592	1	4
651.762	1	7
651.931	1	11
652.101	1	10
652.270	1	10
652.440	1	10
652.609	1	-1
652.778	1	0
652.948	1	13
653.117	1	5
653.287	1	4
653.456	1	15
653.626	1	11
653.795	1	7
653.965	1	4
654.134	1	7
654.304	1	-4
654.473	1	13
654.643	1	16
654.812	1	11
654.982	1	4
655.151	1	2
655.320	1	12
655.490	1	-6
655.659	1	13
655.829	1	-2
655.998	1	5
656.168	1	4
656.337	1	13
656.507	1	5
656.676	1	15
656.846	1	12
657.015	1	6
657.184	1	14
657.354	1	13
657.523	1	4
657.693	1	14
657.862	1	11
658.032	1	0
658.201	1	9
658.371	1	17
658.540	1	16
658.709	1	4
658.879	1	3
659.048	1	10
659.218	1	14
659.387	1	8
659.557	1	5
659.726	1	13
659.895	1	3
660.065	1	-5
660.234	1	9
660.404	1	6
660.573	1	-4
660.743	1	9
660.912	1	10
661.081	1	21
661.251	1	4
661.420	1	10
661.590	1	10
661.759	1	14
661.929	1	20
662.098	1	11
662.267	1	5
662.437	1	10
662.606	1	8
662.776	1	11
662.945	1	-1
663.115	1	20
663.284	1	3
663.453	1	13
663.623	1	6
663.792	1	11
663.962	1	6
664.131	1	14
664.300	1	16
664.470	1	2
664.639	1	12
664.809	1	-1
664.978	1	13
665.148	1	6
665.317	1	10
665.486	1	12
665.656	1	9
665.825	1	15
665.995	1	3
666.164	1	0
666.333	1	9
666.503	1	1
666.672	1	5
666.842	1	5
667.011	1	7
667.180	1	19
667.350	1	1
667.519	1	7
667.689	1	-1
667.858	1	10
668.027	1	19
668.197	1	14
668.366	1	-2
668.536	1	11
668.705	1	3
668.874	1	4
669.044	1	4
669.213	1	16
669.382	1	6
669.552	1	9
669.721	1	26
669.891	1	15
670.060	1	18
670.229	1	26
670.399	1	8
670.568	1	17
670.738	1	10
670.907	1	3
671.076	1	-4
671.246	1	10
671.415	1	8
671.584	1	5
671.754	1	0
671.923	1	7
672.093	1	7
672.262	1	-1
672.431	1	8
672.601	1	5
672.770	1	0
672.939	1	8
673.109	1	2
673.278	1	14
673.448	1	11
673.617	1	15
673.786	1	13
