325.333	1	3
325.504	1	10
325.675	1	4
325.846	1	0
326.017	1	1
326.188	1	3
326.359	1	9
326.531	1	-12
326.702	1	11
326.873	1	5
327.044	1	-7
327.215	1	12
327.386	1	9
327.557	1	-4
327.728	1	2
327.899	1	-3
328.070	1	15
328.241	1	7
328.412	1	-8
328.583	1	1
328.754	1	2
328.926	1	-1
329.097	1	-4
329.268	1	13
329.439	1	1
329.610	1	7
329.781	1	-8
329.952	1	5
330.123	1	11
330.294	1	5
330.465	1	3
330.636	1	11
330.807	1	-2
330.978	1	0
331.149	1	4
331.320	1	4
331.492	1	15
331.663	1	0
331.834	1	12
332.005	1	7
332.176	1	13
332.347	1	8
332.518	1	-1
332.689	1	14
332.860	1	4
333.031	1	23
333.202	1	-5
333.373	1	6
333.544	1	3
333.715	1	14
333.886	1	-8
334.057	1	6
334.228	1	-7
334.399	1	9
334.570	1	20
334.741	1	-3
334.912	1	9
335.084	1	28
335.255	1	2
335.426	1	5
335.597	1	4
335.768	1	-2
335.939	1	7
336.110	1	1
336.281	1	3
336.452	1	-1
336.623	1	-1
336.794	1	9
336.965	1	10
337.136	1	11
337.307	1	0
337.478	1	0
337.649	1	3
337.820	1	5
337.991	1	-2
338.162	1	3
338.333	1	10
338.504	1	10
338.675	1	8
338.846	1	17
339.017	1	2
339.188	1	-6
339.359	1	-7
339.530	1	10
339.701	1	10
339.872	1	12
340.043	1	4
340.214	1	8
340.385	1	15
340.556	1	-6
340.727	1	10
340.898	1	16
341.069	1	7
341.240	1	1
341.411	1	6
341.582	1	6
341.753	1	-5
341.924	1	0
342.095	1	10
342.266	1	13
342.437	1	17
342.608	1	-2
342.779	1	18
342.950	1	15
343.121	1	7
343.292	1	-4
343.463	1	9
343.634	1	-2
343.805	1	17
343.976	1	10
344.147	1	13
344.318	1	7
344.489	1	15
344.660	1	18
344.831	1	4
345.002	1	-2
345.173	1	3
345.344	1	8
345.515	1	9
345.686	1	9
345.857	1	16
346.028	1	9
346.199	1	8
346.370	1	8
346.541	1	10
346.712	1	-1
346.883	1	17
347.054	1	3
347.225	1	19
347.396	1	16
347.567	1	13
347.738	1	9
347.909	1	19
348.080	1	2
348.251	1	13
348.422	1	19
348.593	1	2
348.764	1	10
348.935	1	6
349.106	1	4
349.277	1	6
349.448	1	18
349.619	1	16
349.790	1	8
349.961	1	20
350.132	1	11
350.303	1	6
350.474	1	16
350.645	1	20
350.816	1	14
350.987	1	24
351.157	1	1
351.328	1	17
351.499	1	19
351.670	1	5
351.841	1	19
352.012	1	18
352.183	1	20
352.354	1	20
352.525	1	19
352.696	1	13
352.867	1	10
353.038	1	16
353.209	1	18
353.380	1	16
353.551	1	10
353.722	1	13
353.893	1	11
354.064	1	14
354.235	1	9
354.406	1	16
354.576	1	15
354.747	1	8
354.918	1	15
355.089	1	20
355.260	1	16
355.431	1	8
355.602	1	5
355.773	1	4
355.944	1	18
356.115	1	11
356.286	1	10
356.457	1	20
356.628	1	11
356.799	1	18
356.970	1	24
357.141	1	11
357.311	1	9
357.482	1	11
357.653	1	10
357.824	1	27
357.995	1	12
358.166	1	3
358.337	1	9
358.508	1	13
358.679	1	13
358.850	1	18
359.021	1	5
359.192	1	16
359.363	1	8
359.533	1	16
359.704	1	12
359.875	1	1
360.046	1	14
360.217	1	0
360.388	1	14
360.559	1	5
360.730	1	18
360.901	1	10
361.072	1	25
361.243	1	19
361.414	1	15
361.584	1	-1
361.755	1	20
361.926	1	13
362.097	1	12
362.268	1	19
362.439	1	7
362.610	1	11
362.781	1	7
362.952	1	6
363.123	1	7
363.293	1	8
363.464	1	15
363.635	1	10
363.806	1	2
363.977	1	13
364.148	1	20
364.319	1	13
364.490	1	12
364.661	1	15
364.832	1	21
365.002	1	17
365.173	1	19
365.344	1	30
365.515	1	18
365.686	1	16
365.857	1	17
366.028	1	33
366.199	1	13
366.370	1	15
366.540	1	-1
366.711	1	0
366.882	1	-2
367.053	1	0
367.224	1	19
367.395	1	21
367.566	1	15
367.737	1	24
367.908	1	23
368.078	1	21
368.249	1	13
368.420	1	1
368.591	1	10
368.762	1	13
368.933	1	17
369.104	1	11
369.274	1	18
369.445	1	12
369.616	1	20
369.787	1	12
369.958	1	27
370.129	1	-3
370.300	1	20
370.471	1	11
370.641	1	22
370.812	1	13
370.983	1	16
371.154	1	14
371.325	1	19
371.496	1	11
371.667	1	26
371.837	1	17
372.008	1	16
372.179	1	16
372.350	1	23
372.521	1	20
372.692	1	8
372.863	1	24
373.033	1	8
373.204	1	3
373.375	1	12
373.546	1	17
373.717	1	20
373.888	1	24
374.059	1	20
374.229	1	23
374.400	1	15
374.571	1	8
374.742	1	19
374.913	1	21
375.084	1	11
375.254	1	24
375.425	1	28
375.596	1	6
375.767	1	18
375.938	1	13
376.109	1	28
376.279	1	20
376.450	1	18
376.621	1	15
376.792	1	15
376.963	1	3
377.134	1	23
377.304	1	12
377.475	1	15
377.646	1	17
377.817	1	13
377.988	1	17
378.159	1	22
378.329	1	23
378.500	1	23
378.671	1	26
378.842	1	22
379.013	1	5
379.184	1	11
379.354	1	17
379.525	1	24
379.696	1	28
379.867	1	18
380.038	1	12
380.209	1	24
380.379	1	9
380.550	1	2
380.721	1	21
380.892	1	16
381.063	1	8
381.233	1	23
381.404	1	21
381.575	1	28
381.746	1	20
381.917	1	17
382.087	1	22
382.258	1	20
382.429	1	29
382.600	1	26
382.771	1	9
382.941	1	19
383.112	1	28
383.283	1	16
383.454	1	21
383.625	1	15
383.795	1	15
383.966	1	20
384.137	1	28
384.308	1	24
384.479	1	19
384.649	1	19
384.820	1	18
384.991	1	20
385.162	1	26
385.333	1	17
385.503	1	24
385.674	1	10
385.845	1	21
386.016	1	12
386.187	1	19
386.357	1	19
386.528	1	31
386.699	1	26
386.870	1	36
387.041	1	26
387.211	1	11
387.382	1	24
387.553	1	27
387.724	1	12
387.894	1	24
388.065	1	18
388.236	1	27
388.407	1	25
388.578	1	21
388.748	1	22
388.919	1	26
389.090	1	21
389.261	1	18
389.431	1	17
389.602	1	33
389.773	1	16
389.944	1	13
390.114	1	32
390.285	1	26
390.456	1	18
390.627	1	25
390.798	1	24
390.968	1	17
391.139	1	25
391.310	1	21
391.481	1	25
391.651	1	23
391.822	1	13
391.993	1	25
392.164	1	22
392.334	1	22
392.505	1	15
392.676	1	24
392.847	1	28
393.017	1	21
393.188	1	26
393.359	1	16
393.530	1	32
393.700	1	18
393.871	1	17
394.042	1	28
394.213	1	14
394.383	1	16
394.554	1	35
394.725	1	34
394.896	1	22
395.066	1	30
395.237	1	6
395.408	1	18
395.579	1	21
395.749	1	26
395.920	1	25
396.091	1	24
396.262	1	20
396.432	1	21
396.603	1	23
396.774	1	43
396.945	1	17
397.115	1	15
397.286	1	32
397.457	1	21
397.627	1	23
397.798	1	35
397.969	1	13
398.140	1	22
398.310	1	27
398.481	1	25
398.652	1	27
398.823	1	14
398.993	1	23
399.164	1	19
399.335	1	33
399.505	1	27
399.676	1	23
399.847	1	27
400.018	1	12
400.188	1	20
400.359	1	37
400.530	1	23
400.700	1	25
400.871	1	20
401.042	1	24
401.213	1	22
401.383	1	33
401.554	1	36
401.725	1	29
401.895	1	21
402.066	1	28
402.237	1	26
402.408	1	33
402.578	1	28
402.749	1	31
402.920	1	20
403.090	1	16
403.261	1	26
403.432	1	24
403.603	1	32
403.773	1	24
403.944	1	26
404.115	1	27
404.285	1	32
404.456	1	19
404.627	1	15
404.797	1	24
404.968	1	14
405.139	1	15
405.310	1	42
405.480	1	35
405.651	1	16
405.822	1	29
405.992	1	25
406.163	1	25
406.334	1	7
406.504	1	29
406.675	1	28
406.846	1	26
407.016	1	52
407.187	1	27
407.358	1	17
407.528	1	25
407.699	1	15
407.870	1	15
408.041	1	33
408.211	1	32
408.382	1	27
408.553	1	24
408.723	1	36
408.894	1	37
409.065	1	27
409.235	1	23
409.406	1	26
409.577	1	24
409.747	1	30
409.918	1	27
410.089	1	31
410.259	1	32
410.430	1	26
410.601	1	28
410.771	1	33
410.942	1	25
411.113	1	28
411.283	1	37
411.454	1	28
411.625	1	23
411.795	1	39
411.966	1	29
412.137	1	26
412.307	1	19
412.478	1	13
412.649	1	21
412.819	1	30
412.990	1	16
413.161	1	20
413.331	1	27
413.502	1	30
413.672	1	31
413.843	1	30
414.014	1	28
414.184	1	38
414.355	1	33
414.526	1	31
414.696	1	44
414.867	1	30
415.038	1	14
415.208	1	30
415.379	1	21
415.550	1	20
415.720	1	21
415.891	1	19
416.062	1	22
416.232	1	27
416.403	1	25
416.573	1	30
416.744	1	22
416.915	1	30
417.085	1	20
417.256	1	14
417.427	1	20
417.597	1	21
417.768	1	18
417.939	1	23
418.109	1	22
418.280	1	32
418.450	1	13
418.621	1	21
418.792	1	22
418.962	1	26
419.133	1	35
419.304	1	14
419.474	1	13
419.645	1	14
419.815	1	20
419.986	1	25
420.157	1	30
420.327	1	23
420.498	1	23
420.669	1	28
420.839	1	28
421.010	1	27
421.180	1	34
421.351	1	12
421.522	1	30
421.692	1	31
421.863	1	24
422.033	1	27
422.204	1	27
422.375	1	27
422.545	1	29
422.716	1	15
422.886	1	28
423.057	1	38
423.228	1	26
423.398	1	27
423.569	1	28
423.740	1	16
423.910	1	24
424.081	1	24
424.251	1	22
424.422	1	28
424.593	1	22
424.763	1	27
424.934	1	25
425.104	1	20
425.275	1	21
425.445	1	26
425.616	1	14
425.787	1	21
425.957	1	23
426.128	1	29
426.298	1	27
426.469	1	12
426.640	1	28
426.810	1	30
426.981	1	31
427.151	1	11
427.322	1	28
427.493	1	30
427.663	1	27
427.834	1	15
428.004	1	41
428.175	1	15
428.345	1	20
428.516	1	15
428.687	1	17
428.857	1	20
429.028	1	11
429.198	1	26
429.369	1	26
429.540	1	30
429.710	1	14
429.881	1	23
430.051	1	29
430.222	1	24
430.392	1	17
430.563	1	23
430.734	1	38
430.904	1	22
431.075	1	22
431.245	1	24
431.416	1	25
431.586	1	23
431.757	1	26
431.927	1	25
432.098	1	10
432.269	1	16
432.439	1	19
432.610	1	19
432.780	1	25
432.951	1	16
433.121	1	30
433.292	1	30
433.462	1	27
433.633	1	24
433.804	1	30
433.974	1	18
434.145	1	26
434.315	1	22
434.486	1	18
434.656	1	26
434.827	1	15
434.997	1	20
435.168	1	26
435.339	1	24
435.509	1	22
435.680	1	23
435.850	1	25
436.021	1	16
436.191	1	26
436.362	1	21
436.532	1	18
436.703	1	15
436.873	1	25
437.044	1	5
437.214	1	20
437.385	1	18
437.556	1	27
437.726	1	28
437.897	1	20
438.067	1	25
438.238	1	20
438.408	1	22
438.579	1	24
438.749	1	18
438.920	1	25
439.090	1	23
439.261	1	22
439.431	1	13
439.602	1	9
439.772	1	24
439.943	1	24
440.113	1	26
440.284	1	25
440.455	1	19
440.625	1	25
440.796	1	21
440.966	1	16
441.137	1	13
441.307	1	11
441.478	1	22
441.648	1	24
441.819	1	17
441.989	1	28
442.160	1	26
442.330	1	24
442.501	1	21
442.671	1	20
442.842	1	9
443.012	1	16
443.183	1	33
443.353	1	20
443.524	1	21
443.694	1	20
443.865	1	21
444.035	1	20
444.206	1	16
444.376	1	9
444.547	1	29
444.717	1	12
444.888	1	22
445.058	1	34
445.229	1	19
445.399	1	9
445.570	1	25
445.740	1	21
445.911	1	14
446.081	1	14
446.252	1	18
446.422	1	14
446.593	1	7
446.763	1	13
446.934	1	11
447.104	1	12
447.275	1	17
447.445	1	25
447.616	1	17
447.786	1	18
447.957	1	25
448.127	1	19
448.298	1	23
448.468	1	13
448.639	1	19
448.809	1	30
448.979	1	15
449.150	1	21
449.320	1	20
449.491	1	39
449.661	1	10
449.832	1	12
450.002	1	33
450.173	1	15
450.343	1	14
450.514	1	21
450.684	1	15
450.855	1	18
451.025	1	20
451.196	1	18
451.366	1	22
451.537	1	8
451.707	1	4
451.878	1	15
452.048	1	23
452.218	1	20
452.389	1	26
452.559	1	18
452.730	1	23
452.900	1	21
453.071	1	10
453.241	1	15
453.412	1	9
453.582	1	16
453.753	1	23
453.923	1	15
454.093	1	26
454.264	1	30
454.434	1	7
454.605	1	21
454.775	1	19
454.946	1	16
455.116	1	13
455.287	1	12
455.457	1	16
455.628	1	10
455.798	1	18
455.968	1	28
456.139	1	21
456.309	1	9
456.480	1	7
456.650	1	11
456.821	1	8
456.991	1	20
457.161	1	14
457.332	1	21
457.502	1	11
457.673	1	21
457.843	1	17
458.014	1	18
458.184	1	15
458.355	1	18
458.525	1	24
458.695	1	27
458.866	1	18
459.036	1	19
459.207	1	12
459.377	1	7
459.548	1	23
459.718	1	16
459.888	1	15
460.059	1	22
460.229	1	20
460.400	1	15
460.570	1	23
460.740	1	21
460.911	1	24
461.081	1	22
461.252	1	15
461.422	1	16
461.593	1	10
461.763	1	14
461.933	1	24
462.104	1	10
462.274	1	13
462.445	1	11
462.615	1	18
462.785	1	11
462.956	1	17
463.126	1	28
463.297	1	15
463.467	1	18
463.638	1	24
463.808	1	10
463.978	1	5
464.149	1	9
464.319	1	5
464.490	1	32
464.660	1	7
464.830	1	5
465.001	1	19
465.171	1	14
465.342	1	19
465.512	1	5
465.682	1	14
465.853	1	27
466.023	1	12
466.194	1	10
466.364	1	22
466.534	1	24
466.705	1	16
466.875	1	14
467.045	1	13
467.216	1	20
467.386	1	22
467.557	1	13
467.727	1	7
467.897	1	9
468.068	1	15
468.238	1	-2
468.409	1	15
468.579	1	21
468.749	1	16
468.920	1	5
469.090	1	14
469.260	1	8
469.431	1	7
469.601	1	22
469.772	1	10
469.942	1	8
470.112	1	14
470.283	1	4
470.453	1	19
470.623	1	11
470.794	1	8
470.964	1	17
471.135	1	16
471.305	1	3
471.475	1	20
471.646	1	1
471.816	1	10
471.986	1	14
472.157	1	31
472.327	1	-3
472.497	1	18
472.668	1	11
472.838	1	13
473.009	1	14
473.179	1	1
473.349	1	1
473.520	1	17
473.690	1	17
473.860	1	13
474.031	1	14
474.201	1	13
474.371	1	16
474.542	1	12
474.712	1	14
474.882	1	16
475.053	1	18
475.223	1	13
475.394	1	17
475.564	1	10
475.734	1	20
475.905	1	18
476.075	1	11
476.245	1	21
476.416	1	17
476.586	1	20
476.756	1	17
476.927	1	14
477.097	1	17
477.267	1	13
477.438	1	22
477.608	1	4
477.778	1	13
477.949	1	18
478.119	1	23
478.289	1	18
478.460	1	20
478.630	1	22
478.800	1	14
478.971	1	12
479.141	1	2
479.311	1	12
479.482	1	9
479.652	1	1
479.822	1	13
479.993	1	14
480.163	1	14
480.333	1	11
480.504	1	14
480.674	1	19
480.844	1	3
481.015	1	16
481.185	1	7
481.355	1	12
481.525	1	6
481.696	1	18
481.866	1	11
482.036	1	24
482.207	1	21
482.377	1	8
482.547	1	14
482.718	1	13
482.888	1	13
483.058	1	11
483.229	1	1
483.399	1	2
483.569	1	7
483.740	1	17
483.910	1	10
484.080	1	20
484.250	1	12
484.421	1	10
484.591	1	10
484.761	1	16
484.932	1	15
485.102	1	15
485.272	1	16
485.443	1	14
485.613	1	8
485.783	1	13
485.953	1	13
486.124	1	13
486.294	1	17
486.464	1	8
486.635	1	12
486.805	1	9
486.975	1	11
487.146	1	16
487.316	1	12
487.486	1	14
487.656	1	4
487.827	1	1
487.997	1	6
488.167	1	7
488.338	1	22
488.508	1	5
488.678	1	1
488.848	1	18
489.019	1	6
489.189	1	8
489.359	1	4
489.529	1	17
489.700	1	6
489.870	1	19
490.040	1	10
490.211	1	0
490.381	1	13
490.551	1	8
490.721	1	16
490.892	1	9
491.062	1	15
491.232	1	5
491.402	1	4
491.573	1	-7
491.743	1	10
491.913	1	11
492.084	1	20
492.254	1	9
492.424	1	12
492.594	1	20
492.765	1	3
492.935	1	4
493.105	1	12
493.275	1	10
493.446	1	10
493.616	1	16
493.786	1	12
493.956	1	11
494.127	1	10
494.297	1	2
494.467	1	15
494.637	1	0
494.808	1	6
494.978	1	-2
495.148	1	7
495.318	1	10
495.489	1	16
495.659	1	9
495.829	1	4
495.999	1	6
496.170	1	15
496.340	1	15
496.510	1	8
496.680	1	3
496.851	1	0
497.021	1	2
497.191	1	-9
497.361	1	12
497.532	1	4
497.702	1	-4
497.872	1	6
498.042	1	8
498.213	1	0
498.383	1	16
498.553	1	0
498.723	1	-1
498.894	1	9
499.064	1	8
499.234	1	7
499.404	1	3
499.574	1	17
499.745	1	15
499.915	1	7
500.085	1	9
500.255	1	10
500.426	1	4
500.596	1	9
500.766	1	7
500.936	1	6
501.106	1	-6
501.277	1	8
501.447	1	5
501.617	1	16
501.787	1	4
501.958	1	-4
502.128	1	9
502.298	1	6
502.468	1	9
502.638	1	11
502.809	1	-1
502.979	1	0
503.149	1	-2
503.319	1	4
503.489	1	10
503.660	1	7
503.830	1	12
504.000	1	22
504.170	1	3
504.340	1	1
504.511	1	18
504.681	1	3
504.851	1	11
505.021	1	6
505.192	1	5
505.362	1	8
505.532	1	4
505.702	1	10
505.872	1	8
506.043	1	7
506.213	1	-4
506.383	1	-1
506.553	1	7
506.723	1	-4
506.893	1	13
507.064	1	11
507.234	1	-6
507.404	1	6
507.574	1	10
507.744	1	10
507.915	1	3
508.085	1	17
508.255	1	8
508.425	1	10
508.595	1	6
508.766	1	13
508.936	1	-2
509.106	1	17
509.276	1	10
509.446	1	2
509.616	1	7
509.787	1	6
509.957	1	2
510.127	1	8
510.297	1	-1
510.467	1	0
510.638	1	6
510.808	1	0
510.978	1	-5
511.148	1	12
511.318	1	2
511.488	1	-4
511.659	1	6
511.829	1	2
511.999	1	11
512.169	1	5
512.339	1	4
512.509	1	10
512.680	1	0
512.850	1	7
513.020	1	8
513.190	1	6
513.360	1	-5
513.530	1	1
513.700	1	6
513.871	1	-2
514.041	1	6
514.211	1	17
514.381	1	7
514.551	1	10
514.721	1	6
514.892	1	16
515.062	1	8
515.232	1	6
515.402	1	2
515.572	1	3
515.742	1	18
515.912	1	10
516.083	1	6
516.253	1	6
516.423	1	5
516.593	1	4
516.763	1	10
516.933	1	-1
517.104	1	10
517.274	1	7
517.444	1	4
517.614	1	3
517.784	1	2
517.954	1	11
518.124	1	15
518.294	1	0
518.465	1	-7
518.635	1	2
518.805	1	-3
518.975	1	0
519.145	1	2
519.315	1	8
519.485	1	4
519.656	1	12
519.826	1	7
519.996	1	-8
520.166	1	3
520.336	1	16
520.506	1	1
520.676	1	-10
520.846	1	9
521.017	1	2
521.187	1	2
521.357	1	19
521.527	1	2
521.697	1	-3
521.867	1	-2
522.037	1	7
522.207	1	19
522.377	1	4
522.548	1	7
522.718	1	2
522.888	1	14
523.058	1	5
523.228	1	6
523.398	1	1
523.568	1	8
523.738	1	-3
523.909	1	12
524.079	1	0
524.249	1	5
524.419	1	4
524.589	1	0
524.759	1	-1
524.929	1	2
525.099	1	14
525.269	1	8
525.439	1	5
525.610	1	12
525.780	1	1
525.950	1	-1
526.120	1	8
526.290	1	-1
526.460	1	-1
526.630	1	5
526.800	1	5
526.970	1	4
527.140	1	12
527.311	1	-2
527.481	1	2
527.651	1	9
527.821	1	-4
527.991	1	9
528.161	1	10
528.331	1	7
528.501	1	2
528.671	1	7
528.841	1	4
529.011	1	4
529.181	1	3
529.352	1	3
529.522	1	-3
529.692	1	0
529.862	1	10
530.032	1	12
530.202	1	10
530.372	1	-1
530.542	1	12
530.712	1	5
530.882	1	4
531.052	1	2
531.222	1	9
531.392	1	3
531.563	1	12
531.733	1	5
531.903	1	0
532.073	1	8
532.243	1	7
532.413	1	6
532.583	1	-1
532.753	1	7
532.923	1	-10
533.093	1	14
533.263	1	4
533.433	1	3
533.603	1	7
533.773	1	-1
533.943	1	3
534.113	1	6
534.284	1	-2
534.454	1	9
534.624	1	12
534.794	1	-2
534.964	1	7
535.134	1	4
535.304	1	0
535.474	1	13
535.644	1	-8
535.814	1	5
535.984	1	-1
536.154	1	-9
536.324	1	-4
536.494	1	7
536.664	1	5
536.834	1	11
537.004	1	3
537.174	1	15
537.344	1	5
537.514	1	-15
537.685	1	5
537.855	1	15
538.025	1	5
538.195	1	-2
538.365	1	14
538.535	1	4
538.705	1	7
538.875	1	3
539.045	1	1
539.215	1	12
539.385	1	4
539.555	1	11
539.725	1	1
539.895	1	-7
540.065	1	10
540.235	1	4
540.405	1	4
540.575	1	-2
540.745	1	8
540.915	1	16
541.085	1	10
541.255	1	-2
541.425	1	5
541.595	1	1
541.765	1	5
541.935	1	3
542.105	1	-8
542.275	1	2
542.445	1	2
542.615	1	3
542.785	1	11
542.955	1	-1
543.125	1	-5
543.295	1	7
543.465	1	2
543.635	1	5
543.805	1	5
543.975	1	0
544.145	1	9
544.315	1	4
544.485	1	12
544.655	1	3
544.825	1	-7
544.995	1	4
545.165	1	-4
545.335	1	6
545.505	1	-4
545.675	1	12
545.845	1	4
546.015	1	12
546.185	1	5
546.355	1	9
546.525	1	4
546.695	1	12
546.865	1	0
547.035	1	10
547.205	1	-11
547.375	1	9
547.545	1	13
547.715	1	2
547.885	1	7
548.055	1	-1
548.225	1	7
548.395	1	2
548.565	1	5
548.735	1	1
548.905	1	-4
549.075	1	2
549.245	1	1
549.415	1	2
549.585	1	6
549.755	1	3
549.925	1	2
550.095	1	7
550.265	1	-4
550.435	1	1
550.605	1	-3
550.775	1	9
550.945	1	11
551.115	1	0
551.285	1	6
551.455	1	1
551.625	1	23
551.795	1	4
551.965	1	2
552.135	1	-1
552.305	1	1
552.475	1	-1
552.645	1	-6
552.815	1	-2
552.985	1	11
553.155	1	-1
553.325	1	9
553.495	1	1
553.665	1	-1
553.835	1	-3
554.004	1	1
554.174	1	-5
554.344	1	4
554.514	1	6
554.684	1	-2
554.854	1	8
555.024	1	-6
555.194	1	-10
555.364	1	10
555.534	1	3
555.704	1	3
555.874	1	12
556.044	1	2
556.214	1	-4
556.384	1	4
556.554	1	11
556.724	1	4
556.894	1	-3
557.064	1	-3
557.234	1	-5
557.404	1	8
557.573	1	-2
557.743	1	3
557.913	1	-9
558.083	1	-6
558.253	1	5
558.423	1	1
558.593	1	13
558.763	1	-7
558.933	1	0
559.103	1	9
559.273	1	-1
559.443	1	5
559.613	1	-1
559.783	1	2
559.953	1	2
560.122	1	-1
560.292	1	1
560.462	1	6
560.632	1	2
560.802	1	2
560.972	1	2
561.142	1	-3
561.312	1	-10
561.482	1	7
561.652	1	11
561.822	1	-7
561.992	1	-3
562.162	1	3
562.331	1	3
562.501	1	-6
562.671	1	4
562.841	1	-5
563.011	1	0
563.181	1	3
563.351	1	-4
563.521	1	6
563.691	1	-11
563.861	1	0
564.031	1	13
564.201	1	17
564.370	1	-6
564.540	1	3
564.710	1	-6
564.880	1	12
565.050	1	8
565.220	1	0
565.390	1	5
565.560	1	9
565.730	1	-4
565.900	1	10
566.069	1	11
566.239	1	8
566.409	1	5
566.579	1	5
566.749	1	4
566.919	1	6
567.089	1	2
567.259	1	5
567.429	1	5
567.599	1	-3
567.768	1	5
567.938	1	3
568.108	1	2
568.278	1	-2
568.448	1	5
568.618	1	3
568.788	1	8
568.958	1	2
569.128	1	7
569.297	1	2
569.467	1	-6
569.637	1	15
569.807	1	-4
569.977	1	2
570.147	1	0
570.317	1	0
570.487	1	11
570.656	1	8
570.826	1	1
570.996	1	-5
571.166	1	6
571.336	1	-12
571.506	1	3
571.676	1	9
571.846	1	7
572.015	1	4
572.185	1	6
572.355	1	2
572.525	1	7
572.695	1	-3
572.865	1	-6
573.035	1	-2
573.205	1	3
573.374	1	-6
573.544	1	5
573.714	1	4
573.884	1	5
574.054	1	4
574.224	1	-4
574.394	1	7
574.563	1	1
574.733	1	1
574.903	1	-3
575.073	1	3
575.243	1	4
575.413	1	10
575.583	1	-6
575.752	1	2
575.922	1	-5
576.092	1	15
576.262	1	-1
576.432	1	-2
576.602	1	0
576.772	1	10
576.941	1	10
577.111	1	-5
577.281	1	-6
577.451	1	0
577.621	1	3
577.791	1	8
577.960	1	5
578.130	1	0
578.300	1	1
578.470	1	8
578.640	1	-3
578.810	1	-1
578.979	1	9
579.149	1	-6
579.319	1	2
579.489	1	3
579.659	1	12
579.829	1	2
579.998	1	5
580.168	1	11
580.338	1	13
580.508	1	-8
580.678	1	4
580.848	1	1
581.017	1	-2
581.187	1	-2
581.357	1	-7
581.527	1	13
581.697	1	14
581.867	1	3
582.036	1	-1
582.206	1	6
582.376	1	2
582.546	1	-4
582.716	1	-10
582.885	1	-9
583.055	1	3
583.225	1	-3
583.395	1	12
583.565	1	-3
583.735	1	4
583.904	1	3
584.074	1	11
584.244	1	12
584.414	1	-1
584.584	1	1
584.753	1	-6
584.923	1	15
585.093	1	2
585.263	1	4
585.433	1	10
585.602	1	-6
585.772	1	-4
585.942	1	-1
586.112	1	-3
586.282	1	-3
586.451	1	-5
586.621	1	-5
586.791	1	4
586.961	1	1
587.131	1	9
587.300	1	-3
587.470	1	15
587.640	1	3
587.810	1	-3
587.980	1	-6
588.149	1	5
588.319	1	-2
588.489	1	-5
588.659	1	0
588.829	1	3
588.998	1	2
589.168	1	7
589.338	1	7
589.508	1	4
589.677	1	-7
589.847	1	-7
590.017	1	9
590.187	1	7
590.357	1	6
590.526	1	9
590.696	1	2
590.866	1	13
591.036	1	-3
591.205	1	10
591.375	1	-7
591.545	1	-2
591.715	1	4
591.885	1	-1
592.054	1	5
592.224	1	-5
592.394	1	2
592.564	1	2
592.733	1	6
592.903	1	-8
593.073	1	0
593.243	1	7
593.412	1	10
593.582	1	-4
593.752	1	0
593.922	1	2
594.091	1	-2
594.261	1	1
594.431	1	8
594.601	1	8
594.771	1	4
594.940	1	8
595.110	1	2
595.280	1	7
595.450	1	-11
595.619	1	1
595.789	1	6
595.959	1	10
596.129	1	5
596.298	1	-5
596.468	1	6
596.638	1	1
596.808	1	-1
596.977	1	-1
597.147	1	8
597.317	1	-2
597.487	1	11
597.656	1	4
597.826	1	-1
597.996	1	5
598.166	1	0
598.335	1	-4
598.505	1	-1
598.675	1	6
598.844	1	5
599.014	1	5
599.184	1	8
599.354	1	-4
599.523	1	8
599.693	1	8
599.863	1	4
600.033	1	-2
600.202	1	4
600.372	1	7
600.542	1	9
600.712	1	-2
600.881	1	-1
601.051	1	18
601.221	1	9
601.390	1	-5
601.560	1	6
601.730	1	12
601.900	1	7
602.069	1	6
602.239	1	-8
602.409	1	-6
602.578	1	3
602.748	1	0
602.918	1	13
603.088	1	7
603.257	1	5
603.427	1	0
603.597	1	1
603.767	1	5
603.936	1	6
604.106	1	7
604.276	1	2
604.445	1	12
604.615	1	-1
604.785	1	-6
604.954	1	0
605.124	1	0
605.294	1	-11
605.464	1	4
605.633	1	5
605.803	1	7
605.973	1	-3
606.142	1	0
606.312	1	8
606.482	1	-3
606.652	1	6
606.821	1	-2
606.991	1	3
607.161	1	0
607.330	1	6
607.500	1	5
607.670	1	-1
607.839	1	7
608.009	1	5
608.179	1	7
608.348	1	1
608.518	1	-4
608.688	1	10
608.858	1	-4
609.027	1	-5
609.197	1	10
609.367	1	11
609.536	1	10
609.706	1	0
609.876	1	1
610.045	1	0
610.215	1	1
610.385	1	4
610.554	1	7
610.724	1	10
610.894	1	0
611.063	1	6
611.233	1	-4
611.403	1	2
611.572	1	1
611.742	1	16
611.912	1	3
612.081	1	-2
612.251	1	8
612.421	1	-4
612.590	1	1
612.760	1	-5
612.930	1	11
613.099	1	4
613.269	1	7
613.439	1	-4
613.608	1	4
613.778	1	9
613.948	1	-2
614.117	1	3
614.287	1	7
614.457	1	11
614.626	1	0
614.796	1	5
614.966	1	-3
615.135	1	-1
615.305	1	5
615.475	1	6
615.644	1	-1
615.814	1	8
615.984	1	-3
616.153	1	-3
616.323	1	6
616.493	1	2
616.662	1	12
616.832	1	1
617.002	1	-2
617.171	1	2
617.341	1	3
617.511	1	0
617.680	1	2
617.850	1	-1
618.019	1	6
618.189	1	16
618.359	1	0
618.528	1	3
618.698	1	6
618.868	1	5
619.037	1	4
619.207	1	-3
619.377	1	-8
619.546	1	3
619.716	1	8
619.885	1	-4
620.055	1	-10
620.225	1	7
620.394	1	4
620.564	1	10
620.734	1	12
620.903	1	0
621.073	1	9
621.242	1	-1
621.412	1	4
621.582	1	2
621.751	1	9
621.921	1	8
622.091	1	4
622.260	1	3
622.430	1	13
622.599	1	3
622.769	1	1
622.939	1	7
623.108	1	0
623.278	1	-6
623.448	1	3
623.617	1	0
623.787	1	6
623.956	1	2
624.126	1	2
624.296	1	-1
624.465	1	-5
624.635	1	13
624.804	1	6
624.974	1	7
625.144	1	8
625.313	1	-1
625.483	1	-2
625.652	1	7
625.822	1	-4
625.992	1	-12
626.161	1	10
626.331	1	1
626.501	1	2
626.670	1	-1
626.840	1	-1
627.009	1	8
627.179	1	9
627.348	1	15
627.518	1	-2
627.688	1	4
627.857	1	7
628.027	1	7
628.196	1	10
628.366	1	15
628.536	1	6
628.705	1	3
628.875	1	2
629.044	1	4
629.214	1	8
629.384	1	6
629.553	1	5
629.723	1	6
629.892	1	0
630.062	1	1
630.232	1	-4
630.401	1	6
630.571	1	4
630.740	1	-2
630.910	1	6
631.079	1	8
631.249	1	-2
631.419	1	4
631.588	1	-6
631.758	1	6
631.927	1	1
632.097	1	5
632.266	1	-6
632.436	1	1
632.606	1	-7
632.775	1	2
632.945	1	11
633.114	1	13
633.284	1	5
633.453	1	4
633.623	1	-2
633.793	1	10
633.962	1	3
634.132	1	5
634.301	1	7
634.471	1	3
634.640	1	7
634.810	1	13
634.979	1	8
635.149	1	0
635.319	1	4
635.488	1	-1
635.658	1	-7
635.827	1	-10
635.997	1	6
636.166	1	3
636.336	1	0
636.505	1	17
636.675	1	-4
636.845	1	6
637.014	1	9
637.184	1	8
637.353	1	7
637.523	1	1
637.692	1	6
637.862	1	4
638.031	1	16
638.201	1	3
638.370	1	3
638.540	1	2
638.710	1	0
638.879	1	-8
639.049	1	-1
639.218	1	4
639.388	1	-11
639.557	1	3
639.727	1	3
639.896	1	6
640.066	1	7
640.235	1	7
640.405	1	16
640.574	1	-2
640.744	1	-2
640.914	1	-1
641.083	1	-1
641.253	1	-3
641.422	1	8
641.592	1	16
641.761	1	0
641.931	1	-2
642.100	1	18
642.270	1	-9
642.439	1	2
642.609	1	11
642.778	1	-3
642.948	1	0
643.117	1	10
643.287	1	12
643.456	1	3
643.626	1	10
643.795	1	-7
643.965	1	9
644.134	1	7
644.304	1	3
644.473	1	6
644.643	1	9
644.812	1	11
644.982	1	4
645.151	1	3
645.321	1	-4
645.490	1	16
645.660	1	5
645.829	1	6
645.999	1	1
646.168	1	7
646.338	1	6
646.507	1	-1
646.677	1	10
646.846	1	2
647.016	1	3
647.185	1	10
647.355	1	-5
647.524	1	9
647.694	1	11
647.863	1	4
648.033	1	10
648.202	1	2
648.372	1	-1
648.541	1	-5
648.711	1	2
648.880	1	-5
649.050	1	-3
649.219	1	-2
649.389	1	11
649.558	1	-1
649.728	1	6
649.897	1	-3
650.067	1	7
650.236	1	7
650.406	1	4
650.575	1	17
650.745	1	1
650.914	1	1
651.084	1	-7
651.253	1	7
651.423	1	6
651.592	1	2
651.762	1	-2
651.931	1	10
652.101	1	6
652.270	1	6
652.440	1	-1
652.609	1	-8
652.778	1	-4
652.948	1	1
653.117	1	3
653.287	1	2
653.456	1	4
653.626	1	16
653.795	1	11
653.965	1	11
654.134	1	5
654.304	1	-13
654.473	1	5
654.643	1	4
654.812	1	2
654.982	1	1
655.151	1	9
655.320	1	8
655.490	1	0
655.659	1	-3
655.829	1	4
655.998	1	-2
656.168	1	-5
656.337	1	12
656.507	1	18
656.676	1	5
656.846	1	17
657.015	1	6
657.184	1	10
657.354	1	9
657.523	1	3
657.693	1	17
657.862	1	6
658.032	1	-2
658.201	1	8
658.371	1	16
658.540	1	12
658.709	1	2
658.879	1	7
659.048	1	2
659.218	1	0
659.387	1	8
659.557	1	10
659.726	1	1
659.895	1	-3
660.065	1	3
660.234	1	-5
660.404	1	10
660.573	1	1
660.743	1	4
660.912	1	3
661.081	1	-1
661.251	1	1
661.420	1	17
661.590	1	14
661.759	1	10
661.929	1	6
662.098	1	13
662.267	1	7
662.437	1	3
662.606	1	9
662.776	1	0
662.945	1	0
663.115	1	-4
663.284	1	3
663.453	1	7
663.623	1	-4
663.792	1	-3
663.962	1	-3
664.131	1	-2
664.300	1	12
664.470	1	7
664.639	1	6
664.809	1	8
664.978	1	7
665.148	1	14
665.317	1	-6
665.486	1	4
665.656	1	-7
665.825	1	6
665.995	1	-5
666.164	1	6
666.333	1	15
666.503	1	-1
666.672	1	0
666.842	1	1
667.011	1	3
667.180	1	7
667.350	1	2
667.519	1	9
667.689	1	7
667.858	1	6
668.027	1	12
668.197	1	-2
668.366	1	-5
668.536	1	6
668.705	1	13
668.874	1	3
669.044	1	8
669.213	1	12
669.382	1	-1
669.552	1	10
669.721	1	11
669.891	1	18
670.060	1	10
670.229	1	20
670.399	1	-3
670.568	1	11
670.738	1	6
670.907	1	7
671.076	1	0
671.246	1	3
671.415	1	5
671.584	1	2
671.754	1	5
671.923	1	-6
672.093	1	8
672.262	1	-6
672.431	1	-2
672.601	1	-2
672.770	1	-4
672.939	1	6
673.109	1	4
673.278	1	9
673.448	1	7
673.617	1	10
673.786	1	8
