325.333	1	2
325.504	1	15
325.675	1	10
325.846	1	4
326.017	1	19
326.188	1	18
326.359	1	6
326.531	1	-2
326.702	1	1
326.873	1	14
327.044	1	4
327.215	1	9
327.386	1	11
327.557	1	4
327.728	1	-2
327.899	1	15
328.070	1	17
328.241	1	10
328.412	1	-14
328.583	1	12
328.754	1	11
328.926	1	16
329.097	1	-1
329.268	1	22
329.439	1	10
329.610	1	6
329.781	1	3
329.952	1	13
330.123	1	12
330.294	1	3
330.465	1	11
330.636	1	6
330.807	1	3
330.978	1	7
331.149	1	6
331.320	1	6
331.492	1	11
331.663	1	7
331.834	1	22
332.005	1	9
332.176	1	16
332.347	1	14
332.518	1	3
332.689	1	14
332.860	1	11
333.031	1	19
333.202	1	0
333.373	1	9
333.544	1	6
333.715	1	15
333.886	1	-5
334.057	1	13
334.228	1	6
334.399	1	5
334.570	1	17
334.741	1	-2
334.912	1	12
335.084	1	30
335.255	1	14
335.426	1	5
335.597	1	8
335.768	1	8
335.939	1	10
336.110	1	8
336.281	1	4
336.452	1	10
336.623	1	13
336.794	1	10
336.965	1	17
337.136	1	20
337.307	1	16
337.478	1	9
337.649	1	18
337.820	1	10
337.991	1	14
338.162	1	10
338.333	1	5
338.504	1	16
338.675	1	10
338.846	1	7
339.017	1	21
339.188	1	8
339.359	1	0
339.530	1	9
339.701	1	11
339.872	1	23
340.043	1	6
340.214	1	19
340.385	1	22
340.556	1	0
340.727	1	11
340.898	1	17
341.069	1	13
341.240	1	17
341.411	1	16
341.582	1	9
341.753	1	6
341.924	1	18
342.095	1	16
342.266	1	18
342.437	1	28
342.608	1	9
342.779	1	13
342.950	1	14
343.121	1	13
343.292	1	7
343.463	1	18
343.634	1	19
343.805	1	16
343.976	1	13
344.147	1	11
344.318	1	16
344.489	1	15
344.660	1	21
344.831	1	14
345.002	1	6
345.173	1	26
345.344	1	20
345.515	1	18
345.686	1	7
345.857	1	17
346.028	1	20
346.199	1	13
346.370	1	19
346.541	1	23
346.712	1	13
346.883	1	21
347.054	1	16
347.225	1	21
347.396	1	23
347.567	1	24
347.738	1	-2
347.909	1	35
348.080	1	12
348.251	1	26
348.422	1	25
348.593	1	20
348.764	1	20
348.935	1	18
349.106	1	18
349.277	1	15
349.448	1	20
349.619	1	20
349.790	1	23
349.961	1	23
350.132	1	28
350.303	1	23
350.474	1	35
350.645	1	17
350.816	1	23
350.987	1	20
351.157	1	15
351.328	1	20
351.499	1	32
351.670	1	18
351.841	1	31
352.012	1	20
352.183	1	24
352.354	1	32
352.525	1	30
352.696	1	28
352.867	1	10
353.038	1	29
353.209	1	28
353.380	1	31
353.551	1	13
353.722	1	25
353.893	1	30
354.064	1	28
354.235	1	29
354.406	1	18
354.576	1	23
354.747	1	24
354.918	1	29
355.089	1	29
355.260	1	36
355.431	1	40
355.602	1	20
355.773	1	37
355.944	1	23
356.115	1	31
356.286	1	30
356.457	1	21
356.628	1	25
356.799	1	17
356.970	1	39
357.141	1	19
357.311	1	21
357.482	1	34
357.653	1	23
357.824	1	31
357.995	1	30
358.166	1	14
358.337	1	28
358.508	1	26
358.679	1	32
358.850	1	22
359.021	1	15
359.192	1	38
359.363	1	26
359.533	1	22
359.704	1	39
359.875	1	26
360.046	1	19
360.217	1	18
360.388	1	24
360.559	1	21
360.730	1	18
360.901	1	34
361.072	1	41
361.243	1	35
361.414	1	24
361.584	1	30
361.755	1	30
361.926	1	15
362.097	1	37
362.268	1	26
362.439	1	20
362.610	1	41
362.781	1	20
362.952	1	28
363.123	1	21
363.293	1	18
363.464	1	37
363.635	1	35
363.806	1	19
363.977	1	30
364.148	1	42
364.319	1	28
364.490	1	19
364.661	1	25
364.832	1	27
365.002	1	30
365.173	1	37
365.344	1	42
365.515	1	22
365.686	1	29
365.857	1	32
366.028	1	32
366.199	1	29
366.370	1	39
366.540	1	24
366.711	1	23
366.882	1	22
367.053	1	33
367.224	1	41
367.395	1	26
367.566	1	41
367.737	1	29
367.908	1	32
368.078	1	33
368.249	1	35
368.420	1	27
368.591	1	37
368.762	1	36
368.933	1	34
369.104	1	27
369.274	1	26
369.445	1	39
369.616	1	41
369.787	1	28
369.958	1	47
370.129	1	32
370.300	1	34
370.471	1	30
370.641	1	32
370.812	1	26
370.983	1	36
371.154	1	31
371.325	1	34
371.496	1	36
371.667	1	36
371.837	1	22
372.008	1	34
372.179	1	25
372.350	1	38
372.521	1	47
372.692	1	20
372.863	1	40
373.033	1	25
373.204	1	18
373.375	1	45
373.546	1	51
373.717	1	36
373.888	1	47
374.059	1	43
374.229	1	41
374.400	1	31
374.571	1	33
374.742	1	49
374.913	1	41
375.084	1	32
375.254	1	37
375.425	1	27
375.596	1	38
375.767	1	44
375.938	1	35
376.109	1	41
376.279	1	28
376.450	1	47
376.621	1	43
376.792	1	35
376.963	1	39
377.134	1	44
377.304	1	38
377.475	1	34
377.646	1	44
377.817	1	44
377.988	1	36
378.159	1	42
378.329	1	45
378.500	1	38
378.671	1	41
378.842	1	41
379.013	1	26
379.184	1	34
379.354	1	42
379.525	1	48
379.696	1	48
379.867	1	48
380.038	1	40
380.209	1	37
380.379	1	37
380.550	1	40
380.721	1	46
380.892	1	37
381.063	1	35
381.233	1	44
381.404	1	32
381.575	1	44
381.746	1	39
381.917	1	40
382.087	1	39
382.258	1	34
382.429	1	37
382.600	1	42
382.771	1	48
382.941	1	35
383.112	1	47
383.283	1	48
383.454	1	36
383.625	1	37
383.795	1	32
383.966	1	46
384.137	1	42
384.308	1	49
384.479	1	63
384.649	1	40
384.820	1	45
384.991	1	40
385.162	1	37
385.333	1	36
385.503	1	37
385.674	1	29
385.845	1	52
386.016	1	44
386.187	1	51
386.357	1	57
386.528	1	35
386.699	1	44
386.870	1	55
387.041	1	61
387.211	1	45
387.382	1	53
387.553	1	46
387.724	1	44
387.894	1	44
388.065	1	50
388.236	1	41
388.407	1	45
388.578	1	35
388.748	1	43
388.919	1	49
389.090	1	47
389.261	1	44
389.431	1	50
389.602	1	45
389.773	1	48
389.944	1	55
390.114	1	50
390.285	1	48
390.456	1	42
390.627	1	46
390.798	1	45
390.968	1	47
391.139	1	58
391.310	1	39
391.481	1	49
391.651	1	40
391.822	1	42
391.993	1	45
392.164	1	45
392.334	1	46
392.505	1	37
392.676	1	44
392.847	1	54
393.017	1	52
393.188	1	51
393.359	1	37
393.530	1	50
393.700	1	50
393.871	1	46
394.042	1	52
394.213	1	37
394.383	1	47
394.554	1	62
394.725	1	54
394.896	1	40
395.066	1	49
395.237	1	47
395.408	1	47
395.579	1	41
395.749	1	51
395.920	1	46
396.091	1	45
396.262	1	51
396.432	1	49
396.603	1	50
396.774	1	62
396.945	1	48
397.115	1	52
397.286	1	51
397.457	1	56
397.627	1	47
397.798	1	55
397.969	1	41
398.140	1	53
398.310	1	50
398.481	1	66
398.652	1	62
398.823	1	50
398.993	1	54
399.164	1	50
399.335	1	54
399.505	1	52
399.676	1	48
399.847	1	53
400.018	1	53
400.188	1	54
400.359	1	52
400.530	1	46
400.700	1	59
400.871	1	43
401.042	1	45
401.213	1	50
401.383	1	56
401.554	1	61
401.725	1	50
401.895	1	44
402.066	1	51
402.237	1	45
402.408	1	51
402.578	1	48
402.749	1	41
402.920	1	57
403.090	1	46
403.261	1	48
403.432	1	58
403.603	1	63
403.773	1	54
403.944	1	62
404.115	1	51
404.285	1	59
404.456	1	47
404.627	1	49
404.797	1	43
404.968	1	49
405.139	1	58
405.310	1	61
405.480	1	48
405.651	1	55
405.822	1	50
405.992	1	41
406.163	1	50
406.334	1	57
406.504	1	43
406.675	1	60
406.846	1	53
407.016	1	62
407.187	1	61
407.358	1	41
407.528	1	39
407.699	1	48
407.870	1	53
408.041	1	62
408.211	1	62
408.382	1	47
408.553	1	44
408.723	1	64
408.894	1	57
409.065	1	45
409.235	1	62
409.406	1	49
409.577	1	46
409.747	1	51
409.918	1	50
410.089	1	58
410.259	1	43
410.430	1	68
410.601	1	56
410.771	1	58
410.942	1	62
411.113	1	52
411.283	1	53
411.454	1	61
411.625	1	53
411.795	1	55
411.966	1	51
412.137	1	53
412.307	1	52
412.478	1	55
412.649	1	60
412.819	1	52
412.990	1	48
413.161	1	57
413.331	1	45
413.502	1	55
413.672	1	58
413.843	1	47
414.014	1	45
414.184	1	57
414.355	1	49
414.526	1	53
414.696	1	64
414.867	1	51
415.038	1	40
415.208	1	57
415.379	1	61
415.550	1	66
415.720	1	41
415.891	1	56
416.062	1	62
416.232	1	53
416.403	1	50
416.573	1	61
416.744	1	36
416.915	1	51
417.085	1	52
417.256	1	50
417.427	1	61
417.597	1	47
417.768	1	50
417.939	1	50
418.109	1	55
418.280	1	63
418.450	1	51
418.621	1	40
418.792	1	53
418.962	1	51
419.133	1	64
419.304	1	52
419.474	1	51
419.645	1	55
419.815	1	43
419.986	1	52
420.157	1	58
420.327	1	58
420.498	1	52
420.669	1	44
420.839	1	53
421.010	1	56
421.180	1	58
421.351	1	57
421.522	1	53
421.692	1	63
421.863	1	60
422.033	1	56
422.204	1	52
422.375	1	44
422.545	1	53
422.716	1	48
422.886	1	47
423.057	1	65
423.228	1	56
423.398	1	45
423.569	1	50
423.740	1	45
423.910	1	45
424.081	1	31
424.251	1	40
424.422	1	56
424.593	1	35
424.763	1	51
424.934	1	51
425.104	1	47
425.275	1	53
425.445	1	56
425.616	1	37
425.787	1	35
425.957	1	50
426.128	1	52
426.298	1	52
426.469	1	48
426.640	1	55
426.810	1	51
426.981	1	53
427.151	1	44
427.322	1	50
427.493	1	48
427.663	1	48
427.834	1	46
428.004	1	45
428.175	1	48
428.345	1	47
428.516	1	39
428.687	1	47
428.857	1	47
429.028	1	44
429.198	1	47
429.369	1	51
429.540	1	53
429.710	1	40
429.881	1	61
430.051	1	46
430.222	1	38
430.392	1	48
430.563	1	57
430.734	1	56
430.904	1	52
431.075	1	53
431.245	1	47
431.416	1	53
431.586	1	47
431.757	1	52
431.927	1	39
432.098	1	54
432.269	1	46
432.439	1	48
432.610	1	54
432.780	1	51
432.951	1	57
433.121	1	54
433.292	1	58
433.462	1	43
433.633	1	49
433.804	1	49
433.974	1	46
434.145	1	56
434.315	1	38
434.486	1	42
434.656	1	55
434.827	1	46
434.997	1	40
435.168	1	54
435.339	1	51
435.509	1	47
435.680	1	48
435.850	1	43
436.021	1	54
436.191	1	41
436.362	1	48
436.532	1	38
436.703	1	42
436.873	1	47
437.044	1	33
437.214	1	51
437.385	1	33
437.556	1	32
437.726	1	60
437.897	1	54
438.067	1	51
438.238	1	44
438.408	1	49
438.579	1	43
438.749	1	48
438.920	1	42
439.090	1	58
439.261	1	43
439.431	1	34
439.602	1	46
439.772	1	37
439.943	1	56
440.113	1	48
440.284	1	35
440.455	1	38
440.625	1	43
440.796	1	53
440.966	1	31
441.137	1	41
441.307	1	38
441.478	1	50
441.648	1	52
441.819	1	49
441.989	1	53
442.160	1	43
442.330	1	46
442.501	1	44
442.671	1	39
442.842	1	24
443.012	1	41
443.183	1	41
443.353	1	39
443.524	1	37
443.694	1	47
443.865	1	33
444.035	1	48
444.206	1	35
444.376	1	34
444.547	1	56
444.717	1	49
444.888	1	45
445.058	1	49
445.229	1	39
445.399	1	37
445.570	1	42
445.740	1	29
445.911	1	40
446.081	1	29
446.252	1	54
446.422	1	35
446.593	1	43
446.763	1	34
446.934	1	42
447.104	1	38
447.275	1	35
447.445	1	45
447.616	1	39
447.786	1	36
447.957	1	50
448.127	1	46
448.298	1	43
448.468	1	41
448.639	1	37
448.809	1	45
448.979	1	39
449.150	1	54
449.320	1	40
449.491	1	51
449.661	1	39
449.832	1	40
450.002	1	40
450.173	1	34
450.343	1	32
450.514	1	39
450.684	1	29
450.855	1	34
451.025	1	45
451.196	1	45
451.366	1	41
451.537	1	37
451.707	1	22
451.878	1	33
452.048	1	42
452.218	1	40
452.389	1	48
452.559	1	41
452.730	1	50
452.900	1	30
453.071	1	27
453.241	1	37
453.412	1	32
453.582	1	31
453.753	1	35
453.923	1	34
454.093	1	44
454.264	1	45
454.434	1	26
454.605	1	38
454.775	1	36
454.946	1	32
455.116	1	33
455.287	1	21
455.457	1	30
455.628	1	43
455.798	1	29
455.968	1	47
456.139	1	33
456.309	1	31
456.480	1	28
456.650	1	38
456.821	1	32
456.991	1	30
457.161	1	26
457.332	1	42
457.502	1	22
457.673	1	31
457.843	1	41
458.014	1	39
458.184	1	24
458.355	1	39
458.525	1	30
458.695	1	29
458.866	1	37
459.036	1	36
459.207	1	31
459.377	1	29
459.548	1	39
459.718	1	31
459.888	1	35
460.059	1	41
460.229	1	33
460.400	1	39
460.570	1	29
460.740	1	22
460.911	1	32
461.081	1	30
461.252	1	33
461.422	1	34
461.593	1	23
461.763	1	35
461.933	1	46
462.104	1	25
462.274	1	33
462.445	1	33
462.615	1	28
462.785	1	31
462.956	1	36
463.126	1	24
463.297	1	30
463.467	1	31
463.638	1	28
463.808	1	31
463.978	1	17
464.149	1	28
464.319	1	24
464.490	1	37
464.660	1	25
464.830	1	31
465.001	1	24
465.171	1	22
465.342	1	44
465.512	1	21
465.682	1	28
465.853	1	34
466.023	1	20
466.194	1	24
466.364	1	35
466.534	1	26
466.705	1	30
466.875	1	19
467.045	1	12
467.216	1	28
467.386	1	33
467.557	1	30
467.727	1	13
467.897	1	28
468.068	1	34
468.238	1	25
468.409	1	33
468.579	1	41
468.749	1	23
468.920	1	22
469.090	1	28
469.260	1	22
469.431	1	3
469.601	1	23
469.772	1	24
469.942	1	24
470.112	1	29
470.283	1	21
470.453	1	18
470.623	1	27
470.794	1	17
470.964	1	39
471.135	1	27
471.305	1	17
471.475	1	29
471.646	1	14
471.816	1	19
471.986	1	25
472.157	1	35
472.327	1	12
472.497	1	21
472.668	1	13
472.838	1	17
473.009	1	34
473.179	1	20
473.349	1	19
473.520	1	34
473.690	1	28
473.860	1	29
474.031	1	13
474.201	1	16
474.371	1	33
474.542	1	21
474.712	1	28
474.882	1	27
475.053	1	36
475.223	1	18
475.394	1	33
475.564	1	20
475.734	1	20
475.905	1	42
476.075	1	25
476.245	1	27
476.416	1	34
476.586	1	26
476.756	1	25
476.927	1	25
477.097	1	24
477.267	1	12
477.438	1	20
477.608	1	15
477.778	1	23
477.949	1	29
478.119	1	28
478.289	1	33
478.460	1	28
478.630	1	20
478.800	1	22
478.971	1	26
479.141	1	22
479.311	1	18
479.482	1	23
479.652	1	18
479.822	1	16
479.993	1	22
480.163	1	30
480.333	1	31
480.504	1	19
480.674	1	22
480.844	1	9
481.015	1	23
481.185	1	18
481.355	1	23
481.525	1	19
481.696	1	20
481.866	1	29
482.036	1	25
482.207	1	25
482.377	1	21
482.547	1	31
482.718	1	15
482.888	1	21
483.058	1	13
483.229	1	17
483.399	1	18
483.569	1	29
483.740	1	18
483.910	1	16
484.080	1	25
484.250	1	11
484.421	1	27
484.591	1	26
484.761	1	26
484.932	1	27
485.102	1	25
485.272	1	24
485.443	1	32
485.613	1	10
485.783	1	19
485.953	1	19
486.124	1	23
486.294	1	11
486.464	1	19
486.635	1	28
486.805	1	26
486.975	1	14
487.146	1	24
487.316	1	21
487.486	1	15
487.656	1	11
487.827	1	20
487.997	1	11
488.167	1	19
488.338	1	20
488.508	1	18
488.678	1	17
488.848	1	24
489.019	1	9
489.189	1	23
489.359	1	19
489.529	1	24
489.700	1	15
489.870	1	22
490.040	1	8
490.211	1	15
490.381	1	11
490.551	1	10
490.721	1	18
490.892	1	16
491.062	1	15
491.232	1	15
491.402	1	15
491.573	1	2
491.743	1	8
491.913	1	19
492.084	1	19
492.254	1	6
492.424	1	6
492.594	1	9
492.765	1	23
492.935	1	15
493.105	1	26
493.275	1	13
493.446	1	28
493.616	1	26
493.786	1	12
493.956	1	17
494.127	1	10
494.297	1	5
494.467	1	11
494.637	1	8
494.808	1	7
494.978	1	7
495.148	1	6
495.318	1	16
495.489	1	22
495.659	1	15
495.829	1	15
495.999	1	10
496.170	1	17
496.340	1	29
496.510	1	21
496.680	1	6
496.851	1	10
497.021	1	11
497.191	1	18
497.361	1	12
497.532	1	6
497.702	1	10
497.872	1	8
498.042	1	24
498.213	1	13
498.383	1	15
498.553	1	9
498.723	1	10
498.894	1	14
499.064	1	17
499.234	1	13
499.404	1	9
499.574	1	17
499.745	1	23
499.915	1	17
500.085	1	11
500.255	1	22
500.426	1	13
500.596	1	12
500.766	1	15
500.936	1	9
501.106	1	8
501.277	1	28
501.447	1	10
501.617	1	19
501.787	1	0
501.958	1	8
502.128	1	13
502.298	1	21
502.468	1	18
502.638	1	16
502.809	1	20
502.979	1	11
503.149	1	11
503.319	1	10
503.489	1	9
503.660	1	16
503.830	1	21
504.000	1	11
504.170	1	14
504.340	1	11
504.511	1	20
504.681	1	11
504.851	1	18
505.021	1	22
505.192	1	0
505.362	1	20
505.532	1	12
505.702	1	16
505.872	1	11
506.043	1	8
506.213	1	12
506.383	1	8
506.553	1	18
506.723	1	12
506.893	1	19
507.064	1	18
507.234	1	9
507.404	1	8
507.574	1	12
507.744	1	11
507.915	1	9
508.085	1	24
508.255	1	12
508.425	1	19
508.595	1	11
508.766	1	22
508.936	1	8
509.106	1	26
509.276	1	12
509.446	1	8
509.616	1	8
509.787	1	15
509.957	1	9
510.127	1	13
510.297	1	18
510.467	1	-7
510.638	1	8
510.808	1	9
510.978	1	4
511.148	1	13
511.318	1	13
511.488	1	7
511.659	1	6
511.829	1	2
511.999	1	18
512.169	1	15
512.339	1	9
512.509	1	3
512.680	1	11
512.850	1	5
513.020	1	15
513.190	1	17
513.360	1	6
513.530	1	11
513.700	1	18
513.871	1	14
514.041	1	7
514.211	1	22
514.381	1	11
514.551	1	12
514.721	1	6
514.892	1	19
515.062	1	7
515.232	1	18
515.402	1	5
515.572	1	1
515.742	1	10
515.912	1	15
516.083	1	6
516.253	1	15
516.423	1	7
516.593	1	17
516.763	1	17
516.933	1	6
517.104	1	13
517.274	1	12
517.444	1	8
517.614	1	2
517.784	1	6
517.954	1	13
518.124	1	11
518.294	1	10
518.465	1	7
518.635	1	11
518.805	1	-7
518.975	1	10
519.145	1	7
519.315	1	8
519.485	1	6
519.656	1	14
519.826	1	7
519.996	1	5
520.166	1	8
520.336	1	24
520.506	1	11
520.676	1	5
520.846	1	6
521.017	1	10
521.187	1	6
521.357	1	18
521.527	1	-2
521.697	1	4
521.867	1	5
522.037	1	17
522.207	1	12
522.377	1	10
522.548	1	5
522.718	1	0
522.888	1	19
523.058	1	3
523.228	1	16
523.398	1	19
523.568	1	11
523.738	1	3
523.909	1	16
524.079	1	0
524.249	1	14
524.419	1	5
524.589	1	6
524.759	1	0
524.929	1	6
525.099	1	10
525.269	1	14
525.439	1	2
525.610	1	16
525.780	1	8
525.950	1	16
526.120	1	6
526.290	1	7
526.460	1	1
526.630	1	1
526.800	1	5
526.970	1	5
527.140	1	20
527.311	1	-7
527.481	1	0
527.651	1	16
527.821	1	7
527.991	1	17
528.161	1	12
528.331	1	-4
528.501	1	4
528.671	1	3
528.841	1	5
529.011	1	3
529.181	1	15
529.352	1	8
529.522	1	5
529.692	1	6
529.862	1	-4
530.032	1	4
530.202	1	9
530.372	1	8
530.542	1	13
530.712	1	10
530.882	1	10
531.052	1	7
531.222	1	3
531.392	1	5
531.563	1	4
531.733	1	11
531.903	1	1
532.073	1	4
532.243	1	4
532.413	1	9
532.583	1	13
532.753	1	8
532.923	1	5
533.093	1	15
533.263	1	1
533.433	1	10
533.603	1	5
533.773	1	-4
533.943	1	2
534.113	1	4
534.284	1	15
534.454	1	10
534.624	1	19
534.794	1	-1
534.964	1	12
535.134	1	-3
535.304	1	10
535.474	1	10
535.644	1	-2
535.814	1	-4
535.984	1	3
536.154	1	-1
536.324	1	-1
536.494	1	5
536.664	1	8
536.834	1	12
537.004	1	6
537.174	1	22
537.344	1	2
537.514	1	-3
537.685	1	1
537.855	1	13
538.025	1	7
538.195	1	15
538.365	1	10
538.535	1	3
538.705	1	10
538.875	1	17
539.045	1	3
539.215	1	3
539.385	1	8
539.555	1	10
539.725	1	8
539.895	1	8
540.065	1	11
540.235	1	8
540.405	1	-10
540.575	1	10
540.745	1	6
540.915	1	12
541.085	1	10
541.255	1	1
541.425	1	6
541.595	1	7
541.765	1	7
541.935	1	9
542.105	1	-3
542.275	1	9
542.445	1	-4
542.615	1	13
542.785	1	11
542.955	1	-1
543.125	1	-4
543.295	1	2
543.465	1	5
543.635	1	4
543.805	1	18
543.975	1	10
544.145	1	4
544.315	1	14
544.485	1	8
544.655	1	14
544.825	1	-2
544.995	1	8
545.165	1	-5
545.335	1	-1
545.505	1	-1
545.675	1	4
545.845	1	5
546.015	1	10
546.185	1	17
546.355	1	7
546.525	1	9
546.695	1	4
546.865	1	-1
547.035	1	14
547.205	1	0
547.375	1	9
547.545	1	9
547.715	1	-1
547.885	1	4
548.055	1	4
548.225	1	9
548.395	1	7
548.565	1	6
548.735	1	1
548.905	1	1
549.075	1	5
549.245	1	11
549.415	1	-4
549.585	1	14
549.755	1	1
549.925	1	5
550.095	1	13
550.265	1	2
550.435	1	7
550.605	1	5
550.775	1	8
550.945	1	9
551.115	1	4
551.285	1	8
551.455	1	0
551.625	1	8
551.795	1	11
551.965	1	2
552.135	1	-3
552.305	1	9
552.475	1	4
552.645	1	8
552.815	1	3
552.985	1	7
553.155	1	1
553.325	1	8
553.495	1	2
553.665	1	7
553.835	1	6
554.004	1	5
554.174	1	1
554.344	1	8
554.514	1	7
554.684	1	7
554.854	1	5
555.024	1	-1
555.194	1	-4
555.364	1	11
555.534	1	2
555.704	1	4
555.874	1	11
556.044	1	2
556.214	1	2
556.384	1	-5
556.554	1	19
556.724	1	4
556.894	1	11
557.064	1	3
557.234	1	-4
557.404	1	5
557.573	1	4
557.743	1	8
557.913	1	4
558.083	1	1
558.253	1	8
558.423	1	1
558.593	1	14
558.763	1	10
558.933	1	-2
559.103	1	5
559.273	1	-6
559.443	1	7
559.613	1	6
559.783	1	4
559.953	1	8
560.122	1	11
560.292	1	13
560.462	1	6
560.632	1	6
560.802	1	8
560.972	1	2
561.142	1	5
561.312	1	1
561.482	1	10
561.652	1	16
561.822	1	4
561.992	1	4
562.162	1	8
562.331	1	14
562.501	1	-3
562.671	1	7
562.841	1	2
563.011	1	5
563.181	1	-2
563.351	1	-10
563.521	1	4
563.691	1	-1
563.861	1	5
564.031	1	9
564.201	1	11
564.370	1	-4
564.540	1	10
564.710	1	5
564.880	1	12
565.050	1	11
565.220	1	-4
565.390	1	7
565.560	1	8
565.730	1	9
565.900	1	4
566.069	1	4
566.239	1	4
566.409	1	9
566.579	1	7
566.749	1	6
566.919	1	9
567.089	1	8
567.259	1	17
567.429	1	4
567.599	1	2
567.768	1	5
567.938	1	4
568.108	1	7
568.278	1	3
568.448	1	2
568.618	1	0
568.788	1	9
568.958	1	-2
569.128	1	5
569.297	1	3
569.467	1	3
569.637	1	8
569.807	1	8
569.977	1	9
570.147	1	10
570.317	1	1
570.487	1	2
570.656	1	10
570.826	1	-1
570.996	1	3
571.166	1	13
571.336	1	1
571.506	1	2
571.676	1	8
571.846	1	14
572.015	1	-1
572.185	1	11
572.355	1	4
572.525	1	14
572.695	1	2
572.865	1	0
573.035	1	9
573.205	1	1
573.374	1	-5
573.544	1	-1
573.714	1	6
573.884	1	7
574.054	1	11
574.224	1	4
574.394	1	-3
574.563	1	9
574.733	1	4
574.903	1	6
575.073	1	-7
575.243	1	0
575.413	1	2
575.583	1	0
575.752	1	14
575.922	1	0
576.092	1	6
576.262	1	-2
576.432	1	12
576.602	1	-1
576.772	1	10
576.941	1	14
577.111	1	-6
577.281	1	-8
577.451	1	-4
577.621	1	11
577.791	1	9
577.960	1	-3
578.130	1	1
578.300	1	8
578.470	1	15
578.640	1	6
578.810	1	3
578.979	1	5
579.149	1	-2
579.319	1	1
579.489	1	7
579.659	1	-1
579.829	1	2
579.998	1	7
580.168	1	14
580.338	1	5
580.508	1	9
580.678	1	3
580.848	1	6
581.017	1	7
581.187	1	4
581.357	1	-2
581.527	1	9
581.697	1	12
581.867	1	13
582.036	1	-2
582.206	1	11
582.376	1	12
582.546	1	-2
582.716	1	3
582.885	1	-8
583.055	1	-4
583.225	1	-7
583.395	1	3
583.565	1	-14
583.735	1	16
583.904	1	7
584.074	1	8
584.244	1	4
584.414	1	4
584.584	1	4
584.753	1	-1
584.923	1	3
585.093	1	9
585.263	1	2
585.433	1	3
585.602	1	2
585.772	1	0
585.942	1	3
586.112	1	2
586.282	1	4
586.451	1	-2
586.621	1	1
586.791	1	1
586.961	1	3
587.131	1	7
587.300	1	0
587.470	1	9
587.640	1	7
587.810	1	2
587.980	1	7
588.149	1	6
588.319	1	4
588.489	1	7
588.659	1	2
588.829	1	6
588.998	1	7
589.168	1	6
589.338	1	2
589.508	1	14
589.677	1	-3
589.847	1	3
590.017	1	15
590.187	1	-3
590.357	1	7
590.526	1	12
590.696	1	11
590.866	1	9
591.036	1	-3
591.205	1	12
591.375	1	-2
591.545	1	-4
591.715	1	8
591.885	1	1
592.054	1	9
592.224	1	0
592.394	1	7
592.564	1	2
592.733	1	12
592.903	1	6
593.073	1	8
593.243	1	2
593.412	1	4
593.582	1	1
593.752	1	-3
593.922	1	3
594.091	1	0
594.261	1	17
594.431	1	8
594.601	1	0
594.771	1	6
594.940	1	6
595.110	1	-1
595.280	1	-2
595.450	1	5
595.619	1	10
595.789	1	10
595.959	1	8
596.129	1	9
596.298	1	6
596.468	1	4
596.638	1	4
596.808	1	4
596.977	1	1
597.147	1	3
597.317	1	2
597.487	1	5
597.656	1	7
597.826	1	7
597.996	1	11
598.166	1	6
598.335	1	-8
598.505	1	-1
598.675	1	-1
598.844	1	8
599.014	1	4
599.184	1	11
599.354	1	1
599.523	1	3
599.693	1	4
599.863	1	6
600.033	1	11
600.202	1	3
600.372	1	0
600.542	1	3
600.712	1	-1
600.881	1	8
601.051	1	6
601.221	1	16
601.390	1	-1
601.560	1	4
601.730	1	4
601.900	1	1
602.069	1	11
602.239	1	9
602.409	1	-1
602.578	1	-4
602.748	1	9
602.918	1	13
603.088	1	5
603.257	1	10
603.427	1	2
603.597	1	7
603.767	1	0
603.936	1	4
604.106	1	9
604.276	1	13
604.445	1	6
604.615	1	7
604.785	1	7
604.954	1	-5
605.124	1	5
605.294	1	1
605.464	1	-14
605.633	1	4
605.803	1	4
605.973	1	4
606.142	1	7
606.312	1	9
606.482	1	1
606.652	1	16
606.821	1	-2
606.991	1	8
607.161	1	0
607.330	1	4
607.500	1	9
607.670	1	-7
607.839	1	16
608.009	1	16
608.179	1	0
608.348	1	3
608.518	1	3
608.688	1	6
608.858	1	1
609.027	1	-8
609.197	1	10
609.367	1	15
609.536	1	10
609.706	1	6
609.876	1	-6
610.045	1	3
610.215	1	9
610.385	1	3
610.554	1	13
610.724	1	13
610.894	1	8
611.063	1	2
611.233	1	1
611.403	1	-2
611.572	1	-2
611.742	1	10
611.912	1	2
612.081	1	6
612.251	1	16
612.421	1	4
612.590	1	4
612.760	1	5
612.930	1	12
613.099	1	3
613.269	1	14
613.439	1	-8
613.608	1	-3
613.778	1	4
613.948	1	-5
614.117	1	16
614.287	1	14
614.457	1	4
614.626	1	11
614.796	1	8
614.966	1	3
615.135	1	-5
615.305	1	8
615.475	1	4
615.644	1	2
615.814	1	5
615.984	1	-3
616.153	1	3
616.323	1	4
616.493	1	10
616.662	1	15
616.832	1	7
617.002	1	-1
617.171	1	2
617.341	1	8
617.511	1	3
617.680	1	1
617.850	1	8
618.019	1	12
618.189	1	16
618.359	1	5
618.528	1	5
618.698	1	11
618.868	1	-2
619.037	1	2
619.207	1	-2
619.377	1	-4
619.546	1	5
619.716	1	9
619.885	1	8
620.055	1	-5
620.225	1	9
620.394	1	-3
620.564	1	14
620.734	1	6
620.903	1	-12
621.073	1	12
621.242	1	12
621.412	1	-3
621.582	1	4
621.751	1	11
621.921	1	9
622.091	1	1
622.260	1	6
622.430	1	3
622.599	1	4
622.769	1	4
622.939	1	5
623.108	1	10
623.278	1	-2
623.448	1	5
623.617	1	5
623.787	1	7
623.956	1	13
624.126	1	6
624.296	1	0
624.465	1	7
624.635	1	20
624.804	1	11
624.974	1	1
625.144	1	12
625.313	1	3
625.483	1	-3
625.652	1	2
625.822	1	2
625.992	1	3
626.161	1	21
626.331	1	5
626.501	1	7
626.670	1	7
626.840	1	1
627.009	1	0
627.179	1	16
627.348	1	8
627.518	1	4
627.688	1	3
627.857	1	13
628.027	1	-1
628.196	1	19
628.366	1	14
628.536	1	5
628.705	1	7
628.875	1	8
629.044	1	11
629.214	1	13
629.384	1	10
629.553	1	21
629.723	1	8
629.892	1	8
630.062	1	11
630.232	1	1
630.401	1	8
630.571	1	-1
630.740	1	10
630.910	1	9
631.079	1	10
631.249	1	14
631.419	1	13
631.588	1	-6
631.758	1	6
631.927	1	4
632.097	1	5
632.266	1	-2
632.436	1	11
632.606	1	-8
632.775	1	5
632.945	1	5
633.114	1	12
633.284	1	3
633.453	1	9
633.623	1	-6
633.793	1	7
633.962	1	5
634.132	1	8
634.301	1	8
634.471	1	9
634.640	1	8
634.810	1	10
634.979	1	12
635.149	1	14
635.319	1	7
635.488	1	3
635.658	1	-1
635.827	1	2
635.997	1	3
636.166	1	10
636.336	1	2
636.505	1	19
636.675	1	3
636.845	1	18
637.014	1	3
637.184	1	12
637.353	1	14
637.523	1	6
637.692	1	4
637.862	1	2
638.031	1	12
638.201	1	9
638.370	1	7
638.540	1	8
638.710	1	5
638.879	1	-4
639.049	1	6
639.218	1	4
639.388	1	9
639.557	1	7
639.727	1	13
639.896	1	1
640.066	1	1
640.235	1	3
640.405	1	7
640.574	1	3
640.744	1	0
640.914	1	5
641.083	1	5
641.253	1	7
641.422	1	-2
641.592	1	15
641.761	1	2
641.931	1	7
642.100	1	30
642.270	1	8
642.439	1	6
642.609	1	11
642.778	1	-1
642.948	1	12
643.117	1	8
643.287	1	17
643.456	1	1
643.626	1	15
643.795	1	14
643.965	1	6
644.134	1	7
644.304	1	-2
644.473	1	7
644.643	1	20
644.812	1	4
644.982	1	17
645.151	1	13
645.321	1	1
645.490	1	26
645.660	1	-9
645.829	1	1
645.999	1	1
646.168	1	4
646.338	1	13
646.507	1	10
646.677	1	8
646.846	1	6
647.016	1	4
647.185	1	8
647.355	1	-4
647.524	1	14
647.694	1	14
647.863	1	20
648.033	1	7
648.202	1	15
648.372	1	6
648.541	1	8
648.711	1	8
648.880	1	4
649.050	1	0
649.219	1	2
649.389	1	13
649.558	1	8
649.728	1	11
649.897	1	11
650.067	1	12
650.236	1	7
650.406	1	11
650.575	1	9
650.745	1	9
650.914	1	0
651.084	1	3
651.253	1	6
651.423	1	5
651.592	1	5
651.762	1	-6
651.931	1	25
652.101	1	-2
652.270	1	15
652.440	1	13
652.609	1	3
652.778	1	11
652.948	1	9
653.117	1	10
653.287	1	1
653.456	1	6
653.626	1	6
653.795	1	4
653.965	1	15
654.134	1	8
654.304	1	-12
654.473	1	12
654.643	1	15
654.812	1	6
654.982	1	14
655.151	1	5
655.320	1	4
655.490	1	-7
655.659	1	5
655.829	1	1
655.998	1	4
656.168	1	2
656.337	1	10
656.507	1	21
656.676	1	6
656.846	1	6
657.015	1	11
657.184	1	14
657.354	1	12
657.523	1	7
657.693	1	8
657.862	1	16
658.032	1	5
658.201	1	9
658.371	1	8
658.540	1	3
658.709	1	4
658.879	1	11
659.048	1	1
659.218	1	-1
659.387	1	11
659.557	1	9
659.726	1	17
659.895	1	10
660.065	1	-3
660.234	1	4
660.404	1	10
660.573	1	14
660.743	1	4
660.912	1	8
661.081	1	16
661.251	1	11
661.420	1	17
661.590	1	9
661.759	1	7
661.929	1	13
662.098	1	18
662.267	1	2
662.437	1	15
662.606	1	2
662.776	1	14
662.945	1	3
663.115	1	22
663.284	1	-3
663.453	1	14
663.623	1	0
663.792	1	11
663.962	1	7
664.131	1	15
664.300	1	15
664.470	1	17
664.639	1	10
664.809	1	13
664.978	1	11
665.148	1	13
665.317	1	4
665.486	1	19
665.656	1	10
665.825	1	12
665.995	1	1
666.164	1	3
666.333	1	9
666.503	1	11
666.672	1	0
666.842	1	10
667.011	1	3
667.180	1	13
667.350	1	6
667.519	1	7
667.689	1	5
667.858	1	15
668.027	1	20
668.197	1	11
668.366	1	-3
668.536	1	6
668.705	1	8
668.874	1	18
669.044	1	10
669.213	1	20
669.382	1	1
669.552	1	18
669.721	1	18
669.891	1	25
670.060	1	8
670.229	1	19
670.399	1	8
670.568	1	25
670.738	1	17
670.907	1	-2
671.076	1	3
671.246	1	5
671.415	1	10
671.584	1	2
671.754	1	4
671.923	1	8
672.093	1	13
672.262	1	-1
672.431	1	4
672.601	1	-3
672.770	1	2
672.939	1	14
673.109	1	6
673.278	1	11
673.448	1	22
673.617	1	9
673.786	1	17
