325.333	1	6
325.504	1	-1
325.675	1	12
325.846	1	-6
326.017	1	11
326.188	1	8
326.359	1	7
326.531	1	-7
326.702	1	-3
326.873	1	7
327.044	1	4
327.215	1	1
327.386	1	3
327.557	1	6
327.728	1	2
327.899	1	11
328.070	1	21
328.241	1	3
328.412	1	-9
328.583	1	7
328.754	1	5
328.926	1	10
329.097	1	-6
329.268	1	16
329.439	1	-2
329.610	1	11
329.781	1	-9
329.952	1	10
330.123	1	-1
330.294	1	1
330.465	1	-1
330.636	1	7
330.807	1	0
330.978	1	3
331.149	1	0
331.320	1	9
331.492	1	1
331.663	1	6
331.834	1	10
332.005	1	4
332.176	1	10
332.347	1	12
332.518	1	4
332.689	1	18
332.860	1	3
333.031	1	18
333.202	1	3
333.373	1	10
333.544	1	3
333.715	1	2
333.886	1	2
334.057	1	-2
334.228	1	-5
334.399	1	5
334.570	1	6
334.741	1	-4
334.912	1	7
335.084	1	16
335.255	1	5
335.426	1	6
335.597	1	6
335.768	1	0
335.939	1	-5
336.110	1	7
336.281	1	-2
336.452	1	-1
336.623	1	-3
336.794	1	12
336.965	1	6
337.136	1	6
337.307	1	-1
337.478	1	4
337.649	1	9
337.820	1	3
337.991	1	0
338.162	1	13
338.333	1	-4
338.504	1	10
338.675	1	0
338.846	1	3
339.017	1	-4
339.188	1	-3
339.359	1	-8
339.530	1	-3
339.701	1	8
339.872	1	19
340.043	1	5
340.214	1	7
340.385	1	8
340.556	1	-8
340.727	1	12
340.898	1	16
341.069	1	10
341.240	1	2
341.411	1	6
341.582	1	2
341.753	1	-1
341.924	1	1
342.095	1	4
342.266	1	13
342.437	1	9
342.608	1	4
342.779	1	7
342.950	1	8
343.121	1	6
343.292	1	1
343.463	1	7
343.634	1	6
343.805	1	11
343.976	1	20
344.147	1	7
344.318	1	-3
344.489	1	-1
344.660	1	11
344.831	1	5
345.002	1	-4
345.173	1	12
345.344	1	9
345.515	1	11
345.686	1	5
345.857	1	9
346.028	1	11
346.199	1	6
346.370	1	7
346.541	1	11
346.712	1	7
346.883	1	4
347.054	1	0
347.225	1	11
347.396	1	10
347.567	1	8
347.738	1	-3
347.909	1	20
348.080	1	-4
348.251	1	9
348.422	1	15
348.593	1	8
348.764	1	-3
348.935	1	-1
349.106	1	1
349.277	1	5
349.448	1	11
349.619	1	0
349.790	1	9
349.961	1	15
350.132	1	13
350.303	1	9
350.474	1	13
350.645	1	6
350.816	1	12
350.987	1	15
351.157	1	2
351.328	1	9
351.499	1	14
351.670	1	-1
351.841	1	18
352.012	1	19
352.183	1	10
352.354	1	11
352.525	1	17
352.696	1	15
352.867	1	3
353.038	1	16
353.209	1	10
353.380	1	6
353.551	1	3
353.722	1	19
353.893	1	10
354.064	1	23
354.235	1	5
354.406	1	9
354.576	1	12
354.747	1	0
354.918	1	0
355.089	1	-5
355.260	1	16
355.431	1	9
355.602	1	12
355.773	1	10
355.944	1	10
356.115	1	9
356.286	1	8
356.457	1	5
356.628	1	14
356.799	1	11
356.970	1	21
357.141	1	-6
357.311	1	6
357.482	1	2
357.653	1	6
357.824	1	13
357.995	1	18
358.166	1	1
358.337	1	8
358.508	1	13
358.679	1	0
358.850	1	6
359.021	1	9
359.192	1	17
359.363	1	7
359.533	1	0
359.704	1	12
359.875	1	9
360.046	1	12
360.217	1	-7
360.388	1	15
360.559	1	-4
360.730	1	14
360.901	1	15
361.072	1	17
361.243	1	6
361.414	1	9
361.584	1	12
361.755	1	11
361.926	1	17
362.097	1	2
362.268	1	19
362.439	1	10
362.610	1	21
362.781	1	7
362.952	1	0
363.123	1	14
363.293	1	5
363.464	1	8
363.635	1	16
363.806	1	1
363.977	1	7
364.148	1	9
364.319	1	13
364.490	1	16
364.661	1	16
364.832	1	19
365.002	1	11
365.173	1	14
365.344	1	19
365.515	1	8
365.686	1	4
365.857	1	11
366.028	1	18
366.199	1	16
366.370	1	12
366.540	1	2
366.711	1	-3
366.882	1	6
367.053	1	13
367.224	1	24
367.395	1	6
367.566	1	25
367.737	1	10
367.908	1	16
368.078	1	7
368.249	1	11
368.420	1	2
368.591	1	11
368.762	1	17
368.933	1	9
369.104	1	-2
369.274	1	15
369.445	1	13
369.616	1	15
369.787	1	19
369.958	1	17
370.129	1	0
370.300	1	23
370.471	1	6
370.641	1	16
370.812	1	19
370.983	1	7
371.154	1	4
371.325	1	18
371.496	1	13
371.667	1	16
371.837	1	10
372.008	1	12
372.179	1	6
372.350	1	29
372.521	1	13
372.692	1	10
372.863	1	7
373.033	1	0
373.204	1	9
373.375	1	12
373.546	1	14
373.717	1	20
373.888	1	19
374.059	1	13
374.229	1	23
374.400	1	6
374.571	1	8
374.742	1	13
374.913	1	9
375.084	1	10
375.254	1	17
375.425	1	13
375.596	1	12
375.767	1	4
375.938	1	20
376.109	1	18
376.279	1	-3
376.450	1	8
376.621	1	21
376.792	1	9
376.963	1	15
377.134	1	16
377.304	1	17
377.475	1	2
377.646	1	13
377.817	1	11
377.988	1	12
378.159	1	16
378.329	1	21
378.500	1	13
378.671	1	20
378.842	1	6
379.013	1	6
379.184	1	8
379.354	1	20
379.525	1	10
379.696	1	20
379.867	1	24
380.038	1	17
380.209	1	16
380.379	1	15
380.550	1	3
380.721	1	9
380.892	1	10
381.063	1	17
381.233	1	14
381.404	1	22
381.575	1	24
381.746	1	19
381.917	1	7
382.087	1	18
382.258	1	7
382.429	1	8
382.600	1	28
382.771	1	14
382.941	1	11
383.112	1	18
383.283	1	18
383.454	1	19
383.625	1	12
383.795	1	6
383.966	1	18
384.137	1	18
384.308	1	17
384.479	1	16
384.649	1	16
384.820	1	18
384.991	1	8
385.162	1	15
385.333	1	7
385.503	1	5
385.674	1	3
385.845	1	22
386.016	1	8
386.187	1	10
386.357	1	26
386.528	1	18
386.699	1	9
386.870	1	28
387.041	1	16
387.211	1	14
387.382	1	24
387.553	1	15
387.724	1	11
387.894	1	23
388.065	1	15
388.236	1	17
388.407	1	13
388.578	1	15
388.748	1	8
388.919	1	31
389.090	1	18
389.261	1	20
389.431	1	17
389.602	1	12
389.773	1	14
389.944	1	16
390.114	1	13
390.285	1	10
390.456	1	19
390.627	1	15
390.798	1	18
390.968	1	5
391.139	1	20
391.310	1	17
391.481	1	22
391.651	1	18
391.822	1	9
391.993	1	20
392.164	1	5
392.334	1	26
392.505	1	6
392.676	1	20
392.847	1	18
393.017	1	29
393.188	1	20
393.359	1	14
393.530	1	20
393.700	1	20
393.871	1	13
394.042	1	7
394.213	1	7
394.383	1	14
394.554	1	19
394.725	1	19
394.896	1	21
395.066	1	24
395.237	1	20
395.408	1	12
395.579	1	18
395.749	1	14
395.920	1	14
396.091	1	19
396.262	1	6
396.432	1	18
396.603	1	31
396.774	1	21
396.945	1	18
397.115	1	17
397.286	1	11
397.457	1	14
397.627	1	15
397.798	1	15
397.969	1	12
398.140	1	7
398.310	1	17
398.481	1	19
398.652	1	18
398.823	1	19
398.993	1	16
399.164	1	21
399.335	1	25
399.505	1	17
399.676	1	19
399.847	1	20
400.018	1	16
400.188	1	12
400.359	1	16
400.530	1	6
400.700	1	20
400.871	1	11
401.042	1	10
401.213	1	14
401.383	1	19
401.554	1	17
401.725	1	15
401.895	1	11
402.066	1	21
402.237	1	19
402.408	1	19
402.578	1	13
402.749	1	21
402.920	1	17
403.090	1	9
403.261	1	18
403.432	1	16
403.603	1	16
403.773	1	27
403.944	1	23
404.115	1	26
404.285	1	22
404.456	1	17
404.627	1	17
404.797	1	12
404.968	1	12
405.139	1	12
405.310	1	29
405.480	1	19
405.651	1	13
405.822	1	15
405.992	1	16
406.163	1	15
406.334	1	16
406.504	1	12
406.675	1	23
406.846	1	16
407.016	1	23
407.187	1	25
407.358	1	7
407.528	1	13
407.699	1	8
407.870	1	4
408.041	1	14
408.211	1	19
408.382	1	3
408.553	1	10
408.723	1	14
408.894	1	17
409.065	1	19
409.235	1	14
409.406	1	16
409.577	1	15
409.747	1	22
409.918	1	16
410.089	1	20
410.259	1	17
410.430	1	19
410.601	1	17
410.771	1	24
410.942	1	27
411.113	1	17
411.283	1	7
411.454	1	19
411.625	1	22
411.795	1	17
411.966	1	20
412.137	1	18
412.307	1	13
412.478	1	10
412.649	1	22
412.819	1	18
412.990	1	14
413.161	1	13
413.331	1	5
413.502	1	21
413.672	1	16
413.843	1	16
414.014	1	13
414.184	1	23
414.355	1	26
414.526	1	19
414.696	1	26
414.867	1	20
415.038	1	-2
415.208	1	20
415.379	1	26
415.550	1	21
415.720	1	18
415.891	1	10
416.062	1	19
416.232	1	24
416.403	1	27
416.573	1	15
416.744	1	16
416.915	1	22
417.085	1	16
417.256	1	12
417.427	1	20
417.597	1	20
417.768	1	6
417.939	1	18
418.109	1	12
418.280	1	25
418.450	1	28
418.621	1	7
418.792	1	29
418.962	1	22
419.133	1	29
419.304	1	11
419.474	1	19
419.645	1	15
419.815	1	28
419.986	1	16
420.157	1	27
420.327	1	28
420.498	1	16
420.669	1	14
420.839	1	17
421.010	1	26
421.180	1	27
421.351	1	14
421.522	1	23
421.692	1	18
421.863	1	19
422.033	1	18
422.204	1	19
422.375	1	17
422.545	1	19
422.716	1	8
422.886	1	19
423.057	1	24
423.228	1	20
423.398	1	8
423.569	1	15
423.740	1	15
423.910	1	2
424.081	1	14
424.251	1	8
424.422	1	19
424.593	1	18
424.763	1	16
424.934	1	25
425.104	1	16
425.275	1	7
425.445	1	3
425.616	1	19
425.787	1	6
425.957	1	18
426.128	1	23
426.298	1	17
426.469	1	9
426.640	1	19
426.810	1	19
426.981	1	19
427.151	1	13
427.322	1	23
427.493	1	14
427.663	1	16
427.834	1	13
428.004	1	27
428.175	1	16
428.345	1	14
428.516	1	9
428.687	1	20
428.857	1	11
429.028	1	8
429.198	1	15
429.369	1	18
429.540	1	16
429.710	1	4
429.881	1	19
430.051	1	17
430.222	1	5
430.392	1	19
430.563	1	26
430.734	1	24
430.904	1	20
431.075	1	26
431.245	1	12
431.416	1	25
431.586	1	18
431.757	1	24
431.927	1	6
432.098	1	24
432.269	1	12
432.439	1	19
432.610	1	14
432.780	1	27
432.951	1	17
433.121	1	26
433.292	1	12
433.462	1	21
433.633	1	6
433.804	1	5
433.974	1	14
434.145	1	25
434.315	1	4
434.486	1	4
434.656	1	17
434.827	1	20
434.997	1	14
435.168	1	25
435.339	1	25
435.509	1	13
435.680	1	16
435.850	1	19
436.021	1	19
436.191	1	14
436.362	1	14
436.532	1	17
436.703	1	12
436.873	1	11
437.044	1	8
437.214	1	17
437.385	1	15
437.556	1	10
437.726	1	30
437.897	1	30
438.067	1	14
438.238	1	13
438.408	1	22
438.579	1	17
438.749	1	9
438.920	1	13
439.090	1	22
439.261	1	16
439.431	1	13
439.602	1	10
439.772	1	11
439.943	1	19
440.113	1	23
440.284	1	19
440.455	1	14
440.625	1	16
440.796	1	23
440.966	1	13
441.137	1	17
441.307	1	9
441.478	1	24
441.648	1	22
441.819	1	18
441.989	1	17
442.160	1	23
442.330	1	19
442.501	1	16
442.671	1	5
442.842	1	-3
443.012	1	13
443.183	1	19
443.353	1	3
443.524	1	29
443.694	1	16
443.865	1	5
444.035	1	19
444.206	1	9
444.376	1	-1
444.547	1	28
444.717	1	15
444.888	1	8
445.058	1	24
445.229	1	13
445.399	1	18
445.570	1	14
445.740	1	1
445.911	1	13
446.081	1	7
446.252	1	19
446.422	1	6
446.593	1	9
446.763	1	13
446.934	1	9
447.104	1	7
447.275	1	24
447.445	1	20
447.616	1	25
447.786	1	10
447.957	1	12
448.127	1	13
448.298	1	14
448.468	1	14
448.639	1	13
448.809	1	13
448.979	1	8
449.150	1	24
449.320	1	19
449.491	1	19
449.661	1	19
449.832	1	4
450.002	1	18
450.173	1	13
450.343	1	12
450.514	1	10
450.684	1	6
450.855	1	8
451.025	1	19
451.196	1	20
451.366	1	19
451.537	1	14
451.707	1	6
451.878	1	15
452.048	1	24
452.218	1	16
452.389	1	16
452.559	1	9
452.730	1	18
452.900	1	24
453.071	1	4
453.241	1	17
453.412	1	9
453.582	1	9
453.753	1	13
453.923	1	15
454.093	1	14
454.264	1	22
454.434	1	6
454.605	1	15
454.775	1	15
454.946	1	20
455.116	1	10
455.287	1	0
455.457	1	3
455.628	1	10
455.798	1	15
455.968	1	16
456.139	1	15
456.309	1	18
456.480	1	8
456.650	1	3
456.821	1	15
456.991	1	8
457.161	1	8
457.332	1	1
457.502	1	3
457.673	1	20
457.843	1	14
458.014	1	13
458.184	1	16
458.355	1	17
458.525	1	15
458.695	1	13
458.866	1	13
459.036	1	14
459.207	1	9
459.377	1	22
459.548	1	21
459.718	1	11
459.888	1	6
460.059	1	14
460.229	1	23
460.400	1	20
460.570	1	18
460.740	1	12
460.911	1	30
461.081	1	18
461.252	1	8
461.422	1	15
461.593	1	5
461.763	1	8
461.933	1	21
462.104	1	5
462.274	1	9
462.445	1	16
462.615	1	15
462.785	1	12
462.956	1	13
463.126	1	10
463.297	1	7
463.467	1	6
463.638	1	19
463.808	1	-1
463.978	1	4
464.149	1	3
464.319	1	10
464.490	1	27
464.660	1	11
464.830	1	3
465.001	1	16
465.171	1	16
465.342	1	15
465.512	1	6
465.682	1	13
465.853	1	17
466.023	1	13
466.194	1	13
466.364	1	23
466.534	1	8
466.705	1	11
466.875	1	13
467.045	1	8
467.216	1	23
467.386	1	10
467.557	1	11
467.727	1	5
467.897	1	7
468.068	1	9
468.238	1	4
468.409	1	6
468.579	1	12
468.749	1	11
468.920	1	0
469.090	1	10
469.260	1	1
469.431	1	5
469.601	1	11
469.772	1	4
469.942	1	10
470.112	1	10
470.283	1	5
470.453	1	7
470.623	1	-1
470.794	1	6
470.964	1	10
471.135	1	17
471.305	1	-6
471.475	1	18
471.646	1	4
471.816	1	8
471.986	1	15
472.157	1	13
472.327	1	-4
472.497	1	4
472.668	1	4
472.838	1	10
473.009	1	19
473.179	1	10
473.349	1	-1
473.520	1	13
473.690	1	10
473.860	1	11
474.031	1	7
474.201	1	11
474.371	1	12
474.542	1	7
474.712	1	6
474.882	1	12
475.053	1	13
475.223	1	3
475.394	1	9
475.564	1	16
475.734	1	3
475.905	1	19
476.075	1	6
476.245	1	20
476.416	1	14
476.586	1	12
476.756	1	-1
476.927	1	17
477.097	1	7
477.267	1	17
477.438	1	7
477.608	1	3
477.778	1	13
477.949	1	13
478.119	1	7
478.289	1	23
478.460	1	18
478.630	1	14
478.800	1	6
478.971	1	7
479.141	1	7
479.311	1	-4
479.482	1	-7
479.652	1	7
479.822	1	14
479.993	1	10
480.163	1	13
480.333	1	14
480.504	1	17
480.674	1	9
480.844	1	-2
481.015	1	5
481.185	1	3
481.355	1	4
481.525	1	2
481.696	1	13
481.866	1	9
482.036	1	6
482.207	1	6
482.377	1	7
482.547	1	12
482.718	1	8
482.888	1	16
483.058	1	15
483.229	1	-1
483.399	1	3
483.569	1	9
483.740	1	11
483.910	1	5
484.080	1	21
484.250	1	14
484.421	1	7
484.591	1	10
484.761	1	16
484.932	1	14
485.102	1	16
485.272	1	12
485.443	1	12
485.613	1	15
485.783	1	0
485.953	1	7
486.124	1	7
486.294	1	9
486.464	1	1
486.635	1	9
486.805	1	18
486.975	1	1
487.146	1	15
487.316	1	13
487.486	1	9
487.656	1	-3
487.827	1	8
487.997	1	-2
488.167	1	5
488.338	1	11
488.508	1	5
488.678	1	3
488.848	1	18
489.019	1	3
489.189	1	10
489.359	1	9
489.529	1	12
489.700	1	7
489.870	1	17
490.040	1	4
490.211	1	2
490.381	1	13
490.551	1	2
490.721	1	19
490.892	1	2
491.062	1	13
491.232	1	8
491.402	1	12
491.573	1	-10
491.743	1	3
491.913	1	2
492.084	1	15
492.254	1	8
492.424	1	4
492.594	1	3
492.765	1	14
492.935	1	6
493.105	1	5
493.275	1	-1
493.446	1	19
493.616	1	15
493.786	1	3
493.956	1	1
494.127	1	7
494.297	1	0
494.467	1	12
494.637	1	-5
494.808	1	6
494.978	1	-1
495.148	1	9
495.318	1	11
495.489	1	10
495.659	1	10
495.829	1	0
495.999	1	1
496.170	1	11
496.340	1	5
496.510	1	6
496.680	1	-5
496.851	1	5
497.021	1	-1
497.191	1	5
497.361	1	8
497.532	1	-3
497.702	1	0
497.872	1	3
498.042	1	8
498.213	1	3
498.383	1	10
498.553	1	1
498.723	1	4
498.894	1	9
499.064	1	10
499.234	1	12
499.404	1	9
499.574	1	7
499.745	1	6
499.915	1	4
500.085	1	8
500.255	1	15
500.426	1	-3
500.596	1	15
500.766	1	9
500.936	1	0
501.106	1	-9
501.277	1	15
501.447	1	6
501.617	1	4
501.787	1	0
501.958	1	4
502.128	1	2
502.298	1	5
502.468	1	9
502.638	1	0
502.809	1	9
502.979	1	4
503.149	1	-2
503.319	1	-1
503.489	1	7
503.660	1	10
503.830	1	8
504.000	1	10
504.170	1	-1
504.340	1	-2
504.511	1	8
504.681	1	-4
504.851	1	16
505.021	1	11
505.192	1	1
505.362	1	8
505.532	1	0
505.702	1	1
505.872	1	10
506.043	1	0
506.213	1	-3
506.383	1	-2
506.553	1	0
506.723	1	8
506.893	1	13
507.064	1	13
507.234	1	1
507.404	1	7
507.574	1	9
507.744	1	4
507.915	1	9
508.085	1	3
508.255	1	10
508.425	1	0
508.595	1	16
508.766	1	16
508.936	1	-1
509.106	1	11
509.276	1	9
509.446	1	-4
509.616	1	-6
509.787	1	5
509.957	1	5
510.127	1	7
510.297	1	8
510.467	1	-2
510.638	1	19
510.808	1	-4
510.978	1	-3
511.148	1	8
511.318	1	8
511.488	1	-6
511.659	1	-1
511.829	1	0
511.999	1	9
512.169	1	11
512.339	1	6
512.509	1	4
512.680	1	-4
512.850	1	8
513.020	1	14
513.190	1	4
513.360	1	2
513.530	1	9
513.700	1	5
513.871	1	-2
514.041	1	7
514.211	1	9
514.381	1	6
514.551	1	-3
514.721	1	2
514.892	1	8
515.062	1	1
515.232	1	3
515.402	1	3
515.572	1	0
515.742	1	14
515.912	1	9
516.083	1	2
516.253	1	12
516.423	1	1
516.593	1	-1
516.763	1	12
516.933	1	-2
517.104	1	7
517.274	1	1
517.444	1	3
517.614	1	-4
517.784	1	5
517.954	1	3
518.124	1	4
518.294	1	11
518.465	1	-1
518.635	1	13
518.805	1	-15
518.975	1	9
519.145	1	0
519.315	1	0
519.485	1	2
519.656	1	11
519.826	1	3
519.996	1	-3
520.166	1	2
520.336	1	13
520.506	1	6
520.676	1	3
520.846	1	12
521.017	1	-4
521.187	1	1
521.357	1	17
521.527	1	-5
521.697	1	-5
521.867	1	-4
522.037	1	23
522.207	1	7
522.377	1	9
522.548	1	7
522.718	1	-1
522.888	1	13
523.058	1	-6
523.228	1	7
523.398	1	9
523.568	1	4
523.738	1	0
523.909	1	10
524.079	1	0
524.249	1	9
524.419	1	1
524.589	1	3
524.759	1	-2
524.929	1	5
525.099	1	6
525.269	1	13
525.439	1	0
525.610	1	17
525.780	1	5
525.950	1	14
526.120	1	2
526.290	1	8
526.460	1	1
526.630	1	4
526.800	1	0
526.970	1	2
527.140	1	9
527.311	1	-7
527.481	1	-3
527.651	1	8
527.821	1	-2
527.991	1	17
528.161	1	16
528.331	1	6
528.501	1	4
528.671	1	-2
528.841	1	1
529.011	1	-2
529.181	1	7
529.352	1	3
529.522	1	-2
529.692	1	9
529.862	1	-5
530.032	1	8
530.202	1	4
530.372	1	2
530.542	1	1
530.712	1	5
530.882	1	5
531.052	1	15
531.222	1	3
531.392	1	6
531.563	1	11
531.733	1	3
531.903	1	-3
532.073	1	12
532.243	1	-1
532.413	1	9
532.583	1	3
532.753	1	0
532.923	1	-4
533.093	1	3
533.263	1	10
533.433	1	4
533.603	1	6
533.773	1	0
533.943	1	3
534.113	1	-3
534.284	1	-1
534.454	1	3
534.624	1	7
534.794	1	-1
534.964	1	7
535.134	1	0
535.304	1	4
535.474	1	8
535.644	1	0
535.814	1	-4
535.984	1	3
536.154	1	-5
536.324	1	1
536.494	1	12
536.664	1	8
536.834	1	-2
537.004	1	7
537.174	1	11
537.344	1	-2
537.514	1	-5
537.685	1	2
537.855	1	10
538.025	1	7
538.195	1	-1
538.365	1	9
538.535	1	2
538.705	1	-1
538.875	1	10
539.045	1	5
539.215	1	0
539.385	1	9
539.555	1	11
539.725	1	3
539.895	1	1
540.065	1	25
540.235	1	12
540.405	1	-1
540.575	1	2
540.745	1	8
540.915	1	7
541.085	1	4
541.255	1	1
541.425	1	11
541.595	1	1
541.765	1	4
541.935	1	0
542.105	1	2
542.275	1	1
542.445	1	-4
542.615	1	1
542.785	1	14
542.955	1	-4
543.125	1	-4
543.295	1	10
543.465	1	-2
543.635	1	-4
543.805	1	18
543.975	1	-8
544.145	1	7
544.315	1	5
544.485	1	6
544.655	1	-3
544.825	1	-4
544.995	1	8
545.165	1	-3
545.335	1	8
545.505	1	-16
545.675	1	4
545.845	1	12
546.015	1	10
546.185	1	13
546.355	1	3
546.525	1	5
546.695	1	0
546.865	1	-5
547.035	1	7
547.205	1	-7
547.375	1	7
547.545	1	9
547.715	1	-1
547.885	1	6
548.055	1	-1
548.225	1	2
548.395	1	-1
548.565	1	2
548.735	1	4
548.905	1	-1
549.075	1	3
549.245	1	0
549.415	1	0
549.585	1	11
549.755	1	13
549.925	1	-8
550.095	1	6
550.265	1	0
550.435	1	-5
550.605	1	-5
550.775	1	5
550.945	1	6
551.115	1	4
551.285	1	0
551.455	1	-2
551.625	1	9
551.795	1	11
551.965	1	-5
552.135	1	-1
552.305	1	-2
552.475	1	-16
552.645	1	0
552.815	1	-11
552.985	1	11
553.155	1	5
553.325	1	5
553.495	1	-2
553.665	1	5
553.835	1	-7
554.004	1	-6
554.174	1	-5
554.344	1	-2
554.514	1	-9
554.684	1	1
554.854	1	4
555.024	1	-8
555.194	1	0
555.364	1	8
555.534	1	3
555.704	1	1
555.874	1	3
556.044	1	-5
556.214	1	-4
556.384	1	-3
556.554	1	12
556.724	1	7
556.894	1	-1
557.064	1	1
557.234	1	1
557.404	1	5
557.573	1	-9
557.743	1	4
557.913	1	3
558.083	1	-5
558.253	1	5
558.423	1	-3
558.593	1	6
558.763	1	-9
558.933	1	7
559.103	1	5
559.273	1	2
559.443	1	3
559.613	1	1
559.783	1	4
559.953	1	3
560.122	1	18
560.292	1	-2
560.462	1	2
560.632	1	9
560.802	1	-1
560.972	1	12
561.142	1	7
561.312	1	-3
561.482	1	-1
561.652	1	0
561.822	1	2
561.992	1	-5
562.162	1	-4
562.331	1	7
562.501	1	-5
562.671	1	3
562.841	1	0
563.011	1	1
563.181	1	1
563.351	1	-9
563.521	1	6
563.691	1	-3
563.861	1	7
564.031	1	5
564.201	1	15
564.370	1	-3
564.540	1	10
564.710	1	-5
564.880	1	-5
565.050	1	-4
565.220	1	2
565.390	1	11
565.560	1	7
565.730	1	-4
565.900	1	2
566.069	1	12
566.239	1	3
566.409	1	9
566.579	1	0
566.749	1	-5
566.919	1	10
567.089	1	0
567.259	1	5
567.429	1	3
567.599	1	2
567.768	1	8
567.938	1	5
568.108	1	1
568.278	1	5
568.448	1	-7
568.618	1	-4
568.788	1	6
568.958	1	0
569.128	1	13
569.297	1	1
569.467	1	-2
569.637	1	6
569.807	1	-3
569.977	1	8
570.147	1	11
570.317	1	-9
570.487	1	3
570.656	1	6
570.826	1	-8
570.996	1	-2
571.166	1	15
571.336	1	1
571.506	1	2
571.676	1	14
571.846	1	1
572.015	1	0
572.185	1	5
572.355	1	4
572.525	1	9
572.695	1	6
572.865	1	-3
573.035	1	5
573.205	1	0
573.374	1	-8
573.544	1	-1
573.714	1	12
573.884	1	8
574.054	1	14
574.224	1	5
574.394	1	10
574.563	1	-8
574.733	1	3
574.903	1	-6
575.073	1	-3
575.243	1	-1
575.413	1	-5
575.583	1	1
575.752	1	9
575.922	1	9
576.092	1	-1
576.262	1	13
576.432	1	8
576.602	1	1
576.772	1	5
576.941	1	-2
577.111	1	-4
577.281	1	-3
577.451	1	-7
577.621	1	5
577.791	1	4
577.960	1	-5
578.130	1	6
578.300	1	3
578.470	1	14
578.640	1	6
578.810	1	3
578.979	1	5
579.149	1	-2
579.319	1	-3
579.489	1	-1
579.659	1	9
579.829	1	-5
579.998	1	9
580.168	1	9
580.338	1	0
580.508	1	16
580.678	1	10
580.848	1	-2
581.017	1	4
581.187	1	3
581.357	1	-8
581.527	1	0
581.697	1	11
581.867	1	7
582.036	1	-4
582.206	1	6
582.376	1	21
582.546	1	-4
582.716	1	-3
582.885	1	-2
583.055	1	4
583.225	1	-4
583.395	1	9
583.565	1	1
583.735	1	3
583.904	1	3
584.074	1	4
584.244	1	10
584.414	1	8
584.584	1	-7
584.753	1	-6
584.923	1	2
585.093	1	-8
585.263	1	0
585.433	1	11
585.602	1	-6
585.772	1	-1
585.942	1	-1
586.112	1	3
586.282	1	5
586.451	1	-9
586.621	1	0
586.791	1	5
586.961	1	3
587.131	1	0
587.300	1	-8
587.470	1	9
587.640	1	4
587.810	1	-5
587.980	1	5
588.149	1	-2
588.319	1	8
588.489	1	0
588.659	1	3
588.829	1	8
588.998	1	2
589.168	1	4
589.338	1	3
589.508	1	1
589.677	1	-9
589.847	1	-1
590.017	1	18
590.187	1	4
590.357	1	-4
590.526	1	4
590.696	1	6
590.866	1	10
591.036	1	4
591.205	1	16
591.375	1	1
591.545	1	-7
591.715	1	-3
591.885	1	-1
592.054	1	10
592.224	1	-6
592.394	1	5
592.564	1	3
592.733	1	3
592.903	1	-1
593.073	1	-5
593.243	1	6
593.412	1	7
593.582	1	-3
593.752	1	2
593.922	1	3
594.091	1	5
594.261	1	-9
594.431	1	5
594.601	1	12
594.771	1	7
594.940	1	2
595.110	1	3
595.280	1	3
595.450	1	-9
595.619	1	-1
595.789	1	6
595.959	1	0
596.129	1	-3
596.298	1	-5
596.468	1	6
596.638	1	5
596.808	1	4
596.977	1	0
597.147	1	9
597.317	1	-5
597.487	1	15
597.656	1	4
597.826	1	4
597.996	1	10
598.166	1	10
598.335	1	-7
598.505	1	2
598.675	1	-4
598.844	1	1
599.014	1	5
599.184	1	1
599.354	1	-4
599.523	1	7
599.693	1	2
599.863	1	8
600.033	1	6
600.202	1	4
600.372	1	1
600.542	1	13
600.712	1	1
600.881	1	-1
601.051	1	8
601.221	1	7
601.390	1	-1
601.560	1	9
601.730	1	4
601.900	1	1
602.069	1	7
602.239	1	2
602.409	1	-8
602.578	1	-3
602.748	1	1
602.918	1	12
603.088	1	9
603.257	1	11
603.427	1	1
603.597	1	3
603.767	1	8
603.936	1	3
604.106	1	3
604.276	1	-5
604.445	1	0
604.615	1	9
604.785	1	2
604.954	1	4
605.124	1	3
605.294	1	0
605.464	1	2
605.633	1	12
605.803	1	8
605.973	1	-4
606.142	1	9
606.312	1	3
606.482	1	0
606.652	1	4
606.821	1	3
606.991	1	2
607.161	1	1
607.330	1	1
607.500	1	13
607.670	1	-7
607.839	1	4
608.009	1	9
608.179	1	9
608.348	1	-3
608.518	1	-4
608.688	1	11
608.858	1	-11
609.027	1	5
609.197	1	4
609.367	1	11
609.536	1	-3
609.706	1	-4
609.876	1	-5
610.045	1	2
610.215	1	6
610.385	1	-5
610.554	1	1
610.724	1	24
610.894	1	-1
611.063	1	8
611.233	1	2
611.403	1	-1
611.572	1	-2
611.742	1	6
611.912	1	1
612.081	1	2
612.251	1	10
612.421	1	5
612.590	1	8
612.760	1	0
612.930	1	3
613.099	1	-4
613.269	1	9
613.439	1	-1
613.608	1	-8
613.778	1	9
613.948	1	1
614.117	1	6
614.287	1	15
614.457	1	-1
614.626	1	4
614.796	1	3
614.966	1	-6
615.135	1	0
615.305	1	14
615.475	1	-4
615.644	1	2
615.814	1	8
615.984	1	-6
616.153	1	6
616.323	1	5
616.493	1	-9
616.662	1	4
616.832	1	8
617.002	1	-1
617.171	1	0
617.341	1	1
617.511	1	1
617.680	1	-6
617.850	1	12
618.019	1	18
618.189	1	14
618.359	1	-5
618.528	1	3
618.698	1	5
618.868	1	-4
619.037	1	-1
619.207	1	3
619.377	1	7
619.546	1	-3
619.716	1	6
619.885	1	3
620.055	1	-6
620.225	1	-2
620.394	1	-2
620.564	1	10
620.734	1	1
620.903	1	-1
621.073	1	1
621.242	1	6
621.412	1	-4
621.582	1	-6
621.751	1	8
621.921	1	3
622.091	1	-9
622.260	1	-4
622.430	1	13
622.599	1	-1
622.769	1	7
622.939	1	8
623.108	1	11
623.278	1	-16
623.448	1	5
623.617	1	-6
623.787	1	2
623.956	1	7
624.126	1	2
624.296	1	0
624.465	1	6
624.635	1	16
624.804	1	4
624.974	1	5
625.144	1	10
625.313	1	-6
625.483	1	-11
625.652	1	0
625.822	1	1
625.992	1	-4
626.161	1	6
626.331	1	7
626.501	1	13
626.670	1	7
626.840	1	3
627.009	1	-7
627.179	1	3
627.348	1	11
627.518	1	-1
627.688	1	16
627.857	1	6
628.027	1	-4
628.196	1	-3
628.366	1	7
628.536	1	-1
628.705	1	6
628.875	1	7
629.044	1	-2
629.214	1	4
629.384	1	4
629.553	1	12
629.723	1	-2
629.892	1	0
630.062	1	-2
630.232	1	-4
630.401	1	6
630.571	1	0
630.740	1	4
630.910	1	5
631.079	1	10
631.249	1	3
631.419	1	4
631.588	1	-12
631.758	1	11
631.927	1	6
632.097	1	3
632.266	1	0
632.436	1	3
632.606	1	-5
632.775	1	7
632.945	1	7
633.114	1	2
633.284	1	11
633.453	1	-10
633.623	1	-1
633.793	1	2
633.962	1	1
634.132	1	1
634.301	1	0
634.471	1	2
634.640	1	10
634.810	1	1
634.979	1	-1
635.149	1	-1
635.319	1	4
635.488	1	7
635.658	1	-5
635.827	1	-4
635.997	1	2
636.166	1	9
636.336	1	-3
636.505	1	10
636.675	1	0
636.845	1	14
637.014	1	6
637.184	1	10
637.353	1	3
637.523	1	9
637.692	1	-1
637.862	1	7
638.031	1	7
638.201	1	2
638.370	1	-3
638.540	1	2
638.710	1	5
638.879	1	-8
639.049	1	2
639.218	1	0
639.388	1	-2
639.557	1	-2
639.727	1	7
639.896	1	13
640.066	1	-3
640.235	1	5
640.405	1	10
640.574	1	5
640.744	1	-10
640.914	1	3
641.083	1	4
641.253	1	1
641.422	1	7
641.592	1	14
641.761	1	-6
641.931	1	3
642.100	1	14
642.270	1	1
642.439	1	4
642.609	1	11
642.778	1	3
642.948	1	-2
643.117	1	14
643.287	1	-2
643.456	1	1
643.626	1	16
643.795	1	1
643.965	1	3
644.134	1	0
644.304	1	0
644.473	1	5
644.643	1	7
644.812	1	3
644.982	1	5
645.151	1	-5
645.321	1	-10
645.490	1	12
645.660	1	-7
645.829	1	1
645.999	1	1
646.168	1	8
646.338	1	-2
646.507	1	-3
646.677	1	6
646.846	1	2
647.016	1	-1
647.185	1	10
647.355	1	-16
647.524	1	12
647.694	1	10
647.863	1	2
648.033	1	12
648.202	1	11
648.372	1	-2
648.541	1	1
648.711	1	11
648.880	1	3
649.050	1	1
649.219	1	4
649.389	1	13
649.558	1	5
649.728	1	-2
649.897	1	-5
650.067	1	4
650.236	1	1
650.406	1	4
650.575	1	3
650.745	1	10
650.914	1	1
651.084	1	-4
651.253	1	15
651.423	1	8
651.592	1	-7
651.762	1	-2
651.931	1	8
652.101	1	7
652.270	1	17
652.440	1	2
652.609	1	-3
652.778	1	3
652.948	1	14
653.117	1	2
653.287	1	0
653.456	1	2
653.626	1	6
653.795	1	3
653.965	1	6
654.134	1	4
654.304	1	-2
654.473	1	13
654.643	1	5
654.812	1	-5
654.982	1	6
655.151	1	-3
655.320	1	9
655.490	1	-5
655.659	1	9
655.829	1	-4
655.998	1	8
656.168	1	5
656.337	1	0
656.507	1	7
656.676	1	14
656.846	1	6
657.015	1	5
657.184	1	9
657.354	1	0
657.523	1	0
657.693	1	17
657.862	1	4
658.032	1	0
658.201	1	3
658.371	1	11
658.540	1	6
658.709	1	1
658.879	1	6
659.048	1	-4
659.218	1	-4
659.387	1	-2
659.557	1	0
659.726	1	8
659.895	1	2
660.065	1	-4
660.234	1	1
660.404	1	4
660.573	1	1
660.743	1	14
660.912	1	0
661.081	1	16
661.251	1	-6
661.420	1	10
661.590	1	3
661.759	1	5
661.929	1	4
662.098	1	7
662.267	1	-2
662.437	1	6
662.606	1	7
662.776	1	6
662.945	1	-5
663.115	1	-2
663.284	1	-1
663.453	1	9
663.623	1	-4
663.792	1	9
663.962	1	7
664.131	1	10
664.300	1	14
664.470	1	0
664.639	1	6
664.809	1	4
664.978	1	9
665.148	1	7
665.317	1	9
665.486	1	18
665.656	1	3
665.825	1	12
665.995	1	-3
666.164	1	-2
666.333	1	4
666.503	1	-2
666.672	1	-2
666.842	1	1
667.011	1	6
667.180	1	7
667.350	1	3
667.519	1	9
667.689	1	2
667.858	1	2
668.027	1	12
668.197	1	0
668.366	1	-6
668.536	1	11
668.705	1	9
668.874	1	4
669.044	1	8
669.213	1	14
669.382	1	-2
669.552	1	2
669.721	1	9
669.891	1	10
670.060	1	11
670.229	1	19
670.399	1	5
670.568	1	19
670.738	1	11
670.907	1	-1
671.076	1	4
671.246	1	4
671.415	1	3
671.584	1	-4
671.754	1	2
671.923	1	-2
672.093	1	2
672.262	1	-6
672.431	1	10
672.601	1	3
672.770	1	-2
672.939	1	9
673.109	1	-3
673.278	1	3
673.448	1	9
673.617	1	-2
673.786	1	-1
