325.333	1	23
325.504	1	12
325.675	1	12
325.846	1	19
326.017	1	22
326.188	1	20
326.359	1	18
326.531	1	14
326.702	1	17
326.873	1	28
327.044	1	16
327.215	1	27
327.386	1	26
327.557	1	12
327.728	1	28
327.899	1	19
328.070	1	21
328.241	1	24
328.412	1	8
328.583	1	23
328.754	1	21
328.926	1	27
329.097	1	10
329.268	1	26
329.439	1	18
329.610	1	21
329.781	1	10
329.952	1	26
330.123	1	26
330.294	1	16
330.465	1	18
330.636	1	19
330.807	1	17
330.978	1	29
331.149	1	29
331.320	1	27
331.492	1	22
331.663	1	23
331.834	1	37
332.005	1	26
332.176	1	25
332.347	1	28
332.518	1	18
332.689	1	36
332.860	1	21
333.031	1	25
333.202	1	26
333.373	1	34
333.544	1	18
333.715	1	43
333.886	1	22
334.057	1	30
334.228	1	24
334.399	1	26
334.570	1	44
334.741	1	33
334.912	1	23
335.084	1	47
335.255	1	31
335.426	1	15
335.597	1	36
335.768	1	42
335.939	1	38
336.110	1	34
336.281	1	24
336.452	1	22
336.623	1	43
336.794	1	39
336.965	1	32
337.136	1	38
337.307	1	29
337.478	1	34
337.649	1	34
337.820	1	32
337.991	1	32
338.162	1	39
338.333	1	37
338.504	1	41
338.675	1	42
338.846	1	44
339.017	1	37
339.188	1	32
339.359	1	33
339.530	1	35
339.701	1	35
339.872	1	43
340.043	1	28
340.214	1	37
340.385	1	38
340.556	1	29
340.727	1	48
340.898	1	44
341.069	1	46
341.240	1	33
341.411	1	35
341.582	1	46
341.753	1	31
341.924	1	36
342.095	1	41
342.266	1	57
342.437	1	42
342.608	1	43
342.779	1	42
342.950	1	52
343.121	1	46
343.292	1	36
343.463	1	51
343.634	1	37
343.805	1	48
343.976	1	46
344.147	1	47
344.318	1	38
344.489	1	42
344.660	1	51
344.831	1	52
345.002	1	31
345.173	1	45
345.344	1	50
345.515	1	53
345.686	1	51
345.857	1	44
346.028	1	55
346.199	1	33
346.370	1	48
346.541	1	49
346.712	1	37
346.883	1	47
347.054	1	54
347.225	1	51
347.396	1	55
347.567	1	43
347.738	1	47
347.909	1	53
348.080	1	47
348.251	1	52
348.422	1	51
348.593	1	54
348.764	1	56
348.935	1	59
349.106	1	46
349.277	1	53
349.448	1	60
349.619	1	54
349.790	1	61
349.961	1	59
350.132	1	53
350.303	1	63
350.474	1	71
350.645	1	58
350.816	1	65
350.987	1	61
351.157	1	50
351.328	1	71
351.499	1	54
351.670	1	55
351.841	1	58
352.012	1	67
352.183	1	66
352.354	1	65
352.525	1	64
352.696	1	72
352.867	1	66
353.038	1	71
353.209	1	63
353.380	1	65
353.551	1	63
353.722	1	67
353.893	1	66
354.064	1	75
354.235	1	62
354.406	1	59
354.576	1	72
354.747	1	74
354.918	1	67
355.089	1	66
355.260	1	67
355.431	1	83
355.602	1	68
355.773	1	72
355.944	1	69
356.115	1	70
356.286	1	72
356.457	1	69
356.628	1	66
356.799	1	75
356.970	1	74
357.141	1	69
357.311	1	62
357.482	1	71
357.653	1	77
357.824	1	77
357.995	1	66
358.166	1	67
358.337	1	72
358.508	1	70
358.679	1	73
358.850	1	68
359.021	1	83
359.192	1	69
359.363	1	75
359.533	1	75
359.704	1	85
359.875	1	76
360.046	1	66
360.217	1	56
360.388	1	82
360.559	1	79
360.730	1	77
360.901	1	66
361.072	1	82
361.243	1	76
361.414	1	83
361.584	1	66
361.755	1	82
361.926	1	77
362.097	1	74
362.268	1	81
362.439	1	69
362.610	1	90
362.781	1	73
362.952	1	79
363.123	1	81
363.293	1	75
363.464	1	88
363.635	1	84
363.806	1	73
363.977	1	90
364.148	1	81
364.319	1	77
364.490	1	75
364.661	1	90
364.832	1	81
365.002	1	75
365.173	1	80
365.344	1	79
365.515	1	71
365.686	1	79
365.857	1	82
366.028	1	82
366.199	1	78
366.370	1	75
366.540	1	71
366.711	1	64
366.882	1	71
367.053	1	71
367.224	1	92
367.395	1	82
367.566	1	93
367.737	1	97
367.908	1	88
368.078	1	86
368.249	1	81
368.420	1	77
368.591	1	82
368.762	1	91
368.933	1	83
369.104	1	72
369.274	1	84
369.445	1	83
369.616	1	89
369.787	1	88
369.958	1	92
370.129	1	81
370.300	1	85
370.471	1	77
370.641	1	85
370.812	1	96
370.983	1	83
371.154	1	75
371.325	1	84
371.496	1	85
371.667	1	83
371.837	1	77
372.008	1	76
372.179	1	74
372.350	1	93
372.521	1	89
372.692	1	88
372.863	1	84
373.033	1	77
373.204	1	81
373.375	1	100
373.546	1	90
373.717	1	89
373.888	1	98
374.059	1	96
374.229	1	95
374.400	1	83
374.571	1	89
374.742	1	96
374.913	1	86
375.084	1	81
375.254	1	92
375.425	1	89
375.596	1	88
375.767	1	93
375.938	1	83
376.109	1	93
376.279	1	88
376.450	1	96
376.621	1	94
376.792	1	79
376.963	1	82
377.134	1	108
377.304	1	94
377.475	1	93
377.646	1	94
377.817	1	92
377.988	1	100
378.159	1	112
378.329	1	102
378.500	1	95
378.671	1	102
378.842	1	96
379.013	1	90
379.184	1	90
379.354	1	100
379.525	1	95
379.696	1	109
379.867	1	102
380.038	1	96
380.209	1	102
380.379	1	102
380.550	1	85
380.721	1	99
380.892	1	93
381.063	1	103
381.233	1	104
381.404	1	89
381.575	1	103
381.746	1	102
381.917	1	87
382.087	1	105
382.258	1	88
382.429	1	97
382.600	1	109
382.771	1	92
382.941	1	106
383.112	1	103
383.283	1	108
383.454	1	96
383.625	1	104
383.795	1	105
383.966	1	103
384.137	1	102
384.308	1	102
384.479	1	101
384.649	1	110
384.820	1	107
384.991	1	96
385.162	1	107
385.333	1	104
385.503	1	104
385.674	1	98
385.845	1	119
386.016	1	105
386.187	1	116
386.357	1	131
386.528	1	114
386.699	1	96
386.870	1	124
387.041	1	116
387.211	1	115
387.382	1	117
387.553	1	126
387.724	1	107
387.894	1	114
388.065	1	109
388.236	1	115
388.407	1	107
388.578	1	106
388.748	1	117
388.919	1	118
389.090	1	103
389.261	1	116
389.431	1	130
389.602	1	125
389.773	1	120
389.944	1	116
390.114	1	105
390.285	1	117
390.456	1	113
390.627	1	117
390.798	1	107
390.968	1	121
391.139	1	118
391.310	1	113
391.481	1	124
391.651	1	121
391.822	1	98
391.993	1	109
392.164	1	104
392.334	1	106
392.505	1	103
392.676	1	120
392.847	1	121
393.017	1	124
393.188	1	117
393.359	1	112
393.530	1	107
393.700	1	115
393.871	1	116
394.042	1	106
394.213	1	116
394.383	1	115
394.554	1	119
394.725	1	124
394.896	1	121
395.066	1	123
395.237	1	114
395.408	1	120
395.579	1	113
395.749	1	120
395.920	1	117
396.091	1	124
396.262	1	117
396.432	1	121
396.603	1	130
396.774	1	141
396.945	1	123
397.115	1	112
397.286	1	117
397.457	1	129
397.627	1	119
397.798	1	135
397.969	1	126
398.140	1	124
398.310	1	104
398.481	1	129
398.652	1	116
398.823	1	112
398.993	1	121
399.164	1	125
399.335	1	142
399.505	1	124
399.676	1	119
399.847	1	118
400.018	1	118
400.188	1	120
400.359	1	130
400.530	1	122
400.700	1	130
400.871	1	115
401.042	1	122
401.213	1	129
401.383	1	133
401.554	1	134
401.725	1	133
401.895	1	119
402.066	1	117
402.237	1	127
402.408	1	130
402.578	1	117
402.749	1	135
402.920	1	130
403.090	1	135
403.261	1	125
403.432	1	125
403.603	1	121
403.773	1	132
403.944	1	134
404.115	1	129
404.285	1	127
404.456	1	130
404.627	1	117
404.797	1	114
404.968	1	129
405.139	1	117
405.310	1	143
405.480	1	117
405.651	1	131
405.822	1	131
405.992	1	130
406.163	1	130
406.334	1	130
406.504	1	133
406.675	1	138
406.846	1	136
407.016	1	137
407.187	1	137
407.358	1	120
407.528	1	140
407.699	1	120
407.870	1	132
408.041	1	133
408.211	1	143
408.382	1	123
408.553	1	132
408.723	1	139
408.894	1	139
409.065	1	126
409.235	1	139
409.406	1	130
409.577	1	126
409.747	1	138
409.918	1	139
410.089	1	139
410.259	1	129
410.430	1	123
410.601	1	137
410.771	1	134
410.942	1	157
411.113	1	142
411.283	1	129
411.454	1	115
411.625	1	132
411.795	1	127
411.966	1	132
412.137	1	124
412.307	1	116
412.478	1	132
412.649	1	126
412.819	1	125
412.990	1	138
413.161	1	125
413.331	1	123
413.502	1	124
413.672	1	128
413.843	1	117
414.014	1	135
414.184	1	125
414.355	1	130
414.526	1	138
414.696	1	136
414.867	1	122
415.038	1	104
415.208	1	137
415.379	1	127
415.550	1	128
415.720	1	125
415.891	1	117
416.062	1	121
416.232	1	127
416.403	1	124
416.573	1	137
416.744	1	125
416.915	1	134
417.085	1	132
417.256	1	139
417.427	1	128
417.597	1	128
417.768	1	131
417.939	1	135
418.109	1	126
418.280	1	126
418.450	1	112
418.621	1	125
418.792	1	128
418.962	1	124
419.133	1	136
419.304	1	118
419.474	1	125
419.645	1	133
419.815	1	110
419.986	1	124
420.157	1	134
420.327	1	133
420.498	1	123
420.669	1	121
420.839	1	134
421.010	1	125
421.180	1	127
421.351	1	120
421.522	1	118
421.692	1	122
421.863	1	131
422.033	1	132
422.204	1	128
422.375	1	122
422.545	1	119
422.716	1	122
422.886	1	111
423.057	1	124
423.228	1	116
423.398	1	118
423.569	1	133
423.740	1	104
423.910	1	113
424.081	1	117
424.251	1	121
424.422	1	125
424.593	1	111
424.763	1	112
424.934	1	118
425.104	1	123
425.275	1	114
425.445	1	109
425.616	1	114
425.787	1	108
425.957	1	115
426.128	1	114
426.298	1	111
426.469	1	111
426.640	1	115
426.810	1	107
426.981	1	116
427.151	1	104
427.322	1	124
427.493	1	116
427.663	1	123
427.834	1	107
428.004	1	129
428.175	1	117
428.345	1	112
428.516	1	97
428.687	1	129
428.857	1	112
429.028	1	111
429.198	1	114
429.369	1	118
429.540	1	110
429.710	1	101
429.881	1	118
430.051	1	111
430.222	1	105
430.392	1	115
430.563	1	122
430.734	1	119
430.904	1	118
431.075	1	116
431.245	1	117
431.416	1	117
431.586	1	126
431.757	1	111
431.927	1	116
432.098	1	114
432.269	1	118
432.439	1	121
432.610	1	114
432.780	1	121
432.951	1	110
433.121	1	117
433.292	1	126
433.462	1	119
433.633	1	108
433.804	1	109
433.974	1	107
434.145	1	117
434.315	1	116
434.486	1	103
434.656	1	103
434.827	1	106
434.997	1	108
435.168	1	124
435.339	1	106
435.509	1	102
435.680	1	114
435.850	1	100
436.021	1	110
436.191	1	99
436.362	1	109
436.532	1	117
436.703	1	101
436.873	1	121
437.044	1	93
437.214	1	107
437.385	1	104
437.556	1	101
437.726	1	124
437.897	1	112
438.067	1	102
438.238	1	107
438.408	1	110
438.579	1	115
438.749	1	108
438.920	1	98
439.090	1	118
439.261	1	103
439.431	1	103
439.602	1	100
439.772	1	95
439.943	1	102
440.113	1	104
440.284	1	96
440.455	1	92
440.625	1	112
440.796	1	99
440.966	1	88
441.137	1	108
441.307	1	97
441.478	1	104
441.648	1	104
441.819	1	96
441.989	1	96
442.160	1	104
442.330	1	101
442.501	1	102
442.671	1	95
442.842	1	92
443.012	1	95
443.183	1	107
443.353	1	97
443.524	1	101
443.694	1	103
443.865	1	94
444.035	1	106
444.206	1	94
444.376	1	93
444.547	1	104
444.717	1	95
444.888	1	102
445.058	1	100
445.229	1	105
445.399	1	102
445.570	1	104
445.740	1	85
445.911	1	95
446.081	1	81
446.252	1	92
446.422	1	103
446.593	1	81
446.763	1	88
446.934	1	90
447.104	1	88
447.275	1	84
447.445	1	105
447.616	1	97
447.786	1	94
447.957	1	95
448.127	1	93
448.298	1	103
448.468	1	86
448.639	1	84
448.809	1	92
448.979	1	80
449.150	1	93
449.320	1	92
449.491	1	98
449.661	1	93
449.832	1	85
450.002	1	96
450.173	1	98
450.343	1	95
450.514	1	88
450.684	1	93
450.855	1	92
451.025	1	89
451.196	1	84
451.366	1	96
451.537	1	85
451.707	1	70
451.878	1	90
452.048	1	106
452.218	1	95
452.389	1	88
452.559	1	92
452.730	1	86
452.900	1	92
453.071	1	74
453.241	1	98
453.412	1	78
453.582	1	73
453.753	1	94
453.923	1	89
454.093	1	85
454.264	1	96
454.434	1	83
454.605	1	80
454.775	1	90
454.946	1	87
455.116	1	94
455.287	1	69
455.457	1	76
455.628	1	71
455.798	1	84
455.968	1	83
456.139	1	84
456.309	1	77
456.480	1	70
456.650	1	73
456.821	1	78
456.991	1	77
457.161	1	76
457.332	1	84
457.502	1	74
457.673	1	85
457.843	1	80
458.014	1	76
458.184	1	80
458.355	1	79
458.525	1	74
458.695	1	85
458.866	1	79
459.036	1	85
459.207	1	74
459.377	1	71
459.548	1	88
459.718	1	72
459.888	1	82
460.059	1	73
460.229	1	80
460.400	1	76
460.570	1	70
460.740	1	76
460.911	1	78
461.081	1	73
461.252	1	72
461.422	1	71
461.593	1	77
461.763	1	81
461.933	1	81
462.104	1	70
462.274	1	75
462.445	1	73
462.615	1	71
462.785	1	77
462.956	1	77
463.126	1	80
463.297	1	75
463.467	1	78
463.638	1	89
463.808	1	65
463.978	1	61
464.149	1	74
464.319	1	68
464.490	1	96
464.660	1	64
464.830	1	72
465.001	1	73
465.171	1	74
465.342	1	70
465.512	1	52
465.682	1	71
465.853	1	76
466.023	1	72
466.194	1	67
466.364	1	73
466.534	1	82
466.705	1	64
466.875	1	67
467.045	1	64
467.216	1	80
467.386	1	59
467.557	1	65
467.727	1	66
467.897	1	60
468.068	1	59
468.238	1	69
468.409	1	73
468.579	1	66
468.749	1	65
468.920	1	54
469.090	1	68
469.260	1	56
469.431	1	61
469.601	1	62
469.772	1	63
469.942	1	59
470.112	1	68
470.283	1	65
470.453	1	68
470.623	1	61
470.794	1	53
470.964	1	59
471.135	1	74
471.305	1	38
471.475	1	57
471.646	1	61
471.816	1	57
471.986	1	52
472.157	1	72
472.327	1	46
472.497	1	62
472.668	1	51
472.838	1	55
473.009	1	54
473.179	1	43
473.349	1	58
473.520	1	78
473.690	1	71
473.860	1	55
474.031	1	62
474.201	1	59
474.371	1	66
474.542	1	56
474.712	1	57
474.882	1	70
475.053	1	68
475.223	1	48
475.394	1	64
475.564	1	54
475.734	1	60
475.905	1	62
476.075	1	56
476.245	1	59
476.416	1	73
476.586	1	56
476.756	1	58
476.927	1	63
477.097	1	59
477.267	1	47
477.438	1	60
477.608	1	54
477.778	1	59
477.949	1	56
478.119	1	60
478.289	1	67
478.460	1	63
478.630	1	63
478.800	1	52
478.971	1	62
479.141	1	46
479.311	1	48
479.482	1	51
479.652	1	56
479.822	1	52
479.993	1	55
480.163	1	61
480.333	1	56
480.504	1	61
480.674	1	56
480.844	1	50
481.015	1	55
481.185	1	50
481.355	1	56
481.525	1	51
481.696	1	46
481.866	1	52
482.036	1	61
482.207	1	59
482.377	1	53
482.547	1	55
482.718	1	46
482.888	1	53
483.058	1	48
483.229	1	50
483.399	1	47
483.569	1	49
483.740	1	52
483.910	1	54
484.080	1	59
484.250	1	54
484.421	1	51
484.591	1	40
484.761	1	54
484.932	1	47
485.102	1	51
485.272	1	53
485.443	1	58
485.613	1	41
485.783	1	45
485.953	1	39
486.124	1	61
486.294	1	55
486.464	1	46
486.635	1	53
486.805	1	53
486.975	1	40
487.146	1	51
487.316	1	52
487.486	1	54
487.656	1	43
487.827	1	46
487.997	1	47
488.167	1	42
488.338	1	51
488.508	1	49
488.678	1	40
488.848	1	46
489.019	1	35
489.189	1	42
489.359	1	45
489.529	1	46
489.700	1	45
489.870	1	57
490.040	1	35
490.211	1	38
490.381	1	53
490.551	1	38
490.721	1	46
490.892	1	52
491.062	1	55
491.232	1	54
491.402	1	38
491.573	1	29
491.743	1	47
491.913	1	45
492.084	1	47
492.254	1	41
492.424	1	40
492.594	1	34
492.765	1	46
492.935	1	42
493.105	1	56
493.275	1	44
493.446	1	49
493.616	1	55
493.786	1	43
493.956	1	37
494.127	1	40
494.297	1	28
494.467	1	40
494.637	1	39
494.808	1	38
494.978	1	41
495.148	1	45
495.318	1	42
495.489	1	46
495.659	1	43
495.829	1	39
495.999	1	32
496.170	1	44
496.340	1	43
496.510	1	40
496.680	1	37
496.851	1	37
497.021	1	34
497.191	1	37
497.361	1	40
497.532	1	34
497.702	1	36
497.872	1	32
498.042	1	46
498.213	1	38
498.383	1	43
498.553	1	32
498.723	1	38
498.894	1	32
499.064	1	35
499.234	1	29
499.404	1	48
499.574	1	46
499.745	1	38
499.915	1	34
500.085	1	43
500.255	1	41
500.426	1	35
500.596	1	31
500.766	1	40
500.936	1	33
501.106	1	22
501.277	1	41
501.447	1	42
501.617	1	31
501.787	1	31
501.958	1	29
502.128	1	38
502.298	1	36
502.468	1	42
502.638	1	34
502.809	1	42
502.979	1	26
503.149	1	30
503.319	1	26
503.489	1	41
503.660	1	35
503.830	1	32
504.000	1	35
504.170	1	41
504.340	1	29
504.511	1	34
504.681	1	31
504.851	1	44
505.021	1	32
505.192	1	28
505.362	1	36
505.532	1	29
505.702	1	28
505.872	1	28
506.043	1	42
506.213	1	36
506.383	1	33
506.553	1	33
506.723	1	29
506.893	1	38
507.064	1	29
507.234	1	25
507.404	1	27
507.574	1	28
507.744	1	27
507.915	1	40
508.085	1	28
508.255	1	31
508.425	1	24
508.595	1	27
508.766	1	26
508.936	1	17
509.106	1	38
509.276	1	31
509.446	1	32
509.616	1	29
509.787	1	33
509.957	1	28
510.127	1	42
510.297	1	34
510.467	1	31
510.638	1	31
510.808	1	26
510.978	1	23
511.148	1	24
511.318	1	42
511.488	1	12
511.659	1	30
511.829	1	29
511.999	1	24
512.169	1	20
512.339	1	32
512.509	1	29
512.680	1	22
512.850	1	36
513.020	1	25
513.190	1	35
513.360	1	30
513.530	1	27
513.700	1	41
513.871	1	28
514.041	1	22
514.211	1	45
514.381	1	37
514.551	1	24
514.721	1	26
514.892	1	26
515.062	1	34
515.232	1	23
515.402	1	14
515.572	1	25
515.742	1	22
515.912	1	25
516.083	1	24
516.253	1	28
516.423	1	21
516.593	1	20
516.763	1	34
516.933	1	24
517.104	1	26
517.274	1	28
517.444	1	25
517.614	1	11
517.784	1	29
517.954	1	24
518.124	1	23
518.294	1	40
518.465	1	21
518.635	1	20
518.805	1	22
518.975	1	17
519.145	1	21
519.315	1	25
519.485	1	20
519.656	1	35
519.826	1	21
519.996	1	14
520.166	1	21
520.336	1	26
520.506	1	23
520.676	1	13
520.846	1	27
521.017	1	22
521.187	1	12
521.357	1	30
521.527	1	14
521.697	1	20
521.867	1	17
522.037	1	27
522.207	1	23
522.377	1	18
522.548	1	29
522.718	1	22
522.888	1	32
523.058	1	12
523.228	1	12
523.398	1	14
523.568	1	21
523.738	1	21
523.909	1	28
524.079	1	25
524.249	1	17
524.419	1	19
524.589	1	13
524.759	1	19
524.929	1	19
525.099	1	26
525.269	1	27
525.439	1	21
525.610	1	30
525.780	1	15
525.950	1	17
526.120	1	22
526.290	1	27
526.460	1	15
526.630	1	24
526.800	1	9
526.970	1	26
527.140	1	18
527.311	1	11
527.481	1	10
527.651	1	22
527.821	1	14
527.991	1	30
528.161	1	24
528.331	1	14
528.501	1	21
528.671	1	14
528.841	1	17
529.011	1	14
529.181	1	22
529.352	1	21
529.522	1	12
529.692	1	25
529.862	1	12
530.032	1	20
530.202	1	17
530.372	1	28
530.542	1	18
530.712	1	24
530.882	1	22
531.052	1	21
531.222	1	17
531.392	1	14
531.563	1	25
531.733	1	18
531.903	1	14
532.073	1	25
532.243	1	18
532.413	1	19
532.583	1	12
532.753	1	26
532.923	1	9
533.093	1	16
533.263	1	21
533.433	1	16
533.603	1	20
533.773	1	15
533.943	1	15
534.113	1	18
534.284	1	16
534.454	1	20
534.624	1	22
534.794	1	10
534.964	1	22
535.134	1	27
535.304	1	13
535.474	1	34
535.644	1	13
535.814	1	10
535.984	1	17
536.154	1	3
536.324	1	13
536.494	1	19
536.664	1	17
536.834	1	15
537.004	1	16
537.174	1	19
537.344	1	20
537.514	1	9
537.685	1	13
537.855	1	20
538.025	1	15
538.195	1	10
538.365	1	28
538.535	1	15
538.705	1	16
538.875	1	14
539.045	1	24
539.215	1	27
539.385	1	10
539.555	1	12
539.725	1	9
539.895	1	6
540.065	1	23
540.235	1	15
540.405	1	6
540.575	1	19
540.745	1	14
540.915	1	27
541.085	1	18
541.255	1	9
541.425	1	17
541.595	1	4
541.765	1	22
541.935	1	12
542.105	1	12
542.275	1	16
542.445	1	8
542.615	1	14
542.785	1	19
542.955	1	12
543.125	1	11
543.295	1	20
543.465	1	16
543.635	1	16
543.805	1	27
543.975	1	16
544.145	1	19
544.315	1	20
544.485	1	24
544.655	1	10
544.825	1	-2
544.995	1	14
545.165	1	6
545.335	1	19
545.505	1	7
545.675	1	17
545.845	1	15
546.015	1	18
546.185	1	26
546.355	1	5
546.525	1	25
546.695	1	11
546.865	1	14
547.035	1	14
547.205	1	-1
547.375	1	7
547.545	1	24
547.715	1	6
547.885	1	15
548.055	1	4
548.225	1	15
548.395	1	6
548.565	1	6
548.735	1	12
548.905	1	8
549.075	1	13
549.245	1	16
549.415	1	15
549.585	1	9
549.755	1	16
549.925	1	-2
550.095	1	19
550.265	1	6
550.435	1	15
550.605	1	6
550.775	1	2
550.945	1	17
551.115	1	15
551.285	1	14
551.455	1	7
551.625	1	16
551.795	1	11
551.965	1	12
552.135	1	14
552.305	1	11
552.475	1	11
552.645	1	6
552.815	1	7
552.985	1	16
553.155	1	15
553.325	1	12
553.495	1	11
553.665	1	10
553.835	1	17
554.004	1	3
554.174	1	16
554.344	1	12
554.514	1	15
554.684	1	19
554.854	1	17
555.024	1	3
555.194	1	11
555.364	1	21
555.534	1	16
555.704	1	6
555.874	1	18
556.044	1	17
556.214	1	6
556.384	1	1
556.554	1	15
556.724	1	10
556.894	1	9
557.064	1	17
557.234	1	5
557.404	1	9
557.573	1	19
557.743	1	11
557.913	1	16
558.083	1	10
558.253	1	12
558.423	1	8
558.593	1	11
558.763	1	6
558.933	1	17
559.103	1	15
559.273	1	5
559.443	1	14
559.613	1	10
559.783	1	14
559.953	1	7
560.122	1	21
560.292	1	16
560.462	1	20
560.632	1	12
560.802	1	17
560.972	1	3
561.142	1	15
561.312	1	-1
561.482	1	10
561.652	1	18
561.822	1	3
561.992	1	15
562.162	1	13
562.331	1	14
562.501	1	4
562.671	1	10
562.841	1	-3
563.011	1	13
563.181	1	8
563.351	1	1
563.521	1	15
563.691	1	9
563.861	1	8
564.031	1	9
564.201	1	21
564.370	1	1
564.540	1	8
564.710	1	8
564.880	1	11
565.050	1	13
565.220	1	-4
565.390	1	13
565.560	1	22
565.730	1	2
565.900	1	7
566.069	1	20
566.239	1	18
566.409	1	12
566.579	1	9
566.749	1	13
566.919	1	19
567.089	1	12
567.259	1	18
567.429	1	4
567.599	1	6
567.768	1	10
567.938	1	3
568.108	1	9
568.278	1	5
568.448	1	9
568.618	1	5
568.788	1	9
568.958	1	8
569.128	1	16
569.297	1	8
569.467	1	-1
569.637	1	14
569.807	1	9
569.977	1	12
570.147	1	16
570.317	1	5
570.487	1	6
570.656	1	13
570.826	1	8
570.996	1	13
571.166	1	17
571.336	1	9
571.506	1	6
571.676	1	11
571.846	1	15
572.015	1	10
572.185	1	5
572.355	1	9
572.525	1	3
572.695	1	10
572.865	1	6
573.035	1	16
573.205	1	8
573.374	1	-3
573.544	1	6
573.714	1	18
573.884	1	21
574.054	1	6
574.224	1	8
574.394	1	5
574.563	1	4
574.733	1	4
574.903	1	11
575.073	1	0
575.243	1	7
575.413	1	12
575.583	1	2
575.752	1	13
575.922	1	0
576.092	1	2
576.262	1	3
576.432	1	21
576.602	1	8
576.772	1	16
576.941	1	9
577.111	1	3
577.281	1	8
577.451	1	4
577.621	1	19
577.791	1	9
577.960	1	0
578.130	1	1
578.300	1	15
578.470	1	17
578.640	1	11
578.810	1	3
578.979	1	16
579.149	1	6
579.319	1	7
579.489	1	5
579.659	1	11
579.829	1	5
579.998	1	22
580.168	1	13
580.338	1	7
580.508	1	6
580.678	1	8
580.848	1	-2
581.017	1	10
581.187	1	15
581.357	1	-3
581.527	1	18
581.697	1	17
581.867	1	12
582.036	1	10
582.206	1	3
582.376	1	11
582.546	1	-1
582.716	1	4
582.885	1	4
583.055	1	12
583.225	1	-6
583.395	1	14
583.565	1	0
583.735	1	18
583.904	1	11
584.074	1	5
584.244	1	15
584.414	1	2
584.584	1	15
584.753	1	1
584.923	1	14
585.093	1	13
585.263	1	8
585.433	1	16
585.602	1	-7
585.772	1	-5
585.942	1	15
586.112	1	13
586.282	1	3
586.451	1	3
586.621	1	1
586.791	1	8
586.961	1	3
587.131	1	9
587.300	1	-1
587.470	1	16
587.640	1	13
587.810	1	4
587.980	1	3
588.149	1	8
588.319	1	12
588.489	1	1
588.659	1	11
588.829	1	10
588.998	1	21
589.168	1	12
589.338	1	9
589.508	1	9
589.677	1	-1
589.847	1	0
590.017	1	17
590.187	1	-6
590.357	1	17
590.526	1	16
590.696	1	25
590.866	1	14
591.036	1	7
591.205	1	18
591.375	1	-2
591.545	1	4
591.715	1	14
591.885	1	3
592.054	1	21
592.224	1	3
592.394	1	6
592.564	1	13
592.733	1	10
592.903	1	-1
593.073	1	7
593.243	1	13
593.412	1	22
593.582	1	0
593.752	1	8
593.922	1	3
594.091	1	2
594.261	1	6
594.431	1	1
594.601	1	16
594.771	1	8
594.940	1	10
595.110	1	6
595.280	1	14
595.450	1	2
595.619	1	3
595.789	1	12
595.959	1	12
596.129	1	15
596.298	1	0
596.468	1	6
596.638	1	12
596.808	1	12
596.977	1	10
597.147	1	8
597.317	1	-2
597.487	1	13
597.656	1	17
597.826	1	10
597.996	1	3
598.166	1	7
598.335	1	6
598.505	1	4
598.675	1	-2
598.844	1	8
599.014	1	5
599.184	1	14
599.354	1	-3
599.523	1	16
599.693	1	6
599.863	1	11
600.033	1	1
600.202	1	13
600.372	1	15
600.542	1	21
600.712	1	5
600.881	1	6
601.051	1	26
601.221	1	7
601.390	1	4
601.560	1	8
601.730	1	7
601.900	1	12
602.069	1	19
602.239	1	4
602.409	1	4
602.578	1	11
602.748	1	11
602.918	1	22
603.088	1	13
603.257	1	7
603.427	1	3
603.597	1	9
603.767	1	13
603.936	1	19
604.106	1	17
604.276	1	3
604.445	1	12
604.615	1	4
604.785	1	7
604.954	1	4
605.124	1	9
605.294	1	4
605.464	1	4
605.633	1	11
605.803	1	6
605.973	1	7
606.142	1	7
606.312	1	17
606.482	1	9
606.652	1	19
606.821	1	-2
606.991	1	1
607.161	1	5
607.330	1	15
607.500	1	8
607.670	1	-2
607.839	1	18
608.009	1	21
608.179	1	18
608.348	1	8
608.518	1	-4
608.688	1	10
608.858	1	-1
609.027	1	-1
609.197	1	13
609.367	1	14
609.536	1	25
609.706	1	10
609.876	1	10
610.045	1	9
610.215	1	3
610.385	1	4
610.554	1	11
610.724	1	13
610.894	1	8
611.063	1	13
611.233	1	2
611.403	1	6
611.572	1	8
611.742	1	13
611.912	1	9
612.081	1	5
612.251	1	16
612.421	1	2
612.590	1	7
612.760	1	5
612.930	1	14
613.099	1	11
613.269	1	17
613.439	1	13
613.608	1	10
613.778	1	10
613.948	1	14
614.117	1	3
614.287	1	21
614.457	1	11
614.626	1	6
614.796	1	9
614.966	1	3
615.135	1	8
615.305	1	20
615.475	1	20
615.644	1	14
615.814	1	6
615.984	1	13
616.153	1	3
616.323	1	12
616.493	1	14
616.662	1	18
616.832	1	14
617.002	1	8
617.171	1	13
617.341	1	5
617.511	1	12
617.680	1	5
617.850	1	14
618.019	1	16
618.189	1	13
618.359	1	15
618.528	1	18
618.698	1	17
618.868	1	8
619.037	1	14
619.207	1	9
619.377	1	6
619.546	1	11
619.716	1	7
619.885	1	9
620.055	1	4
620.225	1	14
620.394	1	9
620.564	1	19
620.734	1	11
620.903	1	16
621.073	1	16
621.242	1	18
621.412	1	15
621.582	1	9
621.751	1	12
621.921	1	19
622.091	1	9
622.260	1	4
622.430	1	14
622.599	1	9
622.769	1	10
622.939	1	14
623.108	1	8
623.278	1	5
623.448	1	10
623.617	1	14
623.787	1	16
623.956	1	19
624.126	1	16
624.296	1	8
624.465	1	13
624.635	1	7
624.804	1	11
624.974	1	19
625.144	1	12
625.313	1	9
625.483	1	5
625.652	1	12
625.822	1	7
625.992	1	5
626.161	1	20
626.331	1	15
626.501	1	17
626.670	1	11
626.840	1	18
627.009	1	7
627.179	1	18
627.348	1	20
627.518	1	12
627.688	1	10
627.857	1	20
628.027	1	8
628.196	1	20
628.366	1	19
628.536	1	4
628.705	1	8
628.875	1	10
629.044	1	17
629.214	1	18
629.384	1	12
629.553	1	20
629.723	1	14
629.892	1	11
630.062	1	12
630.232	1	9
630.401	1	16
630.571	1	14
630.740	1	9
630.910	1	22
631.079	1	18
631.249	1	14
631.419	1	21
631.588	1	7
631.758	1	9
631.927	1	9
632.097	1	19
632.266	1	12
632.436	1	14
632.606	1	10
632.775	1	18
632.945	1	21
633.114	1	14
633.284	1	14
633.453	1	9
633.623	1	15
633.793	1	11
633.962	1	14
634.132	1	14
634.301	1	10
634.471	1	25
634.640	1	21
634.810	1	16
634.979	1	15
635.149	1	14
635.319	1	16
635.488	1	25
635.658	1	15
635.827	1	3
635.997	1	3
636.166	1	23
636.336	1	7
636.505	1	22
636.675	1	12
636.845	1	19
637.014	1	25
637.184	1	18
637.353	1	17
637.523	1	14
637.692	1	14
637.862	1	18
638.031	1	12
638.201	1	24
638.370	1	14
638.540	1	17
638.710	1	17
638.879	1	12
639.049	1	12
639.218	1	13
639.388	1	14
639.557	1	17
639.727	1	18
639.896	1	15
640.066	1	4
640.235	1	18
640.405	1	32
640.574	1	15
640.744	1	10
640.914	1	11
641.083	1	21
641.253	1	15
641.422	1	13
641.592	1	21
641.761	1	17
641.931	1	10
642.100	1	36
642.270	1	10
642.439	1	18
642.609	1	14
642.778	1	14
642.948	1	13
643.117	1	27
643.287	1	21
643.456	1	17
643.626	1	25
643.795	1	14
643.965	1	14
644.134	1	15
644.304	1	22
644.473	1	28
644.643	1	28
644.812	1	16
644.982	1	25
645.151	1	19
645.321	1	11
645.490	1	33
645.660	1	10
645.829	1	12
645.999	1	8
646.168	1	23
646.338	1	24
646.507	1	18
646.677	1	29
646.846	1	21
647.016	1	6
647.185	1	25
647.355	1	0
647.524	1	26
647.694	1	19
647.863	1	24
648.033	1	23
648.202	1	21
648.372	1	12
648.541	1	16
648.711	1	24
648.880	1	11
649.050	1	15
649.219	1	16
649.389	1	31
649.558	1	11
649.728	1	21
649.897	1	12
650.067	1	26
650.236	1	30
650.406	1	22
650.575	1	23
650.745	1	21
650.914	1	23
651.084	1	10
651.253	1	21
651.423	1	18
651.592	1	20
651.762	1	12
651.931	1	24
652.101	1	22
652.270	1	28
652.440	1	18
652.609	1	13
652.778	1	8
652.948	1	29
653.117	1	20
653.287	1	15
653.456	1	19
653.626	1	22
653.795	1	14
653.965	1	24
654.134	1	25
654.304	1	6
654.473	1	22
654.643	1	26
654.812	1	25
654.982	1	22
655.151	1	17
655.320	1	17
655.490	1	13
655.659	1	24
655.829	1	19
655.998	1	14
656.168	1	24
656.337	1	17
656.507	1	18
656.676	1	21
656.846	1	24
657.015	1	19
657.184	1	30
657.354	1	30
657.523	1	24
657.693	1	25
657.862	1	15
658.032	1	13
658.201	1	20
658.371	1	35
658.540	1	12
658.709	1	14
658.879	1	22
659.048	1	25
659.218	1	24
659.387	1	25
659.557	1	17
659.726	1	25
659.895	1	17
660.065	1	9
660.234	1	22
660.404	1	22
660.573	1	13
660.743	1	17
660.912	1	19
661.081	1	29
661.251	1	15
661.420	1	32
661.590	1	18
661.759	1	26
661.929	1	23
662.098	1	31
662.267	1	19
662.437	1	21
662.606	1	19
662.776	1	22
662.945	1	24
663.115	1	26
663.284	1	6
663.453	1	23
663.623	1	16
663.792	1	17
663.962	1	13
664.131	1	27
664.300	1	24
664.470	1	21
664.639	1	26
664.809	1	22
664.978	1	39
665.148	1	19
665.317	1	22
665.486	1	29
665.656	1	13
665.825	1	31
665.995	1	20
666.164	1	24
666.333	1	16
666.503	1	22
666.672	1	16
666.842	1	21
667.011	1	23
667.180	1	26
667.350	1	24
667.519	1	17
667.689	1	26
667.858	1	22
668.027	1	33
668.197	1	14
668.366	1	16
668.536	1	22
668.705	1	30
668.874	1	24
669.044	1	20
669.213	1	22
669.382	1	20
669.552	1	36
669.721	1	29
669.891	1	29
670.060	1	13
670.229	1	42
670.399	1	31
670.568	1	32
670.738	1	45
670.907	1	18
671.076	1	15
671.246	1	24
671.415	1	26
671.584	1	17
671.754	1	13
671.923	1	16
672.093	1	31
672.262	1	21
672.431	1	23
672.601	1	18
672.770	1	9
672.939	1	28
673.109	1	24
673.278	1	23
673.448	1	29
673.617	1	22
673.786	1	21
