325.333	1	12
325.504	1	10
325.675	1	5
325.846	1	12
326.017	1	6
326.188	1	4
326.359	1	2
326.531	1	-8
326.702	1	5
326.873	1	11
327.044	1	-3
327.215	1	-3
327.386	1	2
327.557	1	-1
327.728	1	7
327.899	1	4
328.070	1	8
328.241	1	16
328.412	1	-13
328.583	1	9
328.754	1	8
328.926	1	11
329.097	1	-1
329.268	1	11
329.439	1	2
329.610	1	4
329.781	1	-2
329.952	1	5
330.123	1	12
330.294	1	-3
330.465	1	3
330.636	1	14
330.807	1	-3
330.978	1	0
331.149	1	12
331.320	1	12
331.492	1	6
331.663	1	2
331.834	1	20
332.005	1	12
332.176	1	18
332.347	1	8
332.518	1	6
332.689	1	8
332.860	1	4
333.031	1	16
333.202	1	7
333.373	1	-1
333.544	1	4
333.715	1	13
333.886	1	3
334.057	1	14
334.228	1	-6
334.399	1	11
334.570	1	8
334.741	1	0
334.912	1	15
335.084	1	25
335.255	1	8
335.426	1	10
335.597	1	3
335.768	1	11
335.939	1	2
336.110	1	5
336.281	1	-2
336.452	1	8
336.623	1	6
336.794	1	11
336.965	1	10
337.136	1	13
337.307	1	1
337.478	1	14
337.649	1	3
337.820	1	7
337.991	1	6
338.162	1	8
338.333	1	8
338.504	1	1
338.675	1	12
338.846	1	19
339.017	1	6
339.188	1	-4
339.359	1	-6
339.530	1	3
339.701	1	16
339.872	1	27
340.043	1	4
340.214	1	10
340.385	1	16
340.556	1	-2
340.727	1	13
340.898	1	13
341.069	1	14
341.240	1	12
341.411	1	7
341.582	1	15
341.753	1	8
341.924	1	7
342.095	1	21
342.266	1	16
342.437	1	22
342.608	1	-3
342.779	1	8
342.950	1	9
343.121	1	14
343.292	1	6
343.463	1	11
343.634	1	6
343.805	1	19
343.976	1	13
344.147	1	12
344.318	1	10
344.489	1	11
344.660	1	32
344.831	1	9
345.002	1	6
345.173	1	14
345.344	1	16
345.515	1	14
345.686	1	22
345.857	1	21
346.028	1	11
346.199	1	7
346.370	1	-3
346.541	1	14
346.712	1	0
346.883	1	12
347.054	1	15
347.225	1	14
347.396	1	11
347.567	1	12
347.738	1	-1
347.909	1	13
348.080	1	5
348.251	1	24
348.422	1	17
348.593	1	14
348.764	1	16
348.935	1	9
349.106	1	10
349.277	1	17
349.448	1	19
349.619	1	13
349.790	1	14
349.961	1	22
350.132	1	29
350.303	1	16
350.474	1	19
350.645	1	15
350.816	1	23
350.987	1	20
351.157	1	10
351.328	1	11
351.499	1	20
351.670	1	12
351.841	1	22
352.012	1	21
352.183	1	30
352.354	1	30
352.525	1	32
352.696	1	30
352.867	1	16
353.038	1	19
353.209	1	27
353.380	1	22
353.551	1	-7
353.722	1	19
353.893	1	15
354.064	1	25
354.235	1	19
354.406	1	24
354.576	1	20
354.747	1	19
354.918	1	23
355.089	1	23
355.260	1	28
355.431	1	18
355.602	1	13
355.773	1	13
355.944	1	18
356.115	1	19
356.286	1	19
356.457	1	24
356.628	1	16
356.799	1	18
356.970	1	24
357.141	1	12
357.311	1	3
357.482	1	30
357.653	1	35
357.824	1	29
357.995	1	27
358.166	1	9
358.337	1	17
358.508	1	23
358.679	1	18
358.850	1	18
359.021	1	11
359.192	1	21
359.363	1	23
359.533	1	21
359.704	1	18
359.875	1	18
360.046	1	30
360.217	1	15
360.388	1	18
360.559	1	23
360.730	1	21
360.901	1	23
361.072	1	27
361.243	1	25
361.414	1	22
361.584	1	14
361.755	1	32
361.926	1	17
362.097	1	29
362.268	1	23
362.439	1	19
362.610	1	37
362.781	1	16
362.952	1	17
363.123	1	29
363.293	1	17
363.464	1	26
363.635	1	36
363.806	1	17
363.977	1	24
364.148	1	23
364.319	1	17
364.490	1	20
364.661	1	18
364.832	1	32
365.002	1	24
365.173	1	26
365.344	1	27
365.515	1	10
365.686	1	17
365.857	1	33
366.028	1	30
366.199	1	6
366.370	1	30
366.540	1	14
366.711	1	7
366.882	1	12
367.053	1	12
367.224	1	41
367.395	1	34
367.566	1	25
367.737	1	24
367.908	1	38
368.078	1	28
368.249	1	28
368.420	1	18
368.591	1	11
368.762	1	19
368.933	1	20
369.104	1	6
369.274	1	29
369.445	1	19
369.616	1	33
369.787	1	35
369.958	1	33
370.129	1	26
370.300	1	39
370.471	1	16
370.641	1	27
370.812	1	26
370.983	1	20
371.154	1	13
371.325	1	22
371.496	1	23
371.667	1	27
371.837	1	19
372.008	1	22
372.179	1	16
372.350	1	30
372.521	1	13
372.692	1	15
372.863	1	27
373.033	1	8
373.204	1	19
373.375	1	32
373.546	1	26
373.717	1	20
373.888	1	34
374.059	1	42
374.229	1	25
374.400	1	18
374.571	1	22
374.742	1	41
374.913	1	24
375.084	1	23
375.254	1	27
375.425	1	26
375.596	1	23
375.767	1	23
375.938	1	27
376.109	1	19
376.279	1	19
376.450	1	32
376.621	1	27
376.792	1	11
376.963	1	25
377.134	1	29
377.304	1	33
377.475	1	20
377.646	1	27
377.817	1	32
377.988	1	27
378.159	1	34
378.329	1	39
378.500	1	13
378.671	1	31
378.842	1	33
379.013	1	18
379.184	1	10
379.354	1	37
379.525	1	21
379.696	1	33
379.867	1	34
380.038	1	15
380.209	1	22
380.379	1	17
380.550	1	16
380.721	1	40
380.892	1	35
381.063	1	31
381.233	1	37
381.404	1	19
381.575	1	42
381.746	1	31
381.917	1	20
382.087	1	34
382.258	1	22
382.429	1	28
382.600	1	41
382.771	1	29
382.941	1	21
383.112	1	34
383.283	1	30
383.454	1	32
383.625	1	24
383.795	1	19
383.966	1	36
384.137	1	36
384.308	1	37
384.479	1	35
384.649	1	40
384.820	1	36
384.991	1	28
385.162	1	33
385.333	1	26
385.503	1	32
385.674	1	25
385.845	1	45
386.016	1	38
386.187	1	31
386.357	1	29
386.528	1	43
386.699	1	41
386.870	1	29
387.041	1	41
387.211	1	28
387.382	1	37
387.553	1	41
387.724	1	23
387.894	1	26
388.065	1	35
388.236	1	26
388.407	1	31
388.578	1	33
388.748	1	27
388.919	1	52
389.090	1	32
389.261	1	33
389.431	1	36
389.602	1	40
389.773	1	34
389.944	1	45
390.114	1	38
390.285	1	43
390.456	1	37
390.627	1	31
390.798	1	23
390.968	1	34
391.139	1	41
391.310	1	32
391.481	1	36
391.651	1	41
391.822	1	32
391.993	1	37
392.164	1	31
392.334	1	35
392.505	1	28
392.676	1	36
392.847	1	45
393.017	1	44
393.188	1	36
393.359	1	29
393.530	1	34
393.700	1	38
393.871	1	31
394.042	1	37
394.213	1	32
394.383	1	38
394.554	1	32
394.725	1	42
394.896	1	35
395.066	1	53
395.237	1	28
395.408	1	29
395.579	1	36
395.749	1	42
395.920	1	32
396.091	1	41
396.262	1	25
396.432	1	44
396.603	1	48
396.774	1	38
396.945	1	37
397.115	1	48
397.286	1	31
397.457	1	40
397.627	1	45
397.798	1	45
397.969	1	20
398.140	1	33
398.310	1	33
398.481	1	44
398.652	1	36
398.823	1	27
398.993	1	44
399.164	1	37
399.335	1	44
399.505	1	45
399.676	1	41
399.847	1	41
400.018	1	36
400.188	1	32
400.359	1	41
400.530	1	39
400.700	1	41
400.871	1	45
401.042	1	45
401.213	1	27
401.383	1	37
401.554	1	51
401.725	1	39
401.895	1	41
402.066	1	40
402.237	1	40
402.408	1	47
402.578	1	41
402.749	1	53
402.920	1	44
403.090	1	40
403.261	1	38
403.432	1	31
403.603	1	36
403.773	1	43
403.944	1	42
404.115	1	47
404.285	1	43
404.456	1	31
404.627	1	36
404.797	1	32
404.968	1	43
405.139	1	32
405.310	1	49
405.480	1	42
405.651	1	36
405.822	1	39
405.992	1	34
406.163	1	36
406.334	1	34
406.504	1	39
406.675	1	52
406.846	1	38
407.016	1	47
407.187	1	40
407.358	1	41
407.528	1	36
407.699	1	37
407.870	1	40
408.041	1	39
408.211	1	54
408.382	1	37
408.553	1	29
408.723	1	50
408.894	1	35
409.065	1	41
409.235	1	35
409.406	1	41
409.577	1	30
409.747	1	57
409.918	1	45
410.089	1	32
410.259	1	38
410.430	1	40
410.601	1	47
410.771	1	44
410.942	1	57
411.113	1	40
411.283	1	35
411.454	1	40
411.625	1	47
411.795	1	39
411.966	1	41
412.137	1	46
412.307	1	28
412.478	1	33
412.649	1	49
412.819	1	34
412.990	1	36
413.161	1	41
413.331	1	40
413.502	1	44
413.672	1	44
413.843	1	44
414.014	1	40
414.184	1	42
414.355	1	42
414.526	1	42
414.696	1	48
414.867	1	43
415.038	1	22
415.208	1	56
415.379	1	51
415.550	1	50
415.720	1	32
415.891	1	38
416.062	1	35
416.232	1	45
416.403	1	40
416.573	1	38
416.744	1	33
416.915	1	47
417.085	1	39
417.256	1	39
417.427	1	37
417.597	1	37
417.768	1	33
417.939	1	50
418.109	1	36
418.280	1	51
418.450	1	36
418.621	1	33
418.792	1	41
418.962	1	45
419.133	1	45
419.304	1	29
419.474	1	31
419.645	1	44
419.815	1	31
419.986	1	44
420.157	1	46
420.327	1	49
420.498	1	53
420.669	1	43
420.839	1	56
421.010	1	46
421.180	1	43
421.351	1	47
421.522	1	42
421.692	1	35
421.863	1	37
422.033	1	46
422.204	1	49
422.375	1	34
422.545	1	45
422.716	1	41
422.886	1	44
423.057	1	46
423.228	1	34
423.398	1	34
423.569	1	42
423.740	1	24
423.910	1	26
424.081	1	42
424.251	1	30
424.422	1	44
424.593	1	39
424.763	1	40
424.934	1	30
425.104	1	33
425.275	1	43
425.445	1	32
425.616	1	33
425.787	1	40
425.957	1	47
426.128	1	39
426.298	1	42
426.469	1	37
426.640	1	40
426.810	1	42
426.981	1	28
427.151	1	37
427.322	1	47
427.493	1	26
427.663	1	50
427.834	1	29
428.004	1	40
428.175	1	40
428.345	1	43
428.516	1	27
428.687	1	37
428.857	1	26
429.028	1	28
429.198	1	37
429.369	1	47
429.540	1	41
429.710	1	28
429.881	1	44
430.051	1	35
430.222	1	33
430.392	1	26
430.563	1	46
430.734	1	46
430.904	1	32
431.075	1	29
431.245	1	33
431.416	1	37
431.586	1	38
431.757	1	36
431.927	1	37
432.098	1	38
432.269	1	30
432.439	1	34
432.610	1	31
432.780	1	44
432.951	1	29
433.121	1	45
433.292	1	44
433.462	1	41
433.633	1	38
433.804	1	38
433.974	1	39
434.145	1	51
434.315	1	35
434.486	1	27
434.656	1	34
434.827	1	32
434.997	1	42
435.168	1	47
435.339	1	39
435.509	1	34
435.680	1	30
435.850	1	32
436.021	1	32
436.191	1	33
436.362	1	40
436.532	1	36
436.703	1	40
436.873	1	42
437.044	1	25
437.214	1	30
437.385	1	39
437.556	1	35
437.726	1	50
437.897	1	46
438.067	1	31
438.238	1	31
438.408	1	48
438.579	1	32
438.749	1	29
438.920	1	25
439.090	1	30
439.261	1	32
439.431	1	21
439.602	1	24
439.772	1	35
439.943	1	36
440.113	1	35
440.284	1	34
440.455	1	34
440.625	1	41
440.796	1	38
440.966	1	23
441.137	1	30
441.307	1	33
441.478	1	35
441.648	1	40
441.819	1	31
441.989	1	30
442.160	1	39
442.330	1	27
442.501	1	26
442.671	1	29
442.842	1	18
443.012	1	19
443.183	1	38
443.353	1	15
443.524	1	39
443.694	1	48
443.865	1	25
444.035	1	34
444.206	1	24
444.376	1	29
444.547	1	49
444.717	1	22
444.888	1	32
445.058	1	40
445.229	1	32
445.399	1	30
445.570	1	41
445.740	1	27
445.911	1	33
446.081	1	24
446.252	1	44
446.422	1	25
446.593	1	37
446.763	1	33
446.934	1	21
447.104	1	29
447.275	1	39
447.445	1	28
447.616	1	28
447.786	1	26
447.957	1	33
448.127	1	31
448.298	1	24
448.468	1	21
448.639	1	24
448.809	1	26
448.979	1	16
449.150	1	33
449.320	1	43
449.491	1	35
449.661	1	23
449.832	1	21
450.002	1	27
450.173	1	33
450.343	1	31
450.514	1	21
450.684	1	25
450.855	1	33
451.025	1	30
451.196	1	30
451.366	1	36
451.537	1	21
451.707	1	18
451.878	1	26
452.048	1	24
452.218	1	29
452.389	1	24
452.559	1	27
452.730	1	28
452.900	1	27
453.071	1	16
453.241	1	27
453.412	1	16
453.582	1	17
453.753	1	28
453.923	1	30
454.093	1	30
454.264	1	31
454.434	1	21
454.605	1	29
454.775	1	17
454.946	1	26
455.116	1	20
455.287	1	20
455.457	1	17
455.628	1	24
455.798	1	34
455.968	1	28
456.139	1	20
456.309	1	19
456.480	1	16
456.650	1	16
456.821	1	15
456.991	1	27
457.161	1	27
457.332	1	21
457.502	1	19
457.673	1	23
457.843	1	27
458.014	1	16
458.184	1	18
458.355	1	27
458.525	1	26
458.695	1	24
458.866	1	19
459.036	1	22
459.207	1	26
459.377	1	17
459.548	1	22
459.718	1	25
459.888	1	19
460.059	1	25
460.229	1	31
460.400	1	32
460.570	1	26
460.740	1	25
460.911	1	13
461.081	1	15
461.252	1	20
461.422	1	19
461.593	1	21
461.763	1	26
461.933	1	25
462.104	1	10
462.274	1	24
462.445	1	31
462.615	1	19
462.785	1	21
462.956	1	25
463.126	1	22
463.297	1	12
463.467	1	21
463.638	1	17
463.808	1	19
463.978	1	13
464.149	1	23
464.319	1	16
464.490	1	38
464.660	1	22
464.830	1	17
465.001	1	16
465.171	1	15
465.342	1	25
465.512	1	9
465.682	1	18
465.853	1	18
466.023	1	22
466.194	1	15
466.364	1	29
466.534	1	13
466.705	1	18
466.875	1	11
467.045	1	12
467.216	1	28
467.386	1	12
467.557	1	20
467.727	1	12
467.897	1	7
468.068	1	15
468.238	1	20
468.409	1	16
468.579	1	16
468.749	1	18
468.920	1	9
469.090	1	25
469.260	1	18
469.431	1	23
469.601	1	21
469.772	1	17
469.942	1	10
470.112	1	18
470.283	1	16
470.453	1	22
470.623	1	17
470.794	1	7
470.964	1	16
471.135	1	17
471.305	1	10
471.475	1	26
471.646	1	7
471.816	1	19
471.986	1	13
472.157	1	22
472.327	1	11
472.497	1	24
472.668	1	7
472.838	1	13
473.009	1	22
473.179	1	10
473.349	1	-3
473.520	1	26
473.690	1	18
473.860	1	13
474.031	1	20
474.201	1	22
474.371	1	32
474.542	1	8
474.712	1	16
474.882	1	23
475.053	1	21
475.223	1	10
475.394	1	30
475.564	1	20
475.734	1	25
475.905	1	26
476.075	1	15
476.245	1	26
476.416	1	24
476.586	1	18
476.756	1	22
476.927	1	13
477.097	1	13
477.267	1	-3
477.438	1	17
477.608	1	17
477.778	1	19
477.949	1	23
478.119	1	28
478.289	1	20
478.460	1	26
478.630	1	16
478.800	1	17
478.971	1	16
479.141	1	22
479.311	1	15
479.482	1	20
479.652	1	10
479.822	1	15
479.993	1	14
480.163	1	29
480.333	1	19
480.504	1	19
480.674	1	18
480.844	1	11
481.015	1	19
481.185	1	18
481.355	1	17
481.525	1	12
481.696	1	15
481.866	1	9
482.036	1	12
482.207	1	8
482.377	1	17
482.547	1	17
482.718	1	13
482.888	1	11
483.058	1	16
483.229	1	11
483.399	1	17
483.569	1	19
483.740	1	24
483.910	1	15
484.080	1	19
484.250	1	24
484.421	1	16
484.591	1	14
484.761	1	26
484.932	1	15
485.102	1	24
485.272	1	12
485.443	1	39
485.613	1	30
485.783	1	-1
485.953	1	16
486.124	1	12
486.294	1	18
486.464	1	20
486.635	1	20
486.805	1	24
486.975	1	16
487.146	1	20
487.316	1	11
487.486	1	14
487.656	1	2
487.827	1	7
487.997	1	6
488.167	1	11
488.338	1	20
488.508	1	9
488.678	1	2
488.848	1	16
489.019	1	3
489.189	1	17
489.359	1	11
489.529	1	8
489.700	1	1
489.870	1	21
490.040	1	6
490.211	1	6
490.381	1	16
490.551	1	12
490.721	1	19
490.892	1	7
491.062	1	18
491.232	1	16
491.402	1	8
491.573	1	6
491.743	1	19
491.913	1	14
492.084	1	16
492.254	1	7
492.424	1	9
492.594	1	17
492.765	1	14
492.935	1	15
493.105	1	19
493.275	1	6
493.446	1	18
493.616	1	26
493.786	1	13
493.956	1	11
494.127	1	16
494.297	1	2
494.467	1	7
494.637	1	11
494.808	1	11
494.978	1	5
495.148	1	7
495.318	1	8
495.489	1	15
495.659	1	21
495.829	1	3
495.999	1	10
496.170	1	15
496.340	1	9
496.510	1	13
496.680	1	4
496.851	1	11
497.021	1	10
497.191	1	12
497.361	1	11
497.532	1	0
497.702	1	8
497.872	1	4
498.042	1	13
498.213	1	5
498.383	1	11
498.553	1	2
498.723	1	14
498.894	1	13
499.064	1	9
499.234	1	17
499.404	1	19
499.574	1	15
499.745	1	23
499.915	1	5
500.085	1	10
500.255	1	20
500.426	1	7
500.596	1	13
500.766	1	3
500.936	1	7
501.106	1	-1
501.277	1	7
501.447	1	10
501.617	1	8
501.787	1	5
501.958	1	0
502.128	1	5
502.298	1	10
502.468	1	11
502.638	1	10
502.809	1	3
502.979	1	5
503.149	1	0
503.319	1	1
503.489	1	5
503.660	1	16
503.830	1	10
504.000	1	19
504.170	1	3
504.340	1	9
504.511	1	10
504.681	1	4
504.851	1	11
505.021	1	12
505.192	1	12
505.362	1	11
505.532	1	5
505.702	1	3
505.872	1	10
506.043	1	8
506.213	1	-3
506.383	1	9
506.553	1	16
506.723	1	18
506.893	1	8
507.064	1	14
507.234	1	9
507.404	1	4
507.574	1	7
507.744	1	9
507.915	1	3
508.085	1	13
508.255	1	14
508.425	1	13
508.595	1	20
508.766	1	19
508.936	1	7
509.106	1	21
509.276	1	15
509.446	1	0
509.616	1	7
509.787	1	8
509.957	1	8
510.127	1	-2
510.297	1	8
510.467	1	1
510.638	1	3
510.808	1	-2
510.978	1	-1
511.148	1	9
511.318	1	9
511.488	1	3
511.659	1	10
511.829	1	-1
511.999	1	5
512.169	1	1
512.339	1	10
512.509	1	5
512.680	1	5
512.850	1	7
513.020	1	7
513.190	1	3
513.360	1	0
513.530	1	13
513.700	1	11
513.871	1	8
514.041	1	2
514.211	1	9
514.381	1	17
514.551	1	10
514.721	1	14
514.892	1	9
515.062	1	11
515.232	1	16
515.402	1	8
515.572	1	-3
515.742	1	14
515.912	1	9
516.083	1	-1
516.253	1	13
516.423	1	3
516.593	1	9
516.763	1	11
516.933	1	4
517.104	1	8
517.274	1	3
517.444	1	8
517.614	1	-8
517.784	1	2
517.954	1	13
518.124	1	19
518.294	1	7
518.465	1	4
518.635	1	12
518.805	1	-2
518.975	1	4
519.145	1	7
519.315	1	6
519.485	1	10
519.656	1	13
519.826	1	10
519.996	1	3
520.166	1	6
520.336	1	6
520.506	1	1
520.676	1	4
520.846	1	12
521.017	1	6
521.187	1	4
521.357	1	20
521.527	1	-7
521.697	1	7
521.867	1	5
522.037	1	6
522.207	1	14
522.377	1	11
522.548	1	10
522.718	1	-2
522.888	1	14
523.058	1	8
523.228	1	10
523.398	1	11
523.568	1	9
523.738	1	5
523.909	1	12
524.079	1	8
524.249	1	-3
524.419	1	14
524.589	1	1
524.759	1	4
524.929	1	4
525.099	1	9
525.269	1	2
525.439	1	7
525.610	1	17
525.780	1	5
525.950	1	6
526.120	1	3
526.290	1	9
526.460	1	1
526.630	1	10
526.800	1	9
526.970	1	7
527.140	1	12
527.311	1	-5
527.481	1	0
527.651	1	8
527.821	1	1
527.991	1	18
528.161	1	10
528.331	1	3
528.501	1	3
528.671	1	6
528.841	1	10
529.011	1	5
529.181	1	7
529.352	1	1
529.522	1	6
529.692	1	2
529.862	1	6
530.032	1	5
530.202	1	15
530.372	1	8
530.542	1	10
530.712	1	4
530.882	1	2
531.052	1	4
531.222	1	2
531.392	1	3
531.563	1	8
531.733	1	8
531.903	1	0
532.073	1	18
532.243	1	8
532.413	1	8
532.583	1	-6
532.753	1	0
532.923	1	-1
533.093	1	6
533.263	1	5
533.433	1	6
533.603	1	15
533.773	1	-1
533.943	1	2
534.113	1	5
534.284	1	4
534.454	1	11
534.624	1	15
534.794	1	3
534.964	1	9
535.134	1	-1
535.304	1	3
535.474	1	10
535.644	1	1
535.814	1	-3
535.984	1	3
536.154	1	-6
536.324	1	-2
536.494	1	9
536.664	1	5
536.834	1	6
537.004	1	1
537.174	1	17
537.344	1	7
537.514	1	-11
537.685	1	2
537.855	1	5
538.025	1	2
538.195	1	6
538.365	1	11
538.535	1	-1
538.705	1	8
538.875	1	0
539.045	1	5
539.215	1	2
539.385	1	7
539.555	1	-1
539.725	1	-1
539.895	1	0
540.065	1	8
540.235	1	13
540.405	1	-1
540.575	1	14
540.745	1	2
540.915	1	9
541.085	1	13
541.255	1	5
541.425	1	19
541.595	1	3
541.765	1	8
541.935	1	-5
542.105	1	-2
542.275	1	2
542.445	1	4
542.615	1	-3
542.785	1	13
542.955	1	0
543.125	1	0
543.295	1	1
543.465	1	4
543.635	1	4
543.805	1	23
543.975	1	3
544.145	1	13
544.315	1	5
544.485	1	7
544.655	1	8
544.825	1	-10
544.995	1	5
545.165	1	-1
545.335	1	7
545.505	1	0
545.675	1	3
545.845	1	5
546.015	1	12
546.185	1	16
546.355	1	4
546.525	1	5
546.695	1	-5
546.865	1	2
547.035	1	4
547.205	1	-6
547.375	1	10
547.545	1	12
547.715	1	-3
547.885	1	4
548.055	1	-2
548.225	1	3
548.395	1	7
548.565	1	4
548.735	1	2
548.905	1	1
549.075	1	3
549.245	1	4
549.415	1	2
549.585	1	4
549.755	1	3
549.925	1	-1
550.095	1	10
550.265	1	-7
550.435	1	12
550.605	1	-3
550.775	1	5
550.945	1	14
551.115	1	5
551.285	1	5
551.455	1	-3
551.625	1	8
551.795	1	16
551.965	1	2
552.135	1	-7
552.305	1	0
552.475	1	-10
552.645	1	-7
552.815	1	0
552.985	1	14
553.155	1	-6
553.325	1	9
553.495	1	-3
553.665	1	8
553.835	1	2
554.004	1	0
554.174	1	4
554.344	1	6
554.514	1	-1
554.684	1	2
554.854	1	14
555.024	1	-8
555.194	1	-3
555.364	1	12
555.534	1	8
555.704	1	0
555.874	1	6
556.044	1	3
556.214	1	6
556.384	1	-1
556.554	1	13
556.724	1	4
556.894	1	0
557.064	1	9
557.234	1	6
557.404	1	9
557.573	1	-3
557.743	1	4
557.913	1	-3
558.083	1	-2
558.253	1	5
558.423	1	-2
558.593	1	5
558.763	1	-2
558.933	1	0
559.103	1	14
559.273	1	13
559.443	1	10
559.613	1	13
559.783	1	6
559.953	1	-4
560.122	1	14
560.292	1	5
560.462	1	-8
560.632	1	9
560.802	1	10
560.972	1	-1
561.142	1	7
561.312	1	-3
561.482	1	13
561.652	1	8
561.822	1	3
561.992	1	2
562.162	1	9
562.331	1	-1
562.501	1	-8
562.671	1	6
562.841	1	-7
563.011	1	3
563.181	1	2
563.351	1	-2
563.521	1	9
563.691	1	-5
563.861	1	-1
564.031	1	8
564.201	1	18
564.370	1	2
564.540	1	-3
564.710	1	-2
564.880	1	8
565.050	1	6
565.220	1	1
565.390	1	13
565.560	1	13
565.730	1	-7
565.900	1	5
566.069	1	11
566.239	1	3
566.409	1	5
566.579	1	11
566.749	1	5
566.919	1	0
567.089	1	9
567.259	1	7
567.429	1	-2
567.599	1	-6
567.768	1	10
567.938	1	9
568.108	1	0
568.278	1	4
568.448	1	-7
568.618	1	2
568.788	1	-3
568.958	1	1
569.128	1	8
569.297	1	4
569.467	1	2
569.637	1	12
569.807	1	-1
569.977	1	5
570.147	1	9
570.317	1	1
570.487	1	3
570.656	1	5
570.826	1	-4
570.996	1	2
571.166	1	14
571.336	1	3
571.506	1	3
571.676	1	10
571.846	1	8
572.015	1	13
572.185	1	-5
572.355	1	6
572.525	1	-2
572.695	1	1
572.865	1	-6
573.035	1	1
573.205	1	7
573.374	1	-5
573.544	1	10
573.714	1	10
573.884	1	7
574.054	1	-6
574.224	1	-4
574.394	1	1
574.563	1	-3
574.733	1	1
574.903	1	-1
575.073	1	0
575.243	1	-1
575.413	1	5
575.583	1	-3
575.752	1	6
575.922	1	-1
576.092	1	1
576.262	1	3
576.432	1	15
576.602	1	2
576.772	1	16
576.941	1	1
577.111	1	-7
577.281	1	-8
577.451	1	-10
577.621	1	8
577.791	1	11
577.960	1	-2
578.130	1	3
578.300	1	7
578.470	1	8
578.640	1	-4
578.810	1	2
578.979	1	4
579.149	1	3
579.319	1	-7
579.489	1	6
579.659	1	-3
579.829	1	4
579.998	1	6
580.168	1	14
580.338	1	4
580.508	1	2
580.678	1	-1
580.848	1	4
581.017	1	4
581.187	1	-3
581.357	1	1
581.527	1	1
581.697	1	8
581.867	1	5
582.036	1	0
582.206	1	1
582.376	1	17
582.546	1	-10
582.716	1	0
582.885	1	-3
583.055	1	-1
583.225	1	-3
583.395	1	8
583.565	1	-9
583.735	1	6
583.904	1	6
584.074	1	-1
584.244	1	16
584.414	1	-4
584.584	1	8
584.753	1	-10
584.923	1	0
585.093	1	4
585.263	1	-1
585.433	1	4
585.602	1	-1
585.772	1	0
585.942	1	6
586.112	1	2
586.282	1	-9
586.451	1	1
586.621	1	-4
586.791	1	-4
586.961	1	2
587.131	1	6
587.300	1	4
587.470	1	4
587.640	1	11
587.810	1	-7
587.980	1	-3
588.149	1	2
588.319	1	-1
588.489	1	-1
588.659	1	3
588.829	1	5
588.998	1	6
589.168	1	-3
589.338	1	-1
589.508	1	5
589.677	1	-5
589.847	1	-2
590.017	1	9
590.187	1	-6
590.357	1	9
590.526	1	11
590.696	1	12
590.866	1	5
591.036	1	-3
591.205	1	20
591.375	1	-4
591.545	1	3
591.715	1	6
591.885	1	0
592.054	1	7
592.224	1	-3
592.394	1	3
592.564	1	0
592.733	1	0
592.903	1	-5
593.073	1	8
593.243	1	7
593.412	1	12
593.582	1	-7
593.752	1	-2
593.922	1	0
594.091	1	-2
594.261	1	1
594.431	1	4
594.601	1	11
594.771	1	3
594.940	1	2
595.110	1	-2
595.280	1	9
595.450	1	-4
595.619	1	5
595.789	1	-3
595.959	1	8
596.129	1	10
596.298	1	-4
596.468	1	0
596.638	1	4
596.808	1	5
596.977	1	2
597.147	1	-1
597.317	1	-1
597.487	1	11
597.656	1	0
597.826	1	6
597.996	1	5
598.166	1	-1
598.335	1	-9
598.505	1	-2
598.675	1	-3
598.844	1	2
599.014	1	2
599.184	1	10
599.354	1	-5
599.523	1	15
599.693	1	4
599.863	1	11
600.033	1	-3
600.202	1	1
600.372	1	4
600.542	1	9
600.712	1	4
600.881	1	-2
601.051	1	14
601.221	1	16
601.390	1	-3
601.560	1	-5
601.730	1	4
601.900	1	5
602.069	1	6
602.239	1	3
602.409	1	-3
602.578	1	6
602.748	1	4
602.918	1	7
603.088	1	13
603.257	1	3
603.427	1	4
603.597	1	9
603.767	1	0
603.936	1	10
604.106	1	3
604.276	1	2
604.445	1	9
604.615	1	-3
604.785	1	4
604.954	1	2
605.124	1	0
605.294	1	4
605.464	1	-5
605.633	1	11
605.803	1	9
605.973	1	3
606.142	1	-1
606.312	1	11
606.482	1	10
606.652	1	19
606.821	1	-1
606.991	1	0
607.161	1	-8
607.330	1	10
607.500	1	12
607.670	1	-6
607.839	1	5
608.009	1	12
608.179	1	9
608.348	1	0
608.518	1	1
608.688	1	9
608.858	1	5
609.027	1	-2
609.197	1	5
609.367	1	8
609.536	1	7
609.706	1	2
609.876	1	-3
610.045	1	0
610.215	1	0
610.385	1	13
610.554	1	5
610.724	1	10
610.894	1	4
611.063	1	10
611.233	1	0
611.403	1	-8
611.572	1	-5
611.742	1	10
611.912	1	-3
612.081	1	-6
612.251	1	13
612.421	1	0
612.590	1	8
612.760	1	-1
612.930	1	11
613.099	1	-8
613.269	1	12
613.439	1	6
613.608	1	4
613.778	1	16
613.948	1	-1
614.117	1	8
614.287	1	5
614.457	1	3
614.626	1	1
614.796	1	1
614.966	1	1
615.135	1	6
615.305	1	18
615.475	1	3
615.644	1	4
615.814	1	3
615.984	1	2
616.153	1	-2
616.323	1	-3
616.493	1	-6
616.662	1	10
616.832	1	-5
617.002	1	-3
617.171	1	0
617.341	1	3
617.511	1	3
617.680	1	6
617.850	1	4
618.019	1	19
618.189	1	10
618.359	1	9
618.528	1	8
618.698	1	13
618.868	1	0
619.037	1	11
619.207	1	-7
619.377	1	-4
619.546	1	-4
619.716	1	13
619.885	1	-4
620.055	1	5
620.225	1	0
620.394	1	-6
620.564	1	7
620.734	1	9
620.903	1	-5
621.073	1	7
621.242	1	5
621.412	1	-3
621.582	1	9
621.751	1	11
621.921	1	9
622.091	1	-5
622.260	1	0
622.430	1	14
622.599	1	5
622.769	1	1
622.939	1	8
623.108	1	2
623.278	1	-7
623.448	1	6
623.617	1	-1
623.787	1	5
623.956	1	7
624.126	1	-4
624.296	1	-5
624.465	1	9
624.635	1	1
624.804	1	7
624.974	1	6
625.144	1	10
625.313	1	-1
625.483	1	1
625.652	1	4
625.822	1	0
625.992	1	0
626.161	1	12
626.331	1	5
626.501	1	2
626.670	1	-3
626.840	1	-7
627.009	1	0
627.179	1	4
627.348	1	10
627.518	1	5
627.688	1	16
627.857	1	12
628.027	1	-10
628.196	1	4
628.366	1	7
628.536	1	7
628.705	1	10
628.875	1	-3
629.044	1	-1
629.214	1	5
629.384	1	0
629.553	1	17
629.723	1	11
629.892	1	2
630.062	1	5
630.232	1	3
630.401	1	1
630.571	1	1
630.740	1	7
630.910	1	4
631.079	1	5
631.249	1	-2
631.419	1	6
631.588	1	-7
631.758	1	-1
631.927	1	-6
632.097	1	0
632.266	1	0
632.436	1	5
632.606	1	-3
632.775	1	10
632.945	1	1
633.114	1	6
633.284	1	8
633.453	1	-1
633.623	1	1
633.793	1	1
633.962	1	-2
634.132	1	12
634.301	1	14
634.471	1	8
634.640	1	8
634.810	1	10
634.979	1	11
635.149	1	6
635.319	1	-1
635.488	1	4
635.658	1	4
635.827	1	-2
635.997	1	-1
636.166	1	5
636.336	1	-2
636.505	1	14
636.675	1	-1
636.845	1	11
637.014	1	5
637.184	1	6
637.353	1	8
637.523	1	3
637.692	1	5
637.862	1	4
638.031	1	14
638.201	1	-1
638.370	1	13
638.540	1	-1
638.710	1	1
638.879	1	-8
639.049	1	4
639.218	1	1
639.388	1	7
639.557	1	3
639.727	1	6
639.896	1	1
640.066	1	5
640.235	1	-5
640.405	1	12
640.574	1	4
640.744	1	1
640.914	1	5
641.083	1	3
641.253	1	-1
641.422	1	4
641.592	1	17
641.761	1	5
641.931	1	-9
642.100	1	18
642.270	1	-4
642.439	1	6
642.609	1	8
642.778	1	6
642.948	1	6
643.117	1	8
643.287	1	10
643.456	1	5
643.626	1	11
643.795	1	2
643.965	1	7
644.134	1	6
644.304	1	3
644.473	1	12
644.643	1	10
644.812	1	2
644.982	1	4
645.151	1	6
645.321	1	-4
645.490	1	9
645.660	1	-8
645.829	1	0
645.999	1	-5
646.168	1	14
646.338	1	12
646.507	1	9
646.677	1	10
646.846	1	8
647.016	1	-10
647.185	1	8
647.355	1	-10
647.524	1	11
647.694	1	14
647.863	1	6
648.033	1	5
648.202	1	12
648.372	1	4
648.541	1	3
648.711	1	-2
648.880	1	2
649.050	1	-3
649.219	1	13
649.389	1	15
649.558	1	12
649.728	1	3
649.897	1	7
650.067	1	8
650.236	1	10
650.406	1	1
650.575	1	11
650.745	1	11
650.914	1	8
651.084	1	-9
651.253	1	9
651.423	1	8
651.592	1	8
651.762	1	6
651.931	1	14
652.101	1	6
652.270	1	5
652.440	1	10
652.609	1	1
652.778	1	2
652.948	1	9
653.117	1	3
653.287	1	4
653.456	1	14
653.626	1	15
653.795	1	11
653.965	1	5
654.134	1	12
654.304	1	-9
654.473	1	7
654.643	1	13
654.812	1	4
654.982	1	12
655.151	1	-3
655.320	1	-4
655.490	1	3
655.659	1	13
655.829	1	3
655.998	1	-3
656.168	1	3
656.337	1	4
656.507	1	3
656.676	1	15
656.846	1	13
657.015	1	16
657.184	1	9
657.354	1	7
657.523	1	2
657.693	1	12
657.862	1	12
658.032	1	7
658.201	1	7
658.371	1	9
658.540	1	8
658.709	1	3
658.879	1	11
659.048	1	5
659.218	1	0
659.387	1	12
659.557	1	9
659.726	1	12
659.895	1	2
660.065	1	1
660.234	1	11
660.404	1	7
660.573	1	4
660.743	1	9
660.912	1	9
661.081	1	15
661.251	1	6
661.420	1	9
661.590	1	6
661.759	1	14
661.929	1	12
662.098	1	11
662.267	1	1
662.437	1	8
662.606	1	5
662.776	1	7
662.945	1	2
663.115	1	5
663.284	1	-4
663.453	1	7
663.623	1	6
663.792	1	13
663.962	1	-1
664.131	1	10
664.300	1	10
664.470	1	15
664.639	1	4
664.809	1	4
664.978	1	14
665.148	1	7
665.317	1	9
665.486	1	12
665.656	1	3
665.825	1	16
665.995	1	-1
666.164	1	4
666.333	1	16
666.503	1	9
666.672	1	-2
666.842	1	9
667.011	1	2
667.180	1	12
667.350	1	0
667.519	1	15
667.689	1	7
667.858	1	7
668.027	1	16
668.197	1	14
668.366	1	1
668.536	1	7
668.705	1	9
668.874	1	6
669.044	1	-1
669.213	1	13
669.382	1	-5
669.552	1	14
669.721	1	10
669.891	1	10
670.060	1	11
670.229	1	22
670.399	1	2
670.568	1	22
670.738	1	7
670.907	1	4
671.076	1	3
671.246	1	11
671.415	1	11
671.584	1	7
671.754	1	3
671.923	1	8
672.093	1	8
672.262	1	3
672.431	1	13
672.601	1	2
672.770	1	-7
672.939	1	9
673.109	1	5
673.278	1	7
673.448	1	8
673.617	1	6
673.786	1	8
