325.333	1	11
325.504	1	6
325.675	1	-4
325.846	1	1
326.017	1	-1
326.188	1	3
326.359	1	-2
326.531	1	-3
326.702	1	2
326.873	1	4
327.044	1	5
327.215	1	5
327.386	1	17
327.557	1	-1
327.728	1	-11
327.899	1	7
328.070	1	8
328.241	1	16
328.412	1	-8
328.583	1	9
328.754	1	2
328.926	1	11
329.097	1	-4
329.268	1	9
329.439	1	1
329.610	1	8
329.781	1	-3
329.952	1	13
330.123	1	3
330.294	1	1
330.465	1	2
330.636	1	8
330.807	1	-5
330.978	1	5
331.149	1	3
331.320	1	3
331.492	1	7
331.663	1	0
331.834	1	0
332.005	1	2
332.176	1	14
332.347	1	3
332.518	1	0
332.689	1	12
332.860	1	7
333.031	1	11
333.202	1	1
333.373	1	1
333.544	1	5
333.715	1	13
333.886	1	-1
334.057	1	12
334.228	1	2
334.399	1	3
334.570	1	7
334.741	1	-9
334.912	1	13
335.084	1	20
335.255	1	5
335.426	1	-2
335.597	1	0
335.768	1	6
335.939	1	3
336.110	1	-3
336.281	1	-6
336.452	1	1
336.623	1	-2
336.794	1	6
336.965	1	-6
337.136	1	16
337.307	1	4
337.478	1	5
337.649	1	2
337.820	1	-4
337.991	1	7
338.162	1	7
338.333	1	8
338.504	1	7
338.675	1	7
338.846	1	8
339.017	1	4
339.188	1	9
339.359	1	-1
339.530	1	4
339.701	1	-1
339.872	1	11
340.043	1	-8
340.214	1	2
340.385	1	3
340.556	1	-1
340.727	1	1
340.898	1	13
341.069	1	7
341.240	1	7
341.411	1	9
341.582	1	8
341.753	1	-1
341.924	1	4
342.095	1	-3
342.266	1	3
342.437	1	11
342.608	1	-12
342.779	1	5
342.950	1	16
343.121	1	12
343.292	1	-1
343.463	1	6
343.634	1	6
343.805	1	10
343.976	1	9
344.147	1	1
344.318	1	4
344.489	1	6
344.660	1	14
344.831	1	11
345.002	1	-2
345.173	1	13
345.344	1	2
345.515	1	12
345.686	1	1
345.857	1	0
346.028	1	8
346.199	1	6
346.370	1	12
346.541	1	12
346.712	1	-4
346.883	1	10
347.054	1	9
347.225	1	8
347.396	1	17
347.567	1	0
347.738	1	-8
347.909	1	18
348.080	1	4
348.251	1	13
348.422	1	16
348.593	1	6
348.764	1	7
348.935	1	-2
349.106	1	0
349.277	1	-3
349.448	1	16
349.619	1	7
349.790	1	11
349.961	1	10
350.132	1	14
350.303	1	7
350.474	1	11
350.645	1	15
350.816	1	15
350.987	1	13
351.157	1	6
351.328	1	15
351.499	1	16
351.670	1	-2
351.841	1	14
352.012	1	10
352.183	1	15
352.354	1	12
352.525	1	17
352.696	1	20
352.867	1	7
353.038	1	16
353.209	1	8
353.380	1	1
353.551	1	3
353.722	1	-1
353.893	1	4
354.064	1	23
354.235	1	16
354.406	1	6
354.576	1	15
354.747	1	4
354.918	1	7
355.089	1	18
355.260	1	13
355.431	1	7
355.602	1	11
355.773	1	7
355.944	1	12
356.115	1	16
356.286	1	7
356.457	1	11
356.628	1	13
356.799	1	15
356.970	1	15
357.141	1	7
357.311	1	5
357.482	1	12
357.653	1	6
357.824	1	27
357.995	1	12
358.166	1	-6
358.337	1	8
358.508	1	20
358.679	1	13
358.850	1	7
359.021	1	8
359.192	1	10
359.363	1	5
359.533	1	8
359.704	1	7
359.875	1	5
360.046	1	7
360.217	1	-4
360.388	1	16
360.559	1	0
360.730	1	12
360.901	1	18
361.072	1	22
361.243	1	10
361.414	1	16
361.584	1	9
361.755	1	20
361.926	1	14
362.097	1	7
362.268	1	8
362.439	1	4
362.610	1	20
362.781	1	12
362.952	1	6
363.123	1	6
363.293	1	8
363.464	1	20
363.635	1	12
363.806	1	8
363.977	1	14
364.148	1	4
364.319	1	12
364.490	1	10
364.661	1	9
364.832	1	9
365.002	1	16
365.173	1	7
365.344	1	21
365.515	1	9
365.686	1	17
365.857	1	26
366.028	1	19
366.199	1	12
366.370	1	11
366.540	1	1
366.711	1	-1
366.882	1	-5
367.053	1	2
367.224	1	21
367.395	1	16
367.566	1	14
367.737	1	22
367.908	1	20
368.078	1	15
368.249	1	14
368.420	1	0
368.591	1	9
368.762	1	9
368.933	1	7
369.104	1	7
369.274	1	14
369.445	1	5
369.616	1	12
369.787	1	11
369.958	1	20
370.129	1	-1
370.300	1	17
370.471	1	10
370.641	1	12
370.812	1	16
370.983	1	13
371.154	1	5
371.325	1	12
371.496	1	12
371.667	1	11
371.837	1	11
372.008	1	15
372.179	1	7
372.350	1	28
372.521	1	11
372.692	1	10
372.863	1	12
373.033	1	0
373.204	1	9
373.375	1	14
373.546	1	19
373.717	1	8
373.888	1	17
374.059	1	14
374.229	1	17
374.400	1	9
374.571	1	5
374.742	1	28
374.913	1	14
375.084	1	10
375.254	1	17
375.425	1	23
375.596	1	15
375.767	1	15
375.938	1	21
376.109	1	18
376.279	1	9
376.450	1	18
376.621	1	23
376.792	1	10
376.963	1	8
377.134	1	19
377.304	1	12
377.475	1	4
377.646	1	4
377.817	1	6
377.988	1	15
378.159	1	6
378.329	1	17
378.500	1	16
378.671	1	10
378.842	1	11
379.013	1	1
379.184	1	9
379.354	1	19
379.525	1	8
379.696	1	22
379.867	1	14
380.038	1	14
380.209	1	18
380.379	1	8
380.550	1	3
380.721	1	11
380.892	1	15
381.063	1	9
381.233	1	17
381.404	1	13
381.575	1	30
381.746	1	16
381.917	1	12
382.087	1	12
382.258	1	14
382.429	1	9
382.600	1	12
382.771	1	16
382.941	1	5
383.112	1	20
383.283	1	24
383.454	1	6
383.625	1	11
383.795	1	15
383.966	1	16
384.137	1	21
384.308	1	13
384.479	1	22
384.649	1	16
384.820	1	14
384.991	1	15
385.162	1	22
385.333	1	12
385.503	1	10
385.674	1	12
385.845	1	22
386.016	1	6
386.187	1	9
386.357	1	29
386.528	1	26
386.699	1	17
386.870	1	29
387.041	1	22
387.211	1	14
387.382	1	20
387.553	1	16
387.724	1	14
387.894	1	16
388.065	1	19
388.236	1	18
388.407	1	14
388.578	1	12
388.748	1	11
388.919	1	27
389.090	1	17
389.261	1	11
389.431	1	25
389.602	1	17
389.773	1	13
389.944	1	15
390.114	1	17
390.285	1	6
390.456	1	20
390.627	1	23
390.798	1	22
390.968	1	16
391.139	1	13
391.310	1	13
391.481	1	22
391.651	1	19
391.822	1	7
391.993	1	17
392.164	1	8
392.334	1	18
392.505	1	15
392.676	1	28
392.847	1	26
393.017	1	20
393.188	1	29
393.359	1	12
393.530	1	15
393.700	1	8
393.871	1	9
394.042	1	10
394.213	1	18
394.383	1	11
394.554	1	25
394.725	1	26
394.896	1	11
395.066	1	23
395.237	1	7
395.408	1	11
395.579	1	14
395.749	1	20
395.920	1	12
396.091	1	29
396.262	1	16
396.432	1	20
396.603	1	23
396.774	1	26
396.945	1	23
397.115	1	16
397.286	1	16
397.457	1	22
397.627	1	22
397.798	1	25
397.969	1	13
398.140	1	17
398.310	1	13
398.481	1	20
398.652	1	18
398.823	1	6
398.993	1	20
399.164	1	14
399.335	1	20
399.505	1	32
399.676	1	17
399.847	1	15
400.018	1	22
400.188	1	19
400.359	1	18
400.530	1	14
400.700	1	17
400.871	1	11
401.042	1	20
401.213	1	16
401.383	1	20
401.554	1	27
401.725	1	30
401.895	1	10
402.066	1	24
402.237	1	17
402.408	1	31
402.578	1	14
402.749	1	15
402.920	1	14
403.090	1	9
403.261	1	17
403.432	1	28
403.603	1	13
403.773	1	29
403.944	1	29
404.115	1	20
404.285	1	25
404.456	1	13
404.627	1	17
404.797	1	7
404.968	1	13
405.139	1	11
405.310	1	30
405.480	1	19
405.651	1	11
405.822	1	16
405.992	1	21
406.163	1	25
406.334	1	4
406.504	1	21
406.675	1	24
406.846	1	9
407.016	1	26
407.187	1	23
407.358	1	10
407.528	1	9
407.699	1	16
407.870	1	16
408.041	1	21
408.211	1	24
408.382	1	14
408.553	1	9
408.723	1	16
408.894	1	21
409.065	1	25
409.235	1	16
409.406	1	10
409.577	1	10
409.747	1	21
409.918	1	13
410.089	1	17
410.259	1	16
410.430	1	19
410.601	1	17
410.771	1	17
410.942	1	31
411.113	1	21
411.283	1	23
411.454	1	18
411.625	1	15
411.795	1	24
411.966	1	22
412.137	1	28
412.307	1	10
412.478	1	20
412.649	1	21
412.819	1	15
412.990	1	18
413.161	1	25
413.331	1	13
413.502	1	20
413.672	1	14
413.843	1	14
414.014	1	28
414.184	1	21
414.355	1	23
414.526	1	25
414.696	1	24
414.867	1	17
415.038	1	10
415.208	1	23
415.379	1	14
415.550	1	23
415.720	1	11
415.891	1	15
416.062	1	21
416.232	1	20
416.403	1	24
416.573	1	25
416.744	1	23
416.915	1	24
417.085	1	26
417.256	1	17
417.427	1	16
417.597	1	11
417.768	1	15
417.939	1	18
418.109	1	18
418.280	1	30
418.450	1	15
418.621	1	7
418.792	1	21
418.962	1	26
419.133	1	32
419.304	1	18
419.474	1	13
419.645	1	23
419.815	1	10
419.986	1	17
420.157	1	16
420.327	1	19
420.498	1	33
420.669	1	16
420.839	1	28
421.010	1	25
421.180	1	26
421.351	1	10
421.522	1	20
421.692	1	14
421.863	1	18
422.033	1	26
422.204	1	17
422.375	1	18
422.545	1	28
422.716	1	23
422.886	1	8
423.057	1	22
423.228	1	19
423.398	1	20
423.569	1	22
423.740	1	8
423.910	1	9
424.081	1	17
424.251	1	19
424.422	1	27
424.593	1	8
424.763	1	30
424.934	1	11
425.104	1	13
425.275	1	16
425.445	1	10
425.616	1	15
425.787	1	12
425.957	1	23
426.128	1	25
426.298	1	15
426.469	1	8
426.640	1	13
426.810	1	18
426.981	1	25
427.151	1	7
427.322	1	24
427.493	1	13
427.663	1	14
427.834	1	15
428.004	1	14
428.175	1	23
428.345	1	9
428.516	1	13
428.687	1	16
428.857	1	17
429.028	1	20
429.198	1	17
429.369	1	16
429.540	1	23
429.710	1	13
429.881	1	25
430.051	1	20
430.222	1	17
430.392	1	15
430.563	1	31
430.734	1	27
430.904	1	29
431.075	1	14
431.245	1	6
431.416	1	14
431.586	1	15
431.757	1	16
431.927	1	16
432.098	1	11
432.269	1	12
432.439	1	22
432.610	1	18
432.780	1	21
432.951	1	16
433.121	1	27
433.292	1	25
433.462	1	18
433.633	1	24
433.804	1	12
433.974	1	23
434.145	1	26
434.315	1	22
434.486	1	16
434.656	1	23
434.827	1	20
434.997	1	13
435.168	1	18
435.339	1	19
435.509	1	19
435.680	1	17
435.850	1	10
436.021	1	19
436.191	1	9
436.362	1	20
436.532	1	14
436.703	1	10
436.873	1	26
437.044	1	6
437.214	1	12
437.385	1	17
437.556	1	17
437.726	1	29
437.897	1	26
438.067	1	20
438.238	1	17
438.408	1	22
438.579	1	19
438.749	1	15
438.920	1	10
439.090	1	17
439.261	1	10
439.431	1	10
439.602	1	9
439.772	1	18
439.943	1	29
440.113	1	21
440.284	1	14
440.455	1	16
440.625	1	23
440.796	1	13
440.966	1	12
441.137	1	10
441.307	1	18
441.478	1	17
441.648	1	19
441.819	1	11
441.989	1	19
442.160	1	27
442.330	1	14
442.501	1	16
442.671	1	9
442.842	1	4
443.012	1	0
443.183	1	17
443.353	1	6
443.524	1	14
443.694	1	24
443.865	1	9
444.035	1	10
444.206	1	12
444.376	1	1
444.547	1	35
444.717	1	15
444.888	1	16
445.058	1	27
445.229	1	15
445.399	1	10
445.570	1	18
445.740	1	10
445.911	1	16
446.081	1	3
446.252	1	24
446.422	1	16
446.593	1	16
446.763	1	9
446.934	1	7
447.104	1	11
447.275	1	22
447.445	1	18
447.616	1	28
447.786	1	11
447.957	1	17
448.127	1	15
448.298	1	20
448.468	1	18
448.639	1	19
448.809	1	17
448.979	1	18
449.150	1	15
449.320	1	19
449.491	1	25
449.661	1	8
449.832	1	7
450.002	1	14
450.173	1	16
450.343	1	10
450.514	1	18
450.684	1	14
450.855	1	18
451.025	1	19
451.196	1	16
451.366	1	11
451.537	1	15
451.707	1	4
451.878	1	17
452.048	1	27
452.218	1	14
452.389	1	19
452.559	1	12
452.730	1	18
452.900	1	18
453.071	1	5
453.241	1	13
453.412	1	10
453.582	1	11
453.753	1	5
453.923	1	8
454.093	1	7
454.264	1	32
454.434	1	11
454.605	1	11
454.775	1	11
454.946	1	14
455.116	1	17
455.287	1	9
455.457	1	9
455.628	1	10
455.798	1	22
455.968	1	23
456.139	1	8
456.309	1	6
456.480	1	2
456.650	1	5
456.821	1	1
456.991	1	11
457.161	1	7
457.332	1	18
457.502	1	-1
457.673	1	10
457.843	1	8
458.014	1	8
458.184	1	11
458.355	1	9
458.525	1	14
458.695	1	17
458.866	1	-2
459.036	1	7
459.207	1	16
459.377	1	13
459.548	1	16
459.718	1	14
459.888	1	16
460.059	1	10
460.229	1	20
460.400	1	15
460.570	1	18
460.740	1	15
460.911	1	7
461.081	1	18
461.252	1	10
461.422	1	6
461.593	1	12
461.763	1	22
461.933	1	12
462.104	1	9
462.274	1	14
462.445	1	13
462.615	1	13
462.785	1	13
462.956	1	20
463.126	1	19
463.297	1	9
463.467	1	19
463.638	1	11
463.808	1	8
463.978	1	6
464.149	1	1
464.319	1	12
464.490	1	18
464.660	1	10
464.830	1	1
465.001	1	15
465.171	1	6
465.342	1	24
465.512	1	3
465.682	1	-1
465.853	1	15
466.023	1	10
466.194	1	8
466.364	1	10
466.534	1	11
466.705	1	9
466.875	1	5
467.045	1	2
467.216	1	21
467.386	1	5
467.557	1	9
467.727	1	4
467.897	1	9
468.068	1	2
468.238	1	15
468.409	1	23
468.579	1	13
468.749	1	5
468.920	1	6
469.090	1	13
469.260	1	6
469.431	1	3
469.601	1	10
469.772	1	13
469.942	1	0
470.112	1	20
470.283	1	14
470.453	1	15
470.623	1	11
470.794	1	3
470.964	1	5
471.135	1	16
471.305	1	2
471.475	1	13
471.646	1	4
471.816	1	4
471.986	1	3
472.157	1	13
472.327	1	7
472.497	1	7
472.668	1	6
472.838	1	10
473.009	1	18
473.179	1	-4
473.349	1	9
473.520	1	24
473.690	1	9
473.860	1	2
474.031	1	14
474.201	1	12
474.371	1	10
474.542	1	9
474.712	1	13
474.882	1	7
475.053	1	14
475.223	1	1
475.394	1	18
475.564	1	13
475.734	1	14
475.905	1	26
476.075	1	10
476.245	1	16
476.416	1	14
476.586	1	12
476.756	1	8
476.927	1	14
477.097	1	10
477.267	1	4
477.438	1	9
477.608	1	15
477.778	1	9
477.949	1	25
478.119	1	17
478.289	1	6
478.460	1	16
478.630	1	14
478.800	1	17
478.971	1	12
479.141	1	3
479.311	1	-2
479.482	1	5
479.652	1	6
479.822	1	10
479.993	1	15
480.163	1	10
480.333	1	17
480.504	1	15
480.674	1	11
480.844	1	4
481.015	1	0
481.185	1	6
481.355	1	10
481.525	1	11
481.696	1	11
481.866	1	11
482.036	1	5
482.207	1	5
482.377	1	6
482.547	1	11
482.718	1	7
482.888	1	20
483.058	1	-3
483.229	1	8
483.399	1	7
483.569	1	9
483.740	1	1
483.910	1	3
484.080	1	10
484.250	1	9
484.421	1	8
484.591	1	8
484.761	1	20
484.932	1	15
485.102	1	19
485.272	1	10
485.443	1	15
485.613	1	6
485.783	1	3
485.953	1	7
486.124	1	9
486.294	1	13
486.464	1	11
486.635	1	3
486.805	1	20
486.975	1	1
487.146	1	10
487.316	1	4
487.486	1	13
487.656	1	6
487.827	1	0
487.997	1	-4
488.167	1	10
488.338	1	21
488.508	1	-1
488.678	1	1
488.848	1	17
489.019	1	-4
489.189	1	8
489.359	1	4
489.529	1	14
489.700	1	6
489.870	1	20
490.040	1	-1
490.211	1	-1
490.381	1	10
490.551	1	2
490.721	1	14
490.892	1	5
491.062	1	20
491.232	1	13
491.402	1	10
491.573	1	5
491.743	1	1
491.913	1	6
492.084	1	15
492.254	1	4
492.424	1	2
492.594	1	7
492.765	1	14
492.935	1	15
493.105	1	2
493.275	1	7
493.446	1	12
493.616	1	22
493.786	1	9
493.956	1	15
494.127	1	3
494.297	1	-1
494.467	1	0
494.637	1	1
494.808	1	11
494.978	1	5
495.148	1	16
495.318	1	1
495.489	1	13
495.659	1	5
495.829	1	8
495.999	1	-5
496.170	1	11
496.340	1	12
496.510	1	6
496.680	1	-1
496.851	1	1
497.021	1	12
497.191	1	-1
497.361	1	7
497.532	1	6
497.702	1	3
497.872	1	4
498.042	1	10
498.213	1	6
498.383	1	5
498.553	1	4
498.723	1	3
498.894	1	8
499.064	1	10
499.234	1	6
499.404	1	7
499.574	1	8
499.745	1	16
499.915	1	9
500.085	1	15
500.255	1	5
500.426	1	6
500.596	1	3
500.766	1	10
500.936	1	5
501.106	1	8
501.277	1	4
501.447	1	10
501.617	1	11
501.787	1	11
501.958	1	-5
502.128	1	11
502.298	1	-3
502.468	1	9
502.638	1	5
502.809	1	2
502.979	1	-5
503.149	1	0
503.319	1	4
503.489	1	4
503.660	1	8
503.830	1	8
504.000	1	9
504.170	1	5
504.340	1	2
504.511	1	2
504.681	1	5
504.851	1	10
505.021	1	5
505.192	1	-4
505.362	1	10
505.532	1	0
505.702	1	1
505.872	1	2
506.043	1	7
506.213	1	3
506.383	1	5
506.553	1	11
506.723	1	8
506.893	1	9
507.064	1	14
507.234	1	-3
507.404	1	6
507.574	1	10
507.744	1	6
507.915	1	10
508.085	1	8
508.255	1	2
508.425	1	-3
508.595	1	12
508.766	1	11
508.936	1	-3
509.106	1	10
509.276	1	18
509.446	1	-1
509.616	1	8
509.787	1	6
509.957	1	6
510.127	1	3
510.297	1	8
510.467	1	3
510.638	1	8
510.808	1	-8
510.978	1	0
511.148	1	10
511.318	1	6
511.488	1	0
511.659	1	3
511.829	1	1
511.999	1	12
512.169	1	10
512.339	1	1
512.509	1	-1
512.680	1	-7
512.850	1	10
513.020	1	15
513.190	1	11
513.360	1	3
513.530	1	2
513.700	1	6
513.871	1	-9
514.041	1	4
514.211	1	10
514.381	1	12
514.551	1	7
514.721	1	-4
514.892	1	14
515.062	1	7
515.232	1	9
515.402	1	-4
515.572	1	-5
515.742	1	7
515.912	1	11
516.083	1	5
516.253	1	12
516.423	1	-1
516.593	1	7
516.763	1	1
516.933	1	-13
517.104	1	8
517.274	1	2
517.444	1	7
517.614	1	1
517.784	1	3
517.954	1	15
518.124	1	10
518.294	1	1
518.465	1	-9
518.635	1	3
518.805	1	-8
518.975	1	2
519.145	1	0
519.315	1	8
519.485	1	3
519.656	1	10
519.826	1	16
519.996	1	-2
520.166	1	14
520.336	1	12
520.506	1	1
520.676	1	3
520.846	1	13
521.017	1	1
521.187	1	6
521.357	1	13
521.527	1	3
521.697	1	10
521.867	1	-6
522.037	1	13
522.207	1	8
522.377	1	9
522.548	1	-3
522.718	1	4
522.888	1	26
523.058	1	-2
523.228	1	7
523.398	1	6
523.568	1	7
523.738	1	3
523.909	1	6
524.079	1	3
524.249	1	4
524.419	1	1
524.589	1	5
524.759	1	1
524.929	1	3
525.099	1	4
525.269	1	13
525.439	1	-2
525.610	1	10
525.780	1	11
525.950	1	15
526.120	1	1
526.290	1	2
526.460	1	-2
526.630	1	12
526.800	1	-1
526.970	1	2
527.140	1	3
527.311	1	-1
527.481	1	-13
527.651	1	12
527.821	1	1
527.991	1	10
528.161	1	14
528.331	1	4
528.501	1	11
528.671	1	7
528.841	1	6
529.011	1	-4
529.181	1	12
529.352	1	3
529.522	1	-1
529.692	1	8
529.862	1	3
530.032	1	-4
530.202	1	6
530.372	1	4
530.542	1	8
530.712	1	-2
530.882	1	3
531.052	1	12
531.222	1	10
531.392	1	4
531.563	1	12
531.733	1	2
531.903	1	8
532.073	1	9
532.243	1	5
532.413	1	1
532.583	1	6
532.753	1	8
532.923	1	-3
533.093	1	6
533.263	1	1
533.433	1	0
533.603	1	7
533.773	1	-3
533.943	1	8
534.113	1	5
534.284	1	3
534.454	1	13
534.624	1	20
534.794	1	-2
534.964	1	7
535.134	1	-4
535.304	1	-4
535.474	1	11
535.644	1	0
535.814	1	-8
535.984	1	-2
536.154	1	3
536.324	1	7
536.494	1	1
536.664	1	9
536.834	1	1
537.004	1	4
537.174	1	1
537.344	1	1
537.514	1	-7
537.685	1	-6
537.855	1	1
538.025	1	5
538.195	1	-2
538.365	1	8
538.535	1	-4
538.705	1	5
538.875	1	1
539.045	1	-1
539.215	1	10
539.385	1	10
539.555	1	9
539.725	1	3
539.895	1	1
540.065	1	17
540.235	1	4
540.405	1	-2
540.575	1	-2
540.745	1	14
540.915	1	8
541.085	1	18
541.255	1	-7
541.425	1	11
541.595	1	6
541.765	1	0
541.935	1	3
542.105	1	0
542.275	1	2
542.445	1	-4
542.615	1	3
542.785	1	13
542.955	1	-5
543.125	1	-1
543.295	1	16
543.465	1	0
543.635	1	5
543.805	1	18
543.975	1	0
544.145	1	13
544.315	1	3
544.485	1	4
544.655	1	-1
544.825	1	-14
544.995	1	0
545.165	1	-10
545.335	1	11
545.505	1	-5
545.675	1	0
545.845	1	4
546.015	1	8
546.185	1	9
546.355	1	9
546.525	1	4
546.695	1	4
546.865	1	-7
547.035	1	1
547.205	1	-5
547.375	1	1
547.545	1	7
547.715	1	-4
547.885	1	7
548.055	1	3
548.225	1	8
548.395	1	-8
548.565	1	-1
548.735	1	-1
548.905	1	5
549.075	1	15
549.245	1	10
549.415	1	0
549.585	1	2
549.755	1	-7
549.925	1	0
550.095	1	11
550.265	1	-9
550.435	1	11
550.605	1	-6
550.775	1	4
550.945	1	10
551.115	1	13
551.285	1	7
551.455	1	-6
551.625	1	-2
551.795	1	5
551.965	1	1
552.135	1	-7
552.305	1	-1
552.475	1	-2
552.645	1	-1
552.815	1	3
552.985	1	9
553.155	1	9
553.325	1	8
553.495	1	-2
553.665	1	0
553.835	1	3
554.004	1	4
554.174	1	3
554.344	1	7
554.514	1	1
554.684	1	6
554.854	1	3
555.024	1	-1
555.194	1	-12
555.364	1	13
555.534	1	-9
555.704	1	1
555.874	1	6
556.044	1	-8
556.214	1	-9
556.384	1	-4
556.554	1	9
556.724	1	3
556.894	1	14
557.064	1	6
557.234	1	-6
557.404	1	5
557.573	1	7
557.743	1	0
557.913	1	-1
558.083	1	-6
558.253	1	5
558.423	1	-1
558.593	1	12
558.763	1	2
558.933	1	9
559.103	1	5
559.273	1	3
559.443	1	3
559.613	1	9
559.783	1	0
559.953	1	0
560.122	1	6
560.292	1	4
560.462	1	-4
560.632	1	2
560.802	1	11
560.972	1	-2
561.142	1	-1
561.312	1	-12
561.482	1	3
561.652	1	3
561.822	1	-3
561.992	1	5
562.162	1	2
562.331	1	5
562.501	1	-11
562.671	1	13
562.841	1	-9
563.011	1	5
563.181	1	-5
563.351	1	2
563.521	1	6
563.691	1	-3
563.861	1	0
564.031	1	3
564.201	1	12
564.370	1	1
564.540	1	11
564.710	1	-3
564.880	1	4
565.050	1	11
565.220	1	2
565.390	1	-1
565.560	1	4
565.730	1	0
565.900	1	-5
566.069	1	7
566.239	1	9
566.409	1	6
566.579	1	11
566.749	1	2
566.919	1	9
567.089	1	6
567.259	1	8
567.429	1	3
567.599	1	-7
567.768	1	0
567.938	1	-1
568.108	1	1
568.278	1	-1
568.448	1	-4
568.618	1	-3
568.788	1	2
568.958	1	2
569.128	1	7
569.297	1	8
569.467	1	-3
569.637	1	13
569.807	1	-1
569.977	1	6
570.147	1	8
570.317	1	-3
570.487	1	3
570.656	1	9
570.826	1	2
570.996	1	-2
571.166	1	10
571.336	1	-8
571.506	1	1
571.676	1	10
571.846	1	10
572.015	1	8
572.185	1	3
572.355	1	4
572.525	1	5
572.695	1	-3
572.865	1	-3
573.035	1	7
573.205	1	3
573.374	1	1
573.544	1	3
573.714	1	11
573.884	1	4
574.054	1	5
574.224	1	10
574.394	1	6
574.563	1	-8
574.733	1	-4
574.903	1	-1
575.073	1	-4
575.243	1	-2
575.413	1	14
575.583	1	8
575.752	1	6
575.922	1	4
576.092	1	5
576.262	1	5
576.432	1	10
576.602	1	-2
576.772	1	19
576.941	1	2
577.111	1	-2
577.281	1	-8
577.451	1	-7
577.621	1	5
577.791	1	2
577.960	1	2
578.130	1	2
578.300	1	-7
578.470	1	8
578.640	1	2
578.810	1	3
578.979	1	-3
579.149	1	3
579.319	1	-9
579.489	1	6
579.659	1	-7
579.829	1	4
579.998	1	3
580.168	1	13
580.338	1	7
580.508	1	6
580.678	1	6
580.848	1	-5
581.017	1	7
581.187	1	4
581.357	1	-10
581.527	1	6
581.697	1	3
581.867	1	9
582.036	1	7
582.206	1	3
582.376	1	13
582.546	1	-8
582.716	1	-3
582.885	1	5
583.055	1	2
583.225	1	-8
583.395	1	7
583.565	1	-7
583.735	1	4
583.904	1	9
584.074	1	9
584.244	1	10
584.414	1	0
584.584	1	2
584.753	1	-1
584.923	1	-4
585.093	1	10
585.263	1	1
585.433	1	0
585.602	1	-8
585.772	1	-1
585.942	1	-1
586.112	1	3
586.282	1	-4
586.451	1	0
586.621	1	-3
586.791	1	13
586.961	1	-1
587.131	1	2
587.300	1	-1
587.470	1	3
587.640	1	10
587.810	1	0
587.980	1	-2
588.149	1	13
588.319	1	2
588.489	1	8
588.659	1	2
588.829	1	6
588.998	1	6
589.168	1	15
589.338	1	-5
589.508	1	23
589.677	1	-6
589.847	1	-7
590.017	1	18
590.187	1	0
590.357	1	13
590.526	1	11
590.696	1	7
590.866	1	4
591.036	1	-2
591.205	1	11
591.375	1	-1
591.545	1	0
591.715	1	11
591.885	1	1
592.054	1	10
592.224	1	0
592.394	1	2
592.564	1	-2
592.733	1	2
592.903	1	-1
593.073	1	1
593.243	1	7
593.412	1	5
593.582	1	5
593.752	1	1
593.922	1	6
594.091	1	-3
594.261	1	-8
594.431	1	12
594.601	1	5
594.771	1	2
594.940	1	7
595.110	1	-2
595.280	1	12
595.450	1	-8
595.619	1	-1
595.789	1	2
595.959	1	4
596.129	1	-2
596.298	1	3
596.468	1	3
596.638	1	2
596.808	1	-1
596.977	1	-1
597.147	1	0
597.317	1	-5
597.487	1	13
597.656	1	0
597.826	1	10
597.996	1	4
598.166	1	-2
598.335	1	-5
598.505	1	-4
598.675	1	0
598.844	1	4
599.014	1	-5
599.184	1	4
599.354	1	-4
599.523	1	5
599.693	1	-1
599.863	1	2
600.033	1	-1
600.202	1	4
600.372	1	0
600.542	1	8
600.712	1	-1
600.881	1	0
601.051	1	10
601.221	1	4
601.390	1	0
601.560	1	6
601.730	1	7
601.900	1	10
602.069	1	9
602.239	1	2
602.409	1	1
602.578	1	7
602.748	1	7
602.918	1	7
603.088	1	7
603.257	1	9
603.427	1	-1
603.597	1	2
603.767	1	7
603.936	1	6
604.106	1	4
604.276	1	3
604.445	1	8
604.615	1	-3
604.785	1	2
604.954	1	0
605.124	1	10
605.294	1	2
605.464	1	-2
605.633	1	-4
605.803	1	0
605.973	1	1
606.142	1	4
606.312	1	2
606.482	1	-1
606.652	1	11
606.821	1	-6
606.991	1	3
607.161	1	-9
607.330	1	5
607.500	1	2
607.670	1	-8
607.839	1	16
608.009	1	12
608.179	1	5
608.348	1	0
608.518	1	6
608.688	1	3
608.858	1	-1
609.027	1	-11
609.197	1	3
609.367	1	13
609.536	1	1
609.706	1	-3
609.876	1	-7
610.045	1	4
610.215	1	6
610.385	1	0
610.554	1	4
610.724	1	12
610.894	1	1
611.063	1	1
611.233	1	-3
611.403	1	-2
611.572	1	-2
611.742	1	9
611.912	1	5
612.081	1	2
612.251	1	13
612.421	1	2
612.590	1	9
612.760	1	0
612.930	1	3
613.099	1	-2
613.269	1	12
613.439	1	-4
613.608	1	2
613.778	1	3
613.948	1	2
614.117	1	1
614.287	1	11
614.457	1	2
614.626	1	2
614.796	1	10
614.966	1	-2
615.135	1	-1
615.305	1	8
615.475	1	-3
615.644	1	2
615.814	1	5
615.984	1	2
616.153	1	-2
616.323	1	3
616.493	1	-1
616.662	1	8
616.832	1	5
617.002	1	3
617.171	1	-6
617.341	1	-2
617.511	1	-2
617.680	1	-1
617.850	1	7
618.019	1	9
618.189	1	10
618.359	1	6
618.528	1	5
618.698	1	7
618.868	1	-2
619.037	1	3
619.207	1	-11
619.377	1	0
619.546	1	3
619.716	1	2
619.885	1	5
620.055	1	-9
620.225	1	6
620.394	1	1
620.564	1	6
620.734	1	6
620.903	1	-2
621.073	1	4
621.242	1	9
621.412	1	-5
621.582	1	7
621.751	1	7
621.921	1	7
622.091	1	0
622.260	1	10
622.430	1	7
622.599	1	-6
622.769	1	3
622.939	1	13
623.108	1	6
623.278	1	-6
623.448	1	1
623.617	1	8
623.787	1	10
623.956	1	7
624.126	1	0
624.296	1	0
624.465	1	10
624.635	1	9
624.804	1	0
624.974	1	11
625.144	1	4
625.313	1	12
625.483	1	2
625.652	1	2
625.822	1	0
625.992	1	0
626.161	1	7
626.331	1	9
626.501	1	6
626.670	1	4
626.840	1	6
627.009	1	-1
627.179	1	3
627.348	1	8
627.518	1	3
627.688	1	4
627.857	1	20
628.027	1	-5
628.196	1	7
628.366	1	1
628.536	1	4
628.705	1	1
628.875	1	-2
629.044	1	5
629.214	1	4
629.384	1	7
629.553	1	4
629.723	1	13
629.892	1	-2
630.062	1	0
630.232	1	6
630.401	1	2
630.571	1	3
630.740	1	7
630.910	1	5
631.079	1	1
631.249	1	6
631.419	1	14
631.588	1	-6
631.758	1	12
631.927	1	-5
632.097	1	-6
632.266	1	-3
632.436	1	6
632.606	1	-3
632.775	1	2
632.945	1	10
633.114	1	10
633.284	1	6
633.453	1	-1
633.623	1	0
633.793	1	14
633.962	1	8
634.132	1	6
634.301	1	-1
634.471	1	8
634.640	1	3
634.810	1	1
634.979	1	9
635.149	1	8
635.319	1	1
635.488	1	-1
635.658	1	1
635.827	1	-1
635.997	1	-1
636.166	1	3
636.336	1	-8
636.505	1	11
636.675	1	1
636.845	1	7
637.014	1	9
637.184	1	15
637.353	1	4
637.523	1	6
637.692	1	-1
637.862	1	1
638.031	1	7
638.201	1	14
638.370	1	-5
638.540	1	-5
638.710	1	-2
638.879	1	-7
639.049	1	5
639.218	1	6
639.388	1	4
639.557	1	-2
639.727	1	3
639.896	1	2
640.066	1	-10
640.235	1	6
640.405	1	12
640.574	1	2
640.744	1	-5
640.914	1	5
641.083	1	-4
641.253	1	-5
641.422	1	-4
641.592	1	16
641.761	1	10
641.931	1	5
642.100	1	19
642.270	1	3
642.439	1	5
642.609	1	11
642.778	1	3
642.948	1	0
643.117	1	15
643.287	1	7
643.456	1	2
643.626	1	9
643.795	1	2
643.965	1	6
644.134	1	3
644.304	1	-3
644.473	1	5
644.643	1	2
644.812	1	2
644.982	1	10
645.151	1	-2
645.321	1	2
645.490	1	12
645.660	1	-11
645.829	1	2
645.999	1	3
646.168	1	16
646.338	1	11
646.507	1	0
646.677	1	-1
646.846	1	1
647.016	1	-4
647.185	1	2
647.355	1	-14
647.524	1	6
647.694	1	14
647.863	1	4
648.033	1	-5
648.202	1	9
648.372	1	0
648.541	1	-3
648.711	1	8
648.880	1	-4
649.050	1	3
649.219	1	1
649.389	1	10
649.558	1	3
649.728	1	6
649.897	1	-1
650.067	1	6
650.236	1	12
650.406	1	1
650.575	1	9
650.745	1	7
650.914	1	9
651.084	1	-8
651.253	1	9
651.423	1	-2
651.592	1	4
651.762	1	-4
651.931	1	10
652.101	1	12
652.270	1	8
652.440	1	11
652.609	1	-3
652.778	1	7
652.948	1	13
653.117	1	3
653.287	1	2
653.456	1	2
653.626	1	8
653.795	1	3
653.965	1	13
654.134	1	11
654.304	1	-6
654.473	1	12
654.643	1	7
654.812	1	14
654.982	1	5
655.151	1	-6
655.320	1	3
655.490	1	-3
655.659	1	0
655.829	1	-5
655.998	1	-8
656.168	1	8
656.337	1	-3
656.507	1	5
656.676	1	0
656.846	1	9
657.015	1	1
657.184	1	12
657.354	1	8
657.523	1	-1
657.693	1	6
657.862	1	-2
658.032	1	6
658.201	1	9
658.371	1	5
658.540	1	4
658.709	1	2
658.879	1	2
659.048	1	-1
659.218	1	4
659.387	1	2
659.557	1	4
659.726	1	4
659.895	1	1
660.065	1	-1
660.234	1	6
660.404	1	10
660.573	1	-2
660.743	1	3
660.912	1	9
661.081	1	12
661.251	1	1
661.420	1	6
661.590	1	3
661.759	1	5
661.929	1	12
662.098	1	11
662.267	1	6
662.437	1	6
662.606	1	5
662.776	1	10
662.945	1	7
663.115	1	-1
663.284	1	-3
663.453	1	13
663.623	1	0
663.792	1	8
663.962	1	10
664.131	1	8
664.300	1	3
664.470	1	-8
664.639	1	8
664.809	1	1
664.978	1	4
665.148	1	4
665.317	1	10
665.486	1	5
665.656	1	4
665.825	1	9
665.995	1	-6
666.164	1	2
666.333	1	2
666.503	1	-2
666.672	1	-8
666.842	1	5
667.011	1	7
667.180	1	1
667.350	1	8
667.519	1	6
667.689	1	5
667.858	1	3
668.027	1	8
668.197	1	8
668.366	1	-8
668.536	1	6
668.705	1	5
668.874	1	3
669.044	1	-7
669.213	1	13
669.382	1	-4
669.552	1	17
669.721	1	0
669.891	1	13
670.060	1	10
670.229	1	19
670.399	1	-3
670.568	1	12
670.738	1	19
670.907	1	-2
671.076	1	0
671.246	1	-1
671.415	1	9
671.584	1	2
671.754	1	4
671.923	1	11
672.093	1	7
672.262	1	1
672.431	1	2
672.601	1	-5
672.770	1	1
672.939	1	11
673.109	1	-5
673.278	1	4
673.448	1	6
673.617	1	2
673.786	1	3
