325.333	1	30
325.504	1	26
325.675	1	23
325.846	1	23
326.017	1	19
326.188	1	27
326.359	1	22
326.531	1	21
326.702	1	20
326.873	1	42
327.044	1	35
327.215	1	30
327.386	1	35
327.557	1	20
327.728	1	38
327.899	1	33
328.070	1	48
328.241	1	36
328.412	1	29
328.583	1	34
328.754	1	39
328.926	1	43
329.097	1	24
329.268	1	39
329.439	1	32
329.610	1	41
329.781	1	29
329.952	1	43
330.123	1	44
330.294	1	37
330.465	1	38
330.636	1	48
330.807	1	32
330.978	1	44
331.149	1	47
331.320	1	41
331.492	1	38
331.663	1	37
331.834	1	47
332.005	1	42
332.176	1	59
332.347	1	45
332.518	1	34
332.689	1	43
332.860	1	41
333.031	1	50
333.202	1	38
333.373	1	52
333.544	1	39
333.715	1	51
333.886	1	47
334.057	1	45
334.228	1	36
334.399	1	39
334.570	1	52
334.741	1	47
334.912	1	42
335.084	1	55
335.255	1	51
335.426	1	48
335.597	1	40
335.768	1	46
335.939	1	45
336.110	1	48
336.281	1	45
336.452	1	53
336.623	1	43
336.794	1	61
336.965	1	50
337.136	1	68
337.307	1	48
337.478	1	52
337.649	1	55
337.820	1	48
337.991	1	44
338.162	1	53
338.333	1	61
338.504	1	58
338.675	1	63
338.846	1	57
339.017	1	56
339.188	1	50
339.359	1	46
339.530	1	58
339.701	1	70
339.872	1	67
340.043	1	57
340.214	1	57
340.385	1	62
340.556	1	57
340.727	1	61
340.898	1	70
341.069	1	72
341.240	1	53
341.411	1	62
341.582	1	68
341.753	1	57
341.924	1	63
342.095	1	67
342.266	1	74
342.437	1	69
342.608	1	72
342.779	1	69
342.950	1	61
343.121	1	68
343.292	1	57
343.463	1	65
343.634	1	67
343.805	1	73
343.976	1	80
344.147	1	70
344.318	1	74
344.489	1	70
344.660	1	73
344.831	1	66
345.002	1	63
345.173	1	81
345.344	1	78
345.515	1	77
345.686	1	74
345.857	1	75
346.028	1	72
346.199	1	64
346.370	1	68
346.541	1	78
346.712	1	75
346.883	1	75
347.054	1	83
347.225	1	75
347.396	1	82
347.567	1	81
347.738	1	65
347.909	1	91
348.080	1	67
348.251	1	81
348.422	1	89
348.593	1	85
348.764	1	80
348.935	1	79
349.106	1	77
349.277	1	81
349.448	1	86
349.619	1	93
349.790	1	88
349.961	1	96
350.132	1	99
350.303	1	93
350.474	1	97
350.645	1	103
350.816	1	91
350.987	1	93
351.157	1	93
351.328	1	104
351.499	1	94
351.670	1	86
351.841	1	107
352.012	1	97
352.183	1	103
352.354	1	118
352.525	1	98
352.696	1	107
352.867	1	95
353.038	1	112
353.209	1	100
353.380	1	112
353.551	1	87
353.722	1	103
353.893	1	98
354.064	1	110
354.235	1	100
354.406	1	101
354.576	1	96
354.747	1	104
354.918	1	100
355.089	1	104
355.260	1	106
355.431	1	105
355.602	1	98
355.773	1	107
355.944	1	108
356.115	1	107
356.286	1	107
356.457	1	113
356.628	1	105
356.799	1	119
356.970	1	124
357.141	1	117
357.311	1	98
357.482	1	112
357.653	1	115
357.824	1	127
357.995	1	112
358.166	1	100
358.337	1	122
358.508	1	105
358.679	1	114
358.850	1	108
359.021	1	119
359.192	1	119
359.363	1	109
359.533	1	123
359.704	1	113
359.875	1	124
360.046	1	115
360.217	1	108
360.388	1	116
360.559	1	120
360.730	1	128
360.901	1	121
361.072	1	128
361.243	1	109
361.414	1	126
361.584	1	108
361.755	1	117
361.926	1	114
362.097	1	136
362.268	1	115
362.439	1	116
362.610	1	134
362.781	1	126
362.952	1	111
363.123	1	120
363.293	1	112
363.464	1	139
363.635	1	129
363.806	1	112
363.977	1	130
364.148	1	122
364.319	1	113
364.490	1	135
364.661	1	124
364.832	1	138
365.002	1	118
365.173	1	130
365.344	1	133
365.515	1	130
365.686	1	121
365.857	1	133
366.028	1	125
366.199	1	122
366.370	1	132
366.540	1	119
366.711	1	117
366.882	1	126
367.053	1	117
367.224	1	147
367.395	1	122
367.566	1	140
367.737	1	140
367.908	1	135
368.078	1	132
368.249	1	131
368.420	1	123
368.591	1	131
368.762	1	134
368.933	1	127
369.104	1	121
369.274	1	125
369.445	1	128
369.616	1	134
369.787	1	132
369.958	1	139
370.129	1	117
370.300	1	144
370.471	1	121
370.641	1	124
370.812	1	125
370.983	1	131
371.154	1	135
371.325	1	143
371.496	1	116
371.667	1	138
371.837	1	123
372.008	1	123
372.179	1	129
372.350	1	150
372.521	1	127
372.692	1	121
372.863	1	130
373.033	1	118
373.204	1	138
373.375	1	144
373.546	1	144
373.717	1	143
373.888	1	156
374.059	1	134
374.229	1	144
374.400	1	132
374.571	1	134
374.742	1	136
374.913	1	151
375.084	1	141
375.254	1	141
375.425	1	145
375.596	1	145
375.767	1	147
375.938	1	137
376.109	1	142
376.279	1	140
376.450	1	151
376.621	1	143
376.792	1	141
376.963	1	144
377.134	1	151
377.304	1	138
377.475	1	139
377.646	1	143
377.817	1	146
377.988	1	145
378.159	1	148
378.329	1	135
378.500	1	136
378.671	1	141
378.842	1	141
379.013	1	141
379.184	1	152
379.354	1	168
379.525	1	153
379.696	1	163
379.867	1	175
380.038	1	145
380.209	1	155
380.379	1	160
380.550	1	139
380.721	1	169
380.892	1	150
381.063	1	168
381.233	1	146
381.404	1	160
381.575	1	176
381.746	1	159
381.917	1	161
382.087	1	159
382.258	1	154
382.429	1	163
382.600	1	161
382.771	1	163
382.941	1	157
383.112	1	157
383.283	1	174
383.454	1	167
383.625	1	139
383.795	1	174
383.966	1	164
384.137	1	179
384.308	1	174
384.479	1	169
384.649	1	166
384.820	1	170
384.991	1	172
385.162	1	175
385.333	1	176
385.503	1	176
385.674	1	156
385.845	1	183
386.016	1	175
386.187	1	174
386.357	1	188
386.528	1	189
386.699	1	169
386.870	1	180
387.041	1	189
387.211	1	163
387.382	1	182
387.553	1	190
387.724	1	187
387.894	1	187
388.065	1	190
388.236	1	188
388.407	1	174
388.578	1	177
388.748	1	169
388.919	1	196
389.090	1	182
389.261	1	187
389.431	1	192
389.602	1	180
389.773	1	187
389.944	1	178
390.114	1	202
390.285	1	181
390.456	1	178
390.627	1	177
390.798	1	179
390.968	1	172
391.139	1	182
391.310	1	180
391.481	1	191
391.651	1	185
391.822	1	174
391.993	1	197
392.164	1	167
392.334	1	169
392.505	1	180
392.676	1	192
392.847	1	183
393.017	1	199
393.188	1	193
393.359	1	177
393.530	1	198
393.700	1	188
393.871	1	182
394.042	1	199
394.213	1	181
394.383	1	185
394.554	1	194
394.725	1	186
394.896	1	187
395.066	1	181
395.237	1	202
395.408	1	193
395.579	1	190
395.749	1	196
395.920	1	189
396.091	1	209
396.262	1	187
396.432	1	192
396.603	1	198
396.774	1	205
396.945	1	210
397.115	1	198
397.286	1	185
397.457	1	203
397.627	1	196
397.798	1	197
397.969	1	195
398.140	1	199
398.310	1	203
398.481	1	207
398.652	1	205
398.823	1	196
398.993	1	192
399.164	1	192
399.335	1	220
399.505	1	198
399.676	1	201
399.847	1	201
400.018	1	189
400.188	1	196
400.359	1	210
400.530	1	198
400.700	1	195
400.871	1	204
401.042	1	196
401.213	1	208
401.383	1	204
401.554	1	199
401.725	1	213
401.895	1	178
402.066	1	203
402.237	1	206
402.408	1	208
402.578	1	197
402.749	1	192
402.920	1	219
403.090	1	200
403.261	1	190
403.432	1	204
403.603	1	201
403.773	1	207
403.944	1	211
404.115	1	212
404.285	1	207
404.456	1	195
404.627	1	196
404.797	1	197
404.968	1	183
405.139	1	198
405.310	1	202
405.480	1	190
405.651	1	207
405.822	1	208
405.992	1	191
406.163	1	205
406.334	1	199
406.504	1	202
406.675	1	201
406.846	1	200
407.016	1	207
407.187	1	204
407.358	1	206
407.528	1	198
407.699	1	200
407.870	1	208
408.041	1	208
408.211	1	232
408.382	1	208
408.553	1	196
408.723	1	214
408.894	1	201
409.065	1	211
409.235	1	216
409.406	1	215
409.577	1	213
409.747	1	223
409.918	1	212
410.089	1	205
410.259	1	216
410.430	1	205
410.601	1	214
410.771	1	212
410.942	1	211
411.113	1	219
411.283	1	209
411.454	1	212
411.625	1	215
411.795	1	207
411.966	1	199
412.137	1	217
412.307	1	196
412.478	1	211
412.649	1	211
412.819	1	202
412.990	1	202
413.161	1	206
413.331	1	202
413.502	1	221
413.672	1	205
413.843	1	194
414.014	1	207
414.184	1	213
414.355	1	204
414.526	1	209
414.696	1	220
414.867	1	214
415.038	1	207
415.208	1	196
415.379	1	200
415.550	1	204
415.720	1	194
415.891	1	199
416.062	1	208
416.232	1	203
416.403	1	199
416.573	1	200
416.744	1	191
416.915	1	213
417.085	1	190
417.256	1	209
417.427	1	211
417.597	1	195
417.768	1	198
417.939	1	195
418.109	1	204
418.280	1	199
418.450	1	202
418.621	1	189
418.792	1	200
418.962	1	205
419.133	1	215
419.304	1	193
419.474	1	187
419.645	1	211
419.815	1	190
419.986	1	202
420.157	1	193
420.327	1	201
420.498	1	211
420.669	1	200
420.839	1	202
421.010	1	204
421.180	1	206
421.351	1	185
421.522	1	198
421.692	1	201
421.863	1	201
422.033	1	203
422.204	1	200
422.375	1	184
422.545	1	203
422.716	1	193
422.886	1	184
423.057	1	203
423.228	1	193
423.398	1	184
423.569	1	195
423.740	1	187
423.910	1	182
424.081	1	191
424.251	1	178
424.422	1	194
424.593	1	184
424.763	1	191
424.934	1	183
425.104	1	189
425.275	1	178
425.445	1	185
425.616	1	186
425.787	1	174
425.957	1	187
426.128	1	193
426.298	1	191
426.469	1	179
426.640	1	175
426.810	1	200
426.981	1	187
427.151	1	185
427.322	1	171
427.493	1	190
427.663	1	193
427.834	1	181
428.004	1	183
428.175	1	198
428.345	1	182
428.516	1	167
428.687	1	173
428.857	1	174
429.028	1	183
429.198	1	182
429.369	1	178
429.540	1	185
429.710	1	169
429.881	1	187
430.051	1	171
430.222	1	183
430.392	1	180
430.563	1	214
430.734	1	180
430.904	1	182
431.075	1	185
431.245	1	183
431.416	1	179
431.586	1	181
431.757	1	170
431.927	1	181
432.098	1	178
432.269	1	182
432.439	1	170
432.610	1	182
432.780	1	174
432.951	1	173
433.121	1	182
433.292	1	182
433.462	1	178
433.633	1	167
433.804	1	182
433.974	1	185
434.145	1	192
434.315	1	182
434.486	1	162
434.656	1	180
434.827	1	162
434.997	1	174
435.168	1	181
435.339	1	180
435.509	1	177
435.680	1	178
435.850	1	172
436.021	1	182
436.191	1	174
436.362	1	178
436.532	1	171
436.703	1	164
436.873	1	166
437.044	1	150
437.214	1	179
437.385	1	161
437.556	1	162
437.726	1	181
437.897	1	185
438.067	1	165
438.238	1	154
438.408	1	166
438.579	1	154
438.749	1	154
438.920	1	147
439.090	1	147
439.261	1	156
439.431	1	143
439.602	1	148
439.772	1	151
439.943	1	169
440.113	1	171
440.284	1	154
440.455	1	164
440.625	1	156
440.796	1	165
440.966	1	152
441.137	1	149
441.307	1	148
441.478	1	160
441.648	1	155
441.819	1	152
441.989	1	160
442.160	1	150
442.330	1	147
442.501	1	147
442.671	1	147
442.842	1	143
443.012	1	148
443.183	1	158
443.353	1	141
443.524	1	155
443.694	1	161
443.865	1	135
444.035	1	136
444.206	1	155
444.376	1	149
444.547	1	155
444.717	1	141
444.888	1	135
445.058	1	160
445.229	1	148
445.399	1	145
445.570	1	146
445.740	1	140
445.911	1	145
446.081	1	140
446.252	1	151
446.422	1	144
446.593	1	148
446.763	1	140
446.934	1	151
447.104	1	145
447.275	1	142
447.445	1	144
447.616	1	157
447.786	1	145
447.957	1	147
448.127	1	144
448.298	1	151
448.468	1	143
448.639	1	147
448.809	1	151
448.979	1	137
449.150	1	134
449.320	1	147
449.491	1	131
449.661	1	138
449.832	1	136
450.002	1	140
450.173	1	136
450.343	1	150
450.514	1	138
450.684	1	130
450.855	1	127
451.025	1	135
451.196	1	136
451.366	1	129
451.537	1	131
451.707	1	127
451.878	1	140
452.048	1	141
452.218	1	127
452.389	1	130
452.559	1	124
452.730	1	142
452.900	1	137
453.071	1	117
453.241	1	129
453.412	1	114
453.582	1	139
453.753	1	127
453.923	1	125
454.093	1	129
454.264	1	130
454.434	1	119
454.605	1	126
454.775	1	127
454.946	1	117
455.116	1	121
455.287	1	119
455.457	1	104
455.628	1	124
455.798	1	135
455.968	1	135
456.139	1	125
456.309	1	115
456.480	1	120
456.650	1	123
456.821	1	125
456.991	1	115
457.161	1	110
457.332	1	139
457.502	1	99
457.673	1	129
457.843	1	119
458.014	1	113
458.184	1	114
458.355	1	117
458.525	1	118
458.695	1	112
458.866	1	122
459.036	1	123
459.207	1	114
459.377	1	105
459.548	1	121
459.718	1	106
459.888	1	130
460.059	1	116
460.229	1	125
460.400	1	129
460.570	1	113
460.740	1	113
460.911	1	123
461.081	1	113
461.252	1	114
461.422	1	114
461.593	1	115
461.763	1	113
461.933	1	120
462.104	1	102
462.274	1	121
462.445	1	117
462.615	1	123
462.785	1	117
462.956	1	117
463.126	1	106
463.297	1	113
463.467	1	110
463.638	1	110
463.808	1	101
463.978	1	92
464.149	1	101
464.319	1	102
464.490	1	118
464.660	1	104
464.830	1	90
465.001	1	106
465.171	1	110
465.342	1	104
465.512	1	94
465.682	1	98
465.853	1	101
466.023	1	113
466.194	1	98
466.364	1	121
466.534	1	102
466.705	1	104
466.875	1	96
467.045	1	92
467.216	1	115
467.386	1	104
467.557	1	110
467.727	1	95
467.897	1	97
468.068	1	109
468.238	1	96
468.409	1	96
468.579	1	95
468.749	1	99
468.920	1	81
469.090	1	101
469.260	1	96
469.431	1	90
469.601	1	96
469.772	1	103
469.942	1	88
470.112	1	98
470.283	1	103
470.453	1	92
470.623	1	84
470.794	1	94
470.964	1	90
471.135	1	87
471.305	1	88
471.475	1	100
471.646	1	93
471.816	1	87
471.986	1	89
472.157	1	100
472.327	1	76
472.497	1	91
472.668	1	87
472.838	1	93
473.009	1	106
473.179	1	90
473.349	1	74
473.520	1	99
473.690	1	88
473.860	1	86
474.031	1	88
474.201	1	91
474.371	1	112
474.542	1	99
474.712	1	99
474.882	1	96
475.053	1	99
475.223	1	83
475.394	1	101
475.564	1	80
475.734	1	77
475.905	1	105
476.075	1	90
476.245	1	87
476.416	1	89
476.586	1	86
476.756	1	98
476.927	1	84
477.097	1	89
477.267	1	77
477.438	1	98
477.608	1	81
477.778	1	83
477.949	1	95
478.119	1	98
478.289	1	95
478.460	1	92
478.630	1	87
478.800	1	82
478.971	1	91
479.141	1	79
479.311	1	80
479.482	1	73
479.652	1	79
479.822	1	91
479.993	1	94
480.163	1	89
480.333	1	89
480.504	1	97
480.674	1	72
480.844	1	64
481.015	1	85
481.185	1	84
481.355	1	89
481.525	1	80
481.696	1	87
481.866	1	76
482.036	1	80
482.207	1	73
482.377	1	76
482.547	1	84
482.718	1	76
482.888	1	80
483.058	1	71
483.229	1	79
483.399	1	75
483.569	1	73
483.740	1	78
483.910	1	83
484.080	1	79
484.250	1	76
484.421	1	82
484.591	1	76
484.761	1	70
484.932	1	82
485.102	1	79
485.272	1	79
485.443	1	82
485.613	1	77
485.783	1	78
485.953	1	68
486.124	1	73
486.294	1	88
486.464	1	64
486.635	1	66
486.805	1	77
486.975	1	76
487.146	1	75
487.316	1	65
487.486	1	81
487.656	1	69
487.827	1	72
487.997	1	70
488.167	1	66
488.338	1	71
488.508	1	61
488.678	1	55
488.848	1	80
489.019	1	65
489.189	1	75
489.359	1	65
489.529	1	73
489.700	1	57
489.870	1	74
490.040	1	59
490.211	1	66
490.381	1	76
490.551	1	63
490.721	1	74
490.892	1	67
491.062	1	72
491.232	1	79
491.402	1	71
491.573	1	56
491.743	1	52
491.913	1	56
492.084	1	69
492.254	1	67
492.424	1	72
492.594	1	71
492.765	1	53
492.935	1	64
493.105	1	61
493.275	1	63
493.446	1	72
493.616	1	75
493.786	1	50
493.956	1	56
494.127	1	65
494.297	1	55
494.467	1	57
494.637	1	68
494.808	1	46
494.978	1	48
495.148	1	50
495.318	1	71
495.489	1	71
495.659	1	67
495.829	1	61
495.999	1	58
496.170	1	72
496.340	1	58
496.510	1	63
496.680	1	60
496.851	1	59
497.021	1	50
497.191	1	50
497.361	1	58
497.532	1	54
497.702	1	54
497.872	1	62
498.042	1	56
498.213	1	51
498.383	1	59
498.553	1	59
498.723	1	59
498.894	1	57
499.064	1	61
499.234	1	52
499.404	1	57
499.574	1	66
499.745	1	59
499.915	1	51
500.085	1	57
500.255	1	62
500.426	1	58
500.596	1	58
500.766	1	51
500.936	1	52
501.106	1	46
501.277	1	64
501.447	1	59
501.617	1	59
501.787	1	47
501.958	1	52
502.128	1	50
502.298	1	51
502.468	1	50
502.638	1	57
502.809	1	48
502.979	1	57
503.149	1	39
503.319	1	44
503.489	1	53
503.660	1	56
503.830	1	58
504.000	1	63
504.170	1	56
504.340	1	54
504.511	1	54
504.681	1	41
504.851	1	49
505.021	1	54
505.192	1	46
505.362	1	48
505.532	1	44
505.702	1	48
505.872	1	46
506.043	1	43
506.213	1	53
506.383	1	46
506.553	1	57
506.723	1	53
506.893	1	51
507.064	1	55
507.234	1	47
507.404	1	37
507.574	1	48
507.744	1	54
507.915	1	51
508.085	1	60
508.255	1	43
508.425	1	43
508.595	1	49
508.766	1	49
508.936	1	38
509.106	1	57
509.276	1	48
509.446	1	49
509.616	1	51
509.787	1	49
509.957	1	58
510.127	1	44
510.297	1	39
510.467	1	35
510.638	1	41
510.808	1	35
510.978	1	39
511.148	1	46
511.318	1	42
511.488	1	37
511.659	1	59
511.829	1	42
511.999	1	45
512.169	1	46
512.339	1	38
512.509	1	43
512.680	1	37
512.850	1	48
513.020	1	33
513.190	1	56
513.360	1	50
513.530	1	48
513.700	1	52
513.871	1	38
514.041	1	43
514.211	1	42
514.381	1	38
514.551	1	42
514.721	1	34
514.892	1	49
515.062	1	34
515.232	1	41
515.402	1	28
515.572	1	45
515.742	1	47
515.912	1	50
516.083	1	42
516.253	1	48
516.423	1	38
516.593	1	35
516.763	1	48
516.933	1	44
517.104	1	48
517.274	1	37
517.444	1	39
517.614	1	33
517.784	1	46
517.954	1	37
518.124	1	44
518.294	1	36
518.465	1	32
518.635	1	38
518.805	1	36
518.975	1	46
519.145	1	33
519.315	1	37
519.485	1	44
519.656	1	35
519.826	1	35
519.996	1	37
520.166	1	38
520.336	1	47
520.506	1	29
520.676	1	39
520.846	1	48
521.017	1	32
521.187	1	36
521.357	1	46
521.527	1	34
521.697	1	42
521.867	1	29
522.037	1	48
522.207	1	40
522.377	1	35
522.548	1	40
522.718	1	38
522.888	1	43
523.058	1	41
523.228	1	44
523.398	1	37
523.568	1	37
523.738	1	39
523.909	1	35
524.079	1	28
524.249	1	40
524.419	1	19
524.589	1	40
524.759	1	26
524.929	1	29
525.099	1	37
525.269	1	39
525.439	1	39
525.610	1	47
525.780	1	27
525.950	1	33
526.120	1	33
526.290	1	29
526.460	1	24
526.630	1	30
526.800	1	27
526.970	1	42
527.140	1	25
527.311	1	35
527.481	1	28
527.651	1	38
527.821	1	21
527.991	1	48
528.161	1	41
528.331	1	29
528.501	1	34
528.671	1	27
528.841	1	37
529.011	1	35
529.181	1	33
529.352	1	34
529.522	1	24
529.692	1	37
529.862	1	28
530.032	1	29
530.202	1	36
530.372	1	35
530.542	1	27
530.712	1	35
530.882	1	43
531.052	1	24
531.222	1	36
531.392	1	32
531.563	1	37
531.733	1	34
531.903	1	30
532.073	1	36
532.243	1	28
532.413	1	29
532.583	1	27
532.753	1	34
532.923	1	17
533.093	1	16
533.263	1	30
533.433	1	25
533.603	1	38
533.773	1	28
533.943	1	27
534.113	1	23
534.284	1	29
534.454	1	33
534.624	1	42
534.794	1	19
534.964	1	29
535.134	1	21
535.304	1	29
535.474	1	34
535.644	1	18
535.814	1	23
535.984	1	23
536.154	1	23
536.324	1	24
536.494	1	43
536.664	1	28
536.834	1	27
537.004	1	30
537.174	1	30
537.344	1	29
537.514	1	29
537.685	1	16
537.855	1	34
538.025	1	27
538.195	1	32
538.365	1	42
538.535	1	22
538.705	1	30
538.875	1	34
539.045	1	17
539.215	1	27
539.385	1	35
539.555	1	23
539.725	1	19
539.895	1	24
540.065	1	30
540.235	1	27
540.405	1	16
540.575	1	22
540.745	1	25
540.915	1	25
541.085	1	28
541.255	1	16
541.425	1	28
541.595	1	24
541.765	1	29
541.935	1	19
542.105	1	15
542.275	1	19
542.445	1	11
542.615	1	28
542.785	1	24
542.955	1	17
543.125	1	22
543.295	1	23
543.465	1	18
543.635	1	26
543.805	1	25
543.975	1	24
544.145	1	32
544.315	1	27
544.485	1	21
544.655	1	23
544.825	1	12
544.995	1	29
545.165	1	2
545.335	1	31
545.505	1	14
545.675	1	22
545.845	1	13
546.015	1	21
546.185	1	31
546.355	1	19
546.525	1	25
546.695	1	22
546.865	1	17
547.035	1	32
547.205	1	10
547.375	1	19
547.545	1	23
547.715	1	11
547.885	1	26
548.055	1	19
548.225	1	21
548.395	1	18
548.565	1	23
548.735	1	22
548.905	1	17
549.075	1	24
549.245	1	13
549.415	1	17
549.585	1	18
549.755	1	23
549.925	1	15
550.095	1	27
550.265	1	15
550.435	1	15
550.605	1	12
550.775	1	37
550.945	1	28
551.115	1	19
551.285	1	16
551.455	1	18
551.625	1	26
551.795	1	26
551.965	1	10
552.135	1	13
552.305	1	17
552.475	1	9
552.645	1	17
552.815	1	20
552.985	1	23
553.155	1	25
553.325	1	29
553.495	1	14
553.665	1	13
553.835	1	9
554.004	1	13
554.174	1	15
554.344	1	10
554.514	1	14
554.684	1	21
554.854	1	30
555.024	1	18
555.194	1	10
555.364	1	15
555.534	1	20
555.704	1	12
555.874	1	25
556.044	1	27
556.214	1	21
556.384	1	12
556.554	1	21
556.724	1	21
556.894	1	27
557.064	1	15
557.234	1	19
557.404	1	28
557.573	1	15
557.743	1	12
557.913	1	11
558.083	1	-3
558.253	1	19
558.423	1	17
558.593	1	21
558.763	1	12
558.933	1	19
559.103	1	23
559.273	1	16
559.443	1	17
559.613	1	19
559.783	1	16
559.953	1	24
560.122	1	27
560.292	1	18
560.462	1	21
560.632	1	12
560.802	1	21
560.972	1	26
561.142	1	22
561.312	1	5
561.482	1	23
561.652	1	21
561.822	1	14
561.992	1	13
562.162	1	12
562.331	1	22
562.501	1	3
562.671	1	13
562.841	1	16
563.011	1	18
563.181	1	13
563.351	1	9
563.521	1	27
563.691	1	17
563.861	1	17
564.031	1	16
564.201	1	28
564.370	1	9
564.540	1	10
564.710	1	14
564.880	1	27
565.050	1	11
565.220	1	21
565.390	1	16
565.560	1	19
565.730	1	10
565.900	1	15
566.069	1	23
566.239	1	21
566.409	1	23
566.579	1	20
566.749	1	19
566.919	1	16
567.089	1	21
567.259	1	21
567.429	1	10
567.599	1	11
567.768	1	20
567.938	1	9
568.108	1	14
568.278	1	13
568.448	1	1
568.618	1	17
568.788	1	22
568.958	1	14
569.128	1	20
569.297	1	8
569.467	1	11
569.637	1	18
569.807	1	15
569.977	1	16
570.147	1	17
570.317	1	5
570.487	1	8
570.656	1	17
570.826	1	6
570.996	1	9
571.166	1	15
571.336	1	15
571.506	1	18
571.676	1	12
571.846	1	17
572.015	1	7
572.185	1	8
572.355	1	12
572.525	1	13
572.695	1	16
572.865	1	-2
573.035	1	10
573.205	1	15
573.374	1	11
573.544	1	3
573.714	1	14
573.884	1	20
574.054	1	16
574.224	1	13
574.394	1	10
574.563	1	4
574.733	1	12
574.903	1	10
575.073	1	15
575.243	1	14
575.413	1	8
575.583	1	14
575.752	1	16
575.922	1	14
576.092	1	13
576.262	1	17
576.432	1	17
576.602	1	1
576.772	1	30
576.941	1	11
577.111	1	14
577.281	1	5
577.451	1	11
577.621	1	21
577.791	1	24
577.960	1	8
578.130	1	13
578.300	1	17
578.470	1	20
578.640	1	8
578.810	1	8
578.979	1	20
579.149	1	9
579.319	1	1
579.489	1	9
579.659	1	16
579.829	1	9
579.998	1	21
580.168	1	28
580.338	1	12
580.508	1	17
580.678	1	6
580.848	1	13
581.017	1	6
581.187	1	13
581.357	1	13
581.527	1	13
581.697	1	11
581.867	1	12
582.036	1	12
582.206	1	3
582.376	1	23
582.546	1	9
582.716	1	12
582.885	1	10
583.055	1	11
583.225	1	1
583.395	1	19
583.565	1	8
583.735	1	16
583.904	1	15
584.074	1	18
584.244	1	11
584.414	1	13
584.584	1	13
584.753	1	4
584.923	1	13
585.093	1	17
585.263	1	3
585.433	1	10
585.602	1	8
585.772	1	16
585.942	1	5
586.112	1	15
586.282	1	-1
586.451	1	1
586.621	1	6
586.791	1	9
586.961	1	11
587.131	1	20
587.300	1	5
587.470	1	16
587.640	1	17
587.810	1	3
587.980	1	11
588.149	1	10
588.319	1	18
588.489	1	17
588.659	1	13
588.829	1	12
588.998	1	28
589.168	1	15
589.338	1	15
589.508	1	14
589.677	1	8
589.847	1	11
590.017	1	27
590.187	1	-1
590.357	1	17
590.526	1	25
590.696	1	7
590.866	1	19
591.036	1	15
591.205	1	24
591.375	1	0
591.545	1	6
591.715	1	15
591.885	1	16
592.054	1	15
592.224	1	19
592.394	1	8
592.564	1	23
592.733	1	9
592.903	1	-1
593.073	1	18
593.243	1	17
593.412	1	21
593.582	1	11
593.752	1	10
593.922	1	17
594.091	1	13
594.261	1	6
594.431	1	18
594.601	1	15
594.771	1	19
594.940	1	10
595.110	1	5
595.280	1	18
595.450	1	-1
595.619	1	13
595.789	1	20
595.959	1	19
596.129	1	18
596.298	1	8
596.468	1	13
596.638	1	11
596.808	1	17
596.977	1	15
597.147	1	15
597.317	1	12
597.487	1	17
597.656	1	15
597.826	1	17
597.996	1	14
598.166	1	13
598.335	1	6
598.505	1	9
598.675	1	10
598.844	1	10
599.014	1	18
599.184	1	16
599.354	1	-5
599.523	1	16
599.693	1	16
599.863	1	15
600.033	1	14
600.202	1	14
600.372	1	26
600.542	1	23
600.712	1	1
600.881	1	14
601.051	1	24
601.221	1	15
601.390	1	6
601.560	1	22
601.730	1	16
601.900	1	19
602.069	1	19
602.239	1	12
602.409	1	3
602.578	1	4
602.748	1	12
602.918	1	23
603.088	1	18
603.257	1	16
603.427	1	7
603.597	1	14
603.767	1	18
603.936	1	22
604.106	1	10
604.276	1	18
604.445	1	20
604.615	1	0
604.785	1	12
604.954	1	13
605.124	1	12
605.294	1	16
605.464	1	12
605.633	1	19
605.803	1	10
605.973	1	14
606.142	1	11
606.312	1	20
606.482	1	12
606.652	1	25
606.821	1	10
606.991	1	15
607.161	1	18
607.330	1	27
607.500	1	25
607.670	1	9
607.839	1	11
608.009	1	23
608.179	1	12
608.348	1	14
608.518	1	9
608.688	1	20
608.858	1	3
609.027	1	13
609.197	1	12
609.367	1	25
609.536	1	19
609.706	1	15
609.876	1	16
610.045	1	22
610.215	1	22
610.385	1	14
610.554	1	18
610.724	1	20
610.894	1	13
611.063	1	18
611.233	1	11
611.403	1	15
611.572	1	13
611.742	1	22
611.912	1	19
612.081	1	14
612.251	1	19
612.421	1	4
612.590	1	5
612.760	1	20
612.930	1	20
613.099	1	16
613.269	1	20
613.439	1	13
613.608	1	20
613.778	1	24
613.948	1	13
614.117	1	20
614.287	1	18
614.457	1	20
614.626	1	9
614.796	1	12
614.966	1	17
615.135	1	17
615.305	1	30
615.475	1	14
615.644	1	24
615.814	1	4
615.984	1	14
616.153	1	14
616.323	1	15
616.493	1	11
616.662	1	29
616.832	1	25
617.002	1	10
617.171	1	22
617.341	1	15
617.511	1	12
617.680	1	13
617.850	1	9
618.019	1	29
618.189	1	30
618.359	1	20
618.528	1	23
618.698	1	22
618.868	1	17
619.037	1	22
619.207	1	4
619.377	1	7
619.546	1	14
619.716	1	6
619.885	1	15
620.055	1	14
620.225	1	28
620.394	1	19
620.564	1	31
620.734	1	18
620.903	1	14
621.073	1	24
621.242	1	28
621.412	1	12
621.582	1	19
621.751	1	26
621.921	1	27
622.091	1	7
622.260	1	12
622.430	1	29
622.599	1	27
622.769	1	29
622.939	1	27
623.108	1	15
623.278	1	4
623.448	1	15
623.617	1	20
623.787	1	21
623.956	1	27
624.126	1	20
624.296	1	19
624.465	1	21
624.635	1	21
624.804	1	25
624.974	1	12
625.144	1	32
625.313	1	17
625.483	1	22
625.652	1	19
625.822	1	17
625.992	1	13
626.161	1	29
626.331	1	19
626.501	1	20
626.670	1	23
626.840	1	21
627.009	1	17
627.179	1	29
627.348	1	27
627.518	1	18
627.688	1	23
627.857	1	26
628.027	1	17
628.196	1	26
628.366	1	29
628.536	1	24
628.705	1	20
628.875	1	18
629.044	1	24
629.214	1	35
629.384	1	20
629.553	1	20
629.723	1	30
629.892	1	12
630.062	1	24
630.232	1	14
630.401	1	21
630.571	1	24
630.740	1	20
630.910	1	33
631.079	1	21
631.249	1	27
631.419	1	19
631.588	1	16
631.758	1	25
631.927	1	21
632.097	1	7
632.266	1	16
632.436	1	28
632.606	1	15
632.775	1	25
632.945	1	14
633.114	1	27
633.284	1	15
633.453	1	21
633.623	1	16
633.793	1	23
633.962	1	23
634.132	1	25
634.301	1	18
634.471	1	29
634.640	1	24
634.810	1	27
634.979	1	24
635.149	1	24
635.319	1	12
635.488	1	19
635.658	1	22
635.827	1	12
635.997	1	19
636.166	1	28
636.336	1	22
636.505	1	22
636.675	1	26
636.845	1	25
637.014	1	29
637.184	1	18
637.353	1	21
637.523	1	20
637.692	1	28
637.862	1	32
638.031	1	33
638.201	1	31
638.370	1	32
638.540	1	31
638.710	1	21
638.879	1	14
639.049	1	34
639.218	1	24
639.388	1	20
639.557	1	34
639.727	1	28
639.896	1	39
640.066	1	27
640.235	1	30
640.405	1	37
640.574	1	14
640.744	1	17
640.914	1	29
641.083	1	21
641.253	1	21
641.422	1	28
641.592	1	35
641.761	1	23
641.931	1	24
642.100	1	37
642.270	1	10
642.439	1	41
642.609	1	31
642.778	1	30
642.948	1	27
643.117	1	33
643.287	1	32
643.456	1	26
643.626	1	36
643.795	1	28
643.965	1	20
644.134	1	24
644.304	1	34
644.473	1	33
644.643	1	30
644.812	1	33
644.982	1	40
645.151	1	23
645.321	1	27
645.490	1	31
645.660	1	28
645.829	1	30
645.999	1	15
646.168	1	35
646.338	1	33
646.507	1	27
646.677	1	42
646.846	1	26
647.016	1	24
647.185	1	28
647.355	1	17
647.524	1	41
647.694	1	36
647.863	1	35
648.033	1	35
648.202	1	32
648.372	1	29
648.541	1	26
648.711	1	18
648.880	1	31
649.050	1	21
649.219	1	34
649.389	1	46
649.558	1	29
649.728	1	36
649.897	1	22
650.067	1	33
650.236	1	33
650.406	1	27
650.575	1	44
650.745	1	36
650.914	1	23
651.084	1	29
651.253	1	36
651.423	1	34
651.592	1	37
651.762	1	30
651.931	1	45
652.101	1	34
652.270	1	35
652.440	1	35
652.609	1	21
652.778	1	24
652.948	1	41
653.117	1	29
653.287	1	21
653.456	1	44
653.626	1	32
653.795	1	35
653.965	1	31
654.134	1	31
654.304	1	25
654.473	1	37
654.643	1	30
654.812	1	37
654.982	1	30
655.151	1	26
655.320	1	40
655.490	1	28
655.659	1	30
655.829	1	38
655.998	1	26
656.168	1	28
656.337	1	37
656.507	1	26
656.676	1	28
656.846	1	55
657.015	1	33
657.184	1	45
657.354	1	33
657.523	1	27
657.693	1	42
657.862	1	44
658.032	1	31
658.201	1	29
658.371	1	35
658.540	1	38
658.709	1	29
658.879	1	33
659.048	1	33
659.218	1	39
659.387	1	28
659.557	1	40
659.726	1	37
659.895	1	24
660.065	1	33
660.234	1	35
660.404	1	30
660.573	1	41
660.743	1	41
660.912	1	26
661.081	1	48
661.251	1	42
661.420	1	41
661.590	1	44
661.759	1	44
661.929	1	40
662.098	1	43
662.267	1	26
662.437	1	39
662.606	1	33
662.776	1	33
662.945	1	43
663.115	1	44
663.284	1	24
663.453	1	44
663.623	1	34
663.792	1	28
663.962	1	44
664.131	1	42
664.300	1	36
664.470	1	28
664.639	1	41
664.809	1	19
664.978	1	51
665.148	1	41
665.317	1	25
665.486	1	35
665.656	1	30
665.825	1	40
665.995	1	28
666.164	1	44
666.333	1	44
666.503	1	42
666.672	1	30
666.842	1	40
667.011	1	27
667.180	1	45
667.350	1	42
667.519	1	21
667.689	1	44
667.858	1	37
668.027	1	43
668.197	1	37
668.366	1	33
668.536	1	40
668.705	1	46
668.874	1	36
669.044	1	43
669.213	1	44
669.382	1	34
669.552	1	38
669.721	1	47
669.891	1	51
670.060	1	44
670.229	1	43
670.399	1	34
670.568	1	41
670.738	1	49
670.907	1	36
671.076	1	38
671.246	1	40
671.415	1	42
671.584	1	41
671.754	1	32
671.923	1	48
672.093	1	39
672.262	1	38
672.431	1	37
672.601	1	45
672.770	1	22
672.939	1	47
673.109	1	44
673.278	1	35
673.448	1	48
673.617	1	41
673.786	1	42
