325.333	1	7
325.504	1	0
325.675	1	4
325.846	1	5
326.017	1	2
326.188	1	2
326.359	1	4
326.531	1	-10
326.702	1	2
326.873	1	13
327.044	1	-1
327.215	1	6
327.386	1	13
327.557	1	-6
327.728	1	4
327.899	1	5
328.070	1	17
328.241	1	15
328.412	1	-3
328.583	1	13
328.754	1	12
328.926	1	-1
329.097	1	-7
329.268	1	10
329.439	1	9
329.610	1	1
329.781	1	-1
329.952	1	8
330.123	1	7
330.294	1	2
330.465	1	3
330.636	1	13
330.807	1	-1
330.978	1	4
331.149	1	-8
331.320	1	1
331.492	1	15
331.663	1	7
331.834	1	15
332.005	1	3
332.176	1	14
332.347	1	9
332.518	1	3
332.689	1	5
332.860	1	1
333.031	1	20
333.202	1	-1
333.373	1	11
333.544	1	8
333.715	1	9
333.886	1	-1
334.057	1	9
334.228	1	4
334.399	1	5
334.570	1	10
334.741	1	5
334.912	1	9
335.084	1	33
335.255	1	2
335.426	1	5
335.597	1	1
335.768	1	4
335.939	1	14
336.110	1	2
336.281	1	-5
336.452	1	6
336.623	1	14
336.794	1	13
336.965	1	12
337.136	1	16
337.307	1	4
337.478	1	12
337.649	1	10
337.820	1	11
337.991	1	5
338.162	1	12
338.333	1	6
338.504	1	5
338.675	1	2
338.846	1	11
339.017	1	0
339.188	1	5
339.359	1	-4
339.530	1	2
339.701	1	17
339.872	1	18
340.043	1	5
340.214	1	0
340.385	1	14
340.556	1	-2
340.727	1	7
340.898	1	24
341.069	1	5
341.240	1	10
341.411	1	15
341.582	1	8
341.753	1	6
341.924	1	5
342.095	1	16
342.266	1	16
342.437	1	16
342.608	1	4
342.779	1	11
342.950	1	21
343.121	1	21
343.292	1	13
343.463	1	8
343.634	1	15
343.805	1	8
343.976	1	6
344.147	1	15
344.318	1	12
344.489	1	13
344.660	1	19
344.831	1	13
345.002	1	-3
345.173	1	14
345.344	1	12
345.515	1	9
345.686	1	7
345.857	1	15
346.028	1	14
346.199	1	7
346.370	1	4
346.541	1	21
346.712	1	8
346.883	1	16
347.054	1	5
347.225	1	8
347.396	1	17
347.567	1	11
347.738	1	8
347.909	1	21
348.080	1	16
348.251	1	18
348.422	1	19
348.593	1	14
348.764	1	12
348.935	1	10
349.106	1	11
349.277	1	11
349.448	1	17
349.619	1	15
349.790	1	15
349.961	1	20
350.132	1	21
350.303	1	18
350.474	1	22
350.645	1	18
350.816	1	11
350.987	1	25
351.157	1	7
351.328	1	24
351.499	1	22
351.670	1	15
351.841	1	21
352.012	1	17
352.183	1	24
352.354	1	21
352.525	1	17
352.696	1	16
352.867	1	14
353.038	1	25
353.209	1	19
353.380	1	17
353.551	1	11
353.722	1	16
353.893	1	18
354.064	1	20
354.235	1	16
354.406	1	6
354.576	1	13
354.747	1	15
354.918	1	12
355.089	1	28
355.260	1	24
355.431	1	21
355.602	1	19
355.773	1	17
355.944	1	22
356.115	1	23
356.286	1	22
356.457	1	20
356.628	1	16
356.799	1	22
356.970	1	26
357.141	1	23
357.311	1	4
357.482	1	13
357.653	1	16
357.824	1	32
357.995	1	20
358.166	1	18
358.337	1	13
358.508	1	29
358.679	1	16
358.850	1	25
359.021	1	10
359.192	1	15
359.363	1	17
359.533	1	24
359.704	1	19
359.875	1	7
360.046	1	25
360.217	1	11
360.388	1	19
360.559	1	9
360.730	1	24
360.901	1	26
361.072	1	23
361.243	1	23
361.414	1	22
361.584	1	24
361.755	1	23
361.926	1	30
362.097	1	15
362.268	1	18
362.439	1	11
362.610	1	28
362.781	1	17
362.952	1	11
363.123	1	20
363.293	1	12
363.464	1	38
363.635	1	20
363.806	1	18
363.977	1	22
364.148	1	17
364.319	1	15
364.490	1	16
364.661	1	22
364.832	1	29
365.002	1	33
365.173	1	18
365.344	1	17
365.515	1	19
365.686	1	11
365.857	1	30
366.028	1	29
366.199	1	16
366.370	1	19
366.540	1	16
366.711	1	9
366.882	1	7
367.053	1	10
367.224	1	37
367.395	1	23
367.566	1	25
367.737	1	24
367.908	1	22
368.078	1	24
368.249	1	25
368.420	1	19
368.591	1	20
368.762	1	25
368.933	1	14
369.104	1	13
369.274	1	15
369.445	1	25
369.616	1	21
369.787	1	28
369.958	1	29
370.129	1	15
370.300	1	26
370.471	1	17
370.641	1	22
370.812	1	24
370.983	1	16
371.154	1	14
371.325	1	32
371.496	1	14
371.667	1	32
371.837	1	20
372.008	1	24
372.179	1	15
372.350	1	30
372.521	1	12
372.692	1	19
372.863	1	24
373.033	1	13
373.204	1	24
373.375	1	28
373.546	1	22
373.717	1	25
373.888	1	26
374.059	1	22
374.229	1	30
374.400	1	20
374.571	1	17
374.742	1	32
374.913	1	30
375.084	1	22
375.254	1	28
375.425	1	30
375.596	1	28
375.767	1	18
375.938	1	27
376.109	1	28
376.279	1	23
376.450	1	27
376.621	1	32
376.792	1	23
376.963	1	25
377.134	1	32
377.304	1	31
377.475	1	17
377.646	1	18
377.817	1	22
377.988	1	26
378.159	1	30
378.329	1	27
378.500	1	18
378.671	1	31
378.842	1	22
379.013	1	20
379.184	1	22
379.354	1	27
379.525	1	11
379.696	1	27
379.867	1	31
380.038	1	28
380.209	1	26
380.379	1	22
380.550	1	16
380.721	1	35
380.892	1	31
381.063	1	21
381.233	1	24
381.404	1	17
381.575	1	35
381.746	1	27
381.917	1	27
382.087	1	28
382.258	1	24
382.429	1	23
382.600	1	35
382.771	1	20
382.941	1	28
383.112	1	23
383.283	1	33
383.454	1	27
383.625	1	14
383.795	1	32
383.966	1	26
384.137	1	31
384.308	1	41
384.479	1	38
384.649	1	33
384.820	1	23
384.991	1	22
385.162	1	27
385.333	1	26
385.503	1	25
385.674	1	16
385.845	1	46
386.016	1	29
386.187	1	36
386.357	1	36
386.528	1	32
386.699	1	27
386.870	1	40
387.041	1	33
387.211	1	36
387.382	1	37
387.553	1	25
387.724	1	29
387.894	1	27
388.065	1	28
388.236	1	39
388.407	1	24
388.578	1	30
388.748	1	28
388.919	1	33
389.090	1	22
389.261	1	39
389.431	1	30
389.602	1	28
389.773	1	38
389.944	1	34
390.114	1	24
390.285	1	30
390.456	1	35
390.627	1	21
390.798	1	36
390.968	1	40
391.139	1	35
391.310	1	38
391.481	1	31
391.651	1	42
391.822	1	27
391.993	1	26
392.164	1	25
392.334	1	29
392.505	1	31
392.676	1	43
392.847	1	37
393.017	1	39
393.188	1	36
393.359	1	11
393.530	1	38
393.700	1	34
393.871	1	25
394.042	1	34
394.213	1	31
394.383	1	30
394.554	1	35
394.725	1	43
394.896	1	35
395.066	1	36
395.237	1	37
395.408	1	36
395.579	1	43
395.749	1	36
395.920	1	30
396.091	1	31
396.262	1	43
396.432	1	33
396.603	1	39
396.774	1	42
396.945	1	52
397.115	1	33
397.286	1	34
397.457	1	40
397.627	1	29
397.798	1	34
397.969	1	28
398.140	1	32
398.310	1	44
398.481	1	45
398.652	1	36
398.823	1	34
398.993	1	34
399.164	1	37
399.335	1	41
399.505	1	48
399.676	1	39
399.847	1	34
400.018	1	36
400.188	1	28
400.359	1	38
400.530	1	32
400.700	1	43
400.871	1	38
401.042	1	29
401.213	1	38
401.383	1	39
401.554	1	38
401.725	1	42
401.895	1	25
402.066	1	37
402.237	1	36
402.408	1	42
402.578	1	38
402.749	1	45
402.920	1	47
403.090	1	46
403.261	1	34
403.432	1	34
403.603	1	48
403.773	1	44
403.944	1	45
404.115	1	37
404.285	1	42
404.456	1	35
404.627	1	32
404.797	1	28
404.968	1	34
405.139	1	32
405.310	1	44
405.480	1	40
405.651	1	27
405.822	1	32
405.992	1	26
406.163	1	35
406.334	1	30
406.504	1	35
406.675	1	42
406.846	1	44
407.016	1	46
407.187	1	38
407.358	1	32
407.528	1	30
407.699	1	29
407.870	1	40
408.041	1	24
408.211	1	56
408.382	1	30
408.553	1	21
408.723	1	48
408.894	1	38
409.065	1	33
409.235	1	40
409.406	1	38
409.577	1	27
409.747	1	41
409.918	1	41
410.089	1	35
410.259	1	42
410.430	1	35
410.601	1	45
410.771	1	34
410.942	1	54
411.113	1	44
411.283	1	41
411.454	1	43
411.625	1	45
411.795	1	33
411.966	1	40
412.137	1	46
412.307	1	32
412.478	1	43
412.649	1	42
412.819	1	35
412.990	1	26
413.161	1	39
413.331	1	33
413.502	1	35
413.672	1	35
413.843	1	36
414.014	1	38
414.184	1	49
414.355	1	42
414.526	1	36
414.696	1	43
414.867	1	34
415.038	1	26
415.208	1	46
415.379	1	38
415.550	1	47
415.720	1	41
415.891	1	47
416.062	1	41
416.232	1	43
416.403	1	35
416.573	1	40
416.744	1	32
416.915	1	49
417.085	1	37
417.256	1	35
417.427	1	37
417.597	1	48
417.768	1	40
417.939	1	46
418.109	1	39
418.280	1	48
418.450	1	32
418.621	1	32
418.792	1	37
418.962	1	45
419.133	1	38
419.304	1	35
419.474	1	22
419.645	1	35
419.815	1	29
419.986	1	39
420.157	1	31
420.327	1	37
420.498	1	50
420.669	1	21
420.839	1	51
421.010	1	42
421.180	1	42
421.351	1	35
421.522	1	40
421.692	1	37
421.863	1	36
422.033	1	40
422.204	1	38
422.375	1	36
422.545	1	45
422.716	1	44
422.886	1	37
423.057	1	44
423.228	1	40
423.398	1	23
423.569	1	39
423.740	1	26
423.910	1	21
424.081	1	35
424.251	1	31
424.422	1	44
424.593	1	27
424.763	1	37
424.934	1	32
425.104	1	39
425.275	1	32
425.445	1	36
425.616	1	24
425.787	1	45
425.957	1	41
426.128	1	42
426.298	1	43
426.469	1	36
426.640	1	42
426.810	1	38
426.981	1	31
427.151	1	29
427.322	1	39
427.493	1	31
427.663	1	37
427.834	1	34
428.004	1	41
428.175	1	41
428.345	1	37
428.516	1	29
428.687	1	39
428.857	1	27
429.028	1	34
429.198	1	40
429.369	1	26
429.540	1	27
429.710	1	29
429.881	1	29
430.051	1	31
430.222	1	28
430.392	1	25
430.563	1	46
430.734	1	32
430.904	1	33
431.075	1	41
431.245	1	39
431.416	1	24
431.586	1	32
431.757	1	34
431.927	1	24
432.098	1	38
432.269	1	26
432.439	1	38
432.610	1	35
432.780	1	38
432.951	1	29
433.121	1	45
433.292	1	34
433.462	1	37
433.633	1	38
433.804	1	22
433.974	1	32
434.145	1	39
434.315	1	23
434.486	1	26
434.656	1	36
434.827	1	22
434.997	1	34
435.168	1	38
435.339	1	36
435.509	1	39
435.680	1	31
435.850	1	40
436.021	1	33
436.191	1	26
436.362	1	27
436.532	1	32
436.703	1	34
436.873	1	37
437.044	1	27
437.214	1	29
437.385	1	25
437.556	1	30
437.726	1	41
437.897	1	36
438.067	1	31
438.238	1	32
438.408	1	32
438.579	1	27
438.749	1	28
438.920	1	22
439.090	1	30
439.261	1	31
439.431	1	25
439.602	1	36
439.772	1	30
439.943	1	28
440.113	1	38
440.284	1	34
440.455	1	24
440.625	1	39
440.796	1	32
440.966	1	28
441.137	1	33
441.307	1	17
441.478	1	43
441.648	1	34
441.819	1	33
441.989	1	30
442.160	1	42
442.330	1	44
442.501	1	28
442.671	1	37
442.842	1	24
443.012	1	20
443.183	1	34
443.353	1	20
443.524	1	26
443.694	1	34
443.865	1	32
444.035	1	31
444.206	1	27
444.376	1	19
444.547	1	37
444.717	1	29
444.888	1	22
445.058	1	30
445.229	1	23
445.399	1	28
445.570	1	35
445.740	1	22
445.911	1	28
446.081	1	22
446.252	1	24
446.422	1	37
446.593	1	18
446.763	1	27
446.934	1	26
447.104	1	33
447.275	1	21
447.445	1	35
447.616	1	44
447.786	1	23
447.957	1	37
448.127	1	33
448.298	1	31
448.468	1	29
448.639	1	23
448.809	1	29
448.979	1	38
449.150	1	25
449.320	1	35
449.491	1	35
449.661	1	21
449.832	1	23
450.002	1	29
450.173	1	25
450.343	1	22
450.514	1	15
450.684	1	18
450.855	1	24
451.025	1	28
451.196	1	34
451.366	1	30
451.537	1	26
451.707	1	23
451.878	1	24
452.048	1	30
452.218	1	30
452.389	1	22
452.559	1	24
452.730	1	26
452.900	1	29
453.071	1	7
453.241	1	19
453.412	1	13
453.582	1	29
453.753	1	25
453.923	1	22
454.093	1	36
454.264	1	42
454.434	1	19
454.605	1	32
454.775	1	34
454.946	1	24
455.116	1	35
455.287	1	18
455.457	1	13
455.628	1	19
455.798	1	23
455.968	1	31
456.139	1	24
456.309	1	25
456.480	1	16
456.650	1	16
456.821	1	10
456.991	1	20
457.161	1	20
457.332	1	31
457.502	1	13
457.673	1	30
457.843	1	25
458.014	1	23
458.184	1	15
458.355	1	19
458.525	1	29
458.695	1	21
458.866	1	13
459.036	1	19
459.207	1	13
459.377	1	25
459.548	1	31
459.718	1	20
459.888	1	27
460.059	1	21
460.229	1	26
460.400	1	27
460.570	1	23
460.740	1	12
460.911	1	23
461.081	1	17
461.252	1	10
461.422	1	17
461.593	1	19
461.763	1	24
461.933	1	26
462.104	1	18
462.274	1	15
462.445	1	21
462.615	1	26
462.785	1	24
462.956	1	22
463.126	1	24
463.297	1	30
463.467	1	22
463.638	1	28
463.808	1	21
463.978	1	17
464.149	1	15
464.319	1	16
464.490	1	40
464.660	1	20
464.830	1	11
465.001	1	10
465.171	1	23
465.342	1	20
465.512	1	9
465.682	1	26
465.853	1	28
466.023	1	25
466.194	1	5
466.364	1	20
466.534	1	23
466.705	1	18
466.875	1	10
467.045	1	12
467.216	1	30
467.386	1	14
467.557	1	12
467.727	1	17
467.897	1	21
468.068	1	22
468.238	1	21
468.409	1	13
468.579	1	18
468.749	1	14
468.920	1	5
469.090	1	21
469.260	1	22
469.431	1	14
469.601	1	32
469.772	1	24
469.942	1	14
470.112	1	20
470.283	1	15
470.453	1	14
470.623	1	16
470.794	1	7
470.964	1	22
471.135	1	24
471.305	1	9
471.475	1	21
471.646	1	20
471.816	1	14
471.986	1	18
472.157	1	22
472.327	1	2
472.497	1	16
472.668	1	8
472.838	1	20
473.009	1	26
473.179	1	16
473.349	1	7
473.520	1	22
473.690	1	11
473.860	1	11
474.031	1	16
474.201	1	13
474.371	1	27
474.542	1	20
474.712	1	20
474.882	1	18
475.053	1	22
475.223	1	14
475.394	1	12
475.564	1	12
475.734	1	12
475.905	1	25
476.075	1	17
476.245	1	18
476.416	1	24
476.586	1	17
476.756	1	14
476.927	1	24
477.097	1	14
477.267	1	6
477.438	1	25
477.608	1	11
477.778	1	22
477.949	1	20
478.119	1	23
478.289	1	19
478.460	1	25
478.630	1	22
478.800	1	8
478.971	1	16
479.141	1	16
479.311	1	14
479.482	1	15
479.652	1	8
479.822	1	12
479.993	1	29
480.163	1	16
480.333	1	12
480.504	1	24
480.674	1	17
480.844	1	8
481.015	1	27
481.185	1	8
481.355	1	24
481.525	1	9
481.696	1	22
481.866	1	14
482.036	1	10
482.207	1	14
482.377	1	12
482.547	1	23
482.718	1	18
482.888	1	10
483.058	1	14
483.229	1	5
483.399	1	12
483.569	1	9
483.740	1	23
483.910	1	15
484.080	1	9
484.250	1	11
484.421	1	10
484.591	1	16
484.761	1	27
484.932	1	12
485.102	1	17
485.272	1	22
485.443	1	19
485.613	1	9
485.783	1	5
485.953	1	15
486.124	1	13
486.294	1	15
486.464	1	11
486.635	1	23
486.805	1	22
486.975	1	10
487.146	1	14
487.316	1	8
487.486	1	16
487.656	1	5
487.827	1	13
487.997	1	4
488.167	1	15
488.338	1	21
488.508	1	7
488.678	1	8
488.848	1	25
489.019	1	4
489.189	1	4
489.359	1	1
489.529	1	11
489.700	1	13
489.870	1	24
490.040	1	12
490.211	1	4
490.381	1	16
490.551	1	7
490.721	1	22
490.892	1	8
491.062	1	16
491.232	1	14
491.402	1	8
491.573	1	9
491.743	1	19
491.913	1	17
492.084	1	19
492.254	1	-2
492.424	1	14
492.594	1	11
492.765	1	4
492.935	1	10
493.105	1	14
493.275	1	15
493.446	1	19
493.616	1	16
493.786	1	5
493.956	1	-3
494.127	1	9
494.297	1	8
494.467	1	14
494.637	1	6
494.808	1	4
494.978	1	17
495.148	1	10
495.318	1	14
495.489	1	19
495.659	1	19
495.829	1	10
495.999	1	3
496.170	1	29
496.340	1	9
496.510	1	18
496.680	1	4
496.851	1	9
497.021	1	9
497.191	1	6
497.361	1	11
497.532	1	3
497.702	1	1
497.872	1	2
498.042	1	12
498.213	1	5
498.383	1	9
498.553	1	3
498.723	1	15
498.894	1	7
499.064	1	7
499.234	1	15
499.404	1	14
499.574	1	11
499.745	1	12
499.915	1	8
500.085	1	5
500.255	1	17
500.426	1	8
500.596	1	8
500.766	1	18
500.936	1	7
501.106	1	1
501.277	1	6
501.447	1	4
501.617	1	6
501.787	1	4
501.958	1	4
502.128	1	3
502.298	1	3
502.468	1	3
502.638	1	14
502.809	1	8
502.979	1	-1
503.149	1	3
503.319	1	1
503.489	1	6
503.660	1	9
503.830	1	10
504.000	1	13
504.170	1	8
504.340	1	1
504.511	1	9
504.681	1	10
504.851	1	9
505.021	1	15
505.192	1	2
505.362	1	17
505.532	1	2
505.702	1	8
505.872	1	11
506.043	1	7
506.213	1	6
506.383	1	7
506.553	1	15
506.723	1	10
506.893	1	10
507.064	1	8
507.234	1	2
507.404	1	7
507.574	1	12
507.744	1	11
507.915	1	14
508.085	1	11
508.255	1	27
508.425	1	-4
508.595	1	9
508.766	1	4
508.936	1	-1
509.106	1	15
509.276	1	4
509.446	1	4
509.616	1	1
509.787	1	28
509.957	1	6
510.127	1	5
510.297	1	4
510.467	1	5
510.638	1	13
510.808	1	2
510.978	1	8
511.148	1	3
511.318	1	13
511.488	1	2
511.659	1	4
511.829	1	3
511.999	1	-4
512.169	1	7
512.339	1	2
512.509	1	13
512.680	1	10
512.850	1	7
513.020	1	10
513.190	1	5
513.360	1	-1
513.530	1	0
513.700	1	8
513.871	1	-4
514.041	1	9
514.211	1	6
514.381	1	9
514.551	1	7
514.721	1	14
514.892	1	3
515.062	1	13
515.232	1	5
515.402	1	0
515.572	1	-1
515.742	1	4
515.912	1	16
516.083	1	2
516.253	1	15
516.423	1	-4
516.593	1	6
516.763	1	14
516.933	1	7
517.104	1	5
517.274	1	1
517.444	1	4
517.614	1	-1
517.784	1	9
517.954	1	5
518.124	1	7
518.294	1	2
518.465	1	2
518.635	1	-3
518.805	1	-16
518.975	1	9
519.145	1	7
519.315	1	13
519.485	1	7
519.656	1	8
519.826	1	18
519.996	1	-3
520.166	1	8
520.336	1	13
520.506	1	5
520.676	1	6
520.846	1	16
521.017	1	5
521.187	1	4
521.357	1	16
521.527	1	-5
521.697	1	8
521.867	1	-7
522.037	1	15
522.207	1	13
522.377	1	11
522.548	1	5
522.718	1	11
522.888	1	19
523.058	1	2
523.228	1	8
523.398	1	7
523.568	1	14
523.738	1	4
523.909	1	16
524.079	1	2
524.249	1	5
524.419	1	1
524.589	1	-1
524.759	1	5
524.929	1	1
525.099	1	8
525.269	1	7
525.439	1	-2
525.610	1	17
525.780	1	3
525.950	1	11
526.120	1	5
526.290	1	2
526.460	1	-7
526.630	1	9
526.800	1	-7
526.970	1	7
527.140	1	20
527.311	1	-2
527.481	1	-4
527.651	1	16
527.821	1	2
527.991	1	12
528.161	1	5
528.331	1	-5
528.501	1	6
528.671	1	6
528.841	1	3
529.011	1	-1
529.181	1	10
529.352	1	7
529.522	1	5
529.692	1	12
529.862	1	3
530.032	1	2
530.202	1	2
530.372	1	7
530.542	1	8
530.712	1	10
530.882	1	6
531.052	1	5
531.222	1	3
531.392	1	1
531.563	1	9
531.733	1	2
531.903	1	0
532.073	1	10
532.243	1	1
532.413	1	-1
532.583	1	6
532.753	1	9
532.923	1	4
533.093	1	-1
533.263	1	9
533.433	1	3
533.603	1	6
533.773	1	-2
533.943	1	10
534.113	1	5
534.284	1	6
534.454	1	16
534.624	1	12
534.794	1	4
534.964	1	10
535.134	1	-3
535.304	1	15
535.474	1	15
535.644	1	-4
535.814	1	0
535.984	1	-4
536.154	1	2
536.324	1	8
536.494	1	12
536.664	1	11
536.834	1	4
537.004	1	-1
537.174	1	9
537.344	1	4
537.514	1	-5
537.685	1	4
537.855	1	1
538.025	1	10
538.195	1	11
538.365	1	6
538.535	1	6
538.705	1	0
538.875	1	2
539.045	1	1
539.215	1	5
539.385	1	1
539.555	1	4
539.725	1	13
539.895	1	-3
540.065	1	21
540.235	1	9
540.405	1	-5
540.575	1	1
540.745	1	0
540.915	1	13
541.085	1	5
541.255	1	-5
541.425	1	11
541.595	1	11
541.765	1	10
541.935	1	4
542.105	1	-3
542.275	1	5
542.445	1	-6
542.615	1	13
542.785	1	3
542.955	1	0
543.125	1	1
543.295	1	9
543.465	1	-4
543.635	1	4
543.805	1	15
543.975	1	6
544.145	1	6
544.315	1	2
544.485	1	14
544.655	1	5
544.825	1	-9
544.995	1	8
545.165	1	-5
545.335	1	9
545.505	1	1
545.675	1	-1
545.845	1	8
546.015	1	0
546.185	1	14
546.355	1	3
546.525	1	3
546.695	1	-1
546.865	1	-1
547.035	1	4
547.205	1	-2
547.375	1	9
547.545	1	5
547.715	1	7
547.885	1	13
548.055	1	4
548.225	1	-4
548.395	1	-6
548.565	1	0
548.735	1	2
548.905	1	8
549.075	1	1
549.245	1	8
549.415	1	5
549.585	1	13
549.755	1	2
549.925	1	-10
550.095	1	7
550.265	1	7
550.435	1	-1
550.605	1	6
550.775	1	15
550.945	1	16
551.115	1	2
551.285	1	-1
551.455	1	0
551.625	1	12
551.795	1	3
551.965	1	1
552.135	1	8
552.305	1	1
552.475	1	-6
552.645	1	4
552.815	1	-4
552.985	1	14
553.155	1	2
553.325	1	19
553.495	1	-1
553.665	1	-2
553.835	1	0
554.004	1	0
554.174	1	4
554.344	1	2
554.514	1	3
554.684	1	7
554.854	1	14
555.024	1	-8
555.194	1	-6
555.364	1	1
555.534	1	-1
555.704	1	-1
555.874	1	7
556.044	1	7
556.214	1	-7
556.384	1	2
556.554	1	13
556.724	1	6
556.894	1	0
557.064	1	2
557.234	1	0
557.404	1	9
557.573	1	14
557.743	1	1
557.913	1	-4
558.083	1	1
558.253	1	9
558.423	1	-2
558.593	1	4
558.763	1	-3
558.933	1	6
559.103	1	15
559.273	1	3
559.443	1	7
559.613	1	7
559.783	1	2
559.953	1	-6
560.122	1	4
560.292	1	-4
560.462	1	3
560.632	1	2
560.802	1	7
560.972	1	12
561.142	1	3
561.312	1	-6
561.482	1	10
561.652	1	7
561.822	1	11
561.992	1	5
562.162	1	5
562.331	1	2
562.501	1	-10
562.671	1	8
562.841	1	-2
563.011	1	4
563.181	1	7
563.351	1	-3
563.521	1	12
563.691	1	-8
563.861	1	-3
564.031	1	5
564.201	1	2
564.370	1	-7
564.540	1	3
564.710	1	-1
564.880	1	10
565.050	1	7
565.220	1	-1
565.390	1	4
565.560	1	4
565.730	1	-10
565.900	1	-2
566.069	1	11
566.239	1	11
566.409	1	-1
566.579	1	6
566.749	1	2
566.919	1	11
567.089	1	-1
567.259	1	5
567.429	1	7
567.599	1	-7
567.768	1	4
567.938	1	1
568.108	1	1
568.278	1	5
568.448	1	-3
568.618	1	-3
568.788	1	10
568.958	1	5
569.128	1	9
569.297	1	-2
569.467	1	4
569.637	1	9
569.807	1	-1
569.977	1	4
570.147	1	11
570.317	1	-9
570.487	1	8
570.656	1	0
570.826	1	-1
570.996	1	4
571.166	1	15
571.336	1	-1
571.506	1	7
571.676	1	8
571.846	1	3
572.015	1	1
572.185	1	-5
572.355	1	3
572.525	1	5
572.695	1	-2
572.865	1	1
573.035	1	3
573.205	1	3
573.374	1	-5
573.544	1	-7
573.714	1	3
573.884	1	3
574.054	1	4
574.224	1	-1
574.394	1	-8
574.563	1	-1
574.733	1	-1
574.903	1	-3
575.073	1	5
575.243	1	0
575.413	1	-1
575.583	1	-4
575.752	1	8
575.922	1	-4
576.092	1	2
576.262	1	7
576.432	1	1
576.602	1	-5
576.772	1	10
576.941	1	8
577.111	1	-2
577.281	1	-9
577.451	1	-7
577.621	1	14
577.791	1	0
577.960	1	-1
578.130	1	10
578.300	1	7
578.470	1	15
578.640	1	10
578.810	1	3
578.979	1	5
579.149	1	0
579.319	1	-8
579.489	1	2
579.659	1	5
579.829	1	-16
579.998	1	18
580.168	1	9
580.338	1	4
580.508	1	-5
580.678	1	0
580.848	1	4
581.017	1	6
581.187	1	9
581.357	1	6
581.527	1	6
581.697	1	1
581.867	1	10
582.036	1	2
582.206	1	-7
582.376	1	13
582.546	1	-1
582.716	1	-3
582.885	1	-1
583.055	1	2
583.225	1	-6
583.395	1	11
583.565	1	-7
583.735	1	4
583.904	1	11
584.074	1	12
584.244	1	6
584.414	1	1
584.584	1	6
584.753	1	0
584.923	1	13
585.093	1	7
585.263	1	4
585.433	1	8
585.602	1	-3
585.772	1	-7
585.942	1	-3
586.112	1	-7
586.282	1	-6
586.451	1	1
586.621	1	-6
586.791	1	-3
586.961	1	4
587.131	1	8
587.300	1	-2
587.470	1	6
587.640	1	5
587.810	1	0
587.980	1	4
588.149	1	6
588.319	1	3
588.489	1	4
588.659	1	-4
588.829	1	6
588.998	1	9
589.168	1	4
589.338	1	9
589.508	1	5
589.677	1	-10
589.847	1	-6
590.017	1	15
590.187	1	-10
590.357	1	11
590.526	1	10
590.696	1	-3
590.866	1	7
591.036	1	-4
591.205	1	20
591.375	1	-7
591.545	1	4
591.715	1	1
591.885	1	-1
592.054	1	5
592.224	1	1
592.394	1	3
592.564	1	1
592.733	1	3
592.903	1	4
593.073	1	6
593.243	1	4
593.412	1	9
593.582	1	-4
593.752	1	-8
593.922	1	7
594.091	1	-4
594.261	1	-9
594.431	1	6
594.601	1	4
594.771	1	1
594.940	1	5
595.110	1	1
595.280	1	10
595.450	1	2
595.619	1	-1
595.789	1	0
595.959	1	10
596.129	1	-4
596.298	1	-3
596.468	1	8
596.638	1	-1
596.808	1	5
596.977	1	3
597.147	1	-3
597.317	1	-11
597.487	1	6
597.656	1	1
597.826	1	3
597.996	1	-1
598.166	1	-3
598.335	1	5
598.505	1	12
598.675	1	-3
598.844	1	4
599.014	1	-3
599.184	1	5
599.354	1	-9
599.523	1	17
599.693	1	-10
599.863	1	12
600.033	1	1
600.202	1	2
600.372	1	13
600.542	1	9
600.712	1	-3
600.881	1	-4
601.051	1	16
601.221	1	6
601.390	1	3
601.560	1	10
601.730	1	7
601.900	1	-1
602.069	1	6
602.239	1	0
602.409	1	-11
602.578	1	-3
602.748	1	0
602.918	1	5
603.088	1	7
603.257	1	2
603.427	1	-6
603.597	1	1
603.767	1	16
603.936	1	-4
604.106	1	5
604.276	1	1
604.445	1	6
604.615	1	11
604.785	1	4
604.954	1	7
605.124	1	16
605.294	1	4
605.464	1	1
605.633	1	3
605.803	1	9
605.973	1	-7
606.142	1	4
606.312	1	4
606.482	1	8
606.652	1	6
606.821	1	-4
606.991	1	-2
607.161	1	4
607.330	1	8
607.500	1	3
607.670	1	2
607.839	1	9
608.009	1	20
608.179	1	11
608.348	1	4
608.518	1	2
608.688	1	16
608.858	1	-4
609.027	1	-6
609.197	1	2
609.367	1	17
609.536	1	0
609.706	1	7
609.876	1	-2
610.045	1	1
610.215	1	4
610.385	1	6
610.554	1	6
610.724	1	1
610.894	1	-1
611.063	1	1
611.233	1	-9
611.403	1	0
611.572	1	0
611.742	1	1
611.912	1	5
612.081	1	1
612.251	1	8
612.421	1	3
612.590	1	-8
612.760	1	-6
612.930	1	-4
613.099	1	-5
613.269	1	4
613.439	1	-1
613.608	1	2
613.778	1	6
613.948	1	2
614.117	1	7
614.287	1	7
614.457	1	2
614.626	1	3
614.796	1	10
614.966	1	4
615.135	1	-6
615.305	1	16
615.475	1	4
615.644	1	-1
615.814	1	1
615.984	1	3
616.153	1	-2
616.323	1	-5
616.493	1	4
616.662	1	13
616.832	1	-4
617.002	1	-2
617.171	1	0
617.341	1	0
617.511	1	-7
617.680	1	2
617.850	1	1
618.019	1	14
618.189	1	14
618.359	1	10
618.528	1	9
618.698	1	5
618.868	1	-6
619.037	1	1
619.207	1	3
619.377	1	-5
619.546	1	4
619.716	1	1
619.885	1	2
620.055	1	-2
620.225	1	-3
620.394	1	-1
620.564	1	9
620.734	1	5
620.903	1	-3
621.073	1	9
621.242	1	6
621.412	1	4
621.582	1	5
621.751	1	2
621.921	1	12
622.091	1	-6
622.260	1	0
622.430	1	7
622.599	1	12
622.769	1	7
622.939	1	14
623.108	1	7
623.278	1	-4
623.448	1	-2
623.617	1	0
623.787	1	-1
623.956	1	10
624.126	1	-1
624.296	1	1
624.465	1	2
624.635	1	16
624.804	1	-3
624.974	1	3
625.144	1	6
625.313	1	2
625.483	1	2
625.652	1	7
625.822	1	-2
625.992	1	-5
626.161	1	18
626.331	1	2
626.501	1	3
626.670	1	-4
626.840	1	-5
627.009	1	-3
627.179	1	12
627.348	1	16
627.518	1	0
627.688	1	10
627.857	1	9
628.027	1	-1
628.196	1	2
628.366	1	5
628.536	1	5
628.705	1	10
628.875	1	0
629.044	1	-1
629.214	1	9
629.384	1	0
629.553	1	14
629.723	1	5
629.892	1	4
630.062	1	7
630.232	1	3
630.401	1	19
630.571	1	2
630.740	1	8
630.910	1	7
631.079	1	14
631.249	1	0
631.419	1	11
631.588	1	-3
631.758	1	11
631.927	1	4
632.097	1	-1
632.266	1	5
632.436	1	-5
632.606	1	-1
632.775	1	7
632.945	1	9
633.114	1	6
633.284	1	13
633.453	1	1
633.623	1	-5
633.793	1	12
633.962	1	2
634.132	1	11
634.301	1	7
634.471	1	13
634.640	1	8
634.810	1	0
634.979	1	2
635.149	1	12
635.319	1	9
635.488	1	8
635.658	1	0
635.827	1	-9
635.997	1	4
636.166	1	13
636.336	1	-4
636.505	1	14
636.675	1	-1
636.845	1	7
637.014	1	12
637.184	1	12
637.353	1	4
637.523	1	9
637.692	1	5
637.862	1	8
638.031	1	7
638.201	1	10
638.370	1	2
638.540	1	5
638.710	1	-1
638.879	1	-2
639.049	1	2
639.218	1	2
639.388	1	-4
639.557	1	2
639.727	1	6
639.896	1	8
640.066	1	-1
640.235	1	7
640.405	1	12
640.574	1	8
640.744	1	0
640.914	1	2
641.083	1	5
641.253	1	6
641.422	1	1
641.592	1	10
641.761	1	2
641.931	1	3
642.100	1	15
642.270	1	3
642.439	1	11
642.609	1	13
642.778	1	2
642.948	1	-1
643.117	1	13
643.287	1	10
643.456	1	-6
643.626	1	5
643.795	1	3
643.965	1	9
644.134	1	0
644.304	1	-1
644.473	1	5
644.643	1	6
644.812	1	6
644.982	1	15
645.151	1	4
645.321	1	-3
645.490	1	11
645.660	1	-2
645.829	1	-2
645.999	1	7
646.168	1	8
646.338	1	12
646.507	1	6
646.677	1	9
646.846	1	6
647.016	1	-8
647.185	1	11
647.355	1	-9
647.524	1	12
647.694	1	15
647.863	1	5
648.033	1	6
648.202	1	16
648.372	1	-1
648.541	1	3
648.711	1	0
648.880	1	2
649.050	1	1
649.219	1	1
649.389	1	15
649.558	1	8
649.728	1	11
649.897	1	-1
650.067	1	6
650.236	1	6
650.406	1	2
650.575	1	17
650.745	1	13
650.914	1	9
651.084	1	-5
651.253	1	3
651.423	1	9
651.592	1	4
651.762	1	-6
651.931	1	19
652.101	1	15
652.270	1	16
652.440	1	11
652.609	1	-2
652.778	1	7
652.948	1	5
653.117	1	4
653.287	1	4
653.456	1	8
653.626	1	2
653.795	1	6
653.965	1	6
654.134	1	8
654.304	1	-3
654.473	1	10
654.643	1	5
654.812	1	-3
654.982	1	1
655.151	1	-5
655.320	1	-4
655.490	1	-3
655.659	1	7
655.829	1	-2
655.998	1	-2
656.168	1	-1
656.337	1	11
656.507	1	2
656.676	1	4
656.846	1	11
657.015	1	12
657.184	1	17
657.354	1	4
657.523	1	10
657.693	1	15
657.862	1	1
658.032	1	7
658.201	1	7
658.371	1	9
658.540	1	3
658.709	1	-2
658.879	1	8
659.048	1	6
659.218	1	0
659.387	1	12
659.557	1	9
659.726	1	6
659.895	1	2
660.065	1	5
660.234	1	1
660.404	1	0
660.573	1	6
660.743	1	7
660.912	1	11
661.081	1	15
661.251	1	5
661.420	1	11
661.590	1	8
661.759	1	8
661.929	1	17
662.098	1	10
662.267	1	0
662.437	1	10
662.606	1	6
662.776	1	6
662.945	1	3
663.115	1	3
663.284	1	0
663.453	1	8
663.623	1	8
663.792	1	2
663.962	1	6
664.131	1	9
664.300	1	21
664.470	1	2
664.639	1	7
664.809	1	13
664.978	1	9
665.148	1	-5
665.317	1	2
665.486	1	15
665.656	1	1
665.825	1	10
665.995	1	5
666.164	1	4
666.333	1	12
666.503	1	7
666.672	1	0
666.842	1	1
667.011	1	-4
667.180	1	11
667.350	1	1
667.519	1	17
667.689	1	4
667.858	1	10
668.027	1	16
668.197	1	4
668.366	1	-1
668.536	1	17
668.705	1	-4
668.874	1	11
669.044	1	1
669.213	1	8
669.382	1	1
669.552	1	16
669.721	1	11
669.891	1	19
670.060	1	3
670.229	1	20
670.399	1	2
670.568	1	19
670.738	1	10
670.907	1	0
671.076	1	-5
671.246	1	-1
671.415	1	4
671.584	1	11
671.754	1	15
671.923	1	-1
672.093	1	8
672.262	1	-4
672.431	1	12
672.601	1	3
672.770	1	-6
672.939	1	6
673.109	1	-2
673.278	1	3
673.448	1	14
673.617	1	11
673.786	1	16
