325.333	1	7
325.504	1	6
325.675	1	10
325.846	1	4
326.017	1	3
326.188	1	11
326.359	1	-2
326.531	1	-12
326.702	1	15
326.873	1	1
327.044	1	-5
327.215	1	-6
327.386	1	12
327.557	1	-1
327.728	1	7
327.899	1	0
328.070	1	9
328.241	1	13
328.412	1	-6
328.583	1	1
328.754	1	10
328.926	1	7
329.097	1	-8
329.268	1	11
329.439	1	5
329.610	1	6
329.781	1	-3
329.952	1	4
330.123	1	9
330.294	1	-2
330.465	1	-1
330.636	1	5
330.807	1	-8
330.978	1	0
331.149	1	0
331.320	1	1
331.492	1	13
331.663	1	1
331.834	1	11
332.005	1	6
332.176	1	11
332.347	1	-2
332.518	1	-3
332.689	1	8
332.860	1	7
333.031	1	3
333.202	1	3
333.373	1	7
333.544	1	5
333.715	1	11
333.886	1	6
334.057	1	2
334.228	1	-5
334.399	1	2
334.570	1	16
334.741	1	0
334.912	1	7
335.084	1	12
335.255	1	2
335.426	1	2
335.597	1	6
335.768	1	4
335.939	1	6
336.110	1	-6
336.281	1	0
336.452	1	-12
336.623	1	2
336.794	1	10
336.965	1	-8
337.136	1	5
337.307	1	-1
337.478	1	-5
337.649	1	-1
337.820	1	0
337.991	1	9
338.162	1	10
338.333	1	0
338.504	1	9
338.675	1	2
338.846	1	10
339.017	1	-3
339.188	1	-1
339.359	1	-3
339.530	1	13
339.701	1	0
339.872	1	20
340.043	1	2
340.214	1	8
340.385	1	0
340.556	1	-9
340.727	1	3
340.898	1	14
341.069	1	9
341.240	1	9
341.411	1	7
341.582	1	10
341.753	1	-2
341.924	1	3
342.095	1	1
342.266	1	9
342.437	1	4
342.608	1	-1
342.779	1	11
342.950	1	11
343.121	1	6
343.292	1	7
343.463	1	1
343.634	1	2
343.805	1	6
343.976	1	15
344.147	1	9
344.318	1	6
344.489	1	2
344.660	1	13
344.831	1	9
345.002	1	-2
345.173	1	10
345.344	1	2
345.515	1	12
345.686	1	0
345.857	1	4
346.028	1	3
346.199	1	9
346.370	1	8
346.541	1	7
346.712	1	5
346.883	1	11
347.054	1	10
347.225	1	4
347.396	1	11
347.567	1	2
347.738	1	2
347.909	1	18
348.080	1	-1
348.251	1	9
348.422	1	11
348.593	1	4
348.764	1	4
348.935	1	10
349.106	1	3
349.277	1	4
349.448	1	14
349.619	1	2
349.790	1	11
349.961	1	14
350.132	1	9
350.303	1	9
350.474	1	11
350.645	1	12
350.816	1	8
350.987	1	9
351.157	1	-1
351.328	1	10
351.499	1	6
351.670	1	2
351.841	1	12
352.012	1	9
352.183	1	12
352.354	1	15
352.525	1	10
352.696	1	7
352.867	1	10
353.038	1	13
353.209	1	15
353.380	1	0
353.551	1	-5
353.722	1	4
353.893	1	5
354.064	1	16
354.235	1	3
354.406	1	2
354.576	1	4
354.747	1	7
354.918	1	8
355.089	1	11
355.260	1	13
355.431	1	9
355.602	1	8
355.773	1	7
355.944	1	7
356.115	1	9
356.286	1	10
356.457	1	6
356.628	1	18
356.799	1	15
356.970	1	11
357.141	1	5
357.311	1	5
357.482	1	9
357.653	1	6
357.824	1	9
357.995	1	-2
358.166	1	-4
358.337	1	12
358.508	1	13
358.679	1	9
358.850	1	-2
359.021	1	7
359.192	1	15
359.363	1	5
359.533	1	5
359.704	1	9
359.875	1	15
360.046	1	6
360.217	1	0
360.388	1	9
360.559	1	-6
360.730	1	13
360.901	1	9
361.072	1	23
361.243	1	2
361.414	1	6
361.584	1	4
361.755	1	10
361.926	1	4
362.097	1	10
362.268	1	13
362.439	1	-3
362.610	1	15
362.781	1	-4
362.952	1	1
363.123	1	5
363.293	1	5
363.464	1	10
363.635	1	16
363.806	1	7
363.977	1	9
364.148	1	9
364.319	1	17
364.490	1	15
364.661	1	3
364.832	1	12
365.002	1	6
365.173	1	9
365.344	1	16
365.515	1	6
365.686	1	15
365.857	1	13
366.028	1	20
366.199	1	0
366.370	1	12
366.540	1	4
366.711	1	-6
366.882	1	-1
367.053	1	0
367.224	1	22
367.395	1	11
367.566	1	13
367.737	1	19
367.908	1	16
368.078	1	11
368.249	1	16
368.420	1	12
368.591	1	5
368.762	1	9
368.933	1	6
369.104	1	2
369.274	1	12
369.445	1	6
369.616	1	14
369.787	1	9
369.958	1	27
370.129	1	4
370.300	1	19
370.471	1	6
370.641	1	18
370.812	1	9
370.983	1	5
371.154	1	11
371.325	1	15
371.496	1	7
371.667	1	13
371.837	1	3
372.008	1	6
372.179	1	6
372.350	1	18
372.521	1	0
372.692	1	9
372.863	1	18
373.033	1	4
373.204	1	13
373.375	1	10
373.546	1	21
373.717	1	14
373.888	1	21
374.059	1	17
374.229	1	21
374.400	1	0
374.571	1	7
374.742	1	22
374.913	1	21
375.084	1	5
375.254	1	22
375.425	1	9
375.596	1	11
375.767	1	8
375.938	1	18
376.109	1	16
376.279	1	-1
376.450	1	12
376.621	1	12
376.792	1	7
376.963	1	12
377.134	1	16
377.304	1	18
377.475	1	5
377.646	1	5
377.817	1	5
377.988	1	11
378.159	1	15
378.329	1	17
378.500	1	11
378.671	1	15
378.842	1	2
379.013	1	-3
379.184	1	-2
379.354	1	17
379.525	1	8
379.696	1	9
379.867	1	18
380.038	1	13
380.209	1	18
380.379	1	-2
380.550	1	2
380.721	1	23
380.892	1	14
381.063	1	8
381.233	1	18
381.404	1	11
381.575	1	12
381.746	1	13
381.917	1	14
382.087	1	14
382.258	1	16
382.429	1	14
382.600	1	20
382.771	1	9
382.941	1	4
383.112	1	9
383.283	1	17
383.454	1	13
383.625	1	1
383.795	1	10
383.966	1	4
384.137	1	25
384.308	1	18
384.479	1	18
384.649	1	8
384.820	1	13
384.991	1	11
385.162	1	18
385.333	1	6
385.503	1	7
385.674	1	2
385.845	1	18
386.016	1	14
386.187	1	9
386.357	1	21
386.528	1	16
386.699	1	9
386.870	1	23
387.041	1	12
387.211	1	12
387.382	1	11
387.553	1	23
387.724	1	2
387.894	1	16
388.065	1	10
388.236	1	19
388.407	1	18
388.578	1	19
388.748	1	9
388.919	1	14
389.090	1	16
389.261	1	7
389.431	1	19
389.602	1	14
389.773	1	17
389.944	1	17
390.114	1	14
390.285	1	22
390.456	1	13
390.627	1	5
390.798	1	11
390.968	1	15
391.139	1	13
391.310	1	12
391.481	1	9
391.651	1	21
391.822	1	6
391.993	1	8
392.164	1	4
392.334	1	12
392.505	1	14
392.676	1	17
392.847	1	18
393.017	1	23
393.188	1	21
393.359	1	8
393.530	1	8
393.700	1	12
393.871	1	6
394.042	1	6
394.213	1	5
394.383	1	12
394.554	1	16
394.725	1	14
394.896	1	4
395.066	1	14
395.237	1	14
395.408	1	12
395.579	1	13
395.749	1	8
395.920	1	19
396.091	1	25
396.262	1	12
396.432	1	18
396.603	1	28
396.774	1	18
396.945	1	14
397.115	1	15
397.286	1	13
397.457	1	14
397.627	1	15
397.798	1	15
397.969	1	15
398.140	1	9
398.310	1	10
398.481	1	13
398.652	1	16
398.823	1	6
398.993	1	10
399.164	1	16
399.335	1	20
399.505	1	22
399.676	1	18
399.847	1	12
400.018	1	9
400.188	1	10
400.359	1	13
400.530	1	11
400.700	1	16
400.871	1	11
401.042	1	10
401.213	1	23
401.383	1	12
401.554	1	21
401.725	1	13
401.895	1	4
402.066	1	11
402.237	1	9
402.408	1	13
402.578	1	20
402.749	1	21
402.920	1	23
403.090	1	8
403.261	1	22
403.432	1	10
403.603	1	15
403.773	1	22
403.944	1	26
404.115	1	20
404.285	1	20
404.456	1	20
404.627	1	12
404.797	1	2
404.968	1	10
405.139	1	9
405.310	1	25
405.480	1	20
405.651	1	9
405.822	1	10
405.992	1	8
406.163	1	14
406.334	1	9
406.504	1	19
406.675	1	37
406.846	1	16
407.016	1	17
407.187	1	28
407.358	1	7
407.528	1	10
407.699	1	-2
407.870	1	7
408.041	1	17
408.211	1	27
408.382	1	21
408.553	1	4
408.723	1	21
408.894	1	16
409.065	1	16
409.235	1	12
409.406	1	14
409.577	1	9
409.747	1	18
409.918	1	14
410.089	1	12
410.259	1	11
410.430	1	10
410.601	1	14
410.771	1	13
410.942	1	15
411.113	1	16
411.283	1	13
411.454	1	21
411.625	1	11
411.795	1	20
411.966	1	15
412.137	1	6
412.307	1	9
412.478	1	13
412.649	1	28
412.819	1	18
412.990	1	20
413.161	1	23
413.331	1	10
413.502	1	26
413.672	1	16
413.843	1	10
414.014	1	11
414.184	1	20
414.355	1	20
414.526	1	15
414.696	1	23
414.867	1	20
415.038	1	1
415.208	1	15
415.379	1	22
415.550	1	17
415.720	1	15
415.891	1	9
416.062	1	16
416.232	1	22
416.403	1	27
416.573	1	19
416.744	1	2
416.915	1	22
417.085	1	16
417.256	1	17
417.427	1	15
417.597	1	13
417.768	1	5
417.939	1	20
418.109	1	9
418.280	1	12
418.450	1	12
418.621	1	1
418.792	1	15
418.962	1	14
419.133	1	18
419.304	1	24
419.474	1	6
419.645	1	11
419.815	1	6
419.986	1	18
420.157	1	15
420.327	1	17
420.498	1	30
420.669	1	16
420.839	1	27
421.010	1	24
421.180	1	23
421.351	1	17
421.522	1	18
421.692	1	21
421.863	1	24
422.033	1	24
422.204	1	22
422.375	1	8
422.545	1	22
422.716	1	10
422.886	1	13
423.057	1	21
423.228	1	11
423.398	1	16
423.569	1	17
423.740	1	10
423.910	1	4
424.081	1	2
424.251	1	11
424.422	1	23
424.593	1	11
424.763	1	21
424.934	1	13
425.104	1	15
425.275	1	18
425.445	1	12
425.616	1	4
425.787	1	9
425.957	1	19
426.128	1	16
426.298	1	25
426.469	1	8
426.640	1	12
426.810	1	20
426.981	1	18
427.151	1	18
427.322	1	25
427.493	1	21
427.663	1	15
427.834	1	15
428.004	1	17
428.175	1	19
428.345	1	16
428.516	1	6
428.687	1	18
428.857	1	2
429.028	1	11
429.198	1	16
429.369	1	22
429.540	1	22
429.710	1	16
429.881	1	18
430.051	1	15
430.222	1	16
430.392	1	14
430.563	1	25
430.734	1	29
430.904	1	19
431.075	1	21
431.245	1	7
431.416	1	18
431.586	1	17
431.757	1	12
431.927	1	24
432.098	1	13
432.269	1	5
432.439	1	23
432.610	1	19
432.780	1	25
432.951	1	17
433.121	1	22
433.292	1	27
433.462	1	16
433.633	1	19
433.804	1	15
433.974	1	19
434.145	1	23
434.315	1	8
434.486	1	1
434.656	1	14
434.827	1	6
434.997	1	7
435.168	1	16
435.339	1	9
435.509	1	12
435.680	1	9
435.850	1	14
436.021	1	9
436.191	1	7
436.362	1	19
436.532	1	6
436.703	1	9
436.873	1	17
437.044	1	-2
437.214	1	7
437.385	1	14
437.556	1	4
437.726	1	22
437.897	1	26
438.067	1	12
438.238	1	15
438.408	1	30
438.579	1	6
438.749	1	16
438.920	1	6
439.090	1	12
439.261	1	4
439.431	1	6
439.602	1	16
439.772	1	10
439.943	1	20
440.113	1	16
440.284	1	14
440.455	1	9
440.625	1	17
440.796	1	11
440.966	1	8
441.137	1	16
441.307	1	6
441.478	1	25
441.648	1	18
441.819	1	15
441.989	1	14
442.160	1	22
442.330	1	10
442.501	1	13
442.671	1	15
442.842	1	-4
443.012	1	11
443.183	1	11
443.353	1	3
443.524	1	14
443.694	1	18
443.865	1	12
444.035	1	28
444.206	1	12
444.376	1	10
444.547	1	27
444.717	1	12
444.888	1	11
445.058	1	26
445.229	1	11
445.399	1	14
445.570	1	11
445.740	1	2
445.911	1	12
446.081	1	2
446.252	1	27
446.422	1	11
446.593	1	0
446.763	1	13
446.934	1	9
447.104	1	11
447.275	1	19
447.445	1	11
447.616	1	17
447.786	1	4
447.957	1	10
448.127	1	20
448.298	1	21
448.468	1	7
448.639	1	9
448.809	1	17
448.979	1	4
449.150	1	25
449.320	1	16
449.491	1	11
449.661	1	11
449.832	1	15
450.002	1	18
450.173	1	14
450.343	1	12
450.514	1	6
450.684	1	9
450.855	1	3
451.025	1	23
451.196	1	11
451.366	1	17
451.537	1	4
451.707	1	-2
451.878	1	12
452.048	1	28
452.218	1	17
452.389	1	21
452.559	1	10
452.730	1	18
452.900	1	11
453.071	1	-4
453.241	1	4
453.412	1	8
453.582	1	3
453.753	1	10
453.923	1	15
454.093	1	13
454.264	1	16
454.434	1	2
454.605	1	5
454.775	1	11
454.946	1	12
455.116	1	10
455.287	1	7
455.457	1	1
455.628	1	9
455.798	1	14
455.968	1	23
456.139	1	9
456.309	1	10
456.480	1	10
456.650	1	-1
456.821	1	9
456.991	1	13
457.161	1	0
457.332	1	13
457.502	1	2
457.673	1	21
457.843	1	17
458.014	1	4
458.184	1	9
458.355	1	4
458.525	1	22
458.695	1	6
458.866	1	16
459.036	1	15
459.207	1	18
459.377	1	6
459.548	1	16
459.718	1	8
459.888	1	6
460.059	1	15
460.229	1	7
460.400	1	19
460.570	1	9
460.740	1	15
460.911	1	17
461.081	1	13
461.252	1	1
461.422	1	4
461.593	1	5
461.763	1	10
461.933	1	14
462.104	1	14
462.274	1	9
462.445	1	5
462.615	1	13
462.785	1	11
462.956	1	8
463.126	1	18
463.297	1	1
463.467	1	5
463.638	1	15
463.808	1	4
463.978	1	6
464.149	1	-2
464.319	1	10
464.490	1	25
464.660	1	4
464.830	1	2
465.001	1	5
465.171	1	15
465.342	1	11
465.512	1	1
465.682	1	8
465.853	1	17
466.023	1	13
466.194	1	1
466.364	1	30
466.534	1	8
466.705	1	14
466.875	1	6
467.045	1	11
467.216	1	14
467.386	1	9
467.557	1	7
467.727	1	0
467.897	1	6
468.068	1	4
468.238	1	5
468.409	1	0
468.579	1	6
468.749	1	10
468.920	1	0
469.090	1	21
469.260	1	0
469.431	1	3
469.601	1	8
469.772	1	9
469.942	1	1
470.112	1	16
470.283	1	-2
470.453	1	17
470.623	1	4
470.794	1	0
470.964	1	12
471.135	1	10
471.305	1	1
471.475	1	12
471.646	1	2
471.816	1	4
471.986	1	11
472.157	1	18
472.327	1	1
472.497	1	5
472.668	1	-11
472.838	1	10
473.009	1	14
473.179	1	5
473.349	1	-1
473.520	1	15
473.690	1	8
473.860	1	8
474.031	1	8
474.201	1	10
474.371	1	20
474.542	1	13
474.712	1	10
474.882	1	13
475.053	1	18
475.223	1	5
475.394	1	10
475.564	1	4
475.734	1	16
475.905	1	11
476.075	1	5
476.245	1	8
476.416	1	8
476.586	1	10
476.756	1	5
476.927	1	17
477.097	1	15
477.267	1	-1
477.438	1	13
477.608	1	2
477.778	1	5
477.949	1	3
478.119	1	17
478.289	1	11
478.460	1	18
478.630	1	8
478.800	1	11
478.971	1	12
479.141	1	8
479.311	1	-3
479.482	1	5
479.652	1	-3
479.822	1	5
479.993	1	8
480.163	1	16
480.333	1	12
480.504	1	12
480.674	1	10
480.844	1	-1
481.015	1	9
481.185	1	14
481.355	1	18
481.525	1	8
481.696	1	4
481.866	1	14
482.036	1	13
482.207	1	11
482.377	1	-3
482.547	1	9
482.718	1	-1
482.888	1	15
483.058	1	9
483.229	1	3
483.399	1	-1
483.569	1	4
483.740	1	13
483.910	1	18
484.080	1	12
484.250	1	1
484.421	1	12
484.591	1	10
484.761	1	18
484.932	1	7
485.102	1	13
485.272	1	12
485.443	1	16
485.613	1	10
485.783	1	7
485.953	1	4
486.124	1	16
486.294	1	14
486.464	1	5
486.635	1	5
486.805	1	13
486.975	1	-1
487.146	1	14
487.316	1	7
487.486	1	5
487.656	1	2
487.827	1	3
487.997	1	-7
488.167	1	2
488.338	1	22
488.508	1	0
488.678	1	4
488.848	1	14
489.019	1	1
489.189	1	16
489.359	1	5
489.529	1	9
489.700	1	2
489.870	1	19
490.040	1	5
490.211	1	1
490.381	1	12
490.551	1	6
490.721	1	11
490.892	1	7
491.062	1	5
491.232	1	3
491.402	1	-1
491.573	1	-5
491.743	1	14
491.913	1	8
492.084	1	11
492.254	1	2
492.424	1	10
492.594	1	0
492.765	1	2
492.935	1	7
493.105	1	9
493.275	1	0
493.446	1	15
493.616	1	12
493.786	1	9
493.956	1	-10
494.127	1	2
494.297	1	0
494.467	1	4
494.637	1	9
494.808	1	3
494.978	1	-1
495.148	1	12
495.318	1	4
495.489	1	2
495.659	1	6
495.829	1	3
495.999	1	3
496.170	1	11
496.340	1	7
496.510	1	7
496.680	1	-1
496.851	1	10
497.021	1	3
497.191	1	-1
497.361	1	4
497.532	1	0
497.702	1	12
497.872	1	-4
498.042	1	6
498.213	1	-4
498.383	1	8
498.553	1	-1
498.723	1	2
498.894	1	5
499.064	1	8
499.234	1	3
499.404	1	16
499.574	1	10
499.745	1	16
499.915	1	3
500.085	1	1
500.255	1	8
500.426	1	5
500.596	1	11
500.766	1	4
500.936	1	4
501.106	1	-1
501.277	1	5
501.447	1	7
501.617	1	7
501.787	1	5
501.958	1	0
502.128	1	6
502.298	1	2
502.468	1	4
502.638	1	12
502.809	1	12
502.979	1	0
503.149	1	1
503.319	1	-1
503.489	1	-1
503.660	1	4
503.830	1	6
504.000	1	16
504.170	1	10
504.340	1	4
504.511	1	9
504.681	1	6
504.851	1	0
505.021	1	-5
505.192	1	-9
505.362	1	5
505.532	1	0
505.702	1	4
505.872	1	5
506.043	1	3
506.213	1	4
506.383	1	7
506.553	1	1
506.723	1	2
506.893	1	2
507.064	1	12
507.234	1	-7
507.404	1	7
507.574	1	2
507.744	1	2
507.915	1	5
508.085	1	19
508.255	1	8
508.425	1	-6
508.595	1	9
508.766	1	13
508.936	1	-1
509.106	1	12
509.276	1	8
509.446	1	-1
509.616	1	9
509.787	1	4
509.957	1	4
510.127	1	10
510.297	1	12
510.467	1	-2
510.638	1	3
510.808	1	-5
510.978	1	-10
511.148	1	-1
511.318	1	0
511.488	1	-8
511.659	1	8
511.829	1	-2
511.999	1	5
512.169	1	-1
512.339	1	-1
512.509	1	1
512.680	1	2
512.850	1	8
513.020	1	6
513.190	1	10
513.360	1	-2
513.530	1	6
513.700	1	8
513.871	1	7
514.041	1	8
514.211	1	2
514.381	1	13
514.551	1	-1
514.721	1	-1
514.892	1	1
515.062	1	10
515.232	1	-4
515.402	1	0
515.572	1	0
515.742	1	6
515.912	1	14
516.083	1	5
516.253	1	10
516.423	1	-1
516.593	1	11
516.763	1	11
516.933	1	-3
517.104	1	7
517.274	1	-4
517.444	1	6
517.614	1	-6
517.784	1	8
517.954	1	4
518.124	1	4
518.294	1	1
518.465	1	0
518.635	1	12
518.805	1	-9
518.975	1	7
519.145	1	-2
519.315	1	5
519.485	1	7
519.656	1	16
519.826	1	6
519.996	1	-4
520.166	1	-6
520.336	1	13
520.506	1	3
520.676	1	-4
520.846	1	11
521.017	1	-5
521.187	1	8
521.357	1	9
521.527	1	-4
521.697	1	6
521.867	1	1
522.037	1	12
522.207	1	7
522.377	1	2
522.548	1	0
522.718	1	5
522.888	1	20
523.058	1	2
523.228	1	4
523.398	1	1
523.568	1	7
523.738	1	10
523.909	1	8
524.079	1	4
524.249	1	4
524.419	1	1
524.589	1	3
524.759	1	-2
524.929	1	4
525.099	1	12
525.269	1	7
525.439	1	8
525.610	1	12
525.780	1	1
525.950	1	2
526.120	1	8
526.290	1	2
526.460	1	9
526.630	1	1
526.800	1	-1
526.970	1	-2
527.140	1	15
527.311	1	-2
527.481	1	6
527.651	1	5
527.821	1	2
527.991	1	9
528.161	1	7
528.331	1	3
528.501	1	6
528.671	1	-7
528.841	1	9
529.011	1	0
529.181	1	18
529.352	1	-6
529.522	1	-5
529.692	1	5
529.862	1	2
530.032	1	0
530.202	1	6
530.372	1	0
530.542	1	11
530.712	1	2
530.882	1	8
531.052	1	7
531.222	1	5
531.392	1	5
531.563	1	0
531.733	1	-2
531.903	1	6
532.073	1	-2
532.243	1	0
532.413	1	-2
532.583	1	0
532.753	1	6
532.923	1	-11
533.093	1	8
533.263	1	1
533.433	1	-2
533.603	1	7
533.773	1	1
533.943	1	4
534.113	1	6
534.284	1	3
534.454	1	13
534.624	1	6
534.794	1	-5
534.964	1	11
535.134	1	-3
535.304	1	3
535.474	1	16
535.644	1	-3
535.814	1	-5
535.984	1	-7
536.154	1	-3
536.324	1	1
536.494	1	-1
536.664	1	6
536.834	1	-3
537.004	1	1
537.174	1	13
537.344	1	3
537.514	1	-5
537.685	1	7
537.855	1	6
538.025	1	4
538.195	1	5
538.365	1	8
538.535	1	1
538.705	1	0
538.875	1	11
539.045	1	-3
539.215	1	2
539.385	1	4
539.555	1	-1
539.725	1	9
539.895	1	-2
540.065	1	4
540.235	1	7
540.405	1	2
540.575	1	-1
540.745	1	5
540.915	1	11
541.085	1	13
541.255	1	-6
541.425	1	10
541.595	1	5
541.765	1	3
541.935	1	6
542.105	1	2
542.275	1	-3
542.445	1	-12
542.615	1	-3
542.785	1	4
542.955	1	-4
543.125	1	-14
543.295	1	6
543.465	1	-6
543.635	1	3
543.805	1	15
543.975	1	4
544.145	1	8
544.315	1	9
544.485	1	5
544.655	1	10
544.825	1	-4
544.995	1	7
545.165	1	-2
545.335	1	-1
545.505	1	-2
545.675	1	13
545.845	1	1
546.015	1	10
546.185	1	13
546.355	1	0
546.525	1	3
546.695	1	7
546.865	1	-4
547.035	1	5
547.205	1	-4
547.375	1	12
547.545	1	7
547.715	1	-9
547.885	1	1
548.055	1	-11
548.225	1	-2
548.395	1	2
548.565	1	-1
548.735	1	3
548.905	1	-2
549.075	1	7
549.245	1	6
549.415	1	-5
549.585	1	7
549.755	1	5
549.925	1	0
550.095	1	7
550.265	1	-9
550.435	1	-4
550.605	1	-3
550.775	1	8
550.945	1	11
551.115	1	-2
551.285	1	6
551.455	1	-6
551.625	1	14
551.795	1	7
551.965	1	-3
552.135	1	-5
552.305	1	1
552.475	1	0
552.645	1	-2
552.815	1	2
552.985	1	4
553.155	1	2
553.325	1	8
553.495	1	9
553.665	1	0
553.835	1	4
554.004	1	-2
554.174	1	6
554.344	1	6
554.514	1	-3
554.684	1	5
554.854	1	6
555.024	1	-5
555.194	1	-3
555.364	1	2
555.534	1	6
555.704	1	1
555.874	1	12
556.044	1	1
556.214	1	-3
556.384	1	1
556.554	1	4
556.724	1	-5
556.894	1	-3
557.064	1	2
557.234	1	-4
557.404	1	11
557.573	1	-1
557.743	1	2
557.913	1	9
558.083	1	-5
558.253	1	9
558.423	1	10
558.593	1	12
558.763	1	-5
558.933	1	0
559.103	1	10
559.273	1	2
559.443	1	2
559.613	1	1
559.783	1	0
559.953	1	-1
560.122	1	6
560.292	1	2
560.462	1	8
560.632	1	3
560.802	1	2
560.972	1	1
561.142	1	4
561.312	1	6
561.482	1	9
561.652	1	4
561.822	1	-8
561.992	1	3
562.162	1	3
562.331	1	0
562.501	1	-4
562.671	1	5
562.841	1	3
563.011	1	6
563.181	1	0
563.351	1	-5
563.521	1	12
563.691	1	-2
563.861	1	5
564.031	1	13
564.201	1	16
564.370	1	-2
564.540	1	2
564.710	1	-5
564.880	1	9
565.050	1	4
565.220	1	-9
565.390	1	6
565.560	1	6
565.730	1	-3
565.900	1	7
566.069	1	20
566.239	1	6
566.409	1	6
566.579	1	5
566.749	1	8
566.919	1	13
567.089	1	7
567.259	1	11
567.429	1	9
567.599	1	-2
567.768	1	7
567.938	1	5
568.108	1	0
568.278	1	3
568.448	1	1
568.618	1	2
568.788	1	2
568.958	1	-2
569.128	1	13
569.297	1	8
569.467	1	4
569.637	1	8
569.807	1	-2
569.977	1	10
570.147	1	-1
570.317	1	7
570.487	1	4
570.656	1	7
570.826	1	-6
570.996	1	1
571.166	1	4
571.336	1	-1
571.506	1	5
571.676	1	-4
571.846	1	15
572.015	1	5
572.185	1	-4
572.355	1	-3
572.525	1	7
572.695	1	5
572.865	1	-4
573.035	1	2
573.205	1	3
573.374	1	-10
573.544	1	5
573.714	1	12
573.884	1	10
574.054	1	9
574.224	1	5
574.394	1	0
574.563	1	0
574.733	1	1
574.903	1	4
575.073	1	-6
575.243	1	1
575.413	1	4
575.583	1	-5
575.752	1	12
575.922	1	4
576.092	1	10
576.262	1	-3
576.432	1	-1
576.602	1	-5
576.772	1	17
576.941	1	9
577.111	1	1
577.281	1	-4
577.451	1	-5
577.621	1	4
577.791	1	13
577.960	1	-4
578.130	1	2
578.300	1	0
578.470	1	8
578.640	1	0
578.810	1	6
578.979	1	0
579.149	1	-9
579.319	1	-5
579.489	1	-2
579.659	1	1
579.829	1	7
579.998	1	4
580.168	1	9
580.338	1	3
580.508	1	4
580.678	1	3
580.848	1	-2
581.017	1	3
581.187	1	3
581.357	1	-9
581.527	1	4
581.697	1	8
581.867	1	5
582.036	1	8
582.206	1	7
582.376	1	12
582.546	1	-9
582.716	1	-1
582.885	1	3
583.055	1	-6
583.225	1	-15
583.395	1	-4
583.565	1	-1
583.735	1	5
583.904	1	0
584.074	1	3
584.244	1	3
584.414	1	4
584.584	1	-1
584.753	1	2
584.923	1	4
585.093	1	7
585.263	1	3
585.433	1	2
585.602	1	-8
585.772	1	-4
585.942	1	6
586.112	1	1
586.282	1	1
586.451	1	-1
586.621	1	-7
586.791	1	-1
586.961	1	1
587.131	1	11
587.300	1	-3
587.470	1	10
587.640	1	3
587.810	1	-7
587.980	1	-3
588.149	1	5
588.319	1	-5
588.489	1	1
588.659	1	-6
588.829	1	3
588.998	1	12
589.168	1	2
589.338	1	5
589.508	1	0
589.677	1	-14
589.847	1	-1
590.017	1	16
590.187	1	-5
590.357	1	9
590.526	1	12
590.696	1	1
590.866	1	5
591.036	1	4
591.205	1	12
591.375	1	-4
591.545	1	-1
591.715	1	9
591.885	1	1
592.054	1	4
592.224	1	6
592.394	1	0
592.564	1	1
592.733	1	9
592.903	1	4
593.073	1	5
593.243	1	7
593.412	1	18
593.582	1	0
593.752	1	-4
593.922	1	5
594.091	1	-3
594.261	1	-2
594.431	1	1
594.601	1	8
594.771	1	5
594.940	1	3
595.110	1	2
595.280	1	3
595.450	1	2
595.619	1	-4
595.789	1	2
595.959	1	4
596.129	1	-2
596.298	1	-9
596.468	1	4
596.638	1	1
596.808	1	-7
596.977	1	8
597.147	1	11
597.317	1	-8
597.487	1	8
597.656	1	10
597.826	1	1
597.996	1	5
598.166	1	1
598.335	1	-3
598.505	1	2
598.675	1	-4
598.844	1	0
599.014	1	6
599.184	1	7
599.354	1	-6
599.523	1	1
599.693	1	-4
599.863	1	9
600.033	1	-10
600.202	1	6
600.372	1	3
600.542	1	14
600.712	1	-9
600.881	1	-1
601.051	1	9
601.221	1	7
601.390	1	1
601.560	1	3
601.730	1	10
601.900	1	4
602.069	1	10
602.239	1	-2
602.409	1	2
602.578	1	-5
602.748	1	0
602.918	1	9
603.088	1	5
603.257	1	1
603.427	1	-9
603.597	1	5
603.767	1	0
603.936	1	0
604.106	1	6
604.276	1	10
604.445	1	-2
604.615	1	-6
604.785	1	-4
604.954	1	-10
605.124	1	-4
605.294	1	2
605.464	1	-8
605.633	1	4
605.803	1	8
605.973	1	1
606.142	1	9
606.312	1	4
606.482	1	-5
606.652	1	7
606.821	1	-5
606.991	1	-3
607.161	1	-4
607.330	1	6
607.500	1	11
607.670	1	-6
607.839	1	16
608.009	1	13
608.179	1	10
608.348	1	2
608.518	1	11
608.688	1	10
608.858	1	-6
609.027	1	-11
609.197	1	11
609.367	1	13
609.536	1	7
609.706	1	2
609.876	1	-2
610.045	1	-2
610.215	1	10
610.385	1	12
610.554	1	5
610.724	1	8
610.894	1	1
611.063	1	4
611.233	1	-3
611.403	1	1
611.572	1	7
611.742	1	6
611.912	1	3
612.081	1	-8
612.251	1	2
612.421	1	3
612.590	1	-1
612.760	1	9
612.930	1	5
613.099	1	0
613.269	1	10
613.439	1	-3
613.608	1	-2
613.778	1	-2
613.948	1	6
614.117	1	1
614.287	1	7
614.457	1	7
614.626	1	0
614.796	1	2
614.966	1	-8
615.135	1	3
615.305	1	9
615.475	1	-3
615.644	1	9
615.814	1	13
615.984	1	6
616.153	1	1
616.323	1	2
616.493	1	-4
616.662	1	9
616.832	1	3
617.002	1	-3
617.171	1	-4
617.341	1	-2
617.511	1	-5
617.680	1	-7
617.850	1	4
618.019	1	5
618.189	1	13
618.359	1	12
618.528	1	1
618.698	1	0
618.868	1	-3
619.037	1	0
619.207	1	5
619.377	1	-2
619.546	1	-6
619.716	1	3
619.885	1	0
620.055	1	-9
620.225	1	7
620.394	1	3
620.564	1	15
620.734	1	6
620.903	1	-6
621.073	1	9
621.242	1	4
621.412	1	0
621.582	1	-1
621.751	1	1
621.921	1	10
622.091	1	-9
622.260	1	2
622.430	1	9
622.599	1	-9
622.769	1	1
622.939	1	10
623.108	1	7
623.278	1	-4
623.448	1	-2
623.617	1	7
623.787	1	-2
623.956	1	4
624.126	1	4
624.296	1	4
624.465	1	1
624.635	1	13
624.804	1	3
624.974	1	9
625.144	1	3
625.313	1	1
625.483	1	-6
625.652	1	-3
625.822	1	-4
625.992	1	-4
626.161	1	18
626.331	1	-4
626.501	1	9
626.670	1	-3
626.840	1	-6
627.009	1	-9
627.179	1	-1
627.348	1	9
627.518	1	3
627.688	1	8
627.857	1	7
628.027	1	-2
628.196	1	-4
628.366	1	6
628.536	1	2
628.705	1	-6
628.875	1	4
629.044	1	0
629.214	1	6
629.384	1	13
629.553	1	5
629.723	1	2
629.892	1	2
630.062	1	11
630.232	1	-5
630.401	1	5
630.571	1	-3
630.740	1	2
630.910	1	8
631.079	1	5
631.249	1	1
631.419	1	12
631.588	1	-7
631.758	1	15
631.927	1	3
632.097	1	7
632.266	1	2
632.436	1	7
632.606	1	-4
632.775	1	-3
632.945	1	7
633.114	1	10
633.284	1	5
633.453	1	-10
633.623	1	-1
633.793	1	5
633.962	1	7
634.132	1	5
634.301	1	5
634.471	1	6
634.640	1	6
634.810	1	5
634.979	1	3
635.149	1	5
635.319	1	0
635.488	1	2
635.658	1	-4
635.827	1	-6
635.997	1	-2
636.166	1	7
636.336	1	0
636.505	1	6
636.675	1	-2
636.845	1	6
637.014	1	5
637.184	1	6
637.353	1	6
637.523	1	2
637.692	1	4
637.862	1	-1
638.031	1	11
638.201	1	5
638.370	1	7
638.540	1	8
638.710	1	10
638.879	1	-7
639.049	1	-3
639.218	1	-2
639.388	1	0
639.557	1	-4
639.727	1	15
639.896	1	7
640.066	1	2
640.235	1	8
640.405	1	5
640.574	1	5
640.744	1	2
640.914	1	-1
641.083	1	5
641.253	1	1
641.422	1	5
641.592	1	10
641.761	1	1
641.931	1	-2
642.100	1	18
642.270	1	-3
642.439	1	5
642.609	1	12
642.778	1	-1
642.948	1	4
643.117	1	10
643.287	1	10
643.456	1	1
643.626	1	8
643.795	1	0
643.965	1	5
644.134	1	6
644.304	1	5
644.473	1	5
644.643	1	7
644.812	1	4
644.982	1	6
645.151	1	13
645.321	1	-6
645.490	1	14
645.660	1	-6
645.829	1	6
645.999	1	5
646.168	1	7
646.338	1	4
646.507	1	2
646.677	1	7
646.846	1	0
647.016	1	-12
647.185	1	14
647.355	1	-11
647.524	1	11
647.694	1	8
647.863	1	-1
648.033	1	3
648.202	1	10
648.372	1	-7
648.541	1	3
648.711	1	7
648.880	1	-8
649.050	1	-2
649.219	1	9
649.389	1	10
649.558	1	11
649.728	1	7
649.897	1	1
650.067	1	7
650.236	1	1
650.406	1	2
650.575	1	6
650.745	1	6
650.914	1	-1
651.084	1	-2
651.253	1	6
651.423	1	1
651.592	1	-3
651.762	1	-1
651.931	1	9
652.101	1	-1
652.270	1	5
652.440	1	11
652.609	1	-16
652.778	1	-1
652.948	1	6
653.117	1	6
653.287	1	2
653.456	1	6
653.626	1	17
653.795	1	2
653.965	1	-1
654.134	1	20
654.304	1	-6
654.473	1	9
654.643	1	13
654.812	1	11
654.982	1	3
655.151	1	5
655.320	1	7
655.490	1	-4
655.659	1	3
655.829	1	1
655.998	1	3
656.168	1	-4
656.337	1	5
656.507	1	-5
656.676	1	-3
656.846	1	10
657.015	1	3
657.184	1	6
657.354	1	7
657.523	1	9
657.693	1	2
657.862	1	4
658.032	1	-1
658.201	1	4
658.371	1	10
658.540	1	3
658.709	1	0
658.879	1	6
659.048	1	-6
659.218	1	4
659.387	1	3
659.557	1	8
659.726	1	9
659.895	1	-4
660.065	1	7
660.234	1	8
660.404	1	3
660.573	1	-2
660.743	1	5
660.912	1	9
661.081	1	7
661.251	1	-4
661.420	1	11
661.590	1	8
661.759	1	15
661.929	1	2
662.098	1	7
662.267	1	0
662.437	1	7
662.606	1	8
662.776	1	-2
662.945	1	-2
663.115	1	1
663.284	1	-2
663.453	1	-6
663.623	1	9
663.792	1	7
663.962	1	13
664.131	1	4
664.300	1	8
664.470	1	9
664.639	1	9
664.809	1	1
664.978	1	7
665.148	1	-1
665.317	1	4
665.486	1	3
665.656	1	-3
665.825	1	9
665.995	1	-4
666.164	1	6
666.333	1	4
666.503	1	12
666.672	1	1
666.842	1	2
667.011	1	-5
667.180	1	3
667.350	1	5
667.519	1	6
667.689	1	-4
667.858	1	5
668.027	1	10
668.197	1	-2
668.366	1	-3
668.536	1	-4
668.705	1	4
668.874	1	6
669.044	1	5
669.213	1	9
669.382	1	0
669.552	1	19
669.721	1	7
669.891	1	21
670.060	1	3
670.229	1	17
670.399	1	-4
670.568	1	12
670.738	1	2
670.907	1	3
671.076	1	-4
671.246	1	1
671.415	1	10
671.584	1	8
671.754	1	9
671.923	1	-4
672.093	1	6
672.262	1	-3
672.431	1	6
672.601	1	0
672.770	1	-3
672.939	1	6
673.109	1	8
673.278	1	7
673.448	1	13
673.617	1	-2
673.786	1	0
