325.333	1	11
325.504	1	2
325.675	1	7
325.846	1	11
326.017	1	8
326.188	1	2
326.359	1	6
326.531	1	-7
326.702	1	-6
326.873	1	14
327.044	1	3
327.215	1	9
327.386	1	10
327.557	1	-1
327.728	1	9
327.899	1	11
328.070	1	14
328.241	1	12
328.412	1	-3
328.583	1	6
328.754	1	15
328.926	1	3
329.097	1	-4
329.268	1	9
329.439	1	-5
329.610	1	12
329.781	1	0
329.952	1	12
330.123	1	5
330.294	1	7
330.465	1	5
330.636	1	10
330.807	1	0
330.978	1	-2
331.149	1	3
331.320	1	3
331.492	1	-1
331.663	1	-2
331.834	1	13
332.005	1	9
332.176	1	17
332.347	1	4
332.518	1	-1
332.689	1	6
332.860	1	11
333.031	1	17
333.202	1	4
333.373	1	13
333.544	1	11
333.715	1	13
333.886	1	4
334.057	1	17
334.228	1	1
334.399	1	20
334.570	1	14
334.741	1	6
334.912	1	15
335.084	1	22
335.255	1	15
335.426	1	-1
335.597	1	17
335.768	1	12
335.939	1	19
336.110	1	6
336.281	1	0
336.452	1	-1
336.623	1	7
336.794	1	13
336.965	1	10
337.136	1	16
337.307	1	4
337.478	1	8
337.649	1	15
337.820	1	5
337.991	1	5
338.162	1	24
338.333	1	13
338.504	1	11
338.675	1	7
338.846	1	13
339.017	1	1
339.188	1	6
339.359	1	0
339.530	1	8
339.701	1	14
339.872	1	16
340.043	1	3
340.214	1	14
340.385	1	23
340.556	1	-3
340.727	1	9
340.898	1	19
341.069	1	14
341.240	1	12
341.411	1	10
341.582	1	16
341.753	1	6
341.924	1	13
342.095	1	19
342.266	1	16
342.437	1	20
342.608	1	6
342.779	1	17
342.950	1	19
343.121	1	13
343.292	1	12
343.463	1	4
343.634	1	15
343.805	1	22
343.976	1	18
344.147	1	22
344.318	1	10
344.489	1	8
344.660	1	25
344.831	1	4
345.002	1	-6
345.173	1	21
345.344	1	16
345.515	1	21
345.686	1	14
345.857	1	15
346.028	1	3
346.199	1	12
346.370	1	8
346.541	1	17
346.712	1	6
346.883	1	12
347.054	1	11
347.225	1	11
347.396	1	20
347.567	1	7
347.738	1	12
347.909	1	24
348.080	1	11
348.251	1	10
348.422	1	15
348.593	1	11
348.764	1	11
348.935	1	10
349.106	1	12
349.277	1	21
349.448	1	15
349.619	1	12
349.790	1	6
349.961	1	18
350.132	1	19
350.303	1	15
350.474	1	25
350.645	1	23
350.816	1	25
350.987	1	19
351.157	1	11
351.328	1	19
351.499	1	27
351.670	1	20
351.841	1	26
352.012	1	24
352.183	1	21
352.354	1	16
352.525	1	29
352.696	1	25
352.867	1	9
353.038	1	22
353.209	1	24
353.380	1	15
353.551	1	12
353.722	1	17
353.893	1	16
354.064	1	29
354.235	1	20
354.406	1	15
354.576	1	15
354.747	1	19
354.918	1	20
355.089	1	26
355.260	1	18
355.431	1	16
355.602	1	17
355.773	1	25
355.944	1	23
356.115	1	15
356.286	1	22
356.457	1	26
356.628	1	29
356.799	1	14
356.970	1	22
357.141	1	17
357.311	1	13
357.482	1	21
357.653	1	19
357.824	1	33
357.995	1	23
358.166	1	15
358.337	1	11
358.508	1	28
358.679	1	23
358.850	1	25
359.021	1	17
359.192	1	22
359.363	1	16
359.533	1	17
359.704	1	16
359.875	1	16
360.046	1	27
360.217	1	3
360.388	1	16
360.559	1	10
360.730	1	21
360.901	1	23
361.072	1	30
361.243	1	36
361.414	1	19
361.584	1	11
361.755	1	30
361.926	1	18
362.097	1	23
362.268	1	22
362.439	1	15
362.610	1	34
362.781	1	8
362.952	1	10
363.123	1	19
363.293	1	18
363.464	1	28
363.635	1	20
363.806	1	27
363.977	1	25
364.148	1	21
364.319	1	33
364.490	1	19
364.661	1	30
364.832	1	29
365.002	1	23
365.173	1	29
365.344	1	27
365.515	1	28
365.686	1	17
365.857	1	22
366.028	1	23
366.199	1	21
366.370	1	23
366.540	1	20
366.711	1	15
366.882	1	14
367.053	1	22
367.224	1	30
367.395	1	30
367.566	1	23
367.737	1	35
367.908	1	28
368.078	1	20
368.249	1	24
368.420	1	17
368.591	1	16
368.762	1	34
368.933	1	16
369.104	1	13
369.274	1	32
369.445	1	32
369.616	1	16
369.787	1	28
369.958	1	38
370.129	1	19
370.300	1	26
370.471	1	26
370.641	1	24
370.812	1	28
370.983	1	34
371.154	1	22
371.325	1	30
371.496	1	19
371.667	1	32
371.837	1	14
372.008	1	27
372.179	1	15
372.350	1	39
372.521	1	16
372.692	1	19
372.863	1	25
373.033	1	8
373.204	1	20
373.375	1	31
373.546	1	26
373.717	1	34
373.888	1	34
374.059	1	33
374.229	1	37
374.400	1	12
374.571	1	16
374.742	1	41
374.913	1	26
375.084	1	22
375.254	1	30
375.425	1	33
375.596	1	28
375.767	1	23
375.938	1	30
376.109	1	30
376.279	1	22
376.450	1	24
376.621	1	27
376.792	1	25
376.963	1	27
377.134	1	32
377.304	1	27
377.475	1	24
377.646	1	24
377.817	1	16
377.988	1	29
378.159	1	18
378.329	1	28
378.500	1	28
378.671	1	25
378.842	1	24
379.013	1	22
379.184	1	22
379.354	1	28
379.525	1	23
379.696	1	38
379.867	1	45
380.038	1	26
380.209	1	32
380.379	1	36
380.550	1	20
380.721	1	31
380.892	1	37
381.063	1	30
381.233	1	29
381.404	1	22
381.575	1	30
381.746	1	30
381.917	1	21
382.087	1	37
382.258	1	28
382.429	1	31
382.600	1	36
382.771	1	27
382.941	1	29
383.112	1	26
383.283	1	23
383.454	1	36
383.625	1	26
383.795	1	29
383.966	1	28
384.137	1	41
384.308	1	34
384.479	1	28
384.649	1	34
384.820	1	35
384.991	1	28
385.162	1	36
385.333	1	26
385.503	1	36
385.674	1	27
385.845	1	38
386.016	1	31
386.187	1	29
386.357	1	47
386.528	1	41
386.699	1	34
386.870	1	44
387.041	1	41
387.211	1	36
387.382	1	44
387.553	1	36
387.724	1	35
387.894	1	34
388.065	1	34
388.236	1	38
388.407	1	33
388.578	1	35
388.748	1	28
388.919	1	43
389.090	1	30
389.261	1	39
389.431	1	42
389.602	1	32
389.773	1	31
389.944	1	29
390.114	1	45
390.285	1	37
390.456	1	31
390.627	1	41
390.798	1	33
390.968	1	37
391.139	1	38
391.310	1	32
391.481	1	51
391.651	1	42
391.822	1	35
391.993	1	41
392.164	1	28
392.334	1	40
392.505	1	33
392.676	1	41
392.847	1	41
393.017	1	38
393.188	1	45
393.359	1	25
393.530	1	37
393.700	1	36
393.871	1	36
394.042	1	38
394.213	1	36
394.383	1	31
394.554	1	49
394.725	1	40
394.896	1	32
395.066	1	35
395.237	1	37
395.408	1	36
395.579	1	43
395.749	1	27
395.920	1	44
396.091	1	42
396.262	1	34
396.432	1	33
396.603	1	48
396.774	1	45
396.945	1	38
397.115	1	44
397.286	1	45
397.457	1	40
397.627	1	49
397.798	1	47
397.969	1	36
398.140	1	34
398.310	1	36
398.481	1	43
398.652	1	41
398.823	1	39
398.993	1	32
399.164	1	43
399.335	1	44
399.505	1	54
399.676	1	38
399.847	1	45
400.018	1	33
400.188	1	34
400.359	1	39
400.530	1	30
400.700	1	39
400.871	1	32
401.042	1	34
401.213	1	40
401.383	1	47
401.554	1	47
401.725	1	51
401.895	1	34
402.066	1	35
402.237	1	40
402.408	1	41
402.578	1	45
402.749	1	38
402.920	1	43
403.090	1	29
403.261	1	36
403.432	1	39
403.603	1	40
403.773	1	54
403.944	1	52
404.115	1	39
404.285	1	53
404.456	1	32
404.627	1	44
404.797	1	32
404.968	1	35
405.139	1	36
405.310	1	51
405.480	1	50
405.651	1	36
405.822	1	46
405.992	1	28
406.163	1	37
406.334	1	35
406.504	1	40
406.675	1	51
406.846	1	47
407.016	1	45
407.187	1	40
407.358	1	35
407.528	1	36
407.699	1	31
407.870	1	39
408.041	1	40
408.211	1	55
408.382	1	39
408.553	1	32
408.723	1	46
408.894	1	47
409.065	1	48
409.235	1	41
409.406	1	42
409.577	1	31
409.747	1	46
409.918	1	48
410.089	1	46
410.259	1	38
410.430	1	38
410.601	1	46
410.771	1	46
410.942	1	47
411.113	1	43
411.283	1	48
411.454	1	53
411.625	1	47
411.795	1	42
411.966	1	41
412.137	1	43
412.307	1	27
412.478	1	34
412.649	1	38
412.819	1	41
412.990	1	41
413.161	1	42
413.331	1	35
413.502	1	40
413.672	1	57
413.843	1	38
414.014	1	46
414.184	1	40
414.355	1	37
414.526	1	47
414.696	1	52
414.867	1	45
415.038	1	22
415.208	1	46
415.379	1	40
415.550	1	44
415.720	1	44
415.891	1	41
416.062	1	45
416.232	1	43
416.403	1	45
416.573	1	42
416.744	1	35
416.915	1	51
417.085	1	47
417.256	1	39
417.427	1	40
417.597	1	39
417.768	1	33
417.939	1	47
418.109	1	46
418.280	1	44
418.450	1	40
418.621	1	24
418.792	1	46
418.962	1	44
419.133	1	51
419.304	1	25
419.474	1	43
419.645	1	41
419.815	1	22
419.986	1	39
420.157	1	37
420.327	1	48
420.498	1	51
420.669	1	34
420.839	1	45
421.010	1	36
421.180	1	46
421.351	1	43
421.522	1	42
421.692	1	42
421.863	1	43
422.033	1	50
422.204	1	39
422.375	1	36
422.545	1	36
422.716	1	31
422.886	1	46
423.057	1	34
423.228	1	47
423.398	1	36
423.569	1	39
423.740	1	34
423.910	1	30
424.081	1	35
424.251	1	38
424.422	1	37
424.593	1	37
424.763	1	42
424.934	1	40
425.104	1	39
425.275	1	35
425.445	1	27
425.616	1	35
425.787	1	27
425.957	1	27
426.128	1	41
426.298	1	44
426.469	1	23
426.640	1	43
426.810	1	37
426.981	1	31
427.151	1	30
427.322	1	45
427.493	1	42
427.663	1	51
427.834	1	36
428.004	1	44
428.175	1	35
428.345	1	33
428.516	1	33
428.687	1	32
428.857	1	22
429.028	1	40
429.198	1	33
429.369	1	38
429.540	1	36
429.710	1	34
429.881	1	45
430.051	1	37
430.222	1	26
430.392	1	32
430.563	1	42
430.734	1	38
430.904	1	40
431.075	1	45
431.245	1	36
431.416	1	37
431.586	1	32
431.757	1	34
431.927	1	37
432.098	1	33
432.269	1	40
432.439	1	35
432.610	1	30
432.780	1	44
432.951	1	27
433.121	1	39
433.292	1	39
433.462	1	50
433.633	1	45
433.804	1	43
433.974	1	39
434.145	1	43
434.315	1	38
434.486	1	32
434.656	1	31
434.827	1	34
434.997	1	35
435.168	1	39
435.339	1	42
435.509	1	42
435.680	1	45
435.850	1	46
436.021	1	37
436.191	1	15
436.362	1	44
436.532	1	26
436.703	1	27
436.873	1	35
437.044	1	29
437.214	1	29
437.385	1	28
437.556	1	34
437.726	1	44
437.897	1	38
438.067	1	22
438.238	1	29
438.408	1	28
438.579	1	35
438.749	1	17
438.920	1	28
439.090	1	40
439.261	1	26
439.431	1	30
439.602	1	41
439.772	1	31
439.943	1	45
440.113	1	38
440.284	1	33
440.455	1	30
440.625	1	42
440.796	1	39
440.966	1	28
441.137	1	39
441.307	1	38
441.478	1	48
441.648	1	36
441.819	1	30
441.989	1	34
442.160	1	34
442.330	1	30
442.501	1	26
442.671	1	27
442.842	1	21
443.012	1	22
443.183	1	46
443.353	1	25
443.524	1	32
443.694	1	44
443.865	1	32
444.035	1	22
444.206	1	25
444.376	1	34
444.547	1	46
444.717	1	36
444.888	1	33
445.058	1	43
445.229	1	37
445.399	1	26
445.570	1	39
445.740	1	17
445.911	1	34
446.081	1	19
446.252	1	32
446.422	1	26
446.593	1	20
446.763	1	18
446.934	1	23
447.104	1	22
447.275	1	32
447.445	1	29
447.616	1	30
447.786	1	28
447.957	1	27
448.127	1	33
448.298	1	24
448.468	1	30
448.639	1	38
448.809	1	31
448.979	1	29
449.150	1	33
449.320	1	29
449.491	1	40
449.661	1	13
449.832	1	20
450.002	1	34
450.173	1	26
450.343	1	25
450.514	1	22
450.684	1	27
450.855	1	33
451.025	1	29
451.196	1	37
451.366	1	37
451.537	1	28
451.707	1	14
451.878	1	33
452.048	1	42
452.218	1	27
452.389	1	39
452.559	1	31
452.730	1	32
452.900	1	39
453.071	1	20
453.241	1	23
453.412	1	25
453.582	1	24
453.753	1	23
453.923	1	25
454.093	1	40
454.264	1	32
454.434	1	20
454.605	1	33
454.775	1	27
454.946	1	23
455.116	1	26
455.287	1	17
455.457	1	18
455.628	1	30
455.798	1	34
455.968	1	31
456.139	1	28
456.309	1	19
456.480	1	23
456.650	1	16
456.821	1	20
456.991	1	29
457.161	1	24
457.332	1	27
457.502	1	14
457.673	1	27
457.843	1	31
458.014	1	23
458.184	1	26
458.355	1	19
458.525	1	33
458.695	1	26
458.866	1	16
459.036	1	29
459.207	1	22
459.377	1	18
459.548	1	27
459.718	1	20
459.888	1	32
460.059	1	31
460.229	1	35
460.400	1	19
460.570	1	24
460.740	1	21
460.911	1	22
461.081	1	24
461.252	1	18
461.422	1	20
461.593	1	27
461.763	1	32
461.933	1	33
462.104	1	19
462.274	1	30
462.445	1	26
462.615	1	15
462.785	1	18
462.956	1	15
463.126	1	34
463.297	1	25
463.467	1	26
463.638	1	22
463.808	1	16
463.978	1	27
464.149	1	20
464.319	1	11
464.490	1	42
464.660	1	17
464.830	1	20
465.001	1	24
465.171	1	25
465.342	1	27
465.512	1	21
465.682	1	16
465.853	1	26
466.023	1	19
466.194	1	18
466.364	1	26
466.534	1	20
466.705	1	19
466.875	1	13
467.045	1	17
467.216	1	31
467.386	1	17
467.557	1	17
467.727	1	6
467.897	1	22
468.068	1	22
468.238	1	14
468.409	1	21
468.579	1	29
468.749	1	17
468.920	1	14
469.090	1	15
469.260	1	20
469.431	1	14
469.601	1	28
469.772	1	20
469.942	1	6
470.112	1	33
470.283	1	16
470.453	1	18
470.623	1	7
470.794	1	11
470.964	1	20
471.135	1	24
471.305	1	1
471.475	1	20
471.646	1	8
471.816	1	16
471.986	1	11
472.157	1	27
472.327	1	7
472.497	1	21
472.668	1	11
472.838	1	17
473.009	1	32
473.179	1	13
473.349	1	7
473.520	1	24
473.690	1	21
473.860	1	17
474.031	1	25
474.201	1	21
474.371	1	24
474.542	1	26
474.712	1	16
474.882	1	14
475.053	1	26
475.223	1	9
475.394	1	19
475.564	1	15
475.734	1	27
475.905	1	32
476.075	1	8
476.245	1	22
476.416	1	18
476.586	1	31
476.756	1	17
476.927	1	28
477.097	1	22
477.267	1	17
477.438	1	14
477.608	1	13
477.778	1	18
477.949	1	14
478.119	1	23
478.289	1	20
478.460	1	19
478.630	1	22
478.800	1	22
478.971	1	16
479.141	1	10
479.311	1	6
479.482	1	10
479.652	1	10
479.822	1	24
479.993	1	14
480.163	1	16
480.333	1	15
480.504	1	24
480.674	1	13
480.844	1	0
481.015	1	17
481.185	1	10
481.355	1	18
481.525	1	2
481.696	1	20
481.866	1	16
482.036	1	10
482.207	1	12
482.377	1	10
482.547	1	24
482.718	1	15
482.888	1	20
483.058	1	20
483.229	1	14
483.399	1	12
483.569	1	15
483.740	1	24
483.910	1	20
484.080	1	18
484.250	1	27
484.421	1	17
484.591	1	20
484.761	1	16
484.932	1	29
485.102	1	12
485.272	1	15
485.443	1	17
485.613	1	22
485.783	1	12
485.953	1	16
486.124	1	14
486.294	1	10
486.464	1	7
486.635	1	11
486.805	1	23
486.975	1	6
487.146	1	21
487.316	1	13
487.486	1	22
487.656	1	12
487.827	1	18
487.997	1	1
488.167	1	21
488.338	1	17
488.508	1	4
488.678	1	3
488.848	1	17
489.019	1	14
489.189	1	23
489.359	1	9
489.529	1	9
489.700	1	11
489.870	1	30
490.040	1	10
490.211	1	7
490.381	1	17
490.551	1	7
490.721	1	21
490.892	1	18
491.062	1	19
491.232	1	23
491.402	1	7
491.573	1	-6
491.743	1	13
491.913	1	12
492.084	1	24
492.254	1	6
492.424	1	14
492.594	1	9
492.765	1	12
492.935	1	15
493.105	1	19
493.275	1	11
493.446	1	23
493.616	1	16
493.786	1	4
493.956	1	10
494.127	1	14
494.297	1	9
494.467	1	8
494.637	1	10
494.808	1	7
494.978	1	4
495.148	1	7
495.318	1	10
495.489	1	13
495.659	1	19
495.829	1	11
495.999	1	11
496.170	1	17
496.340	1	14
496.510	1	10
496.680	1	0
496.851	1	9
497.021	1	15
497.191	1	9
497.361	1	8
497.532	1	5
497.702	1	17
497.872	1	14
498.042	1	3
498.213	1	9
498.383	1	12
498.553	1	6
498.723	1	4
498.894	1	10
499.064	1	13
499.234	1	26
499.404	1	18
499.574	1	18
499.745	1	6
499.915	1	8
500.085	1	11
500.255	1	20
500.426	1	10
500.596	1	16
500.766	1	12
500.936	1	14
501.106	1	8
501.277	1	16
501.447	1	13
501.617	1	11
501.787	1	4
501.958	1	5
502.128	1	6
502.298	1	7
502.468	1	11
502.638	1	15
502.809	1	8
502.979	1	7
503.149	1	-7
503.319	1	4
503.489	1	16
503.660	1	16
503.830	1	11
504.000	1	23
504.170	1	2
504.340	1	3
504.511	1	19
504.681	1	1
504.851	1	13
505.021	1	9
505.192	1	5
505.362	1	9
505.532	1	6
505.702	1	4
505.872	1	10
506.043	1	10
506.213	1	8
506.383	1	11
506.553	1	16
506.723	1	13
506.893	1	16
507.064	1	7
507.234	1	1
507.404	1	-2
507.574	1	12
507.744	1	9
507.915	1	10
508.085	1	16
508.255	1	16
508.425	1	9
508.595	1	14
508.766	1	9
508.936	1	-5
509.106	1	21
509.276	1	16
509.446	1	-5
509.616	1	0
509.787	1	9
509.957	1	15
510.127	1	11
510.297	1	5
510.467	1	5
510.638	1	13
510.808	1	-2
510.978	1	0
511.148	1	10
511.318	1	4
511.488	1	5
511.659	1	9
511.829	1	4
511.999	1	6
512.169	1	6
512.339	1	2
512.509	1	4
512.680	1	12
512.850	1	6
513.020	1	11
513.190	1	11
513.360	1	-4
513.530	1	7
513.700	1	17
513.871	1	8
514.041	1	9
514.211	1	12
514.381	1	14
514.551	1	11
514.721	1	8
514.892	1	11
515.062	1	12
515.232	1	14
515.402	1	-9
515.572	1	-8
515.742	1	13
515.912	1	19
516.083	1	3
516.253	1	7
516.423	1	9
516.593	1	4
516.763	1	14
516.933	1	3
517.104	1	11
517.274	1	8
517.444	1	3
517.614	1	-4
517.784	1	5
517.954	1	5
518.124	1	8
518.294	1	7
518.465	1	7
518.635	1	1
518.805	1	-14
518.975	1	7
519.145	1	1
519.315	1	-3
519.485	1	1
519.656	1	17
519.826	1	6
519.996	1	-5
520.166	1	7
520.336	1	13
520.506	1	10
520.676	1	9
520.846	1	17
521.017	1	10
521.187	1	4
521.357	1	11
521.527	1	11
521.697	1	5
521.867	1	-2
522.037	1	14
522.207	1	18
522.377	1	1
522.548	1	10
522.718	1	7
522.888	1	12
523.058	1	-3
523.228	1	8
523.398	1	11
523.568	1	11
523.738	1	3
523.909	1	12
524.079	1	6
524.249	1	5
524.419	1	7
524.589	1	-4
524.759	1	3
524.929	1	-5
525.099	1	4
525.269	1	8
525.439	1	4
525.610	1	17
525.780	1	4
525.950	1	9
526.120	1	2
526.290	1	8
526.460	1	0
526.630	1	5
526.800	1	1
526.970	1	0
527.140	1	14
527.311	1	-4
527.481	1	0
527.651	1	13
527.821	1	2
527.991	1	26
528.161	1	15
528.331	1	1
528.501	1	-3
528.671	1	0
528.841	1	1
529.011	1	8
529.181	1	7
529.352	1	7
529.522	1	-5
529.692	1	5
529.862	1	4
530.032	1	9
530.202	1	2
530.372	1	11
530.542	1	12
530.712	1	9
530.882	1	7
531.052	1	7
531.222	1	7
531.392	1	5
531.563	1	13
531.733	1	2
531.903	1	0
532.073	1	3
532.243	1	8
532.413	1	6
532.583	1	1
532.753	1	13
532.923	1	-2
533.093	1	3
533.263	1	0
533.433	1	-1
533.603	1	6
533.773	1	6
533.943	1	9
534.113	1	8
534.284	1	4
534.454	1	6
534.624	1	9
534.794	1	2
534.964	1	8
535.134	1	-2
535.304	1	-2
535.474	1	8
535.644	1	-4
535.814	1	-7
535.984	1	0
536.154	1	2
536.324	1	2
536.494	1	12
536.664	1	10
536.834	1	-8
537.004	1	1
537.174	1	23
537.344	1	-7
537.514	1	-3
537.685	1	0
537.855	1	12
538.025	1	8
538.195	1	5
538.365	1	14
538.535	1	3
538.705	1	4
538.875	1	9
539.045	1	10
539.215	1	6
539.385	1	11
539.555	1	15
539.725	1	3
539.895	1	-7
540.065	1	17
540.235	1	6
540.405	1	3
540.575	1	5
540.745	1	9
540.915	1	8
541.085	1	12
541.255	1	-1
541.425	1	12
541.595	1	-4
541.765	1	8
541.935	1	0
542.105	1	-3
542.275	1	3
542.445	1	-6
542.615	1	8
542.785	1	11
542.955	1	-2
543.125	1	-3
543.295	1	6
543.465	1	-1
543.635	1	6
543.805	1	11
543.975	1	-4
544.145	1	12
544.315	1	12
544.485	1	10
544.655	1	7
544.825	1	-4
544.995	1	5
545.165	1	4
545.335	1	3
545.505	1	3
545.675	1	0
545.845	1	4
546.015	1	11
546.185	1	10
546.355	1	12
546.525	1	12
546.695	1	7
546.865	1	-2
547.035	1	12
547.205	1	-5
547.375	1	1
547.545	1	14
547.715	1	8
547.885	1	5
548.055	1	3
548.225	1	11
548.395	1	5
548.565	1	6
548.735	1	-4
548.905	1	6
549.075	1	3
549.245	1	-3
549.415	1	-2
549.585	1	13
549.755	1	2
549.925	1	-5
550.095	1	10
550.265	1	8
550.435	1	0
550.605	1	7
550.775	1	7
550.945	1	7
551.115	1	1
551.285	1	0
551.455	1	8
551.625	1	7
551.795	1	5
551.965	1	2
552.135	1	7
552.305	1	-6
552.475	1	-3
552.645	1	-2
552.815	1	-12
552.985	1	7
553.155	1	7
553.325	1	10
553.495	1	-2
553.665	1	2
553.835	1	2
554.004	1	1
554.174	1	4
554.344	1	3
554.514	1	3
554.684	1	16
554.854	1	9
555.024	1	-2
555.194	1	-4
555.364	1	10
555.534	1	12
555.704	1	8
555.874	1	8
556.044	1	7
556.214	1	-4
556.384	1	2
556.554	1	16
556.724	1	3
556.894	1	-3
557.064	1	4
557.234	1	-2
557.404	1	13
557.573	1	5
557.743	1	4
557.913	1	2
558.083	1	3
558.253	1	2
558.423	1	7
558.593	1	13
558.763	1	3
558.933	1	4
559.103	1	6
559.273	1	4
559.443	1	2
559.613	1	6
559.783	1	5
559.953	1	7
560.122	1	7
560.292	1	6
560.462	1	-2
560.632	1	16
560.802	1	6
560.972	1	6
561.142	1	6
561.312	1	4
561.482	1	8
561.652	1	5
561.822	1	-3
561.992	1	4
562.162	1	-1
562.331	1	-8
562.501	1	-1
562.671	1	6
562.841	1	-9
563.011	1	1
563.181	1	1
563.351	1	1
563.521	1	3
563.691	1	1
563.861	1	1
564.031	1	12
564.201	1	12
564.370	1	-4
564.540	1	5
564.710	1	9
564.880	1	13
565.050	1	3
565.220	1	9
565.390	1	8
565.560	1	7
565.730	1	-11
565.900	1	1
566.069	1	6
566.239	1	4
566.409	1	11
566.579	1	8
566.749	1	8
566.919	1	8
567.089	1	3
567.259	1	7
567.429	1	-1
567.599	1	4
567.768	1	9
567.938	1	0
568.108	1	5
568.278	1	7
568.448	1	4
568.618	1	1
568.788	1	-2
568.958	1	2
569.128	1	5
569.297	1	8
569.467	1	1
569.637	1	8
569.807	1	6
569.977	1	8
570.147	1	4
570.317	1	-1
570.487	1	4
570.656	1	11
570.826	1	-3
570.996	1	-2
571.166	1	12
571.336	1	4
571.506	1	11
571.676	1	5
571.846	1	9
572.015	1	4
572.185	1	0
572.355	1	3
572.525	1	3
572.695	1	2
572.865	1	-6
573.035	1	2
573.205	1	3
573.374	1	-10
573.544	1	-1
573.714	1	10
573.884	1	5
574.054	1	2
574.224	1	6
574.394	1	0
574.563	1	3
574.733	1	-3
574.903	1	-1
575.073	1	7
575.243	1	1
575.413	1	11
575.583	1	-6
575.752	1	12
575.922	1	5
576.092	1	11
576.262	1	4
576.432	1	7
576.602	1	-3
576.772	1	8
576.941	1	9
577.111	1	-2
577.281	1	-7
577.451	1	-4
577.621	1	6
577.791	1	11
577.960	1	-5
578.130	1	9
578.300	1	-1
578.470	1	7
578.640	1	8
578.810	1	5
578.979	1	10
579.149	1	-1
579.319	1	5
579.489	1	7
579.659	1	-4
579.829	1	10
579.998	1	5
580.168	1	17
580.338	1	11
580.508	1	-1
580.678	1	4
580.848	1	6
581.017	1	-1
581.187	1	0
581.357	1	-14
581.527	1	6
581.697	1	8
581.867	1	7
582.036	1	2
582.206	1	16
582.376	1	12
582.546	1	-5
582.716	1	-7
582.885	1	-9
583.055	1	2
583.225	1	-6
583.395	1	7
583.565	1	-2
583.735	1	11
583.904	1	7
584.074	1	13
584.244	1	12
584.414	1	-4
584.584	1	5
584.753	1	1
584.923	1	-1
585.093	1	-2
585.263	1	8
585.433	1	5
585.602	1	-6
585.772	1	-3
585.942	1	0
586.112	1	8
586.282	1	-3
586.451	1	3
586.621	1	-9
586.791	1	-2
586.961	1	2
587.131	1	3
587.300	1	-4
587.470	1	7
587.640	1	7
587.810	1	7
587.980	1	0
588.149	1	1
588.319	1	-5
588.489	1	-3
588.659	1	6
588.829	1	-4
588.998	1	12
589.168	1	6
589.338	1	3
589.508	1	7
589.677	1	-6
589.847	1	3
590.017	1	16
590.187	1	3
590.357	1	5
590.526	1	21
590.696	1	10
590.866	1	5
591.036	1	4
591.205	1	21
591.375	1	-7
591.545	1	-6
591.715	1	6
591.885	1	3
592.054	1	3
592.224	1	4
592.394	1	6
592.564	1	5
592.733	1	3
592.903	1	-6
593.073	1	2
593.243	1	7
593.412	1	0
593.582	1	4
593.752	1	2
593.922	1	3
594.091	1	0
594.261	1	-1
594.431	1	5
594.601	1	4
594.771	1	-1
594.940	1	-3
595.110	1	-9
595.280	1	4
595.450	1	12
595.619	1	2
595.789	1	5
595.959	1	2
596.129	1	7
596.298	1	3
596.468	1	6
596.638	1	18
596.808	1	8
596.977	1	3
597.147	1	4
597.317	1	-9
597.487	1	5
597.656	1	3
597.826	1	-4
597.996	1	11
598.166	1	-2
598.335	1	-7
598.505	1	3
598.675	1	1
598.844	1	0
599.014	1	0
599.184	1	11
599.354	1	0
599.523	1	3
599.693	1	-4
599.863	1	4
600.033	1	-4
600.202	1	2
600.372	1	5
600.542	1	7
600.712	1	-7
600.881	1	-2
601.051	1	21
601.221	1	0
601.390	1	-8
601.560	1	9
601.730	1	8
601.900	1	5
602.069	1	15
602.239	1	2
602.409	1	3
602.578	1	-10
602.748	1	5
602.918	1	-1
603.088	1	8
603.257	1	10
603.427	1	3
603.597	1	-1
603.767	1	5
603.936	1	1
604.106	1	12
604.276	1	-1
604.445	1	13
604.615	1	0
604.785	1	-2
604.954	1	2
605.124	1	-3
605.294	1	7
605.464	1	-3
605.633	1	2
605.803	1	-2
605.973	1	5
606.142	1	6
606.312	1	6
606.482	1	5
606.652	1	2
606.821	1	-1
606.991	1	-2
607.161	1	-8
607.330	1	5
607.500	1	7
607.670	1	0
607.839	1	11
608.009	1	16
608.179	1	16
608.348	1	-1
608.518	1	5
608.688	1	3
608.858	1	5
609.027	1	-8
609.197	1	6
609.367	1	4
609.536	1	1
609.706	1	8
609.876	1	-7
610.045	1	4
610.215	1	5
610.385	1	-1
610.554	1	7
610.724	1	5
610.894	1	-2
611.063	1	2
611.233	1	-1
611.403	1	6
611.572	1	-2
611.742	1	10
611.912	1	3
612.081	1	-2
612.251	1	9
612.421	1	-8
612.590	1	7
612.760	1	-2
612.930	1	-4
613.099	1	4
613.269	1	12
613.439	1	9
613.608	1	1
613.778	1	2
613.948	1	3
614.117	1	2
614.287	1	10
614.457	1	2
614.626	1	4
614.796	1	10
614.966	1	-3
615.135	1	10
615.305	1	13
615.475	1	0
615.644	1	3
615.814	1	5
615.984	1	0
616.153	1	4
616.323	1	-7
616.493	1	5
616.662	1	11
616.832	1	-7
617.002	1	-2
617.171	1	3
617.341	1	7
617.511	1	-7
617.680	1	-1
617.850	1	-2
618.019	1	12
618.189	1	16
618.359	1	1
618.528	1	2
618.698	1	-3
618.868	1	-5
619.037	1	1
619.207	1	-6
619.377	1	-2
619.546	1	-5
619.716	1	5
619.885	1	5
620.055	1	-4
620.225	1	2
620.394	1	-5
620.564	1	11
620.734	1	17
620.903	1	-8
621.073	1	9
621.242	1	-3
621.412	1	2
621.582	1	3
621.751	1	10
621.921	1	6
622.091	1	-7
622.260	1	2
622.430	1	19
622.599	1	-2
622.769	1	8
622.939	1	6
623.108	1	9
623.278	1	-1
623.448	1	6
623.617	1	-1
623.787	1	4
623.956	1	7
624.126	1	3
624.296	1	4
624.465	1	10
624.635	1	7
624.804	1	1
624.974	1	-5
625.144	1	7
625.313	1	-3
625.483	1	0
625.652	1	1
625.822	1	-1
625.992	1	0
626.161	1	8
626.331	1	-6
626.501	1	1
626.670	1	2
626.840	1	-3
627.009	1	0
627.179	1	7
627.348	1	17
627.518	1	1
627.688	1	6
627.857	1	2
628.027	1	-5
628.196	1	8
628.366	1	5
628.536	1	10
628.705	1	0
628.875	1	7
629.044	1	7
629.214	1	12
629.384	1	5
629.553	1	12
629.723	1	4
629.892	1	6
630.062	1	1
630.232	1	10
630.401	1	8
630.571	1	10
630.740	1	10
630.910	1	8
631.079	1	8
631.249	1	-1
631.419	1	11
631.588	1	-5
631.758	1	14
631.927	1	3
632.097	1	-1
632.266	1	5
632.436	1	-3
632.606	1	4
632.775	1	9
632.945	1	0
633.114	1	12
633.284	1	8
633.453	1	5
633.623	1	7
633.793	1	8
633.962	1	-2
634.132	1	7
634.301	1	3
634.471	1	13
634.640	1	2
634.810	1	10
634.979	1	14
635.149	1	8
635.319	1	7
635.488	1	5
635.658	1	4
635.827	1	-8
635.997	1	5
636.166	1	3
636.336	1	8
636.505	1	20
636.675	1	7
636.845	1	10
637.014	1	6
637.184	1	8
637.353	1	5
637.523	1	10
637.692	1	-6
637.862	1	5
638.031	1	8
638.201	1	10
638.370	1	4
638.540	1	5
638.710	1	4
638.879	1	-4
639.049	1	4
639.218	1	6
639.388	1	2
639.557	1	-1
639.727	1	8
639.896	1	7
640.066	1	12
640.235	1	7
640.405	1	5
640.574	1	2
640.744	1	6
640.914	1	5
641.083	1	0
641.253	1	-1
641.422	1	11
641.592	1	14
641.761	1	5
641.931	1	-1
642.100	1	8
642.270	1	-3
642.439	1	8
642.609	1	0
642.778	1	9
642.948	1	-2
643.117	1	18
643.287	1	4
643.456	1	10
643.626	1	5
643.795	1	3
643.965	1	2
644.134	1	-1
644.304	1	11
644.473	1	12
644.643	1	6
644.812	1	-1
644.982	1	0
645.151	1	6
645.321	1	1
645.490	1	7
645.660	1	0
645.829	1	-3
645.999	1	9
646.168	1	7
646.338	1	9
646.507	1	6
646.677	1	14
646.846	1	7
647.016	1	-3
647.185	1	2
647.355	1	-14
647.524	1	14
647.694	1	11
647.863	1	12
648.033	1	5
648.202	1	13
648.372	1	4
648.541	1	-2
648.711	1	12
648.880	1	-7
649.050	1	-5
649.219	1	-7
649.389	1	5
649.558	1	13
649.728	1	4
649.897	1	2
650.067	1	10
650.236	1	13
650.406	1	10
650.575	1	9
650.745	1	7
650.914	1	-1
651.084	1	-1
651.253	1	16
651.423	1	9
651.592	1	11
651.762	1	9
651.931	1	23
652.101	1	0
652.270	1	14
652.440	1	14
652.609	1	2
652.778	1	0
652.948	1	17
653.117	1	14
653.287	1	0
653.456	1	7
653.626	1	8
653.795	1	6
653.965	1	6
654.134	1	13
654.304	1	-5
654.473	1	5
654.643	1	10
654.812	1	13
654.982	1	-1
655.151	1	3
655.320	1	7
655.490	1	-10
655.659	1	6
655.829	1	2
655.998	1	5
656.168	1	6
656.337	1	10
656.507	1	1
656.676	1	10
656.846	1	16
657.015	1	-1
657.184	1	9
657.354	1	11
657.523	1	5
657.693	1	7
657.862	1	10
658.032	1	12
658.201	1	9
658.371	1	12
658.540	1	-3
658.709	1	-3
658.879	1	10
659.048	1	-1
659.218	1	10
659.387	1	4
659.557	1	10
659.726	1	5
659.895	1	1
660.065	1	4
660.234	1	5
660.404	1	12
660.573	1	4
660.743	1	6
660.912	1	12
661.081	1	21
661.251	1	7
661.420	1	4
661.590	1	8
661.759	1	8
661.929	1	16
662.098	1	16
662.267	1	8
662.437	1	7
662.606	1	8
662.776	1	11
662.945	1	10
663.115	1	8
663.284	1	-7
663.453	1	5
663.623	1	9
663.792	1	17
663.962	1	-1
664.131	1	12
664.300	1	16
664.470	1	8
664.639	1	11
664.809	1	10
664.978	1	17
665.148	1	7
665.317	1	0
665.486	1	9
665.656	1	1
665.825	1	11
665.995	1	2
666.164	1	0
666.333	1	9
666.503	1	7
666.672	1	3
666.842	1	4
667.011	1	-1
667.180	1	11
667.350	1	10
667.519	1	8
667.689	1	6
667.858	1	5
668.027	1	14
668.197	1	6
668.366	1	0
668.536	1	8
668.705	1	7
668.874	1	-2
669.044	1	4
669.213	1	9
669.382	1	-3
669.552	1	10
669.721	1	8
669.891	1	14
670.060	1	15
670.229	1	26
670.399	1	-1
670.568	1	22
670.738	1	17
670.907	1	-3
671.076	1	5
671.246	1	9
671.415	1	5
671.584	1	0
671.754	1	-2
671.923	1	7
672.093	1	1
672.262	1	-5
672.431	1	5
672.601	1	10
672.770	1	-1
672.939	1	17
673.109	1	-1
673.278	1	11
673.448	1	19
673.617	1	13
673.786	1	4
