325.333	1	4
325.504	1	3
325.675	1	-2
325.846	1	-2
326.017	1	-2
326.188	1	2
326.359	1	1
326.531	1	-13
326.702	1	-8
326.873	1	10
327.044	1	4
327.215	1	-4
327.386	1	3
327.557	1	-5
327.728	1	1
327.899	1	8
328.070	1	13
328.241	1	2
328.412	1	-7
328.583	1	11
328.754	1	0
328.926	1	3
329.097	1	-11
329.268	1	5
329.439	1	-4
329.610	1	6
329.781	1	-2
329.952	1	5
330.123	1	9
330.294	1	6
330.465	1	6
330.636	1	6
330.807	1	-8
330.978	1	-1
331.149	1	-5
331.320	1	0
331.492	1	2
331.663	1	2
331.834	1	15
332.005	1	11
332.176	1	15
332.347	1	10
332.518	1	-10
332.689	1	14
332.860	1	6
333.031	1	5
333.202	1	-15
333.373	1	2
333.544	1	-3
333.715	1	11
333.886	1	-3
334.057	1	6
334.228	1	6
334.399	1	4
334.570	1	8
334.741	1	0
334.912	1	6
335.084	1	11
335.255	1	7
335.426	1	4
335.597	1	6
335.768	1	-2
335.939	1	15
336.110	1	-6
336.281	1	4
336.452	1	0
336.623	1	3
336.794	1	2
336.965	1	-4
337.136	1	10
337.307	1	2
337.478	1	4
337.649	1	-1
337.820	1	5
337.991	1	-3
338.162	1	4
338.333	1	3
338.504	1	11
338.675	1	4
338.846	1	4
339.017	1	0
339.188	1	-6
339.359	1	-2
339.530	1	7
339.701	1	-1
339.872	1	10
340.043	1	-6
340.214	1	2
340.385	1	-1
340.556	1	-8
340.727	1	9
340.898	1	12
341.069	1	7
341.240	1	3
341.411	1	6
341.582	1	0
341.753	1	-3
341.924	1	1
342.095	1	7
342.266	1	9
342.437	1	7
342.608	1	6
342.779	1	10
342.950	1	6
343.121	1	9
343.292	1	1
343.463	1	2
343.634	1	-3
343.805	1	7
343.976	1	6
344.147	1	5
344.318	1	2
344.489	1	0
344.660	1	18
344.831	1	4
345.002	1	-7
345.173	1	7
345.344	1	6
345.515	1	4
345.686	1	1
345.857	1	10
346.028	1	14
346.199	1	4
346.370	1	3
346.541	1	10
346.712	1	0
346.883	1	5
347.054	1	4
347.225	1	4
347.396	1	3
347.567	1	-4
347.738	1	-1
347.909	1	20
348.080	1	-3
348.251	1	8
348.422	1	9
348.593	1	2
348.764	1	3
348.935	1	-5
349.106	1	-1
349.277	1	-1
349.448	1	3
349.619	1	7
349.790	1	7
349.961	1	15
350.132	1	9
350.303	1	15
350.474	1	13
350.645	1	2
350.816	1	2
350.987	1	15
351.157	1	-3
351.328	1	5
351.499	1	11
351.670	1	6
351.841	1	12
352.012	1	7
352.183	1	9
352.354	1	8
352.525	1	14
352.696	1	9
352.867	1	9
353.038	1	8
353.209	1	7
353.380	1	7
353.551	1	0
353.722	1	5
353.893	1	-3
354.064	1	10
354.235	1	10
354.406	1	-5
354.576	1	11
354.747	1	3
354.918	1	17
355.089	1	7
355.260	1	16
355.431	1	10
355.602	1	1
355.773	1	11
355.944	1	5
356.115	1	3
356.286	1	-3
356.457	1	14
356.628	1	11
356.799	1	-1
356.970	1	15
357.141	1	5
357.311	1	1
357.482	1	2
357.653	1	3
357.824	1	11
357.995	1	6
358.166	1	-1
358.337	1	1
358.508	1	3
358.679	1	12
358.850	1	6
359.021	1	0
359.192	1	4
359.363	1	5
359.533	1	5
359.704	1	12
359.875	1	4
360.046	1	8
360.217	1	-5
360.388	1	3
360.559	1	-1
360.730	1	11
360.901	1	5
361.072	1	20
361.243	1	8
361.414	1	0
361.584	1	3
361.755	1	2
361.926	1	11
362.097	1	11
362.268	1	6
362.439	1	3
362.610	1	14
362.781	1	6
362.952	1	-4
363.123	1	3
363.293	1	1
363.464	1	10
363.635	1	15
363.806	1	8
363.977	1	5
364.148	1	5
364.319	1	9
364.490	1	17
364.661	1	1
364.832	1	11
365.002	1	10
365.173	1	8
365.344	1	15
365.515	1	6
365.686	1	14
365.857	1	9
366.028	1	5
366.199	1	-1
366.370	1	4
366.540	1	7
366.711	1	-4
366.882	1	2
367.053	1	3
367.224	1	22
367.395	1	1
367.566	1	20
367.737	1	20
367.908	1	7
368.078	1	13
368.249	1	7
368.420	1	-1
368.591	1	6
368.762	1	11
368.933	1	16
369.104	1	-8
369.274	1	13
369.445	1	6
369.616	1	7
369.787	1	17
369.958	1	8
370.129	1	-8
370.300	1	18
370.471	1	5
370.641	1	10
370.812	1	6
370.983	1	6
371.154	1	6
371.325	1	13
371.496	1	10
371.667	1	11
371.837	1	5
372.008	1	-1
372.179	1	3
372.350	1	19
372.521	1	4
372.692	1	8
372.863	1	11
373.033	1	-9
373.204	1	-6
373.375	1	9
373.546	1	8
373.717	1	14
373.888	1	15
374.059	1	9
374.229	1	23
374.400	1	2
374.571	1	2
374.742	1	8
374.913	1	11
375.084	1	5
375.254	1	17
375.425	1	12
375.596	1	9
375.767	1	2
375.938	1	7
376.109	1	16
376.279	1	13
376.450	1	22
376.621	1	4
376.792	1	7
376.963	1	5
377.134	1	12
377.304	1	10
377.475	1	8
377.646	1	6
377.817	1	-1
377.988	1	9
378.159	1	13
378.329	1	9
378.500	1	0
378.671	1	6
378.842	1	16
379.013	1	6
379.184	1	4
379.354	1	15
379.525	1	7
379.696	1	14
379.867	1	18
380.038	1	5
380.209	1	5
380.379	1	-2
380.550	1	-1
380.721	1	15
380.892	1	11
381.063	1	15
381.233	1	11
381.404	1	8
381.575	1	18
381.746	1	11
381.917	1	10
382.087	1	6
382.258	1	1
382.429	1	6
382.600	1	25
382.771	1	13
382.941	1	8
383.112	1	5
383.283	1	8
383.454	1	15
383.625	1	9
383.795	1	9
383.966	1	10
384.137	1	22
384.308	1	10
384.479	1	8
384.649	1	13
384.820	1	4
384.991	1	9
385.162	1	4
385.333	1	6
385.503	1	-1
385.674	1	8
385.845	1	21
386.016	1	11
386.187	1	9
386.357	1	9
386.528	1	13
386.699	1	10
386.870	1	21
387.041	1	12
387.211	1	-2
387.382	1	12
387.553	1	17
387.724	1	12
387.894	1	15
388.065	1	4
388.236	1	14
388.407	1	7
388.578	1	7
388.748	1	4
388.919	1	19
389.090	1	12
389.261	1	10
389.431	1	12
389.602	1	16
389.773	1	22
389.944	1	6
390.114	1	11
390.285	1	13
390.456	1	6
390.627	1	3
390.798	1	11
390.968	1	18
391.139	1	18
391.310	1	7
391.481	1	23
391.651	1	18
391.822	1	5
391.993	1	6
392.164	1	4
392.334	1	10
392.505	1	17
392.676	1	15
392.847	1	21
393.017	1	18
393.188	1	23
393.359	1	3
393.530	1	14
393.700	1	5
393.871	1	9
394.042	1	15
394.213	1	16
394.383	1	11
394.554	1	17
394.725	1	20
394.896	1	7
395.066	1	16
395.237	1	9
395.408	1	9
395.579	1	4
395.749	1	8
395.920	1	3
396.091	1	13
396.262	1	14
396.432	1	14
396.603	1	21
396.774	1	23
396.945	1	11
397.115	1	12
397.286	1	13
397.457	1	8
397.627	1	8
397.798	1	17
397.969	1	9
398.140	1	6
398.310	1	5
398.481	1	21
398.652	1	15
398.823	1	10
398.993	1	1
399.164	1	6
399.335	1	23
399.505	1	3
399.676	1	1
399.847	1	14
400.018	1	10
400.188	1	11
400.359	1	24
400.530	1	17
400.700	1	11
400.871	1	11
401.042	1	10
401.213	1	2
401.383	1	13
401.554	1	21
401.725	1	21
401.895	1	0
402.066	1	18
402.237	1	20
402.408	1	14
402.578	1	9
402.749	1	12
402.920	1	16
403.090	1	-3
403.261	1	11
403.432	1	17
403.603	1	23
403.773	1	19
403.944	1	22
404.115	1	19
404.285	1	20
404.456	1	3
404.627	1	-4
404.797	1	9
404.968	1	17
405.139	1	10
405.310	1	26
405.480	1	9
405.651	1	11
405.822	1	15
405.992	1	8
406.163	1	7
406.334	1	7
406.504	1	9
406.675	1	12
406.846	1	19
407.016	1	21
407.187	1	11
407.358	1	13
407.528	1	12
407.699	1	6
407.870	1	-1
408.041	1	4
408.211	1	26
408.382	1	11
408.553	1	11
408.723	1	13
408.894	1	11
409.065	1	15
409.235	1	2
409.406	1	15
409.577	1	4
409.747	1	24
409.918	1	11
410.089	1	12
410.259	1	16
410.430	1	15
410.601	1	22
410.771	1	18
410.942	1	21
411.113	1	7
411.283	1	8
411.454	1	12
411.625	1	19
411.795	1	11
411.966	1	22
412.137	1	16
412.307	1	7
412.478	1	10
412.649	1	17
412.819	1	11
412.990	1	9
413.161	1	19
413.331	1	10
413.502	1	19
413.672	1	4
413.843	1	10
414.014	1	11
414.184	1	11
414.355	1	14
414.526	1	18
414.696	1	20
414.867	1	14
415.038	1	0
415.208	1	7
415.379	1	19
415.550	1	12
415.720	1	7
415.891	1	3
416.062	1	6
416.232	1	14
416.403	1	11
416.573	1	12
416.744	1	7
416.915	1	13
417.085	1	14
417.256	1	20
417.427	1	13
417.597	1	5
417.768	1	3
417.939	1	13
418.109	1	16
418.280	1	22
418.450	1	9
418.621	1	3
418.792	1	13
418.962	1	12
419.133	1	25
419.304	1	6
419.474	1	11
419.645	1	12
419.815	1	6
419.986	1	15
420.157	1	6
420.327	1	20
420.498	1	18
420.669	1	15
420.839	1	21
421.010	1	17
421.180	1	6
421.351	1	12
421.522	1	19
421.692	1	21
421.863	1	10
422.033	1	25
422.204	1	13
422.375	1	8
422.545	1	23
422.716	1	6
422.886	1	11
423.057	1	16
423.228	1	14
423.398	1	0
423.569	1	10
423.740	1	7
423.910	1	12
424.081	1	14
424.251	1	4
424.422	1	8
424.593	1	18
424.763	1	10
424.934	1	7
425.104	1	12
425.275	1	11
425.445	1	3
425.616	1	12
425.787	1	11
425.957	1	10
426.128	1	15
426.298	1	12
426.469	1	4
426.640	1	4
426.810	1	9
426.981	1	5
427.151	1	5
427.322	1	14
427.493	1	14
427.663	1	12
427.834	1	10
428.004	1	16
428.175	1	23
428.345	1	11
428.516	1	6
428.687	1	10
428.857	1	0
429.028	1	12
429.198	1	15
429.369	1	14
429.540	1	19
429.710	1	0
429.881	1	13
430.051	1	15
430.222	1	11
430.392	1	12
430.563	1	15
430.734	1	20
430.904	1	17
431.075	1	19
431.245	1	3
431.416	1	14
431.586	1	13
431.757	1	14
431.927	1	14
432.098	1	7
432.269	1	4
432.439	1	13
432.610	1	2
432.780	1	13
432.951	1	13
433.121	1	13
433.292	1	19
433.462	1	15
433.633	1	18
433.804	1	13
433.974	1	14
434.145	1	21
434.315	1	2
434.486	1	7
434.656	1	12
434.827	1	9
434.997	1	10
435.168	1	19
435.339	1	13
435.509	1	8
435.680	1	15
435.850	1	8
436.021	1	13
436.191	1	4
436.362	1	9
436.532	1	18
436.703	1	16
436.873	1	17
437.044	1	-4
437.214	1	9
437.385	1	15
437.556	1	1
437.726	1	22
437.897	1	25
438.067	1	10
438.238	1	10
438.408	1	16
438.579	1	7
438.749	1	11
438.920	1	10
439.090	1	6
439.261	1	2
439.431	1	6
439.602	1	5
439.772	1	7
439.943	1	15
440.113	1	16
440.284	1	8
440.455	1	11
440.625	1	17
440.796	1	18
440.966	1	8
441.137	1	11
441.307	1	3
441.478	1	12
441.648	1	16
441.819	1	14
441.989	1	14
442.160	1	14
442.330	1	11
442.501	1	12
442.671	1	7
442.842	1	-6
443.012	1	3
443.183	1	14
443.353	1	6
443.524	1	12
443.694	1	8
443.865	1	-2
444.035	1	18
444.206	1	11
444.376	1	12
444.547	1	21
444.717	1	11
444.888	1	4
445.058	1	15
445.229	1	15
445.399	1	1
445.570	1	15
445.740	1	4
445.911	1	8
446.081	1	14
446.252	1	12
446.422	1	7
446.593	1	2
446.763	1	11
446.934	1	4
447.104	1	6
447.275	1	9
447.445	1	17
447.616	1	4
447.786	1	7
447.957	1	6
448.127	1	9
448.298	1	7
448.468	1	13
448.639	1	5
448.809	1	15
448.979	1	7
449.150	1	19
449.320	1	11
449.491	1	18
449.661	1	7
449.832	1	-1
450.002	1	12
450.173	1	7
450.343	1	15
450.514	1	11
450.684	1	10
450.855	1	5
451.025	1	10
451.196	1	8
451.366	1	11
451.537	1	3
451.707	1	-2
451.878	1	4
452.048	1	12
452.218	1	12
452.389	1	14
452.559	1	8
452.730	1	12
452.900	1	17
453.071	1	-4
453.241	1	16
453.412	1	3
453.582	1	6
453.753	1	10
453.923	1	3
454.093	1	16
454.264	1	14
454.434	1	2
454.605	1	1
454.775	1	6
454.946	1	15
455.116	1	10
455.287	1	-4
455.457	1	10
455.628	1	5
455.798	1	13
455.968	1	8
456.139	1	11
456.309	1	6
456.480	1	3
456.650	1	3
456.821	1	4
456.991	1	17
457.161	1	6
457.332	1	11
457.502	1	1
457.673	1	12
457.843	1	13
458.014	1	6
458.184	1	7
458.355	1	0
458.525	1	7
458.695	1	17
458.866	1	11
459.036	1	9
459.207	1	9
459.377	1	2
459.548	1	14
459.718	1	2
459.888	1	20
460.059	1	9
460.229	1	21
460.400	1	15
460.570	1	4
460.740	1	4
460.911	1	9
461.081	1	15
461.252	1	6
461.422	1	6
461.593	1	-4
461.763	1	12
461.933	1	7
462.104	1	3
462.274	1	2
462.445	1	8
462.615	1	7
462.785	1	14
462.956	1	13
463.126	1	13
463.297	1	14
463.467	1	12
463.638	1	2
463.808	1	-1
463.978	1	2
464.149	1	-2
464.319	1	2
464.490	1	24
464.660	1	8
464.830	1	2
465.001	1	2
465.171	1	12
465.342	1	8
465.512	1	6
465.682	1	-4
465.853	1	10
466.023	1	10
466.194	1	-1
466.364	1	14
466.534	1	19
466.705	1	7
466.875	1	4
467.045	1	1
467.216	1	14
467.386	1	7
467.557	1	3
467.727	1	-3
467.897	1	8
468.068	1	13
468.238	1	10
468.409	1	4
468.579	1	5
468.749	1	11
468.920	1	-3
469.090	1	4
469.260	1	-1
469.431	1	-2
469.601	1	16
469.772	1	12
469.942	1	5
470.112	1	5
470.283	1	7
470.453	1	3
470.623	1	9
470.794	1	4
470.964	1	11
471.135	1	10
471.305	1	-1
471.475	1	11
471.646	1	1
471.816	1	8
471.986	1	-2
472.157	1	11
472.327	1	3
472.497	1	14
472.668	1	-5
472.838	1	3
473.009	1	3
473.179	1	-4
473.349	1	-10
473.520	1	14
473.690	1	7
473.860	1	0
474.031	1	5
474.201	1	7
474.371	1	15
474.542	1	12
474.712	1	10
474.882	1	1
475.053	1	13
475.223	1	3
475.394	1	4
475.564	1	4
475.734	1	10
475.905	1	15
476.075	1	8
476.245	1	13
476.416	1	16
476.586	1	14
476.756	1	9
476.927	1	2
477.097	1	4
477.267	1	-1
477.438	1	1
477.608	1	3
477.778	1	8
477.949	1	12
478.119	1	7
478.289	1	17
478.460	1	13
478.630	1	12
478.800	1	4
478.971	1	4
479.141	1	3
479.311	1	-3
479.482	1	7
479.652	1	3
479.822	1	9
479.993	1	10
480.163	1	11
480.333	1	8
480.504	1	9
480.674	1	3
480.844	1	-7
481.015	1	8
481.185	1	0
481.355	1	12
481.525	1	3
481.696	1	12
481.866	1	7
482.036	1	14
482.207	1	2
482.377	1	6
482.547	1	8
482.718	1	4
482.888	1	5
483.058	1	11
483.229	1	3
483.399	1	-2
483.569	1	4
483.740	1	18
483.910	1	10
484.080	1	-2
484.250	1	13
484.421	1	2
484.591	1	7
484.761	1	15
484.932	1	17
485.102	1	13
485.272	1	12
485.443	1	16
485.613	1	11
485.783	1	6
485.953	1	6
486.124	1	9
486.294	1	12
486.464	1	-2
486.635	1	5
486.805	1	11
486.975	1	11
487.146	1	8
487.316	1	10
487.486	1	3
487.656	1	1
487.827	1	5
487.997	1	-4
488.167	1	4
488.338	1	7
488.508	1	-1
488.678	1	-2
488.848	1	16
489.019	1	5
489.189	1	9
489.359	1	-4
489.529	1	8
489.700	1	4
489.870	1	15
490.040	1	-4
490.211	1	-5
490.381	1	11
490.551	1	6
490.721	1	13
490.892	1	3
491.062	1	12
491.232	1	12
491.402	1	1
491.573	1	0
491.743	1	7
491.913	1	7
492.084	1	15
492.254	1	2
492.424	1	-1
492.594	1	0
492.765	1	7
492.935	1	9
493.105	1	13
493.275	1	10
493.446	1	5
493.616	1	6
493.786	1	7
493.956	1	4
494.127	1	13
494.297	1	6
494.467	1	-3
494.637	1	9
494.808	1	-1
494.978	1	11
495.148	1	1
495.318	1	5
495.489	1	6
495.659	1	11
495.829	1	0
495.999	1	-8
496.170	1	10
496.340	1	13
496.510	1	2
496.680	1	6
496.851	1	6
497.021	1	4
497.191	1	-3
497.361	1	4
497.532	1	2
497.702	1	10
497.872	1	-1
498.042	1	9
498.213	1	0
498.383	1	1
498.553	1	2
498.723	1	3
498.894	1	11
499.064	1	6
499.234	1	11
499.404	1	4
499.574	1	15
499.745	1	13
499.915	1	2
500.085	1	3
500.255	1	13
500.426	1	2
500.596	1	13
500.766	1	7
500.936	1	2
501.106	1	0
501.277	1	9
501.447	1	4
501.617	1	10
501.787	1	7
501.958	1	5
502.128	1	5
502.298	1	4
502.468	1	2
502.638	1	9
502.809	1	9
502.979	1	1
503.149	1	-5
503.319	1	5
503.489	1	9
503.660	1	13
503.830	1	4
504.000	1	14
504.170	1	3
504.340	1	2
504.511	1	7
504.681	1	-1
504.851	1	7
505.021	1	1
505.192	1	-5
505.362	1	20
505.532	1	4
505.702	1	6
505.872	1	-4
506.043	1	4
506.213	1	-7
506.383	1	10
506.553	1	3
506.723	1	-1
506.893	1	2
507.064	1	23
507.234	1	2
507.404	1	-17
507.574	1	-6
507.744	1	7
507.915	1	-2
508.085	1	3
508.255	1	7
508.425	1	-3
508.595	1	9
508.766	1	5
508.936	1	-6
509.106	1	4
509.276	1	16
509.446	1	-3
509.616	1	6
509.787	1	4
509.957	1	8
510.127	1	5
510.297	1	4
510.467	1	-1
510.638	1	9
510.808	1	-5
510.978	1	-4
511.148	1	-1
511.318	1	-2
511.488	1	2
511.659	1	11
511.829	1	-12
511.999	1	8
512.169	1	8
512.339	1	-2
512.509	1	1
512.680	1	5
512.850	1	12
513.020	1	5
513.190	1	-3
513.360	1	-3
513.530	1	8
513.700	1	7
513.871	1	3
514.041	1	1
514.211	1	12
514.381	1	7
514.551	1	5
514.721	1	-2
514.892	1	9
515.062	1	10
515.232	1	9
515.402	1	-2
515.572	1	-6
515.742	1	7
515.912	1	11
516.083	1	1
516.253	1	8
516.423	1	9
516.593	1	-2
516.763	1	20
516.933	1	-3
517.104	1	6
517.274	1	-2
517.444	1	11
517.614	1	1
517.784	1	4
517.954	1	8
518.124	1	6
518.294	1	-2
518.465	1	0
518.635	1	4
518.805	1	-6
518.975	1	14
519.145	1	2
519.315	1	3
519.485	1	-5
519.656	1	12
519.826	1	2
519.996	1	-14
520.166	1	7
520.336	1	8
520.506	1	-4
520.676	1	-7
520.846	1	11
521.017	1	-2
521.187	1	2
521.357	1	9
521.527	1	-9
521.697	1	10
521.867	1	-2
522.037	1	5
522.207	1	7
522.377	1	4
522.548	1	8
522.718	1	9
522.888	1	8
523.058	1	3
523.228	1	8
523.398	1	0
523.568	1	12
523.738	1	1
523.909	1	4
524.079	1	-3
524.249	1	10
524.419	1	5
524.589	1	-1
524.759	1	0
524.929	1	2
525.099	1	3
525.269	1	3
525.439	1	-4
525.610	1	16
525.780	1	2
525.950	1	10
526.120	1	-2
526.290	1	0
526.460	1	-5
526.630	1	5
526.800	1	1
526.970	1	-2
527.140	1	12
527.311	1	-6
527.481	1	-2
527.651	1	6
527.821	1	-2
527.991	1	8
528.161	1	11
528.331	1	-2
528.501	1	3
528.671	1	-4
528.841	1	1
529.011	1	-1
529.181	1	6
529.352	1	5
529.522	1	-9
529.692	1	10
529.862	1	3
530.032	1	-1
530.202	1	1
530.372	1	6
530.542	1	-2
530.712	1	9
530.882	1	5
531.052	1	1
531.222	1	3
531.392	1	-1
531.563	1	10
531.733	1	-5
531.903	1	-2
532.073	1	5
532.243	1	3
532.413	1	8
532.583	1	9
532.753	1	9
532.923	1	-4
533.093	1	-5
533.263	1	-7
533.433	1	4
533.603	1	0
533.773	1	-8
533.943	1	2
534.113	1	4
534.284	1	-2
534.454	1	10
534.624	1	14
534.794	1	-4
534.964	1	6
535.134	1	-1
535.304	1	-1
535.474	1	14
535.644	1	-5
535.814	1	-2
535.984	1	-4
536.154	1	-14
536.324	1	4
536.494	1	5
536.664	1	6
536.834	1	3
537.004	1	2
537.174	1	9
537.344	1	-2
537.514	1	2
537.685	1	2
537.855	1	11
538.025	1	-1
538.195	1	1
538.365	1	3
538.535	1	8
538.705	1	4
538.875	1	7
539.045	1	2
539.215	1	4
539.385	1	15
539.555	1	8
539.725	1	-1
539.895	1	-6
540.065	1	8
540.235	1	4
540.405	1	-7
540.575	1	-1
540.745	1	2
540.915	1	16
541.085	1	8
541.255	1	-9
541.425	1	3
541.595	1	1
541.765	1	3
541.935	1	0
542.105	1	-6
542.275	1	-1
542.445	1	-1
542.615	1	8
542.785	1	9
542.955	1	-6
543.125	1	-2
543.295	1	3
543.465	1	2
543.635	1	1
543.805	1	12
543.975	1	3
544.145	1	10
544.315	1	1
544.485	1	13
544.655	1	-8
544.825	1	-2
544.995	1	4
545.165	1	0
545.335	1	2
545.505	1	-5
545.675	1	8
545.845	1	11
546.015	1	7
546.185	1	1
546.355	1	8
546.525	1	2
546.695	1	6
546.865	1	-5
547.035	1	10
547.205	1	-8
547.375	1	15
547.545	1	8
547.715	1	0
547.885	1	0
548.055	1	-3
548.225	1	7
548.395	1	-4
548.565	1	4
548.735	1	3
548.905	1	7
549.075	1	5
549.245	1	8
549.415	1	-7
549.585	1	3
549.755	1	8
549.925	1	-5
550.095	1	2
550.265	1	-10
550.435	1	-4
550.605	1	2
550.775	1	1
550.945	1	4
551.115	1	-2
551.285	1	8
551.455	1	-2
551.625	1	10
551.795	1	2
551.965	1	-2
552.135	1	-3
552.305	1	6
552.475	1	-5
552.645	1	-4
552.815	1	-1
552.985	1	0
553.155	1	2
553.325	1	10
553.495	1	-5
553.665	1	0
553.835	1	6
554.004	1	0
554.174	1	10
554.344	1	5
554.514	1	2
554.684	1	0
554.854	1	10
555.024	1	-3
555.194	1	-2
555.364	1	5
555.534	1	11
555.704	1	0
555.874	1	8
556.044	1	-6
556.214	1	-11
556.384	1	-1
556.554	1	19
556.724	1	5
556.894	1	3
557.064	1	-7
557.234	1	-15
557.404	1	0
557.573	1	8
557.743	1	4
557.913	1	-4
558.083	1	3
558.253	1	6
558.423	1	0
558.593	1	9
558.763	1	2
558.933	1	4
559.103	1	8
559.273	1	-3
559.443	1	5
559.613	1	4
559.783	1	-10
559.953	1	0
560.122	1	11
560.292	1	-5
560.462	1	-1
560.632	1	5
560.802	1	9
560.972	1	6
561.142	1	5
561.312	1	-3
561.482	1	12
561.652	1	5
561.822	1	0
561.992	1	-3
562.162	1	-5
562.331	1	3
562.501	1	-12
562.671	1	3
562.841	1	-7
563.011	1	10
563.181	1	1
563.351	1	2
563.521	1	4
563.691	1	-3
563.861	1	-2
564.031	1	8
564.201	1	20
564.370	1	-1
564.540	1	-3
564.710	1	-1
564.880	1	7
565.050	1	1
565.220	1	-3
565.390	1	10
565.560	1	3
565.730	1	-1
565.900	1	6
566.069	1	9
566.239	1	3
566.409	1	2
566.579	1	4
566.749	1	-1
566.919	1	9
567.089	1	-1
567.259	1	12
567.429	1	5
567.599	1	-1
567.768	1	10
567.938	1	0
568.108	1	0
568.278	1	-5
568.448	1	-1
568.618	1	-7
568.788	1	3
568.958	1	-2
569.128	1	7
569.297	1	-2
569.467	1	9
569.637	1	8
569.807	1	5
569.977	1	6
570.147	1	4
570.317	1	-3
570.487	1	2
570.656	1	10
570.826	1	-6
570.996	1	-5
571.166	1	7
571.336	1	2
571.506	1	17
571.676	1	6
571.846	1	7
572.015	1	2
572.185	1	2
572.355	1	16
572.525	1	5
572.695	1	13
572.865	1	0
573.035	1	2
573.205	1	4
573.374	1	-5
573.544	1	3
573.714	1	14
573.884	1	11
574.054	1	2
574.224	1	4
574.394	1	-4
574.563	1	-10
574.733	1	-5
574.903	1	-5
575.073	1	-1
575.243	1	-8
575.413	1	12
575.583	1	-1
575.752	1	-1
575.922	1	-1
576.092	1	-1
576.262	1	3
576.432	1	10
576.602	1	-2
576.772	1	8
576.941	1	9
577.111	1	4
577.281	1	-1
577.451	1	-6
577.621	1	8
577.791	1	15
577.960	1	-3
578.130	1	2
578.300	1	1
578.470	1	9
578.640	1	1
578.810	1	9
578.979	1	11
579.149	1	-1
579.319	1	-4
579.489	1	0
579.659	1	-1
579.829	1	-2
579.998	1	11
580.168	1	6
580.338	1	4
580.508	1	-2
580.678	1	6
580.848	1	-5
581.017	1	2
581.187	1	0
581.357	1	-18
581.527	1	7
581.697	1	3
581.867	1	7
582.036	1	0
582.206	1	1
582.376	1	9
582.546	1	0
582.716	1	1
582.885	1	-10
583.055	1	7
583.225	1	-18
583.395	1	1
583.565	1	-5
583.735	1	7
583.904	1	2
584.074	1	1
584.244	1	3
584.414	1	3
584.584	1	8
584.753	1	-5
584.923	1	-1
585.093	1	2
585.263	1	-2
585.433	1	12
585.602	1	-8
585.772	1	-2
585.942	1	-4
586.112	1	10
586.282	1	-1
586.451	1	3
586.621	1	-1
586.791	1	-3
586.961	1	4
587.131	1	0
587.300	1	-3
587.470	1	7
587.640	1	2
587.810	1	-3
587.980	1	1
588.149	1	0
588.319	1	-3
588.489	1	-1
588.659	1	2
588.829	1	4
588.998	1	10
589.168	1	6
589.338	1	2
589.508	1	1
589.677	1	-7
589.847	1	0
590.017	1	14
590.187	1	-7
590.357	1	7
590.526	1	15
590.696	1	2
590.866	1	6
591.036	1	-1
591.205	1	22
591.375	1	2
591.545	1	-5
591.715	1	8
591.885	1	-7
592.054	1	10
592.224	1	-1
592.394	1	4
592.564	1	9
592.733	1	5
592.903	1	-7
593.073	1	12
593.243	1	1
593.412	1	6
593.582	1	-2
593.752	1	-2
593.922	1	-4
594.091	1	7
594.261	1	-3
594.431	1	-3
594.601	1	8
594.771	1	10
594.940	1	-1
595.110	1	0
595.280	1	10
595.450	1	0
595.619	1	5
595.789	1	2
595.959	1	7
596.129	1	-2
596.298	1	-3
596.468	1	6
596.638	1	2
596.808	1	3
596.977	1	-5
597.147	1	2
597.317	1	-4
597.487	1	3
597.656	1	2
597.826	1	3
597.996	1	6
598.166	1	1
598.335	1	-9
598.505	1	-5
598.675	1	-3
598.844	1	9
599.014	1	-4
599.184	1	-1
599.354	1	0
599.523	1	8
599.693	1	-1
599.863	1	2
600.033	1	0
600.202	1	0
600.372	1	-4
600.542	1	3
600.712	1	-2
600.881	1	3
601.051	1	6
601.221	1	15
601.390	1	2
601.560	1	-2
601.730	1	9
601.900	1	14
602.069	1	8
602.239	1	-1
602.409	1	-11
602.578	1	4
602.748	1	0
602.918	1	3
603.088	1	0
603.257	1	3
603.427	1	-3
603.597	1	8
603.767	1	4
603.936	1	1
604.106	1	-5
604.276	1	-1
604.445	1	8
604.615	1	0
604.785	1	-5
604.954	1	-2
605.124	1	0
605.294	1	-3
605.464	1	1
605.633	1	1
605.803	1	4
605.973	1	-5
606.142	1	9
606.312	1	8
606.482	1	1
606.652	1	10
606.821	1	0
606.991	1	2
607.161	1	-3
607.330	1	-2
607.500	1	6
607.670	1	-9
607.839	1	6
608.009	1	9
608.179	1	-4
608.348	1	3
608.518	1	2
608.688	1	7
608.858	1	-2
609.027	1	-2
609.197	1	15
609.367	1	1
609.536	1	10
609.706	1	-8
609.876	1	4
610.045	1	-2
610.215	1	1
610.385	1	0
610.554	1	10
610.724	1	8
610.894	1	4
611.063	1	-2
611.233	1	2
611.403	1	4
611.572	1	-1
611.742	1	-3
611.912	1	7
612.081	1	-11
612.251	1	1
612.421	1	-9
612.590	1	2
612.760	1	-2
612.930	1	2
613.099	1	3
613.269	1	5
613.439	1	5
613.608	1	-2
613.778	1	9
613.948	1	-11
614.117	1	4
614.287	1	3
614.457	1	3
614.626	1	3
614.796	1	4
614.966	1	-4
615.135	1	0
615.305	1	13
615.475	1	0
615.644	1	-4
615.814	1	6
615.984	1	-1
616.153	1	-5
616.323	1	0
616.493	1	-2
616.662	1	15
616.832	1	-2
617.002	1	0
617.171	1	2
617.341	1	-1
617.511	1	-8
617.680	1	1
617.850	1	0
618.019	1	0
618.189	1	16
618.359	1	9
618.528	1	5
618.698	1	3
618.868	1	1
619.037	1	2
619.207	1	-5
619.377	1	-7
619.546	1	5
619.716	1	-2
619.885	1	11
620.055	1	-1
620.225	1	3
620.394	1	-7
620.564	1	3
620.734	1	7
620.903	1	-10
621.073	1	3
621.242	1	3
621.412	1	5
621.582	1	3
621.751	1	4
621.921	1	2
622.091	1	0
622.260	1	0
622.430	1	4
622.599	1	1
622.769	1	2
622.939	1	-3
623.108	1	10
623.278	1	-7
623.448	1	2
623.617	1	2
623.787	1	6
623.956	1	6
624.126	1	-4
624.296	1	-3
624.465	1	6
624.635	1	5
624.804	1	-2
624.974	1	3
625.144	1	13
625.313	1	-8
625.483	1	0
625.652	1	-1
625.822	1	-6
625.992	1	-2
626.161	1	11
626.331	1	3
626.501	1	-1
626.670	1	3
626.840	1	5
627.009	1	-6
627.179	1	6
627.348	1	6
627.518	1	4
627.688	1	0
627.857	1	11
628.027	1	-12
628.196	1	-1
628.366	1	5
628.536	1	3
628.705	1	1
628.875	1	3
629.044	1	-3
629.214	1	-1
629.384	1	5
629.553	1	1
629.723	1	-4
629.892	1	15
630.062	1	10
630.232	1	-1
630.401	1	8
630.571	1	5
630.740	1	1
630.910	1	5
631.079	1	1
631.249	1	1
631.419	1	10
631.588	1	-7
631.758	1	6
631.927	1	-3
632.097	1	2
632.266	1	-3
632.436	1	4
632.606	1	4
632.775	1	11
632.945	1	10
633.114	1	9
633.284	1	13
633.453	1	10
633.623	1	1
633.793	1	5
633.962	1	-2
634.132	1	2
634.301	1	-2
634.471	1	9
634.640	1	5
634.810	1	3
634.979	1	9
635.149	1	8
635.319	1	6
635.488	1	0
635.658	1	-6
635.827	1	-1
635.997	1	-1
636.166	1	-1
636.336	1	-8
636.505	1	4
636.675	1	-2
636.845	1	6
637.014	1	4
637.184	1	9
637.353	1	10
637.523	1	5
637.692	1	0
637.862	1	8
638.031	1	3
638.201	1	2
638.370	1	6
638.540	1	11
638.710	1	5
638.879	1	-11
639.049	1	-1
639.218	1	-1
639.388	1	-1
639.557	1	-5
639.727	1	10
639.896	1	3
640.066	1	1
640.235	1	3
640.405	1	13
640.574	1	2
640.744	1	-1
640.914	1	0
641.083	1	-2
641.253	1	-5
641.422	1	2
641.592	1	16
641.761	1	12
641.931	1	8
642.100	1	14
642.270	1	-4
642.439	1	6
642.609	1	8
642.778	1	1
642.948	1	1
643.117	1	17
643.287	1	-3
643.456	1	-9
643.626	1	9
643.795	1	0
643.965	1	2
644.134	1	2
644.304	1	7
644.473	1	8
644.643	1	-2
644.812	1	2
644.982	1	4
645.151	1	8
645.321	1	-4
645.490	1	10
645.660	1	-10
645.829	1	8
645.999	1	1
646.168	1	4
646.338	1	8
646.507	1	1
646.677	1	2
646.846	1	-2
647.016	1	-4
647.185	1	14
647.355	1	-8
647.524	1	2
647.694	1	12
647.863	1	0
648.033	1	2
648.202	1	1
648.372	1	-10
648.541	1	-2
648.711	1	-1
648.880	1	-3
649.050	1	-9
649.219	1	8
649.389	1	10
649.558	1	5
649.728	1	6
649.897	1	-8
650.067	1	-5
650.236	1	11
650.406	1	9
650.575	1	0
650.745	1	4
650.914	1	0
651.084	1	-7
651.253	1	4
651.423	1	2
651.592	1	9
651.762	1	-6
651.931	1	9
652.101	1	-2
652.270	1	7
652.440	1	9
652.609	1	-13
652.778	1	-7
652.948	1	4
653.117	1	0
653.287	1	9
653.456	1	4
653.626	1	2
653.795	1	3
653.965	1	3
654.134	1	9
654.304	1	-4
654.473	1	4
654.643	1	9
654.812	1	9
654.982	1	8
655.151	1	-8
655.320	1	-2
655.490	1	-3
655.659	1	5
655.829	1	2
655.998	1	1
656.168	1	1
656.337	1	7
656.507	1	3
656.676	1	9
656.846	1	10
657.015	1	-1
657.184	1	0
657.354	1	6
657.523	1	4
657.693	1	16
657.862	1	6
658.032	1	8
658.201	1	-5
658.371	1	8
658.540	1	6
658.709	1	2
658.879	1	9
659.048	1	-2
659.218	1	3
659.387	1	1
659.557	1	3
659.726	1	3
659.895	1	2
660.065	1	-7
660.234	1	2
660.404	1	1
660.573	1	-4
660.743	1	-4
660.912	1	-6
661.081	1	17
661.251	1	5
661.420	1	-1
661.590	1	1
661.759	1	11
661.929	1	4
662.098	1	10
662.267	1	1
662.437	1	2
662.606	1	1
662.776	1	11
662.945	1	-2
663.115	1	3
663.284	1	-8
663.453	1	9
663.623	1	-3
663.792	1	3
663.962	1	1
664.131	1	-4
664.300	1	17
664.470	1	1
664.639	1	-2
664.809	1	4
664.978	1	8
665.148	1	-9
665.317	1	4
665.486	1	17
665.656	1	-5
665.825	1	13
665.995	1	1
666.164	1	-7
666.333	1	6
666.503	1	1
666.672	1	-1
666.842	1	1
667.011	1	1
667.180	1	7
667.350	1	-4
667.519	1	10
667.689	1	2
667.858	1	5
668.027	1	12
668.197	1	-1
668.366	1	-11
668.536	1	3
668.705	1	2
668.874	1	-2
669.044	1	1
669.213	1	3
669.382	1	-6
669.552	1	10
669.721	1	3
669.891	1	15
670.060	1	9
670.229	1	17
670.399	1	-2
670.568	1	11
670.738	1	12
670.907	1	3
671.076	1	0
671.246	1	2
671.415	1	5
671.584	1	-1
671.754	1	-1
671.923	1	-2
672.093	1	8
672.262	1	-1
672.431	1	10
672.601	1	-12
672.770	1	4
672.939	1	11
673.109	1	16
673.278	1	2
673.448	1	6
673.617	1	8
673.786	1	2
