325.333	1	6
325.504	1	-1
325.675	1	15
325.846	1	0
326.017	1	4
326.188	1	12
326.359	1	4
326.531	1	-8
326.702	1	-4
326.873	1	11
327.044	1	-5
327.215	1	-5
327.386	1	4
327.557	1	-1
327.728	1	4
327.899	1	5
328.070	1	13
328.241	1	9
328.412	1	-6
328.583	1	-5
328.754	1	4
328.926	1	8
329.097	1	-2
329.268	1	11
329.439	1	0
329.610	1	8
329.781	1	-10
329.952	1	11
330.123	1	9
330.294	1	2
330.465	1	0
330.636	1	12
330.807	1	-4
330.978	1	5
331.149	1	-1
331.320	1	7
331.492	1	9
331.663	1	6
331.834	1	2
332.005	1	3
332.176	1	10
332.347	1	6
332.518	1	-2
332.689	1	6
332.860	1	2
333.031	1	14
333.202	1	5
333.373	1	5
333.544	1	7
333.715	1	10
333.886	1	3
334.057	1	12
334.228	1	-10
334.399	1	3
334.570	1	10
334.741	1	5
334.912	1	12
335.084	1	17
335.255	1	1
335.426	1	6
335.597	1	2
335.768	1	7
335.939	1	6
336.110	1	3
336.281	1	-3
336.452	1	2
336.623	1	-6
336.794	1	15
336.965	1	11
337.136	1	10
337.307	1	6
337.478	1	1
337.649	1	5
337.820	1	1
337.991	1	8
338.162	1	12
338.333	1	-1
338.504	1	11
338.675	1	10
338.846	1	20
339.017	1	8
339.188	1	3
339.359	1	-2
339.530	1	3
339.701	1	1
339.872	1	20
340.043	1	2
340.214	1	12
340.385	1	13
340.556	1	-3
340.727	1	16
340.898	1	12
341.069	1	8
341.240	1	6
341.411	1	6
341.582	1	2
341.753	1	4
341.924	1	10
342.095	1	8
342.266	1	3
342.437	1	14
342.608	1	1
342.779	1	13
342.950	1	12
343.121	1	12
343.292	1	4
343.463	1	3
343.634	1	3
343.805	1	13
343.976	1	14
344.147	1	4
344.318	1	2
344.489	1	6
344.660	1	17
344.831	1	7
345.002	1	4
345.173	1	14
345.344	1	14
345.515	1	15
345.686	1	-1
345.857	1	11
346.028	1	11
346.199	1	9
346.370	1	9
346.541	1	11
346.712	1	6
346.883	1	12
347.054	1	13
347.225	1	5
347.396	1	14
347.567	1	3
347.738	1	5
347.909	1	11
348.080	1	12
348.251	1	16
348.422	1	5
348.593	1	2
348.764	1	6
348.935	1	10
349.106	1	3
349.277	1	14
349.448	1	11
349.619	1	12
349.790	1	12
349.961	1	8
350.132	1	17
350.303	1	7
350.474	1	24
350.645	1	11
350.816	1	17
350.987	1	8
351.157	1	4
351.328	1	13
351.499	1	17
351.670	1	-4
351.841	1	12
352.012	1	15
352.183	1	8
352.354	1	25
352.525	1	17
352.696	1	20
352.867	1	4
353.038	1	21
353.209	1	20
353.380	1	12
353.551	1	7
353.722	1	11
353.893	1	8
354.064	1	27
354.235	1	11
354.406	1	7
354.576	1	1
354.747	1	4
354.918	1	9
355.089	1	15
355.260	1	23
355.431	1	16
355.602	1	5
355.773	1	19
355.944	1	6
356.115	1	13
356.286	1	25
356.457	1	17
356.628	1	6
356.799	1	8
356.970	1	18
357.141	1	11
357.311	1	15
357.482	1	13
357.653	1	15
357.824	1	19
357.995	1	25
358.166	1	-1
358.337	1	7
358.508	1	12
358.679	1	21
358.850	1	13
359.021	1	3
359.192	1	13
359.363	1	7
359.533	1	17
359.704	1	11
359.875	1	11
360.046	1	13
360.217	1	6
360.388	1	11
360.559	1	14
360.730	1	17
360.901	1	15
361.072	1	23
361.243	1	24
361.414	1	17
361.584	1	2
361.755	1	19
361.926	1	17
362.097	1	8
362.268	1	13
362.439	1	2
362.610	1	17
362.781	1	13
362.952	1	9
363.123	1	19
363.293	1	6
363.464	1	16
363.635	1	17
363.806	1	19
363.977	1	21
364.148	1	9
364.319	1	16
364.490	1	18
364.661	1	9
364.832	1	15
365.002	1	26
365.173	1	14
365.344	1	15
365.515	1	8
365.686	1	9
365.857	1	19
366.028	1	17
366.199	1	16
366.370	1	13
366.540	1	15
366.711	1	1
366.882	1	17
367.053	1	7
367.224	1	36
367.395	1	16
367.566	1	29
367.737	1	24
367.908	1	16
368.078	1	23
368.249	1	16
368.420	1	-1
368.591	1	6
368.762	1	12
368.933	1	18
369.104	1	9
369.274	1	14
369.445	1	10
369.616	1	21
369.787	1	22
369.958	1	15
370.129	1	6
370.300	1	17
370.471	1	5
370.641	1	14
370.812	1	28
370.983	1	18
371.154	1	12
371.325	1	24
371.496	1	19
371.667	1	21
371.837	1	7
372.008	1	18
372.179	1	10
372.350	1	23
372.521	1	19
372.692	1	13
372.863	1	17
373.033	1	-3
373.204	1	14
373.375	1	18
373.546	1	19
373.717	1	21
373.888	1	27
374.059	1	26
374.229	1	26
374.400	1	16
374.571	1	20
374.742	1	21
374.913	1	19
375.084	1	12
375.254	1	28
375.425	1	17
375.596	1	25
375.767	1	10
375.938	1	21
376.109	1	24
376.279	1	17
376.450	1	19
376.621	1	21
376.792	1	6
376.963	1	21
377.134	1	25
377.304	1	16
377.475	1	19
377.646	1	13
377.817	1	15
377.988	1	16
378.159	1	22
378.329	1	25
378.500	1	21
378.671	1	15
378.842	1	5
379.013	1	17
379.184	1	5
379.354	1	21
379.525	1	8
379.696	1	28
379.867	1	25
380.038	1	14
380.209	1	26
380.379	1	20
380.550	1	15
380.721	1	19
380.892	1	17
381.063	1	21
381.233	1	25
381.404	1	14
381.575	1	33
381.746	1	16
381.917	1	19
382.087	1	22
382.258	1	21
382.429	1	24
382.600	1	24
382.771	1	21
382.941	1	15
383.112	1	14
383.283	1	21
383.454	1	24
383.625	1	10
383.795	1	18
383.966	1	11
384.137	1	19
384.308	1	15
384.479	1	21
384.649	1	18
384.820	1	23
384.991	1	15
385.162	1	17
385.333	1	19
385.503	1	20
385.674	1	9
385.845	1	28
386.016	1	23
386.187	1	17
386.357	1	29
386.528	1	27
386.699	1	20
386.870	1	26
387.041	1	25
387.211	1	22
387.382	1	33
387.553	1	25
387.724	1	21
387.894	1	27
388.065	1	19
388.236	1	35
388.407	1	22
388.578	1	21
388.748	1	20
388.919	1	19
389.090	1	20
389.261	1	18
389.431	1	25
389.602	1	27
389.773	1	32
389.944	1	16
390.114	1	18
390.285	1	22
390.456	1	20
390.627	1	22
390.798	1	20
390.968	1	21
391.139	1	27
391.310	1	20
391.481	1	26
391.651	1	28
391.822	1	14
391.993	1	24
392.164	1	16
392.334	1	20
392.505	1	3
392.676	1	31
392.847	1	25
393.017	1	31
393.188	1	25
393.359	1	13
393.530	1	26
393.700	1	26
393.871	1	19
394.042	1	22
394.213	1	15
394.383	1	26
394.554	1	21
394.725	1	27
394.896	1	18
395.066	1	25
395.237	1	20
395.408	1	21
395.579	1	22
395.749	1	23
395.920	1	30
396.091	1	25
396.262	1	22
396.432	1	22
396.603	1	34
396.774	1	38
396.945	1	26
397.115	1	20
397.286	1	15
397.457	1	23
397.627	1	24
397.798	1	24
397.969	1	20
398.140	1	17
398.310	1	28
398.481	1	31
398.652	1	37
398.823	1	15
398.993	1	12
399.164	1	25
399.335	1	26
399.505	1	27
399.676	1	18
399.847	1	23
400.018	1	15
400.188	1	26
400.359	1	20
400.530	1	25
400.700	1	19
400.871	1	26
401.042	1	34
401.213	1	24
401.383	1	20
401.554	1	38
401.725	1	34
401.895	1	24
402.066	1	23
402.237	1	13
402.408	1	26
402.578	1	37
402.749	1	32
402.920	1	22
403.090	1	27
403.261	1	21
403.432	1	26
403.603	1	31
403.773	1	28
403.944	1	29
404.115	1	33
404.285	1	34
404.456	1	32
404.627	1	24
404.797	1	20
404.968	1	32
405.139	1	14
405.310	1	31
405.480	1	32
405.651	1	23
405.822	1	26
405.992	1	25
406.163	1	18
406.334	1	17
406.504	1	31
406.675	1	27
406.846	1	29
407.016	1	41
407.187	1	28
407.358	1	16
407.528	1	18
407.699	1	22
407.870	1	22
408.041	1	23
408.211	1	47
408.382	1	7
408.553	1	13
408.723	1	33
408.894	1	25
409.065	1	28
409.235	1	31
409.406	1	23
409.577	1	19
409.747	1	32
409.918	1	26
410.089	1	25
410.259	1	25
410.430	1	24
410.601	1	32
410.771	1	32
410.942	1	36
411.113	1	35
411.283	1	18
411.454	1	11
411.625	1	31
411.795	1	26
411.966	1	29
412.137	1	27
412.307	1	23
412.478	1	15
412.649	1	29
412.819	1	33
412.990	1	20
413.161	1	21
413.331	1	25
413.502	1	31
413.672	1	25
413.843	1	25
414.014	1	23
414.184	1	34
414.355	1	27
414.526	1	30
414.696	1	34
414.867	1	25
415.038	1	21
415.208	1	24
415.379	1	27
415.550	1	29
415.720	1	20
415.891	1	27
416.062	1	37
416.232	1	27
416.403	1	25
416.573	1	22
416.744	1	21
416.915	1	26
417.085	1	29
417.256	1	25
417.427	1	19
417.597	1	23
417.768	1	16
417.939	1	22
418.109	1	31
418.280	1	30
418.450	1	21
418.621	1	6
418.792	1	31
418.962	1	24
419.133	1	31
419.304	1	22
419.474	1	16
419.645	1	27
419.815	1	18
419.986	1	24
420.157	1	26
420.327	1	25
420.498	1	23
420.669	1	26
420.839	1	38
421.010	1	29
421.180	1	26
421.351	1	27
421.522	1	27
421.692	1	28
421.863	1	33
422.033	1	36
422.204	1	26
422.375	1	25
422.545	1	25
422.716	1	15
422.886	1	21
423.057	1	30
423.228	1	13
423.398	1	22
423.569	1	28
423.740	1	17
423.910	1	12
424.081	1	24
424.251	1	11
424.422	1	25
424.593	1	19
424.763	1	34
424.934	1	27
425.104	1	17
425.275	1	27
425.445	1	17
425.616	1	25
425.787	1	12
425.957	1	23
426.128	1	26
426.298	1	25
426.469	1	10
426.640	1	34
426.810	1	28
426.981	1	12
427.151	1	27
427.322	1	20
427.493	1	24
427.663	1	25
427.834	1	19
428.004	1	19
428.175	1	32
428.345	1	21
428.516	1	13
428.687	1	24
428.857	1	14
429.028	1	26
429.198	1	25
429.369	1	34
429.540	1	14
429.710	1	8
429.881	1	27
430.051	1	28
430.222	1	10
430.392	1	25
430.563	1	33
430.734	1	39
430.904	1	22
431.075	1	33
431.245	1	21
431.416	1	23
431.586	1	18
431.757	1	15
431.927	1	18
432.098	1	17
432.269	1	27
432.439	1	27
432.610	1	19
432.780	1	34
432.951	1	18
433.121	1	27
433.292	1	34
433.462	1	23
433.633	1	23
433.804	1	20
433.974	1	23
434.145	1	45
434.315	1	19
434.486	1	18
434.656	1	26
434.827	1	19
434.997	1	10
435.168	1	27
435.339	1	28
435.509	1	15
435.680	1	22
435.850	1	26
436.021	1	24
436.191	1	23
436.362	1	23
436.532	1	29
436.703	1	21
436.873	1	28
437.044	1	12
437.214	1	19
437.385	1	19
437.556	1	14
437.726	1	32
437.897	1	25
438.067	1	16
438.238	1	17
438.408	1	21
438.579	1	12
438.749	1	18
438.920	1	20
439.090	1	26
439.261	1	18
439.431	1	23
439.602	1	20
439.772	1	15
439.943	1	22
440.113	1	30
440.284	1	27
440.455	1	20
440.625	1	27
440.796	1	22
440.966	1	17
441.137	1	6
441.307	1	17
441.478	1	22
441.648	1	21
441.819	1	13
441.989	1	24
442.160	1	27
442.330	1	24
442.501	1	24
442.671	1	20
442.842	1	8
443.012	1	11
443.183	1	17
443.353	1	21
443.524	1	16
443.694	1	21
443.865	1	14
444.035	1	19
444.206	1	20
444.376	1	7
444.547	1	34
444.717	1	20
444.888	1	24
445.058	1	25
445.229	1	21
445.399	1	16
445.570	1	22
445.740	1	12
445.911	1	20
446.081	1	5
446.252	1	31
446.422	1	21
446.593	1	16
446.763	1	12
446.934	1	20
447.104	1	16
447.275	1	7
447.445	1	23
447.616	1	17
447.786	1	18
447.957	1	20
448.127	1	20
448.298	1	26
448.468	1	26
448.639	1	11
448.809	1	16
448.979	1	9
449.150	1	14
449.320	1	15
449.491	1	21
449.661	1	16
449.832	1	10
450.002	1	22
450.173	1	19
450.343	1	21
450.514	1	20
450.684	1	11
450.855	1	15
451.025	1	15
451.196	1	25
451.366	1	25
451.537	1	14
451.707	1	2
451.878	1	19
452.048	1	18
452.218	1	21
452.389	1	14
452.559	1	19
452.730	1	29
452.900	1	23
453.071	1	1
453.241	1	16
453.412	1	17
453.582	1	7
453.753	1	23
453.923	1	17
454.093	1	14
454.264	1	34
454.434	1	14
454.605	1	14
454.775	1	24
454.946	1	19
455.116	1	16
455.287	1	6
455.457	1	13
455.628	1	10
455.798	1	22
455.968	1	22
456.139	1	9
456.309	1	10
456.480	1	19
456.650	1	9
456.821	1	3
456.991	1	26
457.161	1	17
457.332	1	19
457.502	1	11
457.673	1	17
457.843	1	23
458.014	1	9
458.184	1	15
458.355	1	12
458.525	1	24
458.695	1	17
458.866	1	22
459.036	1	15
459.207	1	20
459.377	1	15
459.548	1	15
459.718	1	8
459.888	1	27
460.059	1	15
460.229	1	12
460.400	1	29
460.570	1	19
460.740	1	21
460.911	1	14
461.081	1	19
461.252	1	12
461.422	1	12
461.593	1	15
461.763	1	19
461.933	1	23
462.104	1	9
462.274	1	16
462.445	1	17
462.615	1	16
462.785	1	14
462.956	1	21
463.126	1	21
463.297	1	17
463.467	1	11
463.638	1	19
463.808	1	6
463.978	1	6
464.149	1	12
464.319	1	12
464.490	1	27
464.660	1	13
464.830	1	13
465.001	1	12
465.171	1	18
465.342	1	21
465.512	1	2
465.682	1	13
465.853	1	27
466.023	1	16
466.194	1	13
466.364	1	23
466.534	1	10
466.705	1	17
466.875	1	15
467.045	1	9
467.216	1	27
467.386	1	11
467.557	1	11
467.727	1	7
467.897	1	16
468.068	1	3
468.238	1	11
468.409	1	12
468.579	1	16
468.749	1	7
468.920	1	8
469.090	1	17
469.260	1	11
469.431	1	7
469.601	1	22
469.772	1	13
469.942	1	1
470.112	1	13
470.283	1	4
470.453	1	12
470.623	1	5
470.794	1	10
470.964	1	18
471.135	1	9
471.305	1	6
471.475	1	16
471.646	1	2
471.816	1	15
471.986	1	8
472.157	1	19
472.327	1	2
472.497	1	7
472.668	1	14
472.838	1	11
473.009	1	21
473.179	1	11
473.349	1	0
473.520	1	12
473.690	1	12
473.860	1	11
474.031	1	12
474.201	1	8
474.371	1	21
474.542	1	18
474.712	1	14
474.882	1	13
475.053	1	26
475.223	1	6
475.394	1	15
475.564	1	7
475.734	1	18
475.905	1	20
476.075	1	8
476.245	1	12
476.416	1	22
476.586	1	16
476.756	1	11
476.927	1	18
477.097	1	16
477.267	1	4
477.438	1	7
477.608	1	11
477.778	1	9
477.949	1	12
478.119	1	16
478.289	1	16
478.460	1	23
478.630	1	7
478.800	1	13
478.971	1	14
479.141	1	9
479.311	1	8
479.482	1	8
479.652	1	6
479.822	1	15
479.993	1	13
480.163	1	15
480.333	1	14
480.504	1	19
480.674	1	10
480.844	1	6
481.015	1	19
481.185	1	7
481.355	1	12
481.525	1	1
481.696	1	6
481.866	1	14
482.036	1	9
482.207	1	6
482.377	1	9
482.547	1	15
482.718	1	6
482.888	1	18
483.058	1	8
483.229	1	11
483.399	1	6
483.569	1	7
483.740	1	21
483.910	1	13
484.080	1	5
484.250	1	9
484.421	1	15
484.591	1	10
484.761	1	20
484.932	1	17
485.102	1	20
485.272	1	10
485.443	1	21
485.613	1	5
485.783	1	1
485.953	1	4
486.124	1	9
486.294	1	16
486.464	1	3
486.635	1	9
486.805	1	11
486.975	1	10
487.146	1	14
487.316	1	10
487.486	1	13
487.656	1	-1
487.827	1	3
487.997	1	-2
488.167	1	16
488.338	1	10
488.508	1	6
488.678	1	6
488.848	1	12
489.019	1	10
489.189	1	8
489.359	1	8
489.529	1	7
489.700	1	15
489.870	1	19
490.040	1	0
490.211	1	1
490.381	1	14
490.551	1	6
490.721	1	18
490.892	1	10
491.062	1	9
491.232	1	9
491.402	1	2
491.573	1	-6
491.743	1	4
491.913	1	10
492.084	1	17
492.254	1	7
492.424	1	4
492.594	1	6
492.765	1	13
492.935	1	14
493.105	1	8
493.275	1	13
493.446	1	20
493.616	1	9
493.786	1	10
493.956	1	14
494.127	1	5
494.297	1	7
494.467	1	8
494.637	1	15
494.808	1	8
494.978	1	6
495.148	1	13
495.318	1	2
495.489	1	12
495.659	1	17
495.829	1	1
495.999	1	5
496.170	1	14
496.340	1	13
496.510	1	18
496.680	1	7
496.851	1	4
497.021	1	2
497.191	1	-4
497.361	1	0
497.532	1	4
497.702	1	10
497.872	1	2
498.042	1	9
498.213	1	5
498.383	1	5
498.553	1	5
498.723	1	1
498.894	1	5
499.064	1	5
499.234	1	13
499.404	1	12
499.574	1	9
499.745	1	15
499.915	1	2
500.085	1	13
500.255	1	20
500.426	1	10
500.596	1	13
500.766	1	6
500.936	1	-6
501.106	1	5
501.277	1	8
501.447	1	11
501.617	1	3
501.787	1	5
501.958	1	-7
502.128	1	3
502.298	1	10
502.468	1	6
502.638	1	3
502.809	1	9
502.979	1	-4
503.149	1	4
503.319	1	-1
503.489	1	8
503.660	1	11
503.830	1	4
504.000	1	8
504.170	1	-3
504.340	1	2
504.511	1	15
504.681	1	3
504.851	1	6
505.021	1	11
505.192	1	3
505.362	1	11
505.532	1	-5
505.702	1	7
505.872	1	13
506.043	1	8
506.213	1	-7
506.383	1	10
506.553	1	11
506.723	1	13
506.893	1	15
507.064	1	10
507.234	1	-4
507.404	1	2
507.574	1	9
507.744	1	5
507.915	1	6
508.085	1	16
508.255	1	17
508.425	1	3
508.595	1	17
508.766	1	21
508.936	1	-8
509.106	1	7
509.276	1	9
509.446	1	0
509.616	1	2
509.787	1	5
509.957	1	8
510.127	1	8
510.297	1	4
510.467	1	8
510.638	1	3
510.808	1	-2
510.978	1	2
511.148	1	10
511.318	1	7
511.488	1	-6
511.659	1	10
511.829	1	4
511.999	1	13
512.169	1	4
512.339	1	3
512.509	1	2
512.680	1	-2
512.850	1	6
513.020	1	4
513.190	1	11
513.360	1	4
513.530	1	-1
513.700	1	14
513.871	1	9
514.041	1	1
514.211	1	12
514.381	1	10
514.551	1	8
514.721	1	-4
514.892	1	8
515.062	1	4
515.232	1	6
515.402	1	2
515.572	1	-1
515.742	1	5
515.912	1	5
516.083	1	14
516.253	1	3
516.423	1	6
516.593	1	-7
516.763	1	18
516.933	1	4
517.104	1	5
517.274	1	9
517.444	1	6
517.614	1	-2
517.784	1	2
517.954	1	6
518.124	1	2
518.294	1	8
518.465	1	-5
518.635	1	8
518.805	1	-3
518.975	1	3
519.145	1	-3
519.315	1	3
519.485	1	3
519.656	1	14
519.826	1	0
519.996	1	-2
520.166	1	4
520.336	1	11
520.506	1	-2
520.676	1	-1
520.846	1	4
521.017	1	6
521.187	1	-4
521.357	1	16
521.527	1	-3
521.697	1	9
521.867	1	1
522.037	1	14
522.207	1	13
522.377	1	7
522.548	1	1
522.718	1	-1
522.888	1	19
523.058	1	-6
523.228	1	13
523.398	1	2
523.568	1	9
523.738	1	2
523.909	1	22
524.079	1	2
524.249	1	5
524.419	1	4
524.589	1	5
524.759	1	1
524.929	1	-5
525.099	1	4
525.269	1	6
525.439	1	-2
525.610	1	19
525.780	1	1
525.950	1	0
526.120	1	3
526.290	1	7
526.460	1	6
526.630	1	16
526.800	1	-1
526.970	1	-3
527.140	1	11
527.311	1	0
527.481	1	-6
527.651	1	11
527.821	1	-1
527.991	1	13
528.161	1	20
528.331	1	-3
528.501	1	10
528.671	1	-10
528.841	1	6
529.011	1	-4
529.181	1	5
529.352	1	7
529.522	1	3
529.692	1	4
529.862	1	4
530.032	1	10
530.202	1	4
530.372	1	5
530.542	1	7
530.712	1	3
530.882	1	3
531.052	1	13
531.222	1	9
531.392	1	0
531.563	1	9
531.733	1	1
531.903	1	4
532.073	1	7
532.243	1	-4
532.413	1	4
532.583	1	1
532.753	1	10
532.923	1	0
533.093	1	7
533.263	1	10
533.433	1	7
533.603	1	6
533.773	1	0
533.943	1	6
534.113	1	4
534.284	1	5
534.454	1	9
534.624	1	10
534.794	1	-2
534.964	1	2
535.134	1	8
535.304	1	-3
535.474	1	20
535.644	1	0
535.814	1	-10
535.984	1	-8
536.154	1	0
536.324	1	-3
536.494	1	5
536.664	1	6
536.834	1	4
537.004	1	5
537.174	1	13
537.344	1	6
537.514	1	-2
537.685	1	8
537.855	1	5
538.025	1	8
538.195	1	-1
538.365	1	13
538.535	1	1
538.705	1	-1
538.875	1	7
539.045	1	9
539.215	1	5
539.385	1	4
539.555	1	4
539.725	1	-1
539.895	1	-7
540.065	1	11
540.235	1	2
540.405	1	0
540.575	1	10
540.745	1	8
540.915	1	16
541.085	1	9
541.255	1	5
541.425	1	-1
541.595	1	0
541.765	1	-1
541.935	1	1
542.105	1	-6
542.275	1	2
542.445	1	-5
542.615	1	3
542.785	1	10
542.955	1	2
543.125	1	4
543.295	1	9
543.465	1	-1
543.635	1	1
543.805	1	23
543.975	1	-3
544.145	1	7
544.315	1	6
544.485	1	14
544.655	1	4
544.825	1	-11
544.995	1	2
545.165	1	-1
545.335	1	7
545.505	1	-4
545.675	1	5
545.845	1	12
546.015	1	9
546.185	1	5
546.355	1	-6
546.525	1	8
546.695	1	9
546.865	1	-1
547.035	1	7
547.205	1	-2
547.375	1	9
547.545	1	7
547.715	1	3
547.885	1	6
548.055	1	-5
548.225	1	3
548.395	1	-2
548.565	1	6
548.735	1	5
548.905	1	7
549.075	1	1
549.245	1	2
549.415	1	-11
549.585	1	13
549.755	1	1
549.925	1	-6
550.095	1	5
550.265	1	1
550.435	1	3
550.605	1	-1
550.775	1	15
550.945	1	8
551.115	1	3
551.285	1	-4
551.455	1	-4
551.625	1	3
551.795	1	4
551.965	1	-5
552.135	1	4
552.305	1	7
552.475	1	-8
552.645	1	10
552.815	1	1
552.985	1	8
553.155	1	-1
553.325	1	6
553.495	1	0
553.665	1	-10
553.835	1	9
554.004	1	13
554.174	1	2
554.344	1	8
554.514	1	-1
554.684	1	4
554.854	1	5
555.024	1	-2
555.194	1	-6
555.364	1	7
555.534	1	2
555.704	1	1
555.874	1	11
556.044	1	7
556.214	1	-5
556.384	1	0
556.554	1	6
556.724	1	4
556.894	1	0
557.064	1	9
557.234	1	-1
557.404	1	7
557.573	1	7
557.743	1	1
557.913	1	-5
558.083	1	-3
558.253	1	-1
558.423	1	4
558.593	1	10
558.763	1	-3
558.933	1	-4
559.103	1	7
559.273	1	-3
559.443	1	-6
559.613	1	8
559.783	1	-6
559.953	1	1
560.122	1	20
560.292	1	4
560.462	1	5
560.632	1	6
560.802	1	4
560.972	1	9
561.142	1	2
561.312	1	-1
561.482	1	12
561.652	1	4
561.822	1	-1
561.992	1	-1
562.162	1	-1
562.331	1	3
562.501	1	-14
562.671	1	9
562.841	1	-7
563.011	1	5
563.181	1	8
563.351	1	-3
563.521	1	9
563.691	1	-6
563.861	1	3
564.031	1	24
564.201	1	14
564.370	1	-8
564.540	1	3
564.710	1	-4
564.880	1	11
565.050	1	6
565.220	1	-5
565.390	1	10
565.560	1	5
565.730	1	0
565.900	1	1
566.069	1	13
566.239	1	1
566.409	1	17
566.579	1	4
566.749	1	2
566.919	1	14
567.089	1	11
567.259	1	5
567.429	1	-2
567.599	1	2
567.768	1	5
567.938	1	4
568.108	1	-1
568.278	1	-2
568.448	1	-6
568.618	1	-1
568.788	1	12
568.958	1	-2
569.128	1	13
569.297	1	-2
569.467	1	-1
569.637	1	10
569.807	1	-3
569.977	1	12
570.147	1	6
570.317	1	-7
570.487	1	3
570.656	1	9
570.826	1	-3
570.996	1	-9
571.166	1	10
571.336	1	11
571.506	1	12
571.676	1	6
571.846	1	13
572.015	1	0
572.185	1	-8
572.355	1	7
572.525	1	5
572.695	1	-8
572.865	1	-5
573.035	1	5
573.205	1	6
573.374	1	-3
573.544	1	0
573.714	1	16
573.884	1	8
574.054	1	6
574.224	1	3
574.394	1	6
574.563	1	4
574.733	1	-3
574.903	1	-7
575.073	1	-1
575.243	1	4
575.413	1	7
575.583	1	-2
575.752	1	8
575.922	1	5
576.092	1	8
576.262	1	7
576.432	1	7
576.602	1	3
576.772	1	17
576.941	1	3
577.111	1	-4
577.281	1	-5
577.451	1	-4
577.621	1	9
577.791	1	7
577.960	1	3
578.130	1	1
578.300	1	2
578.470	1	5
578.640	1	0
578.810	1	2
578.979	1	-2
579.149	1	0
579.319	1	-3
579.489	1	-4
579.659	1	5
579.829	1	8
579.998	1	12
580.168	1	11
580.338	1	-4
580.508	1	-2
580.678	1	8
580.848	1	1
581.017	1	2
581.187	1	3
581.357	1	-2
581.527	1	8
581.697	1	8
581.867	1	13
582.036	1	0
582.206	1	-4
582.376	1	11
582.546	1	1
582.716	1	-5
582.885	1	-4
583.055	1	-3
583.225	1	-2
583.395	1	1
583.565	1	-1
583.735	1	10
583.904	1	3
584.074	1	6
584.244	1	10
584.414	1	-2
584.584	1	5
584.753	1	1
584.923	1	7
585.093	1	-2
585.263	1	-6
585.433	1	0
585.602	1	-1
585.772	1	-9
585.942	1	2
586.112	1	-4
586.282	1	3
586.451	1	-2
586.621	1	-9
586.791	1	-1
586.961	1	0
587.131	1	-2
587.300	1	-7
587.470	1	6
587.640	1	9
587.810	1	-3
587.980	1	0
588.149	1	5
588.319	1	7
588.489	1	3
588.659	1	-3
588.829	1	9
588.998	1	6
589.168	1	7
589.338	1	-1
589.508	1	9
589.677	1	-7
589.847	1	-3
590.017	1	16
590.187	1	3
590.357	1	6
590.526	1	5
590.696	1	14
590.866	1	15
591.036	1	0
591.205	1	9
591.375	1	-1
591.545	1	-1
591.715	1	4
591.885	1	-3
592.054	1	1
592.224	1	5
592.394	1	1
592.564	1	3
592.733	1	7
592.903	1	6
593.073	1	3
593.243	1	6
593.412	1	4
593.582	1	6
593.752	1	5
593.922	1	4
594.091	1	-2
594.261	1	-9
594.431	1	10
594.601	1	7
594.771	1	9
594.940	1	-3
595.110	1	3
595.280	1	5
595.450	1	5
595.619	1	7
595.789	1	5
595.959	1	0
596.129	1	-4
596.298	1	-1
596.468	1	6
596.638	1	7
596.808	1	-5
596.977	1	1
597.147	1	2
597.317	1	-1
597.487	1	5
597.656	1	12
597.826	1	3
597.996	1	-3
598.166	1	-4
598.335	1	-9
598.505	1	-2
598.675	1	3
598.844	1	9
599.014	1	2
599.184	1	5
599.354	1	-9
599.523	1	12
599.693	1	-2
599.863	1	11
600.033	1	2
600.202	1	-1
600.372	1	6
600.542	1	7
600.712	1	-9
600.881	1	-1
601.051	1	13
601.221	1	1
601.390	1	-5
601.560	1	9
601.730	1	6
601.900	1	12
602.069	1	10
602.239	1	-5
602.409	1	4
602.578	1	1
602.748	1	2
602.918	1	5
603.088	1	14
603.257	1	1
603.427	1	-10
603.597	1	3
603.767	1	4
603.936	1	7
604.106	1	11
604.276	1	4
604.445	1	6
604.615	1	-1
604.785	1	-2
604.954	1	3
605.124	1	7
605.294	1	0
605.464	1	-6
605.633	1	12
605.803	1	3
605.973	1	4
606.142	1	2
606.312	1	9
606.482	1	-3
606.652	1	12
606.821	1	-3
606.991	1	2
607.161	1	0
607.330	1	11
607.500	1	5
607.670	1	6
607.839	1	9
608.009	1	16
608.179	1	4
608.348	1	3
608.518	1	3
608.688	1	7
608.858	1	-1
609.027	1	-4
609.197	1	7
609.367	1	5
609.536	1	8
609.706	1	4
609.876	1	5
610.045	1	1
610.215	1	2
610.385	1	0
610.554	1	9
610.724	1	10
610.894	1	2
611.063	1	6
611.233	1	-2
611.403	1	5
611.572	1	-8
611.742	1	2
611.912	1	4
612.081	1	-5
612.251	1	17
612.421	1	-2
612.590	1	3
612.760	1	-7
612.930	1	5
613.099	1	0
613.269	1	6
613.439	1	5
613.608	1	3
613.778	1	7
613.948	1	9
614.117	1	10
614.287	1	10
614.457	1	8
614.626	1	-2
614.796	1	2
614.966	1	2
615.135	1	6
615.305	1	12
615.475	1	-5
615.644	1	9
615.814	1	5
615.984	1	-1
616.153	1	-8
616.323	1	4
616.493	1	4
616.662	1	0
616.832	1	2
617.002	1	10
617.171	1	3
617.341	1	8
617.511	1	-4
617.680	1	-2
617.850	1	2
618.019	1	8
618.189	1	9
618.359	1	10
618.528	1	5
618.698	1	6
618.868	1	4
619.037	1	2
619.207	1	-1
619.377	1	-6
619.546	1	-6
619.716	1	1
619.885	1	2
620.055	1	-1
620.225	1	7
620.394	1	4
620.564	1	4
620.734	1	5
620.903	1	0
621.073	1	3
621.242	1	1
621.412	1	2
621.582	1	-1
621.751	1	8
621.921	1	9
622.091	1	-1
622.260	1	5
622.430	1	8
622.599	1	3
622.769	1	8
622.939	1	1
623.108	1	0
623.278	1	-9
623.448	1	1
623.617	1	3
623.787	1	4
623.956	1	8
624.126	1	-3
624.296	1	6
624.465	1	2
624.635	1	13
624.804	1	1
624.974	1	-4
625.144	1	12
625.313	1	2
625.483	1	-7
625.652	1	3
625.822	1	-5
625.992	1	1
626.161	1	10
626.331	1	6
626.501	1	4
626.670	1	9
626.840	1	1
627.009	1	-1
627.179	1	5
627.348	1	13
627.518	1	4
627.688	1	2
627.857	1	8
628.027	1	-3
628.196	1	11
628.366	1	14
628.536	1	10
628.705	1	0
628.875	1	-3
629.044	1	-3
629.214	1	7
629.384	1	0
629.553	1	9
629.723	1	11
629.892	1	-3
630.062	1	8
630.232	1	3
630.401	1	7
630.571	1	0
630.740	1	4
630.910	1	13
631.079	1	8
631.249	1	7
631.419	1	6
631.588	1	-12
631.758	1	6
631.927	1	1
632.097	1	8
632.266	1	0
632.436	1	2
632.606	1	-9
632.775	1	2
632.945	1	-2
633.114	1	11
633.284	1	14
633.453	1	-6
633.623	1	0
633.793	1	5
633.962	1	3
634.132	1	7
634.301	1	1
634.471	1	10
634.640	1	14
634.810	1	2
634.979	1	4
635.149	1	14
635.319	1	5
635.488	1	6
635.658	1	-3
635.827	1	-2
635.997	1	1
636.166	1	7
636.336	1	-9
636.505	1	1
636.675	1	-4
636.845	1	9
637.014	1	0
637.184	1	14
637.353	1	1
637.523	1	3
637.692	1	0
637.862	1	2
638.031	1	6
638.201	1	12
638.370	1	1
638.540	1	10
638.710	1	1
638.879	1	-4
639.049	1	2
639.218	1	5
639.388	1	-10
639.557	1	4
639.727	1	1
639.896	1	8
640.066	1	2
640.235	1	5
640.405	1	0
640.574	1	5
640.744	1	-2
640.914	1	2
641.083	1	8
641.253	1	4
641.422	1	9
641.592	1	13
641.761	1	-2
641.931	1	-3
642.100	1	14
642.270	1	-2
642.439	1	0
642.609	1	4
642.778	1	0
642.948	1	2
643.117	1	17
643.287	1	1
643.456	1	5
643.626	1	10
643.795	1	6
643.965	1	10
644.134	1	2
644.304	1	10
644.473	1	1
644.643	1	4
644.812	1	10
644.982	1	14
645.151	1	1
645.321	1	-2
645.490	1	6
645.660	1	1
645.829	1	1
645.999	1	9
646.168	1	3
646.338	1	9
646.507	1	-1
646.677	1	9
646.846	1	-1
647.016	1	-2
647.185	1	11
647.355	1	-1
647.524	1	5
647.694	1	8
647.863	1	5
648.033	1	14
648.202	1	9
648.372	1	2
648.541	1	-10
648.711	1	2
648.880	1	-12
649.050	1	2
649.219	1	4
649.389	1	11
649.558	1	5
649.728	1	1
649.897	1	1
650.067	1	2
650.236	1	2
650.406	1	3
650.575	1	6
650.745	1	4
650.914	1	6
651.084	1	-2
651.253	1	11
651.423	1	1
651.592	1	3
651.762	1	3
651.931	1	6
652.101	1	1
652.270	1	7
652.440	1	6
652.609	1	-1
652.778	1	-7
652.948	1	9
653.117	1	8
653.287	1	4
653.456	1	14
653.626	1	9
653.795	1	11
653.965	1	0
654.134	1	7
654.304	1	-10
654.473	1	4
654.643	1	6
654.812	1	9
654.982	1	8
655.151	1	7
655.320	1	4
655.490	1	-1
655.659	1	-1
655.829	1	1
655.998	1	1
656.168	1	-1
656.337	1	2
656.507	1	0
656.676	1	14
656.846	1	7
657.015	1	12
657.184	1	13
657.354	1	7
657.523	1	10
657.693	1	11
657.862	1	3
658.032	1	0
658.201	1	-2
658.371	1	14
658.540	1	5
658.709	1	-3
658.879	1	8
659.048	1	6
659.218	1	12
659.387	1	3
659.557	1	4
659.726	1	1
659.895	1	-3
660.065	1	3
660.234	1	3
660.404	1	15
660.573	1	3
660.743	1	11
660.912	1	11
661.081	1	16
661.251	1	-4
661.420	1	11
661.590	1	-3
661.759	1	10
661.929	1	8
662.098	1	8
662.267	1	2
662.437	1	18
662.606	1	11
662.776	1	9
662.945	1	4
663.115	1	11
663.284	1	0
663.453	1	9
663.623	1	0
663.792	1	1
663.962	1	0
664.131	1	12
664.300	1	9
664.470	1	1
664.639	1	1
664.809	1	2
664.978	1	11
665.148	1	2
665.317	1	5
665.486	1	11
665.656	1	3
665.825	1	13
665.995	1	1
666.164	1	2
666.333	1	2
666.503	1	2
666.672	1	-2
666.842	1	4
667.011	1	4
667.180	1	6
667.350	1	5
667.519	1	10
667.689	1	-1
667.858	1	2
668.027	1	8
668.197	1	-2
668.366	1	-4
668.536	1	7
668.705	1	5
668.874	1	9
669.044	1	8
669.213	1	10
669.382	1	-6
669.552	1	7
669.721	1	6
669.891	1	10
670.060	1	12
670.229	1	10
670.399	1	4
670.568	1	6
670.738	1	15
670.907	1	4
671.076	1	1
671.246	1	5
671.415	1	-1
671.584	1	2
671.754	1	-3
671.923	1	2
672.093	1	8
672.262	1	-1
672.431	1	8
672.601	1	-5
672.770	1	-4
672.939	1	8
673.109	1	9
673.278	1	8
673.448	1	6
673.617	1	-5
673.786	1	2
