325.333	1	9
325.504	1	-2
325.675	1	7
325.846	1	2
326.017	1	-3
326.188	1	4
326.359	1	-1
326.531	1	-12
326.702	1	0
326.873	1	13
327.044	1	-4
327.215	1	-8
327.386	1	4
327.557	1	-11
327.728	1	3
327.899	1	4
328.070	1	14
328.241	1	6
328.412	1	-4
328.583	1	-1
328.754	1	7
328.926	1	6
329.097	1	0
329.268	1	3
329.439	1	-3
329.610	1	8
329.781	1	-1
329.952	1	2
330.123	1	0
330.294	1	1
330.465	1	2
330.636	1	9
330.807	1	0
330.978	1	8
331.149	1	7
331.320	1	0
331.492	1	10
331.663	1	-4
331.834	1	12
332.005	1	0
332.176	1	7
332.347	1	10
332.518	1	-1
332.689	1	17
332.860	1	9
333.031	1	15
333.202	1	4
333.373	1	14
333.544	1	-1
333.715	1	6
333.886	1	-2
334.057	1	9
334.228	1	-6
334.399	1	14
334.570	1	12
334.741	1	-5
334.912	1	3
335.084	1	24
335.255	1	3
335.426	1	-1
335.597	1	10
335.768	1	5
335.939	1	13
336.110	1	4
336.281	1	-3
336.452	1	8
336.623	1	-3
336.794	1	2
336.965	1	9
337.136	1	10
337.307	1	9
337.478	1	1
337.649	1	15
337.820	1	10
337.991	1	11
338.162	1	11
338.333	1	12
338.504	1	12
338.675	1	12
338.846	1	7
339.017	1	4
339.188	1	5
339.359	1	1
339.530	1	12
339.701	1	9
339.872	1	13
340.043	1	12
340.214	1	1
340.385	1	12
340.556	1	-8
340.727	1	8
340.898	1	14
341.069	1	9
341.240	1	12
341.411	1	10
341.582	1	11
341.753	1	16
341.924	1	3
342.095	1	4
342.266	1	14
342.437	1	13
342.608	1	4
342.779	1	17
342.950	1	11
343.121	1	10
343.292	1	3
343.463	1	3
343.634	1	5
343.805	1	14
343.976	1	13
344.147	1	10
344.318	1	10
344.489	1	7
344.660	1	18
344.831	1	14
345.002	1	-4
345.173	1	5
345.344	1	9
345.515	1	5
345.686	1	10
345.857	1	12
346.028	1	10
346.199	1	5
346.370	1	4
346.541	1	6
346.712	1	7
346.883	1	-2
347.054	1	4
347.225	1	17
347.396	1	28
347.567	1	16
347.738	1	2
347.909	1	17
348.080	1	7
348.251	1	11
348.422	1	12
348.593	1	5
348.764	1	9
348.935	1	12
349.106	1	-1
349.277	1	13
349.448	1	11
349.619	1	4
349.790	1	11
349.961	1	12
350.132	1	16
350.303	1	13
350.474	1	14
350.645	1	7
350.816	1	10
350.987	1	16
351.157	1	8
351.328	1	22
351.499	1	6
351.670	1	10
351.841	1	13
352.012	1	26
352.183	1	22
352.354	1	13
352.525	1	14
352.696	1	17
352.867	1	12
353.038	1	14
353.209	1	14
353.380	1	17
353.551	1	6
353.722	1	20
353.893	1	10
354.064	1	9
354.235	1	8
354.406	1	2
354.576	1	1
354.747	1	19
354.918	1	20
355.089	1	24
355.260	1	15
355.431	1	18
355.602	1	17
355.773	1	19
355.944	1	15
356.115	1	14
356.286	1	17
356.457	1	13
356.628	1	18
356.799	1	18
356.970	1	25
357.141	1	15
357.311	1	8
357.482	1	17
357.653	1	16
357.824	1	14
357.995	1	24
358.166	1	5
358.337	1	16
358.508	1	13
358.679	1	16
358.850	1	13
359.021	1	7
359.192	1	18
359.363	1	12
359.533	1	10
359.704	1	19
359.875	1	15
360.046	1	17
360.217	1	9
360.388	1	19
360.559	1	9
360.730	1	22
360.901	1	10
361.072	1	17
361.243	1	11
361.414	1	20
361.584	1	10
361.755	1	22
361.926	1	14
362.097	1	24
362.268	1	11
362.439	1	7
362.610	1	18
362.781	1	11
362.952	1	11
363.123	1	7
363.293	1	13
363.464	1	21
363.635	1	21
363.806	1	11
363.977	1	23
364.148	1	10
364.319	1	11
364.490	1	15
364.661	1	15
364.832	1	21
365.002	1	15
365.173	1	22
365.344	1	24
365.515	1	13
365.686	1	6
365.857	1	21
366.028	1	21
366.199	1	17
366.370	1	19
366.540	1	15
366.711	1	-1
366.882	1	5
367.053	1	8
367.224	1	33
367.395	1	14
367.566	1	18
367.737	1	25
367.908	1	21
368.078	1	20
368.249	1	22
368.420	1	8
368.591	1	16
368.762	1	18
368.933	1	20
369.104	1	7
369.274	1	11
369.445	1	22
369.616	1	15
369.787	1	24
369.958	1	27
370.129	1	8
370.300	1	27
370.471	1	9
370.641	1	18
370.812	1	21
370.983	1	16
371.154	1	14
371.325	1	27
371.496	1	18
371.667	1	30
371.837	1	16
372.008	1	20
372.179	1	15
372.350	1	23
372.521	1	17
372.692	1	10
372.863	1	24
373.033	1	7
373.204	1	13
373.375	1	22
373.546	1	18
373.717	1	18
373.888	1	29
374.059	1	32
374.229	1	23
374.400	1	6
374.571	1	24
374.742	1	29
374.913	1	20
375.084	1	14
375.254	1	25
375.425	1	25
375.596	1	17
375.767	1	13
375.938	1	18
376.109	1	19
376.279	1	14
376.450	1	25
376.621	1	17
376.792	1	13
376.963	1	8
377.134	1	28
377.304	1	19
377.475	1	10
377.646	1	19
377.817	1	26
377.988	1	9
378.159	1	24
378.329	1	36
378.500	1	6
378.671	1	24
378.842	1	9
379.013	1	19
379.184	1	8
379.354	1	20
379.525	1	11
379.696	1	26
379.867	1	34
380.038	1	14
380.209	1	30
380.379	1	14
380.550	1	17
380.721	1	26
380.892	1	23
381.063	1	22
381.233	1	30
381.404	1	15
381.575	1	26
381.746	1	27
381.917	1	16
382.087	1	30
382.258	1	17
382.429	1	20
382.600	1	29
382.771	1	19
382.941	1	23
383.112	1	22
383.283	1	18
383.454	1	19
383.625	1	21
383.795	1	23
383.966	1	18
384.137	1	31
384.308	1	21
384.479	1	28
384.649	1	24
384.820	1	21
384.991	1	26
385.162	1	21
385.333	1	19
385.503	1	18
385.674	1	11
385.845	1	26
386.016	1	22
386.187	1	18
386.357	1	21
386.528	1	27
386.699	1	20
386.870	1	31
387.041	1	26
387.211	1	23
387.382	1	28
387.553	1	31
387.724	1	23
387.894	1	27
388.065	1	19
388.236	1	23
388.407	1	19
388.578	1	16
388.748	1	23
388.919	1	31
389.090	1	26
389.261	1	20
389.431	1	36
389.602	1	22
389.773	1	30
389.944	1	37
390.114	1	16
390.285	1	25
390.456	1	21
390.627	1	25
390.798	1	26
390.968	1	27
391.139	1	26
391.310	1	21
391.481	1	28
391.651	1	21
391.822	1	23
391.993	1	23
392.164	1	17
392.334	1	16
392.505	1	17
392.676	1	23
392.847	1	28
393.017	1	25
393.188	1	30
393.359	1	25
393.530	1	29
393.700	1	14
393.871	1	27
394.042	1	7
394.213	1	23
394.383	1	29
394.554	1	25
394.725	1	25
394.896	1	19
395.066	1	28
395.237	1	30
395.408	1	21
395.579	1	21
395.749	1	38
395.920	1	17
396.091	1	30
396.262	1	17
396.432	1	22
396.603	1	34
396.774	1	40
396.945	1	32
397.115	1	26
397.286	1	29
397.457	1	28
397.627	1	25
397.798	1	38
397.969	1	19
398.140	1	21
398.310	1	34
398.481	1	26
398.652	1	25
398.823	1	24
398.993	1	24
399.164	1	22
399.335	1	38
399.505	1	24
399.676	1	24
399.847	1	32
400.018	1	22
400.188	1	28
400.359	1	34
400.530	1	17
400.700	1	39
400.871	1	26
401.042	1	21
401.213	1	35
401.383	1	28
401.554	1	37
401.725	1	37
401.895	1	15
402.066	1	38
402.237	1	34
402.408	1	36
402.578	1	31
402.749	1	41
402.920	1	35
403.090	1	34
403.261	1	34
403.432	1	38
403.603	1	32
403.773	1	31
403.944	1	39
404.115	1	34
404.285	1	22
404.456	1	26
404.627	1	23
404.797	1	22
404.968	1	13
405.139	1	29
405.310	1	26
405.480	1	33
405.651	1	31
405.822	1	25
405.992	1	29
406.163	1	32
406.334	1	7
406.504	1	32
406.675	1	47
406.846	1	22
407.016	1	39
407.187	1	31
407.358	1	26
407.528	1	27
407.699	1	16
407.870	1	29
408.041	1	27
408.211	1	28
408.382	1	31
408.553	1	19
408.723	1	35
408.894	1	36
409.065	1	26
409.235	1	27
409.406	1	30
409.577	1	23
409.747	1	38
409.918	1	35
410.089	1	38
410.259	1	37
410.430	1	31
410.601	1	39
410.771	1	29
410.942	1	44
411.113	1	25
411.283	1	25
411.454	1	44
411.625	1	38
411.795	1	24
411.966	1	23
412.137	1	31
412.307	1	21
412.478	1	18
412.649	1	36
412.819	1	19
412.990	1	22
413.161	1	35
413.331	1	15
413.502	1	33
413.672	1	30
413.843	1	22
414.014	1	22
414.184	1	47
414.355	1	29
414.526	1	28
414.696	1	48
414.867	1	30
415.038	1	9
415.208	1	34
415.379	1	22
415.550	1	28
415.720	1	37
415.891	1	28
416.062	1	27
416.232	1	33
416.403	1	23
416.573	1	26
416.744	1	22
416.915	1	39
417.085	1	29
417.256	1	33
417.427	1	33
417.597	1	26
417.768	1	36
417.939	1	29
418.109	1	23
418.280	1	43
418.450	1	26
418.621	1	10
418.792	1	38
418.962	1	23
419.133	1	38
419.304	1	34
419.474	1	13
419.645	1	21
419.815	1	19
419.986	1	25
420.157	1	30
420.327	1	27
420.498	1	29
420.669	1	19
420.839	1	38
421.010	1	28
421.180	1	32
421.351	1	28
421.522	1	32
421.692	1	30
421.863	1	27
422.033	1	20
422.204	1	21
422.375	1	21
422.545	1	34
422.716	1	25
422.886	1	22
423.057	1	32
423.228	1	24
423.398	1	25
423.569	1	27
423.740	1	23
423.910	1	27
424.081	1	24
424.251	1	28
424.422	1	32
424.593	1	22
424.763	1	30
424.934	1	22
425.104	1	30
425.275	1	19
425.445	1	24
425.616	1	18
425.787	1	18
425.957	1	29
426.128	1	36
426.298	1	29
426.469	1	16
426.640	1	42
426.810	1	31
426.981	1	24
427.151	1	28
427.322	1	30
427.493	1	17
427.663	1	40
427.834	1	20
428.004	1	30
428.175	1	26
428.345	1	27
428.516	1	23
428.687	1	27
428.857	1	11
429.028	1	31
429.198	1	26
429.369	1	36
429.540	1	29
429.710	1	21
429.881	1	36
430.051	1	26
430.222	1	22
430.392	1	32
430.563	1	32
430.734	1	28
430.904	1	27
431.075	1	33
431.245	1	25
431.416	1	33
431.586	1	21
431.757	1	23
431.927	1	22
432.098	1	23
432.269	1	29
432.439	1	33
432.610	1	23
432.780	1	42
432.951	1	33
433.121	1	25
433.292	1	32
433.462	1	38
433.633	1	34
433.804	1	24
433.974	1	33
434.145	1	53
434.315	1	12
434.486	1	20
434.656	1	37
434.827	1	23
434.997	1	16
435.168	1	32
435.339	1	27
435.509	1	30
435.680	1	18
435.850	1	21
436.021	1	13
436.191	1	20
436.362	1	26
436.532	1	27
436.703	1	19
436.873	1	22
437.044	1	11
437.214	1	23
437.385	1	13
437.556	1	24
437.726	1	34
437.897	1	35
438.067	1	16
438.238	1	21
438.408	1	28
438.579	1	16
438.749	1	20
438.920	1	17
439.090	1	23
439.261	1	21
439.431	1	25
439.602	1	23
439.772	1	13
439.943	1	26
440.113	1	25
440.284	1	34
440.455	1	23
440.625	1	19
440.796	1	22
440.966	1	17
441.137	1	27
441.307	1	18
441.478	1	25
441.648	1	24
441.819	1	21
441.989	1	16
442.160	1	13
442.330	1	19
442.501	1	25
442.671	1	16
442.842	1	10
443.012	1	24
443.183	1	22
443.353	1	5
443.524	1	22
443.694	1	25
443.865	1	18
444.035	1	19
444.206	1	34
444.376	1	16
444.547	1	30
444.717	1	25
444.888	1	19
445.058	1	25
445.229	1	18
445.399	1	19
445.570	1	21
445.740	1	22
445.911	1	15
446.081	1	23
446.252	1	29
446.422	1	14
446.593	1	15
446.763	1	17
446.934	1	13
447.104	1	26
447.275	1	27
447.445	1	22
447.616	1	22
447.786	1	21
447.957	1	20
448.127	1	24
448.298	1	15
448.468	1	17
448.639	1	15
448.809	1	25
448.979	1	15
449.150	1	28
449.320	1	25
449.491	1	35
449.661	1	15
449.832	1	25
450.002	1	22
450.173	1	19
450.343	1	15
450.514	1	19
450.684	1	20
450.855	1	30
451.025	1	16
451.196	1	26
451.366	1	30
451.537	1	10
451.707	1	5
451.878	1	21
452.048	1	31
452.218	1	25
452.389	1	28
452.559	1	20
452.730	1	35
452.900	1	27
453.071	1	4
453.241	1	18
453.412	1	16
453.582	1	16
453.753	1	22
453.923	1	25
454.093	1	30
454.264	1	31
454.434	1	20
454.605	1	15
454.775	1	20
454.946	1	19
455.116	1	21
455.287	1	17
455.457	1	19
455.628	1	20
455.798	1	19
455.968	1	19
456.139	1	9
456.309	1	9
456.480	1	12
456.650	1	21
456.821	1	17
456.991	1	18
457.161	1	10
457.332	1	29
457.502	1	14
457.673	1	21
457.843	1	19
458.014	1	14
458.184	1	18
458.355	1	17
458.525	1	23
458.695	1	23
458.866	1	13
459.036	1	27
459.207	1	22
459.377	1	14
459.548	1	25
459.718	1	12
459.888	1	29
460.059	1	20
460.229	1	26
460.400	1	16
460.570	1	25
460.740	1	13
460.911	1	19
461.081	1	13
461.252	1	11
461.422	1	15
461.593	1	13
461.763	1	24
461.933	1	30
462.104	1	16
462.274	1	19
462.445	1	21
462.615	1	16
462.785	1	8
462.956	1	15
463.126	1	21
463.297	1	11
463.467	1	20
463.638	1	16
463.808	1	8
463.978	1	13
464.149	1	10
464.319	1	9
464.490	1	35
464.660	1	5
464.830	1	17
465.001	1	16
465.171	1	16
465.342	1	15
465.512	1	16
465.682	1	6
465.853	1	21
466.023	1	14
466.194	1	12
466.364	1	23
466.534	1	15
466.705	1	18
466.875	1	21
467.045	1	7
467.216	1	23
467.386	1	12
467.557	1	17
467.727	1	11
467.897	1	10
468.068	1	12
468.238	1	12
468.409	1	11
468.579	1	24
468.749	1	18
468.920	1	4
469.090	1	14
469.260	1	6
469.431	1	14
469.601	1	8
469.772	1	13
469.942	1	-2
470.112	1	12
470.283	1	10
470.453	1	18
470.623	1	13
470.794	1	9
470.964	1	8
471.135	1	21
471.305	1	8
471.475	1	19
471.646	1	6
471.816	1	11
471.986	1	13
472.157	1	19
472.327	1	10
472.497	1	19
472.668	1	5
472.838	1	11
473.009	1	18
473.179	1	1
473.349	1	-5
473.520	1	16
473.690	1	14
473.860	1	15
474.031	1	10
474.201	1	16
474.371	1	18
474.542	1	18
474.712	1	18
474.882	1	22
475.053	1	23
475.223	1	5
475.394	1	19
475.564	1	12
475.734	1	14
475.905	1	19
476.075	1	13
476.245	1	20
476.416	1	20
476.586	1	26
476.756	1	6
476.927	1	18
477.097	1	19
477.267	1	5
477.438	1	15
477.608	1	7
477.778	1	16
477.949	1	22
478.119	1	21
478.289	1	16
478.460	1	15
478.630	1	16
478.800	1	9
478.971	1	7
479.141	1	15
479.311	1	10
479.482	1	11
479.652	1	6
479.822	1	10
479.993	1	19
480.163	1	24
480.333	1	12
480.504	1	18
480.674	1	4
480.844	1	5
481.015	1	22
481.185	1	12
481.355	1	17
481.525	1	12
481.696	1	18
481.866	1	9
482.036	1	11
482.207	1	2
482.377	1	14
482.547	1	16
482.718	1	6
482.888	1	13
483.058	1	18
483.229	1	7
483.399	1	6
483.569	1	8
483.740	1	16
483.910	1	10
484.080	1	5
484.250	1	14
484.421	1	16
484.591	1	18
484.761	1	27
484.932	1	18
485.102	1	19
485.272	1	14
485.443	1	15
485.613	1	13
485.783	1	8
485.953	1	11
486.124	1	15
486.294	1	16
486.464	1	12
486.635	1	18
486.805	1	15
486.975	1	7
487.146	1	14
487.316	1	8
487.486	1	6
487.656	1	5
487.827	1	8
487.997	1	-2
488.167	1	15
488.338	1	18
488.508	1	14
488.678	1	10
488.848	1	21
489.019	1	7
489.189	1	4
489.359	1	0
489.529	1	18
489.700	1	15
489.870	1	11
490.040	1	-1
490.211	1	3
490.381	1	15
490.551	1	8
490.721	1	14
490.892	1	9
491.062	1	12
491.232	1	15
491.402	1	6
491.573	1	3
491.743	1	6
491.913	1	2
492.084	1	10
492.254	1	10
492.424	1	7
492.594	1	13
492.765	1	12
492.935	1	8
493.105	1	14
493.275	1	6
493.446	1	18
493.616	1	14
493.786	1	4
493.956	1	3
494.127	1	8
494.297	1	8
494.467	1	10
494.637	1	1
494.808	1	3
494.978	1	5
495.148	1	12
495.318	1	-2
495.489	1	10
495.659	1	12
495.829	1	9
495.999	1	3
496.170	1	12
496.340	1	13
496.510	1	13
496.680	1	9
496.851	1	8
497.021	1	3
497.191	1	4
497.361	1	9
497.532	1	-1
497.702	1	11
497.872	1	13
498.042	1	12
498.213	1	6
498.383	1	11
498.553	1	9
498.723	1	6
498.894	1	14
499.064	1	3
499.234	1	9
499.404	1	9
499.574	1	15
499.745	1	21
499.915	1	-2
500.085	1	5
500.255	1	17
500.426	1	10
500.596	1	8
500.766	1	5
500.936	1	1
501.106	1	-7
501.277	1	7
501.447	1	9
501.617	1	11
501.787	1	1
501.958	1	4
502.128	1	6
502.298	1	8
502.468	1	1
502.638	1	3
502.809	1	10
502.979	1	3
503.149	1	1
503.319	1	9
503.489	1	7
503.660	1	12
503.830	1	6
504.000	1	22
504.170	1	5
504.340	1	2
504.511	1	11
504.681	1	0
504.851	1	16
505.021	1	6
505.192	1	12
505.362	1	9
505.532	1	9
505.702	1	1
505.872	1	14
506.043	1	0
506.213	1	8
506.383	1	2
506.553	1	19
506.723	1	2
506.893	1	10
507.064	1	19
507.234	1	4
507.404	1	-5
507.574	1	1
507.744	1	8
507.915	1	15
508.085	1	11
508.255	1	5
508.425	1	13
508.595	1	9
508.766	1	11
508.936	1	0
509.106	1	21
509.276	1	16
509.446	1	1
509.616	1	2
509.787	1	6
509.957	1	15
510.127	1	2
510.297	1	5
510.467	1	-3
510.638	1	10
510.808	1	0
510.978	1	-3
511.148	1	6
511.318	1	6
511.488	1	-3
511.659	1	8
511.829	1	-2
511.999	1	2
512.169	1	10
512.339	1	6
512.509	1	7
512.680	1	-4
512.850	1	-1
513.020	1	16
513.190	1	9
513.360	1	9
513.530	1	0
513.700	1	15
513.871	1	1
514.041	1	5
514.211	1	15
514.381	1	9
514.551	1	2
514.721	1	3
514.892	1	11
515.062	1	11
515.232	1	6
515.402	1	-2
515.572	1	4
515.742	1	12
515.912	1	7
516.083	1	8
516.253	1	16
516.423	1	12
516.593	1	2
516.763	1	8
516.933	1	1
517.104	1	3
517.274	1	2
517.444	1	3
517.614	1	-5
517.784	1	2
517.954	1	10
518.124	1	10
518.294	1	9
518.465	1	-1
518.635	1	-4
518.805	1	-2
518.975	1	4
519.145	1	7
519.315	1	7
519.485	1	5
519.656	1	15
519.826	1	7
519.996	1	-6
520.166	1	7
520.336	1	17
520.506	1	-7
520.676	1	-1
520.846	1	15
521.017	1	7
521.187	1	7
521.357	1	16
521.527	1	-3
521.697	1	-4
521.867	1	9
522.037	1	12
522.207	1	5
522.377	1	8
522.548	1	7
522.718	1	6
522.888	1	7
523.058	1	-3
523.228	1	5
523.398	1	8
523.568	1	8
523.738	1	10
523.909	1	9
524.079	1	7
524.249	1	4
524.419	1	5
524.589	1	4
524.759	1	-1
524.929	1	1
525.099	1	10
525.269	1	2
525.439	1	-3
525.610	1	18
525.780	1	4
525.950	1	9
526.120	1	-2
526.290	1	7
526.460	1	6
526.630	1	-1
526.800	1	10
526.970	1	-2
527.140	1	11
527.311	1	1
527.481	1	-1
527.651	1	7
527.821	1	0
527.991	1	7
528.161	1	15
528.331	1	1
528.501	1	7
528.671	1	3
528.841	1	9
529.011	1	-4
529.181	1	3
529.352	1	-2
529.522	1	-1
529.692	1	6
529.862	1	-6
530.032	1	12
530.202	1	7
530.372	1	5
530.542	1	9
530.712	1	8
530.882	1	-1
531.052	1	3
531.222	1	-1
531.392	1	2
531.563	1	10
531.733	1	7
531.903	1	9
532.073	1	5
532.243	1	2
532.413	1	4
532.583	1	7
532.753	1	-3
532.923	1	-7
533.093	1	5
533.263	1	-1
533.433	1	10
533.603	1	3
533.773	1	8
533.943	1	4
534.113	1	-3
534.284	1	5
534.454	1	9
534.624	1	3
534.794	1	-2
534.964	1	6
535.134	1	0
535.304	1	1
535.474	1	11
535.644	1	-1
535.814	1	-1
535.984	1	-10
536.154	1	-7
536.324	1	0
536.494	1	0
536.664	1	17
536.834	1	6
537.004	1	6
537.174	1	12
537.344	1	-1
537.514	1	1
537.685	1	-2
537.855	1	6
538.025	1	-2
538.195	1	-1
538.365	1	4
538.535	1	7
538.705	1	10
538.875	1	-3
539.045	1	8
539.215	1	11
539.385	1	1
539.555	1	14
539.725	1	-2
539.895	1	-9
540.065	1	14
540.235	1	10
540.405	1	-4
540.575	1	8
540.745	1	2
540.915	1	7
541.085	1	2
541.255	1	-7
541.425	1	9
541.595	1	-5
541.765	1	7
541.935	1	-4
542.105	1	-10
542.275	1	12
542.445	1	-1
542.615	1	12
542.785	1	4
542.955	1	1
543.125	1	-8
543.295	1	12
543.465	1	6
543.635	1	-3
543.805	1	22
543.975	1	2
544.145	1	7
544.315	1	-8
544.485	1	4
544.655	1	10
544.825	1	-12
544.995	1	7
545.165	1	-4
545.335	1	12
545.505	1	-6
545.675	1	-2
545.845	1	5
546.015	1	7
546.185	1	4
546.355	1	7
546.525	1	11
546.695	1	8
546.865	1	3
547.035	1	7
547.205	1	-5
547.375	1	4
547.545	1	11
547.715	1	3
547.885	1	6
548.055	1	1
548.225	1	2
548.395	1	1
548.565	1	5
548.735	1	9
548.905	1	3
549.075	1	3
549.245	1	-8
549.415	1	-14
549.585	1	7
549.755	1	9
549.925	1	-2
550.095	1	3
550.265	1	4
550.435	1	-2
550.605	1	-2
550.775	1	3
550.945	1	0
551.115	1	12
551.285	1	-7
551.455	1	-5
551.625	1	6
551.795	1	1
551.965	1	7
552.135	1	10
552.305	1	-5
552.475	1	-5
552.645	1	0
552.815	1	7
552.985	1	10
553.155	1	4
553.325	1	7
553.495	1	4
553.665	1	-1
553.835	1	1
554.004	1	12
554.174	1	-2
554.344	1	9
554.514	1	-3
554.684	1	7
554.854	1	8
555.024	1	-6
555.194	1	-5
555.364	1	13
555.534	1	3
555.704	1	0
555.874	1	16
556.044	1	6
556.214	1	-8
556.384	1	-1
556.554	1	13
556.724	1	7
556.894	1	6
557.064	1	1
557.234	1	7
557.404	1	11
557.573	1	8
557.743	1	4
557.913	1	0
558.083	1	4
558.253	1	7
558.423	1	-4
558.593	1	2
558.763	1	0
558.933	1	6
559.103	1	4
559.273	1	2
559.443	1	3
559.613	1	9
559.783	1	-4
559.953	1	2
560.122	1	7
560.292	1	3
560.462	1	2
560.632	1	9
560.802	1	6
560.972	1	9
561.142	1	5
561.312	1	-7
561.482	1	7
561.652	1	11
561.822	1	-5
561.992	1	0
562.162	1	4
562.331	1	-1
562.501	1	-20
562.671	1	2
562.841	1	-10
563.011	1	5
563.181	1	0
563.351	1	-10
563.521	1	6
563.691	1	3
563.861	1	-2
564.031	1	9
564.201	1	12
564.370	1	-6
564.540	1	-2
564.710	1	0
564.880	1	8
565.050	1	4
565.220	1	2
565.390	1	3
565.560	1	7
565.730	1	2
565.900	1	-2
566.069	1	5
566.239	1	5
566.409	1	7
566.579	1	7
566.749	1	2
566.919	1	12
567.089	1	5
567.259	1	4
567.429	1	8
567.599	1	-2
567.768	1	2
567.938	1	6
568.108	1	10
568.278	1	-8
568.448	1	-9
568.618	1	1
568.788	1	12
568.958	1	1
569.128	1	-1
569.297	1	0
569.467	1	5
569.637	1	8
569.807	1	3
569.977	1	12
570.147	1	3
570.317	1	3
570.487	1	4
570.656	1	5
570.826	1	-5
570.996	1	-12
571.166	1	6
571.336	1	-2
571.506	1	5
571.676	1	14
571.846	1	13
572.015	1	10
572.185	1	-1
572.355	1	7
572.525	1	4
572.695	1	0
572.865	1	-6
573.035	1	3
573.205	1	6
573.374	1	-4
573.544	1	7
573.714	1	10
573.884	1	8
574.054	1	2
574.224	1	2
574.394	1	8
574.563	1	-3
574.733	1	4
574.903	1	-3
575.073	1	4
575.243	1	1
575.413	1	10
575.583	1	-2
575.752	1	16
575.922	1	0
576.092	1	6
576.262	1	3
576.432	1	10
576.602	1	-5
576.772	1	8
576.941	1	5
577.111	1	-4
577.281	1	-7
577.451	1	-1
577.621	1	3
577.791	1	9
577.960	1	-8
578.130	1	-2
578.300	1	2
578.470	1	8
578.640	1	2
578.810	1	0
578.979	1	4
579.149	1	3
579.319	1	-9
579.489	1	5
579.659	1	4
579.829	1	-4
579.998	1	7
580.168	1	21
580.338	1	3
580.508	1	-5
580.678	1	-3
580.848	1	-2
581.017	1	-1
581.187	1	2
581.357	1	-5
581.527	1	6
581.697	1	6
581.867	1	7
582.036	1	7
582.206	1	-2
582.376	1	12
582.546	1	-4
582.716	1	-7
582.885	1	-7
583.055	1	2
583.225	1	-1
583.395	1	8
583.565	1	1
583.735	1	3
583.904	1	-1
584.074	1	1
584.244	1	6
584.414	1	-4
584.584	1	14
584.753	1	1
584.923	1	-1
585.093	1	9
585.263	1	0
585.433	1	3
585.602	1	-5
585.772	1	-8
585.942	1	-6
586.112	1	3
586.282	1	-8
586.451	1	-3
586.621	1	3
586.791	1	-7
586.961	1	-1
587.131	1	8
587.300	1	-6
587.470	1	10
587.640	1	2
587.810	1	1
587.980	1	2
588.149	1	-1
588.319	1	-2
588.489	1	3
588.659	1	5
588.829	1	5
588.998	1	8
589.168	1	5
589.338	1	8
589.508	1	7
589.677	1	1
589.847	1	-2
590.017	1	7
590.187	1	-2
590.357	1	13
590.526	1	11
590.696	1	1
590.866	1	5
591.036	1	7
591.205	1	14
591.375	1	5
591.545	1	0
591.715	1	7
591.885	1	-6
592.054	1	4
592.224	1	3
592.394	1	1
592.564	1	6
592.733	1	10
592.903	1	6
593.073	1	-2
593.243	1	6
593.412	1	7
593.582	1	4
593.752	1	-1
593.922	1	9
594.091	1	-4
594.261	1	11
594.431	1	1
594.601	1	0
594.771	1	0
594.940	1	7
595.110	1	5
595.280	1	-4
595.450	1	-4
595.619	1	1
595.789	1	0
595.959	1	6
596.129	1	5
596.298	1	4
596.468	1	4
596.638	1	6
596.808	1	14
596.977	1	0
597.147	1	5
597.317	1	-6
597.487	1	9
597.656	1	1
597.826	1	7
597.996	1	0
598.166	1	4
598.335	1	1
598.505	1	-4
598.675	1	-8
598.844	1	-4
599.014	1	-1
599.184	1	3
599.354	1	-9
599.523	1	9
599.693	1	-2
599.863	1	10
600.033	1	-2
600.202	1	3
600.372	1	6
600.542	1	11
600.712	1	-3
600.881	1	0
601.051	1	9
601.221	1	6
601.390	1	-7
601.560	1	8
601.730	1	4
601.900	1	11
602.069	1	7
602.239	1	-1
602.409	1	-11
602.578	1	-1
602.748	1	1
602.918	1	0
603.088	1	10
603.257	1	9
603.427	1	-7
603.597	1	2
603.767	1	3
603.936	1	10
604.106	1	1
604.276	1	0
604.445	1	7
604.615	1	-3
604.785	1	-1
604.954	1	0
605.124	1	3
605.294	1	2
605.464	1	-2
605.633	1	9
605.803	1	9
605.973	1	-4
606.142	1	15
606.312	1	7
606.482	1	1
606.652	1	10
606.821	1	0
606.991	1	0
607.161	1	2
607.330	1	5
607.500	1	10
607.670	1	1
607.839	1	12
608.009	1	15
608.179	1	5
608.348	1	4
608.518	1	4
608.688	1	8
608.858	1	5
609.027	1	-2
609.197	1	9
609.367	1	14
609.536	1	10
609.706	1	3
609.876	1	-3
610.045	1	-5
610.215	1	-1
610.385	1	2
610.554	1	5
610.724	1	1
610.894	1	6
611.063	1	10
611.233	1	-1
611.403	1	-9
611.572	1	2
611.742	1	8
611.912	1	5
612.081	1	-5
612.251	1	8
612.421	1	5
612.590	1	9
612.760	1	-8
612.930	1	6
613.099	1	-2
613.269	1	8
613.439	1	0
613.608	1	3
613.778	1	10
613.948	1	2
614.117	1	6
614.287	1	13
614.457	1	8
614.626	1	-2
614.796	1	1
614.966	1	-10
615.135	1	5
615.305	1	4
615.475	1	6
615.644	1	3
615.814	1	5
615.984	1	5
616.153	1	1
616.323	1	2
616.493	1	1
616.662	1	15
616.832	1	5
617.002	1	1
617.171	1	0
617.341	1	-5
617.511	1	-1
617.680	1	-5
617.850	1	-1
618.019	1	11
618.189	1	11
618.359	1	0
618.528	1	3
618.698	1	4
618.868	1	1
619.037	1	3
619.207	1	-7
619.377	1	2
619.546	1	-3
619.716	1	1
619.885	1	-2
620.055	1	4
620.225	1	-1
620.394	1	1
620.564	1	4
620.734	1	-2
620.903	1	-5
621.073	1	10
621.242	1	8
621.412	1	-6
621.582	1	7
621.751	1	0
621.921	1	8
622.091	1	-6
622.260	1	5
622.430	1	7
622.599	1	-4
622.769	1	4
622.939	1	2
623.108	1	3
623.278	1	0
623.448	1	12
623.617	1	-3
623.787	1	8
623.956	1	8
624.126	1	4
624.296	1	3
624.465	1	8
624.635	1	9
624.804	1	3
624.974	1	1
625.144	1	14
625.313	1	-3
625.483	1	-3
625.652	1	10
625.822	1	0
625.992	1	8
626.161	1	5
626.331	1	-1
626.501	1	5
626.670	1	10
626.840	1	0
627.009	1	-5
627.179	1	12
627.348	1	16
627.518	1	12
627.688	1	14
627.857	1	7
628.027	1	-2
628.196	1	1
628.366	1	14
628.536	1	7
628.705	1	9
628.875	1	10
629.044	1	-3
629.214	1	11
629.384	1	9
629.553	1	12
629.723	1	12
629.892	1	2
630.062	1	10
630.232	1	5
630.401	1	12
630.571	1	2
630.740	1	-1
630.910	1	9
631.079	1	2
631.249	1	4
631.419	1	5
631.588	1	-5
631.758	1	10
631.927	1	-5
632.097	1	3
632.266	1	5
632.436	1	6
632.606	1	-5
632.775	1	5
632.945	1	7
633.114	1	7
633.284	1	7
633.453	1	2
633.623	1	-4
633.793	1	1
633.962	1	1
634.132	1	11
634.301	1	2
634.471	1	11
634.640	1	15
634.810	1	8
634.979	1	7
635.149	1	11
635.319	1	5
635.488	1	4
635.658	1	2
635.827	1	-6
635.997	1	4
636.166	1	-3
636.336	1	3
636.505	1	22
636.675	1	-1
636.845	1	9
637.014	1	12
637.184	1	6
637.353	1	6
637.523	1	6
637.692	1	4
637.862	1	6
638.031	1	6
638.201	1	8
638.370	1	2
638.540	1	3
638.710	1	-6
638.879	1	-7
639.049	1	6
639.218	1	2
639.388	1	6
639.557	1	7
639.727	1	8
639.896	1	-10
640.066	1	4
640.235	1	3
640.405	1	6
640.574	1	12
640.744	1	-6
640.914	1	3
641.083	1	3
641.253	1	11
641.422	1	2
641.592	1	12
641.761	1	11
641.931	1	-1
642.100	1	26
642.270	1	3
642.439	1	5
642.609	1	6
642.778	1	5
642.948	1	6
643.117	1	18
643.287	1	14
643.456	1	1
643.626	1	9
643.795	1	5
643.965	1	3
644.134	1	-3
644.304	1	-3
644.473	1	9
644.643	1	9
644.812	1	1
644.982	1	8
645.151	1	1
645.321	1	-6
645.490	1	11
645.660	1	0
645.829	1	2
645.999	1	3
646.168	1	6
646.338	1	10
646.507	1	5
646.677	1	5
646.846	1	-1
647.016	1	-8
647.185	1	5
647.355	1	-11
647.524	1	15
647.694	1	15
647.863	1	9
648.033	1	10
648.202	1	5
648.372	1	-5
648.541	1	-5
648.711	1	5
648.880	1	0
649.050	1	-1
649.219	1	9
649.389	1	6
649.558	1	0
649.728	1	11
649.897	1	2
650.067	1	4
650.236	1	11
650.406	1	9
650.575	1	11
650.745	1	4
650.914	1	0
651.084	1	-2
651.253	1	1
651.423	1	1
651.592	1	-2
651.762	1	2
651.931	1	9
652.101	1	12
652.270	1	8
652.440	1	13
652.609	1	-2
652.778	1	1
652.948	1	5
653.117	1	7
653.287	1	3
653.456	1	6
653.626	1	8
653.795	1	7
653.965	1	10
654.134	1	4
654.304	1	-7
654.473	1	8
654.643	1	13
654.812	1	6
654.982	1	16
655.151	1	1
655.320	1	4
655.490	1	10
655.659	1	-1
655.829	1	4
655.998	1	4
656.168	1	5
656.337	1	3
656.507	1	7
656.676	1	22
656.846	1	5
657.015	1	-2
657.184	1	12
657.354	1	8
657.523	1	-10
657.693	1	15
657.862	1	9
658.032	1	0
658.201	1	-2
658.371	1	18
658.540	1	6
658.709	1	-3
658.879	1	9
659.048	1	4
659.218	1	6
659.387	1	5
659.557	1	-5
659.726	1	6
659.895	1	-5
660.065	1	-1
660.234	1	6
660.404	1	9
660.573	1	-1
660.743	1	4
660.912	1	3
661.081	1	21
661.251	1	2
661.420	1	8
661.590	1	0
661.759	1	3
661.929	1	12
662.098	1	14
662.267	1	9
662.437	1	8
662.606	1	-8
662.776	1	8
662.945	1	9
663.115	1	-3
663.284	1	2
663.453	1	2
663.623	1	-3
663.792	1	7
663.962	1	2
664.131	1	-2
664.300	1	17
664.470	1	5
664.639	1	9
664.809	1	5
664.978	1	6
665.148	1	7
665.317	1	-3
665.486	1	16
665.656	1	-7
665.825	1	18
665.995	1	-2
666.164	1	-1
666.333	1	5
666.503	1	13
666.672	1	5
666.842	1	-2
667.011	1	-1
667.180	1	10
667.350	1	6
667.519	1	1
667.689	1	-5
667.858	1	-2
668.027	1	26
668.197	1	9
668.366	1	-14
668.536	1	-1
668.705	1	7
668.874	1	4
669.044	1	3
669.213	1	19
669.382	1	1
669.552	1	6
669.721	1	3
669.891	1	15
670.060	1	18
670.229	1	11
670.399	1	-2
670.568	1	10
670.738	1	10
670.907	1	-5
671.076	1	-4
671.246	1	-1
671.415	1	6
671.584	1	7
671.754	1	0
671.923	1	2
672.093	1	6
672.262	1	-4
672.431	1	5
672.601	1	3
672.770	1	-5
672.939	1	13
673.109	1	2
673.278	1	6
673.448	1	16
673.617	1	7
673.786	1	17
