325.333	1	17
325.504	1	14
325.675	1	21
325.846	1	14
326.017	1	10
326.188	1	24
326.359	1	18
326.531	1	-2
326.702	1	9
326.873	1	26
327.044	1	22
327.215	1	17
327.386	1	17
327.557	1	18
327.728	1	16
327.899	1	18
328.070	1	33
328.241	1	20
328.412	1	5
328.583	1	29
328.754	1	20
328.926	1	24
329.097	1	18
329.268	1	27
329.439	1	10
329.610	1	24
329.781	1	-1
329.952	1	27
330.123	1	26
330.294	1	23
330.465	1	20
330.636	1	24
330.807	1	32
330.978	1	14
331.149	1	16
331.320	1	15
331.492	1	21
331.663	1	24
331.834	1	32
332.005	1	21
332.176	1	27
332.347	1	31
332.518	1	14
332.689	1	30
332.860	1	17
333.031	1	26
333.202	1	15
333.373	1	30
333.544	1	21
333.715	1	33
333.886	1	23
334.057	1	22
334.228	1	24
334.399	1	32
334.570	1	31
334.741	1	31
334.912	1	31
335.084	1	40
335.255	1	30
335.426	1	27
335.597	1	18
335.768	1	34
335.939	1	49
336.110	1	24
336.281	1	19
336.452	1	25
336.623	1	42
336.794	1	32
336.965	1	23
337.136	1	36
337.307	1	42
337.478	1	26
337.649	1	27
337.820	1	35
337.991	1	27
338.162	1	39
338.333	1	28
338.504	1	38
338.675	1	37
338.846	1	34
339.017	1	28
339.188	1	26
339.359	1	28
339.530	1	34
339.701	1	38
339.872	1	41
340.043	1	27
340.214	1	30
340.385	1	40
340.556	1	26
340.727	1	37
340.898	1	45
341.069	1	32
341.240	1	31
341.411	1	39
341.582	1	40
341.753	1	31
341.924	1	36
342.095	1	42
342.266	1	45
342.437	1	40
342.608	1	37
342.779	1	44
342.950	1	42
343.121	1	46
343.292	1	41
343.463	1	39
343.634	1	38
343.805	1	49
343.976	1	47
344.147	1	48
344.318	1	39
344.489	1	37
344.660	1	45
344.831	1	43
345.002	1	31
345.173	1	59
345.344	1	44
345.515	1	51
345.686	1	40
345.857	1	43
346.028	1	48
346.199	1	47
346.370	1	45
346.541	1	55
346.712	1	40
346.883	1	50
347.054	1	45
347.225	1	50
347.396	1	49
347.567	1	39
347.738	1	31
347.909	1	70
348.080	1	43
348.251	1	59
348.422	1	53
348.593	1	47
348.764	1	47
348.935	1	43
349.106	1	42
349.277	1	45
349.448	1	55
349.619	1	55
349.790	1	49
349.961	1	54
350.132	1	57
350.303	1	61
350.474	1	71
350.645	1	56
350.816	1	59
350.987	1	65
351.157	1	50
351.328	1	60
351.499	1	59
351.670	1	48
351.841	1	73
352.012	1	66
352.183	1	61
352.354	1	58
352.525	1	63
352.696	1	59
352.867	1	56
353.038	1	58
353.209	1	63
353.380	1	56
353.551	1	55
353.722	1	59
353.893	1	65
354.064	1	69
354.235	1	62
354.406	1	64
354.576	1	58
354.747	1	58
354.918	1	54
355.089	1	65
355.260	1	59
355.431	1	62
355.602	1	65
355.773	1	68
355.944	1	57
356.115	1	56
356.286	1	63
356.457	1	63
356.628	1	65
356.799	1	62
356.970	1	66
357.141	1	62
357.311	1	44
357.482	1	72
357.653	1	60
357.824	1	74
357.995	1	72
358.166	1	63
358.337	1	71
358.508	1	70
358.679	1	65
358.850	1	70
359.021	1	61
359.192	1	67
359.363	1	72
359.533	1	75
359.704	1	66
359.875	1	59
360.046	1	73
360.217	1	66
360.388	1	64
360.559	1	70
360.730	1	75
360.901	1	65
361.072	1	80
361.243	1	77
361.414	1	61
361.584	1	79
361.755	1	79
361.926	1	60
362.097	1	72
362.268	1	70
362.439	1	73
362.610	1	72
362.781	1	64
362.952	1	69
363.123	1	72
363.293	1	71
363.464	1	70
363.635	1	73
363.806	1	73
363.977	1	72
364.148	1	65
364.319	1	64
364.490	1	74
364.661	1	70
364.832	1	71
365.002	1	77
365.173	1	78
365.344	1	77
365.515	1	69
365.686	1	67
365.857	1	79
366.028	1	82
366.199	1	77
366.370	1	65
366.540	1	71
366.711	1	61
366.882	1	77
367.053	1	61
367.224	1	86
367.395	1	76
367.566	1	75
367.737	1	74
367.908	1	71
368.078	1	80
368.249	1	83
368.420	1	75
368.591	1	74
368.762	1	77
368.933	1	76
369.104	1	64
369.274	1	74
369.445	1	83
369.616	1	74
369.787	1	77
369.958	1	71
370.129	1	73
370.300	1	83
370.471	1	75
370.641	1	80
370.812	1	67
370.983	1	74
371.154	1	74
371.325	1	83
371.496	1	72
371.667	1	78
371.837	1	65
372.008	1	72
372.179	1	72
372.350	1	94
372.521	1	77
372.692	1	81
372.863	1	90
373.033	1	69
373.204	1	76
373.375	1	83
373.546	1	80
373.717	1	78
373.888	1	85
374.059	1	84
374.229	1	89
374.400	1	79
374.571	1	83
374.742	1	84
374.913	1	91
375.084	1	74
375.254	1	82
375.425	1	83
375.596	1	79
375.767	1	77
375.938	1	81
376.109	1	79
376.279	1	65
376.450	1	93
376.621	1	77
376.792	1	87
376.963	1	84
377.134	1	93
377.304	1	81
377.475	1	83
377.646	1	84
377.817	1	85
377.988	1	84
378.159	1	88
378.329	1	105
378.500	1	87
378.671	1	88
378.842	1	89
379.013	1	70
379.184	1	94
379.354	1	90
379.525	1	84
379.696	1	99
379.867	1	92
380.038	1	86
380.209	1	97
380.379	1	92
380.550	1	78
380.721	1	91
380.892	1	89
381.063	1	92
381.233	1	96
381.404	1	76
381.575	1	87
381.746	1	92
381.917	1	83
382.087	1	93
382.258	1	90
382.429	1	96
382.600	1	102
382.771	1	84
382.941	1	95
383.112	1	96
383.283	1	104
383.454	1	98
383.625	1	91
383.795	1	93
383.966	1	102
384.137	1	99
384.308	1	93
384.479	1	93
384.649	1	113
384.820	1	94
384.991	1	90
385.162	1	93
385.333	1	89
385.503	1	93
385.674	1	94
385.845	1	107
386.016	1	96
386.187	1	106
386.357	1	112
386.528	1	111
386.699	1	106
386.870	1	110
387.041	1	110
387.211	1	93
387.382	1	102
387.553	1	112
387.724	1	100
387.894	1	111
388.065	1	105
388.236	1	113
388.407	1	98
388.578	1	94
388.748	1	95
388.919	1	114
389.090	1	106
389.261	1	104
389.431	1	114
389.602	1	102
389.773	1	105
389.944	1	106
390.114	1	110
390.285	1	105
390.456	1	106
390.627	1	113
390.798	1	101
390.968	1	113
391.139	1	113
391.310	1	100
391.481	1	113
391.651	1	108
391.822	1	95
391.993	1	110
392.164	1	102
392.334	1	92
392.505	1	112
392.676	1	106
392.847	1	113
393.017	1	114
393.188	1	110
393.359	1	93
393.530	1	103
393.700	1	104
393.871	1	112
394.042	1	100
394.213	1	98
394.383	1	112
394.554	1	119
394.725	1	114
394.896	1	102
395.066	1	113
395.237	1	100
395.408	1	113
395.579	1	113
395.749	1	116
395.920	1	105
396.091	1	115
396.262	1	112
396.432	1	100
396.603	1	112
396.774	1	119
396.945	1	122
397.115	1	115
397.286	1	124
397.457	1	114
397.627	1	97
397.798	1	108
397.969	1	122
398.140	1	111
398.310	1	119
398.481	1	117
398.652	1	113
398.823	1	111
398.993	1	109
399.164	1	121
399.335	1	120
399.505	1	119
399.676	1	121
399.847	1	110
400.018	1	106
400.188	1	120
400.359	1	112
400.530	1	115
400.700	1	106
400.871	1	108
401.042	1	110
401.213	1	132
401.383	1	112
401.554	1	112
401.725	1	119
401.895	1	109
402.066	1	125
402.237	1	115
402.408	1	114
402.578	1	105
402.749	1	116
402.920	1	120
403.090	1	112
403.261	1	121
403.432	1	111
403.603	1	125
403.773	1	112
403.944	1	120
404.115	1	127
404.285	1	121
404.456	1	116
404.627	1	100
404.797	1	111
404.968	1	112
405.139	1	119
405.310	1	122
405.480	1	116
405.651	1	119
405.822	1	110
405.992	1	117
406.163	1	121
406.334	1	105
406.504	1	112
406.675	1	125
406.846	1	122
407.016	1	124
407.187	1	136
407.358	1	107
407.528	1	114
407.699	1	108
407.870	1	104
408.041	1	117
408.211	1	129
408.382	1	127
408.553	1	117
408.723	1	122
408.894	1	119
409.065	1	120
409.235	1	125
409.406	1	113
409.577	1	110
409.747	1	131
409.918	1	111
410.089	1	125
410.259	1	117
410.430	1	119
410.601	1	143
410.771	1	126
410.942	1	132
411.113	1	129
411.283	1	126
411.454	1	125
411.625	1	112
411.795	1	125
411.966	1	112
412.137	1	120
412.307	1	107
412.478	1	125
412.649	1	121
412.819	1	119
412.990	1	112
413.161	1	114
413.331	1	101
413.502	1	114
413.672	1	110
413.843	1	121
414.014	1	106
414.184	1	124
414.355	1	113
414.526	1	123
414.696	1	119
414.867	1	121
415.038	1	106
415.208	1	112
415.379	1	127
415.550	1	119
415.720	1	117
415.891	1	118
416.062	1	125
416.232	1	114
416.403	1	116
416.573	1	119
416.744	1	108
416.915	1	133
417.085	1	123
417.256	1	103
417.427	1	116
417.597	1	122
417.768	1	117
417.939	1	110
418.109	1	126
418.280	1	119
418.450	1	103
418.621	1	90
418.792	1	120
418.962	1	117
419.133	1	136
419.304	1	124
419.474	1	104
419.645	1	117
419.815	1	108
419.986	1	124
420.157	1	114
420.327	1	124
420.498	1	116
420.669	1	118
420.839	1	130
421.010	1	127
421.180	1	121
421.351	1	105
421.522	1	114
421.692	1	109
421.863	1	111
422.033	1	127
422.204	1	110
422.375	1	109
422.545	1	111
422.716	1	108
422.886	1	110
423.057	1	117
423.228	1	106
423.398	1	108
423.569	1	120
423.740	1	107
423.910	1	99
424.081	1	106
424.251	1	108
424.422	1	120
424.593	1	97
424.763	1	116
424.934	1	109
425.104	1	110
425.275	1	112
425.445	1	96
425.616	1	104
425.787	1	101
425.957	1	117
426.128	1	117
426.298	1	109
426.469	1	94
426.640	1	104
426.810	1	114
426.981	1	104
427.151	1	116
427.322	1	122
427.493	1	106
427.663	1	99
427.834	1	98
428.004	1	104
428.175	1	114
428.345	1	99
428.516	1	105
428.687	1	105
428.857	1	99
429.028	1	102
429.198	1	94
429.369	1	107
429.540	1	104
429.710	1	96
429.881	1	114
430.051	1	107
430.222	1	105
430.392	1	109
430.563	1	112
430.734	1	118
430.904	1	114
431.075	1	105
431.245	1	110
431.416	1	106
431.586	1	112
431.757	1	109
431.927	1	112
432.098	1	101
432.269	1	105
432.439	1	99
432.610	1	96
432.780	1	115
432.951	1	107
433.121	1	107
433.292	1	109
433.462	1	105
433.633	1	100
433.804	1	107
433.974	1	97
434.145	1	120
434.315	1	94
434.486	1	97
434.656	1	97
434.827	1	95
434.997	1	98
435.168	1	109
435.339	1	106
435.509	1	98
435.680	1	106
435.850	1	108
436.021	1	97
436.191	1	99
436.362	1	113
436.532	1	102
436.703	1	101
436.873	1	101
437.044	1	94
437.214	1	92
437.385	1	96
437.556	1	94
437.726	1	110
437.897	1	102
438.067	1	98
438.238	1	101
438.408	1	102
438.579	1	95
438.749	1	82
438.920	1	91
439.090	1	94
439.261	1	77
439.431	1	95
439.602	1	103
439.772	1	95
439.943	1	97
440.113	1	99
440.284	1	97
440.455	1	94
440.625	1	90
440.796	1	91
440.966	1	90
441.137	1	93
441.307	1	94
441.478	1	91
441.648	1	93
441.819	1	99
441.989	1	89
442.160	1	97
442.330	1	105
442.501	1	88
442.671	1	86
442.842	1	73
443.012	1	83
443.183	1	89
443.353	1	86
443.524	1	97
443.694	1	104
443.865	1	92
444.035	1	99
444.206	1	89
444.376	1	87
444.547	1	103
444.717	1	80
444.888	1	73
445.058	1	102
445.229	1	91
445.399	1	84
445.570	1	92
445.740	1	81
445.911	1	80
446.081	1	84
446.252	1	83
446.422	1	92
446.593	1	79
446.763	1	84
446.934	1	90
447.104	1	92
447.275	1	85
447.445	1	92
447.616	1	90
447.786	1	87
447.957	1	86
448.127	1	73
448.298	1	84
448.468	1	84
448.639	1	77
448.809	1	85
448.979	1	92
449.150	1	88
449.320	1	85
449.491	1	84
449.661	1	80
449.832	1	72
450.002	1	96
450.173	1	86
450.343	1	89
450.514	1	75
450.684	1	83
450.855	1	89
451.025	1	77
451.196	1	80
451.366	1	76
451.537	1	73
451.707	1	71
451.878	1	79
452.048	1	93
452.218	1	96
452.389	1	92
452.559	1	71
452.730	1	79
452.900	1	81
453.071	1	71
453.241	1	76
453.412	1	79
453.582	1	74
453.753	1	84
453.923	1	76
454.093	1	77
454.264	1	90
454.434	1	73
454.605	1	73
454.775	1	72
454.946	1	68
455.116	1	79
455.287	1	61
455.457	1	63
455.628	1	73
455.798	1	83
455.968	1	79
456.139	1	65
456.309	1	80
456.480	1	58
456.650	1	75
456.821	1	59
456.991	1	76
457.161	1	73
457.332	1	81
457.502	1	59
457.673	1	86
457.843	1	82
458.014	1	67
458.184	1	71
458.355	1	65
458.525	1	65
458.695	1	76
458.866	1	69
459.036	1	83
459.207	1	61
459.377	1	69
459.548	1	90
459.718	1	64
459.888	1	76
460.059	1	73
460.229	1	74
460.400	1	76
460.570	1	71
460.740	1	65
460.911	1	71
461.081	1	73
461.252	1	71
461.422	1	67
461.593	1	68
461.763	1	69
461.933	1	75
462.104	1	74
462.274	1	70
462.445	1	75
462.615	1	68
462.785	1	62
462.956	1	71
463.126	1	64
463.297	1	71
463.467	1	63
463.638	1	74
463.808	1	63
463.978	1	60
464.149	1	54
464.319	1	63
464.490	1	74
464.660	1	56
464.830	1	68
465.001	1	65
465.171	1	66
465.342	1	66
465.512	1	60
465.682	1	62
465.853	1	61
466.023	1	60
466.194	1	59
466.364	1	72
466.534	1	65
466.705	1	65
466.875	1	51
467.045	1	61
467.216	1	69
467.386	1	53
467.557	1	61
467.727	1	46
467.897	1	54
468.068	1	68
468.238	1	57
468.409	1	55
468.579	1	61
468.749	1	58
468.920	1	55
469.090	1	54
469.260	1	54
469.431	1	56
469.601	1	62
469.772	1	66
469.942	1	55
470.112	1	64
470.283	1	55
470.453	1	58
470.623	1	54
470.794	1	44
470.964	1	58
471.135	1	58
471.305	1	45
471.475	1	60
471.646	1	50
471.816	1	48
471.986	1	56
472.157	1	73
472.327	1	48
472.497	1	49
472.668	1	51
472.838	1	53
473.009	1	65
473.179	1	42
473.349	1	41
473.520	1	56
473.690	1	61
473.860	1	56
474.031	1	62
474.201	1	53
474.371	1	67
474.542	1	62
474.712	1	42
474.882	1	56
475.053	1	55
475.223	1	58
475.394	1	61
475.564	1	61
475.734	1	51
475.905	1	61
476.075	1	59
476.245	1	68
476.416	1	62
476.586	1	66
476.756	1	46
476.927	1	61
477.097	1	64
477.267	1	39
477.438	1	44
477.608	1	50
477.778	1	53
477.949	1	54
478.119	1	63
478.289	1	52
478.460	1	59
478.630	1	51
478.800	1	45
478.971	1	57
479.141	1	41
479.311	1	33
479.482	1	57
479.652	1	50
479.822	1	47
479.993	1	46
480.163	1	52
480.333	1	44
480.504	1	58
480.674	1	55
480.844	1	47
481.015	1	45
481.185	1	43
481.355	1	57
481.525	1	48
481.696	1	50
481.866	1	53
482.036	1	50
482.207	1	37
482.377	1	46
482.547	1	49
482.718	1	32
482.888	1	57
483.058	1	54
483.229	1	44
483.399	1	42
483.569	1	44
483.740	1	60
483.910	1	40
484.080	1	35
484.250	1	47
484.421	1	47
484.591	1	49
484.761	1	53
484.932	1	61
485.102	1	53
485.272	1	44
485.443	1	57
485.613	1	43
485.783	1	43
485.953	1	38
486.124	1	49
486.294	1	47
486.464	1	37
486.635	1	46
486.805	1	54
486.975	1	38
487.146	1	47
487.316	1	43
487.486	1	45
487.656	1	42
487.827	1	41
487.997	1	33
488.167	1	43
488.338	1	37
488.508	1	48
488.678	1	39
488.848	1	56
489.019	1	40
489.189	1	45
489.359	1	35
489.529	1	39
489.700	1	45
489.870	1	51
490.040	1	29
490.211	1	39
490.381	1	47
490.551	1	38
490.721	1	43
490.892	1	42
491.062	1	53
491.232	1	46
491.402	1	37
491.573	1	18
491.743	1	41
491.913	1	35
492.084	1	50
492.254	1	39
492.424	1	36
492.594	1	42
492.765	1	35
492.935	1	41
493.105	1	40
493.275	1	44
493.446	1	49
493.616	1	42
493.786	1	42
493.956	1	31
494.127	1	44
494.297	1	33
494.467	1	41
494.637	1	35
494.808	1	42
494.978	1	21
495.148	1	41
495.318	1	36
495.489	1	32
495.659	1	40
495.829	1	49
495.999	1	28
496.170	1	36
496.340	1	41
496.510	1	39
496.680	1	25
496.851	1	35
497.021	1	35
497.191	1	28
497.361	1	37
497.532	1	32
497.702	1	33
497.872	1	37
498.042	1	42
498.213	1	31
498.383	1	35
498.553	1	37
498.723	1	30
498.894	1	40
499.064	1	32
499.234	1	44
499.404	1	41
499.574	1	41
499.745	1	44
499.915	1	40
500.085	1	31
500.255	1	42
500.426	1	34
500.596	1	32
500.766	1	34
500.936	1	32
501.106	1	42
501.277	1	38
501.447	1	32
501.617	1	27
501.787	1	30
501.958	1	26
502.128	1	34
502.298	1	36
502.468	1	32
502.638	1	40
502.809	1	27
502.979	1	24
503.149	1	27
503.319	1	18
503.489	1	37
503.660	1	35
503.830	1	35
504.000	1	36
504.170	1	29
504.340	1	35
504.511	1	41
504.681	1	28
504.851	1	32
505.021	1	37
505.192	1	26
505.362	1	25
505.532	1	28
505.702	1	27
505.872	1	25
506.043	1	24
506.213	1	17
506.383	1	19
506.553	1	31
506.723	1	35
506.893	1	25
507.064	1	31
507.234	1	27
507.404	1	22
507.574	1	19
507.744	1	33
507.915	1	31
508.085	1	27
508.255	1	41
508.425	1	32
508.595	1	30
508.766	1	31
508.936	1	25
509.106	1	29
509.276	1	29
509.446	1	21
509.616	1	16
509.787	1	21
509.957	1	30
510.127	1	23
510.297	1	36
510.467	1	26
510.638	1	20
510.808	1	19
510.978	1	29
511.148	1	19
511.318	1	22
511.488	1	27
511.659	1	22
511.829	1	21
511.999	1	27
512.169	1	24
512.339	1	17
512.509	1	18
512.680	1	18
512.850	1	19
513.020	1	29
513.190	1	28
513.360	1	16
513.530	1	25
513.700	1	29
513.871	1	18
514.041	1	29
514.211	1	41
514.381	1	29
514.551	1	25
514.721	1	27
514.892	1	17
515.062	1	21
515.232	1	34
515.402	1	22
515.572	1	23
515.742	1	33
515.912	1	20
516.083	1	32
516.253	1	38
516.423	1	25
516.593	1	28
516.763	1	35
516.933	1	11
517.104	1	24
517.274	1	18
517.444	1	23
517.614	1	11
517.784	1	22
517.954	1	25
518.124	1	24
518.294	1	22
518.465	1	14
518.635	1	17
518.805	1	16
518.975	1	26
519.145	1	21
519.315	1	15
519.485	1	18
519.656	1	24
519.826	1	25
519.996	1	16
520.166	1	16
520.336	1	25
520.506	1	17
520.676	1	13
520.846	1	27
521.017	1	20
521.187	1	25
521.357	1	21
521.527	1	15
521.697	1	12
521.867	1	6
522.037	1	27
522.207	1	25
522.377	1	23
522.548	1	20
522.718	1	13
522.888	1	31
523.058	1	14
523.228	1	23
523.398	1	20
523.568	1	25
523.738	1	14
523.909	1	24
524.079	1	10
524.249	1	11
524.419	1	18
524.589	1	10
524.759	1	12
524.929	1	7
525.099	1	14
525.269	1	17
525.439	1	15
525.610	1	33
525.780	1	18
525.950	1	25
526.120	1	18
526.290	1	15
526.460	1	0
526.630	1	29
526.800	1	18
526.970	1	16
527.140	1	23
527.311	1	19
527.481	1	23
527.651	1	23
527.821	1	6
527.991	1	21
528.161	1	23
528.331	1	14
528.501	1	17
528.671	1	20
528.841	1	18
529.011	1	17
529.181	1	15
529.352	1	22
529.522	1	15
529.692	1	22
529.862	1	13
530.032	1	20
530.202	1	23
530.372	1	27
530.542	1	25
530.712	1	8
530.882	1	20
531.052	1	23
531.222	1	14
531.392	1	16
531.563	1	26
531.733	1	20
531.903	1	16
532.073	1	19
532.243	1	12
532.413	1	17
532.583	1	8
532.753	1	22
532.923	1	5
533.093	1	18
533.263	1	15
533.433	1	15
533.603	1	18
533.773	1	12
533.943	1	14
534.113	1	19
534.284	1	20
534.454	1	20
534.624	1	23
534.794	1	15
534.964	1	17
535.134	1	16
535.304	1	15
535.474	1	18
535.644	1	10
535.814	1	9
535.984	1	2
536.154	1	10
536.324	1	6
536.494	1	20
536.664	1	17
536.834	1	17
537.004	1	19
537.174	1	15
537.344	1	5
537.514	1	6
537.685	1	8
537.855	1	19
538.025	1	17
538.195	1	25
538.365	1	28
538.535	1	11
538.705	1	17
538.875	1	15
539.045	1	13
539.215	1	24
539.385	1	14
539.555	1	22
539.725	1	7
539.895	1	11
540.065	1	23
540.235	1	24
540.405	1	13
540.575	1	11
540.745	1	11
540.915	1	24
541.085	1	14
541.255	1	12
541.425	1	15
541.595	1	13
541.765	1	9
541.935	1	17
542.105	1	16
542.275	1	13
542.445	1	0
542.615	1	14
542.785	1	10
542.955	1	11
543.125	1	4
543.295	1	16
543.465	1	17
543.635	1	14
543.805	1	24
543.975	1	16
544.145	1	23
544.315	1	12
544.485	1	13
544.655	1	19
544.825	1	6
544.995	1	16
545.165	1	9
545.335	1	17
545.505	1	14
545.675	1	15
545.845	1	24
546.015	1	4
546.185	1	16
546.355	1	17
546.525	1	16
546.695	1	13
546.865	1	10
547.035	1	7
547.205	1	3
547.375	1	16
547.545	1	13
547.715	1	5
547.885	1	9
548.055	1	13
548.225	1	13
548.395	1	10
548.565	1	6
548.735	1	7
548.905	1	7
549.075	1	7
549.245	1	13
549.415	1	6
549.585	1	17
549.755	1	13
549.925	1	3
550.095	1	14
550.265	1	3
550.435	1	8
550.605	1	9
550.775	1	19
550.945	1	18
551.115	1	9
551.285	1	12
551.455	1	5
551.625	1	15
551.795	1	22
551.965	1	5
552.135	1	8
552.305	1	14
552.475	1	0
552.645	1	13
552.815	1	8
552.985	1	9
553.155	1	13
553.325	1	17
553.495	1	4
553.665	1	12
553.835	1	7
554.004	1	15
554.174	1	9
554.344	1	7
554.514	1	20
554.684	1	12
554.854	1	17
555.024	1	4
555.194	1	-1
555.364	1	13
555.534	1	12
555.704	1	10
555.874	1	16
556.044	1	25
556.214	1	5
556.384	1	7
556.554	1	17
556.724	1	11
556.894	1	13
557.064	1	14
557.234	1	8
557.404	1	10
557.573	1	5
557.743	1	7
557.913	1	13
558.083	1	7
558.253	1	16
558.423	1	5
558.593	1	14
558.763	1	7
558.933	1	9
559.103	1	19
559.273	1	12
559.443	1	15
559.613	1	12
559.783	1	7
559.953	1	14
560.122	1	17
560.292	1	14
560.462	1	13
560.632	1	17
560.802	1	2
560.972	1	12
561.142	1	11
561.312	1	3
561.482	1	7
561.652	1	14
561.822	1	11
561.992	1	11
562.162	1	9
562.331	1	13
562.501	1	-3
562.671	1	17
562.841	1	-4
563.011	1	16
563.181	1	3
563.351	1	1
563.521	1	18
563.691	1	4
563.861	1	14
564.031	1	14
564.201	1	18
564.370	1	2
564.540	1	10
564.710	1	9
564.880	1	15
565.050	1	13
565.220	1	8
565.390	1	9
565.560	1	10
565.730	1	7
565.900	1	14
566.069	1	17
566.239	1	15
566.409	1	6
566.579	1	7
566.749	1	6
566.919	1	10
567.089	1	14
567.259	1	18
567.429	1	5
567.599	1	9
567.768	1	10
567.938	1	14
568.108	1	4
568.278	1	12
568.448	1	-4
568.618	1	7
568.788	1	6
568.958	1	9
569.128	1	18
569.297	1	10
569.467	1	5
569.637	1	9
569.807	1	1
569.977	1	9
570.147	1	14
570.317	1	2
570.487	1	9
570.656	1	11
570.826	1	13
570.996	1	0
571.166	1	29
571.336	1	-6
571.506	1	21
571.676	1	8
571.846	1	8
572.015	1	12
572.185	1	2
572.355	1	12
572.525	1	3
572.695	1	13
572.865	1	-4
573.035	1	5
573.205	1	12
573.374	1	7
573.544	1	3
573.714	1	15
573.884	1	13
574.054	1	2
574.224	1	11
574.394	1	2
574.563	1	6
574.733	1	7
574.903	1	7
575.073	1	5
575.243	1	6
575.413	1	17
575.583	1	-3
575.752	1	15
575.922	1	-2
576.092	1	11
576.262	1	11
576.432	1	9
576.602	1	4
576.772	1	25
576.941	1	10
577.111	1	10
577.281	1	-3
577.451	1	-2
577.621	1	20
577.791	1	16
577.960	1	5
578.130	1	8
578.300	1	7
578.470	1	18
578.640	1	7
578.810	1	5
578.979	1	8
579.149	1	12
579.319	1	5
579.489	1	10
579.659	1	12
579.829	1	0
579.998	1	3
580.168	1	21
580.338	1	17
580.508	1	5
580.678	1	13
580.848	1	11
581.017	1	3
581.187	1	9
581.357	1	-12
581.527	1	24
581.697	1	14
581.867	1	8
582.036	1	10
582.206	1	7
582.376	1	8
582.546	1	-5
582.716	1	9
582.885	1	6
583.055	1	1
583.225	1	-3
583.395	1	6
583.565	1	-3
583.735	1	9
583.904	1	15
584.074	1	12
584.244	1	4
584.414	1	10
584.584	1	7
584.753	1	-2
584.923	1	4
585.093	1	12
585.263	1	5
585.433	1	4
585.602	1	0
585.772	1	0
585.942	1	13
586.112	1	13
586.282	1	2
586.451	1	4
586.621	1	-3
586.791	1	2
586.961	1	-2
587.131	1	17
587.300	1	2
587.470	1	23
587.640	1	16
587.810	1	4
587.980	1	5
588.149	1	7
588.319	1	6
588.489	1	7
588.659	1	11
588.829	1	16
588.998	1	11
589.168	1	14
589.338	1	8
589.508	1	4
589.677	1	5
589.847	1	-2
590.017	1	22
590.187	1	3
590.357	1	16
590.526	1	16
590.696	1	10
590.866	1	12
591.036	1	7
591.205	1	20
591.375	1	0
591.545	1	1
591.715	1	9
591.885	1	7
592.054	1	10
592.224	1	8
592.394	1	7
592.564	1	8
592.733	1	6
592.903	1	21
593.073	1	7
593.243	1	8
593.412	1	12
593.582	1	8
593.752	1	-3
593.922	1	12
594.091	1	7
594.261	1	12
594.431	1	5
594.601	1	17
594.771	1	10
594.940	1	5
595.110	1	2
595.280	1	18
595.450	1	4
595.619	1	7
595.789	1	10
595.959	1	14
596.129	1	3
596.298	1	10
596.468	1	13
596.638	1	5
596.808	1	4
596.977	1	13
597.147	1	11
597.317	1	-1
597.487	1	15
597.656	1	7
597.826	1	11
597.996	1	8
598.166	1	9
598.335	1	-1
598.505	1	5
598.675	1	10
598.844	1	12
599.014	1	-1
599.184	1	11
599.354	1	-10
599.523	1	6
599.693	1	1
599.863	1	11
600.033	1	11
600.202	1	10
600.372	1	12
600.542	1	8
600.712	1	7
600.881	1	4
601.051	1	16
601.221	1	7
601.390	1	0
601.560	1	13
601.730	1	16
601.900	1	13
602.069	1	13
602.239	1	-5
602.409	1	4
602.578	1	13
602.748	1	12
602.918	1	8
603.088	1	19
603.257	1	9
603.427	1	1
603.597	1	14
603.767	1	7
603.936	1	11
604.106	1	5
604.276	1	5
604.445	1	12
604.615	1	4
604.785	1	12
604.954	1	0
605.124	1	3
605.294	1	7
605.464	1	8
605.633	1	16
605.803	1	10
605.973	1	5
606.142	1	16
606.312	1	21
606.482	1	5
606.652	1	8
606.821	1	7
606.991	1	3
607.161	1	13
607.330	1	13
607.500	1	6
607.670	1	4
607.839	1	13
608.009	1	13
608.179	1	12
608.348	1	14
608.518	1	5
608.688	1	13
608.858	1	1
609.027	1	-1
609.197	1	6
609.367	1	16
609.536	1	11
609.706	1	9
609.876	1	3
610.045	1	15
610.215	1	11
610.385	1	1
610.554	1	12
610.724	1	13
610.894	1	19
611.063	1	7
611.233	1	13
611.403	1	3
611.572	1	3
611.742	1	10
611.912	1	4
612.081	1	8
612.251	1	15
612.421	1	17
612.590	1	16
612.760	1	4
612.930	1	14
613.099	1	10
613.269	1	8
613.439	1	8
613.608	1	4
613.778	1	6
613.948	1	4
614.117	1	17
614.287	1	21
614.457	1	13
614.626	1	12
614.796	1	13
614.966	1	4
615.135	1	14
615.305	1	14
615.475	1	5
615.644	1	11
615.814	1	7
615.984	1	6
616.153	1	13
616.323	1	17
616.493	1	9
616.662	1	16
616.832	1	11
617.002	1	6
617.171	1	5
617.341	1	15
617.511	1	7
617.680	1	-1
617.850	1	2
618.019	1	21
618.189	1	24
618.359	1	11
618.528	1	10
618.698	1	22
618.868	1	0
619.037	1	12
619.207	1	6
619.377	1	7
619.546	1	8
619.716	1	10
619.885	1	1
620.055	1	5
620.225	1	14
620.394	1	10
620.564	1	14
620.734	1	10
620.903	1	-2
621.073	1	15
621.242	1	18
621.412	1	12
621.582	1	8
621.751	1	20
621.921	1	14
622.091	1	3
622.260	1	15
622.430	1	10
622.599	1	9
622.769	1	16
622.939	1	13
623.108	1	10
623.278	1	6
623.448	1	9
623.617	1	11
623.787	1	8
623.956	1	17
624.126	1	4
624.296	1	14
624.465	1	12
624.635	1	24
624.804	1	10
624.974	1	7
625.144	1	20
625.313	1	12
625.483	1	4
625.652	1	21
625.822	1	12
625.992	1	11
626.161	1	14
626.331	1	5
626.501	1	21
626.670	1	7
626.840	1	13
627.009	1	16
627.179	1	16
627.348	1	17
627.518	1	2
627.688	1	19
627.857	1	15
628.027	1	6
628.196	1	14
628.366	1	18
628.536	1	12
628.705	1	8
628.875	1	14
629.044	1	11
629.214	1	10
629.384	1	21
629.553	1	14
629.723	1	14
629.892	1	12
630.062	1	10
630.232	1	7
630.401	1	16
630.571	1	12
630.740	1	19
630.910	1	16
631.079	1	5
631.249	1	17
631.419	1	18
631.588	1	4
631.758	1	14
631.927	1	3
632.097	1	11
632.266	1	14
632.436	1	10
632.606	1	5
632.775	1	17
632.945	1	21
633.114	1	22
633.284	1	24
633.453	1	8
633.623	1	3
633.793	1	20
633.962	1	14
634.132	1	6
634.301	1	18
634.471	1	20
634.640	1	21
634.810	1	15
634.979	1	17
635.149	1	26
635.319	1	16
635.488	1	19
635.658	1	13
635.827	1	12
635.997	1	11
636.166	1	18
636.336	1	18
636.505	1	22
636.675	1	2
636.845	1	21
637.014	1	22
637.184	1	24
637.353	1	4
637.523	1	18
637.692	1	13
637.862	1	18
638.031	1	18
638.201	1	23
638.370	1	15
638.540	1	18
638.710	1	15
638.879	1	9
639.049	1	22
639.218	1	14
639.388	1	17
639.557	1	7
639.727	1	17
639.896	1	7
640.066	1	15
640.235	1	23
640.405	1	15
640.574	1	9
640.744	1	6
640.914	1	18
641.083	1	14
641.253	1	13
641.422	1	21
641.592	1	30
641.761	1	6
641.931	1	10
642.100	1	40
642.270	1	17
642.439	1	19
642.609	1	31
642.778	1	11
642.948	1	15
643.117	1	21
643.287	1	17
643.456	1	6
643.626	1	24
643.795	1	17
643.965	1	17
644.134	1	13
644.304	1	18
644.473	1	16
644.643	1	17
644.812	1	16
644.982	1	19
645.151	1	19
645.321	1	8
645.490	1	20
645.660	1	8
645.829	1	14
645.999	1	19
646.168	1	23
646.338	1	14
646.507	1	11
646.677	1	26
646.846	1	10
647.016	1	12
647.185	1	23
647.355	1	-4
647.524	1	26
647.694	1	18
647.863	1	26
648.033	1	22
648.202	1	18
648.372	1	10
648.541	1	15
648.711	1	6
648.880	1	12
649.050	1	10
649.219	1	17
649.389	1	26
649.558	1	21
649.728	1	19
649.897	1	9
650.067	1	14
650.236	1	27
650.406	1	19
650.575	1	28
650.745	1	22
650.914	1	24
651.084	1	20
651.253	1	23
651.423	1	22
651.592	1	10
651.762	1	15
651.931	1	17
652.101	1	14
652.270	1	24
652.440	1	24
652.609	1	5
652.778	1	7
652.948	1	21
653.117	1	17
653.287	1	19
653.456	1	16
653.626	1	25
653.795	1	16
653.965	1	16
654.134	1	23
654.304	1	17
654.473	1	25
654.643	1	20
654.812	1	18
654.982	1	20
655.151	1	16
655.320	1	14
655.490	1	17
655.659	1	15
655.829	1	13
655.998	1	16
656.168	1	17
656.337	1	19
656.507	1	17
656.676	1	23
656.846	1	28
657.015	1	28
657.184	1	21
657.354	1	24
657.523	1	21
657.693	1	21
657.862	1	22
658.032	1	15
658.201	1	14
658.371	1	25
658.540	1	16
658.709	1	18
658.879	1	24
659.048	1	12
659.218	1	13
659.387	1	24
659.557	1	15
659.726	1	31
659.895	1	18
660.065	1	10
660.234	1	18
660.404	1	22
660.573	1	19
660.743	1	27
660.912	1	25
661.081	1	25
661.251	1	22
661.420	1	20
661.590	1	24
661.759	1	14
661.929	1	28
662.098	1	27
662.267	1	10
662.437	1	24
662.606	1	19
662.776	1	17
662.945	1	18
663.115	1	22
663.284	1	13
663.453	1	30
663.623	1	14
663.792	1	18
663.962	1	17
664.131	1	24
664.300	1	32
664.470	1	19
664.639	1	26
664.809	1	14
664.978	1	29
665.148	1	22
665.317	1	12
665.486	1	18
665.656	1	21
665.825	1	17
665.995	1	15
666.164	1	20
666.333	1	16
666.503	1	19
666.672	1	15
666.842	1	14
667.011	1	16
667.180	1	23
667.350	1	21
667.519	1	23
667.689	1	21
667.858	1	25
668.027	1	25
668.197	1	14
668.366	1	12
668.536	1	22
668.705	1	26
668.874	1	24
669.044	1	13
669.213	1	22
669.382	1	11
669.552	1	25
669.721	1	20
669.891	1	30
670.060	1	26
670.229	1	27
670.399	1	19
670.568	1	28
670.738	1	32
670.907	1	9
671.076	1	17
671.246	1	12
671.415	1	32
671.584	1	23
671.754	1	23
671.923	1	33
672.093	1	19
672.262	1	18
672.431	1	26
672.601	1	15
672.770	1	14
672.939	1	31
673.109	1	14
673.278	1	20
673.448	1	18
673.617	1	18
673.786	1	21
