325.333	1	5
325.504	1	4
325.675	1	3
325.846	1	12
326.017	1	1
326.188	1	7
326.359	1	2
326.531	1	0
326.702	1	2
326.873	1	15
327.044	1	-3
327.215	1	-4
327.386	1	2
327.557	1	0
327.728	1	2
327.899	1	13
328.070	1	11
328.241	1	8
328.412	1	-6
328.583	1	12
328.754	1	15
328.926	1	6
329.097	1	-1
329.268	1	10
329.439	1	-5
329.610	1	10
329.781	1	-3
329.952	1	5
330.123	1	9
330.294	1	-4
330.465	1	11
330.636	1	16
330.807	1	4
330.978	1	11
331.149	1	10
331.320	1	3
331.492	1	1
331.663	1	-4
331.834	1	14
332.005	1	12
332.176	1	15
332.347	1	6
332.518	1	3
332.689	1	14
332.860	1	8
333.031	1	24
333.202	1	-2
333.373	1	-1
333.544	1	6
333.715	1	6
333.886	1	-2
334.057	1	8
334.228	1	2
334.399	1	8
334.570	1	14
334.741	1	1
334.912	1	11
335.084	1	24
335.255	1	7
335.426	1	1
335.597	1	3
335.768	1	9
335.939	1	14
336.110	1	4
336.281	1	2
336.452	1	0
336.623	1	9
336.794	1	8
336.965	1	15
337.136	1	16
337.307	1	-2
337.478	1	9
337.649	1	11
337.820	1	2
337.991	1	4
338.162	1	13
338.333	1	10
338.504	1	9
338.675	1	19
338.846	1	15
339.017	1	9
339.188	1	3
339.359	1	0
339.530	1	13
339.701	1	9
339.872	1	22
340.043	1	6
340.214	1	12
340.385	1	21
340.556	1	-11
340.727	1	7
340.898	1	24
341.069	1	8
341.240	1	8
341.411	1	10
341.582	1	8
341.753	1	1
341.924	1	10
342.095	1	15
342.266	1	20
342.437	1	18
342.608	1	3
342.779	1	8
342.950	1	19
343.121	1	11
343.292	1	11
343.463	1	10
343.634	1	12
343.805	1	13
343.976	1	16
344.147	1	20
344.318	1	7
344.489	1	6
344.660	1	19
344.831	1	12
345.002	1	5
345.173	1	18
345.344	1	15
345.515	1	15
345.686	1	9
345.857	1	10
346.028	1	13
346.199	1	10
346.370	1	12
346.541	1	16
346.712	1	7
346.883	1	13
347.054	1	9
347.225	1	18
347.396	1	23
347.567	1	4
347.738	1	8
347.909	1	27
348.080	1	2
348.251	1	16
348.422	1	26
348.593	1	9
348.764	1	13
348.935	1	19
349.106	1	11
349.277	1	13
349.448	1	19
349.619	1	18
349.790	1	13
349.961	1	21
350.132	1	21
350.303	1	24
350.474	1	26
350.645	1	14
350.816	1	20
350.987	1	22
351.157	1	5
351.328	1	21
351.499	1	22
351.670	1	11
351.841	1	19
352.012	1	18
352.183	1	31
352.354	1	23
352.525	1	21
352.696	1	24
352.867	1	14
353.038	1	23
353.209	1	19
353.380	1	17
353.551	1	14
353.722	1	24
353.893	1	19
354.064	1	25
354.235	1	19
354.406	1	16
354.576	1	14
354.747	1	12
354.918	1	18
355.089	1	31
355.260	1	25
355.431	1	24
355.602	1	9
355.773	1	22
355.944	1	22
356.115	1	22
356.286	1	22
356.457	1	12
356.628	1	27
356.799	1	26
356.970	1	30
357.141	1	7
357.311	1	9
357.482	1	9
357.653	1	18
357.824	1	25
357.995	1	17
358.166	1	16
358.337	1	11
358.508	1	25
358.679	1	7
358.850	1	21
359.021	1	7
359.192	1	27
359.363	1	26
359.533	1	13
359.704	1	22
359.875	1	16
360.046	1	29
360.217	1	16
360.388	1	21
360.559	1	29
360.730	1	18
360.901	1	16
361.072	1	37
361.243	1	22
361.414	1	22
361.584	1	15
361.755	1	22
361.926	1	21
362.097	1	14
362.268	1	27
362.439	1	14
362.610	1	33
362.781	1	11
362.952	1	11
363.123	1	19
363.293	1	27
363.464	1	24
363.635	1	19
363.806	1	24
363.977	1	22
364.148	1	20
364.319	1	23
364.490	1	23
364.661	1	15
364.832	1	20
365.002	1	24
365.173	1	25
365.344	1	28
365.515	1	19
365.686	1	17
365.857	1	24
366.028	1	33
366.199	1	23
366.370	1	28
366.540	1	14
366.711	1	1
366.882	1	19
367.053	1	7
367.224	1	35
367.395	1	25
367.566	1	32
367.737	1	27
367.908	1	28
368.078	1	33
368.249	1	29
368.420	1	20
368.591	1	26
368.762	1	29
368.933	1	17
369.104	1	19
369.274	1	22
369.445	1	24
369.616	1	20
369.787	1	26
369.958	1	27
370.129	1	10
370.300	1	31
370.471	1	12
370.641	1	26
370.812	1	26
370.983	1	31
371.154	1	17
371.325	1	27
371.496	1	35
371.667	1	23
371.837	1	20
372.008	1	23
372.179	1	16
372.350	1	27
372.521	1	21
372.692	1	17
372.863	1	23
373.033	1	9
373.204	1	19
373.375	1	30
373.546	1	34
373.717	1	27
373.888	1	30
374.059	1	34
374.229	1	30
374.400	1	20
374.571	1	27
374.742	1	27
374.913	1	25
375.084	1	28
375.254	1	29
375.425	1	18
375.596	1	29
375.767	1	33
375.938	1	33
376.109	1	28
376.279	1	23
376.450	1	36
376.621	1	23
376.792	1	14
376.963	1	32
377.134	1	28
377.304	1	24
377.475	1	25
377.646	1	18
377.817	1	23
377.988	1	18
378.159	1	25
378.329	1	27
378.500	1	20
378.671	1	28
378.842	1	30
379.013	1	18
379.184	1	15
379.354	1	45
379.525	1	20
379.696	1	30
379.867	1	32
380.038	1	22
380.209	1	32
380.379	1	25
380.550	1	24
380.721	1	26
380.892	1	25
381.063	1	34
381.233	1	29
381.404	1	19
381.575	1	36
381.746	1	24
381.917	1	32
382.087	1	22
382.258	1	28
382.429	1	43
382.600	1	34
382.771	1	30
382.941	1	33
383.112	1	28
383.283	1	30
383.454	1	31
383.625	1	16
383.795	1	27
383.966	1	40
384.137	1	24
384.308	1	29
384.479	1	32
384.649	1	32
384.820	1	25
384.991	1	33
385.162	1	24
385.333	1	28
385.503	1	32
385.674	1	19
385.845	1	44
386.016	1	38
386.187	1	32
386.357	1	43
386.528	1	48
386.699	1	35
386.870	1	35
387.041	1	33
387.211	1	43
387.382	1	43
387.553	1	37
387.724	1	29
387.894	1	36
388.065	1	23
388.236	1	42
388.407	1	34
388.578	1	25
388.748	1	24
388.919	1	39
389.090	1	37
389.261	1	20
389.431	1	39
389.602	1	39
389.773	1	41
389.944	1	34
390.114	1	42
390.285	1	37
390.456	1	31
390.627	1	33
390.798	1	47
390.968	1	29
391.139	1	37
391.310	1	35
391.481	1	47
391.651	1	36
391.822	1	26
391.993	1	36
392.164	1	23
392.334	1	38
392.505	1	33
392.676	1	36
392.847	1	46
393.017	1	34
393.188	1	47
393.359	1	36
393.530	1	35
393.700	1	31
393.871	1	35
394.042	1	28
394.213	1	30
394.383	1	32
394.554	1	46
394.725	1	39
394.896	1	39
395.066	1	40
395.237	1	33
395.408	1	36
395.579	1	27
395.749	1	25
395.920	1	37
396.091	1	30
396.262	1	34
396.432	1	44
396.603	1	38
396.774	1	49
396.945	1	42
397.115	1	47
397.286	1	39
397.457	1	37
397.627	1	40
397.798	1	41
397.969	1	38
398.140	1	34
398.310	1	31
398.481	1	38
398.652	1	39
398.823	1	30
398.993	1	39
399.164	1	34
399.335	1	47
399.505	1	35
399.676	1	28
399.847	1	44
400.018	1	37
400.188	1	41
400.359	1	42
400.530	1	35
400.700	1	47
400.871	1	34
401.042	1	37
401.213	1	45
401.383	1	35
401.554	1	47
401.725	1	44
401.895	1	43
402.066	1	42
402.237	1	46
402.408	1	42
402.578	1	31
402.749	1	44
402.920	1	40
403.090	1	35
403.261	1	34
403.432	1	39
403.603	1	40
403.773	1	49
403.944	1	49
404.115	1	43
404.285	1	47
404.456	1	38
404.627	1	27
404.797	1	28
404.968	1	36
405.139	1	38
405.310	1	50
405.480	1	38
405.651	1	36
405.822	1	39
405.992	1	32
406.163	1	33
406.334	1	34
406.504	1	40
406.675	1	46
406.846	1	41
407.016	1	38
407.187	1	41
407.358	1	35
407.528	1	37
407.699	1	35
407.870	1	43
408.041	1	43
408.211	1	52
408.382	1	38
408.553	1	30
408.723	1	46
408.894	1	39
409.065	1	42
409.235	1	35
409.406	1	35
409.577	1	37
409.747	1	51
409.918	1	40
410.089	1	46
410.259	1	44
410.430	1	43
410.601	1	47
410.771	1	42
410.942	1	49
411.113	1	44
411.283	1	25
411.454	1	44
411.625	1	43
411.795	1	39
411.966	1	44
412.137	1	38
412.307	1	35
412.478	1	38
412.649	1	53
412.819	1	32
412.990	1	38
413.161	1	41
413.331	1	43
413.502	1	44
413.672	1	32
413.843	1	29
414.014	1	37
414.184	1	49
414.355	1	44
414.526	1	44
414.696	1	49
414.867	1	36
415.038	1	36
415.208	1	32
415.379	1	43
415.550	1	47
415.720	1	49
415.891	1	46
416.062	1	48
416.232	1	36
416.403	1	45
416.573	1	42
416.744	1	36
416.915	1	39
417.085	1	43
417.256	1	39
417.427	1	39
417.597	1	43
417.768	1	33
417.939	1	39
418.109	1	36
418.280	1	45
418.450	1	36
418.621	1	30
418.792	1	38
418.962	1	43
419.133	1	40
419.304	1	35
419.474	1	27
419.645	1	47
419.815	1	37
419.986	1	53
420.157	1	46
420.327	1	42
420.498	1	48
420.669	1	38
420.839	1	53
421.010	1	47
421.180	1	44
421.351	1	40
421.522	1	43
421.692	1	38
421.863	1	32
422.033	1	44
422.204	1	35
422.375	1	41
422.545	1	43
422.716	1	40
422.886	1	34
423.057	1	40
423.228	1	41
423.398	1	35
423.569	1	45
423.740	1	19
423.910	1	39
424.081	1	30
424.251	1	26
424.422	1	42
424.593	1	40
424.763	1	21
424.934	1	39
425.104	1	37
425.275	1	35
425.445	1	33
425.616	1	36
425.787	1	31
425.957	1	45
426.128	1	40
426.298	1	47
426.469	1	34
426.640	1	36
426.810	1	39
426.981	1	35
427.151	1	39
427.322	1	39
427.493	1	38
427.663	1	44
427.834	1	31
428.004	1	46
428.175	1	39
428.345	1	35
428.516	1	23
428.687	1	39
428.857	1	28
429.028	1	34
429.198	1	39
429.369	1	48
429.540	1	38
429.710	1	32
429.881	1	49
430.051	1	37
430.222	1	34
430.392	1	36
430.563	1	47
430.734	1	41
430.904	1	49
431.075	1	41
431.245	1	33
431.416	1	35
431.586	1	39
431.757	1	39
431.927	1	44
432.098	1	41
432.269	1	37
432.439	1	45
432.610	1	42
432.780	1	48
432.951	1	39
433.121	1	41
433.292	1	45
433.462	1	40
433.633	1	41
433.804	1	39
433.974	1	26
434.145	1	49
434.315	1	27
434.486	1	27
434.656	1	47
434.827	1	41
434.997	1	35
435.168	1	35
435.339	1	32
435.509	1	39
435.680	1	36
435.850	1	46
436.021	1	35
436.191	1	32
436.362	1	33
436.532	1	33
436.703	1	38
436.873	1	30
437.044	1	26
437.214	1	40
437.385	1	21
437.556	1	36
437.726	1	49
437.897	1	39
438.067	1	34
438.238	1	31
438.408	1	35
438.579	1	37
438.749	1	34
438.920	1	24
439.090	1	41
439.261	1	34
439.431	1	30
439.602	1	40
439.772	1	33
439.943	1	50
440.113	1	32
440.284	1	38
440.455	1	33
440.625	1	34
440.796	1	40
440.966	1	37
441.137	1	36
441.307	1	31
441.478	1	40
441.648	1	40
441.819	1	30
441.989	1	31
442.160	1	33
442.330	1	35
442.501	1	20
442.671	1	27
442.842	1	18
443.012	1	24
443.183	1	34
443.353	1	13
443.524	1	31
443.694	1	37
443.865	1	32
444.035	1	28
444.206	1	37
444.376	1	26
444.547	1	43
444.717	1	36
444.888	1	38
445.058	1	43
445.229	1	28
445.399	1	31
445.570	1	31
445.740	1	23
445.911	1	38
446.081	1	17
446.252	1	35
446.422	1	35
446.593	1	28
446.763	1	18
446.934	1	33
447.104	1	31
447.275	1	27
447.445	1	37
447.616	1	36
447.786	1	30
447.957	1	39
448.127	1	34
448.298	1	34
448.468	1	31
448.639	1	28
448.809	1	35
448.979	1	19
449.150	1	26
449.320	1	44
449.491	1	30
449.661	1	20
449.832	1	24
450.002	1	31
450.173	1	31
450.343	1	22
450.514	1	25
450.684	1	28
450.855	1	22
451.025	1	25
451.196	1	35
451.366	1	38
451.537	1	18
451.707	1	11
451.878	1	34
452.048	1	36
452.218	1	33
452.389	1	28
452.559	1	24
452.730	1	23
452.900	1	32
453.071	1	14
453.241	1	36
453.412	1	16
453.582	1	23
453.753	1	41
453.923	1	23
454.093	1	26
454.264	1	40
454.434	1	22
454.605	1	22
454.775	1	31
454.946	1	26
455.116	1	26
455.287	1	23
455.457	1	17
455.628	1	18
455.798	1	31
455.968	1	25
456.139	1	21
456.309	1	26
456.480	1	17
456.650	1	27
456.821	1	23
456.991	1	33
457.161	1	27
457.332	1	26
457.502	1	16
457.673	1	21
457.843	1	17
458.014	1	28
458.184	1	24
458.355	1	14
458.525	1	17
458.695	1	16
458.866	1	16
459.036	1	32
459.207	1	25
459.377	1	10
459.548	1	33
459.718	1	23
459.888	1	27
460.059	1	22
460.229	1	20
460.400	1	28
460.570	1	23
460.740	1	33
460.911	1	33
461.081	1	18
461.252	1	25
461.422	1	28
461.593	1	17
461.763	1	22
461.933	1	33
462.104	1	23
462.274	1	21
462.445	1	16
462.615	1	22
462.785	1	18
462.956	1	29
463.126	1	27
463.297	1	17
463.467	1	13
463.638	1	13
463.808	1	24
463.978	1	13
464.149	1	17
464.319	1	25
464.490	1	31
464.660	1	15
464.830	1	27
465.001	1	28
465.171	1	14
465.342	1	36
465.512	1	5
465.682	1	20
465.853	1	22
466.023	1	22
466.194	1	19
466.364	1	31
466.534	1	21
466.705	1	29
466.875	1	22
467.045	1	17
467.216	1	25
467.386	1	14
467.557	1	9
467.727	1	15
467.897	1	17
468.068	1	13
468.238	1	15
468.409	1	12
468.579	1	24
468.749	1	25
468.920	1	10
469.090	1	20
469.260	1	16
469.431	1	12
469.601	1	20
469.772	1	19
469.942	1	20
470.112	1	18
470.283	1	19
470.453	1	20
470.623	1	18
470.794	1	10
470.964	1	15
471.135	1	25
471.305	1	9
471.475	1	17
471.646	1	10
471.816	1	17
471.986	1	3
472.157	1	28
472.327	1	17
472.497	1	12
472.668	1	14
472.838	1	21
473.009	1	20
473.179	1	12
473.349	1	10
473.520	1	25
473.690	1	20
473.860	1	18
474.031	1	22
474.201	1	22
474.371	1	32
474.542	1	19
474.712	1	19
474.882	1	18
475.053	1	29
475.223	1	9
475.394	1	27
475.564	1	17
475.734	1	25
475.905	1	33
476.075	1	14
476.245	1	35
476.416	1	23
476.586	1	23
476.756	1	16
476.927	1	22
477.097	1	19
477.267	1	17
477.438	1	16
477.608	1	13
477.778	1	16
477.949	1	11
478.119	1	24
478.289	1	26
478.460	1	27
478.630	1	13
478.800	1	14
478.971	1	20
479.141	1	10
479.311	1	7
479.482	1	20
479.652	1	18
479.822	1	20
479.993	1	19
480.163	1	18
480.333	1	17
480.504	1	18
480.674	1	12
480.844	1	7
481.015	1	16
481.185	1	19
481.355	1	18
481.525	1	5
481.696	1	19
481.866	1	17
482.036	1	12
482.207	1	7
482.377	1	16
482.547	1	17
482.718	1	8
482.888	1	12
483.058	1	11
483.229	1	13
483.399	1	24
483.569	1	13
483.740	1	18
483.910	1	20
484.080	1	16
484.250	1	15
484.421	1	16
484.591	1	17
484.761	1	17
484.932	1	26
485.102	1	28
485.272	1	14
485.443	1	21
485.613	1	19
485.783	1	8
485.953	1	12
486.124	1	20
486.294	1	8
486.464	1	5
486.635	1	25
486.805	1	18
486.975	1	7
487.146	1	19
487.316	1	12
487.486	1	10
487.656	1	8
487.827	1	12
487.997	1	5
488.167	1	15
488.338	1	23
488.508	1	7
488.678	1	15
488.848	1	22
489.019	1	5
489.189	1	20
489.359	1	10
489.529	1	16
489.700	1	12
489.870	1	26
490.040	1	6
490.211	1	4
490.381	1	20
490.551	1	16
490.721	1	15
490.892	1	11
491.062	1	14
491.232	1	13
491.402	1	12
491.573	1	3
491.743	1	10
491.913	1	9
492.084	1	10
492.254	1	6
492.424	1	7
492.594	1	3
492.765	1	10
492.935	1	9
493.105	1	20
493.275	1	11
493.446	1	23
493.616	1	16
493.786	1	5
493.956	1	21
494.127	1	13
494.297	1	10
494.467	1	14
494.637	1	6
494.808	1	16
494.978	1	5
495.148	1	8
495.318	1	8
495.489	1	17
495.659	1	15
495.829	1	9
495.999	1	-1
496.170	1	14
496.340	1	6
496.510	1	13
496.680	1	5
496.851	1	11
497.021	1	11
497.191	1	5
497.361	1	17
497.532	1	1
497.702	1	9
497.872	1	4
498.042	1	11
498.213	1	7
498.383	1	6
498.553	1	6
498.723	1	11
498.894	1	11
499.064	1	10
499.234	1	19
499.404	1	6
499.574	1	13
499.745	1	13
499.915	1	8
500.085	1	11
500.255	1	19
500.426	1	0
500.596	1	15
500.766	1	13
500.936	1	10
501.106	1	8
501.277	1	6
501.447	1	7
501.617	1	6
501.787	1	-1
501.958	1	6
502.128	1	6
502.298	1	12
502.468	1	12
502.638	1	17
502.809	1	7
502.979	1	-2
503.149	1	0
503.319	1	6
503.489	1	12
503.660	1	17
503.830	1	3
504.000	1	12
504.170	1	8
504.340	1	6
504.511	1	21
504.681	1	1
504.851	1	11
505.021	1	8
505.192	1	12
505.362	1	17
505.532	1	12
505.702	1	5
505.872	1	17
506.043	1	8
506.213	1	9
506.383	1	12
506.553	1	16
506.723	1	25
506.893	1	10
507.064	1	19
507.234	1	14
507.404	1	4
507.574	1	5
507.744	1	9
507.915	1	10
508.085	1	21
508.255	1	7
508.425	1	4
508.595	1	16
508.766	1	10
508.936	1	-3
509.106	1	5
509.276	1	10
509.446	1	10
509.616	1	9
509.787	1	16
509.957	1	14
510.127	1	9
510.297	1	1
510.467	1	3
510.638	1	7
510.808	1	-1
510.978	1	4
511.148	1	6
511.318	1	7
511.488	1	-5
511.659	1	5
511.829	1	-2
511.999	1	8
512.169	1	5
512.339	1	8
512.509	1	14
512.680	1	1
512.850	1	1
513.020	1	8
513.190	1	8
513.360	1	5
513.530	1	8
513.700	1	11
513.871	1	9
514.041	1	11
514.211	1	18
514.381	1	10
514.551	1	3
514.721	1	3
514.892	1	17
515.062	1	8
515.232	1	19
515.402	1	-1
515.572	1	0
515.742	1	3
515.912	1	9
516.083	1	2
516.253	1	7
516.423	1	8
516.593	1	9
516.763	1	22
516.933	1	12
517.104	1	4
517.274	1	5
517.444	1	11
517.614	1	-2
517.784	1	2
517.954	1	9
518.124	1	4
518.294	1	6
518.465	1	7
518.635	1	10
518.805	1	-7
518.975	1	5
519.145	1	7
519.315	1	2
519.485	1	-2
519.656	1	11
519.826	1	7
519.996	1	1
520.166	1	5
520.336	1	18
520.506	1	4
520.676	1	-11
520.846	1	12
521.017	1	10
521.187	1	7
521.357	1	18
521.527	1	8
521.697	1	-2
521.867	1	4
522.037	1	13
522.207	1	13
522.377	1	12
522.548	1	12
522.718	1	3
522.888	1	16
523.058	1	4
523.228	1	13
523.398	1	3
523.568	1	5
523.738	1	2
523.909	1	8
524.079	1	7
524.249	1	10
524.419	1	2
524.589	1	3
524.759	1	-8
524.929	1	9
525.099	1	8
525.269	1	-1
525.439	1	4
525.610	1	13
525.780	1	3
525.950	1	7
526.120	1	8
526.290	1	8
526.460	1	-6
526.630	1	10
526.800	1	8
526.970	1	10
527.140	1	11
527.311	1	3
527.481	1	6
527.651	1	11
527.821	1	-7
527.991	1	14
528.161	1	21
528.331	1	4
528.501	1	-1
528.671	1	-1
528.841	1	9
529.011	1	-1
529.181	1	13
529.352	1	2
529.522	1	-3
529.692	1	10
529.862	1	0
530.032	1	8
530.202	1	3
530.372	1	11
530.542	1	8
530.712	1	-3
530.882	1	6
531.052	1	9
531.222	1	-2
531.392	1	4
531.563	1	7
531.733	1	12
531.903	1	6
532.073	1	17
532.243	1	1
532.413	1	4
532.583	1	4
532.753	1	11
532.923	1	-3
533.093	1	2
533.263	1	0
533.433	1	8
533.603	1	9
533.773	1	7
533.943	1	0
534.113	1	11
534.284	1	-2
534.454	1	14
534.624	1	6
534.794	1	-5
534.964	1	7
535.134	1	12
535.304	1	9
535.474	1	9
535.644	1	5
535.814	1	-10
535.984	1	-10
536.154	1	-6
536.324	1	5
536.494	1	6
536.664	1	7
536.834	1	-3
537.004	1	5
537.174	1	8
537.344	1	0
537.514	1	0
537.685	1	3
537.855	1	5
538.025	1	3
538.195	1	8
538.365	1	10
538.535	1	6
538.705	1	9
538.875	1	4
539.045	1	6
539.215	1	-2
539.385	1	11
539.555	1	5
539.725	1	8
539.895	1	-3
540.065	1	20
540.235	1	18
540.405	1	4
540.575	1	0
540.745	1	0
540.915	1	12
541.085	1	4
541.255	1	6
541.425	1	0
541.595	1	8
541.765	1	-4
541.935	1	-1
542.105	1	-3
542.275	1	1
542.445	1	3
542.615	1	4
542.785	1	11
542.955	1	-4
543.125	1	1
543.295	1	6
543.465	1	-2
543.635	1	13
543.805	1	17
543.975	1	2
544.145	1	-1
544.315	1	10
544.485	1	18
544.655	1	7
544.825	1	0
544.995	1	12
545.165	1	-6
545.335	1	5
545.505	1	-2
545.675	1	6
545.845	1	9
546.015	1	5
546.185	1	14
546.355	1	-1
546.525	1	8
546.695	1	2
546.865	1	-10
547.035	1	7
547.205	1	-11
547.375	1	6
547.545	1	11
547.715	1	9
547.885	1	15
548.055	1	-6
548.225	1	-5
548.395	1	1
548.565	1	1
548.735	1	2
548.905	1	5
549.075	1	9
549.245	1	0
549.415	1	-2
549.585	1	13
549.755	1	3
549.925	1	-4
550.095	1	2
550.265	1	-2
550.435	1	3
550.605	1	1
550.775	1	7
550.945	1	11
551.115	1	0
551.285	1	9
551.455	1	-6
551.625	1	5
551.795	1	8
551.965	1	-7
552.135	1	6
552.305	1	2
552.475	1	-6
552.645	1	4
552.815	1	5
552.985	1	20
553.155	1	4
553.325	1	3
553.495	1	-9
553.665	1	8
553.835	1	6
554.004	1	-3
554.174	1	5
554.344	1	4
554.514	1	-2
554.684	1	10
554.854	1	15
555.024	1	0
555.194	1	-13
555.364	1	6
555.534	1	7
555.704	1	-1
555.874	1	14
556.044	1	8
556.214	1	-1
556.384	1	-1
556.554	1	11
556.724	1	-1
556.894	1	5
557.064	1	1
557.234	1	4
557.404	1	9
557.573	1	3
557.743	1	7
557.913	1	2
558.083	1	-4
558.253	1	9
558.423	1	4
558.593	1	11
558.763	1	-10
558.933	1	6
559.103	1	8
559.273	1	7
559.443	1	7
559.613	1	1
559.783	1	-3
559.953	1	3
560.122	1	7
560.292	1	6
560.462	1	0
560.632	1	3
560.802	1	0
560.972	1	3
561.142	1	9
561.312	1	3
561.482	1	7
561.652	1	12
561.822	1	5
561.992	1	2
562.162	1	0
562.331	1	8
562.501	1	-5
562.671	1	5
562.841	1	-9
563.011	1	12
563.181	1	3
563.351	1	-5
563.521	1	9
563.691	1	3
563.861	1	-1
564.031	1	12
564.201	1	6
564.370	1	4
564.540	1	0
564.710	1	0
564.880	1	10
565.050	1	8
565.220	1	4
565.390	1	6
565.560	1	4
565.730	1	-2
565.900	1	11
566.069	1	13
566.239	1	-1
566.409	1	1
566.579	1	3
566.749	1	0
566.919	1	8
567.089	1	8
567.259	1	5
567.429	1	2
567.599	1	9
567.768	1	4
567.938	1	0
568.108	1	0
568.278	1	1
568.448	1	-4
568.618	1	3
568.788	1	6
568.958	1	1
569.128	1	12
569.297	1	-1
569.467	1	-3
569.637	1	8
569.807	1	0
569.977	1	15
570.147	1	12
570.317	1	-3
570.487	1	9
570.656	1	16
570.826	1	-5
570.996	1	-5
571.166	1	8
571.336	1	3
571.506	1	8
571.676	1	14
571.846	1	15
572.015	1	2
572.185	1	2
572.355	1	6
572.525	1	1
572.695	1	-1
572.865	1	-9
573.035	1	6
573.205	1	7
573.374	1	-11
573.544	1	8
573.714	1	4
573.884	1	12
574.054	1	2
574.224	1	4
574.394	1	6
574.563	1	-6
574.733	1	0
574.903	1	3
575.073	1	4
575.243	1	-4
575.413	1	5
575.583	1	-5
575.752	1	-1
575.922	1	1
576.092	1	6
576.262	1	4
576.432	1	3
576.602	1	3
576.772	1	5
576.941	1	9
577.111	1	-4
577.281	1	-4
577.451	1	-5
577.621	1	16
577.791	1	5
577.960	1	2
578.130	1	5
578.300	1	2
578.470	1	4
578.640	1	2
578.810	1	-1
578.979	1	4
579.149	1	3
579.319	1	-4
579.489	1	5
579.659	1	-5
579.829	1	7
579.998	1	9
580.168	1	2
580.338	1	9
580.508	1	2
580.678	1	0
580.848	1	6
581.017	1	-4
581.187	1	6
581.357	1	-1
581.527	1	6
581.697	1	11
581.867	1	3
582.036	1	1
582.206	1	-6
582.376	1	16
582.546	1	-11
582.716	1	1
582.885	1	-5
583.055	1	0
583.225	1	-14
583.395	1	6
583.565	1	-5
583.735	1	3
583.904	1	12
584.074	1	0
584.244	1	10
584.414	1	5
584.584	1	-5
584.753	1	-6
584.923	1	4
585.093	1	1
585.263	1	5
585.433	1	-1
585.602	1	-6
585.772	1	-5
585.942	1	-4
586.112	1	6
586.282	1	-7
586.451	1	3
586.621	1	-4
586.791	1	-2
586.961	1	8
587.131	1	-1
587.300	1	-4
587.470	1	8
587.640	1	11
587.810	1	2
587.980	1	-10
588.149	1	0
588.319	1	1
588.489	1	9
588.659	1	3
588.829	1	0
588.998	1	9
589.168	1	5
589.338	1	3
589.508	1	12
589.677	1	-12
589.847	1	-3
590.017	1	13
590.187	1	-4
590.357	1	6
590.526	1	7
590.696	1	4
590.866	1	8
591.036	1	0
591.205	1	14
591.375	1	-1
591.545	1	-2
591.715	1	5
591.885	1	-6
592.054	1	3
592.224	1	1
592.394	1	5
592.564	1	-1
592.733	1	4
592.903	1	1
593.073	1	0
593.243	1	7
593.412	1	5
593.582	1	3
593.752	1	-2
593.922	1	-1
594.091	1	-1
594.261	1	-2
594.431	1	5
594.601	1	3
594.771	1	6
594.940	1	0
595.110	1	4
595.280	1	14
595.450	1	0
595.619	1	8
595.789	1	3
595.959	1	1
596.129	1	-2
596.298	1	5
596.468	1	4
596.638	1	14
596.808	1	6
596.977	1	4
597.147	1	2
597.317	1	-7
597.487	1	6
597.656	1	5
597.826	1	11
597.996	1	7
598.166	1	0
598.335	1	-4
598.505	1	7
598.675	1	2
598.844	1	1
599.014	1	5
599.184	1	-4
599.354	1	-6
599.523	1	10
599.693	1	-7
599.863	1	0
600.033	1	0
600.202	1	9
600.372	1	2
600.542	1	14
600.712	1	-5
600.881	1	-5
601.051	1	14
601.221	1	7
601.390	1	8
601.560	1	11
601.730	1	4
601.900	1	10
602.069	1	6
602.239	1	-5
602.409	1	-8
602.578	1	-3
602.748	1	1
602.918	1	10
603.088	1	12
603.257	1	10
603.427	1	-9
603.597	1	6
603.767	1	4
603.936	1	-2
604.106	1	1
604.276	1	7
604.445	1	0
604.615	1	6
604.785	1	0
604.954	1	1
605.124	1	-4
605.294	1	1
605.464	1	-4
605.633	1	-5
605.803	1	1
605.973	1	3
606.142	1	-2
606.312	1	17
606.482	1	-9
606.652	1	3
606.821	1	0
606.991	1	-3
607.161	1	-9
607.330	1	4
607.500	1	7
607.670	1	-4
607.839	1	11
608.009	1	19
608.179	1	7
608.348	1	2
608.518	1	-6
608.688	1	15
608.858	1	2
609.027	1	-6
609.197	1	0
609.367	1	10
609.536	1	18
609.706	1	-5
609.876	1	3
610.045	1	2
610.215	1	1
610.385	1	-5
610.554	1	-5
610.724	1	3
610.894	1	-2
611.063	1	7
611.233	1	3
611.403	1	-2
611.572	1	-1
611.742	1	7
611.912	1	10
612.081	1	-2
612.251	1	3
612.421	1	2
612.590	1	7
612.760	1	-3
612.930	1	7
613.099	1	11
613.269	1	16
613.439	1	7
613.608	1	0
613.778	1	0
613.948	1	3
614.117	1	-2
614.287	1	13
614.457	1	6
614.626	1	-2
614.796	1	13
614.966	1	-3
615.135	1	-4
615.305	1	0
615.475	1	7
615.644	1	1
615.814	1	-1
615.984	1	0
616.153	1	1
616.323	1	10
616.493	1	0
616.662	1	14
616.832	1	3
617.002	1	3
617.171	1	6
617.341	1	-5
617.511	1	2
617.680	1	2
617.850	1	3
618.019	1	14
618.189	1	12
618.359	1	-1
618.528	1	0
618.698	1	10
618.868	1	-2
619.037	1	4
619.207	1	-6
619.377	1	-5
619.546	1	5
619.716	1	4
619.885	1	10
620.055	1	-10
620.225	1	1
620.394	1	-3
620.564	1	8
620.734	1	10
620.903	1	-3
621.073	1	10
621.242	1	0
621.412	1	6
621.582	1	5
621.751	1	8
621.921	1	7
622.091	1	-1
622.260	1	10
622.430	1	14
622.599	1	1
622.769	1	3
622.939	1	11
623.108	1	10
623.278	1	-5
623.448	1	1
623.617	1	-1
623.787	1	8
623.956	1	9
624.126	1	4
624.296	1	5
624.465	1	6
624.635	1	11
624.804	1	5
624.974	1	0
625.144	1	10
625.313	1	-1
625.483	1	1
625.652	1	2
625.822	1	1
625.992	1	1
626.161	1	5
626.331	1	2
626.501	1	-1
626.670	1	6
626.840	1	-1
627.009	1	-4
627.179	1	15
627.348	1	11
627.518	1	-2
627.688	1	11
627.857	1	15
628.027	1	1
628.196	1	4
628.366	1	10
628.536	1	11
628.705	1	1
628.875	1	5
629.044	1	-2
629.214	1	10
629.384	1	6
629.553	1	14
629.723	1	8
629.892	1	5
630.062	1	2
630.232	1	2
630.401	1	8
630.571	1	4
630.740	1	6
630.910	1	-2
631.079	1	7
631.249	1	0
631.419	1	13
631.588	1	-2
631.758	1	14
631.927	1	-2
632.097	1	3
632.266	1	-2
632.436	1	2
632.606	1	-7
632.775	1	8
632.945	1	1
633.114	1	20
633.284	1	9
633.453	1	8
633.623	1	-3
633.793	1	10
633.962	1	5
634.132	1	11
634.301	1	3
634.471	1	5
634.640	1	13
634.810	1	9
634.979	1	14
635.149	1	-1
635.319	1	8
635.488	1	3
635.658	1	-4
635.827	1	-1
635.997	1	0
636.166	1	5
636.336	1	0
636.505	1	8
636.675	1	-3
636.845	1	11
637.014	1	-1
637.184	1	9
637.353	1	4
637.523	1	6
637.692	1	8
637.862	1	13
638.031	1	6
638.201	1	8
638.370	1	0
638.540	1	16
638.710	1	3
638.879	1	-1
639.049	1	4
639.218	1	7
639.388	1	-3
639.557	1	5
639.727	1	6
639.896	1	10
640.066	1	5
640.235	1	5
640.405	1	12
640.574	1	3
640.744	1	0
640.914	1	12
641.083	1	8
641.253	1	-2
641.422	1	8
641.592	1	18
641.761	1	3
641.931	1	2
642.100	1	13
642.270	1	6
642.439	1	5
642.609	1	11
642.778	1	8
642.948	1	0
643.117	1	7
643.287	1	3
643.456	1	5
643.626	1	11
643.795	1	-5
643.965	1	10
644.134	1	5
644.304	1	4
644.473	1	7
644.643	1	-2
644.812	1	4
644.982	1	3
645.151	1	4
645.321	1	-4
645.490	1	5
645.660	1	2
645.829	1	1
645.999	1	-5
646.168	1	15
646.338	1	10
646.507	1	-2
646.677	1	6
646.846	1	3
647.016	1	-7
647.185	1	5
647.355	1	-16
647.524	1	19
647.694	1	13
647.863	1	8
648.033	1	11
648.202	1	12
648.372	1	4
648.541	1	-6
648.711	1	10
648.880	1	3
649.050	1	-5
649.219	1	-2
649.389	1	11
649.558	1	8
649.728	1	4
649.897	1	-5
650.067	1	14
650.236	1	5
650.406	1	1
650.575	1	9
650.745	1	8
650.914	1	-1
651.084	1	-7
651.253	1	0
651.423	1	6
651.592	1	4
651.762	1	5
651.931	1	11
652.101	1	8
652.270	1	8
652.440	1	12
652.609	1	-4
652.778	1	-1
652.948	1	3
653.117	1	3
653.287	1	7
653.456	1	13
653.626	1	11
653.795	1	10
653.965	1	9
654.134	1	18
654.304	1	-5
654.473	1	7
654.643	1	5
654.812	1	9
654.982	1	5
655.151	1	2
655.320	1	2
655.490	1	3
655.659	1	1
655.829	1	4
655.998	1	12
656.168	1	6
656.337	1	1
656.507	1	2
656.676	1	12
656.846	1	13
657.015	1	13
657.184	1	13
657.354	1	8
657.523	1	4
657.693	1	12
657.862	1	12
658.032	1	2
658.201	1	7
658.371	1	10
658.540	1	6
658.709	1	-3
658.879	1	13
659.048	1	7
659.218	1	1
659.387	1	5
659.557	1	3
659.726	1	16
659.895	1	-5
660.065	1	-6
660.234	1	1
660.404	1	11
660.573	1	8
660.743	1	0
660.912	1	15
661.081	1	15
661.251	1	8
661.420	1	14
661.590	1	8
661.759	1	20
661.929	1	12
662.098	1	14
662.267	1	6
662.437	1	15
662.606	1	3
662.776	1	10
662.945	1	5
663.115	1	4
663.284	1	4
663.453	1	5
663.623	1	3
663.792	1	7
663.962	1	-2
664.131	1	10
664.300	1	15
664.470	1	0
664.639	1	10
664.809	1	8
664.978	1	17
665.148	1	12
665.317	1	7
665.486	1	3
665.656	1	1
665.825	1	12
665.995	1	-1
666.164	1	-1
666.333	1	12
666.503	1	13
666.672	1	5
666.842	1	4
667.011	1	11
667.180	1	14
667.350	1	4
667.519	1	3
667.689	1	7
667.858	1	5
668.027	1	13
668.197	1	11
668.366	1	1
668.536	1	14
668.705	1	7
668.874	1	9
669.044	1	-6
669.213	1	8
669.382	1	2
669.552	1	16
669.721	1	15
669.891	1	15
670.060	1	12
670.229	1	18
670.399	1	1
670.568	1	15
670.738	1	17
670.907	1	1
671.076	1	7
671.246	1	9
671.415	1	16
671.584	1	1
671.754	1	3
671.923	1	4
672.093	1	12
672.262	1	-2
672.431	1	7
672.601	1	-1
672.770	1	-5
672.939	1	23
673.109	1	5
673.278	1	15
673.448	1	15
673.617	1	6
673.786	1	13
