325.333	1	8
325.504	1	3
325.675	1	-2
325.846	1	-6
326.017	1	-2
326.188	1	4
326.359	1	2
326.531	1	-16
326.702	1	0
326.873	1	13
327.044	1	4
327.215	1	4
327.386	1	7
327.557	1	-4
327.728	1	-1
327.899	1	-5
328.070	1	6
328.241	1	5
328.412	1	-4
328.583	1	-1
328.754	1	6
328.926	1	3
329.097	1	-6
329.268	1	7
329.439	1	5
329.610	1	12
329.781	1	-3
329.952	1	8
330.123	1	11
330.294	1	3
330.465	1	-1
330.636	1	11
330.807	1	-4
330.978	1	-1
331.149	1	-2
331.320	1	7
331.492	1	1
331.663	1	2
331.834	1	4
332.005	1	5
332.176	1	20
332.347	1	12
332.518	1	0
332.689	1	6
332.860	1	-6
333.031	1	2
333.202	1	-6
333.373	1	10
333.544	1	4
333.715	1	13
333.886	1	-1
334.057	1	12
334.228	1	0
334.399	1	-1
334.570	1	8
334.741	1	-2
334.912	1	9
335.084	1	10
335.255	1	2
335.426	1	-5
335.597	1	2
335.768	1	0
335.939	1	15
336.110	1	-4
336.281	1	-4
336.452	1	-5
336.623	1	6
336.794	1	16
336.965	1	-2
337.136	1	11
337.307	1	6
337.478	1	6
337.649	1	4
337.820	1	-5
337.991	1	8
338.162	1	4
338.333	1	0
338.504	1	-11
338.675	1	6
338.846	1	3
339.017	1	3
339.188	1	-2
339.359	1	0
339.530	1	1
339.701	1	2
339.872	1	15
340.043	1	5
340.214	1	9
340.385	1	23
340.556	1	-2
340.727	1	9
340.898	1	18
341.069	1	0
341.240	1	7
341.411	1	7
341.582	1	14
341.753	1	-4
341.924	1	5
342.095	1	11
342.266	1	19
342.437	1	19
342.608	1	-1
342.779	1	13
342.950	1	13
343.121	1	5
343.292	1	-4
343.463	1	1
343.634	1	10
343.805	1	10
343.976	1	11
344.147	1	3
344.318	1	9
344.489	1	-5
344.660	1	10
344.831	1	4
345.002	1	7
345.173	1	4
345.344	1	4
345.515	1	7
345.686	1	12
345.857	1	4
346.028	1	15
346.199	1	5
346.370	1	4
346.541	1	5
346.712	1	0
346.883	1	8
347.054	1	-2
347.225	1	9
347.396	1	16
347.567	1	3
347.738	1	-1
347.909	1	17
348.080	1	5
348.251	1	11
348.422	1	13
348.593	1	4
348.764	1	3
348.935	1	0
349.106	1	8
349.277	1	12
349.448	1	13
349.619	1	2
349.790	1	13
349.961	1	16
350.132	1	18
350.303	1	11
350.474	1	5
350.645	1	21
350.816	1	5
350.987	1	17
351.157	1	3
351.328	1	9
351.499	1	13
351.670	1	4
351.841	1	12
352.012	1	12
352.183	1	11
352.354	1	20
352.525	1	16
352.696	1	15
352.867	1	5
353.038	1	13
353.209	1	5
353.380	1	18
353.551	1	5
353.722	1	6
353.893	1	8
354.064	1	25
354.235	1	6
354.406	1	-3
354.576	1	0
354.747	1	7
354.918	1	13
355.089	1	17
355.260	1	14
355.431	1	9
355.602	1	7
355.773	1	18
355.944	1	13
356.115	1	8
356.286	1	17
356.457	1	7
356.628	1	5
356.799	1	8
356.970	1	21
357.141	1	5
357.311	1	2
357.482	1	18
357.653	1	17
357.824	1	15
357.995	1	5
358.166	1	2
358.337	1	8
358.508	1	20
358.679	1	13
358.850	1	14
359.021	1	3
359.192	1	7
359.363	1	4
359.533	1	10
359.704	1	7
359.875	1	10
360.046	1	10
360.217	1	5
360.388	1	9
360.559	1	-1
360.730	1	17
360.901	1	11
361.072	1	14
361.243	1	10
361.414	1	15
361.584	1	8
361.755	1	20
361.926	1	12
362.097	1	13
362.268	1	13
362.439	1	-3
362.610	1	22
362.781	1	0
362.952	1	5
363.123	1	9
363.293	1	0
363.464	1	16
363.635	1	12
363.806	1	6
363.977	1	13
364.148	1	12
364.319	1	18
364.490	1	13
364.661	1	11
364.832	1	19
365.002	1	19
365.173	1	11
365.344	1	22
365.515	1	15
365.686	1	5
365.857	1	12
366.028	1	22
366.199	1	13
366.370	1	6
366.540	1	4
366.711	1	5
366.882	1	5
367.053	1	-2
367.224	1	28
367.395	1	11
367.566	1	17
367.737	1	14
367.908	1	15
368.078	1	17
368.249	1	19
368.420	1	12
368.591	1	12
368.762	1	17
368.933	1	9
369.104	1	2
369.274	1	14
369.445	1	8
369.616	1	10
369.787	1	10
369.958	1	20
370.129	1	3
370.300	1	23
370.471	1	15
370.641	1	10
370.812	1	17
370.983	1	7
371.154	1	11
371.325	1	26
371.496	1	18
371.667	1	13
371.837	1	13
372.008	1	9
372.179	1	9
372.350	1	28
372.521	1	12
372.692	1	16
372.863	1	18
373.033	1	2
373.204	1	6
373.375	1	7
373.546	1	27
373.717	1	18
373.888	1	25
374.059	1	13
374.229	1	27
374.400	1	12
374.571	1	13
374.742	1	17
374.913	1	20
375.084	1	15
375.254	1	18
375.425	1	14
375.596	1	10
375.767	1	9
375.938	1	13
376.109	1	19
376.279	1	7
376.450	1	14
376.621	1	17
376.792	1	7
376.963	1	6
377.134	1	24
377.304	1	10
377.475	1	8
377.646	1	13
377.817	1	6
377.988	1	4
378.159	1	13
378.329	1	17
378.500	1	23
378.671	1	18
378.842	1	16
379.013	1	1
379.184	1	18
379.354	1	23
379.525	1	19
379.696	1	17
379.867	1	11
380.038	1	16
380.209	1	12
380.379	1	15
380.550	1	4
380.721	1	20
380.892	1	19
381.063	1	18
381.233	1	25
381.404	1	8
381.575	1	19
381.746	1	12
381.917	1	8
382.087	1	21
382.258	1	13
382.429	1	15
382.600	1	20
382.771	1	10
382.941	1	11
383.112	1	10
383.283	1	16
383.454	1	14
383.625	1	11
383.795	1	13
383.966	1	21
384.137	1	22
384.308	1	20
384.479	1	19
384.649	1	23
384.820	1	16
384.991	1	8
385.162	1	9
385.333	1	17
385.503	1	13
385.674	1	2
385.845	1	19
386.016	1	11
386.187	1	13
386.357	1	20
386.528	1	23
386.699	1	16
386.870	1	32
387.041	1	18
387.211	1	15
387.382	1	21
387.553	1	18
387.724	1	7
387.894	1	13
388.065	1	22
388.236	1	19
388.407	1	25
388.578	1	23
388.748	1	13
388.919	1	24
389.090	1	13
389.261	1	12
389.431	1	14
389.602	1	16
389.773	1	9
389.944	1	14
390.114	1	18
390.285	1	17
390.456	1	11
390.627	1	16
390.798	1	25
390.968	1	15
391.139	1	24
391.310	1	4
391.481	1	20
391.651	1	10
391.822	1	9
391.993	1	19
392.164	1	21
392.334	1	19
392.505	1	4
392.676	1	22
392.847	1	22
393.017	1	25
393.188	1	24
393.359	1	8
393.530	1	10
393.700	1	4
393.871	1	13
394.042	1	13
394.213	1	10
394.383	1	18
394.554	1	28
394.725	1	20
394.896	1	10
395.066	1	18
395.237	1	13
395.408	1	16
395.579	1	14
395.749	1	20
395.920	1	24
396.091	1	25
396.262	1	16
396.432	1	13
396.603	1	26
396.774	1	25
396.945	1	17
397.115	1	16
397.286	1	21
397.457	1	16
397.627	1	19
397.798	1	30
397.969	1	15
398.140	1	18
398.310	1	11
398.481	1	23
398.652	1	16
398.823	1	8
398.993	1	8
399.164	1	20
399.335	1	31
399.505	1	24
399.676	1	16
399.847	1	13
400.018	1	11
400.188	1	13
400.359	1	17
400.530	1	6
400.700	1	25
400.871	1	17
401.042	1	15
401.213	1	14
401.383	1	30
401.554	1	28
401.725	1	35
401.895	1	22
402.066	1	18
402.237	1	26
402.408	1	15
402.578	1	22
402.749	1	20
402.920	1	15
403.090	1	18
403.261	1	33
403.432	1	17
403.603	1	27
403.773	1	29
403.944	1	24
404.115	1	28
404.285	1	24
404.456	1	19
404.627	1	19
404.797	1	7
404.968	1	10
405.139	1	16
405.310	1	27
405.480	1	25
405.651	1	15
405.822	1	23
405.992	1	8
406.163	1	17
406.334	1	7
406.504	1	14
406.675	1	26
406.846	1	27
407.016	1	32
407.187	1	18
407.358	1	11
407.528	1	9
407.699	1	13
407.870	1	14
408.041	1	19
408.211	1	27
408.382	1	10
408.553	1	8
408.723	1	23
408.894	1	17
409.065	1	18
409.235	1	18
409.406	1	18
409.577	1	13
409.747	1	26
409.918	1	21
410.089	1	28
410.259	1	24
410.430	1	17
410.601	1	17
410.771	1	16
410.942	1	31
411.113	1	16
411.283	1	11
411.454	1	16
411.625	1	17
411.795	1	28
411.966	1	18
412.137	1	23
412.307	1	3
412.478	1	25
412.649	1	27
412.819	1	18
412.990	1	12
413.161	1	23
413.331	1	12
413.502	1	27
413.672	1	13
413.843	1	16
414.014	1	22
414.184	1	21
414.355	1	14
414.526	1	16
414.696	1	25
414.867	1	26
415.038	1	5
415.208	1	16
415.379	1	22
415.550	1	22
415.720	1	11
415.891	1	16
416.062	1	13
416.232	1	23
416.403	1	21
416.573	1	23
416.744	1	22
416.915	1	27
417.085	1	16
417.256	1	26
417.427	1	19
417.597	1	8
417.768	1	4
417.939	1	23
418.109	1	27
418.280	1	21
418.450	1	11
418.621	1	2
418.792	1	19
418.962	1	15
419.133	1	28
419.304	1	21
419.474	1	11
419.645	1	19
419.815	1	17
419.986	1	22
420.157	1	16
420.327	1	22
420.498	1	26
420.669	1	20
420.839	1	21
421.010	1	19
421.180	1	23
421.351	1	24
421.522	1	27
421.692	1	17
421.863	1	18
422.033	1	32
422.204	1	21
422.375	1	15
422.545	1	27
422.716	1	14
422.886	1	19
423.057	1	23
423.228	1	22
423.398	1	13
423.569	1	26
423.740	1	4
423.910	1	4
424.081	1	22
424.251	1	14
424.422	1	22
424.593	1	15
424.763	1	17
424.934	1	17
425.104	1	14
425.275	1	25
425.445	1	17
425.616	1	9
425.787	1	12
425.957	1	19
426.128	1	18
426.298	1	16
426.469	1	11
426.640	1	23
426.810	1	18
426.981	1	23
427.151	1	16
427.322	1	28
427.493	1	26
427.663	1	22
427.834	1	18
428.004	1	27
428.175	1	15
428.345	1	13
428.516	1	10
428.687	1	21
428.857	1	13
429.028	1	14
429.198	1	26
429.369	1	24
429.540	1	25
429.710	1	10
429.881	1	23
430.051	1	14
430.222	1	18
430.392	1	8
430.563	1	19
430.734	1	23
430.904	1	22
431.075	1	26
431.245	1	11
431.416	1	25
431.586	1	16
431.757	1	18
431.927	1	15
432.098	1	22
432.269	1	7
432.439	1	16
432.610	1	22
432.780	1	25
432.951	1	13
433.121	1	20
433.292	1	19
433.462	1	15
433.633	1	28
433.804	1	17
433.974	1	20
434.145	1	27
434.315	1	19
434.486	1	17
434.656	1	28
434.827	1	17
434.997	1	6
435.168	1	21
435.339	1	20
435.509	1	12
435.680	1	14
435.850	1	13
436.021	1	18
436.191	1	13
436.362	1	19
436.532	1	15
436.703	1	13
436.873	1	24
437.044	1	9
437.214	1	12
437.385	1	11
437.556	1	20
437.726	1	29
437.897	1	30
438.067	1	14
438.238	1	11
438.408	1	21
438.579	1	20
438.749	1	14
438.920	1	6
439.090	1	11
439.261	1	11
439.431	1	16
439.602	1	18
439.772	1	20
439.943	1	27
440.113	1	15
440.284	1	24
440.455	1	17
440.625	1	16
440.796	1	15
440.966	1	10
441.137	1	12
441.307	1	11
441.478	1	21
441.648	1	16
441.819	1	20
441.989	1	16
442.160	1	18
442.330	1	24
442.501	1	26
442.671	1	12
442.842	1	4
443.012	1	0
443.183	1	17
443.353	1	11
443.524	1	20
443.694	1	24
443.865	1	18
444.035	1	15
444.206	1	14
444.376	1	7
444.547	1	29
444.717	1	16
444.888	1	8
445.058	1	29
445.229	1	14
445.399	1	14
445.570	1	16
445.740	1	9
445.911	1	14
446.081	1	11
446.252	1	16
446.422	1	10
446.593	1	13
446.763	1	10
446.934	1	12
447.104	1	8
447.275	1	16
447.445	1	16
447.616	1	23
447.786	1	5
447.957	1	17
448.127	1	14
448.298	1	21
448.468	1	15
448.639	1	16
448.809	1	14
448.979	1	14
449.150	1	15
449.320	1	19
449.491	1	19
449.661	1	7
449.832	1	13
450.002	1	16
450.173	1	13
450.343	1	12
450.514	1	20
450.684	1	3
450.855	1	13
451.025	1	13
451.196	1	10
451.366	1	11
451.537	1	8
451.707	1	8
451.878	1	13
452.048	1	24
452.218	1	18
452.389	1	15
452.559	1	11
452.730	1	22
452.900	1	15
453.071	1	3
453.241	1	19
453.412	1	11
453.582	1	16
453.753	1	14
453.923	1	11
454.093	1	30
454.264	1	23
454.434	1	4
454.605	1	12
454.775	1	9
454.946	1	14
455.116	1	14
455.287	1	2
455.457	1	11
455.628	1	7
455.798	1	20
455.968	1	18
456.139	1	13
456.309	1	18
456.480	1	5
456.650	1	11
456.821	1	9
456.991	1	9
457.161	1	6
457.332	1	18
457.502	1	0
457.673	1	20
457.843	1	10
458.014	1	10
458.184	1	15
458.355	1	7
458.525	1	12
458.695	1	15
458.866	1	7
459.036	1	19
459.207	1	14
459.377	1	9
459.548	1	19
459.718	1	8
459.888	1	11
460.059	1	25
460.229	1	13
460.400	1	22
460.570	1	13
460.740	1	11
460.911	1	20
461.081	1	6
461.252	1	8
461.422	1	7
461.593	1	2
461.763	1	19
461.933	1	14
462.104	1	9
462.274	1	12
462.445	1	13
462.615	1	13
462.785	1	6
462.956	1	9
463.126	1	19
463.297	1	10
463.467	1	10
463.638	1	14
463.808	1	0
463.978	1	6
464.149	1	8
464.319	1	20
464.490	1	32
464.660	1	8
464.830	1	11
465.001	1	9
465.171	1	11
465.342	1	21
465.512	1	3
465.682	1	15
465.853	1	11
466.023	1	10
466.194	1	13
466.364	1	13
466.534	1	12
466.705	1	14
466.875	1	23
467.045	1	14
467.216	1	22
467.386	1	6
467.557	1	2
467.727	1	13
467.897	1	6
468.068	1	8
468.238	1	9
468.409	1	7
468.579	1	15
468.749	1	7
468.920	1	2
469.090	1	17
469.260	1	2
469.431	1	5
469.601	1	10
469.772	1	12
469.942	1	10
470.112	1	22
470.283	1	7
470.453	1	10
470.623	1	-1
470.794	1	7
470.964	1	8
471.135	1	24
471.305	1	-3
471.475	1	22
471.646	1	0
471.816	1	11
471.986	1	3
472.157	1	7
472.327	1	-16
472.497	1	14
472.668	1	12
472.838	1	14
473.009	1	10
473.179	1	3
473.349	1	2
473.520	1	18
473.690	1	17
473.860	1	12
474.031	1	2
474.201	1	13
474.371	1	11
474.542	1	10
474.712	1	4
474.882	1	14
475.053	1	28
475.223	1	8
475.394	1	7
475.564	1	11
475.734	1	9
475.905	1	17
476.075	1	0
476.245	1	23
476.416	1	22
476.586	1	12
476.756	1	3
476.927	1	17
477.097	1	16
477.267	1	3
477.438	1	4
477.608	1	9
477.778	1	3
477.949	1	11
478.119	1	18
478.289	1	19
478.460	1	12
478.630	1	20
478.800	1	0
478.971	1	15
479.141	1	5
479.311	1	3
479.482	1	2
479.652	1	7
479.822	1	6
479.993	1	15
480.163	1	10
480.333	1	10
480.504	1	14
480.674	1	18
480.844	1	5
481.015	1	7
481.185	1	7
481.355	1	10
481.525	1	9
481.696	1	15
481.866	1	11
482.036	1	9
482.207	1	4
482.377	1	9
482.547	1	14
482.718	1	7
482.888	1	11
483.058	1	6
483.229	1	6
483.399	1	3
483.569	1	16
483.740	1	16
483.910	1	14
484.080	1	3
484.250	1	12
484.421	1	9
484.591	1	4
484.761	1	17
484.932	1	7
485.102	1	13
485.272	1	12
485.443	1	20
485.613	1	14
485.783	1	3
485.953	1	11
486.124	1	9
486.294	1	12
486.464	1	5
486.635	1	14
486.805	1	13
486.975	1	2
487.146	1	11
487.316	1	13
487.486	1	3
487.656	1	-1
487.827	1	15
487.997	1	-3
488.167	1	-3
488.338	1	12
488.508	1	5
488.678	1	7
488.848	1	17
489.019	1	-4
489.189	1	4
489.359	1	3
489.529	1	4
489.700	1	3
489.870	1	15
490.040	1	13
490.211	1	5
490.381	1	13
490.551	1	9
490.721	1	11
490.892	1	7
491.062	1	11
491.232	1	11
491.402	1	12
491.573	1	-9
491.743	1	8
491.913	1	11
492.084	1	15
492.254	1	4
492.424	1	9
492.594	1	4
492.765	1	11
492.935	1	11
493.105	1	4
493.275	1	6
493.446	1	10
493.616	1	14
493.786	1	5
493.956	1	-1
494.127	1	11
494.297	1	6
494.467	1	8
494.637	1	4
494.808	1	2
494.978	1	3
495.148	1	-2
495.318	1	3
495.489	1	8
495.659	1	8
495.829	1	10
495.999	1	5
496.170	1	11
496.340	1	7
496.510	1	11
496.680	1	1
496.851	1	9
497.021	1	8
497.191	1	-1
497.361	1	4
497.532	1	1
497.702	1	4
497.872	1	4
498.042	1	9
498.213	1	3
498.383	1	8
498.553	1	8
498.723	1	8
498.894	1	10
499.064	1	4
499.234	1	10
499.404	1	3
499.574	1	10
499.745	1	9
499.915	1	8
500.085	1	4
500.255	1	18
500.426	1	7
500.596	1	4
500.766	1	7
500.936	1	6
501.106	1	0
501.277	1	8
501.447	1	6
501.617	1	4
501.787	1	3
501.958	1	1
502.128	1	-7
502.298	1	4
502.468	1	7
502.638	1	7
502.809	1	5
502.979	1	0
503.149	1	-5
503.319	1	-1
503.489	1	8
503.660	1	2
503.830	1	6
504.000	1	12
504.170	1	14
504.340	1	8
504.511	1	8
504.681	1	4
504.851	1	11
505.021	1	12
505.192	1	3
505.362	1	17
505.532	1	-1
505.702	1	2
505.872	1	7
506.043	1	2
506.213	1	-6
506.383	1	1
506.553	1	14
506.723	1	9
506.893	1	12
507.064	1	12
507.234	1	0
507.404	1	7
507.574	1	9
507.744	1	0
507.915	1	8
508.085	1	13
508.255	1	12
508.425	1	1
508.595	1	4
508.766	1	5
508.936	1	-6
509.106	1	13
509.276	1	9
509.446	1	-3
509.616	1	2
509.787	1	-1
509.957	1	10
510.127	1	1
510.297	1	7
510.467	1	1
510.638	1	6
510.808	1	-8
510.978	1	-4
511.148	1	12
511.318	1	5
511.488	1	-1
511.659	1	9
511.829	1	-3
511.999	1	13
512.169	1	3
512.339	1	2
512.509	1	1
512.680	1	6
512.850	1	8
513.020	1	13
513.190	1	7
513.360	1	2
513.530	1	2
513.700	1	14
513.871	1	-1
514.041	1	1
514.211	1	10
514.381	1	12
514.551	1	8
514.721	1	6
514.892	1	10
515.062	1	10
515.232	1	12
515.402	1	-2
515.572	1	-2
515.742	1	5
515.912	1	10
516.083	1	6
516.253	1	11
516.423	1	3
516.593	1	3
516.763	1	7
516.933	1	-8
517.104	1	11
517.274	1	0
517.444	1	-2
517.614	1	-5
517.784	1	12
517.954	1	6
518.124	1	9
518.294	1	4
518.465	1	-2
518.635	1	-2
518.805	1	2
518.975	1	2
519.145	1	-7
519.315	1	-9
519.485	1	0
519.656	1	11
519.826	1	9
519.996	1	-3
520.166	1	7
520.336	1	11
520.506	1	-5
520.676	1	0
520.846	1	7
521.017	1	12
521.187	1	2
521.357	1	8
521.527	1	-2
521.697	1	2
521.867	1	3
522.037	1	12
522.207	1	9
522.377	1	7
522.548	1	4
522.718	1	4
522.888	1	14
523.058	1	8
523.228	1	4
523.398	1	1
523.568	1	2
523.738	1	7
523.909	1	16
524.079	1	7
524.249	1	1
524.419	1	6
524.589	1	15
524.759	1	3
524.929	1	0
525.099	1	2
525.269	1	2
525.439	1	-5
525.610	1	19
525.780	1	6
525.950	1	8
526.120	1	3
526.290	1	12
526.460	1	5
526.630	1	9
526.800	1	-2
526.970	1	4
527.140	1	7
527.311	1	-4
527.481	1	5
527.651	1	11
527.821	1	-1
527.991	1	18
528.161	1	8
528.331	1	-1
528.501	1	2
528.671	1	3
528.841	1	1
529.011	1	-4
529.181	1	4
529.352	1	0
529.522	1	-5
529.692	1	14
529.862	1	4
530.032	1	16
530.202	1	5
530.372	1	15
530.542	1	1
530.712	1	-1
530.882	1	13
531.052	1	6
531.222	1	1
531.392	1	3
531.563	1	6
531.733	1	6
531.903	1	-1
532.073	1	10
532.243	1	7
532.413	1	7
532.583	1	-1
532.753	1	-2
532.923	1	3
533.093	1	-2
533.263	1	9
533.433	1	0
533.603	1	11
533.773	1	5
533.943	1	1
534.113	1	0
534.284	1	1
534.454	1	9
534.624	1	11
534.794	1	0
534.964	1	8
535.134	1	-7
535.304	1	4
535.474	1	12
535.644	1	-4
535.814	1	-7
535.984	1	3
536.154	1	-10
536.324	1	-3
536.494	1	6
536.664	1	2
536.834	1	11
537.004	1	5
537.174	1	12
537.344	1	-3
537.514	1	-11
537.685	1	4
537.855	1	6
538.025	1	5
538.195	1	7
538.365	1	20
538.535	1	5
538.705	1	-7
538.875	1	-1
539.045	1	2
539.215	1	7
539.385	1	1
539.555	1	9
539.725	1	-5
539.895	1	-2
540.065	1	15
540.235	1	7
540.405	1	2
540.575	1	-1
540.745	1	10
540.915	1	1
541.085	1	8
541.255	1	4
541.425	1	11
541.595	1	2
541.765	1	1
541.935	1	-6
542.105	1	-5
542.275	1	5
542.445	1	-10
542.615	1	6
542.785	1	6
542.955	1	2
543.125	1	-3
543.295	1	4
543.465	1	1
543.635	1	-3
543.805	1	10
543.975	1	8
544.145	1	3
544.315	1	-1
544.485	1	0
544.655	1	8
544.825	1	-11
544.995	1	11
545.165	1	3
545.335	1	10
545.505	1	-6
545.675	1	1
545.845	1	3
546.015	1	8
546.185	1	10
546.355	1	4
546.525	1	2
546.695	1	6
546.865	1	-2
547.035	1	9
547.205	1	-12
547.375	1	11
547.545	1	0
547.715	1	-4
547.885	1	7
548.055	1	-2
548.225	1	0
548.395	1	-3
548.565	1	0
548.735	1	8
548.905	1	5
549.075	1	11
549.245	1	-6
549.415	1	-6
549.585	1	12
549.755	1	-1
549.925	1	-2
550.095	1	1
550.265	1	-8
550.435	1	0
550.605	1	3
550.775	1	3
550.945	1	3
551.115	1	-5
551.285	1	9
551.455	1	-7
551.625	1	4
551.795	1	15
551.965	1	3
552.135	1	6
552.305	1	-4
552.475	1	0
552.645	1	5
552.815	1	2
552.985	1	9
553.155	1	6
553.325	1	8
553.495	1	1
553.665	1	-4
553.835	1	5
554.004	1	4
554.174	1	0
554.344	1	11
554.514	1	6
554.684	1	2
554.854	1	11
555.024	1	-5
555.194	1	-4
555.364	1	6
555.534	1	1
555.704	1	-3
555.874	1	13
556.044	1	0
556.214	1	-4
556.384	1	4
556.554	1	13
556.724	1	9
556.894	1	1
557.064	1	0
557.234	1	-4
557.404	1	10
557.573	1	3
557.743	1	1
557.913	1	-10
558.083	1	-5
558.253	1	14
558.423	1	-5
558.593	1	5
558.763	1	6
558.933	1	1
559.103	1	7
559.273	1	-4
559.443	1	8
559.613	1	5
559.783	1	-6
559.953	1	0
560.122	1	11
560.292	1	-8
560.462	1	6
560.632	1	7
560.802	1	4
560.972	1	3
561.142	1	10
561.312	1	-4
561.482	1	11
561.652	1	2
561.822	1	-4
561.992	1	2
562.162	1	5
562.331	1	5
562.501	1	-10
562.671	1	5
562.841	1	-3
563.011	1	4
563.181	1	10
563.351	1	0
563.521	1	4
563.691	1	2
563.861	1	-2
564.031	1	4
564.201	1	13
564.370	1	-8
564.540	1	3
564.710	1	-3
564.880	1	10
565.050	1	8
565.220	1	3
565.390	1	4
565.560	1	2
565.730	1	1
565.900	1	7
566.069	1	5
566.239	1	1
566.409	1	6
566.579	1	6
566.749	1	1
566.919	1	10
567.089	1	8
567.259	1	10
567.429	1	-6
567.599	1	-1
567.768	1	7
567.938	1	0
568.108	1	-2
568.278	1	-2
568.448	1	4
568.618	1	11
568.788	1	3
568.958	1	-3
569.128	1	0
569.297	1	2
569.467	1	8
569.637	1	11
569.807	1	-6
569.977	1	9
570.147	1	7
570.317	1	-8
570.487	1	4
570.656	1	7
570.826	1	-3
570.996	1	-3
571.166	1	10
571.336	1	5
571.506	1	7
571.676	1	1
571.846	1	10
572.015	1	7
572.185	1	4
572.355	1	3
572.525	1	6
572.695	1	2
572.865	1	-4
573.035	1	5
573.205	1	9
573.374	1	-2
573.544	1	-3
573.714	1	4
573.884	1	9
574.054	1	12
574.224	1	7
574.394	1	-4
574.563	1	-7
574.733	1	11
574.903	1	11
575.073	1	-1
575.243	1	-4
575.413	1	4
575.583	1	-2
575.752	1	5
575.922	1	1
576.092	1	1
576.262	1	3
576.432	1	12
576.602	1	0
576.772	1	13
576.941	1	-2
577.111	1	-4
577.281	1	-6
577.451	1	-12
577.621	1	13
577.791	1	3
577.960	1	-4
578.130	1	4
578.300	1	15
578.470	1	11
578.640	1	6
578.810	1	-1
578.979	1	4
579.149	1	6
579.319	1	-6
579.489	1	7
579.659	1	-2
579.829	1	10
579.998	1	7
580.168	1	10
580.338	1	-4
580.508	1	-5
580.678	1	6
580.848	1	-6
581.017	1	-2
581.187	1	7
581.357	1	-3
581.527	1	10
581.697	1	10
581.867	1	9
582.036	1	-3
582.206	1	1
582.376	1	5
582.546	1	2
582.716	1	-6
582.885	1	1
583.055	1	-2
583.225	1	-7
583.395	1	8
583.565	1	3
583.735	1	15
583.904	1	7
584.074	1	4
584.244	1	13
584.414	1	-5
584.584	1	14
584.753	1	-6
584.923	1	6
585.093	1	7
585.263	1	2
585.433	1	-3
585.602	1	-6
585.772	1	-10
585.942	1	2
586.112	1	10
586.282	1	-2
586.451	1	-7
586.621	1	-3
586.791	1	4
586.961	1	0
587.131	1	1
587.300	1	-4
587.470	1	13
587.640	1	7
587.810	1	3
587.980	1	4
588.149	1	7
588.319	1	4
588.489	1	-3
588.659	1	-3
588.829	1	10
588.998	1	11
589.168	1	4
589.338	1	-1
589.508	1	9
589.677	1	-2
589.847	1	-2
590.017	1	11
590.187	1	-9
590.357	1	11
590.526	1	13
590.696	1	1
590.866	1	7
591.036	1	6
591.205	1	3
591.375	1	-7
591.545	1	0
591.715	1	7
591.885	1	-1
592.054	1	0
592.224	1	6
592.394	1	-3
592.564	1	2
592.733	1	5
592.903	1	5
593.073	1	0
593.243	1	1
593.412	1	6
593.582	1	-6
593.752	1	1
593.922	1	-1
594.091	1	-7
594.261	1	-1
594.431	1	6
594.601	1	3
594.771	1	10
594.940	1	1
595.110	1	0
595.280	1	14
595.450	1	3
595.619	1	-2
595.789	1	4
595.959	1	12
596.129	1	6
596.298	1	-2
596.468	1	5
596.638	1	2
596.808	1	8
596.977	1	-3
597.147	1	1
597.317	1	-4
597.487	1	10
597.656	1	-1
597.826	1	10
597.996	1	2
598.166	1	10
598.335	1	-11
598.505	1	-4
598.675	1	-1
598.844	1	1
599.014	1	-2
599.184	1	2
599.354	1	-11
599.523	1	9
599.693	1	-2
599.863	1	8
600.033	1	-1
600.202	1	2
600.372	1	3
600.542	1	8
600.712	1	-1
600.881	1	5
601.051	1	12
601.221	1	9
601.390	1	1
601.560	1	0
601.730	1	12
601.900	1	3
602.069	1	7
602.239	1	-2
602.409	1	-8
602.578	1	4
602.748	1	8
602.918	1	9
603.088	1	4
603.257	1	7
603.427	1	2
603.597	1	3
603.767	1	4
603.936	1	-2
604.106	1	1
604.276	1	7
604.445	1	12
604.615	1	5
604.785	1	3
604.954	1	-2
605.124	1	4
605.294	1	3
605.464	1	1
605.633	1	-4
605.803	1	4
605.973	1	-6
606.142	1	4
606.312	1	11
606.482	1	-6
606.652	1	7
606.821	1	-4
606.991	1	-4
607.161	1	-3
607.330	1	-1
607.500	1	-2
607.670	1	2
607.839	1	7
608.009	1	6
608.179	1	0
608.348	1	6
608.518	1	-5
608.688	1	5
608.858	1	-5
609.027	1	-5
609.197	1	3
609.367	1	6
609.536	1	3
609.706	1	-3
609.876	1	-5
610.045	1	0
610.215	1	10
610.385	1	-1
610.554	1	3
610.724	1	5
610.894	1	3
611.063	1	8
611.233	1	-6
611.403	1	2
611.572	1	5
611.742	1	-4
611.912	1	5
612.081	1	-2
612.251	1	6
612.421	1	2
612.590	1	5
612.760	1	3
612.930	1	7
613.099	1	5
613.269	1	2
613.439	1	-3
613.608	1	4
613.778	1	2
613.948	1	0
614.117	1	-3
614.287	1	7
614.457	1	5
614.626	1	2
614.796	1	8
614.966	1	2
615.135	1	-5
615.305	1	8
615.475	1	-2
615.644	1	5
615.814	1	2
615.984	1	3
616.153	1	1
616.323	1	7
616.493	1	-3
616.662	1	12
616.832	1	8
617.002	1	1
617.171	1	-1
617.341	1	2
617.511	1	0
617.680	1	-5
617.850	1	-1
618.019	1	18
618.189	1	14
618.359	1	-5
618.528	1	5
618.698	1	5
618.868	1	-12
619.037	1	5
619.207	1	4
619.377	1	0
619.546	1	-1
619.716	1	-6
619.885	1	3
620.055	1	-3
620.225	1	3
620.394	1	-10
620.564	1	6
620.734	1	2
620.903	1	-5
621.073	1	14
621.242	1	12
621.412	1	3
621.582	1	3
621.751	1	11
621.921	1	-3
622.091	1	-8
622.260	1	2
622.430	1	14
622.599	1	-1
622.769	1	9
622.939	1	11
623.108	1	8
623.278	1	-6
623.448	1	1
623.617	1	-3
623.787	1	6
623.956	1	10
624.126	1	3
624.296	1	-2
624.465	1	15
624.635	1	17
624.804	1	8
624.974	1	-4
625.144	1	0
625.313	1	4
625.483	1	-7
625.652	1	1
625.822	1	0
625.992	1	2
626.161	1	10
626.331	1	3
626.501	1	-1
626.670	1	-1
626.840	1	-2
627.009	1	-2
627.179	1	11
627.348	1	12
627.518	1	1
627.688	1	13
627.857	1	3
628.027	1	-4
628.196	1	9
628.366	1	11
628.536	1	4
628.705	1	6
628.875	1	8
629.044	1	-6
629.214	1	7
629.384	1	2
629.553	1	10
629.723	1	0
629.892	1	0
630.062	1	0
630.232	1	4
630.401	1	6
630.571	1	8
630.740	1	6
630.910	1	3
631.079	1	-1
631.249	1	3
631.419	1	13
631.588	1	5
631.758	1	13
631.927	1	-1
632.097	1	2
632.266	1	3
632.436	1	10
632.606	1	-4
632.775	1	5
632.945	1	-2
633.114	1	3
633.284	1	8
633.453	1	-8
633.623	1	5
633.793	1	3
633.962	1	3
634.132	1	5
634.301	1	9
634.471	1	-4
634.640	1	5
634.810	1	3
634.979	1	7
635.149	1	9
635.319	1	2
635.488	1	4
635.658	1	-1
635.827	1	-11
635.997	1	-1
636.166	1	11
636.336	1	-4
636.505	1	9
636.675	1	1
636.845	1	7
637.014	1	16
637.184	1	8
637.353	1	2
637.523	1	-2
637.692	1	-1
637.862	1	2
638.031	1	2
638.201	1	5
638.370	1	4
638.540	1	3
638.710	1	3
638.879	1	-14
639.049	1	1
639.218	1	0
639.388	1	0
639.557	1	2
639.727	1	8
639.896	1	7
640.066	1	1
640.235	1	5
640.405	1	1
640.574	1	-3
640.744	1	-11
640.914	1	3
641.083	1	-5
641.253	1	0
641.422	1	3
641.592	1	13
641.761	1	5
641.931	1	0
642.100	1	18
642.270	1	-3
642.439	1	11
642.609	1	6
642.778	1	2
642.948	1	2
643.117	1	14
643.287	1	2
643.456	1	6
643.626	1	12
643.795	1	3
643.965	1	6
644.134	1	0
644.304	1	2
644.473	1	-1
644.643	1	7
644.812	1	5
644.982	1	5
645.151	1	13
645.321	1	-4
645.490	1	14
645.660	1	-9
645.829	1	8
645.999	1	6
646.168	1	5
646.338	1	-2
646.507	1	5
646.677	1	3
646.846	1	0
647.016	1	-2
647.185	1	4
647.355	1	-8
647.524	1	12
647.694	1	12
647.863	1	6
648.033	1	0
648.202	1	7
648.372	1	-2
648.541	1	6
648.711	1	7
648.880	1	-1
649.050	1	-7
649.219	1	2
649.389	1	6
649.558	1	3
649.728	1	8
649.897	1	-1
650.067	1	11
650.236	1	6
650.406	1	3
650.575	1	7
650.745	1	13
650.914	1	2
651.084	1	-11
651.253	1	9
651.423	1	4
651.592	1	0
651.762	1	-9
651.931	1	10
652.101	1	6
652.270	1	7
652.440	1	2
652.609	1	5
652.778	1	5
652.948	1	1
653.117	1	0
653.287	1	6
653.456	1	2
653.626	1	6
653.795	1	3
653.965	1	13
654.134	1	7
654.304	1	-4
654.473	1	9
654.643	1	8
654.812	1	1
654.982	1	6
655.151	1	-3
655.320	1	0
655.490	1	-1
655.659	1	4
655.829	1	8
655.998	1	-5
656.168	1	2
656.337	1	5
656.507	1	5
656.676	1	7
656.846	1	10
657.015	1	-1
657.184	1	4
657.354	1	1
657.523	1	1
657.693	1	-5
657.862	1	2
658.032	1	-5
658.201	1	-1
658.371	1	16
658.540	1	-2
658.709	1	-5
658.879	1	13
659.048	1	0
659.218	1	-1
659.387	1	-3
659.557	1	5
659.726	1	9
659.895	1	0
660.065	1	-3
660.234	1	8
660.404	1	16
660.573	1	0
660.743	1	-9
660.912	1	5
661.081	1	9
661.251	1	7
661.420	1	9
661.590	1	6
661.759	1	6
661.929	1	7
662.098	1	16
662.267	1	11
662.437	1	6
662.606	1	1
662.776	1	-2
662.945	1	3
663.115	1	2
663.284	1	3
663.453	1	13
663.623	1	1
663.792	1	13
663.962	1	-3
664.131	1	11
664.300	1	7
664.470	1	-2
664.639	1	7
664.809	1	8
664.978	1	11
665.148	1	8
665.317	1	4
665.486	1	12
665.656	1	3
665.825	1	6
665.995	1	6
666.164	1	-6
666.333	1	3
666.503	1	2
666.672	1	-4
666.842	1	2
667.011	1	3
667.180	1	8
667.350	1	0
667.519	1	10
667.689	1	3
667.858	1	12
668.027	1	13
668.197	1	3
668.366	1	-7
668.536	1	5
668.705	1	2
668.874	1	-1
669.044	1	8
669.213	1	6
669.382	1	-3
669.552	1	5
669.721	1	17
669.891	1	12
670.060	1	8
670.229	1	12
670.399	1	4
670.568	1	15
670.738	1	12
670.907	1	-1
671.076	1	-4
671.246	1	0
671.415	1	-4
671.584	1	6
671.754	1	-5
671.923	1	7
672.093	1	4
672.262	1	-7
672.431	1	0
672.601	1	1
672.770	1	-2
672.939	1	3
673.109	1	3
673.278	1	11
673.448	1	15
673.617	1	2
673.786	1	7
