325.333	1	11
325.504	1	7
325.675	1	4
325.846	1	12
326.017	1	3
326.188	1	6
326.359	1	-3
326.531	1	-3
326.702	1	-2
326.873	1	12
327.044	1	-2
327.215	1	1
327.386	1	9
327.557	1	-3
327.728	1	0
327.899	1	3
328.070	1	8
328.241	1	10
328.412	1	-14
328.583	1	6
328.754	1	4
328.926	1	4
329.097	1	-2
329.268	1	2
329.439	1	-1
329.610	1	13
329.781	1	-6
329.952	1	7
330.123	1	5
330.294	1	1
330.465	1	3
330.636	1	5
330.807	1	8
330.978	1	5
331.149	1	4
331.320	1	1
331.492	1	1
331.663	1	2
331.834	1	12
332.005	1	1
332.176	1	12
332.347	1	4
332.518	1	-9
332.689	1	0
332.860	1	0
333.031	1	4
333.202	1	0
333.373	1	-2
333.544	1	11
333.715	1	2
333.886	1	1
334.057	1	5
334.228	1	-3
334.399	1	7
334.570	1	8
334.741	1	-1
334.912	1	13
335.084	1	22
335.255	1	3
335.426	1	0
335.597	1	3
335.768	1	7
335.939	1	9
336.110	1	-3
336.281	1	-15
336.452	1	3
336.623	1	7
336.794	1	-2
336.965	1	-9
337.136	1	14
337.307	1	0
337.478	1	-4
337.649	1	-4
337.820	1	1
337.991	1	4
338.162	1	4
338.333	1	1
338.504	1	2
338.675	1	4
338.846	1	0
339.017	1	3
339.188	1	-3
339.359	1	1
339.530	1	7
339.701	1	8
339.872	1	10
340.043	1	-7
340.214	1	0
340.385	1	10
340.556	1	-3
340.727	1	11
340.898	1	15
341.069	1	10
341.240	1	8
341.411	1	10
341.582	1	7
341.753	1	-9
341.924	1	9
342.095	1	8
342.266	1	13
342.437	1	11
342.608	1	6
342.779	1	2
342.950	1	16
343.121	1	3
343.292	1	1
343.463	1	10
343.634	1	5
343.805	1	9
343.976	1	10
344.147	1	3
344.318	1	-4
344.489	1	0
344.660	1	17
344.831	1	14
345.002	1	-9
345.173	1	13
345.344	1	3
345.515	1	13
345.686	1	8
345.857	1	10
346.028	1	8
346.199	1	2
346.370	1	4
346.541	1	9
346.712	1	2
346.883	1	4
347.054	1	5
347.225	1	4
347.396	1	7
347.567	1	-4
347.738	1	-3
347.909	1	17
348.080	1	5
348.251	1	14
348.422	1	7
348.593	1	-1
348.764	1	5
348.935	1	5
349.106	1	-1
349.277	1	6
349.448	1	13
349.619	1	14
349.790	1	8
349.961	1	12
350.132	1	12
350.303	1	2
350.474	1	13
350.645	1	11
350.816	1	8
350.987	1	13
351.157	1	-2
351.328	1	8
351.499	1	12
351.670	1	-4
351.841	1	16
352.012	1	15
352.183	1	20
352.354	1	7
352.525	1	10
352.696	1	12
352.867	1	8
353.038	1	12
353.209	1	11
353.380	1	5
353.551	1	8
353.722	1	12
353.893	1	5
354.064	1	15
354.235	1	5
354.406	1	0
354.576	1	3
354.747	1	-1
354.918	1	10
355.089	1	11
355.260	1	15
355.431	1	8
355.602	1	3
355.773	1	10
355.944	1	18
356.115	1	8
356.286	1	8
356.457	1	15
356.628	1	20
356.799	1	14
356.970	1	11
357.141	1	1
357.311	1	-7
357.482	1	15
357.653	1	9
357.824	1	11
357.995	1	14
358.166	1	0
358.337	1	8
358.508	1	6
358.679	1	14
358.850	1	11
359.021	1	-1
359.192	1	11
359.363	1	5
359.533	1	6
359.704	1	5
359.875	1	5
360.046	1	8
360.217	1	0
360.388	1	13
360.559	1	6
360.730	1	7
360.901	1	7
361.072	1	24
361.243	1	9
361.414	1	9
361.584	1	12
361.755	1	12
361.926	1	15
362.097	1	7
362.268	1	17
362.439	1	8
362.610	1	16
362.781	1	10
362.952	1	2
363.123	1	7
363.293	1	3
363.464	1	20
363.635	1	11
363.806	1	6
363.977	1	8
364.148	1	10
364.319	1	10
364.490	1	5
364.661	1	1
364.832	1	10
365.002	1	16
365.173	1	2
365.344	1	17
365.515	1	-1
365.686	1	5
365.857	1	9
366.028	1	23
366.199	1	7
366.370	1	14
366.540	1	4
366.711	1	-5
366.882	1	-2
367.053	1	-2
367.224	1	22
367.395	1	18
367.566	1	13
367.737	1	10
367.908	1	18
368.078	1	8
368.249	1	19
368.420	1	-1
368.591	1	1
368.762	1	14
368.933	1	3
369.104	1	-3
369.274	1	3
369.445	1	6
369.616	1	16
369.787	1	11
369.958	1	17
370.129	1	4
370.300	1	18
370.471	1	7
370.641	1	12
370.812	1	10
370.983	1	13
371.154	1	4
371.325	1	13
371.496	1	10
371.667	1	10
371.837	1	4
372.008	1	3
372.179	1	12
372.350	1	21
372.521	1	11
372.692	1	-1
372.863	1	16
373.033	1	1
373.204	1	11
373.375	1	18
373.546	1	11
373.717	1	16
373.888	1	22
374.059	1	17
374.229	1	9
374.400	1	-2
374.571	1	15
374.742	1	25
374.913	1	16
375.084	1	8
375.254	1	21
375.425	1	16
375.596	1	15
375.767	1	13
375.938	1	14
376.109	1	18
376.279	1	4
376.450	1	11
376.621	1	14
376.792	1	2
376.963	1	12
377.134	1	8
377.304	1	17
377.475	1	5
377.646	1	17
377.817	1	8
377.988	1	11
378.159	1	14
378.329	1	11
378.500	1	3
378.671	1	15
378.842	1	2
379.013	1	7
379.184	1	2
379.354	1	17
379.525	1	10
379.696	1	28
379.867	1	17
380.038	1	15
380.209	1	14
380.379	1	6
380.550	1	5
380.721	1	26
380.892	1	10
381.063	1	8
381.233	1	21
381.404	1	17
381.575	1	22
381.746	1	9
381.917	1	10
382.087	1	18
382.258	1	19
382.429	1	10
382.600	1	23
382.771	1	11
382.941	1	10
383.112	1	14
383.283	1	15
383.454	1	5
383.625	1	4
383.795	1	7
383.966	1	13
384.137	1	11
384.308	1	17
384.479	1	17
384.649	1	20
384.820	1	8
384.991	1	12
385.162	1	17
385.333	1	6
385.503	1	14
385.674	1	10
385.845	1	23
386.016	1	14
386.187	1	11
386.357	1	20
386.528	1	19
386.699	1	8
386.870	1	23
387.041	1	21
387.211	1	16
387.382	1	14
387.553	1	7
387.724	1	4
387.894	1	19
388.065	1	10
388.236	1	13
388.407	1	14
388.578	1	4
388.748	1	14
388.919	1	26
389.090	1	11
389.261	1	14
389.431	1	13
389.602	1	20
389.773	1	26
389.944	1	14
390.114	1	17
390.285	1	16
390.456	1	6
390.627	1	17
390.798	1	11
390.968	1	8
391.139	1	15
391.310	1	17
391.481	1	15
391.651	1	10
391.822	1	2
391.993	1	6
392.164	1	12
392.334	1	17
392.505	1	15
392.676	1	18
392.847	1	19
393.017	1	21
393.188	1	15
393.359	1	7
393.530	1	15
393.700	1	16
393.871	1	6
394.042	1	18
394.213	1	11
394.383	1	21
394.554	1	13
394.725	1	20
394.896	1	11
395.066	1	19
395.237	1	10
395.408	1	17
395.579	1	21
395.749	1	13
395.920	1	15
396.091	1	20
396.262	1	16
396.432	1	14
396.603	1	20
396.774	1	25
396.945	1	17
397.115	1	19
397.286	1	20
397.457	1	16
397.627	1	18
397.798	1	12
397.969	1	10
398.140	1	17
398.310	1	20
398.481	1	28
398.652	1	22
398.823	1	8
398.993	1	10
399.164	1	12
399.335	1	28
399.505	1	19
399.676	1	16
399.847	1	14
400.018	1	4
400.188	1	17
400.359	1	21
400.530	1	9
400.700	1	19
400.871	1	5
401.042	1	18
401.213	1	22
401.383	1	9
401.554	1	15
401.725	1	20
401.895	1	10
402.066	1	20
402.237	1	16
402.408	1	23
402.578	1	26
402.749	1	18
402.920	1	16
403.090	1	12
403.261	1	13
403.432	1	8
403.603	1	22
403.773	1	30
403.944	1	23
404.115	1	24
404.285	1	24
404.456	1	8
404.627	1	12
404.797	1	11
404.968	1	7
405.139	1	8
405.310	1	33
405.480	1	27
405.651	1	15
405.822	1	10
405.992	1	14
406.163	1	16
406.334	1	5
406.504	1	10
406.675	1	25
406.846	1	21
407.016	1	23
407.187	1	25
407.358	1	4
407.528	1	14
407.699	1	3
407.870	1	1
408.041	1	15
408.211	1	19
408.382	1	11
408.553	1	15
408.723	1	22
408.894	1	16
409.065	1	19
409.235	1	12
409.406	1	18
409.577	1	9
409.747	1	20
409.918	1	17
410.089	1	12
410.259	1	20
410.430	1	18
410.601	1	11
410.771	1	16
410.942	1	29
411.113	1	21
411.283	1	15
411.454	1	12
411.625	1	15
411.795	1	22
411.966	1	15
412.137	1	21
412.307	1	10
412.478	1	12
412.649	1	23
412.819	1	17
412.990	1	13
413.161	1	21
413.331	1	9
413.502	1	24
413.672	1	17
413.843	1	19
414.014	1	12
414.184	1	13
414.355	1	17
414.526	1	17
414.696	1	25
414.867	1	21
415.038	1	14
415.208	1	18
415.379	1	21
415.550	1	16
415.720	1	16
415.891	1	23
416.062	1	17
416.232	1	25
416.403	1	13
416.573	1	15
416.744	1	14
416.915	1	21
417.085	1	19
417.256	1	11
417.427	1	8
417.597	1	15
417.768	1	6
417.939	1	18
418.109	1	24
418.280	1	24
418.450	1	14
418.621	1	5
418.792	1	21
418.962	1	16
419.133	1	22
419.304	1	2
419.474	1	9
419.645	1	15
419.815	1	14
419.986	1	20
420.157	1	14
420.327	1	18
420.498	1	24
420.669	1	4
420.839	1	25
421.010	1	20
421.180	1	28
421.351	1	13
421.522	1	22
421.692	1	20
421.863	1	17
422.033	1	23
422.204	1	28
422.375	1	9
422.545	1	23
422.716	1	17
422.886	1	7
423.057	1	20
423.228	1	16
423.398	1	12
423.569	1	26
423.740	1	13
423.910	1	4
424.081	1	18
424.251	1	6
424.422	1	16
424.593	1	11
424.763	1	5
424.934	1	14
425.104	1	16
425.275	1	12
425.445	1	16
425.616	1	14
425.787	1	9
425.957	1	25
426.128	1	20
426.298	1	16
426.469	1	6
426.640	1	21
426.810	1	14
426.981	1	10
427.151	1	10
427.322	1	19
427.493	1	20
427.663	1	10
427.834	1	5
428.004	1	19
428.175	1	12
428.345	1	6
428.516	1	10
428.687	1	14
428.857	1	7
429.028	1	19
429.198	1	19
429.369	1	17
429.540	1	13
429.710	1	7
429.881	1	27
430.051	1	12
430.222	1	12
430.392	1	12
430.563	1	28
430.734	1	19
430.904	1	17
431.075	1	16
431.245	1	12
431.416	1	19
431.586	1	20
431.757	1	11
431.927	1	13
432.098	1	11
432.269	1	8
432.439	1	5
432.610	1	11
432.780	1	23
432.951	1	10
433.121	1	18
433.292	1	32
433.462	1	20
433.633	1	21
433.804	1	7
433.974	1	17
434.145	1	36
434.315	1	16
434.486	1	9
434.656	1	22
434.827	1	16
434.997	1	0
435.168	1	23
435.339	1	12
435.509	1	19
435.680	1	13
435.850	1	14
436.021	1	10
436.191	1	9
436.362	1	25
436.532	1	8
436.703	1	16
436.873	1	19
437.044	1	13
437.214	1	18
437.385	1	9
437.556	1	13
437.726	1	30
437.897	1	23
438.067	1	14
438.238	1	17
438.408	1	17
438.579	1	12
438.749	1	16
438.920	1	15
439.090	1	13
439.261	1	6
439.431	1	8
439.602	1	21
439.772	1	13
439.943	1	18
440.113	1	20
440.284	1	14
440.455	1	4
440.625	1	13
440.796	1	14
440.966	1	12
441.137	1	13
441.307	1	4
441.478	1	30
441.648	1	18
441.819	1	21
441.989	1	14
442.160	1	17
442.330	1	20
442.501	1	15
442.671	1	9
442.842	1	2
443.012	1	16
443.183	1	13
443.353	1	8
443.524	1	18
443.694	1	20
443.865	1	13
444.035	1	19
444.206	1	5
444.376	1	14
444.547	1	25
444.717	1	15
444.888	1	11
445.058	1	28
445.229	1	17
445.399	1	9
445.570	1	15
445.740	1	2
445.911	1	9
446.081	1	0
446.252	1	19
446.422	1	11
446.593	1	4
446.763	1	9
446.934	1	16
447.104	1	11
447.275	1	7
447.445	1	14
447.616	1	14
447.786	1	16
447.957	1	23
448.127	1	12
448.298	1	14
448.468	1	10
448.639	1	4
448.809	1	18
448.979	1	0
449.150	1	21
449.320	1	2
449.491	1	21
449.661	1	6
449.832	1	12
450.002	1	22
450.173	1	11
450.343	1	8
450.514	1	14
450.684	1	22
450.855	1	8
451.025	1	14
451.196	1	12
451.366	1	15
451.537	1	7
451.707	1	-3
451.878	1	0
452.048	1	24
452.218	1	21
452.389	1	13
452.559	1	18
452.730	1	19
452.900	1	11
453.071	1	1
453.241	1	15
453.412	1	1
453.582	1	4
453.753	1	10
453.923	1	17
454.093	1	18
454.264	1	17
454.434	1	15
454.605	1	12
454.775	1	12
454.946	1	11
455.116	1	5
455.287	1	3
455.457	1	7
455.628	1	5
455.798	1	16
455.968	1	12
456.139	1	15
456.309	1	8
456.480	1	3
456.650	1	10
456.821	1	5
456.991	1	7
457.161	1	8
457.332	1	12
457.502	1	4
457.673	1	20
457.843	1	18
458.014	1	12
458.184	1	5
458.355	1	4
458.525	1	6
458.695	1	10
458.866	1	11
459.036	1	15
459.207	1	9
459.377	1	13
459.548	1	9
459.718	1	6
459.888	1	14
460.059	1	23
460.229	1	19
460.400	1	16
460.570	1	17
460.740	1	9
460.911	1	10
461.081	1	16
461.252	1	5
461.422	1	9
461.593	1	10
461.763	1	14
461.933	1	5
462.104	1	0
462.274	1	10
462.445	1	18
462.615	1	7
462.785	1	12
462.956	1	11
463.126	1	15
463.297	1	2
463.467	1	10
463.638	1	16
463.808	1	9
463.978	1	7
464.149	1	8
464.319	1	10
464.490	1	17
464.660	1	-5
464.830	1	6
465.001	1	4
465.171	1	20
465.342	1	8
465.512	1	-3
465.682	1	13
465.853	1	18
466.023	1	6
466.194	1	9
466.364	1	14
466.534	1	14
466.705	1	6
466.875	1	3
467.045	1	4
467.216	1	17
467.386	1	2
467.557	1	11
467.727	1	5
467.897	1	3
468.068	1	8
468.238	1	8
468.409	1	15
468.579	1	13
468.749	1	6
468.920	1	-2
469.090	1	14
469.260	1	2
469.431	1	4
469.601	1	15
469.772	1	17
469.942	1	2
470.112	1	10
470.283	1	14
470.453	1	4
470.623	1	1
470.794	1	1
470.964	1	10
471.135	1	11
471.305	1	7
471.475	1	11
471.646	1	2
471.816	1	2
471.986	1	17
472.157	1	21
472.327	1	-1
472.497	1	16
472.668	1	3
472.838	1	5
473.009	1	15
473.179	1	0
473.349	1	-1
473.520	1	14
473.690	1	6
473.860	1	9
474.031	1	10
474.201	1	7
474.371	1	17
474.542	1	8
474.712	1	11
474.882	1	8
475.053	1	15
475.223	1	0
475.394	1	2
475.564	1	15
475.734	1	10
475.905	1	19
476.075	1	5
476.245	1	19
476.416	1	10
476.586	1	15
476.756	1	7
476.927	1	10
477.097	1	5
477.267	1	3
477.438	1	4
477.608	1	7
477.778	1	15
477.949	1	13
478.119	1	7
478.289	1	8
478.460	1	15
478.630	1	6
478.800	1	16
478.971	1	12
479.141	1	5
479.311	1	-6
479.482	1	11
479.652	1	11
479.822	1	13
479.993	1	11
480.163	1	10
480.333	1	9
480.504	1	14
480.674	1	14
480.844	1	0
481.015	1	11
481.185	1	10
481.355	1	14
481.525	1	8
481.696	1	11
481.866	1	6
482.036	1	10
482.207	1	4
482.377	1	4
482.547	1	15
482.718	1	11
482.888	1	8
483.058	1	5
483.229	1	-9
483.399	1	10
483.569	1	19
483.740	1	10
483.910	1	-4
484.080	1	9
484.250	1	14
484.421	1	8
484.591	1	11
484.761	1	19
484.932	1	18
485.102	1	15
485.272	1	6
485.443	1	22
485.613	1	14
485.783	1	0
485.953	1	10
486.124	1	7
486.294	1	7
486.464	1	-1
486.635	1	9
486.805	1	15
486.975	1	12
487.146	1	11
487.316	1	4
487.486	1	11
487.656	1	1
487.827	1	11
487.997	1	-7
488.167	1	5
488.338	1	18
488.508	1	-10
488.678	1	1
488.848	1	13
489.019	1	2
489.189	1	11
489.359	1	0
489.529	1	9
489.700	1	1
489.870	1	19
490.040	1	6
490.211	1	8
490.381	1	15
490.551	1	10
490.721	1	13
490.892	1	4
491.062	1	15
491.232	1	10
491.402	1	0
491.573	1	-3
491.743	1	7
491.913	1	4
492.084	1	12
492.254	1	9
492.424	1	6
492.594	1	10
492.765	1	1
492.935	1	4
493.105	1	2
493.275	1	6
493.446	1	5
493.616	1	21
493.786	1	5
493.956	1	7
494.127	1	3
494.297	1	8
494.467	1	4
494.637	1	4
494.808	1	-1
494.978	1	-4
495.148	1	8
495.318	1	-3
495.489	1	13
495.659	1	3
495.829	1	3
495.999	1	4
496.170	1	15
496.340	1	5
496.510	1	7
496.680	1	-5
496.851	1	11
497.021	1	7
497.191	1	10
497.361	1	4
497.532	1	-3
497.702	1	3
497.872	1	-2
498.042	1	18
498.213	1	4
498.383	1	5
498.553	1	7
498.723	1	-1
498.894	1	9
499.064	1	1
499.234	1	6
499.404	1	3
499.574	1	12
499.745	1	5
499.915	1	-1
500.085	1	10
500.255	1	15
500.426	1	13
500.596	1	12
500.766	1	3
500.936	1	5
501.106	1	5
501.277	1	6
501.447	1	11
501.617	1	5
501.787	1	4
501.958	1	5
502.128	1	5
502.298	1	8
502.468	1	4
502.638	1	6
502.809	1	3
502.979	1	1
503.149	1	-3
503.319	1	1
503.489	1	0
503.660	1	8
503.830	1	11
504.000	1	11
504.170	1	-4
504.340	1	2
504.511	1	7
504.681	1	6
504.851	1	7
505.021	1	2
505.192	1	-3
505.362	1	15
505.532	1	6
505.702	1	5
505.872	1	2
506.043	1	5
506.213	1	5
506.383	1	12
506.553	1	11
506.723	1	4
506.893	1	-3
507.064	1	17
507.234	1	9
507.404	1	-4
507.574	1	4
507.744	1	0
507.915	1	12
508.085	1	12
508.255	1	13
508.425	1	2
508.595	1	7
508.766	1	10
508.936	1	-5
509.106	1	15
509.276	1	7
509.446	1	0
509.616	1	-4
509.787	1	12
509.957	1	3
510.127	1	8
510.297	1	4
510.467	1	3
510.638	1	2
510.808	1	-4
510.978	1	4
511.148	1	11
511.318	1	5
511.488	1	-3
511.659	1	10
511.829	1	0
511.999	1	1
512.169	1	6
512.339	1	-8
512.509	1	9
512.680	1	4
512.850	1	5
513.020	1	2
513.190	1	8
513.360	1	0
513.530	1	9
513.700	1	4
513.871	1	3
514.041	1	0
514.211	1	19
514.381	1	3
514.551	1	3
514.721	1	-6
514.892	1	11
515.062	1	5
515.232	1	5
515.402	1	0
515.572	1	-8
515.742	1	11
515.912	1	6
516.083	1	5
516.253	1	8
516.423	1	-5
516.593	1	0
516.763	1	12
516.933	1	-10
517.104	1	-2
517.274	1	3
517.444	1	3
517.614	1	-2
517.784	1	6
517.954	1	3
518.124	1	1
518.294	1	-2
518.465	1	0
518.635	1	5
518.805	1	-5
518.975	1	9
519.145	1	5
519.315	1	5
519.485	1	-1
519.656	1	15
519.826	1	6
519.996	1	-4
520.166	1	-1
520.336	1	10
520.506	1	-4
520.676	1	-9
520.846	1	6
521.017	1	4
521.187	1	0
521.357	1	9
521.527	1	-1
521.697	1	-6
521.867	1	1
522.037	1	11
522.207	1	10
522.377	1	11
522.548	1	1
522.718	1	9
522.888	1	15
523.058	1	-4
523.228	1	7
523.398	1	7
523.568	1	1
523.738	1	4
523.909	1	9
524.079	1	1
524.249	1	-4
524.419	1	-7
524.589	1	6
524.759	1	-8
524.929	1	-2
525.099	1	10
525.269	1	9
525.439	1	-2
525.610	1	12
525.780	1	4
525.950	1	11
526.120	1	6
526.290	1	8
526.460	1	-1
526.630	1	8
526.800	1	4
526.970	1	10
527.140	1	7
527.311	1	-8
527.481	1	-7
527.651	1	20
527.821	1	-8
527.991	1	17
528.161	1	8
528.331	1	0
528.501	1	9
528.671	1	-2
528.841	1	7
529.011	1	1
529.181	1	1
529.352	1	-2
529.522	1	-10
529.692	1	14
529.862	1	-3
530.032	1	9
530.202	1	3
530.372	1	2
530.542	1	8
530.712	1	4
530.882	1	6
531.052	1	1
531.222	1	4
531.392	1	-4
531.563	1	15
531.733	1	9
531.903	1	15
532.073	1	10
532.243	1	-1
532.413	1	9
532.583	1	3
532.753	1	4
532.923	1	0
533.093	1	4
533.263	1	-1
533.433	1	7
533.603	1	4
533.773	1	0
533.943	1	-5
534.113	1	2
534.284	1	6
534.454	1	5
534.624	1	14
534.794	1	-7
534.964	1	5
535.134	1	6
535.304	1	5
535.474	1	11
535.644	1	-7
535.814	1	2
535.984	1	-11
536.154	1	-3
536.324	1	3
536.494	1	7
536.664	1	8
536.834	1	6
537.004	1	-4
537.174	1	12
537.344	1	-3
537.514	1	-7
537.685	1	4
537.855	1	12
538.025	1	0
538.195	1	0
538.365	1	8
538.535	1	-1
538.705	1	8
538.875	1	4
539.045	1	9
539.215	1	9
539.385	1	5
539.555	1	3
539.725	1	2
539.895	1	-5
540.065	1	13
540.235	1	5
540.405	1	-9
540.575	1	2
540.745	1	17
540.915	1	3
541.085	1	14
541.255	1	-3
541.425	1	5
541.595	1	2
541.765	1	4
541.935	1	-2
542.105	1	-7
542.275	1	-4
542.445	1	-10
542.615	1	13
542.785	1	7
542.955	1	2
543.125	1	2
543.295	1	7
543.465	1	3
543.635	1	3
543.805	1	11
543.975	1	-3
544.145	1	1
544.315	1	9
544.485	1	8
544.655	1	2
544.825	1	-12
544.995	1	7
545.165	1	4
545.335	1	6
545.505	1	-6
545.675	1	1
545.845	1	7
546.015	1	7
546.185	1	15
546.355	1	5
546.525	1	2
546.695	1	5
546.865	1	4
547.035	1	4
547.205	1	-11
547.375	1	7
547.545	1	4
547.715	1	-4
547.885	1	-4
548.055	1	-4
548.225	1	3
548.395	1	2
548.565	1	-2
548.735	1	1
548.905	1	-2
549.075	1	0
549.245	1	0
549.415	1	-4
549.585	1	6
549.755	1	5
549.925	1	-5
550.095	1	5
550.265	1	-6
550.435	1	0
550.605	1	3
550.775	1	2
550.945	1	10
551.115	1	0
551.285	1	6
551.455	1	-9
551.625	1	8
551.795	1	8
551.965	1	-5
552.135	1	-3
552.305	1	-3
552.475	1	-9
552.645	1	0
552.815	1	-8
552.985	1	6
553.155	1	5
553.325	1	7
553.495	1	-5
553.665	1	6
553.835	1	8
554.004	1	-1
554.174	1	7
554.344	1	2
554.514	1	4
554.684	1	4
554.854	1	12
555.024	1	-8
555.194	1	1
555.364	1	-1
555.534	1	12
555.704	1	-8
555.874	1	12
556.044	1	5
556.214	1	-3
556.384	1	-2
556.554	1	9
556.724	1	-3
556.894	1	-4
557.064	1	7
557.234	1	-9
557.404	1	2
557.573	1	4
557.743	1	-2
557.913	1	-7
558.083	1	-4
558.253	1	6
558.423	1	7
558.593	1	5
558.763	1	0
558.933	1	1
559.103	1	8
559.273	1	2
559.443	1	6
559.613	1	5
559.783	1	2
559.953	1	0
560.122	1	14
560.292	1	-1
560.462	1	3
560.632	1	16
560.802	1	4
560.972	1	0
561.142	1	4
561.312	1	-8
561.482	1	7
561.652	1	9
561.822	1	1
561.992	1	-6
562.162	1	1
562.331	1	8
562.501	1	-4
562.671	1	8
562.841	1	-6
563.011	1	8
563.181	1	2
563.351	1	-5
563.521	1	-3
563.691	1	-2
563.861	1	-2
564.031	1	0
564.201	1	16
564.370	1	-8
564.540	1	0
564.710	1	-5
564.880	1	9
565.050	1	6
565.220	1	0
565.390	1	6
565.560	1	8
565.730	1	-7
565.900	1	5
566.069	1	20
566.239	1	-7
566.409	1	-1
566.579	1	6
566.749	1	4
566.919	1	4
567.089	1	7
567.259	1	11
567.429	1	2
567.599	1	4
567.768	1	4
567.938	1	-3
568.108	1	5
568.278	1	8
568.448	1	-10
568.618	1	-1
568.788	1	0
568.958	1	3
569.128	1	5
569.297	1	-2
569.467	1	-7
569.637	1	17
569.807	1	5
569.977	1	6
570.147	1	7
570.317	1	2
570.487	1	6
570.656	1	5
570.826	1	-1
570.996	1	-8
571.166	1	15
571.336	1	3
571.506	1	-10
571.676	1	0
571.846	1	2
572.015	1	6
572.185	1	6
572.355	1	1
572.525	1	-4
572.695	1	0
572.865	1	2
573.035	1	7
573.205	1	1
573.374	1	-6
573.544	1	-3
573.714	1	9
573.884	1	3
574.054	1	1
574.224	1	9
574.394	1	-6
574.563	1	-2
574.733	1	-1
574.903	1	-7
575.073	1	1
575.243	1	-6
575.413	1	8
575.583	1	-3
575.752	1	2
575.922	1	1
576.092	1	4
576.262	1	8
576.432	1	0
576.602	1	-3
576.772	1	7
576.941	1	-1
577.111	1	-11
577.281	1	-8
577.451	1	-9
577.621	1	8
577.791	1	2
577.960	1	-4
578.130	1	1
578.300	1	0
578.470	1	16
578.640	1	-3
578.810	1	13
578.979	1	5
579.149	1	-6
579.319	1	0
579.489	1	1
579.659	1	-5
579.829	1	3
579.998	1	6
580.168	1	7
580.338	1	5
580.508	1	8
580.678	1	-2
580.848	1	8
581.017	1	-2
581.187	1	-5
581.357	1	-2
581.527	1	4
581.697	1	3
581.867	1	8
582.036	1	8
582.206	1	-1
582.376	1	9
582.546	1	-1
582.716	1	-4
582.885	1	-1
583.055	1	-10
583.225	1	-6
583.395	1	3
583.565	1	-3
583.735	1	1
583.904	1	2
584.074	1	2
584.244	1	0
584.414	1	-2
584.584	1	12
584.753	1	1
584.923	1	9
585.093	1	-6
585.263	1	3
585.433	1	6
585.602	1	-8
585.772	1	-1
585.942	1	-3
586.112	1	8
586.282	1	0
586.451	1	0
586.621	1	-6
586.791	1	1
586.961	1	6
587.131	1	9
587.300	1	-5
587.470	1	7
587.640	1	4
587.810	1	-3
587.980	1	-3
588.149	1	6
588.319	1	-1
588.489	1	1
588.659	1	4
588.829	1	4
588.998	1	7
589.168	1	-1
589.338	1	5
589.508	1	7
589.677	1	-5
589.847	1	-2
590.017	1	13
590.187	1	-8
590.357	1	7
590.526	1	15
590.696	1	7
590.866	1	11
591.036	1	-4
591.205	1	19
591.375	1	3
591.545	1	3
591.715	1	9
591.885	1	-7
592.054	1	-3
592.224	1	3
592.394	1	-2
592.564	1	1
592.733	1	3
592.903	1	4
593.073	1	9
593.243	1	13
593.412	1	1
593.582	1	-8
593.752	1	-1
593.922	1	-1
594.091	1	-3
594.261	1	2
594.431	1	4
594.601	1	9
594.771	1	-3
594.940	1	-2
595.110	1	2
595.280	1	3
595.450	1	1
595.619	1	1
595.789	1	3
595.959	1	9
596.129	1	2
596.298	1	8
596.468	1	8
596.638	1	4
596.808	1	6
596.977	1	-5
597.147	1	2
597.317	1	-5
597.487	1	11
597.656	1	4
597.826	1	8
597.996	1	3
598.166	1	-8
598.335	1	-11
598.505	1	4
598.675	1	-5
598.844	1	5
599.014	1	4
599.184	1	0
599.354	1	-6
599.523	1	3
599.693	1	2
599.863	1	0
600.033	1	8
600.202	1	6
600.372	1	0
600.542	1	8
600.712	1	-7
600.881	1	1
601.051	1	12
601.221	1	-5
601.390	1	-1
601.560	1	8
601.730	1	4
601.900	1	1
602.069	1	10
602.239	1	-8
602.409	1	-10
602.578	1	4
602.748	1	-4
602.918	1	6
603.088	1	2
603.257	1	3
603.427	1	0
603.597	1	7
603.767	1	6
603.936	1	0
604.106	1	-2
604.276	1	3
604.445	1	1
604.615	1	-6
604.785	1	0
604.954	1	-4
605.124	1	6
605.294	1	-2
605.464	1	-1
605.633	1	1
605.803	1	-1
605.973	1	-5
606.142	1	9
606.312	1	5
606.482	1	5
606.652	1	7
606.821	1	-1
606.991	1	-11
607.161	1	-1
607.330	1	4
607.500	1	3
607.670	1	0
607.839	1	17
608.009	1	18
608.179	1	1
608.348	1	3
608.518	1	-2
608.688	1	7
608.858	1	0
609.027	1	-11
609.197	1	10
609.367	1	10
609.536	1	7
609.706	1	1
609.876	1	-2
610.045	1	1
610.215	1	7
610.385	1	-3
610.554	1	2
610.724	1	-1
610.894	1	-2
611.063	1	2
611.233	1	3
611.403	1	-3
611.572	1	-3
611.742	1	4
611.912	1	9
612.081	1	-1
612.251	1	4
612.421	1	-3
612.590	1	4
612.760	1	4
612.930	1	5
613.099	1	1
613.269	1	6
613.439	1	10
613.608	1	5
613.778	1	6
613.948	1	1
614.117	1	6
614.287	1	11
614.457	1	5
614.626	1	1
614.796	1	4
614.966	1	1
615.135	1	3
615.305	1	12
615.475	1	0
615.644	1	4
615.814	1	-7
615.984	1	-4
616.153	1	1
616.323	1	-2
616.493	1	-6
616.662	1	7
616.832	1	5
617.002	1	4
617.171	1	1
617.341	1	2
617.511	1	-4
617.680	1	-8
617.850	1	4
618.019	1	9
618.189	1	5
618.359	1	4
618.528	1	3
618.698	1	3
618.868	1	-6
619.037	1	3
619.207	1	-9
619.377	1	-3
619.546	1	-3
619.716	1	4
619.885	1	2
620.055	1	-14
620.225	1	5
620.394	1	-5
620.564	1	7
620.734	1	6
620.903	1	-12
621.073	1	9
621.242	1	11
621.412	1	-5
621.582	1	3
621.751	1	10
621.921	1	6
622.091	1	0
622.260	1	-1
622.430	1	12
622.599	1	-5
622.769	1	10
622.939	1	1
623.108	1	3
623.278	1	-6
623.448	1	4
623.617	1	3
623.787	1	1
623.956	1	1
624.126	1	0
624.296	1	-3
624.465	1	-1
624.635	1	10
624.804	1	8
624.974	1	1
625.144	1	13
625.313	1	7
625.483	1	-8
625.652	1	-4
625.822	1	-6
625.992	1	0
626.161	1	12
626.331	1	5
626.501	1	6
626.670	1	-1
626.840	1	-7
627.009	1	-5
627.179	1	6
627.348	1	8
627.518	1	-3
627.688	1	-1
627.857	1	11
628.027	1	-7
628.196	1	-1
628.366	1	3
628.536	1	9
628.705	1	-3
628.875	1	5
629.044	1	-5
629.214	1	15
629.384	1	3
629.553	1	13
629.723	1	0
629.892	1	-1
630.062	1	2
630.232	1	5
630.401	1	12
630.571	1	7
630.740	1	1
630.910	1	9
631.079	1	2
631.249	1	9
631.419	1	3
631.588	1	-1
631.758	1	7
631.927	1	-1
632.097	1	-1
632.266	1	2
632.436	1	5
632.606	1	-1
632.775	1	6
632.945	1	2
633.114	1	5
633.284	1	4
633.453	1	0
633.623	1	7
633.793	1	0
633.962	1	-6
634.132	1	-1
634.301	1	9
634.471	1	7
634.640	1	14
634.810	1	8
634.979	1	3
635.149	1	5
635.319	1	12
635.488	1	0
635.658	1	-6
635.827	1	-8
635.997	1	6
636.166	1	2
636.336	1	-5
636.505	1	9
636.675	1	2
636.845	1	17
637.014	1	8
637.184	1	2
637.353	1	2
637.523	1	4
637.692	1	-6
637.862	1	9
638.031	1	6
638.201	1	13
638.370	1	9
638.540	1	1
638.710	1	-2
638.879	1	-8
639.049	1	0
639.218	1	6
639.388	1	-5
639.557	1	6
639.727	1	7
639.896	1	9
640.066	1	-2
640.235	1	11
640.405	1	10
640.574	1	5
640.744	1	1
640.914	1	1
641.083	1	13
641.253	1	2
641.422	1	1
641.592	1	12
641.761	1	-3
641.931	1	4
642.100	1	24
642.270	1	-2
642.439	1	2
642.609	1	11
642.778	1	-3
642.948	1	-1
643.117	1	9
643.287	1	10
643.456	1	-4
643.626	1	9
643.795	1	-3
643.965	1	2
644.134	1	-2
644.304	1	-3
644.473	1	11
644.643	1	2
644.812	1	0
644.982	1	5
645.151	1	1
645.321	1	-8
645.490	1	15
645.660	1	-7
645.829	1	4
645.999	1	-4
646.168	1	6
646.338	1	3
646.507	1	3
646.677	1	5
646.846	1	7
647.016	1	-1
647.185	1	6
647.355	1	-8
647.524	1	16
647.694	1	11
647.863	1	2
648.033	1	4
648.202	1	7
648.372	1	7
648.541	1	0
648.711	1	1
648.880	1	-1
649.050	1	-5
649.219	1	4
649.389	1	11
649.558	1	6
649.728	1	11
649.897	1	-7
650.067	1	6
650.236	1	4
650.406	1	9
650.575	1	11
650.745	1	7
650.914	1	7
651.084	1	-5
651.253	1	1
651.423	1	11
651.592	1	6
651.762	1	3
651.931	1	9
652.101	1	7
652.270	1	9
652.440	1	9
652.609	1	-1
652.778	1	3
652.948	1	2
653.117	1	5
653.287	1	-1
653.456	1	11
653.626	1	4
653.795	1	3
653.965	1	2
654.134	1	13
654.304	1	-3
654.473	1	7
654.643	1	9
654.812	1	7
654.982	1	1
655.151	1	-7
655.320	1	2
655.490	1	0
655.659	1	-5
655.829	1	8
655.998	1	4
656.168	1	2
656.337	1	0
656.507	1	1
656.676	1	10
656.846	1	3
657.015	1	12
657.184	1	6
657.354	1	6
657.523	1	-2
657.693	1	13
657.862	1	12
658.032	1	6
658.201	1	0
658.371	1	6
658.540	1	1
658.709	1	2
658.879	1	5
659.048	1	2
659.218	1	1
659.387	1	11
659.557	1	1
659.726	1	9
659.895	1	0
660.065	1	-1
660.234	1	4
660.404	1	-1
660.573	1	-6
660.743	1	7
660.912	1	3
661.081	1	7
661.251	1	0
661.420	1	7
661.590	1	-5
661.759	1	7
661.929	1	5
662.098	1	7
662.267	1	3
662.437	1	12
662.606	1	7
662.776	1	10
662.945	1	4
663.115	1	9
663.284	1	-2
663.453	1	9
663.623	1	-1
663.792	1	4
663.962	1	4
664.131	1	6
664.300	1	7
664.470	1	3
664.639	1	-1
664.809	1	2
664.978	1	13
665.148	1	-4
665.317	1	8
665.486	1	9
665.656	1	-6
665.825	1	11
665.995	1	3
666.164	1	5
666.333	1	5
666.503	1	-1
666.672	1	4
666.842	1	-1
667.011	1	5
667.180	1	9
667.350	1	2
667.519	1	5
667.689	1	6
667.858	1	1
668.027	1	9
668.197	1	-8
668.366	1	3
668.536	1	2
668.705	1	-2
668.874	1	13
669.044	1	8
669.213	1	6
669.382	1	-6
669.552	1	12
669.721	1	9
669.891	1	11
670.060	1	5
670.229	1	8
670.399	1	3
670.568	1	14
670.738	1	7
670.907	1	-5
671.076	1	1
671.246	1	5
671.415	1	6
671.584	1	3
671.754	1	-1
671.923	1	-2
672.093	1	7
672.262	1	-7
672.431	1	3
672.601	1	-3
672.770	1	-5
672.939	1	5
673.109	1	-5
673.278	1	1
673.448	1	10
673.617	1	2
673.786	1	8
