325.333	1	4
325.504	1	3
325.675	1	8
325.846	1	3
326.017	1	6
326.188	1	-1
326.359	1	-2
326.531	1	-16
326.702	1	-4
326.873	1	4
327.044	1	2
327.215	1	1
327.386	1	9
327.557	1	-7
327.728	1	4
327.899	1	-1
328.070	1	4
328.241	1	3
328.412	1	-15
328.583	1	4
328.754	1	-3
328.926	1	10
329.097	1	2
329.268	1	19
329.439	1	-7
329.610	1	7
329.781	1	-10
329.952	1	6
330.123	1	8
330.294	1	5
330.465	1	-1
330.636	1	5
330.807	1	-4
330.978	1	-1
331.149	1	-2
331.320	1	7
331.492	1	-1
331.663	1	10
331.834	1	9
332.005	1	-1
332.176	1	3
332.347	1	11
332.518	1	-2
332.689	1	4
332.860	1	-2
333.031	1	11
333.202	1	4
333.373	1	6
333.544	1	-4
333.715	1	3
333.886	1	-1
334.057	1	0
334.228	1	1
334.399	1	-3
334.570	1	7
334.741	1	-3
334.912	1	11
335.084	1	18
335.255	1	0
335.426	1	1
335.597	1	1
335.768	1	9
335.939	1	13
336.110	1	4
336.281	1	-5
336.452	1	0
336.623	1	10
336.794	1	7
336.965	1	-2
337.136	1	7
337.307	1	7
337.478	1	0
337.649	1	-5
337.820	1	2
337.991	1	1
338.162	1	2
338.333	1	1
338.504	1	5
338.675	1	1
338.846	1	-1
339.017	1	4
339.188	1	-3
339.359	1	-7
339.530	1	-3
339.701	1	8
339.872	1	11
340.043	1	-1
340.214	1	0
340.385	1	10
340.556	1	-1
340.727	1	5
340.898	1	11
341.069	1	11
341.240	1	-7
341.411	1	5
341.582	1	5
341.753	1	-6
341.924	1	-7
342.095	1	3
342.266	1	11
342.437	1	15
342.608	1	-1
342.779	1	12
342.950	1	7
343.121	1	3
343.292	1	3
343.463	1	1
343.634	1	6
343.805	1	10
343.976	1	11
344.147	1	11
344.318	1	3
344.489	1	-3
344.660	1	16
344.831	1	10
345.002	1	-4
345.173	1	8
345.344	1	7
345.515	1	3
345.686	1	-1
345.857	1	9
346.028	1	8
346.199	1	5
346.370	1	-3
346.541	1	12
346.712	1	-10
346.883	1	-1
347.054	1	3
347.225	1	-1
347.396	1	6
347.567	1	4
347.738	1	-5
347.909	1	16
348.080	1	-9
348.251	1	3
348.422	1	14
348.593	1	3
348.764	1	1
348.935	1	4
349.106	1	-4
349.277	1	7
349.448	1	4
349.619	1	4
349.790	1	5
349.961	1	6
350.132	1	7
350.303	1	2
350.474	1	7
350.645	1	11
350.816	1	5
350.987	1	9
351.157	1	-8
351.328	1	5
351.499	1	4
351.670	1	8
351.841	1	11
352.012	1	12
352.183	1	12
352.354	1	12
352.525	1	14
352.696	1	7
352.867	1	2
353.038	1	10
353.209	1	15
353.380	1	5
353.551	1	-12
353.722	1	2
353.893	1	9
354.064	1	14
354.235	1	7
354.406	1	9
354.576	1	3
354.747	1	5
354.918	1	12
355.089	1	4
355.260	1	13
355.431	1	3
355.602	1	-2
355.773	1	9
355.944	1	9
356.115	1	7
356.286	1	0
356.457	1	11
356.628	1	2
356.799	1	13
356.970	1	17
357.141	1	6
357.311	1	-5
357.482	1	7
357.653	1	18
357.824	1	13
357.995	1	-3
358.166	1	-6
358.337	1	8
358.508	1	6
358.679	1	15
358.850	1	11
359.021	1	5
359.192	1	6
359.363	1	3
359.533	1	-1
359.704	1	10
359.875	1	7
360.046	1	9
360.217	1	1
360.388	1	4
360.559	1	5
360.730	1	17
360.901	1	6
361.072	1	9
361.243	1	11
361.414	1	7
361.584	1	0
361.755	1	10
361.926	1	12
362.097	1	7
362.268	1	6
362.439	1	-2
362.610	1	12
362.781	1	-6
362.952	1	4
363.123	1	2
363.293	1	-4
363.464	1	16
363.635	1	10
363.806	1	3
363.977	1	10
364.148	1	15
364.319	1	9
364.490	1	1
364.661	1	9
364.832	1	13
365.002	1	5
365.173	1	4
365.344	1	23
365.515	1	14
365.686	1	10
365.857	1	11
366.028	1	9
366.199	1	-4
366.370	1	16
366.540	1	5
366.711	1	-3
366.882	1	-1
367.053	1	-8
367.224	1	19
367.395	1	11
367.566	1	13
367.737	1	5
367.908	1	16
368.078	1	8
368.249	1	23
368.420	1	2
368.591	1	-4
368.762	1	7
368.933	1	5
369.104	1	5
369.274	1	11
369.445	1	8
369.616	1	6
369.787	1	5
369.958	1	7
370.129	1	1
370.300	1	13
370.471	1	7
370.641	1	9
370.812	1	12
370.983	1	-1
371.154	1	3
371.325	1	13
371.496	1	8
371.667	1	12
371.837	1	8
372.008	1	6
372.179	1	-2
372.350	1	13
372.521	1	7
372.692	1	3
372.863	1	11
373.033	1	-3
373.204	1	3
373.375	1	12
373.546	1	8
373.717	1	8
373.888	1	16
374.059	1	13
374.229	1	11
374.400	1	5
374.571	1	3
374.742	1	21
374.913	1	5
375.084	1	9
375.254	1	11
375.425	1	19
375.596	1	3
375.767	1	12
375.938	1	10
376.109	1	14
376.279	1	7
376.450	1	20
376.621	1	14
376.792	1	3
376.963	1	8
377.134	1	12
377.304	1	12
377.475	1	-1
377.646	1	9
377.817	1	6
377.988	1	9
378.159	1	6
378.329	1	19
378.500	1	2
378.671	1	10
378.842	1	-3
379.013	1	-6
379.184	1	0
379.354	1	15
379.525	1	6
379.696	1	17
379.867	1	14
380.038	1	7
380.209	1	4
380.379	1	-5
380.550	1	-2
380.721	1	23
380.892	1	4
381.063	1	11
381.233	1	15
381.404	1	13
381.575	1	18
381.746	1	10
381.917	1	9
382.087	1	3
382.258	1	0
382.429	1	7
382.600	1	21
382.771	1	0
382.941	1	10
383.112	1	1
383.283	1	15
383.454	1	6
383.625	1	5
383.795	1	13
383.966	1	14
384.137	1	19
384.308	1	6
384.479	1	15
384.649	1	10
384.820	1	18
384.991	1	8
385.162	1	10
385.333	1	4
385.503	1	3
385.674	1	3
385.845	1	11
386.016	1	11
386.187	1	-4
386.357	1	11
386.528	1	10
386.699	1	6
386.870	1	15
387.041	1	16
387.211	1	3
387.382	1	17
387.553	1	9
387.724	1	5
387.894	1	9
388.065	1	12
388.236	1	14
388.407	1	9
388.578	1	4
388.748	1	7
388.919	1	25
389.090	1	9
389.261	1	7
389.431	1	6
389.602	1	17
389.773	1	12
389.944	1	5
390.114	1	10
390.285	1	9
390.456	1	8
390.627	1	11
390.798	1	9
390.968	1	14
391.139	1	6
391.310	1	7
391.481	1	13
391.651	1	8
391.822	1	-2
391.993	1	8
392.164	1	2
392.334	1	17
392.505	1	9
392.676	1	9
392.847	1	18
393.017	1	9
393.188	1	21
393.359	1	7
393.530	1	7
393.700	1	12
393.871	1	-1
394.042	1	13
394.213	1	3
394.383	1	11
394.554	1	8
394.725	1	16
394.896	1	-3
395.066	1	13
395.237	1	3
395.408	1	3
395.579	1	16
395.749	1	7
395.920	1	8
396.091	1	14
396.262	1	11
396.432	1	10
396.603	1	16
396.774	1	24
396.945	1	9
397.115	1	12
397.286	1	13
397.457	1	9
397.627	1	9
397.798	1	28
397.969	1	11
398.140	1	3
398.310	1	12
398.481	1	19
398.652	1	9
398.823	1	14
398.993	1	-1
399.164	1	12
399.335	1	24
399.505	1	8
399.676	1	7
399.847	1	7
400.018	1	14
400.188	1	16
400.359	1	16
400.530	1	6
400.700	1	11
400.871	1	7
401.042	1	17
401.213	1	8
401.383	1	25
401.554	1	22
401.725	1	16
401.895	1	8
402.066	1	22
402.237	1	12
402.408	1	12
402.578	1	12
402.749	1	14
402.920	1	15
403.090	1	3
403.261	1	16
403.432	1	12
403.603	1	7
403.773	1	23
403.944	1	24
404.115	1	16
404.285	1	12
404.456	1	10
404.627	1	8
404.797	1	13
404.968	1	9
405.139	1	17
405.310	1	27
405.480	1	11
405.651	1	17
405.822	1	10
405.992	1	-3
406.163	1	8
406.334	1	4
406.504	1	12
406.675	1	17
406.846	1	7
407.016	1	23
407.187	1	26
407.358	1	-2
407.528	1	13
407.699	1	-1
407.870	1	3
408.041	1	6
408.211	1	36
408.382	1	8
408.553	1	7
408.723	1	14
408.894	1	8
409.065	1	20
409.235	1	7
409.406	1	8
409.577	1	-2
409.747	1	17
409.918	1	5
410.089	1	7
410.259	1	9
410.430	1	4
410.601	1	17
410.771	1	20
410.942	1	25
411.113	1	10
411.283	1	11
411.454	1	19
411.625	1	13
411.795	1	14
411.966	1	18
412.137	1	12
412.307	1	4
412.478	1	11
412.649	1	3
412.819	1	3
412.990	1	5
413.161	1	18
413.331	1	3
413.502	1	22
413.672	1	12
413.843	1	16
414.014	1	7
414.184	1	13
414.355	1	15
414.526	1	14
414.696	1	26
414.867	1	14
415.038	1	-4
415.208	1	13
415.379	1	17
415.550	1	18
415.720	1	6
415.891	1	16
416.062	1	11
416.232	1	12
416.403	1	8
416.573	1	15
416.744	1	6
416.915	1	26
417.085	1	17
417.256	1	14
417.427	1	8
417.597	1	12
417.768	1	5
417.939	1	9
418.109	1	12
418.280	1	17
418.450	1	11
418.621	1	7
418.792	1	12
418.962	1	15
419.133	1	25
419.304	1	1
419.474	1	4
419.645	1	8
419.815	1	3
419.986	1	12
420.157	1	13
420.327	1	13
420.498	1	22
420.669	1	11
420.839	1	22
421.010	1	21
421.180	1	12
421.351	1	4
421.522	1	17
421.692	1	22
421.863	1	11
422.033	1	25
422.204	1	19
422.375	1	1
422.545	1	13
422.716	1	7
422.886	1	14
423.057	1	19
423.228	1	10
423.398	1	3
423.569	1	16
423.740	1	2
423.910	1	3
424.081	1	16
424.251	1	7
424.422	1	18
424.593	1	7
424.763	1	14
424.934	1	9
425.104	1	5
425.275	1	17
425.445	1	8
425.616	1	14
425.787	1	7
425.957	1	21
426.128	1	7
426.298	1	8
426.469	1	13
426.640	1	11
426.810	1	14
426.981	1	7
427.151	1	16
427.322	1	5
427.493	1	8
427.663	1	17
427.834	1	9
428.004	1	18
428.175	1	12
428.345	1	11
428.516	1	14
428.687	1	9
428.857	1	2
429.028	1	12
429.198	1	16
429.369	1	18
429.540	1	6
429.710	1	5
429.881	1	7
430.051	1	1
430.222	1	7
430.392	1	-2
430.563	1	19
430.734	1	18
430.904	1	19
431.075	1	17
431.245	1	8
431.416	1	10
431.586	1	13
431.757	1	7
431.927	1	9
432.098	1	15
432.269	1	14
432.439	1	4
432.610	1	17
432.780	1	26
432.951	1	7
433.121	1	27
433.292	1	13
433.462	1	8
433.633	1	17
433.804	1	7
433.974	1	10
434.145	1	25
434.315	1	6
434.486	1	10
434.656	1	8
434.827	1	11
434.997	1	4
435.168	1	10
435.339	1	15
435.509	1	22
435.680	1	9
435.850	1	16
436.021	1	8
436.191	1	-1
436.362	1	15
436.532	1	6
436.703	1	11
436.873	1	8
437.044	1	10
437.214	1	10
437.385	1	13
437.556	1	9
437.726	1	21
437.897	1	20
438.067	1	6
438.238	1	6
438.408	1	14
438.579	1	5
438.749	1	9
438.920	1	5
439.090	1	15
439.261	1	7
439.431	1	4
439.602	1	11
439.772	1	14
439.943	1	23
440.113	1	10
440.284	1	10
440.455	1	9
440.625	1	19
440.796	1	12
440.966	1	6
441.137	1	7
441.307	1	8
441.478	1	18
441.648	1	21
441.819	1	14
441.989	1	11
442.160	1	16
442.330	1	0
442.501	1	13
442.671	1	-1
442.842	1	3
443.012	1	-2
443.183	1	14
443.353	1	16
443.524	1	22
443.694	1	11
443.865	1	11
444.035	1	12
444.206	1	8
444.376	1	7
444.547	1	17
444.717	1	3
444.888	1	7
445.058	1	26
445.229	1	12
445.399	1	0
445.570	1	16
445.740	1	12
445.911	1	6
446.081	1	8
446.252	1	18
446.422	1	10
446.593	1	10
446.763	1	4
446.934	1	5
447.104	1	0
447.275	1	17
447.445	1	8
447.616	1	13
447.786	1	4
447.957	1	15
448.127	1	9
448.298	1	3
448.468	1	4
448.639	1	7
448.809	1	8
448.979	1	7
449.150	1	15
449.320	1	11
449.491	1	19
449.661	1	3
449.832	1	-1
450.002	1	20
450.173	1	14
450.343	1	8
450.514	1	5
450.684	1	5
450.855	1	1
451.025	1	12
451.196	1	13
451.366	1	16
451.537	1	9
451.707	1	1
451.878	1	11
452.048	1	13
452.218	1	17
452.389	1	15
452.559	1	5
452.730	1	15
452.900	1	8
453.071	1	-8
453.241	1	8
453.412	1	8
453.582	1	15
453.753	1	13
453.923	1	6
454.093	1	11
454.264	1	17
454.434	1	10
454.605	1	15
454.775	1	5
454.946	1	9
455.116	1	18
455.287	1	-5
455.457	1	10
455.628	1	-3
455.798	1	18
455.968	1	13
456.139	1	10
456.309	1	11
456.480	1	4
456.650	1	8
456.821	1	6
456.991	1	10
457.161	1	4
457.332	1	15
457.502	1	-4
457.673	1	15
457.843	1	7
458.014	1	11
458.184	1	11
458.355	1	8
458.525	1	6
458.695	1	10
458.866	1	0
459.036	1	15
459.207	1	7
459.377	1	1
459.548	1	13
459.718	1	8
459.888	1	9
460.059	1	16
460.229	1	17
460.400	1	18
460.570	1	5
460.740	1	6
460.911	1	10
461.081	1	5
461.252	1	9
461.422	1	8
461.593	1	3
461.763	1	17
461.933	1	11
462.104	1	1
462.274	1	5
462.445	1	13
462.615	1	9
462.785	1	7
462.956	1	6
463.126	1	19
463.297	1	4
463.467	1	2
463.638	1	7
463.808	1	5
463.978	1	3
464.149	1	-5
464.319	1	1
464.490	1	18
464.660	1	4
464.830	1	1
465.001	1	13
465.171	1	2
465.342	1	11
465.512	1	-5
465.682	1	13
465.853	1	13
466.023	1	0
466.194	1	1
466.364	1	17
466.534	1	9
466.705	1	7
466.875	1	15
467.045	1	-9
467.216	1	26
467.386	1	4
467.557	1	8
467.727	1	0
467.897	1	3
468.068	1	5
468.238	1	9
468.409	1	4
468.579	1	7
468.749	1	5
468.920	1	-8
469.090	1	11
469.260	1	8
469.431	1	12
469.601	1	14
469.772	1	7
469.942	1	7
470.112	1	11
470.283	1	5
470.453	1	12
470.623	1	-1
470.794	1	2
470.964	1	3
471.135	1	15
471.305	1	-2
471.475	1	11
471.646	1	-3
471.816	1	9
471.986	1	-5
472.157	1	19
472.327	1	-2
472.497	1	11
472.668	1	-1
472.838	1	7
473.009	1	13
473.179	1	2
473.349	1	3
473.520	1	12
473.690	1	4
473.860	1	4
474.031	1	15
474.201	1	8
474.371	1	15
474.542	1	7
474.712	1	9
474.882	1	6
475.053	1	12
475.223	1	-5
475.394	1	13
475.564	1	1
475.734	1	10
475.905	1	13
476.075	1	11
476.245	1	13
476.416	1	11
476.586	1	6
476.756	1	7
476.927	1	8
477.097	1	6
477.267	1	5
477.438	1	11
477.608	1	-5
477.778	1	18
477.949	1	8
478.119	1	14
478.289	1	4
478.460	1	11
478.630	1	6
478.800	1	7
478.971	1	4
479.141	1	2
479.311	1	1
479.482	1	0
479.652	1	-3
479.822	1	3
479.993	1	13
480.163	1	9
480.333	1	6
480.504	1	14
480.674	1	2
480.844	1	-5
481.015	1	2
481.185	1	1
481.355	1	14
481.525	1	5
481.696	1	8
481.866	1	12
482.036	1	5
482.207	1	6
482.377	1	-1
482.547	1	12
482.718	1	-7
482.888	1	9
483.058	1	1
483.229	1	0
483.399	1	-3
483.569	1	12
483.740	1	-3
483.910	1	4
484.080	1	2
484.250	1	9
484.421	1	2
484.591	1	13
484.761	1	20
484.932	1	13
485.102	1	6
485.272	1	3
485.443	1	12
485.613	1	12
485.783	1	-1
485.953	1	-1
486.124	1	13
486.294	1	4
486.464	1	6
486.635	1	11
486.805	1	17
486.975	1	-7
487.146	1	9
487.316	1	5
487.486	1	4
487.656	1	6
487.827	1	19
487.997	1	2
488.167	1	-1
488.338	1	9
488.508	1	5
488.678	1	2
488.848	1	19
489.019	1	1
489.189	1	5
489.359	1	-3
489.529	1	3
489.700	1	4
489.870	1	15
490.040	1	2
490.211	1	1
490.381	1	4
490.551	1	2
490.721	1	16
490.892	1	12
491.062	1	17
491.232	1	3
491.402	1	6
491.573	1	-4
491.743	1	11
491.913	1	4
492.084	1	14
492.254	1	-3
492.424	1	5
492.594	1	7
492.765	1	8
492.935	1	1
493.105	1	12
493.275	1	11
493.446	1	15
493.616	1	8
493.786	1	-1
493.956	1	2
494.127	1	9
494.297	1	-4
494.467	1	5
494.637	1	3
494.808	1	3
494.978	1	-2
495.148	1	10
495.318	1	4
495.489	1	2
495.659	1	1
495.829	1	1
495.999	1	5
496.170	1	6
496.340	1	5
496.510	1	9
496.680	1	-3
496.851	1	5
497.021	1	13
497.191	1	0
497.361	1	6
497.532	1	1
497.702	1	7
497.872	1	-3
498.042	1	11
498.213	1	4
498.383	1	10
498.553	1	0
498.723	1	2
498.894	1	7
499.064	1	7
499.234	1	7
499.404	1	-1
499.574	1	9
499.745	1	24
499.915	1	1
500.085	1	3
500.255	1	3
500.426	1	4
500.596	1	10
500.766	1	3
500.936	1	5
501.106	1	3
501.277	1	6
501.447	1	7
501.617	1	3
501.787	1	4
501.958	1	-6
502.128	1	7
502.298	1	2
502.468	1	0
502.638	1	6
502.809	1	4
502.979	1	4
503.149	1	-2
503.319	1	-2
503.489	1	2
503.660	1	4
503.830	1	9
504.000	1	6
504.170	1	3
504.340	1	-5
504.511	1	14
504.681	1	0
504.851	1	4
505.021	1	1
505.192	1	6
505.362	1	11
505.532	1	5
505.702	1	3
505.872	1	9
506.043	1	4
506.213	1	-5
506.383	1	0
506.553	1	6
506.723	1	4
506.893	1	2
507.064	1	9
507.234	1	-5
507.404	1	5
507.574	1	12
507.744	1	2
507.915	1	3
508.085	1	11
508.255	1	2
508.425	1	-9
508.595	1	6
508.766	1	12
508.936	1	-10
509.106	1	13
509.276	1	16
509.446	1	-4
509.616	1	-3
509.787	1	12
509.957	1	7
510.127	1	8
510.297	1	3
510.467	1	8
510.638	1	1
510.808	1	-2
510.978	1	2
511.148	1	6
511.318	1	5
511.488	1	-11
511.659	1	12
511.829	1	-3
511.999	1	-7
512.169	1	1
512.339	1	9
512.509	1	2
512.680	1	6
512.850	1	7
513.020	1	5
513.190	1	6
513.360	1	-1
513.530	1	2
513.700	1	7
513.871	1	3
514.041	1	6
514.211	1	11
514.381	1	15
514.551	1	6
514.721	1	-3
514.892	1	3
515.062	1	0
515.232	1	1
515.402	1	-4
515.572	1	1
515.742	1	12
515.912	1	6
516.083	1	8
516.253	1	8
516.423	1	2
516.593	1	-3
516.763	1	11
516.933	1	-3
517.104	1	3
517.274	1	-3
517.444	1	5
517.614	1	-9
517.784	1	7
517.954	1	2
518.124	1	7
518.294	1	-1
518.465	1	1
518.635	1	2
518.805	1	-10
518.975	1	3
519.145	1	0
519.315	1	0
519.485	1	-3
519.656	1	11
519.826	1	7
519.996	1	-6
520.166	1	9
520.336	1	16
520.506	1	4
520.676	1	-7
520.846	1	7
521.017	1	13
521.187	1	3
521.357	1	6
521.527	1	2
521.697	1	2
521.867	1	1
522.037	1	19
522.207	1	8
522.377	1	6
522.548	1	-1
522.718	1	7
522.888	1	10
523.058	1	-1
523.228	1	11
523.398	1	5
523.568	1	0
523.738	1	-2
523.909	1	13
524.079	1	2
524.249	1	3
524.419	1	7
524.589	1	6
524.759	1	4
524.929	1	-1
525.099	1	2
525.269	1	12
525.439	1	-1
525.610	1	17
525.780	1	7
525.950	1	9
526.120	1	1
526.290	1	3
526.460	1	-4
526.630	1	5
526.800	1	0
526.970	1	-1
527.140	1	19
527.311	1	-5
527.481	1	-8
527.651	1	7
527.821	1	-4
527.991	1	13
528.161	1	6
528.331	1	3
528.501	1	4
528.671	1	-6
528.841	1	7
529.011	1	6
529.181	1	-1
529.352	1	6
529.522	1	-8
529.692	1	3
529.862	1	1
530.032	1	0
530.202	1	7
530.372	1	6
530.542	1	10
530.712	1	-2
530.882	1	1
531.052	1	6
531.222	1	-1
531.392	1	3
531.563	1	1
531.733	1	5
531.903	1	1
532.073	1	6
532.243	1	-1
532.413	1	3
532.583	1	3
532.753	1	6
532.923	1	-4
533.093	1	-4
533.263	1	3
533.433	1	-1
533.603	1	5
533.773	1	-2
533.943	1	2
534.113	1	-1
534.284	1	3
534.454	1	5
534.624	1	5
534.794	1	-5
534.964	1	11
535.134	1	-1
535.304	1	0
535.474	1	9
535.644	1	4
535.814	1	-7
535.984	1	-5
536.154	1	-1
536.324	1	1
536.494	1	2
536.664	1	5
536.834	1	7
537.004	1	12
537.174	1	5
537.344	1	4
537.514	1	-9
537.685	1	-7
537.855	1	6
538.025	1	1
538.195	1	-9
538.365	1	9
538.535	1	-1
538.705	1	7
538.875	1	5
539.045	1	8
539.215	1	-4
539.385	1	9
539.555	1	-1
539.725	1	-4
539.895	1	-2
540.065	1	12
540.235	1	12
540.405	1	1
540.575	1	-2
540.745	1	3
540.915	1	6
541.085	1	5
541.255	1	-7
541.425	1	11
541.595	1	-2
541.765	1	5
541.935	1	-1
542.105	1	-12
542.275	1	16
542.445	1	-8
542.615	1	4
542.785	1	9
542.955	1	3
543.125	1	-10
543.295	1	6
543.465	1	-1
543.635	1	4
543.805	1	14
543.975	1	-5
544.145	1	6
544.315	1	-1
544.485	1	3
544.655	1	8
544.825	1	-17
544.995	1	3
545.165	1	-4
545.335	1	4
545.505	1	-2
545.675	1	2
545.845	1	4
546.015	1	8
546.185	1	3
546.355	1	6
546.525	1	12
546.695	1	-5
546.865	1	-3
547.035	1	6
547.205	1	-13
547.375	1	10
547.545	1	9
547.715	1	-8
547.885	1	9
548.055	1	2
548.225	1	6
548.395	1	3
548.565	1	-1
548.735	1	4
548.905	1	6
549.075	1	9
549.245	1	-3
549.415	1	-6
549.585	1	7
549.755	1	1
549.925	1	-10
550.095	1	4
550.265	1	-4
550.435	1	6
550.605	1	-4
550.775	1	-2
550.945	1	3
551.115	1	5
551.285	1	6
551.455	1	-8
551.625	1	9
551.795	1	0
551.965	1	-1
552.135	1	-4
552.305	1	-11
552.475	1	-4
552.645	1	-9
552.815	1	5
552.985	1	10
553.155	1	9
553.325	1	4
553.495	1	1
553.665	1	1
553.835	1	0
554.004	1	3
554.174	1	1
554.344	1	0
554.514	1	1
554.684	1	1
554.854	1	12
555.024	1	-5
555.194	1	2
555.364	1	8
555.534	1	8
555.704	1	-5
555.874	1	3
556.044	1	-1
556.214	1	-4
556.384	1	-4
556.554	1	14
556.724	1	1
556.894	1	2
557.064	1	14
557.234	1	0
557.404	1	6
557.573	1	4
557.743	1	-3
557.913	1	-2
558.083	1	-6
558.253	1	6
558.423	1	-8
558.593	1	13
558.763	1	-2
558.933	1	3
559.103	1	8
559.273	1	-1
559.443	1	1
559.613	1	1
559.783	1	9
559.953	1	3
560.122	1	10
560.292	1	-6
560.462	1	5
560.632	1	5
560.802	1	3
560.972	1	12
561.142	1	9
561.312	1	-10
561.482	1	-1
561.652	1	3
561.822	1	-2
561.992	1	-6
562.162	1	-5
562.331	1	7
562.501	1	-8
562.671	1	2
562.841	1	-9
563.011	1	9
563.181	1	1
563.351	1	-5
563.521	1	-1
563.691	1	3
563.861	1	5
564.031	1	6
564.201	1	14
564.370	1	0
564.540	1	2
564.710	1	-19
564.880	1	4
565.050	1	2
565.220	1	-5
565.390	1	6
565.560	1	-2
565.730	1	-3
565.900	1	-1
566.069	1	8
566.239	1	-4
566.409	1	6
566.579	1	11
566.749	1	5
566.919	1	12
567.089	1	-1
567.259	1	6
567.429	1	-2
567.599	1	2
567.768	1	8
567.938	1	6
568.108	1	0
568.278	1	-1
568.448	1	-4
568.618	1	3
568.788	1	-3
568.958	1	4
569.128	1	6
569.297	1	-12
569.467	1	0
569.637	1	4
569.807	1	1
569.977	1	6
570.147	1	2
570.317	1	-3
570.487	1	-1
570.656	1	6
570.826	1	-3
570.996	1	-4
571.166	1	5
571.336	1	-11
571.506	1	-2
571.676	1	4
571.846	1	7
572.015	1	0
572.185	1	-3
572.355	1	0
572.525	1	10
572.695	1	2
572.865	1	3
573.035	1	5
573.205	1	8
573.374	1	-14
573.544	1	2
573.714	1	6
573.884	1	4
574.054	1	1
574.224	1	-3
574.394	1	-2
574.563	1	6
574.733	1	2
574.903	1	-6
575.073	1	-1
575.243	1	6
575.413	1	3
575.583	1	-9
575.752	1	3
575.922	1	11
576.092	1	-5
576.262	1	4
576.432	1	4
576.602	1	-7
576.772	1	8
576.941	1	-6
577.111	1	-1
577.281	1	-4
577.451	1	-7
577.621	1	4
577.791	1	4
577.960	1	-2
578.130	1	10
578.300	1	1
578.470	1	17
578.640	1	-3
578.810	1	11
578.979	1	1
579.149	1	-4
579.319	1	-3
579.489	1	10
579.659	1	5
579.829	1	9
579.998	1	7
580.168	1	11
580.338	1	-4
580.508	1	-1
580.678	1	3
580.848	1	-7
581.017	1	4
581.187	1	-5
581.357	1	-10
581.527	1	4
581.697	1	9
581.867	1	14
582.036	1	2
582.206	1	4
582.376	1	6
582.546	1	-4
582.716	1	2
582.885	1	-7
583.055	1	-7
583.225	1	-7
583.395	1	8
583.565	1	-5
583.735	1	4
583.904	1	0
584.074	1	8
584.244	1	8
584.414	1	1
584.584	1	-1
584.753	1	-1
584.923	1	1
585.093	1	-4
585.263	1	-3
585.433	1	6
585.602	1	0
585.772	1	-11
585.942	1	-1
586.112	1	10
586.282	1	2
586.451	1	-6
586.621	1	-4
586.791	1	0
586.961	1	8
587.131	1	4
587.300	1	-2
587.470	1	6
587.640	1	9
587.810	1	-4
587.980	1	0
588.149	1	-3
588.319	1	-7
588.489	1	-4
588.659	1	2
588.829	1	1
588.998	1	9
589.168	1	8
589.338	1	0
589.508	1	-3
589.677	1	-4
589.847	1	-5
590.017	1	15
590.187	1	-4
590.357	1	5
590.526	1	13
590.696	1	4
590.866	1	-3
591.036	1	4
591.205	1	9
591.375	1	1
591.545	1	0
591.715	1	7
591.885	1	1
592.054	1	2
592.224	1	4
592.394	1	-6
592.564	1	-9
592.733	1	7
592.903	1	2
593.073	1	-2
593.243	1	8
593.412	1	12
593.582	1	2
593.752	1	-12
593.922	1	-5
594.091	1	-5
594.261	1	-4
594.431	1	4
594.601	1	8
594.771	1	10
594.940	1	2
595.110	1	-3
595.280	1	10
595.450	1	-6
595.619	1	8
595.789	1	12
595.959	1	10
596.129	1	1
596.298	1	-11
596.468	1	6
596.638	1	5
596.808	1	2
596.977	1	1
597.147	1	4
597.317	1	-9
597.487	1	9
597.656	1	8
597.826	1	-4
597.996	1	5
598.166	1	2
598.335	1	-14
598.505	1	10
598.675	1	-7
598.844	1	-4
599.014	1	-1
599.184	1	2
599.354	1	-7
599.523	1	5
599.693	1	0
599.863	1	6
600.033	1	-6
600.202	1	1
600.372	1	6
600.542	1	8
600.712	1	2
600.881	1	0
601.051	1	8
601.221	1	8
601.390	1	-10
601.560	1	10
601.730	1	3
601.900	1	-3
602.069	1	10
602.239	1	-1
602.409	1	-16
602.578	1	0
602.748	1	0
602.918	1	11
603.088	1	-4
603.257	1	4
603.427	1	-7
603.597	1	-6
603.767	1	7
603.936	1	8
604.106	1	-7
604.276	1	-2
604.445	1	2
604.615	1	-3
604.785	1	3
604.954	1	-8
605.124	1	6
605.294	1	4
605.464	1	-8
605.633	1	6
605.803	1	3
605.973	1	-3
606.142	1	3
606.312	1	9
606.482	1	6
606.652	1	12
606.821	1	-3
606.991	1	2
607.161	1	-2
607.330	1	10
607.500	1	1
607.670	1	-9
607.839	1	14
608.009	1	5
608.179	1	-6
608.348	1	1
608.518	1	9
608.688	1	9
608.858	1	1
609.027	1	-11
609.197	1	2
609.367	1	11
609.536	1	0
609.706	1	0
609.876	1	-3
610.045	1	-3
610.215	1	13
610.385	1	0
610.554	1	3
610.724	1	10
610.894	1	0
611.063	1	9
611.233	1	-5
611.403	1	0
611.572	1	-3
611.742	1	-1
611.912	1	4
612.081	1	3
612.251	1	-1
612.421	1	1
612.590	1	1
612.760	1	11
612.930	1	2
613.099	1	5
613.269	1	3
613.439	1	-1
613.608	1	-5
613.778	1	-3
613.948	1	-4
614.117	1	3
614.287	1	12
614.457	1	5
614.626	1	6
614.796	1	9
614.966	1	6
615.135	1	-11
615.305	1	3
615.475	1	-3
615.644	1	0
615.814	1	0
615.984	1	-1
616.153	1	2
616.323	1	3
616.493	1	-4
616.662	1	12
616.832	1	3
617.002	1	-5
617.171	1	-2
617.341	1	-1
617.511	1	-9
617.680	1	-5
617.850	1	-2
618.019	1	10
618.189	1	9
618.359	1	7
618.528	1	2
618.698	1	2
618.868	1	-9
619.037	1	4
619.207	1	-2
619.377	1	-10
619.546	1	-6
619.716	1	-10
619.885	1	1
620.055	1	-5
620.225	1	10
620.394	1	-1
620.564	1	4
620.734	1	-6
620.903	1	-10
621.073	1	-1
621.242	1	9
621.412	1	-7
621.582	1	1
621.751	1	10
621.921	1	6
622.091	1	-3
622.260	1	0
622.430	1	5
622.599	1	-3
622.769	1	1
622.939	1	4
623.108	1	1
623.278	1	-9
623.448	1	5
623.617	1	0
623.787	1	6
623.956	1	1
624.126	1	5
624.296	1	-5
624.465	1	-4
624.635	1	10
624.804	1	2
624.974	1	-2
625.144	1	5
625.313	1	0
625.483	1	-11
625.652	1	0
625.822	1	-2
625.992	1	-3
626.161	1	7
626.331	1	0
626.501	1	2
626.670	1	4
626.840	1	-2
627.009	1	-2
627.179	1	15
627.348	1	5
627.518	1	7
627.688	1	5
627.857	1	11
628.027	1	-4
628.196	1	2
628.366	1	8
628.536	1	6
628.705	1	-1
628.875	1	-2
629.044	1	-7
629.214	1	8
629.384	1	13
629.553	1	4
629.723	1	9
629.892	1	-2
630.062	1	-2
630.232	1	-6
630.401	1	-2
630.571	1	-2
630.740	1	5
630.910	1	8
631.079	1	6
631.249	1	7
631.419	1	7
631.588	1	-4
631.758	1	12
631.927	1	-6
632.097	1	-2
632.266	1	-5
632.436	1	3
632.606	1	-2
632.775	1	8
632.945	1	-3
633.114	1	10
633.284	1	4
633.453	1	1
633.623	1	2
633.793	1	6
633.962	1	2
634.132	1	7
634.301	1	3
634.471	1	14
634.640	1	7
634.810	1	2
634.979	1	4
635.149	1	0
635.319	1	4
635.488	1	5
635.658	1	-7
635.827	1	-8
635.997	1	1
636.166	1	12
636.336	1	5
636.505	1	9
636.675	1	-8
636.845	1	0
637.014	1	7
637.184	1	9
637.353	1	2
637.523	1	3
637.692	1	-2
637.862	1	6
638.031	1	4
638.201	1	1
638.370	1	-5
638.540	1	9
638.710	1	-10
638.879	1	-7
639.049	1	5
639.218	1	4
639.388	1	0
639.557	1	-5
639.727	1	3
639.896	1	4
640.066	1	4
640.235	1	4
640.405	1	7
640.574	1	-5
640.744	1	-2
640.914	1	3
641.083	1	-5
641.253	1	0
641.422	1	3
641.592	1	3
641.761	1	4
641.931	1	-6
642.100	1	18
642.270	1	2
642.439	1	6
642.609	1	3
642.778	1	2
642.948	1	-2
643.117	1	13
643.287	1	2
643.456	1	-1
643.626	1	11
643.795	1	3
643.965	1	5
644.134	1	2
644.304	1	3
644.473	1	3
644.643	1	8
644.812	1	4
644.982	1	11
645.151	1	-2
645.321	1	-2
645.490	1	4
645.660	1	-10
645.829	1	0
645.999	1	-5
646.168	1	9
646.338	1	6
646.507	1	-1
646.677	1	2
646.846	1	4
647.016	1	-5
647.185	1	5
647.355	1	-16
647.524	1	5
647.694	1	7
647.863	1	8
648.033	1	8
648.202	1	8
648.372	1	-1
648.541	1	2
648.711	1	2
648.880	1	3
649.050	1	0
649.219	1	9
649.389	1	8
649.558	1	-2
649.728	1	3
649.897	1	-5
650.067	1	16
650.236	1	4
650.406	1	5
650.575	1	4
650.745	1	11
650.914	1	6
651.084	1	-7
651.253	1	1
651.423	1	-3
651.592	1	-4
651.762	1	-10
651.931	1	13
652.101	1	10
652.270	1	1
652.440	1	2
652.609	1	-6
652.778	1	-6
652.948	1	2
653.117	1	5
653.287	1	5
653.456	1	0
653.626	1	8
653.795	1	0
653.965	1	2
654.134	1	3
654.304	1	-8
654.473	1	3
654.643	1	16
654.812	1	0
654.982	1	-1
655.151	1	-2
655.320	1	-3
655.490	1	-7
655.659	1	6
655.829	1	-1
655.998	1	-2
656.168	1	5
656.337	1	4
656.507	1	5
656.676	1	6
656.846	1	7
657.015	1	-3
657.184	1	9
657.354	1	9
657.523	1	-6
657.693	1	20
657.862	1	7
658.032	1	4
658.201	1	-1
658.371	1	13
658.540	1	3
658.709	1	-1
658.879	1	0
659.048	1	1
659.218	1	5
659.387	1	-1
659.557	1	0
659.726	1	14
659.895	1	-3
660.065	1	3
660.234	1	-1
660.404	1	10
660.573	1	5
660.743	1	1
660.912	1	2
661.081	1	12
661.251	1	-9
661.420	1	7
661.590	1	7
661.759	1	6
661.929	1	-1
662.098	1	4
662.267	1	2
662.437	1	9
662.606	1	2
662.776	1	6
662.945	1	10
663.115	1	-2
663.284	1	0
663.453	1	2
663.623	1	-4
663.792	1	6
663.962	1	-2
664.131	1	0
664.300	1	11
664.470	1	5
664.639	1	5
664.809	1	9
664.978	1	14
665.148	1	5
665.317	1	5
665.486	1	9
665.656	1	-1
665.825	1	8
665.995	1	-2
666.164	1	-1
666.333	1	4
666.503	1	5
666.672	1	-6
666.842	1	6
667.011	1	-4
667.180	1	5
667.350	1	-3
667.519	1	6
667.689	1	3
667.858	1	11
668.027	1	12
668.197	1	1
668.366	1	-8
668.536	1	6
668.705	1	5
668.874	1	10
669.044	1	1
669.213	1	12
669.382	1	-6
669.552	1	16
669.721	1	7
669.891	1	11
670.060	1	10
670.229	1	13
670.399	1	4
670.568	1	14
670.738	1	11
670.907	1	0
671.076	1	-7
671.246	1	-3
671.415	1	-1
671.584	1	9
671.754	1	-5
671.923	1	6
672.093	1	11
672.262	1	-10
672.431	1	2
672.601	1	-3
672.770	1	-12
672.939	1	8
673.109	1	-3
673.278	1	-5
673.448	1	12
673.617	1	6
673.786	1	3
