325.333	1	5
325.504	1	6
325.675	1	4
325.846	1	-1
326.017	1	-4
326.188	1	6
326.359	1	2
326.531	1	-6
326.702	1	-10
326.873	1	8
327.044	1	3
327.215	1	1
327.386	1	5
327.557	1	0
327.728	1	1
327.899	1	-2
328.070	1	11
328.241	1	7
328.412	1	-8
328.583	1	-8
328.754	1	-5
328.926	1	1
329.097	1	-10
329.268	1	10
329.439	1	-1
329.610	1	5
329.781	1	-3
329.952	1	2
330.123	1	8
330.294	1	-5
330.465	1	5
330.636	1	6
330.807	1	1
330.978	1	-1
331.149	1	3
331.320	1	-5
331.492	1	6
331.663	1	-6
331.834	1	6
332.005	1	5
332.176	1	5
332.347	1	-3
332.518	1	-8
332.689	1	10
332.860	1	-5
333.031	1	11
333.202	1	-1
333.373	1	9
333.544	1	-3
333.715	1	7
333.886	1	-13
334.057	1	-1
334.228	1	2
334.399	1	2
334.570	1	9
334.741	1	-3
334.912	1	10
335.084	1	19
335.255	1	-3
335.426	1	6
335.597	1	0
335.768	1	-4
335.939	1	4
336.110	1	-1
336.281	1	-7
336.452	1	1
336.623	1	-3
336.794	1	6
336.965	1	-2
337.136	1	6
337.307	1	1
337.478	1	6
337.649	1	7
337.820	1	5
337.991	1	-1
338.162	1	5
338.333	1	-1
338.504	1	3
338.675	1	4
338.846	1	7
339.017	1	-2
339.188	1	-2
339.359	1	-4
339.530	1	3
339.701	1	17
339.872	1	9
340.043	1	3
340.214	1	5
340.385	1	10
340.556	1	-7
340.727	1	2
340.898	1	5
341.069	1	1
341.240	1	-1
341.411	1	9
341.582	1	-5
341.753	1	-12
341.924	1	5
342.095	1	13
342.266	1	0
342.437	1	12
342.608	1	2
342.779	1	4
342.950	1	16
343.121	1	14
343.292	1	2
343.463	1	1
343.634	1	6
343.805	1	9
343.976	1	2
344.147	1	0
344.318	1	-2
344.489	1	2
344.660	1	15
344.831	1	5
345.002	1	-5
345.173	1	12
345.344	1	0
345.515	1	13
345.686	1	-3
345.857	1	3
346.028	1	0
346.199	1	-6
346.370	1	1
346.541	1	3
346.712	1	4
346.883	1	9
347.054	1	-2
347.225	1	11
347.396	1	14
347.567	1	0
347.738	1	-9
347.909	1	17
348.080	1	-1
348.251	1	14
348.422	1	8
348.593	1	8
348.764	1	4
348.935	1	8
349.106	1	8
349.277	1	-2
349.448	1	-1
349.619	1	-3
349.790	1	12
349.961	1	0
350.132	1	4
350.303	1	-4
350.474	1	12
350.645	1	9
350.816	1	2
350.987	1	10
351.157	1	-3
351.328	1	12
351.499	1	12
351.670	1	0
351.841	1	13
352.012	1	11
352.183	1	23
352.354	1	9
352.525	1	13
352.696	1	10
352.867	1	8
353.038	1	21
353.209	1	13
353.380	1	2
353.551	1	-1
353.722	1	8
353.893	1	0
354.064	1	16
354.235	1	5
354.406	1	-1
354.576	1	1
354.747	1	8
354.918	1	16
355.089	1	4
355.260	1	-1
355.431	1	14
355.602	1	8
355.773	1	5
355.944	1	13
356.115	1	8
356.286	1	10
356.457	1	2
356.628	1	5
356.799	1	10
356.970	1	14
357.141	1	1
357.311	1	1
357.482	1	5
357.653	1	3
357.824	1	21
357.995	1	10
358.166	1	-6
358.337	1	8
358.508	1	7
358.679	1	9
358.850	1	3
359.021	1	6
359.192	1	9
359.363	1	4
359.533	1	7
359.704	1	10
359.875	1	3
360.046	1	3
360.217	1	-9
360.388	1	6
360.559	1	-1
360.730	1	8
360.901	1	2
361.072	1	16
361.243	1	9
361.414	1	3
361.584	1	-1
361.755	1	7
361.926	1	3
362.097	1	11
362.268	1	13
362.439	1	7
362.610	1	15
362.781	1	1
362.952	1	-1
363.123	1	10
363.293	1	8
363.464	1	21
363.635	1	-1
363.806	1	3
363.977	1	8
364.148	1	7
364.319	1	12
364.490	1	3
364.661	1	2
364.832	1	10
365.002	1	10
365.173	1	14
365.344	1	7
365.515	1	-1
365.686	1	-4
365.857	1	9
366.028	1	10
366.199	1	12
366.370	1	9
366.540	1	1
366.711	1	-4
366.882	1	-3
367.053	1	5
367.224	1	15
367.395	1	7
367.566	1	16
367.737	1	24
367.908	1	-2
368.078	1	12
368.249	1	12
368.420	1	1
368.591	1	4
368.762	1	8
368.933	1	9
369.104	1	-1
369.274	1	5
369.445	1	9
369.616	1	7
369.787	1	12
369.958	1	11
370.129	1	-3
370.300	1	18
370.471	1	6
370.641	1	15
370.812	1	6
370.983	1	7
371.154	1	7
371.325	1	9
371.496	1	6
371.667	1	14
371.837	1	4
372.008	1	0
372.179	1	4
372.350	1	18
372.521	1	4
372.692	1	4
372.863	1	14
373.033	1	-8
373.204	1	-1
373.375	1	10
373.546	1	11
373.717	1	15
373.888	1	22
374.059	1	14
374.229	1	13
374.400	1	2
374.571	1	0
374.742	1	18
374.913	1	11
375.084	1	11
375.254	1	4
375.425	1	7
375.596	1	13
375.767	1	9
375.938	1	4
376.109	1	13
376.279	1	-2
376.450	1	13
376.621	1	10
376.792	1	4
376.963	1	3
377.134	1	22
377.304	1	6
377.475	1	5
377.646	1	14
377.817	1	-7
377.988	1	3
378.159	1	19
378.329	1	20
378.500	1	3
378.671	1	12
378.842	1	-5
379.013	1	-4
379.184	1	13
379.354	1	17
379.525	1	3
379.696	1	10
379.867	1	18
380.038	1	7
380.209	1	18
380.379	1	1
380.550	1	-1
380.721	1	13
380.892	1	8
381.063	1	6
381.233	1	13
381.404	1	7
381.575	1	21
381.746	1	12
381.917	1	6
382.087	1	14
382.258	1	9
382.429	1	10
382.600	1	25
382.771	1	7
382.941	1	9
383.112	1	3
383.283	1	12
383.454	1	10
383.625	1	5
383.795	1	10
383.966	1	8
384.137	1	10
384.308	1	9
384.479	1	14
384.649	1	13
384.820	1	10
384.991	1	2
385.162	1	6
385.333	1	6
385.503	1	3
385.674	1	0
385.845	1	21
386.016	1	9
386.187	1	4
386.357	1	13
386.528	1	19
386.699	1	1
386.870	1	11
387.041	1	15
387.211	1	3
387.382	1	25
387.553	1	12
387.724	1	7
387.894	1	6
388.065	1	8
388.236	1	19
388.407	1	12
388.578	1	8
388.748	1	8
388.919	1	17
389.090	1	11
389.261	1	4
389.431	1	16
389.602	1	14
389.773	1	17
389.944	1	7
390.114	1	8
390.285	1	16
390.456	1	17
390.627	1	12
390.798	1	13
390.968	1	5
391.139	1	12
391.310	1	1
391.481	1	18
391.651	1	9
391.822	1	5
391.993	1	12
392.164	1	10
392.334	1	11
392.505	1	7
392.676	1	24
392.847	1	15
393.017	1	17
393.188	1	20
393.359	1	11
393.530	1	9
393.700	1	14
393.871	1	1
394.042	1	3
394.213	1	10
394.383	1	3
394.554	1	5
394.725	1	18
394.896	1	11
395.066	1	19
395.237	1	8
395.408	1	15
395.579	1	18
395.749	1	11
395.920	1	7
396.091	1	15
396.262	1	18
396.432	1	12
396.603	1	16
396.774	1	20
396.945	1	16
397.115	1	20
397.286	1	12
397.457	1	16
397.627	1	13
397.798	1	9
397.969	1	12
398.140	1	-2
398.310	1	8
398.481	1	17
398.652	1	8
398.823	1	6
398.993	1	9
399.164	1	13
399.335	1	23
399.505	1	16
399.676	1	6
399.847	1	5
400.018	1	15
400.188	1	10
400.359	1	10
400.530	1	7
400.700	1	17
400.871	1	7
401.042	1	3
401.213	1	6
401.383	1	17
401.554	1	19
401.725	1	24
401.895	1	3
402.066	1	11
402.237	1	20
402.408	1	24
402.578	1	14
402.749	1	16
402.920	1	3
403.090	1	-3
403.261	1	18
403.432	1	14
403.603	1	14
403.773	1	16
403.944	1	17
404.115	1	21
404.285	1	21
404.456	1	2
404.627	1	13
404.797	1	6
404.968	1	10
405.139	1	4
405.310	1	14
405.480	1	24
405.651	1	-1
405.822	1	11
405.992	1	12
406.163	1	12
406.334	1	1
406.504	1	15
406.675	1	26
406.846	1	10
407.016	1	23
407.187	1	14
407.358	1	6
407.528	1	5
407.699	1	-3
407.870	1	5
408.041	1	6
408.211	1	13
408.382	1	0
408.553	1	1
408.723	1	17
408.894	1	11
409.065	1	11
409.235	1	10
409.406	1	11
409.577	1	5
409.747	1	23
409.918	1	10
410.089	1	4
410.259	1	15
410.430	1	10
410.601	1	15
410.771	1	12
410.942	1	17
411.113	1	15
411.283	1	4
411.454	1	12
411.625	1	13
411.795	1	20
411.966	1	12
412.137	1	10
412.307	1	8
412.478	1	17
412.649	1	15
412.819	1	20
412.990	1	8
413.161	1	11
413.331	1	10
413.502	1	19
413.672	1	13
413.843	1	4
414.014	1	15
414.184	1	24
414.355	1	20
414.526	1	12
414.696	1	24
414.867	1	7
415.038	1	7
415.208	1	10
415.379	1	15
415.550	1	20
415.720	1	16
415.891	1	15
416.062	1	11
416.232	1	19
416.403	1	23
416.573	1	20
416.744	1	12
416.915	1	10
417.085	1	9
417.256	1	4
417.427	1	5
417.597	1	8
417.768	1	5
417.939	1	19
418.109	1	11
418.280	1	19
418.450	1	10
418.621	1	-4
418.792	1	17
418.962	1	15
419.133	1	23
419.304	1	6
419.474	1	10
419.645	1	17
419.815	1	5
419.986	1	16
420.157	1	16
420.327	1	7
420.498	1	12
420.669	1	17
420.839	1	18
421.010	1	20
421.180	1	10
421.351	1	3
421.522	1	18
421.692	1	26
421.863	1	12
422.033	1	27
422.204	1	12
422.375	1	8
422.545	1	18
422.716	1	2
422.886	1	8
423.057	1	18
423.228	1	17
423.398	1	5
423.569	1	15
423.740	1	6
423.910	1	10
424.081	1	6
424.251	1	-1
424.422	1	14
424.593	1	8
424.763	1	10
424.934	1	15
425.104	1	9
425.275	1	13
425.445	1	12
425.616	1	12
425.787	1	7
425.957	1	17
426.128	1	18
426.298	1	18
426.469	1	15
426.640	1	12
426.810	1	19
426.981	1	13
427.151	1	5
427.322	1	25
427.493	1	16
427.663	1	13
427.834	1	0
428.004	1	10
428.175	1	22
428.345	1	7
428.516	1	9
428.687	1	15
428.857	1	3
429.028	1	12
429.198	1	16
429.369	1	20
429.540	1	12
429.710	1	8
429.881	1	12
430.051	1	15
430.222	1	10
430.392	1	15
430.563	1	30
430.734	1	21
430.904	1	20
431.075	1	6
431.245	1	-1
431.416	1	13
431.586	1	11
431.757	1	16
431.927	1	5
432.098	1	7
432.269	1	18
432.439	1	11
432.610	1	14
432.780	1	19
432.951	1	10
433.121	1	16
433.292	1	14
433.462	1	17
433.633	1	13
433.804	1	15
433.974	1	13
434.145	1	20
434.315	1	13
434.486	1	6
434.656	1	13
434.827	1	6
434.997	1	5
435.168	1	15
435.339	1	17
435.509	1	15
435.680	1	19
435.850	1	13
436.021	1	13
436.191	1	16
436.362	1	14
436.532	1	7
436.703	1	2
436.873	1	10
437.044	1	5
437.214	1	16
437.385	1	6
437.556	1	14
437.726	1	25
437.897	1	22
438.067	1	11
438.238	1	0
438.408	1	9
438.579	1	2
438.749	1	17
438.920	1	10
439.090	1	19
439.261	1	8
439.431	1	9
439.602	1	9
439.772	1	10
439.943	1	9
440.113	1	18
440.284	1	15
440.455	1	10
440.625	1	20
440.796	1	17
440.966	1	13
441.137	1	9
441.307	1	2
441.478	1	18
441.648	1	17
441.819	1	18
441.989	1	12
442.160	1	13
442.330	1	4
442.501	1	14
442.671	1	12
442.842	1	-3
443.012	1	3
443.183	1	18
443.353	1	-1
443.524	1	14
443.694	1	12
443.865	1	7
444.035	1	11
444.206	1	10
444.376	1	-2
444.547	1	23
444.717	1	3
444.888	1	10
445.058	1	18
445.229	1	6
445.399	1	11
445.570	1	17
445.740	1	9
445.911	1	1
446.081	1	5
446.252	1	8
446.422	1	9
446.593	1	2
446.763	1	17
446.934	1	3
447.104	1	17
447.275	1	13
447.445	1	9
447.616	1	18
447.786	1	7
447.957	1	19
448.127	1	8
448.298	1	10
448.468	1	14
448.639	1	7
448.809	1	15
448.979	1	12
449.150	1	15
449.320	1	4
449.491	1	14
449.661	1	-3
449.832	1	10
450.002	1	10
450.173	1	5
450.343	1	4
450.514	1	8
450.684	1	11
450.855	1	11
451.025	1	18
451.196	1	9
451.366	1	13
451.537	1	3
451.707	1	2
451.878	1	9
452.048	1	27
452.218	1	8
452.389	1	17
452.559	1	13
452.730	1	16
452.900	1	12
453.071	1	0
453.241	1	5
453.412	1	-2
453.582	1	6
453.753	1	17
453.923	1	12
454.093	1	6
454.264	1	24
454.434	1	1
454.605	1	5
454.775	1	8
454.946	1	5
455.116	1	16
455.287	1	-1
455.457	1	7
455.628	1	6
455.798	1	17
455.968	1	12
456.139	1	9
456.309	1	3
456.480	1	1
456.650	1	5
456.821	1	-5
456.991	1	18
457.161	1	8
457.332	1	19
457.502	1	-2
457.673	1	10
457.843	1	12
458.014	1	8
458.184	1	10
458.355	1	4
458.525	1	12
458.695	1	9
458.866	1	17
459.036	1	6
459.207	1	7
459.377	1	0
459.548	1	9
459.718	1	6
459.888	1	8
460.059	1	16
460.229	1	15
460.400	1	4
460.570	1	9
460.740	1	1
460.911	1	18
461.081	1	6
461.252	1	0
461.422	1	2
461.593	1	5
461.763	1	17
461.933	1	6
462.104	1	5
462.274	1	16
462.445	1	12
462.615	1	-5
462.785	1	9
462.956	1	9
463.126	1	10
463.297	1	4
463.467	1	12
463.638	1	7
463.808	1	8
463.978	1	5
464.149	1	2
464.319	1	4
464.490	1	22
464.660	1	5
464.830	1	3
465.001	1	9
465.171	1	14
465.342	1	23
465.512	1	2
465.682	1	-1
465.853	1	13
466.023	1	1
466.194	1	1
466.364	1	7
466.534	1	9
466.705	1	4
466.875	1	-2
467.045	1	-1
467.216	1	19
467.386	1	14
467.557	1	4
467.727	1	0
467.897	1	7
468.068	1	12
468.238	1	7
468.409	1	7
468.579	1	17
468.749	1	10
468.920	1	-7
469.090	1	14
469.260	1	3
469.431	1	7
469.601	1	17
469.772	1	9
469.942	1	1
470.112	1	9
470.283	1	7
470.453	1	11
470.623	1	2
470.794	1	-1
470.964	1	4
471.135	1	13
471.305	1	2
471.475	1	9
471.646	1	0
471.816	1	10
471.986	1	-6
472.157	1	13
472.327	1	-5
472.497	1	5
472.668	1	11
472.838	1	5
473.009	1	13
473.179	1	9
473.349	1	-4
473.520	1	16
473.690	1	12
473.860	1	6
474.031	1	0
474.201	1	2
474.371	1	15
474.542	1	7
474.712	1	3
474.882	1	10
475.053	1	20
475.223	1	-4
475.394	1	6
475.564	1	6
475.734	1	2
475.905	1	9
476.075	1	11
476.245	1	14
476.416	1	15
476.586	1	10
476.756	1	6
476.927	1	2
477.097	1	9
477.267	1	1
477.438	1	11
477.608	1	-3
477.778	1	1
477.949	1	9
478.119	1	14
478.289	1	14
478.460	1	17
478.630	1	7
478.800	1	9
478.971	1	4
479.141	1	4
479.311	1	0
479.482	1	6
479.652	1	-3
479.822	1	2
479.993	1	12
480.163	1	14
480.333	1	8
480.504	1	3
480.674	1	4
480.844	1	1
481.015	1	4
481.185	1	2
481.355	1	6
481.525	1	10
481.696	1	-4
481.866	1	13
482.036	1	1
482.207	1	8
482.377	1	-1
482.547	1	14
482.718	1	2
482.888	1	7
483.058	1	-1
483.229	1	-2
483.399	1	10
483.569	1	11
483.740	1	8
483.910	1	0
484.080	1	3
484.250	1	14
484.421	1	11
484.591	1	10
484.761	1	12
484.932	1	3
485.102	1	12
485.272	1	2
485.443	1	19
485.613	1	10
485.783	1	-2
485.953	1	10
486.124	1	12
486.294	1	2
486.464	1	8
486.635	1	10
486.805	1	11
486.975	1	2
487.146	1	7
487.316	1	8
487.486	1	12
487.656	1	0
487.827	1	5
487.997	1	-5
488.167	1	5
488.338	1	11
488.508	1	14
488.678	1	5
488.848	1	1
489.019	1	-8
489.189	1	2
489.359	1	0
489.529	1	9
489.700	1	10
489.870	1	14
490.040	1	3
490.211	1	-1
490.381	1	12
490.551	1	8
490.721	1	11
490.892	1	4
491.062	1	9
491.232	1	8
491.402	1	-2
491.573	1	-8
491.743	1	4
491.913	1	3
492.084	1	19
492.254	1	-3
492.424	1	5
492.594	1	0
492.765	1	13
492.935	1	7
493.105	1	11
493.275	1	4
493.446	1	11
493.616	1	13
493.786	1	4
493.956	1	9
494.127	1	6
494.297	1	0
494.467	1	11
494.637	1	4
494.808	1	-1
494.978	1	-2
495.148	1	-1
495.318	1	-5
495.489	1	12
495.659	1	13
495.829	1	1
495.999	1	-4
496.170	1	12
496.340	1	13
496.510	1	6
496.680	1	2
496.851	1	4
497.021	1	1
497.191	1	-6
497.361	1	8
497.532	1	4
497.702	1	5
497.872	1	-2
498.042	1	7
498.213	1	5
498.383	1	8
498.553	1	-4
498.723	1	-5
498.894	1	3
499.064	1	10
499.234	1	11
499.404	1	7
499.574	1	4
499.745	1	13
499.915	1	5
500.085	1	9
500.255	1	11
500.426	1	6
500.596	1	7
500.766	1	4
500.936	1	2
501.106	1	-5
501.277	1	14
501.447	1	3
501.617	1	-12
501.787	1	4
501.958	1	0
502.128	1	0
502.298	1	7
502.468	1	-1
502.638	1	4
502.809	1	8
502.979	1	0
503.149	1	-4
503.319	1	0
503.489	1	6
503.660	1	3
503.830	1	12
504.000	1	14
504.170	1	9
504.340	1	-3
504.511	1	8
504.681	1	1
504.851	1	1
505.021	1	8
505.192	1	-4
505.362	1	24
505.532	1	-1
505.702	1	5
505.872	1	9
506.043	1	8
506.213	1	2
506.383	1	2
506.553	1	6
506.723	1	11
506.893	1	6
507.064	1	7
507.234	1	2
507.404	1	-6
507.574	1	2
507.744	1	3
507.915	1	2
508.085	1	10
508.255	1	10
508.425	1	-4
508.595	1	10
508.766	1	7
508.936	1	-3
509.106	1	11
509.276	1	14
509.446	1	-8
509.616	1	-1
509.787	1	3
509.957	1	7
510.127	1	7
510.297	1	9
510.467	1	-6
510.638	1	4
510.808	1	-6
510.978	1	-7
511.148	1	6
511.318	1	4
511.488	1	-4
511.659	1	5
511.829	1	-2
511.999	1	2
512.169	1	-2
512.339	1	-1
512.509	1	3
512.680	1	-2
512.850	1	10
513.020	1	7
513.190	1	6
513.360	1	-1
513.530	1	9
513.700	1	7
513.871	1	-6
514.041	1	-1
514.211	1	8
514.381	1	1
514.551	1	-3
514.721	1	-4
514.892	1	7
515.062	1	8
515.232	1	9
515.402	1	0
515.572	1	-6
515.742	1	8
515.912	1	9
516.083	1	4
516.253	1	-3
516.423	1	2
516.593	1	0
516.763	1	12
516.933	1	4
517.104	1	8
517.274	1	-1
517.444	1	9
517.614	1	-7
517.784	1	8
517.954	1	6
518.124	1	5
518.294	1	-1
518.465	1	0
518.635	1	-2
518.805	1	-12
518.975	1	-1
519.145	1	-4
519.315	1	7
519.485	1	0
519.656	1	13
519.826	1	-4
519.996	1	-5
520.166	1	5
520.336	1	13
520.506	1	5
520.676	1	-10
520.846	1	9
521.017	1	-1
521.187	1	-1
521.357	1	18
521.527	1	4
521.697	1	3
521.867	1	0
522.037	1	8
522.207	1	10
522.377	1	4
522.548	1	4
522.718	1	7
522.888	1	14
523.058	1	1
523.228	1	11
523.398	1	6
523.568	1	10
523.738	1	2
523.909	1	10
524.079	1	5
524.249	1	-4
524.419	1	4
524.589	1	6
524.759	1	-1
524.929	1	4
525.099	1	3
525.269	1	5
525.439	1	-1
525.610	1	20
525.780	1	-5
525.950	1	4
526.120	1	5
526.290	1	1
526.460	1	5
526.630	1	15
526.800	1	7
526.970	1	-1
527.140	1	3
527.311	1	-8
527.481	1	-3
527.651	1	9
527.821	1	-6
527.991	1	16
528.161	1	11
528.331	1	2
528.501	1	7
528.671	1	-5
528.841	1	-4
529.011	1	-6
529.181	1	3
529.352	1	9
529.522	1	-5
529.692	1	5
529.862	1	-3
530.032	1	8
530.202	1	6
530.372	1	4
530.542	1	7
530.712	1	-2
530.882	1	6
531.052	1	6
531.222	1	-2
531.392	1	0
531.563	1	4
531.733	1	6
531.903	1	0
532.073	1	10
532.243	1	6
532.413	1	2
532.583	1	3
532.753	1	2
532.923	1	-8
533.093	1	4
533.263	1	-4
533.433	1	4
533.603	1	6
533.773	1	7
533.943	1	3
534.113	1	-1
534.284	1	-3
534.454	1	5
534.624	1	20
534.794	1	4
534.964	1	5
535.134	1	-4
535.304	1	-4
535.474	1	4
535.644	1	-9
535.814	1	-8
535.984	1	2
536.154	1	-7
536.324	1	-7
536.494	1	2
536.664	1	11
536.834	1	-4
537.004	1	4
537.174	1	7
537.344	1	7
537.514	1	-4
537.685	1	-1
537.855	1	10
538.025	1	5
538.195	1	6
538.365	1	4
538.535	1	-1
538.705	1	-1
538.875	1	6
539.045	1	2
539.215	1	5
539.385	1	2
539.555	1	11
539.725	1	-1
539.895	1	2
540.065	1	13
540.235	1	3
540.405	1	0
540.575	1	1
540.745	1	3
540.915	1	7
541.085	1	7
541.255	1	-2
541.425	1	1
541.595	1	-1
541.765	1	1
541.935	1	-7
542.105	1	4
542.275	1	8
542.445	1	-2
542.615	1	3
542.785	1	10
542.955	1	-6
543.125	1	-2
543.295	1	0
543.465	1	-1
543.635	1	8
543.805	1	11
543.975	1	6
544.145	1	8
544.315	1	5
544.485	1	5
544.655	1	4
544.825	1	-16
544.995	1	1
545.165	1	-4
545.335	1	-2
545.505	1	-6
545.675	1	3
545.845	1	11
546.015	1	10
546.185	1	11
546.355	1	8
546.525	1	4
546.695	1	2
546.865	1	2
547.035	1	-5
547.205	1	-15
547.375	1	6
547.545	1	12
547.715	1	-5
547.885	1	9
548.055	1	-2
548.225	1	10
548.395	1	-4
548.565	1	6
548.735	1	3
548.905	1	0
549.075	1	6
549.245	1	6
549.415	1	-6
549.585	1	1
549.755	1	5
549.925	1	-6
550.095	1	0
550.265	1	3
550.435	1	1
550.605	1	-4
550.775	1	-2
550.945	1	9
551.115	1	3
551.285	1	6
551.455	1	-6
551.625	1	7
551.795	1	4
551.965	1	-4
552.135	1	0
552.305	1	7
552.475	1	-6
552.645	1	1
552.815	1	1
552.985	1	13
553.155	1	6
553.325	1	10
553.495	1	6
553.665	1	3
553.835	1	-8
554.004	1	3
554.174	1	0
554.344	1	0
554.514	1	1
554.684	1	5
554.854	1	6
555.024	1	-4
555.194	1	-2
555.364	1	-1
555.534	1	3
555.704	1	-6
555.874	1	5
556.044	1	6
556.214	1	-4
556.384	1	-4
556.554	1	6
556.724	1	2
556.894	1	1
557.064	1	2
557.234	1	-8
557.404	1	7
557.573	1	5
557.743	1	2
557.913	1	-3
558.083	1	-1
558.253	1	6
558.423	1	3
558.593	1	9
558.763	1	2
558.933	1	-1
559.103	1	7
559.273	1	5
559.443	1	16
559.613	1	3
559.783	1	4
559.953	1	5
560.122	1	7
560.292	1	2
560.462	1	3
560.632	1	9
560.802	1	-5
560.972	1	14
561.142	1	10
561.312	1	-5
561.482	1	6
561.652	1	3
561.822	1	-1
561.992	1	0
562.162	1	-3
562.331	1	1
562.501	1	3
562.671	1	12
562.841	1	-9
563.011	1	7
563.181	1	-4
563.351	1	-7
563.521	1	5
563.691	1	-4
563.861	1	6
564.031	1	11
564.201	1	10
564.370	1	-6
564.540	1	1
564.710	1	-7
564.880	1	13
565.050	1	4
565.220	1	1
565.390	1	3
565.560	1	7
565.730	1	0
565.900	1	2
566.069	1	10
566.239	1	2
566.409	1	2
566.579	1	3
566.749	1	5
566.919	1	3
567.089	1	11
567.259	1	11
567.429	1	-4
567.599	1	3
567.768	1	5
567.938	1	-2
568.108	1	-1
568.278	1	-2
568.448	1	-16
568.618	1	-1
568.788	1	5
568.958	1	1
569.128	1	7
569.297	1	0
569.467	1	-2
569.637	1	14
569.807	1	-1
569.977	1	5
570.147	1	16
570.317	1	0
570.487	1	8
570.656	1	3
570.826	1	-10
570.996	1	-5
571.166	1	9
571.336	1	-3
571.506	1	4
571.676	1	5
571.846	1	-7
572.015	1	15
572.185	1	0
572.355	1	-3
572.525	1	10
572.695	1	2
572.865	1	-13
573.035	1	4
573.205	1	1
573.374	1	-8
573.544	1	3
573.714	1	12
573.884	1	4
574.054	1	4
574.224	1	-6
574.394	1	4
574.563	1	-8
574.733	1	0
574.903	1	-3
575.073	1	-4
575.243	1	-1
575.413	1	7
575.583	1	-5
575.752	1	5
575.922	1	-1
576.092	1	6
576.262	1	1
576.432	1	5
576.602	1	-7
576.772	1	13
576.941	1	-1
577.111	1	-8
577.281	1	-7
577.451	1	-8
577.621	1	8
577.791	1	3
577.960	1	-4
578.130	1	-1
578.300	1	11
578.470	1	10
578.640	1	-4
578.810	1	5
578.979	1	13
579.149	1	-3
579.319	1	-8
579.489	1	0
579.659	1	4
579.829	1	0
579.998	1	9
580.168	1	15
580.338	1	3
580.508	1	9
580.678	1	6
580.848	1	2
581.017	1	0
581.187	1	0
581.357	1	-11
581.527	1	4
581.697	1	12
581.867	1	1
582.036	1	-2
582.206	1	0
582.376	1	8
582.546	1	-13
582.716	1	-6
582.885	1	5
583.055	1	-3
583.225	1	1
583.395	1	11
583.565	1	-3
583.735	1	8
583.904	1	-1
584.074	1	4
584.244	1	13
584.414	1	-2
584.584	1	-2
584.753	1	-10
584.923	1	3
585.093	1	-2
585.263	1	3
585.433	1	4
585.602	1	-3
585.772	1	-4
585.942	1	-1
586.112	1	4
586.282	1	-5
586.451	1	1
586.621	1	-9
586.791	1	3
586.961	1	-2
587.131	1	4
587.300	1	-4
587.470	1	9
587.640	1	9
587.810	1	2
587.980	1	-3
588.149	1	-3
588.319	1	3
588.489	1	3
588.659	1	6
588.829	1	4
588.998	1	8
589.168	1	7
589.338	1	0
589.508	1	0
589.677	1	-3
589.847	1	-4
590.017	1	14
590.187	1	-5
590.357	1	3
590.526	1	15
590.696	1	-2
590.866	1	8
591.036	1	-2
591.205	1	7
591.375	1	-8
591.545	1	2
591.715	1	9
591.885	1	-10
592.054	1	0
592.224	1	-4
592.394	1	-5
592.564	1	9
592.733	1	5
592.903	1	2
593.073	1	8
593.243	1	5
593.412	1	6
593.582	1	-5
593.752	1	-1
593.922	1	-5
594.091	1	-3
594.261	1	3
594.431	1	-4
594.601	1	12
594.771	1	10
594.940	1	3
595.110	1	-4
595.280	1	0
595.450	1	-1
595.619	1	8
595.789	1	-3
595.959	1	12
596.129	1	0
596.298	1	0
596.468	1	5
596.638	1	4
596.808	1	6
596.977	1	6
597.147	1	6
597.317	1	-4
597.487	1	3
597.656	1	6
597.826	1	3
597.996	1	6
598.166	1	0
598.335	1	5
598.505	1	6
598.675	1	0
598.844	1	-2
599.014	1	7
599.184	1	0
599.354	1	-14
599.523	1	0
599.693	1	7
599.863	1	6
600.033	1	-6
600.202	1	1
600.372	1	10
600.542	1	11
600.712	1	-5
600.881	1	-5
601.051	1	11
601.221	1	6
601.390	1	-2
601.560	1	11
601.730	1	10
601.900	1	4
602.069	1	18
602.239	1	-8
602.409	1	-12
602.578	1	7
602.748	1	-9
602.918	1	12
603.088	1	0
603.257	1	-4
603.427	1	-7
603.597	1	1
603.767	1	4
603.936	1	5
604.106	1	13
604.276	1	5
604.445	1	7
604.615	1	-5
604.785	1	-3
604.954	1	1
605.124	1	-3
605.294	1	-3
605.464	1	-5
605.633	1	2
605.803	1	11
605.973	1	0
606.142	1	2
606.312	1	5
606.482	1	0
606.652	1	9
606.821	1	0
606.991	1	13
607.161	1	-2
607.330	1	-1
607.500	1	6
607.670	1	-5
607.839	1	4
608.009	1	12
608.179	1	-9
608.348	1	-6
608.518	1	0
608.688	1	14
608.858	1	-2
609.027	1	-6
609.197	1	4
609.367	1	6
609.536	1	0
609.706	1	-4
609.876	1	4
610.045	1	-5
610.215	1	16
610.385	1	9
610.554	1	-5
610.724	1	9
610.894	1	-3
611.063	1	-6
611.233	1	-4
611.403	1	8
611.572	1	-2
611.742	1	6
611.912	1	6
612.081	1	3
612.251	1	5
612.421	1	-4
612.590	1	-2
612.760	1	-1
612.930	1	13
613.099	1	11
613.269	1	13
613.439	1	-7
613.608	1	-6
613.778	1	10
613.948	1	-9
614.117	1	-3
614.287	1	7
614.457	1	2
614.626	1	5
614.796	1	10
614.966	1	0
615.135	1	2
615.305	1	12
615.475	1	-1
615.644	1	0
615.814	1	-1
615.984	1	-3
616.153	1	-7
616.323	1	5
616.493	1	2
616.662	1	-1
616.832	1	-7
617.002	1	-4
617.171	1	7
617.341	1	1
617.511	1	2
617.680	1	-4
617.850	1	15
618.019	1	23
618.189	1	10
618.359	1	-4
618.528	1	7
618.698	1	2
618.868	1	-8
619.037	1	7
619.207	1	-3
619.377	1	-4
619.546	1	-2
619.716	1	12
619.885	1	5
620.055	1	-10
620.225	1	-2
620.394	1	-4
620.564	1	18
620.734	1	-3
620.903	1	-6
621.073	1	1
621.242	1	9
621.412	1	5
621.582	1	0
621.751	1	8
621.921	1	1
622.091	1	-4
622.260	1	3
622.430	1	10
622.599	1	7
622.769	1	4
622.939	1	16
623.108	1	2
623.278	1	-2
623.448	1	3
623.617	1	-1
623.787	1	7
623.956	1	3
624.126	1	4
624.296	1	-4
624.465	1	5
624.635	1	-1
624.804	1	9
624.974	1	-1
625.144	1	9
625.313	1	-6
625.483	1	5
625.652	1	-4
625.822	1	-11
625.992	1	-9
626.161	1	18
626.331	1	-1
626.501	1	5
626.670	1	-4
626.840	1	4
627.009	1	-11
627.179	1	7
627.348	1	12
627.518	1	-7
627.688	1	8
627.857	1	16
628.027	1	-1
628.196	1	-5
628.366	1	12
628.536	1	7
628.705	1	-3
628.875	1	1
629.044	1	-4
629.214	1	10
629.384	1	-1
629.553	1	6
629.723	1	-1
629.892	1	3
630.062	1	-1
630.232	1	-2
630.401	1	6
630.571	1	-16
630.740	1	-3
630.910	1	0
631.079	1	7
631.249	1	1
631.419	1	6
631.588	1	-6
631.758	1	11
631.927	1	1
632.097	1	1
632.266	1	2
632.436	1	4
632.606	1	-7
632.775	1	6
632.945	1	7
633.114	1	11
633.284	1	5
633.453	1	-4
633.623	1	2
633.793	1	6
633.962	1	3
634.132	1	7
634.301	1	-1
634.471	1	10
634.640	1	10
634.810	1	6
634.979	1	3
635.149	1	10
635.319	1	3
635.488	1	-4
635.658	1	-1
635.827	1	-4
635.997	1	-2
636.166	1	4
636.336	1	5
636.505	1	11
636.675	1	5
636.845	1	-7
637.014	1	8
637.184	1	3
637.353	1	1
637.523	1	11
637.692	1	3
637.862	1	4
638.031	1	6
638.201	1	12
638.370	1	3
638.540	1	2
638.710	1	-3
638.879	1	-4
639.049	1	4
639.218	1	3
639.388	1	-4
639.557	1	-1
639.727	1	4
639.896	1	4
640.066	1	1
640.235	1	2
640.405	1	1
640.574	1	-4
640.744	1	-2
640.914	1	7
641.083	1	3
641.253	1	-5
641.422	1	0
641.592	1	10
641.761	1	9
641.931	1	5
642.100	1	14
642.270	1	1
642.439	1	5
642.609	1	5
642.778	1	3
642.948	1	-2
643.117	1	9
643.287	1	-3
643.456	1	-2
643.626	1	21
643.795	1	-3
643.965	1	9
644.134	1	1
644.304	1	1
644.473	1	5
644.643	1	8
644.812	1	1
644.982	1	9
645.151	1	2
645.321	1	-4
645.490	1	13
645.660	1	-8
645.829	1	-4
645.999	1	-7
646.168	1	8
646.338	1	6
646.507	1	-3
646.677	1	8
646.846	1	5
647.016	1	-5
647.185	1	8
647.355	1	-3
647.524	1	4
647.694	1	10
647.863	1	9
648.033	1	-4
648.202	1	5
648.372	1	-3
648.541	1	-9
648.711	1	-6
648.880	1	-2
649.050	1	-5
649.219	1	3
649.389	1	6
649.558	1	-2
649.728	1	6
649.897	1	-6
650.067	1	4
650.236	1	6
650.406	1	3
650.575	1	3
650.745	1	14
650.914	1	3
651.084	1	-10
651.253	1	8
651.423	1	-2
651.592	1	-13
651.762	1	-5
651.931	1	7
652.101	1	4
652.270	1	9
652.440	1	10
652.609	1	-8
652.778	1	-6
652.948	1	4
653.117	1	-1
653.287	1	0
653.456	1	8
653.626	1	10
653.795	1	6
653.965	1	7
654.134	1	5
654.304	1	-15
654.473	1	11
654.643	1	2
654.812	1	-7
654.982	1	5
655.151	1	2
655.320	1	2
655.490	1	-1
655.659	1	-1
655.829	1	1
655.998	1	-6
656.168	1	-10
656.337	1	2
656.507	1	3
656.676	1	6
656.846	1	11
657.015	1	2
657.184	1	9
657.354	1	7
657.523	1	-5
657.693	1	17
657.862	1	3
658.032	1	3
658.201	1	3
658.371	1	12
658.540	1	5
658.709	1	2
658.879	1	2
659.048	1	-7
659.218	1	1
659.387	1	8
659.557	1	9
659.726	1	9
659.895	1	-1
660.065	1	-9
660.234	1	6
660.404	1	14
660.573	1	-4
660.743	1	2
660.912	1	2
661.081	1	16
661.251	1	0
661.420	1	2
661.590	1	0
661.759	1	6
661.929	1	7
662.098	1	7
662.267	1	8
662.437	1	7
662.606	1	5
662.776	1	2
662.945	1	6
663.115	1	3
663.284	1	-6
663.453	1	0
663.623	1	3
663.792	1	10
663.962	1	-4
664.131	1	4
664.300	1	4
664.470	1	-9
664.639	1	0
664.809	1	2
664.978	1	11
665.148	1	8
665.317	1	4
665.486	1	5
665.656	1	-2
665.825	1	10
665.995	1	4
666.164	1	-1
666.333	1	1
666.503	1	5
666.672	1	3
666.842	1	-3
667.011	1	3
667.180	1	12
667.350	1	2
667.519	1	1
667.689	1	7
667.858	1	0
668.027	1	15
668.197	1	-4
668.366	1	1
668.536	1	14
668.705	1	9
668.874	1	5
669.044	1	-2
669.213	1	6
669.382	1	-13
669.552	1	11
669.721	1	3
669.891	1	13
670.060	1	10
670.229	1	21
670.399	1	0
670.568	1	12
670.738	1	8
670.907	1	-7
671.076	1	-7
671.246	1	-2
671.415	1	6
671.584	1	-2
671.754	1	-7
671.923	1	-2
672.093	1	13
672.262	1	-4
672.431	1	4
672.601	1	5
672.770	1	-8
672.939	1	3
673.109	1	2
673.278	1	3
673.448	1	8
673.617	1	2
673.786	1	9
