325.333	1	5
325.504	1	-11
325.675	1	-2
325.846	1	-8
326.017	1	-6
326.188	1	1
326.359	1	-1
326.531	1	-9
326.702	1	-9
326.873	1	9
327.044	1	2
327.215	1	-8
327.386	1	4
327.557	1	-4
327.728	1	2
327.899	1	-2
328.070	1	13
328.241	1	5
328.412	1	-1
328.583	1	-2
328.754	1	-2
328.926	1	2
329.097	1	-13
329.268	1	-1
329.439	1	-11
329.610	1	3
329.781	1	-11
329.952	1	1
330.123	1	-1
330.294	1	-6
330.465	1	-1
330.636	1	4
330.807	1	-7
330.978	1	-2
331.149	1	-8
331.320	1	-9
331.492	1	0
331.663	1	4
331.834	1	2
332.005	1	3
332.176	1	4
332.347	1	4
332.518	1	-3
332.689	1	4
332.860	1	0
333.031	1	16
333.202	1	2
333.373	1	-1
333.544	1	1
333.715	1	-2
333.886	1	-12
334.057	1	-4
334.228	1	-11
334.399	1	2
334.570	1	9
334.741	1	1
334.912	1	7
335.084	1	18
335.255	1	0
335.426	1	-6
335.597	1	-6
335.768	1	-11
335.939	1	6
336.110	1	-9
336.281	1	-6
336.452	1	-13
336.623	1	-6
336.794	1	3
336.965	1	-8
337.136	1	2
337.307	1	-10
337.478	1	-12
337.649	1	3
337.820	1	-2
337.991	1	-1
338.162	1	1
338.333	1	-4
338.504	1	-6
338.675	1	1
338.846	1	-3
339.017	1	4
339.188	1	-8
339.359	1	-12
339.530	1	-2
339.701	1	2
339.872	1	10
340.043	1	-5
340.214	1	-3
340.385	1	5
340.556	1	-13
340.727	1	2
340.898	1	8
341.069	1	3
341.240	1	-4
341.411	1	-6
341.582	1	-5
341.753	1	-5
341.924	1	-12
342.095	1	-3
342.266	1	8
342.437	1	6
342.608	1	-8
342.779	1	-2
342.950	1	6
343.121	1	-3
343.292	1	-12
343.463	1	2
343.634	1	-2
343.805	1	1
343.976	1	7
344.147	1	-6
344.318	1	-6
344.489	1	3
344.660	1	9
344.831	1	5
345.002	1	-2
345.173	1	5
345.344	1	-8
345.515	1	-2
345.686	1	-2
345.857	1	2
346.028	1	-8
346.199	1	-4
346.370	1	-4
346.541	1	1
346.712	1	-10
346.883	1	-2
347.054	1	6
347.225	1	-2
347.396	1	4
347.567	1	-6
347.738	1	-10
347.909	1	9
348.080	1	-8
348.251	1	5
348.422	1	3
348.593	1	-4
348.764	1	3
348.935	1	2
349.106	1	2
349.277	1	-6
349.448	1	4
349.619	1	4
349.790	1	0
349.961	1	0
350.132	1	6
350.303	1	0
350.474	1	2
350.645	1	0
350.816	1	-8
350.987	1	0
351.157	1	0
351.328	1	10
351.499	1	7
351.670	1	2
351.841	1	1
352.012	1	9
352.183	1	6
352.354	1	-3
352.525	1	4
352.696	1	5
352.867	1	-1
353.038	1	10
353.209	1	7
353.380	1	-6
353.551	1	-8
353.722	1	-6
353.893	1	-10
354.064	1	18
354.235	1	1
354.406	1	-8
354.576	1	1
354.747	1	-2
354.918	1	-2
355.089	1	1
355.260	1	-2
355.431	1	5
355.602	1	-11
355.773	1	1
355.944	1	9
356.115	1	2
356.286	1	-3
356.457	1	1
356.628	1	-3
356.799	1	-4
356.970	1	8
357.141	1	-9
357.311	1	-6
357.482	1	7
357.653	1	1
357.824	1	5
357.995	1	2
358.166	1	-1
358.337	1	-1
358.508	1	1
358.679	1	2
358.850	1	-3
359.021	1	-11
359.192	1	2
359.363	1	3
359.533	1	-4
359.704	1	5
359.875	1	2
360.046	1	-9
360.217	1	-10
360.388	1	-1
360.559	1	-8
360.730	1	-5
360.901	1	1
361.072	1	9
361.243	1	3
361.414	1	3
361.584	1	-3
361.755	1	2
361.926	1	-2
362.097	1	-5
362.268	1	2
362.439	1	-6
362.610	1	4
362.781	1	-4
362.952	1	-3
363.123	1	-2
363.293	1	-10
363.464	1	2
363.635	1	6
363.806	1	-5
363.977	1	-1
364.148	1	-1
364.319	1	3
364.490	1	6
364.661	1	2
364.832	1	7
365.002	1	5
365.173	1	5
365.344	1	11
365.515	1	-8
365.686	1	0
365.857	1	-2
366.028	1	11
366.199	1	1
366.370	1	0
366.540	1	-7
366.711	1	-11
366.882	1	0
367.053	1	-12
367.224	1	5
367.395	1	0
367.566	1	-3
367.737	1	3
367.908	1	0
368.078	1	6
368.249	1	10
368.420	1	-8
368.591	1	-11
368.762	1	-2
368.933	1	-2
369.104	1	-9
369.274	1	-10
369.445	1	0
369.616	1	-4
369.787	1	10
369.958	1	8
370.129	1	-8
370.300	1	-1
370.471	1	-1
370.641	1	-5
370.812	1	6
370.983	1	0
371.154	1	-11
371.325	1	2
371.496	1	4
371.667	1	7
371.837	1	-7
372.008	1	0
372.179	1	-10
372.350	1	7
372.521	1	-4
372.692	1	-5
372.863	1	3
373.033	1	-6
373.204	1	-4
373.375	1	7
373.546	1	12
373.717	1	2
373.888	1	10
374.059	1	9
374.229	1	2
374.400	1	-5
374.571	1	2
374.742	1	5
374.913	1	9
375.084	1	-9
375.254	1	6
375.425	1	7
375.596	1	6
375.767	1	2
375.938	1	-1
376.109	1	13
376.279	1	-3
376.450	1	2
376.621	1	6
376.792	1	-8
376.963	1	0
377.134	1	0
377.304	1	-1
377.475	1	-7
377.646	1	3
377.817	1	3
377.988	1	-10
378.159	1	2
378.329	1	8
378.500	1	-5
378.671	1	-1
378.842	1	-5
379.013	1	-11
379.184	1	-13
379.354	1	3
379.525	1	-2
379.696	1	8
379.867	1	-2
380.038	1	-5
380.209	1	-4
380.379	1	-3
380.550	1	-10
380.721	1	5
380.892	1	3
381.063	1	4
381.233	1	7
381.404	1	-4
381.575	1	13
381.746	1	3
381.917	1	-1
382.087	1	10
382.258	1	-4
382.429	1	1
382.600	1	5
382.771	1	-4
382.941	1	-5
383.112	1	-2
383.283	1	7
383.454	1	1
383.625	1	3
383.795	1	3
383.966	1	-6
384.137	1	1
384.308	1	1
384.479	1	-1
384.649	1	4
384.820	1	4
384.991	1	-13
385.162	1	8
385.333	1	0
385.503	1	0
385.674	1	-3
385.845	1	13
386.016	1	0
386.187	1	6
386.357	1	-1
386.528	1	8
386.699	1	-3
386.870	1	9
387.041	1	2
387.211	1	-3
387.382	1	13
387.553	1	9
387.724	1	-11
387.894	1	1
388.065	1	-3
388.236	1	9
388.407	1	-1
388.578	1	-10
388.748	1	-6
388.919	1	11
389.090	1	-7
389.261	1	4
389.431	1	8
389.602	1	5
389.773	1	-2
389.944	1	8
390.114	1	-6
390.285	1	-4
390.456	1	-6
390.627	1	-5
390.798	1	-13
390.968	1	-4
391.139	1	-1
391.310	1	4
391.481	1	8
391.651	1	-6
391.822	1	-6
391.993	1	-1
392.164	1	-11
392.334	1	0
392.505	1	-4
392.676	1	8
392.847	1	8
393.017	1	4
393.188	1	1
393.359	1	-8
393.530	1	-3
393.700	1	6
393.871	1	-2
394.042	1	-9
394.213	1	-1
394.383	1	0
394.554	1	-3
394.725	1	10
394.896	1	5
395.066	1	5
395.237	1	-12
395.408	1	0
395.579	1	0
395.749	1	-5
395.920	1	2
396.091	1	6
396.262	1	0
396.432	1	-5
396.603	1	13
396.774	1	11
396.945	1	-4
397.115	1	2
397.286	1	3
397.457	1	-2
397.627	1	3
397.798	1	-5
397.969	1	-4
398.140	1	-6
398.310	1	-10
398.481	1	6
398.652	1	2
398.823	1	-11
398.993	1	-1
399.164	1	-4
399.335	1	2
399.505	1	8
399.676	1	-3
399.847	1	1
400.018	1	-3
400.188	1	-1
400.359	1	4
400.530	1	-9
400.700	1	-8
400.871	1	3
401.042	1	-4
401.213	1	10
401.383	1	6
401.554	1	14
401.725	1	5
401.895	1	-1
402.066	1	-4
402.237	1	3
402.408	1	2
402.578	1	-1
402.749	1	2
402.920	1	4
403.090	1	2
403.261	1	6
403.432	1	1
403.603	1	12
403.773	1	5
403.944	1	8
404.115	1	5
404.285	1	1
404.456	1	-2
404.627	1	2
404.797	1	-9
404.968	1	-1
405.139	1	-3
405.310	1	12
405.480	1	2
405.651	1	2
405.822	1	-7
405.992	1	-12
406.163	1	-2
406.334	1	-9
406.504	1	0
406.675	1	12
406.846	1	6
407.016	1	3
407.187	1	5
407.358	1	-4
407.528	1	-8
407.699	1	-9
407.870	1	-2
408.041	1	-3
408.211	1	15
408.382	1	-5
408.553	1	-1
408.723	1	5
408.894	1	-8
409.065	1	-3
409.235	1	2
409.406	1	3
409.577	1	-11
409.747	1	9
409.918	1	-3
410.089	1	1
410.259	1	6
410.430	1	-2
410.601	1	7
410.771	1	-4
410.942	1	6
411.113	1	0
411.283	1	-8
411.454	1	0
411.625	1	2
411.795	1	4
411.966	1	0
412.137	1	-5
412.307	1	-13
412.478	1	-3
412.649	1	0
412.819	1	-5
412.990	1	3
413.161	1	4
413.331	1	-19
413.502	1	8
413.672	1	8
413.843	1	-5
414.014	1	7
414.184	1	5
414.355	1	-4
414.526	1	-5
414.696	1	10
414.867	1	-2
415.038	1	-20
415.208	1	-3
415.379	1	2
415.550	1	5
415.720	1	-9
415.891	1	0
416.062	1	-1
416.232	1	0
416.403	1	6
416.573	1	5
416.744	1	-4
416.915	1	3
417.085	1	0
417.256	1	-2
417.427	1	2
417.597	1	8
417.768	1	-6
417.939	1	-2
418.109	1	3
418.280	1	4
418.450	1	-4
418.621	1	-17
418.792	1	-3
418.962	1	8
419.133	1	13
419.304	1	-7
419.474	1	-10
419.645	1	-3
419.815	1	-3
419.986	1	11
420.157	1	6
420.327	1	6
420.498	1	6
420.669	1	-5
420.839	1	11
421.010	1	6
421.180	1	6
421.351	1	2
421.522	1	-1
421.692	1	4
421.863	1	-4
422.033	1	6
422.204	1	2
422.375	1	-5
422.545	1	6
422.716	1	2
422.886	1	0
423.057	1	1
423.228	1	-10
423.398	1	-6
423.569	1	3
423.740	1	-12
423.910	1	-8
424.081	1	-2
424.251	1	-1
424.422	1	2
424.593	1	-6
424.763	1	9
424.934	1	0
425.104	1	-2
425.275	1	0
425.445	1	-4
425.616	1	-5
425.787	1	-10
425.957	1	2
426.128	1	3
426.298	1	4
426.469	1	0
426.640	1	6
426.810	1	1
426.981	1	-1
427.151	1	-5
427.322	1	1
427.493	1	-6
427.663	1	0
427.834	1	-2
428.004	1	1
428.175	1	5
428.345	1	1
428.516	1	4
428.687	1	7
428.857	1	-12
429.028	1	-8
429.198	1	1
429.369	1	6
429.540	1	1
429.710	1	-12
429.881	1	8
430.051	1	10
430.222	1	-7
430.392	1	-4
430.563	1	16
430.734	1	15
430.904	1	0
431.075	1	2
431.245	1	-2
431.416	1	7
431.586	1	0
431.757	1	8
431.927	1	4
432.098	1	-1
432.269	1	-12
432.439	1	-6
432.610	1	-1
432.780	1	5
432.951	1	-1
433.121	1	4
433.292	1	14
433.462	1	0
433.633	1	0
433.804	1	-1
433.974	1	-4
434.145	1	11
434.315	1	-5
434.486	1	-13
434.656	1	16
434.827	1	1
434.997	1	-6
435.168	1	4
435.339	1	7
435.509	1	-5
435.680	1	-1
435.850	1	-7
436.021	1	-7
436.191	1	3
436.362	1	0
436.532	1	2
436.703	1	3
436.873	1	0
437.044	1	-12
437.214	1	-4
437.385	1	-5
437.556	1	-14
437.726	1	5
437.897	1	17
438.067	1	-7
438.238	1	-8
438.408	1	2
438.579	1	0
438.749	1	3
438.920	1	-11
439.090	1	2
439.261	1	-8
439.431	1	-4
439.602	1	-3
439.772	1	-5
439.943	1	9
440.113	1	4
440.284	1	-5
440.455	1	-5
440.625	1	3
440.796	1	-4
440.966	1	4
441.137	1	1
441.307	1	-7
441.478	1	19
441.648	1	4
441.819	1	-1
441.989	1	2
442.160	1	9
442.330	1	-5
442.501	1	1
442.671	1	-10
442.842	1	-10
443.012	1	-3
443.183	1	-3
443.353	1	-14
443.524	1	8
443.694	1	6
443.865	1	-3
444.035	1	-1
444.206	1	-1
444.376	1	2
444.547	1	18
444.717	1	2
444.888	1	10
445.058	1	5
445.229	1	6
445.399	1	-2
445.570	1	1
445.740	1	-3
445.911	1	-4
446.081	1	-11
446.252	1	7
446.422	1	2
446.593	1	1
446.763	1	-6
446.934	1	-7
447.104	1	-5
447.275	1	7
447.445	1	-7
447.616	1	6
447.786	1	1
447.957	1	4
448.127	1	-5
448.298	1	3
448.468	1	-3
448.639	1	-4
448.809	1	7
448.979	1	7
449.150	1	1
449.320	1	1
449.491	1	1
449.661	1	-7
449.832	1	-6
450.002	1	1
450.173	1	0
450.343	1	3
450.514	1	7
450.684	1	-1
450.855	1	1
451.025	1	8
451.196	1	4
451.366	1	-2
451.537	1	-6
451.707	1	-4
451.878	1	0
452.048	1	12
452.218	1	2
452.389	1	3
452.559	1	3
452.730	1	3
452.900	1	10
453.071	1	-11
453.241	1	-3
453.412	1	-3
453.582	1	-1
453.753	1	0
453.923	1	3
454.093	1	7
454.264	1	2
454.434	1	-12
454.605	1	-4
454.775	1	-3
454.946	1	-5
455.116	1	-2
455.287	1	-10
455.457	1	5
455.628	1	-9
455.798	1	5
455.968	1	0
456.139	1	-7
456.309	1	2
456.480	1	-7
456.650	1	-4
456.821	1	-5
456.991	1	11
457.161	1	-3
457.332	1	8
457.502	1	-13
457.673	1	2
457.843	1	2
458.014	1	3
458.184	1	-3
458.355	1	-9
458.525	1	3
458.695	1	1
458.866	1	0
459.036	1	12
459.207	1	-4
459.377	1	-3
459.548	1	4
459.718	1	-4
459.888	1	1
460.059	1	1
460.229	1	2
460.400	1	11
460.570	1	-3
460.740	1	0
460.911	1	-5
461.081	1	0
461.252	1	-3
461.422	1	0
461.593	1	0
461.763	1	3
461.933	1	0
462.104	1	-8
462.274	1	-6
462.445	1	1
462.615	1	-3
462.785	1	0
462.956	1	5
463.126	1	17
463.297	1	-5
463.467	1	3
463.638	1	5
463.808	1	-9
463.978	1	-6
464.149	1	-3
464.319	1	-4
464.490	1	11
464.660	1	-2
464.830	1	0
465.001	1	3
465.171	1	3
465.342	1	9
465.512	1	0
465.682	1	1
465.853	1	6
466.023	1	-1
466.194	1	-2
466.364	1	0
466.534	1	2
466.705	1	6
466.875	1	-7
467.045	1	7
467.216	1	13
467.386	1	-1
467.557	1	-2
467.727	1	-10
467.897	1	-2
468.068	1	-3
468.238	1	0
468.409	1	-5
468.579	1	0
468.749	1	5
468.920	1	-9
469.090	1	2
469.260	1	-11
469.431	1	7
469.601	1	11
469.772	1	3
469.942	1	-7
470.112	1	11
470.283	1	2
470.453	1	4
470.623	1	4
470.794	1	-15
470.964	1	7
471.135	1	-3
471.305	1	-3
471.475	1	3
471.646	1	-8
471.816	1	-1
471.986	1	1
472.157	1	7
472.327	1	-5
472.497	1	2
472.668	1	-6
472.838	1	-3
473.009	1	1
473.179	1	-1
473.349	1	-9
473.520	1	7
473.690	1	0
473.860	1	5
474.031	1	5
474.201	1	3
474.371	1	4
474.542	1	-1
474.712	1	-1
474.882	1	-4
475.053	1	9
475.223	1	-4
475.394	1	1
475.564	1	3
475.734	1	3
475.905	1	17
476.075	1	4
476.245	1	3
476.416	1	5
476.586	1	1
476.756	1	-1
476.927	1	16
477.097	1	5
477.267	1	6
477.438	1	3
477.608	1	-2
477.778	1	-2
477.949	1	7
478.119	1	8
478.289	1	-5
478.460	1	9
478.630	1	-2
478.800	1	-4
478.971	1	-3
479.141	1	-9
479.311	1	-11
479.482	1	-5
479.652	1	-9
479.822	1	6
479.993	1	-2
480.163	1	1
480.333	1	3
480.504	1	13
480.674	1	-2
480.844	1	-9
481.015	1	3
481.185	1	-3
481.355	1	2
481.525	1	-7
481.696	1	-3
481.866	1	10
482.036	1	-5
482.207	1	-4
482.377	1	-2
482.547	1	7
482.718	1	0
482.888	1	-2
483.058	1	-2
483.229	1	-4
483.399	1	-6
483.569	1	-4
483.740	1	2
483.910	1	-5
484.080	1	2
484.250	1	6
484.421	1	-2
484.591	1	5
484.761	1	9
484.932	1	4
485.102	1	10
485.272	1	3
485.443	1	-1
485.613	1	4
485.783	1	-2
485.953	1	-3
486.124	1	4
486.294	1	8
486.464	1	10
486.635	1	6
486.805	1	-2
486.975	1	-2
487.146	1	-2
487.316	1	-9
487.486	1	0
487.656	1	-6
487.827	1	7
487.997	1	0
488.167	1	-1
488.338	1	7
488.508	1	-11
488.678	1	-9
488.848	1	8
489.019	1	-9
489.189	1	1
489.359	1	-2
489.529	1	2
489.700	1	0
489.870	1	14
490.040	1	-2
490.211	1	-5
490.381	1	10
490.551	1	-3
490.721	1	10
490.892	1	-7
491.062	1	-3
491.232	1	7
491.402	1	-2
491.573	1	-8
491.743	1	0
491.913	1	8
492.084	1	7
492.254	1	-6
492.424	1	-1
492.594	1	1
492.765	1	3
492.935	1	0
493.105	1	1
493.275	1	-1
493.446	1	4
493.616	1	11
493.786	1	-2
493.956	1	-5
494.127	1	-3
494.297	1	3
494.467	1	-7
494.637	1	4
494.808	1	-1
494.978	1	-9
495.148	1	-9
495.318	1	-3
495.489	1	1
495.659	1	5
495.829	1	5
495.999	1	-3
496.170	1	1
496.340	1	9
496.510	1	7
496.680	1	-5
496.851	1	5
497.021	1	-5
497.191	1	-8
497.361	1	0
497.532	1	-10
497.702	1	4
497.872	1	-2
498.042	1	6
498.213	1	-4
498.383	1	-1
498.553	1	0
498.723	1	3
498.894	1	4
499.064	1	-11
499.234	1	-6
499.404	1	-8
499.574	1	7
499.745	1	5
499.915	1	4
500.085	1	2
500.255	1	17
500.426	1	-5
500.596	1	7
500.766	1	-1
500.936	1	-2
501.106	1	2
501.277	1	1
501.447	1	2
501.617	1	4
501.787	1	0
501.958	1	-8
502.128	1	-9
502.298	1	2
502.468	1	8
502.638	1	0
502.809	1	0
502.979	1	0
503.149	1	-9
503.319	1	-3
503.489	1	0
503.660	1	-6
503.830	1	-1
504.000	1	9
504.170	1	0
504.340	1	-3
504.511	1	8
504.681	1	6
504.851	1	2
505.021	1	-1
505.192	1	-9
505.362	1	11
505.532	1	-6
505.702	1	-14
505.872	1	-4
506.043	1	-6
506.213	1	-10
506.383	1	-5
506.553	1	2
506.723	1	-6
506.893	1	-1
507.064	1	3
507.234	1	-4
507.404	1	-1
507.574	1	-6
507.744	1	-1
507.915	1	2
508.085	1	-2
508.255	1	10
508.425	1	-7
508.595	1	5
508.766	1	4
508.936	1	-17
509.106	1	10
509.276	1	7
509.446	1	-5
509.616	1	0
509.787	1	-8
509.957	1	-6
510.127	1	-2
510.297	1	-2
510.467	1	-2
510.638	1	1
510.808	1	-14
510.978	1	-4
511.148	1	-3
511.318	1	-5
511.488	1	-8
511.659	1	-6
511.829	1	-6
511.999	1	3
512.169	1	-5
512.339	1	3
512.509	1	8
512.680	1	-6
512.850	1	-9
513.020	1	0
513.190	1	1
513.360	1	-10
513.530	1	-8
513.700	1	12
513.871	1	-5
514.041	1	5
514.211	1	12
514.381	1	6
514.551	1	-6
514.721	1	-2
514.892	1	6
515.062	1	-6
515.232	1	-4
515.402	1	-2
515.572	1	-3
515.742	1	11
515.912	1	0
516.083	1	1
516.253	1	3
516.423	1	-4
516.593	1	-6
516.763	1	7
516.933	1	-8
517.104	1	-3
517.274	1	1
517.444	1	-1
517.614	1	-8
517.784	1	2
517.954	1	1
518.124	1	0
518.294	1	-7
518.465	1	2
518.635	1	5
518.805	1	-18
518.975	1	5
519.145	1	-2
519.315	1	-4
519.485	1	-9
519.656	1	14
519.826	1	-3
519.996	1	-7
520.166	1	-1
520.336	1	3
520.506	1	-9
520.676	1	-6
520.846	1	3
521.017	1	-1
521.187	1	-8
521.357	1	2
521.527	1	3
521.697	1	-2
521.867	1	-8
522.037	1	7
522.207	1	3
522.377	1	2
522.548	1	4
522.718	1	0
522.888	1	8
523.058	1	-6
523.228	1	10
523.398	1	1
523.568	1	0
523.738	1	5
523.909	1	7
524.079	1	-4
524.249	1	0
524.419	1	1
524.589	1	2
524.759	1	-3
524.929	1	-5
525.099	1	1
525.269	1	2
525.439	1	-5
525.610	1	15
525.780	1	-2
525.950	1	5
526.120	1	4
526.290	1	0
526.460	1	-4
526.630	1	2
526.800	1	-4
526.970	1	1
527.140	1	-8
527.311	1	-1
527.481	1	-3
527.651	1	9
527.821	1	-13
527.991	1	12
528.161	1	17
528.331	1	-5
528.501	1	0
528.671	1	-4
528.841	1	2
529.011	1	-3
529.181	1	-1
529.352	1	2
529.522	1	-5
529.692	1	3
529.862	1	-4
530.032	1	5
530.202	1	-7
530.372	1	2
530.542	1	-3
530.712	1	-5
530.882	1	4
531.052	1	3
531.222	1	0
531.392	1	-2
531.563	1	7
531.733	1	-1
531.903	1	-8
532.073	1	7
532.243	1	2
532.413	1	-2
532.583	1	-4
532.753	1	0
532.923	1	-9
533.093	1	5
533.263	1	-3
533.433	1	0
533.603	1	1
533.773	1	-10
533.943	1	-5
534.113	1	2
534.284	1	-2
534.454	1	2
534.624	1	11
534.794	1	-2
534.964	1	-2
535.134	1	-1
535.304	1	-4
535.474	1	11
535.644	1	-4
535.814	1	-7
535.984	1	-10
536.154	1	-15
536.324	1	-6
536.494	1	1
536.664	1	11
536.834	1	0
537.004	1	-9
537.174	1	10
537.344	1	-7
537.514	1	-17
537.685	1	1
537.855	1	3
538.025	1	1
538.195	1	-3
538.365	1	9
538.535	1	3
538.705	1	-10
538.875	1	-1
539.045	1	-1
539.215	1	0
539.385	1	1
539.555	1	1
539.725	1	-8
539.895	1	-6
540.065	1	8
540.235	1	7
540.405	1	0
540.575	1	6
540.745	1	-4
540.915	1	-4
541.085	1	8
541.255	1	-14
541.425	1	-2
541.595	1	-6
541.765	1	7
541.935	1	-9
542.105	1	-7
542.275	1	4
542.445	1	-8
542.615	1	6
542.785	1	5
542.955	1	0
543.125	1	-5
543.295	1	-3
543.465	1	2
543.635	1	-6
543.805	1	17
543.975	1	-3
544.145	1	-4
544.315	1	-2
544.485	1	3
544.655	1	0
544.825	1	-11
544.995	1	5
545.165	1	-9
545.335	1	3
545.505	1	-4
545.675	1	10
545.845	1	3
546.015	1	6
546.185	1	8
546.355	1	2
546.525	1	-2
546.695	1	1
546.865	1	-1
547.035	1	1
547.205	1	-14
547.375	1	2
547.545	1	4
547.715	1	-4
547.885	1	5
548.055	1	0
548.225	1	1
548.395	1	-3
548.565	1	-5
548.735	1	3
548.905	1	-6
549.075	1	4
549.245	1	-1
549.415	1	-7
549.585	1	1
549.755	1	-1
549.925	1	-9
550.095	1	5
550.265	1	-14
550.435	1	-6
550.605	1	-9
550.775	1	5
550.945	1	-6
551.115	1	2
551.285	1	0
551.455	1	-5
551.625	1	8
551.795	1	13
551.965	1	-1
552.135	1	-1
552.305	1	-5
552.475	1	-4
552.645	1	0
552.815	1	5
552.985	1	5
553.155	1	13
553.325	1	4
553.495	1	0
553.665	1	-7
553.835	1	-5
554.004	1	1
554.174	1	-3
554.344	1	11
554.514	1	3
554.684	1	4
554.854	1	2
555.024	1	-9
555.194	1	-7
555.364	1	-1
555.534	1	0
555.704	1	-2
555.874	1	1
556.044	1	14
556.214	1	0
556.384	1	-6
556.554	1	8
556.724	1	10
556.894	1	-8
557.064	1	0
557.234	1	-8
557.404	1	2
557.573	1	3
557.743	1	-1
557.913	1	-10
558.083	1	-8
558.253	1	9
558.423	1	-1
558.593	1	12
558.763	1	-4
558.933	1	2
559.103	1	7
559.273	1	3
559.443	1	3
559.613	1	1
559.783	1	-1
559.953	1	5
560.122	1	3
560.292	1	-4
560.462	1	-6
560.632	1	2
560.802	1	4
560.972	1	7
561.142	1	-1
561.312	1	-5
561.482	1	6
561.652	1	2
561.822	1	-3
561.992	1	-4
562.162	1	8
562.331	1	-8
562.501	1	-1
562.671	1	7
562.841	1	-13
563.011	1	-1
563.181	1	4
563.351	1	-3
563.521	1	0
563.691	1	-8
563.861	1	-4
564.031	1	1
564.201	1	8
564.370	1	-3
564.540	1	5
564.710	1	1
564.880	1	-3
565.050	1	4
565.220	1	-7
565.390	1	1
565.560	1	8
565.730	1	-6
565.900	1	2
566.069	1	5
566.239	1	8
566.409	1	5
566.579	1	0
566.749	1	-5
566.919	1	8
567.089	1	-1
567.259	1	2
567.429	1	-2
567.599	1	-7
567.768	1	2
567.938	1	-4
568.108	1	4
568.278	1	-1
568.448	1	-8
568.618	1	-3
568.788	1	3
568.958	1	-4
569.128	1	7
569.297	1	-6
569.467	1	-13
569.637	1	0
569.807	1	-6
569.977	1	7
570.147	1	6
570.317	1	-3
570.487	1	8
570.656	1	8
570.826	1	-10
570.996	1	1
571.166	1	6
571.336	1	-4
571.506	1	-4
571.676	1	0
571.846	1	6
572.015	1	-2
572.185	1	6
572.355	1	1
572.525	1	-1
572.695	1	0
572.865	1	6
573.035	1	8
573.205	1	-3
573.374	1	-3
573.544	1	-3
573.714	1	2
573.884	1	4
574.054	1	6
574.224	1	1
574.394	1	1
574.563	1	-6
574.733	1	-1
574.903	1	-6
575.073	1	1
575.243	1	-2
575.413	1	4
575.583	1	1
575.752	1	3
575.922	1	-6
576.092	1	-3
576.262	1	5
576.432	1	-4
576.602	1	-1
576.772	1	12
576.941	1	3
577.111	1	-6
577.281	1	-3
577.451	1	-7
577.621	1	10
577.791	1	0
577.960	1	-3
578.130	1	0
578.300	1	-3
578.470	1	11
578.640	1	4
578.810	1	-2
578.979	1	11
579.149	1	3
579.319	1	1
579.489	1	-2
579.659	1	2
579.829	1	-3
579.998	1	9
580.168	1	4
580.338	1	4
580.508	1	-3
580.678	1	8
580.848	1	3
581.017	1	-6
581.187	1	2
581.357	1	-9
581.527	1	2
581.697	1	10
581.867	1	2
582.036	1	-1
582.206	1	-2
582.376	1	8
582.546	1	-2
582.716	1	-14
582.885	1	-7
583.055	1	-1
583.225	1	-12
583.395	1	7
583.565	1	-7
583.735	1	-7
583.904	1	6
584.074	1	7
584.244	1	2
584.414	1	-2
584.584	1	3
584.753	1	-4
584.923	1	0
585.093	1	3
585.263	1	3
585.433	1	10
585.602	1	-6
585.772	1	-12
585.942	1	-5
586.112	1	8
586.282	1	-11
586.451	1	-3
586.621	1	1
586.791	1	-1
586.961	1	-4
587.131	1	4
587.300	1	-1
587.470	1	12
587.640	1	6
587.810	1	-7
587.980	1	-5
588.149	1	-4
588.319	1	-13
588.489	1	-7
588.659	1	-5
588.829	1	1
588.998	1	9
589.168	1	6
589.338	1	-2
589.508	1	-2
589.677	1	-7
589.847	1	0
590.017	1	7
590.187	1	-2
590.357	1	3
590.526	1	7
590.696	1	0
590.866	1	6
591.036	1	-2
591.205	1	12
591.375	1	-8
591.545	1	-4
591.715	1	0
591.885	1	-9
592.054	1	7
592.224	1	-3
592.394	1	0
592.564	1	-10
592.733	1	6
592.903	1	12
593.073	1	0
593.243	1	11
593.412	1	3
593.582	1	3
593.752	1	0
593.922	1	8
594.091	1	-6
594.261	1	1
594.431	1	-6
594.601	1	11
594.771	1	3
594.940	1	-1
595.110	1	-6
595.280	1	-2
595.450	1	-2
595.619	1	-1
595.789	1	3
595.959	1	1
596.129	1	-2
596.298	1	-5
596.468	1	-1
596.638	1	4
596.808	1	-3
596.977	1	-8
597.147	1	-4
597.317	1	-2
597.487	1	1
597.656	1	-4
597.826	1	4
597.996	1	1
598.166	1	-4
598.335	1	-9
598.505	1	-6
598.675	1	0
598.844	1	1
599.014	1	0
599.184	1	-1
599.354	1	-9
599.523	1	6
599.693	1	-6
599.863	1	11
600.033	1	4
600.202	1	-1
600.372	1	8
600.542	1	11
600.712	1	-13
600.881	1	1
601.051	1	17
601.221	1	8
601.390	1	-8
601.560	1	8
601.730	1	9
601.900	1	2
602.069	1	-1
602.239	1	-1
602.409	1	-1
602.578	1	0
602.748	1	1
602.918	1	2
603.088	1	6
603.257	1	10
603.427	1	-10
603.597	1	4
603.767	1	4
603.936	1	3
604.106	1	-5
604.276	1	1
604.445	1	2
604.615	1	-1
604.785	1	-1
604.954	1	-4
605.124	1	12
605.294	1	3
605.464	1	4
605.633	1	3
605.803	1	-2
605.973	1	-3
606.142	1	-1
606.312	1	-4
606.482	1	-4
606.652	1	2
606.821	1	-3
606.991	1	-1
607.161	1	0
607.330	1	9
607.500	1	1
607.670	1	-16
607.839	1	1
608.009	1	6
608.179	1	4
608.348	1	2
608.518	1	-11
608.688	1	3
608.858	1	-4
609.027	1	-8
609.197	1	-2
609.367	1	9
609.536	1	9
609.706	1	-7
609.876	1	0
610.045	1	-2
610.215	1	-2
610.385	1	1
610.554	1	2
610.724	1	0
610.894	1	-7
611.063	1	1
611.233	1	-8
611.403	1	-5
611.572	1	6
611.742	1	-7
611.912	1	-10
612.081	1	-2
612.251	1	2
612.421	1	2
612.590	1	-2
612.760	1	2
612.930	1	-3
613.099	1	1
613.269	1	8
613.439	1	-5
613.608	1	-4
613.778	1	0
613.948	1	-7
614.117	1	-1
614.287	1	2
614.457	1	3
614.626	1	-2
614.796	1	6
614.966	1	-4
615.135	1	-7
615.305	1	4
615.475	1	3
615.644	1	-8
615.814	1	-2
615.984	1	1
616.153	1	-2
616.323	1	-7
616.493	1	-4
616.662	1	15
616.832	1	-5
617.002	1	-13
617.171	1	-3
617.341	1	-4
617.511	1	-6
617.680	1	-11
617.850	1	9
618.019	1	8
618.189	1	13
618.359	1	0
618.528	1	2
618.698	1	-9
618.868	1	-5
619.037	1	-4
619.207	1	-2
619.377	1	-11
619.546	1	-5
619.716	1	1
619.885	1	-1
620.055	1	-12
620.225	1	1
620.394	1	-9
620.564	1	1
620.734	1	2
620.903	1	-14
621.073	1	3
621.242	1	5
621.412	1	-2
621.582	1	-5
621.751	1	2
621.921	1	0
622.091	1	-10
622.260	1	-14
622.430	1	-3
622.599	1	-2
622.769	1	-4
622.939	1	5
623.108	1	7
623.278	1	-9
623.448	1	-3
623.617	1	1
623.787	1	4
623.956	1	-3
624.126	1	2
624.296	1	-7
624.465	1	4
624.635	1	4
624.804	1	2
624.974	1	6
625.144	1	2
625.313	1	-12
625.483	1	-10
625.652	1	-4
625.822	1	1
625.992	1	-9
626.161	1	7
626.331	1	2
626.501	1	-2
626.670	1	4
626.840	1	-8
627.009	1	-6
627.179	1	2
627.348	1	3
627.518	1	3
627.688	1	-5
627.857	1	0
628.027	1	-8
628.196	1	10
628.366	1	9
628.536	1	-9
628.705	1	2
628.875	1	2
629.044	1	-12
629.214	1	-1
629.384	1	2
629.553	1	10
629.723	1	2
629.892	1	2
630.062	1	7
630.232	1	-2
630.401	1	7
630.571	1	-6
630.740	1	-1
630.910	1	4
631.079	1	3
631.249	1	1
631.419	1	12
631.588	1	-11
631.758	1	6
631.927	1	-2
632.097	1	10
632.266	1	2
632.436	1	-2
632.606	1	3
632.775	1	17
632.945	1	-8
633.114	1	6
633.284	1	-4
633.453	1	3
633.623	1	-8
633.793	1	-4
633.962	1	1
634.132	1	3
634.301	1	-5
634.471	1	4
634.640	1	6
634.810	1	4
634.979	1	1
635.149	1	5
635.319	1	4
635.488	1	0
635.658	1	-1
635.827	1	-8
635.997	1	0
636.166	1	-2
636.336	1	-11
636.505	1	10
636.675	1	-3
636.845	1	0
637.014	1	-1
637.184	1	2
637.353	1	2
637.523	1	-4
637.692	1	1
637.862	1	7
638.031	1	3
638.201	1	6
638.370	1	-3
638.540	1	4
638.710	1	-1
638.879	1	-4
639.049	1	-3
639.218	1	-3
639.388	1	-11
639.557	1	-11
639.727	1	7
639.896	1	2
640.066	1	-4
640.235	1	0
640.405	1	4
640.574	1	7
640.744	1	-2
640.914	1	-3
641.083	1	-3
641.253	1	-8
641.422	1	-4
641.592	1	15
641.761	1	-5
641.931	1	-8
642.100	1	18
642.270	1	-6
642.439	1	7
642.609	1	1
642.778	1	8
642.948	1	-7
643.117	1	5
643.287	1	-4
643.456	1	-4
643.626	1	14
643.795	1	-1
643.965	1	7
644.134	1	-5
644.304	1	-1
644.473	1	-4
644.643	1	8
644.812	1	6
644.982	1	6
645.151	1	1
645.321	1	-7
645.490	1	8
645.660	1	-8
645.829	1	1
645.999	1	-4
646.168	1	1
646.338	1	4
646.507	1	-1
646.677	1	-2
646.846	1	3
647.016	1	-6
647.185	1	6
647.355	1	-7
647.524	1	4
647.694	1	10
647.863	1	6
648.033	1	-3
648.202	1	8
648.372	1	-9
648.541	1	-5
648.711	1	-3
648.880	1	-2
649.050	1	-6
649.219	1	2
649.389	1	2
649.558	1	-1
649.728	1	2
649.897	1	-10
650.067	1	4
650.236	1	11
650.406	1	5
650.575	1	11
650.745	1	4
650.914	1	1
651.084	1	-7
651.253	1	-4
651.423	1	1
651.592	1	-3
651.762	1	-11
651.931	1	11
652.101	1	-3
652.270	1	4
652.440	1	5
652.609	1	-9
652.778	1	2
652.948	1	5
653.117	1	0
653.287	1	-2
653.456	1	0
653.626	1	8
653.795	1	-2
653.965	1	-3
654.134	1	-2
654.304	1	-13
654.473	1	-2
654.643	1	-3
654.812	1	-3
654.982	1	-5
655.151	1	-8
655.320	1	5
655.490	1	-11
655.659	1	2
655.829	1	3
655.998	1	-14
656.168	1	4
656.337	1	2
656.507	1	0
656.676	1	-1
656.846	1	6
657.015	1	11
657.184	1	-6
657.354	1	2
657.523	1	-6
657.693	1	7
657.862	1	4
658.032	1	-4
658.201	1	4
658.371	1	8
658.540	1	-2
658.709	1	-4
658.879	1	-3
659.048	1	-5
659.218	1	-1
659.387	1	-5
659.557	1	0
659.726	1	0
659.895	1	-7
660.065	1	-1
660.234	1	-6
660.404	1	2
660.573	1	-3
660.743	1	-1
660.912	1	4
661.081	1	7
661.251	1	1
661.420	1	4
661.590	1	3
661.759	1	4
661.929	1	1
662.098	1	13
662.267	1	-4
662.437	1	2
662.606	1	-3
662.776	1	-3
662.945	1	6
663.115	1	3
663.284	1	-7
663.453	1	-2
663.623	1	3
663.792	1	5
663.962	1	-6
664.131	1	5
664.300	1	5
664.470	1	-5
664.639	1	11
664.809	1	1
664.978	1	11
665.148	1	-9
665.317	1	-1
665.486	1	3
665.656	1	-12
665.825	1	3
665.995	1	-8
666.164	1	2
666.333	1	-8
666.503	1	-1
666.672	1	-5
666.842	1	-2
667.011	1	-7
667.180	1	1
667.350	1	3
667.519	1	0
667.689	1	-7
667.858	1	4
668.027	1	1
668.197	1	-10
668.366	1	-3
668.536	1	5
668.705	1	-4
668.874	1	7
669.044	1	-7
669.213	1	7
669.382	1	-6
669.552	1	2
669.721	1	2
669.891	1	13
670.060	1	0
670.229	1	13
670.399	1	-10
670.568	1	2
670.738	1	4
670.907	1	-3
671.076	1	-5
671.246	1	-5
671.415	1	-1
671.584	1	-6
671.754	1	-2
671.923	1	4
672.093	1	2
672.262	1	-3
672.431	1	-8
672.601	1	1
672.770	1	-8
672.939	1	-3
673.109	1	-5
673.278	1	3
673.448	1	8
673.617	1	1
673.786	1	7
