325.333	1	8
325.504	1	-4
325.675	1	-4
325.846	1	1
326.017	1	-4
326.188	1	6
326.359	1	-2
326.531	1	-14
326.702	1	-7
326.873	1	0
327.044	1	0
327.215	1	1
327.386	1	2
327.557	1	-4
327.728	1	-2
327.899	1	6
328.070	1	4
328.241	1	-3
328.412	1	-3
328.583	1	1
328.754	1	5
328.926	1	9
329.097	1	-4
329.268	1	1
329.439	1	-2
329.610	1	1
329.781	1	-8
329.952	1	8
330.123	1	1
330.294	1	5
330.465	1	-4
330.636	1	10
330.807	1	-9
330.978	1	4
331.149	1	-1
331.320	1	-8
331.492	1	-5
331.663	1	-6
331.834	1	17
332.005	1	0
332.176	1	11
332.347	1	-4
332.518	1	-6
332.689	1	8
332.860	1	0
333.031	1	6
333.202	1	-5
333.373	1	6
333.544	1	6
333.715	1	6
333.886	1	-4
334.057	1	0
334.228	1	-9
334.399	1	7
334.570	1	7
334.741	1	0
334.912	1	1
335.084	1	14
335.255	1	-1
335.426	1	-7
335.597	1	-2
335.768	1	-5
335.939	1	3
336.110	1	3
336.281	1	-9
336.452	1	-16
336.623	1	-2
336.794	1	6
336.965	1	-3
337.136	1	8
337.307	1	3
337.478	1	-8
337.649	1	2
337.820	1	3
337.991	1	-4
338.162	1	-4
338.333	1	-3
338.504	1	5
338.675	1	2
338.846	1	2
339.017	1	2
339.188	1	-1
339.359	1	0
339.530	1	-6
339.701	1	3
339.872	1	4
340.043	1	-10
340.214	1	-2
340.385	1	7
340.556	1	-15
340.727	1	0
340.898	1	8
341.069	1	-10
341.240	1	-4
341.411	1	1
341.582	1	-5
341.753	1	-1
341.924	1	-10
342.095	1	-7
342.266	1	6
342.437	1	11
342.608	1	-1
342.779	1	5
342.950	1	2
343.121	1	6
343.292	1	-2
343.463	1	-5
343.634	1	1
343.805	1	-1
343.976	1	-5
344.147	1	-7
344.318	1	-2
344.489	1	-1
344.660	1	12
344.831	1	6
345.002	1	-8
345.173	1	2
345.344	1	0
345.515	1	-2
345.686	1	-10
345.857	1	-4
346.028	1	2
346.199	1	-2
346.370	1	-5
346.541	1	0
346.712	1	-9
346.883	1	1
347.054	1	-11
347.225	1	0
347.396	1	4
347.567	1	-1
347.738	1	-7
347.909	1	14
348.080	1	-8
348.251	1	10
348.422	1	-1
348.593	1	1
348.764	1	2
348.935	1	-2
349.106	1	-1
349.277	1	-2
349.448	1	-1
349.619	1	-6
349.790	1	-6
349.961	1	-3
350.132	1	-2
350.303	1	-6
350.474	1	9
350.645	1	5
350.816	1	-6
350.987	1	5
351.157	1	-8
351.328	1	1
351.499	1	10
351.670	1	-6
351.841	1	-2
352.012	1	3
352.183	1	11
352.354	1	5
352.525	1	1
352.696	1	1
352.867	1	-3
353.038	1	4
353.209	1	6
353.380	1	-6
353.551	1	1
353.722	1	0
353.893	1	2
354.064	1	8
354.235	1	-2
354.406	1	-6
354.576	1	-3
354.747	1	1
354.918	1	-1
355.089	1	3
355.260	1	3
355.431	1	8
355.602	1	1
355.773	1	-2
355.944	1	2
356.115	1	-3
356.286	1	2
356.457	1	3
356.628	1	-7
356.799	1	6
356.970	1	18
357.141	1	-8
357.311	1	-5
357.482	1	-5
357.653	1	-4
357.824	1	7
357.995	1	2
358.166	1	-7
358.337	1	0
358.508	1	-1
358.679	1	0
358.850	1	6
359.021	1	-6
359.192	1	0
359.363	1	-12
359.533	1	2
359.704	1	-8
359.875	1	3
360.046	1	-5
360.217	1	-8
360.388	1	9
360.559	1	-8
360.730	1	3
360.901	1	0
361.072	1	11
361.243	1	4
361.414	1	3
361.584	1	-8
361.755	1	-5
361.926	1	-8
362.097	1	-4
362.268	1	-2
362.439	1	-8
362.610	1	0
362.781	1	-8
362.952	1	-5
363.123	1	1
363.293	1	-11
363.464	1	-2
363.635	1	4
363.806	1	-2
363.977	1	0
364.148	1	-3
364.319	1	4
364.490	1	1
364.661	1	4
364.832	1	5
365.002	1	9
365.173	1	3
365.344	1	6
365.515	1	-2
365.686	1	0
365.857	1	6
366.028	1	5
366.199	1	2
366.370	1	2
366.540	1	1
366.711	1	-11
366.882	1	-8
367.053	1	-1
367.224	1	11
367.395	1	5
367.566	1	8
367.737	1	11
367.908	1	7
368.078	1	5
368.249	1	-3
368.420	1	-5
368.591	1	-4
368.762	1	4
368.933	1	-8
369.104	1	-9
369.274	1	-4
369.445	1	0
369.616	1	1
369.787	1	0
369.958	1	7
370.129	1	-9
370.300	1	9
370.471	1	-2
370.641	1	3
370.812	1	-1
370.983	1	4
371.154	1	-5
371.325	1	6
371.496	1	5
371.667	1	5
371.837	1	-7
372.008	1	3
372.179	1	-9
372.350	1	21
372.521	1	-2
372.692	1	-1
372.863	1	-1
373.033	1	-4
373.204	1	-6
373.375	1	8
373.546	1	9
373.717	1	13
373.888	1	6
374.059	1	6
374.229	1	13
374.400	1	-8
374.571	1	-1
374.742	1	4
374.913	1	-4
375.084	1	-11
375.254	1	9
375.425	1	8
375.596	1	10
375.767	1	-3
375.938	1	8
376.109	1	2
376.279	1	-3
376.450	1	3
376.621	1	-2
376.792	1	-14
376.963	1	2
377.134	1	0
377.304	1	11
377.475	1	-8
377.646	1	-7
377.817	1	0
377.988	1	-5
378.159	1	2
378.329	1	2
378.500	1	-9
378.671	1	3
378.842	1	-2
379.013	1	-12
379.184	1	-4
379.354	1	4
379.525	1	-7
379.696	1	13
379.867	1	14
380.038	1	-4
380.209	1	5
380.379	1	1
380.550	1	-7
380.721	1	8
380.892	1	-2
381.063	1	9
381.233	1	5
381.404	1	-4
381.575	1	9
381.746	1	3
381.917	1	-3
382.087	1	5
382.258	1	-2
382.429	1	2
382.600	1	11
382.771	1	-2
382.941	1	4
383.112	1	-10
383.283	1	-1
383.454	1	0
383.625	1	1
383.795	1	-6
383.966	1	6
384.137	1	8
384.308	1	-3
384.479	1	10
384.649	1	-1
384.820	1	-9
384.991	1	3
385.162	1	-4
385.333	1	-3
385.503	1	-11
385.674	1	-4
385.845	1	5
386.016	1	0
386.187	1	-9
386.357	1	4
386.528	1	6
386.699	1	-1
386.870	1	14
387.041	1	0
387.211	1	3
387.382	1	9
387.553	1	5
387.724	1	-6
387.894	1	1
388.065	1	1
388.236	1	5
388.407	1	-6
388.578	1	-1
388.748	1	-5
388.919	1	2
389.090	1	-10
389.261	1	4
389.431	1	1
389.602	1	-8
389.773	1	9
389.944	1	-7
390.114	1	-1
390.285	1	0
390.456	1	-6
390.627	1	10
390.798	1	2
390.968	1	-3
391.139	1	-3
391.310	1	-6
391.481	1	12
391.651	1	-5
391.822	1	-5
391.993	1	1
392.164	1	-9
392.334	1	4
392.505	1	-7
392.676	1	0
392.847	1	2
393.017	1	3
393.188	1	6
393.359	1	-5
393.530	1	-2
393.700	1	2
393.871	1	-6
394.042	1	-3
394.213	1	-11
394.383	1	5
394.554	1	2
394.725	1	5
394.896	1	-7
395.066	1	2
395.237	1	6
395.408	1	-7
395.579	1	0
395.749	1	-1
395.920	1	-4
396.091	1	1
396.262	1	3
396.432	1	-1
396.603	1	13
396.774	1	6
396.945	1	4
397.115	1	0
397.286	1	1
397.457	1	-3
397.627	1	5
397.798	1	-3
397.969	1	-1
398.140	1	-5
398.310	1	-5
398.481	1	-1
398.652	1	4
398.823	1	-8
398.993	1	2
399.164	1	-2
399.335	1	9
399.505	1	3
399.676	1	-5
399.847	1	1
400.018	1	8
400.188	1	-5
400.359	1	-7
400.530	1	-6
400.700	1	-5
400.871	1	-2
401.042	1	3
401.213	1	1
401.383	1	2
401.554	1	5
401.725	1	6
401.895	1	-6
402.066	1	0
402.237	1	0
402.408	1	10
402.578	1	0
402.749	1	3
402.920	1	3
403.090	1	0
403.261	1	1
403.432	1	10
403.603	1	3
403.773	1	13
403.944	1	0
404.115	1	8
404.285	1	3
404.456	1	-9
404.627	1	-3
404.797	1	-8
404.968	1	-3
405.139	1	-4
405.310	1	16
405.480	1	-4
405.651	1	4
405.822	1	4
405.992	1	-4
406.163	1	-4
406.334	1	-12
406.504	1	-4
406.675	1	14
406.846	1	-2
407.016	1	7
407.187	1	12
407.358	1	-6
407.528	1	-12
407.699	1	-8
407.870	1	-15
408.041	1	-7
408.211	1	10
408.382	1	-5
408.553	1	-6
408.723	1	1
408.894	1	-3
409.065	1	3
409.235	1	-3
409.406	1	1
409.577	1	-9
409.747	1	1
409.918	1	-2
410.089	1	-1
410.259	1	2
410.430	1	3
410.601	1	-3
410.771	1	-10
410.942	1	10
411.113	1	-3
411.283	1	-5
411.454	1	-3
411.625	1	-10
411.795	1	4
411.966	1	-5
412.137	1	6
412.307	1	-5
412.478	1	-2
412.649	1	7
412.819	1	-1
412.990	1	-1
413.161	1	1
413.331	1	-9
413.502	1	1
413.672	1	-3
413.843	1	1
414.014	1	-6
414.184	1	5
414.355	1	0
414.526	1	-2
414.696	1	11
414.867	1	2
415.038	1	-8
415.208	1	1
415.379	1	3
415.550	1	3
415.720	1	-5
415.891	1	3
416.062	1	5
416.232	1	1
416.403	1	3
416.573	1	0
416.744	1	-6
416.915	1	0
417.085	1	-3
417.256	1	5
417.427	1	-10
417.597	1	3
417.768	1	-12
417.939	1	5
418.109	1	5
418.280	1	7
418.450	1	-7
418.621	1	-12
418.792	1	0
418.962	1	-5
419.133	1	20
419.304	1	-1
419.474	1	-8
419.645	1	-3
419.815	1	-2
419.986	1	-2
420.157	1	-3
420.327	1	3
420.498	1	7
420.669	1	-3
420.839	1	10
421.010	1	5
421.180	1	7
421.351	1	-2
421.522	1	3
421.692	1	0
421.863	1	2
422.033	1	7
422.204	1	-5
422.375	1	-6
422.545	1	10
422.716	1	4
422.886	1	0
423.057	1	9
423.228	1	6
423.398	1	-6
423.569	1	3
423.740	1	-11
423.910	1	-14
424.081	1	-4
424.251	1	-6
424.422	1	-2
424.593	1	0
424.763	1	-6
424.934	1	7
425.104	1	6
425.275	1	-5
425.445	1	-2
425.616	1	-5
425.787	1	-13
425.957	1	1
426.128	1	4
426.298	1	3
426.469	1	1
426.640	1	7
426.810	1	8
426.981	1	1
427.151	1	-1
427.322	1	4
427.493	1	-1
427.663	1	1
427.834	1	-3
428.004	1	13
428.175	1	5
428.345	1	-4
428.516	1	-10
428.687	1	10
428.857	1	-9
429.028	1	-3
429.198	1	-14
429.369	1	6
429.540	1	1
429.710	1	-7
429.881	1	2
430.051	1	2
430.222	1	6
430.392	1	10
430.563	1	5
430.734	1	14
430.904	1	0
431.075	1	1
431.245	1	-4
431.416	1	1
431.586	1	-2
431.757	1	-5
431.927	1	1
432.098	1	4
432.269	1	-6
432.439	1	3
432.610	1	-5
432.780	1	6
432.951	1	4
433.121	1	-4
433.292	1	6
433.462	1	4
433.633	1	0
433.804	1	3
433.974	1	-1
434.145	1	11
434.315	1	-6
434.486	1	4
434.656	1	2
434.827	1	2
434.997	1	-11
435.168	1	4
435.339	1	-7
435.509	1	-7
435.680	1	0
435.850	1	-9
436.021	1	-6
436.191	1	2
436.362	1	4
436.532	1	-3
436.703	1	1
436.873	1	6
437.044	1	-16
437.214	1	-3
437.385	1	-6
437.556	1	-3
437.726	1	14
437.897	1	5
438.067	1	0
438.238	1	7
438.408	1	-1
438.579	1	-12
438.749	1	5
438.920	1	-17
439.090	1	1
439.261	1	-5
439.431	1	-4
439.602	1	2
439.772	1	-5
439.943	1	11
440.113	1	5
440.284	1	-3
440.455	1	3
440.625	1	-2
440.796	1	0
440.966	1	-13
441.137	1	-1
441.307	1	-3
441.478	1	5
441.648	1	11
441.819	1	4
441.989	1	8
442.160	1	6
442.330	1	7
442.501	1	-6
442.671	1	6
442.842	1	-14
443.012	1	-9
443.183	1	-2
443.353	1	-15
443.524	1	-4
443.694	1	10
443.865	1	-8
444.035	1	-1
444.206	1	2
444.376	1	-10
444.547	1	8
444.717	1	-4
444.888	1	-5
445.058	1	9
445.229	1	0
445.399	1	-5
445.570	1	10
445.740	1	3
445.911	1	-14
446.081	1	-3
446.252	1	13
446.422	1	-6
446.593	1	-12
446.763	1	-4
446.934	1	-4
447.104	1	-3
447.275	1	-10
447.445	1	5
447.616	1	8
447.786	1	7
447.957	1	2
448.127	1	-4
448.298	1	6
448.468	1	-2
448.639	1	-12
448.809	1	10
448.979	1	-8
449.150	1	4
449.320	1	2
449.491	1	5
449.661	1	-3
449.832	1	-9
450.002	1	9
450.173	1	2
450.343	1	2
450.514	1	-4
450.684	1	-3
450.855	1	-1
451.025	1	0
451.196	1	5
451.366	1	2
451.537	1	-10
451.707	1	-14
451.878	1	3
452.048	1	2
452.218	1	-2
452.389	1	12
452.559	1	0
452.730	1	0
452.900	1	-2
453.071	1	-15
453.241	1	-4
453.412	1	-5
453.582	1	-5
453.753	1	1
453.923	1	6
454.093	1	4
454.264	1	17
454.434	1	2
454.605	1	1
454.775	1	2
454.946	1	-3
455.116	1	3
455.287	1	-15
455.457	1	-4
455.628	1	2
455.798	1	0
455.968	1	6
456.139	1	-2
456.309	1	5
456.480	1	5
456.650	1	0
456.821	1	-5
456.991	1	3
457.161	1	-2
457.332	1	4
457.502	1	-10
457.673	1	1
457.843	1	5
458.014	1	3
458.184	1	1
458.355	1	1
458.525	1	4
458.695	1	6
458.866	1	-1
459.036	1	-3
459.207	1	1
459.377	1	-3
459.548	1	13
459.718	1	-5
459.888	1	-2
460.059	1	1
460.229	1	8
460.400	1	9
460.570	1	-4
460.740	1	-1
460.911	1	3
461.081	1	-2
461.252	1	-6
461.422	1	0
461.593	1	-11
461.763	1	2
461.933	1	2
462.104	1	-7
462.274	1	4
462.445	1	-5
462.615	1	0
462.785	1	-5
462.956	1	4
463.126	1	3
463.297	1	-2
463.467	1	-4
463.638	1	-4
463.808	1	-11
463.978	1	-4
464.149	1	3
464.319	1	-7
464.490	1	10
464.660	1	-6
464.830	1	-6
465.001	1	-2
465.171	1	-2
465.342	1	9
465.512	1	-12
465.682	1	-5
465.853	1	-1
466.023	1	2
466.194	1	-3
466.364	1	8
466.534	1	4
466.705	1	0
466.875	1	1
467.045	1	-2
467.216	1	12
467.386	1	-9
467.557	1	-8
467.727	1	-6
467.897	1	-4
468.068	1	-2
468.238	1	1
468.409	1	2
468.579	1	1
468.749	1	-3
468.920	1	-11
469.090	1	-4
469.260	1	-1
469.431	1	-5
469.601	1	0
469.772	1	1
469.942	1	-2
470.112	1	-1
470.283	1	-2
470.453	1	0
470.623	1	1
470.794	1	-7
470.964	1	6
471.135	1	8
471.305	1	-9
471.475	1	10
471.646	1	1
471.816	1	-1
471.986	1	5
472.157	1	14
472.327	1	-6
472.497	1	1
472.668	1	0
472.838	1	-2
473.009	1	3
473.179	1	-1
473.349	1	-4
473.520	1	13
473.690	1	2
473.860	1	-8
474.031	1	0
474.201	1	7
474.371	1	12
474.542	1	1
474.712	1	-5
474.882	1	0
475.053	1	10
475.223	1	-5
475.394	1	5
475.564	1	3
475.734	1	4
475.905	1	14
476.075	1	-6
476.245	1	7
476.416	1	14
476.586	1	4
476.756	1	0
476.927	1	1
477.097	1	-1
477.267	1	4
477.438	1	0
477.608	1	-8
477.778	1	2
477.949	1	-7
478.119	1	2
478.289	1	9
478.460	1	7
478.630	1	-4
478.800	1	0
478.971	1	5
479.141	1	5
479.311	1	-6
479.482	1	-3
479.652	1	-4
479.822	1	-3
479.993	1	8
480.163	1	8
480.333	1	-5
480.504	1	5
480.674	1	8
480.844	1	-9
481.015	1	-1
481.185	1	-7
481.355	1	9
481.525	1	-6
481.696	1	2
481.866	1	-2
482.036	1	2
482.207	1	2
482.377	1	-3
482.547	1	10
482.718	1	-11
482.888	1	5
483.058	1	-5
483.229	1	-7
483.399	1	-4
483.569	1	-8
483.740	1	11
483.910	1	-2
484.080	1	-9
484.250	1	12
484.421	1	-2
484.591	1	3
484.761	1	10
484.932	1	2
485.102	1	4
485.272	1	2
485.443	1	2
485.613	1	-1
485.783	1	8
485.953	1	1
486.124	1	0
486.294	1	-2
486.464	1	2
486.635	1	3
486.805	1	12
486.975	1	2
487.146	1	4
487.316	1	-7
487.486	1	-2
487.656	1	-9
487.827	1	0
487.997	1	-10
488.167	1	0
488.338	1	-1
488.508	1	1
488.678	1	-9
488.848	1	6
489.019	1	-6
489.189	1	0
489.359	1	-5
489.529	1	-4
489.700	1	4
489.870	1	17
490.040	1	-8
490.211	1	-6
490.381	1	6
490.551	1	-2
490.721	1	4
490.892	1	-2
491.062	1	3
491.232	1	-3
491.402	1	7
491.573	1	-14
491.743	1	-1
491.913	1	-10
492.084	1	0
492.254	1	-1
492.424	1	-2
492.594	1	-7
492.765	1	5
492.935	1	-1
493.105	1	6
493.275	1	5
493.446	1	7
493.616	1	9
493.786	1	1
493.956	1	2
494.127	1	-3
494.297	1	4
494.467	1	-4
494.637	1	4
494.808	1	-5
494.978	1	-2
495.148	1	-12
495.318	1	-5
495.489	1	-2
495.659	1	5
495.829	1	-8
495.999	1	-2
496.170	1	5
496.340	1	-6
496.510	1	-3
496.680	1	-12
496.851	1	0
497.021	1	2
497.191	1	-13
497.361	1	-9
497.532	1	-9
497.702	1	-5
497.872	1	-4
498.042	1	-4
498.213	1	1
498.383	1	-1
498.553	1	-6
498.723	1	-2
498.894	1	9
499.064	1	-1
499.234	1	1
499.404	1	-1
499.574	1	4
499.745	1	7
499.915	1	0
500.085	1	-3
500.255	1	4
500.426	1	3
500.596	1	-5
500.766	1	-9
500.936	1	-2
501.106	1	-8
501.277	1	-1
501.447	1	-10
501.617	1	-3
501.787	1	-2
501.958	1	-8
502.128	1	-8
502.298	1	5
502.468	1	-1
502.638	1	0
502.809	1	-2
502.979	1	-5
503.149	1	3
503.319	1	-11
503.489	1	1
503.660	1	5
503.830	1	-4
504.000	1	6
504.170	1	5
504.340	1	-14
504.511	1	7
504.681	1	-5
504.851	1	2
505.021	1	1
505.192	1	-11
505.362	1	11
505.532	1	5
505.702	1	1
505.872	1	3
506.043	1	5
506.213	1	-13
506.383	1	-8
506.553	1	-1
506.723	1	-4
506.893	1	1
507.064	1	9
507.234	1	-3
507.404	1	-6
507.574	1	-5
507.744	1	8
507.915	1	-4
508.085	1	3
508.255	1	5
508.425	1	-2
508.595	1	6
508.766	1	10
508.936	1	-6
509.106	1	4
509.276	1	-2
509.446	1	-7
509.616	1	1
509.787	1	-3
509.957	1	-1
510.127	1	6
510.297	1	1
510.467	1	-1
510.638	1	-1
510.808	1	-14
510.978	1	-9
511.148	1	-5
511.318	1	8
511.488	1	-16
511.659	1	1
511.829	1	-10
511.999	1	4
512.169	1	-10
512.339	1	-12
512.509	1	5
512.680	1	-3
512.850	1	-5
513.020	1	6
513.190	1	2
513.360	1	-9
513.530	1	1
513.700	1	6
513.871	1	-1
514.041	1	0
514.211	1	14
514.381	1	-2
514.551	1	6
514.721	1	-5
514.892	1	1
515.062	1	0
515.232	1	4
515.402	1	-4
515.572	1	-4
515.742	1	-2
515.912	1	2
516.083	1	-3
516.253	1	3
516.423	1	-7
516.593	1	-3
516.763	1	2
516.933	1	-4
517.104	1	-1
517.274	1	0
517.444	1	3
517.614	1	-7
517.784	1	-8
517.954	1	-5
518.124	1	0
518.294	1	-7
518.465	1	-7
518.635	1	1
518.805	1	-19
518.975	1	-3
519.145	1	-9
519.315	1	-1
519.485	1	-9
519.656	1	10
519.826	1	0
519.996	1	-6
520.166	1	1
520.336	1	7
520.506	1	-5
520.676	1	-7
520.846	1	8
521.017	1	-8
521.187	1	0
521.357	1	9
521.527	1	-9
521.697	1	-1
521.867	1	0
522.037	1	6
522.207	1	5
522.377	1	4
522.548	1	-1
522.718	1	-3
522.888	1	16
523.058	1	0
523.228	1	3
523.398	1	-8
523.568	1	7
523.738	1	2
523.909	1	-2
524.079	1	4
524.249	1	-1
524.419	1	-1
524.589	1	-1
524.759	1	-1
524.929	1	-2
525.099	1	10
525.269	1	9
525.439	1	0
525.610	1	20
525.780	1	-5
525.950	1	-4
526.120	1	-5
526.290	1	-4
526.460	1	-4
526.630	1	4
526.800	1	-1
526.970	1	-2
527.140	1	3
527.311	1	-3
527.481	1	-3
527.651	1	8
527.821	1	-8
527.991	1	8
528.161	1	13
528.331	1	3
528.501	1	0
528.671	1	-8
528.841	1	1
529.011	1	-3
529.181	1	-5
529.352	1	-3
529.522	1	1
529.692	1	2
529.862	1	-3
530.032	1	8
530.202	1	-3
530.372	1	1
530.542	1	3
530.712	1	8
530.882	1	3
531.052	1	-4
531.222	1	-7
531.392	1	-9
531.563	1	4
531.733	1	-7
531.903	1	0
532.073	1	16
532.243	1	-4
532.413	1	-3
532.583	1	1
532.753	1	-1
532.923	1	-15
533.093	1	-2
533.263	1	-9
533.433	1	-4
533.603	1	2
533.773	1	-1
533.943	1	-6
534.113	1	4
534.284	1	-4
534.454	1	3
534.624	1	8
534.794	1	-3
534.964	1	7
535.134	1	-6
535.304	1	4
535.474	1	9
535.644	1	-13
535.814	1	-6
535.984	1	-5
536.154	1	-7
536.324	1	-3
536.494	1	0
536.664	1	6
536.834	1	3
537.004	1	-8
537.174	1	6
537.344	1	-2
537.514	1	-2
537.685	1	-4
537.855	1	0
538.025	1	0
538.195	1	2
538.365	1	7
538.535	1	-1
538.705	1	-7
538.875	1	5
539.045	1	-3
539.215	1	9
539.385	1	-1
539.555	1	-2
539.725	1	4
539.895	1	-12
540.065	1	4
540.235	1	6
540.405	1	-12
540.575	1	-4
540.745	1	-1
540.915	1	7
541.085	1	2
541.255	1	-8
541.425	1	-1
541.595	1	-4
541.765	1	-1
541.935	1	-7
542.105	1	-6
542.275	1	-1
542.445	1	-10
542.615	1	-1
542.785	1	5
542.955	1	-2
543.125	1	-1
543.295	1	-1
543.465	1	2
543.635	1	-1
543.805	1	11
543.975	1	0
544.145	1	1
544.315	1	1
544.485	1	2
544.655	1	3
544.825	1	-9
544.995	1	1
545.165	1	-1
545.335	1	-3
545.505	1	-4
545.675	1	5
545.845	1	5
546.015	1	10
546.185	1	14
546.355	1	1
546.525	1	8
546.695	1	3
546.865	1	-12
547.035	1	3
547.205	1	-4
547.375	1	7
547.545	1	10
547.715	1	-4
547.885	1	1
548.055	1	-2
548.225	1	3
548.395	1	-4
548.565	1	-5
548.735	1	5
548.905	1	-11
549.075	1	-5
549.245	1	-1
549.415	1	-2
549.585	1	-4
549.755	1	1
549.925	1	-11
550.095	1	-3
550.265	1	-3
550.435	1	-4
550.605	1	-9
550.775	1	-1
550.945	1	1
551.115	1	0
551.285	1	-1
551.455	1	-7
551.625	1	1
551.795	1	-5
551.965	1	-1
552.135	1	-5
552.305	1	-3
552.475	1	-9
552.645	1	-9
552.815	1	2
552.985	1	1
553.155	1	3
553.325	1	0
553.495	1	-4
553.665	1	1
553.835	1	-5
554.004	1	2
554.174	1	-2
554.344	1	1
554.514	1	-7
554.684	1	-5
554.854	1	9
555.024	1	-12
555.194	1	-8
555.364	1	-2
555.534	1	-3
555.704	1	2
555.874	1	1
556.044	1	-1
556.214	1	0
556.384	1	-11
556.554	1	8
556.724	1	4
556.894	1	-8
557.064	1	-1
557.234	1	2
557.404	1	6
557.573	1	9
557.743	1	-1
557.913	1	-2
558.083	1	-4
558.253	1	3
558.423	1	1
558.593	1	3
558.763	1	-2
558.933	1	-5
559.103	1	8
559.273	1	0
559.443	1	-1
559.613	1	-1
559.783	1	-3
559.953	1	0
560.122	1	-1
560.292	1	4
560.462	1	-2
560.632	1	0
560.802	1	-1
560.972	1	9
561.142	1	-8
561.312	1	-6
561.482	1	5
561.652	1	2
561.822	1	-4
561.992	1	-4
562.162	1	0
562.331	1	5
562.501	1	-3
562.671	1	7
562.841	1	-15
563.011	1	2
563.181	1	-8
563.351	1	-10
563.521	1	4
563.691	1	-6
563.861	1	-6
564.031	1	2
564.201	1	18
564.370	1	-7
564.540	1	0
564.710	1	-11
564.880	1	5
565.050	1	6
565.220	1	-1
565.390	1	7
565.560	1	1
565.730	1	0
565.900	1	0
566.069	1	4
566.239	1	4
566.409	1	2
566.579	1	2
566.749	1	-6
566.919	1	4
567.089	1	-4
567.259	1	3
567.429	1	6
567.599	1	-9
567.768	1	3
567.938	1	6
568.108	1	-5
568.278	1	1
568.448	1	-10
568.618	1	-4
568.788	1	7
568.958	1	-3
569.128	1	2
569.297	1	-9
569.467	1	1
569.637	1	1
569.807	1	3
569.977	1	14
570.147	1	13
570.317	1	-8
570.487	1	2
570.656	1	3
570.826	1	-3
570.996	1	-3
571.166	1	10
571.336	1	1
571.506	1	5
571.676	1	9
571.846	1	10
572.015	1	-2
572.185	1	0
572.355	1	-5
572.525	1	-1
572.695	1	-2
572.865	1	-6
573.035	1	1
573.205	1	6
573.374	1	-1
573.544	1	2
573.714	1	8
573.884	1	1
574.054	1	-2
574.224	1	0
574.394	1	-9
574.563	1	-9
574.733	1	3
574.903	1	-6
575.073	1	-1
575.243	1	-3
575.413	1	-8
575.583	1	-4
575.752	1	6
575.922	1	-2
576.092	1	-3
576.262	1	2
576.432	1	1
576.602	1	2
576.772	1	10
576.941	1	0
577.111	1	-2
577.281	1	-5
577.451	1	-4
577.621	1	13
577.791	1	-2
577.960	1	4
578.130	1	-6
578.300	1	-1
578.470	1	11
578.640	1	3
578.810	1	-7
578.979	1	3
579.149	1	-5
579.319	1	-7
579.489	1	0
579.659	1	-7
579.829	1	2
579.998	1	5
580.168	1	1
580.338	1	6
580.508	1	4
580.678	1	1
580.848	1	-2
581.017	1	-5
581.187	1	-7
581.357	1	-8
581.527	1	2
581.697	1	0
581.867	1	1
582.036	1	-1
582.206	1	2
582.376	1	3
582.546	1	-2
582.716	1	-11
582.885	1	-10
583.055	1	-3
583.225	1	-15
583.395	1	-5
583.565	1	0
583.735	1	2
583.904	1	-1
584.074	1	-8
584.244	1	12
584.414	1	-4
584.584	1	9
584.753	1	-4
584.923	1	-7
585.093	1	0
585.263	1	0
585.433	1	-2
585.602	1	-2
585.772	1	1
585.942	1	-3
586.112	1	5
586.282	1	0
586.451	1	-5
586.621	1	-14
586.791	1	-5
586.961	1	-8
587.131	1	3
587.300	1	-12
587.470	1	4
587.640	1	7
587.810	1	-7
587.980	1	-3
588.149	1	0
588.319	1	-7
588.489	1	-2
588.659	1	2
588.829	1	-1
588.998	1	10
589.168	1	3
589.338	1	-4
589.508	1	9
589.677	1	-9
589.847	1	-9
590.017	1	9
590.187	1	-4
590.357	1	5
590.526	1	3
590.696	1	2
590.866	1	8
591.036	1	-15
591.205	1	10
591.375	1	0
591.545	1	-7
591.715	1	4
591.885	1	-4
592.054	1	2
592.224	1	-6
592.394	1	3
592.564	1	2
592.733	1	3
592.903	1	-5
593.073	1	-3
593.243	1	1
593.412	1	6
593.582	1	-4
593.752	1	0
593.922	1	-4
594.091	1	-6
594.261	1	0
594.431	1	-2
594.601	1	1
594.771	1	11
594.940	1	3
595.110	1	-10
595.280	1	0
595.450	1	-4
595.619	1	-4
595.789	1	0
595.959	1	7
596.129	1	-10
596.298	1	1
596.468	1	-3
596.638	1	3
596.808	1	3
596.977	1	3
597.147	1	1
597.317	1	-14
597.487	1	3
597.656	1	3
597.826	1	2
597.996	1	-4
598.166	1	-1
598.335	1	-5
598.505	1	-3
598.675	1	-8
598.844	1	1
599.014	1	-4
599.184	1	6
599.354	1	-9
599.523	1	0
599.693	1	-5
599.863	1	9
600.033	1	-7
600.202	1	-1
600.372	1	5
600.542	1	8
600.712	1	-10
600.881	1	-8
601.051	1	12
601.221	1	3
601.390	1	-13
601.560	1	4
601.730	1	9
601.900	1	3
602.069	1	10
602.239	1	-5
602.409	1	-10
602.578	1	-2
602.748	1	1
602.918	1	-2
603.088	1	0
603.257	1	6
603.427	1	-11
603.597	1	-11
603.767	1	4
603.936	1	-2
604.106	1	-1
604.276	1	4
604.445	1	2
604.615	1	2
604.785	1	-12
604.954	1	-5
605.124	1	-2
605.294	1	2
605.464	1	-9
605.633	1	-4
605.803	1	9
605.973	1	-11
606.142	1	3
606.312	1	8
606.482	1	-2
606.652	1	4
606.821	1	-7
606.991	1	1
607.161	1	-1
607.330	1	4
607.500	1	1
607.670	1	-5
607.839	1	6
608.009	1	1
608.179	1	-4
608.348	1	7
608.518	1	-1
608.688	1	11
608.858	1	-2
609.027	1	-5
609.197	1	4
609.367	1	11
609.536	1	-1
609.706	1	2
609.876	1	-4
610.045	1	0
610.215	1	-2
610.385	1	3
610.554	1	0
610.724	1	-1
610.894	1	-2
611.063	1	-3
611.233	1	1
611.403	1	-1
611.572	1	-6
611.742	1	4
611.912	1	-3
612.081	1	-6
612.251	1	5
612.421	1	-3
612.590	1	2
612.760	1	-1
612.930	1	2
613.099	1	0
613.269	1	1
613.439	1	-1
613.608	1	-6
613.778	1	-6
613.948	1	4
614.117	1	2
614.287	1	12
614.457	1	-2
614.626	1	-10
614.796	1	5
614.966	1	-5
615.135	1	-2
615.305	1	9
615.475	1	-1
615.644	1	0
615.814	1	2
615.984	1	-1
616.153	1	0
616.323	1	-2
616.493	1	-1
616.662	1	7
616.832	1	-2
617.002	1	-2
617.171	1	3
617.341	1	-4
617.511	1	-2
617.680	1	-5
617.850	1	5
618.019	1	9
618.189	1	9
618.359	1	5
618.528	1	1
618.698	1	3
618.868	1	-2
619.037	1	11
619.207	1	-5
619.377	1	-1
619.546	1	1
619.716	1	3
619.885	1	-1
620.055	1	-13
620.225	1	0
620.394	1	-8
620.564	1	4
620.734	1	7
620.903	1	-7
621.073	1	3
621.242	1	0
621.412	1	-14
621.582	1	4
621.751	1	5
621.921	1	-3
622.091	1	-2
622.260	1	-1
622.430	1	2
622.599	1	-2
622.769	1	2
622.939	1	5
623.108	1	0
623.278	1	-5
623.448	1	-3
623.617	1	-4
623.787	1	-2
623.956	1	6
624.126	1	3
624.296	1	-2
624.465	1	4
624.635	1	1
624.804	1	4
624.974	1	-5
625.144	1	2
625.313	1	-3
625.483	1	-10
625.652	1	-11
625.822	1	-6
625.992	1	-2
626.161	1	8
626.331	1	6
626.501	1	3
626.670	1	-2
626.840	1	-4
627.009	1	-7
627.179	1	7
627.348	1	10
627.518	1	-6
627.688	1	7
627.857	1	7
628.027	1	-6
628.196	1	-1
628.366	1	9
628.536	1	5
628.705	1	-2
628.875	1	0
629.044	1	-4
629.214	1	2
629.384	1	5
629.553	1	11
629.723	1	-5
629.892	1	3
630.062	1	0
630.232	1	-8
630.401	1	9
630.571	1	5
630.740	1	0
630.910	1	-3
631.079	1	-6
631.249	1	-1
631.419	1	-5
631.588	1	-10
631.758	1	7
631.927	1	-7
632.097	1	-1
632.266	1	-5
632.436	1	-3
632.606	1	-4
632.775	1	-1
632.945	1	1
633.114	1	9
633.284	1	3
633.453	1	-4
633.623	1	-1
633.793	1	4
633.962	1	-5
634.132	1	-3
634.301	1	-2
634.471	1	7
634.640	1	-5
634.810	1	10
634.979	1	-4
635.149	1	5
635.319	1	10
635.488	1	6
635.658	1	0
635.827	1	-6
635.997	1	-2
636.166	1	3
636.336	1	2
636.505	1	4
636.675	1	6
636.845	1	-1
637.014	1	-4
637.184	1	4
637.353	1	-1
637.523	1	2
637.692	1	0
637.862	1	-5
638.031	1	-2
638.201	1	0
638.370	1	-5
638.540	1	0
638.710	1	1
638.879	1	-9
639.049	1	4
639.218	1	-1
639.388	1	-6
639.557	1	-9
639.727	1	-2
639.896	1	5
640.066	1	-1
640.235	1	-6
640.405	1	5
640.574	1	1
640.744	1	-12
640.914	1	4
641.083	1	-3
641.253	1	-9
641.422	1	0
641.592	1	9
641.761	1	-15
641.931	1	0
642.100	1	16
642.270	1	-9
642.439	1	8
642.609	1	0
642.778	1	-3
642.948	1	-5
643.117	1	11
643.287	1	1
643.456	1	-4
643.626	1	13
643.795	1	4
643.965	1	-3
644.134	1	3
644.304	1	-6
644.473	1	-3
644.643	1	8
644.812	1	-4
644.982	1	0
645.151	1	-1
645.321	1	-10
645.490	1	4
645.660	1	0
645.829	1	-6
645.999	1	-5
646.168	1	7
646.338	1	6
646.507	1	-7
646.677	1	7
646.846	1	-7
647.016	1	-9
647.185	1	5
647.355	1	-19
647.524	1	6
647.694	1	3
647.863	1	4
648.033	1	-3
648.202	1	3
648.372	1	-2
648.541	1	-2
648.711	1	2
648.880	1	-3
649.050	1	-5
649.219	1	0
649.389	1	6
649.558	1	-1
649.728	1	2
649.897	1	-5
650.067	1	7
650.236	1	5
650.406	1	3
650.575	1	3
650.745	1	-1
650.914	1	-5
651.084	1	-19
651.253	1	2
651.423	1	0
651.592	1	-8
651.762	1	-4
651.931	1	7
652.101	1	4
652.270	1	2
652.440	1	8
652.609	1	-13
652.778	1	-5
652.948	1	6
653.117	1	4
653.287	1	2
653.456	1	-1
653.626	1	3
653.795	1	-4
653.965	1	-5
654.134	1	5
654.304	1	-14
654.473	1	0
654.643	1	2
654.812	1	2
654.982	1	-1
655.151	1	-6
655.320	1	1
655.490	1	-15
655.659	1	-5
655.829	1	-2
655.998	1	-8
656.168	1	-7
656.337	1	4
656.507	1	2
656.676	1	7
656.846	1	9
657.015	1	10
657.184	1	5
657.354	1	3
657.523	1	-5
657.693	1	8
657.862	1	4
658.032	1	2
658.201	1	1
658.371	1	0
658.540	1	-2
658.709	1	-4
658.879	1	7
659.048	1	-6
659.218	1	4
659.387	1	6
659.557	1	-2
659.726	1	-2
659.895	1	-3
660.065	1	-15
660.234	1	-8
660.404	1	5
660.573	1	-3
660.743	1	6
660.912	1	-4
661.081	1	6
661.251	1	-7
661.420	1	2
661.590	1	6
661.759	1	-3
661.929	1	3
662.098	1	6
662.267	1	-2
662.437	1	7
662.606	1	-5
662.776	1	6
662.945	1	4
663.115	1	-3
663.284	1	-5
663.453	1	0
663.623	1	-4
663.792	1	6
663.962	1	-6
664.131	1	4
664.300	1	3
664.470	1	-1
664.639	1	9
664.809	1	-3
664.978	1	6
665.148	1	1
665.317	1	-7
665.486	1	9
665.656	1	-2
665.825	1	8
665.995	1	-10
666.164	1	-2
666.333	1	7
666.503	1	5
666.672	1	-6
666.842	1	-3
667.011	1	3
667.180	1	6
667.350	1	1
667.519	1	1
667.689	1	-2
667.858	1	-1
668.027	1	6
668.197	1	-2
668.366	1	-16
668.536	1	-2
668.705	1	-1
668.874	1	-3
669.044	1	-8
669.213	1	9
669.382	1	-17
669.552	1	3
669.721	1	4
669.891	1	3
670.060	1	1
670.229	1	6
670.399	1	-4
670.568	1	-2
670.738	1	7
670.907	1	-6
671.076	1	-5
671.246	1	0
671.415	1	2
671.584	1	5
671.754	1	1
671.923	1	-1
672.093	1	4
672.262	1	-10
672.431	1	3
672.601	1	0
672.770	1	-14
672.939	1	7
673.109	1	-2
673.278	1	7
673.448	1	4
673.617	1	-4
673.786	1	11
