325.333	1	12
325.504	1	6
325.675	1	4
325.846	1	1
326.017	1	-7
326.188	1	3
326.359	1	0
326.531	1	-7
326.702	1	6
326.873	1	7
327.044	1	6
327.215	1	-5
327.386	1	5
327.557	1	-2
327.728	1	10
327.899	1	6
328.070	1	18
328.241	1	9
328.412	1	-11
328.583	1	8
328.754	1	0
328.926	1	6
329.097	1	0
329.268	1	14
329.439	1	-1
329.610	1	11
329.781	1	1
329.952	1	5
330.123	1	11
330.294	1	-4
330.465	1	3
330.636	1	15
330.807	1	-5
330.978	1	-3
331.149	1	1
331.320	1	9
331.492	1	8
331.663	1	0
331.834	1	14
332.005	1	-4
332.176	1	14
332.347	1	8
332.518	1	1
332.689	1	6
332.860	1	-3
333.031	1	8
333.202	1	4
333.373	1	4
333.544	1	6
333.715	1	10
333.886	1	8
334.057	1	11
334.228	1	-9
334.399	1	6
334.570	1	9
334.741	1	-5
334.912	1	9
335.084	1	23
335.255	1	8
335.426	1	-5
335.597	1	6
335.768	1	8
335.939	1	12
336.110	1	-7
336.281	1	3
336.452	1	1
336.623	1	10
336.794	1	12
336.965	1	7
337.136	1	12
337.307	1	-8
337.478	1	8
337.649	1	9
337.820	1	1
337.991	1	6
338.162	1	4
338.333	1	5
338.504	1	7
338.675	1	10
338.846	1	8
339.017	1	8
339.188	1	2
339.359	1	0
339.530	1	6
339.701	1	10
339.872	1	15
340.043	1	10
340.214	1	7
340.385	1	16
340.556	1	-1
340.727	1	9
340.898	1	12
341.069	1	7
341.240	1	4
341.411	1	4
341.582	1	16
341.753	1	2
341.924	1	5
342.095	1	16
342.266	1	16
342.437	1	20
342.608	1	6
342.779	1	6
342.950	1	14
343.121	1	10
343.292	1	1
343.463	1	11
343.634	1	13
343.805	1	18
343.976	1	9
344.147	1	7
344.318	1	8
344.489	1	10
344.660	1	17
344.831	1	14
345.002	1	-1
345.173	1	22
345.344	1	6
345.515	1	15
345.686	1	-1
345.857	1	5
346.028	1	17
346.199	1	-1
346.370	1	6
346.541	1	16
346.712	1	9
346.883	1	9
347.054	1	7
347.225	1	1
347.396	1	4
347.567	1	4
347.738	1	6
347.909	1	26
348.080	1	3
348.251	1	14
348.422	1	16
348.593	1	13
348.764	1	16
348.935	1	8
349.106	1	8
349.277	1	9
349.448	1	5
349.619	1	7
349.790	1	12
349.961	1	17
350.132	1	16
350.303	1	14
350.474	1	23
350.645	1	12
350.816	1	13
350.987	1	14
351.157	1	1
351.328	1	12
351.499	1	12
351.670	1	14
351.841	1	13
352.012	1	18
352.183	1	22
352.354	1	29
352.525	1	16
352.696	1	20
352.867	1	15
353.038	1	15
353.209	1	13
353.380	1	6
353.551	1	4
353.722	1	16
353.893	1	5
354.064	1	22
354.235	1	10
354.406	1	15
354.576	1	12
354.747	1	6
354.918	1	17
355.089	1	12
355.260	1	26
355.431	1	20
355.602	1	12
355.773	1	14
355.944	1	15
356.115	1	16
356.286	1	12
356.457	1	9
356.628	1	13
356.799	1	16
356.970	1	28
357.141	1	14
357.311	1	9
357.482	1	11
357.653	1	20
357.824	1	22
357.995	1	18
358.166	1	13
358.337	1	3
358.508	1	18
358.679	1	8
358.850	1	14
359.021	1	6
359.192	1	12
359.363	1	18
359.533	1	13
359.704	1	10
359.875	1	13
360.046	1	18
360.217	1	4
360.388	1	27
360.559	1	7
360.730	1	10
360.901	1	7
361.072	1	27
361.243	1	19
361.414	1	17
361.584	1	8
361.755	1	23
361.926	1	16
362.097	1	15
362.268	1	21
362.439	1	6
362.610	1	19
362.781	1	8
362.952	1	2
363.123	1	10
363.293	1	11
363.464	1	23
363.635	1	19
363.806	1	2
363.977	1	16
364.148	1	14
364.319	1	19
364.490	1	21
364.661	1	20
364.832	1	25
365.002	1	23
365.173	1	10
365.344	1	17
365.515	1	9
365.686	1	13
365.857	1	22
366.028	1	23
366.199	1	11
366.370	1	21
366.540	1	6
366.711	1	-1
366.882	1	3
367.053	1	1
367.224	1	25
367.395	1	20
367.566	1	31
367.737	1	20
367.908	1	19
368.078	1	15
368.249	1	13
368.420	1	18
368.591	1	8
368.762	1	17
368.933	1	15
369.104	1	8
369.274	1	19
369.445	1	19
369.616	1	24
369.787	1	15
369.958	1	14
370.129	1	10
370.300	1	17
370.471	1	13
370.641	1	11
370.812	1	13
370.983	1	11
371.154	1	16
371.325	1	19
371.496	1	21
371.667	1	27
371.837	1	10
372.008	1	18
372.179	1	9
372.350	1	26
372.521	1	18
372.692	1	13
372.863	1	24
373.033	1	1
373.204	1	14
373.375	1	25
373.546	1	17
373.717	1	20
373.888	1	28
374.059	1	16
374.229	1	19
374.400	1	10
374.571	1	19
374.742	1	23
374.913	1	19
375.084	1	10
375.254	1	20
375.425	1	23
375.596	1	27
375.767	1	15
375.938	1	15
376.109	1	21
376.279	1	8
376.450	1	19
376.621	1	27
376.792	1	13
376.963	1	16
377.134	1	21
377.304	1	17
377.475	1	2
377.646	1	17
377.817	1	21
377.988	1	21
378.159	1	21
378.329	1	23
378.500	1	14
378.671	1	23
378.842	1	16
379.013	1	13
379.184	1	11
379.354	1	27
379.525	1	18
379.696	1	30
379.867	1	21
380.038	1	16
380.209	1	12
380.379	1	20
380.550	1	14
380.721	1	21
380.892	1	19
381.063	1	10
381.233	1	33
381.404	1	11
381.575	1	21
381.746	1	20
381.917	1	24
382.087	1	28
382.258	1	23
382.429	1	20
382.600	1	23
382.771	1	27
382.941	1	12
383.112	1	22
383.283	1	18
383.454	1	28
383.625	1	13
383.795	1	25
383.966	1	21
384.137	1	28
384.308	1	19
384.479	1	24
384.649	1	28
384.820	1	15
384.991	1	19
385.162	1	9
385.333	1	21
385.503	1	24
385.674	1	18
385.845	1	28
386.016	1	20
386.187	1	17
386.357	1	22
386.528	1	28
386.699	1	23
386.870	1	30
387.041	1	27
387.211	1	21
387.382	1	28
387.553	1	15
387.724	1	17
387.894	1	26
388.065	1	24
388.236	1	25
388.407	1	27
388.578	1	15
388.748	1	12
388.919	1	32
389.090	1	23
389.261	1	24
389.431	1	21
389.602	1	22
389.773	1	14
389.944	1	18
390.114	1	20
390.285	1	26
390.456	1	22
390.627	1	12
390.798	1	32
390.968	1	20
391.139	1	19
391.310	1	29
391.481	1	22
391.651	1	36
391.822	1	14
391.993	1	22
392.164	1	33
392.334	1	20
392.505	1	19
392.676	1	30
392.847	1	34
393.017	1	29
393.188	1	32
393.359	1	14
393.530	1	21
393.700	1	14
393.871	1	17
394.042	1	16
394.213	1	15
394.383	1	15
394.554	1	23
394.725	1	28
394.896	1	15
395.066	1	28
395.237	1	26
395.408	1	17
395.579	1	26
395.749	1	32
395.920	1	19
396.091	1	30
396.262	1	35
396.432	1	22
396.603	1	26
396.774	1	31
396.945	1	26
397.115	1	20
397.286	1	33
397.457	1	24
397.627	1	26
397.798	1	26
397.969	1	28
398.140	1	22
398.310	1	17
398.481	1	38
398.652	1	13
398.823	1	14
398.993	1	21
399.164	1	29
399.335	1	35
399.505	1	23
399.676	1	33
399.847	1	25
400.018	1	21
400.188	1	29
400.359	1	24
400.530	1	26
400.700	1	33
400.871	1	16
401.042	1	35
401.213	1	31
401.383	1	21
401.554	1	33
401.725	1	35
401.895	1	22
402.066	1	15
402.237	1	25
402.408	1	17
402.578	1	27
402.749	1	29
402.920	1	23
403.090	1	20
403.261	1	21
403.432	1	21
403.603	1	21
403.773	1	33
403.944	1	34
404.115	1	33
404.285	1	26
404.456	1	30
404.627	1	18
404.797	1	8
404.968	1	25
405.139	1	23
405.310	1	45
405.480	1	26
405.651	1	23
405.822	1	39
405.992	1	19
406.163	1	22
406.334	1	17
406.504	1	25
406.675	1	25
406.846	1	23
407.016	1	37
407.187	1	32
407.358	1	18
407.528	1	17
407.699	1	11
407.870	1	20
408.041	1	33
408.211	1	35
408.382	1	16
408.553	1	22
408.723	1	18
408.894	1	19
409.065	1	32
409.235	1	28
409.406	1	19
409.577	1	20
409.747	1	39
409.918	1	20
410.089	1	24
410.259	1	26
410.430	1	26
410.601	1	20
410.771	1	23
410.942	1	25
411.113	1	32
411.283	1	27
411.454	1	33
411.625	1	31
411.795	1	37
411.966	1	30
412.137	1	36
412.307	1	26
412.478	1	25
412.649	1	34
412.819	1	35
412.990	1	29
413.161	1	34
413.331	1	24
413.502	1	43
413.672	1	36
413.843	1	31
414.014	1	34
414.184	1	32
414.355	1	35
414.526	1	26
414.696	1	38
414.867	1	33
415.038	1	5
415.208	1	35
415.379	1	40
415.550	1	34
415.720	1	30
415.891	1	34
416.062	1	17
416.232	1	32
416.403	1	20
416.573	1	29
416.744	1	25
416.915	1	30
417.085	1	24
417.256	1	31
417.427	1	17
417.597	1	22
417.768	1	30
417.939	1	27
418.109	1	27
418.280	1	38
418.450	1	15
418.621	1	11
418.792	1	28
418.962	1	33
419.133	1	26
419.304	1	26
419.474	1	28
419.645	1	17
419.815	1	21
419.986	1	33
420.157	1	21
420.327	1	27
420.498	1	41
420.669	1	24
420.839	1	42
421.010	1	37
421.180	1	31
421.351	1	29
421.522	1	23
421.692	1	32
421.863	1	32
422.033	1	27
422.204	1	25
422.375	1	26
422.545	1	30
422.716	1	18
422.886	1	26
423.057	1	33
423.228	1	20
423.398	1	11
423.569	1	20
423.740	1	19
423.910	1	15
424.081	1	22
424.251	1	17
424.422	1	33
424.593	1	16
424.763	1	31
424.934	1	38
425.104	1	19
425.275	1	27
425.445	1	17
425.616	1	15
425.787	1	15
425.957	1	22
426.128	1	34
426.298	1	24
426.469	1	12
426.640	1	18
426.810	1	23
426.981	1	22
427.151	1	18
427.322	1	30
427.493	1	20
427.663	1	25
427.834	1	24
428.004	1	23
428.175	1	25
428.345	1	13
428.516	1	20
428.687	1	33
428.857	1	23
429.028	1	19
429.198	1	39
429.369	1	33
429.540	1	24
429.710	1	24
429.881	1	24
430.051	1	27
430.222	1	29
430.392	1	21
430.563	1	29
430.734	1	41
430.904	1	30
431.075	1	26
431.245	1	19
431.416	1	17
431.586	1	21
431.757	1	22
431.927	1	17
432.098	1	26
432.269	1	19
432.439	1	21
432.610	1	16
432.780	1	31
432.951	1	24
433.121	1	28
433.292	1	30
433.462	1	19
433.633	1	30
433.804	1	18
433.974	1	32
434.145	1	32
434.315	1	19
434.486	1	24
434.656	1	33
434.827	1	30
434.997	1	10
435.168	1	30
435.339	1	25
435.509	1	20
435.680	1	24
435.850	1	14
436.021	1	24
436.191	1	19
436.362	1	26
436.532	1	27
436.703	1	26
436.873	1	26
437.044	1	18
437.214	1	17
437.385	1	20
437.556	1	9
437.726	1	39
437.897	1	34
438.067	1	17
438.238	1	21
438.408	1	21
438.579	1	19
438.749	1	25
438.920	1	23
439.090	1	21
439.261	1	13
439.431	1	22
439.602	1	18
439.772	1	19
439.943	1	32
440.113	1	26
440.284	1	27
440.455	1	23
440.625	1	26
440.796	1	24
440.966	1	12
441.137	1	25
441.307	1	12
441.478	1	28
441.648	1	24
441.819	1	20
441.989	1	21
442.160	1	27
442.330	1	21
442.501	1	22
442.671	1	22
442.842	1	6
443.012	1	18
443.183	1	29
443.353	1	14
443.524	1	23
443.694	1	20
443.865	1	23
444.035	1	24
444.206	1	15
444.376	1	13
444.547	1	27
444.717	1	21
444.888	1	15
445.058	1	29
445.229	1	17
445.399	1	25
445.570	1	25
445.740	1	15
445.911	1	16
446.081	1	8
446.252	1	23
446.422	1	19
446.593	1	16
446.763	1	20
446.934	1	12
447.104	1	16
447.275	1	18
447.445	1	16
447.616	1	22
447.786	1	16
447.957	1	22
448.127	1	20
448.298	1	18
448.468	1	25
448.639	1	19
448.809	1	20
448.979	1	12
449.150	1	26
449.320	1	25
449.491	1	27
449.661	1	15
449.832	1	16
450.002	1	20
450.173	1	13
450.343	1	20
450.514	1	16
450.684	1	14
450.855	1	21
451.025	1	20
451.196	1	17
451.366	1	24
451.537	1	11
451.707	1	7
451.878	1	20
452.048	1	28
452.218	1	21
452.389	1	22
452.559	1	14
452.730	1	35
452.900	1	25
453.071	1	9
453.241	1	22
453.412	1	8
453.582	1	28
453.753	1	23
453.923	1	16
454.093	1	34
454.264	1	31
454.434	1	17
454.605	1	16
454.775	1	26
454.946	1	13
455.116	1	18
455.287	1	-1
455.457	1	13
455.628	1	12
455.798	1	27
455.968	1	34
456.139	1	14
456.309	1	14
456.480	1	7
456.650	1	13
456.821	1	3
456.991	1	18
457.161	1	15
457.332	1	19
457.502	1	6
457.673	1	21
457.843	1	21
458.014	1	16
458.184	1	15
458.355	1	14
458.525	1	22
458.695	1	15
458.866	1	19
459.036	1	9
459.207	1	15
459.377	1	15
459.548	1	25
459.718	1	22
459.888	1	19
460.059	1	13
460.229	1	22
460.400	1	28
460.570	1	16
460.740	1	13
460.911	1	18
461.081	1	17
461.252	1	12
461.422	1	14
461.593	1	15
461.763	1	19
461.933	1	21
462.104	1	10
462.274	1	18
462.445	1	16
462.615	1	14
462.785	1	15
462.956	1	21
463.126	1	18
463.297	1	13
463.467	1	20
463.638	1	19
463.808	1	8
463.978	1	15
464.149	1	11
464.319	1	13
464.490	1	27
464.660	1	16
464.830	1	22
465.001	1	15
465.171	1	19
465.342	1	18
465.512	1	8
465.682	1	14
465.853	1	13
466.023	1	15
466.194	1	17
466.364	1	23
466.534	1	13
466.705	1	11
466.875	1	10
467.045	1	7
467.216	1	26
467.386	1	3
467.557	1	16
467.727	1	8
467.897	1	12
468.068	1	11
468.238	1	19
468.409	1	15
468.579	1	23
468.749	1	12
468.920	1	1
469.090	1	11
469.260	1	3
469.431	1	11
469.601	1	18
469.772	1	17
469.942	1	10
470.112	1	11
470.283	1	14
470.453	1	18
470.623	1	12
470.794	1	11
470.964	1	15
471.135	1	14
471.305	1	11
471.475	1	7
471.646	1	5
471.816	1	18
471.986	1	12
472.157	1	26
472.327	1	-1
472.497	1	12
472.668	1	4
472.838	1	14
473.009	1	8
473.179	1	6
473.349	1	8
473.520	1	16
473.690	1	15
473.860	1	10
474.031	1	14
474.201	1	6
474.371	1	13
474.542	1	15
474.712	1	13
474.882	1	19
475.053	1	22
475.223	1	11
475.394	1	21
475.564	1	8
475.734	1	13
475.905	1	32
476.075	1	5
476.245	1	18
476.416	1	20
476.586	1	24
476.756	1	10
476.927	1	26
477.097	1	11
477.267	1	9
477.438	1	12
477.608	1	9
477.778	1	21
477.949	1	14
478.119	1	12
478.289	1	26
478.460	1	24
478.630	1	16
478.800	1	15
478.971	1	26
479.141	1	12
479.311	1	9
479.482	1	17
479.652	1	10
479.822	1	4
479.993	1	17
480.163	1	25
480.333	1	12
480.504	1	22
480.674	1	8
480.844	1	11
481.015	1	19
481.185	1	5
481.355	1	12
481.525	1	8
481.696	1	5
481.866	1	11
482.036	1	6
482.207	1	10
482.377	1	13
482.547	1	14
482.718	1	14
482.888	1	3
483.058	1	5
483.229	1	12
483.399	1	10
483.569	1	11
483.740	1	16
483.910	1	9
484.080	1	6
484.250	1	15
484.421	1	6
484.591	1	10
484.761	1	12
484.932	1	18
485.102	1	18
485.272	1	15
485.443	1	12
485.613	1	11
485.783	1	9
485.953	1	12
486.124	1	11
486.294	1	22
486.464	1	6
486.635	1	19
486.805	1	17
486.975	1	2
487.146	1	12
487.316	1	1
487.486	1	14
487.656	1	9
487.827	1	8
487.997	1	-6
488.167	1	2
488.338	1	19
488.508	1	15
488.678	1	6
488.848	1	22
489.019	1	12
489.189	1	8
489.359	1	4
489.529	1	13
489.700	1	9
489.870	1	17
490.040	1	4
490.211	1	8
490.381	1	22
490.551	1	12
490.721	1	9
490.892	1	14
491.062	1	7
491.232	1	13
491.402	1	11
491.573	1	0
491.743	1	6
491.913	1	13
492.084	1	20
492.254	1	8
492.424	1	16
492.594	1	16
492.765	1	13
492.935	1	5
493.105	1	8
493.275	1	14
493.446	1	12
493.616	1	17
493.786	1	10
493.956	1	10
494.127	1	1
494.297	1	4
494.467	1	9
494.637	1	6
494.808	1	2
494.978	1	1
495.148	1	12
495.318	1	7
495.489	1	12
495.659	1	13
495.829	1	3
495.999	1	1
496.170	1	12
496.340	1	8
496.510	1	15
496.680	1	1
496.851	1	10
497.021	1	3
497.191	1	-5
497.361	1	5
497.532	1	5
497.702	1	14
497.872	1	14
498.042	1	9
498.213	1	10
498.383	1	8
498.553	1	-1
498.723	1	-3
498.894	1	1
499.064	1	9
499.234	1	18
499.404	1	10
499.574	1	13
499.745	1	14
499.915	1	1
500.085	1	0
500.255	1	14
500.426	1	8
500.596	1	8
500.766	1	5
500.936	1	-2
501.106	1	2
501.277	1	7
501.447	1	6
501.617	1	14
501.787	1	8
501.958	1	3
502.128	1	2
502.298	1	14
502.468	1	5
502.638	1	9
502.809	1	2
502.979	1	4
503.149	1	2
503.319	1	-1
503.489	1	2
503.660	1	14
503.830	1	-1
504.000	1	11
504.170	1	6
504.340	1	2
504.511	1	16
504.681	1	7
504.851	1	15
505.021	1	7
505.192	1	-7
505.362	1	10
505.532	1	6
505.702	1	8
505.872	1	3
506.043	1	8
506.213	1	1
506.383	1	9
506.553	1	7
506.723	1	4
506.893	1	2
507.064	1	22
507.234	1	3
507.404	1	5
507.574	1	15
507.744	1	12
507.915	1	8
508.085	1	8
508.255	1	11
508.425	1	12
508.595	1	13
508.766	1	18
508.936	1	-4
509.106	1	11
509.276	1	9
509.446	1	4
509.616	1	0
509.787	1	11
509.957	1	1
510.127	1	6
510.297	1	-2
510.467	1	5
510.638	1	10
510.808	1	3
510.978	1	-5
511.148	1	9
511.318	1	3
511.488	1	5
511.659	1	2
511.829	1	4
511.999	1	-3
512.169	1	13
512.339	1	-1
512.509	1	1
512.680	1	2
512.850	1	3
513.020	1	5
513.190	1	11
513.360	1	6
513.530	1	5
513.700	1	16
513.871	1	7
514.041	1	1
514.211	1	9
514.381	1	14
514.551	1	12
514.721	1	2
514.892	1	5
515.062	1	9
515.232	1	12
515.402	1	-1
515.572	1	1
515.742	1	9
515.912	1	18
516.083	1	5
516.253	1	6
516.423	1	0
516.593	1	6
516.763	1	18
516.933	1	3
517.104	1	6
517.274	1	6
517.444	1	5
517.614	1	-1
517.784	1	13
517.954	1	15
518.124	1	8
518.294	1	3
518.465	1	-6
518.635	1	10
518.805	1	-7
518.975	1	8
519.145	1	-4
519.315	1	5
519.485	1	7
519.656	1	18
519.826	1	8
519.996	1	-5
520.166	1	0
520.336	1	14
520.506	1	5
520.676	1	-7
520.846	1	8
521.017	1	4
521.187	1	-1
521.357	1	14
521.527	1	0
521.697	1	2
521.867	1	-1
522.037	1	14
522.207	1	7
522.377	1	10
522.548	1	7
522.718	1	4
522.888	1	11
523.058	1	-1
523.228	1	13
523.398	1	12
523.568	1	5
523.738	1	0
523.909	1	3
524.079	1	5
524.249	1	4
524.419	1	0
524.589	1	4
524.759	1	12
524.929	1	-5
525.099	1	6
525.269	1	3
525.439	1	5
525.610	1	17
525.780	1	6
525.950	1	6
526.120	1	1
526.290	1	3
526.460	1	-6
526.630	1	7
526.800	1	-1
526.970	1	11
527.140	1	15
527.311	1	-4
527.481	1	-1
527.651	1	11
527.821	1	-3
527.991	1	19
528.161	1	11
528.331	1	-1
528.501	1	5
528.671	1	-2
528.841	1	3
529.011	1	9
529.181	1	-2
529.352	1	13
529.522	1	1
529.692	1	5
529.862	1	-2
530.032	1	8
530.202	1	13
530.372	1	12
530.542	1	1
530.712	1	1
530.882	1	7
531.052	1	6
531.222	1	8
531.392	1	-10
531.563	1	5
531.733	1	1
531.903	1	0
532.073	1	9
532.243	1	-4
532.413	1	5
532.583	1	-2
532.753	1	11
532.923	1	5
533.093	1	7
533.263	1	2
533.433	1	4
533.603	1	5
533.773	1	9
533.943	1	0
534.113	1	3
534.284	1	0
534.454	1	13
534.624	1	18
534.794	1	2
534.964	1	9
535.134	1	6
535.304	1	-3
535.474	1	14
535.644	1	-7
535.814	1	0
535.984	1	-5
536.154	1	-6
536.324	1	0
536.494	1	4
536.664	1	9
536.834	1	10
537.004	1	-4
537.174	1	13
537.344	1	6
537.514	1	-2
537.685	1	3
537.855	1	5
538.025	1	-1
538.195	1	-2
538.365	1	11
538.535	1	2
538.705	1	2
538.875	1	-1
539.045	1	9
539.215	1	12
539.385	1	11
539.555	1	11
539.725	1	-4
539.895	1	-3
540.065	1	16
540.235	1	10
540.405	1	3
540.575	1	4
540.745	1	3
540.915	1	8
541.085	1	7
541.255	1	4
541.425	1	5
541.595	1	3
541.765	1	7
541.935	1	-7
542.105	1	-8
542.275	1	6
542.445	1	-18
542.615	1	9
542.785	1	11
542.955	1	1
543.125	1	-1
543.295	1	7
543.465	1	13
543.635	1	5
543.805	1	8
543.975	1	-5
544.145	1	14
544.315	1	-2
544.485	1	10
544.655	1	2
544.825	1	-14
544.995	1	4
545.165	1	-1
545.335	1	6
545.505	1	-5
545.675	1	6
545.845	1	7
546.015	1	4
546.185	1	13
546.355	1	5
546.525	1	6
546.695	1	-1
546.865	1	-5
547.035	1	13
547.205	1	-2
547.375	1	2
547.545	1	8
547.715	1	5
547.885	1	5
548.055	1	8
548.225	1	8
548.395	1	0
548.565	1	6
548.735	1	4
548.905	1	-4
549.075	1	8
549.245	1	-8
549.415	1	3
549.585	1	11
549.755	1	0
549.925	1	-5
550.095	1	1
550.265	1	5
550.435	1	-1
550.605	1	6
550.775	1	-2
550.945	1	7
551.115	1	2
551.285	1	6
551.455	1	-6
551.625	1	19
551.795	1	8
551.965	1	5
552.135	1	-4
552.305	1	1
552.475	1	-8
552.645	1	2
552.815	1	-3
552.985	1	5
553.155	1	3
553.325	1	4
553.495	1	3
553.665	1	-6
553.835	1	2
554.004	1	2
554.174	1	1
554.344	1	3
554.514	1	-3
554.684	1	1
554.854	1	9
555.024	1	1
555.194	1	-1
555.364	1	10
555.534	1	10
555.704	1	1
555.874	1	12
556.044	1	2
556.214	1	-2
556.384	1	5
556.554	1	15
556.724	1	0
556.894	1	1
557.064	1	2
557.234	1	-1
557.404	1	0
557.573	1	14
557.743	1	2
557.913	1	-7
558.083	1	-2
558.253	1	13
558.423	1	0
558.593	1	9
558.763	1	-4
558.933	1	10
559.103	1	2
559.273	1	4
559.443	1	-6
559.613	1	1
559.783	1	-2
559.953	1	-6
560.122	1	16
560.292	1	7
560.462	1	-3
560.632	1	11
560.802	1	9
560.972	1	4
561.142	1	-4
561.312	1	-6
561.482	1	2
561.652	1	-5
561.822	1	-4
561.992	1	9
562.162	1	5
562.331	1	5
562.501	1	-7
562.671	1	5
562.841	1	0
563.011	1	7
563.181	1	-2
563.351	1	-10
563.521	1	15
563.691	1	0
563.861	1	3
564.031	1	10
564.201	1	16
564.370	1	2
564.540	1	2
564.710	1	-6
564.880	1	11
565.050	1	6
565.220	1	1
565.390	1	9
565.560	1	7
565.730	1	-8
565.900	1	3
566.069	1	12
566.239	1	3
566.409	1	5
566.579	1	7
566.749	1	9
566.919	1	13
567.089	1	12
567.259	1	12
567.429	1	-2
567.599	1	2
567.768	1	5
567.938	1	1
568.108	1	-4
568.278	1	6
568.448	1	6
568.618	1	-3
568.788	1	-2
568.958	1	1
569.128	1	14
569.297	1	-4
569.467	1	-5
569.637	1	20
569.807	1	2
569.977	1	12
570.147	1	3
570.317	1	-9
570.487	1	6
570.656	1	7
570.826	1	-2
570.996	1	-1
571.166	1	8
571.336	1	6
571.506	1	-1
571.676	1	-4
571.846	1	-1
572.015	1	0
572.185	1	3
572.355	1	1
572.525	1	7
572.695	1	1
572.865	1	4
573.035	1	3
573.205	1	9
573.374	1	-7
573.544	1	0
573.714	1	8
573.884	1	11
574.054	1	-3
574.224	1	2
574.394	1	3
574.563	1	-3
574.733	1	-1
574.903	1	-1
575.073	1	-1
575.243	1	4
575.413	1	8
575.583	1	6
575.752	1	4
575.922	1	8
576.092	1	-1
576.262	1	10
576.432	1	11
576.602	1	2
576.772	1	15
576.941	1	-1
577.111	1	-2
577.281	1	-6
577.451	1	-6
577.621	1	8
577.791	1	8
577.960	1	1
578.130	1	4
578.300	1	0
578.470	1	5
578.640	1	0
578.810	1	7
578.979	1	0
579.149	1	0
579.319	1	-3
579.489	1	8
579.659	1	1
579.829	1	4
579.998	1	12
580.168	1	13
580.338	1	8
580.508	1	5
580.678	1	2
580.848	1	-3
581.017	1	-6
581.187	1	1
581.357	1	-10
581.527	1	5
581.697	1	7
581.867	1	2
582.036	1	-2
582.206	1	3
582.376	1	14
582.546	1	4
582.716	1	-9
582.885	1	-7
583.055	1	-4
583.225	1	-13
583.395	1	13
583.565	1	-6
583.735	1	2
583.904	1	7
584.074	1	8
584.244	1	4
584.414	1	-9
584.584	1	4
584.753	1	1
584.923	1	5
585.093	1	-6
585.263	1	4
585.433	1	7
585.602	1	-4
585.772	1	-5
585.942	1	-3
586.112	1	3
586.282	1	8
586.451	1	-5
586.621	1	-1
586.791	1	1
586.961	1	5
587.131	1	6
587.300	1	0
587.470	1	9
587.640	1	5
587.810	1	-8
587.980	1	4
588.149	1	-2
588.319	1	-1
588.489	1	5
588.659	1	-9
588.829	1	12
588.998	1	16
589.168	1	10
589.338	1	0
589.508	1	14
589.677	1	-6
589.847	1	0
590.017	1	14
590.187	1	-3
590.357	1	1
590.526	1	17
590.696	1	2
590.866	1	3
591.036	1	1
591.205	1	12
591.375	1	-9
591.545	1	-4
591.715	1	3
591.885	1	-2
592.054	1	8
592.224	1	1
592.394	1	0
592.564	1	4
592.733	1	8
592.903	1	0
593.073	1	2
593.243	1	3
593.412	1	7
593.582	1	1
593.752	1	1
593.922	1	10
594.091	1	6
594.261	1	0
594.431	1	10
594.601	1	1
594.771	1	14
594.940	1	-8
595.110	1	-3
595.280	1	3
595.450	1	2
595.619	1	-9
595.789	1	7
595.959	1	1
596.129	1	2
596.298	1	-7
596.468	1	5
596.638	1	7
596.808	1	8
596.977	1	4
597.147	1	5
597.317	1	-3
597.487	1	6
597.656	1	0
597.826	1	8
597.996	1	2
598.166	1	-2
598.335	1	-1
598.505	1	4
598.675	1	-4
598.844	1	10
599.014	1	5
599.184	1	10
599.354	1	-15
599.523	1	6
599.693	1	-6
599.863	1	10
600.033	1	1
600.202	1	7
600.372	1	4
600.542	1	6
600.712	1	-6
600.881	1	-3
601.051	1	15
601.221	1	15
601.390	1	-1
601.560	1	17
601.730	1	9
601.900	1	-5
602.069	1	10
602.239	1	0
602.409	1	-12
602.578	1	3
602.748	1	-4
602.918	1	7
603.088	1	8
603.257	1	0
603.427	1	2
603.597	1	0
603.767	1	5
603.936	1	7
604.106	1	2
604.276	1	-1
604.445	1	10
604.615	1	6
604.785	1	-11
604.954	1	-5
605.124	1	5
605.294	1	-3
605.464	1	2
605.633	1	2
605.803	1	10
605.973	1	-2
606.142	1	3
606.312	1	15
606.482	1	-1
606.652	1	8
606.821	1	-5
606.991	1	2
607.161	1	2
607.330	1	9
607.500	1	2
607.670	1	4
607.839	1	1
608.009	1	14
608.179	1	11
608.348	1	6
608.518	1	-4
608.688	1	9
608.858	1	-1
609.027	1	3
609.197	1	-6
609.367	1	10
609.536	1	1
609.706	1	1
609.876	1	2
610.045	1	5
610.215	1	7
610.385	1	2
610.554	1	1
610.724	1	13
610.894	1	2
611.063	1	5
611.233	1	-3
611.403	1	5
611.572	1	4
611.742	1	12
611.912	1	-2
612.081	1	-7
612.251	1	9
612.421	1	9
612.590	1	-4
612.760	1	2
612.930	1	2
613.099	1	0
613.269	1	10
613.439	1	9
613.608	1	3
613.778	1	6
613.948	1	-2
614.117	1	7
614.287	1	12
614.457	1	4
614.626	1	5
614.796	1	6
614.966	1	0
615.135	1	-2
615.305	1	12
615.475	1	3
615.644	1	2
615.814	1	-2
615.984	1	-1
616.153	1	-4
616.323	1	-3
616.493	1	9
616.662	1	8
616.832	1	-1
617.002	1	2
617.171	1	5
617.341	1	0
617.511	1	-8
617.680	1	0
617.850	1	9
618.019	1	9
618.189	1	6
618.359	1	4
618.528	1	5
618.698	1	1
618.868	1	0
619.037	1	0
619.207	1	-16
619.377	1	2
619.546	1	-1
619.716	1	-2
619.885	1	2
620.055	1	-9
620.225	1	12
620.394	1	0
620.564	1	15
620.734	1	7
620.903	1	0
621.073	1	3
621.242	1	7
621.412	1	1
621.582	1	-4
621.751	1	11
621.921	1	2
622.091	1	-3
622.260	1	3
622.430	1	13
622.599	1	-1
622.769	1	5
622.939	1	13
623.108	1	3
623.278	1	-7
623.448	1	-6
623.617	1	-1
623.787	1	5
623.956	1	11
624.126	1	0
624.296	1	-7
624.465	1	13
624.635	1	11
624.804	1	-4
624.974	1	7
625.144	1	7
625.313	1	-8
625.483	1	-4
625.652	1	3
625.822	1	0
625.992	1	1
626.161	1	9
626.331	1	12
626.501	1	-2
626.670	1	6
626.840	1	-6
627.009	1	-3
627.179	1	14
627.348	1	3
627.518	1	5
627.688	1	3
627.857	1	7
628.027	1	-8
628.196	1	5
628.366	1	17
628.536	1	1
628.705	1	4
628.875	1	6
629.044	1	-6
629.214	1	-3
629.384	1	9
629.553	1	5
629.723	1	7
629.892	1	7
630.062	1	10
630.232	1	-3
630.401	1	11
630.571	1	5
630.740	1	11
630.910	1	13
631.079	1	-1
631.249	1	9
631.419	1	7
631.588	1	0
631.758	1	13
631.927	1	1
632.097	1	0
632.266	1	0
632.436	1	4
632.606	1	1
632.775	1	6
632.945	1	6
633.114	1	10
633.284	1	-2
633.453	1	3
633.623	1	3
633.793	1	6
633.962	1	7
634.132	1	6
634.301	1	5
634.471	1	5
634.640	1	7
634.810	1	5
634.979	1	8
635.149	1	10
635.319	1	6
635.488	1	3
635.658	1	2
635.827	1	-7
635.997	1	4
636.166	1	8
636.336	1	4
636.505	1	5
636.675	1	-4
636.845	1	8
637.014	1	6
637.184	1	6
637.353	1	3
637.523	1	9
637.692	1	5
637.862	1	4
638.031	1	5
638.201	1	8
638.370	1	2
638.540	1	2
638.710	1	0
638.879	1	-3
639.049	1	10
639.218	1	6
639.388	1	4
639.557	1	-10
639.727	1	10
639.896	1	-7
640.066	1	3
640.235	1	12
640.405	1	6
640.574	1	0
640.744	1	-3
640.914	1	5
641.083	1	-1
641.253	1	1
641.422	1	4
641.592	1	19
641.761	1	-2
641.931	1	-4
642.100	1	20
642.270	1	0
642.439	1	10
642.609	1	13
642.778	1	2
642.948	1	-6
643.117	1	9
643.287	1	7
643.456	1	5
643.626	1	13
643.795	1	7
643.965	1	8
644.134	1	8
644.304	1	5
644.473	1	-1
644.643	1	8
644.812	1	4
644.982	1	9
645.151	1	9
645.321	1	3
645.490	1	12
645.660	1	-4
645.829	1	-1
645.999	1	-4
646.168	1	15
646.338	1	7
646.507	1	9
646.677	1	8
646.846	1	5
647.016	1	-3
647.185	1	7
647.355	1	-10
647.524	1	12
647.694	1	15
647.863	1	4
648.033	1	4
648.202	1	10
648.372	1	-2
648.541	1	3
648.711	1	4
648.880	1	2
649.050	1	3
649.219	1	2
649.389	1	15
649.558	1	3
649.728	1	5
649.897	1	-2
650.067	1	15
650.236	1	2
650.406	1	11
650.575	1	4
650.745	1	16
650.914	1	-7
651.084	1	0
651.253	1	7
651.423	1	4
651.592	1	6
651.762	1	-2
651.931	1	12
652.101	1	10
652.270	1	14
652.440	1	12
652.609	1	3
652.778	1	-1
652.948	1	10
653.117	1	7
653.287	1	6
653.456	1	5
653.626	1	9
653.795	1	3
653.965	1	10
654.134	1	13
654.304	1	-6
654.473	1	12
654.643	1	3
654.812	1	6
654.982	1	11
655.151	1	0
655.320	1	0
655.490	1	-3
655.659	1	4
655.829	1	4
655.998	1	-1
656.168	1	2
656.337	1	7
656.507	1	5
656.676	1	7
656.846	1	6
657.015	1	8
657.184	1	14
657.354	1	7
657.523	1	3
657.693	1	2
657.862	1	2
658.032	1	8
658.201	1	1
658.371	1	15
658.540	1	7
658.709	1	1
658.879	1	6
659.048	1	2
659.218	1	1
659.387	1	4
659.557	1	4
659.726	1	4
659.895	1	1
660.065	1	6
660.234	1	1
660.404	1	9
660.573	1	5
660.743	1	9
660.912	1	7
661.081	1	12
661.251	1	-3
661.420	1	4
661.590	1	0
661.759	1	8
661.929	1	3
662.098	1	9
662.267	1	3
662.437	1	9
662.606	1	7
662.776	1	2
662.945	1	-2
663.115	1	2
663.284	1	-2
663.453	1	0
663.623	1	1
663.792	1	10
663.962	1	-1
664.131	1	4
664.300	1	7
664.470	1	2
664.639	1	4
664.809	1	5
664.978	1	17
665.148	1	8
665.317	1	7
665.486	1	7
665.656	1	-2
665.825	1	10
665.995	1	1
666.164	1	5
666.333	1	4
666.503	1	1
666.672	1	0
666.842	1	-3
667.011	1	9
667.180	1	22
667.350	1	8
667.519	1	0
667.689	1	6
667.858	1	8
668.027	1	7
668.197	1	-1
668.366	1	2
668.536	1	12
668.705	1	6
668.874	1	-1
669.044	1	11
669.213	1	7
669.382	1	-5
669.552	1	10
669.721	1	3
669.891	1	17
670.060	1	12
670.229	1	26
670.399	1	5
670.568	1	16
670.738	1	19
670.907	1	-1
671.076	1	6
671.246	1	0
671.415	1	2
671.584	1	0
671.754	1	1
671.923	1	0
672.093	1	4
672.262	1	4
672.431	1	6
672.601	1	4
672.770	1	0
672.939	1	7
673.109	1	-1
673.278	1	11
673.448	1	12
673.617	1	0
673.786	1	12
