325.333	1	23
325.504	1	16
325.675	1	17
325.846	1	11
326.017	1	10
326.188	1	16
326.359	1	8
326.531	1	6
326.702	1	5
326.873	1	26
327.044	1	5
327.215	1	24
327.386	1	24
327.557	1	6
327.728	1	20
327.899	1	8
328.070	1	25
328.241	1	19
328.412	1	13
328.583	1	20
328.754	1	19
328.926	1	23
329.097	1	13
329.268	1	25
329.439	1	13
329.610	1	17
329.781	1	8
329.952	1	24
330.123	1	26
330.294	1	19
330.465	1	18
330.636	1	19
330.807	1	12
330.978	1	19
331.149	1	15
331.320	1	15
331.492	1	13
331.663	1	12
331.834	1	26
332.005	1	18
332.176	1	32
332.347	1	29
332.518	1	13
332.689	1	29
332.860	1	18
333.031	1	29
333.202	1	19
333.373	1	29
333.544	1	20
333.715	1	31
333.886	1	24
334.057	1	24
334.228	1	19
334.399	1	33
334.570	1	23
334.741	1	4
334.912	1	33
335.084	1	36
335.255	1	27
335.426	1	24
335.597	1	19
335.768	1	30
335.939	1	36
336.110	1	20
336.281	1	21
336.452	1	23
336.623	1	31
336.794	1	30
336.965	1	34
337.136	1	28
337.307	1	30
337.478	1	32
337.649	1	25
337.820	1	18
337.991	1	28
338.162	1	35
338.333	1	21
338.504	1	40
338.675	1	33
338.846	1	33
339.017	1	35
339.188	1	28
339.359	1	23
339.530	1	22
339.701	1	42
339.872	1	44
340.043	1	24
340.214	1	34
340.385	1	48
340.556	1	29
340.727	1	30
340.898	1	33
341.069	1	33
341.240	1	14
341.411	1	32
341.582	1	39
341.753	1	24
341.924	1	38
342.095	1	41
342.266	1	47
342.437	1	45
342.608	1	28
342.779	1	51
342.950	1	43
343.121	1	50
343.292	1	38
343.463	1	36
343.634	1	39
343.805	1	44
343.976	1	37
344.147	1	37
344.318	1	52
344.489	1	51
344.660	1	52
344.831	1	45
345.002	1	36
345.173	1	35
345.344	1	49
345.515	1	33
345.686	1	35
345.857	1	38
346.028	1	54
346.199	1	39
346.370	1	39
346.541	1	50
346.712	1	39
346.883	1	50
347.054	1	40
347.225	1	46
347.396	1	51
347.567	1	48
347.738	1	29
347.909	1	60
348.080	1	41
348.251	1	49
348.422	1	49
348.593	1	49
348.764	1	46
348.935	1	41
349.106	1	39
349.277	1	47
349.448	1	49
349.619	1	42
349.790	1	51
349.961	1	51
350.132	1	52
350.303	1	54
350.474	1	58
350.645	1	54
350.816	1	47
350.987	1	60
351.157	1	35
351.328	1	63
351.499	1	53
351.670	1	54
351.841	1	54
352.012	1	59
352.183	1	57
352.354	1	57
352.525	1	59
352.696	1	60
352.867	1	53
353.038	1	65
353.209	1	57
353.380	1	55
353.551	1	50
353.722	1	55
353.893	1	46
354.064	1	67
354.235	1	69
354.406	1	47
354.576	1	48
354.747	1	57
354.918	1	64
355.089	1	61
355.260	1	65
355.431	1	57
355.602	1	53
355.773	1	47
355.944	1	58
356.115	1	63
356.286	1	57
356.457	1	73
356.628	1	59
356.799	1	61
356.970	1	65
357.141	1	58
357.311	1	62
357.482	1	59
357.653	1	57
357.824	1	68
357.995	1	61
358.166	1	48
358.337	1	66
358.508	1	68
358.679	1	58
358.850	1	68
359.021	1	61
359.192	1	68
359.363	1	66
359.533	1	61
359.704	1	68
359.875	1	67
360.046	1	73
360.217	1	60
360.388	1	69
360.559	1	59
360.730	1	71
360.901	1	65
361.072	1	68
361.243	1	70
361.414	1	65
361.584	1	62
361.755	1	60
361.926	1	64
362.097	1	73
362.268	1	65
362.439	1	62
362.610	1	73
362.781	1	58
362.952	1	59
363.123	1	63
363.293	1	50
363.464	1	77
363.635	1	65
363.806	1	57
363.977	1	63
364.148	1	62
364.319	1	76
364.490	1	62
364.661	1	75
364.832	1	73
365.002	1	73
365.173	1	63
365.344	1	73
365.515	1	72
365.686	1	62
365.857	1	71
366.028	1	75
366.199	1	68
366.370	1	70
366.540	1	70
366.711	1	57
366.882	1	67
367.053	1	65
367.224	1	83
367.395	1	77
367.566	1	71
367.737	1	78
367.908	1	71
368.078	1	76
368.249	1	71
368.420	1	71
368.591	1	67
368.762	1	71
368.933	1	60
369.104	1	61
369.274	1	73
369.445	1	74
369.616	1	67
369.787	1	70
369.958	1	77
370.129	1	77
370.300	1	74
370.471	1	65
370.641	1	66
370.812	1	72
370.983	1	68
371.154	1	71
371.325	1	78
371.496	1	79
371.667	1	78
371.837	1	77
372.008	1	76
372.179	1	67
372.350	1	83
372.521	1	67
372.692	1	70
372.863	1	76
373.033	1	58
373.204	1	68
373.375	1	75
373.546	1	74
373.717	1	68
373.888	1	80
374.059	1	85
374.229	1	91
374.400	1	65
374.571	1	78
374.742	1	72
374.913	1	75
375.084	1	72
375.254	1	82
375.425	1	81
375.596	1	87
375.767	1	70
375.938	1	70
376.109	1	80
376.279	1	77
376.450	1	83
376.621	1	85
376.792	1	78
376.963	1	78
377.134	1	83
377.304	1	83
377.475	1	76
377.646	1	74
377.817	1	79
377.988	1	74
378.159	1	81
378.329	1	94
378.500	1	78
378.671	1	83
378.842	1	75
379.013	1	76
379.184	1	79
379.354	1	97
379.525	1	74
379.696	1	87
379.867	1	88
380.038	1	75
380.209	1	84
380.379	1	89
380.550	1	71
380.721	1	94
380.892	1	79
381.063	1	84
381.233	1	83
381.404	1	81
381.575	1	100
381.746	1	84
381.917	1	89
382.087	1	79
382.258	1	84
382.429	1	88
382.600	1	100
382.771	1	80
382.941	1	79
383.112	1	91
383.283	1	95
383.454	1	95
383.625	1	74
383.795	1	71
383.966	1	83
384.137	1	100
384.308	1	102
384.479	1	92
384.649	1	96
384.820	1	91
384.991	1	96
385.162	1	92
385.333	1	86
385.503	1	91
385.674	1	87
385.845	1	109
386.016	1	93
386.187	1	95
386.357	1	98
386.528	1	96
386.699	1	92
386.870	1	109
387.041	1	94
387.211	1	91
387.382	1	100
387.553	1	100
387.724	1	94
387.894	1	94
388.065	1	102
388.236	1	96
388.407	1	83
388.578	1	93
388.748	1	91
388.919	1	98
389.090	1	94
389.261	1	103
389.431	1	98
389.602	1	97
389.773	1	106
389.944	1	109
390.114	1	94
390.285	1	90
390.456	1	87
390.627	1	105
390.798	1	98
390.968	1	88
391.139	1	107
391.310	1	91
391.481	1	93
391.651	1	100
391.822	1	100
391.993	1	93
392.164	1	89
392.334	1	98
392.505	1	98
392.676	1	103
392.847	1	106
393.017	1	107
393.188	1	100
393.359	1	96
393.530	1	99
393.700	1	105
393.871	1	92
394.042	1	96
394.213	1	109
394.383	1	106
394.554	1	112
394.725	1	101
394.896	1	97
395.066	1	104
395.237	1	98
395.408	1	98
395.579	1	101
395.749	1	107
395.920	1	98
396.091	1	113
396.262	1	103
396.432	1	105
396.603	1	118
396.774	1	113
396.945	1	100
397.115	1	102
397.286	1	116
397.457	1	99
397.627	1	109
397.798	1	119
397.969	1	101
398.140	1	109
398.310	1	108
398.481	1	105
398.652	1	100
398.823	1	111
398.993	1	105
399.164	1	112
399.335	1	121
399.505	1	105
399.676	1	103
399.847	1	124
400.018	1	117
400.188	1	109
400.359	1	102
400.530	1	108
400.700	1	102
400.871	1	112
401.042	1	102
401.213	1	111
401.383	1	109
401.554	1	109
401.725	1	115
401.895	1	101
402.066	1	112
402.237	1	109
402.408	1	120
402.578	1	110
402.749	1	109
402.920	1	109
403.090	1	98
403.261	1	110
403.432	1	110
403.603	1	107
403.773	1	115
403.944	1	111
404.115	1	113
404.285	1	109
404.456	1	102
404.627	1	111
404.797	1	95
404.968	1	101
405.139	1	109
405.310	1	120
405.480	1	113
405.651	1	106
405.822	1	113
405.992	1	104
406.163	1	102
406.334	1	94
406.504	1	104
406.675	1	115
406.846	1	116
407.016	1	113
407.187	1	110
407.358	1	100
407.528	1	115
407.699	1	96
407.870	1	106
408.041	1	116
408.211	1	108
408.382	1	107
408.553	1	95
408.723	1	121
408.894	1	111
409.065	1	113
409.235	1	114
409.406	1	116
409.577	1	102
409.747	1	119
409.918	1	97
410.089	1	115
410.259	1	122
410.430	1	115
410.601	1	118
410.771	1	121
410.942	1	115
411.113	1	110
411.283	1	103
411.454	1	113
411.625	1	113
411.795	1	112
411.966	1	104
412.137	1	113
412.307	1	110
412.478	1	115
412.649	1	108
412.819	1	112
412.990	1	103
413.161	1	108
413.331	1	107
413.502	1	113
413.672	1	107
413.843	1	107
414.014	1	105
414.184	1	115
414.355	1	110
414.526	1	103
414.696	1	130
414.867	1	104
415.038	1	97
415.208	1	117
415.379	1	117
415.550	1	108
415.720	1	94
415.891	1	118
416.062	1	111
416.232	1	107
416.403	1	107
416.573	1	115
416.744	1	103
416.915	1	120
417.085	1	109
417.256	1	101
417.427	1	104
417.597	1	121
417.768	1	104
417.939	1	110
418.109	1	107
418.280	1	128
418.450	1	111
418.621	1	94
418.792	1	101
418.962	1	111
419.133	1	117
419.304	1	105
419.474	1	96
419.645	1	105
419.815	1	104
419.986	1	109
420.157	1	109
420.327	1	105
420.498	1	115
420.669	1	101
420.839	1	125
421.010	1	113
421.180	1	105
421.351	1	112
421.522	1	103
421.692	1	99
421.863	1	107
422.033	1	107
422.204	1	109
422.375	1	104
422.545	1	123
422.716	1	111
422.886	1	104
423.057	1	102
423.228	1	106
423.398	1	105
423.569	1	112
423.740	1	94
423.910	1	97
424.081	1	93
424.251	1	102
424.422	1	111
424.593	1	88
424.763	1	107
424.934	1	107
425.104	1	89
425.275	1	109
425.445	1	107
425.616	1	92
425.787	1	86
425.957	1	107
426.128	1	109
426.298	1	95
426.469	1	90
426.640	1	95
426.810	1	105
426.981	1	103
427.151	1	95
427.322	1	111
427.493	1	100
427.663	1	102
427.834	1	88
428.004	1	110
428.175	1	90
428.345	1	92
428.516	1	93
428.687	1	105
428.857	1	96
429.028	1	96
429.198	1	100
429.369	1	109
429.540	1	95
429.710	1	82
429.881	1	91
430.051	1	89
430.222	1	93
430.392	1	106
430.563	1	102
430.734	1	106
430.904	1	108
431.075	1	100
431.245	1	101
431.416	1	99
431.586	1	113
431.757	1	93
431.927	1	99
432.098	1	105
432.269	1	93
432.439	1	96
432.610	1	103
432.780	1	105
432.951	1	101
433.121	1	103
433.292	1	102
433.462	1	103
433.633	1	98
433.804	1	99
433.974	1	102
434.145	1	114
434.315	1	85
434.486	1	79
434.656	1	107
434.827	1	96
434.997	1	90
435.168	1	103
435.339	1	101
435.509	1	101
435.680	1	106
435.850	1	99
436.021	1	102
436.191	1	84
436.362	1	104
436.532	1	93
436.703	1	102
436.873	1	92
437.044	1	84
437.214	1	87
437.385	1	89
437.556	1	90
437.726	1	104
437.897	1	92
438.067	1	92
438.238	1	83
438.408	1	90
438.579	1	84
438.749	1	86
438.920	1	91
439.090	1	85
439.261	1	87
439.431	1	83
439.602	1	78
439.772	1	74
439.943	1	101
440.113	1	93
440.284	1	87
440.455	1	86
440.625	1	81
440.796	1	93
440.966	1	82
441.137	1	82
441.307	1	80
441.478	1	86
441.648	1	81
441.819	1	85
441.989	1	89
442.160	1	91
442.330	1	78
442.501	1	78
442.671	1	92
442.842	1	82
443.012	1	76
443.183	1	102
443.353	1	67
443.524	1	94
443.694	1	84
443.865	1	81
444.035	1	83
444.206	1	81
444.376	1	67
444.547	1	100
444.717	1	87
444.888	1	72
445.058	1	90
445.229	1	85
445.399	1	82
445.570	1	79
445.740	1	75
445.911	1	88
446.081	1	68
446.252	1	91
446.422	1	77
446.593	1	79
446.763	1	83
446.934	1	73
447.104	1	76
447.275	1	77
447.445	1	83
447.616	1	85
447.786	1	84
447.957	1	76
448.127	1	77
448.298	1	73
448.468	1	78
448.639	1	80
448.809	1	75
448.979	1	74
449.150	1	84
449.320	1	87
449.491	1	70
449.661	1	79
449.832	1	74
450.002	1	91
450.173	1	83
450.343	1	68
450.514	1	79
450.684	1	78
450.855	1	72
451.025	1	80
451.196	1	78
451.366	1	73
451.537	1	79
451.707	1	63
451.878	1	73
452.048	1	82
452.218	1	83
452.389	1	83
452.559	1	76
452.730	1	85
452.900	1	86
453.071	1	68
453.241	1	69
453.412	1	77
453.582	1	63
453.753	1	71
453.923	1	73
454.093	1	73
454.264	1	76
454.434	1	73
454.605	1	68
454.775	1	78
454.946	1	62
455.116	1	72
455.287	1	62
455.457	1	63
455.628	1	68
455.798	1	72
455.968	1	69
456.139	1	62
456.309	1	65
456.480	1	65
456.650	1	70
456.821	1	57
456.991	1	68
457.161	1	69
457.332	1	80
457.502	1	57
457.673	1	72
457.843	1	77
458.014	1	68
458.184	1	63
458.355	1	67
458.525	1	65
458.695	1	75
458.866	1	65
459.036	1	72
459.207	1	55
459.377	1	58
459.548	1	74
459.718	1	59
459.888	1	65
460.059	1	65
460.229	1	66
460.400	1	74
460.570	1	62
460.740	1	61
460.911	1	67
461.081	1	72
461.252	1	61
461.422	1	67
461.593	1	60
461.763	1	71
461.933	1	65
462.104	1	69
462.274	1	61
462.445	1	65
462.615	1	63
462.785	1	59
462.956	1	76
463.126	1	66
463.297	1	62
463.467	1	58
463.638	1	63
463.808	1	60
463.978	1	62
464.149	1	62
464.319	1	62
464.490	1	71
464.660	1	52
464.830	1	51
465.001	1	67
465.171	1	68
465.342	1	72
465.512	1	46
465.682	1	55
465.853	1	72
466.023	1	57
466.194	1	55
466.364	1	64
466.534	1	71
466.705	1	59
466.875	1	57
467.045	1	52
467.216	1	71
467.386	1	51
467.557	1	42
467.727	1	41
467.897	1	57
468.068	1	55
468.238	1	55
468.409	1	43
468.579	1	60
468.749	1	50
468.920	1	53
469.090	1	57
469.260	1	52
469.431	1	54
469.601	1	64
469.772	1	62
469.942	1	48
470.112	1	60
470.283	1	54
470.453	1	54
470.623	1	45
470.794	1	47
470.964	1	58
471.135	1	69
471.305	1	40
471.475	1	54
471.646	1	56
471.816	1	48
471.986	1	49
472.157	1	57
472.327	1	47
472.497	1	51
472.668	1	43
472.838	1	48
473.009	1	57
473.179	1	43
473.349	1	48
473.520	1	46
473.690	1	61
473.860	1	60
474.031	1	52
474.201	1	59
474.371	1	56
474.542	1	56
474.712	1	53
474.882	1	52
475.053	1	60
475.223	1	41
475.394	1	58
475.564	1	56
475.734	1	57
475.905	1	55
476.075	1	43
476.245	1	59
476.416	1	52
476.586	1	65
476.756	1	54
476.927	1	58
477.097	1	45
477.267	1	44
477.438	1	52
477.608	1	47
477.778	1	51
477.949	1	52
478.119	1	62
478.289	1	52
478.460	1	59
478.630	1	56
478.800	1	49
478.971	1	50
479.141	1	49
479.311	1	38
479.482	1	43
479.652	1	41
479.822	1	49
479.993	1	48
480.163	1	59
480.333	1	47
480.504	1	55
480.674	1	45
480.844	1	40
481.015	1	53
481.185	1	41
481.355	1	56
481.525	1	49
481.696	1	42
481.866	1	51
482.036	1	55
482.207	1	39
482.377	1	47
482.547	1	55
482.718	1	42
482.888	1	56
483.058	1	42
483.229	1	38
483.399	1	41
483.569	1	46
483.740	1	47
483.910	1	42
484.080	1	44
484.250	1	44
484.421	1	44
484.591	1	46
484.761	1	54
484.932	1	53
485.102	1	39
485.272	1	48
485.443	1	60
485.613	1	47
485.783	1	32
485.953	1	42
486.124	1	34
486.294	1	49
486.464	1	37
486.635	1	41
486.805	1	61
486.975	1	41
487.146	1	50
487.316	1	26
487.486	1	37
487.656	1	45
487.827	1	23
487.997	1	38
488.167	1	44
488.338	1	44
488.508	1	42
488.678	1	37
488.848	1	46
489.019	1	40
489.189	1	43
489.359	1	31
489.529	1	38
489.700	1	34
489.870	1	52
490.040	1	36
490.211	1	28
490.381	1	41
490.551	1	45
490.721	1	48
490.892	1	38
491.062	1	41
491.232	1	37
491.402	1	39
491.573	1	25
491.743	1	34
491.913	1	38
492.084	1	46
492.254	1	34
492.424	1	37
492.594	1	39
492.765	1	40
492.935	1	32
493.105	1	42
493.275	1	33
493.446	1	32
493.616	1	43
493.786	1	40
493.956	1	21
494.127	1	36
494.297	1	33
494.467	1	32
494.637	1	31
494.808	1	30
494.978	1	32
495.148	1	30
495.318	1	34
495.489	1	46
495.659	1	38
495.829	1	38
495.999	1	31
496.170	1	50
496.340	1	40
496.510	1	35
496.680	1	25
496.851	1	31
497.021	1	40
497.191	1	27
497.361	1	39
497.532	1	21
497.702	1	45
497.872	1	39
498.042	1	47
498.213	1	37
498.383	1	32
498.553	1	31
498.723	1	34
498.894	1	33
499.064	1	39
499.234	1	34
499.404	1	42
499.574	1	43
499.745	1	44
499.915	1	32
500.085	1	33
500.255	1	40
500.426	1	30
500.596	1	34
500.766	1	24
500.936	1	38
501.106	1	25
501.277	1	26
501.447	1	34
501.617	1	34
501.787	1	27
501.958	1	38
502.128	1	21
502.298	1	23
502.468	1	29
502.638	1	31
502.809	1	33
502.979	1	19
503.149	1	16
503.319	1	21
503.489	1	22
503.660	1	27
503.830	1	23
504.000	1	37
504.170	1	24
504.340	1	20
504.511	1	38
504.681	1	22
504.851	1	37
505.021	1	32
505.192	1	16
505.362	1	43
505.532	1	37
505.702	1	21
505.872	1	31
506.043	1	29
506.213	1	10
506.383	1	16
506.553	1	35
506.723	1	28
506.893	1	20
507.064	1	32
507.234	1	21
507.404	1	22
507.574	1	25
507.744	1	23
507.915	1	23
508.085	1	26
508.255	1	25
508.425	1	15
508.595	1	25
508.766	1	25
508.936	1	18
509.106	1	33
509.276	1	30
509.446	1	18
509.616	1	25
509.787	1	27
509.957	1	24
510.127	1	25
510.297	1	24
510.467	1	15
510.638	1	28
510.808	1	12
510.978	1	13
511.148	1	37
511.318	1	20
511.488	1	11
511.659	1	25
511.829	1	11
511.999	1	24
512.169	1	23
512.339	1	17
512.509	1	19
512.680	1	26
512.850	1	24
513.020	1	23
513.190	1	28
513.360	1	10
513.530	1	23
513.700	1	22
513.871	1	22
514.041	1	18
514.211	1	31
514.381	1	26
514.551	1	28
514.721	1	13
514.892	1	29
515.062	1	17
515.232	1	19
515.402	1	15
515.572	1	22
515.742	1	22
515.912	1	21
516.083	1	11
516.253	1	39
516.423	1	24
516.593	1	25
516.763	1	33
516.933	1	14
517.104	1	21
517.274	1	18
517.444	1	19
517.614	1	9
517.784	1	21
517.954	1	26
518.124	1	27
518.294	1	16
518.465	1	13
518.635	1	13
518.805	1	16
518.975	1	16
519.145	1	18
519.315	1	14
519.485	1	20
519.656	1	31
519.826	1	19
519.996	1	5
520.166	1	12
520.336	1	30
520.506	1	18
520.676	1	13
520.846	1	22
521.017	1	16
521.187	1	11
521.357	1	23
521.527	1	20
521.697	1	18
521.867	1	9
522.037	1	28
522.207	1	26
522.377	1	17
522.548	1	18
522.718	1	17
522.888	1	31
523.058	1	15
523.228	1	19
523.398	1	22
523.568	1	25
523.738	1	19
523.909	1	30
524.079	1	20
524.249	1	25
524.419	1	19
524.589	1	26
524.759	1	14
524.929	1	12
525.099	1	8
525.269	1	20
525.439	1	17
525.610	1	25
525.780	1	17
525.950	1	27
526.120	1	5
526.290	1	17
526.460	1	16
526.630	1	19
526.800	1	9
526.970	1	14
527.140	1	25
527.311	1	16
527.481	1	13
527.651	1	28
527.821	1	8
527.991	1	27
528.161	1	32
528.331	1	19
528.501	1	20
528.671	1	12
528.841	1	15
529.011	1	11
529.181	1	20
529.352	1	12
529.522	1	17
529.692	1	16
529.862	1	17
530.032	1	23
530.202	1	23
530.372	1	17
530.542	1	11
530.712	1	17
530.882	1	21
531.052	1	21
531.222	1	14
531.392	1	12
531.563	1	27
531.733	1	19
531.903	1	15
532.073	1	18
532.243	1	16
532.413	1	17
532.583	1	11
532.753	1	21
532.923	1	6
533.093	1	8
533.263	1	12
533.433	1	5
533.603	1	24
533.773	1	17
533.943	1	10
534.113	1	12
534.284	1	17
534.454	1	21
534.624	1	21
534.794	1	3
534.964	1	18
535.134	1	4
535.304	1	14
535.474	1	27
535.644	1	6
535.814	1	10
535.984	1	10
536.154	1	8
536.324	1	9
536.494	1	14
536.664	1	24
536.834	1	12
537.004	1	9
537.174	1	15
537.344	1	15
537.514	1	6
537.685	1	11
537.855	1	20
538.025	1	22
538.195	1	16
538.365	1	27
538.535	1	11
538.705	1	19
538.875	1	10
539.045	1	14
539.215	1	15
539.385	1	9
539.555	1	19
539.725	1	2
539.895	1	19
540.065	1	28
540.235	1	15
540.405	1	7
540.575	1	20
540.745	1	16
540.915	1	16
541.085	1	24
541.255	1	6
541.425	1	14
541.595	1	15
541.765	1	15
541.935	1	5
542.105	1	11
542.275	1	14
542.445	1	8
542.615	1	15
542.785	1	24
542.955	1	12
543.125	1	0
543.295	1	14
543.465	1	12
543.635	1	14
543.805	1	23
543.975	1	11
544.145	1	22
544.315	1	12
544.485	1	13
544.655	1	6
544.825	1	2
544.995	1	10
545.165	1	10
545.335	1	14
545.505	1	9
545.675	1	19
545.845	1	14
546.015	1	18
546.185	1	22
546.355	1	18
546.525	1	18
546.695	1	13
546.865	1	0
547.035	1	18
547.205	1	3
547.375	1	12
547.545	1	20
547.715	1	5
547.885	1	5
548.055	1	10
548.225	1	9
548.395	1	6
548.565	1	12
548.735	1	14
548.905	1	5
549.075	1	9
549.245	1	13
549.415	1	15
549.585	1	16
549.755	1	14
549.925	1	-2
550.095	1	12
550.265	1	16
550.435	1	8
550.605	1	2
550.775	1	13
550.945	1	17
551.115	1	10
551.285	1	22
551.455	1	9
551.625	1	16
551.795	1	22
551.965	1	12
552.135	1	7
552.305	1	5
552.475	1	7
552.645	1	6
552.815	1	7
552.985	1	17
553.155	1	8
553.325	1	12
553.495	1	3
553.665	1	9
553.835	1	11
554.004	1	9
554.174	1	2
554.344	1	13
554.514	1	9
554.684	1	16
554.854	1	10
555.024	1	1
555.194	1	2
555.364	1	6
555.534	1	13
555.704	1	8
555.874	1	17
556.044	1	15
556.214	1	6
556.384	1	3
556.554	1	24
556.724	1	18
556.894	1	9
557.064	1	10
557.234	1	8
557.404	1	8
557.573	1	6
557.743	1	5
557.913	1	4
558.083	1	7
558.253	1	24
558.423	1	4
558.593	1	4
558.763	1	2
558.933	1	9
559.103	1	11
559.273	1	8
559.443	1	7
559.613	1	23
559.783	1	3
559.953	1	9
560.122	1	15
560.292	1	5
560.462	1	6
560.632	1	10
560.802	1	9
560.972	1	8
561.142	1	9
561.312	1	-2
561.482	1	14
561.652	1	12
561.822	1	-2
561.992	1	4
562.162	1	9
562.331	1	17
562.501	1	-2
562.671	1	5
562.841	1	2
563.011	1	8
563.181	1	8
563.351	1	9
563.521	1	22
563.691	1	2
563.861	1	6
564.031	1	12
564.201	1	18
564.370	1	-1
564.540	1	11
564.710	1	6
564.880	1	14
565.050	1	13
565.220	1	2
565.390	1	15
565.560	1	10
565.730	1	9
565.900	1	10
566.069	1	14
566.239	1	11
566.409	1	15
566.579	1	23
566.749	1	9
566.919	1	12
567.089	1	0
567.259	1	16
567.429	1	4
567.599	1	11
567.768	1	3
567.938	1	0
568.108	1	2
568.278	1	4
568.448	1	0
568.618	1	3
568.788	1	3
568.958	1	5
569.128	1	8
569.297	1	1
569.467	1	12
569.637	1	15
569.807	1	10
569.977	1	17
570.147	1	18
570.317	1	6
570.487	1	6
570.656	1	11
570.826	1	-1
570.996	1	-1
571.166	1	19
571.336	1	9
571.506	1	14
571.676	1	12
571.846	1	13
572.015	1	13
572.185	1	7
572.355	1	12
572.525	1	7
572.695	1	1
572.865	1	2
573.035	1	6
573.205	1	14
573.374	1	4
573.544	1	12
573.714	1	11
573.884	1	10
574.054	1	2
574.224	1	6
574.394	1	6
574.563	1	2
574.733	1	-4
574.903	1	10
575.073	1	10
575.243	1	-5
575.413	1	7
575.583	1	-3
575.752	1	7
575.922	1	16
576.092	1	9
576.262	1	13
576.432	1	11
576.602	1	-1
576.772	1	13
576.941	1	15
577.111	1	6
577.281	1	-1
577.451	1	-1
577.621	1	11
577.791	1	11
577.960	1	0
578.130	1	-1
578.300	1	8
578.470	1	15
578.640	1	12
578.810	1	2
578.979	1	19
579.149	1	2
579.319	1	-4
579.489	1	0
579.659	1	4
579.829	1	14
579.998	1	17
580.168	1	23
580.338	1	16
580.508	1	1
580.678	1	12
580.848	1	-1
581.017	1	2
581.187	1	4
581.357	1	1
581.527	1	10
581.697	1	7
581.867	1	7
582.036	1	16
582.206	1	12
582.376	1	18
582.546	1	-4
582.716	1	0
582.885	1	2
583.055	1	14
583.225	1	1
583.395	1	8
583.565	1	7
583.735	1	14
583.904	1	13
584.074	1	8
584.244	1	12
584.414	1	11
584.584	1	14
584.753	1	12
584.923	1	3
585.093	1	12
585.263	1	0
585.433	1	8
585.602	1	6
585.772	1	9
585.942	1	12
586.112	1	4
586.282	1	1
586.451	1	3
586.621	1	7
586.791	1	1
586.961	1	6
587.131	1	9
587.300	1	-1
587.470	1	10
587.640	1	13
587.810	1	1
587.980	1	4
588.149	1	5
588.319	1	7
588.489	1	15
588.659	1	10
588.829	1	8
588.998	1	19
589.168	1	13
589.338	1	9
589.508	1	6
589.677	1	-3
589.847	1	-3
590.017	1	20
590.187	1	1
590.357	1	13
590.526	1	20
590.696	1	14
590.866	1	9
591.036	1	8
591.205	1	15
591.375	1	8
591.545	1	2
591.715	1	13
591.885	1	4
592.054	1	7
592.224	1	10
592.394	1	6
592.564	1	3
592.733	1	6
592.903	1	2
593.073	1	13
593.243	1	10
593.412	1	15
593.582	1	4
593.752	1	3
593.922	1	7
594.091	1	10
594.261	1	9
594.431	1	6
594.601	1	8
594.771	1	11
594.940	1	-3
595.110	1	3
595.280	1	15
595.450	1	2
595.619	1	1
595.789	1	0
595.959	1	10
596.129	1	2
596.298	1	7
596.468	1	5
596.638	1	6
596.808	1	0
596.977	1	9
597.147	1	6
597.317	1	1
597.487	1	13
597.656	1	17
597.826	1	6
597.996	1	11
598.166	1	2
598.335	1	-1
598.505	1	7
598.675	1	11
598.844	1	5
599.014	1	1
599.184	1	4
599.354	1	2
599.523	1	14
599.693	1	0
599.863	1	-2
600.033	1	15
600.202	1	6
600.372	1	2
600.542	1	16
600.712	1	3
600.881	1	7
601.051	1	12
601.221	1	14
601.390	1	6
601.560	1	13
601.730	1	13
601.900	1	12
602.069	1	12
602.239	1	0
602.409	1	4
602.578	1	6
602.748	1	5
602.918	1	13
603.088	1	15
603.257	1	16
603.427	1	1
603.597	1	1
603.767	1	10
603.936	1	11
604.106	1	13
604.276	1	4
604.445	1	15
604.615	1	8
604.785	1	1
604.954	1	6
605.124	1	12
605.294	1	8
605.464	1	7
605.633	1	12
605.803	1	18
605.973	1	9
606.142	1	5
606.312	1	9
606.482	1	14
606.652	1	21
606.821	1	-7
606.991	1	13
607.161	1	9
607.330	1	19
607.500	1	18
607.670	1	5
607.839	1	16
608.009	1	17
608.179	1	3
608.348	1	9
608.518	1	3
608.688	1	16
608.858	1	7
609.027	1	4
609.197	1	12
609.367	1	8
609.536	1	10
609.706	1	4
609.876	1	5
610.045	1	2
610.215	1	14
610.385	1	8
610.554	1	11
610.724	1	7
610.894	1	10
611.063	1	7
611.233	1	9
611.403	1	6
611.572	1	12
611.742	1	4
611.912	1	12
612.081	1	8
612.251	1	13
612.421	1	1
612.590	1	12
612.760	1	5
612.930	1	10
613.099	1	14
613.269	1	24
613.439	1	5
613.608	1	5
613.778	1	8
613.948	1	6
614.117	1	7
614.287	1	19
614.457	1	16
614.626	1	12
614.796	1	17
614.966	1	11
615.135	1	11
615.305	1	8
615.475	1	13
615.644	1	9
615.814	1	9
615.984	1	7
616.153	1	6
616.323	1	6
616.493	1	7
616.662	1	19
616.832	1	21
617.002	1	9
617.171	1	12
617.341	1	8
617.511	1	1
617.680	1	4
617.850	1	10
618.019	1	20
618.189	1	17
618.359	1	8
618.528	1	10
618.698	1	10
618.868	1	11
619.037	1	2
619.207	1	3
619.377	1	12
619.546	1	11
619.716	1	15
619.885	1	10
620.055	1	-1
620.225	1	14
620.394	1	7
620.564	1	19
620.734	1	8
620.903	1	-4
621.073	1	14
621.242	1	15
621.412	1	0
621.582	1	10
621.751	1	17
621.921	1	19
622.091	1	5
622.260	1	5
622.430	1	18
622.599	1	7
622.769	1	23
622.939	1	14
623.108	1	10
623.278	1	3
623.448	1	8
623.617	1	19
623.787	1	6
623.956	1	15
624.126	1	7
624.296	1	6
624.465	1	11
624.635	1	19
624.804	1	12
624.974	1	19
625.144	1	14
625.313	1	0
625.483	1	4
625.652	1	14
625.822	1	16
625.992	1	7
626.161	1	22
626.331	1	11
626.501	1	19
626.670	1	14
626.840	1	2
627.009	1	4
627.179	1	17
627.348	1	13
627.518	1	16
627.688	1	14
627.857	1	19
628.027	1	4
628.196	1	11
628.366	1	17
628.536	1	21
628.705	1	11
628.875	1	13
629.044	1	12
629.214	1	17
629.384	1	9
629.553	1	21
629.723	1	9
629.892	1	12
630.062	1	9
630.232	1	8
630.401	1	15
630.571	1	16
630.740	1	16
630.910	1	16
631.079	1	2
631.249	1	12
631.419	1	17
631.588	1	4
631.758	1	11
631.927	1	14
632.097	1	12
632.266	1	18
632.436	1	6
632.606	1	8
632.775	1	16
632.945	1	18
633.114	1	16
633.284	1	14
633.453	1	7
633.623	1	8
633.793	1	19
633.962	1	17
634.132	1	7
634.301	1	14
634.471	1	17
634.640	1	25
634.810	1	14
634.979	1	12
635.149	1	19
635.319	1	11
635.488	1	8
635.658	1	12
635.827	1	8
635.997	1	10
636.166	1	14
636.336	1	10
636.505	1	22
636.675	1	17
636.845	1	22
637.014	1	12
637.184	1	13
637.353	1	17
637.523	1	15
637.692	1	12
637.862	1	6
638.031	1	11
638.201	1	10
638.370	1	7
638.540	1	5
638.710	1	12
638.879	1	6
639.049	1	16
639.218	1	23
639.388	1	13
639.557	1	18
639.727	1	11
639.896	1	10
640.066	1	2
640.235	1	17
640.405	1	13
640.574	1	16
640.744	1	14
640.914	1	19
641.083	1	19
641.253	1	17
641.422	1	10
641.592	1	14
641.761	1	6
641.931	1	12
642.100	1	26
642.270	1	11
642.439	1	19
642.609	1	28
642.778	1	13
642.948	1	12
643.117	1	25
643.287	1	18
643.456	1	3
643.626	1	26
643.795	1	18
643.965	1	20
644.134	1	11
644.304	1	12
644.473	1	21
644.643	1	22
644.812	1	19
644.982	1	17
645.151	1	19
645.321	1	8
645.490	1	26
645.660	1	4
645.829	1	16
645.999	1	11
646.168	1	16
646.338	1	23
646.507	1	21
646.677	1	20
646.846	1	15
647.016	1	8
647.185	1	18
647.355	1	0
647.524	1	20
647.694	1	22
647.863	1	19
648.033	1	17
648.202	1	22
648.372	1	-1
648.541	1	17
648.711	1	9
648.880	1	12
649.050	1	10
649.219	1	18
649.389	1	25
649.558	1	16
649.728	1	21
649.897	1	10
650.067	1	19
650.236	1	15
650.406	1	13
650.575	1	26
650.745	1	15
650.914	1	9
651.084	1	5
651.253	1	18
651.423	1	17
651.592	1	22
651.762	1	12
651.931	1	25
652.101	1	23
652.270	1	20
652.440	1	23
652.609	1	17
652.778	1	13
652.948	1	19
653.117	1	14
653.287	1	21
653.456	1	26
653.626	1	25
653.795	1	17
653.965	1	19
654.134	1	19
654.304	1	4
654.473	1	20
654.643	1	20
654.812	1	9
654.982	1	19
655.151	1	19
655.320	1	17
655.490	1	20
655.659	1	14
655.829	1	19
655.998	1	15
656.168	1	13
656.337	1	14
656.507	1	13
656.676	1	12
656.846	1	20
657.015	1	22
657.184	1	17
657.354	1	27
657.523	1	12
657.693	1	18
657.862	1	22
658.032	1	9
658.201	1	16
658.371	1	23
658.540	1	21
658.709	1	13
658.879	1	26
659.048	1	22
659.218	1	17
659.387	1	21
659.557	1	19
659.726	1	23
659.895	1	10
660.065	1	4
660.234	1	21
660.404	1	22
660.573	1	16
660.743	1	16
660.912	1	19
661.081	1	19
661.251	1	19
661.420	1	27
661.590	1	27
661.759	1	22
661.929	1	21
662.098	1	35
662.267	1	19
662.437	1	22
662.606	1	19
662.776	1	15
662.945	1	13
663.115	1	20
663.284	1	9
663.453	1	20
663.623	1	12
663.792	1	26
663.962	1	21
664.131	1	21
664.300	1	23
664.470	1	18
664.639	1	23
664.809	1	19
664.978	1	22
665.148	1	20
665.317	1	21
665.486	1	24
665.656	1	24
665.825	1	23
665.995	1	17
666.164	1	13
666.333	1	29
666.503	1	4
666.672	1	19
666.842	1	14
667.011	1	20
667.180	1	26
667.350	1	22
667.519	1	23
667.689	1	22
667.858	1	27
668.027	1	27
668.197	1	12
668.366	1	17
668.536	1	17
668.705	1	24
668.874	1	19
669.044	1	19
669.213	1	26
669.382	1	14
669.552	1	30
669.721	1	31
669.891	1	28
670.060	1	17
670.229	1	26
670.399	1	17
670.568	1	30
670.738	1	19
670.907	1	17
671.076	1	9
671.246	1	23
671.415	1	19
671.584	1	15
671.754	1	17
671.923	1	15
672.093	1	21
672.262	1	10
672.431	1	28
672.601	1	24
672.770	1	20
672.939	1	22
673.109	1	10
673.278	1	17
673.448	1	27
673.617	1	18
673.786	1	27
