325.333	1	14
325.504	1	-2
325.675	1	4
325.846	1	0
326.017	1	0
326.188	1	3
326.359	1	-6
326.531	1	-9
326.702	1	3
326.873	1	2
327.044	1	-2
327.215	1	0
327.386	1	5
327.557	1	-1
327.728	1	0
327.899	1	3
328.070	1	7
328.241	1	-4
328.412	1	-14
328.583	1	7
328.754	1	7
328.926	1	6
329.097	1	-2
329.268	1	12
329.439	1	-4
329.610	1	8
329.781	1	-10
329.952	1	11
330.123	1	6
330.294	1	1
330.465	1	5
330.636	1	15
330.807	1	4
330.978	1	-3
331.149	1	5
331.320	1	-8
331.492	1	8
331.663	1	-1
331.834	1	15
332.005	1	0
332.176	1	21
332.347	1	1
332.518	1	-3
332.689	1	10
332.860	1	-7
333.031	1	11
333.202	1	1
333.373	1	14
333.544	1	-2
333.715	1	15
333.886	1	0
334.057	1	13
334.228	1	4
334.399	1	5
334.570	1	7
334.741	1	4
334.912	1	6
335.084	1	25
335.255	1	5
335.426	1	3
335.597	1	-1
335.768	1	6
335.939	1	17
336.110	1	7
336.281	1	-7
336.452	1	1
336.623	1	0
336.794	1	2
336.965	1	-5
337.136	1	13
337.307	1	2
337.478	1	6
337.649	1	5
337.820	1	2
337.991	1	0
338.162	1	8
338.333	1	1
338.504	1	10
338.675	1	4
338.846	1	13
339.017	1	11
339.188	1	5
339.359	1	-9
339.530	1	9
339.701	1	5
339.872	1	10
340.043	1	-1
340.214	1	-1
340.385	1	18
340.556	1	-11
340.727	1	17
340.898	1	17
341.069	1	12
341.240	1	-1
341.411	1	1
341.582	1	6
341.753	1	-14
341.924	1	4
342.095	1	10
342.266	1	8
342.437	1	12
342.608	1	3
342.779	1	17
342.950	1	15
343.121	1	9
343.292	1	4
343.463	1	-3
343.634	1	9
343.805	1	13
343.976	1	8
344.147	1	8
344.318	1	-1
344.489	1	6
344.660	1	12
344.831	1	7
345.002	1	-7
345.173	1	14
345.344	1	7
345.515	1	7
345.686	1	7
345.857	1	9
346.028	1	11
346.199	1	4
346.370	1	10
346.541	1	7
346.712	1	0
346.883	1	5
347.054	1	3
347.225	1	3
347.396	1	10
347.567	1	7
347.738	1	6
347.909	1	16
348.080	1	7
348.251	1	14
348.422	1	12
348.593	1	6
348.764	1	10
348.935	1	15
349.106	1	-1
349.277	1	11
349.448	1	12
349.619	1	10
349.790	1	5
349.961	1	8
350.132	1	15
350.303	1	12
350.474	1	21
350.645	1	5
350.816	1	12
350.987	1	16
351.157	1	8
351.328	1	17
351.499	1	8
351.670	1	6
351.841	1	12
352.012	1	23
352.183	1	13
352.354	1	18
352.525	1	9
352.696	1	11
352.867	1	8
353.038	1	15
353.209	1	10
353.380	1	11
353.551	1	2
353.722	1	8
353.893	1	1
354.064	1	13
354.235	1	10
354.406	1	5
354.576	1	7
354.747	1	8
354.918	1	8
355.089	1	14
355.260	1	18
355.431	1	13
355.602	1	-1
355.773	1	17
355.944	1	9
356.115	1	14
356.286	1	6
356.457	1	12
356.628	1	21
356.799	1	7
356.970	1	18
357.141	1	9
357.311	1	6
357.482	1	5
357.653	1	16
357.824	1	10
357.995	1	14
358.166	1	6
358.337	1	16
358.508	1	7
358.679	1	9
358.850	1	7
359.021	1	14
359.192	1	12
359.363	1	9
359.533	1	18
359.704	1	13
359.875	1	15
360.046	1	7
360.217	1	-2
360.388	1	18
360.559	1	8
360.730	1	14
360.901	1	18
361.072	1	23
361.243	1	17
361.414	1	11
361.584	1	6
361.755	1	22
361.926	1	3
362.097	1	9
362.268	1	18
362.439	1	9
362.610	1	21
362.781	1	18
362.952	1	3
363.123	1	17
363.293	1	-3
363.464	1	17
363.635	1	18
363.806	1	17
363.977	1	9
364.148	1	12
364.319	1	18
364.490	1	13
364.661	1	11
364.832	1	22
365.002	1	8
365.173	1	19
365.344	1	21
365.515	1	1
365.686	1	10
365.857	1	19
366.028	1	23
366.199	1	2
366.370	1	17
366.540	1	6
366.711	1	-7
366.882	1	9
367.053	1	6
367.224	1	26
367.395	1	16
367.566	1	14
367.737	1	21
367.908	1	8
368.078	1	9
368.249	1	22
368.420	1	10
368.591	1	7
368.762	1	14
368.933	1	12
369.104	1	14
369.274	1	-2
369.445	1	13
369.616	1	22
369.787	1	17
369.958	1	22
370.129	1	5
370.300	1	21
370.471	1	4
370.641	1	15
370.812	1	17
370.983	1	13
371.154	1	5
371.325	1	21
371.496	1	11
371.667	1	19
371.837	1	5
372.008	1	12
372.179	1	4
372.350	1	22
372.521	1	6
372.692	1	18
372.863	1	18
373.033	1	6
373.204	1	1
373.375	1	16
373.546	1	13
373.717	1	16
373.888	1	19
374.059	1	15
374.229	1	16
374.400	1	10
374.571	1	16
374.742	1	17
374.913	1	17
375.084	1	6
375.254	1	15
375.425	1	17
375.596	1	14
375.767	1	18
375.938	1	21
376.109	1	9
376.279	1	2
376.450	1	22
376.621	1	10
376.792	1	9
376.963	1	6
377.134	1	15
377.304	1	14
377.475	1	11
377.646	1	13
377.817	1	2
377.988	1	11
378.159	1	21
378.329	1	21
378.500	1	18
378.671	1	15
378.842	1	15
379.013	1	0
379.184	1	16
379.354	1	24
379.525	1	11
379.696	1	25
379.867	1	22
380.038	1	15
380.209	1	17
380.379	1	12
380.550	1	14
380.721	1	33
380.892	1	13
381.063	1	13
381.233	1	20
381.404	1	0
381.575	1	15
381.746	1	7
381.917	1	17
382.087	1	14
382.258	1	15
382.429	1	21
382.600	1	22
382.771	1	23
382.941	1	21
383.112	1	14
383.283	1	15
383.454	1	11
383.625	1	20
383.795	1	17
383.966	1	20
384.137	1	19
384.308	1	17
384.479	1	17
384.649	1	10
384.820	1	15
384.991	1	27
385.162	1	22
385.333	1	9
385.503	1	15
385.674	1	11
385.845	1	20
386.016	1	20
386.187	1	15
386.357	1	20
386.528	1	19
386.699	1	23
386.870	1	30
387.041	1	27
387.211	1	18
387.382	1	33
387.553	1	24
387.724	1	16
387.894	1	19
388.065	1	13
388.236	1	14
388.407	1	16
388.578	1	14
388.748	1	6
388.919	1	20
389.090	1	19
389.261	1	17
389.431	1	14
389.602	1	30
389.773	1	19
389.944	1	19
390.114	1	7
390.285	1	8
390.456	1	16
390.627	1	20
390.798	1	18
390.968	1	20
391.139	1	32
391.310	1	20
391.481	1	20
391.651	1	20
391.822	1	12
391.993	1	8
392.164	1	8
392.334	1	14
392.505	1	15
392.676	1	23
392.847	1	25
393.017	1	29
393.188	1	26
393.359	1	6
393.530	1	21
393.700	1	18
393.871	1	18
394.042	1	16
394.213	1	20
394.383	1	16
394.554	1	21
394.725	1	24
394.896	1	10
395.066	1	23
395.237	1	13
395.408	1	16
395.579	1	24
395.749	1	22
395.920	1	16
396.091	1	19
396.262	1	19
396.432	1	18
396.603	1	21
396.774	1	26
396.945	1	17
397.115	1	17
397.286	1	16
397.457	1	23
397.627	1	27
397.798	1	12
397.969	1	12
398.140	1	17
398.310	1	20
398.481	1	18
398.652	1	13
398.823	1	14
398.993	1	15
399.164	1	22
399.335	1	23
399.505	1	22
399.676	1	26
399.847	1	20
400.018	1	20
400.188	1	10
400.359	1	27
400.530	1	17
400.700	1	21
400.871	1	12
401.042	1	25
401.213	1	19
401.383	1	13
401.554	1	24
401.725	1	23
401.895	1	14
402.066	1	25
402.237	1	33
402.408	1	30
402.578	1	18
402.749	1	29
402.920	1	20
403.090	1	9
403.261	1	16
403.432	1	18
403.603	1	22
403.773	1	29
403.944	1	22
404.115	1	27
404.285	1	22
404.456	1	18
404.627	1	13
404.797	1	6
404.968	1	16
405.139	1	15
405.310	1	22
405.480	1	18
405.651	1	22
405.822	1	23
405.992	1	7
406.163	1	16
406.334	1	13
406.504	1	18
406.675	1	31
406.846	1	21
407.016	1	22
407.187	1	28
407.358	1	9
407.528	1	17
407.699	1	22
407.870	1	6
408.041	1	12
408.211	1	36
408.382	1	14
408.553	1	13
408.723	1	25
408.894	1	15
409.065	1	18
409.235	1	15
409.406	1	18
409.577	1	14
409.747	1	21
409.918	1	14
410.089	1	19
410.259	1	26
410.430	1	15
410.601	1	22
410.771	1	24
410.942	1	34
411.113	1	25
411.283	1	14
411.454	1	17
411.625	1	23
411.795	1	23
411.966	1	24
412.137	1	26
412.307	1	7
412.478	1	18
412.649	1	19
412.819	1	12
412.990	1	16
413.161	1	18
413.331	1	18
413.502	1	26
413.672	1	24
413.843	1	13
414.014	1	24
414.184	1	25
414.355	1	26
414.526	1	24
414.696	1	27
414.867	1	20
415.038	1	8
415.208	1	17
415.379	1	26
415.550	1	25
415.720	1	4
415.891	1	12
416.062	1	18
416.232	1	23
416.403	1	12
416.573	1	22
416.744	1	15
416.915	1	27
417.085	1	21
417.256	1	19
417.427	1	22
417.597	1	18
417.768	1	15
417.939	1	24
418.109	1	18
418.280	1	19
418.450	1	21
418.621	1	12
418.792	1	27
418.962	1	22
419.133	1	30
419.304	1	19
419.474	1	20
419.645	1	19
419.815	1	20
419.986	1	16
420.157	1	25
420.327	1	20
420.498	1	32
420.669	1	23
420.839	1	28
421.010	1	24
421.180	1	18
421.351	1	20
421.522	1	19
421.692	1	21
421.863	1	3
422.033	1	25
422.204	1	21
422.375	1	15
422.545	1	35
422.716	1	15
422.886	1	18
423.057	1	14
423.228	1	14
423.398	1	13
423.569	1	24
423.740	1	12
423.910	1	14
424.081	1	8
424.251	1	17
424.422	1	20
424.593	1	12
424.763	1	22
424.934	1	28
425.104	1	14
425.275	1	21
425.445	1	17
425.616	1	16
425.787	1	17
425.957	1	19
426.128	1	26
426.298	1	31
426.469	1	3
426.640	1	26
426.810	1	22
426.981	1	9
427.151	1	22
427.322	1	29
427.493	1	6
427.663	1	22
427.834	1	4
428.004	1	22
428.175	1	23
428.345	1	12
428.516	1	17
428.687	1	19
428.857	1	9
429.028	1	18
429.198	1	29
429.369	1	25
429.540	1	14
429.710	1	9
429.881	1	22
430.051	1	16
430.222	1	20
430.392	1	19
430.563	1	28
430.734	1	27
430.904	1	27
431.075	1	20
431.245	1	16
431.416	1	18
431.586	1	17
431.757	1	23
431.927	1	17
432.098	1	23
432.269	1	24
432.439	1	22
432.610	1	19
432.780	1	27
432.951	1	13
433.121	1	25
433.292	1	29
433.462	1	29
433.633	1	26
433.804	1	29
433.974	1	15
434.145	1	19
434.315	1	7
434.486	1	17
434.656	1	20
434.827	1	8
434.997	1	9
435.168	1	21
435.339	1	26
435.509	1	23
435.680	1	30
435.850	1	21
436.021	1	21
436.191	1	25
436.362	1	22
436.532	1	17
436.703	1	17
436.873	1	20
437.044	1	12
437.214	1	18
437.385	1	13
437.556	1	10
437.726	1	31
437.897	1	26
438.067	1	11
438.238	1	23
438.408	1	18
438.579	1	15
438.749	1	13
438.920	1	12
439.090	1	22
439.261	1	14
439.431	1	9
439.602	1	14
439.772	1	18
439.943	1	26
440.113	1	24
440.284	1	14
440.455	1	25
440.625	1	20
440.796	1	11
440.966	1	14
441.137	1	24
441.307	1	15
441.478	1	24
441.648	1	16
441.819	1	21
441.989	1	23
442.160	1	15
442.330	1	20
442.501	1	16
442.671	1	11
442.842	1	10
443.012	1	15
443.183	1	26
443.353	1	1
443.524	1	15
443.694	1	27
443.865	1	16
444.035	1	14
444.206	1	12
444.376	1	6
444.547	1	22
444.717	1	16
444.888	1	10
445.058	1	22
445.229	1	20
445.399	1	17
445.570	1	25
445.740	1	14
445.911	1	6
446.081	1	7
446.252	1	16
446.422	1	16
446.593	1	17
446.763	1	14
446.934	1	10
447.104	1	14
447.275	1	11
447.445	1	25
447.616	1	17
447.786	1	17
447.957	1	16
448.127	1	12
448.298	1	27
448.468	1	20
448.639	1	14
448.809	1	19
448.979	1	14
449.150	1	18
449.320	1	21
449.491	1	18
449.661	1	11
449.832	1	17
450.002	1	23
450.173	1	14
450.343	1	19
450.514	1	17
450.684	1	11
450.855	1	18
451.025	1	18
451.196	1	20
451.366	1	13
451.537	1	18
451.707	1	2
451.878	1	15
452.048	1	20
452.218	1	17
452.389	1	23
452.559	1	17
452.730	1	26
452.900	1	8
453.071	1	14
453.241	1	24
453.412	1	14
453.582	1	12
453.753	1	18
453.923	1	17
454.093	1	31
454.264	1	27
454.434	1	18
454.605	1	11
454.775	1	17
454.946	1	14
455.116	1	18
455.287	1	11
455.457	1	1
455.628	1	7
455.798	1	23
455.968	1	25
456.139	1	22
456.309	1	11
456.480	1	11
456.650	1	9
456.821	1	1
456.991	1	20
457.161	1	3
457.332	1	22
457.502	1	5
457.673	1	13
457.843	1	19
458.014	1	11
458.184	1	12
458.355	1	18
458.525	1	19
458.695	1	10
458.866	1	6
459.036	1	14
459.207	1	19
459.377	1	2
459.548	1	28
459.718	1	9
459.888	1	17
460.059	1	17
460.229	1	18
460.400	1	21
460.570	1	10
460.740	1	14
460.911	1	20
461.081	1	16
461.252	1	13
461.422	1	10
461.593	1	12
461.763	1	14
461.933	1	16
462.104	1	9
462.274	1	10
462.445	1	13
462.615	1	16
462.785	1	9
462.956	1	10
463.126	1	7
463.297	1	14
463.467	1	17
463.638	1	8
463.808	1	8
463.978	1	7
464.149	1	5
464.319	1	7
464.490	1	20
464.660	1	8
464.830	1	9
465.001	1	12
465.171	1	17
465.342	1	25
465.512	1	4
465.682	1	18
465.853	1	18
466.023	1	9
466.194	1	9
466.364	1	22
466.534	1	11
466.705	1	14
466.875	1	13
467.045	1	3
467.216	1	23
467.386	1	8
467.557	1	14
467.727	1	9
467.897	1	4
468.068	1	7
468.238	1	5
468.409	1	17
468.579	1	22
468.749	1	3
468.920	1	3
469.090	1	21
469.260	1	2
469.431	1	6
469.601	1	14
469.772	1	16
469.942	1	4
470.112	1	20
470.283	1	21
470.453	1	19
470.623	1	6
470.794	1	7
470.964	1	11
471.135	1	4
471.305	1	-2
471.475	1	2
471.646	1	3
471.816	1	7
471.986	1	21
472.157	1	26
472.327	1	-1
472.497	1	7
472.668	1	1
472.838	1	16
473.009	1	10
473.179	1	4
473.349	1	3
473.520	1	20
473.690	1	3
473.860	1	12
474.031	1	9
474.201	1	9
474.371	1	18
474.542	1	10
474.712	1	11
474.882	1	19
475.053	1	26
475.223	1	4
475.394	1	15
475.564	1	5
475.734	1	13
475.905	1	17
476.075	1	5
476.245	1	12
476.416	1	17
476.586	1	23
476.756	1	17
476.927	1	16
477.097	1	8
477.267	1	3
477.438	1	8
477.608	1	7
477.778	1	11
477.949	1	4
478.119	1	18
478.289	1	17
478.460	1	19
478.630	1	15
478.800	1	16
478.971	1	9
479.141	1	4
479.311	1	-3
479.482	1	8
479.652	1	9
479.822	1	13
479.993	1	13
480.163	1	10
480.333	1	10
480.504	1	17
480.674	1	1
480.844	1	4
481.015	1	7
481.185	1	-2
481.355	1	8
481.525	1	5
481.696	1	13
481.866	1	14
482.036	1	11
482.207	1	-1
482.377	1	0
482.547	1	24
482.718	1	11
482.888	1	10
483.058	1	3
483.229	1	2
483.399	1	10
483.569	1	9
483.740	1	14
483.910	1	1
484.080	1	17
484.250	1	6
484.421	1	14
484.591	1	17
484.761	1	21
484.932	1	12
485.102	1	17
485.272	1	10
485.443	1	20
485.613	1	9
485.783	1	10
485.953	1	5
486.124	1	20
486.294	1	6
486.464	1	11
486.635	1	14
486.805	1	15
486.975	1	0
487.146	1	10
487.316	1	10
487.486	1	15
487.656	1	4
487.827	1	2
487.997	1	-4
488.167	1	15
488.338	1	21
488.508	1	6
488.678	1	-3
488.848	1	16
489.019	1	9
489.189	1	8
489.359	1	5
489.529	1	13
489.700	1	12
489.870	1	15
490.040	1	-2
490.211	1	10
490.381	1	15
490.551	1	11
490.721	1	5
490.892	1	9
491.062	1	6
491.232	1	8
491.402	1	3
491.573	1	1
491.743	1	5
491.913	1	7
492.084	1	14
492.254	1	9
492.424	1	9
492.594	1	7
492.765	1	9
492.935	1	10
493.105	1	10
493.275	1	5
493.446	1	14
493.616	1	14
493.786	1	11
493.956	1	10
494.127	1	10
494.297	1	3
494.467	1	6
494.637	1	10
494.808	1	3
494.978	1	-3
495.148	1	4
495.318	1	8
495.489	1	10
495.659	1	6
495.829	1	9
495.999	1	12
496.170	1	13
496.340	1	9
496.510	1	5
496.680	1	-3
496.851	1	-1
497.021	1	0
497.191	1	3
497.361	1	9
497.532	1	-4
497.702	1	4
497.872	1	15
498.042	1	8
498.213	1	3
498.383	1	10
498.553	1	4
498.723	1	-3
498.894	1	8
499.064	1	8
499.234	1	14
499.404	1	1
499.574	1	15
499.745	1	10
499.915	1	14
500.085	1	4
500.255	1	9
500.426	1	11
500.596	1	0
500.766	1	12
500.936	1	9
501.106	1	2
501.277	1	5
501.447	1	7
501.617	1	11
501.787	1	0
501.958	1	-6
502.128	1	18
502.298	1	8
502.468	1	-2
502.638	1	4
502.809	1	8
502.979	1	6
503.149	1	5
503.319	1	4
503.489	1	2
503.660	1	17
503.830	1	-2
504.000	1	5
504.170	1	5
504.340	1	4
504.511	1	17
504.681	1	-1
504.851	1	6
505.021	1	12
505.192	1	0
505.362	1	21
505.532	1	1
505.702	1	-2
505.872	1	9
506.043	1	6
506.213	1	3
506.383	1	9
506.553	1	19
506.723	1	11
506.893	1	9
507.064	1	8
507.234	1	-1
507.404	1	-3
507.574	1	0
507.744	1	4
507.915	1	8
508.085	1	12
508.255	1	6
508.425	1	-1
508.595	1	13
508.766	1	18
508.936	1	-1
509.106	1	12
509.276	1	9
509.446	1	-5
509.616	1	3
509.787	1	5
509.957	1	4
510.127	1	3
510.297	1	4
510.467	1	3
510.638	1	8
510.808	1	-4
510.978	1	2
511.148	1	15
511.318	1	7
511.488	1	-4
511.659	1	10
511.829	1	-4
511.999	1	3
512.169	1	-1
512.339	1	7
512.509	1	-5
512.680	1	2
512.850	1	0
513.020	1	-2
513.190	1	8
513.360	1	1
513.530	1	3
513.700	1	11
513.871	1	0
514.041	1	1
514.211	1	11
514.381	1	6
514.551	1	7
514.721	1	6
514.892	1	7
515.062	1	5
515.232	1	-3
515.402	1	-2
515.572	1	-1
515.742	1	2
515.912	1	3
516.083	1	3
516.253	1	3
516.423	1	8
516.593	1	6
516.763	1	10
516.933	1	-7
517.104	1	4
517.274	1	8
517.444	1	2
517.614	1	-1
517.784	1	5
517.954	1	14
518.124	1	4
518.294	1	7
518.465	1	3
518.635	1	6
518.805	1	-9
518.975	1	8
519.145	1	-3
519.315	1	7
519.485	1	-4
519.656	1	7
519.826	1	10
519.996	1	2
520.166	1	7
520.336	1	10
520.506	1	-2
520.676	1	-4
520.846	1	16
521.017	1	10
521.187	1	5
521.357	1	12
521.527	1	-1
521.697	1	-3
521.867	1	8
522.037	1	8
522.207	1	23
522.377	1	0
522.548	1	6
522.718	1	2
522.888	1	13
523.058	1	2
523.228	1	9
523.398	1	11
523.568	1	-1
523.738	1	8
523.909	1	12
524.079	1	3
524.249	1	-2
524.419	1	2
524.589	1	3
524.759	1	-6
524.929	1	3
525.099	1	8
525.269	1	11
525.439	1	7
525.610	1	19
525.780	1	6
525.950	1	6
526.120	1	-1
526.290	1	4
526.460	1	-2
526.630	1	4
526.800	1	-1
526.970	1	6
527.140	1	6
527.311	1	-2
527.481	1	1
527.651	1	19
527.821	1	1
527.991	1	18
528.161	1	14
528.331	1	-1
528.501	1	7
528.671	1	-11
528.841	1	8
529.011	1	-5
529.181	1	5
529.352	1	-6
529.522	1	1
529.692	1	4
529.862	1	1
530.032	1	2
530.202	1	9
530.372	1	12
530.542	1	8
530.712	1	6
530.882	1	8
531.052	1	11
531.222	1	1
531.392	1	4
531.563	1	7
531.733	1	4
531.903	1	11
532.073	1	9
532.243	1	1
532.413	1	3
532.583	1	4
532.753	1	8
532.923	1	-4
533.093	1	5
533.263	1	3
533.433	1	3
533.603	1	-4
533.773	1	4
533.943	1	1
534.113	1	1
534.284	1	-3
534.454	1	8
534.624	1	17
534.794	1	-8
534.964	1	2
535.134	1	-2
535.304	1	6
535.474	1	15
535.644	1	-5
535.814	1	0
535.984	1	-9
536.154	1	-4
536.324	1	2
536.494	1	2
536.664	1	0
536.834	1	3
537.004	1	5
537.174	1	13
537.344	1	6
537.514	1	0
537.685	1	5
537.855	1	8
538.025	1	4
538.195	1	8
538.365	1	1
538.535	1	2
538.705	1	4
538.875	1	6
539.045	1	3
539.215	1	1
539.385	1	-2
539.555	1	3
539.725	1	6
539.895	1	4
540.065	1	23
540.235	1	7
540.405	1	-14
540.575	1	5
540.745	1	4
540.915	1	12
541.085	1	2
541.255	1	4
541.425	1	16
541.595	1	1
541.765	1	1
541.935	1	-5
542.105	1	-4
542.275	1	10
542.445	1	-4
542.615	1	2
542.785	1	-1
542.955	1	2
543.125	1	-1
543.295	1	2
543.465	1	0
543.635	1	5
543.805	1	13
543.975	1	6
544.145	1	7
544.315	1	4
544.485	1	1
544.655	1	6
544.825	1	-13
544.995	1	-4
545.165	1	-4
545.335	1	2
545.505	1	4
545.675	1	12
545.845	1	9
546.015	1	4
546.185	1	10
546.355	1	-3
546.525	1	13
546.695	1	1
546.865	1	-2
547.035	1	6
547.205	1	-7
547.375	1	8
547.545	1	3
547.715	1	-1
547.885	1	6
548.055	1	-2
548.225	1	9
548.395	1	-4
548.565	1	4
548.735	1	11
548.905	1	8
549.075	1	-1
549.245	1	4
549.415	1	4
549.585	1	2
549.755	1	9
549.925	1	-5
550.095	1	6
550.265	1	3
550.435	1	11
550.605	1	0
550.775	1	4
550.945	1	12
551.115	1	3
551.285	1	15
551.455	1	1
551.625	1	7
551.795	1	6
551.965	1	0
552.135	1	2
552.305	1	3
552.475	1	-1
552.645	1	-3
552.815	1	6
552.985	1	6
553.155	1	4
553.325	1	9
553.495	1	10
553.665	1	5
553.835	1	-5
554.004	1	5
554.174	1	-1
554.344	1	9
554.514	1	-6
554.684	1	8
554.854	1	9
555.024	1	-9
555.194	1	-3
555.364	1	0
555.534	1	2
555.704	1	5
555.874	1	6
556.044	1	5
556.214	1	-11
556.384	1	1
556.554	1	14
556.724	1	3
556.894	1	-1
557.064	1	5
557.234	1	-2
557.404	1	11
557.573	1	7
557.743	1	9
557.913	1	-9
558.083	1	-6
558.253	1	6
558.423	1	1
558.593	1	3
558.763	1	4
558.933	1	5
559.103	1	10
559.273	1	-3
559.443	1	4
559.613	1	6
559.783	1	4
559.953	1	-4
560.122	1	2
560.292	1	7
560.462	1	-8
560.632	1	3
560.802	1	3
560.972	1	-2
561.142	1	12
561.312	1	-3
561.482	1	7
561.652	1	5
561.822	1	-2
561.992	1	0
562.162	1	5
562.331	1	1
562.501	1	-6
562.671	1	12
562.841	1	-4
563.011	1	3
563.181	1	7
563.351	1	-5
563.521	1	7
563.691	1	-4
563.861	1	5
564.031	1	7
564.201	1	10
564.370	1	-5
564.540	1	1
564.710	1	1
564.880	1	6
565.050	1	15
565.220	1	4
565.390	1	9
565.560	1	8
565.730	1	5
565.900	1	6
566.069	1	11
566.239	1	3
566.409	1	8
566.579	1	2
566.749	1	-5
566.919	1	7
567.089	1	4
567.259	1	11
567.429	1	5
567.599	1	-3
567.768	1	2
567.938	1	4
568.108	1	1
568.278	1	-2
568.448	1	2
568.618	1	8
568.788	1	-2
568.958	1	4
569.128	1	6
569.297	1	-2
569.467	1	-8
569.637	1	13
569.807	1	-6
569.977	1	12
570.147	1	15
570.317	1	-6
570.487	1	3
570.656	1	5
570.826	1	1
570.996	1	4
571.166	1	9
571.336	1	-8
571.506	1	4
571.676	1	5
571.846	1	6
572.015	1	5
572.185	1	2
572.355	1	4
572.525	1	1
572.695	1	3
572.865	1	-3
573.035	1	13
573.205	1	-1
573.374	1	-8
573.544	1	1
573.714	1	3
573.884	1	13
574.054	1	11
574.224	1	0
574.394	1	1
574.563	1	3
574.733	1	0
574.903	1	-5
575.073	1	-1
575.243	1	6
575.413	1	4
575.583	1	9
575.752	1	7
575.922	1	5
576.092	1	-1
576.262	1	10
576.432	1	13
576.602	1	1
576.772	1	11
576.941	1	1
577.111	1	-3
577.281	1	-7
577.451	1	0
577.621	1	13
577.791	1	12
577.960	1	0
578.130	1	0
578.300	1	4
578.470	1	11
578.640	1	3
578.810	1	5
578.979	1	-1
579.149	1	2
579.319	1	-7
579.489	1	-7
579.659	1	1
579.829	1	3
579.998	1	2
580.168	1	13
580.338	1	3
580.508	1	-4
580.678	1	0
580.848	1	-5
581.017	1	2
581.187	1	2
581.357	1	-14
581.527	1	7
581.697	1	9
581.867	1	3
582.036	1	1
582.206	1	6
582.376	1	5
582.546	1	0
582.716	1	-9
582.885	1	0
583.055	1	-2
583.225	1	-10
583.395	1	7
583.565	1	-1
583.735	1	4
583.904	1	0
584.074	1	6
584.244	1	2
584.414	1	8
584.584	1	7
584.753	1	-5
584.923	1	3
585.093	1	-8
585.263	1	8
585.433	1	0
585.602	1	-4
585.772	1	-8
585.942	1	4
586.112	1	4
586.282	1	0
586.451	1	-1
586.621	1	-2
586.791	1	7
586.961	1	-4
587.131	1	13
587.300	1	-14
587.470	1	3
587.640	1	5
587.810	1	6
587.980	1	0
588.149	1	6
588.319	1	4
588.489	1	3
588.659	1	7
588.829	1	-5
588.998	1	10
589.168	1	3
589.338	1	3
589.508	1	5
589.677	1	-1
589.847	1	-5
590.017	1	10
590.187	1	-3
590.357	1	10
590.526	1	5
590.696	1	4
590.866	1	7
591.036	1	-1
591.205	1	11
591.375	1	-2
591.545	1	-6
591.715	1	3
591.885	1	0
592.054	1	0
592.224	1	7
592.394	1	3
592.564	1	9
592.733	1	5
592.903	1	5
593.073	1	-5
593.243	1	6
593.412	1	7
593.582	1	-7
593.752	1	-8
593.922	1	7
594.091	1	3
594.261	1	-3
594.431	1	4
594.601	1	13
594.771	1	5
594.940	1	-1
595.110	1	4
595.280	1	-3
595.450	1	0
595.619	1	-4
595.789	1	10
595.959	1	7
596.129	1	-3
596.298	1	8
596.468	1	13
596.638	1	11
596.808	1	-1
596.977	1	-3
597.147	1	-2
597.317	1	-5
597.487	1	3
597.656	1	-4
597.826	1	5
597.996	1	12
598.166	1	3
598.335	1	-5
598.505	1	-2
598.675	1	-5
598.844	1	0
599.014	1	-7
599.184	1	6
599.354	1	0
599.523	1	12
599.693	1	-3
599.863	1	-2
600.033	1	7
600.202	1	1
600.372	1	3
600.542	1	7
600.712	1	7
600.881	1	-8
601.051	1	18
601.221	1	5
601.390	1	-9
601.560	1	7
601.730	1	7
601.900	1	6
602.069	1	8
602.239	1	2
602.409	1	-5
602.578	1	-4
602.748	1	-8
602.918	1	10
603.088	1	4
603.257	1	1
603.427	1	-11
603.597	1	17
603.767	1	-2
603.936	1	5
604.106	1	3
604.276	1	-4
604.445	1	8
604.615	1	1
604.785	1	4
604.954	1	-5
605.124	1	7
605.294	1	-3
605.464	1	0
605.633	1	7
605.803	1	5
605.973	1	3
606.142	1	4
606.312	1	12
606.482	1	0
606.652	1	6
606.821	1	-1
606.991	1	-2
607.161	1	-1
607.330	1	12
607.500	1	0
607.670	1	-1
607.839	1	4
608.009	1	16
608.179	1	2
608.348	1	1
608.518	1	0
608.688	1	12
608.858	1	-5
609.027	1	-10
609.197	1	5
609.367	1	9
609.536	1	2
609.706	1	2
609.876	1	1
610.045	1	3
610.215	1	-3
610.385	1	1
610.554	1	-4
610.724	1	4
610.894	1	-4
611.063	1	5
611.233	1	0
611.403	1	-2
611.572	1	2
611.742	1	9
611.912	1	9
612.081	1	9
612.251	1	11
612.421	1	-6
612.590	1	0
612.760	1	11
612.930	1	5
613.099	1	2
613.269	1	10
613.439	1	5
613.608	1	5
613.778	1	4
613.948	1	2
614.117	1	4
614.287	1	5
614.457	1	6
614.626	1	-11
614.796	1	11
614.966	1	1
615.135	1	5
615.305	1	13
615.475	1	-1
615.644	1	12
615.814	1	0
615.984	1	-4
616.153	1	-7
616.323	1	4
616.493	1	1
616.662	1	9
616.832	1	9
617.002	1	7
617.171	1	1
617.341	1	-1
617.511	1	-4
617.680	1	-6
617.850	1	0
618.019	1	12
618.189	1	18
618.359	1	7
618.528	1	3
618.698	1	3
618.868	1	-3
619.037	1	-5
619.207	1	-4
619.377	1	-2
619.546	1	0
619.716	1	4
619.885	1	5
620.055	1	-5
620.225	1	5
620.394	1	-8
620.564	1	9
620.734	1	6
620.903	1	7
621.073	1	11
621.242	1	2
621.412	1	-4
621.582	1	6
621.751	1	12
621.921	1	15
622.091	1	-9
622.260	1	2
622.430	1	4
622.599	1	-1
622.769	1	6
622.939	1	5
623.108	1	-2
623.278	1	2
623.448	1	-3
623.617	1	1
623.787	1	6
623.956	1	9
624.126	1	-2
624.296	1	-11
624.465	1	7
624.635	1	6
624.804	1	8
624.974	1	5
625.144	1	10
625.313	1	-1
625.483	1	-4
625.652	1	0
625.822	1	6
625.992	1	1
626.161	1	3
626.331	1	4
626.501	1	3
626.670	1	1
626.840	1	8
627.009	1	1
627.179	1	3
627.348	1	5
627.518	1	-1
627.688	1	5
627.857	1	7
628.027	1	-6
628.196	1	6
628.366	1	16
628.536	1	3
628.705	1	6
628.875	1	5
629.044	1	-3
629.214	1	12
629.384	1	4
629.553	1	17
629.723	1	4
629.892	1	-1
630.062	1	0
630.232	1	0
630.401	1	8
630.571	1	8
630.740	1	8
630.910	1	8
631.079	1	2
631.249	1	0
631.419	1	6
631.588	1	-11
631.758	1	8
631.927	1	-4
632.097	1	-2
632.266	1	0
632.436	1	7
632.606	1	3
632.775	1	14
632.945	1	7
633.114	1	5
633.284	1	10
633.453	1	3
633.623	1	0
633.793	1	5
633.962	1	-7
634.132	1	1
634.301	1	0
634.471	1	7
634.640	1	13
634.810	1	-2
634.979	1	3
635.149	1	7
635.319	1	-1
635.488	1	0
635.658	1	3
635.827	1	-7
635.997	1	2
636.166	1	10
636.336	1	0
636.505	1	15
636.675	1	-3
636.845	1	9
637.014	1	11
637.184	1	11
637.353	1	2
637.523	1	1
637.692	1	0
637.862	1	4
638.031	1	7
638.201	1	12
638.370	1	-8
638.540	1	1
638.710	1	6
638.879	1	-6
639.049	1	8
639.218	1	-2
639.388	1	3
639.557	1	-4
639.727	1	9
639.896	1	0
640.066	1	3
640.235	1	2
640.405	1	18
640.574	1	9
640.744	1	3
640.914	1	3
641.083	1	-2
641.253	1	-4
641.422	1	-3
641.592	1	19
641.761	1	-1
641.931	1	-1
642.100	1	24
642.270	1	-4
642.439	1	16
642.609	1	2
642.778	1	8
642.948	1	-1
643.117	1	9
643.287	1	3
643.456	1	-2
643.626	1	10
643.795	1	1
643.965	1	9
644.134	1	2
644.304	1	5
644.473	1	-6
644.643	1	3
644.812	1	2
644.982	1	-3
645.151	1	8
645.321	1	2
645.490	1	11
645.660	1	-2
645.829	1	6
645.999	1	2
646.168	1	-2
646.338	1	3
646.507	1	1
646.677	1	1
646.846	1	0
647.016	1	-1
647.185	1	4
647.355	1	-12
647.524	1	14
647.694	1	7
647.863	1	4
648.033	1	3
648.202	1	12
648.372	1	-6
648.541	1	-4
648.711	1	1
648.880	1	6
649.050	1	8
649.219	1	5
649.389	1	10
649.558	1	-3
649.728	1	9
649.897	1	-5
650.067	1	3
650.236	1	2
650.406	1	7
650.575	1	10
650.745	1	10
650.914	1	-2
651.084	1	-1
651.253	1	17
651.423	1	7
651.592	1	-3
651.762	1	-2
651.931	1	13
652.101	1	7
652.270	1	3
652.440	1	6
652.609	1	-3
652.778	1	-5
652.948	1	2
653.117	1	3
653.287	1	6
653.456	1	11
653.626	1	13
653.795	1	2
653.965	1	4
654.134	1	10
654.304	1	-13
654.473	1	12
654.643	1	3
654.812	1	7
654.982	1	5
655.151	1	6
655.320	1	2
655.490	1	-3
655.659	1	3
655.829	1	-4
655.998	1	1
656.168	1	1
656.337	1	2
656.507	1	8
656.676	1	17
656.846	1	13
657.015	1	8
657.184	1	13
657.354	1	6
657.523	1	3
657.693	1	12
657.862	1	7
658.032	1	5
658.201	1	5
658.371	1	12
658.540	1	0
658.709	1	-2
658.879	1	5
659.048	1	4
659.218	1	0
659.387	1	0
659.557	1	-4
659.726	1	9
659.895	1	3
660.065	1	-5
660.234	1	9
660.404	1	6
660.573	1	-6
660.743	1	0
660.912	1	8
661.081	1	11
661.251	1	10
661.420	1	10
661.590	1	2
661.759	1	5
661.929	1	8
662.098	1	10
662.267	1	-2
662.437	1	13
662.606	1	6
662.776	1	12
662.945	1	0
663.115	1	7
663.284	1	-3
663.453	1	8
663.623	1	1
663.792	1	6
663.962	1	2
664.131	1	12
664.300	1	10
664.470	1	1
664.639	1	10
664.809	1	3
664.978	1	8
665.148	1	1
665.317	1	-1
665.486	1	10
665.656	1	-5
665.825	1	7
665.995	1	8
666.164	1	1
666.333	1	1
666.503	1	1
666.672	1	0
666.842	1	5
667.011	1	2
667.180	1	-1
667.350	1	3
667.519	1	3
667.689	1	-10
667.858	1	4
668.027	1	20
668.197	1	-6
668.366	1	-1
668.536	1	8
668.705	1	13
668.874	1	7
669.044	1	1
669.213	1	11
669.382	1	-7
669.552	1	15
669.721	1	6
669.891	1	12
670.060	1	17
670.229	1	18
670.399	1	-2
670.568	1	3
670.738	1	12
670.907	1	-5
671.076	1	-7
671.246	1	1
671.415	1	6
671.584	1	16
671.754	1	-4
671.923	1	2
672.093	1	9
672.262	1	0
672.431	1	4
672.601	1	4
672.770	1	-14
672.939	1	4
673.109	1	1
673.278	1	-2
673.448	1	12
673.617	1	5
673.786	1	5
