325.333	1	6
325.504	1	1
325.675	1	9
325.846	1	0
326.017	1	9
326.188	1	2
326.359	1	4
326.531	1	-8
326.702	1	0
326.873	1	4
327.044	1	2
327.215	1	0
327.386	1	13
327.557	1	-4
327.728	1	5
327.899	1	2
328.070	1	7
328.241	1	18
328.412	1	-3
328.583	1	6
328.754	1	-3
328.926	1	11
329.097	1	-7
329.268	1	8
329.439	1	2
329.610	1	6
329.781	1	-7
329.952	1	8
330.123	1	7
330.294	1	1
330.465	1	0
330.636	1	11
330.807	1	0
330.978	1	2
331.149	1	-3
331.320	1	5
331.492	1	5
331.663	1	-5
331.834	1	6
332.005	1	8
332.176	1	17
332.347	1	10
332.518	1	-2
332.689	1	11
332.860	1	0
333.031	1	7
333.202	1	2
333.373	1	8
333.544	1	7
333.715	1	7
333.886	1	11
334.057	1	8
334.228	1	0
334.399	1	4
334.570	1	12
334.741	1	-2
334.912	1	9
335.084	1	16
335.255	1	1
335.426	1	-2
335.597	1	9
335.768	1	6
335.939	1	11
336.110	1	8
336.281	1	1
336.452	1	-6
336.623	1	5
336.794	1	15
336.965	1	4
337.136	1	10
337.307	1	3
337.478	1	4
337.649	1	9
337.820	1	14
337.991	1	5
338.162	1	19
338.333	1	4
338.504	1	1
338.675	1	12
338.846	1	8
339.017	1	7
339.188	1	4
339.359	1	1
339.530	1	9
339.701	1	16
339.872	1	20
340.043	1	2
340.214	1	6
340.385	1	10
340.556	1	-1
340.727	1	3
340.898	1	14
341.069	1	9
341.240	1	9
341.411	1	19
341.582	1	11
341.753	1	-6
341.924	1	4
342.095	1	6
342.266	1	15
342.437	1	11
342.608	1	7
342.779	1	17
342.950	1	8
343.121	1	12
343.292	1	7
343.463	1	19
343.634	1	4
343.805	1	15
343.976	1	12
344.147	1	14
344.318	1	1
344.489	1	8
344.660	1	21
344.831	1	5
345.002	1	-1
345.173	1	17
345.344	1	9
345.515	1	13
345.686	1	11
345.857	1	13
346.028	1	14
346.199	1	5
346.370	1	11
346.541	1	12
346.712	1	6
346.883	1	13
347.054	1	13
347.225	1	9
347.396	1	17
347.567	1	14
347.738	1	-1
347.909	1	24
348.080	1	3
348.251	1	13
348.422	1	15
348.593	1	12
348.764	1	7
348.935	1	10
349.106	1	4
349.277	1	4
349.448	1	17
349.619	1	6
349.790	1	12
349.961	1	27
350.132	1	11
350.303	1	11
350.474	1	25
350.645	1	8
350.816	1	14
350.987	1	23
351.157	1	9
351.328	1	17
351.499	1	13
351.670	1	8
351.841	1	12
352.012	1	23
352.183	1	21
352.354	1	14
352.525	1	17
352.696	1	26
352.867	1	8
353.038	1	15
353.209	1	14
353.380	1	18
353.551	1	12
353.722	1	8
353.893	1	12
354.064	1	19
354.235	1	16
354.406	1	8
354.576	1	12
354.747	1	20
354.918	1	9
355.089	1	5
355.260	1	9
355.431	1	22
355.602	1	9
355.773	1	11
355.944	1	21
356.115	1	5
356.286	1	21
356.457	1	13
356.628	1	13
356.799	1	13
356.970	1	21
357.141	1	11
357.311	1	12
357.482	1	9
357.653	1	19
357.824	1	28
357.995	1	17
358.166	1	10
358.337	1	12
358.508	1	17
358.679	1	18
358.850	1	16
359.021	1	14
359.192	1	21
359.363	1	15
359.533	1	18
359.704	1	16
359.875	1	11
360.046	1	17
360.217	1	12
360.388	1	15
360.559	1	13
360.730	1	23
360.901	1	16
361.072	1	28
361.243	1	27
361.414	1	16
361.584	1	10
361.755	1	14
361.926	1	14
362.097	1	19
362.268	1	6
362.439	1	7
362.610	1	34
362.781	1	3
362.952	1	10
363.123	1	9
363.293	1	9
363.464	1	30
363.635	1	21
363.806	1	12
363.977	1	19
364.148	1	6
364.319	1	21
364.490	1	22
364.661	1	11
364.832	1	16
365.002	1	16
365.173	1	26
365.344	1	28
365.515	1	15
365.686	1	12
365.857	1	14
366.028	1	23
366.199	1	22
366.370	1	12
366.540	1	7
366.711	1	5
366.882	1	10
367.053	1	4
367.224	1	28
367.395	1	12
367.566	1	13
367.737	1	28
367.908	1	20
368.078	1	23
368.249	1	13
368.420	1	13
368.591	1	17
368.762	1	15
368.933	1	17
369.104	1	6
369.274	1	16
369.445	1	20
369.616	1	21
369.787	1	20
369.958	1	17
370.129	1	4
370.300	1	22
370.471	1	10
370.641	1	11
370.812	1	15
370.983	1	21
371.154	1	12
371.325	1	22
371.496	1	16
371.667	1	20
371.837	1	11
372.008	1	19
372.179	1	16
372.350	1	29
372.521	1	19
372.692	1	16
372.863	1	26
373.033	1	0
373.204	1	8
373.375	1	11
373.546	1	26
373.717	1	20
373.888	1	35
374.059	1	28
374.229	1	27
374.400	1	11
374.571	1	15
374.742	1	23
374.913	1	25
375.084	1	19
375.254	1	30
375.425	1	13
375.596	1	26
375.767	1	14
375.938	1	19
376.109	1	23
376.279	1	18
376.450	1	16
376.621	1	22
376.792	1	17
376.963	1	13
377.134	1	25
377.304	1	15
377.475	1	19
377.646	1	9
377.817	1	23
377.988	1	15
378.159	1	22
378.329	1	28
378.500	1	16
378.671	1	27
378.842	1	16
379.013	1	13
379.184	1	7
379.354	1	26
379.525	1	14
379.696	1	26
379.867	1	28
380.038	1	22
380.209	1	22
380.379	1	20
380.550	1	16
380.721	1	34
380.892	1	25
381.063	1	23
381.233	1	13
381.404	1	21
381.575	1	27
381.746	1	23
381.917	1	15
382.087	1	20
382.258	1	12
382.429	1	22
382.600	1	21
382.771	1	14
382.941	1	18
383.112	1	18
383.283	1	31
383.454	1	15
383.625	1	17
383.795	1	16
383.966	1	22
384.137	1	21
384.308	1	22
384.479	1	26
384.649	1	29
384.820	1	19
384.991	1	29
385.162	1	29
385.333	1	21
385.503	1	19
385.674	1	11
385.845	1	30
386.016	1	17
386.187	1	25
386.357	1	30
386.528	1	27
386.699	1	15
386.870	1	32
387.041	1	24
387.211	1	24
387.382	1	36
387.553	1	28
387.724	1	18
387.894	1	23
388.065	1	31
388.236	1	22
388.407	1	24
388.578	1	22
388.748	1	28
388.919	1	40
389.090	1	25
389.261	1	30
389.431	1	28
389.602	1	18
389.773	1	31
389.944	1	16
390.114	1	27
390.285	1	39
390.456	1	19
390.627	1	17
390.798	1	39
390.968	1	23
391.139	1	29
391.310	1	34
391.481	1	27
391.651	1	27
391.822	1	16
391.993	1	19
392.164	1	24
392.334	1	31
392.505	1	15
392.676	1	43
392.847	1	44
393.017	1	34
393.188	1	31
393.359	1	22
393.530	1	36
393.700	1	22
393.871	1	25
394.042	1	20
394.213	1	17
394.383	1	24
394.554	1	32
394.725	1	28
394.896	1	16
395.066	1	28
395.237	1	18
395.408	1	28
395.579	1	20
395.749	1	36
395.920	1	21
396.091	1	32
396.262	1	23
396.432	1	23
396.603	1	25
396.774	1	34
396.945	1	28
397.115	1	30
397.286	1	31
397.457	1	27
397.627	1	37
397.798	1	32
397.969	1	11
398.140	1	21
398.310	1	31
398.481	1	32
398.652	1	30
398.823	1	20
398.993	1	26
399.164	1	25
399.335	1	39
399.505	1	32
399.676	1	15
399.847	1	28
400.018	1	27
400.188	1	35
400.359	1	27
400.530	1	35
400.700	1	27
400.871	1	19
401.042	1	24
401.213	1	23
401.383	1	22
401.554	1	29
401.725	1	33
401.895	1	31
402.066	1	30
402.237	1	34
402.408	1	35
402.578	1	22
402.749	1	39
402.920	1	38
403.090	1	23
403.261	1	29
403.432	1	30
403.603	1	25
403.773	1	35
403.944	1	34
404.115	1	28
404.285	1	38
404.456	1	22
404.627	1	27
404.797	1	30
404.968	1	26
405.139	1	33
405.310	1	46
405.480	1	32
405.651	1	27
405.822	1	31
405.992	1	30
406.163	1	27
406.334	1	20
406.504	1	35
406.675	1	37
406.846	1	22
407.016	1	32
407.187	1	44
407.358	1	21
407.528	1	26
407.699	1	26
407.870	1	19
408.041	1	34
408.211	1	46
408.382	1	20
408.553	1	29
408.723	1	37
408.894	1	28
409.065	1	30
409.235	1	37
409.406	1	30
409.577	1	29
409.747	1	32
409.918	1	34
410.089	1	25
410.259	1	26
410.430	1	32
410.601	1	28
410.771	1	26
410.942	1	41
411.113	1	31
411.283	1	29
411.454	1	36
411.625	1	24
411.795	1	34
411.966	1	36
412.137	1	31
412.307	1	28
412.478	1	30
412.649	1	35
412.819	1	26
412.990	1	33
413.161	1	30
413.331	1	24
413.502	1	40
413.672	1	27
413.843	1	24
414.014	1	36
414.184	1	36
414.355	1	29
414.526	1	32
414.696	1	39
414.867	1	21
415.038	1	29
415.208	1	31
415.379	1	34
415.550	1	36
415.720	1	24
415.891	1	19
416.062	1	32
416.232	1	30
416.403	1	23
416.573	1	37
416.744	1	19
416.915	1	29
417.085	1	37
417.256	1	22
417.427	1	31
417.597	1	37
417.768	1	23
417.939	1	36
418.109	1	31
418.280	1	25
418.450	1	33
418.621	1	16
418.792	1	21
418.962	1	36
419.133	1	30
419.304	1	19
419.474	1	30
419.645	1	35
419.815	1	15
419.986	1	30
420.157	1	34
420.327	1	30
420.498	1	29
420.669	1	25
420.839	1	27
421.010	1	35
421.180	1	28
421.351	1	18
421.522	1	39
421.692	1	27
421.863	1	28
422.033	1	37
422.204	1	26
422.375	1	29
422.545	1	51
422.716	1	17
422.886	1	27
423.057	1	28
423.228	1	18
423.398	1	16
423.569	1	28
423.740	1	21
423.910	1	10
424.081	1	31
424.251	1	19
424.422	1	39
424.593	1	21
424.763	1	25
424.934	1	24
425.104	1	22
425.275	1	31
425.445	1	21
425.616	1	19
425.787	1	30
425.957	1	30
426.128	1	26
426.298	1	35
426.469	1	12
426.640	1	24
426.810	1	32
426.981	1	21
427.151	1	28
427.322	1	32
427.493	1	26
427.663	1	34
427.834	1	27
428.004	1	28
428.175	1	37
428.345	1	28
428.516	1	16
428.687	1	29
428.857	1	28
429.028	1	16
429.198	1	29
429.369	1	31
429.540	1	25
429.710	1	15
429.881	1	27
430.051	1	23
430.222	1	28
430.392	1	18
430.563	1	40
430.734	1	33
430.904	1	34
431.075	1	37
431.245	1	17
431.416	1	33
431.586	1	31
431.757	1	18
431.927	1	13
432.098	1	27
432.269	1	18
432.439	1	25
432.610	1	33
432.780	1	21
432.951	1	21
433.121	1	35
433.292	1	39
433.462	1	26
433.633	1	31
433.804	1	38
433.974	1	22
434.145	1	31
434.315	1	23
434.486	1	18
434.656	1	34
434.827	1	20
434.997	1	11
435.168	1	40
435.339	1	34
435.509	1	30
435.680	1	33
435.850	1	28
436.021	1	17
436.191	1	37
436.362	1	25
436.532	1	22
436.703	1	32
436.873	1	20
437.044	1	18
437.214	1	32
437.385	1	32
437.556	1	29
437.726	1	43
437.897	1	35
438.067	1	29
438.238	1	29
438.408	1	29
438.579	1	22
438.749	1	12
438.920	1	23
439.090	1	21
439.261	1	28
439.431	1	21
439.602	1	22
439.772	1	21
439.943	1	24
440.113	1	29
440.284	1	27
440.455	1	27
440.625	1	16
440.796	1	21
440.966	1	17
441.137	1	22
441.307	1	26
441.478	1	33
441.648	1	28
441.819	1	18
441.989	1	23
442.160	1	26
442.330	1	29
442.501	1	26
442.671	1	21
442.842	1	12
443.012	1	22
443.183	1	27
443.353	1	17
443.524	1	25
443.694	1	29
443.865	1	16
444.035	1	26
444.206	1	23
444.376	1	19
444.547	1	33
444.717	1	20
444.888	1	14
445.058	1	34
445.229	1	19
445.399	1	22
445.570	1	19
445.740	1	15
445.911	1	22
446.081	1	15
446.252	1	34
446.422	1	14
446.593	1	19
446.763	1	20
446.934	1	1
447.104	1	21
447.275	1	25
447.445	1	19
447.616	1	18
447.786	1	19
447.957	1	21
448.127	1	16
448.298	1	27
448.468	1	16
448.639	1	19
448.809	1	16
448.979	1	17
449.150	1	21
449.320	1	20
449.491	1	32
449.661	1	18
449.832	1	16
450.002	1	31
450.173	1	23
450.343	1	18
450.514	1	14
450.684	1	12
450.855	1	15
451.025	1	30
451.196	1	22
451.366	1	23
451.537	1	18
451.707	1	9
451.878	1	18
452.048	1	27
452.218	1	26
452.389	1	26
452.559	1	15
452.730	1	24
452.900	1	33
453.071	1	9
453.241	1	20
453.412	1	17
453.582	1	23
453.753	1	28
453.923	1	15
454.093	1	13
454.264	1	30
454.434	1	10
454.605	1	16
454.775	1	18
454.946	1	23
455.116	1	15
455.287	1	10
455.457	1	7
455.628	1	21
455.798	1	26
455.968	1	23
456.139	1	16
456.309	1	19
456.480	1	8
456.650	1	7
456.821	1	11
456.991	1	22
457.161	1	12
457.332	1	26
457.502	1	15
457.673	1	19
457.843	1	22
458.014	1	18
458.184	1	21
458.355	1	16
458.525	1	22
458.695	1	20
458.866	1	18
459.036	1	19
459.207	1	17
459.377	1	14
459.548	1	31
459.718	1	15
459.888	1	25
460.059	1	17
460.229	1	17
460.400	1	25
460.570	1	13
460.740	1	18
460.911	1	20
461.081	1	18
461.252	1	19
461.422	1	18
461.593	1	12
461.763	1	16
461.933	1	23
462.104	1	13
462.274	1	18
462.445	1	15
462.615	1	16
462.785	1	17
462.956	1	18
463.126	1	25
463.297	1	16
463.467	1	18
463.638	1	15
463.808	1	8
463.978	1	10
464.149	1	12
464.319	1	13
464.490	1	30
464.660	1	10
464.830	1	15
465.001	1	12
465.171	1	9
465.342	1	17
465.512	1	2
465.682	1	16
465.853	1	27
466.023	1	7
466.194	1	15
466.364	1	17
466.534	1	11
466.705	1	9
466.875	1	11
467.045	1	6
467.216	1	29
467.386	1	4
467.557	1	11
467.727	1	6
467.897	1	9
468.068	1	8
468.238	1	12
468.409	1	16
468.579	1	22
468.749	1	8
468.920	1	8
469.090	1	20
469.260	1	9
469.431	1	14
469.601	1	19
469.772	1	8
469.942	1	6
470.112	1	20
470.283	1	7
470.453	1	11
470.623	1	21
470.794	1	10
470.964	1	13
471.135	1	19
471.305	1	8
471.475	1	16
471.646	1	9
471.816	1	10
471.986	1	14
472.157	1	18
472.327	1	5
472.497	1	24
472.668	1	7
472.838	1	17
473.009	1	18
473.179	1	0
473.349	1	7
473.520	1	25
473.690	1	7
473.860	1	18
474.031	1	12
474.201	1	9
474.371	1	21
474.542	1	15
474.712	1	12
474.882	1	19
475.053	1	17
475.223	1	6
475.394	1	14
475.564	1	10
475.734	1	20
475.905	1	23
476.075	1	17
476.245	1	21
476.416	1	15
476.586	1	15
476.756	1	13
476.927	1	23
477.097	1	14
477.267	1	-3
477.438	1	16
477.608	1	4
477.778	1	16
477.949	1	16
478.119	1	26
478.289	1	25
478.460	1	18
478.630	1	17
478.800	1	11
478.971	1	23
479.141	1	17
479.311	1	-1
479.482	1	10
479.652	1	10
479.822	1	16
479.993	1	10
480.163	1	16
480.333	1	16
480.504	1	23
480.674	1	8
480.844	1	15
481.015	1	14
481.185	1	3
481.355	1	20
481.525	1	5
481.696	1	15
481.866	1	7
482.036	1	10
482.207	1	6
482.377	1	9
482.547	1	16
482.718	1	16
482.888	1	17
483.058	1	12
483.229	1	4
483.399	1	12
483.569	1	0
483.740	1	13
483.910	1	15
484.080	1	11
484.250	1	17
484.421	1	7
484.591	1	9
484.761	1	27
484.932	1	12
485.102	1	20
485.272	1	6
485.443	1	23
485.613	1	16
485.783	1	10
485.953	1	17
486.124	1	20
486.294	1	-1
486.464	1	10
486.635	1	12
486.805	1	9
486.975	1	8
487.146	1	16
487.316	1	10
487.486	1	13
487.656	1	6
487.827	1	14
487.997	1	-1
488.167	1	10
488.338	1	18
488.508	1	13
488.678	1	0
488.848	1	20
489.019	1	3
489.189	1	13
489.359	1	3
489.529	1	15
489.700	1	2
489.870	1	22
490.040	1	5
490.211	1	2
490.381	1	5
490.551	1	9
490.721	1	20
490.892	1	6
491.062	1	-1
491.232	1	13
491.402	1	10
491.573	1	-3
491.743	1	22
491.913	1	0
492.084	1	18
492.254	1	8
492.424	1	13
492.594	1	5
492.765	1	10
492.935	1	8
493.105	1	17
493.275	1	10
493.446	1	12
493.616	1	22
493.786	1	6
493.956	1	3
494.127	1	12
494.297	1	4
494.467	1	7
494.637	1	-1
494.808	1	10
494.978	1	-1
495.148	1	12
495.318	1	5
495.489	1	15
495.659	1	11
495.829	1	0
495.999	1	0
496.170	1	12
496.340	1	18
496.510	1	15
496.680	1	7
496.851	1	9
497.021	1	3
497.191	1	-1
497.361	1	10
497.532	1	5
497.702	1	7
497.872	1	1
498.042	1	11
498.213	1	8
498.383	1	9
498.553	1	8
498.723	1	2
498.894	1	-1
499.064	1	8
499.234	1	14
499.404	1	14
499.574	1	20
499.745	1	14
499.915	1	4
500.085	1	12
500.255	1	18
500.426	1	0
500.596	1	18
500.766	1	5
500.936	1	11
501.106	1	4
501.277	1	8
501.447	1	4
501.617	1	11
501.787	1	7
501.958	1	3
502.128	1	4
502.298	1	6
502.468	1	3
502.638	1	14
502.809	1	4
502.979	1	0
503.149	1	3
503.319	1	4
503.489	1	4
503.660	1	13
503.830	1	5
504.000	1	15
504.170	1	4
504.340	1	0
504.511	1	13
504.681	1	4
504.851	1	0
505.021	1	19
505.192	1	7
505.362	1	11
505.532	1	2
505.702	1	1
505.872	1	6
506.043	1	9
506.213	1	5
506.383	1	6
506.553	1	12
506.723	1	12
506.893	1	16
507.064	1	13
507.234	1	-1
507.404	1	7
507.574	1	11
507.744	1	6
507.915	1	10
508.085	1	18
508.255	1	5
508.425	1	2
508.595	1	8
508.766	1	15
508.936	1	6
509.106	1	19
509.276	1	20
509.446	1	-5
509.616	1	2
509.787	1	13
509.957	1	9
510.127	1	3
510.297	1	2
510.467	1	2
510.638	1	6
510.808	1	-6
510.978	1	-2
511.148	1	12
511.318	1	7
511.488	1	-4
511.659	1	11
511.829	1	-4
511.999	1	14
512.169	1	3
512.339	1	2
512.509	1	-1
512.680	1	7
512.850	1	8
513.020	1	12
513.190	1	5
513.360	1	2
513.530	1	0
513.700	1	14
513.871	1	8
514.041	1	4
514.211	1	12
514.381	1	14
514.551	1	9
514.721	1	2
514.892	1	9
515.062	1	6
515.232	1	1
515.402	1	-5
515.572	1	2
515.742	1	5
515.912	1	12
516.083	1	3
516.253	1	7
516.423	1	1
516.593	1	2
516.763	1	11
516.933	1	4
517.104	1	8
517.274	1	6
517.444	1	1
517.614	1	1
517.784	1	3
517.954	1	2
518.124	1	-1
518.294	1	4
518.465	1	14
518.635	1	2
518.805	1	-6
518.975	1	9
519.145	1	1
519.315	1	3
519.485	1	4
519.656	1	18
519.826	1	2
519.996	1	-1
520.166	1	2
520.336	1	8
520.506	1	4
520.676	1	5
520.846	1	13
521.017	1	7
521.187	1	4
521.357	1	9
521.527	1	-1
521.697	1	3
521.867	1	6
522.037	1	9
522.207	1	16
522.377	1	3
522.548	1	4
522.718	1	10
522.888	1	15
523.058	1	4
523.228	1	0
523.398	1	8
523.568	1	3
523.738	1	4
523.909	1	12
524.079	1	9
524.249	1	-2
524.419	1	1
524.589	1	2
524.759	1	-4
524.929	1	-2
525.099	1	7
525.269	1	11
525.439	1	2
525.610	1	21
525.780	1	2
525.950	1	10
526.120	1	3
526.290	1	3
526.460	1	-10
526.630	1	9
526.800	1	7
526.970	1	7
527.140	1	10
527.311	1	-4
527.481	1	-1
527.651	1	5
527.821	1	-7
527.991	1	11
528.161	1	11
528.331	1	-3
528.501	1	12
528.671	1	7
528.841	1	5
529.011	1	2
529.181	1	10
529.352	1	3
529.522	1	-4
529.692	1	9
529.862	1	1
530.032	1	6
530.202	1	-1
530.372	1	6
530.542	1	1
530.712	1	13
530.882	1	2
531.052	1	11
531.222	1	-6
531.392	1	3
531.563	1	7
531.733	1	7
531.903	1	3
532.073	1	12
532.243	1	-1
532.413	1	10
532.583	1	3
532.753	1	6
532.923	1	-5
533.093	1	1
533.263	1	7
533.433	1	4
533.603	1	7
533.773	1	3
533.943	1	5
534.113	1	1
534.284	1	-3
534.454	1	11
534.624	1	17
534.794	1	-4
534.964	1	5
535.134	1	-9
535.304	1	7
535.474	1	17
535.644	1	-4
535.814	1	-1
535.984	1	-5
536.154	1	-3
536.324	1	9
536.494	1	2
536.664	1	11
536.834	1	7
537.004	1	9
537.174	1	7
537.344	1	8
537.514	1	-10
537.685	1	7
537.855	1	15
538.025	1	10
538.195	1	4
538.365	1	5
538.535	1	10
538.705	1	8
538.875	1	-2
539.045	1	-2
539.215	1	9
539.385	1	-8
539.555	1	9
539.725	1	6
539.895	1	0
540.065	1	20
540.235	1	10
540.405	1	-1
540.575	1	4
540.745	1	5
540.915	1	6
541.085	1	7
541.255	1	2
541.425	1	11
541.595	1	0
541.765	1	7
541.935	1	4
542.105	1	-5
542.275	1	3
542.445	1	-8
542.615	1	5
542.785	1	5
542.955	1	7
543.125	1	-1
543.295	1	8
543.465	1	6
543.635	1	3
543.805	1	9
543.975	1	7
544.145	1	7
544.315	1	12
544.485	1	2
544.655	1	10
544.825	1	-6
544.995	1	6
545.165	1	-5
545.335	1	7
545.505	1	-2
545.675	1	3
545.845	1	6
546.015	1	6
546.185	1	12
546.355	1	12
546.525	1	0
546.695	1	6
546.865	1	-4
547.035	1	2
547.205	1	-2
547.375	1	6
547.545	1	12
547.715	1	0
547.885	1	-1
548.055	1	-1
548.225	1	4
548.395	1	-11
548.565	1	10
548.735	1	6
548.905	1	2
549.075	1	-1
549.245	1	5
549.415	1	-6
549.585	1	4
549.755	1	6
549.925	1	-1
550.095	1	5
550.265	1	-3
550.435	1	3
550.605	1	-2
550.775	1	6
550.945	1	11
551.115	1	10
551.285	1	3
551.455	1	1
551.625	1	1
551.795	1	3
551.965	1	-5
552.135	1	0
552.305	1	5
552.475	1	-12
552.645	1	6
552.815	1	2
552.985	1	10
553.155	1	-1
553.325	1	16
553.495	1	10
553.665	1	-6
553.835	1	-2
554.004	1	0
554.174	1	5
554.344	1	4
554.514	1	1
554.684	1	1
554.854	1	14
555.024	1	-3
555.194	1	-6
555.364	1	8
555.534	1	6
555.704	1	1
555.874	1	5
556.044	1	5
556.214	1	-3
556.384	1	3
556.554	1	13
556.724	1	8
556.894	1	0
557.064	1	-8
557.234	1	-6
557.404	1	14
557.573	1	1
557.743	1	6
557.913	1	-6
558.083	1	2
558.253	1	3
558.423	1	7
558.593	1	4
558.763	1	-8
558.933	1	-1
559.103	1	4
559.273	1	-6
559.443	1	11
559.613	1	14
559.783	1	5
559.953	1	1
560.122	1	3
560.292	1	3
560.462	1	-1
560.632	1	7
560.802	1	7
560.972	1	13
561.142	1	10
561.312	1	9
561.482	1	9
561.652	1	3
561.822	1	-1
561.992	1	3
562.162	1	10
562.331	1	2
562.501	1	-1
562.671	1	6
562.841	1	-10
563.011	1	7
563.181	1	3
563.351	1	-4
563.521	1	8
563.691	1	0
563.861	1	5
564.031	1	11
564.201	1	13
564.370	1	-3
564.540	1	5
564.710	1	-8
564.880	1	7
565.050	1	0
565.220	1	-8
565.390	1	5
565.560	1	3
565.730	1	2
565.900	1	7
566.069	1	14
566.239	1	1
566.409	1	5
566.579	1	3
566.749	1	-1
566.919	1	3
567.089	1	6
567.259	1	8
567.429	1	-9
567.599	1	-6
567.768	1	9
567.938	1	5
568.108	1	-9
568.278	1	5
568.448	1	-5
568.618	1	-4
568.788	1	6
568.958	1	0
569.128	1	9
569.297	1	-1
569.467	1	-5
569.637	1	12
569.807	1	4
569.977	1	8
570.147	1	2
570.317	1	-7
570.487	1	1
570.656	1	9
570.826	1	-7
570.996	1	-1
571.166	1	8
571.336	1	-3
571.506	1	9
571.676	1	7
571.846	1	7
572.015	1	1
572.185	1	5
572.355	1	6
572.525	1	5
572.695	1	3
572.865	1	-2
573.035	1	6
573.205	1	15
573.374	1	1
573.544	1	1
573.714	1	11
573.884	1	5
574.054	1	5
574.224	1	3
574.394	1	0
574.563	1	3
574.733	1	-4
574.903	1	2
575.073	1	6
575.243	1	-4
575.413	1	2
575.583	1	-2
575.752	1	7
575.922	1	3
576.092	1	7
576.262	1	9
576.432	1	12
576.602	1	-1
576.772	1	11
576.941	1	8
577.111	1	5
577.281	1	-7
577.451	1	1
577.621	1	7
577.791	1	13
577.960	1	-2
578.130	1	1
578.300	1	2
578.470	1	11
578.640	1	3
578.810	1	8
578.979	1	3
579.149	1	1
579.319	1	-5
579.489	1	-2
579.659	1	0
579.829	1	4
579.998	1	9
580.168	1	7
580.338	1	7
580.508	1	3
580.678	1	12
580.848	1	5
581.017	1	-6
581.187	1	1
581.357	1	-10
581.527	1	-1
581.697	1	7
581.867	1	9
582.036	1	-2
582.206	1	3
582.376	1	10
582.546	1	0
582.716	1	1
582.885	1	-3
583.055	1	-5
583.225	1	-4
583.395	1	8
583.565	1	2
583.735	1	5
583.904	1	1
584.074	1	3
584.244	1	4
584.414	1	6
584.584	1	4
584.753	1	-4
584.923	1	8
585.093	1	5
585.263	1	8
585.433	1	5
585.602	1	-9
585.772	1	-5
585.942	1	-2
586.112	1	8
586.282	1	-6
586.451	1	-1
586.621	1	-13
586.791	1	2
586.961	1	-3
587.131	1	3
587.300	1	0
587.470	1	-7
587.640	1	14
587.810	1	2
587.980	1	2
588.149	1	2
588.319	1	11
588.489	1	-3
588.659	1	-2
588.829	1	0
588.998	1	14
589.168	1	11
589.338	1	-2
589.508	1	-5
589.677	1	-1
589.847	1	-2
590.017	1	8
590.187	1	2
590.357	1	11
590.526	1	11
590.696	1	10
590.866	1	4
591.036	1	-1
591.205	1	11
591.375	1	0
591.545	1	6
591.715	1	5
591.885	1	-1
592.054	1	4
592.224	1	3
592.394	1	7
592.564	1	9
592.733	1	6
592.903	1	-3
593.073	1	-4
593.243	1	8
593.412	1	6
593.582	1	-8
593.752	1	-4
593.922	1	0
594.091	1	-2
594.261	1	3
594.431	1	8
594.601	1	5
594.771	1	-1
594.940	1	5
595.110	1	1
595.280	1	6
595.450	1	3
595.619	1	5
595.789	1	-1
595.959	1	15
596.129	1	5
596.298	1	-2
596.468	1	7
596.638	1	10
596.808	1	5
596.977	1	2
597.147	1	6
597.317	1	-9
597.487	1	12
597.656	1	10
597.826	1	8
597.996	1	3
598.166	1	-4
598.335	1	-4
598.505	1	6
598.675	1	-5
598.844	1	3
599.014	1	-2
599.184	1	4
599.354	1	-2
599.523	1	11
599.693	1	10
599.863	1	4
600.033	1	0
600.202	1	4
600.372	1	6
600.542	1	15
600.712	1	2
600.881	1	0
601.051	1	4
601.221	1	10
601.390	1	-5
601.560	1	12
601.730	1	3
601.900	1	7
602.069	1	8
602.239	1	-4
602.409	1	-11
602.578	1	6
602.748	1	8
602.918	1	6
603.088	1	4
603.257	1	0
603.427	1	-9
603.597	1	1
603.767	1	10
603.936	1	-4
604.106	1	6
604.276	1	2
604.445	1	12
604.615	1	-3
604.785	1	-1
604.954	1	-5
605.124	1	8
605.294	1	-2
605.464	1	-4
605.633	1	6
605.803	1	12
605.973	1	1
606.142	1	1
606.312	1	8
606.482	1	2
606.652	1	3
606.821	1	-6
606.991	1	6
607.161	1	-3
607.330	1	6
607.500	1	7
607.670	1	-4
607.839	1	18
608.009	1	0
608.179	1	3
608.348	1	5
608.518	1	2
608.688	1	9
608.858	1	-2
609.027	1	-8
609.197	1	2
609.367	1	16
609.536	1	-3
609.706	1	6
609.876	1	-8
610.045	1	-1
610.215	1	7
610.385	1	2
610.554	1	5
610.724	1	10
610.894	1	4
611.063	1	4
611.233	1	-7
611.403	1	1
611.572	1	-1
611.742	1	7
611.912	1	2
612.081	1	-4
612.251	1	3
612.421	1	6
612.590	1	4
612.760	1	-6
612.930	1	5
613.099	1	-2
613.269	1	3
613.439	1	-6
613.608	1	6
613.778	1	6
613.948	1	-3
614.117	1	2
614.287	1	9
614.457	1	1
614.626	1	1
614.796	1	-2
614.966	1	-7
615.135	1	-1
615.305	1	16
615.475	1	7
615.644	1	2
615.814	1	8
615.984	1	4
616.153	1	-7
616.323	1	-1
616.493	1	0
616.662	1	16
616.832	1	2
617.002	1	3
617.171	1	3
617.341	1	10
617.511	1	-4
617.680	1	-2
617.850	1	2
618.019	1	11
618.189	1	8
618.359	1	11
618.528	1	6
618.698	1	10
618.868	1	-10
619.037	1	5
619.207	1	0
619.377	1	-1
619.546	1	-3
619.716	1	12
619.885	1	3
620.055	1	-6
620.225	1	2
620.394	1	2
620.564	1	11
620.734	1	5
620.903	1	-6
621.073	1	13
621.242	1	13
621.412	1	-6
621.582	1	-3
621.751	1	6
621.921	1	7
622.091	1	6
622.260	1	8
622.430	1	12
622.599	1	0
622.769	1	6
622.939	1	3
623.108	1	4
623.278	1	-5
623.448	1	0
623.617	1	-3
623.787	1	5
623.956	1	6
624.126	1	7
624.296	1	-1
624.465	1	8
624.635	1	5
624.804	1	3
624.974	1	0
625.144	1	-4
625.313	1	1
625.483	1	0
625.652	1	-1
625.822	1	-6
625.992	1	-4
626.161	1	14
626.331	1	2
626.501	1	7
626.670	1	3
626.840	1	-5
627.009	1	-1
627.179	1	7
627.348	1	8
627.518	1	5
627.688	1	6
627.857	1	14
628.027	1	-1
628.196	1	11
628.366	1	3
628.536	1	4
628.705	1	0
628.875	1	-6
629.044	1	-6
629.214	1	9
629.384	1	-1
629.553	1	5
629.723	1	-1
629.892	1	9
630.062	1	8
630.232	1	7
630.401	1	8
630.571	1	7
630.740	1	0
630.910	1	4
631.079	1	6
631.249	1	8
631.419	1	10
631.588	1	-1
631.758	1	2
631.927	1	-4
632.097	1	7
632.266	1	-7
632.436	1	5
632.606	1	-5
632.775	1	3
632.945	1	10
633.114	1	5
633.284	1	5
633.453	1	4
633.623	1	-7
633.793	1	15
633.962	1	0
634.132	1	8
634.301	1	-1
634.471	1	13
634.640	1	4
634.810	1	8
634.979	1	8
635.149	1	12
635.319	1	6
635.488	1	3
635.658	1	5
635.827	1	-7
635.997	1	-1
636.166	1	0
636.336	1	8
636.505	1	12
636.675	1	6
636.845	1	6
637.014	1	7
637.184	1	5
637.353	1	5
637.523	1	12
637.692	1	0
637.862	1	1
638.031	1	0
638.201	1	10
638.370	1	14
638.540	1	7
638.710	1	4
638.879	1	-7
639.049	1	4
639.218	1	-2
639.388	1	9
639.557	1	-5
639.727	1	-1
639.896	1	6
640.066	1	3
640.235	1	10
640.405	1	6
640.574	1	5
640.744	1	-3
640.914	1	7
641.083	1	4
641.253	1	1
641.422	1	-4
641.592	1	19
641.761	1	-3
641.931	1	3
642.100	1	25
642.270	1	7
642.439	1	4
642.609	1	11
642.778	1	6
642.948	1	4
643.117	1	7
643.287	1	13
643.456	1	7
643.626	1	14
643.795	1	6
643.965	1	2
644.134	1	-1
644.304	1	3
644.473	1	15
644.643	1	7
644.812	1	-2
644.982	1	8
645.151	1	9
645.321	1	2
645.490	1	10
645.660	1	0
645.829	1	-6
645.999	1	0
646.168	1	15
646.338	1	4
646.507	1	6
646.677	1	8
646.846	1	0
647.016	1	-2
647.185	1	8
647.355	1	-13
647.524	1	14
647.694	1	14
647.863	1	15
648.033	1	13
648.202	1	6
648.372	1	0
648.541	1	-3
648.711	1	5
648.880	1	3
649.050	1	-8
649.219	1	6
649.389	1	18
649.558	1	6
649.728	1	8
649.897	1	-4
650.067	1	7
650.236	1	4
650.406	1	8
650.575	1	8
650.745	1	5
650.914	1	-5
651.084	1	2
651.253	1	4
651.423	1	1
651.592	1	1
651.762	1	8
651.931	1	7
652.101	1	-1
652.270	1	2
652.440	1	18
652.609	1	-7
652.778	1	3
652.948	1	13
653.117	1	12
653.287	1	2
653.456	1	3
653.626	1	6
653.795	1	2
653.965	1	7
654.134	1	7
654.304	1	-9
654.473	1	10
654.643	1	13
654.812	1	9
654.982	1	6
655.151	1	-6
655.320	1	6
655.490	1	5
655.659	1	3
655.829	1	-6
655.998	1	4
656.168	1	6
656.337	1	7
656.507	1	10
656.676	1	6
656.846	1	6
657.015	1	4
657.184	1	4
657.354	1	3
657.523	1	4
657.693	1	2
657.862	1	15
658.032	1	7
658.201	1	6
658.371	1	9
658.540	1	4
658.709	1	4
658.879	1	2
659.048	1	3
659.218	1	4
659.387	1	7
659.557	1	5
659.726	1	9
659.895	1	-1
660.065	1	-3
660.234	1	-2
660.404	1	15
660.573	1	-1
660.743	1	0
660.912	1	5
661.081	1	14
661.251	1	-4
661.420	1	12
661.590	1	-2
661.759	1	10
661.929	1	11
662.098	1	8
662.267	1	4
662.437	1	8
662.606	1	-4
662.776	1	-1
662.945	1	-1
663.115	1	0
663.284	1	-5
663.453	1	13
663.623	1	6
663.792	1	13
663.962	1	0
664.131	1	10
664.300	1	14
664.470	1	3
664.639	1	8
664.809	1	1
664.978	1	16
665.148	1	15
665.317	1	9
665.486	1	17
665.656	1	-2
665.825	1	6
665.995	1	2
666.164	1	5
666.333	1	4
666.503	1	3
666.672	1	-4
666.842	1	-1
667.011	1	8
667.180	1	14
667.350	1	11
667.519	1	1
667.689	1	6
667.858	1	4
668.027	1	14
668.197	1	-1
668.366	1	-4
668.536	1	1
668.705	1	8
668.874	1	7
669.044	1	5
669.213	1	15
669.382	1	-5
669.552	1	6
669.721	1	11
669.891	1	18
670.060	1	9
670.229	1	18
670.399	1	3
670.568	1	13
670.738	1	17
670.907	1	-4
671.076	1	8
671.246	1	1
671.415	1	0
671.584	1	-6
671.754	1	-3
671.923	1	-3
672.093	1	3
672.262	1	-2
672.431	1	14
672.601	1	5
672.770	1	-7
672.939	1	2
673.109	1	-5
673.278	1	10
673.448	1	15
673.617	1	0
673.786	1	17
