325.333	1	4
325.504	1	12
325.675	1	-2
325.846	1	1
326.017	1	1
326.188	1	2
326.359	1	2
326.531	1	-7
326.702	1	-11
326.873	1	7
327.044	1	4
327.215	1	6
327.386	1	-2
327.557	1	-1
327.728	1	1
327.899	1	5
328.070	1	4
328.241	1	6
328.412	1	-10
328.583	1	7
328.754	1	5
328.926	1	6
329.097	1	-4
329.268	1	8
329.439	1	-1
329.610	1	15
329.781	1	-3
329.952	1	11
330.123	1	2
330.294	1	5
330.465	1	6
330.636	1	5
330.807	1	-6
330.978	1	2
331.149	1	1
331.320	1	0
331.492	1	8
331.663	1	8
331.834	1	14
332.005	1	9
332.176	1	14
332.347	1	8
332.518	1	-5
332.689	1	8
332.860	1	1
333.031	1	15
333.202	1	1
333.373	1	10
333.544	1	3
333.715	1	9
333.886	1	-7
334.057	1	5
334.228	1	-7
334.399	1	12
334.570	1	6
334.741	1	-4
334.912	1	6
335.084	1	17
335.255	1	0
335.426	1	-6
335.597	1	2
335.768	1	-8
335.939	1	6
336.110	1	0
336.281	1	0
336.452	1	-8
336.623	1	-1
336.794	1	5
336.965	1	7
337.136	1	9
337.307	1	5
337.478	1	1
337.649	1	3
337.820	1	7
337.991	1	7
338.162	1	13
338.333	1	-3
338.504	1	5
338.675	1	7
338.846	1	8
339.017	1	-12
339.188	1	-2
339.359	1	-5
339.530	1	7
339.701	1	6
339.872	1	16
340.043	1	-9
340.214	1	6
340.385	1	14
340.556	1	-2
340.727	1	6
340.898	1	6
341.069	1	4
341.240	1	2
341.411	1	2
341.582	1	1
341.753	1	1
341.924	1	6
342.095	1	13
342.266	1	14
342.437	1	2
342.608	1	-3
342.779	1	7
342.950	1	5
343.121	1	1
343.292	1	1
343.463	1	1
343.634	1	13
343.805	1	10
343.976	1	15
344.147	1	7
344.318	1	8
344.489	1	-2
344.660	1	6
344.831	1	1
345.002	1	-2
345.173	1	8
345.344	1	8
345.515	1	6
345.686	1	3
345.857	1	8
346.028	1	6
346.199	1	0
346.370	1	6
346.541	1	3
346.712	1	-2
346.883	1	0
347.054	1	6
347.225	1	5
347.396	1	15
347.567	1	1
347.738	1	-3
347.909	1	14
348.080	1	-7
348.251	1	9
348.422	1	12
348.593	1	9
348.764	1	1
348.935	1	13
349.106	1	-4
349.277	1	5
349.448	1	12
349.619	1	2
349.790	1	5
349.961	1	7
350.132	1	4
350.303	1	15
350.474	1	9
350.645	1	9
350.816	1	7
350.987	1	5
351.157	1	2
351.328	1	6
351.499	1	13
351.670	1	1
351.841	1	8
352.012	1	9
352.183	1	14
352.354	1	11
352.525	1	13
352.696	1	18
352.867	1	5
353.038	1	16
353.209	1	11
353.380	1	6
353.551	1	-2
353.722	1	13
353.893	1	1
354.064	1	10
354.235	1	11
354.406	1	4
354.576	1	12
354.747	1	5
354.918	1	6
355.089	1	7
355.260	1	15
355.431	1	15
355.602	1	-4
355.773	1	4
355.944	1	0
356.115	1	7
356.286	1	14
356.457	1	20
356.628	1	11
356.799	1	10
356.970	1	20
357.141	1	4
357.311	1	0
357.482	1	-2
357.653	1	5
357.824	1	9
357.995	1	10
358.166	1	3
358.337	1	6
358.508	1	8
358.679	1	11
358.850	1	11
359.021	1	3
359.192	1	10
359.363	1	0
359.533	1	8
359.704	1	17
359.875	1	6
360.046	1	6
360.217	1	-2
360.388	1	13
360.559	1	6
360.730	1	7
360.901	1	3
361.072	1	20
361.243	1	9
361.414	1	7
361.584	1	2
361.755	1	8
361.926	1	1
362.097	1	14
362.268	1	5
362.439	1	-3
362.610	1	8
362.781	1	13
362.952	1	7
363.123	1	7
363.293	1	5
363.464	1	8
363.635	1	7
363.806	1	8
363.977	1	5
364.148	1	8
364.319	1	10
364.490	1	13
364.661	1	1
364.832	1	17
365.002	1	10
365.173	1	12
365.344	1	9
365.515	1	-2
365.686	1	6
365.857	1	10
366.028	1	14
366.199	1	5
366.370	1	12
366.540	1	4
366.711	1	-5
366.882	1	0
367.053	1	5
367.224	1	26
367.395	1	19
367.566	1	10
367.737	1	13
367.908	1	5
368.078	1	8
368.249	1	9
368.420	1	5
368.591	1	-4
368.762	1	11
368.933	1	1
369.104	1	0
369.274	1	9
369.445	1	7
369.616	1	5
369.787	1	11
369.958	1	16
370.129	1	0
370.300	1	14
370.471	1	7
370.641	1	6
370.812	1	3
370.983	1	7
371.154	1	10
371.325	1	16
371.496	1	18
371.667	1	10
371.837	1	10
372.008	1	7
372.179	1	9
372.350	1	20
372.521	1	12
372.692	1	6
372.863	1	5
373.033	1	2
373.204	1	6
373.375	1	11
373.546	1	13
373.717	1	8
373.888	1	18
374.059	1	13
374.229	1	10
374.400	1	-1
374.571	1	12
374.742	1	15
374.913	1	19
375.084	1	1
375.254	1	9
375.425	1	15
375.596	1	15
375.767	1	9
375.938	1	13
376.109	1	9
376.279	1	7
376.450	1	17
376.621	1	17
376.792	1	4
376.963	1	8
377.134	1	14
377.304	1	6
377.475	1	3
377.646	1	7
377.817	1	0
377.988	1	11
378.159	1	10
378.329	1	13
378.500	1	4
378.671	1	14
378.842	1	10
379.013	1	6
379.184	1	11
379.354	1	8
379.525	1	16
379.696	1	16
379.867	1	19
380.038	1	12
380.209	1	11
380.379	1	17
380.550	1	6
380.721	1	10
380.892	1	9
381.063	1	10
381.233	1	15
381.404	1	9
381.575	1	20
381.746	1	8
381.917	1	11
382.087	1	7
382.258	1	5
382.429	1	12
382.600	1	15
382.771	1	4
382.941	1	11
383.112	1	8
383.283	1	21
383.454	1	13
383.625	1	13
383.795	1	9
383.966	1	4
384.137	1	20
384.308	1	8
384.479	1	6
384.649	1	14
384.820	1	12
384.991	1	-3
385.162	1	11
385.333	1	5
385.503	1	8
385.674	1	0
385.845	1	16
386.016	1	13
386.187	1	4
386.357	1	13
386.528	1	7
386.699	1	7
386.870	1	16
387.041	1	14
387.211	1	15
387.382	1	21
387.553	1	15
387.724	1	3
387.894	1	16
388.065	1	17
388.236	1	7
388.407	1	13
388.578	1	11
388.748	1	8
388.919	1	18
389.090	1	8
389.261	1	5
389.431	1	19
389.602	1	6
389.773	1	11
389.944	1	17
390.114	1	5
390.285	1	16
390.456	1	17
390.627	1	18
390.798	1	13
390.968	1	18
391.139	1	19
391.310	1	3
391.481	1	5
391.651	1	8
391.822	1	2
391.993	1	10
392.164	1	8
392.334	1	10
392.505	1	6
392.676	1	28
392.847	1	18
393.017	1	15
393.188	1	9
393.359	1	4
393.530	1	14
393.700	1	11
393.871	1	9
394.042	1	14
394.213	1	6
394.383	1	13
394.554	1	15
394.725	1	16
394.896	1	0
395.066	1	23
395.237	1	8
395.408	1	11
395.579	1	12
395.749	1	12
395.920	1	7
396.091	1	18
396.262	1	10
396.432	1	13
396.603	1	21
396.774	1	27
396.945	1	21
397.115	1	15
397.286	1	9
397.457	1	16
397.627	1	14
397.798	1	15
397.969	1	14
398.140	1	11
398.310	1	11
398.481	1	19
398.652	1	9
398.823	1	0
398.993	1	8
399.164	1	19
399.335	1	21
399.505	1	15
399.676	1	11
399.847	1	12
400.018	1	14
400.188	1	8
400.359	1	17
400.530	1	14
400.700	1	17
400.871	1	12
401.042	1	6
401.213	1	18
401.383	1	12
401.554	1	19
401.725	1	15
401.895	1	8
402.066	1	11
402.237	1	21
402.408	1	15
402.578	1	18
402.749	1	10
402.920	1	17
403.090	1	11
403.261	1	11
403.432	1	14
403.603	1	23
403.773	1	19
403.944	1	24
404.115	1	16
404.285	1	19
404.456	1	8
404.627	1	12
404.797	1	1
404.968	1	8
405.139	1	14
405.310	1	39
405.480	1	13
405.651	1	5
405.822	1	26
405.992	1	0
406.163	1	10
406.334	1	3
406.504	1	14
406.675	1	24
406.846	1	11
407.016	1	23
407.187	1	12
407.358	1	13
407.528	1	7
407.699	1	2
407.870	1	11
408.041	1	13
408.211	1	18
408.382	1	10
408.553	1	3
408.723	1	14
408.894	1	14
409.065	1	9
409.235	1	12
409.406	1	12
409.577	1	4
409.747	1	22
409.918	1	12
410.089	1	12
410.259	1	14
410.430	1	15
410.601	1	13
410.771	1	17
410.942	1	29
411.113	1	11
411.283	1	9
411.454	1	19
411.625	1	11
411.795	1	12
411.966	1	15
412.137	1	13
412.307	1	3
412.478	1	15
412.649	1	13
412.819	1	16
412.990	1	12
413.161	1	13
413.331	1	7
413.502	1	16
413.672	1	9
413.843	1	11
414.014	1	10
414.184	1	14
414.355	1	8
414.526	1	19
414.696	1	17
414.867	1	18
415.038	1	5
415.208	1	10
415.379	1	21
415.550	1	21
415.720	1	12
415.891	1	14
416.062	1	10
416.232	1	8
416.403	1	17
416.573	1	25
416.744	1	6
416.915	1	15
417.085	1	15
417.256	1	10
417.427	1	12
417.597	1	19
417.768	1	8
417.939	1	18
418.109	1	13
418.280	1	22
418.450	1	12
418.621	1	-4
418.792	1	13
418.962	1	18
419.133	1	23
419.304	1	13
419.474	1	2
419.645	1	12
419.815	1	8
419.986	1	16
420.157	1	15
420.327	1	16
420.498	1	24
420.669	1	6
420.839	1	11
421.010	1	14
421.180	1	12
421.351	1	12
421.522	1	11
421.692	1	14
421.863	1	14
422.033	1	27
422.204	1	13
422.375	1	9
422.545	1	17
422.716	1	3
422.886	1	10
423.057	1	16
423.228	1	12
423.398	1	3
423.569	1	22
423.740	1	11
423.910	1	1
424.081	1	7
424.251	1	9
424.422	1	21
424.593	1	8
424.763	1	4
424.934	1	24
425.104	1	10
425.275	1	12
425.445	1	-2
425.616	1	17
425.787	1	6
425.957	1	15
426.128	1	10
426.298	1	13
426.469	1	4
426.640	1	22
426.810	1	12
426.981	1	3
427.151	1	12
427.322	1	20
427.493	1	9
427.663	1	13
427.834	1	1
428.004	1	17
428.175	1	15
428.345	1	2
428.516	1	4
428.687	1	11
428.857	1	4
429.028	1	9
429.198	1	13
429.369	1	15
429.540	1	11
429.710	1	4
429.881	1	13
430.051	1	11
430.222	1	7
430.392	1	12
430.563	1	21
430.734	1	16
430.904	1	24
431.075	1	19
431.245	1	1
431.416	1	21
431.586	1	14
431.757	1	14
431.927	1	19
432.098	1	21
432.269	1	13
432.439	1	10
432.610	1	11
432.780	1	20
432.951	1	8
433.121	1	17
433.292	1	19
433.462	1	19
433.633	1	24
433.804	1	5
433.974	1	17
434.145	1	14
434.315	1	9
434.486	1	4
434.656	1	22
434.827	1	5
434.997	1	10
435.168	1	23
435.339	1	22
435.509	1	14
435.680	1	12
435.850	1	8
436.021	1	6
436.191	1	17
436.362	1	16
436.532	1	12
436.703	1	8
436.873	1	11
437.044	1	-2
437.214	1	11
437.385	1	4
437.556	1	1
437.726	1	20
437.897	1	18
438.067	1	9
438.238	1	15
438.408	1	21
438.579	1	23
438.749	1	10
438.920	1	11
439.090	1	11
439.261	1	6
439.431	1	6
439.602	1	8
439.772	1	7
439.943	1	20
440.113	1	15
440.284	1	14
440.455	1	11
440.625	1	6
440.796	1	21
440.966	1	7
441.137	1	8
441.307	1	2
441.478	1	19
441.648	1	12
441.819	1	14
441.989	1	22
442.160	1	14
442.330	1	17
442.501	1	18
442.671	1	9
442.842	1	4
443.012	1	5
443.183	1	13
443.353	1	4
443.524	1	15
443.694	1	22
443.865	1	13
444.035	1	8
444.206	1	18
444.376	1	4
444.547	1	21
444.717	1	8
444.888	1	6
445.058	1	24
445.229	1	12
445.399	1	7
445.570	1	13
445.740	1	7
445.911	1	4
446.081	1	8
446.252	1	3
446.422	1	14
446.593	1	3
446.763	1	11
446.934	1	9
447.104	1	4
447.275	1	15
447.445	1	15
447.616	1	17
447.786	1	14
447.957	1	9
448.127	1	6
448.298	1	12
448.468	1	9
448.639	1	6
448.809	1	13
448.979	1	4
449.150	1	16
449.320	1	13
449.491	1	19
449.661	1	7
449.832	1	11
450.002	1	15
450.173	1	8
450.343	1	13
450.514	1	11
450.684	1	12
450.855	1	5
451.025	1	11
451.196	1	8
451.366	1	17
451.537	1	3
451.707	1	-2
451.878	1	8
452.048	1	15
452.218	1	14
452.389	1	14
452.559	1	10
452.730	1	21
452.900	1	16
453.071	1	5
453.241	1	15
453.412	1	0
453.582	1	9
453.753	1	14
453.923	1	10
454.093	1	1
454.264	1	18
454.434	1	17
454.605	1	0
454.775	1	15
454.946	1	14
455.116	1	10
455.287	1	0
455.457	1	-8
455.628	1	0
455.798	1	10
455.968	1	18
456.139	1	8
456.309	1	12
456.480	1	-1
456.650	1	6
456.821	1	1
456.991	1	15
457.161	1	2
457.332	1	20
457.502	1	-6
457.673	1	13
457.843	1	11
458.014	1	7
458.184	1	4
458.355	1	13
458.525	1	14
458.695	1	7
458.866	1	13
459.036	1	6
459.207	1	16
459.377	1	5
459.548	1	16
459.718	1	-6
459.888	1	10
460.059	1	7
460.229	1	19
460.400	1	15
460.570	1	12
460.740	1	6
460.911	1	13
461.081	1	9
461.252	1	8
461.422	1	2
461.593	1	2
461.763	1	6
461.933	1	10
462.104	1	7
462.274	1	15
462.445	1	14
462.615	1	10
462.785	1	6
462.956	1	15
463.126	1	7
463.297	1	5
463.467	1	13
463.638	1	6
463.808	1	-4
463.978	1	-3
464.149	1	0
464.319	1	6
464.490	1	22
464.660	1	8
464.830	1	5
465.001	1	11
465.171	1	4
465.342	1	11
465.512	1	0
465.682	1	16
465.853	1	8
466.023	1	16
466.194	1	7
466.364	1	14
466.534	1	13
466.705	1	6
466.875	1	13
467.045	1	5
467.216	1	18
467.386	1	8
467.557	1	6
467.727	1	-1
467.897	1	6
468.068	1	11
468.238	1	4
468.409	1	12
468.579	1	3
468.749	1	6
468.920	1	-5
469.090	1	8
469.260	1	5
469.431	1	8
469.601	1	16
469.772	1	2
469.942	1	8
470.112	1	13
470.283	1	10
470.453	1	8
470.623	1	13
470.794	1	-11
470.964	1	8
471.135	1	15
471.305	1	-7
471.475	1	14
471.646	1	3
471.816	1	3
471.986	1	6
472.157	1	16
472.327	1	-7
472.497	1	11
472.668	1	7
472.838	1	4
473.009	1	6
473.179	1	0
473.349	1	0
473.520	1	13
473.690	1	6
473.860	1	5
474.031	1	6
474.201	1	5
474.371	1	16
474.542	1	6
474.712	1	11
474.882	1	11
475.053	1	13
475.223	1	15
475.394	1	10
475.564	1	6
475.734	1	12
475.905	1	7
476.075	1	4
476.245	1	17
476.416	1	12
476.586	1	15
476.756	1	14
476.927	1	21
477.097	1	8
477.267	1	-8
477.438	1	9
477.608	1	5
477.778	1	2
477.949	1	9
478.119	1	13
478.289	1	10
478.460	1	18
478.630	1	12
478.800	1	-1
478.971	1	11
479.141	1	7
479.311	1	1
479.482	1	-5
479.652	1	13
479.822	1	7
479.993	1	6
480.163	1	6
480.333	1	4
480.504	1	11
480.674	1	12
480.844	1	3
481.015	1	5
481.185	1	5
481.355	1	8
481.525	1	0
481.696	1	11
481.866	1	-1
482.036	1	8
482.207	1	3
482.377	1	5
482.547	1	12
482.718	1	2
482.888	1	12
483.058	1	13
483.229	1	-2
483.399	1	4
483.569	1	6
483.740	1	8
483.910	1	10
484.080	1	3
484.250	1	14
484.421	1	1
484.591	1	12
484.761	1	9
484.932	1	14
485.102	1	7
485.272	1	6
485.443	1	3
485.613	1	13
485.783	1	14
485.953	1	6
486.124	1	10
486.294	1	17
486.464	1	5
486.635	1	11
486.805	1	20
486.975	1	-3
487.146	1	7
487.316	1	6
487.486	1	18
487.656	1	7
487.827	1	13
487.997	1	-5
488.167	1	8
488.338	1	6
488.508	1	5
488.678	1	8
488.848	1	17
489.019	1	7
489.189	1	12
489.359	1	8
489.529	1	8
489.700	1	-2
489.870	1	10
490.040	1	-1
490.211	1	-3
490.381	1	13
490.551	1	-2
490.721	1	7
490.892	1	-3
491.062	1	9
491.232	1	10
491.402	1	0
491.573	1	-7
491.743	1	11
491.913	1	7
492.084	1	8
492.254	1	7
492.424	1	-2
492.594	1	5
492.765	1	8
492.935	1	6
493.105	1	5
493.275	1	6
493.446	1	17
493.616	1	13
493.786	1	-2
493.956	1	1
494.127	1	1
494.297	1	1
494.467	1	0
494.637	1	11
494.808	1	4
494.978	1	-2
495.148	1	3
495.318	1	3
495.489	1	11
495.659	1	12
495.829	1	0
495.999	1	9
496.170	1	6
496.340	1	5
496.510	1	9
496.680	1	4
496.851	1	1
497.021	1	2
497.191	1	0
497.361	1	8
497.532	1	2
497.702	1	8
497.872	1	-6
498.042	1	7
498.213	1	4
498.383	1	3
498.553	1	8
498.723	1	3
498.894	1	3
499.064	1	-4
499.234	1	19
499.404	1	5
499.574	1	12
499.745	1	2
499.915	1	1
500.085	1	6
500.255	1	6
500.426	1	1
500.596	1	13
500.766	1	10
500.936	1	5
501.106	1	0
501.277	1	6
501.447	1	7
501.617	1	10
501.787	1	-1
501.958	1	-3
502.128	1	2
502.298	1	-6
502.468	1	2
502.638	1	5
502.809	1	3
502.979	1	-2
503.149	1	-8
503.319	1	4
503.489	1	12
503.660	1	8
503.830	1	1
504.000	1	14
504.170	1	-6
504.340	1	6
504.511	1	10
504.681	1	0
504.851	1	1
505.021	1	11
505.192	1	-4
505.362	1	16
505.532	1	2
505.702	1	7
505.872	1	2
506.043	1	-1
506.213	1	-4
506.383	1	3
506.553	1	6
506.723	1	11
506.893	1	7
507.064	1	10
507.234	1	-6
507.404	1	7
507.574	1	7
507.744	1	5
507.915	1	-4
508.085	1	3
508.255	1	5
508.425	1	-1
508.595	1	7
508.766	1	8
508.936	1	-7
509.106	1	11
509.276	1	7
509.446	1	0
509.616	1	0
509.787	1	5
509.957	1	9
510.127	1	-4
510.297	1	7
510.467	1	-1
510.638	1	5
510.808	1	-2
510.978	1	-5
511.148	1	1
511.318	1	5
511.488	1	-4
511.659	1	15
511.829	1	-5
511.999	1	3
512.169	1	6
512.339	1	6
512.509	1	-2
512.680	1	0
512.850	1	9
513.020	1	0
513.190	1	8
513.360	1	-10
513.530	1	2
513.700	1	6
513.871	1	-2
514.041	1	-3
514.211	1	13
514.381	1	5
514.551	1	6
514.721	1	0
514.892	1	9
515.062	1	-2
515.232	1	4
515.402	1	0
515.572	1	-9
515.742	1	4
515.912	1	7
516.083	1	13
516.253	1	2
516.423	1	10
516.593	1	13
516.763	1	17
516.933	1	-4
517.104	1	2
517.274	1	7
517.444	1	1
517.614	1	-4
517.784	1	-8
517.954	1	10
518.124	1	7
518.294	1	0
518.465	1	0
518.635	1	2
518.805	1	-5
518.975	1	2
519.145	1	3
519.315	1	4
519.485	1	-8
519.656	1	9
519.826	1	2
519.996	1	-13
520.166	1	3
520.336	1	8
520.506	1	-3
520.676	1	2
520.846	1	10
521.017	1	-1
521.187	1	1
521.357	1	14
521.527	1	4
521.697	1	-2
521.867	1	-2
522.037	1	9
522.207	1	9
522.377	1	6
522.548	1	2
522.718	1	12
522.888	1	14
523.058	1	1
523.228	1	3
523.398	1	6
523.568	1	10
523.738	1	1
523.909	1	10
524.079	1	0
524.249	1	3
524.419	1	5
524.589	1	4
524.759	1	-2
524.929	1	0
525.099	1	6
525.269	1	7
525.439	1	-8
525.610	1	10
525.780	1	-2
525.950	1	-3
526.120	1	-6
526.290	1	7
526.460	1	5
526.630	1	-2
526.800	1	-6
526.970	1	-3
527.140	1	9
527.311	1	-7
527.481	1	-11
527.651	1	5
527.821	1	1
527.991	1	11
528.161	1	12
528.331	1	2
528.501	1	9
528.671	1	-1
528.841	1	1
529.011	1	-4
529.181	1	7
529.352	1	9
529.522	1	-6
529.692	1	3
529.862	1	7
530.032	1	5
530.202	1	6
530.372	1	6
530.542	1	4
530.712	1	6
530.882	1	9
531.052	1	4
531.222	1	-3
531.392	1	-1
531.563	1	4
531.733	1	-9
531.903	1	7
532.073	1	15
532.243	1	8
532.413	1	2
532.583	1	2
532.753	1	-2
532.923	1	1
533.093	1	-1
533.263	1	-1
533.433	1	-1
533.603	1	-1
533.773	1	1
533.943	1	2
534.113	1	1
534.284	1	4
534.454	1	11
534.624	1	8
534.794	1	-2
534.964	1	10
535.134	1	-4
535.304	1	-1
535.474	1	-1
535.644	1	-4
535.814	1	0
535.984	1	-2
536.154	1	0
536.324	1	5
536.494	1	1
536.664	1	9
536.834	1	1
537.004	1	-4
537.174	1	9
537.344	1	2
537.514	1	-1
537.685	1	1
537.855	1	4
538.025	1	1
538.195	1	3
538.365	1	7
538.535	1	3
538.705	1	2
538.875	1	-1
539.045	1	1
539.215	1	16
539.385	1	4
539.555	1	6
539.725	1	-1
539.895	1	-5
540.065	1	14
540.235	1	11
540.405	1	2
540.575	1	2
540.745	1	10
540.915	1	8
541.085	1	3
541.255	1	-6
541.425	1	5
541.595	1	-1
541.765	1	-1
541.935	1	-3
542.105	1	4
542.275	1	-2
542.445	1	-8
542.615	1	0
542.785	1	11
542.955	1	5
543.125	1	-5
543.295	1	8
543.465	1	4
543.635	1	8
543.805	1	6
543.975	1	-2
544.145	1	6
544.315	1	11
544.485	1	5
544.655	1	9
544.825	1	-14
544.995	1	4
545.165	1	-13
545.335	1	-2
545.505	1	-5
545.675	1	1
545.845	1	8
546.015	1	5
546.185	1	19
546.355	1	-2
546.525	1	1
546.695	1	-1
546.865	1	0
547.035	1	5
547.205	1	-5
547.375	1	0
547.545	1	11
547.715	1	-2
547.885	1	8
548.055	1	-1
548.225	1	3
548.395	1	1
548.565	1	6
548.735	1	-4
548.905	1	-3
549.075	1	13
549.245	1	1
549.415	1	-8
549.585	1	3
549.755	1	1
549.925	1	-5
550.095	1	8
550.265	1	0
550.435	1	1
550.605	1	-3
550.775	1	6
550.945	1	6
551.115	1	0
551.285	1	1
551.455	1	5
551.625	1	13
551.795	1	6
551.965	1	-2
552.135	1	3
552.305	1	3
552.475	1	-11
552.645	1	0
552.815	1	-1
552.985	1	2
553.155	1	2
553.325	1	1
553.495	1	1
553.665	1	-10
553.835	1	-1
554.004	1	4
554.174	1	0
554.344	1	12
554.514	1	3
554.684	1	12
554.854	1	7
555.024	1	-14
555.194	1	-1
555.364	1	10
555.534	1	-3
555.704	1	-6
555.874	1	10
556.044	1	7
556.214	1	3
556.384	1	-8
556.554	1	9
556.724	1	-2
556.894	1	3
557.064	1	7
557.234	1	-13
557.404	1	8
557.573	1	9
557.743	1	-3
557.913	1	-7
558.083	1	2
558.253	1	14
558.423	1	-8
558.593	1	6
558.763	1	3
558.933	1	6
559.103	1	11
559.273	1	1
559.443	1	4
559.613	1	1
559.783	1	-5
559.953	1	-1
560.122	1	6
560.292	1	-2
560.462	1	0
560.632	1	4
560.802	1	-3
560.972	1	3
561.142	1	11
561.312	1	-6
561.482	1	6
561.652	1	2
561.822	1	4
561.992	1	7
562.162	1	9
562.331	1	-1
562.501	1	-10
562.671	1	1
562.841	1	-4
563.011	1	3
563.181	1	-2
563.351	1	1
563.521	1	3
563.691	1	-5
563.861	1	3
564.031	1	7
564.201	1	12
564.370	1	-1
564.540	1	11
564.710	1	-6
564.880	1	0
565.050	1	8
565.220	1	3
565.390	1	8
565.560	1	8
565.730	1	-3
565.900	1	0
566.069	1	12
566.239	1	-4
566.409	1	8
566.579	1	2
566.749	1	2
566.919	1	5
567.089	1	1
567.259	1	14
567.429	1	-2
567.599	1	-4
567.768	1	3
567.938	1	5
568.108	1	3
568.278	1	-2
568.448	1	-3
568.618	1	4
568.788	1	8
568.958	1	1
569.128	1	1
569.297	1	2
569.467	1	2
569.637	1	3
569.807	1	-4
569.977	1	8
570.147	1	5
570.317	1	-5
570.487	1	5
570.656	1	13
570.826	1	-10
570.996	1	-4
571.166	1	1
571.336	1	-4
571.506	1	8
571.676	1	1
571.846	1	8
572.015	1	-1
572.185	1	1
572.355	1	7
572.525	1	4
572.695	1	-6
572.865	1	-6
573.035	1	6
573.205	1	0
573.374	1	-5
573.544	1	-4
573.714	1	16
573.884	1	9
574.054	1	0
574.224	1	9
574.394	1	-5
574.563	1	-9
574.733	1	-5
574.903	1	7
575.073	1	-4
575.243	1	-5
575.413	1	-4
575.583	1	-5
575.752	1	9
575.922	1	2
576.092	1	6
576.262	1	9
576.432	1	6
576.602	1	-6
576.772	1	10
576.941	1	2
577.111	1	1
577.281	1	-7
577.451	1	-8
577.621	1	5
577.791	1	2
577.960	1	-1
578.130	1	14
578.300	1	3
578.470	1	12
578.640	1	0
578.810	1	-8
578.979	1	1
579.149	1	3
579.319	1	-3
579.489	1	6
579.659	1	-7
579.829	1	3
579.998	1	15
580.168	1	4
580.338	1	2
580.508	1	0
580.678	1	8
580.848	1	0
581.017	1	3
581.187	1	1
581.357	1	-10
581.527	1	0
581.697	1	1
581.867	1	6
582.036	1	3
582.206	1	-3
582.376	1	14
582.546	1	-6
582.716	1	-9
582.885	1	-4
583.055	1	1
583.225	1	-12
583.395	1	-2
583.565	1	-11
583.735	1	7
583.904	1	1
584.074	1	6
584.244	1	5
584.414	1	-3
584.584	1	1
584.753	1	-2
584.923	1	1
585.093	1	-7
585.263	1	2
585.433	1	0
585.602	1	-5
585.772	1	0
585.942	1	-6
586.112	1	1
586.282	1	-7
586.451	1	-5
586.621	1	-6
586.791	1	0
586.961	1	6
587.131	1	4
587.300	1	-5
587.470	1	14
587.640	1	10
587.810	1	0
587.980	1	1
588.149	1	2
588.319	1	6
588.489	1	6
588.659	1	-1
588.829	1	6
588.998	1	13
589.168	1	8
589.338	1	1
589.508	1	4
589.677	1	-8
589.847	1	-8
590.017	1	15
590.187	1	-10
590.357	1	6
590.526	1	12
590.696	1	4
590.866	1	9
591.036	1	4
591.205	1	16
591.375	1	-4
591.545	1	-1
591.715	1	0
591.885	1	-5
592.054	1	3
592.224	1	3
592.394	1	-3
592.564	1	4
592.733	1	11
592.903	1	1
593.073	1	-1
593.243	1	3
593.412	1	2
593.582	1	8
593.752	1	-3
593.922	1	-1
594.091	1	2
594.261	1	-2
594.431	1	3
594.601	1	2
594.771	1	8
594.940	1	-5
595.110	1	5
595.280	1	1
595.450	1	-5
595.619	1	0
595.789	1	-1
595.959	1	10
596.129	1	7
596.298	1	11
596.468	1	5
596.638	1	0
596.808	1	-6
596.977	1	-4
597.147	1	1
597.317	1	-2
597.487	1	12
597.656	1	-4
597.826	1	4
597.996	1	-7
598.166	1	2
598.335	1	-7
598.505	1	0
598.675	1	-6
598.844	1	7
599.014	1	1
599.184	1	-2
599.354	1	-3
599.523	1	15
599.693	1	4
599.863	1	7
600.033	1	2
600.202	1	4
600.372	1	1
600.542	1	11
600.712	1	2
600.881	1	-4
601.051	1	11
601.221	1	6
601.390	1	-3
601.560	1	5
601.730	1	-1
601.900	1	6
602.069	1	8
602.239	1	-4
602.409	1	-3
602.578	1	1
602.748	1	4
602.918	1	3
603.088	1	6
603.257	1	10
603.427	1	-1
603.597	1	-1
603.767	1	7
603.936	1	9
604.106	1	-6
604.276	1	1
604.445	1	12
604.615	1	-10
604.785	1	-2
604.954	1	-1
605.124	1	1
605.294	1	2
605.464	1	-4
605.633	1	10
605.803	1	2
605.973	1	-1
606.142	1	1
606.312	1	7
606.482	1	10
606.652	1	6
606.821	1	3
606.991	1	-2
607.161	1	6
607.330	1	1
607.500	1	-2
607.670	1	-7
607.839	1	4
608.009	1	8
608.179	1	12
608.348	1	3
608.518	1	9
608.688	1	7
608.858	1	1
609.027	1	-10
609.197	1	10
609.367	1	8
609.536	1	5
609.706	1	-1
609.876	1	0
610.045	1	4
610.215	1	11
610.385	1	0
610.554	1	1
610.724	1	5
610.894	1	0
611.063	1	4
611.233	1	-3
611.403	1	-2
611.572	1	2
611.742	1	12
611.912	1	4
612.081	1	-7
612.251	1	0
612.421	1	-10
612.590	1	-2
612.760	1	-1
612.930	1	1
613.099	1	5
613.269	1	12
613.439	1	-5
613.608	1	-12
613.778	1	-2
613.948	1	5
614.117	1	5
614.287	1	5
614.457	1	8
614.626	1	-5
614.796	1	8
614.966	1	-1
615.135	1	-2
615.305	1	9
615.475	1	2
615.644	1	5
615.814	1	6
615.984	1	-3
616.153	1	1
616.323	1	1
616.493	1	-5
616.662	1	2
616.832	1	5
617.002	1	-1
617.171	1	6
617.341	1	7
617.511	1	-3
617.680	1	-2
617.850	1	5
618.019	1	13
618.189	1	14
618.359	1	8
618.528	1	4
618.698	1	3
618.868	1	-4
619.037	1	-1
619.207	1	4
619.377	1	-1
619.546	1	2
619.716	1	-3
619.885	1	4
620.055	1	-7
620.225	1	7
620.394	1	-8
620.564	1	6
620.734	1	8
620.903	1	-5
621.073	1	14
621.242	1	6
621.412	1	-1
621.582	1	-4
621.751	1	3
621.921	1	1
622.091	1	4
622.260	1	3
622.430	1	15
622.599	1	-10
622.769	1	10
622.939	1	8
623.108	1	3
623.278	1	-8
623.448	1	-2
623.617	1	0
623.787	1	4
623.956	1	14
624.126	1	3
624.296	1	-5
624.465	1	8
624.635	1	15
624.804	1	3
624.974	1	5
625.144	1	7
625.313	1	11
625.483	1	-3
625.652	1	2
625.822	1	2
625.992	1	-1
626.161	1	8
626.331	1	1
626.501	1	6
626.670	1	-1
626.840	1	2
627.009	1	-5
627.179	1	13
627.348	1	0
627.518	1	1
627.688	1	2
627.857	1	7
628.027	1	-3
628.196	1	10
628.366	1	10
628.536	1	6
628.705	1	-4
628.875	1	1
629.044	1	-2
629.214	1	0
629.384	1	7
629.553	1	12
629.723	1	5
629.892	1	9
630.062	1	0
630.232	1	7
630.401	1	8
630.571	1	9
630.740	1	5
630.910	1	5
631.079	1	1
631.249	1	2
631.419	1	6
631.588	1	-12
631.758	1	4
631.927	1	-1
632.097	1	-9
632.266	1	-3
632.436	1	10
632.606	1	-6
632.775	1	13
632.945	1	12
633.114	1	5
633.284	1	2
633.453	1	-2
633.623	1	2
633.793	1	4
633.962	1	9
634.132	1	-1
634.301	1	4
634.471	1	2
634.640	1	7
634.810	1	-3
634.979	1	3
635.149	1	13
635.319	1	-2
635.488	1	9
635.658	1	-6
635.827	1	0
635.997	1	2
636.166	1	-4
636.336	1	-4
636.505	1	16
636.675	1	1
636.845	1	13
637.014	1	10
637.184	1	9
637.353	1	-6
637.523	1	6
637.692	1	-1
637.862	1	0
638.031	1	-4
638.201	1	4
638.370	1	2
638.540	1	-12
638.710	1	1
638.879	1	-14
639.049	1	6
639.218	1	5
639.388	1	-5
639.557	1	2
639.727	1	-2
639.896	1	6
640.066	1	-5
640.235	1	5
640.405	1	7
640.574	1	-2
640.744	1	-6
640.914	1	-2
641.083	1	4
641.253	1	-1
641.422	1	-2
641.592	1	9
641.761	1	6
641.931	1	1
642.100	1	18
642.270	1	1
642.439	1	7
642.609	1	4
642.778	1	0
642.948	1	5
643.117	1	15
643.287	1	-2
643.456	1	-1
643.626	1	15
643.795	1	-6
643.965	1	8
644.134	1	3
644.304	1	0
644.473	1	-2
644.643	1	12
644.812	1	1
644.982	1	-2
645.151	1	0
645.321	1	-3
645.490	1	10
645.660	1	-3
645.829	1	0
645.999	1	5
646.168	1	-3
646.338	1	6
646.507	1	5
646.677	1	6
646.846	1	5
647.016	1	-3
647.185	1	10
647.355	1	-4
647.524	1	15
647.694	1	7
647.863	1	8
648.033	1	10
648.202	1	10
648.372	1	-3
648.541	1	-7
648.711	1	0
648.880	1	-5
649.050	1	-14
649.219	1	2
649.389	1	14
649.558	1	-5
649.728	1	6
649.897	1	-7
650.067	1	8
650.236	1	1
650.406	1	3
650.575	1	2
650.745	1	13
650.914	1	-3
651.084	1	-1
651.253	1	9
651.423	1	11
651.592	1	-2
651.762	1	-6
651.931	1	13
652.101	1	8
652.270	1	11
652.440	1	3
652.609	1	-5
652.778	1	-8
652.948	1	5
653.117	1	7
653.287	1	1
653.456	1	3
653.626	1	4
653.795	1	8
653.965	1	3
654.134	1	3
654.304	1	-14
654.473	1	5
654.643	1	11
654.812	1	-4
654.982	1	0
655.151	1	5
655.320	1	2
655.490	1	0
655.659	1	-2
655.829	1	-6
655.998	1	-1
656.168	1	-6
656.337	1	1
656.507	1	3
656.676	1	1
656.846	1	2
657.015	1	16
657.184	1	6
657.354	1	3
657.523	1	5
657.693	1	15
657.862	1	3
658.032	1	-2
658.201	1	6
658.371	1	12
658.540	1	12
658.709	1	-6
658.879	1	4
659.048	1	-2
659.218	1	-2
659.387	1	7
659.557	1	9
659.726	1	13
659.895	1	-9
660.065	1	-4
660.234	1	0
660.404	1	8
660.573	1	5
660.743	1	3
660.912	1	8
661.081	1	6
661.251	1	0
661.420	1	11
661.590	1	5
661.759	1	8
661.929	1	0
662.098	1	12
662.267	1	5
662.437	1	-1
662.606	1	3
662.776	1	11
662.945	1	-1
663.115	1	2
663.284	1	2
663.453	1	8
663.623	1	2
663.792	1	3
663.962	1	-6
664.131	1	9
664.300	1	18
664.470	1	-4
664.639	1	1
664.809	1	-6
664.978	1	16
665.148	1	3
665.317	1	0
665.486	1	10
665.656	1	5
665.825	1	13
665.995	1	-5
666.164	1	0
666.333	1	-3
666.503	1	6
666.672	1	-5
666.842	1	5
667.011	1	2
667.180	1	14
667.350	1	-1
667.519	1	-7
667.689	1	7
667.858	1	9
668.027	1	1
668.197	1	5
668.366	1	-6
668.536	1	4
668.705	1	2
668.874	1	4
669.044	1	11
669.213	1	8
669.382	1	8
669.552	1	14
669.721	1	9
669.891	1	6
670.060	1	9
670.229	1	16
670.399	1	4
670.568	1	15
670.738	1	8
670.907	1	4
671.076	1	-7
671.246	1	1
671.415	1	3
671.584	1	2
671.754	1	0
671.923	1	7
672.093	1	5
672.262	1	-3
672.431	1	3
672.601	1	3
672.770	1	0
672.939	1	-1
673.109	1	-7
673.278	1	2
673.448	1	10
673.617	1	2
673.786	1	7
