325.333	1	15
325.504	1	8
325.675	1	3
325.846	1	2
326.017	1	8
326.188	1	5
326.359	1	4
326.531	1	-3
326.702	1	2
326.873	1	11
327.044	1	4
327.215	1	5
327.386	1	6
327.557	1	-2
327.728	1	1
327.899	1	9
328.070	1	21
328.241	1	1
328.412	1	-4
328.583	1	13
328.754	1	-6
328.926	1	1
329.097	1	5
329.268	1	11
329.439	1	-1
329.610	1	9
329.781	1	-1
329.952	1	15
330.123	1	0
330.294	1	3
330.465	1	11
330.636	1	9
330.807	1	-2
330.978	1	3
331.149	1	3
331.320	1	12
331.492	1	3
331.663	1	12
331.834	1	14
332.005	1	12
332.176	1	14
332.347	1	21
332.518	1	5
332.689	1	12
332.860	1	7
333.031	1	24
333.202	1	1
333.373	1	6
333.544	1	10
333.715	1	14
333.886	1	-5
334.057	1	2
334.228	1	-1
334.399	1	5
334.570	1	7
334.741	1	3
334.912	1	12
335.084	1	23
335.255	1	-1
335.426	1	4
335.597	1	5
335.768	1	9
335.939	1	13
336.110	1	6
336.281	1	0
336.452	1	8
336.623	1	6
336.794	1	18
336.965	1	1
337.136	1	18
337.307	1	6
337.478	1	6
337.649	1	16
337.820	1	4
337.991	1	1
338.162	1	6
338.333	1	10
338.504	1	9
338.675	1	9
338.846	1	10
339.017	1	10
339.188	1	4
339.359	1	6
339.530	1	10
339.701	1	18
339.872	1	18
340.043	1	6
340.214	1	10
340.385	1	16
340.556	1	1
340.727	1	9
340.898	1	20
341.069	1	8
341.240	1	9
341.411	1	8
341.582	1	9
341.753	1	4
341.924	1	9
342.095	1	10
342.266	1	14
342.437	1	15
342.608	1	2
342.779	1	9
342.950	1	17
343.121	1	21
343.292	1	5
343.463	1	5
343.634	1	15
343.805	1	13
343.976	1	8
344.147	1	10
344.318	1	6
344.489	1	19
344.660	1	17
344.831	1	14
345.002	1	5
345.173	1	21
345.344	1	13
345.515	1	19
345.686	1	8
345.857	1	10
346.028	1	11
346.199	1	2
346.370	1	15
346.541	1	19
346.712	1	5
346.883	1	16
347.054	1	10
347.225	1	15
347.396	1	18
347.567	1	6
347.738	1	0
347.909	1	28
348.080	1	4
348.251	1	8
348.422	1	9
348.593	1	12
348.764	1	14
348.935	1	11
349.106	1	20
349.277	1	14
349.448	1	18
349.619	1	12
349.790	1	20
349.961	1	25
350.132	1	15
350.303	1	9
350.474	1	20
350.645	1	6
350.816	1	11
350.987	1	21
351.157	1	6
351.328	1	20
351.499	1	18
351.670	1	10
351.841	1	13
352.012	1	29
352.183	1	16
352.354	1	21
352.525	1	28
352.696	1	13
352.867	1	14
353.038	1	15
353.209	1	24
353.380	1	17
353.551	1	12
353.722	1	17
353.893	1	18
354.064	1	26
354.235	1	13
354.406	1	10
354.576	1	10
354.747	1	19
354.918	1	24
355.089	1	22
355.260	1	11
355.431	1	18
355.602	1	15
355.773	1	21
355.944	1	23
356.115	1	16
356.286	1	18
356.457	1	9
356.628	1	27
356.799	1	20
356.970	1	26
357.141	1	11
357.311	1	16
357.482	1	17
357.653	1	24
357.824	1	36
357.995	1	24
358.166	1	13
358.337	1	12
358.508	1	23
358.679	1	24
358.850	1	22
359.021	1	13
359.192	1	27
359.363	1	11
359.533	1	28
359.704	1	12
359.875	1	24
360.046	1	16
360.217	1	11
360.388	1	11
360.559	1	10
360.730	1	19
360.901	1	21
361.072	1	36
361.243	1	27
361.414	1	21
361.584	1	22
361.755	1	24
361.926	1	20
362.097	1	18
362.268	1	18
362.439	1	18
362.610	1	33
362.781	1	15
362.952	1	19
363.123	1	26
363.293	1	17
363.464	1	22
363.635	1	17
363.806	1	21
363.977	1	33
364.148	1	17
364.319	1	17
364.490	1	27
364.661	1	20
364.832	1	30
365.002	1	18
365.173	1	21
365.344	1	30
365.515	1	18
365.686	1	22
365.857	1	22
366.028	1	29
366.199	1	20
366.370	1	19
366.540	1	12
366.711	1	13
366.882	1	10
367.053	1	9
367.224	1	33
367.395	1	29
367.566	1	27
367.737	1	28
367.908	1	27
368.078	1	12
368.249	1	25
368.420	1	17
368.591	1	11
368.762	1	28
368.933	1	18
369.104	1	18
369.274	1	19
369.445	1	28
369.616	1	25
369.787	1	22
369.958	1	31
370.129	1	12
370.300	1	30
370.471	1	19
370.641	1	15
370.812	1	24
370.983	1	17
371.154	1	18
371.325	1	26
371.496	1	25
371.667	1	25
371.837	1	22
372.008	1	25
372.179	1	11
372.350	1	29
372.521	1	23
372.692	1	16
372.863	1	29
373.033	1	11
373.204	1	23
373.375	1	28
373.546	1	15
373.717	1	36
373.888	1	24
374.059	1	19
374.229	1	31
374.400	1	17
374.571	1	18
374.742	1	23
374.913	1	22
375.084	1	28
375.254	1	21
375.425	1	29
375.596	1	44
375.767	1	23
375.938	1	18
376.109	1	33
376.279	1	13
376.450	1	27
376.621	1	40
376.792	1	25
376.963	1	34
377.134	1	30
377.304	1	20
377.475	1	29
377.646	1	22
377.817	1	13
377.988	1	20
378.159	1	29
378.329	1	30
378.500	1	22
378.671	1	31
378.842	1	27
379.013	1	9
379.184	1	22
379.354	1	43
379.525	1	22
379.696	1	29
379.867	1	34
380.038	1	18
380.209	1	28
380.379	1	25
380.550	1	21
380.721	1	33
380.892	1	24
381.063	1	24
381.233	1	34
381.404	1	20
381.575	1	34
381.746	1	30
381.917	1	17
382.087	1	24
382.258	1	23
382.429	1	32
382.600	1	33
382.771	1	29
382.941	1	33
383.112	1	25
383.283	1	37
383.454	1	37
383.625	1	19
383.795	1	38
383.966	1	33
384.137	1	33
384.308	1	30
384.479	1	30
384.649	1	30
384.820	1	27
384.991	1	32
385.162	1	38
385.333	1	24
385.503	1	31
385.674	1	26
385.845	1	40
386.016	1	35
386.187	1	28
386.357	1	36
386.528	1	42
386.699	1	26
386.870	1	46
387.041	1	35
387.211	1	30
387.382	1	43
387.553	1	43
387.724	1	31
387.894	1	40
388.065	1	39
388.236	1	36
388.407	1	35
388.578	1	24
388.748	1	34
388.919	1	47
389.090	1	27
389.261	1	38
389.431	1	38
389.602	1	26
389.773	1	38
389.944	1	38
390.114	1	35
390.285	1	33
390.456	1	32
390.627	1	42
390.798	1	32
390.968	1	32
391.139	1	36
391.310	1	30
391.481	1	47
391.651	1	38
391.822	1	27
391.993	1	32
392.164	1	27
392.334	1	38
392.505	1	31
392.676	1	33
392.847	1	40
393.017	1	34
393.188	1	33
393.359	1	34
393.530	1	32
393.700	1	41
393.871	1	28
394.042	1	35
394.213	1	28
394.383	1	35
394.554	1	36
394.725	1	34
394.896	1	30
395.066	1	38
395.237	1	34
395.408	1	37
395.579	1	34
395.749	1	39
395.920	1	40
396.091	1	37
396.262	1	35
396.432	1	26
396.603	1	59
396.774	1	43
396.945	1	35
397.115	1	42
397.286	1	30
397.457	1	36
397.627	1	36
397.798	1	43
397.969	1	30
398.140	1	35
398.310	1	30
398.481	1	47
398.652	1	40
398.823	1	32
398.993	1	29
399.164	1	41
399.335	1	49
399.505	1	43
399.676	1	31
399.847	1	37
400.018	1	38
400.188	1	33
400.359	1	39
400.530	1	39
400.700	1	36
400.871	1	41
401.042	1	36
401.213	1	40
401.383	1	37
401.554	1	47
401.725	1	39
401.895	1	26
402.066	1	43
402.237	1	45
402.408	1	44
402.578	1	39
402.749	1	44
402.920	1	39
403.090	1	38
403.261	1	38
403.432	1	34
403.603	1	42
403.773	1	53
403.944	1	43
404.115	1	46
404.285	1	43
404.456	1	37
404.627	1	35
404.797	1	37
404.968	1	36
405.139	1	34
405.310	1	52
405.480	1	35
405.651	1	43
405.822	1	36
405.992	1	43
406.163	1	35
406.334	1	36
406.504	1	39
406.675	1	48
406.846	1	37
407.016	1	41
407.187	1	36
407.358	1	29
407.528	1	33
407.699	1	28
407.870	1	34
408.041	1	36
408.211	1	52
408.382	1	30
408.553	1	31
408.723	1	46
408.894	1	44
409.065	1	54
409.235	1	33
409.406	1	45
409.577	1	35
409.747	1	49
409.918	1	39
410.089	1	40
410.259	1	37
410.430	1	43
410.601	1	33
410.771	1	38
410.942	1	51
411.113	1	46
411.283	1	50
411.454	1	35
411.625	1	33
411.795	1	44
411.966	1	43
412.137	1	50
412.307	1	32
412.478	1	33
412.649	1	56
412.819	1	39
412.990	1	42
413.161	1	45
413.331	1	43
413.502	1	34
413.672	1	37
413.843	1	34
414.014	1	37
414.184	1	49
414.355	1	45
414.526	1	40
414.696	1	46
414.867	1	40
415.038	1	32
415.208	1	36
415.379	1	48
415.550	1	37
415.720	1	39
415.891	1	48
416.062	1	32
416.232	1	35
416.403	1	34
416.573	1	41
416.744	1	40
416.915	1	45
417.085	1	52
417.256	1	32
417.427	1	46
417.597	1	38
417.768	1	32
417.939	1	43
418.109	1	45
418.280	1	50
418.450	1	37
418.621	1	26
418.792	1	39
418.962	1	49
419.133	1	48
419.304	1	32
419.474	1	30
419.645	1	41
419.815	1	30
419.986	1	43
420.157	1	38
420.327	1	40
420.498	1	36
420.669	1	46
420.839	1	42
421.010	1	35
421.180	1	48
421.351	1	43
421.522	1	47
421.692	1	47
421.863	1	42
422.033	1	46
422.204	1	34
422.375	1	36
422.545	1	49
422.716	1	40
422.886	1	37
423.057	1	41
423.228	1	44
423.398	1	25
423.569	1	39
423.740	1	37
423.910	1	34
424.081	1	36
424.251	1	32
424.422	1	39
424.593	1	35
424.763	1	43
424.934	1	49
425.104	1	38
425.275	1	55
425.445	1	36
425.616	1	36
425.787	1	27
425.957	1	42
426.128	1	32
426.298	1	41
426.469	1	34
426.640	1	39
426.810	1	50
426.981	1	41
427.151	1	30
427.322	1	39
427.493	1	33
427.663	1	37
427.834	1	33
428.004	1	46
428.175	1	36
428.345	1	34
428.516	1	32
428.687	1	40
428.857	1	36
429.028	1	32
429.198	1	32
429.369	1	44
429.540	1	40
429.710	1	32
429.881	1	46
430.051	1	37
430.222	1	37
430.392	1	34
430.563	1	41
430.734	1	39
430.904	1	40
431.075	1	43
431.245	1	31
431.416	1	32
431.586	1	32
431.757	1	37
431.927	1	30
432.098	1	33
432.269	1	35
432.439	1	40
432.610	1	27
432.780	1	48
432.951	1	41
433.121	1	32
433.292	1	44
433.462	1	48
433.633	1	27
433.804	1	31
433.974	1	43
434.145	1	48
434.315	1	38
434.486	1	31
434.656	1	39
434.827	1	38
434.997	1	31
435.168	1	42
435.339	1	40
435.509	1	43
435.680	1	33
435.850	1	36
436.021	1	28
436.191	1	37
436.362	1	28
436.532	1	42
436.703	1	35
436.873	1	35
437.044	1	24
437.214	1	36
437.385	1	25
437.556	1	32
437.726	1	46
437.897	1	33
438.067	1	36
438.238	1	33
438.408	1	45
438.579	1	31
438.749	1	30
438.920	1	25
439.090	1	36
439.261	1	29
439.431	1	18
439.602	1	34
439.772	1	25
439.943	1	40
440.113	1	41
440.284	1	32
440.455	1	31
440.625	1	37
440.796	1	22
440.966	1	36
441.137	1	31
441.307	1	25
441.478	1	46
441.648	1	39
441.819	1	17
441.989	1	33
442.160	1	40
442.330	1	37
442.501	1	42
442.671	1	28
442.842	1	14
443.012	1	26
443.183	1	41
443.353	1	20
443.524	1	38
443.694	1	33
443.865	1	35
444.035	1	32
444.206	1	32
444.376	1	26
444.547	1	31
444.717	1	38
444.888	1	28
445.058	1	38
445.229	1	38
445.399	1	32
445.570	1	32
445.740	1	32
445.911	1	23
446.081	1	18
446.252	1	39
446.422	1	17
446.593	1	23
446.763	1	30
446.934	1	21
447.104	1	30
447.275	1	34
447.445	1	28
447.616	1	29
447.786	1	31
447.957	1	35
448.127	1	22
448.298	1	34
448.468	1	27
448.639	1	20
448.809	1	33
448.979	1	27
449.150	1	37
449.320	1	29
449.491	1	43
449.661	1	23
449.832	1	15
450.002	1	33
450.173	1	29
450.343	1	20
450.514	1	23
450.684	1	27
450.855	1	25
451.025	1	40
451.196	1	34
451.366	1	33
451.537	1	28
451.707	1	18
451.878	1	30
452.048	1	33
452.218	1	29
452.389	1	30
452.559	1	19
452.730	1	39
452.900	1	30
453.071	1	15
453.241	1	26
453.412	1	28
453.582	1	21
453.753	1	28
453.923	1	37
454.093	1	27
454.264	1	35
454.434	1	21
454.605	1	23
454.775	1	24
454.946	1	20
455.116	1	26
455.287	1	16
455.457	1	11
455.628	1	16
455.798	1	27
455.968	1	20
456.139	1	23
456.309	1	25
456.480	1	26
456.650	1	19
456.821	1	11
456.991	1	25
457.161	1	17
457.332	1	27
457.502	1	9
457.673	1	29
457.843	1	28
458.014	1	18
458.184	1	26
458.355	1	15
458.525	1	32
458.695	1	29
458.866	1	25
459.036	1	18
459.207	1	24
459.377	1	22
459.548	1	25
459.718	1	25
459.888	1	31
460.059	1	23
460.229	1	29
460.400	1	23
460.570	1	26
460.740	1	20
460.911	1	26
461.081	1	24
461.252	1	17
461.422	1	21
461.593	1	22
461.763	1	28
461.933	1	29
462.104	1	8
462.274	1	32
462.445	1	22
462.615	1	16
462.785	1	22
462.956	1	28
463.126	1	24
463.297	1	16
463.467	1	20
463.638	1	25
463.808	1	14
463.978	1	17
464.149	1	20
464.319	1	15
464.490	1	34
464.660	1	11
464.830	1	19
465.001	1	20
465.171	1	29
465.342	1	25
465.512	1	8
465.682	1	27
465.853	1	24
466.023	1	25
466.194	1	12
466.364	1	28
466.534	1	19
466.705	1	32
466.875	1	23
467.045	1	17
467.216	1	35
467.386	1	13
467.557	1	13
467.727	1	12
467.897	1	12
468.068	1	20
468.238	1	18
468.409	1	17
468.579	1	15
468.749	1	14
468.920	1	21
469.090	1	17
469.260	1	7
469.431	1	18
469.601	1	18
469.772	1	13
469.942	1	14
470.112	1	35
470.283	1	11
470.453	1	24
470.623	1	20
470.794	1	8
470.964	1	20
471.135	1	12
471.305	1	6
471.475	1	25
471.646	1	9
471.816	1	10
471.986	1	15
472.157	1	36
472.327	1	1
472.497	1	20
472.668	1	9
472.838	1	13
473.009	1	15
473.179	1	20
473.349	1	8
473.520	1	25
473.690	1	13
473.860	1	17
474.031	1	15
474.201	1	17
474.371	1	22
474.542	1	20
474.712	1	17
474.882	1	28
475.053	1	25
475.223	1	13
475.394	1	12
475.564	1	17
475.734	1	26
475.905	1	19
476.075	1	14
476.245	1	19
476.416	1	24
476.586	1	26
476.756	1	12
476.927	1	21
477.097	1	25
477.267	1	16
477.438	1	18
477.608	1	12
477.778	1	6
477.949	1	19
478.119	1	12
478.289	1	26
478.460	1	19
478.630	1	15
478.800	1	15
478.971	1	22
479.141	1	11
479.311	1	13
479.482	1	7
479.652	1	11
479.822	1	18
479.993	1	13
480.163	1	18
480.333	1	21
480.504	1	17
480.674	1	19
480.844	1	-1
481.015	1	19
481.185	1	10
481.355	1	28
481.525	1	16
481.696	1	11
481.866	1	16
482.036	1	12
482.207	1	13
482.377	1	8
482.547	1	21
482.718	1	10
482.888	1	9
483.058	1	16
483.229	1	9
483.399	1	14
483.569	1	15
483.740	1	30
483.910	1	19
484.080	1	16
484.250	1	12
484.421	1	10
484.591	1	18
484.761	1	27
484.932	1	21
485.102	1	22
485.272	1	14
485.443	1	26
485.613	1	15
485.783	1	16
485.953	1	22
486.124	1	15
486.294	1	12
486.464	1	9
486.635	1	15
486.805	1	20
486.975	1	15
487.146	1	17
487.316	1	9
487.486	1	19
487.656	1	12
487.827	1	10
487.997	1	8
488.167	1	14
488.338	1	20
488.508	1	14
488.678	1	4
488.848	1	18
489.019	1	10
489.189	1	19
489.359	1	12
489.529	1	11
489.700	1	15
489.870	1	23
490.040	1	5
490.211	1	3
490.381	1	16
490.551	1	13
490.721	1	29
490.892	1	11
491.062	1	14
491.232	1	18
491.402	1	15
491.573	1	9
491.743	1	7
491.913	1	9
492.084	1	21
492.254	1	10
492.424	1	8
492.594	1	18
492.765	1	11
492.935	1	8
493.105	1	16
493.275	1	17
493.446	1	21
493.616	1	22
493.786	1	14
493.956	1	8
494.127	1	18
494.297	1	4
494.467	1	12
494.637	1	6
494.808	1	13
494.978	1	10
495.148	1	8
495.318	1	9
495.489	1	20
495.659	1	13
495.829	1	6
495.999	1	10
496.170	1	9
496.340	1	8
496.510	1	22
496.680	1	-2
496.851	1	6
497.021	1	8
497.191	1	1
497.361	1	14
497.532	1	11
497.702	1	6
497.872	1	11
498.042	1	11
498.213	1	11
498.383	1	7
498.553	1	2
498.723	1	4
498.894	1	16
499.064	1	2
499.234	1	17
499.404	1	8
499.574	1	13
499.745	1	18
499.915	1	10
500.085	1	10
500.255	1	10
500.426	1	10
500.596	1	15
500.766	1	11
500.936	1	9
501.106	1	-1
501.277	1	13
501.447	1	19
501.617	1	12
501.787	1	4
501.958	1	-3
502.128	1	7
502.298	1	21
502.468	1	13
502.638	1	8
502.809	1	11
502.979	1	-5
503.149	1	7
503.319	1	0
503.489	1	12
503.660	1	15
503.830	1	6
504.000	1	14
504.170	1	8
504.340	1	8
504.511	1	11
504.681	1	5
504.851	1	8
505.021	1	7
505.192	1	1
505.362	1	10
505.532	1	8
505.702	1	7
505.872	1	10
506.043	1	1
506.213	1	2
506.383	1	5
506.553	1	15
506.723	1	9
506.893	1	16
507.064	1	22
507.234	1	6
507.404	1	2
507.574	1	8
507.744	1	8
507.915	1	5
508.085	1	16
508.255	1	13
508.425	1	1
508.595	1	16
508.766	1	18
508.936	1	-9
509.106	1	12
509.276	1	9
509.446	1	-2
509.616	1	8
509.787	1	9
509.957	1	8
510.127	1	5
510.297	1	11
510.467	1	4
510.638	1	9
510.808	1	-1
510.978	1	0
511.148	1	3
511.318	1	10
511.488	1	6
511.659	1	14
511.829	1	6
511.999	1	16
512.169	1	3
512.339	1	0
512.509	1	6
512.680	1	0
512.850	1	8
513.020	1	17
513.190	1	11
513.360	1	10
513.530	1	19
513.700	1	9
513.871	1	13
514.041	1	-5
514.211	1	16
514.381	1	17
514.551	1	8
514.721	1	8
514.892	1	6
515.062	1	10
515.232	1	12
515.402	1	4
515.572	1	-6
515.742	1	7
515.912	1	9
516.083	1	6
516.253	1	11
516.423	1	8
516.593	1	9
516.763	1	11
516.933	1	-2
517.104	1	7
517.274	1	7
517.444	1	2
517.614	1	-2
517.784	1	2
517.954	1	9
518.124	1	5
518.294	1	14
518.465	1	7
518.635	1	7
518.805	1	-5
518.975	1	10
519.145	1	-4
519.315	1	8
519.485	1	0
519.656	1	20
519.826	1	13
519.996	1	6
520.166	1	2
520.336	1	7
520.506	1	2
520.676	1	0
520.846	1	12
521.017	1	8
521.187	1	9
521.357	1	8
521.527	1	4
521.697	1	3
521.867	1	1
522.037	1	12
522.207	1	15
522.377	1	7
522.548	1	4
522.718	1	3
522.888	1	8
523.058	1	6
523.228	1	13
523.398	1	5
523.568	1	9
523.738	1	2
523.909	1	22
524.079	1	4
524.249	1	11
524.419	1	7
524.589	1	3
524.759	1	1
524.929	1	7
525.099	1	14
525.269	1	14
525.439	1	3
525.610	1	20
525.780	1	2
525.950	1	10
526.120	1	11
526.290	1	3
526.460	1	1
526.630	1	14
526.800	1	2
526.970	1	15
527.140	1	10
527.311	1	-1
527.481	1	5
527.651	1	12
527.821	1	-3
527.991	1	16
528.161	1	14
528.331	1	9
528.501	1	5
528.671	1	5
528.841	1	7
529.011	1	12
529.181	1	8
529.352	1	12
529.522	1	0
529.692	1	5
529.862	1	-1
530.032	1	3
530.202	1	11
530.372	1	7
530.542	1	2
530.712	1	3
530.882	1	8
531.052	1	15
531.222	1	11
531.392	1	2
531.563	1	14
531.733	1	13
531.903	1	7
532.073	1	14
532.243	1	4
532.413	1	11
532.583	1	6
532.753	1	17
532.923	1	2
533.093	1	6
533.263	1	0
533.433	1	8
533.603	1	9
533.773	1	6
533.943	1	3
534.113	1	6
534.284	1	1
534.454	1	13
534.624	1	11
534.794	1	-4
534.964	1	7
535.134	1	5
535.304	1	6
535.474	1	21
535.644	1	-4
535.814	1	-2
535.984	1	-4
536.154	1	-6
536.324	1	-2
536.494	1	12
536.664	1	8
536.834	1	7
537.004	1	3
537.174	1	8
537.344	1	4
537.514	1	-3
537.685	1	-5
537.855	1	4
538.025	1	2
538.195	1	4
538.365	1	21
538.535	1	2
538.705	1	0
538.875	1	-3
539.045	1	9
539.215	1	5
539.385	1	6
539.555	1	2
539.725	1	8
539.895	1	-2
540.065	1	13
540.235	1	15
540.405	1	-2
540.575	1	4
540.745	1	6
540.915	1	8
541.085	1	11
541.255	1	-10
541.425	1	10
541.595	1	10
541.765	1	8
541.935	1	5
542.105	1	-7
542.275	1	-2
542.445	1	-6
542.615	1	7
542.785	1	9
542.955	1	6
543.125	1	0
543.295	1	4
543.465	1	13
543.635	1	-1
543.805	1	19
543.975	1	11
544.145	1	12
544.315	1	6
544.485	1	7
544.655	1	11
544.825	1	-2
544.995	1	3
545.165	1	-1
545.335	1	14
545.505	1	-2
545.675	1	6
545.845	1	8
546.015	1	10
546.185	1	11
546.355	1	9
546.525	1	11
546.695	1	-2
546.865	1	0
547.035	1	6
547.205	1	-8
547.375	1	15
547.545	1	18
547.715	1	0
547.885	1	7
548.055	1	-2
548.225	1	0
548.395	1	3
548.565	1	6
548.735	1	4
548.905	1	1
549.075	1	6
549.245	1	-3
549.415	1	-1
549.585	1	12
549.755	1	5
549.925	1	-7
550.095	1	6
550.265	1	0
550.435	1	-4
550.605	1	-1
550.775	1	4
550.945	1	9
551.115	1	-2
551.285	1	3
551.455	1	-4
551.625	1	9
551.795	1	4
551.965	1	-2
552.135	1	-2
552.305	1	-4
552.475	1	2
552.645	1	5
552.815	1	1
552.985	1	1
553.155	1	9
553.325	1	11
553.495	1	-8
553.665	1	9
553.835	1	-2
554.004	1	6
554.174	1	5
554.344	1	6
554.514	1	2
554.684	1	3
554.854	1	6
555.024	1	-7
555.194	1	-5
555.364	1	7
555.534	1	10
555.704	1	1
555.874	1	14
556.044	1	4
556.214	1	0
556.384	1	5
556.554	1	12
556.724	1	2
556.894	1	4
557.064	1	9
557.234	1	-2
557.404	1	12
557.573	1	4
557.743	1	-1
557.913	1	4
558.083	1	-4
558.253	1	9
558.423	1	4
558.593	1	6
558.763	1	-6
558.933	1	10
559.103	1	7
559.273	1	-1
559.443	1	11
559.613	1	11
559.783	1	8
559.953	1	-4
560.122	1	10
560.292	1	0
560.462	1	0
560.632	1	10
560.802	1	4
560.972	1	1
561.142	1	1
561.312	1	-2
561.482	1	8
561.652	1	1
561.822	1	-2
561.992	1	3
562.162	1	-9
562.331	1	5
562.501	1	-5
562.671	1	11
562.841	1	-6
563.011	1	5
563.181	1	8
563.351	1	-6
563.521	1	0
563.691	1	-5
563.861	1	6
564.031	1	6
564.201	1	14
564.370	1	-4
564.540	1	6
564.710	1	1
564.880	1	9
565.050	1	8
565.220	1	-1
565.390	1	-10
565.560	1	9
565.730	1	-4
565.900	1	-3
566.069	1	9
566.239	1	8
566.409	1	10
566.579	1	15
566.749	1	0
566.919	1	1
567.089	1	-1
567.259	1	2
567.429	1	8
567.599	1	2
567.768	1	9
567.938	1	1
568.108	1	5
568.278	1	1
568.448	1	-6
568.618	1	-1
568.788	1	1
568.958	1	11
569.128	1	7
569.297	1	4
569.467	1	-4
569.637	1	5
569.807	1	-2
569.977	1	11
570.147	1	10
570.317	1	-2
570.487	1	4
570.656	1	6
570.826	1	2
570.996	1	-7
571.166	1	20
571.336	1	0
571.506	1	13
571.676	1	-8
571.846	1	6
572.015	1	2
572.185	1	2
572.355	1	6
572.525	1	6
572.695	1	4
572.865	1	-7
573.035	1	11
573.205	1	4
573.374	1	2
573.544	1	-1
573.714	1	12
573.884	1	-4
574.054	1	4
574.224	1	2
574.394	1	3
574.563	1	-1
574.733	1	8
574.903	1	4
575.073	1	0
575.243	1	-5
575.413	1	9
575.583	1	4
575.752	1	-1
575.922	1	-3
576.092	1	-3
576.262	1	9
576.432	1	2
576.602	1	-5
576.772	1	13
576.941	1	6
577.111	1	1
577.281	1	-7
577.451	1	-1
577.621	1	3
577.791	1	7
577.960	1	-5
578.130	1	3
578.300	1	5
578.470	1	12
578.640	1	3
578.810	1	7
578.979	1	6
579.149	1	-4
579.319	1	-5
579.489	1	-1
579.659	1	1
579.829	1	1
579.998	1	8
580.168	1	10
580.338	1	-5
580.508	1	2
580.678	1	8
580.848	1	-1
581.017	1	0
581.187	1	6
581.357	1	-10
581.527	1	3
581.697	1	6
581.867	1	14
582.036	1	6
582.206	1	-3
582.376	1	10
582.546	1	0
582.716	1	-10
582.885	1	-12
583.055	1	1
583.225	1	-12
583.395	1	2
583.565	1	5
583.735	1	6
583.904	1	11
584.074	1	11
584.244	1	3
584.414	1	-7
584.584	1	8
584.753	1	-9
584.923	1	9
585.093	1	8
585.263	1	-3
585.433	1	8
585.602	1	-7
585.772	1	1
585.942	1	8
586.112	1	3
586.282	1	-3
586.451	1	-5
586.621	1	-1
586.791	1	0
586.961	1	3
587.131	1	4
587.300	1	2
587.470	1	11
587.640	1	8
587.810	1	4
587.980	1	0
588.149	1	6
588.319	1	3
588.489	1	4
588.659	1	-4
588.829	1	9
588.998	1	5
589.168	1	8
589.338	1	2
589.508	1	5
589.677	1	-7
589.847	1	-3
590.017	1	11
590.187	1	-2
590.357	1	11
590.526	1	18
590.696	1	2
590.866	1	3
591.036	1	-3
591.205	1	15
591.375	1	-9
591.545	1	1
591.715	1	6
591.885	1	0
592.054	1	6
592.224	1	-5
592.394	1	10
592.564	1	1
592.733	1	3
592.903	1	0
593.073	1	12
593.243	1	5
593.412	1	10
593.582	1	-8
593.752	1	3
593.922	1	0
594.091	1	5
594.261	1	0
594.431	1	7
594.601	1	6
594.771	1	5
594.940	1	-4
595.110	1	-4
595.280	1	9
595.450	1	-4
595.619	1	0
595.789	1	-2
595.959	1	9
596.129	1	-5
596.298	1	-3
596.468	1	6
596.638	1	5
596.808	1	3
596.977	1	-7
597.147	1	14
597.317	1	-4
597.487	1	1
597.656	1	0
597.826	1	7
597.996	1	4
598.166	1	3
598.335	1	-13
598.505	1	8
598.675	1	-2
598.844	1	-2
599.014	1	-1
599.184	1	9
599.354	1	-11
599.523	1	11
599.693	1	6
599.863	1	6
600.033	1	6
600.202	1	5
600.372	1	2
600.542	1	9
600.712	1	1
600.881	1	-1
601.051	1	11
601.221	1	8
601.390	1	7
601.560	1	4
601.730	1	4
601.900	1	-1
602.069	1	9
602.239	1	-2
602.409	1	-8
602.578	1	2
602.748	1	-8
602.918	1	12
603.088	1	12
603.257	1	0
603.427	1	-3
603.597	1	6
603.767	1	2
603.936	1	4
604.106	1	-9
604.276	1	-1
604.445	1	10
604.615	1	-3
604.785	1	5
604.954	1	-3
605.124	1	2
605.294	1	5
605.464	1	-4
605.633	1	0
605.803	1	-2
605.973	1	1
606.142	1	-1
606.312	1	4
606.482	1	2
606.652	1	10
606.821	1	6
606.991	1	4
607.161	1	-5
607.330	1	8
607.500	1	1
607.670	1	-8
607.839	1	11
608.009	1	17
608.179	1	3
608.348	1	2
608.518	1	0
608.688	1	14
608.858	1	-4
609.027	1	-11
609.197	1	6
609.367	1	14
609.536	1	11
609.706	1	3
609.876	1	3
610.045	1	-1
610.215	1	7
610.385	1	-1
610.554	1	4
610.724	1	7
610.894	1	3
611.063	1	2
611.233	1	-1
611.403	1	2
611.572	1	5
611.742	1	6
611.912	1	1
612.081	1	0
612.251	1	10
612.421	1	1
612.590	1	0
612.760	1	5
612.930	1	6
613.099	1	-2
613.269	1	9
613.439	1	5
613.608	1	0
613.778	1	5
613.948	1	3
614.117	1	0
614.287	1	9
614.457	1	2
614.626	1	3
614.796	1	5
614.966	1	1
615.135	1	9
615.305	1	15
615.475	1	1
615.644	1	5
615.814	1	2
615.984	1	0
616.153	1	2
616.323	1	4
616.493	1	4
616.662	1	14
616.832	1	-1
617.002	1	-15
617.171	1	4
617.341	1	-1
617.511	1	-5
617.680	1	4
617.850	1	6
618.019	1	11
618.189	1	20
618.359	1	7
618.528	1	10
618.698	1	7
618.868	1	2
619.037	1	6
619.207	1	-2
619.377	1	-5
619.546	1	0
619.716	1	2
619.885	1	6
620.055	1	2
620.225	1	5
620.394	1	0
620.564	1	5
620.734	1	5
620.903	1	8
621.073	1	18
621.242	1	4
621.412	1	-2
621.582	1	-4
621.751	1	10
621.921	1	6
622.091	1	7
622.260	1	-1
622.430	1	15
622.599	1	-3
622.769	1	8
622.939	1	12
623.108	1	3
623.278	1	-8
623.448	1	4
623.617	1	5
623.787	1	0
623.956	1	9
624.126	1	10
624.296	1	7
624.465	1	11
624.635	1	15
624.804	1	4
624.974	1	3
625.144	1	3
625.313	1	-1
625.483	1	-2
625.652	1	2
625.822	1	4
625.992	1	3
626.161	1	10
626.331	1	-1
626.501	1	12
626.670	1	2
626.840	1	-2
627.009	1	-8
627.179	1	11
627.348	1	10
627.518	1	4
627.688	1	18
627.857	1	23
628.027	1	-5
628.196	1	8
628.366	1	17
628.536	1	7
628.705	1	0
628.875	1	1
629.044	1	-1
629.214	1	13
629.384	1	11
629.553	1	12
629.723	1	0
629.892	1	5
630.062	1	3
630.232	1	3
630.401	1	8
630.571	1	10
630.740	1	6
630.910	1	10
631.079	1	6
631.249	1	6
631.419	1	18
631.588	1	-9
631.758	1	7
631.927	1	-10
632.097	1	2
632.266	1	5
632.436	1	3
632.606	1	4
632.775	1	12
632.945	1	12
633.114	1	2
633.284	1	3
633.453	1	2
633.623	1	-1
633.793	1	1
633.962	1	-1
634.132	1	8
634.301	1	12
634.471	1	13
634.640	1	14
634.810	1	6
634.979	1	1
635.149	1	8
635.319	1	8
635.488	1	-8
635.658	1	9
635.827	1	3
635.997	1	0
636.166	1	-3
636.336	1	-8
636.505	1	20
636.675	1	-7
636.845	1	0
637.014	1	7
637.184	1	12
637.353	1	4
637.523	1	9
637.692	1	1
637.862	1	5
638.031	1	5
638.201	1	1
638.370	1	4
638.540	1	5
638.710	1	6
638.879	1	-2
639.049	1	4
639.218	1	10
639.388	1	2
639.557	1	2
639.727	1	3
639.896	1	11
640.066	1	0
640.235	1	8
640.405	1	10
640.574	1	5
640.744	1	-1
640.914	1	2
641.083	1	-1
641.253	1	-1
641.422	1	4
641.592	1	10
641.761	1	-5
641.931	1	0
642.100	1	24
642.270	1	-1
642.439	1	10
642.609	1	10
642.778	1	8
642.948	1	4
643.117	1	14
643.287	1	6
643.456	1	9
643.626	1	18
643.795	1	2
643.965	1	4
644.134	1	5
644.304	1	9
644.473	1	7
644.643	1	12
644.812	1	5
644.982	1	9
645.151	1	5
645.321	1	-2
645.490	1	19
645.660	1	0
645.829	1	2
645.999	1	2
646.168	1	11
646.338	1	10
646.507	1	0
646.677	1	13
646.846	1	12
647.016	1	-4
647.185	1	8
647.355	1	-9
647.524	1	15
647.694	1	7
647.863	1	10
648.033	1	10
648.202	1	8
648.372	1	7
648.541	1	6
648.711	1	6
648.880	1	-2
649.050	1	1
649.219	1	5
649.389	1	17
649.558	1	14
649.728	1	5
649.897	1	-5
650.067	1	8
650.236	1	8
650.406	1	5
650.575	1	10
650.745	1	9
650.914	1	2
651.084	1	0
651.253	1	15
651.423	1	14
651.592	1	5
651.762	1	-2
651.931	1	6
652.101	1	9
652.270	1	17
652.440	1	16
652.609	1	6
652.778	1	5
652.948	1	12
653.117	1	5
653.287	1	11
653.456	1	11
653.626	1	13
653.795	1	8
653.965	1	10
654.134	1	10
654.304	1	3
654.473	1	13
654.643	1	5
654.812	1	6
654.982	1	13
655.151	1	8
655.320	1	5
655.490	1	6
655.659	1	12
655.829	1	5
655.998	1	2
656.168	1	2
656.337	1	8
656.507	1	3
656.676	1	8
656.846	1	13
657.015	1	12
657.184	1	9
657.354	1	6
657.523	1	5
657.693	1	14
657.862	1	16
658.032	1	4
658.201	1	1
658.371	1	13
658.540	1	5
658.709	1	12
658.879	1	3
659.048	1	5
659.218	1	9
659.387	1	11
659.557	1	5
659.726	1	19
659.895	1	-3
660.065	1	-1
660.234	1	7
660.404	1	16
660.573	1	5
660.743	1	14
660.912	1	7
661.081	1	12
661.251	1	0
661.420	1	12
661.590	1	6
661.759	1	3
661.929	1	7
662.098	1	11
662.267	1	6
662.437	1	9
662.606	1	8
662.776	1	10
662.945	1	1
663.115	1	0
663.284	1	-1
663.453	1	10
663.623	1	8
663.792	1	12
663.962	1	4
664.131	1	19
664.300	1	16
664.470	1	2
664.639	1	2
664.809	1	6
664.978	1	9
665.148	1	8
665.317	1	2
665.486	1	17
665.656	1	-1
665.825	1	12
665.995	1	3
666.164	1	10
666.333	1	6
666.503	1	0
666.672	1	4
666.842	1	2
667.011	1	6
667.180	1	7
667.350	1	10
667.519	1	9
667.689	1	-1
667.858	1	4
668.027	1	19
668.197	1	7
668.366	1	-2
668.536	1	11
668.705	1	6
668.874	1	-4
669.044	1	6
669.213	1	13
669.382	1	0
669.552	1	10
669.721	1	14
669.891	1	14
670.060	1	13
670.229	1	26
670.399	1	3
670.568	1	11
670.738	1	6
670.907	1	-5
671.076	1	0
671.246	1	8
671.415	1	2
671.584	1	-5
671.754	1	-2
671.923	1	5
672.093	1	7
672.262	1	7
672.431	1	6
672.601	1	6
672.770	1	1
672.939	1	9
673.109	1	12
673.278	1	11
673.448	1	14
673.617	1	13
673.786	1	1
