325.333	1	13
325.504	1	-2
325.675	1	8
325.846	1	3
326.017	1	5
326.188	1	-7
326.359	1	4
326.531	1	-13
326.702	1	4
326.873	1	14
327.044	1	7
327.215	1	1
327.386	1	8
327.557	1	-6
327.728	1	-3
327.899	1	1
328.070	1	15
328.241	1	5
328.412	1	-4
328.583	1	-3
328.754	1	8
328.926	1	12
329.097	1	-1
329.268	1	9
329.439	1	4
329.610	1	3
329.781	1	-3
329.952	1	17
330.123	1	6
330.294	1	0
330.465	1	-1
330.636	1	2
330.807	1	-3
330.978	1	-3
331.149	1	1
331.320	1	-11
331.492	1	0
331.663	1	0
331.834	1	13
332.005	1	3
332.176	1	9
332.347	1	3
332.518	1	-9
332.689	1	2
332.860	1	-1
333.031	1	18
333.202	1	2
333.373	1	4
333.544	1	-2
333.715	1	-5
333.886	1	4
334.057	1	6
334.228	1	-6
334.399	1	4
334.570	1	10
334.741	1	-8
334.912	1	7
335.084	1	22
335.255	1	6
335.426	1	-1
335.597	1	5
335.768	1	-1
335.939	1	10
336.110	1	-4
336.281	1	-13
336.452	1	-1
336.623	1	4
336.794	1	11
336.965	1	-4
337.136	1	10
337.307	1	-1
337.478	1	-2
337.649	1	7
337.820	1	5
337.991	1	0
338.162	1	5
338.333	1	6
338.504	1	9
338.675	1	13
338.846	1	5
339.017	1	-2
339.188	1	4
339.359	1	-1
339.530	1	3
339.701	1	1
339.872	1	11
340.043	1	7
340.214	1	2
340.385	1	15
340.556	1	-10
340.727	1	13
340.898	1	9
341.069	1	1
341.240	1	-5
341.411	1	12
341.582	1	15
341.753	1	-5
341.924	1	0
342.095	1	6
342.266	1	18
342.437	1	5
342.608	1	-10
342.779	1	6
342.950	1	11
343.121	1	8
343.292	1	1
343.463	1	6
343.634	1	4
343.805	1	12
343.976	1	9
344.147	1	5
344.318	1	-7
344.489	1	2
344.660	1	7
344.831	1	9
345.002	1	3
345.173	1	21
345.344	1	8
345.515	1	0
345.686	1	8
345.857	1	-1
346.028	1	9
346.199	1	-5
346.370	1	4
346.541	1	7
346.712	1	-2
346.883	1	8
347.054	1	0
347.225	1	2
347.396	1	7
347.567	1	7
347.738	1	-8
347.909	1	5
348.080	1	-2
348.251	1	14
348.422	1	11
348.593	1	3
348.764	1	2
348.935	1	11
349.106	1	4
349.277	1	8
349.448	1	16
349.619	1	9
349.790	1	12
349.961	1	10
350.132	1	7
350.303	1	8
350.474	1	19
350.645	1	4
350.816	1	10
350.987	1	7
351.157	1	5
351.328	1	15
351.499	1	9
351.670	1	5
351.841	1	13
352.012	1	14
352.183	1	15
352.354	1	12
352.525	1	22
352.696	1	13
352.867	1	2
353.038	1	11
353.209	1	12
353.380	1	12
353.551	1	5
353.722	1	8
353.893	1	-2
354.064	1	18
354.235	1	10
354.406	1	6
354.576	1	6
354.747	1	15
354.918	1	16
355.089	1	14
355.260	1	5
355.431	1	7
355.602	1	8
355.773	1	5
355.944	1	11
356.115	1	14
356.286	1	12
356.457	1	7
356.628	1	17
356.799	1	10
356.970	1	18
357.141	1	7
357.311	1	0
357.482	1	1
357.653	1	7
357.824	1	11
357.995	1	19
358.166	1	3
358.337	1	1
358.508	1	7
358.679	1	5
358.850	1	16
359.021	1	3
359.192	1	12
359.363	1	2
359.533	1	11
359.704	1	16
359.875	1	6
360.046	1	2
360.217	1	-1
360.388	1	7
360.559	1	10
360.730	1	8
360.901	1	14
361.072	1	27
361.243	1	7
361.414	1	13
361.584	1	3
361.755	1	8
361.926	1	11
362.097	1	15
362.268	1	5
362.439	1	4
362.610	1	16
362.781	1	6
362.952	1	8
363.123	1	1
363.293	1	3
363.464	1	9
363.635	1	16
363.806	1	5
363.977	1	6
364.148	1	8
364.319	1	15
364.490	1	6
364.661	1	4
364.832	1	16
365.002	1	14
365.173	1	5
365.344	1	11
365.515	1	7
365.686	1	4
365.857	1	9
366.028	1	22
366.199	1	12
366.370	1	8
366.540	1	9
366.711	1	1
366.882	1	6
367.053	1	4
367.224	1	19
367.395	1	14
367.566	1	17
367.737	1	18
367.908	1	7
368.078	1	14
368.249	1	19
368.420	1	3
368.591	1	-3
368.762	1	22
368.933	1	5
369.104	1	6
369.274	1	6
369.445	1	8
369.616	1	8
369.787	1	10
369.958	1	16
370.129	1	5
370.300	1	15
370.471	1	11
370.641	1	11
370.812	1	16
370.983	1	8
371.154	1	0
371.325	1	7
371.496	1	7
371.667	1	11
371.837	1	-1
372.008	1	8
372.179	1	-1
372.350	1	21
372.521	1	15
372.692	1	3
372.863	1	19
373.033	1	4
373.204	1	10
373.375	1	13
373.546	1	14
373.717	1	21
373.888	1	21
374.059	1	15
374.229	1	16
374.400	1	11
374.571	1	9
374.742	1	18
374.913	1	23
375.084	1	7
375.254	1	3
375.425	1	17
375.596	1	22
375.767	1	18
375.938	1	7
376.109	1	17
376.279	1	16
376.450	1	17
376.621	1	15
376.792	1	13
376.963	1	8
377.134	1	14
377.304	1	9
377.475	1	12
377.646	1	10
377.817	1	6
377.988	1	13
378.159	1	15
378.329	1	17
378.500	1	10
378.671	1	23
378.842	1	8
379.013	1	8
379.184	1	8
379.354	1	10
379.525	1	10
379.696	1	7
379.867	1	16
380.038	1	4
380.209	1	13
380.379	1	14
380.550	1	8
380.721	1	20
380.892	1	10
381.063	1	9
381.233	1	20
381.404	1	7
381.575	1	16
381.746	1	12
381.917	1	13
382.087	1	21
382.258	1	10
382.429	1	15
382.600	1	16
382.771	1	11
382.941	1	1
383.112	1	19
383.283	1	6
383.454	1	10
383.625	1	13
383.795	1	16
383.966	1	11
384.137	1	17
384.308	1	14
384.479	1	20
384.649	1	23
384.820	1	11
384.991	1	7
385.162	1	6
385.333	1	2
385.503	1	12
385.674	1	6
385.845	1	27
386.016	1	12
386.187	1	13
386.357	1	19
386.528	1	23
386.699	1	13
386.870	1	17
387.041	1	22
387.211	1	20
387.382	1	24
387.553	1	17
387.724	1	5
387.894	1	20
388.065	1	5
388.236	1	17
388.407	1	13
388.578	1	4
388.748	1	7
388.919	1	17
389.090	1	10
389.261	1	9
389.431	1	17
389.602	1	17
389.773	1	10
389.944	1	9
390.114	1	19
390.285	1	11
390.456	1	12
390.627	1	15
390.798	1	15
390.968	1	13
391.139	1	19
391.310	1	16
391.481	1	14
391.651	1	14
391.822	1	9
391.993	1	22
392.164	1	4
392.334	1	13
392.505	1	10
392.676	1	16
392.847	1	13
393.017	1	24
393.188	1	13
393.359	1	13
393.530	1	24
393.700	1	18
393.871	1	11
394.042	1	4
394.213	1	7
394.383	1	12
394.554	1	9
394.725	1	15
394.896	1	8
395.066	1	21
395.237	1	10
395.408	1	10
395.579	1	13
395.749	1	21
395.920	1	10
396.091	1	21
396.262	1	15
396.432	1	13
396.603	1	25
396.774	1	20
396.945	1	20
397.115	1	20
397.286	1	14
397.457	1	21
397.627	1	6
397.798	1	19
397.969	1	17
398.140	1	12
398.310	1	11
398.481	1	17
398.652	1	17
398.823	1	10
398.993	1	15
399.164	1	8
399.335	1	23
399.505	1	14
399.676	1	9
399.847	1	21
400.018	1	9
400.188	1	17
400.359	1	12
400.530	1	1
400.700	1	19
400.871	1	13
401.042	1	12
401.213	1	15
401.383	1	6
401.554	1	19
401.725	1	18
401.895	1	15
402.066	1	12
402.237	1	20
402.408	1	25
402.578	1	12
402.749	1	22
402.920	1	17
403.090	1	12
403.261	1	12
403.432	1	27
403.603	1	18
403.773	1	19
403.944	1	19
404.115	1	25
404.285	1	19
404.456	1	20
404.627	1	17
404.797	1	6
404.968	1	13
405.139	1	10
405.310	1	23
405.480	1	15
405.651	1	12
405.822	1	21
405.992	1	11
406.163	1	20
406.334	1	6
406.504	1	9
406.675	1	30
406.846	1	18
407.016	1	18
407.187	1	15
407.358	1	8
407.528	1	12
407.699	1	11
407.870	1	15
408.041	1	19
408.211	1	35
408.382	1	12
408.553	1	14
408.723	1	23
408.894	1	14
409.065	1	19
409.235	1	10
409.406	1	20
409.577	1	12
409.747	1	28
409.918	1	9
410.089	1	11
410.259	1	17
410.430	1	17
410.601	1	15
410.771	1	7
410.942	1	19
411.113	1	25
411.283	1	11
411.454	1	18
411.625	1	19
411.795	1	22
411.966	1	22
412.137	1	15
412.307	1	9
412.478	1	19
412.649	1	18
412.819	1	16
412.990	1	13
413.161	1	25
413.331	1	8
413.502	1	23
413.672	1	9
413.843	1	25
414.014	1	14
414.184	1	17
414.355	1	14
414.526	1	23
414.696	1	23
414.867	1	14
415.038	1	4
415.208	1	21
415.379	1	23
415.550	1	17
415.720	1	7
415.891	1	23
416.062	1	20
416.232	1	20
416.403	1	22
416.573	1	24
416.744	1	19
416.915	1	25
417.085	1	9
417.256	1	15
417.427	1	18
417.597	1	13
417.768	1	9
417.939	1	18
418.109	1	16
418.280	1	23
418.450	1	16
418.621	1	-1
418.792	1	21
418.962	1	13
419.133	1	23
419.304	1	6
419.474	1	10
419.645	1	16
419.815	1	9
419.986	1	14
420.157	1	16
420.327	1	11
420.498	1	27
420.669	1	9
420.839	1	31
421.010	1	25
421.180	1	24
421.351	1	11
421.522	1	23
421.692	1	20
421.863	1	24
422.033	1	14
422.204	1	21
422.375	1	14
422.545	1	23
422.716	1	7
422.886	1	15
423.057	1	24
423.228	1	22
423.398	1	4
423.569	1	24
423.740	1	6
423.910	1	6
424.081	1	11
424.251	1	11
424.422	1	17
424.593	1	5
424.763	1	16
424.934	1	21
425.104	1	25
425.275	1	10
425.445	1	9
425.616	1	7
425.787	1	10
425.957	1	17
426.128	1	19
426.298	1	23
426.469	1	14
426.640	1	20
426.810	1	18
426.981	1	16
427.151	1	15
427.322	1	22
427.493	1	21
427.663	1	15
427.834	1	13
428.004	1	13
428.175	1	18
428.345	1	11
428.516	1	6
428.687	1	19
428.857	1	11
429.028	1	14
429.198	1	11
429.369	1	22
429.540	1	16
429.710	1	4
429.881	1	19
430.051	1	14
430.222	1	10
430.392	1	23
430.563	1	22
430.734	1	20
430.904	1	18
431.075	1	18
431.245	1	4
431.416	1	14
431.586	1	10
431.757	1	12
431.927	1	20
432.098	1	15
432.269	1	1
432.439	1	10
432.610	1	16
432.780	1	18
432.951	1	17
433.121	1	16
433.292	1	26
433.462	1	22
433.633	1	16
433.804	1	15
433.974	1	17
434.145	1	27
434.315	1	15
434.486	1	18
434.656	1	24
434.827	1	8
434.997	1	11
435.168	1	22
435.339	1	11
435.509	1	20
435.680	1	16
435.850	1	14
436.021	1	11
436.191	1	12
436.362	1	18
436.532	1	8
436.703	1	20
436.873	1	14
437.044	1	9
437.214	1	14
437.385	1	10
437.556	1	10
437.726	1	32
437.897	1	20
438.067	1	16
438.238	1	11
438.408	1	22
438.579	1	13
438.749	1	9
438.920	1	16
439.090	1	16
439.261	1	4
439.431	1	9
439.602	1	20
439.772	1	11
439.943	1	20
440.113	1	20
440.284	1	21
440.455	1	6
440.625	1	25
440.796	1	26
440.966	1	3
441.137	1	4
441.307	1	12
441.478	1	26
441.648	1	18
441.819	1	11
441.989	1	11
442.160	1	26
442.330	1	4
442.501	1	14
442.671	1	10
442.842	1	3
443.012	1	4
443.183	1	10
443.353	1	2
443.524	1	24
443.694	1	12
443.865	1	3
444.035	1	10
444.206	1	9
444.376	1	12
444.547	1	21
444.717	1	6
444.888	1	10
445.058	1	22
445.229	1	20
445.399	1	15
445.570	1	16
445.740	1	21
445.911	1	11
446.081	1	6
446.252	1	15
446.422	1	5
446.593	1	6
446.763	1	12
446.934	1	7
447.104	1	14
447.275	1	11
447.445	1	11
447.616	1	13
447.786	1	9
447.957	1	21
448.127	1	15
448.298	1	13
448.468	1	6
448.639	1	12
448.809	1	17
448.979	1	14
449.150	1	18
449.320	1	17
449.491	1	16
449.661	1	7
449.832	1	13
450.002	1	14
450.173	1	13
450.343	1	12
450.514	1	6
450.684	1	5
450.855	1	15
451.025	1	15
451.196	1	17
451.366	1	14
451.537	1	10
451.707	1	0
451.878	1	5
452.048	1	16
452.218	1	18
452.389	1	16
452.559	1	12
452.730	1	12
452.900	1	15
453.071	1	-4
453.241	1	12
453.412	1	4
453.582	1	7
453.753	1	11
453.923	1	15
454.093	1	19
454.264	1	20
454.434	1	4
454.605	1	13
454.775	1	8
454.946	1	11
455.116	1	13
455.287	1	5
455.457	1	9
455.628	1	12
455.798	1	18
455.968	1	18
456.139	1	10
456.309	1	-2
456.480	1	15
456.650	1	10
456.821	1	8
456.991	1	9
457.161	1	13
457.332	1	15
457.502	1	2
457.673	1	15
457.843	1	20
458.014	1	4
458.184	1	20
458.355	1	13
458.525	1	15
458.695	1	18
458.866	1	11
459.036	1	11
459.207	1	8
459.377	1	10
459.548	1	19
459.718	1	5
459.888	1	21
460.059	1	12
460.229	1	11
460.400	1	16
460.570	1	11
460.740	1	8
460.911	1	9
461.081	1	10
461.252	1	5
461.422	1	11
461.593	1	11
461.763	1	13
461.933	1	14
462.104	1	0
462.274	1	13
462.445	1	7
462.615	1	10
462.785	1	12
462.956	1	14
463.126	1	16
463.297	1	3
463.467	1	17
463.638	1	13
463.808	1	0
463.978	1	6
464.149	1	3
464.319	1	12
464.490	1	22
464.660	1	9
464.830	1	9
465.001	1	7
465.171	1	8
465.342	1	9
465.512	1	7
465.682	1	10
465.853	1	19
466.023	1	-1
466.194	1	7
466.364	1	16
466.534	1	10
466.705	1	15
466.875	1	5
467.045	1	1
467.216	1	25
467.386	1	9
467.557	1	5
467.727	1	6
467.897	1	1
468.068	1	13
468.238	1	5
468.409	1	3
468.579	1	7
468.749	1	8
468.920	1	-1
469.090	1	16
469.260	1	11
469.431	1	14
469.601	1	11
469.772	1	15
469.942	1	5
470.112	1	8
470.283	1	8
470.453	1	10
470.623	1	4
470.794	1	3
470.964	1	19
471.135	1	11
471.305	1	-7
471.475	1	19
471.646	1	4
471.816	1	16
471.986	1	9
472.157	1	9
472.327	1	2
472.497	1	13
472.668	1	4
472.838	1	6
473.009	1	7
473.179	1	5
473.349	1	3
473.520	1	18
473.690	1	8
473.860	1	8
474.031	1	7
474.201	1	13
474.371	1	13
474.542	1	5
474.712	1	11
474.882	1	12
475.053	1	18
475.223	1	2
475.394	1	9
475.564	1	8
475.734	1	11
475.905	1	20
476.075	1	0
476.245	1	14
476.416	1	13
476.586	1	12
476.756	1	12
476.927	1	9
477.097	1	13
477.267	1	2
477.438	1	8
477.608	1	3
477.778	1	4
477.949	1	4
478.119	1	12
478.289	1	7
478.460	1	20
478.630	1	13
478.800	1	9
478.971	1	15
479.141	1	2
479.311	1	-2
479.482	1	3
479.652	1	-1
479.822	1	3
479.993	1	14
480.163	1	14
480.333	1	10
480.504	1	14
480.674	1	12
480.844	1	-5
481.015	1	11
481.185	1	5
481.355	1	12
481.525	1	-1
481.696	1	8
481.866	1	5
482.036	1	5
482.207	1	10
482.377	1	-1
482.547	1	20
482.718	1	2
482.888	1	3
483.058	1	10
483.229	1	5
483.399	1	7
483.569	1	4
483.740	1	12
483.910	1	10
484.080	1	2
484.250	1	15
484.421	1	10
484.591	1	13
484.761	1	12
484.932	1	10
485.102	1	22
485.272	1	11
485.443	1	10
485.613	1	15
485.783	1	9
485.953	1	11
486.124	1	11
486.294	1	10
486.464	1	9
486.635	1	20
486.805	1	19
486.975	1	8
487.146	1	16
487.316	1	2
487.486	1	9
487.656	1	5
487.827	1	7
487.997	1	-4
488.167	1	4
488.338	1	18
488.508	1	4
488.678	1	9
488.848	1	11
489.019	1	9
489.189	1	1
489.359	1	3
489.529	1	4
489.700	1	-1
489.870	1	21
490.040	1	3
490.211	1	8
490.381	1	13
490.551	1	11
490.721	1	15
490.892	1	10
491.062	1	7
491.232	1	17
491.402	1	-2
491.573	1	-13
491.743	1	9
491.913	1	4
492.084	1	7
492.254	1	1
492.424	1	15
492.594	1	5
492.765	1	1
492.935	1	5
493.105	1	10
493.275	1	15
493.446	1	14
493.616	1	15
493.786	1	2
493.956	1	8
494.127	1	7
494.297	1	-2
494.467	1	1
494.637	1	5
494.808	1	6
494.978	1	-9
495.148	1	11
495.318	1	5
495.489	1	9
495.659	1	10
495.829	1	3
495.999	1	1
496.170	1	13
496.340	1	7
496.510	1	13
496.680	1	5
496.851	1	9
497.021	1	5
497.191	1	-1
497.361	1	10
497.532	1	-3
497.702	1	0
497.872	1	6
498.042	1	12
498.213	1	1
498.383	1	-2
498.553	1	-2
498.723	1	8
498.894	1	-3
499.064	1	6
499.234	1	9
499.404	1	11
499.574	1	18
499.745	1	11
499.915	1	8
500.085	1	1
500.255	1	10
500.426	1	4
500.596	1	10
500.766	1	6
500.936	1	8
501.106	1	2
501.277	1	17
501.447	1	0
501.617	1	6
501.787	1	10
501.958	1	0
502.128	1	0
502.298	1	0
502.468	1	5
502.638	1	14
502.809	1	9
502.979	1	0
503.149	1	3
503.319	1	-6
503.489	1	4
503.660	1	5
503.830	1	6
504.000	1	6
504.170	1	10
504.340	1	5
504.511	1	12
504.681	1	4
504.851	1	10
505.021	1	8
505.192	1	-1
505.362	1	11
505.532	1	9
505.702	1	7
505.872	1	4
506.043	1	1
506.213	1	-5
506.383	1	3
506.553	1	13
506.723	1	7
506.893	1	-5
507.064	1	1
507.234	1	6
507.404	1	-3
507.574	1	-6
507.744	1	9
507.915	1	7
508.085	1	17
508.255	1	6
508.425	1	7
508.595	1	15
508.766	1	8
508.936	1	-8
509.106	1	6
509.276	1	12
509.446	1	1
509.616	1	0
509.787	1	11
509.957	1	9
510.127	1	7
510.297	1	5
510.467	1	-5
510.638	1	14
510.808	1	-13
510.978	1	5
511.148	1	12
511.318	1	-2
511.488	1	0
511.659	1	2
511.829	1	-6
511.999	1	4
512.169	1	2
512.339	1	1
512.509	1	9
512.680	1	2
512.850	1	-1
513.020	1	17
513.190	1	8
513.360	1	2
513.530	1	8
513.700	1	4
513.871	1	3
514.041	1	7
514.211	1	12
514.381	1	4
514.551	1	-1
514.721	1	0
514.892	1	9
515.062	1	12
515.232	1	4
515.402	1	-4
515.572	1	-2
515.742	1	10
515.912	1	16
516.083	1	-1
516.253	1	6
516.423	1	3
516.593	1	5
516.763	1	6
516.933	1	-1
517.104	1	1
517.274	1	2
517.444	1	4
517.614	1	-5
517.784	1	7
517.954	1	6
518.124	1	7
518.294	1	1
518.465	1	-9
518.635	1	-4
518.805	1	-8
518.975	1	3
519.145	1	1
519.315	1	3
519.485	1	0
519.656	1	4
519.826	1	-2
519.996	1	6
520.166	1	1
520.336	1	16
520.506	1	-3
520.676	1	0
520.846	1	1
521.017	1	4
521.187	1	-1
521.357	1	14
521.527	1	-6
521.697	1	8
521.867	1	3
522.037	1	10
522.207	1	9
522.377	1	13
522.548	1	8
522.718	1	11
522.888	1	18
523.058	1	0
523.228	1	8
523.398	1	2
523.568	1	8
523.738	1	0
523.909	1	11
524.079	1	13
524.249	1	9
524.419	1	-5
524.589	1	-3
524.759	1	2
524.929	1	-6
525.099	1	5
525.269	1	4
525.439	1	0
525.610	1	11
525.780	1	2
525.950	1	2
526.120	1	-2
526.290	1	-1
526.460	1	-15
526.630	1	10
526.800	1	1
526.970	1	-2
527.140	1	12
527.311	1	-2
527.481	1	-1
527.651	1	3
527.821	1	0
527.991	1	16
528.161	1	19
528.331	1	-6
528.501	1	4
528.671	1	-9
528.841	1	-1
529.011	1	2
529.181	1	0
529.352	1	1
529.522	1	-4
529.692	1	3
529.862	1	5
530.032	1	6
530.202	1	4
530.372	1	7
530.542	1	10
530.712	1	7
530.882	1	8
531.052	1	9
531.222	1	7
531.392	1	-4
531.563	1	3
531.733	1	4
531.903	1	12
532.073	1	7
532.243	1	8
532.413	1	3
532.583	1	5
532.753	1	1
532.923	1	-10
533.093	1	4
533.263	1	2
533.433	1	2
533.603	1	8
533.773	1	4
533.943	1	5
534.113	1	5
534.284	1	-1
534.454	1	11
534.624	1	5
534.794	1	-2
534.964	1	11
535.134	1	-9
535.304	1	6
535.474	1	9
535.644	1	3
535.814	1	2
535.984	1	4
536.154	1	-8
536.324	1	7
536.494	1	10
536.664	1	13
536.834	1	-6
537.004	1	3
537.174	1	13
537.344	1	0
537.514	1	-9
537.685	1	2
537.855	1	11
538.025	1	6
538.195	1	0
538.365	1	5
538.535	1	-5
538.705	1	-2
538.875	1	1
539.045	1	1
539.215	1	2
539.385	1	6
539.555	1	4
539.725	1	6
539.895	1	-7
540.065	1	8
540.235	1	1
540.405	1	1
540.575	1	9
540.745	1	5
540.915	1	15
541.085	1	8
541.255	1	-6
541.425	1	9
541.595	1	-2
541.765	1	10
541.935	1	-1
542.105	1	-2
542.275	1	-1
542.445	1	-10
542.615	1	-3
542.785	1	8
542.955	1	4
543.125	1	-8
543.295	1	7
543.465	1	6
543.635	1	1
543.805	1	21
543.975	1	-4
544.145	1	7
544.315	1	0
544.485	1	5
544.655	1	14
544.825	1	-5
544.995	1	5
545.165	1	-7
545.335	1	6
545.505	1	1
545.675	1	6
545.845	1	5
546.015	1	8
546.185	1	11
546.355	1	-1
546.525	1	4
546.695	1	5
546.865	1	-11
547.035	1	5
547.205	1	-7
547.375	1	1
547.545	1	13
547.715	1	2
547.885	1	-1
548.055	1	0
548.225	1	10
548.395	1	-3
548.565	1	0
548.735	1	5
548.905	1	-1
549.075	1	5
549.245	1	-3
549.415	1	-7
549.585	1	1
549.755	1	10
549.925	1	-2
550.095	1	4
550.265	1	2
550.435	1	-5
550.605	1	0
550.775	1	3
550.945	1	16
551.115	1	4
551.285	1	3
551.455	1	-3
551.625	1	5
551.795	1	6
551.965	1	1
552.135	1	0
552.305	1	-3
552.475	1	-9
552.645	1	1
552.815	1	4
552.985	1	7
553.155	1	2
553.325	1	10
553.495	1	4
553.665	1	2
553.835	1	6
554.004	1	4
554.174	1	1
554.344	1	5
554.514	1	3
554.684	1	6
554.854	1	3
555.024	1	-7
555.194	1	0
555.364	1	8
555.534	1	1
555.704	1	4
555.874	1	6
556.044	1	5
556.214	1	1
556.384	1	-5
556.554	1	4
556.724	1	5
556.894	1	0
557.064	1	2
557.234	1	-2
557.404	1	10
557.573	1	9
557.743	1	-1
557.913	1	-3
558.083	1	-7
558.253	1	13
558.423	1	-2
558.593	1	4
558.763	1	3
558.933	1	0
559.103	1	9
559.273	1	2
559.443	1	-5
559.613	1	7
559.783	1	11
559.953	1	3
560.122	1	4
560.292	1	-4
560.462	1	0
560.632	1	6
560.802	1	-3
560.972	1	8
561.142	1	5
561.312	1	-7
561.482	1	6
561.652	1	2
561.822	1	3
561.992	1	1
562.162	1	4
562.331	1	3
562.501	1	-8
562.671	1	4
562.841	1	-7
563.011	1	2
563.181	1	2
563.351	1	-6
563.521	1	6
563.691	1	2
563.861	1	-1
564.031	1	13
564.201	1	10
564.370	1	-2
564.540	1	4
564.710	1	-8
564.880	1	4
565.050	1	15
565.220	1	-6
565.390	1	6
565.560	1	4
565.730	1	12
565.900	1	-9
566.069	1	16
566.239	1	7
566.409	1	4
566.579	1	7
566.749	1	-8
566.919	1	6
567.089	1	11
567.259	1	15
567.429	1	4
567.599	1	0
567.768	1	6
567.938	1	0
568.108	1	2
568.278	1	5
568.448	1	6
568.618	1	-1
568.788	1	5
568.958	1	-4
569.128	1	10
569.297	1	-3
569.467	1	-11
569.637	1	12
569.807	1	5
569.977	1	5
570.147	1	-1
570.317	1	-5
570.487	1	13
570.656	1	0
570.826	1	-13
570.996	1	-2
571.166	1	4
571.336	1	-6
571.506	1	14
571.676	1	3
571.846	1	3
572.015	1	4
572.185	1	7
572.355	1	5
572.525	1	7
572.695	1	-3
572.865	1	-2
573.035	1	6
573.205	1	9
573.374	1	-2
573.544	1	-4
573.714	1	5
573.884	1	11
574.054	1	-3
574.224	1	9
574.394	1	-9
574.563	1	-8
574.733	1	0
574.903	1	-4
575.073	1	-8
575.243	1	0
575.413	1	12
575.583	1	5
575.752	1	3
575.922	1	4
576.092	1	7
576.262	1	1
576.432	1	6
576.602	1	2
576.772	1	13
576.941	1	7
577.111	1	1
577.281	1	-5
577.451	1	-5
577.621	1	5
577.791	1	9
577.960	1	-8
578.130	1	9
578.300	1	7
578.470	1	0
578.640	1	0
578.810	1	-2
578.979	1	5
579.149	1	2
579.319	1	-3
579.489	1	2
579.659	1	1
579.829	1	0
579.998	1	4
580.168	1	6
580.338	1	6
580.508	1	-4
580.678	1	4
580.848	1	-2
581.017	1	2
581.187	1	7
581.357	1	-4
581.527	1	6
581.697	1	9
581.867	1	6
582.036	1	1
582.206	1	3
582.376	1	2
582.546	1	1
582.716	1	2
582.885	1	1
583.055	1	1
583.225	1	-3
583.395	1	5
583.565	1	-5
583.735	1	8
583.904	1	11
584.074	1	8
584.244	1	10
584.414	1	-8
584.584	1	1
584.753	1	2
584.923	1	3
585.093	1	-2
585.263	1	6
585.433	1	7
585.602	1	1
585.772	1	-1
585.942	1	-11
586.112	1	-2
586.282	1	-1
586.451	1	-2
586.621	1	-14
586.791	1	8
586.961	1	5
587.131	1	1
587.300	1	2
587.470	1	9
587.640	1	4
587.810	1	-1
587.980	1	3
588.149	1	9
588.319	1	7
588.489	1	-8
588.659	1	0
588.829	1	-2
588.998	1	13
589.168	1	3
589.338	1	1
589.508	1	3
589.677	1	-6
589.847	1	-6
590.017	1	14
590.187	1	-2
590.357	1	8
590.526	1	6
590.696	1	7
590.866	1	11
591.036	1	0
591.205	1	15
591.375	1	-4
591.545	1	-4
591.715	1	7
591.885	1	5
592.054	1	6
592.224	1	2
592.394	1	-6
592.564	1	0
592.733	1	7
592.903	1	5
593.073	1	-2
593.243	1	4
593.412	1	6
593.582	1	-4
593.752	1	-8
593.922	1	0
594.091	1	-12
594.261	1	1
594.431	1	3
594.601	1	2
594.771	1	9
594.940	1	2
595.110	1	5
595.280	1	3
595.450	1	-3
595.619	1	-2
595.789	1	7
595.959	1	4
596.129	1	2
596.298	1	3
596.468	1	8
596.638	1	4
596.808	1	-1
596.977	1	-4
597.147	1	1
597.317	1	7
597.487	1	5
597.656	1	1
597.826	1	2
597.996	1	5
598.166	1	-3
598.335	1	-5
598.505	1	11
598.675	1	5
598.844	1	1
599.014	1	-1
599.184	1	1
599.354	1	1
599.523	1	5
599.693	1	-4
599.863	1	3
600.033	1	4
600.202	1	6
600.372	1	13
600.542	1	12
600.712	1	-1
600.881	1	0
601.051	1	8
601.221	1	5
601.390	1	-11
601.560	1	7
601.730	1	11
601.900	1	-4
602.069	1	10
602.239	1	1
602.409	1	-4
602.578	1	0
602.748	1	0
602.918	1	6
603.088	1	5
603.257	1	5
603.427	1	0
603.597	1	-3
603.767	1	-1
603.936	1	3
604.106	1	0
604.276	1	6
604.445	1	9
604.615	1	-2
604.785	1	1
604.954	1	-3
605.124	1	2
605.294	1	-3
605.464	1	3
605.633	1	1
605.803	1	5
605.973	1	2
606.142	1	4
606.312	1	7
606.482	1	-2
606.652	1	13
606.821	1	-4
606.991	1	-2
607.161	1	-11
607.330	1	4
607.500	1	13
607.670	1	-12
607.839	1	7
608.009	1	11
608.179	1	5
608.348	1	8
608.518	1	-2
608.688	1	9
608.858	1	3
609.027	1	-2
609.197	1	6
609.367	1	10
609.536	1	15
609.706	1	-7
609.876	1	0
610.045	1	-5
610.215	1	4
610.385	1	-2
610.554	1	1
610.724	1	9
610.894	1	2
611.063	1	8
611.233	1	3
611.403	1	0
611.572	1	-1
611.742	1	-1
611.912	1	3
612.081	1	2
612.251	1	4
612.421	1	3
612.590	1	3
612.760	1	2
612.930	1	-4
613.099	1	-2
613.269	1	5
613.439	1	-6
613.608	1	6
613.778	1	0
613.948	1	2
614.117	1	4
614.287	1	11
614.457	1	7
614.626	1	2
614.796	1	2
614.966	1	3
615.135	1	-1
615.305	1	3
615.475	1	-1
615.644	1	8
615.814	1	-1
615.984	1	-4
616.153	1	-1
616.323	1	2
616.493	1	3
616.662	1	2
616.832	1	0
617.002	1	0
617.171	1	0
617.341	1	-1
617.511	1	-5
617.680	1	0
617.850	1	3
618.019	1	19
618.189	1	13
618.359	1	6
618.528	1	1
618.698	1	7
618.868	1	0
619.037	1	15
619.207	1	-4
619.377	1	-4
619.546	1	1
619.716	1	6
619.885	1	2
620.055	1	1
620.225	1	4
620.394	1	-2
620.564	1	9
620.734	1	6
620.903	1	-11
621.073	1	8
621.242	1	7
621.412	1	-6
621.582	1	-2
621.751	1	3
621.921	1	0
622.091	1	3
622.260	1	7
622.430	1	10
622.599	1	1
622.769	1	1
622.939	1	7
623.108	1	9
623.278	1	-4
623.448	1	-3
623.617	1	-4
623.787	1	-2
623.956	1	16
624.126	1	6
624.296	1	0
624.465	1	7
624.635	1	17
624.804	1	2
624.974	1	8
625.144	1	7
625.313	1	-1
625.483	1	-6
625.652	1	-5
625.822	1	7
625.992	1	3
626.161	1	12
626.331	1	3
626.501	1	12
626.670	1	0
626.840	1	-3
627.009	1	2
627.179	1	7
627.348	1	2
627.518	1	8
627.688	1	10
627.857	1	10
628.027	1	-2
628.196	1	0
628.366	1	8
628.536	1	8
628.705	1	6
628.875	1	0
629.044	1	4
629.214	1	8
629.384	1	9
629.553	1	7
629.723	1	2
629.892	1	0
630.062	1	5
630.232	1	6
630.401	1	7
630.571	1	4
630.740	1	2
630.910	1	12
631.079	1	9
631.249	1	1
631.419	1	9
631.588	1	-7
631.758	1	9
631.927	1	1
632.097	1	3
632.266	1	-3
632.436	1	4
632.606	1	-1
632.775	1	8
632.945	1	-4
633.114	1	4
633.284	1	4
633.453	1	-5
633.623	1	3
633.793	1	0
633.962	1	1
634.132	1	-4
634.301	1	3
634.471	1	14
634.640	1	5
634.810	1	5
634.979	1	-1
635.149	1	8
635.319	1	8
635.488	1	-3
635.658	1	-6
635.827	1	-2
635.997	1	4
636.166	1	1
636.336	1	-2
636.505	1	7
636.675	1	-5
636.845	1	11
637.014	1	6
637.184	1	14
637.353	1	0
637.523	1	9
637.692	1	0
637.862	1	3
638.031	1	6
638.201	1	6
638.370	1	4
638.540	1	11
638.710	1	1
638.879	1	-17
639.049	1	-4
639.218	1	12
639.388	1	-3
639.557	1	5
639.727	1	4
639.896	1	6
640.066	1	-4
640.235	1	5
640.405	1	1
640.574	1	3
640.744	1	-6
640.914	1	1
641.083	1	7
641.253	1	-3
641.422	1	5
641.592	1	5
641.761	1	4
641.931	1	0
642.100	1	15
642.270	1	4
642.439	1	5
642.609	1	5
642.778	1	0
642.948	1	1
643.117	1	12
643.287	1	5
643.456	1	-7
643.626	1	9
643.795	1	-2
643.965	1	6
644.134	1	-1
644.304	1	7
644.473	1	5
644.643	1	9
644.812	1	1
644.982	1	12
645.151	1	0
645.321	1	1
645.490	1	5
645.660	1	-4
645.829	1	-1
645.999	1	-3
646.168	1	4
646.338	1	7
646.507	1	-6
646.677	1	12
646.846	1	3
647.016	1	-6
647.185	1	7
647.355	1	-9
647.524	1	16
647.694	1	15
647.863	1	12
648.033	1	6
648.202	1	3
648.372	1	-6
648.541	1	-3
648.711	1	2
648.880	1	-10
649.050	1	-1
649.219	1	2
649.389	1	4
649.558	1	3
649.728	1	6
649.897	1	-6
650.067	1	7
650.236	1	-4
650.406	1	3
650.575	1	7
650.745	1	4
650.914	1	1
651.084	1	-12
651.253	1	6
651.423	1	4
651.592	1	-1
651.762	1	-6
651.931	1	6
652.101	1	2
652.270	1	10
652.440	1	5
652.609	1	-9
652.778	1	-6
652.948	1	8
653.117	1	5
653.287	1	3
653.456	1	8
653.626	1	11
653.795	1	3
653.965	1	5
654.134	1	1
654.304	1	-11
654.473	1	5
654.643	1	-1
654.812	1	-2
654.982	1	4
655.151	1	-1
655.320	1	2
655.490	1	2
655.659	1	4
655.829	1	1
655.998	1	3
656.168	1	2
656.337	1	8
656.507	1	4
656.676	1	13
656.846	1	9
657.015	1	8
657.184	1	7
657.354	1	8
657.523	1	1
657.693	1	13
657.862	1	1
658.032	1	3
658.201	1	5
658.371	1	10
658.540	1	3
658.709	1	-7
658.879	1	10
659.048	1	-2
659.218	1	-4
659.387	1	7
659.557	1	2
659.726	1	7
659.895	1	-3
660.065	1	-2
660.234	1	-3
660.404	1	13
660.573	1	6
660.743	1	-2
660.912	1	-6
661.081	1	5
661.251	1	-9
661.420	1	8
661.590	1	4
661.759	1	5
661.929	1	6
662.098	1	13
662.267	1	-7
662.437	1	10
662.606	1	-1
662.776	1	6
662.945	1	-3
663.115	1	6
663.284	1	1
663.453	1	6
663.623	1	-3
663.792	1	7
663.962	1	4
664.131	1	-4
664.300	1	12
664.470	1	-3
664.639	1	0
664.809	1	2
664.978	1	18
665.148	1	12
665.317	1	5
665.486	1	-4
665.656	1	3
665.825	1	7
665.995	1	-15
666.164	1	-1
666.333	1	8
666.503	1	3
666.672	1	-1
666.842	1	-2
667.011	1	5
667.180	1	1
667.350	1	2
667.519	1	7
667.689	1	2
667.858	1	9
668.027	1	11
668.197	1	2
668.366	1	-3
668.536	1	4
668.705	1	-5
668.874	1	7
669.044	1	-7
669.213	1	14
669.382	1	-1
669.552	1	6
669.721	1	9
669.891	1	8
670.060	1	10
670.229	1	20
670.399	1	0
670.568	1	21
670.738	1	1
670.907	1	4
671.076	1	-5
671.246	1	4
671.415	1	3
671.584	1	9
671.754	1	4
671.923	1	5
672.093	1	-1
672.262	1	-8
672.431	1	5
672.601	1	-7
672.770	1	-1
672.939	1	10
673.109	1	8
673.278	1	13
673.448	1	8
673.617	1	0
673.786	1	6
