325.333	1	7
325.504	1	15
325.675	1	7
325.846	1	19
326.017	1	15
326.188	1	11
326.359	1	20
326.531	1	8
326.702	1	12
326.873	1	23
327.044	1	3
327.215	1	17
327.386	1	11
327.557	1	3
327.728	1	13
327.899	1	18
328.070	1	18
328.241	1	20
328.412	1	4
328.583	1	21
328.754	1	17
328.926	1	18
329.097	1	12
329.268	1	17
329.439	1	14
329.610	1	14
329.781	1	10
329.952	1	16
330.123	1	22
330.294	1	12
330.465	1	15
330.636	1	30
330.807	1	10
330.978	1	18
331.149	1	20
331.320	1	18
331.492	1	18
331.663	1	21
331.834	1	32
332.005	1	28
332.176	1	28
332.347	1	15
332.518	1	5
332.689	1	20
332.860	1	13
333.031	1	28
333.202	1	12
333.373	1	30
333.544	1	22
333.715	1	26
333.886	1	12
334.057	1	15
334.228	1	8
334.399	1	23
334.570	1	24
334.741	1	10
334.912	1	24
335.084	1	35
335.255	1	23
335.426	1	16
335.597	1	19
335.768	1	15
335.939	1	19
336.110	1	21
336.281	1	11
336.452	1	19
336.623	1	26
336.794	1	22
336.965	1	23
337.136	1	31
337.307	1	20
337.478	1	25
337.649	1	23
337.820	1	20
337.991	1	23
338.162	1	22
338.333	1	24
338.504	1	29
338.675	1	26
338.846	1	35
339.017	1	18
339.188	1	14
339.359	1	17
339.530	1	15
339.701	1	30
339.872	1	29
340.043	1	17
340.214	1	30
340.385	1	33
340.556	1	16
340.727	1	31
340.898	1	23
341.069	1	17
341.240	1	29
341.411	1	34
341.582	1	30
341.753	1	24
341.924	1	18
342.095	1	39
342.266	1	29
342.437	1	30
342.608	1	20
342.779	1	31
342.950	1	33
343.121	1	25
343.292	1	21
343.463	1	40
343.634	1	34
343.805	1	33
343.976	1	36
344.147	1	31
344.318	1	24
344.489	1	30
344.660	1	36
344.831	1	31
345.002	1	27
345.173	1	31
345.344	1	37
345.515	1	43
345.686	1	32
345.857	1	42
346.028	1	30
346.199	1	34
346.370	1	41
346.541	1	38
346.712	1	30
346.883	1	37
347.054	1	35
347.225	1	29
347.396	1	46
347.567	1	38
347.738	1	26
347.909	1	52
348.080	1	30
348.251	1	52
348.422	1	39
348.593	1	35
348.764	1	33
348.935	1	34
349.106	1	31
349.277	1	45
349.448	1	44
349.619	1	40
349.790	1	40
349.961	1	48
350.132	1	44
350.303	1	42
350.474	1	50
350.645	1	47
350.816	1	43
350.987	1	48
351.157	1	41
351.328	1	36
351.499	1	42
351.670	1	41
351.841	1	55
352.012	1	47
352.183	1	52
352.354	1	51
352.525	1	43
352.696	1	47
352.867	1	43
353.038	1	48
353.209	1	50
353.380	1	38
353.551	1	36
353.722	1	42
353.893	1	47
354.064	1	58
354.235	1	33
354.406	1	48
354.576	1	53
354.747	1	37
354.918	1	53
355.089	1	49
355.260	1	58
355.431	1	53
355.602	1	47
355.773	1	48
355.944	1	49
356.115	1	36
356.286	1	57
356.457	1	45
356.628	1	49
356.799	1	56
356.970	1	52
357.141	1	45
357.311	1	38
357.482	1	42
357.653	1	60
357.824	1	63
357.995	1	46
358.166	1	38
358.337	1	46
358.508	1	48
358.679	1	55
358.850	1	49
359.021	1	53
359.192	1	57
359.363	1	56
359.533	1	50
359.704	1	49
359.875	1	53
360.046	1	50
360.217	1	40
360.388	1	54
360.559	1	45
360.730	1	58
360.901	1	57
361.072	1	61
361.243	1	53
361.414	1	52
361.584	1	54
361.755	1	49
361.926	1	48
362.097	1	47
362.268	1	63
362.439	1	44
362.610	1	61
362.781	1	54
362.952	1	49
363.123	1	53
363.293	1	46
363.464	1	62
363.635	1	58
363.806	1	50
363.977	1	50
364.148	1	54
364.319	1	55
364.490	1	51
364.661	1	60
364.832	1	59
365.002	1	57
365.173	1	53
365.344	1	63
365.515	1	44
365.686	1	56
365.857	1	61
366.028	1	64
366.199	1	56
366.370	1	57
366.540	1	52
366.711	1	47
366.882	1	50
367.053	1	41
367.224	1	64
367.395	1	68
367.566	1	71
367.737	1	64
367.908	1	60
368.078	1	60
368.249	1	50
368.420	1	53
368.591	1	53
368.762	1	59
368.933	1	47
369.104	1	41
369.274	1	57
369.445	1	52
369.616	1	60
369.787	1	55
369.958	1	65
370.129	1	49
370.300	1	59
370.471	1	48
370.641	1	66
370.812	1	58
370.983	1	59
371.154	1	55
371.325	1	59
371.496	1	66
371.667	1	53
371.837	1	52
372.008	1	51
372.179	1	50
372.350	1	62
372.521	1	61
372.692	1	66
372.863	1	67
373.033	1	53
373.204	1	55
373.375	1	58
373.546	1	70
373.717	1	52
373.888	1	72
374.059	1	67
374.229	1	69
374.400	1	68
374.571	1	65
374.742	1	72
374.913	1	57
375.084	1	61
375.254	1	61
375.425	1	63
375.596	1	63
375.767	1	57
375.938	1	68
376.109	1	72
376.279	1	54
376.450	1	73
376.621	1	70
376.792	1	67
376.963	1	63
377.134	1	79
377.304	1	77
377.475	1	55
377.646	1	62
377.817	1	64
377.988	1	75
378.159	1	68
378.329	1	81
378.500	1	66
378.671	1	69
378.842	1	63
379.013	1	54
379.184	1	61
379.354	1	74
379.525	1	68
379.696	1	77
379.867	1	71
380.038	1	77
380.209	1	76
380.379	1	72
380.550	1	55
380.721	1	83
380.892	1	69
381.063	1	63
381.233	1	66
381.404	1	65
381.575	1	84
381.746	1	82
381.917	1	63
382.087	1	65
382.258	1	74
382.429	1	71
382.600	1	84
382.771	1	59
382.941	1	70
383.112	1	71
383.283	1	63
383.454	1	68
383.625	1	62
383.795	1	73
383.966	1	73
384.137	1	75
384.308	1	83
384.479	1	75
384.649	1	81
384.820	1	80
384.991	1	71
385.162	1	69
385.333	1	71
385.503	1	71
385.674	1	65
385.845	1	77
386.016	1	74
386.187	1	72
386.357	1	69
386.528	1	87
386.699	1	66
386.870	1	90
387.041	1	83
387.211	1	86
387.382	1	95
387.553	1	92
387.724	1	77
387.894	1	79
388.065	1	73
388.236	1	75
388.407	1	82
388.578	1	74
388.748	1	78
388.919	1	82
389.090	1	83
389.261	1	85
389.431	1	83
389.602	1	80
389.773	1	83
389.944	1	80
390.114	1	85
390.285	1	82
390.456	1	76
390.627	1	82
390.798	1	89
390.968	1	85
391.139	1	83
391.310	1	80
391.481	1	86
391.651	1	78
391.822	1	87
391.993	1	66
392.164	1	78
392.334	1	79
392.505	1	80
392.676	1	87
392.847	1	91
393.017	1	93
393.188	1	81
393.359	1	74
393.530	1	81
393.700	1	80
393.871	1	77
394.042	1	71
394.213	1	80
394.383	1	80
394.554	1	83
394.725	1	86
394.896	1	73
395.066	1	91
395.237	1	84
395.408	1	69
395.579	1	89
395.749	1	78
395.920	1	89
396.091	1	82
396.262	1	86
396.432	1	86
396.603	1	95
396.774	1	95
396.945	1	84
397.115	1	81
397.286	1	92
397.457	1	85
397.627	1	94
397.798	1	91
397.969	1	80
398.140	1	84
398.310	1	81
398.481	1	93
398.652	1	79
398.823	1	76
398.993	1	88
399.164	1	85
399.335	1	97
399.505	1	85
399.676	1	93
399.847	1	82
400.018	1	90
400.188	1	95
400.359	1	79
400.530	1	88
400.700	1	90
400.871	1	86
401.042	1	86
401.213	1	86
401.383	1	88
401.554	1	104
401.725	1	98
401.895	1	80
402.066	1	91
402.237	1	93
402.408	1	92
402.578	1	87
402.749	1	92
402.920	1	91
403.090	1	88
403.261	1	94
403.432	1	87
403.603	1	90
403.773	1	102
403.944	1	87
404.115	1	95
404.285	1	97
404.456	1	81
404.627	1	85
404.797	1	78
404.968	1	84
405.139	1	86
405.310	1	98
405.480	1	102
405.651	1	86
405.822	1	91
405.992	1	89
406.163	1	98
406.334	1	70
406.504	1	91
406.675	1	93
406.846	1	100
407.016	1	97
407.187	1	99
407.358	1	92
407.528	1	83
407.699	1	95
407.870	1	80
408.041	1	95
408.211	1	99
408.382	1	91
408.553	1	93
408.723	1	94
408.894	1	93
409.065	1	95
409.235	1	81
409.406	1	96
409.577	1	77
409.747	1	106
409.918	1	87
410.089	1	91
410.259	1	99
410.430	1	96
410.601	1	90
410.771	1	94
410.942	1	103
411.113	1	92
411.283	1	82
411.454	1	92
411.625	1	82
411.795	1	95
411.966	1	91
412.137	1	93
412.307	1	87
412.478	1	90
412.649	1	101
412.819	1	93
412.990	1	84
413.161	1	95
413.331	1	89
413.502	1	99
413.672	1	84
413.843	1	85
414.014	1	79
414.184	1	100
414.355	1	89
414.526	1	82
414.696	1	111
414.867	1	83
415.038	1	84
415.208	1	95
415.379	1	93
415.550	1	96
415.720	1	78
415.891	1	85
416.062	1	84
416.232	1	95
416.403	1	95
416.573	1	84
416.744	1	81
416.915	1	98
417.085	1	90
417.256	1	88
417.427	1	80
417.597	1	84
417.768	1	80
417.939	1	91
418.109	1	92
418.280	1	102
418.450	1	88
418.621	1	68
418.792	1	90
418.962	1	101
419.133	1	103
419.304	1	77
419.474	1	90
419.645	1	96
419.815	1	87
419.986	1	84
420.157	1	95
420.327	1	89
420.498	1	95
420.669	1	76
420.839	1	104
421.010	1	96
421.180	1	85
421.351	1	92
421.522	1	87
421.692	1	87
421.863	1	82
422.033	1	97
422.204	1	82
422.375	1	90
422.545	1	97
422.716	1	91
422.886	1	81
423.057	1	91
423.228	1	89
423.398	1	77
423.569	1	90
423.740	1	80
423.910	1	79
424.081	1	94
424.251	1	88
424.422	1	84
424.593	1	79
424.763	1	77
424.934	1	80
425.104	1	88
425.275	1	81
425.445	1	76
425.616	1	79
425.787	1	81
425.957	1	90
426.128	1	84
426.298	1	88
426.469	1	67
426.640	1	80
426.810	1	78
426.981	1	77
427.151	1	84
427.322	1	77
427.493	1	93
427.663	1	87
427.834	1	83
428.004	1	81
428.175	1	74
428.345	1	94
428.516	1	72
428.687	1	84
428.857	1	77
429.028	1	75
429.198	1	74
429.369	1	91
429.540	1	86
429.710	1	75
429.881	1	93
430.051	1	81
430.222	1	80
430.392	1	83
430.563	1	88
430.734	1	85
430.904	1	80
431.075	1	92
431.245	1	70
431.416	1	76
431.586	1	82
431.757	1	78
431.927	1	85
432.098	1	79
432.269	1	70
432.439	1	77
432.610	1	76
432.780	1	83
432.951	1	79
433.121	1	83
433.292	1	87
433.462	1	93
433.633	1	87
433.804	1	82
433.974	1	72
434.145	1	85
434.315	1	82
434.486	1	74
434.656	1	91
434.827	1	84
434.997	1	87
435.168	1	86
435.339	1	90
435.509	1	78
435.680	1	82
435.850	1	83
436.021	1	73
436.191	1	83
436.362	1	73
436.532	1	77
436.703	1	75
436.873	1	74
437.044	1	60
437.214	1	77
437.385	1	71
437.556	1	75
437.726	1	86
437.897	1	81
438.067	1	70
438.238	1	78
438.408	1	82
438.579	1	73
438.749	1	63
438.920	1	65
439.090	1	77
439.261	1	69
439.431	1	66
439.602	1	74
439.772	1	65
439.943	1	84
440.113	1	73
440.284	1	77
440.455	1	68
440.625	1	74
440.796	1	74
440.966	1	77
441.137	1	62
441.307	1	68
441.478	1	79
441.648	1	78
441.819	1	80
441.989	1	73
442.160	1	74
442.330	1	62
442.501	1	65
442.671	1	65
442.842	1	58
443.012	1	73
443.183	1	73
443.353	1	60
443.524	1	60
443.694	1	73
443.865	1	69
444.035	1	70
444.206	1	72
444.376	1	62
444.547	1	84
444.717	1	57
444.888	1	66
445.058	1	75
445.229	1	62
445.399	1	69
445.570	1	80
445.740	1	62
445.911	1	62
446.081	1	57
446.252	1	88
446.422	1	79
446.593	1	56
446.763	1	64
446.934	1	69
447.104	1	68
447.275	1	64
447.445	1	72
447.616	1	77
447.786	1	64
447.957	1	68
448.127	1	65
448.298	1	71
448.468	1	58
448.639	1	73
448.809	1	62
448.979	1	57
449.150	1	72
449.320	1	65
449.491	1	68
449.661	1	63
449.832	1	64
450.002	1	76
450.173	1	66
450.343	1	64
450.514	1	67
450.684	1	63
450.855	1	65
451.025	1	61
451.196	1	66
451.366	1	71
451.537	1	57
451.707	1	49
451.878	1	54
452.048	1	68
452.218	1	60
452.389	1	64
452.559	1	57
452.730	1	73
452.900	1	53
453.071	1	45
453.241	1	64
453.412	1	56
453.582	1	47
453.753	1	67
453.923	1	61
454.093	1	67
454.264	1	74
454.434	1	56
454.605	1	66
454.775	1	59
454.946	1	66
455.116	1	61
455.287	1	58
455.457	1	61
455.628	1	53
455.798	1	58
455.968	1	56
456.139	1	53
456.309	1	55
456.480	1	48
456.650	1	47
456.821	1	48
456.991	1	55
457.161	1	53
457.332	1	59
457.502	1	56
457.673	1	59
457.843	1	59
458.014	1	59
458.184	1	51
458.355	1	53
458.525	1	58
458.695	1	55
458.866	1	53
459.036	1	49
459.207	1	53
459.377	1	58
459.548	1	58
459.718	1	42
459.888	1	67
460.059	1	58
460.229	1	69
460.400	1	58
460.570	1	43
460.740	1	50
460.911	1	53
461.081	1	47
461.252	1	54
461.422	1	53
461.593	1	59
461.763	1	59
461.933	1	64
462.104	1	48
462.274	1	55
462.445	1	54
462.615	1	48
462.785	1	51
462.956	1	49
463.126	1	59
463.297	1	53
463.467	1	51
463.638	1	57
463.808	1	43
463.978	1	35
464.149	1	32
464.319	1	47
464.490	1	61
464.660	1	57
464.830	1	60
465.001	1	50
465.171	1	48
465.342	1	60
465.512	1	36
465.682	1	52
465.853	1	54
466.023	1	37
466.194	1	44
466.364	1	55
466.534	1	48
466.705	1	53
466.875	1	45
467.045	1	49
467.216	1	57
467.386	1	41
467.557	1	52
467.727	1	39
467.897	1	48
468.068	1	47
468.238	1	38
468.409	1	45
468.579	1	47
468.749	1	50
468.920	1	44
469.090	1	42
469.260	1	35
469.431	1	49
469.601	1	53
469.772	1	51
469.942	1	38
470.112	1	42
470.283	1	41
470.453	1	41
470.623	1	39
470.794	1	40
470.964	1	45
471.135	1	49
471.305	1	47
471.475	1	49
471.646	1	36
471.816	1	44
471.986	1	42
472.157	1	49
472.327	1	30
472.497	1	43
472.668	1	33
472.838	1	48
473.009	1	44
473.179	1	40
473.349	1	37
473.520	1	52
473.690	1	40
473.860	1	47
474.031	1	41
474.201	1	40
474.371	1	51
474.542	1	36
474.712	1	31
474.882	1	46
475.053	1	54
475.223	1	32
475.394	1	47
475.564	1	42
475.734	1	47
475.905	1	54
476.075	1	40
476.245	1	44
476.416	1	52
476.586	1	52
476.756	1	40
476.927	1	53
477.097	1	48
477.267	1	39
477.438	1	43
477.608	1	38
477.778	1	39
477.949	1	41
478.119	1	57
478.289	1	43
478.460	1	55
478.630	1	51
478.800	1	40
478.971	1	38
479.141	1	37
479.311	1	25
479.482	1	34
479.652	1	37
479.822	1	49
479.993	1	34
480.163	1	36
480.333	1	48
480.504	1	46
480.674	1	33
480.844	1	32
481.015	1	47
481.185	1	37
481.355	1	41
481.525	1	32
481.696	1	40
481.866	1	37
482.036	1	38
482.207	1	42
482.377	1	43
482.547	1	37
482.718	1	33
482.888	1	41
483.058	1	35
483.229	1	33
483.399	1	35
483.569	1	40
483.740	1	46
483.910	1	37
484.080	1	35
484.250	1	39
484.421	1	36
484.591	1	44
484.761	1	48
484.932	1	45
485.102	1	43
485.272	1	36
485.443	1	47
485.613	1	39
485.783	1	35
485.953	1	43
486.124	1	44
486.294	1	38
486.464	1	39
486.635	1	46
486.805	1	48
486.975	1	28
487.146	1	39
487.316	1	29
487.486	1	37
487.656	1	33
487.827	1	36
487.997	1	25
488.167	1	40
488.338	1	48
488.508	1	30
488.678	1	34
488.848	1	41
489.019	1	35
489.189	1	31
489.359	1	28
489.529	1	35
489.700	1	31
489.870	1	47
490.040	1	30
490.211	1	35
490.381	1	28
490.551	1	35
490.721	1	41
490.892	1	32
491.062	1	39
491.232	1	41
491.402	1	31
491.573	1	25
491.743	1	37
491.913	1	28
492.084	1	42
492.254	1	31
492.424	1	32
492.594	1	32
492.765	1	36
492.935	1	26
493.105	1	38
493.275	1	31
493.446	1	25
493.616	1	46
493.786	1	26
493.956	1	29
494.127	1	39
494.297	1	18
494.467	1	35
494.637	1	30
494.808	1	29
494.978	1	19
495.148	1	37
495.318	1	35
495.489	1	32
495.659	1	31
495.829	1	18
495.999	1	28
496.170	1	36
496.340	1	23
496.510	1	33
496.680	1	28
496.851	1	29
497.021	1	45
497.191	1	24
497.361	1	25
497.532	1	21
497.702	1	24
497.872	1	27
498.042	1	27
498.213	1	22
498.383	1	28
498.553	1	30
498.723	1	27
498.894	1	16
499.064	1	29
499.234	1	35
499.404	1	17
499.574	1	35
499.745	1	37
499.915	1	19
500.085	1	29
500.255	1	33
500.426	1	25
500.596	1	24
500.766	1	19
500.936	1	18
501.106	1	23
501.277	1	19
501.447	1	23
501.617	1	25
501.787	1	16
501.958	1	15
502.128	1	20
502.298	1	22
502.468	1	19
502.638	1	18
502.809	1	16
502.979	1	13
503.149	1	14
503.319	1	21
503.489	1	21
503.660	1	25
503.830	1	9
504.000	1	29
504.170	1	23
504.340	1	14
504.511	1	24
504.681	1	17
504.851	1	15
505.021	1	21
505.192	1	21
505.362	1	32
505.532	1	23
505.702	1	16
505.872	1	23
506.043	1	23
506.213	1	25
506.383	1	11
506.553	1	24
506.723	1	32
506.893	1	15
507.064	1	24
507.234	1	28
507.404	1	23
507.574	1	26
507.744	1	26
507.915	1	31
508.085	1	22
508.255	1	11
508.425	1	27
508.595	1	21
508.766	1	25
508.936	1	17
509.106	1	27
509.276	1	26
509.446	1	15
509.616	1	15
509.787	1	29
509.957	1	18
510.127	1	22
510.297	1	17
510.467	1	16
510.638	1	16
510.808	1	8
510.978	1	17
511.148	1	20
511.318	1	24
511.488	1	8
511.659	1	18
511.829	1	20
511.999	1	17
512.169	1	24
512.339	1	15
512.509	1	16
512.680	1	10
512.850	1	19
513.020	1	19
513.190	1	26
513.360	1	10
513.530	1	10
513.700	1	25
513.871	1	19
514.041	1	21
514.211	1	17
514.381	1	21
514.551	1	16
514.721	1	18
514.892	1	18
515.062	1	22
515.232	1	14
515.402	1	7
515.572	1	10
515.742	1	22
515.912	1	24
516.083	1	20
516.253	1	16
516.423	1	10
516.593	1	7
516.763	1	31
516.933	1	15
517.104	1	17
517.274	1	19
517.444	1	17
517.614	1	9
517.784	1	18
517.954	1	21
518.124	1	28
518.294	1	11
518.465	1	9
518.635	1	11
518.805	1	-3
518.975	1	5
519.145	1	12
519.315	1	24
519.485	1	14
519.656	1	25
519.826	1	14
519.996	1	8
520.166	1	17
520.336	1	20
520.506	1	15
520.676	1	9
520.846	1	18
521.017	1	19
521.187	1	12
521.357	1	23
521.527	1	11
521.697	1	15
521.867	1	11
522.037	1	15
522.207	1	17
522.377	1	12
522.548	1	12
522.718	1	12
522.888	1	29
523.058	1	9
523.228	1	24
523.398	1	19
523.568	1	22
523.738	1	15
523.909	1	12
524.079	1	16
524.249	1	10
524.419	1	16
524.589	1	10
524.759	1	11
524.929	1	16
525.099	1	10
525.269	1	30
525.439	1	11
525.610	1	31
525.780	1	13
525.950	1	24
526.120	1	-3
526.290	1	9
526.460	1	6
526.630	1	17
526.800	1	9
526.970	1	5
527.140	1	31
527.311	1	9
527.481	1	15
527.651	1	28
527.821	1	23
527.991	1	20
528.161	1	29
528.331	1	6
528.501	1	5
528.671	1	11
528.841	1	8
529.011	1	13
529.181	1	24
529.352	1	22
529.522	1	14
529.692	1	17
529.862	1	8
530.032	1	15
530.202	1	17
530.372	1	9
530.542	1	14
530.712	1	11
530.882	1	13
531.052	1	19
531.222	1	14
531.392	1	4
531.563	1	15
531.733	1	18
531.903	1	20
532.073	1	15
532.243	1	14
532.413	1	15
532.583	1	6
532.753	1	16
532.923	1	4
533.093	1	9
533.263	1	17
533.433	1	10
533.603	1	7
533.773	1	9
533.943	1	6
534.113	1	9
534.284	1	12
534.454	1	14
534.624	1	17
534.794	1	5
534.964	1	11
535.134	1	12
535.304	1	9
535.474	1	19
535.644	1	5
535.814	1	3
535.984	1	0
536.154	1	8
536.324	1	4
536.494	1	10
536.664	1	17
536.834	1	23
537.004	1	14
537.174	1	18
537.344	1	19
537.514	1	3
537.685	1	14
537.855	1	16
538.025	1	13
538.195	1	15
538.365	1	17
538.535	1	12
538.705	1	16
538.875	1	5
539.045	1	19
539.215	1	19
539.385	1	16
539.555	1	13
539.725	1	8
539.895	1	4
540.065	1	20
540.235	1	12
540.405	1	0
540.575	1	18
540.745	1	11
540.915	1	17
541.085	1	20
541.255	1	-1
541.425	1	25
541.595	1	1
541.765	1	18
541.935	1	2
542.105	1	3
542.275	1	15
542.445	1	-3
542.615	1	14
542.785	1	11
542.955	1	10
543.125	1	-2
543.295	1	10
543.465	1	9
543.635	1	15
543.805	1	24
543.975	1	8
544.145	1	17
544.315	1	13
544.485	1	14
544.655	1	10
544.825	1	-4
544.995	1	15
545.165	1	7
545.335	1	13
545.505	1	7
545.675	1	15
545.845	1	5
546.015	1	12
546.185	1	17
546.355	1	11
546.525	1	18
546.695	1	11
546.865	1	10
547.035	1	9
547.205	1	2
547.375	1	10
547.545	1	10
547.715	1	2
547.885	1	8
548.055	1	1
548.225	1	25
548.395	1	5
548.565	1	11
548.735	1	8
548.905	1	8
549.075	1	13
549.245	1	0
549.415	1	1
549.585	1	8
549.755	1	7
549.925	1	0
550.095	1	9
550.265	1	13
550.435	1	1
550.605	1	5
550.775	1	12
550.945	1	12
551.115	1	6
551.285	1	14
551.455	1	1
551.625	1	12
551.795	1	13
551.965	1	9
552.135	1	17
552.305	1	7
552.475	1	-4
552.645	1	0
552.815	1	7
552.985	1	5
553.155	1	8
553.325	1	7
553.495	1	6
553.665	1	5
553.835	1	12
554.004	1	6
554.174	1	10
554.344	1	12
554.514	1	2
554.684	1	9
554.854	1	14
555.024	1	5
555.194	1	5
555.364	1	12
555.534	1	10
555.704	1	7
555.874	1	19
556.044	1	12
556.214	1	-7
556.384	1	-4
556.554	1	14
556.724	1	9
556.894	1	5
557.064	1	10
557.234	1	13
557.404	1	14
557.573	1	10
557.743	1	3
557.913	1	8
558.083	1	1
558.253	1	13
558.423	1	11
558.593	1	18
558.763	1	5
558.933	1	3
559.103	1	12
559.273	1	1
559.443	1	9
559.613	1	13
559.783	1	9
559.953	1	11
560.122	1	17
560.292	1	13
560.462	1	14
560.632	1	8
560.802	1	-2
560.972	1	16
561.142	1	10
561.312	1	-4
561.482	1	11
561.652	1	21
561.822	1	1
561.992	1	12
562.162	1	9
562.331	1	11
562.501	1	3
562.671	1	10
562.841	1	3
563.011	1	13
563.181	1	6
563.351	1	5
563.521	1	9
563.691	1	6
563.861	1	7
564.031	1	12
564.201	1	19
564.370	1	4
564.540	1	3
564.710	1	1
564.880	1	16
565.050	1	16
565.220	1	2
565.390	1	11
565.560	1	6
565.730	1	3
565.900	1	7
566.069	1	15
566.239	1	4
566.409	1	17
566.579	1	15
566.749	1	9
566.919	1	13
567.089	1	4
567.259	1	13
567.429	1	12
567.599	1	8
567.768	1	7
567.938	1	3
568.108	1	2
568.278	1	3
568.448	1	-2
568.618	1	-1
568.788	1	6
568.958	1	5
569.128	1	24
569.297	1	2
569.467	1	9
569.637	1	12
569.807	1	9
569.977	1	12
570.147	1	14
570.317	1	-4
570.487	1	7
570.656	1	18
570.826	1	6
570.996	1	9
571.166	1	11
571.336	1	10
571.506	1	20
571.676	1	7
571.846	1	6
572.015	1	9
572.185	1	3
572.355	1	9
572.525	1	9
572.695	1	5
572.865	1	7
573.035	1	9
573.205	1	6
573.374	1	1
573.544	1	5
573.714	1	11
573.884	1	12
574.054	1	10
574.224	1	5
574.394	1	8
574.563	1	-2
574.733	1	3
574.903	1	0
575.073	1	7
575.243	1	4
575.413	1	16
575.583	1	0
575.752	1	9
575.922	1	5
576.092	1	10
576.262	1	4
576.432	1	21
576.602	1	4
576.772	1	15
576.941	1	-2
577.111	1	1
577.281	1	-3
577.451	1	-5
577.621	1	10
577.791	1	16
577.960	1	5
578.130	1	2
578.300	1	10
578.470	1	23
578.640	1	11
578.810	1	1
578.979	1	8
579.149	1	-7
579.319	1	-2
579.489	1	7
579.659	1	1
579.829	1	8
579.998	1	14
580.168	1	14
580.338	1	10
580.508	1	14
580.678	1	3
580.848	1	-5
581.017	1	9
581.187	1	7
581.357	1	-3
581.527	1	7
581.697	1	13
581.867	1	13
582.036	1	5
582.206	1	11
582.376	1	9
582.546	1	-3
582.716	1	-2
582.885	1	5
583.055	1	3
583.225	1	-1
583.395	1	10
583.565	1	5
583.735	1	6
583.904	1	10
584.074	1	6
584.244	1	14
584.414	1	5
584.584	1	9
584.753	1	4
584.923	1	5
585.093	1	10
585.263	1	10
585.433	1	6
585.602	1	-1
585.772	1	-2
585.942	1	7
586.112	1	0
586.282	1	3
586.451	1	-2
586.621	1	6
586.791	1	6
586.961	1	12
587.131	1	11
587.300	1	7
587.470	1	12
587.640	1	22
587.810	1	4
587.980	1	3
588.149	1	10
588.319	1	6
588.489	1	8
588.659	1	-2
588.829	1	7
588.998	1	17
589.168	1	13
589.338	1	-1
589.508	1	0
589.677	1	2
589.847	1	2
590.017	1	13
590.187	1	-8
590.357	1	14
590.526	1	18
590.696	1	8
590.866	1	16
591.036	1	1
591.205	1	20
591.375	1	-1
591.545	1	-1
591.715	1	11
591.885	1	0
592.054	1	5
592.224	1	8
592.394	1	3
592.564	1	5
592.733	1	6
592.903	1	12
593.073	1	-3
593.243	1	15
593.412	1	13
593.582	1	1
593.752	1	3
593.922	1	5
594.091	1	6
594.261	1	9
594.431	1	6
594.601	1	6
594.771	1	6
594.940	1	6
595.110	1	5
595.280	1	10
595.450	1	-3
595.619	1	3
595.789	1	-4
595.959	1	3
596.129	1	4
596.298	1	3
596.468	1	1
596.638	1	11
596.808	1	12
596.977	1	10
597.147	1	4
597.317	1	-9
597.487	1	9
597.656	1	9
597.826	1	7
597.996	1	8
598.166	1	8
598.335	1	-1
598.505	1	11
598.675	1	4
598.844	1	13
599.014	1	1
599.184	1	10
599.354	1	-1
599.523	1	10
599.693	1	5
599.863	1	22
600.033	1	8
600.202	1	10
600.372	1	-1
600.542	1	19
600.712	1	1
600.881	1	0
601.051	1	19
601.221	1	18
601.390	1	-8
601.560	1	8
601.730	1	5
601.900	1	13
602.069	1	9
602.239	1	6
602.409	1	-4
602.578	1	-1
602.748	1	2
602.918	1	11
603.088	1	9
603.257	1	9
603.427	1	-1
603.597	1	13
603.767	1	-2
603.936	1	14
604.106	1	16
604.276	1	4
604.445	1	25
604.615	1	7
604.785	1	1
604.954	1	1
605.124	1	8
605.294	1	1
605.464	1	7
605.633	1	6
605.803	1	6
605.973	1	-1
606.142	1	11
606.312	1	13
606.482	1	7
606.652	1	11
606.821	1	4
606.991	1	9
607.161	1	3
607.330	1	8
607.500	1	9
607.670	1	-1
607.839	1	13
608.009	1	15
608.179	1	9
608.348	1	18
608.518	1	-4
608.688	1	9
608.858	1	2
609.027	1	3
609.197	1	3
609.367	1	15
609.536	1	8
609.706	1	7
609.876	1	5
610.045	1	4
610.215	1	15
610.385	1	10
610.554	1	9
610.724	1	5
610.894	1	4
611.063	1	6
611.233	1	9
611.403	1	1
611.572	1	1
611.742	1	7
611.912	1	9
612.081	1	-2
612.251	1	19
612.421	1	2
612.590	1	17
612.760	1	-5
612.930	1	14
613.099	1	9
613.269	1	13
613.439	1	6
613.608	1	-2
613.778	1	6
613.948	1	7
614.117	1	5
614.287	1	16
614.457	1	5
614.626	1	2
614.796	1	11
614.966	1	7
615.135	1	0
615.305	1	23
615.475	1	9
615.644	1	11
615.814	1	10
615.984	1	3
616.153	1	8
616.323	1	3
616.493	1	1
616.662	1	11
616.832	1	8
617.002	1	4
617.171	1	3
617.341	1	3
617.511	1	11
617.680	1	-1
617.850	1	11
618.019	1	23
618.189	1	10
618.359	1	3
618.528	1	18
618.698	1	8
618.868	1	4
619.037	1	3
619.207	1	7
619.377	1	1
619.546	1	7
619.716	1	3
619.885	1	6
620.055	1	-10
620.225	1	11
620.394	1	4
620.564	1	21
620.734	1	12
620.903	1	-1
621.073	1	18
621.242	1	12
621.412	1	6
621.582	1	6
621.751	1	7
621.921	1	12
622.091	1	6
622.260	1	17
622.430	1	9
622.599	1	9
622.769	1	17
622.939	1	25
623.108	1	19
623.278	1	1
623.448	1	-3
623.617	1	5
623.787	1	9
623.956	1	22
624.126	1	9
624.296	1	7
624.465	1	11
624.635	1	18
624.804	1	10
624.974	1	3
625.144	1	9
625.313	1	4
625.483	1	13
625.652	1	1
625.822	1	10
625.992	1	12
626.161	1	23
626.331	1	12
626.501	1	11
626.670	1	8
626.840	1	3
627.009	1	-5
627.179	1	16
627.348	1	27
627.518	1	7
627.688	1	19
627.857	1	13
628.027	1	0
628.196	1	12
628.366	1	21
628.536	1	8
628.705	1	9
628.875	1	6
629.044	1	9
629.214	1	14
629.384	1	18
629.553	1	18
629.723	1	6
629.892	1	12
630.062	1	10
630.232	1	8
630.401	1	17
630.571	1	7
630.740	1	11
630.910	1	18
631.079	1	9
631.249	1	17
631.419	1	8
631.588	1	2
631.758	1	17
631.927	1	1
632.097	1	6
632.266	1	8
632.436	1	17
632.606	1	-2
632.775	1	15
632.945	1	14
633.114	1	17
633.284	1	9
633.453	1	12
633.623	1	12
633.793	1	11
633.962	1	15
634.132	1	10
634.301	1	11
634.471	1	21
634.640	1	6
634.810	1	8
634.979	1	12
635.149	1	12
635.319	1	16
635.488	1	13
635.658	1	6
635.827	1	9
635.997	1	7
636.166	1	-2
636.336	1	4
636.505	1	15
636.675	1	8
636.845	1	16
637.014	1	11
637.184	1	16
637.353	1	7
637.523	1	17
637.692	1	17
637.862	1	7
638.031	1	17
638.201	1	12
638.370	1	13
638.540	1	13
638.710	1	12
638.879	1	9
639.049	1	12
639.218	1	11
639.388	1	3
639.557	1	13
639.727	1	9
639.896	1	11
640.066	1	7
640.235	1	15
640.405	1	22
640.574	1	12
640.744	1	3
640.914	1	8
641.083	1	3
641.253	1	6
641.422	1	11
641.592	1	20
641.761	1	5
641.931	1	10
642.100	1	22
642.270	1	11
642.439	1	3
642.609	1	23
642.778	1	11
642.948	1	7
643.117	1	18
643.287	1	14
643.456	1	4
643.626	1	24
643.795	1	5
643.965	1	10
644.134	1	16
644.304	1	7
644.473	1	12
644.643	1	18
644.812	1	17
644.982	1	14
645.151	1	19
645.321	1	5
645.490	1	19
645.660	1	7
645.829	1	4
645.999	1	8
646.168	1	27
646.338	1	11
646.507	1	14
646.677	1	18
646.846	1	12
647.016	1	5
647.185	1	24
647.355	1	0
647.524	1	28
647.694	1	15
647.863	1	12
648.033	1	15
648.202	1	13
648.372	1	9
648.541	1	12
648.711	1	13
648.880	1	8
649.050	1	4
649.219	1	18
649.389	1	14
649.558	1	10
649.728	1	16
649.897	1	5
650.067	1	10
650.236	1	15
650.406	1	14
650.575	1	24
650.745	1	12
650.914	1	8
651.084	1	6
651.253	1	17
651.423	1	10
651.592	1	-3
651.762	1	8
651.931	1	22
652.101	1	23
652.270	1	22
652.440	1	14
652.609	1	10
652.778	1	2
652.948	1	16
653.117	1	12
653.287	1	9
653.456	1	8
653.626	1	16
653.795	1	14
653.965	1	18
654.134	1	18
654.304	1	-5
654.473	1	35
654.643	1	17
654.812	1	11
654.982	1	25
655.151	1	5
655.320	1	16
655.490	1	12
655.659	1	6
655.829	1	19
655.998	1	14
656.168	1	17
656.337	1	19
656.507	1	17
656.676	1	18
656.846	1	16
657.015	1	19
657.184	1	20
657.354	1	16
657.523	1	17
657.693	1	25
657.862	1	18
658.032	1	12
658.201	1	22
658.371	1	30
658.540	1	9
658.709	1	10
658.879	1	17
659.048	1	10
659.218	1	7
659.387	1	11
659.557	1	12
659.726	1	17
659.895	1	9
660.065	1	15
660.234	1	10
660.404	1	17
660.573	1	6
660.743	1	15
660.912	1	20
661.081	1	21
661.251	1	16
661.420	1	20
661.590	1	15
661.759	1	21
661.929	1	15
662.098	1	23
662.267	1	13
662.437	1	19
662.606	1	22
662.776	1	22
662.945	1	24
663.115	1	19
663.284	1	9
663.453	1	24
663.623	1	18
663.792	1	21
663.962	1	15
664.131	1	14
664.300	1	16
664.470	1	17
664.639	1	19
664.809	1	24
664.978	1	21
665.148	1	17
665.317	1	15
665.486	1	18
665.656	1	11
665.825	1	18
665.995	1	6
666.164	1	8
666.333	1	19
666.503	1	14
666.672	1	14
666.842	1	10
667.011	1	9
667.180	1	18
667.350	1	11
667.519	1	23
667.689	1	15
667.858	1	22
668.027	1	24
668.197	1	11
668.366	1	7
668.536	1	14
668.705	1	12
668.874	1	24
669.044	1	7
669.213	1	17
669.382	1	9
669.552	1	25
669.721	1	22
669.891	1	33
670.060	1	23
670.229	1	25
670.399	1	4
670.568	1	21
670.738	1	13
670.907	1	9
671.076	1	2
671.246	1	23
671.415	1	18
671.584	1	12
671.754	1	6
671.923	1	11
672.093	1	22
672.262	1	11
672.431	1	17
672.601	1	20
672.770	1	12
672.939	1	23
673.109	1	11
673.278	1	11
673.448	1	18
673.617	1	12
673.786	1	9
