325.333	1	27
325.504	1	14
325.675	1	24
325.846	1	28
326.017	1	18
326.188	1	24
326.359	1	19
326.531	1	17
326.702	1	25
326.873	1	40
327.044	1	28
327.215	1	27
327.386	1	30
327.557	1	24
327.728	1	22
327.899	1	31
328.070	1	35
328.241	1	21
328.412	1	19
328.583	1	39
328.754	1	23
328.926	1	41
329.097	1	17
329.268	1	28
329.439	1	28
329.610	1	22
329.781	1	19
329.952	1	37
330.123	1	33
330.294	1	27
330.465	1	37
330.636	1	37
330.807	1	28
330.978	1	28
331.149	1	31
331.320	1	37
331.492	1	31
331.663	1	27
331.834	1	44
332.005	1	37
332.176	1	48
332.347	1	39
332.518	1	26
332.689	1	38
332.860	1	37
333.031	1	41
333.202	1	27
333.373	1	35
333.544	1	43
333.715	1	42
333.886	1	23
334.057	1	43
334.228	1	32
334.399	1	36
334.570	1	38
334.741	1	29
334.912	1	41
335.084	1	58
335.255	1	39
335.426	1	33
335.597	1	53
335.768	1	38
335.939	1	41
336.110	1	44
336.281	1	31
336.452	1	42
336.623	1	41
336.794	1	54
336.965	1	39
337.136	1	45
337.307	1	45
337.478	1	40
337.649	1	46
337.820	1	41
337.991	1	41
338.162	1	39
338.333	1	33
338.504	1	36
338.675	1	44
338.846	1	49
339.017	1	44
339.188	1	41
339.359	1	36
339.530	1	36
339.701	1	50
339.872	1	56
340.043	1	52
340.214	1	48
340.385	1	59
340.556	1	35
340.727	1	63
340.898	1	58
341.069	1	51
341.240	1	47
341.411	1	51
341.582	1	56
341.753	1	34
341.924	1	48
342.095	1	57
342.266	1	59
342.437	1	61
342.608	1	48
342.779	1	66
342.950	1	58
343.121	1	51
343.292	1	56
343.463	1	55
343.634	1	53
343.805	1	62
343.976	1	65
344.147	1	56
344.318	1	60
344.489	1	55
344.660	1	66
344.831	1	56
345.002	1	52
345.173	1	66
345.344	1	59
345.515	1	55
345.686	1	62
345.857	1	66
346.028	1	62
346.199	1	49
346.370	1	56
346.541	1	58
346.712	1	56
346.883	1	59
347.054	1	66
347.225	1	65
347.396	1	73
347.567	1	62
347.738	1	65
347.909	1	72
348.080	1	59
348.251	1	63
348.422	1	62
348.593	1	63
348.764	1	63
348.935	1	66
349.106	1	65
349.277	1	62
349.448	1	78
349.619	1	67
349.790	1	75
349.961	1	61
350.132	1	74
350.303	1	69
350.474	1	80
350.645	1	76
350.816	1	73
350.987	1	77
351.157	1	65
351.328	1	85
351.499	1	82
351.670	1	74
351.841	1	80
352.012	1	94
352.183	1	83
352.354	1	86
352.525	1	85
352.696	1	84
352.867	1	81
353.038	1	91
353.209	1	91
353.380	1	79
353.551	1	78
353.722	1	82
353.893	1	78
354.064	1	82
354.235	1	84
354.406	1	66
354.576	1	78
354.747	1	85
354.918	1	87
355.089	1	80
355.260	1	89
355.431	1	86
355.602	1	82
355.773	1	90
355.944	1	86
356.115	1	77
356.286	1	79
356.457	1	90
356.628	1	92
356.799	1	88
356.970	1	98
357.141	1	82
357.311	1	81
357.482	1	82
357.653	1	87
357.824	1	100
357.995	1	97
358.166	1	84
358.337	1	87
358.508	1	95
358.679	1	86
358.850	1	93
359.021	1	80
359.192	1	100
359.363	1	89
359.533	1	93
359.704	1	99
359.875	1	94
360.046	1	96
360.217	1	77
360.388	1	94
360.559	1	91
360.730	1	90
360.901	1	90
361.072	1	103
361.243	1	87
361.414	1	91
361.584	1	88
361.755	1	96
361.926	1	93
362.097	1	93
362.268	1	97
362.439	1	83
362.610	1	105
362.781	1	96
362.952	1	89
363.123	1	93
363.293	1	85
363.464	1	111
363.635	1	95
363.806	1	97
363.977	1	94
364.148	1	95
364.319	1	104
364.490	1	102
364.661	1	86
364.832	1	112
365.002	1	109
365.173	1	95
365.344	1	103
365.515	1	95
365.686	1	81
365.857	1	111
366.028	1	114
366.199	1	96
366.370	1	106
366.540	1	100
366.711	1	96
366.882	1	101
367.053	1	96
367.224	1	112
367.395	1	99
367.566	1	110
367.737	1	109
367.908	1	110
368.078	1	115
368.249	1	101
368.420	1	100
368.591	1	95
368.762	1	108
368.933	1	94
369.104	1	98
369.274	1	106
369.445	1	108
369.616	1	106
369.787	1	103
369.958	1	108
370.129	1	102
370.300	1	110
370.471	1	105
370.641	1	102
370.812	1	104
370.983	1	105
371.154	1	94
371.325	1	113
371.496	1	103
371.667	1	105
371.837	1	97
372.008	1	102
372.179	1	96
372.350	1	123
372.521	1	106
372.692	1	102
372.863	1	118
373.033	1	96
373.204	1	103
373.375	1	108
373.546	1	108
373.717	1	113
373.888	1	113
374.059	1	120
374.229	1	120
374.400	1	105
374.571	1	100
374.742	1	118
374.913	1	115
375.084	1	110
375.254	1	113
375.425	1	112
375.596	1	115
375.767	1	112
375.938	1	122
376.109	1	121
376.279	1	101
376.450	1	120
376.621	1	121
376.792	1	114
376.963	1	100
377.134	1	125
377.304	1	116
377.475	1	111
377.646	1	125
377.817	1	118
377.988	1	115
378.159	1	126
378.329	1	129
378.500	1	110
378.671	1	120
378.842	1	119
379.013	1	99
379.184	1	119
379.354	1	127
379.525	1	126
379.696	1	130
379.867	1	130
380.038	1	132
380.209	1	118
380.379	1	109
380.550	1	110
380.721	1	135
380.892	1	122
381.063	1	118
381.233	1	129
381.404	1	118
381.575	1	135
381.746	1	120
381.917	1	117
382.087	1	134
382.258	1	118
382.429	1	143
382.600	1	135
382.771	1	121
382.941	1	129
383.112	1	137
383.283	1	115
383.454	1	131
383.625	1	128
383.795	1	129
383.966	1	127
384.137	1	124
384.308	1	135
384.479	1	141
384.649	1	131
384.820	1	123
384.991	1	128
385.162	1	130
385.333	1	129
385.503	1	137
385.674	1	121
385.845	1	149
386.016	1	132
386.187	1	134
386.357	1	138
386.528	1	140
386.699	1	130
386.870	1	155
387.041	1	140
387.211	1	132
387.382	1	162
387.553	1	133
387.724	1	137
387.894	1	133
388.065	1	142
388.236	1	152
388.407	1	152
388.578	1	138
388.748	1	131
388.919	1	161
389.090	1	128
389.261	1	138
389.431	1	145
389.602	1	155
389.773	1	137
389.944	1	137
390.114	1	139
390.285	1	142
390.456	1	142
390.627	1	136
390.798	1	143
390.968	1	137
391.139	1	151
391.310	1	155
391.481	1	146
391.651	1	141
391.822	1	136
391.993	1	142
392.164	1	135
392.334	1	152
392.505	1	129
392.676	1	151
392.847	1	153
393.017	1	152
393.188	1	141
393.359	1	134
393.530	1	138
393.700	1	153
393.871	1	142
394.042	1	150
394.213	1	135
394.383	1	141
394.554	1	141
394.725	1	154
394.896	1	135
395.066	1	141
395.237	1	143
395.408	1	151
395.579	1	165
395.749	1	152
395.920	1	140
396.091	1	145
396.262	1	139
396.432	1	148
396.603	1	151
396.774	1	161
396.945	1	161
397.115	1	153
397.286	1	169
397.457	1	143
397.627	1	151
397.798	1	155
397.969	1	149
398.140	1	156
398.310	1	151
398.481	1	165
398.652	1	157
398.823	1	146
398.993	1	147
399.164	1	172
399.335	1	173
399.505	1	140
399.676	1	164
399.847	1	157
400.018	1	160
400.188	1	152
400.359	1	149
400.530	1	153
400.700	1	160
400.871	1	157
401.042	1	163
401.213	1	156
401.383	1	169
401.554	1	157
401.725	1	151
401.895	1	151
402.066	1	152
402.237	1	163
402.408	1	156
402.578	1	150
402.749	1	151
402.920	1	155
403.090	1	139
403.261	1	156
403.432	1	142
403.603	1	166
403.773	1	166
403.944	1	164
404.115	1	171
404.285	1	177
404.456	1	155
404.627	1	155
404.797	1	149
404.968	1	154
405.139	1	159
405.310	1	162
405.480	1	175
405.651	1	149
405.822	1	149
405.992	1	163
406.163	1	159
406.334	1	149
406.504	1	165
406.675	1	177
406.846	1	168
407.016	1	173
407.187	1	162
407.358	1	163
407.528	1	172
407.699	1	147
407.870	1	160
408.041	1	156
408.211	1	186
408.382	1	164
408.553	1	139
408.723	1	171
408.894	1	158
409.065	1	175
409.235	1	155
409.406	1	175
409.577	1	162
409.747	1	175
409.918	1	181
410.089	1	178
410.259	1	163
410.430	1	163
410.601	1	169
410.771	1	161
410.942	1	180
411.113	1	159
411.283	1	165
411.454	1	169
411.625	1	157
411.795	1	166
411.966	1	165
412.137	1	168
412.307	1	158
412.478	1	163
412.649	1	167
412.819	1	165
412.990	1	156
413.161	1	175
413.331	1	158
413.502	1	168
413.672	1	156
413.843	1	157
414.014	1	162
414.184	1	159
414.355	1	157
414.526	1	165
414.696	1	157
414.867	1	155
415.038	1	132
415.208	1	169
415.379	1	157
415.550	1	165
415.720	1	177
415.891	1	151
416.062	1	158
416.232	1	166
416.403	1	156
416.573	1	165
416.744	1	157
416.915	1	166
417.085	1	172
417.256	1	154
417.427	1	158
417.597	1	161
417.768	1	150
417.939	1	160
418.109	1	168
418.280	1	159
418.450	1	163
418.621	1	155
418.792	1	172
418.962	1	159
419.133	1	182
419.304	1	147
419.474	1	144
419.645	1	144
419.815	1	147
419.986	1	162
420.157	1	159
420.327	1	163
420.498	1	158
420.669	1	154
420.839	1	168
421.010	1	150
421.180	1	163
421.351	1	152
421.522	1	155
421.692	1	157
421.863	1	137
422.033	1	154
422.204	1	146
422.375	1	148
422.545	1	152
422.716	1	149
422.886	1	150
423.057	1	156
423.228	1	140
423.398	1	149
423.569	1	153
423.740	1	134
423.910	1	147
424.081	1	148
424.251	1	145
424.422	1	141
424.593	1	151
424.763	1	159
424.934	1	141
425.104	1	145
425.275	1	142
425.445	1	147
425.616	1	140
425.787	1	144
425.957	1	132
426.128	1	159
426.298	1	154
426.469	1	131
426.640	1	134
426.810	1	148
426.981	1	129
427.151	1	148
427.322	1	149
427.493	1	140
427.663	1	144
427.834	1	134
428.004	1	150
428.175	1	137
428.345	1	142
428.516	1	133
428.687	1	143
428.857	1	130
429.028	1	143
429.198	1	127
429.369	1	152
429.540	1	143
429.710	1	128
429.881	1	146
430.051	1	147
430.222	1	139
430.392	1	134
430.563	1	146
430.734	1	144
430.904	1	143
431.075	1	148
431.245	1	155
431.416	1	147
431.586	1	160
431.757	1	147
431.927	1	145
432.098	1	138
432.269	1	139
432.439	1	143
432.610	1	144
432.780	1	145
432.951	1	140
433.121	1	144
433.292	1	146
433.462	1	139
433.633	1	135
433.804	1	137
433.974	1	144
434.145	1	155
434.315	1	133
434.486	1	141
434.656	1	138
434.827	1	149
434.997	1	132
435.168	1	154
435.339	1	144
435.509	1	134
435.680	1	139
435.850	1	142
436.021	1	135
436.191	1	132
436.362	1	148
436.532	1	142
436.703	1	143
436.873	1	133
437.044	1	110
437.214	1	133
437.385	1	128
437.556	1	121
437.726	1	137
437.897	1	146
438.067	1	125
438.238	1	129
438.408	1	135
438.579	1	136
438.749	1	135
438.920	1	139
439.090	1	123
439.261	1	126
439.431	1	129
439.602	1	127
439.772	1	128
439.943	1	135
440.113	1	131
440.284	1	123
440.455	1	126
440.625	1	123
440.796	1	122
440.966	1	112
441.137	1	120
441.307	1	129
441.478	1	126
441.648	1	123
441.819	1	132
441.989	1	129
442.160	1	127
442.330	1	125
442.501	1	124
442.671	1	108
442.842	1	101
443.012	1	119
443.183	1	111
443.353	1	114
443.524	1	123
443.694	1	126
443.865	1	115
444.035	1	122
444.206	1	131
444.376	1	124
444.547	1	117
444.717	1	121
444.888	1	109
445.058	1	132
445.229	1	120
445.399	1	113
445.570	1	116
445.740	1	114
445.911	1	121
446.081	1	115
446.252	1	127
446.422	1	114
446.593	1	119
446.763	1	120
446.934	1	117
447.104	1	117
447.275	1	122
447.445	1	113
447.616	1	124
447.786	1	124
447.957	1	107
448.127	1	121
448.298	1	109
448.468	1	106
448.639	1	115
448.809	1	114
448.979	1	112
449.150	1	120
449.320	1	112
449.491	1	125
449.661	1	100
449.832	1	117
450.002	1	121
450.173	1	112
450.343	1	106
450.514	1	108
450.684	1	101
450.855	1	106
451.025	1	109
451.196	1	110
451.366	1	102
451.537	1	107
451.707	1	103
451.878	1	110
452.048	1	115
452.218	1	115
452.389	1	117
452.559	1	102
452.730	1	119
452.900	1	104
453.071	1	91
453.241	1	111
453.412	1	102
453.582	1	97
453.753	1	103
453.923	1	99
454.093	1	108
454.264	1	120
454.434	1	110
454.605	1	106
454.775	1	111
454.946	1	106
455.116	1	94
455.287	1	88
455.457	1	99
455.628	1	85
455.798	1	98
455.968	1	97
456.139	1	99
456.309	1	99
456.480	1	79
456.650	1	95
456.821	1	93
456.991	1	102
457.161	1	92
457.332	1	105
457.502	1	87
457.673	1	108
457.843	1	103
458.014	1	101
458.184	1	97
458.355	1	89
458.525	1	94
458.695	1	96
458.866	1	99
459.036	1	88
459.207	1	98
459.377	1	103
459.548	1	100
459.718	1	89
459.888	1	99
460.059	1	91
460.229	1	112
460.400	1	94
460.570	1	106
460.740	1	101
460.911	1	88
461.081	1	98
461.252	1	89
461.422	1	91
461.593	1	91
461.763	1	96
461.933	1	103
462.104	1	85
462.274	1	95
462.445	1	100
462.615	1	87
462.785	1	92
462.956	1	98
463.126	1	90
463.297	1	91
463.467	1	87
463.638	1	91
463.808	1	85
463.978	1	85
464.149	1	85
464.319	1	84
464.490	1	100
464.660	1	88
464.830	1	79
465.001	1	83
465.171	1	91
465.342	1	92
465.512	1	77
465.682	1	84
465.853	1	84
466.023	1	78
466.194	1	81
466.364	1	87
466.534	1	87
466.705	1	81
466.875	1	90
467.045	1	82
467.216	1	93
467.386	1	66
467.557	1	72
467.727	1	72
467.897	1	74
468.068	1	75
468.238	1	77
468.409	1	78
468.579	1	68
468.749	1	79
468.920	1	71
469.090	1	80
469.260	1	71
469.431	1	80
469.601	1	85
469.772	1	85
469.942	1	72
470.112	1	77
470.283	1	80
470.453	1	73
470.623	1	75
470.794	1	67
470.964	1	79
471.135	1	76
471.305	1	65
471.475	1	84
471.646	1	61
471.816	1	61
471.986	1	75
472.157	1	80
472.327	1	66
472.497	1	82
472.668	1	60
472.838	1	76
473.009	1	84
473.179	1	72
473.349	1	76
473.520	1	82
473.690	1	62
473.860	1	69
474.031	1	72
474.201	1	72
474.371	1	88
474.542	1	79
474.712	1	66
474.882	1	76
475.053	1	85
475.223	1	76
475.394	1	81
475.564	1	84
475.734	1	79
475.905	1	88
476.075	1	73
476.245	1	79
476.416	1	71
476.586	1	73
476.756	1	60
476.927	1	74
477.097	1	78
477.267	1	65
477.438	1	61
477.608	1	77
477.778	1	73
477.949	1	75
478.119	1	76
478.289	1	74
478.460	1	69
478.630	1	77
478.800	1	58
478.971	1	63
479.141	1	66
479.311	1	58
479.482	1	63
479.652	1	63
479.822	1	70
479.993	1	64
480.163	1	72
480.333	1	75
480.504	1	76
480.674	1	70
480.844	1	55
481.015	1	75
481.185	1	61
481.355	1	77
481.525	1	60
481.696	1	73
481.866	1	62
482.036	1	66
482.207	1	62
482.377	1	64
482.547	1	71
482.718	1	62
482.888	1	66
483.058	1	65
483.229	1	61
483.399	1	63
483.569	1	59
483.740	1	67
483.910	1	66
484.080	1	55
484.250	1	65
484.421	1	56
484.591	1	66
484.761	1	62
484.932	1	68
485.102	1	70
485.272	1	61
485.443	1	67
485.613	1	55
485.783	1	58
485.953	1	59
486.124	1	65
486.294	1	61
486.464	1	59
486.635	1	67
486.805	1	58
486.975	1	51
487.146	1	66
487.316	1	54
487.486	1	51
487.656	1	50
487.827	1	60
487.997	1	52
488.167	1	58
488.338	1	67
488.508	1	55
488.678	1	53
488.848	1	64
489.019	1	47
489.189	1	52
489.359	1	53
489.529	1	58
489.700	1	52
489.870	1	73
490.040	1	47
490.211	1	45
490.381	1	59
490.551	1	45
490.721	1	59
490.892	1	45
491.062	1	53
491.232	1	56
491.402	1	56
491.573	1	41
491.743	1	54
491.913	1	46
492.084	1	46
492.254	1	53
492.424	1	55
492.594	1	62
492.765	1	50
492.935	1	62
493.105	1	57
493.275	1	59
493.446	1	54
493.616	1	57
493.786	1	51
493.956	1	52
494.127	1	58
494.297	1	46
494.467	1	55
494.637	1	47
494.808	1	50
494.978	1	40
495.148	1	47
495.318	1	46
495.489	1	55
495.659	1	54
495.829	1	54
495.999	1	40
496.170	1	58
496.340	1	51
496.510	1	40
496.680	1	48
496.851	1	45
497.021	1	37
497.191	1	38
497.361	1	40
497.532	1	51
497.702	1	47
497.872	1	44
498.042	1	46
498.213	1	49
498.383	1	52
498.553	1	41
498.723	1	47
498.894	1	50
499.064	1	43
499.234	1	46
499.404	1	44
499.574	1	53
499.745	1	46
499.915	1	43
500.085	1	53
500.255	1	52
500.426	1	50
500.596	1	39
500.766	1	45
500.936	1	39
501.106	1	30
501.277	1	53
501.447	1	40
501.617	1	46
501.787	1	39
501.958	1	32
502.128	1	31
502.298	1	48
502.468	1	46
502.638	1	46
502.809	1	35
502.979	1	51
503.149	1	29
503.319	1	43
503.489	1	35
503.660	1	41
503.830	1	43
504.000	1	45
504.170	1	39
504.340	1	34
504.511	1	50
504.681	1	40
504.851	1	42
505.021	1	44
505.192	1	37
505.362	1	46
505.532	1	37
505.702	1	37
505.872	1	43
506.043	1	37
506.213	1	36
506.383	1	39
506.553	1	58
506.723	1	37
506.893	1	31
507.064	1	38
507.234	1	41
507.404	1	38
507.574	1	32
507.744	1	41
507.915	1	29
508.085	1	54
508.255	1	33
508.425	1	27
508.595	1	40
508.766	1	41
508.936	1	34
509.106	1	46
509.276	1	48
509.446	1	35
509.616	1	35
509.787	1	40
509.957	1	34
510.127	1	35
510.297	1	40
510.467	1	34
510.638	1	46
510.808	1	31
510.978	1	41
511.148	1	32
511.318	1	35
511.488	1	32
511.659	1	46
511.829	1	26
511.999	1	36
512.169	1	29
512.339	1	31
512.509	1	31
512.680	1	38
512.850	1	42
513.020	1	43
513.190	1	41
513.360	1	31
513.530	1	27
513.700	1	49
513.871	1	36
514.041	1	25
514.211	1	39
514.381	1	42
514.551	1	27
514.721	1	37
514.892	1	40
515.062	1	37
515.232	1	41
515.402	1	28
515.572	1	24
515.742	1	39
515.912	1	42
516.083	1	39
516.253	1	35
516.423	1	37
516.593	1	28
516.763	1	35
516.933	1	32
517.104	1	23
517.274	1	31
517.444	1	29
517.614	1	20
517.784	1	32
517.954	1	29
518.124	1	35
518.294	1	22
518.465	1	23
518.635	1	29
518.805	1	13
518.975	1	24
519.145	1	30
519.315	1	28
519.485	1	21
519.656	1	35
519.826	1	26
519.996	1	12
520.166	1	28
520.336	1	35
520.506	1	27
520.676	1	15
520.846	1	33
521.017	1	31
521.187	1	28
521.357	1	29
521.527	1	35
521.697	1	31
521.867	1	13
522.037	1	34
522.207	1	33
522.377	1	24
522.548	1	30
522.718	1	27
522.888	1	30
523.058	1	33
523.228	1	35
523.398	1	28
523.568	1	37
523.738	1	25
523.909	1	24
524.079	1	29
524.249	1	15
524.419	1	23
524.589	1	26
524.759	1	27
524.929	1	20
525.099	1	28
525.269	1	31
525.439	1	22
525.610	1	40
525.780	1	19
525.950	1	27
526.120	1	18
526.290	1	23
526.460	1	8
526.630	1	28
526.800	1	20
526.970	1	16
527.140	1	22
527.311	1	16
527.481	1	25
527.651	1	38
527.821	1	21
527.991	1	38
528.161	1	33
528.331	1	17
528.501	1	19
528.671	1	18
528.841	1	29
529.011	1	18
529.181	1	26
529.352	1	24
529.522	1	20
529.692	1	26
529.862	1	19
530.032	1	22
530.202	1	23
530.372	1	21
530.542	1	33
530.712	1	20
530.882	1	31
531.052	1	40
531.222	1	17
531.392	1	22
531.563	1	35
531.733	1	21
531.903	1	20
532.073	1	36
532.243	1	16
532.413	1	21
532.583	1	29
532.753	1	25
532.923	1	13
533.093	1	36
533.263	1	18
533.433	1	28
533.603	1	26
533.773	1	18
533.943	1	14
534.113	1	19
534.284	1	21
534.454	1	27
534.624	1	41
534.794	1	17
534.964	1	26
535.134	1	26
535.304	1	17
535.474	1	30
535.644	1	19
535.814	1	17
535.984	1	19
536.154	1	5
536.324	1	11
536.494	1	29
536.664	1	29
536.834	1	25
537.004	1	14
537.174	1	21
537.344	1	13
537.514	1	7
537.685	1	24
537.855	1	27
538.025	1	19
538.195	1	16
538.365	1	26
538.535	1	22
538.705	1	22
538.875	1	15
539.045	1	21
539.215	1	25
539.385	1	22
539.555	1	26
539.725	1	22
539.895	1	18
540.065	1	21
540.235	1	25
540.405	1	14
540.575	1	14
540.745	1	19
540.915	1	30
541.085	1	28
541.255	1	8
541.425	1	25
541.595	1	10
541.765	1	26
541.935	1	17
542.105	1	6
542.275	1	21
542.445	1	2
542.615	1	16
542.785	1	24
542.955	1	15
543.125	1	20
543.295	1	21
543.465	1	16
543.635	1	12
543.805	1	34
543.975	1	18
544.145	1	16
544.315	1	24
544.485	1	15
544.655	1	19
544.825	1	6
544.995	1	21
545.165	1	9
545.335	1	18
545.505	1	10
545.675	1	17
545.845	1	19
546.015	1	24
546.185	1	30
546.355	1	18
546.525	1	16
546.695	1	16
546.865	1	14
547.035	1	18
547.205	1	8
547.375	1	18
547.545	1	26
547.715	1	15
547.885	1	21
548.055	1	3
548.225	1	16
548.395	1	10
548.565	1	16
548.735	1	24
548.905	1	18
549.075	1	8
549.245	1	11
549.415	1	11
549.585	1	18
549.755	1	16
549.925	1	9
550.095	1	21
550.265	1	16
550.435	1	21
550.605	1	11
550.775	1	18
550.945	1	19
551.115	1	11
551.285	1	10
551.455	1	6
551.625	1	29
551.795	1	19
551.965	1	11
552.135	1	7
552.305	1	18
552.475	1	-1
552.645	1	3
552.815	1	9
552.985	1	22
553.155	1	15
553.325	1	22
553.495	1	20
553.665	1	2
553.835	1	17
554.004	1	25
554.174	1	12
554.344	1	14
554.514	1	12
554.684	1	17
554.854	1	15
555.024	1	6
555.194	1	4
555.364	1	21
555.534	1	18
555.704	1	18
555.874	1	25
556.044	1	14
556.214	1	-1
556.384	1	15
556.554	1	16
556.724	1	9
556.894	1	8
557.064	1	15
557.234	1	17
557.404	1	25
557.573	1	17
557.743	1	11
557.913	1	0
558.083	1	4
558.253	1	9
558.423	1	14
558.593	1	18
558.763	1	9
558.933	1	18
559.103	1	25
559.273	1	17
559.443	1	20
559.613	1	13
559.783	1	10
559.953	1	12
560.122	1	19
560.292	1	17
560.462	1	3
560.632	1	13
560.802	1	16
560.972	1	14
561.142	1	17
561.312	1	6
561.482	1	10
561.652	1	18
561.822	1	1
561.992	1	13
562.162	1	9
562.331	1	2
562.501	1	1
562.671	1	20
562.841	1	8
563.011	1	19
563.181	1	20
563.351	1	-2
563.521	1	15
563.691	1	6
563.861	1	12
564.031	1	19
564.201	1	28
564.370	1	10
564.540	1	13
564.710	1	4
564.880	1	13
565.050	1	22
565.220	1	0
565.390	1	19
565.560	1	9
565.730	1	10
565.900	1	12
566.069	1	21
566.239	1	15
566.409	1	19
566.579	1	11
566.749	1	5
566.919	1	19
567.089	1	18
567.259	1	18
567.429	1	8
567.599	1	12
567.768	1	13
567.938	1	4
568.108	1	19
568.278	1	7
568.448	1	13
568.618	1	4
568.788	1	9
568.958	1	12
569.128	1	18
569.297	1	3
569.467	1	4
569.637	1	15
569.807	1	13
569.977	1	8
570.147	1	18
570.317	1	10
570.487	1	16
570.656	1	12
570.826	1	7
570.996	1	-1
571.166	1	19
571.336	1	2
571.506	1	13
571.676	1	14
571.846	1	18
572.015	1	9
572.185	1	1
572.355	1	7
572.525	1	19
572.695	1	11
572.865	1	10
573.035	1	8
573.205	1	18
573.374	1	6
573.544	1	18
573.714	1	11
573.884	1	15
574.054	1	15
574.224	1	13
574.394	1	6
574.563	1	13
574.733	1	7
574.903	1	9
575.073	1	6
575.243	1	8
575.413	1	18
575.583	1	9
575.752	1	9
575.922	1	13
576.092	1	9
576.262	1	12
576.432	1	7
576.602	1	9
576.772	1	20
576.941	1	15
577.111	1	-1
577.281	1	5
577.451	1	-7
577.621	1	22
577.791	1	15
577.960	1	6
578.130	1	18
578.300	1	19
578.470	1	19
578.640	1	11
578.810	1	4
578.979	1	12
579.149	1	1
579.319	1	11
579.489	1	5
579.659	1	13
579.829	1	14
579.998	1	17
580.168	1	12
580.338	1	9
580.508	1	4
580.678	1	23
580.848	1	19
581.017	1	12
581.187	1	8
581.357	1	6
581.527	1	16
581.697	1	9
581.867	1	12
582.036	1	8
582.206	1	4
582.376	1	15
582.546	1	4
582.716	1	1
582.885	1	-2
583.055	1	10
583.225	1	2
583.395	1	10
583.565	1	9
583.735	1	19
583.904	1	8
584.074	1	16
584.244	1	13
584.414	1	11
584.584	1	3
584.753	1	10
584.923	1	14
585.093	1	12
585.263	1	12
585.433	1	2
585.602	1	6
585.772	1	7
585.942	1	18
586.112	1	6
586.282	1	7
586.451	1	2
586.621	1	3
586.791	1	7
586.961	1	17
587.131	1	15
587.300	1	-1
587.470	1	11
587.640	1	13
587.810	1	7
587.980	1	-1
588.149	1	10
588.319	1	8
588.489	1	5
588.659	1	5
588.829	1	17
588.998	1	17
589.168	1	24
589.338	1	15
589.508	1	14
589.677	1	3
589.847	1	6
590.017	1	16
590.187	1	3
590.357	1	20
590.526	1	17
590.696	1	12
590.866	1	13
591.036	1	5
591.205	1	38
591.375	1	9
591.545	1	6
591.715	1	9
591.885	1	10
592.054	1	10
592.224	1	9
592.394	1	2
592.564	1	11
592.733	1	17
592.903	1	10
593.073	1	14
593.243	1	13
593.412	1	20
593.582	1	9
593.752	1	-3
593.922	1	9
594.091	1	9
594.261	1	12
594.431	1	15
594.601	1	18
594.771	1	20
594.940	1	8
595.110	1	9
595.280	1	18
595.450	1	4
595.619	1	5
595.789	1	16
595.959	1	20
596.129	1	1
596.298	1	16
596.468	1	19
596.638	1	17
596.808	1	9
596.977	1	14
597.147	1	17
597.317	1	3
597.487	1	15
597.656	1	8
597.826	1	16
597.996	1	16
598.166	1	3
598.335	1	3
598.505	1	10
598.675	1	6
598.844	1	4
599.014	1	18
599.184	1	15
599.354	1	5
599.523	1	7
599.693	1	3
599.863	1	23
600.033	1	14
600.202	1	14
600.372	1	15
600.542	1	21
600.712	1	5
600.881	1	4
601.051	1	18
601.221	1	21
601.390	1	10
601.560	1	16
601.730	1	16
601.900	1	13
602.069	1	20
602.239	1	6
602.409	1	9
602.578	1	21
602.748	1	1
602.918	1	14
603.088	1	16
603.257	1	9
603.427	1	5
603.597	1	2
603.767	1	11
603.936	1	11
604.106	1	21
604.276	1	14
604.445	1	19
604.615	1	8
604.785	1	14
604.954	1	7
605.124	1	14
605.294	1	5
605.464	1	2
605.633	1	12
605.803	1	16
605.973	1	9
606.142	1	16
606.312	1	9
606.482	1	11
606.652	1	19
606.821	1	0
606.991	1	4
607.161	1	3
607.330	1	13
607.500	1	14
607.670	1	3
607.839	1	20
608.009	1	18
608.179	1	14
608.348	1	18
608.518	1	9
608.688	1	8
608.858	1	11
609.027	1	-1
609.197	1	17
609.367	1	23
609.536	1	10
609.706	1	12
609.876	1	13
610.045	1	7
610.215	1	21
610.385	1	13
610.554	1	12
610.724	1	10
610.894	1	22
611.063	1	8
611.233	1	11
611.403	1	12
611.572	1	7
611.742	1	22
611.912	1	10
612.081	1	5
612.251	1	9
612.421	1	12
612.590	1	18
612.760	1	9
612.930	1	12
613.099	1	8
613.269	1	27
613.439	1	7
613.608	1	7
613.778	1	18
613.948	1	14
614.117	1	12
614.287	1	19
614.457	1	12
614.626	1	9
614.796	1	13
614.966	1	18
615.135	1	4
615.305	1	25
615.475	1	3
615.644	1	10
615.814	1	14
615.984	1	5
616.153	1	10
616.323	1	9
616.493	1	12
616.662	1	33
616.832	1	11
617.002	1	-1
617.171	1	12
617.341	1	16
617.511	1	12
617.680	1	6
617.850	1	23
618.019	1	21
618.189	1	19
618.359	1	10
618.528	1	13
618.698	1	15
618.868	1	11
619.037	1	17
619.207	1	2
619.377	1	3
619.546	1	9
619.716	1	3
619.885	1	16
620.055	1	7
620.225	1	20
620.394	1	9
620.564	1	24
620.734	1	22
620.903	1	6
621.073	1	4
621.242	1	15
621.412	1	16
621.582	1	14
621.751	1	18
621.921	1	23
622.091	1	14
622.260	1	12
622.430	1	21
622.599	1	17
622.769	1	18
622.939	1	22
623.108	1	10
623.278	1	4
623.448	1	9
623.617	1	15
623.787	1	9
623.956	1	15
624.126	1	14
624.296	1	14
624.465	1	16
624.635	1	22
624.804	1	22
624.974	1	10
625.144	1	27
625.313	1	12
625.483	1	11
625.652	1	7
625.822	1	18
625.992	1	12
626.161	1	31
626.331	1	20
626.501	1	15
626.670	1	20
626.840	1	10
627.009	1	6
627.179	1	21
627.348	1	14
627.518	1	21
627.688	1	24
627.857	1	25
628.027	1	5
628.196	1	25
628.366	1	17
628.536	1	21
628.705	1	12
628.875	1	8
629.044	1	13
629.214	1	10
629.384	1	23
629.553	1	25
629.723	1	15
629.892	1	11
630.062	1	15
630.232	1	16
630.401	1	22
630.571	1	13
630.740	1	9
630.910	1	19
631.079	1	17
631.249	1	16
631.419	1	19
631.588	1	7
631.758	1	27
631.927	1	23
632.097	1	16
632.266	1	11
632.436	1	23
632.606	1	13
632.775	1	30
632.945	1	14
633.114	1	31
633.284	1	21
633.453	1	11
633.623	1	18
633.793	1	25
633.962	1	12
634.132	1	20
634.301	1	20
634.471	1	19
634.640	1	19
634.810	1	20
634.979	1	26
635.149	1	26
635.319	1	13
635.488	1	13
635.658	1	15
635.827	1	19
635.997	1	13
636.166	1	21
636.336	1	14
636.505	1	23
636.675	1	18
636.845	1	23
637.014	1	27
637.184	1	19
637.353	1	11
637.523	1	19
637.692	1	21
637.862	1	22
638.031	1	27
638.201	1	28
638.370	1	22
638.540	1	14
638.710	1	14
638.879	1	8
639.049	1	25
639.218	1	17
639.388	1	26
639.557	1	15
639.727	1	19
639.896	1	31
640.066	1	20
640.235	1	20
640.405	1	22
640.574	1	15
640.744	1	10
640.914	1	18
641.083	1	14
641.253	1	15
641.422	1	20
641.592	1	26
641.761	1	19
641.931	1	8
642.100	1	33
642.270	1	15
642.439	1	22
642.609	1	27
642.778	1	21
642.948	1	16
643.117	1	31
643.287	1	29
643.456	1	25
643.626	1	29
643.795	1	23
643.965	1	23
644.134	1	10
644.304	1	16
644.473	1	22
644.643	1	25
644.812	1	19
644.982	1	24
645.151	1	18
645.321	1	19
645.490	1	30
645.660	1	15
645.829	1	20
645.999	1	35
646.168	1	30
646.338	1	26
646.507	1	15
646.677	1	20
646.846	1	22
647.016	1	12
647.185	1	22
647.355	1	12
647.524	1	25
647.694	1	28
647.863	1	13
648.033	1	28
648.202	1	29
648.372	1	18
648.541	1	18
648.711	1	19
648.880	1	21
649.050	1	20
649.219	1	21
649.389	1	30
649.558	1	22
649.728	1	21
649.897	1	22
650.067	1	19
650.236	1	23
650.406	1	19
650.575	1	30
650.745	1	24
650.914	1	12
651.084	1	20
651.253	1	22
651.423	1	25
651.592	1	18
651.762	1	17
651.931	1	25
652.101	1	23
652.270	1	33
652.440	1	28
652.609	1	11
652.778	1	20
652.948	1	19
653.117	1	31
653.287	1	16
653.456	1	27
653.626	1	44
653.795	1	20
653.965	1	17
654.134	1	38
654.304	1	8
654.473	1	27
654.643	1	23
654.812	1	20
654.982	1	27
655.151	1	20
655.320	1	27
655.490	1	15
655.659	1	23
655.829	1	25
655.998	1	18
656.168	1	19
656.337	1	24
656.507	1	19
656.676	1	26
656.846	1	34
657.015	1	27
657.184	1	25
657.354	1	32
657.523	1	27
657.693	1	36
657.862	1	14
658.032	1	25
658.201	1	20
658.371	1	39
658.540	1	21
658.709	1	20
658.879	1	39
659.048	1	15
659.218	1	23
659.387	1	28
659.557	1	17
659.726	1	25
659.895	1	21
660.065	1	19
660.234	1	19
660.404	1	24
660.573	1	16
660.743	1	32
660.912	1	21
661.081	1	38
661.251	1	32
661.420	1	26
661.590	1	39
661.759	1	38
661.929	1	36
662.098	1	32
662.267	1	32
662.437	1	38
662.606	1	22
662.776	1	34
662.945	1	34
663.115	1	26
663.284	1	26
663.453	1	34
663.623	1	18
663.792	1	29
663.962	1	36
664.131	1	29
664.300	1	39
664.470	1	27
664.639	1	32
664.809	1	33
664.978	1	44
665.148	1	32
665.317	1	30
665.486	1	42
665.656	1	28
665.825	1	42
665.995	1	34
666.164	1	26
666.333	1	33
666.503	1	39
666.672	1	25
666.842	1	33
667.011	1	31
667.180	1	35
667.350	1	28
667.519	1	34
667.689	1	35
667.858	1	35
668.027	1	42
668.197	1	29
668.366	1	23
668.536	1	33
668.705	1	34
668.874	1	37
669.044	1	29
669.213	1	34
669.382	1	22
669.552	1	40
669.721	1	32
669.891	1	34
670.060	1	39
670.229	1	36
670.399	1	23
670.568	1	35
670.738	1	37
670.907	1	23
671.076	1	25
671.246	1	38
671.415	1	27
671.584	1	39
671.754	1	33
671.923	1	34
672.093	1	32
672.262	1	25
672.431	1	35
672.601	1	13
672.770	1	25
672.939	1	44
673.109	1	25
673.278	1	43
673.448	1	36
673.617	1	28
673.786	1	35
