325.333	1	13
325.504	1	9
325.675	1	8
325.846	1	5
326.017	1	10
326.188	1	5
326.359	1	10
326.531	1	-6
326.702	1	1
326.873	1	12
327.044	1	16
327.215	1	7
327.386	1	10
327.557	1	-3
327.728	1	4
327.899	1	7
328.070	1	8
328.241	1	5
328.412	1	-8
328.583	1	5
328.754	1	9
328.926	1	15
329.097	1	-5
329.268	1	13
329.439	1	1
329.610	1	18
329.781	1	-11
329.952	1	12
330.123	1	8
330.294	1	14
330.465	1	12
330.636	1	11
330.807	1	2
330.978	1	13
331.149	1	1
331.320	1	10
331.492	1	14
331.663	1	8
331.834	1	15
332.005	1	14
332.176	1	21
332.347	1	17
332.518	1	3
332.689	1	15
332.860	1	4
333.031	1	20
333.202	1	7
333.373	1	10
333.544	1	13
333.715	1	23
333.886	1	8
334.057	1	7
334.228	1	9
334.399	1	12
334.570	1	12
334.741	1	8
334.912	1	21
335.084	1	25
335.255	1	11
335.426	1	4
335.597	1	15
335.768	1	14
335.939	1	15
336.110	1	9
336.281	1	8
336.452	1	13
336.623	1	16
336.794	1	10
336.965	1	8
337.136	1	14
337.307	1	9
337.478	1	8
337.649	1	11
337.820	1	8
337.991	1	0
338.162	1	12
338.333	1	12
338.504	1	22
338.675	1	11
338.846	1	14
339.017	1	10
339.188	1	9
339.359	1	12
339.530	1	12
339.701	1	13
339.872	1	29
340.043	1	13
340.214	1	8
340.385	1	23
340.556	1	5
340.727	1	18
340.898	1	28
341.069	1	20
341.240	1	18
341.411	1	10
341.582	1	14
341.753	1	11
341.924	1	18
342.095	1	21
342.266	1	18
342.437	1	25
342.608	1	14
342.779	1	16
342.950	1	12
343.121	1	21
343.292	1	16
343.463	1	15
343.634	1	18
343.805	1	19
343.976	1	23
344.147	1	20
344.318	1	23
344.489	1	16
344.660	1	28
344.831	1	10
345.002	1	9
345.173	1	20
345.344	1	25
345.515	1	21
345.686	1	13
345.857	1	21
346.028	1	18
346.199	1	15
346.370	1	21
346.541	1	20
346.712	1	-2
346.883	1	13
347.054	1	19
347.225	1	27
347.396	1	28
347.567	1	16
347.738	1	8
347.909	1	30
348.080	1	22
348.251	1	20
348.422	1	23
348.593	1	17
348.764	1	16
348.935	1	10
349.106	1	8
349.277	1	26
349.448	1	19
349.619	1	22
349.790	1	23
349.961	1	26
350.132	1	15
350.303	1	19
350.474	1	29
350.645	1	17
350.816	1	26
350.987	1	31
351.157	1	14
351.328	1	34
351.499	1	30
351.670	1	15
351.841	1	35
352.012	1	22
352.183	1	35
352.354	1	26
352.525	1	26
352.696	1	32
352.867	1	15
353.038	1	23
353.209	1	28
353.380	1	18
353.551	1	15
353.722	1	21
353.893	1	29
354.064	1	38
354.235	1	19
354.406	1	28
354.576	1	30
354.747	1	18
354.918	1	40
355.089	1	30
355.260	1	23
355.431	1	31
355.602	1	18
355.773	1	33
355.944	1	26
356.115	1	20
356.286	1	26
356.457	1	21
356.628	1	29
356.799	1	25
356.970	1	35
357.141	1	28
357.311	1	15
357.482	1	23
357.653	1	33
357.824	1	30
357.995	1	33
358.166	1	34
358.337	1	22
358.508	1	41
358.679	1	23
358.850	1	37
359.021	1	16
359.192	1	34
359.363	1	32
359.533	1	26
359.704	1	36
359.875	1	37
360.046	1	26
360.217	1	29
360.388	1	30
360.559	1	18
360.730	1	38
360.901	1	24
361.072	1	36
361.243	1	33
361.414	1	22
361.584	1	21
361.755	1	50
361.926	1	25
362.097	1	35
362.268	1	35
362.439	1	25
362.610	1	43
362.781	1	24
362.952	1	31
363.123	1	35
363.293	1	20
363.464	1	33
363.635	1	28
363.806	1	32
363.977	1	26
364.148	1	35
364.319	1	28
364.490	1	36
364.661	1	39
364.832	1	30
365.002	1	32
365.173	1	32
365.344	1	33
365.515	1	26
365.686	1	31
365.857	1	29
366.028	1	26
366.199	1	43
366.370	1	30
366.540	1	21
366.711	1	14
366.882	1	21
367.053	1	25
367.224	1	34
367.395	1	37
367.566	1	40
367.737	1	35
367.908	1	35
368.078	1	39
368.249	1	25
368.420	1	28
368.591	1	27
368.762	1	31
368.933	1	33
369.104	1	32
369.274	1	40
369.445	1	33
369.616	1	30
369.787	1	34
369.958	1	36
370.129	1	23
370.300	1	42
370.471	1	36
370.641	1	35
370.812	1	37
370.983	1	35
371.154	1	29
371.325	1	42
371.496	1	33
371.667	1	35
371.837	1	31
372.008	1	35
372.179	1	13
372.350	1	42
372.521	1	33
372.692	1	27
372.863	1	50
373.033	1	17
373.204	1	21
373.375	1	37
373.546	1	35
373.717	1	44
373.888	1	44
374.059	1	45
374.229	1	32
374.400	1	26
374.571	1	31
374.742	1	36
374.913	1	33
375.084	1	33
375.254	1	49
375.425	1	35
375.596	1	43
375.767	1	36
375.938	1	42
376.109	1	41
376.279	1	29
376.450	1	43
376.621	1	45
376.792	1	42
376.963	1	50
377.134	1	42
377.304	1	43
377.475	1	34
377.646	1	40
377.817	1	35
377.988	1	34
378.159	1	40
378.329	1	51
378.500	1	33
378.671	1	48
378.842	1	37
379.013	1	28
379.184	1	38
379.354	1	43
379.525	1	36
379.696	1	49
379.867	1	39
380.038	1	45
380.209	1	41
380.379	1	37
380.550	1	23
380.721	1	54
380.892	1	38
381.063	1	43
381.233	1	43
381.404	1	41
381.575	1	48
381.746	1	37
381.917	1	43
382.087	1	49
382.258	1	46
382.429	1	39
382.600	1	47
382.771	1	43
382.941	1	30
383.112	1	44
383.283	1	41
383.454	1	45
383.625	1	36
383.795	1	41
383.966	1	45
384.137	1	49
384.308	1	48
384.479	1	41
384.649	1	52
384.820	1	41
384.991	1	41
385.162	1	52
385.333	1	45
385.503	1	41
385.674	1	36
385.845	1	59
386.016	1	53
386.187	1	49
386.357	1	51
386.528	1	44
386.699	1	45
386.870	1	54
387.041	1	47
387.211	1	48
387.382	1	57
387.553	1	47
387.724	1	46
387.894	1	40
388.065	1	46
388.236	1	51
388.407	1	41
388.578	1	41
388.748	1	42
388.919	1	60
389.090	1	43
389.261	1	46
389.431	1	46
389.602	1	54
389.773	1	42
389.944	1	52
390.114	1	35
390.285	1	51
390.456	1	42
390.627	1	50
390.798	1	53
390.968	1	47
391.139	1	60
391.310	1	43
391.481	1	51
391.651	1	45
391.822	1	41
391.993	1	47
392.164	1	34
392.334	1	39
392.505	1	45
392.676	1	48
392.847	1	55
393.017	1	57
393.188	1	55
393.359	1	46
393.530	1	47
393.700	1	42
393.871	1	38
394.042	1	51
394.213	1	49
394.383	1	53
394.554	1	44
394.725	1	50
394.896	1	48
395.066	1	54
395.237	1	44
395.408	1	49
395.579	1	49
395.749	1	51
395.920	1	47
396.091	1	51
396.262	1	48
396.432	1	42
396.603	1	65
396.774	1	68
396.945	1	53
397.115	1	47
397.286	1	49
397.457	1	48
397.627	1	52
397.798	1	47
397.969	1	41
398.140	1	46
398.310	1	43
398.481	1	61
398.652	1	47
398.823	1	47
398.993	1	47
399.164	1	51
399.335	1	67
399.505	1	57
399.676	1	56
399.847	1	46
400.018	1	41
400.188	1	42
400.359	1	48
400.530	1	49
400.700	1	56
400.871	1	44
401.042	1	63
401.213	1	51
401.383	1	58
401.554	1	50
401.725	1	57
401.895	1	49
402.066	1	48
402.237	1	56
402.408	1	57
402.578	1	54
402.749	1	54
402.920	1	59
403.090	1	50
403.261	1	52
403.432	1	47
403.603	1	58
403.773	1	63
403.944	1	69
404.115	1	60
404.285	1	61
404.456	1	56
404.627	1	52
404.797	1	40
404.968	1	46
405.139	1	52
405.310	1	73
405.480	1	51
405.651	1	46
405.822	1	62
405.992	1	54
406.163	1	43
406.334	1	46
406.504	1	50
406.675	1	63
406.846	1	52
407.016	1	61
407.187	1	60
407.358	1	52
407.528	1	39
407.699	1	46
407.870	1	45
408.041	1	53
408.211	1	58
408.382	1	49
408.553	1	59
408.723	1	53
408.894	1	53
409.065	1	55
409.235	1	49
409.406	1	56
409.577	1	58
409.747	1	65
409.918	1	50
410.089	1	65
410.259	1	44
410.430	1	47
410.601	1	56
410.771	1	45
410.942	1	58
411.113	1	55
411.283	1	57
411.454	1	60
411.625	1	49
411.795	1	58
411.966	1	60
412.137	1	55
412.307	1	40
412.478	1	51
412.649	1	65
412.819	1	46
412.990	1	52
413.161	1	54
413.331	1	39
413.502	1	64
413.672	1	50
413.843	1	54
414.014	1	44
414.184	1	58
414.355	1	64
414.526	1	58
414.696	1	60
414.867	1	56
415.038	1	49
415.208	1	55
415.379	1	57
415.550	1	60
415.720	1	50
415.891	1	55
416.062	1	44
416.232	1	54
416.403	1	47
416.573	1	55
416.744	1	39
416.915	1	54
417.085	1	52
417.256	1	54
417.427	1	57
417.597	1	51
417.768	1	52
417.939	1	46
418.109	1	55
418.280	1	62
418.450	1	50
418.621	1	47
418.792	1	51
418.962	1	59
419.133	1	54
419.304	1	53
419.474	1	36
419.645	1	52
419.815	1	45
419.986	1	61
420.157	1	59
420.327	1	58
420.498	1	57
420.669	1	46
420.839	1	56
421.010	1	56
421.180	1	62
421.351	1	51
421.522	1	62
421.692	1	52
421.863	1	53
422.033	1	58
422.204	1	53
422.375	1	56
422.545	1	61
422.716	1	49
422.886	1	46
423.057	1	65
423.228	1	47
423.398	1	46
423.569	1	57
423.740	1	56
423.910	1	44
424.081	1	37
424.251	1	49
424.422	1	58
424.593	1	42
424.763	1	49
424.934	1	51
425.104	1	48
425.275	1	39
425.445	1	44
425.616	1	40
425.787	1	46
425.957	1	48
426.128	1	55
426.298	1	60
426.469	1	49
426.640	1	55
426.810	1	36
426.981	1	45
427.151	1	45
427.322	1	53
427.493	1	58
427.663	1	53
427.834	1	47
428.004	1	53
428.175	1	58
428.345	1	50
428.516	1	40
428.687	1	51
428.857	1	43
429.028	1	42
429.198	1	52
429.369	1	43
429.540	1	49
429.710	1	47
429.881	1	65
430.051	1	46
430.222	1	56
430.392	1	39
430.563	1	49
430.734	1	54
430.904	1	47
431.075	1	53
431.245	1	40
431.416	1	51
431.586	1	55
431.757	1	54
431.927	1	50
432.098	1	46
432.269	1	54
432.439	1	59
432.610	1	47
432.780	1	57
432.951	1	44
433.121	1	54
433.292	1	53
433.462	1	56
433.633	1	56
433.804	1	50
433.974	1	42
434.145	1	56
434.315	1	52
434.486	1	48
434.656	1	50
434.827	1	48
434.997	1	40
435.168	1	58
435.339	1	55
435.509	1	58
435.680	1	39
435.850	1	41
436.021	1	38
436.191	1	45
436.362	1	45
436.532	1	55
436.703	1	47
436.873	1	44
437.044	1	36
437.214	1	49
437.385	1	41
437.556	1	41
437.726	1	58
437.897	1	54
438.067	1	41
438.238	1	52
438.408	1	48
438.579	1	43
438.749	1	45
438.920	1	47
439.090	1	48
439.261	1	42
439.431	1	41
439.602	1	48
439.772	1	40
439.943	1	49
440.113	1	44
440.284	1	47
440.455	1	44
440.625	1	44
440.796	1	45
440.966	1	47
441.137	1	37
441.307	1	40
441.478	1	60
441.648	1	43
441.819	1	36
441.989	1	43
442.160	1	50
442.330	1	47
442.501	1	47
442.671	1	36
442.842	1	35
443.012	1	30
443.183	1	50
443.353	1	42
443.524	1	46
443.694	1	50
443.865	1	42
444.035	1	51
444.206	1	47
444.376	1	36
444.547	1	58
444.717	1	44
444.888	1	41
445.058	1	50
445.229	1	45
445.399	1	41
445.570	1	47
445.740	1	35
445.911	1	43
446.081	1	27
446.252	1	51
446.422	1	40
446.593	1	42
446.763	1	40
446.934	1	44
447.104	1	49
447.275	1	38
447.445	1	41
447.616	1	43
447.786	1	40
447.957	1	44
448.127	1	31
448.298	1	49
448.468	1	43
448.639	1	46
448.809	1	47
448.979	1	43
449.150	1	42
449.320	1	42
449.491	1	46
449.661	1	33
449.832	1	38
450.002	1	43
450.173	1	40
450.343	1	34
450.514	1	37
450.684	1	40
450.855	1	43
451.025	1	40
451.196	1	49
451.366	1	36
451.537	1	23
451.707	1	27
451.878	1	37
452.048	1	47
452.218	1	41
452.389	1	41
452.559	1	29
452.730	1	57
452.900	1	50
453.071	1	37
453.241	1	37
453.412	1	38
453.582	1	40
453.753	1	37
453.923	1	38
454.093	1	36
454.264	1	47
454.434	1	43
454.605	1	48
454.775	1	28
454.946	1	39
455.116	1	40
455.287	1	19
455.457	1	36
455.628	1	25
455.798	1	38
455.968	1	37
456.139	1	37
456.309	1	37
456.480	1	33
456.650	1	30
456.821	1	31
456.991	1	29
457.161	1	39
457.332	1	40
457.502	1	19
457.673	1	40
457.843	1	33
458.014	1	25
458.184	1	35
458.355	1	27
458.525	1	32
458.695	1	35
458.866	1	23
459.036	1	33
459.207	1	32
459.377	1	35
459.548	1	48
459.718	1	23
459.888	1	39
460.059	1	36
460.229	1	26
460.400	1	48
460.570	1	39
460.740	1	25
460.911	1	42
461.081	1	37
461.252	1	24
461.422	1	29
461.593	1	19
461.763	1	27
461.933	1	43
462.104	1	26
462.274	1	31
462.445	1	35
462.615	1	40
462.785	1	39
462.956	1	34
463.126	1	43
463.297	1	35
463.467	1	39
463.638	1	26
463.808	1	31
463.978	1	17
464.149	1	31
464.319	1	28
464.490	1	47
464.660	1	38
464.830	1	25
465.001	1	25
465.171	1	36
465.342	1	28
465.512	1	17
465.682	1	34
465.853	1	36
466.023	1	33
466.194	1	31
466.364	1	35
466.534	1	38
466.705	1	29
466.875	1	19
467.045	1	30
467.216	1	34
467.386	1	10
467.557	1	35
467.727	1	11
467.897	1	32
468.068	1	23
468.238	1	28
468.409	1	31
468.579	1	29
468.749	1	25
468.920	1	25
469.090	1	22
469.260	1	17
469.431	1	36
469.601	1	30
469.772	1	23
469.942	1	25
470.112	1	31
470.283	1	19
470.453	1	31
470.623	1	20
470.794	1	12
470.964	1	24
471.135	1	29
471.305	1	21
471.475	1	26
471.646	1	19
471.816	1	19
471.986	1	27
472.157	1	29
472.327	1	9
472.497	1	18
472.668	1	17
472.838	1	18
473.009	1	33
473.179	1	15
473.349	1	24
473.520	1	29
473.690	1	29
473.860	1	35
474.031	1	18
474.201	1	21
474.371	1	28
474.542	1	28
474.712	1	22
474.882	1	29
475.053	1	28
475.223	1	24
475.394	1	23
475.564	1	15
475.734	1	19
475.905	1	35
476.075	1	26
476.245	1	31
476.416	1	20
476.586	1	30
476.756	1	26
476.927	1	32
477.097	1	13
477.267	1	9
477.438	1	25
477.608	1	41
477.778	1	36
477.949	1	17
478.119	1	39
478.289	1	27
478.460	1	27
478.630	1	34
478.800	1	19
478.971	1	14
479.141	1	22
479.311	1	11
479.482	1	23
479.652	1	19
479.822	1	25
479.993	1	27
480.163	1	23
480.333	1	22
480.504	1	24
480.674	1	14
480.844	1	16
481.015	1	28
481.185	1	20
481.355	1	23
481.525	1	22
481.696	1	20
481.866	1	15
482.036	1	18
482.207	1	14
482.377	1	20
482.547	1	35
482.718	1	21
482.888	1	16
483.058	1	16
483.229	1	14
483.399	1	12
483.569	1	22
483.740	1	24
483.910	1	23
484.080	1	21
484.250	1	27
484.421	1	22
484.591	1	15
484.761	1	24
484.932	1	31
485.102	1	19
485.272	1	18
485.443	1	26
485.613	1	15
485.783	1	26
485.953	1	23
486.124	1	18
486.294	1	25
486.464	1	15
486.635	1	25
486.805	1	25
486.975	1	17
487.146	1	24
487.316	1	16
487.486	1	21
487.656	1	17
487.827	1	15
487.997	1	10
488.167	1	10
488.338	1	26
488.508	1	21
488.678	1	9
488.848	1	22
489.019	1	24
489.189	1	19
489.359	1	14
489.529	1	11
489.700	1	19
489.870	1	26
490.040	1	6
490.211	1	5
490.381	1	27
490.551	1	17
490.721	1	24
490.892	1	15
491.062	1	18
491.232	1	13
491.402	1	16
491.573	1	1
491.743	1	17
491.913	1	13
492.084	1	20
492.254	1	12
492.424	1	11
492.594	1	15
492.765	1	11
492.935	1	6
493.105	1	14
493.275	1	23
493.446	1	22
493.616	1	21
493.786	1	4
493.956	1	20
494.127	1	14
494.297	1	14
494.467	1	16
494.637	1	16
494.808	1	18
494.978	1	10
495.148	1	16
495.318	1	10
495.489	1	15
495.659	1	10
495.829	1	12
495.999	1	9
496.170	1	16
496.340	1	10
496.510	1	25
496.680	1	14
496.851	1	10
497.021	1	14
497.191	1	11
497.361	1	15
497.532	1	9
497.702	1	11
497.872	1	13
498.042	1	23
498.213	1	14
498.383	1	23
498.553	1	7
498.723	1	10
498.894	1	12
499.064	1	12
499.234	1	17
499.404	1	15
499.574	1	25
499.745	1	12
499.915	1	10
500.085	1	16
500.255	1	16
500.426	1	6
500.596	1	16
500.766	1	12
500.936	1	19
501.106	1	9
501.277	1	15
501.447	1	12
501.617	1	13
501.787	1	12
501.958	1	-2
502.128	1	10
502.298	1	20
502.468	1	7
502.638	1	22
502.809	1	21
502.979	1	8
503.149	1	8
503.319	1	6
503.489	1	17
503.660	1	18
503.830	1	13
504.000	1	22
504.170	1	16
504.340	1	10
504.511	1	21
504.681	1	14
504.851	1	17
505.021	1	12
505.192	1	7
505.362	1	18
505.532	1	11
505.702	1	10
505.872	1	23
506.043	1	13
506.213	1	7
506.383	1	11
506.553	1	19
506.723	1	8
506.893	1	2
507.064	1	18
507.234	1	7
507.404	1	9
507.574	1	14
507.744	1	12
507.915	1	14
508.085	1	26
508.255	1	19
508.425	1	5
508.595	1	20
508.766	1	19
508.936	1	-1
509.106	1	25
509.276	1	23
509.446	1	6
509.616	1	10
509.787	1	5
509.957	1	9
510.127	1	14
510.297	1	13
510.467	1	9
510.638	1	16
510.808	1	1
510.978	1	7
511.148	1	13
511.318	1	15
511.488	1	6
511.659	1	13
511.829	1	0
511.999	1	13
512.169	1	0
512.339	1	5
512.509	1	4
512.680	1	8
512.850	1	12
513.020	1	21
513.190	1	7
513.360	1	3
513.530	1	7
513.700	1	21
513.871	1	12
514.041	1	13
514.211	1	17
514.381	1	16
514.551	1	11
514.721	1	4
514.892	1	9
515.062	1	11
515.232	1	5
515.402	1	4
515.572	1	7
515.742	1	7
515.912	1	12
516.083	1	12
516.253	1	23
516.423	1	6
516.593	1	5
516.763	1	17
516.933	1	-4
517.104	1	8
517.274	1	9
517.444	1	12
517.614	1	3
517.784	1	7
517.954	1	16
518.124	1	12
518.294	1	9
518.465	1	16
518.635	1	8
518.805	1	-8
518.975	1	0
519.145	1	12
519.315	1	12
519.485	1	10
519.656	1	15
519.826	1	7
519.996	1	4
520.166	1	6
520.336	1	21
520.506	1	2
520.676	1	-2
520.846	1	13
521.017	1	9
521.187	1	17
521.357	1	11
521.527	1	3
521.697	1	7
521.867	1	6
522.037	1	13
522.207	1	7
522.377	1	11
522.548	1	7
522.718	1	12
522.888	1	21
523.058	1	6
523.228	1	2
523.398	1	23
523.568	1	13
523.738	1	11
523.909	1	15
524.079	1	8
524.249	1	2
524.419	1	2
524.589	1	10
524.759	1	8
524.929	1	0
525.099	1	3
525.269	1	7
525.439	1	7
525.610	1	26
525.780	1	7
525.950	1	12
526.120	1	7
526.290	1	8
526.460	1	4
526.630	1	6
526.800	1	1
526.970	1	5
527.140	1	5
527.311	1	7
527.481	1	-1
527.651	1	17
527.821	1	-2
527.991	1	24
528.161	1	17
528.331	1	5
528.501	1	0
528.671	1	3
528.841	1	6
529.011	1	15
529.181	1	14
529.352	1	12
529.522	1	11
529.692	1	13
529.862	1	2
530.032	1	24
530.202	1	15
530.372	1	9
530.542	1	10
530.712	1	18
530.882	1	17
531.052	1	7
531.222	1	7
531.392	1	15
531.563	1	12
531.733	1	11
531.903	1	-4
532.073	1	19
532.243	1	5
532.413	1	14
532.583	1	13
532.753	1	13
532.923	1	-10
533.093	1	4
533.263	1	-5
533.433	1	6
533.603	1	6
533.773	1	0
533.943	1	5
534.113	1	0
534.284	1	8
534.454	1	14
534.624	1	24
534.794	1	1
534.964	1	16
535.134	1	8
535.304	1	8
535.474	1	12
535.644	1	0
535.814	1	-4
535.984	1	4
536.154	1	-2
536.324	1	5
536.494	1	13
536.664	1	11
536.834	1	10
537.004	1	-1
537.174	1	20
537.344	1	0
537.514	1	-5
537.685	1	-1
537.855	1	14
538.025	1	14
538.195	1	16
538.365	1	16
538.535	1	6
538.705	1	8
538.875	1	8
539.045	1	5
539.215	1	9
539.385	1	13
539.555	1	2
539.725	1	8
539.895	1	2
540.065	1	22
540.235	1	19
540.405	1	-9
540.575	1	2
540.745	1	3
540.915	1	8
541.085	1	11
541.255	1	-10
541.425	1	12
541.595	1	6
541.765	1	10
541.935	1	5
542.105	1	6
542.275	1	7
542.445	1	-1
542.615	1	14
542.785	1	10
542.955	1	7
543.125	1	-5
543.295	1	12
543.465	1	10
543.635	1	10
543.805	1	16
543.975	1	8
544.145	1	7
544.315	1	7
544.485	1	9
544.655	1	12
544.825	1	-5
544.995	1	4
545.165	1	-2
545.335	1	4
545.505	1	4
545.675	1	7
545.845	1	9
546.015	1	8
546.185	1	13
546.355	1	5
546.525	1	5
546.695	1	11
546.865	1	-1
547.035	1	14
547.205	1	2
547.375	1	18
547.545	1	9
547.715	1	1
547.885	1	11
548.055	1	6
548.225	1	9
548.395	1	1
548.565	1	2
548.735	1	4
548.905	1	5
549.075	1	13
549.245	1	6
549.415	1	4
549.585	1	12
549.755	1	10
549.925	1	-3
550.095	1	9
550.265	1	0
550.435	1	-1
550.605	1	-2
550.775	1	5
550.945	1	12
551.115	1	5
551.285	1	7
551.455	1	7
551.625	1	13
551.795	1	8
551.965	1	0
552.135	1	4
552.305	1	6
552.475	1	1
552.645	1	-3
552.815	1	4
552.985	1	13
553.155	1	8
553.325	1	9
553.495	1	-1
553.665	1	-3
553.835	1	-5
554.004	1	3
554.174	1	6
554.344	1	11
554.514	1	6
554.684	1	0
554.854	1	15
555.024	1	5
555.194	1	13
555.364	1	16
555.534	1	5
555.704	1	3
555.874	1	1
556.044	1	3
556.214	1	-8
556.384	1	5
556.554	1	16
556.724	1	8
556.894	1	3
557.064	1	4
557.234	1	3
557.404	1	11
557.573	1	7
557.743	1	1
557.913	1	-2
558.083	1	-5
558.253	1	6
558.423	1	-9
558.593	1	14
558.763	1	4
558.933	1	-4
559.103	1	11
559.273	1	6
559.443	1	-1
559.613	1	9
559.783	1	3
559.953	1	6
560.122	1	9
560.292	1	4
560.462	1	1
560.632	1	7
560.802	1	4
560.972	1	13
561.142	1	8
561.312	1	-6
561.482	1	12
561.652	1	3
561.822	1	3
561.992	1	-5
562.162	1	4
562.331	1	6
562.501	1	-10
562.671	1	5
562.841	1	5
563.011	1	3
563.181	1	11
563.351	1	1
563.521	1	9
563.691	1	-7
563.861	1	3
564.031	1	12
564.201	1	21
564.370	1	-3
564.540	1	6
564.710	1	6
564.880	1	11
565.050	1	7
565.220	1	6
565.390	1	8
565.560	1	9
565.730	1	1
565.900	1	8
566.069	1	13
566.239	1	6
566.409	1	11
566.579	1	7
566.749	1	1
566.919	1	-1
567.089	1	10
567.259	1	12
567.429	1	6
567.599	1	3
567.768	1	3
567.938	1	-2
568.108	1	1
568.278	1	-2
568.448	1	-4
568.618	1	6
568.788	1	0
568.958	1	4
569.128	1	0
569.297	1	0
569.467	1	8
569.637	1	12
569.807	1	8
569.977	1	3
570.147	1	9
570.317	1	-14
570.487	1	3
570.656	1	3
570.826	1	2
570.996	1	-4
571.166	1	18
571.336	1	3
571.506	1	9
571.676	1	4
571.846	1	7
572.015	1	3
572.185	1	0
572.355	1	9
572.525	1	2
572.695	1	1
572.865	1	-6
573.035	1	6
573.205	1	-1
573.374	1	1
573.544	1	7
573.714	1	10
573.884	1	9
574.054	1	-2
574.224	1	5
574.394	1	-3
574.563	1	-7
574.733	1	1
574.903	1	6
575.073	1	-10
575.243	1	5
575.413	1	7
575.583	1	2
575.752	1	3
575.922	1	3
576.092	1	8
576.262	1	6
576.432	1	11
576.602	1	-5
576.772	1	14
576.941	1	4
577.111	1	0
577.281	1	-4
577.451	1	1
577.621	1	13
577.791	1	6
577.960	1	-7
578.130	1	5
578.300	1	2
578.470	1	12
578.640	1	1
578.810	1	4
578.979	1	1
579.149	1	5
579.319	1	-1
579.489	1	3
579.659	1	3
579.829	1	5
579.998	1	4
580.168	1	14
580.338	1	5
580.508	1	6
580.678	1	8
580.848	1	-3
581.017	1	1
581.187	1	1
581.357	1	-6
581.527	1	10
581.697	1	15
581.867	1	8
582.036	1	12
582.206	1	4
582.376	1	12
582.546	1	2
582.716	1	-3
582.885	1	-5
583.055	1	3
583.225	1	-10
583.395	1	9
583.565	1	-6
583.735	1	6
583.904	1	5
584.074	1	5
584.244	1	6
584.414	1	3
584.584	1	8
584.753	1	-9
584.923	1	2
585.093	1	3
585.263	1	-2
585.433	1	9
585.602	1	2
585.772	1	3
585.942	1	-5
586.112	1	1
586.282	1	-2
586.451	1	-3
586.621	1	-2
586.791	1	1
586.961	1	5
587.131	1	1
587.300	1	-2
587.470	1	6
587.640	1	2
587.810	1	1
587.980	1	3
588.149	1	6
588.319	1	8
588.489	1	5
588.659	1	1
588.829	1	7
588.998	1	15
589.168	1	8
589.338	1	-1
589.508	1	10
589.677	1	-5
589.847	1	-4
590.017	1	15
590.187	1	-2
590.357	1	5
590.526	1	14
590.696	1	4
590.866	1	6
591.036	1	4
591.205	1	10
591.375	1	-4
591.545	1	-3
591.715	1	9
591.885	1	-1
592.054	1	0
592.224	1	6
592.394	1	6
592.564	1	-2
592.733	1	9
592.903	1	6
593.073	1	1
593.243	1	10
593.412	1	12
593.582	1	5
593.752	1	-3
593.922	1	-2
594.091	1	6
594.261	1	0
594.431	1	6
594.601	1	3
594.771	1	23
594.940	1	1
595.110	1	2
595.280	1	-2
595.450	1	3
595.619	1	5
595.789	1	0
595.959	1	15
596.129	1	5
596.298	1	0
596.468	1	12
596.638	1	11
596.808	1	8
596.977	1	-4
597.147	1	-1
597.317	1	9
597.487	1	3
597.656	1	-3
597.826	1	6
597.996	1	10
598.166	1	-2
598.335	1	-7
598.505	1	-1
598.675	1	-3
598.844	1	0
599.014	1	3
599.184	1	5
599.354	1	-4
599.523	1	14
599.693	1	-3
599.863	1	6
600.033	1	1
600.202	1	8
600.372	1	-2
600.542	1	2
600.712	1	3
600.881	1	-3
601.051	1	7
601.221	1	8
601.390	1	-5
601.560	1	14
601.730	1	8
601.900	1	2
602.069	1	8
602.239	1	-3
602.409	1	-8
602.578	1	1
602.748	1	5
602.918	1	12
603.088	1	15
603.257	1	9
603.427	1	-4
603.597	1	14
603.767	1	7
603.936	1	0
604.106	1	-3
604.276	1	0
604.445	1	8
604.615	1	1
604.785	1	6
604.954	1	4
605.124	1	7
605.294	1	-5
605.464	1	5
605.633	1	10
605.803	1	8
605.973	1	-6
606.142	1	5
606.312	1	6
606.482	1	-4
606.652	1	12
606.821	1	-5
606.991	1	-5
607.161	1	10
607.330	1	15
607.500	1	-3
607.670	1	-5
607.839	1	6
608.009	1	15
608.179	1	6
608.348	1	8
608.518	1	-3
608.688	1	15
608.858	1	2
609.027	1	-3
609.197	1	4
609.367	1	13
609.536	1	7
609.706	1	-1
609.876	1	0
610.045	1	2
610.215	1	7
610.385	1	-3
610.554	1	8
610.724	1	5
610.894	1	7
611.063	1	5
611.233	1	6
611.403	1	11
611.572	1	-2
611.742	1	6
611.912	1	0
612.081	1	0
612.251	1	2
612.421	1	-2
612.590	1	5
612.760	1	2
612.930	1	3
613.099	1	10
613.269	1	14
613.439	1	2
613.608	1	6
613.778	1	12
613.948	1	0
614.117	1	4
614.287	1	4
614.457	1	10
614.626	1	0
614.796	1	6
614.966	1	4
615.135	1	14
615.305	1	14
615.475	1	6
615.644	1	5
615.814	1	11
615.984	1	0
616.153	1	5
616.323	1	0
616.493	1	1
616.662	1	12
616.832	1	6
617.002	1	5
617.171	1	3
617.341	1	-1
617.511	1	0
617.680	1	2
617.850	1	0
618.019	1	13
618.189	1	18
618.359	1	9
618.528	1	6
618.698	1	5
618.868	1	-1
619.037	1	4
619.207	1	1
619.377	1	-3
619.546	1	3
619.716	1	12
619.885	1	0
620.055	1	2
620.225	1	1
620.394	1	0
620.564	1	13
620.734	1	9
620.903	1	-8
621.073	1	13
621.242	1	8
621.412	1	8
621.582	1	-2
621.751	1	6
621.921	1	9
622.091	1	-1
622.260	1	-1
622.430	1	18
622.599	1	5
622.769	1	4
622.939	1	13
623.108	1	4
623.278	1	-6
623.448	1	6
623.617	1	5
623.787	1	10
623.956	1	6
624.126	1	5
624.296	1	-1
624.465	1	15
624.635	1	16
624.804	1	16
624.974	1	-6
625.144	1	5
625.313	1	1
625.483	1	-3
625.652	1	11
625.822	1	0
625.992	1	3
626.161	1	18
626.331	1	4
626.501	1	12
626.670	1	1
626.840	1	0
627.009	1	0
627.179	1	3
627.348	1	11
627.518	1	6
627.688	1	16
627.857	1	8
628.027	1	-1
628.196	1	8
628.366	1	10
628.536	1	6
628.705	1	2
628.875	1	12
629.044	1	0
629.214	1	13
629.384	1	15
629.553	1	12
629.723	1	-2
629.892	1	4
630.062	1	6
630.232	1	7
630.401	1	19
630.571	1	9
630.740	1	-2
630.910	1	7
631.079	1	10
631.249	1	4
631.419	1	18
631.588	1	-6
631.758	1	11
631.927	1	2
632.097	1	0
632.266	1	5
632.436	1	7
632.606	1	2
632.775	1	13
632.945	1	1
633.114	1	15
633.284	1	2
633.453	1	13
633.623	1	1
633.793	1	13
633.962	1	5
634.132	1	8
634.301	1	4
634.471	1	6
634.640	1	1
634.810	1	7
634.979	1	10
635.149	1	14
635.319	1	1
635.488	1	9
635.658	1	11
635.827	1	1
635.997	1	-7
636.166	1	17
636.336	1	-3
636.505	1	9
636.675	1	10
636.845	1	11
637.014	1	18
637.184	1	-2
637.353	1	10
637.523	1	7
637.692	1	7
637.862	1	2
638.031	1	12
638.201	1	18
638.370	1	2
638.540	1	9
638.710	1	6
638.879	1	1
639.049	1	12
639.218	1	9
639.388	1	8
639.557	1	5
639.727	1	6
639.896	1	3
640.066	1	4
640.235	1	6
640.405	1	16
640.574	1	6
640.744	1	-2
640.914	1	8
641.083	1	7
641.253	1	5
641.422	1	3
641.592	1	15
641.761	1	6
641.931	1	1
642.100	1	28
642.270	1	3
642.439	1	8
642.609	1	12
642.778	1	8
642.948	1	12
643.117	1	15
643.287	1	11
643.456	1	0
643.626	1	18
643.795	1	11
643.965	1	8
644.134	1	-8
644.304	1	5
644.473	1	10
644.643	1	2
644.812	1	4
644.982	1	4
645.151	1	12
645.321	1	2
645.490	1	16
645.660	1	-3
645.829	1	7
645.999	1	7
646.168	1	9
646.338	1	15
646.507	1	5
646.677	1	18
646.846	1	9
647.016	1	-4
647.185	1	12
647.355	1	-13
647.524	1	19
647.694	1	16
647.863	1	11
648.033	1	6
648.202	1	6
648.372	1	2
648.541	1	7
648.711	1	3
648.880	1	8
649.050	1	1
649.219	1	8
649.389	1	10
649.558	1	8
649.728	1	10
649.897	1	0
650.067	1	9
650.236	1	11
650.406	1	11
650.575	1	10
650.745	1	15
650.914	1	4
651.084	1	-6
651.253	1	11
651.423	1	6
651.592	1	10
651.762	1	5
651.931	1	18
652.101	1	8
652.270	1	14
652.440	1	7
652.609	1	4
652.778	1	4
652.948	1	17
653.117	1	1
653.287	1	10
653.456	1	16
653.626	1	17
653.795	1	6
653.965	1	6
654.134	1	14
654.304	1	0
654.473	1	13
654.643	1	7
654.812	1	11
654.982	1	11
655.151	1	3
655.320	1	7
655.490	1	3
655.659	1	8
655.829	1	10
655.998	1	2
656.168	1	5
656.337	1	13
656.507	1	8
656.676	1	10
656.846	1	11
657.015	1	15
657.184	1	17
657.354	1	7
657.523	1	3
657.693	1	18
657.862	1	16
658.032	1	9
658.201	1	4
658.371	1	18
658.540	1	-4
658.709	1	9
658.879	1	14
659.048	1	6
659.218	1	2
659.387	1	8
659.557	1	3
659.726	1	14
659.895	1	6
660.065	1	-2
660.234	1	2
660.404	1	10
660.573	1	9
660.743	1	5
660.912	1	8
661.081	1	15
661.251	1	6
661.420	1	13
661.590	1	7
661.759	1	20
661.929	1	7
662.098	1	19
662.267	1	12
662.437	1	11
662.606	1	9
662.776	1	11
662.945	1	12
663.115	1	6
663.284	1	-1
663.453	1	11
663.623	1	7
663.792	1	9
663.962	1	17
664.131	1	10
664.300	1	17
664.470	1	8
664.639	1	12
664.809	1	10
664.978	1	19
665.148	1	15
665.317	1	11
665.486	1	15
665.656	1	3
665.825	1	20
665.995	1	1
666.164	1	3
666.333	1	20
666.503	1	7
666.672	1	0
666.842	1	14
667.011	1	2
667.180	1	18
667.350	1	10
667.519	1	14
667.689	1	11
667.858	1	14
668.027	1	15
668.197	1	11
668.366	1	3
668.536	1	16
668.705	1	12
668.874	1	7
669.044	1	17
669.213	1	12
669.382	1	-2
669.552	1	12
669.721	1	11
669.891	1	22
670.060	1	10
670.229	1	24
670.399	1	9
670.568	1	19
670.738	1	12
670.907	1	-1
671.076	1	5
671.246	1	1
671.415	1	2
671.584	1	14
671.754	1	10
671.923	1	9
672.093	1	13
672.262	1	4
672.431	1	21
672.601	1	10
672.770	1	-7
672.939	1	12
673.109	1	-1
673.278	1	14
673.448	1	16
673.617	1	7
673.786	1	21
