325.333	1	14
325.504	1	9
325.675	1	4
325.846	1	-7
326.017	1	5
326.188	1	12
326.359	1	3
326.531	1	-5
326.702	1	3
326.873	1	14
327.044	1	-7
327.215	1	-5
327.386	1	10
327.557	1	-4
327.728	1	-3
327.899	1	5
328.070	1	12
328.241	1	9
328.412	1	-10
328.583	1	8
328.754	1	-5
328.926	1	13
329.097	1	-6
329.268	1	12
329.439	1	-1
329.610	1	5
329.781	1	-5
329.952	1	14
330.123	1	3
330.294	1	-7
330.465	1	0
330.636	1	6
330.807	1	2
330.978	1	1
331.149	1	2
331.320	1	1
331.492	1	10
331.663	1	6
331.834	1	10
332.005	1	14
332.176	1	10
332.347	1	4
332.518	1	-7
332.689	1	4
332.860	1	4
333.031	1	11
333.202	1	1
333.373	1	2
333.544	1	-1
333.715	1	13
333.886	1	-1
334.057	1	14
334.228	1	-4
334.399	1	-2
334.570	1	11
334.741	1	6
334.912	1	13
335.084	1	16
335.255	1	9
335.426	1	-7
335.597	1	3
335.768	1	-4
335.939	1	8
336.110	1	3
336.281	1	-5
336.452	1	-2
336.623	1	4
336.794	1	6
336.965	1	6
337.136	1	14
337.307	1	5
337.478	1	9
337.649	1	2
337.820	1	0
337.991	1	3
338.162	1	11
338.333	1	4
338.504	1	15
338.675	1	4
338.846	1	12
339.017	1	6
339.188	1	1
339.359	1	-3
339.530	1	-2
339.701	1	5
339.872	1	12
340.043	1	10
340.214	1	1
340.385	1	5
340.556	1	4
340.727	1	8
340.898	1	17
341.069	1	16
341.240	1	1
341.411	1	2
341.582	1	-4
341.753	1	-3
341.924	1	4
342.095	1	6
342.266	1	12
342.437	1	9
342.608	1	1
342.779	1	6
342.950	1	6
343.121	1	15
343.292	1	4
343.463	1	9
343.634	1	8
343.805	1	16
343.976	1	9
344.147	1	1
344.318	1	0
344.489	1	3
344.660	1	15
344.831	1	8
345.002	1	3
345.173	1	21
345.344	1	5
345.515	1	2
345.686	1	3
345.857	1	7
346.028	1	8
346.199	1	2
346.370	1	7
346.541	1	6
346.712	1	-3
346.883	1	2
347.054	1	-2
347.225	1	7
347.396	1	21
347.567	1	7
347.738	1	3
347.909	1	14
348.080	1	2
348.251	1	9
348.422	1	18
348.593	1	9
348.764	1	-3
348.935	1	16
349.106	1	2
349.277	1	10
349.448	1	14
349.619	1	9
349.790	1	14
349.961	1	6
350.132	1	14
350.303	1	6
350.474	1	12
350.645	1	9
350.816	1	15
350.987	1	11
351.157	1	-4
351.328	1	12
351.499	1	20
351.670	1	6
351.841	1	13
352.012	1	10
352.183	1	14
352.354	1	8
352.525	1	17
352.696	1	18
352.867	1	2
353.038	1	14
353.209	1	13
353.380	1	12
353.551	1	4
353.722	1	4
353.893	1	14
354.064	1	19
354.235	1	11
354.406	1	1
354.576	1	13
354.747	1	8
354.918	1	11
355.089	1	8
355.260	1	9
355.431	1	14
355.602	1	10
355.773	1	17
355.944	1	18
356.115	1	3
356.286	1	22
356.457	1	7
356.628	1	12
356.799	1	10
356.970	1	11
357.141	1	4
357.311	1	3
357.482	1	13
357.653	1	6
357.824	1	19
357.995	1	16
358.166	1	-1
358.337	1	3
358.508	1	15
358.679	1	11
358.850	1	12
359.021	1	9
359.192	1	12
359.363	1	17
359.533	1	9
359.704	1	12
359.875	1	14
360.046	1	17
360.217	1	-4
360.388	1	17
360.559	1	9
360.730	1	15
360.901	1	13
361.072	1	22
361.243	1	13
361.414	1	12
361.584	1	10
361.755	1	17
361.926	1	9
362.097	1	13
362.268	1	18
362.439	1	1
362.610	1	20
362.781	1	6
362.952	1	1
363.123	1	13
363.293	1	4
363.464	1	25
363.635	1	21
363.806	1	5
363.977	1	14
364.148	1	16
364.319	1	17
364.490	1	8
364.661	1	14
364.832	1	15
365.002	1	17
365.173	1	10
365.344	1	13
365.515	1	7
365.686	1	6
365.857	1	12
366.028	1	16
366.199	1	14
366.370	1	8
366.540	1	6
366.711	1	-2
366.882	1	8
367.053	1	4
367.224	1	17
367.395	1	12
367.566	1	15
367.737	1	15
367.908	1	15
368.078	1	21
368.249	1	23
368.420	1	-5
368.591	1	7
368.762	1	19
368.933	1	6
369.104	1	8
369.274	1	10
369.445	1	12
369.616	1	12
369.787	1	13
369.958	1	28
370.129	1	9
370.300	1	17
370.471	1	3
370.641	1	12
370.812	1	19
370.983	1	9
371.154	1	3
371.325	1	21
371.496	1	17
371.667	1	19
371.837	1	1
372.008	1	9
372.179	1	4
372.350	1	28
372.521	1	12
372.692	1	18
372.863	1	25
373.033	1	6
373.204	1	10
373.375	1	7
373.546	1	20
373.717	1	20
373.888	1	21
374.059	1	14
374.229	1	20
374.400	1	10
374.571	1	19
374.742	1	14
374.913	1	13
375.084	1	8
375.254	1	20
375.425	1	18
375.596	1	12
375.767	1	12
375.938	1	15
376.109	1	13
376.279	1	3
376.450	1	13
376.621	1	15
376.792	1	8
376.963	1	11
377.134	1	11
377.304	1	16
377.475	1	5
377.646	1	15
377.817	1	14
377.988	1	13
378.159	1	15
378.329	1	19
378.500	1	12
378.671	1	10
378.842	1	11
379.013	1	8
379.184	1	17
379.354	1	23
379.525	1	4
379.696	1	18
379.867	1	23
380.038	1	20
380.209	1	13
380.379	1	13
380.550	1	2
380.721	1	21
380.892	1	14
381.063	1	14
381.233	1	21
381.404	1	15
381.575	1	29
381.746	1	27
381.917	1	9
382.087	1	18
382.258	1	5
382.429	1	16
382.600	1	19
382.771	1	18
382.941	1	12
383.112	1	16
383.283	1	19
383.454	1	12
383.625	1	14
383.795	1	16
383.966	1	12
384.137	1	23
384.308	1	20
384.479	1	14
384.649	1	24
384.820	1	11
384.991	1	13
385.162	1	16
385.333	1	6
385.503	1	15
385.674	1	4
385.845	1	23
386.016	1	13
386.187	1	18
386.357	1	14
386.528	1	18
386.699	1	10
386.870	1	22
387.041	1	20
387.211	1	12
387.382	1	27
387.553	1	20
387.724	1	9
387.894	1	24
388.065	1	21
388.236	1	21
388.407	1	16
388.578	1	15
388.748	1	11
388.919	1	28
389.090	1	16
389.261	1	12
389.431	1	15
389.602	1	16
389.773	1	21
389.944	1	16
390.114	1	12
390.285	1	4
390.456	1	13
390.627	1	17
390.798	1	18
390.968	1	19
391.139	1	26
391.310	1	21
391.481	1	13
391.651	1	17
391.822	1	7
391.993	1	19
392.164	1	10
392.334	1	24
392.505	1	17
392.676	1	28
392.847	1	31
393.017	1	16
393.188	1	20
393.359	1	15
393.530	1	21
393.700	1	19
393.871	1	13
394.042	1	2
394.213	1	13
394.383	1	15
394.554	1	20
394.725	1	16
394.896	1	17
395.066	1	29
395.237	1	10
395.408	1	15
395.579	1	10
395.749	1	18
395.920	1	2
396.091	1	20
396.262	1	15
396.432	1	4
396.603	1	25
396.774	1	25
396.945	1	24
397.115	1	23
397.286	1	10
397.457	1	8
397.627	1	16
397.798	1	19
397.969	1	15
398.140	1	13
398.310	1	19
398.481	1	18
398.652	1	20
398.823	1	11
398.993	1	21
399.164	1	18
399.335	1	29
399.505	1	22
399.676	1	19
399.847	1	19
400.018	1	8
400.188	1	18
400.359	1	19
400.530	1	21
400.700	1	27
400.871	1	11
401.042	1	15
401.213	1	12
401.383	1	22
401.554	1	26
401.725	1	26
401.895	1	26
402.066	1	26
402.237	1	15
402.408	1	22
402.578	1	14
402.749	1	23
402.920	1	24
403.090	1	19
403.261	1	19
403.432	1	21
403.603	1	26
403.773	1	22
403.944	1	26
404.115	1	28
404.285	1	29
404.456	1	20
404.627	1	16
404.797	1	18
404.968	1	12
405.139	1	14
405.310	1	20
405.480	1	15
405.651	1	22
405.822	1	15
405.992	1	11
406.163	1	14
406.334	1	13
406.504	1	22
406.675	1	29
406.846	1	17
407.016	1	29
407.187	1	22
407.358	1	16
407.528	1	17
407.699	1	11
407.870	1	10
408.041	1	22
408.211	1	26
408.382	1	13
408.553	1	10
408.723	1	21
408.894	1	24
409.065	1	18
409.235	1	14
409.406	1	21
409.577	1	17
409.747	1	27
409.918	1	17
410.089	1	23
410.259	1	18
410.430	1	24
410.601	1	19
410.771	1	20
410.942	1	32
411.113	1	15
411.283	1	13
411.454	1	29
411.625	1	17
411.795	1	19
411.966	1	15
412.137	1	36
412.307	1	19
412.478	1	16
412.649	1	29
412.819	1	19
412.990	1	10
413.161	1	24
413.331	1	15
413.502	1	21
413.672	1	19
413.843	1	19
414.014	1	17
414.184	1	27
414.355	1	15
414.526	1	19
414.696	1	32
414.867	1	24
415.038	1	4
415.208	1	25
415.379	1	14
415.550	1	24
415.720	1	16
415.891	1	15
416.062	1	15
416.232	1	23
416.403	1	28
416.573	1	25
416.744	1	15
416.915	1	28
417.085	1	22
417.256	1	19
417.427	1	21
417.597	1	16
417.768	1	7
417.939	1	19
418.109	1	19
418.280	1	21
418.450	1	16
418.621	1	7
418.792	1	9
418.962	1	27
419.133	1	30
419.304	1	17
419.474	1	11
419.645	1	22
419.815	1	19
419.986	1	26
420.157	1	23
420.327	1	24
420.498	1	22
420.669	1	15
420.839	1	21
421.010	1	22
421.180	1	18
421.351	1	20
421.522	1	20
421.692	1	24
421.863	1	19
422.033	1	29
422.204	1	31
422.375	1	13
422.545	1	25
422.716	1	13
422.886	1	23
423.057	1	29
423.228	1	22
423.398	1	13
423.569	1	31
423.740	1	8
423.910	1	5
424.081	1	9
424.251	1	19
424.422	1	19
424.593	1	16
424.763	1	23
424.934	1	21
425.104	1	15
425.275	1	21
425.445	1	15
425.616	1	5
425.787	1	16
425.957	1	13
426.128	1	15
426.298	1	19
426.469	1	14
426.640	1	17
426.810	1	30
426.981	1	3
427.151	1	22
427.322	1	31
427.493	1	23
427.663	1	18
427.834	1	8
428.004	1	18
428.175	1	27
428.345	1	17
428.516	1	15
428.687	1	26
428.857	1	14
429.028	1	9
429.198	1	11
429.369	1	21
429.540	1	12
429.710	1	4
429.881	1	25
430.051	1	16
430.222	1	15
430.392	1	11
430.563	1	24
430.734	1	23
430.904	1	27
431.075	1	19
431.245	1	19
431.416	1	18
431.586	1	18
431.757	1	21
431.927	1	24
432.098	1	11
432.269	1	10
432.439	1	22
432.610	1	23
432.780	1	23
432.951	1	16
433.121	1	24
433.292	1	26
433.462	1	27
433.633	1	16
433.804	1	13
433.974	1	16
434.145	1	35
434.315	1	14
434.486	1	14
434.656	1	16
434.827	1	13
434.997	1	14
435.168	1	19
435.339	1	18
435.509	1	25
435.680	1	21
435.850	1	13
436.021	1	8
436.191	1	7
436.362	1	30
436.532	1	24
436.703	1	19
436.873	1	15
437.044	1	13
437.214	1	20
437.385	1	11
437.556	1	16
437.726	1	31
437.897	1	34
438.067	1	13
438.238	1	20
438.408	1	30
438.579	1	13
438.749	1	18
438.920	1	6
439.090	1	20
439.261	1	17
439.431	1	13
439.602	1	16
439.772	1	17
439.943	1	20
440.113	1	20
440.284	1	19
440.455	1	10
440.625	1	15
440.796	1	14
440.966	1	15
441.137	1	12
441.307	1	11
441.478	1	28
441.648	1	5
441.819	1	24
441.989	1	19
442.160	1	25
442.330	1	19
442.501	1	15
442.671	1	13
442.842	1	12
443.012	1	7
443.183	1	26
443.353	1	13
443.524	1	14
443.694	1	18
443.865	1	14
444.035	1	19
444.206	1	15
444.376	1	7
444.547	1	29
444.717	1	11
444.888	1	3
445.058	1	29
445.229	1	13
445.399	1	7
445.570	1	19
445.740	1	11
445.911	1	16
446.081	1	10
446.252	1	26
446.422	1	10
446.593	1	10
446.763	1	6
446.934	1	11
447.104	1	10
447.275	1	7
447.445	1	25
447.616	1	18
447.786	1	19
447.957	1	11
448.127	1	15
448.298	1	20
448.468	1	11
448.639	1	6
448.809	1	18
448.979	1	15
449.150	1	18
449.320	1	19
449.491	1	22
449.661	1	11
449.832	1	13
450.002	1	23
450.173	1	16
450.343	1	15
450.514	1	13
450.684	1	20
450.855	1	20
451.025	1	15
451.196	1	17
451.366	1	17
451.537	1	14
451.707	1	4
451.878	1	7
452.048	1	23
452.218	1	25
452.389	1	22
452.559	1	19
452.730	1	21
452.900	1	20
453.071	1	11
453.241	1	13
453.412	1	15
453.582	1	12
453.753	1	22
453.923	1	4
454.093	1	22
454.264	1	18
454.434	1	10
454.605	1	17
454.775	1	17
454.946	1	14
455.116	1	10
455.287	1	6
455.457	1	6
455.628	1	14
455.798	1	17
455.968	1	17
456.139	1	10
456.309	1	8
456.480	1	5
456.650	1	8
456.821	1	10
456.991	1	12
457.161	1	6
457.332	1	23
457.502	1	-3
457.673	1	15
457.843	1	22
458.014	1	13
458.184	1	10
458.355	1	18
458.525	1	11
458.695	1	16
458.866	1	14
459.036	1	11
459.207	1	14
459.377	1	12
459.548	1	23
459.718	1	2
459.888	1	15
460.059	1	13
460.229	1	21
460.400	1	19
460.570	1	21
460.740	1	12
460.911	1	11
461.081	1	20
461.252	1	5
461.422	1	15
461.593	1	17
461.763	1	11
461.933	1	14
462.104	1	10
462.274	1	12
462.445	1	12
462.615	1	20
462.785	1	10
462.956	1	11
463.126	1	14
463.297	1	13
463.467	1	12
463.638	1	9
463.808	1	5
463.978	1	-1
464.149	1	14
464.319	1	8
464.490	1	23
464.660	1	4
464.830	1	6
465.001	1	16
465.171	1	18
465.342	1	12
465.512	1	3
465.682	1	14
465.853	1	18
466.023	1	13
466.194	1	9
466.364	1	23
466.534	1	8
466.705	1	6
466.875	1	11
467.045	1	7
467.216	1	14
467.386	1	4
467.557	1	11
467.727	1	4
467.897	1	11
468.068	1	0
468.238	1	13
468.409	1	12
468.579	1	12
468.749	1	13
468.920	1	0
469.090	1	17
469.260	1	11
469.431	1	11
469.601	1	23
469.772	1	12
469.942	1	6
470.112	1	11
470.283	1	13
470.453	1	13
470.623	1	13
470.794	1	7
470.964	1	18
471.135	1	18
471.305	1	-2
471.475	1	14
471.646	1	4
471.816	1	5
471.986	1	9
472.157	1	18
472.327	1	1
472.497	1	7
472.668	1	3
472.838	1	9
473.009	1	15
473.179	1	4
473.349	1	1
473.520	1	14
473.690	1	19
473.860	1	5
474.031	1	9
474.201	1	12
474.371	1	20
474.542	1	14
474.712	1	10
474.882	1	13
475.053	1	22
475.223	1	-2
475.394	1	14
475.564	1	3
475.734	1	14
475.905	1	18
476.075	1	18
476.245	1	12
476.416	1	7
476.586	1	15
476.756	1	6
476.927	1	10
477.097	1	4
477.267	1	5
477.438	1	14
477.608	1	7
477.778	1	11
477.949	1	8
478.119	1	13
478.289	1	11
478.460	1	7
478.630	1	19
478.800	1	7
478.971	1	14
479.141	1	9
479.311	1	8
479.482	1	5
479.652	1	6
479.822	1	10
479.993	1	11
480.163	1	9
480.333	1	7
480.504	1	11
480.674	1	4
480.844	1	-5
481.015	1	16
481.185	1	3
481.355	1	14
481.525	1	4
481.696	1	25
481.866	1	5
482.036	1	4
482.207	1	1
482.377	1	18
482.547	1	6
482.718	1	10
482.888	1	6
483.058	1	11
483.229	1	-1
483.399	1	4
483.569	1	8
483.740	1	19
483.910	1	13
484.080	1	4
484.250	1	14
484.421	1	14
484.591	1	11
484.761	1	19
484.932	1	7
485.102	1	20
485.272	1	3
485.443	1	20
485.613	1	7
485.783	1	7
485.953	1	10
486.124	1	16
486.294	1	13
486.464	1	16
486.635	1	4
486.805	1	16
486.975	1	7
487.146	1	7
487.316	1	2
487.486	1	3
487.656	1	2
487.827	1	17
487.997	1	-4
488.167	1	-1
488.338	1	11
488.508	1	2
488.678	1	3
488.848	1	19
489.019	1	-1
489.189	1	5
489.359	1	1
489.529	1	3
489.700	1	6
489.870	1	15
490.040	1	7
490.211	1	-1
490.381	1	17
490.551	1	7
490.721	1	19
490.892	1	2
491.062	1	1
491.232	1	7
491.402	1	3
491.573	1	-5
491.743	1	5
491.913	1	3
492.084	1	6
492.254	1	-4
492.424	1	-2
492.594	1	5
492.765	1	9
492.935	1	14
493.105	1	13
493.275	1	8
493.446	1	13
493.616	1	16
493.786	1	6
493.956	1	9
494.127	1	14
494.297	1	2
494.467	1	-2
494.637	1	12
494.808	1	-4
494.978	1	8
495.148	1	-4
495.318	1	7
495.489	1	13
495.659	1	9
495.829	1	6
495.999	1	8
496.170	1	8
496.340	1	6
496.510	1	16
496.680	1	3
496.851	1	3
497.021	1	0
497.191	1	-1
497.361	1	5
497.532	1	-3
497.702	1	14
497.872	1	14
498.042	1	13
498.213	1	9
498.383	1	12
498.553	1	-2
498.723	1	3
498.894	1	9
499.064	1	10
499.234	1	14
499.404	1	5
499.574	1	9
499.745	1	17
499.915	1	7
500.085	1	11
500.255	1	4
500.426	1	3
500.596	1	5
500.766	1	2
500.936	1	3
501.106	1	-2
501.277	1	12
501.447	1	2
501.617	1	6
501.787	1	1
501.958	1	-2
502.128	1	8
502.298	1	5
502.468	1	9
502.638	1	5
502.809	1	1
502.979	1	-3
503.149	1	2
503.319	1	-4
503.489	1	2
503.660	1	1
503.830	1	7
504.000	1	15
504.170	1	12
504.340	1	1
504.511	1	7
504.681	1	14
504.851	1	10
505.021	1	9
505.192	1	5
505.362	1	11
505.532	1	2
505.702	1	6
505.872	1	15
506.043	1	-4
506.213	1	-2
506.383	1	2
506.553	1	8
506.723	1	9
506.893	1	6
507.064	1	13
507.234	1	3
507.404	1	1
507.574	1	9
507.744	1	8
507.915	1	-2
508.085	1	17
508.255	1	13
508.425	1	-2
508.595	1	3
508.766	1	6
508.936	1	0
509.106	1	14
509.276	1	15
509.446	1	-3
509.616	1	6
509.787	1	-2
509.957	1	6
510.127	1	7
510.297	1	-3
510.467	1	1
510.638	1	11
510.808	1	-10
510.978	1	2
511.148	1	0
511.318	1	9
511.488	1	-2
511.659	1	11
511.829	1	-2
511.999	1	9
512.169	1	0
512.339	1	0
512.509	1	-6
512.680	1	0
512.850	1	-1
513.020	1	13
513.190	1	7
513.360	1	-1
513.530	1	4
513.700	1	12
513.871	1	-1
514.041	1	4
514.211	1	7
514.381	1	14
514.551	1	8
514.721	1	5
514.892	1	4
515.062	1	-1
515.232	1	2
515.402	1	-5
515.572	1	6
515.742	1	8
515.912	1	12
516.083	1	5
516.253	1	3
516.423	1	2
516.593	1	7
516.763	1	9
516.933	1	-7
517.104	1	3
517.274	1	16
517.444	1	10
517.614	1	-2
517.784	1	3
517.954	1	4
518.124	1	4
518.294	1	3
518.465	1	4
518.635	1	8
518.805	1	-10
518.975	1	9
519.145	1	5
519.315	1	-3
519.485	1	-5
519.656	1	13
519.826	1	9
519.996	1	-1
520.166	1	3
520.336	1	7
520.506	1	-1
520.676	1	-8
520.846	1	14
521.017	1	6
521.187	1	-1
521.357	1	17
521.527	1	0
521.697	1	1
521.867	1	-2
522.037	1	15
522.207	1	13
522.377	1	-4
522.548	1	0
522.718	1	4
522.888	1	11
523.058	1	6
523.228	1	9
523.398	1	3
523.568	1	13
523.738	1	1
523.909	1	19
524.079	1	2
524.249	1	5
524.419	1	0
524.589	1	6
524.759	1	-9
524.929	1	4
525.099	1	6
525.269	1	12
525.439	1	2
525.610	1	15
525.780	1	-3
525.950	1	3
526.120	1	-3
526.290	1	-1
526.460	1	1
526.630	1	2
526.800	1	7
526.970	1	2
527.140	1	9
527.311	1	3
527.481	1	1
527.651	1	12
527.821	1	-10
527.991	1	11
528.161	1	8
528.331	1	-1
528.501	1	8
528.671	1	8
528.841	1	6
529.011	1	-4
529.181	1	5
529.352	1	4
529.522	1	-3
529.692	1	9
529.862	1	-5
530.032	1	13
530.202	1	0
530.372	1	2
530.542	1	2
530.712	1	11
530.882	1	12
531.052	1	1
531.222	1	2
531.392	1	1
531.563	1	9
531.733	1	6
531.903	1	-1
532.073	1	12
532.243	1	5
532.413	1	2
532.583	1	0
532.753	1	9
532.923	1	-4
533.093	1	5
533.263	1	-5
533.433	1	3
533.603	1	3
533.773	1	-10
533.943	1	3
534.113	1	5
534.284	1	5
534.454	1	3
534.624	1	7
534.794	1	-2
534.964	1	10
535.134	1	1
535.304	1	-6
535.474	1	14
535.644	1	1
535.814	1	0
535.984	1	-8
536.154	1	-4
536.324	1	-3
536.494	1	11
536.664	1	4
536.834	1	6
537.004	1	-3
537.174	1	8
537.344	1	-2
537.514	1	-6
537.685	1	0
537.855	1	12
538.025	1	5
538.195	1	-1
538.365	1	12
538.535	1	-4
538.705	1	3
538.875	1	7
539.045	1	9
539.215	1	5
539.385	1	10
539.555	1	6
539.725	1	-8
539.895	1	0
540.065	1	23
540.235	1	7
540.405	1	-4
540.575	1	-5
540.745	1	11
540.915	1	4
541.085	1	11
541.255	1	-12
541.425	1	4
541.595	1	-3
541.765	1	1
541.935	1	-6
542.105	1	-5
542.275	1	2
542.445	1	-15
542.615	1	11
542.785	1	7
542.955	1	0
543.125	1	-7
543.295	1	10
543.465	1	10
543.635	1	2
543.805	1	14
543.975	1	3
544.145	1	9
544.315	1	11
544.485	1	5
544.655	1	3
544.825	1	-11
544.995	1	0
545.165	1	-9
545.335	1	4
545.505	1	-7
545.675	1	3
545.845	1	8
546.015	1	10
546.185	1	9
546.355	1	3
546.525	1	9
546.695	1	4
546.865	1	2
547.035	1	7
547.205	1	-8
547.375	1	11
547.545	1	7
547.715	1	5
547.885	1	2
548.055	1	-5
548.225	1	5
548.395	1	4
548.565	1	7
548.735	1	9
548.905	1	5
549.075	1	12
549.245	1	-1
549.415	1	-10
549.585	1	9
549.755	1	1
549.925	1	-9
550.095	1	5
550.265	1	0
550.435	1	-1
550.605	1	3
550.775	1	7
550.945	1	5
551.115	1	3
551.285	1	4
551.455	1	6
551.625	1	14
551.795	1	-2
551.965	1	-4
552.135	1	5
552.305	1	-4
552.475	1	-3
552.645	1	1
552.815	1	0
552.985	1	10
553.155	1	3
553.325	1	9
553.495	1	0
553.665	1	8
553.835	1	-2
554.004	1	11
554.174	1	-1
554.344	1	7
554.514	1	-2
554.684	1	7
554.854	1	5
555.024	1	-2
555.194	1	-8
555.364	1	5
555.534	1	5
555.704	1	4
555.874	1	8
556.044	1	7
556.214	1	-3
556.384	1	-8
556.554	1	12
556.724	1	6
556.894	1	0
557.064	1	6
557.234	1	-3
557.404	1	11
557.573	1	2
557.743	1	0
557.913	1	-8
558.083	1	1
558.253	1	8
558.423	1	0
558.593	1	7
558.763	1	-2
558.933	1	1
559.103	1	14
559.273	1	7
559.443	1	6
559.613	1	1
559.783	1	8
559.953	1	1
560.122	1	17
560.292	1	6
560.462	1	-1
560.632	1	7
560.802	1	-1
560.972	1	5
561.142	1	12
561.312	1	0
561.482	1	3
561.652	1	10
561.822	1	-2
561.992	1	5
562.162	1	-1
562.331	1	3
562.501	1	-9
562.671	1	6
562.841	1	-3
563.011	1	8
563.181	1	4
563.351	1	-3
563.521	1	13
563.691	1	-3
563.861	1	5
564.031	1	1
564.201	1	16
564.370	1	-6
564.540	1	2
564.710	1	-2
564.880	1	9
565.050	1	9
565.220	1	2
565.390	1	11
565.560	1	3
565.730	1	1
565.900	1	8
566.069	1	10
566.239	1	-8
566.409	1	10
566.579	1	9
566.749	1	3
566.919	1	6
567.089	1	6
567.259	1	14
567.429	1	1
567.599	1	-1
567.768	1	4
567.938	1	3
568.108	1	6
568.278	1	5
568.448	1	-3
568.618	1	-2
568.788	1	12
568.958	1	1
569.128	1	3
569.297	1	0
569.467	1	1
569.637	1	15
569.807	1	8
569.977	1	-3
570.147	1	9
570.317	1	1
570.487	1	-2
570.656	1	1
570.826	1	4
570.996	1	-3
571.166	1	5
571.336	1	-6
571.506	1	9
571.676	1	-3
571.846	1	-3
572.015	1	1
572.185	1	-3
572.355	1	5
572.525	1	11
572.695	1	0
572.865	1	-2
573.035	1	2
573.205	1	3
573.374	1	-3
573.544	1	0
573.714	1	9
573.884	1	6
574.054	1	1
574.224	1	8
574.394	1	-1
574.563	1	-5
574.733	1	-2
574.903	1	7
575.073	1	8
575.243	1	4
575.413	1	6
575.583	1	-6
575.752	1	4
575.922	1	7
576.092	1	0
576.262	1	3
576.432	1	6
576.602	1	-2
576.772	1	13
576.941	1	7
577.111	1	1
577.281	1	-15
577.451	1	-7
577.621	1	8
577.791	1	4
577.960	1	-3
578.130	1	7
578.300	1	10
578.470	1	13
578.640	1	1
578.810	1	0
578.979	1	1
579.149	1	-6
579.319	1	-4
579.489	1	0
579.659	1	-14
579.829	1	-1
579.998	1	9
580.168	1	8
580.338	1	5
580.508	1	1
580.678	1	1
580.848	1	-1
581.017	1	-4
581.187	1	4
581.357	1	-8
581.527	1	4
581.697	1	13
581.867	1	3
582.036	1	7
582.206	1	2
582.376	1	3
582.546	1	-3
582.716	1	-1
582.885	1	-2
583.055	1	5
583.225	1	-5
583.395	1	5
583.565	1	-6
583.735	1	2
583.904	1	6
584.074	1	7
584.244	1	6
584.414	1	3
584.584	1	11
584.753	1	-2
584.923	1	0
585.093	1	1
585.263	1	0
585.433	1	-3
585.602	1	0
585.772	1	-6
585.942	1	-1
586.112	1	-2
586.282	1	2
586.451	1	0
586.621	1	-9
586.791	1	1
586.961	1	-2
587.131	1	1
587.300	1	-1
587.470	1	19
587.640	1	5
587.810	1	-3
587.980	1	-9
588.149	1	7
588.319	1	-5
588.489	1	4
588.659	1	5
588.829	1	6
588.998	1	10
589.168	1	4
589.338	1	2
589.508	1	7
589.677	1	1
589.847	1	0
590.017	1	19
590.187	1	-2
590.357	1	11
590.526	1	13
590.696	1	1
590.866	1	9
591.036	1	1
591.205	1	2
591.375	1	-8
591.545	1	4
591.715	1	7
591.885	1	-6
592.054	1	7
592.224	1	0
592.394	1	-2
592.564	1	-1
592.733	1	9
592.903	1	3
593.073	1	7
593.243	1	4
593.412	1	7
593.582	1	3
593.752	1	-7
593.922	1	9
594.091	1	0
594.261	1	-2
594.431	1	-3
594.601	1	3
594.771	1	-2
594.940	1	-1
595.110	1	-4
595.280	1	8
595.450	1	2
595.619	1	4
595.789	1	1
595.959	1	7
596.129	1	-2
596.298	1	0
596.468	1	5
596.638	1	3
596.808	1	6
596.977	1	8
597.147	1	3
597.317	1	-6
597.487	1	10
597.656	1	3
597.826	1	10
597.996	1	-5
598.166	1	4
598.335	1	-8
598.505	1	6
598.675	1	-2
598.844	1	-3
599.014	1	0
599.184	1	8
599.354	1	-1
599.523	1	2
599.693	1	-4
599.863	1	-3
600.033	1	5
600.202	1	2
600.372	1	1
600.542	1	13
600.712	1	-2
600.881	1	-3
601.051	1	21
601.221	1	11
601.390	1	-5
601.560	1	-2
601.730	1	8
601.900	1	8
602.069	1	6
602.239	1	-3
602.409	1	-1
602.578	1	1
602.748	1	1
602.918	1	8
603.088	1	12
603.257	1	3
603.427	1	-9
603.597	1	6
603.767	1	7
603.936	1	3
604.106	1	4
604.276	1	6
604.445	1	9
604.615	1	-6
604.785	1	-8
604.954	1	2
605.124	1	0
605.294	1	-2
605.464	1	1
605.633	1	7
605.803	1	4
605.973	1	-4
606.142	1	6
606.312	1	10
606.482	1	7
606.652	1	16
606.821	1	-4
606.991	1	-4
607.161	1	6
607.330	1	10
607.500	1	0
607.670	1	-5
607.839	1	9
608.009	1	18
608.179	1	4
608.348	1	2
608.518	1	3
608.688	1	5
608.858	1	-6
609.027	1	1
609.197	1	3
609.367	1	13
609.536	1	5
609.706	1	-1
609.876	1	-3
610.045	1	0
610.215	1	0
610.385	1	5
610.554	1	-2
610.724	1	13
610.894	1	0
611.063	1	1
611.233	1	-5
611.403	1	4
611.572	1	0
611.742	1	6
611.912	1	6
612.081	1	-3
612.251	1	4
612.421	1	3
612.590	1	-3
612.760	1	7
612.930	1	1
613.099	1	1
613.269	1	4
613.439	1	0
613.608	1	-5
613.778	1	-4
613.948	1	-5
614.117	1	14
614.287	1	10
614.457	1	-2
614.626	1	1
614.796	1	6
614.966	1	-8
615.135	1	1
615.305	1	14
615.475	1	3
615.644	1	1
615.814	1	5
615.984	1	4
616.153	1	-3
616.323	1	-2
616.493	1	9
616.662	1	5
616.832	1	-6
617.002	1	2
617.171	1	-4
617.341	1	-3
617.511	1	-5
617.680	1	-3
617.850	1	10
618.019	1	12
618.189	1	14
618.359	1	6
618.528	1	-3
618.698	1	3
618.868	1	-4
619.037	1	-1
619.207	1	-3
619.377	1	-3
619.546	1	5
619.716	1	4
619.885	1	1
620.055	1	-10
620.225	1	-1
620.394	1	-3
620.564	1	12
620.734	1	16
620.903	1	5
621.073	1	8
621.242	1	2
621.412	1	-2
621.582	1	-6
621.751	1	1
621.921	1	7
622.091	1	-5
622.260	1	0
622.430	1	14
622.599	1	4
622.769	1	0
622.939	1	3
623.108	1	3
623.278	1	-5
623.448	1	-4
623.617	1	-8
623.787	1	-3
623.956	1	-2
624.126	1	-1
624.296	1	2
624.465	1	5
624.635	1	11
624.804	1	8
624.974	1	6
625.144	1	7
625.313	1	-4
625.483	1	-12
625.652	1	0
625.822	1	1
625.992	1	0
626.161	1	9
626.331	1	4
626.501	1	4
626.670	1	1
626.840	1	-1
627.009	1	1
627.179	1	9
627.348	1	14
627.518	1	5
627.688	1	-1
627.857	1	3
628.027	1	-3
628.196	1	0
628.366	1	6
628.536	1	5
628.705	1	4
628.875	1	2
629.044	1	-2
629.214	1	11
629.384	1	7
629.553	1	13
629.723	1	6
629.892	1	5
630.062	1	9
630.232	1	-5
630.401	1	8
630.571	1	1
630.740	1	7
630.910	1	7
631.079	1	6
631.249	1	8
631.419	1	6
631.588	1	-4
631.758	1	8
631.927	1	4
632.097	1	-1
632.266	1	-5
632.436	1	0
632.606	1	-1
632.775	1	9
632.945	1	4
633.114	1	7
633.284	1	10
633.453	1	3
633.623	1	4
633.793	1	4
633.962	1	-2
634.132	1	5
634.301	1	5
634.471	1	6
634.640	1	8
634.810	1	0
634.979	1	6
635.149	1	10
635.319	1	14
635.488	1	12
635.658	1	9
635.827	1	7
635.997	1	-1
636.166	1	5
636.336	1	-7
636.505	1	9
636.675	1	-4
636.845	1	1
637.014	1	15
637.184	1	3
637.353	1	9
637.523	1	3
637.692	1	17
637.862	1	10
638.031	1	12
638.201	1	1
638.370	1	10
638.540	1	9
638.710	1	3
638.879	1	-14
639.049	1	1
639.218	1	6
639.388	1	9
639.557	1	-2
639.727	1	0
639.896	1	-2
640.066	1	-3
640.235	1	11
640.405	1	2
640.574	1	-2
640.744	1	-6
640.914	1	-4
641.083	1	5
641.253	1	-3
641.422	1	8
641.592	1	6
641.761	1	6
641.931	1	-2
642.100	1	15
642.270	1	1
642.439	1	3
642.609	1	14
642.778	1	-2
642.948	1	5
643.117	1	10
643.287	1	-3
643.456	1	2
643.626	1	11
643.795	1	1
643.965	1	9
644.134	1	6
644.304	1	-1
644.473	1	0
644.643	1	3
644.812	1	5
644.982	1	1
645.151	1	17
645.321	1	-6
645.490	1	16
645.660	1	0
645.829	1	-6
645.999	1	0
646.168	1	14
646.338	1	4
646.507	1	-3
646.677	1	9
646.846	1	-3
647.016	1	1
647.185	1	10
647.355	1	-7
647.524	1	4
647.694	1	13
647.863	1	11
648.033	1	3
648.202	1	4
648.372	1	6
648.541	1	0
648.711	1	9
648.880	1	2
649.050	1	-15
649.219	1	1
649.389	1	11
649.558	1	4
649.728	1	15
649.897	1	-5
650.067	1	8
650.236	1	6
650.406	1	6
650.575	1	9
650.745	1	2
650.914	1	1
651.084	1	-9
651.253	1	9
651.423	1	6
651.592	1	10
651.762	1	6
651.931	1	16
652.101	1	1
652.270	1	2
652.440	1	9
652.609	1	1
652.778	1	-1
652.948	1	-1
653.117	1	7
653.287	1	6
653.456	1	0
653.626	1	9
653.795	1	2
653.965	1	-1
654.134	1	3
654.304	1	-2
654.473	1	14
654.643	1	19
654.812	1	1
654.982	1	0
655.151	1	10
655.320	1	1
655.490	1	4
655.659	1	2
655.829	1	7
655.998	1	-1
656.168	1	3
656.337	1	5
656.507	1	8
656.676	1	8
656.846	1	9
657.015	1	5
657.184	1	16
657.354	1	5
657.523	1	8
657.693	1	9
657.862	1	13
658.032	1	4
658.201	1	5
658.371	1	6
658.540	1	-1
658.709	1	-6
658.879	1	11
659.048	1	10
659.218	1	2
659.387	1	6
659.557	1	2
659.726	1	6
659.895	1	6
660.065	1	1
660.234	1	0
660.404	1	12
660.573	1	8
660.743	1	4
660.912	1	10
661.081	1	11
661.251	1	4
661.420	1	4
661.590	1	7
661.759	1	12
661.929	1	8
662.098	1	14
662.267	1	8
662.437	1	4
662.606	1	-4
662.776	1	9
662.945	1	13
663.115	1	-3
663.284	1	-6
663.453	1	3
663.623	1	8
663.792	1	11
663.962	1	0
664.131	1	2
664.300	1	10
664.470	1	-2
664.639	1	12
664.809	1	2
664.978	1	3
665.148	1	9
665.317	1	-1
665.486	1	0
665.656	1	4
665.825	1	15
665.995	1	-4
666.164	1	2
666.333	1	17
666.503	1	2
666.672	1	-4
666.842	1	2
667.011	1	-2
667.180	1	9
667.350	1	2
667.519	1	5
667.689	1	-3
667.858	1	6
668.027	1	22
668.197	1	-4
668.366	1	-5
668.536	1	2
668.705	1	9
668.874	1	3
669.044	1	-1
669.213	1	8
669.382	1	-1
669.552	1	18
669.721	1	16
669.891	1	13
670.060	1	4
670.229	1	13
670.399	1	1
670.568	1	8
670.738	1	8
670.907	1	2
671.076	1	-2
671.246	1	1
671.415	1	6
671.584	1	7
671.754	1	1
671.923	1	4
672.093	1	6
672.262	1	-7
672.431	1	2
672.601	1	-1
672.770	1	0
672.939	1	7
673.109	1	1
673.278	1	7
673.448	1	21
673.617	1	7
673.786	1	-3
