325.333	1	2
325.504	1	11
325.675	1	3
325.846	1	2
326.017	1	-3
326.188	1	7
326.359	1	1
326.531	1	-3
326.702	1	4
326.873	1	17
327.044	1	9
327.215	1	2
327.386	1	6
327.557	1	-5
327.728	1	1
327.899	1	6
328.070	1	18
328.241	1	8
328.412	1	-5
328.583	1	2
328.754	1	-4
328.926	1	17
329.097	1	-10
329.268	1	4
329.439	1	1
329.610	1	11
329.781	1	-8
329.952	1	13
330.123	1	14
330.294	1	-2
330.465	1	6
330.636	1	6
330.807	1	2
330.978	1	-1
331.149	1	0
331.320	1	1
331.492	1	2
331.663	1	4
331.834	1	11
332.005	1	16
332.176	1	11
332.347	1	1
332.518	1	-8
332.689	1	10
332.860	1	10
333.031	1	11
333.202	1	3
333.373	1	19
333.544	1	10
333.715	1	10
333.886	1	-9
334.057	1	3
334.228	1	-12
334.399	1	0
334.570	1	9
334.741	1	-1
334.912	1	13
335.084	1	23
335.255	1	5
335.426	1	6
335.597	1	-2
335.768	1	0
335.939	1	5
336.110	1	-1
336.281	1	2
336.452	1	1
336.623	1	8
336.794	1	7
336.965	1	10
337.136	1	23
337.307	1	0
337.478	1	10
337.649	1	4
337.820	1	1
337.991	1	2
338.162	1	14
338.333	1	6
338.504	1	11
338.675	1	5
338.846	1	9
339.017	1	0
339.188	1	6
339.359	1	3
339.530	1	18
339.701	1	7
339.872	1	15
340.043	1	2
340.214	1	4
340.385	1	16
340.556	1	0
340.727	1	14
340.898	1	14
341.069	1	15
341.240	1	8
341.411	1	13
341.582	1	10
341.753	1	8
341.924	1	4
342.095	1	8
342.266	1	18
342.437	1	17
342.608	1	5
342.779	1	10
342.950	1	13
343.121	1	14
343.292	1	5
343.463	1	12
343.634	1	12
343.805	1	14
343.976	1	8
344.147	1	13
344.318	1	5
344.489	1	9
344.660	1	21
344.831	1	21
345.002	1	-6
345.173	1	17
345.344	1	0
345.515	1	8
345.686	1	12
345.857	1	8
346.028	1	9
346.199	1	5
346.370	1	8
346.541	1	16
346.712	1	0
346.883	1	9
347.054	1	13
347.225	1	12
347.396	1	19
347.567	1	8
347.738	1	7
347.909	1	11
348.080	1	8
348.251	1	13
348.422	1	17
348.593	1	14
348.764	1	3
348.935	1	12
349.106	1	9
349.277	1	13
349.448	1	0
349.619	1	16
349.790	1	19
349.961	1	18
350.132	1	18
350.303	1	10
350.474	1	24
350.645	1	14
350.816	1	17
350.987	1	18
351.157	1	-2
351.328	1	20
351.499	1	22
351.670	1	11
351.841	1	24
352.012	1	16
352.183	1	29
352.354	1	18
352.525	1	11
352.696	1	27
352.867	1	18
353.038	1	13
353.209	1	11
353.380	1	18
353.551	1	7
353.722	1	15
353.893	1	8
354.064	1	30
354.235	1	13
354.406	1	11
354.576	1	14
354.747	1	14
354.918	1	22
355.089	1	17
355.260	1	19
355.431	1	24
355.602	1	15
355.773	1	20
355.944	1	17
356.115	1	16
356.286	1	20
356.457	1	13
356.628	1	22
356.799	1	25
356.970	1	24
357.141	1	20
357.311	1	15
357.482	1	12
357.653	1	12
357.824	1	16
357.995	1	15
358.166	1	8
358.337	1	7
358.508	1	22
358.679	1	11
358.850	1	22
359.021	1	17
359.192	1	22
359.363	1	16
359.533	1	10
359.704	1	22
359.875	1	15
360.046	1	13
360.217	1	19
360.388	1	7
360.559	1	16
360.730	1	18
360.901	1	24
361.072	1	40
361.243	1	23
361.414	1	16
361.584	1	19
361.755	1	18
361.926	1	12
362.097	1	15
362.268	1	20
362.439	1	6
362.610	1	27
362.781	1	20
362.952	1	1
363.123	1	23
363.293	1	8
363.464	1	28
363.635	1	12
363.806	1	17
363.977	1	23
364.148	1	16
364.319	1	19
364.490	1	22
364.661	1	11
364.832	1	27
365.002	1	21
365.173	1	22
365.344	1	33
365.515	1	13
365.686	1	5
365.857	1	24
366.028	1	21
366.199	1	20
366.370	1	18
366.540	1	13
366.711	1	3
366.882	1	13
367.053	1	10
367.224	1	30
367.395	1	27
367.566	1	33
367.737	1	35
367.908	1	27
368.078	1	17
368.249	1	25
368.420	1	13
368.591	1	18
368.762	1	14
368.933	1	15
369.104	1	8
369.274	1	10
369.445	1	20
369.616	1	26
369.787	1	15
369.958	1	18
370.129	1	15
370.300	1	31
370.471	1	11
370.641	1	27
370.812	1	28
370.983	1	22
371.154	1	3
371.325	1	24
371.496	1	14
371.667	1	31
371.837	1	16
372.008	1	10
372.179	1	19
372.350	1	34
372.521	1	26
372.692	1	25
372.863	1	26
373.033	1	10
373.204	1	17
373.375	1	19
373.546	1	22
373.717	1	23
373.888	1	28
374.059	1	25
374.229	1	25
374.400	1	25
374.571	1	23
374.742	1	30
374.913	1	21
375.084	1	22
375.254	1	25
375.425	1	31
375.596	1	21
375.767	1	23
375.938	1	32
376.109	1	29
376.279	1	13
376.450	1	19
376.621	1	14
376.792	1	18
376.963	1	25
377.134	1	25
377.304	1	25
377.475	1	12
377.646	1	23
377.817	1	26
377.988	1	15
378.159	1	23
378.329	1	40
378.500	1	27
378.671	1	25
378.842	1	22
379.013	1	9
379.184	1	19
379.354	1	25
379.525	1	17
379.696	1	25
379.867	1	30
380.038	1	22
380.209	1	28
380.379	1	20
380.550	1	16
380.721	1	32
380.892	1	26
381.063	1	26
381.233	1	31
381.404	1	18
381.575	1	16
381.746	1	23
381.917	1	25
382.087	1	27
382.258	1	22
382.429	1	29
382.600	1	36
382.771	1	17
382.941	1	22
383.112	1	17
383.283	1	27
383.454	1	14
383.625	1	19
383.795	1	24
383.966	1	33
384.137	1	34
384.308	1	26
384.479	1	32
384.649	1	29
384.820	1	23
384.991	1	13
385.162	1	31
385.333	1	18
385.503	1	20
385.674	1	16
385.845	1	36
386.016	1	26
386.187	1	21
386.357	1	37
386.528	1	34
386.699	1	20
386.870	1	39
387.041	1	33
387.211	1	34
387.382	1	41
387.553	1	22
387.724	1	28
387.894	1	37
388.065	1	18
388.236	1	32
388.407	1	36
388.578	1	22
388.748	1	15
388.919	1	44
389.090	1	26
389.261	1	19
389.431	1	30
389.602	1	35
389.773	1	24
389.944	1	32
390.114	1	41
390.285	1	27
390.456	1	27
390.627	1	42
390.798	1	29
390.968	1	19
391.139	1	32
391.310	1	27
391.481	1	29
391.651	1	20
391.822	1	27
391.993	1	34
392.164	1	20
392.334	1	34
392.505	1	27
392.676	1	38
392.847	1	35
393.017	1	42
393.188	1	30
393.359	1	23
393.530	1	33
393.700	1	23
393.871	1	24
394.042	1	33
394.213	1	22
394.383	1	27
394.554	1	33
394.725	1	25
394.896	1	22
395.066	1	37
395.237	1	28
395.408	1	21
395.579	1	33
395.749	1	38
395.920	1	23
396.091	1	42
396.262	1	29
396.432	1	27
396.603	1	36
396.774	1	42
396.945	1	27
397.115	1	32
397.286	1	32
397.457	1	34
397.627	1	34
397.798	1	38
397.969	1	35
398.140	1	26
398.310	1	38
398.481	1	34
398.652	1	33
398.823	1	28
398.993	1	31
399.164	1	25
399.335	1	45
399.505	1	32
399.676	1	31
399.847	1	38
400.018	1	30
400.188	1	26
400.359	1	44
400.530	1	37
400.700	1	28
400.871	1	32
401.042	1	29
401.213	1	24
401.383	1	42
401.554	1	41
401.725	1	32
401.895	1	28
402.066	1	36
402.237	1	28
402.408	1	37
402.578	1	32
402.749	1	31
402.920	1	38
403.090	1	29
403.261	1	32
403.432	1	35
403.603	1	32
403.773	1	39
403.944	1	48
404.115	1	35
404.285	1	40
404.456	1	34
404.627	1	33
404.797	1	23
404.968	1	28
405.139	1	35
405.310	1	49
405.480	1	47
405.651	1	37
405.822	1	43
405.992	1	26
406.163	1	34
406.334	1	21
406.504	1	38
406.675	1	42
406.846	1	32
407.016	1	35
407.187	1	42
407.358	1	26
407.528	1	37
407.699	1	30
407.870	1	35
408.041	1	35
408.211	1	48
408.382	1	34
408.553	1	35
408.723	1	37
408.894	1	30
409.065	1	34
409.235	1	26
409.406	1	30
409.577	1	25
409.747	1	39
409.918	1	34
410.089	1	48
410.259	1	37
410.430	1	39
410.601	1	29
410.771	1	38
410.942	1	46
411.113	1	38
411.283	1	31
411.454	1	33
411.625	1	33
411.795	1	49
411.966	1	48
412.137	1	35
412.307	1	24
412.478	1	37
412.649	1	42
412.819	1	37
412.990	1	41
413.161	1	44
413.331	1	32
413.502	1	50
413.672	1	32
413.843	1	31
414.014	1	31
414.184	1	41
414.355	1	39
414.526	1	41
414.696	1	48
414.867	1	45
415.038	1	29
415.208	1	34
415.379	1	37
415.550	1	45
415.720	1	34
415.891	1	35
416.062	1	39
416.232	1	28
416.403	1	28
416.573	1	36
416.744	1	33
416.915	1	36
417.085	1	37
417.256	1	45
417.427	1	38
417.597	1	40
417.768	1	29
417.939	1	35
418.109	1	36
418.280	1	41
418.450	1	36
418.621	1	27
418.792	1	34
418.962	1	37
419.133	1	47
419.304	1	28
419.474	1	29
419.645	1	31
419.815	1	31
419.986	1	33
420.157	1	47
420.327	1	41
420.498	1	54
420.669	1	40
420.839	1	50
421.010	1	36
421.180	1	36
421.351	1	30
421.522	1	39
421.692	1	35
421.863	1	44
422.033	1	45
422.204	1	35
422.375	1	29
422.545	1	49
422.716	1	32
422.886	1	36
423.057	1	35
423.228	1	37
423.398	1	28
423.569	1	36
423.740	1	24
423.910	1	23
424.081	1	27
424.251	1	31
424.422	1	38
424.593	1	23
424.763	1	44
424.934	1	40
425.104	1	32
425.275	1	23
425.445	1	31
425.616	1	37
425.787	1	23
425.957	1	29
426.128	1	37
426.298	1	31
426.469	1	25
426.640	1	39
426.810	1	37
426.981	1	39
427.151	1	32
427.322	1	34
427.493	1	37
427.663	1	33
427.834	1	19
428.004	1	30
428.175	1	30
428.345	1	26
428.516	1	31
428.687	1	26
428.857	1	20
429.028	1	35
429.198	1	27
429.369	1	31
429.540	1	29
429.710	1	15
429.881	1	35
430.051	1	30
430.222	1	27
430.392	1	34
430.563	1	37
430.734	1	34
430.904	1	37
431.075	1	39
431.245	1	23
431.416	1	34
431.586	1	29
431.757	1	27
431.927	1	36
432.098	1	33
432.269	1	21
432.439	1	28
432.610	1	27
432.780	1	36
432.951	1	30
433.121	1	29
433.292	1	33
433.462	1	33
433.633	1	41
433.804	1	26
433.974	1	18
434.145	1	36
434.315	1	22
434.486	1	25
434.656	1	34
434.827	1	28
434.997	1	26
435.168	1	43
435.339	1	35
435.509	1	33
435.680	1	39
435.850	1	26
436.021	1	26
436.191	1	35
436.362	1	26
436.532	1	29
436.703	1	34
436.873	1	23
437.044	1	18
437.214	1	25
437.385	1	20
437.556	1	22
437.726	1	32
437.897	1	39
438.067	1	15
438.238	1	32
438.408	1	41
438.579	1	18
438.749	1	27
438.920	1	23
439.090	1	20
439.261	1	21
439.431	1	18
439.602	1	26
439.772	1	24
439.943	1	42
440.113	1	36
440.284	1	28
440.455	1	32
440.625	1	36
440.796	1	30
440.966	1	27
441.137	1	26
441.307	1	18
441.478	1	35
441.648	1	20
441.819	1	28
441.989	1	24
442.160	1	36
442.330	1	21
442.501	1	31
442.671	1	21
442.842	1	16
443.012	1	16
443.183	1	36
443.353	1	14
443.524	1	21
443.694	1	33
443.865	1	19
444.035	1	26
444.206	1	23
444.376	1	21
444.547	1	36
444.717	1	19
444.888	1	21
445.058	1	26
445.229	1	28
445.399	1	22
445.570	1	30
445.740	1	17
445.911	1	23
446.081	1	15
446.252	1	32
446.422	1	17
446.593	1	27
446.763	1	17
446.934	1	20
447.104	1	21
447.275	1	25
447.445	1	21
447.616	1	30
447.786	1	27
447.957	1	30
448.127	1	23
448.298	1	29
448.468	1	31
448.639	1	23
448.809	1	25
448.979	1	24
449.150	1	20
449.320	1	29
449.491	1	22
449.661	1	20
449.832	1	21
450.002	1	30
450.173	1	23
450.343	1	22
450.514	1	26
450.684	1	20
450.855	1	23
451.025	1	22
451.196	1	23
451.366	1	24
451.537	1	16
451.707	1	2
451.878	1	11
452.048	1	27
452.218	1	23
452.389	1	30
452.559	1	24
452.730	1	35
452.900	1	31
453.071	1	15
453.241	1	16
453.412	1	22
453.582	1	25
453.753	1	16
453.923	1	25
454.093	1	17
454.264	1	21
454.434	1	15
454.605	1	28
454.775	1	19
454.946	1	20
455.116	1	20
455.287	1	20
455.457	1	15
455.628	1	19
455.798	1	26
455.968	1	18
456.139	1	22
456.309	1	15
456.480	1	21
456.650	1	21
456.821	1	16
456.991	1	24
457.161	1	10
457.332	1	26
457.502	1	10
457.673	1	20
457.843	1	24
458.014	1	23
458.184	1	26
458.355	1	15
458.525	1	27
458.695	1	19
458.866	1	20
459.036	1	27
459.207	1	23
459.377	1	15
459.548	1	27
459.718	1	17
459.888	1	20
460.059	1	22
460.229	1	35
460.400	1	30
460.570	1	25
460.740	1	16
460.911	1	18
461.081	1	21
461.252	1	17
461.422	1	20
461.593	1	3
461.763	1	23
461.933	1	24
462.104	1	12
462.274	1	19
462.445	1	28
462.615	1	17
462.785	1	16
462.956	1	20
463.126	1	24
463.297	1	17
463.467	1	18
463.638	1	23
463.808	1	14
463.978	1	9
464.149	1	12
464.319	1	11
464.490	1	34
464.660	1	19
464.830	1	19
465.001	1	15
465.171	1	18
465.342	1	23
465.512	1	13
465.682	1	18
465.853	1	18
466.023	1	12
466.194	1	13
466.364	1	25
466.534	1	17
466.705	1	17
466.875	1	17
467.045	1	13
467.216	1	28
467.386	1	21
467.557	1	16
467.727	1	10
467.897	1	21
468.068	1	24
468.238	1	11
468.409	1	7
468.579	1	17
468.749	1	17
468.920	1	8
469.090	1	22
469.260	1	12
469.431	1	17
469.601	1	22
469.772	1	13
469.942	1	13
470.112	1	20
470.283	1	12
470.453	1	14
470.623	1	16
470.794	1	9
470.964	1	15
471.135	1	15
471.305	1	11
471.475	1	14
471.646	1	15
471.816	1	9
471.986	1	21
472.157	1	23
472.327	1	13
472.497	1	19
472.668	1	12
472.838	1	5
473.009	1	18
473.179	1	8
473.349	1	12
473.520	1	26
473.690	1	11
473.860	1	15
474.031	1	21
474.201	1	13
474.371	1	23
474.542	1	26
474.712	1	11
474.882	1	18
475.053	1	23
475.223	1	8
475.394	1	28
475.564	1	28
475.734	1	8
475.905	1	21
476.075	1	6
476.245	1	17
476.416	1	26
476.586	1	21
476.756	1	8
476.927	1	16
477.097	1	20
477.267	1	13
477.438	1	11
477.608	1	13
477.778	1	12
477.949	1	15
478.119	1	24
478.289	1	3
478.460	1	21
478.630	1	13
478.800	1	14
478.971	1	14
479.141	1	8
479.311	1	2
479.482	1	13
479.652	1	17
479.822	1	9
479.993	1	23
480.163	1	23
480.333	1	14
480.504	1	20
480.674	1	11
480.844	1	8
481.015	1	25
481.185	1	15
481.355	1	18
481.525	1	12
481.696	1	18
481.866	1	17
482.036	1	24
482.207	1	10
482.377	1	17
482.547	1	17
482.718	1	12
482.888	1	26
483.058	1	21
483.229	1	19
483.399	1	3
483.569	1	6
483.740	1	13
483.910	1	19
484.080	1	11
484.250	1	8
484.421	1	22
484.591	1	19
484.761	1	23
484.932	1	19
485.102	1	19
485.272	1	14
485.443	1	27
485.613	1	15
485.783	1	12
485.953	1	13
486.124	1	19
486.294	1	13
486.464	1	9
486.635	1	25
486.805	1	24
486.975	1	4
487.146	1	8
487.316	1	11
487.486	1	17
487.656	1	8
487.827	1	-5
487.997	1	0
488.167	1	6
488.338	1	9
488.508	1	5
488.678	1	15
488.848	1	23
489.019	1	8
489.189	1	15
489.359	1	12
489.529	1	13
489.700	1	3
489.870	1	25
490.040	1	7
490.211	1	8
490.381	1	15
490.551	1	8
490.721	1	17
490.892	1	10
491.062	1	16
491.232	1	16
491.402	1	4
491.573	1	-1
491.743	1	4
491.913	1	0
492.084	1	16
492.254	1	12
492.424	1	16
492.594	1	10
492.765	1	18
492.935	1	15
493.105	1	13
493.275	1	14
493.446	1	11
493.616	1	17
493.786	1	8
493.956	1	4
494.127	1	0
494.297	1	13
494.467	1	2
494.637	1	9
494.808	1	15
494.978	1	9
495.148	1	11
495.318	1	11
495.489	1	5
495.659	1	11
495.829	1	7
495.999	1	8
496.170	1	21
496.340	1	14
496.510	1	4
496.680	1	0
496.851	1	15
497.021	1	-2
497.191	1	9
497.361	1	11
497.532	1	6
497.702	1	6
497.872	1	2
498.042	1	8
498.213	1	9
498.383	1	11
498.553	1	1
498.723	1	1
498.894	1	11
499.064	1	8
499.234	1	14
499.404	1	2
499.574	1	16
499.745	1	16
499.915	1	5
500.085	1	12
500.255	1	14
500.426	1	16
500.596	1	6
500.766	1	9
500.936	1	13
501.106	1	6
501.277	1	13
501.447	1	13
501.617	1	6
501.787	1	4
501.958	1	0
502.128	1	5
502.298	1	5
502.468	1	8
502.638	1	11
502.809	1	11
502.979	1	4
503.149	1	-9
503.319	1	10
503.489	1	16
503.660	1	7
503.830	1	15
504.000	1	18
504.170	1	8
504.340	1	5
504.511	1	7
504.681	1	6
504.851	1	13
505.021	1	6
505.192	1	3
505.362	1	12
505.532	1	10
505.702	1	5
505.872	1	12
506.043	1	-1
506.213	1	4
506.383	1	1
506.553	1	15
506.723	1	6
506.893	1	11
507.064	1	19
507.234	1	2
507.404	1	6
507.574	1	8
507.744	1	3
507.915	1	12
508.085	1	14
508.255	1	13
508.425	1	-4
508.595	1	17
508.766	1	18
508.936	1	3
509.106	1	16
509.276	1	8
509.446	1	-2
509.616	1	-4
509.787	1	17
509.957	1	14
510.127	1	9
510.297	1	9
510.467	1	2
510.638	1	3
510.808	1	-11
510.978	1	-7
511.148	1	13
511.318	1	5
511.488	1	2
511.659	1	-2
511.829	1	-7
511.999	1	9
512.169	1	3
512.339	1	5
512.509	1	7
512.680	1	2
512.850	1	12
513.020	1	12
513.190	1	15
513.360	1	1
513.530	1	4
513.700	1	12
513.871	1	0
514.041	1	0
514.211	1	10
514.381	1	14
514.551	1	17
514.721	1	2
514.892	1	12
515.062	1	5
515.232	1	1
515.402	1	1
515.572	1	-8
515.742	1	8
515.912	1	6
516.083	1	4
516.253	1	13
516.423	1	10
516.593	1	11
516.763	1	16
516.933	1	6
517.104	1	5
517.274	1	1
517.444	1	3
517.614	1	-13
517.784	1	6
517.954	1	12
518.124	1	13
518.294	1	8
518.465	1	3
518.635	1	-6
518.805	1	-1
518.975	1	-2
519.145	1	3
519.315	1	5
519.485	1	0
519.656	1	7
519.826	1	2
519.996	1	2
520.166	1	7
520.336	1	18
520.506	1	9
520.676	1	5
520.846	1	9
521.017	1	4
521.187	1	6
521.357	1	11
521.527	1	1
521.697	1	10
521.867	1	3
522.037	1	13
522.207	1	15
522.377	1	15
522.548	1	20
522.718	1	-3
522.888	1	13
523.058	1	7
523.228	1	7
523.398	1	5
523.568	1	12
523.738	1	8
523.909	1	12
524.079	1	9
524.249	1	10
524.419	1	10
524.589	1	2
524.759	1	-1
524.929	1	1
525.099	1	4
525.269	1	3
525.439	1	2
525.610	1	20
525.780	1	8
525.950	1	7
526.120	1	10
526.290	1	3
526.460	1	-5
526.630	1	11
526.800	1	4
526.970	1	5
527.140	1	9
527.311	1	-2
527.481	1	0
527.651	1	8
527.821	1	2
527.991	1	13
528.161	1	16
528.331	1	1
528.501	1	-1
528.671	1	-6
528.841	1	2
529.011	1	4
529.181	1	9
529.352	1	10
529.522	1	-7
529.692	1	8
529.862	1	-4
530.032	1	9
530.202	1	13
530.372	1	6
530.542	1	6
530.712	1	1
530.882	1	3
531.052	1	5
531.222	1	5
531.392	1	-7
531.563	1	11
531.733	1	7
531.903	1	-8
532.073	1	16
532.243	1	3
532.413	1	6
532.583	1	5
532.753	1	11
532.923	1	0
533.093	1	6
533.263	1	5
533.433	1	5
533.603	1	6
533.773	1	5
533.943	1	2
534.113	1	2
534.284	1	0
534.454	1	1
534.624	1	18
534.794	1	5
534.964	1	6
535.134	1	-4
535.304	1	5
535.474	1	9
535.644	1	-5
535.814	1	-5
535.984	1	-2
536.154	1	0
536.324	1	2
536.494	1	-2
536.664	1	14
536.834	1	-2
537.004	1	-1
537.174	1	13
537.344	1	-1
537.514	1	-5
537.685	1	4
537.855	1	6
538.025	1	14
538.195	1	-2
538.365	1	15
538.535	1	-2
538.705	1	7
538.875	1	0
539.045	1	11
539.215	1	3
539.385	1	11
539.555	1	8
539.725	1	10
539.895	1	-5
540.065	1	10
540.235	1	8
540.405	1	1
540.575	1	10
540.745	1	4
540.915	1	15
541.085	1	14
541.255	1	-1
541.425	1	7
541.595	1	3
541.765	1	12
541.935	1	6
542.105	1	-10
542.275	1	-2
542.445	1	-8
542.615	1	-1
542.785	1	8
542.955	1	-2
543.125	1	7
543.295	1	7
543.465	1	12
543.635	1	7
543.805	1	7
543.975	1	2
544.145	1	6
544.315	1	5
544.485	1	11
544.655	1	2
544.825	1	-3
544.995	1	0
545.165	1	-12
545.335	1	4
545.505	1	0
545.675	1	-3
545.845	1	10
546.015	1	0
546.185	1	12
546.355	1	5
546.525	1	5
546.695	1	6
546.865	1	1
547.035	1	14
547.205	1	-11
547.375	1	10
547.545	1	9
547.715	1	1
547.885	1	4
548.055	1	-2
548.225	1	2
548.395	1	3
548.565	1	-1
548.735	1	11
548.905	1	-4
549.075	1	6
549.245	1	1
549.415	1	-1
549.585	1	0
549.755	1	6
549.925	1	-2
550.095	1	0
550.265	1	-1
550.435	1	3
550.605	1	4
550.775	1	2
550.945	1	12
551.115	1	2
551.285	1	4
551.455	1	-9
551.625	1	10
551.795	1	8
551.965	1	-2
552.135	1	2
552.305	1	7
552.475	1	-1
552.645	1	0
552.815	1	5
552.985	1	9
553.155	1	2
553.325	1	7
553.495	1	-1
553.665	1	-2
553.835	1	1
554.004	1	8
554.174	1	6
554.344	1	2
554.514	1	-9
554.684	1	0
554.854	1	15
555.024	1	-1
555.194	1	-5
555.364	1	-2
555.534	1	-1
555.704	1	7
555.874	1	7
556.044	1	6
556.214	1	0
556.384	1	5
556.554	1	1
556.724	1	6
556.894	1	3
557.064	1	2
557.234	1	0
557.404	1	-2
557.573	1	0
557.743	1	2
557.913	1	-8
558.083	1	10
558.253	1	5
558.423	1	9
558.593	1	5
558.763	1	1
558.933	1	5
559.103	1	7
559.273	1	2
559.443	1	3
559.613	1	7
559.783	1	0
559.953	1	4
560.122	1	0
560.292	1	-2
560.462	1	-3
560.632	1	16
560.802	1	0
560.972	1	11
561.142	1	6
561.312	1	-7
561.482	1	8
561.652	1	10
561.822	1	-2
561.992	1	3
562.162	1	4
562.331	1	2
562.501	1	-9
562.671	1	7
562.841	1	-1
563.011	1	15
563.181	1	1
563.351	1	-2
563.521	1	7
563.691	1	-3
563.861	1	4
564.031	1	11
564.201	1	13
564.370	1	-11
564.540	1	2
564.710	1	-4
564.880	1	11
565.050	1	4
565.220	1	7
565.390	1	10
565.560	1	7
565.730	1	-7
565.900	1	9
566.069	1	17
566.239	1	7
566.409	1	9
566.579	1	11
566.749	1	1
566.919	1	7
567.089	1	7
567.259	1	12
567.429	1	0
567.599	1	-3
567.768	1	10
567.938	1	13
568.108	1	10
568.278	1	-4
568.448	1	-4
568.618	1	-5
568.788	1	7
568.958	1	-2
569.128	1	11
569.297	1	1
569.467	1	5
569.637	1	13
569.807	1	2
569.977	1	5
570.147	1	14
570.317	1	-12
570.487	1	7
570.656	1	5
570.826	1	-4
570.996	1	-5
571.166	1	9
571.336	1	-3
571.506	1	10
571.676	1	0
571.846	1	13
572.015	1	3
572.185	1	1
572.355	1	4
572.525	1	0
572.695	1	4
572.865	1	-5
573.035	1	8
573.205	1	5
573.374	1	-2
573.544	1	2
573.714	1	14
573.884	1	11
574.054	1	4
574.224	1	6
574.394	1	5
574.563	1	-1
574.733	1	-8
574.903	1	-9
575.073	1	-4
575.243	1	-1
575.413	1	4
575.583	1	-3
575.752	1	6
575.922	1	1
576.092	1	4
576.262	1	5
576.432	1	2
576.602	1	0
576.772	1	12
576.941	1	7
577.111	1	-6
577.281	1	-9
577.451	1	-8
577.621	1	16
577.791	1	15
577.960	1	4
578.130	1	5
578.300	1	3
578.470	1	1
578.640	1	2
578.810	1	6
578.979	1	7
579.149	1	8
579.319	1	-1
579.489	1	6
579.659	1	5
579.829	1	1
579.998	1	8
580.168	1	13
580.338	1	2
580.508	1	4
580.678	1	-3
580.848	1	1
581.017	1	1
581.187	1	0
581.357	1	-1
581.527	1	13
581.697	1	11
581.867	1	3
582.036	1	1
582.206	1	-2
582.376	1	9
582.546	1	-6
582.716	1	-7
582.885	1	-7
583.055	1	-1
583.225	1	-4
583.395	1	7
583.565	1	-7
583.735	1	7
583.904	1	-1
584.074	1	3
584.244	1	2
584.414	1	-6
584.584	1	8
584.753	1	-3
584.923	1	10
585.093	1	12
585.263	1	12
585.433	1	8
585.602	1	-4
585.772	1	-5
585.942	1	-2
586.112	1	16
586.282	1	2
586.451	1	9
586.621	1	-2
586.791	1	2
586.961	1	-5
587.131	1	10
587.300	1	-1
587.470	1	2
587.640	1	11
587.810	1	-3
587.980	1	-1
588.149	1	10
588.319	1	-1
588.489	1	-4
588.659	1	1
588.829	1	10
588.998	1	11
589.168	1	1
589.338	1	-3
589.508	1	7
589.677	1	-1
589.847	1	-1
590.017	1	26
590.187	1	-4
590.357	1	2
590.526	1	4
590.696	1	7
590.866	1	13
591.036	1	4
591.205	1	13
591.375	1	4
591.545	1	3
591.715	1	6
591.885	1	-7
592.054	1	-7
592.224	1	-4
592.394	1	-6
592.564	1	9
592.733	1	-1
592.903	1	1
593.073	1	-6
593.243	1	3
593.412	1	7
593.582	1	4
593.752	1	1
593.922	1	7
594.091	1	-6
594.261	1	0
594.431	1	-2
594.601	1	1
594.771	1	12
594.940	1	0
595.110	1	-5
595.280	1	3
595.450	1	0
595.619	1	2
595.789	1	-4
595.959	1	5
596.129	1	2
596.298	1	-3
596.468	1	5
596.638	1	4
596.808	1	6
596.977	1	4
597.147	1	3
597.317	1	-10
597.487	1	7
597.656	1	6
597.826	1	-6
597.996	1	9
598.166	1	-3
598.335	1	1
598.505	1	-1
598.675	1	-3
598.844	1	1
599.014	1	0
599.184	1	5
599.354	1	-5
599.523	1	11
599.693	1	-3
599.863	1	10
600.033	1	9
600.202	1	11
600.372	1	-6
600.542	1	12
600.712	1	-4
600.881	1	1
601.051	1	14
601.221	1	17
601.390	1	-3
601.560	1	7
601.730	1	8
601.900	1	4
602.069	1	11
602.239	1	0
602.409	1	-7
602.578	1	2
602.748	1	-2
602.918	1	10
603.088	1	12
603.257	1	7
603.427	1	1
603.597	1	8
603.767	1	8
603.936	1	5
604.106	1	16
604.276	1	3
604.445	1	14
604.615	1	7
604.785	1	-5
604.954	1	3
605.124	1	0
605.294	1	4
605.464	1	-3
605.633	1	3
605.803	1	14
605.973	1	-1
606.142	1	4
606.312	1	5
606.482	1	5
606.652	1	6
606.821	1	0
606.991	1	-7
607.161	1	1
607.330	1	8
607.500	1	1
607.670	1	-5
607.839	1	11
608.009	1	17
608.179	1	6
608.348	1	5
608.518	1	0
608.688	1	7
608.858	1	0
609.027	1	-8
609.197	1	1
609.367	1	14
609.536	1	5
609.706	1	11
609.876	1	-4
610.045	1	4
610.215	1	5
610.385	1	3
610.554	1	2
610.724	1	8
610.894	1	2
611.063	1	-1
611.233	1	4
611.403	1	4
611.572	1	0
611.742	1	7
611.912	1	-4
612.081	1	0
612.251	1	6
612.421	1	-1
612.590	1	3
612.760	1	0
612.930	1	6
613.099	1	2
613.269	1	14
613.439	1	3
613.608	1	9
613.778	1	7
613.948	1	-1
614.117	1	8
614.287	1	19
614.457	1	10
614.626	1	-3
614.796	1	-2
614.966	1	-3
615.135	1	0
615.305	1	18
615.475	1	-1
615.644	1	1
615.814	1	2
615.984	1	-3
616.153	1	1
616.323	1	-4
616.493	1	5
616.662	1	14
616.832	1	4
617.002	1	-7
617.171	1	-5
617.341	1	-2
617.511	1	-2
617.680	1	-5
617.850	1	8
618.019	1	7
618.189	1	20
618.359	1	8
618.528	1	10
618.698	1	3
618.868	1	-6
619.037	1	2
619.207	1	7
619.377	1	9
619.546	1	5
619.716	1	3
619.885	1	9
620.055	1	-11
620.225	1	11
620.394	1	3
620.564	1	11
620.734	1	5
620.903	1	-5
621.073	1	15
621.242	1	6
621.412	1	-2
621.582	1	-4
621.751	1	7
621.921	1	6
622.091	1	-1
622.260	1	4
622.430	1	18
622.599	1	-1
622.769	1	3
622.939	1	6
623.108	1	4
623.278	1	-4
623.448	1	1
623.617	1	4
623.787	1	3
623.956	1	3
624.126	1	3
624.296	1	1
624.465	1	8
624.635	1	10
624.804	1	7
624.974	1	2
625.144	1	4
625.313	1	4
625.483	1	-7
625.652	1	4
625.822	1	-5
625.992	1	4
626.161	1	13
626.331	1	5
626.501	1	9
626.670	1	8
626.840	1	4
627.009	1	0
627.179	1	8
627.348	1	6
627.518	1	-3
627.688	1	6
627.857	1	10
628.027	1	1
628.196	1	6
628.366	1	15
628.536	1	10
628.705	1	8
628.875	1	-6
629.044	1	7
629.214	1	6
629.384	1	0
629.553	1	10
629.723	1	-3
629.892	1	1
630.062	1	5
630.232	1	3
630.401	1	18
630.571	1	-3
630.740	1	8
630.910	1	5
631.079	1	1
631.249	1	6
631.419	1	17
631.588	1	4
631.758	1	6
631.927	1	-1
632.097	1	5
632.266	1	7
632.436	1	5
632.606	1	-5
632.775	1	3
632.945	1	9
633.114	1	11
633.284	1	16
633.453	1	2
633.623	1	0
633.793	1	-2
633.962	1	6
634.132	1	9
634.301	1	4
634.471	1	12
634.640	1	19
634.810	1	-2
634.979	1	11
635.149	1	15
635.319	1	1
635.488	1	5
635.658	1	5
635.827	1	-8
635.997	1	2
636.166	1	9
636.336	1	5
636.505	1	10
636.675	1	-3
636.845	1	9
637.014	1	13
637.184	1	10
637.353	1	-1
637.523	1	-1
637.692	1	1
637.862	1	0
638.031	1	3
638.201	1	10
638.370	1	0
638.540	1	-1
638.710	1	1
638.879	1	-10
639.049	1	10
639.218	1	5
639.388	1	4
639.557	1	-1
639.727	1	-2
639.896	1	9
640.066	1	8
640.235	1	6
640.405	1	10
640.574	1	2
640.744	1	-9
640.914	1	3
641.083	1	5
641.253	1	-5
641.422	1	3
641.592	1	17
641.761	1	3
641.931	1	9
642.100	1	20
642.270	1	5
642.439	1	7
642.609	1	3
642.778	1	2
642.948	1	-1
643.117	1	-1
643.287	1	10
643.456	1	6
643.626	1	13
643.795	1	1
643.965	1	3
644.134	1	7
644.304	1	3
644.473	1	4
644.643	1	8
644.812	1	-1
644.982	1	8
645.151	1	2
645.321	1	-9
645.490	1	7
645.660	1	-2
645.829	1	-1
645.999	1	2
646.168	1	-6
646.338	1	23
646.507	1	4
646.677	1	11
646.846	1	-7
647.016	1	0
647.185	1	7
647.355	1	-2
647.524	1	1
647.694	1	15
647.863	1	2
648.033	1	7
648.202	1	7
648.372	1	5
648.541	1	0
648.711	1	1
648.880	1	-5
649.050	1	0
649.219	1	7
649.389	1	5
649.558	1	6
649.728	1	10
649.897	1	-2
650.067	1	5
650.236	1	6
650.406	1	16
650.575	1	7
650.745	1	11
650.914	1	0
651.084	1	-3
651.253	1	5
651.423	1	4
651.592	1	6
651.762	1	-4
651.931	1	7
652.101	1	0
652.270	1	16
652.440	1	15
652.609	1	4
652.778	1	6
652.948	1	5
653.117	1	0
653.287	1	-1
653.456	1	10
653.626	1	3
653.795	1	1
653.965	1	8
654.134	1	7
654.304	1	-7
654.473	1	13
654.643	1	12
654.812	1	11
654.982	1	5
655.151	1	6
655.320	1	11
655.490	1	-2
655.659	1	7
655.829	1	4
655.998	1	7
656.168	1	7
656.337	1	1
656.507	1	4
656.676	1	8
656.846	1	20
657.015	1	17
657.184	1	9
657.354	1	1
657.523	1	8
657.693	1	16
657.862	1	7
658.032	1	2
658.201	1	2
658.371	1	9
658.540	1	4
658.709	1	4
658.879	1	10
659.048	1	1
659.218	1	2
659.387	1	-2
659.557	1	15
659.726	1	12
659.895	1	1
660.065	1	-6
660.234	1	6
660.404	1	5
660.573	1	8
660.743	1	4
660.912	1	0
661.081	1	12
661.251	1	-1
661.420	1	8
661.590	1	8
661.759	1	14
661.929	1	12
662.098	1	7
662.267	1	6
662.437	1	7
662.606	1	10
662.776	1	7
662.945	1	7
663.115	1	-4
663.284	1	1
663.453	1	16
663.623	1	2
663.792	1	9
663.962	1	-2
664.131	1	8
664.300	1	10
664.470	1	-2
664.639	1	5
664.809	1	2
664.978	1	12
665.148	1	6
665.317	1	2
665.486	1	11
665.656	1	4
665.825	1	14
665.995	1	1
666.164	1	3
666.333	1	15
666.503	1	7
666.672	1	-2
666.842	1	0
667.011	1	6
667.180	1	12
667.350	1	0
667.519	1	11
667.689	1	3
667.858	1	11
668.027	1	12
668.197	1	0
668.366	1	-2
668.536	1	5
668.705	1	3
668.874	1	17
669.044	1	2
669.213	1	13
669.382	1	-2
669.552	1	14
669.721	1	13
669.891	1	14
670.060	1	8
670.229	1	13
670.399	1	-6
670.568	1	13
670.738	1	20
670.907	1	-7
671.076	1	-3
671.246	1	-4
671.415	1	16
671.584	1	6
671.754	1	-4
671.923	1	8
672.093	1	13
672.262	1	2
672.431	1	1
672.601	1	4
672.770	1	-7
672.939	1	15
673.109	1	10
673.278	1	11
673.448	1	11
673.617	1	2
673.786	1	2
