325.333	1	4
325.504	1	-1
325.675	1	2
325.846	1	-4
326.017	1	5
326.188	1	-1
326.359	1	-11
326.531	1	-8
326.702	1	-1
326.873	1	13
327.044	1	-6
327.215	1	6
327.386	1	3
327.557	1	1
327.728	1	3
327.899	1	2
328.070	1	8
328.241	1	4
328.412	1	-3
328.583	1	7
328.754	1	9
328.926	1	11
329.097	1	-12
329.268	1	12
329.439	1	2
329.610	1	4
329.781	1	-4
329.952	1	9
330.123	1	5
330.294	1	-7
330.465	1	-2
330.636	1	10
330.807	1	2
330.978	1	0
331.149	1	5
331.320	1	1
331.492	1	6
331.663	1	3
331.834	1	18
332.005	1	5
332.176	1	15
332.347	1	5
332.518	1	-6
332.689	1	9
332.860	1	3
333.031	1	16
333.202	1	5
333.373	1	-1
333.544	1	1
333.715	1	2
333.886	1	-4
334.057	1	9
334.228	1	0
334.399	1	5
334.570	1	10
334.741	1	-1
334.912	1	13
335.084	1	22
335.255	1	2
335.426	1	-5
335.597	1	8
335.768	1	-2
335.939	1	8
336.110	1	-5
336.281	1	2
336.452	1	5
336.623	1	6
336.794	1	6
336.965	1	-1
337.136	1	0
337.307	1	2
337.478	1	0
337.649	1	12
337.820	1	2
337.991	1	7
338.162	1	2
338.333	1	1
338.504	1	5
338.675	1	0
338.846	1	2
339.017	1	7
339.188	1	1
339.359	1	-3
339.530	1	8
339.701	1	-3
339.872	1	10
340.043	1	4
340.214	1	0
340.385	1	12
340.556	1	-12
340.727	1	13
340.898	1	15
341.069	1	11
341.240	1	0
341.411	1	6
341.582	1	7
341.753	1	-5
341.924	1	4
342.095	1	1
342.266	1	12
342.437	1	17
342.608	1	-2
342.779	1	4
342.950	1	-1
343.121	1	16
343.292	1	4
343.463	1	1
343.634	1	5
343.805	1	5
343.976	1	0
344.147	1	1
344.318	1	8
344.489	1	2
344.660	1	5
344.831	1	10
345.002	1	-9
345.173	1	17
345.344	1	2
345.515	1	14
345.686	1	3
345.857	1	7
346.028	1	1
346.199	1	2
346.370	1	10
346.541	1	8
346.712	1	-11
346.883	1	2
347.054	1	13
347.225	1	1
347.396	1	9
347.567	1	-1
347.738	1	-4
347.909	1	13
348.080	1	1
348.251	1	13
348.422	1	12
348.593	1	4
348.764	1	5
348.935	1	5
349.106	1	3
349.277	1	7
349.448	1	11
349.619	1	11
349.790	1	6
349.961	1	11
350.132	1	8
350.303	1	-5
350.474	1	16
350.645	1	12
350.816	1	8
350.987	1	9
351.157	1	-3
351.328	1	17
351.499	1	16
351.670	1	3
351.841	1	4
352.012	1	11
352.183	1	14
352.354	1	13
352.525	1	23
352.696	1	13
352.867	1	6
353.038	1	14
353.209	1	18
353.380	1	9
353.551	1	-1
353.722	1	7
353.893	1	-1
354.064	1	12
354.235	1	9
354.406	1	8
354.576	1	9
354.747	1	12
354.918	1	5
355.089	1	1
355.260	1	6
355.431	1	11
355.602	1	8
355.773	1	10
355.944	1	10
356.115	1	5
356.286	1	9
356.457	1	15
356.628	1	6
356.799	1	7
356.970	1	15
357.141	1	3
357.311	1	7
357.482	1	9
357.653	1	7
357.824	1	15
357.995	1	4
358.166	1	1
358.337	1	10
358.508	1	8
358.679	1	10
358.850	1	10
359.021	1	2
359.192	1	15
359.363	1	1
359.533	1	11
359.704	1	11
359.875	1	7
360.046	1	9
360.217	1	7
360.388	1	7
360.559	1	7
360.730	1	11
360.901	1	12
361.072	1	20
361.243	1	21
361.414	1	2
361.584	1	4
361.755	1	17
361.926	1	5
362.097	1	7
362.268	1	7
362.439	1	3
362.610	1	20
362.781	1	8
362.952	1	2
363.123	1	7
363.293	1	5
363.464	1	25
363.635	1	20
363.806	1	6
363.977	1	11
364.148	1	5
364.319	1	9
364.490	1	13
364.661	1	11
364.832	1	21
365.002	1	10
365.173	1	10
365.344	1	20
365.515	1	-3
365.686	1	10
365.857	1	8
366.028	1	13
366.199	1	-3
366.370	1	15
366.540	1	5
366.711	1	2
366.882	1	-5
367.053	1	4
367.224	1	23
367.395	1	13
367.566	1	16
367.737	1	18
367.908	1	18
368.078	1	7
368.249	1	13
368.420	1	10
368.591	1	5
368.762	1	12
368.933	1	8
369.104	1	6
369.274	1	19
369.445	1	6
369.616	1	9
369.787	1	13
369.958	1	15
370.129	1	2
370.300	1	24
370.471	1	9
370.641	1	9
370.812	1	16
370.983	1	5
371.154	1	8
371.325	1	11
371.496	1	7
371.667	1	22
371.837	1	-3
372.008	1	16
372.179	1	7
372.350	1	24
372.521	1	9
372.692	1	13
372.863	1	7
373.033	1	-3
373.204	1	3
373.375	1	14
373.546	1	10
373.717	1	16
373.888	1	12
374.059	1	12
374.229	1	4
374.400	1	9
374.571	1	7
374.742	1	11
374.913	1	12
375.084	1	7
375.254	1	13
375.425	1	16
375.596	1	12
375.767	1	15
375.938	1	11
376.109	1	13
376.279	1	11
376.450	1	12
376.621	1	12
376.792	1	18
376.963	1	12
377.134	1	11
377.304	1	7
377.475	1	7
377.646	1	-1
377.817	1	-1
377.988	1	6
378.159	1	18
378.329	1	21
378.500	1	6
378.671	1	7
378.842	1	13
379.013	1	3
379.184	1	-2
379.354	1	15
379.525	1	0
379.696	1	16
379.867	1	13
380.038	1	6
380.209	1	12
380.379	1	14
380.550	1	3
380.721	1	13
380.892	1	16
381.063	1	6
381.233	1	15
381.404	1	13
381.575	1	19
381.746	1	12
381.917	1	5
382.087	1	8
382.258	1	6
382.429	1	12
382.600	1	15
382.771	1	15
382.941	1	7
383.112	1	14
383.283	1	17
383.454	1	4
383.625	1	12
383.795	1	12
383.966	1	10
384.137	1	12
384.308	1	6
384.479	1	16
384.649	1	21
384.820	1	10
384.991	1	7
385.162	1	12
385.333	1	3
385.503	1	3
385.674	1	-2
385.845	1	22
386.016	1	9
386.187	1	5
386.357	1	17
386.528	1	19
386.699	1	14
386.870	1	24
387.041	1	16
387.211	1	13
387.382	1	12
387.553	1	17
387.724	1	5
387.894	1	15
388.065	1	5
388.236	1	22
388.407	1	12
388.578	1	17
388.748	1	8
388.919	1	11
389.090	1	17
389.261	1	9
389.431	1	9
389.602	1	13
389.773	1	15
389.944	1	15
390.114	1	1
390.285	1	14
390.456	1	13
390.627	1	18
390.798	1	18
390.968	1	14
391.139	1	16
391.310	1	14
391.481	1	21
391.651	1	15
391.822	1	10
391.993	1	10
392.164	1	4
392.334	1	15
392.505	1	12
392.676	1	19
392.847	1	19
393.017	1	20
393.188	1	11
393.359	1	11
393.530	1	21
393.700	1	18
393.871	1	10
394.042	1	8
394.213	1	10
394.383	1	15
394.554	1	14
394.725	1	23
394.896	1	9
395.066	1	16
395.237	1	16
395.408	1	14
395.579	1	19
395.749	1	12
395.920	1	20
396.091	1	20
396.262	1	7
396.432	1	8
396.603	1	17
396.774	1	16
396.945	1	21
397.115	1	14
397.286	1	9
397.457	1	19
397.627	1	20
397.798	1	16
397.969	1	7
398.140	1	1
398.310	1	16
398.481	1	11
398.652	1	8
398.823	1	11
398.993	1	3
399.164	1	13
399.335	1	24
399.505	1	21
399.676	1	19
399.847	1	11
400.018	1	9
400.188	1	4
400.359	1	10
400.530	1	6
400.700	1	10
400.871	1	3
401.042	1	14
401.213	1	13
401.383	1	9
401.554	1	10
401.725	1	17
401.895	1	11
402.066	1	17
402.237	1	21
402.408	1	15
402.578	1	18
402.749	1	17
402.920	1	13
403.090	1	7
403.261	1	11
403.432	1	12
403.603	1	10
403.773	1	17
403.944	1	25
404.115	1	22
404.285	1	17
404.456	1	15
404.627	1	17
404.797	1	3
404.968	1	12
405.139	1	16
405.310	1	25
405.480	1	20
405.651	1	10
405.822	1	21
405.992	1	10
406.163	1	10
406.334	1	8
406.504	1	13
406.675	1	13
406.846	1	10
407.016	1	29
407.187	1	18
407.358	1	13
407.528	1	1
407.699	1	2
407.870	1	8
408.041	1	21
408.211	1	27
408.382	1	10
408.553	1	7
408.723	1	21
408.894	1	17
409.065	1	15
409.235	1	8
409.406	1	14
409.577	1	12
409.747	1	26
409.918	1	19
410.089	1	8
410.259	1	9
410.430	1	18
410.601	1	10
410.771	1	7
410.942	1	20
411.113	1	12
411.283	1	11
411.454	1	12
411.625	1	10
411.795	1	22
411.966	1	20
412.137	1	20
412.307	1	5
412.478	1	18
412.649	1	20
412.819	1	9
412.990	1	8
413.161	1	8
413.331	1	5
413.502	1	20
413.672	1	22
413.843	1	13
414.014	1	17
414.184	1	21
414.355	1	12
414.526	1	16
414.696	1	18
414.867	1	18
415.038	1	9
415.208	1	21
415.379	1	15
415.550	1	17
415.720	1	13
415.891	1	12
416.062	1	17
416.232	1	11
416.403	1	15
416.573	1	16
416.744	1	11
416.915	1	20
417.085	1	5
417.256	1	20
417.427	1	20
417.597	1	21
417.768	1	-3
417.939	1	19
418.109	1	15
418.280	1	15
418.450	1	16
418.621	1	6
418.792	1	21
418.962	1	29
419.133	1	25
419.304	1	14
419.474	1	3
419.645	1	10
419.815	1	8
419.986	1	20
420.157	1	11
420.327	1	13
420.498	1	17
420.669	1	25
420.839	1	33
421.010	1	21
421.180	1	23
421.351	1	15
421.522	1	16
421.692	1	14
421.863	1	20
422.033	1	17
422.204	1	14
422.375	1	17
422.545	1	22
422.716	1	10
422.886	1	7
423.057	1	19
423.228	1	8
423.398	1	4
423.569	1	24
423.740	1	10
423.910	1	8
424.081	1	12
424.251	1	10
424.422	1	9
424.593	1	12
424.763	1	12
424.934	1	24
425.104	1	15
425.275	1	6
425.445	1	9
425.616	1	3
425.787	1	3
425.957	1	17
426.128	1	20
426.298	1	19
426.469	1	10
426.640	1	16
426.810	1	20
426.981	1	12
427.151	1	4
427.322	1	19
427.493	1	12
427.663	1	14
427.834	1	8
428.004	1	21
428.175	1	17
428.345	1	17
428.516	1	5
428.687	1	19
428.857	1	5
429.028	1	8
429.198	1	15
429.369	1	15
429.540	1	16
429.710	1	5
429.881	1	16
430.051	1	16
430.222	1	13
430.392	1	9
430.563	1	22
430.734	1	28
430.904	1	18
431.075	1	14
431.245	1	13
431.416	1	24
431.586	1	2
431.757	1	19
431.927	1	19
432.098	1	22
432.269	1	8
432.439	1	14
432.610	1	12
432.780	1	20
432.951	1	14
433.121	1	13
433.292	1	11
433.462	1	17
433.633	1	21
433.804	1	21
433.974	1	15
434.145	1	25
434.315	1	5
434.486	1	7
434.656	1	19
434.827	1	12
434.997	1	11
435.168	1	20
435.339	1	18
435.509	1	18
435.680	1	23
435.850	1	16
436.021	1	11
436.191	1	15
436.362	1	14
436.532	1	12
436.703	1	11
436.873	1	15
437.044	1	1
437.214	1	11
437.385	1	16
437.556	1	11
437.726	1	24
437.897	1	20
438.067	1	9
438.238	1	14
438.408	1	15
438.579	1	20
438.749	1	15
438.920	1	11
439.090	1	14
439.261	1	7
439.431	1	7
439.602	1	10
439.772	1	8
439.943	1	17
440.113	1	16
440.284	1	15
440.455	1	12
440.625	1	16
440.796	1	14
440.966	1	18
441.137	1	12
441.307	1	2
441.478	1	9
441.648	1	11
441.819	1	9
441.989	1	9
442.160	1	20
442.330	1	11
442.501	1	13
442.671	1	6
442.842	1	3
443.012	1	7
443.183	1	15
443.353	1	8
443.524	1	13
443.694	1	21
443.865	1	12
444.035	1	22
444.206	1	10
444.376	1	13
444.547	1	23
444.717	1	10
444.888	1	9
445.058	1	17
445.229	1	12
445.399	1	8
445.570	1	16
445.740	1	11
445.911	1	7
446.081	1	10
446.252	1	18
446.422	1	2
446.593	1	8
446.763	1	10
446.934	1	11
447.104	1	5
447.275	1	9
447.445	1	15
447.616	1	18
447.786	1	6
447.957	1	7
448.127	1	4
448.298	1	19
448.468	1	2
448.639	1	11
448.809	1	17
448.979	1	11
449.150	1	15
449.320	1	13
449.491	1	10
449.661	1	9
449.832	1	8
450.002	1	17
450.173	1	10
450.343	1	14
450.514	1	2
450.684	1	17
450.855	1	5
451.025	1	13
451.196	1	15
451.366	1	17
451.537	1	10
451.707	1	5
451.878	1	13
452.048	1	21
452.218	1	23
452.389	1	23
452.559	1	0
452.730	1	28
452.900	1	10
453.071	1	-1
453.241	1	7
453.412	1	14
453.582	1	7
453.753	1	10
453.923	1	21
454.093	1	6
454.264	1	20
454.434	1	5
454.605	1	8
454.775	1	14
454.946	1	13
455.116	1	14
455.287	1	2
455.457	1	11
455.628	1	6
455.798	1	15
455.968	1	12
456.139	1	8
456.309	1	10
456.480	1	6
456.650	1	7
456.821	1	2
456.991	1	11
457.161	1	14
457.332	1	30
457.502	1	0
457.673	1	18
457.843	1	18
458.014	1	9
458.184	1	0
458.355	1	7
458.525	1	13
458.695	1	10
458.866	1	4
459.036	1	13
459.207	1	10
459.377	1	11
459.548	1	17
459.718	1	2
459.888	1	14
460.059	1	22
460.229	1	17
460.400	1	14
460.570	1	7
460.740	1	8
460.911	1	12
461.081	1	14
461.252	1	7
461.422	1	12
461.593	1	4
461.763	1	12
461.933	1	18
462.104	1	5
462.274	1	9
462.445	1	9
462.615	1	12
462.785	1	6
462.956	1	16
463.126	1	17
463.297	1	5
463.467	1	3
463.638	1	1
463.808	1	-2
463.978	1	-6
464.149	1	3
464.319	1	9
464.490	1	19
464.660	1	12
464.830	1	6
465.001	1	16
465.171	1	18
465.342	1	22
465.512	1	6
465.682	1	7
465.853	1	8
466.023	1	13
466.194	1	14
466.364	1	18
466.534	1	8
466.705	1	13
466.875	1	7
467.045	1	18
467.216	1	18
467.386	1	12
467.557	1	6
467.727	1	6
467.897	1	2
468.068	1	10
468.238	1	8
468.409	1	7
468.579	1	15
468.749	1	10
468.920	1	3
469.090	1	16
469.260	1	0
469.431	1	7
469.601	1	5
469.772	1	14
469.942	1	-3
470.112	1	15
470.283	1	-1
470.453	1	7
470.623	1	3
470.794	1	0
470.964	1	11
471.135	1	13
471.305	1	-5
471.475	1	8
471.646	1	9
471.816	1	4
471.986	1	11
472.157	1	18
472.327	1	6
472.497	1	3
472.668	1	0
472.838	1	3
473.009	1	15
473.179	1	9
473.349	1	5
473.520	1	19
473.690	1	7
473.860	1	5
474.031	1	10
474.201	1	16
474.371	1	17
474.542	1	16
474.712	1	9
474.882	1	7
475.053	1	9
475.223	1	1
475.394	1	17
475.564	1	7
475.734	1	13
475.905	1	23
476.075	1	3
476.245	1	10
476.416	1	10
476.586	1	15
476.756	1	6
476.927	1	15
477.097	1	9
477.267	1	3
477.438	1	10
477.608	1	6
477.778	1	13
477.949	1	14
478.119	1	17
478.289	1	19
478.460	1	17
478.630	1	12
478.800	1	9
478.971	1	8
479.141	1	5
479.311	1	-5
479.482	1	12
479.652	1	2
479.822	1	3
479.993	1	13
480.163	1	23
480.333	1	13
480.504	1	16
480.674	1	5
480.844	1	-8
481.015	1	4
481.185	1	8
481.355	1	13
481.525	1	11
481.696	1	10
481.866	1	10
482.036	1	7
482.207	1	2
482.377	1	5
482.547	1	9
482.718	1	10
482.888	1	6
483.058	1	12
483.229	1	5
483.399	1	-4
483.569	1	4
483.740	1	15
483.910	1	11
484.080	1	2
484.250	1	9
484.421	1	3
484.591	1	14
484.761	1	17
484.932	1	9
485.102	1	11
485.272	1	1
485.443	1	19
485.613	1	14
485.783	1	7
485.953	1	5
486.124	1	11
486.294	1	6
486.464	1	6
486.635	1	10
486.805	1	15
486.975	1	9
487.146	1	10
487.316	1	4
487.486	1	4
487.656	1	3
487.827	1	0
487.997	1	-8
488.167	1	6
488.338	1	14
488.508	1	5
488.678	1	9
488.848	1	15
489.019	1	1
489.189	1	10
489.359	1	9
489.529	1	6
489.700	1	5
489.870	1	18
490.040	1	-1
490.211	1	2
490.381	1	12
490.551	1	8
490.721	1	10
490.892	1	4
491.062	1	7
491.232	1	15
491.402	1	-1
491.573	1	-7
491.743	1	5
491.913	1	5
492.084	1	15
492.254	1	1
492.424	1	2
492.594	1	-3
492.765	1	4
492.935	1	5
493.105	1	14
493.275	1	9
493.446	1	20
493.616	1	11
493.786	1	5
493.956	1	8
494.127	1	-5
494.297	1	-8
494.467	1	5
494.637	1	2
494.808	1	1
494.978	1	6
495.148	1	6
495.318	1	3
495.489	1	3
495.659	1	9
495.829	1	-4
495.999	1	-5
496.170	1	6
496.340	1	5
496.510	1	8
496.680	1	3
496.851	1	8
497.021	1	11
497.191	1	3
497.361	1	16
497.532	1	-6
497.702	1	1
497.872	1	1
498.042	1	13
498.213	1	-5
498.383	1	13
498.553	1	2
498.723	1	-1
498.894	1	1
499.064	1	10
499.234	1	2
499.404	1	3
499.574	1	11
499.745	1	8
499.915	1	2
500.085	1	-2
500.255	1	17
500.426	1	8
500.596	1	0
500.766	1	1
500.936	1	0
501.106	1	9
501.277	1	11
501.447	1	8
501.617	1	5
501.787	1	3
501.958	1	-6
502.128	1	9
502.298	1	10
502.468	1	3
502.638	1	11
502.809	1	8
502.979	1	-2
503.149	1	-4
503.319	1	-1
503.489	1	3
503.660	1	8
503.830	1	3
504.000	1	20
504.170	1	1
504.340	1	5
504.511	1	10
504.681	1	-1
504.851	1	-2
505.021	1	6
505.192	1	-5
505.362	1	4
505.532	1	1
505.702	1	2
505.872	1	2
506.043	1	2
506.213	1	4
506.383	1	6
506.553	1	9
506.723	1	-3
506.893	1	7
507.064	1	10
507.234	1	-3
507.404	1	-3
507.574	1	14
507.744	1	4
507.915	1	7
508.085	1	8
508.255	1	8
508.425	1	3
508.595	1	5
508.766	1	2
508.936	1	-7
509.106	1	20
509.276	1	12
509.446	1	1
509.616	1	5
509.787	1	2
509.957	1	6
510.127	1	5
510.297	1	7
510.467	1	3
510.638	1	8
510.808	1	-5
510.978	1	-6
511.148	1	10
511.318	1	2
511.488	1	4
511.659	1	-1
511.829	1	-2
511.999	1	3
512.169	1	8
512.339	1	5
512.509	1	0
512.680	1	1
512.850	1	4
513.020	1	12
513.190	1	5
513.360	1	5
513.530	1	-9
513.700	1	12
513.871	1	1
514.041	1	-3
514.211	1	16
514.381	1	5
514.551	1	14
514.721	1	-1
514.892	1	10
515.062	1	-2
515.232	1	2
515.402	1	-8
515.572	1	-15
515.742	1	6
515.912	1	7
516.083	1	8
516.253	1	4
516.423	1	9
516.593	1	0
516.763	1	16
516.933	1	-10
517.104	1	4
517.274	1	1
517.444	1	0
517.614	1	-5
517.784	1	3
517.954	1	14
518.124	1	16
518.294	1	-1
518.465	1	-1
518.635	1	5
518.805	1	-5
518.975	1	1
519.145	1	5
519.315	1	7
519.485	1	-3
519.656	1	10
519.826	1	1
519.996	1	-4
520.166	1	8
520.336	1	9
520.506	1	1
520.676	1	-9
520.846	1	14
521.017	1	4
521.187	1	-10
521.357	1	11
521.527	1	-3
521.697	1	3
521.867	1	-7
522.037	1	10
522.207	1	13
522.377	1	1
522.548	1	-4
522.718	1	2
522.888	1	23
523.058	1	2
523.228	1	8
523.398	1	18
523.568	1	6
523.738	1	-5
523.909	1	11
524.079	1	7
524.249	1	9
524.419	1	5
524.589	1	8
524.759	1	-5
524.929	1	4
525.099	1	-1
525.269	1	14
525.439	1	2
525.610	1	11
525.780	1	2
525.950	1	1
526.120	1	0
526.290	1	8
526.460	1	1
526.630	1	12
526.800	1	6
526.970	1	-8
527.140	1	6
527.311	1	-2
527.481	1	0
527.651	1	9
527.821	1	-5
527.991	1	12
528.161	1	13
528.331	1	-6
528.501	1	6
528.671	1	-6
528.841	1	-1
529.011	1	-2
529.181	1	15
529.352	1	4
529.522	1	3
529.692	1	10
529.862	1	5
530.032	1	10
530.202	1	4
530.372	1	0
530.542	1	9
530.712	1	-7
530.882	1	7
531.052	1	5
531.222	1	7
531.392	1	-6
531.563	1	12
531.733	1	4
531.903	1	-3
532.073	1	17
532.243	1	4
532.413	1	14
532.583	1	4
532.753	1	-4
532.923	1	-3
533.093	1	4
533.263	1	0
533.433	1	7
533.603	1	9
533.773	1	10
533.943	1	9
534.113	1	1
534.284	1	4
534.454	1	10
534.624	1	14
534.794	1	2
534.964	1	9
535.134	1	10
535.304	1	1
535.474	1	8
535.644	1	-14
535.814	1	-5
535.984	1	2
536.154	1	-16
536.324	1	-6
536.494	1	4
536.664	1	1
536.834	1	-3
537.004	1	6
537.174	1	10
537.344	1	4
537.514	1	-8
537.685	1	-6
537.855	1	9
538.025	1	8
538.195	1	1
538.365	1	6
538.535	1	3
538.705	1	2
538.875	1	8
539.045	1	4
539.215	1	-5
539.385	1	5
539.555	1	7
539.725	1	-1
539.895	1	-4
540.065	1	12
540.235	1	8
540.405	1	-3
540.575	1	4
540.745	1	6
540.915	1	17
541.085	1	1
541.255	1	-2
541.425	1	0
541.595	1	10
541.765	1	6
541.935	1	-1
542.105	1	-4
542.275	1	-9
542.445	1	-4
542.615	1	5
542.785	1	5
542.955	1	-5
543.125	1	-6
543.295	1	7
543.465	1	7
543.635	1	-1
543.805	1	16
543.975	1	-5
544.145	1	3
544.315	1	6
544.485	1	7
544.655	1	7
544.825	1	-12
544.995	1	2
545.165	1	-8
545.335	1	2
545.505	1	-9
545.675	1	13
545.845	1	1
546.015	1	1
546.185	1	14
546.355	1	6
546.525	1	6
546.695	1	6
546.865	1	2
547.035	1	-1
547.205	1	-4
547.375	1	11
547.545	1	4
547.715	1	-2
547.885	1	1
548.055	1	6
548.225	1	12
548.395	1	-2
548.565	1	7
548.735	1	5
548.905	1	6
549.075	1	-1
549.245	1	0
549.415	1	-1
549.585	1	10
549.755	1	3
549.925	1	-2
550.095	1	7
550.265	1	-7
550.435	1	4
550.605	1	-3
550.775	1	0
550.945	1	15
551.115	1	1
551.285	1	4
551.455	1	-5
551.625	1	12
551.795	1	15
551.965	1	-6
552.135	1	2
552.305	1	-6
552.475	1	-5
552.645	1	-4
552.815	1	-5
552.985	1	2
553.155	1	3
553.325	1	-6
553.495	1	2
553.665	1	0
553.835	1	0
554.004	1	-6
554.174	1	-3
554.344	1	2
554.514	1	0
554.684	1	-4
554.854	1	13
555.024	1	-2
555.194	1	1
555.364	1	4
555.534	1	7
555.704	1	3
555.874	1	8
556.044	1	-3
556.214	1	-5
556.384	1	6
556.554	1	-1
556.724	1	5
556.894	1	5
557.064	1	8
557.234	1	0
557.404	1	7
557.573	1	5
557.743	1	3
557.913	1	-5
558.083	1	-5
558.253	1	11
558.423	1	2
558.593	1	5
558.763	1	-1
558.933	1	7
559.103	1	11
559.273	1	4
559.443	1	7
559.613	1	-2
559.783	1	6
559.953	1	5
560.122	1	5
560.292	1	7
560.462	1	6
560.632	1	5
560.802	1	1
560.972	1	3
561.142	1	2
561.312	1	-7
561.482	1	17
561.652	1	3
561.822	1	-3
561.992	1	-2
562.162	1	2
562.331	1	0
562.501	1	-6
562.671	1	0
562.841	1	-1
563.011	1	12
563.181	1	-4
563.351	1	-5
563.521	1	8
563.691	1	-8
563.861	1	2
564.031	1	9
564.201	1	3
564.370	1	-3
564.540	1	2
564.710	1	5
564.880	1	17
565.050	1	7
565.220	1	-6
565.390	1	-5
565.560	1	15
565.730	1	3
565.900	1	4
566.069	1	2
566.239	1	3
566.409	1	4
566.579	1	0
566.749	1	-3
566.919	1	18
567.089	1	7
567.259	1	15
567.429	1	4
567.599	1	-1
567.768	1	3
567.938	1	-1
568.108	1	0
568.278	1	5
568.448	1	0
568.618	1	-9
568.788	1	8
568.958	1	-6
569.128	1	3
569.297	1	-5
569.467	1	-10
569.637	1	10
569.807	1	6
569.977	1	0
570.147	1	15
570.317	1	-2
570.487	1	5
570.656	1	7
570.826	1	-5
570.996	1	-12
571.166	1	5
571.336	1	7
571.506	1	3
571.676	1	-1
571.846	1	6
572.015	1	13
572.185	1	-6
572.355	1	0
572.525	1	-3
572.695	1	-9
572.865	1	4
573.035	1	-2
573.205	1	4
573.374	1	0
573.544	1	-3
573.714	1	11
573.884	1	11
574.054	1	-3
574.224	1	2
574.394	1	-3
574.563	1	0
574.733	1	7
574.903	1	3
575.073	1	4
575.243	1	-3
575.413	1	7
575.583	1	-1
575.752	1	9
575.922	1	-2
576.092	1	-1
576.262	1	1
576.432	1	-2
576.602	1	2
576.772	1	18
576.941	1	7
577.111	1	-7
577.281	1	-9
577.451	1	-3
577.621	1	2
577.791	1	6
577.960	1	2
578.130	1	1
578.300	1	-5
578.470	1	9
578.640	1	9
578.810	1	-9
578.979	1	6
579.149	1	-16
579.319	1	-6
579.489	1	6
579.659	1	3
579.829	1	6
579.998	1	16
580.168	1	9
580.338	1	4
580.508	1	1
580.678	1	-1
580.848	1	-4
581.017	1	0
581.187	1	3
581.357	1	-6
581.527	1	5
581.697	1	13
581.867	1	9
582.036	1	1
582.206	1	9
582.376	1	6
582.546	1	2
582.716	1	-4
582.885	1	-6
583.055	1	8
583.225	1	-10
583.395	1	4
583.565	1	-4
583.735	1	2
583.904	1	10
584.074	1	7
584.244	1	7
584.414	1	0
584.584	1	8
584.753	1	-4
584.923	1	1
585.093	1	8
585.263	1	1
585.433	1	3
585.602	1	-3
585.772	1	3
585.942	1	-5
586.112	1	4
586.282	1	-1
586.451	1	-5
586.621	1	0
586.791	1	6
586.961	1	-3
587.131	1	-1
587.300	1	4
587.470	1	9
587.640	1	8
587.810	1	1
587.980	1	-1
588.149	1	8
588.319	1	-6
588.489	1	3
588.659	1	2
588.829	1	10
588.998	1	2
589.168	1	5
589.338	1	3
589.508	1	5
589.677	1	-7
589.847	1	-7
590.017	1	21
590.187	1	-2
590.357	1	15
590.526	1	15
590.696	1	6
590.866	1	5
591.036	1	-4
591.205	1	7
591.375	1	-5
591.545	1	0
591.715	1	-4
591.885	1	-4
592.054	1	3
592.224	1	4
592.394	1	3
592.564	1	4
592.733	1	8
592.903	1	1
593.073	1	2
593.243	1	-3
593.412	1	11
593.582	1	-4
593.752	1	-3
593.922	1	3
594.091	1	0
594.261	1	5
594.431	1	7
594.601	1	12
594.771	1	-2
594.940	1	-7
595.110	1	-8
595.280	1	-4
595.450	1	1
595.619	1	3
595.789	1	-3
595.959	1	11
596.129	1	0
596.298	1	2
596.468	1	7
596.638	1	2
596.808	1	2
596.977	1	5
597.147	1	4
597.317	1	1
597.487	1	7
597.656	1	3
597.826	1	5
597.996	1	-1
598.166	1	2
598.335	1	-11
598.505	1	6
598.675	1	1
598.844	1	-6
599.014	1	-1
599.184	1	5
599.354	1	-5
599.523	1	5
599.693	1	-2
599.863	1	5
600.033	1	3
600.202	1	-1
600.372	1	0
600.542	1	10
600.712	1	-10
600.881	1	-1
601.051	1	16
601.221	1	5
601.390	1	-1
601.560	1	5
601.730	1	9
601.900	1	-1
602.069	1	7
602.239	1	1
602.409	1	-5
602.578	1	0
602.748	1	12
602.918	1	12
603.088	1	7
603.257	1	8
603.427	1	-5
603.597	1	3
603.767	1	7
603.936	1	6
604.106	1	0
604.276	1	1
604.445	1	10
604.615	1	3
604.785	1	2
604.954	1	-2
605.124	1	1
605.294	1	-5
605.464	1	-1
605.633	1	8
605.803	1	4
605.973	1	-10
606.142	1	6
606.312	1	6
606.482	1	4
606.652	1	11
606.821	1	0
606.991	1	4
607.161	1	6
607.330	1	5
607.500	1	0
607.670	1	-6
607.839	1	12
608.009	1	17
608.179	1	6
608.348	1	-7
608.518	1	-7
608.688	1	5
608.858	1	-2
609.027	1	-6
609.197	1	-3
609.367	1	8
609.536	1	6
609.706	1	0
609.876	1	-3
610.045	1	3
610.215	1	4
610.385	1	5
610.554	1	-1
610.724	1	9
610.894	1	-5
611.063	1	5
611.233	1	-8
611.403	1	1
611.572	1	-3
611.742	1	2
611.912	1	1
612.081	1	2
612.251	1	6
612.421	1	2
612.590	1	-2
612.760	1	3
612.930	1	6
613.099	1	6
613.269	1	12
613.439	1	2
613.608	1	3
613.778	1	3
613.948	1	7
614.117	1	1
614.287	1	12
614.457	1	6
614.626	1	0
614.796	1	3
614.966	1	-4
615.135	1	-1
615.305	1	10
615.475	1	-5
615.644	1	0
615.814	1	0
615.984	1	-4
616.153	1	5
616.323	1	5
616.493	1	3
616.662	1	3
616.832	1	7
617.002	1	1
617.171	1	1
617.341	1	-2
617.511	1	-6
617.680	1	-8
617.850	1	6
618.019	1	16
618.189	1	11
618.359	1	2
618.528	1	10
618.698	1	4
618.868	1	3
619.037	1	3
619.207	1	0
619.377	1	-7
619.546	1	-4
619.716	1	-9
619.885	1	0
620.055	1	-3
620.225	1	3
620.394	1	3
620.564	1	13
620.734	1	7
620.903	1	0
621.073	1	19
621.242	1	5
621.412	1	2
621.582	1	6
621.751	1	3
621.921	1	8
622.091	1	5
622.260	1	12
622.430	1	10
622.599	1	-7
622.769	1	4
622.939	1	12
623.108	1	4
623.278	1	3
623.448	1	9
623.617	1	-6
623.787	1	-6
623.956	1	5
624.126	1	1
624.296	1	-3
624.465	1	1
624.635	1	13
624.804	1	4
624.974	1	7
625.144	1	1
625.313	1	1
625.483	1	-9
625.652	1	-5
625.822	1	5
625.992	1	-4
626.161	1	12
626.331	1	1
626.501	1	6
626.670	1	0
626.840	1	0
627.009	1	3
627.179	1	17
627.348	1	12
627.518	1	5
627.688	1	0
627.857	1	12
628.027	1	-7
628.196	1	3
628.366	1	9
628.536	1	7
628.705	1	3
628.875	1	-3
629.044	1	-4
629.214	1	-3
629.384	1	1
629.553	1	10
629.723	1	-3
629.892	1	4
630.062	1	-1
630.232	1	0
630.401	1	9
630.571	1	2
630.740	1	7
630.910	1	8
631.079	1	4
631.249	1	10
631.419	1	5
631.588	1	-10
631.758	1	8
631.927	1	-2
632.097	1	2
632.266	1	-2
632.436	1	4
632.606	1	0
632.775	1	-3
632.945	1	10
633.114	1	4
633.284	1	11
633.453	1	0
633.623	1	10
633.793	1	1
633.962	1	7
634.132	1	1
634.301	1	-3
634.471	1	8
634.640	1	6
634.810	1	10
634.979	1	6
635.149	1	3
635.319	1	1
635.488	1	10
635.658	1	10
635.827	1	-11
635.997	1	13
636.166	1	3
636.336	1	-2
636.505	1	13
636.675	1	-1
636.845	1	7
637.014	1	9
637.184	1	6
637.353	1	4
637.523	1	7
637.692	1	5
637.862	1	1
638.031	1	0
638.201	1	0
638.370	1	3
638.540	1	9
638.710	1	1
638.879	1	-9
639.049	1	-5
639.218	1	3
639.388	1	-1
639.557	1	0
639.727	1	4
639.896	1	12
640.066	1	-5
640.235	1	-1
640.405	1	6
640.574	1	1
640.744	1	-5
640.914	1	11
641.083	1	3
641.253	1	3
641.422	1	0
641.592	1	13
641.761	1	2
641.931	1	0
642.100	1	20
642.270	1	-5
642.439	1	9
642.609	1	2
642.778	1	1
642.948	1	2
643.117	1	3
643.287	1	1
643.456	1	-1
643.626	1	22
643.795	1	3
643.965	1	11
644.134	1	-9
644.304	1	-4
644.473	1	7
644.643	1	3
644.812	1	7
644.982	1	5
645.151	1	5
645.321	1	-8
645.490	1	16
645.660	1	-1
645.829	1	-5
645.999	1	-8
646.168	1	6
646.338	1	9
646.507	1	0
646.677	1	-1
646.846	1	-3
647.016	1	-4
647.185	1	7
647.355	1	-1
647.524	1	9
647.694	1	9
647.863	1	3
648.033	1	0
648.202	1	4
648.372	1	-1
648.541	1	6
648.711	1	9
648.880	1	4
649.050	1	-1
649.219	1	0
649.389	1	16
649.558	1	4
649.728	1	7
649.897	1	-8
650.067	1	-6
650.236	1	4
650.406	1	10
650.575	1	2
650.745	1	11
650.914	1	0
651.084	1	3
651.253	1	6
651.423	1	2
651.592	1	2
651.762	1	-5
651.931	1	4
652.101	1	3
652.270	1	6
652.440	1	6
652.609	1	1
652.778	1	6
652.948	1	2
653.117	1	2
653.287	1	0
653.456	1	9
653.626	1	1
653.795	1	-2
653.965	1	2
654.134	1	5
654.304	1	-19
654.473	1	9
654.643	1	11
654.812	1	-1
654.982	1	8
655.151	1	2
655.320	1	4
655.490	1	9
655.659	1	1
655.829	1	6
655.998	1	-1
656.168	1	5
656.337	1	-4
656.507	1	0
656.676	1	10
656.846	1	2
657.015	1	11
657.184	1	9
657.354	1	9
657.523	1	5
657.693	1	-1
657.862	1	7
658.032	1	-3
658.201	1	4
658.371	1	10
658.540	1	1
658.709	1	-4
658.879	1	4
659.048	1	-1
659.218	1	5
659.387	1	0
659.557	1	12
659.726	1	16
659.895	1	-2
660.065	1	0
660.234	1	0
660.404	1	12
660.573	1	8
660.743	1	3
660.912	1	1
661.081	1	8
661.251	1	-1
661.420	1	7
661.590	1	16
661.759	1	0
661.929	1	5
662.098	1	6
662.267	1	1
662.437	1	9
662.606	1	-1
662.776	1	11
662.945	1	8
663.115	1	5
663.284	1	0
663.453	1	7
663.623	1	0
663.792	1	0
663.962	1	-2
664.131	1	7
664.300	1	10
664.470	1	-1
664.639	1	8
664.809	1	8
664.978	1	14
665.148	1	3
665.317	1	-3
665.486	1	4
665.656	1	2
665.825	1	14
665.995	1	-8
666.164	1	6
666.333	1	5
666.503	1	-2
666.672	1	-6
666.842	1	2
667.011	1	4
667.180	1	4
667.350	1	-4
667.519	1	8
667.689	1	8
667.858	1	3
668.027	1	10
668.197	1	4
668.366	1	-11
668.536	1	1
668.705	1	8
668.874	1	12
669.044	1	-6
669.213	1	8
669.382	1	-1
669.552	1	7
669.721	1	10
669.891	1	10
670.060	1	3
670.229	1	5
670.399	1	-6
670.568	1	25
670.738	1	15
670.907	1	-9
671.076	1	-2
671.246	1	2
671.415	1	-3
671.584	1	4
671.754	1	3
671.923	1	5
672.093	1	4
672.262	1	-4
672.431	1	6
672.601	1	-1
672.770	1	-3
672.939	1	9
673.109	1	7
673.278	1	11
673.448	1	4
673.617	1	0
673.786	1	8
