325.333	1	6
325.504	1	-1
325.675	1	6
325.846	1	-7
326.017	1	1
326.188	1	-1
326.359	1	-13
326.531	1	-14
326.702	1	-6
326.873	1	10
327.044	1	-13
327.215	1	0
327.386	1	1
327.557	1	-9
327.728	1	-4
327.899	1	4
328.070	1	14
328.241	1	0
328.412	1	-10
328.583	1	2
328.754	1	5
328.926	1	2
329.097	1	-3
329.268	1	0
329.439	1	-4
329.610	1	1
329.781	1	-5
329.952	1	2
330.123	1	0
330.294	1	0
330.465	1	-4
330.636	1	3
330.807	1	-1
330.978	1	-4
331.149	1	-1
331.320	1	-4
331.492	1	16
331.663	1	0
331.834	1	9
332.005	1	0
332.176	1	8
332.347	1	6
332.518	1	-5
332.689	1	1
332.860	1	1
333.031	1	3
333.202	1	-2
333.373	1	0
333.544	1	-1
333.715	1	4
333.886	1	-2
334.057	1	1
334.228	1	-10
334.399	1	-6
334.570	1	8
334.741	1	-3
334.912	1	-10
335.084	1	13
335.255	1	0
335.426	1	-6
335.597	1	-6
335.768	1	1
335.939	1	2
336.110	1	-7
336.281	1	-11
336.452	1	-9
336.623	1	9
336.794	1	9
336.965	1	2
337.136	1	1
337.307	1	-7
337.478	1	-6
337.649	1	2
337.820	1	2
337.991	1	-3
338.162	1	-4
338.333	1	-2
338.504	1	5
338.675	1	-5
338.846	1	8
339.017	1	4
339.188	1	-1
339.359	1	6
339.530	1	-1
339.701	1	-12
339.872	1	7
340.043	1	-6
340.214	1	-11
340.385	1	1
340.556	1	-10
340.727	1	3
340.898	1	10
341.069	1	7
341.240	1	2
341.411	1	9
341.582	1	-5
341.753	1	-5
341.924	1	-5
342.095	1	-4
342.266	1	-2
342.437	1	6
342.608	1	-12
342.779	1	-2
342.950	1	9
343.121	1	8
343.292	1	-5
343.463	1	-1
343.634	1	-9
343.805	1	3
343.976	1	11
344.147	1	-14
344.318	1	-6
344.489	1	-11
344.660	1	9
344.831	1	-5
345.002	1	-6
345.173	1	8
345.344	1	-8
345.515	1	6
345.686	1	2
345.857	1	-2
346.028	1	-4
346.199	1	-6
346.370	1	-3
346.541	1	-2
346.712	1	-6
346.883	1	2
347.054	1	-11
347.225	1	-2
347.396	1	-6
347.567	1	-6
347.738	1	-17
347.909	1	9
348.080	1	-12
348.251	1	4
348.422	1	-4
348.593	1	-5
348.764	1	1
348.935	1	7
349.106	1	-10
349.277	1	0
349.448	1	-3
349.619	1	-2
349.790	1	-2
349.961	1	0
350.132	1	3
350.303	1	-3
350.474	1	5
350.645	1	3
350.816	1	-4
350.987	1	11
351.157	1	-8
351.328	1	4
351.499	1	2
351.670	1	-5
351.841	1	8
352.012	1	2
352.183	1	1
352.354	1	9
352.525	1	6
352.696	1	1
352.867	1	5
353.038	1	3
353.209	1	3
353.380	1	-1
353.551	1	-4
353.722	1	1
353.893	1	-2
354.064	1	5
354.235	1	0
354.406	1	-8
354.576	1	-9
354.747	1	3
354.918	1	5
355.089	1	-5
355.260	1	-2
355.431	1	7
355.602	1	-7
355.773	1	6
355.944	1	12
356.115	1	-7
356.286	1	-8
356.457	1	-3
356.628	1	1
356.799	1	6
356.970	1	11
357.141	1	-3
357.311	1	-6
357.482	1	-2
357.653	1	-8
357.824	1	15
357.995	1	-4
358.166	1	-12
358.337	1	-1
358.508	1	-4
358.679	1	4
358.850	1	6
359.021	1	-2
359.192	1	0
359.363	1	-6
359.533	1	0
359.704	1	-15
359.875	1	-4
360.046	1	2
360.217	1	-13
360.388	1	-6
360.559	1	3
360.730	1	-1
360.901	1	4
361.072	1	9
361.243	1	0
361.414	1	-2
361.584	1	2
361.755	1	-4
361.926	1	-2
362.097	1	-6
362.268	1	-1
362.439	1	-9
362.610	1	3
362.781	1	-1
362.952	1	-9
363.123	1	-2
363.293	1	-3
363.464	1	1
363.635	1	1
363.806	1	-2
363.977	1	-5
364.148	1	-2
364.319	1	5
364.490	1	-1
364.661	1	-4
364.832	1	9
365.002	1	-3
365.173	1	5
365.344	1	5
365.515	1	-4
365.686	1	-3
365.857	1	2
366.028	1	9
366.199	1	0
366.370	1	5
366.540	1	-4
366.711	1	-15
366.882	1	-6
367.053	1	-5
367.224	1	13
367.395	1	1
367.566	1	8
367.737	1	3
367.908	1	7
368.078	1	3
368.249	1	4
368.420	1	-5
368.591	1	-6
368.762	1	5
368.933	1	-5
369.104	1	-7
369.274	1	0
369.445	1	-1
369.616	1	-3
369.787	1	-6
369.958	1	10
370.129	1	-10
370.300	1	2
370.471	1	1
370.641	1	-3
370.812	1	0
370.983	1	-1
371.154	1	-3
371.325	1	5
371.496	1	6
371.667	1	13
371.837	1	-6
372.008	1	-4
372.179	1	-14
372.350	1	16
372.521	1	-4
372.692	1	6
372.863	1	-9
373.033	1	-5
373.204	1	-3
373.375	1	5
373.546	1	0
373.717	1	5
373.888	1	11
374.059	1	5
374.229	1	5
374.400	1	-1
374.571	1	4
374.742	1	0
374.913	1	8
375.084	1	0
375.254	1	-6
375.425	1	0
375.596	1	7
375.767	1	-3
375.938	1	3
376.109	1	9
376.279	1	-5
376.450	1	11
376.621	1	3
376.792	1	1
376.963	1	-1
377.134	1	2
377.304	1	1
377.475	1	-4
377.646	1	-7
377.817	1	4
377.988	1	-4
378.159	1	1
378.329	1	7
378.500	1	-2
378.671	1	4
378.842	1	-6
379.013	1	-7
379.184	1	1
379.354	1	0
379.525	1	-12
379.696	1	7
379.867	1	0
380.038	1	-1
380.209	1	-5
380.379	1	-7
380.550	1	-6
380.721	1	4
380.892	1	3
381.063	1	-6
381.233	1	0
381.404	1	-5
381.575	1	5
381.746	1	-2
381.917	1	7
382.087	1	8
382.258	1	-7
382.429	1	0
382.600	1	-1
382.771	1	-6
382.941	1	-6
383.112	1	1
383.283	1	4
383.454	1	-1
383.625	1	-9
383.795	1	7
383.966	1	6
384.137	1	7
384.308	1	5
384.479	1	12
384.649	1	10
384.820	1	-1
384.991	1	-9
385.162	1	2
385.333	1	-2
385.503	1	-11
385.674	1	-9
385.845	1	14
386.016	1	8
386.187	1	-1
386.357	1	9
386.528	1	2
386.699	1	-3
386.870	1	3
387.041	1	1
387.211	1	8
387.382	1	-2
387.553	1	0
387.724	1	-7
387.894	1	0
388.065	1	-2
388.236	1	4
388.407	1	-2
388.578	1	-8
388.748	1	0
388.919	1	3
389.090	1	-7
389.261	1	-3
389.431	1	-1
389.602	1	1
389.773	1	2
389.944	1	-3
390.114	1	-4
390.285	1	-2
390.456	1	-7
390.627	1	2
390.798	1	0
390.968	1	-5
391.139	1	5
391.310	1	-4
391.481	1	2
391.651	1	0
391.822	1	-4
391.993	1	-7
392.164	1	-1
392.334	1	-1
392.505	1	-2
392.676	1	-1
392.847	1	7
393.017	1	10
393.188	1	-1
393.359	1	0
393.530	1	0
393.700	1	-6
393.871	1	1
394.042	1	-2
394.213	1	-4
394.383	1	-1
394.554	1	8
394.725	1	1
394.896	1	0
395.066	1	0
395.237	1	-7
395.408	1	-2
395.579	1	0
395.749	1	-2
395.920	1	1
396.091	1	6
396.262	1	-12
396.432	1	3
396.603	1	-1
396.774	1	-1
396.945	1	-5
397.115	1	-4
397.286	1	3
397.457	1	-2
397.627	1	-2
397.798	1	4
397.969	1	-4
398.140	1	-5
398.310	1	-5
398.481	1	3
398.652	1	-4
398.823	1	-15
398.993	1	-8
399.164	1	-3
399.335	1	3
399.505	1	-2
399.676	1	6
399.847	1	0
400.018	1	-7
400.188	1	2
400.359	1	6
400.530	1	-11
400.700	1	1
400.871	1	-5
401.042	1	-3
401.213	1	1
401.383	1	12
401.554	1	8
401.725	1	3
401.895	1	-9
402.066	1	-1
402.237	1	3
402.408	1	-1
402.578	1	6
402.749	1	1
402.920	1	-1
403.090	1	-9
403.261	1	-9
403.432	1	2
403.603	1	2
403.773	1	6
403.944	1	2
404.115	1	13
404.285	1	6
404.456	1	-5
404.627	1	-1
404.797	1	-6
404.968	1	-13
405.139	1	-5
405.310	1	7
405.480	1	2
405.651	1	0
405.822	1	-1
405.992	1	-11
406.163	1	0
406.334	1	-9
406.504	1	-5
406.675	1	11
406.846	1	1
407.016	1	2
407.187	1	8
407.358	1	-6
407.528	1	-10
407.699	1	-4
407.870	1	-2
408.041	1	-10
408.211	1	8
408.382	1	-10
408.553	1	-13
408.723	1	-5
408.894	1	-3
409.065	1	2
409.235	1	7
409.406	1	2
409.577	1	-3
409.747	1	4
409.918	1	-10
410.089	1	-9
410.259	1	-1
410.430	1	-5
410.601	1	-5
410.771	1	5
410.942	1	13
411.113	1	0
411.283	1	-8
411.454	1	-2
411.625	1	0
411.795	1	-2
411.966	1	0
412.137	1	-1
412.307	1	-1
412.478	1	3
412.649	1	8
412.819	1	-3
412.990	1	-8
413.161	1	3
413.331	1	-3
413.502	1	-3
413.672	1	-1
413.843	1	-5
414.014	1	-4
414.184	1	10
414.355	1	1
414.526	1	12
414.696	1	2
414.867	1	2
415.038	1	-10
415.208	1	-4
415.379	1	8
415.550	1	11
415.720	1	3
415.891	1	9
416.062	1	13
416.232	1	0
416.403	1	8
416.573	1	1
416.744	1	-2
416.915	1	6
417.085	1	-1
417.256	1	-6
417.427	1	7
417.597	1	10
417.768	1	-10
417.939	1	-1
418.109	1	4
418.280	1	1
418.450	1	-6
418.621	1	-8
418.792	1	2
418.962	1	2
419.133	1	-2
419.304	1	-5
419.474	1	-10
419.645	1	-7
419.815	1	-7
419.986	1	-3
420.157	1	-3
420.327	1	1
420.498	1	7
420.669	1	-4
420.839	1	10
421.010	1	10
421.180	1	9
421.351	1	5
421.522	1	2
421.692	1	1
421.863	1	3
422.033	1	9
422.204	1	4
422.375	1	-10
422.545	1	8
422.716	1	7
422.886	1	1
423.057	1	3
423.228	1	2
423.398	1	-6
423.569	1	9
423.740	1	-16
423.910	1	-9
424.081	1	-9
424.251	1	1
424.422	1	10
424.593	1	-6
424.763	1	4
424.934	1	5
425.104	1	0
425.275	1	3
425.445	1	-5
425.616	1	-5
425.787	1	-12
425.957	1	4
426.128	1	3
426.298	1	-5
426.469	1	-3
426.640	1	-2
426.810	1	0
426.981	1	-2
427.151	1	-10
427.322	1	-4
427.493	1	3
427.663	1	-3
427.834	1	1
428.004	1	5
428.175	1	1
428.345	1	0
428.516	1	-7
428.687	1	2
428.857	1	-3
429.028	1	6
429.198	1	-4
429.369	1	3
429.540	1	-4
429.710	1	-15
429.881	1	4
430.051	1	3
430.222	1	-3
430.392	1	2
430.563	1	2
430.734	1	7
430.904	1	4
431.075	1	-3
431.245	1	-3
431.416	1	6
431.586	1	-5
431.757	1	-9
431.927	1	2
432.098	1	1
432.269	1	1
432.439	1	-1
432.610	1	-3
432.780	1	9
432.951	1	1
433.121	1	4
433.292	1	10
433.462	1	9
433.633	1	0
433.804	1	-6
433.974	1	-3
434.145	1	10
434.315	1	0
434.486	1	-5
434.656	1	3
434.827	1	5
434.997	1	-5
435.168	1	6
435.339	1	10
435.509	1	4
435.680	1	-3
435.850	1	-10
436.021	1	-4
436.191	1	-11
436.362	1	4
436.532	1	10
436.703	1	-1
436.873	1	-2
437.044	1	-7
437.214	1	4
437.385	1	0
437.556	1	2
437.726	1	13
437.897	1	1
438.067	1	-4
438.238	1	-5
438.408	1	6
438.579	1	-9
438.749	1	-2
438.920	1	1
439.090	1	3
439.261	1	0
439.431	1	-6
439.602	1	2
439.772	1	0
439.943	1	5
440.113	1	9
440.284	1	9
440.455	1	-6
440.625	1	5
440.796	1	4
440.966	1	-13
441.137	1	-7
441.307	1	-2
441.478	1	12
441.648	1	7
441.819	1	7
441.989	1	-2
442.160	1	5
442.330	1	9
442.501	1	-11
442.671	1	-8
442.842	1	-12
443.012	1	-4
443.183	1	5
443.353	1	-4
443.524	1	-1
443.694	1	8
443.865	1	-6
444.035	1	-6
444.206	1	2
444.376	1	-5
444.547	1	7
444.717	1	0
444.888	1	-3
445.058	1	-1
445.229	1	-4
445.399	1	-4
445.570	1	-2
445.740	1	-13
445.911	1	2
446.081	1	-14
446.252	1	4
446.422	1	-5
446.593	1	-7
446.763	1	-2
446.934	1	2
447.104	1	-9
447.275	1	3
447.445	1	-5
447.616	1	5
447.786	1	-1
447.957	1	3
448.127	1	-2
448.298	1	10
448.468	1	-4
448.639	1	2
448.809	1	2
448.979	1	3
449.150	1	4
449.320	1	4
449.491	1	-3
449.661	1	1
449.832	1	-1
450.002	1	9
450.173	1	1
450.343	1	0
450.514	1	4
450.684	1	-7
450.855	1	-1
451.025	1	2
451.196	1	-8
451.366	1	0
451.537	1	4
451.707	1	-4
451.878	1	5
452.048	1	15
452.218	1	8
452.389	1	2
452.559	1	-1
452.730	1	4
452.900	1	3
453.071	1	-14
453.241	1	-7
453.412	1	-1
453.582	1	0
453.753	1	3
453.923	1	6
454.093	1	7
454.264	1	10
454.434	1	-4
454.605	1	-1
454.775	1	3
454.946	1	1
455.116	1	3
455.287	1	-5
455.457	1	-2
455.628	1	-6
455.798	1	7
455.968	1	5
456.139	1	-12
456.309	1	5
456.480	1	-6
456.650	1	-5
456.821	1	-6
456.991	1	-5
457.161	1	-5
457.332	1	10
457.502	1	-19
457.673	1	2
457.843	1	-1
458.014	1	9
458.184	1	1
458.355	1	0
458.525	1	-5
458.695	1	-4
458.866	1	3
459.036	1	6
459.207	1	0
459.377	1	-6
459.548	1	13
459.718	1	-6
459.888	1	9
460.059	1	3
460.229	1	-2
460.400	1	1
460.570	1	6
460.740	1	-2
460.911	1	2
461.081	1	5
461.252	1	-1
461.422	1	5
461.593	1	-9
461.763	1	3
461.933	1	8
462.104	1	-11
462.274	1	4
462.445	1	5
462.615	1	1
462.785	1	-2
462.956	1	-4
463.126	1	2
463.297	1	-6
463.467	1	-2
463.638	1	-3
463.808	1	-13
463.978	1	-8
464.149	1	-8
464.319	1	-4
464.490	1	7
464.660	1	-6
464.830	1	6
465.001	1	0
465.171	1	-3
465.342	1	3
465.512	1	-5
465.682	1	-6
465.853	1	12
466.023	1	-2
466.194	1	-1
466.364	1	-3
466.534	1	6
466.705	1	-6
466.875	1	-2
467.045	1	-7
467.216	1	10
467.386	1	-1
467.557	1	1
467.727	1	-6
467.897	1	-5
468.068	1	2
468.238	1	-5
468.409	1	-2
468.579	1	2
468.749	1	-2
468.920	1	-8
469.090	1	6
469.260	1	-4
469.431	1	-2
469.601	1	6
469.772	1	5
469.942	1	-7
470.112	1	-2
470.283	1	0
470.453	1	8
470.623	1	-5
470.794	1	-4
470.964	1	-1
471.135	1	5
471.305	1	-12
471.475	1	-2
471.646	1	-7
471.816	1	-6
471.986	1	0
472.157	1	6
472.327	1	-10
472.497	1	8
472.668	1	-10
472.838	1	4
473.009	1	7
473.179	1	-5
473.349	1	-11
473.520	1	2
473.690	1	4
473.860	1	-6
474.031	1	-5
474.201	1	1
474.371	1	8
474.542	1	3
474.712	1	8
474.882	1	3
475.053	1	4
475.223	1	-8
475.394	1	7
475.564	1	0
475.734	1	3
475.905	1	17
476.075	1	-4
476.245	1	7
476.416	1	1
476.586	1	1
476.756	1	2
476.927	1	-1
477.097	1	5
477.267	1	-7
477.438	1	-8
477.608	1	-6
477.778	1	7
477.949	1	-8
478.119	1	6
478.289	1	13
478.460	1	5
478.630	1	5
478.800	1	2
478.971	1	-6
479.141	1	-8
479.311	1	-9
479.482	1	-1
479.652	1	-3
479.822	1	4
479.993	1	-1
480.163	1	5
480.333	1	0
480.504	1	-4
480.674	1	-1
480.844	1	-4
481.015	1	1
481.185	1	6
481.355	1	-1
481.525	1	-5
481.696	1	2
481.866	1	0
482.036	1	1
482.207	1	-6
482.377	1	-3
482.547	1	10
482.718	1	-10
482.888	1	0
483.058	1	-3
483.229	1	-3
483.399	1	4
483.569	1	4
483.740	1	5
483.910	1	1
484.080	1	-10
484.250	1	0
484.421	1	5
484.591	1	0
484.761	1	8
484.932	1	3
485.102	1	4
485.272	1	9
485.443	1	12
485.613	1	-3
485.783	1	-3
485.953	1	2
486.124	1	-7
486.294	1	7
486.464	1	2
486.635	1	6
486.805	1	7
486.975	1	-3
487.146	1	0
487.316	1	2
487.486	1	6
487.656	1	-8
487.827	1	4
487.997	1	-14
488.167	1	-12
488.338	1	9
488.508	1	-6
488.678	1	1
488.848	1	12
489.019	1	-5
489.189	1	2
489.359	1	-6
489.529	1	-3
489.700	1	3
489.870	1	8
490.040	1	-8
490.211	1	-4
490.381	1	-3
490.551	1	-4
490.721	1	6
490.892	1	-8
491.062	1	-2
491.232	1	9
491.402	1	-12
491.573	1	-8
491.743	1	2
491.913	1	3
492.084	1	7
492.254	1	0
492.424	1	2
492.594	1	1
492.765	1	0
492.935	1	0
493.105	1	-6
493.275	1	3
493.446	1	0
493.616	1	6
493.786	1	-1
493.956	1	-6
494.127	1	9
494.297	1	-7
494.467	1	-3
494.637	1	-6
494.808	1	-6
494.978	1	-6
495.148	1	-7
495.318	1	-8
495.489	1	4
495.659	1	5
495.829	1	-5
495.999	1	-5
496.170	1	7
496.340	1	8
496.510	1	4
496.680	1	-17
496.851	1	4
497.021	1	-4
497.191	1	-3
497.361	1	-6
497.532	1	-1
497.702	1	-7
497.872	1	-3
498.042	1	5
498.213	1	0
498.383	1	5
498.553	1	-8
498.723	1	0
498.894	1	-6
499.064	1	3
499.234	1	-4
499.404	1	6
499.574	1	4
499.745	1	-3
499.915	1	1
500.085	1	0
500.255	1	1
500.426	1	4
500.596	1	12
500.766	1	1
500.936	1	2
501.106	1	-6
501.277	1	1
501.447	1	2
501.617	1	5
501.787	1	-5
501.958	1	-13
502.128	1	-5
502.298	1	-8
502.468	1	-4
502.638	1	5
502.809	1	-10
502.979	1	-8
503.149	1	-11
503.319	1	-11
503.489	1	1
503.660	1	-4
503.830	1	-4
504.000	1	2
504.170	1	-2
504.340	1	-3
504.511	1	6
504.681	1	6
504.851	1	0
505.021	1	-1
505.192	1	-9
505.362	1	8
505.532	1	-8
505.702	1	-2
505.872	1	-1
506.043	1	-3
506.213	1	-7
506.383	1	-1
506.553	1	12
506.723	1	8
506.893	1	8
507.064	1	0
507.234	1	-1
507.404	1	3
507.574	1	2
507.744	1	-5
507.915	1	5
508.085	1	9
508.255	1	-5
508.425	1	-7
508.595	1	4
508.766	1	4
508.936	1	-14
509.106	1	12
509.276	1	0
509.446	1	-8
509.616	1	-5
509.787	1	-3
509.957	1	-4
510.127	1	7
510.297	1	-3
510.467	1	-4
510.638	1	5
510.808	1	-14
510.978	1	-7
511.148	1	2
511.318	1	-2
511.488	1	-8
511.659	1	6
511.829	1	-1
511.999	1	-1
512.169	1	-2
512.339	1	-3
512.509	1	-8
512.680	1	-11
512.850	1	-2
513.020	1	4
513.190	1	3
513.360	1	-5
513.530	1	7
513.700	1	6
513.871	1	-6
514.041	1	-2
514.211	1	8
514.381	1	-5
514.551	1	5
514.721	1	-4
514.892	1	3
515.062	1	-1
515.232	1	0
515.402	1	-9
515.572	1	-6
515.742	1	1
515.912	1	6
516.083	1	-4
516.253	1	7
516.423	1	-3
516.593	1	-1
516.763	1	10
516.933	1	1
517.104	1	-5
517.274	1	0
517.444	1	-6
517.614	1	-23
517.784	1	4
517.954	1	-4
518.124	1	5
518.294	1	0
518.465	1	2
518.635	1	-1
518.805	1	-9
518.975	1	2
519.145	1	-11
519.315	1	-12
519.485	1	-1
519.656	1	5
519.826	1	-3
519.996	1	-5
520.166	1	-1
520.336	1	7
520.506	1	-3
520.676	1	-8
520.846	1	8
521.017	1	0
521.187	1	-5
521.357	1	8
521.527	1	1
521.697	1	-12
521.867	1	-5
522.037	1	13
522.207	1	3
522.377	1	3
522.548	1	2
522.718	1	-3
522.888	1	10
523.058	1	0
523.228	1	-2
523.398	1	4
523.568	1	4
523.738	1	0
523.909	1	-3
524.079	1	2
524.249	1	5
524.419	1	2
524.589	1	-1
524.759	1	-3
524.929	1	-9
525.099	1	-3
525.269	1	-2
525.439	1	-12
525.610	1	13
525.780	1	1
525.950	1	4
526.120	1	-3
526.290	1	5
526.460	1	-7
526.630	1	-4
526.800	1	-10
526.970	1	6
527.140	1	-1
527.311	1	-5
527.481	1	-1
527.651	1	5
527.821	1	0
527.991	1	8
528.161	1	16
528.331	1	-9
528.501	1	0
528.671	1	-6
528.841	1	-1
529.011	1	-5
529.181	1	2
529.352	1	6
529.522	1	2
529.692	1	4
529.862	1	-8
530.032	1	-5
530.202	1	-9
530.372	1	-2
530.542	1	-11
530.712	1	3
530.882	1	-6
531.052	1	7
531.222	1	2
531.392	1	-2
531.563	1	5
531.733	1	6
531.903	1	1
532.073	1	1
532.243	1	-9
532.413	1	2
532.583	1	-3
532.753	1	-4
532.923	1	-2
533.093	1	-1
533.263	1	1
533.433	1	-9
533.603	1	3
533.773	1	0
533.943	1	-7
534.113	1	-5
534.284	1	1
534.454	1	3
534.624	1	12
534.794	1	-9
534.964	1	16
535.134	1	-8
535.304	1	-3
535.474	1	2
535.644	1	-11
535.814	1	-10
535.984	1	-8
536.154	1	-11
536.324	1	-9
536.494	1	10
536.664	1	4
536.834	1	0
537.004	1	1
537.174	1	11
537.344	1	5
537.514	1	-13
537.685	1	-5
537.855	1	1
538.025	1	-1
538.195	1	-8
538.365	1	4
538.535	1	-1
538.705	1	-5
538.875	1	-5
539.045	1	-2
539.215	1	0
539.385	1	5
539.555	1	2
539.725	1	0
539.895	1	2
540.065	1	7
540.235	1	4
540.405	1	-12
540.575	1	-2
540.745	1	8
540.915	1	2
541.085	1	7
541.255	1	0
541.425	1	4
541.595	1	-4
541.765	1	5
541.935	1	-8
542.105	1	-12
542.275	1	3
542.445	1	-13
542.615	1	3
542.785	1	3
542.955	1	-2
543.125	1	-6
543.295	1	14
543.465	1	3
543.635	1	-3
543.805	1	14
543.975	1	0
544.145	1	-4
544.315	1	8
544.485	1	3
544.655	1	8
544.825	1	-9
544.995	1	3
545.165	1	-6
545.335	1	8
545.505	1	-2
545.675	1	2
545.845	1	5
546.015	1	-2
546.185	1	6
546.355	1	4
546.525	1	-1
546.695	1	-5
546.865	1	0
547.035	1	3
547.205	1	-9
547.375	1	-4
547.545	1	6
547.715	1	0
547.885	1	-1
548.055	1	-3
548.225	1	1
548.395	1	-9
548.565	1	10
548.735	1	-7
548.905	1	2
549.075	1	3
549.245	1	-3
549.415	1	-9
549.585	1	8
549.755	1	6
549.925	1	-4
550.095	1	-3
550.265	1	5
550.435	1	-2
550.605	1	-4
550.775	1	7
550.945	1	12
551.115	1	1
551.285	1	-5
551.455	1	-4
551.625	1	4
551.795	1	2
551.965	1	0
552.135	1	-2
552.305	1	-3
552.475	1	-6
552.645	1	0
552.815	1	-7
552.985	1	7
553.155	1	-1
553.325	1	0
553.495	1	2
553.665	1	-1
553.835	1	-2
554.004	1	-10
554.174	1	-4
554.344	1	6
554.514	1	-1
554.684	1	-1
554.854	1	5
555.024	1	-2
555.194	1	-9
555.364	1	0
555.534	1	-6
555.704	1	-4
555.874	1	5
556.044	1	-10
556.214	1	-5
556.384	1	-2
556.554	1	2
556.724	1	-2
556.894	1	-2
557.064	1	-2
557.234	1	-12
557.404	1	6
557.573	1	3
557.743	1	-2
557.913	1	-3
558.083	1	0
558.253	1	6
558.423	1	1
558.593	1	2
558.763	1	0
558.933	1	-11
559.103	1	-1
559.273	1	1
559.443	1	-2
559.613	1	-3
559.783	1	0
559.953	1	0
560.122	1	5
560.292	1	1
560.462	1	-5
560.632	1	2
560.802	1	2
560.972	1	-2
561.142	1	-7
561.312	1	-5
561.482	1	2
561.652	1	10
561.822	1	2
561.992	1	-6
562.162	1	-3
562.331	1	5
562.501	1	-9
562.671	1	8
562.841	1	-4
563.011	1	-6
563.181	1	0
563.351	1	-6
563.521	1	-2
563.691	1	-5
563.861	1	0
564.031	1	-6
564.201	1	10
564.370	1	-14
564.540	1	-7
564.710	1	-1
564.880	1	7
565.050	1	8
565.220	1	0
565.390	1	-2
565.560	1	8
565.730	1	-4
565.900	1	-3
566.069	1	8
566.239	1	-2
566.409	1	4
566.579	1	15
566.749	1	-1
566.919	1	12
567.089	1	2
567.259	1	7
567.429	1	6
567.599	1	-5
567.768	1	7
567.938	1	-1
568.108	1	0
568.278	1	-2
568.448	1	-4
568.618	1	-3
568.788	1	3
568.958	1	-3
569.128	1	4
569.297	1	-4
569.467	1	1
569.637	1	6
569.807	1	2
569.977	1	9
570.147	1	7
570.317	1	-4
570.487	1	2
570.656	1	7
570.826	1	-7
570.996	1	-3
571.166	1	11
571.336	1	-9
571.506	1	7
571.676	1	5
571.846	1	5
572.015	1	-1
572.185	1	2
572.355	1	-1
572.525	1	5
572.695	1	-10
572.865	1	-19
573.035	1	-3
573.205	1	-1
573.374	1	-4
573.544	1	-3
573.714	1	1
573.884	1	18
574.054	1	7
574.224	1	1
574.394	1	-11
574.563	1	-8
574.733	1	-1
574.903	1	-7
575.073	1	-2
575.243	1	2
575.413	1	7
575.583	1	-6
575.752	1	5
575.922	1	-5
576.092	1	7
576.262	1	5
576.432	1	2
576.602	1	6
576.772	1	10
576.941	1	0
577.111	1	-5
577.281	1	-4
577.451	1	-8
577.621	1	8
577.791	1	6
577.960	1	-5
578.130	1	0
578.300	1	3
578.470	1	13
578.640	1	1
578.810	1	0
578.979	1	1
579.149	1	0
579.319	1	-13
579.489	1	-4
579.659	1	3
579.829	1	0
579.998	1	-1
580.168	1	6
580.338	1	7
580.508	1	-6
580.678	1	0
580.848	1	-7
581.017	1	0
581.187	1	4
581.357	1	-13
581.527	1	5
581.697	1	9
581.867	1	-5
582.036	1	-4
582.206	1	-2
582.376	1	8
582.546	1	-14
582.716	1	-6
582.885	1	-5
583.055	1	3
583.225	1	-7
583.395	1	6
583.565	1	-9
583.735	1	5
583.904	1	2
584.074	1	5
584.244	1	11
584.414	1	8
584.584	1	2
584.753	1	-1
584.923	1	-7
585.093	1	-2
585.263	1	1
585.433	1	4
585.602	1	-8
585.772	1	-6
585.942	1	4
586.112	1	-1
586.282	1	-4
586.451	1	0
586.621	1	4
586.791	1	-1
586.961	1	3
587.131	1	9
587.300	1	-5
587.470	1	-3
587.640	1	-1
587.810	1	0
587.980	1	3
588.149	1	-1
588.319	1	0
588.489	1	-10
588.659	1	3
588.829	1	11
588.998	1	7
589.168	1	3
589.338	1	3
589.508	1	7
589.677	1	-6
589.847	1	-15
590.017	1	16
590.187	1	-10
590.357	1	7
590.526	1	16
590.696	1	1
590.866	1	-2
591.036	1	-2
591.205	1	6
591.375	1	-2
591.545	1	-4
591.715	1	1
591.885	1	1
592.054	1	8
592.224	1	-2
592.394	1	-4
592.564	1	2
592.733	1	3
592.903	1	-3
593.073	1	-9
593.243	1	14
593.412	1	3
593.582	1	-3
593.752	1	-8
593.922	1	-4
594.091	1	0
594.261	1	-4
594.431	1	4
594.601	1	-1
594.771	1	7
594.940	1	-3
595.110	1	-9
595.280	1	4
595.450	1	5
595.619	1	3
595.789	1	-4
595.959	1	-2
596.129	1	-6
596.298	1	-9
596.468	1	7
596.638	1	1
596.808	1	9
596.977	1	5
597.147	1	3
597.317	1	-9
597.487	1	5
597.656	1	5
597.826	1	3
597.996	1	2
598.166	1	0
598.335	1	-7
598.505	1	-2
598.675	1	-6
598.844	1	-2
599.014	1	0
599.184	1	5
599.354	1	-19
599.523	1	8
599.693	1	-8
599.863	1	5
600.033	1	-2
600.202	1	3
600.372	1	7
600.542	1	10
600.712	1	-13
600.881	1	-6
601.051	1	10
601.221	1	5
601.390	1	-9
601.560	1	7
601.730	1	3
601.900	1	-5
602.069	1	6
602.239	1	-5
602.409	1	-8
602.578	1	-3
602.748	1	1
602.918	1	9
603.088	1	3
603.257	1	5
603.427	1	-9
603.597	1	0
603.767	1	2
603.936	1	6
604.106	1	5
604.276	1	-2
604.445	1	0
604.615	1	-11
604.785	1	-1
604.954	1	-7
605.124	1	-3
605.294	1	0
605.464	1	-5
605.633	1	1
605.803	1	6
605.973	1	3
606.142	1	-5
606.312	1	6
606.482	1	2
606.652	1	10
606.821	1	-4
606.991	1	-3
607.161	1	-4
607.330	1	9
607.500	1	6
607.670	1	1
607.839	1	-1
608.009	1	-5
608.179	1	-3
608.348	1	3
608.518	1	-4
608.688	1	3
608.858	1	-4
609.027	1	-6
609.197	1	5
609.367	1	11
609.536	1	11
609.706	1	-3
609.876	1	-2
610.045	1	-3
610.215	1	7
610.385	1	-1
610.554	1	2
610.724	1	1
610.894	1	1
611.063	1	-1
611.233	1	-9
611.403	1	-4
611.572	1	3
611.742	1	-5
611.912	1	-6
612.081	1	-6
612.251	1	6
612.421	1	-8
612.590	1	3
612.760	1	2
612.930	1	-3
613.099	1	7
613.269	1	9
613.439	1	0
613.608	1	-6
613.778	1	5
613.948	1	-3
614.117	1	1
614.287	1	6
614.457	1	5
614.626	1	-5
614.796	1	4
614.966	1	3
615.135	1	-2
615.305	1	11
615.475	1	-8
615.644	1	8
615.814	1	-6
615.984	1	-4
616.153	1	-6
616.323	1	-5
616.493	1	-1
616.662	1	11
616.832	1	4
617.002	1	-7
617.171	1	-5
617.341	1	-3
617.511	1	-7
617.680	1	-9
617.850	1	2
618.019	1	8
618.189	1	2
618.359	1	5
618.528	1	-1
618.698	1	2
618.868	1	-13
619.037	1	3
619.207	1	-6
619.377	1	-2
619.546	1	-1
619.716	1	-1
619.885	1	5
620.055	1	-10
620.225	1	-1
620.394	1	-13
620.564	1	8
620.734	1	9
620.903	1	-13
621.073	1	1
621.242	1	-3
621.412	1	-12
621.582	1	3
621.751	1	7
621.921	1	4
622.091	1	-15
622.260	1	3
622.430	1	7
622.599	1	-6
622.769	1	5
622.939	1	6
623.108	1	-7
623.278	1	-8
623.448	1	6
623.617	1	-5
623.787	1	3
623.956	1	5
624.126	1	-2
624.296	1	-8
624.465	1	1
624.635	1	-2
624.804	1	-3
624.974	1	0
625.144	1	4
625.313	1	-2
625.483	1	-8
625.652	1	-9
625.822	1	-8
625.992	1	2
626.161	1	-7
626.331	1	-2
626.501	1	-3
626.670	1	9
626.840	1	-13
627.009	1	-1
627.179	1	0
627.348	1	4
627.518	1	-7
627.688	1	6
627.857	1	2
628.027	1	-6
628.196	1	2
628.366	1	5
628.536	1	10
628.705	1	-5
628.875	1	0
629.044	1	-2
629.214	1	-3
629.384	1	-1
629.553	1	8
629.723	1	0
629.892	1	-1
630.062	1	2
630.232	1	-5
630.401	1	12
630.571	1	3
630.740	1	-6
630.910	1	-3
631.079	1	-3
631.249	1	1
631.419	1	1
631.588	1	-12
631.758	1	6
631.927	1	-12
632.097	1	-6
632.266	1	-2
632.436	1	2
632.606	1	-4
632.775	1	5
632.945	1	-2
633.114	1	-1
633.284	1	1
633.453	1	-4
633.623	1	3
633.793	1	8
633.962	1	-1
634.132	1	-12
634.301	1	1
634.471	1	4
634.640	1	5
634.810	1	4
634.979	1	4
635.149	1	7
635.319	1	6
635.488	1	3
635.658	1	-3
635.827	1	-6
635.997	1	-1
636.166	1	0
636.336	1	-13
636.505	1	17
636.675	1	-9
636.845	1	1
637.014	1	3
637.184	1	8
637.353	1	3
637.523	1	3
637.692	1	0
637.862	1	4
638.031	1	2
638.201	1	-2
638.370	1	-5
638.540	1	-3
638.710	1	0
638.879	1	-6
639.049	1	-2
639.218	1	3
639.388	1	-3
639.557	1	0
639.727	1	-7
639.896	1	4
640.066	1	-11
640.235	1	-5
640.405	1	0
640.574	1	4
640.744	1	-12
640.914	1	3
641.083	1	3
641.253	1	0
641.422	1	-2
641.592	1	11
641.761	1	-7
641.931	1	2
642.100	1	12
642.270	1	-2
642.439	1	4
642.609	1	5
642.778	1	-1
642.948	1	-7
643.117	1	5
643.287	1	-1
643.456	1	-11
643.626	1	14
643.795	1	1
643.965	1	-1
644.134	1	-7
644.304	1	-3
644.473	1	-9
644.643	1	6
644.812	1	-5
644.982	1	-4
645.151	1	-12
645.321	1	-9
645.490	1	6
645.660	1	-10
645.829	1	-3
645.999	1	-1
646.168	1	-2
646.338	1	7
646.507	1	-2
646.677	1	7
646.846	1	-6
647.016	1	-8
647.185	1	-5
647.355	1	-9
647.524	1	0
647.694	1	9
647.863	1	0
648.033	1	1
648.202	1	6
648.372	1	-7
648.541	1	-1
648.711	1	3
648.880	1	-7
649.050	1	-5
649.219	1	-4
649.389	1	7
649.558	1	2
649.728	1	4
649.897	1	0
650.067	1	3
650.236	1	1
650.406	1	4
650.575	1	1
650.745	1	7
650.914	1	1
651.084	1	-8
651.253	1	3
651.423	1	1
651.592	1	-3
651.762	1	-4
651.931	1	6
652.101	1	-4
652.270	1	5
652.440	1	-3
652.609	1	-3
652.778	1	-6
652.948	1	0
653.117	1	2
653.287	1	-1
653.456	1	5
653.626	1	1
653.795	1	3
653.965	1	2
654.134	1	-5
654.304	1	-9
654.473	1	11
654.643	1	9
654.812	1	-5
654.982	1	0
655.151	1	0
655.320	1	-11
655.490	1	2
655.659	1	-6
655.829	1	-1
655.998	1	5
656.168	1	4
656.337	1	6
656.507	1	1
656.676	1	4
656.846	1	10
657.015	1	2
657.184	1	13
657.354	1	10
657.523	1	-14
657.693	1	15
657.862	1	2
658.032	1	-1
658.201	1	4
658.371	1	11
658.540	1	-2
658.709	1	0
658.879	1	6
659.048	1	-5
659.218	1	5
659.387	1	-3
659.557	1	-5
659.726	1	0
659.895	1	-2
660.065	1	-12
660.234	1	2
660.404	1	-2
660.573	1	6
660.743	1	-9
660.912	1	-5
661.081	1	4
661.251	1	-6
661.420	1	-2
661.590	1	0
661.759	1	-1
661.929	1	7
662.098	1	3
662.267	1	-4
662.437	1	5
662.606	1	-5
662.776	1	-4
662.945	1	4
663.115	1	-2
663.284	1	-5
663.453	1	9
663.623	1	-4
663.792	1	9
663.962	1	1
664.131	1	3
664.300	1	5
664.470	1	-3
664.639	1	1
664.809	1	8
664.978	1	8
665.148	1	1
665.317	1	-2
665.486	1	-1
665.656	1	3
665.825	1	2
665.995	1	-8
666.164	1	-11
666.333	1	2
666.503	1	0
666.672	1	-12
666.842	1	-7
667.011	1	-7
667.180	1	11
667.350	1	-2
667.519	1	8
667.689	1	-9
667.858	1	4
668.027	1	8
668.197	1	-9
668.366	1	-10
668.536	1	3
668.705	1	-1
668.874	1	0
669.044	1	2
669.213	1	7
669.382	1	1
669.552	1	3
669.721	1	0
669.891	1	8
670.060	1	6
670.229	1	17
670.399	1	4
670.568	1	6
670.738	1	5
670.907	1	-10
671.076	1	-4
671.246	1	1
671.415	1	-8
671.584	1	-8
671.754	1	-8
671.923	1	4
672.093	1	5
672.262	1	-11
672.431	1	3
672.601	1	0
672.770	1	-6
672.939	1	1
673.109	1	-1
673.278	1	2
673.448	1	0
673.617	1	0
673.786	1	1
