325.333	1	8
325.504	1	8
325.675	1	0
325.846	1	7
326.017	1	6
326.188	1	13
326.359	1	3
326.531	1	-7
326.702	1	1
326.873	1	19
327.044	1	4
327.215	1	1
327.386	1	5
327.557	1	3
327.728	1	6
327.899	1	8
328.070	1	15
328.241	1	8
328.412	1	0
328.583	1	8
328.754	1	7
328.926	1	8
329.097	1	0
329.268	1	15
329.439	1	5
329.610	1	5
329.781	1	-8
329.952	1	12
330.123	1	8
330.294	1	3
330.465	1	9
330.636	1	18
330.807	1	-1
330.978	1	3
331.149	1	8
331.320	1	9
331.492	1	-4
331.663	1	12
331.834	1	18
332.005	1	12
332.176	1	21
332.347	1	15
332.518	1	-2
332.689	1	10
332.860	1	3
333.031	1	15
333.202	1	2
333.373	1	2
333.544	1	-2
333.715	1	2
333.886	1	3
334.057	1	11
334.228	1	-7
334.399	1	-5
334.570	1	16
334.741	1	-5
334.912	1	12
335.084	1	20
335.255	1	3
335.426	1	4
335.597	1	10
335.768	1	0
335.939	1	9
336.110	1	0
336.281	1	2
336.452	1	4
336.623	1	4
336.794	1	7
336.965	1	7
337.136	1	15
337.307	1	9
337.478	1	-8
337.649	1	7
337.820	1	10
337.991	1	5
338.162	1	5
338.333	1	3
338.504	1	11
338.675	1	17
338.846	1	9
339.017	1	-2
339.188	1	6
339.359	1	-2
339.530	1	8
339.701	1	14
339.872	1	9
340.043	1	6
340.214	1	9
340.385	1	16
340.556	1	-11
340.727	1	6
340.898	1	12
341.069	1	4
341.240	1	4
341.411	1	6
341.582	1	9
341.753	1	11
341.924	1	5
342.095	1	17
342.266	1	11
342.437	1	19
342.608	1	-2
342.779	1	14
342.950	1	13
343.121	1	16
343.292	1	4
343.463	1	8
343.634	1	4
343.805	1	10
343.976	1	9
344.147	1	14
344.318	1	6
344.489	1	6
344.660	1	17
344.831	1	8
345.002	1	-2
345.173	1	14
345.344	1	7
345.515	1	16
345.686	1	4
345.857	1	12
346.028	1	8
346.199	1	5
346.370	1	2
346.541	1	7
346.712	1	7
346.883	1	21
347.054	1	10
347.225	1	16
347.396	1	15
347.567	1	2
347.738	1	2
347.909	1	11
348.080	1	8
348.251	1	10
348.422	1	19
348.593	1	13
348.764	1	14
348.935	1	15
349.106	1	13
349.277	1	14
349.448	1	15
349.619	1	16
349.790	1	5
349.961	1	19
350.132	1	15
350.303	1	14
350.474	1	23
350.645	1	9
350.816	1	19
350.987	1	15
351.157	1	4
351.328	1	15
351.499	1	12
351.670	1	10
351.841	1	16
352.012	1	19
352.183	1	27
352.354	1	15
352.525	1	13
352.696	1	26
352.867	1	9
353.038	1	13
353.209	1	11
353.380	1	7
353.551	1	3
353.722	1	12
353.893	1	5
354.064	1	28
354.235	1	3
354.406	1	12
354.576	1	8
354.747	1	7
354.918	1	15
355.089	1	17
355.260	1	19
355.431	1	19
355.602	1	9
355.773	1	19
355.944	1	19
356.115	1	11
356.286	1	16
356.457	1	11
356.628	1	18
356.799	1	16
356.970	1	28
357.141	1	6
357.311	1	20
357.482	1	15
357.653	1	16
357.824	1	16
357.995	1	19
358.166	1	10
358.337	1	14
358.508	1	18
358.679	1	21
358.850	1	18
359.021	1	6
359.192	1	16
359.363	1	12
359.533	1	8
359.704	1	5
359.875	1	19
360.046	1	17
360.217	1	9
360.388	1	20
360.559	1	14
360.730	1	21
360.901	1	8
361.072	1	30
361.243	1	20
361.414	1	15
361.584	1	12
361.755	1	15
361.926	1	12
362.097	1	15
362.268	1	25
362.439	1	10
362.610	1	23
362.781	1	11
362.952	1	15
363.123	1	14
363.293	1	16
363.464	1	28
363.635	1	18
363.806	1	10
363.977	1	18
364.148	1	9
364.319	1	7
364.490	1	13
364.661	1	24
364.832	1	24
365.002	1	13
365.173	1	9
365.344	1	18
365.515	1	15
365.686	1	18
365.857	1	11
366.028	1	15
366.199	1	19
366.370	1	19
366.540	1	12
366.711	1	1
366.882	1	13
367.053	1	15
367.224	1	25
367.395	1	20
367.566	1	25
367.737	1	13
367.908	1	19
368.078	1	12
368.249	1	20
368.420	1	16
368.591	1	9
368.762	1	19
368.933	1	21
369.104	1	15
369.274	1	18
369.445	1	28
369.616	1	12
369.787	1	19
369.958	1	19
370.129	1	-2
370.300	1	21
370.471	1	9
370.641	1	16
370.812	1	22
370.983	1	18
371.154	1	20
371.325	1	24
371.496	1	17
371.667	1	19
371.837	1	13
372.008	1	13
372.179	1	11
372.350	1	27
372.521	1	21
372.692	1	20
372.863	1	22
373.033	1	5
373.204	1	16
373.375	1	23
373.546	1	30
373.717	1	19
373.888	1	29
374.059	1	25
374.229	1	32
374.400	1	18
374.571	1	19
374.742	1	30
374.913	1	22
375.084	1	14
375.254	1	21
375.425	1	23
375.596	1	24
375.767	1	21
375.938	1	16
376.109	1	17
376.279	1	19
376.450	1	26
376.621	1	29
376.792	1	4
376.963	1	18
377.134	1	27
377.304	1	21
377.475	1	16
377.646	1	13
377.817	1	7
377.988	1	12
378.159	1	26
378.329	1	19
378.500	1	27
378.671	1	21
378.842	1	23
379.013	1	13
379.184	1	26
379.354	1	34
379.525	1	16
379.696	1	31
379.867	1	17
380.038	1	21
380.209	1	21
380.379	1	22
380.550	1	6
380.721	1	29
380.892	1	28
381.063	1	15
381.233	1	27
381.404	1	13
381.575	1	24
381.746	1	20
381.917	1	11
382.087	1	20
382.258	1	14
382.429	1	19
382.600	1	33
382.771	1	21
382.941	1	17
383.112	1	17
383.283	1	24
383.454	1	24
383.625	1	17
383.795	1	20
383.966	1	19
384.137	1	27
384.308	1	31
384.479	1	23
384.649	1	26
384.820	1	16
384.991	1	16
385.162	1	18
385.333	1	18
385.503	1	12
385.674	1	17
385.845	1	31
386.016	1	13
386.187	1	21
386.357	1	32
386.528	1	33
386.699	1	17
386.870	1	31
387.041	1	22
387.211	1	22
387.382	1	36
387.553	1	38
387.724	1	26
387.894	1	17
388.065	1	34
388.236	1	33
388.407	1	26
388.578	1	17
388.748	1	17
388.919	1	29
389.090	1	20
389.261	1	21
389.431	1	32
389.602	1	21
389.773	1	18
389.944	1	22
390.114	1	27
390.285	1	25
390.456	1	19
390.627	1	26
390.798	1	27
390.968	1	18
391.139	1	24
391.310	1	19
391.481	1	29
391.651	1	27
391.822	1	23
391.993	1	16
392.164	1	11
392.334	1	14
392.505	1	19
392.676	1	28
392.847	1	34
393.017	1	30
393.188	1	28
393.359	1	18
393.530	1	20
393.700	1	25
393.871	1	23
394.042	1	21
394.213	1	21
394.383	1	16
394.554	1	24
394.725	1	34
394.896	1	24
395.066	1	31
395.237	1	16
395.408	1	23
395.579	1	24
395.749	1	27
395.920	1	24
396.091	1	22
396.262	1	29
396.432	1	37
396.603	1	23
396.774	1	38
396.945	1	31
397.115	1	26
397.286	1	19
397.457	1	35
397.627	1	29
397.798	1	25
397.969	1	21
398.140	1	19
398.310	1	23
398.481	1	25
398.652	1	25
398.823	1	21
398.993	1	24
399.164	1	17
399.335	1	31
399.505	1	23
399.676	1	28
399.847	1	22
400.018	1	25
400.188	1	34
400.359	1	29
400.530	1	12
400.700	1	32
400.871	1	21
401.042	1	31
401.213	1	35
401.383	1	26
401.554	1	42
401.725	1	35
401.895	1	22
402.066	1	29
402.237	1	30
402.408	1	30
402.578	1	27
402.749	1	24
402.920	1	33
403.090	1	22
403.261	1	33
403.432	1	37
403.603	1	31
403.773	1	45
403.944	1	31
404.115	1	33
404.285	1	37
404.456	1	23
404.627	1	29
404.797	1	33
404.968	1	19
405.139	1	31
405.310	1	41
405.480	1	28
405.651	1	28
405.822	1	22
405.992	1	25
406.163	1	30
406.334	1	20
406.504	1	31
406.675	1	45
406.846	1	27
407.016	1	38
407.187	1	35
407.358	1	19
407.528	1	29
407.699	1	30
407.870	1	19
408.041	1	32
408.211	1	43
408.382	1	26
408.553	1	32
408.723	1	34
408.894	1	24
409.065	1	29
409.235	1	30
409.406	1	31
409.577	1	11
409.747	1	41
409.918	1	30
410.089	1	30
410.259	1	39
410.430	1	28
410.601	1	30
410.771	1	28
410.942	1	37
411.113	1	38
411.283	1	27
411.454	1	34
411.625	1	40
411.795	1	30
411.966	1	40
412.137	1	28
412.307	1	15
412.478	1	32
412.649	1	22
412.819	1	31
412.990	1	28
413.161	1	26
413.331	1	23
413.502	1	42
413.672	1	21
413.843	1	29
414.014	1	29
414.184	1	28
414.355	1	31
414.526	1	32
414.696	1	36
414.867	1	39
415.038	1	17
415.208	1	22
415.379	1	36
415.550	1	29
415.720	1	31
415.891	1	28
416.062	1	18
416.232	1	35
416.403	1	25
416.573	1	29
416.744	1	33
416.915	1	30
417.085	1	25
417.256	1	35
417.427	1	24
417.597	1	31
417.768	1	18
417.939	1	31
418.109	1	40
418.280	1	42
418.450	1	20
418.621	1	33
418.792	1	34
418.962	1	32
419.133	1	39
419.304	1	33
419.474	1	25
419.645	1	32
419.815	1	18
419.986	1	33
420.157	1	33
420.327	1	29
420.498	1	37
420.669	1	27
420.839	1	34
421.010	1	41
421.180	1	31
421.351	1	23
421.522	1	21
421.692	1	19
421.863	1	27
422.033	1	38
422.204	1	21
422.375	1	22
422.545	1	43
422.716	1	26
422.886	1	29
423.057	1	28
423.228	1	25
423.398	1	34
423.569	1	35
423.740	1	15
423.910	1	21
424.081	1	31
424.251	1	13
424.422	1	29
424.593	1	27
424.763	1	33
424.934	1	31
425.104	1	30
425.275	1	31
425.445	1	32
425.616	1	16
425.787	1	29
425.957	1	27
426.128	1	33
426.298	1	39
426.469	1	12
426.640	1	28
426.810	1	37
426.981	1	25
427.151	1	27
427.322	1	38
427.493	1	20
427.663	1	31
427.834	1	26
428.004	1	27
428.175	1	27
428.345	1	26
428.516	1	21
428.687	1	27
428.857	1	13
429.028	1	25
429.198	1	44
429.369	1	25
429.540	1	28
429.710	1	24
429.881	1	23
430.051	1	20
430.222	1	29
430.392	1	22
430.563	1	34
430.734	1	36
430.904	1	30
431.075	1	35
431.245	1	22
431.416	1	38
431.586	1	27
431.757	1	23
431.927	1	26
432.098	1	28
432.269	1	17
432.439	1	32
432.610	1	18
432.780	1	41
432.951	1	26
433.121	1	24
433.292	1	41
433.462	1	25
433.633	1	25
433.804	1	26
433.974	1	19
434.145	1	37
434.315	1	20
434.486	1	16
434.656	1	29
434.827	1	23
434.997	1	18
435.168	1	18
435.339	1	27
435.509	1	20
435.680	1	33
435.850	1	19
436.021	1	19
436.191	1	19
436.362	1	30
436.532	1	20
436.703	1	24
436.873	1	27
437.044	1	15
437.214	1	29
437.385	1	17
437.556	1	30
437.726	1	38
437.897	1	27
438.067	1	23
438.238	1	18
438.408	1	31
438.579	1	17
438.749	1	22
438.920	1	18
439.090	1	20
439.261	1	22
439.431	1	19
439.602	1	24
439.772	1	20
439.943	1	34
440.113	1	32
440.284	1	23
440.455	1	16
440.625	1	18
440.796	1	18
440.966	1	8
441.137	1	21
441.307	1	8
441.478	1	30
441.648	1	22
441.819	1	15
441.989	1	26
442.160	1	37
442.330	1	19
442.501	1	19
442.671	1	18
442.842	1	14
443.012	1	19
443.183	1	25
443.353	1	20
443.524	1	22
443.694	1	19
443.865	1	26
444.035	1	18
444.206	1	19
444.376	1	12
444.547	1	42
444.717	1	30
444.888	1	22
445.058	1	39
445.229	1	33
445.399	1	21
445.570	1	23
445.740	1	33
445.911	1	19
446.081	1	16
446.252	1	38
446.422	1	15
446.593	1	23
446.763	1	14
446.934	1	13
447.104	1	19
447.275	1	24
447.445	1	23
447.616	1	28
447.786	1	23
447.957	1	17
448.127	1	22
448.298	1	23
448.468	1	16
448.639	1	14
448.809	1	18
448.979	1	14
449.150	1	18
449.320	1	23
449.491	1	22
449.661	1	23
449.832	1	20
450.002	1	27
450.173	1	18
450.343	1	22
450.514	1	17
450.684	1	25
450.855	1	23
451.025	1	19
451.196	1	24
451.366	1	29
451.537	1	19
451.707	1	9
451.878	1	20
452.048	1	27
452.218	1	23
452.389	1	23
452.559	1	19
452.730	1	21
452.900	1	29
453.071	1	15
453.241	1	24
453.412	1	8
453.582	1	20
453.753	1	21
453.923	1	18
454.093	1	25
454.264	1	39
454.434	1	12
454.605	1	16
454.775	1	17
454.946	1	24
455.116	1	16
455.287	1	3
455.457	1	6
455.628	1	13
455.798	1	28
455.968	1	21
456.139	1	18
456.309	1	22
456.480	1	22
456.650	1	12
456.821	1	4
456.991	1	21
457.161	1	12
457.332	1	17
457.502	1	1
457.673	1	24
457.843	1	22
458.014	1	20
458.184	1	14
458.355	1	16
458.525	1	18
458.695	1	24
458.866	1	20
459.036	1	22
459.207	1	13
459.377	1	10
459.548	1	20
459.718	1	6
459.888	1	22
460.059	1	16
460.229	1	17
460.400	1	24
460.570	1	16
460.740	1	18
460.911	1	13
461.081	1	24
461.252	1	13
461.422	1	19
461.593	1	20
461.763	1	14
461.933	1	14
462.104	1	14
462.274	1	5
462.445	1	15
462.615	1	8
462.785	1	13
462.956	1	19
463.126	1	12
463.297	1	21
463.467	1	23
463.638	1	22
463.808	1	12
463.978	1	5
464.149	1	14
464.319	1	11
464.490	1	23
464.660	1	7
464.830	1	17
465.001	1	19
465.171	1	23
465.342	1	20
465.512	1	10
465.682	1	12
465.853	1	25
466.023	1	19
466.194	1	2
466.364	1	22
466.534	1	16
466.705	1	14
466.875	1	15
467.045	1	10
467.216	1	17
467.386	1	6
467.557	1	8
467.727	1	6
467.897	1	4
468.068	1	14
468.238	1	11
468.409	1	15
468.579	1	26
468.749	1	20
468.920	1	4
469.090	1	20
469.260	1	8
469.431	1	12
469.601	1	14
469.772	1	11
469.942	1	11
470.112	1	19
470.283	1	18
470.453	1	19
470.623	1	12
470.794	1	11
470.964	1	14
471.135	1	20
471.305	1	10
471.475	1	14
471.646	1	1
471.816	1	12
471.986	1	14
472.157	1	20
472.327	1	-2
472.497	1	15
472.668	1	2
472.838	1	20
473.009	1	19
473.179	1	9
473.349	1	5
473.520	1	25
473.690	1	13
473.860	1	12
474.031	1	8
474.201	1	5
474.371	1	24
474.542	1	14
474.712	1	7
474.882	1	18
475.053	1	18
475.223	1	13
475.394	1	23
475.564	1	10
475.734	1	21
475.905	1	17
476.075	1	14
476.245	1	22
476.416	1	17
476.586	1	12
476.756	1	12
476.927	1	25
477.097	1	22
477.267	1	6
477.438	1	18
477.608	1	15
477.778	1	0
477.949	1	21
478.119	1	23
478.289	1	20
478.460	1	19
478.630	1	22
478.800	1	16
478.971	1	4
479.141	1	12
479.311	1	4
479.482	1	14
479.652	1	15
479.822	1	4
479.993	1	19
480.163	1	4
480.333	1	23
480.504	1	12
480.674	1	22
480.844	1	2
481.015	1	20
481.185	1	12
481.355	1	18
481.525	1	8
481.696	1	12
481.866	1	17
482.036	1	14
482.207	1	11
482.377	1	14
482.547	1	18
482.718	1	5
482.888	1	14
483.058	1	18
483.229	1	11
483.399	1	13
483.569	1	6
483.740	1	9
483.910	1	8
484.080	1	17
484.250	1	17
484.421	1	10
484.591	1	18
484.761	1	34
484.932	1	19
485.102	1	17
485.272	1	4
485.443	1	26
485.613	1	17
485.783	1	8
485.953	1	15
486.124	1	16
486.294	1	12
486.464	1	16
486.635	1	9
486.805	1	16
486.975	1	5
487.146	1	16
487.316	1	15
487.486	1	10
487.656	1	0
487.827	1	14
487.997	1	3
488.167	1	5
488.338	1	26
488.508	1	7
488.678	1	8
488.848	1	19
489.019	1	5
489.189	1	7
489.359	1	5
489.529	1	10
489.700	1	10
489.870	1	25
490.040	1	-1
490.211	1	5
490.381	1	16
490.551	1	11
490.721	1	14
490.892	1	3
491.062	1	6
491.232	1	10
491.402	1	5
491.573	1	-3
491.743	1	9
491.913	1	5
492.084	1	14
492.254	1	1
492.424	1	7
492.594	1	19
492.765	1	11
492.935	1	4
493.105	1	1
493.275	1	14
493.446	1	9
493.616	1	27
493.786	1	7
493.956	1	6
494.127	1	2
494.297	1	6
494.467	1	8
494.637	1	4
494.808	1	9
494.978	1	6
495.148	1	2
495.318	1	10
495.489	1	12
495.659	1	19
495.829	1	1
495.999	1	-5
496.170	1	13
496.340	1	13
496.510	1	15
496.680	1	6
496.851	1	15
497.021	1	8
497.191	1	7
497.361	1	4
497.532	1	3
497.702	1	0
497.872	1	6
498.042	1	12
498.213	1	10
498.383	1	18
498.553	1	6
498.723	1	-1
498.894	1	0
499.064	1	3
499.234	1	10
499.404	1	10
499.574	1	21
499.745	1	16
499.915	1	7
500.085	1	11
500.255	1	7
500.426	1	7
500.596	1	6
500.766	1	4
500.936	1	3
501.106	1	3
501.277	1	4
501.447	1	7
501.617	1	5
501.787	1	6
501.958	1	3
502.128	1	11
502.298	1	8
502.468	1	0
502.638	1	11
502.809	1	7
502.979	1	3
503.149	1	-7
503.319	1	-1
503.489	1	9
503.660	1	13
503.830	1	9
504.000	1	17
504.170	1	2
504.340	1	3
504.511	1	8
504.681	1	-1
504.851	1	-1
505.021	1	16
505.192	1	3
505.362	1	14
505.532	1	14
505.702	1	6
505.872	1	9
506.043	1	6
506.213	1	0
506.383	1	8
506.553	1	14
506.723	1	7
506.893	1	5
507.064	1	9
507.234	1	2
507.404	1	8
507.574	1	7
507.744	1	6
507.915	1	15
508.085	1	25
508.255	1	10
508.425	1	8
508.595	1	16
508.766	1	10
508.936	1	-11
509.106	1	12
509.276	1	17
509.446	1	11
509.616	1	-1
509.787	1	10
509.957	1	13
510.127	1	7
510.297	1	11
510.467	1	0
510.638	1	10
510.808	1	-6
510.978	1	0
511.148	1	7
511.318	1	7
511.488	1	1
511.659	1	9
511.829	1	-3
511.999	1	10
512.169	1	8
512.339	1	4
512.509	1	0
512.680	1	-1
512.850	1	13
513.020	1	12
513.190	1	11
513.360	1	8
513.530	1	12
513.700	1	7
513.871	1	-3
514.041	1	7
514.211	1	13
514.381	1	18
514.551	1	-1
514.721	1	-5
514.892	1	7
515.062	1	12
515.232	1	13
515.402	1	-1
515.572	1	-1
515.742	1	14
515.912	1	11
516.083	1	3
516.253	1	2
516.423	1	10
516.593	1	6
516.763	1	16
516.933	1	6
517.104	1	4
517.274	1	3
517.444	1	11
517.614	1	4
517.784	1	1
517.954	1	1
518.124	1	6
518.294	1	1
518.465	1	3
518.635	1	5
518.805	1	-11
518.975	1	5
519.145	1	-7
519.315	1	0
519.485	1	0
519.656	1	6
519.826	1	10
519.996	1	-4
520.166	1	9
520.336	1	13
520.506	1	4
520.676	1	-14
520.846	1	3
521.017	1	18
521.187	1	9
521.357	1	9
521.527	1	-3
521.697	1	6
521.867	1	0
522.037	1	10
522.207	1	19
522.377	1	5
522.548	1	0
522.718	1	4
522.888	1	15
523.058	1	5
523.228	1	5
523.398	1	5
523.568	1	15
523.738	1	10
523.909	1	9
524.079	1	5
524.249	1	7
524.419	1	4
524.589	1	8
524.759	1	2
524.929	1	-2
525.099	1	8
525.269	1	7
525.439	1	5
525.610	1	18
525.780	1	6
525.950	1	0
526.120	1	2
526.290	1	5
526.460	1	-3
526.630	1	12
526.800	1	6
526.970	1	5
527.140	1	7
527.311	1	-2
527.481	1	-8
527.651	1	8
527.821	1	1
527.991	1	9
528.161	1	8
528.331	1	2
528.501	1	5
528.671	1	1
528.841	1	10
529.011	1	1
529.181	1	5
529.352	1	1
529.522	1	-7
529.692	1	12
529.862	1	0
530.032	1	9
530.202	1	5
530.372	1	9
530.542	1	7
530.712	1	2
530.882	1	12
531.052	1	18
531.222	1	2
531.392	1	9
531.563	1	1
531.733	1	8
531.903	1	6
532.073	1	9
532.243	1	-4
532.413	1	10
532.583	1	-1
532.753	1	7
532.923	1	-8
533.093	1	1
533.263	1	10
533.433	1	12
533.603	1	2
533.773	1	1
533.943	1	5
534.113	1	10
534.284	1	-1
534.454	1	0
534.624	1	10
534.794	1	1
534.964	1	5
535.134	1	2
535.304	1	0
535.474	1	20
535.644	1	5
535.814	1	-2
535.984	1	-4
536.154	1	-7
536.324	1	5
536.494	1	1
536.664	1	2
536.834	1	6
537.004	1	8
537.174	1	9
537.344	1	-1
537.514	1	1
537.685	1	6
537.855	1	9
538.025	1	-2
538.195	1	6
538.365	1	15
538.535	1	-3
538.705	1	5
538.875	1	4
539.045	1	6
539.215	1	9
539.385	1	5
539.555	1	4
539.725	1	5
539.895	1	4
540.065	1	16
540.235	1	6
540.405	1	-4
540.575	1	12
540.745	1	6
540.915	1	10
541.085	1	8
541.255	1	-1
541.425	1	11
541.595	1	0
541.765	1	19
541.935	1	2
542.105	1	-1
542.275	1	0
542.445	1	-7
542.615	1	7
542.785	1	13
542.955	1	7
543.125	1	3
543.295	1	8
543.465	1	7
543.635	1	9
543.805	1	18
543.975	1	4
544.145	1	4
544.315	1	11
544.485	1	8
544.655	1	0
544.825	1	-13
544.995	1	5
545.165	1	2
545.335	1	6
545.505	1	-2
545.675	1	4
545.845	1	2
546.015	1	3
546.185	1	10
546.355	1	11
546.525	1	14
546.695	1	2
546.865	1	0
547.035	1	3
547.205	1	-7
547.375	1	3
547.545	1	11
547.715	1	-2
547.885	1	2
548.055	1	-3
548.225	1	1
548.395	1	3
548.565	1	4
548.735	1	9
548.905	1	1
549.075	1	4
549.245	1	3
549.415	1	8
549.585	1	9
549.755	1	-4
549.925	1	0
550.095	1	10
550.265	1	-1
550.435	1	4
550.605	1	-5
550.775	1	6
550.945	1	9
551.115	1	13
551.285	1	5
551.455	1	-2
551.625	1	6
551.795	1	12
551.965	1	7
552.135	1	-7
552.305	1	0
552.475	1	-9
552.645	1	-6
552.815	1	-2
552.985	1	6
553.155	1	0
553.325	1	12
553.495	1	1
553.665	1	-2
553.835	1	0
554.004	1	5
554.174	1	6
554.344	1	7
554.514	1	-3
554.684	1	2
554.854	1	2
555.024	1	-7
555.194	1	-2
555.364	1	3
555.534	1	8
555.704	1	-6
555.874	1	9
556.044	1	12
556.214	1	-7
556.384	1	-2
556.554	1	11
556.724	1	4
556.894	1	-4
557.064	1	8
557.234	1	-3
557.404	1	15
557.573	1	7
557.743	1	4
557.913	1	-2
558.083	1	-7
558.253	1	3
558.423	1	-9
558.593	1	12
558.763	1	0
558.933	1	6
559.103	1	19
559.273	1	2
559.443	1	6
559.613	1	2
559.783	1	5
559.953	1	-4
560.122	1	5
560.292	1	0
560.462	1	-7
560.632	1	9
560.802	1	6
560.972	1	7
561.142	1	11
561.312	1	-3
561.482	1	2
561.652	1	5
561.822	1	-8
561.992	1	2
562.162	1	-2
562.331	1	1
562.501	1	-9
562.671	1	12
562.841	1	-4
563.011	1	15
563.181	1	1
563.351	1	-1
563.521	1	1
563.691	1	-2
563.861	1	4
564.031	1	12
564.201	1	11
564.370	1	-4
564.540	1	5
564.710	1	0
564.880	1	16
565.050	1	7
565.220	1	-8
565.390	1	4
565.560	1	10
565.730	1	-3
565.900	1	8
566.069	1	13
566.239	1	4
566.409	1	6
566.579	1	5
566.749	1	7
566.919	1	12
567.089	1	5
567.259	1	8
567.429	1	6
567.599	1	4
567.768	1	4
567.938	1	7
568.108	1	2
568.278	1	0
568.448	1	-5
568.618	1	-3
568.788	1	-1
568.958	1	3
569.128	1	14
569.297	1	-3
569.467	1	3
569.637	1	8
569.807	1	2
569.977	1	7
570.147	1	13
570.317	1	-3
570.487	1	1
570.656	1	11
570.826	1	-7
570.996	1	-1
571.166	1	4
571.336	1	0
571.506	1	2
571.676	1	4
571.846	1	11
572.015	1	0
572.185	1	-4
572.355	1	7
572.525	1	5
572.695	1	1
572.865	1	-7
573.035	1	6
573.205	1	1
573.374	1	1
573.544	1	5
573.714	1	12
573.884	1	9
574.054	1	2
574.224	1	7
574.394	1	-2
574.563	1	-11
574.733	1	1
574.903	1	-2
575.073	1	0
575.243	1	10
575.413	1	4
575.583	1	-3
575.752	1	7
575.922	1	0
576.092	1	1
576.262	1	6
576.432	1	3
576.602	1	-7
576.772	1	14
576.941	1	12
577.111	1	-3
577.281	1	-1
577.451	1	-4
577.621	1	4
577.791	1	5
577.960	1	2
578.130	1	5
578.300	1	9
578.470	1	9
578.640	1	5
578.810	1	5
578.979	1	-4
579.149	1	-1
579.319	1	-9
579.489	1	0
579.659	1	5
579.829	1	4
579.998	1	6
580.168	1	4
580.338	1	6
580.508	1	1
580.678	1	-2
580.848	1	-5
581.017	1	-3
581.187	1	5
581.357	1	-9
581.527	1	10
581.697	1	4
581.867	1	5
582.036	1	4
582.206	1	6
582.376	1	7
582.546	1	-3
582.716	1	-10
582.885	1	3
583.055	1	0
583.225	1	-11
583.395	1	5
583.565	1	-5
583.735	1	16
583.904	1	9
584.074	1	14
584.244	1	-1
584.414	1	6
584.584	1	7
584.753	1	-2
584.923	1	6
585.093	1	6
585.263	1	1
585.433	1	2
585.602	1	1
585.772	1	-8
585.942	1	0
586.112	1	0
586.282	1	-3
586.451	1	-3
586.621	1	3
586.791	1	0
586.961	1	0
587.131	1	7
587.300	1	-4
587.470	1	9
587.640	1	6
587.810	1	-1
587.980	1	1
588.149	1	3
588.319	1	-2
588.489	1	3
588.659	1	5
588.829	1	9
588.998	1	8
589.168	1	8
589.338	1	-5
589.508	1	4
589.677	1	1
589.847	1	-9
590.017	1	7
590.187	1	-3
590.357	1	10
590.526	1	9
590.696	1	6
590.866	1	9
591.036	1	1
591.205	1	15
591.375	1	1
591.545	1	-3
591.715	1	10
591.885	1	-4
592.054	1	8
592.224	1	3
592.394	1	6
592.564	1	1
592.733	1	3
592.903	1	8
593.073	1	2
593.243	1	10
593.412	1	2
593.582	1	6
593.752	1	-1
593.922	1	-4
594.091	1	-1
594.261	1	7
594.431	1	1
594.601	1	8
594.771	1	6
594.940	1	5
595.110	1	-2
595.280	1	5
595.450	1	4
595.619	1	0
595.789	1	8
595.959	1	3
596.129	1	-2
596.298	1	-3
596.468	1	2
596.638	1	10
596.808	1	7
596.977	1	2
597.147	1	5
597.317	1	4
597.487	1	9
597.656	1	2
597.826	1	-3
597.996	1	9
598.166	1	-4
598.335	1	3
598.505	1	0
598.675	1	-5
598.844	1	5
599.014	1	8
599.184	1	1
599.354	1	-11
599.523	1	1
599.693	1	3
599.863	1	6
600.033	1	-1
600.202	1	3
600.372	1	4
600.542	1	8
600.712	1	-5
600.881	1	4
601.051	1	8
601.221	1	8
601.390	1	-12
601.560	1	1
601.730	1	6
601.900	1	6
602.069	1	3
602.239	1	-4
602.409	1	-5
602.578	1	-3
602.748	1	0
602.918	1	3
603.088	1	13
603.257	1	0
603.427	1	-2
603.597	1	4
603.767	1	6
603.936	1	9
604.106	1	-1
604.276	1	4
604.445	1	8
604.615	1	-3
604.785	1	-2
604.954	1	2
605.124	1	9
605.294	1	7
605.464	1	-1
605.633	1	5
605.803	1	13
605.973	1	-5
606.142	1	6
606.312	1	5
606.482	1	6
606.652	1	1
606.821	1	6
606.991	1	7
607.161	1	-2
607.330	1	10
607.500	1	6
607.670	1	-9
607.839	1	12
608.009	1	4
608.179	1	-7
608.348	1	7
608.518	1	2
608.688	1	11
608.858	1	1
609.027	1	-3
609.197	1	3
609.367	1	11
609.536	1	5
609.706	1	-4
609.876	1	-3
610.045	1	-2
610.215	1	13
610.385	1	6
610.554	1	-2
610.724	1	11
610.894	1	-5
611.063	1	2
611.233	1	4
611.403	1	-5
611.572	1	4
611.742	1	4
611.912	1	-1
612.081	1	-4
612.251	1	5
612.421	1	-2
612.590	1	1
612.760	1	-5
612.930	1	4
613.099	1	3
613.269	1	7
613.439	1	9
613.608	1	4
613.778	1	11
613.948	1	-7
614.117	1	11
614.287	1	10
614.457	1	3
614.626	1	-5
614.796	1	5
614.966	1	0
615.135	1	-4
615.305	1	16
615.475	1	8
615.644	1	0
615.814	1	-1
615.984	1	-5
616.153	1	0
616.323	1	3
616.493	1	4
616.662	1	11
616.832	1	11
617.002	1	-6
617.171	1	10
617.341	1	-5
617.511	1	-3
617.680	1	14
617.850	1	8
618.019	1	3
618.189	1	12
618.359	1	13
618.528	1	1
618.698	1	7
618.868	1	-7
619.037	1	1
619.207	1	-3
619.377	1	-1
619.546	1	0
619.716	1	4
619.885	1	-2
620.055	1	1
620.225	1	8
620.394	1	8
620.564	1	3
620.734	1	9
620.903	1	2
621.073	1	5
621.242	1	9
621.412	1	9
621.582	1	2
621.751	1	13
621.921	1	3
622.091	1	-2
622.260	1	8
622.430	1	11
622.599	1	4
622.769	1	1
622.939	1	4
623.108	1	1
623.278	1	0
623.448	1	4
623.617	1	1
623.787	1	2
623.956	1	3
624.126	1	11
624.296	1	-9
624.465	1	6
624.635	1	8
624.804	1	2
624.974	1	2
625.144	1	12
625.313	1	-3
625.483	1	3
625.652	1	0
625.822	1	8
625.992	1	-3
626.161	1	11
626.331	1	3
626.501	1	7
626.670	1	0
626.840	1	8
627.009	1	-2
627.179	1	9
627.348	1	3
627.518	1	12
627.688	1	6
627.857	1	8
628.027	1	3
628.196	1	11
628.366	1	7
628.536	1	2
628.705	1	8
628.875	1	11
629.044	1	0
629.214	1	7
629.384	1	3
629.553	1	4
629.723	1	7
629.892	1	6
630.062	1	2
630.232	1	6
630.401	1	0
630.571	1	3
630.740	1	3
630.910	1	5
631.079	1	3
631.249	1	9
631.419	1	3
631.588	1	-11
631.758	1	2
631.927	1	3
632.097	1	2
632.266	1	-11
632.436	1	3
632.606	1	2
632.775	1	5
632.945	1	0
633.114	1	8
633.284	1	3
633.453	1	3
633.623	1	2
633.793	1	8
633.962	1	2
634.132	1	3
634.301	1	13
634.471	1	10
634.640	1	10
634.810	1	6
634.979	1	6
635.149	1	14
635.319	1	4
635.488	1	6
635.658	1	0
635.827	1	-9
635.997	1	-6
636.166	1	6
636.336	1	-5
636.505	1	2
636.675	1	4
636.845	1	14
637.014	1	11
637.184	1	13
637.353	1	4
637.523	1	8
637.692	1	-2
637.862	1	14
638.031	1	10
638.201	1	6
638.370	1	5
638.540	1	6
638.710	1	11
638.879	1	-7
639.049	1	6
639.218	1	-1
639.388	1	7
639.557	1	4
639.727	1	8
639.896	1	2
640.066	1	-7
640.235	1	4
640.405	1	11
640.574	1	-5
640.744	1	4
640.914	1	10
641.083	1	-5
641.253	1	5
641.422	1	-1
641.592	1	14
641.761	1	5
641.931	1	6
642.100	1	22
642.270	1	-3
642.439	1	-1
642.609	1	4
642.778	1	1
642.948	1	1
643.117	1	12
643.287	1	4
643.456	1	1
643.626	1	14
643.795	1	14
643.965	1	7
644.134	1	-7
644.304	1	4
644.473	1	4
644.643	1	5
644.812	1	10
644.982	1	0
645.151	1	8
645.321	1	1
645.490	1	0
645.660	1	-10
645.829	1	2
645.999	1	-3
646.168	1	7
646.338	1	6
646.507	1	8
646.677	1	9
646.846	1	11
647.016	1	1
647.185	1	7
647.355	1	-15
647.524	1	10
647.694	1	6
647.863	1	11
648.033	1	6
648.202	1	16
648.372	1	5
648.541	1	-3
648.711	1	-4
648.880	1	-10
649.050	1	-1
649.219	1	-2
649.389	1	10
649.558	1	3
649.728	1	0
649.897	1	-4
650.067	1	13
650.236	1	5
650.406	1	5
650.575	1	14
650.745	1	10
650.914	1	3
651.084	1	-7
651.253	1	11
651.423	1	13
651.592	1	7
651.762	1	-1
651.931	1	10
652.101	1	12
652.270	1	4
652.440	1	14
652.609	1	-7
652.778	1	2
652.948	1	8
653.117	1	7
653.287	1	-2
653.456	1	6
653.626	1	19
653.795	1	1
653.965	1	6
654.134	1	7
654.304	1	-5
654.473	1	13
654.643	1	7
654.812	1	4
654.982	1	7
655.151	1	-4
655.320	1	0
655.490	1	-4
655.659	1	4
655.829	1	5
655.998	1	3
656.168	1	1
656.337	1	6
656.507	1	7
656.676	1	8
656.846	1	14
657.015	1	2
657.184	1	14
657.354	1	7
657.523	1	-3
657.693	1	11
657.862	1	10
658.032	1	-3
658.201	1	15
658.371	1	14
658.540	1	8
658.709	1	-3
658.879	1	21
659.048	1	5
659.218	1	6
659.387	1	0
659.557	1	7
659.726	1	7
659.895	1	1
660.065	1	-10
660.234	1	7
660.404	1	8
660.573	1	6
660.743	1	9
660.912	1	6
661.081	1	13
661.251	1	4
661.420	1	4
661.590	1	-6
661.759	1	8
661.929	1	10
662.098	1	18
662.267	1	1
662.437	1	13
662.606	1	10
662.776	1	9
662.945	1	6
663.115	1	3
663.284	1	-4
663.453	1	7
663.623	1	5
663.792	1	4
663.962	1	10
664.131	1	7
664.300	1	23
664.470	1	5
664.639	1	7
664.809	1	-4
664.978	1	14
665.148	1	7
665.317	1	8
665.486	1	13
665.656	1	3
665.825	1	4
665.995	1	9
666.164	1	2
666.333	1	4
666.503	1	-1
666.672	1	2
666.842	1	-2
667.011	1	3
667.180	1	11
667.350	1	12
667.519	1	2
667.689	1	3
667.858	1	8
668.027	1	17
668.197	1	1
668.366	1	-2
668.536	1	2
668.705	1	10
668.874	1	10
669.044	1	3
669.213	1	8
669.382	1	1
669.552	1	4
669.721	1	12
669.891	1	22
670.060	1	4
670.229	1	18
670.399	1	1
670.568	1	17
670.738	1	14
670.907	1	0
671.076	1	-2
671.246	1	8
671.415	1	0
671.584	1	-1
671.754	1	5
671.923	1	1
672.093	1	9
672.262	1	1
672.431	1	16
672.601	1	6
672.770	1	-5
672.939	1	8
673.109	1	2
673.278	1	11
673.448	1	12
673.617	1	-4
673.786	1	5
