325.333	1	19
325.504	1	8
325.675	1	9
325.846	1	11
326.017	1	3
326.188	1	5
326.359	1	-3
326.531	1	4
326.702	1	8
326.873	1	17
327.044	1	6
327.215	1	10
327.386	1	14
327.557	1	11
327.728	1	8
327.899	1	12
328.070	1	23
328.241	1	13
328.412	1	7
328.583	1	18
328.754	1	18
328.926	1	22
329.097	1	8
329.268	1	18
329.439	1	14
329.610	1	11
329.781	1	9
329.952	1	13
330.123	1	14
330.294	1	12
330.465	1	12
330.636	1	11
330.807	1	4
330.978	1	4
331.149	1	13
331.320	1	11
331.492	1	18
331.663	1	14
331.834	1	16
332.005	1	14
332.176	1	26
332.347	1	19
332.518	1	7
332.689	1	11
332.860	1	13
333.031	1	21
333.202	1	3
333.373	1	29
333.544	1	12
333.715	1	19
333.886	1	8
334.057	1	12
334.228	1	16
334.399	1	13
334.570	1	25
334.741	1	3
334.912	1	14
335.084	1	27
335.255	1	9
335.426	1	12
335.597	1	14
335.768	1	20
335.939	1	18
336.110	1	12
336.281	1	6
336.452	1	20
336.623	1	22
336.794	1	13
336.965	1	9
337.136	1	23
337.307	1	16
337.478	1	8
337.649	1	21
337.820	1	17
337.991	1	14
338.162	1	21
338.333	1	6
338.504	1	24
338.675	1	12
338.846	1	17
339.017	1	12
339.188	1	12
339.359	1	6
339.530	1	13
339.701	1	17
339.872	1	31
340.043	1	13
340.214	1	13
340.385	1	29
340.556	1	11
340.727	1	18
340.898	1	29
341.069	1	26
341.240	1	20
341.411	1	28
341.582	1	30
341.753	1	11
341.924	1	14
342.095	1	36
342.266	1	33
342.437	1	26
342.608	1	20
342.779	1	18
342.950	1	30
343.121	1	20
343.292	1	24
343.463	1	19
343.634	1	22
343.805	1	33
343.976	1	25
344.147	1	19
344.318	1	13
344.489	1	16
344.660	1	30
344.831	1	22
345.002	1	16
345.173	1	29
345.344	1	22
345.515	1	24
345.686	1	30
345.857	1	24
346.028	1	27
346.199	1	30
346.370	1	22
346.541	1	20
346.712	1	18
346.883	1	13
347.054	1	18
347.225	1	31
347.396	1	39
347.567	1	16
347.738	1	34
347.909	1	44
348.080	1	20
348.251	1	33
348.422	1	37
348.593	1	28
348.764	1	25
348.935	1	34
349.106	1	27
349.277	1	29
349.448	1	34
349.619	1	29
349.790	1	25
349.961	1	29
350.132	1	38
350.303	1	24
350.474	1	36
350.645	1	37
350.816	1	25
350.987	1	29
351.157	1	31
351.328	1	30
351.499	1	36
351.670	1	32
351.841	1	34
352.012	1	43
352.183	1	42
352.354	1	36
352.525	1	41
352.696	1	48
352.867	1	37
353.038	1	42
353.209	1	44
353.380	1	29
353.551	1	27
353.722	1	31
353.893	1	38
354.064	1	37
354.235	1	33
354.406	1	33
354.576	1	32
354.747	1	41
354.918	1	39
355.089	1	42
355.260	1	43
355.431	1	38
355.602	1	31
355.773	1	28
355.944	1	35
356.115	1	34
356.286	1	33
356.457	1	42
356.628	1	36
356.799	1	36
356.970	1	39
357.141	1	37
357.311	1	29
357.482	1	40
357.653	1	48
357.824	1	40
357.995	1	28
358.166	1	31
358.337	1	37
358.508	1	37
358.679	1	43
358.850	1	34
359.021	1	46
359.192	1	39
359.363	1	41
359.533	1	43
359.704	1	40
359.875	1	35
360.046	1	34
360.217	1	42
360.388	1	39
360.559	1	35
360.730	1	45
360.901	1	44
361.072	1	52
361.243	1	49
361.414	1	42
361.584	1	35
361.755	1	42
361.926	1	41
362.097	1	40
362.268	1	51
362.439	1	36
362.610	1	52
362.781	1	36
362.952	1	32
363.123	1	37
363.293	1	41
363.464	1	36
363.635	1	44
363.806	1	44
363.977	1	47
364.148	1	37
364.319	1	47
364.490	1	42
364.661	1	49
364.832	1	46
365.002	1	46
365.173	1	38
365.344	1	49
365.515	1	37
365.686	1	42
365.857	1	46
366.028	1	57
366.199	1	43
366.370	1	51
366.540	1	41
366.711	1	25
366.882	1	34
367.053	1	38
367.224	1	57
367.395	1	50
367.566	1	58
367.737	1	46
367.908	1	44
368.078	1	44
368.249	1	50
368.420	1	41
368.591	1	44
368.762	1	46
368.933	1	43
369.104	1	39
369.274	1	38
369.445	1	44
369.616	1	48
369.787	1	48
369.958	1	52
370.129	1	33
370.300	1	47
370.471	1	51
370.641	1	48
370.812	1	45
370.983	1	53
371.154	1	42
371.325	1	50
371.496	1	44
371.667	1	51
371.837	1	38
372.008	1	44
372.179	1	42
372.350	1	57
372.521	1	43
372.692	1	48
372.863	1	50
373.033	1	38
373.204	1	42
373.375	1	47
373.546	1	54
373.717	1	53
373.888	1	47
374.059	1	59
374.229	1	49
374.400	1	40
374.571	1	38
374.742	1	52
374.913	1	51
375.084	1	45
375.254	1	50
375.425	1	59
375.596	1	52
375.767	1	41
375.938	1	53
376.109	1	48
376.279	1	39
376.450	1	48
376.621	1	52
376.792	1	49
376.963	1	41
377.134	1	53
377.304	1	52
377.475	1	43
377.646	1	46
377.817	1	53
377.988	1	49
378.159	1	58
378.329	1	58
378.500	1	45
378.671	1	61
378.842	1	44
379.013	1	47
379.184	1	50
379.354	1	55
379.525	1	50
379.696	1	57
379.867	1	50
380.038	1	51
380.209	1	64
380.379	1	48
380.550	1	42
380.721	1	51
380.892	1	53
381.063	1	58
381.233	1	50
381.404	1	49
381.575	1	55
381.746	1	56
381.917	1	52
382.087	1	53
382.258	1	51
382.429	1	60
382.600	1	68
382.771	1	54
382.941	1	55
383.112	1	51
383.283	1	49
383.454	1	52
383.625	1	48
383.795	1	63
383.966	1	58
384.137	1	59
384.308	1	63
384.479	1	51
384.649	1	51
384.820	1	54
384.991	1	55
385.162	1	62
385.333	1	57
385.503	1	53
385.674	1	52
385.845	1	69
386.016	1	58
386.187	1	59
386.357	1	55
386.528	1	60
386.699	1	47
386.870	1	74
387.041	1	66
387.211	1	70
387.382	1	68
387.553	1	64
387.724	1	58
387.894	1	59
388.065	1	50
388.236	1	65
388.407	1	63
388.578	1	58
388.748	1	57
388.919	1	79
389.090	1	68
389.261	1	53
389.431	1	76
389.602	1	71
389.773	1	69
389.944	1	59
390.114	1	53
390.285	1	56
390.456	1	67
390.627	1	59
390.798	1	59
390.968	1	60
391.139	1	66
391.310	1	63
391.481	1	68
391.651	1	69
391.822	1	53
391.993	1	59
392.164	1	58
392.334	1	63
392.505	1	54
392.676	1	78
392.847	1	74
393.017	1	64
393.188	1	55
393.359	1	57
393.530	1	56
393.700	1	66
393.871	1	68
394.042	1	59
394.213	1	60
394.383	1	68
394.554	1	58
394.725	1	63
394.896	1	51
395.066	1	70
395.237	1	61
395.408	1	60
395.579	1	69
395.749	1	59
395.920	1	58
396.091	1	66
396.262	1	63
396.432	1	59
396.603	1	73
396.774	1	84
396.945	1	72
397.115	1	75
397.286	1	75
397.457	1	61
397.627	1	59
397.798	1	74
397.969	1	65
398.140	1	51
398.310	1	66
398.481	1	68
398.652	1	50
398.823	1	60
398.993	1	58
399.164	1	71
399.335	1	89
399.505	1	68
399.676	1	66
399.847	1	72
400.018	1	63
400.188	1	71
400.359	1	76
400.530	1	50
400.700	1	67
400.871	1	60
401.042	1	65
401.213	1	75
401.383	1	75
401.554	1	80
401.725	1	71
401.895	1	50
402.066	1	67
402.237	1	74
402.408	1	62
402.578	1	77
402.749	1	78
402.920	1	69
403.090	1	60
403.261	1	65
403.432	1	70
403.603	1	69
403.773	1	69
403.944	1	73
404.115	1	81
404.285	1	69
404.456	1	62
404.627	1	62
404.797	1	64
404.968	1	70
405.139	1	65
405.310	1	78
405.480	1	75
405.651	1	71
405.822	1	75
405.992	1	66
406.163	1	77
406.334	1	64
406.504	1	70
406.675	1	83
406.846	1	67
407.016	1	72
407.187	1	85
407.358	1	63
407.528	1	64
407.699	1	60
407.870	1	62
408.041	1	68
408.211	1	79
408.382	1	68
408.553	1	57
408.723	1	81
408.894	1	65
409.065	1	72
409.235	1	62
409.406	1	81
409.577	1	59
409.747	1	78
409.918	1	69
410.089	1	74
410.259	1	72
410.430	1	75
410.601	1	70
410.771	1	65
410.942	1	80
411.113	1	77
411.283	1	70
411.454	1	80
411.625	1	66
411.795	1	76
411.966	1	82
412.137	1	76
412.307	1	58
412.478	1	77
412.649	1	70
412.819	1	76
412.990	1	69
413.161	1	81
413.331	1	57
413.502	1	73
413.672	1	66
413.843	1	59
414.014	1	59
414.184	1	82
414.355	1	59
414.526	1	67
414.696	1	82
414.867	1	64
415.038	1	63
415.208	1	70
415.379	1	76
415.550	1	78
415.720	1	71
415.891	1	55
416.062	1	66
416.232	1	72
416.403	1	63
416.573	1	71
416.744	1	64
416.915	1	65
417.085	1	73
417.256	1	69
417.427	1	67
417.597	1	74
417.768	1	63
417.939	1	72
418.109	1	60
418.280	1	67
418.450	1	66
418.621	1	65
418.792	1	81
418.962	1	73
419.133	1	83
419.304	1	64
419.474	1	59
419.645	1	71
419.815	1	68
419.986	1	74
420.157	1	75
420.327	1	74
420.498	1	74
420.669	1	58
420.839	1	73
421.010	1	72
421.180	1	68
421.351	1	64
421.522	1	71
421.692	1	73
421.863	1	65
422.033	1	69
422.204	1	75
422.375	1	62
422.545	1	74
422.716	1	62
422.886	1	68
423.057	1	65
423.228	1	66
423.398	1	66
423.569	1	59
423.740	1	62
423.910	1	51
424.081	1	65
424.251	1	66
424.422	1	79
424.593	1	51
424.763	1	69
424.934	1	62
425.104	1	62
425.275	1	71
425.445	1	61
425.616	1	51
425.787	1	65
425.957	1	62
426.128	1	67
426.298	1	68
426.469	1	50
426.640	1	66
426.810	1	74
426.981	1	62
427.151	1	60
427.322	1	64
427.493	1	59
427.663	1	74
427.834	1	60
428.004	1	62
428.175	1	62
428.345	1	54
428.516	1	60
428.687	1	67
428.857	1	52
429.028	1	56
429.198	1	60
429.369	1	60
429.540	1	60
429.710	1	54
429.881	1	62
430.051	1	57
430.222	1	54
430.392	1	64
430.563	1	68
430.734	1	67
430.904	1	62
431.075	1	60
431.245	1	52
431.416	1	63
431.586	1	63
431.757	1	58
431.927	1	63
432.098	1	64
432.269	1	54
432.439	1	64
432.610	1	58
432.780	1	63
432.951	1	69
433.121	1	57
433.292	1	63
433.462	1	64
433.633	1	58
433.804	1	59
433.974	1	66
434.145	1	70
434.315	1	57
434.486	1	51
434.656	1	61
434.827	1	52
434.997	1	59
435.168	1	61
435.339	1	72
435.509	1	59
435.680	1	66
435.850	1	54
436.021	1	66
436.191	1	58
436.362	1	58
436.532	1	67
436.703	1	56
436.873	1	60
437.044	1	44
437.214	1	57
437.385	1	68
437.556	1	50
437.726	1	64
437.897	1	71
438.067	1	49
438.238	1	63
438.408	1	71
438.579	1	53
438.749	1	62
438.920	1	49
439.090	1	61
439.261	1	63
439.431	1	50
439.602	1	58
439.772	1	43
439.943	1	56
440.113	1	63
440.284	1	59
440.455	1	59
440.625	1	56
440.796	1	65
440.966	1	49
441.137	1	62
441.307	1	52
441.478	1	65
441.648	1	58
441.819	1	57
441.989	1	57
442.160	1	55
442.330	1	54
442.501	1	63
442.671	1	55
442.842	1	48
443.012	1	49
443.183	1	60
443.353	1	52
443.524	1	53
443.694	1	63
443.865	1	51
444.035	1	58
444.206	1	56
444.376	1	43
444.547	1	60
444.717	1	51
444.888	1	51
445.058	1	59
445.229	1	52
445.399	1	52
445.570	1	63
445.740	1	53
445.911	1	51
446.081	1	53
446.252	1	67
446.422	1	43
446.593	1	46
446.763	1	52
446.934	1	47
447.104	1	54
447.275	1	44
447.445	1	47
447.616	1	65
447.786	1	47
447.957	1	49
448.127	1	47
448.298	1	64
448.468	1	57
448.639	1	52
448.809	1	50
448.979	1	42
449.150	1	48
449.320	1	56
449.491	1	58
449.661	1	54
449.832	1	39
450.002	1	57
450.173	1	52
450.343	1	40
450.514	1	47
450.684	1	42
450.855	1	44
451.025	1	57
451.196	1	61
451.366	1	52
451.537	1	48
451.707	1	31
451.878	1	43
452.048	1	61
452.218	1	55
452.389	1	48
452.559	1	42
452.730	1	55
452.900	1	47
453.071	1	39
453.241	1	46
453.412	1	40
453.582	1	50
453.753	1	57
453.923	1	48
454.093	1	53
454.264	1	68
454.434	1	50
454.605	1	57
454.775	1	45
454.946	1	42
455.116	1	40
455.287	1	38
455.457	1	41
455.628	1	45
455.798	1	54
455.968	1	45
456.139	1	39
456.309	1	49
456.480	1	38
456.650	1	42
456.821	1	40
456.991	1	47
457.161	1	43
457.332	1	41
457.502	1	26
457.673	1	51
457.843	1	45
458.014	1	41
458.184	1	56
458.355	1	51
458.525	1	42
458.695	1	52
458.866	1	39
459.036	1	52
459.207	1	54
459.377	1	31
459.548	1	47
459.718	1	38
459.888	1	37
460.059	1	51
460.229	1	44
460.400	1	48
460.570	1	45
460.740	1	51
460.911	1	44
461.081	1	52
461.252	1	39
461.422	1	35
461.593	1	39
461.763	1	48
461.933	1	55
462.104	1	28
462.274	1	50
462.445	1	46
462.615	1	41
462.785	1	41
462.956	1	44
463.126	1	48
463.297	1	41
463.467	1	31
463.638	1	45
463.808	1	42
463.978	1	34
464.149	1	35
464.319	1	38
464.490	1	48
464.660	1	38
464.830	1	40
465.001	1	34
465.171	1	40
465.342	1	40
465.512	1	29
465.682	1	38
465.853	1	39
466.023	1	41
466.194	1	39
466.364	1	51
466.534	1	47
466.705	1	45
466.875	1	38
467.045	1	24
467.216	1	52
467.386	1	30
467.557	1	29
467.727	1	24
467.897	1	32
468.068	1	41
468.238	1	39
468.409	1	37
468.579	1	40
468.749	1	32
468.920	1	27
469.090	1	36
469.260	1	31
469.431	1	38
469.601	1	37
469.772	1	35
469.942	1	27
470.112	1	41
470.283	1	34
470.453	1	42
470.623	1	33
470.794	1	24
470.964	1	36
471.135	1	39
471.305	1	26
471.475	1	50
471.646	1	28
471.816	1	25
471.986	1	37
472.157	1	43
472.327	1	22
472.497	1	47
472.668	1	33
472.838	1	37
473.009	1	30
473.179	1	20
473.349	1	21
473.520	1	32
473.690	1	30
473.860	1	28
474.031	1	24
474.201	1	33
474.371	1	34
474.542	1	39
474.712	1	28
474.882	1	34
475.053	1	33
475.223	1	29
475.394	1	45
475.564	1	19
475.734	1	38
475.905	1	43
476.075	1	20
476.245	1	42
476.416	1	44
476.586	1	43
476.756	1	38
476.927	1	39
477.097	1	37
477.267	1	22
477.438	1	37
477.608	1	36
477.778	1	32
477.949	1	43
478.119	1	36
478.289	1	39
478.460	1	35
478.630	1	20
478.800	1	26
478.971	1	26
479.141	1	24
479.311	1	14
479.482	1	25
479.652	1	17
479.822	1	28
479.993	1	33
480.163	1	30
480.333	1	15
480.504	1	45
480.674	1	27
480.844	1	9
481.015	1	41
481.185	1	29
481.355	1	33
481.525	1	21
481.696	1	30
481.866	1	24
482.036	1	26
482.207	1	22
482.377	1	33
482.547	1	32
482.718	1	14
482.888	1	37
483.058	1	26
483.229	1	24
483.399	1	16
483.569	1	25
483.740	1	15
483.910	1	22
484.080	1	27
484.250	1	32
484.421	1	34
484.591	1	23
484.761	1	25
484.932	1	36
485.102	1	26
485.272	1	30
485.443	1	38
485.613	1	32
485.783	1	18
485.953	1	35
486.124	1	35
486.294	1	23
486.464	1	30
486.635	1	34
486.805	1	32
486.975	1	32
487.146	1	23
487.316	1	28
487.486	1	35
487.656	1	22
487.827	1	16
487.997	1	19
488.167	1	16
488.338	1	28
488.508	1	23
488.678	1	27
488.848	1	36
489.019	1	25
489.189	1	34
489.359	1	19
489.529	1	25
489.700	1	24
489.870	1	38
490.040	1	18
490.211	1	12
490.381	1	25
490.551	1	21
490.721	1	31
490.892	1	21
491.062	1	23
491.232	1	34
491.402	1	23
491.573	1	0
491.743	1	38
491.913	1	20
492.084	1	29
492.254	1	21
492.424	1	27
492.594	1	20
492.765	1	24
492.935	1	16
493.105	1	24
493.275	1	14
493.446	1	27
493.616	1	29
493.786	1	21
493.956	1	25
494.127	1	20
494.297	1	19
494.467	1	15
494.637	1	31
494.808	1	16
494.978	1	17
495.148	1	29
495.318	1	13
495.489	1	20
495.659	1	24
495.829	1	18
495.999	1	19
496.170	1	23
496.340	1	27
496.510	1	23
496.680	1	-2
496.851	1	21
497.021	1	20
497.191	1	13
497.361	1	30
497.532	1	21
497.702	1	22
497.872	1	26
498.042	1	28
498.213	1	23
498.383	1	19
498.553	1	12
498.723	1	7
498.894	1	17
499.064	1	12
499.234	1	15
499.404	1	22
499.574	1	24
499.745	1	29
499.915	1	12
500.085	1	25
500.255	1	29
500.426	1	14
500.596	1	15
500.766	1	14
500.936	1	24
501.106	1	7
501.277	1	14
501.447	1	19
501.617	1	11
501.787	1	10
501.958	1	10
502.128	1	13
502.298	1	15
502.468	1	19
502.638	1	16
502.809	1	16
502.979	1	7
503.149	1	23
503.319	1	6
503.489	1	21
503.660	1	18
503.830	1	16
504.000	1	20
504.170	1	13
504.340	1	18
504.511	1	22
504.681	1	14
504.851	1	21
505.021	1	18
505.192	1	17
505.362	1	28
505.532	1	19
505.702	1	10
505.872	1	14
506.043	1	13
506.213	1	2
506.383	1	6
506.553	1	29
506.723	1	14
506.893	1	15
507.064	1	18
507.234	1	16
507.404	1	15
507.574	1	17
507.744	1	16
507.915	1	21
508.085	1	25
508.255	1	17
508.425	1	4
508.595	1	18
508.766	1	24
508.936	1	8
509.106	1	22
509.276	1	21
509.446	1	12
509.616	1	15
509.787	1	22
509.957	1	12
510.127	1	13
510.297	1	9
510.467	1	9
510.638	1	14
510.808	1	8
510.978	1	12
511.148	1	18
511.318	1	11
511.488	1	6
511.659	1	16
511.829	1	8
511.999	1	20
512.169	1	16
512.339	1	17
512.509	1	16
512.680	1	15
512.850	1	12
513.020	1	27
513.190	1	15
513.360	1	0
513.530	1	11
513.700	1	27
513.871	1	12
514.041	1	8
514.211	1	22
514.381	1	26
514.551	1	16
514.721	1	14
514.892	1	18
515.062	1	12
515.232	1	21
515.402	1	0
515.572	1	14
515.742	1	16
515.912	1	21
516.083	1	18
516.253	1	15
516.423	1	18
516.593	1	21
516.763	1	27
516.933	1	5
517.104	1	6
517.274	1	8
517.444	1	15
517.614	1	9
517.784	1	12
517.954	1	15
518.124	1	18
518.294	1	11
518.465	1	1
518.635	1	11
518.805	1	7
518.975	1	11
519.145	1	6
519.315	1	15
519.485	1	9
519.656	1	18
519.826	1	13
519.996	1	4
520.166	1	16
520.336	1	11
520.506	1	9
520.676	1	0
520.846	1	24
521.017	1	11
521.187	1	12
521.357	1	23
521.527	1	6
521.697	1	14
521.867	1	11
522.037	1	13
522.207	1	23
522.377	1	14
522.548	1	14
522.718	1	6
522.888	1	21
523.058	1	15
523.228	1	6
523.398	1	9
523.568	1	17
523.738	1	12
523.909	1	17
524.079	1	12
524.249	1	5
524.419	1	17
524.589	1	9
524.759	1	8
524.929	1	6
525.099	1	12
525.269	1	15
525.439	1	5
525.610	1	22
525.780	1	4
525.950	1	13
526.120	1	12
526.290	1	21
526.460	1	1
526.630	1	23
526.800	1	12
526.970	1	13
527.140	1	13
527.311	1	5
527.481	1	-3
527.651	1	12
527.821	1	4
527.991	1	22
528.161	1	20
528.331	1	8
528.501	1	11
528.671	1	4
528.841	1	11
529.011	1	2
529.181	1	5
529.352	1	5
529.522	1	5
529.692	1	12
529.862	1	15
530.032	1	16
530.202	1	15
530.372	1	14
530.542	1	14
530.712	1	12
530.882	1	6
531.052	1	14
531.222	1	6
531.392	1	8
531.563	1	12
531.733	1	11
531.903	1	6
532.073	1	17
532.243	1	4
532.413	1	13
532.583	1	11
532.753	1	7
532.923	1	4
533.093	1	4
533.263	1	14
533.433	1	9
533.603	1	10
533.773	1	15
533.943	1	10
534.113	1	11
534.284	1	0
534.454	1	12
534.624	1	22
534.794	1	10
534.964	1	10
535.134	1	7
535.304	1	16
535.474	1	17
535.644	1	1
535.814	1	3
535.984	1	-5
536.154	1	7
536.324	1	10
536.494	1	23
536.664	1	14
536.834	1	12
537.004	1	7
537.174	1	16
537.344	1	4
537.514	1	-2
537.685	1	2
537.855	1	8
538.025	1	16
538.195	1	6
538.365	1	13
538.535	1	11
538.705	1	15
538.875	1	8
539.045	1	8
539.215	1	17
539.385	1	11
539.555	1	14
539.725	1	8
539.895	1	3
540.065	1	11
540.235	1	10
540.405	1	6
540.575	1	7
540.745	1	10
540.915	1	11
541.085	1	8
541.255	1	1
541.425	1	8
541.595	1	5
541.765	1	13
541.935	1	0
542.105	1	3
542.275	1	16
542.445	1	-4
542.615	1	-4
542.785	1	16
542.955	1	5
543.125	1	0
543.295	1	14
543.465	1	18
543.635	1	6
543.805	1	16
543.975	1	6
544.145	1	15
544.315	1	6
544.485	1	12
544.655	1	10
544.825	1	-4
544.995	1	11
545.165	1	8
545.335	1	16
545.505	1	4
545.675	1	10
545.845	1	19
546.015	1	11
546.185	1	17
546.355	1	17
546.525	1	13
546.695	1	5
546.865	1	0
547.035	1	17
547.205	1	-5
547.375	1	5
547.545	1	16
547.715	1	9
547.885	1	12
548.055	1	5
548.225	1	2
548.395	1	4
548.565	1	8
548.735	1	3
548.905	1	4
549.075	1	5
549.245	1	5
549.415	1	-3
549.585	1	9
549.755	1	6
549.925	1	2
550.095	1	14
550.265	1	6
550.435	1	3
550.605	1	-2
550.775	1	11
550.945	1	4
551.115	1	15
551.285	1	2
551.455	1	5
551.625	1	9
551.795	1	12
551.965	1	3
552.135	1	5
552.305	1	7
552.475	1	-2
552.645	1	4
552.815	1	2
552.985	1	9
553.155	1	14
553.325	1	9
553.495	1	-4
553.665	1	1
553.835	1	-4
554.004	1	12
554.174	1	5
554.344	1	10
554.514	1	-1
554.684	1	0
554.854	1	7
555.024	1	5
555.194	1	2
555.364	1	10
555.534	1	9
555.704	1	5
555.874	1	16
556.044	1	8
556.214	1	2
556.384	1	8
556.554	1	10
556.724	1	3
556.894	1	-1
557.064	1	10
557.234	1	-3
557.404	1	6
557.573	1	10
557.743	1	6
557.913	1	2
558.083	1	3
558.253	1	5
558.423	1	1
558.593	1	12
558.763	1	-3
558.933	1	4
559.103	1	8
559.273	1	9
559.443	1	4
559.613	1	14
559.783	1	-5
559.953	1	1
560.122	1	12
560.292	1	8
560.462	1	8
560.632	1	9
560.802	1	4
560.972	1	7
561.142	1	5
561.312	1	1
561.482	1	12
561.652	1	13
561.822	1	15
561.992	1	6
562.162	1	5
562.331	1	3
562.501	1	-3
562.671	1	15
562.841	1	-6
563.011	1	13
563.181	1	11
563.351	1	-4
563.521	1	13
563.691	1	-4
563.861	1	3
564.031	1	13
564.201	1	15
564.370	1	-4
564.540	1	6
564.710	1	3
564.880	1	12
565.050	1	9
565.220	1	1
565.390	1	6
565.560	1	12
565.730	1	0
565.900	1	12
566.069	1	19
566.239	1	6
566.409	1	10
566.579	1	15
566.749	1	6
566.919	1	6
567.089	1	1
567.259	1	10
567.429	1	7
567.599	1	1
567.768	1	7
567.938	1	6
568.108	1	8
568.278	1	10
568.448	1	4
568.618	1	7
568.788	1	4
568.958	1	1
569.128	1	2
569.297	1	2
569.467	1	5
569.637	1	9
569.807	1	2
569.977	1	13
570.147	1	11
570.317	1	0
570.487	1	8
570.656	1	8
570.826	1	2
570.996	1	-2
571.166	1	20
571.336	1	4
571.506	1	13
571.676	1	10
571.846	1	5
572.015	1	5
572.185	1	-2
572.355	1	5
572.525	1	4
572.695	1	-6
572.865	1	2
573.035	1	16
573.205	1	8
573.374	1	-2
573.544	1	2
573.714	1	9
573.884	1	3
574.054	1	6
574.224	1	19
574.394	1	4
574.563	1	-3
574.733	1	13
574.903	1	5
575.073	1	7
575.243	1	4
575.413	1	13
575.583	1	-2
575.752	1	4
575.922	1	1
576.092	1	12
576.262	1	7
576.432	1	11
576.602	1	-4
576.772	1	11
576.941	1	2
577.111	1	-2
577.281	1	-6
577.451	1	3
577.621	1	5
577.791	1	8
577.960	1	-1
578.130	1	12
578.300	1	10
578.470	1	17
578.640	1	9
578.810	1	8
578.979	1	12
579.149	1	6
579.319	1	-2
579.489	1	-5
579.659	1	4
579.829	1	9
579.998	1	12
580.168	1	13
580.338	1	-3
580.508	1	2
580.678	1	13
580.848	1	0
581.017	1	-4
581.187	1	6
581.357	1	1
581.527	1	6
581.697	1	13
581.867	1	10
582.036	1	3
582.206	1	4
582.376	1	9
582.546	1	-3
582.716	1	7
582.885	1	4
583.055	1	7
583.225	1	-9
583.395	1	0
583.565	1	2
583.735	1	9
583.904	1	7
584.074	1	11
584.244	1	4
584.414	1	2
584.584	1	13
584.753	1	-1
584.923	1	-4
585.093	1	7
585.263	1	4
585.433	1	-2
585.602	1	-4
585.772	1	7
585.942	1	2
586.112	1	11
586.282	1	-1
586.451	1	-1
586.621	1	0
586.791	1	3
586.961	1	3
587.131	1	14
587.300	1	-4
587.470	1	11
587.640	1	9
587.810	1	6
587.980	1	-3
588.149	1	4
588.319	1	7
588.489	1	4
588.659	1	6
588.829	1	4
588.998	1	7
589.168	1	5
589.338	1	7
589.508	1	8
589.677	1	-3
589.847	1	-1
590.017	1	14
590.187	1	1
590.357	1	11
590.526	1	17
590.696	1	8
590.866	1	11
591.036	1	7
591.205	1	16
591.375	1	-5
591.545	1	-3
591.715	1	12
591.885	1	2
592.054	1	0
592.224	1	3
592.394	1	0
592.564	1	13
592.733	1	9
592.903	1	11
593.073	1	-6
593.243	1	8
593.412	1	5
593.582	1	-2
593.752	1	-4
593.922	1	6
594.091	1	1
594.261	1	10
594.431	1	4
594.601	1	14
594.771	1	7
594.940	1	6
595.110	1	-4
595.280	1	13
595.450	1	5
595.619	1	4
595.789	1	5
595.959	1	9
596.129	1	0
596.298	1	7
596.468	1	9
596.638	1	6
596.808	1	-1
596.977	1	0
597.147	1	7
597.317	1	0
597.487	1	12
597.656	1	6
597.826	1	0
597.996	1	4
598.166	1	1
598.335	1	5
598.505	1	3
598.675	1	-1
598.844	1	3
599.014	1	1
599.184	1	1
599.354	1	-3
599.523	1	1
599.693	1	3
599.863	1	13
600.033	1	2
600.202	1	3
600.372	1	8
600.542	1	15
600.712	1	1
600.881	1	4
601.051	1	14
601.221	1	19
601.390	1	0
601.560	1	12
601.730	1	13
601.900	1	5
602.069	1	8
602.239	1	3
602.409	1	-6
602.578	1	10
602.748	1	7
602.918	1	11
603.088	1	-1
603.257	1	8
603.427	1	4
603.597	1	3
603.767	1	3
603.936	1	5
604.106	1	17
604.276	1	-1
604.445	1	11
604.615	1	11
604.785	1	8
604.954	1	-2
605.124	1	10
605.294	1	2
605.464	1	5
605.633	1	4
605.803	1	12
605.973	1	-3
606.142	1	13
606.312	1	15
606.482	1	8
606.652	1	0
606.821	1	-1
606.991	1	5
607.161	1	2
607.330	1	11
607.500	1	8
607.670	1	6
607.839	1	12
608.009	1	16
608.179	1	5
608.348	1	2
608.518	1	6
608.688	1	11
608.858	1	4
609.027	1	-2
609.197	1	7
609.367	1	9
609.536	1	14
609.706	1	7
609.876	1	4
610.045	1	4
610.215	1	14
610.385	1	1
610.554	1	8
610.724	1	8
610.894	1	10
611.063	1	0
611.233	1	2
611.403	1	2
611.572	1	10
611.742	1	14
611.912	1	3
612.081	1	6
612.251	1	18
612.421	1	-1
612.590	1	10
612.760	1	9
612.930	1	4
613.099	1	4
613.269	1	18
613.439	1	3
613.608	1	6
613.778	1	8
613.948	1	0
614.117	1	11
614.287	1	10
614.457	1	1
614.626	1	5
614.796	1	13
614.966	1	14
615.135	1	3
615.305	1	17
615.475	1	-3
615.644	1	7
615.814	1	6
615.984	1	4
616.153	1	7
616.323	1	5
616.493	1	5
616.662	1	15
616.832	1	1
617.002	1	8
617.171	1	10
617.341	1	4
617.511	1	-9
617.680	1	1
617.850	1	9
618.019	1	11
618.189	1	17
618.359	1	9
618.528	1	8
618.698	1	16
618.868	1	-3
619.037	1	9
619.207	1	-2
619.377	1	1
619.546	1	8
619.716	1	12
619.885	1	19
620.055	1	0
620.225	1	2
620.394	1	-3
620.564	1	5
620.734	1	12
620.903	1	1
621.073	1	14
621.242	1	9
621.412	1	6
621.582	1	3
621.751	1	14
621.921	1	9
622.091	1	-12
622.260	1	3
622.430	1	18
622.599	1	-1
622.769	1	11
622.939	1	11
623.108	1	4
623.278	1	-7
623.448	1	8
623.617	1	3
623.787	1	7
623.956	1	12
624.126	1	3
624.296	1	-3
624.465	1	11
624.635	1	8
624.804	1	4
624.974	1	2
625.144	1	6
625.313	1	1
625.483	1	-10
625.652	1	12
625.822	1	8
625.992	1	1
626.161	1	13
626.331	1	3
626.501	1	8
626.670	1	15
626.840	1	8
627.009	1	10
627.179	1	15
627.348	1	7
627.518	1	11
627.688	1	5
627.857	1	15
628.027	1	-4
628.196	1	0
628.366	1	15
628.536	1	8
628.705	1	12
628.875	1	9
629.044	1	14
629.214	1	15
629.384	1	7
629.553	1	14
629.723	1	4
629.892	1	12
630.062	1	4
630.232	1	8
630.401	1	12
630.571	1	8
630.740	1	9
630.910	1	9
631.079	1	0
631.249	1	6
631.419	1	19
631.588	1	6
631.758	1	7
631.927	1	4
632.097	1	10
632.266	1	15
632.436	1	8
632.606	1	7
632.775	1	10
632.945	1	12
633.114	1	10
633.284	1	19
633.453	1	8
633.623	1	4
633.793	1	14
633.962	1	5
634.132	1	8
634.301	1	-1
634.471	1	2
634.640	1	16
634.810	1	8
634.979	1	10
635.149	1	14
635.319	1	9
635.488	1	6
635.658	1	8
635.827	1	-5
635.997	1	0
636.166	1	13
636.336	1	5
636.505	1	22
636.675	1	8
636.845	1	9
637.014	1	20
637.184	1	8
637.353	1	13
637.523	1	12
637.692	1	1
637.862	1	12
638.031	1	3
638.201	1	13
638.370	1	14
638.540	1	8
638.710	1	10
638.879	1	3
639.049	1	7
639.218	1	10
639.388	1	2
639.557	1	3
639.727	1	8
639.896	1	21
640.066	1	4
640.235	1	16
640.405	1	12
640.574	1	11
640.744	1	9
640.914	1	12
641.083	1	8
641.253	1	2
641.422	1	2
641.592	1	14
641.761	1	9
641.931	1	6
642.100	1	26
642.270	1	-1
642.439	1	18
642.609	1	11
642.778	1	12
642.948	1	3
643.117	1	13
643.287	1	6
643.456	1	9
643.626	1	16
643.795	1	7
643.965	1	16
644.134	1	0
644.304	1	20
644.473	1	13
644.643	1	20
644.812	1	13
644.982	1	10
645.151	1	13
645.321	1	-6
645.490	1	15
645.660	1	-1
645.829	1	6
645.999	1	4
646.168	1	20
646.338	1	8
646.507	1	4
646.677	1	20
646.846	1	2
647.016	1	-1
647.185	1	14
647.355	1	-5
647.524	1	16
647.694	1	20
647.863	1	10
648.033	1	7
648.202	1	13
648.372	1	9
648.541	1	4
648.711	1	11
648.880	1	2
649.050	1	0
649.219	1	7
649.389	1	14
649.558	1	10
649.728	1	15
649.897	1	6
650.067	1	16
650.236	1	11
650.406	1	8
650.575	1	11
650.745	1	17
650.914	1	2
651.084	1	1
651.253	1	8
651.423	1	6
651.592	1	5
651.762	1	12
651.931	1	13
652.101	1	12
652.270	1	10
652.440	1	12
652.609	1	5
652.778	1	3
652.948	1	11
653.117	1	16
653.287	1	16
653.456	1	16
653.626	1	13
653.795	1	6
653.965	1	15
654.134	1	6
654.304	1	-2
654.473	1	14
654.643	1	14
654.812	1	8
654.982	1	17
655.151	1	10
655.320	1	12
655.490	1	4
655.659	1	12
655.829	1	7
655.998	1	9
656.168	1	3
656.337	1	15
656.507	1	10
656.676	1	20
656.846	1	12
657.015	1	11
657.184	1	19
657.354	1	15
657.523	1	9
657.693	1	12
657.862	1	17
658.032	1	4
658.201	1	15
658.371	1	19
658.540	1	12
658.709	1	11
658.879	1	8
659.048	1	14
659.218	1	0
659.387	1	19
659.557	1	17
659.726	1	17
659.895	1	9
660.065	1	12
660.234	1	8
660.404	1	16
660.573	1	11
660.743	1	11
660.912	1	8
661.081	1	21
661.251	1	11
661.420	1	11
661.590	1	13
661.759	1	13
661.929	1	17
662.098	1	22
662.267	1	10
662.437	1	15
662.606	1	4
662.776	1	16
662.945	1	14
663.115	1	1
663.284	1	22
663.453	1	13
663.623	1	10
663.792	1	10
663.962	1	8
664.131	1	16
664.300	1	14
664.470	1	6
664.639	1	15
664.809	1	11
664.978	1	10
665.148	1	5
665.317	1	13
665.486	1	13
665.656	1	12
665.825	1	22
665.995	1	11
666.164	1	8
666.333	1	12
666.503	1	8
666.672	1	0
666.842	1	12
667.011	1	9
667.180	1	14
667.350	1	20
667.519	1	12
667.689	1	17
667.858	1	13
668.027	1	18
668.197	1	1
668.366	1	3
668.536	1	0
668.705	1	13
668.874	1	16
669.044	1	14
669.213	1	12
669.382	1	8
669.552	1	19
669.721	1	24
669.891	1	8
670.060	1	14
670.229	1	19
670.399	1	6
670.568	1	11
670.738	1	26
670.907	1	4
671.076	1	8
671.246	1	16
671.415	1	9
671.584	1	11
671.754	1	13
671.923	1	12
672.093	1	17
672.262	1	12
672.431	1	9
672.601	1	14
672.770	1	5
672.939	1	21
673.109	1	2
673.278	1	9
673.448	1	23
673.617	1	4
673.786	1	20
