325.333	1	7
325.504	1	2
325.675	1	0
325.846	1	7
326.017	1	4
326.188	1	-1
326.359	1	7
326.531	1	-9
326.702	1	-3
326.873	1	5
327.044	1	1
327.215	1	1
327.386	1	10
327.557	1	-2
327.728	1	4
327.899	1	7
328.070	1	14
328.241	1	9
328.412	1	-7
328.583	1	7
328.754	1	4
328.926	1	6
329.097	1	0
329.268	1	12
329.439	1	2
329.610	1	14
329.781	1	5
329.952	1	10
330.123	1	15
330.294	1	-3
330.465	1	11
330.636	1	16
330.807	1	8
330.978	1	10
331.149	1	0
331.320	1	4
331.492	1	7
331.663	1	6
331.834	1	6
332.005	1	0
332.176	1	20
332.347	1	13
332.518	1	7
332.689	1	12
332.860	1	6
333.031	1	11
333.202	1	-2
333.373	1	6
333.544	1	-2
333.715	1	15
333.886	1	-4
334.057	1	3
334.228	1	2
334.399	1	11
334.570	1	13
334.741	1	4
334.912	1	17
335.084	1	18
335.255	1	6
335.426	1	-3
335.597	1	5
335.768	1	4
335.939	1	7
336.110	1	6
336.281	1	4
336.452	1	10
336.623	1	9
336.794	1	12
336.965	1	2
337.136	1	9
337.307	1	-5
337.478	1	7
337.649	1	5
337.820	1	11
337.991	1	10
338.162	1	11
338.333	1	3
338.504	1	16
338.675	1	13
338.846	1	11
339.017	1	12
339.188	1	2
339.359	1	-3
339.530	1	9
339.701	1	0
339.872	1	15
340.043	1	4
340.214	1	11
340.385	1	12
340.556	1	-4
340.727	1	20
340.898	1	17
341.069	1	11
341.240	1	8
341.411	1	18
341.582	1	15
341.753	1	0
341.924	1	6
342.095	1	14
342.266	1	9
342.437	1	12
342.608	1	7
342.779	1	15
342.950	1	14
343.121	1	7
343.292	1	1
343.463	1	16
343.634	1	10
343.805	1	15
343.976	1	15
344.147	1	12
344.318	1	12
344.489	1	7
344.660	1	20
344.831	1	12
345.002	1	7
345.173	1	3
345.344	1	4
345.515	1	14
345.686	1	20
345.857	1	8
346.028	1	10
346.199	1	3
346.370	1	8
346.541	1	6
346.712	1	7
346.883	1	18
347.054	1	6
347.225	1	13
347.396	1	14
347.567	1	10
347.738	1	-5
347.909	1	20
348.080	1	3
348.251	1	9
348.422	1	19
348.593	1	7
348.764	1	9
348.935	1	1
349.106	1	6
349.277	1	12
349.448	1	11
349.619	1	8
349.790	1	21
349.961	1	28
350.132	1	12
350.303	1	23
350.474	1	20
350.645	1	19
350.816	1	7
350.987	1	16
351.157	1	9
351.328	1	20
351.499	1	17
351.670	1	8
351.841	1	21
352.012	1	20
352.183	1	20
352.354	1	17
352.525	1	20
352.696	1	16
352.867	1	11
353.038	1	13
353.209	1	25
353.380	1	13
353.551	1	9
353.722	1	10
353.893	1	-1
354.064	1	26
354.235	1	13
354.406	1	21
354.576	1	17
354.747	1	13
354.918	1	13
355.089	1	13
355.260	1	26
355.431	1	20
355.602	1	17
355.773	1	21
355.944	1	17
356.115	1	20
356.286	1	23
356.457	1	23
356.628	1	19
356.799	1	12
356.970	1	19
357.141	1	10
357.311	1	11
357.482	1	24
357.653	1	20
357.824	1	25
357.995	1	16
358.166	1	9
358.337	1	20
358.508	1	23
358.679	1	19
358.850	1	20
359.021	1	16
359.192	1	9
359.363	1	15
359.533	1	10
359.704	1	15
359.875	1	18
360.046	1	9
360.217	1	5
360.388	1	22
360.559	1	15
360.730	1	23
360.901	1	17
361.072	1	26
361.243	1	13
361.414	1	13
361.584	1	10
361.755	1	21
361.926	1	16
362.097	1	18
362.268	1	20
362.439	1	12
362.610	1	21
362.781	1	17
362.952	1	17
363.123	1	25
363.293	1	11
363.464	1	15
363.635	1	14
363.806	1	19
363.977	1	18
364.148	1	14
364.319	1	19
364.490	1	24
364.661	1	19
364.832	1	25
365.002	1	18
365.173	1	18
365.344	1	22
365.515	1	17
365.686	1	25
365.857	1	16
366.028	1	18
366.199	1	21
366.370	1	25
366.540	1	11
366.711	1	3
366.882	1	17
367.053	1	12
367.224	1	31
367.395	1	25
367.566	1	23
367.737	1	25
367.908	1	15
368.078	1	21
368.249	1	21
368.420	1	12
368.591	1	15
368.762	1	26
368.933	1	22
369.104	1	20
369.274	1	22
369.445	1	15
369.616	1	18
369.787	1	22
369.958	1	35
370.129	1	6
370.300	1	28
370.471	1	12
370.641	1	23
370.812	1	23
370.983	1	21
371.154	1	9
371.325	1	28
371.496	1	16
371.667	1	24
371.837	1	18
372.008	1	20
372.179	1	17
372.350	1	26
372.521	1	19
372.692	1	17
372.863	1	23
373.033	1	8
373.204	1	18
373.375	1	20
373.546	1	20
373.717	1	21
373.888	1	25
374.059	1	21
374.229	1	35
374.400	1	15
374.571	1	26
374.742	1	27
374.913	1	31
375.084	1	21
375.254	1	19
375.425	1	30
375.596	1	34
375.767	1	33
375.938	1	24
376.109	1	31
376.279	1	22
376.450	1	23
376.621	1	26
376.792	1	22
376.963	1	26
377.134	1	28
377.304	1	23
377.475	1	25
377.646	1	30
377.817	1	18
377.988	1	24
378.159	1	29
378.329	1	24
378.500	1	21
378.671	1	29
378.842	1	18
379.013	1	6
379.184	1	18
379.354	1	36
379.525	1	19
379.696	1	29
379.867	1	36
380.038	1	22
380.209	1	33
380.379	1	31
380.550	1	23
380.721	1	33
380.892	1	38
381.063	1	41
381.233	1	24
381.404	1	23
381.575	1	33
381.746	1	25
381.917	1	22
382.087	1	26
382.258	1	16
382.429	1	33
382.600	1	33
382.771	1	21
382.941	1	34
383.112	1	23
383.283	1	31
383.454	1	26
383.625	1	12
383.795	1	21
383.966	1	20
384.137	1	35
384.308	1	27
384.479	1	30
384.649	1	26
384.820	1	19
384.991	1	18
385.162	1	29
385.333	1	17
385.503	1	21
385.674	1	9
385.845	1	31
386.016	1	30
386.187	1	33
386.357	1	24
386.528	1	42
386.699	1	33
386.870	1	32
387.041	1	28
387.211	1	33
387.382	1	40
387.553	1	25
387.724	1	19
387.894	1	43
388.065	1	16
388.236	1	33
388.407	1	35
388.578	1	22
388.748	1	19
388.919	1	39
389.090	1	21
389.261	1	20
389.431	1	34
389.602	1	35
389.773	1	38
389.944	1	33
390.114	1	25
390.285	1	21
390.456	1	30
390.627	1	20
390.798	1	22
390.968	1	36
391.139	1	29
391.310	1	20
391.481	1	42
391.651	1	33
391.822	1	20
391.993	1	31
392.164	1	26
392.334	1	29
392.505	1	25
392.676	1	36
392.847	1	39
393.017	1	37
393.188	1	42
393.359	1	29
393.530	1	28
393.700	1	32
393.871	1	29
394.042	1	26
394.213	1	21
394.383	1	24
394.554	1	26
394.725	1	26
394.896	1	18
395.066	1	21
395.237	1	24
395.408	1	25
395.579	1	26
395.749	1	30
395.920	1	27
396.091	1	34
396.262	1	26
396.432	1	36
396.603	1	43
396.774	1	34
396.945	1	25
397.115	1	36
397.286	1	32
397.457	1	31
397.627	1	30
397.798	1	33
397.969	1	32
398.140	1	32
398.310	1	42
398.481	1	34
398.652	1	30
398.823	1	30
398.993	1	37
399.164	1	29
399.335	1	48
399.505	1	41
399.676	1	30
399.847	1	36
400.018	1	21
400.188	1	34
400.359	1	41
400.530	1	21
400.700	1	39
400.871	1	33
401.042	1	38
401.213	1	36
401.383	1	31
401.554	1	47
401.725	1	45
401.895	1	35
402.066	1	30
402.237	1	38
402.408	1	40
402.578	1	28
402.749	1	44
402.920	1	39
403.090	1	28
403.261	1	30
403.432	1	32
403.603	1	45
403.773	1	42
403.944	1	49
404.115	1	42
404.285	1	44
404.456	1	30
404.627	1	29
404.797	1	20
404.968	1	31
405.139	1	25
405.310	1	43
405.480	1	34
405.651	1	27
405.822	1	36
405.992	1	22
406.163	1	37
406.334	1	23
406.504	1	33
406.675	1	53
406.846	1	42
407.016	1	38
407.187	1	48
407.358	1	36
407.528	1	32
407.699	1	29
407.870	1	34
408.041	1	38
408.211	1	43
408.382	1	34
408.553	1	28
408.723	1	40
408.894	1	29
409.065	1	45
409.235	1	33
409.406	1	36
409.577	1	24
409.747	1	33
409.918	1	25
410.089	1	31
410.259	1	32
410.430	1	19
410.601	1	43
410.771	1	36
410.942	1	50
411.113	1	39
411.283	1	31
411.454	1	27
411.625	1	40
411.795	1	45
411.966	1	37
412.137	1	32
412.307	1	28
412.478	1	35
412.649	1	36
412.819	1	28
412.990	1	27
413.161	1	34
413.331	1	31
413.502	1	44
413.672	1	41
413.843	1	36
414.014	1	34
414.184	1	41
414.355	1	31
414.526	1	38
414.696	1	38
414.867	1	37
415.038	1	32
415.208	1	47
415.379	1	42
415.550	1	35
415.720	1	34
415.891	1	32
416.062	1	29
416.232	1	40
416.403	1	40
416.573	1	28
416.744	1	19
416.915	1	38
417.085	1	29
417.256	1	28
417.427	1	39
417.597	1	28
417.768	1	21
417.939	1	38
418.109	1	33
418.280	1	36
418.450	1	29
418.621	1	22
418.792	1	40
418.962	1	47
419.133	1	44
419.304	1	34
419.474	1	26
419.645	1	32
419.815	1	19
419.986	1	42
420.157	1	42
420.327	1	31
420.498	1	42
420.669	1	35
420.839	1	38
421.010	1	43
421.180	1	33
421.351	1	33
421.522	1	40
421.692	1	29
421.863	1	27
422.033	1	33
422.204	1	34
422.375	1	30
422.545	1	37
422.716	1	34
422.886	1	29
423.057	1	38
423.228	1	24
423.398	1	31
423.569	1	40
423.740	1	28
423.910	1	24
424.081	1	37
424.251	1	30
424.422	1	37
424.593	1	34
424.763	1	41
424.934	1	33
425.104	1	30
425.275	1	38
425.445	1	30
425.616	1	31
425.787	1	35
425.957	1	40
426.128	1	49
426.298	1	29
426.469	1	26
426.640	1	35
426.810	1	23
426.981	1	34
427.151	1	32
427.322	1	37
427.493	1	32
427.663	1	38
427.834	1	32
428.004	1	41
428.175	1	35
428.345	1	27
428.516	1	28
428.687	1	45
428.857	1	13
429.028	1	34
429.198	1	31
429.369	1	39
429.540	1	33
429.710	1	13
429.881	1	48
430.051	1	42
430.222	1	25
430.392	1	31
430.563	1	45
430.734	1	37
430.904	1	45
431.075	1	41
431.245	1	23
431.416	1	28
431.586	1	31
431.757	1	29
431.927	1	26
432.098	1	26
432.269	1	16
432.439	1	35
432.610	1	23
432.780	1	40
432.951	1	28
433.121	1	25
433.292	1	37
433.462	1	32
433.633	1	32
433.804	1	31
433.974	1	29
434.145	1	39
434.315	1	35
434.486	1	18
434.656	1	26
434.827	1	27
434.997	1	30
435.168	1	32
435.339	1	38
435.509	1	33
435.680	1	23
435.850	1	29
436.021	1	36
436.191	1	31
436.362	1	34
436.532	1	30
436.703	1	31
436.873	1	32
437.044	1	8
437.214	1	28
437.385	1	30
437.556	1	26
437.726	1	40
437.897	1	42
438.067	1	25
438.238	1	27
438.408	1	36
438.579	1	18
438.749	1	21
438.920	1	31
439.090	1	23
439.261	1	20
439.431	1	31
439.602	1	28
439.772	1	23
439.943	1	44
440.113	1	20
440.284	1	27
440.455	1	33
440.625	1	28
440.796	1	25
440.966	1	34
441.137	1	20
441.307	1	22
441.478	1	39
441.648	1	31
441.819	1	17
441.989	1	31
442.160	1	24
442.330	1	30
442.501	1	21
442.671	1	24
442.842	1	22
443.012	1	15
443.183	1	31
443.353	1	30
443.524	1	31
443.694	1	22
443.865	1	18
444.035	1	19
444.206	1	17
444.376	1	16
444.547	1	33
444.717	1	26
444.888	1	27
445.058	1	30
445.229	1	30
445.399	1	19
445.570	1	24
445.740	1	29
445.911	1	20
446.081	1	17
446.252	1	30
446.422	1	26
446.593	1	20
446.763	1	28
446.934	1	24
447.104	1	28
447.275	1	16
447.445	1	27
447.616	1	30
447.786	1	25
447.957	1	30
448.127	1	25
448.298	1	28
448.468	1	22
448.639	1	27
448.809	1	29
448.979	1	22
449.150	1	32
449.320	1	26
449.491	1	32
449.661	1	15
449.832	1	22
450.002	1	27
450.173	1	23
450.343	1	21
450.514	1	23
450.684	1	14
450.855	1	14
451.025	1	27
451.196	1	24
451.366	1	24
451.537	1	21
451.707	1	19
451.878	1	15
452.048	1	34
452.218	1	40
452.389	1	24
452.559	1	20
452.730	1	33
452.900	1	22
453.071	1	10
453.241	1	22
453.412	1	21
453.582	1	19
453.753	1	16
453.923	1	21
454.093	1	27
454.264	1	29
454.434	1	18
454.605	1	22
454.775	1	29
454.946	1	17
455.116	1	28
455.287	1	15
455.457	1	17
455.628	1	10
455.798	1	17
455.968	1	34
456.139	1	17
456.309	1	23
456.480	1	18
456.650	1	15
456.821	1	15
456.991	1	27
457.161	1	18
457.332	1	26
457.502	1	6
457.673	1	30
457.843	1	22
458.014	1	31
458.184	1	17
458.355	1	16
458.525	1	26
458.695	1	18
458.866	1	24
459.036	1	22
459.207	1	23
459.377	1	16
459.548	1	24
459.718	1	17
459.888	1	23
460.059	1	23
460.229	1	22
460.400	1	31
460.570	1	10
460.740	1	21
460.911	1	20
461.081	1	22
461.252	1	10
461.422	1	20
461.593	1	16
461.763	1	24
461.933	1	17
462.104	1	11
462.274	1	21
462.445	1	18
462.615	1	9
462.785	1	14
462.956	1	26
463.126	1	35
463.297	1	22
463.467	1	21
463.638	1	21
463.808	1	16
463.978	1	10
464.149	1	17
464.319	1	19
464.490	1	36
464.660	1	19
464.830	1	5
465.001	1	19
465.171	1	31
465.342	1	22
465.512	1	13
465.682	1	19
465.853	1	17
466.023	1	14
466.194	1	13
466.364	1	28
466.534	1	23
466.705	1	24
466.875	1	14
467.045	1	14
467.216	1	23
467.386	1	18
467.557	1	6
467.727	1	8
467.897	1	7
468.068	1	12
468.238	1	16
468.409	1	11
468.579	1	19
468.749	1	23
468.920	1	7
469.090	1	9
469.260	1	3
469.431	1	9
469.601	1	26
469.772	1	15
469.942	1	13
470.112	1	18
470.283	1	20
470.453	1	24
470.623	1	18
470.794	1	13
470.964	1	23
471.135	1	18
471.305	1	8
471.475	1	12
471.646	1	20
471.816	1	16
471.986	1	19
472.157	1	17
472.327	1	14
472.497	1	15
472.668	1	7
472.838	1	19
473.009	1	21
473.179	1	-1
473.349	1	6
473.520	1	24
473.690	1	21
473.860	1	14
474.031	1	12
474.201	1	12
474.371	1	23
474.542	1	14
474.712	1	18
474.882	1	19
475.053	1	16
475.223	1	4
475.394	1	17
475.564	1	11
475.734	1	15
475.905	1	27
476.075	1	15
476.245	1	16
476.416	1	23
476.586	1	21
476.756	1	15
476.927	1	27
477.097	1	19
477.267	1	18
477.438	1	21
477.608	1	10
477.778	1	14
477.949	1	21
478.119	1	13
478.289	1	22
478.460	1	23
478.630	1	19
478.800	1	14
478.971	1	17
479.141	1	10
479.311	1	14
479.482	1	14
479.652	1	1
479.822	1	11
479.993	1	13
480.163	1	17
480.333	1	12
480.504	1	20
480.674	1	9
480.844	1	9
481.015	1	14
481.185	1	2
481.355	1	19
481.525	1	15
481.696	1	13
481.866	1	19
482.036	1	13
482.207	1	13
482.377	1	20
482.547	1	15
482.718	1	9
482.888	1	19
483.058	1	0
483.229	1	5
483.399	1	13
483.569	1	15
483.740	1	14
483.910	1	14
484.080	1	15
484.250	1	24
484.421	1	16
484.591	1	18
484.761	1	16
484.932	1	18
485.102	1	24
485.272	1	15
485.443	1	12
485.613	1	10
485.783	1	16
485.953	1	14
486.124	1	9
486.294	1	18
486.464	1	5
486.635	1	8
486.805	1	20
486.975	1	9
487.146	1	11
487.316	1	9
487.486	1	9
487.656	1	7
487.827	1	7
487.997	1	3
488.167	1	16
488.338	1	17
488.508	1	8
488.678	1	10
488.848	1	19
489.019	1	11
489.189	1	0
489.359	1	10
489.529	1	14
489.700	1	14
489.870	1	14
490.040	1	2
490.211	1	10
490.381	1	9
490.551	1	17
490.721	1	14
490.892	1	4
491.062	1	3
491.232	1	12
491.402	1	3
491.573	1	-4
491.743	1	12
491.913	1	13
492.084	1	13
492.254	1	7
492.424	1	0
492.594	1	15
492.765	1	13
492.935	1	7
493.105	1	13
493.275	1	2
493.446	1	14
493.616	1	14
493.786	1	11
493.956	1	9
494.127	1	8
494.297	1	10
494.467	1	14
494.637	1	25
494.808	1	20
494.978	1	4
495.148	1	6
495.318	1	8
495.489	1	10
495.659	1	13
495.829	1	8
495.999	1	11
496.170	1	14
496.340	1	10
496.510	1	15
496.680	1	-2
496.851	1	6
497.021	1	-3
497.191	1	-5
497.361	1	3
497.532	1	9
497.702	1	6
497.872	1	10
498.042	1	15
498.213	1	5
498.383	1	6
498.553	1	10
498.723	1	12
498.894	1	12
499.064	1	4
499.234	1	6
499.404	1	15
499.574	1	11
499.745	1	19
499.915	1	10
500.085	1	3
500.255	1	12
500.426	1	5
500.596	1	10
500.766	1	7
500.936	1	14
501.106	1	-1
501.277	1	13
501.447	1	5
501.617	1	11
501.787	1	7
501.958	1	2
502.128	1	4
502.298	1	8
502.468	1	6
502.638	1	15
502.809	1	4
502.979	1	6
503.149	1	-2
503.319	1	3
503.489	1	4
503.660	1	12
503.830	1	6
504.000	1	17
504.170	1	7
504.340	1	0
504.511	1	10
504.681	1	8
504.851	1	12
505.021	1	14
505.192	1	1
505.362	1	9
505.532	1	5
505.702	1	4
505.872	1	18
506.043	1	12
506.213	1	4
506.383	1	12
506.553	1	13
506.723	1	5
506.893	1	3
507.064	1	20
507.234	1	10
507.404	1	7
507.574	1	10
507.744	1	13
507.915	1	6
508.085	1	11
508.255	1	10
508.425	1	-4
508.595	1	15
508.766	1	12
508.936	1	-3
509.106	1	13
509.276	1	16
509.446	1	1
509.616	1	8
509.787	1	7
509.957	1	12
510.127	1	3
510.297	1	3
510.467	1	-2
510.638	1	17
510.808	1	-2
510.978	1	-5
511.148	1	10
511.318	1	12
511.488	1	2
511.659	1	7
511.829	1	0
511.999	1	3
512.169	1	12
512.339	1	8
512.509	1	3
512.680	1	4
512.850	1	2
513.020	1	14
513.190	1	7
513.360	1	2
513.530	1	6
513.700	1	11
513.871	1	1
514.041	1	5
514.211	1	16
514.381	1	15
514.551	1	11
514.721	1	5
514.892	1	8
515.062	1	10
515.232	1	6
515.402	1	-2
515.572	1	-4
515.742	1	16
515.912	1	14
516.083	1	9
516.253	1	14
516.423	1	-1
516.593	1	12
516.763	1	11
516.933	1	1
517.104	1	11
517.274	1	4
517.444	1	9
517.614	1	-9
517.784	1	5
517.954	1	4
518.124	1	12
518.294	1	3
518.465	1	6
518.635	1	8
518.805	1	-5
518.975	1	6
519.145	1	4
519.315	1	3
519.485	1	0
519.656	1	15
519.826	1	11
519.996	1	0
520.166	1	8
520.336	1	14
520.506	1	3
520.676	1	1
520.846	1	14
521.017	1	2
521.187	1	6
521.357	1	20
521.527	1	-1
521.697	1	7
521.867	1	0
522.037	1	16
522.207	1	10
522.377	1	7
522.548	1	4
522.718	1	8
522.888	1	13
523.058	1	3
523.228	1	12
523.398	1	14
523.568	1	12
523.738	1	6
523.909	1	6
524.079	1	11
524.249	1	1
524.419	1	6
524.589	1	4
524.759	1	5
524.929	1	1
525.099	1	4
525.269	1	11
525.439	1	12
525.610	1	25
525.780	1	4
525.950	1	5
526.120	1	-3
526.290	1	-3
526.460	1	0
526.630	1	12
526.800	1	10
526.970	1	10
527.140	1	7
527.311	1	8
527.481	1	2
527.651	1	10
527.821	1	-10
527.991	1	23
528.161	1	12
528.331	1	-3
528.501	1	12
528.671	1	3
528.841	1	2
529.011	1	2
529.181	1	8
529.352	1	4
529.522	1	-7
529.692	1	8
529.862	1	2
530.032	1	7
530.202	1	10
530.372	1	6
530.542	1	8
530.712	1	5
530.882	1	7
531.052	1	5
531.222	1	0
531.392	1	-2
531.563	1	9
531.733	1	4
531.903	1	4
532.073	1	14
532.243	1	7
532.413	1	1
532.583	1	7
532.753	1	2
532.923	1	-5
533.093	1	1
533.263	1	-5
533.433	1	-3
533.603	1	7
533.773	1	2
533.943	1	4
534.113	1	4
534.284	1	-3
534.454	1	15
534.624	1	14
534.794	1	5
534.964	1	5
535.134	1	6
535.304	1	-3
535.474	1	15
535.644	1	3
535.814	1	-1
535.984	1	-2
536.154	1	-9
536.324	1	7
536.494	1	11
536.664	1	10
536.834	1	0
537.004	1	-5
537.174	1	17
537.344	1	3
537.514	1	-11
537.685	1	-1
537.855	1	10
538.025	1	-3
538.195	1	1
538.365	1	10
538.535	1	7
538.705	1	0
538.875	1	13
539.045	1	13
539.215	1	8
539.385	1	2
539.555	1	1
539.725	1	5
539.895	1	2
540.065	1	21
540.235	1	12
540.405	1	0
540.575	1	5
540.745	1	5
540.915	1	11
541.085	1	4
541.255	1	-2
541.425	1	5
541.595	1	7
541.765	1	4
541.935	1	-1
542.105	1	-2
542.275	1	1
542.445	1	-10
542.615	1	-10
542.785	1	9
542.955	1	-1
543.125	1	0
543.295	1	-1
543.465	1	2
543.635	1	-6
543.805	1	15
543.975	1	3
544.145	1	6
544.315	1	2
544.485	1	6
544.655	1	8
544.825	1	1
544.995	1	-7
545.165	1	-10
545.335	1	0
545.505	1	0
545.675	1	-2
545.845	1	7
546.015	1	2
546.185	1	5
546.355	1	10
546.525	1	10
546.695	1	1
546.865	1	5
547.035	1	5
547.205	1	0
547.375	1	6
547.545	1	12
547.715	1	2
547.885	1	12
548.055	1	7
548.225	1	3
548.395	1	-7
548.565	1	6
548.735	1	8
548.905	1	-3
549.075	1	7
549.245	1	7
549.415	1	0
549.585	1	6
549.755	1	6
549.925	1	-3
550.095	1	1
550.265	1	-3
550.435	1	4
550.605	1	-3
550.775	1	10
550.945	1	7
551.115	1	4
551.285	1	8
551.455	1	-8
551.625	1	13
551.795	1	9
551.965	1	7
552.135	1	0
552.305	1	-1
552.475	1	-14
552.645	1	2
552.815	1	7
552.985	1	12
553.155	1	3
553.325	1	2
553.495	1	1
553.665	1	2
553.835	1	3
554.004	1	10
554.174	1	-1
554.344	1	9
554.514	1	-6
554.684	1	14
554.854	1	-1
555.024	1	7
555.194	1	-1
555.364	1	8
555.534	1	0
555.704	1	-8
555.874	1	7
556.044	1	7
556.214	1	-7
556.384	1	0
556.554	1	15
556.724	1	8
556.894	1	0
557.064	1	-2
557.234	1	-2
557.404	1	7
557.573	1	0
557.743	1	3
557.913	1	3
558.083	1	3
558.253	1	-2
558.423	1	0
558.593	1	6
558.763	1	-4
558.933	1	8
559.103	1	17
559.273	1	6
559.443	1	6
559.613	1	0
559.783	1	6
559.953	1	-4
560.122	1	8
560.292	1	2
560.462	1	-6
560.632	1	14
560.802	1	0
560.972	1	1
561.142	1	5
561.312	1	-4
561.482	1	14
561.652	1	6
561.822	1	-4
561.992	1	-3
562.162	1	2
562.331	1	13
562.501	1	-6
562.671	1	4
562.841	1	-3
563.011	1	10
563.181	1	9
563.351	1	-10
563.521	1	0
563.691	1	-8
563.861	1	-4
564.031	1	2
564.201	1	16
564.370	1	2
564.540	1	4
564.710	1	-3
564.880	1	3
565.050	1	0
565.220	1	4
565.390	1	13
565.560	1	6
565.730	1	-5
565.900	1	4
566.069	1	12
566.239	1	8
566.409	1	3
566.579	1	10
566.749	1	1
566.919	1	12
567.089	1	-2
567.259	1	7
567.429	1	11
567.599	1	-8
567.768	1	3
567.938	1	-1
568.108	1	-3
568.278	1	-1
568.448	1	-4
568.618	1	-6
568.788	1	4
568.958	1	6
569.128	1	2
569.297	1	4
569.467	1	0
569.637	1	4
569.807	1	-6
569.977	1	3
570.147	1	0
570.317	1	0
570.487	1	-1
570.656	1	8
570.826	1	-1
570.996	1	-5
571.166	1	12
571.336	1	1
571.506	1	9
571.676	1	-1
571.846	1	7
572.015	1	10
572.185	1	-10
572.355	1	10
572.525	1	5
572.695	1	0
572.865	1	-10
573.035	1	9
573.205	1	7
573.374	1	0
573.544	1	9
573.714	1	16
573.884	1	15
574.054	1	0
574.224	1	0
574.394	1	0
574.563	1	0
574.733	1	3
574.903	1	1
575.073	1	2
575.243	1	3
575.413	1	4
575.583	1	-1
575.752	1	3
575.922	1	0
576.092	1	0
576.262	1	12
576.432	1	-1
576.602	1	-4
576.772	1	4
576.941	1	6
577.111	1	-1
577.281	1	-10
577.451	1	-1
577.621	1	7
577.791	1	14
577.960	1	-7
578.130	1	-1
578.300	1	-4
578.470	1	12
578.640	1	-3
578.810	1	4
578.979	1	4
579.149	1	-5
579.319	1	5
579.489	1	7
579.659	1	-4
579.829	1	3
579.998	1	12
580.168	1	13
580.338	1	5
580.508	1	3
580.678	1	3
580.848	1	-3
581.017	1	0
581.187	1	4
581.357	1	-7
581.527	1	10
581.697	1	14
581.867	1	12
582.036	1	6
582.206	1	4
582.376	1	7
582.546	1	-4
582.716	1	0
582.885	1	-10
583.055	1	10
583.225	1	-10
583.395	1	8
583.565	1	-4
583.735	1	10
583.904	1	4
584.074	1	8
584.244	1	9
584.414	1	-2
584.584	1	-2
584.753	1	-8
584.923	1	3
585.093	1	1
585.263	1	3
585.433	1	12
585.602	1	0
585.772	1	-7
585.942	1	-2
586.112	1	10
586.282	1	-10
586.451	1	-4
586.621	1	-8
586.791	1	-4
586.961	1	8
587.131	1	6
587.300	1	4
587.470	1	6
587.640	1	3
587.810	1	-6
587.980	1	5
588.149	1	3
588.319	1	1
588.489	1	-1
588.659	1	-3
588.829	1	1
588.998	1	10
589.168	1	-3
589.338	1	4
589.508	1	3
589.677	1	-6
589.847	1	-1
590.017	1	3
590.187	1	-5
590.357	1	9
590.526	1	15
590.696	1	0
590.866	1	3
591.036	1	-5
591.205	1	5
591.375	1	-7
591.545	1	-8
591.715	1	5
591.885	1	2
592.054	1	-1
592.224	1	-5
592.394	1	-3
592.564	1	-4
592.733	1	-3
592.903	1	4
593.073	1	-6
593.243	1	2
593.412	1	4
593.582	1	-6
593.752	1	3
593.922	1	2
594.091	1	-1
594.261	1	-5
594.431	1	-4
594.601	1	4
594.771	1	-4
594.940	1	0
595.110	1	3
595.280	1	4
595.450	1	3
595.619	1	-1
595.789	1	1
595.959	1	1
596.129	1	0
596.298	1	5
596.468	1	7
596.638	1	2
596.808	1	3
596.977	1	0
597.147	1	1
597.317	1	-4
597.487	1	-1
597.656	1	12
597.826	1	3
597.996	1	1
598.166	1	1
598.335	1	-1
598.505	1	-5
598.675	1	-9
598.844	1	11
599.014	1	1
599.184	1	1
599.354	1	-4
599.523	1	8
599.693	1	0
599.863	1	14
600.033	1	9
600.202	1	9
600.372	1	10
600.542	1	8
600.712	1	3
600.881	1	-7
601.051	1	12
601.221	1	5
601.390	1	-3
601.560	1	4
601.730	1	6
601.900	1	0
602.069	1	5
602.239	1	-3
602.409	1	-2
602.578	1	5
602.748	1	3
602.918	1	7
603.088	1	7
603.257	1	10
603.427	1	1
603.597	1	5
603.767	1	5
603.936	1	1
604.106	1	15
604.276	1	-10
604.445	1	7
604.615	1	0
604.785	1	-9
604.954	1	9
605.124	1	9
605.294	1	0
605.464	1	-2
605.633	1	13
605.803	1	10
605.973	1	5
606.142	1	0
606.312	1	8
606.482	1	0
606.652	1	6
606.821	1	3
606.991	1	5
607.161	1	2
607.330	1	8
607.500	1	7
607.670	1	-8
607.839	1	14
608.009	1	19
608.179	1	5
608.348	1	4
608.518	1	-7
608.688	1	9
608.858	1	-2
609.027	1	-8
609.197	1	8
609.367	1	12
609.536	1	10
609.706	1	12
609.876	1	2
610.045	1	7
610.215	1	4
610.385	1	4
610.554	1	3
610.724	1	5
610.894	1	6
611.063	1	8
611.233	1	0
611.403	1	3
611.572	1	0
611.742	1	5
611.912	1	-4
612.081	1	-7
612.251	1	10
612.421	1	2
612.590	1	-1
612.760	1	10
612.930	1	6
613.099	1	3
613.269	1	15
613.439	1	6
613.608	1	4
613.778	1	1
613.948	1	7
614.117	1	-3
614.287	1	12
614.457	1	6
614.626	1	1
614.796	1	6
614.966	1	3
615.135	1	3
615.305	1	13
615.475	1	7
615.644	1	-4
615.814	1	13
615.984	1	4
616.153	1	-3
616.323	1	-4
616.493	1	6
616.662	1	4
616.832	1	-2
617.002	1	1
617.171	1	0
617.341	1	0
617.511	1	-7
617.680	1	8
617.850	1	3
618.019	1	15
618.189	1	6
618.359	1	9
618.528	1	-2
618.698	1	11
618.868	1	0
619.037	1	8
619.207	1	0
619.377	1	5
619.546	1	2
619.716	1	0
619.885	1	5
620.055	1	-7
620.225	1	13
620.394	1	-6
620.564	1	3
620.734	1	9
620.903	1	5
621.073	1	8
621.242	1	6
621.412	1	-3
621.582	1	13
621.751	1	1
621.921	1	7
622.091	1	5
622.260	1	-3
622.430	1	3
622.599	1	0
622.769	1	12
622.939	1	11
623.108	1	5
623.278	1	-10
623.448	1	-1
623.617	1	-1
623.787	1	10
623.956	1	11
624.126	1	8
624.296	1	3
624.465	1	8
624.635	1	13
624.804	1	1
624.974	1	7
625.144	1	10
625.313	1	-2
625.483	1	1
625.652	1	-3
625.822	1	2
625.992	1	-2
626.161	1	14
626.331	1	4
626.501	1	3
626.670	1	-2
626.840	1	1
627.009	1	1
627.179	1	9
627.348	1	6
627.518	1	-4
627.688	1	8
627.857	1	8
628.027	1	-5
628.196	1	1
628.366	1	10
628.536	1	2
628.705	1	3
628.875	1	7
629.044	1	1
629.214	1	10
629.384	1	9
629.553	1	8
629.723	1	7
629.892	1	0
630.062	1	-1
630.232	1	5
630.401	1	10
630.571	1	-9
630.740	1	6
630.910	1	11
631.079	1	7
631.249	1	5
631.419	1	6
631.588	1	-3
631.758	1	9
631.927	1	3
632.097	1	4
632.266	1	6
632.436	1	9
632.606	1	-1
632.775	1	12
632.945	1	1
633.114	1	5
633.284	1	5
633.453	1	4
633.623	1	7
633.793	1	4
633.962	1	12
634.132	1	6
634.301	1	11
634.471	1	3
634.640	1	-9
634.810	1	2
634.979	1	9
635.149	1	15
635.319	1	4
635.488	1	6
635.658	1	1
635.827	1	1
635.997	1	1
636.166	1	6
636.336	1	0
636.505	1	10
636.675	1	-5
636.845	1	5
637.014	1	-1
637.184	1	6
637.353	1	-1
637.523	1	14
637.692	1	5
637.862	1	-3
638.031	1	6
638.201	1	4
638.370	1	-2
638.540	1	3
638.710	1	8
638.879	1	-6
639.049	1	5
639.218	1	7
639.388	1	1
639.557	1	-5
639.727	1	2
639.896	1	2
640.066	1	0
640.235	1	6
640.405	1	10
640.574	1	8
640.744	1	8
640.914	1	0
641.083	1	-5
641.253	1	11
641.422	1	-2
641.592	1	2
641.761	1	2
641.931	1	4
642.100	1	17
642.270	1	6
642.439	1	11
642.609	1	16
642.778	1	-2
642.948	1	2
643.117	1	9
643.287	1	5
643.456	1	2
643.626	1	13
643.795	1	1
643.965	1	7
644.134	1	4
644.304	1	2
644.473	1	4
644.643	1	10
644.812	1	8
644.982	1	4
645.151	1	1
645.321	1	-6
645.490	1	13
645.660	1	-2
645.829	1	0
645.999	1	3
646.168	1	11
646.338	1	13
646.507	1	-3
646.677	1	10
646.846	1	-2
647.016	1	0
647.185	1	6
647.355	1	-10
647.524	1	13
647.694	1	13
647.863	1	14
648.033	1	13
648.202	1	7
648.372	1	-3
648.541	1	0
648.711	1	9
648.880	1	-3
649.050	1	4
649.219	1	7
649.389	1	13
649.558	1	-6
649.728	1	-1
649.897	1	2
650.067	1	5
650.236	1	8
650.406	1	11
650.575	1	19
650.745	1	8
650.914	1	-3
651.084	1	-12
651.253	1	0
651.423	1	2
651.592	1	1
651.762	1	10
651.931	1	5
652.101	1	11
652.270	1	13
652.440	1	8
652.609	1	-6
652.778	1	3
652.948	1	5
653.117	1	11
653.287	1	3
653.456	1	10
653.626	1	10
653.795	1	8
653.965	1	15
654.134	1	16
654.304	1	-12
654.473	1	12
654.643	1	7
654.812	1	0
654.982	1	8
655.151	1	1
655.320	1	8
655.490	1	2
655.659	1	10
655.829	1	-1
655.998	1	3
656.168	1	4
656.337	1	9
656.507	1	3
656.676	1	12
656.846	1	14
657.015	1	9
657.184	1	14
657.354	1	8
657.523	1	13
657.693	1	6
657.862	1	15
658.032	1	2
658.201	1	8
658.371	1	2
658.540	1	8
658.709	1	0
658.879	1	10
659.048	1	3
659.218	1	8
659.387	1	-1
659.557	1	7
659.726	1	0
659.895	1	-6
660.065	1	-9
660.234	1	3
660.404	1	9
660.573	1	-3
660.743	1	11
660.912	1	4
661.081	1	17
661.251	1	-5
661.420	1	2
661.590	1	-3
661.759	1	9
661.929	1	16
662.098	1	13
662.267	1	2
662.437	1	3
662.606	1	5
662.776	1	9
662.945	1	6
663.115	1	1
663.284	1	0
663.453	1	7
663.623	1	1
663.792	1	2
663.962	1	8
664.131	1	8
664.300	1	24
664.470	1	5
664.639	1	4
664.809	1	4
664.978	1	14
665.148	1	10
665.317	1	-1
665.486	1	16
665.656	1	8
665.825	1	21
665.995	1	-2
666.164	1	9
666.333	1	6
666.503	1	6
666.672	1	-7
666.842	1	7
667.011	1	5
667.180	1	15
667.350	1	-3
667.519	1	1
667.689	1	5
667.858	1	5
668.027	1	13
668.197	1	5
668.366	1	1
668.536	1	-2
668.705	1	4
668.874	1	8
669.044	1	4
669.213	1	8
669.382	1	-7
669.552	1	10
669.721	1	10
669.891	1	13
670.060	1	9
670.229	1	7
670.399	1	0
670.568	1	23
670.738	1	11
670.907	1	-6
671.076	1	0
671.246	1	8
671.415	1	6
671.584	1	1
671.754	1	2
671.923	1	0
672.093	1	9
672.262	1	-2
672.431	1	11
672.601	1	5
672.770	1	-11
672.939	1	11
673.109	1	2
673.278	1	12
673.448	1	9
673.617	1	-1
673.786	1	5
