325.333	1	21
325.504	1	11
325.675	1	14
325.846	1	7
326.017	1	8
326.188	1	7
326.359	1	3
326.531	1	-9
326.702	1	6
326.873	1	18
327.044	1	4
327.215	1	11
327.386	1	15
327.557	1	14
327.728	1	6
327.899	1	12
328.070	1	14
328.241	1	4
328.412	1	-6
328.583	1	16
328.754	1	7
328.926	1	18
329.097	1	1
329.268	1	22
329.439	1	8
329.610	1	2
329.781	1	2
329.952	1	16
330.123	1	10
330.294	1	11
330.465	1	16
330.636	1	12
330.807	1	5
330.978	1	5
331.149	1	7
331.320	1	3
331.492	1	10
331.663	1	7
331.834	1	18
332.005	1	21
332.176	1	22
332.347	1	14
332.518	1	3
332.689	1	20
332.860	1	10
333.031	1	13
333.202	1	4
333.373	1	12
333.544	1	9
333.715	1	15
333.886	1	4
334.057	1	12
334.228	1	8
334.399	1	22
334.570	1	24
334.741	1	14
334.912	1	16
335.084	1	28
335.255	1	14
335.426	1	10
335.597	1	18
335.768	1	13
335.939	1	14
336.110	1	6
336.281	1	13
336.452	1	4
336.623	1	8
336.794	1	16
336.965	1	17
337.136	1	20
337.307	1	23
337.478	1	14
337.649	1	19
337.820	1	15
337.991	1	16
338.162	1	19
338.333	1	18
338.504	1	14
338.675	1	8
338.846	1	23
339.017	1	20
339.188	1	5
339.359	1	6
339.530	1	29
339.701	1	18
339.872	1	24
340.043	1	22
340.214	1	12
340.385	1	25
340.556	1	7
340.727	1	24
340.898	1	21
341.069	1	26
341.240	1	19
341.411	1	29
341.582	1	24
341.753	1	16
341.924	1	11
342.095	1	19
342.266	1	23
342.437	1	29
342.608	1	20
342.779	1	8
342.950	1	26
343.121	1	20
343.292	1	27
343.463	1	16
343.634	1	16
343.805	1	30
343.976	1	24
344.147	1	22
344.318	1	23
344.489	1	23
344.660	1	27
344.831	1	30
345.002	1	24
345.173	1	23
345.344	1	34
345.515	1	32
345.686	1	17
345.857	1	23
346.028	1	25
346.199	1	15
346.370	1	28
346.541	1	24
346.712	1	14
346.883	1	39
347.054	1	22
347.225	1	19
347.396	1	25
347.567	1	20
347.738	1	13
347.909	1	25
348.080	1	13
348.251	1	38
348.422	1	28
348.593	1	25
348.764	1	33
348.935	1	24
349.106	1	21
349.277	1	30
349.448	1	37
349.619	1	25
349.790	1	23
349.961	1	35
350.132	1	31
350.303	1	29
350.474	1	42
350.645	1	17
350.816	1	35
350.987	1	34
351.157	1	27
351.328	1	36
351.499	1	45
351.670	1	26
351.841	1	44
352.012	1	40
352.183	1	41
352.354	1	47
352.525	1	44
352.696	1	41
352.867	1	39
353.038	1	38
353.209	1	35
353.380	1	29
353.551	1	26
353.722	1	39
353.893	1	36
354.064	1	36
354.235	1	38
354.406	1	29
354.576	1	31
354.747	1	40
354.918	1	38
355.089	1	40
355.260	1	37
355.431	1	41
355.602	1	31
355.773	1	36
355.944	1	38
356.115	1	43
356.286	1	46
356.457	1	38
356.628	1	49
356.799	1	30
356.970	1	51
357.141	1	35
357.311	1	29
357.482	1	37
357.653	1	42
357.824	1	56
357.995	1	45
358.166	1	27
358.337	1	35
358.508	1	38
358.679	1	43
358.850	1	42
359.021	1	36
359.192	1	41
359.363	1	39
359.533	1	49
359.704	1	43
359.875	1	33
360.046	1	45
360.217	1	31
360.388	1	42
360.559	1	34
360.730	1	39
360.901	1	36
361.072	1	54
361.243	1	45
361.414	1	45
361.584	1	31
361.755	1	49
361.926	1	47
362.097	1	39
362.268	1	50
362.439	1	45
362.610	1	49
362.781	1	43
362.952	1	36
363.123	1	40
363.293	1	36
363.464	1	44
363.635	1	38
363.806	1	30
363.977	1	36
364.148	1	44
364.319	1	49
364.490	1	45
364.661	1	33
364.832	1	50
365.002	1	44
365.173	1	49
365.344	1	40
365.515	1	42
365.686	1	43
365.857	1	42
366.028	1	44
366.199	1	39
366.370	1	50
366.540	1	44
366.711	1	30
366.882	1	43
367.053	1	34
367.224	1	37
367.395	1	43
367.566	1	47
367.737	1	42
367.908	1	52
368.078	1	37
368.249	1	52
368.420	1	29
368.591	1	37
368.762	1	46
368.933	1	41
369.104	1	27
369.274	1	35
369.445	1	38
369.616	1	48
369.787	1	42
369.958	1	57
370.129	1	43
370.300	1	49
370.471	1	44
370.641	1	48
370.812	1	45
370.983	1	47
371.154	1	43
371.325	1	47
371.496	1	47
371.667	1	55
371.837	1	37
372.008	1	45
372.179	1	42
372.350	1	62
372.521	1	40
372.692	1	46
372.863	1	48
373.033	1	31
373.204	1	42
373.375	1	44
373.546	1	51
373.717	1	41
373.888	1	53
374.059	1	41
374.229	1	55
374.400	1	41
374.571	1	44
374.742	1	52
374.913	1	44
375.084	1	47
375.254	1	46
375.425	1	51
375.596	1	47
375.767	1	47
375.938	1	43
376.109	1	48
376.279	1	49
376.450	1	49
376.621	1	44
376.792	1	41
376.963	1	43
377.134	1	50
377.304	1	49
377.475	1	46
377.646	1	43
377.817	1	47
377.988	1	49
378.159	1	52
378.329	1	59
378.500	1	49
378.671	1	48
378.842	1	38
379.013	1	32
379.184	1	55
379.354	1	55
379.525	1	53
379.696	1	57
379.867	1	50
380.038	1	45
380.209	1	54
380.379	1	50
380.550	1	47
380.721	1	54
380.892	1	48
381.063	1	55
381.233	1	56
381.404	1	46
381.575	1	61
381.746	1	52
381.917	1	51
382.087	1	52
382.258	1	54
382.429	1	57
382.600	1	63
382.771	1	55
382.941	1	44
383.112	1	59
383.283	1	50
383.454	1	47
383.625	1	44
383.795	1	66
383.966	1	52
384.137	1	46
384.308	1	59
384.479	1	56
384.649	1	59
384.820	1	60
384.991	1	59
385.162	1	62
385.333	1	53
385.503	1	50
385.674	1	44
385.845	1	57
386.016	1	55
386.187	1	51
386.357	1	59
386.528	1	72
386.699	1	51
386.870	1	63
387.041	1	68
387.211	1	60
387.382	1	68
387.553	1	67
387.724	1	49
387.894	1	62
388.065	1	64
388.236	1	61
388.407	1	52
388.578	1	52
388.748	1	53
388.919	1	54
389.090	1	66
389.261	1	60
389.431	1	65
389.602	1	61
389.773	1	67
389.944	1	61
390.114	1	54
390.285	1	63
390.456	1	59
390.627	1	48
390.798	1	74
390.968	1	52
391.139	1	60
391.310	1	57
391.481	1	61
391.651	1	58
391.822	1	53
391.993	1	62
392.164	1	56
392.334	1	61
392.505	1	54
392.676	1	67
392.847	1	62
393.017	1	68
393.188	1	62
393.359	1	59
393.530	1	58
393.700	1	67
393.871	1	64
394.042	1	64
394.213	1	53
394.383	1	59
394.554	1	70
394.725	1	53
394.896	1	62
395.066	1	61
395.237	1	65
395.408	1	68
395.579	1	61
395.749	1	58
395.920	1	58
396.091	1	66
396.262	1	66
396.432	1	69
396.603	1	63
396.774	1	73
396.945	1	71
397.115	1	54
397.286	1	72
397.457	1	65
397.627	1	67
397.798	1	54
397.969	1	54
398.140	1	66
398.310	1	69
398.481	1	64
398.652	1	75
398.823	1	58
398.993	1	73
399.164	1	63
399.335	1	77
399.505	1	60
399.676	1	70
399.847	1	64
400.018	1	59
400.188	1	60
400.359	1	73
400.530	1	64
400.700	1	75
400.871	1	52
401.042	1	68
401.213	1	57
401.383	1	68
401.554	1	74
401.725	1	70
401.895	1	63
402.066	1	65
402.237	1	74
402.408	1	75
402.578	1	70
402.749	1	71
402.920	1	66
403.090	1	51
403.261	1	76
403.432	1	67
403.603	1	74
403.773	1	80
403.944	1	61
404.115	1	79
404.285	1	74
404.456	1	66
404.627	1	54
404.797	1	53
404.968	1	62
405.139	1	64
405.310	1	75
405.480	1	73
405.651	1	55
405.822	1	79
405.992	1	61
406.163	1	67
406.334	1	51
406.504	1	70
406.675	1	81
406.846	1	67
407.016	1	75
407.187	1	77
407.358	1	67
407.528	1	66
407.699	1	53
407.870	1	63
408.041	1	66
408.211	1	85
408.382	1	67
408.553	1	67
408.723	1	83
408.894	1	73
409.065	1	73
409.235	1	62
409.406	1	61
409.577	1	74
409.747	1	81
409.918	1	69
410.089	1	61
410.259	1	80
410.430	1	74
410.601	1	76
410.771	1	74
410.942	1	75
411.113	1	64
411.283	1	60
411.454	1	71
411.625	1	80
411.795	1	71
411.966	1	69
412.137	1	63
412.307	1	59
412.478	1	70
412.649	1	78
412.819	1	75
412.990	1	66
413.161	1	69
413.331	1	63
413.502	1	77
413.672	1	64
413.843	1	67
414.014	1	62
414.184	1	75
414.355	1	70
414.526	1	78
414.696	1	77
414.867	1	71
415.038	1	48
415.208	1	53
415.379	1	78
415.550	1	71
415.720	1	69
415.891	1	66
416.062	1	73
416.232	1	65
416.403	1	67
416.573	1	69
416.744	1	64
416.915	1	71
417.085	1	69
417.256	1	69
417.427	1	69
417.597	1	71
417.768	1	66
417.939	1	67
418.109	1	71
418.280	1	68
418.450	1	69
418.621	1	60
418.792	1	70
418.962	1	71
419.133	1	76
419.304	1	64
419.474	1	64
419.645	1	66
419.815	1	59
419.986	1	71
420.157	1	73
420.327	1	61
420.498	1	74
420.669	1	65
420.839	1	75
421.010	1	80
421.180	1	71
421.351	1	76
421.522	1	80
421.692	1	73
421.863	1	69
422.033	1	68
422.204	1	68
422.375	1	58
422.545	1	68
422.716	1	62
422.886	1	59
423.057	1	65
423.228	1	70
423.398	1	52
423.569	1	64
423.740	1	58
423.910	1	65
424.081	1	69
424.251	1	60
424.422	1	58
424.593	1	62
424.763	1	57
424.934	1	63
425.104	1	63
425.275	1	69
425.445	1	72
425.616	1	61
425.787	1	61
425.957	1	54
426.128	1	68
426.298	1	67
426.469	1	56
426.640	1	71
426.810	1	69
426.981	1	62
427.151	1	46
427.322	1	71
427.493	1	64
427.663	1	58
427.834	1	53
428.004	1	67
428.175	1	57
428.345	1	53
428.516	1	56
428.687	1	66
428.857	1	51
429.028	1	58
429.198	1	67
429.369	1	62
429.540	1	49
429.710	1	52
429.881	1	67
430.051	1	55
430.222	1	54
430.392	1	71
430.563	1	68
430.734	1	67
430.904	1	67
431.075	1	58
431.245	1	55
431.416	1	71
431.586	1	56
431.757	1	55
431.927	1	53
432.098	1	63
432.269	1	67
432.439	1	51
432.610	1	61
432.780	1	70
432.951	1	62
433.121	1	62
433.292	1	67
433.462	1	62
433.633	1	66
433.804	1	57
433.974	1	65
434.145	1	78
434.315	1	54
434.486	1	44
434.656	1	64
434.827	1	63
434.997	1	46
435.168	1	55
435.339	1	61
435.509	1	62
435.680	1	68
435.850	1	72
436.021	1	49
436.191	1	59
436.362	1	64
436.532	1	64
436.703	1	47
436.873	1	62
437.044	1	50
437.214	1	51
437.385	1	51
437.556	1	50
437.726	1	60
437.897	1	71
438.067	1	52
438.238	1	58
438.408	1	62
438.579	1	53
438.749	1	48
438.920	1	51
439.090	1	61
439.261	1	48
439.431	1	62
439.602	1	50
439.772	1	48
439.943	1	65
440.113	1	51
440.284	1	57
440.455	1	48
440.625	1	56
440.796	1	60
440.966	1	52
441.137	1	49
441.307	1	50
441.478	1	68
441.648	1	55
441.819	1	59
441.989	1	50
442.160	1	61
442.330	1	48
442.501	1	63
442.671	1	48
442.842	1	46
443.012	1	47
443.183	1	66
443.353	1	38
443.524	1	57
443.694	1	65
443.865	1	54
444.035	1	61
444.206	1	44
444.376	1	38
444.547	1	67
444.717	1	40
444.888	1	47
445.058	1	51
445.229	1	66
445.399	1	50
445.570	1	52
445.740	1	43
445.911	1	45
446.081	1	45
446.252	1	57
446.422	1	52
446.593	1	46
446.763	1	50
446.934	1	46
447.104	1	49
447.275	1	53
447.445	1	50
447.616	1	52
447.786	1	53
447.957	1	53
448.127	1	54
448.298	1	58
448.468	1	57
448.639	1	47
448.809	1	53
448.979	1	34
449.150	1	52
449.320	1	53
449.491	1	51
449.661	1	47
449.832	1	43
450.002	1	58
450.173	1	52
450.343	1	47
450.514	1	51
450.684	1	39
450.855	1	47
451.025	1	49
451.196	1	42
451.366	1	54
451.537	1	51
451.707	1	46
451.878	1	35
452.048	1	61
452.218	1	54
452.389	1	52
452.559	1	27
452.730	1	53
452.900	1	49
453.071	1	28
453.241	1	45
453.412	1	49
453.582	1	50
453.753	1	42
453.923	1	49
454.093	1	49
454.264	1	55
454.434	1	39
454.605	1	42
454.775	1	47
454.946	1	51
455.116	1	41
455.287	1	51
455.457	1	44
455.628	1	41
455.798	1	50
455.968	1	49
456.139	1	46
456.309	1	33
456.480	1	47
456.650	1	38
456.821	1	47
456.991	1	52
457.161	1	42
457.332	1	49
457.502	1	31
457.673	1	51
457.843	1	47
458.014	1	37
458.184	1	46
458.355	1	41
458.525	1	49
458.695	1	50
458.866	1	42
459.036	1	55
459.207	1	46
459.377	1	33
459.548	1	45
459.718	1	43
459.888	1	44
460.059	1	48
460.229	1	45
460.400	1	45
460.570	1	38
460.740	1	39
460.911	1	44
461.081	1	35
461.252	1	37
461.422	1	43
461.593	1	45
461.763	1	45
461.933	1	49
462.104	1	36
462.274	1	46
462.445	1	40
462.615	1	42
462.785	1	36
462.956	1	50
463.126	1	43
463.297	1	33
463.467	1	52
463.638	1	39
463.808	1	28
463.978	1	42
464.149	1	44
464.319	1	45
464.490	1	55
464.660	1	37
464.830	1	35
465.001	1	39
465.171	1	41
465.342	1	46
465.512	1	34
465.682	1	40
465.853	1	41
466.023	1	46
466.194	1	35
466.364	1	50
466.534	1	42
466.705	1	33
466.875	1	32
467.045	1	38
467.216	1	49
467.386	1	34
467.557	1	26
467.727	1	35
467.897	1	25
468.068	1	28
468.238	1	38
468.409	1	23
468.579	1	32
468.749	1	34
468.920	1	29
469.090	1	29
469.260	1	31
469.431	1	32
469.601	1	37
469.772	1	43
469.942	1	30
470.112	1	35
470.283	1	31
470.453	1	39
470.623	1	30
470.794	1	29
470.964	1	37
471.135	1	38
471.305	1	30
471.475	1	42
471.646	1	37
471.816	1	45
471.986	1	28
472.157	1	44
472.327	1	25
472.497	1	28
472.668	1	28
472.838	1	34
473.009	1	35
473.179	1	34
473.349	1	30
473.520	1	40
473.690	1	42
473.860	1	35
474.031	1	36
474.201	1	30
474.371	1	39
474.542	1	38
474.712	1	35
474.882	1	37
475.053	1	37
475.223	1	29
475.394	1	40
475.564	1	26
475.734	1	42
475.905	1	40
476.075	1	31
476.245	1	36
476.416	1	40
476.586	1	38
476.756	1	33
476.927	1	41
477.097	1	35
477.267	1	26
477.438	1	31
477.608	1	32
477.778	1	40
477.949	1	27
478.119	1	48
478.289	1	28
478.460	1	35
478.630	1	36
478.800	1	29
478.971	1	23
479.141	1	32
479.311	1	15
479.482	1	20
479.652	1	26
479.822	1	33
479.993	1	32
480.163	1	36
480.333	1	30
480.504	1	32
480.674	1	38
480.844	1	16
481.015	1	27
481.185	1	26
481.355	1	27
481.525	1	28
481.696	1	20
481.866	1	25
482.036	1	30
482.207	1	26
482.377	1	25
482.547	1	28
482.718	1	23
482.888	1	32
483.058	1	27
483.229	1	18
483.399	1	31
483.569	1	19
483.740	1	36
483.910	1	34
484.080	1	18
484.250	1	40
484.421	1	35
484.591	1	23
484.761	1	36
484.932	1	29
485.102	1	23
485.272	1	26
485.443	1	32
485.613	1	27
485.783	1	25
485.953	1	11
486.124	1	28
486.294	1	22
486.464	1	24
486.635	1	28
486.805	1	28
486.975	1	28
487.146	1	21
487.316	1	18
487.486	1	36
487.656	1	25
487.827	1	19
487.997	1	27
488.167	1	16
488.338	1	27
488.508	1	30
488.678	1	15
488.848	1	32
489.019	1	20
489.189	1	21
489.359	1	28
489.529	1	20
489.700	1	19
489.870	1	32
490.040	1	15
490.211	1	15
490.381	1	26
490.551	1	24
490.721	1	23
490.892	1	13
491.062	1	24
491.232	1	27
491.402	1	29
491.573	1	10
491.743	1	9
491.913	1	25
492.084	1	30
492.254	1	18
492.424	1	19
492.594	1	26
492.765	1	16
492.935	1	30
493.105	1	21
493.275	1	15
493.446	1	34
493.616	1	23
493.786	1	15
493.956	1	22
494.127	1	31
494.297	1	23
494.467	1	13
494.637	1	26
494.808	1	14
494.978	1	17
495.148	1	11
495.318	1	22
495.489	1	20
495.659	1	25
495.829	1	19
495.999	1	25
496.170	1	24
496.340	1	26
496.510	1	29
496.680	1	19
496.851	1	24
497.021	1	13
497.191	1	5
497.361	1	13
497.532	1	20
497.702	1	20
497.872	1	24
498.042	1	15
498.213	1	19
498.383	1	9
498.553	1	17
498.723	1	15
498.894	1	20
499.064	1	28
499.234	1	10
499.404	1	20
499.574	1	19
499.745	1	34
499.915	1	23
500.085	1	20
500.255	1	18
500.426	1	20
500.596	1	18
500.766	1	14
500.936	1	17
501.106	1	18
501.277	1	29
501.447	1	18
501.617	1	16
501.787	1	12
501.958	1	14
502.128	1	28
502.298	1	19
502.468	1	17
502.638	1	31
502.809	1	18
502.979	1	8
503.149	1	8
503.319	1	7
503.489	1	18
503.660	1	19
503.830	1	12
504.000	1	21
504.170	1	18
504.340	1	9
504.511	1	25
504.681	1	15
504.851	1	20
505.021	1	13
505.192	1	14
505.362	1	16
505.532	1	17
505.702	1	12
505.872	1	20
506.043	1	10
506.213	1	16
506.383	1	13
506.553	1	19
506.723	1	9
506.893	1	16
507.064	1	29
507.234	1	16
507.404	1	19
507.574	1	18
507.744	1	29
507.915	1	15
508.085	1	22
508.255	1	16
508.425	1	8
508.595	1	16
508.766	1	20
508.936	1	9
509.106	1	10
509.276	1	29
509.446	1	14
509.616	1	10
509.787	1	13
509.957	1	16
510.127	1	8
510.297	1	25
510.467	1	10
510.638	1	14
510.808	1	2
510.978	1	14
511.148	1	20
511.318	1	20
511.488	1	7
511.659	1	13
511.829	1	8
511.999	1	15
512.169	1	12
512.339	1	16
512.509	1	7
512.680	1	3
512.850	1	19
513.020	1	19
513.190	1	20
513.360	1	2
513.530	1	12
513.700	1	23
513.871	1	9
514.041	1	10
514.211	1	21
514.381	1	16
514.551	1	5
514.721	1	14
514.892	1	11
515.062	1	15
515.232	1	16
515.402	1	6
515.572	1	7
515.742	1	20
515.912	1	14
516.083	1	14
516.253	1	16
516.423	1	8
516.593	1	13
516.763	1	16
516.933	1	5
517.104	1	7
517.274	1	6
517.444	1	16
517.614	1	9
517.784	1	10
517.954	1	15
518.124	1	20
518.294	1	7
518.465	1	4
518.635	1	13
518.805	1	-3
518.975	1	11
519.145	1	4
519.315	1	9
519.485	1	6
519.656	1	16
519.826	1	12
519.996	1	2
520.166	1	16
520.336	1	21
520.506	1	1
520.676	1	4
520.846	1	19
521.017	1	6
521.187	1	14
521.357	1	17
521.527	1	5
521.697	1	17
521.867	1	3
522.037	1	10
522.207	1	14
522.377	1	6
522.548	1	10
522.718	1	9
522.888	1	21
523.058	1	13
523.228	1	13
523.398	1	6
523.568	1	15
523.738	1	12
523.909	1	12
524.079	1	11
524.249	1	6
524.419	1	9
524.589	1	19
524.759	1	12
524.929	1	-2
525.099	1	14
525.269	1	14
525.439	1	3
525.610	1	19
525.780	1	9
525.950	1	19
526.120	1	10
526.290	1	9
526.460	1	6
526.630	1	14
526.800	1	7
526.970	1	8
527.140	1	15
527.311	1	7
527.481	1	1
527.651	1	17
527.821	1	0
527.991	1	22
528.161	1	15
528.331	1	9
528.501	1	9
528.671	1	4
528.841	1	11
529.011	1	4
529.181	1	15
529.352	1	13
529.522	1	8
529.692	1	10
529.862	1	1
530.032	1	8
530.202	1	14
530.372	1	8
530.542	1	6
530.712	1	6
530.882	1	16
531.052	1	8
531.222	1	13
531.392	1	12
531.563	1	19
531.733	1	5
531.903	1	7
532.073	1	13
532.243	1	9
532.413	1	14
532.583	1	10
532.753	1	13
532.923	1	2
533.093	1	12
533.263	1	6
533.433	1	10
533.603	1	6
533.773	1	6
533.943	1	13
534.113	1	6
534.284	1	14
534.454	1	9
534.624	1	15
534.794	1	-3
534.964	1	13
535.134	1	0
535.304	1	10
535.474	1	25
535.644	1	8
535.814	1	10
535.984	1	-4
536.154	1	6
536.324	1	8
536.494	1	13
536.664	1	11
536.834	1	6
537.004	1	1
537.174	1	16
537.344	1	9
537.514	1	-5
537.685	1	7
537.855	1	17
538.025	1	11
538.195	1	11
538.365	1	12
538.535	1	3
538.705	1	5
538.875	1	10
539.045	1	17
539.215	1	14
539.385	1	14
539.555	1	20
539.725	1	2
539.895	1	5
540.065	1	20
540.235	1	12
540.405	1	-1
540.575	1	10
540.745	1	4
540.915	1	14
541.085	1	17
541.255	1	7
541.425	1	14
541.595	1	4
541.765	1	21
541.935	1	6
542.105	1	-12
542.275	1	4
542.445	1	-1
542.615	1	8
542.785	1	7
542.955	1	4
543.125	1	0
543.295	1	1
543.465	1	9
543.635	1	3
543.805	1	16
543.975	1	6
544.145	1	18
544.315	1	10
544.485	1	12
544.655	1	9
544.825	1	-7
544.995	1	8
545.165	1	5
545.335	1	4
545.505	1	0
545.675	1	10
545.845	1	12
546.015	1	11
546.185	1	17
546.355	1	17
546.525	1	11
546.695	1	12
546.865	1	-1
547.035	1	6
547.205	1	1
547.375	1	10
547.545	1	11
547.715	1	0
547.885	1	10
548.055	1	0
548.225	1	11
548.395	1	0
548.565	1	0
548.735	1	7
548.905	1	2
549.075	1	8
549.245	1	1
549.415	1	-2
549.585	1	15
549.755	1	9
549.925	1	-5
550.095	1	4
550.265	1	1
550.435	1	3
550.605	1	6
550.775	1	14
550.945	1	12
551.115	1	9
551.285	1	8
551.455	1	0
551.625	1	5
551.795	1	7
551.965	1	8
552.135	1	6
552.305	1	4
552.475	1	-3
552.645	1	7
552.815	1	7
552.985	1	2
553.155	1	10
553.325	1	14
553.495	1	11
553.665	1	10
553.835	1	-1
554.004	1	6
554.174	1	-3
554.344	1	21
554.514	1	3
554.684	1	11
554.854	1	13
555.024	1	-4
555.194	1	-3
555.364	1	7
555.534	1	16
555.704	1	11
555.874	1	18
556.044	1	9
556.214	1	-2
556.384	1	10
556.554	1	19
556.724	1	4
556.894	1	9
557.064	1	3
557.234	1	4
557.404	1	9
557.573	1	13
557.743	1	4
557.913	1	0
558.083	1	4
558.253	1	10
558.423	1	9
558.593	1	9
558.763	1	7
558.933	1	8
559.103	1	16
559.273	1	5
559.443	1	9
559.613	1	11
559.783	1	2
559.953	1	5
560.122	1	10
560.292	1	11
560.462	1	-2
560.632	1	11
560.802	1	-3
560.972	1	10
561.142	1	6
561.312	1	-3
561.482	1	6
561.652	1	9
561.822	1	8
561.992	1	1
562.162	1	10
562.331	1	-4
562.501	1	2
562.671	1	12
562.841	1	-4
563.011	1	5
563.181	1	8
563.351	1	-1
563.521	1	5
563.691	1	-1
563.861	1	8
564.031	1	14
564.201	1	10
564.370	1	-4
564.540	1	3
564.710	1	-2
564.880	1	13
565.050	1	17
565.220	1	-4
565.390	1	11
565.560	1	12
565.730	1	-1
565.900	1	4
566.069	1	13
566.239	1	5
566.409	1	5
566.579	1	14
566.749	1	0
566.919	1	13
567.089	1	11
567.259	1	11
567.429	1	-5
567.599	1	0
567.768	1	11
567.938	1	4
568.108	1	7
568.278	1	1
568.448	1	3
568.618	1	1
568.788	1	14
568.958	1	2
569.128	1	9
569.297	1	-3
569.467	1	1
569.637	1	14
569.807	1	4
569.977	1	3
570.147	1	11
570.317	1	-5
570.487	1	8
570.656	1	3
570.826	1	-1
570.996	1	-7
571.166	1	23
571.336	1	3
571.506	1	7
571.676	1	9
571.846	1	8
572.015	1	10
572.185	1	4
572.355	1	7
572.525	1	16
572.695	1	6
572.865	1	0
573.035	1	18
573.205	1	2
573.374	1	-10
573.544	1	-1
573.714	1	15
573.884	1	9
574.054	1	5
574.224	1	8
574.394	1	7
574.563	1	-7
574.733	1	8
574.903	1	2
575.073	1	-3
575.243	1	2
575.413	1	4
575.583	1	3
575.752	1	12
575.922	1	4
576.092	1	10
576.262	1	11
576.432	1	4
576.602	1	-7
576.772	1	13
576.941	1	7
577.111	1	1
577.281	1	6
577.451	1	-2
577.621	1	12
577.791	1	9
577.960	1	-1
578.130	1	12
578.300	1	0
578.470	1	7
578.640	1	7
578.810	1	9
578.979	1	11
579.149	1	9
579.319	1	4
579.489	1	8
579.659	1	-2
579.829	1	11
579.998	1	9
580.168	1	16
580.338	1	9
580.508	1	6
580.678	1	5
580.848	1	3
581.017	1	4
581.187	1	7
581.357	1	-6
581.527	1	7
581.697	1	6
581.867	1	12
582.036	1	0
582.206	1	3
582.376	1	4
582.546	1	1
582.716	1	-1
582.885	1	3
583.055	1	10
583.225	1	1
583.395	1	13
583.565	1	0
583.735	1	10
583.904	1	5
584.074	1	5
584.244	1	8
584.414	1	4
584.584	1	8
584.753	1	5
584.923	1	11
585.093	1	7
585.263	1	7
585.433	1	7
585.602	1	1
585.772	1	3
585.942	1	-4
586.112	1	7
586.282	1	6
586.451	1	1
586.621	1	1
586.791	1	-3
586.961	1	-2
587.131	1	3
587.300	1	0
587.470	1	14
587.640	1	7
587.810	1	2
587.980	1	-3
588.149	1	8
588.319	1	0
588.489	1	-1
588.659	1	10
588.829	1	4
588.998	1	20
589.168	1	13
589.338	1	-4
589.508	1	5
589.677	1	2
589.847	1	4
590.017	1	21
590.187	1	1
590.357	1	13
590.526	1	6
590.696	1	5
590.866	1	13
591.036	1	7
591.205	1	15
591.375	1	-4
591.545	1	3
591.715	1	12
591.885	1	-4
592.054	1	10
592.224	1	7
592.394	1	2
592.564	1	3
592.733	1	-1
592.903	1	4
593.073	1	9
593.243	1	13
593.412	1	10
593.582	1	-1
593.752	1	8
593.922	1	-1
594.091	1	8
594.261	1	-4
594.431	1	7
594.601	1	5
594.771	1	7
594.940	1	3
595.110	1	2
595.280	1	4
595.450	1	2
595.619	1	7
595.789	1	8
595.959	1	10
596.129	1	6
596.298	1	4
596.468	1	4
596.638	1	12
596.808	1	4
596.977	1	-3
597.147	1	-4
597.317	1	5
597.487	1	1
597.656	1	11
597.826	1	6
597.996	1	10
598.166	1	8
598.335	1	6
598.505	1	10
598.675	1	-3
598.844	1	-2
599.014	1	1
599.184	1	5
599.354	1	-5
599.523	1	7
599.693	1	1
599.863	1	12
600.033	1	8
600.202	1	3
600.372	1	13
600.542	1	9
600.712	1	0
600.881	1	-1
601.051	1	18
601.221	1	8
601.390	1	-5
601.560	1	9
601.730	1	9
601.900	1	10
602.069	1	8
602.239	1	-1
602.409	1	3
602.578	1	6
602.748	1	5
602.918	1	10
603.088	1	2
603.257	1	11
603.427	1	-4
603.597	1	14
603.767	1	2
603.936	1	12
604.106	1	5
604.276	1	2
604.445	1	1
604.615	1	5
604.785	1	2
604.954	1	0
605.124	1	10
605.294	1	3
605.464	1	-5
605.633	1	3
605.803	1	12
605.973	1	0
606.142	1	8
606.312	1	6
606.482	1	7
606.652	1	8
606.821	1	7
606.991	1	4
607.161	1	6
607.330	1	4
607.500	1	1
607.670	1	-2
607.839	1	17
608.009	1	19
608.179	1	6
608.348	1	8
608.518	1	8
608.688	1	17
608.858	1	2
609.027	1	-8
609.197	1	12
609.367	1	18
609.536	1	17
609.706	1	6
609.876	1	5
610.045	1	13
610.215	1	13
610.385	1	5
610.554	1	11
610.724	1	8
610.894	1	14
611.063	1	0
611.233	1	-2
611.403	1	2
611.572	1	7
611.742	1	10
611.912	1	7
612.081	1	-8
612.251	1	12
612.421	1	3
612.590	1	3
612.760	1	9
612.930	1	7
613.099	1	3
613.269	1	10
613.439	1	0
613.608	1	5
613.778	1	12
613.948	1	9
614.117	1	10
614.287	1	11
614.457	1	3
614.626	1	0
614.796	1	12
614.966	1	3
615.135	1	13
615.305	1	15
615.475	1	9
615.644	1	8
615.814	1	7
615.984	1	9
616.153	1	0
616.323	1	5
616.493	1	6
616.662	1	18
616.832	1	4
617.002	1	7
617.171	1	2
617.341	1	3
617.511	1	8
617.680	1	3
617.850	1	7
618.019	1	11
618.189	1	15
618.359	1	-3
618.528	1	9
618.698	1	4
618.868	1	0
619.037	1	11
619.207	1	-4
619.377	1	8
619.546	1	7
619.716	1	3
619.885	1	-1
620.055	1	-4
620.225	1	12
620.394	1	4
620.564	1	10
620.734	1	13
620.903	1	2
621.073	1	11
621.242	1	2
621.412	1	2
621.582	1	5
621.751	1	15
621.921	1	12
622.091	1	-2
622.260	1	7
622.430	1	6
622.599	1	7
622.769	1	8
622.939	1	17
623.108	1	10
623.278	1	2
623.448	1	1
623.617	1	2
623.787	1	10
623.956	1	15
624.126	1	2
624.296	1	7
624.465	1	14
624.635	1	12
624.804	1	6
624.974	1	10
625.144	1	13
625.313	1	2
625.483	1	-3
625.652	1	5
625.822	1	1
625.992	1	5
626.161	1	23
626.331	1	3
626.501	1	7
626.670	1	3
626.840	1	3
627.009	1	-4
627.179	1	7
627.348	1	13
627.518	1	4
627.688	1	14
627.857	1	14
628.027	1	4
628.196	1	4
628.366	1	15
628.536	1	9
628.705	1	2
628.875	1	7
629.044	1	8
629.214	1	10
629.384	1	6
629.553	1	11
629.723	1	1
629.892	1	12
630.062	1	9
630.232	1	9
630.401	1	6
630.571	1	-4
630.740	1	1
630.910	1	7
631.079	1	6
631.249	1	11
631.419	1	13
631.588	1	-9
631.758	1	14
631.927	1	4
632.097	1	8
632.266	1	-4
632.436	1	8
632.606	1	10
632.775	1	17
632.945	1	1
633.114	1	9
633.284	1	4
633.453	1	-6
633.623	1	2
633.793	1	10
633.962	1	12
634.132	1	5
634.301	1	9
634.471	1	5
634.640	1	10
634.810	1	5
634.979	1	8
635.149	1	13
635.319	1	9
635.488	1	12
635.658	1	6
635.827	1	-2
635.997	1	3
636.166	1	7
636.336	1	9
636.505	1	7
636.675	1	4
636.845	1	12
637.014	1	13
637.184	1	9
637.353	1	10
637.523	1	8
637.692	1	11
637.862	1	11
638.031	1	13
638.201	1	14
638.370	1	1
638.540	1	10
638.710	1	2
638.879	1	0
639.049	1	8
639.218	1	11
639.388	1	8
639.557	1	6
639.727	1	5
639.896	1	9
640.066	1	5
640.235	1	14
640.405	1	16
640.574	1	11
640.744	1	-3
640.914	1	9
641.083	1	4
641.253	1	3
641.422	1	14
641.592	1	14
641.761	1	2
641.931	1	14
642.100	1	15
642.270	1	3
642.439	1	3
642.609	1	20
642.778	1	5
642.948	1	9
643.117	1	15
643.287	1	10
643.456	1	0
643.626	1	17
643.795	1	7
643.965	1	6
644.134	1	7
644.304	1	15
644.473	1	13
644.643	1	20
644.812	1	15
644.982	1	11
645.151	1	10
645.321	1	1
645.490	1	21
645.660	1	1
645.829	1	0
645.999	1	4
646.168	1	11
646.338	1	16
646.507	1	6
646.677	1	15
646.846	1	12
647.016	1	-5
647.185	1	15
647.355	1	0
647.524	1	14
647.694	1	8
647.863	1	15
648.033	1	17
648.202	1	15
648.372	1	8
648.541	1	13
648.711	1	12
648.880	1	3
649.050	1	14
649.219	1	9
649.389	1	14
649.558	1	12
649.728	1	19
649.897	1	2
650.067	1	13
650.236	1	18
650.406	1	8
650.575	1	10
650.745	1	19
650.914	1	2
651.084	1	-4
651.253	1	10
651.423	1	9
651.592	1	9
651.762	1	0
651.931	1	18
652.101	1	6
652.270	1	13
652.440	1	10
652.609	1	7
652.778	1	3
652.948	1	-2
653.117	1	6
653.287	1	14
653.456	1	10
653.626	1	13
653.795	1	13
653.965	1	9
654.134	1	13
654.304	1	-6
654.473	1	12
654.643	1	15
654.812	1	5
654.982	1	13
655.151	1	4
655.320	1	6
655.490	1	6
655.659	1	11
655.829	1	14
655.998	1	8
656.168	1	9
656.337	1	10
656.507	1	9
656.676	1	9
656.846	1	18
657.015	1	19
657.184	1	18
657.354	1	11
657.523	1	16
657.693	1	10
657.862	1	14
658.032	1	16
658.201	1	14
658.371	1	18
658.540	1	16
658.709	1	11
658.879	1	17
659.048	1	11
659.218	1	10
659.387	1	14
659.557	1	11
659.726	1	9
659.895	1	6
660.065	1	5
660.234	1	10
660.404	1	13
660.573	1	8
660.743	1	6
660.912	1	10
661.081	1	14
661.251	1	7
661.420	1	11
661.590	1	18
661.759	1	25
661.929	1	6
662.098	1	13
662.267	1	9
662.437	1	24
662.606	1	3
662.776	1	16
662.945	1	11
663.115	1	11
663.284	1	7
663.453	1	10
663.623	1	11
663.792	1	11
663.962	1	3
664.131	1	14
664.300	1	24
664.470	1	13
664.639	1	9
664.809	1	14
664.978	1	13
665.148	1	15
665.317	1	8
665.486	1	22
665.656	1	-4
665.825	1	12
665.995	1	13
666.164	1	15
666.333	1	15
666.503	1	5
666.672	1	5
666.842	1	11
667.011	1	8
667.180	1	18
667.350	1	8
667.519	1	15
667.689	1	15
667.858	1	10
668.027	1	20
668.197	1	13
668.366	1	0
668.536	1	6
668.705	1	9
668.874	1	20
669.044	1	7
669.213	1	21
669.382	1	8
669.552	1	25
669.721	1	16
669.891	1	16
670.060	1	14
670.229	1	22
670.399	1	8
670.568	1	16
670.738	1	15
670.907	1	6
671.076	1	8
671.246	1	11
671.415	1	10
671.584	1	8
671.754	1	9
671.923	1	13
672.093	1	16
672.262	1	8
672.431	1	17
672.601	1	7
672.770	1	9
672.939	1	23
673.109	1	-3
673.278	1	14
673.448	1	8
673.617	1	16
673.786	1	14
