325.333	1	10
325.504	1	10
325.675	1	0
325.846	1	0
326.017	1	1
326.188	1	4
326.359	1	3
326.531	1	-10
326.702	1	4
326.873	1	5
327.044	1	6
327.215	1	-2
327.386	1	10
327.557	1	-3
327.728	1	10
327.899	1	7
328.070	1	9
328.241	1	10
328.412	1	-12
328.583	1	13
328.754	1	4
328.926	1	16
329.097	1	-5
329.268	1	15
329.439	1	-1
329.610	1	11
329.781	1	-12
329.952	1	9
330.123	1	1
330.294	1	8
330.465	1	8
330.636	1	11
330.807	1	-3
330.978	1	9
331.149	1	-3
331.320	1	-4
331.492	1	-1
331.663	1	6
331.834	1	17
332.005	1	3
332.176	1	16
332.347	1	1
332.518	1	-1
332.689	1	4
332.860	1	7
333.031	1	7
333.202	1	0
333.373	1	12
333.544	1	3
333.715	1	2
333.886	1	-4
334.057	1	4
334.228	1	3
334.399	1	5
334.570	1	13
334.741	1	-10
334.912	1	-2
335.084	1	20
335.255	1	7
335.426	1	11
335.597	1	1
335.768	1	1
335.939	1	5
336.110	1	-7
336.281	1	-4
336.452	1	-2
336.623	1	7
336.794	1	4
336.965	1	14
337.136	1	6
337.307	1	4
337.478	1	8
337.649	1	5
337.820	1	1
337.991	1	2
338.162	1	12
338.333	1	3
338.504	1	12
338.675	1	8
338.846	1	11
339.017	1	1
339.188	1	-7
339.359	1	-4
339.530	1	3
339.701	1	4
339.872	1	11
340.043	1	0
340.214	1	12
340.385	1	14
340.556	1	0
340.727	1	4
340.898	1	18
341.069	1	4
341.240	1	7
341.411	1	13
341.582	1	11
341.753	1	-2
341.924	1	10
342.095	1	17
342.266	1	9
342.437	1	25
342.608	1	-2
342.779	1	10
342.950	1	4
343.121	1	9
343.292	1	-2
343.463	1	11
343.634	1	0
343.805	1	16
343.976	1	11
344.147	1	15
344.318	1	3
344.489	1	3
344.660	1	10
344.831	1	5
345.002	1	-1
345.173	1	9
345.344	1	14
345.515	1	13
345.686	1	11
345.857	1	0
346.028	1	2
346.199	1	-6
346.370	1	4
346.541	1	11
346.712	1	9
346.883	1	-2
347.054	1	-5
347.225	1	11
347.396	1	17
347.567	1	-3
347.738	1	2
347.909	1	22
348.080	1	5
348.251	1	11
348.422	1	24
348.593	1	4
348.764	1	0
348.935	1	2
349.106	1	2
349.277	1	7
349.448	1	8
349.619	1	2
349.790	1	7
349.961	1	12
350.132	1	8
350.303	1	2
350.474	1	26
350.645	1	6
350.816	1	8
350.987	1	11
351.157	1	-6
351.328	1	10
351.499	1	6
351.670	1	7
351.841	1	10
352.012	1	14
352.183	1	13
352.354	1	14
352.525	1	14
352.696	1	12
352.867	1	-1
353.038	1	18
353.209	1	11
353.380	1	5
353.551	1	-1
353.722	1	13
353.893	1	13
354.064	1	17
354.235	1	15
354.406	1	11
354.576	1	14
354.747	1	12
354.918	1	12
355.089	1	13
355.260	1	8
355.431	1	11
355.602	1	1
355.773	1	11
355.944	1	22
356.115	1	8
356.286	1	14
356.457	1	10
356.628	1	15
356.799	1	16
356.970	1	21
357.141	1	8
357.311	1	9
357.482	1	7
357.653	1	11
357.824	1	22
357.995	1	11
358.166	1	-2
358.337	1	6
358.508	1	17
358.679	1	3
358.850	1	10
359.021	1	7
359.192	1	16
359.363	1	11
359.533	1	8
359.704	1	3
359.875	1	14
360.046	1	8
360.217	1	-2
360.388	1	11
360.559	1	12
360.730	1	15
360.901	1	13
361.072	1	26
361.243	1	16
361.414	1	8
361.584	1	4
361.755	1	16
361.926	1	2
362.097	1	9
362.268	1	18
362.439	1	9
362.610	1	24
362.781	1	3
362.952	1	7
363.123	1	11
363.293	1	8
363.464	1	18
363.635	1	11
363.806	1	3
363.977	1	17
364.148	1	11
364.319	1	15
364.490	1	16
364.661	1	5
364.832	1	16
365.002	1	22
365.173	1	10
365.344	1	24
365.515	1	10
365.686	1	10
365.857	1	11
366.028	1	18
366.199	1	13
366.370	1	4
366.540	1	10
366.711	1	0
366.882	1	13
367.053	1	-2
367.224	1	25
367.395	1	16
367.566	1	23
367.737	1	16
367.908	1	14
368.078	1	19
368.249	1	10
368.420	1	-2
368.591	1	10
368.762	1	18
368.933	1	11
369.104	1	-3
369.274	1	12
369.445	1	19
369.616	1	23
369.787	1	13
369.958	1	19
370.129	1	2
370.300	1	15
370.471	1	10
370.641	1	16
370.812	1	14
370.983	1	26
371.154	1	19
371.325	1	21
371.496	1	11
371.667	1	17
371.837	1	13
372.008	1	17
372.179	1	4
372.350	1	21
372.521	1	20
372.692	1	17
372.863	1	19
373.033	1	-8
373.204	1	1
373.375	1	17
373.546	1	10
373.717	1	14
373.888	1	34
374.059	1	20
374.229	1	18
374.400	1	3
374.571	1	20
374.742	1	19
374.913	1	19
375.084	1	13
375.254	1	13
375.425	1	17
375.596	1	22
375.767	1	19
375.938	1	13
376.109	1	22
376.279	1	6
376.450	1	23
376.621	1	15
376.792	1	15
376.963	1	9
377.134	1	22
377.304	1	11
377.475	1	18
377.646	1	14
377.817	1	13
377.988	1	7
378.159	1	16
378.329	1	26
378.500	1	14
378.671	1	11
378.842	1	10
379.013	1	2
379.184	1	14
379.354	1	20
379.525	1	6
379.696	1	22
379.867	1	19
380.038	1	15
380.209	1	22
380.379	1	11
380.550	1	8
380.721	1	19
380.892	1	18
381.063	1	15
381.233	1	15
381.404	1	15
381.575	1	25
381.746	1	23
381.917	1	21
382.087	1	21
382.258	1	13
382.429	1	25
382.600	1	30
382.771	1	8
382.941	1	12
383.112	1	14
383.283	1	16
383.454	1	9
383.625	1	14
383.795	1	14
383.966	1	13
384.137	1	23
384.308	1	24
384.479	1	12
384.649	1	15
384.820	1	12
384.991	1	18
385.162	1	15
385.333	1	13
385.503	1	15
385.674	1	4
385.845	1	27
386.016	1	14
386.187	1	17
386.357	1	10
386.528	1	28
386.699	1	12
386.870	1	28
387.041	1	23
387.211	1	20
387.382	1	22
387.553	1	27
387.724	1	16
387.894	1	22
388.065	1	10
388.236	1	25
388.407	1	14
388.578	1	19
388.748	1	7
388.919	1	25
389.090	1	21
389.261	1	18
389.431	1	22
389.602	1	22
389.773	1	18
389.944	1	19
390.114	1	6
390.285	1	15
390.456	1	21
390.627	1	11
390.798	1	22
390.968	1	23
391.139	1	24
391.310	1	12
391.481	1	22
391.651	1	22
391.822	1	16
391.993	1	14
392.164	1	12
392.334	1	20
392.505	1	12
392.676	1	25
392.847	1	22
393.017	1	25
393.188	1	18
393.359	1	17
393.530	1	21
393.700	1	25
393.871	1	16
394.042	1	13
394.213	1	18
394.383	1	17
394.554	1	27
394.725	1	25
394.896	1	6
395.066	1	23
395.237	1	22
395.408	1	20
395.579	1	16
395.749	1	13
395.920	1	17
396.091	1	22
396.262	1	16
396.432	1	16
396.603	1	28
396.774	1	20
396.945	1	25
397.115	1	22
397.286	1	20
397.457	1	28
397.627	1	26
397.798	1	20
397.969	1	11
398.140	1	16
398.310	1	19
398.481	1	23
398.652	1	16
398.823	1	15
398.993	1	17
399.164	1	21
399.335	1	25
399.505	1	12
399.676	1	21
399.847	1	16
400.018	1	17
400.188	1	22
400.359	1	18
400.530	1	16
400.700	1	11
400.871	1	20
401.042	1	18
401.213	1	27
401.383	1	22
401.554	1	26
401.725	1	26
401.895	1	22
402.066	1	16
402.237	1	17
402.408	1	32
402.578	1	27
402.749	1	15
402.920	1	23
403.090	1	15
403.261	1	21
403.432	1	11
403.603	1	21
403.773	1	31
403.944	1	35
404.115	1	26
404.285	1	23
404.456	1	13
404.627	1	18
404.797	1	16
404.968	1	17
405.139	1	14
405.310	1	30
405.480	1	25
405.651	1	10
405.822	1	15
405.992	1	8
406.163	1	28
406.334	1	19
406.504	1	19
406.675	1	40
406.846	1	18
407.016	1	25
407.187	1	27
407.358	1	18
407.528	1	8
407.699	1	6
407.870	1	9
408.041	1	32
408.211	1	22
408.382	1	15
408.553	1	17
408.723	1	30
408.894	1	20
409.065	1	23
409.235	1	17
409.406	1	19
409.577	1	18
409.747	1	25
409.918	1	14
410.089	1	21
410.259	1	25
410.430	1	26
410.601	1	19
410.771	1	11
410.942	1	22
411.113	1	24
411.283	1	21
411.454	1	27
411.625	1	26
411.795	1	22
411.966	1	23
412.137	1	21
412.307	1	15
412.478	1	17
412.649	1	18
412.819	1	24
412.990	1	20
413.161	1	26
413.331	1	11
413.502	1	28
413.672	1	21
413.843	1	21
414.014	1	25
414.184	1	27
414.355	1	16
414.526	1	18
414.696	1	28
414.867	1	17
415.038	1	14
415.208	1	20
415.379	1	32
415.550	1	23
415.720	1	20
415.891	1	21
416.062	1	24
416.232	1	21
416.403	1	26
416.573	1	24
416.744	1	16
416.915	1	23
417.085	1	23
417.256	1	16
417.427	1	17
417.597	1	20
417.768	1	14
417.939	1	26
418.109	1	17
418.280	1	27
418.450	1	11
418.621	1	17
418.792	1	23
418.962	1	26
419.133	1	25
419.304	1	15
419.474	1	13
419.645	1	20
419.815	1	21
419.986	1	20
420.157	1	23
420.327	1	19
420.498	1	25
420.669	1	8
420.839	1	24
421.010	1	32
421.180	1	25
421.351	1	17
421.522	1	18
421.692	1	14
421.863	1	20
422.033	1	30
422.204	1	17
422.375	1	21
422.545	1	25
422.716	1	21
422.886	1	15
423.057	1	30
423.228	1	20
423.398	1	12
423.569	1	18
423.740	1	8
423.910	1	7
424.081	1	13
424.251	1	17
424.422	1	25
424.593	1	17
424.763	1	17
424.934	1	20
425.104	1	24
425.275	1	21
425.445	1	23
425.616	1	17
425.787	1	16
425.957	1	19
426.128	1	26
426.298	1	14
426.469	1	17
426.640	1	21
426.810	1	23
426.981	1	22
427.151	1	14
427.322	1	24
427.493	1	13
427.663	1	20
427.834	1	24
428.004	1	13
428.175	1	18
428.345	1	10
428.516	1	17
428.687	1	20
428.857	1	10
429.028	1	17
429.198	1	20
429.369	1	17
429.540	1	19
429.710	1	13
429.881	1	19
430.051	1	23
430.222	1	13
430.392	1	15
430.563	1	30
430.734	1	28
430.904	1	20
431.075	1	31
431.245	1	12
431.416	1	25
431.586	1	10
431.757	1	16
431.927	1	14
432.098	1	24
432.269	1	17
432.439	1	23
432.610	1	15
432.780	1	19
432.951	1	10
433.121	1	31
433.292	1	22
433.462	1	18
433.633	1	18
433.804	1	16
433.974	1	24
434.145	1	29
434.315	1	8
434.486	1	14
434.656	1	14
434.827	1	14
434.997	1	12
435.168	1	25
435.339	1	24
435.509	1	21
435.680	1	22
435.850	1	9
436.021	1	16
436.191	1	19
436.362	1	11
436.532	1	21
436.703	1	20
436.873	1	14
437.044	1	15
437.214	1	16
437.385	1	22
437.556	1	21
437.726	1	28
437.897	1	26
438.067	1	15
438.238	1	23
438.408	1	19
438.579	1	14
438.749	1	9
438.920	1	15
439.090	1	22
439.261	1	15
439.431	1	19
439.602	1	16
439.772	1	18
439.943	1	32
440.113	1	26
440.284	1	23
440.455	1	16
440.625	1	19
440.796	1	18
440.966	1	9
441.137	1	9
441.307	1	13
441.478	1	28
441.648	1	26
441.819	1	12
441.989	1	18
442.160	1	30
442.330	1	21
442.501	1	22
442.671	1	16
442.842	1	-1
443.012	1	4
443.183	1	17
443.353	1	11
443.524	1	22
443.694	1	16
443.865	1	19
444.035	1	23
444.206	1	15
444.376	1	11
444.547	1	21
444.717	1	16
444.888	1	7
445.058	1	17
445.229	1	15
445.399	1	13
445.570	1	21
445.740	1	19
445.911	1	19
446.081	1	11
446.252	1	24
446.422	1	5
446.593	1	8
446.763	1	11
446.934	1	20
447.104	1	19
447.275	1	15
447.445	1	25
447.616	1	25
447.786	1	13
447.957	1	16
448.127	1	18
448.298	1	22
448.468	1	1
448.639	1	20
448.809	1	16
448.979	1	12
449.150	1	25
449.320	1	13
449.491	1	20
449.661	1	6
449.832	1	14
450.002	1	17
450.173	1	13
450.343	1	23
450.514	1	22
450.684	1	13
450.855	1	15
451.025	1	18
451.196	1	24
451.366	1	14
451.537	1	9
451.707	1	10
451.878	1	11
452.048	1	20
452.218	1	17
452.389	1	20
452.559	1	21
452.730	1	18
452.900	1	24
453.071	1	6
453.241	1	8
453.412	1	23
453.582	1	12
453.753	1	17
453.923	1	15
454.093	1	19
454.264	1	28
454.434	1	6
454.605	1	16
454.775	1	16
454.946	1	10
455.116	1	15
455.287	1	7
455.457	1	12
455.628	1	16
455.798	1	22
455.968	1	23
456.139	1	8
456.309	1	8
456.480	1	12
456.650	1	8
456.821	1	2
456.991	1	16
457.161	1	15
457.332	1	23
457.502	1	3
457.673	1	10
457.843	1	18
458.014	1	9
458.184	1	18
458.355	1	15
458.525	1	12
458.695	1	14
458.866	1	19
459.036	1	14
459.207	1	14
459.377	1	10
459.548	1	19
459.718	1	10
459.888	1	22
460.059	1	20
460.229	1	14
460.400	1	16
460.570	1	16
460.740	1	13
460.911	1	15
461.081	1	14
461.252	1	10
461.422	1	2
461.593	1	14
461.763	1	18
461.933	1	16
462.104	1	10
462.274	1	2
462.445	1	16
462.615	1	11
462.785	1	17
462.956	1	16
463.126	1	15
463.297	1	15
463.467	1	8
463.638	1	13
463.808	1	6
463.978	1	14
464.149	1	9
464.319	1	14
464.490	1	23
464.660	1	5
464.830	1	12
465.001	1	14
465.171	1	7
465.342	1	11
465.512	1	10
465.682	1	6
465.853	1	15
466.023	1	4
466.194	1	16
466.364	1	14
466.534	1	13
466.705	1	22
466.875	1	11
467.045	1	5
467.216	1	13
467.386	1	4
467.557	1	11
467.727	1	2
467.897	1	7
468.068	1	7
468.238	1	10
468.409	1	15
468.579	1	23
468.749	1	13
468.920	1	-2
469.090	1	8
469.260	1	9
469.431	1	7
469.601	1	24
469.772	1	11
469.942	1	13
470.112	1	19
470.283	1	11
470.453	1	12
470.623	1	11
470.794	1	2
470.964	1	21
471.135	1	7
471.305	1	4
471.475	1	16
471.646	1	10
471.816	1	11
471.986	1	14
472.157	1	15
472.327	1	-1
472.497	1	7
472.668	1	-5
472.838	1	2
473.009	1	15
473.179	1	7
473.349	1	2
473.520	1	19
473.690	1	13
473.860	1	18
474.031	1	14
474.201	1	9
474.371	1	15
474.542	1	15
474.712	1	5
474.882	1	17
475.053	1	19
475.223	1	-6
475.394	1	8
475.564	1	15
475.734	1	12
475.905	1	20
476.075	1	6
476.245	1	19
476.416	1	14
476.586	1	15
476.756	1	-1
476.927	1	15
477.097	1	10
477.267	1	5
477.438	1	14
477.608	1	7
477.778	1	16
477.949	1	14
478.119	1	20
478.289	1	21
478.460	1	18
478.630	1	7
478.800	1	12
478.971	1	8
479.141	1	5
479.311	1	-7
479.482	1	11
479.652	1	7
479.822	1	13
479.993	1	12
480.163	1	15
480.333	1	8
480.504	1	10
480.674	1	11
480.844	1	2
481.015	1	20
481.185	1	3
481.355	1	18
481.525	1	11
481.696	1	10
481.866	1	12
482.036	1	9
482.207	1	-1
482.377	1	11
482.547	1	18
482.718	1	8
482.888	1	6
483.058	1	1
483.229	1	12
483.399	1	0
483.569	1	10
483.740	1	11
483.910	1	20
484.080	1	5
484.250	1	4
484.421	1	6
484.591	1	15
484.761	1	16
484.932	1	15
485.102	1	9
485.272	1	11
485.443	1	17
485.613	1	9
485.783	1	7
485.953	1	11
486.124	1	14
486.294	1	7
486.464	1	11
486.635	1	13
486.805	1	10
486.975	1	3
487.146	1	5
487.316	1	10
487.486	1	11
487.656	1	7
487.827	1	5
487.997	1	0
488.167	1	7
488.338	1	12
488.508	1	13
488.678	1	8
488.848	1	17
489.019	1	14
489.189	1	13
489.359	1	7
489.529	1	10
489.700	1	0
489.870	1	16
490.040	1	3
490.211	1	13
490.381	1	10
490.551	1	11
490.721	1	18
490.892	1	2
491.062	1	12
491.232	1	8
491.402	1	9
491.573	1	1
491.743	1	10
491.913	1	10
492.084	1	8
492.254	1	11
492.424	1	1
492.594	1	15
492.765	1	4
492.935	1	7
493.105	1	16
493.275	1	6
493.446	1	16
493.616	1	6
493.786	1	9
493.956	1	3
494.127	1	5
494.297	1	7
494.467	1	7
494.637	1	5
494.808	1	7
494.978	1	2
495.148	1	12
495.318	1	-3
495.489	1	11
495.659	1	5
495.829	1	7
495.999	1	0
496.170	1	9
496.340	1	19
496.510	1	10
496.680	1	-2
496.851	1	-1
497.021	1	8
497.191	1	-5
497.361	1	8
497.532	1	3
497.702	1	3
497.872	1	7
498.042	1	4
498.213	1	3
498.383	1	6
498.553	1	8
498.723	1	3
498.894	1	9
499.064	1	6
499.234	1	12
499.404	1	11
499.574	1	16
499.745	1	13
499.915	1	6
500.085	1	11
500.255	1	5
500.426	1	6
500.596	1	5
500.766	1	10
500.936	1	-2
501.106	1	5
501.277	1	8
501.447	1	4
501.617	1	9
501.787	1	2
501.958	1	1
502.128	1	-2
502.298	1	6
502.468	1	8
502.638	1	7
502.809	1	5
502.979	1	1
503.149	1	-9
503.319	1	0
503.489	1	10
503.660	1	3
503.830	1	9
504.000	1	12
504.170	1	-3
504.340	1	-4
504.511	1	15
504.681	1	4
504.851	1	7
505.021	1	6
505.192	1	-1
505.362	1	13
505.532	1	9
505.702	1	-3
505.872	1	12
506.043	1	12
506.213	1	3
506.383	1	10
506.553	1	6
506.723	1	6
506.893	1	14
507.064	1	15
507.234	1	0
507.404	1	0
507.574	1	3
507.744	1	9
507.915	1	6
508.085	1	7
508.255	1	7
508.425	1	-4
508.595	1	7
508.766	1	17
508.936	1	-9
509.106	1	8
509.276	1	12
509.446	1	-1
509.616	1	0
509.787	1	15
509.957	1	0
510.127	1	10
510.297	1	8
510.467	1	3
510.638	1	0
510.808	1	0
510.978	1	-4
511.148	1	5
511.318	1	2
511.488	1	5
511.659	1	13
511.829	1	-3
511.999	1	0
512.169	1	4
512.339	1	9
512.509	1	5
512.680	1	2
512.850	1	4
513.020	1	14
513.190	1	11
513.360	1	4
513.530	1	-8
513.700	1	9
513.871	1	4
514.041	1	0
514.211	1	2
514.381	1	3
514.551	1	8
514.721	1	5
514.892	1	2
515.062	1	9
515.232	1	6
515.402	1	-6
515.572	1	-5
515.742	1	7
515.912	1	7
516.083	1	6
516.253	1	13
516.423	1	8
516.593	1	3
516.763	1	11
516.933	1	-5
517.104	1	13
517.274	1	4
517.444	1	10
517.614	1	-4
517.784	1	8
517.954	1	10
518.124	1	9
518.294	1	1
518.465	1	1
518.635	1	1
518.805	1	-4
518.975	1	0
519.145	1	2
519.315	1	9
519.485	1	-3
519.656	1	10
519.826	1	7
519.996	1	-2
520.166	1	7
520.336	1	17
520.506	1	-1
520.676	1	10
520.846	1	18
521.017	1	3
521.187	1	5
521.357	1	12
521.527	1	5
521.697	1	0
521.867	1	-2
522.037	1	2
522.207	1	9
522.377	1	5
522.548	1	-4
522.718	1	3
522.888	1	19
523.058	1	12
523.228	1	10
523.398	1	8
523.568	1	8
523.738	1	6
523.909	1	10
524.079	1	1
524.249	1	13
524.419	1	6
524.589	1	7
524.759	1	0
524.929	1	3
525.099	1	4
525.269	1	9
525.439	1	-2
525.610	1	12
525.780	1	-3
525.950	1	6
526.120	1	2
526.290	1	2
526.460	1	-5
526.630	1	10
526.800	1	2
526.970	1	7
527.140	1	1
527.311	1	-4
527.481	1	-3
527.651	1	15
527.821	1	-4
527.991	1	20
528.161	1	14
528.331	1	2
528.501	1	11
528.671	1	-2
528.841	1	2
529.011	1	-1
529.181	1	3
529.352	1	1
529.522	1	2
529.692	1	1
529.862	1	5
530.032	1	2
530.202	1	0
530.372	1	10
530.542	1	0
530.712	1	5
530.882	1	8
531.052	1	5
531.222	1	-3
531.392	1	10
531.563	1	7
531.733	1	0
531.903	1	-1
532.073	1	14
532.243	1	1
532.413	1	1
532.583	1	1
532.753	1	10
532.923	1	-7
533.093	1	2
533.263	1	2
533.433	1	0
533.603	1	10
533.773	1	8
533.943	1	9
534.113	1	-7
534.284	1	6
534.454	1	8
534.624	1	12
534.794	1	-8
534.964	1	3
535.134	1	1
535.304	1	1
535.474	1	15
535.644	1	-5
535.814	1	-2
535.984	1	4
536.154	1	-5
536.324	1	5
536.494	1	7
536.664	1	12
536.834	1	10
537.004	1	4
537.174	1	11
537.344	1	3
537.514	1	0
537.685	1	2
537.855	1	5
538.025	1	0
538.195	1	-2
538.365	1	11
538.535	1	5
538.705	1	7
538.875	1	10
539.045	1	9
539.215	1	4
539.385	1	8
539.555	1	10
539.725	1	-1
539.895	1	0
540.065	1	8
540.235	1	8
540.405	1	-8
540.575	1	9
540.745	1	7
540.915	1	11
541.085	1	15
541.255	1	-2
541.425	1	7
541.595	1	-7
541.765	1	3
541.935	1	-2
542.105	1	-10
542.275	1	1
542.445	1	-14
542.615	1	0
542.785	1	8
542.955	1	2
543.125	1	-2
543.295	1	-2
543.465	1	5
543.635	1	7
543.805	1	15
543.975	1	-2
544.145	1	9
544.315	1	6
544.485	1	10
544.655	1	6
544.825	1	-3
544.995	1	11
545.165	1	-1
545.335	1	5
545.505	1	-5
545.675	1	14
545.845	1	6
546.015	1	8
546.185	1	2
546.355	1	9
546.525	1	5
546.695	1	1
546.865	1	-4
547.035	1	7
547.205	1	-11
547.375	1	4
547.545	1	8
547.715	1	-3
547.885	1	5
548.055	1	3
548.225	1	2
548.395	1	-2
548.565	1	15
548.735	1	13
548.905	1	0
549.075	1	8
549.245	1	-3
549.415	1	-9
549.585	1	5
549.755	1	5
549.925	1	-13
550.095	1	8
550.265	1	-2
550.435	1	4
550.605	1	-1
550.775	1	6
550.945	1	10
551.115	1	0
551.285	1	1
551.455	1	-3
551.625	1	9
551.795	1	4
551.965	1	-5
552.135	1	3
552.305	1	-1
552.475	1	-7
552.645	1	1
552.815	1	5
552.985	1	2
553.155	1	6
553.325	1	11
553.495	1	10
553.665	1	-5
553.835	1	-1
554.004	1	-2
554.174	1	-1
554.344	1	10
554.514	1	-8
554.684	1	6
554.854	1	2
555.024	1	-7
555.194	1	2
555.364	1	3
555.534	1	15
555.704	1	-6
555.874	1	13
556.044	1	8
556.214	1	0
556.384	1	-7
556.554	1	13
556.724	1	2
556.894	1	5
557.064	1	5
557.234	1	-1
557.404	1	8
557.573	1	5
557.743	1	0
557.913	1	6
558.083	1	-3
558.253	1	7
558.423	1	-1
558.593	1	6
558.763	1	-4
558.933	1	-2
559.103	1	14
559.273	1	5
559.443	1	6
559.613	1	8
559.783	1	-9
559.953	1	7
560.122	1	6
560.292	1	-2
560.462	1	1
560.632	1	15
560.802	1	3
560.972	1	9
561.142	1	3
561.312	1	-8
561.482	1	7
561.652	1	-4
561.822	1	2
561.992	1	-8
562.162	1	1
562.331	1	4
562.501	1	-5
562.671	1	4
562.841	1	-7
563.011	1	1
563.181	1	-5
563.351	1	-14
563.521	1	-1
563.691	1	-1
563.861	1	-1
564.031	1	9
564.201	1	14
564.370	1	5
564.540	1	-1
564.710	1	-13
564.880	1	10
565.050	1	7
565.220	1	-6
565.390	1	2
565.560	1	6
565.730	1	-3
565.900	1	-1
566.069	1	12
566.239	1	-5
566.409	1	4
566.579	1	5
566.749	1	-3
566.919	1	7
567.089	1	0
567.259	1	9
567.429	1	5
567.599	1	2
567.768	1	3
567.938	1	3
568.108	1	-1
568.278	1	1
568.448	1	-3
568.618	1	-4
568.788	1	3
568.958	1	6
569.128	1	10
569.297	1	-8
569.467	1	-4
569.637	1	8
569.807	1	-4
569.977	1	0
570.147	1	6
570.317	1	-5
570.487	1	1
570.656	1	3
570.826	1	-3
570.996	1	-1
571.166	1	18
571.336	1	-3
571.506	1	11
571.676	1	2
571.846	1	-1
572.015	1	5
572.185	1	4
572.355	1	2
572.525	1	4
572.695	1	12
572.865	1	0
573.035	1	5
573.205	1	9
573.374	1	0
573.544	1	2
573.714	1	7
573.884	1	12
574.054	1	4
574.224	1	12
574.394	1	4
574.563	1	4
574.733	1	-2
574.903	1	2
575.073	1	-1
575.243	1	0
575.413	1	4
575.583	1	-3
575.752	1	7
575.922	1	12
576.092	1	7
576.262	1	2
576.432	1	4
576.602	1	-5
576.772	1	11
576.941	1	3
577.111	1	-5
577.281	1	-12
577.451	1	-1
577.621	1	11
577.791	1	5
577.960	1	-5
578.130	1	6
578.300	1	2
578.470	1	3
578.640	1	-1
578.810	1	2
578.979	1	3
579.149	1	3
579.319	1	-2
579.489	1	-1
579.659	1	-2
579.829	1	3
579.998	1	9
580.168	1	8
580.338	1	3
580.508	1	-4
580.678	1	4
580.848	1	1
581.017	1	-1
581.187	1	3
581.357	1	-14
581.527	1	11
581.697	1	2
581.867	1	9
582.036	1	-1
582.206	1	-2
582.376	1	16
582.546	1	-8
582.716	1	-7
582.885	1	-1
583.055	1	11
583.225	1	-6
583.395	1	-1
583.565	1	-9
583.735	1	5
583.904	1	3
584.074	1	3
584.244	1	4
584.414	1	-1
584.584	1	3
584.753	1	-5
584.923	1	1
585.093	1	-3
585.263	1	1
585.433	1	-6
585.602	1	-6
585.772	1	0
585.942	1	0
586.112	1	5
586.282	1	1
586.451	1	-3
586.621	1	-1
586.791	1	-3
586.961	1	3
587.131	1	5
587.300	1	3
587.470	1	9
587.640	1	0
587.810	1	4
587.980	1	-1
588.149	1	-2
588.319	1	-5
588.489	1	12
588.659	1	2
588.829	1	1
588.998	1	5
589.168	1	14
589.338	1	7
589.508	1	6
589.677	1	-11
589.847	1	-3
590.017	1	10
590.187	1	-8
590.357	1	15
590.526	1	5
590.696	1	10
590.866	1	13
591.036	1	-3
591.205	1	12
591.375	1	-4
591.545	1	-3
591.715	1	8
591.885	1	9
592.054	1	2
592.224	1	7
592.394	1	1
592.564	1	12
592.733	1	7
592.903	1	3
593.073	1	-1
593.243	1	5
593.412	1	11
593.582	1	5
593.752	1	3
593.922	1	7
594.091	1	5
594.261	1	-2
594.431	1	-3
594.601	1	2
594.771	1	9
594.940	1	0
595.110	1	3
595.280	1	1
595.450	1	-9
595.619	1	2
595.789	1	2
595.959	1	-2
596.129	1	-5
596.298	1	2
596.468	1	4
596.638	1	8
596.808	1	-3
596.977	1	-3
597.147	1	5
597.317	1	0
597.487	1	10
597.656	1	-5
597.826	1	2
597.996	1	-4
598.166	1	-2
598.335	1	-6
598.505	1	-1
598.675	1	-5
598.844	1	1
599.014	1	1
599.184	1	8
599.354	1	-2
599.523	1	5
599.693	1	0
599.863	1	9
600.033	1	-1
600.202	1	3
600.372	1	2
600.542	1	12
600.712	1	1
600.881	1	3
601.051	1	9
601.221	1	7
601.390	1	-6
601.560	1	11
601.730	1	13
601.900	1	3
602.069	1	8
602.239	1	-8
602.409	1	-4
602.578	1	4
602.748	1	-7
602.918	1	4
603.088	1	6
603.257	1	9
603.427	1	0
603.597	1	-1
603.767	1	4
603.936	1	9
604.106	1	12
604.276	1	-1
604.445	1	16
604.615	1	-2
604.785	1	7
604.954	1	-9
605.124	1	8
605.294	1	4
605.464	1	-1
605.633	1	13
605.803	1	8
605.973	1	-7
606.142	1	-1
606.312	1	7
606.482	1	-2
606.652	1	15
606.821	1	4
606.991	1	9
607.161	1	1
607.330	1	9
607.500	1	9
607.670	1	-8
607.839	1	7
608.009	1	11
608.179	1	11
608.348	1	5
608.518	1	-8
608.688	1	10
608.858	1	-2
609.027	1	-8
609.197	1	4
609.367	1	7
609.536	1	10
609.706	1	11
609.876	1	11
610.045	1	5
610.215	1	5
610.385	1	-1
610.554	1	3
610.724	1	4
610.894	1	-2
611.063	1	6
611.233	1	-4
611.403	1	11
611.572	1	6
611.742	1	6
611.912	1	-3
612.081	1	-3
612.251	1	8
612.421	1	1
612.590	1	10
612.760	1	-1
612.930	1	-1
613.099	1	4
613.269	1	10
613.439	1	-3
613.608	1	-11
613.778	1	9
613.948	1	0
614.117	1	9
614.287	1	5
614.457	1	2
614.626	1	-4
614.796	1	11
614.966	1	4
615.135	1	6
615.305	1	11
615.475	1	-5
615.644	1	9
615.814	1	3
615.984	1	-8
616.153	1	-3
616.323	1	10
616.493	1	-5
616.662	1	10
616.832	1	5
617.002	1	-2
617.171	1	-3
617.341	1	-1
617.511	1	-5
617.680	1	-8
617.850	1	4
618.019	1	16
618.189	1	10
618.359	1	19
618.528	1	0
618.698	1	9
618.868	1	-8
619.037	1	6
619.207	1	-2
619.377	1	0
619.546	1	-4
619.716	1	5
619.885	1	-2
620.055	1	-5
620.225	1	6
620.394	1	-3
620.564	1	15
620.734	1	9
620.903	1	-7
621.073	1	7
621.242	1	9
621.412	1	10
621.582	1	5
621.751	1	9
621.921	1	7
622.091	1	3
622.260	1	4
622.430	1	7
622.599	1	-3
622.769	1	10
622.939	1	3
623.108	1	8
623.278	1	-2
623.448	1	-4
623.617	1	3
623.787	1	15
623.956	1	0
624.126	1	-4
624.296	1	1
624.465	1	3
624.635	1	6
624.804	1	1
624.974	1	7
625.144	1	9
625.313	1	1
625.483	1	-3
625.652	1	1
625.822	1	0
625.992	1	0
626.161	1	11
626.331	1	8
626.501	1	7
626.670	1	0
626.840	1	6
627.009	1	1
627.179	1	2
627.348	1	6
627.518	1	2
627.688	1	10
627.857	1	14
628.027	1	0
628.196	1	3
628.366	1	8
628.536	1	0
628.705	1	6
628.875	1	2
629.044	1	1
629.214	1	8
629.384	1	8
629.553	1	15
629.723	1	0
629.892	1	-4
630.062	1	3
630.232	1	-1
630.401	1	2
630.571	1	4
630.740	1	0
630.910	1	4
631.079	1	-2
631.249	1	3
631.419	1	6
631.588	1	-17
631.758	1	13
631.927	1	-10
632.097	1	-1
632.266	1	0
632.436	1	7
632.606	1	-10
632.775	1	9
632.945	1	12
633.114	1	8
633.284	1	4
633.453	1	4
633.623	1	3
633.793	1	7
633.962	1	2
634.132	1	2
634.301	1	0
634.471	1	13
634.640	1	11
634.810	1	7
634.979	1	13
635.149	1	6
635.319	1	0
635.488	1	6
635.658	1	2
635.827	1	1
635.997	1	3
636.166	1	8
636.336	1	-1
636.505	1	3
636.675	1	-1
636.845	1	9
637.014	1	1
637.184	1	17
637.353	1	4
637.523	1	-3
637.692	1	4
637.862	1	9
638.031	1	7
638.201	1	15
638.370	1	-1
638.540	1	-4
638.710	1	3
638.879	1	2
639.049	1	-1
639.218	1	-1
639.388	1	7
639.557	1	-2
639.727	1	5
639.896	1	8
640.066	1	13
640.235	1	3
640.405	1	15
640.574	1	4
640.744	1	0
640.914	1	-2
641.083	1	-8
641.253	1	3
641.422	1	2
641.592	1	9
641.761	1	3
641.931	1	3
642.100	1	17
642.270	1	-7
642.439	1	10
642.609	1	15
642.778	1	-1
642.948	1	-4
643.117	1	9
643.287	1	6
643.456	1	-5
643.626	1	11
643.795	1	-1
643.965	1	7
644.134	1	3
644.304	1	5
644.473	1	4
644.643	1	12
644.812	1	5
644.982	1	11
645.151	1	4
645.321	1	-4
645.490	1	13
645.660	1	-11
645.829	1	7
645.999	1	-2
646.168	1	-2
646.338	1	1
646.507	1	3
646.677	1	3
646.846	1	1
647.016	1	-3
647.185	1	4
647.355	1	-6
647.524	1	9
647.694	1	7
647.863	1	-3
648.033	1	2
648.202	1	12
648.372	1	-5
648.541	1	4
648.711	1	7
648.880	1	-1
649.050	1	-3
649.219	1	6
649.389	1	6
649.558	1	5
649.728	1	3
649.897	1	-6
650.067	1	-2
650.236	1	12
650.406	1	7
650.575	1	9
650.745	1	11
650.914	1	-2
651.084	1	-9
651.253	1	7
651.423	1	2
651.592	1	8
651.762	1	3
651.931	1	4
652.101	1	8
652.270	1	12
652.440	1	1
652.609	1	12
652.778	1	7
652.948	1	6
653.117	1	-2
653.287	1	-1
653.456	1	4
653.626	1	5
653.795	1	-6
653.965	1	0
654.134	1	14
654.304	1	-7
654.473	1	13
654.643	1	5
654.812	1	1
654.982	1	13
655.151	1	-1
655.320	1	4
655.490	1	-3
655.659	1	8
655.829	1	0
655.998	1	-7
656.168	1	6
656.337	1	15
656.507	1	1
656.676	1	4
656.846	1	10
657.015	1	8
657.184	1	13
657.354	1	3
657.523	1	5
657.693	1	11
657.862	1	-1
658.032	1	-1
658.201	1	1
658.371	1	7
658.540	1	10
658.709	1	2
658.879	1	10
659.048	1	-5
659.218	1	-6
659.387	1	7
659.557	1	6
659.726	1	8
659.895	1	0
660.065	1	-9
660.234	1	4
660.404	1	3
660.573	1	-11
660.743	1	5
660.912	1	1
661.081	1	10
661.251	1	-2
661.420	1	9
661.590	1	5
661.759	1	14
661.929	1	11
662.098	1	15
662.267	1	0
662.437	1	7
662.606	1	10
662.776	1	-1
662.945	1	2
663.115	1	12
663.284	1	-12
663.453	1	0
663.623	1	5
663.792	1	7
663.962	1	-8
664.131	1	5
664.300	1	18
664.470	1	2
664.639	1	6
664.809	1	7
664.978	1	14
665.148	1	2
665.317	1	9
665.486	1	10
665.656	1	2
665.825	1	6
665.995	1	6
666.164	1	0
666.333	1	11
666.503	1	-6
666.672	1	2
666.842	1	2
667.011	1	0
667.180	1	16
667.350	1	-1
667.519	1	13
667.689	1	5
667.858	1	6
668.027	1	9
668.197	1	5
668.366	1	-11
668.536	1	5
668.705	1	6
668.874	1	-2
669.044	1	-6
669.213	1	11
669.382	1	-8
669.552	1	16
669.721	1	2
669.891	1	16
670.060	1	9
670.229	1	18
670.399	1	-3
670.568	1	19
670.738	1	13
670.907	1	-6
671.076	1	-8
671.246	1	8
671.415	1	11
671.584	1	-7
671.754	1	-5
671.923	1	5
672.093	1	10
672.262	1	-15
672.431	1	8
672.601	1	4
672.770	1	-4
672.939	1	7
673.109	1	-1
673.278	1	8
673.448	1	7
673.617	1	-2
673.786	1	2
