325.333	1	4
325.504	1	2
325.675	1	13
325.846	1	1
326.017	1	-2
326.188	1	16
326.359	1	7
326.531	1	-10
326.702	1	-9
326.873	1	16
327.044	1	6
327.215	1	5
327.386	1	7
327.557	1	-3
327.728	1	4
327.899	1	1
328.070	1	7
328.241	1	2
328.412	1	-13
328.583	1	8
328.754	1	-3
328.926	1	16
329.097	1	-10
329.268	1	13
329.439	1	3
329.610	1	11
329.781	1	4
329.952	1	6
330.123	1	-4
330.294	1	-1
330.465	1	3
330.636	1	11
330.807	1	-4
330.978	1	8
331.149	1	8
331.320	1	8
331.492	1	4
331.663	1	5
331.834	1	19
332.005	1	-3
332.176	1	16
332.347	1	10
332.518	1	-3
332.689	1	12
332.860	1	12
333.031	1	9
333.202	1	0
333.373	1	7
333.544	1	6
333.715	1	14
333.886	1	2
334.057	1	13
334.228	1	-6
334.399	1	-1
334.570	1	16
334.741	1	0
334.912	1	14
335.084	1	17
335.255	1	11
335.426	1	3
335.597	1	0
335.768	1	6
335.939	1	11
336.110	1	7
336.281	1	0
336.452	1	5
336.623	1	2
336.794	1	9
336.965	1	6
337.136	1	8
337.307	1	10
337.478	1	-1
337.649	1	9
337.820	1	3
337.991	1	8
338.162	1	11
338.333	1	7
338.504	1	16
338.675	1	10
338.846	1	13
339.017	1	2
339.188	1	5
339.359	1	-7
339.530	1	11
339.701	1	7
339.872	1	17
340.043	1	3
340.214	1	7
340.385	1	15
340.556	1	-5
340.727	1	21
340.898	1	17
341.069	1	7
341.240	1	7
341.411	1	8
341.582	1	12
341.753	1	4
341.924	1	11
342.095	1	15
342.266	1	20
342.437	1	20
342.608	1	3
342.779	1	17
342.950	1	12
343.121	1	23
343.292	1	4
343.463	1	2
343.634	1	6
343.805	1	12
343.976	1	11
344.147	1	10
344.318	1	13
344.489	1	3
344.660	1	17
344.831	1	8
345.002	1	0
345.173	1	15
345.344	1	5
345.515	1	9
345.686	1	14
345.857	1	12
346.028	1	14
346.199	1	8
346.370	1	13
346.541	1	9
346.712	1	-4
346.883	1	9
347.054	1	9
347.225	1	12
347.396	1	14
347.567	1	4
347.738	1	7
347.909	1	17
348.080	1	13
348.251	1	16
348.422	1	15
348.593	1	8
348.764	1	11
348.935	1	9
349.106	1	9
349.277	1	11
349.448	1	17
349.619	1	15
349.790	1	9
349.961	1	20
350.132	1	25
350.303	1	13
350.474	1	20
350.645	1	9
350.816	1	21
350.987	1	14
351.157	1	7
351.328	1	11
351.499	1	27
351.670	1	10
351.841	1	13
352.012	1	12
352.183	1	28
352.354	1	24
352.525	1	31
352.696	1	15
352.867	1	13
353.038	1	24
353.209	1	22
353.380	1	15
353.551	1	9
353.722	1	10
353.893	1	13
354.064	1	27
354.235	1	12
354.406	1	13
354.576	1	13
354.747	1	15
354.918	1	21
355.089	1	21
355.260	1	22
355.431	1	28
355.602	1	15
355.773	1	17
355.944	1	12
356.115	1	21
356.286	1	20
356.457	1	21
356.628	1	13
356.799	1	14
356.970	1	30
357.141	1	8
357.311	1	8
357.482	1	14
357.653	1	30
357.824	1	25
357.995	1	20
358.166	1	5
358.337	1	13
358.508	1	26
358.679	1	14
358.850	1	22
359.021	1	6
359.192	1	21
359.363	1	18
359.533	1	10
359.704	1	7
359.875	1	14
360.046	1	14
360.217	1	4
360.388	1	18
360.559	1	10
360.730	1	17
360.901	1	17
361.072	1	33
361.243	1	24
361.414	1	14
361.584	1	11
361.755	1	20
361.926	1	16
362.097	1	18
362.268	1	7
362.439	1	14
362.610	1	20
362.781	1	10
362.952	1	8
363.123	1	19
363.293	1	8
363.464	1	26
363.635	1	16
363.806	1	11
363.977	1	22
364.148	1	17
364.319	1	16
364.490	1	22
364.661	1	21
364.832	1	22
365.002	1	23
365.173	1	18
365.344	1	28
365.515	1	18
365.686	1	13
365.857	1	15
366.028	1	26
366.199	1	16
366.370	1	17
366.540	1	15
366.711	1	20
366.882	1	12
367.053	1	10
367.224	1	34
367.395	1	17
367.566	1	24
367.737	1	17
367.908	1	18
368.078	1	26
368.249	1	22
368.420	1	10
368.591	1	15
368.762	1	16
368.933	1	20
369.104	1	4
369.274	1	28
369.445	1	26
369.616	1	17
369.787	1	18
369.958	1	27
370.129	1	-3
370.300	1	25
370.471	1	14
370.641	1	22
370.812	1	19
370.983	1	21
371.154	1	18
371.325	1	31
371.496	1	17
371.667	1	22
371.837	1	7
372.008	1	23
372.179	1	13
372.350	1	31
372.521	1	25
372.692	1	23
372.863	1	25
373.033	1	14
373.204	1	15
373.375	1	19
373.546	1	16
373.717	1	25
373.888	1	34
374.059	1	27
374.229	1	29
374.400	1	17
374.571	1	22
374.742	1	28
374.913	1	25
375.084	1	25
375.254	1	23
375.425	1	18
375.596	1	25
375.767	1	21
375.938	1	25
376.109	1	32
376.279	1	17
376.450	1	23
376.621	1	20
376.792	1	21
376.963	1	25
377.134	1	28
377.304	1	17
377.475	1	17
377.646	1	24
377.817	1	34
377.988	1	25
378.159	1	22
378.329	1	29
378.500	1	16
378.671	1	26
378.842	1	25
379.013	1	18
379.184	1	24
379.354	1	25
379.525	1	20
379.696	1	20
379.867	1	24
380.038	1	24
380.209	1	26
380.379	1	21
380.550	1	11
380.721	1	33
380.892	1	34
381.063	1	28
381.233	1	26
381.404	1	24
381.575	1	26
381.746	1	28
381.917	1	16
382.087	1	25
382.258	1	13
382.429	1	29
382.600	1	33
382.771	1	21
382.941	1	18
383.112	1	21
383.283	1	31
383.454	1	17
383.625	1	23
383.795	1	24
383.966	1	32
384.137	1	25
384.308	1	30
384.479	1	31
384.649	1	30
384.820	1	19
384.991	1	16
385.162	1	22
385.333	1	22
385.503	1	20
385.674	1	8
385.845	1	36
386.016	1	25
386.187	1	18
386.357	1	28
386.528	1	24
386.699	1	19
386.870	1	35
387.041	1	26
387.211	1	30
387.382	1	25
387.553	1	28
387.724	1	30
387.894	1	26
388.065	1	16
388.236	1	35
388.407	1	24
388.578	1	20
388.748	1	18
388.919	1	32
389.090	1	16
389.261	1	24
389.431	1	30
389.602	1	28
389.773	1	32
389.944	1	26
390.114	1	23
390.285	1	31
390.456	1	22
390.627	1	22
390.798	1	24
390.968	1	19
391.139	1	35
391.310	1	27
391.481	1	33
391.651	1	39
391.822	1	24
391.993	1	20
392.164	1	27
392.334	1	34
392.505	1	14
392.676	1	39
392.847	1	39
393.017	1	26
393.188	1	38
393.359	1	25
393.530	1	22
393.700	1	27
393.871	1	32
394.042	1	17
394.213	1	18
394.383	1	25
394.554	1	26
394.725	1	35
394.896	1	22
395.066	1	27
395.237	1	36
395.408	1	24
395.579	1	23
395.749	1	32
395.920	1	27
396.091	1	23
396.262	1	26
396.432	1	31
396.603	1	35
396.774	1	26
396.945	1	40
397.115	1	24
397.286	1	23
397.457	1	36
397.627	1	27
397.798	1	35
397.969	1	28
398.140	1	26
398.310	1	37
398.481	1	26
398.652	1	35
398.823	1	26
398.993	1	29
399.164	1	28
399.335	1	38
399.505	1	39
399.676	1	25
399.847	1	41
400.018	1	29
400.188	1	28
400.359	1	35
400.530	1	26
400.700	1	36
400.871	1	31
401.042	1	38
401.213	1	36
401.383	1	32
401.554	1	39
401.725	1	41
401.895	1	26
402.066	1	35
402.237	1	33
402.408	1	39
402.578	1	36
402.749	1	28
402.920	1	33
403.090	1	29
403.261	1	31
403.432	1	37
403.603	1	36
403.773	1	41
403.944	1	37
404.115	1	49
404.285	1	35
404.456	1	33
404.627	1	36
404.797	1	22
404.968	1	32
405.139	1	32
405.310	1	41
405.480	1	30
405.651	1	23
405.822	1	39
405.992	1	12
406.163	1	26
406.334	1	26
406.504	1	30
406.675	1	39
406.846	1	31
407.016	1	45
407.187	1	43
407.358	1	37
407.528	1	25
407.699	1	27
407.870	1	28
408.041	1	33
408.211	1	51
408.382	1	37
408.553	1	25
408.723	1	38
408.894	1	38
409.065	1	30
409.235	1	34
409.406	1	25
409.577	1	34
409.747	1	51
409.918	1	26
410.089	1	34
410.259	1	24
410.430	1	22
410.601	1	33
410.771	1	23
410.942	1	37
411.113	1	39
411.283	1	29
411.454	1	32
411.625	1	42
411.795	1	32
411.966	1	40
412.137	1	31
412.307	1	26
412.478	1	31
412.649	1	34
412.819	1	29
412.990	1	37
413.161	1	37
413.331	1	27
413.502	1	38
413.672	1	38
413.843	1	30
414.014	1	36
414.184	1	38
414.355	1	35
414.526	1	51
414.696	1	40
414.867	1	33
415.038	1	21
415.208	1	37
415.379	1	37
415.550	1	39
415.720	1	24
415.891	1	46
416.062	1	40
416.232	1	37
416.403	1	36
416.573	1	42
416.744	1	35
416.915	1	41
417.085	1	31
417.256	1	32
417.427	1	31
417.597	1	41
417.768	1	31
417.939	1	47
418.109	1	42
418.280	1	37
418.450	1	31
418.621	1	18
418.792	1	45
418.962	1	30
419.133	1	35
419.304	1	28
419.474	1	29
419.645	1	30
419.815	1	28
419.986	1	42
420.157	1	38
420.327	1	39
420.498	1	37
420.669	1	28
420.839	1	37
421.010	1	26
421.180	1	35
421.351	1	30
421.522	1	31
421.692	1	35
421.863	1	36
422.033	1	25
422.204	1	35
422.375	1	32
422.545	1	32
422.716	1	35
422.886	1	24
423.057	1	21
423.228	1	36
423.398	1	20
423.569	1	34
423.740	1	26
423.910	1	17
424.081	1	41
424.251	1	34
424.422	1	25
424.593	1	27
424.763	1	30
424.934	1	30
425.104	1	35
425.275	1	19
425.445	1	20
425.616	1	32
425.787	1	22
425.957	1	46
426.128	1	39
426.298	1	29
426.469	1	26
426.640	1	33
426.810	1	27
426.981	1	30
427.151	1	27
427.322	1	29
427.493	1	40
427.663	1	32
427.834	1	17
428.004	1	33
428.175	1	23
428.345	1	23
428.516	1	19
428.687	1	21
428.857	1	24
429.028	1	22
429.198	1	24
429.369	1	36
429.540	1	26
429.710	1	23
429.881	1	34
430.051	1	23
430.222	1	36
430.392	1	35
430.563	1	37
430.734	1	37
430.904	1	29
431.075	1	29
431.245	1	13
431.416	1	29
431.586	1	26
431.757	1	21
431.927	1	26
432.098	1	30
432.269	1	24
432.439	1	30
432.610	1	23
432.780	1	34
432.951	1	20
433.121	1	33
433.292	1	33
433.462	1	30
433.633	1	36
433.804	1	27
433.974	1	25
434.145	1	44
434.315	1	25
434.486	1	20
434.656	1	28
434.827	1	29
434.997	1	20
435.168	1	22
435.339	1	34
435.509	1	22
435.680	1	26
435.850	1	36
436.021	1	21
436.191	1	30
436.362	1	36
436.532	1	22
436.703	1	37
436.873	1	30
437.044	1	4
437.214	1	26
437.385	1	23
437.556	1	24
437.726	1	41
437.897	1	30
438.067	1	22
438.238	1	28
438.408	1	33
438.579	1	22
438.749	1	21
438.920	1	21
439.090	1	21
439.261	1	19
439.431	1	24
439.602	1	28
439.772	1	23
439.943	1	38
440.113	1	27
440.284	1	23
440.455	1	27
440.625	1	24
440.796	1	29
440.966	1	26
441.137	1	31
441.307	1	23
441.478	1	30
441.648	1	33
441.819	1	25
441.989	1	25
442.160	1	41
442.330	1	18
442.501	1	28
442.671	1	29
442.842	1	8
443.012	1	16
443.183	1	30
443.353	1	23
443.524	1	26
443.694	1	41
443.865	1	14
444.035	1	29
444.206	1	34
444.376	1	19
444.547	1	36
444.717	1	23
444.888	1	15
445.058	1	24
445.229	1	26
445.399	1	19
445.570	1	32
445.740	1	19
445.911	1	19
446.081	1	22
446.252	1	38
446.422	1	17
446.593	1	18
446.763	1	26
446.934	1	22
447.104	1	27
447.275	1	30
447.445	1	21
447.616	1	33
447.786	1	32
447.957	1	27
448.127	1	15
448.298	1	24
448.468	1	25
448.639	1	23
448.809	1	23
448.979	1	23
449.150	1	32
449.320	1	24
449.491	1	30
449.661	1	19
449.832	1	23
450.002	1	26
450.173	1	26
450.343	1	28
450.514	1	25
450.684	1	12
450.855	1	21
451.025	1	30
451.196	1	25
451.366	1	24
451.537	1	7
451.707	1	15
451.878	1	24
452.048	1	36
452.218	1	29
452.389	1	15
452.559	1	20
452.730	1	30
452.900	1	30
453.071	1	12
453.241	1	21
453.412	1	17
453.582	1	16
453.753	1	17
453.923	1	34
454.093	1	19
454.264	1	40
454.434	1	30
454.605	1	21
454.775	1	18
454.946	1	21
455.116	1	18
455.287	1	16
455.457	1	17
455.628	1	10
455.798	1	22
455.968	1	20
456.139	1	23
456.309	1	16
456.480	1	20
456.650	1	14
456.821	1	6
456.991	1	18
457.161	1	22
457.332	1	22
457.502	1	8
457.673	1	20
457.843	1	30
458.014	1	23
458.184	1	18
458.355	1	13
458.525	1	20
458.695	1	24
458.866	1	9
459.036	1	23
459.207	1	26
459.377	1	10
459.548	1	26
459.718	1	15
459.888	1	29
460.059	1	18
460.229	1	14
460.400	1	26
460.570	1	27
460.740	1	19
460.911	1	23
461.081	1	20
461.252	1	23
461.422	1	19
461.593	1	16
461.763	1	24
461.933	1	34
462.104	1	12
462.274	1	19
462.445	1	13
462.615	1	20
462.785	1	27
462.956	1	24
463.126	1	15
463.297	1	12
463.467	1	18
463.638	1	16
463.808	1	14
463.978	1	18
464.149	1	11
464.319	1	14
464.490	1	26
464.660	1	4
464.830	1	12
465.001	1	19
465.171	1	22
465.342	1	22
465.512	1	10
465.682	1	17
465.853	1	23
466.023	1	20
466.194	1	21
466.364	1	26
466.534	1	20
466.705	1	28
466.875	1	14
467.045	1	7
467.216	1	33
467.386	1	14
467.557	1	13
467.727	1	15
467.897	1	15
468.068	1	12
468.238	1	10
468.409	1	16
468.579	1	13
468.749	1	21
468.920	1	0
469.090	1	18
469.260	1	17
469.431	1	20
469.601	1	17
469.772	1	14
469.942	1	8
470.112	1	17
470.283	1	13
470.453	1	10
470.623	1	14
470.794	1	5
470.964	1	15
471.135	1	25
471.305	1	2
471.475	1	27
471.646	1	4
471.816	1	19
471.986	1	10
472.157	1	23
472.327	1	4
472.497	1	22
472.668	1	5
472.838	1	11
473.009	1	20
473.179	1	15
473.349	1	2
473.520	1	23
473.690	1	22
473.860	1	16
474.031	1	19
474.201	1	16
474.371	1	24
474.542	1	22
474.712	1	13
474.882	1	8
475.053	1	29
475.223	1	3
475.394	1	19
475.564	1	20
475.734	1	27
475.905	1	20
476.075	1	8
476.245	1	24
476.416	1	25
476.586	1	16
476.756	1	12
476.927	1	16
477.097	1	20
477.267	1	6
477.438	1	18
477.608	1	15
477.778	1	11
477.949	1	27
478.119	1	31
478.289	1	21
478.460	1	22
478.630	1	18
478.800	1	17
478.971	1	19
479.141	1	12
479.311	1	9
479.482	1	22
479.652	1	10
479.822	1	10
479.993	1	16
480.163	1	20
480.333	1	9
480.504	1	15
480.674	1	11
480.844	1	7
481.015	1	14
481.185	1	17
481.355	1	18
481.525	1	13
481.696	1	9
481.866	1	19
482.036	1	22
482.207	1	10
482.377	1	12
482.547	1	12
482.718	1	15
482.888	1	12
483.058	1	24
483.229	1	3
483.399	1	9
483.569	1	3
483.740	1	18
483.910	1	7
484.080	1	20
484.250	1	28
484.421	1	10
484.591	1	20
484.761	1	11
484.932	1	24
485.102	1	18
485.272	1	16
485.443	1	16
485.613	1	12
485.783	1	13
485.953	1	11
486.124	1	9
486.294	1	23
486.464	1	15
486.635	1	25
486.805	1	23
486.975	1	17
487.146	1	13
487.316	1	5
487.486	1	10
487.656	1	16
487.827	1	16
487.997	1	2
488.167	1	7
488.338	1	19
488.508	1	7
488.678	1	8
488.848	1	21
489.019	1	5
489.189	1	5
489.359	1	3
489.529	1	12
489.700	1	15
489.870	1	19
490.040	1	-2
490.211	1	7
490.381	1	20
490.551	1	9
490.721	1	20
490.892	1	7
491.062	1	10
491.232	1	13
491.402	1	4
491.573	1	3
491.743	1	12
491.913	1	13
492.084	1	13
492.254	1	11
492.424	1	10
492.594	1	10
492.765	1	3
492.935	1	13
493.105	1	15
493.275	1	9
493.446	1	18
493.616	1	17
493.786	1	17
493.956	1	4
494.127	1	7
494.297	1	5
494.467	1	5
494.637	1	13
494.808	1	8
494.978	1	1
495.148	1	12
495.318	1	11
495.489	1	6
495.659	1	14
495.829	1	1
495.999	1	10
496.170	1	9
496.340	1	18
496.510	1	12
496.680	1	-4
496.851	1	2
497.021	1	8
497.191	1	-3
497.361	1	6
497.532	1	6
497.702	1	6
497.872	1	5
498.042	1	12
498.213	1	14
498.383	1	13
498.553	1	-2
498.723	1	0
498.894	1	2
499.064	1	4
499.234	1	8
499.404	1	11
499.574	1	14
499.745	1	14
499.915	1	6
500.085	1	10
500.255	1	24
500.426	1	6
500.596	1	14
500.766	1	8
500.936	1	6
501.106	1	5
501.277	1	11
501.447	1	2
501.617	1	16
501.787	1	7
501.958	1	11
502.128	1	12
502.298	1	6
502.468	1	11
502.638	1	9
502.809	1	6
502.979	1	4
503.149	1	-2
503.319	1	1
503.489	1	15
503.660	1	8
503.830	1	10
504.000	1	16
504.170	1	2
504.340	1	3
504.511	1	21
504.681	1	13
504.851	1	4
505.021	1	12
505.192	1	0
505.362	1	10
505.532	1	10
505.702	1	6
505.872	1	16
506.043	1	6
506.213	1	-1
506.383	1	13
506.553	1	8
506.723	1	15
506.893	1	12
507.064	1	12
507.234	1	12
507.404	1	-1
507.574	1	13
507.744	1	0
507.915	1	12
508.085	1	9
508.255	1	15
508.425	1	0
508.595	1	14
508.766	1	12
508.936	1	3
509.106	1	14
509.276	1	12
509.446	1	-9
509.616	1	6
509.787	1	12
509.957	1	4
510.127	1	4
510.297	1	12
510.467	1	0
510.638	1	14
510.808	1	-4
510.978	1	-1
511.148	1	1
511.318	1	8
511.488	1	-5
511.659	1	13
511.829	1	3
511.999	1	7
512.169	1	11
512.339	1	10
512.509	1	5
512.680	1	5
512.850	1	11
513.020	1	16
513.190	1	13
513.360	1	3
513.530	1	2
513.700	1	3
513.871	1	4
514.041	1	3
514.211	1	9
514.381	1	14
514.551	1	6
514.721	1	-1
514.892	1	7
515.062	1	-1
515.232	1	5
515.402	1	-2
515.572	1	8
515.742	1	12
515.912	1	8
516.083	1	0
516.253	1	9
516.423	1	0
516.593	1	6
516.763	1	11
516.933	1	5
517.104	1	10
517.274	1	3
517.444	1	9
517.614	1	2
517.784	1	4
517.954	1	7
518.124	1	2
518.294	1	3
518.465	1	-3
518.635	1	14
518.805	1	-4
518.975	1	13
519.145	1	-3
519.315	1	12
519.485	1	-8
519.656	1	15
519.826	1	6
519.996	1	3
520.166	1	5
520.336	1	13
520.506	1	7
520.676	1	1
520.846	1	15
521.017	1	2
521.187	1	14
521.357	1	18
521.527	1	4
521.697	1	8
521.867	1	-2
522.037	1	4
522.207	1	12
522.377	1	8
522.548	1	4
522.718	1	1
522.888	1	11
523.058	1	2
523.228	1	17
523.398	1	8
523.568	1	10
523.738	1	7
523.909	1	8
524.079	1	13
524.249	1	3
524.419	1	4
524.589	1	-3
524.759	1	-2
524.929	1	2
525.099	1	11
525.269	1	10
525.439	1	2
525.610	1	16
525.780	1	1
525.950	1	3
526.120	1	7
526.290	1	2
526.460	1	0
526.630	1	11
526.800	1	1
526.970	1	14
527.140	1	12
527.311	1	-2
527.481	1	1
527.651	1	11
527.821	1	-6
527.991	1	11
528.161	1	19
528.331	1	6
528.501	1	1
528.671	1	-1
528.841	1	-1
529.011	1	7
529.181	1	9
529.352	1	15
529.522	1	-2
529.692	1	7
529.862	1	1
530.032	1	9
530.202	1	4
530.372	1	7
530.542	1	6
530.712	1	4
530.882	1	10
531.052	1	7
531.222	1	11
531.392	1	0
531.563	1	7
531.733	1	3
531.903	1	10
532.073	1	15
532.243	1	6
532.413	1	5
532.583	1	0
532.753	1	9
532.923	1	-1
533.093	1	13
533.263	1	8
533.433	1	5
533.603	1	-2
533.773	1	0
533.943	1	2
534.113	1	1
534.284	1	13
534.454	1	18
534.624	1	17
534.794	1	1
534.964	1	8
535.134	1	3
535.304	1	9
535.474	1	12
535.644	1	-7
535.814	1	-4
535.984	1	-4
536.154	1	4
536.324	1	8
536.494	1	12
536.664	1	8
536.834	1	-2
537.004	1	3
537.174	1	9
537.344	1	2
537.514	1	1
537.685	1	10
537.855	1	5
538.025	1	-3
538.195	1	2
538.365	1	16
538.535	1	-5
538.705	1	4
538.875	1	8
539.045	1	3
539.215	1	3
539.385	1	12
539.555	1	10
539.725	1	12
539.895	1	-2
540.065	1	14
540.235	1	10
540.405	1	-2
540.575	1	3
540.745	1	10
540.915	1	19
541.085	1	7
541.255	1	-6
541.425	1	9
541.595	1	-3
541.765	1	7
541.935	1	1
542.105	1	5
542.275	1	0
542.445	1	2
542.615	1	9
542.785	1	7
542.955	1	0
543.125	1	-4
543.295	1	6
543.465	1	7
543.635	1	5
543.805	1	16
543.975	1	3
544.145	1	8
544.315	1	6
544.485	1	7
544.655	1	6
544.825	1	-1
544.995	1	12
545.165	1	1
545.335	1	9
545.505	1	-5
545.675	1	16
545.845	1	10
546.015	1	14
546.185	1	8
546.355	1	7
546.525	1	2
546.695	1	4
546.865	1	-1
547.035	1	3
547.205	1	-11
547.375	1	2
547.545	1	13
547.715	1	-4
547.885	1	1
548.055	1	-3
548.225	1	3
548.395	1	4
548.565	1	8
548.735	1	6
548.905	1	4
549.075	1	3
549.245	1	-2
549.415	1	0
549.585	1	8
549.755	1	4
549.925	1	2
550.095	1	2
550.265	1	5
550.435	1	-5
550.605	1	-4
550.775	1	5
550.945	1	10
551.115	1	6
551.285	1	5
551.455	1	-9
551.625	1	7
551.795	1	9
551.965	1	-4
552.135	1	5
552.305	1	-5
552.475	1	7
552.645	1	7
552.815	1	4
552.985	1	10
553.155	1	5
553.325	1	8
553.495	1	-1
553.665	1	-8
553.835	1	-6
554.004	1	8
554.174	1	5
554.344	1	9
554.514	1	5
554.684	1	3
554.854	1	13
555.024	1	-2
555.194	1	-2
555.364	1	9
555.534	1	9
555.704	1	8
555.874	1	11
556.044	1	9
556.214	1	3
556.384	1	4
556.554	1	9
556.724	1	5
556.894	1	9
557.064	1	7
557.234	1	6
557.404	1	7
557.573	1	6
557.743	1	2
557.913	1	-2
558.083	1	-6
558.253	1	1
558.423	1	4
558.593	1	15
558.763	1	-10
558.933	1	7
559.103	1	20
559.273	1	1
559.443	1	3
559.613	1	9
559.783	1	-6
559.953	1	4
560.122	1	14
560.292	1	2
560.462	1	0
560.632	1	19
560.802	1	9
560.972	1	1
561.142	1	0
561.312	1	2
561.482	1	15
561.652	1	-2
561.822	1	1
561.992	1	-5
562.162	1	-1
562.331	1	-2
562.501	1	-9
562.671	1	12
562.841	1	-9
563.011	1	4
563.181	1	6
563.351	1	-2
563.521	1	5
563.691	1	-1
563.861	1	4
564.031	1	14
564.201	1	14
564.370	1	-1
564.540	1	7
564.710	1	7
564.880	1	6
565.050	1	8
565.220	1	-8
565.390	1	6
565.560	1	9
565.730	1	10
565.900	1	8
566.069	1	8
566.239	1	6
566.409	1	2
566.579	1	9
566.749	1	3
566.919	1	8
567.089	1	8
567.259	1	9
567.429	1	3
567.599	1	2
567.768	1	-2
567.938	1	-1
568.108	1	3
568.278	1	4
568.448	1	-8
568.618	1	0
568.788	1	2
568.958	1	2
569.128	1	7
569.297	1	0
569.467	1	0
569.637	1	7
569.807	1	5
569.977	1	2
570.147	1	9
570.317	1	-7
570.487	1	4
570.656	1	10
570.826	1	1
570.996	1	-3
571.166	1	9
571.336	1	0
571.506	1	13
571.676	1	6
571.846	1	10
572.015	1	1
572.185	1	3
572.355	1	10
572.525	1	12
572.695	1	-2
572.865	1	-6
573.035	1	8
573.205	1	6
573.374	1	-8
573.544	1	6
573.714	1	4
573.884	1	13
574.054	1	6
574.224	1	-1
574.394	1	3
574.563	1	-1
574.733	1	4
574.903	1	6
575.073	1	-2
575.243	1	-10
575.413	1	6
575.583	1	6
575.752	1	6
575.922	1	13
576.092	1	0
576.262	1	5
576.432	1	4
576.602	1	-5
576.772	1	16
576.941	1	9
577.111	1	1
577.281	1	-10
577.451	1	-7
577.621	1	13
577.791	1	8
577.960	1	-2
578.130	1	8
578.300	1	2
578.470	1	12
578.640	1	2
578.810	1	1
578.979	1	-2
579.149	1	-1
579.319	1	-8
579.489	1	2
579.659	1	6
579.829	1	5
579.998	1	11
580.168	1	18
580.338	1	0
580.508	1	-7
580.678	1	7
580.848	1	-8
581.017	1	-5
581.187	1	2
581.357	1	1
581.527	1	7
581.697	1	8
581.867	1	4
582.036	1	6
582.206	1	6
582.376	1	14
582.546	1	-1
582.716	1	-5
582.885	1	3
583.055	1	-2
583.225	1	-14
583.395	1	9
583.565	1	2
583.735	1	3
583.904	1	8
584.074	1	2
584.244	1	7
584.414	1	3
584.584	1	8
584.753	1	2
584.923	1	8
585.093	1	11
585.263	1	10
585.433	1	3
585.602	1	-7
585.772	1	-3
585.942	1	-6
586.112	1	5
586.282	1	-1
586.451	1	-4
586.621	1	1
586.791	1	7
586.961	1	7
587.131	1	7
587.300	1	-4
587.470	1	11
587.640	1	6
587.810	1	-4
587.980	1	2
588.149	1	4
588.319	1	4
588.489	1	-5
588.659	1	8
588.829	1	9
588.998	1	9
589.168	1	6
589.338	1	1
589.508	1	6
589.677	1	-4
589.847	1	-9
590.017	1	15
590.187	1	-3
590.357	1	9
590.526	1	15
590.696	1	7
590.866	1	5
591.036	1	2
591.205	1	7
591.375	1	-2
591.545	1	2
591.715	1	11
591.885	1	0
592.054	1	2
592.224	1	0
592.394	1	8
592.564	1	0
592.733	1	3
592.903	1	4
593.073	1	7
593.243	1	1
593.412	1	6
593.582	1	4
593.752	1	1
593.922	1	3
594.091	1	1
594.261	1	-8
594.431	1	8
594.601	1	8
594.771	1	6
594.940	1	-3
595.110	1	-2
595.280	1	7
595.450	1	1
595.619	1	0
595.789	1	9
595.959	1	7
596.129	1	5
596.298	1	-4
596.468	1	7
596.638	1	0
596.808	1	3
596.977	1	-6
597.147	1	-8
597.317	1	0
597.487	1	1
597.656	1	3
597.826	1	-1
597.996	1	-1
598.166	1	3
598.335	1	-12
598.505	1	7
598.675	1	0
598.844	1	4
599.014	1	-4
599.184	1	-2
599.354	1	-12
599.523	1	6
599.693	1	4
599.863	1	-4
600.033	1	7
600.202	1	7
600.372	1	12
600.542	1	1
600.712	1	-2
600.881	1	-5
601.051	1	11
601.221	1	13
601.390	1	-1
601.560	1	10
601.730	1	2
601.900	1	8
602.069	1	4
602.239	1	-9
602.409	1	-10
602.578	1	10
602.748	1	-2
602.918	1	-4
603.088	1	8
603.257	1	14
603.427	1	-6
603.597	1	-6
603.767	1	3
603.936	1	5
604.106	1	-3
604.276	1	-1
604.445	1	11
604.615	1	-3
604.785	1	5
604.954	1	-1
605.124	1	-2
605.294	1	5
605.464	1	-4
605.633	1	7
605.803	1	-1
605.973	1	-4
606.142	1	1
606.312	1	11
606.482	1	-3
606.652	1	22
606.821	1	4
606.991	1	1
607.161	1	1
607.330	1	7
607.500	1	4
607.670	1	-1
607.839	1	1
608.009	1	14
608.179	1	5
608.348	1	6
608.518	1	0
608.688	1	13
608.858	1	-3
609.027	1	-1
609.197	1	10
609.367	1	12
609.536	1	4
609.706	1	2
609.876	1	6
610.045	1	-6
610.215	1	2
610.385	1	-6
610.554	1	1
610.724	1	6
610.894	1	-1
611.063	1	2
611.233	1	-2
611.403	1	0
611.572	1	7
611.742	1	4
611.912	1	-4
612.081	1	-1
612.251	1	9
612.421	1	-6
612.590	1	-1
612.760	1	-6
612.930	1	10
613.099	1	8
613.269	1	12
613.439	1	3
613.608	1	4
613.778	1	4
613.948	1	9
614.117	1	5
614.287	1	10
614.457	1	12
614.626	1	-1
614.796	1	3
614.966	1	-1
615.135	1	4
615.305	1	17
615.475	1	2
615.644	1	-3
615.814	1	5
615.984	1	-2
616.153	1	-6
616.323	1	7
616.493	1	-7
616.662	1	13
616.832	1	7
617.002	1	2
617.171	1	-1
617.341	1	7
617.511	1	-1
617.680	1	-9
617.850	1	3
618.019	1	16
618.189	1	12
618.359	1	7
618.528	1	11
618.698	1	6
618.868	1	-6
619.037	1	4
619.207	1	1
619.377	1	4
619.546	1	7
619.716	1	-2
619.885	1	7
620.055	1	-5
620.225	1	12
620.394	1	-2
620.564	1	12
620.734	1	1
620.903	1	0
621.073	1	7
621.242	1	-1
621.412	1	6
621.582	1	12
621.751	1	-2
621.921	1	2
622.091	1	-3
622.260	1	7
622.430	1	10
622.599	1	2
622.769	1	5
622.939	1	1
623.108	1	3
623.278	1	1
623.448	1	-8
623.617	1	-4
623.787	1	11
623.956	1	7
624.126	1	4
624.296	1	2
624.465	1	10
624.635	1	10
624.804	1	4
624.974	1	2
625.144	1	10
625.313	1	-11
625.483	1	-8
625.652	1	2
625.822	1	-1
625.992	1	6
626.161	1	2
626.331	1	1
626.501	1	7
626.670	1	0
626.840	1	9
627.009	1	-2
627.179	1	14
627.348	1	12
627.518	1	6
627.688	1	10
627.857	1	16
628.027	1	2
628.196	1	-5
628.366	1	3
628.536	1	6
628.705	1	-2
628.875	1	-2
629.044	1	0
629.214	1	16
629.384	1	11
629.553	1	12
629.723	1	2
629.892	1	3
630.062	1	-1
630.232	1	0
630.401	1	5
630.571	1	1
630.740	1	-4
630.910	1	10
631.079	1	2
631.249	1	4
631.419	1	16
631.588	1	-1
631.758	1	6
631.927	1	2
632.097	1	0
632.266	1	4
632.436	1	6
632.606	1	-4
632.775	1	8
632.945	1	9
633.114	1	9
633.284	1	4
633.453	1	3
633.623	1	-2
633.793	1	3
633.962	1	-4
634.132	1	14
634.301	1	3
634.471	1	3
634.640	1	6
634.810	1	6
634.979	1	15
635.149	1	20
635.319	1	3
635.488	1	3
635.658	1	-1
635.827	1	-9
635.997	1	7
636.166	1	7
636.336	1	0
636.505	1	4
636.675	1	4
636.845	1	5
637.014	1	-4
637.184	1	7
637.353	1	8
637.523	1	1
637.692	1	6
637.862	1	14
638.031	1	12
638.201	1	10
638.370	1	7
638.540	1	6
638.710	1	-4
638.879	1	-2
639.049	1	1
639.218	1	14
639.388	1	1
639.557	1	-4
639.727	1	7
639.896	1	6
640.066	1	11
640.235	1	0
640.405	1	11
640.574	1	0
640.744	1	4
640.914	1	3
641.083	1	-1
641.253	1	4
641.422	1	6
641.592	1	15
641.761	1	-1
641.931	1	4
642.100	1	19
642.270	1	-1
642.439	1	4
642.609	1	7
642.778	1	2
642.948	1	-2
643.117	1	15
643.287	1	8
643.456	1	0
643.626	1	13
643.795	1	5
643.965	1	-3
644.134	1	-3
644.304	1	4
644.473	1	7
644.643	1	15
644.812	1	7
644.982	1	16
645.151	1	4
645.321	1	-2
645.490	1	11
645.660	1	-4
645.829	1	6
645.999	1	0
646.168	1	12
646.338	1	10
646.507	1	4
646.677	1	9
646.846	1	-3
647.016	1	-8
647.185	1	12
647.355	1	-18
647.524	1	17
647.694	1	9
647.863	1	5
648.033	1	-2
648.202	1	8
648.372	1	-4
648.541	1	3
648.711	1	-2
648.880	1	3
649.050	1	5
649.219	1	5
649.389	1	5
649.558	1	-1
649.728	1	11
649.897	1	-4
650.067	1	3
650.236	1	2
650.406	1	9
650.575	1	23
650.745	1	11
650.914	1	-2
651.084	1	2
651.253	1	10
651.423	1	4
651.592	1	1
651.762	1	-2
651.931	1	7
652.101	1	6
652.270	1	14
652.440	1	17
652.609	1	0
652.778	1	1
652.948	1	11
653.117	1	-2
653.287	1	10
653.456	1	8
653.626	1	11
653.795	1	-3
653.965	1	0
654.134	1	15
654.304	1	-8
654.473	1	6
654.643	1	8
654.812	1	4
654.982	1	2
655.151	1	4
655.320	1	6
655.490	1	7
655.659	1	11
655.829	1	8
655.998	1	2
656.168	1	8
656.337	1	6
656.507	1	10
656.676	1	11
656.846	1	2
657.015	1	4
657.184	1	9
657.354	1	6
657.523	1	6
657.693	1	12
657.862	1	7
658.032	1	6
658.201	1	1
658.371	1	16
658.540	1	5
658.709	1	3
658.879	1	12
659.048	1	5
659.218	1	-3
659.387	1	5
659.557	1	15
659.726	1	8
659.895	1	-2
660.065	1	-1
660.234	1	10
660.404	1	15
660.573	1	4
660.743	1	3
660.912	1	3
661.081	1	12
661.251	1	6
661.420	1	4
661.590	1	7
661.759	1	6
661.929	1	9
662.098	1	12
662.267	1	4
662.437	1	9
662.606	1	5
662.776	1	4
662.945	1	11
663.115	1	4
663.284	1	7
663.453	1	10
663.623	1	3
663.792	1	2
663.962	1	2
664.131	1	11
664.300	1	17
664.470	1	-2
664.639	1	7
664.809	1	7
664.978	1	1
665.148	1	0
665.317	1	5
665.486	1	16
665.656	1	9
665.825	1	6
665.995	1	-4
666.164	1	-2
666.333	1	10
666.503	1	9
666.672	1	-3
666.842	1	0
667.011	1	4
667.180	1	15
667.350	1	11
667.519	1	8
667.689	1	-4
667.858	1	11
668.027	1	7
668.197	1	-2
668.366	1	-2
668.536	1	11
668.705	1	7
668.874	1	8
669.044	1	-7
669.213	1	4
669.382	1	2
669.552	1	12
669.721	1	9
669.891	1	9
670.060	1	3
670.229	1	17
670.399	1	15
670.568	1	18
670.738	1	9
670.907	1	-5
671.076	1	1
671.246	1	3
671.415	1	4
671.584	1	3
671.754	1	1
671.923	1	4
672.093	1	16
672.262	1	-2
672.431	1	6
672.601	1	-2
672.770	1	0
672.939	1	13
673.109	1	4
673.278	1	5
673.448	1	14
673.617	1	6
673.786	1	2
