325.333	1	11
325.504	1	-4
325.675	1	0
325.846	1	4
326.017	1	-4
326.188	1	0
326.359	1	2
326.531	1	-9
326.702	1	-2
326.873	1	12
327.044	1	-1
327.215	1	-3
327.386	1	6
327.557	1	-2
327.728	1	2
327.899	1	10
328.070	1	10
328.241	1	4
328.412	1	-6
328.583	1	11
328.754	1	10
328.926	1	7
329.097	1	-1
329.268	1	10
329.439	1	0
329.610	1	6
329.781	1	-2
329.952	1	11
330.123	1	1
330.294	1	-4
330.465	1	1
330.636	1	8
330.807	1	2
330.978	1	2
331.149	1	8
331.320	1	3
331.492	1	-2
331.663	1	5
331.834	1	6
332.005	1	2
332.176	1	19
332.347	1	8
332.518	1	-10
332.689	1	13
332.860	1	9
333.031	1	9
333.202	1	0
333.373	1	7
333.544	1	0
333.715	1	8
333.886	1	-4
334.057	1	3
334.228	1	-7
334.399	1	9
334.570	1	8
334.741	1	-6
334.912	1	6
335.084	1	22
335.255	1	9
335.426	1	3
335.597	1	4
335.768	1	3
335.939	1	12
336.110	1	-2
336.281	1	3
336.452	1	5
336.623	1	9
336.794	1	-3
336.965	1	4
337.136	1	9
337.307	1	4
337.478	1	-8
337.649	1	5
337.820	1	-4
337.991	1	-5
338.162	1	9
338.333	1	1
338.504	1	4
338.675	1	1
338.846	1	5
339.017	1	-2
339.188	1	4
339.359	1	-9
339.530	1	6
339.701	1	6
339.872	1	14
340.043	1	0
340.214	1	17
340.385	1	13
340.556	1	-4
340.727	1	3
340.898	1	16
341.069	1	8
341.240	1	3
341.411	1	5
341.582	1	6
341.753	1	0
341.924	1	-2
342.095	1	7
342.266	1	9
342.437	1	8
342.608	1	2
342.779	1	9
342.950	1	7
343.121	1	13
343.292	1	4
343.463	1	1
343.634	1	6
343.805	1	11
343.976	1	5
344.147	1	5
344.318	1	5
344.489	1	2
344.660	1	17
344.831	1	7
345.002	1	-4
345.173	1	21
345.344	1	5
345.515	1	1
345.686	1	7
345.857	1	7
346.028	1	6
346.199	1	-4
346.370	1	16
346.541	1	6
346.712	1	7
346.883	1	1
347.054	1	3
347.225	1	10
347.396	1	3
347.567	1	4
347.738	1	-2
347.909	1	19
348.080	1	4
348.251	1	21
348.422	1	13
348.593	1	4
348.764	1	-1
348.935	1	5
349.106	1	4
349.277	1	9
349.448	1	14
349.619	1	5
349.790	1	7
349.961	1	11
350.132	1	17
350.303	1	3
350.474	1	11
350.645	1	10
350.816	1	5
350.987	1	9
351.157	1	-1
351.328	1	13
351.499	1	0
351.670	1	9
351.841	1	8
352.012	1	6
352.183	1	13
352.354	1	5
352.525	1	16
352.696	1	17
352.867	1	7
353.038	1	3
353.209	1	9
353.380	1	8
353.551	1	5
353.722	1	0
353.893	1	6
354.064	1	16
354.235	1	8
354.406	1	5
354.576	1	3
354.747	1	13
354.918	1	10
355.089	1	12
355.260	1	19
355.431	1	9
355.602	1	9
355.773	1	11
355.944	1	15
356.115	1	6
356.286	1	17
356.457	1	9
356.628	1	18
356.799	1	10
356.970	1	17
357.141	1	9
357.311	1	1
357.482	1	4
357.653	1	9
357.824	1	17
357.995	1	10
358.166	1	3
358.337	1	19
358.508	1	13
358.679	1	8
358.850	1	7
359.021	1	6
359.192	1	11
359.363	1	-2
359.533	1	8
359.704	1	11
359.875	1	8
360.046	1	9
360.217	1	-5
360.388	1	8
360.559	1	7
360.730	1	13
360.901	1	8
361.072	1	13
361.243	1	15
361.414	1	6
361.584	1	13
361.755	1	9
361.926	1	3
362.097	1	6
362.268	1	15
362.439	1	10
362.610	1	15
362.781	1	4
362.952	1	-2
363.123	1	9
363.293	1	4
363.464	1	11
363.635	1	5
363.806	1	4
363.977	1	10
364.148	1	3
364.319	1	13
364.490	1	13
364.661	1	10
364.832	1	15
365.002	1	5
365.173	1	6
365.344	1	15
365.515	1	6
365.686	1	13
365.857	1	14
366.028	1	13
366.199	1	5
366.370	1	7
366.540	1	6
366.711	1	-5
366.882	1	-10
367.053	1	5
367.224	1	27
367.395	1	12
367.566	1	18
367.737	1	20
367.908	1	19
368.078	1	6
368.249	1	7
368.420	1	5
368.591	1	4
368.762	1	13
368.933	1	9
369.104	1	4
369.274	1	7
369.445	1	12
369.616	1	6
369.787	1	12
369.958	1	5
370.129	1	7
370.300	1	15
370.471	1	8
370.641	1	13
370.812	1	10
370.983	1	10
371.154	1	11
371.325	1	19
371.496	1	5
371.667	1	11
371.837	1	8
372.008	1	9
372.179	1	3
372.350	1	21
372.521	1	2
372.692	1	7
372.863	1	10
373.033	1	5
373.204	1	4
373.375	1	9
373.546	1	20
373.717	1	14
373.888	1	23
374.059	1	17
374.229	1	16
374.400	1	13
374.571	1	11
374.742	1	8
374.913	1	12
375.084	1	7
375.254	1	16
375.425	1	18
375.596	1	17
375.767	1	12
375.938	1	12
376.109	1	18
376.279	1	6
376.450	1	8
376.621	1	13
376.792	1	10
376.963	1	6
377.134	1	14
377.304	1	18
377.475	1	12
377.646	1	7
377.817	1	3
377.988	1	12
378.159	1	10
378.329	1	19
378.500	1	7
378.671	1	14
378.842	1	10
379.013	1	0
379.184	1	1
379.354	1	15
379.525	1	4
379.696	1	5
379.867	1	14
380.038	1	2
380.209	1	9
380.379	1	11
380.550	1	4
380.721	1	23
380.892	1	9
381.063	1	8
381.233	1	10
381.404	1	4
381.575	1	18
381.746	1	7
381.917	1	9
382.087	1	13
382.258	1	9
382.429	1	13
382.600	1	19
382.771	1	13
382.941	1	17
383.112	1	9
383.283	1	21
383.454	1	14
383.625	1	7
383.795	1	10
383.966	1	13
384.137	1	20
384.308	1	11
384.479	1	9
384.649	1	18
384.820	1	15
384.991	1	7
385.162	1	18
385.333	1	13
385.503	1	1
385.674	1	4
385.845	1	19
386.016	1	10
386.187	1	4
386.357	1	21
386.528	1	23
386.699	1	11
386.870	1	23
387.041	1	16
387.211	1	16
387.382	1	23
387.553	1	11
387.724	1	13
387.894	1	19
388.065	1	7
388.236	1	16
388.407	1	12
388.578	1	9
388.748	1	8
388.919	1	14
389.090	1	21
389.261	1	7
389.431	1	7
389.602	1	18
389.773	1	19
389.944	1	6
390.114	1	9
390.285	1	10
390.456	1	14
390.627	1	9
390.798	1	16
390.968	1	14
391.139	1	12
391.310	1	11
391.481	1	27
391.651	1	15
391.822	1	6
391.993	1	18
392.164	1	-7
392.334	1	10
392.505	1	6
392.676	1	25
392.847	1	20
393.017	1	14
393.188	1	13
393.359	1	3
393.530	1	18
393.700	1	22
393.871	1	13
394.042	1	21
394.213	1	9
394.383	1	14
394.554	1	13
394.725	1	9
394.896	1	22
395.066	1	20
395.237	1	8
395.408	1	6
395.579	1	22
395.749	1	16
395.920	1	11
396.091	1	19
396.262	1	9
396.432	1	17
396.603	1	19
396.774	1	29
396.945	1	23
397.115	1	9
397.286	1	13
397.457	1	6
397.627	1	13
397.798	1	17
397.969	1	8
398.140	1	11
398.310	1	10
398.481	1	16
398.652	1	13
398.823	1	5
398.993	1	11
399.164	1	19
399.335	1	19
399.505	1	15
399.676	1	11
399.847	1	15
400.018	1	8
400.188	1	7
400.359	1	27
400.530	1	8
400.700	1	17
400.871	1	5
401.042	1	11
401.213	1	11
401.383	1	16
401.554	1	14
401.725	1	17
401.895	1	14
402.066	1	14
402.237	1	16
402.408	1	18
402.578	1	10
402.749	1	23
402.920	1	20
403.090	1	8
403.261	1	10
403.432	1	27
403.603	1	12
403.773	1	25
403.944	1	18
404.115	1	16
404.285	1	26
404.456	1	21
404.627	1	10
404.797	1	3
404.968	1	2
405.139	1	5
405.310	1	18
405.480	1	20
405.651	1	9
405.822	1	17
405.992	1	18
406.163	1	13
406.334	1	1
406.504	1	6
406.675	1	24
406.846	1	11
407.016	1	18
407.187	1	23
407.358	1	11
407.528	1	1
407.699	1	16
407.870	1	1
408.041	1	13
408.211	1	27
408.382	1	9
408.553	1	5
408.723	1	23
408.894	1	16
409.065	1	16
409.235	1	16
409.406	1	15
409.577	1	13
409.747	1	23
409.918	1	13
410.089	1	17
410.259	1	20
410.430	1	13
410.601	1	26
410.771	1	14
410.942	1	23
411.113	1	19
411.283	1	13
411.454	1	22
411.625	1	12
411.795	1	16
411.966	1	25
412.137	1	15
412.307	1	7
412.478	1	13
412.649	1	19
412.819	1	14
412.990	1	18
413.161	1	16
413.331	1	12
413.502	1	12
413.672	1	18
413.843	1	10
414.014	1	15
414.184	1	23
414.355	1	12
414.526	1	17
414.696	1	22
414.867	1	19
415.038	1	5
415.208	1	18
415.379	1	12
415.550	1	25
415.720	1	12
415.891	1	7
416.062	1	16
416.232	1	18
416.403	1	20
416.573	1	15
416.744	1	12
416.915	1	17
417.085	1	17
417.256	1	14
417.427	1	9
417.597	1	14
417.768	1	9
417.939	1	17
418.109	1	22
418.280	1	15
418.450	1	14
418.621	1	-1
418.792	1	18
418.962	1	20
419.133	1	18
419.304	1	10
419.474	1	9
419.645	1	16
419.815	1	3
419.986	1	24
420.157	1	19
420.327	1	10
420.498	1	19
420.669	1	17
420.839	1	29
421.010	1	21
421.180	1	19
421.351	1	15
421.522	1	15
421.692	1	15
421.863	1	17
422.033	1	23
422.204	1	12
422.375	1	16
422.545	1	25
422.716	1	14
422.886	1	10
423.057	1	27
423.228	1	23
423.398	1	7
423.569	1	19
423.740	1	5
423.910	1	4
424.081	1	25
424.251	1	2
424.422	1	14
424.593	1	10
424.763	1	13
424.934	1	12
425.104	1	13
425.275	1	18
425.445	1	19
425.616	1	17
425.787	1	12
425.957	1	12
426.128	1	19
426.298	1	9
426.469	1	8
426.640	1	19
426.810	1	20
426.981	1	14
427.151	1	7
427.322	1	20
427.493	1	15
427.663	1	21
427.834	1	17
428.004	1	16
428.175	1	23
428.345	1	0
428.516	1	7
428.687	1	13
428.857	1	13
429.028	1	25
429.198	1	15
429.369	1	22
429.540	1	12
429.710	1	6
429.881	1	21
430.051	1	28
430.222	1	10
430.392	1	11
430.563	1	29
430.734	1	19
430.904	1	11
431.075	1	14
431.245	1	10
431.416	1	25
431.586	1	12
431.757	1	19
431.927	1	16
432.098	1	19
432.269	1	13
432.439	1	19
432.610	1	26
432.780	1	25
432.951	1	11
433.121	1	9
433.292	1	24
433.462	1	26
433.633	1	16
433.804	1	22
433.974	1	14
434.145	1	31
434.315	1	10
434.486	1	8
434.656	1	11
434.827	1	8
434.997	1	-3
435.168	1	15
435.339	1	17
435.509	1	16
435.680	1	15
435.850	1	22
436.021	1	19
436.191	1	15
436.362	1	19
436.532	1	7
436.703	1	19
436.873	1	9
437.044	1	6
437.214	1	11
437.385	1	16
437.556	1	15
437.726	1	23
437.897	1	27
438.067	1	14
438.238	1	11
438.408	1	22
438.579	1	11
438.749	1	15
438.920	1	6
439.090	1	28
439.261	1	16
439.431	1	9
439.602	1	6
439.772	1	10
439.943	1	19
440.113	1	16
440.284	1	13
440.455	1	20
440.625	1	20
440.796	1	17
440.966	1	1
441.137	1	6
441.307	1	14
441.478	1	19
441.648	1	16
441.819	1	9
441.989	1	17
442.160	1	15
442.330	1	17
442.501	1	17
442.671	1	19
442.842	1	-4
443.012	1	7
443.183	1	13
443.353	1	5
443.524	1	9
443.694	1	15
443.865	1	9
444.035	1	13
444.206	1	6
444.376	1	8
444.547	1	19
444.717	1	19
444.888	1	15
445.058	1	14
445.229	1	14
445.399	1	10
445.570	1	15
445.740	1	8
445.911	1	12
446.081	1	11
446.252	1	20
446.422	1	15
446.593	1	10
446.763	1	15
446.934	1	3
447.104	1	15
447.275	1	18
447.445	1	19
447.616	1	21
447.786	1	8
447.957	1	15
448.127	1	14
448.298	1	9
448.468	1	7
448.639	1	11
448.809	1	16
448.979	1	8
449.150	1	15
449.320	1	7
449.491	1	18
449.661	1	8
449.832	1	5
450.002	1	21
450.173	1	7
450.343	1	13
450.514	1	14
450.684	1	15
450.855	1	17
451.025	1	23
451.196	1	5
451.366	1	12
451.537	1	6
451.707	1	1
451.878	1	10
452.048	1	28
452.218	1	13
452.389	1	14
452.559	1	13
452.730	1	14
452.900	1	13
453.071	1	0
453.241	1	13
453.412	1	5
453.582	1	11
453.753	1	14
453.923	1	15
454.093	1	16
454.264	1	18
454.434	1	7
454.605	1	11
454.775	1	4
454.946	1	9
455.116	1	13
455.287	1	10
455.457	1	-3
455.628	1	9
455.798	1	19
455.968	1	17
456.139	1	5
456.309	1	16
456.480	1	-2
456.650	1	13
456.821	1	5
456.991	1	13
457.161	1	11
457.332	1	21
457.502	1	2
457.673	1	17
457.843	1	17
458.014	1	11
458.184	1	4
458.355	1	10
458.525	1	8
458.695	1	16
458.866	1	13
459.036	1	13
459.207	1	18
459.377	1	12
459.548	1	12
459.718	1	1
459.888	1	7
460.059	1	11
460.229	1	21
460.400	1	10
460.570	1	14
460.740	1	9
460.911	1	11
461.081	1	8
461.252	1	2
461.422	1	5
461.593	1	7
461.763	1	15
461.933	1	14
462.104	1	10
462.274	1	9
462.445	1	8
462.615	1	17
462.785	1	10
462.956	1	20
463.126	1	25
463.297	1	8
463.467	1	17
463.638	1	8
463.808	1	14
463.978	1	1
464.149	1	4
464.319	1	0
464.490	1	25
464.660	1	13
464.830	1	3
465.001	1	11
465.171	1	17
465.342	1	9
465.512	1	-6
465.682	1	14
465.853	1	10
466.023	1	11
466.194	1	12
466.364	1	19
466.534	1	3
466.705	1	8
466.875	1	3
467.045	1	2
467.216	1	22
467.386	1	6
467.557	1	15
467.727	1	2
467.897	1	7
468.068	1	10
468.238	1	12
468.409	1	8
468.579	1	12
468.749	1	6
468.920	1	0
469.090	1	21
469.260	1	-4
469.431	1	7
469.601	1	14
469.772	1	12
469.942	1	-4
470.112	1	19
470.283	1	11
470.453	1	3
470.623	1	6
470.794	1	-3
470.964	1	7
471.135	1	16
471.305	1	-4
471.475	1	4
471.646	1	1
471.816	1	8
471.986	1	14
472.157	1	19
472.327	1	-4
472.497	1	13
472.668	1	3
472.838	1	2
473.009	1	9
473.179	1	3
473.349	1	-4
473.520	1	15
473.690	1	13
473.860	1	9
474.031	1	7
474.201	1	4
474.371	1	20
474.542	1	14
474.712	1	4
474.882	1	10
475.053	1	21
475.223	1	4
475.394	1	13
475.564	1	5
475.734	1	15
475.905	1	22
476.075	1	1
476.245	1	19
476.416	1	15
476.586	1	17
476.756	1	13
476.927	1	10
477.097	1	4
477.267	1	0
477.438	1	10
477.608	1	16
477.778	1	1
477.949	1	10
478.119	1	-1
478.289	1	11
478.460	1	12
478.630	1	7
478.800	1	-1
478.971	1	11
479.141	1	8
479.311	1	2
479.482	1	0
479.652	1	-1
479.822	1	4
479.993	1	9
480.163	1	21
480.333	1	10
480.504	1	14
480.674	1	11
480.844	1	8
481.015	1	14
481.185	1	4
481.355	1	11
481.525	1	11
481.696	1	9
481.866	1	8
482.036	1	10
482.207	1	8
482.377	1	-1
482.547	1	10
482.718	1	5
482.888	1	14
483.058	1	-2
483.229	1	0
483.399	1	2
483.569	1	10
483.740	1	8
483.910	1	5
484.080	1	8
484.250	1	10
484.421	1	8
484.591	1	8
484.761	1	13
484.932	1	5
485.102	1	17
485.272	1	10
485.443	1	11
485.613	1	5
485.783	1	5
485.953	1	10
486.124	1	14
486.294	1	8
486.464	1	3
486.635	1	7
486.805	1	12
486.975	1	8
487.146	1	13
487.316	1	6
487.486	1	9
487.656	1	2
487.827	1	7
487.997	1	1
488.167	1	9
488.338	1	16
488.508	1	-9
488.678	1	2
488.848	1	22
489.019	1	1
489.189	1	6
489.359	1	5
489.529	1	9
489.700	1	12
489.870	1	16
490.040	1	-1
490.211	1	-2
490.381	1	9
490.551	1	9
490.721	1	22
490.892	1	3
491.062	1	4
491.232	1	10
491.402	1	7
491.573	1	-6
491.743	1	9
491.913	1	4
492.084	1	16
492.254	1	-1
492.424	1	5
492.594	1	-1
492.765	1	7
492.935	1	7
493.105	1	2
493.275	1	12
493.446	1	20
493.616	1	18
493.786	1	3
493.956	1	3
494.127	1	-1
494.297	1	2
494.467	1	-3
494.637	1	10
494.808	1	3
494.978	1	2
495.148	1	2
495.318	1	-2
495.489	1	8
495.659	1	10
495.829	1	2
495.999	1	1
496.170	1	13
496.340	1	10
496.510	1	15
496.680	1	-8
496.851	1	3
497.021	1	1
497.191	1	-1
497.361	1	4
497.532	1	-1
497.702	1	9
497.872	1	7
498.042	1	5
498.213	1	14
498.383	1	6
498.553	1	0
498.723	1	4
498.894	1	5
499.064	1	7
499.234	1	6
499.404	1	11
499.574	1	16
499.745	1	10
499.915	1	2
500.085	1	3
500.255	1	9
500.426	1	-1
500.596	1	13
500.766	1	13
500.936	1	10
501.106	1	0
501.277	1	6
501.447	1	4
501.617	1	6
501.787	1	0
501.958	1	-1
502.128	1	4
502.298	1	6
502.468	1	8
502.638	1	9
502.809	1	2
502.979	1	-6
503.149	1	-2
503.319	1	-1
503.489	1	9
503.660	1	-1
503.830	1	3
504.000	1	14
504.170	1	1
504.340	1	-2
504.511	1	12
504.681	1	-6
504.851	1	4
505.021	1	10
505.192	1	3
505.362	1	12
505.532	1	11
505.702	1	6
505.872	1	5
506.043	1	6
506.213	1	5
506.383	1	5
506.553	1	7
506.723	1	8
506.893	1	15
507.064	1	21
507.234	1	-1
507.404	1	-1
507.574	1	9
507.744	1	11
507.915	1	4
508.085	1	11
508.255	1	8
508.425	1	-2
508.595	1	7
508.766	1	12
508.936	1	7
509.106	1	17
509.276	1	11
509.446	1	-5
509.616	1	-3
509.787	1	0
509.957	1	3
510.127	1	8
510.297	1	9
510.467	1	0
510.638	1	5
510.808	1	-5
510.978	1	2
511.148	1	3
511.318	1	-4
511.488	1	-11
511.659	1	9
511.829	1	0
511.999	1	4
512.169	1	9
512.339	1	5
512.509	1	5
512.680	1	1
512.850	1	6
513.020	1	10
513.190	1	6
513.360	1	-2
513.530	1	8
513.700	1	5
513.871	1	3
514.041	1	6
514.211	1	12
514.381	1	4
514.551	1	4
514.721	1	-2
514.892	1	9
515.062	1	11
515.232	1	6
515.402	1	0
515.572	1	-8
515.742	1	2
515.912	1	9
516.083	1	7
516.253	1	9
516.423	1	-2
516.593	1	13
516.763	1	11
516.933	1	5
517.104	1	1
517.274	1	9
517.444	1	12
517.614	1	-1
517.784	1	-3
517.954	1	4
518.124	1	10
518.294	1	5
518.465	1	1
518.635	1	1
518.805	1	-3
518.975	1	6
519.145	1	-3
519.315	1	6
519.485	1	5
519.656	1	5
519.826	1	5
519.996	1	-2
520.166	1	0
520.336	1	11
520.506	1	-1
520.676	1	2
520.846	1	14
521.017	1	5
521.187	1	-1
521.357	1	15
521.527	1	-6
521.697	1	8
521.867	1	1
522.037	1	14
522.207	1	4
522.377	1	3
522.548	1	3
522.718	1	5
522.888	1	14
523.058	1	1
523.228	1	13
523.398	1	6
523.568	1	4
523.738	1	1
523.909	1	4
524.079	1	5
524.249	1	3
524.419	1	3
524.589	1	2
524.759	1	-4
524.929	1	1
525.099	1	7
525.269	1	4
525.439	1	-6
525.610	1	17
525.780	1	-6
525.950	1	-2
526.120	1	1
526.290	1	1
526.460	1	-3
526.630	1	3
526.800	1	7
526.970	1	4
527.140	1	11
527.311	1	0
527.481	1	-6
527.651	1	11
527.821	1	-10
527.991	1	17
528.161	1	13
528.331	1	-12
528.501	1	8
528.671	1	4
528.841	1	5
529.011	1	2
529.181	1	8
529.352	1	2
529.522	1	-1
529.692	1	0
529.862	1	0
530.032	1	7
530.202	1	3
530.372	1	3
530.542	1	8
530.712	1	12
530.882	1	14
531.052	1	15
531.222	1	10
531.392	1	-7
531.563	1	9
531.733	1	5
531.903	1	-1
532.073	1	11
532.243	1	2
532.413	1	4
532.583	1	-2
532.753	1	4
532.923	1	-4
533.093	1	7
533.263	1	4
533.433	1	1
533.603	1	2
533.773	1	3
533.943	1	5
534.113	1	5
534.284	1	1
534.454	1	8
534.624	1	7
534.794	1	-4
534.964	1	8
535.134	1	-1
535.304	1	6
535.474	1	6
535.644	1	-2
535.814	1	-12
535.984	1	5
536.154	1	-6
536.324	1	-2
536.494	1	5
536.664	1	1
536.834	1	1
537.004	1	-7
537.174	1	4
537.344	1	-2
537.514	1	-8
537.685	1	1
537.855	1	5
538.025	1	2
538.195	1	10
538.365	1	18
538.535	1	8
538.705	1	5
538.875	1	3
539.045	1	6
539.215	1	7
539.385	1	10
539.555	1	3
539.725	1	-1
539.895	1	0
540.065	1	13
540.235	1	8
540.405	1	-8
540.575	1	5
540.745	1	1
540.915	1	3
541.085	1	7
541.255	1	-2
541.425	1	4
541.595	1	6
541.765	1	0
541.935	1	0
542.105	1	-2
542.275	1	2
542.445	1	-4
542.615	1	-2
542.785	1	12
542.955	1	-4
543.125	1	-8
543.295	1	3
543.465	1	0
543.635	1	-4
543.805	1	11
543.975	1	8
544.145	1	4
544.315	1	7
544.485	1	4
544.655	1	-1
544.825	1	-17
544.995	1	11
545.165	1	-13
545.335	1	-1
545.505	1	-6
545.675	1	3
545.845	1	2
546.015	1	7
546.185	1	19
546.355	1	10
546.525	1	5
546.695	1	0
546.865	1	-2
547.035	1	6
547.205	1	-6
547.375	1	8
547.545	1	6
547.715	1	-1
547.885	1	7
548.055	1	-5
548.225	1	5
548.395	1	-6
548.565	1	6
548.735	1	1
548.905	1	2
549.075	1	3
549.245	1	7
549.415	1	-6
549.585	1	6
549.755	1	3
549.925	1	-6
550.095	1	-2
550.265	1	7
550.435	1	7
550.605	1	-2
550.775	1	7
550.945	1	6
551.115	1	4
551.285	1	4
551.455	1	-3
551.625	1	13
551.795	1	1
551.965	1	-6
552.135	1	3
552.305	1	-9
552.475	1	-4
552.645	1	-2
552.815	1	1
552.985	1	5
553.155	1	-2
553.325	1	1
553.495	1	2
553.665	1	2
553.835	1	-3
554.004	1	1
554.174	1	-3
554.344	1	6
554.514	1	-2
554.684	1	8
554.854	1	8
555.024	1	-1
555.194	1	7
555.364	1	13
555.534	1	7
555.704	1	-5
555.874	1	8
556.044	1	3
556.214	1	-12
556.384	1	4
556.554	1	12
556.724	1	-5
556.894	1	8
557.064	1	13
557.234	1	-4
557.404	1	8
557.573	1	8
557.743	1	10
557.913	1	2
558.083	1	3
558.253	1	8
558.423	1	1
558.593	1	11
558.763	1	-4
558.933	1	6
559.103	1	10
559.273	1	1
559.443	1	-2
559.613	1	3
559.783	1	-2
559.953	1	-3
560.122	1	4
560.292	1	-4
560.462	1	1
560.632	1	10
560.802	1	12
560.972	1	7
561.142	1	1
561.312	1	-4
561.482	1	8
561.652	1	6
561.822	1	-1
561.992	1	2
562.162	1	5
562.331	1	2
562.501	1	-6
562.671	1	10
562.841	1	1
563.011	1	5
563.181	1	5
563.351	1	-5
563.521	1	7
563.691	1	-3
563.861	1	0
564.031	1	10
564.201	1	12
564.370	1	3
564.540	1	4
564.710	1	-6
564.880	1	7
565.050	1	5
565.220	1	3
565.390	1	1
565.560	1	2
565.730	1	-7
565.900	1	3
566.069	1	13
566.239	1	-3
566.409	1	10
566.579	1	8
566.749	1	-5
566.919	1	11
567.089	1	6
567.259	1	0
567.429	1	-4
567.599	1	3
567.768	1	6
567.938	1	1
568.108	1	7
568.278	1	-2
568.448	1	-1
568.618	1	-2
568.788	1	8
568.958	1	-3
569.128	1	2
569.297	1	4
569.467	1	0
569.637	1	5
569.807	1	-4
569.977	1	-1
570.147	1	14
570.317	1	-2
570.487	1	-6
570.656	1	13
570.826	1	-13
570.996	1	-4
571.166	1	10
571.336	1	-1
571.506	1	0
571.676	1	14
571.846	1	9
572.015	1	3
572.185	1	3
572.355	1	7
572.525	1	9
572.695	1	-1
572.865	1	-13
573.035	1	1
573.205	1	8
573.374	1	-1
573.544	1	3
573.714	1	14
573.884	1	4
574.054	1	10
574.224	1	4
574.394	1	-2
574.563	1	-7
574.733	1	-1
574.903	1	7
575.073	1	-5
575.243	1	3
575.413	1	11
575.583	1	-6
575.752	1	9
575.922	1	3
576.092	1	6
576.262	1	5
576.432	1	6
576.602	1	-2
576.772	1	12
576.941	1	3
577.111	1	-5
577.281	1	-9
577.451	1	-6
577.621	1	6
577.791	1	9
577.960	1	-2
578.130	1	6
578.300	1	8
578.470	1	15
578.640	1	7
578.810	1	-1
578.979	1	7
579.149	1	-4
579.319	1	-8
579.489	1	-7
579.659	1	-2
579.829	1	-3
579.998	1	3
580.168	1	11
580.338	1	0
580.508	1	1
580.678	1	13
580.848	1	-5
581.017	1	1
581.187	1	-1
581.357	1	-9
581.527	1	6
581.697	1	3
581.867	1	-2
582.036	1	5
582.206	1	5
582.376	1	2
582.546	1	-1
582.716	1	2
582.885	1	1
583.055	1	-4
583.225	1	-6
583.395	1	7
583.565	1	4
583.735	1	6
583.904	1	7
584.074	1	0
584.244	1	8
584.414	1	-5
584.584	1	7
584.753	1	-8
584.923	1	4
585.093	1	8
585.263	1	5
585.433	1	2
585.602	1	-5
585.772	1	-10
585.942	1	1
586.112	1	-5
586.282	1	2
586.451	1	-4
586.621	1	0
586.791	1	-1
586.961	1	10
587.131	1	12
587.300	1	-1
587.470	1	4
587.640	1	3
587.810	1	1
587.980	1	-2
588.149	1	11
588.319	1	-6
588.489	1	1
588.659	1	7
588.829	1	-1
588.998	1	11
589.168	1	6
589.338	1	-8
589.508	1	7
589.677	1	-7
589.847	1	-3
590.017	1	12
590.187	1	-7
590.357	1	5
590.526	1	14
590.696	1	11
590.866	1	0
591.036	1	1
591.205	1	4
591.375	1	-5
591.545	1	-8
591.715	1	5
591.885	1	0
592.054	1	1
592.224	1	5
592.394	1	-3
592.564	1	5
592.733	1	1
592.903	1	7
593.073	1	-4
593.243	1	10
593.412	1	8
593.582	1	0
593.752	1	-3
593.922	1	-4
594.091	1	-3
594.261	1	1
594.431	1	5
594.601	1	10
594.771	1	8
594.940	1	3
595.110	1	0
595.280	1	4
595.450	1	-8
595.619	1	-2
595.789	1	-1
595.959	1	4
596.129	1	1
596.298	1	-1
596.468	1	7
596.638	1	7
596.808	1	-1
596.977	1	1
597.147	1	10
597.317	1	-3
597.487	1	14
597.656	1	0
597.826	1	1
597.996	1	0
598.166	1	4
598.335	1	-1
598.505	1	5
598.675	1	0
598.844	1	4
599.014	1	3
599.184	1	8
599.354	1	-3
599.523	1	1
599.693	1	-4
599.863	1	8
600.033	1	-4
600.202	1	-5
600.372	1	6
600.542	1	10
600.712	1	-5
600.881	1	-6
601.051	1	12
601.221	1	11
601.390	1	-7
601.560	1	6
601.730	1	7
601.900	1	1
602.069	1	10
602.239	1	4
602.409	1	0
602.578	1	-1
602.748	1	10
602.918	1	7
603.088	1	6
603.257	1	7
603.427	1	-2
603.597	1	9
603.767	1	-4
603.936	1	6
604.106	1	8
604.276	1	7
604.445	1	1
604.615	1	2
604.785	1	1
604.954	1	4
605.124	1	3
605.294	1	6
605.464	1	-1
605.633	1	4
605.803	1	6
605.973	1	-7
606.142	1	1
606.312	1	2
606.482	1	-3
606.652	1	4
606.821	1	-8
606.991	1	2
607.161	1	5
607.330	1	3
607.500	1	3
607.670	1	-1
607.839	1	13
608.009	1	8
608.179	1	0
608.348	1	-4
608.518	1	3
608.688	1	4
608.858	1	-7
609.027	1	-10
609.197	1	1
609.367	1	5
609.536	1	6
609.706	1	10
609.876	1	0
610.045	1	0
610.215	1	4
610.385	1	1
610.554	1	0
610.724	1	10
610.894	1	6
611.063	1	-1
611.233	1	-2
611.403	1	-6
611.572	1	11
611.742	1	6
611.912	1	-2
612.081	1	-6
612.251	1	9
612.421	1	0
612.590	1	0
612.760	1	1
612.930	1	3
613.099	1	-2
613.269	1	12
613.439	1	-5
613.608	1	1
613.778	1	6
613.948	1	4
614.117	1	11
614.287	1	3
614.457	1	0
614.626	1	1
614.796	1	8
614.966	1	2
615.135	1	2
615.305	1	4
615.475	1	0
615.644	1	-3
615.814	1	0
615.984	1	1
616.153	1	-3
616.323	1	8
616.493	1	2
616.662	1	13
616.832	1	6
617.002	1	-7
617.171	1	-5
617.341	1	-4
617.511	1	-9
617.680	1	-6
617.850	1	4
618.019	1	6
618.189	1	12
618.359	1	7
618.528	1	-5
618.698	1	7
618.868	1	-9
619.037	1	-2
619.207	1	-2
619.377	1	-4
619.546	1	4
619.716	1	5
619.885	1	3
620.055	1	-7
620.225	1	5
620.394	1	-4
620.564	1	10
620.734	1	8
620.903	1	0
621.073	1	7
621.242	1	-2
621.412	1	-1
621.582	1	0
621.751	1	3
621.921	1	10
622.091	1	0
622.260	1	4
622.430	1	9
622.599	1	-3
622.769	1	5
622.939	1	11
623.108	1	7
623.278	1	-14
623.448	1	4
623.617	1	-5
623.787	1	2
623.956	1	10
624.126	1	-2
624.296	1	-1
624.465	1	4
624.635	1	14
624.804	1	2
624.974	1	-3
625.144	1	6
625.313	1	-4
625.483	1	-17
625.652	1	1
625.822	1	4
625.992	1	-3
626.161	1	15
626.331	1	1
626.501	1	5
626.670	1	7
626.840	1	-1
627.009	1	-1
627.179	1	10
627.348	1	11
627.518	1	1
627.688	1	2
627.857	1	5
628.027	1	-5
628.196	1	10
628.366	1	8
628.536	1	15
628.705	1	-7
628.875	1	4
629.044	1	0
629.214	1	10
629.384	1	-1
629.553	1	11
629.723	1	2
629.892	1	-5
630.062	1	3
630.232	1	4
630.401	1	16
630.571	1	4
630.740	1	6
630.910	1	3
631.079	1	4
631.249	1	0
631.419	1	11
631.588	1	-4
631.758	1	7
631.927	1	-2
632.097	1	1
632.266	1	0
632.436	1	2
632.606	1	-4
632.775	1	5
632.945	1	1
633.114	1	10
633.284	1	2
633.453	1	1
633.623	1	-2
633.793	1	4
633.962	1	11
634.132	1	8
634.301	1	0
634.471	1	3
634.640	1	8
634.810	1	7
634.979	1	9
635.149	1	2
635.319	1	1
635.488	1	-2
635.658	1	0
635.827	1	0
635.997	1	0
636.166	1	4
636.336	1	4
636.505	1	12
636.675	1	1
636.845	1	6
637.014	1	2
637.184	1	9
637.353	1	2
637.523	1	7
637.692	1	2
637.862	1	3
638.031	1	11
638.201	1	3
638.370	1	4
638.540	1	-1
638.710	1	7
638.879	1	-11
639.049	1	11
639.218	1	0
639.388	1	1
639.557	1	1
639.727	1	1
639.896	1	-2
640.066	1	-2
640.235	1	11
640.405	1	0
640.574	1	1
640.744	1	-6
640.914	1	13
641.083	1	1
641.253	1	1
641.422	1	-3
641.592	1	15
641.761	1	5
641.931	1	-4
642.100	1	18
642.270	1	-6
642.439	1	7
642.609	1	8
642.778	1	8
642.948	1	-1
643.117	1	8
643.287	1	-5
643.456	1	3
643.626	1	9
643.795	1	4
643.965	1	9
644.134	1	6
644.304	1	1
644.473	1	6
644.643	1	1
644.812	1	5
644.982	1	2
645.151	1	-2
645.321	1	-1
645.490	1	16
645.660	1	-9
645.829	1	0
645.999	1	4
646.168	1	9
646.338	1	7
646.507	1	3
646.677	1	-1
646.846	1	1
647.016	1	-9
647.185	1	8
647.355	1	-3
647.524	1	12
647.694	1	12
647.863	1	-5
648.033	1	0
648.202	1	7
648.372	1	1
648.541	1	2
648.711	1	5
648.880	1	4
649.050	1	-9
649.219	1	10
649.389	1	11
649.558	1	0
649.728	1	-3
649.897	1	-5
650.067	1	3
650.236	1	-6
650.406	1	1
650.575	1	10
650.745	1	5
650.914	1	-1
651.084	1	3
651.253	1	-1
651.423	1	6
651.592	1	4
651.762	1	-5
651.931	1	13
652.101	1	10
652.270	1	12
652.440	1	9
652.609	1	-2
652.778	1	-1
652.948	1	1
653.117	1	4
653.287	1	1
653.456	1	5
653.626	1	3
653.795	1	5
653.965	1	-2
654.134	1	8
654.304	1	-13
654.473	1	6
654.643	1	5
654.812	1	3
654.982	1	4
655.151	1	-1
655.320	1	8
655.490	1	-5
655.659	1	7
655.829	1	-5
655.998	1	3
656.168	1	0
656.337	1	15
656.507	1	7
656.676	1	11
656.846	1	14
657.015	1	18
657.184	1	13
657.354	1	5
657.523	1	-3
657.693	1	10
657.862	1	3
658.032	1	1
658.201	1	1
658.371	1	18
658.540	1	15
658.709	1	2
658.879	1	3
659.048	1	2
659.218	1	-3
659.387	1	7
659.557	1	-2
659.726	1	10
659.895	1	2
660.065	1	-5
660.234	1	5
660.404	1	3
660.573	1	4
660.743	1	10
660.912	1	5
661.081	1	12
661.251	1	-2
661.420	1	3
661.590	1	0
661.759	1	9
661.929	1	10
662.098	1	4
662.267	1	0
662.437	1	8
662.606	1	2
662.776	1	9
662.945	1	-2
663.115	1	6
663.284	1	-4
663.453	1	3
663.623	1	-5
663.792	1	10
663.962	1	7
664.131	1	4
664.300	1	-1
664.470	1	-1
664.639	1	11
664.809	1	1
664.978	1	9
665.148	1	5
665.317	1	1
665.486	1	6
665.656	1	2
665.825	1	10
665.995	1	2
666.164	1	0
666.333	1	4
666.503	1	6
666.672	1	-5
666.842	1	-1
667.011	1	2
667.180	1	14
667.350	1	5
667.519	1	13
667.689	1	2
667.858	1	2
668.027	1	9
668.197	1	-6
668.366	1	-1
668.536	1	9
668.705	1	3
668.874	1	3
669.044	1	-1
669.213	1	13
669.382	1	4
669.552	1	9
669.721	1	12
669.891	1	7
670.060	1	8
670.229	1	15
670.399	1	-6
670.568	1	21
670.738	1	11
670.907	1	-9
671.076	1	-4
671.246	1	1
671.415	1	-3
671.584	1	2
671.754	1	4
671.923	1	-9
672.093	1	8
672.262	1	-6
672.431	1	6
672.601	1	0
672.770	1	-2
672.939	1	2
673.109	1	8
673.278	1	7
673.448	1	4
673.617	1	0
673.786	1	10
