325.333	1	14
325.504	1	-1
325.675	1	9
325.846	1	-1
326.017	1	12
326.188	1	-1
326.359	1	-3
326.531	1	-7
326.702	1	4
326.873	1	17
327.044	1	10
327.215	1	-3
327.386	1	9
327.557	1	-5
327.728	1	1
327.899	1	6
328.070	1	15
328.241	1	11
328.412	1	-7
328.583	1	17
328.754	1	5
328.926	1	14
329.097	1	-3
329.268	1	12
329.439	1	-2
329.610	1	15
329.781	1	3
329.952	1	15
330.123	1	0
330.294	1	3
330.465	1	4
330.636	1	14
330.807	1	1
330.978	1	-5
331.149	1	-5
331.320	1	-1
331.492	1	4
331.663	1	3
331.834	1	16
332.005	1	9
332.176	1	14
332.347	1	11
332.518	1	1
332.689	1	15
332.860	1	0
333.031	1	13
333.202	1	-5
333.373	1	6
333.544	1	4
333.715	1	16
333.886	1	1
334.057	1	6
334.228	1	0
334.399	1	9
334.570	1	24
334.741	1	-1
334.912	1	9
335.084	1	16
335.255	1	6
335.426	1	6
335.597	1	13
335.768	1	6
335.939	1	-1
336.110	1	3
336.281	1	-3
336.452	1	4
336.623	1	1
336.794	1	13
336.965	1	14
337.136	1	20
337.307	1	8
337.478	1	5
337.649	1	5
337.820	1	5
337.991	1	7
338.162	1	7
338.333	1	10
338.504	1	6
338.675	1	9
338.846	1	14
339.017	1	9
339.188	1	11
339.359	1	4
339.530	1	7
339.701	1	12
339.872	1	25
340.043	1	-2
340.214	1	8
340.385	1	21
340.556	1	7
340.727	1	14
340.898	1	18
341.069	1	21
341.240	1	3
341.411	1	7
341.582	1	19
341.753	1	7
341.924	1	11
342.095	1	16
342.266	1	18
342.437	1	20
342.608	1	10
342.779	1	10
342.950	1	15
343.121	1	13
343.292	1	6
343.463	1	10
343.634	1	7
343.805	1	17
343.976	1	17
344.147	1	10
344.318	1	6
344.489	1	14
344.660	1	19
344.831	1	13
345.002	1	6
345.173	1	24
345.344	1	17
345.515	1	19
345.686	1	10
345.857	1	17
346.028	1	8
346.199	1	15
346.370	1	11
346.541	1	18
346.712	1	8
346.883	1	15
347.054	1	9
347.225	1	13
347.396	1	14
347.567	1	13
347.738	1	-1
347.909	1	18
348.080	1	13
348.251	1	23
348.422	1	20
348.593	1	11
348.764	1	22
348.935	1	20
349.106	1	10
349.277	1	9
349.448	1	14
349.619	1	14
349.790	1	11
349.961	1	19
350.132	1	20
350.303	1	13
350.474	1	24
350.645	1	19
350.816	1	21
350.987	1	28
351.157	1	10
351.328	1	22
351.499	1	17
351.670	1	11
351.841	1	22
352.012	1	26
352.183	1	21
352.354	1	25
352.525	1	20
352.696	1	33
352.867	1	15
353.038	1	18
353.209	1	25
353.380	1	12
353.551	1	9
353.722	1	5
353.893	1	21
354.064	1	30
354.235	1	20
354.406	1	16
354.576	1	22
354.747	1	15
354.918	1	21
355.089	1	20
355.260	1	23
355.431	1	28
355.602	1	18
355.773	1	20
355.944	1	9
356.115	1	14
356.286	1	26
356.457	1	19
356.628	1	28
356.799	1	23
356.970	1	33
357.141	1	24
357.311	1	14
357.482	1	29
357.653	1	20
357.824	1	27
357.995	1	26
358.166	1	16
358.337	1	17
358.508	1	19
358.679	1	26
358.850	1	26
359.021	1	18
359.192	1	25
359.363	1	17
359.533	1	23
359.704	1	19
359.875	1	20
360.046	1	19
360.217	1	12
360.388	1	24
360.559	1	15
360.730	1	29
360.901	1	30
361.072	1	33
361.243	1	26
361.414	1	30
361.584	1	15
361.755	1	30
361.926	1	26
362.097	1	19
362.268	1	26
362.439	1	16
362.610	1	24
362.781	1	13
362.952	1	28
363.123	1	25
363.293	1	21
363.464	1	32
363.635	1	23
363.806	1	16
363.977	1	11
364.148	1	19
364.319	1	28
364.490	1	32
364.661	1	18
364.832	1	27
365.002	1	42
365.173	1	30
365.344	1	29
365.515	1	24
365.686	1	13
365.857	1	28
366.028	1	41
366.199	1	21
366.370	1	31
366.540	1	23
366.711	1	8
366.882	1	14
367.053	1	12
367.224	1	33
367.395	1	23
367.566	1	20
367.737	1	25
367.908	1	28
368.078	1	20
368.249	1	31
368.420	1	17
368.591	1	23
368.762	1	24
368.933	1	27
369.104	1	15
369.274	1	21
369.445	1	25
369.616	1	15
369.787	1	28
369.958	1	32
370.129	1	20
370.300	1	31
370.471	1	17
370.641	1	22
370.812	1	30
370.983	1	24
371.154	1	19
371.325	1	32
371.496	1	22
371.667	1	30
371.837	1	17
372.008	1	30
372.179	1	16
372.350	1	35
372.521	1	27
372.692	1	21
372.863	1	20
373.033	1	10
373.204	1	21
373.375	1	30
373.546	1	25
373.717	1	33
373.888	1	33
374.059	1	33
374.229	1	41
374.400	1	22
374.571	1	23
374.742	1	26
374.913	1	22
375.084	1	24
375.254	1	27
375.425	1	29
375.596	1	26
375.767	1	29
375.938	1	22
376.109	1	25
376.279	1	21
376.450	1	31
376.621	1	18
376.792	1	25
376.963	1	32
377.134	1	35
377.304	1	18
377.475	1	28
377.646	1	19
377.817	1	20
377.988	1	30
378.159	1	29
378.329	1	37
378.500	1	29
378.671	1	26
378.842	1	42
379.013	1	28
379.184	1	22
379.354	1	38
379.525	1	26
379.696	1	39
379.867	1	36
380.038	1	31
380.209	1	36
380.379	1	27
380.550	1	24
380.721	1	34
380.892	1	29
381.063	1	36
381.233	1	36
381.404	1	23
381.575	1	45
381.746	1	31
381.917	1	31
382.087	1	35
382.258	1	26
382.429	1	43
382.600	1	52
382.771	1	29
382.941	1	31
383.112	1	28
383.283	1	46
383.454	1	31
383.625	1	25
383.795	1	38
383.966	1	39
384.137	1	36
384.308	1	38
384.479	1	34
384.649	1	42
384.820	1	38
384.991	1	26
385.162	1	38
385.333	1	23
385.503	1	30
385.674	1	21
385.845	1	34
386.016	1	42
386.187	1	27
386.357	1	34
386.528	1	53
386.699	1	31
386.870	1	52
387.041	1	40
387.211	1	39
387.382	1	43
387.553	1	40
387.724	1	29
387.894	1	42
388.065	1	45
388.236	1	48
388.407	1	35
388.578	1	26
388.748	1	27
388.919	1	46
389.090	1	25
389.261	1	29
389.431	1	40
389.602	1	35
389.773	1	38
389.944	1	44
390.114	1	38
390.285	1	38
390.456	1	31
390.627	1	36
390.798	1	34
390.968	1	41
391.139	1	43
391.310	1	30
391.481	1	40
391.651	1	41
391.822	1	37
391.993	1	45
392.164	1	31
392.334	1	37
392.505	1	36
392.676	1	45
392.847	1	49
393.017	1	50
393.188	1	42
393.359	1	29
393.530	1	33
393.700	1	40
393.871	1	35
394.042	1	35
394.213	1	37
394.383	1	45
394.554	1	37
394.725	1	39
394.896	1	34
395.066	1	39
395.237	1	46
395.408	1	38
395.579	1	36
395.749	1	43
395.920	1	38
396.091	1	44
396.262	1	38
396.432	1	39
396.603	1	50
396.774	1	48
396.945	1	36
397.115	1	45
397.286	1	48
397.457	1	27
397.627	1	35
397.798	1	37
397.969	1	36
398.140	1	28
398.310	1	41
398.481	1	44
398.652	1	39
398.823	1	28
398.993	1	34
399.164	1	36
399.335	1	50
399.505	1	44
399.676	1	32
399.847	1	37
400.018	1	38
400.188	1	41
400.359	1	42
400.530	1	33
400.700	1	44
400.871	1	33
401.042	1	38
401.213	1	36
401.383	1	35
401.554	1	42
401.725	1	39
401.895	1	39
402.066	1	46
402.237	1	53
402.408	1	50
402.578	1	40
402.749	1	44
402.920	1	42
403.090	1	35
403.261	1	39
403.432	1	36
403.603	1	45
403.773	1	47
403.944	1	52
404.115	1	48
404.285	1	40
404.456	1	30
404.627	1	37
404.797	1	27
404.968	1	30
405.139	1	27
405.310	1	46
405.480	1	44
405.651	1	34
405.822	1	38
405.992	1	40
406.163	1	42
406.334	1	34
406.504	1	30
406.675	1	47
406.846	1	44
407.016	1	52
407.187	1	51
407.358	1	34
407.528	1	40
407.699	1	42
407.870	1	39
408.041	1	44
408.211	1	54
408.382	1	35
408.553	1	34
408.723	1	52
408.894	1	40
409.065	1	51
409.235	1	43
409.406	1	50
409.577	1	37
409.747	1	52
409.918	1	47
410.089	1	37
410.259	1	45
410.430	1	44
410.601	1	50
410.771	1	42
410.942	1	52
411.113	1	50
411.283	1	30
411.454	1	36
411.625	1	38
411.795	1	48
411.966	1	49
412.137	1	32
412.307	1	36
412.478	1	42
412.649	1	43
412.819	1	46
412.990	1	43
413.161	1	39
413.331	1	40
413.502	1	47
413.672	1	34
413.843	1	41
414.014	1	33
414.184	1	49
414.355	1	60
414.526	1	48
414.696	1	52
414.867	1	42
415.038	1	39
415.208	1	31
415.379	1	47
415.550	1	42
415.720	1	39
415.891	1	46
416.062	1	44
416.232	1	39
416.403	1	48
416.573	1	42
416.744	1	39
416.915	1	47
417.085	1	40
417.256	1	37
417.427	1	39
417.597	1	36
417.768	1	34
417.939	1	42
418.109	1	42
418.280	1	46
418.450	1	50
418.621	1	32
418.792	1	44
418.962	1	50
419.133	1	56
419.304	1	40
419.474	1	38
419.645	1	44
419.815	1	32
419.986	1	29
420.157	1	41
420.327	1	47
420.498	1	49
420.669	1	38
420.839	1	47
421.010	1	49
421.180	1	44
421.351	1	46
421.522	1	48
421.692	1	49
421.863	1	38
422.033	1	46
422.204	1	45
422.375	1	41
422.545	1	51
422.716	1	32
422.886	1	40
423.057	1	43
423.228	1	46
423.398	1	31
423.569	1	41
423.740	1	31
423.910	1	27
424.081	1	38
424.251	1	35
424.422	1	40
424.593	1	38
424.763	1	43
424.934	1	41
425.104	1	40
425.275	1	48
425.445	1	47
425.616	1	29
425.787	1	33
425.957	1	44
426.128	1	47
426.298	1	39
426.469	1	32
426.640	1	36
426.810	1	42
426.981	1	43
427.151	1	38
427.322	1	39
427.493	1	37
427.663	1	40
427.834	1	32
428.004	1	46
428.175	1	45
428.345	1	34
428.516	1	30
428.687	1	43
428.857	1	27
429.028	1	28
429.198	1	43
429.369	1	45
429.540	1	35
429.710	1	28
429.881	1	46
430.051	1	46
430.222	1	29
430.392	1	33
430.563	1	47
430.734	1	54
430.904	1	39
431.075	1	46
431.245	1	34
431.416	1	40
431.586	1	36
431.757	1	40
431.927	1	42
432.098	1	34
432.269	1	23
432.439	1	40
432.610	1	43
432.780	1	35
432.951	1	35
433.121	1	43
433.292	1	42
433.462	1	46
433.633	1	44
433.804	1	41
433.974	1	28
434.145	1	47
434.315	1	37
434.486	1	29
434.656	1	40
434.827	1	27
434.997	1	35
435.168	1	38
435.339	1	49
435.509	1	37
435.680	1	37
435.850	1	36
436.021	1	38
436.191	1	40
436.362	1	38
436.532	1	30
436.703	1	39
436.873	1	33
437.044	1	23
437.214	1	41
437.385	1	32
437.556	1	34
437.726	1	51
437.897	1	43
438.067	1	31
438.238	1	30
438.408	1	41
438.579	1	25
438.749	1	26
438.920	1	34
439.090	1	35
439.261	1	32
439.431	1	35
439.602	1	39
439.772	1	35
439.943	1	42
440.113	1	33
440.284	1	39
440.455	1	35
440.625	1	33
440.796	1	45
440.966	1	33
441.137	1	35
441.307	1	25
441.478	1	43
441.648	1	35
441.819	1	28
441.989	1	28
442.160	1	41
442.330	1	36
442.501	1	29
442.671	1	37
442.842	1	29
443.012	1	25
443.183	1	41
443.353	1	30
443.524	1	26
443.694	1	31
443.865	1	31
444.035	1	29
444.206	1	31
444.376	1	28
444.547	1	37
444.717	1	33
444.888	1	31
445.058	1	39
445.229	1	44
445.399	1	30
445.570	1	34
445.740	1	41
445.911	1	32
446.081	1	22
446.252	1	36
446.422	1	30
446.593	1	28
446.763	1	23
446.934	1	28
447.104	1	42
447.275	1	27
447.445	1	36
447.616	1	36
447.786	1	28
447.957	1	36
448.127	1	31
448.298	1	34
448.468	1	27
448.639	1	35
448.809	1	30
448.979	1	23
449.150	1	31
449.320	1	22
449.491	1	36
449.661	1	21
449.832	1	18
450.002	1	39
450.173	1	30
450.343	1	22
450.514	1	36
450.684	1	33
450.855	1	23
451.025	1	29
451.196	1	33
451.366	1	37
451.537	1	31
451.707	1	27
451.878	1	27
452.048	1	43
452.218	1	35
452.389	1	25
452.559	1	33
452.730	1	32
452.900	1	27
453.071	1	25
453.241	1	21
453.412	1	15
453.582	1	33
453.753	1	25
453.923	1	26
454.093	1	40
454.264	1	30
454.434	1	16
454.605	1	25
454.775	1	29
454.946	1	30
455.116	1	30
455.287	1	17
455.457	1	19
455.628	1	15
455.798	1	30
455.968	1	25
456.139	1	18
456.309	1	20
456.480	1	17
456.650	1	17
456.821	1	27
456.991	1	24
457.161	1	27
457.332	1	38
457.502	1	14
457.673	1	23
457.843	1	32
458.014	1	18
458.184	1	25
458.355	1	25
458.525	1	27
458.695	1	28
458.866	1	14
459.036	1	26
459.207	1	25
459.377	1	27
459.548	1	27
459.718	1	16
459.888	1	31
460.059	1	22
460.229	1	20
460.400	1	20
460.570	1	31
460.740	1	27
460.911	1	24
461.081	1	22
461.252	1	17
461.422	1	23
461.593	1	25
461.763	1	18
461.933	1	23
462.104	1	26
462.274	1	24
462.445	1	27
462.615	1	29
462.785	1	23
462.956	1	23
463.126	1	41
463.297	1	21
463.467	1	22
463.638	1	29
463.808	1	16
463.978	1	20
464.149	1	12
464.319	1	17
464.490	1	30
464.660	1	18
464.830	1	20
465.001	1	30
465.171	1	22
465.342	1	27
465.512	1	11
465.682	1	25
465.853	1	29
466.023	1	21
466.194	1	18
466.364	1	24
466.534	1	21
466.705	1	23
466.875	1	21
467.045	1	26
467.216	1	31
467.386	1	18
467.557	1	8
467.727	1	13
467.897	1	16
468.068	1	21
468.238	1	17
468.409	1	14
468.579	1	19
468.749	1	16
468.920	1	20
469.090	1	17
469.260	1	20
469.431	1	17
469.601	1	26
469.772	1	17
469.942	1	19
470.112	1	26
470.283	1	15
470.453	1	19
470.623	1	9
470.794	1	18
470.964	1	21
471.135	1	19
471.305	1	8
471.475	1	23
471.646	1	13
471.816	1	19
471.986	1	5
472.157	1	26
472.327	1	14
472.497	1	24
472.668	1	12
472.838	1	17
473.009	1	17
473.179	1	15
473.349	1	13
473.520	1	26
473.690	1	15
473.860	1	10
474.031	1	17
474.201	1	14
474.371	1	24
474.542	1	17
474.712	1	16
474.882	1	18
475.053	1	25
475.223	1	16
475.394	1	19
475.564	1	12
475.734	1	17
475.905	1	32
476.075	1	19
476.245	1	28
476.416	1	18
476.586	1	29
476.756	1	7
476.927	1	26
477.097	1	21
477.267	1	19
477.438	1	23
477.608	1	17
477.778	1	18
477.949	1	25
478.119	1	27
478.289	1	19
478.460	1	30
478.630	1	18
478.800	1	15
478.971	1	25
479.141	1	14
479.311	1	11
479.482	1	16
479.652	1	16
479.822	1	14
479.993	1	16
480.163	1	23
480.333	1	21
480.504	1	18
480.674	1	17
480.844	1	6
481.015	1	25
481.185	1	16
481.355	1	18
481.525	1	7
481.696	1	23
481.866	1	26
482.036	1	25
482.207	1	11
482.377	1	13
482.547	1	19
482.718	1	11
482.888	1	19
483.058	1	7
483.229	1	9
483.399	1	19
483.569	1	16
483.740	1	30
483.910	1	16
484.080	1	21
484.250	1	14
484.421	1	17
484.591	1	19
484.761	1	17
484.932	1	15
485.102	1	22
485.272	1	13
485.443	1	25
485.613	1	27
485.783	1	20
485.953	1	13
486.124	1	22
486.294	1	19
486.464	1	19
486.635	1	27
486.805	1	23
486.975	1	15
487.146	1	15
487.316	1	15
487.486	1	16
487.656	1	12
487.827	1	15
487.997	1	10
488.167	1	8
488.338	1	28
488.508	1	14
488.678	1	16
488.848	1	24
489.019	1	11
489.189	1	19
489.359	1	12
489.529	1	12
489.700	1	7
489.870	1	22
490.040	1	9
490.211	1	8
490.381	1	5
490.551	1	15
490.721	1	21
490.892	1	13
491.062	1	13
491.232	1	16
491.402	1	15
491.573	1	2
491.743	1	18
491.913	1	7
492.084	1	23
492.254	1	12
492.424	1	12
492.594	1	11
492.765	1	18
492.935	1	0
493.105	1	16
493.275	1	14
493.446	1	19
493.616	1	14
493.786	1	17
493.956	1	10
494.127	1	10
494.297	1	6
494.467	1	16
494.637	1	8
494.808	1	9
494.978	1	5
495.148	1	8
495.318	1	12
495.489	1	9
495.659	1	18
495.829	1	15
495.999	1	-1
496.170	1	13
496.340	1	22
496.510	1	10
496.680	1	6
496.851	1	16
497.021	1	22
497.191	1	-2
497.361	1	11
497.532	1	3
497.702	1	13
497.872	1	8
498.042	1	26
498.213	1	1
498.383	1	11
498.553	1	6
498.723	1	8
498.894	1	9
499.064	1	4
499.234	1	15
499.404	1	18
499.574	1	14
499.745	1	10
499.915	1	11
500.085	1	7
500.255	1	13
500.426	1	12
500.596	1	12
500.766	1	15
500.936	1	12
501.106	1	3
501.277	1	13
501.447	1	4
501.617	1	10
501.787	1	7
501.958	1	7
502.128	1	4
502.298	1	15
502.468	1	9
502.638	1	15
502.809	1	21
502.979	1	-1
503.149	1	4
503.319	1	2
503.489	1	10
503.660	1	10
503.830	1	13
504.000	1	17
504.170	1	14
504.340	1	1
504.511	1	13
504.681	1	12
504.851	1	12
505.021	1	12
505.192	1	4
505.362	1	13
505.532	1	12
505.702	1	8
505.872	1	15
506.043	1	2
506.213	1	0
506.383	1	6
506.553	1	20
506.723	1	3
506.893	1	10
507.064	1	19
507.234	1	8
507.404	1	1
507.574	1	1
507.744	1	14
507.915	1	13
508.085	1	27
508.255	1	13
508.425	1	1
508.595	1	14
508.766	1	13
508.936	1	0
509.106	1	31
509.276	1	16
509.446	1	3
509.616	1	6
509.787	1	13
509.957	1	5
510.127	1	8
510.297	1	12
510.467	1	-1
510.638	1	9
510.808	1	-1
510.978	1	2
511.148	1	7
511.318	1	4
511.488	1	-3
511.659	1	11
511.829	1	5
511.999	1	9
512.169	1	8
512.339	1	4
512.509	1	15
512.680	1	7
512.850	1	12
513.020	1	11
513.190	1	15
513.360	1	0
513.530	1	4
513.700	1	13
513.871	1	11
514.041	1	10
514.211	1	20
514.381	1	15
514.551	1	11
514.721	1	7
514.892	1	10
515.062	1	4
515.232	1	10
515.402	1	5
515.572	1	-2
515.742	1	10
515.912	1	15
516.083	1	1
516.253	1	13
516.423	1	12
516.593	1	8
516.763	1	14
516.933	1	14
517.104	1	13
517.274	1	10
517.444	1	9
517.614	1	-3
517.784	1	12
517.954	1	8
518.124	1	5
518.294	1	6
518.465	1	4
518.635	1	-4
518.805	1	0
518.975	1	7
519.145	1	4
519.315	1	-5
519.485	1	5
519.656	1	16
519.826	1	5
519.996	1	-5
520.166	1	11
520.336	1	18
520.506	1	-3
520.676	1	2
520.846	1	16
521.017	1	13
521.187	1	1
521.357	1	8
521.527	1	1
521.697	1	10
521.867	1	4
522.037	1	5
522.207	1	16
522.377	1	17
522.548	1	16
522.718	1	5
522.888	1	19
523.058	1	8
523.228	1	8
523.398	1	5
523.568	1	11
523.738	1	3
523.909	1	18
524.079	1	11
524.249	1	3
524.419	1	7
524.589	1	7
524.759	1	10
524.929	1	1
525.099	1	5
525.269	1	12
525.439	1	0
525.610	1	16
525.780	1	8
525.950	1	9
526.120	1	5
526.290	1	10
526.460	1	3
526.630	1	20
526.800	1	3
526.970	1	6
527.140	1	11
527.311	1	1
527.481	1	2
527.651	1	17
527.821	1	4
527.991	1	14
528.161	1	9
528.331	1	3
528.501	1	9
528.671	1	4
528.841	1	7
529.011	1	2
529.181	1	2
529.352	1	4
529.522	1	-1
529.692	1	13
529.862	1	8
530.032	1	8
530.202	1	2
530.372	1	9
530.542	1	12
530.712	1	13
530.882	1	4
531.052	1	8
531.222	1	7
531.392	1	1
531.563	1	14
531.733	1	4
531.903	1	9
532.073	1	13
532.243	1	7
532.413	1	16
532.583	1	9
532.753	1	-1
532.923	1	7
533.093	1	4
533.263	1	11
533.433	1	8
533.603	1	8
533.773	1	-7
533.943	1	3
534.113	1	5
534.284	1	3
534.454	1	10
534.624	1	7
534.794	1	-5
534.964	1	-1
535.134	1	0
535.304	1	7
535.474	1	18
535.644	1	-4
535.814	1	-7
535.984	1	4
536.154	1	6
536.324	1	9
536.494	1	11
536.664	1	12
536.834	1	5
537.004	1	-1
537.174	1	5
537.344	1	8
537.514	1	-2
537.685	1	4
537.855	1	10
538.025	1	12
538.195	1	11
538.365	1	8
538.535	1	4
538.705	1	-4
538.875	1	8
539.045	1	10
539.215	1	15
539.385	1	2
539.555	1	2
539.725	1	5
539.895	1	0
540.065	1	20
540.235	1	6
540.405	1	2
540.575	1	1
540.745	1	3
540.915	1	5
541.085	1	14
541.255	1	4
541.425	1	7
541.595	1	0
541.765	1	8
541.935	1	-3
542.105	1	1
542.275	1	6
542.445	1	-6
542.615	1	9
542.785	1	7
542.955	1	7
543.125	1	1
543.295	1	7
543.465	1	5
543.635	1	5
543.805	1	12
543.975	1	0
544.145	1	11
544.315	1	2
544.485	1	4
544.655	1	9
544.825	1	-2
544.995	1	3
545.165	1	-8
545.335	1	4
545.505	1	3
545.675	1	9
545.845	1	7
546.015	1	8
546.185	1	2
546.355	1	13
546.525	1	4
546.695	1	-2
546.865	1	-10
547.035	1	14
547.205	1	-12
547.375	1	16
547.545	1	6
547.715	1	-3
547.885	1	3
548.055	1	0
548.225	1	2
548.395	1	1
548.565	1	-3
548.735	1	2
548.905	1	0
549.075	1	10
549.245	1	-3
549.415	1	-6
549.585	1	4
549.755	1	14
549.925	1	0
550.095	1	2
550.265	1	4
550.435	1	2
550.605	1	4
550.775	1	7
550.945	1	13
551.115	1	1
551.285	1	3
551.455	1	5
551.625	1	7
551.795	1	6
551.965	1	-6
552.135	1	5
552.305	1	-2
552.475	1	-4
552.645	1	1
552.815	1	-4
552.985	1	5
553.155	1	12
553.325	1	0
553.495	1	5
553.665	1	1
553.835	1	-8
554.004	1	2
554.174	1	2
554.344	1	5
554.514	1	0
554.684	1	2
554.854	1	9
555.024	1	-6
555.194	1	0
555.364	1	7
555.534	1	4
555.704	1	-1
555.874	1	11
556.044	1	7
556.214	1	-11
556.384	1	-1
556.554	1	10
556.724	1	4
556.894	1	5
557.064	1	6
557.234	1	-2
557.404	1	3
557.573	1	11
557.743	1	6
557.913	1	2
558.083	1	2
558.253	1	5
558.423	1	1
558.593	1	8
558.763	1	-1
558.933	1	6
559.103	1	6
559.273	1	5
559.443	1	10
559.613	1	11
559.783	1	-4
559.953	1	2
560.122	1	7
560.292	1	2
560.462	1	3
560.632	1	-1
560.802	1	7
560.972	1	6
561.142	1	6
561.312	1	-6
561.482	1	5
561.652	1	10
561.822	1	-7
561.992	1	11
562.162	1	4
562.331	1	2
562.501	1	2
562.671	1	7
562.841	1	-6
563.011	1	11
563.181	1	2
563.351	1	-1
563.521	1	19
563.691	1	1
563.861	1	4
564.031	1	0
564.201	1	19
564.370	1	-6
564.540	1	1
564.710	1	-8
564.880	1	4
565.050	1	11
565.220	1	-9
565.390	1	10
565.560	1	0
565.730	1	-4
565.900	1	-1
566.069	1	6
566.239	1	9
566.409	1	1
566.579	1	4
566.749	1	3
566.919	1	5
567.089	1	12
567.259	1	7
567.429	1	9
567.599	1	3
567.768	1	1
567.938	1	4
568.108	1	0
568.278	1	3
568.448	1	-10
568.618	1	2
568.788	1	6
568.958	1	-7
569.128	1	6
569.297	1	-2
569.467	1	-1
569.637	1	13
569.807	1	3
569.977	1	13
570.147	1	8
570.317	1	-2
570.487	1	3
570.656	1	-1
570.826	1	-4
570.996	1	-1
571.166	1	6
571.336	1	6
571.506	1	12
571.676	1	11
571.846	1	1
572.015	1	0
572.185	1	0
572.355	1	-3
572.525	1	7
572.695	1	6
572.865	1	-5
573.035	1	6
573.205	1	7
573.374	1	-2
573.544	1	4
573.714	1	4
573.884	1	9
574.054	1	4
574.224	1	1
574.394	1	12
574.563	1	1
574.733	1	3
574.903	1	-1
575.073	1	-3
575.243	1	8
575.413	1	9
575.583	1	-6
575.752	1	10
575.922	1	-1
576.092	1	3
576.262	1	1
576.432	1	8
576.602	1	1
576.772	1	6
576.941	1	1
577.111	1	-11
577.281	1	-7
577.451	1	-6
577.621	1	3
577.791	1	6
577.960	1	0
578.130	1	4
578.300	1	9
578.470	1	7
578.640	1	12
578.810	1	3
578.979	1	7
579.149	1	-7
579.319	1	-5
579.489	1	0
579.659	1	-7
579.829	1	3
579.998	1	8
580.168	1	6
580.338	1	5
580.508	1	0
580.678	1	-5
580.848	1	3
581.017	1	0
581.187	1	-1
581.357	1	-8
581.527	1	0
581.697	1	1
581.867	1	3
582.036	1	-5
582.206	1	5
582.376	1	11
582.546	1	-1
582.716	1	-1
582.885	1	0
583.055	1	-1
583.225	1	-6
583.395	1	5
583.565	1	-4
583.735	1	4
583.904	1	4
584.074	1	2
584.244	1	15
584.414	1	4
584.584	1	13
584.753	1	3
584.923	1	7
585.093	1	-4
585.263	1	1
585.433	1	7
585.602	1	-4
585.772	1	-1
585.942	1	-6
586.112	1	17
586.282	1	-1
586.451	1	-8
586.621	1	0
586.791	1	7
586.961	1	-3
587.131	1	5
587.300	1	-3
587.470	1	9
587.640	1	7
587.810	1	-6
587.980	1	-1
588.149	1	4
588.319	1	6
588.489	1	-2
588.659	1	8
588.829	1	6
588.998	1	14
589.168	1	2
589.338	1	4
589.508	1	3
589.677	1	-12
589.847	1	-6
590.017	1	15
590.187	1	-11
590.357	1	11
590.526	1	14
590.696	1	14
590.866	1	3
591.036	1	-4
591.205	1	7
591.375	1	-12
591.545	1	5
591.715	1	6
591.885	1	-5
592.054	1	5
592.224	1	7
592.394	1	4
592.564	1	4
592.733	1	10
592.903	1	-5
593.073	1	-1
593.243	1	8
593.412	1	6
593.582	1	5
593.752	1	4
593.922	1	-7
594.091	1	-4
594.261	1	1
594.431	1	5
594.601	1	8
594.771	1	1
594.940	1	2
595.110	1	-4
595.280	1	4
595.450	1	1
595.619	1	6
595.789	1	6
595.959	1	9
596.129	1	-4
596.298	1	-10
596.468	1	1
596.638	1	8
596.808	1	4
596.977	1	8
597.147	1	5
597.317	1	-8
597.487	1	10
597.656	1	2
597.826	1	-3
597.996	1	2
598.166	1	-10
598.335	1	-9
598.505	1	0
598.675	1	-3
598.844	1	6
599.014	1	7
599.184	1	2
599.354	1	-5
599.523	1	9
599.693	1	4
599.863	1	9
600.033	1	-1
600.202	1	0
600.372	1	2
600.542	1	9
600.712	1	2
600.881	1	-2
601.051	1	13
601.221	1	10
601.390	1	-6
601.560	1	10
601.730	1	5
601.900	1	12
602.069	1	12
602.239	1	-2
602.409	1	2
602.578	1	6
602.748	1	7
602.918	1	0
603.088	1	11
603.257	1	12
603.427	1	-5
603.597	1	2
603.767	1	9
603.936	1	11
604.106	1	1
604.276	1	5
604.445	1	6
604.615	1	-2
604.785	1	-7
604.954	1	5
605.124	1	3
605.294	1	0
605.464	1	-1
605.633	1	9
605.803	1	13
605.973	1	-4
606.142	1	9
606.312	1	8
606.482	1	-1
606.652	1	2
606.821	1	0
606.991	1	-3
607.161	1	5
607.330	1	8
607.500	1	9
607.670	1	1
607.839	1	15
608.009	1	7
608.179	1	7
608.348	1	-2
608.518	1	-4
608.688	1	13
608.858	1	-5
609.027	1	-1
609.197	1	12
609.367	1	12
609.536	1	7
609.706	1	2
609.876	1	5
610.045	1	4
610.215	1	4
610.385	1	-2
610.554	1	12
610.724	1	11
610.894	1	3
611.063	1	1
611.233	1	-3
611.403	1	-5
611.572	1	-3
611.742	1	11
611.912	1	-3
612.081	1	6
612.251	1	6
612.421	1	-2
612.590	1	4
612.760	1	-3
612.930	1	1
613.099	1	1
613.269	1	19
613.439	1	-2
613.608	1	-1
613.778	1	5
613.948	1	5
614.117	1	7
614.287	1	11
614.457	1	10
614.626	1	6
614.796	1	14
614.966	1	-4
615.135	1	5
615.305	1	9
615.475	1	4
615.644	1	7
615.814	1	8
615.984	1	-5
616.153	1	-2
616.323	1	0
616.493	1	18
616.662	1	14
616.832	1	8
617.002	1	-8
617.171	1	0
617.341	1	2
617.511	1	-3
617.680	1	-11
617.850	1	7
618.019	1	18
618.189	1	15
618.359	1	6
618.528	1	3
618.698	1	7
618.868	1	-1
619.037	1	0
619.207	1	-9
619.377	1	-1
619.546	1	10
619.716	1	1
619.885	1	9
620.055	1	-11
620.225	1	7
620.394	1	4
620.564	1	11
620.734	1	9
620.903	1	-3
621.073	1	4
621.242	1	-2
621.412	1	5
621.582	1	1
621.751	1	7
621.921	1	3
622.091	1	0
622.260	1	9
622.430	1	13
622.599	1	8
622.769	1	8
622.939	1	7
623.108	1	5
623.278	1	3
623.448	1	2
623.617	1	-6
623.787	1	1
623.956	1	9
624.126	1	5
624.296	1	5
624.465	1	11
624.635	1	20
624.804	1	5
624.974	1	10
625.144	1	4
625.313	1	5
625.483	1	-2
625.652	1	11
625.822	1	7
625.992	1	-1
626.161	1	17
626.331	1	3
626.501	1	8
626.670	1	-3
626.840	1	-1
627.009	1	5
627.179	1	0
627.348	1	14
627.518	1	6
627.688	1	7
627.857	1	8
628.027	1	-1
628.196	1	11
628.366	1	10
628.536	1	-2
628.705	1	6
628.875	1	4
629.044	1	-5
629.214	1	8
629.384	1	9
629.553	1	20
629.723	1	-2
629.892	1	2
630.062	1	4
630.232	1	2
630.401	1	6
630.571	1	4
630.740	1	5
630.910	1	5
631.079	1	3
631.249	1	1
631.419	1	10
631.588	1	-3
631.758	1	7
631.927	1	2
632.097	1	13
632.266	1	5
632.436	1	5
632.606	1	-9
632.775	1	14
632.945	1	10
633.114	1	7
633.284	1	16
633.453	1	4
633.623	1	2
633.793	1	4
633.962	1	12
634.132	1	2
634.301	1	3
634.471	1	3
634.640	1	9
634.810	1	9
634.979	1	15
635.149	1	18
635.319	1	7
635.488	1	9
635.658	1	5
635.827	1	4
635.997	1	0
636.166	1	13
636.336	1	3
636.505	1	15
636.675	1	3
636.845	1	10
637.014	1	18
637.184	1	7
637.353	1	8
637.523	1	16
637.692	1	10
637.862	1	4
638.031	1	9
638.201	1	14
638.370	1	5
638.540	1	4
638.710	1	-3
638.879	1	-6
639.049	1	2
639.218	1	-1
639.388	1	0
639.557	1	9
639.727	1	8
639.896	1	12
640.066	1	7
640.235	1	8
640.405	1	7
640.574	1	-1
640.744	1	0
640.914	1	6
641.083	1	0
641.253	1	5
641.422	1	7
641.592	1	13
641.761	1	7
641.931	1	-2
642.100	1	13
642.270	1	2
642.439	1	15
642.609	1	21
642.778	1	0
642.948	1	-7
643.117	1	14
643.287	1	4
643.456	1	-3
643.626	1	14
643.795	1	2
643.965	1	7
644.134	1	0
644.304	1	8
644.473	1	14
644.643	1	13
644.812	1	6
644.982	1	7
645.151	1	8
645.321	1	2
645.490	1	14
645.660	1	-2
645.829	1	-1
645.999	1	7
646.168	1	10
646.338	1	11
646.507	1	3
646.677	1	6
646.846	1	0
647.016	1	-5
647.185	1	7
647.355	1	-13
647.524	1	6
647.694	1	19
647.863	1	16
648.033	1	4
648.202	1	10
648.372	1	2
648.541	1	0
648.711	1	2
648.880	1	-1
649.050	1	-5
649.219	1	2
649.389	1	9
649.558	1	8
649.728	1	4
649.897	1	-3
650.067	1	4
650.236	1	6
650.406	1	4
650.575	1	15
650.745	1	11
650.914	1	5
651.084	1	-2
651.253	1	-1
651.423	1	5
651.592	1	-6
651.762	1	0
651.931	1	9
652.101	1	3
652.270	1	8
652.440	1	10
652.609	1	-1
652.778	1	-2
652.948	1	12
653.117	1	9
653.287	1	9
653.456	1	12
653.626	1	7
653.795	1	3
653.965	1	5
654.134	1	12
654.304	1	-18
654.473	1	9
654.643	1	3
654.812	1	3
654.982	1	11
655.151	1	4
655.320	1	12
655.490	1	1
655.659	1	2
655.829	1	3
655.998	1	-1
656.168	1	11
656.337	1	8
656.507	1	6
656.676	1	11
656.846	1	15
657.015	1	11
657.184	1	7
657.354	1	10
657.523	1	9
657.693	1	11
657.862	1	7
658.032	1	-3
658.201	1	11
658.371	1	18
658.540	1	1
658.709	1	-2
658.879	1	8
659.048	1	13
659.218	1	11
659.387	1	8
659.557	1	15
659.726	1	11
659.895	1	6
660.065	1	0
660.234	1	3
660.404	1	8
660.573	1	5
660.743	1	14
660.912	1	12
661.081	1	13
661.251	1	1
661.420	1	14
661.590	1	1
661.759	1	7
661.929	1	15
662.098	1	16
662.267	1	5
662.437	1	12
662.606	1	9
662.776	1	10
662.945	1	6
663.115	1	5
663.284	1	2
663.453	1	7
663.623	1	12
663.792	1	15
663.962	1	0
664.131	1	13
664.300	1	6
664.470	1	0
664.639	1	12
664.809	1	14
664.978	1	16
665.148	1	12
665.317	1	-4
665.486	1	19
665.656	1	8
665.825	1	6
665.995	1	1
666.164	1	11
666.333	1	11
666.503	1	0
666.672	1	-3
666.842	1	0
667.011	1	5
667.180	1	16
667.350	1	7
667.519	1	6
667.689	1	14
667.858	1	5
668.027	1	12
668.197	1	-3
668.366	1	3
668.536	1	4
668.705	1	7
668.874	1	4
669.044	1	7
669.213	1	11
669.382	1	4
669.552	1	20
669.721	1	12
669.891	1	22
670.060	1	6
670.229	1	24
670.399	1	3
670.568	1	14
670.738	1	14
670.907	1	-2
671.076	1	2
671.246	1	10
671.415	1	1
671.584	1	0
671.754	1	1
671.923	1	4
672.093	1	8
672.262	1	2
672.431	1	3
672.601	1	0
672.770	1	-3
672.939	1	17
673.109	1	4
673.278	1	8
673.448	1	12
673.617	1	11
673.786	1	12
