325.333	1	28
325.504	1	25
325.675	1	26
325.846	1	34
326.017	1	15
326.188	1	28
326.359	1	22
326.531	1	18
326.702	1	28
326.873	1	37
327.044	1	31
327.215	1	27
327.386	1	24
327.557	1	27
327.728	1	26
327.899	1	20
328.070	1	43
328.241	1	35
328.412	1	17
328.583	1	24
328.754	1	33
328.926	1	39
329.097	1	16
329.268	1	49
329.439	1	22
329.610	1	21
329.781	1	25
329.952	1	42
330.123	1	26
330.294	1	30
330.465	1	33
330.636	1	31
330.807	1	27
330.978	1	25
331.149	1	28
331.320	1	37
331.492	1	39
331.663	1	40
331.834	1	46
332.005	1	42
332.176	1	45
332.347	1	44
332.518	1	15
332.689	1	44
332.860	1	32
333.031	1	35
333.202	1	35
333.373	1	40
333.544	1	33
333.715	1	49
333.886	1	37
334.057	1	43
334.228	1	37
334.399	1	49
334.570	1	47
334.741	1	35
334.912	1	49
335.084	1	55
335.255	1	39
335.426	1	36
335.597	1	47
335.768	1	44
335.939	1	57
336.110	1	44
336.281	1	39
336.452	1	38
336.623	1	50
336.794	1	47
336.965	1	49
337.136	1	55
337.307	1	42
337.478	1	35
337.649	1	42
337.820	1	47
337.991	1	41
338.162	1	40
338.333	1	51
338.504	1	46
338.675	1	52
338.846	1	53
339.017	1	58
339.188	1	44
339.359	1	32
339.530	1	43
339.701	1	50
339.872	1	59
340.043	1	39
340.214	1	51
340.385	1	58
340.556	1	42
340.727	1	57
340.898	1	63
341.069	1	46
341.240	1	46
341.411	1	51
341.582	1	56
341.753	1	46
341.924	1	47
342.095	1	52
342.266	1	62
342.437	1	58
342.608	1	50
342.779	1	66
342.950	1	62
343.121	1	66
343.292	1	57
343.463	1	61
343.634	1	55
343.805	1	54
343.976	1	66
344.147	1	58
344.318	1	63
344.489	1	54
344.660	1	66
344.831	1	70
345.002	1	58
345.173	1	70
345.344	1	71
345.515	1	71
345.686	1	62
345.857	1	66
346.028	1	72
346.199	1	62
346.370	1	64
346.541	1	69
346.712	1	71
346.883	1	67
347.054	1	61
347.225	1	67
347.396	1	64
347.567	1	60
347.738	1	60
347.909	1	74
348.080	1	67
348.251	1	85
348.422	1	76
348.593	1	61
348.764	1	74
348.935	1	65
349.106	1	75
349.277	1	68
349.448	1	84
349.619	1	65
349.790	1	78
349.961	1	77
350.132	1	77
350.303	1	83
350.474	1	91
350.645	1	81
350.816	1	86
350.987	1	80
351.157	1	74
351.328	1	90
351.499	1	84
351.670	1	77
351.841	1	79
352.012	1	89
352.183	1	93
352.354	1	95
352.525	1	97
352.696	1	91
352.867	1	72
353.038	1	92
353.209	1	89
353.380	1	84
353.551	1	76
353.722	1	86
353.893	1	82
354.064	1	94
354.235	1	77
354.406	1	74
354.576	1	76
354.747	1	82
354.918	1	85
355.089	1	75
355.260	1	86
355.431	1	93
355.602	1	80
355.773	1	90
355.944	1	86
356.115	1	89
356.286	1	87
356.457	1	92
356.628	1	87
356.799	1	93
356.970	1	96
357.141	1	88
357.311	1	88
357.482	1	80
357.653	1	89
357.824	1	104
357.995	1	104
358.166	1	92
358.337	1	97
358.508	1	98
358.679	1	92
358.850	1	105
359.021	1	102
359.192	1	107
359.363	1	97
359.533	1	93
359.704	1	103
359.875	1	96
360.046	1	112
360.217	1	90
360.388	1	99
360.559	1	104
360.730	1	99
360.901	1	98
361.072	1	107
361.243	1	98
361.414	1	104
361.584	1	96
361.755	1	104
361.926	1	91
362.097	1	88
362.268	1	104
362.439	1	100
362.610	1	109
362.781	1	97
362.952	1	91
363.123	1	99
363.293	1	93
363.464	1	125
363.635	1	105
363.806	1	98
363.977	1	104
364.148	1	94
364.319	1	111
364.490	1	99
364.661	1	103
364.832	1	106
365.002	1	101
365.173	1	111
365.344	1	96
365.515	1	99
365.686	1	93
365.857	1	111
366.028	1	115
366.199	1	95
366.370	1	107
366.540	1	94
366.711	1	91
366.882	1	90
367.053	1	99
367.224	1	113
367.395	1	111
367.566	1	119
367.737	1	126
367.908	1	113
368.078	1	114
368.249	1	112
368.420	1	105
368.591	1	94
368.762	1	107
368.933	1	118
369.104	1	102
369.274	1	118
369.445	1	105
369.616	1	114
369.787	1	109
369.958	1	113
370.129	1	109
370.300	1	115
370.471	1	113
370.641	1	124
370.812	1	118
370.983	1	116
371.154	1	102
371.325	1	109
371.496	1	114
371.667	1	113
371.837	1	107
372.008	1	110
372.179	1	102
372.350	1	112
372.521	1	106
372.692	1	102
372.863	1	113
373.033	1	107
373.204	1	109
373.375	1	111
373.546	1	121
373.717	1	118
373.888	1	135
374.059	1	125
374.229	1	129
374.400	1	108
374.571	1	114
374.742	1	118
374.913	1	117
375.084	1	101
375.254	1	125
375.425	1	116
375.596	1	125
375.767	1	126
375.938	1	134
376.109	1	117
376.279	1	120
376.450	1	114
376.621	1	121
376.792	1	119
376.963	1	118
377.134	1	126
377.304	1	116
377.475	1	117
377.646	1	114
377.817	1	117
377.988	1	121
378.159	1	114
378.329	1	133
378.500	1	124
378.671	1	134
378.842	1	132
379.013	1	115
379.184	1	115
379.354	1	137
379.525	1	115
379.696	1	133
379.867	1	127
380.038	1	121
380.209	1	127
380.379	1	123
380.550	1	122
380.721	1	143
380.892	1	133
381.063	1	137
381.233	1	140
381.404	1	112
381.575	1	133
381.746	1	133
381.917	1	136
382.087	1	143
382.258	1	126
382.429	1	138
382.600	1	139
382.771	1	139
382.941	1	127
383.112	1	134
383.283	1	129
383.454	1	134
383.625	1	126
383.795	1	142
383.966	1	144
384.137	1	157
384.308	1	144
384.479	1	145
384.649	1	140
384.820	1	126
384.991	1	131
385.162	1	132
385.333	1	137
385.503	1	141
385.674	1	140
385.845	1	150
386.016	1	144
386.187	1	137
386.357	1	137
386.528	1	155
386.699	1	154
386.870	1	153
387.041	1	149
387.211	1	141
387.382	1	150
387.553	1	159
387.724	1	139
387.894	1	158
388.065	1	144
388.236	1	142
388.407	1	165
388.578	1	140
388.748	1	151
388.919	1	171
389.090	1	148
389.261	1	140
389.431	1	173
389.602	1	155
389.773	1	164
389.944	1	159
390.114	1	140
390.285	1	146
390.456	1	152
390.627	1	149
390.798	1	171
390.968	1	148
391.139	1	164
391.310	1	160
391.481	1	144
391.651	1	172
391.822	1	146
391.993	1	142
392.164	1	139
392.334	1	149
392.505	1	134
392.676	1	146
392.847	1	148
393.017	1	156
393.188	1	157
393.359	1	149
393.530	1	156
393.700	1	154
393.871	1	133
394.042	1	142
394.213	1	152
394.383	1	162
394.554	1	143
394.725	1	161
394.896	1	149
395.066	1	162
395.237	1	148
395.408	1	166
395.579	1	165
395.749	1	172
395.920	1	158
396.091	1	166
396.262	1	164
396.432	1	157
396.603	1	170
396.774	1	170
396.945	1	163
397.115	1	172
397.286	1	172
397.457	1	172
397.627	1	167
397.798	1	169
397.969	1	151
398.140	1	164
398.310	1	169
398.481	1	150
398.652	1	164
398.823	1	154
398.993	1	155
399.164	1	176
399.335	1	179
399.505	1	171
399.676	1	162
399.847	1	162
400.018	1	166
400.188	1	161
400.359	1	162
400.530	1	158
400.700	1	158
400.871	1	172
401.042	1	160
401.213	1	176
401.383	1	162
401.554	1	167
401.725	1	161
401.895	1	167
402.066	1	168
402.237	1	170
402.408	1	172
402.578	1	167
402.749	1	171
402.920	1	163
403.090	1	173
403.261	1	159
403.432	1	162
403.603	1	164
403.773	1	186
403.944	1	174
404.115	1	187
404.285	1	162
404.456	1	154
404.627	1	157
404.797	1	160
404.968	1	163
405.139	1	157
405.310	1	183
405.480	1	181
405.651	1	179
405.822	1	175
405.992	1	165
406.163	1	179
406.334	1	177
406.504	1	176
406.675	1	161
406.846	1	172
407.016	1	172
407.187	1	170
407.358	1	174
407.528	1	182
407.699	1	170
407.870	1	180
408.041	1	159
408.211	1	180
408.382	1	165
408.553	1	179
408.723	1	177
408.894	1	160
409.065	1	180
409.235	1	179
409.406	1	195
409.577	1	175
409.747	1	192
409.918	1	173
410.089	1	189
410.259	1	170
410.430	1	181
410.601	1	166
410.771	1	175
410.942	1	181
411.113	1	179
411.283	1	184
411.454	1	170
411.625	1	178
411.795	1	182
411.966	1	181
412.137	1	184
412.307	1	163
412.478	1	163
412.649	1	180
412.819	1	158
412.990	1	172
413.161	1	173
413.331	1	180
413.502	1	172
413.672	1	165
413.843	1	155
414.014	1	177
414.184	1	169
414.355	1	157
414.526	1	188
414.696	1	194
414.867	1	168
415.038	1	156
415.208	1	168
415.379	1	175
415.550	1	177
415.720	1	173
415.891	1	169
416.062	1	174
416.232	1	178
416.403	1	161
416.573	1	170
416.744	1	151
416.915	1	176
417.085	1	159
417.256	1	173
417.427	1	174
417.597	1	188
417.768	1	170
417.939	1	181
418.109	1	165
418.280	1	179
418.450	1	174
418.621	1	162
418.792	1	181
418.962	1	169
419.133	1	185
419.304	1	155
419.474	1	155
419.645	1	170
419.815	1	173
419.986	1	161
420.157	1	165
420.327	1	171
420.498	1	172
420.669	1	174
420.839	1	172
421.010	1	167
421.180	1	156
421.351	1	164
421.522	1	173
421.692	1	153
421.863	1	170
422.033	1	175
422.204	1	168
422.375	1	155
422.545	1	174
422.716	1	156
422.886	1	148
423.057	1	160
423.228	1	163
423.398	1	154
423.569	1	169
423.740	1	149
423.910	1	150
424.081	1	161
424.251	1	152
424.422	1	173
424.593	1	142
424.763	1	156
424.934	1	164
425.104	1	164
425.275	1	146
425.445	1	142
425.616	1	164
425.787	1	156
425.957	1	156
426.128	1	161
426.298	1	147
426.469	1	145
426.640	1	144
426.810	1	165
426.981	1	153
427.151	1	149
427.322	1	159
427.493	1	151
427.663	1	143
427.834	1	143
428.004	1	160
428.175	1	151
428.345	1	143
428.516	1	139
428.687	1	146
428.857	1	139
429.028	1	149
429.198	1	149
429.369	1	149
429.540	1	135
429.710	1	145
429.881	1	160
430.051	1	160
430.222	1	151
430.392	1	138
430.563	1	154
430.734	1	150
430.904	1	148
431.075	1	152
431.245	1	154
431.416	1	158
431.586	1	146
431.757	1	154
431.927	1	163
432.098	1	147
432.269	1	150
432.439	1	141
432.610	1	148
432.780	1	149
432.951	1	148
433.121	1	156
433.292	1	160
433.462	1	160
433.633	1	135
433.804	1	140
433.974	1	135
434.145	1	160
434.315	1	133
434.486	1	138
434.656	1	142
434.827	1	142
434.997	1	144
435.168	1	150
435.339	1	155
435.509	1	151
435.680	1	142
435.850	1	154
436.021	1	153
436.191	1	149
436.362	1	143
436.532	1	152
436.703	1	144
436.873	1	135
437.044	1	132
437.214	1	141
437.385	1	131
437.556	1	139
437.726	1	149
437.897	1	145
438.067	1	146
438.238	1	133
438.408	1	143
438.579	1	127
438.749	1	129
438.920	1	129
439.090	1	138
439.261	1	128
439.431	1	138
439.602	1	131
439.772	1	128
439.943	1	137
440.113	1	139
440.284	1	130
440.455	1	133
440.625	1	130
440.796	1	129
440.966	1	118
441.137	1	132
441.307	1	138
441.478	1	140
441.648	1	131
441.819	1	126
441.989	1	134
442.160	1	135
442.330	1	134
442.501	1	134
442.671	1	126
442.842	1	117
443.012	1	119
443.183	1	136
443.353	1	125
443.524	1	122
443.694	1	132
443.865	1	119
444.035	1	126
444.206	1	117
444.376	1	124
444.547	1	130
444.717	1	131
444.888	1	127
445.058	1	131
445.229	1	124
445.399	1	115
445.570	1	123
445.740	1	126
445.911	1	120
446.081	1	118
446.252	1	125
446.422	1	126
446.593	1	107
446.763	1	119
446.934	1	127
447.104	1	127
447.275	1	115
447.445	1	120
447.616	1	132
447.786	1	119
447.957	1	136
448.127	1	125
448.298	1	123
448.468	1	124
448.639	1	126
448.809	1	131
448.979	1	117
449.150	1	118
449.320	1	121
449.491	1	128
449.661	1	116
449.832	1	121
450.002	1	126
450.173	1	108
450.343	1	109
450.514	1	111
450.684	1	113
450.855	1	115
451.025	1	129
451.196	1	117
451.366	1	120
451.537	1	117
451.707	1	101
451.878	1	103
452.048	1	128
452.218	1	125
452.389	1	114
452.559	1	110
452.730	1	120
452.900	1	119
453.071	1	105
453.241	1	114
453.412	1	108
453.582	1	97
453.753	1	117
453.923	1	108
454.093	1	115
454.264	1	115
454.434	1	111
454.605	1	103
454.775	1	100
454.946	1	112
455.116	1	107
455.287	1	83
455.457	1	105
455.628	1	109
455.798	1	115
455.968	1	115
456.139	1	101
456.309	1	102
456.480	1	95
456.650	1	102
456.821	1	96
456.991	1	106
457.161	1	95
457.332	1	107
457.502	1	95
457.673	1	103
457.843	1	107
458.014	1	96
458.184	1	103
458.355	1	102
458.525	1	101
458.695	1	115
458.866	1	100
459.036	1	106
459.207	1	99
459.377	1	95
459.548	1	101
459.718	1	87
459.888	1	95
460.059	1	106
460.229	1	95
460.400	1	97
460.570	1	110
460.740	1	104
460.911	1	99
461.081	1	100
461.252	1	92
461.422	1	100
461.593	1	97
461.763	1	95
461.933	1	106
462.104	1	97
462.274	1	91
462.445	1	91
462.615	1	89
462.785	1	92
462.956	1	86
463.126	1	114
463.297	1	86
463.467	1	96
463.638	1	96
463.808	1	89
463.978	1	102
464.149	1	85
464.319	1	96
464.490	1	101
464.660	1	93
464.830	1	93
465.001	1	87
465.171	1	97
465.342	1	94
465.512	1	92
465.682	1	87
465.853	1	84
466.023	1	96
466.194	1	81
466.364	1	86
466.534	1	89
466.705	1	88
466.875	1	82
467.045	1	83
467.216	1	90
467.386	1	82
467.557	1	79
467.727	1	75
467.897	1	85
468.068	1	82
468.238	1	92
468.409	1	84
468.579	1	90
468.749	1	82
468.920	1	71
469.090	1	81
469.260	1	80
469.431	1	75
469.601	1	85
469.772	1	81
469.942	1	85
470.112	1	87
470.283	1	86
470.453	1	86
470.623	1	86
470.794	1	70
470.964	1	82
471.135	1	89
471.305	1	62
471.475	1	94
471.646	1	76
471.816	1	83
471.986	1	75
472.157	1	95
472.327	1	72
472.497	1	81
472.668	1	69
472.838	1	77
473.009	1	92
473.179	1	67
473.349	1	77
473.520	1	91
473.690	1	67
473.860	1	80
474.031	1	72
474.201	1	76
474.371	1	79
474.542	1	79
474.712	1	81
474.882	1	84
475.053	1	84
475.223	1	69
475.394	1	83
475.564	1	71
475.734	1	78
475.905	1	90
476.075	1	70
476.245	1	80
476.416	1	88
476.586	1	84
476.756	1	75
476.927	1	77
477.097	1	76
477.267	1	71
477.438	1	73
477.608	1	86
477.778	1	82
477.949	1	86
478.119	1	74
478.289	1	84
478.460	1	84
478.630	1	69
478.800	1	76
478.971	1	67
479.141	1	66
479.311	1	60
479.482	1	71
479.652	1	71
479.822	1	72
479.993	1	75
480.163	1	78
480.333	1	78
480.504	1	82
480.674	1	73
480.844	1	59
481.015	1	68
481.185	1	69
481.355	1	77
481.525	1	65
481.696	1	71
481.866	1	73
482.036	1	73
482.207	1	64
482.377	1	70
482.547	1	70
482.718	1	74
482.888	1	66
483.058	1	60
483.229	1	73
483.399	1	64
483.569	1	63
483.740	1	73
483.910	1	69
484.080	1	64
484.250	1	67
484.421	1	52
484.591	1	70
484.761	1	82
484.932	1	65
485.102	1	67
485.272	1	70
485.443	1	72
485.613	1	63
485.783	1	58
485.953	1	68
486.124	1	69
486.294	1	63
486.464	1	59
486.635	1	63
486.805	1	65
486.975	1	55
487.146	1	61
487.316	1	66
487.486	1	56
487.656	1	57
487.827	1	60
487.997	1	62
488.167	1	40
488.338	1	63
488.508	1	57
488.678	1	53
488.848	1	65
489.019	1	54
489.189	1	56
489.359	1	54
489.529	1	56
489.700	1	59
489.870	1	60
490.040	1	46
490.211	1	49
490.381	1	59
490.551	1	63
490.721	1	63
490.892	1	50
491.062	1	58
491.232	1	48
491.402	1	55
491.573	1	38
491.743	1	51
491.913	1	45
492.084	1	61
492.254	1	49
492.424	1	64
492.594	1	49
492.765	1	57
492.935	1	50
493.105	1	61
493.275	1	55
493.446	1	77
493.616	1	58
493.786	1	48
493.956	1	47
494.127	1	49
494.297	1	53
494.467	1	49
494.637	1	60
494.808	1	42
494.978	1	49
495.148	1	52
495.318	1	48
495.489	1	50
495.659	1	51
495.829	1	56
495.999	1	46
496.170	1	52
496.340	1	60
496.510	1	59
496.680	1	54
496.851	1	44
497.021	1	53
497.191	1	44
497.361	1	48
497.532	1	40
497.702	1	40
497.872	1	46
498.042	1	48
498.213	1	50
498.383	1	47
498.553	1	50
498.723	1	42
498.894	1	56
499.064	1	44
499.234	1	44
499.404	1	39
499.574	1	55
499.745	1	51
499.915	1	44
500.085	1	53
500.255	1	64
500.426	1	41
500.596	1	47
500.766	1	48
500.936	1	47
501.106	1	32
501.277	1	38
501.447	1	50
501.617	1	56
501.787	1	40
501.958	1	39
502.128	1	43
502.298	1	47
502.468	1	41
502.638	1	53
502.809	1	43
502.979	1	32
503.149	1	43
503.319	1	33
503.489	1	50
503.660	1	45
503.830	1	45
504.000	1	44
504.170	1	41
504.340	1	35
504.511	1	51
504.681	1	42
504.851	1	58
505.021	1	52
505.192	1	33
505.362	1	51
505.532	1	36
505.702	1	49
505.872	1	41
506.043	1	45
506.213	1	49
506.383	1	41
506.553	1	56
506.723	1	42
506.893	1	37
507.064	1	45
507.234	1	37
507.404	1	38
507.574	1	37
507.744	1	35
507.915	1	41
508.085	1	51
508.255	1	41
508.425	1	37
508.595	1	51
508.766	1	48
508.936	1	24
509.106	1	52
509.276	1	45
509.446	1	38
509.616	1	44
509.787	1	34
509.957	1	36
510.127	1	44
510.297	1	45
510.467	1	21
510.638	1	38
510.808	1	32
510.978	1	27
511.148	1	42
511.318	1	47
511.488	1	33
511.659	1	37
511.829	1	37
511.999	1	38
512.169	1	38
512.339	1	41
512.509	1	39
512.680	1	42
512.850	1	40
513.020	1	30
513.190	1	42
513.360	1	43
513.530	1	30
513.700	1	46
513.871	1	33
514.041	1	33
514.211	1	43
514.381	1	36
514.551	1	29
514.721	1	35
514.892	1	42
515.062	1	32
515.232	1	45
515.402	1	32
515.572	1	30
515.742	1	35
515.912	1	48
516.083	1	34
516.253	1	37
516.423	1	31
516.593	1	41
516.763	1	43
516.933	1	36
517.104	1	33
517.274	1	42
517.444	1	37
517.614	1	29
517.784	1	20
517.954	1	35
518.124	1	29
518.294	1	22
518.465	1	30
518.635	1	25
518.805	1	25
518.975	1	43
519.145	1	22
519.315	1	43
519.485	1	30
519.656	1	36
519.826	1	30
519.996	1	33
520.166	1	33
520.336	1	38
520.506	1	31
520.676	1	24
520.846	1	50
521.017	1	31
521.187	1	34
521.357	1	39
521.527	1	31
521.697	1	38
521.867	1	25
522.037	1	41
522.207	1	37
522.377	1	28
522.548	1	32
522.718	1	38
522.888	1	37
523.058	1	27
523.228	1	33
523.398	1	34
523.568	1	29
523.738	1	23
523.909	1	42
524.079	1	29
524.249	1	33
524.419	1	26
524.589	1	18
524.759	1	28
524.929	1	16
525.099	1	30
525.269	1	31
525.439	1	19
525.610	1	45
525.780	1	18
525.950	1	28
526.120	1	27
526.290	1	27
526.460	1	14
526.630	1	46
526.800	1	16
526.970	1	25
527.140	1	27
527.311	1	17
527.481	1	14
527.651	1	30
527.821	1	23
527.991	1	42
528.161	1	28
528.331	1	17
528.501	1	23
528.671	1	19
528.841	1	17
529.011	1	23
529.181	1	21
529.352	1	18
529.522	1	24
529.692	1	33
529.862	1	21
530.032	1	26
530.202	1	24
530.372	1	26
530.542	1	30
530.712	1	30
530.882	1	29
531.052	1	23
531.222	1	24
531.392	1	33
531.563	1	30
531.733	1	23
531.903	1	32
532.073	1	28
532.243	1	16
532.413	1	25
532.583	1	22
532.753	1	30
532.923	1	16
533.093	1	23
533.263	1	26
533.433	1	20
533.603	1	17
533.773	1	24
533.943	1	23
534.113	1	33
534.284	1	22
534.454	1	33
534.624	1	31
534.794	1	18
534.964	1	26
535.134	1	24
535.304	1	21
535.474	1	32
535.644	1	20
535.814	1	16
535.984	1	8
536.154	1	13
536.324	1	22
536.494	1	28
536.664	1	26
536.834	1	19
537.004	1	18
537.174	1	13
537.344	1	22
537.514	1	19
537.685	1	21
537.855	1	25
538.025	1	13
538.195	1	18
538.365	1	21
538.535	1	16
538.705	1	18
538.875	1	25
539.045	1	30
539.215	1	23
539.385	1	26
539.555	1	20
539.725	1	16
539.895	1	24
540.065	1	29
540.235	1	22
540.405	1	13
540.575	1	16
540.745	1	16
540.915	1	20
541.085	1	20
541.255	1	16
541.425	1	23
541.595	1	19
541.765	1	17
541.935	1	9
542.105	1	6
542.275	1	26
542.445	1	16
542.615	1	16
542.785	1	27
542.955	1	19
543.125	1	18
543.295	1	25
543.465	1	24
543.635	1	21
543.805	1	30
543.975	1	9
544.145	1	17
544.315	1	22
544.485	1	24
544.655	1	14
544.825	1	10
544.995	1	16
545.165	1	17
545.335	1	18
545.505	1	9
545.675	1	16
545.845	1	22
546.015	1	28
546.185	1	20
546.355	1	20
546.525	1	18
546.695	1	26
546.865	1	9
547.035	1	23
547.205	1	4
547.375	1	26
547.545	1	25
547.715	1	14
547.885	1	20
548.055	1	13
548.225	1	18
548.395	1	13
548.565	1	20
548.735	1	15
548.905	1	11
549.075	1	24
549.245	1	9
549.415	1	8
549.585	1	25
549.755	1	16
549.925	1	13
550.095	1	19
550.265	1	13
550.435	1	6
550.605	1	12
550.775	1	21
550.945	1	21
551.115	1	17
551.285	1	17
551.455	1	8
551.625	1	17
551.795	1	21
551.965	1	16
552.135	1	12
552.305	1	11
552.475	1	13
552.645	1	17
552.815	1	16
552.985	1	20
553.155	1	20
553.325	1	24
553.495	1	11
553.665	1	18
553.835	1	7
554.004	1	13
554.174	1	10
554.344	1	27
554.514	1	8
554.684	1	23
554.854	1	18
555.024	1	11
555.194	1	8
555.364	1	16
555.534	1	14
555.704	1	14
555.874	1	19
556.044	1	18
556.214	1	17
556.384	1	16
556.554	1	26
556.724	1	23
556.894	1	11
557.064	1	17
557.234	1	11
557.404	1	13
557.573	1	19
557.743	1	14
557.913	1	11
558.083	1	13
558.253	1	15
558.423	1	14
558.593	1	15
558.763	1	15
558.933	1	16
559.103	1	22
559.273	1	15
559.443	1	22
559.613	1	21
559.783	1	16
559.953	1	12
560.122	1	13
560.292	1	13
560.462	1	14
560.632	1	22
560.802	1	17
560.972	1	16
561.142	1	14
561.312	1	4
561.482	1	22
561.652	1	10
561.822	1	8
561.992	1	5
562.162	1	20
562.331	1	9
562.501	1	21
562.671	1	19
562.841	1	7
563.011	1	7
563.181	1	13
563.351	1	9
563.521	1	15
563.691	1	5
563.861	1	10
564.031	1	16
564.201	1	25
564.370	1	8
564.540	1	14
564.710	1	4
564.880	1	23
565.050	1	11
565.220	1	12
565.390	1	20
565.560	1	28
565.730	1	0
565.900	1	14
566.069	1	22
566.239	1	17
566.409	1	15
566.579	1	19
566.749	1	5
566.919	1	20
567.089	1	12
567.259	1	26
567.429	1	14
567.599	1	16
567.768	1	17
567.938	1	21
568.108	1	23
568.278	1	6
568.448	1	15
568.618	1	9
568.788	1	11
568.958	1	4
569.128	1	14
569.297	1	9
569.467	1	10
569.637	1	17
569.807	1	2
569.977	1	12
570.147	1	19
570.317	1	5
570.487	1	8
570.656	1	18
570.826	1	7
570.996	1	5
571.166	1	23
571.336	1	10
571.506	1	26
571.676	1	14
571.846	1	16
572.015	1	9
572.185	1	17
572.355	1	14
572.525	1	18
572.695	1	9
572.865	1	4
573.035	1	5
573.205	1	12
573.374	1	8
573.544	1	8
573.714	1	20
573.884	1	21
574.054	1	14
574.224	1	8
574.394	1	11
574.563	1	-1
574.733	1	10
574.903	1	7
575.073	1	12
575.243	1	7
575.413	1	17
575.583	1	11
575.752	1	16
575.922	1	11
576.092	1	16
576.262	1	10
576.432	1	16
576.602	1	13
576.772	1	17
576.941	1	16
577.111	1	11
577.281	1	3
577.451	1	14
577.621	1	14
577.791	1	22
577.960	1	2
578.130	1	12
578.300	1	0
578.470	1	21
578.640	1	2
578.810	1	13
578.979	1	4
579.149	1	8
579.319	1	4
579.489	1	10
579.659	1	8
579.829	1	17
579.998	1	13
580.168	1	18
580.338	1	6
580.508	1	18
580.678	1	12
580.848	1	13
581.017	1	14
581.187	1	11
581.357	1	1
581.527	1	24
581.697	1	16
581.867	1	8
582.036	1	7
582.206	1	18
582.376	1	21
582.546	1	6
582.716	1	-2
582.885	1	18
583.055	1	7
583.225	1	5
583.395	1	17
583.565	1	2
583.735	1	12
583.904	1	8
584.074	1	12
584.244	1	10
584.414	1	13
584.584	1	12
584.753	1	3
584.923	1	15
585.093	1	18
585.263	1	7
585.433	1	14
585.602	1	3
585.772	1	6
585.942	1	11
586.112	1	6
586.282	1	11
586.451	1	-5
586.621	1	9
586.791	1	15
586.961	1	14
587.131	1	27
587.300	1	5
587.470	1	20
587.640	1	8
587.810	1	14
587.980	1	9
588.149	1	14
588.319	1	19
588.489	1	8
588.659	1	7
588.829	1	8
588.998	1	22
589.168	1	14
589.338	1	12
589.508	1	19
589.677	1	0
589.847	1	14
590.017	1	25
590.187	1	5
590.357	1	22
590.526	1	17
590.696	1	16
590.866	1	10
591.036	1	14
591.205	1	23
591.375	1	0
591.545	1	5
591.715	1	15
591.885	1	8
592.054	1	8
592.224	1	12
592.394	1	17
592.564	1	2
592.733	1	6
592.903	1	5
593.073	1	11
593.243	1	9
593.412	1	16
593.582	1	13
593.752	1	8
593.922	1	8
594.091	1	11
594.261	1	14
594.431	1	14
594.601	1	8
594.771	1	14
594.940	1	12
595.110	1	7
595.280	1	13
595.450	1	4
595.619	1	12
595.789	1	8
595.959	1	15
596.129	1	8
596.298	1	12
596.468	1	12
596.638	1	17
596.808	1	16
596.977	1	8
597.147	1	18
597.317	1	4
597.487	1	18
597.656	1	17
597.826	1	9
597.996	1	14
598.166	1	11
598.335	1	11
598.505	1	7
598.675	1	6
598.844	1	12
599.014	1	7
599.184	1	12
599.354	1	-1
599.523	1	14
599.693	1	18
599.863	1	21
600.033	1	13
600.202	1	8
600.372	1	13
600.542	1	21
600.712	1	9
600.881	1	11
601.051	1	29
601.221	1	16
601.390	1	12
601.560	1	13
601.730	1	9
601.900	1	12
602.069	1	16
602.239	1	7
602.409	1	5
602.578	1	10
602.748	1	14
602.918	1	16
603.088	1	15
603.257	1	15
603.427	1	5
603.597	1	12
603.767	1	7
603.936	1	19
604.106	1	16
604.276	1	17
604.445	1	27
604.615	1	12
604.785	1	5
604.954	1	4
605.124	1	16
605.294	1	6
605.464	1	8
605.633	1	20
605.803	1	17
605.973	1	9
606.142	1	19
606.312	1	16
606.482	1	6
606.652	1	19
606.821	1	14
606.991	1	16
607.161	1	14
607.330	1	20
607.500	1	12
607.670	1	10
607.839	1	22
608.009	1	20
608.179	1	10
608.348	1	17
608.518	1	11
608.688	1	28
608.858	1	10
609.027	1	6
609.197	1	12
609.367	1	19
609.536	1	14
609.706	1	16
609.876	1	11
610.045	1	13
610.215	1	19
610.385	1	5
610.554	1	24
610.724	1	15
610.894	1	22
611.063	1	22
611.233	1	5
611.403	1	19
611.572	1	7
611.742	1	24
611.912	1	8
612.081	1	11
612.251	1	20
612.421	1	23
612.590	1	15
612.760	1	14
612.930	1	11
613.099	1	25
613.269	1	19
613.439	1	11
613.608	1	8
613.778	1	16
613.948	1	12
614.117	1	15
614.287	1	17
614.457	1	20
614.626	1	22
614.796	1	17
614.966	1	9
615.135	1	11
615.305	1	18
615.475	1	16
615.644	1	13
615.814	1	12
615.984	1	14
616.153	1	6
616.323	1	19
616.493	1	13
616.662	1	23
616.832	1	19
617.002	1	9
617.171	1	11
617.341	1	8
617.511	1	10
617.680	1	1
617.850	1	23
618.019	1	24
618.189	1	29
618.359	1	15
618.528	1	15
618.698	1	23
618.868	1	5
619.037	1	18
619.207	1	11
619.377	1	3
619.546	1	14
619.716	1	15
619.885	1	11
620.055	1	11
620.225	1	23
620.394	1	5
620.564	1	26
620.734	1	18
620.903	1	6
621.073	1	28
621.242	1	24
621.412	1	12
621.582	1	8
621.751	1	17
621.921	1	18
622.091	1	10
622.260	1	18
622.430	1	29
622.599	1	22
622.769	1	20
622.939	1	25
623.108	1	16
623.278	1	14
623.448	1	7
623.617	1	6
623.787	1	17
623.956	1	17
624.126	1	14
624.296	1	14
624.465	1	23
624.635	1	23
624.804	1	21
624.974	1	21
625.144	1	20
625.313	1	10
625.483	1	14
625.652	1	27
625.822	1	17
625.992	1	17
626.161	1	29
626.331	1	18
626.501	1	23
626.670	1	13
626.840	1	13
627.009	1	14
627.179	1	23
627.348	1	21
627.518	1	13
627.688	1	25
627.857	1	23
628.027	1	0
628.196	1	10
628.366	1	23
628.536	1	26
628.705	1	14
628.875	1	21
629.044	1	15
629.214	1	17
629.384	1	15
629.553	1	23
629.723	1	15
629.892	1	20
630.062	1	20
630.232	1	21
630.401	1	27
630.571	1	22
630.740	1	12
630.910	1	28
631.079	1	19
631.249	1	22
631.419	1	22
631.588	1	8
631.758	1	12
631.927	1	16
632.097	1	14
632.266	1	10
632.436	1	17
632.606	1	26
632.775	1	18
632.945	1	16
633.114	1	27
633.284	1	22
633.453	1	21
633.623	1	20
633.793	1	15
633.962	1	16
634.132	1	23
634.301	1	17
634.471	1	30
634.640	1	22
634.810	1	26
634.979	1	30
635.149	1	24
635.319	1	11
635.488	1	21
635.658	1	14
635.827	1	14
635.997	1	12
636.166	1	26
636.336	1	17
636.505	1	39
636.675	1	21
636.845	1	22
637.014	1	21
637.184	1	33
637.353	1	19
637.523	1	26
637.692	1	16
637.862	1	26
638.031	1	29
638.201	1	28
638.370	1	16
638.540	1	27
638.710	1	9
638.879	1	9
639.049	1	21
639.218	1	25
639.388	1	25
639.557	1	18
639.727	1	26
639.896	1	29
640.066	1	20
640.235	1	21
640.405	1	28
640.574	1	13
640.744	1	17
640.914	1	18
641.083	1	23
641.253	1	20
641.422	1	25
641.592	1	32
641.761	1	21
641.931	1	16
642.100	1	43
642.270	1	8
642.439	1	33
642.609	1	28
642.778	1	27
642.948	1	16
643.117	1	30
643.287	1	26
643.456	1	25
643.626	1	31
643.795	1	25
643.965	1	22
644.134	1	26
644.304	1	18
644.473	1	27
644.643	1	25
644.812	1	26
644.982	1	31
645.151	1	17
645.321	1	18
645.490	1	32
645.660	1	17
645.829	1	19
645.999	1	21
646.168	1	23
646.338	1	22
646.507	1	25
646.677	1	18
646.846	1	30
647.016	1	20
647.185	1	32
647.355	1	22
647.524	1	25
647.694	1	33
647.863	1	25
648.033	1	27
648.202	1	29
648.372	1	18
648.541	1	23
648.711	1	22
648.880	1	26
649.050	1	22
649.219	1	24
649.389	1	40
649.558	1	24
649.728	1	31
649.897	1	30
650.067	1	30
650.236	1	29
650.406	1	27
650.575	1	35
650.745	1	17
650.914	1	14
651.084	1	13
651.253	1	26
651.423	1	27
651.592	1	25
651.762	1	22
651.931	1	33
652.101	1	34
652.270	1	30
652.440	1	31
652.609	1	25
652.778	1	13
652.948	1	30
653.117	1	33
653.287	1	29
653.456	1	26
653.626	1	35
653.795	1	34
653.965	1	22
654.134	1	39
654.304	1	12
654.473	1	20
654.643	1	34
654.812	1	24
654.982	1	27
655.151	1	21
655.320	1	22
655.490	1	17
655.659	1	23
655.829	1	22
655.998	1	26
656.168	1	19
656.337	1	23
656.507	1	31
656.676	1	37
656.846	1	28
657.015	1	23
657.184	1	37
657.354	1	34
657.523	1	31
657.693	1	37
657.862	1	33
658.032	1	21
658.201	1	37
658.371	1	32
658.540	1	32
658.709	1	25
658.879	1	19
659.048	1	30
659.218	1	24
659.387	1	33
659.557	1	33
659.726	1	25
659.895	1	34
660.065	1	23
660.234	1	31
660.404	1	32
660.573	1	14
660.743	1	34
660.912	1	32
661.081	1	36
661.251	1	34
661.420	1	43
661.590	1	30
661.759	1	28
661.929	1	40
662.098	1	34
662.267	1	31
662.437	1	37
662.606	1	31
662.776	1	38
662.945	1	34
663.115	1	36
663.284	1	25
663.453	1	43
663.623	1	42
663.792	1	41
663.962	1	27
664.131	1	41
664.300	1	39
664.470	1	23
664.639	1	38
664.809	1	34
664.978	1	28
665.148	1	31
665.317	1	31
665.486	1	45
665.656	1	32
665.825	1	39
665.995	1	35
666.164	1	31
666.333	1	39
666.503	1	31
666.672	1	33
666.842	1	26
667.011	1	33
667.180	1	38
667.350	1	29
667.519	1	39
667.689	1	41
667.858	1	50
668.027	1	43
668.197	1	33
668.366	1	18
668.536	1	34
668.705	1	34
668.874	1	29
669.044	1	35
669.213	1	35
669.382	1	20
669.552	1	42
669.721	1	31
669.891	1	42
670.060	1	40
670.229	1	36
670.399	1	31
670.568	1	43
670.738	1	38
670.907	1	27
671.076	1	28
671.246	1	39
671.415	1	38
671.584	1	28
671.754	1	32
671.923	1	46
672.093	1	25
672.262	1	30
672.431	1	31
672.601	1	23
672.770	1	24
672.939	1	32
673.109	1	36
673.278	1	31
673.448	1	36
673.617	1	34
673.786	1	29
