325.333	1	3
325.504	1	2
325.675	1	7
325.846	1	6
326.017	1	4
326.188	1	-2
326.359	1	3
326.531	1	-3
326.702	1	-1
326.873	1	12
327.044	1	7
327.215	1	-1
327.386	1	2
327.557	1	-7
327.728	1	-4
327.899	1	2
328.070	1	10
328.241	1	15
328.412	1	-2
328.583	1	9
328.754	1	10
328.926	1	7
329.097	1	-3
329.268	1	11
329.439	1	0
329.610	1	1
329.781	1	2
329.952	1	10
330.123	1	9
330.294	1	4
330.465	1	7
330.636	1	8
330.807	1	-3
330.978	1	3
331.149	1	10
331.320	1	-1
331.492	1	-10
331.663	1	15
331.834	1	10
332.005	1	9
332.176	1	8
332.347	1	10
332.518	1	-8
332.689	1	12
332.860	1	0
333.031	1	3
333.202	1	0
333.373	1	3
333.544	1	2
333.715	1	10
333.886	1	-6
334.057	1	4
334.228	1	-6
334.399	1	5
334.570	1	3
334.741	1	5
334.912	1	11
335.084	1	24
335.255	1	-3
335.426	1	2
335.597	1	1
335.768	1	5
335.939	1	8
336.110	1	8
336.281	1	-3
336.452	1	7
336.623	1	11
336.794	1	4
336.965	1	4
337.136	1	1
337.307	1	5
337.478	1	-3
337.649	1	2
337.820	1	7
337.991	1	9
338.162	1	6
338.333	1	11
338.504	1	2
338.675	1	2
338.846	1	9
339.017	1	1
339.188	1	3
339.359	1	-8
339.530	1	10
339.701	1	2
339.872	1	13
340.043	1	-7
340.214	1	6
340.385	1	13
340.556	1	-1
340.727	1	10
340.898	1	18
341.069	1	4
341.240	1	-1
341.411	1	5
341.582	1	1
341.753	1	2
341.924	1	5
342.095	1	11
342.266	1	12
342.437	1	13
342.608	1	-6
342.779	1	10
342.950	1	13
343.121	1	11
343.292	1	1
343.463	1	9
343.634	1	8
343.805	1	16
343.976	1	3
344.147	1	3
344.318	1	1
344.489	1	-5
344.660	1	13
344.831	1	6
345.002	1	3
345.173	1	7
345.344	1	-2
345.515	1	10
345.686	1	7
345.857	1	6
346.028	1	4
346.199	1	-1
346.370	1	-5
346.541	1	7
346.712	1	-6
346.883	1	13
347.054	1	0
347.225	1	9
347.396	1	11
347.567	1	3
347.738	1	-5
347.909	1	21
348.080	1	0
348.251	1	12
348.422	1	13
348.593	1	8
348.764	1	0
348.935	1	8
349.106	1	-2
349.277	1	11
349.448	1	8
349.619	1	8
349.790	1	1
349.961	1	6
350.132	1	9
350.303	1	6
350.474	1	14
350.645	1	1
350.816	1	8
350.987	1	17
351.157	1	-1
351.328	1	21
351.499	1	6
351.670	1	10
351.841	1	10
352.012	1	4
352.183	1	19
352.354	1	10
352.525	1	21
352.696	1	13
352.867	1	9
353.038	1	17
353.209	1	5
353.380	1	0
353.551	1	4
353.722	1	8
353.893	1	7
354.064	1	11
354.235	1	10
354.406	1	5
354.576	1	-1
354.747	1	11
354.918	1	14
355.089	1	11
355.260	1	7
355.431	1	20
355.602	1	5
355.773	1	16
355.944	1	12
356.115	1	6
356.286	1	9
356.457	1	6
356.628	1	12
356.799	1	12
356.970	1	19
357.141	1	4
357.311	1	2
357.482	1	4
357.653	1	4
357.824	1	13
357.995	1	8
358.166	1	-3
358.337	1	5
358.508	1	13
358.679	1	2
358.850	1	21
359.021	1	10
359.192	1	19
359.363	1	2
359.533	1	13
359.704	1	10
359.875	1	1
360.046	1	10
360.217	1	2
360.388	1	12
360.559	1	9
360.730	1	15
360.901	1	7
361.072	1	20
361.243	1	14
361.414	1	6
361.584	1	1
361.755	1	3
361.926	1	4
362.097	1	9
362.268	1	20
362.439	1	11
362.610	1	20
362.781	1	1
362.952	1	4
363.123	1	8
363.293	1	9
363.464	1	7
363.635	1	12
363.806	1	10
363.977	1	16
364.148	1	3
364.319	1	10
364.490	1	19
364.661	1	9
364.832	1	13
365.002	1	8
365.173	1	18
365.344	1	20
365.515	1	4
365.686	1	12
365.857	1	8
366.028	1	14
366.199	1	19
366.370	1	13
366.540	1	6
366.711	1	-3
366.882	1	3
367.053	1	0
367.224	1	18
367.395	1	5
367.566	1	18
367.737	1	17
367.908	1	23
368.078	1	12
368.249	1	21
368.420	1	3
368.591	1	-1
368.762	1	16
368.933	1	4
369.104	1	-7
369.274	1	6
369.445	1	11
369.616	1	7
369.787	1	13
369.958	1	17
370.129	1	3
370.300	1	16
370.471	1	-1
370.641	1	13
370.812	1	11
370.983	1	14
371.154	1	4
371.325	1	16
371.496	1	3
371.667	1	19
371.837	1	-1
372.008	1	14
372.179	1	-5
372.350	1	21
372.521	1	14
372.692	1	15
372.863	1	10
373.033	1	5
373.204	1	7
373.375	1	3
373.546	1	20
373.717	1	13
373.888	1	22
374.059	1	22
374.229	1	22
374.400	1	1
374.571	1	13
374.742	1	10
374.913	1	13
375.084	1	6
375.254	1	22
375.425	1	11
375.596	1	11
375.767	1	10
375.938	1	19
376.109	1	8
376.279	1	7
376.450	1	19
376.621	1	10
376.792	1	5
376.963	1	16
377.134	1	14
377.304	1	7
377.475	1	9
377.646	1	12
377.817	1	5
377.988	1	14
378.159	1	17
378.329	1	23
378.500	1	12
378.671	1	22
378.842	1	15
379.013	1	15
379.184	1	-3
379.354	1	25
379.525	1	10
379.696	1	20
379.867	1	15
380.038	1	12
380.209	1	18
380.379	1	9
380.550	1	1
380.721	1	20
380.892	1	7
381.063	1	13
381.233	1	9
381.404	1	14
381.575	1	18
381.746	1	15
381.917	1	18
382.087	1	15
382.258	1	13
382.429	1	15
382.600	1	19
382.771	1	14
382.941	1	12
383.112	1	11
383.283	1	19
383.454	1	9
383.625	1	6
383.795	1	17
383.966	1	11
384.137	1	15
384.308	1	17
384.479	1	20
384.649	1	14
384.820	1	19
384.991	1	8
385.162	1	25
385.333	1	11
385.503	1	7
385.674	1	1
385.845	1	14
386.016	1	21
386.187	1	15
386.357	1	20
386.528	1	16
386.699	1	13
386.870	1	23
387.041	1	17
387.211	1	22
387.382	1	21
387.553	1	10
387.724	1	15
387.894	1	13
388.065	1	17
388.236	1	15
388.407	1	10
388.578	1	20
388.748	1	8
388.919	1	23
389.090	1	8
389.261	1	15
389.431	1	18
389.602	1	19
389.773	1	11
389.944	1	23
390.114	1	9
390.285	1	14
390.456	1	19
390.627	1	13
390.798	1	19
390.968	1	19
391.139	1	14
391.310	1	9
391.481	1	14
391.651	1	15
391.822	1	7
391.993	1	15
392.164	1	5
392.334	1	14
392.505	1	5
392.676	1	19
392.847	1	19
393.017	1	24
393.188	1	11
393.359	1	5
393.530	1	13
393.700	1	11
393.871	1	5
394.042	1	16
394.213	1	10
394.383	1	7
394.554	1	18
394.725	1	22
394.896	1	12
395.066	1	20
395.237	1	4
395.408	1	24
395.579	1	17
395.749	1	26
395.920	1	12
396.091	1	11
396.262	1	13
396.432	1	14
396.603	1	21
396.774	1	25
396.945	1	20
397.115	1	18
397.286	1	15
397.457	1	15
397.627	1	14
397.798	1	30
397.969	1	12
398.140	1	14
398.310	1	9
398.481	1	22
398.652	1	17
398.823	1	16
398.993	1	16
399.164	1	16
399.335	1	29
399.505	1	16
399.676	1	18
399.847	1	17
400.018	1	17
400.188	1	18
400.359	1	21
400.530	1	4
400.700	1	14
400.871	1	10
401.042	1	12
401.213	1	17
401.383	1	11
401.554	1	23
401.725	1	25
401.895	1	24
402.066	1	18
402.237	1	20
402.408	1	11
402.578	1	11
402.749	1	19
402.920	1	16
403.090	1	15
403.261	1	20
403.432	1	10
403.603	1	20
403.773	1	32
403.944	1	21
404.115	1	20
404.285	1	27
404.456	1	14
404.627	1	17
404.797	1	5
404.968	1	13
405.139	1	8
405.310	1	26
405.480	1	17
405.651	1	9
405.822	1	12
405.992	1	13
406.163	1	15
406.334	1	18
406.504	1	14
406.675	1	19
406.846	1	17
407.016	1	23
407.187	1	19
407.358	1	9
407.528	1	10
407.699	1	12
407.870	1	17
408.041	1	19
408.211	1	20
408.382	1	8
408.553	1	10
408.723	1	18
408.894	1	12
409.065	1	18
409.235	1	15
409.406	1	12
409.577	1	6
409.747	1	32
409.918	1	13
410.089	1	18
410.259	1	24
410.430	1	10
410.601	1	14
410.771	1	20
410.942	1	23
411.113	1	17
411.283	1	15
411.454	1	19
411.625	1	19
411.795	1	26
411.966	1	20
412.137	1	20
412.307	1	5
412.478	1	21
412.649	1	23
412.819	1	7
412.990	1	17
413.161	1	16
413.331	1	8
413.502	1	26
413.672	1	17
413.843	1	14
414.014	1	24
414.184	1	27
414.355	1	16
414.526	1	15
414.696	1	22
414.867	1	15
415.038	1	7
415.208	1	20
415.379	1	17
415.550	1	21
415.720	1	19
415.891	1	16
416.062	1	21
416.232	1	20
416.403	1	23
416.573	1	19
416.744	1	9
416.915	1	19
417.085	1	23
417.256	1	23
417.427	1	20
417.597	1	21
417.768	1	13
417.939	1	16
418.109	1	19
418.280	1	21
418.450	1	17
418.621	1	3
418.792	1	19
418.962	1	16
419.133	1	28
419.304	1	16
419.474	1	9
419.645	1	15
419.815	1	15
419.986	1	14
420.157	1	18
420.327	1	21
420.498	1	25
420.669	1	15
420.839	1	21
421.010	1	27
421.180	1	20
421.351	1	15
421.522	1	28
421.692	1	24
421.863	1	17
422.033	1	22
422.204	1	22
422.375	1	16
422.545	1	23
422.716	1	10
422.886	1	9
423.057	1	24
423.228	1	8
423.398	1	12
423.569	1	19
423.740	1	12
423.910	1	9
424.081	1	8
424.251	1	11
424.422	1	24
424.593	1	10
424.763	1	15
424.934	1	10
425.104	1	30
425.275	1	14
425.445	1	13
425.616	1	8
425.787	1	1
425.957	1	15
426.128	1	22
426.298	1	17
426.469	1	9
426.640	1	24
426.810	1	22
426.981	1	15
427.151	1	7
427.322	1	25
427.493	1	14
427.663	1	15
427.834	1	12
428.004	1	17
428.175	1	18
428.345	1	8
428.516	1	5
428.687	1	20
428.857	1	8
429.028	1	17
429.198	1	17
429.369	1	21
429.540	1	15
429.710	1	8
429.881	1	15
430.051	1	14
430.222	1	5
430.392	1	18
430.563	1	28
430.734	1	30
430.904	1	17
431.075	1	19
431.245	1	9
431.416	1	9
431.586	1	27
431.757	1	15
431.927	1	19
432.098	1	15
432.269	1	11
432.439	1	15
432.610	1	15
432.780	1	29
432.951	1	18
433.121	1	10
433.292	1	25
433.462	1	20
433.633	1	28
433.804	1	17
433.974	1	12
434.145	1	30
434.315	1	9
434.486	1	8
434.656	1	20
434.827	1	7
434.997	1	12
435.168	1	16
435.339	1	15
435.509	1	14
435.680	1	16
435.850	1	10
436.021	1	6
436.191	1	14
436.362	1	8
436.532	1	24
436.703	1	11
436.873	1	20
437.044	1	17
437.214	1	23
437.385	1	17
437.556	1	11
437.726	1	30
437.897	1	25
438.067	1	11
438.238	1	16
438.408	1	27
438.579	1	9
438.749	1	14
438.920	1	9
439.090	1	7
439.261	1	6
439.431	1	8
439.602	1	7
439.772	1	10
439.943	1	27
440.113	1	16
440.284	1	12
440.455	1	29
440.625	1	21
440.796	1	14
440.966	1	21
441.137	1	18
441.307	1	9
441.478	1	23
441.648	1	15
441.819	1	13
441.989	1	15
442.160	1	20
442.330	1	12
442.501	1	18
442.671	1	13
442.842	1	-2
443.012	1	7
443.183	1	21
443.353	1	2
443.524	1	12
443.694	1	21
443.865	1	15
444.035	1	21
444.206	1	16
444.376	1	4
444.547	1	26
444.717	1	13
444.888	1	10
445.058	1	23
445.229	1	13
445.399	1	21
445.570	1	17
445.740	1	14
445.911	1	6
446.081	1	1
446.252	1	15
446.422	1	7
446.593	1	4
446.763	1	12
446.934	1	8
447.104	1	14
447.275	1	11
447.445	1	10
447.616	1	20
447.786	1	20
447.957	1	14
448.127	1	14
448.298	1	11
448.468	1	8
448.639	1	11
448.809	1	15
448.979	1	10
449.150	1	28
449.320	1	17
449.491	1	23
449.661	1	4
449.832	1	4
450.002	1	12
450.173	1	10
450.343	1	8
450.514	1	11
450.684	1	17
450.855	1	17
451.025	1	18
451.196	1	4
451.366	1	17
451.537	1	15
451.707	1	-2
451.878	1	6
452.048	1	17
452.218	1	20
452.389	1	17
452.559	1	7
452.730	1	20
452.900	1	22
453.071	1	-7
453.241	1	17
453.412	1	9
453.582	1	3
453.753	1	10
453.923	1	22
454.093	1	16
454.264	1	19
454.434	1	10
454.605	1	9
454.775	1	16
454.946	1	12
455.116	1	15
455.287	1	11
455.457	1	7
455.628	1	14
455.798	1	22
455.968	1	10
456.139	1	13
456.309	1	10
456.480	1	10
456.650	1	13
456.821	1	4
456.991	1	12
457.161	1	15
457.332	1	15
457.502	1	1
457.673	1	15
457.843	1	11
458.014	1	9
458.184	1	10
458.355	1	9
458.525	1	11
458.695	1	12
458.866	1	8
459.036	1	21
459.207	1	10
459.377	1	2
459.548	1	21
459.718	1	10
459.888	1	12
460.059	1	14
460.229	1	11
460.400	1	17
460.570	1	22
460.740	1	12
460.911	1	6
461.081	1	13
461.252	1	7
461.422	1	3
461.593	1	5
461.763	1	21
461.933	1	13
462.104	1	-3
462.274	1	22
462.445	1	10
462.615	1	6
462.785	1	3
462.956	1	14
463.126	1	22
463.297	1	6
463.467	1	10
463.638	1	20
463.808	1	0
463.978	1	5
464.149	1	1
464.319	1	6
464.490	1	19
464.660	1	8
464.830	1	5
465.001	1	10
465.171	1	14
465.342	1	24
465.512	1	12
465.682	1	12
465.853	1	12
466.023	1	9
466.194	1	12
466.364	1	16
466.534	1	13
466.705	1	9
466.875	1	10
467.045	1	7
467.216	1	20
467.386	1	6
467.557	1	12
467.727	1	2
467.897	1	0
468.068	1	8
468.238	1	7
468.409	1	12
468.579	1	11
468.749	1	8
468.920	1	-5
469.090	1	11
469.260	1	4
469.431	1	15
469.601	1	9
469.772	1	15
469.942	1	1
470.112	1	6
470.283	1	4
470.453	1	13
470.623	1	4
470.794	1	0
470.964	1	9
471.135	1	6
471.305	1	2
471.475	1	8
471.646	1	-1
471.816	1	6
471.986	1	4
472.157	1	22
472.327	1	-2
472.497	1	10
472.668	1	8
472.838	1	9
473.009	1	8
473.179	1	5
473.349	1	7
473.520	1	12
473.690	1	11
473.860	1	12
474.031	1	9
474.201	1	17
474.371	1	14
474.542	1	8
474.712	1	15
474.882	1	9
475.053	1	16
475.223	1	8
475.394	1	13
475.564	1	7
475.734	1	13
475.905	1	17
476.075	1	9
476.245	1	19
476.416	1	12
476.586	1	14
476.756	1	11
476.927	1	14
477.097	1	17
477.267	1	-1
477.438	1	8
477.608	1	5
477.778	1	9
477.949	1	13
478.119	1	14
478.289	1	12
478.460	1	15
478.630	1	8
478.800	1	11
478.971	1	12
479.141	1	-1
479.311	1	-2
479.482	1	9
479.652	1	2
479.822	1	2
479.993	1	10
480.163	1	9
480.333	1	11
480.504	1	13
480.674	1	7
480.844	1	0
481.015	1	6
481.185	1	-2
481.355	1	12
481.525	1	8
481.696	1	5
481.866	1	3
482.036	1	2
482.207	1	5
482.377	1	10
482.547	1	17
482.718	1	14
482.888	1	7
483.058	1	13
483.229	1	3
483.399	1	5
483.569	1	7
483.740	1	6
483.910	1	5
484.080	1	15
484.250	1	12
484.421	1	8
484.591	1	13
484.761	1	13
484.932	1	14
485.102	1	17
485.272	1	10
485.443	1	7
485.613	1	5
485.783	1	1
485.953	1	4
486.124	1	13
486.294	1	11
486.464	1	7
486.635	1	16
486.805	1	16
486.975	1	10
487.146	1	19
487.316	1	7
487.486	1	5
487.656	1	6
487.827	1	10
487.997	1	-6
488.167	1	1
488.338	1	25
488.508	1	10
488.678	1	7
488.848	1	18
489.019	1	5
489.189	1	6
489.359	1	2
489.529	1	17
489.700	1	2
489.870	1	15
490.040	1	-1
490.211	1	-3
490.381	1	11
490.551	1	13
490.721	1	14
490.892	1	8
491.062	1	10
491.232	1	7
491.402	1	5
491.573	1	-10
491.743	1	12
491.913	1	7
492.084	1	14
492.254	1	5
492.424	1	9
492.594	1	9
492.765	1	7
492.935	1	6
493.105	1	12
493.275	1	4
493.446	1	12
493.616	1	17
493.786	1	11
493.956	1	10
494.127	1	4
494.297	1	3
494.467	1	1
494.637	1	3
494.808	1	1
494.978	1	-1
495.148	1	10
495.318	1	-3
495.489	1	10
495.659	1	8
495.829	1	9
495.999	1	2
496.170	1	8
496.340	1	5
496.510	1	10
496.680	1	4
496.851	1	1
497.021	1	0
497.191	1	3
497.361	1	6
497.532	1	-1
497.702	1	7
497.872	1	0
498.042	1	9
498.213	1	4
498.383	1	10
498.553	1	0
498.723	1	7
498.894	1	4
499.064	1	16
499.234	1	17
499.404	1	9
499.574	1	7
499.745	1	8
499.915	1	2
500.085	1	8
500.255	1	5
500.426	1	7
500.596	1	19
500.766	1	3
500.936	1	4
501.106	1	1
501.277	1	2
501.447	1	0
501.617	1	5
501.787	1	3
501.958	1	0
502.128	1	3
502.298	1	0
502.468	1	16
502.638	1	8
502.809	1	14
502.979	1	-6
503.149	1	4
503.319	1	-9
503.489	1	8
503.660	1	9
503.830	1	4
504.000	1	15
504.170	1	12
504.340	1	6
504.511	1	9
504.681	1	3
504.851	1	5
505.021	1	6
505.192	1	4
505.362	1	4
505.532	1	-2
505.702	1	6
505.872	1	10
506.043	1	6
506.213	1	0
506.383	1	6
506.553	1	8
506.723	1	5
506.893	1	17
507.064	1	16
507.234	1	-3
507.404	1	-3
507.574	1	4
507.744	1	3
507.915	1	8
508.085	1	7
508.255	1	15
508.425	1	-8
508.595	1	16
508.766	1	8
508.936	1	-5
509.106	1	9
509.276	1	8
509.446	1	3
509.616	1	-1
509.787	1	16
509.957	1	8
510.127	1	12
510.297	1	1
510.467	1	-1
510.638	1	6
510.808	1	0
510.978	1	3
511.148	1	5
511.318	1	-1
511.488	1	-8
511.659	1	11
511.829	1	3
511.999	1	8
512.169	1	-1
512.339	1	-3
512.509	1	2
512.680	1	0
512.850	1	-1
513.020	1	5
513.190	1	12
513.360	1	-2
513.530	1	7
513.700	1	9
513.871	1	-1
514.041	1	0
514.211	1	9
514.381	1	16
514.551	1	0
514.721	1	6
514.892	1	10
515.062	1	12
515.232	1	11
515.402	1	2
515.572	1	0
515.742	1	1
515.912	1	9
516.083	1	7
516.253	1	7
516.423	1	3
516.593	1	4
516.763	1	12
516.933	1	2
517.104	1	3
517.274	1	2
517.444	1	11
517.614	1	-3
517.784	1	-2
517.954	1	4
518.124	1	3
518.294	1	1
518.465	1	6
518.635	1	3
518.805	1	-12
518.975	1	7
519.145	1	8
519.315	1	4
519.485	1	-1
519.656	1	14
519.826	1	-7
519.996	1	-4
520.166	1	1
520.336	1	6
520.506	1	-6
520.676	1	-7
520.846	1	12
521.017	1	3
521.187	1	7
521.357	1	16
521.527	1	5
521.697	1	-2
521.867	1	-5
522.037	1	7
522.207	1	4
522.377	1	6
522.548	1	9
522.718	1	8
522.888	1	15
523.058	1	-7
523.228	1	10
523.398	1	13
523.568	1	6
523.738	1	10
523.909	1	16
524.079	1	2
524.249	1	-3
524.419	1	0
524.589	1	13
524.759	1	-6
524.929	1	-4
525.099	1	8
525.269	1	11
525.439	1	2
525.610	1	20
525.780	1	2
525.950	1	3
526.120	1	-6
526.290	1	3
526.460	1	-5
526.630	1	2
526.800	1	3
526.970	1	6
527.140	1	10
527.311	1	5
527.481	1	6
527.651	1	7
527.821	1	-4
527.991	1	11
528.161	1	11
528.331	1	10
528.501	1	6
528.671	1	2
528.841	1	0
529.011	1	0
529.181	1	12
529.352	1	6
529.522	1	-1
529.692	1	10
529.862	1	-6
530.032	1	8
530.202	1	4
530.372	1	-2
530.542	1	13
530.712	1	2
530.882	1	4
531.052	1	1
531.222	1	4
531.392	1	6
531.563	1	0
531.733	1	5
531.903	1	-2
532.073	1	7
532.243	1	0
532.413	1	4
532.583	1	1
532.753	1	9
532.923	1	-8
533.093	1	3
533.263	1	-2
533.433	1	0
533.603	1	3
533.773	1	1
533.943	1	0
534.113	1	5
534.284	1	-4
534.454	1	-1
534.624	1	12
534.794	1	-7
534.964	1	9
535.134	1	0
535.304	1	1
535.474	1	13
535.644	1	-7
535.814	1	-1
535.984	1	0
536.154	1	2
536.324	1	3
536.494	1	-1
536.664	1	5
536.834	1	-2
537.004	1	-1
537.174	1	10
537.344	1	3
537.514	1	-5
537.685	1	7
537.855	1	10
538.025	1	3
538.195	1	5
538.365	1	20
538.535	1	4
538.705	1	1
538.875	1	-1
539.045	1	8
539.215	1	6
539.385	1	7
539.555	1	12
539.725	1	3
539.895	1	-11
540.065	1	17
540.235	1	5
540.405	1	1
540.575	1	0
540.745	1	5
540.915	1	16
541.085	1	7
541.255	1	-8
541.425	1	7
541.595	1	0
541.765	1	3
541.935	1	1
542.105	1	-3
542.275	1	5
542.445	1	-6
542.615	1	2
542.785	1	10
542.955	1	2
543.125	1	-6
543.295	1	3
543.465	1	2
543.635	1	5
543.805	1	14
543.975	1	1
544.145	1	6
544.315	1	5
544.485	1	13
544.655	1	6
544.825	1	-11
544.995	1	4
545.165	1	-6
545.335	1	13
545.505	1	2
545.675	1	10
545.845	1	6
546.015	1	5
546.185	1	14
546.355	1	4
546.525	1	6
546.695	1	2
546.865	1	4
547.035	1	4
547.205	1	-2
547.375	1	7
547.545	1	9
547.715	1	-1
547.885	1	4
548.055	1	1
548.225	1	-4
548.395	1	-4
548.565	1	0
548.735	1	8
548.905	1	10
549.075	1	3
549.245	1	-3
549.415	1	-8
549.585	1	6
549.755	1	3
549.925	1	6
550.095	1	1
550.265	1	7
550.435	1	-7
550.605	1	4
550.775	1	15
550.945	1	1
551.115	1	3
551.285	1	-2
551.455	1	2
551.625	1	13
551.795	1	0
551.965	1	5
552.135	1	-9
552.305	1	2
552.475	1	-7
552.645	1	-3
552.815	1	-5
552.985	1	4
553.155	1	6
553.325	1	4
553.495	1	7
553.665	1	4
553.835	1	-2
554.004	1	-9
554.174	1	3
554.344	1	1
554.514	1	0
554.684	1	4
554.854	1	11
555.024	1	-6
555.194	1	0
555.364	1	6
555.534	1	13
555.704	1	-3
555.874	1	9
556.044	1	-3
556.214	1	-16
556.384	1	-4
556.554	1	10
556.724	1	11
556.894	1	6
557.064	1	2
557.234	1	-7
557.404	1	9
557.573	1	3
557.743	1	-1
557.913	1	-4
558.083	1	-1
558.253	1	10
558.423	1	0
558.593	1	5
558.763	1	4
558.933	1	4
559.103	1	15
559.273	1	6
559.443	1	1
559.613	1	-1
559.783	1	-6
559.953	1	0
560.122	1	6
560.292	1	5
560.462	1	1
560.632	1	7
560.802	1	6
560.972	1	12
561.142	1	-3
561.312	1	0
561.482	1	14
561.652	1	-3
561.822	1	-3
561.992	1	-2
562.162	1	1
562.331	1	-1
562.501	1	-5
562.671	1	14
562.841	1	-7
563.011	1	1
563.181	1	1
563.351	1	-2
563.521	1	2
563.691	1	4
563.861	1	-6
564.031	1	9
564.201	1	7
564.370	1	-7
564.540	1	0
564.710	1	-10
564.880	1	9
565.050	1	15
565.220	1	-6
565.390	1	6
565.560	1	12
565.730	1	-4
565.900	1	0
566.069	1	12
566.239	1	0
566.409	1	5
566.579	1	9
566.749	1	8
566.919	1	3
567.089	1	7
567.259	1	4
567.429	1	-4
567.599	1	4
567.768	1	0
567.938	1	-5
568.108	1	8
568.278	1	6
568.448	1	-4
568.618	1	-4
568.788	1	4
568.958	1	3
569.128	1	4
569.297	1	3
569.467	1	0
569.637	1	11
569.807	1	7
569.977	1	10
570.147	1	10
570.317	1	-8
570.487	1	5
570.656	1	8
570.826	1	-3
570.996	1	-5
571.166	1	1
571.336	1	5
571.506	1	16
571.676	1	2
571.846	1	4
572.015	1	2
572.185	1	3
572.355	1	7
572.525	1	1
572.695	1	0
572.865	1	-5
573.035	1	-4
573.205	1	-5
573.374	1	-2
573.544	1	0
573.714	1	7
573.884	1	14
574.054	1	4
574.224	1	-3
574.394	1	-4
574.563	1	-4
574.733	1	-2
574.903	1	3
575.073	1	-3
575.243	1	-3
575.413	1	1
575.583	1	3
575.752	1	14
575.922	1	-2
576.092	1	3
576.262	1	2
576.432	1	0
576.602	1	-6
576.772	1	13
576.941	1	-2
577.111	1	-2
577.281	1	-2
577.451	1	-2
577.621	1	19
577.791	1	15
577.960	1	-4
578.130	1	2
578.300	1	3
578.470	1	3
578.640	1	3
578.810	1	3
578.979	1	7
579.149	1	4
579.319	1	-6
579.489	1	1
579.659	1	4
579.829	1	1
579.998	1	13
580.168	1	6
580.338	1	8
580.508	1	1
580.678	1	-2
580.848	1	-1
581.017	1	-3
581.187	1	-4
581.357	1	-6
581.527	1	13
581.697	1	7
581.867	1	7
582.036	1	-2
582.206	1	-1
582.376	1	8
582.546	1	-1
582.716	1	4
582.885	1	-3
583.055	1	1
583.225	1	-4
583.395	1	5
583.565	1	-2
583.735	1	12
583.904	1	-2
584.074	1	0
584.244	1	10
584.414	1	-4
584.584	1	5
584.753	1	-5
584.923	1	2
585.093	1	5
585.263	1	0
585.433	1	2
585.602	1	-4
585.772	1	2
585.942	1	2
586.112	1	-2
586.282	1	-4
586.451	1	-4
586.621	1	-9
586.791	1	-2
586.961	1	0
587.131	1	7
587.300	1	-1
587.470	1	6
587.640	1	5
587.810	1	2
587.980	1	6
588.149	1	12
588.319	1	6
588.489	1	8
588.659	1	4
588.829	1	5
588.998	1	5
589.168	1	3
589.338	1	3
589.508	1	-1
589.677	1	0
589.847	1	-4
590.017	1	10
590.187	1	-1
590.357	1	15
590.526	1	14
590.696	1	2
590.866	1	5
591.036	1	3
591.205	1	13
591.375	1	6
591.545	1	-5
591.715	1	5
591.885	1	6
592.054	1	2
592.224	1	3
592.394	1	-1
592.564	1	6
592.733	1	14
592.903	1	-2
593.073	1	-3
593.243	1	-4
593.412	1	4
593.582	1	1
593.752	1	-12
593.922	1	1
594.091	1	2
594.261	1	5
594.431	1	1
594.601	1	7
594.771	1	10
594.940	1	2
595.110	1	0
595.280	1	3
595.450	1	-1
595.619	1	-2
595.789	1	11
595.959	1	6
596.129	1	13
596.298	1	0
596.468	1	11
596.638	1	2
596.808	1	5
596.977	1	-1
597.147	1	3
597.317	1	-3
597.487	1	16
597.656	1	9
597.826	1	6
597.996	1	0
598.166	1	-8
598.335	1	-5
598.505	1	4
598.675	1	-5
598.844	1	1
599.014	1	2
599.184	1	11
599.354	1	-5
599.523	1	4
599.693	1	-9
599.863	1	7
600.033	1	0
600.202	1	5
600.372	1	6
600.542	1	7
600.712	1	5
600.881	1	2
601.051	1	17
601.221	1	0
601.390	1	-6
601.560	1	5
601.730	1	13
601.900	1	9
602.069	1	4
602.239	1	-4
602.409	1	-2
602.578	1	5
602.748	1	-2
602.918	1	14
603.088	1	10
603.257	1	1
603.427	1	-9
603.597	1	1
603.767	1	-2
603.936	1	-1
604.106	1	13
604.276	1	10
604.445	1	6
604.615	1	-1
604.785	1	0
604.954	1	-3
605.124	1	4
605.294	1	3
605.464	1	0
605.633	1	5
605.803	1	-3
605.973	1	-7
606.142	1	-1
606.312	1	5
606.482	1	-5
606.652	1	13
606.821	1	-1
606.991	1	-11
607.161	1	1
607.330	1	7
607.500	1	6
607.670	1	-4
607.839	1	11
608.009	1	9
608.179	1	7
608.348	1	5
608.518	1	8
608.688	1	9
608.858	1	0
609.027	1	-3
609.197	1	6
609.367	1	9
609.536	1	1
609.706	1	7
609.876	1	4
610.045	1	2
610.215	1	6
610.385	1	1
610.554	1	7
610.724	1	6
610.894	1	3
611.063	1	4
611.233	1	3
611.403	1	-2
611.572	1	-3
611.742	1	3
611.912	1	6
612.081	1	2
612.251	1	5
612.421	1	1
612.590	1	7
612.760	1	0
612.930	1	3
613.099	1	0
613.269	1	11
613.439	1	-1
613.608	1	2
613.778	1	2
613.948	1	-7
614.117	1	7
614.287	1	9
614.457	1	10
614.626	1	9
614.796	1	4
614.966	1	-1
615.135	1	0
615.305	1	9
615.475	1	-1
615.644	1	4
615.814	1	4
615.984	1	1
616.153	1	1
616.323	1	2
616.493	1	6
616.662	1	8
616.832	1	7
617.002	1	1
617.171	1	10
617.341	1	-1
617.511	1	2
617.680	1	1
617.850	1	8
618.019	1	12
618.189	1	8
618.359	1	13
618.528	1	8
618.698	1	13
618.868	1	-8
619.037	1	5
619.207	1	-1
619.377	1	0
619.546	1	-2
619.716	1	12
619.885	1	-2
620.055	1	-9
620.225	1	-1
620.394	1	1
620.564	1	13
620.734	1	11
620.903	1	-6
621.073	1	15
621.242	1	9
621.412	1	-1
621.582	1	-2
621.751	1	8
621.921	1	3
622.091	1	-4
622.260	1	3
622.430	1	13
622.599	1	3
622.769	1	12
622.939	1	2
623.108	1	0
623.278	1	-2
623.448	1	6
623.617	1	-2
623.787	1	6
623.956	1	4
624.126	1	1
624.296	1	-6
624.465	1	10
624.635	1	14
624.804	1	7
624.974	1	13
625.144	1	6
625.313	1	8
625.483	1	-3
625.652	1	-2
625.822	1	1
625.992	1	-13
626.161	1	10
626.331	1	4
626.501	1	9
626.670	1	2
626.840	1	1
627.009	1	0
627.179	1	4
627.348	1	4
627.518	1	4
627.688	1	10
627.857	1	13
628.027	1	-4
628.196	1	10
628.366	1	7
628.536	1	0
628.705	1	-3
628.875	1	5
629.044	1	-8
629.214	1	15
629.384	1	4
629.553	1	11
629.723	1	3
629.892	1	3
630.062	1	5
630.232	1	2
630.401	1	15
630.571	1	0
630.740	1	10
630.910	1	3
631.079	1	6
631.249	1	1
631.419	1	12
631.588	1	-14
631.758	1	9
631.927	1	4
632.097	1	3
632.266	1	-3
632.436	1	7
632.606	1	-7
632.775	1	2
632.945	1	3
633.114	1	7
633.284	1	1
633.453	1	0
633.623	1	4
633.793	1	9
633.962	1	1
634.132	1	7
634.301	1	6
634.471	1	6
634.640	1	6
634.810	1	2
634.979	1	11
635.149	1	1
635.319	1	-1
635.488	1	-2
635.658	1	0
635.827	1	-9
635.997	1	-2
636.166	1	6
636.336	1	-9
636.505	1	13
636.675	1	-8
636.845	1	11
637.014	1	7
637.184	1	5
637.353	1	6
637.523	1	5
637.692	1	0
637.862	1	3
638.031	1	0
638.201	1	15
638.370	1	-1
638.540	1	5
638.710	1	5
638.879	1	1
639.049	1	-1
639.218	1	7
639.388	1	-4
639.557	1	-5
639.727	1	6
639.896	1	2
640.066	1	1
640.235	1	8
640.405	1	17
640.574	1	4
640.744	1	-4
640.914	1	3
641.083	1	-3
641.253	1	8
641.422	1	3
641.592	1	10
641.761	1	-2
641.931	1	-2
642.100	1	17
642.270	1	1
642.439	1	4
642.609	1	10
642.778	1	-2
642.948	1	6
643.117	1	10
643.287	1	2
643.456	1	-7
643.626	1	15
643.795	1	6
643.965	1	4
644.134	1	4
644.304	1	3
644.473	1	3
644.643	1	13
644.812	1	0
644.982	1	5
645.151	1	4
645.321	1	-6
645.490	1	14
645.660	1	-6
645.829	1	6
645.999	1	6
646.168	1	3
646.338	1	-3
646.507	1	4
646.677	1	5
646.846	1	-4
647.016	1	-6
647.185	1	9
647.355	1	-10
647.524	1	10
647.694	1	14
647.863	1	7
648.033	1	4
648.202	1	22
648.372	1	-4
648.541	1	-3
648.711	1	7
648.880	1	-5
649.050	1	5
649.219	1	3
649.389	1	9
649.558	1	1
649.728	1	6
649.897	1	5
650.067	1	5
650.236	1	7
650.406	1	7
650.575	1	16
650.745	1	4
650.914	1	-3
651.084	1	-3
651.253	1	6
651.423	1	2
651.592	1	-1
651.762	1	-3
651.931	1	12
652.101	1	6
652.270	1	14
652.440	1	0
652.609	1	-2
652.778	1	-2
652.948	1	9
653.117	1	-4
653.287	1	0
653.456	1	7
653.626	1	5
653.795	1	4
653.965	1	3
654.134	1	6
654.304	1	-13
654.473	1	11
654.643	1	3
654.812	1	13
654.982	1	9
655.151	1	7
655.320	1	-4
655.490	1	2
655.659	1	-2
655.829	1	-3
655.998	1	7
656.168	1	2
656.337	1	8
656.507	1	0
656.676	1	16
656.846	1	8
657.015	1	12
657.184	1	10
657.354	1	7
657.523	1	-4
657.693	1	13
657.862	1	17
658.032	1	3
658.201	1	6
658.371	1	17
658.540	1	2
658.709	1	-2
658.879	1	9
659.048	1	0
659.218	1	3
659.387	1	-6
659.557	1	4
659.726	1	11
659.895	1	-2
660.065	1	-4
660.234	1	-1
660.404	1	2
660.573	1	-1
660.743	1	8
660.912	1	6
661.081	1	7
661.251	1	1
661.420	1	11
661.590	1	12
661.759	1	5
661.929	1	10
662.098	1	14
662.267	1	3
662.437	1	12
662.606	1	-6
662.776	1	13
662.945	1	12
663.115	1	-5
663.284	1	0
663.453	1	10
663.623	1	4
663.792	1	-4
663.962	1	0
664.131	1	7
664.300	1	9
664.470	1	2
664.639	1	5
664.809	1	11
664.978	1	-2
665.148	1	4
665.317	1	9
665.486	1	3
665.656	1	-4
665.825	1	10
665.995	1	-10
666.164	1	-5
666.333	1	0
666.503	1	3
666.672	1	-8
666.842	1	1
667.011	1	0
667.180	1	8
667.350	1	-7
667.519	1	8
667.689	1	9
667.858	1	-2
668.027	1	5
668.197	1	-4
668.366	1	-7
668.536	1	9
668.705	1	6
668.874	1	14
669.044	1	4
669.213	1	15
669.382	1	-5
669.552	1	4
669.721	1	6
669.891	1	18
670.060	1	7
670.229	1	20
670.399	1	5
670.568	1	18
670.738	1	12
670.907	1	-5
671.076	1	7
671.246	1	4
671.415	1	-5
671.584	1	2
671.754	1	-1
671.923	1	-7
672.093	1	2
672.262	1	-1
672.431	1	1
672.601	1	3
672.770	1	2
672.939	1	10
673.109	1	-4
673.278	1	6
673.448	1	4
673.617	1	5
673.786	1	9
