325.333	1	7
325.504	1	9
325.675	1	3
325.846	1	3
326.017	1	11
326.188	1	6
326.359	1	-2
326.531	1	-12
326.702	1	-8
326.873	1	13
327.044	1	-3
327.215	1	5
327.386	1	5
327.557	1	1
327.728	1	4
327.899	1	8
328.070	1	8
328.241	1	2
328.412	1	-3
328.583	1	12
328.754	1	3
328.926	1	8
329.097	1	-16
329.268	1	9
329.439	1	6
329.610	1	5
329.781	1	-6
329.952	1	7
330.123	1	2
330.294	1	5
330.465	1	9
330.636	1	12
330.807	1	2
330.978	1	0
331.149	1	-4
331.320	1	3
331.492	1	4
331.663	1	10
331.834	1	14
332.005	1	7
332.176	1	10
332.347	1	9
332.518	1	-6
332.689	1	9
332.860	1	3
333.031	1	11
333.202	1	0
333.373	1	3
333.544	1	0
333.715	1	17
333.886	1	-10
334.057	1	4
334.228	1	-1
334.399	1	2
334.570	1	12
334.741	1	-6
334.912	1	13
335.084	1	21
335.255	1	9
335.426	1	2
335.597	1	2
335.768	1	5
335.939	1	6
336.110	1	1
336.281	1	-8
336.452	1	-1
336.623	1	1
336.794	1	15
336.965	1	5
337.136	1	9
337.307	1	8
337.478	1	0
337.649	1	9
337.820	1	7
337.991	1	1
338.162	1	-3
338.333	1	-1
338.504	1	10
338.675	1	11
338.846	1	7
339.017	1	-9
339.188	1	-1
339.359	1	-7
339.530	1	-3
339.701	1	10
339.872	1	8
340.043	1	-1
340.214	1	1
340.385	1	10
340.556	1	-1
340.727	1	10
340.898	1	8
341.069	1	11
341.240	1	-1
341.411	1	4
341.582	1	13
341.753	1	-5
341.924	1	7
342.095	1	2
342.266	1	15
342.437	1	11
342.608	1	7
342.779	1	9
342.950	1	13
343.121	1	13
343.292	1	1
343.463	1	-2
343.634	1	10
343.805	1	10
343.976	1	11
344.147	1	8
344.318	1	8
344.489	1	5
344.660	1	12
344.831	1	3
345.002	1	5
345.173	1	17
345.344	1	10
345.515	1	6
345.686	1	4
345.857	1	13
346.028	1	2
346.199	1	4
346.370	1	2
346.541	1	9
346.712	1	-3
346.883	1	11
347.054	1	5
347.225	1	5
347.396	1	10
347.567	1	5
347.738	1	-2
347.909	1	14
348.080	1	-1
348.251	1	10
348.422	1	14
348.593	1	1
348.764	1	6
348.935	1	2
349.106	1	5
349.277	1	9
349.448	1	7
349.619	1	11
349.790	1	3
349.961	1	7
350.132	1	15
350.303	1	12
350.474	1	13
350.645	1	1
350.816	1	3
350.987	1	12
351.157	1	4
351.328	1	17
351.499	1	7
351.670	1	6
351.841	1	16
352.012	1	16
352.183	1	13
352.354	1	17
352.525	1	21
352.696	1	20
352.867	1	10
353.038	1	20
353.209	1	18
353.380	1	4
353.551	1	3
353.722	1	7
353.893	1	9
354.064	1	23
354.235	1	6
354.406	1	9
354.576	1	14
354.747	1	16
354.918	1	12
355.089	1	12
355.260	1	21
355.431	1	18
355.602	1	12
355.773	1	7
355.944	1	8
356.115	1	15
356.286	1	4
356.457	1	16
356.628	1	20
356.799	1	10
356.970	1	19
357.141	1	13
357.311	1	4
357.482	1	6
357.653	1	17
357.824	1	14
357.995	1	13
358.166	1	2
358.337	1	12
358.508	1	16
358.679	1	15
358.850	1	8
359.021	1	2
359.192	1	16
359.363	1	8
359.533	1	15
359.704	1	9
359.875	1	10
360.046	1	11
360.217	1	-2
360.388	1	7
360.559	1	3
360.730	1	16
360.901	1	9
361.072	1	16
361.243	1	24
361.414	1	12
361.584	1	11
361.755	1	8
361.926	1	2
362.097	1	7
362.268	1	9
362.439	1	3
362.610	1	20
362.781	1	19
362.952	1	2
363.123	1	12
363.293	1	19
363.464	1	24
363.635	1	14
363.806	1	10
363.977	1	17
364.148	1	19
364.319	1	15
364.490	1	10
364.661	1	12
364.832	1	18
365.002	1	10
365.173	1	7
365.344	1	13
365.515	1	18
365.686	1	10
365.857	1	19
366.028	1	7
366.199	1	13
366.370	1	9
366.540	1	6
366.711	1	-2
366.882	1	4
367.053	1	10
367.224	1	23
367.395	1	15
367.566	1	15
367.737	1	26
367.908	1	14
368.078	1	8
368.249	1	17
368.420	1	5
368.591	1	5
368.762	1	16
368.933	1	-1
369.104	1	12
369.274	1	16
369.445	1	17
369.616	1	18
369.787	1	13
369.958	1	21
370.129	1	9
370.300	1	27
370.471	1	11
370.641	1	8
370.812	1	9
370.983	1	14
371.154	1	11
371.325	1	18
371.496	1	17
371.667	1	18
371.837	1	8
372.008	1	13
372.179	1	6
372.350	1	21
372.521	1	8
372.692	1	9
372.863	1	23
373.033	1	1
373.204	1	10
373.375	1	17
373.546	1	13
373.717	1	12
373.888	1	20
374.059	1	19
374.229	1	17
374.400	1	6
374.571	1	9
374.742	1	24
374.913	1	19
375.084	1	8
375.254	1	14
375.425	1	16
375.596	1	21
375.767	1	13
375.938	1	12
376.109	1	12
376.279	1	4
376.450	1	11
376.621	1	18
376.792	1	13
376.963	1	17
377.134	1	19
377.304	1	18
377.475	1	10
377.646	1	5
377.817	1	8
377.988	1	13
378.159	1	20
378.329	1	20
378.500	1	13
378.671	1	16
378.842	1	10
379.013	1	7
379.184	1	10
379.354	1	16
379.525	1	8
379.696	1	13
379.867	1	20
380.038	1	17
380.209	1	18
380.379	1	12
380.550	1	10
380.721	1	22
380.892	1	21
381.063	1	18
381.233	1	22
381.404	1	20
381.575	1	21
381.746	1	19
381.917	1	8
382.087	1	28
382.258	1	11
382.429	1	16
382.600	1	13
382.771	1	17
382.941	1	17
383.112	1	14
383.283	1	16
383.454	1	16
383.625	1	19
383.795	1	6
383.966	1	17
384.137	1	21
384.308	1	8
384.479	1	23
384.649	1	30
384.820	1	8
384.991	1	6
385.162	1	14
385.333	1	22
385.503	1	19
385.674	1	4
385.845	1	32
386.016	1	20
386.187	1	21
386.357	1	16
386.528	1	12
386.699	1	6
386.870	1	25
387.041	1	18
387.211	1	14
387.382	1	20
387.553	1	26
387.724	1	21
387.894	1	14
388.065	1	23
388.236	1	20
388.407	1	14
388.578	1	9
388.748	1	16
388.919	1	27
389.090	1	20
389.261	1	17
389.431	1	30
389.602	1	12
389.773	1	26
389.944	1	9
390.114	1	18
390.285	1	15
390.456	1	15
390.627	1	17
390.798	1	21
390.968	1	15
391.139	1	20
391.310	1	10
391.481	1	22
391.651	1	22
391.822	1	18
391.993	1	6
392.164	1	10
392.334	1	25
392.505	1	18
392.676	1	22
392.847	1	23
393.017	1	29
393.188	1	22
393.359	1	7
393.530	1	17
393.700	1	20
393.871	1	14
394.042	1	20
394.213	1	11
394.383	1	18
394.554	1	18
394.725	1	25
394.896	1	19
395.066	1	16
395.237	1	21
395.408	1	21
395.579	1	17
395.749	1	13
395.920	1	12
396.091	1	23
396.262	1	20
396.432	1	17
396.603	1	25
396.774	1	25
396.945	1	20
397.115	1	25
397.286	1	18
397.457	1	18
397.627	1	19
397.798	1	18
397.969	1	9
398.140	1	13
398.310	1	18
398.481	1	24
398.652	1	16
398.823	1	14
398.993	1	18
399.164	1	11
399.335	1	20
399.505	1	24
399.676	1	20
399.847	1	19
400.018	1	13
400.188	1	11
400.359	1	15
400.530	1	20
400.700	1	17
400.871	1	11
401.042	1	16
401.213	1	14
401.383	1	17
401.554	1	25
401.725	1	24
401.895	1	8
402.066	1	21
402.237	1	18
402.408	1	21
402.578	1	20
402.749	1	30
402.920	1	22
403.090	1	13
403.261	1	22
403.432	1	13
403.603	1	28
403.773	1	35
403.944	1	25
404.115	1	22
404.285	1	40
404.456	1	17
404.627	1	22
404.797	1	19
404.968	1	15
405.139	1	22
405.310	1	25
405.480	1	17
405.651	1	11
405.822	1	19
405.992	1	16
406.163	1	22
406.334	1	8
406.504	1	22
406.675	1	38
406.846	1	29
407.016	1	28
407.187	1	32
407.358	1	7
407.528	1	14
407.699	1	8
407.870	1	17
408.041	1	24
408.211	1	27
408.382	1	24
408.553	1	19
408.723	1	22
408.894	1	28
409.065	1	17
409.235	1	17
409.406	1	36
409.577	1	16
409.747	1	30
409.918	1	19
410.089	1	20
410.259	1	27
410.430	1	17
410.601	1	14
410.771	1	20
410.942	1	34
411.113	1	27
411.283	1	13
411.454	1	17
411.625	1	22
411.795	1	29
411.966	1	17
412.137	1	15
412.307	1	11
412.478	1	22
412.649	1	25
412.819	1	15
412.990	1	22
413.161	1	21
413.331	1	10
413.502	1	19
413.672	1	22
413.843	1	17
414.014	1	19
414.184	1	31
414.355	1	25
414.526	1	20
414.696	1	32
414.867	1	16
415.038	1	15
415.208	1	24
415.379	1	29
415.550	1	31
415.720	1	20
415.891	1	19
416.062	1	17
416.232	1	11
416.403	1	23
416.573	1	23
416.744	1	13
416.915	1	25
417.085	1	16
417.256	1	18
417.427	1	19
417.597	1	29
417.768	1	6
417.939	1	19
418.109	1	6
418.280	1	31
418.450	1	23
418.621	1	6
418.792	1	23
418.962	1	18
419.133	1	24
419.304	1	16
419.474	1	14
419.645	1	25
419.815	1	16
419.986	1	21
420.157	1	15
420.327	1	26
420.498	1	39
420.669	1	18
420.839	1	33
421.010	1	34
421.180	1	26
421.351	1	19
421.522	1	17
421.692	1	24
421.863	1	17
422.033	1	22
422.204	1	25
422.375	1	9
422.545	1	26
422.716	1	10
422.886	1	10
423.057	1	19
423.228	1	17
423.398	1	15
423.569	1	31
423.740	1	20
423.910	1	8
424.081	1	25
424.251	1	16
424.422	1	26
424.593	1	7
424.763	1	24
424.934	1	23
425.104	1	23
425.275	1	14
425.445	1	12
425.616	1	11
425.787	1	13
425.957	1	22
426.128	1	23
426.298	1	16
426.469	1	7
426.640	1	19
426.810	1	13
426.981	1	13
427.151	1	19
427.322	1	21
427.493	1	28
427.663	1	25
427.834	1	21
428.004	1	27
428.175	1	21
428.345	1	16
428.516	1	10
428.687	1	28
428.857	1	11
429.028	1	15
429.198	1	23
429.369	1	22
429.540	1	15
429.710	1	13
429.881	1	22
430.051	1	11
430.222	1	14
430.392	1	15
430.563	1	36
430.734	1	31
430.904	1	23
431.075	1	21
431.245	1	7
431.416	1	24
431.586	1	17
431.757	1	16
431.927	1	17
432.098	1	24
432.269	1	17
432.439	1	23
432.610	1	13
432.780	1	15
432.951	1	20
433.121	1	24
433.292	1	26
433.462	1	17
433.633	1	15
433.804	1	13
433.974	1	15
434.145	1	35
434.315	1	11
434.486	1	14
434.656	1	21
434.827	1	17
434.997	1	10
435.168	1	22
435.339	1	22
435.509	1	19
435.680	1	14
435.850	1	18
436.021	1	10
436.191	1	19
436.362	1	19
436.532	1	10
436.703	1	10
436.873	1	13
437.044	1	3
437.214	1	19
437.385	1	18
437.556	1	15
437.726	1	29
437.897	1	31
438.067	1	16
438.238	1	15
438.408	1	27
438.579	1	10
438.749	1	18
438.920	1	12
439.090	1	20
439.261	1	15
439.431	1	10
439.602	1	15
439.772	1	8
439.943	1	23
440.113	1	23
440.284	1	14
440.455	1	17
440.625	1	13
440.796	1	24
440.966	1	15
441.137	1	10
441.307	1	19
441.478	1	28
441.648	1	21
441.819	1	19
441.989	1	15
442.160	1	23
442.330	1	21
442.501	1	19
442.671	1	9
442.842	1	-1
443.012	1	16
443.183	1	25
443.353	1	19
443.524	1	26
443.694	1	15
443.865	1	13
444.035	1	24
444.206	1	12
444.376	1	11
444.547	1	24
444.717	1	18
444.888	1	16
445.058	1	23
445.229	1	24
445.399	1	12
445.570	1	26
445.740	1	11
445.911	1	12
446.081	1	19
446.252	1	21
446.422	1	8
446.593	1	14
446.763	1	17
446.934	1	6
447.104	1	13
447.275	1	13
447.445	1	17
447.616	1	23
447.786	1	9
447.957	1	24
448.127	1	18
448.298	1	25
448.468	1	11
448.639	1	18
448.809	1	18
448.979	1	17
449.150	1	21
449.320	1	13
449.491	1	23
449.661	1	10
449.832	1	8
450.002	1	21
450.173	1	18
450.343	1	2
450.514	1	14
450.684	1	13
450.855	1	15
451.025	1	11
451.196	1	15
451.366	1	22
451.537	1	6
451.707	1	0
451.878	1	19
452.048	1	17
452.218	1	16
452.389	1	15
452.559	1	11
452.730	1	19
452.900	1	17
453.071	1	7
453.241	1	9
453.412	1	-6
453.582	1	19
453.753	1	26
453.923	1	12
454.093	1	17
454.264	1	23
454.434	1	21
454.605	1	7
454.775	1	13
454.946	1	18
455.116	1	15
455.287	1	4
455.457	1	1
455.628	1	14
455.798	1	12
455.968	1	24
456.139	1	17
456.309	1	14
456.480	1	8
456.650	1	13
456.821	1	13
456.991	1	9
457.161	1	11
457.332	1	17
457.502	1	2
457.673	1	22
457.843	1	19
458.014	1	14
458.184	1	10
458.355	1	14
458.525	1	16
458.695	1	22
458.866	1	14
459.036	1	8
459.207	1	15
459.377	1	9
459.548	1	15
459.718	1	15
459.888	1	4
460.059	1	14
460.229	1	14
460.400	1	17
460.570	1	12
460.740	1	17
460.911	1	14
461.081	1	20
461.252	1	12
461.422	1	11
461.593	1	22
461.763	1	12
461.933	1	15
462.104	1	10
462.274	1	17
462.445	1	12
462.615	1	14
462.785	1	16
462.956	1	11
463.126	1	18
463.297	1	11
463.467	1	21
463.638	1	5
463.808	1	-2
463.978	1	9
464.149	1	15
464.319	1	12
464.490	1	25
464.660	1	11
464.830	1	10
465.001	1	15
465.171	1	13
465.342	1	16
465.512	1	6
465.682	1	7
465.853	1	19
466.023	1	9
466.194	1	9
466.364	1	13
466.534	1	16
466.705	1	11
466.875	1	7
467.045	1	19
467.216	1	24
467.386	1	12
467.557	1	10
467.727	1	11
467.897	1	16
468.068	1	8
468.238	1	11
468.409	1	14
468.579	1	10
468.749	1	6
468.920	1	4
469.090	1	21
469.260	1	13
469.431	1	11
469.601	1	12
469.772	1	15
469.942	1	-1
470.112	1	8
470.283	1	10
470.453	1	11
470.623	1	10
470.794	1	8
470.964	1	20
471.135	1	11
471.305	1	5
471.475	1	17
471.646	1	4
471.816	1	1
471.986	1	12
472.157	1	16
472.327	1	6
472.497	1	12
472.668	1	4
472.838	1	21
473.009	1	14
473.179	1	6
473.349	1	-4
473.520	1	20
473.690	1	10
473.860	1	10
474.031	1	7
474.201	1	19
474.371	1	16
474.542	1	16
474.712	1	9
474.882	1	15
475.053	1	14
475.223	1	11
475.394	1	11
475.564	1	6
475.734	1	18
475.905	1	30
476.075	1	13
476.245	1	15
476.416	1	11
476.586	1	18
476.756	1	13
476.927	1	13
477.097	1	13
477.267	1	7
477.438	1	12
477.608	1	6
477.778	1	10
477.949	1	13
478.119	1	12
478.289	1	16
478.460	1	18
478.630	1	7
478.800	1	7
478.971	1	9
479.141	1	8
479.311	1	-4
479.482	1	17
479.652	1	2
479.822	1	7
479.993	1	8
480.163	1	14
480.333	1	12
480.504	1	10
480.674	1	7
480.844	1	4
481.015	1	7
481.185	1	6
481.355	1	13
481.525	1	14
481.696	1	3
481.866	1	12
482.036	1	7
482.207	1	5
482.377	1	10
482.547	1	16
482.718	1	7
482.888	1	3
483.058	1	0
483.229	1	5
483.399	1	-1
483.569	1	15
483.740	1	8
483.910	1	10
484.080	1	-1
484.250	1	6
484.421	1	11
484.591	1	16
484.761	1	12
484.932	1	16
485.102	1	15
485.272	1	19
485.443	1	12
485.613	1	7
485.783	1	2
485.953	1	6
486.124	1	10
486.294	1	4
486.464	1	12
486.635	1	13
486.805	1	16
486.975	1	4
487.146	1	10
487.316	1	3
487.486	1	8
487.656	1	5
487.827	1	4
487.997	1	2
488.167	1	9
488.338	1	18
488.508	1	5
488.678	1	6
488.848	1	22
489.019	1	2
489.189	1	4
489.359	1	-3
489.529	1	10
489.700	1	12
489.870	1	27
490.040	1	-3
490.211	1	7
490.381	1	14
490.551	1	17
490.721	1	8
490.892	1	-2
491.062	1	4
491.232	1	10
491.402	1	-1
491.573	1	2
491.743	1	8
491.913	1	13
492.084	1	5
492.254	1	5
492.424	1	10
492.594	1	0
492.765	1	3
492.935	1	10
493.105	1	20
493.275	1	17
493.446	1	13
493.616	1	20
493.786	1	10
493.956	1	3
494.127	1	5
494.297	1	-1
494.467	1	-2
494.637	1	3
494.808	1	6
494.978	1	-2
495.148	1	7
495.318	1	8
495.489	1	18
495.659	1	13
495.829	1	14
495.999	1	8
496.170	1	10
496.340	1	12
496.510	1	5
496.680	1	1
496.851	1	5
497.021	1	7
497.191	1	-1
497.361	1	6
497.532	1	-4
497.702	1	5
497.872	1	4
498.042	1	15
498.213	1	3
498.383	1	12
498.553	1	1
498.723	1	6
498.894	1	6
499.064	1	11
499.234	1	7
499.404	1	6
499.574	1	10
499.745	1	17
499.915	1	-3
500.085	1	13
500.255	1	16
500.426	1	18
500.596	1	2
500.766	1	8
500.936	1	-3
501.106	1	-1
501.277	1	9
501.447	1	7
501.617	1	4
501.787	1	1
501.958	1	2
502.128	1	6
502.298	1	7
502.468	1	10
502.638	1	5
502.809	1	8
502.979	1	2
503.149	1	4
503.319	1	5
503.489	1	2
503.660	1	8
503.830	1	4
504.000	1	19
504.170	1	1
504.340	1	1
504.511	1	5
504.681	1	-4
504.851	1	3
505.021	1	8
505.192	1	2
505.362	1	14
505.532	1	7
505.702	1	7
505.872	1	19
506.043	1	7
506.213	1	-5
506.383	1	-5
506.553	1	11
506.723	1	9
506.893	1	2
507.064	1	13
507.234	1	4
507.404	1	2
507.574	1	16
507.744	1	9
507.915	1	5
508.085	1	14
508.255	1	8
508.425	1	-5
508.595	1	12
508.766	1	13
508.936	1	-5
509.106	1	13
509.276	1	11
509.446	1	-1
509.616	1	3
509.787	1	9
509.957	1	4
510.127	1	-1
510.297	1	7
510.467	1	-7
510.638	1	9
510.808	1	-3
510.978	1	-2
511.148	1	7
511.318	1	8
511.488	1	-4
511.659	1	7
511.829	1	-7
511.999	1	6
512.169	1	15
512.339	1	3
512.509	1	10
512.680	1	2
512.850	1	-1
513.020	1	8
513.190	1	9
513.360	1	0
513.530	1	-4
513.700	1	5
513.871	1	5
514.041	1	6
514.211	1	11
514.381	1	14
514.551	1	16
514.721	1	3
514.892	1	12
515.062	1	5
515.232	1	2
515.402	1	-3
515.572	1	-1
515.742	1	10
515.912	1	3
516.083	1	5
516.253	1	5
516.423	1	9
516.593	1	0
516.763	1	13
516.933	1	-2
517.104	1	12
517.274	1	4
517.444	1	14
517.614	1	1
517.784	1	2
517.954	1	0
518.124	1	5
518.294	1	4
518.465	1	4
518.635	1	4
518.805	1	-8
518.975	1	5
519.145	1	-3
519.315	1	1
519.485	1	-3
519.656	1	14
519.826	1	1
519.996	1	0
520.166	1	8
520.336	1	11
520.506	1	-4
520.676	1	8
520.846	1	15
521.017	1	10
521.187	1	10
521.357	1	10
521.527	1	0
521.697	1	0
521.867	1	3
522.037	1	13
522.207	1	10
522.377	1	7
522.548	1	3
522.718	1	9
522.888	1	17
523.058	1	7
523.228	1	9
523.398	1	5
523.568	1	5
523.738	1	1
523.909	1	11
524.079	1	2
524.249	1	7
524.419	1	3
524.589	1	-1
524.759	1	2
524.929	1	-4
525.099	1	12
525.269	1	10
525.439	1	1
525.610	1	24
525.780	1	3
525.950	1	5
526.120	1	0
526.290	1	3
526.460	1	-5
526.630	1	10
526.800	1	5
526.970	1	3
527.140	1	2
527.311	1	3
527.481	1	-2
527.651	1	-1
527.821	1	-2
527.991	1	11
528.161	1	14
528.331	1	-1
528.501	1	15
528.671	1	-4
528.841	1	0
529.011	1	-8
529.181	1	5
529.352	1	11
529.522	1	-11
529.692	1	6
529.862	1	6
530.032	1	9
530.202	1	2
530.372	1	5
530.542	1	2
530.712	1	6
530.882	1	18
531.052	1	12
531.222	1	1
531.392	1	3
531.563	1	3
531.733	1	0
531.903	1	-3
532.073	1	17
532.243	1	0
532.413	1	13
532.583	1	-2
532.753	1	8
532.923	1	-6
533.093	1	8
533.263	1	-2
533.433	1	6
533.603	1	4
533.773	1	-6
533.943	1	-3
534.113	1	4
534.284	1	5
534.454	1	11
534.624	1	14
534.794	1	0
534.964	1	9
535.134	1	-1
535.304	1	0
535.474	1	9
535.644	1	-6
535.814	1	-6
535.984	1	-4
536.154	1	5
536.324	1	-4
536.494	1	5
536.664	1	7
536.834	1	7
537.004	1	-1
537.174	1	11
537.344	1	7
537.514	1	-5
537.685	1	-2
537.855	1	10
538.025	1	-1
538.195	1	10
538.365	1	16
538.535	1	-4
538.705	1	1
538.875	1	-1
539.045	1	-7
539.215	1	7
539.385	1	5
539.555	1	6
539.725	1	-1
539.895	1	-2
540.065	1	20
540.235	1	8
540.405	1	0
540.575	1	1
540.745	1	2
540.915	1	11
541.085	1	8
541.255	1	3
541.425	1	7
541.595	1	9
541.765	1	-3
541.935	1	2
542.105	1	-1
542.275	1	5
542.445	1	-13
542.615	1	6
542.785	1	4
542.955	1	0
543.125	1	-4
543.295	1	11
543.465	1	10
543.635	1	3
543.805	1	11
543.975	1	5
544.145	1	9
544.315	1	5
544.485	1	7
544.655	1	0
544.825	1	-5
544.995	1	0
545.165	1	2
545.335	1	5
545.505	1	-4
545.675	1	4
545.845	1	8
546.015	1	7
546.185	1	12
546.355	1	1
546.525	1	7
546.695	1	5
546.865	1	2
547.035	1	8
547.205	1	-11
547.375	1	4
547.545	1	7
547.715	1	5
547.885	1	8
548.055	1	2
548.225	1	5
548.395	1	0
548.565	1	8
548.735	1	4
548.905	1	2
549.075	1	3
549.245	1	-6
549.415	1	-6
549.585	1	2
549.755	1	6
549.925	1	-2
550.095	1	7
550.265	1	-2
550.435	1	-1
550.605	1	-3
550.775	1	6
550.945	1	12
551.115	1	-4
551.285	1	4
551.455	1	-2
551.625	1	9
551.795	1	15
551.965	1	0
552.135	1	-3
552.305	1	-1
552.475	1	-4
552.645	1	-1
552.815	1	4
552.985	1	1
553.155	1	18
553.325	1	10
553.495	1	-3
553.665	1	5
553.835	1	2
554.004	1	7
554.174	1	-7
554.344	1	-1
554.514	1	0
554.684	1	2
554.854	1	11
555.024	1	3
555.194	1	0
555.364	1	6
555.534	1	3
555.704	1	0
555.874	1	9
556.044	1	5
556.214	1	3
556.384	1	0
556.554	1	12
556.724	1	7
556.894	1	-4
557.064	1	0
557.234	1	-1
557.404	1	12
557.573	1	3
557.743	1	0
557.913	1	2
558.083	1	-1
558.253	1	5
558.423	1	-1
558.593	1	1
558.763	1	5
558.933	1	1
559.103	1	6
559.273	1	5
559.443	1	-5
559.613	1	1
559.783	1	1
559.953	1	-8
560.122	1	17
560.292	1	7
560.462	1	0
560.632	1	7
560.802	1	3
560.972	1	2
561.142	1	8
561.312	1	5
561.482	1	2
561.652	1	5
561.822	1	3
561.992	1	0
562.162	1	-3
562.331	1	5
562.501	1	-2
562.671	1	9
562.841	1	-1
563.011	1	7
563.181	1	2
563.351	1	-5
563.521	1	3
563.691	1	2
563.861	1	6
564.031	1	13
564.201	1	12
564.370	1	-14
564.540	1	9
564.710	1	3
564.880	1	8
565.050	1	11
565.220	1	-6
565.390	1	10
565.560	1	8
565.730	1	-6
565.900	1	2
566.069	1	11
566.239	1	3
566.409	1	8
566.579	1	13
566.749	1	0
566.919	1	4
567.089	1	0
567.259	1	9
567.429	1	8
567.599	1	3
567.768	1	4
567.938	1	2
568.108	1	-1
568.278	1	2
568.448	1	-6
568.618	1	3
568.788	1	4
568.958	1	5
569.128	1	11
569.297	1	2
569.467	1	-4
569.637	1	14
569.807	1	-6
569.977	1	10
570.147	1	7
570.317	1	-7
570.487	1	10
570.656	1	8
570.826	1	0
570.996	1	-4
571.166	1	18
571.336	1	2
571.506	1	4
571.676	1	5
571.846	1	5
572.015	1	3
572.185	1	2
572.355	1	3
572.525	1	2
572.695	1	1
572.865	1	-4
573.035	1	3
573.205	1	1
573.374	1	-3
573.544	1	0
573.714	1	11
573.884	1	7
574.054	1	-2
574.224	1	-2
574.394	1	4
574.563	1	-2
574.733	1	-3
574.903	1	12
575.073	1	1
575.243	1	5
575.413	1	12
575.583	1	-4
575.752	1	13
575.922	1	6
576.092	1	2
576.262	1	12
576.432	1	6
576.602	1	4
576.772	1	10
576.941	1	8
577.111	1	0
577.281	1	-3
577.451	1	3
577.621	1	8
577.791	1	8
577.960	1	-1
578.130	1	6
578.300	1	5
578.470	1	12
578.640	1	2
578.810	1	6
578.979	1	-3
579.149	1	-8
579.319	1	-2
579.489	1	-4
579.659	1	-5
579.829	1	0
579.998	1	3
580.168	1	3
580.338	1	3
580.508	1	-1
580.678	1	-2
580.848	1	2
581.017	1	-3
581.187	1	4
581.357	1	-4
581.527	1	12
581.697	1	6
581.867	1	-3
582.036	1	1
582.206	1	2
582.376	1	4
582.546	1	-3
582.716	1	-3
582.885	1	-8
583.055	1	2
583.225	1	-12
583.395	1	3
583.565	1	-2
583.735	1	-4
583.904	1	7
584.074	1	4
584.244	1	6
584.414	1	0
584.584	1	9
584.753	1	-2
584.923	1	1
585.093	1	-1
585.263	1	-4
585.433	1	3
585.602	1	-4
585.772	1	-6
585.942	1	-1
586.112	1	-1
586.282	1	5
586.451	1	-1
586.621	1	12
586.791	1	-1
586.961	1	-2
587.131	1	2
587.300	1	-3
587.470	1	15
587.640	1	11
587.810	1	6
587.980	1	-1
588.149	1	6
588.319	1	9
588.489	1	10
588.659	1	4
588.829	1	9
588.998	1	13
589.168	1	2
589.338	1	0
589.508	1	6
589.677	1	-9
589.847	1	3
590.017	1	14
590.187	1	-2
590.357	1	1
590.526	1	11
590.696	1	5
590.866	1	0
591.036	1	2
591.205	1	14
591.375	1	-3
591.545	1	-3
591.715	1	13
591.885	1	3
592.054	1	10
592.224	1	6
592.394	1	-1
592.564	1	3
592.733	1	8
592.903	1	6
593.073	1	8
593.243	1	6
593.412	1	5
593.582	1	4
593.752	1	-1
593.922	1	4
594.091	1	-7
594.261	1	3
594.431	1	3
594.601	1	9
594.771	1	11
594.940	1	-3
595.110	1	-5
595.280	1	1
595.450	1	-1
595.619	1	5
595.789	1	5
595.959	1	14
596.129	1	0
596.298	1	3
596.468	1	2
596.638	1	3
596.808	1	0
596.977	1	3
597.147	1	9
597.317	1	-9
597.487	1	8
597.656	1	11
597.826	1	5
597.996	1	6
598.166	1	4
598.335	1	-5
598.505	1	0
598.675	1	-3
598.844	1	-1
599.014	1	-2
599.184	1	4
599.354	1	-3
599.523	1	11
599.693	1	-3
599.863	1	5
600.033	1	3
600.202	1	1
600.372	1	1
600.542	1	9
600.712	1	-1
600.881	1	-1
601.051	1	14
601.221	1	11
601.390	1	2
601.560	1	-3
601.730	1	3
601.900	1	4
602.069	1	6
602.239	1	-4
602.409	1	3
602.578	1	1
602.748	1	5
602.918	1	14
603.088	1	7
603.257	1	6
603.427	1	-7
603.597	1	1
603.767	1	10
603.936	1	6
604.106	1	6
604.276	1	-1
604.445	1	14
604.615	1	-1
604.785	1	4
604.954	1	-2
605.124	1	5
605.294	1	-3
605.464	1	-5
605.633	1	3
605.803	1	7
605.973	1	1
606.142	1	2
606.312	1	15
606.482	1	5
606.652	1	10
606.821	1	0
606.991	1	-4
607.161	1	3
607.330	1	5
607.500	1	-2
607.670	1	-6
607.839	1	12
608.009	1	10
608.179	1	7
608.348	1	-1
608.518	1	8
608.688	1	10
608.858	1	5
609.027	1	-8
609.197	1	7
609.367	1	3
609.536	1	9
609.706	1	-2
609.876	1	3
610.045	1	-3
610.215	1	5
610.385	1	1
610.554	1	7
610.724	1	7
610.894	1	1
611.063	1	1
611.233	1	-4
611.403	1	1
611.572	1	-2
611.742	1	1
611.912	1	-2
612.081	1	-2
612.251	1	8
612.421	1	2
612.590	1	-3
612.760	1	-2
612.930	1	9
613.099	1	-1
613.269	1	13
613.439	1	-1
613.608	1	6
613.778	1	-3
613.948	1	10
614.117	1	3
614.287	1	13
614.457	1	6
614.626	1	5
614.796	1	-3
614.966	1	-1
615.135	1	-1
615.305	1	4
615.475	1	8
615.644	1	6
615.814	1	3
615.984	1	-2
616.153	1	1
616.323	1	4
616.493	1	-5
616.662	1	13
616.832	1	6
617.002	1	-2
617.171	1	1
617.341	1	3
617.511	1	-2
617.680	1	-1
617.850	1	6
618.019	1	13
618.189	1	16
618.359	1	3
618.528	1	6
618.698	1	7
618.868	1	-2
619.037	1	5
619.207	1	-1
619.377	1	-5
619.546	1	-5
619.716	1	6
619.885	1	14
620.055	1	-14
620.225	1	10
620.394	1	-4
620.564	1	4
620.734	1	5
620.903	1	-3
621.073	1	10
621.242	1	13
621.412	1	-5
621.582	1	-7
621.751	1	5
621.921	1	3
622.091	1	-4
622.260	1	5
622.430	1	1
622.599	1	1
622.769	1	4
622.939	1	11
623.108	1	-2
623.278	1	0
623.448	1	1
623.617	1	6
623.787	1	7
623.956	1	9
624.126	1	2
624.296	1	3
624.465	1	-4
624.635	1	13
624.804	1	4
624.974	1	-1
625.144	1	7
625.313	1	-2
625.483	1	6
625.652	1	-5
625.822	1	-7
625.992	1	-1
626.161	1	16
626.331	1	0
626.501	1	0
626.670	1	2
626.840	1	0
627.009	1	-1
627.179	1	15
627.348	1	17
627.518	1	12
627.688	1	8
627.857	1	8
628.027	1	-4
628.196	1	6
628.366	1	5
628.536	1	2
628.705	1	-4
628.875	1	8
629.044	1	-1
629.214	1	2
629.384	1	3
629.553	1	15
629.723	1	-1
629.892	1	6
630.062	1	7
630.232	1	3
630.401	1	-1
630.571	1	-3
630.740	1	6
630.910	1	1
631.079	1	0
631.249	1	5
631.419	1	3
631.588	1	-8
631.758	1	7
631.927	1	0
632.097	1	3
632.266	1	0
632.436	1	0
632.606	1	1
632.775	1	7
632.945	1	2
633.114	1	17
633.284	1	8
633.453	1	0
633.623	1	-3
633.793	1	7
633.962	1	-2
634.132	1	1
634.301	1	-1
634.471	1	13
634.640	1	12
634.810	1	6
634.979	1	-2
635.149	1	2
635.319	1	1
635.488	1	4
635.658	1	4
635.827	1	-1
635.997	1	10
636.166	1	8
636.336	1	3
636.505	1	7
636.675	1	-7
636.845	1	7
637.014	1	4
637.184	1	7
637.353	1	9
637.523	1	12
637.692	1	4
637.862	1	1
638.031	1	4
638.201	1	7
638.370	1	6
638.540	1	2
638.710	1	3
638.879	1	-12
639.049	1	8
639.218	1	4
639.388	1	-10
639.557	1	0
639.727	1	3
639.896	1	3
640.066	1	10
640.235	1	9
640.405	1	6
640.574	1	4
640.744	1	4
640.914	1	2
641.083	1	4
641.253	1	2
641.422	1	3
641.592	1	14
641.761	1	6
641.931	1	3
642.100	1	18
642.270	1	2
642.439	1	-1
642.609	1	13
642.778	1	6
642.948	1	-7
643.117	1	3
643.287	1	7
643.456	1	-9
643.626	1	9
643.795	1	-7
643.965	1	6
644.134	1	2
644.304	1	-5
644.473	1	3
644.643	1	7
644.812	1	3
644.982	1	4
645.151	1	6
645.321	1	-6
645.490	1	6
645.660	1	-1
645.829	1	7
645.999	1	1
646.168	1	10
646.338	1	5
646.507	1	-1
646.677	1	8
646.846	1	-5
647.016	1	-2
647.185	1	3
647.355	1	-10
647.524	1	12
647.694	1	15
647.863	1	5
648.033	1	3
648.202	1	6
648.372	1	1
648.541	1	0
648.711	1	8
648.880	1	-3
649.050	1	0
649.219	1	-2
649.389	1	11
649.558	1	6
649.728	1	3
649.897	1	-9
650.067	1	6
650.236	1	1
650.406	1	-3
650.575	1	8
650.745	1	0
650.914	1	2
651.084	1	-4
651.253	1	5
651.423	1	8
651.592	1	-2
651.762	1	-4
651.931	1	16
652.101	1	12
652.270	1	8
652.440	1	2
652.609	1	0
652.778	1	2
652.948	1	17
653.117	1	4
653.287	1	9
653.456	1	8
653.626	1	15
653.795	1	5
653.965	1	5
654.134	1	14
654.304	1	-12
654.473	1	7
654.643	1	1
654.812	1	8
654.982	1	9
655.151	1	-9
655.320	1	6
655.490	1	-1
655.659	1	1
655.829	1	2
655.998	1	-2
656.168	1	6
656.337	1	3
656.507	1	16
656.676	1	11
656.846	1	11
657.015	1	11
657.184	1	9
657.354	1	2
657.523	1	7
657.693	1	17
657.862	1	6
658.032	1	-1
658.201	1	10
658.371	1	7
658.540	1	8
658.709	1	0
658.879	1	19
659.048	1	1
659.218	1	6
659.387	1	4
659.557	1	8
659.726	1	9
659.895	1	1
660.065	1	-1
660.234	1	2
660.404	1	10
660.573	1	7
660.743	1	0
660.912	1	12
661.081	1	12
661.251	1	-3
661.420	1	1
661.590	1	7
661.759	1	11
661.929	1	4
662.098	1	11
662.267	1	0
662.437	1	12
662.606	1	4
662.776	1	0
662.945	1	-1
663.115	1	3
663.284	1	6
663.453	1	12
663.623	1	4
663.792	1	-2
663.962	1	6
664.131	1	5
664.300	1	3
664.470	1	-2
664.639	1	15
664.809	1	2
664.978	1	22
665.148	1	0
665.317	1	4
665.486	1	15
665.656	1	2
665.825	1	6
665.995	1	1
666.164	1	0
666.333	1	5
666.503	1	6
666.672	1	1
666.842	1	-6
667.011	1	3
667.180	1	6
667.350	1	-1
667.519	1	7
667.689	1	3
667.858	1	7
668.027	1	13
668.197	1	8
668.366	1	-5
668.536	1	12
668.705	1	9
668.874	1	5
669.044	1	6
669.213	1	16
669.382	1	8
669.552	1	15
669.721	1	7
669.891	1	9
670.060	1	6
670.229	1	17
670.399	1	4
670.568	1	15
670.738	1	15
670.907	1	0
671.076	1	-2
671.246	1	5
671.415	1	10
671.584	1	-3
671.754	1	0
671.923	1	4
672.093	1	5
672.262	1	-2
672.431	1	2
672.601	1	1
672.770	1	-12
672.939	1	11
673.109	1	1
673.278	1	8
673.448	1	8
673.617	1	2
673.786	1	4
