325.333	1	5
325.504	1	1
325.675	1	12
325.846	1	1
326.017	1	11
326.188	1	8
326.359	1	1
326.531	1	-11
326.702	1	11
326.873	1	22
327.044	1	4
327.215	1	-3
327.386	1	7
327.557	1	0
327.728	1	-4
327.899	1	8
328.070	1	17
328.241	1	9
328.412	1	-12
328.583	1	12
328.754	1	2
328.926	1	14
329.097	1	0
329.268	1	13
329.439	1	-6
329.610	1	3
329.781	1	-1
329.952	1	13
330.123	1	1
330.294	1	-3
330.465	1	-5
330.636	1	4
330.807	1	-6
330.978	1	1
331.149	1	1
331.320	1	5
331.492	1	6
331.663	1	15
331.834	1	10
332.005	1	3
332.176	1	18
332.347	1	13
332.518	1	-12
332.689	1	11
332.860	1	5
333.031	1	19
333.202	1	2
333.373	1	6
333.544	1	4
333.715	1	15
333.886	1	-4
334.057	1	4
334.228	1	4
334.399	1	8
334.570	1	6
334.741	1	3
334.912	1	6
335.084	1	23
335.255	1	4
335.426	1	-5
335.597	1	-1
335.768	1	3
335.939	1	7
336.110	1	1
336.281	1	-7
336.452	1	0
336.623	1	3
336.794	1	11
336.965	1	3
337.136	1	2
337.307	1	-3
337.478	1	-8
337.649	1	7
337.820	1	-1
337.991	1	2
338.162	1	9
338.333	1	13
338.504	1	12
338.675	1	10
338.846	1	7
339.017	1	-3
339.188	1	-6
339.359	1	-7
339.530	1	6
339.701	1	5
339.872	1	15
340.043	1	4
340.214	1	8
340.385	1	9
340.556	1	-8
340.727	1	10
340.898	1	14
341.069	1	5
341.240	1	0
341.411	1	3
341.582	1	1
341.753	1	0
341.924	1	4
342.095	1	9
342.266	1	11
342.437	1	17
342.608	1	1
342.779	1	14
342.950	1	11
343.121	1	6
343.292	1	5
343.463	1	2
343.634	1	9
343.805	1	6
343.976	1	10
344.147	1	8
344.318	1	9
344.489	1	4
344.660	1	21
344.831	1	7
345.002	1	1
345.173	1	10
345.344	1	6
345.515	1	13
345.686	1	2
345.857	1	11
346.028	1	10
346.199	1	-1
346.370	1	1
346.541	1	7
346.712	1	-1
346.883	1	2
347.054	1	1
347.225	1	9
347.396	1	5
347.567	1	9
347.738	1	0
347.909	1	24
348.080	1	5
348.251	1	5
348.422	1	16
348.593	1	5
348.764	1	10
348.935	1	7
349.106	1	4
349.277	1	1
349.448	1	15
349.619	1	6
349.790	1	7
349.961	1	7
350.132	1	12
350.303	1	5
350.474	1	19
350.645	1	9
350.816	1	9
350.987	1	12
351.157	1	6
351.328	1	23
351.499	1	9
351.670	1	7
351.841	1	11
352.012	1	14
352.183	1	10
352.354	1	11
352.525	1	21
352.696	1	17
352.867	1	18
353.038	1	15
353.209	1	17
353.380	1	9
353.551	1	3
353.722	1	0
353.893	1	11
354.064	1	14
354.235	1	3
354.406	1	3
354.576	1	10
354.747	1	11
354.918	1	12
355.089	1	7
355.260	1	8
355.431	1	9
355.602	1	4
355.773	1	4
355.944	1	18
356.115	1	7
356.286	1	14
356.457	1	13
356.628	1	18
356.799	1	5
356.970	1	20
357.141	1	14
357.311	1	2
357.482	1	7
357.653	1	13
357.824	1	16
357.995	1	21
358.166	1	1
358.337	1	15
358.508	1	18
358.679	1	10
358.850	1	20
359.021	1	11
359.192	1	7
359.363	1	5
359.533	1	0
359.704	1	14
359.875	1	11
360.046	1	13
360.217	1	6
360.388	1	11
360.559	1	5
360.730	1	10
360.901	1	17
361.072	1	17
361.243	1	10
361.414	1	10
361.584	1	11
361.755	1	10
361.926	1	1
362.097	1	17
362.268	1	9
362.439	1	6
362.610	1	21
362.781	1	17
362.952	1	8
363.123	1	14
363.293	1	11
363.464	1	14
363.635	1	18
363.806	1	5
363.977	1	12
364.148	1	9
364.319	1	11
364.490	1	10
364.661	1	14
364.832	1	20
365.002	1	13
365.173	1	15
365.344	1	14
365.515	1	12
365.686	1	3
365.857	1	13
366.028	1	22
366.199	1	10
366.370	1	11
366.540	1	14
366.711	1	0
366.882	1	2
367.053	1	5
367.224	1	15
367.395	1	18
367.566	1	11
367.737	1	16
367.908	1	15
368.078	1	15
368.249	1	20
368.420	1	0
368.591	1	4
368.762	1	23
368.933	1	11
369.104	1	1
369.274	1	4
369.445	1	16
369.616	1	16
369.787	1	12
369.958	1	16
370.129	1	8
370.300	1	9
370.471	1	9
370.641	1	13
370.812	1	12
370.983	1	3
371.154	1	5
371.325	1	21
371.496	1	23
371.667	1	19
371.837	1	15
372.008	1	12
372.179	1	5
372.350	1	27
372.521	1	14
372.692	1	8
372.863	1	22
373.033	1	5
373.204	1	21
373.375	1	23
373.546	1	17
373.717	1	11
373.888	1	17
374.059	1	24
374.229	1	16
374.400	1	9
374.571	1	13
374.742	1	22
374.913	1	12
375.084	1	7
375.254	1	22
375.425	1	13
375.596	1	17
375.767	1	10
375.938	1	13
376.109	1	18
376.279	1	3
376.450	1	14
376.621	1	21
376.792	1	14
376.963	1	16
377.134	1	20
377.304	1	21
377.475	1	17
377.646	1	20
377.817	1	17
377.988	1	11
378.159	1	13
378.329	1	27
378.500	1	12
378.671	1	7
378.842	1	16
379.013	1	14
379.184	1	1
379.354	1	14
379.525	1	19
379.696	1	17
379.867	1	20
380.038	1	13
380.209	1	26
380.379	1	21
380.550	1	6
380.721	1	18
380.892	1	20
381.063	1	6
381.233	1	22
381.404	1	17
381.575	1	22
381.746	1	24
381.917	1	17
382.087	1	18
382.258	1	13
382.429	1	18
382.600	1	30
382.771	1	6
382.941	1	10
383.112	1	18
383.283	1	24
383.454	1	15
383.625	1	13
383.795	1	11
383.966	1	16
384.137	1	22
384.308	1	17
384.479	1	22
384.649	1	21
384.820	1	17
384.991	1	9
385.162	1	18
385.333	1	10
385.503	1	10
385.674	1	5
385.845	1	22
386.016	1	10
386.187	1	21
386.357	1	22
386.528	1	18
386.699	1	15
386.870	1	33
387.041	1	18
387.211	1	27
387.382	1	20
387.553	1	26
387.724	1	2
387.894	1	13
388.065	1	23
388.236	1	19
388.407	1	7
388.578	1	16
388.748	1	12
388.919	1	23
389.090	1	13
389.261	1	16
389.431	1	17
389.602	1	23
389.773	1	17
389.944	1	18
390.114	1	17
390.285	1	17
390.456	1	16
390.627	1	16
390.798	1	13
390.968	1	18
391.139	1	17
391.310	1	21
391.481	1	23
391.651	1	17
391.822	1	7
391.993	1	20
392.164	1	12
392.334	1	11
392.505	1	17
392.676	1	18
392.847	1	20
393.017	1	16
393.188	1	26
393.359	1	9
393.530	1	16
393.700	1	21
393.871	1	21
394.042	1	19
394.213	1	18
394.383	1	13
394.554	1	12
394.725	1	29
394.896	1	13
395.066	1	20
395.237	1	11
395.408	1	19
395.579	1	11
395.749	1	17
395.920	1	12
396.091	1	22
396.262	1	11
396.432	1	24
396.603	1	25
396.774	1	26
396.945	1	21
397.115	1	20
397.286	1	25
397.457	1	18
397.627	1	16
397.798	1	16
397.969	1	15
398.140	1	13
398.310	1	16
398.481	1	13
398.652	1	19
398.823	1	12
398.993	1	22
399.164	1	14
399.335	1	17
399.505	1	14
399.676	1	14
399.847	1	16
400.018	1	13
400.188	1	21
400.359	1	36
400.530	1	18
400.700	1	12
400.871	1	22
401.042	1	9
401.213	1	18
401.383	1	18
401.554	1	25
401.725	1	31
401.895	1	20
402.066	1	21
402.237	1	21
402.408	1	13
402.578	1	25
402.749	1	23
402.920	1	18
403.090	1	16
403.261	1	18
403.432	1	22
403.603	1	26
403.773	1	27
403.944	1	24
404.115	1	30
404.285	1	22
404.456	1	15
404.627	1	12
404.797	1	12
404.968	1	21
405.139	1	13
405.310	1	24
405.480	1	22
405.651	1	21
405.822	1	16
405.992	1	7
406.163	1	18
406.334	1	6
406.504	1	19
406.675	1	26
406.846	1	20
407.016	1	28
407.187	1	29
407.358	1	15
407.528	1	15
407.699	1	8
407.870	1	5
408.041	1	27
408.211	1	28
408.382	1	15
408.553	1	14
408.723	1	24
408.894	1	18
409.065	1	26
409.235	1	13
409.406	1	21
409.577	1	10
409.747	1	21
409.918	1	19
410.089	1	12
410.259	1	20
410.430	1	18
410.601	1	17
410.771	1	20
410.942	1	29
411.113	1	25
411.283	1	17
411.454	1	18
411.625	1	27
411.795	1	23
411.966	1	24
412.137	1	14
412.307	1	18
412.478	1	24
412.649	1	27
412.819	1	14
412.990	1	10
413.161	1	24
413.331	1	16
413.502	1	21
413.672	1	14
413.843	1	20
414.014	1	21
414.184	1	25
414.355	1	28
414.526	1	17
414.696	1	25
414.867	1	23
415.038	1	14
415.208	1	24
415.379	1	30
415.550	1	31
415.720	1	18
415.891	1	22
416.062	1	19
416.232	1	23
416.403	1	24
416.573	1	18
416.744	1	14
416.915	1	33
417.085	1	22
417.256	1	15
417.427	1	19
417.597	1	20
417.768	1	16
417.939	1	19
418.109	1	17
418.280	1	22
418.450	1	14
418.621	1	13
418.792	1	16
418.962	1	31
419.133	1	25
419.304	1	21
419.474	1	12
419.645	1	26
419.815	1	16
419.986	1	21
420.157	1	20
420.327	1	22
420.498	1	28
420.669	1	16
420.839	1	26
421.010	1	25
421.180	1	25
421.351	1	21
421.522	1	24
421.692	1	18
421.863	1	21
422.033	1	23
422.204	1	14
422.375	1	8
422.545	1	27
422.716	1	26
422.886	1	17
423.057	1	28
423.228	1	21
423.398	1	15
423.569	1	23
423.740	1	18
423.910	1	13
424.081	1	23
424.251	1	8
424.422	1	25
424.593	1	18
424.763	1	24
424.934	1	7
425.104	1	15
425.275	1	16
425.445	1	19
425.616	1	14
425.787	1	17
425.957	1	18
426.128	1	22
426.298	1	17
426.469	1	13
426.640	1	23
426.810	1	20
426.981	1	11
427.151	1	18
427.322	1	17
427.493	1	20
427.663	1	17
427.834	1	17
428.004	1	26
428.175	1	27
428.345	1	16
428.516	1	11
428.687	1	16
428.857	1	16
429.028	1	18
429.198	1	14
429.369	1	45
429.540	1	19
429.710	1	5
429.881	1	34
430.051	1	22
430.222	1	18
430.392	1	16
430.563	1	22
430.734	1	18
430.904	1	27
431.075	1	31
431.245	1	8
431.416	1	22
431.586	1	6
431.757	1	11
431.927	1	24
432.098	1	18
432.269	1	15
432.439	1	15
432.610	1	17
432.780	1	25
432.951	1	17
433.121	1	20
433.292	1	19
433.462	1	22
433.633	1	16
433.804	1	16
433.974	1	22
434.145	1	36
434.315	1	21
434.486	1	19
434.656	1	23
434.827	1	13
434.997	1	4
435.168	1	23
435.339	1	17
435.509	1	21
435.680	1	15
435.850	1	22
436.021	1	13
436.191	1	21
436.362	1	30
436.532	1	24
436.703	1	17
436.873	1	15
437.044	1	8
437.214	1	19
437.385	1	5
437.556	1	15
437.726	1	34
437.897	1	33
438.067	1	19
438.238	1	22
438.408	1	23
438.579	1	4
438.749	1	8
438.920	1	11
439.090	1	20
439.261	1	6
439.431	1	9
439.602	1	19
439.772	1	16
439.943	1	18
440.113	1	20
440.284	1	17
440.455	1	16
440.625	1	13
440.796	1	21
440.966	1	7
441.137	1	16
441.307	1	8
441.478	1	26
441.648	1	22
441.819	1	19
441.989	1	21
442.160	1	21
442.330	1	22
442.501	1	13
442.671	1	10
442.842	1	3
443.012	1	15
443.183	1	19
443.353	1	16
443.524	1	16
443.694	1	22
443.865	1	12
444.035	1	25
444.206	1	19
444.376	1	18
444.547	1	20
444.717	1	13
444.888	1	10
445.058	1	17
445.229	1	12
445.399	1	10
445.570	1	21
445.740	1	7
445.911	1	19
446.081	1	14
446.252	1	21
446.422	1	3
446.593	1	6
446.763	1	18
446.934	1	13
447.104	1	21
447.275	1	15
447.445	1	21
447.616	1	20
447.786	1	8
447.957	1	13
448.127	1	23
448.298	1	11
448.468	1	10
448.639	1	19
448.809	1	18
448.979	1	5
449.150	1	16
449.320	1	28
449.491	1	25
449.661	1	13
449.832	1	11
450.002	1	20
450.173	1	12
450.343	1	14
450.514	1	16
450.684	1	16
450.855	1	10
451.025	1	16
451.196	1	20
451.366	1	15
451.537	1	8
451.707	1	-1
451.878	1	15
452.048	1	24
452.218	1	22
452.389	1	22
452.559	1	13
452.730	1	16
452.900	1	20
453.071	1	10
453.241	1	5
453.412	1	13
453.582	1	15
453.753	1	15
453.923	1	11
454.093	1	22
454.264	1	19
454.434	1	9
454.605	1	23
454.775	1	14
454.946	1	17
455.116	1	8
455.287	1	4
455.457	1	6
455.628	1	12
455.798	1	12
455.968	1	18
456.139	1	18
456.309	1	17
456.480	1	7
456.650	1	9
456.821	1	15
456.991	1	12
457.161	1	7
457.332	1	18
457.502	1	8
457.673	1	21
457.843	1	18
458.014	1	18
458.184	1	13
458.355	1	5
458.525	1	15
458.695	1	24
458.866	1	2
459.036	1	18
459.207	1	17
459.377	1	3
459.548	1	20
459.718	1	1
459.888	1	19
460.059	1	7
460.229	1	19
460.400	1	22
460.570	1	19
460.740	1	9
460.911	1	11
461.081	1	15
461.252	1	2
461.422	1	12
461.593	1	5
461.763	1	11
461.933	1	12
462.104	1	10
462.274	1	9
462.445	1	17
462.615	1	7
462.785	1	15
462.956	1	15
463.126	1	16
463.297	1	11
463.467	1	14
463.638	1	16
463.808	1	2
463.978	1	1
464.149	1	16
464.319	1	11
464.490	1	24
464.660	1	3
464.830	1	12
465.001	1	13
465.171	1	19
465.342	1	16
465.512	1	-2
465.682	1	4
465.853	1	8
466.023	1	21
466.194	1	7
466.364	1	24
466.534	1	21
466.705	1	7
466.875	1	9
467.045	1	8
467.216	1	25
467.386	1	10
467.557	1	4
467.727	1	11
467.897	1	3
468.068	1	15
468.238	1	13
468.409	1	11
468.579	1	1
468.749	1	8
468.920	1	2
469.090	1	10
469.260	1	4
469.431	1	11
469.601	1	14
469.772	1	17
469.942	1	2
470.112	1	18
470.283	1	16
470.453	1	4
470.623	1	0
470.794	1	4
470.964	1	15
471.135	1	7
471.305	1	3
471.475	1	14
471.646	1	11
471.816	1	0
471.986	1	11
472.157	1	21
472.327	1	1
472.497	1	10
472.668	1	3
472.838	1	5
473.009	1	12
473.179	1	3
473.349	1	10
473.520	1	12
473.690	1	11
473.860	1	10
474.031	1	6
474.201	1	12
474.371	1	15
474.542	1	15
474.712	1	17
474.882	1	11
475.053	1	19
475.223	1	8
475.394	1	22
475.564	1	4
475.734	1	9
475.905	1	16
476.075	1	11
476.245	1	12
476.416	1	16
476.586	1	16
476.756	1	15
476.927	1	11
477.097	1	17
477.267	1	9
477.438	1	14
477.608	1	6
477.778	1	11
477.949	1	20
478.119	1	10
478.289	1	19
478.460	1	19
478.630	1	19
478.800	1	2
478.971	1	13
479.141	1	7
479.311	1	-3
479.482	1	7
479.652	1	-2
479.822	1	7
479.993	1	12
480.163	1	17
480.333	1	10
480.504	1	9
480.674	1	8
480.844	1	-1
481.015	1	11
481.185	1	9
481.355	1	19
481.525	1	10
481.696	1	7
481.866	1	14
482.036	1	9
482.207	1	-3
482.377	1	0
482.547	1	16
482.718	1	0
482.888	1	13
483.058	1	8
483.229	1	-5
483.399	1	1
483.569	1	6
483.740	1	18
483.910	1	7
484.080	1	9
484.250	1	7
484.421	1	10
484.591	1	7
484.761	1	19
484.932	1	18
485.102	1	12
485.272	1	13
485.443	1	18
485.613	1	12
485.783	1	13
485.953	1	3
486.124	1	10
486.294	1	13
486.464	1	14
486.635	1	5
486.805	1	18
486.975	1	3
487.146	1	17
487.316	1	6
487.486	1	4
487.656	1	10
487.827	1	7
487.997	1	0
488.167	1	2
488.338	1	18
488.508	1	1
488.678	1	8
488.848	1	9
489.019	1	10
489.189	1	12
489.359	1	5
489.529	1	3
489.700	1	19
489.870	1	26
490.040	1	6
490.211	1	2
490.381	1	13
490.551	1	5
490.721	1	14
490.892	1	7
491.062	1	12
491.232	1	10
491.402	1	7
491.573	1	-9
491.743	1	0
491.913	1	3
492.084	1	12
492.254	1	8
492.424	1	5
492.594	1	7
492.765	1	6
492.935	1	4
493.105	1	13
493.275	1	10
493.446	1	18
493.616	1	23
493.786	1	5
493.956	1	5
494.127	1	2
494.297	1	4
494.467	1	5
494.637	1	8
494.808	1	3
494.978	1	-8
495.148	1	4
495.318	1	7
495.489	1	14
495.659	1	11
495.829	1	2
495.999	1	0
496.170	1	9
496.340	1	11
496.510	1	15
496.680	1	-1
496.851	1	6
497.021	1	8
497.191	1	-3
497.361	1	-3
497.532	1	5
497.702	1	7
497.872	1	11
498.042	1	17
498.213	1	9
498.383	1	5
498.553	1	1
498.723	1	5
498.894	1	6
499.064	1	8
499.234	1	14
499.404	1	7
499.574	1	5
499.745	1	10
499.915	1	5
500.085	1	7
500.255	1	8
500.426	1	7
500.596	1	13
500.766	1	10
500.936	1	14
501.106	1	6
501.277	1	12
501.447	1	5
501.617	1	9
501.787	1	0
501.958	1	-6
502.128	1	1
502.298	1	4
502.468	1	13
502.638	1	9
502.809	1	0
502.979	1	-1
503.149	1	4
503.319	1	5
503.489	1	11
503.660	1	8
503.830	1	6
504.000	1	14
504.170	1	6
504.340	1	6
504.511	1	7
504.681	1	-1
504.851	1	10
505.021	1	4
505.192	1	-4
505.362	1	12
505.532	1	10
505.702	1	5
505.872	1	5
506.043	1	5
506.213	1	3
506.383	1	5
506.553	1	14
506.723	1	6
506.893	1	7
507.064	1	11
507.234	1	7
507.404	1	2
507.574	1	-5
507.744	1	10
507.915	1	9
508.085	1	15
508.255	1	10
508.425	1	8
508.595	1	11
508.766	1	10
508.936	1	-2
509.106	1	12
509.276	1	8
509.446	1	-2
509.616	1	5
509.787	1	5
509.957	1	6
510.127	1	5
510.297	1	11
510.467	1	1
510.638	1	2
510.808	1	-5
510.978	1	6
511.148	1	7
511.318	1	1
511.488	1	-5
511.659	1	12
511.829	1	0
511.999	1	4
512.169	1	2
512.339	1	10
512.509	1	-2
512.680	1	-2
512.850	1	-1
513.020	1	6
513.190	1	13
513.360	1	1
513.530	1	10
513.700	1	8
513.871	1	-1
514.041	1	7
514.211	1	13
514.381	1	10
514.551	1	0
514.721	1	4
514.892	1	1
515.062	1	7
515.232	1	13
515.402	1	1
515.572	1	-2
515.742	1	6
515.912	1	11
516.083	1	4
516.253	1	14
516.423	1	5
516.593	1	5
516.763	1	11
516.933	1	7
517.104	1	13
517.274	1	4
517.444	1	7
517.614	1	-6
517.784	1	1
517.954	1	5
518.124	1	12
518.294	1	4
518.465	1	7
518.635	1	4
518.805	1	-2
518.975	1	4
519.145	1	0
519.315	1	5
519.485	1	6
519.656	1	16
519.826	1	11
519.996	1	-8
520.166	1	6
520.336	1	14
520.506	1	5
520.676	1	1
520.846	1	4
521.017	1	9
521.187	1	3
521.357	1	15
521.527	1	5
521.697	1	-2
521.867	1	1
522.037	1	7
522.207	1	12
522.377	1	3
522.548	1	4
522.718	1	16
522.888	1	18
523.058	1	1
523.228	1	0
523.398	1	7
523.568	1	10
523.738	1	3
523.909	1	8
524.079	1	6
524.249	1	9
524.419	1	9
524.589	1	2
524.759	1	-4
524.929	1	-2
525.099	1	11
525.269	1	8
525.439	1	-3
525.610	1	16
525.780	1	5
525.950	1	-1
526.120	1	-2
526.290	1	9
526.460	1	-4
526.630	1	4
526.800	1	1
526.970	1	2
527.140	1	5
527.311	1	-4
527.481	1	-2
527.651	1	6
527.821	1	2
527.991	1	13
528.161	1	4
528.331	1	1
528.501	1	12
528.671	1	-5
528.841	1	6
529.011	1	-1
529.181	1	6
529.352	1	1
529.522	1	2
529.692	1	0
529.862	1	2
530.032	1	5
530.202	1	4
530.372	1	5
530.542	1	2
530.712	1	5
530.882	1	4
531.052	1	6
531.222	1	4
531.392	1	-2
531.563	1	9
531.733	1	8
531.903	1	6
532.073	1	10
532.243	1	6
532.413	1	-2
532.583	1	8
532.753	1	10
532.923	1	-9
533.093	1	5
533.263	1	-4
533.433	1	13
533.603	1	0
533.773	1	8
533.943	1	-6
534.113	1	11
534.284	1	-1
534.454	1	-2
534.624	1	10
534.794	1	-8
534.964	1	2
535.134	1	8
535.304	1	5
535.474	1	19
535.644	1	-8
535.814	1	6
535.984	1	-4
536.154	1	1
536.324	1	-3
536.494	1	12
536.664	1	0
536.834	1	-1
537.004	1	4
537.174	1	5
537.344	1	3
537.514	1	1
537.685	1	8
537.855	1	6
538.025	1	11
538.195	1	3
538.365	1	6
538.535	1	-7
538.705	1	2
538.875	1	6
539.045	1	6
539.215	1	6
539.385	1	6
539.555	1	11
539.725	1	0
539.895	1	-7
540.065	1	10
540.235	1	8
540.405	1	-1
540.575	1	9
540.745	1	11
540.915	1	9
541.085	1	-3
541.255	1	-6
541.425	1	11
541.595	1	3
541.765	1	8
541.935	1	7
542.105	1	0
542.275	1	7
542.445	1	-10
542.615	1	1
542.785	1	8
542.955	1	3
543.125	1	8
543.295	1	9
543.465	1	1
543.635	1	-1
543.805	1	15
543.975	1	5
544.145	1	4
544.315	1	3
544.485	1	3
544.655	1	9
544.825	1	-2
544.995	1	9
545.165	1	-3
545.335	1	8
545.505	1	-2
545.675	1	4
545.845	1	10
546.015	1	4
546.185	1	5
546.355	1	6
546.525	1	6
546.695	1	6
546.865	1	2
547.035	1	9
547.205	1	3
547.375	1	9
547.545	1	6
547.715	1	-5
547.885	1	11
548.055	1	-3
548.225	1	16
548.395	1	3
548.565	1	6
548.735	1	0
548.905	1	-4
549.075	1	-1
549.245	1	2
549.415	1	2
549.585	1	3
549.755	1	8
549.925	1	-3
550.095	1	7
550.265	1	10
550.435	1	2
550.605	1	-11
550.775	1	-1
550.945	1	9
551.115	1	-1
551.285	1	1
551.455	1	-8
551.625	1	7
551.795	1	9
551.965	1	-1
552.135	1	2
552.305	1	-5
552.475	1	1
552.645	1	3
552.815	1	0
552.985	1	6
553.155	1	6
553.325	1	12
553.495	1	5
553.665	1	0
553.835	1	1
554.004	1	1
554.174	1	1
554.344	1	0
554.514	1	0
554.684	1	1
554.854	1	-2
555.024	1	-2
555.194	1	-12
555.364	1	-1
555.534	1	10
555.704	1	-6
555.874	1	6
556.044	1	7
556.214	1	-7
556.384	1	2
556.554	1	16
556.724	1	6
556.894	1	-3
557.064	1	0
557.234	1	-7
557.404	1	19
557.573	1	6
557.743	1	-3
557.913	1	-5
558.083	1	-4
558.253	1	11
558.423	1	1
558.593	1	15
558.763	1	4
558.933	1	2
559.103	1	12
559.273	1	1
559.443	1	5
559.613	1	9
559.783	1	5
559.953	1	3
560.122	1	15
560.292	1	6
560.462	1	3
560.632	1	10
560.802	1	2
560.972	1	4
561.142	1	3
561.312	1	1
561.482	1	2
561.652	1	6
561.822	1	-5
561.992	1	3
562.162	1	-1
562.331	1	-2
562.501	1	-9
562.671	1	10
562.841	1	5
563.011	1	7
563.181	1	-4
563.351	1	-7
563.521	1	5
563.691	1	-6
563.861	1	5
564.031	1	11
564.201	1	19
564.370	1	-4
564.540	1	15
564.710	1	-8
564.880	1	3
565.050	1	14
565.220	1	-12
565.390	1	4
565.560	1	6
565.730	1	1
565.900	1	9
566.069	1	6
566.239	1	-2
566.409	1	4
566.579	1	14
566.749	1	-3
566.919	1	9
567.089	1	8
567.259	1	12
567.429	1	-2
567.599	1	-2
567.768	1	1
567.938	1	-1
568.108	1	-4
568.278	1	4
568.448	1	2
568.618	1	-1
568.788	1	-2
568.958	1	-3
569.128	1	7
569.297	1	-7
569.467	1	0
569.637	1	12
569.807	1	-3
569.977	1	5
570.147	1	2
570.317	1	-1
570.487	1	-1
570.656	1	1
570.826	1	-9
570.996	1	-3
571.166	1	4
571.336	1	-6
571.506	1	3
571.676	1	3
571.846	1	2
572.015	1	10
572.185	1	-4
572.355	1	12
572.525	1	5
572.695	1	-1
572.865	1	-11
573.035	1	4
573.205	1	6
573.374	1	-2
573.544	1	1
573.714	1	13
573.884	1	13
574.054	1	7
574.224	1	1
574.394	1	7
574.563	1	-1
574.733	1	2
574.903	1	-4
575.073	1	-1
575.243	1	0
575.413	1	9
575.583	1	-3
575.752	1	0
575.922	1	-4
576.092	1	6
576.262	1	10
576.432	1	7
576.602	1	1
576.772	1	13
576.941	1	2
577.111	1	-7
577.281	1	-8
577.451	1	-5
577.621	1	-3
577.791	1	10
577.960	1	-7
578.130	1	4
578.300	1	12
578.470	1	15
578.640	1	13
578.810	1	5
578.979	1	9
579.149	1	-11
579.319	1	0
579.489	1	-8
579.659	1	-7
579.829	1	-2
579.998	1	1
580.168	1	6
580.338	1	7
580.508	1	-3
580.678	1	-6
580.848	1	-7
581.017	1	-5
581.187	1	0
581.357	1	-13
581.527	1	2
581.697	1	5
581.867	1	6
582.036	1	8
582.206	1	4
582.376	1	11
582.546	1	-5
582.716	1	-5
582.885	1	-7
583.055	1	-8
583.225	1	-14
583.395	1	5
583.565	1	2
583.735	1	7
583.904	1	8
584.074	1	15
584.244	1	5
584.414	1	-2
584.584	1	2
584.753	1	0
584.923	1	3
585.093	1	4
585.263	1	4
585.433	1	14
585.602	1	-3
585.772	1	-4
585.942	1	-3
586.112	1	8
586.282	1	2
586.451	1	-2
586.621	1	-1
586.791	1	-3
586.961	1	0
587.131	1	3
587.300	1	-6
587.470	1	13
587.640	1	13
587.810	1	-1
587.980	1	-4
588.149	1	-5
588.319	1	-4
588.489	1	6
588.659	1	7
588.829	1	1
588.998	1	9
589.168	1	6
589.338	1	-2
589.508	1	9
589.677	1	-4
589.847	1	-8
590.017	1	14
590.187	1	-6
590.357	1	16
590.526	1	9
590.696	1	3
590.866	1	18
591.036	1	0
591.205	1	16
591.375	1	0
591.545	1	-2
591.715	1	3
591.885	1	-3
592.054	1	2
592.224	1	6
592.394	1	1
592.564	1	-2
592.733	1	16
592.903	1	3
593.073	1	-1
593.243	1	3
593.412	1	0
593.582	1	0
593.752	1	-3
593.922	1	-3
594.091	1	-3
594.261	1	5
594.431	1	0
594.601	1	13
594.771	1	3
594.940	1	-2
595.110	1	-7
595.280	1	10
595.450	1	-5
595.619	1	-1
595.789	1	-3
595.959	1	5
596.129	1	-3
596.298	1	5
596.468	1	18
596.638	1	4
596.808	1	6
596.977	1	4
597.147	1	2
597.317	1	-1
597.487	1	3
597.656	1	11
597.826	1	3
597.996	1	9
598.166	1	5
598.335	1	-6
598.505	1	-2
598.675	1	-2
598.844	1	8
599.014	1	9
599.184	1	3
599.354	1	-9
599.523	1	7
599.693	1	-5
599.863	1	13
600.033	1	-1
600.202	1	9
600.372	1	3
600.542	1	16
600.712	1	-1
600.881	1	1
601.051	1	10
601.221	1	12
601.390	1	0
601.560	1	0
601.730	1	10
601.900	1	6
602.069	1	-2
602.239	1	-9
602.409	1	-12
602.578	1	-6
602.748	1	3
602.918	1	10
603.088	1	7
603.257	1	9
603.427	1	-12
603.597	1	1
603.767	1	0
603.936	1	-5
604.106	1	4
604.276	1	6
604.445	1	3
604.615	1	4
604.785	1	-10
604.954	1	5
605.124	1	6
605.294	1	-3
605.464	1	-2
605.633	1	-4
605.803	1	-3
605.973	1	1
606.142	1	8
606.312	1	7
606.482	1	2
606.652	1	8
606.821	1	6
606.991	1	-2
607.161	1	-1
607.330	1	3
607.500	1	-1
607.670	1	-5
607.839	1	10
608.009	1	18
608.179	1	-5
608.348	1	6
608.518	1	1
608.688	1	4
608.858	1	-10
609.027	1	3
609.197	1	1
609.367	1	7
609.536	1	2
609.706	1	0
609.876	1	-6
610.045	1	-2
610.215	1	10
610.385	1	-9
610.554	1	8
610.724	1	7
610.894	1	0
611.063	1	8
611.233	1	-5
611.403	1	1
611.572	1	-3
611.742	1	8
611.912	1	-1
612.081	1	4
612.251	1	8
612.421	1	10
612.590	1	3
612.760	1	0
612.930	1	1
613.099	1	-2
613.269	1	4
613.439	1	2
613.608	1	9
613.778	1	2
613.948	1	2
614.117	1	4
614.287	1	9
614.457	1	-6
614.626	1	-2
614.796	1	6
614.966	1	6
615.135	1	-2
615.305	1	11
615.475	1	-2
615.644	1	9
615.814	1	1
615.984	1	0
616.153	1	-5
616.323	1	3
616.493	1	-6
616.662	1	8
616.832	1	5
617.002	1	-8
617.171	1	2
617.341	1	1
617.511	1	4
617.680	1	1
617.850	1	5
618.019	1	8
618.189	1	19
618.359	1	7
618.528	1	4
618.698	1	3
618.868	1	-12
619.037	1	-3
619.207	1	2
619.377	1	2
619.546	1	-4
619.716	1	2
619.885	1	4
620.055	1	-8
620.225	1	9
620.394	1	-2
620.564	1	6
620.734	1	8
620.903	1	11
621.073	1	11
621.242	1	2
621.412	1	-5
621.582	1	5
621.751	1	7
621.921	1	-1
622.091	1	-3
622.260	1	-6
622.430	1	5
622.599	1	-3
622.769	1	0
622.939	1	12
623.108	1	3
623.278	1	-6
623.448	1	-3
623.617	1	-3
623.787	1	-2
623.956	1	10
624.126	1	2
624.296	1	2
624.465	1	-2
624.635	1	11
624.804	1	11
624.974	1	-4
625.144	1	11
625.313	1	2
625.483	1	-5
625.652	1	1
625.822	1	-4
625.992	1	-6
626.161	1	13
626.331	1	0
626.501	1	2
626.670	1	5
626.840	1	-4
627.009	1	-6
627.179	1	8
627.348	1	9
627.518	1	3
627.688	1	10
627.857	1	10
628.027	1	-7
628.196	1	4
628.366	1	5
628.536	1	5
628.705	1	-4
628.875	1	10
629.044	1	-3
629.214	1	4
629.384	1	9
629.553	1	21
629.723	1	3
629.892	1	7
630.062	1	2
630.232	1	-2
630.401	1	6
630.571	1	-2
630.740	1	5
630.910	1	12
631.079	1	4
631.249	1	1
631.419	1	5
631.588	1	-10
631.758	1	8
631.927	1	0
632.097	1	2
632.266	1	0
632.436	1	7
632.606	1	-2
632.775	1	4
632.945	1	0
633.114	1	7
633.284	1	9
633.453	1	2
633.623	1	6
633.793	1	5
633.962	1	1
634.132	1	-5
634.301	1	4
634.471	1	7
634.640	1	13
634.810	1	2
634.979	1	9
635.149	1	8
635.319	1	1
635.488	1	-4
635.658	1	0
635.827	1	-5
635.997	1	-5
636.166	1	8
636.336	1	1
636.505	1	5
636.675	1	3
636.845	1	-5
637.014	1	18
637.184	1	2
637.353	1	10
637.523	1	11
637.692	1	1
637.862	1	-1
638.031	1	0
638.201	1	13
638.370	1	7
638.540	1	2
638.710	1	1
638.879	1	-6
639.049	1	2
639.218	1	6
639.388	1	2
639.557	1	-7
639.727	1	0
639.896	1	4
640.066	1	-6
640.235	1	6
640.405	1	8
640.574	1	2
640.744	1	1
640.914	1	4
641.083	1	5
641.253	1	-7
641.422	1	5
641.592	1	16
641.761	1	-2
641.931	1	-2
642.100	1	16
642.270	1	5
642.439	1	7
642.609	1	9
642.778	1	-2
642.948	1	-5
643.117	1	8
643.287	1	3
643.456	1	6
643.626	1	14
643.795	1	5
643.965	1	7
644.134	1	-1
644.304	1	1
644.473	1	3
644.643	1	7
644.812	1	0
644.982	1	10
645.151	1	0
645.321	1	-1
645.490	1	15
645.660	1	-3
645.829	1	-2
645.999	1	2
646.168	1	5
646.338	1	11
646.507	1	2
646.677	1	-4
646.846	1	3
647.016	1	-4
647.185	1	9
647.355	1	-9
647.524	1	13
647.694	1	10
647.863	1	8
648.033	1	8
648.202	1	10
648.372	1	-3
648.541	1	-1
648.711	1	3
648.880	1	-4
649.050	1	-2
649.219	1	3
649.389	1	16
649.558	1	-2
649.728	1	14
649.897	1	-5
650.067	1	8
650.236	1	4
650.406	1	1
650.575	1	7
650.745	1	10
650.914	1	0
651.084	1	-3
651.253	1	16
651.423	1	2
651.592	1	-7
651.762	1	-4
651.931	1	10
652.101	1	5
652.270	1	10
652.440	1	9
652.609	1	6
652.778	1	0
652.948	1	9
653.117	1	8
653.287	1	-3
653.456	1	9
653.626	1	9
653.795	1	3
653.965	1	6
654.134	1	4
654.304	1	-1
654.473	1	6
654.643	1	10
654.812	1	3
654.982	1	8
655.151	1	5
655.320	1	9
655.490	1	-1
655.659	1	10
655.829	1	0
655.998	1	4
656.168	1	3
656.337	1	2
656.507	1	7
656.676	1	10
656.846	1	12
657.015	1	9
657.184	1	13
657.354	1	13
657.523	1	-1
657.693	1	7
657.862	1	6
658.032	1	1
658.201	1	7
658.371	1	9
658.540	1	2
658.709	1	4
658.879	1	11
659.048	1	-1
659.218	1	-1
659.387	1	8
659.557	1	5
659.726	1	14
659.895	1	-1
660.065	1	1
660.234	1	-3
660.404	1	10
660.573	1	4
660.743	1	-1
660.912	1	8
661.081	1	15
661.251	1	1
661.420	1	9
661.590	1	12
661.759	1	12
661.929	1	-1
662.098	1	11
662.267	1	5
662.437	1	13
662.606	1	3
662.776	1	14
662.945	1	6
663.115	1	6
663.284	1	-3
663.453	1	3
663.623	1	-2
663.792	1	7
663.962	1	4
664.131	1	7
664.300	1	7
664.470	1	-6
664.639	1	0
664.809	1	4
664.978	1	2
665.148	1	11
665.317	1	4
665.486	1	13
665.656	1	1
665.825	1	13
665.995	1	-3
666.164	1	0
666.333	1	3
666.503	1	-1
666.672	1	0
666.842	1	2
667.011	1	2
667.180	1	13
667.350	1	1
667.519	1	12
667.689	1	0
667.858	1	9
668.027	1	6
668.197	1	-1
668.366	1	-7
668.536	1	9
668.705	1	6
668.874	1	9
669.044	1	1
669.213	1	6
669.382	1	4
669.552	1	15
669.721	1	12
669.891	1	13
670.060	1	3
670.229	1	17
670.399	1	6
670.568	1	19
670.738	1	9
670.907	1	-9
671.076	1	-1
671.246	1	3
671.415	1	-2
671.584	1	3
671.754	1	10
671.923	1	1
672.093	1	4
672.262	1	-3
672.431	1	3
672.601	1	2
672.770	1	-6
672.939	1	18
673.109	1	-1
673.278	1	6
673.448	1	10
673.617	1	9
673.786	1	15
