325.333	1	14
325.504	1	18
325.675	1	15
325.846	1	15
326.017	1	17
326.188	1	19
326.359	1	19
326.531	1	12
326.702	1	8
326.873	1	30
327.044	1	18
327.215	1	1
327.386	1	24
327.557	1	14
327.728	1	13
327.899	1	11
328.070	1	20
328.241	1	21
328.412	1	-2
328.583	1	6
328.754	1	13
328.926	1	19
329.097	1	10
329.268	1	22
329.439	1	14
329.610	1	30
329.781	1	13
329.952	1	26
330.123	1	28
330.294	1	14
330.465	1	12
330.636	1	32
330.807	1	10
330.978	1	19
331.149	1	18
331.320	1	14
331.492	1	15
331.663	1	13
331.834	1	22
332.005	1	26
332.176	1	41
332.347	1	28
332.518	1	15
332.689	1	31
332.860	1	24
333.031	1	26
333.202	1	11
333.373	1	11
333.544	1	19
333.715	1	25
333.886	1	12
334.057	1	27
334.228	1	14
334.399	1	28
334.570	1	29
334.741	1	20
334.912	1	35
335.084	1	31
335.255	1	25
335.426	1	17
335.597	1	25
335.768	1	23
335.939	1	24
336.110	1	33
336.281	1	14
336.452	1	20
336.623	1	38
336.794	1	25
336.965	1	16
337.136	1	27
337.307	1	22
337.478	1	22
337.649	1	23
337.820	1	21
337.991	1	29
338.162	1	25
338.333	1	30
338.504	1	33
338.675	1	21
338.846	1	33
339.017	1	31
339.188	1	15
339.359	1	24
339.530	1	34
339.701	1	29
339.872	1	39
340.043	1	22
340.214	1	24
340.385	1	43
340.556	1	18
340.727	1	36
340.898	1	48
341.069	1	21
341.240	1	32
341.411	1	31
341.582	1	29
341.753	1	24
341.924	1	43
342.095	1	30
342.266	1	52
342.437	1	50
342.608	1	37
342.779	1	48
342.950	1	35
343.121	1	49
343.292	1	38
343.463	1	31
343.634	1	34
343.805	1	38
343.976	1	41
344.147	1	38
344.318	1	41
344.489	1	35
344.660	1	50
344.831	1	37
345.002	1	31
345.173	1	45
345.344	1	48
345.515	1	42
345.686	1	43
345.857	1	40
346.028	1	34
346.199	1	42
346.370	1	44
346.541	1	39
346.712	1	36
346.883	1	59
347.054	1	38
347.225	1	43
347.396	1	51
347.567	1	48
347.738	1	34
347.909	1	49
348.080	1	39
348.251	1	45
348.422	1	41
348.593	1	42
348.764	1	45
348.935	1	45
349.106	1	49
349.277	1	50
349.448	1	70
349.619	1	43
349.790	1	44
349.961	1	53
350.132	1	43
350.303	1	47
350.474	1	57
350.645	1	45
350.816	1	48
350.987	1	59
351.157	1	48
351.328	1	68
351.499	1	51
351.670	1	39
351.841	1	51
352.012	1	58
352.183	1	54
352.354	1	54
352.525	1	66
352.696	1	58
352.867	1	52
353.038	1	58
353.209	1	58
353.380	1	57
353.551	1	43
353.722	1	54
353.893	1	52
354.064	1	68
354.235	1	59
354.406	1	52
354.576	1	54
354.747	1	50
354.918	1	50
355.089	1	58
355.260	1	52
355.431	1	58
355.602	1	47
355.773	1	66
355.944	1	46
356.115	1	52
356.286	1	55
356.457	1	43
356.628	1	52
356.799	1	61
356.970	1	61
357.141	1	59
357.311	1	53
357.482	1	58
357.653	1	59
357.824	1	58
357.995	1	60
358.166	1	51
358.337	1	57
358.508	1	64
358.679	1	57
358.850	1	58
359.021	1	57
359.192	1	65
359.363	1	59
359.533	1	60
359.704	1	65
359.875	1	59
360.046	1	60
360.217	1	56
360.388	1	61
360.559	1	50
360.730	1	53
360.901	1	67
361.072	1	79
361.243	1	70
361.414	1	68
361.584	1	59
361.755	1	71
361.926	1	58
362.097	1	59
362.268	1	66
362.439	1	53
362.610	1	69
362.781	1	54
362.952	1	55
363.123	1	63
363.293	1	52
363.464	1	71
363.635	1	62
363.806	1	55
363.977	1	75
364.148	1	58
364.319	1	55
364.490	1	67
364.661	1	68
364.832	1	69
365.002	1	69
365.173	1	63
365.344	1	79
365.515	1	60
365.686	1	64
365.857	1	67
366.028	1	75
366.199	1	62
366.370	1	71
366.540	1	57
366.711	1	56
366.882	1	53
367.053	1	69
367.224	1	73
367.395	1	76
367.566	1	63
367.737	1	75
367.908	1	77
368.078	1	65
368.249	1	76
368.420	1	63
368.591	1	63
368.762	1	63
368.933	1	64
369.104	1	59
369.274	1	72
369.445	1	71
369.616	1	62
369.787	1	75
369.958	1	67
370.129	1	58
370.300	1	68
370.471	1	59
370.641	1	73
370.812	1	61
370.983	1	71
371.154	1	67
371.325	1	79
371.496	1	66
371.667	1	74
371.837	1	69
372.008	1	57
372.179	1	62
372.350	1	78
372.521	1	66
372.692	1	80
372.863	1	81
373.033	1	70
373.204	1	60
373.375	1	69
373.546	1	73
373.717	1	72
373.888	1	75
374.059	1	69
374.229	1	76
374.400	1	69
374.571	1	78
374.742	1	80
374.913	1	79
375.084	1	79
375.254	1	72
375.425	1	75
375.596	1	73
375.767	1	67
375.938	1	75
376.109	1	85
376.279	1	63
376.450	1	76
376.621	1	82
376.792	1	68
376.963	1	76
377.134	1	88
377.304	1	79
377.475	1	74
377.646	1	81
377.817	1	76
377.988	1	73
378.159	1	75
378.329	1	80
378.500	1	70
378.671	1	83
378.842	1	70
379.013	1	75
379.184	1	76
379.354	1	81
379.525	1	72
379.696	1	81
379.867	1	89
380.038	1	79
380.209	1	89
380.379	1	78
380.550	1	76
380.721	1	85
380.892	1	80
381.063	1	83
381.233	1	88
381.404	1	76
381.575	1	86
381.746	1	84
381.917	1	86
382.087	1	83
382.258	1	86
382.429	1	82
382.600	1	94
382.771	1	84
382.941	1	79
383.112	1	89
383.283	1	84
383.454	1	80
383.625	1	79
383.795	1	79
383.966	1	86
384.137	1	84
384.308	1	89
384.479	1	93
384.649	1	94
384.820	1	89
384.991	1	85
385.162	1	95
385.333	1	82
385.503	1	77
385.674	1	85
385.845	1	100
386.016	1	94
386.187	1	90
386.357	1	90
386.528	1	101
386.699	1	89
386.870	1	109
387.041	1	84
387.211	1	97
387.382	1	107
387.553	1	105
387.724	1	90
387.894	1	105
388.065	1	94
388.236	1	99
388.407	1	97
388.578	1	91
388.748	1	97
388.919	1	98
389.090	1	96
389.261	1	89
389.431	1	94
389.602	1	97
389.773	1	91
389.944	1	99
390.114	1	94
390.285	1	84
390.456	1	96
390.627	1	97
390.798	1	93
390.968	1	100
391.139	1	107
391.310	1	87
391.481	1	103
391.651	1	100
391.822	1	83
391.993	1	92
392.164	1	95
392.334	1	91
392.505	1	89
392.676	1	91
392.847	1	100
393.017	1	107
393.188	1	98
393.359	1	94
393.530	1	112
393.700	1	100
393.871	1	95
394.042	1	91
394.213	1	88
394.383	1	98
394.554	1	87
394.725	1	100
394.896	1	91
395.066	1	109
395.237	1	96
395.408	1	107
395.579	1	88
395.749	1	90
395.920	1	93
396.091	1	106
396.262	1	95
396.432	1	100
396.603	1	108
396.774	1	112
396.945	1	108
397.115	1	110
397.286	1	99
397.457	1	110
397.627	1	117
397.798	1	114
397.969	1	103
398.140	1	100
398.310	1	106
398.481	1	106
398.652	1	105
398.823	1	90
398.993	1	99
399.164	1	94
399.335	1	119
399.505	1	112
399.676	1	104
399.847	1	104
400.018	1	103
400.188	1	102
400.359	1	116
400.530	1	92
400.700	1	98
400.871	1	105
401.042	1	106
401.213	1	100
401.383	1	110
401.554	1	109
401.725	1	109
401.895	1	106
402.066	1	99
402.237	1	104
402.408	1	97
402.578	1	105
402.749	1	114
402.920	1	101
403.090	1	112
403.261	1	109
403.432	1	109
403.603	1	108
403.773	1	117
403.944	1	114
404.115	1	106
404.285	1	107
404.456	1	108
404.627	1	100
404.797	1	98
404.968	1	100
405.139	1	96
405.310	1	111
405.480	1	114
405.651	1	102
405.822	1	97
405.992	1	90
406.163	1	105
406.334	1	98
406.504	1	98
406.675	1	114
406.846	1	107
407.016	1	117
407.187	1	116
407.358	1	99
407.528	1	108
407.699	1	98
407.870	1	99
408.041	1	108
408.211	1	109
408.382	1	104
408.553	1	108
408.723	1	117
408.894	1	119
409.065	1	107
409.235	1	101
409.406	1	112
409.577	1	106
409.747	1	112
409.918	1	105
410.089	1	105
410.259	1	110
410.430	1	106
410.601	1	107
410.771	1	110
410.942	1	126
411.113	1	113
411.283	1	89
411.454	1	109
411.625	1	110
411.795	1	114
411.966	1	110
412.137	1	105
412.307	1	109
412.478	1	96
412.649	1	124
412.819	1	115
412.990	1	110
413.161	1	103
413.331	1	96
413.502	1	114
413.672	1	98
413.843	1	99
414.014	1	102
414.184	1	115
414.355	1	91
414.526	1	112
414.696	1	122
414.867	1	100
415.038	1	91
415.208	1	100
415.379	1	115
415.550	1	117
415.720	1	105
415.891	1	116
416.062	1	106
416.232	1	105
416.403	1	107
416.573	1	100
416.744	1	97
416.915	1	97
417.085	1	103
417.256	1	109
417.427	1	106
417.597	1	104
417.768	1	106
417.939	1	112
418.109	1	105
418.280	1	111
418.450	1	94
418.621	1	81
418.792	1	106
418.962	1	112
419.133	1	117
419.304	1	96
419.474	1	102
419.645	1	114
419.815	1	106
419.986	1	101
420.157	1	106
420.327	1	107
420.498	1	108
420.669	1	101
420.839	1	110
421.010	1	112
421.180	1	111
421.351	1	92
421.522	1	100
421.692	1	105
421.863	1	107
422.033	1	108
422.204	1	98
422.375	1	97
422.545	1	115
422.716	1	105
422.886	1	96
423.057	1	107
423.228	1	110
423.398	1	104
423.569	1	108
423.740	1	95
423.910	1	84
424.081	1	96
424.251	1	95
424.422	1	99
424.593	1	93
424.763	1	104
424.934	1	109
425.104	1	100
425.275	1	94
425.445	1	93
425.616	1	93
425.787	1	89
425.957	1	105
426.128	1	109
426.298	1	102
426.469	1	94
426.640	1	103
426.810	1	99
426.981	1	93
427.151	1	91
427.322	1	102
427.493	1	95
427.663	1	96
427.834	1	86
428.004	1	106
428.175	1	90
428.345	1	88
428.516	1	94
428.687	1	94
428.857	1	86
429.028	1	98
429.198	1	99
429.369	1	97
429.540	1	104
429.710	1	85
429.881	1	99
430.051	1	98
430.222	1	85
430.392	1	93
430.563	1	99
430.734	1	101
430.904	1	96
431.075	1	98
431.245	1	84
431.416	1	98
431.586	1	91
431.757	1	99
431.927	1	104
432.098	1	91
432.269	1	94
432.439	1	84
432.610	1	100
432.780	1	106
432.951	1	81
433.121	1	93
433.292	1	105
433.462	1	97
433.633	1	91
433.804	1	92
433.974	1	82
434.145	1	108
434.315	1	80
434.486	1	91
434.656	1	104
434.827	1	90
434.997	1	79
435.168	1	105
435.339	1	92
435.509	1	93
435.680	1	89
435.850	1	96
436.021	1	83
436.191	1	84
436.362	1	99
436.532	1	96
436.703	1	89
436.873	1	86
437.044	1	82
437.214	1	81
437.385	1	79
437.556	1	76
437.726	1	100
437.897	1	112
438.067	1	95
438.238	1	93
438.408	1	93
438.579	1	85
438.749	1	85
438.920	1	73
439.090	1	85
439.261	1	79
439.431	1	70
439.602	1	87
439.772	1	86
439.943	1	101
440.113	1	89
440.284	1	82
440.455	1	90
440.625	1	80
440.796	1	89
440.966	1	73
441.137	1	81
441.307	1	75
441.478	1	89
441.648	1	88
441.819	1	79
441.989	1	77
442.160	1	94
442.330	1	83
442.501	1	94
442.671	1	73
442.842	1	74
443.012	1	66
443.183	1	85
443.353	1	69
443.524	1	82
443.694	1	89
443.865	1	82
444.035	1	82
444.206	1	87
444.376	1	72
444.547	1	96
444.717	1	82
444.888	1	82
445.058	1	89
445.229	1	86
445.399	1	74
445.570	1	80
445.740	1	79
445.911	1	83
446.081	1	88
446.252	1	76
446.422	1	71
446.593	1	75
446.763	1	85
446.934	1	74
447.104	1	83
447.275	1	76
447.445	1	80
447.616	1	84
447.786	1	69
447.957	1	92
448.127	1	77
448.298	1	90
448.468	1	75
448.639	1	78
448.809	1	79
448.979	1	76
449.150	1	89
449.320	1	80
449.491	1	77
449.661	1	68
449.832	1	64
450.002	1	84
450.173	1	70
450.343	1	79
450.514	1	76
450.684	1	82
450.855	1	68
451.025	1	76
451.196	1	67
451.366	1	76
451.537	1	76
451.707	1	61
451.878	1	82
452.048	1	85
452.218	1	78
452.389	1	75
452.559	1	69
452.730	1	72
452.900	1	74
453.071	1	60
453.241	1	73
453.412	1	78
453.582	1	70
453.753	1	76
453.923	1	71
454.093	1	73
454.264	1	72
454.434	1	65
454.605	1	71
454.775	1	79
454.946	1	71
455.116	1	78
455.287	1	61
455.457	1	58
455.628	1	74
455.798	1	71
455.968	1	64
456.139	1	59
456.309	1	60
456.480	1	63
456.650	1	57
456.821	1	55
456.991	1	70
457.161	1	62
457.332	1	68
457.502	1	56
457.673	1	74
457.843	1	74
458.014	1	62
458.184	1	64
458.355	1	67
458.525	1	73
458.695	1	59
458.866	1	63
459.036	1	68
459.207	1	67
459.377	1	54
459.548	1	62
459.718	1	64
459.888	1	60
460.059	1	68
460.229	1	74
460.400	1	65
460.570	1	70
460.740	1	65
460.911	1	62
461.081	1	65
461.252	1	52
461.422	1	64
461.593	1	55
461.763	1	72
461.933	1	70
462.104	1	49
462.274	1	58
462.445	1	68
462.615	1	67
462.785	1	65
462.956	1	68
463.126	1	66
463.297	1	57
463.467	1	64
463.638	1	71
463.808	1	53
463.978	1	57
464.149	1	55
464.319	1	65
464.490	1	73
464.660	1	54
464.830	1	52
465.001	1	48
465.171	1	58
465.342	1	64
465.512	1	50
465.682	1	58
465.853	1	59
466.023	1	50
466.194	1	58
466.364	1	68
466.534	1	62
466.705	1	52
466.875	1	60
467.045	1	60
467.216	1	75
467.386	1	53
467.557	1	50
467.727	1	50
467.897	1	46
468.068	1	58
468.238	1	60
468.409	1	42
468.579	1	58
468.749	1	50
468.920	1	47
469.090	1	61
469.260	1	44
469.431	1	50
469.601	1	51
469.772	1	50
469.942	1	40
470.112	1	59
470.283	1	48
470.453	1	54
470.623	1	55
470.794	1	45
470.964	1	54
471.135	1	52
471.305	1	38
471.475	1	55
471.646	1	54
471.816	1	54
471.986	1	47
472.157	1	55
472.327	1	40
472.497	1	48
472.668	1	47
472.838	1	46
473.009	1	52
473.179	1	38
473.349	1	42
473.520	1	50
473.690	1	55
473.860	1	50
474.031	1	60
474.201	1	44
474.371	1	56
474.542	1	51
474.712	1	55
474.882	1	51
475.053	1	64
475.223	1	46
475.394	1	50
475.564	1	47
475.734	1	58
475.905	1	58
476.075	1	51
476.245	1	55
476.416	1	61
476.586	1	51
476.756	1	56
476.927	1	65
477.097	1	42
477.267	1	46
477.438	1	52
477.608	1	50
477.778	1	55
477.949	1	53
478.119	1	61
478.289	1	53
478.460	1	57
478.630	1	54
478.800	1	51
478.971	1	50
479.141	1	40
479.311	1	48
479.482	1	45
479.652	1	44
479.822	1	42
479.993	1	50
480.163	1	55
480.333	1	45
480.504	1	46
480.674	1	49
480.844	1	36
481.015	1	47
481.185	1	38
481.355	1	56
481.525	1	46
481.696	1	43
481.866	1	45
482.036	1	53
482.207	1	39
482.377	1	45
482.547	1	46
482.718	1	41
482.888	1	47
483.058	1	48
483.229	1	34
483.399	1	38
483.569	1	46
483.740	1	51
483.910	1	40
484.080	1	42
484.250	1	44
484.421	1	33
484.591	1	41
484.761	1	41
484.932	1	43
485.102	1	58
485.272	1	45
485.443	1	57
485.613	1	39
485.783	1	33
485.953	1	45
486.124	1	39
486.294	1	37
486.464	1	31
486.635	1	42
486.805	1	50
486.975	1	37
487.146	1	42
487.316	1	43
487.486	1	46
487.656	1	39
487.827	1	44
487.997	1	21
488.167	1	40
488.338	1	47
488.508	1	31
488.678	1	30
488.848	1	48
489.019	1	41
489.189	1	37
489.359	1	36
489.529	1	36
489.700	1	38
489.870	1	45
490.040	1	35
490.211	1	34
490.381	1	40
490.551	1	36
490.721	1	47
490.892	1	38
491.062	1	47
491.232	1	42
491.402	1	32
491.573	1	26
491.743	1	36
491.913	1	31
492.084	1	39
492.254	1	37
492.424	1	38
492.594	1	38
492.765	1	36
492.935	1	30
493.105	1	45
493.275	1	30
493.446	1	40
493.616	1	43
493.786	1	34
493.956	1	39
494.127	1	46
494.297	1	27
494.467	1	27
494.637	1	35
494.808	1	36
494.978	1	21
495.148	1	39
495.318	1	41
495.489	1	44
495.659	1	33
495.829	1	27
495.999	1	44
496.170	1	31
496.340	1	24
496.510	1	40
496.680	1	20
496.851	1	34
497.021	1	24
497.191	1	20
497.361	1	40
497.532	1	28
497.702	1	22
497.872	1	25
498.042	1	31
498.213	1	27
498.383	1	29
498.553	1	24
498.723	1	18
498.894	1	32
499.064	1	24
499.234	1	40
499.404	1	34
499.574	1	33
499.745	1	37
499.915	1	38
500.085	1	25
500.255	1	41
500.426	1	28
500.596	1	30
500.766	1	34
500.936	1	20
501.106	1	7
501.277	1	34
501.447	1	21
501.617	1	28
501.787	1	31
501.958	1	15
502.128	1	17
502.298	1	34
502.468	1	30
502.638	1	21
502.809	1	30
502.979	1	35
503.149	1	17
503.319	1	10
503.489	1	30
503.660	1	23
503.830	1	24
504.000	1	36
504.170	1	24
504.340	1	33
504.511	1	32
504.681	1	32
504.851	1	29
505.021	1	36
505.192	1	23
505.362	1	32
505.532	1	27
505.702	1	23
505.872	1	27
506.043	1	27
506.213	1	21
506.383	1	30
506.553	1	24
506.723	1	26
506.893	1	31
507.064	1	28
507.234	1	9
507.404	1	30
507.574	1	28
507.744	1	16
507.915	1	33
508.085	1	25
508.255	1	35
508.425	1	25
508.595	1	35
508.766	1	39
508.936	1	10
509.106	1	41
509.276	1	36
509.446	1	13
509.616	1	21
509.787	1	23
509.957	1	23
510.127	1	27
510.297	1	25
510.467	1	17
510.638	1	28
510.808	1	20
510.978	1	20
511.148	1	22
511.318	1	17
511.488	1	9
511.659	1	20
511.829	1	14
511.999	1	34
512.169	1	24
512.339	1	19
512.509	1	23
512.680	1	15
512.850	1	24
513.020	1	23
513.190	1	24
513.360	1	20
513.530	1	20
513.700	1	29
513.871	1	24
514.041	1	21
514.211	1	25
514.381	1	26
514.551	1	27
514.721	1	19
514.892	1	20
515.062	1	18
515.232	1	26
515.402	1	7
515.572	1	7
515.742	1	28
515.912	1	28
516.083	1	21
516.253	1	20
516.423	1	18
516.593	1	28
516.763	1	31
516.933	1	13
517.104	1	18
517.274	1	18
517.444	1	28
517.614	1	14
517.784	1	19
517.954	1	16
518.124	1	11
518.294	1	24
518.465	1	14
518.635	1	12
518.805	1	10
518.975	1	23
519.145	1	15
519.315	1	15
519.485	1	6
519.656	1	23
519.826	1	25
519.996	1	9
520.166	1	27
520.336	1	24
520.506	1	23
520.676	1	13
520.846	1	28
521.017	1	18
521.187	1	9
521.357	1	27
521.527	1	14
521.697	1	20
521.867	1	16
522.037	1	21
522.207	1	21
522.377	1	25
522.548	1	25
522.718	1	21
522.888	1	30
523.058	1	10
523.228	1	24
523.398	1	25
523.568	1	15
523.738	1	14
523.909	1	22
524.079	1	17
524.249	1	11
524.419	1	14
524.589	1	18
524.759	1	13
524.929	1	19
525.099	1	17
525.269	1	22
525.439	1	6
525.610	1	31
525.780	1	11
525.950	1	27
526.120	1	15
526.290	1	24
526.460	1	7
526.630	1	13
526.800	1	12
526.970	1	10
527.140	1	22
527.311	1	9
527.481	1	21
527.651	1	23
527.821	1	5
527.991	1	24
528.161	1	24
528.331	1	14
528.501	1	22
528.671	1	4
528.841	1	13
529.011	1	21
529.181	1	17
529.352	1	20
529.522	1	11
529.692	1	19
529.862	1	6
530.032	1	19
530.202	1	9
530.372	1	20
530.542	1	9
530.712	1	20
530.882	1	15
531.052	1	19
531.222	1	16
531.392	1	-3
531.563	1	19
531.733	1	13
531.903	1	10
532.073	1	19
532.243	1	5
532.413	1	17
532.583	1	9
532.753	1	13
532.923	1	9
533.093	1	11
533.263	1	5
533.433	1	10
533.603	1	25
533.773	1	6
533.943	1	13
534.113	1	8
534.284	1	7
534.454	1	20
534.624	1	19
534.794	1	8
534.964	1	23
535.134	1	12
535.304	1	12
535.474	1	17
535.644	1	15
535.814	1	2
535.984	1	16
536.154	1	8
536.324	1	10
536.494	1	19
536.664	1	19
536.834	1	12
537.004	1	11
537.174	1	22
537.344	1	8
537.514	1	0
537.685	1	9
537.855	1	15
538.025	1	13
538.195	1	2
538.365	1	26
538.535	1	6
538.705	1	12
538.875	1	20
539.045	1	15
539.215	1	8
539.385	1	10
539.555	1	8
539.725	1	13
539.895	1	6
540.065	1	23
540.235	1	18
540.405	1	15
540.575	1	18
540.745	1	9
540.915	1	17
541.085	1	15
541.255	1	2
541.425	1	13
541.595	1	14
541.765	1	13
541.935	1	6
542.105	1	3
542.275	1	13
542.445	1	0
542.615	1	11
542.785	1	19
542.955	1	9
543.125	1	6
543.295	1	15
543.465	1	16
543.635	1	20
543.805	1	29
543.975	1	7
544.145	1	22
544.315	1	16
544.485	1	14
544.655	1	11
544.825	1	2
544.995	1	13
545.165	1	11
545.335	1	5
545.505	1	1
545.675	1	21
545.845	1	11
546.015	1	11
546.185	1	9
546.355	1	14
546.525	1	18
546.695	1	10
546.865	1	6
547.035	1	9
547.205	1	1
547.375	1	12
547.545	1	17
547.715	1	7
547.885	1	7
548.055	1	3
548.225	1	16
548.395	1	5
548.565	1	8
548.735	1	15
548.905	1	4
549.075	1	18
549.245	1	9
549.415	1	9
549.585	1	9
549.755	1	13
549.925	1	7
550.095	1	15
550.265	1	10
550.435	1	11
550.605	1	8
550.775	1	16
550.945	1	24
551.115	1	8
551.285	1	11
551.455	1	9
551.625	1	16
551.795	1	18
551.965	1	9
552.135	1	8
552.305	1	12
552.475	1	-2
552.645	1	2
552.815	1	5
552.985	1	9
553.155	1	13
553.325	1	10
553.495	1	9
553.665	1	8
553.835	1	16
554.004	1	11
554.174	1	4
554.344	1	16
554.514	1	9
554.684	1	12
554.854	1	9
555.024	1	1
555.194	1	-3
555.364	1	14
555.534	1	18
555.704	1	7
555.874	1	15
556.044	1	12
556.214	1	2
556.384	1	8
556.554	1	21
556.724	1	9
556.894	1	11
557.064	1	5
557.234	1	6
557.404	1	15
557.573	1	10
557.743	1	4
557.913	1	7
558.083	1	4
558.253	1	19
558.423	1	7
558.593	1	19
558.763	1	10
558.933	1	11
559.103	1	14
559.273	1	5
559.443	1	14
559.613	1	4
559.783	1	9
559.953	1	2
560.122	1	15
560.292	1	3
560.462	1	4
560.632	1	11
560.802	1	13
560.972	1	12
561.142	1	11
561.312	1	2
561.482	1	2
561.652	1	13
561.822	1	6
561.992	1	3
562.162	1	3
562.331	1	2
562.501	1	-7
562.671	1	10
562.841	1	4
563.011	1	14
563.181	1	6
563.351	1	-5
563.521	1	10
563.691	1	4
563.861	1	4
564.031	1	8
564.201	1	18
564.370	1	2
564.540	1	2
564.710	1	10
564.880	1	8
565.050	1	16
565.220	1	0
565.390	1	4
565.560	1	12
565.730	1	0
565.900	1	5
566.069	1	17
566.239	1	13
566.409	1	9
566.579	1	12
566.749	1	3
566.919	1	11
567.089	1	6
567.259	1	8
567.429	1	3
567.599	1	9
567.768	1	7
567.938	1	4
568.108	1	9
568.278	1	8
568.448	1	-1
568.618	1	6
568.788	1	13
568.958	1	4
569.128	1	9
569.297	1	7
569.467	1	6
569.637	1	15
569.807	1	2
569.977	1	4
570.147	1	10
570.317	1	11
570.487	1	1
570.656	1	14
570.826	1	7
570.996	1	-1
571.166	1	22
571.336	1	-3
571.506	1	10
571.676	1	14
571.846	1	17
572.015	1	7
572.185	1	13
572.355	1	7
572.525	1	3
572.695	1	10
572.865	1	1
573.035	1	5
573.205	1	8
573.374	1	2
573.544	1	1
573.714	1	19
573.884	1	7
574.054	1	17
574.224	1	8
574.394	1	8
574.563	1	3
574.733	1	13
574.903	1	0
575.073	1	9
575.243	1	12
575.413	1	8
575.583	1	2
575.752	1	13
575.922	1	10
576.092	1	10
576.262	1	12
576.432	1	16
576.602	1	7
576.772	1	18
576.941	1	7
577.111	1	1
577.281	1	-6
577.451	1	-3
577.621	1	12
577.791	1	17
577.960	1	3
578.130	1	19
578.300	1	4
578.470	1	7
578.640	1	8
578.810	1	6
578.979	1	10
579.149	1	7
579.319	1	-2
579.489	1	4
579.659	1	7
579.829	1	10
579.998	1	13
580.168	1	7
580.338	1	7
580.508	1	3
580.678	1	7
580.848	1	7
581.017	1	2
581.187	1	5
581.357	1	-1
581.527	1	11
581.697	1	16
581.867	1	12
582.036	1	9
582.206	1	5
582.376	1	12
582.546	1	-2
582.716	1	-2
582.885	1	4
583.055	1	7
583.225	1	-5
583.395	1	8
583.565	1	0
583.735	1	13
583.904	1	5
584.074	1	5
584.244	1	9
584.414	1	4
584.584	1	7
584.753	1	1
584.923	1	7
585.093	1	10
585.263	1	6
585.433	1	6
585.602	1	-1
585.772	1	3
585.942	1	4
586.112	1	9
586.282	1	4
586.451	1	10
586.621	1	6
586.791	1	4
586.961	1	14
587.131	1	11
587.300	1	7
587.470	1	21
587.640	1	11
587.810	1	1
587.980	1	4
588.149	1	5
588.319	1	10
588.489	1	3
588.659	1	5
588.829	1	7
588.998	1	10
589.168	1	5
589.338	1	2
589.508	1	13
589.677	1	0
589.847	1	11
590.017	1	17
590.187	1	1
590.357	1	11
590.526	1	23
590.696	1	8
590.866	1	17
591.036	1	-2
591.205	1	20
591.375	1	0
591.545	1	8
591.715	1	7
591.885	1	-3
592.054	1	11
592.224	1	5
592.394	1	5
592.564	1	10
592.733	1	9
592.903	1	10
593.073	1	11
593.243	1	18
593.412	1	12
593.582	1	7
593.752	1	6
593.922	1	10
594.091	1	8
594.261	1	2
594.431	1	12
594.601	1	1
594.771	1	16
594.940	1	3
595.110	1	-3
595.280	1	16
595.450	1	7
595.619	1	7
595.789	1	8
595.959	1	11
596.129	1	8
596.298	1	-7
596.468	1	9
596.638	1	5
596.808	1	9
596.977	1	3
597.147	1	11
597.317	1	1
597.487	1	17
597.656	1	4
597.826	1	8
597.996	1	7
598.166	1	5
598.335	1	0
598.505	1	12
598.675	1	1
598.844	1	10
599.014	1	3
599.184	1	10
599.354	1	-14
599.523	1	10
599.693	1	3
599.863	1	8
600.033	1	4
600.202	1	8
600.372	1	9
600.542	1	11
600.712	1	7
600.881	1	8
601.051	1	13
601.221	1	6
601.390	1	2
601.560	1	17
601.730	1	13
601.900	1	8
602.069	1	10
602.239	1	7
602.409	1	3
602.578	1	7
602.748	1	1
602.918	1	21
603.088	1	8
603.257	1	12
603.427	1	1
603.597	1	-4
603.767	1	7
603.936	1	19
604.106	1	10
604.276	1	8
604.445	1	16
604.615	1	4
604.785	1	0
604.954	1	2
605.124	1	12
605.294	1	1
605.464	1	6
605.633	1	16
605.803	1	11
605.973	1	-1
606.142	1	10
606.312	1	14
606.482	1	2
606.652	1	13
606.821	1	-6
606.991	1	11
607.161	1	1
607.330	1	14
607.500	1	9
607.670	1	7
607.839	1	19
608.009	1	29
608.179	1	6
608.348	1	4
608.518	1	2
608.688	1	19
608.858	1	3
609.027	1	5
609.197	1	12
609.367	1	23
609.536	1	3
609.706	1	6
609.876	1	7
610.045	1	4
610.215	1	16
610.385	1	4
610.554	1	7
610.724	1	26
610.894	1	12
611.063	1	12
611.233	1	6
611.403	1	10
611.572	1	6
611.742	1	15
611.912	1	9
612.081	1	10
612.251	1	8
612.421	1	6
612.590	1	5
612.760	1	10
612.930	1	9
613.099	1	-3
613.269	1	19
613.439	1	8
613.608	1	5
613.778	1	6
613.948	1	11
614.117	1	9
614.287	1	16
614.457	1	0
614.626	1	9
614.796	1	12
614.966	1	11
615.135	1	4
615.305	1	26
615.475	1	15
615.644	1	13
615.814	1	5
615.984	1	6
616.153	1	0
616.323	1	11
616.493	1	1
616.662	1	13
616.832	1	0
617.002	1	5
617.171	1	13
617.341	1	6
617.511	1	7
617.680	1	1
617.850	1	17
618.019	1	18
618.189	1	23
618.359	1	7
618.528	1	15
618.698	1	10
618.868	1	4
619.037	1	13
619.207	1	7
619.377	1	6
619.546	1	3
619.716	1	7
619.885	1	6
620.055	1	0
620.225	1	10
620.394	1	6
620.564	1	22
620.734	1	16
620.903	1	1
621.073	1	18
621.242	1	-1
621.412	1	6
621.582	1	1
621.751	1	20
621.921	1	10
622.091	1	12
622.260	1	8
622.430	1	22
622.599	1	15
622.769	1	12
622.939	1	17
623.108	1	6
623.278	1	0
623.448	1	13
623.617	1	11
623.787	1	5
623.956	1	24
624.126	1	5
624.296	1	7
624.465	1	18
624.635	1	18
624.804	1	13
624.974	1	15
625.144	1	26
625.313	1	0
625.483	1	12
625.652	1	4
625.822	1	10
625.992	1	14
626.161	1	16
626.331	1	17
626.501	1	12
626.670	1	4
626.840	1	6
627.009	1	8
627.179	1	18
627.348	1	18
627.518	1	16
627.688	1	6
627.857	1	21
628.027	1	14
628.196	1	11
628.366	1	20
628.536	1	10
628.705	1	5
628.875	1	15
629.044	1	5
629.214	1	19
629.384	1	21
629.553	1	13
629.723	1	18
629.892	1	7
630.062	1	13
630.232	1	12
630.401	1	21
630.571	1	4
630.740	1	13
630.910	1	16
631.079	1	11
631.249	1	11
631.419	1	15
631.588	1	-4
631.758	1	20
631.927	1	7
632.097	1	17
632.266	1	9
632.436	1	18
632.606	1	4
632.775	1	15
632.945	1	15
633.114	1	9
633.284	1	10
633.453	1	5
633.623	1	12
633.793	1	9
633.962	1	15
634.132	1	17
634.301	1	13
634.471	1	21
634.640	1	12
634.810	1	13
634.979	1	20
635.149	1	15
635.319	1	17
635.488	1	18
635.658	1	3
635.827	1	11
635.997	1	9
636.166	1	25
636.336	1	16
636.505	1	22
636.675	1	13
636.845	1	18
637.014	1	14
637.184	1	15
637.353	1	19
637.523	1	13
637.692	1	10
637.862	1	10
638.031	1	13
638.201	1	10
638.370	1	9
638.540	1	7
638.710	1	9
638.879	1	7
639.049	1	14
639.218	1	7
639.388	1	9
639.557	1	17
639.727	1	13
639.896	1	4
640.066	1	9
640.235	1	17
640.405	1	20
640.574	1	23
640.744	1	10
640.914	1	22
641.083	1	12
641.253	1	15
641.422	1	16
641.592	1	23
641.761	1	9
641.931	1	15
642.100	1	37
642.270	1	13
642.439	1	23
642.609	1	23
642.778	1	9
642.948	1	2
643.117	1	23
643.287	1	15
643.456	1	12
643.626	1	22
643.795	1	22
643.965	1	26
644.134	1	9
644.304	1	18
644.473	1	18
644.643	1	14
644.812	1	13
644.982	1	15
645.151	1	9
645.321	1	6
645.490	1	23
645.660	1	16
645.829	1	9
645.999	1	17
646.168	1	18
646.338	1	19
646.507	1	7
646.677	1	20
646.846	1	20
647.016	1	10
647.185	1	17
647.355	1	1
647.524	1	23
647.694	1	20
647.863	1	15
648.033	1	18
648.202	1	19
648.372	1	-4
648.541	1	10
648.711	1	12
648.880	1	10
649.050	1	11
649.219	1	15
649.389	1	23
649.558	1	16
649.728	1	18
649.897	1	9
650.067	1	11
650.236	1	19
650.406	1	12
650.575	1	25
650.745	1	26
650.914	1	12
651.084	1	17
651.253	1	21
651.423	1	20
651.592	1	13
651.762	1	12
651.931	1	21
652.101	1	25
652.270	1	21
652.440	1	20
652.609	1	12
652.778	1	12
652.948	1	15
653.117	1	18
653.287	1	26
653.456	1	19
653.626	1	22
653.795	1	14
653.965	1	21
654.134	1	17
654.304	1	6
654.473	1	23
654.643	1	16
654.812	1	14
654.982	1	14
655.151	1	11
655.320	1	11
655.490	1	7
655.659	1	14
655.829	1	13
655.998	1	13
656.168	1	15
656.337	1	28
656.507	1	26
656.676	1	22
656.846	1	22
657.015	1	18
657.184	1	22
657.354	1	25
657.523	1	13
657.693	1	27
657.862	1	26
658.032	1	11
658.201	1	20
658.371	1	27
658.540	1	19
658.709	1	13
658.879	1	20
659.048	1	22
659.218	1	16
659.387	1	19
659.557	1	21
659.726	1	22
659.895	1	7
660.065	1	6
660.234	1	20
660.404	1	22
660.573	1	11
660.743	1	18
660.912	1	27
661.081	1	29
661.251	1	9
661.420	1	21
661.590	1	19
661.759	1	24
661.929	1	21
662.098	1	26
662.267	1	19
662.437	1	25
662.606	1	21
662.776	1	22
662.945	1	21
663.115	1	18
663.284	1	7
663.453	1	21
663.623	1	9
663.792	1	24
663.962	1	12
664.131	1	24
664.300	1	19
664.470	1	13
664.639	1	21
664.809	1	12
664.978	1	25
665.148	1	22
665.317	1	19
665.486	1	30
665.656	1	15
665.825	1	23
665.995	1	13
666.164	1	13
666.333	1	24
666.503	1	16
666.672	1	10
666.842	1	21
667.011	1	7
667.180	1	25
667.350	1	21
667.519	1	22
667.689	1	21
667.858	1	25
668.027	1	27
668.197	1	18
668.366	1	12
668.536	1	23
668.705	1	18
668.874	1	22
669.044	1	10
669.213	1	23
669.382	1	17
669.552	1	29
669.721	1	22
669.891	1	28
670.060	1	27
670.229	1	23
670.399	1	10
670.568	1	24
670.738	1	25
670.907	1	5
671.076	1	14
671.246	1	20
671.415	1	25
671.584	1	15
671.754	1	12
671.923	1	12
672.093	1	12
672.262	1	16
672.431	1	17
672.601	1	10
672.770	1	10
672.939	1	33
673.109	1	22
673.278	1	21
673.448	1	26
673.617	1	12
673.786	1	21
