325.333	1	10
325.504	1	5
325.675	1	5
325.846	1	2
326.017	1	3
326.188	1	10
326.359	1	5
326.531	1	-4
326.702	1	-5
326.873	1	8
327.044	1	2
327.215	1	5
327.386	1	7
327.557	1	-9
327.728	1	-5
327.899	1	15
328.070	1	13
328.241	1	8
328.412	1	-3
328.583	1	5
328.754	1	1
328.926	1	11
329.097	1	-2
329.268	1	9
329.439	1	-3
329.610	1	5
329.781	1	-4
329.952	1	3
330.123	1	3
330.294	1	0
330.465	1	6
330.636	1	10
330.807	1	-7
330.978	1	5
331.149	1	-4
331.320	1	3
331.492	1	3
331.663	1	4
331.834	1	13
332.005	1	4
332.176	1	14
332.347	1	2
332.518	1	-2
332.689	1	12
332.860	1	3
333.031	1	2
333.202	1	-2
333.373	1	5
333.544	1	11
333.715	1	10
333.886	1	-4
334.057	1	15
334.228	1	-8
334.399	1	4
334.570	1	11
334.741	1	-4
334.912	1	7
335.084	1	12
335.255	1	12
335.426	1	-11
335.597	1	5
335.768	1	0
335.939	1	3
336.110	1	0
336.281	1	-9
336.452	1	2
336.623	1	6
336.794	1	13
336.965	1	14
337.136	1	3
337.307	1	-7
337.478	1	-3
337.649	1	4
337.820	1	2
337.991	1	-2
338.162	1	6
338.333	1	2
338.504	1	4
338.675	1	2
338.846	1	12
339.017	1	5
339.188	1	0
339.359	1	-11
339.530	1	7
339.701	1	7
339.872	1	20
340.043	1	-7
340.214	1	3
340.385	1	10
340.556	1	1
340.727	1	10
340.898	1	17
341.069	1	2
341.240	1	2
341.411	1	9
341.582	1	0
341.753	1	1
341.924	1	-5
342.095	1	7
342.266	1	10
342.437	1	4
342.608	1	3
342.779	1	4
342.950	1	7
343.121	1	7
343.292	1	2
343.463	1	3
343.634	1	7
343.805	1	12
343.976	1	4
344.147	1	3
344.318	1	3
344.489	1	7
344.660	1	15
344.831	1	5
345.002	1	0
345.173	1	11
345.344	1	8
345.515	1	7
345.686	1	7
345.857	1	5
346.028	1	1
346.199	1	-2
346.370	1	1
346.541	1	9
346.712	1	-4
346.883	1	10
347.054	1	2
347.225	1	7
347.396	1	11
347.567	1	9
347.738	1	-1
347.909	1	11
348.080	1	-7
348.251	1	11
348.422	1	15
348.593	1	4
348.764	1	12
348.935	1	1
349.106	1	12
349.277	1	-2
349.448	1	14
349.619	1	7
349.790	1	11
349.961	1	11
350.132	1	9
350.303	1	5
350.474	1	13
350.645	1	7
350.816	1	12
350.987	1	17
351.157	1	1
351.328	1	12
351.499	1	15
351.670	1	2
351.841	1	15
352.012	1	18
352.183	1	4
352.354	1	11
352.525	1	14
352.696	1	6
352.867	1	11
353.038	1	18
353.209	1	12
353.380	1	12
353.551	1	-2
353.722	1	3
353.893	1	4
354.064	1	20
354.235	1	5
354.406	1	0
354.576	1	2
354.747	1	9
354.918	1	15
355.089	1	9
355.260	1	17
355.431	1	6
355.602	1	3
355.773	1	-4
355.944	1	13
356.115	1	13
356.286	1	11
356.457	1	8
356.628	1	10
356.799	1	0
356.970	1	27
357.141	1	12
357.311	1	6
357.482	1	2
357.653	1	22
357.824	1	13
357.995	1	16
358.166	1	3
358.337	1	13
358.508	1	11
358.679	1	6
358.850	1	12
359.021	1	3
359.192	1	18
359.363	1	0
359.533	1	8
359.704	1	7
359.875	1	11
360.046	1	8
360.217	1	2
360.388	1	10
360.559	1	6
360.730	1	10
360.901	1	11
361.072	1	16
361.243	1	22
361.414	1	13
361.584	1	10
361.755	1	9
361.926	1	7
362.097	1	8
362.268	1	18
362.439	1	-2
362.610	1	25
362.781	1	10
362.952	1	6
363.123	1	11
363.293	1	2
363.464	1	14
363.635	1	17
363.806	1	5
363.977	1	3
364.148	1	9
364.319	1	9
364.490	1	16
364.661	1	12
364.832	1	18
365.002	1	15
365.173	1	5
365.344	1	15
365.515	1	10
365.686	1	9
365.857	1	14
366.028	1	11
366.199	1	8
366.370	1	7
366.540	1	14
366.711	1	-3
366.882	1	4
367.053	1	2
367.224	1	23
367.395	1	8
367.566	1	14
367.737	1	14
367.908	1	-2
368.078	1	12
368.249	1	11
368.420	1	0
368.591	1	1
368.762	1	14
368.933	1	12
369.104	1	4
369.274	1	-6
369.445	1	7
369.616	1	1
369.787	1	12
369.958	1	15
370.129	1	4
370.300	1	15
370.471	1	3
370.641	1	8
370.812	1	21
370.983	1	14
371.154	1	6
371.325	1	14
371.496	1	9
371.667	1	15
371.837	1	14
372.008	1	16
372.179	1	-2
372.350	1	21
372.521	1	11
372.692	1	10
372.863	1	12
373.033	1	7
373.204	1	3
373.375	1	14
373.546	1	17
373.717	1	12
373.888	1	24
374.059	1	16
374.229	1	17
374.400	1	9
374.571	1	11
374.742	1	26
374.913	1	10
375.084	1	1
375.254	1	8
375.425	1	25
375.596	1	18
375.767	1	10
375.938	1	15
376.109	1	19
376.279	1	3
376.450	1	6
376.621	1	22
376.792	1	6
376.963	1	4
377.134	1	12
377.304	1	17
377.475	1	5
377.646	1	7
377.817	1	3
377.988	1	4
378.159	1	3
378.329	1	18
378.500	1	15
378.671	1	14
378.842	1	11
379.013	1	5
379.184	1	6
379.354	1	21
379.525	1	13
379.696	1	18
379.867	1	16
380.038	1	10
380.209	1	16
380.379	1	9
380.550	1	10
380.721	1	6
380.892	1	10
381.063	1	14
381.233	1	25
381.404	1	12
381.575	1	22
381.746	1	16
381.917	1	11
382.087	1	9
382.258	1	3
382.429	1	18
382.600	1	25
382.771	1	11
382.941	1	3
383.112	1	25
383.283	1	9
383.454	1	13
383.625	1	4
383.795	1	20
383.966	1	15
384.137	1	19
384.308	1	16
384.479	1	18
384.649	1	12
384.820	1	14
384.991	1	14
385.162	1	15
385.333	1	10
385.503	1	10
385.674	1	1
385.845	1	29
386.016	1	16
386.187	1	10
386.357	1	17
386.528	1	23
386.699	1	8
386.870	1	18
387.041	1	15
387.211	1	13
387.382	1	21
387.553	1	18
387.724	1	4
387.894	1	14
388.065	1	20
388.236	1	17
388.407	1	8
388.578	1	6
388.748	1	1
388.919	1	28
389.090	1	10
389.261	1	13
389.431	1	15
389.602	1	10
389.773	1	19
389.944	1	16
390.114	1	19
390.285	1	19
390.456	1	15
390.627	1	7
390.798	1	11
390.968	1	13
391.139	1	20
391.310	1	10
391.481	1	14
391.651	1	17
391.822	1	5
391.993	1	15
392.164	1	10
392.334	1	12
392.505	1	15
392.676	1	21
392.847	1	13
393.017	1	16
393.188	1	20
393.359	1	3
393.530	1	17
393.700	1	21
393.871	1	11
394.042	1	7
394.213	1	13
394.383	1	20
394.554	1	22
394.725	1	32
394.896	1	9
395.066	1	15
395.237	1	7
395.408	1	6
395.579	1	19
395.749	1	18
395.920	1	11
396.091	1	22
396.262	1	20
396.432	1	15
396.603	1	18
396.774	1	26
396.945	1	12
397.115	1	18
397.286	1	13
397.457	1	15
397.627	1	23
397.798	1	22
397.969	1	16
398.140	1	14
398.310	1	3
398.481	1	20
398.652	1	18
398.823	1	5
398.993	1	12
399.164	1	13
399.335	1	20
399.505	1	18
399.676	1	13
399.847	1	15
400.018	1	16
400.188	1	5
400.359	1	19
400.530	1	20
400.700	1	19
400.871	1	13
401.042	1	16
401.213	1	24
401.383	1	11
401.554	1	18
401.725	1	20
401.895	1	12
402.066	1	17
402.237	1	28
402.408	1	18
402.578	1	14
402.749	1	26
402.920	1	23
403.090	1	9
403.261	1	14
403.432	1	18
403.603	1	24
403.773	1	27
403.944	1	20
404.115	1	27
404.285	1	23
404.456	1	15
404.627	1	5
404.797	1	11
404.968	1	8
405.139	1	12
405.310	1	25
405.480	1	15
405.651	1	18
405.822	1	17
405.992	1	7
406.163	1	8
406.334	1	9
406.504	1	20
406.675	1	30
406.846	1	12
407.016	1	17
407.187	1	18
407.358	1	4
407.528	1	14
407.699	1	2
407.870	1	14
408.041	1	11
408.211	1	24
408.382	1	13
408.553	1	4
408.723	1	15
408.894	1	11
409.065	1	15
409.235	1	13
409.406	1	3
409.577	1	13
409.747	1	25
409.918	1	14
410.089	1	13
410.259	1	17
410.430	1	5
410.601	1	16
410.771	1	20
410.942	1	30
411.113	1	20
411.283	1	12
411.454	1	17
411.625	1	20
411.795	1	20
411.966	1	21
412.137	1	11
412.307	1	8
412.478	1	15
412.649	1	22
412.819	1	14
412.990	1	17
413.161	1	20
413.331	1	9
413.502	1	25
413.672	1	11
413.843	1	12
414.014	1	12
414.184	1	16
414.355	1	14
414.526	1	22
414.696	1	23
414.867	1	25
415.038	1	0
415.208	1	15
415.379	1	23
415.550	1	17
415.720	1	12
415.891	1	16
416.062	1	13
416.232	1	15
416.403	1	21
416.573	1	19
416.744	1	17
416.915	1	18
417.085	1	26
417.256	1	13
417.427	1	10
417.597	1	18
417.768	1	18
417.939	1	24
418.109	1	17
418.280	1	25
418.450	1	11
418.621	1	7
418.792	1	16
418.962	1	16
419.133	1	30
419.304	1	15
419.474	1	12
419.645	1	11
419.815	1	9
419.986	1	15
420.157	1	12
420.327	1	17
420.498	1	13
420.669	1	18
420.839	1	23
421.010	1	26
421.180	1	17
421.351	1	23
421.522	1	27
421.692	1	15
421.863	1	7
422.033	1	19
422.204	1	18
422.375	1	11
422.545	1	24
422.716	1	25
422.886	1	18
423.057	1	13
423.228	1	15
423.398	1	16
423.569	1	20
423.740	1	11
423.910	1	3
424.081	1	19
424.251	1	12
424.422	1	19
424.593	1	4
424.763	1	17
424.934	1	18
425.104	1	18
425.275	1	14
425.445	1	11
425.616	1	7
425.787	1	6
425.957	1	14
426.128	1	21
426.298	1	9
426.469	1	11
426.640	1	14
426.810	1	19
426.981	1	16
427.151	1	6
427.322	1	21
427.493	1	14
427.663	1	20
427.834	1	7
428.004	1	28
428.175	1	8
428.345	1	9
428.516	1	9
428.687	1	12
428.857	1	13
429.028	1	14
429.198	1	19
429.369	1	17
429.540	1	18
429.710	1	9
429.881	1	11
430.051	1	18
430.222	1	14
430.392	1	19
430.563	1	17
430.734	1	29
430.904	1	20
431.075	1	21
431.245	1	12
431.416	1	28
431.586	1	14
431.757	1	23
431.927	1	12
432.098	1	16
432.269	1	12
432.439	1	11
432.610	1	15
432.780	1	20
432.951	1	1
433.121	1	10
433.292	1	13
433.462	1	17
433.633	1	25
433.804	1	15
433.974	1	14
434.145	1	29
434.315	1	8
434.486	1	13
434.656	1	23
434.827	1	13
434.997	1	12
435.168	1	22
435.339	1	21
435.509	1	13
435.680	1	14
435.850	1	20
436.021	1	21
436.191	1	16
436.362	1	7
436.532	1	18
436.703	1	17
436.873	1	21
437.044	1	10
437.214	1	21
437.385	1	13
437.556	1	12
437.726	1	26
437.897	1	16
438.067	1	13
438.238	1	10
438.408	1	14
438.579	1	6
438.749	1	21
438.920	1	12
439.090	1	10
439.261	1	0
439.431	1	15
439.602	1	11
439.772	1	10
439.943	1	22
440.113	1	11
440.284	1	18
440.455	1	8
440.625	1	18
440.796	1	20
440.966	1	3
441.137	1	16
441.307	1	10
441.478	1	20
441.648	1	17
441.819	1	2
441.989	1	19
442.160	1	26
442.330	1	22
442.501	1	23
442.671	1	14
442.842	1	-1
443.012	1	4
443.183	1	22
443.353	1	13
443.524	1	14
443.694	1	23
443.865	1	7
444.035	1	10
444.206	1	20
444.376	1	4
444.547	1	27
444.717	1	9
444.888	1	5
445.058	1	13
445.229	1	14
445.399	1	16
445.570	1	14
445.740	1	8
445.911	1	12
446.081	1	2
446.252	1	10
446.422	1	14
446.593	1	13
446.763	1	7
446.934	1	6
447.104	1	10
447.275	1	17
447.445	1	15
447.616	1	16
447.786	1	9
447.957	1	19
448.127	1	11
448.298	1	15
448.468	1	5
448.639	1	0
448.809	1	15
448.979	1	10
449.150	1	25
449.320	1	12
449.491	1	20
449.661	1	12
449.832	1	11
450.002	1	17
450.173	1	6
450.343	1	15
450.514	1	15
450.684	1	9
450.855	1	6
451.025	1	26
451.196	1	15
451.366	1	13
451.537	1	12
451.707	1	-3
451.878	1	15
452.048	1	17
452.218	1	12
452.389	1	17
452.559	1	8
452.730	1	21
452.900	1	10
453.071	1	0
453.241	1	8
453.412	1	7
453.582	1	10
453.753	1	13
453.923	1	20
454.093	1	28
454.264	1	26
454.434	1	4
454.605	1	9
454.775	1	12
454.946	1	9
455.116	1	7
455.287	1	1
455.457	1	7
455.628	1	10
455.798	1	10
455.968	1	14
456.139	1	12
456.309	1	12
456.480	1	12
456.650	1	7
456.821	1	6
456.991	1	20
457.161	1	4
457.332	1	21
457.502	1	7
457.673	1	25
457.843	1	19
458.014	1	8
458.184	1	4
458.355	1	10
458.525	1	17
458.695	1	16
458.866	1	6
459.036	1	10
459.207	1	18
459.377	1	2
459.548	1	17
459.718	1	2
459.888	1	21
460.059	1	18
460.229	1	21
460.400	1	22
460.570	1	14
460.740	1	11
460.911	1	12
461.081	1	11
461.252	1	9
461.422	1	7
461.593	1	10
461.763	1	12
461.933	1	21
462.104	1	1
462.274	1	14
462.445	1	17
462.615	1	10
462.785	1	5
462.956	1	13
463.126	1	7
463.297	1	4
463.467	1	12
463.638	1	5
463.808	1	11
463.978	1	5
464.149	1	10
464.319	1	12
464.490	1	29
464.660	1	2
464.830	1	5
465.001	1	16
465.171	1	17
465.342	1	9
465.512	1	1
465.682	1	15
465.853	1	13
466.023	1	2
466.194	1	5
466.364	1	11
466.534	1	14
466.705	1	7
466.875	1	3
467.045	1	3
467.216	1	18
467.386	1	4
467.557	1	6
467.727	1	3
467.897	1	8
468.068	1	7
468.238	1	9
468.409	1	6
468.579	1	13
468.749	1	0
468.920	1	-6
469.090	1	14
469.260	1	5
469.431	1	5
469.601	1	14
469.772	1	-2
469.942	1	3
470.112	1	15
470.283	1	6
470.453	1	11
470.623	1	2
470.794	1	5
470.964	1	18
471.135	1	14
471.305	1	1
471.475	1	10
471.646	1	8
471.816	1	7
471.986	1	9
472.157	1	15
472.327	1	-5
472.497	1	11
472.668	1	-4
472.838	1	8
473.009	1	15
473.179	1	6
473.349	1	3
473.520	1	17
473.690	1	19
473.860	1	2
474.031	1	10
474.201	1	4
474.371	1	18
474.542	1	7
474.712	1	11
474.882	1	14
475.053	1	16
475.223	1	4
475.394	1	16
475.564	1	6
475.734	1	15
475.905	1	15
476.075	1	3
476.245	1	12
476.416	1	15
476.586	1	9
476.756	1	11
476.927	1	12
477.097	1	7
477.267	1	-1
477.438	1	14
477.608	1	5
477.778	1	15
477.949	1	11
478.119	1	13
478.289	1	19
478.460	1	20
478.630	1	9
478.800	1	4
478.971	1	11
479.141	1	12
479.311	1	-5
479.482	1	1
479.652	1	-2
479.822	1	14
479.993	1	6
480.163	1	14
480.333	1	10
480.504	1	17
480.674	1	2
480.844	1	-2
481.015	1	15
481.185	1	16
481.355	1	5
481.525	1	3
481.696	1	12
481.866	1	12
482.036	1	12
482.207	1	6
482.377	1	4
482.547	1	13
482.718	1	6
482.888	1	2
483.058	1	2
483.229	1	2
483.399	1	11
483.569	1	4
483.740	1	12
483.910	1	14
484.080	1	8
484.250	1	9
484.421	1	2
484.591	1	15
484.761	1	15
484.932	1	7
485.102	1	10
485.272	1	8
485.443	1	14
485.613	1	13
485.783	1	3
485.953	1	11
486.124	1	14
486.294	1	11
486.464	1	6
486.635	1	8
486.805	1	13
486.975	1	12
487.146	1	11
487.316	1	9
487.486	1	24
487.656	1	-2
487.827	1	3
487.997	1	-3
488.167	1	6
488.338	1	15
488.508	1	-2
488.678	1	1
488.848	1	15
489.019	1	1
489.189	1	10
489.359	1	6
489.529	1	4
489.700	1	0
489.870	1	18
490.040	1	-2
490.211	1	-5
490.381	1	15
490.551	1	8
490.721	1	11
490.892	1	3
491.062	1	11
491.232	1	0
491.402	1	2
491.573	1	-6
491.743	1	5
491.913	1	7
492.084	1	9
492.254	1	-1
492.424	1	10
492.594	1	6
492.765	1	7
492.935	1	0
493.105	1	10
493.275	1	5
493.446	1	9
493.616	1	17
493.786	1	4
493.956	1	13
494.127	1	8
494.297	1	-1
494.467	1	2
494.637	1	-1
494.808	1	2
494.978	1	-1
495.148	1	5
495.318	1	1
495.489	1	11
495.659	1	8
495.829	1	-1
495.999	1	-1
496.170	1	11
496.340	1	6
496.510	1	5
496.680	1	2
496.851	1	10
497.021	1	9
497.191	1	-6
497.361	1	5
497.532	1	-4
497.702	1	10
497.872	1	-4
498.042	1	13
498.213	1	9
498.383	1	2
498.553	1	-3
498.723	1	0
498.894	1	8
499.064	1	12
499.234	1	3
499.404	1	2
499.574	1	11
499.745	1	14
499.915	1	5
500.085	1	-4
500.255	1	14
500.426	1	6
500.596	1	2
500.766	1	0
500.936	1	8
501.106	1	-6
501.277	1	9
501.447	1	1
501.617	1	6
501.787	1	4
501.958	1	-4
502.128	1	-3
502.298	1	9
502.468	1	8
502.638	1	9
502.809	1	11
502.979	1	2
503.149	1	-6
503.319	1	-4
503.489	1	9
503.660	1	8
503.830	1	10
504.000	1	13
504.170	1	-2
504.340	1	0
504.511	1	8
504.681	1	11
504.851	1	4
505.021	1	4
505.192	1	0
505.362	1	19
505.532	1	1
505.702	1	1
505.872	1	9
506.043	1	-4
506.213	1	-3
506.383	1	-1
506.553	1	8
506.723	1	6
506.893	1	6
507.064	1	11
507.234	1	3
507.404	1	1
507.574	1	2
507.744	1	7
507.915	1	9
508.085	1	1
508.255	1	6
508.425	1	-1
508.595	1	13
508.766	1	10
508.936	1	-6
509.106	1	18
509.276	1	11
509.446	1	-5
509.616	1	-5
509.787	1	4
509.957	1	8
510.127	1	5
510.297	1	3
510.467	1	2
510.638	1	8
510.808	1	-9
510.978	1	-3
511.148	1	8
511.318	1	3
511.488	1	-5
511.659	1	8
511.829	1	-8
511.999	1	-1
512.169	1	0
512.339	1	7
512.509	1	0
512.680	1	-1
512.850	1	6
513.020	1	1
513.190	1	7
513.360	1	-1
513.530	1	-2
513.700	1	8
513.871	1	-4
514.041	1	8
514.211	1	10
514.381	1	-1
514.551	1	1
514.721	1	-8
514.892	1	3
515.062	1	10
515.232	1	-2
515.402	1	-6
515.572	1	-7
515.742	1	5
515.912	1	7
516.083	1	7
516.253	1	6
516.423	1	4
516.593	1	9
516.763	1	16
516.933	1	0
517.104	1	0
517.274	1	4
517.444	1	7
517.614	1	2
517.784	1	2
517.954	1	7
518.124	1	-5
518.294	1	12
518.465	1	-6
518.635	1	0
518.805	1	-2
518.975	1	3
519.145	1	0
519.315	1	-9
519.485	1	6
519.656	1	15
519.826	1	4
519.996	1	-4
520.166	1	-2
520.336	1	14
520.506	1	-2
520.676	1	-3
520.846	1	0
521.017	1	0
521.187	1	-4
521.357	1	12
521.527	1	-1
521.697	1	2
521.867	1	-1
522.037	1	17
522.207	1	1
522.377	1	6
522.548	1	-1
522.718	1	-1
522.888	1	8
523.058	1	6
523.228	1	8
523.398	1	-5
523.568	1	0
523.738	1	-4
523.909	1	14
524.079	1	-2
524.249	1	1
524.419	1	8
524.589	1	6
524.759	1	2
524.929	1	-8
525.099	1	8
525.269	1	12
525.439	1	8
525.610	1	12
525.780	1	4
525.950	1	3
526.120	1	-4
526.290	1	5
526.460	1	-6
526.630	1	4
526.800	1	1
526.970	1	0
527.140	1	4
527.311	1	2
527.481	1	4
527.651	1	14
527.821	1	-4
527.991	1	15
528.161	1	17
528.331	1	-4
528.501	1	2
528.671	1	-10
528.841	1	6
529.011	1	2
529.181	1	3
529.352	1	12
529.522	1	0
529.692	1	7
529.862	1	6
530.032	1	8
530.202	1	1
530.372	1	4
530.542	1	13
530.712	1	4
530.882	1	10
531.052	1	2
531.222	1	8
531.392	1	1
531.563	1	18
531.733	1	10
531.903	1	-2
532.073	1	4
532.243	1	3
532.413	1	10
532.583	1	-1
532.753	1	3
532.923	1	-10
533.093	1	2
533.263	1	1
533.433	1	4
533.603	1	3
533.773	1	-2
533.943	1	1
534.113	1	8
534.284	1	2
534.454	1	3
534.624	1	9
534.794	1	-8
534.964	1	5
535.134	1	3
535.304	1	2
535.474	1	17
535.644	1	-2
535.814	1	3
535.984	1	0
536.154	1	-4
536.324	1	-2
536.494	1	14
536.664	1	10
536.834	1	-2
537.004	1	2
537.174	1	8
537.344	1	-1
537.514	1	3
537.685	1	-3
537.855	1	5
538.025	1	-5
538.195	1	3
538.365	1	17
538.535	1	4
538.705	1	5
538.875	1	3
539.045	1	6
539.215	1	7
539.385	1	-5
539.555	1	8
539.725	1	8
539.895	1	-2
540.065	1	10
540.235	1	12
540.405	1	-3
540.575	1	10
540.745	1	4
540.915	1	5
541.085	1	9
541.255	1	-7
541.425	1	10
541.595	1	4
541.765	1	5
541.935	1	-7
542.105	1	-5
542.275	1	8
542.445	1	-8
542.615	1	4
542.785	1	5
542.955	1	-10
543.125	1	-1
543.295	1	-1
543.465	1	5
543.635	1	4
543.805	1	12
543.975	1	-4
544.145	1	8
544.315	1	1
544.485	1	4
544.655	1	14
544.825	1	-2
544.995	1	7
545.165	1	-3
545.335	1	7
545.505	1	-6
545.675	1	8
545.845	1	6
546.015	1	11
546.185	1	3
546.355	1	2
546.525	1	3
546.695	1	2
546.865	1	5
547.035	1	6
547.205	1	-11
547.375	1	1
547.545	1	1
547.715	1	-1
547.885	1	14
548.055	1	-4
548.225	1	-3
548.395	1	0
548.565	1	9
548.735	1	-8
548.905	1	-4
549.075	1	4
549.245	1	-5
549.415	1	-2
549.585	1	13
549.755	1	-4
549.925	1	-8
550.095	1	5
550.265	1	-1
550.435	1	3
550.605	1	-11
550.775	1	5
550.945	1	15
551.115	1	-2
551.285	1	10
551.455	1	-2
551.625	1	13
551.795	1	7
551.965	1	5
552.135	1	1
552.305	1	-10
552.475	1	-5
552.645	1	1
552.815	1	6
552.985	1	7
553.155	1	10
553.325	1	9
553.495	1	-7
553.665	1	-6
553.835	1	4
554.004	1	4
554.174	1	7
554.344	1	5
554.514	1	6
554.684	1	7
554.854	1	12
555.024	1	-9
555.194	1	-8
555.364	1	3
555.534	1	3
555.704	1	8
555.874	1	9
556.044	1	-1
556.214	1	-1
556.384	1	0
556.554	1	4
556.724	1	1
556.894	1	5
557.064	1	0
557.234	1	-5
557.404	1	8
557.573	1	5
557.743	1	2
557.913	1	-2
558.083	1	-9
558.253	1	4
558.423	1	3
558.593	1	9
558.763	1	-1
558.933	1	-9
559.103	1	-1
559.273	1	0
559.443	1	0
559.613	1	5
559.783	1	5
559.953	1	7
560.122	1	5
560.292	1	-1
560.462	1	-6
560.632	1	8
560.802	1	0
560.972	1	14
561.142	1	0
561.312	1	-4
561.482	1	4
561.652	1	-5
561.822	1	-5
561.992	1	-1
562.162	1	10
562.331	1	4
562.501	1	-6
562.671	1	-2
562.841	1	-4
563.011	1	9
563.181	1	-1
563.351	1	-1
563.521	1	5
563.691	1	-1
563.861	1	4
564.031	1	2
564.201	1	13
564.370	1	-10
564.540	1	-3
564.710	1	-3
564.880	1	7
565.050	1	0
565.220	1	-9
565.390	1	5
565.560	1	12
565.730	1	-4
565.900	1	1
566.069	1	9
566.239	1	3
566.409	1	4
566.579	1	11
566.749	1	-5
566.919	1	7
567.089	1	0
567.259	1	-1
567.429	1	-5
567.599	1	2
567.768	1	-4
567.938	1	3
568.108	1	2
568.278	1	0
568.448	1	-9
568.618	1	7
568.788	1	2
568.958	1	-8
569.128	1	5
569.297	1	0
569.467	1	-2
569.637	1	10
569.807	1	6
569.977	1	11
570.147	1	9
570.317	1	-3
570.487	1	-1
570.656	1	3
570.826	1	-3
570.996	1	1
571.166	1	10
571.336	1	-3
571.506	1	8
571.676	1	10
571.846	1	13
572.015	1	-5
572.185	1	2
572.355	1	5
572.525	1	7
572.695	1	0
572.865	1	-2
573.035	1	-4
573.205	1	0
573.374	1	-7
573.544	1	-5
573.714	1	7
573.884	1	11
574.054	1	10
574.224	1	7
574.394	1	-3
574.563	1	-1
574.733	1	1
574.903	1	8
575.073	1	-8
575.243	1	-6
575.413	1	7
575.583	1	-1
575.752	1	3
575.922	1	1
576.092	1	-1
576.262	1	4
576.432	1	12
576.602	1	4
576.772	1	11
576.941	1	-3
577.111	1	-5
577.281	1	-2
577.451	1	-7
577.621	1	15
577.791	1	13
577.960	1	-1
578.130	1	3
578.300	1	1
578.470	1	11
578.640	1	4
578.810	1	3
578.979	1	3
579.149	1	-1
579.319	1	-11
579.489	1	1
579.659	1	1
579.829	1	9
579.998	1	3
580.168	1	3
580.338	1	4
580.508	1	0
580.678	1	-3
580.848	1	-3
581.017	1	4
581.187	1	-1
581.357	1	-3
581.527	1	9
581.697	1	8
581.867	1	5
582.036	1	-2
582.206	1	12
582.376	1	13
582.546	1	0
582.716	1	-8
582.885	1	-4
583.055	1	-2
583.225	1	3
583.395	1	3
583.565	1	-11
583.735	1	-5
583.904	1	-2
584.074	1	3
584.244	1	6
584.414	1	-4
584.584	1	13
584.753	1	-13
584.923	1	0
585.093	1	1
585.263	1	-1
585.433	1	3
585.602	1	-8
585.772	1	-1
585.942	1	1
586.112	1	3
586.282	1	-4
586.451	1	-11
586.621	1	-1
586.791	1	9
586.961	1	-3
587.131	1	4
587.300	1	-5
587.470	1	9
587.640	1	9
587.810	1	-10
587.980	1	2
588.149	1	-1
588.319	1	-1
588.489	1	-5
588.659	1	10
588.829	1	8
588.998	1	12
589.168	1	13
589.338	1	8
589.508	1	3
589.677	1	-11
589.847	1	-3
590.017	1	19
590.187	1	-10
590.357	1	15
590.526	1	15
590.696	1	3
590.866	1	1
591.036	1	-2
591.205	1	12
591.375	1	0
591.545	1	-2
591.715	1	5
591.885	1	-4
592.054	1	-3
592.224	1	8
592.394	1	4
592.564	1	-3
592.733	1	3
592.903	1	-1
593.073	1	4
593.243	1	-6
593.412	1	5
593.582	1	-7
593.752	1	-6
593.922	1	1
594.091	1	-3
594.261	1	-1
594.431	1	15
594.601	1	7
594.771	1	4
594.940	1	-5
595.110	1	-1
595.280	1	4
595.450	1	1
595.619	1	1
595.789	1	6
595.959	1	11
596.129	1	7
596.298	1	2
596.468	1	-3
596.638	1	8
596.808	1	4
596.977	1	-6
597.147	1	0
597.317	1	-4
597.487	1	11
597.656	1	1
597.826	1	7
597.996	1	9
598.166	1	2
598.335	1	-13
598.505	1	10
598.675	1	-3
598.844	1	6
599.014	1	2
599.184	1	2
599.354	1	-11
599.523	1	1
599.693	1	-4
599.863	1	13
600.033	1	-6
600.202	1	3
600.372	1	7
600.542	1	4
600.712	1	2
600.881	1	-4
601.051	1	-2
601.221	1	7
601.390	1	-4
601.560	1	4
601.730	1	10
601.900	1	4
602.069	1	8
602.239	1	-11
602.409	1	2
602.578	1	-1
602.748	1	-6
602.918	1	7
603.088	1	7
603.257	1	4
603.427	1	-10
603.597	1	-2
603.767	1	6
603.936	1	3
604.106	1	10
604.276	1	-1
604.445	1	4
604.615	1	2
604.785	1	4
604.954	1	0
605.124	1	3
605.294	1	-4
605.464	1	-3
605.633	1	7
605.803	1	5
605.973	1	-3
606.142	1	1
606.312	1	8
606.482	1	6
606.652	1	14
606.821	1	0
606.991	1	1
607.161	1	-5
607.330	1	1
607.500	1	3
607.670	1	-12
607.839	1	8
608.009	1	5
608.179	1	8
608.348	1	-3
608.518	1	0
608.688	1	13
608.858	1	-4
609.027	1	2
609.197	1	-1
609.367	1	4
609.536	1	7
609.706	1	2
609.876	1	0
610.045	1	-1
610.215	1	1
610.385	1	6
610.554	1	1
610.724	1	4
610.894	1	0
611.063	1	0
611.233	1	-5
611.403	1	1
611.572	1	4
611.742	1	11
611.912	1	5
612.081	1	1
612.251	1	10
612.421	1	-6
612.590	1	0
612.760	1	1
612.930	1	-6
613.099	1	4
613.269	1	13
613.439	1	-3
613.608	1	-2
613.778	1	9
613.948	1	7
614.117	1	5
614.287	1	2
614.457	1	8
614.626	1	3
614.796	1	6
614.966	1	-3
615.135	1	3
615.305	1	14
615.475	1	9
615.644	1	1
615.814	1	7
615.984	1	-3
616.153	1	1
616.323	1	-5
616.493	1	2
616.662	1	6
616.832	1	6
617.002	1	-1
617.171	1	6
617.341	1	-10
617.511	1	-5
617.680	1	-6
617.850	1	5
618.019	1	13
618.189	1	15
618.359	1	2
618.528	1	1
618.698	1	-2
618.868	1	4
619.037	1	-7
619.207	1	-9
619.377	1	9
619.546	1	0
619.716	1	-1
619.885	1	7
620.055	1	-7
620.225	1	3
620.394	1	-5
620.564	1	10
620.734	1	5
620.903	1	-7
621.073	1	9
621.242	1	5
621.412	1	-3
621.582	1	-1
621.751	1	8
621.921	1	3
622.091	1	6
622.260	1	0
622.430	1	5
622.599	1	3
622.769	1	0
622.939	1	13
623.108	1	-1
623.278	1	-4
623.448	1	1
623.617	1	1
623.787	1	3
623.956	1	0
624.126	1	2
624.296	1	-1
624.465	1	5
624.635	1	5
624.804	1	5
624.974	1	4
625.144	1	7
625.313	1	-5
625.483	1	3
625.652	1	-1
625.822	1	3
625.992	1	-8
626.161	1	12
626.331	1	4
626.501	1	8
626.670	1	6
626.840	1	4
627.009	1	1
627.179	1	9
627.348	1	10
627.518	1	-2
627.688	1	0
627.857	1	10
628.027	1	-1
628.196	1	0
628.366	1	8
628.536	1	3
628.705	1	6
628.875	1	2
629.044	1	-8
629.214	1	0
629.384	1	9
629.553	1	2
629.723	1	8
629.892	1	3
630.062	1	1
630.232	1	-3
630.401	1	13
630.571	1	-1
630.740	1	5
630.910	1	2
631.079	1	-3
631.249	1	11
631.419	1	11
631.588	1	-11
631.758	1	11
631.927	1	-4
632.097	1	3
632.266	1	4
632.436	1	6
632.606	1	-1
632.775	1	9
632.945	1	5
633.114	1	13
633.284	1	8
633.453	1	2
633.623	1	0
633.793	1	6
633.962	1	1
634.132	1	-2
634.301	1	4
634.471	1	10
634.640	1	0
634.810	1	12
634.979	1	9
635.149	1	9
635.319	1	-1
635.488	1	0
635.658	1	-5
635.827	1	-5
635.997	1	-6
636.166	1	6
636.336	1	-2
636.505	1	11
636.675	1	3
636.845	1	8
637.014	1	5
637.184	1	7
637.353	1	4
637.523	1	3
637.692	1	1
637.862	1	7
638.031	1	5
638.201	1	7
638.370	1	7
638.540	1	3
638.710	1	3
638.879	1	-8
639.049	1	-6
639.218	1	1
639.388	1	-7
639.557	1	4
639.727	1	2
639.896	1	3
640.066	1	3
640.235	1	3
640.405	1	8
640.574	1	-2
640.744	1	-4
640.914	1	5
641.083	1	0
641.253	1	1
641.422	1	0
641.592	1	11
641.761	1	-1
641.931	1	8
642.100	1	17
642.270	1	2
642.439	1	4
642.609	1	11
642.778	1	8
642.948	1	0
643.117	1	15
643.287	1	1
643.456	1	4
643.626	1	19
643.795	1	8
643.965	1	9
644.134	1	11
644.304	1	1
644.473	1	2
644.643	1	13
644.812	1	-1
644.982	1	5
645.151	1	0
645.321	1	2
645.490	1	5
645.660	1	-1
645.829	1	-5
645.999	1	-3
646.168	1	8
646.338	1	12
646.507	1	10
646.677	1	0
646.846	1	-3
647.016	1	-8
647.185	1	1
647.355	1	-14
647.524	1	9
647.694	1	8
647.863	1	10
648.033	1	7
648.202	1	6
648.372	1	4
648.541	1	-10
648.711	1	0
648.880	1	-5
649.050	1	-4
649.219	1	2
649.389	1	15
649.558	1	7
649.728	1	9
649.897	1	0
650.067	1	9
650.236	1	1
650.406	1	8
650.575	1	7
650.745	1	11
650.914	1	-5
651.084	1	-10
651.253	1	1
651.423	1	4
651.592	1	-1
651.762	1	-3
651.931	1	12
652.101	1	5
652.270	1	8
652.440	1	7
652.609	1	-3
652.778	1	-5
652.948	1	0
653.117	1	6
653.287	1	7
653.456	1	8
653.626	1	2
653.795	1	9
653.965	1	6
654.134	1	7
654.304	1	-2
654.473	1	5
654.643	1	5
654.812	1	-2
654.982	1	6
655.151	1	0
655.320	1	-1
655.490	1	3
655.659	1	3
655.829	1	6
655.998	1	2
656.168	1	1
656.337	1	2
656.507	1	7
656.676	1	11
656.846	1	5
657.015	1	4
657.184	1	8
657.354	1	2
657.523	1	3
657.693	1	4
657.862	1	3
658.032	1	3
658.201	1	3
658.371	1	12
658.540	1	1
658.709	1	-2
658.879	1	8
659.048	1	9
659.218	1	4
659.387	1	5
659.557	1	9
659.726	1	12
659.895	1	1
660.065	1	-1
660.234	1	2
660.404	1	0
660.573	1	-3
660.743	1	3
660.912	1	2
661.081	1	12
661.251	1	3
661.420	1	8
661.590	1	2
661.759	1	11
661.929	1	5
662.098	1	17
662.267	1	-1
662.437	1	10
662.606	1	7
662.776	1	7
662.945	1	4
663.115	1	-2
663.284	1	-3
663.453	1	2
663.623	1	-2
663.792	1	7
663.962	1	13
664.131	1	10
664.300	1	13
664.470	1	-4
664.639	1	1
664.809	1	3
664.978	1	9
665.148	1	10
665.317	1	-5
665.486	1	13
665.656	1	2
665.825	1	-1
665.995	1	3
666.164	1	5
666.333	1	3
666.503	1	1
666.672	1	0
666.842	1	-2
667.011	1	5
667.180	1	4
667.350	1	4
667.519	1	-1
667.689	1	12
667.858	1	5
668.027	1	3
668.197	1	3
668.366	1	-8
668.536	1	12
668.705	1	9
668.874	1	10
669.044	1	-1
669.213	1	5
669.382	1	4
669.552	1	9
669.721	1	5
669.891	1	7
670.060	1	5
670.229	1	15
670.399	1	6
670.568	1	16
670.738	1	16
670.907	1	2
671.076	1	-10
671.246	1	-1
671.415	1	5
671.584	1	-11
671.754	1	0
671.923	1	0
672.093	1	9
672.262	1	1
672.431	1	5
672.601	1	-5
672.770	1	0
672.939	1	21
673.109	1	-4
673.278	1	6
673.448	1	6
673.617	1	2
673.786	1	2
