325.333	1	6
325.504	1	4
325.675	1	0
325.846	1	-2
326.017	1	5
326.188	1	4
326.359	1	3
326.531	1	-11
326.702	1	-10
326.873	1	16
327.044	1	4
327.215	1	3
327.386	1	10
327.557	1	2
327.728	1	6
327.899	1	8
328.070	1	11
328.241	1	-7
328.412	1	-10
328.583	1	4
328.754	1	2
328.926	1	12
329.097	1	-5
329.268	1	5
329.439	1	7
329.610	1	5
329.781	1	-5
329.952	1	9
330.123	1	16
330.294	1	5
330.465	1	5
330.636	1	10
330.807	1	-3
330.978	1	3
331.149	1	-1
331.320	1	1
331.492	1	2
331.663	1	2
331.834	1	11
332.005	1	5
332.176	1	4
332.347	1	0
332.518	1	-6
332.689	1	1
332.860	1	7
333.031	1	5
333.202	1	6
333.373	1	14
333.544	1	1
333.715	1	5
333.886	1	1
334.057	1	11
334.228	1	-5
334.399	1	3
334.570	1	7
334.741	1	-4
334.912	1	4
335.084	1	17
335.255	1	9
335.426	1	-1
335.597	1	0
335.768	1	1
335.939	1	13
336.110	1	2
336.281	1	1
336.452	1	-1
336.623	1	4
336.794	1	11
336.965	1	13
337.136	1	9
337.307	1	-5
337.478	1	-3
337.649	1	2
337.820	1	2
337.991	1	12
338.162	1	5
338.333	1	2
338.504	1	1
338.675	1	14
338.846	1	3
339.017	1	0
339.188	1	1
339.359	1	-5
339.530	1	1
339.701	1	1
339.872	1	18
340.043	1	7
340.214	1	6
340.385	1	13
340.556	1	-8
340.727	1	3
340.898	1	8
341.069	1	12
341.240	1	2
341.411	1	4
341.582	1	5
341.753	1	0
341.924	1	2
342.095	1	12
342.266	1	16
342.437	1	8
342.608	1	8
342.779	1	3
342.950	1	6
343.121	1	2
343.292	1	-3
343.463	1	3
343.634	1	5
343.805	1	6
343.976	1	6
344.147	1	11
344.318	1	12
344.489	1	1
344.660	1	5
344.831	1	13
345.002	1	-9
345.173	1	11
345.344	1	0
345.515	1	9
345.686	1	9
345.857	1	9
346.028	1	0
346.199	1	-4
346.370	1	7
346.541	1	7
346.712	1	-4
346.883	1	5
347.054	1	3
347.225	1	9
347.396	1	11
347.567	1	1
347.738	1	0
347.909	1	11
348.080	1	3
348.251	1	12
348.422	1	9
348.593	1	-5
348.764	1	6
348.935	1	10
349.106	1	0
349.277	1	1
349.448	1	9
349.619	1	15
349.790	1	0
349.961	1	16
350.132	1	10
350.303	1	5
350.474	1	6
350.645	1	8
350.816	1	10
350.987	1	15
351.157	1	-2
351.328	1	11
351.499	1	5
351.670	1	2
351.841	1	17
352.012	1	8
352.183	1	14
352.354	1	14
352.525	1	11
352.696	1	19
352.867	1	4
353.038	1	19
353.209	1	11
353.380	1	14
353.551	1	-5
353.722	1	5
353.893	1	5
354.064	1	23
354.235	1	13
354.406	1	8
354.576	1	20
354.747	1	12
354.918	1	6
355.089	1	8
355.260	1	16
355.431	1	16
355.602	1	3
355.773	1	5
355.944	1	17
356.115	1	12
356.286	1	7
356.457	1	12
356.628	1	8
356.799	1	4
356.970	1	15
357.141	1	9
357.311	1	-2
357.482	1	11
357.653	1	8
357.824	1	12
357.995	1	13
358.166	1	6
358.337	1	6
358.508	1	9
358.679	1	11
358.850	1	7
359.021	1	3
359.192	1	17
359.363	1	5
359.533	1	5
359.704	1	13
359.875	1	7
360.046	1	5
360.217	1	-6
360.388	1	12
360.559	1	4
360.730	1	18
360.901	1	4
361.072	1	28
361.243	1	13
361.414	1	5
361.584	1	1
361.755	1	14
361.926	1	9
362.097	1	1
362.268	1	9
362.439	1	10
362.610	1	19
362.781	1	-1
362.952	1	7
363.123	1	10
363.293	1	1
363.464	1	13
363.635	1	13
363.806	1	4
363.977	1	4
364.148	1	5
364.319	1	14
364.490	1	16
364.661	1	13
364.832	1	4
365.002	1	12
365.173	1	5
365.344	1	26
365.515	1	5
365.686	1	9
365.857	1	9
366.028	1	18
366.199	1	11
366.370	1	11
366.540	1	10
366.711	1	-11
366.882	1	-4
367.053	1	2
367.224	1	28
367.395	1	4
367.566	1	10
367.737	1	14
367.908	1	19
368.078	1	15
368.249	1	14
368.420	1	8
368.591	1	8
368.762	1	1
368.933	1	11
369.104	1	1
369.274	1	11
369.445	1	9
369.616	1	10
369.787	1	7
369.958	1	21
370.129	1	-2
370.300	1	10
370.471	1	0
370.641	1	11
370.812	1	14
370.983	1	10
371.154	1	8
371.325	1	8
371.496	1	2
371.667	1	13
371.837	1	5
372.008	1	5
372.179	1	9
372.350	1	22
372.521	1	13
372.692	1	6
372.863	1	12
373.033	1	-4
373.204	1	8
373.375	1	8
373.546	1	9
373.717	1	15
373.888	1	16
374.059	1	16
374.229	1	15
374.400	1	7
374.571	1	12
374.742	1	20
374.913	1	15
375.084	1	17
375.254	1	16
375.425	1	10
375.596	1	10
375.767	1	3
375.938	1	19
376.109	1	15
376.279	1	7
376.450	1	8
376.621	1	3
376.792	1	14
376.963	1	12
377.134	1	21
377.304	1	15
377.475	1	-3
377.646	1	10
377.817	1	3
377.988	1	9
378.159	1	9
378.329	1	21
378.500	1	7
378.671	1	9
378.842	1	15
379.013	1	3
379.184	1	5
379.354	1	12
379.525	1	2
379.696	1	21
379.867	1	18
380.038	1	13
380.209	1	10
380.379	1	12
380.550	1	7
380.721	1	17
380.892	1	10
381.063	1	15
381.233	1	11
381.404	1	10
381.575	1	24
381.746	1	17
381.917	1	0
382.087	1	15
382.258	1	10
382.429	1	17
382.600	1	14
382.771	1	13
382.941	1	8
383.112	1	16
383.283	1	18
383.454	1	8
383.625	1	15
383.795	1	13
383.966	1	7
384.137	1	17
384.308	1	12
384.479	1	19
384.649	1	17
384.820	1	13
384.991	1	16
385.162	1	18
385.333	1	7
385.503	1	12
385.674	1	2
385.845	1	15
386.016	1	15
386.187	1	10
386.357	1	17
386.528	1	17
386.699	1	11
386.870	1	21
387.041	1	9
387.211	1	6
387.382	1	14
387.553	1	12
387.724	1	12
387.894	1	17
388.065	1	7
388.236	1	23
388.407	1	11
388.578	1	8
388.748	1	15
388.919	1	21
389.090	1	10
389.261	1	15
389.431	1	24
389.602	1	18
389.773	1	20
389.944	1	16
390.114	1	8
390.285	1	13
390.456	1	17
390.627	1	13
390.798	1	13
390.968	1	11
391.139	1	16
391.310	1	13
391.481	1	18
391.651	1	12
391.822	1	4
391.993	1	9
392.164	1	6
392.334	1	6
392.505	1	11
392.676	1	14
392.847	1	28
393.017	1	22
393.188	1	19
393.359	1	5
393.530	1	12
393.700	1	6
393.871	1	14
394.042	1	18
394.213	1	9
394.383	1	12
394.554	1	14
394.725	1	17
394.896	1	9
395.066	1	12
395.237	1	10
395.408	1	15
395.579	1	13
395.749	1	16
395.920	1	9
396.091	1	11
396.262	1	8
396.432	1	18
396.603	1	21
396.774	1	26
396.945	1	4
397.115	1	15
397.286	1	7
397.457	1	14
397.627	1	17
397.798	1	14
397.969	1	12
398.140	1	9
398.310	1	10
398.481	1	22
398.652	1	10
398.823	1	3
398.993	1	9
399.164	1	17
399.335	1	23
399.505	1	22
399.676	1	16
399.847	1	19
400.018	1	7
400.188	1	18
400.359	1	11
400.530	1	4
400.700	1	20
400.871	1	18
401.042	1	13
401.213	1	15
401.383	1	18
401.554	1	24
401.725	1	19
401.895	1	12
402.066	1	21
402.237	1	21
402.408	1	24
402.578	1	20
402.749	1	20
402.920	1	25
403.090	1	6
403.261	1	20
403.432	1	14
403.603	1	22
403.773	1	22
403.944	1	29
404.115	1	28
404.285	1	23
404.456	1	6
404.627	1	13
404.797	1	8
404.968	1	9
405.139	1	8
405.310	1	24
405.480	1	12
405.651	1	10
405.822	1	15
405.992	1	8
406.163	1	18
406.334	1	14
406.504	1	18
406.675	1	19
406.846	1	17
407.016	1	18
407.187	1	24
407.358	1	6
407.528	1	12
407.699	1	11
407.870	1	12
408.041	1	13
408.211	1	27
408.382	1	7
408.553	1	12
408.723	1	18
408.894	1	17
409.065	1	11
409.235	1	5
409.406	1	13
409.577	1	9
409.747	1	32
409.918	1	12
410.089	1	19
410.259	1	14
410.430	1	11
410.601	1	14
410.771	1	11
410.942	1	27
411.113	1	21
411.283	1	5
411.454	1	18
411.625	1	15
411.795	1	18
411.966	1	26
412.137	1	19
412.307	1	8
412.478	1	13
412.649	1	15
412.819	1	16
412.990	1	17
413.161	1	18
413.331	1	11
413.502	1	21
413.672	1	25
413.843	1	15
414.014	1	19
414.184	1	17
414.355	1	18
414.526	1	21
414.696	1	27
414.867	1	18
415.038	1	3
415.208	1	11
415.379	1	25
415.550	1	24
415.720	1	12
415.891	1	14
416.062	1	18
416.232	1	24
416.403	1	20
416.573	1	25
416.744	1	11
416.915	1	20
417.085	1	18
417.256	1	15
417.427	1	8
417.597	1	12
417.768	1	6
417.939	1	21
418.109	1	19
418.280	1	23
418.450	1	12
418.621	1	10
418.792	1	22
418.962	1	18
419.133	1	14
419.304	1	13
419.474	1	9
419.645	1	20
419.815	1	22
419.986	1	25
420.157	1	5
420.327	1	10
420.498	1	20
420.669	1	16
420.839	1	23
421.010	1	30
421.180	1	20
421.351	1	19
421.522	1	16
421.692	1	28
421.863	1	17
422.033	1	17
422.204	1	17
422.375	1	12
422.545	1	20
422.716	1	17
422.886	1	22
423.057	1	18
423.228	1	21
423.398	1	18
423.569	1	11
423.740	1	2
423.910	1	3
424.081	1	14
424.251	1	6
424.422	1	14
424.593	1	2
424.763	1	15
424.934	1	18
425.104	1	17
425.275	1	14
425.445	1	18
425.616	1	11
425.787	1	12
425.957	1	14
426.128	1	20
426.298	1	14
426.469	1	6
426.640	1	15
426.810	1	21
426.981	1	16
427.151	1	14
427.322	1	12
427.493	1	16
427.663	1	13
427.834	1	7
428.004	1	13
428.175	1	21
428.345	1	8
428.516	1	6
428.687	1	19
428.857	1	8
429.028	1	17
429.198	1	24
429.369	1	18
429.540	1	9
429.710	1	6
429.881	1	11
430.051	1	22
430.222	1	8
430.392	1	15
430.563	1	29
430.734	1	30
430.904	1	27
431.075	1	22
431.245	1	7
431.416	1	18
431.586	1	9
431.757	1	17
431.927	1	10
432.098	1	17
432.269	1	9
432.439	1	15
432.610	1	26
432.780	1	18
432.951	1	19
433.121	1	15
433.292	1	21
433.462	1	23
433.633	1	10
433.804	1	13
433.974	1	11
434.145	1	29
434.315	1	3
434.486	1	7
434.656	1	25
434.827	1	12
434.997	1	5
435.168	1	10
435.339	1	13
435.509	1	23
435.680	1	10
435.850	1	9
436.021	1	15
436.191	1	16
436.362	1	19
436.532	1	21
436.703	1	13
436.873	1	15
437.044	1	0
437.214	1	18
437.385	1	6
437.556	1	16
437.726	1	30
437.897	1	23
438.067	1	12
438.238	1	18
438.408	1	24
438.579	1	-2
438.749	1	10
438.920	1	9
439.090	1	16
439.261	1	10
439.431	1	5
439.602	1	7
439.772	1	23
439.943	1	18
440.113	1	20
440.284	1	12
440.455	1	19
440.625	1	20
440.796	1	17
440.966	1	4
441.137	1	10
441.307	1	11
441.478	1	17
441.648	1	17
441.819	1	21
441.989	1	10
442.160	1	26
442.330	1	20
442.501	1	20
442.671	1	5
442.842	1	-2
443.012	1	10
443.183	1	17
443.353	1	4
443.524	1	15
443.694	1	21
443.865	1	17
444.035	1	16
444.206	1	13
444.376	1	13
444.547	1	19
444.717	1	17
444.888	1	6
445.058	1	19
445.229	1	15
445.399	1	9
445.570	1	6
445.740	1	11
445.911	1	11
446.081	1	4
446.252	1	16
446.422	1	15
446.593	1	12
446.763	1	11
446.934	1	10
447.104	1	13
447.275	1	12
447.445	1	10
447.616	1	25
447.786	1	16
447.957	1	16
448.127	1	13
448.298	1	13
448.468	1	10
448.639	1	12
448.809	1	9
448.979	1	7
449.150	1	14
449.320	1	22
449.491	1	24
449.661	1	14
449.832	1	7
450.002	1	22
450.173	1	18
450.343	1	14
450.514	1	9
450.684	1	22
450.855	1	10
451.025	1	16
451.196	1	13
451.366	1	19
451.537	1	2
451.707	1	2
451.878	1	18
452.048	1	22
452.218	1	11
452.389	1	16
452.559	1	22
452.730	1	21
452.900	1	10
453.071	1	3
453.241	1	18
453.412	1	13
453.582	1	8
453.753	1	22
453.923	1	5
454.093	1	17
454.264	1	14
454.434	1	7
454.605	1	7
454.775	1	16
454.946	1	16
455.116	1	12
455.287	1	6
455.457	1	9
455.628	1	9
455.798	1	16
455.968	1	6
456.139	1	4
456.309	1	14
456.480	1	9
456.650	1	-1
456.821	1	7
456.991	1	19
457.161	1	7
457.332	1	11
457.502	1	-2
457.673	1	19
457.843	1	22
458.014	1	8
458.184	1	14
458.355	1	6
458.525	1	15
458.695	1	15
458.866	1	20
459.036	1	11
459.207	1	5
459.377	1	7
459.548	1	16
459.718	1	7
459.888	1	16
460.059	1	10
460.229	1	11
460.400	1	9
460.570	1	16
460.740	1	9
460.911	1	22
461.081	1	16
461.252	1	0
461.422	1	21
461.593	1	7
461.763	1	13
461.933	1	20
462.104	1	1
462.274	1	10
462.445	1	9
462.615	1	10
462.785	1	13
462.956	1	11
463.126	1	11
463.297	1	10
463.467	1	10
463.638	1	22
463.808	1	-1
463.978	1	-1
464.149	1	4
464.319	1	1
464.490	1	21
464.660	1	3
464.830	1	13
465.001	1	7
465.171	1	13
465.342	1	12
465.512	1	5
465.682	1	4
465.853	1	20
466.023	1	1
466.194	1	5
466.364	1	24
466.534	1	10
466.705	1	16
466.875	1	5
467.045	1	5
467.216	1	21
467.386	1	5
467.557	1	10
467.727	1	8
467.897	1	15
468.068	1	5
468.238	1	12
468.409	1	5
468.579	1	11
468.749	1	9
468.920	1	-1
469.090	1	10
469.260	1	3
469.431	1	10
469.601	1	15
469.772	1	5
469.942	1	-1
470.112	1	12
470.283	1	-1
470.453	1	9
470.623	1	5
470.794	1	7
470.964	1	9
471.135	1	13
471.305	1	-1
471.475	1	15
471.646	1	4
471.816	1	-1
471.986	1	5
472.157	1	18
472.327	1	-3
472.497	1	13
472.668	1	-1
472.838	1	24
473.009	1	6
473.179	1	0
473.349	1	-2
473.520	1	12
473.690	1	6
473.860	1	3
474.031	1	9
474.201	1	7
474.371	1	25
474.542	1	3
474.712	1	17
474.882	1	7
475.053	1	16
475.223	1	-2
475.394	1	7
475.564	1	9
475.734	1	9
475.905	1	16
476.075	1	7
476.245	1	17
476.416	1	22
476.586	1	20
476.756	1	9
476.927	1	10
477.097	1	6
477.267	1	-1
477.438	1	8
477.608	1	3
477.778	1	19
477.949	1	12
478.119	1	15
478.289	1	18
478.460	1	13
478.630	1	14
478.800	1	10
478.971	1	8
479.141	1	0
479.311	1	-5
479.482	1	6
479.652	1	11
479.822	1	2
479.993	1	7
480.163	1	10
480.333	1	17
480.504	1	7
480.674	1	8
480.844	1	-1
481.015	1	14
481.185	1	1
481.355	1	12
481.525	1	1
481.696	1	8
481.866	1	4
482.036	1	10
482.207	1	14
482.377	1	7
482.547	1	17
482.718	1	4
482.888	1	9
483.058	1	5
483.229	1	7
483.399	1	5
483.569	1	6
483.740	1	7
483.910	1	4
484.080	1	4
484.250	1	2
484.421	1	11
484.591	1	8
484.761	1	25
484.932	1	6
485.102	1	21
485.272	1	3
485.443	1	11
485.613	1	-4
485.783	1	8
485.953	1	6
486.124	1	12
486.294	1	8
486.464	1	13
486.635	1	12
486.805	1	21
486.975	1	3
487.146	1	2
487.316	1	7
487.486	1	14
487.656	1	6
487.827	1	8
487.997	1	-5
488.167	1	-1
488.338	1	-1
488.508	1	3
488.678	1	1
488.848	1	7
489.019	1	-3
489.189	1	5
489.359	1	7
489.529	1	11
489.700	1	1
489.870	1	16
490.040	1	2
490.211	1	5
490.381	1	9
490.551	1	4
490.721	1	10
490.892	1	11
491.062	1	9
491.232	1	11
491.402	1	2
491.573	1	-3
491.743	1	11
491.913	1	1
492.084	1	13
492.254	1	4
492.424	1	7
492.594	1	4
492.765	1	7
492.935	1	14
493.105	1	5
493.275	1	10
493.446	1	8
493.616	1	15
493.786	1	2
493.956	1	5
494.127	1	5
494.297	1	0
494.467	1	-3
494.637	1	10
494.808	1	0
494.978	1	-4
495.148	1	-1
495.318	1	8
495.489	1	10
495.659	1	13
495.829	1	14
495.999	1	-3
496.170	1	8
496.340	1	9
496.510	1	14
496.680	1	-3
496.851	1	1
497.021	1	-4
497.191	1	10
497.361	1	2
497.532	1	0
497.702	1	7
497.872	1	-4
498.042	1	11
498.213	1	11
498.383	1	10
498.553	1	-1
498.723	1	-2
498.894	1	3
499.064	1	5
499.234	1	3
499.404	1	1
499.574	1	10
499.745	1	6
499.915	1	11
500.085	1	1
500.255	1	10
500.426	1	-1
500.596	1	3
500.766	1	7
500.936	1	16
501.106	1	-4
501.277	1	6
501.447	1	10
501.617	1	10
501.787	1	3
501.958	1	-5
502.128	1	-7
502.298	1	-4
502.468	1	6
502.638	1	6
502.809	1	8
502.979	1	7
503.149	1	-1
503.319	1	-1
503.489	1	-2
503.660	1	2
503.830	1	5
504.000	1	19
504.170	1	5
504.340	1	-3
504.511	1	10
504.681	1	11
504.851	1	9
505.021	1	4
505.192	1	3
505.362	1	21
505.532	1	0
505.702	1	2
505.872	1	6
506.043	1	6
506.213	1	5
506.383	1	4
506.553	1	20
506.723	1	3
506.893	1	0
507.064	1	15
507.234	1	1
507.404	1	3
507.574	1	-1
507.744	1	5
507.915	1	2
508.085	1	15
508.255	1	7
508.425	1	0
508.595	1	15
508.766	1	12
508.936	1	-6
509.106	1	5
509.276	1	8
509.446	1	-7
509.616	1	9
509.787	1	-2
509.957	1	7
510.127	1	1
510.297	1	11
510.467	1	3
510.638	1	15
510.808	1	-10
510.978	1	-3
511.148	1	0
511.318	1	3
511.488	1	-8
511.659	1	3
511.829	1	-2
511.999	1	5
512.169	1	9
512.339	1	4
512.509	1	4
512.680	1	4
512.850	1	16
513.020	1	8
513.190	1	0
513.360	1	-1
513.530	1	1
513.700	1	13
513.871	1	-3
514.041	1	6
514.211	1	6
514.381	1	14
514.551	1	3
514.721	1	-2
514.892	1	6
515.062	1	1
515.232	1	-1
515.402	1	1
515.572	1	-9
515.742	1	10
515.912	1	10
516.083	1	10
516.253	1	6
516.423	1	2
516.593	1	1
516.763	1	14
516.933	1	-2
517.104	1	7
517.274	1	6
517.444	1	9
517.614	1	-4
517.784	1	5
517.954	1	4
518.124	1	-6
518.294	1	7
518.465	1	2
518.635	1	1
518.805	1	-11
518.975	1	9
519.145	1	-3
519.315	1	-1
519.485	1	-1
519.656	1	14
519.826	1	6
519.996	1	-4
520.166	1	13
520.336	1	13
520.506	1	0
520.676	1	-5
520.846	1	16
521.017	1	12
521.187	1	1
521.357	1	17
521.527	1	1
521.697	1	5
521.867	1	-5
522.037	1	10
522.207	1	7
522.377	1	3
522.548	1	-1
522.718	1	-3
522.888	1	10
523.058	1	7
523.228	1	11
523.398	1	9
523.568	1	7
523.738	1	2
523.909	1	10
524.079	1	2
524.249	1	2
524.419	1	1
524.589	1	8
524.759	1	4
524.929	1	2
525.099	1	7
525.269	1	5
525.439	1	4
525.610	1	8
525.780	1	8
525.950	1	1
526.120	1	1
526.290	1	2
526.460	1	0
526.630	1	11
526.800	1	-5
526.970	1	-2
527.140	1	2
527.311	1	-1
527.481	1	-4
527.651	1	4
527.821	1	-5
527.991	1	13
528.161	1	23
528.331	1	2
528.501	1	4
528.671	1	3
528.841	1	3
529.011	1	-1
529.181	1	7
529.352	1	6
529.522	1	-3
529.692	1	8
529.862	1	-1
530.032	1	8
530.202	1	11
530.372	1	4
530.542	1	6
530.712	1	-3
530.882	1	1
531.052	1	3
531.222	1	-1
531.392	1	-1
531.563	1	9
531.733	1	9
531.903	1	-2
532.073	1	14
532.243	1	-6
532.413	1	10
532.583	1	-9
532.753	1	-6
532.923	1	-14
533.093	1	2
533.263	1	-1
533.433	1	4
533.603	1	12
533.773	1	2
533.943	1	-4
534.113	1	5
534.284	1	4
534.454	1	6
534.624	1	8
534.794	1	-5
534.964	1	12
535.134	1	8
535.304	1	4
535.474	1	8
535.644	1	-1
535.814	1	-2
535.984	1	3
536.154	1	-13
536.324	1	7
536.494	1	10
536.664	1	5
536.834	1	1
537.004	1	6
537.174	1	7
537.344	1	2
537.514	1	-13
537.685	1	1
537.855	1	3
538.025	1	-1
538.195	1	4
538.365	1	15
538.535	1	12
538.705	1	-7
538.875	1	6
539.045	1	-2
539.215	1	11
539.385	1	-2
539.555	1	-2
539.725	1	-3
539.895	1	-6
540.065	1	18
540.235	1	10
540.405	1	3
540.575	1	3
540.745	1	-1
540.915	1	11
541.085	1	3
541.255	1	-2
541.425	1	9
541.595	1	5
541.765	1	7
541.935	1	-9
542.105	1	2
542.275	1	3
542.445	1	-6
542.615	1	-2
542.785	1	5
542.955	1	-5
543.125	1	-7
543.295	1	11
543.465	1	4
543.635	1	10
543.805	1	16
543.975	1	1
544.145	1	-1
544.315	1	7
544.485	1	15
544.655	1	-2
544.825	1	-11
544.995	1	-6
545.165	1	-4
545.335	1	5
545.505	1	-4
545.675	1	3
545.845	1	1
546.015	1	1
546.185	1	5
546.355	1	2
546.525	1	-1
546.695	1	5
546.865	1	1
547.035	1	-4
547.205	1	-15
547.375	1	-4
547.545	1	10
547.715	1	-2
547.885	1	-3
548.055	1	2
548.225	1	8
548.395	1	3
548.565	1	-2
548.735	1	1
548.905	1	-3
549.075	1	-1
549.245	1	-3
549.415	1	4
549.585	1	0
549.755	1	-1
549.925	1	-11
550.095	1	-3
550.265	1	-3
550.435	1	0
550.605	1	-2
550.775	1	8
550.945	1	11
551.115	1	7
551.285	1	4
551.455	1	0
551.625	1	6
551.795	1	8
551.965	1	-1
552.135	1	3
552.305	1	-4
552.475	1	-10
552.645	1	-4
552.815	1	-2
552.985	1	9
553.155	1	9
553.325	1	9
553.495	1	-8
553.665	1	-2
553.835	1	-6
554.004	1	2
554.174	1	-9
554.344	1	2
554.514	1	-4
554.684	1	6
554.854	1	15
555.024	1	-1
555.194	1	-5
555.364	1	6
555.534	1	5
555.704	1	-5
555.874	1	5
556.044	1	3
556.214	1	-2
556.384	1	-1
556.554	1	8
556.724	1	-2
556.894	1	6
557.064	1	1
557.234	1	-1
557.404	1	8
557.573	1	-1
557.743	1	-6
557.913	1	-4
558.083	1	1
558.253	1	5
558.423	1	4
558.593	1	5
558.763	1	-1
558.933	1	2
559.103	1	13
559.273	1	4
559.443	1	3
559.613	1	3
559.783	1	-5
559.953	1	2
560.122	1	4
560.292	1	-6
560.462	1	2
560.632	1	14
560.802	1	1
560.972	1	11
561.142	1	3
561.312	1	0
561.482	1	6
561.652	1	8
561.822	1	-3
561.992	1	3
562.162	1	-2
562.331	1	8
562.501	1	-13
562.671	1	8
562.841	1	-3
563.011	1	9
563.181	1	2
563.351	1	0
563.521	1	14
563.691	1	-2
563.861	1	7
564.031	1	3
564.201	1	16
564.370	1	-3
564.540	1	6
564.710	1	-4
564.880	1	16
565.050	1	2
565.220	1	1
565.390	1	10
565.560	1	2
565.730	1	-9
565.900	1	3
566.069	1	9
566.239	1	8
566.409	1	4
566.579	1	2
566.749	1	0
566.919	1	9
567.089	1	11
567.259	1	10
567.429	1	-3
567.599	1	-6
567.768	1	-2
567.938	1	5
568.108	1	-2
568.278	1	-8
568.448	1	-3
568.618	1	6
568.788	1	0
568.958	1	3
569.128	1	3
569.297	1	0
569.467	1	1
569.637	1	14
569.807	1	5
569.977	1	6
570.147	1	5
570.317	1	-3
570.487	1	8
570.656	1	13
570.826	1	-6
570.996	1	-3
571.166	1	13
571.336	1	-3
571.506	1	7
571.676	1	0
571.846	1	10
572.015	1	-2
572.185	1	3
572.355	1	-2
572.525	1	2
572.695	1	-5
572.865	1	-5
573.035	1	1
573.205	1	-2
573.374	1	-4
573.544	1	-1
573.714	1	7
573.884	1	4
574.054	1	10
574.224	1	5
574.394	1	5
574.563	1	-5
574.733	1	3
574.903	1	-2
575.073	1	-3
575.243	1	-5
575.413	1	13
575.583	1	0
575.752	1	5
575.922	1	1
576.092	1	2
576.262	1	5
576.432	1	-3
576.602	1	-5
576.772	1	11
576.941	1	-1
577.111	1	3
577.281	1	0
577.451	1	-9
577.621	1	1
577.791	1	-2
577.960	1	-3
578.130	1	-3
578.300	1	-4
578.470	1	9
578.640	1	3
578.810	1	8
578.979	1	-2
579.149	1	0
579.319	1	-4
579.489	1	3
579.659	1	7
579.829	1	7
579.998	1	10
580.168	1	3
580.338	1	5
580.508	1	2
580.678	1	1
580.848	1	0
581.017	1	4
581.187	1	0
581.357	1	-6
581.527	1	6
581.697	1	12
581.867	1	3
582.036	1	3
582.206	1	0
582.376	1	8
582.546	1	-5
582.716	1	-7
582.885	1	-4
583.055	1	2
583.225	1	-10
583.395	1	9
583.565	1	1
583.735	1	11
583.904	1	-10
584.074	1	3
584.244	1	11
584.414	1	-5
584.584	1	6
584.753	1	-4
584.923	1	5
585.093	1	1
585.263	1	8
585.433	1	2
585.602	1	-7
585.772	1	-3
585.942	1	5
586.112	1	0
586.282	1	-5
586.451	1	-2
586.621	1	-3
586.791	1	5
586.961	1	4
587.131	1	11
587.300	1	-6
587.470	1	8
587.640	1	12
587.810	1	8
587.980	1	4
588.149	1	-2
588.319	1	5
588.489	1	0
588.659	1	1
588.829	1	2
588.998	1	7
589.168	1	4
589.338	1	-5
589.508	1	10
589.677	1	-3
589.847	1	-12
590.017	1	17
590.187	1	-7
590.357	1	16
590.526	1	8
590.696	1	5
590.866	1	7
591.036	1	3
591.205	1	7
591.375	1	-2
591.545	1	-7
591.715	1	1
591.885	1	-2
592.054	1	4
592.224	1	5
592.394	1	3
592.564	1	3
592.733	1	1
592.903	1	-2
593.073	1	4
593.243	1	11
593.412	1	1
593.582	1	1
593.752	1	-3
593.922	1	0
594.091	1	0
594.261	1	-4
594.431	1	3
594.601	1	0
594.771	1	5
594.940	1	-1
595.110	1	-4
595.280	1	-2
595.450	1	3
595.619	1	4
595.789	1	-5
595.959	1	12
596.129	1	-4
596.298	1	-4
596.468	1	4
596.638	1	7
596.808	1	7
596.977	1	6
597.147	1	5
597.317	1	5
597.487	1	13
597.656	1	-3
597.826	1	6
597.996	1	-3
598.166	1	-5
598.335	1	-5
598.505	1	-4
598.675	1	-7
598.844	1	5
599.014	1	-4
599.184	1	-3
599.354	1	-8
599.523	1	3
599.693	1	2
599.863	1	4
600.033	1	-1
600.202	1	3
600.372	1	3
600.542	1	9
600.712	1	1
600.881	1	0
601.051	1	16
601.221	1	5
601.390	1	3
601.560	1	-3
601.730	1	4
601.900	1	2
602.069	1	13
602.239	1	6
602.409	1	-6
602.578	1	7
602.748	1	-3
602.918	1	5
603.088	1	-8
603.257	1	8
603.427	1	-3
603.597	1	7
603.767	1	3
603.936	1	7
604.106	1	2
604.276	1	13
604.445	1	8
604.615	1	-11
604.785	1	2
604.954	1	1
605.124	1	4
605.294	1	-5
605.464	1	-5
605.633	1	11
605.803	1	1
605.973	1	-4
606.142	1	-1
606.312	1	12
606.482	1	7
606.652	1	12
606.821	1	-11
606.991	1	2
607.161	1	2
607.330	1	8
607.500	1	8
607.670	1	-1
607.839	1	18
608.009	1	8
608.179	1	5
608.348	1	0
608.518	1	0
608.688	1	12
608.858	1	3
609.027	1	-6
609.197	1	4
609.367	1	11
609.536	1	13
609.706	1	-2
609.876	1	-1
610.045	1	6
610.215	1	11
610.385	1	-1
610.554	1	-4
610.724	1	5
610.894	1	1
611.063	1	1
611.233	1	-3
611.403	1	6
611.572	1	1
611.742	1	2
611.912	1	1
612.081	1	-4
612.251	1	1
612.421	1	-4
612.590	1	7
612.760	1	-3
612.930	1	14
613.099	1	2
613.269	1	8
613.439	1	2
613.608	1	2
613.778	1	0
613.948	1	-3
614.117	1	-3
614.287	1	5
614.457	1	18
614.626	1	0
614.796	1	11
614.966	1	-3
615.135	1	9
615.305	1	5
615.475	1	3
615.644	1	-2
615.814	1	9
615.984	1	-1
616.153	1	1
616.323	1	2
616.493	1	7
616.662	1	9
616.832	1	6
617.002	1	1
617.171	1	8
617.341	1	-2
617.511	1	-4
617.680	1	-6
617.850	1	10
618.019	1	9
618.189	1	20
618.359	1	11
618.528	1	0
618.698	1	11
618.868	1	-6
619.037	1	4
619.207	1	-3
619.377	1	-4
619.546	1	-5
619.716	1	2
619.885	1	5
620.055	1	-10
620.225	1	9
620.394	1	-4
620.564	1	9
620.734	1	2
620.903	1	3
621.073	1	8
621.242	1	6
621.412	1	2
621.582	1	-2
621.751	1	6
621.921	1	8
622.091	1	4
622.260	1	3
622.430	1	2
622.599	1	-6
622.769	1	2
622.939	1	8
623.108	1	2
623.278	1	-2
623.448	1	-6
623.617	1	3
623.787	1	1
623.956	1	13
624.126	1	1
624.296	1	-5
624.465	1	1
624.635	1	11
624.804	1	5
624.974	1	9
625.144	1	4
625.313	1	5
625.483	1	-1
625.652	1	-2
625.822	1	-3
625.992	1	-1
626.161	1	3
626.331	1	4
626.501	1	3
626.670	1	6
626.840	1	3
627.009	1	5
627.179	1	13
627.348	1	8
627.518	1	2
627.688	1	5
627.857	1	6
628.027	1	5
628.196	1	3
628.366	1	12
628.536	1	7
628.705	1	6
628.875	1	13
629.044	1	-5
629.214	1	5
629.384	1	-2
629.553	1	8
629.723	1	4
629.892	1	2
630.062	1	3
630.232	1	-1
630.401	1	8
630.571	1	3
630.740	1	7
630.910	1	3
631.079	1	2
631.249	1	2
631.419	1	0
631.588	1	-11
631.758	1	7
631.927	1	-3
632.097	1	6
632.266	1	3
632.436	1	9
632.606	1	-9
632.775	1	7
632.945	1	8
633.114	1	8
633.284	1	1
633.453	1	4
633.623	1	0
633.793	1	15
633.962	1	0
634.132	1	4
634.301	1	-4
634.471	1	16
634.640	1	12
634.810	1	6
634.979	1	7
635.149	1	0
635.319	1	5
635.488	1	3
635.658	1	-2
635.827	1	-4
635.997	1	2
636.166	1	11
636.336	1	5
636.505	1	12
636.675	1	-7
636.845	1	3
637.014	1	2
637.184	1	6
637.353	1	4
637.523	1	11
637.692	1	2
637.862	1	2
638.031	1	8
638.201	1	14
638.370	1	3
638.540	1	8
638.710	1	5
638.879	1	-11
639.049	1	-1
639.218	1	-7
639.388	1	-2
639.557	1	9
639.727	1	3
639.896	1	1
640.066	1	-2
640.235	1	5
640.405	1	14
640.574	1	3
640.744	1	-1
640.914	1	-4
641.083	1	-1
641.253	1	-8
641.422	1	10
641.592	1	14
641.761	1	-3
641.931	1	-5
642.100	1	15
642.270	1	-2
642.439	1	5
642.609	1	18
642.778	1	4
642.948	1	-3
643.117	1	4
643.287	1	-2
643.456	1	4
643.626	1	12
643.795	1	1
643.965	1	9
644.134	1	0
644.304	1	10
644.473	1	5
644.643	1	-2
644.812	1	-4
644.982	1	20
645.151	1	4
645.321	1	-8
645.490	1	7
645.660	1	-6
645.829	1	0
645.999	1	3
646.168	1	7
646.338	1	9
646.507	1	0
646.677	1	6
646.846	1	4
647.016	1	-10
647.185	1	8
647.355	1	-7
647.524	1	16
647.694	1	10
647.863	1	4
648.033	1	5
648.202	1	2
648.372	1	-2
648.541	1	8
648.711	1	-3
648.880	1	-3
649.050	1	-6
649.219	1	7
649.389	1	10
649.558	1	2
649.728	1	5
649.897	1	-6
650.067	1	9
650.236	1	6
650.406	1	6
650.575	1	10
650.745	1	6
650.914	1	2
651.084	1	0
651.253	1	3
651.423	1	-2
651.592	1	-6
651.762	1	3
651.931	1	6
652.101	1	-2
652.270	1	11
652.440	1	9
652.609	1	-5
652.778	1	-5
652.948	1	10
653.117	1	7
653.287	1	5
653.456	1	5
653.626	1	12
653.795	1	10
653.965	1	9
654.134	1	14
654.304	1	-7
654.473	1	2
654.643	1	6
654.812	1	2
654.982	1	3
655.151	1	3
655.320	1	4
655.490	1	2
655.659	1	0
655.829	1	6
655.998	1	3
656.168	1	7
656.337	1	5
656.507	1	1
656.676	1	7
656.846	1	9
657.015	1	11
657.184	1	3
657.354	1	6
657.523	1	5
657.693	1	11
657.862	1	6
658.032	1	-9
658.201	1	4
658.371	1	9
658.540	1	1
658.709	1	5
658.879	1	3
659.048	1	-8
659.218	1	1
659.387	1	2
659.557	1	1
659.726	1	7
659.895	1	3
660.065	1	-4
660.234	1	5
660.404	1	3
660.573	1	0
660.743	1	11
660.912	1	5
661.081	1	20
661.251	1	-3
661.420	1	5
661.590	1	2
661.759	1	1
661.929	1	1
662.098	1	13
662.267	1	-11
662.437	1	4
662.606	1	3
662.776	1	11
662.945	1	10
663.115	1	3
663.284	1	-3
663.453	1	6
663.623	1	0
663.792	1	11
663.962	1	-3
664.131	1	8
664.300	1	13
664.470	1	13
664.639	1	2
664.809	1	1
664.978	1	0
665.148	1	6
665.317	1	3
665.486	1	8
665.656	1	-1
665.825	1	1
665.995	1	4
666.164	1	4
666.333	1	12
666.503	1	-6
666.672	1	-1
666.842	1	-2
667.011	1	5
667.180	1	5
667.350	1	2
667.519	1	5
667.689	1	1
667.858	1	2
668.027	1	12
668.197	1	16
668.366	1	-3
668.536	1	0
668.705	1	5
668.874	1	5
669.044	1	9
669.213	1	12
669.382	1	-8
669.552	1	5
669.721	1	11
669.891	1	10
670.060	1	12
670.229	1	12
670.399	1	4
670.568	1	10
670.738	1	6
670.907	1	-1
671.076	1	0
671.246	1	3
671.415	1	-1
671.584	1	9
671.754	1	11
671.923	1	8
672.093	1	5
672.262	1	-7
672.431	1	5
672.601	1	6
672.770	1	-2
672.939	1	0
673.109	1	-4
673.278	1	2
673.448	1	11
673.617	1	1
673.786	1	10
