325.333	1	16
325.504	1	13
325.675	1	11
325.846	1	15
326.017	1	9
326.188	1	16
326.359	1	4
326.531	1	-1
326.702	1	4
326.873	1	18
327.044	1	13
327.215	1	16
327.386	1	22
327.557	1	8
327.728	1	11
327.899	1	13
328.070	1	27
328.241	1	21
328.412	1	-4
328.583	1	19
328.754	1	14
328.926	1	23
329.097	1	13
329.268	1	26
329.439	1	10
329.610	1	15
329.781	1	3
329.952	1	35
330.123	1	23
330.294	1	10
330.465	1	24
330.636	1	25
330.807	1	14
330.978	1	13
331.149	1	18
331.320	1	22
331.492	1	15
331.663	1	20
331.834	1	23
332.005	1	28
332.176	1	27
332.347	1	20
332.518	1	17
332.689	1	22
332.860	1	18
333.031	1	22
333.202	1	13
333.373	1	21
333.544	1	20
333.715	1	31
333.886	1	7
334.057	1	28
334.228	1	21
334.399	1	19
334.570	1	20
334.741	1	18
334.912	1	28
335.084	1	34
335.255	1	19
335.426	1	15
335.597	1	18
335.768	1	25
335.939	1	25
336.110	1	24
336.281	1	21
336.452	1	11
336.623	1	40
336.794	1	31
336.965	1	23
337.136	1	33
337.307	1	26
337.478	1	21
337.649	1	30
337.820	1	30
337.991	1	24
338.162	1	35
338.333	1	31
338.504	1	25
338.675	1	30
338.846	1	34
339.017	1	24
339.188	1	25
339.359	1	31
339.530	1	20
339.701	1	40
339.872	1	35
340.043	1	26
340.214	1	34
340.385	1	33
340.556	1	21
340.727	1	33
340.898	1	30
341.069	1	35
341.240	1	29
341.411	1	39
341.582	1	29
341.753	1	21
341.924	1	34
342.095	1	28
342.266	1	42
342.437	1	44
342.608	1	24
342.779	1	42
342.950	1	38
343.121	1	33
343.292	1	30
343.463	1	41
343.634	1	33
343.805	1	47
343.976	1	43
344.147	1	43
344.318	1	33
344.489	1	36
344.660	1	37
344.831	1	40
345.002	1	31
345.173	1	44
345.344	1	44
345.515	1	38
345.686	1	39
345.857	1	43
346.028	1	35
346.199	1	29
346.370	1	41
346.541	1	43
346.712	1	31
346.883	1	50
347.054	1	43
347.225	1	50
347.396	1	43
347.567	1	38
347.738	1	33
347.909	1	57
348.080	1	33
348.251	1	46
348.422	1	51
348.593	1	36
348.764	1	51
348.935	1	48
349.106	1	39
349.277	1	37
349.448	1	50
349.619	1	50
349.790	1	53
349.961	1	53
350.132	1	50
350.303	1	41
350.474	1	51
350.645	1	58
350.816	1	55
350.987	1	64
351.157	1	45
351.328	1	60
351.499	1	56
351.670	1	43
351.841	1	58
352.012	1	63
352.183	1	60
352.354	1	59
352.525	1	56
352.696	1	55
352.867	1	43
353.038	1	57
353.209	1	57
353.380	1	45
353.551	1	41
353.722	1	56
353.893	1	45
354.064	1	52
354.235	1	52
354.406	1	48
354.576	1	37
354.747	1	48
354.918	1	54
355.089	1	61
355.260	1	55
355.431	1	47
355.602	1	54
355.773	1	57
355.944	1	55
356.115	1	60
356.286	1	57
356.457	1	58
356.628	1	56
356.799	1	57
356.970	1	65
357.141	1	54
357.311	1	54
357.482	1	62
357.653	1	55
357.824	1	57
357.995	1	62
358.166	1	40
358.337	1	65
358.508	1	60
358.679	1	63
358.850	1	63
359.021	1	64
359.192	1	69
359.363	1	49
359.533	1	63
359.704	1	59
359.875	1	58
360.046	1	62
360.217	1	48
360.388	1	57
360.559	1	54
360.730	1	69
360.901	1	64
361.072	1	73
361.243	1	65
361.414	1	64
361.584	1	60
361.755	1	67
361.926	1	58
362.097	1	72
362.268	1	64
362.439	1	57
362.610	1	67
362.781	1	60
362.952	1	62
363.123	1	55
363.293	1	66
363.464	1	61
363.635	1	68
363.806	1	64
363.977	1	69
364.148	1	69
364.319	1	69
364.490	1	69
364.661	1	64
364.832	1	75
365.002	1	69
365.173	1	68
365.344	1	80
365.515	1	66
365.686	1	63
365.857	1	66
366.028	1	74
366.199	1	62
366.370	1	65
366.540	1	54
366.711	1	58
366.882	1	54
367.053	1	45
367.224	1	72
367.395	1	60
367.566	1	77
367.737	1	66
367.908	1	64
368.078	1	68
368.249	1	80
368.420	1	55
368.591	1	65
368.762	1	63
368.933	1	69
369.104	1	71
369.274	1	68
369.445	1	64
369.616	1	60
369.787	1	74
369.958	1	74
370.129	1	59
370.300	1	74
370.471	1	54
370.641	1	71
370.812	1	66
370.983	1	69
371.154	1	66
371.325	1	80
371.496	1	63
371.667	1	75
371.837	1	64
372.008	1	64
372.179	1	57
372.350	1	73
372.521	1	72
372.692	1	63
372.863	1	81
373.033	1	64
373.204	1	77
373.375	1	78
373.546	1	76
373.717	1	70
373.888	1	74
374.059	1	73
374.229	1	73
374.400	1	63
374.571	1	63
374.742	1	88
374.913	1	80
375.084	1	70
375.254	1	77
375.425	1	68
375.596	1	76
375.767	1	65
375.938	1	81
376.109	1	68
376.279	1	75
376.450	1	81
376.621	1	85
376.792	1	64
376.963	1	68
377.134	1	89
377.304	1	71
377.475	1	71
377.646	1	72
377.817	1	73
377.988	1	72
378.159	1	81
378.329	1	99
378.500	1	74
378.671	1	86
378.842	1	72
379.013	1	68
379.184	1	70
379.354	1	89
379.525	1	78
379.696	1	88
379.867	1	76
380.038	1	78
380.209	1	81
380.379	1	74
380.550	1	72
380.721	1	86
380.892	1	100
381.063	1	82
381.233	1	85
381.404	1	74
381.575	1	85
381.746	1	87
381.917	1	78
382.087	1	87
382.258	1	71
382.429	1	89
382.600	1	83
382.771	1	76
382.941	1	75
383.112	1	85
383.283	1	93
383.454	1	86
383.625	1	75
383.795	1	80
383.966	1	88
384.137	1	79
384.308	1	92
384.479	1	78
384.649	1	77
384.820	1	88
384.991	1	80
385.162	1	81
385.333	1	77
385.503	1	92
385.674	1	80
385.845	1	98
386.016	1	82
386.187	1	85
386.357	1	86
386.528	1	96
386.699	1	92
386.870	1	103
387.041	1	93
387.211	1	97
387.382	1	91
387.553	1	93
387.724	1	91
387.894	1	81
388.065	1	91
388.236	1	106
388.407	1	92
388.578	1	80
388.748	1	90
388.919	1	92
389.090	1	96
389.261	1	106
389.431	1	89
389.602	1	94
389.773	1	97
389.944	1	90
390.114	1	100
390.285	1	103
390.456	1	94
390.627	1	92
390.798	1	101
390.968	1	111
391.139	1	99
391.310	1	97
391.481	1	104
391.651	1	93
391.822	1	83
391.993	1	100
392.164	1	87
392.334	1	83
392.505	1	87
392.676	1	94
392.847	1	106
393.017	1	95
393.188	1	89
393.359	1	83
393.530	1	96
393.700	1	104
393.871	1	97
394.042	1	102
394.213	1	84
394.383	1	91
394.554	1	101
394.725	1	108
394.896	1	84
395.066	1	102
395.237	1	99
395.408	1	88
395.579	1	90
395.749	1	99
395.920	1	99
396.091	1	102
396.262	1	104
396.432	1	99
396.603	1	107
396.774	1	98
396.945	1	96
397.115	1	90
397.286	1	100
397.457	1	101
397.627	1	105
397.798	1	112
397.969	1	105
398.140	1	91
398.310	1	100
398.481	1	105
398.652	1	101
398.823	1	103
398.993	1	97
399.164	1	101
399.335	1	104
399.505	1	104
399.676	1	102
399.847	1	101
400.018	1	112
400.188	1	102
400.359	1	98
400.530	1	91
400.700	1	97
400.871	1	107
401.042	1	103
401.213	1	107
401.383	1	101
401.554	1	99
401.725	1	107
401.895	1	92
402.066	1	96
402.237	1	98
402.408	1	103
402.578	1	109
402.749	1	113
402.920	1	100
403.090	1	96
403.261	1	111
403.432	1	105
403.603	1	117
403.773	1	102
403.944	1	106
404.115	1	109
404.285	1	107
404.456	1	98
404.627	1	103
404.797	1	97
404.968	1	106
405.139	1	100
405.310	1	114
405.480	1	107
405.651	1	101
405.822	1	102
405.992	1	103
406.163	1	108
406.334	1	107
406.504	1	109
406.675	1	111
406.846	1	97
407.016	1	112
407.187	1	113
407.358	1	97
407.528	1	94
407.699	1	101
407.870	1	95
408.041	1	108
408.211	1	116
408.382	1	103
408.553	1	101
408.723	1	115
408.894	1	110
409.065	1	106
409.235	1	116
409.406	1	107
409.577	1	108
409.747	1	111
409.918	1	106
410.089	1	102
410.259	1	106
410.430	1	100
410.601	1	109
410.771	1	100
410.942	1	119
411.113	1	101
411.283	1	104
411.454	1	110
411.625	1	104
411.795	1	102
411.966	1	114
412.137	1	114
412.307	1	84
412.478	1	101
412.649	1	108
412.819	1	107
412.990	1	102
413.161	1	101
413.331	1	105
413.502	1	106
413.672	1	97
413.843	1	109
414.014	1	97
414.184	1	115
414.355	1	105
414.526	1	111
414.696	1	120
414.867	1	106
415.038	1	82
415.208	1	102
415.379	1	105
415.550	1	93
415.720	1	98
415.891	1	104
416.062	1	98
416.232	1	98
416.403	1	106
416.573	1	101
416.744	1	91
416.915	1	122
417.085	1	95
417.256	1	102
417.427	1	102
417.597	1	115
417.768	1	105
417.939	1	106
418.109	1	105
418.280	1	113
418.450	1	115
418.621	1	86
418.792	1	103
418.962	1	104
419.133	1	108
419.304	1	101
419.474	1	98
419.645	1	116
419.815	1	104
419.986	1	116
420.157	1	101
420.327	1	105
420.498	1	111
420.669	1	94
420.839	1	107
421.010	1	116
421.180	1	109
421.351	1	102
421.522	1	111
421.692	1	95
421.863	1	96
422.033	1	104
422.204	1	97
422.375	1	95
422.545	1	101
422.716	1	98
422.886	1	100
423.057	1	119
423.228	1	100
423.398	1	90
423.569	1	106
423.740	1	82
423.910	1	95
424.081	1	99
424.251	1	100
424.422	1	100
424.593	1	87
424.763	1	100
424.934	1	96
425.104	1	95
425.275	1	95
425.445	1	89
425.616	1	97
425.787	1	91
425.957	1	95
426.128	1	100
426.298	1	93
426.469	1	91
426.640	1	94
426.810	1	92
426.981	1	93
427.151	1	88
427.322	1	92
427.493	1	94
427.663	1	91
427.834	1	83
428.004	1	88
428.175	1	97
428.345	1	90
428.516	1	84
428.687	1	98
428.857	1	86
429.028	1	91
429.198	1	94
429.369	1	88
429.540	1	101
429.710	1	78
429.881	1	91
430.051	1	88
430.222	1	88
430.392	1	81
430.563	1	98
430.734	1	95
430.904	1	95
431.075	1	98
431.245	1	93
431.416	1	99
431.586	1	85
431.757	1	100
431.927	1	108
432.098	1	75
432.269	1	95
432.439	1	96
432.610	1	95
432.780	1	99
432.951	1	86
433.121	1	103
433.292	1	101
433.462	1	81
433.633	1	99
433.804	1	86
433.974	1	82
434.145	1	102
434.315	1	96
434.486	1	93
434.656	1	98
434.827	1	91
434.997	1	87
435.168	1	105
435.339	1	97
435.509	1	88
435.680	1	92
435.850	1	96
436.021	1	90
436.191	1	77
436.362	1	101
436.532	1	84
436.703	1	91
436.873	1	87
437.044	1	83
437.214	1	83
437.385	1	80
437.556	1	72
437.726	1	94
437.897	1	90
438.067	1	84
438.238	1	99
438.408	1	93
438.579	1	78
438.749	1	93
438.920	1	80
439.090	1	100
439.261	1	79
439.431	1	69
439.602	1	89
439.772	1	91
439.943	1	83
440.113	1	87
440.284	1	79
440.455	1	84
440.625	1	82
440.796	1	82
440.966	1	75
441.137	1	79
441.307	1	78
441.478	1	90
441.648	1	78
441.819	1	81
441.989	1	89
442.160	1	80
442.330	1	76
442.501	1	81
442.671	1	82
442.842	1	58
443.012	1	69
443.183	1	68
443.353	1	79
443.524	1	82
443.694	1	91
443.865	1	76
444.035	1	87
444.206	1	76
444.376	1	79
444.547	1	89
444.717	1	67
444.888	1	75
445.058	1	92
445.229	1	86
445.399	1	67
445.570	1	75
445.740	1	69
445.911	1	78
446.081	1	65
446.252	1	76
446.422	1	75
446.593	1	67
446.763	1	71
446.934	1	81
447.104	1	81
447.275	1	85
447.445	1	85
447.616	1	82
447.786	1	61
447.957	1	76
448.127	1	71
448.298	1	87
448.468	1	63
448.639	1	77
448.809	1	72
448.979	1	79
449.150	1	86
449.320	1	85
449.491	1	79
449.661	1	80
449.832	1	68
450.002	1	85
450.173	1	89
450.343	1	79
450.514	1	73
450.684	1	64
450.855	1	63
451.025	1	64
451.196	1	70
451.366	1	72
451.537	1	76
451.707	1	52
451.878	1	73
452.048	1	78
452.218	1	71
452.389	1	66
452.559	1	76
452.730	1	68
452.900	1	82
453.071	1	56
453.241	1	71
453.412	1	78
453.582	1	61
453.753	1	73
453.923	1	59
454.093	1	75
454.264	1	90
454.434	1	59
454.605	1	69
454.775	1	70
454.946	1	61
455.116	1	60
455.287	1	60
455.457	1	55
455.628	1	61
455.798	1	67
455.968	1	70
456.139	1	63
456.309	1	67
456.480	1	60
456.650	1	71
456.821	1	54
456.991	1	75
457.161	1	57
457.332	1	61
457.502	1	52
457.673	1	69
457.843	1	70
458.014	1	63
458.184	1	54
458.355	1	58
458.525	1	61
458.695	1	63
458.866	1	63
459.036	1	74
459.207	1	63
459.377	1	54
459.548	1	65
459.718	1	69
459.888	1	60
460.059	1	76
460.229	1	66
460.400	1	66
460.570	1	67
460.740	1	63
460.911	1	72
461.081	1	67
461.252	1	51
461.422	1	58
461.593	1	55
461.763	1	64
461.933	1	70
462.104	1	63
462.274	1	69
462.445	1	64
462.615	1	59
462.785	1	57
462.956	1	59
463.126	1	73
463.297	1	55
463.467	1	59
463.638	1	68
463.808	1	51
463.978	1	55
464.149	1	61
464.319	1	59
464.490	1	71
464.660	1	61
464.830	1	67
465.001	1	54
465.171	1	60
465.342	1	67
465.512	1	50
465.682	1	53
465.853	1	66
466.023	1	54
466.194	1	56
466.364	1	63
466.534	1	61
466.705	1	53
466.875	1	55
467.045	1	54
467.216	1	69
467.386	1	48
467.557	1	48
467.727	1	51
467.897	1	54
468.068	1	57
468.238	1	50
468.409	1	59
468.579	1	53
468.749	1	56
468.920	1	49
469.090	1	57
469.260	1	52
469.431	1	49
469.601	1	62
469.772	1	50
469.942	1	49
470.112	1	52
470.283	1	47
470.453	1	53
470.623	1	53
470.794	1	39
470.964	1	47
471.135	1	49
471.305	1	36
471.475	1	54
471.646	1	40
471.816	1	50
471.986	1	51
472.157	1	64
472.327	1	32
472.497	1	49
472.668	1	58
472.838	1	49
473.009	1	60
473.179	1	39
473.349	1	33
473.520	1	45
473.690	1	58
473.860	1	58
474.031	1	60
474.201	1	46
474.371	1	50
474.542	1	38
474.712	1	53
474.882	1	53
475.053	1	60
475.223	1	44
475.394	1	58
475.564	1	52
475.734	1	44
475.905	1	57
476.075	1	48
476.245	1	48
476.416	1	58
476.586	1	50
476.756	1	40
476.927	1	59
477.097	1	53
477.267	1	38
477.438	1	49
477.608	1	43
477.778	1	47
477.949	1	50
478.119	1	49
478.289	1	57
478.460	1	54
478.630	1	48
478.800	1	50
478.971	1	57
479.141	1	39
479.311	1	35
479.482	1	44
479.652	1	46
479.822	1	46
479.993	1	43
480.163	1	60
480.333	1	57
480.504	1	53
480.674	1	46
480.844	1	35
481.015	1	50
481.185	1	31
481.355	1	36
481.525	1	41
481.696	1	50
481.866	1	43
482.036	1	41
482.207	1	43
482.377	1	45
482.547	1	42
482.718	1	40
482.888	1	47
483.058	1	41
483.229	1	35
483.399	1	42
483.569	1	46
483.740	1	54
483.910	1	40
484.080	1	45
484.250	1	48
484.421	1	38
484.591	1	44
484.761	1	56
484.932	1	47
485.102	1	48
485.272	1	44
485.443	1	51
485.613	1	42
485.783	1	36
485.953	1	38
486.124	1	47
486.294	1	43
486.464	1	39
486.635	1	44
486.805	1	50
486.975	1	45
487.146	1	43
487.316	1	40
487.486	1	37
487.656	1	37
487.827	1	31
487.997	1	25
488.167	1	41
488.338	1	52
488.508	1	42
488.678	1	36
488.848	1	41
489.019	1	36
489.189	1	31
489.359	1	39
489.529	1	37
489.700	1	31
489.870	1	46
490.040	1	35
490.211	1	31
490.381	1	45
490.551	1	31
490.721	1	41
490.892	1	39
491.062	1	41
491.232	1	41
491.402	1	33
491.573	1	28
491.743	1	39
491.913	1	38
492.084	1	45
492.254	1	38
492.424	1	33
492.594	1	30
492.765	1	32
492.935	1	45
493.105	1	42
493.275	1	37
493.446	1	47
493.616	1	38
493.786	1	37
493.956	1	28
494.127	1	36
494.297	1	27
494.467	1	26
494.637	1	39
494.808	1	24
494.978	1	22
495.148	1	32
495.318	1	24
495.489	1	41
495.659	1	39
495.829	1	24
495.999	1	24
496.170	1	38
496.340	1	28
496.510	1	22
496.680	1	31
496.851	1	28
497.021	1	19
497.191	1	26
497.361	1	26
497.532	1	20
497.702	1	38
497.872	1	26
498.042	1	31
498.213	1	34
498.383	1	21
498.553	1	17
498.723	1	27
498.894	1	27
499.064	1	26
499.234	1	40
499.404	1	28
499.574	1	31
499.745	1	32
499.915	1	22
500.085	1	32
500.255	1	30
500.426	1	28
500.596	1	30
500.766	1	30
500.936	1	23
501.106	1	23
501.277	1	30
501.447	1	25
501.617	1	23
501.787	1	23
501.958	1	16
502.128	1	31
502.298	1	27
502.468	1	29
502.638	1	35
502.809	1	21
502.979	1	15
503.149	1	21
503.319	1	19
503.489	1	22
503.660	1	29
503.830	1	21
504.000	1	47
504.170	1	25
504.340	1	20
504.511	1	37
504.681	1	30
504.851	1	29
505.021	1	27
505.192	1	30
505.362	1	37
505.532	1	20
505.702	1	27
505.872	1	33
506.043	1	23
506.213	1	11
506.383	1	31
506.553	1	29
506.723	1	28
506.893	1	37
507.064	1	24
507.234	1	19
507.404	1	29
507.574	1	26
507.744	1	33
507.915	1	32
508.085	1	31
508.255	1	31
508.425	1	21
508.595	1	25
508.766	1	25
508.936	1	6
509.106	1	21
509.276	1	28
509.446	1	16
509.616	1	20
509.787	1	22
509.957	1	11
510.127	1	24
510.297	1	14
510.467	1	19
510.638	1	21
510.808	1	15
510.978	1	14
511.148	1	22
511.318	1	23
511.488	1	15
511.659	1	19
511.829	1	24
511.999	1	31
512.169	1	22
512.339	1	19
512.509	1	12
512.680	1	18
512.850	1	23
513.020	1	33
513.190	1	19
513.360	1	20
513.530	1	29
513.700	1	31
513.871	1	11
514.041	1	13
514.211	1	20
514.381	1	30
514.551	1	29
514.721	1	11
514.892	1	32
515.062	1	28
515.232	1	20
515.402	1	24
515.572	1	6
515.742	1	20
515.912	1	37
516.083	1	14
516.253	1	21
516.423	1	24
516.593	1	21
516.763	1	28
516.933	1	18
517.104	1	21
517.274	1	12
517.444	1	29
517.614	1	4
517.784	1	23
517.954	1	22
518.124	1	19
518.294	1	22
518.465	1	13
518.635	1	12
518.805	1	1
518.975	1	22
519.145	1	14
519.315	1	20
519.485	1	13
519.656	1	24
519.826	1	11
519.996	1	20
520.166	1	21
520.336	1	36
520.506	1	14
520.676	1	10
520.846	1	16
521.017	1	26
521.187	1	23
521.357	1	24
521.527	1	15
521.697	1	8
521.867	1	8
522.037	1	25
522.207	1	20
522.377	1	15
522.548	1	18
522.718	1	15
522.888	1	25
523.058	1	13
523.228	1	23
523.398	1	19
523.568	1	25
523.738	1	18
523.909	1	24
524.079	1	22
524.249	1	17
524.419	1	14
524.589	1	11
524.759	1	14
524.929	1	5
525.099	1	23
525.269	1	28
525.439	1	14
525.610	1	30
525.780	1	16
525.950	1	17
526.120	1	14
526.290	1	17
526.460	1	11
526.630	1	16
526.800	1	15
526.970	1	14
527.140	1	23
527.311	1	10
527.481	1	15
527.651	1	26
527.821	1	8
527.991	1	24
528.161	1	23
528.331	1	9
528.501	1	16
528.671	1	6
528.841	1	11
529.011	1	21
529.181	1	13
529.352	1	21
529.522	1	9
529.692	1	12
529.862	1	9
530.032	1	24
530.202	1	18
530.372	1	14
530.542	1	20
530.712	1	16
530.882	1	15
531.052	1	19
531.222	1	18
531.392	1	6
531.563	1	21
531.733	1	9
531.903	1	15
532.073	1	17
532.243	1	7
532.413	1	17
532.583	1	9
532.753	1	19
532.923	1	9
533.093	1	14
533.263	1	14
533.433	1	13
533.603	1	15
533.773	1	11
533.943	1	0
534.113	1	5
534.284	1	8
534.454	1	10
534.624	1	27
534.794	1	15
534.964	1	17
535.134	1	5
535.304	1	16
535.474	1	26
535.644	1	12
535.814	1	1
535.984	1	10
536.154	1	8
536.324	1	7
536.494	1	17
536.664	1	22
536.834	1	18
537.004	1	16
537.174	1	22
537.344	1	15
537.514	1	4
537.685	1	15
537.855	1	19
538.025	1	14
538.195	1	12
538.365	1	18
538.535	1	8
538.705	1	8
538.875	1	16
539.045	1	11
539.215	1	14
539.385	1	16
539.555	1	16
539.725	1	8
539.895	1	16
540.065	1	24
540.235	1	30
540.405	1	6
540.575	1	12
540.745	1	8
540.915	1	17
541.085	1	14
541.255	1	7
541.425	1	17
541.595	1	3
541.765	1	20
541.935	1	13
542.105	1	-1
542.275	1	13
542.445	1	10
542.615	1	17
542.785	1	11
542.955	1	7
543.125	1	13
543.295	1	10
543.465	1	11
543.635	1	3
543.805	1	24
543.975	1	12
544.145	1	11
544.315	1	9
544.485	1	13
544.655	1	16
544.825	1	6
544.995	1	10
545.165	1	8
545.335	1	7
545.505	1	11
545.675	1	16
545.845	1	18
546.015	1	18
546.185	1	9
546.355	1	17
546.525	1	14
546.695	1	9
546.865	1	5
547.035	1	8
547.205	1	0
547.375	1	8
547.545	1	11
547.715	1	11
547.885	1	17
548.055	1	4
548.225	1	16
548.395	1	11
548.565	1	15
548.735	1	5
548.905	1	8
549.075	1	13
549.245	1	13
549.415	1	-2
549.585	1	7
549.755	1	9
549.925	1	-4
550.095	1	15
550.265	1	1
550.435	1	3
550.605	1	2
550.775	1	11
550.945	1	12
551.115	1	13
551.285	1	8
551.455	1	-3
551.625	1	15
551.795	1	21
551.965	1	9
552.135	1	3
552.305	1	5
552.475	1	7
552.645	1	6
552.815	1	6
552.985	1	18
553.155	1	7
553.325	1	12
553.495	1	19
553.665	1	6
553.835	1	3
554.004	1	9
554.174	1	10
554.344	1	8
554.514	1	7
554.684	1	17
554.854	1	20
555.024	1	6
555.194	1	0
555.364	1	15
555.534	1	5
555.704	1	-2
555.874	1	18
556.044	1	8
556.214	1	7
556.384	1	8
556.554	1	17
556.724	1	11
556.894	1	2
557.064	1	6
557.234	1	6
557.404	1	23
557.573	1	9
557.743	1	6
557.913	1	6
558.083	1	-2
558.253	1	9
558.423	1	9
558.593	1	12
558.763	1	3
558.933	1	14
559.103	1	21
559.273	1	12
559.443	1	5
559.613	1	18
559.783	1	10
559.953	1	5
560.122	1	17
560.292	1	6
560.462	1	20
560.632	1	18
560.802	1	17
560.972	1	11
561.142	1	14
561.312	1	-3
561.482	1	7
561.652	1	8
561.822	1	9
561.992	1	8
562.162	1	10
562.331	1	3
562.501	1	1
562.671	1	17
562.841	1	-5
563.011	1	18
563.181	1	4
563.351	1	1
563.521	1	14
563.691	1	-3
563.861	1	10
564.031	1	5
564.201	1	18
564.370	1	0
564.540	1	15
564.710	1	3
564.880	1	12
565.050	1	12
565.220	1	3
565.390	1	9
565.560	1	6
565.730	1	2
565.900	1	11
566.069	1	15
566.239	1	11
566.409	1	16
566.579	1	15
566.749	1	11
566.919	1	8
567.089	1	12
567.259	1	11
567.429	1	3
567.599	1	3
567.768	1	8
567.938	1	10
568.108	1	9
568.278	1	8
568.448	1	10
568.618	1	-2
568.788	1	6
568.958	1	6
569.128	1	12
569.297	1	7
569.467	1	8
569.637	1	14
569.807	1	2
569.977	1	12
570.147	1	18
570.317	1	2
570.487	1	3
570.656	1	5
570.826	1	-5
570.996	1	3
571.166	1	23
571.336	1	4
571.506	1	13
571.676	1	15
571.846	1	13
572.015	1	7
572.185	1	1
572.355	1	7
572.525	1	16
572.695	1	7
572.865	1	8
573.035	1	11
573.205	1	12
573.374	1	8
573.544	1	3
573.714	1	12
573.884	1	13
574.054	1	12
574.224	1	11
574.394	1	3
574.563	1	-3
574.733	1	11
574.903	1	4
575.073	1	2
575.243	1	8
575.413	1	10
575.583	1	3
575.752	1	9
575.922	1	18
576.092	1	7
576.262	1	18
576.432	1	6
576.602	1	1
576.772	1	15
576.941	1	6
577.111	1	-4
577.281	1	-5
577.451	1	2
577.621	1	12
577.791	1	8
577.960	1	-4
578.130	1	12
578.300	1	8
578.470	1	11
578.640	1	10
578.810	1	5
578.979	1	10
579.149	1	7
579.319	1	-4
579.489	1	1
579.659	1	1
579.829	1	4
579.998	1	9
580.168	1	20
580.338	1	11
580.508	1	3
580.678	1	3
580.848	1	2
581.017	1	5
581.187	1	10
581.357	1	-9
581.527	1	9
581.697	1	14
581.867	1	18
582.036	1	-4
582.206	1	8
582.376	1	15
582.546	1	-10
582.716	1	2
582.885	1	4
583.055	1	3
583.225	1	-2
583.395	1	5
583.565	1	7
583.735	1	16
583.904	1	10
584.074	1	10
584.244	1	11
584.414	1	4
584.584	1	14
584.753	1	0
584.923	1	6
585.093	1	4
585.263	1	8
585.433	1	12
585.602	1	6
585.772	1	4
585.942	1	4
586.112	1	13
586.282	1	2
586.451	1	0
586.621	1	3
586.791	1	0
586.961	1	1
587.131	1	15
587.300	1	9
587.470	1	18
587.640	1	9
587.810	1	2
587.980	1	4
588.149	1	13
588.319	1	8
588.489	1	9
588.659	1	1
588.829	1	13
588.998	1	8
589.168	1	14
589.338	1	4
589.508	1	14
589.677	1	1
589.847	1	-1
590.017	1	22
590.187	1	1
590.357	1	11
590.526	1	15
590.696	1	13
590.866	1	10
591.036	1	0
591.205	1	10
591.375	1	-1
591.545	1	-2
591.715	1	6
591.885	1	12
592.054	1	3
592.224	1	12
592.394	1	8
592.564	1	10
592.733	1	9
592.903	1	5
593.073	1	5
593.243	1	10
593.412	1	6
593.582	1	-1
593.752	1	4
593.922	1	7
594.091	1	13
594.261	1	3
594.431	1	8
594.601	1	12
594.771	1	4
594.940	1	5
595.110	1	1
595.280	1	15
595.450	1	0
595.619	1	9
595.789	1	11
595.959	1	2
596.129	1	6
596.298	1	9
596.468	1	4
596.638	1	10
596.808	1	6
596.977	1	7
597.147	1	6
597.317	1	7
597.487	1	13
597.656	1	2
597.826	1	11
597.996	1	13
598.166	1	8
598.335	1	1
598.505	1	7
598.675	1	1
598.844	1	13
599.014	1	0
599.184	1	12
599.354	1	-7
599.523	1	19
599.693	1	-2
599.863	1	17
600.033	1	13
600.202	1	8
600.372	1	16
600.542	1	9
600.712	1	1
600.881	1	-1
601.051	1	12
601.221	1	12
601.390	1	4
601.560	1	13
601.730	1	7
601.900	1	11
602.069	1	12
602.239	1	4
602.409	1	-9
602.578	1	9
602.748	1	6
602.918	1	19
603.088	1	12
603.257	1	8
603.427	1	2
603.597	1	3
603.767	1	11
603.936	1	14
604.106	1	12
604.276	1	4
604.445	1	13
604.615	1	10
604.785	1	5
604.954	1	8
605.124	1	6
605.294	1	6
605.464	1	1
605.633	1	19
605.803	1	18
605.973	1	3
606.142	1	4
606.312	1	19
606.482	1	6
606.652	1	3
606.821	1	7
606.991	1	11
607.161	1	2
607.330	1	10
607.500	1	15
607.670	1	1
607.839	1	18
608.009	1	20
608.179	1	15
608.348	1	3
608.518	1	10
608.688	1	14
608.858	1	3
609.027	1	7
609.197	1	13
609.367	1	15
609.536	1	9
609.706	1	3
609.876	1	10
610.045	1	9
610.215	1	8
610.385	1	12
610.554	1	7
610.724	1	23
610.894	1	7
611.063	1	7
611.233	1	3
611.403	1	6
611.572	1	8
611.742	1	14
611.912	1	13
612.081	1	7
612.251	1	14
612.421	1	5
612.590	1	-1
612.760	1	13
612.930	1	0
613.099	1	9
613.269	1	20
613.439	1	11
613.608	1	3
613.778	1	8
613.948	1	8
614.117	1	13
614.287	1	9
614.457	1	17
614.626	1	6
614.796	1	9
614.966	1	7
615.135	1	14
615.305	1	22
615.475	1	13
615.644	1	8
615.814	1	6
615.984	1	9
616.153	1	0
616.323	1	7
616.493	1	14
616.662	1	13
616.832	1	15
617.002	1	6
617.171	1	1
617.341	1	15
617.511	1	-1
617.680	1	1
617.850	1	10
618.019	1	18
618.189	1	12
618.359	1	7
618.528	1	8
618.698	1	18
618.868	1	4
619.037	1	5
619.207	1	3
619.377	1	7
619.546	1	3
619.716	1	8
619.885	1	6
620.055	1	-3
620.225	1	13
620.394	1	5
620.564	1	20
620.734	1	10
620.903	1	5
621.073	1	9
621.242	1	13
621.412	1	9
621.582	1	5
621.751	1	14
621.921	1	7
622.091	1	12
622.260	1	6
622.430	1	20
622.599	1	6
622.769	1	17
622.939	1	9
623.108	1	16
623.278	1	8
623.448	1	1
623.617	1	6
623.787	1	8
623.956	1	15
624.126	1	10
624.296	1	5
624.465	1	19
624.635	1	15
624.804	1	11
624.974	1	16
625.144	1	11
625.313	1	14
625.483	1	1
625.652	1	4
625.822	1	-1
625.992	1	9
626.161	1	18
626.331	1	8
626.501	1	4
626.670	1	10
626.840	1	5
627.009	1	4
627.179	1	12
627.348	1	15
627.518	1	16
627.688	1	24
627.857	1	14
628.027	1	3
628.196	1	5
628.366	1	21
628.536	1	12
628.705	1	12
628.875	1	12
629.044	1	4
629.214	1	16
629.384	1	18
629.553	1	19
629.723	1	9
629.892	1	16
630.062	1	16
630.232	1	10
630.401	1	19
630.571	1	10
630.740	1	20
630.910	1	16
631.079	1	5
631.249	1	15
631.419	1	7
631.588	1	3
631.758	1	17
631.927	1	2
632.097	1	5
632.266	1	2
632.436	1	16
632.606	1	6
632.775	1	18
632.945	1	12
633.114	1	8
633.284	1	16
633.453	1	6
633.623	1	7
633.793	1	14
633.962	1	13
634.132	1	14
634.301	1	5
634.471	1	7
634.640	1	10
634.810	1	11
634.979	1	21
635.149	1	16
635.319	1	10
635.488	1	12
635.658	1	8
635.827	1	10
635.997	1	5
636.166	1	16
636.336	1	8
636.505	1	19
636.675	1	22
636.845	1	20
637.014	1	19
637.184	1	6
637.353	1	23
637.523	1	11
637.692	1	12
637.862	1	4
638.031	1	18
638.201	1	19
638.370	1	16
638.540	1	14
638.710	1	6
638.879	1	2
639.049	1	9
639.218	1	9
639.388	1	13
639.557	1	15
639.727	1	10
639.896	1	14
640.066	1	14
640.235	1	10
640.405	1	9
640.574	1	17
640.744	1	5
640.914	1	10
641.083	1	9
641.253	1	11
641.422	1	9
641.592	1	23
641.761	1	11
641.931	1	9
642.100	1	31
642.270	1	5
642.439	1	15
642.609	1	23
642.778	1	6
642.948	1	12
643.117	1	17
643.287	1	18
643.456	1	7
643.626	1	19
643.795	1	17
643.965	1	12
644.134	1	8
644.304	1	15
644.473	1	20
644.643	1	19
644.812	1	8
644.982	1	14
645.151	1	18
645.321	1	3
645.490	1	25
645.660	1	17
645.829	1	7
645.999	1	10
646.168	1	20
646.338	1	14
646.507	1	10
646.677	1	21
646.846	1	8
647.016	1	9
647.185	1	23
647.355	1	7
647.524	1	30
647.694	1	22
647.863	1	13
648.033	1	18
648.202	1	16
648.372	1	12
648.541	1	11
648.711	1	14
648.880	1	11
649.050	1	15
649.219	1	24
649.389	1	31
649.558	1	14
649.728	1	20
649.897	1	12
650.067	1	20
650.236	1	8
650.406	1	20
650.575	1	20
650.745	1	24
650.914	1	10
651.084	1	9
651.253	1	18
651.423	1	15
651.592	1	11
651.762	1	9
651.931	1	18
652.101	1	8
652.270	1	19
652.440	1	17
652.609	1	11
652.778	1	5
652.948	1	17
653.117	1	23
653.287	1	17
653.456	1	13
653.626	1	17
653.795	1	15
653.965	1	18
654.134	1	17
654.304	1	1
654.473	1	22
654.643	1	17
654.812	1	7
654.982	1	19
655.151	1	14
655.320	1	28
655.490	1	2
655.659	1	15
655.829	1	13
655.998	1	10
656.168	1	7
656.337	1	20
656.507	1	15
656.676	1	29
656.846	1	27
657.015	1	16
657.184	1	19
657.354	1	15
657.523	1	19
657.693	1	16
657.862	1	25
658.032	1	17
658.201	1	10
658.371	1	19
658.540	1	16
658.709	1	17
658.879	1	10
659.048	1	18
659.218	1	10
659.387	1	15
659.557	1	22
659.726	1	18
659.895	1	13
660.065	1	5
660.234	1	8
660.404	1	23
660.573	1	15
660.743	1	22
660.912	1	20
661.081	1	31
661.251	1	19
661.420	1	22
661.590	1	16
661.759	1	15
661.929	1	28
662.098	1	26
662.267	1	16
662.437	1	18
662.606	1	14
662.776	1	24
662.945	1	22
663.115	1	22
663.284	1	21
663.453	1	15
663.623	1	23
663.792	1	22
663.962	1	14
664.131	1	19
664.300	1	18
664.470	1	14
664.639	1	27
664.809	1	18
664.978	1	31
665.148	1	18
665.317	1	18
665.486	1	23
665.656	1	10
665.825	1	31
665.995	1	20
666.164	1	23
666.333	1	17
666.503	1	23
666.672	1	12
666.842	1	28
667.011	1	7
667.180	1	26
667.350	1	26
667.519	1	23
667.689	1	22
667.858	1	16
668.027	1	33
668.197	1	15
668.366	1	13
668.536	1	10
668.705	1	24
668.874	1	15
669.044	1	18
669.213	1	22
669.382	1	4
669.552	1	28
669.721	1	21
669.891	1	29
670.060	1	19
670.229	1	42
670.399	1	5
670.568	1	25
670.738	1	35
670.907	1	7
671.076	1	14
671.246	1	20
671.415	1	20
671.584	1	8
671.754	1	16
671.923	1	24
672.093	1	26
672.262	1	9
672.431	1	23
672.601	1	6
672.770	1	16
672.939	1	31
673.109	1	22
673.278	1	20
673.448	1	13
673.617	1	15
673.786	1	19
