325.333	1	4
325.504	1	10
325.675	1	17
325.846	1	1
326.017	1	5
326.188	1	8
326.359	1	0
326.531	1	-10
326.702	1	-2
326.873	1	9
327.044	1	3
327.215	1	-1
327.386	1	11
327.557	1	0
327.728	1	-1
327.899	1	3
328.070	1	11
328.241	1	-1
328.412	1	-3
328.583	1	14
328.754	1	6
328.926	1	11
329.097	1	-1
329.268	1	17
329.439	1	13
329.610	1	8
329.781	1	-1
329.952	1	4
330.123	1	8
330.294	1	0
330.465	1	11
330.636	1	9
330.807	1	0
330.978	1	4
331.149	1	7
331.320	1	-2
331.492	1	5
331.663	1	5
331.834	1	17
332.005	1	2
332.176	1	11
332.347	1	3
332.518	1	-1
332.689	1	8
332.860	1	0
333.031	1	2
333.202	1	-1
333.373	1	5
333.544	1	4
333.715	1	3
333.886	1	-1
334.057	1	4
334.228	1	6
334.399	1	-2
334.570	1	8
334.741	1	0
334.912	1	13
335.084	1	17
335.255	1	3
335.426	1	-6
335.597	1	4
335.768	1	2
335.939	1	7
336.110	1	-6
336.281	1	1
336.452	1	-1
336.623	1	-1
336.794	1	5
336.965	1	3
337.136	1	16
337.307	1	0
337.478	1	3
337.649	1	8
337.820	1	-2
337.991	1	7
338.162	1	7
338.333	1	8
338.504	1	5
338.675	1	2
338.846	1	14
339.017	1	3
339.188	1	6
339.359	1	7
339.530	1	2
339.701	1	7
339.872	1	13
340.043	1	2
340.214	1	7
340.385	1	14
340.556	1	-5
340.727	1	5
340.898	1	16
341.069	1	9
341.240	1	7
341.411	1	3
341.582	1	-1
341.753	1	-8
341.924	1	3
342.095	1	4
342.266	1	9
342.437	1	16
342.608	1	12
342.779	1	13
342.950	1	10
343.121	1	10
343.292	1	10
343.463	1	5
343.634	1	-4
343.805	1	16
343.976	1	12
344.147	1	7
344.318	1	-3
344.489	1	6
344.660	1	15
344.831	1	8
345.002	1	-4
345.173	1	11
345.344	1	2
345.515	1	5
345.686	1	8
345.857	1	13
346.028	1	11
346.199	1	-6
346.370	1	6
346.541	1	10
346.712	1	-2
346.883	1	1
347.054	1	5
347.225	1	14
347.396	1	1
347.567	1	5
347.738	1	-6
347.909	1	8
348.080	1	2
348.251	1	13
348.422	1	4
348.593	1	1
348.764	1	8
348.935	1	6
349.106	1	2
349.277	1	7
349.448	1	16
349.619	1	4
349.790	1	6
349.961	1	6
350.132	1	1
350.303	1	8
350.474	1	10
350.645	1	11
350.816	1	15
350.987	1	13
351.157	1	4
351.328	1	22
351.499	1	9
351.670	1	3
351.841	1	19
352.012	1	15
352.183	1	21
352.354	1	16
352.525	1	17
352.696	1	11
352.867	1	2
353.038	1	15
353.209	1	13
353.380	1	8
353.551	1	3
353.722	1	8
353.893	1	9
354.064	1	17
354.235	1	13
354.406	1	1
354.576	1	6
354.747	1	9
354.918	1	17
355.089	1	5
355.260	1	10
355.431	1	18
355.602	1	4
355.773	1	18
355.944	1	12
356.115	1	16
356.286	1	10
356.457	1	7
356.628	1	18
356.799	1	11
356.970	1	11
357.141	1	9
357.311	1	7
357.482	1	8
357.653	1	17
357.824	1	24
357.995	1	9
358.166	1	-1
358.337	1	12
358.508	1	18
358.679	1	13
358.850	1	6
359.021	1	10
359.192	1	11
359.363	1	2
359.533	1	14
359.704	1	10
359.875	1	7
360.046	1	18
360.217	1	-1
360.388	1	14
360.559	1	8
360.730	1	25
360.901	1	7
361.072	1	21
361.243	1	17
361.414	1	8
361.584	1	6
361.755	1	15
361.926	1	1
362.097	1	16
362.268	1	15
362.439	1	0
362.610	1	17
362.781	1	8
362.952	1	6
363.123	1	5
363.293	1	4
363.464	1	12
363.635	1	14
363.806	1	13
363.977	1	16
364.148	1	18
364.319	1	14
364.490	1	15
364.661	1	10
364.832	1	17
365.002	1	10
365.173	1	14
365.344	1	20
365.515	1	15
365.686	1	15
365.857	1	11
366.028	1	27
366.199	1	2
366.370	1	16
366.540	1	2
366.711	1	-3
366.882	1	11
367.053	1	8
367.224	1	21
367.395	1	18
367.566	1	21
367.737	1	10
367.908	1	13
368.078	1	17
368.249	1	14
368.420	1	-3
368.591	1	9
368.762	1	16
368.933	1	15
369.104	1	0
369.274	1	9
369.445	1	10
369.616	1	10
369.787	1	19
369.958	1	21
370.129	1	4
370.300	1	26
370.471	1	15
370.641	1	21
370.812	1	12
370.983	1	16
371.154	1	10
371.325	1	18
371.496	1	9
371.667	1	29
371.837	1	9
372.008	1	16
372.179	1	5
372.350	1	27
372.521	1	13
372.692	1	9
372.863	1	18
373.033	1	-2
373.204	1	4
373.375	1	17
373.546	1	24
373.717	1	19
373.888	1	26
374.059	1	10
374.229	1	19
374.400	1	8
374.571	1	21
374.742	1	11
374.913	1	23
375.084	1	14
375.254	1	16
375.425	1	16
375.596	1	17
375.767	1	12
375.938	1	17
376.109	1	16
376.279	1	4
376.450	1	18
376.621	1	16
376.792	1	11
376.963	1	18
377.134	1	20
377.304	1	13
377.475	1	8
377.646	1	13
377.817	1	17
377.988	1	11
378.159	1	17
378.329	1	17
378.500	1	8
378.671	1	14
378.842	1	19
379.013	1	4
379.184	1	4
379.354	1	20
379.525	1	4
379.696	1	22
379.867	1	25
380.038	1	18
380.209	1	15
380.379	1	11
380.550	1	8
380.721	1	16
380.892	1	14
381.063	1	15
381.233	1	22
381.404	1	8
381.575	1	28
381.746	1	15
381.917	1	14
382.087	1	17
382.258	1	16
382.429	1	18
382.600	1	25
382.771	1	12
382.941	1	13
383.112	1	16
383.283	1	28
383.454	1	12
383.625	1	3
383.795	1	25
383.966	1	12
384.137	1	20
384.308	1	19
384.479	1	18
384.649	1	17
384.820	1	14
384.991	1	12
385.162	1	8
385.333	1	12
385.503	1	8
385.674	1	13
385.845	1	36
386.016	1	21
386.187	1	19
386.357	1	15
386.528	1	16
386.699	1	8
386.870	1	26
387.041	1	17
387.211	1	24
387.382	1	26
387.553	1	6
387.724	1	7
387.894	1	21
388.065	1	21
388.236	1	19
388.407	1	18
388.578	1	14
388.748	1	12
388.919	1	21
389.090	1	15
389.261	1	14
389.431	1	27
389.602	1	28
389.773	1	23
389.944	1	11
390.114	1	13
390.285	1	22
390.456	1	20
390.627	1	17
390.798	1	17
390.968	1	21
391.139	1	18
391.310	1	21
391.481	1	18
391.651	1	27
391.822	1	20
391.993	1	7
392.164	1	14
392.334	1	18
392.505	1	12
392.676	1	27
392.847	1	32
393.017	1	31
393.188	1	16
393.359	1	15
393.530	1	11
393.700	1	21
393.871	1	15
394.042	1	12
394.213	1	10
394.383	1	15
394.554	1	22
394.725	1	28
394.896	1	13
395.066	1	20
395.237	1	12
395.408	1	10
395.579	1	17
395.749	1	24
395.920	1	14
396.091	1	18
396.262	1	22
396.432	1	13
396.603	1	37
396.774	1	29
396.945	1	24
397.115	1	33
397.286	1	23
397.457	1	20
397.627	1	29
397.798	1	27
397.969	1	16
398.140	1	9
398.310	1	18
398.481	1	25
398.652	1	19
398.823	1	15
398.993	1	21
399.164	1	13
399.335	1	25
399.505	1	25
399.676	1	17
399.847	1	22
400.018	1	11
400.188	1	9
400.359	1	21
400.530	1	20
400.700	1	11
400.871	1	13
401.042	1	16
401.213	1	23
401.383	1	22
401.554	1	32
401.725	1	25
401.895	1	17
402.066	1	22
402.237	1	21
402.408	1	17
402.578	1	16
402.749	1	21
402.920	1	16
403.090	1	21
403.261	1	20
403.432	1	19
403.603	1	20
403.773	1	28
403.944	1	22
404.115	1	21
404.285	1	17
404.456	1	18
404.627	1	18
404.797	1	12
404.968	1	23
405.139	1	16
405.310	1	35
405.480	1	29
405.651	1	16
405.822	1	18
405.992	1	12
406.163	1	17
406.334	1	23
406.504	1	12
406.675	1	26
406.846	1	29
407.016	1	21
407.187	1	26
407.358	1	6
407.528	1	15
407.699	1	11
407.870	1	14
408.041	1	18
408.211	1	35
408.382	1	23
408.553	1	13
408.723	1	21
408.894	1	37
409.065	1	20
409.235	1	13
409.406	1	26
409.577	1	14
409.747	1	23
409.918	1	18
410.089	1	18
410.259	1	14
410.430	1	17
410.601	1	13
410.771	1	26
410.942	1	28
411.113	1	23
411.283	1	20
411.454	1	17
411.625	1	12
411.795	1	16
411.966	1	27
412.137	1	26
412.307	1	16
412.478	1	28
412.649	1	23
412.819	1	25
412.990	1	27
413.161	1	18
413.331	1	13
413.502	1	35
413.672	1	16
413.843	1	16
414.014	1	17
414.184	1	25
414.355	1	26
414.526	1	20
414.696	1	23
414.867	1	17
415.038	1	14
415.208	1	23
415.379	1	20
415.550	1	30
415.720	1	26
415.891	1	22
416.062	1	21
416.232	1	28
416.403	1	27
416.573	1	13
416.744	1	13
416.915	1	27
417.085	1	22
417.256	1	22
417.427	1	25
417.597	1	14
417.768	1	14
417.939	1	19
418.109	1	20
418.280	1	29
418.450	1	25
418.621	1	8
418.792	1	29
418.962	1	16
419.133	1	21
419.304	1	13
419.474	1	21
419.645	1	16
419.815	1	24
419.986	1	21
420.157	1	20
420.327	1	28
420.498	1	39
420.669	1	21
420.839	1	20
421.010	1	32
421.180	1	21
421.351	1	21
421.522	1	21
421.692	1	19
421.863	1	23
422.033	1	27
422.204	1	21
422.375	1	22
422.545	1	31
422.716	1	12
422.886	1	8
423.057	1	29
423.228	1	21
423.398	1	13
423.569	1	32
423.740	1	15
423.910	1	16
424.081	1	14
424.251	1	7
424.422	1	10
424.593	1	20
424.763	1	30
424.934	1	27
425.104	1	20
425.275	1	12
425.445	1	25
425.616	1	21
425.787	1	8
425.957	1	18
426.128	1	26
426.298	1	30
426.469	1	14
426.640	1	19
426.810	1	17
426.981	1	12
427.151	1	10
427.322	1	26
427.493	1	12
427.663	1	22
427.834	1	14
428.004	1	20
428.175	1	19
428.345	1	20
428.516	1	16
428.687	1	23
428.857	1	14
429.028	1	3
429.198	1	28
429.369	1	13
429.540	1	18
429.710	1	10
429.881	1	34
430.051	1	23
430.222	1	8
430.392	1	27
430.563	1	23
430.734	1	25
430.904	1	19
431.075	1	25
431.245	1	8
431.416	1	24
431.586	1	14
431.757	1	22
431.927	1	22
432.098	1	20
432.269	1	8
432.439	1	22
432.610	1	12
432.780	1	20
432.951	1	14
433.121	1	19
433.292	1	30
433.462	1	26
433.633	1	17
433.804	1	13
433.974	1	19
434.145	1	29
434.315	1	14
434.486	1	11
434.656	1	15
434.827	1	15
434.997	1	12
435.168	1	24
435.339	1	22
435.509	1	13
435.680	1	14
435.850	1	14
436.021	1	16
436.191	1	21
436.362	1	24
436.532	1	21
436.703	1	11
436.873	1	23
437.044	1	10
437.214	1	12
437.385	1	18
437.556	1	19
437.726	1	33
437.897	1	25
438.067	1	19
438.238	1	14
438.408	1	24
438.579	1	5
438.749	1	13
438.920	1	18
439.090	1	28
439.261	1	5
439.431	1	20
439.602	1	7
439.772	1	18
439.943	1	22
440.113	1	16
440.284	1	15
440.455	1	14
440.625	1	19
440.796	1	17
440.966	1	15
441.137	1	19
441.307	1	13
441.478	1	23
441.648	1	16
441.819	1	20
441.989	1	18
442.160	1	25
442.330	1	10
442.501	1	16
442.671	1	17
442.842	1	12
443.012	1	16
443.183	1	18
443.353	1	12
443.524	1	23
443.694	1	17
443.865	1	17
444.035	1	16
444.206	1	13
444.376	1	9
444.547	1	30
444.717	1	17
444.888	1	13
445.058	1	22
445.229	1	18
445.399	1	17
445.570	1	15
445.740	1	8
445.911	1	16
446.081	1	4
446.252	1	23
446.422	1	9
446.593	1	17
446.763	1	6
446.934	1	6
447.104	1	7
447.275	1	20
447.445	1	10
447.616	1	30
447.786	1	10
447.957	1	25
448.127	1	21
448.298	1	11
448.468	1	14
448.639	1	16
448.809	1	14
448.979	1	17
449.150	1	15
449.320	1	19
449.491	1	17
449.661	1	7
449.832	1	24
450.002	1	31
450.173	1	10
450.343	1	16
450.514	1	14
450.684	1	20
450.855	1	13
451.025	1	19
451.196	1	16
451.366	1	22
451.537	1	9
451.707	1	2
451.878	1	1
452.048	1	16
452.218	1	10
452.389	1	20
452.559	1	8
452.730	1	15
452.900	1	18
453.071	1	1
453.241	1	17
453.412	1	12
453.582	1	14
453.753	1	24
453.923	1	13
454.093	1	15
454.264	1	18
454.434	1	17
454.605	1	15
454.775	1	16
454.946	1	18
455.116	1	22
455.287	1	13
455.457	1	4
455.628	1	14
455.798	1	20
455.968	1	20
456.139	1	7
456.309	1	10
456.480	1	9
456.650	1	15
456.821	1	7
456.991	1	17
457.161	1	8
457.332	1	23
457.502	1	-1
457.673	1	18
457.843	1	20
458.014	1	16
458.184	1	11
458.355	1	6
458.525	1	17
458.695	1	13
458.866	1	15
459.036	1	20
459.207	1	13
459.377	1	10
459.548	1	21
459.718	1	9
459.888	1	14
460.059	1	20
460.229	1	15
460.400	1	11
460.570	1	16
460.740	1	10
460.911	1	11
461.081	1	16
461.252	1	4
461.422	1	10
461.593	1	20
461.763	1	10
461.933	1	16
462.104	1	9
462.274	1	12
462.445	1	11
462.615	1	24
462.785	1	12
462.956	1	13
463.126	1	17
463.297	1	5
463.467	1	17
463.638	1	7
463.808	1	9
463.978	1	14
464.149	1	9
464.319	1	7
464.490	1	27
464.660	1	7
464.830	1	11
465.001	1	18
465.171	1	19
465.342	1	21
465.512	1	7
465.682	1	12
465.853	1	14
466.023	1	5
466.194	1	5
466.364	1	25
466.534	1	17
466.705	1	11
466.875	1	6
467.045	1	12
467.216	1	17
467.386	1	5
467.557	1	11
467.727	1	-3
467.897	1	1
468.068	1	-1
468.238	1	7
468.409	1	11
468.579	1	13
468.749	1	16
468.920	1	1
469.090	1	11
469.260	1	9
469.431	1	1
469.601	1	19
469.772	1	11
469.942	1	4
470.112	1	26
470.283	1	13
470.453	1	11
470.623	1	-3
470.794	1	8
470.964	1	12
471.135	1	15
471.305	1	5
471.475	1	13
471.646	1	8
471.816	1	1
471.986	1	9
472.157	1	12
472.327	1	3
472.497	1	20
472.668	1	5
472.838	1	-2
473.009	1	9
473.179	1	5
473.349	1	7
473.520	1	15
473.690	1	12
473.860	1	17
474.031	1	10
474.201	1	6
474.371	1	25
474.542	1	6
474.712	1	15
474.882	1	11
475.053	1	21
475.223	1	15
475.394	1	13
475.564	1	5
475.734	1	8
475.905	1	19
476.075	1	5
476.245	1	18
476.416	1	17
476.586	1	18
476.756	1	14
476.927	1	12
477.097	1	16
477.267	1	6
477.438	1	11
477.608	1	11
477.778	1	3
477.949	1	16
478.119	1	18
478.289	1	18
478.460	1	11
478.630	1	10
478.800	1	12
478.971	1	16
479.141	1	4
479.311	1	1
479.482	1	12
479.652	1	6
479.822	1	4
479.993	1	18
480.163	1	9
480.333	1	14
480.504	1	14
480.674	1	8
480.844	1	-3
481.015	1	19
481.185	1	5
481.355	1	11
481.525	1	6
481.696	1	7
481.866	1	10
482.036	1	9
482.207	1	3
482.377	1	4
482.547	1	18
482.718	1	6
482.888	1	7
483.058	1	0
483.229	1	4
483.399	1	9
483.569	1	8
483.740	1	14
483.910	1	2
484.080	1	5
484.250	1	8
484.421	1	4
484.591	1	9
484.761	1	10
484.932	1	11
485.102	1	10
485.272	1	10
485.443	1	16
485.613	1	8
485.783	1	6
485.953	1	7
486.124	1	17
486.294	1	11
486.464	1	10
486.635	1	16
486.805	1	8
486.975	1	12
487.146	1	3
487.316	1	7
487.486	1	5
487.656	1	2
487.827	1	15
487.997	1	-2
488.167	1	0
488.338	1	19
488.508	1	11
488.678	1	5
488.848	1	14
489.019	1	0
489.189	1	1
489.359	1	-3
489.529	1	3
489.700	1	13
489.870	1	25
490.040	1	0
490.211	1	4
490.381	1	21
490.551	1	1
490.721	1	13
490.892	1	5
491.062	1	5
491.232	1	6
491.402	1	1
491.573	1	-4
491.743	1	12
491.913	1	5
492.084	1	14
492.254	1	9
492.424	1	7
492.594	1	7
492.765	1	12
492.935	1	3
493.105	1	4
493.275	1	8
493.446	1	8
493.616	1	16
493.786	1	10
493.956	1	9
494.127	1	5
494.297	1	6
494.467	1	14
494.637	1	8
494.808	1	-6
494.978	1	-2
495.148	1	-1
495.318	1	9
495.489	1	4
495.659	1	11
495.829	1	5
495.999	1	5
496.170	1	12
496.340	1	11
496.510	1	9
496.680	1	0
496.851	1	1
497.021	1	-1
497.191	1	0
497.361	1	14
497.532	1	-7
497.702	1	9
497.872	1	4
498.042	1	19
498.213	1	9
498.383	1	2
498.553	1	-3
498.723	1	2
498.894	1	3
499.064	1	10
499.234	1	11
499.404	1	9
499.574	1	7
499.745	1	10
499.915	1	6
500.085	1	11
500.255	1	18
500.426	1	11
500.596	1	6
500.766	1	11
500.936	1	-1
501.106	1	0
501.277	1	10
501.447	1	14
501.617	1	5
501.787	1	-2
501.958	1	2
502.128	1	-2
502.298	1	10
502.468	1	2
502.638	1	9
502.809	1	6
502.979	1	6
503.149	1	5
503.319	1	-16
503.489	1	1
503.660	1	9
503.830	1	10
504.000	1	12
504.170	1	-1
504.340	1	7
504.511	1	5
504.681	1	5
504.851	1	4
505.021	1	11
505.192	1	-2
505.362	1	20
505.532	1	1
505.702	1	-1
505.872	1	6
506.043	1	8
506.213	1	2
506.383	1	5
506.553	1	6
506.723	1	8
506.893	1	-3
507.064	1	9
507.234	1	0
507.404	1	-1
507.574	1	7
507.744	1	7
507.915	1	4
508.085	1	4
508.255	1	5
508.425	1	2
508.595	1	9
508.766	1	12
508.936	1	-3
509.106	1	14
509.276	1	8
509.446	1	-8
509.616	1	5
509.787	1	9
509.957	1	5
510.127	1	5
510.297	1	3
510.467	1	0
510.638	1	4
510.808	1	3
510.978	1	13
511.148	1	9
511.318	1	1
511.488	1	-7
511.659	1	0
511.829	1	-3
511.999	1	9
512.169	1	2
512.339	1	9
512.509	1	5
512.680	1	3
512.850	1	6
513.020	1	6
513.190	1	9
513.360	1	5
513.530	1	1
513.700	1	11
513.871	1	-4
514.041	1	-2
514.211	1	9
514.381	1	8
514.551	1	11
514.721	1	7
514.892	1	9
515.062	1	7
515.232	1	-3
515.402	1	-6
515.572	1	-2
515.742	1	10
515.912	1	12
516.083	1	1
516.253	1	6
516.423	1	5
516.593	1	7
516.763	1	4
516.933	1	0
517.104	1	7
517.274	1	-4
517.444	1	-1
517.614	1	0
517.784	1	9
517.954	1	12
518.124	1	6
518.294	1	7
518.465	1	-2
518.635	1	-3
518.805	1	-8
518.975	1	9
519.145	1	1
519.315	1	2
519.485	1	2
519.656	1	11
519.826	1	9
519.996	1	-1
520.166	1	7
520.336	1	15
520.506	1	10
520.676	1	1
520.846	1	6
521.017	1	-3
521.187	1	0
521.357	1	13
521.527	1	7
521.697	1	8
521.867	1	-2
522.037	1	11
522.207	1	9
522.377	1	9
522.548	1	5
522.718	1	11
522.888	1	17
523.058	1	3
523.228	1	1
523.398	1	7
523.568	1	10
523.738	1	2
523.909	1	13
524.079	1	15
524.249	1	10
524.419	1	-2
524.589	1	8
524.759	1	-5
524.929	1	-3
525.099	1	2
525.269	1	7
525.439	1	3
525.610	1	16
525.780	1	5
525.950	1	7
526.120	1	-1
526.290	1	1
526.460	1	-7
526.630	1	8
526.800	1	1
526.970	1	6
527.140	1	10
527.311	1	0
527.481	1	3
527.651	1	3
527.821	1	-8
527.991	1	20
528.161	1	13
528.331	1	6
528.501	1	4
528.671	1	4
528.841	1	1
529.011	1	8
529.181	1	1
529.352	1	5
529.522	1	-3
529.692	1	12
529.862	1	2
530.032	1	9
530.202	1	6
530.372	1	7
530.542	1	5
530.712	1	-3
530.882	1	12
531.052	1	12
531.222	1	1
531.392	1	2
531.563	1	6
531.733	1	13
531.903	1	-3
532.073	1	0
532.243	1	-1
532.413	1	13
532.583	1	0
532.753	1	-2
532.923	1	-5
533.093	1	10
533.263	1	4
533.433	1	-5
533.603	1	-3
533.773	1	7
533.943	1	-3
534.113	1	2
534.284	1	-7
534.454	1	14
534.624	1	13
534.794	1	-8
534.964	1	-2
535.134	1	-3
535.304	1	10
535.474	1	8
535.644	1	-2
535.814	1	-1
535.984	1	-3
536.154	1	2
536.324	1	5
536.494	1	11
536.664	1	0
536.834	1	-1
537.004	1	3
537.174	1	7
537.344	1	3
537.514	1	-6
537.685	1	8
537.855	1	-3
538.025	1	2
538.195	1	3
538.365	1	6
538.535	1	2
538.705	1	5
538.875	1	6
539.045	1	3
539.215	1	-2
539.385	1	3
539.555	1	8
539.725	1	-8
539.895	1	-8
540.065	1	14
540.235	1	6
540.405	1	2
540.575	1	2
540.745	1	4
540.915	1	14
541.085	1	8
541.255	1	-2
541.425	1	5
541.595	1	4
541.765	1	7
541.935	1	-2
542.105	1	-3
542.275	1	5
542.445	1	-9
542.615	1	6
542.785	1	6
542.955	1	2
543.125	1	-2
543.295	1	5
543.465	1	6
543.635	1	-4
543.805	1	18
543.975	1	2
544.145	1	1
544.315	1	3
544.485	1	3
544.655	1	-8
544.825	1	-6
544.995	1	3
545.165	1	2
545.335	1	11
545.505	1	-1
545.675	1	0
545.845	1	6
546.015	1	7
546.185	1	6
546.355	1	12
546.525	1	1
546.695	1	10
546.865	1	-2
547.035	1	10
547.205	1	-10
547.375	1	4
547.545	1	2
547.715	1	-1
547.885	1	1
548.055	1	-1
548.225	1	-1
548.395	1	-4
548.565	1	11
548.735	1	5
548.905	1	-3
549.075	1	12
549.245	1	1
549.415	1	-1
549.585	1	0
549.755	1	4
549.925	1	-10
550.095	1	3
550.265	1	3
550.435	1	0
550.605	1	1
550.775	1	3
550.945	1	6
551.115	1	1
551.285	1	-1
551.455	1	-6
551.625	1	4
551.795	1	8
551.965	1	4
552.135	1	5
552.305	1	2
552.475	1	0
552.645	1	-2
552.815	1	-7
552.985	1	8
553.155	1	5
553.325	1	-6
553.495	1	7
553.665	1	7
553.835	1	-1
554.004	1	-3
554.174	1	-3
554.344	1	11
554.514	1	-4
554.684	1	0
554.854	1	6
555.024	1	1
555.194	1	-4
555.364	1	7
555.534	1	4
555.704	1	4
555.874	1	10
556.044	1	-2
556.214	1	-11
556.384	1	-1
556.554	1	15
556.724	1	3
556.894	1	7
557.064	1	5
557.234	1	4
557.404	1	11
557.573	1	4
557.743	1	1
557.913	1	-3
558.083	1	-3
558.253	1	2
558.423	1	1
558.593	1	11
558.763	1	2
558.933	1	5
559.103	1	12
559.273	1	2
559.443	1	10
559.613	1	6
559.783	1	6
559.953	1	-5
560.122	1	14
560.292	1	-4
560.462	1	-3
560.632	1	7
560.802	1	3
560.972	1	11
561.142	1	6
561.312	1	-3
561.482	1	5
561.652	1	8
561.822	1	4
561.992	1	-6
562.162	1	1
562.331	1	3
562.501	1	-3
562.671	1	7
562.841	1	-11
563.011	1	9
563.181	1	4
563.351	1	-5
563.521	1	-4
563.691	1	-5
563.861	1	9
564.031	1	1
564.201	1	13
564.370	1	-5
564.540	1	9
564.710	1	-5
564.880	1	6
565.050	1	10
565.220	1	0
565.390	1	10
565.560	1	4
565.730	1	1
565.900	1	9
566.069	1	21
566.239	1	2
566.409	1	10
566.579	1	2
566.749	1	1
566.919	1	4
567.089	1	4
567.259	1	10
567.429	1	8
567.599	1	1
567.768	1	7
567.938	1	4
568.108	1	5
568.278	1	6
568.448	1	-7
568.618	1	1
568.788	1	-4
568.958	1	3
569.128	1	5
569.297	1	-1
569.467	1	1
569.637	1	12
569.807	1	8
569.977	1	6
570.147	1	7
570.317	1	-2
570.487	1	-3
570.656	1	12
570.826	1	4
570.996	1	-7
571.166	1	6
571.336	1	-5
571.506	1	17
571.676	1	12
571.846	1	4
572.015	1	3
572.185	1	3
572.355	1	2
572.525	1	11
572.695	1	-7
572.865	1	-11
573.035	1	5
573.205	1	14
573.374	1	-2
573.544	1	-2
573.714	1	5
573.884	1	6
574.054	1	2
574.224	1	-1
574.394	1	1
574.563	1	4
574.733	1	4
574.903	1	4
575.073	1	-3
575.243	1	-5
575.413	1	5
575.583	1	0
575.752	1	7
575.922	1	-2
576.092	1	7
576.262	1	11
576.432	1	0
576.602	1	-4
576.772	1	11
576.941	1	-9
577.111	1	-1
577.281	1	-18
577.451	1	-14
577.621	1	9
577.791	1	-4
577.960	1	-4
578.130	1	3
578.300	1	5
578.470	1	7
578.640	1	2
578.810	1	0
578.979	1	2
579.149	1	-3
579.319	1	-6
579.489	1	-6
579.659	1	-4
579.829	1	0
579.998	1	0
580.168	1	20
580.338	1	9
580.508	1	2
580.678	1	-1
580.848	1	-3
581.017	1	0
581.187	1	-6
581.357	1	-1
581.527	1	5
581.697	1	6
581.867	1	4
582.036	1	-1
582.206	1	4
582.376	1	12
582.546	1	-3
582.716	1	-8
582.885	1	-6
583.055	1	2
583.225	1	-4
583.395	1	0
583.565	1	2
583.735	1	4
583.904	1	6
584.074	1	-2
584.244	1	5
584.414	1	-4
584.584	1	9
584.753	1	-5
584.923	1	-3
585.093	1	4
585.263	1	5
585.433	1	2
585.602	1	-11
585.772	1	1
585.942	1	2
586.112	1	2
586.282	1	1
586.451	1	4
586.621	1	5
586.791	1	-9
586.961	1	5
587.131	1	7
587.300	1	-11
587.470	1	9
587.640	1	12
587.810	1	-3
587.980	1	1
588.149	1	6
588.319	1	-1
588.489	1	5
588.659	1	3
588.829	1	-3
588.998	1	13
589.168	1	6
589.338	1	-2
589.508	1	-1
589.677	1	-7
589.847	1	-3
590.017	1	14
590.187	1	0
590.357	1	14
590.526	1	10
590.696	1	7
590.866	1	5
591.036	1	2
591.205	1	22
591.375	1	-5
591.545	1	0
591.715	1	0
591.885	1	3
592.054	1	1
592.224	1	-3
592.394	1	6
592.564	1	5
592.733	1	2
592.903	1	2
593.073	1	-2
593.243	1	5
593.412	1	2
593.582	1	5
593.752	1	3
593.922	1	-5
594.091	1	0
594.261	1	3
594.431	1	3
594.601	1	7
594.771	1	9
594.940	1	10
595.110	1	-2
595.280	1	11
595.450	1	0
595.619	1	4
595.789	1	3
595.959	1	9
596.129	1	-12
596.298	1	2
596.468	1	6
596.638	1	7
596.808	1	3
596.977	1	7
597.147	1	3
597.317	1	-6
597.487	1	4
597.656	1	1
597.826	1	4
597.996	1	4
598.166	1	0
598.335	1	-3
598.505	1	-6
598.675	1	-7
598.844	1	-2
599.014	1	1
599.184	1	8
599.354	1	-8
599.523	1	11
599.693	1	1
599.863	1	8
600.033	1	3
600.202	1	8
600.372	1	6
600.542	1	12
600.712	1	-1
600.881	1	0
601.051	1	7
601.221	1	4
601.390	1	-18
601.560	1	12
601.730	1	8
601.900	1	8
602.069	1	6
602.239	1	2
602.409	1	0
602.578	1	7
602.748	1	0
602.918	1	11
603.088	1	7
603.257	1	2
603.427	1	-10
603.597	1	2
603.767	1	8
603.936	1	-3
604.106	1	4
604.276	1	10
604.445	1	9
604.615	1	-3
604.785	1	3
604.954	1	3
605.124	1	4
605.294	1	3
605.464	1	-11
605.633	1	-2
605.803	1	8
605.973	1	-5
606.142	1	3
606.312	1	8
606.482	1	6
606.652	1	4
606.821	1	6
606.991	1	3
607.161	1	-1
607.330	1	3
607.500	1	0
607.670	1	-1
607.839	1	10
608.009	1	10
608.179	1	5
608.348	1	-6
608.518	1	-3
608.688	1	14
608.858	1	-3
609.027	1	-8
609.197	1	6
609.367	1	14
609.536	1	10
609.706	1	0
609.876	1	-1
610.045	1	-5
610.215	1	5
610.385	1	1
610.554	1	-5
610.724	1	0
610.894	1	0
611.063	1	1
611.233	1	1
611.403	1	3
611.572	1	2
611.742	1	9
611.912	1	-5
612.081	1	2
612.251	1	6
612.421	1	4
612.590	1	-2
612.760	1	6
612.930	1	4
613.099	1	10
613.269	1	12
613.439	1	6
613.608	1	5
613.778	1	1
613.948	1	3
614.117	1	12
614.287	1	7
614.457	1	8
614.626	1	0
614.796	1	4
614.966	1	-5
615.135	1	3
615.305	1	10
615.475	1	4
615.644	1	-2
615.814	1	9
615.984	1	1
616.153	1	-10
616.323	1	2
616.493	1	6
616.662	1	9
616.832	1	-3
617.002	1	-2
617.171	1	-1
617.341	1	-1
617.511	1	-3
617.680	1	0
617.850	1	2
618.019	1	10
618.189	1	15
618.359	1	2
618.528	1	-2
618.698	1	-8
618.868	1	-4
619.037	1	-4
619.207	1	-1
619.377	1	6
619.546	1	-2
619.716	1	10
619.885	1	5
620.055	1	-5
620.225	1	2
620.394	1	-6
620.564	1	4
620.734	1	4
620.903	1	-1
621.073	1	1
621.242	1	12
621.412	1	-1
621.582	1	2
621.751	1	2
621.921	1	6
622.091	1	-2
622.260	1	-7
622.430	1	16
622.599	1	-2
622.769	1	3
622.939	1	3
623.108	1	1
623.278	1	-6
623.448	1	9
623.617	1	-7
623.787	1	8
623.956	1	12
624.126	1	-5
624.296	1	1
624.465	1	0
624.635	1	8
624.804	1	-1
624.974	1	-3
625.144	1	18
625.313	1	1
625.483	1	-7
625.652	1	-3
625.822	1	-4
625.992	1	-6
626.161	1	11
626.331	1	2
626.501	1	-1
626.670	1	4
626.840	1	7
627.009	1	-11
627.179	1	14
627.348	1	7
627.518	1	2
627.688	1	5
627.857	1	11
628.027	1	-2
628.196	1	-6
628.366	1	12
628.536	1	8
628.705	1	-1
628.875	1	5
629.044	1	-1
629.214	1	13
629.384	1	2
629.553	1	8
629.723	1	-1
629.892	1	3
630.062	1	0
630.232	1	10
630.401	1	17
630.571	1	9
630.740	1	-2
630.910	1	-1
631.079	1	-1
631.249	1	7
631.419	1	6
631.588	1	-11
631.758	1	10
631.927	1	-8
632.097	1	10
632.266	1	-3
632.436	1	6
632.606	1	2
632.775	1	10
632.945	1	7
633.114	1	10
633.284	1	2
633.453	1	2
633.623	1	1
633.793	1	9
633.962	1	7
634.132	1	10
634.301	1	2
634.471	1	-2
634.640	1	6
634.810	1	8
634.979	1	2
635.149	1	5
635.319	1	9
635.488	1	11
635.658	1	-2
635.827	1	-12
635.997	1	7
636.166	1	-3
636.336	1	1
636.505	1	11
636.675	1	-2
636.845	1	-2
637.014	1	10
637.184	1	13
637.353	1	7
637.523	1	9
637.692	1	-4
637.862	1	4
638.031	1	14
638.201	1	10
638.370	1	12
638.540	1	5
638.710	1	-4
638.879	1	-12
639.049	1	5
639.218	1	13
639.388	1	-5
639.557	1	-4
639.727	1	-4
639.896	1	6
640.066	1	1
640.235	1	0
640.405	1	9
640.574	1	7
640.744	1	4
640.914	1	9
641.083	1	-2
641.253	1	-9
641.422	1	5
641.592	1	13
641.761	1	1
641.931	1	-3
642.100	1	15
642.270	1	1
642.439	1	12
642.609	1	18
642.778	1	6
642.948	1	0
643.117	1	10
643.287	1	2
643.456	1	5
643.626	1	4
643.795	1	8
643.965	1	13
644.134	1	-6
644.304	1	1
644.473	1	5
644.643	1	6
644.812	1	8
644.982	1	7
645.151	1	4
645.321	1	2
645.490	1	5
645.660	1	-5
645.829	1	2
645.999	1	0
646.168	1	5
646.338	1	7
646.507	1	3
646.677	1	9
646.846	1	0
647.016	1	-12
647.185	1	7
647.355	1	-9
647.524	1	6
647.694	1	12
647.863	1	12
648.033	1	9
648.202	1	10
648.372	1	1
648.541	1	-6
648.711	1	0
648.880	1	-5
649.050	1	-3
649.219	1	1
649.389	1	16
649.558	1	14
649.728	1	10
649.897	1	-4
650.067	1	19
650.236	1	4
650.406	1	-2
650.575	1	5
650.745	1	12
650.914	1	-1
651.084	1	-1
651.253	1	6
651.423	1	7
651.592	1	6
651.762	1	0
651.931	1	20
652.101	1	12
652.270	1	11
652.440	1	2
652.609	1	2
652.778	1	4
652.948	1	17
653.117	1	5
653.287	1	7
653.456	1	12
653.626	1	12
653.795	1	0
653.965	1	13
654.134	1	9
654.304	1	-9
654.473	1	5
654.643	1	15
654.812	1	3
654.982	1	3
655.151	1	3
655.320	1	4
655.490	1	-1
655.659	1	-4
655.829	1	9
655.998	1	-6
656.168	1	4
656.337	1	11
656.507	1	2
656.676	1	7
656.846	1	5
657.015	1	8
657.184	1	8
657.354	1	8
657.523	1	2
657.693	1	4
657.862	1	-3
658.032	1	-1
658.201	1	3
658.371	1	17
658.540	1	10
658.709	1	-2
658.879	1	3
659.048	1	2
659.218	1	0
659.387	1	3
659.557	1	3
659.726	1	11
659.895	1	-1
660.065	1	-8
660.234	1	10
660.404	1	13
660.573	1	1
660.743	1	-6
660.912	1	-3
661.081	1	13
661.251	1	-2
661.420	1	6
661.590	1	2
661.759	1	2
661.929	1	6
662.098	1	12
662.267	1	6
662.437	1	9
662.606	1	8
662.776	1	6
662.945	1	5
663.115	1	7
663.284	1	1
663.453	1	4
663.623	1	3
663.792	1	4
663.962	1	3
664.131	1	7
664.300	1	3
664.470	1	4
664.639	1	7
664.809	1	7
664.978	1	17
665.148	1	-1
665.317	1	12
665.486	1	13
665.656	1	3
665.825	1	4
665.995	1	0
666.164	1	0
666.333	1	7
666.503	1	8
666.672	1	1
666.842	1	6
667.011	1	0
667.180	1	18
667.350	1	3
667.519	1	4
667.689	1	6
667.858	1	8
668.027	1	16
668.197	1	-2
668.366	1	-3
668.536	1	1
668.705	1	8
668.874	1	7
669.044	1	2
669.213	1	15
669.382	1	-1
669.552	1	12
669.721	1	2
669.891	1	11
670.060	1	6
670.229	1	10
670.399	1	0
670.568	1	10
670.738	1	9
670.907	1	-3
671.076	1	-4
671.246	1	6
671.415	1	1
671.584	1	1
671.754	1	4
671.923	1	1
672.093	1	14
672.262	1	2
672.431	1	8
672.601	1	0
672.770	1	1
672.939	1	11
673.109	1	1
673.278	1	8
673.448	1	14
673.617	1	-1
673.786	1	4
