325.333	1	-2
325.504	1	2
325.675	1	-4
325.846	1	-8
326.017	1	-3
326.188	1	7
326.359	1	-11
326.531	1	-15
326.702	1	7
326.873	1	18
327.044	1	3
327.215	1	-13
327.386	1	5
327.557	1	-12
327.728	1	2
327.899	1	4
328.070	1	8
328.241	1	5
328.412	1	-13
328.583	1	7
328.754	1	-7
328.926	1	8
329.097	1	-10
329.268	1	18
329.439	1	-4
329.610	1	5
329.781	1	-4
329.952	1	4
330.123	1	2
330.294	1	4
330.465	1	6
330.636	1	5
330.807	1	5
330.978	1	-1
331.149	1	14
331.320	1	-7
331.492	1	7
331.663	1	8
331.834	1	19
332.005	1	1
332.176	1	11
332.347	1	11
332.518	1	-3
332.689	1	6
332.860	1	0
333.031	1	4
333.202	1	2
333.373	1	4
333.544	1	8
333.715	1	11
333.886	1	-2
334.057	1	3
334.228	1	-4
334.399	1	8
334.570	1	12
334.741	1	-1
334.912	1	4
335.084	1	28
335.255	1	4
335.426	1	-2
335.597	1	5
335.768	1	2
335.939	1	10
336.110	1	8
336.281	1	-2
336.452	1	6
336.623	1	4
336.794	1	8
336.965	1	5
337.136	1	12
337.307	1	-6
337.478	1	-2
337.649	1	6
337.820	1	2
337.991	1	13
338.162	1	9
338.333	1	8
338.504	1	13
338.675	1	2
338.846	1	4
339.017	1	8
339.188	1	1
339.359	1	0
339.530	1	3
339.701	1	9
339.872	1	9
340.043	1	-5
340.214	1	-1
340.385	1	10
340.556	1	-3
340.727	1	17
340.898	1	8
341.069	1	4
341.240	1	5
341.411	1	11
341.582	1	20
341.753	1	-7
341.924	1	5
342.095	1	3
342.266	1	14
342.437	1	13
342.608	1	3
342.779	1	12
342.950	1	7
343.121	1	16
343.292	1	-2
343.463	1	5
343.634	1	7
343.805	1	24
343.976	1	2
344.147	1	7
344.318	1	11
344.489	1	1
344.660	1	15
344.831	1	11
345.002	1	6
345.173	1	21
345.344	1	1
345.515	1	8
345.686	1	-1
345.857	1	9
346.028	1	9
346.199	1	1
346.370	1	4
346.541	1	7
346.712	1	4
346.883	1	7
347.054	1	7
347.225	1	6
347.396	1	17
347.567	1	11
347.738	1	-4
347.909	1	19
348.080	1	1
348.251	1	7
348.422	1	17
348.593	1	8
348.764	1	10
348.935	1	6
349.106	1	6
349.277	1	3
349.448	1	24
349.619	1	13
349.790	1	16
349.961	1	7
350.132	1	23
350.303	1	1
350.474	1	13
350.645	1	15
350.816	1	12
350.987	1	19
351.157	1	4
351.328	1	11
351.499	1	11
351.670	1	-1
351.841	1	23
352.012	1	10
352.183	1	19
352.354	1	4
352.525	1	18
352.696	1	11
352.867	1	8
353.038	1	15
353.209	1	14
353.380	1	6
353.551	1	-4
353.722	1	8
353.893	1	8
354.064	1	11
354.235	1	8
354.406	1	8
354.576	1	16
354.747	1	8
354.918	1	10
355.089	1	6
355.260	1	6
355.431	1	9
355.602	1	14
355.773	1	13
355.944	1	14
356.115	1	5
356.286	1	10
356.457	1	11
356.628	1	8
356.799	1	12
356.970	1	24
357.141	1	4
357.311	1	4
357.482	1	9
357.653	1	12
357.824	1	20
357.995	1	13
358.166	1	-6
358.337	1	0
358.508	1	15
358.679	1	16
358.850	1	11
359.021	1	0
359.192	1	16
359.363	1	5
359.533	1	8
359.704	1	11
359.875	1	14
360.046	1	12
360.217	1	6
360.388	1	16
360.559	1	2
360.730	1	20
360.901	1	8
361.072	1	20
361.243	1	14
361.414	1	13
361.584	1	17
361.755	1	13
361.926	1	11
362.097	1	9
362.268	1	5
362.439	1	8
362.610	1	16
362.781	1	6
362.952	1	11
363.123	1	11
363.293	1	12
363.464	1	20
363.635	1	13
363.806	1	14
363.977	1	13
364.148	1	11
364.319	1	9
364.490	1	11
364.661	1	19
364.832	1	24
365.002	1	15
365.173	1	7
365.344	1	29
365.515	1	10
365.686	1	11
365.857	1	16
366.028	1	22
366.199	1	11
366.370	1	23
366.540	1	10
366.711	1	-4
366.882	1	-4
367.053	1	12
367.224	1	20
367.395	1	10
367.566	1	15
367.737	1	5
367.908	1	13
368.078	1	6
368.249	1	19
368.420	1	1
368.591	1	7
368.762	1	12
368.933	1	7
369.104	1	5
369.274	1	7
369.445	1	9
369.616	1	8
369.787	1	21
369.958	1	21
370.129	1	2
370.300	1	27
370.471	1	9
370.641	1	18
370.812	1	9
370.983	1	14
371.154	1	11
371.325	1	25
371.496	1	12
371.667	1	33
371.837	1	5
372.008	1	11
372.179	1	1
372.350	1	27
372.521	1	15
372.692	1	7
372.863	1	19
373.033	1	-10
373.204	1	20
373.375	1	10
373.546	1	18
373.717	1	22
373.888	1	17
374.059	1	26
374.229	1	18
374.400	1	11
374.571	1	9
374.742	1	18
374.913	1	12
375.084	1	18
375.254	1	17
375.425	1	13
375.596	1	14
375.767	1	13
375.938	1	18
376.109	1	9
376.279	1	11
376.450	1	21
376.621	1	14
376.792	1	4
376.963	1	22
377.134	1	7
377.304	1	12
377.475	1	13
377.646	1	23
377.817	1	-7
377.988	1	16
378.159	1	14
378.329	1	22
378.500	1	15
378.671	1	16
378.842	1	10
379.013	1	6
379.184	1	11
379.354	1	20
379.525	1	17
379.696	1	26
379.867	1	22
380.038	1	8
380.209	1	19
380.379	1	20
380.550	1	2
380.721	1	24
380.892	1	11
381.063	1	7
381.233	1	27
381.404	1	14
381.575	1	26
381.746	1	13
381.917	1	16
382.087	1	23
382.258	1	10
382.429	1	11
382.600	1	27
382.771	1	21
382.941	1	9
383.112	1	20
383.283	1	24
383.454	1	14
383.625	1	15
383.795	1	20
383.966	1	18
384.137	1	22
384.308	1	18
384.479	1	19
384.649	1	23
384.820	1	23
384.991	1	13
385.162	1	18
385.333	1	8
385.503	1	17
385.674	1	11
385.845	1	28
386.016	1	15
386.187	1	12
386.357	1	20
386.528	1	23
386.699	1	13
386.870	1	27
387.041	1	27
387.211	1	28
387.382	1	22
387.553	1	24
387.724	1	8
387.894	1	22
388.065	1	16
388.236	1	14
388.407	1	21
388.578	1	19
388.748	1	16
388.919	1	29
389.090	1	23
389.261	1	19
389.431	1	21
389.602	1	15
389.773	1	23
389.944	1	17
390.114	1	18
390.285	1	22
390.456	1	17
390.627	1	21
390.798	1	25
390.968	1	21
391.139	1	17
391.310	1	16
391.481	1	28
391.651	1	20
391.822	1	12
391.993	1	26
392.164	1	14
392.334	1	18
392.505	1	15
392.676	1	26
392.847	1	21
393.017	1	17
393.188	1	18
393.359	1	12
393.530	1	26
393.700	1	21
393.871	1	11
394.042	1	19
394.213	1	18
394.383	1	25
394.554	1	12
394.725	1	27
394.896	1	11
395.066	1	26
395.237	1	10
395.408	1	11
395.579	1	9
395.749	1	25
395.920	1	9
396.091	1	19
396.262	1	19
396.432	1	21
396.603	1	27
396.774	1	28
396.945	1	19
397.115	1	23
397.286	1	21
397.457	1	20
397.627	1	20
397.798	1	25
397.969	1	13
398.140	1	16
398.310	1	23
398.481	1	23
398.652	1	15
398.823	1	20
398.993	1	24
399.164	1	19
399.335	1	26
399.505	1	24
399.676	1	22
399.847	1	27
400.018	1	9
400.188	1	26
400.359	1	24
400.530	1	24
400.700	1	24
400.871	1	23
401.042	1	18
401.213	1	21
401.383	1	19
401.554	1	29
401.725	1	19
401.895	1	12
402.066	1	25
402.237	1	27
402.408	1	28
402.578	1	23
402.749	1	33
402.920	1	14
403.090	1	12
403.261	1	11
403.432	1	17
403.603	1	26
403.773	1	28
403.944	1	28
404.115	1	30
404.285	1	22
404.456	1	14
404.627	1	13
404.797	1	16
404.968	1	20
405.139	1	14
405.310	1	24
405.480	1	24
405.651	1	17
405.822	1	26
405.992	1	16
406.163	1	16
406.334	1	11
406.504	1	23
406.675	1	29
406.846	1	18
407.016	1	19
407.187	1	14
407.358	1	16
407.528	1	11
407.699	1	7
407.870	1	13
408.041	1	22
408.211	1	40
408.382	1	11
408.553	1	16
408.723	1	43
408.894	1	10
409.065	1	22
409.235	1	22
409.406	1	23
409.577	1	18
409.747	1	27
409.918	1	19
410.089	1	14
410.259	1	26
410.430	1	28
410.601	1	17
410.771	1	21
410.942	1	29
411.113	1	23
411.283	1	27
411.454	1	18
411.625	1	25
411.795	1	31
411.966	1	19
412.137	1	20
412.307	1	9
412.478	1	21
412.649	1	28
412.819	1	17
412.990	1	12
413.161	1	24
413.331	1	20
413.502	1	28
413.672	1	18
413.843	1	21
414.014	1	23
414.184	1	30
414.355	1	16
414.526	1	21
414.696	1	27
414.867	1	21
415.038	1	9
415.208	1	22
415.379	1	26
415.550	1	22
415.720	1	13
415.891	1	19
416.062	1	16
416.232	1	16
416.403	1	25
416.573	1	32
416.744	1	22
416.915	1	27
417.085	1	22
417.256	1	17
417.427	1	23
417.597	1	13
417.768	1	16
417.939	1	21
418.109	1	16
418.280	1	21
418.450	1	18
418.621	1	12
418.792	1	28
418.962	1	29
419.133	1	26
419.304	1	25
419.474	1	25
419.645	1	13
419.815	1	13
419.986	1	25
420.157	1	18
420.327	1	26
420.498	1	25
420.669	1	19
420.839	1	31
421.010	1	24
421.180	1	24
421.351	1	19
421.522	1	19
421.692	1	17
421.863	1	15
422.033	1	34
422.204	1	20
422.375	1	12
422.545	1	24
422.716	1	22
422.886	1	19
423.057	1	22
423.228	1	26
423.398	1	8
423.569	1	18
423.740	1	22
423.910	1	1
424.081	1	21
424.251	1	15
424.422	1	28
424.593	1	15
424.763	1	24
424.934	1	17
425.104	1	23
425.275	1	11
425.445	1	10
425.616	1	13
425.787	1	24
425.957	1	28
426.128	1	32
426.298	1	24
426.469	1	15
426.640	1	20
426.810	1	17
426.981	1	15
427.151	1	19
427.322	1	36
427.493	1	17
427.663	1	20
427.834	1	27
428.004	1	20
428.175	1	20
428.345	1	23
428.516	1	22
428.687	1	22
428.857	1	8
429.028	1	10
429.198	1	23
429.369	1	17
429.540	1	23
429.710	1	6
429.881	1	28
430.051	1	20
430.222	1	14
430.392	1	11
430.563	1	40
430.734	1	33
430.904	1	15
431.075	1	35
431.245	1	13
431.416	1	22
431.586	1	32
431.757	1	18
431.927	1	18
432.098	1	18
432.269	1	13
432.439	1	24
432.610	1	13
432.780	1	28
432.951	1	17
433.121	1	22
433.292	1	23
433.462	1	26
433.633	1	23
433.804	1	20
433.974	1	29
434.145	1	32
434.315	1	17
434.486	1	2
434.656	1	15
434.827	1	8
434.997	1	2
435.168	1	28
435.339	1	26
435.509	1	13
435.680	1	15
435.850	1	13
436.021	1	19
436.191	1	17
436.362	1	19
436.532	1	13
436.703	1	16
436.873	1	29
437.044	1	3
437.214	1	16
437.385	1	13
437.556	1	18
437.726	1	24
437.897	1	20
438.067	1	18
438.238	1	16
438.408	1	24
438.579	1	21
438.749	1	12
438.920	1	5
439.090	1	14
439.261	1	13
439.431	1	7
439.602	1	12
439.772	1	15
439.943	1	24
440.113	1	18
440.284	1	23
440.455	1	16
440.625	1	25
440.796	1	23
440.966	1	15
441.137	1	18
441.307	1	11
441.478	1	24
441.648	1	23
441.819	1	20
441.989	1	19
442.160	1	28
442.330	1	24
442.501	1	15
442.671	1	9
442.842	1	13
443.012	1	7
443.183	1	18
443.353	1	14
443.524	1	25
443.694	1	24
443.865	1	16
444.035	1	19
444.206	1	15
444.376	1	4
444.547	1	29
444.717	1	21
444.888	1	19
445.058	1	23
445.229	1	13
445.399	1	17
445.570	1	23
445.740	1	12
445.911	1	16
446.081	1	4
446.252	1	21
446.422	1	18
446.593	1	12
446.763	1	20
446.934	1	8
447.104	1	14
447.275	1	20
447.445	1	17
447.616	1	13
447.786	1	11
447.957	1	14
448.127	1	12
448.298	1	21
448.468	1	13
448.639	1	11
448.809	1	17
448.979	1	16
449.150	1	20
449.320	1	28
449.491	1	15
449.661	1	14
449.832	1	10
450.002	1	15
450.173	1	20
450.343	1	14
450.514	1	18
450.684	1	11
450.855	1	15
451.025	1	18
451.196	1	25
451.366	1	14
451.537	1	20
451.707	1	2
451.878	1	10
452.048	1	15
452.218	1	11
452.389	1	28
452.559	1	14
452.730	1	26
452.900	1	21
453.071	1	15
453.241	1	22
453.412	1	9
453.582	1	11
453.753	1	25
453.923	1	20
454.093	1	21
454.264	1	24
454.434	1	18
454.605	1	15
454.775	1	13
454.946	1	15
455.116	1	18
455.287	1	0
455.457	1	12
455.628	1	12
455.798	1	18
455.968	1	25
456.139	1	14
456.309	1	13
456.480	1	4
456.650	1	13
456.821	1	11
456.991	1	20
457.161	1	5
457.332	1	22
457.502	1	4
457.673	1	23
457.843	1	17
458.014	1	16
458.184	1	23
458.355	1	7
458.525	1	21
458.695	1	14
458.866	1	15
459.036	1	14
459.207	1	13
459.377	1	15
459.548	1	20
459.718	1	11
459.888	1	22
460.059	1	12
460.229	1	12
460.400	1	18
460.570	1	21
460.740	1	13
460.911	1	16
461.081	1	15
461.252	1	4
461.422	1	8
461.593	1	3
461.763	1	11
461.933	1	12
462.104	1	1
462.274	1	17
462.445	1	15
462.615	1	10
462.785	1	13
462.956	1	2
463.126	1	20
463.297	1	12
463.467	1	17
463.638	1	11
463.808	1	12
463.978	1	11
464.149	1	10
464.319	1	11
464.490	1	25
464.660	1	5
464.830	1	5
465.001	1	3
465.171	1	10
465.342	1	13
465.512	1	15
465.682	1	6
465.853	1	8
466.023	1	10
466.194	1	18
466.364	1	21
466.534	1	12
466.705	1	18
466.875	1	12
467.045	1	5
467.216	1	7
467.386	1	6
467.557	1	13
467.727	1	0
467.897	1	14
468.068	1	24
468.238	1	12
468.409	1	4
468.579	1	11
468.749	1	4
468.920	1	2
469.090	1	16
469.260	1	6
469.431	1	5
469.601	1	9
469.772	1	22
469.942	1	7
470.112	1	15
470.283	1	5
470.453	1	4
470.623	1	4
470.794	1	8
470.964	1	14
471.135	1	15
471.305	1	7
471.475	1	16
471.646	1	3
471.816	1	11
471.986	1	4
472.157	1	20
472.327	1	-6
472.497	1	8
472.668	1	3
472.838	1	10
473.009	1	11
473.179	1	5
473.349	1	4
473.520	1	24
473.690	1	3
473.860	1	8
474.031	1	11
474.201	1	5
474.371	1	10
474.542	1	18
474.712	1	15
474.882	1	18
475.053	1	20
475.223	1	9
475.394	1	19
475.564	1	5
475.734	1	11
475.905	1	20
476.075	1	3
476.245	1	16
476.416	1	22
476.586	1	21
476.756	1	6
476.927	1	17
477.097	1	17
477.267	1	4
477.438	1	16
477.608	1	15
477.778	1	10
477.949	1	12
478.119	1	19
478.289	1	13
478.460	1	21
478.630	1	13
478.800	1	15
478.971	1	17
479.141	1	15
479.311	1	3
479.482	1	13
479.652	1	8
479.822	1	9
479.993	1	11
480.163	1	12
480.333	1	13
480.504	1	13
480.674	1	11
480.844	1	-2
481.015	1	16
481.185	1	11
481.355	1	8
481.525	1	7
481.696	1	8
481.866	1	8
482.036	1	4
482.207	1	5
482.377	1	11
482.547	1	11
482.718	1	8
482.888	1	17
483.058	1	7
483.229	1	8
483.399	1	3
483.569	1	17
483.740	1	17
483.910	1	19
484.080	1	12
484.250	1	11
484.421	1	8
484.591	1	11
484.761	1	25
484.932	1	12
485.102	1	18
485.272	1	6
485.443	1	23
485.613	1	19
485.783	1	10
485.953	1	14
486.124	1	14
486.294	1	14
486.464	1	8
486.635	1	16
486.805	1	16
486.975	1	-3
487.146	1	9
487.316	1	18
487.486	1	11
487.656	1	9
487.827	1	5
487.997	1	0
488.167	1	7
488.338	1	9
488.508	1	8
488.678	1	3
488.848	1	13
489.019	1	2
489.189	1	6
489.359	1	8
489.529	1	11
489.700	1	18
489.870	1	16
490.040	1	-5
490.211	1	-5
490.381	1	10
490.551	1	10
490.721	1	15
490.892	1	3
491.062	1	10
491.232	1	13
491.402	1	4
491.573	1	2
491.743	1	4
491.913	1	6
492.084	1	10
492.254	1	1
492.424	1	6
492.594	1	4
492.765	1	12
492.935	1	1
493.105	1	1
493.275	1	7
493.446	1	16
493.616	1	14
493.786	1	5
493.956	1	5
494.127	1	12
494.297	1	0
494.467	1	4
494.637	1	-4
494.808	1	5
494.978	1	3
495.148	1	2
495.318	1	4
495.489	1	10
495.659	1	9
495.829	1	6
495.999	1	3
496.170	1	8
496.340	1	6
496.510	1	16
496.680	1	-4
496.851	1	6
497.021	1	-1
497.191	1	2
497.361	1	0
497.532	1	3
497.702	1	10
497.872	1	13
498.042	1	15
498.213	1	7
498.383	1	10
498.553	1	13
498.723	1	4
498.894	1	4
499.064	1	7
499.234	1	15
499.404	1	8
499.574	1	10
499.745	1	14
499.915	1	-2
500.085	1	7
500.255	1	17
500.426	1	3
500.596	1	10
500.766	1	8
500.936	1	-2
501.106	1	1
501.277	1	12
501.447	1	4
501.617	1	2
501.787	1	4
501.958	1	0
502.128	1	5
502.298	1	2
502.468	1	11
502.638	1	7
502.809	1	6
502.979	1	-4
503.149	1	-6
503.319	1	-3
503.489	1	11
503.660	1	12
503.830	1	0
504.000	1	9
504.170	1	2
504.340	1	2
504.511	1	7
504.681	1	2
504.851	1	7
505.021	1	5
505.192	1	0
505.362	1	13
505.532	1	0
505.702	1	6
505.872	1	7
506.043	1	1
506.213	1	8
506.383	1	6
506.553	1	8
506.723	1	3
506.893	1	10
507.064	1	12
507.234	1	4
507.404	1	5
507.574	1	7
507.744	1	5
507.915	1	9
508.085	1	18
508.255	1	8
508.425	1	-1
508.595	1	17
508.766	1	15
508.936	1	-3
509.106	1	3
509.276	1	11
509.446	1	-5
509.616	1	-3
509.787	1	7
509.957	1	3
510.127	1	13
510.297	1	14
510.467	1	6
510.638	1	10
510.808	1	-5
510.978	1	-3
511.148	1	7
511.318	1	2
511.488	1	-4
511.659	1	14
511.829	1	5
511.999	1	3
512.169	1	5
512.339	1	10
512.509	1	3
512.680	1	2
512.850	1	9
513.020	1	3
513.190	1	9
513.360	1	5
513.530	1	8
513.700	1	9
513.871	1	1
514.041	1	4
514.211	1	14
514.381	1	2
514.551	1	5
514.721	1	2
514.892	1	11
515.062	1	3
515.232	1	-1
515.402	1	1
515.572	1	-1
515.742	1	8
515.912	1	9
516.083	1	5
516.253	1	5
516.423	1	1
516.593	1	-1
516.763	1	3
516.933	1	1
517.104	1	9
517.274	1	-4
517.444	1	11
517.614	1	-5
517.784	1	1
517.954	1	-1
518.124	1	8
518.294	1	-1
518.465	1	5
518.635	1	12
518.805	1	-6
518.975	1	4
519.145	1	-4
519.315	1	9
519.485	1	2
519.656	1	13
519.826	1	3
519.996	1	2
520.166	1	5
520.336	1	13
520.506	1	3
520.676	1	-7
520.846	1	15
521.017	1	7
521.187	1	3
521.357	1	12
521.527	1	1
521.697	1	-2
521.867	1	-6
522.037	1	8
522.207	1	8
522.377	1	6
522.548	1	1
522.718	1	-1
522.888	1	12
523.058	1	5
523.228	1	12
523.398	1	14
523.568	1	11
523.738	1	12
523.909	1	10
524.079	1	-1
524.249	1	5
524.419	1	-1
524.589	1	-1
524.759	1	1
524.929	1	-3
525.099	1	8
525.269	1	14
525.439	1	1
525.610	1	19
525.780	1	3
525.950	1	-1
526.120	1	2
526.290	1	7
526.460	1	-6
526.630	1	-1
526.800	1	3
526.970	1	9
527.140	1	9
527.311	1	1
527.481	1	-3
527.651	1	9
527.821	1	1
527.991	1	22
528.161	1	14
528.331	1	-3
528.501	1	2
528.671	1	4
528.841	1	10
529.011	1	0
529.181	1	8
529.352	1	13
529.522	1	-1
529.692	1	7
529.862	1	-5
530.032	1	7
530.202	1	1
530.372	1	-4
530.542	1	0
530.712	1	8
530.882	1	-4
531.052	1	8
531.222	1	4
531.392	1	3
531.563	1	0
531.733	1	3
531.903	1	4
532.073	1	6
532.243	1	5
532.413	1	10
532.583	1	1
532.753	1	1
532.923	1	-12
533.093	1	4
533.263	1	1
533.433	1	5
533.603	1	15
533.773	1	2
533.943	1	-4
534.113	1	0
534.284	1	10
534.454	1	13
534.624	1	12
534.794	1	-5
534.964	1	5
535.134	1	1
535.304	1	-1
535.474	1	13
535.644	1	-3
535.814	1	-7
535.984	1	-10
536.154	1	-1
536.324	1	11
536.494	1	-1
536.664	1	14
536.834	1	4
537.004	1	0
537.174	1	12
537.344	1	3
537.514	1	-5
537.685	1	-2
537.855	1	6
538.025	1	4
538.195	1	6
538.365	1	14
538.535	1	1
538.705	1	1
538.875	1	4
539.045	1	10
539.215	1	7
539.385	1	3
539.555	1	2
539.725	1	3
539.895	1	0
540.065	1	21
540.235	1	7
540.405	1	-4
540.575	1	-1
540.745	1	10
540.915	1	6
541.085	1	4
541.255	1	-12
541.425	1	7
541.595	1	-7
541.765	1	6
541.935	1	-5
542.105	1	-7
542.275	1	0
542.445	1	1
542.615	1	6
542.785	1	10
542.955	1	-3
543.125	1	-7
543.295	1	13
543.465	1	13
543.635	1	4
543.805	1	14
543.975	1	-1
544.145	1	-2
544.315	1	8
544.485	1	9
544.655	1	4
544.825	1	-15
544.995	1	5
545.165	1	3
545.335	1	0
545.505	1	-8
545.675	1	-3
545.845	1	14
546.015	1	1
546.185	1	4
546.355	1	1
546.525	1	2
546.695	1	9
546.865	1	0
547.035	1	6
547.205	1	-9
547.375	1	7
547.545	1	12
547.715	1	-4
547.885	1	6
548.055	1	2
548.225	1	2
548.395	1	-2
548.565	1	-4
548.735	1	5
548.905	1	7
549.075	1	6
549.245	1	9
549.415	1	-2
549.585	1	7
549.755	1	3
549.925	1	-1
550.095	1	-4
550.265	1	-4
550.435	1	-4
550.605	1	-6
550.775	1	4
550.945	1	5
551.115	1	0
551.285	1	6
551.455	1	-6
551.625	1	3
551.795	1	11
551.965	1	5
552.135	1	-2
552.305	1	0
552.475	1	-8
552.645	1	-4
552.815	1	6
552.985	1	9
553.155	1	10
553.325	1	11
553.495	1	6
553.665	1	4
553.835	1	-2
554.004	1	8
554.174	1	1
554.344	1	-1
554.514	1	0
554.684	1	6
554.854	1	7
555.024	1	1
555.194	1	-1
555.364	1	10
555.534	1	8
555.704	1	2
555.874	1	9
556.044	1	3
556.214	1	-2
556.384	1	5
556.554	1	12
556.724	1	0
556.894	1	2
557.064	1	11
557.234	1	-4
557.404	1	7
557.573	1	-2
557.743	1	7
557.913	1	-4
558.083	1	-2
558.253	1	13
558.423	1	4
558.593	1	11
558.763	1	2
558.933	1	6
559.103	1	10
559.273	1	-11
559.443	1	6
559.613	1	7
559.783	1	-11
559.953	1	-3
560.122	1	8
560.292	1	4
560.462	1	1
560.632	1	7
560.802	1	5
560.972	1	10
561.142	1	3
561.312	1	-8
561.482	1	7
561.652	1	7
561.822	1	1
561.992	1	-2
562.162	1	4
562.331	1	16
562.501	1	-2
562.671	1	4
562.841	1	-7
563.011	1	-4
563.181	1	4
563.351	1	-5
563.521	1	6
563.691	1	1
563.861	1	11
564.031	1	6
564.201	1	17
564.370	1	-9
564.540	1	6
564.710	1	-4
564.880	1	7
565.050	1	9
565.220	1	1
565.390	1	14
565.560	1	9
565.730	1	-8
565.900	1	-3
566.069	1	10
566.239	1	9
566.409	1	-3
566.579	1	13
566.749	1	4
566.919	1	4
567.089	1	-1
567.259	1	11
567.429	1	10
567.599	1	0
567.768	1	7
567.938	1	3
568.108	1	3
568.278	1	-1
568.448	1	-3
568.618	1	-2
568.788	1	6
568.958	1	2
569.128	1	11
569.297	1	7
569.467	1	5
569.637	1	14
569.807	1	2
569.977	1	1
570.147	1	8
570.317	1	-5
570.487	1	2
570.656	1	11
570.826	1	4
570.996	1	-3
571.166	1	6
571.336	1	-3
571.506	1	11
571.676	1	2
571.846	1	15
572.015	1	8
572.185	1	4
572.355	1	3
572.525	1	2
572.695	1	8
572.865	1	-2
573.035	1	4
573.205	1	0
573.374	1	-9
573.544	1	-1
573.714	1	14
573.884	1	10
574.054	1	8
574.224	1	5
574.394	1	-1
574.563	1	3
574.733	1	0
574.903	1	-2
575.073	1	-4
575.243	1	5
575.413	1	6
575.583	1	0
575.752	1	10
575.922	1	5
576.092	1	2
576.262	1	9
576.432	1	-2
576.602	1	-11
576.772	1	10
576.941	1	-2
577.111	1	-6
577.281	1	-2
577.451	1	-2
577.621	1	9
577.791	1	14
577.960	1	-4
578.130	1	1
578.300	1	5
578.470	1	10
578.640	1	-2
578.810	1	5
578.979	1	5
579.149	1	4
579.319	1	0
579.489	1	5
579.659	1	4
579.829	1	-2
579.998	1	9
580.168	1	7
580.338	1	0
580.508	1	4
580.678	1	6
580.848	1	-3
581.017	1	-1
581.187	1	12
581.357	1	-5
581.527	1	7
581.697	1	7
581.867	1	9
582.036	1	5
582.206	1	1
582.376	1	5
582.546	1	2
582.716	1	-7
582.885	1	0
583.055	1	0
583.225	1	5
583.395	1	1
583.565	1	-7
583.735	1	15
583.904	1	0
584.074	1	6
584.244	1	5
584.414	1	11
584.584	1	11
584.753	1	-10
584.923	1	2
585.093	1	-6
585.263	1	-5
585.433	1	0
585.602	1	-8
585.772	1	-10
585.942	1	2
586.112	1	9
586.282	1	-1
586.451	1	-2
586.621	1	-8
586.791	1	3
586.961	1	5
587.131	1	3
587.300	1	-5
587.470	1	7
587.640	1	6
587.810	1	1
587.980	1	1
588.149	1	1
588.319	1	1
588.489	1	3
588.659	1	1
588.829	1	3
588.998	1	8
589.168	1	7
589.338	1	6
589.508	1	9
589.677	1	2
589.847	1	2
590.017	1	20
590.187	1	-5
590.357	1	14
590.526	1	10
590.696	1	3
590.866	1	3
591.036	1	3
591.205	1	23
591.375	1	-6
591.545	1	-9
591.715	1	3
591.885	1	-5
592.054	1	3
592.224	1	4
592.394	1	5
592.564	1	12
592.733	1	7
592.903	1	1
593.073	1	2
593.243	1	4
593.412	1	8
593.582	1	-1
593.752	1	-2
593.922	1	-1
594.091	1	6
594.261	1	4
594.431	1	9
594.601	1	8
594.771	1	12
594.940	1	-5
595.110	1	-5
595.280	1	6
595.450	1	-6
595.619	1	2
595.789	1	7
595.959	1	2
596.129	1	5
596.298	1	-5
596.468	1	3
596.638	1	5
596.808	1	3
596.977	1	-1
597.147	1	5
597.317	1	-8
597.487	1	10
597.656	1	12
597.826	1	-2
597.996	1	2
598.166	1	-2
598.335	1	-8
598.505	1	2
598.675	1	-1
598.844	1	2
599.014	1	2
599.184	1	5
599.354	1	-7
599.523	1	7
599.693	1	-4
599.863	1	9
600.033	1	10
600.202	1	13
600.372	1	-1
600.542	1	10
600.712	1	-7
600.881	1	-1
601.051	1	11
601.221	1	10
601.390	1	-9
601.560	1	11
601.730	1	5
601.900	1	-2
602.069	1	14
602.239	1	-3
602.409	1	-13
602.578	1	2
602.748	1	8
602.918	1	3
603.088	1	14
603.257	1	-3
603.427	1	1
603.597	1	-6
603.767	1	4
603.936	1	11
604.106	1	4
604.276	1	-9
604.445	1	8
604.615	1	-3
604.785	1	-2
604.954	1	-4
605.124	1	5
605.294	1	-2
605.464	1	-5
605.633	1	7
605.803	1	6
605.973	1	4
606.142	1	2
606.312	1	15
606.482	1	7
606.652	1	8
606.821	1	-7
606.991	1	5
607.161	1	2
607.330	1	11
607.500	1	-2
607.670	1	0
607.839	1	3
608.009	1	3
608.179	1	4
608.348	1	4
608.518	1	0
608.688	1	3
608.858	1	2
609.027	1	2
609.197	1	5
609.367	1	16
609.536	1	9
609.706	1	0
609.876	1	-4
610.045	1	8
610.215	1	8
610.385	1	2
610.554	1	1
610.724	1	8
610.894	1	-1
611.063	1	16
611.233	1	5
611.403	1	6
611.572	1	3
611.742	1	-2
611.912	1	3
612.081	1	-1
612.251	1	1
612.421	1	-3
612.590	1	-3
612.760	1	-4
612.930	1	9
613.099	1	-2
613.269	1	2
613.439	1	3
613.608	1	5
613.778	1	7
613.948	1	6
614.117	1	5
614.287	1	6
614.457	1	2
614.626	1	4
614.796	1	4
614.966	1	-1
615.135	1	2
615.305	1	15
615.475	1	3
615.644	1	7
615.814	1	3
615.984	1	0
616.153	1	-1
616.323	1	6
616.493	1	3
616.662	1	5
616.832	1	-3
617.002	1	0
617.171	1	-3
617.341	1	0
617.511	1	2
617.680	1	-6
617.850	1	7
618.019	1	14
618.189	1	17
618.359	1	-4
618.528	1	-2
618.698	1	9
618.868	1	2
619.037	1	4
619.207	1	1
619.377	1	7
619.546	1	0
619.716	1	5
619.885	1	2
620.055	1	-16
620.225	1	1
620.394	1	-3
620.564	1	13
620.734	1	12
620.903	1	-3
621.073	1	12
621.242	1	4
621.412	1	11
621.582	1	1
621.751	1	9
621.921	1	-3
622.091	1	-3
622.260	1	6
622.430	1	12
622.599	1	3
622.769	1	4
622.939	1	8
623.108	1	1
623.278	1	2
623.448	1	-1
623.617	1	-3
623.787	1	3
623.956	1	7
624.126	1	8
624.296	1	3
624.465	1	9
624.635	1	4
624.804	1	12
624.974	1	11
625.144	1	7
625.313	1	-4
625.483	1	-4
625.652	1	-8
625.822	1	-1
625.992	1	3
626.161	1	8
626.331	1	0
626.501	1	9
626.670	1	-2
626.840	1	4
627.009	1	2
627.179	1	18
627.348	1	6
627.518	1	4
627.688	1	3
627.857	1	9
628.027	1	-11
628.196	1	7
628.366	1	16
628.536	1	6
628.705	1	4
628.875	1	12
629.044	1	1
629.214	1	3
629.384	1	3
629.553	1	4
629.723	1	6
629.892	1	-7
630.062	1	-5
630.232	1	-9
630.401	1	12
630.571	1	9
630.740	1	3
630.910	1	5
631.079	1	1
631.249	1	9
631.419	1	9
631.588	1	-8
631.758	1	7
631.927	1	7
632.097	1	9
632.266	1	-6
632.436	1	7
632.606	1	-6
632.775	1	9
632.945	1	4
633.114	1	16
633.284	1	12
633.453	1	-12
633.623	1	1
633.793	1	7
633.962	1	9
634.132	1	3
634.301	1	-5
634.471	1	6
634.640	1	7
634.810	1	2
634.979	1	1
635.149	1	12
635.319	1	7
635.488	1	4
635.658	1	3
635.827	1	3
635.997	1	8
636.166	1	9
636.336	1	-4
636.505	1	12
636.675	1	8
636.845	1	8
637.014	1	4
637.184	1	5
637.353	1	8
637.523	1	4
637.692	1	1
637.862	1	7
638.031	1	-3
638.201	1	6
638.370	1	-4
638.540	1	4
638.710	1	0
638.879	1	-12
639.049	1	-1
639.218	1	6
639.388	1	-9
639.557	1	-1
639.727	1	3
639.896	1	0
640.066	1	10
640.235	1	4
640.405	1	7
640.574	1	5
640.744	1	1
640.914	1	4
641.083	1	2
641.253	1	1
641.422	1	-3
641.592	1	11
641.761	1	-3
641.931	1	-2
642.100	1	15
642.270	1	1
642.439	1	8
642.609	1	9
642.778	1	2
642.948	1	-2
643.117	1	3
643.287	1	2
643.456	1	4
643.626	1	13
643.795	1	1
643.965	1	10
644.134	1	-1
644.304	1	5
644.473	1	7
644.643	1	5
644.812	1	2
644.982	1	2
645.151	1	2
645.321	1	0
645.490	1	6
645.660	1	-1
645.829	1	0
645.999	1	5
646.168	1	10
646.338	1	10
646.507	1	4
646.677	1	7
646.846	1	6
647.016	1	-8
647.185	1	0
647.355	1	-10
647.524	1	5
647.694	1	6
647.863	1	13
648.033	1	4
648.202	1	18
648.372	1	-8
648.541	1	6
648.711	1	2
648.880	1	-5
649.050	1	-5
649.219	1	3
649.389	1	15
649.558	1	2
649.728	1	4
649.897	1	-4
650.067	1	13
650.236	1	3
650.406	1	14
650.575	1	10
650.745	1	4
650.914	1	-6
651.084	1	0
651.253	1	12
651.423	1	-1
651.592	1	6
651.762	1	2
651.931	1	16
652.101	1	8
652.270	1	3
652.440	1	7
652.609	1	-7
652.778	1	0
652.948	1	7
653.117	1	-1
653.287	1	2
653.456	1	14
653.626	1	12
653.795	1	11
653.965	1	6
654.134	1	4
654.304	1	-12
654.473	1	11
654.643	1	11
654.812	1	6
654.982	1	7
655.151	1	6
655.320	1	10
655.490	1	-1
655.659	1	3
655.829	1	2
655.998	1	0
656.168	1	-6
656.337	1	-5
656.507	1	9
656.676	1	0
656.846	1	10
657.015	1	12
657.184	1	13
657.354	1	8
657.523	1	1
657.693	1	19
657.862	1	-1
658.032	1	5
658.201	1	-1
658.371	1	6
658.540	1	4
658.709	1	-4
658.879	1	11
659.048	1	-2
659.218	1	3
659.387	1	3
659.557	1	6
659.726	1	14
659.895	1	-1
660.065	1	-1
660.234	1	5
660.404	1	12
660.573	1	1
660.743	1	6
660.912	1	0
661.081	1	10
661.251	1	1
661.420	1	11
661.590	1	-7
661.759	1	7
661.929	1	15
662.098	1	18
662.267	1	6
662.437	1	8
662.606	1	3
662.776	1	11
662.945	1	7
663.115	1	2
663.284	1	-2
663.453	1	6
663.623	1	5
663.792	1	3
663.962	1	0
664.131	1	7
664.300	1	10
664.470	1	-5
664.639	1	2
664.809	1	2
664.978	1	10
665.148	1	5
665.317	1	5
665.486	1	11
665.656	1	3
665.825	1	13
665.995	1	-4
666.164	1	-3
666.333	1	2
666.503	1	6
666.672	1	2
666.842	1	3
667.011	1	4
667.180	1	12
667.350	1	0
667.519	1	7
667.689	1	2
667.858	1	4
668.027	1	9
668.197	1	7
668.366	1	6
668.536	1	11
668.705	1	1
668.874	1	6
669.044	1	3
669.213	1	8
669.382	1	-2
669.552	1	7
669.721	1	14
669.891	1	17
670.060	1	9
670.229	1	12
670.399	1	-2
670.568	1	17
670.738	1	12
670.907	1	0
671.076	1	0
671.246	1	5
671.415	1	2
671.584	1	-1
671.754	1	2
671.923	1	1
672.093	1	8
672.262	1	-11
672.431	1	8
672.601	1	-12
672.770	1	-2
672.939	1	6
673.109	1	2
673.278	1	0
673.448	1	8
673.617	1	7
673.786	1	4
