325.333	1	23
325.504	1	20
325.675	1	24
325.846	1	23
326.017	1	15
326.188	1	31
326.359	1	24
326.531	1	16
326.702	1	16
326.873	1	29
327.044	1	23
327.215	1	18
327.386	1	32
327.557	1	18
327.728	1	22
327.899	1	28
328.070	1	36
328.241	1	23
328.412	1	18
328.583	1	22
328.754	1	28
328.926	1	43
329.097	1	22
329.268	1	37
329.439	1	21
329.610	1	43
329.781	1	24
329.952	1	30
330.123	1	25
330.294	1	32
330.465	1	28
330.636	1	32
330.807	1	22
330.978	1	27
331.149	1	34
331.320	1	33
331.492	1	32
331.663	1	38
331.834	1	35
332.005	1	34
332.176	1	48
332.347	1	43
332.518	1	19
332.689	1	32
332.860	1	34
333.031	1	40
333.202	1	30
333.373	1	32
333.544	1	38
333.715	1	35
333.886	1	35
334.057	1	36
334.228	1	30
334.399	1	43
334.570	1	52
334.741	1	38
334.912	1	44
335.084	1	60
335.255	1	49
335.426	1	32
335.597	1	41
335.768	1	39
335.939	1	46
336.110	1	44
336.281	1	34
336.452	1	41
336.623	1	44
336.794	1	46
336.965	1	49
337.136	1	63
337.307	1	44
337.478	1	44
337.649	1	34
337.820	1	37
337.991	1	35
338.162	1	48
338.333	1	47
338.504	1	46
338.675	1	47
338.846	1	46
339.017	1	60
339.188	1	43
339.359	1	49
339.530	1	42
339.701	1	43
339.872	1	44
340.043	1	48
340.214	1	46
340.385	1	50
340.556	1	42
340.727	1	42
340.898	1	56
341.069	1	52
341.240	1	47
341.411	1	52
341.582	1	50
341.753	1	38
341.924	1	56
342.095	1	49
342.266	1	61
342.437	1	61
342.608	1	48
342.779	1	68
342.950	1	58
343.121	1	60
343.292	1	52
343.463	1	58
343.634	1	56
343.805	1	53
343.976	1	64
344.147	1	57
344.318	1	57
344.489	1	59
344.660	1	69
344.831	1	56
345.002	1	52
345.173	1	75
345.344	1	63
345.515	1	60
345.686	1	56
345.857	1	60
346.028	1	67
346.199	1	63
346.370	1	58
346.541	1	66
346.712	1	67
346.883	1	61
347.054	1	63
347.225	1	68
347.396	1	70
347.567	1	71
347.738	1	55
347.909	1	77
348.080	1	64
348.251	1	78
348.422	1	71
348.593	1	62
348.764	1	71
348.935	1	67
349.106	1	70
349.277	1	66
349.448	1	83
349.619	1	77
349.790	1	81
349.961	1	83
350.132	1	85
350.303	1	73
350.474	1	82
350.645	1	74
350.816	1	76
350.987	1	81
351.157	1	65
351.328	1	84
351.499	1	70
351.670	1	81
351.841	1	83
352.012	1	87
352.183	1	89
352.354	1	79
352.525	1	85
352.696	1	84
352.867	1	82
353.038	1	87
353.209	1	72
353.380	1	79
353.551	1	80
353.722	1	82
353.893	1	82
354.064	1	87
354.235	1	81
354.406	1	78
354.576	1	75
354.747	1	80
354.918	1	90
355.089	1	81
355.260	1	87
355.431	1	80
355.602	1	77
355.773	1	92
355.944	1	96
356.115	1	86
356.286	1	89
356.457	1	100
356.628	1	90
356.799	1	91
356.970	1	98
357.141	1	79
357.311	1	90
357.482	1	88
357.653	1	90
357.824	1	102
357.995	1	87
358.166	1	82
358.337	1	98
358.508	1	98
358.679	1	99
358.850	1	91
359.021	1	92
359.192	1	88
359.363	1	86
359.533	1	98
359.704	1	86
359.875	1	98
360.046	1	101
360.217	1	90
360.388	1	100
360.559	1	93
360.730	1	101
360.901	1	99
361.072	1	103
361.243	1	100
361.414	1	89
361.584	1	87
361.755	1	95
361.926	1	97
362.097	1	102
362.268	1	97
362.439	1	104
362.610	1	95
362.781	1	91
362.952	1	96
363.123	1	91
363.293	1	105
363.464	1	97
363.635	1	103
363.806	1	96
363.977	1	94
364.148	1	94
364.319	1	104
364.490	1	100
364.661	1	101
364.832	1	103
365.002	1	99
365.173	1	102
365.344	1	117
365.515	1	116
365.686	1	97
365.857	1	94
366.028	1	107
366.199	1	108
366.370	1	94
366.540	1	89
366.711	1	96
366.882	1	85
367.053	1	90
367.224	1	108
367.395	1	108
367.566	1	109
367.737	1	107
367.908	1	111
368.078	1	115
368.249	1	104
368.420	1	102
368.591	1	103
368.762	1	98
368.933	1	108
369.104	1	89
369.274	1	102
369.445	1	111
369.616	1	108
369.787	1	118
369.958	1	110
370.129	1	98
370.300	1	114
370.471	1	99
370.641	1	110
370.812	1	105
370.983	1	110
371.154	1	107
371.325	1	119
371.496	1	107
371.667	1	119
371.837	1	106
372.008	1	113
372.179	1	105
372.350	1	120
372.521	1	104
372.692	1	106
372.863	1	112
373.033	1	93
373.204	1	111
373.375	1	108
373.546	1	98
373.717	1	110
373.888	1	117
374.059	1	130
374.229	1	113
374.400	1	102
374.571	1	111
374.742	1	121
374.913	1	113
375.084	1	115
375.254	1	119
375.425	1	115
375.596	1	115
375.767	1	113
375.938	1	122
376.109	1	121
376.279	1	114
376.450	1	127
376.621	1	127
376.792	1	127
376.963	1	117
377.134	1	126
377.304	1	109
377.475	1	107
377.646	1	131
377.817	1	112
377.988	1	125
378.159	1	126
378.329	1	130
378.500	1	127
378.671	1	117
378.842	1	121
379.013	1	101
379.184	1	119
379.354	1	132
379.525	1	123
379.696	1	137
379.867	1	133
380.038	1	132
380.209	1	129
380.379	1	125
380.550	1	126
380.721	1	139
380.892	1	131
381.063	1	123
381.233	1	125
381.404	1	134
381.575	1	137
381.746	1	126
381.917	1	127
382.087	1	139
382.258	1	122
382.429	1	130
382.600	1	137
382.771	1	130
382.941	1	146
383.112	1	130
383.283	1	138
383.454	1	139
383.625	1	138
383.795	1	123
383.966	1	132
384.137	1	145
384.308	1	129
384.479	1	150
384.649	1	135
384.820	1	140
384.991	1	125
385.162	1	144
385.333	1	122
385.503	1	150
385.674	1	133
385.845	1	149
386.016	1	139
386.187	1	148
386.357	1	142
386.528	1	145
386.699	1	138
386.870	1	150
387.041	1	143
387.211	1	121
387.382	1	158
387.553	1	150
387.724	1	142
387.894	1	145
388.065	1	142
388.236	1	143
388.407	1	154
388.578	1	148
388.748	1	138
388.919	1	150
389.090	1	124
389.261	1	147
389.431	1	151
389.602	1	157
389.773	1	149
389.944	1	153
390.114	1	144
390.285	1	143
390.456	1	144
390.627	1	145
390.798	1	153
390.968	1	155
391.139	1	144
391.310	1	137
391.481	1	149
391.651	1	143
391.822	1	140
391.993	1	133
392.164	1	136
392.334	1	141
392.505	1	137
392.676	1	143
392.847	1	143
393.017	1	156
393.188	1	157
393.359	1	133
393.530	1	137
393.700	1	143
393.871	1	137
394.042	1	144
394.213	1	138
394.383	1	148
394.554	1	152
394.725	1	169
394.896	1	145
395.066	1	150
395.237	1	157
395.408	1	147
395.579	1	147
395.749	1	156
395.920	1	153
396.091	1	168
396.262	1	151
396.432	1	152
396.603	1	164
396.774	1	177
396.945	1	156
397.115	1	169
397.286	1	149
397.457	1	160
397.627	1	151
397.798	1	163
397.969	1	162
398.140	1	150
398.310	1	161
398.481	1	154
398.652	1	156
398.823	1	145
398.993	1	155
399.164	1	165
399.335	1	164
399.505	1	159
399.676	1	160
399.847	1	164
400.018	1	146
400.188	1	149
400.359	1	165
400.530	1	168
400.700	1	155
400.871	1	159
401.042	1	150
401.213	1	160
401.383	1	159
401.554	1	169
401.725	1	167
401.895	1	152
402.066	1	164
402.237	1	157
402.408	1	156
402.578	1	164
402.749	1	163
402.920	1	175
403.090	1	163
403.261	1	157
403.432	1	154
403.603	1	168
403.773	1	169
403.944	1	154
404.115	1	164
404.285	1	160
404.456	1	146
404.627	1	164
404.797	1	151
404.968	1	147
405.139	1	176
405.310	1	174
405.480	1	154
405.651	1	162
405.822	1	161
405.992	1	151
406.163	1	168
406.334	1	149
406.504	1	171
406.675	1	166
406.846	1	175
407.016	1	168
407.187	1	177
407.358	1	167
407.528	1	148
407.699	1	173
407.870	1	164
408.041	1	174
408.211	1	187
408.382	1	166
408.553	1	165
408.723	1	186
408.894	1	170
409.065	1	164
409.235	1	177
409.406	1	165
409.577	1	160
409.747	1	182
409.918	1	173
410.089	1	181
410.259	1	181
410.430	1	176
410.601	1	174
410.771	1	155
410.942	1	181
411.113	1	165
411.283	1	178
411.454	1	167
411.625	1	164
411.795	1	169
411.966	1	174
412.137	1	158
412.307	1	170
412.478	1	157
412.649	1	169
412.819	1	164
412.990	1	165
413.161	1	167
413.331	1	159
413.502	1	162
413.672	1	155
413.843	1	163
414.014	1	162
414.184	1	161
414.355	1	158
414.526	1	163
414.696	1	163
414.867	1	163
415.038	1	152
415.208	1	154
415.379	1	180
415.550	1	164
415.720	1	155
415.891	1	155
416.062	1	151
416.232	1	175
416.403	1	163
416.573	1	158
416.744	1	153
416.915	1	172
417.085	1	158
417.256	1	161
417.427	1	157
417.597	1	164
417.768	1	159
417.939	1	173
418.109	1	166
418.280	1	174
418.450	1	165
418.621	1	165
418.792	1	161
418.962	1	161
419.133	1	184
419.304	1	169
419.474	1	155
419.645	1	164
419.815	1	165
419.986	1	173
420.157	1	169
420.327	1	158
420.498	1	165
420.669	1	172
420.839	1	156
421.010	1	167
421.180	1	160
421.351	1	152
421.522	1	173
421.692	1	155
421.863	1	155
422.033	1	170
422.204	1	150
422.375	1	146
422.545	1	177
422.716	1	148
422.886	1	152
423.057	1	170
423.228	1	157
423.398	1	151
423.569	1	149
423.740	1	149
423.910	1	139
424.081	1	150
424.251	1	137
424.422	1	155
424.593	1	136
424.763	1	152
424.934	1	149
425.104	1	146
425.275	1	139
425.445	1	142
425.616	1	156
425.787	1	147
425.957	1	144
426.128	1	149
426.298	1	148
426.469	1	145
426.640	1	143
426.810	1	147
426.981	1	143
427.151	1	127
427.322	1	142
427.493	1	129
427.663	1	148
427.834	1	136
428.004	1	144
428.175	1	140
428.345	1	132
428.516	1	146
428.687	1	153
428.857	1	141
429.028	1	140
429.198	1	148
429.369	1	157
429.540	1	142
429.710	1	140
429.881	1	143
430.051	1	143
430.222	1	146
430.392	1	135
430.563	1	156
430.734	1	140
430.904	1	141
431.075	1	146
431.245	1	136
431.416	1	141
431.586	1	132
431.757	1	142
431.927	1	133
432.098	1	139
432.269	1	137
432.439	1	138
432.610	1	134
432.780	1	132
432.951	1	142
433.121	1	139
433.292	1	146
433.462	1	143
433.633	1	145
433.804	1	135
433.974	1	146
434.145	1	149
434.315	1	135
434.486	1	137
434.656	1	145
434.827	1	142
434.997	1	132
435.168	1	145
435.339	1	143
435.509	1	147
435.680	1	136
435.850	1	131
436.021	1	131
436.191	1	126
436.362	1	140
436.532	1	138
436.703	1	137
436.873	1	128
437.044	1	126
437.214	1	136
437.385	1	136
437.556	1	125
437.726	1	136
437.897	1	144
438.067	1	127
438.238	1	132
438.408	1	148
438.579	1	131
438.749	1	130
438.920	1	129
439.090	1	138
439.261	1	126
439.431	1	121
439.602	1	112
439.772	1	143
439.943	1	119
440.113	1	129
440.284	1	130
440.455	1	132
440.625	1	125
440.796	1	121
440.966	1	116
441.137	1	120
441.307	1	121
441.478	1	118
441.648	1	125
441.819	1	121
441.989	1	133
442.160	1	136
442.330	1	119
442.501	1	133
442.671	1	121
442.842	1	107
443.012	1	112
443.183	1	137
443.353	1	120
443.524	1	120
443.694	1	141
443.865	1	122
444.035	1	112
444.206	1	126
444.376	1	111
444.547	1	142
444.717	1	115
444.888	1	115
445.058	1	132
445.229	1	122
445.399	1	115
445.570	1	119
445.740	1	111
445.911	1	115
446.081	1	105
446.252	1	122
446.422	1	109
446.593	1	116
446.763	1	112
446.934	1	113
447.104	1	109
447.275	1	116
447.445	1	118
447.616	1	134
447.786	1	108
447.957	1	131
448.127	1	122
448.298	1	117
448.468	1	118
448.639	1	114
448.809	1	125
448.979	1	109
449.150	1	117
449.320	1	120
449.491	1	124
449.661	1	117
449.832	1	111
450.002	1	134
450.173	1	122
450.343	1	121
450.514	1	119
450.684	1	99
450.855	1	109
451.025	1	108
451.196	1	124
451.366	1	118
451.537	1	105
451.707	1	99
451.878	1	110
452.048	1	106
452.218	1	109
452.389	1	123
452.559	1	101
452.730	1	119
452.900	1	107
453.071	1	95
453.241	1	105
453.412	1	98
453.582	1	109
453.753	1	101
453.923	1	106
454.093	1	106
454.264	1	116
454.434	1	98
454.605	1	93
454.775	1	102
454.946	1	108
455.116	1	95
455.287	1	108
455.457	1	95
455.628	1	93
455.798	1	106
455.968	1	105
456.139	1	109
456.309	1	107
456.480	1	98
456.650	1	97
456.821	1	88
456.991	1	105
457.161	1	91
457.332	1	88
457.502	1	91
457.673	1	115
457.843	1	105
458.014	1	90
458.184	1	94
458.355	1	87
458.525	1	111
458.695	1	105
458.866	1	89
459.036	1	101
459.207	1	103
459.377	1	91
459.548	1	105
459.718	1	92
459.888	1	107
460.059	1	108
460.229	1	111
460.400	1	99
460.570	1	102
460.740	1	98
460.911	1	89
461.081	1	99
461.252	1	91
461.422	1	93
461.593	1	92
461.763	1	98
461.933	1	97
462.104	1	92
462.274	1	95
462.445	1	100
462.615	1	92
462.785	1	88
462.956	1	96
463.126	1	92
463.297	1	83
463.467	1	85
463.638	1	94
463.808	1	89
463.978	1	87
464.149	1	81
464.319	1	95
464.490	1	101
464.660	1	90
464.830	1	85
465.001	1	94
465.171	1	91
465.342	1	93
465.512	1	85
465.682	1	86
465.853	1	88
466.023	1	78
466.194	1	80
466.364	1	81
466.534	1	90
466.705	1	86
466.875	1	86
467.045	1	82
467.216	1	95
467.386	1	75
467.557	1	70
467.727	1	78
467.897	1	75
468.068	1	78
468.238	1	80
468.409	1	75
468.579	1	80
468.749	1	77
468.920	1	73
469.090	1	81
469.260	1	73
469.431	1	82
469.601	1	75
469.772	1	73
469.942	1	77
470.112	1	74
470.283	1	78
470.453	1	82
470.623	1	72
470.794	1	66
470.964	1	73
471.135	1	72
471.305	1	65
471.475	1	82
471.646	1	65
471.816	1	67
471.986	1	78
472.157	1	77
472.327	1	56
472.497	1	77
472.668	1	63
472.838	1	75
473.009	1	74
473.179	1	58
473.349	1	60
473.520	1	82
473.690	1	72
473.860	1	73
474.031	1	77
474.201	1	76
474.371	1	94
474.542	1	79
474.712	1	75
474.882	1	79
475.053	1	83
475.223	1	64
475.394	1	73
475.564	1	70
475.734	1	72
475.905	1	96
476.075	1	81
476.245	1	72
476.416	1	75
476.586	1	81
476.756	1	71
476.927	1	74
477.097	1	79
477.267	1	64
477.438	1	79
477.608	1	64
477.778	1	66
477.949	1	73
478.119	1	71
478.289	1	71
478.460	1	73
478.630	1	76
478.800	1	68
478.971	1	65
479.141	1	71
479.311	1	57
479.482	1	78
479.652	1	73
479.822	1	70
479.993	1	72
480.163	1	69
480.333	1	80
480.504	1	73
480.674	1	54
480.844	1	63
481.015	1	62
481.185	1	64
481.355	1	64
481.525	1	63
481.696	1	66
481.866	1	69
482.036	1	68
482.207	1	69
482.377	1	62
482.547	1	74
482.718	1	59
482.888	1	65
483.058	1	60
483.229	1	57
483.399	1	60
483.569	1	54
483.740	1	73
483.910	1	75
484.080	1	54
484.250	1	63
484.421	1	60
484.591	1	73
484.761	1	77
484.932	1	64
485.102	1	75
485.272	1	61
485.443	1	68
485.613	1	71
485.783	1	53
485.953	1	61
486.124	1	49
486.294	1	82
486.464	1	64
486.635	1	76
486.805	1	67
486.975	1	62
487.146	1	56
487.316	1	52
487.486	1	55
487.656	1	47
487.827	1	57
487.997	1	38
488.167	1	56
488.338	1	58
488.508	1	61
488.678	1	54
488.848	1	59
489.019	1	51
489.189	1	58
489.359	1	57
489.529	1	58
489.700	1	48
489.870	1	54
490.040	1	47
490.211	1	57
490.381	1	63
490.551	1	54
490.721	1	62
490.892	1	58
491.062	1	60
491.232	1	50
491.402	1	54
491.573	1	49
491.743	1	54
491.913	1	56
492.084	1	62
492.254	1	58
492.424	1	47
492.594	1	52
492.765	1	50
492.935	1	55
493.105	1	60
493.275	1	53
493.446	1	61
493.616	1	67
493.786	1	47
493.956	1	57
494.127	1	55
494.297	1	51
494.467	1	48
494.637	1	58
494.808	1	52
494.978	1	50
495.148	1	47
495.318	1	51
495.489	1	54
495.659	1	54
495.829	1	56
495.999	1	47
496.170	1	55
496.340	1	45
496.510	1	43
496.680	1	40
496.851	1	52
497.021	1	48
497.191	1	47
497.361	1	46
497.532	1	45
497.702	1	50
497.872	1	39
498.042	1	53
498.213	1	47
498.383	1	54
498.553	1	47
498.723	1	46
498.894	1	46
499.064	1	45
499.234	1	49
499.404	1	44
499.574	1	54
499.745	1	50
499.915	1	46
500.085	1	51
500.255	1	49
500.426	1	46
500.596	1	44
500.766	1	47
500.936	1	42
501.106	1	37
501.277	1	46
501.447	1	41
501.617	1	45
501.787	1	41
501.958	1	39
502.128	1	40
502.298	1	58
502.468	1	41
502.638	1	42
502.809	1	41
502.979	1	32
503.149	1	42
503.319	1	30
503.489	1	51
503.660	1	43
503.830	1	48
504.000	1	52
504.170	1	40
504.340	1	33
504.511	1	55
504.681	1	45
504.851	1	40
505.021	1	38
505.192	1	41
505.362	1	44
505.532	1	34
505.702	1	42
505.872	1	45
506.043	1	42
506.213	1	41
506.383	1	39
506.553	1	40
506.723	1	38
506.893	1	37
507.064	1	60
507.234	1	41
507.404	1	36
507.574	1	51
507.744	1	43
507.915	1	42
508.085	1	39
508.255	1	37
508.425	1	30
508.595	1	45
508.766	1	45
508.936	1	26
509.106	1	40
509.276	1	44
509.446	1	35
509.616	1	39
509.787	1	46
509.957	1	37
510.127	1	34
510.297	1	25
510.467	1	21
510.638	1	46
510.808	1	25
510.978	1	29
511.148	1	36
511.318	1	38
511.488	1	31
511.659	1	43
511.829	1	35
511.999	1	42
512.169	1	30
512.339	1	32
512.509	1	33
512.680	1	33
512.850	1	36
513.020	1	40
513.190	1	39
513.360	1	31
513.530	1	37
513.700	1	39
513.871	1	28
514.041	1	26
514.211	1	36
514.381	1	45
514.551	1	29
514.721	1	26
514.892	1	40
515.062	1	29
515.232	1	40
515.402	1	30
515.572	1	30
515.742	1	40
515.912	1	35
516.083	1	37
516.253	1	37
516.423	1	32
516.593	1	34
516.763	1	33
516.933	1	33
517.104	1	34
517.274	1	20
517.444	1	41
517.614	1	26
517.784	1	23
517.954	1	32
518.124	1	42
518.294	1	29
518.465	1	32
518.635	1	26
518.805	1	32
518.975	1	28
519.145	1	17
519.315	1	30
519.485	1	19
519.656	1	25
519.826	1	30
519.996	1	20
520.166	1	27
520.336	1	32
520.506	1	22
520.676	1	27
520.846	1	28
521.017	1	30
521.187	1	30
521.357	1	37
521.527	1	15
521.697	1	34
521.867	1	12
522.037	1	26
522.207	1	37
522.377	1	30
522.548	1	19
522.718	1	28
522.888	1	37
523.058	1	19
523.228	1	30
523.398	1	35
523.568	1	26
523.738	1	24
523.909	1	46
524.079	1	27
524.249	1	22
524.419	1	31
524.589	1	23
524.759	1	23
524.929	1	22
525.099	1	28
525.269	1	27
525.439	1	24
525.610	1	32
525.780	1	31
525.950	1	24
526.120	1	28
526.290	1	33
526.460	1	11
526.630	1	37
526.800	1	34
526.970	1	26
527.140	1	40
527.311	1	28
527.481	1	17
527.651	1	40
527.821	1	18
527.991	1	30
528.161	1	31
528.331	1	17
528.501	1	18
528.671	1	18
528.841	1	33
529.011	1	18
529.181	1	31
529.352	1	38
529.522	1	14
529.692	1	19
529.862	1	19
530.032	1	22
530.202	1	17
530.372	1	26
530.542	1	16
530.712	1	29
530.882	1	27
531.052	1	27
531.222	1	21
531.392	1	15
531.563	1	25
531.733	1	15
531.903	1	11
532.073	1	30
532.243	1	18
532.413	1	23
532.583	1	19
532.753	1	19
532.923	1	17
533.093	1	21
533.263	1	26
533.433	1	17
533.603	1	12
533.773	1	26
533.943	1	18
534.113	1	22
534.284	1	19
534.454	1	29
534.624	1	32
534.794	1	12
534.964	1	24
535.134	1	14
535.304	1	20
535.474	1	20
535.644	1	17
535.814	1	18
535.984	1	7
536.154	1	19
536.324	1	14
536.494	1	27
536.664	1	23
536.834	1	19
537.004	1	17
537.174	1	29
537.344	1	26
537.514	1	10
537.685	1	21
537.855	1	23
538.025	1	24
538.195	1	28
538.365	1	28
538.535	1	17
538.705	1	18
538.875	1	23
539.045	1	21
539.215	1	23
539.385	1	23
539.555	1	17
539.725	1	19
539.895	1	16
540.065	1	30
540.235	1	29
540.405	1	14
540.575	1	21
540.745	1	20
540.915	1	25
541.085	1	23
541.255	1	9
541.425	1	24
541.595	1	23
541.765	1	26
541.935	1	10
542.105	1	11
542.275	1	22
542.445	1	4
542.615	1	26
542.785	1	24
542.955	1	14
543.125	1	14
543.295	1	18
543.465	1	22
543.635	1	18
543.805	1	29
543.975	1	10
544.145	1	25
544.315	1	12
544.485	1	20
544.655	1	17
544.825	1	13
544.995	1	28
545.165	1	14
545.335	1	24
545.505	1	4
545.675	1	16
545.845	1	28
546.015	1	26
546.185	1	18
546.355	1	19
546.525	1	16
546.695	1	19
546.865	1	8
547.035	1	19
547.205	1	9
547.375	1	20
547.545	1	23
547.715	1	14
547.885	1	9
548.055	1	16
548.225	1	16
548.395	1	17
548.565	1	15
548.735	1	25
548.905	1	8
549.075	1	23
549.245	1	13
549.415	1	3
549.585	1	7
549.755	1	21
549.925	1	12
550.095	1	11
550.265	1	11
550.435	1	0
550.605	1	19
550.775	1	25
550.945	1	28
551.115	1	14
551.285	1	18
551.455	1	12
551.625	1	27
551.795	1	17
551.965	1	11
552.135	1	17
552.305	1	2
552.475	1	3
552.645	1	10
552.815	1	11
552.985	1	22
553.155	1	18
553.325	1	20
553.495	1	7
553.665	1	13
553.835	1	6
554.004	1	15
554.174	1	13
554.344	1	9
554.514	1	21
554.684	1	23
554.854	1	25
555.024	1	4
555.194	1	9
555.364	1	16
555.534	1	18
555.704	1	4
555.874	1	19
556.044	1	19
556.214	1	7
556.384	1	8
556.554	1	27
556.724	1	16
556.894	1	15
557.064	1	10
557.234	1	14
557.404	1	4
557.573	1	19
557.743	1	15
557.913	1	15
558.083	1	3
558.253	1	31
558.423	1	13
558.593	1	22
558.763	1	2
558.933	1	13
559.103	1	15
559.273	1	5
559.443	1	10
559.613	1	15
559.783	1	21
559.953	1	6
560.122	1	19
560.292	1	26
560.462	1	15
560.632	1	12
560.802	1	6
560.972	1	17
561.142	1	9
561.312	1	5
561.482	1	13
561.652	1	24
561.822	1	4
561.992	1	12
562.162	1	9
562.331	1	16
562.501	1	9
562.671	1	16
562.841	1	9
563.011	1	11
563.181	1	11
563.351	1	-1
563.521	1	14
563.691	1	7
563.861	1	11
564.031	1	14
564.201	1	24
564.370	1	3
564.540	1	10
564.710	1	11
564.880	1	14
565.050	1	18
565.220	1	4
565.390	1	13
565.560	1	18
565.730	1	12
565.900	1	10
566.069	1	17
566.239	1	8
566.409	1	13
566.579	1	16
566.749	1	16
566.919	1	21
567.089	1	8
567.259	1	11
567.429	1	9
567.599	1	12
567.768	1	14
567.938	1	15
568.108	1	18
568.278	1	12
568.448	1	9
568.618	1	6
568.788	1	6
568.958	1	11
569.128	1	11
569.297	1	14
569.467	1	8
569.637	1	19
569.807	1	19
569.977	1	11
570.147	1	9
570.317	1	0
570.487	1	16
570.656	1	22
570.826	1	5
570.996	1	16
571.166	1	24
571.336	1	10
571.506	1	18
571.676	1	19
571.846	1	15
572.015	1	11
572.185	1	10
572.355	1	13
572.525	1	8
572.695	1	8
572.865	1	1
573.035	1	14
573.205	1	11
573.374	1	6
573.544	1	3
573.714	1	18
573.884	1	15
574.054	1	10
574.224	1	5
574.394	1	12
574.563	1	1
574.733	1	7
574.903	1	5
575.073	1	12
575.243	1	0
575.413	1	12
575.583	1	10
575.752	1	14
575.922	1	10
576.092	1	7
576.262	1	9
576.432	1	8
576.602	1	4
576.772	1	15
576.941	1	7
577.111	1	12
577.281	1	-3
577.451	1	4
577.621	1	17
577.791	1	15
577.960	1	7
578.130	1	12
578.300	1	12
578.470	1	15
578.640	1	10
578.810	1	12
578.979	1	10
579.149	1	8
579.319	1	2
579.489	1	11
579.659	1	5
579.829	1	12
579.998	1	11
580.168	1	17
580.338	1	12
580.508	1	-2
580.678	1	7
580.848	1	5
581.017	1	15
581.187	1	10
581.357	1	12
581.527	1	20
581.697	1	18
581.867	1	9
582.036	1	8
582.206	1	3
582.376	1	20
582.546	1	2
582.716	1	3
582.885	1	5
583.055	1	16
583.225	1	3
583.395	1	16
583.565	1	-6
583.735	1	10
583.904	1	11
584.074	1	13
584.244	1	23
584.414	1	2
584.584	1	17
584.753	1	9
584.923	1	19
585.093	1	4
585.263	1	12
585.433	1	13
585.602	1	7
585.772	1	5
585.942	1	2
586.112	1	14
586.282	1	2
586.451	1	10
586.621	1	6
586.791	1	9
586.961	1	7
587.131	1	12
587.300	1	10
587.470	1	16
587.640	1	14
587.810	1	9
587.980	1	2
588.149	1	5
588.319	1	12
588.489	1	5
588.659	1	17
588.829	1	7
588.998	1	16
589.168	1	15
589.338	1	12
589.508	1	12
589.677	1	8
589.847	1	0
590.017	1	25
590.187	1	1
590.357	1	24
590.526	1	16
590.696	1	7
590.866	1	14
591.036	1	3
591.205	1	23
591.375	1	7
591.545	1	0
591.715	1	9
591.885	1	7
592.054	1	4
592.224	1	6
592.394	1	8
592.564	1	7
592.733	1	21
592.903	1	7
593.073	1	13
593.243	1	21
593.412	1	10
593.582	1	7
593.752	1	11
593.922	1	7
594.091	1	8
594.261	1	8
594.431	1	10
594.601	1	14
594.771	1	17
594.940	1	13
595.110	1	9
595.280	1	7
595.450	1	13
595.619	1	1
595.789	1	15
595.959	1	22
596.129	1	12
596.298	1	11
596.468	1	10
596.638	1	6
596.808	1	3
596.977	1	21
597.147	1	4
597.317	1	5
597.487	1	13
597.656	1	14
597.826	1	7
597.996	1	14
598.166	1	0
598.335	1	6
598.505	1	7
598.675	1	13
598.844	1	9
599.014	1	11
599.184	1	9
599.354	1	-3
599.523	1	18
599.693	1	10
599.863	1	18
600.033	1	10
600.202	1	12
600.372	1	14
600.542	1	26
600.712	1	8
600.881	1	9
601.051	1	15
601.221	1	16
601.390	1	10
601.560	1	19
601.730	1	10
601.900	1	10
602.069	1	22
602.239	1	3
602.409	1	-1
602.578	1	5
602.748	1	2
602.918	1	12
603.088	1	14
603.257	1	12
603.427	1	6
603.597	1	13
603.767	1	10
603.936	1	17
604.106	1	11
604.276	1	8
604.445	1	18
604.615	1	10
604.785	1	6
604.954	1	15
605.124	1	6
605.294	1	3
605.464	1	9
605.633	1	13
605.803	1	10
605.973	1	-4
606.142	1	11
606.312	1	18
606.482	1	13
606.652	1	17
606.821	1	9
606.991	1	8
607.161	1	10
607.330	1	25
607.500	1	8
607.670	1	-3
607.839	1	18
608.009	1	21
608.179	1	10
608.348	1	11
608.518	1	14
608.688	1	21
608.858	1	2
609.027	1	0
609.197	1	1
609.367	1	22
609.536	1	10
609.706	1	17
609.876	1	12
610.045	1	9
610.215	1	13
610.385	1	12
610.554	1	21
610.724	1	22
610.894	1	10
611.063	1	16
611.233	1	6
611.403	1	9
611.572	1	11
611.742	1	14
611.912	1	15
612.081	1	5
612.251	1	22
612.421	1	0
612.590	1	4
612.760	1	8
612.930	1	18
613.099	1	16
613.269	1	21
613.439	1	18
613.608	1	14
613.778	1	16
613.948	1	11
614.117	1	16
614.287	1	10
614.457	1	10
614.626	1	8
614.796	1	23
614.966	1	16
615.135	1	16
615.305	1	9
615.475	1	9
615.644	1	17
615.814	1	12
615.984	1	3
616.153	1	10
616.323	1	16
616.493	1	11
616.662	1	22
616.832	1	17
617.002	1	5
617.171	1	20
617.341	1	7
617.511	1	15
617.680	1	7
617.850	1	11
618.019	1	26
618.189	1	27
618.359	1	18
618.528	1	20
618.698	1	11
618.868	1	9
619.037	1	13
619.207	1	9
619.377	1	10
619.546	1	13
619.716	1	20
619.885	1	5
620.055	1	10
620.225	1	11
620.394	1	3
620.564	1	18
620.734	1	9
620.903	1	10
621.073	1	15
621.242	1	14
621.412	1	15
621.582	1	16
621.751	1	25
621.921	1	16
622.091	1	17
622.260	1	10
622.430	1	15
622.599	1	6
622.769	1	14
622.939	1	21
623.108	1	9
623.278	1	4
623.448	1	18
623.617	1	24
623.787	1	14
623.956	1	22
624.126	1	26
624.296	1	8
624.465	1	11
624.635	1	24
624.804	1	24
624.974	1	16
625.144	1	20
625.313	1	6
625.483	1	17
625.652	1	9
625.822	1	4
625.992	1	7
626.161	1	20
626.331	1	18
626.501	1	19
626.670	1	24
626.840	1	13
627.009	1	13
627.179	1	22
627.348	1	18
627.518	1	18
627.688	1	15
627.857	1	22
628.027	1	9
628.196	1	12
628.366	1	22
628.536	1	32
628.705	1	14
628.875	1	14
629.044	1	23
629.214	1	19
629.384	1	18
629.553	1	27
629.723	1	19
629.892	1	16
630.062	1	24
630.232	1	15
630.401	1	12
630.571	1	21
630.740	1	24
630.910	1	18
631.079	1	14
631.249	1	24
631.419	1	26
631.588	1	1
631.758	1	30
631.927	1	7
632.097	1	15
632.266	1	14
632.436	1	30
632.606	1	11
632.775	1	24
632.945	1	22
633.114	1	23
633.284	1	19
633.453	1	17
633.623	1	18
633.793	1	23
633.962	1	17
634.132	1	18
634.301	1	10
634.471	1	31
634.640	1	24
634.810	1	15
634.979	1	22
635.149	1	15
635.319	1	19
635.488	1	21
635.658	1	7
635.827	1	11
635.997	1	27
636.166	1	30
636.336	1	15
636.505	1	23
636.675	1	17
636.845	1	21
637.014	1	20
637.184	1	25
637.353	1	19
637.523	1	22
637.692	1	13
637.862	1	22
638.031	1	29
638.201	1	18
638.370	1	12
638.540	1	19
638.710	1	21
638.879	1	8
639.049	1	24
639.218	1	23
639.388	1	19
639.557	1	16
639.727	1	23
639.896	1	29
640.066	1	17
640.235	1	25
640.405	1	17
640.574	1	24
640.744	1	12
640.914	1	18
641.083	1	13
641.253	1	18
641.422	1	21
641.592	1	27
641.761	1	14
641.931	1	16
642.100	1	39
642.270	1	17
642.439	1	20
642.609	1	21
642.778	1	15
642.948	1	13
643.117	1	28
643.287	1	35
643.456	1	12
643.626	1	35
643.795	1	21
643.965	1	26
644.134	1	20
644.304	1	13
644.473	1	30
644.643	1	29
644.812	1	15
644.982	1	27
645.151	1	15
645.321	1	16
645.490	1	19
645.660	1	24
645.829	1	11
645.999	1	23
646.168	1	29
646.338	1	34
646.507	1	18
646.677	1	32
646.846	1	30
647.016	1	18
647.185	1	14
647.355	1	8
647.524	1	18
647.694	1	24
647.863	1	26
648.033	1	24
648.202	1	24
648.372	1	21
648.541	1	27
648.711	1	23
648.880	1	20
649.050	1	26
649.219	1	25
649.389	1	26
649.558	1	31
649.728	1	21
649.897	1	19
650.067	1	33
650.236	1	25
650.406	1	21
650.575	1	39
650.745	1	23
650.914	1	24
651.084	1	20
651.253	1	25
651.423	1	28
651.592	1	21
651.762	1	18
651.931	1	22
652.101	1	28
652.270	1	28
652.440	1	31
652.609	1	14
652.778	1	17
652.948	1	22
653.117	1	28
653.287	1	24
653.456	1	16
653.626	1	34
653.795	1	27
653.965	1	24
654.134	1	30
654.304	1	11
654.473	1	32
654.643	1	27
654.812	1	24
654.982	1	22
655.151	1	22
655.320	1	24
655.490	1	11
655.659	1	24
655.829	1	29
655.998	1	25
656.168	1	12
656.337	1	37
656.507	1	27
656.676	1	23
656.846	1	40
657.015	1	25
657.184	1	37
657.354	1	34
657.523	1	16
657.693	1	47
657.862	1	29
658.032	1	11
658.201	1	24
658.371	1	30
658.540	1	29
658.709	1	22
658.879	1	30
659.048	1	28
659.218	1	25
659.387	1	28
659.557	1	21
659.726	1	42
659.895	1	19
660.065	1	28
660.234	1	37
660.404	1	42
660.573	1	33
660.743	1	27
660.912	1	31
661.081	1	43
661.251	1	24
661.420	1	36
661.590	1	31
661.759	1	35
661.929	1	35
662.098	1	30
662.267	1	34
662.437	1	44
662.606	1	24
662.776	1	35
662.945	1	25
663.115	1	33
663.284	1	24
663.453	1	30
663.623	1	35
663.792	1	31
663.962	1	27
664.131	1	35
664.300	1	31
664.470	1	22
664.639	1	36
664.809	1	27
664.978	1	43
665.148	1	41
665.317	1	25
665.486	1	36
665.656	1	23
665.825	1	30
665.995	1	15
666.164	1	28
666.333	1	33
666.503	1	32
666.672	1	30
666.842	1	32
667.011	1	26
667.180	1	25
667.350	1	36
667.519	1	33
667.689	1	27
667.858	1	31
668.027	1	34
668.197	1	27
668.366	1	20
668.536	1	33
668.705	1	28
668.874	1	18
669.044	1	38
669.213	1	30
669.382	1	19
669.552	1	35
669.721	1	27
669.891	1	39
670.060	1	28
670.229	1	38
670.399	1	24
670.568	1	38
670.738	1	33
670.907	1	14
671.076	1	25
671.246	1	33
671.415	1	30
671.584	1	38
671.754	1	34
671.923	1	20
672.093	1	36
672.262	1	28
672.431	1	26
672.601	1	30
672.770	1	26
672.939	1	25
673.109	1	31
673.278	1	35
673.448	1	35
673.617	1	25
673.786	1	45
