325.333	1	7
325.504	1	5
325.675	1	4
325.846	1	12
326.017	1	-1
326.188	1	3
326.359	1	1
326.531	1	-11
326.702	1	10
326.873	1	18
327.044	1	-4
327.215	1	2
327.386	1	4
327.557	1	-3
327.728	1	-7
327.899	1	2
328.070	1	13
328.241	1	10
328.412	1	0
328.583	1	10
328.754	1	1
328.926	1	14
329.097	1	-4
329.268	1	17
329.439	1	2
329.610	1	14
329.781	1	-6
329.952	1	11
330.123	1	9
330.294	1	4
330.465	1	13
330.636	1	13
330.807	1	1
330.978	1	8
331.149	1	4
331.320	1	0
331.492	1	7
331.663	1	2
331.834	1	16
332.005	1	1
332.176	1	24
332.347	1	9
332.518	1	-3
332.689	1	8
332.860	1	-3
333.031	1	21
333.202	1	4
333.373	1	2
333.544	1	11
333.715	1	12
333.886	1	5
334.057	1	2
334.228	1	-5
334.399	1	2
334.570	1	9
334.741	1	1
334.912	1	3
335.084	1	27
335.255	1	4
335.426	1	1
335.597	1	-4
335.768	1	0
335.939	1	9
336.110	1	3
336.281	1	3
336.452	1	1
336.623	1	6
336.794	1	22
336.965	1	0
337.136	1	6
337.307	1	-3
337.478	1	5
337.649	1	2
337.820	1	4
337.991	1	4
338.162	1	1
338.333	1	7
338.504	1	10
338.675	1	13
338.846	1	5
339.017	1	-5
339.188	1	-2
339.359	1	-5
339.530	1	15
339.701	1	8
339.872	1	14
340.043	1	-5
340.214	1	6
340.385	1	15
340.556	1	-12
340.727	1	11
340.898	1	18
341.069	1	8
341.240	1	1
341.411	1	1
341.582	1	9
341.753	1	-10
341.924	1	2
342.095	1	4
342.266	1	6
342.437	1	9
342.608	1	1
342.779	1	5
342.950	1	0
343.121	1	7
343.292	1	4
343.463	1	12
343.634	1	3
343.805	1	12
343.976	1	3
344.147	1	1
344.318	1	9
344.489	1	4
344.660	1	9
344.831	1	1
345.002	1	-3
345.173	1	14
345.344	1	13
345.515	1	6
345.686	1	2
345.857	1	12
346.028	1	7
346.199	1	3
346.370	1	3
346.541	1	8
346.712	1	1
346.883	1	5
347.054	1	6
347.225	1	13
347.396	1	13
347.567	1	9
347.738	1	-8
347.909	1	14
348.080	1	5
348.251	1	11
348.422	1	17
348.593	1	5
348.764	1	9
348.935	1	7
349.106	1	15
349.277	1	8
349.448	1	17
349.619	1	9
349.790	1	7
349.961	1	19
350.132	1	13
350.303	1	11
350.474	1	18
350.645	1	11
350.816	1	14
350.987	1	14
351.157	1	9
351.328	1	24
351.499	1	21
351.670	1	12
351.841	1	14
352.012	1	17
352.183	1	17
352.354	1	19
352.525	1	7
352.696	1	18
352.867	1	4
353.038	1	16
353.209	1	16
353.380	1	9
353.551	1	7
353.722	1	1
353.893	1	1
354.064	1	26
354.235	1	14
354.406	1	5
354.576	1	15
354.747	1	7
354.918	1	12
355.089	1	17
355.260	1	18
355.431	1	12
355.602	1	12
355.773	1	24
355.944	1	10
356.115	1	11
356.286	1	10
356.457	1	17
356.628	1	13
356.799	1	13
356.970	1	25
357.141	1	7
357.311	1	8
357.482	1	8
357.653	1	13
357.824	1	16
357.995	1	10
358.166	1	0
358.337	1	6
358.508	1	14
358.679	1	16
358.850	1	8
359.021	1	9
359.192	1	23
359.363	1	19
359.533	1	3
359.704	1	7
359.875	1	18
360.046	1	12
360.217	1	5
360.388	1	7
360.559	1	7
360.730	1	20
360.901	1	22
361.072	1	24
361.243	1	15
361.414	1	19
361.584	1	10
361.755	1	7
361.926	1	8
362.097	1	9
362.268	1	11
362.439	1	6
362.610	1	22
362.781	1	7
362.952	1	15
363.123	1	18
363.293	1	8
363.464	1	15
363.635	1	20
363.806	1	9
363.977	1	9
364.148	1	18
364.319	1	17
364.490	1	11
364.661	1	13
364.832	1	15
365.002	1	15
365.173	1	17
365.344	1	24
365.515	1	9
365.686	1	9
365.857	1	11
366.028	1	16
366.199	1	7
366.370	1	16
366.540	1	5
366.711	1	1
366.882	1	12
367.053	1	4
367.224	1	24
367.395	1	15
367.566	1	11
367.737	1	19
367.908	1	17
368.078	1	16
368.249	1	20
368.420	1	4
368.591	1	9
368.762	1	17
368.933	1	16
369.104	1	5
369.274	1	20
369.445	1	19
369.616	1	20
369.787	1	13
369.958	1	20
370.129	1	8
370.300	1	23
370.471	1	16
370.641	1	15
370.812	1	18
370.983	1	13
371.154	1	7
371.325	1	16
371.496	1	14
371.667	1	12
371.837	1	11
372.008	1	16
372.179	1	15
372.350	1	27
372.521	1	10
372.692	1	12
372.863	1	22
373.033	1	4
373.204	1	7
373.375	1	16
373.546	1	18
373.717	1	13
373.888	1	31
374.059	1	24
374.229	1	29
374.400	1	14
374.571	1	25
374.742	1	22
374.913	1	14
375.084	1	10
375.254	1	19
375.425	1	24
375.596	1	20
375.767	1	9
375.938	1	15
376.109	1	18
376.279	1	6
376.450	1	22
376.621	1	20
376.792	1	16
376.963	1	2
377.134	1	16
377.304	1	18
377.475	1	22
377.646	1	14
377.817	1	7
377.988	1	15
378.159	1	13
378.329	1	20
378.500	1	14
378.671	1	24
378.842	1	3
379.013	1	7
379.184	1	11
379.354	1	28
379.525	1	15
379.696	1	21
379.867	1	16
380.038	1	17
380.209	1	18
380.379	1	11
380.550	1	6
380.721	1	27
380.892	1	20
381.063	1	14
381.233	1	15
381.404	1	12
381.575	1	18
381.746	1	18
381.917	1	17
382.087	1	28
382.258	1	16
382.429	1	15
382.600	1	19
382.771	1	8
382.941	1	5
383.112	1	16
383.283	1	26
383.454	1	18
383.625	1	19
383.795	1	15
383.966	1	20
384.137	1	21
384.308	1	19
384.479	1	25
384.649	1	15
384.820	1	21
384.991	1	13
385.162	1	19
385.333	1	16
385.503	1	7
385.674	1	9
385.845	1	31
386.016	1	13
386.187	1	13
386.357	1	22
386.528	1	21
386.699	1	15
386.870	1	36
387.041	1	22
387.211	1	29
387.382	1	25
387.553	1	28
387.724	1	7
387.894	1	15
388.065	1	15
388.236	1	25
388.407	1	16
388.578	1	9
388.748	1	19
388.919	1	27
389.090	1	24
389.261	1	23
389.431	1	15
389.602	1	14
389.773	1	25
389.944	1	22
390.114	1	18
390.285	1	22
390.456	1	23
390.627	1	21
390.798	1	28
390.968	1	12
391.139	1	24
391.310	1	17
391.481	1	20
391.651	1	22
391.822	1	5
391.993	1	20
392.164	1	6
392.334	1	23
392.505	1	20
392.676	1	25
392.847	1	25
393.017	1	32
393.188	1	16
393.359	1	11
393.530	1	19
393.700	1	18
393.871	1	8
394.042	1	24
394.213	1	12
394.383	1	27
394.554	1	17
394.725	1	27
394.896	1	12
395.066	1	28
395.237	1	25
395.408	1	28
395.579	1	11
395.749	1	20
395.920	1	22
396.091	1	28
396.262	1	22
396.432	1	10
396.603	1	23
396.774	1	34
396.945	1	21
397.115	1	21
397.286	1	22
397.457	1	23
397.627	1	22
397.798	1	26
397.969	1	14
398.140	1	24
398.310	1	15
398.481	1	25
398.652	1	17
398.823	1	10
398.993	1	17
399.164	1	18
399.335	1	24
399.505	1	18
399.676	1	16
399.847	1	25
400.018	1	18
400.188	1	12
400.359	1	21
400.530	1	14
400.700	1	28
400.871	1	21
401.042	1	18
401.213	1	21
401.383	1	20
401.554	1	31
401.725	1	30
401.895	1	11
402.066	1	20
402.237	1	17
402.408	1	32
402.578	1	24
402.749	1	16
402.920	1	26
403.090	1	18
403.261	1	19
403.432	1	20
403.603	1	33
403.773	1	35
403.944	1	22
404.115	1	32
404.285	1	25
404.456	1	19
404.627	1	18
404.797	1	17
404.968	1	9
405.139	1	7
405.310	1	22
405.480	1	10
405.651	1	21
405.822	1	19
405.992	1	14
406.163	1	20
406.334	1	11
406.504	1	18
406.675	1	33
406.846	1	29
407.016	1	28
407.187	1	27
407.358	1	13
407.528	1	15
407.699	1	18
407.870	1	18
408.041	1	28
408.211	1	31
408.382	1	12
408.553	1	13
408.723	1	33
408.894	1	23
409.065	1	15
409.235	1	26
409.406	1	19
409.577	1	17
409.747	1	33
409.918	1	20
410.089	1	21
410.259	1	26
410.430	1	26
410.601	1	25
410.771	1	23
410.942	1	28
411.113	1	17
411.283	1	25
411.454	1	29
411.625	1	29
411.795	1	29
411.966	1	16
412.137	1	35
412.307	1	7
412.478	1	31
412.649	1	29
412.819	1	19
412.990	1	26
413.161	1	23
413.331	1	11
413.502	1	31
413.672	1	21
413.843	1	21
414.014	1	14
414.184	1	30
414.355	1	16
414.526	1	33
414.696	1	28
414.867	1	29
415.038	1	16
415.208	1	18
415.379	1	25
415.550	1	28
415.720	1	24
415.891	1	28
416.062	1	20
416.232	1	24
416.403	1	14
416.573	1	27
416.744	1	15
416.915	1	27
417.085	1	22
417.256	1	25
417.427	1	24
417.597	1	11
417.768	1	9
417.939	1	25
418.109	1	18
418.280	1	25
418.450	1	21
418.621	1	2
418.792	1	22
418.962	1	22
419.133	1	36
419.304	1	18
419.474	1	19
419.645	1	25
419.815	1	19
419.986	1	17
420.157	1	25
420.327	1	25
420.498	1	41
420.669	1	20
420.839	1	28
421.010	1	31
421.180	1	30
421.351	1	19
421.522	1	24
421.692	1	27
421.863	1	28
422.033	1	27
422.204	1	31
422.375	1	23
422.545	1	28
422.716	1	20
422.886	1	24
423.057	1	28
423.228	1	23
423.398	1	15
423.569	1	28
423.740	1	20
423.910	1	12
424.081	1	14
424.251	1	19
424.422	1	17
424.593	1	23
424.763	1	13
424.934	1	26
425.104	1	23
425.275	1	24
425.445	1	13
425.616	1	21
425.787	1	15
425.957	1	23
426.128	1	29
426.298	1	24
426.469	1	12
426.640	1	21
426.810	1	15
426.981	1	24
427.151	1	20
427.322	1	22
427.493	1	20
427.663	1	26
427.834	1	10
428.004	1	21
428.175	1	24
428.345	1	15
428.516	1	11
428.687	1	23
428.857	1	15
429.028	1	17
429.198	1	18
429.369	1	17
429.540	1	21
429.710	1	16
429.881	1	23
430.051	1	24
430.222	1	20
430.392	1	14
430.563	1	32
430.734	1	30
430.904	1	29
431.075	1	23
431.245	1	14
431.416	1	19
431.586	1	19
431.757	1	22
431.927	1	21
432.098	1	17
432.269	1	14
432.439	1	16
432.610	1	23
432.780	1	23
432.951	1	12
433.121	1	26
433.292	1	28
433.462	1	27
433.633	1	27
433.804	1	24
433.974	1	23
434.145	1	32
434.315	1	26
434.486	1	20
434.656	1	22
434.827	1	27
434.997	1	10
435.168	1	27
435.339	1	36
435.509	1	17
435.680	1	18
435.850	1	25
436.021	1	21
436.191	1	20
436.362	1	25
436.532	1	25
436.703	1	25
436.873	1	26
437.044	1	12
437.214	1	20
437.385	1	21
437.556	1	10
437.726	1	36
437.897	1	22
438.067	1	19
438.238	1	28
438.408	1	31
438.579	1	26
438.749	1	17
438.920	1	10
439.090	1	19
439.261	1	11
439.431	1	22
439.602	1	18
439.772	1	20
439.943	1	30
440.113	1	23
440.284	1	28
440.455	1	20
440.625	1	20
440.796	1	12
440.966	1	12
441.137	1	16
441.307	1	14
441.478	1	20
441.648	1	14
441.819	1	22
441.989	1	25
442.160	1	22
442.330	1	16
442.501	1	21
442.671	1	23
442.842	1	14
443.012	1	13
443.183	1	17
443.353	1	10
443.524	1	20
443.694	1	28
443.865	1	16
444.035	1	24
444.206	1	7
444.376	1	11
444.547	1	27
444.717	1	20
444.888	1	18
445.058	1	32
445.229	1	21
445.399	1	12
445.570	1	14
445.740	1	18
445.911	1	17
446.081	1	6
446.252	1	32
446.422	1	14
446.593	1	16
446.763	1	19
446.934	1	25
447.104	1	26
447.275	1	16
447.445	1	16
447.616	1	26
447.786	1	19
447.957	1	19
448.127	1	22
448.298	1	19
448.468	1	16
448.639	1	12
448.809	1	24
448.979	1	14
449.150	1	15
449.320	1	18
449.491	1	19
449.661	1	12
449.832	1	15
450.002	1	18
450.173	1	18
450.343	1	15
450.514	1	10
450.684	1	13
450.855	1	9
451.025	1	13
451.196	1	14
451.366	1	24
451.537	1	4
451.707	1	7
451.878	1	14
452.048	1	26
452.218	1	29
452.389	1	18
452.559	1	16
452.730	1	15
452.900	1	29
453.071	1	4
453.241	1	21
453.412	1	13
453.582	1	15
453.753	1	14
453.923	1	15
454.093	1	8
454.264	1	22
454.434	1	14
454.605	1	18
454.775	1	11
454.946	1	15
455.116	1	15
455.287	1	10
455.457	1	5
455.628	1	15
455.798	1	13
455.968	1	20
456.139	1	22
456.309	1	15
456.480	1	13
456.650	1	11
456.821	1	8
456.991	1	16
457.161	1	13
457.332	1	16
457.502	1	7
457.673	1	26
457.843	1	20
458.014	1	21
458.184	1	12
458.355	1	12
458.525	1	10
458.695	1	13
458.866	1	28
459.036	1	17
459.207	1	10
459.377	1	4
459.548	1	21
459.718	1	12
459.888	1	11
460.059	1	21
460.229	1	12
460.400	1	26
460.570	1	19
460.740	1	11
460.911	1	15
461.081	1	20
461.252	1	13
461.422	1	8
461.593	1	15
461.763	1	18
461.933	1	21
462.104	1	11
462.274	1	17
462.445	1	10
462.615	1	10
462.785	1	8
462.956	1	16
463.126	1	16
463.297	1	9
463.467	1	11
463.638	1	13
463.808	1	7
463.978	1	4
464.149	1	15
464.319	1	11
464.490	1	20
464.660	1	3
464.830	1	13
465.001	1	11
465.171	1	11
465.342	1	14
465.512	1	5
465.682	1	18
465.853	1	13
466.023	1	18
466.194	1	13
466.364	1	15
466.534	1	14
466.705	1	18
466.875	1	11
467.045	1	-4
467.216	1	24
467.386	1	3
467.557	1	11
467.727	1	1
467.897	1	13
468.068	1	12
468.238	1	11
468.409	1	4
468.579	1	17
468.749	1	21
468.920	1	3
469.090	1	10
469.260	1	4
469.431	1	4
469.601	1	16
469.772	1	16
469.942	1	13
470.112	1	9
470.283	1	8
470.453	1	18
470.623	1	12
470.794	1	10
470.964	1	15
471.135	1	10
471.305	1	9
471.475	1	7
471.646	1	5
471.816	1	11
471.986	1	12
472.157	1	20
472.327	1	3
472.497	1	12
472.668	1	9
472.838	1	9
473.009	1	9
473.179	1	12
473.349	1	-3
473.520	1	7
473.690	1	19
473.860	1	8
474.031	1	10
474.201	1	12
474.371	1	14
474.542	1	10
474.712	1	5
474.882	1	14
475.053	1	19
475.223	1	7
475.394	1	21
475.564	1	16
475.734	1	10
475.905	1	25
476.075	1	12
476.245	1	16
476.416	1	18
476.586	1	16
476.756	1	6
476.927	1	18
477.097	1	9
477.267	1	4
477.438	1	12
477.608	1	1
477.778	1	18
477.949	1	15
478.119	1	18
478.289	1	12
478.460	1	18
478.630	1	11
478.800	1	13
478.971	1	13
479.141	1	10
479.311	1	-1
479.482	1	3
479.652	1	-3
479.822	1	5
479.993	1	12
480.163	1	19
480.333	1	6
480.504	1	18
480.674	1	18
480.844	1	4
481.015	1	13
481.185	1	-1
481.355	1	11
481.525	1	6
481.696	1	11
481.866	1	10
482.036	1	12
482.207	1	15
482.377	1	4
482.547	1	13
482.718	1	14
482.888	1	10
483.058	1	15
483.229	1	7
483.399	1	12
483.569	1	8
483.740	1	4
483.910	1	19
484.080	1	8
484.250	1	18
484.421	1	9
484.591	1	21
484.761	1	12
484.932	1	13
485.102	1	23
485.272	1	13
485.443	1	8
485.613	1	15
485.783	1	9
485.953	1	8
486.124	1	1
486.294	1	12
486.464	1	13
486.635	1	1
486.805	1	18
486.975	1	0
487.146	1	8
487.316	1	6
487.486	1	14
487.656	1	1
487.827	1	10
487.997	1	-4
488.167	1	4
488.338	1	21
488.508	1	9
488.678	1	11
488.848	1	24
489.019	1	5
489.189	1	15
489.359	1	8
489.529	1	14
489.700	1	10
489.870	1	22
490.040	1	8
490.211	1	-3
490.381	1	10
490.551	1	3
490.721	1	14
490.892	1	-1
491.062	1	12
491.232	1	4
491.402	1	2
491.573	1	7
491.743	1	4
491.913	1	2
492.084	1	13
492.254	1	1
492.424	1	5
492.594	1	11
492.765	1	2
492.935	1	5
493.105	1	11
493.275	1	13
493.446	1	18
493.616	1	18
493.786	1	8
493.956	1	4
494.127	1	2
494.297	1	-1
494.467	1	7
494.637	1	10
494.808	1	8
494.978	1	-1
495.148	1	10
495.318	1	5
495.489	1	11
495.659	1	8
495.829	1	8
495.999	1	-2
496.170	1	5
496.340	1	10
496.510	1	13
496.680	1	3
496.851	1	21
497.021	1	5
497.191	1	-2
497.361	1	7
497.532	1	3
497.702	1	9
497.872	1	-2
498.042	1	11
498.213	1	-2
498.383	1	9
498.553	1	2
498.723	1	7
498.894	1	7
499.064	1	7
499.234	1	15
499.404	1	16
499.574	1	10
499.745	1	9
499.915	1	4
500.085	1	8
500.255	1	14
500.426	1	8
500.596	1	16
500.766	1	4
500.936	1	13
501.106	1	9
501.277	1	12
501.447	1	0
501.617	1	6
501.787	1	-2
501.958	1	4
502.128	1	-2
502.298	1	16
502.468	1	3
502.638	1	8
502.809	1	13
502.979	1	2
503.149	1	2
503.319	1	1
503.489	1	6
503.660	1	7
503.830	1	9
504.000	1	17
504.170	1	-8
504.340	1	1
504.511	1	15
504.681	1	13
504.851	1	10
505.021	1	6
505.192	1	7
505.362	1	19
505.532	1	6
505.702	1	6
505.872	1	5
506.043	1	10
506.213	1	3
506.383	1	5
506.553	1	11
506.723	1	6
506.893	1	15
507.064	1	7
507.234	1	-3
507.404	1	7
507.574	1	2
507.744	1	5
507.915	1	5
508.085	1	21
508.255	1	10
508.425	1	7
508.595	1	5
508.766	1	5
508.936	1	-13
509.106	1	5
509.276	1	9
509.446	1	-10
509.616	1	4
509.787	1	9
509.957	1	16
510.127	1	3
510.297	1	7
510.467	1	4
510.638	1	0
510.808	1	-15
510.978	1	-1
511.148	1	14
511.318	1	4
511.488	1	-1
511.659	1	4
511.829	1	5
511.999	1	10
512.169	1	4
512.339	1	11
512.509	1	4
512.680	1	-7
512.850	1	3
513.020	1	12
513.190	1	8
513.360	1	7
513.530	1	-1
513.700	1	5
513.871	1	-8
514.041	1	1
514.211	1	15
514.381	1	-1
514.551	1	3
514.721	1	3
514.892	1	2
515.062	1	8
515.232	1	6
515.402	1	-8
515.572	1	-8
515.742	1	6
515.912	1	7
516.083	1	7
516.253	1	13
516.423	1	3
516.593	1	7
516.763	1	13
516.933	1	6
517.104	1	12
517.274	1	9
517.444	1	-7
517.614	1	-4
517.784	1	8
517.954	1	9
518.124	1	11
518.294	1	-2
518.465	1	2
518.635	1	4
518.805	1	-5
518.975	1	2
519.145	1	5
519.315	1	2
519.485	1	9
519.656	1	13
519.826	1	7
519.996	1	1
520.166	1	5
520.336	1	13
520.506	1	2
520.676	1	-11
520.846	1	10
521.017	1	11
521.187	1	-1
521.357	1	11
521.527	1	4
521.697	1	-1
521.867	1	3
522.037	1	14
522.207	1	4
522.377	1	-4
522.548	1	-4
522.718	1	3
522.888	1	11
523.058	1	5
523.228	1	11
523.398	1	10
523.568	1	11
523.738	1	6
523.909	1	11
524.079	1	10
524.249	1	1
524.419	1	-1
524.589	1	7
524.759	1	-9
524.929	1	4
525.099	1	5
525.269	1	7
525.439	1	6
525.610	1	18
525.780	1	2
525.950	1	3
526.120	1	-1
526.290	1	6
526.460	1	-4
526.630	1	16
526.800	1	-4
526.970	1	9
527.140	1	13
527.311	1	4
527.481	1	4
527.651	1	10
527.821	1	-4
527.991	1	12
528.161	1	13
528.331	1	0
528.501	1	5
528.671	1	2
528.841	1	1
529.011	1	2
529.181	1	11
529.352	1	3
529.522	1	-4
529.692	1	6
529.862	1	1
530.032	1	8
530.202	1	-3
530.372	1	2
530.542	1	7
530.712	1	6
530.882	1	7
531.052	1	10
531.222	1	1
531.392	1	-2
531.563	1	12
531.733	1	-6
531.903	1	6
532.073	1	11
532.243	1	1
532.413	1	5
532.583	1	10
532.753	1	4
532.923	1	-5
533.093	1	0
533.263	1	-1
533.433	1	10
533.603	1	6
533.773	1	12
533.943	1	7
534.113	1	2
534.284	1	2
534.454	1	4
534.624	1	10
534.794	1	0
534.964	1	4
535.134	1	3
535.304	1	5
535.474	1	8
535.644	1	-5
535.814	1	-1
535.984	1	0
536.154	1	-4
536.324	1	1
536.494	1	9
536.664	1	11
536.834	1	4
537.004	1	4
537.174	1	11
537.344	1	3
537.514	1	-3
537.685	1	2
537.855	1	8
538.025	1	7
538.195	1	3
538.365	1	11
538.535	1	8
538.705	1	1
538.875	1	6
539.045	1	2
539.215	1	9
539.385	1	-3
539.555	1	11
539.725	1	-2
539.895	1	-9
540.065	1	17
540.235	1	6
540.405	1	-6
540.575	1	-2
540.745	1	0
540.915	1	19
541.085	1	7
541.255	1	3
541.425	1	7
541.595	1	1
541.765	1	7
541.935	1	-4
542.105	1	-10
542.275	1	3
542.445	1	-6
542.615	1	2
542.785	1	11
542.955	1	3
543.125	1	-4
543.295	1	8
543.465	1	6
543.635	1	2
543.805	1	5
543.975	1	7
544.145	1	4
544.315	1	2
544.485	1	7
544.655	1	11
544.825	1	-6
544.995	1	8
545.165	1	-4
545.335	1	9
545.505	1	9
545.675	1	5
545.845	1	0
546.015	1	9
546.185	1	8
546.355	1	5
546.525	1	7
546.695	1	7
546.865	1	0
547.035	1	5
547.205	1	-8
547.375	1	1
547.545	1	16
547.715	1	-4
547.885	1	8
548.055	1	5
548.225	1	7
548.395	1	1
548.565	1	7
548.735	1	4
548.905	1	-11
549.075	1	5
549.245	1	-6
549.415	1	-2
549.585	1	7
549.755	1	6
549.925	1	-4
550.095	1	6
550.265	1	-6
550.435	1	1
550.605	1	-4
550.775	1	-1
550.945	1	8
551.115	1	9
551.285	1	2
551.455	1	6
551.625	1	8
551.795	1	3
551.965	1	-9
552.135	1	-1
552.305	1	1
552.475	1	-14
552.645	1	-4
552.815	1	-1
552.985	1	9
553.155	1	2
553.325	1	6
553.495	1	0
553.665	1	-1
553.835	1	2
554.004	1	6
554.174	1	-4
554.344	1	6
554.514	1	0
554.684	1	10
554.854	1	10
555.024	1	-10
555.194	1	-1
555.364	1	11
555.534	1	2
555.704	1	-1
555.874	1	6
556.044	1	4
556.214	1	-8
556.384	1	4
556.554	1	15
556.724	1	6
556.894	1	-1
557.064	1	6
557.234	1	-6
557.404	1	7
557.573	1	-4
557.743	1	2
557.913	1	0
558.083	1	-1
558.253	1	6
558.423	1	11
558.593	1	6
558.763	1	2
558.933	1	-9
559.103	1	7
559.273	1	0
559.443	1	9
559.613	1	9
559.783	1	-1
559.953	1	6
560.122	1	14
560.292	1	6
560.462	1	3
560.632	1	14
560.802	1	3
560.972	1	5
561.142	1	7
561.312	1	-2
561.482	1	7
561.652	1	5
561.822	1	4
561.992	1	1
562.162	1	-1
562.331	1	5
562.501	1	5
562.671	1	7
562.841	1	-5
563.011	1	7
563.181	1	-4
563.351	1	-5
563.521	1	1
563.691	1	-11
563.861	1	7
564.031	1	9
564.201	1	17
564.370	1	5
564.540	1	3
564.710	1	-5
564.880	1	0
565.050	1	4
565.220	1	2
565.390	1	5
565.560	1	7
565.730	1	-3
565.900	1	7
566.069	1	12
566.239	1	10
566.409	1	10
566.579	1	12
566.749	1	2
566.919	1	2
567.089	1	7
567.259	1	15
567.429	1	-3
567.599	1	-3
567.768	1	13
567.938	1	10
568.108	1	-5
568.278	1	-6
568.448	1	-8
568.618	1	-6
568.788	1	8
568.958	1	4
569.128	1	4
569.297	1	7
569.467	1	-3
569.637	1	3
569.807	1	8
569.977	1	7
570.147	1	11
570.317	1	-5
570.487	1	5
570.656	1	8
570.826	1	-10
570.996	1	-2
571.166	1	10
571.336	1	-3
571.506	1	8
571.676	1	3
571.846	1	8
572.015	1	2
572.185	1	1
572.355	1	3
572.525	1	5
572.695	1	5
572.865	1	-12
573.035	1	1
573.205	1	11
573.374	1	-13
573.544	1	2
573.714	1	6
573.884	1	4
574.054	1	5
574.224	1	7
574.394	1	1
574.563	1	-4
574.733	1	6
574.903	1	0
575.073	1	3
575.243	1	-3
575.413	1	11
575.583	1	-8
575.752	1	11
575.922	1	6
576.092	1	1
576.262	1	7
576.432	1	-5
576.602	1	5
576.772	1	17
576.941	1	-5
577.111	1	-4
577.281	1	-8
577.451	1	-9
577.621	1	14
577.791	1	6
577.960	1	-7
578.130	1	7
578.300	1	6
578.470	1	18
578.640	1	1
578.810	1	6
578.979	1	8
579.149	1	-11
579.319	1	-6
579.489	1	7
579.659	1	-7
579.829	1	0
579.998	1	8
580.168	1	6
580.338	1	11
580.508	1	7
580.678	1	-2
580.848	1	1
581.017	1	8
581.187	1	2
581.357	1	-6
581.527	1	2
581.697	1	11
581.867	1	8
582.036	1	8
582.206	1	1
582.376	1	13
582.546	1	-2
582.716	1	-6
582.885	1	0
583.055	1	-2
583.225	1	-5
583.395	1	6
583.565	1	2
583.735	1	4
583.904	1	3
584.074	1	5
584.244	1	1
584.414	1	-3
584.584	1	7
584.753	1	-11
584.923	1	6
585.093	1	8
585.263	1	7
585.433	1	12
585.602	1	-3
585.772	1	-5
585.942	1	-1
586.112	1	0
586.282	1	-5
586.451	1	0
586.621	1	-4
586.791	1	9
586.961	1	4
587.131	1	6
587.300	1	-8
587.470	1	16
587.640	1	13
587.810	1	0
587.980	1	-8
588.149	1	2
588.319	1	-5
588.489	1	-2
588.659	1	2
588.829	1	3
588.998	1	23
589.168	1	10
589.338	1	1
589.508	1	2
589.677	1	-11
589.847	1	-4
590.017	1	22
590.187	1	0
590.357	1	16
590.526	1	3
590.696	1	7
590.866	1	2
591.036	1	-7
591.205	1	16
591.375	1	-10
591.545	1	2
591.715	1	7
591.885	1	-1
592.054	1	4
592.224	1	8
592.394	1	3
592.564	1	8
592.733	1	15
592.903	1	3
593.073	1	5
593.243	1	13
593.412	1	15
593.582	1	-8
593.752	1	-1
593.922	1	3
594.091	1	0
594.261	1	4
594.431	1	13
594.601	1	9
594.771	1	5
594.940	1	-2
595.110	1	0
595.280	1	2
595.450	1	-1
595.619	1	-3
595.789	1	5
595.959	1	14
596.129	1	-1
596.298	1	0
596.468	1	3
596.638	1	9
596.808	1	7
596.977	1	6
597.147	1	7
597.317	1	1
597.487	1	3
597.656	1	-8
597.826	1	11
597.996	1	5
598.166	1	6
598.335	1	0
598.505	1	2
598.675	1	-3
598.844	1	9
599.014	1	-4
599.184	1	7
599.354	1	-8
599.523	1	12
599.693	1	-4
599.863	1	11
600.033	1	10
600.202	1	1
600.372	1	4
600.542	1	11
600.712	1	-6
600.881	1	0
601.051	1	7
601.221	1	8
601.390	1	3
601.560	1	15
601.730	1	6
601.900	1	5
602.069	1	6
602.239	1	-4
602.409	1	-9
602.578	1	4
602.748	1	-1
602.918	1	11
603.088	1	-1
603.257	1	2
603.427	1	-7
603.597	1	5
603.767	1	4
603.936	1	3
604.106	1	13
604.276	1	0
604.445	1	6
604.615	1	-2
604.785	1	2
604.954	1	1
605.124	1	4
605.294	1	3
605.464	1	-3
605.633	1	-3
605.803	1	1
605.973	1	-4
606.142	1	-3
606.312	1	16
606.482	1	6
606.652	1	11
606.821	1	2
606.991	1	5
607.161	1	-5
607.330	1	10
607.500	1	7
607.670	1	-13
607.839	1	12
608.009	1	12
608.179	1	7
608.348	1	2
608.518	1	5
608.688	1	15
608.858	1	-4
609.027	1	-3
609.197	1	1
609.367	1	12
609.536	1	6
609.706	1	4
609.876	1	5
610.045	1	4
610.215	1	6
610.385	1	-3
610.554	1	10
610.724	1	5
610.894	1	9
611.063	1	1
611.233	1	-2
611.403	1	-2
611.572	1	2
611.742	1	1
611.912	1	6
612.081	1	-5
612.251	1	12
612.421	1	0
612.590	1	-1
612.760	1	4
612.930	1	1
613.099	1	1
613.269	1	6
613.439	1	3
613.608	1	-4
613.778	1	3
613.948	1	5
614.117	1	6
614.287	1	14
614.457	1	2
614.626	1	0
614.796	1	0
614.966	1	-5
615.135	1	1
615.305	1	8
615.475	1	12
615.644	1	8
615.814	1	9
615.984	1	-3
616.153	1	3
616.323	1	2
616.493	1	2
616.662	1	5
616.832	1	4
617.002	1	0
617.171	1	-4
617.341	1	1
617.511	1	4
617.680	1	5
617.850	1	5
618.019	1	14
618.189	1	11
618.359	1	0
618.528	1	-2
618.698	1	5
618.868	1	9
619.037	1	-1
619.207	1	-3
619.377	1	-3
619.546	1	11
619.716	1	5
619.885	1	4
620.055	1	-7
620.225	1	2
620.394	1	3
620.564	1	21
620.734	1	10
620.903	1	-2
621.073	1	13
621.242	1	8
621.412	1	-2
621.582	1	4
621.751	1	9
621.921	1	6
622.091	1	4
622.260	1	-2
622.430	1	10
622.599	1	9
622.769	1	4
622.939	1	4
623.108	1	6
623.278	1	1
623.448	1	5
623.617	1	2
623.787	1	5
623.956	1	15
624.126	1	2
624.296	1	-3
624.465	1	5
624.635	1	7
624.804	1	0
624.974	1	12
625.144	1	11
625.313	1	-1
625.483	1	-4
625.652	1	-2
625.822	1	-1
625.992	1	2
626.161	1	11
626.331	1	-3
626.501	1	3
626.670	1	3
626.840	1	-3
627.009	1	-3
627.179	1	2
627.348	1	11
627.518	1	1
627.688	1	3
627.857	1	13
628.027	1	2
628.196	1	-4
628.366	1	13
628.536	1	0
628.705	1	-1
628.875	1	-2
629.044	1	8
629.214	1	9
629.384	1	5
629.553	1	9
629.723	1	6
629.892	1	4
630.062	1	12
630.232	1	-1
630.401	1	11
630.571	1	2
630.740	1	6
630.910	1	11
631.079	1	12
631.249	1	3
631.419	1	5
631.588	1	-9
631.758	1	15
631.927	1	1
632.097	1	-7
632.266	1	5
632.436	1	6
632.606	1	-5
632.775	1	15
632.945	1	4
633.114	1	11
633.284	1	12
633.453	1	9
633.623	1	-2
633.793	1	5
633.962	1	2
634.132	1	14
634.301	1	4
634.471	1	12
634.640	1	3
634.810	1	2
634.979	1	0
635.149	1	10
635.319	1	-3
635.488	1	2
635.658	1	5
635.827	1	-5
635.997	1	4
636.166	1	4
636.336	1	4
636.505	1	15
636.675	1	0
636.845	1	0
637.014	1	7
637.184	1	11
637.353	1	0
637.523	1	2
637.692	1	5
637.862	1	10
638.031	1	7
638.201	1	7
638.370	1	-1
638.540	1	4
638.710	1	4
638.879	1	-3
639.049	1	-2
639.218	1	10
639.388	1	1
639.557	1	4
639.727	1	3
639.896	1	5
640.066	1	1
640.235	1	7
640.405	1	0
640.574	1	5
640.744	1	-1
640.914	1	-5
641.083	1	1
641.253	1	0
641.422	1	2
641.592	1	10
641.761	1	3
641.931	1	5
642.100	1	20
642.270	1	-7
642.439	1	5
642.609	1	8
642.778	1	2
642.948	1	-7
643.117	1	8
643.287	1	7
643.456	1	-6
643.626	1	17
643.795	1	5
643.965	1	6
644.134	1	9
644.304	1	4
644.473	1	12
644.643	1	13
644.812	1	3
644.982	1	3
645.151	1	7
645.321	1	-3
645.490	1	19
645.660	1	5
645.829	1	-5
645.999	1	4
646.168	1	9
646.338	1	17
646.507	1	2
646.677	1	5
646.846	1	-2
647.016	1	-9
647.185	1	14
647.355	1	-14
647.524	1	14
647.694	1	9
647.863	1	2
648.033	1	0
648.202	1	9
648.372	1	-2
648.541	1	2
648.711	1	5
648.880	1	2
649.050	1	1
649.219	1	18
649.389	1	13
649.558	1	8
649.728	1	4
649.897	1	-1
650.067	1	10
650.236	1	6
650.406	1	4
650.575	1	12
650.745	1	14
650.914	1	4
651.084	1	5
651.253	1	10
651.423	1	4
651.592	1	3
651.762	1	-6
651.931	1	19
652.101	1	12
652.270	1	10
652.440	1	11
652.609	1	2
652.778	1	0
652.948	1	8
653.117	1	3
653.287	1	4
653.456	1	7
653.626	1	21
653.795	1	8
653.965	1	6
654.134	1	10
654.304	1	-4
654.473	1	5
654.643	1	9
654.812	1	7
654.982	1	12
655.151	1	2
655.320	1	8
655.490	1	-1
655.659	1	10
655.829	1	3
655.998	1	2
656.168	1	7
656.337	1	6
656.507	1	9
656.676	1	4
656.846	1	7
657.015	1	5
657.184	1	12
657.354	1	13
657.523	1	7
657.693	1	5
657.862	1	13
658.032	1	11
658.201	1	10
658.371	1	10
658.540	1	-3
658.709	1	3
658.879	1	14
659.048	1	6
659.218	1	2
659.387	1	7
659.557	1	9
659.726	1	9
659.895	1	-7
660.065	1	-4
660.234	1	5
660.404	1	9
660.573	1	1
660.743	1	0
660.912	1	8
661.081	1	13
661.251	1	-8
661.420	1	9
661.590	1	7
661.759	1	8
661.929	1	1
662.098	1	12
662.267	1	-1
662.437	1	0
662.606	1	6
662.776	1	11
662.945	1	2
663.115	1	1
663.284	1	-7
663.453	1	4
663.623	1	8
663.792	1	11
663.962	1	4
664.131	1	7
664.300	1	7
664.470	1	-2
664.639	1	3
664.809	1	7
664.978	1	16
665.148	1	4
665.317	1	0
665.486	1	9
665.656	1	4
665.825	1	8
665.995	1	4
666.164	1	7
666.333	1	11
666.503	1	7
666.672	1	-5
666.842	1	0
667.011	1	-3
667.180	1	15
667.350	1	12
667.519	1	7
667.689	1	1
667.858	1	7
668.027	1	12
668.197	1	10
668.366	1	-4
668.536	1	13
668.705	1	1
668.874	1	13
669.044	1	3
669.213	1	11
669.382	1	-7
669.552	1	12
669.721	1	7
669.891	1	24
670.060	1	13
670.229	1	22
670.399	1	12
670.568	1	8
670.738	1	11
670.907	1	1
671.076	1	-3
671.246	1	6
671.415	1	6
671.584	1	3
671.754	1	-1
671.923	1	5
672.093	1	11
672.262	1	5
672.431	1	2
672.601	1	-1
672.770	1	-12
672.939	1	11
673.109	1	1
673.278	1	2
673.448	1	3
673.617	1	7
673.786	1	11
