325.333	1	11
325.504	1	2
325.675	1	11
325.846	1	4
326.017	1	-5
326.188	1	10
326.359	1	-5
326.531	1	-7
326.702	1	-5
326.873	1	7
327.044	1	6
327.215	1	3
327.386	1	6
327.557	1	-1
327.728	1	2
327.899	1	9
328.070	1	15
328.241	1	9
328.412	1	-8
328.583	1	6
328.754	1	-2
328.926	1	10
329.097	1	-5
329.268	1	12
329.439	1	5
329.610	1	11
329.781	1	-2
329.952	1	4
330.123	1	8
330.294	1	3
330.465	1	6
330.636	1	-3
330.807	1	-1
330.978	1	2
331.149	1	5
331.320	1	7
331.492	1	10
331.663	1	3
331.834	1	8
332.005	1	9
332.176	1	22
332.347	1	2
332.518	1	-8
332.689	1	9
332.860	1	7
333.031	1	11
333.202	1	4
333.373	1	2
333.544	1	1
333.715	1	16
333.886	1	1
334.057	1	6
334.228	1	-5
334.399	1	4
334.570	1	9
334.741	1	-9
334.912	1	13
335.084	1	23
335.255	1	14
335.426	1	4
335.597	1	4
335.768	1	0
335.939	1	7
336.110	1	7
336.281	1	1
336.452	1	5
336.623	1	-6
336.794	1	8
336.965	1	6
337.136	1	8
337.307	1	5
337.478	1	4
337.649	1	8
337.820	1	1
337.991	1	2
338.162	1	1
338.333	1	2
338.504	1	12
338.675	1	11
338.846	1	5
339.017	1	-4
339.188	1	1
339.359	1	-4
339.530	1	14
339.701	1	7
339.872	1	20
340.043	1	5
340.214	1	7
340.385	1	9
340.556	1	-7
340.727	1	8
340.898	1	20
341.069	1	12
341.240	1	6
341.411	1	5
341.582	1	10
341.753	1	8
341.924	1	3
342.095	1	6
342.266	1	5
342.437	1	13
342.608	1	-4
342.779	1	9
342.950	1	9
343.121	1	13
343.292	1	1
343.463	1	11
343.634	1	14
343.805	1	21
343.976	1	7
344.147	1	15
344.318	1	-1
344.489	1	2
344.660	1	12
344.831	1	12
345.002	1	-1
345.173	1	18
345.344	1	2
345.515	1	15
345.686	1	3
345.857	1	13
346.028	1	14
346.199	1	-1
346.370	1	9
346.541	1	11
346.712	1	1
346.883	1	9
347.054	1	10
347.225	1	14
347.396	1	4
347.567	1	-1
347.738	1	4
347.909	1	19
348.080	1	6
348.251	1	11
348.422	1	13
348.593	1	7
348.764	1	3
348.935	1	13
349.106	1	-1
349.277	1	8
349.448	1	16
349.619	1	-1
349.790	1	4
349.961	1	11
350.132	1	19
350.303	1	8
350.474	1	29
350.645	1	13
350.816	1	11
350.987	1	19
351.157	1	4
351.328	1	11
351.499	1	22
351.670	1	-4
351.841	1	20
352.012	1	23
352.183	1	14
352.354	1	22
352.525	1	15
352.696	1	21
352.867	1	11
353.038	1	18
353.209	1	18
353.380	1	11
353.551	1	0
353.722	1	15
353.893	1	13
354.064	1	18
354.235	1	19
354.406	1	0
354.576	1	12
354.747	1	9
354.918	1	12
355.089	1	7
355.260	1	14
355.431	1	12
355.602	1	11
355.773	1	16
355.944	1	11
356.115	1	11
356.286	1	20
356.457	1	18
356.628	1	12
356.799	1	17
356.970	1	17
357.141	1	15
357.311	1	6
357.482	1	18
357.653	1	12
357.824	1	20
357.995	1	12
358.166	1	4
358.337	1	10
358.508	1	15
358.679	1	9
358.850	1	18
359.021	1	4
359.192	1	14
359.363	1	16
359.533	1	8
359.704	1	7
359.875	1	12
360.046	1	15
360.217	1	10
360.388	1	16
360.559	1	19
360.730	1	17
360.901	1	9
361.072	1	25
361.243	1	25
361.414	1	6
361.584	1	3
361.755	1	19
361.926	1	16
362.097	1	11
362.268	1	11
362.439	1	18
362.610	1	18
362.781	1	6
362.952	1	2
363.123	1	18
363.293	1	2
363.464	1	18
363.635	1	17
363.806	1	11
363.977	1	14
364.148	1	5
364.319	1	17
364.490	1	15
364.661	1	22
364.832	1	20
365.002	1	10
365.173	1	23
365.344	1	25
365.515	1	13
365.686	1	6
365.857	1	14
366.028	1	24
366.199	1	14
366.370	1	10
366.540	1	5
366.711	1	4
366.882	1	11
367.053	1	12
367.224	1	23
367.395	1	15
367.566	1	10
367.737	1	13
367.908	1	32
368.078	1	15
368.249	1	28
368.420	1	11
368.591	1	16
368.762	1	11
368.933	1	11
369.104	1	5
369.274	1	17
369.445	1	14
369.616	1	26
369.787	1	22
369.958	1	22
370.129	1	11
370.300	1	18
370.471	1	18
370.641	1	16
370.812	1	11
370.983	1	19
371.154	1	12
371.325	1	18
371.496	1	17
371.667	1	19
371.837	1	8
372.008	1	18
372.179	1	-1
372.350	1	20
372.521	1	18
372.692	1	22
372.863	1	18
373.033	1	11
373.204	1	9
373.375	1	12
373.546	1	22
373.717	1	12
373.888	1	23
374.059	1	15
374.229	1	22
374.400	1	19
374.571	1	16
374.742	1	28
374.913	1	23
375.084	1	14
375.254	1	21
375.425	1	20
375.596	1	16
375.767	1	18
375.938	1	18
376.109	1	14
376.279	1	9
376.450	1	11
376.621	1	14
376.792	1	10
376.963	1	20
377.134	1	22
377.304	1	20
377.475	1	8
377.646	1	20
377.817	1	4
377.988	1	16
378.159	1	11
378.329	1	13
378.500	1	15
378.671	1	24
378.842	1	18
379.013	1	12
379.184	1	15
379.354	1	18
379.525	1	14
379.696	1	21
379.867	1	20
380.038	1	13
380.209	1	15
380.379	1	14
380.550	1	7
380.721	1	17
380.892	1	25
381.063	1	20
381.233	1	20
381.404	1	14
381.575	1	20
381.746	1	19
381.917	1	19
382.087	1	12
382.258	1	8
382.429	1	20
382.600	1	25
382.771	1	13
382.941	1	21
383.112	1	25
383.283	1	34
383.454	1	17
383.625	1	10
383.795	1	23
383.966	1	9
384.137	1	20
384.308	1	19
384.479	1	23
384.649	1	21
384.820	1	17
384.991	1	13
385.162	1	26
385.333	1	19
385.503	1	20
385.674	1	21
385.845	1	29
386.016	1	16
386.187	1	27
386.357	1	19
386.528	1	25
386.699	1	11
386.870	1	26
387.041	1	27
387.211	1	21
387.382	1	21
387.553	1	24
387.724	1	17
387.894	1	15
388.065	1	19
388.236	1	29
388.407	1	21
388.578	1	14
388.748	1	12
388.919	1	33
389.090	1	19
389.261	1	10
389.431	1	23
389.602	1	30
389.773	1	13
389.944	1	13
390.114	1	18
390.285	1	25
390.456	1	21
390.627	1	23
390.798	1	28
390.968	1	24
391.139	1	21
391.310	1	19
391.481	1	27
391.651	1	26
391.822	1	8
391.993	1	24
392.164	1	16
392.334	1	24
392.505	1	16
392.676	1	26
392.847	1	15
393.017	1	24
393.188	1	23
393.359	1	14
393.530	1	20
393.700	1	17
393.871	1	16
394.042	1	20
394.213	1	21
394.383	1	14
394.554	1	19
394.725	1	27
394.896	1	16
395.066	1	29
395.237	1	22
395.408	1	22
395.579	1	12
395.749	1	32
395.920	1	22
396.091	1	27
396.262	1	27
396.432	1	13
396.603	1	26
396.774	1	37
396.945	1	29
397.115	1	20
397.286	1	25
397.457	1	25
397.627	1	24
397.798	1	22
397.969	1	14
398.140	1	20
398.310	1	17
398.481	1	27
398.652	1	20
398.823	1	21
398.993	1	17
399.164	1	24
399.335	1	26
399.505	1	36
399.676	1	15
399.847	1	30
400.018	1	21
400.188	1	11
400.359	1	27
400.530	1	14
400.700	1	20
400.871	1	19
401.042	1	28
401.213	1	27
401.383	1	23
401.554	1	39
401.725	1	25
401.895	1	20
402.066	1	20
402.237	1	25
402.408	1	24
402.578	1	25
402.749	1	24
402.920	1	30
403.090	1	23
403.261	1	19
403.432	1	23
403.603	1	26
403.773	1	36
403.944	1	33
404.115	1	40
404.285	1	25
404.456	1	19
404.627	1	25
404.797	1	8
404.968	1	13
405.139	1	19
405.310	1	36
405.480	1	26
405.651	1	24
405.822	1	23
405.992	1	16
406.163	1	24
406.334	1	5
406.504	1	20
406.675	1	23
406.846	1	29
407.016	1	26
407.187	1	30
407.358	1	20
407.528	1	18
407.699	1	10
407.870	1	19
408.041	1	22
408.211	1	30
408.382	1	4
408.553	1	22
408.723	1	22
408.894	1	26
409.065	1	24
409.235	1	20
409.406	1	28
409.577	1	12
409.747	1	30
409.918	1	13
410.089	1	19
410.259	1	25
410.430	1	22
410.601	1	27
410.771	1	14
410.942	1	29
411.113	1	31
411.283	1	32
411.454	1	23
411.625	1	22
411.795	1	29
411.966	1	22
412.137	1	13
412.307	1	18
412.478	1	27
412.649	1	25
412.819	1	20
412.990	1	20
413.161	1	21
413.331	1	21
413.502	1	27
413.672	1	27
413.843	1	24
414.014	1	20
414.184	1	22
414.355	1	24
414.526	1	31
414.696	1	35
414.867	1	22
415.038	1	6
415.208	1	18
415.379	1	18
415.550	1	28
415.720	1	24
415.891	1	22
416.062	1	32
416.232	1	28
416.403	1	28
416.573	1	35
416.744	1	22
416.915	1	20
417.085	1	35
417.256	1	11
417.427	1	24
417.597	1	29
417.768	1	9
417.939	1	26
418.109	1	27
418.280	1	37
418.450	1	14
418.621	1	12
418.792	1	33
418.962	1	31
419.133	1	29
419.304	1	22
419.474	1	17
419.645	1	25
419.815	1	21
419.986	1	36
420.157	1	20
420.327	1	24
420.498	1	40
420.669	1	18
420.839	1	27
421.010	1	33
421.180	1	29
421.351	1	21
421.522	1	24
421.692	1	29
421.863	1	30
422.033	1	30
422.204	1	27
422.375	1	20
422.545	1	34
422.716	1	30
422.886	1	20
423.057	1	22
423.228	1	27
423.398	1	19
423.569	1	28
423.740	1	13
423.910	1	17
424.081	1	21
424.251	1	12
424.422	1	24
424.593	1	22
424.763	1	24
424.934	1	24
425.104	1	24
425.275	1	13
425.445	1	20
425.616	1	21
425.787	1	19
425.957	1	31
426.128	1	27
426.298	1	17
426.469	1	20
426.640	1	26
426.810	1	28
426.981	1	19
427.151	1	16
427.322	1	19
427.493	1	28
427.663	1	26
427.834	1	23
428.004	1	23
428.175	1	35
428.345	1	24
428.516	1	25
428.687	1	24
428.857	1	20
429.028	1	32
429.198	1	35
429.369	1	28
429.540	1	26
429.710	1	21
429.881	1	26
430.051	1	23
430.222	1	8
430.392	1	24
430.563	1	25
430.734	1	26
430.904	1	36
431.075	1	26
431.245	1	13
431.416	1	29
431.586	1	17
431.757	1	19
431.927	1	12
432.098	1	26
432.269	1	24
432.439	1	24
432.610	1	33
432.780	1	24
432.951	1	23
433.121	1	23
433.292	1	24
433.462	1	24
433.633	1	25
433.804	1	18
433.974	1	22
434.145	1	39
434.315	1	19
434.486	1	16
434.656	1	28
434.827	1	16
434.997	1	17
435.168	1	27
435.339	1	24
435.509	1	19
435.680	1	24
435.850	1	21
436.021	1	17
436.191	1	25
436.362	1	30
436.532	1	17
436.703	1	16
436.873	1	23
437.044	1	10
437.214	1	11
437.385	1	23
437.556	1	25
437.726	1	34
437.897	1	30
438.067	1	18
438.238	1	14
438.408	1	15
438.579	1	11
438.749	1	7
438.920	1	9
439.090	1	26
439.261	1	10
439.431	1	16
439.602	1	19
439.772	1	23
439.943	1	33
440.113	1	24
440.284	1	23
440.455	1	14
440.625	1	13
440.796	1	12
440.966	1	19
441.137	1	10
441.307	1	15
441.478	1	28
441.648	1	22
441.819	1	20
441.989	1	27
442.160	1	24
442.330	1	25
442.501	1	20
442.671	1	24
442.842	1	6
443.012	1	17
443.183	1	19
443.353	1	13
443.524	1	22
443.694	1	35
443.865	1	13
444.035	1	26
444.206	1	15
444.376	1	17
444.547	1	30
444.717	1	21
444.888	1	15
445.058	1	29
445.229	1	29
445.399	1	9
445.570	1	18
445.740	1	10
445.911	1	17
446.081	1	10
446.252	1	22
446.422	1	13
446.593	1	14
446.763	1	18
446.934	1	15
447.104	1	17
447.275	1	14
447.445	1	19
447.616	1	23
447.786	1	22
447.957	1	17
448.127	1	28
448.298	1	16
448.468	1	16
448.639	1	8
448.809	1	23
448.979	1	15
449.150	1	23
449.320	1	14
449.491	1	22
449.661	1	20
449.832	1	12
450.002	1	19
450.173	1	24
450.343	1	21
450.514	1	13
450.684	1	15
450.855	1	19
451.025	1	21
451.196	1	15
451.366	1	13
451.537	1	23
451.707	1	6
451.878	1	16
452.048	1	27
452.218	1	20
452.389	1	29
452.559	1	19
452.730	1	22
452.900	1	19
453.071	1	9
453.241	1	22
453.412	1	15
453.582	1	12
453.753	1	28
453.923	1	28
454.093	1	21
454.264	1	23
454.434	1	16
454.605	1	23
454.775	1	14
454.946	1	15
455.116	1	16
455.287	1	2
455.457	1	10
455.628	1	25
455.798	1	24
455.968	1	31
456.139	1	13
456.309	1	15
456.480	1	9
456.650	1	12
456.821	1	8
456.991	1	19
457.161	1	16
457.332	1	15
457.502	1	1
457.673	1	24
457.843	1	23
458.014	1	8
458.184	1	3
458.355	1	2
458.525	1	16
458.695	1	16
458.866	1	13
459.036	1	17
459.207	1	21
459.377	1	7
459.548	1	28
459.718	1	-1
459.888	1	18
460.059	1	9
460.229	1	21
460.400	1	22
460.570	1	17
460.740	1	18
460.911	1	19
461.081	1	14
461.252	1	15
461.422	1	13
461.593	1	9
461.763	1	17
461.933	1	18
462.104	1	-2
462.274	1	15
462.445	1	12
462.615	1	15
462.785	1	22
462.956	1	16
463.126	1	23
463.297	1	14
463.467	1	10
463.638	1	18
463.808	1	11
463.978	1	14
464.149	1	17
464.319	1	7
464.490	1	28
464.660	1	9
464.830	1	15
465.001	1	16
465.171	1	16
465.342	1	22
465.512	1	7
465.682	1	13
465.853	1	10
466.023	1	12
466.194	1	20
466.364	1	18
466.534	1	15
466.705	1	13
466.875	1	16
467.045	1	6
467.216	1	31
467.386	1	19
467.557	1	8
467.727	1	7
467.897	1	12
468.068	1	13
468.238	1	4
468.409	1	10
468.579	1	9
468.749	1	12
468.920	1	2
469.090	1	12
469.260	1	2
469.431	1	16
469.601	1	10
469.772	1	25
469.942	1	12
470.112	1	21
470.283	1	4
470.453	1	9
470.623	1	9
470.794	1	4
470.964	1	6
471.135	1	14
471.305	1	11
471.475	1	18
471.646	1	5
471.816	1	15
471.986	1	8
472.157	1	23
472.327	1	-4
472.497	1	13
472.668	1	8
472.838	1	14
473.009	1	18
473.179	1	13
473.349	1	10
473.520	1	23
473.690	1	17
473.860	1	8
474.031	1	9
474.201	1	19
474.371	1	21
474.542	1	15
474.712	1	7
474.882	1	14
475.053	1	32
475.223	1	8
475.394	1	19
475.564	1	14
475.734	1	15
475.905	1	28
476.075	1	9
476.245	1	25
476.416	1	16
476.586	1	13
476.756	1	8
476.927	1	19
477.097	1	12
477.267	1	-2
477.438	1	22
477.608	1	9
477.778	1	14
477.949	1	12
478.119	1	21
478.289	1	15
478.460	1	19
478.630	1	18
478.800	1	10
478.971	1	5
479.141	1	11
479.311	1	-4
479.482	1	12
479.652	1	5
479.822	1	4
479.993	1	16
480.163	1	15
480.333	1	1
480.504	1	9
480.674	1	9
480.844	1	0
481.015	1	7
481.185	1	8
481.355	1	16
481.525	1	5
481.696	1	15
481.866	1	12
482.036	1	14
482.207	1	5
482.377	1	14
482.547	1	12
482.718	1	9
482.888	1	8
483.058	1	10
483.229	1	-1
483.399	1	11
483.569	1	12
483.740	1	14
483.910	1	13
484.080	1	9
484.250	1	11
484.421	1	10
484.591	1	8
484.761	1	11
484.932	1	16
485.102	1	12
485.272	1	21
485.443	1	17
485.613	1	15
485.783	1	6
485.953	1	13
486.124	1	11
486.294	1	12
486.464	1	7
486.635	1	10
486.805	1	19
486.975	1	6
487.146	1	19
487.316	1	5
487.486	1	13
487.656	1	9
487.827	1	18
487.997	1	-2
488.167	1	4
488.338	1	8
488.508	1	10
488.678	1	5
488.848	1	13
489.019	1	12
489.189	1	6
489.359	1	2
489.529	1	6
489.700	1	12
489.870	1	19
490.040	1	-4
490.211	1	-5
490.381	1	17
490.551	1	14
490.721	1	13
490.892	1	7
491.062	1	15
491.232	1	16
491.402	1	6
491.573	1	-7
491.743	1	8
491.913	1	-4
492.084	1	22
492.254	1	4
492.424	1	-1
492.594	1	5
492.765	1	3
492.935	1	7
493.105	1	12
493.275	1	7
493.446	1	8
493.616	1	11
493.786	1	0
493.956	1	13
494.127	1	5
494.297	1	3
494.467	1	8
494.637	1	15
494.808	1	4
494.978	1	7
495.148	1	4
495.318	1	-1
495.489	1	7
495.659	1	8
495.829	1	10
495.999	1	-4
496.170	1	14
496.340	1	11
496.510	1	18
496.680	1	-1
496.851	1	13
497.021	1	5
497.191	1	-1
497.361	1	6
497.532	1	2
497.702	1	8
497.872	1	6
498.042	1	10
498.213	1	4
498.383	1	7
498.553	1	-2
498.723	1	8
498.894	1	4
499.064	1	3
499.234	1	9
499.404	1	3
499.574	1	17
499.745	1	14
499.915	1	6
500.085	1	7
500.255	1	16
500.426	1	11
500.596	1	0
500.766	1	4
500.936	1	1
501.106	1	3
501.277	1	15
501.447	1	12
501.617	1	6
501.787	1	8
501.958	1	-1
502.128	1	6
502.298	1	8
502.468	1	3
502.638	1	-1
502.809	1	5
502.979	1	-5
503.149	1	-8
503.319	1	1
503.489	1	-6
503.660	1	14
503.830	1	8
504.000	1	14
504.170	1	4
504.340	1	0
504.511	1	9
504.681	1	7
504.851	1	11
505.021	1	9
505.192	1	-5
505.362	1	6
505.532	1	6
505.702	1	1
505.872	1	11
506.043	1	8
506.213	1	4
506.383	1	5
506.553	1	11
506.723	1	7
506.893	1	11
507.064	1	13
507.234	1	5
507.404	1	-7
507.574	1	8
507.744	1	10
507.915	1	3
508.085	1	20
508.255	1	4
508.425	1	7
508.595	1	7
508.766	1	11
508.936	1	-6
509.106	1	13
509.276	1	14
509.446	1	2
509.616	1	2
509.787	1	12
509.957	1	5
510.127	1	0
510.297	1	0
510.467	1	0
510.638	1	7
510.808	1	-1
510.978	1	2
511.148	1	12
511.318	1	-1
511.488	1	-4
511.659	1	9
511.829	1	5
511.999	1	6
512.169	1	0
512.339	1	11
512.509	1	0
512.680	1	-4
512.850	1	7
513.020	1	12
513.190	1	5
513.360	1	0
513.530	1	0
513.700	1	13
513.871	1	-4
514.041	1	12
514.211	1	7
514.381	1	17
514.551	1	9
514.721	1	-6
514.892	1	-1
515.062	1	4
515.232	1	0
515.402	1	-6
515.572	1	5
515.742	1	17
515.912	1	11
516.083	1	-1
516.253	1	13
516.423	1	-5
516.593	1	12
516.763	1	4
516.933	1	-3
517.104	1	2
517.274	1	1
517.444	1	17
517.614	1	-1
517.784	1	-2
517.954	1	5
518.124	1	11
518.294	1	2
518.465	1	1
518.635	1	1
518.805	1	-11
518.975	1	5
519.145	1	5
519.315	1	7
519.485	1	0
519.656	1	9
519.826	1	1
519.996	1	3
520.166	1	8
520.336	1	12
520.506	1	-2
520.676	1	-4
520.846	1	7
521.017	1	1
521.187	1	10
521.357	1	18
521.527	1	8
521.697	1	5
521.867	1	-3
522.037	1	7
522.207	1	10
522.377	1	11
522.548	1	3
522.718	1	8
522.888	1	17
523.058	1	5
523.228	1	12
523.398	1	2
523.568	1	4
523.738	1	-2
523.909	1	12
524.079	1	7
524.249	1	2
524.419	1	6
524.589	1	9
524.759	1	-9
524.929	1	-1
525.099	1	14
525.269	1	6
525.439	1	-3
525.610	1	11
525.780	1	8
525.950	1	15
526.120	1	-2
526.290	1	5
526.460	1	-5
526.630	1	15
526.800	1	6
526.970	1	3
527.140	1	8
527.311	1	-5
527.481	1	-2
527.651	1	15
527.821	1	-1
527.991	1	13
528.161	1	18
528.331	1	-1
528.501	1	1
528.671	1	-2
528.841	1	7
529.011	1	-3
529.181	1	8
529.352	1	-2
529.522	1	-2
529.692	1	9
529.862	1	3
530.032	1	4
530.202	1	4
530.372	1	12
530.542	1	7
530.712	1	4
530.882	1	-2
531.052	1	6
531.222	1	-1
531.392	1	-1
531.563	1	9
531.733	1	2
531.903	1	6
532.073	1	8
532.243	1	1
532.413	1	10
532.583	1	0
532.753	1	5
532.923	1	-8
533.093	1	5
533.263	1	-2
533.433	1	10
533.603	1	8
533.773	1	2
533.943	1	-1
534.113	1	11
534.284	1	5
534.454	1	10
534.624	1	13
534.794	1	-1
534.964	1	7
535.134	1	-3
535.304	1	3
535.474	1	10
535.644	1	4
535.814	1	-3
535.984	1	1
536.154	1	-3
536.324	1	8
536.494	1	13
536.664	1	11
536.834	1	2
537.004	1	0
537.174	1	18
537.344	1	6
537.514	1	3
537.685	1	6
537.855	1	13
538.025	1	-2
538.195	1	2
538.365	1	8
538.535	1	-1
538.705	1	6
538.875	1	14
539.045	1	8
539.215	1	7
539.385	1	-1
539.555	1	7
539.725	1	-6
539.895	1	-5
540.065	1	12
540.235	1	6
540.405	1	5
540.575	1	-4
540.745	1	13
540.915	1	7
541.085	1	-5
541.255	1	-2
541.425	1	8
541.595	1	10
541.765	1	2
541.935	1	3
542.105	1	-10
542.275	1	3
542.445	1	1
542.615	1	-7
542.785	1	8
542.955	1	4
543.125	1	-3
543.295	1	9
543.465	1	4
543.635	1	9
543.805	1	16
543.975	1	4
544.145	1	6
544.315	1	5
544.485	1	4
544.655	1	3
544.825	1	-8
544.995	1	8
545.165	1	-7
545.335	1	8
545.505	1	-3
545.675	1	4
545.845	1	10
546.015	1	13
546.185	1	11
546.355	1	8
546.525	1	3
546.695	1	2
546.865	1	-1
547.035	1	12
547.205	1	-10
547.375	1	5
547.545	1	8
547.715	1	-1
547.885	1	3
548.055	1	-8
548.225	1	6
548.395	1	-1
548.565	1	1
548.735	1	1
548.905	1	2
549.075	1	-2
549.245	1	2
549.415	1	-4
549.585	1	3
549.755	1	-3
549.925	1	-1
550.095	1	14
550.265	1	0
550.435	1	-4
550.605	1	-3
550.775	1	11
550.945	1	13
551.115	1	7
551.285	1	9
551.455	1	-5
551.625	1	8
551.795	1	12
551.965	1	0
552.135	1	0
552.305	1	12
552.475	1	-2
552.645	1	-6
552.815	1	5
552.985	1	6
553.155	1	3
553.325	1	8
553.495	1	6
553.665	1	5
553.835	1	3
554.004	1	-1
554.174	1	10
554.344	1	5
554.514	1	0
554.684	1	9
554.854	1	11
555.024	1	0
555.194	1	-4
555.364	1	12
555.534	1	8
555.704	1	3
555.874	1	4
556.044	1	8
556.214	1	-4
556.384	1	-3
556.554	1	13
556.724	1	5
556.894	1	0
557.064	1	3
557.234	1	-2
557.404	1	9
557.573	1	5
557.743	1	2
557.913	1	1
558.083	1	-4
558.253	1	-1
558.423	1	3
558.593	1	12
558.763	1	0
558.933	1	-2
559.103	1	11
559.273	1	0
559.443	1	-1
559.613	1	2
559.783	1	4
559.953	1	13
560.122	1	11
560.292	1	1
560.462	1	9
560.632	1	11
560.802	1	1
560.972	1	6
561.142	1	9
561.312	1	-2
561.482	1	5
561.652	1	7
561.822	1	5
561.992	1	-2
562.162	1	2
562.331	1	2
562.501	1	-5
562.671	1	9
562.841	1	-9
563.011	1	4
563.181	1	-4
563.351	1	-5
563.521	1	4
563.691	1	-6
563.861	1	9
564.031	1	1
564.201	1	16
564.370	1	-8
564.540	1	10
564.710	1	-3
564.880	1	11
565.050	1	7
565.220	1	2
565.390	1	1
565.560	1	2
565.730	1	2
565.900	1	6
566.069	1	13
566.239	1	10
566.409	1	8
566.579	1	-2
566.749	1	-6
566.919	1	6
567.089	1	0
567.259	1	9
567.429	1	-9
567.599	1	3
567.768	1	11
567.938	1	3
568.108	1	4
568.278	1	-7
568.448	1	-7
568.618	1	-3
568.788	1	-2
568.958	1	3
569.128	1	3
569.297	1	-3
569.467	1	1
569.637	1	11
569.807	1	10
569.977	1	2
570.147	1	1
570.317	1	-8
570.487	1	3
570.656	1	4
570.826	1	-2
570.996	1	-8
571.166	1	9
571.336	1	0
571.506	1	13
571.676	1	5
571.846	1	3
572.015	1	4
572.185	1	-1
572.355	1	16
572.525	1	6
572.695	1	-3
572.865	1	1
573.035	1	6
573.205	1	9
573.374	1	-4
573.544	1	4
573.714	1	11
573.884	1	-1
574.054	1	4
574.224	1	5
574.394	1	-4
574.563	1	-3
574.733	1	-10
574.903	1	4
575.073	1	-5
575.243	1	-4
575.413	1	13
575.583	1	-2
575.752	1	2
575.922	1	-1
576.092	1	15
576.262	1	3
576.432	1	7
576.602	1	-3
576.772	1	17
576.941	1	3
577.111	1	-7
577.281	1	-9
577.451	1	-9
577.621	1	0
577.791	1	9
577.960	1	-5
578.130	1	7
578.300	1	3
578.470	1	17
578.640	1	-2
578.810	1	3
578.979	1	6
579.149	1	-1
579.319	1	-2
579.489	1	1
579.659	1	-2
579.829	1	4
579.998	1	6
580.168	1	19
580.338	1	5
580.508	1	7
580.678	1	10
580.848	1	3
581.017	1	10
581.187	1	-1
581.357	1	-8
581.527	1	10
581.697	1	5
581.867	1	14
582.036	1	2
582.206	1	3
582.376	1	9
582.546	1	0
582.716	1	-5
582.885	1	-2
583.055	1	2
583.225	1	-8
583.395	1	1
583.565	1	-1
583.735	1	5
583.904	1	7
584.074	1	6
584.244	1	5
584.414	1	-3
584.584	1	11
584.753	1	-8
584.923	1	2
585.093	1	1
585.263	1	11
585.433	1	4
585.602	1	-9
585.772	1	2
585.942	1	2
586.112	1	-3
586.282	1	0
586.451	1	2
586.621	1	-6
586.791	1	0
586.961	1	-2
587.131	1	1
587.300	1	-8
587.470	1	4
587.640	1	3
587.810	1	3
587.980	1	11
588.149	1	6
588.319	1	7
588.489	1	4
588.659	1	-6
588.829	1	2
588.998	1	10
589.168	1	17
589.338	1	1
589.508	1	8
589.677	1	2
589.847	1	-4
590.017	1	7
590.187	1	-6
590.357	1	11
590.526	1	13
590.696	1	7
590.866	1	11
591.036	1	5
591.205	1	13
591.375	1	-8
591.545	1	6
591.715	1	8
591.885	1	-9
592.054	1	9
592.224	1	4
592.394	1	-2
592.564	1	4
592.733	1	6
592.903	1	5
593.073	1	4
593.243	1	12
593.412	1	16
593.582	1	-2
593.752	1	0
593.922	1	0
594.091	1	6
594.261	1	1
594.431	1	13
594.601	1	2
594.771	1	11
594.940	1	1
595.110	1	-3
595.280	1	0
595.450	1	0
595.619	1	0
595.789	1	-2
595.959	1	15
596.129	1	5
596.298	1	-7
596.468	1	-1
596.638	1	7
596.808	1	6
596.977	1	-11
597.147	1	7
597.317	1	-6
597.487	1	0
597.656	1	9
597.826	1	6
597.996	1	0
598.166	1	-5
598.335	1	-5
598.505	1	4
598.675	1	-9
598.844	1	-10
599.014	1	-8
599.184	1	2
599.354	1	-7
599.523	1	6
599.693	1	1
599.863	1	2
600.033	1	-1
600.202	1	0
600.372	1	5
600.542	1	5
600.712	1	-6
600.881	1	-2
601.051	1	15
601.221	1	11
601.390	1	-11
601.560	1	14
601.730	1	11
601.900	1	7
602.069	1	6
602.239	1	5
602.409	1	-4
602.578	1	1
602.748	1	-2
602.918	1	8
603.088	1	10
603.257	1	3
603.427	1	-3
603.597	1	5
603.767	1	7
603.936	1	15
604.106	1	1
604.276	1	-2
604.445	1	6
604.615	1	2
604.785	1	-1
604.954	1	2
605.124	1	1
605.294	1	0
605.464	1	-5
605.633	1	4
605.803	1	6
605.973	1	5
606.142	1	7
606.312	1	15
606.482	1	9
606.652	1	7
606.821	1	4
606.991	1	2
607.161	1	-4
607.330	1	1
607.500	1	13
607.670	1	0
607.839	1	2
608.009	1	7
608.179	1	3
608.348	1	5
608.518	1	-3
608.688	1	15
608.858	1	-6
609.027	1	1
609.197	1	7
609.367	1	11
609.536	1	3
609.706	1	-4
609.876	1	-2
610.045	1	11
610.215	1	13
610.385	1	1
610.554	1	2
610.724	1	5
610.894	1	-4
611.063	1	-4
611.233	1	0
611.403	1	3
611.572	1	-3
611.742	1	3
611.912	1	-5
612.081	1	1
612.251	1	4
612.421	1	1
612.590	1	0
612.760	1	6
612.930	1	4
613.099	1	2
613.269	1	11
613.439	1	4
613.608	1	1
613.778	1	7
613.948	1	2
614.117	1	7
614.287	1	15
614.457	1	2
614.626	1	-1
614.796	1	6
614.966	1	-2
615.135	1	-4
615.305	1	6
615.475	1	3
615.644	1	3
615.814	1	1
615.984	1	3
616.153	1	-2
616.323	1	1
616.493	1	-1
616.662	1	14
616.832	1	1
617.002	1	-4
617.171	1	-1
617.341	1	1
617.511	1	-1
617.680	1	0
617.850	1	8
618.019	1	18
618.189	1	15
618.359	1	6
618.528	1	1
618.698	1	9
618.868	1	-9
619.037	1	0
619.207	1	-12
619.377	1	-6
619.546	1	4
619.716	1	-3
619.885	1	7
620.055	1	-3
620.225	1	-1
620.394	1	-16
620.564	1	5
620.734	1	11
620.903	1	-3
621.073	1	6
621.242	1	2
621.412	1	10
621.582	1	3
621.751	1	14
621.921	1	6
622.091	1	-3
622.260	1	-5
622.430	1	11
622.599	1	-5
622.769	1	5
622.939	1	3
623.108	1	-2
623.278	1	-2
623.448	1	3
623.617	1	-3
623.787	1	4
623.956	1	6
624.126	1	1
624.296	1	-10
624.465	1	6
624.635	1	11
624.804	1	8
624.974	1	10
625.144	1	11
625.313	1	1
625.483	1	-9
625.652	1	0
625.822	1	-5
625.992	1	-1
626.161	1	3
626.331	1	4
626.501	1	5
626.670	1	2
626.840	1	1
627.009	1	-3
627.179	1	5
627.348	1	5
627.518	1	-2
627.688	1	8
627.857	1	10
628.027	1	3
628.196	1	3
628.366	1	9
628.536	1	8
628.705	1	3
628.875	1	3
629.044	1	-3
629.214	1	11
629.384	1	7
629.553	1	15
629.723	1	7
629.892	1	1
630.062	1	12
630.232	1	-1
630.401	1	8
630.571	1	3
630.740	1	10
630.910	1	-1
631.079	1	8
631.249	1	-3
631.419	1	5
631.588	1	-11
631.758	1	6
631.927	1	2
632.097	1	5
632.266	1	8
632.436	1	3
632.606	1	-8
632.775	1	7
632.945	1	8
633.114	1	5
633.284	1	5
633.453	1	-8
633.623	1	0
633.793	1	6
633.962	1	4
634.132	1	15
634.301	1	10
634.471	1	7
634.640	1	13
634.810	1	4
634.979	1	6
635.149	1	7
635.319	1	7
635.488	1	3
635.658	1	-5
635.827	1	2
635.997	1	3
636.166	1	8
636.336	1	-6
636.505	1	5
636.675	1	-1
636.845	1	10
637.014	1	9
637.184	1	12
637.353	1	5
637.523	1	-3
637.692	1	3
637.862	1	9
638.031	1	5
638.201	1	8
638.370	1	6
638.540	1	6
638.710	1	3
638.879	1	-5
639.049	1	7
639.218	1	0
639.388	1	4
639.557	1	2
639.727	1	8
639.896	1	2
640.066	1	-1
640.235	1	5
640.405	1	0
640.574	1	4
640.744	1	-9
640.914	1	5
641.083	1	0
641.253	1	1
641.422	1	7
641.592	1	18
641.761	1	1
641.931	1	12
642.100	1	19
642.270	1	-1
642.439	1	11
642.609	1	9
642.778	1	1
642.948	1	-3
643.117	1	15
643.287	1	11
643.456	1	2
643.626	1	16
643.795	1	5
643.965	1	6
644.134	1	2
644.304	1	0
644.473	1	7
644.643	1	-1
644.812	1	10
644.982	1	7
645.151	1	0
645.321	1	-1
645.490	1	11
645.660	1	3
645.829	1	-7
645.999	1	4
646.168	1	9
646.338	1	6
646.507	1	5
646.677	1	0
646.846	1	5
647.016	1	-2
647.185	1	-3
647.355	1	-16
647.524	1	11
647.694	1	15
647.863	1	11
648.033	1	11
648.202	1	15
648.372	1	12
648.541	1	0
648.711	1	-4
648.880	1	-6
649.050	1	9
649.219	1	3
649.389	1	11
649.558	1	11
649.728	1	11
649.897	1	-6
650.067	1	3
650.236	1	9
650.406	1	7
650.575	1	3
650.745	1	10
650.914	1	9
651.084	1	-9
651.253	1	0
651.423	1	2
651.592	1	4
651.762	1	0
651.931	1	5
652.101	1	10
652.270	1	7
652.440	1	9
652.609	1	-2
652.778	1	0
652.948	1	6
653.117	1	7
653.287	1	-1
653.456	1	19
653.626	1	11
653.795	1	2
653.965	1	0
654.134	1	14
654.304	1	-7
654.473	1	-1
654.643	1	6
654.812	1	0
654.982	1	10
655.151	1	5
655.320	1	1
655.490	1	-4
655.659	1	4
655.829	1	8
655.998	1	-2
656.168	1	0
656.337	1	10
656.507	1	6
656.676	1	6
656.846	1	16
657.015	1	18
657.184	1	11
657.354	1	5
657.523	1	4
657.693	1	11
657.862	1	8
658.032	1	9
658.201	1	11
658.371	1	9
658.540	1	0
658.709	1	-3
658.879	1	5
659.048	1	5
659.218	1	-1
659.387	1	8
659.557	1	9
659.726	1	7
659.895	1	8
660.065	1	-3
660.234	1	14
660.404	1	5
660.573	1	2
660.743	1	-2
660.912	1	12
661.081	1	4
661.251	1	3
661.420	1	5
661.590	1	4
661.759	1	2
661.929	1	11
662.098	1	8
662.267	1	8
662.437	1	6
662.606	1	6
662.776	1	9
662.945	1	8
663.115	1	-3
663.284	1	-9
663.453	1	4
663.623	1	-1
663.792	1	12
663.962	1	-1
664.131	1	8
664.300	1	9
664.470	1	3
664.639	1	11
664.809	1	15
664.978	1	6
665.148	1	2
665.317	1	1
665.486	1	9
665.656	1	8
665.825	1	12
665.995	1	-6
666.164	1	0
666.333	1	10
666.503	1	9
666.672	1	7
666.842	1	1
667.011	1	7
667.180	1	7
667.350	1	1
667.519	1	0
667.689	1	2
667.858	1	13
668.027	1	6
668.197	1	6
668.366	1	-6
668.536	1	-1
668.705	1	4
668.874	1	5
669.044	1	2
669.213	1	14
669.382	1	0
669.552	1	5
669.721	1	12
669.891	1	8
670.060	1	7
670.229	1	15
670.399	1	6
670.568	1	12
670.738	1	16
670.907	1	-3
671.076	1	-6
671.246	1	-2
671.415	1	4
671.584	1	3
671.754	1	12
671.923	1	0
672.093	1	12
672.262	1	-8
672.431	1	3
672.601	1	3
672.770	1	6
672.939	1	16
673.109	1	1
673.278	1	16
673.448	1	9
673.617	1	3
673.786	1	-5
