325.333	1	8
325.504	1	1
325.675	1	5
325.846	1	4
326.017	1	6
326.188	1	8
326.359	1	4
326.531	1	-10
326.702	1	-3
326.873	1	2
327.044	1	-1
327.215	1	2
327.386	1	6
327.557	1	-6
327.728	1	2
327.899	1	7
328.070	1	17
328.241	1	8
328.412	1	-8
328.583	1	9
328.754	1	9
328.926	1	4
329.097	1	-8
329.268	1	14
329.439	1	1
329.610	1	8
329.781	1	0
329.952	1	7
330.123	1	5
330.294	1	0
330.465	1	2
330.636	1	8
330.807	1	-6
330.978	1	0
331.149	1	11
331.320	1	4
331.492	1	9
331.663	1	5
331.834	1	9
332.005	1	-5
332.176	1	17
332.347	1	8
332.518	1	-4
332.689	1	15
332.860	1	3
333.031	1	16
333.202	1	-3
333.373	1	2
333.544	1	0
333.715	1	7
333.886	1	-2
334.057	1	9
334.228	1	7
334.399	1	7
334.570	1	10
334.741	1	-3
334.912	1	8
335.084	1	19
335.255	1	2
335.426	1	5
335.597	1	15
335.768	1	-4
335.939	1	7
336.110	1	1
336.281	1	-1
336.452	1	7
336.623	1	-1
336.794	1	7
336.965	1	7
337.136	1	16
337.307	1	1
337.478	1	6
337.649	1	13
337.820	1	3
337.991	1	4
338.162	1	9
338.333	1	6
338.504	1	8
338.675	1	6
338.846	1	10
339.017	1	5
339.188	1	1
339.359	1	-7
339.530	1	6
339.701	1	8
339.872	1	7
340.043	1	6
340.214	1	5
340.385	1	14
340.556	1	3
340.727	1	11
340.898	1	24
341.069	1	11
341.240	1	1
341.411	1	14
341.582	1	6
341.753	1	-1
341.924	1	13
342.095	1	9
342.266	1	13
342.437	1	13
342.608	1	2
342.779	1	8
342.950	1	0
343.121	1	5
343.292	1	6
343.463	1	14
343.634	1	3
343.805	1	9
343.976	1	15
344.147	1	11
344.318	1	6
344.489	1	2
344.660	1	16
344.831	1	7
345.002	1	-1
345.173	1	15
345.344	1	10
345.515	1	4
345.686	1	8
345.857	1	9
346.028	1	7
346.199	1	-1
346.370	1	6
346.541	1	14
346.712	1	-1
346.883	1	5
347.054	1	5
347.225	1	9
347.396	1	7
347.567	1	3
347.738	1	4
347.909	1	15
348.080	1	12
348.251	1	7
348.422	1	22
348.593	1	6
348.764	1	10
348.935	1	12
349.106	1	-2
349.277	1	0
349.448	1	4
349.619	1	2
349.790	1	14
349.961	1	6
350.132	1	20
350.303	1	13
350.474	1	24
350.645	1	10
350.816	1	18
350.987	1	14
351.157	1	10
351.328	1	17
351.499	1	17
351.670	1	5
351.841	1	10
352.012	1	20
352.183	1	25
352.354	1	14
352.525	1	18
352.696	1	21
352.867	1	3
353.038	1	19
353.209	1	15
353.380	1	11
353.551	1	4
353.722	1	18
353.893	1	7
354.064	1	12
354.235	1	8
354.406	1	12
354.576	1	15
354.747	1	11
354.918	1	20
355.089	1	14
355.260	1	16
355.431	1	13
355.602	1	8
355.773	1	12
355.944	1	12
356.115	1	14
356.286	1	16
356.457	1	10
356.628	1	12
356.799	1	18
356.970	1	16
357.141	1	11
357.311	1	7
357.482	1	8
357.653	1	4
357.824	1	21
357.995	1	15
358.166	1	-2
358.337	1	14
358.508	1	22
358.679	1	8
358.850	1	13
359.021	1	8
359.192	1	21
359.363	1	11
359.533	1	12
359.704	1	13
359.875	1	15
360.046	1	6
360.217	1	6
360.388	1	7
360.559	1	10
360.730	1	16
360.901	1	19
361.072	1	21
361.243	1	9
361.414	1	19
361.584	1	14
361.755	1	25
361.926	1	12
362.097	1	16
362.268	1	22
362.439	1	14
362.610	1	25
362.781	1	0
362.952	1	6
363.123	1	14
363.293	1	7
363.464	1	19
363.635	1	17
363.806	1	9
363.977	1	7
364.148	1	16
364.319	1	10
364.490	1	21
364.661	1	16
364.832	1	21
365.002	1	17
365.173	1	11
365.344	1	12
365.515	1	12
365.686	1	18
365.857	1	18
366.028	1	20
366.199	1	10
366.370	1	19
366.540	1	10
366.711	1	-3
366.882	1	-1
367.053	1	7
367.224	1	27
367.395	1	15
367.566	1	25
367.737	1	24
367.908	1	6
368.078	1	11
368.249	1	12
368.420	1	-3
368.591	1	10
368.762	1	7
368.933	1	15
369.104	1	1
369.274	1	12
369.445	1	19
369.616	1	13
369.787	1	8
369.958	1	18
370.129	1	8
370.300	1	20
370.471	1	10
370.641	1	20
370.812	1	11
370.983	1	18
371.154	1	5
371.325	1	24
371.496	1	12
371.667	1	12
371.837	1	7
372.008	1	11
372.179	1	18
372.350	1	29
372.521	1	8
372.692	1	16
372.863	1	19
373.033	1	9
373.204	1	5
373.375	1	25
373.546	1	15
373.717	1	22
373.888	1	23
374.059	1	15
374.229	1	16
374.400	1	18
374.571	1	12
374.742	1	14
374.913	1	11
375.084	1	18
375.254	1	21
375.425	1	14
375.596	1	15
375.767	1	15
375.938	1	13
376.109	1	14
376.279	1	12
376.450	1	24
376.621	1	17
376.792	1	11
376.963	1	15
377.134	1	27
377.304	1	16
377.475	1	5
377.646	1	13
377.817	1	14
377.988	1	15
378.159	1	15
378.329	1	19
378.500	1	18
378.671	1	18
378.842	1	14
379.013	1	12
379.184	1	17
379.354	1	21
379.525	1	11
379.696	1	20
379.867	1	28
380.038	1	19
380.209	1	24
380.379	1	7
380.550	1	18
380.721	1	19
380.892	1	18
381.063	1	11
381.233	1	25
381.404	1	11
381.575	1	23
381.746	1	12
381.917	1	15
382.087	1	14
382.258	1	10
382.429	1	23
382.600	1	21
382.771	1	8
382.941	1	11
383.112	1	13
383.283	1	17
383.454	1	23
383.625	1	11
383.795	1	25
383.966	1	24
384.137	1	28
384.308	1	24
384.479	1	20
384.649	1	24
384.820	1	16
384.991	1	13
385.162	1	29
385.333	1	16
385.503	1	20
385.674	1	5
385.845	1	27
386.016	1	21
386.187	1	24
386.357	1	27
386.528	1	29
386.699	1	12
386.870	1	28
387.041	1	24
387.211	1	24
387.382	1	36
387.553	1	22
387.724	1	24
387.894	1	17
388.065	1	15
388.236	1	20
388.407	1	17
388.578	1	9
388.748	1	16
388.919	1	26
389.090	1	19
389.261	1	10
389.431	1	24
389.602	1	22
389.773	1	26
389.944	1	16
390.114	1	19
390.285	1	21
390.456	1	13
390.627	1	18
390.798	1	16
390.968	1	21
391.139	1	26
391.310	1	18
391.481	1	30
391.651	1	20
391.822	1	20
391.993	1	17
392.164	1	18
392.334	1	18
392.505	1	10
392.676	1	29
392.847	1	24
393.017	1	26
393.188	1	18
393.359	1	14
393.530	1	15
393.700	1	25
393.871	1	14
394.042	1	22
394.213	1	19
394.383	1	29
394.554	1	16
394.725	1	28
394.896	1	12
395.066	1	21
395.237	1	18
395.408	1	18
395.579	1	20
395.749	1	21
395.920	1	17
396.091	1	30
396.262	1	21
396.432	1	30
396.603	1	22
396.774	1	38
396.945	1	24
397.115	1	15
397.286	1	14
397.457	1	24
397.627	1	26
397.798	1	22
397.969	1	14
398.140	1	21
398.310	1	21
398.481	1	17
398.652	1	22
398.823	1	14
398.993	1	22
399.164	1	25
399.335	1	27
399.505	1	22
399.676	1	21
399.847	1	24
400.018	1	22
400.188	1	20
400.359	1	23
400.530	1	13
400.700	1	21
400.871	1	19
401.042	1	23
401.213	1	19
401.383	1	19
401.554	1	34
401.725	1	22
401.895	1	18
402.066	1	29
402.237	1	28
402.408	1	28
402.578	1	27
402.749	1	23
402.920	1	26
403.090	1	20
403.261	1	21
403.432	1	18
403.603	1	28
403.773	1	35
403.944	1	24
404.115	1	29
404.285	1	27
404.456	1	26
404.627	1	15
404.797	1	16
404.968	1	21
405.139	1	17
405.310	1	36
405.480	1	22
405.651	1	21
405.822	1	25
405.992	1	11
406.163	1	15
406.334	1	14
406.504	1	27
406.675	1	30
406.846	1	24
407.016	1	26
407.187	1	26
407.358	1	14
407.528	1	15
407.699	1	14
407.870	1	16
408.041	1	24
408.211	1	33
408.382	1	21
408.553	1	9
408.723	1	25
408.894	1	17
409.065	1	27
409.235	1	21
409.406	1	18
409.577	1	12
409.747	1	24
409.918	1	20
410.089	1	27
410.259	1	27
410.430	1	21
410.601	1	19
410.771	1	25
410.942	1	29
411.113	1	27
411.283	1	22
411.454	1	19
411.625	1	15
411.795	1	24
411.966	1	22
412.137	1	22
412.307	1	21
412.478	1	27
412.649	1	30
412.819	1	18
412.990	1	18
413.161	1	23
413.331	1	20
413.502	1	33
413.672	1	14
413.843	1	17
414.014	1	17
414.184	1	31
414.355	1	25
414.526	1	29
414.696	1	32
414.867	1	24
415.038	1	12
415.208	1	19
415.379	1	20
415.550	1	34
415.720	1	21
415.891	1	20
416.062	1	19
416.232	1	19
416.403	1	22
416.573	1	28
416.744	1	11
416.915	1	18
417.085	1	20
417.256	1	24
417.427	1	16
417.597	1	22
417.768	1	15
417.939	1	26
418.109	1	24
418.280	1	27
418.450	1	17
418.621	1	16
418.792	1	23
418.962	1	29
419.133	1	32
419.304	1	20
419.474	1	13
419.645	1	24
419.815	1	14
419.986	1	32
420.157	1	24
420.327	1	25
420.498	1	28
420.669	1	21
420.839	1	31
421.010	1	31
421.180	1	27
421.351	1	20
421.522	1	23
421.692	1	18
421.863	1	25
422.033	1	24
422.204	1	18
422.375	1	17
422.545	1	31
422.716	1	24
422.886	1	18
423.057	1	21
423.228	1	13
423.398	1	20
423.569	1	30
423.740	1	12
423.910	1	14
424.081	1	14
424.251	1	23
424.422	1	24
424.593	1	13
424.763	1	26
424.934	1	22
425.104	1	29
425.275	1	19
425.445	1	13
425.616	1	23
425.787	1	6
425.957	1	21
426.128	1	29
426.298	1	25
426.469	1	13
426.640	1	23
426.810	1	33
426.981	1	23
427.151	1	21
427.322	1	36
427.493	1	17
427.663	1	22
427.834	1	22
428.004	1	23
428.175	1	22
428.345	1	17
428.516	1	17
428.687	1	28
428.857	1	10
429.028	1	16
429.198	1	18
429.369	1	21
429.540	1	21
429.710	1	11
429.881	1	25
430.051	1	24
430.222	1	23
430.392	1	17
430.563	1	34
430.734	1	29
430.904	1	23
431.075	1	18
431.245	1	9
431.416	1	26
431.586	1	24
431.757	1	23
431.927	1	30
432.098	1	16
432.269	1	22
432.439	1	29
432.610	1	14
432.780	1	18
432.951	1	17
433.121	1	26
433.292	1	27
433.462	1	31
433.633	1	21
433.804	1	26
433.974	1	12
434.145	1	39
434.315	1	16
434.486	1	23
434.656	1	19
434.827	1	8
434.997	1	14
435.168	1	33
435.339	1	30
435.509	1	18
435.680	1	19
435.850	1	23
436.021	1	20
436.191	1	11
436.362	1	23
436.532	1	25
436.703	1	22
436.873	1	13
437.044	1	-1
437.214	1	13
437.385	1	21
437.556	1	18
437.726	1	33
437.897	1	22
438.067	1	11
438.238	1	16
438.408	1	27
438.579	1	18
438.749	1	18
438.920	1	9
439.090	1	17
439.261	1	17
439.431	1	3
439.602	1	27
439.772	1	12
439.943	1	37
440.113	1	19
440.284	1	23
440.455	1	13
440.625	1	23
440.796	1	13
440.966	1	21
441.137	1	25
441.307	1	28
441.478	1	30
441.648	1	23
441.819	1	29
441.989	1	22
442.160	1	31
442.330	1	12
442.501	1	26
442.671	1	17
442.842	1	8
443.012	1	12
443.183	1	21
443.353	1	9
443.524	1	24
443.694	1	32
443.865	1	13
444.035	1	11
444.206	1	11
444.376	1	9
444.547	1	31
444.717	1	21
444.888	1	12
445.058	1	24
445.229	1	21
445.399	1	19
445.570	1	15
445.740	1	19
445.911	1	6
446.081	1	8
446.252	1	30
446.422	1	24
446.593	1	13
446.763	1	17
446.934	1	13
447.104	1	27
447.275	1	21
447.445	1	18
447.616	1	21
447.786	1	17
447.957	1	24
448.127	1	19
448.298	1	34
448.468	1	17
448.639	1	17
448.809	1	33
448.979	1	8
449.150	1	26
449.320	1	25
449.491	1	14
449.661	1	13
449.832	1	14
450.002	1	24
450.173	1	15
450.343	1	19
450.514	1	22
450.684	1	23
450.855	1	20
451.025	1	21
451.196	1	18
451.366	1	15
451.537	1	18
451.707	1	8
451.878	1	15
452.048	1	29
452.218	1	11
452.389	1	22
452.559	1	11
452.730	1	29
452.900	1	24
453.071	1	4
453.241	1	21
453.412	1	10
453.582	1	12
453.753	1	15
453.923	1	13
454.093	1	19
454.264	1	25
454.434	1	7
454.605	1	21
454.775	1	26
454.946	1	12
455.116	1	12
455.287	1	10
455.457	1	6
455.628	1	11
455.798	1	14
455.968	1	19
456.139	1	19
456.309	1	12
456.480	1	9
456.650	1	18
456.821	1	12
456.991	1	17
457.161	1	19
457.332	1	21
457.502	1	6
457.673	1	11
457.843	1	25
458.014	1	14
458.184	1	17
458.355	1	10
458.525	1	20
458.695	1	21
458.866	1	10
459.036	1	16
459.207	1	7
459.377	1	-4
459.548	1	16
459.718	1	9
459.888	1	23
460.059	1	17
460.229	1	25
460.400	1	20
460.570	1	11
460.740	1	12
460.911	1	17
461.081	1	16
461.252	1	9
461.422	1	12
461.593	1	11
461.763	1	12
461.933	1	19
462.104	1	4
462.274	1	12
462.445	1	13
462.615	1	11
462.785	1	17
462.956	1	15
463.126	1	17
463.297	1	13
463.467	1	18
463.638	1	13
463.808	1	12
463.978	1	10
464.149	1	9
464.319	1	14
464.490	1	22
464.660	1	12
464.830	1	11
465.001	1	14
465.171	1	15
465.342	1	18
465.512	1	13
465.682	1	14
465.853	1	13
466.023	1	15
466.194	1	16
466.364	1	20
466.534	1	20
466.705	1	10
466.875	1	11
467.045	1	5
467.216	1	20
467.386	1	14
467.557	1	13
467.727	1	13
467.897	1	5
468.068	1	7
468.238	1	20
468.409	1	10
468.579	1	16
468.749	1	7
468.920	1	0
469.090	1	14
469.260	1	9
469.431	1	17
469.601	1	14
469.772	1	13
469.942	1	7
470.112	1	17
470.283	1	9
470.453	1	13
470.623	1	10
470.794	1	10
470.964	1	18
471.135	1	11
471.305	1	-4
471.475	1	10
471.646	1	8
471.816	1	6
471.986	1	15
472.157	1	18
472.327	1	4
472.497	1	16
472.668	1	0
472.838	1	5
473.009	1	9
473.179	1	3
473.349	1	4
473.520	1	14
473.690	1	15
473.860	1	6
474.031	1	17
474.201	1	10
474.371	1	18
474.542	1	13
474.712	1	12
474.882	1	19
475.053	1	23
475.223	1	7
475.394	1	19
475.564	1	6
475.734	1	13
475.905	1	17
476.075	1	19
476.245	1	19
476.416	1	20
476.586	1	15
476.756	1	8
476.927	1	9
477.097	1	12
477.267	1	8
477.438	1	12
477.608	1	15
477.778	1	12
477.949	1	17
478.119	1	13
478.289	1	14
478.460	1	21
478.630	1	11
478.800	1	16
478.971	1	14
479.141	1	6
479.311	1	1
479.482	1	6
479.652	1	7
479.822	1	15
479.993	1	17
480.163	1	9
480.333	1	11
480.504	1	24
480.674	1	-3
480.844	1	4
481.015	1	17
481.185	1	3
481.355	1	13
481.525	1	-1
481.696	1	20
481.866	1	9
482.036	1	12
482.207	1	7
482.377	1	15
482.547	1	15
482.718	1	3
482.888	1	15
483.058	1	12
483.229	1	-1
483.399	1	-3
483.569	1	2
483.740	1	13
483.910	1	19
484.080	1	13
484.250	1	12
484.421	1	3
484.591	1	20
484.761	1	14
484.932	1	17
485.102	1	16
485.272	1	16
485.443	1	12
485.613	1	14
485.783	1	12
485.953	1	13
486.124	1	19
486.294	1	3
486.464	1	4
486.635	1	18
486.805	1	22
486.975	1	5
487.146	1	5
487.316	1	13
487.486	1	10
487.656	1	13
487.827	1	12
487.997	1	1
488.167	1	1
488.338	1	10
488.508	1	-1
488.678	1	5
488.848	1	23
489.019	1	2
489.189	1	9
489.359	1	10
489.529	1	9
489.700	1	8
489.870	1	15
490.040	1	-1
490.211	1	1
490.381	1	11
490.551	1	7
490.721	1	14
490.892	1	9
491.062	1	6
491.232	1	17
491.402	1	6
491.573	1	1
491.743	1	4
491.913	1	2
492.084	1	3
492.254	1	15
492.424	1	13
492.594	1	7
492.765	1	10
492.935	1	1
493.105	1	14
493.275	1	7
493.446	1	16
493.616	1	11
493.786	1	9
493.956	1	11
494.127	1	7
494.297	1	11
494.467	1	5
494.637	1	8
494.808	1	5
494.978	1	1
495.148	1	2
495.318	1	5
495.489	1	14
495.659	1	14
495.829	1	3
495.999	1	4
496.170	1	16
496.340	1	14
496.510	1	8
496.680	1	0
496.851	1	11
497.021	1	8
497.191	1	4
497.361	1	5
497.532	1	4
497.702	1	4
497.872	1	8
498.042	1	11
498.213	1	4
498.383	1	9
498.553	1	1
498.723	1	6
498.894	1	5
499.064	1	5
499.234	1	9
499.404	1	9
499.574	1	23
499.745	1	11
499.915	1	9
500.085	1	17
500.255	1	22
500.426	1	0
500.596	1	6
500.766	1	5
500.936	1	7
501.106	1	1
501.277	1	9
501.447	1	7
501.617	1	9
501.787	1	7
501.958	1	-5
502.128	1	6
502.298	1	3
502.468	1	2
502.638	1	13
502.809	1	11
502.979	1	3
503.149	1	-2
503.319	1	9
503.489	1	4
503.660	1	10
503.830	1	-2
504.000	1	11
504.170	1	1
504.340	1	8
504.511	1	15
504.681	1	4
504.851	1	3
505.021	1	18
505.192	1	2
505.362	1	17
505.532	1	7
505.702	1	0
505.872	1	14
506.043	1	3
506.213	1	6
506.383	1	-2
506.553	1	6
506.723	1	9
506.893	1	5
507.064	1	12
507.234	1	-1
507.404	1	-4
507.574	1	7
507.744	1	3
507.915	1	9
508.085	1	13
508.255	1	6
508.425	1	4
508.595	1	10
508.766	1	5
508.936	1	0
509.106	1	16
509.276	1	12
509.446	1	-1
509.616	1	1
509.787	1	7
509.957	1	11
510.127	1	5
510.297	1	3
510.467	1	3
510.638	1	14
510.808	1	-2
510.978	1	0
511.148	1	5
511.318	1	6
511.488	1	2
511.659	1	1
511.829	1	3
511.999	1	8
512.169	1	5
512.339	1	0
512.509	1	10
512.680	1	4
512.850	1	11
513.020	1	9
513.190	1	14
513.360	1	0
513.530	1	1
513.700	1	4
513.871	1	-2
514.041	1	0
514.211	1	13
514.381	1	3
514.551	1	7
514.721	1	8
514.892	1	1
515.062	1	17
515.232	1	10
515.402	1	-4
515.572	1	1
515.742	1	7
515.912	1	13
516.083	1	3
516.253	1	11
516.423	1	-2
516.593	1	2
516.763	1	14
516.933	1	5
517.104	1	6
517.274	1	-2
517.444	1	6
517.614	1	2
517.784	1	7
517.954	1	-2
518.124	1	5
518.294	1	8
518.465	1	1
518.635	1	2
518.805	1	-11
518.975	1	8
519.145	1	-6
519.315	1	3
519.485	1	-2
519.656	1	23
519.826	1	4
519.996	1	1
520.166	1	5
520.336	1	16
520.506	1	0
520.676	1	-6
520.846	1	12
521.017	1	3
521.187	1	6
521.357	1	16
521.527	1	-1
521.697	1	4
521.867	1	-3
522.037	1	18
522.207	1	8
522.377	1	8
522.548	1	3
522.718	1	6
522.888	1	8
523.058	1	0
523.228	1	13
523.398	1	9
523.568	1	8
523.738	1	11
523.909	1	11
524.079	1	4
524.249	1	3
524.419	1	4
524.589	1	2
524.759	1	-1
524.929	1	-7
525.099	1	11
525.269	1	13
525.439	1	-6
525.610	1	10
525.780	1	2
525.950	1	3
526.120	1	3
526.290	1	6
526.460	1	-1
526.630	1	8
526.800	1	3
526.970	1	-6
527.140	1	6
527.311	1	-2
527.481	1	-4
527.651	1	4
527.821	1	-3
527.991	1	11
528.161	1	14
528.331	1	-4
528.501	1	12
528.671	1	5
528.841	1	2
529.011	1	0
529.181	1	5
529.352	1	6
529.522	1	-2
529.692	1	6
529.862	1	0
530.032	1	8
530.202	1	9
530.372	1	10
530.542	1	8
530.712	1	7
530.882	1	2
531.052	1	10
531.222	1	9
531.392	1	5
531.563	1	7
531.733	1	-2
531.903	1	11
532.073	1	11
532.243	1	10
532.413	1	6
532.583	1	0
532.753	1	3
532.923	1	7
533.093	1	1
533.263	1	-4
533.433	1	7
533.603	1	12
533.773	1	-1
533.943	1	-1
534.113	1	13
534.284	1	-10
534.454	1	6
534.624	1	14
534.794	1	0
534.964	1	1
535.134	1	0
535.304	1	1
535.474	1	23
535.644	1	-4
535.814	1	0
535.984	1	-1
536.154	1	5
536.324	1	-1
536.494	1	9
536.664	1	6
536.834	1	9
537.004	1	2
537.174	1	12
537.344	1	5
537.514	1	-9
537.685	1	-2
537.855	1	8
538.025	1	7
538.195	1	-3
538.365	1	9
538.535	1	-1
538.705	1	4
538.875	1	5
539.045	1	1
539.215	1	1
539.385	1	11
539.555	1	9
539.725	1	3
539.895	1	-7
540.065	1	13
540.235	1	6
540.405	1	6
540.575	1	-5
540.745	1	0
540.915	1	13
541.085	1	12
541.255	1	7
541.425	1	11
541.595	1	-3
541.765	1	5
541.935	1	7
542.105	1	7
542.275	1	5
542.445	1	-13
542.615	1	9
542.785	1	-2
542.955	1	1
543.125	1	0
543.295	1	11
543.465	1	5
543.635	1	2
543.805	1	16
543.975	1	2
544.145	1	10
544.315	1	-1
544.485	1	11
544.655	1	1
544.825	1	-13
544.995	1	0
545.165	1	0
545.335	1	9
545.505	1	4
545.675	1	0
545.845	1	6
546.015	1	5
546.185	1	4
546.355	1	17
546.525	1	3
546.695	1	6
546.865	1	-1
547.035	1	0
547.205	1	-8
547.375	1	4
547.545	1	12
547.715	1	-2
547.885	1	-2
548.055	1	-5
548.225	1	2
548.395	1	2
548.565	1	7
548.735	1	4
548.905	1	7
549.075	1	10
549.245	1	1
549.415	1	-5
549.585	1	6
549.755	1	9
549.925	1	4
550.095	1	3
550.265	1	2
550.435	1	9
550.605	1	-3
550.775	1	-2
550.945	1	6
551.115	1	9
551.285	1	3
551.455	1	-5
551.625	1	3
551.795	1	4
551.965	1	-3
552.135	1	-4
552.305	1	-1
552.475	1	-5
552.645	1	8
552.815	1	1
552.985	1	4
553.155	1	2
553.325	1	2
553.495	1	5
553.665	1	4
553.835	1	5
554.004	1	3
554.174	1	-1
554.344	1	-1
554.514	1	9
554.684	1	7
554.854	1	10
555.024	1	3
555.194	1	-4
555.364	1	6
555.534	1	-2
555.704	1	6
555.874	1	8
556.044	1	3
556.214	1	-8
556.384	1	-4
556.554	1	16
556.724	1	8
556.894	1	-6
557.064	1	5
557.234	1	-5
557.404	1	4
557.573	1	6
557.743	1	8
557.913	1	3
558.083	1	0
558.253	1	5
558.423	1	4
558.593	1	5
558.763	1	-8
558.933	1	8
559.103	1	11
559.273	1	2
559.443	1	15
559.613	1	4
559.783	1	-1
559.953	1	-1
560.122	1	9
560.292	1	5
560.462	1	3
560.632	1	5
560.802	1	5
560.972	1	10
561.142	1	10
561.312	1	-2
561.482	1	5
561.652	1	-2
561.822	1	1
561.992	1	-2
562.162	1	5
562.331	1	1
562.501	1	-1
562.671	1	9
562.841	1	-7
563.011	1	9
563.181	1	2
563.351	1	-3
563.521	1	7
563.691	1	-9
563.861	1	6
564.031	1	10
564.201	1	15
564.370	1	-11
564.540	1	3
564.710	1	-8
564.880	1	9
565.050	1	7
565.220	1	-4
565.390	1	3
565.560	1	13
565.730	1	5
565.900	1	7
566.069	1	9
566.239	1	7
566.409	1	3
566.579	1	6
566.749	1	-2
566.919	1	13
567.089	1	9
567.259	1	13
567.429	1	-4
567.599	1	2
567.768	1	6
567.938	1	0
568.108	1	-3
568.278	1	3
568.448	1	8
568.618	1	-12
568.788	1	7
568.958	1	-1
569.128	1	8
569.297	1	-1
569.467	1	-3
569.637	1	8
569.807	1	10
569.977	1	0
570.147	1	10
570.317	1	-7
570.487	1	2
570.656	1	-1
570.826	1	3
570.996	1	-8
571.166	1	16
571.336	1	0
571.506	1	2
571.676	1	7
571.846	1	5
572.015	1	11
572.185	1	-6
572.355	1	9
572.525	1	2
572.695	1	-1
572.865	1	1
573.035	1	7
573.205	1	5
573.374	1	-7
573.544	1	-7
573.714	1	7
573.884	1	11
574.054	1	15
574.224	1	2
574.394	1	-2
574.563	1	-4
574.733	1	-7
574.903	1	4
575.073	1	7
575.243	1	4
575.413	1	7
575.583	1	1
575.752	1	5
575.922	1	2
576.092	1	1
576.262	1	-2
576.432	1	4
576.602	1	1
576.772	1	12
576.941	1	0
577.111	1	-4
577.281	1	-6
577.451	1	6
577.621	1	11
577.791	1	16
577.960	1	-7
578.130	1	3
578.300	1	8
578.470	1	16
578.640	1	-2
578.810	1	0
578.979	1	5
579.149	1	8
579.319	1	1
579.489	1	7
579.659	1	3
579.829	1	-1
579.998	1	14
580.168	1	8
580.338	1	10
580.508	1	2
580.678	1	2
580.848	1	-4
581.017	1	-1
581.187	1	1
581.357	1	-11
581.527	1	8
581.697	1	13
581.867	1	0
582.036	1	9
582.206	1	0
582.376	1	8
582.546	1	-3
582.716	1	-1
582.885	1	-6
583.055	1	0
583.225	1	-14
583.395	1	7
583.565	1	-5
583.735	1	1
583.904	1	3
584.074	1	10
584.244	1	1
584.414	1	5
584.584	1	8
584.753	1	-2
584.923	1	5
585.093	1	-7
585.263	1	1
585.433	1	9
585.602	1	-12
585.772	1	-4
585.942	1	7
586.112	1	2
586.282	1	4
586.451	1	-4
586.621	1	-5
586.791	1	-2
586.961	1	6
587.131	1	10
587.300	1	-1
587.470	1	12
587.640	1	13
587.810	1	2
587.980	1	4
588.149	1	4
588.319	1	2
588.489	1	-4
588.659	1	-1
588.829	1	4
588.998	1	6
589.168	1	10
589.338	1	7
589.508	1	9
589.677	1	-8
589.847	1	-9
590.017	1	23
590.187	1	-1
590.357	1	14
590.526	1	10
590.696	1	5
590.866	1	12
591.036	1	-2
591.205	1	9
591.375	1	-4
591.545	1	7
591.715	1	9
591.885	1	-4
592.054	1	1
592.224	1	2
592.394	1	4
592.564	1	4
592.733	1	4
592.903	1	0
593.073	1	4
593.243	1	-1
593.412	1	0
593.582	1	-1
593.752	1	-7
593.922	1	5
594.091	1	4
594.261	1	5
594.431	1	-4
594.601	1	3
594.771	1	-6
594.940	1	-4
595.110	1	-6
595.280	1	15
595.450	1	-6
595.619	1	-8
595.789	1	4
595.959	1	8
596.129	1	3
596.298	1	2
596.468	1	10
596.638	1	10
596.808	1	1
596.977	1	2
597.147	1	2
597.317	1	5
597.487	1	6
597.656	1	7
597.826	1	4
597.996	1	1
598.166	1	9
598.335	1	-8
598.505	1	5
598.675	1	-4
598.844	1	4
599.014	1	-10
599.184	1	10
599.354	1	-2
599.523	1	4
599.693	1	-9
599.863	1	-1
600.033	1	6
600.202	1	-4
600.372	1	6
600.542	1	10
600.712	1	-4
600.881	1	0
601.051	1	11
601.221	1	7
601.390	1	-9
601.560	1	4
601.730	1	5
601.900	1	-3
602.069	1	10
602.239	1	-2
602.409	1	-10
602.578	1	-1
602.748	1	2
602.918	1	5
603.088	1	10
603.257	1	9
603.427	1	-1
603.597	1	6
603.767	1	0
603.936	1	8
604.106	1	2
604.276	1	4
604.445	1	11
604.615	1	0
604.785	1	-2
604.954	1	-3
605.124	1	5
605.294	1	-4
605.464	1	-8
605.633	1	0
605.803	1	10
605.973	1	1
606.142	1	6
606.312	1	6
606.482	1	4
606.652	1	12
606.821	1	-6
606.991	1	0
607.161	1	5
607.330	1	6
607.500	1	5
607.670	1	-4
607.839	1	11
608.009	1	10
608.179	1	-2
608.348	1	4
608.518	1	9
608.688	1	3
608.858	1	-1
609.027	1	-8
609.197	1	-1
609.367	1	10
609.536	1	11
609.706	1	4
609.876	1	4
610.045	1	-2
610.215	1	8
610.385	1	0
610.554	1	-1
610.724	1	7
610.894	1	-3
611.063	1	5
611.233	1	0
611.403	1	5
611.572	1	3
611.742	1	6
611.912	1	1
612.081	1	0
612.251	1	7
612.421	1	2
612.590	1	6
612.760	1	1
612.930	1	1
613.099	1	0
613.269	1	11
613.439	1	11
613.608	1	6
613.778	1	11
613.948	1	-6
614.117	1	1
614.287	1	8
614.457	1	6
614.626	1	9
614.796	1	8
614.966	1	0
615.135	1	-1
615.305	1	10
615.475	1	8
615.644	1	3
615.814	1	6
615.984	1	1
616.153	1	3
616.323	1	-2
616.493	1	-3
616.662	1	9
616.832	1	3
617.002	1	8
617.171	1	3
617.341	1	-4
617.511	1	-8
617.680	1	5
617.850	1	10
618.019	1	13
618.189	1	17
618.359	1	12
618.528	1	4
618.698	1	6
618.868	1	-4
619.037	1	6
619.207	1	-3
619.377	1	-5
619.546	1	8
619.716	1	5
619.885	1	13
620.055	1	-6
620.225	1	8
620.394	1	-7
620.564	1	14
620.734	1	3
620.903	1	-7
621.073	1	11
621.242	1	8
621.412	1	2
621.582	1	4
621.751	1	11
621.921	1	1
622.091	1	0
622.260	1	6
622.430	1	10
622.599	1	-7
622.769	1	-1
622.939	1	13
623.108	1	1
623.278	1	-13
623.448	1	-4
623.617	1	0
623.787	1	-2
623.956	1	3
624.126	1	10
624.296	1	-7
624.465	1	7
624.635	1	8
624.804	1	0
624.974	1	-1
625.144	1	10
625.313	1	1
625.483	1	-6
625.652	1	-4
625.822	1	2
625.992	1	2
626.161	1	13
626.331	1	6
626.501	1	5
626.670	1	0
626.840	1	-3
627.009	1	-6
627.179	1	9
627.348	1	11
627.518	1	8
627.688	1	-1
627.857	1	5
628.027	1	-5
628.196	1	-1
628.366	1	11
628.536	1	1
628.705	1	3
628.875	1	3
629.044	1	3
629.214	1	9
629.384	1	5
629.553	1	17
629.723	1	4
629.892	1	11
630.062	1	2
630.232	1	1
630.401	1	1
630.571	1	6
630.740	1	4
630.910	1	5
631.079	1	5
631.249	1	-2
631.419	1	6
631.588	1	-10
631.758	1	-1
631.927	1	0
632.097	1	10
632.266	1	-3
632.436	1	3
632.606	1	-3
632.775	1	5
632.945	1	4
633.114	1	9
633.284	1	9
633.453	1	4
633.623	1	-2
633.793	1	12
633.962	1	5
634.132	1	4
634.301	1	0
634.471	1	8
634.640	1	9
634.810	1	4
634.979	1	5
635.149	1	9
635.319	1	4
635.488	1	3
635.658	1	-5
635.827	1	-2
635.997	1	-3
636.166	1	7
636.336	1	-3
636.505	1	9
636.675	1	-4
636.845	1	12
637.014	1	12
637.184	1	3
637.353	1	8
637.523	1	3
637.692	1	2
637.862	1	-2
638.031	1	5
638.201	1	12
638.370	1	8
638.540	1	6
638.710	1	6
638.879	1	-6
639.049	1	-1
639.218	1	7
639.388	1	0
639.557	1	2
639.727	1	-2
639.896	1	8
640.066	1	5
640.235	1	4
640.405	1	5
640.574	1	9
640.744	1	1
640.914	1	11
641.083	1	1
641.253	1	0
641.422	1	-6
641.592	1	12
641.761	1	-3
641.931	1	3
642.100	1	18
642.270	1	6
642.439	1	5
642.609	1	15
642.778	1	3
642.948	1	-3
643.117	1	10
643.287	1	7
643.456	1	-7
643.626	1	9
643.795	1	8
643.965	1	1
644.134	1	11
644.304	1	1
644.473	1	11
644.643	1	18
644.812	1	2
644.982	1	11
645.151	1	-3
645.321	1	-3
645.490	1	16
645.660	1	-3
645.829	1	-7
645.999	1	1
646.168	1	11
646.338	1	2
646.507	1	1
646.677	1	1
646.846	1	8
647.016	1	-14
647.185	1	5
647.355	1	-13
647.524	1	8
647.694	1	14
647.863	1	10
648.033	1	6
648.202	1	11
648.372	1	1
648.541	1	2
648.711	1	4
648.880	1	0
649.050	1	-2
649.219	1	6
649.389	1	9
649.558	1	10
649.728	1	2
649.897	1	-3
650.067	1	6
650.236	1	8
650.406	1	11
650.575	1	7
650.745	1	16
650.914	1	-5
651.084	1	-1
651.253	1	9
651.423	1	8
651.592	1	10
651.762	1	-4
651.931	1	6
652.101	1	7
652.270	1	7
652.440	1	11
652.609	1	-5
652.778	1	0
652.948	1	6
653.117	1	7
653.287	1	5
653.456	1	10
653.626	1	14
653.795	1	7
653.965	1	12
654.134	1	-5
654.304	1	-11
654.473	1	2
654.643	1	16
654.812	1	1
654.982	1	-4
655.151	1	-4
655.320	1	5
655.490	1	2
655.659	1	18
655.829	1	7
655.998	1	3
656.168	1	-1
656.337	1	3
656.507	1	14
656.676	1	18
656.846	1	13
657.015	1	8
657.184	1	13
657.354	1	10
657.523	1	6
657.693	1	18
657.862	1	3
658.032	1	8
658.201	1	-1
658.371	1	9
658.540	1	9
658.709	1	1
658.879	1	6
659.048	1	7
659.218	1	4
659.387	1	5
659.557	1	3
659.726	1	7
659.895	1	1
660.065	1	-6
660.234	1	9
660.404	1	1
660.573	1	4
660.743	1	-2
660.912	1	8
661.081	1	12
661.251	1	0
661.420	1	8
661.590	1	6
661.759	1	11
661.929	1	7
662.098	1	9
662.267	1	3
662.437	1	9
662.606	1	8
662.776	1	11
662.945	1	-3
663.115	1	6
663.284	1	4
663.453	1	5
663.623	1	2
663.792	1	4
663.962	1	6
664.131	1	13
664.300	1	8
664.470	1	2
664.639	1	7
664.809	1	3
664.978	1	8
665.148	1	5
665.317	1	4
665.486	1	8
665.656	1	4
665.825	1	14
665.995	1	3
666.164	1	0
666.333	1	12
666.503	1	6
666.672	1	2
666.842	1	-5
667.011	1	0
667.180	1	16
667.350	1	-7
667.519	1	5
667.689	1	6
667.858	1	3
668.027	1	15
668.197	1	7
668.366	1	2
668.536	1	10
668.705	1	8
668.874	1	-1
669.044	1	0
669.213	1	11
669.382	1	-4
669.552	1	10
669.721	1	12
669.891	1	20
670.060	1	14
670.229	1	14
670.399	1	3
670.568	1	12
670.738	1	13
670.907	1	-1
671.076	1	-3
671.246	1	-1
671.415	1	5
671.584	1	7
671.754	1	6
671.923	1	4
672.093	1	10
672.262	1	-9
672.431	1	2
672.601	1	-1
672.770	1	0
672.939	1	7
673.109	1	7
673.278	1	14
673.448	1	15
673.617	1	8
673.786	1	1
