325.333	1	7
325.504	1	-2
325.675	1	7
325.846	1	6
326.017	1	1
326.188	1	-3
326.359	1	6
326.531	1	-15
326.702	1	7
326.873	1	13
327.044	1	5
327.215	1	-3
327.386	1	10
327.557	1	-5
327.728	1	2
327.899	1	1
328.070	1	9
328.241	1	8
328.412	1	-6
328.583	1	14
328.754	1	7
328.926	1	10
329.097	1	0
329.268	1	16
329.439	1	4
329.610	1	12
329.781	1	-8
329.952	1	9
330.123	1	11
330.294	1	0
330.465	1	-1
330.636	1	13
330.807	1	3
330.978	1	5
331.149	1	3
331.320	1	7
331.492	1	8
331.663	1	6
331.834	1	11
332.005	1	4
332.176	1	12
332.347	1	8
332.518	1	3
332.689	1	17
332.860	1	5
333.031	1	17
333.202	1	9
333.373	1	5
333.544	1	11
333.715	1	17
333.886	1	2
334.057	1	10
334.228	1	-3
334.399	1	4
334.570	1	11
334.741	1	0
334.912	1	13
335.084	1	26
335.255	1	9
335.426	1	-4
335.597	1	8
335.768	1	-2
335.939	1	13
336.110	1	-2
336.281	1	-4
336.452	1	-8
336.623	1	13
336.794	1	8
336.965	1	4
337.136	1	7
337.307	1	8
337.478	1	-2
337.649	1	2
337.820	1	4
337.991	1	3
338.162	1	5
338.333	1	-1
338.504	1	4
338.675	1	20
338.846	1	10
339.017	1	4
339.188	1	-7
339.359	1	0
339.530	1	10
339.701	1	1
339.872	1	14
340.043	1	-2
340.214	1	13
340.385	1	14
340.556	1	-8
340.727	1	14
340.898	1	12
341.069	1	8
341.240	1	9
341.411	1	14
341.582	1	14
341.753	1	-11
341.924	1	0
342.095	1	7
342.266	1	21
342.437	1	6
342.608	1	8
342.779	1	14
342.950	1	12
343.121	1	8
343.292	1	-4
343.463	1	18
343.634	1	7
343.805	1	22
343.976	1	9
344.147	1	5
344.318	1	10
344.489	1	15
344.660	1	16
344.831	1	5
345.002	1	5
345.173	1	12
345.344	1	16
345.515	1	10
345.686	1	11
345.857	1	12
346.028	1	12
346.199	1	-4
346.370	1	14
346.541	1	2
346.712	1	3
346.883	1	7
347.054	1	5
347.225	1	2
347.396	1	6
347.567	1	5
347.738	1	11
347.909	1	21
348.080	1	10
348.251	1	15
348.422	1	13
348.593	1	12
348.764	1	8
348.935	1	6
349.106	1	10
349.277	1	15
349.448	1	16
349.619	1	11
349.790	1	8
349.961	1	13
350.132	1	23
350.303	1	1
350.474	1	20
350.645	1	10
350.816	1	15
350.987	1	12
351.157	1	11
351.328	1	17
351.499	1	16
351.670	1	5
351.841	1	13
352.012	1	11
352.183	1	22
352.354	1	19
352.525	1	16
352.696	1	19
352.867	1	10
353.038	1	19
353.209	1	15
353.380	1	13
353.551	1	4
353.722	1	18
353.893	1	11
354.064	1	19
354.235	1	5
354.406	1	17
354.576	1	5
354.747	1	15
354.918	1	20
355.089	1	19
355.260	1	13
355.431	1	19
355.602	1	8
355.773	1	9
355.944	1	21
356.115	1	9
356.286	1	18
356.457	1	23
356.628	1	18
356.799	1	13
356.970	1	21
357.141	1	10
357.311	1	21
357.482	1	10
357.653	1	14
357.824	1	21
357.995	1	19
358.166	1	9
358.337	1	15
358.508	1	18
358.679	1	17
358.850	1	15
359.021	1	16
359.192	1	24
359.363	1	9
359.533	1	14
359.704	1	14
359.875	1	10
360.046	1	13
360.217	1	4
360.388	1	16
360.559	1	19
360.730	1	8
360.901	1	15
361.072	1	26
361.243	1	20
361.414	1	25
361.584	1	5
361.755	1	22
361.926	1	13
362.097	1	17
362.268	1	14
362.439	1	11
362.610	1	26
362.781	1	9
362.952	1	11
363.123	1	13
363.293	1	5
363.464	1	23
363.635	1	31
363.806	1	13
363.977	1	10
364.148	1	-1
364.319	1	15
364.490	1	15
364.661	1	11
364.832	1	20
365.002	1	14
365.173	1	13
365.344	1	31
365.515	1	16
365.686	1	5
365.857	1	20
366.028	1	24
366.199	1	8
366.370	1	23
366.540	1	7
366.711	1	-2
366.882	1	14
367.053	1	5
367.224	1	26
367.395	1	13
367.566	1	15
367.737	1	28
367.908	1	25
368.078	1	13
368.249	1	27
368.420	1	13
368.591	1	3
368.762	1	18
368.933	1	20
369.104	1	7
369.274	1	17
369.445	1	21
369.616	1	16
369.787	1	18
369.958	1	14
370.129	1	15
370.300	1	17
370.471	1	16
370.641	1	18
370.812	1	19
370.983	1	17
371.154	1	22
371.325	1	26
371.496	1	16
371.667	1	21
371.837	1	8
372.008	1	17
372.179	1	10
372.350	1	18
372.521	1	13
372.692	1	18
372.863	1	26
373.033	1	14
373.204	1	9
373.375	1	13
373.546	1	13
373.717	1	15
373.888	1	29
374.059	1	23
374.229	1	29
374.400	1	27
374.571	1	21
374.742	1	29
374.913	1	24
375.084	1	18
375.254	1	23
375.425	1	26
375.596	1	15
375.767	1	22
375.938	1	24
376.109	1	23
376.279	1	20
376.450	1	18
376.621	1	20
376.792	1	16
376.963	1	23
377.134	1	34
377.304	1	16
377.475	1	16
377.646	1	15
377.817	1	15
377.988	1	25
378.159	1	33
378.329	1	9
378.500	1	16
378.671	1	27
378.842	1	13
379.013	1	9
379.184	1	17
379.354	1	30
379.525	1	25
379.696	1	26
379.867	1	34
380.038	1	16
380.209	1	12
380.379	1	18
380.550	1	15
380.721	1	18
380.892	1	20
381.063	1	29
381.233	1	31
381.404	1	16
381.575	1	28
381.746	1	22
381.917	1	18
382.087	1	18
382.258	1	20
382.429	1	28
382.600	1	30
382.771	1	17
382.941	1	18
383.112	1	17
383.283	1	22
383.454	1	23
383.625	1	24
383.795	1	23
383.966	1	26
384.137	1	13
384.308	1	24
384.479	1	34
384.649	1	31
384.820	1	18
384.991	1	32
385.162	1	17
385.333	1	19
385.503	1	19
385.674	1	10
385.845	1	35
386.016	1	27
386.187	1	21
386.357	1	36
386.528	1	25
386.699	1	26
386.870	1	40
387.041	1	21
387.211	1	16
387.382	1	38
387.553	1	28
387.724	1	21
387.894	1	38
388.065	1	19
388.236	1	29
388.407	1	30
388.578	1	15
388.748	1	5
388.919	1	40
389.090	1	17
389.261	1	25
389.431	1	36
389.602	1	25
389.773	1	30
389.944	1	25
390.114	1	24
390.285	1	29
390.456	1	16
390.627	1	19
390.798	1	17
390.968	1	23
391.139	1	25
391.310	1	28
391.481	1	31
391.651	1	32
391.822	1	16
391.993	1	23
392.164	1	29
392.334	1	23
392.505	1	22
392.676	1	37
392.847	1	29
393.017	1	35
393.188	1	29
393.359	1	17
393.530	1	21
393.700	1	34
393.871	1	20
394.042	1	28
394.213	1	30
394.383	1	30
394.554	1	43
394.725	1	38
394.896	1	27
395.066	1	30
395.237	1	29
395.408	1	23
395.579	1	10
395.749	1	33
395.920	1	20
396.091	1	35
396.262	1	29
396.432	1	22
396.603	1	38
396.774	1	37
396.945	1	28
397.115	1	39
397.286	1	21
397.457	1	25
397.627	1	38
397.798	1	30
397.969	1	26
398.140	1	30
398.310	1	8
398.481	1	34
398.652	1	30
398.823	1	26
398.993	1	36
399.164	1	34
399.335	1	46
399.505	1	38
399.676	1	29
399.847	1	28
400.018	1	35
400.188	1	30
400.359	1	27
400.530	1	23
400.700	1	25
400.871	1	23
401.042	1	21
401.213	1	20
401.383	1	29
401.554	1	35
401.725	1	37
401.895	1	14
402.066	1	28
402.237	1	41
402.408	1	33
402.578	1	26
402.749	1	29
402.920	1	30
403.090	1	25
403.261	1	21
403.432	1	18
403.603	1	29
403.773	1	40
403.944	1	35
404.115	1	41
404.285	1	40
404.456	1	19
404.627	1	27
404.797	1	23
404.968	1	20
405.139	1	29
405.310	1	46
405.480	1	31
405.651	1	28
405.822	1	33
405.992	1	28
406.163	1	30
406.334	1	24
406.504	1	36
406.675	1	49
406.846	1	23
407.016	1	35
407.187	1	38
407.358	1	16
407.528	1	32
407.699	1	17
407.870	1	28
408.041	1	29
408.211	1	30
408.382	1	34
408.553	1	32
408.723	1	28
408.894	1	31
409.065	1	32
409.235	1	32
409.406	1	29
409.577	1	35
409.747	1	41
409.918	1	31
410.089	1	36
410.259	1	32
410.430	1	35
410.601	1	40
410.771	1	37
410.942	1	41
411.113	1	39
411.283	1	24
411.454	1	38
411.625	1	31
411.795	1	22
411.966	1	43
412.137	1	25
412.307	1	16
412.478	1	30
412.649	1	27
412.819	1	24
412.990	1	35
413.161	1	18
413.331	1	26
413.502	1	35
413.672	1	27
413.843	1	32
414.014	1	23
414.184	1	29
414.355	1	33
414.526	1	31
414.696	1	40
414.867	1	34
415.038	1	12
415.208	1	36
415.379	1	40
415.550	1	35
415.720	1	33
415.891	1	31
416.062	1	42
416.232	1	32
416.403	1	39
416.573	1	43
416.744	1	29
416.915	1	32
417.085	1	33
417.256	1	37
417.427	1	19
417.597	1	36
417.768	1	30
417.939	1	20
418.109	1	38
418.280	1	33
418.450	1	23
418.621	1	20
418.792	1	25
418.962	1	32
419.133	1	47
419.304	1	23
419.474	1	34
419.645	1	37
419.815	1	24
419.986	1	33
420.157	1	39
420.327	1	29
420.498	1	45
420.669	1	35
420.839	1	46
421.010	1	34
421.180	1	33
421.351	1	29
421.522	1	24
421.692	1	23
421.863	1	34
422.033	1	32
422.204	1	27
422.375	1	35
422.545	1	35
422.716	1	29
422.886	1	35
423.057	1	35
423.228	1	37
423.398	1	27
423.569	1	40
423.740	1	17
423.910	1	25
424.081	1	31
424.251	1	19
424.422	1	39
424.593	1	24
424.763	1	36
424.934	1	35
425.104	1	25
425.275	1	31
425.445	1	25
425.616	1	22
425.787	1	22
425.957	1	24
426.128	1	25
426.298	1	27
426.469	1	22
426.640	1	30
426.810	1	23
426.981	1	16
427.151	1	18
427.322	1	31
427.493	1	24
427.663	1	23
427.834	1	20
428.004	1	26
428.175	1	33
428.345	1	26
428.516	1	16
428.687	1	25
428.857	1	9
429.028	1	21
429.198	1	25
429.369	1	26
429.540	1	31
429.710	1	15
429.881	1	33
430.051	1	18
430.222	1	17
430.392	1	24
430.563	1	32
430.734	1	30
430.904	1	25
431.075	1	29
431.245	1	25
431.416	1	37
431.586	1	28
431.757	1	21
431.927	1	29
432.098	1	18
432.269	1	19
432.439	1	24
432.610	1	25
432.780	1	28
432.951	1	27
433.121	1	21
433.292	1	21
433.462	1	38
433.633	1	28
433.804	1	30
433.974	1	34
434.145	1	29
434.315	1	27
434.486	1	20
434.656	1	27
434.827	1	27
434.997	1	18
435.168	1	32
435.339	1	43
435.509	1	22
435.680	1	19
435.850	1	28
436.021	1	23
436.191	1	22
436.362	1	29
436.532	1	22
436.703	1	29
436.873	1	24
437.044	1	16
437.214	1	18
437.385	1	24
437.556	1	20
437.726	1	34
437.897	1	33
438.067	1	32
438.238	1	25
438.408	1	19
438.579	1	28
438.749	1	12
438.920	1	14
439.090	1	29
439.261	1	17
439.431	1	15
439.602	1	16
439.772	1	21
439.943	1	38
440.113	1	28
440.284	1	29
440.455	1	21
440.625	1	28
440.796	1	27
440.966	1	17
441.137	1	17
441.307	1	18
441.478	1	25
441.648	1	27
441.819	1	26
441.989	1	23
442.160	1	37
442.330	1	17
442.501	1	34
442.671	1	22
442.842	1	9
443.012	1	23
443.183	1	26
443.353	1	21
443.524	1	28
443.694	1	23
443.865	1	22
444.035	1	19
444.206	1	15
444.376	1	14
444.547	1	31
444.717	1	21
444.888	1	16
445.058	1	28
445.229	1	29
445.399	1	16
445.570	1	20
445.740	1	19
445.911	1	16
446.081	1	27
446.252	1	21
446.422	1	20
446.593	1	20
446.763	1	32
446.934	1	21
447.104	1	20
447.275	1	27
447.445	1	16
447.616	1	34
447.786	1	20
447.957	1	26
448.127	1	25
448.298	1	27
448.468	1	20
448.639	1	20
448.809	1	28
448.979	1	19
449.150	1	26
449.320	1	17
449.491	1	27
449.661	1	15
449.832	1	21
450.002	1	25
450.173	1	21
450.343	1	20
450.514	1	26
450.684	1	17
450.855	1	26
451.025	1	24
451.196	1	24
451.366	1	20
451.537	1	23
451.707	1	10
451.878	1	20
452.048	1	29
452.218	1	28
452.389	1	26
452.559	1	22
452.730	1	37
452.900	1	33
453.071	1	12
453.241	1	18
453.412	1	18
453.582	1	20
453.753	1	24
453.923	1	17
454.093	1	27
454.264	1	29
454.434	1	18
454.605	1	21
454.775	1	21
454.946	1	21
455.116	1	18
455.287	1	16
455.457	1	10
455.628	1	9
455.798	1	17
455.968	1	28
456.139	1	28
456.309	1	16
456.480	1	11
456.650	1	19
456.821	1	14
456.991	1	19
457.161	1	18
457.332	1	25
457.502	1	7
457.673	1	22
457.843	1	20
458.014	1	13
458.184	1	14
458.355	1	16
458.525	1	22
458.695	1	12
458.866	1	19
459.036	1	27
459.207	1	18
459.377	1	17
459.548	1	22
459.718	1	16
459.888	1	7
460.059	1	27
460.229	1	20
460.400	1	20
460.570	1	15
460.740	1	22
460.911	1	22
461.081	1	12
461.252	1	17
461.422	1	14
461.593	1	17
461.763	1	13
461.933	1	14
462.104	1	17
462.274	1	24
462.445	1	32
462.615	1	14
462.785	1	14
462.956	1	30
463.126	1	23
463.297	1	10
463.467	1	9
463.638	1	18
463.808	1	23
463.978	1	10
464.149	1	25
464.319	1	12
464.490	1	32
464.660	1	6
464.830	1	16
465.001	1	20
465.171	1	7
465.342	1	15
465.512	1	14
465.682	1	13
465.853	1	22
466.023	1	8
466.194	1	12
466.364	1	22
466.534	1	20
466.705	1	23
466.875	1	10
467.045	1	16
467.216	1	25
467.386	1	4
467.557	1	17
467.727	1	13
467.897	1	10
468.068	1	21
468.238	1	16
468.409	1	1
468.579	1	25
468.749	1	13
468.920	1	26
469.090	1	20
469.260	1	3
469.431	1	10
469.601	1	10
469.772	1	27
469.942	1	5
470.112	1	27
470.283	1	15
470.453	1	8
470.623	1	14
470.794	1	10
470.964	1	21
471.135	1	21
471.305	1	3
471.475	1	22
471.646	1	15
471.816	1	13
471.986	1	16
472.157	1	23
472.327	1	0
472.497	1	12
472.668	1	4
472.838	1	9
473.009	1	12
473.179	1	8
473.349	1	9
473.520	1	16
473.690	1	15
473.860	1	16
474.031	1	3
474.201	1	0
474.371	1	13
474.542	1	27
474.712	1	19
474.882	1	20
475.053	1	20
475.223	1	6
475.394	1	23
475.564	1	20
475.734	1	14
475.905	1	23
476.075	1	13
476.245	1	22
476.416	1	11
476.586	1	22
476.756	1	16
476.927	1	16
477.097	1	5
477.267	1	12
477.438	1	10
477.608	1	5
477.778	1	12
477.949	1	13
478.119	1	25
478.289	1	16
478.460	1	17
478.630	1	19
478.800	1	13
478.971	1	13
479.141	1	10
479.311	1	3
479.482	1	9
479.652	1	10
479.822	1	17
479.993	1	17
480.163	1	26
480.333	1	11
480.504	1	19
480.674	1	17
480.844	1	2
481.015	1	28
481.185	1	8
481.355	1	11
481.525	1	2
481.696	1	4
481.866	1	7
482.036	1	13
482.207	1	11
482.377	1	9
482.547	1	14
482.718	1	1
482.888	1	16
483.058	1	14
483.229	1	16
483.399	1	11
483.569	1	10
483.740	1	11
483.910	1	23
484.080	1	12
484.250	1	11
484.421	1	11
484.591	1	16
484.761	1	26
484.932	1	11
485.102	1	13
485.272	1	12
485.443	1	22
485.613	1	8
485.783	1	13
485.953	1	11
486.124	1	21
486.294	1	19
486.464	1	9
486.635	1	19
486.805	1	26
486.975	1	7
487.146	1	15
487.316	1	10
487.486	1	12
487.656	1	10
487.827	1	16
487.997	1	-1
488.167	1	7
488.338	1	27
488.508	1	15
488.678	1	6
488.848	1	23
489.019	1	-4
489.189	1	2
489.359	1	13
489.529	1	11
489.700	1	12
489.870	1	19
490.040	1	5
490.211	1	1
490.381	1	11
490.551	1	14
490.721	1	20
490.892	1	14
491.062	1	6
491.232	1	10
491.402	1	9
491.573	1	1
491.743	1	8
491.913	1	10
492.084	1	15
492.254	1	11
492.424	1	5
492.594	1	2
492.765	1	2
492.935	1	11
493.105	1	15
493.275	1	15
493.446	1	19
493.616	1	16
493.786	1	3
493.956	1	12
494.127	1	12
494.297	1	5
494.467	1	4
494.637	1	9
494.808	1	5
494.978	1	7
495.148	1	10
495.318	1	7
495.489	1	7
495.659	1	15
495.829	1	12
495.999	1	11
496.170	1	9
496.340	1	13
496.510	1	16
496.680	1	0
496.851	1	10
497.021	1	2
497.191	1	5
497.361	1	4
497.532	1	9
497.702	1	9
497.872	1	11
498.042	1	14
498.213	1	11
498.383	1	1
498.553	1	6
498.723	1	9
498.894	1	10
499.064	1	2
499.234	1	15
499.404	1	12
499.574	1	12
499.745	1	16
499.915	1	10
500.085	1	13
500.255	1	12
500.426	1	10
500.596	1	13
500.766	1	3
500.936	1	6
501.106	1	0
501.277	1	16
501.447	1	13
501.617	1	9
501.787	1	1
501.958	1	-5
502.128	1	5
502.298	1	7
502.468	1	10
502.638	1	13
502.809	1	10
502.979	1	5
503.149	1	-1
503.319	1	-2
503.489	1	9
503.660	1	9
503.830	1	3
504.000	1	4
504.170	1	3
504.340	1	17
504.511	1	14
504.681	1	9
504.851	1	4
505.021	1	13
505.192	1	6
505.362	1	23
505.532	1	3
505.702	1	-3
505.872	1	11
506.043	1	5
506.213	1	3
506.383	1	5
506.553	1	17
506.723	1	15
506.893	1	12
507.064	1	13
507.234	1	4
507.404	1	7
507.574	1	5
507.744	1	11
507.915	1	10
508.085	1	13
508.255	1	16
508.425	1	1
508.595	1	16
508.766	1	14
508.936	1	0
509.106	1	13
509.276	1	7
509.446	1	1
509.616	1	8
509.787	1	9
509.957	1	4
510.127	1	12
510.297	1	13
510.467	1	6
510.638	1	11
510.808	1	-4
510.978	1	3
511.148	1	11
511.318	1	5
511.488	1	-6
511.659	1	7
511.829	1	-9
511.999	1	14
512.169	1	15
512.339	1	14
512.509	1	0
512.680	1	-2
512.850	1	7
513.020	1	11
513.190	1	12
513.360	1	3
513.530	1	9
513.700	1	8
513.871	1	9
514.041	1	6
514.211	1	22
514.381	1	11
514.551	1	9
514.721	1	2
514.892	1	5
515.062	1	11
515.232	1	11
515.402	1	3
515.572	1	-4
515.742	1	8
515.912	1	11
516.083	1	12
516.253	1	10
516.423	1	0
516.593	1	7
516.763	1	7
516.933	1	5
517.104	1	14
517.274	1	10
517.444	1	10
517.614	1	4
517.784	1	3
517.954	1	6
518.124	1	9
518.294	1	8
518.465	1	3
518.635	1	12
518.805	1	-5
518.975	1	-3
519.145	1	8
519.315	1	6
519.485	1	-5
519.656	1	10
519.826	1	8
519.996	1	-1
520.166	1	5
520.336	1	11
520.506	1	2
520.676	1	8
520.846	1	25
521.017	1	3
521.187	1	6
521.357	1	6
521.527	1	6
521.697	1	-6
521.867	1	5
522.037	1	11
522.207	1	4
522.377	1	10
522.548	1	3
522.718	1	7
522.888	1	15
523.058	1	4
523.228	1	8
523.398	1	10
523.568	1	8
523.738	1	9
523.909	1	11
524.079	1	6
524.249	1	4
524.419	1	-3
524.589	1	2
524.759	1	-9
524.929	1	6
525.099	1	13
525.269	1	9
525.439	1	3
525.610	1	18
525.780	1	4
525.950	1	11
526.120	1	-4
526.290	1	4
526.460	1	-2
526.630	1	13
526.800	1	1
526.970	1	6
527.140	1	4
527.311	1	1
527.481	1	-4
527.651	1	9
527.821	1	-1
527.991	1	7
528.161	1	8
528.331	1	4
528.501	1	9
528.671	1	-3
528.841	1	2
529.011	1	8
529.181	1	9
529.352	1	3
529.522	1	-3
529.692	1	6
529.862	1	7
530.032	1	14
530.202	1	4
530.372	1	1
530.542	1	5
530.712	1	10
530.882	1	6
531.052	1	5
531.222	1	0
531.392	1	4
531.563	1	8
531.733	1	8
531.903	1	5
532.073	1	10
532.243	1	5
532.413	1	-1
532.583	1	5
532.753	1	2
532.923	1	-4
533.093	1	-4
533.263	1	2
533.433	1	0
533.603	1	7
533.773	1	3
533.943	1	3
534.113	1	-1
534.284	1	6
534.454	1	2
534.624	1	14
534.794	1	-2
534.964	1	9
535.134	1	3
535.304	1	-1
535.474	1	12
535.644	1	-6
535.814	1	5
535.984	1	-5
536.154	1	-2
536.324	1	2
536.494	1	9
536.664	1	8
536.834	1	6
537.004	1	-7
537.174	1	9
537.344	1	4
537.514	1	-5
537.685	1	11
537.855	1	14
538.025	1	7
538.195	1	-4
538.365	1	21
538.535	1	-1
538.705	1	-2
538.875	1	9
539.045	1	6
539.215	1	8
539.385	1	4
539.555	1	5
539.725	1	0
539.895	1	1
540.065	1	13
540.235	1	6
540.405	1	1
540.575	1	8
540.745	1	10
540.915	1	12
541.085	1	10
541.255	1	-1
541.425	1	2
541.595	1	3
541.765	1	7
541.935	1	1
542.105	1	0
542.275	1	2
542.445	1	-5
542.615	1	6
542.785	1	10
542.955	1	6
543.125	1	5
543.295	1	2
543.465	1	1
543.635	1	7
543.805	1	22
543.975	1	-1
544.145	1	10
544.315	1	0
544.485	1	14
544.655	1	4
544.825	1	3
544.995	1	6
545.165	1	0
545.335	1	2
545.505	1	-3
545.675	1	9
545.845	1	1
546.015	1	-2
546.185	1	10
546.355	1	6
546.525	1	9
546.695	1	4
546.865	1	2
547.035	1	2
547.205	1	-5
547.375	1	7
547.545	1	11
547.715	1	-5
547.885	1	9
548.055	1	6
548.225	1	3
548.395	1	-3
548.565	1	6
548.735	1	5
548.905	1	-1
549.075	1	-4
549.245	1	4
549.415	1	-5
549.585	1	-2
549.755	1	7
549.925	1	3
550.095	1	2
550.265	1	-3
550.435	1	1
550.605	1	6
550.775	1	5
550.945	1	14
551.115	1	0
551.285	1	-2
551.455	1	-4
551.625	1	14
551.795	1	2
551.965	1	4
552.135	1	1
552.305	1	10
552.475	1	-14
552.645	1	3
552.815	1	-4
552.985	1	6
553.155	1	3
553.325	1	9
553.495	1	4
553.665	1	-1
553.835	1	-4
554.004	1	7
554.174	1	-1
554.344	1	8
554.514	1	8
554.684	1	11
554.854	1	10
555.024	1	-2
555.194	1	-11
555.364	1	10
555.534	1	10
555.704	1	-3
555.874	1	3
556.044	1	6
556.214	1	1
556.384	1	-1
556.554	1	15
556.724	1	8
556.894	1	-1
557.064	1	4
557.234	1	-2
557.404	1	9
557.573	1	2
557.743	1	2
557.913	1	-4
558.083	1	3
558.253	1	9
558.423	1	3
558.593	1	9
558.763	1	-2
558.933	1	4
559.103	1	8
559.273	1	3
559.443	1	6
559.613	1	11
559.783	1	1
559.953	1	-1
560.122	1	14
560.292	1	-3
560.462	1	-5
560.632	1	8
560.802	1	2
560.972	1	7
561.142	1	5
561.312	1	0
561.482	1	2
561.652	1	11
561.822	1	0
561.992	1	2
562.162	1	-1
562.331	1	-8
562.501	1	-2
562.671	1	10
562.841	1	-3
563.011	1	8
563.181	1	5
563.351	1	-7
563.521	1	8
563.691	1	-5
563.861	1	-1
564.031	1	3
564.201	1	19
564.370	1	-3
564.540	1	4
564.710	1	-5
564.880	1	5
565.050	1	14
565.220	1	-1
565.390	1	7
565.560	1	1
565.730	1	-2
565.900	1	1
566.069	1	7
566.239	1	-1
566.409	1	9
566.579	1	5
566.749	1	0
566.919	1	10
567.089	1	2
567.259	1	14
567.429	1	-4
567.599	1	4
567.768	1	-2
567.938	1	-5
568.108	1	12
568.278	1	-1
568.448	1	-6
568.618	1	-5
568.788	1	8
568.958	1	-2
569.128	1	16
569.297	1	0
569.467	1	-1
569.637	1	7
569.807	1	7
569.977	1	8
570.147	1	6
570.317	1	-10
570.487	1	4
570.656	1	6
570.826	1	-1
570.996	1	3
571.166	1	9
571.336	1	6
571.506	1	7
571.676	1	9
571.846	1	10
572.015	1	9
572.185	1	-5
572.355	1	1
572.525	1	8
572.695	1	-6
572.865	1	-7
573.035	1	5
573.205	1	3
573.374	1	3
573.544	1	5
573.714	1	8
573.884	1	8
574.054	1	0
574.224	1	7
574.394	1	-6
574.563	1	4
574.733	1	2
574.903	1	3
575.073	1	3
575.243	1	6
575.413	1	11
575.583	1	1
575.752	1	3
575.922	1	0
576.092	1	0
576.262	1	5
576.432	1	4
576.602	1	1
576.772	1	6
576.941	1	8
577.111	1	-6
577.281	1	-14
577.451	1	2
577.621	1	16
577.791	1	-2
577.960	1	-3
578.130	1	9
578.300	1	3
578.470	1	11
578.640	1	-2
578.810	1	0
578.979	1	6
579.149	1	3
579.319	1	-1
579.489	1	2
579.659	1	2
579.829	1	2
579.998	1	3
580.168	1	14
580.338	1	7
580.508	1	7
580.678	1	2
580.848	1	0
581.017	1	-5
581.187	1	-3
581.357	1	-11
581.527	1	10
581.697	1	2
581.867	1	3
582.036	1	3
582.206	1	2
582.376	1	11
582.546	1	-4
582.716	1	-2
582.885	1	-7
583.055	1	7
583.225	1	-6
583.395	1	9
583.565	1	-3
583.735	1	4
583.904	1	2
584.074	1	6
584.244	1	2
584.414	1	1
584.584	1	12
584.753	1	-5
584.923	1	-2
585.093	1	4
585.263	1	0
585.433	1	2
585.602	1	-5
585.772	1	-4
585.942	1	4
586.112	1	-2
586.282	1	-1
586.451	1	3
586.621	1	-4
586.791	1	-1
586.961	1	-1
587.131	1	4
587.300	1	2
587.470	1	5
587.640	1	6
587.810	1	0
587.980	1	-2
588.149	1	0
588.319	1	11
588.489	1	4
588.659	1	5
588.829	1	-1
588.998	1	3
589.168	1	6
589.338	1	4
589.508	1	2
589.677	1	0
589.847	1	-9
590.017	1	7
590.187	1	-10
590.357	1	6
590.526	1	8
590.696	1	5
590.866	1	4
591.036	1	1
591.205	1	15
591.375	1	-1
591.545	1	0
591.715	1	3
591.885	1	-6
592.054	1	5
592.224	1	9
592.394	1	-1
592.564	1	1
592.733	1	7
592.903	1	7
593.073	1	-3
593.243	1	9
593.412	1	9
593.582	1	-2
593.752	1	-4
593.922	1	1
594.091	1	-1
594.261	1	2
594.431	1	3
594.601	1	6
594.771	1	13
594.940	1	0
595.110	1	7
595.280	1	8
595.450	1	3
595.619	1	0
595.789	1	5
595.959	1	11
596.129	1	2
596.298	1	0
596.468	1	6
596.638	1	4
596.808	1	6
596.977	1	2
597.147	1	7
597.317	1	-3
597.487	1	8
597.656	1	1
597.826	1	9
597.996	1	2
598.166	1	6
598.335	1	-4
598.505	1	3
598.675	1	-8
598.844	1	5
599.014	1	-6
599.184	1	13
599.354	1	-6
599.523	1	0
599.693	1	0
599.863	1	4
600.033	1	0
600.202	1	-1
600.372	1	4
600.542	1	18
600.712	1	-2
600.881	1	-1
601.051	1	19
601.221	1	5
601.390	1	-10
601.560	1	10
601.730	1	7
601.900	1	7
602.069	1	6
602.239	1	2
602.409	1	-3
602.578	1	9
602.748	1	1
602.918	1	8
603.088	1	-3
603.257	1	8
603.427	1	-3
603.597	1	7
603.767	1	-4
603.936	1	13
604.106	1	11
604.276	1	8
604.445	1	8
604.615	1	0
604.785	1	-2
604.954	1	-4
605.124	1	8
605.294	1	1
605.464	1	-6
605.633	1	3
605.803	1	7
605.973	1	0
606.142	1	1
606.312	1	10
606.482	1	-1
606.652	1	12
606.821	1	1
606.991	1	11
607.161	1	2
607.330	1	6
607.500	1	-1
607.670	1	-7
607.839	1	8
608.009	1	19
608.179	1	2
608.348	1	3
608.518	1	0
608.688	1	5
608.858	1	0
609.027	1	0
609.197	1	5
609.367	1	9
609.536	1	-3
609.706	1	-2
609.876	1	6
610.045	1	0
610.215	1	1
610.385	1	-1
610.554	1	4
610.724	1	7
610.894	1	4
611.063	1	5
611.233	1	4
611.403	1	-3
611.572	1	-3
611.742	1	0
611.912	1	4
612.081	1	6
612.251	1	5
612.421	1	1
612.590	1	9
612.760	1	-7
612.930	1	-2
613.099	1	3
613.269	1	4
613.439	1	5
613.608	1	2
613.778	1	3
613.948	1	1
614.117	1	6
614.287	1	8
614.457	1	5
614.626	1	-2
614.796	1	5
614.966	1	7
615.135	1	1
615.305	1	12
615.475	1	7
615.644	1	0
615.814	1	4
615.984	1	-6
616.153	1	-4
616.323	1	9
616.493	1	-6
616.662	1	4
616.832	1	-1
617.002	1	0
617.171	1	-3
617.341	1	0
617.511	1	-2
617.680	1	-2
617.850	1	6
618.019	1	5
618.189	1	14
618.359	1	11
618.528	1	2
618.698	1	7
618.868	1	-11
619.037	1	8
619.207	1	-7
619.377	1	-12
619.546	1	1
619.716	1	12
619.885	1	-3
620.055	1	-7
620.225	1	-5
620.394	1	-8
620.564	1	14
620.734	1	9
620.903	1	-3
621.073	1	9
621.242	1	10
621.412	1	-3
621.582	1	-3
621.751	1	11
621.921	1	10
622.091	1	-1
622.260	1	5
622.430	1	11
622.599	1	-2
622.769	1	6
622.939	1	2
623.108	1	7
623.278	1	-11
623.448	1	2
623.617	1	10
623.787	1	3
623.956	1	11
624.126	1	5
624.296	1	-1
624.465	1	4
624.635	1	13
624.804	1	6
624.974	1	3
625.144	1	13
625.313	1	6
625.483	1	-2
625.652	1	3
625.822	1	2
625.992	1	-3
626.161	1	16
626.331	1	0
626.501	1	7
626.670	1	6
626.840	1	1
627.009	1	3
627.179	1	7
627.348	1	13
627.518	1	-4
627.688	1	6
627.857	1	11
628.027	1	-3
628.196	1	7
628.366	1	6
628.536	1	0
628.705	1	5
628.875	1	8
629.044	1	4
629.214	1	10
629.384	1	4
629.553	1	10
629.723	1	8
629.892	1	5
630.062	1	3
630.232	1	-5
630.401	1	6
630.571	1	1
630.740	1	-3
630.910	1	11
631.079	1	8
631.249	1	6
631.419	1	1
631.588	1	-3
631.758	1	7
631.927	1	0
632.097	1	1
632.266	1	3
632.436	1	5
632.606	1	-1
632.775	1	12
632.945	1	2
633.114	1	5
633.284	1	5
633.453	1	2
633.623	1	3
633.793	1	2
633.962	1	3
634.132	1	5
634.301	1	2
634.471	1	11
634.640	1	9
634.810	1	9
634.979	1	10
635.149	1	7
635.319	1	5
635.488	1	5
635.658	1	-4
635.827	1	-9
635.997	1	1
636.166	1	9
636.336	1	-8
636.505	1	21
636.675	1	6
636.845	1	2
637.014	1	5
637.184	1	12
637.353	1	8
637.523	1	9
637.692	1	3
637.862	1	4
638.031	1	8
638.201	1	14
638.370	1	7
638.540	1	9
638.710	1	-5
638.879	1	-6
639.049	1	-4
639.218	1	-7
639.388	1	-2
639.557	1	1
639.727	1	5
639.896	1	13
640.066	1	2
640.235	1	6
640.405	1	8
640.574	1	1
640.744	1	8
640.914	1	4
641.083	1	-2
641.253	1	0
641.422	1	12
641.592	1	17
641.761	1	-12
641.931	1	2
642.100	1	19
642.270	1	2
642.439	1	12
642.609	1	6
642.778	1	5
642.948	1	1
643.117	1	18
643.287	1	6
643.456	1	6
643.626	1	14
643.795	1	0
643.965	1	11
644.134	1	1
644.304	1	3
644.473	1	9
644.643	1	10
644.812	1	4
644.982	1	14
645.151	1	8
645.321	1	-3
645.490	1	11
645.660	1	1
645.829	1	-1
645.999	1	9
646.168	1	7
646.338	1	22
646.507	1	0
646.677	1	8
646.846	1	6
647.016	1	-4
647.185	1	1
647.355	1	0
647.524	1	10
647.694	1	13
647.863	1	6
648.033	1	0
648.202	1	0
648.372	1	1
648.541	1	5
648.711	1	-1
648.880	1	-1
649.050	1	-1
649.219	1	7
649.389	1	6
649.558	1	4
649.728	1	10
649.897	1	2
650.067	1	4
650.236	1	3
650.406	1	1
650.575	1	5
650.745	1	4
650.914	1	7
651.084	1	-3
651.253	1	7
651.423	1	6
651.592	1	7
651.762	1	3
651.931	1	2
652.101	1	11
652.270	1	11
652.440	1	4
652.609	1	-5
652.778	1	-1
652.948	1	10
653.117	1	11
653.287	1	6
653.456	1	4
653.626	1	11
653.795	1	8
653.965	1	4
654.134	1	12
654.304	1	-10
654.473	1	14
654.643	1	20
654.812	1	0
654.982	1	13
655.151	1	-2
655.320	1	-2
655.490	1	-10
655.659	1	18
655.829	1	0
655.998	1	5
656.168	1	10
656.337	1	-1
656.507	1	8
656.676	1	4
656.846	1	7
657.015	1	10
657.184	1	7
657.354	1	2
657.523	1	2
657.693	1	13
657.862	1	12
658.032	1	5
658.201	1	9
658.371	1	13
658.540	1	-1
658.709	1	2
658.879	1	0
659.048	1	2
659.218	1	0
659.387	1	12
659.557	1	6
659.726	1	0
659.895	1	0
660.065	1	6
660.234	1	0
660.404	1	6
660.573	1	-5
660.743	1	10
660.912	1	9
661.081	1	18
661.251	1	-2
661.420	1	13
661.590	1	1
661.759	1	5
661.929	1	2
662.098	1	14
662.267	1	0
662.437	1	7
662.606	1	6
662.776	1	0
662.945	1	10
663.115	1	8
663.284	1	0
663.453	1	-2
663.623	1	-1
663.792	1	8
663.962	1	7
664.131	1	12
664.300	1	1
664.470	1	3
664.639	1	2
664.809	1	3
664.978	1	7
665.148	1	7
665.317	1	7
665.486	1	12
665.656	1	1
665.825	1	16
665.995	1	-5
666.164	1	13
666.333	1	7
666.503	1	1
666.672	1	-7
666.842	1	-7
667.011	1	7
667.180	1	9
667.350	1	3
667.519	1	6
667.689	1	14
667.858	1	4
668.027	1	17
668.197	1	-4
668.366	1	-3
668.536	1	11
668.705	1	8
668.874	1	6
669.044	1	2
669.213	1	14
669.382	1	2
669.552	1	14
669.721	1	10
669.891	1	13
670.060	1	14
670.229	1	11
670.399	1	4
670.568	1	12
670.738	1	17
670.907	1	-6
671.076	1	6
671.246	1	5
671.415	1	10
671.584	1	2
671.754	1	11
671.923	1	4
672.093	1	0
672.262	1	-12
672.431	1	3
672.601	1	0
672.770	1	-3
672.939	1	10
673.109	1	0
673.278	1	10
673.448	1	14
673.617	1	5
673.786	1	4
