325.333	1	28
325.504	1	24
325.675	1	31
325.846	1	26
326.017	1	20
326.188	1	23
326.359	1	26
326.531	1	15
326.702	1	25
326.873	1	37
327.044	1	31
327.215	1	25
327.386	1	36
327.557	1	22
327.728	1	27
327.899	1	28
328.070	1	39
328.241	1	37
328.412	1	19
328.583	1	40
328.754	1	42
328.926	1	34
329.097	1	29
329.268	1	41
329.439	1	33
329.610	1	32
329.781	1	39
329.952	1	41
330.123	1	39
330.294	1	30
330.465	1	32
330.636	1	39
330.807	1	35
330.978	1	32
331.149	1	34
331.320	1	35
331.492	1	38
331.663	1	32
331.834	1	38
332.005	1	51
332.176	1	50
332.347	1	49
332.518	1	27
332.689	1	44
332.860	1	43
333.031	1	56
333.202	1	34
333.373	1	46
333.544	1	35
333.715	1	52
333.886	1	34
334.057	1	45
334.228	1	30
334.399	1	40
334.570	1	62
334.741	1	39
334.912	1	46
335.084	1	64
335.255	1	40
335.426	1	47
335.597	1	46
335.768	1	40
335.939	1	53
336.110	1	35
336.281	1	38
336.452	1	48
336.623	1	58
336.794	1	55
336.965	1	44
337.136	1	50
337.307	1	42
337.478	1	47
337.649	1	44
337.820	1	49
337.991	1	56
338.162	1	59
338.333	1	53
338.504	1	56
338.675	1	50
338.846	1	54
339.017	1	61
339.188	1	48
339.359	1	48
339.530	1	41
339.701	1	47
339.872	1	62
340.043	1	53
340.214	1	58
340.385	1	68
340.556	1	48
340.727	1	57
340.898	1	71
341.069	1	59
341.240	1	56
341.411	1	65
341.582	1	63
341.753	1	47
341.924	1	60
342.095	1	63
342.266	1	69
342.437	1	67
342.608	1	62
342.779	1	66
342.950	1	63
343.121	1	65
343.292	1	70
343.463	1	72
343.634	1	70
343.805	1	69
343.976	1	64
344.147	1	62
344.318	1	59
344.489	1	64
344.660	1	76
344.831	1	76
345.002	1	71
345.173	1	70
345.344	1	72
345.515	1	72
345.686	1	77
345.857	1	62
346.028	1	66
346.199	1	57
346.370	1	66
346.541	1	81
346.712	1	76
346.883	1	70
347.054	1	68
347.225	1	78
347.396	1	71
347.567	1	74
347.738	1	65
347.909	1	87
348.080	1	69
348.251	1	84
348.422	1	88
348.593	1	73
348.764	1	76
348.935	1	70
349.106	1	81
349.277	1	76
349.448	1	83
349.619	1	76
349.790	1	91
349.961	1	84
350.132	1	91
350.303	1	84
350.474	1	103
350.645	1	90
350.816	1	91
350.987	1	91
351.157	1	81
351.328	1	90
351.499	1	104
351.670	1	78
351.841	1	92
352.012	1	94
352.183	1	102
352.354	1	106
352.525	1	102
352.696	1	98
352.867	1	95
353.038	1	95
353.209	1	94
353.380	1	100
353.551	1	91
353.722	1	97
353.893	1	89
354.064	1	108
354.235	1	108
354.406	1	79
354.576	1	96
354.747	1	96
354.918	1	96
355.089	1	105
355.260	1	107
355.431	1	97
355.602	1	101
355.773	1	108
355.944	1	98
356.115	1	90
356.286	1	108
356.457	1	109
356.628	1	103
356.799	1	108
356.970	1	107
357.141	1	97
357.311	1	90
357.482	1	101
357.653	1	118
357.824	1	115
357.995	1	111
358.166	1	99
358.337	1	97
358.508	1	110
358.679	1	119
358.850	1	125
359.021	1	102
359.192	1	112
359.363	1	112
359.533	1	117
359.704	1	99
359.875	1	111
360.046	1	122
360.217	1	103
360.388	1	112
360.559	1	105
360.730	1	122
360.901	1	119
361.072	1	126
361.243	1	118
361.414	1	113
361.584	1	102
361.755	1	121
361.926	1	113
362.097	1	115
362.268	1	118
362.439	1	115
362.610	1	127
362.781	1	112
362.952	1	114
363.123	1	111
363.293	1	107
363.464	1	115
363.635	1	117
363.806	1	120
363.977	1	117
364.148	1	110
364.319	1	126
364.490	1	112
364.661	1	128
364.832	1	117
365.002	1	128
365.173	1	120
365.344	1	123
365.515	1	115
365.686	1	118
365.857	1	125
366.028	1	128
366.199	1	120
366.370	1	120
366.540	1	115
366.711	1	109
366.882	1	120
367.053	1	113
367.224	1	135
367.395	1	128
367.566	1	134
367.737	1	142
367.908	1	133
368.078	1	136
368.249	1	122
368.420	1	107
368.591	1	112
368.762	1	128
368.933	1	119
369.104	1	111
369.274	1	124
369.445	1	129
369.616	1	117
369.787	1	123
369.958	1	127
370.129	1	120
370.300	1	138
370.471	1	126
370.641	1	120
370.812	1	128
370.983	1	124
371.154	1	123
371.325	1	126
371.496	1	131
371.667	1	131
371.837	1	114
372.008	1	131
372.179	1	115
372.350	1	153
372.521	1	126
372.692	1	130
372.863	1	146
373.033	1	123
373.204	1	124
373.375	1	124
373.546	1	127
373.717	1	124
373.888	1	142
374.059	1	130
374.229	1	132
374.400	1	127
374.571	1	137
374.742	1	148
374.913	1	143
375.084	1	123
375.254	1	144
375.425	1	142
375.596	1	142
375.767	1	140
375.938	1	149
376.109	1	131
376.279	1	127
376.450	1	145
376.621	1	142
376.792	1	143
376.963	1	132
377.134	1	144
377.304	1	139
377.475	1	143
377.646	1	138
377.817	1	140
377.988	1	139
378.159	1	133
378.329	1	149
378.500	1	142
378.671	1	142
378.842	1	147
379.013	1	141
379.184	1	145
379.354	1	150
379.525	1	137
379.696	1	152
379.867	1	152
380.038	1	140
380.209	1	146
380.379	1	147
380.550	1	138
380.721	1	172
380.892	1	146
381.063	1	147
381.233	1	163
381.404	1	143
381.575	1	149
381.746	1	153
381.917	1	149
382.087	1	154
382.258	1	154
382.429	1	155
382.600	1	156
382.771	1	148
382.941	1	142
383.112	1	157
383.283	1	170
383.454	1	144
383.625	1	162
383.795	1	154
383.966	1	153
384.137	1	166
384.308	1	173
384.479	1	175
384.649	1	154
384.820	1	159
384.991	1	177
385.162	1	163
385.333	1	161
385.503	1	154
385.674	1	155
385.845	1	172
386.016	1	162
386.187	1	171
386.357	1	170
386.528	1	170
386.699	1	172
386.870	1	183
387.041	1	175
387.211	1	177
387.382	1	179
387.553	1	181
387.724	1	166
387.894	1	172
388.065	1	179
388.236	1	193
388.407	1	177
388.578	1	156
388.748	1	160
388.919	1	197
389.090	1	186
389.261	1	184
389.431	1	196
389.602	1	179
389.773	1	176
389.944	1	164
390.114	1	171
390.285	1	190
390.456	1	173
390.627	1	176
390.798	1	175
390.968	1	173
391.139	1	189
391.310	1	175
391.481	1	187
391.651	1	175
391.822	1	175
391.993	1	176
392.164	1	163
392.334	1	180
392.505	1	177
392.676	1	179
392.847	1	187
393.017	1	172
393.188	1	177
393.359	1	153
393.530	1	178
393.700	1	172
393.871	1	171
394.042	1	186
394.213	1	170
394.383	1	187
394.554	1	187
394.725	1	191
394.896	1	172
395.066	1	187
395.237	1	179
395.408	1	191
395.579	1	190
395.749	1	191
395.920	1	180
396.091	1	193
396.262	1	202
396.432	1	193
396.603	1	196
396.774	1	191
396.945	1	188
397.115	1	176
397.286	1	190
397.457	1	190
397.627	1	190
397.798	1	186
397.969	1	179
398.140	1	199
398.310	1	186
398.481	1	201
398.652	1	195
398.823	1	181
398.993	1	191
399.164	1	185
399.335	1	182
399.505	1	195
399.676	1	190
399.847	1	195
400.018	1	180
400.188	1	183
400.359	1	202
400.530	1	190
400.700	1	180
400.871	1	185
401.042	1	192
401.213	1	177
401.383	1	189
401.554	1	199
401.725	1	199
401.895	1	182
402.066	1	189
402.237	1	196
402.408	1	191
402.578	1	184
402.749	1	191
402.920	1	191
403.090	1	178
403.261	1	179
403.432	1	192
403.603	1	201
403.773	1	193
403.944	1	201
404.115	1	200
404.285	1	192
404.456	1	178
404.627	1	195
404.797	1	185
404.968	1	198
405.139	1	184
405.310	1	195
405.480	1	193
405.651	1	193
405.822	1	193
405.992	1	194
406.163	1	200
406.334	1	183
406.504	1	188
406.675	1	217
406.846	1	209
407.016	1	194
407.187	1	199
407.358	1	201
407.528	1	186
407.699	1	188
407.870	1	192
408.041	1	201
408.211	1	206
408.382	1	199
408.553	1	184
408.723	1	204
408.894	1	203
409.065	1	210
409.235	1	182
409.406	1	193
409.577	1	202
409.747	1	215
409.918	1	209
410.089	1	206
410.259	1	201
410.430	1	204
410.601	1	200
410.771	1	200
410.942	1	221
411.113	1	199
411.283	1	200
411.454	1	187
411.625	1	198
411.795	1	203
411.966	1	203
412.137	1	208
412.307	1	194
412.478	1	192
412.649	1	204
412.819	1	195
412.990	1	194
413.161	1	194
413.331	1	183
413.502	1	206
413.672	1	193
413.843	1	192
414.014	1	191
414.184	1	196
414.355	1	191
414.526	1	193
414.696	1	203
414.867	1	198
415.038	1	172
415.208	1	195
415.379	1	197
415.550	1	198
415.720	1	192
415.891	1	196
416.062	1	187
416.232	1	198
416.403	1	192
416.573	1	187
416.744	1	180
416.915	1	190
417.085	1	194
417.256	1	182
417.427	1	189
417.597	1	192
417.768	1	178
417.939	1	183
418.109	1	201
418.280	1	194
418.450	1	184
418.621	1	186
418.792	1	177
418.962	1	210
419.133	1	184
419.304	1	178
419.474	1	190
419.645	1	172
419.815	1	174
419.986	1	192
420.157	1	188
420.327	1	193
420.498	1	194
420.669	1	169
420.839	1	216
421.010	1	198
421.180	1	187
421.351	1	172
421.522	1	199
421.692	1	191
421.863	1	185
422.033	1	188
422.204	1	186
422.375	1	182
422.545	1	177
422.716	1	180
422.886	1	180
423.057	1	188
423.228	1	179
423.398	1	185
423.569	1	194
423.740	1	173
423.910	1	178
424.081	1	182
424.251	1	187
424.422	1	173
424.593	1	173
424.763	1	192
424.934	1	178
425.104	1	186
425.275	1	164
425.445	1	175
425.616	1	172
425.787	1	181
425.957	1	182
426.128	1	171
426.298	1	183
426.469	1	164
426.640	1	181
426.810	1	179
426.981	1	163
427.151	1	177
427.322	1	160
427.493	1	183
427.663	1	182
427.834	1	173
428.004	1	179
428.175	1	175
428.345	1	168
428.516	1	179
428.687	1	169
428.857	1	162
429.028	1	149
429.198	1	178
429.369	1	160
429.540	1	175
429.710	1	171
429.881	1	158
430.051	1	158
430.222	1	175
430.392	1	174
430.563	1	186
430.734	1	184
430.904	1	175
431.075	1	182
431.245	1	173
431.416	1	181
431.586	1	171
431.757	1	169
431.927	1	169
432.098	1	170
432.269	1	173
432.439	1	174
432.610	1	173
432.780	1	185
432.951	1	173
433.121	1	174
433.292	1	173
433.462	1	174
433.633	1	157
433.804	1	165
433.974	1	173
434.145	1	180
434.315	1	165
434.486	1	158
434.656	1	173
434.827	1	175
434.997	1	151
435.168	1	171
435.339	1	184
435.509	1	163
435.680	1	170
435.850	1	170
436.021	1	164
436.191	1	162
436.362	1	169
436.532	1	164
436.703	1	170
436.873	1	151
437.044	1	148
437.214	1	157
437.385	1	153
437.556	1	149
437.726	1	179
437.897	1	165
438.067	1	154
438.238	1	162
438.408	1	141
438.579	1	149
438.749	1	151
438.920	1	149
439.090	1	154
439.261	1	151
439.431	1	145
439.602	1	153
439.772	1	148
439.943	1	168
440.113	1	155
440.284	1	151
440.455	1	148
440.625	1	143
440.796	1	153
440.966	1	139
441.137	1	138
441.307	1	143
441.478	1	160
441.648	1	150
441.819	1	147
441.989	1	137
442.160	1	159
442.330	1	138
442.501	1	144
442.671	1	127
442.842	1	135
443.012	1	153
443.183	1	146
443.353	1	136
443.524	1	140
443.694	1	150
443.865	1	129
444.035	1	134
444.206	1	122
444.376	1	123
444.547	1	153
444.717	1	131
444.888	1	143
445.058	1	152
445.229	1	130
445.399	1	140
445.570	1	139
445.740	1	133
445.911	1	135
446.081	1	129
446.252	1	145
446.422	1	142
446.593	1	140
446.763	1	134
446.934	1	134
447.104	1	146
447.275	1	136
447.445	1	140
447.616	1	134
447.786	1	147
447.957	1	140
448.127	1	141
448.298	1	144
448.468	1	137
448.639	1	124
448.809	1	130
448.979	1	139
449.150	1	126
449.320	1	138
449.491	1	139
449.661	1	134
449.832	1	129
450.002	1	138
450.173	1	142
450.343	1	130
450.514	1	127
450.684	1	137
450.855	1	126
451.025	1	133
451.196	1	129
451.366	1	132
451.537	1	138
451.707	1	118
451.878	1	123
452.048	1	135
452.218	1	136
452.389	1	125
452.559	1	138
452.730	1	130
452.900	1	129
453.071	1	114
453.241	1	127
453.412	1	117
453.582	1	117
453.753	1	134
453.923	1	132
454.093	1	126
454.264	1	132
454.434	1	122
454.605	1	113
454.775	1	123
454.946	1	119
455.116	1	122
455.287	1	117
455.457	1	112
455.628	1	114
455.798	1	113
455.968	1	128
456.139	1	128
456.309	1	121
456.480	1	111
456.650	1	112
456.821	1	119
456.991	1	117
457.161	1	116
457.332	1	117
457.502	1	104
457.673	1	120
457.843	1	118
458.014	1	125
458.184	1	115
458.355	1	111
458.525	1	109
458.695	1	110
458.866	1	120
459.036	1	116
459.207	1	105
459.377	1	114
459.548	1	116
459.718	1	104
459.888	1	111
460.059	1	107
460.229	1	97
460.400	1	105
460.570	1	118
460.740	1	105
460.911	1	114
461.081	1	111
461.252	1	93
461.422	1	110
461.593	1	104
461.763	1	106
461.933	1	106
462.104	1	108
462.274	1	107
462.445	1	116
462.615	1	113
462.785	1	110
462.956	1	106
463.126	1	111
463.297	1	108
463.467	1	109
463.638	1	99
463.808	1	112
463.978	1	108
464.149	1	109
464.319	1	102
464.490	1	116
464.660	1	99
464.830	1	96
465.001	1	102
465.171	1	99
465.342	1	105
465.512	1	88
465.682	1	96
465.853	1	99
466.023	1	106
466.194	1	105
466.364	1	111
466.534	1	97
466.705	1	105
466.875	1	99
467.045	1	86
467.216	1	105
467.386	1	96
467.557	1	96
467.727	1	94
467.897	1	94
468.068	1	101
468.238	1	100
468.409	1	85
468.579	1	85
468.749	1	85
468.920	1	80
469.090	1	95
469.260	1	95
469.431	1	86
469.601	1	88
469.772	1	88
469.942	1	91
470.112	1	98
470.283	1	83
470.453	1	79
470.623	1	86
470.794	1	93
470.964	1	88
471.135	1	86
471.305	1	88
471.475	1	87
471.646	1	93
471.816	1	92
471.986	1	82
472.157	1	104
472.327	1	79
472.497	1	94
472.668	1	76
472.838	1	75
473.009	1	98
473.179	1	74
473.349	1	71
473.520	1	108
473.690	1	90
473.860	1	87
474.031	1	86
474.201	1	85
474.371	1	98
474.542	1	93
474.712	1	83
474.882	1	87
475.053	1	102
475.223	1	74
475.394	1	80
475.564	1	78
475.734	1	92
475.905	1	94
476.075	1	88
476.245	1	88
476.416	1	93
476.586	1	93
476.756	1	82
476.927	1	83
477.097	1	93
477.267	1	79
477.438	1	90
477.608	1	75
477.778	1	87
477.949	1	100
478.119	1	97
478.289	1	97
478.460	1	92
478.630	1	87
478.800	1	69
478.971	1	86
479.141	1	73
479.311	1	59
479.482	1	73
479.652	1	65
479.822	1	80
479.993	1	90
480.163	1	87
480.333	1	83
480.504	1	82
480.674	1	73
480.844	1	70
481.015	1	91
481.185	1	65
481.355	1	80
481.525	1	76
481.696	1	79
481.866	1	82
482.036	1	83
482.207	1	72
482.377	1	80
482.547	1	86
482.718	1	86
482.888	1	78
483.058	1	73
483.229	1	76
483.399	1	73
483.569	1	73
483.740	1	85
483.910	1	74
484.080	1	66
484.250	1	68
484.421	1	68
484.591	1	68
484.761	1	81
484.932	1	76
485.102	1	83
485.272	1	79
485.443	1	85
485.613	1	75
485.783	1	68
485.953	1	73
486.124	1	67
486.294	1	66
486.464	1	70
486.635	1	83
486.805	1	77
486.975	1	64
487.146	1	79
487.316	1	68
487.486	1	69
487.656	1	57
487.827	1	65
487.997	1	57
488.167	1	70
488.338	1	65
488.508	1	71
488.678	1	71
488.848	1	77
489.019	1	60
489.189	1	68
489.359	1	58
489.529	1	73
489.700	1	66
489.870	1	68
490.040	1	59
490.211	1	59
490.381	1	72
490.551	1	63
490.721	1	68
490.892	1	70
491.062	1	75
491.232	1	63
491.402	1	52
491.573	1	50
491.743	1	61
491.913	1	54
492.084	1	58
492.254	1	55
492.424	1	59
492.594	1	64
492.765	1	65
492.935	1	62
493.105	1	62
493.275	1	60
493.446	1	65
493.616	1	67
493.786	1	64
493.956	1	59
494.127	1	61
494.297	1	56
494.467	1	55
494.637	1	69
494.808	1	57
494.978	1	45
495.148	1	52
495.318	1	60
495.489	1	69
495.659	1	53
495.829	1	59
495.999	1	51
496.170	1	64
496.340	1	57
496.510	1	65
496.680	1	51
496.851	1	49
497.021	1	57
497.191	1	55
497.361	1	58
497.532	1	51
497.702	1	55
497.872	1	60
498.042	1	69
498.213	1	56
498.383	1	64
498.553	1	55
498.723	1	55
498.894	1	50
499.064	1	50
499.234	1	61
499.404	1	61
499.574	1	69
499.745	1	61
499.915	1	59
500.085	1	60
500.255	1	61
500.426	1	57
500.596	1	55
500.766	1	53
500.936	1	43
501.106	1	41
501.277	1	60
501.447	1	47
501.617	1	53
501.787	1	42
501.958	1	52
502.128	1	49
502.298	1	54
502.468	1	49
502.638	1	53
502.809	1	45
502.979	1	51
503.149	1	42
503.319	1	52
503.489	1	45
503.660	1	48
503.830	1	50
504.000	1	53
504.170	1	51
504.340	1	38
504.511	1	65
504.681	1	42
504.851	1	44
505.021	1	52
505.192	1	36
505.362	1	50
505.532	1	48
505.702	1	45
505.872	1	43
506.043	1	42
506.213	1	36
506.383	1	38
506.553	1	46
506.723	1	49
506.893	1	53
507.064	1	57
507.234	1	36
507.404	1	46
507.574	1	51
507.744	1	39
507.915	1	44
508.085	1	56
508.255	1	45
508.425	1	45
508.595	1	55
508.766	1	48
508.936	1	31
509.106	1	54
509.276	1	54
509.446	1	42
509.616	1	45
509.787	1	49
509.957	1	47
510.127	1	47
510.297	1	42
510.467	1	38
510.638	1	51
510.808	1	30
510.978	1	40
511.148	1	39
511.318	1	52
511.488	1	34
511.659	1	54
511.829	1	34
511.999	1	48
512.169	1	33
512.339	1	36
512.509	1	34
512.680	1	33
512.850	1	46
513.020	1	45
513.190	1	33
513.360	1	34
513.530	1	48
513.700	1	47
513.871	1	40
514.041	1	43
514.211	1	45
514.381	1	46
514.551	1	38
514.721	1	44
514.892	1	41
515.062	1	49
515.232	1	54
515.402	1	31
515.572	1	46
515.742	1	40
515.912	1	49
516.083	1	36
516.253	1	45
516.423	1	39
516.593	1	41
516.763	1	49
516.933	1	31
517.104	1	43
517.274	1	39
517.444	1	43
517.614	1	33
517.784	1	39
517.954	1	48
518.124	1	42
518.294	1	34
518.465	1	41
518.635	1	34
518.805	1	29
518.975	1	27
519.145	1	42
519.315	1	33
519.485	1	30
519.656	1	48
519.826	1	32
519.996	1	25
520.166	1	31
520.336	1	46
520.506	1	35
520.676	1	40
520.846	1	36
521.017	1	35
521.187	1	40
521.357	1	52
521.527	1	26
521.697	1	32
521.867	1	37
522.037	1	51
522.207	1	36
522.377	1	32
522.548	1	34
522.718	1	34
522.888	1	39
523.058	1	29
523.228	1	32
523.398	1	26
523.568	1	42
523.738	1	26
523.909	1	32
524.079	1	46
524.249	1	32
524.419	1	29
524.589	1	32
524.759	1	23
524.929	1	27
525.099	1	41
525.269	1	32
525.439	1	28
525.610	1	45
525.780	1	26
525.950	1	36
526.120	1	33
526.290	1	29
526.460	1	31
526.630	1	23
526.800	1	25
526.970	1	30
527.140	1	25
527.311	1	14
527.481	1	31
527.651	1	24
527.821	1	17
527.991	1	44
528.161	1	33
528.331	1	28
528.501	1	32
528.671	1	20
528.841	1	34
529.011	1	36
529.181	1	27
529.352	1	31
529.522	1	27
529.692	1	20
529.862	1	33
530.032	1	29
530.202	1	30
530.372	1	27
530.542	1	18
530.712	1	24
530.882	1	27
531.052	1	36
531.222	1	25
531.392	1	25
531.563	1	34
531.733	1	24
531.903	1	30
532.073	1	30
532.243	1	12
532.413	1	37
532.583	1	20
532.753	1	24
532.923	1	15
533.093	1	27
533.263	1	22
533.433	1	36
533.603	1	24
533.773	1	33
533.943	1	35
534.113	1	26
534.284	1	23
534.454	1	24
534.624	1	23
534.794	1	17
534.964	1	24
535.134	1	22
535.304	1	24
535.474	1	29
535.644	1	22
535.814	1	15
535.984	1	19
536.154	1	10
536.324	1	21
536.494	1	24
536.664	1	34
536.834	1	19
537.004	1	20
537.174	1	36
537.344	1	16
537.514	1	9
537.685	1	14
537.855	1	31
538.025	1	29
538.195	1	24
538.365	1	31
538.535	1	28
538.705	1	24
538.875	1	25
539.045	1	27
539.215	1	25
539.385	1	17
539.555	1	23
539.725	1	20
539.895	1	17
540.065	1	32
540.235	1	21
540.405	1	19
540.575	1	24
540.745	1	23
540.915	1	30
541.085	1	25
541.255	1	15
541.425	1	21
541.595	1	21
541.765	1	28
541.935	1	19
542.105	1	15
542.275	1	18
542.445	1	23
542.615	1	21
542.785	1	22
542.955	1	21
543.125	1	11
543.295	1	25
543.465	1	17
543.635	1	21
543.805	1	34
543.975	1	28
544.145	1	23
544.315	1	24
544.485	1	23
544.655	1	25
544.825	1	10
544.995	1	27
545.165	1	11
545.335	1	28
545.505	1	11
545.675	1	20
545.845	1	22
546.015	1	23
546.185	1	28
546.355	1	23
546.525	1	19
546.695	1	22
546.865	1	15
547.035	1	20
547.205	1	6
547.375	1	20
547.545	1	27
547.715	1	11
547.885	1	23
548.055	1	18
548.225	1	22
548.395	1	15
548.565	1	15
548.735	1	16
548.905	1	17
549.075	1	25
549.245	1	18
549.415	1	10
549.585	1	21
549.755	1	19
549.925	1	13
550.095	1	19
550.265	1	5
550.435	1	6
550.605	1	19
550.775	1	20
550.945	1	22
551.115	1	22
551.285	1	27
551.455	1	5
551.625	1	17
551.795	1	22
551.965	1	16
552.135	1	15
552.305	1	14
552.475	1	11
552.645	1	12
552.815	1	10
552.985	1	28
553.155	1	17
553.325	1	21
553.495	1	10
553.665	1	16
553.835	1	8
554.004	1	20
554.174	1	21
554.344	1	21
554.514	1	21
554.684	1	18
554.854	1	22
555.024	1	6
555.194	1	8
555.364	1	11
555.534	1	23
555.704	1	21
555.874	1	22
556.044	1	9
556.214	1	12
556.384	1	21
556.554	1	28
556.724	1	18
556.894	1	5
557.064	1	19
557.234	1	15
557.404	1	20
557.573	1	16
557.743	1	15
557.913	1	15
558.083	1	18
558.253	1	24
558.423	1	17
558.593	1	19
558.763	1	17
558.933	1	22
559.103	1	21
559.273	1	14
559.443	1	25
559.613	1	13
559.783	1	19
559.953	1	8
560.122	1	24
560.292	1	15
560.462	1	9
560.632	1	26
560.802	1	19
560.972	1	11
561.142	1	16
561.312	1	19
561.482	1	17
561.652	1	9
561.822	1	10
561.992	1	16
562.162	1	13
562.331	1	12
562.501	1	8
562.671	1	19
562.841	1	8
563.011	1	22
563.181	1	13
563.351	1	10
563.521	1	14
563.691	1	13
563.861	1	23
564.031	1	16
564.201	1	30
564.370	1	14
564.540	1	18
564.710	1	17
564.880	1	15
565.050	1	17
565.220	1	9
565.390	1	18
565.560	1	15
565.730	1	7
565.900	1	15
566.069	1	23
566.239	1	11
566.409	1	17
566.579	1	15
566.749	1	11
566.919	1	18
567.089	1	15
567.259	1	18
567.429	1	17
567.599	1	11
567.768	1	15
567.938	1	15
568.108	1	12
568.278	1	13
568.448	1	5
568.618	1	4
568.788	1	21
568.958	1	10
569.128	1	18
569.297	1	11
569.467	1	10
569.637	1	17
569.807	1	16
569.977	1	12
570.147	1	27
570.317	1	1
570.487	1	18
570.656	1	23
570.826	1	1
570.996	1	1
571.166	1	18
571.336	1	10
571.506	1	23
571.676	1	17
571.846	1	19
572.015	1	12
572.185	1	8
572.355	1	19
572.525	1	11
572.695	1	12
572.865	1	11
573.035	1	16
573.205	1	8
573.374	1	5
573.544	1	13
573.714	1	19
573.884	1	21
574.054	1	10
574.224	1	14
574.394	1	6
574.563	1	14
574.733	1	8
574.903	1	6
575.073	1	17
575.243	1	9
575.413	1	16
575.583	1	11
575.752	1	21
575.922	1	13
576.092	1	16
576.262	1	17
576.432	1	16
576.602	1	10
576.772	1	24
576.941	1	17
577.111	1	12
577.281	1	7
577.451	1	7
577.621	1	14
577.791	1	16
577.960	1	6
578.130	1	5
578.300	1	14
578.470	1	13
578.640	1	9
578.810	1	14
578.979	1	14
579.149	1	11
579.319	1	24
579.489	1	3
579.659	1	5
579.829	1	6
579.998	1	15
580.168	1	14
580.338	1	16
580.508	1	8
580.678	1	14
580.848	1	8
581.017	1	17
581.187	1	13
581.357	1	5
581.527	1	19
581.697	1	19
581.867	1	24
582.036	1	8
582.206	1	11
582.376	1	22
582.546	1	6
582.716	1	7
582.885	1	10
583.055	1	7
583.225	1	-3
583.395	1	14
583.565	1	5
583.735	1	21
583.904	1	15
584.074	1	12
584.244	1	13
584.414	1	14
584.584	1	25
584.753	1	9
584.923	1	15
585.093	1	16
585.263	1	14
585.433	1	20
585.602	1	11
585.772	1	12
585.942	1	13
586.112	1	16
586.282	1	10
586.451	1	13
586.621	1	5
586.791	1	10
586.961	1	11
587.131	1	18
587.300	1	18
587.470	1	24
587.640	1	20
587.810	1	8
587.980	1	4
588.149	1	16
588.319	1	11
588.489	1	12
588.659	1	14
588.829	1	4
588.998	1	13
589.168	1	16
589.338	1	12
589.508	1	17
589.677	1	6
589.847	1	8
590.017	1	33
590.187	1	6
590.357	1	26
590.526	1	18
590.696	1	13
590.866	1	18
591.036	1	6
591.205	1	15
591.375	1	4
591.545	1	12
591.715	1	25
591.885	1	13
592.054	1	20
592.224	1	8
592.394	1	15
592.564	1	16
592.733	1	13
592.903	1	16
593.073	1	12
593.243	1	15
593.412	1	17
593.582	1	12
593.752	1	12
593.922	1	9
594.091	1	13
594.261	1	7
594.431	1	9
594.601	1	21
594.771	1	22
594.940	1	12
595.110	1	8
595.280	1	15
595.450	1	5
595.619	1	9
595.789	1	14
595.959	1	15
596.129	1	13
596.298	1	9
596.468	1	12
596.638	1	13
596.808	1	12
596.977	1	4
597.147	1	9
597.317	1	3
597.487	1	9
597.656	1	13
597.826	1	15
597.996	1	23
598.166	1	16
598.335	1	-1
598.505	1	15
598.675	1	4
598.844	1	18
599.014	1	15
599.184	1	10
599.354	1	0
599.523	1	22
599.693	1	10
599.863	1	15
600.033	1	21
600.202	1	12
600.372	1	12
600.542	1	26
600.712	1	13
600.881	1	7
601.051	1	23
601.221	1	18
601.390	1	6
601.560	1	16
601.730	1	15
601.900	1	11
602.069	1	20
602.239	1	4
602.409	1	4
602.578	1	19
602.748	1	17
602.918	1	12
603.088	1	16
603.257	1	20
603.427	1	6
603.597	1	7
603.767	1	12
603.936	1	10
604.106	1	16
604.276	1	6
604.445	1	25
604.615	1	12
604.785	1	10
604.954	1	11
605.124	1	17
605.294	1	6
605.464	1	7
605.633	1	18
605.803	1	17
605.973	1	4
606.142	1	19
606.312	1	20
606.482	1	12
606.652	1	14
606.821	1	8
606.991	1	10
607.161	1	6
607.330	1	18
607.500	1	15
607.670	1	5
607.839	1	22
608.009	1	34
608.179	1	12
608.348	1	14
608.518	1	8
608.688	1	18
608.858	1	0
609.027	1	4
609.197	1	17
609.367	1	22
609.536	1	13
609.706	1	21
609.876	1	9
610.045	1	13
610.215	1	18
610.385	1	14
610.554	1	15
610.724	1	21
610.894	1	17
611.063	1	15
611.233	1	18
611.403	1	20
611.572	1	8
611.742	1	16
611.912	1	23
612.081	1	10
612.251	1	16
612.421	1	14
612.590	1	17
612.760	1	13
612.930	1	15
613.099	1	18
613.269	1	24
613.439	1	21
613.608	1	16
613.778	1	17
613.948	1	17
614.117	1	17
614.287	1	25
614.457	1	16
614.626	1	15
614.796	1	31
614.966	1	9
615.135	1	15
615.305	1	28
615.475	1	16
615.644	1	19
615.814	1	13
615.984	1	15
616.153	1	7
616.323	1	19
616.493	1	21
616.662	1	28
616.832	1	16
617.002	1	10
617.171	1	15
617.341	1	10
617.511	1	0
617.680	1	4
617.850	1	20
618.019	1	21
618.189	1	26
618.359	1	25
618.528	1	12
618.698	1	18
618.868	1	9
619.037	1	15
619.207	1	9
619.377	1	7
619.546	1	13
619.716	1	23
619.885	1	16
620.055	1	13
620.225	1	18
620.394	1	11
620.564	1	29
620.734	1	21
620.903	1	16
621.073	1	25
621.242	1	18
621.412	1	23
621.582	1	16
621.751	1	31
621.921	1	17
622.091	1	16
622.260	1	15
622.430	1	27
622.599	1	9
622.769	1	17
622.939	1	25
623.108	1	16
623.278	1	20
623.448	1	12
623.617	1	22
623.787	1	17
623.956	1	24
624.126	1	6
624.296	1	8
624.465	1	29
624.635	1	20
624.804	1	22
624.974	1	29
625.144	1	23
625.313	1	8
625.483	1	5
625.652	1	13
625.822	1	15
625.992	1	16
626.161	1	32
626.331	1	16
626.501	1	21
626.670	1	19
626.840	1	21
627.009	1	21
627.179	1	28
627.348	1	21
627.518	1	17
627.688	1	24
627.857	1	26
628.027	1	13
628.196	1	29
628.366	1	22
628.536	1	33
628.705	1	17
628.875	1	23
629.044	1	22
629.214	1	25
629.384	1	23
629.553	1	25
629.723	1	22
629.892	1	18
630.062	1	32
630.232	1	24
630.401	1	21
630.571	1	26
630.740	1	25
630.910	1	16
631.079	1	14
631.249	1	20
631.419	1	30
631.588	1	5
631.758	1	22
631.927	1	15
632.097	1	25
632.266	1	10
632.436	1	24
632.606	1	18
632.775	1	26
632.945	1	20
633.114	1	36
633.284	1	24
633.453	1	25
633.623	1	30
633.793	1	20
633.962	1	16
634.132	1	27
634.301	1	26
634.471	1	24
634.640	1	29
634.810	1	26
634.979	1	24
635.149	1	31
635.319	1	28
635.488	1	22
635.658	1	13
635.827	1	12
635.997	1	18
636.166	1	29
636.336	1	10
636.505	1	32
636.675	1	20
636.845	1	36
637.014	1	22
637.184	1	24
637.353	1	31
637.523	1	26
637.692	1	28
637.862	1	20
638.031	1	22
638.201	1	25
638.370	1	25
638.540	1	19
638.710	1	21
638.879	1	21
639.049	1	16
639.218	1	24
639.388	1	22
639.557	1	19
639.727	1	21
639.896	1	21
640.066	1	22
640.235	1	25
640.405	1	24
640.574	1	19
640.744	1	11
640.914	1	26
641.083	1	30
641.253	1	14
641.422	1	31
641.592	1	37
641.761	1	19
641.931	1	26
642.100	1	40
642.270	1	11
642.439	1	29
642.609	1	25
642.778	1	25
642.948	1	21
643.117	1	37
643.287	1	21
643.456	1	20
643.626	1	47
643.795	1	27
643.965	1	24
644.134	1	33
644.304	1	21
644.473	1	27
644.643	1	31
644.812	1	25
644.982	1	27
645.151	1	28
645.321	1	10
645.490	1	35
645.660	1	17
645.829	1	26
645.999	1	20
646.168	1	37
646.338	1	20
646.507	1	30
646.677	1	32
646.846	1	23
647.016	1	26
647.185	1	32
647.355	1	17
647.524	1	45
647.694	1	32
647.863	1	37
648.033	1	30
648.202	1	32
648.372	1	23
648.541	1	21
648.711	1	19
648.880	1	17
649.050	1	15
649.219	1	21
649.389	1	39
649.558	1	29
649.728	1	45
649.897	1	36
650.067	1	25
650.236	1	38
650.406	1	33
650.575	1	38
650.745	1	29
650.914	1	33
651.084	1	25
651.253	1	28
651.423	1	33
651.592	1	26
651.762	1	22
651.931	1	41
652.101	1	31
652.270	1	39
652.440	1	37
652.609	1	17
652.778	1	23
652.948	1	44
653.117	1	26
653.287	1	16
653.456	1	38
653.626	1	33
653.795	1	29
653.965	1	40
654.134	1	27
654.304	1	14
654.473	1	38
654.643	1	31
654.812	1	25
654.982	1	34
655.151	1	20
655.320	1	29
655.490	1	37
655.659	1	28
655.829	1	27
655.998	1	27
656.168	1	21
656.337	1	22
656.507	1	34
656.676	1	45
656.846	1	44
657.015	1	35
657.184	1	42
657.354	1	39
657.523	1	38
657.693	1	34
657.862	1	31
658.032	1	36
658.201	1	26
658.371	1	35
658.540	1	35
658.709	1	34
658.879	1	38
659.048	1	36
659.218	1	33
659.387	1	42
659.557	1	35
659.726	1	38
659.895	1	30
660.065	1	26
660.234	1	33
660.404	1	34
660.573	1	33
660.743	1	33
660.912	1	51
661.081	1	46
661.251	1	32
661.420	1	45
661.590	1	44
661.759	1	45
661.929	1	39
662.098	1	51
662.267	1	43
662.437	1	42
662.606	1	35
662.776	1	31
662.945	1	30
663.115	1	29
663.284	1	22
663.453	1	30
663.623	1	27
663.792	1	32
663.962	1	37
664.131	1	33
664.300	1	40
664.470	1	31
664.639	1	28
664.809	1	41
664.978	1	49
665.148	1	25
665.317	1	36
665.486	1	37
665.656	1	26
665.825	1	48
665.995	1	36
666.164	1	30
666.333	1	31
666.503	1	31
666.672	1	36
666.842	1	21
667.011	1	43
667.180	1	43
667.350	1	42
667.519	1	24
667.689	1	33
667.858	1	42
668.027	1	33
668.197	1	35
668.366	1	33
668.536	1	40
668.705	1	36
668.874	1	41
669.044	1	37
669.213	1	39
669.382	1	36
669.552	1	46
669.721	1	46
669.891	1	43
670.060	1	46
670.229	1	44
670.399	1	29
670.568	1	45
670.738	1	41
670.907	1	33
671.076	1	34
671.246	1	40
671.415	1	39
671.584	1	32
671.754	1	41
671.923	1	37
672.093	1	40
672.262	1	32
672.431	1	44
672.601	1	31
672.770	1	33
672.939	1	38
673.109	1	38
673.278	1	42
673.448	1	51
673.617	1	35
673.786	1	42
