325.333	1	7
325.504	1	2
325.675	1	12
325.846	1	4
326.017	1	-1
326.188	1	8
326.359	1	3
326.531	1	-14
326.702	1	-10
326.873	1	6
327.044	1	-1
327.215	1	8
327.386	1	8
327.557	1	-9
327.728	1	3
327.899	1	6
328.070	1	11
328.241	1	11
328.412	1	2
328.583	1	2
328.754	1	-4
328.926	1	12
329.097	1	-7
329.268	1	10
329.439	1	-1
329.610	1	1
329.781	1	0
329.952	1	5
330.123	1	7
330.294	1	-3
330.465	1	9
330.636	1	8
330.807	1	6
330.978	1	0
331.149	1	5
331.320	1	8
331.492	1	9
331.663	1	-3
331.834	1	4
332.005	1	0
332.176	1	14
332.347	1	10
332.518	1	-11
332.689	1	14
332.860	1	4
333.031	1	9
333.202	1	2
333.373	1	4
333.544	1	6
333.715	1	14
333.886	1	-1
334.057	1	12
334.228	1	-4
334.399	1	1
334.570	1	7
334.741	1	13
334.912	1	7
335.084	1	21
335.255	1	4
335.426	1	5
335.597	1	7
335.768	1	0
335.939	1	20
336.110	1	-2
336.281	1	-4
336.452	1	3
336.623	1	9
336.794	1	9
336.965	1	-2
337.136	1	6
337.307	1	8
337.478	1	8
337.649	1	9
337.820	1	-3
337.991	1	2
338.162	1	12
338.333	1	-1
338.504	1	12
338.675	1	1
338.846	1	10
339.017	1	-4
339.188	1	3
339.359	1	-2
339.530	1	9
339.701	1	9
339.872	1	22
340.043	1	-1
340.214	1	1
340.385	1	10
340.556	1	0
340.727	1	3
340.898	1	17
341.069	1	15
341.240	1	11
341.411	1	10
341.582	1	7
341.753	1	-7
341.924	1	0
342.095	1	9
342.266	1	21
342.437	1	15
342.608	1	4
342.779	1	16
342.950	1	6
343.121	1	11
343.292	1	-2
343.463	1	12
343.634	1	-4
343.805	1	15
343.976	1	1
344.147	1	13
344.318	1	9
344.489	1	12
344.660	1	18
344.831	1	-1
345.002	1	3
345.173	1	10
345.344	1	8
345.515	1	9
345.686	1	9
345.857	1	10
346.028	1	8
346.199	1	7
346.370	1	3
346.541	1	9
346.712	1	5
346.883	1	13
347.054	1	8
347.225	1	6
347.396	1	9
347.567	1	5
347.738	1	-1
347.909	1	22
348.080	1	8
348.251	1	10
348.422	1	23
348.593	1	-3
348.764	1	15
348.935	1	1
349.106	1	1
349.277	1	11
349.448	1	11
349.619	1	12
349.790	1	0
349.961	1	19
350.132	1	17
350.303	1	16
350.474	1	19
350.645	1	6
350.816	1	10
350.987	1	10
351.157	1	4
351.328	1	11
351.499	1	15
351.670	1	14
351.841	1	15
352.012	1	20
352.183	1	22
352.354	1	14
352.525	1	23
352.696	1	5
352.867	1	5
353.038	1	8
353.209	1	28
353.380	1	14
353.551	1	12
353.722	1	18
353.893	1	12
354.064	1	23
354.235	1	11
354.406	1	9
354.576	1	6
354.747	1	2
354.918	1	17
355.089	1	12
355.260	1	24
355.431	1	30
355.602	1	16
355.773	1	12
355.944	1	12
356.115	1	10
356.286	1	9
356.457	1	12
356.628	1	15
356.799	1	19
356.970	1	16
357.141	1	11
357.311	1	21
357.482	1	11
357.653	1	15
357.824	1	18
357.995	1	12
358.166	1	-4
358.337	1	13
358.508	1	19
358.679	1	10
358.850	1	22
359.021	1	9
359.192	1	8
359.363	1	9
359.533	1	7
359.704	1	13
359.875	1	6
360.046	1	8
360.217	1	4
360.388	1	18
360.559	1	4
360.730	1	15
360.901	1	11
361.072	1	22
361.243	1	18
361.414	1	12
361.584	1	5
361.755	1	18
361.926	1	9
362.097	1	3
362.268	1	16
362.439	1	6
362.610	1	24
362.781	1	10
362.952	1	9
363.123	1	16
363.293	1	6
363.464	1	23
363.635	1	20
363.806	1	21
363.977	1	15
364.148	1	12
364.319	1	15
364.490	1	20
364.661	1	13
364.832	1	18
365.002	1	20
365.173	1	22
365.344	1	23
365.515	1	9
365.686	1	13
365.857	1	23
366.028	1	21
366.199	1	10
366.370	1	15
366.540	1	10
366.711	1	0
366.882	1	11
367.053	1	4
367.224	1	23
367.395	1	17
367.566	1	25
367.737	1	20
367.908	1	26
368.078	1	14
368.249	1	13
368.420	1	-1
368.591	1	6
368.762	1	15
368.933	1	17
369.104	1	7
369.274	1	25
369.445	1	18
369.616	1	14
369.787	1	16
369.958	1	23
370.129	1	10
370.300	1	24
370.471	1	11
370.641	1	15
370.812	1	19
370.983	1	20
371.154	1	3
371.325	1	25
371.496	1	24
371.667	1	29
371.837	1	8
372.008	1	8
372.179	1	20
372.350	1	24
372.521	1	13
372.692	1	7
372.863	1	24
373.033	1	-1
373.204	1	6
373.375	1	18
373.546	1	17
373.717	1	20
373.888	1	18
374.059	1	14
374.229	1	17
374.400	1	14
374.571	1	18
374.742	1	22
374.913	1	17
375.084	1	16
375.254	1	26
375.425	1	10
375.596	1	21
375.767	1	15
375.938	1	22
376.109	1	18
376.279	1	10
376.450	1	22
376.621	1	23
376.792	1	9
376.963	1	12
377.134	1	23
377.304	1	12
377.475	1	12
377.646	1	19
377.817	1	9
377.988	1	19
378.159	1	23
378.329	1	19
378.500	1	6
378.671	1	22
378.842	1	23
379.013	1	17
379.184	1	18
379.354	1	28
379.525	1	14
379.696	1	26
379.867	1	23
380.038	1	16
380.209	1	28
380.379	1	21
380.550	1	13
380.721	1	21
380.892	1	25
381.063	1	17
381.233	1	13
381.404	1	14
381.575	1	28
381.746	1	16
381.917	1	16
382.087	1	25
382.258	1	17
382.429	1	18
382.600	1	27
382.771	1	22
382.941	1	15
383.112	1	14
383.283	1	27
383.454	1	21
383.625	1	19
383.795	1	22
383.966	1	9
384.137	1	26
384.308	1	31
384.479	1	20
384.649	1	31
384.820	1	19
384.991	1	22
385.162	1	27
385.333	1	9
385.503	1	15
385.674	1	15
385.845	1	27
386.016	1	18
386.187	1	28
386.357	1	20
386.528	1	24
386.699	1	13
386.870	1	26
387.041	1	28
387.211	1	24
387.382	1	35
387.553	1	22
387.724	1	17
387.894	1	16
388.065	1	20
388.236	1	29
388.407	1	30
388.578	1	19
388.748	1	16
388.919	1	30
389.090	1	13
389.261	1	17
389.431	1	21
389.602	1	27
389.773	1	25
389.944	1	16
390.114	1	24
390.285	1	31
390.456	1	18
390.627	1	18
390.798	1	24
390.968	1	21
391.139	1	26
391.310	1	19
391.481	1	20
391.651	1	21
391.822	1	18
391.993	1	36
392.164	1	16
392.334	1	22
392.505	1	23
392.676	1	24
392.847	1	33
393.017	1	22
393.188	1	25
393.359	1	18
393.530	1	27
393.700	1	22
393.871	1	21
394.042	1	18
394.213	1	14
394.383	1	26
394.554	1	26
394.725	1	33
394.896	1	24
395.066	1	32
395.237	1	22
395.408	1	23
395.579	1	20
395.749	1	20
395.920	1	21
396.091	1	26
396.262	1	29
396.432	1	23
396.603	1	28
396.774	1	50
396.945	1	13
397.115	1	25
397.286	1	22
397.457	1	27
397.627	1	34
397.798	1	18
397.969	1	21
398.140	1	22
398.310	1	22
398.481	1	20
398.652	1	25
398.823	1	23
398.993	1	22
399.164	1	20
399.335	1	38
399.505	1	19
399.676	1	18
399.847	1	33
400.018	1	26
400.188	1	20
400.359	1	36
400.530	1	22
400.700	1	26
400.871	1	22
401.042	1	23
401.213	1	21
401.383	1	22
401.554	1	25
401.725	1	22
401.895	1	17
402.066	1	22
402.237	1	22
402.408	1	31
402.578	1	27
402.749	1	23
402.920	1	31
403.090	1	17
403.261	1	17
403.432	1	18
403.603	1	30
403.773	1	42
403.944	1	38
404.115	1	31
404.285	1	39
404.456	1	20
404.627	1	19
404.797	1	21
404.968	1	23
405.139	1	21
405.310	1	43
405.480	1	29
405.651	1	29
405.822	1	33
405.992	1	15
406.163	1	33
406.334	1	18
406.504	1	31
406.675	1	32
406.846	1	23
407.016	1	28
407.187	1	32
407.358	1	22
407.528	1	18
407.699	1	18
407.870	1	12
408.041	1	28
408.211	1	33
408.382	1	27
408.553	1	15
408.723	1	26
408.894	1	32
409.065	1	26
409.235	1	29
409.406	1	29
409.577	1	18
409.747	1	38
409.918	1	28
410.089	1	19
410.259	1	35
410.430	1	26
410.601	1	25
410.771	1	34
410.942	1	30
411.113	1	26
411.283	1	34
411.454	1	26
411.625	1	20
411.795	1	29
411.966	1	25
412.137	1	20
412.307	1	13
412.478	1	26
412.649	1	27
412.819	1	16
412.990	1	22
413.161	1	29
413.331	1	22
413.502	1	31
413.672	1	28
413.843	1	22
414.014	1	30
414.184	1	23
414.355	1	27
414.526	1	43
414.696	1	31
414.867	1	19
415.038	1	15
415.208	1	24
415.379	1	32
415.550	1	29
415.720	1	17
415.891	1	15
416.062	1	25
416.232	1	22
416.403	1	28
416.573	1	38
416.744	1	16
416.915	1	31
417.085	1	28
417.256	1	25
417.427	1	32
417.597	1	23
417.768	1	22
417.939	1	35
418.109	1	24
418.280	1	24
418.450	1	35
418.621	1	14
418.792	1	31
418.962	1	30
419.133	1	36
419.304	1	25
419.474	1	13
419.645	1	26
419.815	1	11
419.986	1	31
420.157	1	32
420.327	1	28
420.498	1	32
420.669	1	24
420.839	1	27
421.010	1	29
421.180	1	33
421.351	1	24
421.522	1	33
421.692	1	22
421.863	1	24
422.033	1	42
422.204	1	33
422.375	1	20
422.545	1	31
422.716	1	20
422.886	1	24
423.057	1	34
423.228	1	24
423.398	1	21
423.569	1	30
423.740	1	19
423.910	1	18
424.081	1	18
424.251	1	23
424.422	1	31
424.593	1	15
424.763	1	33
424.934	1	22
425.104	1	25
425.275	1	31
425.445	1	22
425.616	1	9
425.787	1	24
425.957	1	23
426.128	1	32
426.298	1	24
426.469	1	19
426.640	1	26
426.810	1	25
426.981	1	17
427.151	1	16
427.322	1	40
427.493	1	26
427.663	1	25
427.834	1	22
428.004	1	21
428.175	1	32
428.345	1	24
428.516	1	21
428.687	1	18
428.857	1	27
429.028	1	24
429.198	1	24
429.369	1	37
429.540	1	27
429.710	1	13
429.881	1	35
430.051	1	24
430.222	1	28
430.392	1	27
430.563	1	29
430.734	1	31
430.904	1	25
431.075	1	33
431.245	1	17
431.416	1	27
431.586	1	22
431.757	1	18
431.927	1	28
432.098	1	33
432.269	1	22
432.439	1	26
432.610	1	25
432.780	1	21
432.951	1	21
433.121	1	29
433.292	1	29
433.462	1	27
433.633	1	22
433.804	1	31
433.974	1	24
434.145	1	43
434.315	1	19
434.486	1	6
434.656	1	32
434.827	1	20
434.997	1	20
435.168	1	31
435.339	1	31
435.509	1	23
435.680	1	24
435.850	1	12
436.021	1	17
436.191	1	17
436.362	1	24
436.532	1	27
436.703	1	21
436.873	1	27
437.044	1	20
437.214	1	18
437.385	1	10
437.556	1	19
437.726	1	44
437.897	1	24
438.067	1	26
438.238	1	28
438.408	1	30
438.579	1	19
438.749	1	13
438.920	1	15
439.090	1	25
439.261	1	24
439.431	1	20
439.602	1	26
439.772	1	12
439.943	1	29
440.113	1	21
440.284	1	20
440.455	1	13
440.625	1	26
440.796	1	23
440.966	1	23
441.137	1	24
441.307	1	20
441.478	1	27
441.648	1	19
441.819	1	19
441.989	1	24
442.160	1	27
442.330	1	15
442.501	1	28
442.671	1	22
442.842	1	-4
443.012	1	21
443.183	1	27
443.353	1	13
443.524	1	19
443.694	1	32
443.865	1	21
444.035	1	37
444.206	1	24
444.376	1	19
444.547	1	40
444.717	1	21
444.888	1	17
445.058	1	25
445.229	1	12
445.399	1	25
445.570	1	24
445.740	1	15
445.911	1	22
446.081	1	12
446.252	1	25
446.422	1	13
446.593	1	15
446.763	1	20
446.934	1	10
447.104	1	19
447.275	1	16
447.445	1	25
447.616	1	31
447.786	1	23
447.957	1	26
448.127	1	11
448.298	1	30
448.468	1	16
448.639	1	15
448.809	1	22
448.979	1	15
449.150	1	25
449.320	1	24
449.491	1	23
449.661	1	5
449.832	1	12
450.002	1	28
450.173	1	15
450.343	1	25
450.514	1	23
450.684	1	23
450.855	1	18
451.025	1	28
451.196	1	16
451.366	1	14
451.537	1	14
451.707	1	13
451.878	1	15
452.048	1	19
452.218	1	23
452.389	1	33
452.559	1	13
452.730	1	23
452.900	1	18
453.071	1	12
453.241	1	22
453.412	1	17
453.582	1	15
453.753	1	20
453.923	1	16
454.093	1	26
454.264	1	30
454.434	1	16
454.605	1	12
454.775	1	8
454.946	1	19
455.116	1	17
455.287	1	10
455.457	1	11
455.628	1	16
455.798	1	24
455.968	1	13
456.139	1	13
456.309	1	16
456.480	1	12
456.650	1	18
456.821	1	5
456.991	1	16
457.161	1	20
457.332	1	28
457.502	1	8
457.673	1	20
457.843	1	14
458.014	1	23
458.184	1	20
458.355	1	8
458.525	1	14
458.695	1	13
458.866	1	18
459.036	1	21
459.207	1	13
459.377	1	10
459.548	1	18
459.718	1	3
459.888	1	19
460.059	1	20
460.229	1	27
460.400	1	29
460.570	1	18
460.740	1	16
460.911	1	9
461.081	1	20
461.252	1	16
461.422	1	10
461.593	1	10
461.763	1	15
461.933	1	18
462.104	1	6
462.274	1	17
462.445	1	21
462.615	1	10
462.785	1	17
462.956	1	15
463.126	1	22
463.297	1	10
463.467	1	15
463.638	1	12
463.808	1	11
463.978	1	4
464.149	1	17
464.319	1	8
464.490	1	24
464.660	1	16
464.830	1	15
465.001	1	14
465.171	1	25
465.342	1	22
465.512	1	6
465.682	1	23
465.853	1	20
466.023	1	20
466.194	1	11
466.364	1	20
466.534	1	15
466.705	1	6
466.875	1	13
467.045	1	12
467.216	1	21
467.386	1	10
467.557	1	12
467.727	1	11
467.897	1	12
468.068	1	16
468.238	1	18
468.409	1	16
468.579	1	23
468.749	1	5
468.920	1	2
469.090	1	14
469.260	1	15
469.431	1	11
469.601	1	14
469.772	1	15
469.942	1	12
470.112	1	17
470.283	1	16
470.453	1	9
470.623	1	13
470.794	1	6
470.964	1	19
471.135	1	0
471.305	1	4
471.475	1	16
471.646	1	7
471.816	1	9
471.986	1	11
472.157	1	26
472.327	1	11
472.497	1	15
472.668	1	7
472.838	1	8
473.009	1	14
473.179	1	3
473.349	1	10
473.520	1	21
473.690	1	13
473.860	1	15
474.031	1	12
474.201	1	11
474.371	1	16
474.542	1	14
474.712	1	8
474.882	1	14
475.053	1	20
475.223	1	17
475.394	1	16
475.564	1	13
475.734	1	12
475.905	1	17
476.075	1	15
476.245	1	18
476.416	1	16
476.586	1	19
476.756	1	8
476.927	1	9
477.097	1	3
477.267	1	8
477.438	1	24
477.608	1	9
477.778	1	10
477.949	1	18
478.119	1	27
478.289	1	19
478.460	1	16
478.630	1	11
478.800	1	10
478.971	1	19
479.141	1	1
479.311	1	1
479.482	1	8
479.652	1	0
479.822	1	6
479.993	1	14
480.163	1	12
480.333	1	11
480.504	1	12
480.674	1	14
480.844	1	9
481.015	1	24
481.185	1	12
481.355	1	7
481.525	1	6
481.696	1	11
481.866	1	15
482.036	1	10
482.207	1	2
482.377	1	20
482.547	1	19
482.718	1	4
482.888	1	6
483.058	1	9
483.229	1	8
483.399	1	2
483.569	1	8
483.740	1	3
483.910	1	12
484.080	1	5
484.250	1	14
484.421	1	6
484.591	1	14
484.761	1	20
484.932	1	21
485.102	1	14
485.272	1	15
485.443	1	19
485.613	1	12
485.783	1	10
485.953	1	12
486.124	1	12
486.294	1	7
486.464	1	7
486.635	1	17
486.805	1	18
486.975	1	8
487.146	1	12
487.316	1	12
487.486	1	11
487.656	1	4
487.827	1	10
487.997	1	-5
488.167	1	11
488.338	1	13
488.508	1	4
488.678	1	6
488.848	1	14
489.019	1	10
489.189	1	13
489.359	1	-2
489.529	1	9
489.700	1	0
489.870	1	19
490.040	1	3
490.211	1	18
490.381	1	13
490.551	1	11
490.721	1	9
490.892	1	3
491.062	1	13
491.232	1	12
491.402	1	7
491.573	1	-2
491.743	1	18
491.913	1	8
492.084	1	13
492.254	1	9
492.424	1	1
492.594	1	-1
492.765	1	13
492.935	1	7
493.105	1	15
493.275	1	15
493.446	1	20
493.616	1	15
493.786	1	6
493.956	1	9
494.127	1	7
494.297	1	-3
494.467	1	8
494.637	1	6
494.808	1	3
494.978	1	-5
495.148	1	3
495.318	1	1
495.489	1	15
495.659	1	8
495.829	1	4
495.999	1	-2
496.170	1	13
496.340	1	13
496.510	1	13
496.680	1	-9
496.851	1	11
497.021	1	5
497.191	1	-5
497.361	1	9
497.532	1	3
497.702	1	1
497.872	1	2
498.042	1	5
498.213	1	11
498.383	1	14
498.553	1	4
498.723	1	5
498.894	1	4
499.064	1	13
499.234	1	11
499.404	1	14
499.574	1	21
499.745	1	16
499.915	1	-1
500.085	1	16
500.255	1	10
500.426	1	10
500.596	1	6
500.766	1	13
500.936	1	1
501.106	1	-6
501.277	1	4
501.447	1	3
501.617	1	5
501.787	1	2
501.958	1	-1
502.128	1	3
502.298	1	13
502.468	1	12
502.638	1	6
502.809	1	6
502.979	1	-2
503.149	1	-2
503.319	1	2
503.489	1	7
503.660	1	7
503.830	1	8
504.000	1	19
504.170	1	2
504.340	1	1
504.511	1	9
504.681	1	5
504.851	1	2
505.021	1	5
505.192	1	4
505.362	1	14
505.532	1	2
505.702	1	0
505.872	1	18
506.043	1	14
506.213	1	7
506.383	1	5
506.553	1	10
506.723	1	1
506.893	1	11
507.064	1	14
507.234	1	0
507.404	1	-3
507.574	1	3
507.744	1	6
507.915	1	8
508.085	1	16
508.255	1	9
508.425	1	5
508.595	1	17
508.766	1	9
508.936	1	-1
509.106	1	13
509.276	1	7
509.446	1	7
509.616	1	12
509.787	1	1
509.957	1	10
510.127	1	12
510.297	1	6
510.467	1	2
510.638	1	7
510.808	1	9
510.978	1	-6
511.148	1	16
511.318	1	7
511.488	1	-13
511.659	1	3
511.829	1	-4
511.999	1	5
512.169	1	1
512.339	1	8
512.509	1	3
512.680	1	0
512.850	1	12
513.020	1	8
513.190	1	2
513.360	1	4
513.530	1	10
513.700	1	13
513.871	1	5
514.041	1	4
514.211	1	9
514.381	1	11
514.551	1	18
514.721	1	-1
514.892	1	9
515.062	1	2
515.232	1	14
515.402	1	-4
515.572	1	-3
515.742	1	15
515.912	1	13
516.083	1	2
516.253	1	8
516.423	1	8
516.593	1	1
516.763	1	15
516.933	1	-1
517.104	1	4
517.274	1	6
517.444	1	7
517.614	1	-1
517.784	1	2
517.954	1	9
518.124	1	7
518.294	1	3
518.465	1	5
518.635	1	3
518.805	1	0
518.975	1	-1
519.145	1	-2
519.315	1	7
519.485	1	5
519.656	1	18
519.826	1	2
519.996	1	-7
520.166	1	8
520.336	1	9
520.506	1	0
520.676	1	0
520.846	1	16
521.017	1	9
521.187	1	8
521.357	1	17
521.527	1	-2
521.697	1	7
521.867	1	3
522.037	1	15
522.207	1	11
522.377	1	7
522.548	1	7
522.718	1	8
522.888	1	12
523.058	1	8
523.228	1	4
523.398	1	-1
523.568	1	7
523.738	1	10
523.909	1	10
524.079	1	4
524.249	1	3
524.419	1	6
524.589	1	3
524.759	1	-4
524.929	1	-7
525.099	1	4
525.269	1	1
525.439	1	-9
525.610	1	28
525.780	1	-5
525.950	1	6
526.120	1	1
526.290	1	1
526.460	1	8
526.630	1	4
526.800	1	-1
526.970	1	9
527.140	1	3
527.311	1	-2
527.481	1	-8
527.651	1	11
527.821	1	-8
527.991	1	16
528.161	1	12
528.331	1	9
528.501	1	5
528.671	1	-8
528.841	1	2
529.011	1	0
529.181	1	5
529.352	1	7
529.522	1	4
529.692	1	5
529.862	1	5
530.032	1	8
530.202	1	0
530.372	1	1
530.542	1	6
530.712	1	3
530.882	1	6
531.052	1	3
531.222	1	7
531.392	1	3
531.563	1	11
531.733	1	1
531.903	1	1
532.073	1	5
532.243	1	7
532.413	1	2
532.583	1	4
532.753	1	-2
532.923	1	-9
533.093	1	-3
533.263	1	10
533.433	1	3
533.603	1	3
533.773	1	1
533.943	1	-2
534.113	1	-1
534.284	1	0
534.454	1	4
534.624	1	13
534.794	1	-7
534.964	1	11
535.134	1	8
535.304	1	5
535.474	1	10
535.644	1	4
535.814	1	-8
535.984	1	-5
536.154	1	0
536.324	1	-2
536.494	1	6
536.664	1	6
536.834	1	13
537.004	1	6
537.174	1	14
537.344	1	0
537.514	1	-4
537.685	1	2
537.855	1	10
538.025	1	0
538.195	1	0
538.365	1	13
538.535	1	-3
538.705	1	7
538.875	1	3
539.045	1	4
539.215	1	-1
539.385	1	1
539.555	1	6
539.725	1	-4
539.895	1	4
540.065	1	18
540.235	1	11
540.405	1	-4
540.575	1	8
540.745	1	8
540.915	1	4
541.085	1	3
541.255	1	-4
541.425	1	1
541.595	1	2
541.765	1	10
541.935	1	-3
542.105	1	5
542.275	1	-3
542.445	1	-7
542.615	1	12
542.785	1	2
542.955	1	4
543.125	1	-9
543.295	1	8
543.465	1	4
543.635	1	6
543.805	1	17
543.975	1	3
544.145	1	5
544.315	1	0
544.485	1	10
544.655	1	5
544.825	1	1
544.995	1	-3
545.165	1	0
545.335	1	4
545.505	1	-4
545.675	1	6
545.845	1	8
546.015	1	7
546.185	1	12
546.355	1	7
546.525	1	5
546.695	1	10
546.865	1	-6
547.035	1	9
547.205	1	-16
547.375	1	6
547.545	1	16
547.715	1	-5
547.885	1	4
548.055	1	5
548.225	1	9
548.395	1	-2
548.565	1	6
548.735	1	4
548.905	1	2
549.075	1	3
549.245	1	1
549.415	1	-11
549.585	1	-6
549.755	1	12
549.925	1	-3
550.095	1	9
550.265	1	6
550.435	1	2
550.605	1	1
550.775	1	6
550.945	1	9
551.115	1	-1
551.285	1	11
551.455	1	1
551.625	1	9
551.795	1	1
551.965	1	1
552.135	1	-1
552.305	1	-7
552.475	1	1
552.645	1	3
552.815	1	-3
552.985	1	9
553.155	1	5
553.325	1	11
553.495	1	0
553.665	1	3
553.835	1	-7
554.004	1	1
554.174	1	-6
554.344	1	6
554.514	1	4
554.684	1	6
554.854	1	15
555.024	1	-5
555.194	1	-3
555.364	1	20
555.534	1	5
555.704	1	-8
555.874	1	4
556.044	1	9
556.214	1	-6
556.384	1	-3
556.554	1	4
556.724	1	8
556.894	1	0
557.064	1	4
557.234	1	5
557.404	1	9
557.573	1	2
557.743	1	-5
557.913	1	-5
558.083	1	8
558.253	1	9
558.423	1	0
558.593	1	15
558.763	1	5
558.933	1	4
559.103	1	7
559.273	1	1
559.443	1	4
559.613	1	0
559.783	1	0
559.953	1	7
560.122	1	3
560.292	1	9
560.462	1	2
560.632	1	7
560.802	1	1
560.972	1	3
561.142	1	5
561.312	1	-3
561.482	1	12
561.652	1	7
561.822	1	2
561.992	1	-4
562.162	1	2
562.331	1	10
562.501	1	-8
562.671	1	10
562.841	1	-1
563.011	1	7
563.181	1	4
563.351	1	-1
563.521	1	6
563.691	1	4
563.861	1	-2
564.031	1	6
564.201	1	8
564.370	1	-12
564.540	1	-3
564.710	1	-2
564.880	1	9
565.050	1	8
565.220	1	2
565.390	1	5
565.560	1	5
565.730	1	-1
565.900	1	8
566.069	1	14
566.239	1	2
566.409	1	4
566.579	1	11
566.749	1	1
566.919	1	10
567.089	1	6
567.259	1	5
567.429	1	0
567.599	1	-5
567.768	1	7
567.938	1	7
568.108	1	-4
568.278	1	-3
568.448	1	-5
568.618	1	-5
568.788	1	12
568.958	1	-6
569.128	1	11
569.297	1	-4
569.467	1	-7
569.637	1	11
569.807	1	1
569.977	1	6
570.147	1	4
570.317	1	4
570.487	1	9
570.656	1	-1
570.826	1	-5
570.996	1	3
571.166	1	11
571.336	1	3
571.506	1	8
571.676	1	12
571.846	1	20
572.015	1	0
572.185	1	0
572.355	1	5
572.525	1	2
572.695	1	-1
572.865	1	-3
573.035	1	8
573.205	1	11
573.374	1	-2
573.544	1	9
573.714	1	12
573.884	1	19
574.054	1	4
574.224	1	-7
574.394	1	-6
574.563	1	-2
574.733	1	5
574.903	1	-1
575.073	1	-2
575.243	1	4
575.413	1	5
575.583	1	-3
575.752	1	3
575.922	1	7
576.092	1	0
576.262	1	7
576.432	1	6
576.602	1	-3
576.772	1	12
576.941	1	5
577.111	1	-4
577.281	1	3
577.451	1	-1
577.621	1	11
577.791	1	10
577.960	1	-5
578.130	1	5
578.300	1	7
578.470	1	1
578.640	1	-6
578.810	1	-1
578.979	1	4
579.149	1	1
579.319	1	-3
579.489	1	5
579.659	1	1
579.829	1	8
579.998	1	17
580.168	1	4
580.338	1	-5
580.508	1	-2
580.678	1	-2
580.848	1	-3
581.017	1	9
581.187	1	-6
581.357	1	3
581.527	1	4
581.697	1	9
581.867	1	8
582.036	1	2
582.206	1	0
582.376	1	9
582.546	1	-4
582.716	1	-5
582.885	1	-2
583.055	1	4
583.225	1	-6
583.395	1	2
583.565	1	5
583.735	1	3
583.904	1	4
584.074	1	4
584.244	1	2
584.414	1	5
584.584	1	7
584.753	1	0
584.923	1	8
585.093	1	2
585.263	1	1
585.433	1	6
585.602	1	-4
585.772	1	3
585.942	1	6
586.112	1	3
586.282	1	-4
586.451	1	0
586.621	1	-1
586.791	1	2
586.961	1	3
587.131	1	8
587.300	1	6
587.470	1	8
587.640	1	10
587.810	1	-9
587.980	1	-2
588.149	1	0
588.319	1	1
588.489	1	6
588.659	1	7
588.829	1	2
588.998	1	8
589.168	1	10
589.338	1	4
589.508	1	5
589.677	1	-9
589.847	1	-2
590.017	1	16
590.187	1	-5
590.357	1	8
590.526	1	7
590.696	1	2
590.866	1	3
591.036	1	-5
591.205	1	19
591.375	1	-10
591.545	1	-9
591.715	1	11
591.885	1	0
592.054	1	6
592.224	1	0
592.394	1	-1
592.564	1	10
592.733	1	-2
592.903	1	-4
593.073	1	-1
593.243	1	7
593.412	1	0
593.582	1	4
593.752	1	-4
593.922	1	11
594.091	1	2
594.261	1	-1
594.431	1	1
594.601	1	7
594.771	1	-1
594.940	1	0
595.110	1	0
595.280	1	-5
595.450	1	3
595.619	1	3
595.789	1	3
595.959	1	9
596.129	1	-6
596.298	1	4
596.468	1	9
596.638	1	0
596.808	1	10
596.977	1	5
597.147	1	-1
597.317	1	2
597.487	1	1
597.656	1	2
597.826	1	7
597.996	1	-4
598.166	1	6
598.335	1	-11
598.505	1	2
598.675	1	-2
598.844	1	-2
599.014	1	4
599.184	1	5
599.354	1	-11
599.523	1	8
599.693	1	-8
599.863	1	8
600.033	1	1
600.202	1	2
600.372	1	6
600.542	1	4
600.712	1	-1
600.881	1	2
601.051	1	5
601.221	1	3
601.390	1	-7
601.560	1	8
601.730	1	6
601.900	1	6
602.069	1	12
602.239	1	-3
602.409	1	1
602.578	1	1
602.748	1	-1
602.918	1	7
603.088	1	2
603.257	1	14
603.427	1	-1
603.597	1	3
603.767	1	7
603.936	1	6
604.106	1	-1
604.276	1	2
604.445	1	6
604.615	1	0
604.785	1	-4
604.954	1	-5
605.124	1	-3
605.294	1	2
605.464	1	-7
605.633	1	7
605.803	1	9
605.973	1	-8
606.142	1	-3
606.312	1	10
606.482	1	-6
606.652	1	1
606.821	1	-6
606.991	1	-2
607.161	1	-7
607.330	1	11
607.500	1	10
607.670	1	-10
607.839	1	10
608.009	1	16
608.179	1	3
608.348	1	8
608.518	1	-1
608.688	1	12
608.858	1	-5
609.027	1	-7
609.197	1	5
609.367	1	15
609.536	1	6
609.706	1	3
609.876	1	-1
610.045	1	0
610.215	1	12
610.385	1	0
610.554	1	4
610.724	1	11
610.894	1	3
611.063	1	6
611.233	1	2
611.403	1	0
611.572	1	-4
611.742	1	2
611.912	1	6
612.081	1	-8
612.251	1	9
612.421	1	3
612.590	1	4
612.760	1	2
612.930	1	-2
613.099	1	11
613.269	1	17
613.439	1	6
613.608	1	1
613.778	1	6
613.948	1	-4
614.117	1	2
614.287	1	12
614.457	1	4
614.626	1	8
614.796	1	6
614.966	1	8
615.135	1	1
615.305	1	16
615.475	1	-4
615.644	1	5
615.814	1	0
615.984	1	-2
616.153	1	5
616.323	1	2
616.493	1	8
616.662	1	10
616.832	1	4
617.002	1	-3
617.171	1	-1
617.341	1	9
617.511	1	-6
617.680	1	-7
617.850	1	3
618.019	1	5
618.189	1	20
618.359	1	1
618.528	1	-1
618.698	1	-3
618.868	1	0
619.037	1	7
619.207	1	-8
619.377	1	2
619.546	1	-5
619.716	1	-3
619.885	1	-4
620.055	1	-10
620.225	1	2
620.394	1	-8
620.564	1	16
620.734	1	7
620.903	1	-5
621.073	1	4
621.242	1	-5
621.412	1	-9
621.582	1	5
621.751	1	2
621.921	1	4
622.091	1	5
622.260	1	-6
622.430	1	9
622.599	1	1
622.769	1	-4
622.939	1	10
623.108	1	2
623.278	1	-9
623.448	1	5
623.617	1	-1
623.787	1	8
623.956	1	12
624.126	1	-11
624.296	1	7
624.465	1	0
624.635	1	8
624.804	1	-5
624.974	1	1
625.144	1	10
625.313	1	3
625.483	1	-3
625.652	1	-3
625.822	1	0
625.992	1	-1
626.161	1	6
626.331	1	7
626.501	1	8
626.670	1	9
626.840	1	4
627.009	1	1
627.179	1	7
627.348	1	2
627.518	1	0
627.688	1	7
627.857	1	4
628.027	1	0
628.196	1	3
628.366	1	2
628.536	1	5
628.705	1	11
628.875	1	9
629.044	1	7
629.214	1	5
629.384	1	3
629.553	1	12
629.723	1	8
629.892	1	2
630.062	1	1
630.232	1	9
630.401	1	14
630.571	1	0
630.740	1	-6
630.910	1	8
631.079	1	9
631.249	1	1
631.419	1	13
631.588	1	-6
631.758	1	16
631.927	1	0
632.097	1	2
632.266	1	3
632.436	1	12
632.606	1	1
632.775	1	7
632.945	1	7
633.114	1	7
633.284	1	9
633.453	1	-2
633.623	1	3
633.793	1	4
633.962	1	3
634.132	1	5
634.301	1	4
634.471	1	15
634.640	1	7
634.810	1	6
634.979	1	4
635.149	1	7
635.319	1	-3
635.488	1	7
635.658	1	0
635.827	1	-8
635.997	1	1
636.166	1	4
636.336	1	-5
636.505	1	6
636.675	1	6
636.845	1	7
637.014	1	9
637.184	1	2
637.353	1	3
637.523	1	6
637.692	1	7
637.862	1	1
638.031	1	4
638.201	1	2
638.370	1	-1
638.540	1	5
638.710	1	-7
638.879	1	-1
639.049	1	2
639.218	1	-8
639.388	1	-5
639.557	1	3
639.727	1	8
639.896	1	2
640.066	1	1
640.235	1	5
640.405	1	13
640.574	1	-4
640.744	1	-2
640.914	1	3
641.083	1	-9
641.253	1	7
641.422	1	1
641.592	1	13
641.761	1	0
641.931	1	5
642.100	1	23
642.270	1	1
642.439	1	4
642.609	1	7
642.778	1	3
642.948	1	4
643.117	1	5
643.287	1	9
643.456	1	5
643.626	1	12
643.795	1	8
643.965	1	13
644.134	1	3
644.304	1	-1
644.473	1	-1
644.643	1	14
644.812	1	6
644.982	1	1
645.151	1	12
645.321	1	4
645.490	1	5
645.660	1	0
645.829	1	-2
645.999	1	7
646.168	1	9
646.338	1	6
646.507	1	4
646.677	1	8
646.846	1	3
647.016	1	-6
647.185	1	6
647.355	1	-14
647.524	1	19
647.694	1	17
647.863	1	11
648.033	1	-3
648.202	1	11
648.372	1	-4
648.541	1	2
648.711	1	5
648.880	1	-2
649.050	1	6
649.219	1	6
649.389	1	11
649.558	1	0
649.728	1	5
649.897	1	-6
650.067	1	1
650.236	1	1
650.406	1	8
650.575	1	10
650.745	1	18
650.914	1	-11
651.084	1	-1
651.253	1	7
651.423	1	5
651.592	1	10
651.762	1	2
651.931	1	11
652.101	1	2
652.270	1	12
652.440	1	12
652.609	1	-8
652.778	1	-2
652.948	1	-1
653.117	1	0
653.287	1	4
653.456	1	2
653.626	1	12
653.795	1	5
653.965	1	5
654.134	1	6
654.304	1	-10
654.473	1	2
654.643	1	6
654.812	1	8
654.982	1	4
655.151	1	-1
655.320	1	3
655.490	1	0
655.659	1	8
655.829	1	5
655.998	1	1
656.168	1	3
656.337	1	7
656.507	1	5
656.676	1	8
656.846	1	5
657.015	1	9
657.184	1	13
657.354	1	6
657.523	1	7
657.693	1	20
657.862	1	5
658.032	1	8
658.201	1	6
658.371	1	11
658.540	1	-1
658.709	1	0
658.879	1	2
659.048	1	3
659.218	1	-3
659.387	1	2
659.557	1	10
659.726	1	14
659.895	1	1
660.065	1	1
660.234	1	3
660.404	1	10
660.573	1	4
660.743	1	11
660.912	1	8
661.081	1	14
661.251	1	5
661.420	1	6
661.590	1	4
661.759	1	-5
661.929	1	6
662.098	1	14
662.267	1	1
662.437	1	13
662.606	1	2
662.776	1	10
662.945	1	8
663.115	1	6
663.284	1	-1
663.453	1	2
663.623	1	-7
663.792	1	0
663.962	1	2
664.131	1	5
664.300	1	12
664.470	1	3
664.639	1	8
664.809	1	4
664.978	1	12
665.148	1	9
665.317	1	0
665.486	1	8
665.656	1	5
665.825	1	11
665.995	1	2
666.164	1	8
666.333	1	6
666.503	1	-6
666.672	1	1
666.842	1	0
667.011	1	6
667.180	1	13
667.350	1	11
667.519	1	7
667.689	1	2
667.858	1	1
668.027	1	14
668.197	1	2
668.366	1	-9
668.536	1	7
668.705	1	-3
668.874	1	12
669.044	1	-6
669.213	1	10
669.382	1	-2
669.552	1	16
669.721	1	17
669.891	1	21
670.060	1	10
670.229	1	11
670.399	1	0
670.568	1	15
670.738	1	12
670.907	1	-1
671.076	1	-1
671.246	1	4
671.415	1	4
671.584	1	7
671.754	1	4
671.923	1	9
672.093	1	11
672.262	1	6
672.431	1	14
672.601	1	8
672.770	1	-11
672.939	1	3
673.109	1	5
673.278	1	6
673.448	1	15
673.617	1	5
673.786	1	2
