325.333	1	39
325.504	1	37
325.675	1	37
325.846	1	35
326.017	1	34
326.188	1	36
326.359	1	38
326.531	1	21
326.702	1	38
326.873	1	48
327.044	1	37
327.215	1	49
327.386	1	48
327.557	1	39
327.728	1	34
327.899	1	41
328.070	1	43
328.241	1	38
328.412	1	30
328.583	1	37
328.754	1	49
328.926	1	40
329.097	1	42
329.268	1	54
329.439	1	33
329.610	1	49
329.781	1	38
329.952	1	46
330.123	1	44
330.294	1	44
330.465	1	48
330.636	1	56
330.807	1	39
330.978	1	53
331.149	1	46
331.320	1	46
331.492	1	40
331.663	1	49
331.834	1	56
332.005	1	47
332.176	1	60
332.347	1	55
332.518	1	47
332.689	1	58
332.860	1	55
333.031	1	63
333.202	1	62
333.373	1	53
333.544	1	52
333.715	1	54
333.886	1	48
334.057	1	57
334.228	1	47
334.399	1	69
334.570	1	64
334.741	1	52
334.912	1	56
335.084	1	66
335.255	1	65
335.426	1	62
335.597	1	56
335.768	1	53
335.939	1	61
336.110	1	51
336.281	1	56
336.452	1	61
336.623	1	55
336.794	1	73
336.965	1	62
337.136	1	74
337.307	1	61
337.478	1	72
337.649	1	72
337.820	1	62
337.991	1	68
338.162	1	59
338.333	1	55
338.504	1	70
338.675	1	65
338.846	1	74
339.017	1	77
339.188	1	67
339.359	1	59
339.530	1	72
339.701	1	66
339.872	1	80
340.043	1	74
340.214	1	76
340.385	1	79
340.556	1	69
340.727	1	81
340.898	1	88
341.069	1	86
341.240	1	78
341.411	1	76
341.582	1	88
341.753	1	81
341.924	1	83
342.095	1	88
342.266	1	88
342.437	1	93
342.608	1	73
342.779	1	80
342.950	1	88
343.121	1	93
343.292	1	74
343.463	1	85
343.634	1	86
343.805	1	93
343.976	1	91
344.147	1	89
344.318	1	80
344.489	1	89
344.660	1	94
344.831	1	87
345.002	1	87
345.173	1	94
345.344	1	87
345.515	1	93
345.686	1	97
345.857	1	96
346.028	1	87
346.199	1	90
346.370	1	98
346.541	1	95
346.712	1	90
346.883	1	98
347.054	1	92
347.225	1	99
347.396	1	114
347.567	1	111
347.738	1	88
347.909	1	114
348.080	1	107
348.251	1	112
348.422	1	107
348.593	1	103
348.764	1	103
348.935	1	95
349.106	1	110
349.277	1	109
349.448	1	117
349.619	1	103
349.790	1	112
349.961	1	122
350.132	1	119
350.303	1	119
350.474	1	116
350.645	1	120
350.816	1	113
350.987	1	122
351.157	1	105
351.328	1	122
351.499	1	128
351.670	1	109
351.841	1	125
352.012	1	125
352.183	1	124
352.354	1	123
352.525	1	137
352.696	1	122
352.867	1	121
353.038	1	130
353.209	1	122
353.380	1	113
353.551	1	124
353.722	1	142
353.893	1	119
354.064	1	132
354.235	1	131
354.406	1	123
354.576	1	125
354.747	1	126
354.918	1	135
355.089	1	131
355.260	1	146
355.431	1	129
355.602	1	127
355.773	1	131
355.944	1	142
356.115	1	133
356.286	1	150
356.457	1	130
356.628	1	136
356.799	1	125
356.970	1	132
357.141	1	124
357.311	1	132
357.482	1	131
357.653	1	134
357.824	1	140
357.995	1	140
358.166	1	134
358.337	1	129
358.508	1	130
358.679	1	142
358.850	1	166
359.021	1	144
359.192	1	146
359.363	1	145
359.533	1	134
359.704	1	143
359.875	1	145
360.046	1	154
360.217	1	143
360.388	1	149
360.559	1	139
360.730	1	145
360.901	1	146
361.072	1	172
361.243	1	169
361.414	1	154
361.584	1	153
361.755	1	148
361.926	1	158
362.097	1	147
362.268	1	167
362.439	1	145
362.610	1	138
362.781	1	140
362.952	1	135
363.123	1	151
363.293	1	151
363.464	1	161
363.635	1	160
363.806	1	157
363.977	1	160
364.148	1	164
364.319	1	151
364.490	1	153
364.661	1	155
364.832	1	160
365.002	1	162
365.173	1	168
365.344	1	163
365.515	1	156
365.686	1	149
365.857	1	155
366.028	1	163
366.199	1	173
366.370	1	169
366.540	1	151
366.711	1	153
366.882	1	158
367.053	1	159
367.224	1	191
367.395	1	177
367.566	1	174
367.737	1	176
367.908	1	168
368.078	1	171
368.249	1	186
368.420	1	172
368.591	1	169
368.762	1	178
368.933	1	176
369.104	1	168
369.274	1	177
369.445	1	177
369.616	1	174
369.787	1	181
369.958	1	186
370.129	1	179
370.300	1	180
370.471	1	178
370.641	1	176
370.812	1	173
370.983	1	176
371.154	1	172
371.325	1	181
371.496	1	168
371.667	1	186
371.837	1	162
372.008	1	170
372.179	1	173
372.350	1	179
372.521	1	180
372.692	1	156
372.863	1	190
373.033	1	161
373.204	1	173
373.375	1	180
373.546	1	189
373.717	1	192
373.888	1	192
374.059	1	182
374.229	1	177
374.400	1	172
374.571	1	189
374.742	1	190
374.913	1	193
375.084	1	187
375.254	1	185
375.425	1	178
375.596	1	180
375.767	1	184
375.938	1	193
376.109	1	186
376.279	1	187
376.450	1	194
376.621	1	199
376.792	1	183
376.963	1	187
377.134	1	199
377.304	1	201
377.475	1	198
377.646	1	186
377.817	1	201
377.988	1	187
378.159	1	204
378.329	1	198
378.500	1	191
378.671	1	193
378.842	1	206
379.013	1	190
379.184	1	193
379.354	1	198
379.525	1	203
379.696	1	217
379.867	1	216
380.038	1	203
380.209	1	190
380.379	1	206
380.550	1	192
380.721	1	218
380.892	1	207
381.063	1	215
381.233	1	208
381.404	1	194
381.575	1	206
381.746	1	210
381.917	1	196
382.087	1	201
382.258	1	210
382.429	1	209
382.600	1	217
382.771	1	211
382.941	1	212
383.112	1	218
383.283	1	222
383.454	1	214
383.625	1	219
383.795	1	207
383.966	1	206
384.137	1	210
384.308	1	228
384.479	1	225
384.649	1	218
384.820	1	224
384.991	1	228
385.162	1	219
385.333	1	222
385.503	1	215
385.674	1	203
385.845	1	235
386.016	1	223
386.187	1	228
386.357	1	234
386.528	1	229
386.699	1	225
386.870	1	228
387.041	1	232
387.211	1	226
387.382	1	236
387.553	1	235
387.724	1	211
387.894	1	228
388.065	1	224
388.236	1	243
388.407	1	226
388.578	1	232
388.748	1	225
388.919	1	240
389.090	1	220
389.261	1	228
389.431	1	227
389.602	1	221
389.773	1	244
389.944	1	236
390.114	1	229
390.285	1	232
390.456	1	226
390.627	1	223
390.798	1	238
390.968	1	238
391.139	1	244
391.310	1	224
391.481	1	242
391.651	1	239
391.822	1	223
391.993	1	232
392.164	1	222
392.334	1	222
392.505	1	224
392.676	1	244
392.847	1	246
393.017	1	228
393.188	1	236
393.359	1	241
393.530	1	239
393.700	1	229
393.871	1	239
394.042	1	234
394.213	1	236
394.383	1	235
394.554	1	231
394.725	1	236
394.896	1	227
395.066	1	260
395.237	1	227
395.408	1	238
395.579	1	247
395.749	1	255
395.920	1	247
396.091	1	253
396.262	1	246
396.432	1	240
396.603	1	267
396.774	1	255
396.945	1	245
397.115	1	230
397.286	1	242
397.457	1	246
397.627	1	257
397.798	1	248
397.969	1	230
398.140	1	243
398.310	1	266
398.481	1	245
398.652	1	245
398.823	1	252
398.993	1	240
399.164	1	247
399.335	1	273
399.505	1	255
399.676	1	245
399.847	1	242
400.018	1	245
400.188	1	232
400.359	1	262
400.530	1	246
400.700	1	245
400.871	1	237
401.042	1	249
401.213	1	239
401.383	1	240
401.554	1	255
401.725	1	252
401.895	1	239
402.066	1	261
402.237	1	252
402.408	1	254
402.578	1	232
402.749	1	257
402.920	1	258
403.090	1	235
403.261	1	240
403.432	1	246
403.603	1	250
403.773	1	265
403.944	1	274
404.115	1	254
404.285	1	258
404.456	1	246
404.627	1	248
404.797	1	248
404.968	1	251
405.139	1	246
405.310	1	254
405.480	1	258
405.651	1	249
405.822	1	245
405.992	1	259
406.163	1	243
406.334	1	243
406.504	1	241
406.675	1	270
406.846	1	257
407.016	1	268
407.187	1	263
407.358	1	246
407.528	1	253
407.699	1	254
407.870	1	251
408.041	1	257
408.211	1	263
408.382	1	264
408.553	1	252
408.723	1	266
408.894	1	264
409.065	1	263
409.235	1	257
409.406	1	254
409.577	1	245
409.747	1	277
409.918	1	260
410.089	1	256
410.259	1	268
410.430	1	253
410.601	1	253
410.771	1	256
410.942	1	280
411.113	1	261
411.283	1	262
411.454	1	271
411.625	1	260
411.795	1	252
411.966	1	251
412.137	1	262
412.307	1	247
412.478	1	250
412.649	1	256
412.819	1	252
412.990	1	257
413.161	1	262
413.331	1	248
413.502	1	263
413.672	1	248
413.843	1	244
414.014	1	250
414.184	1	241
414.355	1	251
414.526	1	241
414.696	1	261
414.867	1	253
415.038	1	225
415.208	1	246
415.379	1	246
415.550	1	253
415.720	1	252
415.891	1	252
416.062	1	241
416.232	1	260
416.403	1	246
416.573	1	249
416.744	1	245
416.915	1	243
417.085	1	253
417.256	1	242
417.427	1	251
417.597	1	250
417.768	1	250
417.939	1	251
418.109	1	248
418.280	1	263
418.450	1	242
418.621	1	239
418.792	1	261
418.962	1	249
419.133	1	253
419.304	1	229
419.474	1	239
419.645	1	238
419.815	1	253
419.986	1	248
420.157	1	244
420.327	1	255
420.498	1	252
420.669	1	242
420.839	1	241
421.010	1	249
421.180	1	250
421.351	1	245
421.522	1	240
421.692	1	241
421.863	1	246
422.033	1	253
422.204	1	254
422.375	1	232
422.545	1	251
422.716	1	216
422.886	1	234
423.057	1	233
423.228	1	232
423.398	1	239
423.569	1	227
423.740	1	225
423.910	1	227
424.081	1	237
424.251	1	230
424.422	1	226
424.593	1	226
424.763	1	219
424.934	1	233
425.104	1	226
425.275	1	233
425.445	1	220
425.616	1	223
425.787	1	213
425.957	1	224
426.128	1	223
426.298	1	238
426.469	1	225
426.640	1	223
426.810	1	225
426.981	1	227
427.151	1	224
427.322	1	237
427.493	1	217
427.663	1	225
427.834	1	218
428.004	1	215
428.175	1	238
428.345	1	218
428.516	1	209
428.687	1	220
428.857	1	209
429.028	1	223
429.198	1	219
429.369	1	235
429.540	1	232
429.710	1	211
429.881	1	231
430.051	1	217
430.222	1	213
430.392	1	216
430.563	1	210
430.734	1	229
430.904	1	244
431.075	1	229
431.245	1	208
431.416	1	225
431.586	1	216
431.757	1	213
431.927	1	213
432.098	1	222
432.269	1	213
432.439	1	218
432.610	1	216
432.780	1	231
432.951	1	223
433.121	1	208
433.292	1	238
433.462	1	227
433.633	1	218
433.804	1	217
433.974	1	226
434.145	1	227
434.315	1	210
434.486	1	213
434.656	1	220
434.827	1	219
434.997	1	214
435.168	1	203
435.339	1	234
435.509	1	227
435.680	1	206
435.850	1	215
436.021	1	202
436.191	1	202
436.362	1	221
436.532	1	206
436.703	1	215
436.873	1	195
437.044	1	192
437.214	1	213
437.385	1	207
437.556	1	198
437.726	1	219
437.897	1	217
438.067	1	195
438.238	1	204
438.408	1	216
438.579	1	195
438.749	1	185
438.920	1	188
439.090	1	210
439.261	1	200
439.431	1	188
439.602	1	203
439.772	1	191
439.943	1	209
440.113	1	205
440.284	1	200
440.455	1	205
440.625	1	197
440.796	1	200
440.966	1	186
441.137	1	188
441.307	1	196
441.478	1	198
441.648	1	189
441.819	1	196
441.989	1	193
442.160	1	194
442.330	1	190
442.501	1	197
442.671	1	190
442.842	1	173
443.012	1	185
443.183	1	191
443.353	1	174
443.524	1	189
443.694	1	198
443.865	1	187
444.035	1	195
444.206	1	181
444.376	1	179
444.547	1	207
444.717	1	184
444.888	1	186
445.058	1	196
445.229	1	186
445.399	1	185
445.570	1	182
445.740	1	193
445.911	1	190
446.081	1	179
446.252	1	191
446.422	1	181
446.593	1	174
446.763	1	198
446.934	1	189
447.104	1	173
447.275	1	189
447.445	1	190
447.616	1	191
447.786	1	179
447.957	1	178
448.127	1	174
448.298	1	185
448.468	1	185
448.639	1	172
448.809	1	176
448.979	1	178
449.150	1	190
449.320	1	175
449.491	1	184
449.661	1	173
449.832	1	160
450.002	1	195
450.173	1	171
450.343	1	188
450.514	1	172
450.684	1	169
450.855	1	175
451.025	1	170
451.196	1	173
451.366	1	171
451.537	1	159
451.707	1	164
451.878	1	166
452.048	1	170
452.218	1	163
452.389	1	175
452.559	1	158
452.730	1	170
452.900	1	165
453.071	1	152
453.241	1	168
453.412	1	157
453.582	1	160
453.753	1	157
453.923	1	150
454.093	1	164
454.264	1	141
454.434	1	147
454.605	1	150
454.775	1	153
454.946	1	159
455.116	1	145
455.287	1	141
455.457	1	156
455.628	1	157
455.798	1	157
455.968	1	160
456.139	1	149
456.309	1	154
456.480	1	136
456.650	1	143
456.821	1	143
456.991	1	154
457.161	1	155
457.332	1	156
457.502	1	147
457.673	1	148
457.843	1	148
458.014	1	138
458.184	1	149
458.355	1	151
458.525	1	152
458.695	1	151
458.866	1	146
459.036	1	141
459.207	1	141
459.377	1	152
459.548	1	155
459.718	1	151
459.888	1	152
460.059	1	159
460.229	1	143
460.400	1	157
460.570	1	142
460.740	1	135
460.911	1	134
461.081	1	144
461.252	1	140
461.422	1	146
461.593	1	150
461.763	1	148
461.933	1	153
462.104	1	130
462.274	1	145
462.445	1	144
462.615	1	148
462.785	1	133
462.956	1	140
463.126	1	147
463.297	1	142
463.467	1	145
463.638	1	137
463.808	1	137
463.978	1	134
464.149	1	136
464.319	1	131
464.490	1	145
464.660	1	122
464.830	1	119
465.001	1	139
465.171	1	124
465.342	1	139
465.512	1	127
465.682	1	135
465.853	1	146
466.023	1	125
466.194	1	129
466.364	1	133
466.534	1	120
466.705	1	134
466.875	1	127
467.045	1	115
467.216	1	129
467.386	1	122
467.557	1	125
467.727	1	112
467.897	1	122
468.068	1	125
468.238	1	122
468.409	1	120
468.579	1	127
468.749	1	126
468.920	1	96
469.090	1	113
469.260	1	107
469.431	1	115
469.601	1	123
469.772	1	123
469.942	1	113
470.112	1	127
470.283	1	120
470.453	1	131
470.623	1	117
470.794	1	108
470.964	1	127
471.135	1	127
471.305	1	101
471.475	1	111
471.646	1	101
471.816	1	109
471.986	1	113
472.157	1	124
472.327	1	119
472.497	1	120
472.668	1	109
472.838	1	115
473.009	1	120
473.179	1	116
473.349	1	109
473.520	1	126
473.690	1	109
473.860	1	116
474.031	1	112
474.201	1	119
474.371	1	119
474.542	1	117
474.712	1	120
474.882	1	115
475.053	1	126
475.223	1	96
475.394	1	119
475.564	1	111
475.734	1	113
475.905	1	129
476.075	1	120
476.245	1	124
476.416	1	123
476.586	1	123
476.756	1	109
476.927	1	116
477.097	1	113
477.267	1	110
477.438	1	112
477.608	1	93
477.778	1	105
477.949	1	106
478.119	1	107
478.289	1	113
478.460	1	119
478.630	1	114
478.800	1	111
478.971	1	103
479.141	1	109
479.311	1	101
479.482	1	106
479.652	1	100
479.822	1	109
479.993	1	111
480.163	1	115
480.333	1	104
480.504	1	106
480.674	1	111
480.844	1	109
481.015	1	105
481.185	1	108
481.355	1	111
481.525	1	102
481.696	1	108
481.866	1	96
482.036	1	99
482.207	1	103
482.377	1	104
482.547	1	97
482.718	1	97
482.888	1	97
483.058	1	101
483.229	1	103
483.399	1	101
483.569	1	104
483.740	1	111
483.910	1	99
484.080	1	95
484.250	1	95
484.421	1	91
484.591	1	96
484.761	1	113
484.932	1	100
485.102	1	92
485.272	1	94
485.443	1	106
485.613	1	95
485.783	1	82
485.953	1	95
486.124	1	87
486.294	1	98
486.464	1	93
486.635	1	108
486.805	1	107
486.975	1	85
487.146	1	91
487.316	1	89
487.486	1	93
487.656	1	89
487.827	1	82
487.997	1	81
488.167	1	85
488.338	1	95
488.508	1	83
488.678	1	84
488.848	1	101
489.019	1	78
489.189	1	89
489.359	1	80
489.529	1	87
489.700	1	85
489.870	1	93
490.040	1	82
490.211	1	83
490.381	1	89
490.551	1	93
490.721	1	101
490.892	1	81
491.062	1	81
491.232	1	81
491.402	1	87
491.573	1	70
491.743	1	82
491.913	1	81
492.084	1	94
492.254	1	91
492.424	1	79
492.594	1	81
492.765	1	81
492.935	1	83
493.105	1	87
493.275	1	82
493.446	1	84
493.616	1	91
493.786	1	79
493.956	1	80
494.127	1	77
494.297	1	76
494.467	1	80
494.637	1	82
494.808	1	82
494.978	1	80
495.148	1	82
495.318	1	75
495.489	1	88
495.659	1	87
495.829	1	87
495.999	1	70
496.170	1	85
496.340	1	77
496.510	1	72
496.680	1	71
496.851	1	75
497.021	1	87
497.191	1	71
497.361	1	73
497.532	1	74
497.702	1	70
497.872	1	77
498.042	1	74
498.213	1	81
498.383	1	67
498.553	1	72
498.723	1	72
498.894	1	78
499.064	1	83
499.234	1	69
499.404	1	76
499.574	1	83
499.745	1	75
499.915	1	68
500.085	1	71
500.255	1	85
500.426	1	77
500.596	1	71
500.766	1	70
500.936	1	66
501.106	1	77
501.277	1	66
501.447	1	64
501.617	1	62
501.787	1	70
501.958	1	54
502.128	1	58
502.298	1	66
502.468	1	70
502.638	1	66
502.809	1	79
502.979	1	68
503.149	1	60
503.319	1	69
503.489	1	67
503.660	1	67
503.830	1	70
504.000	1	79
504.170	1	63
504.340	1	63
504.511	1	66
504.681	1	63
504.851	1	73
505.021	1	69
505.192	1	70
505.362	1	75
505.532	1	71
505.702	1	67
505.872	1	68
506.043	1	56
506.213	1	64
506.383	1	58
506.553	1	66
506.723	1	65
506.893	1	78
507.064	1	64
507.234	1	64
507.404	1	50
507.574	1	57
507.744	1	63
507.915	1	63
508.085	1	64
508.255	1	69
508.425	1	71
508.595	1	58
508.766	1	74
508.936	1	52
509.106	1	71
509.276	1	65
509.446	1	64
509.616	1	55
509.787	1	60
509.957	1	64
510.127	1	50
510.297	1	61
510.467	1	57
510.638	1	56
510.808	1	42
510.978	1	51
511.148	1	58
511.318	1	62
511.488	1	43
511.659	1	57
511.829	1	57
511.999	1	53
512.169	1	67
512.339	1	73
512.509	1	56
512.680	1	54
512.850	1	58
513.020	1	66
513.190	1	61
513.360	1	52
513.530	1	58
513.700	1	61
513.871	1	54
514.041	1	53
514.211	1	67
514.381	1	58
514.551	1	59
514.721	1	56
514.892	1	63
515.062	1	47
515.232	1	52
515.402	1	60
515.572	1	53
515.742	1	67
515.912	1	69
516.083	1	55
516.253	1	65
516.423	1	54
516.593	1	50
516.763	1	51
516.933	1	45
517.104	1	48
517.274	1	45
517.444	1	54
517.614	1	51
517.784	1	40
517.954	1	53
518.124	1	49
518.294	1	40
518.465	1	46
518.635	1	48
518.805	1	42
518.975	1	54
519.145	1	54
519.315	1	45
519.485	1	38
519.656	1	62
519.826	1	56
519.996	1	33
520.166	1	49
520.336	1	56
520.506	1	50
520.676	1	41
520.846	1	48
521.017	1	57
521.187	1	41
521.357	1	55
521.527	1	48
521.697	1	44
521.867	1	44
522.037	1	59
522.207	1	55
522.377	1	51
522.548	1	48
522.718	1	50
522.888	1	50
523.058	1	45
523.228	1	41
523.398	1	53
523.568	1	50
523.738	1	44
523.909	1	54
524.079	1	47
524.249	1	44
524.419	1	51
524.589	1	51
524.759	1	42
524.929	1	35
525.099	1	48
525.269	1	47
525.439	1	45
525.610	1	47
525.780	1	48
525.950	1	46
526.120	1	49
526.290	1	48
526.460	1	37
526.630	1	47
526.800	1	44
526.970	1	40
527.140	1	47
527.311	1	37
527.481	1	29
527.651	1	51
527.821	1	36
527.991	1	52
528.161	1	47
528.331	1	47
528.501	1	48
528.671	1	37
528.841	1	43
529.011	1	45
529.181	1	49
529.352	1	44
529.522	1	39
529.692	1	46
529.862	1	49
530.032	1	39
530.202	1	46
530.372	1	49
530.542	1	35
530.712	1	39
530.882	1	46
531.052	1	44
531.222	1	38
531.392	1	34
531.563	1	43
531.733	1	54
531.903	1	46
532.073	1	48
532.243	1	39
532.413	1	51
532.583	1	44
532.753	1	32
532.923	1	39
533.093	1	37
533.263	1	43
533.433	1	43
533.603	1	45
533.773	1	38
533.943	1	41
534.113	1	44
534.284	1	37
534.454	1	46
534.624	1	54
534.794	1	35
534.964	1	36
535.134	1	41
535.304	1	43
535.474	1	51
535.644	1	38
535.814	1	33
535.984	1	29
536.154	1	27
536.324	1	31
536.494	1	45
536.664	1	49
536.834	1	37
537.004	1	34
537.174	1	47
537.344	1	37
537.514	1	33
537.685	1	34
537.855	1	49
538.025	1	33
538.195	1	47
538.365	1	44
538.535	1	39
538.705	1	39
538.875	1	38
539.045	1	41
539.215	1	44
539.385	1	49
539.555	1	39
539.725	1	39
539.895	1	34
540.065	1	55
540.235	1	42
540.405	1	29
540.575	1	33
540.745	1	36
540.915	1	48
541.085	1	37
541.255	1	31
541.425	1	37
541.595	1	44
541.765	1	39
541.935	1	36
542.105	1	28
542.275	1	28
542.445	1	34
542.615	1	28
542.785	1	41
542.955	1	26
543.125	1	36
543.295	1	44
543.465	1	38
543.635	1	26
543.805	1	44
543.975	1	30
544.145	1	32
544.315	1	35
544.485	1	35
544.655	1	35
544.825	1	23
544.995	1	36
545.165	1	30
545.335	1	30
545.505	1	30
545.675	1	35
545.845	1	37
546.015	1	33
546.185	1	39
546.355	1	37
546.525	1	28
546.695	1	37
546.865	1	29
547.035	1	32
547.205	1	26
547.375	1	35
547.545	1	34
547.715	1	33
547.885	1	38
548.055	1	31
548.225	1	36
548.395	1	24
548.565	1	44
548.735	1	34
548.905	1	19
549.075	1	40
549.245	1	35
549.415	1	19
549.585	1	40
549.755	1	32
549.925	1	17
550.095	1	36
550.265	1	35
550.435	1	29
550.605	1	26
550.775	1	34
550.945	1	40
551.115	1	31
551.285	1	34
551.455	1	32
551.625	1	44
551.795	1	32
551.965	1	39
552.135	1	35
552.305	1	18
552.475	1	35
552.645	1	25
552.815	1	22
552.985	1	32
553.155	1	19
553.325	1	29
553.495	1	27
553.665	1	25
553.835	1	24
554.004	1	20
554.174	1	24
554.344	1	28
554.514	1	24
554.684	1	19
554.854	1	29
555.024	1	17
555.194	1	21
555.364	1	24
555.534	1	28
555.704	1	30
555.874	1	28
556.044	1	27
556.214	1	32
556.384	1	20
556.554	1	29
556.724	1	32
556.894	1	19
557.064	1	29
557.234	1	31
557.404	1	34
557.573	1	26
557.743	1	24
557.913	1	16
558.083	1	21
558.253	1	24
558.423	1	23
558.593	1	21
558.763	1	20
558.933	1	29
559.103	1	31
559.273	1	22
559.443	1	22
559.613	1	23
559.783	1	19
559.953	1	23
560.122	1	24
560.292	1	21
560.462	1	24
560.632	1	35
560.802	1	18
560.972	1	28
561.142	1	33
561.312	1	12
561.482	1	29
561.652	1	37
561.822	1	19
561.992	1	20
562.162	1	29
562.331	1	21
562.501	1	20
562.671	1	36
562.841	1	12
563.011	1	33
563.181	1	21
563.351	1	19
563.521	1	24
563.691	1	11
563.861	1	26
564.031	1	22
564.201	1	45
564.370	1	13
564.540	1	26
564.710	1	22
564.880	1	24
565.050	1	23
565.220	1	19
565.390	1	24
565.560	1	23
565.730	1	14
565.900	1	27
566.069	1	25
566.239	1	33
566.409	1	25
566.579	1	30
566.749	1	29
566.919	1	34
567.089	1	13
567.259	1	34
567.429	1	19
567.599	1	16
567.768	1	19
567.938	1	21
568.108	1	19
568.278	1	19
568.448	1	20
568.618	1	27
568.788	1	18
568.958	1	13
569.128	1	36
569.297	1	16
569.467	1	24
569.637	1	30
569.807	1	14
569.977	1	16
570.147	1	29
570.317	1	9
570.487	1	14
570.656	1	27
570.826	1	21
570.996	1	13
571.166	1	32
571.336	1	15
571.506	1	23
571.676	1	17
571.846	1	31
572.015	1	23
572.185	1	19
572.355	1	19
572.525	1	25
572.695	1	22
572.865	1	18
573.035	1	28
573.205	1	21
573.374	1	8
573.544	1	17
573.714	1	27
573.884	1	24
574.054	1	36
574.224	1	25
574.394	1	22
574.563	1	19
574.733	1	23
574.903	1	20
575.073	1	25
575.243	1	4
575.413	1	17
575.583	1	18
575.752	1	17
575.922	1	20
576.092	1	21
576.262	1	17
576.432	1	17
576.602	1	12
576.772	1	25
576.941	1	22
577.111	1	13
577.281	1	11
577.451	1	18
577.621	1	39
577.791	1	31
577.960	1	12
578.130	1	24
578.300	1	15
578.470	1	21
578.640	1	17
578.810	1	17
578.979	1	25
579.149	1	18
579.319	1	15
579.489	1	15
579.659	1	17
579.829	1	29
579.998	1	16
580.168	1	28
580.338	1	24
580.508	1	21
580.678	1	23
580.848	1	6
581.017	1	23
581.187	1	14
581.357	1	9
581.527	1	24
581.697	1	23
581.867	1	21
582.036	1	29
582.206	1	20
582.376	1	32
582.546	1	17
582.716	1	9
582.885	1	20
583.055	1	22
583.225	1	5
583.395	1	21
583.565	1	16
583.735	1	20
583.904	1	26
584.074	1	26
584.244	1	19
584.414	1	20
584.584	1	24
584.753	1	21
584.923	1	16
585.093	1	8
585.263	1	12
585.433	1	21
585.602	1	14
585.772	1	13
585.942	1	18
586.112	1	10
586.282	1	19
586.451	1	17
586.621	1	16
586.791	1	15
586.961	1	12
587.131	1	28
587.300	1	20
587.470	1	22
587.640	1	24
587.810	1	12
587.980	1	21
588.149	1	21
588.319	1	22
588.489	1	15
588.659	1	18
588.829	1	20
588.998	1	27
589.168	1	22
589.338	1	28
589.508	1	17
589.677	1	13
589.847	1	4
590.017	1	36
590.187	1	16
590.357	1	33
590.526	1	27
590.696	1	23
590.866	1	18
591.036	1	10
591.205	1	26
591.375	1	15
591.545	1	8
591.715	1	26
591.885	1	14
592.054	1	21
592.224	1	18
592.394	1	21
592.564	1	13
592.733	1	24
592.903	1	23
593.073	1	17
593.243	1	16
593.412	1	21
593.582	1	20
593.752	1	11
593.922	1	11
594.091	1	22
594.261	1	18
594.431	1	25
594.601	1	23
594.771	1	25
594.940	1	9
595.110	1	17
595.280	1	27
595.450	1	23
595.619	1	19
595.789	1	14
595.959	1	22
596.129	1	12
596.298	1	16
596.468	1	24
596.638	1	34
596.808	1	21
596.977	1	21
597.147	1	25
597.317	1	23
597.487	1	22
597.656	1	26
597.826	1	22
597.996	1	23
598.166	1	5
598.335	1	8
598.505	1	20
598.675	1	19
598.844	1	23
599.014	1	17
599.184	1	25
599.354	1	13
599.523	1	15
599.693	1	21
599.863	1	31
600.033	1	9
600.202	1	21
600.372	1	24
600.542	1	28
600.712	1	16
600.881	1	23
601.051	1	27
601.221	1	22
601.390	1	16
601.560	1	25
601.730	1	19
601.900	1	22
602.069	1	14
602.239	1	17
602.409	1	13
602.578	1	22
602.748	1	23
602.918	1	27
603.088	1	22
603.257	1	28
603.427	1	14
603.597	1	20
603.767	1	24
603.936	1	23
604.106	1	20
604.276	1	17
604.445	1	25
604.615	1	15
604.785	1	11
604.954	1	22
605.124	1	12
605.294	1	26
605.464	1	16
605.633	1	26
605.803	1	21
605.973	1	23
606.142	1	15
606.312	1	32
606.482	1	16
606.652	1	35
606.821	1	19
606.991	1	20
607.161	1	19
607.330	1	22
607.500	1	25
607.670	1	17
607.839	1	34
608.009	1	38
608.179	1	25
608.348	1	21
608.518	1	15
608.688	1	26
608.858	1	20
609.027	1	15
609.197	1	30
609.367	1	27
609.536	1	18
609.706	1	17
609.876	1	19
610.045	1	26
610.215	1	27
610.385	1	23
610.554	1	25
610.724	1	17
610.894	1	29
611.063	1	27
611.233	1	24
611.403	1	24
611.572	1	15
611.742	1	21
611.912	1	24
612.081	1	20
612.251	1	36
612.421	1	15
612.590	1	23
612.760	1	24
612.930	1	27
613.099	1	27
613.269	1	20
613.439	1	20
613.608	1	30
613.778	1	25
613.948	1	17
614.117	1	31
614.287	1	33
614.457	1	29
614.626	1	31
614.796	1	22
614.966	1	18
615.135	1	24
615.305	1	28
615.475	1	24
615.644	1	20
615.814	1	30
615.984	1	19
616.153	1	25
616.323	1	23
616.493	1	22
616.662	1	25
616.832	1	24
617.002	1	20
617.171	1	23
617.341	1	24
617.511	1	23
617.680	1	20
617.850	1	22
618.019	1	34
618.189	1	32
618.359	1	22
618.528	1	21
618.698	1	31
618.868	1	18
619.037	1	22
619.207	1	12
619.377	1	20
619.546	1	27
619.716	1	21
619.885	1	34
620.055	1	19
620.225	1	22
620.394	1	20
620.564	1	30
620.734	1	20
620.903	1	15
621.073	1	34
621.242	1	27
621.412	1	27
621.582	1	16
621.751	1	32
621.921	1	32
622.091	1	23
622.260	1	28
622.430	1	32
622.599	1	21
622.769	1	20
622.939	1	33
623.108	1	24
623.278	1	24
623.448	1	17
623.617	1	31
623.787	1	31
623.956	1	32
624.126	1	25
624.296	1	30
624.465	1	28
624.635	1	34
624.804	1	38
624.974	1	29
625.144	1	31
625.313	1	31
625.483	1	28
625.652	1	29
625.822	1	33
625.992	1	29
626.161	1	34
626.331	1	27
626.501	1	42
626.670	1	28
626.840	1	23
627.009	1	27
627.179	1	33
627.348	1	38
627.518	1	43
627.688	1	26
627.857	1	33
628.027	1	27
628.196	1	30
628.366	1	28
628.536	1	33
628.705	1	27
628.875	1	30
629.044	1	22
629.214	1	31
629.384	1	40
629.553	1	35
629.723	1	31
629.892	1	34
630.062	1	26
630.232	1	31
630.401	1	40
630.571	1	25
630.740	1	35
630.910	1	38
631.079	1	28
631.249	1	31
631.419	1	42
631.588	1	22
631.758	1	37
631.927	1	28
632.097	1	35
632.266	1	36
632.436	1	44
632.606	1	20
632.775	1	44
632.945	1	33
633.114	1	35
633.284	1	42
633.453	1	28
633.623	1	36
633.793	1	34
633.962	1	33
634.132	1	36
634.301	1	32
634.471	1	39
634.640	1	38
634.810	1	36
634.979	1	27
635.149	1	45
635.319	1	42
635.488	1	32
635.658	1	36
635.827	1	31
635.997	1	34
636.166	1	31
636.336	1	29
636.505	1	50
636.675	1	25
636.845	1	46
637.014	1	38
637.184	1	30
637.353	1	33
637.523	1	44
637.692	1	36
637.862	1	40
638.031	1	35
638.201	1	36
638.370	1	38
638.540	1	44
638.710	1	31
638.879	1	28
639.049	1	31
639.218	1	38
639.388	1	36
639.557	1	38
639.727	1	37
639.896	1	39
640.066	1	37
640.235	1	46
640.405	1	37
640.574	1	44
640.744	1	29
640.914	1	41
641.083	1	31
641.253	1	38
641.422	1	40
641.592	1	48
641.761	1	37
641.931	1	41
642.100	1	47
642.270	1	36
642.439	1	42
642.609	1	55
642.778	1	40
642.948	1	37
643.117	1	47
643.287	1	40
643.456	1	37
643.626	1	48
643.795	1	37
643.965	1	32
644.134	1	33
644.304	1	47
644.473	1	36
644.643	1	46
644.812	1	45
644.982	1	40
645.151	1	32
645.321	1	33
645.490	1	56
645.660	1	29
645.829	1	40
645.999	1	43
646.168	1	48
646.338	1	41
646.507	1	40
646.677	1	46
646.846	1	34
647.016	1	26
647.185	1	38
647.355	1	28
647.524	1	45
647.694	1	49
647.863	1	49
648.033	1	49
648.202	1	53
648.372	1	42
648.541	1	36
648.711	1	32
648.880	1	32
649.050	1	40
649.219	1	47
649.389	1	42
649.558	1	37
649.728	1	38
649.897	1	41
650.067	1	56
650.236	1	50
650.406	1	44
650.575	1	51
650.745	1	41
650.914	1	35
651.084	1	33
651.253	1	40
651.423	1	44
651.592	1	37
651.762	1	40
651.931	1	56
652.101	1	51
652.270	1	49
652.440	1	51
652.609	1	35
652.778	1	36
652.948	1	42
653.117	1	40
653.287	1	41
653.456	1	46
653.626	1	53
653.795	1	41
653.965	1	45
654.134	1	46
654.304	1	30
654.473	1	51
654.643	1	46
654.812	1	38
654.982	1	41
655.151	1	46
655.320	1	48
655.490	1	44
655.659	1	43
655.829	1	40
655.998	1	48
656.168	1	47
656.337	1	33
656.507	1	50
656.676	1	49
656.846	1	51
657.015	1	49
657.184	1	53
657.354	1	51
657.523	1	49
657.693	1	45
657.862	1	46
658.032	1	40
658.201	1	52
658.371	1	59
658.540	1	47
658.709	1	44
658.879	1	52
659.048	1	51
659.218	1	49
659.387	1	40
659.557	1	46
659.726	1	55
659.895	1	54
660.065	1	32
660.234	1	52
660.404	1	56
660.573	1	43
660.743	1	46
660.912	1	47
661.081	1	56
661.251	1	40
661.420	1	54
661.590	1	53
661.759	1	48
661.929	1	52
662.098	1	64
662.267	1	43
662.437	1	49
662.606	1	45
662.776	1	55
662.945	1	36
663.115	1	47
663.284	1	41
663.453	1	49
663.623	1	50
663.792	1	51
663.962	1	45
664.131	1	51
664.300	1	62
664.470	1	56
664.639	1	53
664.809	1	49
664.978	1	46
665.148	1	55
665.317	1	53
665.486	1	56
665.656	1	47
665.825	1	53
665.995	1	48
666.164	1	54
666.333	1	59
666.503	1	53
666.672	1	43
666.842	1	47
667.011	1	51
667.180	1	55
667.350	1	47
667.519	1	56
667.689	1	48
667.858	1	52
668.027	1	59
668.197	1	47
668.366	1	42
668.536	1	53
668.705	1	48
668.874	1	58
669.044	1	53
669.213	1	59
669.382	1	36
669.552	1	59
669.721	1	51
669.891	1	52
670.060	1	53
670.229	1	63
670.399	1	56
670.568	1	61
670.738	1	59
670.907	1	50
671.076	1	39
671.246	1	46
671.415	1	56
671.584	1	43
671.754	1	44
671.923	1	49
672.093	1	60
672.262	1	50
672.431	1	52
672.601	1	48
672.770	1	42
672.939	1	46
673.109	1	51
673.278	1	54
673.448	1	55
673.617	1	54
673.786	1	61
