325.333	1	34
325.504	1	35
325.675	1	33
325.846	1	37
326.017	1	25
326.188	1	34
326.359	1	35
326.531	1	32
326.702	1	28
326.873	1	46
327.044	1	48
327.215	1	42
327.386	1	49
327.557	1	24
327.728	1	49
327.899	1	43
328.070	1	50
328.241	1	52
328.412	1	36
328.583	1	46
328.754	1	52
328.926	1	52
329.097	1	45
329.268	1	54
329.439	1	42
329.610	1	54
329.781	1	44
329.952	1	52
330.123	1	52
330.294	1	54
330.465	1	44
330.636	1	48
330.807	1	41
330.978	1	49
331.149	1	48
331.320	1	47
331.492	1	53
331.663	1	54
331.834	1	58
332.005	1	54
332.176	1	71
332.347	1	62
332.518	1	53
332.689	1	59
332.860	1	49
333.031	1	49
333.202	1	46
333.373	1	64
333.544	1	65
333.715	1	50
333.886	1	65
334.057	1	57
334.228	1	53
334.399	1	54
334.570	1	66
334.741	1	51
334.912	1	65
335.084	1	81
335.255	1	61
335.426	1	49
335.597	1	68
335.768	1	72
335.939	1	77
336.110	1	62
336.281	1	62
336.452	1	64
336.623	1	65
336.794	1	66
336.965	1	61
337.136	1	79
337.307	1	67
337.478	1	65
337.649	1	59
337.820	1	71
337.991	1	68
338.162	1	82
338.333	1	62
338.504	1	71
338.675	1	70
338.846	1	77
339.017	1	77
339.188	1	66
339.359	1	61
339.530	1	85
339.701	1	78
339.872	1	86
340.043	1	67
340.214	1	80
340.385	1	87
340.556	1	70
340.727	1	77
340.898	1	79
341.069	1	76
341.240	1	88
341.411	1	79
341.582	1	87
341.753	1	65
341.924	1	71
342.095	1	77
342.266	1	96
342.437	1	99
342.608	1	85
342.779	1	91
342.950	1	97
343.121	1	76
343.292	1	89
343.463	1	97
343.634	1	89
343.805	1	107
343.976	1	96
344.147	1	93
344.318	1	82
344.489	1	97
344.660	1	105
344.831	1	95
345.002	1	99
345.173	1	115
345.344	1	98
345.515	1	101
345.686	1	92
345.857	1	112
346.028	1	101
346.199	1	99
346.370	1	103
346.541	1	108
346.712	1	106
346.883	1	109
347.054	1	93
347.225	1	103
347.396	1	106
347.567	1	118
347.738	1	95
347.909	1	117
348.080	1	86
348.251	1	106
348.422	1	104
348.593	1	112
348.764	1	116
348.935	1	117
349.106	1	105
349.277	1	106
349.448	1	127
349.619	1	125
349.790	1	117
349.961	1	116
350.132	1	127
350.303	1	113
350.474	1	134
350.645	1	130
350.816	1	128
350.987	1	137
351.157	1	116
351.328	1	138
351.499	1	123
351.670	1	114
351.841	1	139
352.012	1	135
352.183	1	125
352.354	1	136
352.525	1	145
352.696	1	143
352.867	1	136
353.038	1	139
353.209	1	128
353.380	1	125
353.551	1	138
353.722	1	116
353.893	1	123
354.064	1	149
354.235	1	123
354.406	1	136
354.576	1	127
354.747	1	135
354.918	1	134
355.089	1	139
355.260	1	140
355.431	1	140
355.602	1	134
355.773	1	139
355.944	1	149
356.115	1	130
356.286	1	133
356.457	1	150
356.628	1	147
356.799	1	135
356.970	1	157
357.141	1	143
357.311	1	139
357.482	1	143
357.653	1	142
357.824	1	167
357.995	1	149
358.166	1	143
358.337	1	155
358.508	1	149
358.679	1	154
358.850	1	145
359.021	1	136
359.192	1	156
359.363	1	149
359.533	1	162
359.704	1	144
359.875	1	162
360.046	1	155
360.217	1	162
360.388	1	152
360.559	1	148
360.730	1	161
360.901	1	157
361.072	1	177
361.243	1	169
361.414	1	160
361.584	1	144
361.755	1	164
361.926	1	161
362.097	1	163
362.268	1	152
362.439	1	164
362.610	1	176
362.781	1	153
362.952	1	169
363.123	1	174
363.293	1	158
363.464	1	170
363.635	1	166
363.806	1	164
363.977	1	162
364.148	1	178
364.319	1	171
364.490	1	159
364.661	1	158
364.832	1	187
365.002	1	167
365.173	1	170
365.344	1	185
365.515	1	165
365.686	1	173
365.857	1	162
366.028	1	182
366.199	1	167
366.370	1	163
366.540	1	174
366.711	1	163
366.882	1	169
367.053	1	166
367.224	1	190
367.395	1	175
367.566	1	187
367.737	1	172
367.908	1	190
368.078	1	179
368.249	1	183
368.420	1	167
368.591	1	189
368.762	1	185
368.933	1	169
369.104	1	173
369.274	1	189
369.445	1	180
369.616	1	194
369.787	1	196
369.958	1	197
370.129	1	177
370.300	1	180
370.471	1	176
370.641	1	182
370.812	1	181
370.983	1	188
371.154	1	173
371.325	1	187
371.496	1	171
371.667	1	186
371.837	1	170
372.008	1	183
372.179	1	182
372.350	1	195
372.521	1	187
372.692	1	188
372.863	1	193
373.033	1	189
373.204	1	186
373.375	1	194
373.546	1	198
373.717	1	193
373.888	1	190
374.059	1	189
374.229	1	201
374.400	1	188
374.571	1	185
374.742	1	197
374.913	1	197
375.084	1	177
375.254	1	205
375.425	1	194
375.596	1	194
375.767	1	193
375.938	1	199
376.109	1	204
376.279	1	188
376.450	1	199
376.621	1	187
376.792	1	195
376.963	1	200
377.134	1	200
377.304	1	210
377.475	1	190
377.646	1	211
377.817	1	203
377.988	1	198
378.159	1	221
378.329	1	225
378.500	1	200
378.671	1	207
378.842	1	214
379.013	1	207
379.184	1	195
379.354	1	220
379.525	1	212
379.696	1	220
379.867	1	213
380.038	1	208
380.209	1	206
380.379	1	200
380.550	1	202
380.721	1	212
380.892	1	222
381.063	1	214
381.233	1	204
381.404	1	210
381.575	1	230
381.746	1	211
381.917	1	214
382.087	1	215
382.258	1	203
382.429	1	209
382.600	1	225
382.771	1	228
382.941	1	220
383.112	1	226
383.283	1	227
383.454	1	222
383.625	1	213
383.795	1	227
383.966	1	220
384.137	1	239
384.308	1	236
384.479	1	232
384.649	1	237
384.820	1	239
384.991	1	217
385.162	1	231
385.333	1	230
385.503	1	232
385.674	1	224
385.845	1	242
386.016	1	228
386.187	1	233
386.357	1	232
386.528	1	236
386.699	1	229
386.870	1	251
387.041	1	243
387.211	1	222
387.382	1	249
387.553	1	236
387.724	1	237
387.894	1	233
388.065	1	254
388.236	1	243
388.407	1	233
388.578	1	236
388.748	1	244
388.919	1	257
389.090	1	250
389.261	1	230
389.431	1	248
389.602	1	245
389.773	1	240
389.944	1	236
390.114	1	236
390.285	1	262
390.456	1	237
390.627	1	251
390.798	1	246
390.968	1	242
391.139	1	249
391.310	1	232
391.481	1	245
391.651	1	251
391.822	1	224
391.993	1	233
392.164	1	236
392.334	1	243
392.505	1	218
392.676	1	255
392.847	1	237
393.017	1	252
393.188	1	250
393.359	1	232
393.530	1	245
393.700	1	244
393.871	1	244
394.042	1	255
394.213	1	238
394.383	1	257
394.554	1	248
394.725	1	264
394.896	1	235
395.066	1	253
395.237	1	237
395.408	1	254
395.579	1	262
395.749	1	259
395.920	1	248
396.091	1	263
396.262	1	257
396.432	1	251
396.603	1	266
396.774	1	260
396.945	1	260
397.115	1	253
397.286	1	253
397.457	1	256
397.627	1	264
397.798	1	264
397.969	1	263
398.140	1	248
398.310	1	251
398.481	1	263
398.652	1	259
398.823	1	256
398.993	1	262
399.164	1	265
399.335	1	260
399.505	1	266
399.676	1	258
399.847	1	243
400.018	1	253
400.188	1	259
400.359	1	253
400.530	1	260
400.700	1	260
400.871	1	245
401.042	1	253
401.213	1	263
401.383	1	258
401.554	1	267
401.725	1	262
401.895	1	248
402.066	1	263
402.237	1	247
402.408	1	267
402.578	1	261
402.749	1	262
402.920	1	265
403.090	1	235
403.261	1	257
403.432	1	266
403.603	1	274
403.773	1	271
403.944	1	257
404.115	1	266
404.285	1	270
404.456	1	274
404.627	1	257
404.797	1	246
404.968	1	264
405.139	1	272
405.310	1	274
405.480	1	267
405.651	1	251
405.822	1	261
405.992	1	263
406.163	1	262
406.334	1	256
406.504	1	253
406.675	1	273
406.846	1	255
407.016	1	282
407.187	1	277
407.358	1	270
407.528	1	260
407.699	1	264
407.870	1	262
408.041	1	265
408.211	1	284
408.382	1	258
408.553	1	266
408.723	1	276
408.894	1	270
409.065	1	278
409.235	1	270
409.406	1	272
409.577	1	270
409.747	1	276
409.918	1	272
410.089	1	287
410.259	1	274
410.430	1	277
410.601	1	278
410.771	1	257
410.942	1	284
411.113	1	268
411.283	1	278
411.454	1	263
411.625	1	251
411.795	1	273
411.966	1	273
412.137	1	263
412.307	1	251
412.478	1	276
412.649	1	278
412.819	1	261
412.990	1	261
413.161	1	270
413.331	1	253
413.502	1	265
413.672	1	260
413.843	1	277
414.014	1	263
414.184	1	276
414.355	1	257
414.526	1	266
414.696	1	259
414.867	1	262
415.038	1	249
415.208	1	252
415.379	1	271
415.550	1	261
415.720	1	262
415.891	1	244
416.062	1	260
416.232	1	269
416.403	1	261
416.573	1	280
416.744	1	252
416.915	1	263
417.085	1	251
417.256	1	268
417.427	1	262
417.597	1	254
417.768	1	259
417.939	1	268
418.109	1	265
418.280	1	252
418.450	1	249
418.621	1	257
418.792	1	265
418.962	1	254
419.133	1	265
419.304	1	257
419.474	1	245
419.645	1	260
419.815	1	265
419.986	1	254
420.157	1	277
420.327	1	262
420.498	1	269
420.669	1	248
420.839	1	258
421.010	1	248
421.180	1	255
421.351	1	261
421.522	1	258
421.692	1	260
421.863	1	255
422.033	1	253
422.204	1	253
422.375	1	239
422.545	1	253
422.716	1	242
422.886	1	243
423.057	1	258
423.228	1	246
423.398	1	236
423.569	1	252
423.740	1	230
423.910	1	230
424.081	1	245
424.251	1	242
424.422	1	240
424.593	1	232
424.763	1	238
424.934	1	238
425.104	1	226
425.275	1	236
425.445	1	237
425.616	1	236
425.787	1	243
425.957	1	252
426.128	1	255
426.298	1	233
426.469	1	224
426.640	1	226
426.810	1	246
426.981	1	229
427.151	1	240
427.322	1	241
427.493	1	236
427.663	1	241
427.834	1	229
428.004	1	231
428.175	1	241
428.345	1	234
428.516	1	232
428.687	1	230
428.857	1	221
429.028	1	222
429.198	1	236
429.369	1	230
429.540	1	237
429.710	1	219
429.881	1	235
430.051	1	232
430.222	1	227
430.392	1	226
430.563	1	249
430.734	1	240
430.904	1	235
431.075	1	242
431.245	1	232
431.416	1	244
431.586	1	233
431.757	1	227
431.927	1	228
432.098	1	219
432.269	1	230
432.439	1	232
432.610	1	234
432.780	1	242
432.951	1	213
433.121	1	229
433.292	1	247
433.462	1	219
433.633	1	240
433.804	1	233
433.974	1	230
434.145	1	225
434.315	1	213
434.486	1	218
434.656	1	212
434.827	1	217
434.997	1	229
435.168	1	225
435.339	1	221
435.509	1	229
435.680	1	215
435.850	1	228
436.021	1	222
436.191	1	220
436.362	1	220
436.532	1	220
436.703	1	223
436.873	1	230
437.044	1	211
437.214	1	228
437.385	1	211
437.556	1	216
437.726	1	214
437.897	1	228
438.067	1	208
438.238	1	218
438.408	1	214
438.579	1	195
438.749	1	205
438.920	1	204
439.090	1	219
439.261	1	211
439.431	1	197
439.602	1	201
439.772	1	200
439.943	1	218
440.113	1	210
440.284	1	213
440.455	1	207
440.625	1	212
440.796	1	205
440.966	1	202
441.137	1	207
441.307	1	182
441.478	1	197
441.648	1	206
441.819	1	201
441.989	1	197
442.160	1	201
442.330	1	197
442.501	1	216
442.671	1	185
442.842	1	190
443.012	1	202
443.183	1	206
443.353	1	175
443.524	1	214
443.694	1	203
443.865	1	200
444.035	1	197
444.206	1	194
444.376	1	185
444.547	1	211
444.717	1	194
444.888	1	201
445.058	1	202
445.229	1	186
445.399	1	185
445.570	1	199
445.740	1	194
445.911	1	193
446.081	1	190
446.252	1	189
446.422	1	179
446.593	1	176
446.763	1	190
446.934	1	194
447.104	1	206
447.275	1	192
447.445	1	188
447.616	1	181
447.786	1	194
447.957	1	197
448.127	1	190
448.298	1	179
448.468	1	185
448.639	1	181
448.809	1	193
448.979	1	169
449.150	1	185
449.320	1	195
449.491	1	186
449.661	1	172
449.832	1	168
450.002	1	194
450.173	1	180
450.343	1	180
450.514	1	180
450.684	1	176
450.855	1	181
451.025	1	192
451.196	1	177
451.366	1	185
451.537	1	166
451.707	1	155
451.878	1	177
452.048	1	189
452.218	1	183
452.389	1	163
452.559	1	162
452.730	1	184
452.900	1	182
453.071	1	162
453.241	1	182
453.412	1	164
453.582	1	166
453.753	1	163
453.923	1	165
454.093	1	168
454.264	1	182
454.434	1	161
454.605	1	175
454.775	1	170
454.946	1	158
455.116	1	163
455.287	1	149
455.457	1	158
455.628	1	161
455.798	1	163
455.968	1	168
456.139	1	151
456.309	1	162
456.480	1	160
456.650	1	157
456.821	1	149
456.991	1	162
457.161	1	153
457.332	1	155
457.502	1	158
457.673	1	148
457.843	1	164
458.014	1	149
458.184	1	152
458.355	1	159
458.525	1	164
458.695	1	149
458.866	1	162
459.036	1	157
459.207	1	157
459.377	1	147
459.548	1	161
459.718	1	134
459.888	1	154
460.059	1	148
460.229	1	163
460.400	1	151
460.570	1	153
460.740	1	146
460.911	1	159
461.081	1	140
461.252	1	157
461.422	1	150
461.593	1	144
461.763	1	159
461.933	1	152
462.104	1	147
462.274	1	137
462.445	1	159
462.615	1	138
462.785	1	154
462.956	1	155
463.126	1	143
463.297	1	135
463.467	1	151
463.638	1	139
463.808	1	132
463.978	1	134
464.149	1	143
464.319	1	147
464.490	1	142
464.660	1	143
464.830	1	136
465.001	1	133
465.171	1	140
465.342	1	142
465.512	1	135
465.682	1	141
465.853	1	132
466.023	1	122
466.194	1	133
466.364	1	147
466.534	1	127
466.705	1	130
466.875	1	132
467.045	1	127
467.216	1	139
467.386	1	120
467.557	1	129
467.727	1	117
467.897	1	113
468.068	1	121
468.238	1	123
468.409	1	117
468.579	1	137
468.749	1	126
468.920	1	120
469.090	1	122
469.260	1	113
469.431	1	130
469.601	1	125
469.772	1	125
469.942	1	118
470.112	1	117
470.283	1	116
470.453	1	113
470.623	1	116
470.794	1	119
470.964	1	125
471.135	1	125
471.305	1	105
471.475	1	123
471.646	1	107
471.816	1	128
471.986	1	124
472.157	1	128
472.327	1	113
472.497	1	115
472.668	1	122
472.838	1	122
473.009	1	117
473.179	1	117
473.349	1	109
473.520	1	123
473.690	1	126
473.860	1	121
474.031	1	121
474.201	1	111
474.371	1	127
474.542	1	121
474.712	1	121
474.882	1	125
475.053	1	121
475.223	1	108
475.394	1	136
475.564	1	121
475.734	1	115
475.905	1	128
476.075	1	111
476.245	1	123
476.416	1	123
476.586	1	122
476.756	1	110
476.927	1	109
477.097	1	117
477.267	1	108
477.438	1	127
477.608	1	107
477.778	1	109
477.949	1	117
478.119	1	115
478.289	1	121
478.460	1	130
478.630	1	102
478.800	1	118
478.971	1	105
479.141	1	106
479.311	1	104
479.482	1	106
479.652	1	104
479.822	1	119
479.993	1	107
480.163	1	105
480.333	1	128
480.504	1	114
480.674	1	110
480.844	1	107
481.015	1	127
481.185	1	97
481.355	1	97
481.525	1	99
481.696	1	109
481.866	1	97
482.036	1	112
482.207	1	99
482.377	1	101
482.547	1	118
482.718	1	105
482.888	1	110
483.058	1	91
483.229	1	108
483.399	1	102
483.569	1	92
483.740	1	96
483.910	1	100
484.080	1	101
484.250	1	99
484.421	1	105
484.591	1	98
484.761	1	106
484.932	1	105
485.102	1	109
485.272	1	100
485.443	1	107
485.613	1	103
485.783	1	98
485.953	1	89
486.124	1	102
486.294	1	104
486.464	1	96
486.635	1	97
486.805	1	96
486.975	1	88
487.146	1	91
487.316	1	95
487.486	1	89
487.656	1	85
487.827	1	98
487.997	1	84
488.167	1	89
488.338	1	109
488.508	1	90
488.678	1	74
488.848	1	94
489.019	1	89
489.189	1	93
489.359	1	80
489.529	1	91
489.700	1	78
489.870	1	103
490.040	1	86
490.211	1	72
490.381	1	97
490.551	1	90
490.721	1	87
490.892	1	97
491.062	1	93
491.232	1	93
491.402	1	94
491.573	1	76
491.743	1	83
491.913	1	82
492.084	1	101
492.254	1	73
492.424	1	79
492.594	1	85
492.765	1	71
492.935	1	81
493.105	1	88
493.275	1	86
493.446	1	82
493.616	1	85
493.786	1	86
493.956	1	78
494.127	1	81
494.297	1	80
494.467	1	80
494.637	1	82
494.808	1	73
494.978	1	74
495.148	1	96
495.318	1	80
495.489	1	92
495.659	1	86
495.829	1	92
495.999	1	78
496.170	1	83
496.340	1	86
496.510	1	87
496.680	1	78
496.851	1	77
497.021	1	67
497.191	1	74
497.361	1	70
497.532	1	70
497.702	1	80
497.872	1	79
498.042	1	87
498.213	1	78
498.383	1	80
498.553	1	67
498.723	1	82
498.894	1	83
499.064	1	80
499.234	1	78
499.404	1	76
499.574	1	78
499.745	1	82
499.915	1	68
500.085	1	76
500.255	1	82
500.426	1	69
500.596	1	74
500.766	1	71
500.936	1	65
501.106	1	77
501.277	1	76
501.447	1	73
501.617	1	69
501.787	1	64
501.958	1	55
502.128	1	68
502.298	1	66
502.468	1	62
502.638	1	75
502.809	1	71
502.979	1	65
503.149	1	53
503.319	1	69
503.489	1	60
503.660	1	70
503.830	1	59
504.000	1	80
504.170	1	64
504.340	1	63
504.511	1	71
504.681	1	67
504.851	1	61
505.021	1	69
505.192	1	50
505.362	1	68
505.532	1	63
505.702	1	56
505.872	1	61
506.043	1	72
506.213	1	60
506.383	1	75
506.553	1	75
506.723	1	69
506.893	1	61
507.064	1	72
507.234	1	59
507.404	1	63
507.574	1	64
507.744	1	71
507.915	1	68
508.085	1	73
508.255	1	63
508.425	1	54
508.595	1	73
508.766	1	65
508.936	1	49
509.106	1	63
509.276	1	62
509.446	1	43
509.616	1	63
509.787	1	64
509.957	1	72
510.127	1	64
510.297	1	60
510.467	1	57
510.638	1	62
510.808	1	54
510.978	1	58
511.148	1	60
511.318	1	64
511.488	1	53
511.659	1	56
511.829	1	49
511.999	1	59
512.169	1	61
512.339	1	60
512.509	1	56
512.680	1	62
512.850	1	55
513.020	1	68
513.190	1	57
513.360	1	51
513.530	1	62
513.700	1	63
513.871	1	50
514.041	1	58
514.211	1	67
514.381	1	66
514.551	1	56
514.721	1	52
514.892	1	68
515.062	1	53
515.232	1	56
515.402	1	45
515.572	1	53
515.742	1	62
515.912	1	61
516.083	1	50
516.253	1	62
516.423	1	49
516.593	1	58
516.763	1	70
516.933	1	48
517.104	1	51
517.274	1	51
517.444	1	55
517.614	1	54
517.784	1	54
517.954	1	56
518.124	1	52
518.294	1	52
518.465	1	57
518.635	1	47
518.805	1	37
518.975	1	45
519.145	1	45
519.315	1	53
519.485	1	40
519.656	1	65
519.826	1	58
519.996	1	46
520.166	1	43
520.336	1	57
520.506	1	42
520.676	1	39
520.846	1	48
521.017	1	55
521.187	1	49
521.357	1	51
521.527	1	54
521.697	1	51
521.867	1	48
522.037	1	58
522.207	1	51
522.377	1	56
522.548	1	37
522.718	1	49
522.888	1	54
523.058	1	48
523.228	1	51
523.398	1	47
523.568	1	50
523.738	1	52
523.909	1	58
524.079	1	43
524.249	1	50
524.419	1	37
524.589	1	49
524.759	1	34
524.929	1	50
525.099	1	49
525.269	1	50
525.439	1	45
525.610	1	65
525.780	1	47
525.950	1	42
526.120	1	41
526.290	1	45
526.460	1	31
526.630	1	52
526.800	1	35
526.970	1	47
527.140	1	51
527.311	1	39
527.481	1	34
527.651	1	57
527.821	1	35
527.991	1	55
528.161	1	48
528.331	1	36
528.501	1	45
528.671	1	32
528.841	1	43
529.011	1	44
529.181	1	41
529.352	1	46
529.522	1	36
529.692	1	44
529.862	1	42
530.032	1	47
530.202	1	51
530.372	1	44
530.542	1	38
530.712	1	46
530.882	1	43
531.052	1	41
531.222	1	37
531.392	1	39
531.563	1	50
531.733	1	39
531.903	1	34
532.073	1	45
532.243	1	40
532.413	1	38
532.583	1	42
532.753	1	33
532.923	1	31
533.093	1	43
533.263	1	43
533.433	1	48
533.603	1	52
533.773	1	37
533.943	1	35
534.113	1	47
534.284	1	37
534.454	1	45
534.624	1	53
534.794	1	29
534.964	1	41
535.134	1	30
535.304	1	39
535.474	1	56
535.644	1	31
535.814	1	45
535.984	1	37
536.154	1	31
536.324	1	31
536.494	1	48
536.664	1	60
536.834	1	42
537.004	1	38
537.174	1	48
537.344	1	38
537.514	1	34
537.685	1	35
537.855	1	37
538.025	1	47
538.195	1	36
538.365	1	45
538.535	1	36
538.705	1	41
538.875	1	32
539.045	1	42
539.215	1	41
539.385	1	48
539.555	1	35
539.725	1	37
539.895	1	31
540.065	1	50
540.235	1	46
540.405	1	31
540.575	1	40
540.745	1	40
540.915	1	43
541.085	1	47
541.255	1	36
541.425	1	36
541.595	1	37
541.765	1	43
541.935	1	24
542.105	1	19
542.275	1	43
542.445	1	18
542.615	1	36
542.785	1	42
542.955	1	29
543.125	1	29
543.295	1	31
543.465	1	44
543.635	1	37
543.805	1	39
543.975	1	26
544.145	1	40
544.315	1	42
544.485	1	29
544.655	1	30
544.825	1	21
544.995	1	36
545.165	1	24
545.335	1	41
545.505	1	38
545.675	1	40
545.845	1	33
546.015	1	33
546.185	1	48
546.355	1	39
546.525	1	30
546.695	1	30
546.865	1	32
547.035	1	33
547.205	1	14
547.375	1	38
547.545	1	51
547.715	1	30
547.885	1	45
548.055	1	30
548.225	1	36
548.395	1	16
548.565	1	29
548.735	1	38
548.905	1	26
549.075	1	30
549.245	1	37
549.415	1	21
549.585	1	35
549.755	1	39
549.925	1	18
550.095	1	37
550.265	1	22
550.435	1	20
550.605	1	25
550.775	1	34
550.945	1	41
551.115	1	21
551.285	1	32
551.455	1	30
551.625	1	27
551.795	1	36
551.965	1	31
552.135	1	28
552.305	1	22
552.475	1	19
552.645	1	30
552.815	1	21
552.985	1	32
553.155	1	33
553.325	1	31
553.495	1	24
553.665	1	19
553.835	1	22
554.004	1	19
554.174	1	14
554.344	1	34
554.514	1	25
554.684	1	36
554.854	1	43
555.024	1	18
555.194	1	27
555.364	1	28
555.534	1	22
555.704	1	23
555.874	1	25
556.044	1	20
556.214	1	28
556.384	1	28
556.554	1	35
556.724	1	32
556.894	1	29
557.064	1	20
557.234	1	26
557.404	1	30
557.573	1	21
557.743	1	32
557.913	1	27
558.083	1	21
558.253	1	28
558.423	1	27
558.593	1	28
558.763	1	26
558.933	1	25
559.103	1	37
559.273	1	21
559.443	1	16
559.613	1	39
559.783	1	16
559.953	1	19
560.122	1	38
560.292	1	25
560.462	1	25
560.632	1	31
560.802	1	22
560.972	1	27
561.142	1	32
561.312	1	9
561.482	1	30
561.652	1	17
561.822	1	12
561.992	1	18
562.162	1	23
562.331	1	34
562.501	1	15
562.671	1	26
562.841	1	25
563.011	1	22
563.181	1	18
563.351	1	21
563.521	1	21
563.691	1	12
563.861	1	20
564.031	1	25
564.201	1	24
564.370	1	16
564.540	1	27
564.710	1	22
564.880	1	27
565.050	1	25
565.220	1	15
565.390	1	20
565.560	1	23
565.730	1	12
565.900	1	26
566.069	1	25
566.239	1	25
566.409	1	26
566.579	1	33
566.749	1	21
566.919	1	23
567.089	1	26
567.259	1	29
567.429	1	19
567.599	1	16
567.768	1	30
567.938	1	24
568.108	1	11
568.278	1	29
568.448	1	12
568.618	1	26
568.788	1	28
568.958	1	25
569.128	1	18
569.297	1	23
569.467	1	11
569.637	1	19
569.807	1	20
569.977	1	24
570.147	1	25
570.317	1	20
570.487	1	26
570.656	1	29
570.826	1	14
570.996	1	8
571.166	1	28
571.336	1	11
571.506	1	18
571.676	1	22
571.846	1	31
572.015	1	13
572.185	1	15
572.355	1	19
572.525	1	20
572.695	1	18
572.865	1	11
573.035	1	26
573.205	1	20
573.374	1	7
573.544	1	13
573.714	1	30
573.884	1	25
574.054	1	21
574.224	1	27
574.394	1	25
574.563	1	6
574.733	1	16
574.903	1	16
575.073	1	18
575.243	1	16
575.413	1	24
575.583	1	16
575.752	1	13
575.922	1	22
576.092	1	23
576.262	1	29
576.432	1	24
576.602	1	20
576.772	1	31
576.941	1	15
577.111	1	13
577.281	1	8
577.451	1	11
577.621	1	23
577.791	1	21
577.960	1	17
578.130	1	18
578.300	1	25
578.470	1	29
578.640	1	14
578.810	1	20
578.979	1	17
579.149	1	20
579.319	1	17
579.489	1	15
579.659	1	20
579.829	1	25
579.998	1	26
580.168	1	33
580.338	1	20
580.508	1	22
580.678	1	21
580.848	1	10
581.017	1	20
581.187	1	19
581.357	1	15
581.527	1	23
581.697	1	31
581.867	1	26
582.036	1	24
582.206	1	23
582.376	1	31
582.546	1	8
582.716	1	11
582.885	1	17
583.055	1	16
583.225	1	7
583.395	1	24
583.565	1	21
583.735	1	23
583.904	1	21
584.074	1	29
584.244	1	18
584.414	1	19
584.584	1	23
584.753	1	15
584.923	1	20
585.093	1	8
585.263	1	15
585.433	1	24
585.602	1	17
585.772	1	15
585.942	1	13
586.112	1	17
586.282	1	16
586.451	1	17
586.621	1	8
586.791	1	14
586.961	1	17
587.131	1	22
587.300	1	16
587.470	1	25
587.640	1	31
587.810	1	18
587.980	1	25
588.149	1	15
588.319	1	22
588.489	1	14
588.659	1	23
588.829	1	25
588.998	1	26
589.168	1	20
589.338	1	14
589.508	1	24
589.677	1	13
589.847	1	13
590.017	1	29
590.187	1	6
590.357	1	28
590.526	1	28
590.696	1	22
590.866	1	22
591.036	1	20
591.205	1	25
591.375	1	9
591.545	1	13
591.715	1	20
591.885	1	22
592.054	1	18
592.224	1	17
592.394	1	14
592.564	1	25
592.733	1	20
592.903	1	18
593.073	1	7
593.243	1	23
593.412	1	23
593.582	1	18
593.752	1	9
593.922	1	19
594.091	1	22
594.261	1	19
594.431	1	25
594.601	1	16
594.771	1	25
594.940	1	15
595.110	1	11
595.280	1	22
595.450	1	25
595.619	1	18
595.789	1	13
595.959	1	27
596.129	1	11
596.298	1	10
596.468	1	20
596.638	1	22
596.808	1	12
596.977	1	24
597.147	1	24
597.317	1	12
597.487	1	21
597.656	1	18
597.826	1	22
597.996	1	14
598.166	1	20
598.335	1	20
598.505	1	14
598.675	1	18
598.844	1	14
599.014	1	26
599.184	1	23
599.354	1	15
599.523	1	26
599.693	1	17
599.863	1	24
600.033	1	23
600.202	1	20
600.372	1	24
600.542	1	27
600.712	1	20
600.881	1	13
601.051	1	34
601.221	1	34
601.390	1	18
601.560	1	19
601.730	1	28
601.900	1	19
602.069	1	19
602.239	1	9
602.409	1	13
602.578	1	11
602.748	1	19
602.918	1	27
603.088	1	18
603.257	1	23
603.427	1	8
603.597	1	25
603.767	1	16
603.936	1	17
604.106	1	21
604.276	1	28
604.445	1	26
604.615	1	21
604.785	1	10
604.954	1	17
605.124	1	23
605.294	1	11
605.464	1	14
605.633	1	17
605.803	1	16
605.973	1	24
606.142	1	21
606.312	1	19
606.482	1	18
606.652	1	28
606.821	1	25
606.991	1	12
607.161	1	22
607.330	1	32
607.500	1	15
607.670	1	12
607.839	1	39
608.009	1	31
608.179	1	36
608.348	1	25
608.518	1	11
608.688	1	38
608.858	1	18
609.027	1	10
609.197	1	32
609.367	1	32
609.536	1	25
609.706	1	24
609.876	1	15
610.045	1	23
610.215	1	30
610.385	1	30
610.554	1	31
610.724	1	31
610.894	1	23
611.063	1	21
611.233	1	13
611.403	1	21
611.572	1	18
611.742	1	28
611.912	1	22
612.081	1	18
612.251	1	32
612.421	1	17
612.590	1	15
612.760	1	18
612.930	1	24
613.099	1	17
613.269	1	26
613.439	1	15
613.608	1	22
613.778	1	26
613.948	1	20
614.117	1	23
614.287	1	37
614.457	1	24
614.626	1	21
614.796	1	28
614.966	1	25
615.135	1	27
615.305	1	29
615.475	1	21
615.644	1	31
615.814	1	24
615.984	1	13
616.153	1	30
616.323	1	12
616.493	1	18
616.662	1	33
616.832	1	27
617.002	1	22
617.171	1	19
617.341	1	27
617.511	1	19
617.680	1	13
617.850	1	22
618.019	1	27
618.189	1	40
618.359	1	26
618.528	1	28
618.698	1	35
618.868	1	9
619.037	1	19
619.207	1	27
619.377	1	26
619.546	1	18
619.716	1	30
619.885	1	37
620.055	1	7
620.225	1	30
620.394	1	15
620.564	1	27
620.734	1	23
620.903	1	18
621.073	1	31
621.242	1	29
621.412	1	30
621.582	1	31
621.751	1	21
621.921	1	33
622.091	1	28
622.260	1	30
622.430	1	41
622.599	1	26
622.769	1	33
622.939	1	38
623.108	1	26
623.278	1	16
623.448	1	26
623.617	1	25
623.787	1	18
623.956	1	34
624.126	1	30
624.296	1	28
624.465	1	21
624.635	1	41
624.804	1	32
624.974	1	23
625.144	1	34
625.313	1	28
625.483	1	25
625.652	1	20
625.822	1	39
625.992	1	34
626.161	1	34
626.331	1	32
626.501	1	33
626.670	1	24
626.840	1	20
627.009	1	20
627.179	1	37
627.348	1	35
627.518	1	27
627.688	1	33
627.857	1	34
628.027	1	19
628.196	1	23
628.366	1	30
628.536	1	26
628.705	1	23
628.875	1	23
629.044	1	28
629.214	1	29
629.384	1	36
629.553	1	47
629.723	1	23
629.892	1	32
630.062	1	38
630.232	1	35
630.401	1	36
630.571	1	32
630.740	1	40
630.910	1	33
631.079	1	35
631.249	1	34
631.419	1	30
631.588	1	21
631.758	1	27
631.927	1	12
632.097	1	41
632.266	1	23
632.436	1	33
632.606	1	29
632.775	1	37
632.945	1	41
633.114	1	39
633.284	1	37
633.453	1	39
633.623	1	29
633.793	1	36
633.962	1	36
634.132	1	41
634.301	1	40
634.471	1	39
634.640	1	35
634.810	1	46
634.979	1	44
635.149	1	40
635.319	1	32
635.488	1	38
635.658	1	29
635.827	1	28
635.997	1	39
636.166	1	40
636.336	1	40
636.505	1	45
636.675	1	31
636.845	1	39
637.014	1	46
637.184	1	38
637.353	1	36
637.523	1	45
637.692	1	39
637.862	1	37
638.031	1	34
638.201	1	45
638.370	1	31
638.540	1	37
638.710	1	35
638.879	1	24
639.049	1	28
639.218	1	38
639.388	1	41
639.557	1	41
639.727	1	35
639.896	1	32
640.066	1	35
640.235	1	40
640.405	1	46
640.574	1	29
640.744	1	38
640.914	1	37
641.083	1	47
641.253	1	29
641.422	1	32
641.592	1	46
641.761	1	38
641.931	1	46
642.100	1	53
642.270	1	38
642.439	1	51
642.609	1	47
642.778	1	46
642.948	1	41
643.117	1	43
643.287	1	50
643.456	1	39
643.626	1	54
643.795	1	39
643.965	1	48
644.134	1	28
644.304	1	42
644.473	1	45
644.643	1	43
644.812	1	34
644.982	1	44
645.151	1	43
645.321	1	37
645.490	1	53
645.660	1	39
645.829	1	29
645.999	1	27
646.168	1	51
646.338	1	35
646.507	1	30
646.677	1	44
646.846	1	39
647.016	1	28
647.185	1	47
647.355	1	31
647.524	1	43
647.694	1	52
647.863	1	43
648.033	1	39
648.202	1	43
648.372	1	37
648.541	1	39
648.711	1	39
648.880	1	40
649.050	1	30
649.219	1	41
649.389	1	50
649.558	1	49
649.728	1	38
649.897	1	39
650.067	1	46
650.236	1	40
650.406	1	48
650.575	1	56
650.745	1	58
650.914	1	39
651.084	1	44
651.253	1	37
651.423	1	48
651.592	1	32
651.762	1	35
651.931	1	56
652.101	1	50
652.270	1	51
652.440	1	49
652.609	1	49
652.778	1	28
652.948	1	38
653.117	1	48
653.287	1	45
653.456	1	52
653.626	1	43
653.795	1	60
653.965	1	41
654.134	1	47
654.304	1	37
654.473	1	44
654.643	1	46
654.812	1	46
654.982	1	53
655.151	1	38
655.320	1	46
655.490	1	39
655.659	1	61
655.829	1	43
655.998	1	37
656.168	1	46
656.337	1	32
656.507	1	44
656.676	1	46
656.846	1	41
657.015	1	49
657.184	1	55
657.354	1	48
657.523	1	45
657.693	1	66
657.862	1	48
658.032	1	45
658.201	1	41
658.371	1	47
658.540	1	45
658.709	1	51
658.879	1	55
659.048	1	43
659.218	1	43
659.387	1	47
659.557	1	48
659.726	1	52
659.895	1	35
660.065	1	54
660.234	1	44
660.404	1	61
660.573	1	41
660.743	1	62
660.912	1	51
661.081	1	55
661.251	1	41
661.420	1	56
661.590	1	51
661.759	1	49
661.929	1	54
662.098	1	66
662.267	1	41
662.437	1	56
662.606	1	44
662.776	1	48
662.945	1	56
663.115	1	41
663.284	1	51
663.453	1	47
663.623	1	47
663.792	1	50
663.962	1	48
664.131	1	51
664.300	1	57
664.470	1	45
664.639	1	56
664.809	1	60
664.978	1	61
665.148	1	59
665.317	1	44
665.486	1	53
665.656	1	42
665.825	1	52
665.995	1	56
666.164	1	47
666.333	1	59
666.503	1	50
666.672	1	37
666.842	1	51
667.011	1	42
667.180	1	61
667.350	1	52
667.519	1	48
667.689	1	61
667.858	1	48
668.027	1	55
668.197	1	48
668.366	1	49
668.536	1	54
668.705	1	47
668.874	1	55
669.044	1	57
669.213	1	50
669.382	1	38
669.552	1	61
669.721	1	55
669.891	1	66
670.060	1	54
670.229	1	72
670.399	1	57
670.568	1	61
670.738	1	59
670.907	1	45
671.076	1	42
671.246	1	47
671.415	1	48
671.584	1	60
671.754	1	52
671.923	1	54
672.093	1	52
672.262	1	48
672.431	1	59
672.601	1	46
672.770	1	52
672.939	1	54
673.109	1	50
673.278	1	50
673.448	1	55
673.617	1	41
673.786	1	56
