325.333	1	18
325.504	1	19
325.675	1	24
325.846	1	9
326.017	1	16
326.188	1	26
326.359	1	23
326.531	1	4
326.702	1	17
326.873	1	29
327.044	1	4
327.215	1	27
327.386	1	33
327.557	1	7
327.728	1	14
327.899	1	23
328.070	1	30
328.241	1	19
328.412	1	4
328.583	1	17
328.754	1	17
328.926	1	34
329.097	1	20
329.268	1	26
329.439	1	23
329.610	1	27
329.781	1	15
329.952	1	32
330.123	1	14
330.294	1	25
330.465	1	39
330.636	1	22
330.807	1	26
330.978	1	29
331.149	1	26
331.320	1	32
331.492	1	23
331.663	1	41
331.834	1	36
332.005	1	27
332.176	1	44
332.347	1	27
332.518	1	19
332.689	1	36
332.860	1	17
333.031	1	42
333.202	1	23
333.373	1	28
333.544	1	33
333.715	1	27
333.886	1	26
334.057	1	30
334.228	1	31
334.399	1	33
334.570	1	38
334.741	1	27
334.912	1	35
335.084	1	47
335.255	1	34
335.426	1	28
335.597	1	27
335.768	1	25
335.939	1	46
336.110	1	36
336.281	1	29
336.452	1	19
336.623	1	29
336.794	1	30
336.965	1	28
337.136	1	43
337.307	1	36
337.478	1	39
337.649	1	38
337.820	1	40
337.991	1	33
338.162	1	34
338.333	1	30
338.504	1	41
338.675	1	45
338.846	1	46
339.017	1	33
339.188	1	35
339.359	1	37
339.530	1	41
339.701	1	37
339.872	1	44
340.043	1	38
340.214	1	37
340.385	1	56
340.556	1	29
340.727	1	50
340.898	1	56
341.069	1	44
341.240	1	44
341.411	1	41
341.582	1	47
341.753	1	28
341.924	1	37
342.095	1	53
342.266	1	47
342.437	1	47
342.608	1	47
342.779	1	44
342.950	1	38
343.121	1	45
343.292	1	41
343.463	1	52
343.634	1	42
343.805	1	56
343.976	1	52
344.147	1	46
344.318	1	48
344.489	1	47
344.660	1	55
344.831	1	49
345.002	1	39
345.173	1	52
345.344	1	45
345.515	1	51
345.686	1	49
345.857	1	54
346.028	1	52
346.199	1	42
346.370	1	41
346.541	1	48
346.712	1	51
346.883	1	49
347.054	1	71
347.225	1	55
347.396	1	56
347.567	1	45
347.738	1	51
347.909	1	67
348.080	1	44
348.251	1	56
348.422	1	50
348.593	1	49
348.764	1	57
348.935	1	61
349.106	1	43
349.277	1	59
349.448	1	74
349.619	1	64
349.790	1	65
349.961	1	62
350.132	1	66
350.303	1	60
350.474	1	69
350.645	1	61
350.816	1	63
350.987	1	67
351.157	1	49
351.328	1	64
351.499	1	77
351.670	1	55
351.841	1	63
352.012	1	71
352.183	1	70
352.354	1	75
352.525	1	71
352.696	1	74
352.867	1	69
353.038	1	75
353.209	1	58
353.380	1	67
353.551	1	57
353.722	1	70
353.893	1	61
354.064	1	76
354.235	1	73
354.406	1	76
354.576	1	73
354.747	1	67
354.918	1	68
355.089	1	74
355.260	1	72
355.431	1	76
355.602	1	63
355.773	1	78
355.944	1	71
356.115	1	72
356.286	1	75
356.457	1	81
356.628	1	77
356.799	1	61
356.970	1	80
357.141	1	66
357.311	1	66
357.482	1	74
357.653	1	71
357.824	1	68
357.995	1	74
358.166	1	67
358.337	1	75
358.508	1	77
358.679	1	76
358.850	1	67
359.021	1	58
359.192	1	81
359.363	1	75
359.533	1	85
359.704	1	85
359.875	1	81
360.046	1	77
360.217	1	70
360.388	1	75
360.559	1	76
360.730	1	76
360.901	1	80
361.072	1	94
361.243	1	87
361.414	1	81
361.584	1	83
361.755	1	81
361.926	1	70
362.097	1	74
362.268	1	83
362.439	1	64
362.610	1	82
362.781	1	77
362.952	1	74
363.123	1	70
363.293	1	62
363.464	1	80
363.635	1	81
363.806	1	74
363.977	1	84
364.148	1	79
364.319	1	75
364.490	1	85
364.661	1	91
364.832	1	88
365.002	1	81
365.173	1	80
365.344	1	96
365.515	1	80
365.686	1	80
365.857	1	81
366.028	1	87
366.199	1	87
366.370	1	86
366.540	1	77
366.711	1	69
366.882	1	83
367.053	1	84
367.224	1	97
367.395	1	86
367.566	1	85
367.737	1	93
367.908	1	88
368.078	1	76
368.249	1	85
368.420	1	90
368.591	1	81
368.762	1	95
368.933	1	85
369.104	1	77
369.274	1	85
369.445	1	75
369.616	1	88
369.787	1	99
369.958	1	89
370.129	1	69
370.300	1	99
370.471	1	84
370.641	1	87
370.812	1	97
370.983	1	90
371.154	1	76
371.325	1	97
371.496	1	94
371.667	1	88
371.837	1	74
372.008	1	76
372.179	1	82
372.350	1	98
372.521	1	89
372.692	1	95
372.863	1	92
373.033	1	75
373.204	1	82
373.375	1	103
373.546	1	93
373.717	1	98
373.888	1	94
374.059	1	84
374.229	1	95
374.400	1	85
374.571	1	100
374.742	1	98
374.913	1	92
375.084	1	85
375.254	1	95
375.425	1	88
375.596	1	89
375.767	1	92
375.938	1	89
376.109	1	96
376.279	1	82
376.450	1	95
376.621	1	103
376.792	1	86
376.963	1	88
377.134	1	114
377.304	1	100
377.475	1	83
377.646	1	98
377.817	1	84
377.988	1	93
378.159	1	95
378.329	1	111
378.500	1	102
378.671	1	105
378.842	1	101
379.013	1	96
379.184	1	104
379.354	1	105
379.525	1	108
379.696	1	115
379.867	1	111
380.038	1	97
380.209	1	92
380.379	1	105
380.550	1	90
380.721	1	109
380.892	1	110
381.063	1	97
381.233	1	110
381.404	1	100
381.575	1	103
381.746	1	110
381.917	1	102
382.087	1	108
382.258	1	99
382.429	1	111
382.600	1	118
382.771	1	106
382.941	1	99
383.112	1	121
383.283	1	115
383.454	1	107
383.625	1	96
383.795	1	110
383.966	1	103
384.137	1	104
384.308	1	112
384.479	1	110
384.649	1	110
384.820	1	108
384.991	1	116
385.162	1	107
385.333	1	103
385.503	1	109
385.674	1	117
385.845	1	118
386.016	1	109
386.187	1	110
386.357	1	123
386.528	1	114
386.699	1	107
386.870	1	123
387.041	1	113
387.211	1	117
387.382	1	127
387.553	1	113
387.724	1	118
387.894	1	112
388.065	1	108
388.236	1	118
388.407	1	120
388.578	1	116
388.748	1	116
388.919	1	115
389.090	1	123
389.261	1	122
389.431	1	114
389.602	1	116
389.773	1	120
389.944	1	127
390.114	1	123
390.285	1	120
390.456	1	121
390.627	1	113
390.798	1	111
390.968	1	119
391.139	1	119
391.310	1	115
391.481	1	126
391.651	1	124
391.822	1	103
391.993	1	115
392.164	1	108
392.334	1	118
392.505	1	112
392.676	1	125
392.847	1	126
393.017	1	122
393.188	1	121
393.359	1	111
393.530	1	125
393.700	1	130
393.871	1	118
394.042	1	125
394.213	1	121
394.383	1	122
394.554	1	120
394.725	1	126
394.896	1	124
395.066	1	123
395.237	1	120
395.408	1	127
395.579	1	129
395.749	1	123
395.920	1	123
396.091	1	127
396.262	1	126
396.432	1	119
396.603	1	137
396.774	1	134
396.945	1	120
397.115	1	141
397.286	1	130
397.457	1	127
397.627	1	133
397.798	1	133
397.969	1	125
398.140	1	123
398.310	1	135
398.481	1	131
398.652	1	134
398.823	1	119
398.993	1	125
399.164	1	130
399.335	1	130
399.505	1	127
399.676	1	122
399.847	1	126
400.018	1	127
400.188	1	129
400.359	1	134
400.530	1	127
400.700	1	135
400.871	1	122
401.042	1	133
401.213	1	127
401.383	1	133
401.554	1	127
401.725	1	127
401.895	1	110
402.066	1	125
402.237	1	139
402.408	1	142
402.578	1	140
402.749	1	132
402.920	1	133
403.090	1	111
403.261	1	121
403.432	1	132
403.603	1	123
403.773	1	141
403.944	1	139
404.115	1	135
404.285	1	136
404.456	1	133
404.627	1	123
404.797	1	127
404.968	1	127
405.139	1	125
405.310	1	139
405.480	1	124
405.651	1	131
405.822	1	138
405.992	1	129
406.163	1	139
406.334	1	128
406.504	1	137
406.675	1	136
406.846	1	132
407.016	1	134
407.187	1	144
407.358	1	117
407.528	1	144
407.699	1	112
407.870	1	132
408.041	1	143
408.211	1	149
408.382	1	138
408.553	1	138
408.723	1	142
408.894	1	131
409.065	1	129
409.235	1	137
409.406	1	142
409.577	1	128
409.747	1	138
409.918	1	142
410.089	1	126
410.259	1	131
410.430	1	134
410.601	1	132
410.771	1	149
410.942	1	144
411.113	1	151
411.283	1	135
411.454	1	147
411.625	1	124
411.795	1	135
411.966	1	128
412.137	1	123
412.307	1	121
412.478	1	130
412.649	1	134
412.819	1	126
412.990	1	122
413.161	1	147
413.331	1	124
413.502	1	142
413.672	1	132
413.843	1	127
414.014	1	134
414.184	1	134
414.355	1	128
414.526	1	126
414.696	1	140
414.867	1	132
415.038	1	125
415.208	1	122
415.379	1	140
415.550	1	151
415.720	1	130
415.891	1	124
416.062	1	132
416.232	1	136
416.403	1	125
416.573	1	140
416.744	1	130
416.915	1	123
417.085	1	128
417.256	1	124
417.427	1	141
417.597	1	135
417.768	1	126
417.939	1	133
418.109	1	129
418.280	1	141
418.450	1	128
418.621	1	128
418.792	1	127
418.962	1	136
419.133	1	145
419.304	1	136
419.474	1	123
419.645	1	137
419.815	1	116
419.986	1	129
420.157	1	123
420.327	1	129
420.498	1	141
420.669	1	115
420.839	1	139
421.010	1	141
421.180	1	131
421.351	1	120
421.522	1	135
421.692	1	131
421.863	1	131
422.033	1	127
422.204	1	129
422.375	1	122
422.545	1	133
422.716	1	132
422.886	1	119
423.057	1	140
423.228	1	133
423.398	1	120
423.569	1	126
423.740	1	123
423.910	1	117
424.081	1	121
424.251	1	116
424.422	1	128
424.593	1	110
424.763	1	119
424.934	1	114
425.104	1	117
425.275	1	116
425.445	1	115
425.616	1	117
425.787	1	122
425.957	1	126
426.128	1	129
426.298	1	120
426.469	1	119
426.640	1	119
426.810	1	129
426.981	1	114
427.151	1	108
427.322	1	125
427.493	1	116
427.663	1	131
427.834	1	117
428.004	1	122
428.175	1	108
428.345	1	116
428.516	1	104
428.687	1	121
428.857	1	108
429.028	1	104
429.198	1	112
429.369	1	115
429.540	1	104
429.710	1	104
429.881	1	117
430.051	1	121
430.222	1	125
430.392	1	123
430.563	1	116
430.734	1	123
430.904	1	116
431.075	1	120
431.245	1	117
431.416	1	121
431.586	1	120
431.757	1	119
431.927	1	117
432.098	1	122
432.269	1	121
432.439	1	114
432.610	1	120
432.780	1	129
432.951	1	120
433.121	1	127
433.292	1	124
433.462	1	116
433.633	1	122
433.804	1	114
433.974	1	117
434.145	1	132
434.315	1	124
434.486	1	112
434.656	1	116
434.827	1	116
434.997	1	99
435.168	1	132
435.339	1	114
435.509	1	105
435.680	1	119
435.850	1	115
436.021	1	108
436.191	1	105
436.362	1	114
436.532	1	121
436.703	1	113
436.873	1	116
437.044	1	102
437.214	1	106
437.385	1	107
437.556	1	98
437.726	1	113
437.897	1	112
438.067	1	113
438.238	1	106
438.408	1	120
438.579	1	108
438.749	1	103
438.920	1	105
439.090	1	106
439.261	1	105
439.431	1	99
439.602	1	98
439.772	1	103
439.943	1	117
440.113	1	108
440.284	1	104
440.455	1	98
440.625	1	119
440.796	1	102
440.966	1	94
441.137	1	109
441.307	1	101
441.478	1	111
441.648	1	100
441.819	1	109
441.989	1	98
442.160	1	111
442.330	1	100
442.501	1	113
442.671	1	86
442.842	1	93
443.012	1	92
443.183	1	101
443.353	1	98
443.524	1	105
443.694	1	111
443.865	1	98
444.035	1	96
444.206	1	96
444.376	1	89
444.547	1	103
444.717	1	91
444.888	1	99
445.058	1	100
445.229	1	92
445.399	1	96
445.570	1	89
445.740	1	88
445.911	1	93
446.081	1	96
446.252	1	102
446.422	1	103
446.593	1	98
446.763	1	104
446.934	1	90
447.104	1	99
447.275	1	93
447.445	1	107
447.616	1	103
447.786	1	83
447.957	1	104
448.127	1	98
448.298	1	102
448.468	1	89
448.639	1	91
448.809	1	112
448.979	1	88
449.150	1	100
449.320	1	77
449.491	1	96
449.661	1	95
449.832	1	90
450.002	1	95
450.173	1	92
450.343	1	91
450.514	1	97
450.684	1	88
450.855	1	90
451.025	1	95
451.196	1	89
451.366	1	90
451.537	1	90
451.707	1	82
451.878	1	85
452.048	1	97
452.218	1	97
452.389	1	95
452.559	1	82
452.730	1	93
452.900	1	88
453.071	1	72
453.241	1	82
453.412	1	82
453.582	1	82
453.753	1	92
453.923	1	96
454.093	1	91
454.264	1	89
454.434	1	87
454.605	1	85
454.775	1	86
454.946	1	90
455.116	1	77
455.287	1	70
455.457	1	83
455.628	1	79
455.798	1	97
455.968	1	81
456.139	1	83
456.309	1	82
456.480	1	80
456.650	1	80
456.821	1	82
456.991	1	75
457.161	1	79
457.332	1	93
457.502	1	70
457.673	1	84
457.843	1	80
458.014	1	81
458.184	1	82
458.355	1	82
458.525	1	80
458.695	1	75
458.866	1	83
459.036	1	76
459.207	1	75
459.377	1	85
459.548	1	76
459.718	1	79
459.888	1	81
460.059	1	85
460.229	1	83
460.400	1	86
460.570	1	74
460.740	1	73
460.911	1	76
461.081	1	78
461.252	1	77
461.422	1	77
461.593	1	80
461.763	1	80
461.933	1	93
462.104	1	81
462.274	1	80
462.445	1	81
462.615	1	73
462.785	1	70
462.956	1	80
463.126	1	83
463.297	1	67
463.467	1	74
463.638	1	79
463.808	1	63
463.978	1	65
464.149	1	68
464.319	1	69
464.490	1	83
464.660	1	59
464.830	1	63
465.001	1	73
465.171	1	82
465.342	1	75
465.512	1	66
465.682	1	74
465.853	1	78
466.023	1	66
466.194	1	77
466.364	1	64
466.534	1	70
466.705	1	66
466.875	1	66
467.045	1	69
467.216	1	82
467.386	1	64
467.557	1	66
467.727	1	64
467.897	1	52
468.068	1	67
468.238	1	68
468.409	1	56
468.579	1	72
468.749	1	61
468.920	1	65
469.090	1	66
469.260	1	72
469.431	1	66
469.601	1	73
469.772	1	60
469.942	1	54
470.112	1	66
470.283	1	61
470.453	1	63
470.623	1	70
470.794	1	54
470.964	1	57
471.135	1	73
471.305	1	50
471.475	1	69
471.646	1	60
471.816	1	62
471.986	1	67
472.157	1	68
472.327	1	50
472.497	1	64
472.668	1	57
472.838	1	62
473.009	1	65
473.179	1	53
473.349	1	67
473.520	1	66
473.690	1	65
473.860	1	61
474.031	1	55
474.201	1	59
474.371	1	69
474.542	1	66
474.712	1	55
474.882	1	53
475.053	1	79
475.223	1	54
475.394	1	59
475.564	1	57
475.734	1	62
475.905	1	68
476.075	1	55
476.245	1	64
476.416	1	74
476.586	1	54
476.756	1	56
476.927	1	66
477.097	1	74
477.267	1	50
477.438	1	60
477.608	1	63
477.778	1	61
477.949	1	60
478.119	1	67
478.289	1	58
478.460	1	59
478.630	1	61
478.800	1	55
478.971	1	54
479.141	1	51
479.311	1	60
479.482	1	52
479.652	1	50
479.822	1	54
479.993	1	66
480.163	1	60
480.333	1	66
480.504	1	62
480.674	1	58
480.844	1	50
481.015	1	57
481.185	1	40
481.355	1	63
481.525	1	48
481.696	1	58
481.866	1	49
482.036	1	57
482.207	1	56
482.377	1	49
482.547	1	59
482.718	1	45
482.888	1	56
483.058	1	53
483.229	1	46
483.399	1	51
483.569	1	60
483.740	1	53
483.910	1	53
484.080	1	48
484.250	1	53
484.421	1	46
484.591	1	56
484.761	1	50
484.932	1	54
485.102	1	47
485.272	1	55
485.443	1	67
485.613	1	47
485.783	1	36
485.953	1	43
486.124	1	55
486.294	1	53
486.464	1	50
486.635	1	47
486.805	1	49
486.975	1	48
487.146	1	59
487.316	1	48
487.486	1	50
487.656	1	47
487.827	1	51
487.997	1	36
488.167	1	50
488.338	1	48
488.508	1	45
488.678	1	39
488.848	1	51
489.019	1	48
489.189	1	42
489.359	1	37
489.529	1	48
489.700	1	39
489.870	1	68
490.040	1	42
490.211	1	43
490.381	1	51
490.551	1	54
490.721	1	56
490.892	1	44
491.062	1	45
491.232	1	45
491.402	1	34
491.573	1	39
491.743	1	48
491.913	1	47
492.084	1	57
492.254	1	45
492.424	1	46
492.594	1	44
492.765	1	48
492.935	1	46
493.105	1	46
493.275	1	43
493.446	1	50
493.616	1	58
493.786	1	44
493.956	1	44
494.127	1	41
494.297	1	36
494.467	1	38
494.637	1	45
494.808	1	42
494.978	1	39
495.148	1	46
495.318	1	49
495.489	1	51
495.659	1	51
495.829	1	33
495.999	1	41
496.170	1	47
496.340	1	41
496.510	1	45
496.680	1	34
496.851	1	36
497.021	1	46
497.191	1	28
497.361	1	32
497.532	1	36
497.702	1	43
497.872	1	36
498.042	1	39
498.213	1	32
498.383	1	41
498.553	1	47
498.723	1	37
498.894	1	38
499.064	1	33
499.234	1	33
499.404	1	29
499.574	1	39
499.745	1	48
499.915	1	39
500.085	1	37
500.255	1	47
500.426	1	36
500.596	1	37
500.766	1	36
500.936	1	31
501.106	1	28
501.277	1	40
501.447	1	48
501.617	1	36
501.787	1	30
501.958	1	32
502.128	1	32
502.298	1	47
502.468	1	34
502.638	1	30
502.809	1	30
502.979	1	33
503.149	1	28
503.319	1	21
503.489	1	40
503.660	1	43
503.830	1	28
504.000	1	45
504.170	1	35
504.340	1	23
504.511	1	45
504.681	1	30
504.851	1	30
505.021	1	39
505.192	1	28
505.362	1	31
505.532	1	33
505.702	1	30
505.872	1	33
506.043	1	34
506.213	1	31
506.383	1	36
506.553	1	31
506.723	1	33
506.893	1	37
507.064	1	28
507.234	1	38
507.404	1	28
507.574	1	34
507.744	1	40
507.915	1	42
508.085	1	35
508.255	1	42
508.425	1	20
508.595	1	31
508.766	1	36
508.936	1	16
509.106	1	28
509.276	1	35
509.446	1	24
509.616	1	19
509.787	1	27
509.957	1	25
510.127	1	31
510.297	1	34
510.467	1	19
510.638	1	41
510.808	1	28
510.978	1	15
511.148	1	34
511.318	1	30
511.488	1	25
511.659	1	32
511.829	1	31
511.999	1	38
512.169	1	36
512.339	1	32
512.509	1	31
512.680	1	25
512.850	1	27
513.020	1	26
513.190	1	26
513.360	1	19
513.530	1	27
513.700	1	36
513.871	1	14
514.041	1	22
514.211	1	47
514.381	1	29
514.551	1	31
514.721	1	22
514.892	1	29
515.062	1	38
515.232	1	27
515.402	1	18
515.572	1	25
515.742	1	17
515.912	1	31
516.083	1	31
516.253	1	27
516.423	1	29
516.593	1	28
516.763	1	31
516.933	1	20
517.104	1	22
517.274	1	16
517.444	1	16
517.614	1	18
517.784	1	31
517.954	1	30
518.124	1	23
518.294	1	21
518.465	1	16
518.635	1	14
518.805	1	17
518.975	1	19
519.145	1	16
519.315	1	20
519.485	1	19
519.656	1	28
519.826	1	17
519.996	1	13
520.166	1	18
520.336	1	29
520.506	1	25
520.676	1	22
520.846	1	22
521.017	1	20
521.187	1	21
521.357	1	29
521.527	1	10
521.697	1	16
521.867	1	16
522.037	1	30
522.207	1	29
522.377	1	21
522.548	1	29
522.718	1	24
522.888	1	23
523.058	1	19
523.228	1	22
523.398	1	26
523.568	1	17
523.738	1	24
523.909	1	23
524.079	1	15
524.249	1	30
524.419	1	13
524.589	1	26
524.759	1	12
524.929	1	12
525.099	1	25
525.269	1	15
525.439	1	12
525.610	1	38
525.780	1	25
525.950	1	23
526.120	1	19
526.290	1	15
526.460	1	11
526.630	1	24
526.800	1	17
526.970	1	19
527.140	1	25
527.311	1	16
527.481	1	18
527.651	1	19
527.821	1	5
527.991	1	28
528.161	1	36
528.331	1	16
528.501	1	24
528.671	1	9
528.841	1	24
529.011	1	8
529.181	1	30
529.352	1	13
529.522	1	16
529.692	1	14
529.862	1	20
530.032	1	15
530.202	1	25
530.372	1	22
530.542	1	12
530.712	1	21
530.882	1	21
531.052	1	25
531.222	1	14
531.392	1	14
531.563	1	22
531.733	1	23
531.903	1	12
532.073	1	25
532.243	1	11
532.413	1	12
532.583	1	9
532.753	1	17
532.923	1	2
533.093	1	15
533.263	1	10
533.433	1	11
533.603	1	19
533.773	1	19
533.943	1	14
534.113	1	18
534.284	1	9
534.454	1	29
534.624	1	18
534.794	1	13
534.964	1	16
535.134	1	15
535.304	1	10
535.474	1	26
535.644	1	12
535.814	1	6
535.984	1	15
536.154	1	12
536.324	1	10
536.494	1	28
536.664	1	25
536.834	1	16
537.004	1	16
537.174	1	19
537.344	1	5
537.514	1	7
537.685	1	16
537.855	1	17
538.025	1	20
538.195	1	18
538.365	1	24
538.535	1	15
538.705	1	13
538.875	1	13
539.045	1	28
539.215	1	25
539.385	1	15
539.555	1	19
539.725	1	14
539.895	1	2
540.065	1	32
540.235	1	21
540.405	1	8
540.575	1	16
540.745	1	19
540.915	1	16
541.085	1	22
541.255	1	10
541.425	1	15
541.595	1	13
541.765	1	23
541.935	1	10
542.105	1	15
542.275	1	14
542.445	1	3
542.615	1	18
542.785	1	26
542.955	1	10
543.125	1	2
543.295	1	20
543.465	1	19
543.635	1	14
543.805	1	26
543.975	1	15
544.145	1	26
544.315	1	11
544.485	1	15
544.655	1	7
544.825	1	3
544.995	1	14
545.165	1	6
545.335	1	11
545.505	1	8
545.675	1	10
545.845	1	22
546.015	1	12
546.185	1	18
546.355	1	13
546.525	1	21
546.695	1	15
546.865	1	4
547.035	1	12
547.205	1	10
547.375	1	16
547.545	1	22
547.715	1	2
547.885	1	14
548.055	1	13
548.225	1	19
548.395	1	13
548.565	1	4
548.735	1	15
548.905	1	9
549.075	1	12
549.245	1	9
549.415	1	3
549.585	1	12
549.755	1	13
549.925	1	12
550.095	1	18
550.265	1	13
550.435	1	8
550.605	1	10
550.775	1	21
550.945	1	21
551.115	1	3
551.285	1	14
551.455	1	12
551.625	1	16
551.795	1	17
551.965	1	15
552.135	1	6
552.305	1	2
552.475	1	3
552.645	1	10
552.815	1	4
552.985	1	14
553.155	1	5
553.325	1	17
553.495	1	4
553.665	1	12
553.835	1	2
554.004	1	16
554.174	1	11
554.344	1	13
554.514	1	9
554.684	1	13
554.854	1	16
555.024	1	8
555.194	1	11
555.364	1	9
555.534	1	11
555.704	1	9
555.874	1	15
556.044	1	4
556.214	1	1
556.384	1	9
556.554	1	21
556.724	1	12
556.894	1	6
557.064	1	9
557.234	1	4
557.404	1	22
557.573	1	14
557.743	1	3
557.913	1	2
558.083	1	7
558.253	1	11
558.423	1	13
558.593	1	10
558.763	1	11
558.933	1	10
559.103	1	12
559.273	1	15
559.443	1	15
559.613	1	14
559.783	1	11
559.953	1	6
560.122	1	19
560.292	1	13
560.462	1	7
560.632	1	19
560.802	1	10
560.972	1	12
561.142	1	12
561.312	1	-3
561.482	1	20
561.652	1	19
561.822	1	13
561.992	1	10
562.162	1	10
562.331	1	0
562.501	1	1
562.671	1	14
562.841	1	7
563.011	1	16
563.181	1	11
563.351	1	9
563.521	1	12
563.691	1	6
563.861	1	12
564.031	1	7
564.201	1	20
564.370	1	10
564.540	1	3
564.710	1	6
564.880	1	16
565.050	1	16
565.220	1	-6
565.390	1	8
565.560	1	10
565.730	1	9
565.900	1	10
566.069	1	18
566.239	1	9
566.409	1	4
566.579	1	8
566.749	1	7
566.919	1	14
567.089	1	12
567.259	1	13
567.429	1	14
567.599	1	5
567.768	1	18
567.938	1	12
568.108	1	5
568.278	1	14
568.448	1	-4
568.618	1	3
568.788	1	10
568.958	1	15
569.128	1	13
569.297	1	3
569.467	1	8
569.637	1	14
569.807	1	16
569.977	1	13
570.147	1	15
570.317	1	-1
570.487	1	6
570.656	1	12
570.826	1	6
570.996	1	2
571.166	1	16
571.336	1	11
571.506	1	14
571.676	1	16
571.846	1	19
572.015	1	14
572.185	1	11
572.355	1	14
572.525	1	1
572.695	1	3
572.865	1	2
573.035	1	15
573.205	1	6
573.374	1	2
573.544	1	4
573.714	1	13
573.884	1	13
574.054	1	14
574.224	1	8
574.394	1	5
574.563	1	8
574.733	1	4
574.903	1	5
575.073	1	5
575.243	1	13
575.413	1	12
575.583	1	12
575.752	1	13
575.922	1	17
576.092	1	10
576.262	1	10
576.432	1	12
576.602	1	-3
576.772	1	15
576.941	1	16
577.111	1	8
577.281	1	0
577.451	1	13
577.621	1	14
577.791	1	13
577.960	1	1
578.130	1	15
578.300	1	9
578.470	1	23
578.640	1	5
578.810	1	12
578.979	1	20
579.149	1	9
579.319	1	5
579.489	1	2
579.659	1	8
579.829	1	7
579.998	1	14
580.168	1	17
580.338	1	19
580.508	1	12
580.678	1	9
580.848	1	8
581.017	1	0
581.187	1	10
581.357	1	4
581.527	1	19
581.697	1	18
581.867	1	10
582.036	1	2
582.206	1	-3
582.376	1	13
582.546	1	7
582.716	1	-1
582.885	1	8
583.055	1	6
583.225	1	10
583.395	1	15
583.565	1	-2
583.735	1	11
583.904	1	9
584.074	1	15
584.244	1	16
584.414	1	6
584.584	1	13
584.753	1	4
584.923	1	3
585.093	1	6
585.263	1	15
585.433	1	15
585.602	1	2
585.772	1	3
585.942	1	3
586.112	1	0
586.282	1	7
586.451	1	3
586.621	1	11
586.791	1	5
586.961	1	12
587.131	1	16
587.300	1	-4
587.470	1	8
587.640	1	7
587.810	1	12
587.980	1	3
588.149	1	12
588.319	1	1
588.489	1	7
588.659	1	5
588.829	1	10
588.998	1	19
589.168	1	14
589.338	1	4
589.508	1	17
589.677	1	-2
589.847	1	4
590.017	1	23
590.187	1	7
590.357	1	16
590.526	1	12
590.696	1	7
590.866	1	8
591.036	1	7
591.205	1	20
591.375	1	6
591.545	1	3
591.715	1	6
591.885	1	3
592.054	1	19
592.224	1	12
592.394	1	-3
592.564	1	12
592.733	1	14
592.903	1	18
593.073	1	7
593.243	1	16
593.412	1	21
593.582	1	11
593.752	1	-4
593.922	1	7
594.091	1	0
594.261	1	11
594.431	1	5
594.601	1	12
594.771	1	16
594.940	1	6
595.110	1	11
595.280	1	2
595.450	1	2
595.619	1	9
595.789	1	11
595.959	1	9
596.129	1	11
596.298	1	12
596.468	1	10
596.638	1	20
596.808	1	12
596.977	1	12
597.147	1	7
597.317	1	-4
597.487	1	6
597.656	1	5
597.826	1	6
597.996	1	11
598.166	1	0
598.335	1	1
598.505	1	9
598.675	1	5
598.844	1	11
599.014	1	9
599.184	1	6
599.354	1	0
599.523	1	15
599.693	1	8
599.863	1	16
600.033	1	4
600.202	1	3
600.372	1	10
600.542	1	22
600.712	1	6
600.881	1	15
601.051	1	16
601.221	1	16
601.390	1	7
601.560	1	11
601.730	1	15
601.900	1	9
602.069	1	21
602.239	1	8
602.409	1	2
602.578	1	10
602.748	1	4
602.918	1	17
603.088	1	10
603.257	1	12
603.427	1	9
603.597	1	11
603.767	1	13
603.936	1	18
604.106	1	7
604.276	1	15
604.445	1	27
604.615	1	6
604.785	1	3
604.954	1	8
605.124	1	13
605.294	1	12
605.464	1	9
605.633	1	9
605.803	1	14
605.973	1	4
606.142	1	4
606.312	1	8
606.482	1	12
606.652	1	10
606.821	1	10
606.991	1	9
607.161	1	12
607.330	1	7
607.500	1	14
607.670	1	8
607.839	1	19
608.009	1	11
608.179	1	9
608.348	1	6
608.518	1	8
608.688	1	16
608.858	1	6
609.027	1	2
609.197	1	6
609.367	1	20
609.536	1	15
609.706	1	4
609.876	1	11
610.045	1	8
610.215	1	23
610.385	1	2
610.554	1	5
610.724	1	16
610.894	1	13
611.063	1	8
611.233	1	0
611.403	1	10
611.572	1	7
611.742	1	18
611.912	1	5
612.081	1	-1
612.251	1	20
612.421	1	6
612.590	1	19
612.760	1	9
612.930	1	16
613.099	1	9
613.269	1	10
613.439	1	10
613.608	1	4
613.778	1	6
613.948	1	8
614.117	1	13
614.287	1	22
614.457	1	18
614.626	1	14
614.796	1	17
614.966	1	12
615.135	1	12
615.305	1	17
615.475	1	9
615.644	1	6
615.814	1	11
615.984	1	4
616.153	1	12
616.323	1	16
616.493	1	14
616.662	1	21
616.832	1	11
617.002	1	9
617.171	1	8
617.341	1	8
617.511	1	8
617.680	1	8
617.850	1	17
618.019	1	24
618.189	1	25
618.359	1	9
618.528	1	10
618.698	1	21
618.868	1	12
619.037	1	15
619.207	1	1
619.377	1	9
619.546	1	14
619.716	1	13
619.885	1	20
620.055	1	10
620.225	1	8
620.394	1	9
620.564	1	24
620.734	1	25
620.903	1	6
621.073	1	20
621.242	1	17
621.412	1	5
621.582	1	8
621.751	1	21
621.921	1	21
622.091	1	7
622.260	1	17
622.430	1	21
622.599	1	21
622.769	1	14
622.939	1	18
623.108	1	12
623.278	1	1
623.448	1	16
623.617	1	14
623.787	1	5
623.956	1	21
624.126	1	19
624.296	1	9
624.465	1	11
624.635	1	16
624.804	1	14
624.974	1	19
625.144	1	24
625.313	1	11
625.483	1	11
625.652	1	14
625.822	1	15
625.992	1	16
626.161	1	21
626.331	1	12
626.501	1	16
626.670	1	16
626.840	1	12
627.009	1	9
627.179	1	22
627.348	1	22
627.518	1	8
627.688	1	16
627.857	1	12
628.027	1	14
628.196	1	18
628.366	1	20
628.536	1	18
628.705	1	10
628.875	1	16
629.044	1	12
629.214	1	23
629.384	1	26
629.553	1	22
629.723	1	18
629.892	1	14
630.062	1	20
630.232	1	14
630.401	1	19
630.571	1	12
630.740	1	22
630.910	1	23
631.079	1	9
631.249	1	9
631.419	1	9
631.588	1	7
631.758	1	17
631.927	1	6
632.097	1	18
632.266	1	9
632.436	1	12
632.606	1	11
632.775	1	17
632.945	1	16
633.114	1	20
633.284	1	13
633.453	1	18
633.623	1	21
633.793	1	23
633.962	1	26
634.132	1	15
634.301	1	9
634.471	1	27
634.640	1	23
634.810	1	17
634.979	1	21
635.149	1	14
635.319	1	21
635.488	1	22
635.658	1	10
635.827	1	7
635.997	1	8
636.166	1	20
636.336	1	6
636.505	1	26
636.675	1	12
636.845	1	26
637.014	1	23
637.184	1	20
637.353	1	24
637.523	1	25
637.692	1	19
637.862	1	21
638.031	1	25
638.201	1	27
638.370	1	13
638.540	1	10
638.710	1	18
638.879	1	9
639.049	1	12
639.218	1	18
639.388	1	22
639.557	1	3
639.727	1	17
639.896	1	13
640.066	1	14
640.235	1	18
640.405	1	18
640.574	1	16
640.744	1	9
640.914	1	10
641.083	1	10
641.253	1	15
641.422	1	24
641.592	1	24
641.761	1	14
641.931	1	13
642.100	1	35
642.270	1	24
642.439	1	27
642.609	1	28
642.778	1	18
642.948	1	10
643.117	1	21
643.287	1	17
643.456	1	9
643.626	1	27
643.795	1	17
643.965	1	21
644.134	1	14
644.304	1	7
644.473	1	21
644.643	1	24
644.812	1	12
644.982	1	21
645.151	1	16
645.321	1	13
645.490	1	26
645.660	1	13
645.829	1	12
645.999	1	12
646.168	1	19
646.338	1	23
646.507	1	21
646.677	1	32
646.846	1	22
647.016	1	10
647.185	1	17
647.355	1	7
647.524	1	17
647.694	1	16
647.863	1	23
648.033	1	14
648.202	1	33
648.372	1	16
648.541	1	17
648.711	1	14
648.880	1	15
649.050	1	4
649.219	1	17
649.389	1	21
649.558	1	19
649.728	1	30
649.897	1	21
650.067	1	24
650.236	1	21
650.406	1	20
650.575	1	27
650.745	1	26
650.914	1	13
651.084	1	8
651.253	1	25
651.423	1	16
651.592	1	25
651.762	1	16
651.931	1	37
652.101	1	20
652.270	1	18
652.440	1	32
652.609	1	15
652.778	1	8
652.948	1	21
653.117	1	18
653.287	1	12
653.456	1	16
653.626	1	18
653.795	1	23
653.965	1	22
654.134	1	23
654.304	1	2
654.473	1	32
654.643	1	20
654.812	1	24
654.982	1	20
655.151	1	18
655.320	1	18
655.490	1	18
655.659	1	22
655.829	1	17
655.998	1	19
656.168	1	7
656.337	1	23
656.507	1	17
656.676	1	24
656.846	1	27
657.015	1	23
657.184	1	28
657.354	1	15
657.523	1	21
657.693	1	18
657.862	1	23
658.032	1	10
658.201	1	26
658.371	1	31
658.540	1	21
658.709	1	17
658.879	1	28
659.048	1	26
659.218	1	16
659.387	1	15
659.557	1	17
659.726	1	25
659.895	1	12
660.065	1	13
660.234	1	21
660.404	1	18
660.573	1	13
660.743	1	22
660.912	1	22
661.081	1	30
661.251	1	19
661.420	1	28
661.590	1	32
661.759	1	22
661.929	1	19
662.098	1	25
662.267	1	26
662.437	1	31
662.606	1	28
662.776	1	28
662.945	1	22
663.115	1	18
663.284	1	23
663.453	1	24
663.623	1	22
663.792	1	23
663.962	1	23
664.131	1	31
664.300	1	23
664.470	1	21
664.639	1	16
664.809	1	22
664.978	1	22
665.148	1	28
665.317	1	17
665.486	1	25
665.656	1	21
665.825	1	34
665.995	1	16
666.164	1	17
666.333	1	29
666.503	1	16
666.672	1	15
666.842	1	21
667.011	1	20
667.180	1	28
667.350	1	22
667.519	1	26
667.689	1	28
667.858	1	26
668.027	1	37
668.197	1	23
668.366	1	14
668.536	1	23
668.705	1	29
668.874	1	21
669.044	1	26
669.213	1	28
669.382	1	22
669.552	1	35
669.721	1	31
669.891	1	21
670.060	1	32
670.229	1	44
670.399	1	22
670.568	1	32
670.738	1	39
670.907	1	18
671.076	1	24
671.246	1	27
671.415	1	18
671.584	1	12
671.754	1	13
671.923	1	16
672.093	1	24
672.262	1	18
672.431	1	24
672.601	1	23
672.770	1	11
672.939	1	23
673.109	1	23
673.278	1	24
673.448	1	28
673.617	1	23
673.786	1	20
