325.333	1	7
325.504	1	-4
325.675	1	8
325.846	1	6
326.017	1	4
326.188	1	4
326.359	1	-1
326.531	1	-2
326.702	1	1
326.873	1	5
327.044	1	-1
327.215	1	-4
327.386	1	2
327.557	1	0
327.728	1	3
327.899	1	5
328.070	1	2
328.241	1	6
328.412	1	-11
328.583	1	9
328.754	1	-3
328.926	1	5
329.097	1	-14
329.268	1	16
329.439	1	-2
329.610	1	12
329.781	1	-6
329.952	1	3
330.123	1	3
330.294	1	-7
330.465	1	2
330.636	1	11
330.807	1	4
330.978	1	4
331.149	1	-8
331.320	1	-5
331.492	1	5
331.663	1	1
331.834	1	0
332.005	1	12
332.176	1	17
332.347	1	4
332.518	1	2
332.689	1	10
332.860	1	9
333.031	1	4
333.202	1	0
333.373	1	-1
333.544	1	4
333.715	1	6
333.886	1	-5
334.057	1	4
334.228	1	-2
334.399	1	5
334.570	1	8
334.741	1	2
334.912	1	12
335.084	1	17
335.255	1	4
335.426	1	0
335.597	1	3
335.768	1	-6
335.939	1	11
336.110	1	4
336.281	1	1
336.452	1	-2
336.623	1	3
336.794	1	4
336.965	1	-3
337.136	1	11
337.307	1	-4
337.478	1	0
337.649	1	8
337.820	1	5
337.991	1	0
338.162	1	-3
338.333	1	-3
338.504	1	5
338.675	1	5
338.846	1	6
339.017	1	0
339.188	1	-3
339.359	1	-1
339.530	1	5
339.701	1	9
339.872	1	15
340.043	1	3
340.214	1	0
340.385	1	7
340.556	1	-4
340.727	1	6
340.898	1	15
341.069	1	8
341.240	1	-1
341.411	1	1
341.582	1	3
341.753	1	-7
341.924	1	-1
342.095	1	6
342.266	1	19
342.437	1	10
342.608	1	3
342.779	1	3
342.950	1	15
343.121	1	5
343.292	1	3
343.463	1	-3
343.634	1	5
343.805	1	11
343.976	1	15
344.147	1	-1
344.318	1	5
344.489	1	1
344.660	1	11
344.831	1	0
345.002	1	-5
345.173	1	19
345.344	1	0
345.515	1	9
345.686	1	10
345.857	1	9
346.028	1	4
346.199	1	2
346.370	1	6
346.541	1	4
346.712	1	-1
346.883	1	-2
347.054	1	2
347.225	1	8
347.396	1	10
347.567	1	7
347.738	1	-4
347.909	1	16
348.080	1	-2
348.251	1	0
348.422	1	7
348.593	1	8
348.764	1	10
348.935	1	13
349.106	1	-2
349.277	1	3
349.448	1	23
349.619	1	3
349.790	1	4
349.961	1	7
350.132	1	8
350.303	1	4
350.474	1	4
350.645	1	10
350.816	1	1
350.987	1	2
351.157	1	2
351.328	1	10
351.499	1	13
351.670	1	0
351.841	1	14
352.012	1	17
352.183	1	12
352.354	1	12
352.525	1	14
352.696	1	14
352.867	1	2
353.038	1	13
353.209	1	12
353.380	1	4
353.551	1	6
353.722	1	4
353.893	1	6
354.064	1	11
354.235	1	1
354.406	1	-1
354.576	1	0
354.747	1	9
354.918	1	9
355.089	1	11
355.260	1	13
355.431	1	15
355.602	1	8
355.773	1	9
355.944	1	-3
356.115	1	11
356.286	1	3
356.457	1	0
356.628	1	8
356.799	1	2
356.970	1	14
357.141	1	8
357.311	1	6
357.482	1	-1
357.653	1	5
357.824	1	11
357.995	1	21
358.166	1	7
358.337	1	19
358.508	1	10
358.679	1	-1
358.850	1	10
359.021	1	9
359.192	1	9
359.363	1	-1
359.533	1	8
359.704	1	13
359.875	1	4
360.046	1	-1
360.217	1	2
360.388	1	9
360.559	1	8
360.730	1	5
360.901	1	11
361.072	1	12
361.243	1	16
361.414	1	8
361.584	1	7
361.755	1	8
361.926	1	-1
362.097	1	5
362.268	1	11
362.439	1	3
362.610	1	14
362.781	1	9
362.952	1	5
363.123	1	5
363.293	1	2
363.464	1	13
363.635	1	13
363.806	1	5
363.977	1	6
364.148	1	4
364.319	1	19
364.490	1	7
364.661	1	8
364.832	1	15
365.002	1	12
365.173	1	6
365.344	1	11
365.515	1	-3
365.686	1	10
365.857	1	10
366.028	1	16
366.199	1	13
366.370	1	11
366.540	1	-5
366.711	1	-3
366.882	1	2
367.053	1	4
367.224	1	22
367.395	1	9
367.566	1	16
367.737	1	11
367.908	1	8
368.078	1	13
368.249	1	7
368.420	1	4
368.591	1	7
368.762	1	15
368.933	1	10
369.104	1	-5
369.274	1	14
369.445	1	8
369.616	1	9
369.787	1	7
369.958	1	16
370.129	1	-5
370.300	1	13
370.471	1	8
370.641	1	15
370.812	1	10
370.983	1	7
371.154	1	5
371.325	1	18
371.496	1	13
371.667	1	9
371.837	1	2
372.008	1	9
372.179	1	0
372.350	1	17
372.521	1	7
372.692	1	13
372.863	1	10
373.033	1	3
373.204	1	2
373.375	1	10
373.546	1	10
373.717	1	13
373.888	1	14
374.059	1	16
374.229	1	8
374.400	1	2
374.571	1	14
374.742	1	20
374.913	1	11
375.084	1	14
375.254	1	14
375.425	1	9
375.596	1	19
375.767	1	5
375.938	1	2
376.109	1	8
376.279	1	-4
376.450	1	14
376.621	1	12
376.792	1	12
376.963	1	9
377.134	1	21
377.304	1	11
377.475	1	15
377.646	1	13
377.817	1	3
377.988	1	7
378.159	1	15
378.329	1	24
378.500	1	5
378.671	1	4
378.842	1	6
379.013	1	7
379.184	1	5
379.354	1	18
379.525	1	7
379.696	1	20
379.867	1	7
380.038	1	7
380.209	1	16
380.379	1	9
380.550	1	-3
380.721	1	8
380.892	1	9
381.063	1	13
381.233	1	16
381.404	1	7
381.575	1	18
381.746	1	14
381.917	1	10
382.087	1	20
382.258	1	3
382.429	1	13
382.600	1	25
382.771	1	17
382.941	1	8
383.112	1	11
383.283	1	17
383.454	1	4
383.625	1	-3
383.795	1	4
383.966	1	10
384.137	1	16
384.308	1	9
384.479	1	19
384.649	1	21
384.820	1	8
384.991	1	14
385.162	1	16
385.333	1	12
385.503	1	1
385.674	1	8
385.845	1	18
386.016	1	11
386.187	1	13
386.357	1	15
386.528	1	21
386.699	1	16
386.870	1	19
387.041	1	18
387.211	1	10
387.382	1	21
387.553	1	16
387.724	1	6
387.894	1	6
388.065	1	22
388.236	1	23
388.407	1	0
388.578	1	3
388.748	1	7
388.919	1	20
389.090	1	13
389.261	1	10
389.431	1	9
389.602	1	19
389.773	1	17
389.944	1	12
390.114	1	15
390.285	1	11
390.456	1	10
390.627	1	21
390.798	1	12
390.968	1	9
391.139	1	15
391.310	1	4
391.481	1	19
391.651	1	14
391.822	1	10
391.993	1	15
392.164	1	3
392.334	1	10
392.505	1	9
392.676	1	14
392.847	1	19
393.017	1	15
393.188	1	5
393.359	1	4
393.530	1	8
393.700	1	13
393.871	1	5
394.042	1	10
394.213	1	4
394.383	1	8
394.554	1	17
394.725	1	16
394.896	1	17
395.066	1	18
395.237	1	0
395.408	1	11
395.579	1	12
395.749	1	20
395.920	1	11
396.091	1	13
396.262	1	8
396.432	1	12
396.603	1	20
396.774	1	15
396.945	1	23
397.115	1	14
397.286	1	9
397.457	1	14
397.627	1	8
397.798	1	13
397.969	1	9
398.140	1	11
398.310	1	7
398.481	1	19
398.652	1	18
398.823	1	1
398.993	1	16
399.164	1	12
399.335	1	15
399.505	1	0
399.676	1	15
399.847	1	8
400.018	1	9
400.188	1	14
400.359	1	25
400.530	1	1
400.700	1	9
400.871	1	15
401.042	1	13
401.213	1	11
401.383	1	8
401.554	1	18
401.725	1	17
401.895	1	8
402.066	1	16
402.237	1	13
402.408	1	16
402.578	1	15
402.749	1	11
402.920	1	13
403.090	1	12
403.261	1	14
403.432	1	21
403.603	1	22
403.773	1	29
403.944	1	24
404.115	1	21
404.285	1	14
404.456	1	5
404.627	1	7
404.797	1	3
404.968	1	8
405.139	1	15
405.310	1	25
405.480	1	12
405.651	1	13
405.822	1	7
405.992	1	3
406.163	1	12
406.334	1	7
406.504	1	12
406.675	1	23
406.846	1	17
407.016	1	28
407.187	1	18
407.358	1	12
407.528	1	13
407.699	1	-3
407.870	1	10
408.041	1	17
408.211	1	23
408.382	1	1
408.553	1	8
408.723	1	20
408.894	1	16
409.065	1	15
409.235	1	14
409.406	1	14
409.577	1	-3
409.747	1	16
409.918	1	16
410.089	1	10
410.259	1	10
410.430	1	19
410.601	1	20
410.771	1	15
410.942	1	22
411.113	1	22
411.283	1	7
411.454	1	16
411.625	1	10
411.795	1	19
411.966	1	15
412.137	1	19
412.307	1	11
412.478	1	13
412.649	1	6
412.819	1	16
412.990	1	12
413.161	1	18
413.331	1	0
413.502	1	15
413.672	1	15
413.843	1	11
414.014	1	13
414.184	1	22
414.355	1	13
414.526	1	22
414.696	1	24
414.867	1	6
415.038	1	3
415.208	1	9
415.379	1	14
415.550	1	29
415.720	1	13
415.891	1	15
416.062	1	12
416.232	1	13
416.403	1	16
416.573	1	14
416.744	1	12
416.915	1	25
417.085	1	12
417.256	1	7
417.427	1	11
417.597	1	12
417.768	1	7
417.939	1	19
418.109	1	14
418.280	1	19
418.450	1	13
418.621	1	-6
418.792	1	19
418.962	1	12
419.133	1	22
419.304	1	16
419.474	1	9
419.645	1	14
419.815	1	13
419.986	1	21
420.157	1	13
420.327	1	18
420.498	1	23
420.669	1	8
420.839	1	14
421.010	1	16
421.180	1	22
421.351	1	16
421.522	1	19
421.692	1	12
421.863	1	19
422.033	1	24
422.204	1	18
422.375	1	12
422.545	1	17
422.716	1	7
422.886	1	15
423.057	1	20
423.228	1	11
423.398	1	4
423.569	1	16
423.740	1	15
423.910	1	9
424.081	1	14
424.251	1	5
424.422	1	22
424.593	1	12
424.763	1	15
424.934	1	13
425.104	1	11
425.275	1	13
425.445	1	6
425.616	1	9
425.787	1	5
425.957	1	20
426.128	1	19
426.298	1	17
426.469	1	12
426.640	1	14
426.810	1	13
426.981	1	10
427.151	1	8
427.322	1	17
427.493	1	12
427.663	1	14
427.834	1	11
428.004	1	14
428.175	1	15
428.345	1	19
428.516	1	4
428.687	1	11
428.857	1	-1
429.028	1	5
429.198	1	16
429.369	1	17
429.540	1	11
429.710	1	3
429.881	1	20
430.051	1	19
430.222	1	4
430.392	1	14
430.563	1	28
430.734	1	18
430.904	1	28
431.075	1	18
431.245	1	6
431.416	1	17
431.586	1	11
431.757	1	13
431.927	1	19
432.098	1	10
432.269	1	12
432.439	1	15
432.610	1	10
432.780	1	24
432.951	1	13
433.121	1	11
433.292	1	15
433.462	1	20
433.633	1	14
433.804	1	16
433.974	1	11
434.145	1	31
434.315	1	10
434.486	1	11
434.656	1	18
434.827	1	21
434.997	1	8
435.168	1	15
435.339	1	15
435.509	1	15
435.680	1	6
435.850	1	12
436.021	1	14
436.191	1	8
436.362	1	10
436.532	1	13
436.703	1	7
436.873	1	7
437.044	1	0
437.214	1	8
437.385	1	8
437.556	1	6
437.726	1	28
437.897	1	26
438.067	1	8
438.238	1	15
438.408	1	14
438.579	1	15
438.749	1	8
438.920	1	8
439.090	1	21
439.261	1	13
439.431	1	4
439.602	1	14
439.772	1	6
439.943	1	27
440.113	1	16
440.284	1	10
440.455	1	11
440.625	1	4
440.796	1	19
440.966	1	10
441.137	1	16
441.307	1	6
441.478	1	12
441.648	1	12
441.819	1	10
441.989	1	7
442.160	1	15
442.330	1	12
442.501	1	9
442.671	1	11
442.842	1	1
443.012	1	7
443.183	1	18
443.353	1	5
443.524	1	19
443.694	1	9
443.865	1	12
444.035	1	4
444.206	1	8
444.376	1	7
444.547	1	24
444.717	1	15
444.888	1	8
445.058	1	15
445.229	1	17
445.399	1	12
445.570	1	13
445.740	1	3
445.911	1	12
446.081	1	4
446.252	1	12
446.422	1	13
446.593	1	4
446.763	1	8
446.934	1	6
447.104	1	14
447.275	1	8
447.445	1	18
447.616	1	19
447.786	1	0
447.957	1	8
448.127	1	6
448.298	1	24
448.468	1	17
448.639	1	8
448.809	1	14
448.979	1	7
449.150	1	18
449.320	1	12
449.491	1	27
449.661	1	6
449.832	1	5
450.002	1	16
450.173	1	15
450.343	1	10
450.514	1	7
450.684	1	8
450.855	1	4
451.025	1	11
451.196	1	5
451.366	1	15
451.537	1	2
451.707	1	-3
451.878	1	14
452.048	1	18
452.218	1	17
452.389	1	11
452.559	1	15
452.730	1	11
452.900	1	14
453.071	1	-2
453.241	1	15
453.412	1	2
453.582	1	11
453.753	1	18
453.923	1	14
454.093	1	6
454.264	1	15
454.434	1	5
454.605	1	7
454.775	1	6
454.946	1	16
455.116	1	12
455.287	1	-1
455.457	1	1
455.628	1	9
455.798	1	14
455.968	1	16
456.139	1	4
456.309	1	1
456.480	1	6
456.650	1	10
456.821	1	4
456.991	1	14
457.161	1	12
457.332	1	11
457.502	1	-5
457.673	1	17
457.843	1	21
458.014	1	3
458.184	1	10
458.355	1	14
458.525	1	10
458.695	1	10
458.866	1	10
459.036	1	13
459.207	1	2
459.377	1	5
459.548	1	14
459.718	1	3
459.888	1	15
460.059	1	10
460.229	1	16
460.400	1	14
460.570	1	8
460.740	1	1
460.911	1	7
461.081	1	12
461.252	1	-3
461.422	1	16
461.593	1	-1
461.763	1	10
461.933	1	4
462.104	1	9
462.274	1	14
462.445	1	11
462.615	1	14
462.785	1	8
462.956	1	16
463.126	1	6
463.297	1	-2
463.467	1	9
463.638	1	14
463.808	1	6
463.978	1	11
464.149	1	4
464.319	1	-1
464.490	1	26
464.660	1	5
464.830	1	-2
465.001	1	7
465.171	1	21
465.342	1	15
465.512	1	9
465.682	1	5
465.853	1	9
466.023	1	16
466.194	1	2
466.364	1	13
466.534	1	14
466.705	1	0
466.875	1	4
467.045	1	7
467.216	1	18
467.386	1	11
467.557	1	4
467.727	1	0
467.897	1	8
468.068	1	11
468.238	1	10
468.409	1	2
468.579	1	7
468.749	1	-2
468.920	1	1
469.090	1	7
469.260	1	-3
469.431	1	5
469.601	1	13
469.772	1	8
469.942	1	-2
470.112	1	14
470.283	1	5
470.453	1	5
470.623	1	-2
470.794	1	0
470.964	1	5
471.135	1	13
471.305	1	2
471.475	1	10
471.646	1	1
471.816	1	-1
471.986	1	13
472.157	1	20
472.327	1	-1
472.497	1	13
472.668	1	12
472.838	1	5
473.009	1	12
473.179	1	-3
473.349	1	1
473.520	1	12
473.690	1	13
473.860	1	8
474.031	1	10
474.201	1	1
474.371	1	15
474.542	1	11
474.712	1	4
474.882	1	5
475.053	1	25
475.223	1	4
475.394	1	10
475.564	1	5
475.734	1	10
475.905	1	18
476.075	1	-2
476.245	1	12
476.416	1	17
476.586	1	10
476.756	1	4
476.927	1	8
477.097	1	16
477.267	1	4
477.438	1	9
477.608	1	6
477.778	1	5
477.949	1	13
478.119	1	13
478.289	1	8
478.460	1	11
478.630	1	12
478.800	1	4
478.971	1	4
479.141	1	3
479.311	1	0
479.482	1	9
479.652	1	9
479.822	1	5
479.993	1	4
480.163	1	3
480.333	1	11
480.504	1	8
480.674	1	2
480.844	1	1
481.015	1	15
481.185	1	4
481.355	1	9
481.525	1	-5
481.696	1	8
481.866	1	10
482.036	1	16
482.207	1	9
482.377	1	11
482.547	1	15
482.718	1	5
482.888	1	4
483.058	1	13
483.229	1	-3
483.399	1	5
483.569	1	12
483.740	1	20
483.910	1	14
484.080	1	1
484.250	1	2
484.421	1	1
484.591	1	12
484.761	1	14
484.932	1	7
485.102	1	8
485.272	1	4
485.443	1	14
485.613	1	14
485.783	1	-2
485.953	1	7
486.124	1	6
486.294	1	9
486.464	1	7
486.635	1	2
486.805	1	18
486.975	1	6
487.146	1	8
487.316	1	8
487.486	1	14
487.656	1	3
487.827	1	7
487.997	1	-8
488.167	1	6
488.338	1	13
488.508	1	3
488.678	1	-2
488.848	1	22
489.019	1	6
489.189	1	7
489.359	1	4
489.529	1	10
489.700	1	0
489.870	1	15
490.040	1	-2
490.211	1	4
490.381	1	13
490.551	1	2
490.721	1	5
490.892	1	6
491.062	1	6
491.232	1	10
491.402	1	3
491.573	1	-5
491.743	1	7
491.913	1	12
492.084	1	11
492.254	1	-2
492.424	1	5
492.594	1	5
492.765	1	8
492.935	1	0
493.105	1	15
493.275	1	8
493.446	1	3
493.616	1	7
493.786	1	1
493.956	1	8
494.127	1	6
494.297	1	4
494.467	1	1
494.637	1	8
494.808	1	4
494.978	1	-3
495.148	1	-10
495.318	1	11
495.489	1	12
495.659	1	17
495.829	1	-3
495.999	1	9
496.170	1	12
496.340	1	7
496.510	1	3
496.680	1	-4
496.851	1	3
497.021	1	8
497.191	1	4
497.361	1	2
497.532	1	3
497.702	1	2
497.872	1	2
498.042	1	5
498.213	1	1
498.383	1	6
498.553	1	-8
498.723	1	4
498.894	1	7
499.064	1	-1
499.234	1	6
499.404	1	11
499.574	1	18
499.745	1	12
499.915	1	4
500.085	1	4
500.255	1	14
500.426	1	3
500.596	1	3
500.766	1	4
500.936	1	10
501.106	1	-6
501.277	1	-3
501.447	1	-1
501.617	1	16
501.787	1	3
501.958	1	0
502.128	1	4
502.298	1	8
502.468	1	7
502.638	1	5
502.809	1	0
502.979	1	-7
503.149	1	0
503.319	1	-2
503.489	1	2
503.660	1	17
503.830	1	2
504.000	1	21
504.170	1	8
504.340	1	2
504.511	1	9
504.681	1	7
504.851	1	15
505.021	1	9
505.192	1	-7
505.362	1	13
505.532	1	7
505.702	1	5
505.872	1	9
506.043	1	-1
506.213	1	-5
506.383	1	6
506.553	1	16
506.723	1	5
506.893	1	5
507.064	1	7
507.234	1	4
507.404	1	2
507.574	1	6
507.744	1	9
507.915	1	3
508.085	1	14
508.255	1	2
508.425	1	-6
508.595	1	12
508.766	1	9
508.936	1	-1
509.106	1	9
509.276	1	12
509.446	1	-5
509.616	1	0
509.787	1	14
509.957	1	6
510.127	1	1
510.297	1	9
510.467	1	6
510.638	1	-2
510.808	1	1
510.978	1	-9
511.148	1	-2
511.318	1	1
511.488	1	-3
511.659	1	-3
511.829	1	-4
511.999	1	2
512.169	1	10
512.339	1	3
512.509	1	2
512.680	1	4
512.850	1	-1
513.020	1	-1
513.190	1	8
513.360	1	8
513.530	1	4
513.700	1	12
513.871	1	-6
514.041	1	-3
514.211	1	10
514.381	1	9
514.551	1	3
514.721	1	0
514.892	1	7
515.062	1	12
515.232	1	7
515.402	1	2
515.572	1	-1
515.742	1	7
515.912	1	6
516.083	1	1
516.253	1	10
516.423	1	0
516.593	1	10
516.763	1	14
516.933	1	7
517.104	1	1
517.274	1	6
517.444	1	4
517.614	1	6
517.784	1	3
517.954	1	9
518.124	1	3
518.294	1	-3
518.465	1	1
518.635	1	3
518.805	1	0
518.975	1	3
519.145	1	-9
519.315	1	0
519.485	1	3
519.656	1	5
519.826	1	3
519.996	1	-5
520.166	1	-5
520.336	1	6
520.506	1	2
520.676	1	-7
520.846	1	10
521.017	1	0
521.187	1	-4
521.357	1	7
521.527	1	6
521.697	1	12
521.867	1	7
522.037	1	13
522.207	1	10
522.377	1	-2
522.548	1	3
522.718	1	2
522.888	1	8
523.058	1	6
523.228	1	7
523.398	1	8
523.568	1	10
523.738	1	7
523.909	1	10
524.079	1	2
524.249	1	6
524.419	1	-1
524.589	1	3
524.759	1	-6
524.929	1	1
525.099	1	4
525.269	1	13
525.439	1	-6
525.610	1	22
525.780	1	4
525.950	1	4
526.120	1	2
526.290	1	5
526.460	1	-6
526.630	1	5
526.800	1	3
526.970	1	3
527.140	1	4
527.311	1	-8
527.481	1	-8
527.651	1	12
527.821	1	-5
527.991	1	8
528.161	1	12
528.331	1	4
528.501	1	9
528.671	1	0
528.841	1	1
529.011	1	-3
529.181	1	6
529.352	1	13
529.522	1	-1
529.692	1	7
529.862	1	3
530.032	1	2
530.202	1	4
530.372	1	6
530.542	1	6
530.712	1	2
530.882	1	4
531.052	1	10
531.222	1	8
531.392	1	-2
531.563	1	13
531.733	1	7
531.903	1	8
532.073	1	10
532.243	1	-1
532.413	1	0
532.583	1	0
532.753	1	-1
532.923	1	-13
533.093	1	8
533.263	1	7
533.433	1	8
533.603	1	12
533.773	1	-4
533.943	1	2
534.113	1	4
534.284	1	3
534.454	1	1
534.624	1	8
534.794	1	-6
534.964	1	-3
535.134	1	2
535.304	1	-3
535.474	1	13
535.644	1	-9
535.814	1	-10
535.984	1	-6
536.154	1	-11
536.324	1	-8
536.494	1	2
536.664	1	-4
536.834	1	1
537.004	1	1
537.174	1	12
537.344	1	-1
537.514	1	-8
537.685	1	0
537.855	1	2
538.025	1	7
538.195	1	-1
538.365	1	5
538.535	1	3
538.705	1	2
538.875	1	2
539.045	1	9
539.215	1	5
539.385	1	0
539.555	1	13
539.725	1	1
539.895	1	-6
540.065	1	10
540.235	1	7
540.405	1	0
540.575	1	-4
540.745	1	3
540.915	1	4
541.085	1	-2
541.255	1	-11
541.425	1	4
541.595	1	4
541.765	1	0
541.935	1	2
542.105	1	-5
542.275	1	2
542.445	1	-7
542.615	1	-4
542.785	1	6
542.955	1	1
543.125	1	-3
543.295	1	12
543.465	1	8
543.635	1	8
543.805	1	13
543.975	1	8
544.145	1	3
544.315	1	8
544.485	1	4
544.655	1	13
544.825	1	-4
544.995	1	7
545.165	1	-2
545.335	1	11
545.505	1	-6
545.675	1	10
545.845	1	1
546.015	1	2
546.185	1	9
546.355	1	-7
546.525	1	7
546.695	1	-2
546.865	1	-5
547.035	1	6
547.205	1	-12
547.375	1	9
547.545	1	0
547.715	1	-3
547.885	1	11
548.055	1	-5
548.225	1	-3
548.395	1	-1
548.565	1	3
548.735	1	7
548.905	1	5
549.075	1	0
549.245	1	0
549.415	1	-7
549.585	1	9
549.755	1	5
549.925	1	-2
550.095	1	4
550.265	1	3
550.435	1	-7
550.605	1	0
550.775	1	2
550.945	1	9
551.115	1	2
551.285	1	8
551.455	1	-9
551.625	1	7
551.795	1	3
551.965	1	-4
552.135	1	-1
552.305	1	-1
552.475	1	-8
552.645	1	-1
552.815	1	2
552.985	1	13
553.155	1	1
553.325	1	2
553.495	1	2
553.665	1	6
553.835	1	3
554.004	1	1
554.174	1	1
554.344	1	-2
554.514	1	3
554.684	1	3
554.854	1	-1
555.024	1	-11
555.194	1	-8
555.364	1	4
555.534	1	6
555.704	1	5
555.874	1	5
556.044	1	8
556.214	1	-7
556.384	1	3
556.554	1	17
556.724	1	1
556.894	1	7
557.064	1	4
557.234	1	3
557.404	1	7
557.573	1	12
557.743	1	3
557.913	1	0
558.083	1	-4
558.253	1	2
558.423	1	5
558.593	1	4
558.763	1	-9
558.933	1	3
559.103	1	12
559.273	1	4
559.443	1	-1
559.613	1	9
559.783	1	-2
559.953	1	-4
560.122	1	5
560.292	1	1
560.462	1	4
560.632	1	10
560.802	1	6
560.972	1	10
561.142	1	3
561.312	1	-2
561.482	1	4
561.652	1	13
561.822	1	-3
561.992	1	-1
562.162	1	-8
562.331	1	1
562.501	1	-8
562.671	1	8
562.841	1	-6
563.011	1	1
563.181	1	-4
563.351	1	-7
563.521	1	-1
563.691	1	-11
563.861	1	0
564.031	1	12
564.201	1	11
564.370	1	-10
564.540	1	7
564.710	1	-1
564.880	1	5
565.050	1	7
565.220	1	-4
565.390	1	12
565.560	1	4
565.730	1	-3
565.900	1	5
566.069	1	18
566.239	1	7
566.409	1	3
566.579	1	7
566.749	1	-6
566.919	1	8
567.089	1	-1
567.259	1	10
567.429	1	8
567.599	1	-5
567.768	1	7
567.938	1	-1
568.108	1	-10
568.278	1	2
568.448	1	-4
568.618	1	2
568.788	1	3
568.958	1	1
569.128	1	-1
569.297	1	-2
569.467	1	3
569.637	1	-2
569.807	1	6
569.977	1	10
570.147	1	13
570.317	1	0
570.487	1	7
570.656	1	11
570.826	1	-8
570.996	1	-3
571.166	1	8
571.336	1	-4
571.506	1	-2
571.676	1	3
571.846	1	7
572.015	1	-5
572.185	1	-2
572.355	1	10
572.525	1	7
572.695	1	4
572.865	1	-10
573.035	1	6
573.205	1	6
573.374	1	-3
573.544	1	4
573.714	1	1
573.884	1	2
574.054	1	0
574.224	1	-4
574.394	1	-7
574.563	1	-1
574.733	1	-2
574.903	1	2
575.073	1	-2
575.243	1	3
575.413	1	6
575.583	1	0
575.752	1	6
575.922	1	5
576.092	1	-3
576.262	1	1
576.432	1	2
576.602	1	-2
576.772	1	15
576.941	1	10
577.111	1	4
577.281	1	-6
577.451	1	-13
577.621	1	10
577.791	1	4
577.960	1	-7
578.130	1	-4
578.300	1	-1
578.470	1	16
578.640	1	1
578.810	1	-1
578.979	1	8
579.149	1	-4
579.319	1	0
579.489	1	-6
579.659	1	-2
579.829	1	-1
579.998	1	3
580.168	1	9
580.338	1	9
580.508	1	3
580.678	1	7
580.848	1	0
581.017	1	-3
581.187	1	-2
581.357	1	-1
581.527	1	9
581.697	1	12
581.867	1	9
582.036	1	-2
582.206	1	5
582.376	1	5
582.546	1	-7
582.716	1	-6
582.885	1	0
583.055	1	3
583.225	1	-5
583.395	1	7
583.565	1	-8
583.735	1	5
583.904	1	8
584.074	1	5
584.244	1	5
584.414	1	0
584.584	1	3
584.753	1	-2
584.923	1	2
585.093	1	4
585.263	1	-2
585.433	1	3
585.602	1	4
585.772	1	-2
585.942	1	-1
586.112	1	4
586.282	1	-6
586.451	1	-4
586.621	1	-7
586.791	1	0
586.961	1	6
587.131	1	4
587.300	1	3
587.470	1	14
587.640	1	7
587.810	1	0
587.980	1	-4
588.149	1	0
588.319	1	-2
588.489	1	13
588.659	1	1
588.829	1	3
588.998	1	17
589.168	1	-7
589.338	1	3
589.508	1	0
589.677	1	-7
589.847	1	-4
590.017	1	17
590.187	1	-7
590.357	1	6
590.526	1	14
590.696	1	6
590.866	1	16
591.036	1	0
591.205	1	20
591.375	1	-5
591.545	1	-6
591.715	1	0
591.885	1	-3
592.054	1	5
592.224	1	-3
592.394	1	0
592.564	1	4
592.733	1	5
592.903	1	0
593.073	1	-2
593.243	1	9
593.412	1	-1
593.582	1	4
593.752	1	0
593.922	1	-2
594.091	1	-4
594.261	1	3
594.431	1	1
594.601	1	4
594.771	1	2
594.940	1	0
595.110	1	-5
595.280	1	10
595.450	1	-2
595.619	1	4
595.789	1	-1
595.959	1	1
596.129	1	-2
596.298	1	-1
596.468	1	3
596.638	1	2
596.808	1	0
596.977	1	6
597.147	1	1
597.317	1	-6
597.487	1	8
597.656	1	12
597.826	1	2
597.996	1	-1
598.166	1	-1
598.335	1	1
598.505	1	-2
598.675	1	-8
598.844	1	-5
599.014	1	6
599.184	1	-2
599.354	1	-10
599.523	1	0
599.693	1	-1
599.863	1	8
600.033	1	0
600.202	1	7
600.372	1	7
600.542	1	9
600.712	1	-7
600.881	1	0
601.051	1	11
601.221	1	-2
601.390	1	4
601.560	1	9
601.730	1	8
601.900	1	5
602.069	1	3
602.239	1	-8
602.409	1	-3
602.578	1	-6
602.748	1	-3
602.918	1	5
603.088	1	1
603.257	1	6
603.427	1	2
603.597	1	11
603.767	1	4
603.936	1	-9
604.106	1	3
604.276	1	7
604.445	1	8
604.615	1	2
604.785	1	1
604.954	1	0
605.124	1	2
605.294	1	1
605.464	1	1
605.633	1	12
605.803	1	-1
605.973	1	-6
606.142	1	1
606.312	1	10
606.482	1	-3
606.652	1	9
606.821	1	2
606.991	1	0
607.161	1	0
607.330	1	3
607.500	1	4
607.670	1	-4
607.839	1	9
608.009	1	16
608.179	1	6
608.348	1	2
608.518	1	0
608.688	1	3
608.858	1	3
609.027	1	-5
609.197	1	1
609.367	1	9
609.536	1	6
609.706	1	3
609.876	1	-4
610.045	1	-8
610.215	1	5
610.385	1	-2
610.554	1	1
610.724	1	8
610.894	1	-3
611.063	1	-1
611.233	1	1
611.403	1	3
611.572	1	-1
611.742	1	7
611.912	1	-1
612.081	1	-7
612.251	1	6
612.421	1	0
612.590	1	2
612.760	1	3
612.930	1	7
613.099	1	2
613.269	1	8
613.439	1	2
613.608	1	-1
613.778	1	7
613.948	1	3
614.117	1	7
614.287	1	16
614.457	1	4
614.626	1	4
614.796	1	7
614.966	1	3
615.135	1	2
615.305	1	12
615.475	1	-6
615.644	1	-2
615.814	1	5
615.984	1	-6
616.153	1	-9
616.323	1	3
616.493	1	-1
616.662	1	13
616.832	1	0
617.002	1	3
617.171	1	3
617.341	1	-2
617.511	1	0
617.680	1	-6
617.850	1	5
618.019	1	10
618.189	1	13
618.359	1	1
618.528	1	6
618.698	1	9
618.868	1	5
619.037	1	2
619.207	1	-1
619.377	1	-6
619.546	1	11
619.716	1	-2
619.885	1	0
620.055	1	-7
620.225	1	5
620.394	1	0
620.564	1	6
620.734	1	7
620.903	1	0
621.073	1	5
621.242	1	4
621.412	1	-5
621.582	1	5
621.751	1	11
621.921	1	8
622.091	1	-4
622.260	1	-5
622.430	1	13
622.599	1	-3
622.769	1	-6
622.939	1	7
623.108	1	-1
623.278	1	-3
623.448	1	8
623.617	1	-8
623.787	1	11
623.956	1	4
624.126	1	0
624.296	1	-7
624.465	1	12
624.635	1	7
624.804	1	2
624.974	1	0
625.144	1	14
625.313	1	-2
625.483	1	2
625.652	1	-6
625.822	1	-4
625.992	1	-5
626.161	1	7
626.331	1	4
626.501	1	11
626.670	1	0
626.840	1	4
627.009	1	0
627.179	1	16
627.348	1	8
627.518	1	7
627.688	1	0
627.857	1	9
628.027	1	-9
628.196	1	-8
628.366	1	7
628.536	1	6
628.705	1	-2
628.875	1	10
629.044	1	1
629.214	1	9
629.384	1	5
629.553	1	8
629.723	1	7
629.892	1	3
630.062	1	1
630.232	1	-2
630.401	1	2
630.571	1	4
630.740	1	8
630.910	1	5
631.079	1	9
631.249	1	-5
631.419	1	9
631.588	1	-19
631.758	1	5
631.927	1	-4
632.097	1	2
632.266	1	-2
632.436	1	6
632.606	1	-7
632.775	1	4
632.945	1	-2
633.114	1	9
633.284	1	6
633.453	1	-1
633.623	1	3
633.793	1	14
633.962	1	-2
634.132	1	4
634.301	1	-1
634.471	1	10
634.640	1	-5
634.810	1	3
634.979	1	3
635.149	1	9
635.319	1	-1
635.488	1	7
635.658	1	-1
635.827	1	-5
635.997	1	4
636.166	1	4
636.336	1	-8
636.505	1	11
636.675	1	-4
636.845	1	3
637.014	1	7
637.184	1	16
637.353	1	10
637.523	1	5
637.692	1	4
637.862	1	2
638.031	1	-4
638.201	1	11
638.370	1	9
638.540	1	2
638.710	1	1
638.879	1	-5
639.049	1	9
639.218	1	-1
639.388	1	-1
639.557	1	-5
639.727	1	4
639.896	1	5
640.066	1	4
640.235	1	-1
640.405	1	10
640.574	1	2
640.744	1	-7
640.914	1	-3
641.083	1	-6
641.253	1	3
641.422	1	0
641.592	1	12
641.761	1	1
641.931	1	9
642.100	1	14
642.270	1	0
642.439	1	9
642.609	1	8
642.778	1	6
642.948	1	-3
643.117	1	10
643.287	1	4
643.456	1	1
643.626	1	13
643.795	1	8
643.965	1	7
644.134	1	0
644.304	1	11
644.473	1	15
644.643	1	5
644.812	1	-6
644.982	1	2
645.151	1	9
645.321	1	-8
645.490	1	7
645.660	1	-8
645.829	1	6
645.999	1	4
646.168	1	0
646.338	1	10
646.507	1	4
646.677	1	8
646.846	1	6
647.016	1	-6
647.185	1	0
647.355	1	-16
647.524	1	3
647.694	1	8
647.863	1	-2
648.033	1	1
648.202	1	11
648.372	1	-2
648.541	1	-6
648.711	1	1
648.880	1	-5
649.050	1	-3
649.219	1	4
649.389	1	15
649.558	1	-4
649.728	1	9
649.897	1	-14
650.067	1	1
650.236	1	2
650.406	1	6
650.575	1	18
650.745	1	10
650.914	1	-3
651.084	1	-5
651.253	1	-4
651.423	1	5
651.592	1	-1
651.762	1	-7
651.931	1	5
652.101	1	6
652.270	1	8
652.440	1	10
652.609	1	-5
652.778	1	-4
652.948	1	11
653.117	1	4
653.287	1	6
653.456	1	1
653.626	1	8
653.795	1	5
653.965	1	10
654.134	1	16
654.304	1	-17
654.473	1	7
654.643	1	0
654.812	1	1
654.982	1	3
655.151	1	-2
655.320	1	6
655.490	1	3
655.659	1	7
655.829	1	-4
655.998	1	1
656.168	1	-12
656.337	1	7
656.507	1	2
656.676	1	5
656.846	1	9
657.015	1	11
657.184	1	13
657.354	1	9
657.523	1	-2
657.693	1	15
657.862	1	7
658.032	1	5
658.201	1	-1
658.371	1	1
658.540	1	5
658.709	1	-5
658.879	1	1
659.048	1	1
659.218	1	-2
659.387	1	7
659.557	1	8
659.726	1	7
659.895	1	-6
660.065	1	5
660.234	1	10
660.404	1	6
660.573	1	-3
660.743	1	7
660.912	1	2
661.081	1	13
661.251	1	5
661.420	1	11
661.590	1	11
661.759	1	9
661.929	1	6
662.098	1	17
662.267	1	-1
662.437	1	13
662.606	1	2
662.776	1	-2
662.945	1	2
663.115	1	2
663.284	1	0
663.453	1	11
663.623	1	3
663.792	1	1
663.962	1	-8
664.131	1	7
664.300	1	9
664.470	1	-3
664.639	1	-6
664.809	1	2
664.978	1	11
665.148	1	7
665.317	1	5
665.486	1	10
665.656	1	-9
665.825	1	8
665.995	1	-8
666.164	1	-3
666.333	1	4
666.503	1	1
666.672	1	4
666.842	1	-6
667.011	1	0
667.180	1	8
667.350	1	2
667.519	1	1
667.689	1	6
667.858	1	8
668.027	1	9
668.197	1	-6
668.366	1	-2
668.536	1	6
668.705	1	4
668.874	1	5
669.044	1	4
669.213	1	0
669.382	1	-3
669.552	1	11
669.721	1	6
669.891	1	20
670.060	1	7
670.229	1	22
670.399	1	-2
670.568	1	16
670.738	1	5
670.907	1	-9
671.076	1	-7
671.246	1	8
671.415	1	1
671.584	1	-1
671.754	1	-3
671.923	1	4
672.093	1	5
672.262	1	-8
672.431	1	5
672.601	1	9
672.770	1	1
672.939	1	7
673.109	1	-8
673.278	1	2
673.448	1	6
673.617	1	-4
673.786	1	8
