325.333	1	6
325.504	1	14
325.675	1	-1
325.846	1	0
326.017	1	6
326.188	1	3
326.359	1	5
326.531	1	-7
326.702	1	4
326.873	1	10
327.044	1	5
327.215	1	-3
327.386	1	2
327.557	1	-1
327.728	1	4
327.899	1	8
328.070	1	16
328.241	1	12
328.412	1	-5
328.583	1	6
328.754	1	-1
328.926	1	10
329.097	1	-5
329.268	1	12
329.439	1	3
329.610	1	11
329.781	1	1
329.952	1	14
330.123	1	-8
330.294	1	6
330.465	1	5
330.636	1	12
330.807	1	-2
330.978	1	7
331.149	1	9
331.320	1	17
331.492	1	5
331.663	1	12
331.834	1	18
332.005	1	-2
332.176	1	9
332.347	1	11
332.518	1	-5
332.689	1	21
332.860	1	-4
333.031	1	21
333.202	1	6
333.373	1	10
333.544	1	8
333.715	1	5
333.886	1	9
334.057	1	11
334.228	1	5
334.399	1	15
334.570	1	16
334.741	1	10
334.912	1	11
335.084	1	20
335.255	1	9
335.426	1	6
335.597	1	8
335.768	1	11
335.939	1	14
336.110	1	4
336.281	1	2
336.452	1	3
336.623	1	16
336.794	1	14
336.965	1	13
337.136	1	16
337.307	1	8
337.478	1	15
337.649	1	13
337.820	1	7
337.991	1	5
338.162	1	11
338.333	1	9
338.504	1	14
338.675	1	8
338.846	1	9
339.017	1	12
339.188	1	3
339.359	1	0
339.530	1	12
339.701	1	7
339.872	1	16
340.043	1	18
340.214	1	17
340.385	1	13
340.556	1	5
340.727	1	7
340.898	1	17
341.069	1	20
341.240	1	7
341.411	1	16
341.582	1	12
341.753	1	11
341.924	1	5
342.095	1	15
342.266	1	12
342.437	1	15
342.608	1	5
342.779	1	11
342.950	1	13
343.121	1	17
343.292	1	2
343.463	1	14
343.634	1	10
343.805	1	20
343.976	1	22
344.147	1	11
344.318	1	7
344.489	1	8
344.660	1	15
344.831	1	15
345.002	1	-1
345.173	1	19
345.344	1	13
345.515	1	18
345.686	1	13
345.857	1	15
346.028	1	13
346.199	1	13
346.370	1	17
346.541	1	12
346.712	1	7
346.883	1	16
347.054	1	18
347.225	1	17
347.396	1	25
347.567	1	12
347.738	1	5
347.909	1	27
348.080	1	10
348.251	1	18
348.422	1	13
348.593	1	19
348.764	1	17
348.935	1	15
349.106	1	8
349.277	1	16
349.448	1	19
349.619	1	11
349.790	1	23
349.961	1	25
350.132	1	18
350.303	1	18
350.474	1	20
350.645	1	21
350.816	1	25
350.987	1	21
351.157	1	11
351.328	1	19
351.499	1	22
351.670	1	12
351.841	1	29
352.012	1	28
352.183	1	27
352.354	1	33
352.525	1	25
352.696	1	18
352.867	1	18
353.038	1	29
353.209	1	24
353.380	1	20
353.551	1	20
353.722	1	19
353.893	1	9
354.064	1	27
354.235	1	26
354.406	1	11
354.576	1	20
354.747	1	18
354.918	1	27
355.089	1	18
355.260	1	22
355.431	1	27
355.602	1	17
355.773	1	23
355.944	1	20
356.115	1	20
356.286	1	16
356.457	1	27
356.628	1	12
356.799	1	23
356.970	1	26
357.141	1	20
357.311	1	12
357.482	1	21
357.653	1	20
357.824	1	32
357.995	1	24
358.166	1	14
358.337	1	15
358.508	1	26
358.679	1	19
358.850	1	21
359.021	1	15
359.192	1	25
359.363	1	24
359.533	1	19
359.704	1	23
359.875	1	17
360.046	1	32
360.217	1	16
360.388	1	28
360.559	1	25
360.730	1	27
360.901	1	16
361.072	1	30
361.243	1	20
361.414	1	26
361.584	1	16
361.755	1	27
361.926	1	17
362.097	1	27
362.268	1	29
362.439	1	13
362.610	1	30
362.781	1	21
362.952	1	13
363.123	1	17
363.293	1	13
363.464	1	30
363.635	1	32
363.806	1	17
363.977	1	25
364.148	1	23
364.319	1	30
364.490	1	30
364.661	1	22
364.832	1	23
365.002	1	28
365.173	1	24
365.344	1	37
365.515	1	24
365.686	1	22
365.857	1	40
366.028	1	30
366.199	1	20
366.370	1	35
366.540	1	13
366.711	1	9
366.882	1	23
367.053	1	18
367.224	1	34
367.395	1	36
367.566	1	21
367.737	1	30
367.908	1	32
368.078	1	33
368.249	1	33
368.420	1	22
368.591	1	25
368.762	1	19
368.933	1	20
369.104	1	29
369.274	1	24
369.445	1	31
369.616	1	36
369.787	1	30
369.958	1	39
370.129	1	23
370.300	1	35
370.471	1	23
370.641	1	32
370.812	1	20
370.983	1	18
371.154	1	28
371.325	1	40
371.496	1	22
371.667	1	40
371.837	1	26
372.008	1	22
372.179	1	29
372.350	1	44
372.521	1	26
372.692	1	34
372.863	1	33
373.033	1	18
373.204	1	21
373.375	1	27
373.546	1	28
373.717	1	29
373.888	1	43
374.059	1	37
374.229	1	35
374.400	1	29
374.571	1	32
374.742	1	26
374.913	1	31
375.084	1	34
375.254	1	36
375.425	1	31
375.596	1	38
375.767	1	37
375.938	1	28
376.109	1	39
376.279	1	25
376.450	1	23
376.621	1	35
376.792	1	23
376.963	1	29
377.134	1	35
377.304	1	20
377.475	1	28
377.646	1	19
377.817	1	27
377.988	1	32
378.159	1	31
378.329	1	37
378.500	1	32
378.671	1	36
378.842	1	37
379.013	1	26
379.184	1	19
379.354	1	41
379.525	1	35
379.696	1	37
379.867	1	41
380.038	1	30
380.209	1	39
380.379	1	27
380.550	1	28
380.721	1	43
380.892	1	28
381.063	1	37
381.233	1	34
381.404	1	23
381.575	1	46
381.746	1	32
381.917	1	35
382.087	1	42
382.258	1	31
382.429	1	39
382.600	1	37
382.771	1	35
382.941	1	25
383.112	1	29
383.283	1	30
383.454	1	36
383.625	1	29
383.795	1	28
383.966	1	40
384.137	1	43
384.308	1	29
384.479	1	33
384.649	1	48
384.820	1	37
384.991	1	36
385.162	1	43
385.333	1	39
385.503	1	38
385.674	1	25
385.845	1	35
386.016	1	38
386.187	1	45
386.357	1	32
386.528	1	37
386.699	1	30
386.870	1	35
387.041	1	48
387.211	1	39
387.382	1	30
387.553	1	35
387.724	1	29
387.894	1	36
388.065	1	34
388.236	1	39
388.407	1	45
388.578	1	33
388.748	1	27
388.919	1	59
389.090	1	33
389.261	1	32
389.431	1	42
389.602	1	39
389.773	1	43
389.944	1	44
390.114	1	44
390.285	1	48
390.456	1	27
390.627	1	46
390.798	1	46
390.968	1	27
391.139	1	47
391.310	1	33
391.481	1	40
391.651	1	38
391.822	1	26
391.993	1	45
392.164	1	25
392.334	1	40
392.505	1	32
392.676	1	48
392.847	1	48
393.017	1	47
393.188	1	34
393.359	1	41
393.530	1	38
393.700	1	43
393.871	1	40
394.042	1	38
394.213	1	29
394.383	1	27
394.554	1	43
394.725	1	41
394.896	1	32
395.066	1	48
395.237	1	47
395.408	1	40
395.579	1	43
395.749	1	38
395.920	1	41
396.091	1	42
396.262	1	37
396.432	1	41
396.603	1	47
396.774	1	52
396.945	1	55
397.115	1	47
397.286	1	41
397.457	1	48
397.627	1	49
397.798	1	42
397.969	1	37
398.140	1	35
398.310	1	43
398.481	1	52
398.652	1	42
398.823	1	30
398.993	1	32
399.164	1	42
399.335	1	48
399.505	1	49
399.676	1	47
399.847	1	35
400.018	1	42
400.188	1	41
400.359	1	48
400.530	1	39
400.700	1	50
400.871	1	40
401.042	1	45
401.213	1	45
401.383	1	42
401.554	1	53
401.725	1	40
401.895	1	38
402.066	1	54
402.237	1	53
402.408	1	43
402.578	1	35
402.749	1	54
402.920	1	36
403.090	1	41
403.261	1	43
403.432	1	47
403.603	1	44
403.773	1	50
403.944	1	56
404.115	1	50
404.285	1	56
404.456	1	43
404.627	1	39
404.797	1	35
404.968	1	32
405.139	1	32
405.310	1	50
405.480	1	40
405.651	1	41
405.822	1	54
405.992	1	38
406.163	1	48
406.334	1	42
406.504	1	37
406.675	1	51
406.846	1	43
407.016	1	54
407.187	1	42
407.358	1	31
407.528	1	34
407.699	1	38
407.870	1	36
408.041	1	49
408.211	1	66
408.382	1	41
408.553	1	42
408.723	1	46
408.894	1	49
409.065	1	43
409.235	1	47
409.406	1	49
409.577	1	38
409.747	1	55
409.918	1	47
410.089	1	46
410.259	1	42
410.430	1	42
410.601	1	50
410.771	1	42
410.942	1	52
411.113	1	56
411.283	1	39
411.454	1	43
411.625	1	44
411.795	1	49
411.966	1	50
412.137	1	43
412.307	1	37
412.478	1	35
412.649	1	48
412.819	1	35
412.990	1	44
413.161	1	57
413.331	1	32
413.502	1	44
413.672	1	36
413.843	1	40
414.014	1	45
414.184	1	44
414.355	1	47
414.526	1	44
414.696	1	56
414.867	1	51
415.038	1	36
415.208	1	49
415.379	1	43
415.550	1	43
415.720	1	41
415.891	1	43
416.062	1	46
416.232	1	44
416.403	1	50
416.573	1	40
416.744	1	38
416.915	1	48
417.085	1	41
417.256	1	42
417.427	1	43
417.597	1	37
417.768	1	35
417.939	1	49
418.109	1	51
418.280	1	45
418.450	1	41
418.621	1	35
418.792	1	39
418.962	1	48
419.133	1	53
419.304	1	43
419.474	1	38
419.645	1	43
419.815	1	36
419.986	1	45
420.157	1	45
420.327	1	37
420.498	1	54
420.669	1	41
420.839	1	60
421.010	1	48
421.180	1	48
421.351	1	45
421.522	1	39
421.692	1	43
421.863	1	51
422.033	1	48
422.204	1	45
422.375	1	41
422.545	1	49
422.716	1	41
422.886	1	39
423.057	1	49
423.228	1	47
423.398	1	35
423.569	1	50
423.740	1	37
423.910	1	23
424.081	1	47
424.251	1	40
424.422	1	45
424.593	1	30
424.763	1	37
424.934	1	46
425.104	1	38
425.275	1	43
425.445	1	42
425.616	1	45
425.787	1	33
425.957	1	46
426.128	1	57
426.298	1	46
426.469	1	30
426.640	1	35
426.810	1	44
426.981	1	39
427.151	1	42
427.322	1	45
427.493	1	46
427.663	1	36
427.834	1	39
428.004	1	48
428.175	1	39
428.345	1	33
428.516	1	30
428.687	1	40
428.857	1	33
429.028	1	34
429.198	1	44
429.369	1	46
429.540	1	45
429.710	1	31
429.881	1	32
430.051	1	45
430.222	1	41
430.392	1	30
430.563	1	48
430.734	1	40
430.904	1	50
431.075	1	48
431.245	1	30
431.416	1	43
431.586	1	38
431.757	1	41
431.927	1	40
432.098	1	39
432.269	1	44
432.439	1	36
432.610	1	36
432.780	1	51
432.951	1	38
433.121	1	36
433.292	1	46
433.462	1	50
433.633	1	39
433.804	1	43
433.974	1	38
434.145	1	56
434.315	1	31
434.486	1	30
434.656	1	41
434.827	1	37
434.997	1	47
435.168	1	39
435.339	1	50
435.509	1	36
435.680	1	39
435.850	1	35
436.021	1	44
436.191	1	35
436.362	1	43
436.532	1	40
436.703	1	33
436.873	1	42
437.044	1	23
437.214	1	38
437.385	1	33
437.556	1	40
437.726	1	57
437.897	1	46
438.067	1	32
438.238	1	40
438.408	1	33
438.579	1	37
438.749	1	26
438.920	1	30
439.090	1	39
439.261	1	26
439.431	1	47
439.602	1	37
439.772	1	33
439.943	1	43
440.113	1	35
440.284	1	47
440.455	1	32
440.625	1	37
440.796	1	42
440.966	1	43
441.137	1	32
441.307	1	31
441.478	1	50
441.648	1	33
441.819	1	38
441.989	1	39
442.160	1	47
442.330	1	41
442.501	1	42
442.671	1	29
442.842	1	19
443.012	1	26
443.183	1	43
443.353	1	29
443.524	1	37
443.694	1	49
443.865	1	35
444.035	1	42
444.206	1	32
444.376	1	25
444.547	1	44
444.717	1	29
444.888	1	34
445.058	1	47
445.229	1	29
445.399	1	35
445.570	1	37
445.740	1	25
445.911	1	30
446.081	1	33
446.252	1	35
446.422	1	37
446.593	1	29
446.763	1	30
446.934	1	36
447.104	1	35
447.275	1	36
447.445	1	31
447.616	1	43
447.786	1	35
447.957	1	25
448.127	1	30
448.298	1	43
448.468	1	21
448.639	1	38
448.809	1	33
448.979	1	28
449.150	1	37
449.320	1	40
449.491	1	35
449.661	1	29
449.832	1	26
450.002	1	31
450.173	1	36
450.343	1	32
450.514	1	26
450.684	1	35
450.855	1	44
451.025	1	31
451.196	1	29
451.366	1	26
451.537	1	22
451.707	1	22
451.878	1	31
452.048	1	30
452.218	1	35
452.389	1	38
452.559	1	25
452.730	1	32
452.900	1	41
453.071	1	14
453.241	1	24
453.412	1	28
453.582	1	26
453.753	1	28
453.923	1	30
454.093	1	28
454.264	1	37
454.434	1	22
454.605	1	26
454.775	1	20
454.946	1	28
455.116	1	24
455.287	1	20
455.457	1	18
455.628	1	29
455.798	1	32
455.968	1	32
456.139	1	32
456.309	1	19
456.480	1	21
456.650	1	27
456.821	1	20
456.991	1	34
457.161	1	28
457.332	1	32
457.502	1	16
457.673	1	36
457.843	1	35
458.014	1	23
458.184	1	35
458.355	1	36
458.525	1	26
458.695	1	33
458.866	1	29
459.036	1	24
459.207	1	29
459.377	1	31
459.548	1	29
459.718	1	19
459.888	1	28
460.059	1	32
460.229	1	28
460.400	1	30
460.570	1	28
460.740	1	25
460.911	1	25
461.081	1	30
461.252	1	22
461.422	1	30
461.593	1	24
461.763	1	26
461.933	1	37
462.104	1	18
462.274	1	21
462.445	1	29
462.615	1	21
462.785	1	27
462.956	1	22
463.126	1	34
463.297	1	15
463.467	1	30
463.638	1	29
463.808	1	20
463.978	1	17
464.149	1	13
464.319	1	20
464.490	1	38
464.660	1	25
464.830	1	26
465.001	1	26
465.171	1	28
465.342	1	25
465.512	1	20
465.682	1	29
465.853	1	36
466.023	1	21
466.194	1	31
466.364	1	32
466.534	1	18
466.705	1	27
466.875	1	14
467.045	1	16
467.216	1	32
467.386	1	13
467.557	1	22
467.727	1	24
467.897	1	20
468.068	1	30
468.238	1	25
468.409	1	15
468.579	1	37
468.749	1	15
468.920	1	11
469.090	1	23
469.260	1	20
469.431	1	20
469.601	1	23
469.772	1	10
469.942	1	25
470.112	1	30
470.283	1	24
470.453	1	28
470.623	1	19
470.794	1	12
470.964	1	30
471.135	1	25
471.305	1	20
471.475	1	20
471.646	1	7
471.816	1	16
471.986	1	20
472.157	1	27
472.327	1	12
472.497	1	15
472.668	1	6
472.838	1	13
473.009	1	21
473.179	1	16
473.349	1	10
473.520	1	20
473.690	1	17
473.860	1	22
474.031	1	14
474.201	1	17
474.371	1	18
474.542	1	19
474.712	1	17
474.882	1	23
475.053	1	25
475.223	1	8
475.394	1	23
475.564	1	18
475.734	1	21
475.905	1	27
476.075	1	15
476.245	1	22
476.416	1	19
476.586	1	22
476.756	1	24
476.927	1	24
477.097	1	24
477.267	1	15
477.438	1	22
477.608	1	6
477.778	1	18
477.949	1	23
478.119	1	27
478.289	1	20
478.460	1	25
478.630	1	15
478.800	1	27
478.971	1	20
479.141	1	12
479.311	1	10
479.482	1	13
479.652	1	20
479.822	1	17
479.993	1	23
480.163	1	22
480.333	1	14
480.504	1	16
480.674	1	21
480.844	1	10
481.015	1	18
481.185	1	7
481.355	1	24
481.525	1	27
481.696	1	25
481.866	1	23
482.036	1	24
482.207	1	17
482.377	1	15
482.547	1	19
482.718	1	15
482.888	1	26
483.058	1	13
483.229	1	3
483.399	1	8
483.569	1	20
483.740	1	17
483.910	1	20
484.080	1	7
484.250	1	10
484.421	1	12
484.591	1	17
484.761	1	29
484.932	1	15
485.102	1	26
485.272	1	21
485.443	1	13
485.613	1	16
485.783	1	15
485.953	1	10
486.124	1	23
486.294	1	14
486.464	1	7
486.635	1	22
486.805	1	28
486.975	1	18
487.146	1	22
487.316	1	21
487.486	1	26
487.656	1	13
487.827	1	7
487.997	1	-1
488.167	1	15
488.338	1	14
488.508	1	13
488.678	1	11
488.848	1	26
489.019	1	5
489.189	1	20
489.359	1	9
489.529	1	22
489.700	1	19
489.870	1	25
490.040	1	13
490.211	1	5
490.381	1	24
490.551	1	16
490.721	1	20
490.892	1	12
491.062	1	15
491.232	1	16
491.402	1	-1
491.573	1	-4
491.743	1	19
491.913	1	17
492.084	1	16
492.254	1	10
492.424	1	12
492.594	1	20
492.765	1	10
492.935	1	13
493.105	1	22
493.275	1	13
493.446	1	29
493.616	1	15
493.786	1	18
493.956	1	8
494.127	1	14
494.297	1	8
494.467	1	4
494.637	1	13
494.808	1	6
494.978	1	12
495.148	1	9
495.318	1	3
495.489	1	26
495.659	1	22
495.829	1	6
495.999	1	11
496.170	1	16
496.340	1	4
496.510	1	21
496.680	1	4
496.851	1	11
497.021	1	10
497.191	1	4
497.361	1	13
497.532	1	12
497.702	1	12
497.872	1	13
498.042	1	16
498.213	1	11
498.383	1	16
498.553	1	6
498.723	1	7
498.894	1	8
499.064	1	17
499.234	1	26
499.404	1	9
499.574	1	19
499.745	1	15
499.915	1	10
500.085	1	12
500.255	1	27
500.426	1	3
500.596	1	7
500.766	1	8
500.936	1	27
501.106	1	2
501.277	1	16
501.447	1	9
501.617	1	10
501.787	1	10
501.958	1	12
502.128	1	1
502.298	1	13
502.468	1	8
502.638	1	5
502.809	1	15
502.979	1	7
503.149	1	5
503.319	1	6
503.489	1	5
503.660	1	7
503.830	1	11
504.000	1	10
504.170	1	14
504.340	1	16
504.511	1	21
504.681	1	7
504.851	1	6
505.021	1	8
505.192	1	3
505.362	1	12
505.532	1	19
505.702	1	4
505.872	1	20
506.043	1	6
506.213	1	5
506.383	1	6
506.553	1	17
506.723	1	13
506.893	1	16
507.064	1	14
507.234	1	0
507.404	1	8
507.574	1	2
507.744	1	11
507.915	1	19
508.085	1	21
508.255	1	18
508.425	1	12
508.595	1	13
508.766	1	11
508.936	1	1
509.106	1	11
509.276	1	22
509.446	1	-7
509.616	1	9
509.787	1	5
509.957	1	13
510.127	1	10
510.297	1	19
510.467	1	3
510.638	1	7
510.808	1	7
510.978	1	-3
511.148	1	6
511.318	1	12
511.488	1	0
511.659	1	7
511.829	1	9
511.999	1	14
512.169	1	11
512.339	1	8
512.509	1	1
512.680	1	0
512.850	1	18
513.020	1	12
513.190	1	12
513.360	1	1
513.530	1	6
513.700	1	19
513.871	1	10
514.041	1	9
514.211	1	11
514.381	1	5
514.551	1	6
514.721	1	4
514.892	1	16
515.062	1	9
515.232	1	9
515.402	1	9
515.572	1	2
515.742	1	7
515.912	1	14
516.083	1	1
516.253	1	10
516.423	1	8
516.593	1	13
516.763	1	18
516.933	1	1
517.104	1	4
517.274	1	3
517.444	1	12
517.614	1	9
517.784	1	10
517.954	1	5
518.124	1	12
518.294	1	4
518.465	1	11
518.635	1	6
518.805	1	-1
518.975	1	15
519.145	1	-1
519.315	1	-1
519.485	1	2
519.656	1	9
519.826	1	14
519.996	1	-1
520.166	1	4
520.336	1	5
520.506	1	5
520.676	1	-11
520.846	1	13
521.017	1	9
521.187	1	13
521.357	1	15
521.527	1	-1
521.697	1	6
521.867	1	4
522.037	1	6
522.207	1	6
522.377	1	6
522.548	1	3
522.718	1	3
522.888	1	23
523.058	1	10
523.228	1	13
523.398	1	5
523.568	1	9
523.738	1	-5
523.909	1	15
524.079	1	7
524.249	1	2
524.419	1	1
524.589	1	3
524.759	1	5
524.929	1	11
525.099	1	7
525.269	1	10
525.439	1	4
525.610	1	16
525.780	1	13
525.950	1	10
526.120	1	3
526.290	1	8
526.460	1	0
526.630	1	6
526.800	1	2
526.970	1	2
527.140	1	10
527.311	1	1
527.481	1	1
527.651	1	13
527.821	1	1
527.991	1	16
528.161	1	13
528.331	1	5
528.501	1	11
528.671	1	1
528.841	1	9
529.011	1	3
529.181	1	10
529.352	1	8
529.522	1	8
529.692	1	11
529.862	1	-4
530.032	1	16
530.202	1	4
530.372	1	12
530.542	1	12
530.712	1	7
530.882	1	13
531.052	1	8
531.222	1	11
531.392	1	-7
531.563	1	11
531.733	1	10
531.903	1	4
532.073	1	9
532.243	1	0
532.413	1	15
532.583	1	6
532.753	1	7
532.923	1	4
533.093	1	13
533.263	1	11
533.433	1	6
533.603	1	4
533.773	1	-4
533.943	1	9
534.113	1	11
534.284	1	13
534.454	1	1
534.624	1	22
534.794	1	-1
534.964	1	3
535.134	1	10
535.304	1	6
535.474	1	23
535.644	1	-3
535.814	1	-1
535.984	1	-3
536.154	1	2
536.324	1	6
536.494	1	5
536.664	1	9
536.834	1	6
537.004	1	5
537.174	1	12
537.344	1	9
537.514	1	2
537.685	1	1
537.855	1	8
538.025	1	3
538.195	1	1
538.365	1	13
538.535	1	10
538.705	1	12
538.875	1	5
539.045	1	8
539.215	1	-4
539.385	1	9
539.555	1	13
539.725	1	2
539.895	1	7
540.065	1	15
540.235	1	13
540.405	1	-1
540.575	1	-1
540.745	1	6
540.915	1	9
541.085	1	8
541.255	1	-3
541.425	1	5
541.595	1	0
541.765	1	14
541.935	1	1
542.105	1	-1
542.275	1	9
542.445	1	3
542.615	1	10
542.785	1	3
542.955	1	6
543.125	1	-7
543.295	1	7
543.465	1	12
543.635	1	20
543.805	1	18
543.975	1	6
544.145	1	3
544.315	1	9
544.485	1	5
544.655	1	15
544.825	1	-9
544.995	1	1
545.165	1	-8
545.335	1	10
545.505	1	-3
545.675	1	10
545.845	1	15
546.015	1	10
546.185	1	9
546.355	1	11
546.525	1	4
546.695	1	4
546.865	1	-6
547.035	1	13
547.205	1	-1
547.375	1	11
547.545	1	7
547.715	1	0
547.885	1	5
548.055	1	1
548.225	1	5
548.395	1	0
548.565	1	8
548.735	1	10
548.905	1	-1
549.075	1	2
549.245	1	4
549.415	1	-3
549.585	1	10
549.755	1	12
549.925	1	-4
550.095	1	5
550.265	1	7
550.435	1	-1
550.605	1	5
550.775	1	3
550.945	1	12
551.115	1	-3
551.285	1	12
551.455	1	0
551.625	1	13
551.795	1	2
551.965	1	3
552.135	1	2
552.305	1	2
552.475	1	-4
552.645	1	8
552.815	1	4
552.985	1	11
553.155	1	4
553.325	1	5
553.495	1	3
553.665	1	5
553.835	1	-3
554.004	1	4
554.174	1	0
554.344	1	11
554.514	1	4
554.684	1	8
554.854	1	8
555.024	1	-4
555.194	1	4
555.364	1	8
555.534	1	2
555.704	1	-2
555.874	1	7
556.044	1	5
556.214	1	4
556.384	1	-4
556.554	1	15
556.724	1	12
556.894	1	1
557.064	1	10
557.234	1	0
557.404	1	11
557.573	1	6
557.743	1	1
557.913	1	-8
558.083	1	0
558.253	1	10
558.423	1	9
558.593	1	11
558.763	1	9
558.933	1	2
559.103	1	10
559.273	1	2
559.443	1	7
559.613	1	16
559.783	1	4
559.953	1	3
560.122	1	2
560.292	1	7
560.462	1	8
560.632	1	5
560.802	1	6
560.972	1	-2
561.142	1	10
561.312	1	-6
561.482	1	4
561.652	1	3
561.822	1	7
561.992	1	-3
562.162	1	7
562.331	1	-7
562.501	1	-4
562.671	1	8
562.841	1	-7
563.011	1	2
563.181	1	-4
563.351	1	-4
563.521	1	11
563.691	1	-8
563.861	1	7
564.031	1	7
564.201	1	9
564.370	1	-2
564.540	1	5
564.710	1	-3
564.880	1	9
565.050	1	11
565.220	1	3
565.390	1	2
565.560	1	9
565.730	1	1
565.900	1	6
566.069	1	15
566.239	1	3
566.409	1	4
566.579	1	7
566.749	1	2
566.919	1	5
567.089	1	5
567.259	1	12
567.429	1	3
567.599	1	-1
567.768	1	0
567.938	1	6
568.108	1	-3
568.278	1	9
568.448	1	-5
568.618	1	-4
568.788	1	14
568.958	1	3
569.128	1	6
569.297	1	3
569.467	1	-2
569.637	1	11
569.807	1	6
569.977	1	9
570.147	1	9
570.317	1	-2
570.487	1	-5
570.656	1	12
570.826	1	2
570.996	1	-5
571.166	1	6
571.336	1	3
571.506	1	10
571.676	1	6
571.846	1	14
572.015	1	2
572.185	1	9
572.355	1	0
572.525	1	10
572.695	1	-5
572.865	1	-4
573.035	1	0
573.205	1	7
573.374	1	-1
573.544	1	3
573.714	1	11
573.884	1	7
574.054	1	11
574.224	1	0
574.394	1	1
574.563	1	-6
574.733	1	-2
574.903	1	-4
575.073	1	-2
575.243	1	2
575.413	1	15
575.583	1	3
575.752	1	3
575.922	1	0
576.092	1	5
576.262	1	11
576.432	1	3
576.602	1	-7
576.772	1	18
576.941	1	1
577.111	1	-4
577.281	1	-8
577.451	1	7
577.621	1	9
577.791	1	2
577.960	1	-12
578.130	1	5
578.300	1	1
578.470	1	5
578.640	1	7
578.810	1	6
578.979	1	-5
579.149	1	1
579.319	1	2
579.489	1	-2
579.659	1	2
579.829	1	-2
579.998	1	10
580.168	1	12
580.338	1	11
580.508	1	-6
580.678	1	9
580.848	1	4
581.017	1	7
581.187	1	6
581.357	1	-14
581.527	1	2
581.697	1	12
581.867	1	0
582.036	1	6
582.206	1	9
582.376	1	12
582.546	1	-4
582.716	1	-6
582.885	1	-8
583.055	1	7
583.225	1	-8
583.395	1	3
583.565	1	-3
583.735	1	5
583.904	1	8
584.074	1	4
584.244	1	6
584.414	1	3
584.584	1	2
584.753	1	-1
584.923	1	3
585.093	1	3
585.263	1	3
585.433	1	2
585.602	1	-9
585.772	1	-1
585.942	1	3
586.112	1	4
586.282	1	0
586.451	1	-4
586.621	1	-6
586.791	1	8
586.961	1	4
587.131	1	7
587.300	1	0
587.470	1	12
587.640	1	9
587.810	1	-4
587.980	1	2
588.149	1	0
588.319	1	6
588.489	1	1
588.659	1	11
588.829	1	0
588.998	1	14
589.168	1	5
589.338	1	8
589.508	1	15
589.677	1	-3
589.847	1	-4
590.017	1	11
590.187	1	-5
590.357	1	13
590.526	1	18
590.696	1	4
590.866	1	7
591.036	1	4
591.205	1	14
591.375	1	-2
591.545	1	2
591.715	1	10
591.885	1	-4
592.054	1	-1
592.224	1	4
592.394	1	1
592.564	1	1
592.733	1	16
592.903	1	6
593.073	1	3
593.243	1	4
593.412	1	9
593.582	1	-4
593.752	1	7
593.922	1	10
594.091	1	-3
594.261	1	2
594.431	1	7
594.601	1	13
594.771	1	10
594.940	1	-5
595.110	1	-4
595.280	1	5
595.450	1	-4
595.619	1	0
595.789	1	-2
595.959	1	5
596.129	1	-1
596.298	1	-1
596.468	1	3
596.638	1	3
596.808	1	9
596.977	1	-6
597.147	1	-1
597.317	1	-8
597.487	1	10
597.656	1	0
597.826	1	7
597.996	1	10
598.166	1	5
598.335	1	-4
598.505	1	6
598.675	1	10
598.844	1	9
599.014	1	6
599.184	1	6
599.354	1	-9
599.523	1	10
599.693	1	-3
599.863	1	10
600.033	1	-4
600.202	1	9
600.372	1	7
600.542	1	2
600.712	1	0
600.881	1	-5
601.051	1	13
601.221	1	13
601.390	1	2
601.560	1	8
601.730	1	14
601.900	1	5
602.069	1	6
602.239	1	7
602.409	1	-6
602.578	1	5
602.748	1	-1
602.918	1	11
603.088	1	3
603.257	1	13
603.427	1	6
603.597	1	6
603.767	1	-3
603.936	1	7
604.106	1	7
604.276	1	0
604.445	1	12
604.615	1	-3
604.785	1	8
604.954	1	5
605.124	1	0
605.294	1	1
605.464	1	1
605.633	1	1
605.803	1	8
605.973	1	2
606.142	1	3
606.312	1	3
606.482	1	8
606.652	1	17
606.821	1	-6
606.991	1	5
607.161	1	-6
607.330	1	9
607.500	1	6
607.670	1	-5
607.839	1	7
608.009	1	13
608.179	1	6
608.348	1	3
608.518	1	0
608.688	1	6
608.858	1	-1
609.027	1	2
609.197	1	11
609.367	1	8
609.536	1	9
609.706	1	2
609.876	1	-1
610.045	1	8
610.215	1	5
610.385	1	4
610.554	1	9
610.724	1	13
610.894	1	10
611.063	1	5
611.233	1	1
611.403	1	-1
611.572	1	1
611.742	1	9
611.912	1	-6
612.081	1	1
612.251	1	5
612.421	1	-3
612.590	1	-3
612.760	1	1
612.930	1	-1
613.099	1	1
613.269	1	11
613.439	1	6
613.608	1	0
613.778	1	18
613.948	1	4
614.117	1	4
614.287	1	12
614.457	1	6
614.626	1	7
614.796	1	8
614.966	1	-2
615.135	1	5
615.305	1	11
615.475	1	-1
615.644	1	0
615.814	1	2
615.984	1	2
616.153	1	4
616.323	1	8
616.493	1	9
616.662	1	11
616.832	1	5
617.002	1	4
617.171	1	3
617.341	1	-1
617.511	1	-3
617.680	1	6
617.850	1	-2
618.019	1	13
618.189	1	14
618.359	1	7
618.528	1	5
618.698	1	8
618.868	1	-4
619.037	1	-3
619.207	1	2
619.377	1	2
619.546	1	-5
619.716	1	-3
619.885	1	7
620.055	1	-7
620.225	1	3
620.394	1	-3
620.564	1	10
620.734	1	5
620.903	1	-5
621.073	1	4
621.242	1	5
621.412	1	2
621.582	1	8
621.751	1	14
621.921	1	15
622.091	1	-5
622.260	1	6
622.430	1	12
622.599	1	6
622.769	1	6
622.939	1	10
623.108	1	6
623.278	1	1
623.448	1	-4
623.617	1	1
623.787	1	2
623.956	1	4
624.126	1	8
624.296	1	1
624.465	1	2
624.635	1	7
624.804	1	2
624.974	1	1
625.144	1	17
625.313	1	-2
625.483	1	8
625.652	1	0
625.822	1	4
625.992	1	8
626.161	1	10
626.331	1	0
626.501	1	-3
626.670	1	6
626.840	1	2
627.009	1	1
627.179	1	8
627.348	1	8
627.518	1	4
627.688	1	10
627.857	1	13
628.027	1	-3
628.196	1	0
628.366	1	14
628.536	1	3
628.705	1	-4
628.875	1	6
629.044	1	9
629.214	1	5
629.384	1	5
629.553	1	14
629.723	1	6
629.892	1	17
630.062	1	6
630.232	1	-4
630.401	1	16
630.571	1	14
630.740	1	12
630.910	1	7
631.079	1	10
631.249	1	2
631.419	1	5
631.588	1	-3
631.758	1	6
631.927	1	-4
632.097	1	0
632.266	1	5
632.436	1	15
632.606	1	5
632.775	1	11
632.945	1	8
633.114	1	7
633.284	1	13
633.453	1	3
633.623	1	-5
633.793	1	3
633.962	1	3
634.132	1	-5
634.301	1	0
634.471	1	15
634.640	1	5
634.810	1	8
634.979	1	4
635.149	1	12
635.319	1	9
635.488	1	5
635.658	1	1
635.827	1	1
635.997	1	5
636.166	1	-4
636.336	1	-3
636.505	1	9
636.675	1	3
636.845	1	7
637.014	1	9
637.184	1	12
637.353	1	8
637.523	1	3
637.692	1	4
637.862	1	6
638.031	1	4
638.201	1	5
638.370	1	2
638.540	1	3
638.710	1	7
638.879	1	0
639.049	1	9
639.218	1	-1
639.388	1	-4
639.557	1	3
639.727	1	2
639.896	1	3
640.066	1	-3
640.235	1	16
640.405	1	16
640.574	1	1
640.744	1	2
640.914	1	2
641.083	1	4
641.253	1	1
641.422	1	15
641.592	1	14
641.761	1	-5
641.931	1	5
642.100	1	20
642.270	1	5
642.439	1	9
642.609	1	9
642.778	1	8
642.948	1	0
643.117	1	6
643.287	1	5
643.456	1	2
643.626	1	14
643.795	1	2
643.965	1	-1
644.134	1	-1
644.304	1	6
644.473	1	6
644.643	1	21
644.812	1	2
644.982	1	7
645.151	1	5
645.321	1	-7
645.490	1	17
645.660	1	-3
645.829	1	7
645.999	1	2
646.168	1	10
646.338	1	8
646.507	1	2
646.677	1	2
646.846	1	5
647.016	1	-2
647.185	1	13
647.355	1	-3
647.524	1	15
647.694	1	7
647.863	1	8
648.033	1	12
648.202	1	12
648.372	1	-1
648.541	1	0
648.711	1	5
648.880	1	2
649.050	1	-3
649.219	1	12
649.389	1	17
649.558	1	13
649.728	1	5
649.897	1	3
650.067	1	11
650.236	1	13
650.406	1	11
650.575	1	21
650.745	1	11
650.914	1	0
651.084	1	-1
651.253	1	10
651.423	1	2
651.592	1	9
651.762	1	0
651.931	1	15
652.101	1	10
652.270	1	11
652.440	1	19
652.609	1	5
652.778	1	4
652.948	1	20
653.117	1	2
653.287	1	1
653.456	1	0
653.626	1	6
653.795	1	3
653.965	1	8
654.134	1	15
654.304	1	-3
654.473	1	10
654.643	1	10
654.812	1	2
654.982	1	17
655.151	1	12
655.320	1	5
655.490	1	9
655.659	1	18
655.829	1	6
655.998	1	-4
656.168	1	4
656.337	1	9
656.507	1	11
656.676	1	1
656.846	1	26
657.015	1	13
657.184	1	13
657.354	1	4
657.523	1	5
657.693	1	18
657.862	1	7
658.032	1	7
658.201	1	4
658.371	1	15
658.540	1	5
658.709	1	12
658.879	1	13
659.048	1	6
659.218	1	12
659.387	1	-2
659.557	1	7
659.726	1	6
659.895	1	4
660.065	1	-3
660.234	1	7
660.404	1	3
660.573	1	4
660.743	1	15
660.912	1	9
661.081	1	15
661.251	1	2
661.420	1	5
661.590	1	12
661.759	1	10
661.929	1	9
662.098	1	11
662.267	1	14
662.437	1	20
662.606	1	10
662.776	1	16
662.945	1	9
663.115	1	9
663.284	1	8
663.453	1	14
663.623	1	11
663.792	1	10
663.962	1	10
664.131	1	9
664.300	1	21
664.470	1	-1
664.639	1	7
664.809	1	14
664.978	1	19
665.148	1	10
665.317	1	7
665.486	1	14
665.656	1	9
665.825	1	7
665.995	1	8
666.164	1	2
666.333	1	6
666.503	1	3
666.672	1	7
666.842	1	0
667.011	1	10
667.180	1	13
667.350	1	18
667.519	1	6
667.689	1	9
667.858	1	6
668.027	1	10
668.197	1	5
668.366	1	-2
668.536	1	10
668.705	1	4
668.874	1	16
669.044	1	15
669.213	1	17
669.382	1	3
669.552	1	18
669.721	1	19
669.891	1	9
670.060	1	11
670.229	1	15
670.399	1	8
670.568	1	21
670.738	1	14
670.907	1	2
671.076	1	-10
671.246	1	9
671.415	1	12
671.584	1	-1
671.754	1	1
671.923	1	8
672.093	1	9
672.262	1	5
672.431	1	5
672.601	1	14
672.770	1	-2
672.939	1	14
673.109	1	8
673.278	1	13
673.448	1	2
673.617	1	10
673.786	1	8
