325.333	1	10
325.504	1	2
325.675	1	11
325.846	1	3
326.017	1	10
326.188	1	15
326.359	1	1
326.531	1	-8
326.702	1	0
326.873	1	3
327.044	1	2
327.215	1	6
327.386	1	4
327.557	1	2
327.728	1	2
327.899	1	6
328.070	1	23
328.241	1	3
328.412	1	-7
328.583	1	1
328.754	1	2
328.926	1	9
329.097	1	6
329.268	1	11
329.439	1	0
329.610	1	4
329.781	1	-6
329.952	1	12
330.123	1	11
330.294	1	3
330.465	1	5
330.636	1	18
330.807	1	-5
330.978	1	-1
331.149	1	-2
331.320	1	4
331.492	1	7
331.663	1	5
331.834	1	16
332.005	1	5
332.176	1	18
332.347	1	15
332.518	1	-3
332.689	1	8
332.860	1	6
333.031	1	16
333.202	1	2
333.373	1	5
333.544	1	12
333.715	1	6
333.886	1	2
334.057	1	3
334.228	1	-3
334.399	1	5
334.570	1	11
334.741	1	-1
334.912	1	0
335.084	1	23
335.255	1	11
335.426	1	-1
335.597	1	1
335.768	1	14
335.939	1	7
336.110	1	5
336.281	1	-4
336.452	1	5
336.623	1	1
336.794	1	7
336.965	1	7
337.136	1	14
337.307	1	2
337.478	1	-9
337.649	1	3
337.820	1	3
337.991	1	6
338.162	1	7
338.333	1	4
338.504	1	6
338.675	1	6
338.846	1	11
339.017	1	2
339.188	1	0
339.359	1	-7
339.530	1	9
339.701	1	5
339.872	1	17
340.043	1	-7
340.214	1	-1
340.385	1	13
340.556	1	-1
340.727	1	14
340.898	1	11
341.069	1	1
341.240	1	6
341.411	1	11
341.582	1	18
341.753	1	-1
341.924	1	0
342.095	1	7
342.266	1	13
342.437	1	8
342.608	1	7
342.779	1	8
342.950	1	10
343.121	1	15
343.292	1	16
343.463	1	8
343.634	1	4
343.805	1	15
343.976	1	9
344.147	1	5
344.318	1	1
344.489	1	3
344.660	1	12
344.831	1	11
345.002	1	-1
345.173	1	9
345.344	1	5
345.515	1	8
345.686	1	16
345.857	1	11
346.028	1	6
346.199	1	6
346.370	1	4
346.541	1	11
346.712	1	1
346.883	1	13
347.054	1	1
347.225	1	12
347.396	1	6
347.567	1	8
347.738	1	-7
347.909	1	18
348.080	1	6
348.251	1	14
348.422	1	16
348.593	1	4
348.764	1	10
348.935	1	13
349.106	1	4
349.277	1	6
349.448	1	17
349.619	1	7
349.790	1	13
349.961	1	15
350.132	1	11
350.303	1	12
350.474	1	14
350.645	1	10
350.816	1	6
350.987	1	16
351.157	1	8
351.328	1	14
351.499	1	10
351.670	1	9
351.841	1	14
352.012	1	12
352.183	1	27
352.354	1	23
352.525	1	17
352.696	1	13
352.867	1	16
353.038	1	22
353.209	1	17
353.380	1	14
353.551	1	11
353.722	1	10
353.893	1	13
354.064	1	20
354.235	1	11
354.406	1	3
354.576	1	12
354.747	1	8
354.918	1	11
355.089	1	9
355.260	1	16
355.431	1	17
355.602	1	7
355.773	1	15
355.944	1	9
356.115	1	11
356.286	1	11
356.457	1	13
356.628	1	15
356.799	1	17
356.970	1	27
357.141	1	4
357.311	1	5
357.482	1	8
357.653	1	19
357.824	1	21
357.995	1	8
358.166	1	13
358.337	1	11
358.508	1	17
358.679	1	20
358.850	1	13
359.021	1	7
359.192	1	16
359.363	1	11
359.533	1	17
359.704	1	12
359.875	1	19
360.046	1	17
360.217	1	4
360.388	1	12
360.559	1	15
360.730	1	5
360.901	1	11
361.072	1	19
361.243	1	23
361.414	1	8
361.584	1	12
361.755	1	20
361.926	1	11
362.097	1	17
362.268	1	7
362.439	1	0
362.610	1	18
362.781	1	9
362.952	1	3
363.123	1	8
363.293	1	6
363.464	1	23
363.635	1	25
363.806	1	5
363.977	1	17
364.148	1	10
364.319	1	20
364.490	1	17
364.661	1	10
364.832	1	15
365.002	1	18
365.173	1	7
365.344	1	27
365.515	1	17
365.686	1	7
365.857	1	21
366.028	1	12
366.199	1	3
366.370	1	18
366.540	1	4
366.711	1	2
366.882	1	-2
367.053	1	11
367.224	1	21
367.395	1	11
367.566	1	24
367.737	1	13
367.908	1	18
368.078	1	15
368.249	1	25
368.420	1	3
368.591	1	10
368.762	1	19
368.933	1	3
369.104	1	2
369.274	1	9
369.445	1	5
369.616	1	10
369.787	1	16
369.958	1	17
370.129	1	4
370.300	1	14
370.471	1	14
370.641	1	16
370.812	1	13
370.983	1	15
371.154	1	14
371.325	1	15
371.496	1	22
371.667	1	16
371.837	1	23
372.008	1	12
372.179	1	8
372.350	1	18
372.521	1	10
372.692	1	19
372.863	1	21
373.033	1	5
373.204	1	12
373.375	1	19
373.546	1	7
373.717	1	24
373.888	1	27
374.059	1	23
374.229	1	23
374.400	1	13
374.571	1	22
374.742	1	24
374.913	1	19
375.084	1	18
375.254	1	20
375.425	1	23
375.596	1	22
375.767	1	24
375.938	1	22
376.109	1	23
376.279	1	14
376.450	1	25
376.621	1	19
376.792	1	9
376.963	1	16
377.134	1	19
377.304	1	23
377.475	1	8
377.646	1	16
377.817	1	16
377.988	1	8
378.159	1	16
378.329	1	29
378.500	1	12
378.671	1	11
378.842	1	14
379.013	1	14
379.184	1	17
379.354	1	25
379.525	1	16
379.696	1	29
379.867	1	16
380.038	1	16
380.209	1	15
380.379	1	7
380.550	1	3
380.721	1	27
380.892	1	19
381.063	1	17
381.233	1	11
381.404	1	14
381.575	1	23
381.746	1	16
381.917	1	17
382.087	1	24
382.258	1	13
382.429	1	26
382.600	1	18
382.771	1	16
382.941	1	16
383.112	1	17
383.283	1	21
383.454	1	18
383.625	1	10
383.795	1	20
383.966	1	17
384.137	1	24
384.308	1	20
384.479	1	21
384.649	1	21
384.820	1	19
384.991	1	16
385.162	1	15
385.333	1	13
385.503	1	23
385.674	1	8
385.845	1	27
386.016	1	20
386.187	1	18
386.357	1	31
386.528	1	29
386.699	1	22
386.870	1	26
387.041	1	23
387.211	1	15
387.382	1	27
387.553	1	19
387.724	1	16
387.894	1	28
388.065	1	17
388.236	1	23
388.407	1	18
388.578	1	19
388.748	1	12
388.919	1	30
389.090	1	20
389.261	1	22
389.431	1	28
389.602	1	20
389.773	1	18
389.944	1	23
390.114	1	23
390.285	1	17
390.456	1	10
390.627	1	19
390.798	1	22
390.968	1	17
391.139	1	27
391.310	1	16
391.481	1	27
391.651	1	18
391.822	1	12
391.993	1	15
392.164	1	11
392.334	1	20
392.505	1	12
392.676	1	30
392.847	1	28
393.017	1	21
393.188	1	27
393.359	1	13
393.530	1	24
393.700	1	23
393.871	1	17
394.042	1	24
394.213	1	11
394.383	1	23
394.554	1	22
394.725	1	36
394.896	1	15
395.066	1	23
395.237	1	15
395.408	1	17
395.579	1	15
395.749	1	22
395.920	1	15
396.091	1	27
396.262	1	21
396.432	1	16
396.603	1	32
396.774	1	27
396.945	1	26
397.115	1	24
397.286	1	29
397.457	1	20
397.627	1	22
397.798	1	32
397.969	1	17
398.140	1	24
398.310	1	30
398.481	1	22
398.652	1	20
398.823	1	24
398.993	1	12
399.164	1	20
399.335	1	47
399.505	1	34
399.676	1	19
399.847	1	28
400.018	1	21
400.188	1	18
400.359	1	22
400.530	1	18
400.700	1	25
400.871	1	11
401.042	1	16
401.213	1	22
401.383	1	23
401.554	1	29
401.725	1	40
401.895	1	19
402.066	1	28
402.237	1	32
402.408	1	24
402.578	1	22
402.749	1	26
402.920	1	24
403.090	1	11
403.261	1	20
403.432	1	22
403.603	1	20
403.773	1	25
403.944	1	19
404.115	1	24
404.285	1	23
404.456	1	16
404.627	1	13
404.797	1	13
404.968	1	20
405.139	1	15
405.310	1	37
405.480	1	21
405.651	1	30
405.822	1	9
405.992	1	20
406.163	1	27
406.334	1	12
406.504	1	16
406.675	1	21
406.846	1	21
407.016	1	33
407.187	1	34
407.358	1	17
407.528	1	12
407.699	1	9
407.870	1	15
408.041	1	17
408.211	1	32
408.382	1	22
408.553	1	23
408.723	1	22
408.894	1	18
409.065	1	30
409.235	1	17
409.406	1	23
409.577	1	20
409.747	1	34
409.918	1	21
410.089	1	18
410.259	1	20
410.430	1	21
410.601	1	23
410.771	1	23
410.942	1	29
411.113	1	26
411.283	1	19
411.454	1	25
411.625	1	21
411.795	1	32
411.966	1	22
412.137	1	31
412.307	1	28
412.478	1	24
412.649	1	37
412.819	1	32
412.990	1	17
413.161	1	28
413.331	1	17
413.502	1	28
413.672	1	23
413.843	1	22
414.014	1	20
414.184	1	26
414.355	1	20
414.526	1	29
414.696	1	29
414.867	1	28
415.038	1	14
415.208	1	24
415.379	1	31
415.550	1	28
415.720	1	9
415.891	1	27
416.062	1	21
416.232	1	14
416.403	1	24
416.573	1	25
416.744	1	12
416.915	1	27
417.085	1	26
417.256	1	17
417.427	1	21
417.597	1	18
417.768	1	22
417.939	1	29
418.109	1	23
418.280	1	25
418.450	1	22
418.621	1	5
418.792	1	23
418.962	1	26
419.133	1	26
419.304	1	19
419.474	1	17
419.645	1	24
419.815	1	17
419.986	1	24
420.157	1	22
420.327	1	22
420.498	1	21
420.669	1	18
420.839	1	18
421.010	1	25
421.180	1	23
421.351	1	25
421.522	1	23
421.692	1	25
421.863	1	21
422.033	1	30
422.204	1	29
422.375	1	14
422.545	1	26
422.716	1	10
422.886	1	26
423.057	1	34
423.228	1	17
423.398	1	18
423.569	1	32
423.740	1	12
423.910	1	18
424.081	1	14
424.251	1	30
424.422	1	26
424.593	1	27
424.763	1	31
424.934	1	24
425.104	1	28
425.275	1	18
425.445	1	15
425.616	1	17
425.787	1	14
425.957	1	27
426.128	1	32
426.298	1	23
426.469	1	10
426.640	1	26
426.810	1	21
426.981	1	19
427.151	1	18
427.322	1	30
427.493	1	21
427.663	1	17
427.834	1	15
428.004	1	28
428.175	1	23
428.345	1	12
428.516	1	15
428.687	1	21
428.857	1	8
429.028	1	16
429.198	1	19
429.369	1	30
429.540	1	20
429.710	1	16
429.881	1	13
430.051	1	26
430.222	1	7
430.392	1	14
430.563	1	28
430.734	1	31
430.904	1	31
431.075	1	22
431.245	1	13
431.416	1	21
431.586	1	10
431.757	1	30
431.927	1	19
432.098	1	18
432.269	1	12
432.439	1	21
432.610	1	11
432.780	1	30
432.951	1	18
433.121	1	28
433.292	1	32
433.462	1	14
433.633	1	26
433.804	1	15
433.974	1	29
434.145	1	27
434.315	1	19
434.486	1	5
434.656	1	23
434.827	1	13
434.997	1	14
435.168	1	28
435.339	1	30
435.509	1	23
435.680	1	19
435.850	1	23
436.021	1	20
436.191	1	23
436.362	1	28
436.532	1	23
436.703	1	22
436.873	1	31
437.044	1	6
437.214	1	16
437.385	1	17
437.556	1	20
437.726	1	30
437.897	1	33
438.067	1	22
438.238	1	26
438.408	1	24
438.579	1	22
438.749	1	15
438.920	1	16
439.090	1	12
439.261	1	16
439.431	1	19
439.602	1	25
439.772	1	20
439.943	1	31
440.113	1	32
440.284	1	18
440.455	1	20
440.625	1	18
440.796	1	21
440.966	1	10
441.137	1	21
441.307	1	11
441.478	1	28
441.648	1	21
441.819	1	29
441.989	1	25
442.160	1	29
442.330	1	27
442.501	1	14
442.671	1	20
442.842	1	7
443.012	1	21
443.183	1	24
443.353	1	13
443.524	1	18
443.694	1	21
443.865	1	17
444.035	1	20
444.206	1	21
444.376	1	5
444.547	1	32
444.717	1	25
444.888	1	19
445.058	1	25
445.229	1	20
445.399	1	9
445.570	1	17
445.740	1	19
445.911	1	11
446.081	1	15
446.252	1	23
446.422	1	9
446.593	1	14
446.763	1	15
446.934	1	14
447.104	1	16
447.275	1	14
447.445	1	20
447.616	1	23
447.786	1	12
447.957	1	13
448.127	1	18
448.298	1	13
448.468	1	16
448.639	1	12
448.809	1	21
448.979	1	13
449.150	1	13
449.320	1	12
449.491	1	26
449.661	1	13
449.832	1	13
450.002	1	22
450.173	1	17
450.343	1	22
450.514	1	19
450.684	1	18
450.855	1	26
451.025	1	11
451.196	1	18
451.366	1	9
451.537	1	15
451.707	1	4
451.878	1	16
452.048	1	24
452.218	1	31
452.389	1	26
452.559	1	20
452.730	1	22
452.900	1	22
453.071	1	4
453.241	1	24
453.412	1	15
453.582	1	16
453.753	1	19
453.923	1	18
454.093	1	19
454.264	1	33
454.434	1	15
454.605	1	26
454.775	1	9
454.946	1	12
455.116	1	6
455.287	1	7
455.457	1	7
455.628	1	9
455.798	1	20
455.968	1	23
456.139	1	18
456.309	1	14
456.480	1	12
456.650	1	10
456.821	1	17
456.991	1	18
457.161	1	10
457.332	1	19
457.502	1	13
457.673	1	18
457.843	1	23
458.014	1	10
458.184	1	17
458.355	1	16
458.525	1	19
458.695	1	13
458.866	1	12
459.036	1	14
459.207	1	8
459.377	1	5
459.548	1	18
459.718	1	14
459.888	1	18
460.059	1	20
460.229	1	19
460.400	1	27
460.570	1	18
460.740	1	15
460.911	1	10
461.081	1	11
461.252	1	8
461.422	1	15
461.593	1	18
461.763	1	18
461.933	1	21
462.104	1	11
462.274	1	15
462.445	1	23
462.615	1	20
462.785	1	19
462.956	1	8
463.126	1	17
463.297	1	12
463.467	1	16
463.638	1	16
463.808	1	11
463.978	1	15
464.149	1	14
464.319	1	8
464.490	1	31
464.660	1	8
464.830	1	12
465.001	1	10
465.171	1	15
465.342	1	21
465.512	1	0
465.682	1	8
465.853	1	22
466.023	1	10
466.194	1	7
466.364	1	20
466.534	1	15
466.705	1	10
466.875	1	9
467.045	1	7
467.216	1	24
467.386	1	12
467.557	1	16
467.727	1	5
467.897	1	9
468.068	1	11
468.238	1	18
468.409	1	11
468.579	1	17
468.749	1	9
468.920	1	12
469.090	1	21
469.260	1	18
469.431	1	11
469.601	1	23
469.772	1	18
469.942	1	1
470.112	1	10
470.283	1	10
470.453	1	9
470.623	1	8
470.794	1	7
470.964	1	15
471.135	1	21
471.305	1	6
471.475	1	13
471.646	1	4
471.816	1	16
471.986	1	13
472.157	1	17
472.327	1	3
472.497	1	22
472.668	1	5
472.838	1	13
473.009	1	13
473.179	1	7
473.349	1	8
473.520	1	12
473.690	1	6
473.860	1	15
474.031	1	13
474.201	1	19
474.371	1	26
474.542	1	11
474.712	1	10
474.882	1	12
475.053	1	16
475.223	1	8
475.394	1	10
475.564	1	12
475.734	1	12
475.905	1	20
476.075	1	8
476.245	1	18
476.416	1	13
476.586	1	11
476.756	1	8
476.927	1	17
477.097	1	18
477.267	1	8
477.438	1	12
477.608	1	17
477.778	1	1
477.949	1	7
478.119	1	20
478.289	1	22
478.460	1	19
478.630	1	9
478.800	1	16
478.971	1	17
479.141	1	6
479.311	1	7
479.482	1	7
479.652	1	5
479.822	1	7
479.993	1	10
480.163	1	16
480.333	1	13
480.504	1	20
480.674	1	9
480.844	1	5
481.015	1	18
481.185	1	-2
481.355	1	5
481.525	1	15
481.696	1	15
481.866	1	10
482.036	1	12
482.207	1	6
482.377	1	14
482.547	1	18
482.718	1	9
482.888	1	11
483.058	1	8
483.229	1	0
483.399	1	-4
483.569	1	5
483.740	1	11
483.910	1	12
484.080	1	14
484.250	1	8
484.421	1	7
484.591	1	17
484.761	1	16
484.932	1	15
485.102	1	22
485.272	1	18
485.443	1	18
485.613	1	15
485.783	1	14
485.953	1	15
486.124	1	16
486.294	1	19
486.464	1	8
486.635	1	12
486.805	1	17
486.975	1	10
487.146	1	9
487.316	1	8
487.486	1	2
487.656	1	7
487.827	1	7
487.997	1	7
488.167	1	6
488.338	1	22
488.508	1	8
488.678	1	7
488.848	1	19
489.019	1	10
489.189	1	9
489.359	1	1
489.529	1	12
489.700	1	1
489.870	1	19
490.040	1	1
490.211	1	-1
490.381	1	17
490.551	1	11
490.721	1	20
490.892	1	6
491.062	1	11
491.232	1	4
491.402	1	2
491.573	1	-6
491.743	1	10
491.913	1	4
492.084	1	23
492.254	1	7
492.424	1	9
492.594	1	10
492.765	1	13
492.935	1	4
493.105	1	16
493.275	1	10
493.446	1	11
493.616	1	14
493.786	1	12
493.956	1	2
494.127	1	12
494.297	1	6
494.467	1	14
494.637	1	8
494.808	1	4
494.978	1	4
495.148	1	5
495.318	1	8
495.489	1	9
495.659	1	15
495.829	1	8
495.999	1	6
496.170	1	7
496.340	1	6
496.510	1	11
496.680	1	-3
496.851	1	6
497.021	1	7
497.191	1	-2
497.361	1	11
497.532	1	4
497.702	1	12
497.872	1	5
498.042	1	9
498.213	1	-2
498.383	1	14
498.553	1	0
498.723	1	9
498.894	1	6
499.064	1	13
499.234	1	0
499.404	1	14
499.574	1	18
499.745	1	8
499.915	1	2
500.085	1	8
500.255	1	16
500.426	1	3
500.596	1	15
500.766	1	11
500.936	1	10
501.106	1	-3
501.277	1	8
501.447	1	-1
501.617	1	7
501.787	1	2
501.958	1	-2
502.128	1	8
502.298	1	8
502.468	1	6
502.638	1	6
502.809	1	12
502.979	1	0
503.149	1	-1
503.319	1	-7
503.489	1	6
503.660	1	10
503.830	1	8
504.000	1	14
504.170	1	7
504.340	1	1
504.511	1	9
504.681	1	8
504.851	1	4
505.021	1	0
505.192	1	2
505.362	1	17
505.532	1	2
505.702	1	2
505.872	1	3
506.043	1	3
506.213	1	2
506.383	1	-7
506.553	1	13
506.723	1	7
506.893	1	10
507.064	1	5
507.234	1	7
507.404	1	3
507.574	1	9
507.744	1	6
507.915	1	8
508.085	1	16
508.255	1	11
508.425	1	-1
508.595	1	2
508.766	1	2
508.936	1	0
509.106	1	14
509.276	1	9
509.446	1	1
509.616	1	2
509.787	1	12
509.957	1	9
510.127	1	10
510.297	1	-8
510.467	1	-2
510.638	1	5
510.808	1	2
510.978	1	3
511.148	1	7
511.318	1	5
511.488	1	-2
511.659	1	6
511.829	1	5
511.999	1	10
512.169	1	8
512.339	1	2
512.509	1	6
512.680	1	-3
512.850	1	10
513.020	1	3
513.190	1	5
513.360	1	5
513.530	1	4
513.700	1	13
513.871	1	6
514.041	1	2
514.211	1	8
514.381	1	-2
514.551	1	9
514.721	1	4
514.892	1	15
515.062	1	4
515.232	1	9
515.402	1	-4
515.572	1	4
515.742	1	-2
515.912	1	9
516.083	1	4
516.253	1	2
516.423	1	7
516.593	1	1
516.763	1	14
516.933	1	-6
517.104	1	2
517.274	1	4
517.444	1	4
517.614	1	-3
517.784	1	6
517.954	1	7
518.124	1	7
518.294	1	4
518.465	1	-2
518.635	1	5
518.805	1	-5
518.975	1	9
519.145	1	3
519.315	1	1
519.485	1	-6
519.656	1	13
519.826	1	7
519.996	1	0
520.166	1	5
520.336	1	12
520.506	1	7
520.676	1	-7
520.846	1	10
521.017	1	3
521.187	1	7
521.357	1	10
521.527	1	6
521.697	1	2
521.867	1	-2
522.037	1	8
522.207	1	8
522.377	1	6
522.548	1	0
522.718	1	5
522.888	1	24
523.058	1	6
523.228	1	12
523.398	1	-1
523.568	1	9
523.738	1	1
523.909	1	9
524.079	1	3
524.249	1	9
524.419	1	3
524.589	1	9
524.759	1	0
524.929	1	6
525.099	1	3
525.269	1	8
525.439	1	5
525.610	1	16
525.780	1	-2
525.950	1	9
526.120	1	8
526.290	1	4
526.460	1	-2
526.630	1	4
526.800	1	3
526.970	1	5
527.140	1	15
527.311	1	-3
527.481	1	-3
527.651	1	6
527.821	1	5
527.991	1	11
528.161	1	13
528.331	1	11
528.501	1	3
528.671	1	2
528.841	1	3
529.011	1	1
529.181	1	4
529.352	1	3
529.522	1	-2
529.692	1	4
529.862	1	2
530.032	1	8
530.202	1	2
530.372	1	-1
530.542	1	8
530.712	1	0
530.882	1	12
531.052	1	11
531.222	1	3
531.392	1	2
531.563	1	9
531.733	1	8
531.903	1	2
532.073	1	16
532.243	1	7
532.413	1	10
532.583	1	-2
532.753	1	0
532.923	1	4
533.093	1	11
533.263	1	2
533.433	1	3
533.603	1	10
533.773	1	4
533.943	1	3
534.113	1	1
534.284	1	-3
534.454	1	8
534.624	1	14
534.794	1	-1
534.964	1	8
535.134	1	6
535.304	1	2
535.474	1	18
535.644	1	-3
535.814	1	0
535.984	1	1
536.154	1	-2
536.324	1	-1
536.494	1	9
536.664	1	8
536.834	1	4
537.004	1	2
537.174	1	10
537.344	1	6
537.514	1	-9
537.685	1	-4
537.855	1	8
538.025	1	1
538.195	1	12
538.365	1	2
538.535	1	0
538.705	1	4
538.875	1	-4
539.045	1	7
539.215	1	-3
539.385	1	3
539.555	1	5
539.725	1	0
539.895	1	-4
540.065	1	14
540.235	1	12
540.405	1	3
540.575	1	8
540.745	1	12
540.915	1	10
541.085	1	4
541.255	1	-6
541.425	1	2
541.595	1	-2
541.765	1	1
541.935	1	9
542.105	1	-8
542.275	1	1
542.445	1	-11
542.615	1	3
542.785	1	-1
542.955	1	1
543.125	1	5
543.295	1	8
543.465	1	3
543.635	1	5
543.805	1	14
543.975	1	6
544.145	1	9
544.315	1	9
544.485	1	13
544.655	1	12
544.825	1	-9
544.995	1	1
545.165	1	-5
545.335	1	-2
545.505	1	0
545.675	1	5
545.845	1	6
546.015	1	9
546.185	1	5
546.355	1	11
546.525	1	7
546.695	1	7
546.865	1	-3
547.035	1	-1
547.205	1	-6
547.375	1	9
547.545	1	6
547.715	1	2
547.885	1	12
548.055	1	0
548.225	1	6
548.395	1	0
548.565	1	5
548.735	1	6
548.905	1	6
549.075	1	1
549.245	1	-1
549.415	1	-5
549.585	1	9
549.755	1	5
549.925	1	-10
550.095	1	4
550.265	1	-6
550.435	1	-4
550.605	1	1
550.775	1	2
550.945	1	13
551.115	1	4
551.285	1	11
551.455	1	3
551.625	1	9
551.795	1	7
551.965	1	-2
552.135	1	-2
552.305	1	1
552.475	1	-8
552.645	1	-2
552.815	1	0
552.985	1	3
553.155	1	-2
553.325	1	5
553.495	1	4
553.665	1	-4
553.835	1	-3
554.004	1	7
554.174	1	9
554.344	1	3
554.514	1	4
554.684	1	3
554.854	1	8
555.024	1	-9
555.194	1	-1
555.364	1	5
555.534	1	1
555.704	1	-1
555.874	1	11
556.044	1	7
556.214	1	-6
556.384	1	-10
556.554	1	9
556.724	1	4
556.894	1	-4
557.064	1	9
557.234	1	-6
557.404	1	19
557.573	1	6
557.743	1	7
557.913	1	-7
558.083	1	-4
558.253	1	12
558.423	1	2
558.593	1	7
558.763	1	0
558.933	1	8
559.103	1	8
559.273	1	2
559.443	1	5
559.613	1	8
559.783	1	-1
559.953	1	2
560.122	1	7
560.292	1	1
560.462	1	5
560.632	1	10
560.802	1	8
560.972	1	14
561.142	1	-1
561.312	1	-4
561.482	1	5
561.652	1	6
561.822	1	9
561.992	1	2
562.162	1	-2
562.331	1	-4
562.501	1	-6
562.671	1	7
562.841	1	-12
563.011	1	1
563.181	1	4
563.351	1	0
563.521	1	7
563.691	1	-11
563.861	1	2
564.031	1	5
564.201	1	14
564.370	1	0
564.540	1	5
564.710	1	-2
564.880	1	18
565.050	1	10
565.220	1	0
565.390	1	5
565.560	1	8
565.730	1	3
565.900	1	4
566.069	1	12
566.239	1	4
566.409	1	8
566.579	1	11
566.749	1	12
566.919	1	4
567.089	1	1
567.259	1	3
567.429	1	8
567.599	1	6
567.768	1	4
567.938	1	1
568.108	1	6
568.278	1	3
568.448	1	0
568.618	1	-2
568.788	1	3
568.958	1	4
569.128	1	7
569.297	1	5
569.467	1	-10
569.637	1	16
569.807	1	1
569.977	1	6
570.147	1	6
570.317	1	-10
570.487	1	-4
570.656	1	0
570.826	1	-7
570.996	1	-3
571.166	1	14
571.336	1	1
571.506	1	9
571.676	1	5
571.846	1	2
572.015	1	4
572.185	1	6
572.355	1	-1
572.525	1	4
572.695	1	-4
572.865	1	-5
573.035	1	5
573.205	1	5
573.374	1	6
573.544	1	-2
573.714	1	9
573.884	1	7
574.054	1	-4
574.224	1	0
574.394	1	-1
574.563	1	-7
574.733	1	-4
574.903	1	1
575.073	1	-2
575.243	1	-9
575.413	1	10
575.583	1	5
575.752	1	12
575.922	1	9
576.092	1	3
576.262	1	12
576.432	1	1
576.602	1	0
576.772	1	8
576.941	1	2
577.111	1	2
577.281	1	-4
577.451	1	-4
577.621	1	5
577.791	1	8
577.960	1	2
578.130	1	4
578.300	1	4
578.470	1	18
578.640	1	-6
578.810	1	12
578.979	1	7
579.149	1	-4
579.319	1	-7
579.489	1	5
579.659	1	3
579.829	1	6
579.998	1	9
580.168	1	5
580.338	1	7
580.508	1	3
580.678	1	0
580.848	1	2
581.017	1	-4
581.187	1	6
581.357	1	-12
581.527	1	-1
581.697	1	14
581.867	1	4
582.036	1	2
582.206	1	2
582.376	1	9
582.546	1	-2
582.716	1	-6
582.885	1	-11
583.055	1	-2
583.225	1	-6
583.395	1	6
583.565	1	-1
583.735	1	4
583.904	1	0
584.074	1	4
584.244	1	9
584.414	1	2
584.584	1	5
584.753	1	-5
584.923	1	2
585.093	1	8
585.263	1	-1
585.433	1	6
585.602	1	-10
585.772	1	-1
585.942	1	-3
586.112	1	3
586.282	1	2
586.451	1	-1
586.621	1	-2
586.791	1	-6
586.961	1	0
587.131	1	2
587.300	1	-7
587.470	1	7
587.640	1	6
587.810	1	-8
587.980	1	2
588.149	1	-4
588.319	1	-6
588.489	1	7
588.659	1	6
588.829	1	4
588.998	1	11
589.168	1	3
589.338	1	6
589.508	1	2
589.677	1	1
589.847	1	-12
590.017	1	19
590.187	1	-3
590.357	1	9
590.526	1	21
590.696	1	6
590.866	1	17
591.036	1	0
591.205	1	12
591.375	1	-10
591.545	1	-3
591.715	1	6
591.885	1	-1
592.054	1	8
592.224	1	2
592.394	1	-2
592.564	1	6
592.733	1	13
592.903	1	5
593.073	1	0
593.243	1	4
593.412	1	9
593.582	1	2
593.752	1	-6
593.922	1	8
594.091	1	-2
594.261	1	-7
594.431	1	8
594.601	1	9
594.771	1	12
594.940	1	-2
595.110	1	-3
595.280	1	0
595.450	1	-8
595.619	1	-1
595.789	1	3
595.959	1	12
596.129	1	0
596.298	1	3
596.468	1	10
596.638	1	8
596.808	1	2
596.977	1	5
597.147	1	3
597.317	1	-7
597.487	1	12
597.656	1	0
597.826	1	8
597.996	1	4
598.166	1	-4
598.335	1	-4
598.505	1	5
598.675	1	-5
598.844	1	-4
599.014	1	7
599.184	1	6
599.354	1	-3
599.523	1	4
599.693	1	-9
599.863	1	1
600.033	1	0
600.202	1	12
600.372	1	0
600.542	1	8
600.712	1	0
600.881	1	0
601.051	1	11
601.221	1	13
601.390	1	-6
601.560	1	11
601.730	1	7
601.900	1	8
602.069	1	8
602.239	1	-5
602.409	1	-1
602.578	1	0
602.748	1	3
602.918	1	10
603.088	1	4
603.257	1	7
603.427	1	-2
603.597	1	2
603.767	1	5
603.936	1	4
604.106	1	3
604.276	1	-1
604.445	1	5
604.615	1	1
604.785	1	3
604.954	1	2
605.124	1	3
605.294	1	-1
605.464	1	-8
605.633	1	11
605.803	1	11
605.973	1	2
606.142	1	4
606.312	1	8
606.482	1	-6
606.652	1	11
606.821	1	-1
606.991	1	-1
607.161	1	-4
607.330	1	6
607.500	1	5
607.670	1	-4
607.839	1	10
608.009	1	5
608.179	1	12
608.348	1	12
608.518	1	-8
608.688	1	16
608.858	1	-3
609.027	1	-5
609.197	1	11
609.367	1	13
609.536	1	0
609.706	1	-4
609.876	1	0
610.045	1	-10
610.215	1	8
610.385	1	1
610.554	1	-4
610.724	1	2
610.894	1	3
611.063	1	5
611.233	1	-2
611.403	1	1
611.572	1	-5
611.742	1	12
611.912	1	1
612.081	1	-2
612.251	1	0
612.421	1	-1
612.590	1	6
612.760	1	-5
612.930	1	7
613.099	1	7
613.269	1	6
613.439	1	6
613.608	1	-7
613.778	1	2
613.948	1	1
614.117	1	4
614.287	1	20
614.457	1	0
614.626	1	4
614.796	1	3
614.966	1	1
615.135	1	4
615.305	1	7
615.475	1	7
615.644	1	5
615.814	1	12
615.984	1	11
616.153	1	3
616.323	1	4
616.493	1	0
616.662	1	6
616.832	1	-6
617.002	1	1
617.171	1	5
617.341	1	-2
617.511	1	-3
617.680	1	-3
617.850	1	2
618.019	1	20
618.189	1	17
618.359	1	1
618.528	1	6
618.698	1	6
618.868	1	1
619.037	1	-1
619.207	1	2
619.377	1	-4
619.546	1	1
619.716	1	11
619.885	1	3
620.055	1	-3
620.225	1	1
620.394	1	-6
620.564	1	12
620.734	1	16
620.903	1	-8
621.073	1	-1
621.242	1	1
621.412	1	2
621.582	1	-4
621.751	1	16
621.921	1	6
622.091	1	0
622.260	1	3
622.430	1	7
622.599	1	-2
622.769	1	6
622.939	1	6
623.108	1	-1
623.278	1	-7
623.448	1	8
623.617	1	-3
623.787	1	0
623.956	1	12
624.126	1	4
624.296	1	5
624.465	1	4
624.635	1	8
624.804	1	0
624.974	1	2
625.144	1	11
625.313	1	-2
625.483	1	-7
625.652	1	-4
625.822	1	2
625.992	1	-1
626.161	1	16
626.331	1	6
626.501	1	9
626.670	1	-1
626.840	1	-4
627.009	1	-3
627.179	1	19
627.348	1	8
627.518	1	2
627.688	1	5
627.857	1	17
628.027	1	-7
628.196	1	7
628.366	1	11
628.536	1	2
628.705	1	2
628.875	1	1
629.044	1	-2
629.214	1	9
629.384	1	11
629.553	1	12
629.723	1	5
629.892	1	6
630.062	1	5
630.232	1	-2
630.401	1	7
630.571	1	4
630.740	1	7
630.910	1	9
631.079	1	4
631.249	1	7
631.419	1	3
631.588	1	-6
631.758	1	8
631.927	1	3
632.097	1	-2
632.266	1	-5
632.436	1	4
632.606	1	2
632.775	1	14
632.945	1	4
633.114	1	1
633.284	1	9
633.453	1	10
633.623	1	3
633.793	1	4
633.962	1	7
634.132	1	-2
634.301	1	6
634.471	1	12
634.640	1	1
634.810	1	6
634.979	1	3
635.149	1	7
635.319	1	5
635.488	1	0
635.658	1	-1
635.827	1	-2
635.997	1	3
636.166	1	4
636.336	1	1
636.505	1	9
636.675	1	8
636.845	1	-2
637.014	1	4
637.184	1	6
637.353	1	1
637.523	1	10
637.692	1	0
637.862	1	-1
638.031	1	7
638.201	1	11
638.370	1	-1
638.540	1	4
638.710	1	6
638.879	1	-7
639.049	1	2
639.218	1	0
639.388	1	7
639.557	1	-7
639.727	1	0
639.896	1	9
640.066	1	3
640.235	1	4
640.405	1	8
640.574	1	3
640.744	1	-2
640.914	1	0
641.083	1	6
641.253	1	0
641.422	1	4
641.592	1	8
641.761	1	9
641.931	1	9
642.100	1	18
642.270	1	1
642.439	1	3
642.609	1	5
642.778	1	-4
642.948	1	6
643.117	1	16
643.287	1	2
643.456	1	4
643.626	1	12
643.795	1	7
643.965	1	6
644.134	1	10
644.304	1	8
644.473	1	9
644.643	1	6
644.812	1	11
644.982	1	8
645.151	1	7
645.321	1	-3
645.490	1	10
645.660	1	0
645.829	1	3
645.999	1	3
646.168	1	3
646.338	1	2
646.507	1	-3
646.677	1	13
646.846	1	-2
647.016	1	1
647.185	1	10
647.355	1	-10
647.524	1	15
647.694	1	12
647.863	1	8
648.033	1	13
648.202	1	9
648.372	1	-4
648.541	1	-2
648.711	1	6
648.880	1	-2
649.050	1	-8
649.219	1	9
649.389	1	9
649.558	1	-2
649.728	1	1
649.897	1	3
650.067	1	5
650.236	1	5
650.406	1	6
650.575	1	16
650.745	1	6
650.914	1	5
651.084	1	-10
651.253	1	8
651.423	1	2
651.592	1	-5
651.762	1	-3
651.931	1	14
652.101	1	5
652.270	1	12
652.440	1	15
652.609	1	0
652.778	1	-6
652.948	1	8
653.117	1	5
653.287	1	9
653.456	1	3
653.626	1	10
653.795	1	6
653.965	1	8
654.134	1	1
654.304	1	-14
654.473	1	9
654.643	1	7
654.812	1	7
654.982	1	5
655.151	1	8
655.320	1	8
655.490	1	5
655.659	1	9
655.829	1	4
655.998	1	7
656.168	1	3
656.337	1	10
656.507	1	-10
656.676	1	15
656.846	1	8
657.015	1	17
657.184	1	9
657.354	1	12
657.523	1	-2
657.693	1	14
657.862	1	-2
658.032	1	8
658.201	1	2
658.371	1	10
658.540	1	11
658.709	1	2
658.879	1	10
659.048	1	-1
659.218	1	7
659.387	1	1
659.557	1	11
659.726	1	8
659.895	1	1
660.065	1	1
660.234	1	5
660.404	1	1
660.573	1	0
660.743	1	3
660.912	1	-6
661.081	1	9
661.251	1	0
661.420	1	8
661.590	1	5
661.759	1	17
661.929	1	6
662.098	1	11
662.267	1	1
662.437	1	4
662.606	1	6
662.776	1	3
662.945	1	3
663.115	1	0
663.284	1	-4
663.453	1	4
663.623	1	3
663.792	1	4
663.962	1	12
664.131	1	10
664.300	1	13
664.470	1	-3
664.639	1	2
664.809	1	8
664.978	1	10
665.148	1	-3
665.317	1	9
665.486	1	4
665.656	1	3
665.825	1	6
665.995	1	-2
666.164	1	0
666.333	1	11
666.503	1	7
666.672	1	-1
666.842	1	-5
667.011	1	7
667.180	1	7
667.350	1	-3
667.519	1	5
667.689	1	3
667.858	1	3
668.027	1	20
668.197	1	8
668.366	1	-5
668.536	1	3
668.705	1	7
668.874	1	1
669.044	1	-2
669.213	1	11
669.382	1	4
669.552	1	8
669.721	1	4
669.891	1	7
670.060	1	6
670.229	1	18
670.399	1	-2
670.568	1	10
670.738	1	15
670.907	1	3
671.076	1	1
671.246	1	6
671.415	1	9
671.584	1	11
671.754	1	3
671.923	1	-2
672.093	1	11
672.262	1	-2
672.431	1	14
672.601	1	1
672.770	1	-1
672.939	1	9
673.109	1	9
673.278	1	13
673.448	1	6
673.617	1	-1
673.786	1	8
