325.333	1	14
325.504	1	2
325.675	1	6
325.846	1	-5
326.017	1	10
326.188	1	3
326.359	1	-6
326.531	1	-17
326.702	1	4
326.873	1	14
327.044	1	11
327.215	1	0
327.386	1	7
327.557	1	-2
327.728	1	-2
327.899	1	-1
328.070	1	16
328.241	1	0
328.412	1	-7
328.583	1	1
328.754	1	8
328.926	1	8
329.097	1	-4
329.268	1	3
329.439	1	1
329.610	1	5
329.781	1	-13
329.952	1	5
330.123	1	9
330.294	1	0
330.465	1	5
330.636	1	8
330.807	1	3
330.978	1	-3
331.149	1	-6
331.320	1	0
331.492	1	-1
331.663	1	2
331.834	1	11
332.005	1	10
332.176	1	19
332.347	1	3
332.518	1	-8
332.689	1	12
332.860	1	8
333.031	1	6
333.202	1	3
333.373	1	2
333.544	1	4
333.715	1	12
333.886	1	-11
334.057	1	12
334.228	1	-11
334.399	1	9
334.570	1	0
334.741	1	-4
334.912	1	7
335.084	1	12
335.255	1	5
335.426	1	2
335.597	1	4
335.768	1	6
335.939	1	-1
336.110	1	1
336.281	1	-2
336.452	1	0
336.623	1	8
336.794	1	12
336.965	1	8
337.136	1	6
337.307	1	-3
337.478	1	-2
337.649	1	5
337.820	1	-2
337.991	1	2
338.162	1	4
338.333	1	1
338.504	1	3
338.675	1	6
338.846	1	2
339.017	1	-5
339.188	1	0
339.359	1	0
339.530	1	4
339.701	1	7
339.872	1	9
340.043	1	3
340.214	1	-3
340.385	1	20
340.556	1	-1
340.727	1	3
340.898	1	8
341.069	1	6
341.240	1	5
341.411	1	10
341.582	1	6
341.753	1	-9
341.924	1	-4
342.095	1	11
342.266	1	12
342.437	1	11
342.608	1	-1
342.779	1	6
342.950	1	10
343.121	1	13
343.292	1	2
343.463	1	7
343.634	1	5
343.805	1	11
343.976	1	9
344.147	1	9
344.318	1	-6
344.489	1	2
344.660	1	13
344.831	1	9
345.002	1	-3
345.173	1	22
345.344	1	6
345.515	1	8
345.686	1	-4
345.857	1	10
346.028	1	-1
346.199	1	5
346.370	1	5
346.541	1	11
346.712	1	-1
346.883	1	0
347.054	1	-2
347.225	1	12
347.396	1	4
347.567	1	9
347.738	1	-8
347.909	1	13
348.080	1	4
348.251	1	8
348.422	1	11
348.593	1	12
348.764	1	8
348.935	1	7
349.106	1	12
349.277	1	2
349.448	1	11
349.619	1	0
349.790	1	8
349.961	1	9
350.132	1	14
350.303	1	9
350.474	1	14
350.645	1	8
350.816	1	7
350.987	1	12
351.157	1	-1
351.328	1	5
351.499	1	9
351.670	1	-3
351.841	1	14
352.012	1	17
352.183	1	17
352.354	1	15
352.525	1	20
352.696	1	14
352.867	1	1
353.038	1	14
353.209	1	20
353.380	1	3
353.551	1	-3
353.722	1	14
353.893	1	10
354.064	1	13
354.235	1	13
354.406	1	2
354.576	1	9
354.747	1	3
354.918	1	16
355.089	1	5
355.260	1	15
355.431	1	9
355.602	1	11
355.773	1	8
355.944	1	15
356.115	1	11
356.286	1	19
356.457	1	9
356.628	1	-6
356.799	1	18
356.970	1	17
357.141	1	0
357.311	1	3
357.482	1	5
357.653	1	11
357.824	1	25
357.995	1	17
358.166	1	0
358.337	1	9
358.508	1	13
358.679	1	-1
358.850	1	9
359.021	1	-6
359.192	1	15
359.363	1	13
359.533	1	10
359.704	1	10
359.875	1	4
360.046	1	4
360.217	1	-2
360.388	1	10
360.559	1	6
360.730	1	11
360.901	1	0
361.072	1	17
361.243	1	4
361.414	1	11
361.584	1	5
361.755	1	19
361.926	1	0
362.097	1	1
362.268	1	10
362.439	1	1
362.610	1	17
362.781	1	0
362.952	1	6
363.123	1	10
363.293	1	-8
363.464	1	22
363.635	1	18
363.806	1	15
363.977	1	16
364.148	1	11
364.319	1	9
364.490	1	13
364.661	1	3
364.832	1	14
365.002	1	6
365.173	1	12
365.344	1	13
365.515	1	8
365.686	1	8
365.857	1	14
366.028	1	15
366.199	1	2
366.370	1	8
366.540	1	3
366.711	1	-2
366.882	1	13
367.053	1	3
367.224	1	20
367.395	1	14
367.566	1	19
367.737	1	10
367.908	1	20
368.078	1	6
368.249	1	14
368.420	1	-4
368.591	1	-1
368.762	1	3
368.933	1	6
369.104	1	-1
369.274	1	4
369.445	1	13
369.616	1	15
369.787	1	14
369.958	1	11
370.129	1	2
370.300	1	19
370.471	1	2
370.641	1	8
370.812	1	11
370.983	1	15
371.154	1	11
371.325	1	14
371.496	1	16
371.667	1	17
371.837	1	12
372.008	1	2
372.179	1	4
372.350	1	20
372.521	1	10
372.692	1	14
372.863	1	10
373.033	1	-1
373.204	1	10
373.375	1	10
373.546	1	10
373.717	1	14
373.888	1	10
374.059	1	27
374.229	1	12
374.400	1	3
374.571	1	10
374.742	1	17
374.913	1	9
375.084	1	17
375.254	1	13
375.425	1	7
375.596	1	13
375.767	1	9
375.938	1	19
376.109	1	10
376.279	1	4
376.450	1	15
376.621	1	17
376.792	1	12
376.963	1	8
377.134	1	21
377.304	1	9
377.475	1	17
377.646	1	16
377.817	1	6
377.988	1	11
378.159	1	18
378.329	1	23
378.500	1	10
378.671	1	9
378.842	1	7
379.013	1	4
379.184	1	7
379.354	1	14
379.525	1	1
379.696	1	14
379.867	1	11
380.038	1	12
380.209	1	19
380.379	1	10
380.550	1	-2
380.721	1	21
380.892	1	8
381.063	1	10
381.233	1	14
381.404	1	9
381.575	1	15
381.746	1	17
381.917	1	10
382.087	1	21
382.258	1	8
382.429	1	8
382.600	1	20
382.771	1	5
382.941	1	12
383.112	1	17
383.283	1	16
383.454	1	10
383.625	1	7
383.795	1	8
383.966	1	21
384.137	1	16
384.308	1	21
384.479	1	14
384.649	1	9
384.820	1	16
384.991	1	11
385.162	1	12
385.333	1	8
385.503	1	11
385.674	1	2
385.845	1	9
386.016	1	15
386.187	1	12
386.357	1	20
386.528	1	22
386.699	1	10
386.870	1	19
387.041	1	16
387.211	1	9
387.382	1	26
387.553	1	16
387.724	1	11
387.894	1	13
388.065	1	13
388.236	1	13
388.407	1	17
388.578	1	10
388.748	1	3
388.919	1	27
389.090	1	9
389.261	1	6
389.431	1	17
389.602	1	13
389.773	1	17
389.944	1	6
390.114	1	8
390.285	1	20
390.456	1	14
390.627	1	19
390.798	1	16
390.968	1	8
391.139	1	12
391.310	1	10
391.481	1	13
391.651	1	3
391.822	1	15
391.993	1	16
392.164	1	11
392.334	1	8
392.505	1	5
392.676	1	19
392.847	1	16
393.017	1	18
393.188	1	12
393.359	1	3
393.530	1	7
393.700	1	14
393.871	1	7
394.042	1	17
394.213	1	14
394.383	1	13
394.554	1	14
394.725	1	21
394.896	1	4
395.066	1	17
395.237	1	12
395.408	1	13
395.579	1	10
395.749	1	19
395.920	1	2
396.091	1	13
396.262	1	18
396.432	1	12
396.603	1	21
396.774	1	22
396.945	1	22
397.115	1	15
397.286	1	18
397.457	1	16
397.627	1	18
397.798	1	17
397.969	1	7
398.140	1	14
398.310	1	9
398.481	1	15
398.652	1	15
398.823	1	9
398.993	1	7
399.164	1	20
399.335	1	23
399.505	1	10
399.676	1	10
399.847	1	13
400.018	1	15
400.188	1	15
400.359	1	16
400.530	1	9
400.700	1	13
400.871	1	11
401.042	1	18
401.213	1	13
401.383	1	21
401.554	1	11
401.725	1	10
401.895	1	12
402.066	1	21
402.237	1	13
402.408	1	14
402.578	1	10
402.749	1	25
402.920	1	21
403.090	1	10
403.261	1	6
403.432	1	18
403.603	1	18
403.773	1	13
403.944	1	16
404.115	1	28
404.285	1	23
404.456	1	15
404.627	1	15
404.797	1	15
404.968	1	10
405.139	1	9
405.310	1	30
405.480	1	21
405.651	1	17
405.822	1	9
405.992	1	12
406.163	1	8
406.334	1	9
406.504	1	10
406.675	1	30
406.846	1	18
407.016	1	21
407.187	1	28
407.358	1	6
407.528	1	17
407.699	1	0
407.870	1	1
408.041	1	15
408.211	1	31
408.382	1	11
408.553	1	8
408.723	1	22
408.894	1	20
409.065	1	14
409.235	1	14
409.406	1	15
409.577	1	14
409.747	1	21
409.918	1	16
410.089	1	14
410.259	1	10
410.430	1	10
410.601	1	22
410.771	1	13
410.942	1	21
411.113	1	13
411.283	1	13
411.454	1	4
411.625	1	15
411.795	1	13
411.966	1	20
412.137	1	16
412.307	1	9
412.478	1	16
412.649	1	15
412.819	1	10
412.990	1	11
413.161	1	13
413.331	1	12
413.502	1	23
413.672	1	11
413.843	1	12
414.014	1	19
414.184	1	21
414.355	1	16
414.526	1	18
414.696	1	21
414.867	1	18
415.038	1	9
415.208	1	11
415.379	1	18
415.550	1	21
415.720	1	8
415.891	1	13
416.062	1	19
416.232	1	17
416.403	1	31
416.573	1	22
416.744	1	12
416.915	1	19
417.085	1	15
417.256	1	11
417.427	1	24
417.597	1	12
417.768	1	11
417.939	1	20
418.109	1	25
418.280	1	25
418.450	1	18
418.621	1	0
418.792	1	15
418.962	1	18
419.133	1	22
419.304	1	20
419.474	1	10
419.645	1	7
419.815	1	13
419.986	1	18
420.157	1	13
420.327	1	19
420.498	1	23
420.669	1	14
420.839	1	19
421.010	1	20
421.180	1	26
421.351	1	14
421.522	1	20
421.692	1	20
421.863	1	23
422.033	1	18
422.204	1	19
422.375	1	14
422.545	1	22
422.716	1	7
422.886	1	20
423.057	1	32
423.228	1	16
423.398	1	6
423.569	1	17
423.740	1	12
423.910	1	3
424.081	1	11
424.251	1	15
424.422	1	17
424.593	1	12
424.763	1	20
424.934	1	25
425.104	1	17
425.275	1	15
425.445	1	10
425.616	1	8
425.787	1	6
425.957	1	13
426.128	1	13
426.298	1	16
426.469	1	13
426.640	1	14
426.810	1	22
426.981	1	15
427.151	1	9
427.322	1	21
427.493	1	7
427.663	1	14
427.834	1	21
428.004	1	17
428.175	1	19
428.345	1	10
428.516	1	9
428.687	1	16
428.857	1	3
429.028	1	17
429.198	1	11
429.369	1	13
429.540	1	13
429.710	1	5
429.881	1	15
430.051	1	20
430.222	1	13
430.392	1	16
430.563	1	23
430.734	1	20
430.904	1	18
431.075	1	20
431.245	1	6
431.416	1	21
431.586	1	10
431.757	1	15
431.927	1	8
432.098	1	11
432.269	1	17
432.439	1	14
432.610	1	13
432.780	1	21
432.951	1	4
433.121	1	23
433.292	1	24
433.462	1	11
433.633	1	9
433.804	1	17
433.974	1	16
434.145	1	30
434.315	1	9
434.486	1	1
434.656	1	27
434.827	1	14
434.997	1	2
435.168	1	17
435.339	1	15
435.509	1	13
435.680	1	14
435.850	1	6
436.021	1	3
436.191	1	13
436.362	1	26
436.532	1	9
436.703	1	15
436.873	1	19
437.044	1	7
437.214	1	8
437.385	1	17
437.556	1	9
437.726	1	25
437.897	1	20
438.067	1	7
438.238	1	14
438.408	1	10
438.579	1	11
438.749	1	11
438.920	1	14
439.090	1	27
439.261	1	1
439.431	1	14
439.602	1	17
439.772	1	8
439.943	1	25
440.113	1	18
440.284	1	20
440.455	1	10
440.625	1	16
440.796	1	15
440.966	1	6
441.137	1	5
441.307	1	10
441.478	1	16
441.648	1	14
441.819	1	10
441.989	1	17
442.160	1	23
442.330	1	16
442.501	1	11
442.671	1	21
442.842	1	0
443.012	1	1
443.183	1	18
443.353	1	1
443.524	1	16
443.694	1	24
443.865	1	17
444.035	1	20
444.206	1	2
444.376	1	6
444.547	1	25
444.717	1	12
444.888	1	12
445.058	1	25
445.229	1	7
445.399	1	11
445.570	1	9
445.740	1	6
445.911	1	6
446.081	1	7
446.252	1	20
446.422	1	6
446.593	1	8
446.763	1	3
446.934	1	10
447.104	1	13
447.275	1	15
447.445	1	18
447.616	1	13
447.786	1	13
447.957	1	20
448.127	1	11
448.298	1	15
448.468	1	9
448.639	1	15
448.809	1	17
448.979	1	1
449.150	1	24
449.320	1	11
449.491	1	20
449.661	1	15
449.832	1	7
450.002	1	18
450.173	1	12
450.343	1	19
450.514	1	8
450.684	1	10
450.855	1	15
451.025	1	18
451.196	1	17
451.366	1	18
451.537	1	13
451.707	1	7
451.878	1	0
452.048	1	24
452.218	1	9
452.389	1	15
452.559	1	9
452.730	1	15
452.900	1	7
453.071	1	5
453.241	1	4
453.412	1	4
453.582	1	8
453.753	1	14
453.923	1	14
454.093	1	16
454.264	1	22
454.434	1	10
454.605	1	15
454.775	1	13
454.946	1	12
455.116	1	20
455.287	1	5
455.457	1	0
455.628	1	4
455.798	1	10
455.968	1	16
456.139	1	11
456.309	1	8
456.480	1	10
456.650	1	6
456.821	1	-2
456.991	1	14
457.161	1	12
457.332	1	10
457.502	1	3
457.673	1	17
457.843	1	16
458.014	1	5
458.184	1	0
458.355	1	7
458.525	1	8
458.695	1	9
458.866	1	7
459.036	1	13
459.207	1	10
459.377	1	4
459.548	1	15
459.718	1	7
459.888	1	8
460.059	1	9
460.229	1	20
460.400	1	18
460.570	1	8
460.740	1	18
460.911	1	10
461.081	1	16
461.252	1	10
461.422	1	10
461.593	1	14
461.763	1	19
461.933	1	0
462.104	1	8
462.274	1	9
462.445	1	6
462.615	1	8
462.785	1	10
462.956	1	16
463.126	1	12
463.297	1	8
463.467	1	6
463.638	1	16
463.808	1	7
463.978	1	8
464.149	1	7
464.319	1	1
464.490	1	19
464.660	1	11
464.830	1	4
465.001	1	9
465.171	1	15
465.342	1	19
465.512	1	5
465.682	1	1
465.853	1	10
466.023	1	4
466.194	1	11
466.364	1	17
466.534	1	15
466.705	1	4
466.875	1	11
467.045	1	1
467.216	1	22
467.386	1	-1
467.557	1	6
467.727	1	-4
467.897	1	6
468.068	1	1
468.238	1	3
468.409	1	11
468.579	1	17
468.749	1	7
468.920	1	0
469.090	1	10
469.260	1	-2
469.431	1	2
469.601	1	9
469.772	1	17
469.942	1	-3
470.112	1	13
470.283	1	10
470.453	1	14
470.623	1	9
470.794	1	-3
470.964	1	9
471.135	1	18
471.305	1	0
471.475	1	10
471.646	1	1
471.816	1	4
471.986	1	10
472.157	1	12
472.327	1	4
472.497	1	13
472.668	1	5
472.838	1	2
473.009	1	20
473.179	1	-2
473.349	1	3
473.520	1	20
473.690	1	12
473.860	1	8
474.031	1	5
474.201	1	5
474.371	1	13
474.542	1	11
474.712	1	11
474.882	1	18
475.053	1	15
475.223	1	-10
475.394	1	12
475.564	1	6
475.734	1	13
475.905	1	12
476.075	1	11
476.245	1	14
476.416	1	24
476.586	1	10
476.756	1	3
476.927	1	7
477.097	1	9
477.267	1	4
477.438	1	5
477.608	1	-2
477.778	1	11
477.949	1	11
478.119	1	21
478.289	1	14
478.460	1	16
478.630	1	14
478.800	1	11
478.971	1	8
479.141	1	14
479.311	1	-6
479.482	1	6
479.652	1	-5
479.822	1	3
479.993	1	13
480.163	1	6
480.333	1	9
480.504	1	8
480.674	1	10
480.844	1	8
481.015	1	9
481.185	1	4
481.355	1	7
481.525	1	6
481.696	1	5
481.866	1	-2
482.036	1	6
482.207	1	17
482.377	1	2
482.547	1	14
482.718	1	6
482.888	1	10
483.058	1	2
483.229	1	8
483.399	1	7
483.569	1	7
483.740	1	3
483.910	1	15
484.080	1	5
484.250	1	14
484.421	1	3
484.591	1	15
484.761	1	12
484.932	1	9
485.102	1	16
485.272	1	9
485.443	1	9
485.613	1	15
485.783	1	7
485.953	1	5
486.124	1	13
486.294	1	13
486.464	1	7
486.635	1	9
486.805	1	20
486.975	1	7
487.146	1	1
487.316	1	0
487.486	1	3
487.656	1	12
487.827	1	-1
487.997	1	0
488.167	1	4
488.338	1	14
488.508	1	12
488.678	1	3
488.848	1	15
489.019	1	2
489.189	1	4
489.359	1	4
489.529	1	3
489.700	1	8
489.870	1	11
490.040	1	6
490.211	1	-4
490.381	1	13
490.551	1	0
490.721	1	13
490.892	1	1
491.062	1	16
491.232	1	19
491.402	1	4
491.573	1	-2
491.743	1	11
491.913	1	7
492.084	1	11
492.254	1	-6
492.424	1	-1
492.594	1	4
492.765	1	10
492.935	1	11
493.105	1	5
493.275	1	6
493.446	1	14
493.616	1	15
493.786	1	1
493.956	1	3
494.127	1	4
494.297	1	3
494.467	1	-1
494.637	1	0
494.808	1	-2
494.978	1	-5
495.148	1	7
495.318	1	0
495.489	1	12
495.659	1	8
495.829	1	-1
495.999	1	-3
496.170	1	8
496.340	1	6
496.510	1	9
496.680	1	-8
496.851	1	6
497.021	1	5
497.191	1	6
497.361	1	7
497.532	1	7
497.702	1	5
497.872	1	-2
498.042	1	-1
498.213	1	7
498.383	1	7
498.553	1	-9
498.723	1	1
498.894	1	7
499.064	1	9
499.234	1	10
499.404	1	6
499.574	1	12
499.745	1	5
499.915	1	1
500.085	1	11
500.255	1	13
500.426	1	6
500.596	1	8
500.766	1	10
500.936	1	4
501.106	1	8
501.277	1	18
501.447	1	-2
501.617	1	9
501.787	1	-2
501.958	1	2
502.128	1	13
502.298	1	8
502.468	1	5
502.638	1	12
502.809	1	6
502.979	1	-6
503.149	1	-6
503.319	1	-10
503.489	1	9
503.660	1	2
503.830	1	8
504.000	1	15
504.170	1	-1
504.340	1	3
504.511	1	3
504.681	1	3
504.851	1	11
505.021	1	12
505.192	1	0
505.362	1	12
505.532	1	1
505.702	1	3
505.872	1	2
506.043	1	8
506.213	1	2
506.383	1	0
506.553	1	9
506.723	1	6
506.893	1	10
507.064	1	15
507.234	1	7
507.404	1	4
507.574	1	5
507.744	1	4
507.915	1	6
508.085	1	12
508.255	1	9
508.425	1	-4
508.595	1	9
508.766	1	10
508.936	1	-7
509.106	1	2
509.276	1	9
509.446	1	-2
509.616	1	-2
509.787	1	10
509.957	1	9
510.127	1	5
510.297	1	-1
510.467	1	-4
510.638	1	6
510.808	1	-3
510.978	1	-5
511.148	1	9
511.318	1	4
511.488	1	-4
511.659	1	9
511.829	1	3
511.999	1	13
512.169	1	0
512.339	1	6
512.509	1	5
512.680	1	4
512.850	1	5
513.020	1	11
513.190	1	4
513.360	1	-4
513.530	1	0
513.700	1	1
513.871	1	2
514.041	1	11
514.211	1	9
514.381	1	11
514.551	1	0
514.721	1	2
514.892	1	2
515.062	1	5
515.232	1	10
515.402	1	2
515.572	1	7
515.742	1	4
515.912	1	5
516.083	1	7
516.253	1	8
516.423	1	-1
516.593	1	7
516.763	1	17
516.933	1	-4
517.104	1	9
517.274	1	-2
517.444	1	1
517.614	1	-3
517.784	1	-1
517.954	1	7
518.124	1	3
518.294	1	2
518.465	1	4
518.635	1	2
518.805	1	-3
518.975	1	7
519.145	1	-2
519.315	1	2
519.485	1	8
519.656	1	10
519.826	1	8
519.996	1	-5
520.166	1	15
520.336	1	26
520.506	1	10
520.676	1	-3
520.846	1	13
521.017	1	-2
521.187	1	-4
521.357	1	9
521.527	1	-12
521.697	1	11
521.867	1	-2
522.037	1	9
522.207	1	8
522.377	1	10
522.548	1	1
522.718	1	9
522.888	1	14
523.058	1	-7
523.228	1	4
523.398	1	3
523.568	1	11
523.738	1	2
523.909	1	13
524.079	1	7
524.249	1	6
524.419	1	-6
524.589	1	8
524.759	1	-2
524.929	1	-7
525.099	1	4
525.269	1	9
525.439	1	-4
525.610	1	17
525.780	1	-5
525.950	1	12
526.120	1	1
526.290	1	5
526.460	1	-4
526.630	1	7
526.800	1	-1
526.970	1	2
527.140	1	16
527.311	1	-4
527.481	1	4
527.651	1	3
527.821	1	-1
527.991	1	17
528.161	1	14
528.331	1	1
528.501	1	12
528.671	1	-1
528.841	1	-1
529.011	1	-4
529.181	1	2
529.352	1	12
529.522	1	-1
529.692	1	5
529.862	1	2
530.032	1	6
530.202	1	14
530.372	1	-2
530.542	1	10
530.712	1	-3
530.882	1	5
531.052	1	1
531.222	1	1
531.392	1	8
531.563	1	0
531.733	1	3
531.903	1	5
532.073	1	-1
532.243	1	-3
532.413	1	5
532.583	1	-3
532.753	1	5
532.923	1	-1
533.093	1	2
533.263	1	-5
533.433	1	1
533.603	1	8
533.773	1	-5
533.943	1	-6
534.113	1	-2
534.284	1	-8
534.454	1	7
534.624	1	7
534.794	1	-8
534.964	1	11
535.134	1	-5
535.304	1	4
535.474	1	8
535.644	1	0
535.814	1	-10
535.984	1	-6
536.154	1	-2
536.324	1	-1
536.494	1	9
536.664	1	2
536.834	1	1
537.004	1	4
537.174	1	10
537.344	1	8
537.514	1	-5
537.685	1	0
537.855	1	11
538.025	1	1
538.195	1	-5
538.365	1	12
538.535	1	3
538.705	1	6
538.875	1	6
539.045	1	1
539.215	1	7
539.385	1	3
539.555	1	9
539.725	1	-3
539.895	1	2
540.065	1	13
540.235	1	5
540.405	1	-4
540.575	1	3
540.745	1	11
540.915	1	14
541.085	1	5
541.255	1	-7
541.425	1	9
541.595	1	2
541.765	1	7
541.935	1	-10
542.105	1	-5
542.275	1	6
542.445	1	-9
542.615	1	5
542.785	1	8
542.955	1	11
543.125	1	-3
543.295	1	4
543.465	1	5
543.635	1	7
543.805	1	14
543.975	1	1
544.145	1	11
544.315	1	1
544.485	1	7
544.655	1	-3
544.825	1	-6
544.995	1	6
545.165	1	-9
545.335	1	6
545.505	1	0
545.675	1	4
545.845	1	9
546.015	1	3
546.185	1	13
546.355	1	-3
546.525	1	3
546.695	1	6
546.865	1	-4
547.035	1	9
547.205	1	-10
547.375	1	7
547.545	1	4
547.715	1	1
547.885	1	4
548.055	1	-7
548.225	1	7
548.395	1	5
548.565	1	-5
548.735	1	1
548.905	1	-3
549.075	1	9
549.245	1	1
549.415	1	-6
549.585	1	4
549.755	1	1
549.925	1	-5
550.095	1	6
550.265	1	2
550.435	1	-4
550.605	1	-4
550.775	1	7
550.945	1	8
551.115	1	2
551.285	1	1
551.455	1	0
551.625	1	7
551.795	1	9
551.965	1	4
552.135	1	-1
552.305	1	0
552.475	1	-4
552.645	1	1
552.815	1	-1
552.985	1	1
553.155	1	3
553.325	1	10
553.495	1	-4
553.665	1	3
553.835	1	6
554.004	1	6
554.174	1	0
554.344	1	4
554.514	1	5
554.684	1	9
554.854	1	6
555.024	1	-5
555.194	1	-3
555.364	1	7
555.534	1	-2
555.704	1	0
555.874	1	5
556.044	1	3
556.214	1	0
556.384	1	3
556.554	1	11
556.724	1	4
556.894	1	2
557.064	1	-2
557.234	1	-3
557.404	1	9
557.573	1	7
557.743	1	12
557.913	1	-7
558.083	1	-4
558.253	1	4
558.423	1	-3
558.593	1	14
558.763	1	1
558.933	1	-5
559.103	1	9
559.273	1	3
559.443	1	5
559.613	1	5
559.783	1	-3
559.953	1	2
560.122	1	4
560.292	1	2
560.462	1	0
560.632	1	6
560.802	1	-3
560.972	1	8
561.142	1	5
561.312	1	-8
561.482	1	0
561.652	1	14
561.822	1	-1
561.992	1	-3
562.162	1	1
562.331	1	-2
562.501	1	-10
562.671	1	10
562.841	1	-2
563.011	1	-1
563.181	1	9
563.351	1	-7
563.521	1	2
563.691	1	-4
563.861	1	2
564.031	1	5
564.201	1	12
564.370	1	-11
564.540	1	-1
564.710	1	3
564.880	1	5
565.050	1	10
565.220	1	-3
565.390	1	-1
565.560	1	-2
565.730	1	-2
565.900	1	-1
566.069	1	17
566.239	1	0
566.409	1	2
566.579	1	0
566.749	1	4
566.919	1	10
567.089	1	11
567.259	1	10
567.429	1	5
567.599	1	1
567.768	1	5
567.938	1	5
568.108	1	-4
568.278	1	-1
568.448	1	-5
568.618	1	-6
568.788	1	-2
568.958	1	-2
569.128	1	4
569.297	1	5
569.467	1	-3
569.637	1	10
569.807	1	3
569.977	1	11
570.147	1	13
570.317	1	-12
570.487	1	4
570.656	1	11
570.826	1	-2
570.996	1	-8
571.166	1	2
571.336	1	7
571.506	1	-4
571.676	1	-3
571.846	1	-4
572.015	1	1
572.185	1	-7
572.355	1	5
572.525	1	5
572.695	1	-4
572.865	1	-7
573.035	1	0
573.205	1	2
573.374	1	-2
573.544	1	2
573.714	1	8
573.884	1	10
574.054	1	6
574.224	1	5
574.394	1	-5
574.563	1	-7
574.733	1	5
574.903	1	0
575.073	1	-2
575.243	1	6
575.413	1	0
575.583	1	2
575.752	1	8
575.922	1	8
576.092	1	5
576.262	1	-2
576.432	1	5
576.602	1	-3
576.772	1	17
576.941	1	5
577.111	1	-8
577.281	1	-6
577.451	1	-8
577.621	1	5
577.791	1	6
577.960	1	-1
578.130	1	2
578.300	1	8
578.470	1	5
578.640	1	-3
578.810	1	2
578.979	1	9
579.149	1	-4
579.319	1	-3
579.489	1	-1
579.659	1	2
579.829	1	0
579.998	1	11
580.168	1	11
580.338	1	9
580.508	1	-3
580.678	1	2
580.848	1	-5
581.017	1	-6
581.187	1	3
581.357	1	-4
581.527	1	3
581.697	1	15
581.867	1	11
582.036	1	4
582.206	1	7
582.376	1	10
582.546	1	-13
582.716	1	-3
582.885	1	-5
583.055	1	3
583.225	1	-14
583.395	1	15
583.565	1	2
583.735	1	5
583.904	1	-4
584.074	1	10
584.244	1	4
584.414	1	0
584.584	1	-1
584.753	1	-2
584.923	1	7
585.093	1	-3
585.263	1	0
585.433	1	10
585.602	1	-9
585.772	1	-5
585.942	1	3
586.112	1	1
586.282	1	2
586.451	1	-2
586.621	1	0
586.791	1	-4
586.961	1	3
587.131	1	6
587.300	1	3
587.470	1	14
587.640	1	7
587.810	1	-5
587.980	1	3
588.149	1	4
588.319	1	0
588.489	1	-4
588.659	1	2
588.829	1	9
588.998	1	7
589.168	1	1
589.338	1	-4
589.508	1	14
589.677	1	0
589.847	1	-3
590.017	1	16
590.187	1	-6
590.357	1	8
590.526	1	7
590.696	1	4
590.866	1	3
591.036	1	2
591.205	1	18
591.375	1	-7
591.545	1	-8
591.715	1	6
591.885	1	2
592.054	1	1
592.224	1	-7
592.394	1	-6
592.564	1	3
592.733	1	-1
592.903	1	-5
593.073	1	0
593.243	1	-2
593.412	1	10
593.582	1	11
593.752	1	4
593.922	1	-9
594.091	1	0
594.261	1	2
594.431	1	-4
594.601	1	3
594.771	1	4
594.940	1	0
595.110	1	2
595.280	1	3
595.450	1	-4
595.619	1	-7
595.789	1	6
595.959	1	10
596.129	1	-9
596.298	1	-5
596.468	1	8
596.638	1	11
596.808	1	0
596.977	1	8
597.147	1	4
597.317	1	0
597.487	1	2
597.656	1	6
597.826	1	-1
597.996	1	0
598.166	1	7
598.335	1	-11
598.505	1	4
598.675	1	0
598.844	1	2
599.014	1	1
599.184	1	-1
599.354	1	-15
599.523	1	9
599.693	1	-5
599.863	1	9
600.033	1	2
600.202	1	7
600.372	1	3
600.542	1	11
600.712	1	7
600.881	1	-3
601.051	1	12
601.221	1	4
601.390	1	-4
601.560	1	3
601.730	1	18
601.900	1	3
602.069	1	14
602.239	1	-9
602.409	1	-7
602.578	1	-3
602.748	1	-7
602.918	1	12
603.088	1	7
603.257	1	-1
603.427	1	-8
603.597	1	4
603.767	1	1
603.936	1	2
604.106	1	9
604.276	1	4
604.445	1	3
604.615	1	-1
604.785	1	-2
604.954	1	2
605.124	1	2
605.294	1	1
605.464	1	1
605.633	1	-2
605.803	1	4
605.973	1	1
606.142	1	1
606.312	1	7
606.482	1	-6
606.652	1	9
606.821	1	-6
606.991	1	-4
607.161	1	2
607.330	1	9
607.500	1	3
607.670	1	-4
607.839	1	2
608.009	1	11
608.179	1	12
608.348	1	1
608.518	1	-6
608.688	1	6
608.858	1	-5
609.027	1	-13
609.197	1	10
609.367	1	-1
609.536	1	2
609.706	1	2
609.876	1	1
610.045	1	0
610.215	1	7
610.385	1	13
610.554	1	-4
610.724	1	5
610.894	1	1
611.063	1	-2
611.233	1	7
611.403	1	8
611.572	1	1
611.742	1	8
611.912	1	5
612.081	1	-2
612.251	1	1
612.421	1	-3
612.590	1	13
612.760	1	-2
612.930	1	2
613.099	1	-5
613.269	1	11
613.439	1	2
613.608	1	0
613.778	1	4
613.948	1	2
614.117	1	-2
614.287	1	10
614.457	1	6
614.626	1	1
614.796	1	10
614.966	1	0
615.135	1	7
615.305	1	11
615.475	1	3
615.644	1	2
615.814	1	5
615.984	1	4
616.153	1	-6
616.323	1	9
616.493	1	0
616.662	1	10
616.832	1	-8
617.002	1	-7
617.171	1	1
617.341	1	2
617.511	1	-9
617.680	1	-9
617.850	1	0
618.019	1	11
618.189	1	14
618.359	1	4
618.528	1	8
618.698	1	5
618.868	1	0
619.037	1	2
619.207	1	-4
619.377	1	0
619.546	1	2
619.716	1	7
619.885	1	-3
620.055	1	-5
620.225	1	0
620.394	1	-7
620.564	1	11
620.734	1	8
620.903	1	-4
621.073	1	11
621.242	1	11
621.412	1	2
621.582	1	1
621.751	1	11
621.921	1	1
622.091	1	1
622.260	1	13
622.430	1	11
622.599	1	-5
622.769	1	7
622.939	1	9
623.108	1	-12
623.278	1	-11
623.448	1	-1
623.617	1	0
623.787	1	-1
623.956	1	14
624.126	1	8
624.296	1	-1
624.465	1	2
624.635	1	12
624.804	1	8
624.974	1	1
625.144	1	9
625.313	1	2
625.483	1	-3
625.652	1	-2
625.822	1	-1
625.992	1	-3
626.161	1	3
626.331	1	6
626.501	1	-2
626.670	1	-7
626.840	1	-2
627.009	1	1
627.179	1	8
627.348	1	16
627.518	1	-2
627.688	1	13
627.857	1	11
628.027	1	-7
628.196	1	-2
628.366	1	5
628.536	1	5
628.705	1	-1
628.875	1	8
629.044	1	7
629.214	1	7
629.384	1	4
629.553	1	12
629.723	1	5
629.892	1	-2
630.062	1	4
630.232	1	-6
630.401	1	1
630.571	1	8
630.740	1	-2
630.910	1	0
631.079	1	5
631.249	1	3
631.419	1	6
631.588	1	-8
631.758	1	13
631.927	1	0
632.097	1	-2
632.266	1	-5
632.436	1	5
632.606	1	1
632.775	1	10
632.945	1	0
633.114	1	9
633.284	1	9
633.453	1	2
633.623	1	-5
633.793	1	5
633.962	1	-1
634.132	1	5
634.301	1	4
634.471	1	6
634.640	1	12
634.810	1	5
634.979	1	8
635.149	1	3
635.319	1	-2
635.488	1	10
635.658	1	1
635.827	1	5
635.997	1	2
636.166	1	5
636.336	1	-9
636.505	1	12
636.675	1	-5
636.845	1	6
637.014	1	2
637.184	1	5
637.353	1	8
637.523	1	3
637.692	1	2
637.862	1	7
638.031	1	4
638.201	1	9
638.370	1	4
638.540	1	5
638.710	1	-2
638.879	1	-13
639.049	1	3
639.218	1	15
639.388	1	-1
639.557	1	-4
639.727	1	7
639.896	1	2
640.066	1	4
640.235	1	6
640.405	1	3
640.574	1	3
640.744	1	-4
640.914	1	1
641.083	1	7
641.253	1	-3
641.422	1	3
641.592	1	15
641.761	1	3
641.931	1	2
642.100	1	17
642.270	1	-5
642.439	1	9
642.609	1	8
642.778	1	1
642.948	1	-3
643.117	1	12
643.287	1	1
643.456	1	-1
643.626	1	17
643.795	1	2
643.965	1	13
644.134	1	-6
644.304	1	7
644.473	1	0
644.643	1	3
644.812	1	5
644.982	1	11
645.151	1	6
645.321	1	0
645.490	1	18
645.660	1	-14
645.829	1	5
645.999	1	0
646.168	1	0
646.338	1	2
646.507	1	6
646.677	1	3
646.846	1	6
647.016	1	-11
647.185	1	9
647.355	1	-9
647.524	1	11
647.694	1	13
647.863	1	4
648.033	1	3
648.202	1	8
648.372	1	2
648.541	1	2
648.711	1	2
648.880	1	-7
649.050	1	-4
649.219	1	10
649.389	1	11
649.558	1	-1
649.728	1	10
649.897	1	-9
650.067	1	3
650.236	1	5
650.406	1	-1
650.575	1	8
650.745	1	11
650.914	1	-8
651.084	1	-4
651.253	1	-9
651.423	1	-8
651.592	1	2
651.762	1	5
651.931	1	20
652.101	1	1
652.270	1	9
652.440	1	6
652.609	1	0
652.778	1	-1
652.948	1	7
653.117	1	6
653.287	1	-4
653.456	1	3
653.626	1	-2
653.795	1	7
653.965	1	9
654.134	1	8
654.304	1	-4
654.473	1	7
654.643	1	9
654.812	1	-2
654.982	1	1
655.151	1	-1
655.320	1	-5
655.490	1	-4
655.659	1	10
655.829	1	6
655.998	1	0
656.168	1	1
656.337	1	1
656.507	1	6
656.676	1	16
656.846	1	12
657.015	1	11
657.184	1	8
657.354	1	5
657.523	1	5
657.693	1	13
657.862	1	-2
658.032	1	-2
658.201	1	10
658.371	1	8
658.540	1	8
658.709	1	-2
658.879	1	8
659.048	1	-1
659.218	1	6
659.387	1	-1
659.557	1	5
659.726	1	2
659.895	1	-8
660.065	1	-4
660.234	1	-1
660.404	1	4
660.573	1	-3
660.743	1	9
660.912	1	5
661.081	1	17
661.251	1	1
661.420	1	7
661.590	1	4
661.759	1	4
661.929	1	9
662.098	1	5
662.267	1	4
662.437	1	11
662.606	1	3
662.776	1	7
662.945	1	0
663.115	1	4
663.284	1	-4
663.453	1	4
663.623	1	4
663.792	1	15
663.962	1	3
664.131	1	6
664.300	1	10
664.470	1	11
664.639	1	8
664.809	1	8
664.978	1	14
665.148	1	2
665.317	1	8
665.486	1	10
665.656	1	9
665.825	1	9
665.995	1	-1
666.164	1	-1
666.333	1	6
666.503	1	2
666.672	1	-8
666.842	1	-5
667.011	1	-6
667.180	1	4
667.350	1	-5
667.519	1	10
667.689	1	4
667.858	1	2
668.027	1	10
668.197	1	2
668.366	1	-4
668.536	1	4
668.705	1	0
668.874	1	-2
669.044	1	4
669.213	1	14
669.382	1	-4
669.552	1	14
669.721	1	11
669.891	1	13
670.060	1	4
670.229	1	13
670.399	1	1
670.568	1	10
670.738	1	0
670.907	1	-2
671.076	1	-4
671.246	1	2
671.415	1	4
671.584	1	1
671.754	1	-8
671.923	1	7
672.093	1	8
672.262	1	-10
672.431	1	4
672.601	1	-2
672.770	1	-6
672.939	1	7
673.109	1	3
673.278	1	9
673.448	1	16
673.617	1	-2
673.786	1	10
