325.333	1	5
325.504	1	11
325.675	1	11
325.846	1	5
326.017	1	11
326.188	1	10
326.359	1	-2
326.531	1	-8
326.702	1	2
326.873	1	12
327.044	1	-5
327.215	1	0
327.386	1	18
327.557	1	-1
327.728	1	2
327.899	1	6
328.070	1	16
328.241	1	14
328.412	1	-6
328.583	1	9
328.754	1	4
328.926	1	7
329.097	1	-5
329.268	1	15
329.439	1	-3
329.610	1	13
329.781	1	1
329.952	1	7
330.123	1	8
330.294	1	0
330.465	1	4
330.636	1	18
330.807	1	4
330.978	1	5
331.149	1	-4
331.320	1	5
331.492	1	13
331.663	1	2
331.834	1	16
332.005	1	16
332.176	1	23
332.347	1	13
332.518	1	9
332.689	1	18
332.860	1	-1
333.031	1	14
333.202	1	1
333.373	1	12
333.544	1	11
333.715	1	14
333.886	1	0
334.057	1	9
334.228	1	-7
334.399	1	5
334.570	1	16
334.741	1	5
334.912	1	23
335.084	1	21
335.255	1	12
335.426	1	7
335.597	1	12
335.768	1	8
335.939	1	17
336.110	1	6
336.281	1	7
336.452	1	7
336.623	1	8
336.794	1	16
336.965	1	17
337.136	1	6
337.307	1	15
337.478	1	9
337.649	1	19
337.820	1	10
337.991	1	6
338.162	1	6
338.333	1	10
338.504	1	6
338.675	1	14
338.846	1	9
339.017	1	13
339.188	1	7
339.359	1	4
339.530	1	18
339.701	1	7
339.872	1	19
340.043	1	7
340.214	1	4
340.385	1	7
340.556	1	-2
340.727	1	15
340.898	1	23
341.069	1	10
341.240	1	14
341.411	1	8
341.582	1	18
341.753	1	8
341.924	1	5
342.095	1	16
342.266	1	22
342.437	1	9
342.608	1	15
342.779	1	13
342.950	1	19
343.121	1	20
343.292	1	12
343.463	1	9
343.634	1	6
343.805	1	25
343.976	1	25
344.147	1	13
344.318	1	6
344.489	1	9
344.660	1	16
344.831	1	11
345.002	1	4
345.173	1	16
345.344	1	11
345.515	1	11
345.686	1	21
345.857	1	20
346.028	1	26
346.199	1	15
346.370	1	12
346.541	1	22
346.712	1	4
346.883	1	18
347.054	1	6
347.225	1	15
347.396	1	25
347.567	1	10
347.738	1	12
347.909	1	27
348.080	1	12
348.251	1	21
348.422	1	20
348.593	1	22
348.764	1	19
348.935	1	20
349.106	1	14
349.277	1	18
349.448	1	19
349.619	1	23
349.790	1	10
349.961	1	26
350.132	1	22
350.303	1	17
350.474	1	23
350.645	1	25
350.816	1	20
350.987	1	22
351.157	1	15
351.328	1	23
351.499	1	24
351.670	1	16
351.841	1	25
352.012	1	25
352.183	1	26
352.354	1	21
352.525	1	26
352.696	1	25
352.867	1	26
353.038	1	25
353.209	1	28
353.380	1	18
353.551	1	16
353.722	1	12
353.893	1	22
354.064	1	41
354.235	1	20
354.406	1	10
354.576	1	30
354.747	1	11
354.918	1	22
355.089	1	31
355.260	1	16
355.431	1	32
355.602	1	16
355.773	1	27
355.944	1	27
356.115	1	24
356.286	1	19
356.457	1	16
356.628	1	29
356.799	1	29
356.970	1	27
357.141	1	17
357.311	1	15
357.482	1	20
357.653	1	21
357.824	1	23
357.995	1	22
358.166	1	14
358.337	1	27
358.508	1	25
358.679	1	31
358.850	1	24
359.021	1	27
359.192	1	24
359.363	1	31
359.533	1	30
359.704	1	13
359.875	1	33
360.046	1	21
360.217	1	9
360.388	1	32
360.559	1	22
360.730	1	40
360.901	1	33
361.072	1	32
361.243	1	39
361.414	1	23
361.584	1	15
361.755	1	39
361.926	1	20
362.097	1	28
362.268	1	29
362.439	1	19
362.610	1	25
362.781	1	28
362.952	1	25
363.123	1	29
363.293	1	30
363.464	1	38
363.635	1	31
363.806	1	28
363.977	1	33
364.148	1	24
364.319	1	36
364.490	1	27
364.661	1	23
364.832	1	36
365.002	1	30
365.173	1	26
365.344	1	38
365.515	1	28
365.686	1	26
365.857	1	33
366.028	1	33
366.199	1	27
366.370	1	33
366.540	1	26
366.711	1	2
366.882	1	26
367.053	1	22
367.224	1	47
367.395	1	34
367.566	1	37
367.737	1	34
367.908	1	26
368.078	1	30
368.249	1	28
368.420	1	15
368.591	1	19
368.762	1	24
368.933	1	25
369.104	1	23
369.274	1	33
369.445	1	29
369.616	1	35
369.787	1	36
369.958	1	38
370.129	1	24
370.300	1	33
370.471	1	26
370.641	1	38
370.812	1	29
370.983	1	40
371.154	1	31
371.325	1	26
371.496	1	29
371.667	1	39
371.837	1	22
372.008	1	35
372.179	1	35
372.350	1	36
372.521	1	29
372.692	1	28
372.863	1	32
373.033	1	13
373.204	1	16
373.375	1	27
373.546	1	25
373.717	1	28
373.888	1	34
374.059	1	43
374.229	1	35
374.400	1	28
374.571	1	34
374.742	1	32
374.913	1	42
375.084	1	37
375.254	1	35
375.425	1	41
375.596	1	39
375.767	1	38
375.938	1	38
376.109	1	42
376.279	1	31
376.450	1	40
376.621	1	29
376.792	1	25
376.963	1	26
377.134	1	36
377.304	1	30
377.475	1	26
377.646	1	34
377.817	1	21
377.988	1	29
378.159	1	38
378.329	1	48
378.500	1	38
378.671	1	40
378.842	1	33
379.013	1	24
379.184	1	30
379.354	1	51
379.525	1	28
379.696	1	48
379.867	1	42
380.038	1	36
380.209	1	46
380.379	1	37
380.550	1	37
380.721	1	38
380.892	1	42
381.063	1	36
381.233	1	44
381.404	1	40
381.575	1	49
381.746	1	46
381.917	1	33
382.087	1	45
382.258	1	26
382.429	1	39
382.600	1	41
382.771	1	28
382.941	1	34
383.112	1	38
383.283	1	40
383.454	1	41
383.625	1	36
383.795	1	40
383.966	1	34
384.137	1	35
384.308	1	40
384.479	1	42
384.649	1	32
384.820	1	42
384.991	1	37
385.162	1	33
385.333	1	40
385.503	1	42
385.674	1	38
385.845	1	41
386.016	1	37
386.187	1	38
386.357	1	45
386.528	1	43
386.699	1	41
386.870	1	53
387.041	1	46
387.211	1	40
387.382	1	48
387.553	1	56
387.724	1	31
387.894	1	45
388.065	1	41
388.236	1	39
388.407	1	37
388.578	1	35
388.748	1	44
388.919	1	56
389.090	1	38
389.261	1	41
389.431	1	39
389.602	1	43
389.773	1	38
389.944	1	48
390.114	1	47
390.285	1	39
390.456	1	43
390.627	1	51
390.798	1	42
390.968	1	30
391.139	1	40
391.310	1	36
391.481	1	47
391.651	1	42
391.822	1	40
391.993	1	45
392.164	1	37
392.334	1	42
392.505	1	39
392.676	1	43
392.847	1	50
393.017	1	58
393.188	1	41
393.359	1	37
393.530	1	41
393.700	1	41
393.871	1	40
394.042	1	39
394.213	1	42
394.383	1	45
394.554	1	44
394.725	1	56
394.896	1	28
395.066	1	57
395.237	1	43
395.408	1	41
395.579	1	35
395.749	1	49
395.920	1	40
396.091	1	47
396.262	1	39
396.432	1	31
396.603	1	49
396.774	1	56
396.945	1	46
397.115	1	47
397.286	1	50
397.457	1	40
397.627	1	48
397.798	1	47
397.969	1	31
398.140	1	43
398.310	1	36
398.481	1	49
398.652	1	43
398.823	1	43
398.993	1	42
399.164	1	40
399.335	1	55
399.505	1	54
399.676	1	47
399.847	1	43
400.018	1	42
400.188	1	39
400.359	1	47
400.530	1	47
400.700	1	42
400.871	1	50
401.042	1	42
401.213	1	50
401.383	1	45
401.554	1	58
401.725	1	48
401.895	1	51
402.066	1	54
402.237	1	46
402.408	1	52
402.578	1	33
402.749	1	52
402.920	1	52
403.090	1	43
403.261	1	42
403.432	1	45
403.603	1	64
403.773	1	54
403.944	1	56
404.115	1	57
404.285	1	50
404.456	1	39
404.627	1	41
404.797	1	38
404.968	1	46
405.139	1	49
405.310	1	58
405.480	1	58
405.651	1	39
405.822	1	38
405.992	1	32
406.163	1	44
406.334	1	31
406.504	1	52
406.675	1	55
406.846	1	41
407.016	1	51
407.187	1	55
407.358	1	31
407.528	1	45
407.699	1	45
407.870	1	31
408.041	1	55
408.211	1	55
408.382	1	41
408.553	1	33
408.723	1	52
408.894	1	40
409.065	1	38
409.235	1	51
409.406	1	50
409.577	1	38
409.747	1	62
409.918	1	53
410.089	1	42
410.259	1	49
410.430	1	55
410.601	1	52
410.771	1	44
410.942	1	52
411.113	1	49
411.283	1	47
411.454	1	53
411.625	1	52
411.795	1	52
411.966	1	56
412.137	1	40
412.307	1	46
412.478	1	45
412.649	1	52
412.819	1	44
412.990	1	50
413.161	1	63
413.331	1	47
413.502	1	49
413.672	1	39
413.843	1	45
414.014	1	42
414.184	1	51
414.355	1	43
414.526	1	44
414.696	1	58
414.867	1	50
415.038	1	44
415.208	1	44
415.379	1	55
415.550	1	50
415.720	1	34
415.891	1	49
416.062	1	45
416.232	1	50
416.403	1	42
416.573	1	45
416.744	1	42
416.915	1	53
417.085	1	58
417.256	1	48
417.427	1	49
417.597	1	45
417.768	1	37
417.939	1	50
418.109	1	49
418.280	1	54
418.450	1	50
418.621	1	39
418.792	1	51
418.962	1	53
419.133	1	59
419.304	1	56
419.474	1	45
419.645	1	46
419.815	1	46
419.986	1	52
420.157	1	55
420.327	1	46
420.498	1	56
420.669	1	38
420.839	1	51
421.010	1	55
421.180	1	46
421.351	1	48
421.522	1	47
421.692	1	42
421.863	1	58
422.033	1	54
422.204	1	54
422.375	1	45
422.545	1	47
422.716	1	48
422.886	1	40
423.057	1	46
423.228	1	42
423.398	1	37
423.569	1	47
423.740	1	26
423.910	1	39
424.081	1	44
424.251	1	41
424.422	1	56
424.593	1	43
424.763	1	45
424.934	1	45
425.104	1	52
425.275	1	41
425.445	1	47
425.616	1	38
425.787	1	38
425.957	1	47
426.128	1	47
426.298	1	50
426.469	1	35
426.640	1	45
426.810	1	40
426.981	1	41
427.151	1	39
427.322	1	49
427.493	1	47
427.663	1	50
427.834	1	40
428.004	1	44
428.175	1	45
428.345	1	35
428.516	1	30
428.687	1	38
428.857	1	39
429.028	1	36
429.198	1	51
429.369	1	48
429.540	1	45
429.710	1	30
429.881	1	48
430.051	1	42
430.222	1	35
430.392	1	33
430.563	1	49
430.734	1	47
430.904	1	41
431.075	1	49
431.245	1	37
431.416	1	55
431.586	1	35
431.757	1	33
431.927	1	39
432.098	1	44
432.269	1	42
432.439	1	45
432.610	1	39
432.780	1	50
432.951	1	40
433.121	1	47
433.292	1	45
433.462	1	46
433.633	1	36
433.804	1	48
433.974	1	55
434.145	1	56
434.315	1	38
434.486	1	37
434.656	1	44
434.827	1	52
434.997	1	31
435.168	1	49
435.339	1	40
435.509	1	36
435.680	1	41
435.850	1	48
436.021	1	39
436.191	1	37
436.362	1	46
436.532	1	40
436.703	1	42
436.873	1	47
437.044	1	28
437.214	1	35
437.385	1	37
437.556	1	41
437.726	1	59
437.897	1	41
438.067	1	40
438.238	1	46
438.408	1	43
438.579	1	29
438.749	1	39
438.920	1	31
439.090	1	57
439.261	1	33
439.431	1	36
439.602	1	39
439.772	1	34
439.943	1	45
440.113	1	49
440.284	1	49
440.455	1	36
440.625	1	38
440.796	1	34
440.966	1	26
441.137	1	47
441.307	1	34
441.478	1	42
441.648	1	40
441.819	1	49
441.989	1	43
442.160	1	44
442.330	1	42
442.501	1	38
442.671	1	29
442.842	1	28
443.012	1	32
443.183	1	45
443.353	1	30
443.524	1	42
443.694	1	45
443.865	1	45
444.035	1	35
444.206	1	37
444.376	1	19
444.547	1	48
444.717	1	40
444.888	1	34
445.058	1	49
445.229	1	40
445.399	1	33
445.570	1	31
445.740	1	42
445.911	1	26
446.081	1	20
446.252	1	51
446.422	1	17
446.593	1	33
446.763	1	43
446.934	1	28
447.104	1	48
447.275	1	42
447.445	1	41
447.616	1	41
447.786	1	34
447.957	1	32
448.127	1	34
448.298	1	37
448.468	1	21
448.639	1	35
448.809	1	38
448.979	1	24
449.150	1	41
449.320	1	47
449.491	1	35
449.661	1	36
449.832	1	39
450.002	1	49
450.173	1	40
450.343	1	35
450.514	1	26
450.684	1	31
450.855	1	32
451.025	1	34
451.196	1	37
451.366	1	34
451.537	1	39
451.707	1	29
451.878	1	34
452.048	1	44
452.218	1	40
452.389	1	39
452.559	1	28
452.730	1	51
452.900	1	37
453.071	1	14
453.241	1	32
453.412	1	24
453.582	1	27
453.753	1	38
453.923	1	31
454.093	1	30
454.264	1	42
454.434	1	25
454.605	1	32
454.775	1	33
454.946	1	37
455.116	1	40
455.287	1	22
455.457	1	24
455.628	1	26
455.798	1	24
455.968	1	48
456.139	1	25
456.309	1	21
456.480	1	20
456.650	1	17
456.821	1	20
456.991	1	32
457.161	1	24
457.332	1	30
457.502	1	27
457.673	1	31
457.843	1	25
458.014	1	32
458.184	1	24
458.355	1	26
458.525	1	45
458.695	1	27
458.866	1	25
459.036	1	38
459.207	1	13
459.377	1	14
459.548	1	37
459.718	1	18
459.888	1	26
460.059	1	38
460.229	1	31
460.400	1	27
460.570	1	33
460.740	1	28
460.911	1	23
461.081	1	41
461.252	1	26
461.422	1	25
461.593	1	29
461.763	1	39
461.933	1	27
462.104	1	35
462.274	1	27
462.445	1	26
462.615	1	32
462.785	1	25
462.956	1	31
463.126	1	39
463.297	1	23
463.467	1	28
463.638	1	30
463.808	1	18
463.978	1	21
464.149	1	19
464.319	1	22
464.490	1	42
464.660	1	24
464.830	1	19
465.001	1	24
465.171	1	24
465.342	1	27
465.512	1	14
465.682	1	22
465.853	1	27
466.023	1	25
466.194	1	27
466.364	1	35
466.534	1	18
466.705	1	18
466.875	1	23
467.045	1	24
467.216	1	38
467.386	1	18
467.557	1	17
467.727	1	22
467.897	1	15
468.068	1	19
468.238	1	19
468.409	1	30
468.579	1	22
468.749	1	22
468.920	1	24
469.090	1	22
469.260	1	18
469.431	1	22
469.601	1	19
469.772	1	21
469.942	1	16
470.112	1	30
470.283	1	18
470.453	1	30
470.623	1	18
470.794	1	17
470.964	1	28
471.135	1	17
471.305	1	14
471.475	1	32
471.646	1	12
471.816	1	23
471.986	1	19
472.157	1	24
472.327	1	10
472.497	1	25
472.668	1	10
472.838	1	20
473.009	1	27
473.179	1	23
473.349	1	10
473.520	1	28
473.690	1	21
473.860	1	18
474.031	1	21
474.201	1	28
474.371	1	18
474.542	1	29
474.712	1	14
474.882	1	24
475.053	1	26
475.223	1	16
475.394	1	27
475.564	1	22
475.734	1	22
475.905	1	25
476.075	1	14
476.245	1	20
476.416	1	27
476.586	1	29
476.756	1	26
476.927	1	25
477.097	1	22
477.267	1	14
477.438	1	22
477.608	1	14
477.778	1	23
477.949	1	20
478.119	1	31
478.289	1	21
478.460	1	24
478.630	1	26
478.800	1	20
478.971	1	25
479.141	1	25
479.311	1	19
479.482	1	21
479.652	1	14
479.822	1	16
479.993	1	27
480.163	1	28
480.333	1	24
480.504	1	21
480.674	1	17
480.844	1	14
481.015	1	23
481.185	1	20
481.355	1	25
481.525	1	20
481.696	1	19
481.866	1	29
482.036	1	17
482.207	1	16
482.377	1	16
482.547	1	21
482.718	1	17
482.888	1	23
483.058	1	16
483.229	1	11
483.399	1	11
483.569	1	13
483.740	1	22
483.910	1	20
484.080	1	15
484.250	1	22
484.421	1	20
484.591	1	21
484.761	1	27
484.932	1	25
485.102	1	26
485.272	1	19
485.443	1	19
485.613	1	28
485.783	1	15
485.953	1	20
486.124	1	24
486.294	1	26
486.464	1	7
486.635	1	26
486.805	1	24
486.975	1	8
487.146	1	19
487.316	1	19
487.486	1	22
487.656	1	19
487.827	1	14
487.997	1	10
488.167	1	10
488.338	1	24
488.508	1	8
488.678	1	13
488.848	1	31
489.019	1	15
489.189	1	13
489.359	1	11
489.529	1	20
489.700	1	11
489.870	1	27
490.040	1	4
490.211	1	10
490.381	1	24
490.551	1	17
490.721	1	23
490.892	1	13
491.062	1	15
491.232	1	18
491.402	1	12
491.573	1	-1
491.743	1	22
491.913	1	14
492.084	1	30
492.254	1	15
492.424	1	14
492.594	1	20
492.765	1	13
492.935	1	23
493.105	1	16
493.275	1	17
493.446	1	22
493.616	1	20
493.786	1	13
493.956	1	17
494.127	1	20
494.297	1	15
494.467	1	15
494.637	1	9
494.808	1	15
494.978	1	4
495.148	1	14
495.318	1	8
495.489	1	22
495.659	1	18
495.829	1	11
495.999	1	3
496.170	1	17
496.340	1	12
496.510	1	11
496.680	1	1
496.851	1	13
497.021	1	10
497.191	1	13
497.361	1	16
497.532	1	8
497.702	1	20
497.872	1	12
498.042	1	19
498.213	1	13
498.383	1	17
498.553	1	10
498.723	1	11
498.894	1	13
499.064	1	4
499.234	1	12
499.404	1	18
499.574	1	13
499.745	1	25
499.915	1	12
500.085	1	11
500.255	1	20
500.426	1	15
500.596	1	18
500.766	1	7
500.936	1	10
501.106	1	12
501.277	1	14
501.447	1	13
501.617	1	18
501.787	1	-1
501.958	1	2
502.128	1	8
502.298	1	15
502.468	1	17
502.638	1	11
502.809	1	19
502.979	1	7
503.149	1	2
503.319	1	4
503.489	1	2
503.660	1	16
503.830	1	17
504.000	1	19
504.170	1	5
504.340	1	14
504.511	1	19
504.681	1	6
504.851	1	16
505.021	1	11
505.192	1	3
505.362	1	17
505.532	1	8
505.702	1	14
505.872	1	13
506.043	1	6
506.213	1	3
506.383	1	2
506.553	1	13
506.723	1	12
506.893	1	13
507.064	1	16
507.234	1	8
507.404	1	7
507.574	1	12
507.744	1	6
507.915	1	15
508.085	1	17
508.255	1	10
508.425	1	1
508.595	1	16
508.766	1	14
508.936	1	-3
509.106	1	25
509.276	1	17
509.446	1	12
509.616	1	12
509.787	1	1
509.957	1	7
510.127	1	10
510.297	1	9
510.467	1	4
510.638	1	11
510.808	1	1
510.978	1	9
511.148	1	15
511.318	1	-2
511.488	1	2
511.659	1	11
511.829	1	5
511.999	1	7
512.169	1	2
512.339	1	7
512.509	1	5
512.680	1	1
512.850	1	1
513.020	1	14
513.190	1	10
513.360	1	3
513.530	1	0
513.700	1	14
513.871	1	1
514.041	1	10
514.211	1	10
514.381	1	12
514.551	1	11
514.721	1	5
514.892	1	14
515.062	1	9
515.232	1	8
515.402	1	5
515.572	1	7
515.742	1	11
515.912	1	13
516.083	1	10
516.253	1	17
516.423	1	7
516.593	1	4
516.763	1	11
516.933	1	1
517.104	1	11
517.274	1	8
517.444	1	9
517.614	1	3
517.784	1	16
517.954	1	24
518.124	1	10
518.294	1	5
518.465	1	1
518.635	1	9
518.805	1	-11
518.975	1	2
519.145	1	9
519.315	1	13
519.485	1	6
519.656	1	19
519.826	1	13
519.996	1	2
520.166	1	13
520.336	1	20
520.506	1	10
520.676	1	-4
520.846	1	12
521.017	1	18
521.187	1	9
521.357	1	14
521.527	1	6
521.697	1	8
521.867	1	11
522.037	1	11
522.207	1	14
522.377	1	7
522.548	1	1
522.718	1	5
522.888	1	21
523.058	1	5
523.228	1	14
523.398	1	4
523.568	1	14
523.738	1	7
523.909	1	10
524.079	1	9
524.249	1	16
524.419	1	8
524.589	1	8
524.759	1	3
524.929	1	5
525.099	1	6
525.269	1	5
525.439	1	6
525.610	1	25
525.780	1	15
525.950	1	3
526.120	1	5
526.290	1	8
526.460	1	5
526.630	1	12
526.800	1	7
526.970	1	0
527.140	1	18
527.311	1	5
527.481	1	3
527.651	1	11
527.821	1	-4
527.991	1	12
528.161	1	17
528.331	1	3
528.501	1	8
528.671	1	-2
528.841	1	10
529.011	1	5
529.181	1	12
529.352	1	9
529.522	1	4
529.692	1	10
529.862	1	8
530.032	1	13
530.202	1	11
530.372	1	2
530.542	1	8
530.712	1	10
530.882	1	7
531.052	1	5
531.222	1	8
531.392	1	1
531.563	1	17
531.733	1	5
531.903	1	9
532.073	1	13
532.243	1	8
532.413	1	17
532.583	1	5
532.753	1	-3
532.923	1	-7
533.093	1	6
533.263	1	4
533.433	1	7
533.603	1	5
533.773	1	9
533.943	1	11
534.113	1	4
534.284	1	2
534.454	1	10
534.624	1	14
534.794	1	-1
534.964	1	9
535.134	1	7
535.304	1	4
535.474	1	15
535.644	1	8
535.814	1	-7
535.984	1	-4
536.154	1	-7
536.324	1	8
536.494	1	14
536.664	1	10
536.834	1	14
537.004	1	-5
537.174	1	18
537.344	1	2
537.514	1	-9
537.685	1	-5
537.855	1	16
538.025	1	10
538.195	1	0
538.365	1	13
538.535	1	6
538.705	1	7
538.875	1	3
539.045	1	5
539.215	1	8
539.385	1	3
539.555	1	9
539.725	1	-4
539.895	1	3
540.065	1	22
540.235	1	12
540.405	1	2
540.575	1	1
540.745	1	5
540.915	1	12
541.085	1	6
541.255	1	-4
541.425	1	9
541.595	1	-1
541.765	1	11
541.935	1	-3
542.105	1	5
542.275	1	12
542.445	1	1
542.615	1	10
542.785	1	5
542.955	1	-1
543.125	1	-8
543.295	1	6
543.465	1	10
543.635	1	3
543.805	1	12
543.975	1	7
544.145	1	12
544.315	1	4
544.485	1	10
544.655	1	9
544.825	1	-8
544.995	1	10
545.165	1	3
545.335	1	8
545.505	1	-5
545.675	1	2
545.845	1	8
546.015	1	13
546.185	1	10
546.355	1	2
546.525	1	0
546.695	1	15
546.865	1	1
547.035	1	11
547.205	1	-1
547.375	1	5
547.545	1	17
547.715	1	-6
547.885	1	15
548.055	1	-4
548.225	1	4
548.395	1	1
548.565	1	11
548.735	1	6
548.905	1	5
549.075	1	9
549.245	1	4
549.415	1	-5
549.585	1	11
549.755	1	6
549.925	1	-5
550.095	1	6
550.265	1	-1
550.435	1	3
550.605	1	0
550.775	1	9
550.945	1	11
551.115	1	4
551.285	1	9
551.455	1	-4
551.625	1	8
551.795	1	16
551.965	1	15
552.135	1	8
552.305	1	3
552.475	1	-6
552.645	1	0
552.815	1	9
552.985	1	11
553.155	1	11
553.325	1	2
553.495	1	-3
553.665	1	-2
553.835	1	-1
554.004	1	5
554.174	1	1
554.344	1	0
554.514	1	4
554.684	1	3
554.854	1	4
555.024	1	4
555.194	1	-4
555.364	1	16
555.534	1	10
555.704	1	2
555.874	1	0
556.044	1	12
556.214	1	0
556.384	1	5
556.554	1	12
556.724	1	9
556.894	1	2
557.064	1	5
557.234	1	-6
557.404	1	7
557.573	1	1
557.743	1	6
557.913	1	5
558.083	1	3
558.253	1	10
558.423	1	-3
558.593	1	11
558.763	1	1
558.933	1	7
559.103	1	8
559.273	1	4
559.443	1	5
559.613	1	1
559.783	1	1
559.953	1	3
560.122	1	12
560.292	1	5
560.462	1	13
560.632	1	5
560.802	1	4
560.972	1	7
561.142	1	4
561.312	1	-5
561.482	1	9
561.652	1	13
561.822	1	1
561.992	1	-1
562.162	1	0
562.331	1	3
562.501	1	-7
562.671	1	6
562.841	1	-7
563.011	1	3
563.181	1	5
563.351	1	-2
563.521	1	6
563.691	1	-2
563.861	1	5
564.031	1	12
564.201	1	16
564.370	1	1
564.540	1	7
564.710	1	4
564.880	1	8
565.050	1	6
565.220	1	-5
565.390	1	4
565.560	1	5
565.730	1	6
565.900	1	7
566.069	1	11
566.239	1	18
566.409	1	10
566.579	1	9
566.749	1	3
566.919	1	5
567.089	1	8
567.259	1	8
567.429	1	2
567.599	1	0
567.768	1	-5
567.938	1	9
568.108	1	10
568.278	1	-3
568.448	1	3
568.618	1	-1
568.788	1	8
568.958	1	0
569.128	1	11
569.297	1	0
569.467	1	1
569.637	1	10
569.807	1	5
569.977	1	11
570.147	1	17
570.317	1	2
570.487	1	-4
570.656	1	15
570.826	1	-4
570.996	1	0
571.166	1	8
571.336	1	5
571.506	1	1
571.676	1	12
571.846	1	6
572.015	1	3
572.185	1	6
572.355	1	7
572.525	1	12
572.695	1	3
572.865	1	-3
573.035	1	14
573.205	1	4
573.374	1	-5
573.544	1	-4
573.714	1	22
573.884	1	3
574.054	1	9
574.224	1	2
574.394	1	0
574.563	1	-8
574.733	1	-3
574.903	1	5
575.073	1	-7
575.243	1	0
575.413	1	5
575.583	1	-1
575.752	1	4
575.922	1	3
576.092	1	11
576.262	1	8
576.432	1	13
576.602	1	-4
576.772	1	8
576.941	1	6
577.111	1	0
577.281	1	0
577.451	1	0
577.621	1	10
577.791	1	7
577.960	1	5
578.130	1	7
578.300	1	4
578.470	1	11
578.640	1	8
578.810	1	7
578.979	1	4
579.149	1	2
579.319	1	1
579.489	1	3
579.659	1	3
579.829	1	2
579.998	1	16
580.168	1	3
580.338	1	2
580.508	1	-1
580.678	1	4
580.848	1	0
581.017	1	5
581.187	1	0
581.357	1	-4
581.527	1	17
581.697	1	9
581.867	1	8
582.036	1	-2
582.206	1	4
582.376	1	13
582.546	1	5
582.716	1	-3
582.885	1	-1
583.055	1	0
583.225	1	-5
583.395	1	3
583.565	1	-3
583.735	1	10
583.904	1	8
584.074	1	6
584.244	1	8
584.414	1	1
584.584	1	9
584.753	1	3
584.923	1	-3
585.093	1	-6
585.263	1	-3
585.433	1	-3
585.602	1	-11
585.772	1	-2
585.942	1	-4
586.112	1	3
586.282	1	2
586.451	1	2
586.621	1	-5
586.791	1	-6
586.961	1	8
587.131	1	10
587.300	1	-3
587.470	1	4
587.640	1	8
587.810	1	-2
587.980	1	2
588.149	1	2
588.319	1	-3
588.489	1	0
588.659	1	1
588.829	1	-1
588.998	1	10
589.168	1	11
589.338	1	-7
589.508	1	9
589.677	1	-1
589.847	1	-14
590.017	1	20
590.187	1	2
590.357	1	6
590.526	1	13
590.696	1	5
590.866	1	11
591.036	1	-4
591.205	1	16
591.375	1	-10
591.545	1	5
591.715	1	8
591.885	1	-1
592.054	1	-4
592.224	1	-5
592.394	1	-1
592.564	1	6
592.733	1	4
592.903	1	10
593.073	1	5
593.243	1	3
593.412	1	6
593.582	1	0
593.752	1	1
593.922	1	4
594.091	1	-3
594.261	1	-1
594.431	1	1
594.601	1	17
594.771	1	6
594.940	1	1
595.110	1	0
595.280	1	9
595.450	1	-1
595.619	1	0
595.789	1	17
595.959	1	9
596.129	1	-2
596.298	1	5
596.468	1	9
596.638	1	1
596.808	1	-8
596.977	1	8
597.147	1	11
597.317	1	-4
597.487	1	2
597.656	1	11
597.826	1	-6
597.996	1	3
598.166	1	1
598.335	1	-8
598.505	1	4
598.675	1	0
598.844	1	3
599.014	1	5
599.184	1	6
599.354	1	2
599.523	1	11
599.693	1	6
599.863	1	10
600.033	1	-3
600.202	1	-1
600.372	1	9
600.542	1	7
600.712	1	1
600.881	1	-6
601.051	1	12
601.221	1	15
601.390	1	-5
601.560	1	15
601.730	1	9
601.900	1	1
602.069	1	13
602.239	1	-3
602.409	1	-5
602.578	1	10
602.748	1	0
602.918	1	7
603.088	1	4
603.257	1	7
603.427	1	1
603.597	1	9
603.767	1	13
603.936	1	13
604.106	1	2
604.276	1	2
604.445	1	6
604.615	1	-3
604.785	1	13
604.954	1	5
605.124	1	9
605.294	1	0
605.464	1	-4
605.633	1	6
605.803	1	1
605.973	1	4
606.142	1	5
606.312	1	12
606.482	1	4
606.652	1	16
606.821	1	-2
606.991	1	-6
607.161	1	3
607.330	1	9
607.500	1	6
607.670	1	-8
607.839	1	9
608.009	1	13
608.179	1	8
608.348	1	9
608.518	1	-2
608.688	1	11
608.858	1	-5
609.027	1	1
609.197	1	11
609.367	1	12
609.536	1	2
609.706	1	2
609.876	1	5
610.045	1	3
610.215	1	5
610.385	1	1
610.554	1	0
610.724	1	4
610.894	1	4
611.063	1	7
611.233	1	5
611.403	1	-3
611.572	1	7
611.742	1	7
611.912	1	6
612.081	1	-6
612.251	1	12
612.421	1	3
612.590	1	-2
612.760	1	-6
612.930	1	5
613.099	1	4
613.269	1	7
613.439	1	10
613.608	1	-2
613.778	1	8
613.948	1	5
614.117	1	11
614.287	1	2
614.457	1	6
614.626	1	-5
614.796	1	9
614.966	1	4
615.135	1	10
615.305	1	4
615.475	1	0
615.644	1	9
615.814	1	1
615.984	1	-3
616.153	1	1
616.323	1	5
616.493	1	0
616.662	1	13
616.832	1	6
617.002	1	-3
617.171	1	-2
617.341	1	-8
617.511	1	-3
617.680	1	3
617.850	1	12
618.019	1	13
618.189	1	17
618.359	1	6
618.528	1	0
618.698	1	6
618.868	1	-7
619.037	1	-3
619.207	1	0
619.377	1	-2
619.546	1	1
619.716	1	11
619.885	1	7
620.055	1	1
620.225	1	10
620.394	1	1
620.564	1	10
620.734	1	5
620.903	1	-1
621.073	1	10
621.242	1	5
621.412	1	-1
621.582	1	3
621.751	1	15
621.921	1	6
622.091	1	-3
622.260	1	4
622.430	1	9
622.599	1	-2
622.769	1	5
622.939	1	13
623.108	1	2
623.278	1	-7
623.448	1	1
623.617	1	2
623.787	1	11
623.956	1	11
624.126	1	-1
624.296	1	-1
624.465	1	5
624.635	1	9
624.804	1	9
624.974	1	8
625.144	1	8
625.313	1	5
625.483	1	0
625.652	1	7
625.822	1	6
625.992	1	7
626.161	1	8
626.331	1	0
626.501	1	8
626.670	1	-1
626.840	1	4
627.009	1	4
627.179	1	14
627.348	1	11
627.518	1	4
627.688	1	0
627.857	1	7
628.027	1	-1
628.196	1	-2
628.366	1	17
628.536	1	-5
628.705	1	-5
628.875	1	6
629.044	1	0
629.214	1	15
629.384	1	15
629.553	1	14
629.723	1	5
629.892	1	2
630.062	1	4
630.232	1	9
630.401	1	8
630.571	1	9
630.740	1	11
630.910	1	13
631.079	1	5
631.249	1	5
631.419	1	6
631.588	1	-6
631.758	1	8
631.927	1	-2
632.097	1	4
632.266	1	-5
632.436	1	4
632.606	1	0
632.775	1	9
632.945	1	6
633.114	1	6
633.284	1	11
633.453	1	-8
633.623	1	2
633.793	1	17
633.962	1	0
634.132	1	7
634.301	1	-1
634.471	1	12
634.640	1	9
634.810	1	5
634.979	1	12
635.149	1	15
635.319	1	8
635.488	1	6
635.658	1	2
635.827	1	5
635.997	1	3
636.166	1	5
636.336	1	6
636.505	1	14
636.675	1	-1
636.845	1	10
637.014	1	6
637.184	1	10
637.353	1	11
637.523	1	11
637.692	1	8
637.862	1	13
638.031	1	0
638.201	1	11
638.370	1	3
638.540	1	4
638.710	1	9
638.879	1	-1
639.049	1	13
639.218	1	3
639.388	1	1
639.557	1	-2
639.727	1	5
639.896	1	-7
640.066	1	10
640.235	1	6
640.405	1	8
640.574	1	8
640.744	1	5
640.914	1	10
641.083	1	4
641.253	1	-6
641.422	1	6
641.592	1	13
641.761	1	-3
641.931	1	4
642.100	1	22
642.270	1	4
642.439	1	15
642.609	1	11
642.778	1	7
642.948	1	-4
643.117	1	16
643.287	1	8
643.456	1	6
643.626	1	10
643.795	1	3
643.965	1	3
644.134	1	2
644.304	1	10
644.473	1	15
644.643	1	13
644.812	1	5
644.982	1	-1
645.151	1	10
645.321	1	-1
645.490	1	20
645.660	1	0
645.829	1	-1
645.999	1	0
646.168	1	6
646.338	1	18
646.507	1	8
646.677	1	8
646.846	1	7
647.016	1	-4
647.185	1	3
647.355	1	-6
647.524	1	14
647.694	1	19
647.863	1	16
648.033	1	5
648.202	1	13
648.372	1	4
648.541	1	11
648.711	1	-5
648.880	1	-3
649.050	1	8
649.219	1	6
649.389	1	11
649.558	1	7
649.728	1	9
649.897	1	2
650.067	1	9
650.236	1	5
650.406	1	6
650.575	1	7
650.745	1	6
650.914	1	10
651.084	1	-3
651.253	1	5
651.423	1	8
651.592	1	8
651.762	1	3
651.931	1	18
652.101	1	3
652.270	1	17
652.440	1	11
652.609	1	3
652.778	1	-2
652.948	1	9
653.117	1	12
653.287	1	1
653.456	1	17
653.626	1	5
653.795	1	13
653.965	1	11
654.134	1	14
654.304	1	-9
654.473	1	14
654.643	1	4
654.812	1	4
654.982	1	1
655.151	1	9
655.320	1	6
655.490	1	6
655.659	1	6
655.829	1	1
655.998	1	-3
656.168	1	-2
656.337	1	4
656.507	1	3
656.676	1	20
656.846	1	11
657.015	1	13
657.184	1	19
657.354	1	9
657.523	1	3
657.693	1	5
657.862	1	4
658.032	1	6
658.201	1	14
658.371	1	7
658.540	1	13
658.709	1	-1
658.879	1	13
659.048	1	9
659.218	1	3
659.387	1	6
659.557	1	6
659.726	1	11
659.895	1	0
660.065	1	3
660.234	1	10
660.404	1	11
660.573	1	1
660.743	1	9
660.912	1	9
661.081	1	18
661.251	1	6
661.420	1	8
661.590	1	3
661.759	1	15
661.929	1	11
662.098	1	23
662.267	1	15
662.437	1	13
662.606	1	1
662.776	1	20
662.945	1	14
663.115	1	7
663.284	1	1
663.453	1	18
663.623	1	10
663.792	1	12
663.962	1	11
664.131	1	16
664.300	1	10
664.470	1	1
664.639	1	13
664.809	1	8
664.978	1	14
665.148	1	12
665.317	1	7
665.486	1	10
665.656	1	5
665.825	1	15
665.995	1	-1
666.164	1	1
666.333	1	13
666.503	1	9
666.672	1	0
666.842	1	7
667.011	1	11
667.180	1	11
667.350	1	0
667.519	1	7
667.689	1	13
667.858	1	10
668.027	1	18
668.197	1	3
668.366	1	2
668.536	1	9
668.705	1	6
668.874	1	5
669.044	1	4
669.213	1	18
669.382	1	-1
669.552	1	16
669.721	1	10
669.891	1	23
670.060	1	11
670.229	1	17
670.399	1	5
670.568	1	20
670.738	1	7
670.907	1	4
671.076	1	0
671.246	1	11
671.415	1	13
671.584	1	2
671.754	1	6
671.923	1	6
672.093	1	13
672.262	1	3
672.431	1	9
672.601	1	8
672.770	1	-4
672.939	1	13
673.109	1	-2
673.278	1	10
673.448	1	8
673.617	1	12
673.786	1	15
