325.333	1	35
325.504	1	34
325.675	1	38
325.846	1	32
326.017	1	28
326.188	1	30
326.359	1	31
326.531	1	20
326.702	1	33
326.873	1	37
327.044	1	24
327.215	1	39
327.386	1	36
327.557	1	34
327.728	1	38
327.899	1	44
328.070	1	49
328.241	1	37
328.412	1	21
328.583	1	47
328.754	1	37
328.926	1	50
329.097	1	33
329.268	1	54
329.439	1	45
329.610	1	41
329.781	1	44
329.952	1	44
330.123	1	47
330.294	1	40
330.465	1	53
330.636	1	41
330.807	1	50
330.978	1	45
331.149	1	42
331.320	1	35
331.492	1	48
331.663	1	48
331.834	1	45
332.005	1	48
332.176	1	57
332.347	1	49
332.518	1	45
332.689	1	51
332.860	1	40
333.031	1	54
333.202	1	47
333.373	1	46
333.544	1	50
333.715	1	55
333.886	1	42
334.057	1	47
334.228	1	48
334.399	1	53
334.570	1	61
334.741	1	51
334.912	1	57
335.084	1	77
335.255	1	65
335.426	1	56
335.597	1	46
335.768	1	52
335.939	1	70
336.110	1	63
336.281	1	55
336.452	1	58
336.623	1	60
336.794	1	65
336.965	1	55
337.136	1	75
337.307	1	60
337.478	1	62
337.649	1	53
337.820	1	64
337.991	1	68
338.162	1	70
338.333	1	70
338.504	1	70
338.675	1	60
338.846	1	65
339.017	1	76
339.188	1	69
339.359	1	66
339.530	1	66
339.701	1	71
339.872	1	78
340.043	1	72
340.214	1	69
340.385	1	75
340.556	1	58
340.727	1	73
340.898	1	78
341.069	1	80
341.240	1	74
341.411	1	78
341.582	1	81
341.753	1	69
341.924	1	77
342.095	1	69
342.266	1	83
342.437	1	84
342.608	1	80
342.779	1	82
342.950	1	92
343.121	1	83
343.292	1	84
343.463	1	84
343.634	1	95
343.805	1	81
343.976	1	73
344.147	1	89
344.318	1	89
344.489	1	87
344.660	1	93
344.831	1	90
345.002	1	87
345.173	1	94
345.344	1	78
345.515	1	91
345.686	1	78
345.857	1	96
346.028	1	92
346.199	1	79
346.370	1	101
346.541	1	84
346.712	1	89
346.883	1	98
347.054	1	96
347.225	1	105
347.396	1	104
347.567	1	88
347.738	1	93
347.909	1	108
348.080	1	93
348.251	1	100
348.422	1	104
348.593	1	106
348.764	1	99
348.935	1	107
349.106	1	94
349.277	1	101
349.448	1	109
349.619	1	106
349.790	1	107
349.961	1	114
350.132	1	100
350.303	1	113
350.474	1	118
350.645	1	120
350.816	1	118
350.987	1	110
351.157	1	115
351.328	1	115
351.499	1	102
351.670	1	107
351.841	1	135
352.012	1	116
352.183	1	127
352.354	1	109
352.525	1	120
352.696	1	118
352.867	1	122
353.038	1	130
353.209	1	124
353.380	1	131
353.551	1	109
353.722	1	121
353.893	1	111
354.064	1	137
354.235	1	134
354.406	1	113
354.576	1	120
354.747	1	116
354.918	1	129
355.089	1	124
355.260	1	132
355.431	1	132
355.602	1	118
355.773	1	127
355.944	1	141
356.115	1	124
356.286	1	136
356.457	1	123
356.628	1	137
356.799	1	141
356.970	1	139
357.141	1	127
357.311	1	116
357.482	1	132
357.653	1	137
357.824	1	144
357.995	1	132
358.166	1	130
358.337	1	141
358.508	1	141
358.679	1	147
358.850	1	140
359.021	1	112
359.192	1	152
359.363	1	149
359.533	1	143
359.704	1	131
359.875	1	151
360.046	1	138
360.217	1	128
360.388	1	159
360.559	1	145
360.730	1	158
360.901	1	146
361.072	1	148
361.243	1	146
361.414	1	139
361.584	1	144
361.755	1	145
361.926	1	134
362.097	1	151
362.268	1	153
362.439	1	141
362.610	1	150
362.781	1	141
362.952	1	140
363.123	1	147
363.293	1	150
363.464	1	150
363.635	1	152
363.806	1	142
363.977	1	154
364.148	1	139
364.319	1	161
364.490	1	140
364.661	1	164
364.832	1	160
365.002	1	148
365.173	1	145
365.344	1	159
365.515	1	157
365.686	1	137
365.857	1	146
366.028	1	161
366.199	1	151
366.370	1	166
366.540	1	142
366.711	1	133
366.882	1	164
367.053	1	157
367.224	1	180
367.395	1	167
367.566	1	171
367.737	1	172
367.908	1	169
368.078	1	175
368.249	1	171
368.420	1	168
368.591	1	154
368.762	1	172
368.933	1	169
369.104	1	160
369.274	1	156
369.445	1	160
369.616	1	170
369.787	1	157
369.958	1	166
370.129	1	152
370.300	1	162
370.471	1	174
370.641	1	154
370.812	1	160
370.983	1	160
371.154	1	157
371.325	1	160
371.496	1	177
371.667	1	175
371.837	1	151
372.008	1	165
372.179	1	158
372.350	1	169
372.521	1	166
372.692	1	170
372.863	1	176
373.033	1	163
373.204	1	175
373.375	1	169
373.546	1	162
373.717	1	177
373.888	1	178
374.059	1	174
374.229	1	174
374.400	1	158
374.571	1	167
374.742	1	175
374.913	1	174
375.084	1	172
375.254	1	188
375.425	1	172
375.596	1	186
375.767	1	186
375.938	1	185
376.109	1	180
376.279	1	177
376.450	1	171
376.621	1	177
376.792	1	177
376.963	1	189
377.134	1	176
377.304	1	192
377.475	1	186
377.646	1	176
377.817	1	194
377.988	1	184
378.159	1	194
378.329	1	197
378.500	1	185
378.671	1	184
378.842	1	171
379.013	1	180
379.184	1	193
379.354	1	196
379.525	1	170
379.696	1	182
379.867	1	194
380.038	1	196
380.209	1	198
380.379	1	181
380.550	1	185
380.721	1	194
380.892	1	203
381.063	1	209
381.233	1	202
381.404	1	190
381.575	1	204
381.746	1	198
381.917	1	191
382.087	1	189
382.258	1	202
382.429	1	205
382.600	1	210
382.771	1	185
382.941	1	202
383.112	1	194
383.283	1	209
383.454	1	184
383.625	1	210
383.795	1	202
383.966	1	210
384.137	1	198
384.308	1	220
384.479	1	205
384.649	1	216
384.820	1	202
384.991	1	201
385.162	1	212
385.333	1	218
385.503	1	218
385.674	1	203
385.845	1	220
386.016	1	215
386.187	1	218
386.357	1	223
386.528	1	225
386.699	1	219
386.870	1	222
387.041	1	225
387.211	1	216
387.382	1	229
387.553	1	224
387.724	1	214
387.894	1	227
388.065	1	212
388.236	1	233
388.407	1	213
388.578	1	209
388.748	1	210
388.919	1	228
389.090	1	224
389.261	1	221
389.431	1	218
389.602	1	223
389.773	1	220
389.944	1	218
390.114	1	226
390.285	1	215
390.456	1	219
390.627	1	210
390.798	1	221
390.968	1	211
391.139	1	221
391.310	1	213
391.481	1	227
391.651	1	225
391.822	1	200
391.993	1	223
392.164	1	218
392.334	1	230
392.505	1	223
392.676	1	219
392.847	1	233
393.017	1	226
393.188	1	212
393.359	1	210
393.530	1	227
393.700	1	212
393.871	1	213
394.042	1	214
394.213	1	208
394.383	1	225
394.554	1	224
394.725	1	230
394.896	1	223
395.066	1	228
395.237	1	230
395.408	1	215
395.579	1	227
395.749	1	235
395.920	1	234
396.091	1	232
396.262	1	228
396.432	1	229
396.603	1	227
396.774	1	231
396.945	1	233
397.115	1	230
397.286	1	244
397.457	1	229
397.627	1	243
397.798	1	230
397.969	1	236
398.140	1	230
398.310	1	232
398.481	1	230
398.652	1	231
398.823	1	217
398.993	1	234
399.164	1	250
399.335	1	245
399.505	1	235
399.676	1	228
399.847	1	235
400.018	1	236
400.188	1	232
400.359	1	239
400.530	1	239
400.700	1	235
400.871	1	226
401.042	1	227
401.213	1	237
401.383	1	233
401.554	1	239
401.725	1	235
401.895	1	222
402.066	1	225
402.237	1	251
402.408	1	249
402.578	1	233
402.749	1	242
402.920	1	231
403.090	1	231
403.261	1	229
403.432	1	245
403.603	1	249
403.773	1	240
403.944	1	246
404.115	1	240
404.285	1	241
404.456	1	234
404.627	1	240
404.797	1	238
404.968	1	241
405.139	1	226
405.310	1	242
405.480	1	240
405.651	1	247
405.822	1	248
405.992	1	228
406.163	1	239
406.334	1	218
406.504	1	227
406.675	1	261
406.846	1	250
407.016	1	248
407.187	1	255
407.358	1	237
407.528	1	237
407.699	1	233
407.870	1	240
408.041	1	245
408.211	1	262
408.382	1	232
408.553	1	253
408.723	1	238
408.894	1	249
409.065	1	243
409.235	1	247
409.406	1	240
409.577	1	238
409.747	1	246
409.918	1	260
410.089	1	246
410.259	1	257
410.430	1	249
410.601	1	237
410.771	1	248
410.942	1	253
411.113	1	243
411.283	1	246
411.454	1	234
411.625	1	246
411.795	1	251
411.966	1	244
412.137	1	234
412.307	1	232
412.478	1	244
412.649	1	240
412.819	1	236
412.990	1	226
413.161	1	259
413.331	1	228
413.502	1	242
413.672	1	239
413.843	1	236
414.014	1	237
414.184	1	237
414.355	1	234
414.526	1	233
414.696	1	246
414.867	1	244
415.038	1	237
415.208	1	243
415.379	1	233
415.550	1	244
415.720	1	239
415.891	1	238
416.062	1	240
416.232	1	240
416.403	1	242
416.573	1	242
416.744	1	237
416.915	1	238
417.085	1	247
417.256	1	240
417.427	1	229
417.597	1	230
417.768	1	234
417.939	1	227
418.109	1	247
418.280	1	247
418.450	1	234
418.621	1	213
418.792	1	235
418.962	1	238
419.133	1	243
419.304	1	237
419.474	1	227
419.645	1	241
419.815	1	226
419.986	1	227
420.157	1	229
420.327	1	228
420.498	1	250
420.669	1	235
420.839	1	235
421.010	1	237
421.180	1	229
421.351	1	241
421.522	1	222
421.692	1	229
421.863	1	235
422.033	1	233
422.204	1	216
422.375	1	222
422.545	1	234
422.716	1	225
422.886	1	236
423.057	1	223
423.228	1	232
423.398	1	228
423.569	1	220
423.740	1	217
423.910	1	221
424.081	1	218
424.251	1	212
424.422	1	221
424.593	1	220
424.763	1	217
424.934	1	221
425.104	1	223
425.275	1	218
425.445	1	217
425.616	1	205
425.787	1	217
425.957	1	213
426.128	1	222
426.298	1	231
426.469	1	205
426.640	1	218
426.810	1	207
426.981	1	212
427.151	1	220
427.322	1	211
427.493	1	200
427.663	1	215
427.834	1	208
428.004	1	215
428.175	1	211
428.345	1	207
428.516	1	206
428.687	1	214
428.857	1	207
429.028	1	215
429.198	1	213
429.369	1	209
429.540	1	216
429.710	1	196
429.881	1	226
430.051	1	210
430.222	1	201
430.392	1	212
430.563	1	215
430.734	1	220
430.904	1	220
431.075	1	222
431.245	1	207
431.416	1	212
431.586	1	203
431.757	1	209
431.927	1	210
432.098	1	215
432.269	1	211
432.439	1	209
432.610	1	210
432.780	1	216
432.951	1	204
433.121	1	205
433.292	1	209
433.462	1	224
433.633	1	202
433.804	1	203
433.974	1	200
434.145	1	225
434.315	1	196
434.486	1	198
434.656	1	216
434.827	1	207
434.997	1	203
435.168	1	210
435.339	1	209
435.509	1	209
435.680	1	206
435.850	1	209
436.021	1	210
436.191	1	204
436.362	1	207
436.532	1	211
436.703	1	201
436.873	1	199
437.044	1	200
437.214	1	193
437.385	1	183
437.556	1	191
437.726	1	227
437.897	1	219
438.067	1	193
438.238	1	190
438.408	1	204
438.579	1	188
438.749	1	181
438.920	1	194
439.090	1	198
439.261	1	177
439.431	1	183
439.602	1	184
439.772	1	187
439.943	1	197
440.113	1	194
440.284	1	175
440.455	1	187
440.625	1	193
440.796	1	197
440.966	1	169
441.137	1	184
441.307	1	179
441.478	1	192
441.648	1	179
441.819	1	182
441.989	1	189
442.160	1	195
442.330	1	177
442.501	1	181
442.671	1	173
442.842	1	170
443.012	1	174
443.183	1	184
443.353	1	164
443.524	1	183
443.694	1	183
443.865	1	183
444.035	1	186
444.206	1	184
444.376	1	172
444.547	1	182
444.717	1	180
444.888	1	172
445.058	1	180
445.229	1	172
445.399	1	176
445.570	1	166
445.740	1	172
445.911	1	190
446.081	1	181
446.252	1	186
446.422	1	180
446.593	1	170
446.763	1	158
446.934	1	179
447.104	1	178
447.275	1	162
447.445	1	172
447.616	1	187
447.786	1	176
447.957	1	182
448.127	1	164
448.298	1	180
448.468	1	173
448.639	1	158
448.809	1	177
448.979	1	173
449.150	1	178
449.320	1	176
449.491	1	176
449.661	1	167
449.832	1	173
450.002	1	173
450.173	1	165
450.343	1	183
450.514	1	163
450.684	1	160
450.855	1	168
451.025	1	164
451.196	1	168
451.366	1	158
451.537	1	158
451.707	1	159
451.878	1	157
452.048	1	174
452.218	1	174
452.389	1	173
452.559	1	158
452.730	1	176
452.900	1	154
453.071	1	151
453.241	1	150
453.412	1	145
453.582	1	155
453.753	1	155
453.923	1	141
454.093	1	145
454.264	1	154
454.434	1	146
454.605	1	154
454.775	1	155
454.946	1	141
455.116	1	136
455.287	1	132
455.457	1	137
455.628	1	144
455.798	1	154
455.968	1	147
456.139	1	142
456.309	1	133
456.480	1	136
456.650	1	138
456.821	1	146
456.991	1	143
457.161	1	138
457.332	1	152
457.502	1	126
457.673	1	151
457.843	1	152
458.014	1	141
458.184	1	137
458.355	1	140
458.525	1	131
458.695	1	139
458.866	1	136
459.036	1	141
459.207	1	150
459.377	1	126
459.548	1	148
459.718	1	136
459.888	1	140
460.059	1	135
460.229	1	135
460.400	1	144
460.570	1	149
460.740	1	133
460.911	1	135
461.081	1	132
461.252	1	123
461.422	1	135
461.593	1	136
461.763	1	138
461.933	1	140
462.104	1	132
462.274	1	139
462.445	1	128
462.615	1	128
462.785	1	134
462.956	1	134
463.126	1	135
463.297	1	141
463.467	1	140
463.638	1	133
463.808	1	130
463.978	1	135
464.149	1	119
464.319	1	131
464.490	1	144
464.660	1	129
464.830	1	121
465.001	1	117
465.171	1	133
465.342	1	118
465.512	1	128
465.682	1	129
465.853	1	124
466.023	1	120
466.194	1	125
466.364	1	122
466.534	1	131
466.705	1	126
466.875	1	126
467.045	1	120
467.216	1	125
467.386	1	121
467.557	1	115
467.727	1	119
467.897	1	119
468.068	1	121
468.238	1	115
468.409	1	123
468.579	1	129
468.749	1	113
468.920	1	115
469.090	1	112
469.260	1	116
469.431	1	113
469.601	1	107
469.772	1	125
469.942	1	104
470.112	1	112
470.283	1	117
470.453	1	120
470.623	1	101
470.794	1	110
470.964	1	124
471.135	1	111
471.305	1	103
471.475	1	116
471.646	1	101
471.816	1	111
471.986	1	104
472.157	1	121
472.327	1	102
472.497	1	120
472.668	1	111
472.838	1	108
473.009	1	114
473.179	1	106
473.349	1	104
473.520	1	118
473.690	1	114
473.860	1	102
474.031	1	115
474.201	1	111
474.371	1	125
474.542	1	126
474.712	1	117
474.882	1	119
475.053	1	120
475.223	1	101
475.394	1	118
475.564	1	111
475.734	1	110
475.905	1	108
476.075	1	109
476.245	1	111
476.416	1	110
476.586	1	110
476.756	1	113
476.927	1	115
477.097	1	101
477.267	1	96
477.438	1	107
477.608	1	103
477.778	1	106
477.949	1	101
478.119	1	114
478.289	1	98
478.460	1	115
478.630	1	107
478.800	1	96
478.971	1	107
479.141	1	110
479.311	1	104
479.482	1	104
479.652	1	103
479.822	1	104
479.993	1	98
480.163	1	94
480.333	1	99
480.504	1	102
480.674	1	100
480.844	1	101
481.015	1	114
481.185	1	96
481.355	1	102
481.525	1	84
481.696	1	96
481.866	1	94
482.036	1	101
482.207	1	95
482.377	1	90
482.547	1	104
482.718	1	98
482.888	1	93
483.058	1	85
483.229	1	92
483.399	1	82
483.569	1	92
483.740	1	100
483.910	1	97
484.080	1	83
484.250	1	102
484.421	1	95
484.591	1	101
484.761	1	98
484.932	1	110
485.102	1	108
485.272	1	99
485.443	1	93
485.613	1	87
485.783	1	92
485.953	1	92
486.124	1	91
486.294	1	86
486.464	1	87
486.635	1	99
486.805	1	102
486.975	1	82
487.146	1	87
487.316	1	90
487.486	1	86
487.656	1	82
487.827	1	85
487.997	1	83
488.167	1	81
488.338	1	90
488.508	1	86
488.678	1	92
488.848	1	103
489.019	1	83
489.189	1	90
489.359	1	82
489.529	1	93
489.700	1	86
489.870	1	94
490.040	1	84
490.211	1	71
490.381	1	93
490.551	1	76
490.721	1	90
490.892	1	81
491.062	1	90
491.232	1	84
491.402	1	83
491.573	1	75
491.743	1	85
491.913	1	89
492.084	1	83
492.254	1	84
492.424	1	74
492.594	1	85
492.765	1	83
492.935	1	84
493.105	1	87
493.275	1	84
493.446	1	76
493.616	1	92
493.786	1	75
493.956	1	84
494.127	1	77
494.297	1	73
494.467	1	76
494.637	1	70
494.808	1	63
494.978	1	79
495.148	1	79
495.318	1	85
495.489	1	79
495.659	1	88
495.829	1	74
495.999	1	69
496.170	1	82
496.340	1	71
496.510	1	76
496.680	1	65
496.851	1	74
497.021	1	71
497.191	1	68
497.361	1	76
497.532	1	66
497.702	1	85
497.872	1	67
498.042	1	81
498.213	1	69
498.383	1	68
498.553	1	69
498.723	1	70
498.894	1	76
499.064	1	75
499.234	1	76
499.404	1	80
499.574	1	75
499.745	1	84
499.915	1	77
500.085	1	73
500.255	1	75
500.426	1	69
500.596	1	65
500.766	1	69
500.936	1	67
501.106	1	66
501.277	1	76
501.447	1	68
501.617	1	69
501.787	1	69
501.958	1	52
502.128	1	63
502.298	1	70
502.468	1	62
502.638	1	68
502.809	1	65
502.979	1	62
503.149	1	62
503.319	1	62
503.489	1	63
503.660	1	73
503.830	1	64
504.000	1	74
504.170	1	56
504.340	1	66
504.511	1	73
504.681	1	54
504.851	1	67
505.021	1	67
505.192	1	52
505.362	1	75
505.532	1	59
505.702	1	58
505.872	1	72
506.043	1	51
506.213	1	53
506.383	1	63
506.553	1	65
506.723	1	57
506.893	1	73
507.064	1	67
507.234	1	69
507.404	1	62
507.574	1	63
507.744	1	57
507.915	1	65
508.085	1	78
508.255	1	62
508.425	1	62
508.595	1	76
508.766	1	60
508.936	1	57
509.106	1	71
509.276	1	71
509.446	1	59
509.616	1	65
509.787	1	63
509.957	1	58
510.127	1	52
510.297	1	63
510.467	1	50
510.638	1	64
510.808	1	54
510.978	1	41
511.148	1	68
511.318	1	56
511.488	1	61
511.659	1	64
511.829	1	49
511.999	1	54
512.169	1	62
512.339	1	48
512.509	1	53
512.680	1	58
512.850	1	55
513.020	1	67
513.190	1	57
513.360	1	48
513.530	1	53
513.700	1	70
513.871	1	53
514.041	1	47
514.211	1	61
514.381	1	53
514.551	1	53
514.721	1	48
514.892	1	53
515.062	1	64
515.232	1	60
515.402	1	49
515.572	1	54
515.742	1	56
515.912	1	61
516.083	1	46
516.253	1	60
516.423	1	44
516.593	1	57
516.763	1	59
516.933	1	54
517.104	1	50
517.274	1	50
517.444	1	55
517.614	1	57
517.784	1	50
517.954	1	62
518.124	1	55
518.294	1	53
518.465	1	45
518.635	1	44
518.805	1	33
518.975	1	51
519.145	1	52
519.315	1	45
519.485	1	47
519.656	1	56
519.826	1	56
519.996	1	43
520.166	1	49
520.336	1	54
520.506	1	47
520.676	1	36
520.846	1	54
521.017	1	45
521.187	1	52
521.357	1	57
521.527	1	36
521.697	1	49
521.867	1	38
522.037	1	51
522.207	1	58
522.377	1	49
522.548	1	41
522.718	1	47
522.888	1	61
523.058	1	41
523.228	1	56
523.398	1	47
523.568	1	50
523.738	1	55
523.909	1	56
524.079	1	53
524.249	1	46
524.419	1	40
524.589	1	44
524.759	1	33
524.929	1	41
525.099	1	38
525.269	1	54
525.439	1	39
525.610	1	64
525.780	1	37
525.950	1	49
526.120	1	46
526.290	1	40
526.460	1	33
526.630	1	50
526.800	1	44
526.970	1	47
527.140	1	49
527.311	1	31
527.481	1	34
527.651	1	46
527.821	1	46
527.991	1	54
528.161	1	46
528.331	1	33
528.501	1	46
528.671	1	40
528.841	1	54
529.011	1	47
529.181	1	40
529.352	1	43
529.522	1	35
529.692	1	51
529.862	1	49
530.032	1	35
530.202	1	44
530.372	1	38
530.542	1	42
530.712	1	47
530.882	1	44
531.052	1	44
531.222	1	41
531.392	1	43
531.563	1	48
531.733	1	35
531.903	1	39
532.073	1	55
532.243	1	40
532.413	1	43
532.583	1	41
532.753	1	30
532.923	1	40
533.093	1	30
533.263	1	26
533.433	1	35
533.603	1	41
533.773	1	30
533.943	1	40
534.113	1	45
534.284	1	43
534.454	1	45
534.624	1	50
534.794	1	28
534.964	1	44
535.134	1	38
535.304	1	39
535.474	1	49
535.644	1	35
535.814	1	33
535.984	1	43
536.154	1	31
536.324	1	35
536.494	1	44
536.664	1	51
536.834	1	40
537.004	1	39
537.174	1	50
537.344	1	42
537.514	1	23
537.685	1	36
537.855	1	32
538.025	1	40
538.195	1	30
538.365	1	44
538.535	1	38
538.705	1	34
538.875	1	41
539.045	1	48
539.215	1	43
539.385	1	33
539.555	1	40
539.725	1	35
539.895	1	26
540.065	1	44
540.235	1	49
540.405	1	35
540.575	1	36
540.745	1	40
540.915	1	41
541.085	1	40
541.255	1	14
541.425	1	43
541.595	1	27
541.765	1	31
541.935	1	41
542.105	1	24
542.275	1	41
542.445	1	24
542.615	1	30
542.785	1	38
542.955	1	36
543.125	1	27
543.295	1	39
543.465	1	38
543.635	1	46
543.805	1	47
543.975	1	37
544.145	1	29
544.315	1	35
544.485	1	36
544.655	1	36
544.825	1	29
544.995	1	44
545.165	1	33
545.335	1	34
545.505	1	28
545.675	1	39
545.845	1	38
546.015	1	53
546.185	1	44
546.355	1	40
546.525	1	37
546.695	1	31
546.865	1	26
547.035	1	33
547.205	1	28
547.375	1	34
547.545	1	31
547.715	1	32
547.885	1	35
548.055	1	18
548.225	1	30
548.395	1	32
548.565	1	28
548.735	1	32
548.905	1	30
549.075	1	28
549.245	1	30
549.415	1	21
549.585	1	31
549.755	1	38
549.925	1	20
550.095	1	24
550.265	1	36
550.435	1	22
550.605	1	26
550.775	1	33
550.945	1	27
551.115	1	29
551.285	1	31
551.455	1	27
551.625	1	26
551.795	1	42
551.965	1	31
552.135	1	24
552.305	1	30
552.475	1	26
552.645	1	19
552.815	1	26
552.985	1	38
553.155	1	27
553.325	1	28
553.495	1	24
553.665	1	25
553.835	1	26
554.004	1	25
554.174	1	21
554.344	1	26
554.514	1	19
554.684	1	34
554.854	1	20
555.024	1	16
555.194	1	22
555.364	1	26
555.534	1	33
555.704	1	20
555.874	1	28
556.044	1	29
556.214	1	22
556.384	1	28
556.554	1	35
556.724	1	21
556.894	1	30
557.064	1	27
557.234	1	25
557.404	1	33
557.573	1	23
557.743	1	18
557.913	1	23
558.083	1	17
558.253	1	38
558.423	1	15
558.593	1	26
558.763	1	30
558.933	1	27
559.103	1	28
559.273	1	24
559.443	1	26
559.613	1	27
559.783	1	24
559.953	1	25
560.122	1	29
560.292	1	27
560.462	1	26
560.632	1	36
560.802	1	26
560.972	1	25
561.142	1	38
561.312	1	4
561.482	1	31
561.652	1	39
561.822	1	18
561.992	1	17
562.162	1	24
562.331	1	16
562.501	1	15
562.671	1	23
562.841	1	20
563.011	1	20
563.181	1	27
563.351	1	15
563.521	1	33
563.691	1	23
563.861	1	23
564.031	1	33
564.201	1	29
564.370	1	19
564.540	1	32
564.710	1	19
564.880	1	33
565.050	1	39
565.220	1	7
565.390	1	20
565.560	1	27
565.730	1	10
565.900	1	24
566.069	1	31
566.239	1	20
566.409	1	27
566.579	1	28
566.749	1	25
566.919	1	31
567.089	1	22
567.259	1	25
567.429	1	13
567.599	1	18
567.768	1	30
567.938	1	27
568.108	1	21
568.278	1	12
568.448	1	21
568.618	1	11
568.788	1	24
568.958	1	18
569.128	1	29
569.297	1	20
569.467	1	17
569.637	1	33
569.807	1	22
569.977	1	25
570.147	1	34
570.317	1	14
570.487	1	16
570.656	1	21
570.826	1	12
570.996	1	10
571.166	1	21
571.336	1	24
571.506	1	24
571.676	1	18
571.846	1	25
572.015	1	25
572.185	1	16
572.355	1	26
572.525	1	17
572.695	1	14
572.865	1	17
573.035	1	27
573.205	1	18
573.374	1	8
573.544	1	10
573.714	1	29
573.884	1	24
574.054	1	22
574.224	1	13
574.394	1	16
574.563	1	13
574.733	1	18
574.903	1	23
575.073	1	17
575.243	1	13
575.413	1	27
575.583	1	15
575.752	1	33
575.922	1	17
576.092	1	22
576.262	1	28
576.432	1	28
576.602	1	14
576.772	1	26
576.941	1	18
577.111	1	20
577.281	1	15
577.451	1	20
577.621	1	27
577.791	1	27
577.960	1	22
578.130	1	17
578.300	1	27
578.470	1	25
578.640	1	24
578.810	1	23
578.979	1	16
579.149	1	10
579.319	1	18
579.489	1	18
579.659	1	20
579.829	1	22
579.998	1	20
580.168	1	32
580.338	1	18
580.508	1	20
580.678	1	19
580.848	1	20
581.017	1	21
581.187	1	14
581.357	1	19
581.527	1	22
581.697	1	34
581.867	1	23
582.036	1	29
582.206	1	22
582.376	1	27
582.546	1	14
582.716	1	19
582.885	1	16
583.055	1	16
583.225	1	13
583.395	1	25
583.565	1	19
583.735	1	19
583.904	1	14
584.074	1	22
584.244	1	29
584.414	1	22
584.584	1	25
584.753	1	11
584.923	1	18
585.093	1	20
585.263	1	30
585.433	1	19
585.602	1	12
585.772	1	24
585.942	1	16
586.112	1	20
586.282	1	13
586.451	1	16
586.621	1	14
586.791	1	19
586.961	1	22
587.131	1	17
587.300	1	9
587.470	1	32
587.640	1	18
587.810	1	9
587.980	1	14
588.149	1	21
588.319	1	24
588.489	1	25
588.659	1	18
588.829	1	22
588.998	1	28
589.168	1	25
589.338	1	17
589.508	1	18
589.677	1	8
589.847	1	9
590.017	1	31
590.187	1	23
590.357	1	28
590.526	1	31
590.696	1	19
590.866	1	31
591.036	1	16
591.205	1	32
591.375	1	9
591.545	1	18
591.715	1	17
591.885	1	16
592.054	1	23
592.224	1	24
592.394	1	22
592.564	1	16
592.733	1	23
592.903	1	22
593.073	1	22
593.243	1	12
593.412	1	26
593.582	1	17
593.752	1	17
593.922	1	23
594.091	1	12
594.261	1	16
594.431	1	17
594.601	1	17
594.771	1	22
594.940	1	15
595.110	1	13
595.280	1	22
595.450	1	22
595.619	1	14
595.789	1	16
595.959	1	22
596.129	1	22
596.298	1	24
596.468	1	22
596.638	1	26
596.808	1	18
596.977	1	19
597.147	1	13
597.317	1	20
597.487	1	22
597.656	1	21
597.826	1	20
597.996	1	22
598.166	1	14
598.335	1	14
598.505	1	19
598.675	1	19
598.844	1	12
599.014	1	23
599.184	1	21
599.354	1	6
599.523	1	27
599.693	1	14
599.863	1	23
600.033	1	24
600.202	1	24
600.372	1	17
600.542	1	21
600.712	1	14
600.881	1	17
601.051	1	31
601.221	1	22
601.390	1	12
601.560	1	27
601.730	1	24
601.900	1	8
602.069	1	27
602.239	1	15
602.409	1	8
602.578	1	19
602.748	1	19
602.918	1	29
603.088	1	20
603.257	1	17
603.427	1	19
603.597	1	16
603.767	1	17
603.936	1	32
604.106	1	27
604.276	1	25
604.445	1	19
604.615	1	28
604.785	1	14
604.954	1	21
605.124	1	31
605.294	1	21
605.464	1	16
605.633	1	23
605.803	1	17
605.973	1	22
606.142	1	18
606.312	1	29
606.482	1	12
606.652	1	26
606.821	1	21
606.991	1	19
607.161	1	22
607.330	1	39
607.500	1	17
607.670	1	17
607.839	1	35
608.009	1	27
608.179	1	29
608.348	1	22
608.518	1	20
608.688	1	33
608.858	1	11
609.027	1	20
609.197	1	18
609.367	1	34
609.536	1	15
609.706	1	19
609.876	1	22
610.045	1	25
610.215	1	22
610.385	1	31
610.554	1	28
610.724	1	24
610.894	1	19
611.063	1	18
611.233	1	22
611.403	1	31
611.572	1	18
611.742	1	14
611.912	1	26
612.081	1	11
612.251	1	36
612.421	1	27
612.590	1	25
612.760	1	30
612.930	1	16
613.099	1	23
613.269	1	28
613.439	1	24
613.608	1	23
613.778	1	24
613.948	1	24
614.117	1	26
614.287	1	27
614.457	1	32
614.626	1	26
614.796	1	24
614.966	1	27
615.135	1	13
615.305	1	30
615.475	1	27
615.644	1	25
615.814	1	24
615.984	1	18
616.153	1	19
616.323	1	23
616.493	1	20
616.662	1	29
616.832	1	24
617.002	1	27
617.171	1	17
617.341	1	24
617.511	1	24
617.680	1	14
617.850	1	27
618.019	1	25
618.189	1	40
618.359	1	22
618.528	1	35
618.698	1	27
618.868	1	15
619.037	1	27
619.207	1	20
619.377	1	21
619.546	1	24
619.716	1	29
619.885	1	32
620.055	1	20
620.225	1	24
620.394	1	25
620.564	1	27
620.734	1	24
620.903	1	20
621.073	1	30
621.242	1	29
621.412	1	27
621.582	1	22
621.751	1	27
621.921	1	28
622.091	1	22
622.260	1	31
622.430	1	30
622.599	1	25
622.769	1	32
622.939	1	28
623.108	1	19
623.278	1	26
623.448	1	21
623.617	1	21
623.787	1	27
623.956	1	21
624.126	1	27
624.296	1	34
624.465	1	23
624.635	1	33
624.804	1	40
624.974	1	30
625.144	1	35
625.313	1	28
625.483	1	17
625.652	1	18
625.822	1	26
625.992	1	25
626.161	1	29
626.331	1	28
626.501	1	24
626.670	1	33
626.840	1	19
627.009	1	30
627.179	1	39
627.348	1	37
627.518	1	31
627.688	1	35
627.857	1	48
628.027	1	27
628.196	1	36
628.366	1	33
628.536	1	30
628.705	1	37
628.875	1	23
629.044	1	28
629.214	1	32
629.384	1	34
629.553	1	39
629.723	1	27
629.892	1	35
630.062	1	39
630.232	1	25
630.401	1	38
630.571	1	29
630.740	1	26
630.910	1	36
631.079	1	19
631.249	1	32
631.419	1	35
631.588	1	17
631.758	1	35
631.927	1	30
632.097	1	25
632.266	1	30
632.436	1	37
632.606	1	25
632.775	1	37
632.945	1	33
633.114	1	37
633.284	1	35
633.453	1	35
633.623	1	38
633.793	1	41
633.962	1	27
634.132	1	30
634.301	1	34
634.471	1	28
634.640	1	33
634.810	1	40
634.979	1	35
635.149	1	37
635.319	1	36
635.488	1	34
635.658	1	33
635.827	1	30
635.997	1	29
636.166	1	38
636.336	1	28
636.505	1	52
636.675	1	36
636.845	1	41
637.014	1	35
637.184	1	45
637.353	1	30
637.523	1	44
637.692	1	40
637.862	1	27
638.031	1	44
638.201	1	42
638.370	1	25
638.540	1	35
638.710	1	30
638.879	1	30
639.049	1	36
639.218	1	34
639.388	1	29
639.557	1	31
639.727	1	36
639.896	1	35
640.066	1	34
640.235	1	33
640.405	1	30
640.574	1	39
640.744	1	31
640.914	1	33
641.083	1	30
641.253	1	39
641.422	1	45
641.592	1	49
641.761	1	31
641.931	1	32
642.100	1	59
642.270	1	33
642.439	1	47
642.609	1	39
642.778	1	42
642.948	1	27
643.117	1	51
643.287	1	38
643.456	1	42
643.626	1	45
643.795	1	30
643.965	1	46
644.134	1	38
644.304	1	34
644.473	1	41
644.643	1	38
644.812	1	47
644.982	1	46
645.151	1	43
645.321	1	37
645.490	1	44
645.660	1	25
645.829	1	35
645.999	1	31
646.168	1	38
646.338	1	52
646.507	1	48
646.677	1	40
646.846	1	36
647.016	1	25
647.185	1	51
647.355	1	28
647.524	1	43
647.694	1	43
647.863	1	38
648.033	1	38
648.202	1	39
648.372	1	40
648.541	1	38
648.711	1	42
648.880	1	35
649.050	1	35
649.219	1	40
649.389	1	52
649.558	1	51
649.728	1	55
649.897	1	26
650.067	1	41
650.236	1	45
650.406	1	50
650.575	1	51
650.745	1	37
650.914	1	38
651.084	1	30
651.253	1	39
651.423	1	41
651.592	1	35
651.762	1	37
651.931	1	43
652.101	1	38
652.270	1	51
652.440	1	49
652.609	1	33
652.778	1	40
652.948	1	37
653.117	1	41
653.287	1	44
653.456	1	50
653.626	1	42
653.795	1	40
653.965	1	57
654.134	1	46
654.304	1	31
654.473	1	43
654.643	1	40
654.812	1	52
654.982	1	46
655.151	1	34
655.320	1	43
655.490	1	36
655.659	1	48
655.829	1	41
655.998	1	44
656.168	1	48
656.337	1	46
656.507	1	39
656.676	1	40
656.846	1	44
657.015	1	46
657.184	1	58
657.354	1	44
657.523	1	47
657.693	1	56
657.862	1	56
658.032	1	43
658.201	1	45
658.371	1	51
658.540	1	43
658.709	1	43
658.879	1	48
659.048	1	42
659.218	1	45
659.387	1	56
659.557	1	46
659.726	1	50
659.895	1	47
660.065	1	36
660.234	1	38
660.404	1	51
660.573	1	42
660.743	1	39
660.912	1	44
661.081	1	55
661.251	1	45
661.420	1	49
661.590	1	52
661.759	1	56
661.929	1	49
662.098	1	53
662.267	1	42
662.437	1	46
662.606	1	45
662.776	1	50
662.945	1	48
663.115	1	42
663.284	1	45
663.453	1	55
663.623	1	52
663.792	1	51
663.962	1	36
664.131	1	52
664.300	1	56
664.470	1	45
664.639	1	56
664.809	1	48
664.978	1	49
665.148	1	51
665.317	1	56
665.486	1	55
665.656	1	46
665.825	1	47
665.995	1	50
666.164	1	46
666.333	1	44
666.503	1	51
666.672	1	42
666.842	1	46
667.011	1	43
667.180	1	57
667.350	1	39
667.519	1	42
667.689	1	52
667.858	1	40
668.027	1	47
668.197	1	39
668.366	1	45
668.536	1	55
668.705	1	47
668.874	1	48
669.044	1	41
669.213	1	57
669.382	1	40
669.552	1	57
669.721	1	45
669.891	1	57
670.060	1	47
670.229	1	54
670.399	1	42
670.568	1	51
670.738	1	58
670.907	1	38
671.076	1	40
671.246	1	42
671.415	1	42
671.584	1	37
671.754	1	48
671.923	1	40
672.093	1	52
672.262	1	48
672.431	1	48
672.601	1	37
672.770	1	31
672.939	1	51
673.109	1	52
673.278	1	58
673.448	1	52
673.617	1	42
673.786	1	43
