325.333	1	11
325.504	1	6
325.675	1	13
325.846	1	13
326.017	1	9
326.188	1	4
326.359	1	-3
326.531	1	2
326.702	1	2
326.873	1	14
327.044	1	9
327.215	1	16
327.386	1	21
327.557	1	6
327.728	1	7
327.899	1	-1
328.070	1	19
328.241	1	16
328.412	1	-2
328.583	1	19
328.754	1	18
328.926	1	15
329.097	1	6
329.268	1	23
329.439	1	12
329.610	1	10
329.781	1	5
329.952	1	9
330.123	1	14
330.294	1	0
330.465	1	17
330.636	1	23
330.807	1	17
330.978	1	6
331.149	1	3
331.320	1	10
331.492	1	15
331.663	1	9
331.834	1	23
332.005	1	6
332.176	1	37
332.347	1	20
332.518	1	-3
332.689	1	25
332.860	1	21
333.031	1	15
333.202	1	11
333.373	1	20
333.544	1	12
333.715	1	23
333.886	1	15
334.057	1	14
334.228	1	7
334.399	1	13
334.570	1	27
334.741	1	13
334.912	1	24
335.084	1	26
335.255	1	19
335.426	1	8
335.597	1	26
335.768	1	17
335.939	1	22
336.110	1	19
336.281	1	11
336.452	1	15
336.623	1	11
336.794	1	21
336.965	1	12
337.136	1	23
337.307	1	12
337.478	1	9
337.649	1	18
337.820	1	14
337.991	1	15
338.162	1	13
338.333	1	22
338.504	1	23
338.675	1	25
338.846	1	17
339.017	1	21
339.188	1	12
339.359	1	4
339.530	1	15
339.701	1	24
339.872	1	29
340.043	1	17
340.214	1	16
340.385	1	31
340.556	1	16
340.727	1	14
340.898	1	34
341.069	1	20
341.240	1	16
341.411	1	23
341.582	1	20
341.753	1	17
341.924	1	26
342.095	1	24
342.266	1	22
342.437	1	31
342.608	1	18
342.779	1	20
342.950	1	27
343.121	1	34
343.292	1	24
343.463	1	24
343.634	1	31
343.805	1	34
343.976	1	28
344.147	1	32
344.318	1	28
344.489	1	21
344.660	1	30
344.831	1	31
345.002	1	24
345.173	1	42
345.344	1	33
345.515	1	37
345.686	1	24
345.857	1	36
346.028	1	19
346.199	1	19
346.370	1	33
346.541	1	25
346.712	1	20
346.883	1	30
347.054	1	22
347.225	1	33
347.396	1	36
347.567	1	23
347.738	1	31
347.909	1	38
348.080	1	18
348.251	1	30
348.422	1	48
348.593	1	30
348.764	1	28
348.935	1	31
349.106	1	45
349.277	1	21
349.448	1	45
349.619	1	31
349.790	1	26
349.961	1	35
350.132	1	41
350.303	1	21
350.474	1	43
350.645	1	29
350.816	1	29
350.987	1	34
351.157	1	19
351.328	1	36
351.499	1	52
351.670	1	27
351.841	1	50
352.012	1	39
352.183	1	50
352.354	1	40
352.525	1	50
352.696	1	46
352.867	1	38
353.038	1	37
353.209	1	45
353.380	1	37
353.551	1	38
353.722	1	38
353.893	1	42
354.064	1	46
354.235	1	46
354.406	1	39
354.576	1	51
354.747	1	53
354.918	1	39
355.089	1	36
355.260	1	47
355.431	1	37
355.602	1	37
355.773	1	46
355.944	1	40
356.115	1	46
356.286	1	41
356.457	1	43
356.628	1	47
356.799	1	43
356.970	1	62
357.141	1	31
357.311	1	37
357.482	1	40
357.653	1	43
357.824	1	51
357.995	1	59
358.166	1	43
358.337	1	36
358.508	1	46
358.679	1	49
358.850	1	46
359.021	1	49
359.192	1	47
359.363	1	39
359.533	1	38
359.704	1	47
359.875	1	41
360.046	1	45
360.217	1	43
360.388	1	42
360.559	1	38
360.730	1	36
360.901	1	49
361.072	1	57
361.243	1	56
361.414	1	50
361.584	1	44
361.755	1	52
361.926	1	37
362.097	1	50
362.268	1	45
362.439	1	44
362.610	1	59
362.781	1	49
362.952	1	47
363.123	1	45
363.293	1	34
363.464	1	49
363.635	1	51
363.806	1	42
363.977	1	43
364.148	1	54
364.319	1	52
364.490	1	54
364.661	1	44
364.832	1	53
365.002	1	49
365.173	1	45
365.344	1	53
365.515	1	51
365.686	1	51
365.857	1	50
366.028	1	59
366.199	1	51
366.370	1	46
366.540	1	44
366.711	1	31
366.882	1	46
367.053	1	40
367.224	1	58
367.395	1	51
367.566	1	61
367.737	1	61
367.908	1	55
368.078	1	58
368.249	1	50
368.420	1	39
368.591	1	48
368.762	1	43
368.933	1	50
369.104	1	34
369.274	1	53
369.445	1	50
369.616	1	44
369.787	1	52
369.958	1	65
370.129	1	45
370.300	1	57
370.471	1	45
370.641	1	52
370.812	1	54
370.983	1	46
371.154	1	45
371.325	1	57
371.496	1	46
371.667	1	64
371.837	1	47
372.008	1	46
372.179	1	48
372.350	1	60
372.521	1	49
372.692	1	55
372.863	1	50
373.033	1	51
373.204	1	49
373.375	1	55
373.546	1	58
373.717	1	48
373.888	1	59
374.059	1	55
374.229	1	51
374.400	1	50
374.571	1	56
374.742	1	54
374.913	1	55
375.084	1	49
375.254	1	61
375.425	1	62
375.596	1	62
375.767	1	47
375.938	1	59
376.109	1	55
376.279	1	56
376.450	1	55
376.621	1	53
376.792	1	47
376.963	1	53
377.134	1	72
377.304	1	59
377.475	1	55
377.646	1	49
377.817	1	54
377.988	1	58
378.159	1	57
378.329	1	66
378.500	1	49
378.671	1	65
378.842	1	51
379.013	1	49
379.184	1	51
379.354	1	66
379.525	1	52
379.696	1	66
379.867	1	57
380.038	1	58
380.209	1	61
380.379	1	55
380.550	1	53
380.721	1	52
380.892	1	60
381.063	1	60
381.233	1	61
381.404	1	59
381.575	1	61
381.746	1	59
381.917	1	61
382.087	1	59
382.258	1	50
382.429	1	64
382.600	1	66
382.771	1	65
382.941	1	70
383.112	1	73
383.283	1	62
383.454	1	69
383.625	1	52
383.795	1	55
383.966	1	57
384.137	1	72
384.308	1	67
384.479	1	67
384.649	1	68
384.820	1	63
384.991	1	59
385.162	1	68
385.333	1	61
385.503	1	60
385.674	1	64
385.845	1	80
386.016	1	66
386.187	1	68
386.357	1	76
386.528	1	71
386.699	1	68
386.870	1	75
387.041	1	68
387.211	1	75
387.382	1	75
387.553	1	84
387.724	1	58
387.894	1	75
388.065	1	71
388.236	1	71
388.407	1	67
388.578	1	61
388.748	1	59
388.919	1	77
389.090	1	69
389.261	1	70
389.431	1	71
389.602	1	72
389.773	1	83
389.944	1	65
390.114	1	64
390.285	1	69
390.456	1	62
390.627	1	68
390.798	1	67
390.968	1	78
391.139	1	81
391.310	1	62
391.481	1	83
391.651	1	71
391.822	1	64
391.993	1	72
392.164	1	66
392.334	1	68
392.505	1	62
392.676	1	76
392.847	1	77
393.017	1	84
393.188	1	76
393.359	1	62
393.530	1	70
393.700	1	70
393.871	1	66
394.042	1	75
394.213	1	66
394.383	1	75
394.554	1	72
394.725	1	80
394.896	1	71
395.066	1	76
395.237	1	68
395.408	1	70
395.579	1	75
395.749	1	66
395.920	1	72
396.091	1	83
396.262	1	87
396.432	1	67
396.603	1	75
396.774	1	81
396.945	1	81
397.115	1	69
397.286	1	78
397.457	1	73
397.627	1	71
397.798	1	83
397.969	1	67
398.140	1	70
398.310	1	73
398.481	1	75
398.652	1	63
398.823	1	73
398.993	1	74
399.164	1	80
399.335	1	78
399.505	1	68
399.676	1	75
399.847	1	81
400.018	1	79
400.188	1	69
400.359	1	80
400.530	1	69
400.700	1	75
400.871	1	84
401.042	1	88
401.213	1	71
401.383	1	73
401.554	1	82
401.725	1	83
401.895	1	64
402.066	1	75
402.237	1	81
402.408	1	81
402.578	1	84
402.749	1	75
402.920	1	86
403.090	1	71
403.261	1	75
403.432	1	67
403.603	1	78
403.773	1	76
403.944	1	92
404.115	1	84
404.285	1	86
404.456	1	66
404.627	1	74
404.797	1	65
404.968	1	67
405.139	1	64
405.310	1	85
405.480	1	89
405.651	1	72
405.822	1	76
405.992	1	87
406.163	1	76
406.334	1	73
406.504	1	77
406.675	1	90
406.846	1	83
407.016	1	89
407.187	1	86
407.358	1	77
407.528	1	77
407.699	1	77
407.870	1	67
408.041	1	82
408.211	1	85
408.382	1	79
408.553	1	72
408.723	1	86
408.894	1	79
409.065	1	88
409.235	1	79
409.406	1	74
409.577	1	74
409.747	1	95
409.918	1	88
410.089	1	70
410.259	1	79
410.430	1	76
410.601	1	81
410.771	1	79
410.942	1	88
411.113	1	80
411.283	1	74
411.454	1	95
411.625	1	76
411.795	1	93
411.966	1	85
412.137	1	73
412.307	1	60
412.478	1	68
412.649	1	73
412.819	1	67
412.990	1	81
413.161	1	80
413.331	1	72
413.502	1	85
413.672	1	79
413.843	1	83
414.014	1	74
414.184	1	90
414.355	1	78
414.526	1	76
414.696	1	82
414.867	1	87
415.038	1	61
415.208	1	64
415.379	1	82
415.550	1	89
415.720	1	78
415.891	1	72
416.062	1	69
416.232	1	84
416.403	1	81
416.573	1	83
416.744	1	79
416.915	1	90
417.085	1	73
417.256	1	75
417.427	1	72
417.597	1	76
417.768	1	87
417.939	1	79
418.109	1	66
418.280	1	77
418.450	1	80
418.621	1	78
418.792	1	72
418.962	1	77
419.133	1	85
419.304	1	72
419.474	1	71
419.645	1	74
419.815	1	77
419.986	1	84
420.157	1	76
420.327	1	77
420.498	1	90
420.669	1	72
420.839	1	81
421.010	1	76
421.180	1	82
421.351	1	65
421.522	1	80
421.692	1	86
421.863	1	78
422.033	1	76
422.204	1	70
422.375	1	65
422.545	1	77
422.716	1	77
422.886	1	73
423.057	1	76
423.228	1	84
423.398	1	76
423.569	1	80
423.740	1	71
423.910	1	55
424.081	1	73
424.251	1	67
424.422	1	81
424.593	1	72
424.763	1	68
424.934	1	75
425.104	1	75
425.275	1	77
425.445	1	75
425.616	1	70
425.787	1	71
425.957	1	75
426.128	1	82
426.298	1	73
426.469	1	68
426.640	1	66
426.810	1	84
426.981	1	66
427.151	1	68
427.322	1	60
427.493	1	63
427.663	1	74
427.834	1	59
428.004	1	77
428.175	1	71
428.345	1	67
428.516	1	56
428.687	1	67
428.857	1	68
429.028	1	63
429.198	1	74
429.369	1	74
429.540	1	70
429.710	1	57
429.881	1	76
430.051	1	71
430.222	1	78
430.392	1	59
430.563	1	83
430.734	1	90
430.904	1	66
431.075	1	72
431.245	1	56
431.416	1	76
431.586	1	75
431.757	1	72
431.927	1	75
432.098	1	71
432.269	1	68
432.439	1	69
432.610	1	75
432.780	1	74
432.951	1	71
433.121	1	71
433.292	1	78
433.462	1	71
433.633	1	75
433.804	1	65
433.974	1	72
434.145	1	77
434.315	1	71
434.486	1	67
434.656	1	71
434.827	1	64
434.997	1	68
435.168	1	74
435.339	1	68
435.509	1	67
435.680	1	72
435.850	1	70
436.021	1	71
436.191	1	64
436.362	1	65
436.532	1	60
436.703	1	68
436.873	1	68
437.044	1	52
437.214	1	59
437.385	1	69
437.556	1	48
437.726	1	79
437.897	1	76
438.067	1	62
438.238	1	71
438.408	1	72
438.579	1	71
438.749	1	55
438.920	1	61
439.090	1	63
439.261	1	57
439.431	1	53
439.602	1	53
439.772	1	59
439.943	1	77
440.113	1	61
440.284	1	60
440.455	1	63
440.625	1	54
440.796	1	63
440.966	1	56
441.137	1	64
441.307	1	59
441.478	1	59
441.648	1	67
441.819	1	65
441.989	1	55
442.160	1	68
442.330	1	69
442.501	1	60
442.671	1	56
442.842	1	52
443.012	1	65
443.183	1	65
443.353	1	66
443.524	1	62
443.694	1	73
443.865	1	62
444.035	1	60
444.206	1	63
444.376	1	57
444.547	1	74
444.717	1	60
444.888	1	73
445.058	1	80
445.229	1	69
445.399	1	54
445.570	1	57
445.740	1	56
445.911	1	51
446.081	1	53
446.252	1	70
446.422	1	59
446.593	1	50
446.763	1	57
446.934	1	52
447.104	1	61
447.275	1	64
447.445	1	60
447.616	1	64
447.786	1	56
447.957	1	72
448.127	1	58
448.298	1	60
448.468	1	60
448.639	1	54
448.809	1	52
448.979	1	58
449.150	1	63
449.320	1	60
449.491	1	63
449.661	1	48
449.832	1	60
450.002	1	57
450.173	1	57
450.343	1	62
450.514	1	56
450.684	1	52
450.855	1	54
451.025	1	53
451.196	1	60
451.366	1	58
451.537	1	51
451.707	1	39
451.878	1	58
452.048	1	57
452.218	1	73
452.389	1	54
452.559	1	49
452.730	1	52
452.900	1	53
453.071	1	43
453.241	1	50
453.412	1	51
453.582	1	57
453.753	1	61
453.923	1	45
454.093	1	46
454.264	1	63
454.434	1	42
454.605	1	47
454.775	1	46
454.946	1	59
455.116	1	58
455.287	1	34
455.457	1	48
455.628	1	61
455.798	1	45
455.968	1	53
456.139	1	46
456.309	1	60
456.480	1	33
456.650	1	45
456.821	1	42
456.991	1	56
457.161	1	42
457.332	1	55
457.502	1	41
457.673	1	56
457.843	1	56
458.014	1	54
458.184	1	52
458.355	1	41
458.525	1	49
458.695	1	42
458.866	1	52
459.036	1	63
459.207	1	49
459.377	1	40
459.548	1	52
459.718	1	34
459.888	1	53
460.059	1	49
460.229	1	55
460.400	1	54
460.570	1	42
460.740	1	48
460.911	1	56
461.081	1	53
461.252	1	43
461.422	1	48
461.593	1	48
461.763	1	56
461.933	1	55
462.104	1	34
462.274	1	42
462.445	1	49
462.615	1	47
462.785	1	48
462.956	1	51
463.126	1	49
463.297	1	37
463.467	1	49
463.638	1	53
463.808	1	35
463.978	1	39
464.149	1	35
464.319	1	37
464.490	1	46
464.660	1	41
464.830	1	41
465.001	1	48
465.171	1	50
465.342	1	39
465.512	1	50
465.682	1	46
465.853	1	47
466.023	1	36
466.194	1	43
466.364	1	51
466.534	1	45
466.705	1	50
466.875	1	39
467.045	1	36
467.216	1	44
467.386	1	40
467.557	1	39
467.727	1	29
467.897	1	38
468.068	1	45
468.238	1	38
468.409	1	45
468.579	1	45
468.749	1	41
468.920	1	26
469.090	1	30
469.260	1	47
469.431	1	31
469.601	1	32
469.772	1	43
469.942	1	43
470.112	1	43
470.283	1	40
470.453	1	28
470.623	1	48
470.794	1	26
470.964	1	34
471.135	1	36
471.305	1	33
471.475	1	40
471.646	1	34
471.816	1	33
471.986	1	48
472.157	1	51
472.327	1	36
472.497	1	40
472.668	1	28
472.838	1	32
473.009	1	35
473.179	1	32
473.349	1	31
473.520	1	49
473.690	1	45
473.860	1	36
474.031	1	37
474.201	1	40
474.371	1	48
474.542	1	48
474.712	1	33
474.882	1	36
475.053	1	45
475.223	1	22
475.394	1	45
475.564	1	42
475.734	1	43
475.905	1	47
476.075	1	41
476.245	1	48
476.416	1	40
476.586	1	40
476.756	1	41
476.927	1	52
477.097	1	36
477.267	1	34
477.438	1	38
477.608	1	41
477.778	1	36
477.949	1	35
478.119	1	34
478.289	1	36
478.460	1	31
478.630	1	28
478.800	1	44
478.971	1	38
479.141	1	29
479.311	1	35
479.482	1	29
479.652	1	30
479.822	1	31
479.993	1	48
480.163	1	41
480.333	1	38
480.504	1	40
480.674	1	37
480.844	1	29
481.015	1	42
481.185	1	25
481.355	1	36
481.525	1	40
481.696	1	42
481.866	1	33
482.036	1	41
482.207	1	31
482.377	1	36
482.547	1	45
482.718	1	35
482.888	1	29
483.058	1	38
483.229	1	18
483.399	1	27
483.569	1	32
483.740	1	26
483.910	1	36
484.080	1	28
484.250	1	32
484.421	1	32
484.591	1	34
484.761	1	29
484.932	1	50
485.102	1	42
485.272	1	21
485.443	1	37
485.613	1	40
485.783	1	33
485.953	1	19
486.124	1	38
486.294	1	34
486.464	1	18
486.635	1	29
486.805	1	41
486.975	1	25
487.146	1	32
487.316	1	35
487.486	1	24
487.656	1	25
487.827	1	33
487.997	1	18
488.167	1	24
488.338	1	37
488.508	1	18
488.678	1	21
488.848	1	41
489.019	1	26
489.189	1	29
489.359	1	37
489.529	1	33
489.700	1	23
489.870	1	37
490.040	1	24
490.211	1	11
490.381	1	26
490.551	1	15
490.721	1	41
490.892	1	32
491.062	1	29
491.232	1	36
491.402	1	37
491.573	1	9
491.743	1	34
491.913	1	21
492.084	1	25
492.254	1	22
492.424	1	13
492.594	1	22
492.765	1	19
492.935	1	26
493.105	1	27
493.275	1	34
493.446	1	35
493.616	1	31
493.786	1	26
493.956	1	13
494.127	1	23
494.297	1	15
494.467	1	27
494.637	1	27
494.808	1	20
494.978	1	28
495.148	1	24
495.318	1	18
495.489	1	37
495.659	1	16
495.829	1	22
495.999	1	15
496.170	1	26
496.340	1	23
496.510	1	27
496.680	1	17
496.851	1	23
497.021	1	26
497.191	1	23
497.361	1	23
497.532	1	17
497.702	1	18
497.872	1	15
498.042	1	21
498.213	1	11
498.383	1	21
498.553	1	24
498.723	1	18
498.894	1	23
499.064	1	17
499.234	1	17
499.404	1	24
499.574	1	23
499.745	1	35
499.915	1	10
500.085	1	10
500.255	1	33
500.426	1	20
500.596	1	27
500.766	1	29
500.936	1	19
501.106	1	15
501.277	1	12
501.447	1	22
501.617	1	25
501.787	1	15
501.958	1	13
502.128	1	15
502.298	1	22
502.468	1	17
502.638	1	17
502.809	1	14
502.979	1	9
503.149	1	12
503.319	1	7
503.489	1	27
503.660	1	30
503.830	1	17
504.000	1	24
504.170	1	16
504.340	1	9
504.511	1	21
504.681	1	16
504.851	1	15
505.021	1	26
505.192	1	14
505.362	1	19
505.532	1	16
505.702	1	22
505.872	1	20
506.043	1	13
506.213	1	14
506.383	1	21
506.553	1	33
506.723	1	21
506.893	1	25
507.064	1	23
507.234	1	8
507.404	1	6
507.574	1	17
507.744	1	23
507.915	1	19
508.085	1	32
508.255	1	18
508.425	1	10
508.595	1	22
508.766	1	22
508.936	1	10
509.106	1	20
509.276	1	22
509.446	1	13
509.616	1	19
509.787	1	21
509.957	1	12
510.127	1	15
510.297	1	11
510.467	1	9
510.638	1	19
510.808	1	12
510.978	1	11
511.148	1	22
511.318	1	19
511.488	1	8
511.659	1	12
511.829	1	11
511.999	1	15
512.169	1	14
512.339	1	19
512.509	1	12
512.680	1	19
512.850	1	22
513.020	1	24
513.190	1	13
513.360	1	16
513.530	1	12
513.700	1	22
513.871	1	15
514.041	1	10
514.211	1	28
514.381	1	17
514.551	1	19
514.721	1	15
514.892	1	15
515.062	1	17
515.232	1	24
515.402	1	10
515.572	1	10
515.742	1	26
515.912	1	19
516.083	1	15
516.253	1	26
516.423	1	16
516.593	1	9
516.763	1	14
516.933	1	9
517.104	1	16
517.274	1	15
517.444	1	19
517.614	1	9
517.784	1	12
517.954	1	14
518.124	1	19
518.294	1	12
518.465	1	12
518.635	1	10
518.805	1	4
518.975	1	13
519.145	1	4
519.315	1	12
519.485	1	5
519.656	1	18
519.826	1	10
519.996	1	12
520.166	1	18
520.336	1	16
520.506	1	4
520.676	1	7
520.846	1	12
521.017	1	17
521.187	1	8
521.357	1	27
521.527	1	10
521.697	1	16
521.867	1	15
522.037	1	21
522.207	1	19
522.377	1	15
522.548	1	16
522.718	1	21
522.888	1	24
523.058	1	15
523.228	1	18
523.398	1	10
523.568	1	9
523.738	1	19
523.909	1	17
524.079	1	16
524.249	1	15
524.419	1	15
524.589	1	0
524.759	1	15
524.929	1	13
525.099	1	13
525.269	1	8
525.439	1	1
525.610	1	29
525.780	1	17
525.950	1	14
526.120	1	10
526.290	1	10
526.460	1	2
526.630	1	11
526.800	1	10
526.970	1	20
527.140	1	18
527.311	1	0
527.481	1	16
527.651	1	9
527.821	1	8
527.991	1	25
528.161	1	18
528.331	1	13
528.501	1	13
528.671	1	3
528.841	1	15
529.011	1	2
529.181	1	18
529.352	1	8
529.522	1	6
529.692	1	14
529.862	1	12
530.032	1	13
530.202	1	16
530.372	1	9
530.542	1	16
530.712	1	14
530.882	1	14
531.052	1	17
531.222	1	11
531.392	1	9
531.563	1	19
531.733	1	10
531.903	1	4
532.073	1	21
532.243	1	11
532.413	1	10
532.583	1	14
532.753	1	4
532.923	1	0
533.093	1	12
533.263	1	14
533.433	1	11
533.603	1	10
533.773	1	11
533.943	1	9
534.113	1	8
534.284	1	5
534.454	1	8
534.624	1	21
534.794	1	1
534.964	1	15
535.134	1	11
535.304	1	8
535.474	1	18
535.644	1	5
535.814	1	-1
535.984	1	5
536.154	1	1
536.324	1	10
536.494	1	9
536.664	1	12
536.834	1	1
537.004	1	14
537.174	1	12
537.344	1	10
537.514	1	4
537.685	1	12
537.855	1	15
538.025	1	10
538.195	1	12
538.365	1	15
538.535	1	9
538.705	1	0
538.875	1	10
539.045	1	20
539.215	1	15
539.385	1	-2
539.555	1	10
539.725	1	10
539.895	1	8
540.065	1	25
540.235	1	21
540.405	1	5
540.575	1	8
540.745	1	9
540.915	1	11
541.085	1	16
541.255	1	-3
541.425	1	2
541.595	1	3
541.765	1	18
541.935	1	14
542.105	1	4
542.275	1	9
542.445	1	6
542.615	1	0
542.785	1	6
542.955	1	7
543.125	1	3
543.295	1	7
543.465	1	9
543.635	1	10
543.805	1	30
543.975	1	7
544.145	1	18
544.315	1	8
544.485	1	18
544.655	1	4
544.825	1	-1
544.995	1	11
545.165	1	-1
545.335	1	8
545.505	1	4
545.675	1	13
545.845	1	13
546.015	1	14
546.185	1	20
546.355	1	2
546.525	1	7
546.695	1	8
546.865	1	8
547.035	1	8
547.205	1	-2
547.375	1	7
547.545	1	8
547.715	1	-1
547.885	1	0
548.055	1	5
548.225	1	16
548.395	1	11
548.565	1	9
548.735	1	6
548.905	1	12
549.075	1	8
549.245	1	5
549.415	1	-3
549.585	1	16
549.755	1	14
549.925	1	0
550.095	1	0
550.265	1	7
550.435	1	7
550.605	1	6
550.775	1	5
550.945	1	15
551.115	1	7
551.285	1	10
551.455	1	4
551.625	1	7
551.795	1	4
551.965	1	3
552.135	1	10
552.305	1	-1
552.475	1	1
552.645	1	1
552.815	1	10
552.985	1	5
553.155	1	11
553.325	1	18
553.495	1	1
553.665	1	-3
553.835	1	2
554.004	1	10
554.174	1	5
554.344	1	17
554.514	1	0
554.684	1	5
554.854	1	21
555.024	1	-5
555.194	1	5
555.364	1	8
555.534	1	4
555.704	1	4
555.874	1	11
556.044	1	4
556.214	1	4
556.384	1	-1
556.554	1	3
556.724	1	9
556.894	1	8
557.064	1	9
557.234	1	-1
557.404	1	9
557.573	1	7
557.743	1	-3
557.913	1	4
558.083	1	-2
558.253	1	17
558.423	1	7
558.593	1	13
558.763	1	3
558.933	1	6
559.103	1	15
559.273	1	3
559.443	1	9
559.613	1	4
559.783	1	2
559.953	1	3
560.122	1	15
560.292	1	9
560.462	1	11
560.632	1	11
560.802	1	1
560.972	1	5
561.142	1	11
561.312	1	2
561.482	1	2
561.652	1	15
561.822	1	-3
561.992	1	10
562.162	1	4
562.331	1	14
562.501	1	-7
562.671	1	8
562.841	1	2
563.011	1	12
563.181	1	2
563.351	1	-1
563.521	1	13
563.691	1	-5
563.861	1	9
564.031	1	15
564.201	1	22
564.370	1	-3
564.540	1	4
564.710	1	-3
564.880	1	10
565.050	1	14
565.220	1	8
565.390	1	10
565.560	1	10
565.730	1	-7
565.900	1	9
566.069	1	16
566.239	1	3
566.409	1	14
566.579	1	8
566.749	1	12
566.919	1	14
567.089	1	7
567.259	1	8
567.429	1	10
567.599	1	6
567.768	1	6
567.938	1	1
568.108	1	17
568.278	1	11
568.448	1	2
568.618	1	1
568.788	1	5
568.958	1	13
569.128	1	14
569.297	1	7
569.467	1	1
569.637	1	5
569.807	1	-2
569.977	1	3
570.147	1	15
570.317	1	-7
570.487	1	6
570.656	1	15
570.826	1	6
570.996	1	-1
571.166	1	7
571.336	1	0
571.506	1	10
571.676	1	7
571.846	1	12
572.015	1	4
572.185	1	-2
572.355	1	12
572.525	1	5
572.695	1	6
572.865	1	1
573.035	1	8
573.205	1	11
573.374	1	-9
573.544	1	8
573.714	1	12
573.884	1	8
574.054	1	1
574.224	1	1
574.394	1	0
574.563	1	-2
574.733	1	11
574.903	1	-1
575.073	1	8
575.243	1	4
575.413	1	9
575.583	1	2
575.752	1	10
575.922	1	5
576.092	1	11
576.262	1	-1
576.432	1	2
576.602	1	3
576.772	1	18
576.941	1	12
577.111	1	1
577.281	1	-6
577.451	1	-1
577.621	1	6
577.791	1	10
577.960	1	-6
578.130	1	6
578.300	1	0
578.470	1	17
578.640	1	2
578.810	1	10
578.979	1	4
579.149	1	7
579.319	1	-9
579.489	1	8
579.659	1	6
579.829	1	1
579.998	1	11
580.168	1	17
580.338	1	10
580.508	1	2
580.678	1	2
580.848	1	4
581.017	1	2
581.187	1	4
581.357	1	2
581.527	1	9
581.697	1	13
581.867	1	10
582.036	1	-3
582.206	1	3
582.376	1	15
582.546	1	5
582.716	1	0
582.885	1	0
583.055	1	4
583.225	1	-9
583.395	1	13
583.565	1	-5
583.735	1	6
583.904	1	11
584.074	1	9
584.244	1	11
584.414	1	-3
584.584	1	14
584.753	1	3
584.923	1	3
585.093	1	11
585.263	1	8
585.433	1	8
585.602	1	-10
585.772	1	-2
585.942	1	-1
586.112	1	4
586.282	1	4
586.451	1	-1
586.621	1	1
586.791	1	0
586.961	1	12
587.131	1	8
587.300	1	3
587.470	1	9
587.640	1	7
587.810	1	1
587.980	1	6
588.149	1	4
588.319	1	5
588.489	1	7
588.659	1	10
588.829	1	7
588.998	1	18
589.168	1	12
589.338	1	10
589.508	1	3
589.677	1	0
589.847	1	-4
590.017	1	28
590.187	1	-4
590.357	1	18
590.526	1	12
590.696	1	12
590.866	1	10
591.036	1	4
591.205	1	15
591.375	1	1
591.545	1	4
591.715	1	8
591.885	1	2
592.054	1	18
592.224	1	8
592.394	1	2
592.564	1	11
592.733	1	7
592.903	1	4
593.073	1	5
593.243	1	17
593.412	1	7
593.582	1	3
593.752	1	1
593.922	1	6
594.091	1	-1
594.261	1	2
594.431	1	8
594.601	1	9
594.771	1	8
594.940	1	3
595.110	1	-5
595.280	1	8
595.450	1	0
595.619	1	2
595.789	1	7
595.959	1	6
596.129	1	6
596.298	1	6
596.468	1	7
596.638	1	6
596.808	1	5
596.977	1	0
597.147	1	17
597.317	1	-3
597.487	1	17
597.656	1	1
597.826	1	12
597.996	1	-2
598.166	1	5
598.335	1	0
598.505	1	8
598.675	1	9
598.844	1	8
599.014	1	1
599.184	1	2
599.354	1	-1
599.523	1	12
599.693	1	7
599.863	1	8
600.033	1	7
600.202	1	7
600.372	1	11
600.542	1	13
600.712	1	-5
600.881	1	-5
601.051	1	17
601.221	1	22
601.390	1	-1
601.560	1	9
601.730	1	8
601.900	1	7
602.069	1	10
602.239	1	-2
602.409	1	-4
602.578	1	8
602.748	1	6
602.918	1	12
603.088	1	4
603.257	1	9
603.427	1	0
603.597	1	11
603.767	1	2
603.936	1	5
604.106	1	5
604.276	1	2
604.445	1	11
604.615	1	2
604.785	1	2
604.954	1	-2
605.124	1	1
605.294	1	3
605.464	1	-5
605.633	1	9
605.803	1	11
605.973	1	1
606.142	1	10
606.312	1	13
606.482	1	4
606.652	1	22
606.821	1	0
606.991	1	7
607.161	1	11
607.330	1	6
607.500	1	12
607.670	1	-14
607.839	1	15
608.009	1	20
608.179	1	10
608.348	1	13
608.518	1	0
608.688	1	13
608.858	1	6
609.027	1	0
609.197	1	9
609.367	1	13
609.536	1	9
609.706	1	9
609.876	1	5
610.045	1	9
610.215	1	4
610.385	1	2
610.554	1	4
610.724	1	12
610.894	1	5
611.063	1	4
611.233	1	4
611.403	1	6
611.572	1	7
611.742	1	8
611.912	1	14
612.081	1	-4
612.251	1	11
612.421	1	14
612.590	1	5
612.760	1	-3
612.930	1	7
613.099	1	12
613.269	1	16
613.439	1	11
613.608	1	-2
613.778	1	5
613.948	1	-1
614.117	1	6
614.287	1	25
614.457	1	8
614.626	1	0
614.796	1	10
614.966	1	8
615.135	1	5
615.305	1	17
615.475	1	-3
615.644	1	6
615.814	1	5
615.984	1	-3
616.153	1	2
616.323	1	4
616.493	1	-1
616.662	1	14
616.832	1	11
617.002	1	7
617.171	1	9
617.341	1	8
617.511	1	6
617.680	1	0
617.850	1	8
618.019	1	18
618.189	1	18
618.359	1	4
618.528	1	15
618.698	1	14
618.868	1	6
619.037	1	6
619.207	1	-4
619.377	1	2
619.546	1	1
619.716	1	9
619.885	1	3
620.055	1	-10
620.225	1	16
620.394	1	1
620.564	1	23
620.734	1	8
620.903	1	5
621.073	1	21
621.242	1	9
621.412	1	4
621.582	1	5
621.751	1	18
621.921	1	9
622.091	1	4
622.260	1	2
622.430	1	12
622.599	1	6
622.769	1	8
622.939	1	15
623.108	1	10
623.278	1	1
623.448	1	3
623.617	1	11
623.787	1	5
623.956	1	14
624.126	1	9
624.296	1	4
624.465	1	12
624.635	1	25
624.804	1	7
624.974	1	12
625.144	1	17
625.313	1	8
625.483	1	0
625.652	1	3
625.822	1	9
625.992	1	2
626.161	1	14
626.331	1	7
626.501	1	6
626.670	1	4
626.840	1	5
627.009	1	10
627.179	1	10
627.348	1	11
627.518	1	15
627.688	1	14
627.857	1	7
628.027	1	-1
628.196	1	22
628.366	1	14
628.536	1	4
628.705	1	5
628.875	1	6
629.044	1	4
629.214	1	18
629.384	1	14
629.553	1	17
629.723	1	0
629.892	1	5
630.062	1	15
630.232	1	6
630.401	1	20
630.571	1	1
630.740	1	5
630.910	1	16
631.079	1	12
631.249	1	11
631.419	1	14
631.588	1	-2
631.758	1	5
631.927	1	3
632.097	1	10
632.266	1	5
632.436	1	7
632.606	1	-3
632.775	1	14
632.945	1	13
633.114	1	21
633.284	1	5
633.453	1	9
633.623	1	0
633.793	1	17
633.962	1	5
634.132	1	13
634.301	1	14
634.471	1	13
634.640	1	10
634.810	1	11
634.979	1	9
635.149	1	12
635.319	1	5
635.488	1	8
635.658	1	7
635.827	1	-3
635.997	1	11
636.166	1	19
636.336	1	-1
636.505	1	11
636.675	1	4
636.845	1	15
637.014	1	12
637.184	1	4
637.353	1	0
637.523	1	14
637.692	1	11
637.862	1	18
638.031	1	11
638.201	1	17
638.370	1	6
638.540	1	6
638.710	1	4
638.879	1	0
639.049	1	5
639.218	1	15
639.388	1	9
639.557	1	0
639.727	1	14
639.896	1	3
640.066	1	6
640.235	1	6
640.405	1	13
640.574	1	15
640.744	1	5
640.914	1	8
641.083	1	10
641.253	1	4
641.422	1	2
641.592	1	13
641.761	1	12
641.931	1	6
642.100	1	22
642.270	1	6
642.439	1	10
642.609	1	19
642.778	1	9
642.948	1	6
643.117	1	17
643.287	1	11
643.456	1	2
643.626	1	26
643.795	1	3
643.965	1	7
644.134	1	2
644.304	1	8
644.473	1	11
644.643	1	8
644.812	1	17
644.982	1	9
645.151	1	11
645.321	1	-1
645.490	1	19
645.660	1	4
645.829	1	3
645.999	1	9
646.168	1	9
646.338	1	18
646.507	1	1
646.677	1	10
646.846	1	4
647.016	1	4
647.185	1	16
647.355	1	8
647.524	1	13
647.694	1	25
647.863	1	18
648.033	1	17
648.202	1	12
648.372	1	6
648.541	1	1
648.711	1	19
648.880	1	-1
649.050	1	3
649.219	1	10
649.389	1	27
649.558	1	11
649.728	1	13
649.897	1	3
650.067	1	12
650.236	1	10
650.406	1	17
650.575	1	12
650.745	1	16
650.914	1	14
651.084	1	4
651.253	1	11
651.423	1	12
651.592	1	4
651.762	1	10
651.931	1	22
652.101	1	11
652.270	1	19
652.440	1	22
652.609	1	6
652.778	1	3
652.948	1	14
653.117	1	16
653.287	1	9
653.456	1	11
653.626	1	19
653.795	1	4
653.965	1	16
654.134	1	15
654.304	1	-2
654.473	1	10
654.643	1	12
654.812	1	8
654.982	1	12
655.151	1	7
655.320	1	14
655.490	1	8
655.659	1	7
655.829	1	7
655.998	1	13
656.168	1	8
656.337	1	10
656.507	1	19
656.676	1	16
656.846	1	19
657.015	1	14
657.184	1	18
657.354	1	10
657.523	1	0
657.693	1	18
657.862	1	7
658.032	1	13
658.201	1	10
658.371	1	19
658.540	1	10
658.709	1	5
658.879	1	13
659.048	1	12
659.218	1	16
659.387	1	13
659.557	1	10
659.726	1	17
659.895	1	8
660.065	1	5
660.234	1	15
660.404	1	18
660.573	1	11
660.743	1	22
660.912	1	9
661.081	1	21
661.251	1	9
661.420	1	10
661.590	1	6
661.759	1	14
661.929	1	15
662.098	1	23
662.267	1	12
662.437	1	21
662.606	1	16
662.776	1	13
662.945	1	14
663.115	1	13
663.284	1	8
663.453	1	17
663.623	1	13
663.792	1	20
663.962	1	12
664.131	1	11
664.300	1	21
664.470	1	6
664.639	1	12
664.809	1	10
664.978	1	22
665.148	1	21
665.317	1	7
665.486	1	13
665.656	1	7
665.825	1	19
665.995	1	3
666.164	1	17
666.333	1	10
666.503	1	10
666.672	1	5
666.842	1	10
667.011	1	5
667.180	1	11
667.350	1	3
667.519	1	14
667.689	1	17
667.858	1	16
668.027	1	18
668.197	1	20
668.366	1	4
668.536	1	14
668.705	1	16
668.874	1	17
669.044	1	15
669.213	1	23
669.382	1	18
669.552	1	24
669.721	1	19
669.891	1	18
670.060	1	21
670.229	1	35
670.399	1	15
670.568	1	29
670.738	1	21
670.907	1	12
671.076	1	10
671.246	1	17
671.415	1	12
671.584	1	17
671.754	1	15
671.923	1	10
672.093	1	13
672.262	1	-2
672.431	1	14
672.601	1	16
672.770	1	5
672.939	1	21
673.109	1	16
673.278	1	11
673.448	1	25
673.617	1	5
673.786	1	18
