325.333	1	9
325.504	1	6
325.675	1	-1
325.846	1	1
326.017	1	-8
326.188	1	12
326.359	1	-10
326.531	1	-11
326.702	1	-9
326.873	1	6
327.044	1	2
327.215	1	5
327.386	1	-1
327.557	1	-8
327.728	1	-4
327.899	1	6
328.070	1	9
328.241	1	0
328.412	1	-9
328.583	1	9
328.754	1	1
328.926	1	12
329.097	1	-2
329.268	1	14
329.439	1	0
329.610	1	11
329.781	1	1
329.952	1	11
330.123	1	4
330.294	1	4
330.465	1	5
330.636	1	16
330.807	1	-2
330.978	1	-2
331.149	1	3
331.320	1	7
331.492	1	8
331.663	1	0
331.834	1	1
332.005	1	2
332.176	1	11
332.347	1	11
332.518	1	-1
332.689	1	13
332.860	1	3
333.031	1	7
333.202	1	4
333.373	1	-4
333.544	1	8
333.715	1	4
333.886	1	3
334.057	1	2
334.228	1	-6
334.399	1	8
334.570	1	18
334.741	1	0
334.912	1	1
335.084	1	19
335.255	1	2
335.426	1	-3
335.597	1	2
335.768	1	-3
335.939	1	1
336.110	1	2
336.281	1	-3
336.452	1	-8
336.623	1	8
336.794	1	5
336.965	1	8
337.136	1	10
337.307	1	9
337.478	1	5
337.649	1	6
337.820	1	8
337.991	1	-1
338.162	1	1
338.333	1	1
338.504	1	10
338.675	1	4
338.846	1	3
339.017	1	12
339.188	1	1
339.359	1	-3
339.530	1	1
339.701	1	7
339.872	1	16
340.043	1	9
340.214	1	9
340.385	1	6
340.556	1	-6
340.727	1	-1
340.898	1	9
341.069	1	5
341.240	1	9
341.411	1	12
341.582	1	3
341.753	1	-9
341.924	1	-6
342.095	1	13
342.266	1	10
342.437	1	10
342.608	1	-6
342.779	1	1
342.950	1	7
343.121	1	14
343.292	1	3
343.463	1	7
343.634	1	7
343.805	1	18
343.976	1	13
344.147	1	1
344.318	1	5
344.489	1	-2
344.660	1	13
344.831	1	4
345.002	1	-8
345.173	1	16
345.344	1	5
345.515	1	4
345.686	1	-3
345.857	1	7
346.028	1	11
346.199	1	1
346.370	1	6
346.541	1	4
346.712	1	-2
346.883	1	5
347.054	1	12
347.225	1	1
347.396	1	8
347.567	1	9
347.738	1	-4
347.909	1	13
348.080	1	3
348.251	1	13
348.422	1	6
348.593	1	6
348.764	1	0
348.935	1	10
349.106	1	0
349.277	1	5
349.448	1	10
349.619	1	9
349.790	1	3
349.961	1	11
350.132	1	15
350.303	1	3
350.474	1	16
350.645	1	12
350.816	1	12
350.987	1	12
351.157	1	-9
351.328	1	14
351.499	1	14
351.670	1	5
351.841	1	10
352.012	1	15
352.183	1	20
352.354	1	12
352.525	1	14
352.696	1	9
352.867	1	7
353.038	1	10
353.209	1	8
353.380	1	13
353.551	1	-4
353.722	1	5
353.893	1	9
354.064	1	16
354.235	1	10
354.406	1	6
354.576	1	5
354.747	1	17
354.918	1	10
355.089	1	9
355.260	1	12
355.431	1	11
355.602	1	7
355.773	1	6
355.944	1	11
356.115	1	5
356.286	1	10
356.457	1	12
356.628	1	12
356.799	1	12
356.970	1	21
357.141	1	9
357.311	1	13
357.482	1	1
357.653	1	9
357.824	1	15
357.995	1	7
358.166	1	2
358.337	1	8
358.508	1	15
358.679	1	14
358.850	1	1
359.021	1	8
359.192	1	16
359.363	1	7
359.533	1	5
359.704	1	13
359.875	1	10
360.046	1	9
360.217	1	-6
360.388	1	6
360.559	1	1
360.730	1	12
360.901	1	5
361.072	1	25
361.243	1	12
361.414	1	7
361.584	1	8
361.755	1	11
361.926	1	-3
362.097	1	10
362.268	1	19
362.439	1	8
362.610	1	19
362.781	1	12
362.952	1	10
363.123	1	3
363.293	1	5
363.464	1	11
363.635	1	10
363.806	1	6
363.977	1	5
364.148	1	9
364.319	1	10
364.490	1	15
364.661	1	16
364.832	1	14
365.002	1	9
365.173	1	11
365.344	1	14
365.515	1	21
365.686	1	5
365.857	1	13
366.028	1	8
366.199	1	9
366.370	1	16
366.540	1	7
366.711	1	-5
366.882	1	3
367.053	1	-5
367.224	1	23
367.395	1	14
367.566	1	20
367.737	1	12
367.908	1	18
368.078	1	14
368.249	1	16
368.420	1	-1
368.591	1	2
368.762	1	9
368.933	1	16
369.104	1	2
369.274	1	9
369.445	1	12
369.616	1	13
369.787	1	17
369.958	1	19
370.129	1	-1
370.300	1	23
370.471	1	6
370.641	1	14
370.812	1	17
370.983	1	15
371.154	1	-2
371.325	1	17
371.496	1	9
371.667	1	14
371.837	1	-2
372.008	1	13
372.179	1	1
372.350	1	19
372.521	1	9
372.692	1	9
372.863	1	14
373.033	1	0
373.204	1	7
373.375	1	16
373.546	1	14
373.717	1	14
373.888	1	19
374.059	1	20
374.229	1	12
374.400	1	10
374.571	1	12
374.742	1	21
374.913	1	14
375.084	1	20
375.254	1	15
375.425	1	22
375.596	1	11
375.767	1	14
375.938	1	18
376.109	1	9
376.279	1	4
376.450	1	14
376.621	1	20
376.792	1	7
376.963	1	7
377.134	1	23
377.304	1	17
377.475	1	9
377.646	1	9
377.817	1	8
377.988	1	15
378.159	1	11
378.329	1	6
378.500	1	9
378.671	1	17
378.842	1	7
379.013	1	8
379.184	1	7
379.354	1	20
379.525	1	7
379.696	1	15
379.867	1	23
380.038	1	17
380.209	1	15
380.379	1	16
380.550	1	1
380.721	1	20
380.892	1	8
381.063	1	15
381.233	1	18
381.404	1	9
381.575	1	18
381.746	1	19
381.917	1	11
382.087	1	6
382.258	1	8
382.429	1	20
382.600	1	18
382.771	1	11
382.941	1	11
383.112	1	13
383.283	1	7
383.454	1	19
383.625	1	-1
383.795	1	17
383.966	1	15
384.137	1	21
384.308	1	11
384.479	1	23
384.649	1	21
384.820	1	14
384.991	1	16
385.162	1	17
385.333	1	13
385.503	1	7
385.674	1	6
385.845	1	23
386.016	1	10
386.187	1	6
386.357	1	15
386.528	1	19
386.699	1	9
386.870	1	25
387.041	1	26
387.211	1	13
387.382	1	14
387.553	1	21
387.724	1	0
387.894	1	18
388.065	1	6
388.236	1	18
388.407	1	14
388.578	1	9
388.748	1	15
388.919	1	32
389.090	1	20
389.261	1	14
389.431	1	12
389.602	1	19
389.773	1	17
389.944	1	6
390.114	1	5
390.285	1	14
390.456	1	7
390.627	1	14
390.798	1	15
390.968	1	14
391.139	1	21
391.310	1	9
391.481	1	22
391.651	1	13
391.822	1	12
391.993	1	13
392.164	1	6
392.334	1	18
392.505	1	14
392.676	1	15
392.847	1	20
393.017	1	24
393.188	1	17
393.359	1	10
393.530	1	20
393.700	1	17
393.871	1	9
394.042	1	11
394.213	1	4
394.383	1	8
394.554	1	13
394.725	1	27
394.896	1	12
395.066	1	18
395.237	1	10
395.408	1	10
395.579	1	16
395.749	1	19
395.920	1	13
396.091	1	27
396.262	1	12
396.432	1	9
396.603	1	21
396.774	1	26
396.945	1	15
397.115	1	17
397.286	1	17
397.457	1	17
397.627	1	16
397.798	1	21
397.969	1	9
398.140	1	9
398.310	1	17
398.481	1	20
398.652	1	21
398.823	1	6
398.993	1	16
399.164	1	13
399.335	1	21
399.505	1	13
399.676	1	17
399.847	1	20
400.018	1	12
400.188	1	12
400.359	1	16
400.530	1	13
400.700	1	17
400.871	1	17
401.042	1	15
401.213	1	19
401.383	1	15
401.554	1	21
401.725	1	24
401.895	1	11
402.066	1	18
402.237	1	26
402.408	1	20
402.578	1	19
402.749	1	21
402.920	1	14
403.090	1	17
403.261	1	22
403.432	1	12
403.603	1	20
403.773	1	25
403.944	1	15
404.115	1	21
404.285	1	24
404.456	1	16
404.627	1	13
404.797	1	12
404.968	1	13
405.139	1	15
405.310	1	21
405.480	1	20
405.651	1	10
405.822	1	20
405.992	1	17
406.163	1	6
406.334	1	8
406.504	1	15
406.675	1	22
406.846	1	8
407.016	1	19
407.187	1	21
407.358	1	10
407.528	1	20
407.699	1	3
407.870	1	10
408.041	1	8
408.211	1	20
408.382	1	6
408.553	1	13
408.723	1	19
408.894	1	10
409.065	1	19
409.235	1	17
409.406	1	9
409.577	1	16
409.747	1	23
409.918	1	12
410.089	1	22
410.259	1	17
410.430	1	18
410.601	1	14
410.771	1	17
410.942	1	24
411.113	1	15
411.283	1	16
411.454	1	11
411.625	1	13
411.795	1	11
411.966	1	18
412.137	1	20
412.307	1	11
412.478	1	14
412.649	1	26
412.819	1	13
412.990	1	9
413.161	1	13
413.331	1	14
413.502	1	30
413.672	1	14
413.843	1	21
414.014	1	22
414.184	1	25
414.355	1	17
414.526	1	26
414.696	1	17
414.867	1	20
415.038	1	2
415.208	1	15
415.379	1	22
415.550	1	18
415.720	1	18
415.891	1	18
416.062	1	14
416.232	1	10
416.403	1	21
416.573	1	14
416.744	1	7
416.915	1	21
417.085	1	17
417.256	1	20
417.427	1	17
417.597	1	24
417.768	1	5
417.939	1	14
418.109	1	9
418.280	1	24
418.450	1	18
418.621	1	7
418.792	1	18
418.962	1	11
419.133	1	25
419.304	1	12
419.474	1	15
419.645	1	13
419.815	1	12
419.986	1	14
420.157	1	10
420.327	1	23
420.498	1	26
420.669	1	17
420.839	1	26
421.010	1	20
421.180	1	21
421.351	1	19
421.522	1	21
421.692	1	18
421.863	1	17
422.033	1	30
422.204	1	18
422.375	1	9
422.545	1	23
422.716	1	18
422.886	1	14
423.057	1	29
423.228	1	19
423.398	1	13
423.569	1	20
423.740	1	8
423.910	1	13
424.081	1	20
424.251	1	20
424.422	1	20
424.593	1	20
424.763	1	15
424.934	1	13
425.104	1	18
425.275	1	20
425.445	1	11
425.616	1	11
425.787	1	12
425.957	1	15
426.128	1	22
426.298	1	16
426.469	1	15
426.640	1	26
426.810	1	15
426.981	1	4
427.151	1	10
427.322	1	18
427.493	1	18
427.663	1	15
427.834	1	17
428.004	1	21
428.175	1	23
428.345	1	23
428.516	1	8
428.687	1	17
428.857	1	-6
429.028	1	15
429.198	1	15
429.369	1	22
429.540	1	13
429.710	1	5
429.881	1	16
430.051	1	19
430.222	1	16
430.392	1	16
430.563	1	19
430.734	1	22
430.904	1	19
431.075	1	15
431.245	1	13
431.416	1	19
431.586	1	21
431.757	1	12
431.927	1	11
432.098	1	22
432.269	1	7
432.439	1	13
432.610	1	23
432.780	1	32
432.951	1	6
433.121	1	16
433.292	1	15
433.462	1	21
433.633	1	18
433.804	1	12
433.974	1	21
434.145	1	26
434.315	1	11
434.486	1	14
434.656	1	16
434.827	1	11
434.997	1	18
435.168	1	23
435.339	1	28
435.509	1	16
435.680	1	13
435.850	1	15
436.021	1	16
436.191	1	11
436.362	1	19
436.532	1	23
436.703	1	13
436.873	1	19
437.044	1	3
437.214	1	13
437.385	1	14
437.556	1	14
437.726	1	29
437.897	1	23
438.067	1	-2
438.238	1	17
438.408	1	24
438.579	1	14
438.749	1	15
438.920	1	14
439.090	1	20
439.261	1	11
439.431	1	11
439.602	1	16
439.772	1	18
439.943	1	27
440.113	1	12
440.284	1	12
440.455	1	11
440.625	1	8
440.796	1	9
440.966	1	3
441.137	1	12
441.307	1	6
441.478	1	25
441.648	1	12
441.819	1	20
441.989	1	15
442.160	1	24
442.330	1	22
442.501	1	19
442.671	1	15
442.842	1	-1
443.012	1	2
443.183	1	21
443.353	1	6
443.524	1	15
443.694	1	20
443.865	1	5
444.035	1	16
444.206	1	16
444.376	1	2
444.547	1	25
444.717	1	10
444.888	1	10
445.058	1	21
445.229	1	13
445.399	1	4
445.570	1	9
445.740	1	5
445.911	1	15
446.081	1	12
446.252	1	19
446.422	1	10
446.593	1	10
446.763	1	13
446.934	1	-1
447.104	1	20
447.275	1	11
447.445	1	13
447.616	1	15
447.786	1	8
447.957	1	16
448.127	1	12
448.298	1	8
448.468	1	7
448.639	1	10
448.809	1	13
448.979	1	11
449.150	1	18
449.320	1	14
449.491	1	18
449.661	1	10
449.832	1	8
450.002	1	19
450.173	1	17
450.343	1	2
450.514	1	5
450.684	1	9
450.855	1	8
451.025	1	11
451.196	1	7
451.366	1	8
451.537	1	7
451.707	1	-3
451.878	1	12
452.048	1	18
452.218	1	21
452.389	1	9
452.559	1	17
452.730	1	20
452.900	1	15
453.071	1	11
453.241	1	9
453.412	1	9
453.582	1	12
453.753	1	16
453.923	1	15
454.093	1	15
454.264	1	23
454.434	1	5
454.605	1	19
454.775	1	13
454.946	1	3
455.116	1	7
455.287	1	-2
455.457	1	9
455.628	1	9
455.798	1	7
455.968	1	27
456.139	1	16
456.309	1	11
456.480	1	6
456.650	1	12
456.821	1	3
456.991	1	12
457.161	1	9
457.332	1	19
457.502	1	3
457.673	1	10
457.843	1	18
458.014	1	7
458.184	1	8
458.355	1	-2
458.525	1	7
458.695	1	13
458.866	1	10
459.036	1	14
459.207	1	12
459.377	1	7
459.548	1	15
459.718	1	6
459.888	1	12
460.059	1	15
460.229	1	14
460.400	1	14
460.570	1	10
460.740	1	15
460.911	1	11
461.081	1	9
461.252	1	6
461.422	1	12
461.593	1	13
461.763	1	11
461.933	1	11
462.104	1	8
462.274	1	11
462.445	1	13
462.615	1	2
462.785	1	6
462.956	1	11
463.126	1	15
463.297	1	14
463.467	1	19
463.638	1	14
463.808	1	8
463.978	1	4
464.149	1	9
464.319	1	15
464.490	1	24
464.660	1	7
464.830	1	3
465.001	1	10
465.171	1	13
465.342	1	12
465.512	1	2
465.682	1	10
465.853	1	14
466.023	1	15
466.194	1	12
466.364	1	12
466.534	1	17
466.705	1	20
466.875	1	4
467.045	1	9
467.216	1	16
467.386	1	5
467.557	1	9
467.727	1	2
467.897	1	2
468.068	1	3
468.238	1	13
468.409	1	8
468.579	1	15
468.749	1	3
468.920	1	6
469.090	1	12
469.260	1	3
469.431	1	1
469.601	1	16
469.772	1	13
469.942	1	6
470.112	1	16
470.283	1	1
470.453	1	19
470.623	1	7
470.794	1	7
470.964	1	10
471.135	1	15
471.305	1	-3
471.475	1	11
471.646	1	3
471.816	1	2
471.986	1	7
472.157	1	24
472.327	1	1
472.497	1	7
472.668	1	2
472.838	1	5
473.009	1	14
473.179	1	-3
473.349	1	1
473.520	1	16
473.690	1	13
473.860	1	1
474.031	1	18
474.201	1	10
474.371	1	22
474.542	1	12
474.712	1	14
474.882	1	17
475.053	1	13
475.223	1	4
475.394	1	9
475.564	1	4
475.734	1	14
475.905	1	23
476.075	1	9
476.245	1	14
476.416	1	8
476.586	1	13
476.756	1	3
476.927	1	10
477.097	1	10
477.267	1	-3
477.438	1	6
477.608	1	15
477.778	1	8
477.949	1	8
478.119	1	16
478.289	1	12
478.460	1	15
478.630	1	13
478.800	1	5
478.971	1	13
479.141	1	4
479.311	1	3
479.482	1	10
479.652	1	8
479.822	1	9
479.993	1	14
480.163	1	10
480.333	1	14
480.504	1	15
480.674	1	8
480.844	1	3
481.015	1	10
481.185	1	9
481.355	1	13
481.525	1	7
481.696	1	8
481.866	1	9
482.036	1	7
482.207	1	12
482.377	1	13
482.547	1	19
482.718	1	4
482.888	1	13
483.058	1	4
483.229	1	0
483.399	1	5
483.569	1	9
483.740	1	10
483.910	1	14
484.080	1	1
484.250	1	18
484.421	1	11
484.591	1	12
484.761	1	12
484.932	1	10
485.102	1	12
485.272	1	11
485.443	1	11
485.613	1	7
485.783	1	6
485.953	1	6
486.124	1	18
486.294	1	11
486.464	1	11
486.635	1	7
486.805	1	15
486.975	1	-1
487.146	1	16
487.316	1	6
487.486	1	11
487.656	1	-4
487.827	1	10
487.997	1	-6
488.167	1	13
488.338	1	8
488.508	1	9
488.678	1	6
488.848	1	18
489.019	1	0
489.189	1	3
489.359	1	0
489.529	1	1
489.700	1	2
489.870	1	20
490.040	1	1
490.211	1	1
490.381	1	10
490.551	1	18
490.721	1	19
490.892	1	9
491.062	1	14
491.232	1	10
491.402	1	1
491.573	1	-10
491.743	1	6
491.913	1	3
492.084	1	15
492.254	1	14
492.424	1	8
492.594	1	-3
492.765	1	10
492.935	1	0
493.105	1	11
493.275	1	3
493.446	1	11
493.616	1	25
493.786	1	4
493.956	1	1
494.127	1	3
494.297	1	-2
494.467	1	6
494.637	1	-4
494.808	1	-3
494.978	1	-1
495.148	1	0
495.318	1	11
495.489	1	12
495.659	1	12
495.829	1	5
495.999	1	14
496.170	1	10
496.340	1	11
496.510	1	5
496.680	1	2
496.851	1	-5
497.021	1	10
497.191	1	-2
497.361	1	1
497.532	1	-7
497.702	1	5
497.872	1	-3
498.042	1	13
498.213	1	0
498.383	1	1
498.553	1	1
498.723	1	4
498.894	1	8
499.064	1	-1
499.234	1	6
499.404	1	1
499.574	1	14
499.745	1	15
499.915	1	9
500.085	1	8
500.255	1	13
500.426	1	4
500.596	1	6
500.766	1	6
500.936	1	-2
501.106	1	-6
501.277	1	10
501.447	1	4
501.617	1	14
501.787	1	1
501.958	1	-1
502.128	1	-4
502.298	1	5
502.468	1	2
502.638	1	11
502.809	1	3
502.979	1	-1
503.149	1	-1
503.319	1	2
503.489	1	12
503.660	1	13
503.830	1	2
504.000	1	3
504.170	1	7
504.340	1	2
504.511	1	7
504.681	1	-2
504.851	1	17
505.021	1	6
505.192	1	-2
505.362	1	16
505.532	1	2
505.702	1	-1
505.872	1	6
506.043	1	3
506.213	1	-2
506.383	1	1
506.553	1	5
506.723	1	3
506.893	1	4
507.064	1	16
507.234	1	0
507.404	1	4
507.574	1	5
507.744	1	4
507.915	1	10
508.085	1	8
508.255	1	7
508.425	1	1
508.595	1	13
508.766	1	11
508.936	1	0
509.106	1	9
509.276	1	12
509.446	1	3
509.616	1	-5
509.787	1	5
509.957	1	4
510.127	1	11
510.297	1	6
510.467	1	2
510.638	1	15
510.808	1	1
510.978	1	6
511.148	1	5
511.318	1	1
511.488	1	-14
511.659	1	8
511.829	1	-1
511.999	1	4
512.169	1	8
512.339	1	9
512.509	1	4
512.680	1	4
512.850	1	4
513.020	1	20
513.190	1	5
513.360	1	10
513.530	1	10
513.700	1	2
513.871	1	1
514.041	1	2
514.211	1	12
514.381	1	5
514.551	1	8
514.721	1	-3
514.892	1	12
515.062	1	5
515.232	1	6
515.402	1	3
515.572	1	0
515.742	1	6
515.912	1	-1
516.083	1	2
516.253	1	14
516.423	1	3
516.593	1	6
516.763	1	8
516.933	1	0
517.104	1	11
517.274	1	5
517.444	1	1
517.614	1	-4
517.784	1	3
517.954	1	6
518.124	1	9
518.294	1	1
518.465	1	-3
518.635	1	-1
518.805	1	-2
518.975	1	3
519.145	1	1
519.315	1	0
519.485	1	-1
519.656	1	10
519.826	1	9
519.996	1	-6
520.166	1	12
520.336	1	6
520.506	1	-4
520.676	1	1
520.846	1	13
521.017	1	5
521.187	1	6
521.357	1	18
521.527	1	3
521.697	1	-2
521.867	1	-2
522.037	1	8
522.207	1	4
522.377	1	11
522.548	1	1
522.718	1	6
522.888	1	9
523.058	1	5
523.228	1	9
523.398	1	9
523.568	1	7
523.738	1	0
523.909	1	5
524.079	1	2
524.249	1	6
524.419	1	4
524.589	1	5
524.759	1	-1
524.929	1	3
525.099	1	9
525.269	1	6
525.439	1	0
525.610	1	13
525.780	1	3
525.950	1	6
526.120	1	-1
526.290	1	10
526.460	1	-3
526.630	1	5
526.800	1	-2
526.970	1	-4
527.140	1	16
527.311	1	3
527.481	1	-2
527.651	1	10
527.821	1	-6
527.991	1	15
528.161	1	12
528.331	1	4
528.501	1	11
528.671	1	-4
528.841	1	9
529.011	1	0
529.181	1	1
529.352	1	1
529.522	1	-12
529.692	1	16
529.862	1	-1
530.032	1	-3
530.202	1	11
530.372	1	2
530.542	1	4
530.712	1	8
530.882	1	8
531.052	1	8
531.222	1	1
531.392	1	7
531.563	1	9
531.733	1	9
531.903	1	8
532.073	1	7
532.243	1	-1
532.413	1	2
532.583	1	-2
532.753	1	2
532.923	1	0
533.093	1	5
533.263	1	-1
533.433	1	11
533.603	1	2
533.773	1	3
533.943	1	2
534.113	1	5
534.284	1	-5
534.454	1	6
534.624	1	19
534.794	1	-3
534.964	1	7
535.134	1	3
535.304	1	-1
535.474	1	11
535.644	1	-1
535.814	1	-4
535.984	1	-9
536.154	1	-7
536.324	1	0
536.494	1	3
536.664	1	11
536.834	1	3
537.004	1	7
537.174	1	14
537.344	1	4
537.514	1	0
537.685	1	3
537.855	1	4
538.025	1	2
538.195	1	1
538.365	1	9
538.535	1	5
538.705	1	4
538.875	1	9
539.045	1	7
539.215	1	4
539.385	1	0
539.555	1	10
539.725	1	-3
539.895	1	-3
540.065	1	9
540.235	1	9
540.405	1	-3
540.575	1	12
540.745	1	2
540.915	1	11
541.085	1	4
541.255	1	-5
541.425	1	2
541.595	1	0
541.765	1	11
541.935	1	6
542.105	1	4
542.275	1	12
542.445	1	-5
542.615	1	1
542.785	1	1
542.955	1	2
543.125	1	4
543.295	1	1
543.465	1	0
543.635	1	-1
543.805	1	18
543.975	1	6
544.145	1	8
544.315	1	2
544.485	1	8
544.655	1	1
544.825	1	-8
544.995	1	2
545.165	1	-1
545.335	1	5
545.505	1	-1
545.675	1	3
545.845	1	4
546.015	1	6
546.185	1	7
546.355	1	5
546.525	1	4
546.695	1	-2
546.865	1	-4
547.035	1	3
547.205	1	-8
547.375	1	10
547.545	1	9
547.715	1	-6
547.885	1	7
548.055	1	-9
548.225	1	10
548.395	1	-10
548.565	1	4
548.735	1	1
548.905	1	2
549.075	1	1
549.245	1	-4
549.415	1	-11
549.585	1	12
549.755	1	5
549.925	1	-9
550.095	1	8
550.265	1	-2
550.435	1	6
550.605	1	2
550.775	1	3
550.945	1	8
551.115	1	0
551.285	1	6
551.455	1	-8
551.625	1	12
551.795	1	4
551.965	1	5
552.135	1	-1
552.305	1	-6
552.475	1	-4
552.645	1	3
552.815	1	-3
552.985	1	6
553.155	1	8
553.325	1	13
553.495	1	-1
553.665	1	-2
553.835	1	-1
554.004	1	3
554.174	1	0
554.344	1	4
554.514	1	0
554.684	1	6
554.854	1	4
555.024	1	-9
555.194	1	-8
555.364	1	3
555.534	1	-1
555.704	1	4
555.874	1	8
556.044	1	0
556.214	1	-3
556.384	1	-8
556.554	1	14
556.724	1	0
556.894	1	-2
557.064	1	4
557.234	1	1
557.404	1	8
557.573	1	0
557.743	1	8
557.913	1	-4
558.083	1	-3
558.253	1	5
558.423	1	6
558.593	1	4
558.763	1	11
558.933	1	1
559.103	1	7
559.273	1	9
559.443	1	2
559.613	1	1
559.783	1	-1
559.953	1	1
560.122	1	7
560.292	1	0
560.462	1	5
560.632	1	6
560.802	1	4
560.972	1	2
561.142	1	8
561.312	1	-9
561.482	1	11
561.652	1	-2
561.822	1	-4
561.992	1	0
562.162	1	1
562.331	1	3
562.501	1	-1
562.671	1	13
562.841	1	-6
563.011	1	6
563.181	1	-2
563.351	1	-3
563.521	1	6
563.691	1	4
563.861	1	2
564.031	1	4
564.201	1	14
564.370	1	-17
564.540	1	9
564.710	1	-2
564.880	1	8
565.050	1	7
565.220	1	0
565.390	1	9
565.560	1	5
565.730	1	-3
565.900	1	6
566.069	1	14
566.239	1	3
566.409	1	2
566.579	1	2
566.749	1	2
566.919	1	11
567.089	1	0
567.259	1	17
567.429	1	-1
567.599	1	8
567.768	1	-2
567.938	1	12
568.108	1	-1
568.278	1	7
568.448	1	-10
568.618	1	4
568.788	1	6
568.958	1	-5
569.128	1	9
569.297	1	1
569.467	1	-4
569.637	1	11
569.807	1	-5
569.977	1	7
570.147	1	13
570.317	1	-15
570.487	1	3
570.656	1	1
570.826	1	-2
570.996	1	-5
571.166	1	6
571.336	1	5
571.506	1	13
571.676	1	10
571.846	1	2
572.015	1	-4
572.185	1	2
572.355	1	-6
572.525	1	10
572.695	1	-1
572.865	1	-9
573.035	1	0
573.205	1	0
573.374	1	-9
573.544	1	6
573.714	1	10
573.884	1	7
574.054	1	4
574.224	1	5
574.394	1	2
574.563	1	-12
574.733	1	0
574.903	1	0
575.073	1	-3
575.243	1	5
575.413	1	6
575.583	1	1
575.752	1	12
575.922	1	7
576.092	1	0
576.262	1	-1
576.432	1	6
576.602	1	-1
576.772	1	15
576.941	1	5
577.111	1	-7
577.281	1	-13
577.451	1	-8
577.621	1	16
577.791	1	4
577.960	1	1
578.130	1	0
578.300	1	6
578.470	1	12
578.640	1	6
578.810	1	0
578.979	1	15
579.149	1	10
579.319	1	-5
579.489	1	-2
579.659	1	-1
579.829	1	-1
579.998	1	5
580.168	1	12
580.338	1	13
580.508	1	0
580.678	1	-3
580.848	1	-4
581.017	1	6
581.187	1	-7
581.357	1	-3
581.527	1	12
581.697	1	4
581.867	1	-5
582.036	1	-2
582.206	1	6
582.376	1	10
582.546	1	-2
582.716	1	-11
582.885	1	-7
583.055	1	3
583.225	1	-12
583.395	1	11
583.565	1	-9
583.735	1	-3
583.904	1	10
584.074	1	1
584.244	1	5
584.414	1	-3
584.584	1	16
584.753	1	-8
584.923	1	7
585.093	1	-2
585.263	1	9
585.433	1	1
585.602	1	0
585.772	1	-10
585.942	1	1
586.112	1	2
586.282	1	2
586.451	1	-10
586.621	1	-7
586.791	1	3
586.961	1	-3
587.131	1	6
587.300	1	-10
587.470	1	6
587.640	1	4
587.810	1	-8
587.980	1	-1
588.149	1	0
588.319	1	1
588.489	1	6
588.659	1	2
588.829	1	1
588.998	1	11
589.168	1	6
589.338	1	2
589.508	1	6
589.677	1	-4
589.847	1	-6
590.017	1	16
590.187	1	-9
590.357	1	7
590.526	1	10
590.696	1	0
590.866	1	8
591.036	1	-1
591.205	1	7
591.375	1	-5
591.545	1	2
591.715	1	7
591.885	1	4
592.054	1	-2
592.224	1	7
592.394	1	-3
592.564	1	6
592.733	1	10
592.903	1	4
593.073	1	-1
593.243	1	6
593.412	1	13
593.582	1	4
593.752	1	-4
593.922	1	4
594.091	1	1
594.261	1	-9
594.431	1	6
594.601	1	14
594.771	1	4
594.940	1	-3
595.110	1	5
595.280	1	6
595.450	1	-2
595.619	1	3
595.789	1	2
595.959	1	11
596.129	1	7
596.298	1	-3
596.468	1	6
596.638	1	13
596.808	1	1
596.977	1	-4
597.147	1	2
597.317	1	-2
597.487	1	7
597.656	1	7
597.826	1	6
597.996	1	2
598.166	1	-1
598.335	1	-1
598.505	1	1
598.675	1	-3
598.844	1	7
599.014	1	0
599.184	1	3
599.354	1	-4
599.523	1	8
599.693	1	-5
599.863	1	8
600.033	1	11
600.202	1	0
600.372	1	13
600.542	1	13
600.712	1	0
600.881	1	-8
601.051	1	12
601.221	1	12
601.390	1	-7
601.560	1	6
601.730	1	13
601.900	1	4
602.069	1	5
602.239	1	-10
602.409	1	0
602.578	1	-3
602.748	1	-5
602.918	1	8
603.088	1	11
603.257	1	-1
603.427	1	0
603.597	1	4
603.767	1	8
603.936	1	8
604.106	1	-2
604.276	1	1
604.445	1	1
604.615	1	-5
604.785	1	3
604.954	1	-2
605.124	1	9
605.294	1	-2
605.464	1	-1
605.633	1	-4
605.803	1	11
605.973	1	1
606.142	1	5
606.312	1	10
606.482	1	1
606.652	1	14
606.821	1	-4
606.991	1	1
607.161	1	0
607.330	1	6
607.500	1	9
607.670	1	-6
607.839	1	7
608.009	1	13
608.179	1	8
608.348	1	3
608.518	1	3
608.688	1	7
608.858	1	-3
609.027	1	-7
609.197	1	7
609.367	1	8
609.536	1	10
609.706	1	-4
609.876	1	4
610.045	1	-1
610.215	1	5
610.385	1	-3
610.554	1	5
610.724	1	-1
610.894	1	3
611.063	1	3
611.233	1	1
611.403	1	7
611.572	1	1
611.742	1	8
611.912	1	6
612.081	1	-3
612.251	1	-2
612.421	1	7
612.590	1	2
612.760	1	5
612.930	1	6
613.099	1	2
613.269	1	19
613.439	1	4
613.608	1	4
613.778	1	2
613.948	1	0
614.117	1	-5
614.287	1	11
614.457	1	4
614.626	1	-5
614.796	1	5
614.966	1	1
615.135	1	-2
615.305	1	8
615.475	1	-9
615.644	1	0
615.814	1	9
615.984	1	1
616.153	1	-3
616.323	1	4
616.493	1	1
616.662	1	4
616.832	1	1
617.002	1	-6
617.171	1	4
617.341	1	-4
617.511	1	-11
617.680	1	-1
617.850	1	6
618.019	1	10
618.189	1	6
618.359	1	9
618.528	1	3
618.698	1	1
618.868	1	-1
619.037	1	0
619.207	1	0
619.377	1	-9
619.546	1	2
619.716	1	1
619.885	1	1
620.055	1	-1
620.225	1	5
620.394	1	-5
620.564	1	16
620.734	1	4
620.903	1	-7
621.073	1	3
621.242	1	5
621.412	1	-5
621.582	1	2
621.751	1	12
621.921	1	5
622.091	1	-1
622.260	1	-1
622.430	1	10
622.599	1	-4
622.769	1	1
622.939	1	-3
623.108	1	3
623.278	1	0
623.448	1	3
623.617	1	8
623.787	1	4
623.956	1	9
624.126	1	1
624.296	1	-4
624.465	1	6
624.635	1	9
624.804	1	5
624.974	1	1
625.144	1	4
625.313	1	4
625.483	1	-5
625.652	1	3
625.822	1	-5
625.992	1	-4
626.161	1	10
626.331	1	4
626.501	1	1
626.670	1	6
626.840	1	4
627.009	1	2
627.179	1	11
627.348	1	8
627.518	1	3
627.688	1	14
627.857	1	17
628.027	1	-2
628.196	1	-4
628.366	1	5
628.536	1	0
628.705	1	-5
628.875	1	5
629.044	1	6
629.214	1	3
629.384	1	4
629.553	1	10
629.723	1	9
629.892	1	1
630.062	1	8
630.232	1	-1
630.401	1	11
630.571	1	5
630.740	1	-4
630.910	1	8
631.079	1	0
631.249	1	4
631.419	1	-2
631.588	1	-5
631.758	1	3
631.927	1	-5
632.097	1	8
632.266	1	5
632.436	1	10
632.606	1	-12
632.775	1	4
632.945	1	5
633.114	1	10
633.284	1	10
633.453	1	0
633.623	1	2
633.793	1	3
633.962	1	4
634.132	1	-1
634.301	1	6
634.471	1	13
634.640	1	12
634.810	1	10
634.979	1	8
635.149	1	4
635.319	1	7
635.488	1	8
635.658	1	-3
635.827	1	-7
635.997	1	-4
636.166	1	-1
636.336	1	0
636.505	1	11
636.675	1	-7
636.845	1	4
637.014	1	4
637.184	1	4
637.353	1	8
637.523	1	3
637.692	1	-3
637.862	1	9
638.031	1	9
638.201	1	7
638.370	1	-1
638.540	1	-2
638.710	1	3
638.879	1	0
639.049	1	9
639.218	1	2
639.388	1	-3
639.557	1	0
639.727	1	9
639.896	1	-1
640.066	1	-3
640.235	1	4
640.405	1	11
640.574	1	6
640.744	1	2
640.914	1	4
641.083	1	1
641.253	1	-1
641.422	1	-4
641.592	1	12
641.761	1	-1
641.931	1	-2
642.100	1	15
642.270	1	1
642.439	1	7
642.609	1	12
642.778	1	1
642.948	1	-6
643.117	1	22
643.287	1	9
643.456	1	4
643.626	1	10
643.795	1	11
643.965	1	8
644.134	1	-5
644.304	1	-2
644.473	1	4
644.643	1	8
644.812	1	0
644.982	1	5
645.151	1	3
645.321	1	-10
645.490	1	12
645.660	1	-5
645.829	1	-5
645.999	1	-1
646.168	1	7
646.338	1	16
646.507	1	3
646.677	1	1
646.846	1	0
647.016	1	3
647.185	1	9
647.355	1	-14
647.524	1	-2
647.694	1	6
647.863	1	3
648.033	1	9
648.202	1	12
648.372	1	1
648.541	1	-3
648.711	1	1
648.880	1	3
649.050	1	-6
649.219	1	8
649.389	1	6
649.558	1	6
649.728	1	8
649.897	1	3
650.067	1	4
650.236	1	1
650.406	1	11
650.575	1	11
650.745	1	2
650.914	1	2
651.084	1	-9
651.253	1	14
651.423	1	-1
651.592	1	2
651.762	1	-1
651.931	1	14
652.101	1	8
652.270	1	4
652.440	1	8
652.609	1	1
652.778	1	-5
652.948	1	7
653.117	1	2
653.287	1	8
653.456	1	8
653.626	1	10
653.795	1	2
653.965	1	3
654.134	1	6
654.304	1	-8
654.473	1	7
654.643	1	7
654.812	1	6
654.982	1	2
655.151	1	0
655.320	1	0
655.490	1	8
655.659	1	3
655.829	1	4
655.998	1	-3
656.168	1	-2
656.337	1	1
656.507	1	6
656.676	1	6
656.846	1	6
657.015	1	11
657.184	1	13
657.354	1	13
657.523	1	5
657.693	1	16
657.862	1	10
658.032	1	2
658.201	1	4
658.371	1	20
658.540	1	6
658.709	1	1
658.879	1	5
659.048	1	1
659.218	1	0
659.387	1	4
659.557	1	-1
659.726	1	12
659.895	1	-5
660.065	1	-6
660.234	1	5
660.404	1	13
660.573	1	4
660.743	1	8
660.912	1	10
661.081	1	11
661.251	1	0
661.420	1	-1
661.590	1	10
661.759	1	6
661.929	1	5
662.098	1	19
662.267	1	-3
662.437	1	8
662.606	1	7
662.776	1	13
662.945	1	0
663.115	1	0
663.284	1	-7
663.453	1	11
663.623	1	8
663.792	1	5
663.962	1	1
664.131	1	8
664.300	1	18
664.470	1	1
664.639	1	6
664.809	1	0
664.978	1	10
665.148	1	9
665.317	1	4
665.486	1	11
665.656	1	-1
665.825	1	13
665.995	1	-1
666.164	1	2
666.333	1	11
666.503	1	-1
666.672	1	-3
666.842	1	-1
667.011	1	-5
667.180	1	8
667.350	1	9
667.519	1	6
667.689	1	4
667.858	1	2
668.027	1	19
668.197	1	1
668.366	1	-5
668.536	1	6
668.705	1	-4
668.874	1	11
669.044	1	5
669.213	1	16
669.382	1	-7
669.552	1	12
669.721	1	10
669.891	1	16
670.060	1	3
670.229	1	10
670.399	1	-1
670.568	1	17
670.738	1	10
670.907	1	6
671.076	1	-2
671.246	1	0
671.415	1	2
671.584	1	5
671.754	1	4
671.923	1	-5
672.093	1	7
672.262	1	1
672.431	1	3
672.601	1	-6
672.770	1	-12
672.939	1	15
673.109	1	-1
673.278	1	9
673.448	1	4
673.617	1	-9
673.786	1	10
