325.333	1	7
325.504	1	7
325.675	1	1
325.846	1	10
326.017	1	0
326.188	1	2
326.359	1	5
326.531	1	-5
326.702	1	-5
326.873	1	3
327.044	1	1
327.215	1	3
327.386	1	10
327.557	1	-5
327.728	1	8
327.899	1	10
328.070	1	0
328.241	1	7
328.412	1	-1
328.583	1	9
328.754	1	0
328.926	1	13
329.097	1	0
329.268	1	12
329.439	1	0
329.610	1	4
329.781	1	-5
329.952	1	10
330.123	1	10
330.294	1	5
330.465	1	7
330.636	1	7
330.807	1	-1
330.978	1	5
331.149	1	3
331.320	1	6
331.492	1	4
331.663	1	6
331.834	1	14
332.005	1	16
332.176	1	14
332.347	1	13
332.518	1	6
332.689	1	15
332.860	1	0
333.031	1	14
333.202	1	1
333.373	1	1
333.544	1	4
333.715	1	15
333.886	1	2
334.057	1	10
334.228	1	2
334.399	1	6
334.570	1	15
334.741	1	-2
334.912	1	16
335.084	1	19
335.255	1	-3
335.426	1	4
335.597	1	7
335.768	1	11
335.939	1	13
336.110	1	2
336.281	1	-2
336.452	1	2
336.623	1	7
336.794	1	13
336.965	1	5
337.136	1	12
337.307	1	7
337.478	1	7
337.649	1	2
337.820	1	-1
337.991	1	8
338.162	1	-1
338.333	1	2
338.504	1	12
338.675	1	2
338.846	1	11
339.017	1	8
339.188	1	2
339.359	1	-5
339.530	1	2
339.701	1	15
339.872	1	21
340.043	1	-4
340.214	1	10
340.385	1	16
340.556	1	1
340.727	1	7
340.898	1	15
341.069	1	6
341.240	1	8
341.411	1	11
341.582	1	10
341.753	1	5
341.924	1	2
342.095	1	16
342.266	1	7
342.437	1	15
342.608	1	9
342.779	1	15
342.950	1	10
343.121	1	17
343.292	1	0
343.463	1	15
343.634	1	10
343.805	1	18
343.976	1	8
344.147	1	6
344.318	1	9
344.489	1	3
344.660	1	25
344.831	1	8
345.002	1	10
345.173	1	12
345.344	1	7
345.515	1	7
345.686	1	9
345.857	1	12
346.028	1	14
346.199	1	0
346.370	1	2
346.541	1	15
346.712	1	3
346.883	1	10
347.054	1	10
347.225	1	8
347.396	1	17
347.567	1	15
347.738	1	3
347.909	1	16
348.080	1	1
348.251	1	12
348.422	1	15
348.593	1	15
348.764	1	14
348.935	1	2
349.106	1	12
349.277	1	17
349.448	1	16
349.619	1	6
349.790	1	15
349.961	1	16
350.132	1	12
350.303	1	20
350.474	1	17
350.645	1	18
350.816	1	11
350.987	1	22
351.157	1	13
351.328	1	22
351.499	1	6
351.670	1	9
351.841	1	31
352.012	1	17
352.183	1	23
352.354	1	23
352.525	1	21
352.696	1	21
352.867	1	9
353.038	1	18
353.209	1	15
353.380	1	14
353.551	1	3
353.722	1	15
353.893	1	14
354.064	1	25
354.235	1	16
354.406	1	7
354.576	1	13
354.747	1	13
354.918	1	13
355.089	1	15
355.260	1	24
355.431	1	16
355.602	1	17
355.773	1	6
355.944	1	11
356.115	1	10
356.286	1	13
356.457	1	12
356.628	1	12
356.799	1	13
356.970	1	27
357.141	1	19
357.311	1	12
357.482	1	23
357.653	1	15
357.824	1	18
357.995	1	19
358.166	1	9
358.337	1	12
358.508	1	19
358.679	1	7
358.850	1	17
359.021	1	11
359.192	1	31
359.363	1	16
359.533	1	17
359.704	1	12
359.875	1	11
360.046	1	13
360.217	1	6
360.388	1	12
360.559	1	22
360.730	1	24
360.901	1	10
361.072	1	27
361.243	1	18
361.414	1	14
361.584	1	12
361.755	1	24
361.926	1	19
362.097	1	11
362.268	1	18
362.439	1	7
362.610	1	26
362.781	1	5
362.952	1	16
363.123	1	11
363.293	1	11
363.464	1	22
363.635	1	27
363.806	1	9
363.977	1	16
364.148	1	16
364.319	1	21
364.490	1	21
364.661	1	14
364.832	1	29
365.002	1	20
365.173	1	21
365.344	1	14
365.515	1	19
365.686	1	13
365.857	1	17
366.028	1	21
366.199	1	18
366.370	1	13
366.540	1	16
366.711	1	13
366.882	1	12
367.053	1	7
367.224	1	22
367.395	1	20
367.566	1	29
367.737	1	25
367.908	1	19
368.078	1	20
368.249	1	29
368.420	1	19
368.591	1	6
368.762	1	8
368.933	1	11
369.104	1	7
369.274	1	21
369.445	1	13
369.616	1	23
369.787	1	21
369.958	1	24
370.129	1	11
370.300	1	22
370.471	1	16
370.641	1	21
370.812	1	23
370.983	1	18
371.154	1	13
371.325	1	20
371.496	1	20
371.667	1	17
371.837	1	14
372.008	1	20
372.179	1	18
372.350	1	22
372.521	1	9
372.692	1	27
372.863	1	32
373.033	1	10
373.204	1	24
373.375	1	22
373.546	1	25
373.717	1	18
373.888	1	26
374.059	1	21
374.229	1	27
374.400	1	11
374.571	1	22
374.742	1	32
374.913	1	22
375.084	1	13
375.254	1	22
375.425	1	29
375.596	1	14
375.767	1	19
375.938	1	14
376.109	1	30
376.279	1	13
376.450	1	25
376.621	1	26
376.792	1	23
376.963	1	22
377.134	1	33
377.304	1	21
377.475	1	17
377.646	1	15
377.817	1	14
377.988	1	20
378.159	1	31
378.329	1	26
378.500	1	25
378.671	1	25
378.842	1	21
379.013	1	12
379.184	1	18
379.354	1	28
379.525	1	11
379.696	1	29
379.867	1	25
380.038	1	21
380.209	1	18
380.379	1	22
380.550	1	13
380.721	1	31
380.892	1	23
381.063	1	24
381.233	1	32
381.404	1	17
381.575	1	36
381.746	1	13
381.917	1	18
382.087	1	17
382.258	1	25
382.429	1	24
382.600	1	38
382.771	1	24
382.941	1	6
383.112	1	22
383.283	1	16
383.454	1	13
383.625	1	13
383.795	1	20
383.966	1	26
384.137	1	31
384.308	1	29
384.479	1	30
384.649	1	20
384.820	1	18
384.991	1	18
385.162	1	28
385.333	1	24
385.503	1	26
385.674	1	15
385.845	1	29
386.016	1	15
386.187	1	17
386.357	1	20
386.528	1	34
386.699	1	18
386.870	1	33
387.041	1	17
387.211	1	29
387.382	1	33
387.553	1	21
387.724	1	18
387.894	1	23
388.065	1	30
388.236	1	23
388.407	1	24
388.578	1	31
388.748	1	13
388.919	1	18
389.090	1	25
389.261	1	22
389.431	1	24
389.602	1	23
389.773	1	30
389.944	1	33
390.114	1	27
390.285	1	16
390.456	1	28
390.627	1	24
390.798	1	23
390.968	1	25
391.139	1	28
391.310	1	24
391.481	1	23
391.651	1	19
391.822	1	24
391.993	1	32
392.164	1	17
392.334	1	29
392.505	1	24
392.676	1	25
392.847	1	38
393.017	1	37
393.188	1	29
393.359	1	29
393.530	1	32
393.700	1	21
393.871	1	20
394.042	1	24
394.213	1	24
394.383	1	32
394.554	1	31
394.725	1	33
394.896	1	33
395.066	1	35
395.237	1	14
395.408	1	29
395.579	1	29
395.749	1	23
395.920	1	28
396.091	1	39
396.262	1	25
396.432	1	28
396.603	1	45
396.774	1	30
396.945	1	35
397.115	1	40
397.286	1	20
397.457	1	33
397.627	1	35
397.798	1	31
397.969	1	33
398.140	1	32
398.310	1	31
398.481	1	32
398.652	1	28
398.823	1	29
398.993	1	32
399.164	1	33
399.335	1	39
399.505	1	33
399.676	1	27
399.847	1	39
400.018	1	24
400.188	1	17
400.359	1	32
400.530	1	15
400.700	1	28
400.871	1	33
401.042	1	22
401.213	1	21
401.383	1	28
401.554	1	39
401.725	1	28
401.895	1	22
402.066	1	38
402.237	1	33
402.408	1	28
402.578	1	35
402.749	1	32
402.920	1	37
403.090	1	33
403.261	1	23
403.432	1	36
403.603	1	39
403.773	1	33
403.944	1	33
404.115	1	46
404.285	1	32
404.456	1	29
404.627	1	27
404.797	1	18
404.968	1	27
405.139	1	32
405.310	1	34
405.480	1	37
405.651	1	27
405.822	1	33
405.992	1	29
406.163	1	34
406.334	1	21
406.504	1	29
406.675	1	47
406.846	1	36
407.016	1	43
407.187	1	38
407.358	1	27
407.528	1	27
407.699	1	34
407.870	1	21
408.041	1	36
408.211	1	36
408.382	1	25
408.553	1	24
408.723	1	36
408.894	1	36
409.065	1	31
409.235	1	31
409.406	1	30
409.577	1	28
409.747	1	32
409.918	1	30
410.089	1	30
410.259	1	33
410.430	1	23
410.601	1	27
410.771	1	33
410.942	1	37
411.113	1	25
411.283	1	31
411.454	1	31
411.625	1	36
411.795	1	36
411.966	1	32
412.137	1	37
412.307	1	12
412.478	1	25
412.649	1	28
412.819	1	14
412.990	1	33
413.161	1	31
413.331	1	21
413.502	1	29
413.672	1	27
413.843	1	25
414.014	1	30
414.184	1	30
414.355	1	36
414.526	1	31
414.696	1	36
414.867	1	38
415.038	1	10
415.208	1	28
415.379	1	37
415.550	1	31
415.720	1	20
415.891	1	34
416.062	1	34
416.232	1	24
416.403	1	38
416.573	1	39
416.744	1	25
416.915	1	32
417.085	1	39
417.256	1	38
417.427	1	28
417.597	1	29
417.768	1	24
417.939	1	28
418.109	1	26
418.280	1	38
418.450	1	27
418.621	1	11
418.792	1	27
418.962	1	28
419.133	1	42
419.304	1	21
419.474	1	13
419.645	1	32
419.815	1	24
419.986	1	26
420.157	1	38
420.327	1	28
420.498	1	33
420.669	1	25
420.839	1	33
421.010	1	35
421.180	1	37
421.351	1	17
421.522	1	43
421.692	1	33
421.863	1	31
422.033	1	43
422.204	1	43
422.375	1	29
422.545	1	44
422.716	1	25
422.886	1	32
423.057	1	31
423.228	1	33
423.398	1	24
423.569	1	28
423.740	1	28
423.910	1	17
424.081	1	24
424.251	1	29
424.422	1	28
424.593	1	19
424.763	1	40
424.934	1	25
425.104	1	29
425.275	1	32
425.445	1	27
425.616	1	16
425.787	1	23
425.957	1	28
426.128	1	30
426.298	1	24
426.469	1	15
426.640	1	35
426.810	1	31
426.981	1	14
427.151	1	36
427.322	1	36
427.493	1	39
427.663	1	30
427.834	1	26
428.004	1	39
428.175	1	18
428.345	1	36
428.516	1	20
428.687	1	31
428.857	1	26
429.028	1	20
429.198	1	26
429.369	1	35
429.540	1	27
429.710	1	14
429.881	1	40
430.051	1	15
430.222	1	23
430.392	1	33
430.563	1	37
430.734	1	35
430.904	1	43
431.075	1	24
431.245	1	18
431.416	1	35
431.586	1	29
431.757	1	31
431.927	1	36
432.098	1	33
432.269	1	45
432.439	1	34
432.610	1	31
432.780	1	38
432.951	1	26
433.121	1	25
433.292	1	45
433.462	1	17
433.633	1	31
433.804	1	37
433.974	1	24
434.145	1	36
434.315	1	32
434.486	1	22
434.656	1	34
434.827	1	28
434.997	1	17
435.168	1	45
435.339	1	34
435.509	1	28
435.680	1	30
435.850	1	34
436.021	1	19
436.191	1	35
436.362	1	33
436.532	1	24
436.703	1	25
436.873	1	34
437.044	1	9
437.214	1	19
437.385	1	29
437.556	1	17
437.726	1	39
437.897	1	37
438.067	1	29
438.238	1	28
438.408	1	30
438.579	1	31
438.749	1	17
438.920	1	20
439.090	1	30
439.261	1	24
439.431	1	26
439.602	1	18
439.772	1	20
439.943	1	47
440.113	1	26
440.284	1	24
440.455	1	31
440.625	1	26
440.796	1	29
440.966	1	25
441.137	1	22
441.307	1	24
441.478	1	27
441.648	1	22
441.819	1	20
441.989	1	20
442.160	1	33
442.330	1	27
442.501	1	23
442.671	1	19
442.842	1	7
443.012	1	21
443.183	1	35
443.353	1	17
443.524	1	20
443.694	1	28
443.865	1	15
444.035	1	28
444.206	1	14
444.376	1	18
444.547	1	33
444.717	1	26
444.888	1	24
445.058	1	28
445.229	1	29
445.399	1	16
445.570	1	21
445.740	1	17
445.911	1	19
446.081	1	20
446.252	1	20
446.422	1	12
446.593	1	19
446.763	1	16
446.934	1	14
447.104	1	16
447.275	1	23
447.445	1	20
447.616	1	29
447.786	1	21
447.957	1	24
448.127	1	18
448.298	1	26
448.468	1	20
448.639	1	16
448.809	1	22
448.979	1	10
449.150	1	20
449.320	1	15
449.491	1	33
449.661	1	24
449.832	1	21
450.002	1	28
450.173	1	20
450.343	1	21
450.514	1	27
450.684	1	20
450.855	1	21
451.025	1	15
451.196	1	24
451.366	1	25
451.537	1	18
451.707	1	17
451.878	1	22
452.048	1	26
452.218	1	24
452.389	1	18
452.559	1	15
452.730	1	25
452.900	1	26
453.071	1	11
453.241	1	19
453.412	1	18
453.582	1	17
453.753	1	23
453.923	1	25
454.093	1	25
454.264	1	26
454.434	1	13
454.605	1	21
454.775	1	21
454.946	1	19
455.116	1	20
455.287	1	18
455.457	1	21
455.628	1	10
455.798	1	23
455.968	1	25
456.139	1	23
456.309	1	20
456.480	1	16
456.650	1	11
456.821	1	21
456.991	1	28
457.161	1	22
457.332	1	26
457.502	1	5
457.673	1	21
457.843	1	25
458.014	1	26
458.184	1	15
458.355	1	18
458.525	1	23
458.695	1	30
458.866	1	18
459.036	1	23
459.207	1	24
459.377	1	7
459.548	1	19
459.718	1	21
459.888	1	11
460.059	1	23
460.229	1	22
460.400	1	26
460.570	1	15
460.740	1	15
460.911	1	22
461.081	1	9
461.252	1	12
461.422	1	19
461.593	1	20
461.763	1	20
461.933	1	19
462.104	1	18
462.274	1	26
462.445	1	15
462.615	1	18
462.785	1	19
462.956	1	8
463.126	1	9
463.297	1	18
463.467	1	21
463.638	1	19
463.808	1	9
463.978	1	24
464.149	1	14
464.319	1	15
464.490	1	28
464.660	1	21
464.830	1	6
465.001	1	22
465.171	1	20
465.342	1	25
465.512	1	12
465.682	1	21
465.853	1	16
466.023	1	24
466.194	1	12
466.364	1	16
466.534	1	21
466.705	1	19
466.875	1	16
467.045	1	8
467.216	1	24
467.386	1	9
467.557	1	10
467.727	1	10
467.897	1	13
468.068	1	13
468.238	1	6
468.409	1	17
468.579	1	21
468.749	1	11
468.920	1	14
469.090	1	16
469.260	1	3
469.431	1	13
469.601	1	25
469.772	1	15
469.942	1	10
470.112	1	16
470.283	1	14
470.453	1	17
470.623	1	13
470.794	1	9
470.964	1	15
471.135	1	22
471.305	1	6
471.475	1	10
471.646	1	9
471.816	1	15
471.986	1	11
472.157	1	30
472.327	1	6
472.497	1	13
472.668	1	6
472.838	1	14
473.009	1	16
473.179	1	3
473.349	1	15
473.520	1	19
473.690	1	15
473.860	1	18
474.031	1	10
474.201	1	6
474.371	1	20
474.542	1	14
474.712	1	15
474.882	1	15
475.053	1	23
475.223	1	19
475.394	1	14
475.564	1	16
475.734	1	14
475.905	1	23
476.075	1	10
476.245	1	21
476.416	1	13
476.586	1	24
476.756	1	24
476.927	1	12
477.097	1	26
477.267	1	7
477.438	1	11
477.608	1	10
477.778	1	15
477.949	1	11
478.119	1	18
478.289	1	22
478.460	1	23
478.630	1	19
478.800	1	18
478.971	1	29
479.141	1	7
479.311	1	0
479.482	1	2
479.652	1	11
479.822	1	12
479.993	1	21
480.163	1	15
480.333	1	14
480.504	1	25
480.674	1	11
480.844	1	5
481.015	1	12
481.185	1	1
481.355	1	8
481.525	1	8
481.696	1	13
481.866	1	20
482.036	1	20
482.207	1	8
482.377	1	9
482.547	1	17
482.718	1	13
482.888	1	13
483.058	1	10
483.229	1	6
483.399	1	12
483.569	1	4
483.740	1	14
483.910	1	20
484.080	1	8
484.250	1	23
484.421	1	11
484.591	1	16
484.761	1	18
484.932	1	10
485.102	1	20
485.272	1	16
485.443	1	16
485.613	1	21
485.783	1	10
485.953	1	7
486.124	1	12
486.294	1	5
486.464	1	11
486.635	1	11
486.805	1	23
486.975	1	9
487.146	1	19
487.316	1	14
487.486	1	13
487.656	1	0
487.827	1	12
487.997	1	3
488.167	1	8
488.338	1	13
488.508	1	8
488.678	1	1
488.848	1	19
489.019	1	14
489.189	1	16
489.359	1	5
489.529	1	2
489.700	1	12
489.870	1	28
490.040	1	-4
490.211	1	-2
490.381	1	15
490.551	1	10
490.721	1	18
490.892	1	8
491.062	1	10
491.232	1	8
491.402	1	5
491.573	1	9
491.743	1	5
491.913	1	9
492.084	1	11
492.254	1	11
492.424	1	11
492.594	1	8
492.765	1	3
492.935	1	2
493.105	1	12
493.275	1	22
493.446	1	12
493.616	1	14
493.786	1	10
493.956	1	13
494.127	1	10
494.297	1	2
494.467	1	6
494.637	1	15
494.808	1	9
494.978	1	10
495.148	1	12
495.318	1	7
495.489	1	4
495.659	1	4
495.829	1	8
495.999	1	3
496.170	1	16
496.340	1	6
496.510	1	7
496.680	1	-2
496.851	1	7
497.021	1	12
497.191	1	1
497.361	1	8
497.532	1	9
497.702	1	11
497.872	1	11
498.042	1	20
498.213	1	11
498.383	1	8
498.553	1	2
498.723	1	6
498.894	1	4
499.064	1	11
499.234	1	4
499.404	1	8
499.574	1	23
499.745	1	17
499.915	1	4
500.085	1	11
500.255	1	9
500.426	1	11
500.596	1	6
500.766	1	8
500.936	1	4
501.106	1	2
501.277	1	13
501.447	1	6
501.617	1	11
501.787	1	6
501.958	1	-1
502.128	1	6
502.298	1	11
502.468	1	-6
502.638	1	7
502.809	1	12
502.979	1	3
503.149	1	1
503.319	1	2
503.489	1	7
503.660	1	6
503.830	1	9
504.000	1	11
504.170	1	1
504.340	1	7
504.511	1	8
504.681	1	13
504.851	1	13
505.021	1	10
505.192	1	-3
505.362	1	12
505.532	1	8
505.702	1	7
505.872	1	6
506.043	1	9
506.213	1	-5
506.383	1	14
506.553	1	4
506.723	1	14
506.893	1	4
507.064	1	15
507.234	1	10
507.404	1	1
507.574	1	3
507.744	1	9
507.915	1	10
508.085	1	21
508.255	1	14
508.425	1	-5
508.595	1	4
508.766	1	10
508.936	1	1
509.106	1	16
509.276	1	12
509.446	1	2
509.616	1	7
509.787	1	10
509.957	1	10
510.127	1	6
510.297	1	3
510.467	1	10
510.638	1	11
510.808	1	-13
510.978	1	2
511.148	1	7
511.318	1	12
511.488	1	-3
511.659	1	13
511.829	1	-7
511.999	1	15
512.169	1	6
512.339	1	1
512.509	1	9
512.680	1	7
512.850	1	9
513.020	1	11
513.190	1	1
513.360	1	-8
513.530	1	4
513.700	1	18
513.871	1	-4
514.041	1	4
514.211	1	20
514.381	1	13
514.551	1	12
514.721	1	-4
514.892	1	5
515.062	1	10
515.232	1	7
515.402	1	4
515.572	1	-13
515.742	1	9
515.912	1	14
516.083	1	6
516.253	1	8
516.423	1	3
516.593	1	8
516.763	1	13
516.933	1	-2
517.104	1	11
517.274	1	18
517.444	1	4
517.614	1	4
517.784	1	7
517.954	1	6
518.124	1	11
518.294	1	5
518.465	1	5
518.635	1	5
518.805	1	1
518.975	1	8
519.145	1	-3
519.315	1	-3
519.485	1	-2
519.656	1	10
519.826	1	12
519.996	1	-4
520.166	1	10
520.336	1	9
520.506	1	2
520.676	1	3
520.846	1	11
521.017	1	2
521.187	1	1
521.357	1	19
521.527	1	-9
521.697	1	0
521.867	1	4
522.037	1	9
522.207	1	4
522.377	1	5
522.548	1	4
522.718	1	0
522.888	1	18
523.058	1	14
523.228	1	15
523.398	1	-3
523.568	1	13
523.738	1	8
523.909	1	16
524.079	1	4
524.249	1	3
524.419	1	10
524.589	1	4
524.759	1	2
524.929	1	4
525.099	1	12
525.269	1	4
525.439	1	2
525.610	1	19
525.780	1	9
525.950	1	-5
526.120	1	-3
526.290	1	-1
526.460	1	-8
526.630	1	9
526.800	1	1
526.970	1	2
527.140	1	13
527.311	1	7
527.481	1	8
527.651	1	10
527.821	1	-4
527.991	1	12
528.161	1	7
528.331	1	3
528.501	1	-1
528.671	1	1
528.841	1	9
529.011	1	0
529.181	1	13
529.352	1	2
529.522	1	-6
529.692	1	8
529.862	1	-2
530.032	1	6
530.202	1	5
530.372	1	7
530.542	1	14
530.712	1	14
530.882	1	11
531.052	1	4
531.222	1	-2
531.392	1	0
531.563	1	16
531.733	1	13
531.903	1	7
532.073	1	5
532.243	1	5
532.413	1	11
532.583	1	-1
532.753	1	2
532.923	1	-6
533.093	1	3
533.263	1	1
533.433	1	-1
533.603	1	6
533.773	1	5
533.943	1	4
534.113	1	1
534.284	1	6
534.454	1	10
534.624	1	15
534.794	1	-3
534.964	1	12
535.134	1	1
535.304	1	15
535.474	1	5
535.644	1	3
535.814	1	-7
535.984	1	-8
536.154	1	-2
536.324	1	9
536.494	1	15
536.664	1	8
536.834	1	1
537.004	1	-3
537.174	1	9
537.344	1	2
537.514	1	-3
537.685	1	2
537.855	1	10
538.025	1	6
538.195	1	5
538.365	1	17
538.535	1	3
538.705	1	3
538.875	1	3
539.045	1	7
539.215	1	11
539.385	1	5
539.555	1	8
539.725	1	5
539.895	1	-7
540.065	1	8
540.235	1	5
540.405	1	0
540.575	1	4
540.745	1	5
540.915	1	6
541.085	1	10
541.255	1	1
541.425	1	11
541.595	1	3
541.765	1	6
541.935	1	-5
542.105	1	-3
542.275	1	-3
542.445	1	1
542.615	1	10
542.785	1	-3
542.955	1	-2
543.125	1	-6
543.295	1	9
543.465	1	1
543.635	1	3
543.805	1	20
543.975	1	-9
544.145	1	6
544.315	1	-10
544.485	1	5
544.655	1	6
544.825	1	-15
544.995	1	6
545.165	1	-8
545.335	1	4
545.505	1	4
545.675	1	13
545.845	1	14
546.015	1	7
546.185	1	6
546.355	1	8
546.525	1	0
546.695	1	-6
546.865	1	-1
547.035	1	0
547.205	1	-8
547.375	1	11
547.545	1	6
547.715	1	-1
547.885	1	6
548.055	1	1
548.225	1	4
548.395	1	-5
548.565	1	6
548.735	1	6
548.905	1	1
549.075	1	3
549.245	1	-2
549.415	1	3
549.585	1	10
549.755	1	7
549.925	1	-10
550.095	1	-3
550.265	1	-2
550.435	1	4
550.605	1	-2
550.775	1	10
550.945	1	10
551.115	1	5
551.285	1	-2
551.455	1	4
551.625	1	5
551.795	1	11
551.965	1	8
552.135	1	5
552.305	1	-13
552.475	1	-6
552.645	1	3
552.815	1	2
552.985	1	11
553.155	1	8
553.325	1	13
553.495	1	6
553.665	1	3
553.835	1	5
554.004	1	-1
554.174	1	8
554.344	1	3
554.514	1	5
554.684	1	5
554.854	1	12
555.024	1	-4
555.194	1	-7
555.364	1	-5
555.534	1	12
555.704	1	8
555.874	1	13
556.044	1	9
556.214	1	0
556.384	1	2
556.554	1	11
556.724	1	8
556.894	1	-1
557.064	1	3
557.234	1	-2
557.404	1	8
557.573	1	6
557.743	1	-3
557.913	1	-5
558.083	1	1
558.253	1	4
558.423	1	-6
558.593	1	8
558.763	1	-3
558.933	1	-4
559.103	1	8
559.273	1	2
559.443	1	4
559.613	1	5
559.783	1	-5
559.953	1	11
560.122	1	13
560.292	1	0
560.462	1	1
560.632	1	10
560.802	1	6
560.972	1	3
561.142	1	7
561.312	1	-8
561.482	1	7
561.652	1	7
561.822	1	0
561.992	1	3
562.162	1	-3
562.331	1	6
562.501	1	-6
562.671	1	14
562.841	1	-7
563.011	1	13
563.181	1	5
563.351	1	1
563.521	1	-2
563.691	1	-3
563.861	1	1
564.031	1	9
564.201	1	14
564.370	1	-4
564.540	1	2
564.710	1	-3
564.880	1	3
565.050	1	7
565.220	1	-1
565.390	1	2
565.560	1	6
565.730	1	-7
565.900	1	4
566.069	1	7
566.239	1	-2
566.409	1	3
566.579	1	9
566.749	1	-7
566.919	1	6
567.089	1	5
567.259	1	8
567.429	1	8
567.599	1	4
567.768	1	8
567.938	1	-1
568.108	1	10
568.278	1	7
568.448	1	-4
568.618	1	3
568.788	1	-1
568.958	1	-6
569.128	1	13
569.297	1	-1
569.467	1	-4
569.637	1	9
569.807	1	1
569.977	1	4
570.147	1	10
570.317	1	0
570.487	1	5
570.656	1	-1
570.826	1	-8
570.996	1	1
571.166	1	13
571.336	1	-5
571.506	1	5
571.676	1	11
571.846	1	8
572.015	1	7
572.185	1	2
572.355	1	4
572.525	1	5
572.695	1	5
572.865	1	1
573.035	1	2
573.205	1	6
573.374	1	-5
573.544	1	4
573.714	1	4
573.884	1	17
574.054	1	-3
574.224	1	-4
574.394	1	-1
574.563	1	-8
574.733	1	1
574.903	1	3
575.073	1	6
575.243	1	6
575.413	1	6
575.583	1	-1
575.752	1	13
575.922	1	4
576.092	1	4
576.262	1	2
576.432	1	0
576.602	1	3
576.772	1	17
576.941	1	1
577.111	1	3
577.281	1	-5
577.451	1	5
577.621	1	7
577.791	1	10
577.960	1	-8
578.130	1	7
578.300	1	0
578.470	1	11
578.640	1	-4
578.810	1	2
578.979	1	2
579.149	1	2
579.319	1	-2
579.489	1	-2
579.659	1	0
579.829	1	5
579.998	1	7
580.168	1	9
580.338	1	8
580.508	1	-3
580.678	1	-2
580.848	1	2
581.017	1	-7
581.187	1	2
581.357	1	-10
581.527	1	7
581.697	1	12
581.867	1	6
582.036	1	-3
582.206	1	4
582.376	1	7
582.546	1	-4
582.716	1	-3
582.885	1	3
583.055	1	3
583.225	1	-12
583.395	1	0
583.565	1	-5
583.735	1	3
583.904	1	4
584.074	1	3
584.244	1	5
584.414	1	2
584.584	1	8
584.753	1	0
584.923	1	8
585.093	1	-3
585.263	1	4
585.433	1	8
585.602	1	-5
585.772	1	1
585.942	1	4
586.112	1	2
586.282	1	-10
586.451	1	-1
586.621	1	2
586.791	1	-4
586.961	1	1
587.131	1	7
587.300	1	-6
587.470	1	5
587.640	1	18
587.810	1	-1
587.980	1	3
588.149	1	-3
588.319	1	6
588.489	1	2
588.659	1	0
588.829	1	8
588.998	1	6
589.168	1	9
589.338	1	-1
589.508	1	13
589.677	1	-6
589.847	1	-3
590.017	1	14
590.187	1	-4
590.357	1	16
590.526	1	17
590.696	1	5
590.866	1	6
591.036	1	-2
591.205	1	12
591.375	1	2
591.545	1	-1
591.715	1	5
591.885	1	-6
592.054	1	2
592.224	1	8
592.394	1	-7
592.564	1	-1
592.733	1	3
592.903	1	5
593.073	1	0
593.243	1	7
593.412	1	5
593.582	1	7
593.752	1	-3
593.922	1	-5
594.091	1	0
594.261	1	-1
594.431	1	6
594.601	1	2
594.771	1	3
594.940	1	-2
595.110	1	-3
595.280	1	4
595.450	1	-6
595.619	1	-2
595.789	1	3
595.959	1	4
596.129	1	1
596.298	1	12
596.468	1	11
596.638	1	2
596.808	1	9
596.977	1	-4
597.147	1	1
597.317	1	-3
597.487	1	7
597.656	1	3
597.826	1	3
597.996	1	4
598.166	1	1
598.335	1	-4
598.505	1	-2
598.675	1	-3
598.844	1	6
599.014	1	7
599.184	1	0
599.354	1	-15
599.523	1	5
599.693	1	-4
599.863	1	8
600.033	1	0
600.202	1	6
600.372	1	0
600.542	1	11
600.712	1	-2
600.881	1	-1
601.051	1	12
601.221	1	8
601.390	1	-3
601.560	1	4
601.730	1	12
601.900	1	4
602.069	1	11
602.239	1	-5
602.409	1	-5
602.578	1	-4
602.748	1	1
602.918	1	-2
603.088	1	3
603.257	1	11
603.427	1	-10
603.597	1	5
603.767	1	6
603.936	1	6
604.106	1	2
604.276	1	-1
604.445	1	0
604.615	1	-7
604.785	1	3
604.954	1	3
605.124	1	5
605.294	1	14
605.464	1	-3
605.633	1	1
605.803	1	5
605.973	1	-7
606.142	1	-1
606.312	1	11
606.482	1	8
606.652	1	12
606.821	1	-6
606.991	1	3
607.161	1	6
607.330	1	8
607.500	1	5
607.670	1	-12
607.839	1	8
608.009	1	16
608.179	1	10
608.348	1	12
608.518	1	4
608.688	1	9
608.858	1	-4
609.027	1	-2
609.197	1	6
609.367	1	12
609.536	1	7
609.706	1	3
609.876	1	0
610.045	1	-2
610.215	1	2
610.385	1	6
610.554	1	-2
610.724	1	14
610.894	1	-9
611.063	1	-5
611.233	1	0
611.403	1	-2
611.572	1	2
611.742	1	6
611.912	1	6
612.081	1	-1
612.251	1	13
612.421	1	-2
612.590	1	-1
612.760	1	4
612.930	1	1
613.099	1	7
613.269	1	10
613.439	1	-2
613.608	1	0
613.778	1	8
613.948	1	9
614.117	1	7
614.287	1	12
614.457	1	10
614.626	1	3
614.796	1	13
614.966	1	4
615.135	1	-3
615.305	1	12
615.475	1	2
615.644	1	5
615.814	1	6
615.984	1	0
616.153	1	0
616.323	1	0
616.493	1	0
616.662	1	11
616.832	1	5
617.002	1	-4
617.171	1	6
617.341	1	1
617.511	1	-2
617.680	1	3
617.850	1	-5
618.019	1	16
618.189	1	13
618.359	1	0
618.528	1	1
618.698	1	2
618.868	1	-3
619.037	1	-1
619.207	1	-5
619.377	1	-9
619.546	1	4
619.716	1	1
619.885	1	9
620.055	1	-10
620.225	1	6
620.394	1	1
620.564	1	14
620.734	1	-7
620.903	1	2
621.073	1	14
621.242	1	7
621.412	1	6
621.582	1	4
621.751	1	6
621.921	1	5
622.091	1	-1
622.260	1	3
622.430	1	8
622.599	1	1
622.769	1	6
622.939	1	6
623.108	1	-1
623.278	1	-14
623.448	1	6
623.617	1	-3
623.787	1	5
623.956	1	8
624.126	1	2
624.296	1	5
624.465	1	2
624.635	1	10
624.804	1	0
624.974	1	1
625.144	1	8
625.313	1	-3
625.483	1	-4
625.652	1	-8
625.822	1	2
625.992	1	2
626.161	1	11
626.331	1	5
626.501	1	0
626.670	1	2
626.840	1	-3
627.009	1	7
627.179	1	9
627.348	1	10
627.518	1	3
627.688	1	12
627.857	1	12
628.027	1	-4
628.196	1	-2
628.366	1	8
628.536	1	3
628.705	1	4
628.875	1	4
629.044	1	-4
629.214	1	-1
629.384	1	12
629.553	1	11
629.723	1	1
629.892	1	2
630.062	1	5
630.232	1	5
630.401	1	5
630.571	1	-4
630.740	1	6
630.910	1	7
631.079	1	0
631.249	1	2
631.419	1	6
631.588	1	-6
631.758	1	8
631.927	1	2
632.097	1	5
632.266	1	9
632.436	1	5
632.606	1	-11
632.775	1	3
632.945	1	12
633.114	1	11
633.284	1	9
633.453	1	4
633.623	1	-2
633.793	1	15
633.962	1	-1
634.132	1	7
634.301	1	0
634.471	1	12
634.640	1	9
634.810	1	9
634.979	1	8
635.149	1	11
635.319	1	2
635.488	1	1
635.658	1	0
635.827	1	-6
635.997	1	4
636.166	1	6
636.336	1	2
636.505	1	10
636.675	1	-1
636.845	1	6
637.014	1	4
637.184	1	7
637.353	1	7
637.523	1	17
637.692	1	3
637.862	1	14
638.031	1	16
638.201	1	9
638.370	1	-2
638.540	1	7
638.710	1	-1
638.879	1	0
639.049	1	4
639.218	1	2
639.388	1	-4
639.557	1	6
639.727	1	4
639.896	1	-1
640.066	1	-2
640.235	1	7
640.405	1	10
640.574	1	4
640.744	1	-9
640.914	1	-2
641.083	1	0
641.253	1	-2
641.422	1	6
641.592	1	18
641.761	1	-5
641.931	1	-8
642.100	1	18
642.270	1	-1
642.439	1	6
642.609	1	7
642.778	1	8
642.948	1	2
643.117	1	2
643.287	1	6
643.456	1	-1
643.626	1	9
643.795	1	1
643.965	1	9
644.134	1	9
644.304	1	4
644.473	1	5
644.643	1	5
644.812	1	7
644.982	1	11
645.151	1	2
645.321	1	-2
645.490	1	6
645.660	1	-12
645.829	1	-5
645.999	1	8
646.168	1	10
646.338	1	7
646.507	1	2
646.677	1	5
646.846	1	-4
647.016	1	-12
647.185	1	1
647.355	1	-7
647.524	1	5
647.694	1	10
647.863	1	10
648.033	1	3
648.202	1	9
648.372	1	0
648.541	1	4
648.711	1	0
648.880	1	3
649.050	1	-4
649.219	1	3
649.389	1	9
649.558	1	4
649.728	1	6
649.897	1	-1
650.067	1	6
650.236	1	16
650.406	1	4
650.575	1	8
650.745	1	4
650.914	1	-3
651.084	1	0
651.253	1	2
651.423	1	1
651.592	1	5
651.762	1	-2
651.931	1	10
652.101	1	6
652.270	1	8
652.440	1	8
652.609	1	7
652.778	1	1
652.948	1	3
653.117	1	7
653.287	1	0
653.456	1	12
653.626	1	10
653.795	1	8
653.965	1	9
654.134	1	9
654.304	1	-13
654.473	1	8
654.643	1	1
654.812	1	11
654.982	1	9
655.151	1	-2
655.320	1	5
655.490	1	1
655.659	1	6
655.829	1	-1
655.998	1	-5
656.168	1	-3
656.337	1	13
656.507	1	5
656.676	1	12
656.846	1	6
657.015	1	8
657.184	1	10
657.354	1	8
657.523	1	1
657.693	1	6
657.862	1	5
658.032	1	5
658.201	1	7
658.371	1	11
658.540	1	-2
658.709	1	1
658.879	1	7
659.048	1	-6
659.218	1	7
659.387	1	7
659.557	1	14
659.726	1	8
659.895	1	3
660.065	1	-1
660.234	1	-1
660.404	1	9
660.573	1	-5
660.743	1	12
660.912	1	11
661.081	1	24
661.251	1	-4
661.420	1	14
661.590	1	6
661.759	1	13
661.929	1	8
662.098	1	18
662.267	1	0
662.437	1	4
662.606	1	-4
662.776	1	9
662.945	1	8
663.115	1	0
663.284	1	9
663.453	1	5
663.623	1	1
663.792	1	6
663.962	1	3
664.131	1	14
664.300	1	12
664.470	1	3
664.639	1	9
664.809	1	9
664.978	1	10
665.148	1	8
665.317	1	3
665.486	1	10
665.656	1	0
665.825	1	12
665.995	1	-1
666.164	1	4
666.333	1	5
666.503	1	-2
666.672	1	-3
666.842	1	-1
667.011	1	4
667.180	1	12
667.350	1	8
667.519	1	13
667.689	1	2
667.858	1	0
668.027	1	13
668.197	1	5
668.366	1	2
668.536	1	11
668.705	1	12
668.874	1	10
669.044	1	-2
669.213	1	10
669.382	1	-8
669.552	1	3
669.721	1	10
669.891	1	5
670.060	1	5
670.229	1	19
670.399	1	-3
670.568	1	15
670.738	1	14
670.907	1	-3
671.076	1	-8
671.246	1	4
671.415	1	5
671.584	1	3
671.754	1	3
671.923	1	6
672.093	1	8
672.262	1	-7
672.431	1	9
672.601	1	3
672.770	1	-3
672.939	1	13
673.109	1	2
673.278	1	6
673.448	1	13
673.617	1	4
673.786	1	10
