325.333	1	13
325.504	1	-3
325.675	1	1
325.846	1	5
326.017	1	-1
326.188	1	0
326.359	1	3
326.531	1	-6
326.702	1	-3
326.873	1	7
327.044	1	11
327.215	1	1
327.386	1	8
327.557	1	5
327.728	1	4
327.899	1	10
328.070	1	14
328.241	1	-6
328.412	1	-8
328.583	1	7
328.754	1	2
328.926	1	13
329.097	1	-2
329.268	1	12
329.439	1	-2
329.610	1	10
329.781	1	-3
329.952	1	12
330.123	1	10
330.294	1	-4
330.465	1	5
330.636	1	7
330.807	1	4
330.978	1	-2
331.149	1	5
331.320	1	0
331.492	1	7
331.663	1	4
331.834	1	15
332.005	1	4
332.176	1	13
332.347	1	4
332.518	1	2
332.689	1	10
332.860	1	2
333.031	1	-1
333.202	1	1
333.373	1	7
333.544	1	-3
333.715	1	7
333.886	1	-8
334.057	1	9
334.228	1	8
334.399	1	3
334.570	1	6
334.741	1	1
334.912	1	12
335.084	1	16
335.255	1	7
335.426	1	-3
335.597	1	5
335.768	1	-2
335.939	1	4
336.110	1	6
336.281	1	0
336.452	1	4
336.623	1	4
336.794	1	6
336.965	1	2
337.136	1	17
337.307	1	-1
337.478	1	-2
337.649	1	6
337.820	1	1
337.991	1	-3
338.162	1	8
338.333	1	6
338.504	1	12
338.675	1	6
338.846	1	2
339.017	1	8
339.188	1	2
339.359	1	-2
339.530	1	7
339.701	1	8
339.872	1	7
340.043	1	1
340.214	1	5
340.385	1	11
340.556	1	1
340.727	1	13
340.898	1	19
341.069	1	6
341.240	1	6
341.411	1	10
341.582	1	10
341.753	1	3
341.924	1	3
342.095	1	11
342.266	1	13
342.437	1	16
342.608	1	3
342.779	1	11
342.950	1	6
343.121	1	18
343.292	1	-3
343.463	1	8
343.634	1	8
343.805	1	7
343.976	1	11
344.147	1	0
344.318	1	5
344.489	1	8
344.660	1	15
344.831	1	-1
345.002	1	2
345.173	1	12
345.344	1	6
345.515	1	12
345.686	1	13
345.857	1	3
346.028	1	12
346.199	1	3
346.370	1	7
346.541	1	9
346.712	1	-9
346.883	1	13
347.054	1	10
347.225	1	10
347.396	1	12
347.567	1	1
347.738	1	-5
347.909	1	21
348.080	1	2
348.251	1	17
348.422	1	11
348.593	1	15
348.764	1	0
348.935	1	-4
349.106	1	2
349.277	1	6
349.448	1	8
349.619	1	16
349.790	1	6
349.961	1	13
350.132	1	21
350.303	1	10
350.474	1	25
350.645	1	10
350.816	1	13
350.987	1	14
351.157	1	-2
351.328	1	12
351.499	1	17
351.670	1	6
351.841	1	19
352.012	1	24
352.183	1	13
352.354	1	16
352.525	1	16
352.696	1	14
352.867	1	5
353.038	1	12
353.209	1	17
353.380	1	6
353.551	1	7
353.722	1	10
353.893	1	11
354.064	1	22
354.235	1	1
354.406	1	13
354.576	1	5
354.747	1	4
354.918	1	11
355.089	1	11
355.260	1	14
355.431	1	15
355.602	1	1
355.773	1	20
355.944	1	17
356.115	1	12
356.286	1	19
356.457	1	8
356.628	1	8
356.799	1	8
356.970	1	14
357.141	1	12
357.311	1	12
357.482	1	5
357.653	1	25
357.824	1	17
357.995	1	7
358.166	1	7
358.337	1	8
358.508	1	4
358.679	1	27
358.850	1	13
359.021	1	12
359.192	1	17
359.363	1	6
359.533	1	8
359.704	1	14
359.875	1	6
360.046	1	4
360.217	1	-3
360.388	1	9
360.559	1	9
360.730	1	16
360.901	1	14
361.072	1	21
361.243	1	11
361.414	1	13
361.584	1	2
361.755	1	22
361.926	1	9
362.097	1	11
362.268	1	18
362.439	1	0
362.610	1	23
362.781	1	7
362.952	1	10
363.123	1	16
363.293	1	10
363.464	1	18
363.635	1	19
363.806	1	3
363.977	1	8
364.148	1	17
364.319	1	10
364.490	1	18
364.661	1	12
364.832	1	23
365.002	1	22
365.173	1	12
365.344	1	21
365.515	1	8
365.686	1	8
365.857	1	18
366.028	1	20
366.199	1	13
366.370	1	19
366.540	1	4
366.711	1	4
366.882	1	10
367.053	1	7
367.224	1	24
367.395	1	14
367.566	1	23
367.737	1	25
367.908	1	13
368.078	1	15
368.249	1	26
368.420	1	8
368.591	1	7
368.762	1	14
368.933	1	15
369.104	1	-3
369.274	1	13
369.445	1	22
369.616	1	18
369.787	1	22
369.958	1	10
370.129	1	14
370.300	1	27
370.471	1	13
370.641	1	12
370.812	1	20
370.983	1	9
371.154	1	10
371.325	1	21
371.496	1	19
371.667	1	15
371.837	1	12
372.008	1	21
372.179	1	1
372.350	1	25
372.521	1	12
372.692	1	10
372.863	1	25
373.033	1	-8
373.204	1	9
373.375	1	14
373.546	1	24
373.717	1	13
373.888	1	26
374.059	1	17
374.229	1	25
374.400	1	7
374.571	1	18
374.742	1	24
374.913	1	22
375.084	1	14
375.254	1	26
375.425	1	20
375.596	1	21
375.767	1	8
375.938	1	24
376.109	1	25
376.279	1	14
376.450	1	17
376.621	1	24
376.792	1	13
376.963	1	26
377.134	1	18
377.304	1	17
377.475	1	22
377.646	1	17
377.817	1	12
377.988	1	12
378.159	1	24
378.329	1	22
378.500	1	15
378.671	1	19
378.842	1	15
379.013	1	3
379.184	1	14
379.354	1	28
379.525	1	10
379.696	1	30
379.867	1	17
380.038	1	19
380.209	1	17
380.379	1	13
380.550	1	16
380.721	1	26
380.892	1	18
381.063	1	24
381.233	1	25
381.404	1	15
381.575	1	19
381.746	1	22
381.917	1	17
382.087	1	20
382.258	1	11
382.429	1	18
382.600	1	28
382.771	1	18
382.941	1	19
383.112	1	16
383.283	1	11
383.454	1	14
383.625	1	13
383.795	1	14
383.966	1	20
384.137	1	24
384.308	1	19
384.479	1	18
384.649	1	21
384.820	1	23
384.991	1	20
385.162	1	25
385.333	1	7
385.503	1	16
385.674	1	8
385.845	1	32
386.016	1	24
386.187	1	14
386.357	1	32
386.528	1	22
386.699	1	23
386.870	1	26
387.041	1	23
387.211	1	23
387.382	1	28
387.553	1	29
387.724	1	12
387.894	1	23
388.065	1	19
388.236	1	28
388.407	1	15
388.578	1	19
388.748	1	18
388.919	1	29
389.090	1	9
389.261	1	22
389.431	1	31
389.602	1	15
389.773	1	19
389.944	1	17
390.114	1	23
390.285	1	22
390.456	1	16
390.627	1	24
390.798	1	20
390.968	1	21
391.139	1	28
391.310	1	21
391.481	1	26
391.651	1	21
391.822	1	13
391.993	1	22
392.164	1	13
392.334	1	12
392.505	1	16
392.676	1	25
392.847	1	26
393.017	1	26
393.188	1	32
393.359	1	10
393.530	1	21
393.700	1	20
393.871	1	22
394.042	1	19
394.213	1	15
394.383	1	20
394.554	1	19
394.725	1	31
394.896	1	12
395.066	1	31
395.237	1	11
395.408	1	17
395.579	1	15
395.749	1	22
395.920	1	17
396.091	1	23
396.262	1	28
396.432	1	22
396.603	1	29
396.774	1	19
396.945	1	20
397.115	1	24
397.286	1	13
397.457	1	20
397.627	1	19
397.798	1	26
397.969	1	16
398.140	1	22
398.310	1	22
398.481	1	23
398.652	1	16
398.823	1	23
398.993	1	13
399.164	1	25
399.335	1	31
399.505	1	24
399.676	1	19
399.847	1	20
400.018	1	13
400.188	1	22
400.359	1	25
400.530	1	20
400.700	1	20
400.871	1	12
401.042	1	20
401.213	1	24
401.383	1	23
401.554	1	26
401.725	1	34
401.895	1	12
402.066	1	20
402.237	1	16
402.408	1	23
402.578	1	23
402.749	1	24
402.920	1	22
403.090	1	21
403.261	1	18
403.432	1	23
403.603	1	22
403.773	1	25
403.944	1	28
404.115	1	31
404.285	1	24
404.456	1	22
404.627	1	10
404.797	1	14
404.968	1	14
405.139	1	12
405.310	1	32
405.480	1	29
405.651	1	23
405.822	1	28
405.992	1	10
406.163	1	18
406.334	1	16
406.504	1	20
406.675	1	34
406.846	1	20
407.016	1	29
407.187	1	34
407.358	1	17
407.528	1	27
407.699	1	9
407.870	1	13
408.041	1	19
408.211	1	44
408.382	1	5
408.553	1	9
408.723	1	28
408.894	1	15
409.065	1	24
409.235	1	22
409.406	1	23
409.577	1	19
409.747	1	23
409.918	1	21
410.089	1	25
410.259	1	17
410.430	1	15
410.601	1	28
410.771	1	18
410.942	1	42
411.113	1	26
411.283	1	19
411.454	1	31
411.625	1	23
411.795	1	29
411.966	1	33
412.137	1	15
412.307	1	8
412.478	1	26
412.649	1	25
412.819	1	23
412.990	1	27
413.161	1	26
413.331	1	18
413.502	1	29
413.672	1	25
413.843	1	22
414.014	1	19
414.184	1	20
414.355	1	18
414.526	1	29
414.696	1	33
414.867	1	26
415.038	1	11
415.208	1	18
415.379	1	23
415.550	1	30
415.720	1	20
415.891	1	26
416.062	1	20
416.232	1	24
416.403	1	24
416.573	1	28
416.744	1	10
416.915	1	32
417.085	1	21
417.256	1	13
417.427	1	20
417.597	1	25
417.768	1	23
417.939	1	20
418.109	1	18
418.280	1	37
418.450	1	28
418.621	1	18
418.792	1	29
418.962	1	34
419.133	1	31
419.304	1	3
419.474	1	30
419.645	1	22
419.815	1	16
419.986	1	31
420.157	1	31
420.327	1	28
420.498	1	25
420.669	1	17
420.839	1	25
421.010	1	29
421.180	1	11
421.351	1	28
421.522	1	24
421.692	1	23
421.863	1	23
422.033	1	33
422.204	1	35
422.375	1	21
422.545	1	32
422.716	1	14
422.886	1	17
423.057	1	24
423.228	1	28
423.398	1	16
423.569	1	32
423.740	1	15
423.910	1	8
424.081	1	21
424.251	1	21
424.422	1	27
424.593	1	15
424.763	1	17
424.934	1	32
425.104	1	24
425.275	1	25
425.445	1	24
425.616	1	23
425.787	1	9
425.957	1	20
426.128	1	23
426.298	1	26
426.469	1	25
426.640	1	27
426.810	1	31
426.981	1	23
427.151	1	22
427.322	1	24
427.493	1	27
427.663	1	20
427.834	1	15
428.004	1	24
428.175	1	26
428.345	1	27
428.516	1	20
428.687	1	18
428.857	1	8
429.028	1	22
429.198	1	24
429.369	1	29
429.540	1	15
429.710	1	16
429.881	1	31
430.051	1	22
430.222	1	13
430.392	1	22
430.563	1	30
430.734	1	33
430.904	1	25
431.075	1	27
431.245	1	9
431.416	1	21
431.586	1	21
431.757	1	27
431.927	1	19
432.098	1	17
432.269	1	18
432.439	1	24
432.610	1	17
432.780	1	25
432.951	1	18
433.121	1	22
433.292	1	28
433.462	1	20
433.633	1	28
433.804	1	17
433.974	1	22
434.145	1	37
434.315	1	13
434.486	1	19
434.656	1	27
434.827	1	17
434.997	1	16
435.168	1	23
435.339	1	19
435.509	1	18
435.680	1	26
435.850	1	13
436.021	1	26
436.191	1	16
436.362	1	20
436.532	1	23
436.703	1	17
436.873	1	26
437.044	1	10
437.214	1	18
437.385	1	18
437.556	1	29
437.726	1	34
437.897	1	27
438.067	1	23
438.238	1	15
438.408	1	17
438.579	1	18
438.749	1	17
438.920	1	21
439.090	1	22
439.261	1	18
439.431	1	13
439.602	1	13
439.772	1	21
439.943	1	33
440.113	1	34
440.284	1	18
440.455	1	22
440.625	1	25
440.796	1	16
440.966	1	14
441.137	1	17
441.307	1	28
441.478	1	25
441.648	1	21
441.819	1	25
441.989	1	17
442.160	1	27
442.330	1	14
442.501	1	23
442.671	1	18
442.842	1	1
443.012	1	15
443.183	1	27
443.353	1	10
443.524	1	19
443.694	1	28
443.865	1	20
444.035	1	18
444.206	1	17
444.376	1	12
444.547	1	29
444.717	1	16
444.888	1	17
445.058	1	27
445.229	1	26
445.399	1	13
445.570	1	22
445.740	1	14
445.911	1	20
446.081	1	17
446.252	1	21
446.422	1	17
446.593	1	15
446.763	1	19
446.934	1	14
447.104	1	15
447.275	1	17
447.445	1	20
447.616	1	30
447.786	1	12
447.957	1	21
448.127	1	19
448.298	1	13
448.468	1	17
448.639	1	16
448.809	1	23
448.979	1	20
449.150	1	15
449.320	1	15
449.491	1	24
449.661	1	14
449.832	1	11
450.002	1	25
450.173	1	16
450.343	1	21
450.514	1	15
450.684	1	18
450.855	1	14
451.025	1	17
451.196	1	12
451.366	1	15
451.537	1	25
451.707	1	11
451.878	1	12
452.048	1	20
452.218	1	22
452.389	1	20
452.559	1	8
452.730	1	29
452.900	1	22
453.071	1	2
453.241	1	18
453.412	1	6
453.582	1	22
453.753	1	14
453.923	1	19
454.093	1	26
454.264	1	29
454.434	1	10
454.605	1	7
454.775	1	17
454.946	1	23
455.116	1	15
455.287	1	7
455.457	1	11
455.628	1	15
455.798	1	16
455.968	1	19
456.139	1	19
456.309	1	12
456.480	1	4
456.650	1	17
456.821	1	6
456.991	1	9
457.161	1	14
457.332	1	18
457.502	1	3
457.673	1	24
457.843	1	22
458.014	1	9
458.184	1	17
458.355	1	10
458.525	1	24
458.695	1	23
458.866	1	12
459.036	1	18
459.207	1	11
459.377	1	9
459.548	1	23
459.718	1	6
459.888	1	11
460.059	1	31
460.229	1	21
460.400	1	23
460.570	1	15
460.740	1	18
460.911	1	15
461.081	1	18
461.252	1	13
461.422	1	8
461.593	1	11
461.763	1	14
461.933	1	23
462.104	1	1
462.274	1	11
462.445	1	24
462.615	1	15
462.785	1	12
462.956	1	21
463.126	1	17
463.297	1	12
463.467	1	18
463.638	1	18
463.808	1	14
463.978	1	9
464.149	1	9
464.319	1	16
464.490	1	30
464.660	1	5
464.830	1	14
465.001	1	14
465.171	1	15
465.342	1	19
465.512	1	5
465.682	1	8
465.853	1	17
466.023	1	15
466.194	1	16
466.364	1	28
466.534	1	18
466.705	1	12
466.875	1	6
467.045	1	9
467.216	1	16
467.386	1	9
467.557	1	3
467.727	1	8
467.897	1	9
468.068	1	15
468.238	1	17
468.409	1	5
468.579	1	23
468.749	1	13
468.920	1	7
469.090	1	11
469.260	1	12
469.431	1	16
469.601	1	14
469.772	1	21
469.942	1	8
470.112	1	26
470.283	1	7
470.453	1	16
470.623	1	9
470.794	1	16
470.964	1	16
471.135	1	16
471.305	1	4
471.475	1	19
471.646	1	4
471.816	1	11
471.986	1	12
472.157	1	17
472.327	1	6
472.497	1	9
472.668	1	7
472.838	1	10
473.009	1	21
473.179	1	0
473.349	1	6
473.520	1	16
473.690	1	8
473.860	1	6
474.031	1	9
474.201	1	14
474.371	1	20
474.542	1	18
474.712	1	18
474.882	1	14
475.053	1	23
475.223	1	8
475.394	1	8
475.564	1	13
475.734	1	9
475.905	1	22
476.075	1	7
476.245	1	23
476.416	1	17
476.586	1	15
476.756	1	14
476.927	1	13
477.097	1	23
477.267	1	6
477.438	1	18
477.608	1	6
477.778	1	10
477.949	1	11
478.119	1	16
478.289	1	11
478.460	1	24
478.630	1	10
478.800	1	12
478.971	1	18
479.141	1	-4
479.311	1	0
479.482	1	13
479.652	1	7
479.822	1	6
479.993	1	10
480.163	1	15
480.333	1	18
480.504	1	22
480.674	1	3
480.844	1	9
481.015	1	15
481.185	1	8
481.355	1	19
481.525	1	6
481.696	1	13
481.866	1	9
482.036	1	12
482.207	1	15
482.377	1	15
482.547	1	22
482.718	1	15
482.888	1	11
483.058	1	16
483.229	1	4
483.399	1	7
483.569	1	7
483.740	1	11
483.910	1	9
484.080	1	6
484.250	1	14
484.421	1	11
484.591	1	12
484.761	1	12
484.932	1	9
485.102	1	9
485.272	1	14
485.443	1	14
485.613	1	2
485.783	1	7
485.953	1	1
486.124	1	19
486.294	1	7
486.464	1	12
486.635	1	18
486.805	1	14
486.975	1	1
487.146	1	5
487.316	1	8
487.486	1	9
487.656	1	11
487.827	1	6
487.997	1	2
488.167	1	16
488.338	1	15
488.508	1	5
488.678	1	14
488.848	1	12
489.019	1	6
489.189	1	6
489.359	1	2
489.529	1	17
489.700	1	10
489.870	1	21
490.040	1	11
490.211	1	-8
490.381	1	17
490.551	1	12
490.721	1	23
490.892	1	4
491.062	1	8
491.232	1	15
491.402	1	9
491.573	1	2
491.743	1	3
491.913	1	-3
492.084	1	12
492.254	1	9
492.424	1	20
492.594	1	15
492.765	1	4
492.935	1	7
493.105	1	4
493.275	1	8
493.446	1	10
493.616	1	16
493.786	1	11
493.956	1	5
494.127	1	11
494.297	1	9
494.467	1	4
494.637	1	13
494.808	1	16
494.978	1	3
495.148	1	15
495.318	1	-1
495.489	1	12
495.659	1	14
495.829	1	6
495.999	1	5
496.170	1	9
496.340	1	14
496.510	1	6
496.680	1	2
496.851	1	11
497.021	1	10
497.191	1	4
497.361	1	2
497.532	1	1
497.702	1	10
497.872	1	6
498.042	1	24
498.213	1	-2
498.383	1	6
498.553	1	7
498.723	1	13
498.894	1	1
499.064	1	4
499.234	1	12
499.404	1	8
499.574	1	16
499.745	1	18
499.915	1	17
500.085	1	3
500.255	1	13
500.426	1	9
500.596	1	8
500.766	1	9
500.936	1	2
501.106	1	2
501.277	1	5
501.447	1	12
501.617	1	8
501.787	1	9
501.958	1	-4
502.128	1	12
502.298	1	9
502.468	1	16
502.638	1	11
502.809	1	4
502.979	1	3
503.149	1	1
503.319	1	-2
503.489	1	1
503.660	1	10
503.830	1	9
504.000	1	6
504.170	1	0
504.340	1	3
504.511	1	13
504.681	1	7
504.851	1	8
505.021	1	7
505.192	1	-3
505.362	1	12
505.532	1	2
505.702	1	1
505.872	1	7
506.043	1	9
506.213	1	6
506.383	1	8
506.553	1	8
506.723	1	11
506.893	1	9
507.064	1	5
507.234	1	6
507.404	1	-5
507.574	1	6
507.744	1	2
507.915	1	12
508.085	1	14
508.255	1	10
508.425	1	9
508.595	1	9
508.766	1	8
508.936	1	-15
509.106	1	11
509.276	1	8
509.446	1	6
509.616	1	6
509.787	1	-1
509.957	1	-2
510.127	1	5
510.297	1	8
510.467	1	3
510.638	1	6
510.808	1	3
510.978	1	3
511.148	1	5
511.318	1	4
511.488	1	-5
511.659	1	9
511.829	1	-10
511.999	1	3
512.169	1	6
512.339	1	0
512.509	1	2
512.680	1	1
512.850	1	8
513.020	1	5
513.190	1	5
513.360	1	4
513.530	1	6
513.700	1	20
513.871	1	8
514.041	1	10
514.211	1	14
514.381	1	11
514.551	1	13
514.721	1	3
514.892	1	6
515.062	1	6
515.232	1	7
515.402	1	-3
515.572	1	1
515.742	1	9
515.912	1	13
516.083	1	1
516.253	1	6
516.423	1	10
516.593	1	6
516.763	1	14
516.933	1	3
517.104	1	7
517.274	1	-4
517.444	1	10
517.614	1	-15
517.784	1	5
517.954	1	5
518.124	1	10
518.294	1	6
518.465	1	0
518.635	1	-1
518.805	1	-2
518.975	1	11
519.145	1	-7
519.315	1	9
519.485	1	-6
519.656	1	8
519.826	1	6
519.996	1	-2
520.166	1	8
520.336	1	16
520.506	1	3
520.676	1	-6
520.846	1	14
521.017	1	0
521.187	1	6
521.357	1	5
521.527	1	-3
521.697	1	-3
521.867	1	6
522.037	1	6
522.207	1	12
522.377	1	6
522.548	1	10
522.718	1	3
522.888	1	19
523.058	1	-1
523.228	1	10
523.398	1	9
523.568	1	7
523.738	1	12
523.909	1	13
524.079	1	7
524.249	1	5
524.419	1	10
524.589	1	4
524.759	1	2
524.929	1	-3
525.099	1	5
525.269	1	7
525.439	1	8
525.610	1	24
525.780	1	8
525.950	1	7
526.120	1	10
526.290	1	6
526.460	1	-7
526.630	1	12
526.800	1	-2
526.970	1	4
527.140	1	11
527.311	1	8
527.481	1	-5
527.651	1	8
527.821	1	-10
527.991	1	11
528.161	1	9
528.331	1	-11
528.501	1	9
528.671	1	-4
528.841	1	4
529.011	1	13
529.181	1	12
529.352	1	5
529.522	1	-7
529.692	1	-1
529.862	1	-2
530.032	1	6
530.202	1	-2
530.372	1	12
530.542	1	2
530.712	1	5
530.882	1	11
531.052	1	7
531.222	1	-2
531.392	1	-6
531.563	1	14
531.733	1	10
531.903	1	-4
532.073	1	10
532.243	1	4
532.413	1	-2
532.583	1	0
532.753	1	7
532.923	1	-3
533.093	1	4
533.263	1	3
533.433	1	9
533.603	1	10
533.773	1	-3
533.943	1	-8
534.113	1	2
534.284	1	0
534.454	1	6
534.624	1	18
534.794	1	0
534.964	1	5
535.134	1	-5
535.304	1	9
535.474	1	18
535.644	1	0
535.814	1	-3
535.984	1	-6
536.154	1	7
536.324	1	-6
536.494	1	11
536.664	1	11
536.834	1	-3
537.004	1	3
537.174	1	8
537.344	1	4
537.514	1	-7
537.685	1	2
537.855	1	7
538.025	1	8
538.195	1	7
538.365	1	18
538.535	1	8
538.705	1	8
538.875	1	7
539.045	1	1
539.215	1	7
539.385	1	6
539.555	1	17
539.725	1	5
539.895	1	-7
540.065	1	11
540.235	1	8
540.405	1	-2
540.575	1	7
540.745	1	11
540.915	1	5
541.085	1	11
541.255	1	-1
541.425	1	11
541.595	1	2
541.765	1	3
541.935	1	-3
542.105	1	-1
542.275	1	1
542.445	1	-6
542.615	1	10
542.785	1	14
542.955	1	1
543.125	1	-9
543.295	1	1
543.465	1	6
543.635	1	1
543.805	1	17
543.975	1	-4
544.145	1	15
544.315	1	3
544.485	1	-1
544.655	1	6
544.825	1	-6
544.995	1	1
545.165	1	-9
545.335	1	10
545.505	1	-1
545.675	1	5
545.845	1	8
546.015	1	6
546.185	1	17
546.355	1	5
546.525	1	10
546.695	1	5
546.865	1	2
547.035	1	8
547.205	1	-12
547.375	1	12
547.545	1	9
547.715	1	-2
547.885	1	-2
548.055	1	4
548.225	1	10
548.395	1	-3
548.565	1	4
548.735	1	3
548.905	1	5
549.075	1	2
549.245	1	6
549.415	1	-5
549.585	1	2
549.755	1	7
549.925	1	-9
550.095	1	4
550.265	1	1
550.435	1	2
550.605	1	1
550.775	1	4
550.945	1	5
551.115	1	-1
551.285	1	0
551.455	1	-2
551.625	1	17
551.795	1	7
551.965	1	4
552.135	1	1
552.305	1	0
552.475	1	-4
552.645	1	-2
552.815	1	3
552.985	1	10
553.155	1	2
553.325	1	4
553.495	1	6
553.665	1	-3
553.835	1	7
554.004	1	1
554.174	1	2
554.344	1	4
554.514	1	5
554.684	1	4
554.854	1	14
555.024	1	-6
555.194	1	-4
555.364	1	4
555.534	1	2
555.704	1	-4
555.874	1	9
556.044	1	10
556.214	1	0
556.384	1	3
556.554	1	9
556.724	1	7
556.894	1	-1
557.064	1	9
557.234	1	1
557.404	1	-1
557.573	1	2
557.743	1	-3
557.913	1	-5
558.083	1	-1
558.253	1	5
558.423	1	5
558.593	1	9
558.763	1	0
558.933	1	4
559.103	1	10
559.273	1	8
559.443	1	2
559.613	1	-1
559.783	1	-1
559.953	1	3
560.122	1	7
560.292	1	8
560.462	1	-4
560.632	1	14
560.802	1	4
560.972	1	2
561.142	1	2
561.312	1	1
561.482	1	8
561.652	1	7
561.822	1	-2
561.992	1	-1
562.162	1	1
562.331	1	5
562.501	1	-6
562.671	1	10
562.841	1	-11
563.011	1	7
563.181	1	7
563.351	1	-3
563.521	1	4
563.691	1	3
563.861	1	4
564.031	1	8
564.201	1	11
564.370	1	-3
564.540	1	-3
564.710	1	-8
564.880	1	5
565.050	1	-2
565.220	1	0
565.390	1	5
565.560	1	11
565.730	1	-1
565.900	1	-1
566.069	1	8
566.239	1	5
566.409	1	9
566.579	1	11
566.749	1	2
566.919	1	11
567.089	1	0
567.259	1	11
567.429	1	5
567.599	1	-2
567.768	1	3
567.938	1	4
568.108	1	5
568.278	1	-1
568.448	1	-5
568.618	1	4
568.788	1	8
568.958	1	4
569.128	1	13
569.297	1	2
569.467	1	2
569.637	1	11
569.807	1	-2
569.977	1	5
570.147	1	11
570.317	1	-7
570.487	1	6
570.656	1	2
570.826	1	4
570.996	1	-3
571.166	1	11
571.336	1	-3
571.506	1	5
571.676	1	3
571.846	1	14
572.015	1	7
572.185	1	-1
572.355	1	2
572.525	1	9
572.695	1	0
572.865	1	-1
573.035	1	1
573.205	1	4
573.374	1	-11
573.544	1	9
573.714	1	9
573.884	1	15
574.054	1	0
574.224	1	1
574.394	1	1
574.563	1	-5
574.733	1	-2
574.903	1	5
575.073	1	6
575.243	1	2
575.413	1	11
575.583	1	2
575.752	1	14
575.922	1	-5
576.092	1	13
576.262	1	7
576.432	1	6
576.602	1	0
576.772	1	15
576.941	1	0
577.111	1	-2
577.281	1	-6
577.451	1	7
577.621	1	13
577.791	1	1
577.960	1	-1
578.130	1	3
578.300	1	-2
578.470	1	5
578.640	1	4
578.810	1	5
578.979	1	4
579.149	1	2
579.319	1	-7
579.489	1	7
579.659	1	-2
579.829	1	4
579.998	1	2
580.168	1	16
580.338	1	4
580.508	1	-1
580.678	1	3
580.848	1	-3
581.017	1	5
581.187	1	-6
581.357	1	-2
581.527	1	6
581.697	1	-3
581.867	1	12
582.036	1	1
582.206	1	-6
582.376	1	14
582.546	1	-1
582.716	1	-4
582.885	1	1
583.055	1	7
583.225	1	-11
583.395	1	6
583.565	1	1
583.735	1	17
583.904	1	3
584.074	1	10
584.244	1	1
584.414	1	-1
584.584	1	17
584.753	1	-12
584.923	1	9
585.093	1	-3
585.263	1	0
585.433	1	9
585.602	1	-10
585.772	1	6
585.942	1	2
586.112	1	5
586.282	1	6
586.451	1	5
586.621	1	0
586.791	1	-9
586.961	1	-2
587.131	1	-2
587.300	1	0
587.470	1	15
587.640	1	2
587.810	1	1
587.980	1	-1
588.149	1	7
588.319	1	6
588.489	1	4
588.659	1	5
588.829	1	6
588.998	1	3
589.168	1	7
589.338	1	3
589.508	1	0
589.677	1	-4
589.847	1	-5
590.017	1	16
590.187	1	0
590.357	1	14
590.526	1	9
590.696	1	6
590.866	1	6
591.036	1	-7
591.205	1	20
591.375	1	-4
591.545	1	6
591.715	1	4
591.885	1	-2
592.054	1	3
592.224	1	6
592.394	1	1
592.564	1	5
592.733	1	10
592.903	1	7
593.073	1	-1
593.243	1	0
593.412	1	15
593.582	1	4
593.752	1	-11
593.922	1	7
594.091	1	6
594.261	1	2
594.431	1	7
594.601	1	2
594.771	1	6
594.940	1	-4
595.110	1	0
595.280	1	12
595.450	1	4
595.619	1	2
595.789	1	-3
595.959	1	14
596.129	1	-1
596.298	1	-7
596.468	1	6
596.638	1	5
596.808	1	-1
596.977	1	11
597.147	1	7
597.317	1	0
597.487	1	13
597.656	1	1
597.826	1	1
597.996	1	0
598.166	1	-2
598.335	1	0
598.505	1	1
598.675	1	-9
598.844	1	3
599.014	1	-1
599.184	1	4
599.354	1	-7
599.523	1	6
599.693	1	-10
599.863	1	5
600.033	1	-6
600.202	1	-2
600.372	1	1
600.542	1	10
600.712	1	-1
600.881	1	2
601.051	1	11
601.221	1	9
601.390	1	-10
601.560	1	7
601.730	1	6
601.900	1	-2
602.069	1	3
602.239	1	-2
602.409	1	-3
602.578	1	3
602.748	1	8
602.918	1	8
603.088	1	14
603.257	1	7
603.427	1	-1
603.597	1	9
603.767	1	6
603.936	1	0
604.106	1	3
604.276	1	6
604.445	1	7
604.615	1	8
604.785	1	-9
604.954	1	8
605.124	1	8
605.294	1	-5
605.464	1	1
605.633	1	4
605.803	1	3
605.973	1	6
606.142	1	3
606.312	1	13
606.482	1	-9
606.652	1	10
606.821	1	-4
606.991	1	7
607.161	1	-5
607.330	1	7
607.500	1	10
607.670	1	2
607.839	1	17
608.009	1	8
608.179	1	-3
608.348	1	8
608.518	1	1
608.688	1	13
608.858	1	-1
609.027	1	-2
609.197	1	10
609.367	1	6
609.536	1	11
609.706	1	2
609.876	1	2
610.045	1	-2
610.215	1	5
610.385	1	5
610.554	1	12
610.724	1	7
610.894	1	1
611.063	1	3
611.233	1	-3
611.403	1	4
611.572	1	-2
611.742	1	5
611.912	1	3
612.081	1	1
612.251	1	12
612.421	1	4
612.590	1	0
612.760	1	-3
612.930	1	-1
613.099	1	-2
613.269	1	11
613.439	1	-1
613.608	1	-6
613.778	1	6
613.948	1	2
614.117	1	8
614.287	1	13
614.457	1	9
614.626	1	0
614.796	1	4
614.966	1	8
615.135	1	3
615.305	1	9
615.475	1	2
615.644	1	6
615.814	1	1
615.984	1	5
616.153	1	4
616.323	1	2
616.493	1	-4
616.662	1	14
616.832	1	1
617.002	1	2
617.171	1	4
617.341	1	5
617.511	1	-2
617.680	1	-3
617.850	1	1
618.019	1	11
618.189	1	16
618.359	1	1
618.528	1	7
618.698	1	-2
618.868	1	0
619.037	1	8
619.207	1	-6
619.377	1	-6
619.546	1	0
619.716	1	3
619.885	1	-6
620.055	1	-5
620.225	1	9
620.394	1	-3
620.564	1	13
620.734	1	3
620.903	1	-2
621.073	1	9
621.242	1	6
621.412	1	9
621.582	1	-1
621.751	1	4
621.921	1	9
622.091	1	-9
622.260	1	1
622.430	1	6
622.599	1	2
622.769	1	8
622.939	1	2
623.108	1	1
623.278	1	-7
623.448	1	-5
623.617	1	5
623.787	1	-2
623.956	1	0
624.126	1	13
624.296	1	6
624.465	1	6
624.635	1	18
624.804	1	-2
624.974	1	-1
625.144	1	5
625.313	1	-3
625.483	1	0
625.652	1	-3
625.822	1	1
625.992	1	3
626.161	1	8
626.331	1	-3
626.501	1	-1
626.670	1	8
626.840	1	2
627.009	1	-2
627.179	1	5
627.348	1	3
627.518	1	9
627.688	1	8
627.857	1	9
628.027	1	-7
628.196	1	5
628.366	1	8
628.536	1	10
628.705	1	1
628.875	1	5
629.044	1	-1
629.214	1	11
629.384	1	-9
629.553	1	16
629.723	1	2
629.892	1	2
630.062	1	6
630.232	1	4
630.401	1	11
630.571	1	12
630.740	1	10
630.910	1	8
631.079	1	1
631.249	1	2
631.419	1	1
631.588	1	-6
631.758	1	13
631.927	1	-2
632.097	1	5
632.266	1	1
632.436	1	9
632.606	1	-7
632.775	1	14
632.945	1	10
633.114	1	7
633.284	1	1
633.453	1	3
633.623	1	6
633.793	1	14
633.962	1	-6
634.132	1	6
634.301	1	-2
634.471	1	11
634.640	1	2
634.810	1	5
634.979	1	7
635.149	1	10
635.319	1	8
635.488	1	8
635.658	1	2
635.827	1	-2
635.997	1	13
636.166	1	1
636.336	1	1
636.505	1	8
636.675	1	7
636.845	1	7
637.014	1	3
637.184	1	8
637.353	1	-1
637.523	1	1
637.692	1	6
637.862	1	13
638.031	1	8
638.201	1	1
638.370	1	7
638.540	1	3
638.710	1	-2
638.879	1	-3
639.049	1	-5
639.218	1	5
639.388	1	5
639.557	1	-4
639.727	1	4
639.896	1	3
640.066	1	2
640.235	1	10
640.405	1	12
640.574	1	-5
640.744	1	6
640.914	1	1
641.083	1	-7
641.253	1	-1
641.422	1	12
641.592	1	14
641.761	1	-2
641.931	1	10
642.100	1	19
642.270	1	4
642.439	1	2
642.609	1	1
642.778	1	6
642.948	1	3
643.117	1	5
643.287	1	11
643.456	1	4
643.626	1	14
643.795	1	-3
643.965	1	9
644.134	1	-1
644.304	1	-4
644.473	1	5
644.643	1	7
644.812	1	2
644.982	1	2
645.151	1	1
645.321	1	-1
645.490	1	18
645.660	1	-1
645.829	1	-9
645.999	1	4
646.168	1	17
646.338	1	-1
646.507	1	11
646.677	1	4
646.846	1	4
647.016	1	-5
647.185	1	4
647.355	1	-9
647.524	1	10
647.694	1	10
647.863	1	1
648.033	1	5
648.202	1	11
648.372	1	-5
648.541	1	-6
648.711	1	-3
648.880	1	-3
649.050	1	-4
649.219	1	7
649.389	1	8
649.558	1	5
649.728	1	13
649.897	1	3
650.067	1	7
650.236	1	0
650.406	1	6
650.575	1	16
650.745	1	5
650.914	1	-5
651.084	1	-1
651.253	1	-1
651.423	1	7
651.592	1	6
651.762	1	3
651.931	1	12
652.101	1	6
652.270	1	8
652.440	1	6
652.609	1	-6
652.778	1	3
652.948	1	7
653.117	1	8
653.287	1	2
653.456	1	8
653.626	1	5
653.795	1	-1
653.965	1	7
654.134	1	12
654.304	1	-1
654.473	1	2
654.643	1	2
654.812	1	9
654.982	1	5
655.151	1	4
655.320	1	9
655.490	1	-2
655.659	1	0
655.829	1	4
655.998	1	3
656.168	1	10
656.337	1	2
656.507	1	-1
656.676	1	16
656.846	1	16
657.015	1	2
657.184	1	13
657.354	1	7
657.523	1	-2
657.693	1	20
657.862	1	21
658.032	1	12
658.201	1	3
658.371	1	14
658.540	1	2
658.709	1	7
658.879	1	7
659.048	1	3
659.218	1	6
659.387	1	12
659.557	1	2
659.726	1	12
659.895	1	-11
660.065	1	-4
660.234	1	-3
660.404	1	-1
660.573	1	6
660.743	1	-3
660.912	1	16
661.081	1	10
661.251	1	5
661.420	1	10
661.590	1	10
661.759	1	-3
661.929	1	10
662.098	1	17
662.267	1	2
662.437	1	11
662.606	1	6
662.776	1	9
662.945	1	7
663.115	1	5
663.284	1	-2
663.453	1	10
663.623	1	1
663.792	1	9
663.962	1	0
664.131	1	7
664.300	1	20
664.470	1	9
664.639	1	14
664.809	1	2
664.978	1	9
665.148	1	5
665.317	1	-2
665.486	1	11
665.656	1	2
665.825	1	11
665.995	1	-6
666.164	1	-1
666.333	1	0
666.503	1	8
666.672	1	-1
666.842	1	2
667.011	1	-3
667.180	1	15
667.350	1	9
667.519	1	7
667.689	1	8
667.858	1	7
668.027	1	15
668.197	1	8
668.366	1	-9
668.536	1	11
668.705	1	4
668.874	1	14
669.044	1	1
669.213	1	8
669.382	1	-9
669.552	1	19
669.721	1	12
669.891	1	17
670.060	1	5
670.229	1	16
670.399	1	-2
670.568	1	12
670.738	1	9
670.907	1	8
671.076	1	2
671.246	1	1
671.415	1	8
671.584	1	2
671.754	1	-1
671.923	1	2
672.093	1	15
672.262	1	1
672.431	1	4
672.601	1	-1
672.770	1	-7
672.939	1	16
673.109	1	-9
673.278	1	10
673.448	1	14
673.617	1	2
673.786	1	9
