325.333	1	12
325.504	1	-2
325.675	1	7
325.846	1	-1
326.017	1	0
326.188	1	-1
326.359	1	8
326.531	1	-1
326.702	1	5
326.873	1	13
327.044	1	6
327.215	1	9
327.386	1	10
327.557	1	3
327.728	1	-5
327.899	1	10
328.070	1	11
328.241	1	10
328.412	1	-5
328.583	1	8
328.754	1	0
328.926	1	12
329.097	1	-6
329.268	1	12
329.439	1	-8
329.610	1	12
329.781	1	-3
329.952	1	10
330.123	1	7
330.294	1	-2
330.465	1	4
330.636	1	8
330.807	1	-2
330.978	1	7
331.149	1	5
331.320	1	-3
331.492	1	8
331.663	1	3
331.834	1	18
332.005	1	4
332.176	1	2
332.347	1	11
332.518	1	-2
332.689	1	11
332.860	1	-1
333.031	1	8
333.202	1	2
333.373	1	4
333.544	1	3
333.715	1	7
333.886	1	-5
334.057	1	7
334.228	1	-4
334.399	1	4
334.570	1	10
334.741	1	8
334.912	1	9
335.084	1	19
335.255	1	6
335.426	1	6
335.597	1	5
335.768	1	-9
335.939	1	3
336.110	1	2
336.281	1	-10
336.452	1	-2
336.623	1	1
336.794	1	7
336.965	1	8
337.136	1	8
337.307	1	1
337.478	1	8
337.649	1	7
337.820	1	5
337.991	1	3
338.162	1	5
338.333	1	-8
338.504	1	4
338.675	1	12
338.846	1	6
339.017	1	12
339.188	1	-4
339.359	1	2
339.530	1	6
339.701	1	2
339.872	1	15
340.043	1	1
340.214	1	4
340.385	1	3
340.556	1	-13
340.727	1	2
340.898	1	10
341.069	1	14
341.240	1	1
341.411	1	2
341.582	1	6
341.753	1	-7
341.924	1	4
342.095	1	6
342.266	1	13
342.437	1	15
342.608	1	6
342.779	1	6
342.950	1	7
343.121	1	8
343.292	1	-2
343.463	1	7
343.634	1	3
343.805	1	15
343.976	1	9
344.147	1	8
344.318	1	9
344.489	1	-1
344.660	1	16
344.831	1	9
345.002	1	3
345.173	1	6
345.344	1	5
345.515	1	14
345.686	1	1
345.857	1	4
346.028	1	3
346.199	1	5
346.370	1	6
346.541	1	7
346.712	1	-4
346.883	1	12
347.054	1	10
347.225	1	5
347.396	1	13
347.567	1	1
347.738	1	-8
347.909	1	16
348.080	1	0
348.251	1	11
348.422	1	11
348.593	1	10
348.764	1	9
348.935	1	12
349.106	1	2
349.277	1	11
349.448	1	9
349.619	1	4
349.790	1	6
349.961	1	19
350.132	1	12
350.303	1	9
350.474	1	23
350.645	1	6
350.816	1	3
350.987	1	15
351.157	1	7
351.328	1	20
351.499	1	10
351.670	1	11
351.841	1	23
352.012	1	15
352.183	1	16
352.354	1	15
352.525	1	8
352.696	1	18
352.867	1	14
353.038	1	10
353.209	1	4
353.380	1	7
353.551	1	3
353.722	1	4
353.893	1	2
354.064	1	17
354.235	1	10
354.406	1	9
354.576	1	8
354.747	1	9
354.918	1	11
355.089	1	5
355.260	1	20
355.431	1	10
355.602	1	6
355.773	1	20
355.944	1	13
356.115	1	10
356.286	1	14
356.457	1	8
356.628	1	11
356.799	1	4
356.970	1	14
357.141	1	3
357.311	1	4
357.482	1	9
357.653	1	11
357.824	1	15
357.995	1	16
358.166	1	-1
358.337	1	7
358.508	1	18
358.679	1	1
358.850	1	11
359.021	1	4
359.192	1	5
359.363	1	6
359.533	1	9
359.704	1	11
359.875	1	8
360.046	1	3
360.217	1	2
360.388	1	14
360.559	1	5
360.730	1	14
360.901	1	4
361.072	1	25
361.243	1	17
361.414	1	6
361.584	1	9
361.755	1	9
361.926	1	11
362.097	1	7
362.268	1	8
362.439	1	13
362.610	1	22
362.781	1	10
362.952	1	0
363.123	1	14
363.293	1	17
363.464	1	11
363.635	1	12
363.806	1	7
363.977	1	6
364.148	1	16
364.319	1	8
364.490	1	5
364.661	1	7
364.832	1	11
365.002	1	23
365.173	1	12
365.344	1	18
365.515	1	10
365.686	1	10
365.857	1	15
366.028	1	11
366.199	1	6
366.370	1	14
366.540	1	7
366.711	1	-9
366.882	1	5
367.053	1	4
367.224	1	24
367.395	1	23
367.566	1	17
367.737	1	12
367.908	1	11
368.078	1	10
368.249	1	15
368.420	1	11
368.591	1	3
368.762	1	18
368.933	1	15
369.104	1	6
369.274	1	16
369.445	1	7
369.616	1	9
369.787	1	8
369.958	1	17
370.129	1	-1
370.300	1	18
370.471	1	9
370.641	1	10
370.812	1	7
370.983	1	9
371.154	1	-1
371.325	1	11
371.496	1	12
371.667	1	18
371.837	1	7
372.008	1	14
372.179	1	14
372.350	1	20
372.521	1	13
372.692	1	7
372.863	1	18
373.033	1	-1
373.204	1	11
373.375	1	17
373.546	1	17
373.717	1	19
373.888	1	24
374.059	1	8
374.229	1	14
374.400	1	9
374.571	1	14
374.742	1	15
374.913	1	15
375.084	1	12
375.254	1	19
375.425	1	12
375.596	1	20
375.767	1	12
375.938	1	13
376.109	1	21
376.279	1	5
376.450	1	18
376.621	1	25
376.792	1	10
376.963	1	10
377.134	1	17
377.304	1	16
377.475	1	9
377.646	1	16
377.817	1	18
377.988	1	10
378.159	1	9
378.329	1	27
378.500	1	8
378.671	1	17
378.842	1	7
379.013	1	0
379.184	1	13
379.354	1	17
379.525	1	7
379.696	1	24
379.867	1	15
380.038	1	17
380.209	1	17
380.379	1	15
380.550	1	4
380.721	1	28
380.892	1	13
381.063	1	13
381.233	1	24
381.404	1	5
381.575	1	22
381.746	1	15
381.917	1	20
382.087	1	27
382.258	1	8
382.429	1	18
382.600	1	25
382.771	1	14
382.941	1	9
383.112	1	10
383.283	1	19
383.454	1	9
383.625	1	2
383.795	1	11
383.966	1	19
384.137	1	27
384.308	1	15
384.479	1	27
384.649	1	18
384.820	1	4
384.991	1	16
385.162	1	11
385.333	1	11
385.503	1	12
385.674	1	6
385.845	1	28
386.016	1	21
386.187	1	22
386.357	1	16
386.528	1	18
386.699	1	12
386.870	1	29
387.041	1	21
387.211	1	9
387.382	1	24
387.553	1	12
387.724	1	5
387.894	1	12
388.065	1	15
388.236	1	25
388.407	1	17
388.578	1	17
388.748	1	16
388.919	1	26
389.090	1	8
389.261	1	14
389.431	1	26
389.602	1	15
389.773	1	19
389.944	1	20
390.114	1	26
390.285	1	19
390.456	1	10
390.627	1	14
390.798	1	19
390.968	1	20
391.139	1	24
391.310	1	14
391.481	1	19
391.651	1	17
391.822	1	8
391.993	1	12
392.164	1	7
392.334	1	23
392.505	1	12
392.676	1	15
392.847	1	25
393.017	1	12
393.188	1	16
393.359	1	10
393.530	1	19
393.700	1	11
393.871	1	18
394.042	1	14
394.213	1	7
394.383	1	8
394.554	1	18
394.725	1	24
394.896	1	11
395.066	1	19
395.237	1	16
395.408	1	13
395.579	1	19
395.749	1	16
395.920	1	20
396.091	1	10
396.262	1	28
396.432	1	16
396.603	1	24
396.774	1	25
396.945	1	18
397.115	1	17
397.286	1	15
397.457	1	20
397.627	1	19
397.798	1	18
397.969	1	16
398.140	1	17
398.310	1	16
398.481	1	21
398.652	1	18
398.823	1	10
398.993	1	9
399.164	1	16
399.335	1	25
399.505	1	14
399.676	1	21
399.847	1	16
400.018	1	7
400.188	1	12
400.359	1	24
400.530	1	18
400.700	1	33
400.871	1	22
401.042	1	23
401.213	1	24
401.383	1	12
401.554	1	27
401.725	1	30
401.895	1	13
402.066	1	21
402.237	1	22
402.408	1	20
402.578	1	16
402.749	1	23
402.920	1	28
403.090	1	15
403.261	1	15
403.432	1	16
403.603	1	21
403.773	1	30
403.944	1	17
404.115	1	22
404.285	1	30
404.456	1	16
404.627	1	8
404.797	1	15
404.968	1	8
405.139	1	11
405.310	1	31
405.480	1	18
405.651	1	14
405.822	1	28
405.992	1	14
406.163	1	20
406.334	1	1
406.504	1	14
406.675	1	19
406.846	1	16
407.016	1	24
407.187	1	24
407.358	1	11
407.528	1	13
407.699	1	12
407.870	1	17
408.041	1	18
408.211	1	26
408.382	1	3
408.553	1	2
408.723	1	18
408.894	1	17
409.065	1	17
409.235	1	16
409.406	1	18
409.577	1	12
409.747	1	24
409.918	1	13
410.089	1	14
410.259	1	21
410.430	1	25
410.601	1	21
410.771	1	20
410.942	1	24
411.113	1	20
411.283	1	13
411.454	1	25
411.625	1	22
411.795	1	23
411.966	1	21
412.137	1	9
412.307	1	10
412.478	1	10
412.649	1	20
412.819	1	16
412.990	1	13
413.161	1	22
413.331	1	6
413.502	1	29
413.672	1	25
413.843	1	17
414.014	1	14
414.184	1	22
414.355	1	21
414.526	1	23
414.696	1	25
414.867	1	22
415.038	1	3
415.208	1	12
415.379	1	25
415.550	1	24
415.720	1	10
415.891	1	20
416.062	1	21
416.232	1	16
416.403	1	12
416.573	1	26
416.744	1	19
416.915	1	25
417.085	1	14
417.256	1	8
417.427	1	17
417.597	1	13
417.768	1	16
417.939	1	20
418.109	1	19
418.280	1	19
418.450	1	28
418.621	1	9
418.792	1	19
418.962	1	29
419.133	1	20
419.304	1	16
419.474	1	10
419.645	1	20
419.815	1	16
419.986	1	24
420.157	1	19
420.327	1	20
420.498	1	36
420.669	1	16
420.839	1	25
421.010	1	26
421.180	1	24
421.351	1	17
421.522	1	9
421.692	1	27
421.863	1	21
422.033	1	24
422.204	1	18
422.375	1	16
422.545	1	24
422.716	1	13
422.886	1	15
423.057	1	20
423.228	1	27
423.398	1	12
423.569	1	20
423.740	1	12
423.910	1	11
424.081	1	13
424.251	1	7
424.422	1	22
424.593	1	11
424.763	1	22
424.934	1	18
425.104	1	14
425.275	1	20
425.445	1	14
425.616	1	8
425.787	1	7
425.957	1	19
426.128	1	14
426.298	1	8
426.469	1	12
426.640	1	24
426.810	1	18
426.981	1	17
427.151	1	8
427.322	1	26
427.493	1	16
427.663	1	16
427.834	1	14
428.004	1	16
428.175	1	20
428.345	1	15
428.516	1	11
428.687	1	27
428.857	1	15
429.028	1	18
429.198	1	18
429.369	1	22
429.540	1	8
429.710	1	21
429.881	1	21
430.051	1	26
430.222	1	7
430.392	1	20
430.563	1	24
430.734	1	32
430.904	1	23
431.075	1	27
431.245	1	19
431.416	1	15
431.586	1	22
431.757	1	19
431.927	1	22
432.098	1	12
432.269	1	18
432.439	1	24
432.610	1	17
432.780	1	23
432.951	1	15
433.121	1	25
433.292	1	28
433.462	1	17
433.633	1	12
433.804	1	16
433.974	1	5
434.145	1	32
434.315	1	22
434.486	1	16
434.656	1	20
434.827	1	8
434.997	1	9
435.168	1	30
435.339	1	12
435.509	1	17
435.680	1	22
435.850	1	7
436.021	1	21
436.191	1	10
436.362	1	10
436.532	1	18
436.703	1	22
436.873	1	22
437.044	1	6
437.214	1	10
437.385	1	5
437.556	1	10
437.726	1	26
437.897	1	20
438.067	1	18
438.238	1	16
438.408	1	24
438.579	1	18
438.749	1	22
438.920	1	13
439.090	1	22
439.261	1	3
439.431	1	8
439.602	1	11
439.772	1	12
439.943	1	25
440.113	1	15
440.284	1	23
440.455	1	16
440.625	1	12
440.796	1	21
440.966	1	17
441.137	1	19
441.307	1	0
441.478	1	21
441.648	1	17
441.819	1	10
441.989	1	15
442.160	1	28
442.330	1	16
442.501	1	13
442.671	1	14
442.842	1	4
443.012	1	3
443.183	1	20
443.353	1	10
443.524	1	17
443.694	1	18
443.865	1	8
444.035	1	25
444.206	1	18
444.376	1	6
444.547	1	25
444.717	1	13
444.888	1	10
445.058	1	24
445.229	1	18
445.399	1	10
445.570	1	18
445.740	1	7
445.911	1	14
446.081	1	2
446.252	1	19
446.422	1	14
446.593	1	7
446.763	1	13
446.934	1	7
447.104	1	5
447.275	1	17
447.445	1	16
447.616	1	18
447.786	1	13
447.957	1	16
448.127	1	19
448.298	1	18
448.468	1	11
448.639	1	10
448.809	1	22
448.979	1	15
449.150	1	21
449.320	1	14
449.491	1	17
449.661	1	10
449.832	1	3
450.002	1	16
450.173	1	15
450.343	1	10
450.514	1	14
450.684	1	7
450.855	1	16
451.025	1	19
451.196	1	17
451.366	1	21
451.537	1	8
451.707	1	5
451.878	1	16
452.048	1	20
452.218	1	21
452.389	1	16
452.559	1	14
452.730	1	25
452.900	1	11
453.071	1	11
453.241	1	20
453.412	1	3
453.582	1	7
453.753	1	18
453.923	1	12
454.093	1	16
454.264	1	24
454.434	1	23
454.605	1	14
454.775	1	11
454.946	1	17
455.116	1	11
455.287	1	5
455.457	1	9
455.628	1	20
455.798	1	13
455.968	1	22
456.139	1	17
456.309	1	16
456.480	1	13
456.650	1	1
456.821	1	17
456.991	1	18
457.161	1	9
457.332	1	23
457.502	1	7
457.673	1	13
457.843	1	20
458.014	1	12
458.184	1	10
458.355	1	6
458.525	1	20
458.695	1	15
458.866	1	15
459.036	1	15
459.207	1	6
459.377	1	18
459.548	1	14
459.718	1	3
459.888	1	18
460.059	1	18
460.229	1	16
460.400	1	13
460.570	1	11
460.740	1	12
460.911	1	15
461.081	1	10
461.252	1	6
461.422	1	6
461.593	1	14
461.763	1	17
461.933	1	20
462.104	1	11
462.274	1	14
462.445	1	4
462.615	1	15
462.785	1	8
462.956	1	17
463.126	1	7
463.297	1	4
463.467	1	22
463.638	1	10
463.808	1	1
463.978	1	10
464.149	1	8
464.319	1	-2
464.490	1	29
464.660	1	3
464.830	1	17
465.001	1	14
465.171	1	13
465.342	1	19
465.512	1	-3
465.682	1	19
465.853	1	27
466.023	1	14
466.194	1	8
466.364	1	20
466.534	1	17
466.705	1	4
466.875	1	8
467.045	1	5
467.216	1	24
467.386	1	11
467.557	1	2
467.727	1	1
467.897	1	22
468.068	1	2
468.238	1	11
468.409	1	5
468.579	1	18
468.749	1	4
468.920	1	8
469.090	1	18
469.260	1	7
469.431	1	6
469.601	1	13
469.772	1	11
469.942	1	0
470.112	1	8
470.283	1	3
470.453	1	10
470.623	1	3
470.794	1	0
470.964	1	8
471.135	1	14
471.305	1	4
471.475	1	13
471.646	1	8
471.816	1	0
471.986	1	11
472.157	1	12
472.327	1	7
472.497	1	4
472.668	1	3
472.838	1	12
473.009	1	10
473.179	1	2
473.349	1	-5
473.520	1	16
473.690	1	5
473.860	1	7
474.031	1	12
474.201	1	10
474.371	1	19
474.542	1	7
474.712	1	1
474.882	1	13
475.053	1	25
475.223	1	4
475.394	1	12
475.564	1	15
475.734	1	17
475.905	1	22
476.075	1	4
476.245	1	21
476.416	1	11
476.586	1	10
476.756	1	13
476.927	1	17
477.097	1	7
477.267	1	-2
477.438	1	6
477.608	1	13
477.778	1	4
477.949	1	7
478.119	1	11
478.289	1	9
478.460	1	13
478.630	1	7
478.800	1	14
478.971	1	18
479.141	1	2
479.311	1	7
479.482	1	10
479.652	1	4
479.822	1	12
479.993	1	16
480.163	1	8
480.333	1	14
480.504	1	14
480.674	1	13
480.844	1	-4
481.015	1	11
481.185	1	6
481.355	1	13
481.525	1	5
481.696	1	1
481.866	1	5
482.036	1	7
482.207	1	8
482.377	1	7
482.547	1	18
482.718	1	7
482.888	1	7
483.058	1	3
483.229	1	8
483.399	1	4
483.569	1	6
483.740	1	17
483.910	1	7
484.080	1	8
484.250	1	14
484.421	1	11
484.591	1	7
484.761	1	12
484.932	1	9
485.102	1	14
485.272	1	12
485.443	1	20
485.613	1	13
485.783	1	7
485.953	1	8
486.124	1	7
486.294	1	10
486.464	1	6
486.635	1	12
486.805	1	17
486.975	1	4
487.146	1	8
487.316	1	8
487.486	1	9
487.656	1	-6
487.827	1	11
487.997	1	3
488.167	1	5
488.338	1	14
488.508	1	4
488.678	1	7
488.848	1	18
489.019	1	10
489.189	1	8
489.359	1	2
489.529	1	-3
489.700	1	4
489.870	1	10
490.040	1	5
490.211	1	-1
490.381	1	14
490.551	1	10
490.721	1	11
490.892	1	14
491.062	1	11
491.232	1	4
491.402	1	4
491.573	1	-1
491.743	1	6
491.913	1	0
492.084	1	7
492.254	1	12
492.424	1	10
492.594	1	0
492.765	1	10
492.935	1	7
493.105	1	11
493.275	1	8
493.446	1	28
493.616	1	19
493.786	1	6
493.956	1	5
494.127	1	4
494.297	1	2
494.467	1	9
494.637	1	-1
494.808	1	8
494.978	1	4
495.148	1	11
495.318	1	8
495.489	1	13
495.659	1	14
495.829	1	3
495.999	1	1
496.170	1	4
496.340	1	12
496.510	1	2
496.680	1	4
496.851	1	1
497.021	1	9
497.191	1	10
497.361	1	10
497.532	1	-4
497.702	1	-2
497.872	1	4
498.042	1	3
498.213	1	10
498.383	1	12
498.553	1	5
498.723	1	4
498.894	1	5
499.064	1	8
499.234	1	6
499.404	1	8
499.574	1	11
499.745	1	12
499.915	1	9
500.085	1	7
500.255	1	8
500.426	1	4
500.596	1	11
500.766	1	2
500.936	1	4
501.106	1	-1
501.277	1	8
501.447	1	5
501.617	1	4
501.787	1	-6
501.958	1	4
502.128	1	-2
502.298	1	6
502.468	1	9
502.638	1	8
502.809	1	-1
502.979	1	2
503.149	1	5
503.319	1	8
503.489	1	5
503.660	1	8
503.830	1	7
504.000	1	15
504.170	1	7
504.340	1	-1
504.511	1	15
504.681	1	9
504.851	1	6
505.021	1	5
505.192	1	-7
505.362	1	15
505.532	1	0
505.702	1	8
505.872	1	8
506.043	1	6
506.213	1	11
506.383	1	5
506.553	1	15
506.723	1	9
506.893	1	3
507.064	1	14
507.234	1	0
507.404	1	2
507.574	1	3
507.744	1	10
507.915	1	9
508.085	1	18
508.255	1	3
508.425	1	0
508.595	1	11
508.766	1	13
508.936	1	-7
509.106	1	12
509.276	1	21
509.446	1	3
509.616	1	9
509.787	1	4
509.957	1	2
510.127	1	11
510.297	1	4
510.467	1	0
510.638	1	1
510.808	1	-4
510.978	1	9
511.148	1	3
511.318	1	0
511.488	1	-1
511.659	1	9
511.829	1	-7
511.999	1	2
512.169	1	5
512.339	1	6
512.509	1	7
512.680	1	8
512.850	1	4
513.020	1	2
513.190	1	9
513.360	1	-1
513.530	1	1
513.700	1	7
513.871	1	5
514.041	1	7
514.211	1	11
514.381	1	2
514.551	1	10
514.721	1	11
514.892	1	15
515.062	1	-2
515.232	1	13
515.402	1	-13
515.572	1	-7
515.742	1	8
515.912	1	15
516.083	1	4
516.253	1	4
516.423	1	5
516.593	1	12
516.763	1	17
516.933	1	5
517.104	1	5
517.274	1	6
517.444	1	3
517.614	1	3
517.784	1	1
517.954	1	11
518.124	1	8
518.294	1	8
518.465	1	1
518.635	1	8
518.805	1	-6
518.975	1	3
519.145	1	5
519.315	1	-1
519.485	1	-4
519.656	1	11
519.826	1	12
519.996	1	1
520.166	1	13
520.336	1	8
520.506	1	0
520.676	1	-10
520.846	1	17
521.017	1	-2
521.187	1	-11
521.357	1	9
521.527	1	-2
521.697	1	1
521.867	1	3
522.037	1	9
522.207	1	11
522.377	1	3
522.548	1	11
522.718	1	2
522.888	1	14
523.058	1	-1
523.228	1	11
523.398	1	8
523.568	1	5
523.738	1	7
523.909	1	10
524.079	1	7
524.249	1	16
524.419	1	-2
524.589	1	-3
524.759	1	6
524.929	1	1
525.099	1	7
525.269	1	1
525.439	1	-1
525.610	1	19
525.780	1	-2
525.950	1	-1
526.120	1	-1
526.290	1	7
526.460	1	-16
526.630	1	9
526.800	1	-4
526.970	1	4
527.140	1	8
527.311	1	-4
527.481	1	-1
527.651	1	10
527.821	1	-6
527.991	1	18
528.161	1	5
528.331	1	-5
528.501	1	6
528.671	1	6
528.841	1	10
529.011	1	-3
529.181	1	5
529.352	1	5
529.522	1	-6
529.692	1	14
529.862	1	-1
530.032	1	7
530.202	1	9
530.372	1	11
530.542	1	11
530.712	1	4
530.882	1	6
531.052	1	7
531.222	1	1
531.392	1	-8
531.563	1	0
531.733	1	-2
531.903	1	1
532.073	1	14
532.243	1	1
532.413	1	11
532.583	1	2
532.753	1	2
532.923	1	-4
533.093	1	5
533.263	1	-2
533.433	1	5
533.603	1	1
533.773	1	5
533.943	1	2
534.113	1	18
534.284	1	9
534.454	1	10
534.624	1	6
534.794	1	-4
534.964	1	12
535.134	1	2
535.304	1	-3
535.474	1	11
535.644	1	10
535.814	1	2
535.984	1	-8
536.154	1	-5
536.324	1	3
536.494	1	5
536.664	1	8
536.834	1	0
537.004	1	6
537.174	1	9
537.344	1	8
537.514	1	-4
537.685	1	1
537.855	1	0
538.025	1	-4
538.195	1	4
538.365	1	16
538.535	1	-5
538.705	1	4
538.875	1	9
539.045	1	0
539.215	1	5
539.385	1	7
539.555	1	13
539.725	1	3
539.895	1	-8
540.065	1	17
540.235	1	6
540.405	1	-9
540.575	1	6
540.745	1	3
540.915	1	7
541.085	1	6
541.255	1	-6
541.425	1	5
541.595	1	-3
541.765	1	3
541.935	1	7
542.105	1	-2
542.275	1	5
542.445	1	-11
542.615	1	3
542.785	1	-7
542.955	1	4
543.125	1	-3
543.295	1	3
543.465	1	3
543.635	1	2
543.805	1	16
543.975	1	7
544.145	1	7
544.315	1	-4
544.485	1	5
544.655	1	12
544.825	1	-9
544.995	1	2
545.165	1	-4
545.335	1	2
545.505	1	-5
545.675	1	8
545.845	1	6
546.015	1	5
546.185	1	6
546.355	1	4
546.525	1	7
546.695	1	1
546.865	1	-7
547.035	1	6
547.205	1	0
547.375	1	6
547.545	1	8
547.715	1	2
547.885	1	-5
548.055	1	-1
548.225	1	4
548.395	1	0
548.565	1	9
548.735	1	8
548.905	1	1
549.075	1	1
549.245	1	11
549.415	1	2
549.585	1	9
549.755	1	3
549.925	1	-5
550.095	1	4
550.265	1	-2
550.435	1	1
550.605	1	0
550.775	1	1
550.945	1	10
551.115	1	8
551.285	1	5
551.455	1	-4
551.625	1	13
551.795	1	20
551.965	1	1
552.135	1	-3
552.305	1	8
552.475	1	-9
552.645	1	-3
552.815	1	3
552.985	1	6
553.155	1	3
553.325	1	4
553.495	1	5
553.665	1	1
553.835	1	-2
554.004	1	-2
554.174	1	1
554.344	1	5
554.514	1	-3
554.684	1	10
554.854	1	8
555.024	1	-10
555.194	1	-5
555.364	1	0
555.534	1	-2
555.704	1	2
555.874	1	2
556.044	1	5
556.214	1	-3
556.384	1	-3
556.554	1	9
556.724	1	8
556.894	1	3
557.064	1	1
557.234	1	-6
557.404	1	5
557.573	1	10
557.743	1	2
557.913	1	-7
558.083	1	1
558.253	1	9
558.423	1	5
558.593	1	15
558.763	1	0
558.933	1	3
559.103	1	7
559.273	1	6
559.443	1	-2
559.613	1	13
559.783	1	-2
559.953	1	-10
560.122	1	10
560.292	1	7
560.462	1	-2
560.632	1	5
560.802	1	10
560.972	1	8
561.142	1	1
561.312	1	-4
561.482	1	6
561.652	1	13
561.822	1	0
561.992	1	1
562.162	1	4
562.331	1	1
562.501	1	-9
562.671	1	5
562.841	1	-3
563.011	1	6
563.181	1	-1
563.351	1	-8
563.521	1	9
563.691	1	-1
563.861	1	8
564.031	1	13
564.201	1	20
564.370	1	0
564.540	1	-2
564.710	1	-1
564.880	1	3
565.050	1	3
565.220	1	-2
565.390	1	0
565.560	1	8
565.730	1	0
565.900	1	-2
566.069	1	11
566.239	1	1
566.409	1	-1
566.579	1	2
566.749	1	11
566.919	1	2
567.089	1	-2
567.259	1	9
567.429	1	3
567.599	1	-3
567.768	1	8
567.938	1	5
568.108	1	5
568.278	1	11
568.448	1	0
568.618	1	-12
568.788	1	-1
568.958	1	-4
569.128	1	4
569.297	1	-5
569.467	1	-11
569.637	1	11
569.807	1	9
569.977	1	6
570.147	1	8
570.317	1	6
570.487	1	11
570.656	1	1
570.826	1	-9
570.996	1	-5
571.166	1	14
571.336	1	0
571.506	1	17
571.676	1	5
571.846	1	11
572.015	1	1
572.185	1	1
572.355	1	-2
572.525	1	0
572.695	1	-8
572.865	1	-3
573.035	1	9
573.205	1	4
573.374	1	-5
573.544	1	-2
573.714	1	14
573.884	1	8
574.054	1	2
574.224	1	5
574.394	1	-2
574.563	1	-7
574.733	1	0
574.903	1	-3
575.073	1	-12
575.243	1	1
575.413	1	-1
575.583	1	-13
575.752	1	12
575.922	1	-2
576.092	1	-1
576.262	1	-1
576.432	1	2
576.602	1	4
576.772	1	5
576.941	1	3
577.111	1	1
577.281	1	-7
577.451	1	-7
577.621	1	6
577.791	1	7
577.960	1	3
578.130	1	6
578.300	1	8
578.470	1	16
578.640	1	1
578.810	1	4
578.979	1	3
579.149	1	0
579.319	1	1
579.489	1	-4
579.659	1	0
579.829	1	0
579.998	1	1
580.168	1	11
580.338	1	0
580.508	1	2
580.678	1	6
580.848	1	2
581.017	1	2
581.187	1	0
581.357	1	-11
581.527	1	4
581.697	1	4
581.867	1	2
582.036	1	2
582.206	1	4
582.376	1	12
582.546	1	-4
582.716	1	-3
582.885	1	-5
583.055	1	1
583.225	1	-10
583.395	1	4
583.565	1	-9
583.735	1	3
583.904	1	3
584.074	1	1
584.244	1	9
584.414	1	-3
584.584	1	13
584.753	1	-8
584.923	1	5
585.093	1	-14
585.263	1	10
585.433	1	2
585.602	1	-2
585.772	1	-3
585.942	1	6
586.112	1	3
586.282	1	-5
586.451	1	7
586.621	1	-6
586.791	1	-3
586.961	1	2
587.131	1	10
587.300	1	2
587.470	1	14
587.640	1	4
587.810	1	2
587.980	1	-1
588.149	1	11
588.319	1	2
588.489	1	2
588.659	1	1
588.829	1	7
588.998	1	10
589.168	1	9
589.338	1	14
589.508	1	5
589.677	1	1
589.847	1	-4
590.017	1	16
590.187	1	-9
590.357	1	10
590.526	1	16
590.696	1	1
590.866	1	11
591.036	1	6
591.205	1	3
591.375	1	-5
591.545	1	-6
591.715	1	14
591.885	1	6
592.054	1	0
592.224	1	3
592.394	1	5
592.564	1	6
592.733	1	5
592.903	1	3
593.073	1	-2
593.243	1	-8
593.412	1	6
593.582	1	6
593.752	1	-7
593.922	1	5
594.091	1	2
594.261	1	10
594.431	1	4
594.601	1	-1
594.771	1	9
594.940	1	8
595.110	1	-6
595.280	1	0
595.450	1	-1
595.619	1	-4
595.789	1	-3
595.959	1	11
596.129	1	-6
596.298	1	0
596.468	1	0
596.638	1	2
596.808	1	5
596.977	1	-7
597.147	1	12
597.317	1	-3
597.487	1	8
597.656	1	3
597.826	1	-2
597.996	1	-2
598.166	1	5
598.335	1	-8
598.505	1	1
598.675	1	0
598.844	1	2
599.014	1	0
599.184	1	10
599.354	1	-8
599.523	1	10
599.693	1	-5
599.863	1	10
600.033	1	1
600.202	1	11
600.372	1	0
600.542	1	7
600.712	1	-4
600.881	1	-1
601.051	1	12
601.221	1	12
601.390	1	-9
601.560	1	8
601.730	1	8
601.900	1	2
602.069	1	8
602.239	1	3
602.409	1	2
602.578	1	3
602.748	1	1
602.918	1	9
603.088	1	10
603.257	1	12
603.427	1	-9
603.597	1	-1
603.767	1	11
603.936	1	-2
604.106	1	10
604.276	1	1
604.445	1	7
604.615	1	-6
604.785	1	3
604.954	1	4
605.124	1	0
605.294	1	-5
605.464	1	7
605.633	1	5
605.803	1	-2
605.973	1	0
606.142	1	3
606.312	1	4
606.482	1	4
606.652	1	13
606.821	1	-5
606.991	1	5
607.161	1	-1
607.330	1	8
607.500	1	7
607.670	1	-7
607.839	1	7
608.009	1	25
608.179	1	7
608.348	1	1
608.518	1	1
608.688	1	14
608.858	1	6
609.027	1	-10
609.197	1	10
609.367	1	7
609.536	1	16
609.706	1	-1
609.876	1	11
610.045	1	-4
610.215	1	12
610.385	1	-1
610.554	1	12
610.724	1	-1
610.894	1	-5
611.063	1	5
611.233	1	-4
611.403	1	-12
611.572	1	-4
611.742	1	12
611.912	1	7
612.081	1	6
612.251	1	11
612.421	1	-5
612.590	1	3
612.760	1	-3
612.930	1	0
613.099	1	0
613.269	1	17
613.439	1	-3
613.608	1	-2
613.778	1	2
613.948	1	7
614.117	1	-2
614.287	1	2
614.457	1	6
614.626	1	4
614.796	1	12
614.966	1	-3
615.135	1	4
615.305	1	3
615.475	1	-1
615.644	1	1
615.814	1	-8
615.984	1	2
616.153	1	-1
616.323	1	6
616.493	1	9
616.662	1	13
616.832	1	-3
617.002	1	-1
617.171	1	4
617.341	1	1
617.511	1	1
617.680	1	-5
617.850	1	7
618.019	1	15
618.189	1	6
618.359	1	1
618.528	1	-2
618.698	1	7
618.868	1	6
619.037	1	0
619.207	1	-5
619.377	1	-6
619.546	1	2
619.716	1	7
619.885	1	2
620.055	1	-10
620.225	1	1
620.394	1	1
620.564	1	14
620.734	1	12
620.903	1	-3
621.073	1	6
621.242	1	-2
621.412	1	2
621.582	1	6
621.751	1	5
621.921	1	11
622.091	1	1
622.260	1	6
622.430	1	9
622.599	1	2
622.769	1	8
622.939	1	9
623.108	1	8
623.278	1	-1
623.448	1	-1
623.617	1	3
623.787	1	10
623.956	1	5
624.126	1	-4
624.296	1	-1
624.465	1	11
624.635	1	10
624.804	1	-2
624.974	1	3
625.144	1	13
625.313	1	-1
625.483	1	-1
625.652	1	7
625.822	1	5
625.992	1	-3
626.161	1	9
626.331	1	0
626.501	1	5
626.670	1	0
626.840	1	1
627.009	1	-3
627.179	1	13
627.348	1	8
627.518	1	4
627.688	1	8
627.857	1	5
628.027	1	-4
628.196	1	-5
628.366	1	9
628.536	1	10
628.705	1	-2
628.875	1	5
629.044	1	0
629.214	1	13
629.384	1	1
629.553	1	9
629.723	1	10
629.892	1	6
630.062	1	4
630.232	1	5
630.401	1	4
630.571	1	5
630.740	1	5
630.910	1	9
631.079	1	8
631.249	1	6
631.419	1	5
631.588	1	-9
631.758	1	0
631.927	1	3
632.097	1	5
632.266	1	2
632.436	1	5
632.606	1	-2
632.775	1	7
632.945	1	3
633.114	1	12
633.284	1	14
633.453	1	-3
633.623	1	-3
633.793	1	-1
633.962	1	12
634.132	1	-2
634.301	1	4
634.471	1	7
634.640	1	-2
634.810	1	0
634.979	1	6
635.149	1	4
635.319	1	7
635.488	1	20
635.658	1	-2
635.827	1	-3
635.997	1	-1
636.166	1	8
636.336	1	1
636.505	1	9
636.675	1	-1
636.845	1	11
637.014	1	4
637.184	1	9
637.353	1	8
637.523	1	6
637.692	1	-4
637.862	1	6
638.031	1	6
638.201	1	7
638.370	1	-6
638.540	1	-1
638.710	1	9
638.879	1	-6
639.049	1	5
639.218	1	-2
639.388	1	-6
639.557	1	-1
639.727	1	0
639.896	1	9
640.066	1	-5
640.235	1	7
640.405	1	5
640.574	1	2
640.744	1	-5
640.914	1	4
641.083	1	2
641.253	1	4
641.422	1	-5
641.592	1	11
641.761	1	9
641.931	1	4
642.100	1	15
642.270	1	0
642.439	1	15
642.609	1	12
642.778	1	7
642.948	1	-3
643.117	1	16
643.287	1	3
643.456	1	2
643.626	1	6
643.795	1	1
643.965	1	5
644.134	1	-3
644.304	1	10
644.473	1	21
644.643	1	11
644.812	1	12
644.982	1	-3
645.151	1	3
645.321	1	0
645.490	1	8
645.660	1	-4
645.829	1	5
645.999	1	4
646.168	1	5
646.338	1	14
646.507	1	1
646.677	1	7
646.846	1	1
647.016	1	-2
647.185	1	5
647.355	1	-18
647.524	1	9
647.694	1	4
647.863	1	8
648.033	1	7
648.202	1	6
648.372	1	5
648.541	1	-3
648.711	1	-3
648.880	1	-4
649.050	1	-7
649.219	1	5
649.389	1	10
649.558	1	13
649.728	1	8
649.897	1	-1
650.067	1	0
650.236	1	3
650.406	1	1
650.575	1	6
650.745	1	10
650.914	1	8
651.084	1	-4
651.253	1	5
651.423	1	8
651.592	1	-4
651.762	1	1
651.931	1	13
652.101	1	8
652.270	1	13
652.440	1	8
652.609	1	0
652.778	1	-9
652.948	1	3
653.117	1	3
653.287	1	0
653.456	1	7
653.626	1	7
653.795	1	1
653.965	1	4
654.134	1	1
654.304	1	-10
654.473	1	9
654.643	1	4
654.812	1	11
654.982	1	8
655.151	1	0
655.320	1	0
655.490	1	4
655.659	1	10
655.829	1	8
655.998	1	5
656.168	1	3
656.337	1	3
656.507	1	9
656.676	1	10
656.846	1	11
657.015	1	2
657.184	1	6
657.354	1	5
657.523	1	0
657.693	1	19
657.862	1	13
658.032	1	4
658.201	1	-3
658.371	1	9
658.540	1	3
658.709	1	-2
658.879	1	6
659.048	1	2
659.218	1	3
659.387	1	5
659.557	1	4
659.726	1	11
659.895	1	-5
660.065	1	0
660.234	1	1
660.404	1	11
660.573	1	2
660.743	1	8
660.912	1	1
661.081	1	19
661.251	1	7
661.420	1	7
661.590	1	5
661.759	1	6
661.929	1	4
662.098	1	14
662.267	1	13
662.437	1	11
662.606	1	7
662.776	1	6
662.945	1	4
663.115	1	6
663.284	1	-2
663.453	1	6
663.623	1	1
663.792	1	2
663.962	1	1
664.131	1	17
664.300	1	16
664.470	1	0
664.639	1	0
664.809	1	5
664.978	1	11
665.148	1	5
665.317	1	2
665.486	1	12
665.656	1	-4
665.825	1	12
665.995	1	-7
666.164	1	12
666.333	1	10
666.503	1	3
666.672	1	-2
666.842	1	4
667.011	1	-4
667.180	1	11
667.350	1	7
667.519	1	9
667.689	1	-2
667.858	1	6
668.027	1	19
668.197	1	3
668.366	1	0
668.536	1	0
668.705	1	4
668.874	1	7
669.044	1	-7
669.213	1	-1
669.382	1	-11
669.552	1	15
669.721	1	6
669.891	1	17
670.060	1	12
670.229	1	14
670.399	1	8
670.568	1	16
670.738	1	5
670.907	1	-5
671.076	1	3
671.246	1	12
671.415	1	3
671.584	1	7
671.754	1	-3
671.923	1	5
672.093	1	1
672.262	1	-9
672.431	1	11
672.601	1	8
672.770	1	-4
672.939	1	5
673.109	1	8
673.278	1	6
673.448	1	13
673.617	1	-4
673.786	1	2
