325.333	1	30
325.504	1	32
325.675	1	28
325.846	1	24
326.017	1	19
326.188	1	34
326.359	1	22
326.531	1	16
326.702	1	21
326.873	1	38
327.044	1	20
327.215	1	26
327.386	1	30
327.557	1	27
327.728	1	26
327.899	1	35
328.070	1	39
328.241	1	32
328.412	1	23
328.583	1	44
328.754	1	37
328.926	1	46
329.097	1	19
329.268	1	45
329.439	1	19
329.610	1	36
329.781	1	27
329.952	1	30
330.123	1	27
330.294	1	24
330.465	1	29
330.636	1	41
330.807	1	44
330.978	1	28
331.149	1	32
331.320	1	36
331.492	1	33
331.663	1	34
331.834	1	35
332.005	1	28
332.176	1	40
332.347	1	47
332.518	1	28
332.689	1	45
332.860	1	40
333.031	1	44
333.202	1	24
333.373	1	41
333.544	1	41
333.715	1	35
333.886	1	27
334.057	1	42
334.228	1	32
334.399	1	38
334.570	1	43
334.741	1	43
334.912	1	39
335.084	1	53
335.255	1	39
335.426	1	35
335.597	1	40
335.768	1	43
335.939	1	46
336.110	1	36
336.281	1	30
336.452	1	37
336.623	1	50
336.794	1	38
336.965	1	43
337.136	1	50
337.307	1	48
337.478	1	39
337.649	1	50
337.820	1	46
337.991	1	45
338.162	1	49
338.333	1	51
338.504	1	45
338.675	1	47
338.846	1	44
339.017	1	41
339.188	1	38
339.359	1	38
339.530	1	51
339.701	1	57
339.872	1	51
340.043	1	51
340.214	1	41
340.385	1	64
340.556	1	41
340.727	1	49
340.898	1	58
341.069	1	57
341.240	1	57
341.411	1	60
341.582	1	58
341.753	1	42
341.924	1	48
342.095	1	60
342.266	1	56
342.437	1	63
342.608	1	45
342.779	1	57
342.950	1	58
343.121	1	68
343.292	1	55
343.463	1	60
343.634	1	59
343.805	1	62
343.976	1	57
344.147	1	54
344.318	1	61
344.489	1	65
344.660	1	64
344.831	1	54
345.002	1	51
345.173	1	81
345.344	1	62
345.515	1	67
345.686	1	65
345.857	1	77
346.028	1	62
346.199	1	62
346.370	1	61
346.541	1	70
346.712	1	57
346.883	1	75
347.054	1	64
347.225	1	81
347.396	1	77
347.567	1	77
347.738	1	63
347.909	1	76
348.080	1	62
348.251	1	85
348.422	1	82
348.593	1	63
348.764	1	72
348.935	1	82
349.106	1	73
349.277	1	81
349.448	1	76
349.619	1	82
349.790	1	68
349.961	1	88
350.132	1	75
350.303	1	74
350.474	1	76
350.645	1	87
350.816	1	85
350.987	1	88
351.157	1	69
351.328	1	88
351.499	1	80
351.670	1	68
351.841	1	81
352.012	1	86
352.183	1	87
352.354	1	90
352.525	1	90
352.696	1	90
352.867	1	78
353.038	1	87
353.209	1	91
353.380	1	80
353.551	1	78
353.722	1	85
353.893	1	88
354.064	1	95
354.235	1	90
354.406	1	91
354.576	1	84
354.747	1	80
354.918	1	89
355.089	1	80
355.260	1	98
355.431	1	91
355.602	1	92
355.773	1	89
355.944	1	90
356.115	1	92
356.286	1	98
356.457	1	87
356.628	1	96
356.799	1	104
356.970	1	106
357.141	1	85
357.311	1	88
357.482	1	93
357.653	1	91
357.824	1	95
357.995	1	99
358.166	1	94
358.337	1	97
358.508	1	96
358.679	1	105
358.850	1	109
359.021	1	99
359.192	1	93
359.363	1	92
359.533	1	101
359.704	1	99
359.875	1	96
360.046	1	111
360.217	1	92
360.388	1	98
360.559	1	91
360.730	1	106
360.901	1	104
361.072	1	110
361.243	1	104
361.414	1	108
361.584	1	91
361.755	1	96
361.926	1	94
362.097	1	102
362.268	1	98
362.439	1	95
362.610	1	115
362.781	1	100
362.952	1	92
363.123	1	109
363.293	1	95
363.464	1	114
363.635	1	108
363.806	1	103
363.977	1	96
364.148	1	99
364.319	1	102
364.490	1	108
364.661	1	105
364.832	1	98
365.002	1	114
365.173	1	105
365.344	1	109
365.515	1	115
365.686	1	104
365.857	1	115
366.028	1	113
366.199	1	113
366.370	1	106
366.540	1	93
366.711	1	104
366.882	1	99
367.053	1	110
367.224	1	118
367.395	1	105
367.566	1	100
367.737	1	114
367.908	1	113
368.078	1	115
368.249	1	121
368.420	1	103
368.591	1	105
368.762	1	117
368.933	1	114
369.104	1	109
369.274	1	113
369.445	1	122
369.616	1	115
369.787	1	115
369.958	1	122
370.129	1	106
370.300	1	119
370.471	1	105
370.641	1	114
370.812	1	114
370.983	1	113
371.154	1	109
371.325	1	127
371.496	1	114
371.667	1	120
371.837	1	107
372.008	1	115
372.179	1	103
372.350	1	123
372.521	1	113
372.692	1	114
372.863	1	126
373.033	1	107
373.204	1	111
373.375	1	116
373.546	1	112
373.717	1	127
373.888	1	127
374.059	1	130
374.229	1	122
374.400	1	116
374.571	1	115
374.742	1	123
374.913	1	131
375.084	1	104
375.254	1	115
375.425	1	119
375.596	1	125
375.767	1	124
375.938	1	125
376.109	1	122
376.279	1	112
376.450	1	122
376.621	1	127
376.792	1	126
376.963	1	118
377.134	1	132
377.304	1	127
377.475	1	115
377.646	1	123
377.817	1	125
377.988	1	128
378.159	1	123
378.329	1	132
378.500	1	131
378.671	1	134
378.842	1	122
379.013	1	121
379.184	1	123
379.354	1	140
379.525	1	127
379.696	1	137
379.867	1	133
380.038	1	136
380.209	1	129
380.379	1	142
380.550	1	126
380.721	1	135
380.892	1	131
381.063	1	128
381.233	1	135
381.404	1	128
381.575	1	136
381.746	1	142
381.917	1	124
382.087	1	128
382.258	1	123
382.429	1	137
382.600	1	143
382.771	1	143
382.941	1	143
383.112	1	140
383.283	1	156
383.454	1	135
383.625	1	132
383.795	1	134
383.966	1	150
384.137	1	146
384.308	1	150
384.479	1	138
384.649	1	146
384.820	1	146
384.991	1	140
385.162	1	146
385.333	1	146
385.503	1	141
385.674	1	137
385.845	1	158
386.016	1	150
386.187	1	157
386.357	1	164
386.528	1	155
386.699	1	142
386.870	1	169
387.041	1	154
387.211	1	144
387.382	1	172
387.553	1	149
387.724	1	146
387.894	1	157
388.065	1	152
388.236	1	154
388.407	1	162
388.578	1	149
388.748	1	150
388.919	1	161
389.090	1	149
389.261	1	149
389.431	1	151
389.602	1	161
389.773	1	149
389.944	1	168
390.114	1	153
390.285	1	153
390.456	1	168
390.627	1	162
390.798	1	154
390.968	1	163
391.139	1	156
391.310	1	156
391.481	1	160
391.651	1	155
391.822	1	150
391.993	1	155
392.164	1	145
392.334	1	153
392.505	1	147
392.676	1	148
392.847	1	156
393.017	1	182
393.188	1	171
393.359	1	145
393.530	1	161
393.700	1	148
393.871	1	152
394.042	1	163
394.213	1	164
394.383	1	161
394.554	1	168
394.725	1	168
394.896	1	171
395.066	1	169
395.237	1	159
395.408	1	158
395.579	1	167
395.749	1	163
395.920	1	154
396.091	1	169
396.262	1	172
396.432	1	170
396.603	1	183
396.774	1	169
396.945	1	154
397.115	1	172
397.286	1	164
397.457	1	164
397.627	1	177
397.798	1	181
397.969	1	166
398.140	1	157
398.310	1	156
398.481	1	163
398.652	1	180
398.823	1	157
398.993	1	167
399.164	1	157
399.335	1	176
399.505	1	162
399.676	1	179
399.847	1	175
400.018	1	172
400.188	1	167
400.359	1	174
400.530	1	162
400.700	1	159
400.871	1	183
401.042	1	169
401.213	1	178
401.383	1	163
401.554	1	183
401.725	1	185
401.895	1	170
402.066	1	177
402.237	1	174
402.408	1	177
402.578	1	182
402.749	1	173
402.920	1	165
403.090	1	177
403.261	1	176
403.432	1	170
403.603	1	168
403.773	1	180
403.944	1	164
404.115	1	173
404.285	1	165
404.456	1	167
404.627	1	178
404.797	1	177
404.968	1	157
405.139	1	175
405.310	1	171
405.480	1	171
405.651	1	172
405.822	1	173
405.992	1	174
406.163	1	182
406.334	1	167
406.504	1	179
406.675	1	189
406.846	1	180
407.016	1	184
407.187	1	182
407.358	1	170
407.528	1	177
407.699	1	168
407.870	1	182
408.041	1	185
408.211	1	191
408.382	1	182
408.553	1	177
408.723	1	192
408.894	1	187
409.065	1	183
409.235	1	182
409.406	1	179
409.577	1	178
409.747	1	184
409.918	1	172
410.089	1	182
410.259	1	182
410.430	1	178
410.601	1	190
410.771	1	175
410.942	1	181
411.113	1	186
411.283	1	176
411.454	1	188
411.625	1	158
411.795	1	170
411.966	1	182
412.137	1	178
412.307	1	172
412.478	1	183
412.649	1	187
412.819	1	189
412.990	1	173
413.161	1	179
413.331	1	167
413.502	1	196
413.672	1	182
413.843	1	194
414.014	1	167
414.184	1	175
414.355	1	162
414.526	1	177
414.696	1	185
414.867	1	167
415.038	1	172
415.208	1	180
415.379	1	178
415.550	1	171
415.720	1	164
415.891	1	158
416.062	1	181
416.232	1	181
416.403	1	179
416.573	1	167
416.744	1	171
416.915	1	178
417.085	1	184
417.256	1	169
417.427	1	176
417.597	1	184
417.768	1	161
417.939	1	169
418.109	1	176
418.280	1	165
418.450	1	168
418.621	1	170
418.792	1	176
418.962	1	164
419.133	1	185
419.304	1	169
419.474	1	165
419.645	1	166
419.815	1	156
419.986	1	180
420.157	1	177
420.327	1	178
420.498	1	172
420.669	1	160
420.839	1	191
421.010	1	167
421.180	1	182
421.351	1	166
421.522	1	164
421.692	1	165
421.863	1	171
422.033	1	176
422.204	1	187
422.375	1	166
422.545	1	177
422.716	1	168
422.886	1	153
423.057	1	180
423.228	1	164
423.398	1	139
423.569	1	160
423.740	1	153
423.910	1	156
424.081	1	151
424.251	1	156
424.422	1	178
424.593	1	143
424.763	1	180
424.934	1	162
425.104	1	153
425.275	1	150
425.445	1	157
425.616	1	158
425.787	1	139
425.957	1	165
426.128	1	175
426.298	1	168
426.469	1	156
426.640	1	145
426.810	1	158
426.981	1	167
427.151	1	152
427.322	1	162
427.493	1	157
427.663	1	145
427.834	1	146
428.004	1	150
428.175	1	166
428.345	1	149
428.516	1	144
428.687	1	163
428.857	1	143
429.028	1	145
429.198	1	156
429.369	1	159
429.540	1	144
429.710	1	134
429.881	1	167
430.051	1	148
430.222	1	141
430.392	1	153
430.563	1	158
430.734	1	160
430.904	1	155
431.075	1	150
431.245	1	139
431.416	1	169
431.586	1	154
431.757	1	154
431.927	1	142
432.098	1	149
432.269	1	151
432.439	1	157
432.610	1	150
432.780	1	160
432.951	1	143
433.121	1	162
433.292	1	156
433.462	1	152
433.633	1	151
433.804	1	142
433.974	1	143
434.145	1	162
434.315	1	146
434.486	1	153
434.656	1	152
434.827	1	141
434.997	1	140
435.168	1	145
435.339	1	144
435.509	1	154
435.680	1	145
435.850	1	144
436.021	1	151
436.191	1	162
436.362	1	151
436.532	1	146
436.703	1	155
436.873	1	148
437.044	1	132
437.214	1	141
437.385	1	141
437.556	1	132
437.726	1	155
437.897	1	146
438.067	1	134
438.238	1	137
438.408	1	138
438.579	1	139
438.749	1	144
438.920	1	125
439.090	1	134
439.261	1	132
439.431	1	141
439.602	1	127
439.772	1	133
439.943	1	141
440.113	1	148
440.284	1	138
440.455	1	129
440.625	1	134
440.796	1	133
440.966	1	137
441.137	1	132
441.307	1	128
441.478	1	137
441.648	1	136
441.819	1	138
441.989	1	117
442.160	1	139
442.330	1	139
442.501	1	136
442.671	1	122
442.842	1	120
443.012	1	126
443.183	1	124
443.353	1	129
443.524	1	126
443.694	1	131
443.865	1	123
444.035	1	124
444.206	1	124
444.376	1	116
444.547	1	142
444.717	1	130
444.888	1	131
445.058	1	134
445.229	1	139
445.399	1	118
445.570	1	125
445.740	1	113
445.911	1	119
446.081	1	131
446.252	1	122
446.422	1	124
446.593	1	121
446.763	1	120
446.934	1	129
447.104	1	121
447.275	1	121
447.445	1	131
447.616	1	122
447.786	1	120
447.957	1	130
448.127	1	121
448.298	1	124
448.468	1	118
448.639	1	111
448.809	1	131
448.979	1	119
449.150	1	136
449.320	1	124
449.491	1	124
449.661	1	113
449.832	1	122
450.002	1	127
450.173	1	108
450.343	1	114
450.514	1	114
450.684	1	128
450.855	1	124
451.025	1	120
451.196	1	115
451.366	1	106
451.537	1	111
451.707	1	95
451.878	1	120
452.048	1	127
452.218	1	124
452.389	1	128
452.559	1	114
452.730	1	128
452.900	1	122
453.071	1	98
453.241	1	116
453.412	1	111
453.582	1	102
453.753	1	108
453.923	1	109
454.093	1	107
454.264	1	120
454.434	1	111
454.605	1	120
454.775	1	107
454.946	1	110
455.116	1	107
455.287	1	97
455.457	1	101
455.628	1	109
455.798	1	101
455.968	1	116
456.139	1	104
456.309	1	100
456.480	1	111
456.650	1	95
456.821	1	100
456.991	1	106
457.161	1	113
457.332	1	106
457.502	1	90
457.673	1	101
457.843	1	109
458.014	1	106
458.184	1	114
458.355	1	102
458.525	1	102
458.695	1	108
458.866	1	94
459.036	1	110
459.207	1	104
459.377	1	97
459.548	1	106
459.718	1	96
459.888	1	108
460.059	1	108
460.229	1	104
460.400	1	103
460.570	1	106
460.740	1	93
460.911	1	102
461.081	1	99
461.252	1	92
461.422	1	99
461.593	1	97
461.763	1	102
461.933	1	101
462.104	1	93
462.274	1	109
462.445	1	106
462.615	1	98
462.785	1	94
462.956	1	106
463.126	1	98
463.297	1	93
463.467	1	92
463.638	1	95
463.808	1	88
463.978	1	86
464.149	1	86
464.319	1	91
464.490	1	101
464.660	1	74
464.830	1	100
465.001	1	86
465.171	1	91
465.342	1	96
465.512	1	78
465.682	1	89
465.853	1	92
466.023	1	109
466.194	1	91
466.364	1	91
466.534	1	92
466.705	1	84
466.875	1	75
467.045	1	86
467.216	1	110
467.386	1	87
467.557	1	89
467.727	1	82
467.897	1	86
468.068	1	82
468.238	1	80
468.409	1	90
468.579	1	87
468.749	1	89
468.920	1	67
469.090	1	87
469.260	1	89
469.431	1	82
469.601	1	93
469.772	1	81
469.942	1	71
470.112	1	88
470.283	1	84
470.453	1	83
470.623	1	71
470.794	1	77
470.964	1	85
471.135	1	83
471.305	1	70
471.475	1	87
471.646	1	76
471.816	1	75
471.986	1	69
472.157	1	89
472.327	1	62
472.497	1	84
472.668	1	71
472.838	1	80
473.009	1	77
473.179	1	74
473.349	1	74
473.520	1	79
473.690	1	78
473.860	1	66
474.031	1	79
474.201	1	78
474.371	1	88
474.542	1	82
474.712	1	83
474.882	1	83
475.053	1	93
475.223	1	63
475.394	1	91
475.564	1	78
475.734	1	82
475.905	1	81
476.075	1	79
476.245	1	92
476.416	1	88
476.586	1	88
476.756	1	77
476.927	1	87
477.097	1	85
477.267	1	61
477.438	1	73
477.608	1	73
477.778	1	70
477.949	1	82
478.119	1	78
478.289	1	79
478.460	1	82
478.630	1	74
478.800	1	79
478.971	1	84
479.141	1	81
479.311	1	70
479.482	1	92
479.652	1	59
479.822	1	73
479.993	1	70
480.163	1	86
480.333	1	71
480.504	1	75
480.674	1	76
480.844	1	65
481.015	1	79
481.185	1	73
481.355	1	85
481.525	1	65
481.696	1	82
481.866	1	59
482.036	1	71
482.207	1	73
482.377	1	65
482.547	1	73
482.718	1	72
482.888	1	77
483.058	1	73
483.229	1	63
483.399	1	71
483.569	1	63
483.740	1	64
483.910	1	75
484.080	1	63
484.250	1	77
484.421	1	63
484.591	1	76
484.761	1	73
484.932	1	68
485.102	1	74
485.272	1	64
485.443	1	61
485.613	1	62
485.783	1	59
485.953	1	63
486.124	1	66
486.294	1	61
486.464	1	75
486.635	1	57
486.805	1	68
486.975	1	53
487.146	1	68
487.316	1	51
487.486	1	54
487.656	1	57
487.827	1	55
487.997	1	57
488.167	1	51
488.338	1	61
488.508	1	62
488.678	1	57
488.848	1	70
489.019	1	54
489.189	1	54
489.359	1	57
489.529	1	69
489.700	1	57
489.870	1	66
490.040	1	47
490.211	1	51
490.381	1	62
490.551	1	55
490.721	1	66
490.892	1	57
491.062	1	55
491.232	1	69
491.402	1	64
491.573	1	49
491.743	1	60
491.913	1	61
492.084	1	66
492.254	1	65
492.424	1	47
492.594	1	52
492.765	1	61
492.935	1	58
493.105	1	62
493.275	1	55
493.446	1	61
493.616	1	62
493.786	1	58
493.956	1	54
494.127	1	49
494.297	1	51
494.467	1	51
494.637	1	58
494.808	1	54
494.978	1	42
495.148	1	47
495.318	1	57
495.489	1	61
495.659	1	58
495.829	1	46
495.999	1	40
496.170	1	45
496.340	1	56
496.510	1	59
496.680	1	49
496.851	1	54
497.021	1	54
497.191	1	40
497.361	1	48
497.532	1	49
497.702	1	56
497.872	1	55
498.042	1	62
498.213	1	44
498.383	1	44
498.553	1	49
498.723	1	44
498.894	1	50
499.064	1	40
499.234	1	50
499.404	1	51
499.574	1	53
499.745	1	61
499.915	1	50
500.085	1	53
500.255	1	52
500.426	1	49
500.596	1	43
500.766	1	45
500.936	1	42
501.106	1	47
501.277	1	43
501.447	1	41
501.617	1	49
501.787	1	45
501.958	1	30
502.128	1	45
502.298	1	55
502.468	1	54
502.638	1	45
502.809	1	51
502.979	1	43
503.149	1	44
503.319	1	31
503.489	1	42
503.660	1	44
503.830	1	41
504.000	1	51
504.170	1	32
504.340	1	39
504.511	1	50
504.681	1	50
504.851	1	48
505.021	1	48
505.192	1	49
505.362	1	46
505.532	1	48
505.702	1	38
505.872	1	39
506.043	1	45
506.213	1	52
506.383	1	53
506.553	1	53
506.723	1	38
506.893	1	49
507.064	1	50
507.234	1	37
507.404	1	31
507.574	1	41
507.744	1	47
507.915	1	48
508.085	1	46
508.255	1	50
508.425	1	37
508.595	1	43
508.766	1	40
508.936	1	29
509.106	1	56
509.276	1	46
509.446	1	32
509.616	1	43
509.787	1	48
509.957	1	51
510.127	1	43
510.297	1	38
510.467	1	31
510.638	1	35
510.808	1	26
510.978	1	28
511.148	1	35
511.318	1	35
511.488	1	36
511.659	1	34
511.829	1	34
511.999	1	38
512.169	1	35
512.339	1	30
512.509	1	41
512.680	1	44
512.850	1	38
513.020	1	32
513.190	1	45
513.360	1	44
513.530	1	27
513.700	1	46
513.871	1	35
514.041	1	27
514.211	1	49
514.381	1	47
514.551	1	36
514.721	1	39
514.892	1	40
515.062	1	36
515.232	1	46
515.402	1	30
515.572	1	31
515.742	1	42
515.912	1	37
516.083	1	35
516.253	1	39
516.423	1	31
516.593	1	29
516.763	1	45
516.933	1	32
517.104	1	26
517.274	1	42
517.444	1	32
517.614	1	26
517.784	1	38
517.954	1	42
518.124	1	35
518.294	1	25
518.465	1	34
518.635	1	37
518.805	1	17
518.975	1	38
519.145	1	28
519.315	1	28
519.485	1	32
519.656	1	44
519.826	1	30
519.996	1	28
520.166	1	43
520.336	1	34
520.506	1	41
520.676	1	25
520.846	1	37
521.017	1	24
521.187	1	28
521.357	1	44
521.527	1	26
521.697	1	34
521.867	1	27
522.037	1	40
522.207	1	42
522.377	1	33
522.548	1	29
522.718	1	32
522.888	1	40
523.058	1	21
523.228	1	28
523.398	1	31
523.568	1	34
523.738	1	25
523.909	1	33
524.079	1	33
524.249	1	22
524.419	1	25
524.589	1	27
524.759	1	18
524.929	1	24
525.099	1	26
525.269	1	26
525.439	1	24
525.610	1	43
525.780	1	26
525.950	1	17
526.120	1	18
526.290	1	29
526.460	1	16
526.630	1	31
526.800	1	29
526.970	1	25
527.140	1	32
527.311	1	26
527.481	1	10
527.651	1	28
527.821	1	21
527.991	1	32
528.161	1	32
528.331	1	11
528.501	1	34
528.671	1	15
528.841	1	27
529.011	1	23
529.181	1	27
529.352	1	22
529.522	1	25
529.692	1	31
529.862	1	17
530.032	1	36
530.202	1	22
530.372	1	30
530.542	1	25
530.712	1	20
530.882	1	23
531.052	1	27
531.222	1	31
531.392	1	21
531.563	1	31
531.733	1	25
531.903	1	23
532.073	1	29
532.243	1	16
532.413	1	26
532.583	1	24
532.753	1	19
532.923	1	12
533.093	1	26
533.263	1	15
533.433	1	25
533.603	1	21
533.773	1	31
533.943	1	18
534.113	1	21
534.284	1	25
534.454	1	26
534.624	1	25
534.794	1	10
534.964	1	26
535.134	1	26
535.304	1	17
535.474	1	31
535.644	1	9
535.814	1	21
535.984	1	16
536.154	1	16
536.324	1	15
536.494	1	23
536.664	1	19
536.834	1	26
537.004	1	15
537.174	1	33
537.344	1	18
537.514	1	14
537.685	1	24
537.855	1	30
538.025	1	23
538.195	1	16
538.365	1	23
538.535	1	18
538.705	1	15
538.875	1	15
539.045	1	24
539.215	1	28
539.385	1	19
539.555	1	23
539.725	1	21
539.895	1	21
540.065	1	34
540.235	1	16
540.405	1	13
540.575	1	23
540.745	1	28
540.915	1	25
541.085	1	19
541.255	1	9
541.425	1	31
541.595	1	20
541.765	1	16
541.935	1	21
542.105	1	12
542.275	1	20
542.445	1	11
542.615	1	22
542.785	1	23
542.955	1	14
543.125	1	10
543.295	1	26
543.465	1	22
543.635	1	22
543.805	1	34
543.975	1	20
544.145	1	22
544.315	1	18
544.485	1	24
544.655	1	22
544.825	1	18
544.995	1	15
545.165	1	14
545.335	1	16
545.505	1	18
545.675	1	13
545.845	1	16
546.015	1	21
546.185	1	24
546.355	1	17
546.525	1	18
546.695	1	20
546.865	1	20
547.035	1	20
547.205	1	1
547.375	1	19
547.545	1	19
547.715	1	16
547.885	1	16
548.055	1	16
548.225	1	14
548.395	1	18
548.565	1	22
548.735	1	17
548.905	1	13
549.075	1	12
549.245	1	15
549.415	1	8
549.585	1	25
549.755	1	21
549.925	1	14
550.095	1	21
550.265	1	14
550.435	1	14
550.605	1	8
550.775	1	15
550.945	1	24
551.115	1	13
551.285	1	12
551.455	1	7
551.625	1	19
551.795	1	19
551.965	1	20
552.135	1	19
552.305	1	19
552.475	1	13
552.645	1	10
552.815	1	15
552.985	1	20
553.155	1	12
553.325	1	30
553.495	1	15
553.665	1	12
553.835	1	12
554.004	1	19
554.174	1	21
554.344	1	22
554.514	1	19
554.684	1	19
554.854	1	19
555.024	1	5
555.194	1	14
555.364	1	17
555.534	1	17
555.704	1	15
555.874	1	23
556.044	1	17
556.214	1	6
556.384	1	15
556.554	1	24
556.724	1	17
556.894	1	14
557.064	1	22
557.234	1	14
557.404	1	25
557.573	1	12
557.743	1	18
557.913	1	8
558.083	1	11
558.253	1	14
558.423	1	14
558.593	1	22
558.763	1	14
558.933	1	17
559.103	1	18
559.273	1	15
559.443	1	14
559.613	1	18
559.783	1	28
559.953	1	12
560.122	1	25
560.292	1	26
560.462	1	3
560.632	1	14
560.802	1	7
560.972	1	22
561.142	1	20
561.312	1	14
561.482	1	22
561.652	1	20
561.822	1	13
561.992	1	9
562.162	1	9
562.331	1	15
562.501	1	4
562.671	1	16
562.841	1	5
563.011	1	13
563.181	1	15
563.351	1	2
563.521	1	14
563.691	1	12
563.861	1	7
564.031	1	12
564.201	1	28
564.370	1	15
564.540	1	14
564.710	1	7
564.880	1	12
565.050	1	18
565.220	1	10
565.390	1	12
565.560	1	16
565.730	1	15
565.900	1	14
566.069	1	27
566.239	1	17
566.409	1	12
566.579	1	17
566.749	1	5
566.919	1	12
567.089	1	8
567.259	1	19
567.429	1	7
567.599	1	4
567.768	1	3
567.938	1	16
568.108	1	14
568.278	1	17
568.448	1	5
568.618	1	15
568.788	1	13
568.958	1	11
569.128	1	10
569.297	1	13
569.467	1	4
569.637	1	19
569.807	1	11
569.977	1	12
570.147	1	12
570.317	1	5
570.487	1	18
570.656	1	27
570.826	1	5
570.996	1	17
571.166	1	21
571.336	1	18
571.506	1	15
571.676	1	4
571.846	1	11
572.015	1	10
572.185	1	15
572.355	1	13
572.525	1	10
572.695	1	15
572.865	1	8
573.035	1	10
573.205	1	12
573.374	1	8
573.544	1	9
573.714	1	12
573.884	1	17
574.054	1	14
574.224	1	0
574.394	1	10
574.563	1	1
574.733	1	10
574.903	1	9
575.073	1	2
575.243	1	13
575.413	1	17
575.583	1	12
575.752	1	18
575.922	1	7
576.092	1	17
576.262	1	5
576.432	1	18
576.602	1	3
576.772	1	23
576.941	1	21
577.111	1	1
577.281	1	2
577.451	1	1
577.621	1	19
577.791	1	10
577.960	1	3
578.130	1	13
578.300	1	11
578.470	1	15
578.640	1	7
578.810	1	5
578.979	1	13
579.149	1	10
579.319	1	8
579.489	1	10
579.659	1	15
579.829	1	7
579.998	1	18
580.168	1	21
580.338	1	11
580.508	1	5
580.678	1	14
580.848	1	2
581.017	1	10
581.187	1	11
581.357	1	6
581.527	1	23
581.697	1	19
581.867	1	19
582.036	1	15
582.206	1	16
582.376	1	22
582.546	1	6
582.716	1	2
582.885	1	-1
583.055	1	9
583.225	1	5
583.395	1	23
583.565	1	-1
583.735	1	18
583.904	1	13
584.074	1	14
584.244	1	11
584.414	1	3
584.584	1	6
584.753	1	13
584.923	1	11
585.093	1	18
585.263	1	6
585.433	1	8
585.602	1	9
585.772	1	10
585.942	1	11
586.112	1	13
586.282	1	19
586.451	1	6
586.621	1	7
586.791	1	13
586.961	1	11
587.131	1	11
587.300	1	7
587.470	1	14
587.640	1	22
587.810	1	-1
587.980	1	14
588.149	1	10
588.319	1	9
588.489	1	14
588.659	1	6
588.829	1	11
588.998	1	16
589.168	1	15
589.338	1	7
589.508	1	10
589.677	1	4
589.847	1	12
590.017	1	23
590.187	1	-2
590.357	1	19
590.526	1	21
590.696	1	13
590.866	1	17
591.036	1	10
591.205	1	16
591.375	1	8
591.545	1	10
591.715	1	6
591.885	1	2
592.054	1	13
592.224	1	9
592.394	1	11
592.564	1	8
592.733	1	13
592.903	1	11
593.073	1	11
593.243	1	13
593.412	1	12
593.582	1	6
593.752	1	6
593.922	1	9
594.091	1	9
594.261	1	9
594.431	1	2
594.601	1	12
594.771	1	14
594.940	1	20
595.110	1	6
595.280	1	15
595.450	1	0
595.619	1	7
595.789	1	11
595.959	1	16
596.129	1	11
596.298	1	8
596.468	1	12
596.638	1	25
596.808	1	11
596.977	1	3
597.147	1	6
597.317	1	-1
597.487	1	17
597.656	1	20
597.826	1	11
597.996	1	9
598.166	1	14
598.335	1	5
598.505	1	3
598.675	1	6
598.844	1	2
599.014	1	9
599.184	1	19
599.354	1	5
599.523	1	12
599.693	1	5
599.863	1	20
600.033	1	16
600.202	1	15
600.372	1	18
600.542	1	24
600.712	1	6
600.881	1	3
601.051	1	29
601.221	1	20
601.390	1	1
601.560	1	13
601.730	1	19
601.900	1	8
602.069	1	14
602.239	1	6
602.409	1	-4
602.578	1	23
602.748	1	4
602.918	1	24
603.088	1	25
603.257	1	17
603.427	1	2
603.597	1	13
603.767	1	12
603.936	1	18
604.106	1	9
604.276	1	9
604.445	1	21
604.615	1	16
604.785	1	11
604.954	1	10
605.124	1	19
605.294	1	17
605.464	1	2
605.633	1	16
605.803	1	12
605.973	1	14
606.142	1	18
606.312	1	21
606.482	1	17
606.652	1	28
606.821	1	7
606.991	1	17
607.161	1	14
607.330	1	9
607.500	1	15
607.670	1	6
607.839	1	16
608.009	1	20
608.179	1	19
608.348	1	12
608.518	1	1
608.688	1	22
608.858	1	10
609.027	1	5
609.197	1	19
609.367	1	22
609.536	1	12
609.706	1	12
609.876	1	12
610.045	1	7
610.215	1	19
610.385	1	17
610.554	1	13
610.724	1	20
610.894	1	14
611.063	1	15
611.233	1	9
611.403	1	13
611.572	1	8
611.742	1	11
611.912	1	12
612.081	1	16
612.251	1	25
612.421	1	7
612.590	1	16
612.760	1	5
612.930	1	20
613.099	1	9
613.269	1	17
613.439	1	10
613.608	1	17
613.778	1	10
613.948	1	18
614.117	1	11
614.287	1	21
614.457	1	18
614.626	1	18
614.796	1	14
614.966	1	12
615.135	1	17
615.305	1	25
615.475	1	20
615.644	1	16
615.814	1	23
615.984	1	11
616.153	1	12
616.323	1	12
616.493	1	17
616.662	1	25
616.832	1	17
617.002	1	16
617.171	1	17
617.341	1	14
617.511	1	3
617.680	1	15
617.850	1	15
618.019	1	17
618.189	1	18
618.359	1	14
618.528	1	12
618.698	1	19
618.868	1	14
619.037	1	14
619.207	1	12
619.377	1	18
619.546	1	15
619.716	1	16
619.885	1	13
620.055	1	4
620.225	1	15
620.394	1	8
620.564	1	21
620.734	1	15
620.903	1	8
621.073	1	31
621.242	1	18
621.412	1	27
621.582	1	11
621.751	1	23
621.921	1	12
622.091	1	0
622.260	1	20
622.430	1	26
622.599	1	15
622.769	1	20
622.939	1	17
623.108	1	20
623.278	1	15
623.448	1	5
623.617	1	11
623.787	1	13
623.956	1	25
624.126	1	11
624.296	1	9
624.465	1	22
624.635	1	21
624.804	1	13
624.974	1	14
625.144	1	18
625.313	1	16
625.483	1	9
625.652	1	10
625.822	1	21
625.992	1	8
626.161	1	13
626.331	1	17
626.501	1	17
626.670	1	16
626.840	1	15
627.009	1	14
627.179	1	21
627.348	1	23
627.518	1	25
627.688	1	20
627.857	1	25
628.027	1	8
628.196	1	23
628.366	1	21
628.536	1	23
628.705	1	18
628.875	1	19
629.044	1	10
629.214	1	20
629.384	1	19
629.553	1	26
629.723	1	31
629.892	1	25
630.062	1	16
630.232	1	28
630.401	1	25
630.571	1	28
630.740	1	30
630.910	1	24
631.079	1	12
631.249	1	21
631.419	1	21
631.588	1	9
631.758	1	25
631.927	1	14
632.097	1	26
632.266	1	13
632.436	1	25
632.606	1	10
632.775	1	24
632.945	1	18
633.114	1	24
633.284	1	18
633.453	1	17
633.623	1	17
633.793	1	25
633.962	1	18
634.132	1	18
634.301	1	18
634.471	1	22
634.640	1	27
634.810	1	25
634.979	1	25
635.149	1	23
635.319	1	19
635.488	1	20
635.658	1	23
635.827	1	22
635.997	1	10
636.166	1	26
636.336	1	11
636.505	1	27
636.675	1	11
636.845	1	26
637.014	1	29
637.184	1	20
637.353	1	35
637.523	1	25
637.692	1	23
637.862	1	17
638.031	1	20
638.201	1	27
638.370	1	23
638.540	1	23
638.710	1	15
638.879	1	17
639.049	1	17
639.218	1	17
639.388	1	24
639.557	1	19
639.727	1	25
639.896	1	23
640.066	1	28
640.235	1	25
640.405	1	26
640.574	1	26
640.744	1	12
640.914	1	20
641.083	1	16
641.253	1	24
641.422	1	28
641.592	1	32
641.761	1	14
641.931	1	15
642.100	1	40
642.270	1	10
642.439	1	24
642.609	1	27
642.778	1	22
642.948	1	21
643.117	1	34
643.287	1	30
643.456	1	17
643.626	1	29
643.795	1	27
643.965	1	27
644.134	1	21
644.304	1	24
644.473	1	23
644.643	1	32
644.812	1	23
644.982	1	30
645.151	1	26
645.321	1	16
645.490	1	22
645.660	1	21
645.829	1	23
645.999	1	15
646.168	1	23
646.338	1	31
646.507	1	16
646.677	1	28
646.846	1	27
647.016	1	15
647.185	1	27
647.355	1	2
647.524	1	35
647.694	1	31
647.863	1	27
648.033	1	21
648.202	1	36
648.372	1	18
648.541	1	24
648.711	1	24
648.880	1	20
649.050	1	14
649.219	1	16
649.389	1	30
649.558	1	20
649.728	1	27
649.897	1	25
650.067	1	32
650.236	1	27
650.406	1	36
650.575	1	27
650.745	1	22
650.914	1	34
651.084	1	13
651.253	1	26
651.423	1	29
651.592	1	27
651.762	1	23
651.931	1	40
652.101	1	30
652.270	1	33
652.440	1	23
652.609	1	12
652.778	1	16
652.948	1	32
653.117	1	24
653.287	1	22
653.456	1	33
653.626	1	36
653.795	1	23
653.965	1	40
654.134	1	38
654.304	1	6
654.473	1	33
654.643	1	32
654.812	1	24
654.982	1	22
655.151	1	17
655.320	1	24
655.490	1	29
655.659	1	31
655.829	1	30
655.998	1	26
656.168	1	25
656.337	1	27
656.507	1	23
656.676	1	35
656.846	1	31
657.015	1	18
657.184	1	28
657.354	1	27
657.523	1	22
657.693	1	30
657.862	1	31
658.032	1	35
658.201	1	27
658.371	1	29
658.540	1	37
658.709	1	28
658.879	1	26
659.048	1	31
659.218	1	31
659.387	1	30
659.557	1	37
659.726	1	37
659.895	1	22
660.065	1	28
660.234	1	29
660.404	1	27
660.573	1	32
660.743	1	20
660.912	1	20
661.081	1	44
661.251	1	19
661.420	1	27
661.590	1	30
661.759	1	32
661.929	1	29
662.098	1	39
662.267	1	26
662.437	1	34
662.606	1	35
662.776	1	28
662.945	1	25
663.115	1	35
663.284	1	24
663.453	1	37
663.623	1	32
663.792	1	33
663.962	1	29
664.131	1	40
664.300	1	39
664.470	1	37
664.639	1	34
664.809	1	43
664.978	1	37
665.148	1	31
665.317	1	31
665.486	1	45
665.656	1	17
665.825	1	40
665.995	1	32
666.164	1	27
666.333	1	36
666.503	1	40
666.672	1	20
666.842	1	32
667.011	1	34
667.180	1	35
667.350	1	36
667.519	1	50
667.689	1	33
667.858	1	39
668.027	1	48
668.197	1	35
668.366	1	25
668.536	1	39
668.705	1	33
668.874	1	33
669.044	1	32
669.213	1	39
669.382	1	30
669.552	1	39
669.721	1	36
669.891	1	47
670.060	1	43
670.229	1	42
670.399	1	30
670.568	1	43
670.738	1	36
670.907	1	25
671.076	1	23
671.246	1	27
671.415	1	39
671.584	1	34
671.754	1	25
671.923	1	34
672.093	1	34
672.262	1	25
672.431	1	37
672.601	1	34
672.770	1	31
672.939	1	35
673.109	1	31
673.278	1	35
673.448	1	32
673.617	1	29
673.786	1	33
