325.333	1	25
325.504	1	37
325.675	1	49
325.846	1	33
326.017	1	25
326.188	1	44
326.359	1	29
326.531	1	26
326.702	1	34
326.873	1	42
327.044	1	38
327.215	1	31
327.386	1	37
327.557	1	44
327.728	1	43
327.899	1	40
328.070	1	54
328.241	1	49
328.412	1	23
328.583	1	47
328.754	1	33
328.926	1	50
329.097	1	34
329.268	1	55
329.439	1	45
329.610	1	55
329.781	1	39
329.952	1	51
330.123	1	45
330.294	1	47
330.465	1	46
330.636	1	50
330.807	1	42
330.978	1	44
331.149	1	47
331.320	1	55
331.492	1	53
331.663	1	48
331.834	1	53
332.005	1	55
332.176	1	52
332.347	1	58
332.518	1	50
332.689	1	55
332.860	1	58
333.031	1	65
333.202	1	62
333.373	1	49
333.544	1	51
333.715	1	66
333.886	1	57
334.057	1	59
334.228	1	58
334.399	1	55
334.570	1	54
334.741	1	53
334.912	1	67
335.084	1	66
335.255	1	59
335.426	1	55
335.597	1	56
335.768	1	61
335.939	1	62
336.110	1	55
336.281	1	54
336.452	1	56
336.623	1	64
336.794	1	68
336.965	1	72
337.136	1	67
337.307	1	59
337.478	1	66
337.649	1	74
337.820	1	69
337.991	1	66
338.162	1	68
338.333	1	75
338.504	1	68
338.675	1	74
338.846	1	71
339.017	1	67
339.188	1	67
339.359	1	80
339.530	1	78
339.701	1	82
339.872	1	81
340.043	1	67
340.214	1	70
340.385	1	86
340.556	1	69
340.727	1	83
340.898	1	84
341.069	1	81
341.240	1	77
341.411	1	87
341.582	1	89
341.753	1	75
341.924	1	83
342.095	1	82
342.266	1	88
342.437	1	87
342.608	1	84
342.779	1	89
342.950	1	100
343.121	1	92
343.292	1	78
343.463	1	96
343.634	1	93
343.805	1	92
343.976	1	90
344.147	1	93
344.318	1	96
344.489	1	101
344.660	1	107
344.831	1	92
345.002	1	93
345.173	1	100
345.344	1	92
345.515	1	99
345.686	1	102
345.857	1	96
346.028	1	99
346.199	1	102
346.370	1	99
346.541	1	111
346.712	1	92
346.883	1	107
347.054	1	96
347.225	1	111
347.396	1	100
347.567	1	113
347.738	1	101
347.909	1	119
348.080	1	89
348.251	1	118
348.422	1	114
348.593	1	112
348.764	1	111
348.935	1	114
349.106	1	101
349.277	1	122
349.448	1	119
349.619	1	127
349.790	1	119
349.961	1	121
350.132	1	126
350.303	1	111
350.474	1	127
350.645	1	124
350.816	1	129
350.987	1	129
351.157	1	115
351.328	1	126
351.499	1	126
351.670	1	125
351.841	1	124
352.012	1	127
352.183	1	139
352.354	1	138
352.525	1	134
352.696	1	133
352.867	1	121
353.038	1	135
353.209	1	136
353.380	1	120
353.551	1	124
353.722	1	126
353.893	1	131
354.064	1	142
354.235	1	135
354.406	1	129
354.576	1	133
354.747	1	133
354.918	1	144
355.089	1	132
355.260	1	137
355.431	1	132
355.602	1	136
355.773	1	120
355.944	1	138
356.115	1	149
356.286	1	148
356.457	1	139
356.628	1	141
356.799	1	139
356.970	1	133
357.141	1	140
357.311	1	150
357.482	1	142
357.653	1	163
357.824	1	146
357.995	1	152
358.166	1	142
358.337	1	151
358.508	1	156
358.679	1	149
358.850	1	147
359.021	1	148
359.192	1	158
359.363	1	161
359.533	1	148
359.704	1	152
359.875	1	162
360.046	1	156
360.217	1	148
360.388	1	162
360.559	1	162
360.730	1	160
360.901	1	153
361.072	1	164
361.243	1	151
361.414	1	150
361.584	1	170
361.755	1	167
361.926	1	160
362.097	1	162
362.268	1	158
362.439	1	157
362.610	1	167
362.781	1	161
362.952	1	160
363.123	1	163
363.293	1	169
363.464	1	168
363.635	1	160
363.806	1	164
363.977	1	159
364.148	1	160
364.319	1	170
364.490	1	174
364.661	1	151
364.832	1	173
365.002	1	177
365.173	1	174
365.344	1	167
365.515	1	174
365.686	1	166
365.857	1	181
366.028	1	191
366.199	1	153
366.370	1	158
366.540	1	172
366.711	1	160
366.882	1	163
367.053	1	167
367.224	1	171
367.395	1	192
367.566	1	192
367.737	1	173
367.908	1	178
368.078	1	158
368.249	1	176
368.420	1	168
368.591	1	166
368.762	1	180
368.933	1	188
369.104	1	168
369.274	1	182
369.445	1	180
369.616	1	182
369.787	1	177
369.958	1	184
370.129	1	179
370.300	1	191
370.471	1	178
370.641	1	183
370.812	1	176
370.983	1	183
371.154	1	182
371.325	1	203
371.496	1	184
371.667	1	181
371.837	1	168
372.008	1	186
372.179	1	182
372.350	1	198
372.521	1	178
372.692	1	170
372.863	1	191
373.033	1	174
373.204	1	178
373.375	1	180
373.546	1	189
373.717	1	184
373.888	1	196
374.059	1	192
374.229	1	203
374.400	1	194
374.571	1	185
374.742	1	192
374.913	1	191
375.084	1	168
375.254	1	198
375.425	1	195
375.596	1	199
375.767	1	195
375.938	1	201
376.109	1	202
376.279	1	187
376.450	1	202
376.621	1	199
376.792	1	190
376.963	1	196
377.134	1	203
377.304	1	213
377.475	1	193
377.646	1	205
377.817	1	199
377.988	1	199
378.159	1	215
378.329	1	215
378.500	1	197
378.671	1	211
378.842	1	193
379.013	1	203
379.184	1	206
379.354	1	207
379.525	1	192
379.696	1	205
379.867	1	212
380.038	1	206
380.209	1	208
380.379	1	213
380.550	1	198
380.721	1	206
380.892	1	204
381.063	1	202
381.233	1	212
381.404	1	209
381.575	1	218
381.746	1	214
381.917	1	200
382.087	1	218
382.258	1	215
382.429	1	205
382.600	1	217
382.771	1	223
382.941	1	206
383.112	1	224
383.283	1	224
383.454	1	229
383.625	1	215
383.795	1	212
383.966	1	223
384.137	1	224
384.308	1	229
384.479	1	235
384.649	1	225
384.820	1	220
384.991	1	219
385.162	1	233
385.333	1	224
385.503	1	225
385.674	1	221
385.845	1	241
386.016	1	242
386.187	1	233
386.357	1	239
386.528	1	253
386.699	1	225
386.870	1	239
387.041	1	234
387.211	1	228
387.382	1	240
387.553	1	239
387.724	1	239
387.894	1	252
388.065	1	249
388.236	1	240
388.407	1	229
388.578	1	220
388.748	1	233
388.919	1	259
389.090	1	232
389.261	1	253
389.431	1	254
389.602	1	239
389.773	1	234
389.944	1	226
390.114	1	247
390.285	1	237
390.456	1	259
390.627	1	225
390.798	1	228
390.968	1	228
391.139	1	249
391.310	1	236
391.481	1	247
391.651	1	246
391.822	1	232
391.993	1	229
392.164	1	245
392.334	1	238
392.505	1	235
392.676	1	244
392.847	1	242
393.017	1	250
393.188	1	246
393.359	1	225
393.530	1	252
393.700	1	239
393.871	1	243
394.042	1	240
394.213	1	242
394.383	1	231
394.554	1	237
394.725	1	259
394.896	1	247
395.066	1	240
395.237	1	236
395.408	1	235
395.579	1	246
395.749	1	256
395.920	1	247
396.091	1	255
396.262	1	273
396.432	1	244
396.603	1	263
396.774	1	273
396.945	1	242
397.115	1	260
397.286	1	257
397.457	1	242
397.627	1	259
397.798	1	262
397.969	1	250
398.140	1	241
398.310	1	245
398.481	1	257
398.652	1	254
398.823	1	249
398.993	1	256
399.164	1	256
399.335	1	264
399.505	1	268
399.676	1	250
399.847	1	257
400.018	1	250
400.188	1	257
400.359	1	252
400.530	1	251
400.700	1	269
400.871	1	254
401.042	1	266
401.213	1	250
401.383	1	263
401.554	1	261
401.725	1	259
401.895	1	246
402.066	1	265
402.237	1	279
402.408	1	264
402.578	1	261
402.749	1	261
402.920	1	259
403.090	1	243
403.261	1	255
403.432	1	261
403.603	1	273
403.773	1	272
403.944	1	250
404.115	1	256
404.285	1	263
404.456	1	261
404.627	1	253
404.797	1	244
404.968	1	254
405.139	1	265
405.310	1	264
405.480	1	255
405.651	1	258
405.822	1	269
405.992	1	259
406.163	1	249
406.334	1	265
406.504	1	257
406.675	1	265
406.846	1	267
407.016	1	265
407.187	1	265
407.358	1	266
407.528	1	259
407.699	1	257
407.870	1	266
408.041	1	277
408.211	1	290
408.382	1	267
408.553	1	268
408.723	1	269
408.894	1	281
409.065	1	272
409.235	1	270
409.406	1	255
409.577	1	273
409.747	1	281
409.918	1	269
410.089	1	276
410.259	1	255
410.430	1	268
410.601	1	268
410.771	1	270
410.942	1	286
411.113	1	264
411.283	1	267
411.454	1	276
411.625	1	265
411.795	1	277
411.966	1	267
412.137	1	268
412.307	1	257
412.478	1	256
412.649	1	253
412.819	1	259
412.990	1	263
413.161	1	259
413.331	1	254
413.502	1	259
413.672	1	253
413.843	1	263
414.014	1	255
414.184	1	274
414.355	1	252
414.526	1	260
414.696	1	261
414.867	1	265
415.038	1	233
415.208	1	253
415.379	1	258
415.550	1	251
415.720	1	251
415.891	1	258
416.062	1	253
416.232	1	258
416.403	1	249
416.573	1	259
416.744	1	248
416.915	1	257
417.085	1	269
417.256	1	252
417.427	1	257
417.597	1	262
417.768	1	241
417.939	1	256
418.109	1	257
418.280	1	258
418.450	1	266
418.621	1	243
418.792	1	244
418.962	1	244
419.133	1	272
419.304	1	269
419.474	1	253
419.645	1	260
419.815	1	254
419.986	1	252
420.157	1	254
420.327	1	250
420.498	1	250
420.669	1	237
420.839	1	258
421.010	1	264
421.180	1	248
421.351	1	250
421.522	1	251
421.692	1	253
421.863	1	243
422.033	1	262
422.204	1	248
422.375	1	248
422.545	1	253
422.716	1	234
422.886	1	228
423.057	1	257
423.228	1	239
423.398	1	242
423.569	1	241
423.740	1	238
423.910	1	242
424.081	1	235
424.251	1	241
424.422	1	244
424.593	1	231
424.763	1	246
424.934	1	229
425.104	1	233
425.275	1	235
425.445	1	245
425.616	1	221
425.787	1	229
425.957	1	230
426.128	1	227
426.298	1	231
426.469	1	223
426.640	1	233
426.810	1	243
426.981	1	228
427.151	1	219
427.322	1	239
427.493	1	231
427.663	1	235
427.834	1	223
428.004	1	226
428.175	1	222
428.345	1	221
428.516	1	228
428.687	1	225
428.857	1	224
429.028	1	221
429.198	1	245
429.369	1	238
429.540	1	227
429.710	1	223
429.881	1	229
430.051	1	227
430.222	1	227
430.392	1	238
430.563	1	222
430.734	1	231
430.904	1	238
431.075	1	233
431.245	1	218
431.416	1	244
431.586	1	227
431.757	1	228
431.927	1	212
432.098	1	229
432.269	1	228
432.439	1	224
432.610	1	234
432.780	1	229
432.951	1	223
433.121	1	233
433.292	1	234
433.462	1	231
433.633	1	232
433.804	1	230
433.974	1	228
434.145	1	234
434.315	1	230
434.486	1	217
434.656	1	230
434.827	1	225
434.997	1	208
435.168	1	231
435.339	1	226
435.509	1	223
435.680	1	236
435.850	1	226
436.021	1	229
436.191	1	218
436.362	1	228
436.532	1	218
436.703	1	221
436.873	1	222
437.044	1	204
437.214	1	220
437.385	1	221
437.556	1	209
437.726	1	221
437.897	1	221
438.067	1	225
438.238	1	214
438.408	1	219
438.579	1	221
438.749	1	209
438.920	1	196
439.090	1	215
439.261	1	186
439.431	1	197
439.602	1	205
439.772	1	207
439.943	1	204
440.113	1	203
440.284	1	209
440.455	1	201
440.625	1	205
440.796	1	201
440.966	1	200
441.137	1	196
441.307	1	205
441.478	1	204
441.648	1	208
441.819	1	183
441.989	1	192
442.160	1	197
442.330	1	198
442.501	1	197
442.671	1	184
442.842	1	185
443.012	1	183
443.183	1	214
443.353	1	186
443.524	1	197
443.694	1	209
443.865	1	201
444.035	1	205
444.206	1	188
444.376	1	188
444.547	1	212
444.717	1	192
444.888	1	181
445.058	1	188
445.229	1	205
445.399	1	187
445.570	1	201
445.740	1	192
445.911	1	184
446.081	1	187
446.252	1	189
446.422	1	189
446.593	1	184
446.763	1	197
446.934	1	197
447.104	1	188
447.275	1	188
447.445	1	187
447.616	1	197
447.786	1	185
447.957	1	196
448.127	1	188
448.298	1	190
448.468	1	182
448.639	1	186
448.809	1	191
448.979	1	182
449.150	1	198
449.320	1	195
449.491	1	194
449.661	1	185
449.832	1	171
450.002	1	186
450.173	1	180
450.343	1	191
450.514	1	186
450.684	1	178
450.855	1	183
451.025	1	187
451.196	1	186
451.366	1	175
451.537	1	178
451.707	1	165
451.878	1	176
452.048	1	170
452.218	1	182
452.389	1	182
452.559	1	183
452.730	1	188
452.900	1	188
453.071	1	161
453.241	1	170
453.412	1	158
453.582	1	159
453.753	1	168
453.923	1	175
454.093	1	181
454.264	1	172
454.434	1	159
454.605	1	182
454.775	1	166
454.946	1	165
455.116	1	170
455.287	1	149
455.457	1	161
455.628	1	144
455.798	1	159
455.968	1	167
456.139	1	155
456.309	1	155
456.480	1	149
456.650	1	140
456.821	1	143
456.991	1	157
457.161	1	166
457.332	1	159
457.502	1	142
457.673	1	161
457.843	1	151
458.014	1	147
458.184	1	145
458.355	1	161
458.525	1	155
458.695	1	147
458.866	1	148
459.036	1	147
459.207	1	157
459.377	1	140
459.548	1	149
459.718	1	149
459.888	1	146
460.059	1	172
460.229	1	154
460.400	1	156
460.570	1	141
460.740	1	140
460.911	1	161
461.081	1	146
461.252	1	141
461.422	1	148
461.593	1	154
461.763	1	154
461.933	1	151
462.104	1	131
462.274	1	148
462.445	1	149
462.615	1	144
462.785	1	142
462.956	1	140
463.126	1	138
463.297	1	136
463.467	1	144
463.638	1	141
463.808	1	136
463.978	1	132
464.149	1	135
464.319	1	144
464.490	1	159
464.660	1	142
464.830	1	128
465.001	1	131
465.171	1	132
465.342	1	139
465.512	1	121
465.682	1	130
465.853	1	149
466.023	1	133
466.194	1	136
466.364	1	140
466.534	1	131
466.705	1	128
466.875	1	137
467.045	1	134
467.216	1	145
467.386	1	121
467.557	1	121
467.727	1	128
467.897	1	122
468.068	1	128
468.238	1	131
468.409	1	120
468.579	1	135
468.749	1	126
468.920	1	115
469.090	1	126
469.260	1	123
469.431	1	119
469.601	1	123
469.772	1	123
469.942	1	120
470.112	1	122
470.283	1	125
470.453	1	120
470.623	1	119
470.794	1	112
470.964	1	114
471.135	1	123
471.305	1	113
471.475	1	133
471.646	1	113
471.816	1	124
471.986	1	122
472.157	1	125
472.327	1	105
472.497	1	121
472.668	1	114
472.838	1	130
473.009	1	118
473.179	1	110
473.349	1	113
473.520	1	134
473.690	1	120
473.860	1	110
474.031	1	118
474.201	1	120
474.371	1	121
474.542	1	108
474.712	1	117
474.882	1	128
475.053	1	126
475.223	1	112
475.394	1	115
475.564	1	113
475.734	1	118
475.905	1	131
476.075	1	117
476.245	1	116
476.416	1	119
476.586	1	123
476.756	1	110
476.927	1	128
477.097	1	111
477.267	1	99
477.438	1	115
477.608	1	111
477.778	1	114
477.949	1	113
478.119	1	124
478.289	1	116
478.460	1	119
478.630	1	112
478.800	1	108
478.971	1	110
479.141	1	113
479.311	1	104
479.482	1	109
479.652	1	108
479.822	1	97
479.993	1	111
480.163	1	116
480.333	1	111
480.504	1	107
480.674	1	112
480.844	1	103
481.015	1	111
481.185	1	99
481.355	1	115
481.525	1	94
481.696	1	101
481.866	1	105
482.036	1	106
482.207	1	100
482.377	1	106
482.547	1	119
482.718	1	103
482.888	1	99
483.058	1	93
483.229	1	105
483.399	1	89
483.569	1	102
483.740	1	104
483.910	1	103
484.080	1	98
484.250	1	111
484.421	1	99
484.591	1	95
484.761	1	108
484.932	1	105
485.102	1	107
485.272	1	96
485.443	1	104
485.613	1	94
485.783	1	78
485.953	1	102
486.124	1	94
486.294	1	105
486.464	1	95
486.635	1	87
486.805	1	97
486.975	1	83
487.146	1	92
487.316	1	86
487.486	1	88
487.656	1	89
487.827	1	88
487.997	1	82
488.167	1	86
488.338	1	103
488.508	1	90
488.678	1	90
488.848	1	100
489.019	1	83
489.189	1	96
489.359	1	93
489.529	1	90
489.700	1	82
489.870	1	99
490.040	1	73
490.211	1	84
490.381	1	103
490.551	1	86
490.721	1	88
490.892	1	84
491.062	1	88
491.232	1	81
491.402	1	78
491.573	1	81
491.743	1	84
491.913	1	81
492.084	1	92
492.254	1	78
492.424	1	82
492.594	1	84
492.765	1	78
492.935	1	77
493.105	1	92
493.275	1	77
493.446	1	95
493.616	1	81
493.786	1	80
493.956	1	71
494.127	1	85
494.297	1	76
494.467	1	85
494.637	1	79
494.808	1	81
494.978	1	74
495.148	1	75
495.318	1	73
495.489	1	83
495.659	1	82
495.829	1	69
495.999	1	76
496.170	1	86
496.340	1	92
496.510	1	71
496.680	1	79
496.851	1	84
497.021	1	86
497.191	1	66
497.361	1	78
497.532	1	76
497.702	1	79
497.872	1	75
498.042	1	76
498.213	1	79
498.383	1	71
498.553	1	78
498.723	1	79
498.894	1	70
499.064	1	67
499.234	1	80
499.404	1	77
499.574	1	86
499.745	1	75
499.915	1	73
500.085	1	72
500.255	1	84
500.426	1	68
500.596	1	76
500.766	1	76
500.936	1	69
501.106	1	64
501.277	1	79
501.447	1	72
501.617	1	74
501.787	1	70
501.958	1	70
502.128	1	72
502.298	1	68
502.468	1	63
502.638	1	73
502.809	1	70
502.979	1	63
503.149	1	72
503.319	1	55
503.489	1	67
503.660	1	69
503.830	1	62
504.000	1	73
504.170	1	69
504.340	1	74
504.511	1	68
504.681	1	61
504.851	1	75
505.021	1	73
505.192	1	61
505.362	1	68
505.532	1	68
505.702	1	71
505.872	1	60
506.043	1	61
506.213	1	54
506.383	1	68
506.553	1	68
506.723	1	61
506.893	1	62
507.064	1	81
507.234	1	58
507.404	1	58
507.574	1	65
507.744	1	59
507.915	1	64
508.085	1	70
508.255	1	63
508.425	1	62
508.595	1	64
508.766	1	70
508.936	1	59
509.106	1	68
509.276	1	64
509.446	1	50
509.616	1	67
509.787	1	64
509.957	1	67
510.127	1	65
510.297	1	65
510.467	1	57
510.638	1	63
510.808	1	49
510.978	1	67
511.148	1	60
511.318	1	55
511.488	1	43
511.659	1	65
511.829	1	53
511.999	1	55
512.169	1	63
512.339	1	63
512.509	1	56
512.680	1	59
512.850	1	62
513.020	1	51
513.190	1	65
513.360	1	62
513.530	1	58
513.700	1	71
513.871	1	49
514.041	1	65
514.211	1	64
514.381	1	61
514.551	1	54
514.721	1	61
514.892	1	59
515.062	1	52
515.232	1	56
515.402	1	44
515.572	1	51
515.742	1	59
515.912	1	64
516.083	1	54
516.253	1	63
516.423	1	54
516.593	1	57
516.763	1	57
516.933	1	53
517.104	1	53
517.274	1	58
517.444	1	56
517.614	1	48
517.784	1	57
517.954	1	54
518.124	1	47
518.294	1	44
518.465	1	50
518.635	1	46
518.805	1	47
518.975	1	59
519.145	1	48
519.315	1	48
519.485	1	49
519.656	1	62
519.826	1	50
519.996	1	37
520.166	1	52
520.336	1	48
520.506	1	44
520.676	1	46
520.846	1	53
521.017	1	58
521.187	1	47
521.357	1	65
521.527	1	38
521.697	1	46
521.867	1	48
522.037	1	54
522.207	1	55
522.377	1	44
522.548	1	52
522.718	1	53
522.888	1	50
523.058	1	42
523.228	1	50
523.398	1	49
523.568	1	45
523.738	1	57
523.909	1	57
524.079	1	47
524.249	1	52
524.419	1	48
524.589	1	55
524.759	1	44
524.929	1	34
525.099	1	54
525.269	1	53
525.439	1	44
525.610	1	58
525.780	1	53
525.950	1	49
526.120	1	41
526.290	1	52
526.460	1	34
526.630	1	48
526.800	1	45
526.970	1	44
527.140	1	50
527.311	1	38
527.481	1	42
527.651	1	44
527.821	1	39
527.991	1	56
528.161	1	57
528.331	1	48
528.501	1	48
528.671	1	42
528.841	1	43
529.011	1	49
529.181	1	38
529.352	1	45
529.522	1	36
529.692	1	45
529.862	1	44
530.032	1	38
530.202	1	37
530.372	1	44
530.542	1	42
530.712	1	39
530.882	1	43
531.052	1	33
531.222	1	44
531.392	1	43
531.563	1	42
531.733	1	36
531.903	1	28
532.073	1	49
532.243	1	36
532.413	1	22
532.583	1	37
532.753	1	47
532.923	1	31
533.093	1	46
533.263	1	53
533.433	1	46
533.603	1	44
533.773	1	28
533.943	1	50
534.113	1	42
534.284	1	41
534.454	1	46
534.624	1	52
534.794	1	36
534.964	1	46
535.134	1	34
535.304	1	42
535.474	1	51
535.644	1	36
535.814	1	39
535.984	1	30
536.154	1	33
536.324	1	39
536.494	1	39
536.664	1	40
536.834	1	44
537.004	1	44
537.174	1	44
537.344	1	36
537.514	1	32
537.685	1	30
537.855	1	33
538.025	1	39
538.195	1	42
538.365	1	40
538.535	1	39
538.705	1	40
538.875	1	39
539.045	1	38
539.215	1	46
539.385	1	31
539.555	1	41
539.725	1	40
539.895	1	24
540.065	1	51
540.235	1	47
540.405	1	26
540.575	1	42
540.745	1	38
540.915	1	42
541.085	1	36
541.255	1	35
541.425	1	39
541.595	1	37
541.765	1	39
541.935	1	30
542.105	1	23
542.275	1	31
542.445	1	26
542.615	1	34
542.785	1	41
542.955	1	34
543.125	1	26
543.295	1	32
543.465	1	39
543.635	1	37
543.805	1	32
543.975	1	37
544.145	1	37
544.315	1	34
544.485	1	41
544.655	1	44
544.825	1	23
544.995	1	34
545.165	1	27
545.335	1	31
545.505	1	23
545.675	1	47
545.845	1	34
546.015	1	32
546.185	1	38
546.355	1	45
546.525	1	24
546.695	1	34
546.865	1	31
547.035	1	34
547.205	1	22
547.375	1	36
547.545	1	51
547.715	1	31
547.885	1	31
548.055	1	27
548.225	1	32
548.395	1	17
548.565	1	39
548.735	1	36
548.905	1	24
549.075	1	37
549.245	1	32
549.415	1	21
549.585	1	34
549.755	1	34
549.925	1	26
550.095	1	42
550.265	1	29
550.435	1	23
550.605	1	32
550.775	1	39
550.945	1	29
551.115	1	32
551.285	1	28
551.455	1	21
551.625	1	41
551.795	1	34
551.965	1	20
552.135	1	26
552.305	1	35
552.475	1	19
552.645	1	15
552.815	1	35
552.985	1	30
553.155	1	33
553.325	1	39
553.495	1	28
553.665	1	23
553.835	1	26
554.004	1	32
554.174	1	25
554.344	1	29
554.514	1	35
554.684	1	35
554.854	1	35
555.024	1	23
555.194	1	27
555.364	1	30
555.534	1	25
555.704	1	31
555.874	1	28
556.044	1	28
556.214	1	34
556.384	1	29
556.554	1	32
556.724	1	36
556.894	1	24
557.064	1	22
557.234	1	19
557.404	1	31
557.573	1	22
557.743	1	13
557.913	1	11
558.083	1	20
558.253	1	31
558.423	1	20
558.593	1	33
558.763	1	20
558.933	1	24
559.103	1	32
559.273	1	25
559.443	1	32
559.613	1	25
559.783	1	22
559.953	1	25
560.122	1	26
560.292	1	27
560.462	1	26
560.632	1	28
560.802	1	31
560.972	1	26
561.142	1	29
561.312	1	20
561.482	1	20
561.652	1	33
561.822	1	22
561.992	1	20
562.162	1	24
562.331	1	27
562.501	1	24
562.671	1	17
562.841	1	16
563.011	1	41
563.181	1	15
563.351	1	13
563.521	1	28
563.691	1	21
563.861	1	18
564.031	1	21
564.201	1	27
564.370	1	8
564.540	1	26
564.710	1	20
564.880	1	36
565.050	1	19
565.220	1	5
565.390	1	29
565.560	1	26
565.730	1	11
565.900	1	16
566.069	1	39
566.239	1	34
566.409	1	33
566.579	1	31
566.749	1	29
566.919	1	31
567.089	1	14
567.259	1	28
567.429	1	27
567.599	1	11
567.768	1	21
567.938	1	26
568.108	1	18
568.278	1	25
568.448	1	15
568.618	1	18
568.788	1	16
568.958	1	28
569.128	1	21
569.297	1	20
569.467	1	12
569.637	1	25
569.807	1	17
569.977	1	28
570.147	1	34
570.317	1	9
570.487	1	18
570.656	1	25
570.826	1	19
570.996	1	14
571.166	1	31
571.336	1	9
571.506	1	25
571.676	1	22
571.846	1	18
572.015	1	17
572.185	1	15
572.355	1	17
572.525	1	23
572.695	1	15
572.865	1	9
573.035	1	15
573.205	1	17
573.374	1	9
573.544	1	23
573.714	1	25
573.884	1	27
574.054	1	23
574.224	1	21
574.394	1	14
574.563	1	17
574.733	1	12
574.903	1	18
575.073	1	19
575.243	1	20
575.413	1	21
575.583	1	21
575.752	1	23
575.922	1	19
576.092	1	19
576.262	1	25
576.432	1	19
576.602	1	17
576.772	1	31
576.941	1	22
577.111	1	11
577.281	1	3
577.451	1	18
577.621	1	29
577.791	1	20
577.960	1	9
578.130	1	17
578.300	1	24
578.470	1	33
578.640	1	26
578.810	1	20
578.979	1	19
579.149	1	12
579.319	1	16
579.489	1	16
579.659	1	17
579.829	1	12
579.998	1	21
580.168	1	22
580.338	1	22
580.508	1	19
580.678	1	22
580.848	1	17
581.017	1	20
581.187	1	18
581.357	1	6
581.527	1	18
581.697	1	27
581.867	1	20
582.036	1	24
582.206	1	18
582.376	1	27
582.546	1	8
582.716	1	19
582.885	1	22
583.055	1	23
583.225	1	8
583.395	1	16
583.565	1	15
583.735	1	24
583.904	1	18
584.074	1	21
584.244	1	20
584.414	1	20
584.584	1	33
584.753	1	15
584.923	1	16
585.093	1	14
585.263	1	15
585.433	1	20
585.602	1	16
585.772	1	11
585.942	1	19
586.112	1	23
586.282	1	14
586.451	1	12
586.621	1	20
586.791	1	15
586.961	1	18
587.131	1	19
587.300	1	12
587.470	1	26
587.640	1	28
587.810	1	7
587.980	1	19
588.149	1	17
588.319	1	12
588.489	1	15
588.659	1	22
588.829	1	14
588.998	1	30
589.168	1	25
589.338	1	15
589.508	1	18
589.677	1	2
589.847	1	5
590.017	1	34
590.187	1	4
590.357	1	21
590.526	1	32
590.696	1	26
590.866	1	23
591.036	1	22
591.205	1	38
591.375	1	16
591.545	1	19
591.715	1	19
591.885	1	16
592.054	1	20
592.224	1	17
592.394	1	13
592.564	1	14
592.733	1	18
592.903	1	24
593.073	1	17
593.243	1	29
593.412	1	23
593.582	1	28
593.752	1	10
593.922	1	18
594.091	1	21
594.261	1	17
594.431	1	19
594.601	1	23
594.771	1	22
594.940	1	22
595.110	1	21
595.280	1	19
595.450	1	16
595.619	1	10
595.789	1	27
595.959	1	22
596.129	1	6
596.298	1	19
596.468	1	22
596.638	1	25
596.808	1	19
596.977	1	22
597.147	1	18
597.317	1	16
597.487	1	21
597.656	1	17
597.826	1	17
597.996	1	23
598.166	1	22
598.335	1	6
598.505	1	20
598.675	1	14
598.844	1	18
599.014	1	17
599.184	1	22
599.354	1	18
599.523	1	23
599.693	1	19
599.863	1	28
600.033	1	22
600.202	1	17
600.372	1	23
600.542	1	32
600.712	1	10
600.881	1	15
601.051	1	26
601.221	1	19
601.390	1	26
601.560	1	20
601.730	1	23
601.900	1	26
602.069	1	26
602.239	1	13
602.409	1	10
602.578	1	20
602.748	1	18
602.918	1	30
603.088	1	20
603.257	1	24
603.427	1	17
603.597	1	23
603.767	1	6
603.936	1	30
604.106	1	19
604.276	1	16
604.445	1	18
604.615	1	17
604.785	1	20
604.954	1	23
605.124	1	28
605.294	1	25
605.464	1	16
605.633	1	20
605.803	1	28
605.973	1	26
606.142	1	22
606.312	1	22
606.482	1	23
606.652	1	18
606.821	1	14
606.991	1	21
607.161	1	20
607.330	1	27
607.500	1	18
607.670	1	18
607.839	1	16
608.009	1	25
608.179	1	25
608.348	1	26
608.518	1	24
608.688	1	30
608.858	1	8
609.027	1	12
609.197	1	23
609.367	1	19
609.536	1	28
609.706	1	21
609.876	1	19
610.045	1	21
610.215	1	30
610.385	1	23
610.554	1	25
610.724	1	27
610.894	1	21
611.063	1	20
611.233	1	18
611.403	1	21
611.572	1	24
611.742	1	25
611.912	1	20
612.081	1	17
612.251	1	25
612.421	1	14
612.590	1	18
612.760	1	21
612.930	1	32
613.099	1	13
613.269	1	29
613.439	1	27
613.608	1	4
613.778	1	26
613.948	1	21
614.117	1	21
614.287	1	31
614.457	1	28
614.626	1	25
614.796	1	21
614.966	1	18
615.135	1	12
615.305	1	32
615.475	1	18
615.644	1	19
615.814	1	19
615.984	1	23
616.153	1	11
616.323	1	30
616.493	1	20
616.662	1	28
616.832	1	27
617.002	1	14
617.171	1	28
617.341	1	19
617.511	1	22
617.680	1	16
617.850	1	29
618.019	1	36
618.189	1	36
618.359	1	24
618.528	1	21
618.698	1	33
618.868	1	17
619.037	1	19
619.207	1	29
619.377	1	17
619.546	1	14
619.716	1	37
619.885	1	20
620.055	1	14
620.225	1	34
620.394	1	20
620.564	1	31
620.734	1	34
620.903	1	22
621.073	1	34
621.242	1	39
621.412	1	18
621.582	1	22
621.751	1	29
621.921	1	27
622.091	1	28
622.260	1	21
622.430	1	29
622.599	1	18
622.769	1	28
622.939	1	29
623.108	1	31
623.278	1	16
623.448	1	17
623.617	1	34
623.787	1	21
623.956	1	31
624.126	1	28
624.296	1	19
624.465	1	38
624.635	1	28
624.804	1	31
624.974	1	37
625.144	1	31
625.313	1	35
625.483	1	20
625.652	1	30
625.822	1	30
625.992	1	15
626.161	1	35
626.331	1	32
626.501	1	28
626.670	1	27
626.840	1	24
627.009	1	24
627.179	1	29
627.348	1	32
627.518	1	21
627.688	1	25
627.857	1	30
628.027	1	27
628.196	1	30
628.366	1	32
628.536	1	38
628.705	1	27
628.875	1	27
629.044	1	36
629.214	1	29
629.384	1	29
629.553	1	36
629.723	1	28
629.892	1	26
630.062	1	30
630.232	1	37
630.401	1	36
630.571	1	23
630.740	1	29
630.910	1	44
631.079	1	22
631.249	1	30
631.419	1	33
631.588	1	17
631.758	1	36
631.927	1	25
632.097	1	35
632.266	1	31
632.436	1	31
632.606	1	30
632.775	1	32
632.945	1	31
633.114	1	39
633.284	1	29
633.453	1	23
633.623	1	30
633.793	1	37
633.962	1	30
634.132	1	45
634.301	1	31
634.471	1	51
634.640	1	42
634.810	1	43
634.979	1	51
635.149	1	44
635.319	1	33
635.488	1	33
635.658	1	39
635.827	1	32
635.997	1	31
636.166	1	41
636.336	1	33
636.505	1	44
636.675	1	23
636.845	1	38
637.014	1	33
637.184	1	37
637.353	1	43
637.523	1	34
637.692	1	32
637.862	1	33
638.031	1	38
638.201	1	37
638.370	1	39
638.540	1	45
638.710	1	34
638.879	1	21
639.049	1	38
639.218	1	45
639.388	1	37
639.557	1	38
639.727	1	33
639.896	1	35
640.066	1	33
640.235	1	46
640.405	1	44
640.574	1	38
640.744	1	30
640.914	1	40
641.083	1	41
641.253	1	32
641.422	1	39
641.592	1	45
641.761	1	34
641.931	1	39
642.100	1	48
642.270	1	41
642.439	1	45
642.609	1	46
642.778	1	38
642.948	1	37
643.117	1	41
643.287	1	35
643.456	1	27
643.626	1	54
643.795	1	48
643.965	1	43
644.134	1	34
644.304	1	42
644.473	1	41
644.643	1	31
644.812	1	41
644.982	1	48
645.151	1	36
645.321	1	30
645.490	1	44
645.660	1	31
645.829	1	37
645.999	1	47
646.168	1	51
646.338	1	42
646.507	1	42
646.677	1	42
646.846	1	41
647.016	1	29
647.185	1	47
647.355	1	39
647.524	1	56
647.694	1	43
647.863	1	48
648.033	1	47
648.202	1	49
648.372	1	38
648.541	1	33
648.711	1	46
648.880	1	45
649.050	1	34
649.219	1	48
649.389	1	52
649.558	1	39
649.728	1	47
649.897	1	36
650.067	1	44
650.236	1	34
650.406	1	48
650.575	1	51
650.745	1	46
650.914	1	38
651.084	1	36
651.253	1	47
651.423	1	43
651.592	1	40
651.762	1	51
651.931	1	49
652.101	1	46
652.270	1	44
652.440	1	50
652.609	1	39
652.778	1	39
652.948	1	54
653.117	1	50
653.287	1	48
653.456	1	37
653.626	1	45
653.795	1	47
653.965	1	50
654.134	1	50
654.304	1	33
654.473	1	54
654.643	1	48
654.812	1	43
654.982	1	49
655.151	1	39
655.320	1	40
655.490	1	41
655.659	1	45
655.829	1	38
655.998	1	36
656.168	1	41
656.337	1	43
656.507	1	52
656.676	1	52
656.846	1	51
657.015	1	57
657.184	1	53
657.354	1	45
657.523	1	51
657.693	1	55
657.862	1	50
658.032	1	39
658.201	1	57
658.371	1	56
658.540	1	48
658.709	1	41
658.879	1	54
659.048	1	44
659.218	1	42
659.387	1	45
659.557	1	40
659.726	1	53
659.895	1	44
660.065	1	43
660.234	1	51
660.404	1	53
660.573	1	50
660.743	1	47
660.912	1	50
661.081	1	54
661.251	1	48
661.420	1	46
661.590	1	47
661.759	1	53
661.929	1	56
662.098	1	54
662.267	1	51
662.437	1	52
662.606	1	44
662.776	1	46
662.945	1	52
663.115	1	59
663.284	1	46
663.453	1	54
663.623	1	58
663.792	1	60
663.962	1	49
664.131	1	55
664.300	1	60
664.470	1	50
664.639	1	54
664.809	1	48
664.978	1	52
665.148	1	47
665.317	1	58
665.486	1	52
665.656	1	49
665.825	1	53
665.995	1	37
666.164	1	45
666.333	1	54
666.503	1	57
666.672	1	56
666.842	1	39
667.011	1	44
667.180	1	47
667.350	1	43
667.519	1	55
667.689	1	57
667.858	1	53
668.027	1	63
668.197	1	51
668.366	1	38
668.536	1	55
668.705	1	45
668.874	1	47
669.044	1	48
669.213	1	50
669.382	1	35
669.552	1	56
669.721	1	57
669.891	1	60
670.060	1	49
670.229	1	59
670.399	1	48
670.568	1	61
670.738	1	59
670.907	1	40
671.076	1	39
671.246	1	54
671.415	1	63
671.584	1	49
671.754	1	55
671.923	1	52
672.093	1	44
672.262	1	32
672.431	1	55
672.601	1	44
672.770	1	47
672.939	1	46
673.109	1	47
673.278	1	55
673.448	1	57
673.617	1	50
673.786	1	52
