325.333	1	8
325.504	1	4
325.675	1	7
325.846	1	9
326.017	1	-3
326.188	1	4
326.359	1	-2
326.531	1	-13
326.702	1	-5
326.873	1	1
327.044	1	4
327.215	1	3
327.386	1	5
327.557	1	-10
327.728	1	2
327.899	1	12
328.070	1	10
328.241	1	7
328.412	1	-8
328.583	1	3
328.754	1	0
328.926	1	11
329.097	1	6
329.268	1	8
329.439	1	0
329.610	1	0
329.781	1	-4
329.952	1	5
330.123	1	-1
330.294	1	-4
330.465	1	2
330.636	1	11
330.807	1	3
330.978	1	3
331.149	1	6
331.320	1	4
331.492	1	1
331.663	1	1
331.834	1	8
332.005	1	0
332.176	1	19
332.347	1	8
332.518	1	8
332.689	1	11
332.860	1	-5
333.031	1	16
333.202	1	-5
333.373	1	4
333.544	1	9
333.715	1	10
333.886	1	2
334.057	1	4
334.228	1	-3
334.399	1	6
334.570	1	13
334.741	1	-3
334.912	1	-6
335.084	1	22
335.255	1	0
335.426	1	7
335.597	1	5
335.768	1	6
335.939	1	14
336.110	1	2
336.281	1	-5
336.452	1	1
336.623	1	-4
336.794	1	11
336.965	1	0
337.136	1	7
337.307	1	5
337.478	1	-1
337.649	1	9
337.820	1	0
337.991	1	6
338.162	1	4
338.333	1	6
338.504	1	12
338.675	1	-4
338.846	1	8
339.017	1	3
339.188	1	0
339.359	1	-5
339.530	1	8
339.701	1	8
339.872	1	4
340.043	1	2
340.214	1	13
340.385	1	7
340.556	1	-3
340.727	1	17
340.898	1	12
341.069	1	13
341.240	1	-5
341.411	1	8
341.582	1	5
341.753	1	1
341.924	1	5
342.095	1	5
342.266	1	16
342.437	1	7
342.608	1	1
342.779	1	7
342.950	1	10
343.121	1	13
343.292	1	-5
343.463	1	8
343.634	1	-1
343.805	1	14
343.976	1	6
344.147	1	6
344.318	1	14
344.489	1	4
344.660	1	20
344.831	1	3
345.002	1	-7
345.173	1	7
345.344	1	2
345.515	1	6
345.686	1	1
345.857	1	3
346.028	1	8
346.199	1	0
346.370	1	1
346.541	1	2
346.712	1	-1
346.883	1	10
347.054	1	12
347.225	1	5
347.396	1	6
347.567	1	7
347.738	1	-1
347.909	1	16
348.080	1	-2
348.251	1	11
348.422	1	16
348.593	1	4
348.764	1	4
348.935	1	0
349.106	1	10
349.277	1	8
349.448	1	8
349.619	1	15
349.790	1	10
349.961	1	11
350.132	1	15
350.303	1	12
350.474	1	20
350.645	1	5
350.816	1	5
350.987	1	5
351.157	1	5
351.328	1	5
351.499	1	6
351.670	1	3
351.841	1	20
352.012	1	12
352.183	1	18
352.354	1	13
352.525	1	19
352.696	1	15
352.867	1	12
353.038	1	19
353.209	1	8
353.380	1	13
353.551	1	-4
353.722	1	6
353.893	1	8
354.064	1	20
354.235	1	13
354.406	1	6
354.576	1	3
354.747	1	5
354.918	1	9
355.089	1	18
355.260	1	13
355.431	1	12
355.602	1	7
355.773	1	6
355.944	1	13
356.115	1	1
356.286	1	21
356.457	1	15
356.628	1	7
356.799	1	12
356.970	1	22
357.141	1	6
357.311	1	7
357.482	1	2
357.653	1	18
357.824	1	14
357.995	1	6
358.166	1	7
358.337	1	8
358.508	1	16
358.679	1	-1
358.850	1	16
359.021	1	9
359.192	1	17
359.363	1	18
359.533	1	6
359.704	1	11
359.875	1	3
360.046	1	16
360.217	1	9
360.388	1	15
360.559	1	9
360.730	1	20
360.901	1	17
361.072	1	20
361.243	1	14
361.414	1	7
361.584	1	3
361.755	1	18
361.926	1	5
362.097	1	5
362.268	1	11
362.439	1	-1
362.610	1	30
362.781	1	4
362.952	1	-2
363.123	1	3
363.293	1	3
363.464	1	12
363.635	1	11
363.806	1	15
363.977	1	15
364.148	1	19
364.319	1	13
364.490	1	14
364.661	1	11
364.832	1	16
365.002	1	7
365.173	1	12
365.344	1	12
365.515	1	10
365.686	1	15
365.857	1	13
366.028	1	16
366.199	1	3
366.370	1	13
366.540	1	1
366.711	1	-4
366.882	1	6
367.053	1	7
367.224	1	25
367.395	1	9
367.566	1	15
367.737	1	14
367.908	1	18
368.078	1	9
368.249	1	18
368.420	1	9
368.591	1	3
368.762	1	12
368.933	1	10
369.104	1	10
369.274	1	10
369.445	1	16
369.616	1	-1
369.787	1	22
369.958	1	22
370.129	1	1
370.300	1	21
370.471	1	10
370.641	1	14
370.812	1	15
370.983	1	8
371.154	1	1
371.325	1	11
371.496	1	18
371.667	1	22
371.837	1	15
372.008	1	9
372.179	1	5
372.350	1	15
372.521	1	8
372.692	1	6
372.863	1	21
373.033	1	-2
373.204	1	10
373.375	1	16
373.546	1	19
373.717	1	18
373.888	1	15
374.059	1	17
374.229	1	14
374.400	1	11
374.571	1	11
374.742	1	14
374.913	1	18
375.084	1	4
375.254	1	15
375.425	1	20
375.596	1	17
375.767	1	8
375.938	1	16
376.109	1	19
376.279	1	6
376.450	1	11
376.621	1	25
376.792	1	14
376.963	1	14
377.134	1	17
377.304	1	16
377.475	1	10
377.646	1	12
377.817	1	18
377.988	1	15
378.159	1	15
378.329	1	27
378.500	1	14
378.671	1	20
378.842	1	12
379.013	1	3
379.184	1	8
379.354	1	17
379.525	1	11
379.696	1	21
379.867	1	18
380.038	1	12
380.209	1	13
380.379	1	19
380.550	1	7
380.721	1	17
380.892	1	19
381.063	1	21
381.233	1	15
381.404	1	6
381.575	1	14
381.746	1	9
381.917	1	15
382.087	1	17
382.258	1	13
382.429	1	17
382.600	1	24
382.771	1	12
382.941	1	8
383.112	1	16
383.283	1	23
383.454	1	15
383.625	1	11
383.795	1	13
383.966	1	28
384.137	1	34
384.308	1	14
384.479	1	11
384.649	1	23
384.820	1	21
384.991	1	13
385.162	1	15
385.333	1	17
385.503	1	23
385.674	1	-2
385.845	1	30
386.016	1	23
386.187	1	11
386.357	1	24
386.528	1	18
386.699	1	15
386.870	1	30
387.041	1	20
387.211	1	28
387.382	1	24
387.553	1	13
387.724	1	12
387.894	1	23
388.065	1	10
388.236	1	16
388.407	1	18
388.578	1	10
388.748	1	4
388.919	1	35
389.090	1	16
389.261	1	13
389.431	1	22
389.602	1	18
389.773	1	20
389.944	1	13
390.114	1	9
390.285	1	20
390.456	1	6
390.627	1	17
390.798	1	19
390.968	1	15
391.139	1	14
391.310	1	10
391.481	1	23
391.651	1	15
391.822	1	13
391.993	1	21
392.164	1	6
392.334	1	18
392.505	1	3
392.676	1	24
392.847	1	26
393.017	1	18
393.188	1	16
393.359	1	9
393.530	1	22
393.700	1	23
393.871	1	20
394.042	1	23
394.213	1	15
394.383	1	21
394.554	1	20
394.725	1	23
394.896	1	10
395.066	1	26
395.237	1	8
395.408	1	20
395.579	1	19
395.749	1	18
395.920	1	12
396.091	1	17
396.262	1	15
396.432	1	20
396.603	1	25
396.774	1	26
396.945	1	17
397.115	1	14
397.286	1	16
397.457	1	13
397.627	1	23
397.798	1	25
397.969	1	15
398.140	1	12
398.310	1	18
398.481	1	18
398.652	1	15
398.823	1	22
398.993	1	19
399.164	1	18
399.335	1	29
399.505	1	21
399.676	1	11
399.847	1	28
400.018	1	16
400.188	1	16
400.359	1	20
400.530	1	6
400.700	1	21
400.871	1	21
401.042	1	23
401.213	1	11
401.383	1	11
401.554	1	29
401.725	1	23
401.895	1	19
402.066	1	18
402.237	1	30
402.408	1	15
402.578	1	14
402.749	1	23
402.920	1	18
403.090	1	14
403.261	1	9
403.432	1	19
403.603	1	22
403.773	1	34
403.944	1	26
404.115	1	27
404.285	1	31
404.456	1	17
404.627	1	9
404.797	1	8
404.968	1	10
405.139	1	13
405.310	1	26
405.480	1	18
405.651	1	20
405.822	1	12
405.992	1	14
406.163	1	16
406.334	1	1
406.504	1	14
406.675	1	25
406.846	1	11
407.016	1	18
407.187	1	25
407.358	1	10
407.528	1	16
407.699	1	11
407.870	1	18
408.041	1	27
408.211	1	32
408.382	1	12
408.553	1	12
408.723	1	25
408.894	1	22
409.065	1	20
409.235	1	13
409.406	1	23
409.577	1	21
409.747	1	31
409.918	1	23
410.089	1	28
410.259	1	22
410.430	1	22
410.601	1	15
410.771	1	19
410.942	1	30
411.113	1	28
411.283	1	13
411.454	1	28
411.625	1	22
411.795	1	19
411.966	1	24
412.137	1	20
412.307	1	8
412.478	1	19
412.649	1	19
412.819	1	13
412.990	1	10
413.161	1	24
413.331	1	12
413.502	1	22
413.672	1	24
413.843	1	21
414.014	1	29
414.184	1	30
414.355	1	12
414.526	1	31
414.696	1	25
414.867	1	13
415.038	1	-3
415.208	1	18
415.379	1	28
415.550	1	28
415.720	1	16
415.891	1	22
416.062	1	21
416.232	1	21
416.403	1	15
416.573	1	22
416.744	1	19
416.915	1	21
417.085	1	13
417.256	1	19
417.427	1	19
417.597	1	15
417.768	1	20
417.939	1	24
418.109	1	25
418.280	1	34
418.450	1	11
418.621	1	8
418.792	1	14
418.962	1	18
419.133	1	27
419.304	1	17
419.474	1	15
419.645	1	23
419.815	1	14
419.986	1	21
420.157	1	22
420.327	1	22
420.498	1	29
420.669	1	14
420.839	1	26
421.010	1	22
421.180	1	22
421.351	1	17
421.522	1	26
421.692	1	26
421.863	1	15
422.033	1	27
422.204	1	18
422.375	1	15
422.545	1	33
422.716	1	20
422.886	1	18
423.057	1	20
423.228	1	21
423.398	1	17
423.569	1	18
423.740	1	9
423.910	1	10
424.081	1	23
424.251	1	15
424.422	1	18
424.593	1	14
424.763	1	30
424.934	1	18
425.104	1	12
425.275	1	14
425.445	1	14
425.616	1	9
425.787	1	17
425.957	1	27
426.128	1	20
426.298	1	21
426.469	1	16
426.640	1	28
426.810	1	25
426.981	1	15
427.151	1	9
427.322	1	20
427.493	1	14
427.663	1	14
427.834	1	11
428.004	1	25
428.175	1	10
428.345	1	25
428.516	1	12
428.687	1	27
428.857	1	11
429.028	1	14
429.198	1	17
429.369	1	21
429.540	1	15
429.710	1	9
429.881	1	15
430.051	1	15
430.222	1	14
430.392	1	19
430.563	1	26
430.734	1	24
430.904	1	24
431.075	1	24
431.245	1	13
431.416	1	14
431.586	1	19
431.757	1	22
431.927	1	18
432.098	1	17
432.269	1	14
432.439	1	22
432.610	1	14
432.780	1	18
432.951	1	16
433.121	1	18
433.292	1	26
433.462	1	21
433.633	1	24
433.804	1	16
433.974	1	12
434.145	1	33
434.315	1	20
434.486	1	7
434.656	1	22
434.827	1	16
434.997	1	3
435.168	1	23
435.339	1	23
435.509	1	19
435.680	1	15
435.850	1	12
436.021	1	11
436.191	1	14
436.362	1	16
436.532	1	29
436.703	1	16
436.873	1	28
437.044	1	5
437.214	1	19
437.385	1	14
437.556	1	16
437.726	1	34
437.897	1	28
438.067	1	15
438.238	1	10
438.408	1	16
438.579	1	17
438.749	1	14
438.920	1	14
439.090	1	22
439.261	1	10
439.431	1	12
439.602	1	16
439.772	1	9
439.943	1	26
440.113	1	21
440.284	1	21
440.455	1	14
440.625	1	10
440.796	1	19
440.966	1	11
441.137	1	14
441.307	1	12
441.478	1	19
441.648	1	15
441.819	1	19
441.989	1	19
442.160	1	28
442.330	1	9
442.501	1	26
442.671	1	17
442.842	1	3
443.012	1	19
443.183	1	28
443.353	1	12
443.524	1	17
443.694	1	21
443.865	1	8
444.035	1	23
444.206	1	11
444.376	1	12
444.547	1	17
444.717	1	10
444.888	1	13
445.058	1	26
445.229	1	12
445.399	1	10
445.570	1	22
445.740	1	10
445.911	1	14
446.081	1	1
446.252	1	28
446.422	1	2
446.593	1	9
446.763	1	4
446.934	1	7
447.104	1	14
447.275	1	14
447.445	1	23
447.616	1	19
447.786	1	13
447.957	1	14
448.127	1	7
448.298	1	23
448.468	1	11
448.639	1	14
448.809	1	18
448.979	1	18
449.150	1	21
449.320	1	23
449.491	1	18
449.661	1	11
449.832	1	9
450.002	1	18
450.173	1	15
450.343	1	16
450.514	1	14
450.684	1	19
450.855	1	13
451.025	1	13
451.196	1	19
451.366	1	20
451.537	1	12
451.707	1	1
451.878	1	9
452.048	1	21
452.218	1	11
452.389	1	16
452.559	1	12
452.730	1	25
452.900	1	21
453.071	1	-1
453.241	1	17
453.412	1	5
453.582	1	4
453.753	1	15
453.923	1	21
454.093	1	11
454.264	1	25
454.434	1	6
454.605	1	17
454.775	1	18
454.946	1	17
455.116	1	18
455.287	1	11
455.457	1	12
455.628	1	8
455.798	1	15
455.968	1	16
456.139	1	7
456.309	1	12
456.480	1	12
456.650	1	12
456.821	1	5
456.991	1	15
457.161	1	9
457.332	1	23
457.502	1	2
457.673	1	20
457.843	1	15
458.014	1	5
458.184	1	14
458.355	1	10
458.525	1	27
458.695	1	16
458.866	1	9
459.036	1	13
459.207	1	19
459.377	1	14
459.548	1	21
459.718	1	2
459.888	1	18
460.059	1	23
460.229	1	19
460.400	1	19
460.570	1	10
460.740	1	4
460.911	1	6
461.081	1	14
461.252	1	18
461.422	1	15
461.593	1	11
461.763	1	15
461.933	1	16
462.104	1	9
462.274	1	5
462.445	1	10
462.615	1	16
462.785	1	12
462.956	1	11
463.126	1	22
463.297	1	12
463.467	1	16
463.638	1	19
463.808	1	5
463.978	1	9
464.149	1	8
464.319	1	3
464.490	1	25
464.660	1	8
464.830	1	18
465.001	1	13
465.171	1	19
465.342	1	23
465.512	1	5
465.682	1	15
465.853	1	18
466.023	1	11
466.194	1	12
466.364	1	19
466.534	1	12
466.705	1	16
466.875	1	5
467.045	1	11
467.216	1	23
467.386	1	9
467.557	1	16
467.727	1	2
467.897	1	2
468.068	1	14
468.238	1	16
468.409	1	4
468.579	1	10
468.749	1	6
468.920	1	-6
469.090	1	16
469.260	1	12
469.431	1	12
469.601	1	9
469.772	1	12
469.942	1	13
470.112	1	12
470.283	1	10
470.453	1	13
470.623	1	7
470.794	1	11
470.964	1	18
471.135	1	22
471.305	1	0
471.475	1	16
471.646	1	-2
471.816	1	6
471.986	1	6
472.157	1	15
472.327	1	-4
472.497	1	20
472.668	1	4
472.838	1	14
473.009	1	17
473.179	1	4
473.349	1	-2
473.520	1	8
473.690	1	12
473.860	1	11
474.031	1	11
474.201	1	10
474.371	1	18
474.542	1	15
474.712	1	11
474.882	1	18
475.053	1	18
475.223	1	1
475.394	1	19
475.564	1	6
475.734	1	21
475.905	1	25
476.075	1	11
476.245	1	9
476.416	1	15
476.586	1	20
476.756	1	13
476.927	1	12
477.097	1	8
477.267	1	1
477.438	1	19
477.608	1	16
477.778	1	16
477.949	1	8
478.119	1	19
478.289	1	13
478.460	1	16
478.630	1	9
478.800	1	5
478.971	1	9
479.141	1	4
479.311	1	-3
479.482	1	3
479.652	1	0
479.822	1	12
479.993	1	11
480.163	1	14
480.333	1	8
480.504	1	25
480.674	1	6
480.844	1	4
481.015	1	16
481.185	1	2
481.355	1	13
481.525	1	2
481.696	1	11
481.866	1	9
482.036	1	10
482.207	1	8
482.377	1	4
482.547	1	10
482.718	1	7
482.888	1	8
483.058	1	8
483.229	1	-1
483.399	1	2
483.569	1	4
483.740	1	9
483.910	1	7
484.080	1	13
484.250	1	11
484.421	1	15
484.591	1	7
484.761	1	10
484.932	1	13
485.102	1	18
485.272	1	8
485.443	1	16
485.613	1	15
485.783	1	14
485.953	1	10
486.124	1	13
486.294	1	9
486.464	1	-6
486.635	1	13
486.805	1	17
486.975	1	0
487.146	1	12
487.316	1	3
487.486	1	8
487.656	1	4
487.827	1	8
487.997	1	7
488.167	1	8
488.338	1	18
488.508	1	2
488.678	1	2
488.848	1	16
489.019	1	5
489.189	1	5
489.359	1	1
489.529	1	2
489.700	1	10
489.870	1	18
490.040	1	13
490.211	1	-1
490.381	1	21
490.551	1	5
490.721	1	9
490.892	1	4
491.062	1	-1
491.232	1	14
491.402	1	7
491.573	1	-7
491.743	1	7
491.913	1	11
492.084	1	16
492.254	1	-5
492.424	1	5
492.594	1	8
492.765	1	-4
492.935	1	4
493.105	1	7
493.275	1	5
493.446	1	16
493.616	1	11
493.786	1	0
493.956	1	1
494.127	1	19
494.297	1	-2
494.467	1	6
494.637	1	2
494.808	1	10
494.978	1	-2
495.148	1	5
495.318	1	3
495.489	1	10
495.659	1	15
495.829	1	-1
495.999	1	4
496.170	1	11
496.340	1	15
496.510	1	11
496.680	1	5
496.851	1	6
497.021	1	10
497.191	1	2
497.361	1	6
497.532	1	0
497.702	1	8
497.872	1	2
498.042	1	4
498.213	1	3
498.383	1	7
498.553	1	7
498.723	1	5
498.894	1	9
499.064	1	14
499.234	1	4
499.404	1	4
499.574	1	19
499.745	1	8
499.915	1	2
500.085	1	9
500.255	1	17
500.426	1	10
500.596	1	6
500.766	1	11
500.936	1	6
501.106	1	0
501.277	1	11
501.447	1	4
501.617	1	8
501.787	1	7
501.958	1	6
502.128	1	2
502.298	1	3
502.468	1	11
502.638	1	6
502.809	1	17
502.979	1	-9
503.149	1	1
503.319	1	2
503.489	1	11
503.660	1	2
503.830	1	0
504.000	1	12
504.170	1	-4
504.340	1	7
504.511	1	13
504.681	1	4
504.851	1	8
505.021	1	14
505.192	1	4
505.362	1	16
505.532	1	2
505.702	1	5
505.872	1	0
506.043	1	-2
506.213	1	0
506.383	1	11
506.553	1	17
506.723	1	4
506.893	1	8
507.064	1	6
507.234	1	2
507.404	1	4
507.574	1	-1
507.744	1	6
507.915	1	3
508.085	1	22
508.255	1	9
508.425	1	11
508.595	1	13
508.766	1	8
508.936	1	-5
509.106	1	19
509.276	1	15
509.446	1	-8
509.616	1	-3
509.787	1	10
509.957	1	-3
510.127	1	13
510.297	1	3
510.467	1	-8
510.638	1	-3
510.808	1	1
510.978	1	3
511.148	1	5
511.318	1	3
511.488	1	0
511.659	1	6
511.829	1	-2
511.999	1	9
512.169	1	1
512.339	1	-1
512.509	1	5
512.680	1	4
512.850	1	9
513.020	1	7
513.190	1	9
513.360	1	6
513.530	1	11
513.700	1	10
513.871	1	-3
514.041	1	-3
514.211	1	14
514.381	1	5
514.551	1	8
514.721	1	0
514.892	1	7
515.062	1	7
515.232	1	-3
515.402	1	-9
515.572	1	-2
515.742	1	6
515.912	1	12
516.083	1	-3
516.253	1	7
516.423	1	-3
516.593	1	11
516.763	1	20
516.933	1	3
517.104	1	-6
517.274	1	-2
517.444	1	14
517.614	1	-1
517.784	1	5
517.954	1	4
518.124	1	15
518.294	1	-2
518.465	1	-3
518.635	1	0
518.805	1	-7
518.975	1	11
519.145	1	1
519.315	1	6
519.485	1	-3
519.656	1	5
519.826	1	3
519.996	1	-7
520.166	1	-2
520.336	1	22
520.506	1	3
520.676	1	4
520.846	1	9
521.017	1	4
521.187	1	-3
521.357	1	10
521.527	1	-5
521.697	1	9
521.867	1	3
522.037	1	11
522.207	1	6
522.377	1	2
522.548	1	9
522.718	1	12
522.888	1	19
523.058	1	3
523.228	1	12
523.398	1	10
523.568	1	9
523.738	1	-1
523.909	1	5
524.079	1	3
524.249	1	6
524.419	1	1
524.589	1	-1
524.759	1	2
524.929	1	8
525.099	1	18
525.269	1	12
525.439	1	-1
525.610	1	16
525.780	1	-6
525.950	1	7
526.120	1	2
526.290	1	3
526.460	1	-1
526.630	1	9
526.800	1	9
526.970	1	0
527.140	1	3
527.311	1	-5
527.481	1	-1
527.651	1	8
527.821	1	-8
527.991	1	17
528.161	1	10
528.331	1	5
528.501	1	8
528.671	1	-1
528.841	1	5
529.011	1	-2
529.181	1	7
529.352	1	2
529.522	1	-6
529.692	1	11
529.862	1	-2
530.032	1	6
530.202	1	2
530.372	1	5
530.542	1	3
530.712	1	1
530.882	1	7
531.052	1	10
531.222	1	-1
531.392	1	-3
531.563	1	7
531.733	1	14
531.903	1	1
532.073	1	8
532.243	1	9
532.413	1	4
532.583	1	2
532.753	1	-5
532.923	1	-6
533.093	1	2
533.263	1	-3
533.433	1	-3
533.603	1	2
533.773	1	6
533.943	1	-4
534.113	1	0
534.284	1	2
534.454	1	10
534.624	1	11
534.794	1	-6
534.964	1	2
535.134	1	3
535.304	1	9
535.474	1	15
535.644	1	1
535.814	1	-8
535.984	1	-3
536.154	1	-4
536.324	1	1
536.494	1	13
536.664	1	12
536.834	1	0
537.004	1	7
537.174	1	14
537.344	1	1
537.514	1	-7
537.685	1	1
537.855	1	11
538.025	1	8
538.195	1	2
538.365	1	19
538.535	1	3
538.705	1	10
538.875	1	2
539.045	1	5
539.215	1	9
539.385	1	6
539.555	1	-3
539.725	1	5
539.895	1	2
540.065	1	12
540.235	1	7
540.405	1	2
540.575	1	12
540.745	1	10
540.915	1	10
541.085	1	12
541.255	1	-1
541.425	1	5
541.595	1	-5
541.765	1	7
541.935	1	0
542.105	1	-6
542.275	1	4
542.445	1	-10
542.615	1	2
542.785	1	11
542.955	1	3
543.125	1	-1
543.295	1	8
543.465	1	4
543.635	1	9
543.805	1	16
543.975	1	5
544.145	1	1
544.315	1	8
544.485	1	6
544.655	1	0
544.825	1	-1
544.995	1	3
545.165	1	-1
545.335	1	-6
545.505	1	3
545.675	1	6
545.845	1	7
546.015	1	8
546.185	1	9
546.355	1	-10
546.525	1	6
546.695	1	4
546.865	1	-3
547.035	1	5
547.205	1	-8
547.375	1	0
547.545	1	15
547.715	1	3
547.885	1	1
548.055	1	0
548.225	1	3
548.395	1	2
548.565	1	4
548.735	1	5
548.905	1	8
549.075	1	2
549.245	1	-8
549.415	1	-5
549.585	1	14
549.755	1	0
549.925	1	-8
550.095	1	0
550.265	1	3
550.435	1	-1
550.605	1	-4
550.775	1	7
550.945	1	9
551.115	1	0
551.285	1	6
551.455	1	-3
551.625	1	13
551.795	1	5
551.965	1	-2
552.135	1	-4
552.305	1	-8
552.475	1	0
552.645	1	2
552.815	1	-2
552.985	1	6
553.155	1	3
553.325	1	14
553.495	1	6
553.665	1	0
553.835	1	-4
554.004	1	-1
554.174	1	3
554.344	1	-2
554.514	1	7
554.684	1	2
554.854	1	13
555.024	1	-3
555.194	1	-6
555.364	1	8
555.534	1	2
555.704	1	0
555.874	1	6
556.044	1	-1
556.214	1	-1
556.384	1	5
556.554	1	11
556.724	1	1
556.894	1	7
557.064	1	1
557.234	1	0
557.404	1	4
557.573	1	10
557.743	1	4
557.913	1	6
558.083	1	-6
558.253	1	5
558.423	1	-4
558.593	1	9
558.763	1	5
558.933	1	-2
559.103	1	10
559.273	1	4
559.443	1	10
559.613	1	0
559.783	1	8
559.953	1	2
560.122	1	6
560.292	1	-2
560.462	1	4
560.632	1	3
560.802	1	-9
560.972	1	6
561.142	1	9
561.312	1	0
561.482	1	5
561.652	1	7
561.822	1	-4
561.992	1	-2
562.162	1	-2
562.331	1	7
562.501	1	1
562.671	1	8
562.841	1	-3
563.011	1	8
563.181	1	5
563.351	1	-8
563.521	1	5
563.691	1	-2
563.861	1	11
564.031	1	14
564.201	1	8
564.370	1	-4
564.540	1	-1
564.710	1	4
564.880	1	8
565.050	1	9
565.220	1	-3
565.390	1	11
565.560	1	9
565.730	1	-3
565.900	1	12
566.069	1	1
566.239	1	-1
566.409	1	-4
566.579	1	-2
566.749	1	-5
566.919	1	4
567.089	1	4
567.259	1	7
567.429	1	2
567.599	1	2
567.768	1	5
567.938	1	0
568.108	1	-8
568.278	1	6
568.448	1	-4
568.618	1	-3
568.788	1	0
568.958	1	3
569.128	1	7
569.297	1	1
569.467	1	-4
569.637	1	7
569.807	1	3
569.977	1	7
570.147	1	8
570.317	1	-2
570.487	1	4
570.656	1	13
570.826	1	4
570.996	1	-6
571.166	1	9
571.336	1	-6
571.506	1	9
571.676	1	3
571.846	1	2
572.015	1	3
572.185	1	6
572.355	1	-3
572.525	1	7
572.695	1	7
572.865	1	-7
573.035	1	-1
573.205	1	6
573.374	1	-3
573.544	1	-1
573.714	1	5
573.884	1	12
574.054	1	1
574.224	1	9
574.394	1	-2
574.563	1	3
574.733	1	-2
574.903	1	6
575.073	1	4
575.243	1	1
575.413	1	-1
575.583	1	-1
575.752	1	10
575.922	1	8
576.092	1	7
576.262	1	-3
576.432	1	3
576.602	1	4
576.772	1	9
576.941	1	5
577.111	1	-3
577.281	1	-4
577.451	1	-1
577.621	1	9
577.791	1	10
577.960	1	-5
578.130	1	4
578.300	1	1
578.470	1	19
578.640	1	8
578.810	1	6
578.979	1	-1
579.149	1	0
579.319	1	-1
579.489	1	-4
579.659	1	1
579.829	1	1
579.998	1	3
580.168	1	7
580.338	1	13
580.508	1	0
580.678	1	7
580.848	1	-1
581.017	1	1
581.187	1	4
581.357	1	-16
581.527	1	4
581.697	1	6
581.867	1	8
582.036	1	0
582.206	1	7
582.376	1	4
582.546	1	-11
582.716	1	-1
582.885	1	-5
583.055	1	-6
583.225	1	-7
583.395	1	1
583.565	1	-3
583.735	1	10
583.904	1	-4
584.074	1	10
584.244	1	8
584.414	1	-5
584.584	1	10
584.753	1	-6
584.923	1	2
585.093	1	12
585.263	1	4
585.433	1	5
585.602	1	-6
585.772	1	3
585.942	1	-2
586.112	1	8
586.282	1	-10
586.451	1	3
586.621	1	-8
586.791	1	-8
586.961	1	-2
587.131	1	-1
587.300	1	4
587.470	1	13
587.640	1	1
587.810	1	0
587.980	1	3
588.149	1	5
588.319	1	-1
588.489	1	-6
588.659	1	10
588.829	1	5
588.998	1	7
589.168	1	9
589.338	1	3
589.508	1	8
589.677	1	-5
589.847	1	-10
590.017	1	15
590.187	1	-3
590.357	1	1
590.526	1	9
590.696	1	5
590.866	1	13
591.036	1	7
591.205	1	10
591.375	1	-4
591.545	1	-2
591.715	1	2
591.885	1	-6
592.054	1	2
592.224	1	0
592.394	1	-3
592.564	1	10
592.733	1	4
592.903	1	4
593.073	1	-8
593.243	1	8
593.412	1	3
593.582	1	-1
593.752	1	-6
593.922	1	8
594.091	1	-3
594.261	1	-3
594.431	1	9
594.601	1	14
594.771	1	8
594.940	1	-3
595.110	1	-5
595.280	1	1
595.450	1	-2
595.619	1	7
595.789	1	3
595.959	1	7
596.129	1	1
596.298	1	9
596.468	1	2
596.638	1	13
596.808	1	-4
596.977	1	6
597.147	1	9
597.317	1	5
597.487	1	8
597.656	1	4
597.826	1	6
597.996	1	-2
598.166	1	-10
598.335	1	-8
598.505	1	-2
598.675	1	-1
598.844	1	-4
599.014	1	3
599.184	1	4
599.354	1	-2
599.523	1	0
599.693	1	-5
599.863	1	-2
600.033	1	-5
600.202	1	9
600.372	1	0
600.542	1	3
600.712	1	2
600.881	1	1
601.051	1	8
601.221	1	6
601.390	1	-10
601.560	1	8
601.730	1	3
601.900	1	-1
602.069	1	11
602.239	1	8
602.409	1	-3
602.578	1	9
602.748	1	-1
602.918	1	13
603.088	1	8
603.257	1	3
603.427	1	-4
603.597	1	-1
603.767	1	3
603.936	1	3
604.106	1	9
604.276	1	3
604.445	1	3
604.615	1	-6
604.785	1	1
604.954	1	-4
605.124	1	2
605.294	1	5
605.464	1	10
605.633	1	2
605.803	1	6
605.973	1	-3
606.142	1	1
606.312	1	0
606.482	1	1
606.652	1	14
606.821	1	-12
606.991	1	4
607.161	1	4
607.330	1	2
607.500	1	-7
607.670	1	-7
607.839	1	17
608.009	1	9
608.179	1	1
608.348	1	6
608.518	1	-2
608.688	1	14
608.858	1	-9
609.027	1	-4
609.197	1	9
609.367	1	13
609.536	1	2
609.706	1	0
609.876	1	2
610.045	1	0
610.215	1	10
610.385	1	0
610.554	1	4
610.724	1	-3
610.894	1	3
611.063	1	3
611.233	1	2
611.403	1	7
611.572	1	-6
611.742	1	0
611.912	1	-1
612.081	1	-5
612.251	1	-1
612.421	1	4
612.590	1	4
612.760	1	6
612.930	1	8
613.099	1	2
613.269	1	8
613.439	1	2
613.608	1	-1
613.778	1	6
613.948	1	0
614.117	1	-2
614.287	1	10
614.457	1	2
614.626	1	-2
614.796	1	14
614.966	1	3
615.135	1	1
615.305	1	7
615.475	1	-3
615.644	1	-2
615.814	1	-3
615.984	1	6
616.153	1	-9
616.323	1	3
616.493	1	-3
616.662	1	16
616.832	1	6
617.002	1	1
617.171	1	4
617.341	1	-4
617.511	1	2
617.680	1	-1
617.850	1	1
618.019	1	8
618.189	1	14
618.359	1	2
618.528	1	3
618.698	1	3
618.868	1	-4
619.037	1	-3
619.207	1	-8
619.377	1	-6
619.546	1	-5
619.716	1	-1
619.885	1	6
620.055	1	-11
620.225	1	-2
620.394	1	0
620.564	1	7
620.734	1	8
620.903	1	-2
621.073	1	11
621.242	1	4
621.412	1	2
621.582	1	3
621.751	1	16
621.921	1	13
622.091	1	-4
622.260	1	1
622.430	1	14
622.599	1	-6
622.769	1	3
622.939	1	6
623.108	1	-2
623.278	1	2
623.448	1	2
623.617	1	0
623.787	1	3
623.956	1	5
624.126	1	2
624.296	1	-5
624.465	1	6
624.635	1	14
624.804	1	5
624.974	1	2
625.144	1	15
625.313	1	0
625.483	1	7
625.652	1	-9
625.822	1	1
625.992	1	-2
626.161	1	1
626.331	1	4
626.501	1	6
626.670	1	7
626.840	1	3
627.009	1	-2
627.179	1	12
627.348	1	19
627.518	1	-1
627.688	1	13
627.857	1	12
628.027	1	-3
628.196	1	6
628.366	1	5
628.536	1	7
628.705	1	0
628.875	1	8
629.044	1	2
629.214	1	9
629.384	1	10
629.553	1	0
629.723	1	7
629.892	1	-1
630.062	1	2
630.232	1	5
630.401	1	14
630.571	1	4
630.740	1	-1
630.910	1	6
631.079	1	8
631.249	1	5
631.419	1	8
631.588	1	-12
631.758	1	8
631.927	1	-3
632.097	1	1
632.266	1	-4
632.436	1	10
632.606	1	-4
632.775	1	14
632.945	1	2
633.114	1	6
633.284	1	1
633.453	1	-5
633.623	1	-8
633.793	1	5
633.962	1	-1
634.132	1	-2
634.301	1	1
634.471	1	15
634.640	1	7
634.810	1	11
634.979	1	7
635.149	1	8
635.319	1	1
635.488	1	1
635.658	1	1
635.827	1	1
635.997	1	3
636.166	1	-1
636.336	1	4
636.505	1	1
636.675	1	-5
636.845	1	11
637.014	1	10
637.184	1	10
637.353	1	1
637.523	1	0
637.692	1	4
637.862	1	7
638.031	1	-4
638.201	1	2
638.370	1	-6
638.540	1	3
638.710	1	2
638.879	1	-6
639.049	1	12
639.218	1	2
639.388	1	5
639.557	1	-2
639.727	1	8
639.896	1	5
640.066	1	-2
640.235	1	9
640.405	1	8
640.574	1	2
640.744	1	-5
640.914	1	1
641.083	1	-5
641.253	1	0
641.422	1	1
641.592	1	8
641.761	1	-2
641.931	1	8
642.100	1	20
642.270	1	-1
642.439	1	9
642.609	1	3
642.778	1	8
642.948	1	-3
643.117	1	7
643.287	1	8
643.456	1	-4
643.626	1	7
643.795	1	0
643.965	1	12
644.134	1	8
644.304	1	4
644.473	1	3
644.643	1	7
644.812	1	-4
644.982	1	5
645.151	1	8
645.321	1	-2
645.490	1	18
645.660	1	-9
645.829	1	-4
645.999	1	2
646.168	1	10
646.338	1	10
646.507	1	1
646.677	1	1
646.846	1	0
647.016	1	-5
647.185	1	7
647.355	1	-5
647.524	1	7
647.694	1	8
647.863	1	7
648.033	1	5
648.202	1	16
648.372	1	-7
648.541	1	-6
648.711	1	-8
648.880	1	-6
649.050	1	-8
649.219	1	-2
649.389	1	12
649.558	1	1
649.728	1	7
649.897	1	4
650.067	1	3
650.236	1	3
650.406	1	4
650.575	1	1
650.745	1	7
650.914	1	-1
651.084	1	2
651.253	1	0
651.423	1	5
651.592	1	-1
651.762	1	-3
651.931	1	8
652.101	1	4
652.270	1	8
652.440	1	2
652.609	1	-7
652.778	1	-4
652.948	1	6
653.117	1	11
653.287	1	6
653.456	1	4
653.626	1	6
653.795	1	0
653.965	1	2
654.134	1	3
654.304	1	-5
654.473	1	7
654.643	1	13
654.812	1	3
654.982	1	8
655.151	1	4
655.320	1	-2
655.490	1	-2
655.659	1	2
655.829	1	-4
655.998	1	2
656.168	1	5
656.337	1	0
656.507	1	3
656.676	1	13
656.846	1	5
657.015	1	3
657.184	1	8
657.354	1	5
657.523	1	4
657.693	1	7
657.862	1	10
658.032	1	-1
658.201	1	7
658.371	1	16
658.540	1	4
658.709	1	-1
658.879	1	14
659.048	1	4
659.218	1	7
659.387	1	7
659.557	1	0
659.726	1	4
659.895	1	-1
660.065	1	0
660.234	1	2
660.404	1	5
660.573	1	-3
660.743	1	2
660.912	1	-2
661.081	1	19
661.251	1	-1
661.420	1	11
661.590	1	12
661.759	1	7
661.929	1	7
662.098	1	8
662.267	1	9
662.437	1	3
662.606	1	5
662.776	1	8
662.945	1	9
663.115	1	16
663.284	1	3
663.453	1	3
663.623	1	4
663.792	1	5
663.962	1	1
664.131	1	4
664.300	1	13
664.470	1	5
664.639	1	5
664.809	1	0
664.978	1	10
665.148	1	9
665.317	1	5
665.486	1	10
665.656	1	-2
665.825	1	10
665.995	1	4
666.164	1	4
666.333	1	8
666.503	1	4
666.672	1	1
666.842	1	0
667.011	1	-1
667.180	1	18
667.350	1	9
667.519	1	9
667.689	1	8
667.858	1	12
668.027	1	19
668.197	1	1
668.366	1	-2
668.536	1	-4
668.705	1	-3
668.874	1	14
669.044	1	7
669.213	1	5
669.382	1	2
669.552	1	11
669.721	1	11
669.891	1	12
670.060	1	6
670.229	1	15
670.399	1	4
670.568	1	11
670.738	1	4
670.907	1	3
671.076	1	-4
671.246	1	5
671.415	1	7
671.584	1	5
671.754	1	-3
671.923	1	9
672.093	1	15
672.262	1	-5
672.431	1	2
672.601	1	9
672.770	1	4
672.939	1	11
673.109	1	-6
673.278	1	9
673.448	1	10
673.617	1	-3
673.786	1	8
