325.333	1	14
325.504	1	11
325.675	1	9
325.846	1	12
326.017	1	9
326.188	1	4
326.359	1	10
326.531	1	0
326.702	1	7
326.873	1	9
327.044	1	11
327.215	1	8
327.386	1	7
327.557	1	0
327.728	1	22
327.899	1	9
328.070	1	18
328.241	1	17
328.412	1	-3
328.583	1	17
328.754	1	11
328.926	1	15
329.097	1	-1
329.268	1	19
329.439	1	14
329.610	1	18
329.781	1	-6
329.952	1	15
330.123	1	8
330.294	1	12
330.465	1	17
330.636	1	20
330.807	1	7
330.978	1	12
331.149	1	9
331.320	1	16
331.492	1	15
331.663	1	13
331.834	1	16
332.005	1	15
332.176	1	24
332.347	1	14
332.518	1	0
332.689	1	18
332.860	1	11
333.031	1	15
333.202	1	6
333.373	1	21
333.544	1	6
333.715	1	22
333.886	1	3
334.057	1	10
334.228	1	7
334.399	1	10
334.570	1	12
334.741	1	8
334.912	1	11
335.084	1	27
335.255	1	16
335.426	1	9
335.597	1	9
335.768	1	11
335.939	1	14
336.110	1	11
336.281	1	9
336.452	1	5
336.623	1	18
336.794	1	22
336.965	1	14
337.136	1	14
337.307	1	17
337.478	1	9
337.649	1	9
337.820	1	12
337.991	1	18
338.162	1	13
338.333	1	19
338.504	1	22
338.675	1	25
338.846	1	14
339.017	1	12
339.188	1	5
339.359	1	11
339.530	1	9
339.701	1	17
339.872	1	20
340.043	1	15
340.214	1	18
340.385	1	27
340.556	1	7
340.727	1	9
340.898	1	19
341.069	1	16
341.240	1	17
341.411	1	10
341.582	1	23
341.753	1	13
341.924	1	18
342.095	1	20
342.266	1	29
342.437	1	25
342.608	1	18
342.779	1	15
342.950	1	19
343.121	1	31
343.292	1	11
343.463	1	18
343.634	1	27
343.805	1	31
343.976	1	27
344.147	1	9
344.318	1	18
344.489	1	12
344.660	1	27
344.831	1	20
345.002	1	19
345.173	1	26
345.344	1	18
345.515	1	16
345.686	1	23
345.857	1	20
346.028	1	27
346.199	1	12
346.370	1	20
346.541	1	25
346.712	1	13
346.883	1	26
347.054	1	19
347.225	1	28
347.396	1	27
347.567	1	18
347.738	1	11
347.909	1	32
348.080	1	20
348.251	1	26
348.422	1	34
348.593	1	14
348.764	1	35
348.935	1	31
349.106	1	21
349.277	1	30
349.448	1	34
349.619	1	16
349.790	1	30
349.961	1	26
350.132	1	29
350.303	1	37
350.474	1	38
350.645	1	20
350.816	1	35
350.987	1	34
351.157	1	14
351.328	1	41
351.499	1	39
351.670	1	17
351.841	1	41
352.012	1	41
352.183	1	44
352.354	1	39
352.525	1	38
352.696	1	40
352.867	1	31
353.038	1	40
353.209	1	39
353.380	1	29
353.551	1	12
353.722	1	23
353.893	1	36
354.064	1	39
354.235	1	27
354.406	1	34
354.576	1	36
354.747	1	26
354.918	1	30
355.089	1	31
355.260	1	34
355.431	1	30
355.602	1	17
355.773	1	41
355.944	1	36
356.115	1	29
356.286	1	38
356.457	1	41
356.628	1	23
356.799	1	24
356.970	1	49
357.141	1	22
357.311	1	32
357.482	1	36
357.653	1	36
357.824	1	40
357.995	1	41
358.166	1	26
358.337	1	37
358.508	1	38
358.679	1	39
358.850	1	39
359.021	1	25
359.192	1	34
359.363	1	31
359.533	1	22
359.704	1	41
359.875	1	39
360.046	1	25
360.217	1	29
360.388	1	35
360.559	1	28
360.730	1	46
360.901	1	41
361.072	1	48
361.243	1	46
361.414	1	29
361.584	1	47
361.755	1	38
361.926	1	38
362.097	1	38
362.268	1	39
362.439	1	28
362.610	1	46
362.781	1	38
362.952	1	32
363.123	1	34
363.293	1	33
363.464	1	50
363.635	1	47
363.806	1	43
363.977	1	37
364.148	1	32
364.319	1	43
364.490	1	37
364.661	1	35
364.832	1	44
365.002	1	47
365.173	1	48
365.344	1	46
365.515	1	40
365.686	1	43
365.857	1	36
366.028	1	44
366.199	1	37
366.370	1	58
366.540	1	34
366.711	1	34
366.882	1	36
367.053	1	35
367.224	1	49
367.395	1	35
367.566	1	44
367.737	1	45
367.908	1	43
368.078	1	47
368.249	1	50
368.420	1	33
368.591	1	46
368.762	1	41
368.933	1	43
369.104	1	33
369.274	1	39
369.445	1	28
369.616	1	48
369.787	1	46
369.958	1	40
370.129	1	31
370.300	1	55
370.471	1	41
370.641	1	39
370.812	1	45
370.983	1	33
371.154	1	37
371.325	1	34
371.496	1	46
371.667	1	42
371.837	1	32
372.008	1	39
372.179	1	35
372.350	1	56
372.521	1	38
372.692	1	45
372.863	1	42
373.033	1	40
373.204	1	39
373.375	1	43
373.546	1	56
373.717	1	47
373.888	1	44
374.059	1	56
374.229	1	41
374.400	1	37
374.571	1	42
374.742	1	51
374.913	1	48
375.084	1	42
375.254	1	55
375.425	1	51
375.596	1	41
375.767	1	49
375.938	1	54
376.109	1	48
376.279	1	36
376.450	1	56
376.621	1	39
376.792	1	39
376.963	1	56
377.134	1	43
377.304	1	45
377.475	1	41
377.646	1	47
377.817	1	51
377.988	1	36
378.159	1	50
378.329	1	54
378.500	1	50
378.671	1	47
378.842	1	49
379.013	1	37
379.184	1	40
379.354	1	40
379.525	1	50
379.696	1	60
379.867	1	54
380.038	1	42
380.209	1	55
380.379	1	40
380.550	1	45
380.721	1	54
380.892	1	44
381.063	1	38
381.233	1	52
381.404	1	49
381.575	1	47
381.746	1	50
381.917	1	48
382.087	1	61
382.258	1	49
382.429	1	51
382.600	1	63
382.771	1	42
382.941	1	36
383.112	1	54
383.283	1	45
383.454	1	53
383.625	1	47
383.795	1	54
383.966	1	46
384.137	1	56
384.308	1	54
384.479	1	51
384.649	1	54
384.820	1	45
384.991	1	45
385.162	1	55
385.333	1	49
385.503	1	59
385.674	1	47
385.845	1	59
386.016	1	63
386.187	1	44
386.357	1	59
386.528	1	60
386.699	1	45
386.870	1	59
387.041	1	63
387.211	1	58
387.382	1	61
387.553	1	66
387.724	1	62
387.894	1	57
388.065	1	50
388.236	1	49
388.407	1	53
388.578	1	49
388.748	1	55
388.919	1	65
389.090	1	59
389.261	1	50
389.431	1	61
389.602	1	53
389.773	1	62
389.944	1	47
390.114	1	54
390.285	1	48
390.456	1	50
390.627	1	46
390.798	1	53
390.968	1	56
391.139	1	69
391.310	1	56
391.481	1	65
391.651	1	57
391.822	1	52
391.993	1	62
392.164	1	55
392.334	1	68
392.505	1	63
392.676	1	53
392.847	1	72
393.017	1	60
393.188	1	57
393.359	1	50
393.530	1	53
393.700	1	49
393.871	1	56
394.042	1	52
394.213	1	52
394.383	1	59
394.554	1	58
394.725	1	58
394.896	1	55
395.066	1	62
395.237	1	57
395.408	1	56
395.579	1	64
395.749	1	51
395.920	1	62
396.091	1	65
396.262	1	58
396.432	1	59
396.603	1	65
396.774	1	66
396.945	1	66
397.115	1	63
397.286	1	53
397.457	1	55
397.627	1	72
397.798	1	66
397.969	1	53
398.140	1	64
398.310	1	64
398.481	1	55
398.652	1	58
398.823	1	56
398.993	1	57
399.164	1	60
399.335	1	73
399.505	1	61
399.676	1	63
399.847	1	68
400.018	1	60
400.188	1	61
400.359	1	57
400.530	1	55
400.700	1	64
400.871	1	58
401.042	1	55
401.213	1	69
401.383	1	65
401.554	1	68
401.725	1	71
401.895	1	59
402.066	1	60
402.237	1	64
402.408	1	70
402.578	1	57
402.749	1	58
402.920	1	67
403.090	1	56
403.261	1	60
403.432	1	61
403.603	1	63
403.773	1	69
403.944	1	74
404.115	1	74
404.285	1	61
404.456	1	60
404.627	1	66
404.797	1	50
404.968	1	67
405.139	1	53
405.310	1	63
405.480	1	65
405.651	1	53
405.822	1	62
405.992	1	60
406.163	1	55
406.334	1	63
406.504	1	74
406.675	1	68
406.846	1	62
407.016	1	62
407.187	1	66
407.358	1	62
407.528	1	51
407.699	1	45
407.870	1	58
408.041	1	74
408.211	1	78
408.382	1	53
408.553	1	55
408.723	1	67
408.894	1	66
409.065	1	71
409.235	1	65
409.406	1	66
409.577	1	59
409.747	1	69
409.918	1	66
410.089	1	65
410.259	1	67
410.430	1	70
410.601	1	69
410.771	1	57
410.942	1	63
411.113	1	76
411.283	1	57
411.454	1	65
411.625	1	53
411.795	1	61
411.966	1	61
412.137	1	74
412.307	1	56
412.478	1	64
412.649	1	64
412.819	1	60
412.990	1	66
413.161	1	63
413.331	1	55
413.502	1	71
413.672	1	62
413.843	1	61
414.014	1	66
414.184	1	78
414.355	1	54
414.526	1	67
414.696	1	70
414.867	1	60
415.038	1	47
415.208	1	68
415.379	1	70
415.550	1	78
415.720	1	66
415.891	1	64
416.062	1	59
416.232	1	66
416.403	1	56
416.573	1	72
416.744	1	62
416.915	1	79
417.085	1	66
417.256	1	55
417.427	1	63
417.597	1	57
417.768	1	52
417.939	1	69
418.109	1	63
418.280	1	71
418.450	1	61
418.621	1	43
418.792	1	77
418.962	1	66
419.133	1	74
419.304	1	55
419.474	1	57
419.645	1	59
419.815	1	57
419.986	1	64
420.157	1	64
420.327	1	64
420.498	1	71
420.669	1	61
420.839	1	69
421.010	1	63
421.180	1	70
421.351	1	57
421.522	1	66
421.692	1	65
421.863	1	60
422.033	1	65
422.204	1	73
422.375	1	56
422.545	1	63
422.716	1	68
422.886	1	55
423.057	1	64
423.228	1	56
423.398	1	49
423.569	1	60
423.740	1	54
423.910	1	41
424.081	1	62
424.251	1	62
424.422	1	62
424.593	1	46
424.763	1	63
424.934	1	56
425.104	1	65
425.275	1	58
425.445	1	48
425.616	1	55
425.787	1	55
425.957	1	62
426.128	1	64
426.298	1	56
426.469	1	45
426.640	1	54
426.810	1	61
426.981	1	50
427.151	1	53
427.322	1	62
427.493	1	60
427.663	1	76
427.834	1	51
428.004	1	63
428.175	1	57
428.345	1	48
428.516	1	46
428.687	1	64
428.857	1	55
429.028	1	51
429.198	1	60
429.369	1	52
429.540	1	59
429.710	1	42
429.881	1	53
430.051	1	54
430.222	1	57
430.392	1	52
430.563	1	63
430.734	1	65
430.904	1	67
431.075	1	57
431.245	1	50
431.416	1	70
431.586	1	57
431.757	1	55
431.927	1	65
432.098	1	63
432.269	1	53
432.439	1	55
432.610	1	58
432.780	1	70
432.951	1	56
433.121	1	56
433.292	1	70
433.462	1	53
433.633	1	67
433.804	1	55
433.974	1	45
434.145	1	70
434.315	1	55
434.486	1	46
434.656	1	60
434.827	1	51
434.997	1	46
435.168	1	60
435.339	1	64
435.509	1	59
435.680	1	58
435.850	1	55
436.021	1	57
436.191	1	53
436.362	1	46
436.532	1	57
436.703	1	56
436.873	1	55
437.044	1	49
437.214	1	41
437.385	1	50
437.556	1	57
437.726	1	67
437.897	1	56
438.067	1	44
438.238	1	52
438.408	1	57
438.579	1	53
438.749	1	58
438.920	1	50
439.090	1	48
439.261	1	52
439.431	1	53
439.602	1	51
439.772	1	47
439.943	1	56
440.113	1	55
440.284	1	52
440.455	1	57
440.625	1	56
440.796	1	60
440.966	1	46
441.137	1	49
441.307	1	40
441.478	1	55
441.648	1	59
441.819	1	51
441.989	1	56
442.160	1	62
442.330	1	55
442.501	1	56
442.671	1	41
442.842	1	35
443.012	1	39
443.183	1	52
443.353	1	45
443.524	1	53
443.694	1	54
443.865	1	45
444.035	1	47
444.206	1	47
444.376	1	47
444.547	1	48
444.717	1	50
444.888	1	43
445.058	1	55
445.229	1	48
445.399	1	46
445.570	1	57
445.740	1	59
445.911	1	38
446.081	1	41
446.252	1	55
446.422	1	40
446.593	1	39
446.763	1	48
446.934	1	46
447.104	1	37
447.275	1	49
447.445	1	45
447.616	1	59
447.786	1	52
447.957	1	46
448.127	1	42
448.298	1	52
448.468	1	40
448.639	1	47
448.809	1	51
448.979	1	45
449.150	1	52
449.320	1	51
449.491	1	49
449.661	1	44
449.832	1	37
450.002	1	55
450.173	1	38
450.343	1	48
450.514	1	50
450.684	1	50
450.855	1	39
451.025	1	53
451.196	1	51
451.366	1	42
451.537	1	44
451.707	1	27
451.878	1	46
452.048	1	51
452.218	1	50
452.389	1	43
452.559	1	43
452.730	1	55
452.900	1	60
453.071	1	46
453.241	1	39
453.412	1	33
453.582	1	45
453.753	1	44
453.923	1	39
454.093	1	49
454.264	1	50
454.434	1	44
454.605	1	48
454.775	1	42
454.946	1	45
455.116	1	41
455.287	1	35
455.457	1	33
455.628	1	41
455.798	1	50
455.968	1	57
456.139	1	41
456.309	1	39
456.480	1	36
456.650	1	32
456.821	1	31
456.991	1	48
457.161	1	34
457.332	1	49
457.502	1	38
457.673	1	42
457.843	1	49
458.014	1	26
458.184	1	42
458.355	1	43
458.525	1	45
458.695	1	39
458.866	1	32
459.036	1	39
459.207	1	47
459.377	1	35
459.548	1	53
459.718	1	32
459.888	1	46
460.059	1	40
460.229	1	46
460.400	1	39
460.570	1	44
460.740	1	34
460.911	1	39
461.081	1	45
461.252	1	34
461.422	1	38
461.593	1	35
461.763	1	48
461.933	1	46
462.104	1	27
462.274	1	44
462.445	1	30
462.615	1	34
462.785	1	29
462.956	1	35
463.126	1	50
463.297	1	40
463.467	1	48
463.638	1	40
463.808	1	35
463.978	1	37
464.149	1	35
464.319	1	30
464.490	1	45
464.660	1	23
464.830	1	36
465.001	1	28
465.171	1	42
465.342	1	39
465.512	1	30
465.682	1	33
465.853	1	29
466.023	1	31
466.194	1	37
466.364	1	45
466.534	1	40
466.705	1	36
466.875	1	30
467.045	1	33
467.216	1	41
467.386	1	34
467.557	1	34
467.727	1	42
467.897	1	23
468.068	1	47
468.238	1	34
468.409	1	33
468.579	1	34
468.749	1	26
468.920	1	18
469.090	1	40
469.260	1	15
469.431	1	25
469.601	1	33
469.772	1	27
469.942	1	26
470.112	1	36
470.283	1	32
470.453	1	32
470.623	1	31
470.794	1	24
470.964	1	39
471.135	1	31
471.305	1	24
471.475	1	40
471.646	1	18
471.816	1	37
471.986	1	37
472.157	1	35
472.327	1	19
472.497	1	39
472.668	1	24
472.838	1	27
473.009	1	35
473.179	1	38
473.349	1	18
473.520	1	48
473.690	1	42
473.860	1	33
474.031	1	32
474.201	1	24
474.371	1	40
474.542	1	32
474.712	1	24
474.882	1	41
475.053	1	33
475.223	1	24
475.394	1	36
475.564	1	23
475.734	1	34
475.905	1	44
476.075	1	21
476.245	1	44
476.416	1	37
476.586	1	30
476.756	1	24
476.927	1	32
477.097	1	31
477.267	1	22
477.438	1	31
477.608	1	23
477.778	1	19
477.949	1	28
478.119	1	32
478.289	1	37
478.460	1	34
478.630	1	17
478.800	1	29
478.971	1	33
479.141	1	30
479.311	1	8
479.482	1	24
479.652	1	20
479.822	1	26
479.993	1	14
480.163	1	34
480.333	1	33
480.504	1	29
480.674	1	26
480.844	1	22
481.015	1	34
481.185	1	30
481.355	1	31
481.525	1	26
481.696	1	35
481.866	1	25
482.036	1	27
482.207	1	26
482.377	1	22
482.547	1	25
482.718	1	26
482.888	1	18
483.058	1	33
483.229	1	11
483.399	1	24
483.569	1	31
483.740	1	30
483.910	1	33
484.080	1	28
484.250	1	21
484.421	1	31
484.591	1	22
484.761	1	38
484.932	1	33
485.102	1	35
485.272	1	39
485.443	1	27
485.613	1	33
485.783	1	29
485.953	1	25
486.124	1	27
486.294	1	30
486.464	1	11
486.635	1	22
486.805	1	38
486.975	1	21
487.146	1	31
487.316	1	23
487.486	1	23
487.656	1	15
487.827	1	11
487.997	1	9
488.167	1	18
488.338	1	26
488.508	1	18
488.678	1	20
488.848	1	31
489.019	1	21
489.189	1	23
489.359	1	15
489.529	1	24
489.700	1	20
489.870	1	33
490.040	1	15
490.211	1	11
490.381	1	28
490.551	1	18
490.721	1	29
490.892	1	18
491.062	1	21
491.232	1	21
491.402	1	15
491.573	1	4
491.743	1	23
491.913	1	17
492.084	1	33
492.254	1	13
492.424	1	22
492.594	1	21
492.765	1	23
492.935	1	14
493.105	1	26
493.275	1	26
493.446	1	22
493.616	1	25
493.786	1	19
493.956	1	19
494.127	1	17
494.297	1	18
494.467	1	15
494.637	1	12
494.808	1	7
494.978	1	10
495.148	1	22
495.318	1	18
495.489	1	32
495.659	1	19
495.829	1	20
495.999	1	17
496.170	1	26
496.340	1	23
496.510	1	18
496.680	1	11
496.851	1	15
497.021	1	15
497.191	1	17
497.361	1	21
497.532	1	14
497.702	1	11
497.872	1	15
498.042	1	19
498.213	1	9
498.383	1	22
498.553	1	13
498.723	1	20
498.894	1	22
499.064	1	22
499.234	1	23
499.404	1	22
499.574	1	27
499.745	1	22
499.915	1	20
500.085	1	18
500.255	1	13
500.426	1	6
500.596	1	18
500.766	1	11
500.936	1	23
501.106	1	16
501.277	1	20
501.447	1	15
501.617	1	24
501.787	1	7
501.958	1	14
502.128	1	14
502.298	1	22
502.468	1	9
502.638	1	27
502.809	1	13
502.979	1	14
503.149	1	8
503.319	1	12
503.489	1	23
503.660	1	23
503.830	1	17
504.000	1	20
504.170	1	7
504.340	1	16
504.511	1	24
504.681	1	11
504.851	1	17
505.021	1	19
505.192	1	15
505.362	1	25
505.532	1	16
505.702	1	10
505.872	1	21
506.043	1	8
506.213	1	10
506.383	1	13
506.553	1	18
506.723	1	18
506.893	1	16
507.064	1	13
507.234	1	10
507.404	1	12
507.574	1	16
507.744	1	13
507.915	1	20
508.085	1	20
508.255	1	17
508.425	1	14
508.595	1	26
508.766	1	26
508.936	1	6
509.106	1	19
509.276	1	13
509.446	1	16
509.616	1	10
509.787	1	11
509.957	1	8
510.127	1	10
510.297	1	17
510.467	1	16
510.638	1	20
510.808	1	9
510.978	1	7
511.148	1	16
511.318	1	14
511.488	1	-4
511.659	1	6
511.829	1	12
511.999	1	13
512.169	1	17
512.339	1	17
512.509	1	14
512.680	1	5
512.850	1	11
513.020	1	24
513.190	1	10
513.360	1	9
513.530	1	12
513.700	1	27
513.871	1	4
514.041	1	13
514.211	1	21
514.381	1	19
514.551	1	14
514.721	1	12
514.892	1	12
515.062	1	12
515.232	1	14
515.402	1	10
515.572	1	1
515.742	1	7
515.912	1	14
516.083	1	9
516.253	1	9
516.423	1	8
516.593	1	14
516.763	1	16
516.933	1	10
517.104	1	13
517.274	1	7
517.444	1	18
517.614	1	7
517.784	1	10
517.954	1	5
518.124	1	11
518.294	1	6
518.465	1	8
518.635	1	10
518.805	1	0
518.975	1	5
519.145	1	8
519.315	1	11
519.485	1	12
519.656	1	15
519.826	1	16
519.996	1	2
520.166	1	7
520.336	1	21
520.506	1	12
520.676	1	2
520.846	1	21
521.017	1	17
521.187	1	6
521.357	1	19
521.527	1	9
521.697	1	11
521.867	1	5
522.037	1	17
522.207	1	18
522.377	1	11
522.548	1	12
522.718	1	14
522.888	1	26
523.058	1	11
523.228	1	7
523.398	1	12
523.568	1	11
523.738	1	17
523.909	1	9
524.079	1	21
524.249	1	14
524.419	1	14
524.589	1	15
524.759	1	3
524.929	1	5
525.099	1	15
525.269	1	12
525.439	1	4
525.610	1	21
525.780	1	11
525.950	1	12
526.120	1	5
526.290	1	9
526.460	1	-3
526.630	1	15
526.800	1	16
526.970	1	16
527.140	1	13
527.311	1	4
527.481	1	6
527.651	1	17
527.821	1	6
527.991	1	13
528.161	1	17
528.331	1	8
528.501	1	11
528.671	1	4
528.841	1	15
529.011	1	7
529.181	1	8
529.352	1	14
529.522	1	7
529.692	1	14
529.862	1	0
530.032	1	9
530.202	1	13
530.372	1	11
530.542	1	13
530.712	1	5
530.882	1	9
531.052	1	8
531.222	1	8
531.392	1	4
531.563	1	14
531.733	1	9
531.903	1	15
532.073	1	14
532.243	1	9
532.413	1	10
532.583	1	12
532.753	1	9
532.923	1	-10
533.093	1	10
533.263	1	10
533.433	1	5
533.603	1	6
533.773	1	10
533.943	1	4
534.113	1	8
534.284	1	13
534.454	1	16
534.624	1	12
534.794	1	5
534.964	1	7
535.134	1	4
535.304	1	14
535.474	1	20
535.644	1	-5
535.814	1	4
535.984	1	6
536.154	1	8
536.324	1	7
536.494	1	4
536.664	1	13
536.834	1	16
537.004	1	12
537.174	1	10
537.344	1	1
537.514	1	3
537.685	1	12
537.855	1	17
538.025	1	8
538.195	1	8
538.365	1	1
538.535	1	12
538.705	1	13
538.875	1	7
539.045	1	13
539.215	1	9
539.385	1	12
539.555	1	10
539.725	1	9
539.895	1	-6
540.065	1	14
540.235	1	14
540.405	1	7
540.575	1	11
540.745	1	8
540.915	1	13
541.085	1	14
541.255	1	-1
541.425	1	15
541.595	1	1
541.765	1	17
541.935	1	7
542.105	1	-1
542.275	1	12
542.445	1	-1
542.615	1	15
542.785	1	14
542.955	1	11
543.125	1	7
543.295	1	4
543.465	1	11
543.635	1	5
543.805	1	11
543.975	1	4
544.145	1	17
544.315	1	7
544.485	1	14
544.655	1	8
544.825	1	-4
544.995	1	13
545.165	1	9
545.335	1	13
545.505	1	-5
545.675	1	11
545.845	1	5
546.015	1	11
546.185	1	14
546.355	1	10
546.525	1	13
546.695	1	5
546.865	1	1
547.035	1	7
547.205	1	-5
547.375	1	7
547.545	1	18
547.715	1	-1
547.885	1	13
548.055	1	5
548.225	1	6
548.395	1	2
548.565	1	9
548.735	1	10
548.905	1	10
549.075	1	1
549.245	1	1
549.415	1	-1
549.585	1	10
549.755	1	8
549.925	1	-6
550.095	1	3
550.265	1	7
550.435	1	-1
550.605	1	0
550.775	1	18
550.945	1	9
551.115	1	-1
551.285	1	12
551.455	1	0
551.625	1	9
551.795	1	7
551.965	1	9
552.135	1	7
552.305	1	5
552.475	1	-8
552.645	1	5
552.815	1	2
552.985	1	16
553.155	1	2
553.325	1	10
553.495	1	1
553.665	1	4
553.835	1	6
554.004	1	7
554.174	1	0
554.344	1	7
554.514	1	5
554.684	1	18
554.854	1	10
555.024	1	-2
555.194	1	-9
555.364	1	10
555.534	1	9
555.704	1	-2
555.874	1	12
556.044	1	1
556.214	1	-3
556.384	1	-1
556.554	1	11
556.724	1	8
556.894	1	1
557.064	1	4
557.234	1	5
557.404	1	11
557.573	1	5
557.743	1	6
557.913	1	-13
558.083	1	0
558.253	1	8
558.423	1	2
558.593	1	8
558.763	1	8
558.933	1	18
559.103	1	15
559.273	1	4
559.443	1	9
559.613	1	1
559.783	1	6
559.953	1	7
560.122	1	18
560.292	1	10
560.462	1	7
560.632	1	9
560.802	1	8
560.972	1	6
561.142	1	15
561.312	1	2
561.482	1	7
561.652	1	9
561.822	1	2
561.992	1	-2
562.162	1	3
562.331	1	6
562.501	1	-10
562.671	1	4
562.841	1	-5
563.011	1	5
563.181	1	1
563.351	1	4
563.521	1	11
563.691	1	0
563.861	1	8
564.031	1	11
564.201	1	16
564.370	1	1
564.540	1	10
564.710	1	-1
564.880	1	6
565.050	1	9
565.220	1	5
565.390	1	5
565.560	1	11
565.730	1	0
565.900	1	7
566.069	1	9
566.239	1	15
566.409	1	5
566.579	1	11
566.749	1	1
566.919	1	13
567.089	1	11
567.259	1	16
567.429	1	4
567.599	1	7
567.768	1	-1
567.938	1	12
568.108	1	-1
568.278	1	5
568.448	1	-3
568.618	1	7
568.788	1	6
568.958	1	6
569.128	1	4
569.297	1	10
569.467	1	0
569.637	1	9
569.807	1	-1
569.977	1	8
570.147	1	13
570.317	1	-3
570.487	1	4
570.656	1	7
570.826	1	3
570.996	1	0
571.166	1	4
571.336	1	-2
571.506	1	3
571.676	1	6
571.846	1	10
572.015	1	14
572.185	1	6
572.355	1	-3
572.525	1	8
572.695	1	8
572.865	1	-8
573.035	1	10
573.205	1	3
573.374	1	-6
573.544	1	-1
573.714	1	12
573.884	1	8
574.054	1	8
574.224	1	3
574.394	1	5
574.563	1	-5
574.733	1	-2
574.903	1	-1
575.073	1	5
575.243	1	-1
575.413	1	8
575.583	1	-3
575.752	1	13
575.922	1	6
576.092	1	5
576.262	1	3
576.432	1	4
576.602	1	-6
576.772	1	16
576.941	1	8
577.111	1	5
577.281	1	5
577.451	1	6
577.621	1	11
577.791	1	6
577.960	1	-7
578.130	1	7
578.300	1	7
578.470	1	16
578.640	1	4
578.810	1	-4
578.979	1	5
579.149	1	3
579.319	1	0
579.489	1	-3
579.659	1	2
579.829	1	-3
579.998	1	17
580.168	1	10
580.338	1	1
580.508	1	7
580.678	1	9
580.848	1	6
581.017	1	4
581.187	1	11
581.357	1	1
581.527	1	7
581.697	1	6
581.867	1	0
582.036	1	7
582.206	1	19
582.376	1	12
582.546	1	3
582.716	1	-3
582.885	1	2
583.055	1	-1
583.225	1	1
583.395	1	9
583.565	1	2
583.735	1	12
583.904	1	3
584.074	1	4
584.244	1	8
584.414	1	5
584.584	1	4
584.753	1	0
584.923	1	2
585.093	1	2
585.263	1	-1
585.433	1	4
585.602	1	-2
585.772	1	5
585.942	1	7
586.112	1	9
586.282	1	-3
586.451	1	-6
586.621	1	5
586.791	1	3
586.961	1	5
587.131	1	11
587.300	1	-3
587.470	1	12
587.640	1	13
587.810	1	0
587.980	1	2
588.149	1	13
588.319	1	8
588.489	1	4
588.659	1	6
588.829	1	6
588.998	1	12
589.168	1	12
589.338	1	3
589.508	1	-3
589.677	1	-6
589.847	1	0
590.017	1	14
590.187	1	-4
590.357	1	15
590.526	1	12
590.696	1	10
590.866	1	8
591.036	1	5
591.205	1	18
591.375	1	2
591.545	1	6
591.715	1	5
591.885	1	-1
592.054	1	7
592.224	1	1
592.394	1	4
592.564	1	2
592.733	1	6
592.903	1	1
593.073	1	3
593.243	1	4
593.412	1	13
593.582	1	-4
593.752	1	0
593.922	1	4
594.091	1	-4
594.261	1	8
594.431	1	2
594.601	1	16
594.771	1	4
594.940	1	4
595.110	1	-4
595.280	1	5
595.450	1	-11
595.619	1	0
595.789	1	12
595.959	1	5
596.129	1	-1
596.298	1	2
596.468	1	7
596.638	1	-4
596.808	1	-3
596.977	1	0
597.147	1	9
597.317	1	-9
597.487	1	3
597.656	1	3
597.826	1	-1
597.996	1	7
598.166	1	12
598.335	1	-6
598.505	1	5
598.675	1	-6
598.844	1	4
599.014	1	-2
599.184	1	9
599.354	1	0
599.523	1	11
599.693	1	-8
599.863	1	9
600.033	1	6
600.202	1	7
600.372	1	6
600.542	1	14
600.712	1	0
600.881	1	5
601.051	1	6
601.221	1	9
601.390	1	4
601.560	1	8
601.730	1	13
601.900	1	2
602.069	1	16
602.239	1	-2
602.409	1	-2
602.578	1	15
602.748	1	6
602.918	1	9
603.088	1	7
603.257	1	8
603.427	1	3
603.597	1	9
603.767	1	4
603.936	1	3
604.106	1	3
604.276	1	-3
604.445	1	5
604.615	1	3
604.785	1	11
604.954	1	0
605.124	1	3
605.294	1	-3
605.464	1	5
605.633	1	10
605.803	1	11
605.973	1	3
606.142	1	7
606.312	1	5
606.482	1	16
606.652	1	15
606.821	1	5
606.991	1	5
607.161	1	3
607.330	1	6
607.500	1	10
607.670	1	-1
607.839	1	15
608.009	1	15
608.179	1	5
608.348	1	3
608.518	1	-7
608.688	1	13
608.858	1	11
609.027	1	-9
609.197	1	1
609.367	1	26
609.536	1	9
609.706	1	4
609.876	1	-3
610.045	1	5
610.215	1	9
610.385	1	9
610.554	1	11
610.724	1	8
610.894	1	4
611.063	1	-1
611.233	1	1
611.403	1	7
611.572	1	4
611.742	1	9
611.912	1	4
612.081	1	3
612.251	1	10
612.421	1	0
612.590	1	16
612.760	1	1
612.930	1	12
613.099	1	3
613.269	1	15
613.439	1	8
613.608	1	-2
613.778	1	18
613.948	1	5
614.117	1	13
614.287	1	11
614.457	1	15
614.626	1	6
614.796	1	7
614.966	1	-4
615.135	1	9
615.305	1	13
615.475	1	12
615.644	1	12
615.814	1	16
615.984	1	-5
616.153	1	1
616.323	1	-1
616.493	1	5
616.662	1	3
616.832	1	16
617.002	1	2
617.171	1	11
617.341	1	11
617.511	1	-3
617.680	1	-1
617.850	1	7
618.019	1	22
618.189	1	16
618.359	1	4
618.528	1	2
618.698	1	13
618.868	1	5
619.037	1	6
619.207	1	6
619.377	1	-3
619.546	1	8
619.716	1	7
619.885	1	-1
620.055	1	0
620.225	1	9
620.394	1	5
620.564	1	7
620.734	1	8
620.903	1	2
621.073	1	11
621.242	1	9
621.412	1	8
621.582	1	10
621.751	1	20
621.921	1	6
622.091	1	-2
622.260	1	11
622.430	1	11
622.599	1	10
622.769	1	7
622.939	1	11
623.108	1	8
623.278	1	-4
623.448	1	7
623.617	1	7
623.787	1	8
623.956	1	10
624.126	1	6
624.296	1	0
624.465	1	11
624.635	1	18
624.804	1	7
624.974	1	9
625.144	1	11
625.313	1	15
625.483	1	0
625.652	1	-3
625.822	1	6
625.992	1	13
626.161	1	19
626.331	1	13
626.501	1	13
626.670	1	7
626.840	1	1
627.009	1	4
627.179	1	18
627.348	1	9
627.518	1	13
627.688	1	3
627.857	1	17
628.027	1	-4
628.196	1	9
628.366	1	9
628.536	1	14
628.705	1	5
628.875	1	6
629.044	1	0
629.214	1	21
629.384	1	17
629.553	1	6
629.723	1	11
629.892	1	11
630.062	1	3
630.232	1	12
630.401	1	13
630.571	1	2
630.740	1	10
630.910	1	6
631.079	1	8
631.249	1	6
631.419	1	11
631.588	1	-3
631.758	1	10
631.927	1	2
632.097	1	8
632.266	1	6
632.436	1	10
632.606	1	-1
632.775	1	18
632.945	1	18
633.114	1	13
633.284	1	13
633.453	1	8
633.623	1	11
633.793	1	-1
633.962	1	9
634.132	1	3
634.301	1	1
634.471	1	13
634.640	1	14
634.810	1	9
634.979	1	10
635.149	1	6
635.319	1	9
635.488	1	9
635.658	1	4
635.827	1	3
635.997	1	0
636.166	1	5
636.336	1	0
636.505	1	14
636.675	1	-1
636.845	1	10
637.014	1	11
637.184	1	14
637.353	1	5
637.523	1	14
637.692	1	12
637.862	1	4
638.031	1	11
638.201	1	13
638.370	1	5
638.540	1	0
638.710	1	5
638.879	1	10
639.049	1	5
639.218	1	6
639.388	1	10
639.557	1	1
639.727	1	5
639.896	1	11
640.066	1	13
640.235	1	7
640.405	1	10
640.574	1	11
640.744	1	-5
640.914	1	4
641.083	1	2
641.253	1	2
641.422	1	8
641.592	1	14
641.761	1	6
641.931	1	6
642.100	1	22
642.270	1	0
642.439	1	14
642.609	1	18
642.778	1	6
642.948	1	5
643.117	1	7
643.287	1	10
643.456	1	-1
643.626	1	19
643.795	1	8
643.965	1	16
644.134	1	4
644.304	1	0
644.473	1	8
644.643	1	11
644.812	1	11
644.982	1	14
645.151	1	19
645.321	1	6
645.490	1	15
645.660	1	-1
645.829	1	1
645.999	1	14
646.168	1	14
646.338	1	10
646.507	1	5
646.677	1	7
646.846	1	1
647.016	1	2
647.185	1	10
647.355	1	-4
647.524	1	8
647.694	1	16
647.863	1	9
648.033	1	13
648.202	1	15
648.372	1	8
648.541	1	3
648.711	1	5
648.880	1	-4
649.050	1	21
649.219	1	8
649.389	1	17
649.558	1	16
649.728	1	10
649.897	1	-5
650.067	1	15
650.236	1	14
650.406	1	16
650.575	1	13
650.745	1	10
650.914	1	1
651.084	1	-5
651.253	1	6
651.423	1	14
651.592	1	10
651.762	1	1
651.931	1	20
652.101	1	8
652.270	1	20
652.440	1	4
652.609	1	10
652.778	1	8
652.948	1	16
653.117	1	6
653.287	1	8
653.456	1	13
653.626	1	11
653.795	1	5
653.965	1	22
654.134	1	22
654.304	1	-3
654.473	1	10
654.643	1	18
654.812	1	10
654.982	1	6
655.151	1	11
655.320	1	12
655.490	1	7
655.659	1	11
655.829	1	0
655.998	1	11
656.168	1	-1
656.337	1	11
656.507	1	10
656.676	1	15
656.846	1	18
657.015	1	21
657.184	1	21
657.354	1	2
657.523	1	3
657.693	1	22
657.862	1	19
658.032	1	5
658.201	1	16
658.371	1	19
658.540	1	12
658.709	1	7
658.879	1	19
659.048	1	11
659.218	1	5
659.387	1	10
659.557	1	8
659.726	1	22
659.895	1	2
660.065	1	4
660.234	1	14
660.404	1	15
660.573	1	4
660.743	1	8
660.912	1	3
661.081	1	9
661.251	1	5
661.420	1	15
661.590	1	6
661.759	1	19
661.929	1	17
662.098	1	25
662.267	1	5
662.437	1	7
662.606	1	14
662.776	1	17
662.945	1	11
663.115	1	19
663.284	1	13
663.453	1	12
663.623	1	12
663.792	1	7
663.962	1	5
664.131	1	12
664.300	1	16
664.470	1	13
664.639	1	14
664.809	1	10
664.978	1	18
665.148	1	13
665.317	1	7
665.486	1	14
665.656	1	6
665.825	1	27
665.995	1	9
666.164	1	5
666.333	1	8
666.503	1	4
666.672	1	11
666.842	1	9
667.011	1	0
667.180	1	22
667.350	1	21
667.519	1	12
667.689	1	6
667.858	1	15
668.027	1	14
668.197	1	7
668.366	1	-4
668.536	1	14
668.705	1	6
668.874	1	12
669.044	1	8
669.213	1	14
669.382	1	3
669.552	1	19
669.721	1	19
669.891	1	17
670.060	1	13
670.229	1	26
670.399	1	3
670.568	1	18
670.738	1	19
670.907	1	-4
671.076	1	2
671.246	1	12
671.415	1	14
671.584	1	7
671.754	1	-1
671.923	1	5
672.093	1	17
672.262	1	3
672.431	1	15
672.601	1	2
672.770	1	3
672.939	1	10
673.109	1	11
673.278	1	14
673.448	1	11
673.617	1	4
673.786	1	9
