325.333	1	10
325.504	1	-1
325.675	1	8
325.846	1	6
326.017	1	9
326.188	1	3
326.359	1	-2
326.531	1	-10
326.702	1	3
326.873	1	14
327.044	1	-3
327.215	1	2
327.386	1	14
327.557	1	4
327.728	1	6
327.899	1	14
328.070	1	17
328.241	1	-4
328.412	1	0
328.583	1	10
328.754	1	8
328.926	1	11
329.097	1	-2
329.268	1	11
329.439	1	6
329.610	1	6
329.781	1	-5
329.952	1	16
330.123	1	12
330.294	1	-3
330.465	1	1
330.636	1	7
330.807	1	3
330.978	1	5
331.149	1	-1
331.320	1	-3
331.492	1	5
331.663	1	-1
331.834	1	13
332.005	1	7
332.176	1	15
332.347	1	8
332.518	1	-10
332.689	1	16
332.860	1	-5
333.031	1	13
333.202	1	5
333.373	1	4
333.544	1	7
333.715	1	-1
333.886	1	0
334.057	1	7
334.228	1	4
334.399	1	-2
334.570	1	2
334.741	1	5
334.912	1	12
335.084	1	21
335.255	1	7
335.426	1	2
335.597	1	-2
335.768	1	9
335.939	1	14
336.110	1	10
336.281	1	2
336.452	1	0
336.623	1	4
336.794	1	7
336.965	1	8
337.136	1	15
337.307	1	9
337.478	1	1
337.649	1	-1
337.820	1	8
337.991	1	7
338.162	1	2
338.333	1	6
338.504	1	5
338.675	1	11
338.846	1	13
339.017	1	7
339.188	1	5
339.359	1	-4
339.530	1	14
339.701	1	6
339.872	1	18
340.043	1	1
340.214	1	14
340.385	1	10
340.556	1	-6
340.727	1	17
340.898	1	7
341.069	1	0
341.240	1	12
341.411	1	9
341.582	1	11
341.753	1	5
341.924	1	5
342.095	1	6
342.266	1	2
342.437	1	7
342.608	1	0
342.779	1	2
342.950	1	20
343.121	1	11
343.292	1	7
343.463	1	3
343.634	1	12
343.805	1	9
343.976	1	8
344.147	1	5
344.318	1	2
344.489	1	4
344.660	1	22
344.831	1	5
345.002	1	4
345.173	1	19
345.344	1	15
345.515	1	7
345.686	1	10
345.857	1	7
346.028	1	17
346.199	1	-5
346.370	1	9
346.541	1	3
346.712	1	9
346.883	1	5
347.054	1	8
347.225	1	19
347.396	1	9
347.567	1	6
347.738	1	-9
347.909	1	17
348.080	1	5
348.251	1	18
348.422	1	9
348.593	1	9
348.764	1	17
348.935	1	4
349.106	1	5
349.277	1	14
349.448	1	13
349.619	1	11
349.790	1	13
349.961	1	10
350.132	1	14
350.303	1	13
350.474	1	15
350.645	1	13
350.816	1	22
350.987	1	19
351.157	1	6
351.328	1	14
351.499	1	17
351.670	1	4
351.841	1	13
352.012	1	20
352.183	1	22
352.354	1	20
352.525	1	22
352.696	1	24
352.867	1	10
353.038	1	17
353.209	1	23
353.380	1	7
353.551	1	3
353.722	1	19
353.893	1	8
354.064	1	20
354.235	1	16
354.406	1	10
354.576	1	10
354.747	1	6
354.918	1	17
355.089	1	14
355.260	1	24
355.431	1	20
355.602	1	4
355.773	1	14
355.944	1	20
356.115	1	14
356.286	1	18
356.457	1	18
356.628	1	19
356.799	1	16
356.970	1	31
357.141	1	10
357.311	1	6
357.482	1	11
357.653	1	19
357.824	1	19
357.995	1	13
358.166	1	2
358.337	1	12
358.508	1	10
358.679	1	18
358.850	1	11
359.021	1	11
359.192	1	12
359.363	1	9
359.533	1	18
359.704	1	11
359.875	1	10
360.046	1	13
360.217	1	3
360.388	1	18
360.559	1	15
360.730	1	18
360.901	1	5
361.072	1	19
361.243	1	17
361.414	1	12
361.584	1	8
361.755	1	16
361.926	1	12
362.097	1	15
362.268	1	3
362.439	1	8
362.610	1	20
362.781	1	10
362.952	1	8
363.123	1	14
363.293	1	12
363.464	1	22
363.635	1	23
363.806	1	14
363.977	1	15
364.148	1	7
364.319	1	16
364.490	1	27
364.661	1	8
364.832	1	23
365.002	1	17
365.173	1	15
365.344	1	24
365.515	1	22
365.686	1	14
365.857	1	15
366.028	1	9
366.199	1	14
366.370	1	15
366.540	1	13
366.711	1	-8
366.882	1	7
367.053	1	3
367.224	1	19
367.395	1	14
367.566	1	25
367.737	1	24
367.908	1	11
368.078	1	19
368.249	1	29
368.420	1	3
368.591	1	9
368.762	1	16
368.933	1	13
369.104	1	18
369.274	1	8
369.445	1	19
369.616	1	10
369.787	1	21
369.958	1	21
370.129	1	10
370.300	1	23
370.471	1	5
370.641	1	25
370.812	1	13
370.983	1	15
371.154	1	7
371.325	1	22
371.496	1	20
371.667	1	15
371.837	1	14
372.008	1	18
372.179	1	13
372.350	1	33
372.521	1	16
372.692	1	15
372.863	1	29
373.033	1	7
373.204	1	4
373.375	1	16
373.546	1	13
373.717	1	13
373.888	1	25
374.059	1	21
374.229	1	19
374.400	1	1
374.571	1	13
374.742	1	29
374.913	1	20
375.084	1	14
375.254	1	21
375.425	1	14
375.596	1	24
375.767	1	14
375.938	1	17
376.109	1	18
376.279	1	13
376.450	1	30
376.621	1	22
376.792	1	19
376.963	1	19
377.134	1	22
377.304	1	16
377.475	1	6
377.646	1	20
377.817	1	13
377.988	1	8
378.159	1	19
378.329	1	29
378.500	1	23
378.671	1	20
378.842	1	26
379.013	1	13
379.184	1	6
379.354	1	16
379.525	1	9
379.696	1	25
379.867	1	29
380.038	1	16
380.209	1	20
380.379	1	24
380.550	1	11
380.721	1	18
380.892	1	18
381.063	1	21
381.233	1	25
381.404	1	19
381.575	1	30
381.746	1	16
381.917	1	22
382.087	1	26
382.258	1	11
382.429	1	9
382.600	1	26
382.771	1	16
382.941	1	15
383.112	1	24
383.283	1	24
383.454	1	18
383.625	1	11
383.795	1	22
383.966	1	27
384.137	1	25
384.308	1	30
384.479	1	19
384.649	1	26
384.820	1	16
384.991	1	22
385.162	1	26
385.333	1	13
385.503	1	20
385.674	1	9
385.845	1	26
386.016	1	13
386.187	1	34
386.357	1	23
386.528	1	17
386.699	1	26
386.870	1	28
387.041	1	30
387.211	1	17
387.382	1	32
387.553	1	22
387.724	1	4
387.894	1	18
388.065	1	21
388.236	1	29
388.407	1	19
388.578	1	16
388.748	1	19
388.919	1	26
389.090	1	17
389.261	1	18
389.431	1	31
389.602	1	21
389.773	1	20
389.944	1	24
390.114	1	19
390.285	1	18
390.456	1	28
390.627	1	14
390.798	1	25
390.968	1	33
391.139	1	27
391.310	1	12
391.481	1	26
391.651	1	27
391.822	1	14
391.993	1	19
392.164	1	20
392.334	1	30
392.505	1	25
392.676	1	28
392.847	1	41
393.017	1	21
393.188	1	25
393.359	1	25
393.530	1	23
393.700	1	22
393.871	1	26
394.042	1	18
394.213	1	20
394.383	1	32
394.554	1	23
394.725	1	29
394.896	1	30
395.066	1	25
395.237	1	19
395.408	1	22
395.579	1	22
395.749	1	28
395.920	1	24
396.091	1	29
396.262	1	23
396.432	1	29
396.603	1	36
396.774	1	33
396.945	1	26
397.115	1	33
397.286	1	19
397.457	1	28
397.627	1	25
397.798	1	27
397.969	1	8
398.140	1	19
398.310	1	22
398.481	1	29
398.652	1	27
398.823	1	18
398.993	1	19
399.164	1	20
399.335	1	38
399.505	1	28
399.676	1	19
399.847	1	22
400.018	1	18
400.188	1	20
400.359	1	22
400.530	1	11
400.700	1	19
400.871	1	19
401.042	1	29
401.213	1	25
401.383	1	20
401.554	1	38
401.725	1	27
401.895	1	23
402.066	1	40
402.237	1	37
402.408	1	24
402.578	1	22
402.749	1	29
402.920	1	29
403.090	1	23
403.261	1	21
403.432	1	18
403.603	1	27
403.773	1	31
403.944	1	35
404.115	1	24
404.285	1	28
404.456	1	15
404.627	1	21
404.797	1	19
404.968	1	26
405.139	1	28
405.310	1	31
405.480	1	34
405.651	1	18
405.822	1	21
405.992	1	28
406.163	1	24
406.334	1	11
406.504	1	31
406.675	1	36
406.846	1	27
407.016	1	33
407.187	1	21
407.358	1	22
407.528	1	21
407.699	1	24
407.870	1	19
408.041	1	30
408.211	1	33
408.382	1	29
408.553	1	28
408.723	1	30
408.894	1	23
409.065	1	39
409.235	1	16
409.406	1	20
409.577	1	24
409.747	1	34
409.918	1	18
410.089	1	35
410.259	1	17
410.430	1	26
410.601	1	27
410.771	1	28
410.942	1	27
411.113	1	22
411.283	1	10
411.454	1	28
411.625	1	23
411.795	1	36
411.966	1	32
412.137	1	25
412.307	1	28
412.478	1	34
412.649	1	19
412.819	1	37
412.990	1	32
413.161	1	30
413.331	1	22
413.502	1	34
413.672	1	24
413.843	1	19
414.014	1	32
414.184	1	33
414.355	1	23
414.526	1	31
414.696	1	30
414.867	1	29
415.038	1	11
415.208	1	26
415.379	1	32
415.550	1	34
415.720	1	22
415.891	1	28
416.062	1	20
416.232	1	23
416.403	1	21
416.573	1	37
416.744	1	21
416.915	1	32
417.085	1	35
417.256	1	26
417.427	1	27
417.597	1	30
417.768	1	13
417.939	1	27
418.109	1	36
418.280	1	30
418.450	1	22
418.621	1	24
418.792	1	23
418.962	1	29
419.133	1	37
419.304	1	22
419.474	1	16
419.645	1	27
419.815	1	23
419.986	1	30
420.157	1	26
420.327	1	33
420.498	1	31
420.669	1	24
420.839	1	44
421.010	1	23
421.180	1	34
421.351	1	26
421.522	1	29
421.692	1	27
421.863	1	26
422.033	1	41
422.204	1	22
422.375	1	27
422.545	1	35
422.716	1	17
422.886	1	21
423.057	1	30
423.228	1	24
423.398	1	9
423.569	1	21
423.740	1	21
423.910	1	11
424.081	1	22
424.251	1	15
424.422	1	23
424.593	1	15
424.763	1	23
424.934	1	25
425.104	1	23
425.275	1	20
425.445	1	19
425.616	1	22
425.787	1	26
425.957	1	28
426.128	1	22
426.298	1	31
426.469	1	16
426.640	1	21
426.810	1	20
426.981	1	28
427.151	1	15
427.322	1	27
427.493	1	12
427.663	1	31
427.834	1	14
428.004	1	24
428.175	1	27
428.345	1	17
428.516	1	17
428.687	1	28
428.857	1	9
429.028	1	28
429.198	1	22
429.369	1	34
429.540	1	31
429.710	1	29
429.881	1	26
430.051	1	17
430.222	1	23
430.392	1	18
430.563	1	31
430.734	1	28
430.904	1	22
431.075	1	22
431.245	1	16
431.416	1	32
431.586	1	25
431.757	1	30
431.927	1	13
432.098	1	27
432.269	1	18
432.439	1	20
432.610	1	18
432.780	1	26
432.951	1	23
433.121	1	25
433.292	1	34
433.462	1	26
433.633	1	35
433.804	1	16
433.974	1	12
434.145	1	37
434.315	1	20
434.486	1	23
434.656	1	33
434.827	1	33
434.997	1	12
435.168	1	24
435.339	1	23
435.509	1	23
435.680	1	15
435.850	1	19
436.021	1	25
436.191	1	24
436.362	1	24
436.532	1	31
436.703	1	24
436.873	1	29
437.044	1	19
437.214	1	13
437.385	1	18
437.556	1	16
437.726	1	40
437.897	1	29
438.067	1	20
438.238	1	21
438.408	1	27
438.579	1	12
438.749	1	16
438.920	1	13
439.090	1	29
439.261	1	19
439.431	1	12
439.602	1	22
439.772	1	15
439.943	1	34
440.113	1	20
440.284	1	22
440.455	1	14
440.625	1	17
440.796	1	22
440.966	1	25
441.137	1	22
441.307	1	23
441.478	1	23
441.648	1	24
441.819	1	22
441.989	1	25
442.160	1	25
442.330	1	17
442.501	1	17
442.671	1	8
442.842	1	9
443.012	1	13
443.183	1	29
443.353	1	10
443.524	1	19
443.694	1	28
443.865	1	11
444.035	1	33
444.206	1	13
444.376	1	12
444.547	1	32
444.717	1	24
444.888	1	8
445.058	1	23
445.229	1	17
445.399	1	19
445.570	1	20
445.740	1	20
445.911	1	16
446.081	1	17
446.252	1	24
446.422	1	20
446.593	1	21
446.763	1	12
446.934	1	17
447.104	1	29
447.275	1	20
447.445	1	15
447.616	1	27
447.786	1	22
447.957	1	9
448.127	1	12
448.298	1	24
448.468	1	16
448.639	1	13
448.809	1	23
448.979	1	21
449.150	1	28
449.320	1	27
449.491	1	25
449.661	1	15
449.832	1	14
450.002	1	26
450.173	1	24
450.343	1	13
450.514	1	21
450.684	1	17
450.855	1	15
451.025	1	23
451.196	1	23
451.366	1	17
451.537	1	18
451.707	1	5
451.878	1	18
452.048	1	19
452.218	1	24
452.389	1	25
452.559	1	22
452.730	1	20
452.900	1	16
453.071	1	8
453.241	1	20
453.412	1	17
453.582	1	11
453.753	1	18
453.923	1	17
454.093	1	16
454.264	1	34
454.434	1	15
454.605	1	14
454.775	1	14
454.946	1	22
455.116	1	14
455.287	1	7
455.457	1	14
455.628	1	12
455.798	1	22
455.968	1	15
456.139	1	13
456.309	1	18
456.480	1	11
456.650	1	16
456.821	1	14
456.991	1	10
457.161	1	12
457.332	1	22
457.502	1	6
457.673	1	28
457.843	1	19
458.014	1	15
458.184	1	21
458.355	1	14
458.525	1	22
458.695	1	21
458.866	1	20
459.036	1	14
459.207	1	16
459.377	1	8
459.548	1	25
459.718	1	17
459.888	1	23
460.059	1	21
460.229	1	30
460.400	1	28
460.570	1	14
460.740	1	17
460.911	1	16
461.081	1	20
461.252	1	13
461.422	1	13
461.593	1	15
461.763	1	17
461.933	1	20
462.104	1	12
462.274	1	10
462.445	1	16
462.615	1	18
462.785	1	22
462.956	1	25
463.126	1	19
463.297	1	10
463.467	1	15
463.638	1	8
463.808	1	12
463.978	1	11
464.149	1	23
464.319	1	14
464.490	1	33
464.660	1	14
464.830	1	7
465.001	1	13
465.171	1	16
465.342	1	23
465.512	1	0
465.682	1	11
465.853	1	17
466.023	1	17
466.194	1	9
466.364	1	22
466.534	1	18
466.705	1	11
466.875	1	4
467.045	1	10
467.216	1	21
467.386	1	18
467.557	1	3
467.727	1	-4
467.897	1	1
468.068	1	11
468.238	1	16
468.409	1	10
468.579	1	14
468.749	1	15
468.920	1	3
469.090	1	19
469.260	1	1
469.431	1	13
469.601	1	19
469.772	1	9
469.942	1	13
470.112	1	13
470.283	1	14
470.453	1	17
470.623	1	11
470.794	1	8
470.964	1	14
471.135	1	14
471.305	1	5
471.475	1	21
471.646	1	8
471.816	1	1
471.986	1	9
472.157	1	18
472.327	1	1
472.497	1	14
472.668	1	12
472.838	1	10
473.009	1	12
473.179	1	-2
473.349	1	5
473.520	1	16
473.690	1	12
473.860	1	18
474.031	1	6
474.201	1	12
474.371	1	20
474.542	1	16
474.712	1	10
474.882	1	10
475.053	1	21
475.223	1	7
475.394	1	14
475.564	1	9
475.734	1	18
475.905	1	23
476.075	1	8
476.245	1	22
476.416	1	12
476.586	1	19
476.756	1	18
476.927	1	20
477.097	1	15
477.267	1	0
477.438	1	16
477.608	1	11
477.778	1	10
477.949	1	14
478.119	1	21
478.289	1	14
478.460	1	24
478.630	1	18
478.800	1	7
478.971	1	9
479.141	1	9
479.311	1	5
479.482	1	12
479.652	1	-5
479.822	1	20
479.993	1	9
480.163	1	14
480.333	1	17
480.504	1	10
480.674	1	6
480.844	1	10
481.015	1	9
481.185	1	8
481.355	1	12
481.525	1	8
481.696	1	7
481.866	1	14
482.036	1	15
482.207	1	7
482.377	1	15
482.547	1	13
482.718	1	1
482.888	1	21
483.058	1	11
483.229	1	7
483.399	1	10
483.569	1	9
483.740	1	19
483.910	1	11
484.080	1	15
484.250	1	16
484.421	1	3
484.591	1	21
484.761	1	19
484.932	1	14
485.102	1	18
485.272	1	17
485.443	1	17
485.613	1	16
485.783	1	9
485.953	1	7
486.124	1	15
486.294	1	7
486.464	1	13
486.635	1	16
486.805	1	11
486.975	1	14
487.146	1	13
487.316	1	8
487.486	1	11
487.656	1	5
487.827	1	1
487.997	1	-4
488.167	1	3
488.338	1	12
488.508	1	2
488.678	1	7
488.848	1	19
489.019	1	13
489.189	1	17
489.359	1	8
489.529	1	14
489.700	1	9
489.870	1	17
490.040	1	-6
490.211	1	1
490.381	1	13
490.551	1	8
490.721	1	20
490.892	1	7
491.062	1	12
491.232	1	8
491.402	1	8
491.573	1	-4
491.743	1	4
491.913	1	6
492.084	1	14
492.254	1	1
492.424	1	10
492.594	1	8
492.765	1	10
492.935	1	10
493.105	1	8
493.275	1	10
493.446	1	9
493.616	1	3
493.786	1	5
493.956	1	0
494.127	1	7
494.297	1	13
494.467	1	10
494.637	1	11
494.808	1	5
494.978	1	-2
495.148	1	9
495.318	1	7
495.489	1	22
495.659	1	11
495.829	1	-3
495.999	1	8
496.170	1	16
496.340	1	10
496.510	1	5
496.680	1	0
496.851	1	21
497.021	1	8
497.191	1	4
497.361	1	11
497.532	1	7
497.702	1	4
497.872	1	9
498.042	1	17
498.213	1	-1
498.383	1	5
498.553	1	1
498.723	1	9
498.894	1	9
499.064	1	6
499.234	1	5
499.404	1	7
499.574	1	13
499.745	1	18
499.915	1	9
500.085	1	4
500.255	1	10
500.426	1	7
500.596	1	19
500.766	1	11
500.936	1	9
501.106	1	-2
501.277	1	9
501.447	1	3
501.617	1	3
501.787	1	9
501.958	1	10
502.128	1	12
502.298	1	6
502.468	1	8
502.638	1	11
502.809	1	7
502.979	1	4
503.149	1	2
503.319	1	1
503.489	1	3
503.660	1	8
503.830	1	10
504.000	1	15
504.170	1	0
504.340	1	-1
504.511	1	7
504.681	1	11
504.851	1	17
505.021	1	13
505.192	1	-2
505.362	1	18
505.532	1	12
505.702	1	3
505.872	1	6
506.043	1	-3
506.213	1	4
506.383	1	2
506.553	1	7
506.723	1	10
506.893	1	11
507.064	1	15
507.234	1	-2
507.404	1	1
507.574	1	7
507.744	1	8
507.915	1	3
508.085	1	19
508.255	1	3
508.425	1	-1
508.595	1	5
508.766	1	13
508.936	1	-1
509.106	1	15
509.276	1	1
509.446	1	-2
509.616	1	5
509.787	1	11
509.957	1	7
510.127	1	8
510.297	1	12
510.467	1	6
510.638	1	8
510.808	1	-5
510.978	1	-5
511.148	1	-3
511.318	1	4
511.488	1	-8
511.659	1	2
511.829	1	0
511.999	1	5
512.169	1	13
512.339	1	2
512.509	1	9
512.680	1	5
512.850	1	-1
513.020	1	14
513.190	1	7
513.360	1	-2
513.530	1	6
513.700	1	8
513.871	1	9
514.041	1	3
514.211	1	9
514.381	1	3
514.551	1	6
514.721	1	5
514.892	1	4
515.062	1	2
515.232	1	9
515.402	1	5
515.572	1	-9
515.742	1	12
515.912	1	7
516.083	1	7
516.253	1	18
516.423	1	9
516.593	1	2
516.763	1	11
516.933	1	-5
517.104	1	4
517.274	1	4
517.444	1	8
517.614	1	0
517.784	1	10
517.954	1	6
518.124	1	3
518.294	1	0
518.465	1	-3
518.635	1	-5
518.805	1	-9
518.975	1	4
519.145	1	-1
519.315	1	11
519.485	1	3
519.656	1	14
519.826	1	2
519.996	1	1
520.166	1	12
520.336	1	12
520.506	1	2
520.676	1	-4
520.846	1	9
521.017	1	3
521.187	1	0
521.357	1	12
521.527	1	-1
521.697	1	5
521.867	1	-1
522.037	1	15
522.207	1	10
522.377	1	7
522.548	1	7
522.718	1	7
522.888	1	22
523.058	1	5
523.228	1	12
523.398	1	1
523.568	1	5
523.738	1	1
523.909	1	13
524.079	1	5
524.249	1	10
524.419	1	-4
524.589	1	4
524.759	1	0
524.929	1	-4
525.099	1	2
525.269	1	5
525.439	1	7
525.610	1	20
525.780	1	11
525.950	1	7
526.120	1	3
526.290	1	-2
526.460	1	-5
526.630	1	5
526.800	1	6
526.970	1	10
527.140	1	12
527.311	1	-2
527.481	1	4
527.651	1	4
527.821	1	0
527.991	1	1
528.161	1	10
528.331	1	1
528.501	1	1
528.671	1	0
528.841	1	1
529.011	1	4
529.181	1	-2
529.352	1	-3
529.522	1	0
529.692	1	6
529.862	1	-1
530.032	1	9
530.202	1	10
530.372	1	13
530.542	1	1
530.712	1	8
530.882	1	6
531.052	1	11
531.222	1	6
531.392	1	-1
531.563	1	7
531.733	1	6
531.903	1	0
532.073	1	13
532.243	1	-1
532.413	1	9
532.583	1	-2
532.753	1	2
532.923	1	-3
533.093	1	10
533.263	1	7
533.433	1	3
533.603	1	8
533.773	1	6
533.943	1	1
534.113	1	13
534.284	1	11
534.454	1	14
534.624	1	5
534.794	1	-9
534.964	1	5
535.134	1	-8
535.304	1	2
535.474	1	13
535.644	1	0
535.814	1	2
535.984	1	-4
536.154	1	-3
536.324	1	-4
536.494	1	12
536.664	1	-2
536.834	1	0
537.004	1	-5
537.174	1	8
537.344	1	-1
537.514	1	-10
537.685	1	-1
537.855	1	11
538.025	1	8
538.195	1	-3
538.365	1	8
538.535	1	3
538.705	1	0
538.875	1	2
539.045	1	4
539.215	1	11
539.385	1	0
539.555	1	10
539.725	1	3
539.895	1	3
540.065	1	16
540.235	1	7
540.405	1	0
540.575	1	8
540.745	1	7
540.915	1	5
541.085	1	-1
541.255	1	0
541.425	1	15
541.595	1	-3
541.765	1	6
541.935	1	-3
542.105	1	-2
542.275	1	-2
542.445	1	-1
542.615	1	10
542.785	1	9
542.955	1	4
543.125	1	1
543.295	1	4
543.465	1	1
543.635	1	3
543.805	1	8
543.975	1	6
544.145	1	9
544.315	1	-4
544.485	1	12
544.655	1	3
544.825	1	-1
544.995	1	-1
545.165	1	4
545.335	1	11
545.505	1	2
545.675	1	7
545.845	1	4
546.015	1	12
546.185	1	7
546.355	1	8
546.525	1	2
546.695	1	5
546.865	1	0
547.035	1	12
547.205	1	-6
547.375	1	6
547.545	1	2
547.715	1	6
547.885	1	8
548.055	1	-6
548.225	1	7
548.395	1	0
548.565	1	4
548.735	1	-3
548.905	1	-2
549.075	1	16
549.245	1	-3
549.415	1	-3
549.585	1	15
549.755	1	7
549.925	1	-7
550.095	1	2
550.265	1	-9
550.435	1	0
550.605	1	-4
550.775	1	11
550.945	1	7
551.115	1	3
551.285	1	2
551.455	1	-8
551.625	1	12
551.795	1	7
551.965	1	1
552.135	1	0
552.305	1	-2
552.475	1	-10
552.645	1	11
552.815	1	1
552.985	1	11
553.155	1	7
553.325	1	3
553.495	1	-3
553.665	1	-2
553.835	1	2
554.004	1	7
554.174	1	1
554.344	1	3
554.514	1	9
554.684	1	8
554.854	1	13
555.024	1	-4
555.194	1	-4
555.364	1	-2
555.534	1	1
555.704	1	2
555.874	1	-4
556.044	1	0
556.214	1	-5
556.384	1	2
556.554	1	8
556.724	1	3
556.894	1	-7
557.064	1	6
557.234	1	-5
557.404	1	15
557.573	1	-1
557.743	1	2
557.913	1	-8
558.083	1	-7
558.253	1	10
558.423	1	1
558.593	1	-1
558.763	1	2
558.933	1	-3
559.103	1	8
559.273	1	6
559.443	1	7
559.613	1	17
559.783	1	5
559.953	1	2
560.122	1	12
560.292	1	0
560.462	1	3
560.632	1	5
560.802	1	6
560.972	1	6
561.142	1	3
561.312	1	-6
561.482	1	3
561.652	1	9
561.822	1	0
561.992	1	-11
562.162	1	-2
562.331	1	7
562.501	1	-4
562.671	1	5
562.841	1	-7
563.011	1	6
563.181	1	3
563.351	1	0
563.521	1	-1
563.691	1	-6
563.861	1	5
564.031	1	7
564.201	1	19
564.370	1	-1
564.540	1	3
564.710	1	-7
564.880	1	9
565.050	1	11
565.220	1	-1
565.390	1	5
565.560	1	9
565.730	1	-3
565.900	1	10
566.069	1	8
566.239	1	-2
566.409	1	6
566.579	1	5
566.749	1	-4
566.919	1	17
567.089	1	7
567.259	1	14
567.429	1	0
567.599	1	-3
567.768	1	8
567.938	1	-6
568.108	1	4
568.278	1	6
568.448	1	-5
568.618	1	4
568.788	1	9
568.958	1	-2
569.128	1	9
569.297	1	0
569.467	1	-5
569.637	1	8
569.807	1	1
569.977	1	13
570.147	1	8
570.317	1	-3
570.487	1	-1
570.656	1	6
570.826	1	0
570.996	1	1
571.166	1	8
571.336	1	-5
571.506	1	9
571.676	1	1
571.846	1	6
572.015	1	0
572.185	1	-1
572.355	1	7
572.525	1	1
572.695	1	-2
572.865	1	1
573.035	1	3
573.205	1	9
573.374	1	-3
573.544	1	-7
573.714	1	9
573.884	1	14
574.054	1	5
574.224	1	5
574.394	1	2
574.563	1	0
574.733	1	0
574.903	1	-7
575.073	1	8
575.243	1	-1
575.413	1	4
575.583	1	-7
575.752	1	7
575.922	1	8
576.092	1	-1
576.262	1	6
576.432	1	-1
576.602	1	0
576.772	1	13
576.941	1	0
577.111	1	-6
577.281	1	-9
577.451	1	-1
577.621	1	11
577.791	1	7
577.960	1	2
578.130	1	0
578.300	1	10
578.470	1	7
578.640	1	7
578.810	1	-4
578.979	1	1
579.149	1	0
579.319	1	-5
579.489	1	0
579.659	1	0
579.829	1	6
579.998	1	8
580.168	1	18
580.338	1	4
580.508	1	3
580.678	1	0
580.848	1	-4
581.017	1	-2
581.187	1	5
581.357	1	-8
581.527	1	12
581.697	1	14
581.867	1	2
582.036	1	0
582.206	1	2
582.376	1	12
582.546	1	-5
582.716	1	-4
582.885	1	-5
583.055	1	6
583.225	1	-9
583.395	1	5
583.565	1	3
583.735	1	-2
583.904	1	5
584.074	1	5
584.244	1	3
584.414	1	3
584.584	1	4
584.753	1	-8
584.923	1	3
585.093	1	8
585.263	1	3
585.433	1	10
585.602	1	-8
585.772	1	-1
585.942	1	2
586.112	1	3
586.282	1	-9
586.451	1	-1
586.621	1	-5
586.791	1	2
586.961	1	5
587.131	1	5
587.300	1	1
587.470	1	2
587.640	1	11
587.810	1	-3
587.980	1	-9
588.149	1	13
588.319	1	-4
588.489	1	-4
588.659	1	-6
588.829	1	3
588.998	1	7
589.168	1	18
589.338	1	1
589.508	1	10
589.677	1	-14
589.847	1	-7
590.017	1	21
590.187	1	-2
590.357	1	11
590.526	1	6
590.696	1	3
590.866	1	12
591.036	1	-4
591.205	1	14
591.375	1	-5
591.545	1	4
591.715	1	7
591.885	1	0
592.054	1	4
592.224	1	2
592.394	1	-1
592.564	1	3
592.733	1	7
592.903	1	6
593.073	1	4
593.243	1	2
593.412	1	6
593.582	1	5
593.752	1	0
593.922	1	10
594.091	1	5
594.261	1	-2
594.431	1	-6
594.601	1	8
594.771	1	15
594.940	1	4
595.110	1	4
595.280	1	-1
595.450	1	-1
595.619	1	-7
595.789	1	-3
595.959	1	15
596.129	1	-4
596.298	1	-3
596.468	1	4
596.638	1	1
596.808	1	7
596.977	1	7
597.147	1	1
597.317	1	-11
597.487	1	11
597.656	1	8
597.826	1	9
597.996	1	6
598.166	1	-4
598.335	1	-4
598.505	1	3
598.675	1	2
598.844	1	2
599.014	1	0
599.184	1	5
599.354	1	3
599.523	1	0
599.693	1	-2
599.863	1	-1
600.033	1	2
600.202	1	7
600.372	1	-6
600.542	1	18
600.712	1	-9
600.881	1	2
601.051	1	9
601.221	1	9
601.390	1	-5
601.560	1	5
601.730	1	2
601.900	1	6
602.069	1	1
602.239	1	-3
602.409	1	0
602.578	1	4
602.748	1	3
602.918	1	2
603.088	1	4
603.257	1	8
603.427	1	-9
603.597	1	4
603.767	1	2
603.936	1	14
604.106	1	-7
604.276	1	-2
604.445	1	-1
604.615	1	-3
604.785	1	0
604.954	1	2
605.124	1	0
605.294	1	-6
605.464	1	-3
605.633	1	5
605.803	1	5
605.973	1	-4
606.142	1	4
606.312	1	4
606.482	1	4
606.652	1	6
606.821	1	2
606.991	1	5
607.161	1	-2
607.330	1	9
607.500	1	1
607.670	1	4
607.839	1	6
608.009	1	17
608.179	1	5
608.348	1	11
608.518	1	-5
608.688	1	10
608.858	1	-5
609.027	1	-7
609.197	1	10
609.367	1	12
609.536	1	-5
609.706	1	8
609.876	1	3
610.045	1	5
610.215	1	-2
610.385	1	8
610.554	1	-3
610.724	1	2
610.894	1	6
611.063	1	-4
611.233	1	-2
611.403	1	8
611.572	1	8
611.742	1	4
611.912	1	1
612.081	1	2
612.251	1	2
612.421	1	-3
612.590	1	3
612.760	1	9
612.930	1	-2
613.099	1	1
613.269	1	10
613.439	1	14
613.608	1	0
613.778	1	-3
613.948	1	9
614.117	1	9
614.287	1	9
614.457	1	8
614.626	1	7
614.796	1	8
614.966	1	-2
615.135	1	7
615.305	1	15
615.475	1	-1
615.644	1	5
615.814	1	6
615.984	1	-1
616.153	1	-7
616.323	1	4
616.493	1	3
616.662	1	16
616.832	1	5
617.002	1	3
617.171	1	-3
617.341	1	-3
617.511	1	-1
617.680	1	-4
617.850	1	13
618.019	1	10
618.189	1	10
618.359	1	1
618.528	1	-3
618.698	1	6
618.868	1	-2
619.037	1	-6
619.207	1	1
619.377	1	-5
619.546	1	-3
619.716	1	0
619.885	1	6
620.055	1	-1
620.225	1	1
620.394	1	-6
620.564	1	9
620.734	1	6
620.903	1	-5
621.073	1	6
621.242	1	7
621.412	1	-8
621.582	1	3
621.751	1	5
621.921	1	2
622.091	1	-7
622.260	1	2
622.430	1	11
622.599	1	-4
622.769	1	6
622.939	1	4
623.108	1	13
623.278	1	-15
623.448	1	3
623.617	1	-2
623.787	1	0
623.956	1	6
624.126	1	3
624.296	1	2
624.465	1	1
624.635	1	5
624.804	1	-3
624.974	1	8
625.144	1	7
625.313	1	4
625.483	1	-9
625.652	1	-5
625.822	1	-1
625.992	1	-1
626.161	1	13
626.331	1	0
626.501	1	12
626.670	1	8
626.840	1	-4
627.009	1	3
627.179	1	14
627.348	1	3
627.518	1	4
627.688	1	4
627.857	1	-1
628.027	1	-8
628.196	1	3
628.366	1	18
628.536	1	7
628.705	1	-3
628.875	1	8
629.044	1	-4
629.214	1	5
629.384	1	5
629.553	1	15
629.723	1	6
629.892	1	4
630.062	1	7
630.232	1	0
630.401	1	10
630.571	1	5
630.740	1	12
630.910	1	8
631.079	1	4
631.249	1	-1
631.419	1	2
631.588	1	-3
631.758	1	9
631.927	1	-5
632.097	1	5
632.266	1	-3
632.436	1	7
632.606	1	-2
632.775	1	2
632.945	1	8
633.114	1	3
633.284	1	12
633.453	1	4
633.623	1	7
633.793	1	-1
633.962	1	11
634.132	1	-1
634.301	1	1
634.471	1	11
634.640	1	13
634.810	1	9
634.979	1	6
635.149	1	24
635.319	1	-10
635.488	1	-2
635.658	1	-7
635.827	1	6
635.997	1	0
636.166	1	-4
636.336	1	-6
636.505	1	8
636.675	1	-2
636.845	1	7
637.014	1	7
637.184	1	15
637.353	1	3
637.523	1	15
637.692	1	4
637.862	1	2
638.031	1	8
638.201	1	1
638.370	1	8
638.540	1	9
638.710	1	-3
638.879	1	4
639.049	1	-1
639.218	1	7
639.388	1	-3
639.557	1	1
639.727	1	2
639.896	1	4
640.066	1	2
640.235	1	8
640.405	1	13
640.574	1	2
640.744	1	-5
640.914	1	10
641.083	1	0
641.253	1	-2
641.422	1	5
641.592	1	9
641.761	1	-1
641.931	1	-7
642.100	1	19
642.270	1	0
642.439	1	11
642.609	1	11
642.778	1	0
642.948	1	5
643.117	1	11
643.287	1	9
643.456	1	-4
643.626	1	19
643.795	1	3
643.965	1	9
644.134	1	1
644.304	1	4
644.473	1	5
644.643	1	7
644.812	1	4
644.982	1	7
645.151	1	2
645.321	1	-8
645.490	1	14
645.660	1	0
645.829	1	1
645.999	1	8
646.168	1	5
646.338	1	3
646.507	1	1
646.677	1	9
646.846	1	-1
647.016	1	-2
647.185	1	6
647.355	1	-4
647.524	1	12
647.694	1	15
647.863	1	-1
648.033	1	0
648.202	1	7
648.372	1	-5
648.541	1	6
648.711	1	3
648.880	1	-4
649.050	1	-3
649.219	1	1
649.389	1	12
649.558	1	6
649.728	1	8
649.897	1	-14
650.067	1	13
650.236	1	8
650.406	1	-4
650.575	1	7
650.745	1	14
650.914	1	9
651.084	1	-4
651.253	1	8
651.423	1	11
651.592	1	1
651.762	1	1
651.931	1	11
652.101	1	5
652.270	1	7
652.440	1	5
652.609	1	4
652.778	1	-2
652.948	1	14
653.117	1	4
653.287	1	-1
653.456	1	4
653.626	1	7
653.795	1	15
653.965	1	0
654.134	1	14
654.304	1	-11
654.473	1	7
654.643	1	10
654.812	1	3
654.982	1	8
655.151	1	0
655.320	1	16
655.490	1	-3
655.659	1	4
655.829	1	-1
655.998	1	5
656.168	1	0
656.337	1	6
656.507	1	11
656.676	1	13
656.846	1	13
657.015	1	10
657.184	1	8
657.354	1	6
657.523	1	2
657.693	1	11
657.862	1	5
658.032	1	12
658.201	1	10
658.371	1	16
658.540	1	0
658.709	1	3
658.879	1	11
659.048	1	10
659.218	1	-2
659.387	1	5
659.557	1	9
659.726	1	1
659.895	1	-2
660.065	1	-1
660.234	1	4
660.404	1	3
660.573	1	6
660.743	1	6
660.912	1	9
661.081	1	12
661.251	1	4
661.420	1	8
661.590	1	10
661.759	1	14
661.929	1	17
662.098	1	12
662.267	1	4
662.437	1	11
662.606	1	3
662.776	1	6
662.945	1	10
663.115	1	6
663.284	1	-4
663.453	1	6
663.623	1	2
663.792	1	10
663.962	1	8
664.131	1	12
664.300	1	17
664.470	1	0
664.639	1	11
664.809	1	2
664.978	1	5
665.148	1	-5
665.317	1	10
665.486	1	13
665.656	1	1
665.825	1	10
665.995	1	5
666.164	1	3
666.333	1	1
666.503	1	5
666.672	1	-3
666.842	1	5
667.011	1	5
667.180	1	8
667.350	1	-1
667.519	1	8
667.689	1	14
667.858	1	15
668.027	1	11
668.197	1	-9
668.366	1	-17
668.536	1	8
668.705	1	4
668.874	1	10
669.044	1	3
669.213	1	8
669.382	1	0
669.552	1	9
669.721	1	10
669.891	1	11
670.060	1	13
670.229	1	12
670.399	1	1
670.568	1	7
670.738	1	20
670.907	1	-2
671.076	1	-4
671.246	1	5
671.415	1	4
671.584	1	2
671.754	1	5
671.923	1	5
672.093	1	13
672.262	1	-8
672.431	1	8
672.601	1	3
672.770	1	2
672.939	1	12
673.109	1	4
673.278	1	2
673.448	1	11
673.617	1	3
673.786	1	7
