325.333	1	2
325.504	1	5
325.675	1	2
325.846	1	-2
326.017	1	-6
326.188	1	1
326.359	1	1
326.531	1	-12
326.702	1	-8
326.873	1	10
327.044	1	-15
327.215	1	-5
327.386	1	0
327.557	1	-3
327.728	1	1
327.899	1	5
328.070	1	0
328.241	1	-7
328.412	1	-16
328.583	1	-3
328.754	1	0
328.926	1	13
329.097	1	-4
329.268	1	12
329.439	1	-6
329.610	1	-3
329.781	1	-5
329.952	1	9
330.123	1	-8
330.294	1	-6
330.465	1	-3
330.636	1	4
330.807	1	-13
330.978	1	2
331.149	1	0
331.320	1	-3
331.492	1	-9
331.663	1	5
331.834	1	7
332.005	1	1
332.176	1	10
332.347	1	3
332.518	1	-5
332.689	1	0
332.860	1	4
333.031	1	6
333.202	1	-7
333.373	1	0
333.544	1	5
333.715	1	0
333.886	1	-3
334.057	1	1
334.228	1	-14
334.399	1	7
334.570	1	-1
334.741	1	-2
334.912	1	9
335.084	1	11
335.255	1	7
335.426	1	-6
335.597	1	1
335.768	1	-3
335.939	1	4
336.110	1	-5
336.281	1	-1
336.452	1	-9
336.623	1	-3
336.794	1	4
336.965	1	-2
337.136	1	13
337.307	1	-1
337.478	1	-5
337.649	1	-2
337.820	1	-5
337.991	1	-2
338.162	1	-1
338.333	1	-5
338.504	1	-3
338.675	1	-1
338.846	1	2
339.017	1	-3
339.188	1	-2
339.359	1	-8
339.530	1	-1
339.701	1	12
339.872	1	5
340.043	1	-6
340.214	1	-2
340.385	1	11
340.556	1	-4
340.727	1	-5
340.898	1	9
341.069	1	-1
341.240	1	5
341.411	1	1
341.582	1	6
341.753	1	-8
341.924	1	-2
342.095	1	-4
342.266	1	3
342.437	1	7
342.608	1	-3
342.779	1	8
342.950	1	8
343.121	1	3
343.292	1	-7
343.463	1	2
343.634	1	-2
343.805	1	4
343.976	1	-1
344.147	1	-1
344.318	1	-6
344.489	1	-6
344.660	1	7
344.831	1	-5
345.002	1	-12
345.173	1	11
345.344	1	-12
345.515	1	-5
345.686	1	-9
345.857	1	-2
346.028	1	5
346.199	1	-9
346.370	1	-9
346.541	1	5
346.712	1	-9
346.883	1	1
347.054	1	4
347.225	1	6
347.396	1	-3
347.567	1	-5
347.738	1	-11
347.909	1	14
348.080	1	-8
348.251	1	4
348.422	1	5
348.593	1	1
348.764	1	2
348.935	1	4
349.106	1	-10
349.277	1	-2
349.448	1	5
349.619	1	-2
349.790	1	-3
349.961	1	4
350.132	1	-3
350.303	1	-2
350.474	1	7
350.645	1	-6
350.816	1	-2
350.987	1	-4
351.157	1	-9
351.328	1	9
351.499	1	4
351.670	1	-3
351.841	1	2
352.012	1	7
352.183	1	8
352.354	1	-3
352.525	1	0
352.696	1	2
352.867	1	0
353.038	1	-1
353.209	1	0
353.380	1	-1
353.551	1	-8
353.722	1	-3
353.893	1	-6
354.064	1	9
354.235	1	4
354.406	1	-6
354.576	1	-2
354.747	1	-2
354.918	1	4
355.089	1	-4
355.260	1	9
355.431	1	11
355.602	1	-5
355.773	1	2
355.944	1	3
356.115	1	-5
356.286	1	-3
356.457	1	-7
356.628	1	6
356.799	1	8
356.970	1	12
357.141	1	7
357.311	1	-7
357.482	1	-5
357.653	1	3
357.824	1	7
357.995	1	-5
358.166	1	-7
358.337	1	1
358.508	1	0
358.679	1	2
358.850	1	-1
359.021	1	-13
359.192	1	-6
359.363	1	-6
359.533	1	2
359.704	1	-2
359.875	1	-7
360.046	1	-1
360.217	1	-4
360.388	1	-4
360.559	1	-2
360.730	1	-2
360.901	1	-3
361.072	1	13
361.243	1	-5
361.414	1	-3
361.584	1	-7
361.755	1	5
361.926	1	8
362.097	1	-11
362.268	1	7
362.439	1	-9
362.610	1	10
362.781	1	-1
362.952	1	-10
363.123	1	-4
363.293	1	-5
363.464	1	-3
363.635	1	8
363.806	1	-6
363.977	1	-2
364.148	1	5
364.319	1	4
364.490	1	0
364.661	1	-1
364.832	1	3
365.002	1	12
365.173	1	-2
365.344	1	3
365.515	1	-10
365.686	1	-4
365.857	1	4
366.028	1	2
366.199	1	-9
366.370	1	0
366.540	1	-12
366.711	1	-23
366.882	1	-9
367.053	1	-15
367.224	1	13
367.395	1	7
367.566	1	11
367.737	1	3
367.908	1	8
368.078	1	-6
368.249	1	7
368.420	1	-4
368.591	1	0
368.762	1	1
368.933	1	1
369.104	1	-15
369.274	1	9
369.445	1	-7
369.616	1	1
369.787	1	8
369.958	1	10
370.129	1	-11
370.300	1	6
370.471	1	1
370.641	1	-2
370.812	1	-1
370.983	1	-7
371.154	1	-6
371.325	1	5
371.496	1	2
371.667	1	-8
371.837	1	-8
372.008	1	2
372.179	1	-3
372.350	1	5
372.521	1	0
372.692	1	-5
372.863	1	-1
373.033	1	-20
373.204	1	-6
373.375	1	2
373.546	1	2
373.717	1	2
373.888	1	6
374.059	1	4
374.229	1	5
374.400	1	-10
374.571	1	1
374.742	1	8
374.913	1	5
375.084	1	-3
375.254	1	9
375.425	1	1
375.596	1	9
375.767	1	3
375.938	1	0
376.109	1	7
376.279	1	-3
376.450	1	-8
376.621	1	4
376.792	1	-3
376.963	1	6
377.134	1	1
377.304	1	1
377.475	1	3
377.646	1	4
377.817	1	1
377.988	1	1
378.159	1	0
378.329	1	9
378.500	1	0
378.671	1	-5
378.842	1	-2
379.013	1	-16
379.184	1	-9
379.354	1	9
379.525	1	-9
379.696	1	0
379.867	1	0
380.038	1	1
380.209	1	0
380.379	1	-5
380.550	1	-17
380.721	1	-1
380.892	1	-2
381.063	1	-3
381.233	1	1
381.404	1	-10
381.575	1	0
381.746	1	0
381.917	1	4
382.087	1	-1
382.258	1	4
382.429	1	7
382.600	1	0
382.771	1	5
382.941	1	-7
383.112	1	-9
383.283	1	6
383.454	1	-2
383.625	1	-11
383.795	1	4
383.966	1	-6
384.137	1	4
384.308	1	8
384.479	1	-2
384.649	1	3
384.820	1	-6
384.991	1	-7
385.162	1	3
385.333	1	-3
385.503	1	-5
385.674	1	-9
385.845	1	9
386.016	1	8
386.187	1	0
386.357	1	-4
386.528	1	7
386.699	1	-2
386.870	1	5
387.041	1	-4
387.211	1	2
387.382	1	2
387.553	1	6
387.724	1	-8
387.894	1	3
388.065	1	-3
388.236	1	-2
388.407	1	-7
388.578	1	-9
388.748	1	-11
388.919	1	6
389.090	1	-9
389.261	1	0
389.431	1	6
389.602	1	5
389.773	1	5
389.944	1	1
390.114	1	-16
390.285	1	-8
390.456	1	0
390.627	1	1
390.798	1	4
390.968	1	2
391.139	1	-2
391.310	1	-4
391.481	1	11
391.651	1	3
391.822	1	-8
391.993	1	-2
392.164	1	-15
392.334	1	0
392.505	1	-5
392.676	1	4
392.847	1	0
393.017	1	8
393.188	1	6
393.359	1	-7
393.530	1	-1
393.700	1	4
393.871	1	-2
394.042	1	2
394.213	1	-9
394.383	1	0
394.554	1	1
394.725	1	2
394.896	1	-4
395.066	1	3
395.237	1	-17
395.408	1	1
395.579	1	-2
395.749	1	1
395.920	1	-1
396.091	1	6
396.262	1	-4
396.432	1	0
396.603	1	8
396.774	1	-2
396.945	1	3
397.115	1	1
397.286	1	-2
397.457	1	-4
397.627	1	-4
397.798	1	-4
397.969	1	-17
398.140	1	-15
398.310	1	1
398.481	1	-5
398.652	1	-2
398.823	1	-1
398.993	1	-10
399.164	1	0
399.335	1	6
399.505	1	-7
399.676	1	-7
399.847	1	-2
400.018	1	-8
400.188	1	-9
400.359	1	9
400.530	1	-5
400.700	1	-1
400.871	1	2
401.042	1	5
401.213	1	2
401.383	1	-11
401.554	1	5
401.725	1	5
401.895	1	-9
402.066	1	-4
402.237	1	7
402.408	1	-6
402.578	1	-3
402.749	1	-4
402.920	1	6
403.090	1	-1
403.261	1	-1
403.432	1	5
403.603	1	3
403.773	1	7
403.944	1	3
404.115	1	7
404.285	1	10
404.456	1	-1
404.627	1	-2
404.797	1	-5
404.968	1	-3
405.139	1	-14
405.310	1	8
405.480	1	4
405.651	1	-12
405.822	1	-4
405.992	1	-4
406.163	1	-7
406.334	1	-15
406.504	1	1
406.675	1	4
406.846	1	-1
407.016	1	7
407.187	1	8
407.358	1	-5
407.528	1	-4
407.699	1	-7
407.870	1	-6
408.041	1	-3
408.211	1	14
408.382	1	-10
408.553	1	-6
408.723	1	-2
408.894	1	-15
409.065	1	0
409.235	1	-11
409.406	1	-7
409.577	1	-8
409.747	1	13
409.918	1	1
410.089	1	-2
410.259	1	-2
410.430	1	-2
410.601	1	-2
410.771	1	-9
410.942	1	6
411.113	1	5
411.283	1	-6
411.454	1	2
411.625	1	1
411.795	1	11
411.966	1	4
412.137	1	-1
412.307	1	-15
412.478	1	-2
412.649	1	7
412.819	1	-6
412.990	1	5
413.161	1	3
413.331	1	-5
413.502	1	4
413.672	1	0
413.843	1	2
414.014	1	2
414.184	1	2
414.355	1	-6
414.526	1	6
414.696	1	10
414.867	1	0
415.038	1	-15
415.208	1	-6
415.379	1	9
415.550	1	5
415.720	1	-9
415.891	1	-4
416.062	1	1
416.232	1	1
416.403	1	4
416.573	1	1
416.744	1	-7
416.915	1	2
417.085	1	-2
417.256	1	-4
417.427	1	-4
417.597	1	-2
417.768	1	-15
417.939	1	5
418.109	1	3
418.280	1	0
418.450	1	-5
418.621	1	-9
418.792	1	-8
418.962	1	-4
419.133	1	10
419.304	1	3
419.474	1	-7
419.645	1	1
419.815	1	-7
419.986	1	-6
420.157	1	-2
420.327	1	1
420.498	1	11
420.669	1	-3
420.839	1	13
421.010	1	5
421.180	1	3
421.351	1	6
421.522	1	0
421.692	1	0
421.863	1	5
422.033	1	-7
422.204	1	4
422.375	1	-4
422.545	1	9
422.716	1	-4
422.886	1	-6
423.057	1	4
423.228	1	11
423.398	1	-10
423.569	1	12
423.740	1	-4
423.910	1	-7
424.081	1	-2
424.251	1	0
424.422	1	-1
424.593	1	-7
424.763	1	3
424.934	1	-1
425.104	1	2
425.275	1	1
425.445	1	3
425.616	1	2
425.787	1	-9
425.957	1	-8
426.128	1	16
426.298	1	-2
426.469	1	-13
426.640	1	1
426.810	1	0
426.981	1	1
427.151	1	-6
427.322	1	7
427.493	1	4
427.663	1	1
427.834	1	2
428.004	1	3
428.175	1	1
428.345	1	-4
428.516	1	-6
428.687	1	14
428.857	1	-7
429.028	1	0
429.198	1	-1
429.369	1	6
429.540	1	2
429.710	1	-10
429.881	1	-5
430.051	1	11
430.222	1	-4
430.392	1	-4
430.563	1	12
430.734	1	9
430.904	1	3
431.075	1	12
431.245	1	-2
431.416	1	9
431.586	1	-5
431.757	1	-5
431.927	1	-7
432.098	1	4
432.269	1	2
432.439	1	0
432.610	1	-1
432.780	1	5
432.951	1	-6
433.121	1	-1
433.292	1	9
433.462	1	2
433.633	1	-4
433.804	1	4
433.974	1	-1
434.145	1	1
434.315	1	-6
434.486	1	-6
434.656	1	5
434.827	1	-3
434.997	1	3
435.168	1	5
435.339	1	1
435.509	1	9
435.680	1	-1
435.850	1	5
436.021	1	10
436.191	1	3
436.362	1	0
436.532	1	-5
436.703	1	-1
436.873	1	2
437.044	1	-15
437.214	1	-2
437.385	1	-7
437.556	1	-5
437.726	1	15
437.897	1	13
438.067	1	11
438.238	1	-2
438.408	1	1
438.579	1	-2
438.749	1	-8
438.920	1	0
439.090	1	1
439.261	1	-5
439.431	1	-4
439.602	1	5
439.772	1	5
439.943	1	8
440.113	1	3
440.284	1	-5
440.455	1	-3
440.625	1	0
440.796	1	1
440.966	1	-2
441.137	1	-5
441.307	1	0
441.478	1	7
441.648	1	0
441.819	1	2
441.989	1	2
442.160	1	3
442.330	1	9
442.501	1	1
442.671	1	-6
442.842	1	-13
443.012	1	-7
443.183	1	-3
443.353	1	3
443.524	1	-1
443.694	1	5
443.865	1	-9
444.035	1	-2
444.206	1	0
444.376	1	-5
444.547	1	15
444.717	1	11
444.888	1	-4
445.058	1	21
445.229	1	0
445.399	1	2
445.570	1	-2
445.740	1	-6
445.911	1	-6
446.081	1	-8
446.252	1	6
446.422	1	-5
446.593	1	-3
446.763	1	-1
446.934	1	-1
447.104	1	1
447.275	1	11
447.445	1	3
447.616	1	6
447.786	1	1
447.957	1	2
448.127	1	2
448.298	1	7
448.468	1	-4
448.639	1	0
448.809	1	2
448.979	1	-3
449.150	1	-3
449.320	1	10
449.491	1	6
449.661	1	-1
449.832	1	-3
450.002	1	11
450.173	1	4
450.343	1	9
450.514	1	-6
450.684	1	-3
450.855	1	1
451.025	1	0
451.196	1	3
451.366	1	7
451.537	1	-4
451.707	1	-11
451.878	1	0
452.048	1	11
452.218	1	9
452.389	1	0
452.559	1	1
452.730	1	12
452.900	1	-1
453.071	1	-3
453.241	1	3
453.412	1	-2
453.582	1	-6
453.753	1	4
453.923	1	9
454.093	1	4
454.264	1	12
454.434	1	-2
454.605	1	0
454.775	1	0
454.946	1	9
455.116	1	3
455.287	1	-3
455.457	1	-13
455.628	1	-5
455.798	1	6
455.968	1	0
456.139	1	-9
456.309	1	-8
456.480	1	-3
456.650	1	1
456.821	1	-8
456.991	1	0
457.161	1	-1
457.332	1	5
457.502	1	-7
457.673	1	3
457.843	1	5
458.014	1	-6
458.184	1	-2
458.355	1	1
458.525	1	-1
458.695	1	2
458.866	1	0
459.036	1	3
459.207	1	1
459.377	1	-5
459.548	1	6
459.718	1	-3
459.888	1	4
460.059	1	2
460.229	1	5
460.400	1	1
460.570	1	-4
460.740	1	-2
460.911	1	2
461.081	1	3
461.252	1	-2
461.422	1	5
461.593	1	1
461.763	1	3
461.933	1	4
462.104	1	-13
462.274	1	3
462.445	1	7
462.615	1	-11
462.785	1	-4
462.956	1	-2
463.126	1	11
463.297	1	-13
463.467	1	4
463.638	1	1
463.808	1	-5
463.978	1	-6
464.149	1	-1
464.319	1	-6
464.490	1	15
464.660	1	-3
464.830	1	-6
465.001	1	2
465.171	1	6
465.342	1	-3
465.512	1	-2
465.682	1	-6
465.853	1	5
466.023	1	-2
466.194	1	-1
466.364	1	5
466.534	1	4
466.705	1	-2
466.875	1	5
467.045	1	-10
467.216	1	1
467.386	1	1
467.557	1	-6
467.727	1	-3
467.897	1	-5
468.068	1	-3
468.238	1	-4
468.409	1	5
468.579	1	6
468.749	1	-2
468.920	1	-15
469.090	1	4
469.260	1	-4
469.431	1	-1
469.601	1	7
469.772	1	3
469.942	1	-4
470.112	1	-1
470.283	1	1
470.453	1	1
470.623	1	5
470.794	1	-2
470.964	1	0
471.135	1	7
471.305	1	-6
471.475	1	-1
471.646	1	-2
471.816	1	-3
471.986	1	-3
472.157	1	7
472.327	1	-12
472.497	1	6
472.668	1	-4
472.838	1	-7
473.009	1	4
473.179	1	-6
473.349	1	-15
473.520	1	0
473.690	1	-2
473.860	1	-10
474.031	1	3
474.201	1	-3
474.371	1	5
474.542	1	12
474.712	1	-4
474.882	1	9
475.053	1	16
475.223	1	-6
475.394	1	-4
475.564	1	-1
475.734	1	5
475.905	1	6
476.075	1	-3
476.245	1	8
476.416	1	4
476.586	1	16
476.756	1	4
476.927	1	15
477.097	1	0
477.267	1	-7
477.438	1	5
477.608	1	1
477.778	1	0
477.949	1	6
478.119	1	14
478.289	1	4
478.460	1	11
478.630	1	3
478.800	1	5
478.971	1	7
479.141	1	0
479.311	1	-8
479.482	1	-8
479.652	1	-5
479.822	1	2
479.993	1	0
480.163	1	2
480.333	1	-1
480.504	1	6
480.674	1	-6
480.844	1	-13
481.015	1	4
481.185	1	-5
481.355	1	2
481.525	1	-3
481.696	1	1
481.866	1	-2
482.036	1	0
482.207	1	-1
482.377	1	8
482.547	1	4
482.718	1	-10
482.888	1	-4
483.058	1	4
483.229	1	-9
483.399	1	-5
483.569	1	-4
483.740	1	-3
483.910	1	9
484.080	1	-8
484.250	1	-6
484.421	1	5
484.591	1	-4
484.761	1	13
484.932	1	6
485.102	1	11
485.272	1	-1
485.443	1	3
485.613	1	0
485.783	1	-5
485.953	1	1
486.124	1	6
486.294	1	5
486.464	1	7
486.635	1	4
486.805	1	9
486.975	1	0
487.146	1	9
487.316	1	1
487.486	1	1
487.656	1	-9
487.827	1	-1
487.997	1	-9
488.167	1	-11
488.338	1	2
488.508	1	6
488.678	1	-4
488.848	1	6
489.019	1	-4
489.189	1	7
489.359	1	-13
489.529	1	10
489.700	1	-9
489.870	1	17
490.040	1	-13
490.211	1	-5
490.381	1	0
490.551	1	-5
490.721	1	13
490.892	1	-3
491.062	1	4
491.232	1	-2
491.402	1	-1
491.573	1	-5
491.743	1	-3
491.913	1	1
492.084	1	4
492.254	1	-3
492.424	1	5
492.594	1	3
492.765	1	2
492.935	1	-11
493.105	1	-8
493.275	1	0
493.446	1	-2
493.616	1	6
493.786	1	-1
493.956	1	-2
494.127	1	3
494.297	1	0
494.467	1	0
494.637	1	-8
494.808	1	-8
494.978	1	-11
495.148	1	-5
495.318	1	-5
495.489	1	6
495.659	1	-4
495.829	1	-6
495.999	1	-4
496.170	1	4
496.340	1	-4
496.510	1	3
496.680	1	-3
496.851	1	-1
497.021	1	-6
497.191	1	-17
497.361	1	1
497.532	1	-14
497.702	1	-2
497.872	1	-2
498.042	1	3
498.213	1	-3
498.383	1	6
498.553	1	8
498.723	1	-8
498.894	1	-4
499.064	1	1
499.234	1	2
499.404	1	-5
499.574	1	7
499.745	1	-2
499.915	1	-9
500.085	1	1
500.255	1	13
500.426	1	4
500.596	1	1
500.766	1	6
500.936	1	4
501.106	1	-4
501.277	1	-4
501.447	1	5
501.617	1	-2
501.787	1	-4
501.958	1	-6
502.128	1	0
502.298	1	6
502.468	1	-1
502.638	1	8
502.809	1	-1
502.979	1	-8
503.149	1	-10
503.319	1	-10
503.489	1	2
503.660	1	-1
503.830	1	-4
504.000	1	10
504.170	1	-11
504.340	1	-8
504.511	1	8
504.681	1	-7
504.851	1	1
505.021	1	1
505.192	1	-3
505.362	1	9
505.532	1	4
505.702	1	-2
505.872	1	6
506.043	1	-8
506.213	1	2
506.383	1	-4
506.553	1	2
506.723	1	0
506.893	1	-1
507.064	1	-1
507.234	1	-3
507.404	1	-7
507.574	1	0
507.744	1	6
507.915	1	-7
508.085	1	10
508.255	1	5
508.425	1	-6
508.595	1	9
508.766	1	8
508.936	1	-3
509.106	1	8
509.276	1	2
509.446	1	-13
509.616	1	-3
509.787	1	2
509.957	1	3
510.127	1	-5
510.297	1	0
510.467	1	-8
510.638	1	-2
510.808	1	-7
510.978	1	-1
511.148	1	-1
511.318	1	-4
511.488	1	-7
511.659	1	11
511.829	1	-10
511.999	1	2
512.169	1	3
512.339	1	1
512.509	1	-1
512.680	1	-8
512.850	1	0
513.020	1	3
513.190	1	-1
513.360	1	-2
513.530	1	1
513.700	1	4
513.871	1	-2
514.041	1	-3
514.211	1	3
514.381	1	8
514.551	1	10
514.721	1	-6
514.892	1	-3
515.062	1	4
515.232	1	-1
515.402	1	-10
515.572	1	-1
515.742	1	2
515.912	1	-1
516.083	1	-2
516.253	1	9
516.423	1	0
516.593	1	-6
516.763	1	7
516.933	1	-3
517.104	1	-9
517.274	1	-6
517.444	1	-2
517.614	1	-12
517.784	1	0
517.954	1	-4
518.124	1	-3
518.294	1	-4
518.465	1	-1
518.635	1	-5
518.805	1	-7
518.975	1	-9
519.145	1	-7
519.315	1	4
519.485	1	-5
519.656	1	3
519.826	1	-7
519.996	1	-11
520.166	1	2
520.336	1	4
520.506	1	-6
520.676	1	-9
520.846	1	6
521.017	1	-5
521.187	1	-7
521.357	1	6
521.527	1	-4
521.697	1	-1
521.867	1	-2
522.037	1	9
522.207	1	2
522.377	1	2
522.548	1	-4
522.718	1	-6
522.888	1	14
523.058	1	-6
523.228	1	3
523.398	1	4
523.568	1	6
523.738	1	-5
523.909	1	1
524.079	1	5
524.249	1	4
524.419	1	-6
524.589	1	-7
524.759	1	-9
524.929	1	-6
525.099	1	5
525.269	1	-1
525.439	1	-5
525.610	1	11
525.780	1	-1
525.950	1	-6
526.120	1	-10
526.290	1	-1
526.460	1	-9
526.630	1	-4
526.800	1	-8
526.970	1	-6
527.140	1	-2
527.311	1	-7
527.481	1	-4
527.651	1	6
527.821	1	-4
527.991	1	10
528.161	1	1
528.331	1	-2
528.501	1	-1
528.671	1	-3
528.841	1	1
529.011	1	-2
529.181	1	3
529.352	1	-6
529.522	1	2
529.692	1	1
529.862	1	-13
530.032	1	-2
530.202	1	-5
530.372	1	-7
530.542	1	4
530.712	1	4
530.882	1	0
531.052	1	1
531.222	1	7
531.392	1	-3
531.563	1	-2
531.733	1	-3
531.903	1	-4
532.073	1	7
532.243	1	-6
532.413	1	2
532.583	1	-1
532.753	1	2
532.923	1	-12
533.093	1	-8
533.263	1	3
533.433	1	3
533.603	1	6
533.773	1	-3
533.943	1	-5
534.113	1	1
534.284	1	3
534.454	1	-3
534.624	1	10
534.794	1	-18
534.964	1	4
535.134	1	-7
535.304	1	-1
535.474	1	13
535.644	1	-14
535.814	1	-14
535.984	1	-11
536.154	1	0
536.324	1	-9
536.494	1	-1
536.664	1	3
536.834	1	-7
537.004	1	-8
537.174	1	9
537.344	1	-6
537.514	1	-12
537.685	1	-4
537.855	1	3
538.025	1	-7
538.195	1	1
538.365	1	10
538.535	1	-1
538.705	1	-3
538.875	1	-1
539.045	1	-1
539.215	1	7
539.385	1	-1
539.555	1	0
539.725	1	-6
539.895	1	-14
540.065	1	7
540.235	1	0
540.405	1	-14
540.575	1	0
540.745	1	-6
540.915	1	2
541.085	1	12
541.255	1	-14
541.425	1	-2
541.595	1	0
541.765	1	-5
541.935	1	-6
542.105	1	-6
542.275	1	-5
542.445	1	-18
542.615	1	0
542.785	1	5
542.955	1	-4
543.125	1	-15
543.295	1	4
543.465	1	-1
543.635	1	-4
543.805	1	17
543.975	1	-7
544.145	1	8
544.315	1	5
544.485	1	2
544.655	1	8
544.825	1	-14
544.995	1	0
545.165	1	1
545.335	1	5
545.505	1	-6
545.675	1	5
545.845	1	3
546.015	1	6
546.185	1	6
546.355	1	7
546.525	1	4
546.695	1	0
546.865	1	-8
547.035	1	7
547.205	1	-15
547.375	1	-2
547.545	1	6
547.715	1	-5
547.885	1	-6
548.055	1	-5
548.225	1	6
548.395	1	-10
548.565	1	3
548.735	1	1
548.905	1	3
549.075	1	-5
549.245	1	-1
549.415	1	-7
549.585	1	7
549.755	1	6
549.925	1	-11
550.095	1	2
550.265	1	-13
550.435	1	-8
550.605	1	6
550.775	1	7
550.945	1	6
551.115	1	0
551.285	1	-2
551.455	1	-4
551.625	1	2
551.795	1	6
551.965	1	-5
552.135	1	-8
552.305	1	-1
552.475	1	-7
552.645	1	-2
552.815	1	-1
552.985	1	-5
553.155	1	7
553.325	1	2
553.495	1	-5
553.665	1	-7
553.835	1	1
554.004	1	1
554.174	1	-10
554.344	1	4
554.514	1	1
554.684	1	-3
554.854	1	5
555.024	1	-7
555.194	1	-17
555.364	1	0
555.534	1	1
555.704	1	-11
555.874	1	0
556.044	1	5
556.214	1	-8
556.384	1	0
556.554	1	7
556.724	1	1
556.894	1	-6
557.064	1	-3
557.234	1	-8
557.404	1	7
557.573	1	-3
557.743	1	-4
557.913	1	-1
558.083	1	-4
558.253	1	-2
558.423	1	-9
558.593	1	4
558.763	1	-5
558.933	1	-1
559.103	1	5
559.273	1	6
559.443	1	1
559.613	1	13
559.783	1	3
559.953	1	0
560.122	1	7
560.292	1	-1
560.462	1	-2
560.632	1	2
560.802	1	-1
560.972	1	2
561.142	1	-2
561.312	1	2
561.482	1	6
561.652	1	2
561.822	1	-6
561.992	1	2
562.162	1	2
562.331	1	6
562.501	1	-14
562.671	1	-9
562.841	1	-4
563.011	1	5
563.181	1	-7
563.351	1	-1
563.521	1	0
563.691	1	-10
563.861	1	9
564.031	1	4
564.201	1	12
564.370	1	-5
564.540	1	2
564.710	1	-3
564.880	1	4
565.050	1	0
565.220	1	2
565.390	1	5
565.560	1	-1
565.730	1	-9
565.900	1	4
566.069	1	1
566.239	1	0
566.409	1	3
566.579	1	-5
566.749	1	-1
566.919	1	8
567.089	1	5
567.259	1	8
567.429	1	-7
567.599	1	-2
567.768	1	-1
567.938	1	0
568.108	1	1
568.278	1	-8
568.448	1	5
568.618	1	-4
568.788	1	-2
568.958	1	-3
569.128	1	-1
569.297	1	-9
569.467	1	-7
569.637	1	4
569.807	1	-3
569.977	1	-2
570.147	1	5
570.317	1	-3
570.487	1	1
570.656	1	10
570.826	1	-6
570.996	1	-7
571.166	1	6
571.336	1	-1
571.506	1	6
571.676	1	2
571.846	1	5
572.015	1	0
572.185	1	-3
572.355	1	7
572.525	1	-1
572.695	1	0
572.865	1	-8
573.035	1	-3
573.205	1	1
573.374	1	-3
573.544	1	-4
573.714	1	11
573.884	1	14
574.054	1	-2
574.224	1	5
574.394	1	2
574.563	1	-11
574.733	1	-1
574.903	1	2
575.073	1	0
575.243	1	-7
575.413	1	4
575.583	1	3
575.752	1	-8
575.922	1	5
576.092	1	-4
576.262	1	1
576.432	1	4
576.602	1	-13
576.772	1	8
576.941	1	4
577.111	1	-7
577.281	1	-2
577.451	1	-1
577.621	1	2
577.791	1	10
577.960	1	-11
578.130	1	-2
578.300	1	4
578.470	1	9
578.640	1	-4
578.810	1	-2
578.979	1	-6
579.149	1	-5
579.319	1	4
579.489	1	-6
579.659	1	-7
579.829	1	-7
579.998	1	1
580.168	1	4
580.338	1	2
580.508	1	-3
580.678	1	-1
580.848	1	3
581.017	1	-11
581.187	1	2
581.357	1	-5
581.527	1	0
581.697	1	7
581.867	1	5
582.036	1	-3
582.206	1	-3
582.376	1	9
582.546	1	-1
582.716	1	-13
582.885	1	-1
583.055	1	2
583.225	1	-11
583.395	1	7
583.565	1	-9
583.735	1	12
583.904	1	-9
584.074	1	12
584.244	1	6
584.414	1	-12
584.584	1	-2
584.753	1	-3
584.923	1	-3
585.093	1	-2
585.263	1	1
585.433	1	2
585.602	1	-1
585.772	1	-12
585.942	1	-1
586.112	1	-5
586.282	1	-12
586.451	1	-5
586.621	1	-17
586.791	1	1
586.961	1	-6
587.131	1	6
587.300	1	-9
587.470	1	0
587.640	1	3
587.810	1	-6
587.980	1	-10
588.149	1	3
588.319	1	2
588.489	1	-6
588.659	1	2
588.829	1	7
588.998	1	7
589.168	1	6
589.338	1	6
589.508	1	6
589.677	1	-7
589.847	1	0
590.017	1	14
590.187	1	-4
590.357	1	15
590.526	1	9
590.696	1	3
590.866	1	0
591.036	1	5
591.205	1	17
591.375	1	-1
591.545	1	-5
591.715	1	-2
591.885	1	-8
592.054	1	9
592.224	1	2
592.394	1	0
592.564	1	-2
592.733	1	8
592.903	1	-6
593.073	1	0
593.243	1	2
593.412	1	6
593.582	1	0
593.752	1	-6
593.922	1	2
594.091	1	-2
594.261	1	-12
594.431	1	7
594.601	1	9
594.771	1	11
594.940	1	-3
595.110	1	-14
595.280	1	1
595.450	1	5
595.619	1	-17
595.789	1	1
595.959	1	0
596.129	1	1
596.298	1	3
596.468	1	10
596.638	1	1
596.808	1	4
596.977	1	-5
597.147	1	5
597.317	1	-5
597.487	1	7
597.656	1	-4
597.826	1	5
597.996	1	-2
598.166	1	0
598.335	1	-13
598.505	1	-4
598.675	1	-1
598.844	1	3
599.014	1	1
599.184	1	3
599.354	1	-8
599.523	1	5
599.693	1	-3
599.863	1	3
600.033	1	-4
600.202	1	-2
600.372	1	4
600.542	1	5
600.712	1	-6
600.881	1	-3
601.051	1	15
601.221	1	11
601.390	1	-14
601.560	1	4
601.730	1	3
601.900	1	-4
602.069	1	3
602.239	1	-2
602.409	1	-10
602.578	1	-7
602.748	1	2
602.918	1	1
603.088	1	8
603.257	1	6
603.427	1	-12
603.597	1	-2
603.767	1	-3
603.936	1	0
604.106	1	-1
604.276	1	-1
604.445	1	-8
604.615	1	3
604.785	1	6
604.954	1	2
605.124	1	4
605.294	1	-8
605.464	1	-5
605.633	1	-6
605.803	1	6
605.973	1	2
606.142	1	0
606.312	1	-4
606.482	1	-1
606.652	1	12
606.821	1	-5
606.991	1	-4
607.161	1	3
607.330	1	6
607.500	1	-4
607.670	1	-10
607.839	1	0
608.009	1	5
608.179	1	3
608.348	1	0
608.518	1	-2
608.688	1	11
608.858	1	-10
609.027	1	-5
609.197	1	2
609.367	1	6
609.536	1	1
609.706	1	1
609.876	1	3
610.045	1	4
610.215	1	-7
610.385	1	0
610.554	1	2
610.724	1	3
610.894	1	9
611.063	1	-6
611.233	1	-1
611.403	1	-3
611.572	1	-13
611.742	1	8
611.912	1	1
612.081	1	-6
612.251	1	3
612.421	1	-1
612.590	1	5
612.760	1	-3
612.930	1	5
613.099	1	5
613.269	1	16
613.439	1	-5
613.608	1	-5
613.778	1	1
613.948	1	-1
614.117	1	7
614.287	1	17
614.457	1	9
614.626	1	2
614.796	1	3
614.966	1	-3
615.135	1	-8
615.305	1	6
615.475	1	-5
615.644	1	-2
615.814	1	4
615.984	1	-2
616.153	1	-7
616.323	1	-3
616.493	1	-5
616.662	1	4
616.832	1	-1
617.002	1	-6
617.171	1	1
617.341	1	1
617.511	1	-12
617.680	1	-2
617.850	1	1
618.019	1	3
618.189	1	5
618.359	1	-1
618.528	1	-5
618.698	1	-4
618.868	1	-8
619.037	1	2
619.207	1	-7
619.377	1	-1
619.546	1	-2
619.716	1	6
619.885	1	-9
620.055	1	-8
620.225	1	4
620.394	1	-7
620.564	1	10
620.734	1	1
620.903	1	-2
621.073	1	4
621.242	1	1
621.412	1	-3
621.582	1	-7
621.751	1	5
621.921	1	15
622.091	1	-11
622.260	1	2
622.430	1	10
622.599	1	-8
622.769	1	5
622.939	1	-4
623.108	1	3
623.278	1	-12
623.448	1	-9
623.617	1	-4
623.787	1	-11
623.956	1	-3
624.126	1	2
624.296	1	-2
624.465	1	6
624.635	1	6
624.804	1	4
624.974	1	-2
625.144	1	4
625.313	1	-11
625.483	1	-13
625.652	1	0
625.822	1	0
625.992	1	-12
626.161	1	5
626.331	1	5
626.501	1	0
626.670	1	-2
626.840	1	-5
627.009	1	-7
627.179	1	5
627.348	1	3
627.518	1	-1
627.688	1	5
627.857	1	3
628.027	1	-6
628.196	1	-1
628.366	1	-1
628.536	1	3
628.705	1	1
628.875	1	-10
629.044	1	-5
629.214	1	2
629.384	1	11
629.553	1	8
629.723	1	1
629.892	1	-2
630.062	1	-1
630.232	1	3
630.401	1	7
630.571	1	-6
630.740	1	-8
630.910	1	-2
631.079	1	1
631.249	1	-1
631.419	1	10
631.588	1	-8
631.758	1	4
631.927	1	-11
632.097	1	-2
632.266	1	-4
632.436	1	4
632.606	1	-6
632.775	1	3
632.945	1	1
633.114	1	6
633.284	1	0
633.453	1	2
633.623	1	-2
633.793	1	-3
633.962	1	-4
634.132	1	5
634.301	1	0
634.471	1	-3
634.640	1	-1
634.810	1	6
634.979	1	1
635.149	1	5
635.319	1	2
635.488	1	-1
635.658	1	-8
635.827	1	-9
635.997	1	6
636.166	1	2
636.336	1	-8
636.505	1	7
636.675	1	5
636.845	1	5
637.014	1	7
637.184	1	8
637.353	1	-2
637.523	1	8
637.692	1	-3
637.862	1	-2
638.031	1	-1
638.201	1	7
638.370	1	-2
638.540	1	-6
638.710	1	3
638.879	1	-9
639.049	1	5
639.218	1	-2
639.388	1	-12
639.557	1	-13
639.727	1	2
639.896	1	0
640.066	1	-9
640.235	1	1
640.405	1	8
640.574	1	-8
640.744	1	-5
640.914	1	-3
641.083	1	3
641.253	1	-6
641.422	1	-3
641.592	1	7
641.761	1	-7
641.931	1	-5
642.100	1	13
642.270	1	0
642.439	1	7
642.609	1	4
642.778	1	-3
642.948	1	-4
643.117	1	10
643.287	1	2
643.456	1	-4
643.626	1	5
643.795	1	-5
643.965	1	1
644.134	1	-4
644.304	1	1
644.473	1	-3
644.643	1	4
644.812	1	1
644.982	1	-3
645.151	1	-5
645.321	1	-11
645.490	1	5
645.660	1	-9
645.829	1	-8
645.999	1	-9
646.168	1	3
646.338	1	0
646.507	1	-9
646.677	1	5
646.846	1	-9
647.016	1	-7
647.185	1	3
647.355	1	-14
647.524	1	2
647.694	1	5
647.863	1	3
648.033	1	-2
648.202	1	-6
648.372	1	-11
648.541	1	-8
648.711	1	-3
648.880	1	3
649.050	1	-10
649.219	1	1
649.389	1	3
649.558	1	-4
649.728	1	6
649.897	1	-9
650.067	1	0
650.236	1	1
650.406	1	0
650.575	1	3
650.745	1	9
650.914	1	-11
651.084	1	-14
651.253	1	-5
651.423	1	-1
651.592	1	-5
651.762	1	-3
651.931	1	8
652.101	1	-4
652.270	1	4
652.440	1	2
652.609	1	-9
652.778	1	1
652.948	1	12
653.117	1	-4
653.287	1	0
653.456	1	1
653.626	1	0
653.795	1	-5
653.965	1	1
654.134	1	6
654.304	1	-17
654.473	1	1
654.643	1	7
654.812	1	-4
654.982	1	3
655.151	1	-2
655.320	1	-1
655.490	1	-6
655.659	1	4
655.829	1	0
655.998	1	1
656.168	1	2
656.337	1	-2
656.507	1	2
656.676	1	16
656.846	1	4
657.015	1	6
657.184	1	3
657.354	1	1
657.523	1	6
657.693	1	3
657.862	1	7
658.032	1	3
658.201	1	-4
658.371	1	7
658.540	1	4
658.709	1	-5
658.879	1	1
659.048	1	-3
659.218	1	-6
659.387	1	-2
659.557	1	3
659.726	1	6
659.895	1	-9
660.065	1	-9
660.234	1	0
660.404	1	-8
660.573	1	-17
660.743	1	5
660.912	1	0
661.081	1	5
661.251	1	-3
661.420	1	4
661.590	1	-2
661.759	1	7
661.929	1	7
662.098	1	1
662.267	1	-1
662.437	1	6
662.606	1	1
662.776	1	0
662.945	1	-5
663.115	1	1
663.284	1	-3
663.453	1	-6
663.623	1	3
663.792	1	3
663.962	1	-9
664.131	1	6
664.300	1	4
664.470	1	-7
664.639	1	4
664.809	1	-3
664.978	1	2
665.148	1	13
665.317	1	-4
665.486	1	4
665.656	1	-10
665.825	1	1
665.995	1	-5
666.164	1	-4
666.333	1	2
666.503	1	2
666.672	1	-13
666.842	1	-3
667.011	1	-10
667.180	1	10
667.350	1	5
667.519	1	1
667.689	1	-7
667.858	1	7
668.027	1	8
668.197	1	-10
668.366	1	-14
668.536	1	4
668.705	1	2
668.874	1	-1
669.044	1	-1
669.213	1	4
669.382	1	-9
669.552	1	7
669.721	1	2
669.891	1	1
670.060	1	13
670.229	1	5
670.399	1	-16
670.568	1	6
670.738	1	7
670.907	1	-13
671.076	1	-11
671.246	1	1
671.415	1	-3
671.584	1	-3
671.754	1	1
671.923	1	1
672.093	1	-1
672.262	1	-4
672.431	1	6
672.601	1	-3
672.770	1	-4
672.939	1	10
673.109	1	-1
673.278	1	5
673.448	1	5
673.617	1	-8
673.786	1	2
