325.333	1	18
325.504	1	15
325.675	1	14
325.846	1	11
326.017	1	14
326.188	1	19
326.359	1	4
326.531	1	0
326.702	1	28
326.873	1	17
327.044	1	13
327.215	1	17
327.386	1	21
327.557	1	12
327.728	1	9
327.899	1	13
328.070	1	17
328.241	1	27
328.412	1	11
328.583	1	28
328.754	1	11
328.926	1	19
329.097	1	4
329.268	1	22
329.439	1	11
329.610	1	19
329.781	1	4
329.952	1	18
330.123	1	8
330.294	1	15
330.465	1	27
330.636	1	21
330.807	1	13
330.978	1	19
331.149	1	19
331.320	1	11
331.492	1	15
331.663	1	13
331.834	1	31
332.005	1	20
332.176	1	40
332.347	1	27
332.518	1	3
332.689	1	33
332.860	1	11
333.031	1	31
333.202	1	21
333.373	1	19
333.544	1	11
333.715	1	25
333.886	1	4
334.057	1	26
334.228	1	13
334.399	1	31
334.570	1	19
334.741	1	11
334.912	1	37
335.084	1	30
335.255	1	18
335.426	1	23
335.597	1	28
335.768	1	18
335.939	1	32
336.110	1	25
336.281	1	13
336.452	1	28
336.623	1	25
336.794	1	23
336.965	1	30
337.136	1	26
337.307	1	22
337.478	1	26
337.649	1	21
337.820	1	21
337.991	1	27
338.162	1	31
338.333	1	20
338.504	1	23
338.675	1	34
338.846	1	30
339.017	1	20
339.188	1	27
339.359	1	28
339.530	1	25
339.701	1	31
339.872	1	43
340.043	1	27
340.214	1	27
340.385	1	36
340.556	1	21
340.727	1	32
340.898	1	41
341.069	1	38
341.240	1	28
341.411	1	33
341.582	1	34
341.753	1	30
341.924	1	24
342.095	1	41
342.266	1	42
342.437	1	22
342.608	1	27
342.779	1	32
342.950	1	29
343.121	1	37
343.292	1	28
343.463	1	33
343.634	1	35
343.805	1	43
343.976	1	35
344.147	1	30
344.318	1	33
344.489	1	36
344.660	1	52
344.831	1	38
345.002	1	32
345.173	1	42
345.344	1	42
345.515	1	36
345.686	1	34
345.857	1	32
346.028	1	40
346.199	1	33
346.370	1	40
346.541	1	36
346.712	1	34
346.883	1	42
347.054	1	44
347.225	1	30
347.396	1	49
347.567	1	39
347.738	1	15
347.909	1	54
348.080	1	34
348.251	1	47
348.422	1	53
348.593	1	41
348.764	1	41
348.935	1	38
349.106	1	43
349.277	1	41
349.448	1	51
349.619	1	46
349.790	1	35
349.961	1	48
350.132	1	59
350.303	1	50
350.474	1	54
350.645	1	54
350.816	1	53
350.987	1	56
351.157	1	41
351.328	1	51
351.499	1	54
351.670	1	43
351.841	1	61
352.012	1	56
352.183	1	63
352.354	1	52
352.525	1	58
352.696	1	59
352.867	1	52
353.038	1	55
353.209	1	57
353.380	1	51
353.551	1	39
353.722	1	45
353.893	1	41
354.064	1	62
354.235	1	64
354.406	1	51
354.576	1	47
354.747	1	42
354.918	1	51
355.089	1	57
355.260	1	63
355.431	1	47
355.602	1	57
355.773	1	59
355.944	1	52
356.115	1	55
356.286	1	54
356.457	1	55
356.628	1	54
356.799	1	54
356.970	1	61
357.141	1	54
357.311	1	54
357.482	1	47
357.653	1	62
357.824	1	62
357.995	1	56
358.166	1	51
358.337	1	61
358.508	1	65
358.679	1	63
358.850	1	61
359.021	1	55
359.192	1	68
359.363	1	56
359.533	1	61
359.704	1	58
359.875	1	62
360.046	1	66
360.217	1	49
360.388	1	57
360.559	1	48
360.730	1	60
360.901	1	63
361.072	1	69
361.243	1	64
361.414	1	63
361.584	1	54
361.755	1	58
361.926	1	59
362.097	1	65
362.268	1	60
362.439	1	55
362.610	1	71
362.781	1	57
362.952	1	55
363.123	1	62
363.293	1	64
363.464	1	68
363.635	1	75
363.806	1	54
363.977	1	68
364.148	1	65
364.319	1	69
364.490	1	63
364.661	1	66
364.832	1	67
365.002	1	64
365.173	1	59
365.344	1	70
365.515	1	59
365.686	1	63
365.857	1	67
366.028	1	79
366.199	1	55
366.370	1	63
366.540	1	60
366.711	1	41
366.882	1	57
367.053	1	63
367.224	1	83
367.395	1	74
367.566	1	73
367.737	1	74
367.908	1	72
368.078	1	68
368.249	1	68
368.420	1	59
368.591	1	62
368.762	1	73
368.933	1	62
369.104	1	65
369.274	1	65
369.445	1	70
369.616	1	67
369.787	1	70
369.958	1	75
370.129	1	57
370.300	1	71
370.471	1	53
370.641	1	73
370.812	1	75
370.983	1	66
371.154	1	58
371.325	1	71
371.496	1	66
371.667	1	71
371.837	1	63
372.008	1	60
372.179	1	66
372.350	1	77
372.521	1	59
372.692	1	65
372.863	1	79
373.033	1	53
373.204	1	66
373.375	1	74
373.546	1	68
373.717	1	77
373.888	1	66
374.059	1	68
374.229	1	78
374.400	1	61
374.571	1	72
374.742	1	77
374.913	1	76
375.084	1	70
375.254	1	69
375.425	1	76
375.596	1	74
375.767	1	61
375.938	1	76
376.109	1	87
376.279	1	66
376.450	1	70
376.621	1	83
376.792	1	68
376.963	1	70
377.134	1	82
377.304	1	76
377.475	1	60
377.646	1	72
377.817	1	72
377.988	1	72
378.159	1	79
378.329	1	79
378.500	1	77
378.671	1	73
378.842	1	70
379.013	1	64
379.184	1	76
379.354	1	79
379.525	1	69
379.696	1	79
379.867	1	80
380.038	1	75
380.209	1	80
380.379	1	77
380.550	1	76
380.721	1	88
380.892	1	93
381.063	1	77
381.233	1	85
381.404	1	72
381.575	1	85
381.746	1	79
381.917	1	81
382.087	1	91
382.258	1	66
382.429	1	77
382.600	1	90
382.771	1	73
382.941	1	85
383.112	1	84
383.283	1	86
383.454	1	87
383.625	1	67
383.795	1	80
383.966	1	87
384.137	1	95
384.308	1	89
384.479	1	94
384.649	1	81
384.820	1	89
384.991	1	75
385.162	1	95
385.333	1	80
385.503	1	81
385.674	1	72
385.845	1	101
386.016	1	90
386.187	1	91
386.357	1	87
386.528	1	87
386.699	1	84
386.870	1	95
387.041	1	89
387.211	1	87
387.382	1	100
387.553	1	87
387.724	1	76
387.894	1	104
388.065	1	86
388.236	1	97
388.407	1	86
388.578	1	87
388.748	1	88
388.919	1	96
389.090	1	91
389.261	1	90
389.431	1	97
389.602	1	83
389.773	1	95
389.944	1	80
390.114	1	92
390.285	1	94
390.456	1	93
390.627	1	87
390.798	1	101
390.968	1	98
391.139	1	93
391.310	1	96
391.481	1	100
391.651	1	91
391.822	1	85
391.993	1	90
392.164	1	88
392.334	1	81
392.505	1	88
392.676	1	105
392.847	1	91
393.017	1	90
393.188	1	101
393.359	1	87
393.530	1	95
393.700	1	88
393.871	1	86
394.042	1	91
394.213	1	92
394.383	1	90
394.554	1	97
394.725	1	97
394.896	1	88
395.066	1	103
395.237	1	96
395.408	1	92
395.579	1	95
395.749	1	95
395.920	1	95
396.091	1	101
396.262	1	90
396.432	1	101
396.603	1	103
396.774	1	103
396.945	1	99
397.115	1	101
397.286	1	107
397.457	1	99
397.627	1	94
397.798	1	102
397.969	1	101
398.140	1	89
398.310	1	96
398.481	1	94
398.652	1	94
398.823	1	93
398.993	1	93
399.164	1	106
399.335	1	112
399.505	1	100
399.676	1	103
399.847	1	99
400.018	1	104
400.188	1	98
400.359	1	105
400.530	1	90
400.700	1	98
400.871	1	97
401.042	1	98
401.213	1	99
401.383	1	112
401.554	1	108
401.725	1	108
401.895	1	94
402.066	1	101
402.237	1	107
402.408	1	103
402.578	1	111
402.749	1	117
402.920	1	111
403.090	1	97
403.261	1	102
403.432	1	95
403.603	1	107
403.773	1	110
403.944	1	104
404.115	1	114
404.285	1	111
404.456	1	98
404.627	1	94
404.797	1	86
404.968	1	100
405.139	1	97
405.310	1	114
405.480	1	115
405.651	1	108
405.822	1	100
405.992	1	94
406.163	1	98
406.334	1	91
406.504	1	107
406.675	1	111
406.846	1	105
407.016	1	110
407.187	1	110
407.358	1	96
407.528	1	94
407.699	1	95
407.870	1	104
408.041	1	101
408.211	1	116
408.382	1	92
408.553	1	108
408.723	1	112
408.894	1	107
409.065	1	105
409.235	1	108
409.406	1	100
409.577	1	100
409.747	1	129
409.918	1	110
410.089	1	114
410.259	1	103
410.430	1	101
410.601	1	103
410.771	1	105
410.942	1	120
411.113	1	111
411.283	1	106
411.454	1	102
411.625	1	107
411.795	1	111
411.966	1	104
412.137	1	103
412.307	1	96
412.478	1	106
412.649	1	112
412.819	1	108
412.990	1	98
413.161	1	106
413.331	1	103
413.502	1	93
413.672	1	101
413.843	1	114
414.014	1	102
414.184	1	111
414.355	1	100
414.526	1	111
414.696	1	105
414.867	1	102
415.038	1	96
415.208	1	99
415.379	1	109
415.550	1	104
415.720	1	100
415.891	1	103
416.062	1	102
416.232	1	101
416.403	1	98
416.573	1	110
416.744	1	96
416.915	1	101
417.085	1	103
417.256	1	93
417.427	1	107
417.597	1	103
417.768	1	105
417.939	1	109
418.109	1	102
418.280	1	105
418.450	1	91
418.621	1	107
418.792	1	91
418.962	1	93
419.133	1	109
419.304	1	94
419.474	1	84
419.645	1	102
419.815	1	90
419.986	1	101
420.157	1	111
420.327	1	114
420.498	1	113
420.669	1	89
420.839	1	113
421.010	1	104
421.180	1	94
421.351	1	106
421.522	1	102
421.692	1	103
421.863	1	98
422.033	1	96
422.204	1	93
422.375	1	103
422.545	1	111
422.716	1	104
422.886	1	95
423.057	1	114
423.228	1	89
423.398	1	91
423.569	1	102
423.740	1	91
423.910	1	90
424.081	1	102
424.251	1	93
424.422	1	96
424.593	1	97
424.763	1	109
424.934	1	92
425.104	1	97
425.275	1	92
425.445	1	91
425.616	1	106
425.787	1	87
425.957	1	83
426.128	1	106
426.298	1	88
426.469	1	87
426.640	1	93
426.810	1	97
426.981	1	96
427.151	1	97
427.322	1	107
427.493	1	84
427.663	1	100
427.834	1	85
428.004	1	90
428.175	1	94
428.345	1	86
428.516	1	95
428.687	1	89
428.857	1	82
429.028	1	70
429.198	1	89
429.369	1	94
429.540	1	92
429.710	1	82
429.881	1	98
430.051	1	93
430.222	1	90
430.392	1	86
430.563	1	94
430.734	1	98
430.904	1	93
431.075	1	92
431.245	1	83
431.416	1	92
431.586	1	97
431.757	1	99
431.927	1	87
432.098	1	87
432.269	1	79
432.439	1	93
432.610	1	91
432.780	1	99
432.951	1	96
433.121	1	100
433.292	1	89
433.462	1	98
433.633	1	97
433.804	1	101
433.974	1	92
434.145	1	112
434.315	1	74
434.486	1	71
434.656	1	97
434.827	1	89
434.997	1	77
435.168	1	91
435.339	1	93
435.509	1	88
435.680	1	93
435.850	1	87
436.021	1	86
436.191	1	83
436.362	1	87
436.532	1	88
436.703	1	81
436.873	1	86
437.044	1	75
437.214	1	81
437.385	1	77
437.556	1	81
437.726	1	113
437.897	1	99
438.067	1	78
438.238	1	89
438.408	1	94
438.579	1	80
438.749	1	80
438.920	1	77
439.090	1	86
439.261	1	76
439.431	1	77
439.602	1	85
439.772	1	86
439.943	1	90
440.113	1	91
440.284	1	72
440.455	1	72
440.625	1	81
440.796	1	86
440.966	1	60
441.137	1	82
441.307	1	77
441.478	1	85
441.648	1	74
441.819	1	84
441.989	1	80
442.160	1	92
442.330	1	60
442.501	1	76
442.671	1	76
442.842	1	58
443.012	1	76
443.183	1	74
443.353	1	74
443.524	1	83
443.694	1	86
443.865	1	81
444.035	1	79
444.206	1	74
444.376	1	74
444.547	1	92
444.717	1	75
444.888	1	80
445.058	1	88
445.229	1	74
445.399	1	84
445.570	1	84
445.740	1	65
445.911	1	73
446.081	1	73
446.252	1	74
446.422	1	72
446.593	1	66
446.763	1	83
446.934	1	73
447.104	1	79
447.275	1	83
447.445	1	79
447.616	1	83
447.786	1	82
447.957	1	80
448.127	1	71
448.298	1	91
448.468	1	71
448.639	1	71
448.809	1	79
448.979	1	73
449.150	1	74
449.320	1	79
449.491	1	87
449.661	1	66
449.832	1	64
450.002	1	81
450.173	1	71
450.343	1	73
450.514	1	68
450.684	1	73
450.855	1	74
451.025	1	81
451.196	1	71
451.366	1	80
451.537	1	63
451.707	1	49
451.878	1	64
452.048	1	80
452.218	1	82
452.389	1	72
452.559	1	72
452.730	1	72
452.900	1	78
453.071	1	46
453.241	1	79
453.412	1	80
453.582	1	68
453.753	1	67
453.923	1	67
454.093	1	76
454.264	1	85
454.434	1	65
454.605	1	69
454.775	1	77
454.946	1	64
455.116	1	65
455.287	1	62
455.457	1	59
455.628	1	66
455.798	1	64
455.968	1	71
456.139	1	55
456.309	1	66
456.480	1	60
456.650	1	69
456.821	1	56
456.991	1	68
457.161	1	54
457.332	1	70
457.502	1	56
457.673	1	66
457.843	1	67
458.014	1	62
458.184	1	65
458.355	1	69
458.525	1	71
458.695	1	66
458.866	1	62
459.036	1	52
459.207	1	53
459.377	1	53
459.548	1	74
459.718	1	56
459.888	1	65
460.059	1	65
460.229	1	70
460.400	1	72
460.570	1	57
460.740	1	72
460.911	1	58
461.081	1	64
461.252	1	72
461.422	1	57
461.593	1	57
461.763	1	62
461.933	1	62
462.104	1	57
462.274	1	65
462.445	1	55
462.615	1	63
462.785	1	54
462.956	1	68
463.126	1	69
463.297	1	58
463.467	1	62
463.638	1	65
463.808	1	53
463.978	1	53
464.149	1	61
464.319	1	54
464.490	1	77
464.660	1	54
464.830	1	53
465.001	1	70
465.171	1	67
465.342	1	59
465.512	1	52
465.682	1	58
465.853	1	70
466.023	1	60
466.194	1	52
466.364	1	64
466.534	1	49
466.705	1	67
466.875	1	56
467.045	1	51
467.216	1	65
467.386	1	59
467.557	1	52
467.727	1	42
467.897	1	56
468.068	1	56
468.238	1	55
468.409	1	50
468.579	1	52
468.749	1	50
468.920	1	48
469.090	1	57
469.260	1	52
469.431	1	45
469.601	1	61
469.772	1	49
469.942	1	53
470.112	1	52
470.283	1	54
470.453	1	55
470.623	1	44
470.794	1	45
470.964	1	54
471.135	1	47
471.305	1	43
471.475	1	50
471.646	1	45
471.816	1	45
471.986	1	55
472.157	1	60
472.327	1	43
472.497	1	52
472.668	1	44
472.838	1	51
473.009	1	59
473.179	1	45
473.349	1	45
473.520	1	50
473.690	1	49
473.860	1	48
474.031	1	52
474.201	1	48
474.371	1	50
474.542	1	50
474.712	1	60
474.882	1	66
475.053	1	58
475.223	1	40
475.394	1	57
475.564	1	50
475.734	1	51
475.905	1	64
476.075	1	41
476.245	1	51
476.416	1	56
476.586	1	48
476.756	1	47
476.927	1	52
477.097	1	50
477.267	1	36
477.438	1	53
477.608	1	40
477.778	1	56
477.949	1	53
478.119	1	59
478.289	1	51
478.460	1	54
478.630	1	51
478.800	1	38
478.971	1	52
479.141	1	37
479.311	1	37
479.482	1	47
479.652	1	36
479.822	1	54
479.993	1	41
480.163	1	45
480.333	1	44
480.504	1	45
480.674	1	42
480.844	1	39
481.015	1	54
481.185	1	37
481.355	1	54
481.525	1	44
481.696	1	55
481.866	1	42
482.036	1	47
482.207	1	34
482.377	1	28
482.547	1	55
482.718	1	45
482.888	1	37
483.058	1	34
483.229	1	40
483.399	1	42
483.569	1	41
483.740	1	39
483.910	1	40
484.080	1	32
484.250	1	40
484.421	1	35
484.591	1	53
484.761	1	41
484.932	1	39
485.102	1	49
485.272	1	37
485.443	1	58
485.613	1	46
485.783	1	37
485.953	1	43
486.124	1	50
486.294	1	46
486.464	1	43
486.635	1	44
486.805	1	40
486.975	1	36
487.146	1	37
487.316	1	42
487.486	1	36
487.656	1	29
487.827	1	23
487.997	1	35
488.167	1	37
488.338	1	33
488.508	1	34
488.678	1	31
488.848	1	43
489.019	1	34
489.189	1	40
489.359	1	32
489.529	1	36
489.700	1	35
489.870	1	53
490.040	1	34
490.211	1	32
490.381	1	44
490.551	1	32
490.721	1	37
490.892	1	38
491.062	1	37
491.232	1	40
491.402	1	37
491.573	1	27
491.743	1	39
491.913	1	41
492.084	1	36
492.254	1	41
492.424	1	28
492.594	1	36
492.765	1	31
492.935	1	25
493.105	1	35
493.275	1	41
493.446	1	38
493.616	1	46
493.786	1	26
493.956	1	30
494.127	1	38
494.297	1	22
494.467	1	34
494.637	1	28
494.808	1	36
494.978	1	27
495.148	1	27
495.318	1	40
495.489	1	36
495.659	1	28
495.829	1	40
495.999	1	33
496.170	1	38
496.340	1	39
496.510	1	35
496.680	1	24
496.851	1	34
497.021	1	35
497.191	1	25
497.361	1	35
497.532	1	23
497.702	1	36
497.872	1	27
498.042	1	32
498.213	1	26
498.383	1	27
498.553	1	33
498.723	1	36
498.894	1	21
499.064	1	24
499.234	1	28
499.404	1	29
499.574	1	27
499.745	1	28
499.915	1	29
500.085	1	37
500.255	1	36
500.426	1	31
500.596	1	31
500.766	1	21
500.936	1	33
501.106	1	13
501.277	1	30
501.447	1	39
501.617	1	29
501.787	1	31
501.958	1	17
502.128	1	24
502.298	1	28
502.468	1	27
502.638	1	23
502.809	1	31
502.979	1	18
503.149	1	16
503.319	1	21
503.489	1	23
503.660	1	37
503.830	1	16
504.000	1	42
504.170	1	37
504.340	1	21
504.511	1	39
504.681	1	19
504.851	1	24
505.021	1	36
505.192	1	10
505.362	1	30
505.532	1	24
505.702	1	24
505.872	1	25
506.043	1	27
506.213	1	20
506.383	1	21
506.553	1	26
506.723	1	25
506.893	1	21
507.064	1	32
507.234	1	24
507.404	1	19
507.574	1	25
507.744	1	20
507.915	1	25
508.085	1	25
508.255	1	31
508.425	1	17
508.595	1	26
508.766	1	28
508.936	1	14
509.106	1	29
509.276	1	31
509.446	1	17
509.616	1	20
509.787	1	18
509.957	1	23
510.127	1	27
510.297	1	22
510.467	1	20
510.638	1	25
510.808	1	18
510.978	1	14
511.148	1	25
511.318	1	22
511.488	1	15
511.659	1	24
511.829	1	17
511.999	1	26
512.169	1	17
512.339	1	17
512.509	1	17
512.680	1	16
512.850	1	20
513.020	1	20
513.190	1	23
513.360	1	16
513.530	1	17
513.700	1	30
513.871	1	16
514.041	1	17
514.211	1	28
514.381	1	31
514.551	1	21
514.721	1	7
514.892	1	21
515.062	1	21
515.232	1	19
515.402	1	13
515.572	1	6
515.742	1	22
515.912	1	24
516.083	1	19
516.253	1	28
516.423	1	20
516.593	1	18
516.763	1	30
516.933	1	26
517.104	1	17
517.274	1	16
517.444	1	30
517.614	1	16
517.784	1	21
517.954	1	22
518.124	1	24
518.294	1	23
518.465	1	22
518.635	1	15
518.805	1	3
518.975	1	27
519.145	1	25
519.315	1	24
519.485	1	9
519.656	1	24
519.826	1	17
519.996	1	5
520.166	1	9
520.336	1	27
520.506	1	15
520.676	1	2
520.846	1	27
521.017	1	30
521.187	1	14
521.357	1	23
521.527	1	14
521.697	1	21
521.867	1	11
522.037	1	24
522.207	1	27
522.377	1	19
522.548	1	20
522.718	1	15
522.888	1	30
523.058	1	10
523.228	1	28
523.398	1	10
523.568	1	27
523.738	1	19
523.909	1	24
524.079	1	14
524.249	1	14
524.419	1	13
524.589	1	14
524.759	1	14
524.929	1	8
525.099	1	13
525.269	1	20
525.439	1	16
525.610	1	35
525.780	1	18
525.950	1	13
526.120	1	15
526.290	1	16
526.460	1	3
526.630	1	22
526.800	1	15
526.970	1	10
527.140	1	8
527.311	1	14
527.481	1	8
527.651	1	22
527.821	1	20
527.991	1	28
528.161	1	20
528.331	1	13
528.501	1	20
528.671	1	13
528.841	1	18
529.011	1	11
529.181	1	16
529.352	1	19
529.522	1	11
529.692	1	12
529.862	1	15
530.032	1	17
530.202	1	16
530.372	1	13
530.542	1	12
530.712	1	10
530.882	1	15
531.052	1	22
531.222	1	14
531.392	1	17
531.563	1	25
531.733	1	17
531.903	1	16
532.073	1	22
532.243	1	9
532.413	1	14
532.583	1	11
532.753	1	12
532.923	1	4
533.093	1	8
533.263	1	18
533.433	1	12
533.603	1	18
533.773	1	9
533.943	1	17
534.113	1	23
534.284	1	21
534.454	1	16
534.624	1	22
534.794	1	13
534.964	1	11
535.134	1	16
535.304	1	15
535.474	1	18
535.644	1	12
535.814	1	5
535.984	1	6
536.154	1	5
536.324	1	9
536.494	1	17
536.664	1	21
536.834	1	17
537.004	1	9
537.174	1	21
537.344	1	14
537.514	1	3
537.685	1	11
537.855	1	11
538.025	1	6
538.195	1	14
538.365	1	21
538.535	1	9
538.705	1	17
538.875	1	13
539.045	1	12
539.215	1	15
539.385	1	7
539.555	1	17
539.725	1	12
539.895	1	5
540.065	1	24
540.235	1	15
540.405	1	7
540.575	1	20
540.745	1	20
540.915	1	18
541.085	1	15
541.255	1	7
541.425	1	18
541.595	1	11
541.765	1	14
541.935	1	10
542.105	1	3
542.275	1	14
542.445	1	5
542.615	1	14
542.785	1	15
542.955	1	17
543.125	1	7
543.295	1	7
543.465	1	12
543.635	1	11
543.805	1	20
543.975	1	13
544.145	1	12
544.315	1	18
544.485	1	23
544.655	1	15
544.825	1	-2
544.995	1	14
545.165	1	11
545.335	1	14
545.505	1	7
545.675	1	11
545.845	1	11
546.015	1	13
546.185	1	24
546.355	1	16
546.525	1	14
546.695	1	3
546.865	1	12
547.035	1	6
547.205	1	6
547.375	1	14
547.545	1	13
547.715	1	-1
547.885	1	19
548.055	1	10
548.225	1	11
548.395	1	16
548.565	1	7
548.735	1	14
548.905	1	6
549.075	1	14
549.245	1	1
549.415	1	2
549.585	1	8
549.755	1	12
549.925	1	8
550.095	1	8
550.265	1	5
550.435	1	5
550.605	1	7
550.775	1	6
550.945	1	15
551.115	1	8
551.285	1	15
551.455	1	3
551.625	1	21
551.795	1	19
551.965	1	4
552.135	1	10
552.305	1	4
552.475	1	0
552.645	1	4
552.815	1	9
552.985	1	10
553.155	1	10
553.325	1	14
553.495	1	8
553.665	1	9
553.835	1	5
554.004	1	16
554.174	1	0
554.344	1	15
554.514	1	6
554.684	1	12
554.854	1	23
555.024	1	8
555.194	1	0
555.364	1	11
555.534	1	8
555.704	1	19
555.874	1	13
556.044	1	10
556.214	1	1
556.384	1	12
556.554	1	17
556.724	1	4
556.894	1	7
557.064	1	5
557.234	1	9
557.404	1	25
557.573	1	18
557.743	1	4
557.913	1	5
558.083	1	1
558.253	1	16
558.423	1	9
558.593	1	10
558.763	1	0
558.933	1	12
559.103	1	12
559.273	1	13
559.443	1	8
559.613	1	16
559.783	1	7
559.953	1	7
560.122	1	11
560.292	1	7
560.462	1	10
560.632	1	16
560.802	1	9
560.972	1	5
561.142	1	8
561.312	1	3
561.482	1	16
561.652	1	14
561.822	1	-3
561.992	1	3
562.162	1	8
562.331	1	4
562.501	1	5
562.671	1	14
562.841	1	1
563.011	1	13
563.181	1	12
563.351	1	-1
563.521	1	15
563.691	1	6
563.861	1	18
564.031	1	5
564.201	1	10
564.370	1	0
564.540	1	18
564.710	1	3
564.880	1	16
565.050	1	20
565.220	1	5
565.390	1	16
565.560	1	11
565.730	1	3
565.900	1	2
566.069	1	10
566.239	1	10
566.409	1	6
566.579	1	6
566.749	1	9
566.919	1	16
567.089	1	7
567.259	1	15
567.429	1	11
567.599	1	1
567.768	1	11
567.938	1	2
568.108	1	4
568.278	1	4
568.448	1	2
568.618	1	-1
568.788	1	4
568.958	1	4
569.128	1	20
569.297	1	1
569.467	1	-4
569.637	1	12
569.807	1	6
569.977	1	3
570.147	1	10
570.317	1	5
570.487	1	12
570.656	1	9
570.826	1	-1
570.996	1	1
571.166	1	15
571.336	1	-7
571.506	1	20
571.676	1	8
571.846	1	12
572.015	1	6
572.185	1	12
572.355	1	17
572.525	1	8
572.695	1	1
572.865	1	-5
573.035	1	21
573.205	1	10
573.374	1	1
573.544	1	1
573.714	1	14
573.884	1	7
574.054	1	10
574.224	1	10
574.394	1	-2
574.563	1	9
574.733	1	-2
574.903	1	-2
575.073	1	3
575.243	1	16
575.413	1	15
575.583	1	-3
575.752	1	20
575.922	1	4
576.092	1	10
576.262	1	4
576.432	1	11
576.602	1	1
576.772	1	19
576.941	1	13
577.111	1	-5
577.281	1	-2
577.451	1	4
577.621	1	10
577.791	1	12
577.960	1	-2
578.130	1	8
578.300	1	8
578.470	1	20
578.640	1	6
578.810	1	11
578.979	1	1
579.149	1	-1
579.319	1	3
579.489	1	2
579.659	1	6
579.829	1	4
579.998	1	15
580.168	1	15
580.338	1	9
580.508	1	6
580.678	1	17
580.848	1	10
581.017	1	12
581.187	1	12
581.357	1	-4
581.527	1	11
581.697	1	14
581.867	1	15
582.036	1	17
582.206	1	8
582.376	1	17
582.546	1	-1
582.716	1	4
582.885	1	7
583.055	1	8
583.225	1	4
583.395	1	12
583.565	1	6
583.735	1	9
583.904	1	7
584.074	1	9
584.244	1	13
584.414	1	7
584.584	1	8
584.753	1	4
584.923	1	6
585.093	1	4
585.263	1	11
585.433	1	6
585.602	1	10
585.772	1	-4
585.942	1	4
586.112	1	9
586.282	1	10
586.451	1	15
586.621	1	6
586.791	1	2
586.961	1	8
587.131	1	14
587.300	1	1
587.470	1	16
587.640	1	9
587.810	1	-1
587.980	1	-2
588.149	1	12
588.319	1	4
588.489	1	5
588.659	1	0
588.829	1	-2
588.998	1	7
589.168	1	15
589.338	1	1
589.508	1	11
589.677	1	-4
589.847	1	-1
590.017	1	23
590.187	1	-8
590.357	1	15
590.526	1	16
590.696	1	17
590.866	1	7
591.036	1	4
591.205	1	0
591.375	1	0
591.545	1	5
591.715	1	7
591.885	1	2
592.054	1	6
592.224	1	9
592.394	1	9
592.564	1	14
592.733	1	16
592.903	1	10
593.073	1	3
593.243	1	13
593.412	1	12
593.582	1	9
593.752	1	1
593.922	1	8
594.091	1	5
594.261	1	7
594.431	1	9
594.601	1	12
594.771	1	6
594.940	1	7
595.110	1	0
595.280	1	10
595.450	1	6
595.619	1	2
595.789	1	5
595.959	1	8
596.129	1	-2
596.298	1	7
596.468	1	17
596.638	1	5
596.808	1	9
596.977	1	9
597.147	1	7
597.317	1	7
597.487	1	6
597.656	1	5
597.826	1	6
597.996	1	9
598.166	1	3
598.335	1	-4
598.505	1	6
598.675	1	8
598.844	1	9
599.014	1	-1
599.184	1	9
599.354	1	-3
599.523	1	14
599.693	1	-1
599.863	1	19
600.033	1	-1
600.202	1	7
600.372	1	15
600.542	1	17
600.712	1	4
600.881	1	10
601.051	1	12
601.221	1	10
601.390	1	3
601.560	1	12
601.730	1	10
601.900	1	8
602.069	1	12
602.239	1	7
602.409	1	7
602.578	1	2
602.748	1	1
602.918	1	6
603.088	1	8
603.257	1	17
603.427	1	6
603.597	1	4
603.767	1	9
603.936	1	9
604.106	1	9
604.276	1	12
604.445	1	15
604.615	1	8
604.785	1	-1
604.954	1	4
605.124	1	2
605.294	1	1
605.464	1	5
605.633	1	4
605.803	1	13
605.973	1	7
606.142	1	15
606.312	1	10
606.482	1	18
606.652	1	18
606.821	1	-2
606.991	1	8
607.161	1	-3
607.330	1	19
607.500	1	5
607.670	1	4
607.839	1	26
608.009	1	17
608.179	1	7
608.348	1	-1
608.518	1	2
608.688	1	9
608.858	1	7
609.027	1	4
609.197	1	11
609.367	1	8
609.536	1	10
609.706	1	8
609.876	1	10
610.045	1	2
610.215	1	15
610.385	1	5
610.554	1	1
610.724	1	7
610.894	1	13
611.063	1	9
611.233	1	5
611.403	1	5
611.572	1	5
611.742	1	14
611.912	1	7
612.081	1	1
612.251	1	11
612.421	1	5
612.590	1	7
612.760	1	7
612.930	1	5
613.099	1	10
613.269	1	21
613.439	1	8
613.608	1	10
613.778	1	8
613.948	1	7
614.117	1	11
614.287	1	17
614.457	1	17
614.626	1	9
614.796	1	8
614.966	1	9
615.135	1	3
615.305	1	16
615.475	1	7
615.644	1	7
615.814	1	7
615.984	1	9
616.153	1	6
616.323	1	13
616.493	1	5
616.662	1	20
616.832	1	3
617.002	1	7
617.171	1	6
617.341	1	9
617.511	1	7
617.680	1	3
617.850	1	4
618.019	1	23
618.189	1	12
618.359	1	6
618.528	1	10
618.698	1	23
618.868	1	2
619.037	1	7
619.207	1	-5
619.377	1	1
619.546	1	8
619.716	1	8
619.885	1	6
620.055	1	-2
620.225	1	14
620.394	1	9
620.564	1	24
620.734	1	20
620.903	1	-4
621.073	1	14
621.242	1	15
621.412	1	11
621.582	1	10
621.751	1	15
621.921	1	6
622.091	1	2
622.260	1	8
622.430	1	15
622.599	1	11
622.769	1	10
622.939	1	18
623.108	1	8
623.278	1	-4
623.448	1	12
623.617	1	11
623.787	1	13
623.956	1	8
624.126	1	11
624.296	1	-1
624.465	1	13
624.635	1	12
624.804	1	13
624.974	1	9
625.144	1	11
625.313	1	13
625.483	1	9
625.652	1	6
625.822	1	10
625.992	1	6
626.161	1	11
626.331	1	7
626.501	1	8
626.670	1	14
626.840	1	16
627.009	1	14
627.179	1	20
627.348	1	11
627.518	1	21
627.688	1	21
627.857	1	20
628.027	1	13
628.196	1	14
628.366	1	15
628.536	1	10
628.705	1	14
628.875	1	10
629.044	1	14
629.214	1	18
629.384	1	14
629.553	1	24
629.723	1	8
629.892	1	7
630.062	1	11
630.232	1	8
630.401	1	17
630.571	1	7
630.740	1	14
630.910	1	13
631.079	1	16
631.249	1	12
631.419	1	26
631.588	1	-5
631.758	1	22
631.927	1	6
632.097	1	17
632.266	1	13
632.436	1	19
632.606	1	1
632.775	1	7
632.945	1	12
633.114	1	20
633.284	1	17
633.453	1	12
633.623	1	19
633.793	1	18
633.962	1	16
634.132	1	4
634.301	1	11
634.471	1	20
634.640	1	14
634.810	1	14
634.979	1	17
635.149	1	17
635.319	1	12
635.488	1	9
635.658	1	5
635.827	1	3
635.997	1	9
636.166	1	12
636.336	1	8
636.505	1	18
636.675	1	12
636.845	1	17
637.014	1	21
637.184	1	15
637.353	1	14
637.523	1	10
637.692	1	10
637.862	1	20
638.031	1	10
638.201	1	13
638.370	1	11
638.540	1	13
638.710	1	12
638.879	1	7
639.049	1	7
639.218	1	17
639.388	1	2
639.557	1	9
639.727	1	14
639.896	1	15
640.066	1	8
640.235	1	13
640.405	1	21
640.574	1	12
640.744	1	6
640.914	1	15
641.083	1	7
641.253	1	11
641.422	1	16
641.592	1	16
641.761	1	23
641.931	1	17
642.100	1	24
642.270	1	10
642.439	1	16
642.609	1	14
642.778	1	10
642.948	1	11
643.117	1	18
643.287	1	16
643.456	1	13
643.626	1	15
643.795	1	13
643.965	1	20
644.134	1	11
644.304	1	13
644.473	1	20
644.643	1	24
644.812	1	5
644.982	1	6
645.151	1	12
645.321	1	-2
645.490	1	28
645.660	1	14
645.829	1	6
645.999	1	2
646.168	1	10
646.338	1	14
646.507	1	18
646.677	1	19
646.846	1	18
647.016	1	3
647.185	1	16
647.355	1	-1
647.524	1	18
647.694	1	18
647.863	1	21
648.033	1	14
648.202	1	20
648.372	1	18
648.541	1	8
648.711	1	13
648.880	1	14
649.050	1	5
649.219	1	18
649.389	1	16
649.558	1	15
649.728	1	8
649.897	1	7
650.067	1	16
650.236	1	18
650.406	1	21
650.575	1	18
650.745	1	27
650.914	1	18
651.084	1	5
651.253	1	22
651.423	1	15
651.592	1	13
651.762	1	6
651.931	1	20
652.101	1	27
652.270	1	26
652.440	1	22
652.609	1	17
652.778	1	12
652.948	1	18
653.117	1	22
653.287	1	14
653.456	1	21
653.626	1	23
653.795	1	13
653.965	1	10
654.134	1	20
654.304	1	-4
654.473	1	16
654.643	1	25
654.812	1	12
654.982	1	16
655.151	1	10
655.320	1	11
655.490	1	12
655.659	1	12
655.829	1	8
655.998	1	8
656.168	1	12
656.337	1	19
656.507	1	18
656.676	1	18
656.846	1	23
657.015	1	24
657.184	1	22
657.354	1	21
657.523	1	20
657.693	1	14
657.862	1	26
658.032	1	24
658.201	1	16
658.371	1	22
658.540	1	20
658.709	1	18
658.879	1	20
659.048	1	16
659.218	1	18
659.387	1	24
659.557	1	14
659.726	1	20
659.895	1	16
660.065	1	12
660.234	1	10
660.404	1	17
660.573	1	16
660.743	1	19
660.912	1	14
661.081	1	23
661.251	1	14
661.420	1	21
661.590	1	19
661.759	1	22
661.929	1	24
662.098	1	22
662.267	1	15
662.437	1	24
662.606	1	15
662.776	1	17
662.945	1	14
663.115	1	21
663.284	1	8
663.453	1	18
663.623	1	15
663.792	1	8
663.962	1	21
664.131	1	23
664.300	1	24
664.470	1	10
664.639	1	23
664.809	1	10
664.978	1	19
665.148	1	18
665.317	1	17
665.486	1	30
665.656	1	18
665.825	1	26
665.995	1	8
666.164	1	14
666.333	1	17
666.503	1	12
666.672	1	8
666.842	1	17
667.011	1	11
667.180	1	22
667.350	1	23
667.519	1	11
667.689	1	20
667.858	1	21
668.027	1	27
668.197	1	18
668.366	1	8
668.536	1	25
668.705	1	16
668.874	1	22
669.044	1	11
669.213	1	25
669.382	1	13
669.552	1	32
669.721	1	24
669.891	1	26
670.060	1	17
670.229	1	30
670.399	1	19
670.568	1	19
670.738	1	30
670.907	1	4
671.076	1	18
671.246	1	20
671.415	1	18
671.584	1	23
671.754	1	14
671.923	1	25
672.093	1	20
672.262	1	2
672.431	1	22
672.601	1	13
672.770	1	6
672.939	1	27
673.109	1	11
673.278	1	24
673.448	1	31
673.617	1	19
673.786	1	24
