325.333	1	13
325.504	1	-4
325.675	1	8
325.846	1	1
326.017	1	4
326.188	1	-2
326.359	1	0
326.531	1	-14
326.702	1	-2
326.873	1	11
327.044	1	1
327.215	1	0
327.386	1	0
327.557	1	-6
327.728	1	0
327.899	1	7
328.070	1	10
328.241	1	5
328.412	1	-14
328.583	1	8
328.754	1	2
328.926	1	2
329.097	1	-11
329.268	1	9
329.439	1	-2
329.610	1	0
329.781	1	-1
329.952	1	6
330.123	1	3
330.294	1	-2
330.465	1	-2
330.636	1	12
330.807	1	-4
330.978	1	6
331.149	1	-2
331.320	1	-8
331.492	1	-1
331.663	1	-2
331.834	1	12
332.005	1	4
332.176	1	11
332.347	1	6
332.518	1	-2
332.689	1	8
332.860	1	4
333.031	1	6
333.202	1	2
333.373	1	-2
333.544	1	7
333.715	1	6
333.886	1	-8
334.057	1	4
334.228	1	-5
334.399	1	5
334.570	1	10
334.741	1	-10
334.912	1	4
335.084	1	19
335.255	1	-4
335.426	1	0
335.597	1	0
335.768	1	-3
335.939	1	5
336.110	1	-5
336.281	1	-10
336.452	1	-8
336.623	1	5
336.794	1	5
336.965	1	-1
337.136	1	11
337.307	1	0
337.478	1	-3
337.649	1	-2
337.820	1	0
337.991	1	0
338.162	1	4
338.333	1	3
338.504	1	-3
338.675	1	-9
338.846	1	11
339.017	1	-1
339.188	1	-2
339.359	1	-9
339.530	1	2
339.701	1	5
339.872	1	9
340.043	1	-8
340.214	1	-3
340.385	1	9
340.556	1	-7
340.727	1	9
340.898	1	15
341.069	1	-6
341.240	1	-3
341.411	1	7
341.582	1	3
341.753	1	-9
341.924	1	4
342.095	1	4
342.266	1	16
342.437	1	4
342.608	1	2
342.779	1	7
342.950	1	12
343.121	1	6
343.292	1	-7
343.463	1	3
343.634	1	-6
343.805	1	14
343.976	1	5
344.147	1	1
344.318	1	0
344.489	1	-2
344.660	1	8
344.831	1	1
345.002	1	-12
345.173	1	10
345.344	1	9
345.515	1	2
345.686	1	-4
345.857	1	5
346.028	1	-6
346.199	1	4
346.370	1	-2
346.541	1	3
346.712	1	0
346.883	1	0
347.054	1	4
347.225	1	4
347.396	1	7
347.567	1	3
347.738	1	-1
347.909	1	17
348.080	1	-4
348.251	1	6
348.422	1	4
348.593	1	-1
348.764	1	6
348.935	1	3
349.106	1	-7
349.277	1	3
349.448	1	4
349.619	1	3
349.790	1	-3
349.961	1	0
350.132	1	7
350.303	1	7
350.474	1	0
350.645	1	3
350.816	1	5
350.987	1	-1
351.157	1	2
351.328	1	9
351.499	1	7
351.670	1	-6
351.841	1	8
352.012	1	13
352.183	1	8
352.354	1	14
352.525	1	6
352.696	1	9
352.867	1	1
353.038	1	13
353.209	1	7
353.380	1	9
353.551	1	-6
353.722	1	0
353.893	1	-2
354.064	1	3
354.235	1	6
354.406	1	2
354.576	1	-10
354.747	1	-1
354.918	1	-2
355.089	1	-6
355.260	1	8
355.431	1	6
355.602	1	-2
355.773	1	6
355.944	1	8
356.115	1	7
356.286	1	1
356.457	1	3
356.628	1	4
356.799	1	0
356.970	1	14
357.141	1	-4
357.311	1	7
357.482	1	-3
357.653	1	9
357.824	1	10
357.995	1	8
358.166	1	-9
358.337	1	-4
358.508	1	6
358.679	1	5
358.850	1	-7
359.021	1	-1
359.192	1	1
359.363	1	10
359.533	1	-5
359.704	1	3
359.875	1	-4
360.046	1	-9
360.217	1	-10
360.388	1	2
360.559	1	3
360.730	1	6
360.901	1	6
361.072	1	4
361.243	1	9
361.414	1	-2
361.584	1	-12
361.755	1	7
361.926	1	2
362.097	1	1
362.268	1	2
362.439	1	-5
362.610	1	17
362.781	1	-2
362.952	1	1
363.123	1	3
363.293	1	-1
363.464	1	10
363.635	1	11
363.806	1	-2
363.977	1	2
364.148	1	0
364.319	1	1
364.490	1	1
364.661	1	-3
364.832	1	10
365.002	1	6
365.173	1	10
365.344	1	8
365.515	1	3
365.686	1	1
365.857	1	2
366.028	1	14
366.199	1	1
366.370	1	10
366.540	1	-7
366.711	1	-11
366.882	1	3
367.053	1	0
367.224	1	12
367.395	1	-2
367.566	1	8
367.737	1	10
367.908	1	6
368.078	1	-2
368.249	1	6
368.420	1	-7
368.591	1	-4
368.762	1	9
368.933	1	9
369.104	1	-11
369.274	1	6
369.445	1	-7
369.616	1	2
369.787	1	3
369.958	1	9
370.129	1	-5
370.300	1	7
370.471	1	-5
370.641	1	6
370.812	1	12
370.983	1	6
371.154	1	-2
371.325	1	7
371.496	1	-4
371.667	1	13
371.837	1	2
372.008	1	1
372.179	1	-8
372.350	1	16
372.521	1	2
372.692	1	1
372.863	1	4
373.033	1	-7
373.204	1	3
373.375	1	11
373.546	1	3
373.717	1	5
373.888	1	9
374.059	1	12
374.229	1	11
374.400	1	-2
374.571	1	-1
374.742	1	3
374.913	1	5
375.084	1	-6
375.254	1	8
375.425	1	6
375.596	1	3
375.767	1	1
375.938	1	3
376.109	1	7
376.279	1	-7
376.450	1	6
376.621	1	6
376.792	1	-10
376.963	1	5
377.134	1	12
377.304	1	-1
377.475	1	-3
377.646	1	0
377.817	1	0
377.988	1	-4
378.159	1	4
378.329	1	8
378.500	1	-1
378.671	1	5
378.842	1	2
379.013	1	-5
379.184	1	-3
379.354	1	5
379.525	1	3
379.696	1	8
379.867	1	15
380.038	1	4
380.209	1	7
380.379	1	-6
380.550	1	-6
380.721	1	9
380.892	1	-3
381.063	1	3
381.233	1	9
381.404	1	-9
381.575	1	9
381.746	1	3
381.917	1	7
382.087	1	6
382.258	1	0
382.429	1	1
382.600	1	11
382.771	1	-3
382.941	1	-4
383.112	1	-2
383.283	1	7
383.454	1	-3
383.625	1	8
383.795	1	13
383.966	1	2
384.137	1	8
384.308	1	-8
384.479	1	9
384.649	1	8
384.820	1	0
384.991	1	-3
385.162	1	6
385.333	1	2
385.503	1	-5
385.674	1	-11
385.845	1	11
386.016	1	11
386.187	1	5
386.357	1	8
386.528	1	1
386.699	1	5
386.870	1	8
387.041	1	1
387.211	1	1
387.382	1	12
387.553	1	4
387.724	1	0
387.894	1	7
388.065	1	3
388.236	1	7
388.407	1	6
388.578	1	-10
388.748	1	-7
388.919	1	6
389.090	1	-4
389.261	1	-6
389.431	1	8
389.602	1	12
389.773	1	9
389.944	1	4
390.114	1	-4
390.285	1	8
390.456	1	0
390.627	1	1
390.798	1	4
390.968	1	6
391.139	1	2
391.310	1	1
391.481	1	9
391.651	1	5
391.822	1	-10
391.993	1	5
392.164	1	-9
392.334	1	8
392.505	1	-7
392.676	1	13
392.847	1	19
393.017	1	6
393.188	1	-1
393.359	1	0
393.530	1	14
393.700	1	1
393.871	1	1
394.042	1	3
394.213	1	-5
394.383	1	4
394.554	1	5
394.725	1	4
394.896	1	-3
395.066	1	5
395.237	1	-4
395.408	1	-6
395.579	1	-4
395.749	1	8
395.920	1	-5
396.091	1	11
396.262	1	-4
396.432	1	0
396.603	1	3
396.774	1	9
396.945	1	11
397.115	1	4
397.286	1	0
397.457	1	-4
397.627	1	2
397.798	1	-2
397.969	1	1
398.140	1	-5
398.310	1	-4
398.481	1	3
398.652	1	-6
398.823	1	4
398.993	1	-4
399.164	1	-6
399.335	1	7
399.505	1	13
399.676	1	6
399.847	1	-4
400.018	1	-3
400.188	1	0
400.359	1	-1
400.530	1	-2
400.700	1	2
400.871	1	4
401.042	1	-6
401.213	1	8
401.383	1	4
401.554	1	9
401.725	1	13
401.895	1	-3
402.066	1	4
402.237	1	9
402.408	1	10
402.578	1	6
402.749	1	2
402.920	1	9
403.090	1	-5
403.261	1	-12
403.432	1	-6
403.603	1	5
403.773	1	7
403.944	1	1
404.115	1	10
404.285	1	6
404.456	1	3
404.627	1	3
404.797	1	-3
404.968	1	-1
405.139	1	-4
405.310	1	14
405.480	1	3
405.651	1	-6
405.822	1	-1
405.992	1	-3
406.163	1	-2
406.334	1	-7
406.504	1	1
406.675	1	4
406.846	1	3
407.016	1	7
407.187	1	11
407.358	1	-1
407.528	1	-4
407.699	1	-5
407.870	1	-4
408.041	1	7
408.211	1	12
408.382	1	-7
408.553	1	-4
408.723	1	9
408.894	1	3
409.065	1	8
409.235	1	0
409.406	1	0
409.577	1	-8
409.747	1	6
409.918	1	6
410.089	1	4
410.259	1	5
410.430	1	-4
410.601	1	-1
410.771	1	0
410.942	1	10
411.113	1	8
411.283	1	0
411.454	1	7
411.625	1	1
411.795	1	6
411.966	1	11
412.137	1	1
412.307	1	-5
412.478	1	-3
412.649	1	2
412.819	1	-1
412.990	1	-6
413.161	1	3
413.331	1	-6
413.502	1	5
413.672	1	-2
413.843	1	3
414.014	1	-1
414.184	1	10
414.355	1	-6
414.526	1	2
414.696	1	2
414.867	1	4
415.038	1	-11
415.208	1	7
415.379	1	12
415.550	1	17
415.720	1	4
415.891	1	3
416.062	1	6
416.232	1	3
416.403	1	6
416.573	1	9
416.744	1	3
416.915	1	11
417.085	1	4
417.256	1	3
417.427	1	6
417.597	1	3
417.768	1	-5
417.939	1	4
418.109	1	6
418.280	1	9
418.450	1	-1
418.621	1	-14
418.792	1	1
418.962	1	2
419.133	1	8
419.304	1	7
419.474	1	-3
419.645	1	3
419.815	1	-6
419.986	1	3
420.157	1	0
420.327	1	5
420.498	1	8
420.669	1	8
420.839	1	6
421.010	1	4
421.180	1	3
421.351	1	8
421.522	1	3
421.692	1	9
421.863	1	-9
422.033	1	10
422.204	1	-4
422.375	1	-4
422.545	1	9
422.716	1	1
422.886	1	0
423.057	1	14
423.228	1	10
423.398	1	-4
423.569	1	4
423.740	1	-8
423.910	1	-2
424.081	1	-5
424.251	1	6
424.422	1	5
424.593	1	-12
424.763	1	-4
424.934	1	2
425.104	1	2
425.275	1	0
425.445	1	5
425.616	1	-1
425.787	1	6
425.957	1	5
426.128	1	0
426.298	1	1
426.469	1	-5
426.640	1	3
426.810	1	11
426.981	1	7
427.151	1	-1
427.322	1	11
427.493	1	6
427.663	1	12
427.834	1	-6
428.004	1	4
428.175	1	3
428.345	1	1
428.516	1	-10
428.687	1	15
428.857	1	2
429.028	1	-6
429.198	1	-1
429.369	1	-4
429.540	1	-3
429.710	1	2
429.881	1	10
430.051	1	10
430.222	1	1
430.392	1	5
430.563	1	6
430.734	1	8
430.904	1	7
431.075	1	4
431.245	1	-3
431.416	1	-2
431.586	1	1
431.757	1	9
431.927	1	3
432.098	1	5
432.269	1	-3
432.439	1	6
432.610	1	-1
432.780	1	12
432.951	1	-9
433.121	1	16
433.292	1	0
433.462	1	11
433.633	1	3
433.804	1	3
433.974	1	1
434.145	1	9
434.315	1	2
434.486	1	-2
434.656	1	-3
434.827	1	2
434.997	1	3
435.168	1	2
435.339	1	6
435.509	1	-1
435.680	1	-1
435.850	1	8
436.021	1	1
436.191	1	2
436.362	1	7
436.532	1	-1
436.703	1	4
436.873	1	-4
437.044	1	-1
437.214	1	-2
437.385	1	-3
437.556	1	-4
437.726	1	10
437.897	1	7
438.067	1	11
438.238	1	1
438.408	1	1
438.579	1	1
438.749	1	-1
438.920	1	0
439.090	1	7
439.261	1	-6
439.431	1	-9
439.602	1	-2
439.772	1	2
439.943	1	7
440.113	1	13
440.284	1	8
440.455	1	10
440.625	1	6
440.796	1	6
440.966	1	-9
441.137	1	2
441.307	1	-6
441.478	1	12
441.648	1	11
441.819	1	-5
441.989	1	1
442.160	1	7
442.330	1	6
442.501	1	2
442.671	1	4
442.842	1	-1
443.012	1	2
443.183	1	9
443.353	1	-7
443.524	1	12
443.694	1	8
443.865	1	6
444.035	1	9
444.206	1	2
444.376	1	-7
444.547	1	16
444.717	1	4
444.888	1	3
445.058	1	11
445.229	1	5
445.399	1	-3
445.570	1	5
445.740	1	1
445.911	1	3
446.081	1	-11
446.252	1	6
446.422	1	-8
446.593	1	0
446.763	1	2
446.934	1	-9
447.104	1	2
447.275	1	-1
447.445	1	-1
447.616	1	3
447.786	1	1
447.957	1	5
448.127	1	-2
448.298	1	10
448.468	1	7
448.639	1	0
448.809	1	4
448.979	1	4
449.150	1	14
449.320	1	12
449.491	1	2
449.661	1	-4
449.832	1	2
450.002	1	15
450.173	1	0
450.343	1	-4
450.514	1	2
450.684	1	4
450.855	1	-4
451.025	1	1
451.196	1	1
451.366	1	3
451.537	1	0
451.707	1	-5
451.878	1	5
452.048	1	0
452.218	1	0
452.389	1	7
452.559	1	4
452.730	1	1
452.900	1	3
453.071	1	-14
453.241	1	0
453.412	1	3
453.582	1	-7
453.753	1	11
453.923	1	6
454.093	1	1
454.264	1	9
454.434	1	3
454.605	1	4
454.775	1	3
454.946	1	-5
455.116	1	9
455.287	1	-4
455.457	1	1
455.628	1	0
455.798	1	8
455.968	1	4
456.139	1	2
456.309	1	6
456.480	1	-2
456.650	1	-1
456.821	1	-2
456.991	1	-2
457.161	1	-1
457.332	1	10
457.502	1	-20
457.673	1	4
457.843	1	4
458.014	1	6
458.184	1	7
458.355	1	1
458.525	1	6
458.695	1	9
458.866	1	2
459.036	1	3
459.207	1	-8
459.377	1	1
459.548	1	6
459.718	1	-5
459.888	1	5
460.059	1	13
460.229	1	13
460.400	1	5
460.570	1	-1
460.740	1	4
460.911	1	10
461.081	1	-6
461.252	1	-7
461.422	1	5
461.593	1	3
461.763	1	2
461.933	1	13
462.104	1	-7
462.274	1	2
462.445	1	6
462.615	1	10
462.785	1	-1
462.956	1	15
463.126	1	16
463.297	1	6
463.467	1	2
463.638	1	3
463.808	1	-4
463.978	1	3
464.149	1	-2
464.319	1	3
464.490	1	19
464.660	1	0
464.830	1	3
465.001	1	1
465.171	1	13
465.342	1	5
465.512	1	-3
465.682	1	7
465.853	1	3
466.023	1	-5
466.194	1	0
466.364	1	12
466.534	1	-5
466.705	1	7
466.875	1	-9
467.045	1	-1
467.216	1	15
467.386	1	-1
467.557	1	2
467.727	1	-11
467.897	1	-3
468.068	1	-4
468.238	1	-1
468.409	1	2
468.579	1	5
468.749	1	6
468.920	1	2
469.090	1	-1
469.260	1	1
469.431	1	-3
469.601	1	14
469.772	1	1
469.942	1	-2
470.112	1	6
470.283	1	4
470.453	1	-1
470.623	1	0
470.794	1	0
470.964	1	-3
471.135	1	10
471.305	1	4
471.475	1	1
471.646	1	3
471.816	1	-9
471.986	1	-3
472.157	1	15
472.327	1	-8
472.497	1	5
472.668	1	-1
472.838	1	4
473.009	1	5
473.179	1	-8
473.349	1	-3
473.520	1	7
473.690	1	-2
473.860	1	7
474.031	1	1
474.201	1	1
474.371	1	9
474.542	1	5
474.712	1	0
474.882	1	7
475.053	1	13
475.223	1	1
475.394	1	8
475.564	1	0
475.734	1	9
475.905	1	14
476.075	1	1
476.245	1	8
476.416	1	14
476.586	1	14
476.756	1	8
476.927	1	2
477.097	1	14
477.267	1	-9
477.438	1	0
477.608	1	6
477.778	1	4
477.949	1	4
478.119	1	6
478.289	1	6
478.460	1	4
478.630	1	5
478.800	1	1
478.971	1	6
479.141	1	0
479.311	1	-7
479.482	1	6
479.652	1	-6
479.822	1	10
479.993	1	6
480.163	1	3
480.333	1	9
480.504	1	9
480.674	1	7
480.844	1	-5
481.015	1	6
481.185	1	-2
481.355	1	0
481.525	1	-3
481.696	1	2
481.866	1	-2
482.036	1	6
482.207	1	8
482.377	1	0
482.547	1	8
482.718	1	3
482.888	1	6
483.058	1	4
483.229	1	-5
483.399	1	-1
483.569	1	-4
483.740	1	2
483.910	1	0
484.080	1	-4
484.250	1	9
484.421	1	5
484.591	1	6
484.761	1	7
484.932	1	3
485.102	1	10
485.272	1	-1
485.443	1	11
485.613	1	5
485.783	1	1
485.953	1	3
486.124	1	11
486.294	1	3
486.464	1	8
486.635	1	11
486.805	1	8
486.975	1	5
487.146	1	5
487.316	1	1
487.486	1	1
487.656	1	-5
487.827	1	7
487.997	1	-2
488.167	1	2
488.338	1	11
488.508	1	2
488.678	1	-7
488.848	1	10
489.019	1	-2
489.189	1	-1
489.359	1	1
489.529	1	5
489.700	1	0
489.870	1	23
490.040	1	-8
490.211	1	-3
490.381	1	6
490.551	1	-8
490.721	1	5
490.892	1	6
491.062	1	0
491.232	1	7
491.402	1	-2
491.573	1	-6
491.743	1	2
491.913	1	5
492.084	1	9
492.254	1	-8
492.424	1	-3
492.594	1	4
492.765	1	4
492.935	1	7
493.105	1	-5
493.275	1	14
493.446	1	9
493.616	1	1
493.786	1	-4
493.956	1	0
494.127	1	1
494.297	1	-11
494.467	1	-1
494.637	1	0
494.808	1	-3
494.978	1	-2
495.148	1	-6
495.318	1	-1
495.489	1	5
495.659	1	2
495.829	1	9
495.999	1	0
496.170	1	7
496.340	1	9
496.510	1	6
496.680	1	-6
496.851	1	-4
497.021	1	-1
497.191	1	-5
497.361	1	5
497.532	1	-4
497.702	1	5
497.872	1	3
498.042	1	5
498.213	1	-2
498.383	1	-2
498.553	1	3
498.723	1	3
498.894	1	5
499.064	1	6
499.234	1	10
499.404	1	-1
499.574	1	5
499.745	1	4
499.915	1	4
500.085	1	12
500.255	1	9
500.426	1	2
500.596	1	11
500.766	1	1
500.936	1	6
501.106	1	-5
501.277	1	10
501.447	1	5
501.617	1	0
501.787	1	-2
501.958	1	-5
502.128	1	1
502.298	1	1
502.468	1	-2
502.638	1	4
502.809	1	-1
502.979	1	5
503.149	1	-7
503.319	1	2
503.489	1	2
503.660	1	9
503.830	1	-1
504.000	1	12
504.170	1	0
504.340	1	-6
504.511	1	10
504.681	1	0
504.851	1	8
505.021	1	-2
505.192	1	6
505.362	1	7
505.532	1	-3
505.702	1	-5
505.872	1	3
506.043	1	3
506.213	1	-11
506.383	1	4
506.553	1	6
506.723	1	-1
506.893	1	-7
507.064	1	15
507.234	1	3
507.404	1	-3
507.574	1	3
507.744	1	6
507.915	1	2
508.085	1	8
508.255	1	0
508.425	1	-6
508.595	1	4
508.766	1	-5
508.936	1	-9
509.106	1	13
509.276	1	10
509.446	1	3
509.616	1	2
509.787	1	-4
509.957	1	-1
510.127	1	-6
510.297	1	-10
510.467	1	-6
510.638	1	0
510.808	1	1
510.978	1	-3
511.148	1	9
511.318	1	-7
511.488	1	-8
511.659	1	2
511.829	1	-5
511.999	1	1
512.169	1	-4
512.339	1	0
512.509	1	3
512.680	1	-4
512.850	1	3
513.020	1	2
513.190	1	5
513.360	1	0
513.530	1	2
513.700	1	0
513.871	1	-5
514.041	1	2
514.211	1	15
514.381	1	8
514.551	1	8
514.721	1	-3
514.892	1	4
515.062	1	3
515.232	1	12
515.402	1	-5
515.572	1	-4
515.742	1	4
515.912	1	12
516.083	1	-3
516.253	1	13
516.423	1	2
516.593	1	-4
516.763	1	15
516.933	1	4
517.104	1	-1
517.274	1	4
517.444	1	1
517.614	1	0
517.784	1	3
517.954	1	-2
518.124	1	4
518.294	1	9
518.465	1	-6
518.635	1	9
518.805	1	-14
518.975	1	5
519.145	1	2
519.315	1	-14
519.485	1	-7
519.656	1	6
519.826	1	3
519.996	1	-9
520.166	1	9
520.336	1	9
520.506	1	9
520.676	1	2
520.846	1	6
521.017	1	-1
521.187	1	8
521.357	1	17
521.527	1	8
521.697	1	1
521.867	1	-3
522.037	1	13
522.207	1	10
522.377	1	4
522.548	1	6
522.718	1	2
522.888	1	9
523.058	1	1
523.228	1	3
523.398	1	8
523.568	1	13
523.738	1	7
523.909	1	8
524.079	1	1
524.249	1	8
524.419	1	5
524.589	1	4
524.759	1	-3
524.929	1	-5
525.099	1	5
525.269	1	12
525.439	1	1
525.610	1	14
525.780	1	-1
525.950	1	4
526.120	1	3
526.290	1	-3
526.460	1	-3
526.630	1	-5
526.800	1	-3
526.970	1	3
527.140	1	8
527.311	1	1
527.481	1	3
527.651	1	6
527.821	1	-8
527.991	1	6
528.161	1	9
528.331	1	1
528.501	1	-10
528.671	1	-4
528.841	1	3
529.011	1	-7
529.181	1	4
529.352	1	3
529.522	1	-6
529.692	1	1
529.862	1	3
530.032	1	-3
530.202	1	5
530.372	1	-2
530.542	1	1
530.712	1	7
530.882	1	3
531.052	1	9
531.222	1	8
531.392	1	-9
531.563	1	7
531.733	1	-5
531.903	1	-5
532.073	1	10
532.243	1	-11
532.413	1	8
532.583	1	-2
532.753	1	4
532.923	1	-3
533.093	1	11
533.263	1	3
533.433	1	-2
533.603	1	1
533.773	1	-2
533.943	1	-1
534.113	1	15
534.284	1	5
534.454	1	-1
534.624	1	16
534.794	1	-1
534.964	1	5
535.134	1	-3
535.304	1	1
535.474	1	12
535.644	1	3
535.814	1	-2
535.984	1	3
536.154	1	-9
536.324	1	2
536.494	1	6
536.664	1	9
536.834	1	2
537.004	1	2
537.174	1	7
537.344	1	-5
537.514	1	-9
537.685	1	5
537.855	1	4
538.025	1	0
538.195	1	-7
538.365	1	12
538.535	1	4
538.705	1	1
538.875	1	7
539.045	1	-1
539.215	1	-2
539.385	1	10
539.555	1	3
539.725	1	-1
539.895	1	-1
540.065	1	11
540.235	1	5
540.405	1	-1
540.575	1	-3
540.745	1	9
540.915	1	7
541.085	1	-3
541.255	1	-2
541.425	1	12
541.595	1	1
541.765	1	3
541.935	1	-6
542.105	1	-3
542.275	1	6
542.445	1	-15
542.615	1	-4
542.785	1	11
542.955	1	1
543.125	1	-10
543.295	1	0
543.465	1	12
543.635	1	-6
543.805	1	11
543.975	1	-5
544.145	1	3
544.315	1	-3
544.485	1	-1
544.655	1	3
544.825	1	-19
544.995	1	-4
545.165	1	-4
545.335	1	5
545.505	1	-6
545.675	1	11
545.845	1	6
546.015	1	5
546.185	1	1
546.355	1	4
546.525	1	5
546.695	1	4
546.865	1	-1
547.035	1	0
547.205	1	-11
547.375	1	-3
547.545	1	-2
547.715	1	-2
547.885	1	2
548.055	1	0
548.225	1	11
548.395	1	-2
548.565	1	4
548.735	1	1
548.905	1	-2
549.075	1	6
549.245	1	4
549.415	1	-3
549.585	1	3
549.755	1	3
549.925	1	-8
550.095	1	5
550.265	1	-4
550.435	1	0
550.605	1	-5
550.775	1	0
550.945	1	5
551.115	1	-3
551.285	1	3
551.455	1	-6
551.625	1	3
551.795	1	6
551.965	1	3
552.135	1	2
552.305	1	3
552.475	1	-10
552.645	1	-12
552.815	1	-4
552.985	1	16
553.155	1	4
553.325	1	9
553.495	1	3
553.665	1	4
553.835	1	-5
554.004	1	-2
554.174	1	0
554.344	1	8
554.514	1	5
554.684	1	4
554.854	1	7
555.024	1	-5
555.194	1	2
555.364	1	8
555.534	1	6
555.704	1	-2
555.874	1	7
556.044	1	-2
556.214	1	4
556.384	1	5
556.554	1	7
556.724	1	9
556.894	1	1
557.064	1	8
557.234	1	-3
557.404	1	5
557.573	1	3
557.743	1	6
557.913	1	0
558.083	1	-1
558.253	1	6
558.423	1	1
558.593	1	3
558.763	1	5
558.933	1	9
559.103	1	21
559.273	1	-2
559.443	1	-4
559.613	1	5
559.783	1	1
559.953	1	-2
560.122	1	12
560.292	1	3
560.462	1	4
560.632	1	12
560.802	1	10
560.972	1	0
561.142	1	4
561.312	1	-8
561.482	1	3
561.652	1	3
561.822	1	3
561.992	1	1
562.162	1	-1
562.331	1	1
562.501	1	-2
562.671	1	8
562.841	1	2
563.011	1	9
563.181	1	5
563.351	1	-11
563.521	1	-2
563.691	1	-1
563.861	1	-3
564.031	1	-1
564.201	1	9
564.370	1	1
564.540	1	-5
564.710	1	0
564.880	1	12
565.050	1	2
565.220	1	-6
565.390	1	1
565.560	1	5
565.730	1	7
565.900	1	5
566.069	1	13
566.239	1	7
566.409	1	4
566.579	1	4
566.749	1	-3
566.919	1	7
567.089	1	5
567.259	1	9
567.429	1	-2
567.599	1	-6
567.768	1	9
567.938	1	5
568.108	1	0
568.278	1	3
568.448	1	-11
568.618	1	-5
568.788	1	6
568.958	1	3
569.128	1	10
569.297	1	0
569.467	1	-11
569.637	1	-2
569.807	1	7
569.977	1	9
570.147	1	8
570.317	1	-7
570.487	1	5
570.656	1	4
570.826	1	1
570.996	1	-5
571.166	1	4
571.336	1	-2
571.506	1	11
571.676	1	5
571.846	1	5
572.015	1	4
572.185	1	3
572.355	1	10
572.525	1	5
572.695	1	9
572.865	1	-5
573.035	1	-1
573.205	1	0
573.374	1	-10
573.544	1	1
573.714	1	9
573.884	1	9
574.054	1	4
574.224	1	2
574.394	1	-1
574.563	1	-7
574.733	1	1
574.903	1	6
575.073	1	-6
575.243	1	3
575.413	1	12
575.583	1	-1
575.752	1	3
575.922	1	6
576.092	1	-2
576.262	1	10
576.432	1	9
576.602	1	-8
576.772	1	9
576.941	1	0
577.111	1	-12
577.281	1	-2
577.451	1	-1
577.621	1	6
577.791	1	4
577.960	1	-3
578.130	1	5
578.300	1	2
578.470	1	7
578.640	1	3
578.810	1	-1
578.979	1	-1
579.149	1	7
579.319	1	-4
579.489	1	-3
579.659	1	2
579.829	1	2
579.998	1	7
580.168	1	9
580.338	1	6
580.508	1	-1
580.678	1	10
580.848	1	7
581.017	1	0
581.187	1	-1
581.357	1	-6
581.527	1	5
581.697	1	11
581.867	1	9
582.036	1	8
582.206	1	5
582.376	1	7
582.546	1	-1
582.716	1	0
582.885	1	0
583.055	1	-7
583.225	1	2
583.395	1	5
583.565	1	-3
583.735	1	5
583.904	1	-1
584.074	1	5
584.244	1	2
584.414	1	-10
584.584	1	3
584.753	1	0
584.923	1	3
585.093	1	2
585.263	1	4
585.433	1	13
585.602	1	-9
585.772	1	1
585.942	1	-7
586.112	1	-1
586.282	1	-2
586.451	1	0
586.621	1	-3
586.791	1	-2
586.961	1	3
587.131	1	13
587.300	1	9
587.470	1	9
587.640	1	5
587.810	1	-9
587.980	1	-5
588.149	1	8
588.319	1	-2
588.489	1	-5
588.659	1	4
588.829	1	14
588.998	1	4
589.168	1	9
589.338	1	-3
589.508	1	4
589.677	1	-1
589.847	1	-19
590.017	1	22
590.187	1	0
590.357	1	10
590.526	1	14
590.696	1	9
590.866	1	3
591.036	1	-5
591.205	1	9
591.375	1	-4
591.545	1	-2
591.715	1	9
591.885	1	-1
592.054	1	-2
592.224	1	-2
592.394	1	-4
592.564	1	1
592.733	1	1
592.903	1	-8
593.073	1	15
593.243	1	12
593.412	1	12
593.582	1	-5
593.752	1	0
593.922	1	8
594.091	1	1
594.261	1	-2
594.431	1	8
594.601	1	8
594.771	1	8
594.940	1	1
595.110	1	6
595.280	1	4
595.450	1	3
595.619	1	6
595.789	1	-1
595.959	1	10
596.129	1	-2
596.298	1	7
596.468	1	7
596.638	1	4
596.808	1	3
596.977	1	-2
597.147	1	3
597.317	1	4
597.487	1	11
597.656	1	2
597.826	1	-6
597.996	1	-1
598.166	1	-2
598.335	1	0
598.505	1	4
598.675	1	2
598.844	1	5
599.014	1	4
599.184	1	2
599.354	1	-10
599.523	1	5
599.693	1	1
599.863	1	12
600.033	1	-3
600.202	1	3
600.372	1	2
600.542	1	3
600.712	1	-4
600.881	1	-5
601.051	1	7
601.221	1	3
601.390	1	-1
601.560	1	8
601.730	1	9
601.900	1	-2
602.069	1	2
602.239	1	-10
602.409	1	-3
602.578	1	1
602.748	1	3
602.918	1	5
603.088	1	-1
603.257	1	11
603.427	1	1
603.597	1	-1
603.767	1	5
603.936	1	7
604.106	1	4
604.276	1	1
604.445	1	9
604.615	1	7
604.785	1	0
604.954	1	0
605.124	1	9
605.294	1	-7
605.464	1	-3
605.633	1	14
605.803	1	4
605.973	1	-6
606.142	1	9
606.312	1	5
606.482	1	-5
606.652	1	5
606.821	1	0
606.991	1	-2
607.161	1	-3
607.330	1	3
607.500	1	3
607.670	1	-4
607.839	1	8
608.009	1	17
608.179	1	7
608.348	1	-1
608.518	1	-6
608.688	1	7
608.858	1	-6
609.027	1	-12
609.197	1	5
609.367	1	12
609.536	1	4
609.706	1	-6
609.876	1	-1
610.045	1	10
610.215	1	12
610.385	1	0
610.554	1	4
610.724	1	4
610.894	1	-1
611.063	1	10
611.233	1	-7
611.403	1	-3
611.572	1	-11
611.742	1	10
611.912	1	7
612.081	1	-5
612.251	1	5
612.421	1	1
612.590	1	3
612.760	1	0
612.930	1	9
613.099	1	0
613.269	1	2
613.439	1	3
613.608	1	2
613.778	1	2
613.948	1	-4
614.117	1	-1
614.287	1	9
614.457	1	-2
614.626	1	7
614.796	1	4
614.966	1	1
615.135	1	-4
615.305	1	9
615.475	1	7
615.644	1	0
615.814	1	6
615.984	1	-4
616.153	1	0
616.323	1	1
616.493	1	2
616.662	1	5
616.832	1	-5
617.002	1	1
617.171	1	-2
617.341	1	1
617.511	1	-7
617.680	1	2
617.850	1	-2
618.019	1	17
618.189	1	14
618.359	1	4
618.528	1	2
618.698	1	2
618.868	1	-3
619.037	1	1
619.207	1	2
619.377	1	5
619.546	1	-2
619.716	1	2
619.885	1	3
620.055	1	-5
620.225	1	8
620.394	1	-2
620.564	1	7
620.734	1	11
620.903	1	-6
621.073	1	9
621.242	1	7
621.412	1	8
621.582	1	2
621.751	1	6
621.921	1	-1
622.091	1	-1
622.260	1	8
622.430	1	3
622.599	1	3
622.769	1	12
622.939	1	1
623.108	1	2
623.278	1	-8
623.448	1	-2
623.617	1	7
623.787	1	-1
623.956	1	4
624.126	1	6
624.296	1	4
624.465	1	3
624.635	1	8
624.804	1	-8
624.974	1	7
625.144	1	12
625.313	1	1
625.483	1	-12
625.652	1	6
625.822	1	6
625.992	1	4
626.161	1	8
626.331	1	0
626.501	1	7
626.670	1	-7
626.840	1	0
627.009	1	-6
627.179	1	8
627.348	1	14
627.518	1	8
627.688	1	-2
627.857	1	19
628.027	1	-5
628.196	1	6
628.366	1	5
628.536	1	7
628.705	1	0
628.875	1	9
629.044	1	-1
629.214	1	5
629.384	1	8
629.553	1	14
629.723	1	-1
629.892	1	6
630.062	1	12
630.232	1	2
630.401	1	8
630.571	1	6
630.740	1	7
630.910	1	8
631.079	1	1
631.249	1	7
631.419	1	5
631.588	1	-7
631.758	1	2
631.927	1	-2
632.097	1	8
632.266	1	0
632.436	1	10
632.606	1	1
632.775	1	0
632.945	1	0
633.114	1	9
633.284	1	-7
633.453	1	5
633.623	1	6
633.793	1	4
633.962	1	0
634.132	1	-3
634.301	1	-2
634.471	1	6
634.640	1	0
634.810	1	4
634.979	1	0
635.149	1	3
635.319	1	9
635.488	1	9
635.658	1	4
635.827	1	-4
635.997	1	2
636.166	1	3
636.336	1	-8
636.505	1	17
636.675	1	-2
636.845	1	5
637.014	1	7
637.184	1	4
637.353	1	3
637.523	1	6
637.692	1	-4
637.862	1	8
638.031	1	5
638.201	1	-1
638.370	1	4
638.540	1	0
638.710	1	-4
638.879	1	-9
639.049	1	1
639.218	1	6
639.388	1	2
639.557	1	0
639.727	1	1
639.896	1	6
640.066	1	-4
640.235	1	3
640.405	1	7
640.574	1	6
640.744	1	-7
640.914	1	-3
641.083	1	-6
641.253	1	3
641.422	1	4
641.592	1	11
641.761	1	-1
641.931	1	3
642.100	1	20
642.270	1	-7
642.439	1	1
642.609	1	11
642.778	1	2
642.948	1	-12
643.117	1	2
643.287	1	6
643.456	1	-3
643.626	1	11
643.795	1	3
643.965	1	11
644.134	1	3
644.304	1	-1
644.473	1	10
644.643	1	2
644.812	1	2
644.982	1	9
645.151	1	10
645.321	1	-1
645.490	1	8
645.660	1	-2
645.829	1	1
645.999	1	1
646.168	1	2
646.338	1	8
646.507	1	-4
646.677	1	4
646.846	1	1
647.016	1	-14
647.185	1	13
647.355	1	-7
647.524	1	9
647.694	1	3
647.863	1	0
648.033	1	5
648.202	1	4
648.372	1	-2
648.541	1	-2
648.711	1	4
648.880	1	-8
649.050	1	-2
649.219	1	-2
649.389	1	13
649.558	1	4
649.728	1	-5
649.897	1	1
650.067	1	7
650.236	1	3
650.406	1	1
650.575	1	10
650.745	1	11
650.914	1	3
651.084	1	-15
651.253	1	3
651.423	1	1
651.592	1	5
651.762	1	1
651.931	1	10
652.101	1	3
652.270	1	11
652.440	1	7
652.609	1	-9
652.778	1	-8
652.948	1	4
653.117	1	4
653.287	1	-3
653.456	1	5
653.626	1	9
653.795	1	5
653.965	1	11
654.134	1	7
654.304	1	-18
654.473	1	7
654.643	1	2
654.812	1	-2
654.982	1	11
655.151	1	6
655.320	1	2
655.490	1	-5
655.659	1	10
655.829	1	-1
655.998	1	0
656.168	1	-2
656.337	1	7
656.507	1	0
656.676	1	3
656.846	1	1
657.015	1	11
657.184	1	0
657.354	1	3
657.523	1	12
657.693	1	11
657.862	1	3
658.032	1	-12
658.201	1	4
658.371	1	11
658.540	1	-5
658.709	1	6
658.879	1	13
659.048	1	3
659.218	1	-6
659.387	1	2
659.557	1	2
659.726	1	0
659.895	1	4
660.065	1	-3
660.234	1	1
660.404	1	10
660.573	1	-7
660.743	1	-1
660.912	1	7
661.081	1	7
661.251	1	4
661.420	1	2
661.590	1	3
661.759	1	9
661.929	1	5
662.098	1	14
662.267	1	-7
662.437	1	0
662.606	1	0
662.776	1	7
662.945	1	1
663.115	1	8
663.284	1	-8
663.453	1	3
663.623	1	-1
663.792	1	4
663.962	1	-1
664.131	1	8
664.300	1	4
664.470	1	2
664.639	1	2
664.809	1	-13
664.978	1	4
665.148	1	-2
665.317	1	0
665.486	1	8
665.656	1	-5
665.825	1	14
665.995	1	-5
666.164	1	-7
666.333	1	5
666.503	1	3
666.672	1	-7
666.842	1	1
667.011	1	3
667.180	1	16
667.350	1	-1
667.519	1	5
667.689	1	3
667.858	1	3
668.027	1	18
668.197	1	0
668.366	1	1
668.536	1	2
668.705	1	13
668.874	1	4
669.044	1	-4
669.213	1	6
669.382	1	-4
669.552	1	7
669.721	1	5
669.891	1	12
670.060	1	9
670.229	1	20
670.399	1	-1
670.568	1	9
670.738	1	2
670.907	1	-5
671.076	1	-5
671.246	1	4
671.415	1	5
671.584	1	3
671.754	1	1
671.923	1	1
672.093	1	8
672.262	1	-4
672.431	1	8
672.601	1	-8
672.770	1	-2
672.939	1	7
673.109	1	-2
673.278	1	-3
673.448	1	7
673.617	1	9
673.786	1	6
