325.333	1	19
325.504	1	15
325.675	1	13
325.846	1	26
326.017	1	21
326.188	1	25
326.359	1	22
326.531	1	12
326.702	1	17
326.873	1	29
327.044	1	19
327.215	1	24
327.386	1	32
327.557	1	5
327.728	1	27
327.899	1	34
328.070	1	26
328.241	1	33
328.412	1	17
328.583	1	20
328.754	1	28
328.926	1	27
329.097	1	13
329.268	1	27
329.439	1	14
329.610	1	20
329.781	1	15
329.952	1	27
330.123	1	27
330.294	1	15
330.465	1	24
330.636	1	31
330.807	1	25
330.978	1	20
331.149	1	12
331.320	1	34
331.492	1	20
331.663	1	29
331.834	1	40
332.005	1	21
332.176	1	37
332.347	1	37
332.518	1	19
332.689	1	40
332.860	1	19
333.031	1	38
333.202	1	24
333.373	1	24
333.544	1	28
333.715	1	36
333.886	1	12
334.057	1	37
334.228	1	30
334.399	1	33
334.570	1	37
334.741	1	26
334.912	1	30
335.084	1	47
335.255	1	38
335.426	1	33
335.597	1	35
335.768	1	31
335.939	1	40
336.110	1	24
336.281	1	29
336.452	1	29
336.623	1	40
336.794	1	41
336.965	1	38
337.136	1	42
337.307	1	28
337.478	1	33
337.649	1	35
337.820	1	30
337.991	1	32
338.162	1	43
338.333	1	39
338.504	1	45
338.675	1	43
338.846	1	50
339.017	1	34
339.188	1	35
339.359	1	38
339.530	1	44
339.701	1	37
339.872	1	59
340.043	1	35
340.214	1	34
340.385	1	52
340.556	1	36
340.727	1	51
340.898	1	59
341.069	1	42
341.240	1	39
341.411	1	37
341.582	1	49
341.753	1	46
341.924	1	45
342.095	1	45
342.266	1	44
342.437	1	56
342.608	1	50
342.779	1	56
342.950	1	49
343.121	1	56
343.292	1	45
343.463	1	51
343.634	1	45
343.805	1	51
343.976	1	48
344.147	1	43
344.318	1	42
344.489	1	52
344.660	1	51
344.831	1	54
345.002	1	40
345.173	1	56
345.344	1	48
345.515	1	54
345.686	1	44
345.857	1	52
346.028	1	56
346.199	1	53
346.370	1	49
346.541	1	66
346.712	1	43
346.883	1	51
347.054	1	42
347.225	1	52
347.396	1	60
347.567	1	44
347.738	1	47
347.909	1	57
348.080	1	45
348.251	1	59
348.422	1	70
348.593	1	58
348.764	1	48
348.935	1	57
349.106	1	50
349.277	1	58
349.448	1	57
349.619	1	60
349.790	1	54
349.961	1	55
350.132	1	60
350.303	1	68
350.474	1	66
350.645	1	65
350.816	1	55
350.987	1	63
351.157	1	58
351.328	1	67
351.499	1	68
351.670	1	61
351.841	1	71
352.012	1	77
352.183	1	77
352.354	1	62
352.525	1	85
352.696	1	66
352.867	1	64
353.038	1	70
353.209	1	65
353.380	1	67
353.551	1	63
353.722	1	55
353.893	1	57
354.064	1	79
354.235	1	65
354.406	1	63
354.576	1	61
354.747	1	70
354.918	1	70
355.089	1	78
355.260	1	73
355.431	1	79
355.602	1	61
355.773	1	62
355.944	1	73
356.115	1	73
356.286	1	78
356.457	1	71
356.628	1	75
356.799	1	62
356.970	1	87
357.141	1	72
357.311	1	72
357.482	1	68
357.653	1	77
357.824	1	77
357.995	1	73
358.166	1	66
358.337	1	85
358.508	1	86
358.679	1	77
358.850	1	74
359.021	1	75
359.192	1	80
359.363	1	72
359.533	1	83
359.704	1	73
359.875	1	80
360.046	1	73
360.217	1	65
360.388	1	80
360.559	1	76
360.730	1	77
360.901	1	79
361.072	1	93
361.243	1	83
361.414	1	71
361.584	1	69
361.755	1	86
361.926	1	78
362.097	1	81
362.268	1	73
362.439	1	66
362.610	1	89
362.781	1	71
362.952	1	71
363.123	1	87
363.293	1	87
363.464	1	81
363.635	1	91
363.806	1	75
363.977	1	87
364.148	1	81
364.319	1	80
364.490	1	79
364.661	1	80
364.832	1	88
365.002	1	80
365.173	1	97
365.344	1	89
365.515	1	82
365.686	1	73
365.857	1	89
366.028	1	83
366.199	1	72
366.370	1	89
366.540	1	94
366.711	1	83
366.882	1	81
367.053	1	84
367.224	1	112
367.395	1	84
367.566	1	90
367.737	1	97
367.908	1	97
368.078	1	81
368.249	1	84
368.420	1	69
368.591	1	87
368.762	1	85
368.933	1	81
369.104	1	85
369.274	1	89
369.445	1	91
369.616	1	84
369.787	1	87
369.958	1	102
370.129	1	84
370.300	1	99
370.471	1	97
370.641	1	87
370.812	1	96
370.983	1	100
371.154	1	86
371.325	1	94
371.496	1	85
371.667	1	95
371.837	1	73
372.008	1	88
372.179	1	78
372.350	1	103
372.521	1	90
372.692	1	84
372.863	1	83
373.033	1	78
373.204	1	81
373.375	1	95
373.546	1	97
373.717	1	93
373.888	1	102
374.059	1	94
374.229	1	95
374.400	1	88
374.571	1	87
374.742	1	94
374.913	1	93
375.084	1	86
375.254	1	89
375.425	1	102
375.596	1	96
375.767	1	94
375.938	1	98
376.109	1	102
376.279	1	88
376.450	1	101
376.621	1	98
376.792	1	91
376.963	1	97
377.134	1	108
377.304	1	95
377.475	1	100
377.646	1	95
377.817	1	96
377.988	1	109
378.159	1	112
378.329	1	111
378.500	1	99
378.671	1	110
378.842	1	104
379.013	1	94
379.184	1	106
379.354	1	108
379.525	1	101
379.696	1	103
379.867	1	107
380.038	1	107
380.209	1	114
380.379	1	97
380.550	1	100
380.721	1	108
380.892	1	109
381.063	1	109
381.233	1	103
381.404	1	110
381.575	1	103
381.746	1	104
381.917	1	102
382.087	1	111
382.258	1	95
382.429	1	98
382.600	1	113
382.771	1	103
382.941	1	106
383.112	1	100
383.283	1	105
383.454	1	97
383.625	1	103
383.795	1	108
383.966	1	97
384.137	1	111
384.308	1	120
384.479	1	113
384.649	1	116
384.820	1	111
384.991	1	105
385.162	1	108
385.333	1	106
385.503	1	112
385.674	1	104
385.845	1	120
386.016	1	106
386.187	1	109
386.357	1	125
386.528	1	117
386.699	1	120
386.870	1	116
387.041	1	121
387.211	1	114
387.382	1	127
387.553	1	109
387.724	1	107
387.894	1	118
388.065	1	119
388.236	1	122
388.407	1	116
388.578	1	117
388.748	1	124
388.919	1	114
389.090	1	117
389.261	1	115
389.431	1	121
389.602	1	122
389.773	1	109
389.944	1	119
390.114	1	117
390.285	1	114
390.456	1	126
390.627	1	119
390.798	1	104
390.968	1	110
391.139	1	104
391.310	1	106
391.481	1	125
391.651	1	117
391.822	1	116
391.993	1	109
392.164	1	116
392.334	1	120
392.505	1	102
392.676	1	122
392.847	1	125
393.017	1	130
393.188	1	123
393.359	1	119
393.530	1	128
393.700	1	111
393.871	1	113
394.042	1	119
394.213	1	120
394.383	1	123
394.554	1	116
394.725	1	119
394.896	1	114
395.066	1	124
395.237	1	124
395.408	1	124
395.579	1	118
395.749	1	122
395.920	1	128
396.091	1	132
396.262	1	121
396.432	1	116
396.603	1	136
396.774	1	140
396.945	1	129
397.115	1	125
397.286	1	123
397.457	1	122
397.627	1	126
397.798	1	131
397.969	1	113
398.140	1	129
398.310	1	118
398.481	1	133
398.652	1	128
398.823	1	130
398.993	1	129
399.164	1	133
399.335	1	132
399.505	1	126
399.676	1	134
399.847	1	139
400.018	1	122
400.188	1	119
400.359	1	120
400.530	1	122
400.700	1	123
400.871	1	117
401.042	1	125
401.213	1	114
401.383	1	124
401.554	1	134
401.725	1	133
401.895	1	117
402.066	1	143
402.237	1	135
402.408	1	126
402.578	1	124
402.749	1	135
402.920	1	133
403.090	1	127
403.261	1	125
403.432	1	127
403.603	1	137
403.773	1	135
403.944	1	124
404.115	1	132
404.285	1	138
404.456	1	123
404.627	1	122
404.797	1	121
404.968	1	125
405.139	1	117
405.310	1	140
405.480	1	136
405.651	1	128
405.822	1	125
405.992	1	125
406.163	1	118
406.334	1	115
406.504	1	138
406.675	1	134
406.846	1	122
407.016	1	134
407.187	1	134
407.358	1	126
407.528	1	129
407.699	1	131
407.870	1	133
408.041	1	124
408.211	1	137
408.382	1	135
408.553	1	117
408.723	1	142
408.894	1	127
409.065	1	129
409.235	1	127
409.406	1	140
409.577	1	136
409.747	1	140
409.918	1	125
410.089	1	132
410.259	1	131
410.430	1	127
410.601	1	140
410.771	1	131
410.942	1	138
411.113	1	138
411.283	1	121
411.454	1	135
411.625	1	146
411.795	1	141
411.966	1	132
412.137	1	132
412.307	1	123
412.478	1	132
412.649	1	130
412.819	1	133
412.990	1	130
413.161	1	131
413.331	1	110
413.502	1	134
413.672	1	122
413.843	1	111
414.014	1	136
414.184	1	133
414.355	1	130
414.526	1	123
414.696	1	140
414.867	1	136
415.038	1	108
415.208	1	129
415.379	1	136
415.550	1	137
415.720	1	123
415.891	1	133
416.062	1	139
416.232	1	136
416.403	1	136
416.573	1	128
416.744	1	127
416.915	1	135
417.085	1	113
417.256	1	127
417.427	1	131
417.597	1	133
417.768	1	121
417.939	1	130
418.109	1	132
418.280	1	136
418.450	1	127
418.621	1	111
418.792	1	129
418.962	1	134
419.133	1	131
419.304	1	123
419.474	1	126
419.645	1	131
419.815	1	130
419.986	1	128
420.157	1	126
420.327	1	138
420.498	1	136
420.669	1	127
420.839	1	135
421.010	1	133
421.180	1	126
421.351	1	126
421.522	1	129
421.692	1	126
421.863	1	121
422.033	1	138
422.204	1	131
422.375	1	120
422.545	1	128
422.716	1	129
422.886	1	117
423.057	1	129
423.228	1	129
423.398	1	115
423.569	1	127
423.740	1	120
423.910	1	116
424.081	1	124
424.251	1	125
424.422	1	127
424.593	1	118
424.763	1	127
424.934	1	107
425.104	1	128
425.275	1	112
425.445	1	112
425.616	1	120
425.787	1	111
425.957	1	113
426.128	1	131
426.298	1	123
426.469	1	123
426.640	1	116
426.810	1	121
426.981	1	121
427.151	1	118
427.322	1	110
427.493	1	123
427.663	1	113
427.834	1	121
428.004	1	118
428.175	1	115
428.345	1	108
428.516	1	124
428.687	1	120
428.857	1	100
429.028	1	107
429.198	1	115
429.369	1	123
429.540	1	117
429.710	1	113
429.881	1	131
430.051	1	113
430.222	1	107
430.392	1	119
430.563	1	135
430.734	1	120
430.904	1	120
431.075	1	121
431.245	1	115
431.416	1	125
431.586	1	117
431.757	1	125
431.927	1	112
432.098	1	121
432.269	1	111
432.439	1	108
432.610	1	128
432.780	1	120
432.951	1	113
433.121	1	115
433.292	1	131
433.462	1	123
433.633	1	115
433.804	1	120
433.974	1	107
434.145	1	127
434.315	1	117
434.486	1	102
434.656	1	125
434.827	1	119
434.997	1	107
435.168	1	127
435.339	1	116
435.509	1	108
435.680	1	111
435.850	1	119
436.021	1	116
436.191	1	113
436.362	1	114
436.532	1	110
436.703	1	110
436.873	1	110
437.044	1	95
437.214	1	101
437.385	1	98
437.556	1	112
437.726	1	128
437.897	1	123
438.067	1	109
438.238	1	107
438.408	1	119
438.579	1	108
438.749	1	108
438.920	1	104
439.090	1	106
439.261	1	103
439.431	1	99
439.602	1	109
439.772	1	108
439.943	1	113
440.113	1	114
440.284	1	112
440.455	1	100
440.625	1	112
440.796	1	103
440.966	1	96
441.137	1	107
441.307	1	95
441.478	1	124
441.648	1	113
441.819	1	108
441.989	1	110
442.160	1	108
442.330	1	97
442.501	1	107
442.671	1	105
442.842	1	102
443.012	1	105
443.183	1	111
443.353	1	96
443.524	1	101
443.694	1	101
443.865	1	103
444.035	1	100
444.206	1	102
444.376	1	95
444.547	1	116
444.717	1	100
444.888	1	103
445.058	1	106
445.229	1	106
445.399	1	94
445.570	1	107
445.740	1	99
445.911	1	91
446.081	1	89
446.252	1	96
446.422	1	95
446.593	1	96
446.763	1	107
446.934	1	99
447.104	1	111
447.275	1	104
447.445	1	95
447.616	1	118
447.786	1	98
447.957	1	91
448.127	1	104
448.298	1	104
448.468	1	83
448.639	1	103
448.809	1	99
448.979	1	96
449.150	1	103
449.320	1	105
449.491	1	112
449.661	1	99
449.832	1	92
450.002	1	109
450.173	1	104
450.343	1	100
450.514	1	91
450.684	1	100
450.855	1	83
451.025	1	94
451.196	1	98
451.366	1	95
451.537	1	89
451.707	1	89
451.878	1	98
452.048	1	103
452.218	1	105
452.389	1	93
452.559	1	88
452.730	1	95
452.900	1	93
453.071	1	81
453.241	1	96
453.412	1	92
453.582	1	105
453.753	1	93
453.923	1	97
454.093	1	106
454.264	1	105
454.434	1	95
454.605	1	89
454.775	1	94
454.946	1	92
455.116	1	89
455.287	1	87
455.457	1	88
455.628	1	89
455.798	1	89
455.968	1	93
456.139	1	79
456.309	1	84
456.480	1	76
456.650	1	82
456.821	1	79
456.991	1	77
457.161	1	87
457.332	1	85
457.502	1	77
457.673	1	80
457.843	1	92
458.014	1	88
458.184	1	89
458.355	1	77
458.525	1	91
458.695	1	82
458.866	1	75
459.036	1	83
459.207	1	89
459.377	1	86
459.548	1	95
459.718	1	76
459.888	1	83
460.059	1	86
460.229	1	97
460.400	1	86
460.570	1	89
460.740	1	77
460.911	1	83
461.081	1	77
461.252	1	70
461.422	1	79
461.593	1	77
461.763	1	84
461.933	1	82
462.104	1	75
462.274	1	89
462.445	1	88
462.615	1	77
462.785	1	79
462.956	1	91
463.126	1	88
463.297	1	92
463.467	1	71
463.638	1	84
463.808	1	93
463.978	1	66
464.149	1	96
464.319	1	69
464.490	1	98
464.660	1	78
464.830	1	80
465.001	1	79
465.171	1	82
465.342	1	82
465.512	1	78
465.682	1	80
465.853	1	80
466.023	1	76
466.194	1	77
466.364	1	90
466.534	1	78
466.705	1	79
466.875	1	80
467.045	1	80
467.216	1	88
467.386	1	72
467.557	1	83
467.727	1	77
467.897	1	67
468.068	1	72
468.238	1	79
468.409	1	80
468.579	1	76
468.749	1	72
468.920	1	71
469.090	1	80
469.260	1	65
469.431	1	71
469.601	1	73
469.772	1	75
469.942	1	63
470.112	1	85
470.283	1	75
470.453	1	71
470.623	1	72
470.794	1	64
470.964	1	73
471.135	1	72
471.305	1	64
471.475	1	90
471.646	1	70
471.816	1	71
471.986	1	67
472.157	1	63
472.327	1	60
472.497	1	70
472.668	1	64
472.838	1	65
473.009	1	80
473.179	1	70
473.349	1	66
473.520	1	76
473.690	1	62
473.860	1	62
474.031	1	74
474.201	1	75
474.371	1	91
474.542	1	76
474.712	1	71
474.882	1	75
475.053	1	91
475.223	1	65
475.394	1	73
475.564	1	64
475.734	1	77
475.905	1	82
476.075	1	79
476.245	1	82
476.416	1	74
476.586	1	65
476.756	1	71
476.927	1	78
477.097	1	66
477.267	1	68
477.438	1	68
477.608	1	64
477.778	1	63
477.949	1	67
478.119	1	75
478.289	1	74
478.460	1	75
478.630	1	71
478.800	1	64
478.971	1	72
479.141	1	62
479.311	1	55
479.482	1	74
479.652	1	64
479.822	1	65
479.993	1	64
480.163	1	77
480.333	1	74
480.504	1	71
480.674	1	63
480.844	1	62
481.015	1	71
481.185	1	61
481.355	1	75
481.525	1	66
481.696	1	78
481.866	1	71
482.036	1	81
482.207	1	65
482.377	1	66
482.547	1	67
482.718	1	57
482.888	1	74
483.058	1	67
483.229	1	56
483.399	1	65
483.569	1	64
483.740	1	65
483.910	1	69
484.080	1	66
484.250	1	63
484.421	1	69
484.591	1	58
484.761	1	65
484.932	1	69
485.102	1	72
485.272	1	60
485.443	1	66
485.613	1	66
485.783	1	50
485.953	1	63
486.124	1	73
486.294	1	68
486.464	1	67
486.635	1	63
486.805	1	73
486.975	1	61
487.146	1	60
487.316	1	60
487.486	1	66
487.656	1	55
487.827	1	56
487.997	1	49
488.167	1	59
488.338	1	69
488.508	1	59
488.678	1	53
488.848	1	73
489.019	1	53
489.189	1	59
489.359	1	56
489.529	1	54
489.700	1	55
489.870	1	60
490.040	1	51
490.211	1	51
490.381	1	58
490.551	1	61
490.721	1	56
490.892	1	60
491.062	1	57
491.232	1	62
491.402	1	54
491.573	1	44
491.743	1	51
491.913	1	62
492.084	1	62
492.254	1	44
492.424	1	53
492.594	1	60
492.765	1	63
492.935	1	54
493.105	1	55
493.275	1	61
493.446	1	67
493.616	1	70
493.786	1	61
493.956	1	48
494.127	1	71
494.297	1	53
494.467	1	50
494.637	1	63
494.808	1	53
494.978	1	50
495.148	1	53
495.318	1	64
495.489	1	58
495.659	1	66
495.829	1	59
495.999	1	52
496.170	1	62
496.340	1	50
496.510	1	60
496.680	1	47
496.851	1	63
497.021	1	51
497.191	1	57
497.361	1	54
497.532	1	52
497.702	1	51
497.872	1	50
498.042	1	53
498.213	1	52
498.383	1	46
498.553	1	59
498.723	1	42
498.894	1	49
499.064	1	61
499.234	1	55
499.404	1	55
499.574	1	63
499.745	1	53
499.915	1	63
500.085	1	52
500.255	1	61
500.426	1	57
500.596	1	62
500.766	1	51
500.936	1	47
501.106	1	43
501.277	1	52
501.447	1	63
501.617	1	47
501.787	1	38
501.958	1	41
502.128	1	46
502.298	1	52
502.468	1	58
502.638	1	41
502.809	1	39
502.979	1	54
503.149	1	36
503.319	1	44
503.489	1	50
503.660	1	66
503.830	1	45
504.000	1	59
504.170	1	46
504.340	1	54
504.511	1	44
504.681	1	50
504.851	1	59
505.021	1	61
505.192	1	44
505.362	1	58
505.532	1	48
505.702	1	45
505.872	1	47
506.043	1	44
506.213	1	44
506.383	1	48
506.553	1	55
506.723	1	52
506.893	1	49
507.064	1	52
507.234	1	44
507.404	1	47
507.574	1	54
507.744	1	47
507.915	1	43
508.085	1	49
508.255	1	47
508.425	1	47
508.595	1	58
508.766	1	59
508.936	1	34
509.106	1	51
509.276	1	54
509.446	1	41
509.616	1	39
509.787	1	50
509.957	1	50
510.127	1	49
510.297	1	43
510.467	1	48
510.638	1	54
510.808	1	31
510.978	1	38
511.148	1	50
511.318	1	50
511.488	1	41
511.659	1	37
511.829	1	44
511.999	1	46
512.169	1	49
512.339	1	38
512.509	1	37
512.680	1	49
512.850	1	37
513.020	1	44
513.190	1	50
513.360	1	42
513.530	1	45
513.700	1	51
513.871	1	46
514.041	1	42
514.211	1	54
514.381	1	47
514.551	1	52
514.721	1	39
514.892	1	54
515.062	1	37
515.232	1	42
515.402	1	35
515.572	1	39
515.742	1	39
515.912	1	44
516.083	1	54
516.253	1	54
516.423	1	42
516.593	1	45
516.763	1	52
516.933	1	31
517.104	1	40
517.274	1	40
517.444	1	42
517.614	1	32
517.784	1	45
517.954	1	39
518.124	1	43
518.294	1	36
518.465	1	32
518.635	1	39
518.805	1	41
518.975	1	34
519.145	1	39
519.315	1	40
519.485	1	41
519.656	1	44
519.826	1	47
519.996	1	33
520.166	1	45
520.336	1	50
520.506	1	39
520.676	1	25
520.846	1	41
521.017	1	37
521.187	1	41
521.357	1	52
521.527	1	31
521.697	1	40
521.867	1	41
522.037	1	55
522.207	1	41
522.377	1	46
522.548	1	45
522.718	1	40
522.888	1	45
523.058	1	34
523.228	1	42
523.398	1	45
523.568	1	41
523.738	1	42
523.909	1	43
524.079	1	36
524.249	1	41
524.419	1	41
524.589	1	34
524.759	1	29
524.929	1	34
525.099	1	39
525.269	1	36
525.439	1	48
525.610	1	46
525.780	1	38
525.950	1	38
526.120	1	32
526.290	1	40
526.460	1	29
526.630	1	45
526.800	1	31
526.970	1	30
527.140	1	56
527.311	1	31
527.481	1	36
527.651	1	37
527.821	1	30
527.991	1	52
528.161	1	45
528.331	1	30
528.501	1	43
528.671	1	37
528.841	1	38
529.011	1	35
529.181	1	47
529.352	1	43
529.522	1	41
529.692	1	37
529.862	1	29
530.032	1	33
530.202	1	40
530.372	1	42
530.542	1	35
530.712	1	37
530.882	1	34
531.052	1	51
531.222	1	36
531.392	1	37
531.563	1	51
531.733	1	31
531.903	1	33
532.073	1	41
532.243	1	42
532.413	1	27
532.583	1	33
532.753	1	31
532.923	1	25
533.093	1	34
533.263	1	39
533.433	1	35
533.603	1	36
533.773	1	27
533.943	1	38
534.113	1	44
534.284	1	31
534.454	1	50
534.624	1	49
534.794	1	32
534.964	1	39
535.134	1	35
535.304	1	33
535.474	1	47
535.644	1	32
535.814	1	35
535.984	1	27
536.154	1	30
536.324	1	37
536.494	1	36
536.664	1	39
536.834	1	35
537.004	1	31
537.174	1	43
537.344	1	42
537.514	1	23
537.685	1	36
537.855	1	43
538.025	1	46
538.195	1	36
538.365	1	37
538.535	1	32
538.705	1	38
538.875	1	20
539.045	1	42
539.215	1	36
539.385	1	31
539.555	1	35
539.725	1	34
539.895	1	27
540.065	1	45
540.235	1	37
540.405	1	36
540.575	1	28
540.745	1	44
540.915	1	34
541.085	1	31
541.255	1	24
541.425	1	32
541.595	1	31
541.765	1	37
541.935	1	19
542.105	1	30
542.275	1	44
542.445	1	29
542.615	1	25
542.785	1	37
542.955	1	31
543.125	1	22
543.295	1	37
543.465	1	34
543.635	1	20
543.805	1	39
543.975	1	41
544.145	1	28
544.315	1	36
544.485	1	40
544.655	1	24
544.825	1	32
544.995	1	31
545.165	1	19
545.335	1	26
545.505	1	34
545.675	1	20
545.845	1	39
546.015	1	34
546.185	1	34
546.355	1	40
546.525	1	43
546.695	1	19
546.865	1	26
547.035	1	32
547.205	1	15
547.375	1	39
547.545	1	34
547.715	1	25
547.885	1	36
548.055	1	21
548.225	1	24
548.395	1	27
548.565	1	30
548.735	1	30
548.905	1	31
549.075	1	35
549.245	1	30
549.415	1	31
549.585	1	31
549.755	1	36
549.925	1	23
550.095	1	29
550.265	1	35
550.435	1	35
550.605	1	10
550.775	1	40
550.945	1	41
551.115	1	31
551.285	1	31
551.455	1	12
551.625	1	31
551.795	1	29
551.965	1	24
552.135	1	21
552.305	1	19
552.475	1	22
552.645	1	29
552.815	1	24
552.985	1	39
553.155	1	28
553.325	1	28
553.495	1	29
553.665	1	25
553.835	1	26
554.004	1	30
554.174	1	28
554.344	1	29
554.514	1	21
554.684	1	40
554.854	1	31
555.024	1	20
555.194	1	29
555.364	1	22
555.534	1	28
555.704	1	24
555.874	1	30
556.044	1	26
556.214	1	12
556.384	1	24
556.554	1	29
556.724	1	27
556.894	1	21
557.064	1	21
557.234	1	28
557.404	1	32
557.573	1	29
557.743	1	32
557.913	1	21
558.083	1	19
558.253	1	37
558.423	1	19
558.593	1	31
558.763	1	24
558.933	1	22
559.103	1	32
559.273	1	23
559.443	1	36
559.613	1	25
559.783	1	21
559.953	1	28
560.122	1	32
560.292	1	24
560.462	1	22
560.632	1	38
560.802	1	27
560.972	1	35
561.142	1	35
561.312	1	22
561.482	1	31
561.652	1	36
561.822	1	12
561.992	1	19
562.162	1	31
562.331	1	22
562.501	1	11
562.671	1	31
562.841	1	19
563.011	1	21
563.181	1	16
563.351	1	16
563.521	1	24
563.691	1	17
563.861	1	26
564.031	1	25
564.201	1	28
564.370	1	8
564.540	1	30
564.710	1	17
564.880	1	32
565.050	1	13
565.220	1	23
565.390	1	23
565.560	1	28
565.730	1	11
565.900	1	22
566.069	1	34
566.239	1	30
566.409	1	28
566.579	1	27
566.749	1	18
566.919	1	31
567.089	1	25
567.259	1	31
567.429	1	27
567.599	1	23
567.768	1	20
567.938	1	20
568.108	1	26
568.278	1	21
568.448	1	9
568.618	1	17
568.788	1	30
568.958	1	25
569.128	1	29
569.297	1	16
569.467	1	13
569.637	1	29
569.807	1	30
569.977	1	24
570.147	1	30
570.317	1	14
570.487	1	18
570.656	1	30
570.826	1	20
570.996	1	19
571.166	1	24
571.336	1	15
571.506	1	26
571.676	1	24
571.846	1	26
572.015	1	16
572.185	1	19
572.355	1	21
572.525	1	26
572.695	1	27
572.865	1	18
573.035	1	21
573.205	1	14
573.374	1	15
573.544	1	22
573.714	1	33
573.884	1	23
574.054	1	28
574.224	1	25
574.394	1	15
574.563	1	16
574.733	1	23
574.903	1	16
575.073	1	21
575.243	1	17
575.413	1	32
575.583	1	16
575.752	1	27
575.922	1	20
576.092	1	20
576.262	1	30
576.432	1	28
576.602	1	17
576.772	1	33
576.941	1	25
577.111	1	14
577.281	1	16
577.451	1	8
577.621	1	25
577.791	1	22
577.960	1	13
578.130	1	10
578.300	1	21
578.470	1	22
578.640	1	26
578.810	1	18
578.979	1	24
579.149	1	19
579.319	1	16
579.489	1	26
579.659	1	22
579.829	1	23
579.998	1	32
580.168	1	33
580.338	1	16
580.508	1	22
580.678	1	23
580.848	1	18
581.017	1	23
581.187	1	17
581.357	1	15
581.527	1	28
581.697	1	28
581.867	1	24
582.036	1	19
582.206	1	21
582.376	1	31
582.546	1	9
582.716	1	17
582.885	1	18
583.055	1	23
583.225	1	16
583.395	1	27
583.565	1	7
583.735	1	18
583.904	1	26
584.074	1	24
584.244	1	21
584.414	1	19
584.584	1	21
584.753	1	17
584.923	1	23
585.093	1	28
585.263	1	21
585.433	1	28
585.602	1	13
585.772	1	14
585.942	1	19
586.112	1	16
586.282	1	18
586.451	1	8
586.621	1	10
586.791	1	18
586.961	1	15
587.131	1	33
587.300	1	13
587.470	1	21
587.640	1	17
587.810	1	14
587.980	1	26
588.149	1	16
588.319	1	28
588.489	1	18
588.659	1	22
588.829	1	24
588.998	1	31
589.168	1	25
589.338	1	19
589.508	1	16
589.677	1	13
589.847	1	14
590.017	1	31
590.187	1	13
590.357	1	27
590.526	1	29
590.696	1	24
590.866	1	25
591.036	1	17
591.205	1	29
591.375	1	12
591.545	1	15
591.715	1	26
591.885	1	16
592.054	1	21
592.224	1	25
592.394	1	15
592.564	1	18
592.733	1	23
592.903	1	22
593.073	1	20
593.243	1	18
593.412	1	23
593.582	1	19
593.752	1	11
593.922	1	24
594.091	1	17
594.261	1	20
594.431	1	18
594.601	1	20
594.771	1	17
594.940	1	21
595.110	1	14
595.280	1	16
595.450	1	19
595.619	1	20
595.789	1	15
595.959	1	27
596.129	1	14
596.298	1	26
596.468	1	18
596.638	1	14
596.808	1	22
596.977	1	16
597.147	1	20
597.317	1	18
597.487	1	26
597.656	1	18
597.826	1	15
597.996	1	18
598.166	1	22
598.335	1	6
598.505	1	18
598.675	1	15
598.844	1	9
599.014	1	11
599.184	1	20
599.354	1	14
599.523	1	30
599.693	1	16
599.863	1	22
600.033	1	18
600.202	1	17
600.372	1	14
600.542	1	21
600.712	1	13
600.881	1	14
601.051	1	19
601.221	1	24
601.390	1	15
601.560	1	27
601.730	1	22
601.900	1	19
602.069	1	21
602.239	1	14
602.409	1	6
602.578	1	21
602.748	1	15
602.918	1	24
603.088	1	19
603.257	1	23
603.427	1	11
603.597	1	22
603.767	1	22
603.936	1	22
604.106	1	16
604.276	1	18
604.445	1	28
604.615	1	16
604.785	1	13
604.954	1	16
605.124	1	30
605.294	1	21
605.464	1	12
605.633	1	21
605.803	1	16
605.973	1	21
606.142	1	26
606.312	1	20
606.482	1	14
606.652	1	24
606.821	1	18
606.991	1	17
607.161	1	16
607.330	1	21
607.500	1	19
607.670	1	16
607.839	1	27
608.009	1	30
608.179	1	11
608.348	1	18
608.518	1	23
608.688	1	34
608.858	1	20
609.027	1	13
609.197	1	20
609.367	1	29
609.536	1	25
609.706	1	17
609.876	1	19
610.045	1	23
610.215	1	28
610.385	1	24
610.554	1	16
610.724	1	35
610.894	1	16
611.063	1	17
611.233	1	21
611.403	1	22
611.572	1	15
611.742	1	17
611.912	1	24
612.081	1	14
612.251	1	22
612.421	1	15
612.590	1	15
612.760	1	21
612.930	1	22
613.099	1	20
613.269	1	34
613.439	1	16
613.608	1	17
613.778	1	23
613.948	1	16
614.117	1	26
614.287	1	28
614.457	1	27
614.626	1	23
614.796	1	28
614.966	1	14
615.135	1	16
615.305	1	23
615.475	1	22
615.644	1	21
615.814	1	9
615.984	1	13
616.153	1	17
616.323	1	20
616.493	1	19
616.662	1	28
616.832	1	28
617.002	1	14
617.171	1	15
617.341	1	23
617.511	1	8
617.680	1	13
617.850	1	17
618.019	1	31
618.189	1	30
618.359	1	28
618.528	1	26
618.698	1	20
618.868	1	13
619.037	1	15
619.207	1	14
619.377	1	14
619.546	1	9
619.716	1	17
619.885	1	27
620.055	1	13
620.225	1	24
620.394	1	19
620.564	1	17
620.734	1	19
620.903	1	13
621.073	1	29
621.242	1	20
621.412	1	15
621.582	1	19
621.751	1	26
621.921	1	27
622.091	1	20
622.260	1	11
622.430	1	22
622.599	1	18
622.769	1	17
622.939	1	23
623.108	1	22
623.278	1	10
623.448	1	21
623.617	1	20
623.787	1	14
623.956	1	19
624.126	1	19
624.296	1	24
624.465	1	29
624.635	1	33
624.804	1	26
624.974	1	22
625.144	1	14
625.313	1	17
625.483	1	14
625.652	1	7
625.822	1	12
625.992	1	8
626.161	1	31
626.331	1	26
626.501	1	22
626.670	1	25
626.840	1	20
627.009	1	4
627.179	1	26
627.348	1	27
627.518	1	31
627.688	1	16
627.857	1	21
628.027	1	18
628.196	1	22
628.366	1	26
628.536	1	24
628.705	1	8
628.875	1	14
629.044	1	11
629.214	1	30
629.384	1	25
629.553	1	32
629.723	1	20
629.892	1	24
630.062	1	24
630.232	1	18
630.401	1	23
630.571	1	24
630.740	1	20
630.910	1	20
631.079	1	22
631.249	1	26
631.419	1	27
631.588	1	10
631.758	1	21
631.927	1	21
632.097	1	17
632.266	1	25
632.436	1	25
632.606	1	17
632.775	1	17
632.945	1	27
633.114	1	29
633.284	1	26
633.453	1	14
633.623	1	26
633.793	1	29
633.962	1	27
634.132	1	28
634.301	1	21
634.471	1	24
634.640	1	21
634.810	1	22
634.979	1	29
635.149	1	31
635.319	1	21
635.488	1	17
635.658	1	23
635.827	1	25
635.997	1	19
636.166	1	27
636.336	1	22
636.505	1	30
636.675	1	16
636.845	1	23
637.014	1	19
637.184	1	23
637.353	1	27
637.523	1	21
637.692	1	23
637.862	1	32
638.031	1	27
638.201	1	32
638.370	1	28
638.540	1	21
638.710	1	22
638.879	1	16
639.049	1	24
639.218	1	31
639.388	1	21
639.557	1	25
639.727	1	33
639.896	1	22
640.066	1	18
640.235	1	30
640.405	1	22
640.574	1	22
640.744	1	21
640.914	1	33
641.083	1	29
641.253	1	18
641.422	1	31
641.592	1	38
641.761	1	24
641.931	1	36
642.100	1	35
642.270	1	18
642.439	1	38
642.609	1	23
642.778	1	23
642.948	1	25
643.117	1	26
643.287	1	25
643.456	1	7
643.626	1	37
643.795	1	22
643.965	1	24
644.134	1	22
644.304	1	32
644.473	1	25
644.643	1	24
644.812	1	33
644.982	1	26
645.151	1	23
645.321	1	24
645.490	1	31
645.660	1	15
645.829	1	31
645.999	1	20
646.168	1	32
646.338	1	26
646.507	1	18
646.677	1	37
646.846	1	30
647.016	1	12
647.185	1	27
647.355	1	17
647.524	1	26
647.694	1	30
647.863	1	45
648.033	1	18
648.202	1	34
648.372	1	18
648.541	1	22
648.711	1	22
648.880	1	24
649.050	1	17
649.219	1	30
649.389	1	29
649.558	1	32
649.728	1	23
649.897	1	20
650.067	1	39
650.236	1	26
650.406	1	25
650.575	1	30
650.745	1	34
650.914	1	23
651.084	1	12
651.253	1	34
651.423	1	26
651.592	1	19
651.762	1	25
651.931	1	28
652.101	1	22
652.270	1	39
652.440	1	24
652.609	1	20
652.778	1	28
652.948	1	30
653.117	1	21
653.287	1	30
653.456	1	23
653.626	1	31
653.795	1	24
653.965	1	30
654.134	1	24
654.304	1	11
654.473	1	26
654.643	1	25
654.812	1	24
654.982	1	26
655.151	1	25
655.320	1	29
655.490	1	21
655.659	1	20
655.829	1	21
655.998	1	20
656.168	1	24
656.337	1	24
656.507	1	16
656.676	1	27
656.846	1	34
657.015	1	35
657.184	1	28
657.354	1	26
657.523	1	36
657.693	1	25
657.862	1	36
658.032	1	30
658.201	1	26
658.371	1	40
658.540	1	33
658.709	1	19
658.879	1	31
659.048	1	29
659.218	1	28
659.387	1	34
659.557	1	36
659.726	1	20
659.895	1	34
660.065	1	22
660.234	1	42
660.404	1	22
660.573	1	22
660.743	1	28
660.912	1	24
661.081	1	29
661.251	1	20
661.420	1	30
661.590	1	24
661.759	1	31
661.929	1	31
662.098	1	32
662.267	1	28
662.437	1	29
662.606	1	24
662.776	1	23
662.945	1	28
663.115	1	35
663.284	1	25
663.453	1	25
663.623	1	33
663.792	1	33
663.962	1	19
664.131	1	36
664.300	1	39
664.470	1	33
664.639	1	33
664.809	1	27
664.978	1	30
665.148	1	34
665.317	1	30
665.486	1	33
665.656	1	37
665.825	1	43
665.995	1	21
666.164	1	26
666.333	1	28
666.503	1	26
666.672	1	28
666.842	1	22
667.011	1	18
667.180	1	35
667.350	1	29
667.519	1	35
667.689	1	28
667.858	1	34
668.027	1	37
668.197	1	15
668.366	1	28
668.536	1	29
668.705	1	25
668.874	1	34
669.044	1	26
669.213	1	40
669.382	1	25
669.552	1	37
669.721	1	29
669.891	1	45
670.060	1	33
670.229	1	39
670.399	1	21
670.568	1	33
670.738	1	31
670.907	1	23
671.076	1	22
671.246	1	31
671.415	1	22
671.584	1	19
671.754	1	27
671.923	1	21
672.093	1	28
672.262	1	14
672.431	1	31
672.601	1	18
672.770	1	19
672.939	1	24
673.109	1	20
673.278	1	23
673.448	1	36
673.617	1	27
673.786	1	26
