325.333	1	8
325.504	1	9
325.675	1	8
325.846	1	10
326.017	1	4
326.188	1	9
326.359	1	3
326.531	1	-8
326.702	1	5
326.873	1	16
327.044	1	5
327.215	1	8
327.386	1	13
327.557	1	8
327.728	1	2
327.899	1	4
328.070	1	17
328.241	1	3
328.412	1	-7
328.583	1	5
328.754	1	0
328.926	1	18
329.097	1	1
329.268	1	23
329.439	1	-3
329.610	1	3
329.781	1	-3
329.952	1	12
330.123	1	9
330.294	1	3
330.465	1	1
330.636	1	13
330.807	1	0
330.978	1	2
331.149	1	-3
331.320	1	2
331.492	1	12
331.663	1	9
331.834	1	11
332.005	1	3
332.176	1	22
332.347	1	10
332.518	1	-13
332.689	1	14
332.860	1	6
333.031	1	24
333.202	1	2
333.373	1	11
333.544	1	7
333.715	1	9
333.886	1	-8
334.057	1	9
334.228	1	0
334.399	1	7
334.570	1	13
334.741	1	-6
334.912	1	13
335.084	1	21
335.255	1	12
335.426	1	-2
335.597	1	2
335.768	1	-2
335.939	1	11
336.110	1	5
336.281	1	5
336.452	1	4
336.623	1	8
336.794	1	13
336.965	1	4
337.136	1	14
337.307	1	2
337.478	1	-1
337.649	1	9
337.820	1	8
337.991	1	6
338.162	1	3
338.333	1	13
338.504	1	9
338.675	1	15
338.846	1	10
339.017	1	15
339.188	1	1
339.359	1	-5
339.530	1	2
339.701	1	15
339.872	1	21
340.043	1	8
340.214	1	2
340.385	1	13
340.556	1	-8
340.727	1	17
340.898	1	14
341.069	1	17
341.240	1	3
341.411	1	8
341.582	1	5
341.753	1	1
341.924	1	10
342.095	1	8
342.266	1	15
342.437	1	13
342.608	1	11
342.779	1	17
342.950	1	9
343.121	1	11
343.292	1	8
343.463	1	10
343.634	1	9
343.805	1	13
343.976	1	19
344.147	1	7
344.318	1	10
344.489	1	17
344.660	1	12
344.831	1	8
345.002	1	6
345.173	1	15
345.344	1	13
345.515	1	17
345.686	1	8
345.857	1	19
346.028	1	6
346.199	1	11
346.370	1	11
346.541	1	11
346.712	1	4
346.883	1	13
347.054	1	21
347.225	1	16
347.396	1	16
347.567	1	10
347.738	1	4
347.909	1	20
348.080	1	4
348.251	1	15
348.422	1	16
348.593	1	13
348.764	1	13
348.935	1	16
349.106	1	15
349.277	1	17
349.448	1	20
349.619	1	15
349.790	1	9
349.961	1	11
350.132	1	11
350.303	1	13
350.474	1	27
350.645	1	9
350.816	1	13
350.987	1	14
351.157	1	7
351.328	1	17
351.499	1	20
351.670	1	16
351.841	1	21
352.012	1	16
352.183	1	13
352.354	1	18
352.525	1	27
352.696	1	19
352.867	1	6
353.038	1	15
353.209	1	12
353.380	1	11
353.551	1	7
353.722	1	14
353.893	1	-1
354.064	1	19
354.235	1	8
354.406	1	12
354.576	1	11
354.747	1	20
354.918	1	19
355.089	1	10
355.260	1	16
355.431	1	28
355.602	1	11
355.773	1	17
355.944	1	15
356.115	1	15
356.286	1	17
356.457	1	8
356.628	1	20
356.799	1	28
356.970	1	29
357.141	1	16
357.311	1	23
357.482	1	18
357.653	1	12
357.824	1	14
357.995	1	11
358.166	1	10
358.337	1	24
358.508	1	20
358.679	1	23
358.850	1	18
359.021	1	14
359.192	1	22
359.363	1	13
359.533	1	17
359.704	1	20
359.875	1	10
360.046	1	24
360.217	1	13
360.388	1	19
360.559	1	15
360.730	1	27
360.901	1	23
361.072	1	33
361.243	1	19
361.414	1	13
361.584	1	20
361.755	1	27
361.926	1	8
362.097	1	9
362.268	1	22
362.439	1	12
362.610	1	23
362.781	1	8
362.952	1	-3
363.123	1	17
363.293	1	9
363.464	1	28
363.635	1	22
363.806	1	27
363.977	1	12
364.148	1	26
364.319	1	21
364.490	1	14
364.661	1	15
364.832	1	21
365.002	1	15
365.173	1	21
365.344	1	23
365.515	1	22
365.686	1	21
365.857	1	21
366.028	1	14
366.199	1	19
366.370	1	13
366.540	1	5
366.711	1	3
366.882	1	6
367.053	1	13
367.224	1	33
367.395	1	17
367.566	1	28
367.737	1	22
367.908	1	21
368.078	1	19
368.249	1	27
368.420	1	11
368.591	1	15
368.762	1	22
368.933	1	18
369.104	1	15
369.274	1	13
369.445	1	10
369.616	1	23
369.787	1	20
369.958	1	25
370.129	1	13
370.300	1	21
370.471	1	15
370.641	1	23
370.812	1	24
370.983	1	21
371.154	1	8
371.325	1	23
371.496	1	20
371.667	1	31
371.837	1	13
372.008	1	18
372.179	1	11
372.350	1	33
372.521	1	21
372.692	1	26
372.863	1	28
373.033	1	11
373.204	1	8
373.375	1	18
373.546	1	29
373.717	1	21
373.888	1	27
374.059	1	24
374.229	1	25
374.400	1	13
374.571	1	17
374.742	1	26
374.913	1	28
375.084	1	22
375.254	1	25
375.425	1	21
375.596	1	14
375.767	1	21
375.938	1	23
376.109	1	19
376.279	1	16
376.450	1	21
376.621	1	23
376.792	1	19
376.963	1	27
377.134	1	34
377.304	1	25
377.475	1	21
377.646	1	25
377.817	1	24
377.988	1	15
378.159	1	25
378.329	1	26
378.500	1	16
378.671	1	32
378.842	1	19
379.013	1	12
379.184	1	25
379.354	1	31
379.525	1	11
379.696	1	32
379.867	1	27
380.038	1	28
380.209	1	23
380.379	1	27
380.550	1	9
380.721	1	29
380.892	1	32
381.063	1	28
381.233	1	25
381.404	1	28
381.575	1	32
381.746	1	21
381.917	1	28
382.087	1	25
382.258	1	19
382.429	1	23
382.600	1	33
382.771	1	19
382.941	1	21
383.112	1	36
383.283	1	26
383.454	1	31
383.625	1	25
383.795	1	24
383.966	1	28
384.137	1	36
384.308	1	21
384.479	1	30
384.649	1	39
384.820	1	31
384.991	1	24
385.162	1	28
385.333	1	16
385.503	1	21
385.674	1	18
385.845	1	35
386.016	1	29
386.187	1	23
386.357	1	29
386.528	1	22
386.699	1	28
386.870	1	43
387.041	1	31
387.211	1	41
387.382	1	37
387.553	1	24
387.724	1	24
387.894	1	28
388.065	1	18
388.236	1	26
388.407	1	26
388.578	1	22
388.748	1	23
388.919	1	22
389.090	1	25
389.261	1	31
389.431	1	41
389.602	1	26
389.773	1	36
389.944	1	26
390.114	1	25
390.285	1	27
390.456	1	25
390.627	1	25
390.798	1	25
390.968	1	33
391.139	1	29
391.310	1	18
391.481	1	32
391.651	1	30
391.822	1	31
391.993	1	18
392.164	1	16
392.334	1	32
392.505	1	29
392.676	1	29
392.847	1	39
393.017	1	39
393.188	1	25
393.359	1	26
393.530	1	34
393.700	1	26
393.871	1	32
394.042	1	34
394.213	1	17
394.383	1	36
394.554	1	31
394.725	1	27
394.896	1	26
395.066	1	36
395.237	1	17
395.408	1	29
395.579	1	36
395.749	1	24
395.920	1	32
396.091	1	23
396.262	1	29
396.432	1	27
396.603	1	28
396.774	1	40
396.945	1	29
397.115	1	42
397.286	1	41
397.457	1	31
397.627	1	38
397.798	1	35
397.969	1	28
398.140	1	30
398.310	1	28
398.481	1	40
398.652	1	35
398.823	1	28
398.993	1	37
399.164	1	25
399.335	1	47
399.505	1	30
399.676	1	21
399.847	1	40
400.018	1	16
400.188	1	33
400.359	1	35
400.530	1	26
400.700	1	42
400.871	1	40
401.042	1	38
401.213	1	34
401.383	1	40
401.554	1	31
401.725	1	49
401.895	1	29
402.066	1	42
402.237	1	37
402.408	1	41
402.578	1	34
402.749	1	31
402.920	1	41
403.090	1	27
403.261	1	19
403.432	1	35
403.603	1	44
403.773	1	35
403.944	1	38
404.115	1	41
404.285	1	29
404.456	1	44
404.627	1	36
404.797	1	20
404.968	1	30
405.139	1	23
405.310	1	34
405.480	1	35
405.651	1	28
405.822	1	30
405.992	1	35
406.163	1	43
406.334	1	32
406.504	1	27
406.675	1	36
406.846	1	34
407.016	1	34
407.187	1	30
407.358	1	36
407.528	1	26
407.699	1	20
407.870	1	37
408.041	1	40
408.211	1	38
408.382	1	21
408.553	1	22
408.723	1	39
408.894	1	21
409.065	1	42
409.235	1	35
409.406	1	33
409.577	1	34
409.747	1	46
409.918	1	29
410.089	1	27
410.259	1	41
410.430	1	36
410.601	1	24
410.771	1	37
410.942	1	45
411.113	1	46
411.283	1	36
411.454	1	38
411.625	1	39
411.795	1	40
411.966	1	41
412.137	1	30
412.307	1	25
412.478	1	32
412.649	1	43
412.819	1	28
412.990	1	27
413.161	1	28
413.331	1	33
413.502	1	40
413.672	1	25
413.843	1	42
414.014	1	32
414.184	1	24
414.355	1	31
414.526	1	39
414.696	1	32
414.867	1	44
415.038	1	10
415.208	1	26
415.379	1	42
415.550	1	32
415.720	1	30
415.891	1	28
416.062	1	24
416.232	1	32
416.403	1	24
416.573	1	39
416.744	1	27
416.915	1	39
417.085	1	36
417.256	1	35
417.427	1	43
417.597	1	32
417.768	1	26
417.939	1	42
418.109	1	44
418.280	1	41
418.450	1	29
418.621	1	21
418.792	1	33
418.962	1	42
419.133	1	46
419.304	1	33
419.474	1	39
419.645	1	36
419.815	1	30
419.986	1	27
420.157	1	41
420.327	1	39
420.498	1	39
420.669	1	34
420.839	1	40
421.010	1	41
421.180	1	36
421.351	1	43
421.522	1	35
421.692	1	34
421.863	1	36
422.033	1	45
422.204	1	32
422.375	1	33
422.545	1	48
422.716	1	33
422.886	1	37
423.057	1	33
423.228	1	41
423.398	1	33
423.569	1	27
423.740	1	31
423.910	1	18
424.081	1	25
424.251	1	26
424.422	1	38
424.593	1	30
424.763	1	24
424.934	1	39
425.104	1	33
425.275	1	27
425.445	1	24
425.616	1	29
425.787	1	18
425.957	1	36
426.128	1	41
426.298	1	36
426.469	1	38
426.640	1	24
426.810	1	31
426.981	1	29
427.151	1	26
427.322	1	36
427.493	1	39
427.663	1	29
427.834	1	45
428.004	1	36
428.175	1	27
428.345	1	28
428.516	1	24
428.687	1	24
428.857	1	27
429.028	1	14
429.198	1	29
429.369	1	47
429.540	1	36
429.710	1	20
429.881	1	26
430.051	1	30
430.222	1	18
430.392	1	40
430.563	1	34
430.734	1	31
430.904	1	41
431.075	1	35
431.245	1	19
431.416	1	35
431.586	1	32
431.757	1	32
431.927	1	32
432.098	1	32
432.269	1	34
432.439	1	29
432.610	1	34
432.780	1	38
432.951	1	27
433.121	1	38
433.292	1	41
433.462	1	37
433.633	1	34
433.804	1	42
433.974	1	22
434.145	1	49
434.315	1	25
434.486	1	27
434.656	1	32
434.827	1	21
434.997	1	34
435.168	1	32
435.339	1	24
435.509	1	26
435.680	1	22
435.850	1	26
436.021	1	22
436.191	1	31
436.362	1	34
436.532	1	30
436.703	1	31
436.873	1	28
437.044	1	9
437.214	1	36
437.385	1	26
437.556	1	24
437.726	1	43
437.897	1	33
438.067	1	28
438.238	1	26
438.408	1	36
438.579	1	22
438.749	1	21
438.920	1	35
439.090	1	23
439.261	1	17
439.431	1	19
439.602	1	26
439.772	1	27
439.943	1	34
440.113	1	23
440.284	1	36
440.455	1	19
440.625	1	25
440.796	1	24
440.966	1	23
441.137	1	23
441.307	1	17
441.478	1	27
441.648	1	28
441.819	1	27
441.989	1	27
442.160	1	30
442.330	1	38
442.501	1	26
442.671	1	25
442.842	1	16
443.012	1	21
443.183	1	25
443.353	1	19
443.524	1	29
443.694	1	29
443.865	1	21
444.035	1	25
444.206	1	24
444.376	1	9
444.547	1	34
444.717	1	20
444.888	1	21
445.058	1	29
445.229	1	30
445.399	1	35
445.570	1	27
445.740	1	17
445.911	1	31
446.081	1	19
446.252	1	34
446.422	1	21
446.593	1	14
446.763	1	26
446.934	1	17
447.104	1	25
447.275	1	23
447.445	1	23
447.616	1	29
447.786	1	21
447.957	1	29
448.127	1	21
448.298	1	38
448.468	1	21
448.639	1	16
448.809	1	33
448.979	1	17
449.150	1	27
449.320	1	32
449.491	1	18
449.661	1	14
449.832	1	27
450.002	1	23
450.173	1	23
450.343	1	33
450.514	1	24
450.684	1	15
450.855	1	31
451.025	1	17
451.196	1	27
451.366	1	35
451.537	1	28
451.707	1	6
451.878	1	21
452.048	1	38
452.218	1	30
452.389	1	32
452.559	1	23
452.730	1	28
452.900	1	23
453.071	1	8
453.241	1	20
453.412	1	22
453.582	1	12
453.753	1	28
453.923	1	21
454.093	1	28
454.264	1	28
454.434	1	19
454.605	1	20
454.775	1	24
454.946	1	21
455.116	1	23
455.287	1	10
455.457	1	0
455.628	1	22
455.798	1	19
455.968	1	26
456.139	1	9
456.309	1	27
456.480	1	9
456.650	1	19
456.821	1	12
456.991	1	18
457.161	1	20
457.332	1	28
457.502	1	14
457.673	1	26
457.843	1	25
458.014	1	14
458.184	1	18
458.355	1	9
458.525	1	26
458.695	1	14
458.866	1	12
459.036	1	23
459.207	1	31
459.377	1	10
459.548	1	28
459.718	1	12
459.888	1	23
460.059	1	25
460.229	1	20
460.400	1	21
460.570	1	12
460.740	1	19
460.911	1	28
461.081	1	24
461.252	1	21
461.422	1	18
461.593	1	16
461.763	1	16
461.933	1	20
462.104	1	9
462.274	1	29
462.445	1	21
462.615	1	20
462.785	1	17
462.956	1	26
463.126	1	26
463.297	1	18
463.467	1	21
463.638	1	21
463.808	1	8
463.978	1	10
464.149	1	9
464.319	1	17
464.490	1	29
464.660	1	17
464.830	1	10
465.001	1	12
465.171	1	22
465.342	1	16
465.512	1	13
465.682	1	13
465.853	1	25
466.023	1	14
466.194	1	10
466.364	1	30
466.534	1	30
466.705	1	13
466.875	1	8
467.045	1	17
467.216	1	24
467.386	1	22
467.557	1	16
467.727	1	13
467.897	1	16
468.068	1	15
468.238	1	7
468.409	1	25
468.579	1	33
468.749	1	17
468.920	1	15
469.090	1	14
469.260	1	9
469.431	1	21
469.601	1	18
469.772	1	15
469.942	1	11
470.112	1	22
470.283	1	19
470.453	1	22
470.623	1	13
470.794	1	6
470.964	1	8
471.135	1	15
471.305	1	0
471.475	1	22
471.646	1	8
471.816	1	8
471.986	1	17
472.157	1	17
472.327	1	4
472.497	1	16
472.668	1	11
472.838	1	7
473.009	1	19
473.179	1	8
473.349	1	1
473.520	1	27
473.690	1	21
473.860	1	21
474.031	1	15
474.201	1	13
474.371	1	26
474.542	1	19
474.712	1	9
474.882	1	19
475.053	1	13
475.223	1	5
475.394	1	15
475.564	1	16
475.734	1	22
475.905	1	28
476.075	1	10
476.245	1	20
476.416	1	21
476.586	1	24
476.756	1	7
476.927	1	22
477.097	1	18
477.267	1	13
477.438	1	14
477.608	1	17
477.778	1	10
477.949	1	21
478.119	1	26
478.289	1	25
478.460	1	25
478.630	1	12
478.800	1	12
478.971	1	14
479.141	1	16
479.311	1	-1
479.482	1	10
479.652	1	9
479.822	1	8
479.993	1	16
480.163	1	6
480.333	1	11
480.504	1	16
480.674	1	20
480.844	1	7
481.015	1	23
481.185	1	7
481.355	1	15
481.525	1	4
481.696	1	14
481.866	1	12
482.036	1	11
482.207	1	5
482.377	1	10
482.547	1	15
482.718	1	9
482.888	1	19
483.058	1	13
483.229	1	7
483.399	1	8
483.569	1	12
483.740	1	11
483.910	1	15
484.080	1	9
484.250	1	20
484.421	1	19
484.591	1	16
484.761	1	30
484.932	1	23
485.102	1	17
485.272	1	16
485.443	1	23
485.613	1	5
485.783	1	4
485.953	1	17
486.124	1	16
486.294	1	1
486.464	1	4
486.635	1	20
486.805	1	16
486.975	1	11
487.146	1	16
487.316	1	8
487.486	1	13
487.656	1	5
487.827	1	16
487.997	1	1
488.167	1	7
488.338	1	15
488.508	1	9
488.678	1	11
488.848	1	25
489.019	1	1
489.189	1	23
489.359	1	11
489.529	1	12
489.700	1	10
489.870	1	38
490.040	1	1
490.211	1	8
490.381	1	22
490.551	1	17
490.721	1	15
490.892	1	17
491.062	1	14
491.232	1	16
491.402	1	9
491.573	1	5
491.743	1	-2
491.913	1	14
492.084	1	13
492.254	1	10
492.424	1	10
492.594	1	10
492.765	1	5
492.935	1	11
493.105	1	6
493.275	1	11
493.446	1	17
493.616	1	14
493.786	1	5
493.956	1	12
494.127	1	13
494.297	1	7
494.467	1	3
494.637	1	14
494.808	1	5
494.978	1	1
495.148	1	11
495.318	1	8
495.489	1	15
495.659	1	12
495.829	1	8
495.999	1	3
496.170	1	18
496.340	1	15
496.510	1	16
496.680	1	3
496.851	1	7
497.021	1	5
497.191	1	-4
497.361	1	11
497.532	1	-1
497.702	1	15
497.872	1	4
498.042	1	17
498.213	1	14
498.383	1	4
498.553	1	-5
498.723	1	6
498.894	1	6
499.064	1	21
499.234	1	11
499.404	1	11
499.574	1	12
499.745	1	8
499.915	1	10
500.085	1	17
500.255	1	15
500.426	1	8
500.596	1	11
500.766	1	11
500.936	1	12
501.106	1	-2
501.277	1	12
501.447	1	11
501.617	1	8
501.787	1	-3
501.958	1	0
502.128	1	10
502.298	1	13
502.468	1	11
502.638	1	10
502.809	1	3
502.979	1	-5
503.149	1	6
503.319	1	-1
503.489	1	3
503.660	1	15
503.830	1	-1
504.000	1	19
504.170	1	3
504.340	1	11
504.511	1	8
504.681	1	1
504.851	1	16
505.021	1	4
505.192	1	6
505.362	1	12
505.532	1	9
505.702	1	5
505.872	1	8
506.043	1	10
506.213	1	4
506.383	1	4
506.553	1	12
506.723	1	8
506.893	1	0
507.064	1	16
507.234	1	5
507.404	1	6
507.574	1	8
507.744	1	0
507.915	1	7
508.085	1	8
508.255	1	10
508.425	1	0
508.595	1	14
508.766	1	10
508.936	1	-5
509.106	1	14
509.276	1	11
509.446	1	2
509.616	1	2
509.787	1	13
509.957	1	4
510.127	1	5
510.297	1	7
510.467	1	1
510.638	1	3
510.808	1	-1
510.978	1	3
511.148	1	14
511.318	1	10
511.488	1	-10
511.659	1	10
511.829	1	-2
511.999	1	13
512.169	1	3
512.339	1	5
512.509	1	7
512.680	1	0
512.850	1	-1
513.020	1	8
513.190	1	8
513.360	1	3
513.530	1	1
513.700	1	10
513.871	1	5
514.041	1	5
514.211	1	19
514.381	1	12
514.551	1	3
514.721	1	2
514.892	1	8
515.062	1	6
515.232	1	7
515.402	1	2
515.572	1	-2
515.742	1	12
515.912	1	16
516.083	1	2
516.253	1	14
516.423	1	5
516.593	1	9
516.763	1	16
516.933	1	-3
517.104	1	6
517.274	1	6
517.444	1	8
517.614	1	2
517.784	1	6
517.954	1	11
518.124	1	10
518.294	1	4
518.465	1	1
518.635	1	6
518.805	1	-10
518.975	1	13
519.145	1	8
519.315	1	6
519.485	1	-2
519.656	1	15
519.826	1	4
519.996	1	-4
520.166	1	6
520.336	1	15
520.506	1	9
520.676	1	5
520.846	1	13
521.017	1	0
521.187	1	4
521.357	1	16
521.527	1	-6
521.697	1	6
521.867	1	8
522.037	1	16
522.207	1	12
522.377	1	12
522.548	1	2
522.718	1	2
522.888	1	12
523.058	1	7
523.228	1	12
523.398	1	8
523.568	1	10
523.738	1	13
523.909	1	7
524.079	1	17
524.249	1	7
524.419	1	6
524.589	1	-6
524.759	1	-6
524.929	1	0
525.099	1	13
525.269	1	14
525.439	1	4
525.610	1	22
525.780	1	2
525.950	1	12
526.120	1	11
526.290	1	8
526.460	1	-2
526.630	1	12
526.800	1	-4
526.970	1	10
527.140	1	7
527.311	1	2
527.481	1	5
527.651	1	9
527.821	1	-7
527.991	1	16
528.161	1	11
528.331	1	4
528.501	1	9
528.671	1	-5
528.841	1	1
529.011	1	4
529.181	1	15
529.352	1	0
529.522	1	-3
529.692	1	-4
529.862	1	2
530.032	1	1
530.202	1	13
530.372	1	3
530.542	1	3
530.712	1	14
530.882	1	18
531.052	1	10
531.222	1	0
531.392	1	1
531.563	1	12
531.733	1	14
531.903	1	1
532.073	1	14
532.243	1	13
532.413	1	6
532.583	1	9
532.753	1	8
532.923	1	-2
533.093	1	5
533.263	1	-3
533.433	1	2
533.603	1	9
533.773	1	-1
533.943	1	12
534.113	1	5
534.284	1	4
534.454	1	16
534.624	1	9
534.794	1	2
534.964	1	2
535.134	1	-1
535.304	1	-1
535.474	1	16
535.644	1	-5
535.814	1	3
535.984	1	4
536.154	1	1
536.324	1	-3
536.494	1	6
536.664	1	6
536.834	1	11
537.004	1	10
537.174	1	6
537.344	1	8
537.514	1	-4
537.685	1	0
537.855	1	13
538.025	1	2
538.195	1	7
538.365	1	8
538.535	1	0
538.705	1	1
538.875	1	1
539.045	1	6
539.215	1	8
539.385	1	3
539.555	1	13
539.725	1	0
539.895	1	1
540.065	1	15
540.235	1	13
540.405	1	-1
540.575	1	-6
540.745	1	7
540.915	1	10
541.085	1	7
541.255	1	-6
541.425	1	15
541.595	1	0
541.765	1	10
541.935	1	-2
542.105	1	-2
542.275	1	4
542.445	1	-8
542.615	1	3
542.785	1	6
542.955	1	7
543.125	1	-1
543.295	1	3
543.465	1	3
543.635	1	5
543.805	1	15
543.975	1	-3
544.145	1	8
544.315	1	8
544.485	1	10
544.655	1	7
544.825	1	-8
544.995	1	7
545.165	1	-4
545.335	1	9
545.505	1	-1
545.675	1	10
545.845	1	9
546.015	1	6
546.185	1	12
546.355	1	5
546.525	1	3
546.695	1	11
546.865	1	-3
547.035	1	5
547.205	1	-14
547.375	1	9
547.545	1	11
547.715	1	-4
547.885	1	13
548.055	1	-1
548.225	1	5
548.395	1	-5
548.565	1	5
548.735	1	9
548.905	1	-1
549.075	1	-2
549.245	1	2
549.415	1	-7
549.585	1	1
549.755	1	3
549.925	1	-4
550.095	1	5
550.265	1	0
550.435	1	-5
550.605	1	-1
550.775	1	8
550.945	1	9
551.115	1	6
551.285	1	13
551.455	1	-1
551.625	1	11
551.795	1	6
551.965	1	-5
552.135	1	-1
552.305	1	-3
552.475	1	-2
552.645	1	8
552.815	1	6
552.985	1	8
553.155	1	5
553.325	1	3
553.495	1	5
553.665	1	5
553.835	1	-3
554.004	1	4
554.174	1	-9
554.344	1	14
554.514	1	4
554.684	1	6
554.854	1	2
555.024	1	2
555.194	1	-10
555.364	1	-3
555.534	1	5
555.704	1	-3
555.874	1	8
556.044	1	1
556.214	1	-3
556.384	1	1
556.554	1	17
556.724	1	-2
556.894	1	-7
557.064	1	0
557.234	1	-7
557.404	1	9
557.573	1	7
557.743	1	1
557.913	1	-5
558.083	1	0
558.253	1	11
558.423	1	-4
558.593	1	7
558.763	1	-2
558.933	1	5
559.103	1	12
559.273	1	7
559.443	1	6
559.613	1	8
559.783	1	-2
559.953	1	5
560.122	1	11
560.292	1	1
560.462	1	-2
560.632	1	7
560.802	1	10
560.972	1	3
561.142	1	4
561.312	1	-11
561.482	1	12
561.652	1	3
561.822	1	-1
561.992	1	2
562.162	1	-2
562.331	1	8
562.501	1	0
562.671	1	8
562.841	1	2
563.011	1	2
563.181	1	-1
563.351	1	-10
563.521	1	10
563.691	1	-5
563.861	1	-6
564.031	1	7
564.201	1	17
564.370	1	-4
564.540	1	8
564.710	1	3
564.880	1	7
565.050	1	6
565.220	1	-6
565.390	1	6
565.560	1	7
565.730	1	0
565.900	1	-1
566.069	1	15
566.239	1	7
566.409	1	9
566.579	1	5
566.749	1	6
566.919	1	6
567.089	1	-4
567.259	1	11
567.429	1	3
567.599	1	5
567.768	1	1
567.938	1	5
568.108	1	8
568.278	1	4
568.448	1	0
568.618	1	2
568.788	1	-1
568.958	1	-7
569.128	1	-2
569.297	1	2
569.467	1	4
569.637	1	6
569.807	1	1
569.977	1	11
570.147	1	5
570.317	1	-3
570.487	1	-6
570.656	1	5
570.826	1	-5
570.996	1	-7
571.166	1	15
571.336	1	4
571.506	1	11
571.676	1	9
571.846	1	11
572.015	1	-1
572.185	1	-2
572.355	1	7
572.525	1	12
572.695	1	-4
572.865	1	-3
573.035	1	7
573.205	1	-3
573.374	1	0
573.544	1	-1
573.714	1	1
573.884	1	12
574.054	1	5
574.224	1	0
574.394	1	0
574.563	1	4
574.733	1	9
574.903	1	-6
575.073	1	6
575.243	1	2
575.413	1	-1
575.583	1	-6
575.752	1	6
575.922	1	-6
576.092	1	5
576.262	1	12
576.432	1	8
576.602	1	1
576.772	1	12
576.941	1	0
577.111	1	0
577.281	1	-15
577.451	1	3
577.621	1	11
577.791	1	9
577.960	1	-6
578.130	1	-2
578.300	1	4
578.470	1	10
578.640	1	9
578.810	1	4
578.979	1	5
579.149	1	-1
579.319	1	-4
579.489	1	0
579.659	1	-1
579.829	1	-3
579.998	1	3
580.168	1	9
580.338	1	6
580.508	1	-3
580.678	1	5
580.848	1	-4
581.017	1	2
581.187	1	2
581.357	1	-5
581.527	1	-3
581.697	1	16
581.867	1	4
582.036	1	4
582.206	1	9
582.376	1	19
582.546	1	-1
582.716	1	-3
582.885	1	0
583.055	1	0
583.225	1	-7
583.395	1	1
583.565	1	-5
583.735	1	2
583.904	1	-5
584.074	1	10
584.244	1	8
584.414	1	3
584.584	1	3
584.753	1	-12
584.923	1	10
585.093	1	11
585.263	1	1
585.433	1	-6
585.602	1	-7
585.772	1	-2
585.942	1	-5
586.112	1	1
586.282	1	2
586.451	1	-6
586.621	1	-9
586.791	1	-7
586.961	1	7
587.131	1	3
587.300	1	0
587.470	1	19
587.640	1	15
587.810	1	8
587.980	1	-4
588.149	1	1
588.319	1	-1
588.489	1	5
588.659	1	-1
588.829	1	7
588.998	1	15
589.168	1	11
589.338	1	-4
589.508	1	9
589.677	1	-6
589.847	1	-5
590.017	1	23
590.187	1	-7
590.357	1	15
590.526	1	16
590.696	1	13
590.866	1	17
591.036	1	2
591.205	1	13
591.375	1	-4
591.545	1	-3
591.715	1	9
591.885	1	5
592.054	1	1
592.224	1	1
592.394	1	-8
592.564	1	4
592.733	1	7
592.903	1	1
593.073	1	7
593.243	1	-3
593.412	1	7
593.582	1	-7
593.752	1	-2
593.922	1	5
594.091	1	-1
594.261	1	6
594.431	1	2
594.601	1	3
594.771	1	7
594.940	1	8
595.110	1	1
595.280	1	-4
595.450	1	-2
595.619	1	1
595.789	1	2
595.959	1	2
596.129	1	-2
596.298	1	0
596.468	1	3
596.638	1	9
596.808	1	8
596.977	1	-1
597.147	1	5
597.317	1	0
597.487	1	16
597.656	1	1
597.826	1	4
597.996	1	-1
598.166	1	1
598.335	1	-9
598.505	1	5
598.675	1	-4
598.844	1	5
599.014	1	-3
599.184	1	3
599.354	1	-3
599.523	1	12
599.693	1	0
599.863	1	8
600.033	1	-2
600.202	1	2
600.372	1	10
600.542	1	8
600.712	1	-3
600.881	1	0
601.051	1	11
601.221	1	4
601.390	1	0
601.560	1	21
601.730	1	10
601.900	1	4
602.069	1	10
602.239	1	-1
602.409	1	-2
602.578	1	-1
602.748	1	2
602.918	1	5
603.088	1	10
603.257	1	7
603.427	1	4
603.597	1	1
603.767	1	-6
603.936	1	5
604.106	1	0
604.276	1	0
604.445	1	9
604.615	1	9
604.785	1	-4
604.954	1	4
605.124	1	1
605.294	1	-1
605.464	1	0
605.633	1	8
605.803	1	1
605.973	1	-2
606.142	1	1
606.312	1	16
606.482	1	0
606.652	1	11
606.821	1	-3
606.991	1	5
607.161	1	0
607.330	1	13
607.500	1	4
607.670	1	-7
607.839	1	8
608.009	1	8
608.179	1	-1
608.348	1	5
608.518	1	0
608.688	1	13
608.858	1	-4
609.027	1	1
609.197	1	3
609.367	1	10
609.536	1	5
609.706	1	-5
609.876	1	2
610.045	1	-6
610.215	1	6
610.385	1	0
610.554	1	-3
610.724	1	2
610.894	1	-2
611.063	1	-1
611.233	1	-3
611.403	1	3
611.572	1	4
611.742	1	4
611.912	1	1
612.081	1	-2
612.251	1	7
612.421	1	4
612.590	1	2
612.760	1	2
612.930	1	9
613.099	1	-2
613.269	1	19
613.439	1	2
613.608	1	2
613.778	1	0
613.948	1	4
614.117	1	2
614.287	1	10
614.457	1	-5
614.626	1	-2
614.796	1	11
614.966	1	-9
615.135	1	-1
615.305	1	4
615.475	1	5
615.644	1	9
615.814	1	4
615.984	1	-1
616.153	1	-11
616.323	1	-4
616.493	1	1
616.662	1	7
616.832	1	9
617.002	1	4
617.171	1	9
617.341	1	-3
617.511	1	-4
617.680	1	-8
617.850	1	8
618.019	1	13
618.189	1	15
618.359	1	10
618.528	1	3
618.698	1	6
618.868	1	-5
619.037	1	2
619.207	1	-12
619.377	1	-6
619.546	1	9
619.716	1	-4
619.885	1	7
620.055	1	-2
620.225	1	12
620.394	1	-8
620.564	1	16
620.734	1	6
620.903	1	6
621.073	1	2
621.242	1	10
621.412	1	-1
621.582	1	-2
621.751	1	10
621.921	1	4
622.091	1	0
622.260	1	0
622.430	1	14
622.599	1	0
622.769	1	5
622.939	1	4
623.108	1	6
623.278	1	-8
623.448	1	3
623.617	1	6
623.787	1	6
623.956	1	7
624.126	1	3
624.296	1	3
624.465	1	11
624.635	1	12
624.804	1	-5
624.974	1	10
625.144	1	12
625.313	1	-2
625.483	1	-6
625.652	1	11
625.822	1	2
625.992	1	0
626.161	1	16
626.331	1	3
626.501	1	4
626.670	1	3
626.840	1	2
627.009	1	-3
627.179	1	1
627.348	1	9
627.518	1	1
627.688	1	8
627.857	1	11
628.027	1	6
628.196	1	-1
628.366	1	7
628.536	1	1
628.705	1	7
628.875	1	6
629.044	1	0
629.214	1	12
629.384	1	5
629.553	1	12
629.723	1	5
629.892	1	6
630.062	1	5
630.232	1	9
630.401	1	5
630.571	1	-1
630.740	1	8
630.910	1	13
631.079	1	8
631.249	1	8
631.419	1	11
631.588	1	-11
631.758	1	3
631.927	1	4
632.097	1	3
632.266	1	-5
632.436	1	8
632.606	1	-6
632.775	1	20
632.945	1	5
633.114	1	11
633.284	1	4
633.453	1	2
633.623	1	-2
633.793	1	-2
633.962	1	6
634.132	1	7
634.301	1	4
634.471	1	10
634.640	1	7
634.810	1	4
634.979	1	6
635.149	1	15
635.319	1	5
635.488	1	14
635.658	1	7
635.827	1	-7
635.997	1	-7
636.166	1	7
636.336	1	1
636.505	1	8
636.675	1	-2
636.845	1	7
637.014	1	5
637.184	1	14
637.353	1	7
637.523	1	11
637.692	1	6
637.862	1	3
638.031	1	0
638.201	1	8
638.370	1	3
638.540	1	11
638.710	1	-2
638.879	1	-2
639.049	1	1
639.218	1	10
639.388	1	3
639.557	1	-5
639.727	1	7
639.896	1	12
640.066	1	2
640.235	1	9
640.405	1	13
640.574	1	-1
640.744	1	-3
640.914	1	8
641.083	1	-1
641.253	1	-2
641.422	1	5
641.592	1	12
641.761	1	10
641.931	1	1
642.100	1	16
642.270	1	5
642.439	1	12
642.609	1	5
642.778	1	5
642.948	1	0
643.117	1	11
643.287	1	10
643.456	1	2
643.626	1	14
643.795	1	-2
643.965	1	6
644.134	1	4
644.304	1	4
644.473	1	8
644.643	1	1
644.812	1	3
644.982	1	4
645.151	1	5
645.321	1	-10
645.490	1	12
645.660	1	1
645.829	1	-5
645.999	1	4
646.168	1	14
646.338	1	13
646.507	1	6
646.677	1	1
646.846	1	2
647.016	1	2
647.185	1	17
647.355	1	-7
647.524	1	11
647.694	1	7
647.863	1	13
648.033	1	5
648.202	1	12
648.372	1	-2
648.541	1	-2
648.711	1	3
648.880	1	-3
649.050	1	-3
649.219	1	6
649.389	1	11
649.558	1	4
649.728	1	-5
649.897	1	-1
650.067	1	4
650.236	1	3
650.406	1	8
650.575	1	7
650.745	1	2
650.914	1	-1
651.084	1	-8
651.253	1	5
651.423	1	10
651.592	1	-5
651.762	1	-5
651.931	1	11
652.101	1	0
652.270	1	17
652.440	1	1
652.609	1	0
652.778	1	1
652.948	1	2
653.117	1	13
653.287	1	2
653.456	1	9
653.626	1	14
653.795	1	-1
653.965	1	14
654.134	1	6
654.304	1	-7
654.473	1	14
654.643	1	6
654.812	1	4
654.982	1	5
655.151	1	4
655.320	1	-2
655.490	1	0
655.659	1	12
655.829	1	-1
655.998	1	5
656.168	1	2
656.337	1	10
656.507	1	6
656.676	1	16
656.846	1	12
657.015	1	7
657.184	1	14
657.354	1	6
657.523	1	3
657.693	1	5
657.862	1	7
658.032	1	3
658.201	1	11
658.371	1	12
658.540	1	14
658.709	1	5
658.879	1	24
659.048	1	-6
659.218	1	-1
659.387	1	3
659.557	1	10
659.726	1	18
659.895	1	-2
660.065	1	-7
660.234	1	8
660.404	1	11
660.573	1	0
660.743	1	9
660.912	1	5
661.081	1	8
661.251	1	-8
661.420	1	10
661.590	1	10
661.759	1	9
661.929	1	13
662.098	1	18
662.267	1	5
662.437	1	7
662.606	1	1
662.776	1	2
662.945	1	11
663.115	1	-6
663.284	1	1
663.453	1	9
663.623	1	2
663.792	1	6
663.962	1	6
664.131	1	9
664.300	1	12
664.470	1	1
664.639	1	-3
664.809	1	6
664.978	1	7
665.148	1	13
665.317	1	3
665.486	1	14
665.656	1	3
665.825	1	10
665.995	1	-8
666.164	1	4
666.333	1	3
666.503	1	2
666.672	1	2
666.842	1	9
667.011	1	3
667.180	1	18
667.350	1	-4
667.519	1	9
667.689	1	3
667.858	1	-1
668.027	1	18
668.197	1	11
668.366	1	-8
668.536	1	7
668.705	1	0
668.874	1	6
669.044	1	1
669.213	1	14
669.382	1	-2
669.552	1	15
669.721	1	8
669.891	1	14
670.060	1	9
670.229	1	17
670.399	1	2
670.568	1	17
670.738	1	12
670.907	1	2
671.076	1	8
671.246	1	5
671.415	1	6
671.584	1	-3
671.754	1	0
671.923	1	5
672.093	1	12
672.262	1	4
672.431	1	11
672.601	1	2
672.770	1	-7
672.939	1	5
673.109	1	4
673.278	1	9
673.448	1	20
673.617	1	6
673.786	1	9
