325.333	1	4
325.504	1	13
325.675	1	8
325.846	1	2
326.017	1	8
326.188	1	8
326.359	1	-1
326.531	1	0
326.702	1	-2
326.873	1	13
327.044	1	4
327.215	1	5
327.386	1	10
327.557	1	11
327.728	1	1
327.899	1	6
328.070	1	18
328.241	1	17
328.412	1	2
328.583	1	8
328.754	1	6
328.926	1	13
329.097	1	7
329.268	1	13
329.439	1	2
329.610	1	10
329.781	1	0
329.952	1	14
330.123	1	9
330.294	1	9
330.465	1	1
330.636	1	18
330.807	1	2
330.978	1	11
331.149	1	4
331.320	1	-1
331.492	1	4
331.663	1	3
331.834	1	20
332.005	1	9
332.176	1	15
332.347	1	20
332.518	1	-2
332.689	1	13
332.860	1	-2
333.031	1	12
333.202	1	8
333.373	1	13
333.544	1	17
333.715	1	17
333.886	1	-3
334.057	1	15
334.228	1	5
334.399	1	15
334.570	1	22
334.741	1	4
334.912	1	17
335.084	1	28
335.255	1	16
335.426	1	16
335.597	1	16
335.768	1	11
335.939	1	15
336.110	1	9
336.281	1	3
336.452	1	3
336.623	1	16
336.794	1	19
336.965	1	7
337.136	1	19
337.307	1	14
337.478	1	11
337.649	1	10
337.820	1	10
337.991	1	12
338.162	1	3
338.333	1	19
338.504	1	11
338.675	1	15
338.846	1	15
339.017	1	10
339.188	1	9
339.359	1	7
339.530	1	20
339.701	1	24
339.872	1	18
340.043	1	13
340.214	1	14
340.385	1	23
340.556	1	-1
340.727	1	21
340.898	1	16
341.069	1	13
341.240	1	8
341.411	1	17
341.582	1	11
341.753	1	4
341.924	1	8
342.095	1	9
342.266	1	29
342.437	1	13
342.608	1	8
342.779	1	21
342.950	1	17
343.121	1	22
343.292	1	4
343.463	1	21
343.634	1	17
343.805	1	19
343.976	1	21
344.147	1	13
344.318	1	20
344.489	1	13
344.660	1	23
344.831	1	5
345.002	1	3
345.173	1	16
345.344	1	25
345.515	1	14
345.686	1	21
345.857	1	18
346.028	1	12
346.199	1	12
346.370	1	21
346.541	1	20
346.712	1	11
346.883	1	14
347.054	1	13
347.225	1	15
347.396	1	24
347.567	1	19
347.738	1	9
347.909	1	25
348.080	1	10
348.251	1	26
348.422	1	23
348.593	1	27
348.764	1	17
348.935	1	16
349.106	1	12
349.277	1	16
349.448	1	19
349.619	1	20
349.790	1	19
349.961	1	18
350.132	1	28
350.303	1	28
350.474	1	26
350.645	1	18
350.816	1	16
350.987	1	12
351.157	1	9
351.328	1	29
351.499	1	26
351.670	1	15
351.841	1	35
352.012	1	28
352.183	1	28
352.354	1	29
352.525	1	34
352.696	1	26
352.867	1	20
353.038	1	27
353.209	1	28
353.380	1	25
353.551	1	10
353.722	1	24
353.893	1	24
354.064	1	29
354.235	1	30
354.406	1	24
354.576	1	23
354.747	1	30
354.918	1	19
355.089	1	15
355.260	1	34
355.431	1	28
355.602	1	21
355.773	1	31
355.944	1	24
356.115	1	28
356.286	1	23
356.457	1	32
356.628	1	25
356.799	1	21
356.970	1	30
357.141	1	17
357.311	1	21
357.482	1	23
357.653	1	28
357.824	1	28
357.995	1	21
358.166	1	26
358.337	1	24
358.508	1	31
358.679	1	35
358.850	1	35
359.021	1	22
359.192	1	34
359.363	1	27
359.533	1	21
359.704	1	38
359.875	1	27
360.046	1	20
360.217	1	21
360.388	1	28
360.559	1	20
360.730	1	33
360.901	1	26
361.072	1	33
361.243	1	42
361.414	1	23
361.584	1	22
361.755	1	38
361.926	1	35
362.097	1	27
362.268	1	29
362.439	1	30
362.610	1	35
362.781	1	18
362.952	1	32
363.123	1	24
363.293	1	18
363.464	1	38
363.635	1	35
363.806	1	26
363.977	1	36
364.148	1	33
364.319	1	30
364.490	1	30
364.661	1	38
364.832	1	33
365.002	1	23
365.173	1	35
365.344	1	31
365.515	1	16
365.686	1	33
365.857	1	36
366.028	1	31
366.199	1	25
366.370	1	44
366.540	1	32
366.711	1	14
366.882	1	15
367.053	1	23
367.224	1	44
367.395	1	37
367.566	1	42
367.737	1	43
367.908	1	43
368.078	1	30
368.249	1	35
368.420	1	29
368.591	1	13
368.762	1	33
368.933	1	25
369.104	1	24
369.274	1	36
369.445	1	25
369.616	1	39
369.787	1	28
369.958	1	32
370.129	1	22
370.300	1	43
370.471	1	22
370.641	1	35
370.812	1	34
370.983	1	34
371.154	1	30
371.325	1	39
371.496	1	32
371.667	1	45
371.837	1	21
372.008	1	40
372.179	1	27
372.350	1	36
372.521	1	29
372.692	1	29
372.863	1	30
373.033	1	18
373.204	1	35
373.375	1	27
373.546	1	45
373.717	1	38
373.888	1	35
374.059	1	45
374.229	1	36
374.400	1	24
374.571	1	39
374.742	1	28
374.913	1	40
375.084	1	30
375.254	1	37
375.425	1	45
375.596	1	37
375.767	1	36
375.938	1	33
376.109	1	45
376.279	1	31
376.450	1	45
376.621	1	42
376.792	1	35
376.963	1	29
377.134	1	48
377.304	1	38
377.475	1	40
377.646	1	34
377.817	1	31
377.988	1	29
378.159	1	43
378.329	1	51
378.500	1	26
378.671	1	33
378.842	1	36
379.013	1	27
379.184	1	44
379.354	1	39
379.525	1	26
379.696	1	44
379.867	1	42
380.038	1	40
380.209	1	43
380.379	1	36
380.550	1	36
380.721	1	36
380.892	1	35
381.063	1	36
381.233	1	35
381.404	1	31
381.575	1	48
381.746	1	43
381.917	1	39
382.087	1	37
382.258	1	33
382.429	1	44
382.600	1	48
382.771	1	37
382.941	1	43
383.112	1	40
383.283	1	34
383.454	1	39
383.625	1	38
383.795	1	47
383.966	1	38
384.137	1	43
384.308	1	52
384.479	1	41
384.649	1	54
384.820	1	44
384.991	1	34
385.162	1	39
385.333	1	35
385.503	1	40
385.674	1	37
385.845	1	53
386.016	1	33
386.187	1	51
386.357	1	43
386.528	1	47
386.699	1	38
386.870	1	53
387.041	1	49
387.211	1	43
387.382	1	47
387.553	1	44
387.724	1	41
387.894	1	50
388.065	1	49
388.236	1	65
388.407	1	45
388.578	1	44
388.748	1	46
388.919	1	60
389.090	1	44
389.261	1	48
389.431	1	49
389.602	1	49
389.773	1	56
389.944	1	42
390.114	1	48
390.285	1	45
390.456	1	43
390.627	1	45
390.798	1	38
390.968	1	49
391.139	1	53
391.310	1	47
391.481	1	44
391.651	1	47
391.822	1	47
391.993	1	45
392.164	1	44
392.334	1	43
392.505	1	41
392.676	1	52
392.847	1	53
393.017	1	46
393.188	1	55
393.359	1	36
393.530	1	50
393.700	1	47
393.871	1	40
394.042	1	42
394.213	1	48
394.383	1	44
394.554	1	46
394.725	1	54
394.896	1	52
395.066	1	57
395.237	1	47
395.408	1	48
395.579	1	46
395.749	1	43
395.920	1	46
396.091	1	48
396.262	1	43
396.432	1	45
396.603	1	55
396.774	1	49
396.945	1	47
397.115	1	48
397.286	1	49
397.457	1	45
397.627	1	40
397.798	1	49
397.969	1	40
398.140	1	48
398.310	1	52
398.481	1	63
398.652	1	51
398.823	1	38
398.993	1	46
399.164	1	42
399.335	1	52
399.505	1	44
399.676	1	48
399.847	1	51
400.018	1	44
400.188	1	47
400.359	1	49
400.530	1	42
400.700	1	47
400.871	1	47
401.042	1	49
401.213	1	51
401.383	1	53
401.554	1	48
401.725	1	59
401.895	1	51
402.066	1	59
402.237	1	52
402.408	1	59
402.578	1	54
402.749	1	53
402.920	1	44
403.090	1	40
403.261	1	52
403.432	1	55
403.603	1	56
403.773	1	62
403.944	1	62
404.115	1	56
404.285	1	59
404.456	1	46
404.627	1	53
404.797	1	40
404.968	1	46
405.139	1	43
405.310	1	70
405.480	1	65
405.651	1	40
405.822	1	55
405.992	1	36
406.163	1	51
406.334	1	53
406.504	1	55
406.675	1	51
406.846	1	52
407.016	1	59
407.187	1	61
407.358	1	48
407.528	1	47
407.699	1	48
407.870	1	49
408.041	1	52
408.211	1	60
408.382	1	58
408.553	1	41
408.723	1	58
408.894	1	60
409.065	1	62
409.235	1	52
409.406	1	65
409.577	1	47
409.747	1	58
409.918	1	57
410.089	1	56
410.259	1	57
410.430	1	52
410.601	1	50
410.771	1	49
410.942	1	66
411.113	1	53
411.283	1	52
411.454	1	58
411.625	1	55
411.795	1	47
411.966	1	54
412.137	1	59
412.307	1	37
412.478	1	51
412.649	1	57
412.819	1	51
412.990	1	43
413.161	1	54
413.331	1	40
413.502	1	60
413.672	1	49
413.843	1	50
414.014	1	45
414.184	1	55
414.355	1	54
414.526	1	58
414.696	1	60
414.867	1	49
415.038	1	43
415.208	1	53
415.379	1	64
415.550	1	51
415.720	1	36
415.891	1	41
416.062	1	55
416.232	1	43
416.403	1	62
416.573	1	60
416.744	1	47
416.915	1	55
417.085	1	61
417.256	1	56
417.427	1	53
417.597	1	44
417.768	1	46
417.939	1	50
418.109	1	47
418.280	1	62
418.450	1	56
418.621	1	32
418.792	1	47
418.962	1	55
419.133	1	61
419.304	1	54
419.474	1	41
419.645	1	45
419.815	1	41
419.986	1	51
420.157	1	41
420.327	1	60
420.498	1	68
420.669	1	48
420.839	1	61
421.010	1	57
421.180	1	58
421.351	1	43
421.522	1	47
421.692	1	50
421.863	1	54
422.033	1	58
422.204	1	47
422.375	1	51
422.545	1	55
422.716	1	37
422.886	1	43
423.057	1	58
423.228	1	50
423.398	1	43
423.569	1	54
423.740	1	44
423.910	1	44
424.081	1	40
424.251	1	48
424.422	1	52
424.593	1	47
424.763	1	56
424.934	1	52
425.104	1	51
425.275	1	34
425.445	1	47
425.616	1	40
425.787	1	47
425.957	1	51
426.128	1	50
426.298	1	51
426.469	1	44
426.640	1	54
426.810	1	50
426.981	1	37
427.151	1	49
427.322	1	53
427.493	1	45
427.663	1	47
427.834	1	48
428.004	1	48
428.175	1	48
428.345	1	41
428.516	1	31
428.687	1	52
428.857	1	44
429.028	1	45
429.198	1	46
429.369	1	53
429.540	1	55
429.710	1	38
429.881	1	53
430.051	1	43
430.222	1	41
430.392	1	47
430.563	1	57
430.734	1	59
430.904	1	54
431.075	1	51
431.245	1	40
431.416	1	59
431.586	1	52
431.757	1	46
431.927	1	58
432.098	1	41
432.269	1	45
432.439	1	45
432.610	1	51
432.780	1	61
432.951	1	46
433.121	1	41
433.292	1	53
433.462	1	49
433.633	1	43
433.804	1	49
433.974	1	48
434.145	1	64
434.315	1	42
434.486	1	46
434.656	1	56
434.827	1	47
434.997	1	41
435.168	1	54
435.339	1	49
435.509	1	44
435.680	1	47
435.850	1	50
436.021	1	43
436.191	1	52
436.362	1	51
436.532	1	46
436.703	1	49
436.873	1	49
437.044	1	29
437.214	1	43
437.385	1	45
437.556	1	50
437.726	1	55
437.897	1	54
438.067	1	42
438.238	1	44
438.408	1	48
438.579	1	33
438.749	1	43
438.920	1	35
439.090	1	44
439.261	1	28
439.431	1	42
439.602	1	38
439.772	1	43
439.943	1	57
440.113	1	32
440.284	1	41
440.455	1	47
440.625	1	32
440.796	1	45
440.966	1	34
441.137	1	41
441.307	1	45
441.478	1	47
441.648	1	36
441.819	1	49
441.989	1	41
442.160	1	45
442.330	1	37
442.501	1	48
442.671	1	29
442.842	1	32
443.012	1	43
443.183	1	51
443.353	1	39
443.524	1	41
443.694	1	55
443.865	1	33
444.035	1	50
444.206	1	36
444.376	1	36
444.547	1	48
444.717	1	45
444.888	1	35
445.058	1	41
445.229	1	39
445.399	1	30
445.570	1	44
445.740	1	35
445.911	1	30
446.081	1	29
446.252	1	50
446.422	1	38
446.593	1	39
446.763	1	39
446.934	1	39
447.104	1	37
447.275	1	41
447.445	1	36
447.616	1	44
447.786	1	28
447.957	1	49
448.127	1	35
448.298	1	32
448.468	1	34
448.639	1	39
448.809	1	42
448.979	1	35
449.150	1	47
449.320	1	42
449.491	1	47
449.661	1	27
449.832	1	37
450.002	1	37
450.173	1	34
450.343	1	45
450.514	1	45
450.684	1	35
450.855	1	34
451.025	1	49
451.196	1	36
451.366	1	41
451.537	1	33
451.707	1	19
451.878	1	41
452.048	1	38
452.218	1	44
452.389	1	39
452.559	1	40
452.730	1	44
452.900	1	43
453.071	1	23
453.241	1	30
453.412	1	37
453.582	1	30
453.753	1	40
453.923	1	37
454.093	1	40
454.264	1	41
454.434	1	26
454.605	1	45
454.775	1	33
454.946	1	26
455.116	1	35
455.287	1	40
455.457	1	26
455.628	1	27
455.798	1	36
455.968	1	39
456.139	1	32
456.309	1	35
456.480	1	27
456.650	1	50
456.821	1	31
456.991	1	36
457.161	1	27
457.332	1	49
457.502	1	19
457.673	1	26
457.843	1	32
458.014	1	27
458.184	1	28
458.355	1	18
458.525	1	28
458.695	1	24
458.866	1	26
459.036	1	31
459.207	1	35
459.377	1	24
459.548	1	30
459.718	1	29
459.888	1	27
460.059	1	29
460.229	1	37
460.400	1	42
460.570	1	33
460.740	1	31
460.911	1	33
461.081	1	42
461.252	1	36
461.422	1	30
461.593	1	30
461.763	1	37
461.933	1	30
462.104	1	27
462.274	1	32
462.445	1	31
462.615	1	41
462.785	1	28
462.956	1	23
463.126	1	40
463.297	1	16
463.467	1	30
463.638	1	33
463.808	1	15
463.978	1	15
464.149	1	34
464.319	1	11
464.490	1	45
464.660	1	34
464.830	1	35
465.001	1	38
465.171	1	34
465.342	1	38
465.512	1	14
465.682	1	28
465.853	1	32
466.023	1	27
466.194	1	20
466.364	1	30
466.534	1	24
466.705	1	31
466.875	1	15
467.045	1	23
467.216	1	40
467.386	1	6
467.557	1	21
467.727	1	21
467.897	1	15
468.068	1	26
468.238	1	19
468.409	1	25
468.579	1	23
468.749	1	18
468.920	1	18
469.090	1	26
469.260	1	7
469.431	1	12
469.601	1	24
469.772	1	27
469.942	1	23
470.112	1	21
470.283	1	20
470.453	1	23
470.623	1	25
470.794	1	19
470.964	1	21
471.135	1	27
471.305	1	10
471.475	1	21
471.646	1	18
471.816	1	17
471.986	1	20
472.157	1	32
472.327	1	13
472.497	1	13
472.668	1	13
472.838	1	25
473.009	1	31
473.179	1	14
473.349	1	14
473.520	1	23
473.690	1	29
473.860	1	19
474.031	1	30
474.201	1	18
474.371	1	34
474.542	1	13
474.712	1	28
474.882	1	28
475.053	1	29
475.223	1	18
475.394	1	27
475.564	1	19
475.734	1	20
475.905	1	35
476.075	1	22
476.245	1	25
476.416	1	23
476.586	1	25
476.756	1	21
476.927	1	28
477.097	1	30
477.267	1	14
477.438	1	30
477.608	1	22
477.778	1	19
477.949	1	31
478.119	1	29
478.289	1	26
478.460	1	22
478.630	1	28
478.800	1	23
478.971	1	23
479.141	1	15
479.311	1	18
479.482	1	21
479.652	1	17
479.822	1	16
479.993	1	27
480.163	1	23
480.333	1	24
480.504	1	25
480.674	1	17
480.844	1	13
481.015	1	18
481.185	1	20
481.355	1	30
481.525	1	17
481.696	1	19
481.866	1	28
482.036	1	14
482.207	1	24
482.377	1	21
482.547	1	25
482.718	1	14
482.888	1	23
483.058	1	20
483.229	1	21
483.399	1	10
483.569	1	12
483.740	1	28
483.910	1	16
484.080	1	13
484.250	1	25
484.421	1	26
484.591	1	19
484.761	1	21
484.932	1	28
485.102	1	27
485.272	1	17
485.443	1	25
485.613	1	28
485.783	1	24
485.953	1	20
486.124	1	21
486.294	1	16
486.464	1	20
486.635	1	26
486.805	1	17
486.975	1	14
487.146	1	13
487.316	1	10
487.486	1	25
487.656	1	23
487.827	1	13
487.997	1	10
488.167	1	13
488.338	1	22
488.508	1	8
488.678	1	8
488.848	1	24
489.019	1	22
489.189	1	19
489.359	1	13
489.529	1	20
489.700	1	8
489.870	1	26
490.040	1	14
490.211	1	10
490.381	1	18
490.551	1	23
490.721	1	29
490.892	1	14
491.062	1	20
491.232	1	25
491.402	1	21
491.573	1	5
491.743	1	9
491.913	1	15
492.084	1	19
492.254	1	9
492.424	1	11
492.594	1	10
492.765	1	17
492.935	1	18
493.105	1	18
493.275	1	17
493.446	1	19
493.616	1	21
493.786	1	24
493.956	1	11
494.127	1	2
494.297	1	11
494.467	1	12
494.637	1	11
494.808	1	6
494.978	1	11
495.148	1	12
495.318	1	12
495.489	1	21
495.659	1	18
495.829	1	19
495.999	1	8
496.170	1	27
496.340	1	17
496.510	1	10
496.680	1	7
496.851	1	11
497.021	1	4
497.191	1	10
497.361	1	8
497.532	1	10
497.702	1	4
497.872	1	8
498.042	1	17
498.213	1	13
498.383	1	19
498.553	1	11
498.723	1	7
498.894	1	15
499.064	1	20
499.234	1	23
499.404	1	17
499.574	1	18
499.745	1	21
499.915	1	9
500.085	1	17
500.255	1	23
500.426	1	27
500.596	1	17
500.766	1	14
500.936	1	4
501.106	1	4
501.277	1	22
501.447	1	14
501.617	1	10
501.787	1	8
501.958	1	7
502.128	1	12
502.298	1	17
502.468	1	17
502.638	1	7
502.809	1	11
502.979	1	13
503.149	1	0
503.319	1	8
503.489	1	13
503.660	1	14
503.830	1	16
504.000	1	15
504.170	1	15
504.340	1	6
504.511	1	24
504.681	1	14
504.851	1	15
505.021	1	14
505.192	1	10
505.362	1	19
505.532	1	8
505.702	1	9
505.872	1	15
506.043	1	19
506.213	1	3
506.383	1	6
506.553	1	18
506.723	1	15
506.893	1	17
507.064	1	18
507.234	1	17
507.404	1	5
507.574	1	8
507.744	1	10
507.915	1	11
508.085	1	14
508.255	1	8
508.425	1	8
508.595	1	20
508.766	1	15
508.936	1	0
509.106	1	17
509.276	1	23
509.446	1	2
509.616	1	10
509.787	1	13
509.957	1	14
510.127	1	5
510.297	1	9
510.467	1	13
510.638	1	10
510.808	1	-4
510.978	1	1
511.148	1	16
511.318	1	16
511.488	1	7
511.659	1	19
511.829	1	4
511.999	1	11
512.169	1	11
512.339	1	8
512.509	1	-1
512.680	1	8
512.850	1	8
513.020	1	15
513.190	1	7
513.360	1	6
513.530	1	8
513.700	1	15
513.871	1	7
514.041	1	9
514.211	1	13
514.381	1	14
514.551	1	7
514.721	1	12
514.892	1	16
515.062	1	11
515.232	1	15
515.402	1	4
515.572	1	12
515.742	1	14
515.912	1	10
516.083	1	16
516.253	1	13
516.423	1	2
516.593	1	1
516.763	1	23
516.933	1	5
517.104	1	16
517.274	1	11
517.444	1	2
517.614	1	4
517.784	1	1
517.954	1	6
518.124	1	9
518.294	1	19
518.465	1	8
518.635	1	8
518.805	1	-4
518.975	1	7
519.145	1	-2
519.315	1	8
519.485	1	10
519.656	1	15
519.826	1	7
519.996	1	9
520.166	1	10
520.336	1	13
520.506	1	4
520.676	1	5
520.846	1	12
521.017	1	13
521.187	1	6
521.357	1	24
521.527	1	3
521.697	1	7
521.867	1	3
522.037	1	11
522.207	1	15
522.377	1	7
522.548	1	17
522.718	1	11
522.888	1	24
523.058	1	2
523.228	1	15
523.398	1	6
523.568	1	10
523.738	1	16
523.909	1	8
524.079	1	18
524.249	1	15
524.419	1	10
524.589	1	8
524.759	1	0
524.929	1	0
525.099	1	5
525.269	1	12
525.439	1	7
525.610	1	20
525.780	1	10
525.950	1	12
526.120	1	6
526.290	1	11
526.460	1	-3
526.630	1	12
526.800	1	2
526.970	1	5
527.140	1	17
527.311	1	0
527.481	1	0
527.651	1	12
527.821	1	3
527.991	1	15
528.161	1	14
528.331	1	7
528.501	1	17
528.671	1	3
528.841	1	3
529.011	1	4
529.181	1	9
529.352	1	4
529.522	1	-1
529.692	1	13
529.862	1	10
530.032	1	9
530.202	1	9
530.372	1	14
530.542	1	9
530.712	1	4
530.882	1	-2
531.052	1	4
531.222	1	8
531.392	1	5
531.563	1	13
531.733	1	6
531.903	1	11
532.073	1	17
532.243	1	14
532.413	1	0
532.583	1	7
532.753	1	7
532.923	1	4
533.093	1	5
533.263	1	3
533.433	1	6
533.603	1	8
533.773	1	8
533.943	1	5
534.113	1	8
534.284	1	8
534.454	1	8
534.624	1	10
534.794	1	5
534.964	1	15
535.134	1	4
535.304	1	11
535.474	1	21
535.644	1	-2
535.814	1	-6
535.984	1	-10
536.154	1	-5
536.324	1	6
536.494	1	1
536.664	1	5
536.834	1	6
537.004	1	3
537.174	1	12
537.344	1	8
537.514	1	-5
537.685	1	-1
537.855	1	15
538.025	1	4
538.195	1	12
538.365	1	11
538.535	1	4
538.705	1	4
538.875	1	7
539.045	1	12
539.215	1	11
539.385	1	15
539.555	1	4
539.725	1	3
539.895	1	-3
540.065	1	15
540.235	1	13
540.405	1	3
540.575	1	2
540.745	1	6
540.915	1	8
541.085	1	9
541.255	1	2
541.425	1	15
541.595	1	9
541.765	1	10
541.935	1	2
542.105	1	-3
542.275	1	4
542.445	1	2
542.615	1	9
542.785	1	16
542.955	1	3
543.125	1	9
543.295	1	8
543.465	1	5
543.635	1	8
543.805	1	19
543.975	1	2
544.145	1	11
544.315	1	10
544.485	1	11
544.655	1	5
544.825	1	-2
544.995	1	2
545.165	1	0
545.335	1	5
545.505	1	-4
545.675	1	15
545.845	1	8
546.015	1	12
546.185	1	12
546.355	1	4
546.525	1	6
546.695	1	8
546.865	1	7
547.035	1	7
547.205	1	-6
547.375	1	6
547.545	1	14
547.715	1	5
547.885	1	2
548.055	1	3
548.225	1	-2
548.395	1	0
548.565	1	4
548.735	1	3
548.905	1	6
549.075	1	14
549.245	1	4
549.415	1	2
549.585	1	6
549.755	1	11
549.925	1	-5
550.095	1	9
550.265	1	5
550.435	1	1
550.605	1	-2
550.775	1	4
550.945	1	10
551.115	1	10
551.285	1	3
551.455	1	-2
551.625	1	10
551.795	1	13
551.965	1	-3
552.135	1	7
552.305	1	2
552.475	1	-7
552.645	1	-1
552.815	1	6
552.985	1	4
553.155	1	9
553.325	1	8
553.495	1	-3
553.665	1	3
553.835	1	5
554.004	1	16
554.174	1	-5
554.344	1	10
554.514	1	5
554.684	1	3
554.854	1	6
555.024	1	-8
555.194	1	-7
555.364	1	3
555.534	1	8
555.704	1	8
555.874	1	11
556.044	1	4
556.214	1	-3
556.384	1	4
556.554	1	14
556.724	1	6
556.894	1	6
557.064	1	13
557.234	1	2
557.404	1	8
557.573	1	12
557.743	1	3
557.913	1	1
558.083	1	1
558.253	1	8
558.423	1	0
558.593	1	0
558.763	1	2
558.933	1	16
559.103	1	7
559.273	1	0
559.443	1	5
559.613	1	0
559.783	1	5
559.953	1	-2
560.122	1	4
560.292	1	4
560.462	1	6
560.632	1	12
560.802	1	-5
560.972	1	13
561.142	1	7
561.312	1	-3
561.482	1	6
561.652	1	9
561.822	1	1
561.992	1	-1
562.162	1	0
562.331	1	2
562.501	1	1
562.671	1	2
562.841	1	-3
563.011	1	6
563.181	1	3
563.351	1	-4
563.521	1	7
563.691	1	-3
563.861	1	11
564.031	1	14
564.201	1	16
564.370	1	-6
564.540	1	4
564.710	1	1
564.880	1	11
565.050	1	6
565.220	1	6
565.390	1	4
565.560	1	11
565.730	1	4
565.900	1	-4
566.069	1	5
566.239	1	3
566.409	1	0
566.579	1	2
566.749	1	3
566.919	1	8
567.089	1	7
567.259	1	14
567.429	1	11
567.599	1	0
567.768	1	7
567.938	1	4
568.108	1	3
568.278	1	-3
568.448	1	-8
568.618	1	-3
568.788	1	9
568.958	1	-6
569.128	1	9
569.297	1	7
569.467	1	-9
569.637	1	7
569.807	1	0
569.977	1	17
570.147	1	8
570.317	1	-1
570.487	1	-2
570.656	1	7
570.826	1	2
570.996	1	-2
571.166	1	26
571.336	1	-11
571.506	1	10
571.676	1	9
571.846	1	13
572.015	1	0
572.185	1	5
572.355	1	7
572.525	1	9
572.695	1	-1
572.865	1	1
573.035	1	10
573.205	1	-3
573.374	1	-4
573.544	1	3
573.714	1	0
573.884	1	12
574.054	1	7
574.224	1	10
574.394	1	8
574.563	1	2
574.733	1	7
574.903	1	-3
575.073	1	5
575.243	1	-2
575.413	1	8
575.583	1	-2
575.752	1	21
575.922	1	5
576.092	1	8
576.262	1	8
576.432	1	13
576.602	1	0
576.772	1	9
576.941	1	5
577.111	1	2
577.281	1	4
577.451	1	2
577.621	1	16
577.791	1	7
577.960	1	4
578.130	1	1
578.300	1	14
578.470	1	12
578.640	1	0
578.810	1	6
578.979	1	17
579.149	1	-2
579.319	1	4
579.489	1	-2
579.659	1	1
579.829	1	1
579.998	1	18
580.168	1	11
580.338	1	9
580.508	1	3
580.678	1	4
580.848	1	7
581.017	1	4
581.187	1	-1
581.357	1	-8
581.527	1	13
581.697	1	6
581.867	1	16
582.036	1	-3
582.206	1	7
582.376	1	5
582.546	1	1
582.716	1	-8
582.885	1	-6
583.055	1	5
583.225	1	-4
583.395	1	8
583.565	1	-12
583.735	1	11
583.904	1	3
584.074	1	-1
584.244	1	1
584.414	1	4
584.584	1	11
584.753	1	3
584.923	1	4
585.093	1	14
585.263	1	2
585.433	1	9
585.602	1	-8
585.772	1	0
585.942	1	3
586.112	1	4
586.282	1	4
586.451	1	3
586.621	1	0
586.791	1	4
586.961	1	14
587.131	1	2
587.300	1	-6
587.470	1	13
587.640	1	11
587.810	1	-3
587.980	1	-4
588.149	1	-1
588.319	1	-2
588.489	1	4
588.659	1	19
588.829	1	10
588.998	1	8
589.168	1	7
589.338	1	-2
589.508	1	4
589.677	1	3
589.847	1	1
590.017	1	11
590.187	1	-3
590.357	1	10
590.526	1	21
590.696	1	6
590.866	1	16
591.036	1	-4
591.205	1	18
591.375	1	-1
591.545	1	11
591.715	1	9
591.885	1	5
592.054	1	7
592.224	1	-4
592.394	1	-1
592.564	1	3
592.733	1	8
592.903	1	6
593.073	1	-2
593.243	1	0
593.412	1	5
593.582	1	12
593.752	1	-9
593.922	1	-5
594.091	1	-3
594.261	1	-2
594.431	1	-1
594.601	1	9
594.771	1	10
594.940	1	-1
595.110	1	4
595.280	1	9
595.450	1	3
595.619	1	5
595.789	1	3
595.959	1	12
596.129	1	7
596.298	1	-6
596.468	1	11
596.638	1	9
596.808	1	-5
596.977	1	-2
597.147	1	7
597.317	1	-4
597.487	1	8
597.656	1	9
597.826	1	8
597.996	1	5
598.166	1	0
598.335	1	4
598.505	1	0
598.675	1	-6
598.844	1	6
599.014	1	-3
599.184	1	2
599.354	1	-15
599.523	1	8
599.693	1	6
599.863	1	11
600.033	1	1
600.202	1	5
600.372	1	11
600.542	1	13
600.712	1	6
600.881	1	-7
601.051	1	21
601.221	1	0
601.390	1	-5
601.560	1	11
601.730	1	9
601.900	1	9
602.069	1	13
602.239	1	-3
602.409	1	2
602.578	1	-2
602.748	1	0
602.918	1	7
603.088	1	7
603.257	1	10
603.427	1	1
603.597	1	4
603.767	1	6
603.936	1	9
604.106	1	0
604.276	1	1
604.445	1	11
604.615	1	-3
604.785	1	8
604.954	1	6
605.124	1	9
605.294	1	5
605.464	1	6
605.633	1	4
605.803	1	-3
605.973	1	1
606.142	1	7
606.312	1	14
606.482	1	3
606.652	1	10
606.821	1	-6
606.991	1	4
607.161	1	-1
607.330	1	10
607.500	1	6
607.670	1	-2
607.839	1	9
608.009	1	12
608.179	1	14
608.348	1	12
608.518	1	5
608.688	1	19
608.858	1	-4
609.027	1	-7
609.197	1	0
609.367	1	13
609.536	1	11
609.706	1	8
609.876	1	9
610.045	1	-2
610.215	1	5
610.385	1	7
610.554	1	6
610.724	1	1
610.894	1	-7
611.063	1	0
611.233	1	1
611.403	1	8
611.572	1	7
611.742	1	17
611.912	1	4
612.081	1	-1
612.251	1	5
612.421	1	-4
612.590	1	4
612.760	1	5
612.930	1	2
613.099	1	-2
613.269	1	14
613.439	1	9
613.608	1	12
613.778	1	2
613.948	1	1
614.117	1	5
614.287	1	14
614.457	1	1
614.626	1	3
614.796	1	8
614.966	1	3
615.135	1	0
615.305	1	11
615.475	1	4
615.644	1	-4
615.814	1	6
615.984	1	-2
616.153	1	1
616.323	1	2
616.493	1	1
616.662	1	3
616.832	1	9
617.002	1	8
617.171	1	1
617.341	1	0
617.511	1	-4
617.680	1	1
617.850	1	3
618.019	1	19
618.189	1	20
618.359	1	4
618.528	1	9
618.698	1	0
618.868	1	-3
619.037	1	0
619.207	1	4
619.377	1	0
619.546	1	2
619.716	1	7
619.885	1	5
620.055	1	1
620.225	1	8
620.394	1	1
620.564	1	7
620.734	1	13
620.903	1	-9
621.073	1	8
621.242	1	0
621.412	1	1
621.582	1	0
621.751	1	5
621.921	1	13
622.091	1	-1
622.260	1	8
622.430	1	8
622.599	1	7
622.769	1	8
622.939	1	12
623.108	1	1
623.278	1	-9
623.448	1	1
623.617	1	5
623.787	1	11
623.956	1	10
624.126	1	10
624.296	1	2
624.465	1	3
624.635	1	19
624.804	1	9
624.974	1	13
625.144	1	6
625.313	1	3
625.483	1	-2
625.652	1	6
625.822	1	6
625.992	1	6
626.161	1	15
626.331	1	13
626.501	1	1
626.670	1	4
626.840	1	2
627.009	1	6
627.179	1	5
627.348	1	17
627.518	1	11
627.688	1	8
627.857	1	24
628.027	1	0
628.196	1	9
628.366	1	7
628.536	1	5
628.705	1	4
628.875	1	8
629.044	1	-1
629.214	1	6
629.384	1	8
629.553	1	15
629.723	1	5
629.892	1	5
630.062	1	0
630.232	1	-1
630.401	1	15
630.571	1	9
630.740	1	6
630.910	1	12
631.079	1	1
631.249	1	6
631.419	1	21
631.588	1	-2
631.758	1	6
631.927	1	4
632.097	1	3
632.266	1	2
632.436	1	8
632.606	1	3
632.775	1	9
632.945	1	8
633.114	1	13
633.284	1	0
633.453	1	14
633.623	1	0
633.793	1	-2
633.962	1	15
634.132	1	8
634.301	1	6
634.471	1	18
634.640	1	4
634.810	1	17
634.979	1	5
635.149	1	15
635.319	1	1
635.488	1	6
635.658	1	-6
635.827	1	0
635.997	1	2
636.166	1	3
636.336	1	3
636.505	1	7
636.675	1	4
636.845	1	7
637.014	1	12
637.184	1	10
637.353	1	8
637.523	1	8
637.692	1	8
637.862	1	4
638.031	1	4
638.201	1	10
638.370	1	4
638.540	1	5
638.710	1	-1
638.879	1	-7
639.049	1	-4
639.218	1	3
639.388	1	7
639.557	1	4
639.727	1	7
639.896	1	9
640.066	1	12
640.235	1	6
640.405	1	7
640.574	1	17
640.744	1	-2
640.914	1	9
641.083	1	4
641.253	1	5
641.422	1	-1
641.592	1	20
641.761	1	4
641.931	1	10
642.100	1	24
642.270	1	3
642.439	1	12
642.609	1	6
642.778	1	9
642.948	1	5
643.117	1	16
643.287	1	10
643.456	1	4
643.626	1	21
643.795	1	7
643.965	1	9
644.134	1	-6
644.304	1	9
644.473	1	8
644.643	1	6
644.812	1	4
644.982	1	6
645.151	1	8
645.321	1	-3
645.490	1	8
645.660	1	-1
645.829	1	10
645.999	1	10
646.168	1	7
646.338	1	3
646.507	1	6
646.677	1	7
646.846	1	6
647.016	1	-8
647.185	1	12
647.355	1	-4
647.524	1	17
647.694	1	12
647.863	1	12
648.033	1	2
648.202	1	10
648.372	1	-3
648.541	1	6
648.711	1	6
648.880	1	9
649.050	1	1
649.219	1	15
649.389	1	22
649.558	1	6
649.728	1	14
649.897	1	3
650.067	1	11
650.236	1	6
650.406	1	11
650.575	1	16
650.745	1	12
650.914	1	-3
651.084	1	6
651.253	1	9
651.423	1	13
651.592	1	4
651.762	1	-4
651.931	1	17
652.101	1	1
652.270	1	15
652.440	1	13
652.609	1	1
652.778	1	1
652.948	1	4
653.117	1	14
653.287	1	19
653.456	1	11
653.626	1	15
653.795	1	9
653.965	1	12
654.134	1	2
654.304	1	-7
654.473	1	16
654.643	1	11
654.812	1	11
654.982	1	9
655.151	1	5
655.320	1	12
655.490	1	3
655.659	1	4
655.829	1	4
655.998	1	11
656.168	1	9
656.337	1	4
656.507	1	-2
656.676	1	15
656.846	1	22
657.015	1	12
657.184	1	11
657.354	1	17
657.523	1	7
657.693	1	11
657.862	1	10
658.032	1	10
658.201	1	12
658.371	1	15
658.540	1	6
658.709	1	5
658.879	1	11
659.048	1	5
659.218	1	5
659.387	1	9
659.557	1	6
659.726	1	8
659.895	1	1
660.065	1	3
660.234	1	8
660.404	1	15
660.573	1	1
660.743	1	8
660.912	1	8
661.081	1	13
661.251	1	9
661.420	1	16
661.590	1	12
661.759	1	17
661.929	1	9
662.098	1	13
662.267	1	4
662.437	1	17
662.606	1	5
662.776	1	4
662.945	1	12
663.115	1	9
663.284	1	8
663.453	1	23
663.623	1	3
663.792	1	10
663.962	1	11
664.131	1	15
664.300	1	18
664.470	1	1
664.639	1	8
664.809	1	15
664.978	1	13
665.148	1	12
665.317	1	16
665.486	1	12
665.656	1	11
665.825	1	11
665.995	1	7
666.164	1	6
666.333	1	3
666.503	1	4
666.672	1	4
666.842	1	2
667.011	1	9
667.180	1	20
667.350	1	8
667.519	1	4
667.689	1	8
667.858	1	11
668.027	1	25
668.197	1	7
668.366	1	-1
668.536	1	12
668.705	1	4
668.874	1	10
669.044	1	1
669.213	1	15
669.382	1	3
669.552	1	19
669.721	1	7
669.891	1	17
670.060	1	13
670.229	1	25
670.399	1	5
670.568	1	20
670.738	1	10
670.907	1	6
671.076	1	2
671.246	1	-3
671.415	1	7
671.584	1	16
671.754	1	8
671.923	1	9
672.093	1	5
672.262	1	-4
672.431	1	8
672.601	1	3
672.770	1	5
672.939	1	10
673.109	1	2
673.278	1	13
673.448	1	15
673.617	1	11
673.786	1	10
