325.333	1	18
325.504	1	15
325.675	1	16
325.846	1	19
326.017	1	13
326.188	1	26
326.359	1	15
326.531	1	8
326.702	1	10
326.873	1	33
327.044	1	10
327.215	1	19
327.386	1	27
327.557	1	18
327.728	1	20
327.899	1	27
328.070	1	33
328.241	1	19
328.412	1	21
328.583	1	26
328.754	1	18
328.926	1	30
329.097	1	10
329.268	1	22
329.439	1	23
329.610	1	22
329.781	1	10
329.952	1	34
330.123	1	22
330.294	1	24
330.465	1	24
330.636	1	31
330.807	1	21
330.978	1	18
331.149	1	19
331.320	1	15
331.492	1	29
331.663	1	13
331.834	1	32
332.005	1	35
332.176	1	37
332.347	1	28
332.518	1	18
332.689	1	31
332.860	1	19
333.031	1	25
333.202	1	21
333.373	1	26
333.544	1	24
333.715	1	33
333.886	1	16
334.057	1	37
334.228	1	23
334.399	1	23
334.570	1	26
334.741	1	27
334.912	1	26
335.084	1	37
335.255	1	39
335.426	1	36
335.597	1	20
335.768	1	30
335.939	1	38
336.110	1	20
336.281	1	30
336.452	1	26
336.623	1	29
336.794	1	31
336.965	1	35
337.136	1	44
337.307	1	33
337.478	1	37
337.649	1	37
337.820	1	27
337.991	1	31
338.162	1	33
338.333	1	38
338.504	1	39
338.675	1	34
338.846	1	38
339.017	1	34
339.188	1	36
339.359	1	27
339.530	1	39
339.701	1	37
339.872	1	45
340.043	1	36
340.214	1	41
340.385	1	48
340.556	1	37
340.727	1	43
340.898	1	45
341.069	1	44
341.240	1	43
341.411	1	45
341.582	1	41
341.753	1	32
341.924	1	37
342.095	1	44
342.266	1	53
342.437	1	52
342.608	1	38
342.779	1	47
342.950	1	53
343.121	1	42
343.292	1	43
343.463	1	47
343.634	1	41
343.805	1	58
343.976	1	43
344.147	1	53
344.318	1	40
344.489	1	48
344.660	1	53
344.831	1	52
345.002	1	37
345.173	1	60
345.344	1	54
345.515	1	55
345.686	1	46
345.857	1	50
346.028	1	52
346.199	1	42
346.370	1	42
346.541	1	54
346.712	1	47
346.883	1	51
347.054	1	48
347.225	1	51
347.396	1	55
347.567	1	47
347.738	1	45
347.909	1	59
348.080	1	52
348.251	1	65
348.422	1	66
348.593	1	56
348.764	1	53
348.935	1	57
349.106	1	56
349.277	1	49
349.448	1	57
349.619	1	54
349.790	1	49
349.961	1	65
350.132	1	60
350.303	1	60
350.474	1	68
350.645	1	66
350.816	1	66
350.987	1	60
351.157	1	55
351.328	1	73
351.499	1	69
351.670	1	63
351.841	1	69
352.012	1	73
352.183	1	67
352.354	1	70
352.525	1	68
352.696	1	65
352.867	1	64
353.038	1	70
353.209	1	76
353.380	1	64
353.551	1	54
353.722	1	69
353.893	1	63
354.064	1	72
354.235	1	60
354.406	1	62
354.576	1	70
354.747	1	61
354.918	1	59
355.089	1	75
355.260	1	76
355.431	1	68
355.602	1	55
355.773	1	66
355.944	1	78
356.115	1	62
356.286	1	55
356.457	1	72
356.628	1	66
356.799	1	63
356.970	1	79
357.141	1	71
357.311	1	66
357.482	1	71
357.653	1	67
357.824	1	79
357.995	1	73
358.166	1	62
358.337	1	64
358.508	1	72
358.679	1	77
358.850	1	76
359.021	1	71
359.192	1	84
359.363	1	70
359.533	1	80
359.704	1	67
359.875	1	75
360.046	1	76
360.217	1	61
360.388	1	78
360.559	1	67
360.730	1	91
360.901	1	82
361.072	1	94
361.243	1	79
361.414	1	74
361.584	1	69
361.755	1	85
361.926	1	73
362.097	1	71
362.268	1	83
362.439	1	68
362.610	1	89
362.781	1	81
362.952	1	68
363.123	1	72
363.293	1	66
363.464	1	78
363.635	1	82
363.806	1	74
363.977	1	78
364.148	1	85
364.319	1	80
364.490	1	67
364.661	1	88
364.832	1	81
365.002	1	81
365.173	1	73
365.344	1	86
365.515	1	86
365.686	1	70
365.857	1	88
366.028	1	87
366.199	1	90
366.370	1	81
366.540	1	85
366.711	1	63
366.882	1	74
367.053	1	70
367.224	1	90
367.395	1	90
367.566	1	92
367.737	1	94
367.908	1	96
368.078	1	96
368.249	1	85
368.420	1	86
368.591	1	78
368.762	1	85
368.933	1	69
369.104	1	80
369.274	1	87
369.445	1	85
369.616	1	84
369.787	1	92
369.958	1	84
370.129	1	76
370.300	1	89
370.471	1	78
370.641	1	85
370.812	1	92
370.983	1	88
371.154	1	90
371.325	1	92
371.496	1	84
371.667	1	95
371.837	1	81
372.008	1	85
372.179	1	87
372.350	1	105
372.521	1	78
372.692	1	82
372.863	1	92
373.033	1	74
373.204	1	89
373.375	1	95
373.546	1	90
373.717	1	86
373.888	1	92
374.059	1	101
374.229	1	96
374.400	1	83
374.571	1	83
374.742	1	86
374.913	1	97
375.084	1	83
375.254	1	92
375.425	1	90
375.596	1	90
375.767	1	85
375.938	1	101
376.109	1	94
376.279	1	90
376.450	1	95
376.621	1	94
376.792	1	88
376.963	1	90
377.134	1	91
377.304	1	97
377.475	1	89
377.646	1	93
377.817	1	80
377.988	1	89
378.159	1	109
378.329	1	97
378.500	1	96
378.671	1	103
378.842	1	91
379.013	1	89
379.184	1	86
379.354	1	105
379.525	1	95
379.696	1	105
379.867	1	99
380.038	1	105
380.209	1	92
380.379	1	107
380.550	1	83
380.721	1	104
380.892	1	95
381.063	1	95
381.233	1	113
381.404	1	87
381.575	1	120
381.746	1	102
381.917	1	112
382.087	1	103
382.258	1	114
382.429	1	96
382.600	1	103
382.771	1	102
382.941	1	101
383.112	1	100
383.283	1	114
383.454	1	98
383.625	1	107
383.795	1	108
383.966	1	116
384.137	1	120
384.308	1	114
384.479	1	99
384.649	1	105
384.820	1	121
384.991	1	119
385.162	1	113
385.333	1	111
385.503	1	108
385.674	1	98
385.845	1	114
386.016	1	110
386.187	1	107
386.357	1	115
386.528	1	113
386.699	1	117
386.870	1	119
387.041	1	118
387.211	1	116
387.382	1	125
387.553	1	111
387.724	1	105
387.894	1	116
388.065	1	106
388.236	1	131
388.407	1	117
388.578	1	118
388.748	1	113
388.919	1	130
389.090	1	120
389.261	1	116
389.431	1	115
389.602	1	113
389.773	1	126
389.944	1	126
390.114	1	123
390.285	1	113
390.456	1	109
390.627	1	127
390.798	1	121
390.968	1	111
391.139	1	115
391.310	1	101
391.481	1	117
391.651	1	118
391.822	1	107
391.993	1	115
392.164	1	103
392.334	1	120
392.505	1	119
392.676	1	108
392.847	1	120
393.017	1	128
393.188	1	117
393.359	1	105
393.530	1	115
393.700	1	124
393.871	1	119
394.042	1	115
394.213	1	136
394.383	1	115
394.554	1	108
394.725	1	129
394.896	1	114
395.066	1	133
395.237	1	102
395.408	1	115
395.579	1	117
395.749	1	117
395.920	1	122
396.091	1	119
396.262	1	114
396.432	1	121
396.603	1	124
396.774	1	131
396.945	1	127
397.115	1	127
397.286	1	123
397.457	1	133
397.627	1	127
397.798	1	143
397.969	1	127
398.140	1	132
398.310	1	112
398.481	1	133
398.652	1	129
398.823	1	130
398.993	1	114
399.164	1	129
399.335	1	133
399.505	1	137
399.676	1	136
399.847	1	127
400.018	1	110
400.188	1	130
400.359	1	125
400.530	1	119
400.700	1	136
400.871	1	120
401.042	1	117
401.213	1	123
401.383	1	125
401.554	1	132
401.725	1	125
401.895	1	117
402.066	1	134
402.237	1	133
402.408	1	132
402.578	1	127
402.749	1	124
402.920	1	136
403.090	1	132
403.261	1	119
403.432	1	119
403.603	1	135
403.773	1	133
403.944	1	122
404.115	1	144
404.285	1	133
404.456	1	124
404.627	1	130
404.797	1	125
404.968	1	127
405.139	1	116
405.310	1	131
405.480	1	137
405.651	1	128
405.822	1	132
405.992	1	116
406.163	1	139
406.334	1	122
406.504	1	125
406.675	1	131
406.846	1	127
407.016	1	128
407.187	1	141
407.358	1	126
407.528	1	124
407.699	1	128
407.870	1	133
408.041	1	143
408.211	1	144
408.382	1	123
408.553	1	125
408.723	1	143
408.894	1	140
409.065	1	137
409.235	1	135
409.406	1	138
409.577	1	125
409.747	1	137
409.918	1	137
410.089	1	132
410.259	1	134
410.430	1	118
410.601	1	137
410.771	1	135
410.942	1	140
411.113	1	135
411.283	1	131
411.454	1	125
411.625	1	130
411.795	1	144
411.966	1	132
412.137	1	141
412.307	1	116
412.478	1	130
412.649	1	121
412.819	1	122
412.990	1	125
413.161	1	137
413.331	1	118
413.502	1	133
413.672	1	115
413.843	1	115
414.014	1	138
414.184	1	141
414.355	1	140
414.526	1	122
414.696	1	128
414.867	1	124
415.038	1	107
415.208	1	125
415.379	1	137
415.550	1	143
415.720	1	108
415.891	1	139
416.062	1	131
416.232	1	130
416.403	1	129
416.573	1	129
416.744	1	126
416.915	1	126
417.085	1	138
417.256	1	114
417.427	1	112
417.597	1	131
417.768	1	118
417.939	1	128
418.109	1	136
418.280	1	120
418.450	1	141
418.621	1	118
418.792	1	127
418.962	1	132
419.133	1	136
419.304	1	129
419.474	1	117
419.645	1	126
419.815	1	125
419.986	1	126
420.157	1	130
420.327	1	127
420.498	1	134
420.669	1	134
420.839	1	128
421.010	1	134
421.180	1	132
421.351	1	120
421.522	1	131
421.692	1	121
421.863	1	128
422.033	1	127
422.204	1	128
422.375	1	123
422.545	1	124
422.716	1	128
422.886	1	128
423.057	1	120
423.228	1	127
423.398	1	119
423.569	1	137
423.740	1	107
423.910	1	100
424.081	1	127
424.251	1	104
424.422	1	119
424.593	1	104
424.763	1	132
424.934	1	122
425.104	1	125
425.275	1	118
425.445	1	111
425.616	1	105
425.787	1	105
425.957	1	121
426.128	1	116
426.298	1	134
426.469	1	122
426.640	1	120
426.810	1	117
426.981	1	114
427.151	1	123
427.322	1	118
427.493	1	125
427.663	1	121
427.834	1	120
428.004	1	120
428.175	1	118
428.345	1	101
428.516	1	119
428.687	1	112
428.857	1	108
429.028	1	105
429.198	1	112
429.369	1	127
429.540	1	109
429.710	1	110
429.881	1	126
430.051	1	122
430.222	1	111
430.392	1	112
430.563	1	128
430.734	1	122
430.904	1	114
431.075	1	118
431.245	1	110
431.416	1	122
431.586	1	104
431.757	1	123
431.927	1	110
432.098	1	118
432.269	1	94
432.439	1	113
432.610	1	113
432.780	1	124
432.951	1	111
433.121	1	121
433.292	1	119
433.462	1	111
433.633	1	119
433.804	1	110
433.974	1	110
434.145	1	131
434.315	1	117
434.486	1	121
434.656	1	112
434.827	1	114
434.997	1	104
435.168	1	124
435.339	1	113
435.509	1	122
435.680	1	96
435.850	1	114
436.021	1	113
436.191	1	116
436.362	1	117
436.532	1	105
436.703	1	111
436.873	1	113
437.044	1	89
437.214	1	96
437.385	1	101
437.556	1	108
437.726	1	116
437.897	1	112
438.067	1	107
438.238	1	112
438.408	1	122
438.579	1	101
438.749	1	106
438.920	1	109
439.090	1	113
439.261	1	95
439.431	1	96
439.602	1	107
439.772	1	105
439.943	1	107
440.113	1	106
440.284	1	98
440.455	1	102
440.625	1	96
440.796	1	100
440.966	1	92
441.137	1	94
441.307	1	86
441.478	1	102
441.648	1	105
441.819	1	98
441.989	1	110
442.160	1	123
442.330	1	103
442.501	1	93
442.671	1	86
442.842	1	85
443.012	1	99
443.183	1	100
443.353	1	92
443.524	1	96
443.694	1	98
443.865	1	100
444.035	1	93
444.206	1	96
444.376	1	102
444.547	1	106
444.717	1	91
444.888	1	87
445.058	1	104
445.229	1	87
445.399	1	98
445.570	1	106
445.740	1	86
445.911	1	90
446.081	1	91
446.252	1	102
446.422	1	90
446.593	1	92
446.763	1	95
446.934	1	84
447.104	1	104
447.275	1	108
447.445	1	100
447.616	1	101
447.786	1	98
447.957	1	91
448.127	1	93
448.298	1	106
448.468	1	88
448.639	1	97
448.809	1	100
448.979	1	89
449.150	1	104
449.320	1	89
449.491	1	93
449.661	1	87
449.832	1	81
450.002	1	101
450.173	1	90
450.343	1	93
450.514	1	98
450.684	1	91
450.855	1	88
451.025	1	91
451.196	1	94
451.366	1	92
451.537	1	79
451.707	1	73
451.878	1	87
452.048	1	90
452.218	1	88
452.389	1	80
452.559	1	92
452.730	1	92
452.900	1	98
453.071	1	75
453.241	1	85
453.412	1	82
453.582	1	77
453.753	1	82
453.923	1	88
454.093	1	89
454.264	1	90
454.434	1	84
454.605	1	83
454.775	1	82
454.946	1	84
455.116	1	75
455.287	1	80
455.457	1	72
455.628	1	69
455.798	1	80
455.968	1	86
456.139	1	69
456.309	1	67
456.480	1	77
456.650	1	83
456.821	1	78
456.991	1	74
457.161	1	81
457.332	1	82
457.502	1	66
457.673	1	83
457.843	1	83
458.014	1	78
458.184	1	78
458.355	1	71
458.525	1	86
458.695	1	76
458.866	1	72
459.036	1	85
459.207	1	80
459.377	1	75
459.548	1	82
459.718	1	82
459.888	1	93
460.059	1	81
460.229	1	95
460.400	1	87
460.570	1	67
460.740	1	73
460.911	1	71
461.081	1	87
461.252	1	69
461.422	1	75
461.593	1	70
461.763	1	77
461.933	1	77
462.104	1	78
462.274	1	67
462.445	1	81
462.615	1	74
462.785	1	64
462.956	1	85
463.126	1	82
463.297	1	67
463.467	1	81
463.638	1	84
463.808	1	72
463.978	1	69
464.149	1	74
464.319	1	75
464.490	1	81
464.660	1	65
464.830	1	62
465.001	1	73
465.171	1	75
465.342	1	76
465.512	1	63
465.682	1	62
465.853	1	72
466.023	1	65
466.194	1	67
466.364	1	77
466.534	1	82
466.705	1	72
466.875	1	62
467.045	1	65
467.216	1	80
467.386	1	67
467.557	1	60
467.727	1	57
467.897	1	65
468.068	1	76
468.238	1	67
468.409	1	63
468.579	1	59
468.749	1	63
468.920	1	51
469.090	1	70
469.260	1	61
469.431	1	60
469.601	1	68
469.772	1	59
469.942	1	69
470.112	1	75
470.283	1	55
470.453	1	65
470.623	1	64
470.794	1	55
470.964	1	63
471.135	1	68
471.305	1	51
471.475	1	71
471.646	1	49
471.816	1	53
471.986	1	57
472.157	1	76
472.327	1	50
472.497	1	62
472.668	1	53
472.838	1	60
473.009	1	60
473.179	1	55
473.349	1	57
473.520	1	65
473.690	1	60
473.860	1	67
474.031	1	61
474.201	1	59
474.371	1	64
474.542	1	69
474.712	1	54
474.882	1	64
475.053	1	62
475.223	1	52
475.394	1	56
475.564	1	55
475.734	1	66
475.905	1	69
476.075	1	61
476.245	1	67
476.416	1	61
476.586	1	62
476.756	1	48
476.927	1	56
477.097	1	62
477.267	1	47
477.438	1	56
477.608	1	51
477.778	1	63
477.949	1	65
478.119	1	64
478.289	1	64
478.460	1	71
478.630	1	40
478.800	1	62
478.971	1	57
479.141	1	62
479.311	1	49
479.482	1	56
479.652	1	55
479.822	1	58
479.993	1	53
480.163	1	63
480.333	1	54
480.504	1	63
480.674	1	51
480.844	1	48
481.015	1	62
481.185	1	58
481.355	1	65
481.525	1	56
481.696	1	54
481.866	1	47
482.036	1	55
482.207	1	50
482.377	1	60
482.547	1	55
482.718	1	55
482.888	1	56
483.058	1	42
483.229	1	49
483.399	1	49
483.569	1	52
483.740	1	58
483.910	1	56
484.080	1	45
484.250	1	58
484.421	1	58
484.591	1	58
484.761	1	54
484.932	1	53
485.102	1	49
485.272	1	55
485.443	1	51
485.613	1	58
485.783	1	41
485.953	1	48
486.124	1	54
486.294	1	55
486.464	1	51
486.635	1	52
486.805	1	53
486.975	1	55
487.146	1	54
487.316	1	35
487.486	1	48
487.656	1	44
487.827	1	47
487.997	1	48
488.167	1	44
488.338	1	56
488.508	1	37
488.678	1	47
488.848	1	48
489.019	1	47
489.189	1	48
489.359	1	38
489.529	1	42
489.700	1	44
489.870	1	51
490.040	1	42
490.211	1	39
490.381	1	58
490.551	1	39
490.721	1	49
490.892	1	47
491.062	1	43
491.232	1	57
491.402	1	38
491.573	1	40
491.743	1	51
491.913	1	46
492.084	1	49
492.254	1	33
492.424	1	45
492.594	1	47
492.765	1	41
492.935	1	45
493.105	1	50
493.275	1	49
493.446	1	54
493.616	1	42
493.786	1	32
493.956	1	42
494.127	1	47
494.297	1	33
494.467	1	41
494.637	1	50
494.808	1	35
494.978	1	23
495.148	1	41
495.318	1	36
495.489	1	37
495.659	1	40
495.829	1	43
495.999	1	29
496.170	1	46
496.340	1	38
496.510	1	50
496.680	1	34
496.851	1	41
497.021	1	34
497.191	1	33
497.361	1	43
497.532	1	42
497.702	1	32
497.872	1	25
498.042	1	46
498.213	1	42
498.383	1	30
498.553	1	35
498.723	1	37
498.894	1	35
499.064	1	35
499.234	1	38
499.404	1	45
499.574	1	51
499.745	1	42
499.915	1	39
500.085	1	36
500.255	1	40
500.426	1	39
500.596	1	43
500.766	1	38
500.936	1	34
501.106	1	28
501.277	1	37
501.447	1	42
501.617	1	36
501.787	1	32
501.958	1	34
502.128	1	26
502.298	1	39
502.468	1	33
502.638	1	29
502.809	1	42
502.979	1	25
503.149	1	24
503.319	1	33
503.489	1	41
503.660	1	49
503.830	1	38
504.000	1	43
504.170	1	36
504.340	1	30
504.511	1	33
504.681	1	34
504.851	1	43
505.021	1	28
505.192	1	31
505.362	1	43
505.532	1	33
505.702	1	39
505.872	1	28
506.043	1	34
506.213	1	25
506.383	1	22
506.553	1	37
506.723	1	36
506.893	1	32
507.064	1	44
507.234	1	33
507.404	1	30
507.574	1	39
507.744	1	30
507.915	1	26
508.085	1	47
508.255	1	31
508.425	1	21
508.595	1	39
508.766	1	34
508.936	1	10
509.106	1	43
509.276	1	32
509.446	1	25
509.616	1	28
509.787	1	26
509.957	1	40
510.127	1	37
510.297	1	20
510.467	1	30
510.638	1	35
510.808	1	18
510.978	1	35
511.148	1	38
511.318	1	28
511.488	1	23
511.659	1	29
511.829	1	12
511.999	1	37
512.169	1	16
512.339	1	29
512.509	1	34
512.680	1	19
512.850	1	30
513.020	1	32
513.190	1	25
513.360	1	29
513.530	1	22
513.700	1	26
513.871	1	22
514.041	1	30
514.211	1	31
514.381	1	25
514.551	1	30
514.721	1	18
514.892	1	23
515.062	1	22
515.232	1	25
515.402	1	20
515.572	1	21
515.742	1	29
515.912	1	30
516.083	1	26
516.253	1	24
516.423	1	21
516.593	1	21
516.763	1	30
516.933	1	14
517.104	1	19
517.274	1	21
517.444	1	28
517.614	1	15
517.784	1	29
517.954	1	23
518.124	1	23
518.294	1	38
518.465	1	20
518.635	1	17
518.805	1	17
518.975	1	18
519.145	1	16
519.315	1	24
519.485	1	20
519.656	1	30
519.826	1	13
519.996	1	16
520.166	1	31
520.336	1	32
520.506	1	21
520.676	1	21
520.846	1	22
521.017	1	28
521.187	1	20
521.357	1	33
521.527	1	13
521.697	1	26
521.867	1	11
522.037	1	33
522.207	1	29
522.377	1	21
522.548	1	25
522.718	1	36
522.888	1	32
523.058	1	13
523.228	1	28
523.398	1	24
523.568	1	26
523.738	1	23
523.909	1	24
524.079	1	36
524.249	1	26
524.419	1	20
524.589	1	24
524.759	1	13
524.929	1	19
525.099	1	20
525.269	1	25
525.439	1	15
525.610	1	35
525.780	1	12
525.950	1	28
526.120	1	12
526.290	1	28
526.460	1	14
526.630	1	24
526.800	1	17
526.970	1	27
527.140	1	24
527.311	1	6
527.481	1	13
527.651	1	24
527.821	1	10
527.991	1	30
528.161	1	19
528.331	1	16
528.501	1	20
528.671	1	17
528.841	1	8
529.011	1	21
529.181	1	11
529.352	1	6
529.522	1	9
529.692	1	20
529.862	1	12
530.032	1	22
530.202	1	17
530.372	1	19
530.542	1	18
530.712	1	14
530.882	1	18
531.052	1	17
531.222	1	13
531.392	1	19
531.563	1	18
531.733	1	17
531.903	1	11
532.073	1	17
532.243	1	13
532.413	1	14
532.583	1	10
532.753	1	20
532.923	1	6
533.093	1	12
533.263	1	21
533.433	1	25
533.603	1	22
533.773	1	11
533.943	1	6
534.113	1	22
534.284	1	12
534.454	1	16
534.624	1	19
534.794	1	5
534.964	1	13
535.134	1	19
535.304	1	22
535.474	1	24
535.644	1	5
535.814	1	4
535.984	1	16
536.154	1	4
536.324	1	12
536.494	1	21
536.664	1	26
536.834	1	30
537.004	1	11
537.174	1	37
537.344	1	12
537.514	1	6
537.685	1	19
537.855	1	23
538.025	1	16
538.195	1	11
538.365	1	19
538.535	1	18
538.705	1	12
538.875	1	23
539.045	1	27
539.215	1	18
539.385	1	18
539.555	1	18
539.725	1	13
539.895	1	10
540.065	1	21
540.235	1	17
540.405	1	11
540.575	1	19
540.745	1	23
540.915	1	30
541.085	1	19
541.255	1	5
541.425	1	24
541.595	1	10
541.765	1	14
541.935	1	7
542.105	1	11
542.275	1	14
542.445	1	8
542.615	1	25
542.785	1	28
542.955	1	10
543.125	1	13
543.295	1	17
543.465	1	14
543.635	1	4
543.805	1	19
543.975	1	11
544.145	1	26
544.315	1	15
544.485	1	20
544.655	1	5
544.825	1	-5
544.995	1	17
545.165	1	7
545.335	1	13
545.505	1	15
545.675	1	5
545.845	1	17
546.015	1	16
546.185	1	24
546.355	1	17
546.525	1	20
546.695	1	14
546.865	1	14
547.035	1	20
547.205	1	-2
547.375	1	12
547.545	1	11
547.715	1	9
547.885	1	18
548.055	1	8
548.225	1	7
548.395	1	7
548.565	1	18
548.735	1	6
548.905	1	9
549.075	1	18
549.245	1	10
549.415	1	5
549.585	1	16
549.755	1	14
549.925	1	-1
550.095	1	7
550.265	1	9
550.435	1	11
550.605	1	8
550.775	1	9
550.945	1	20
551.115	1	6
551.285	1	20
551.455	1	5
551.625	1	22
551.795	1	12
551.965	1	14
552.135	1	18
552.305	1	13
552.475	1	3
552.645	1	18
552.815	1	7
552.985	1	13
553.155	1	11
553.325	1	18
553.495	1	11
553.665	1	10
553.835	1	15
554.004	1	12
554.174	1	8
554.344	1	17
554.514	1	9
554.684	1	16
554.854	1	21
555.024	1	3
555.194	1	10
555.364	1	12
555.534	1	10
555.704	1	17
555.874	1	16
556.044	1	18
556.214	1	3
556.384	1	9
556.554	1	24
556.724	1	13
556.894	1	10
557.064	1	16
557.234	1	18
557.404	1	23
557.573	1	14
557.743	1	9
557.913	1	4
558.083	1	8
558.253	1	17
558.423	1	7
558.593	1	21
558.763	1	4
558.933	1	8
559.103	1	15
559.273	1	10
559.443	1	13
559.613	1	14
559.783	1	14
559.953	1	6
560.122	1	21
560.292	1	13
560.462	1	11
560.632	1	8
560.802	1	4
560.972	1	9
561.142	1	11
561.312	1	8
561.482	1	14
561.652	1	23
561.822	1	13
561.992	1	7
562.162	1	13
562.331	1	9
562.501	1	-1
562.671	1	16
562.841	1	2
563.011	1	13
563.181	1	6
563.351	1	-4
563.521	1	13
563.691	1	6
563.861	1	9
564.031	1	15
564.201	1	13
564.370	1	4
564.540	1	15
564.710	1	2
564.880	1	8
565.050	1	20
565.220	1	11
565.390	1	12
565.560	1	15
565.730	1	3
565.900	1	6
566.069	1	16
566.239	1	5
566.409	1	12
566.579	1	12
566.749	1	4
566.919	1	2
567.089	1	10
567.259	1	7
567.429	1	5
567.599	1	10
567.768	1	15
567.938	1	20
568.108	1	6
568.278	1	10
568.448	1	-2
568.618	1	10
568.788	1	9
568.958	1	11
569.128	1	8
569.297	1	8
569.467	1	8
569.637	1	17
569.807	1	9
569.977	1	15
570.147	1	16
570.317	1	3
570.487	1	14
570.656	1	18
570.826	1	-3
570.996	1	7
571.166	1	10
571.336	1	2
571.506	1	16
571.676	1	8
571.846	1	9
572.015	1	8
572.185	1	3
572.355	1	9
572.525	1	15
572.695	1	6
572.865	1	1
573.035	1	8
573.205	1	11
573.374	1	-3
573.544	1	14
573.714	1	15
573.884	1	20
574.054	1	5
574.224	1	7
574.394	1	9
574.563	1	10
574.733	1	12
574.903	1	11
575.073	1	-4
575.243	1	-4
575.413	1	19
575.583	1	13
575.752	1	6
575.922	1	11
576.092	1	11
576.262	1	4
576.432	1	17
576.602	1	5
576.772	1	17
576.941	1	3
577.111	1	5
577.281	1	4
577.451	1	2
577.621	1	19
577.791	1	17
577.960	1	-3
578.130	1	5
578.300	1	14
578.470	1	16
578.640	1	-3
578.810	1	9
578.979	1	8
579.149	1	-1
579.319	1	2
579.489	1	9
579.659	1	8
579.829	1	7
579.998	1	14
580.168	1	22
580.338	1	16
580.508	1	10
580.678	1	12
580.848	1	3
581.017	1	7
581.187	1	7
581.357	1	-1
581.527	1	16
581.697	1	4
581.867	1	19
582.036	1	8
582.206	1	10
582.376	1	14
582.546	1	-1
582.716	1	9
582.885	1	9
583.055	1	1
583.225	1	-2
583.395	1	13
583.565	1	5
583.735	1	12
583.904	1	8
584.074	1	15
584.244	1	17
584.414	1	21
584.584	1	14
584.753	1	0
584.923	1	6
585.093	1	4
585.263	1	6
585.433	1	7
585.602	1	6
585.772	1	2
585.942	1	1
586.112	1	6
586.282	1	11
586.451	1	10
586.621	1	-4
586.791	1	10
586.961	1	5
587.131	1	17
587.300	1	7
587.470	1	14
587.640	1	14
587.810	1	3
587.980	1	5
588.149	1	-3
588.319	1	12
588.489	1	15
588.659	1	6
588.829	1	9
588.998	1	13
589.168	1	16
589.338	1	11
589.508	1	1
589.677	1	4
589.847	1	-3
590.017	1	31
590.187	1	4
590.357	1	7
590.526	1	22
590.696	1	9
590.866	1	21
591.036	1	6
591.205	1	19
591.375	1	13
591.545	1	7
591.715	1	15
591.885	1	5
592.054	1	8
592.224	1	8
592.394	1	6
592.564	1	9
592.733	1	11
592.903	1	11
593.073	1	12
593.243	1	6
593.412	1	14
593.582	1	4
593.752	1	-2
593.922	1	8
594.091	1	8
594.261	1	4
594.431	1	-2
594.601	1	14
594.771	1	22
594.940	1	5
595.110	1	3
595.280	1	16
595.450	1	4
595.619	1	14
595.789	1	-1
595.959	1	16
596.129	1	11
596.298	1	9
596.468	1	7
596.638	1	11
596.808	1	6
596.977	1	5
597.147	1	14
597.317	1	5
597.487	1	5
597.656	1	4
597.826	1	9
597.996	1	19
598.166	1	6
598.335	1	8
598.505	1	6
598.675	1	18
598.844	1	9
599.014	1	13
599.184	1	7
599.354	1	9
599.523	1	12
599.693	1	5
599.863	1	21
600.033	1	10
600.202	1	13
600.372	1	21
600.542	1	16
600.712	1	6
600.881	1	6
601.051	1	20
601.221	1	9
601.390	1	1
601.560	1	22
601.730	1	10
601.900	1	16
602.069	1	15
602.239	1	-5
602.409	1	7
602.578	1	13
602.748	1	3
602.918	1	8
603.088	1	14
603.257	1	15
603.427	1	1
603.597	1	15
603.767	1	20
603.936	1	10
604.106	1	23
604.276	1	8
604.445	1	11
604.615	1	7
604.785	1	8
604.954	1	7
605.124	1	7
605.294	1	12
605.464	1	8
605.633	1	20
605.803	1	14
605.973	1	7
606.142	1	14
606.312	1	14
606.482	1	17
606.652	1	12
606.821	1	-5
606.991	1	12
607.161	1	7
607.330	1	17
607.500	1	3
607.670	1	0
607.839	1	19
608.009	1	27
608.179	1	10
608.348	1	13
608.518	1	10
608.688	1	19
608.858	1	7
609.027	1	2
609.197	1	12
609.367	1	13
609.536	1	23
609.706	1	3
609.876	1	8
610.045	1	8
610.215	1	14
610.385	1	8
610.554	1	3
610.724	1	17
610.894	1	10
611.063	1	14
611.233	1	-2
611.403	1	8
611.572	1	11
611.742	1	17
611.912	1	3
612.081	1	-2
612.251	1	23
612.421	1	5
612.590	1	7
612.760	1	9
612.930	1	15
613.099	1	13
613.269	1	20
613.439	1	11
613.608	1	8
613.778	1	16
613.948	1	11
614.117	1	8
614.287	1	16
614.457	1	17
614.626	1	11
614.796	1	15
614.966	1	8
615.135	1	3
615.305	1	12
615.475	1	9
615.644	1	13
615.814	1	7
615.984	1	12
616.153	1	12
616.323	1	15
616.493	1	13
616.662	1	13
616.832	1	12
617.002	1	11
617.171	1	7
617.341	1	7
617.511	1	13
617.680	1	4
617.850	1	16
618.019	1	24
618.189	1	24
618.359	1	17
618.528	1	11
618.698	1	34
618.868	1	6
619.037	1	11
619.207	1	11
619.377	1	13
619.546	1	11
619.716	1	11
619.885	1	13
620.055	1	4
620.225	1	14
620.394	1	0
620.564	1	20
620.734	1	18
620.903	1	13
621.073	1	18
621.242	1	20
621.412	1	13
621.582	1	8
621.751	1	21
621.921	1	18
622.091	1	7
622.260	1	8
622.430	1	23
622.599	1	2
622.769	1	6
622.939	1	13
623.108	1	4
623.278	1	3
623.448	1	6
623.617	1	8
623.787	1	11
623.956	1	17
624.126	1	11
624.296	1	12
624.465	1	10
624.635	1	19
624.804	1	16
624.974	1	14
625.144	1	15
625.313	1	17
625.483	1	-2
625.652	1	16
625.822	1	17
625.992	1	13
626.161	1	21
626.331	1	14
626.501	1	18
626.670	1	17
626.840	1	8
627.009	1	15
627.179	1	14
627.348	1	15
627.518	1	17
627.688	1	13
627.857	1	20
628.027	1	8
628.196	1	17
628.366	1	23
628.536	1	11
628.705	1	9
628.875	1	12
629.044	1	8
629.214	1	20
629.384	1	18
629.553	1	24
629.723	1	12
629.892	1	6
630.062	1	10
630.232	1	8
630.401	1	11
630.571	1	15
630.740	1	14
630.910	1	26
631.079	1	19
631.249	1	12
631.419	1	28
631.588	1	7
631.758	1	25
631.927	1	10
632.097	1	15
632.266	1	15
632.436	1	14
632.606	1	9
632.775	1	22
632.945	1	11
633.114	1	15
633.284	1	19
633.453	1	10
633.623	1	7
633.793	1	24
633.962	1	6
634.132	1	18
634.301	1	15
634.471	1	18
634.640	1	20
634.810	1	18
634.979	1	16
635.149	1	20
635.319	1	16
635.488	1	15
635.658	1	9
635.827	1	4
635.997	1	16
636.166	1	15
636.336	1	12
636.505	1	22
636.675	1	11
636.845	1	25
637.014	1	20
637.184	1	24
637.353	1	12
637.523	1	21
637.692	1	16
637.862	1	14
638.031	1	15
638.201	1	26
638.370	1	12
638.540	1	17
638.710	1	19
638.879	1	8
639.049	1	14
639.218	1	14
639.388	1	7
639.557	1	18
639.727	1	22
639.896	1	16
640.066	1	19
640.235	1	20
640.405	1	21
640.574	1	15
640.744	1	5
640.914	1	14
641.083	1	12
641.253	1	14
641.422	1	13
641.592	1	31
641.761	1	16
641.931	1	17
642.100	1	28
642.270	1	11
642.439	1	17
642.609	1	20
642.778	1	13
642.948	1	12
643.117	1	26
643.287	1	19
643.456	1	22
643.626	1	32
643.795	1	24
643.965	1	19
644.134	1	15
644.304	1	8
644.473	1	21
644.643	1	15
644.812	1	15
644.982	1	25
645.151	1	21
645.321	1	16
645.490	1	22
645.660	1	6
645.829	1	12
645.999	1	14
646.168	1	22
646.338	1	19
646.507	1	14
646.677	1	24
646.846	1	14
647.016	1	6
647.185	1	16
647.355	1	11
647.524	1	25
647.694	1	24
647.863	1	26
648.033	1	21
648.202	1	26
648.372	1	18
648.541	1	9
648.711	1	19
648.880	1	10
649.050	1	14
649.219	1	19
649.389	1	21
649.558	1	15
649.728	1	29
649.897	1	12
650.067	1	15
650.236	1	9
650.406	1	20
650.575	1	25
650.745	1	21
650.914	1	15
651.084	1	8
651.253	1	18
651.423	1	16
651.592	1	7
651.762	1	11
651.931	1	31
652.101	1	16
652.270	1	18
652.440	1	14
652.609	1	11
652.778	1	17
652.948	1	22
653.117	1	21
653.287	1	19
653.456	1	26
653.626	1	20
653.795	1	14
653.965	1	34
654.134	1	26
654.304	1	13
654.473	1	29
654.643	1	9
654.812	1	14
654.982	1	23
655.151	1	21
655.320	1	15
655.490	1	12
655.659	1	17
655.829	1	24
655.998	1	19
656.168	1	16
656.337	1	16
656.507	1	18
656.676	1	32
656.846	1	19
657.015	1	31
657.184	1	23
657.354	1	26
657.523	1	19
657.693	1	29
657.862	1	21
658.032	1	19
658.201	1	16
658.371	1	34
658.540	1	24
658.709	1	16
658.879	1	28
659.048	1	23
659.218	1	12
659.387	1	21
659.557	1	20
659.726	1	33
659.895	1	19
660.065	1	15
660.234	1	19
660.404	1	28
660.573	1	19
660.743	1	19
660.912	1	32
661.081	1	28
661.251	1	14
661.420	1	28
661.590	1	26
661.759	1	22
661.929	1	22
662.098	1	29
662.267	1	25
662.437	1	26
662.606	1	23
662.776	1	27
662.945	1	15
663.115	1	14
663.284	1	15
663.453	1	34
663.623	1	24
663.792	1	28
663.962	1	27
664.131	1	24
664.300	1	23
664.470	1	15
664.639	1	26
664.809	1	24
664.978	1	22
665.148	1	20
665.317	1	18
665.486	1	32
665.656	1	28
665.825	1	27
665.995	1	18
666.164	1	24
666.333	1	16
666.503	1	17
666.672	1	20
666.842	1	24
667.011	1	22
667.180	1	22
667.350	1	28
667.519	1	25
667.689	1	32
667.858	1	8
668.027	1	36
668.197	1	18
668.366	1	15
668.536	1	17
668.705	1	23
668.874	1	27
669.044	1	22
669.213	1	26
669.382	1	21
669.552	1	33
669.721	1	30
669.891	1	34
670.060	1	24
670.229	1	29
670.399	1	14
670.568	1	33
670.738	1	27
670.907	1	16
671.076	1	13
671.246	1	26
671.415	1	28
671.584	1	19
671.754	1	23
671.923	1	21
672.093	1	26
672.262	1	8
672.431	1	28
672.601	1	21
672.770	1	14
672.939	1	26
673.109	1	24
673.278	1	20
673.448	1	26
673.617	1	23
673.786	1	27
