325.333	1	13
325.504	1	3
325.675	1	15
325.846	1	9
326.017	1	6
326.188	1	12
326.359	1	6
326.531	1	-4
326.702	1	12
326.873	1	10
327.044	1	9
327.215	1	6
327.386	1	10
327.557	1	10
327.728	1	9
327.899	1	14
328.070	1	18
328.241	1	16
328.412	1	-2
328.583	1	11
328.754	1	10
328.926	1	13
329.097	1	7
329.268	1	21
329.439	1	13
329.610	1	12
329.781	1	1
329.952	1	20
330.123	1	18
330.294	1	0
330.465	1	14
330.636	1	19
330.807	1	10
330.978	1	7
331.149	1	4
331.320	1	12
331.492	1	10
331.663	1	11
331.834	1	21
332.005	1	16
332.176	1	26
332.347	1	17
332.518	1	9
332.689	1	19
332.860	1	12
333.031	1	15
333.202	1	1
333.373	1	22
333.544	1	5
333.715	1	25
333.886	1	7
334.057	1	14
334.228	1	8
334.399	1	5
334.570	1	21
334.741	1	13
334.912	1	25
335.084	1	34
335.255	1	15
335.426	1	12
335.597	1	9
335.768	1	12
335.939	1	16
336.110	1	19
336.281	1	11
336.452	1	15
336.623	1	17
336.794	1	13
336.965	1	12
337.136	1	24
337.307	1	12
337.478	1	13
337.649	1	24
337.820	1	10
337.991	1	14
338.162	1	20
338.333	1	21
338.504	1	20
338.675	1	21
338.846	1	18
339.017	1	14
339.188	1	17
339.359	1	11
339.530	1	15
339.701	1	21
339.872	1	26
340.043	1	22
340.214	1	13
340.385	1	24
340.556	1	-2
340.727	1	23
340.898	1	33
341.069	1	14
341.240	1	26
341.411	1	16
341.582	1	26
341.753	1	9
341.924	1	12
342.095	1	20
342.266	1	26
342.437	1	27
342.608	1	17
342.779	1	34
342.950	1	26
343.121	1	22
343.292	1	29
343.463	1	20
343.634	1	23
343.805	1	42
343.976	1	20
344.147	1	34
344.318	1	34
344.489	1	20
344.660	1	39
344.831	1	24
345.002	1	19
345.173	1	32
345.344	1	28
345.515	1	32
345.686	1	31
345.857	1	31
346.028	1	29
346.199	1	26
346.370	1	30
346.541	1	34
346.712	1	26
346.883	1	35
347.054	1	30
347.225	1	30
347.396	1	37
347.567	1	27
347.738	1	11
347.909	1	45
348.080	1	37
348.251	1	36
348.422	1	33
348.593	1	32
348.764	1	33
348.935	1	31
349.106	1	40
349.277	1	41
349.448	1	41
349.619	1	24
349.790	1	31
349.961	1	37
350.132	1	32
350.303	1	32
350.474	1	45
350.645	1	25
350.816	1	39
350.987	1	46
351.157	1	23
351.328	1	43
351.499	1	46
351.670	1	36
351.841	1	30
352.012	1	51
352.183	1	40
352.354	1	46
352.525	1	39
352.696	1	46
352.867	1	33
353.038	1	48
353.209	1	44
353.380	1	36
353.551	1	38
353.722	1	34
353.893	1	39
354.064	1	44
354.235	1	34
354.406	1	31
354.576	1	37
354.747	1	39
354.918	1	45
355.089	1	40
355.260	1	41
355.431	1	40
355.602	1	47
355.773	1	41
355.944	1	38
356.115	1	44
356.286	1	38
356.457	1	37
356.628	1	51
356.799	1	36
356.970	1	53
357.141	1	27
357.311	1	31
357.482	1	43
357.653	1	38
357.824	1	49
357.995	1	48
358.166	1	32
358.337	1	41
358.508	1	50
358.679	1	39
358.850	1	42
359.021	1	42
359.192	1	48
359.363	1	41
359.533	1	40
359.704	1	36
359.875	1	47
360.046	1	39
360.217	1	36
360.388	1	49
360.559	1	42
360.730	1	48
360.901	1	43
361.072	1	64
361.243	1	53
361.414	1	44
361.584	1	38
361.755	1	53
361.926	1	52
362.097	1	35
362.268	1	46
362.439	1	32
362.610	1	52
362.781	1	33
362.952	1	43
363.123	1	33
363.293	1	43
363.464	1	48
363.635	1	50
363.806	1	39
363.977	1	40
364.148	1	44
364.319	1	52
364.490	1	43
364.661	1	34
364.832	1	46
365.002	1	41
365.173	1	51
365.344	1	51
365.515	1	46
365.686	1	49
365.857	1	51
366.028	1	53
366.199	1	34
366.370	1	49
366.540	1	47
366.711	1	41
366.882	1	43
367.053	1	45
367.224	1	51
367.395	1	50
367.566	1	58
367.737	1	49
367.908	1	48
368.078	1	44
368.249	1	48
368.420	1	44
368.591	1	49
368.762	1	51
368.933	1	41
369.104	1	36
369.274	1	38
369.445	1	41
369.616	1	45
369.787	1	59
369.958	1	52
370.129	1	37
370.300	1	61
370.471	1	46
370.641	1	43
370.812	1	56
370.983	1	50
371.154	1	44
371.325	1	53
371.496	1	44
371.667	1	61
371.837	1	46
372.008	1	42
372.179	1	40
372.350	1	63
372.521	1	53
372.692	1	53
372.863	1	60
373.033	1	33
373.204	1	30
373.375	1	58
373.546	1	54
373.717	1	52
373.888	1	53
374.059	1	58
374.229	1	49
374.400	1	38
374.571	1	49
374.742	1	59
374.913	1	46
375.084	1	48
375.254	1	60
375.425	1	54
375.596	1	51
375.767	1	52
375.938	1	58
376.109	1	53
376.279	1	55
376.450	1	67
376.621	1	55
376.792	1	46
376.963	1	51
377.134	1	56
377.304	1	59
377.475	1	49
377.646	1	55
377.817	1	48
377.988	1	56
378.159	1	52
378.329	1	62
378.500	1	47
378.671	1	45
378.842	1	48
379.013	1	40
379.184	1	55
379.354	1	55
379.525	1	44
379.696	1	56
379.867	1	55
380.038	1	60
380.209	1	55
380.379	1	63
380.550	1	49
380.721	1	74
380.892	1	70
381.063	1	58
381.233	1	65
381.404	1	49
381.575	1	59
381.746	1	58
381.917	1	61
382.087	1	71
382.258	1	60
382.429	1	63
382.600	1	63
382.771	1	54
382.941	1	56
383.112	1	63
383.283	1	72
383.454	1	61
383.625	1	59
383.795	1	62
383.966	1	58
384.137	1	73
384.308	1	65
384.479	1	66
384.649	1	62
384.820	1	70
384.991	1	60
385.162	1	63
385.333	1	65
385.503	1	63
385.674	1	38
385.845	1	71
386.016	1	60
386.187	1	50
386.357	1	64
386.528	1	69
386.699	1	69
386.870	1	72
387.041	1	70
387.211	1	81
387.382	1	78
387.553	1	61
387.724	1	55
387.894	1	73
388.065	1	56
388.236	1	66
388.407	1	75
388.578	1	49
388.748	1	67
388.919	1	76
389.090	1	65
389.261	1	61
389.431	1	74
389.602	1	69
389.773	1	69
389.944	1	67
390.114	1	65
390.285	1	68
390.456	1	72
390.627	1	71
390.798	1	67
390.968	1	61
391.139	1	72
391.310	1	75
391.481	1	73
391.651	1	65
391.822	1	62
391.993	1	64
392.164	1	59
392.334	1	71
392.505	1	64
392.676	1	79
392.847	1	75
393.017	1	78
393.188	1	67
393.359	1	65
393.530	1	65
393.700	1	73
393.871	1	66
394.042	1	60
394.213	1	61
394.383	1	78
394.554	1	75
394.725	1	75
394.896	1	62
395.066	1	70
395.237	1	73
395.408	1	76
395.579	1	71
395.749	1	77
395.920	1	75
396.091	1	80
396.262	1	58
396.432	1	80
396.603	1	77
396.774	1	72
396.945	1	77
397.115	1	79
397.286	1	77
397.457	1	67
397.627	1	80
397.798	1	76
397.969	1	70
398.140	1	73
398.310	1	81
398.481	1	65
398.652	1	74
398.823	1	64
398.993	1	68
399.164	1	74
399.335	1	83
399.505	1	80
399.676	1	72
399.847	1	76
400.018	1	71
400.188	1	72
400.359	1	76
400.530	1	65
400.700	1	81
400.871	1	72
401.042	1	85
401.213	1	69
401.383	1	70
401.554	1	69
401.725	1	77
401.895	1	81
402.066	1	68
402.237	1	86
402.408	1	87
402.578	1	70
402.749	1	77
402.920	1	64
403.090	1	62
403.261	1	68
403.432	1	75
403.603	1	78
403.773	1	77
403.944	1	86
404.115	1	80
404.285	1	74
404.456	1	71
404.627	1	72
404.797	1	66
404.968	1	74
405.139	1	74
405.310	1	80
405.480	1	82
405.651	1	72
405.822	1	69
405.992	1	73
406.163	1	77
406.334	1	63
406.504	1	74
406.675	1	70
406.846	1	82
407.016	1	67
407.187	1	81
407.358	1	66
407.528	1	68
407.699	1	65
407.870	1	75
408.041	1	83
408.211	1	86
408.382	1	73
408.553	1	76
408.723	1	80
408.894	1	83
409.065	1	71
409.235	1	79
409.406	1	77
409.577	1	83
409.747	1	83
409.918	1	75
410.089	1	83
410.259	1	78
410.430	1	77
410.601	1	77
410.771	1	71
410.942	1	80
411.113	1	86
411.283	1	79
411.454	1	83
411.625	1	79
411.795	1	72
411.966	1	78
412.137	1	85
412.307	1	65
412.478	1	72
412.649	1	79
412.819	1	68
412.990	1	71
413.161	1	75
413.331	1	69
413.502	1	87
413.672	1	73
413.843	1	71
414.014	1	74
414.184	1	82
414.355	1	79
414.526	1	73
414.696	1	69
414.867	1	77
415.038	1	58
415.208	1	69
415.379	1	80
415.550	1	77
415.720	1	73
415.891	1	69
416.062	1	84
416.232	1	75
416.403	1	76
416.573	1	84
416.744	1	80
416.915	1	82
417.085	1	76
417.256	1	72
417.427	1	85
417.597	1	79
417.768	1	61
417.939	1	71
418.109	1	87
418.280	1	81
418.450	1	76
418.621	1	56
418.792	1	81
418.962	1	82
419.133	1	84
419.304	1	69
419.474	1	69
419.645	1	77
419.815	1	66
419.986	1	73
420.157	1	70
420.327	1	77
420.498	1	85
420.669	1	66
420.839	1	80
421.010	1	69
421.180	1	82
421.351	1	72
421.522	1	76
421.692	1	77
421.863	1	71
422.033	1	81
422.204	1	69
422.375	1	63
422.545	1	77
422.716	1	76
422.886	1	66
423.057	1	80
423.228	1	77
423.398	1	64
423.569	1	75
423.740	1	72
423.910	1	51
424.081	1	65
424.251	1	70
424.422	1	72
424.593	1	66
424.763	1	70
424.934	1	75
425.104	1	72
425.275	1	66
425.445	1	66
425.616	1	64
425.787	1	61
425.957	1	72
426.128	1	76
426.298	1	64
426.469	1	72
426.640	1	74
426.810	1	61
426.981	1	67
427.151	1	64
427.322	1	77
427.493	1	62
427.663	1	69
427.834	1	62
428.004	1	76
428.175	1	71
428.345	1	63
428.516	1	66
428.687	1	66
428.857	1	62
429.028	1	64
429.198	1	63
429.369	1	75
429.540	1	61
429.710	1	58
429.881	1	64
430.051	1	61
430.222	1	68
430.392	1	61
430.563	1	71
430.734	1	69
430.904	1	76
431.075	1	71
431.245	1	64
431.416	1	68
431.586	1	69
431.757	1	73
431.927	1	68
432.098	1	77
432.269	1	64
432.439	1	72
432.610	1	65
432.780	1	73
432.951	1	65
433.121	1	67
433.292	1	73
433.462	1	66
433.633	1	67
433.804	1	69
433.974	1	75
434.145	1	75
434.315	1	62
434.486	1	63
434.656	1	65
434.827	1	64
434.997	1	59
435.168	1	68
435.339	1	78
435.509	1	63
435.680	1	63
435.850	1	53
436.021	1	68
436.191	1	64
436.362	1	72
436.532	1	57
436.703	1	73
436.873	1	73
437.044	1	40
437.214	1	59
437.385	1	63
437.556	1	65
437.726	1	63
437.897	1	75
438.067	1	70
438.238	1	68
438.408	1	69
438.579	1	59
438.749	1	62
438.920	1	57
439.090	1	58
439.261	1	60
439.431	1	51
439.602	1	62
439.772	1	62
439.943	1	71
440.113	1	65
440.284	1	64
440.455	1	59
440.625	1	60
440.796	1	58
440.966	1	53
441.137	1	64
441.307	1	57
441.478	1	67
441.648	1	65
441.819	1	54
441.989	1	52
442.160	1	61
442.330	1	62
442.501	1	68
442.671	1	46
442.842	1	48
443.012	1	49
443.183	1	66
443.353	1	53
443.524	1	60
443.694	1	66
443.865	1	53
444.035	1	56
444.206	1	56
444.376	1	58
444.547	1	75
444.717	1	61
444.888	1	55
445.058	1	66
445.229	1	54
445.399	1	55
445.570	1	68
445.740	1	51
445.911	1	53
446.081	1	50
446.252	1	63
446.422	1	48
446.593	1	53
446.763	1	56
446.934	1	53
447.104	1	57
447.275	1	58
447.445	1	45
447.616	1	59
447.786	1	55
447.957	1	67
448.127	1	51
448.298	1	63
448.468	1	56
448.639	1	52
448.809	1	49
448.979	1	52
449.150	1	58
449.320	1	61
449.491	1	65
449.661	1	53
449.832	1	52
450.002	1	56
450.173	1	47
450.343	1	59
450.514	1	55
450.684	1	52
450.855	1	68
451.025	1	62
451.196	1	55
451.366	1	57
451.537	1	48
451.707	1	39
451.878	1	57
452.048	1	70
452.218	1	65
452.389	1	67
452.559	1	56
452.730	1	57
452.900	1	54
453.071	1	41
453.241	1	55
453.412	1	56
453.582	1	44
453.753	1	55
453.923	1	60
454.093	1	51
454.264	1	65
454.434	1	49
454.605	1	57
454.775	1	46
454.946	1	53
455.116	1	50
455.287	1	34
455.457	1	37
455.628	1	36
455.798	1	54
455.968	1	46
456.139	1	48
456.309	1	41
456.480	1	45
456.650	1	49
456.821	1	43
456.991	1	45
457.161	1	44
457.332	1	54
457.502	1	35
457.673	1	42
457.843	1	49
458.014	1	40
458.184	1	41
458.355	1	50
458.525	1	54
458.695	1	51
458.866	1	43
459.036	1	40
459.207	1	44
459.377	1	44
459.548	1	61
459.718	1	38
459.888	1	52
460.059	1	59
460.229	1	53
460.400	1	54
460.570	1	41
460.740	1	48
460.911	1	43
461.081	1	50
461.252	1	36
461.422	1	49
461.593	1	54
461.763	1	47
461.933	1	50
462.104	1	37
462.274	1	38
462.445	1	49
462.615	1	45
462.785	1	46
462.956	1	42
463.126	1	58
463.297	1	39
463.467	1	44
463.638	1	48
463.808	1	36
463.978	1	43
464.149	1	41
464.319	1	37
464.490	1	53
464.660	1	39
464.830	1	34
465.001	1	47
465.171	1	46
465.342	1	53
465.512	1	41
465.682	1	47
465.853	1	44
466.023	1	40
466.194	1	36
466.364	1	45
466.534	1	45
466.705	1	49
466.875	1	44
467.045	1	33
467.216	1	50
467.386	1	36
467.557	1	45
467.727	1	35
467.897	1	36
468.068	1	31
468.238	1	40
468.409	1	39
468.579	1	47
468.749	1	44
468.920	1	22
469.090	1	46
469.260	1	36
469.431	1	26
469.601	1	40
469.772	1	41
469.942	1	27
470.112	1	51
470.283	1	39
470.453	1	47
470.623	1	41
470.794	1	25
470.964	1	35
471.135	1	39
471.305	1	37
471.475	1	37
471.646	1	32
471.816	1	32
471.986	1	35
472.157	1	48
472.327	1	31
472.497	1	30
472.668	1	32
472.838	1	35
473.009	1	40
473.179	1	35
473.349	1	29
473.520	1	47
473.690	1	53
473.860	1	39
474.031	1	44
474.201	1	30
474.371	1	35
474.542	1	43
474.712	1	32
474.882	1	35
475.053	1	55
475.223	1	30
475.394	1	37
475.564	1	40
475.734	1	41
475.905	1	51
476.075	1	40
476.245	1	51
476.416	1	44
476.586	1	37
476.756	1	31
476.927	1	41
477.097	1	39
477.267	1	31
477.438	1	33
477.608	1	29
477.778	1	38
477.949	1	39
478.119	1	47
478.289	1	41
478.460	1	40
478.630	1	33
478.800	1	35
478.971	1	46
479.141	1	37
479.311	1	24
479.482	1	34
479.652	1	29
479.822	1	31
479.993	1	40
480.163	1	41
480.333	1	39
480.504	1	36
480.674	1	37
480.844	1	24
481.015	1	44
481.185	1	28
481.355	1	35
481.525	1	23
481.696	1	32
481.866	1	29
482.036	1	26
482.207	1	39
482.377	1	30
482.547	1	42
482.718	1	34
482.888	1	37
483.058	1	36
483.229	1	36
483.399	1	26
483.569	1	31
483.740	1	32
483.910	1	33
484.080	1	28
484.250	1	30
484.421	1	32
484.591	1	23
484.761	1	34
484.932	1	44
485.102	1	36
485.272	1	31
485.443	1	38
485.613	1	35
485.783	1	23
485.953	1	41
486.124	1	34
486.294	1	30
486.464	1	28
486.635	1	29
486.805	1	33
486.975	1	29
487.146	1	29
487.316	1	23
487.486	1	39
487.656	1	25
487.827	1	18
487.997	1	13
488.167	1	15
488.338	1	32
488.508	1	24
488.678	1	20
488.848	1	37
489.019	1	20
489.189	1	31
489.359	1	24
489.529	1	18
489.700	1	15
489.870	1	36
490.040	1	14
490.211	1	14
490.381	1	24
490.551	1	25
490.721	1	27
490.892	1	29
491.062	1	18
491.232	1	30
491.402	1	21
491.573	1	13
491.743	1	16
491.913	1	22
492.084	1	22
492.254	1	26
492.424	1	25
492.594	1	37
492.765	1	27
492.935	1	29
493.105	1	27
493.275	1	21
493.446	1	33
493.616	1	40
493.786	1	18
493.956	1	27
494.127	1	26
494.297	1	11
494.467	1	22
494.637	1	16
494.808	1	21
494.978	1	22
495.148	1	23
495.318	1	18
495.489	1	31
495.659	1	25
495.829	1	18
495.999	1	7
496.170	1	30
496.340	1	26
496.510	1	33
496.680	1	13
496.851	1	17
497.021	1	25
497.191	1	15
497.361	1	27
497.532	1	14
497.702	1	16
497.872	1	26
498.042	1	24
498.213	1	20
498.383	1	11
498.553	1	23
498.723	1	14
498.894	1	28
499.064	1	25
499.234	1	22
499.404	1	16
499.574	1	34
499.745	1	25
499.915	1	14
500.085	1	26
500.255	1	20
500.426	1	15
500.596	1	22
500.766	1	14
500.936	1	24
501.106	1	4
501.277	1	26
501.447	1	15
501.617	1	24
501.787	1	16
501.958	1	15
502.128	1	18
502.298	1	15
502.468	1	15
502.638	1	20
502.809	1	19
502.979	1	20
503.149	1	20
503.319	1	14
503.489	1	13
503.660	1	20
503.830	1	19
504.000	1	25
504.170	1	13
504.340	1	3
504.511	1	22
504.681	1	21
504.851	1	15
505.021	1	19
505.192	1	16
505.362	1	14
505.532	1	10
505.702	1	16
505.872	1	20
506.043	1	8
506.213	1	14
506.383	1	23
506.553	1	21
506.723	1	9
506.893	1	18
507.064	1	26
507.234	1	13
507.404	1	6
507.574	1	23
507.744	1	24
507.915	1	23
508.085	1	36
508.255	1	17
508.425	1	14
508.595	1	11
508.766	1	22
508.936	1	-1
509.106	1	27
509.276	1	12
509.446	1	13
509.616	1	15
509.787	1	23
509.957	1	23
510.127	1	17
510.297	1	22
510.467	1	3
510.638	1	19
510.808	1	10
510.978	1	7
511.148	1	26
511.318	1	15
511.488	1	10
511.659	1	20
511.829	1	5
511.999	1	15
512.169	1	11
512.339	1	13
512.509	1	15
512.680	1	21
512.850	1	17
513.020	1	26
513.190	1	10
513.360	1	12
513.530	1	20
513.700	1	14
513.871	1	12
514.041	1	12
514.211	1	19
514.381	1	24
514.551	1	21
514.721	1	11
514.892	1	15
515.062	1	19
515.232	1	18
515.402	1	7
515.572	1	13
515.742	1	12
515.912	1	13
516.083	1	10
516.253	1	18
516.423	1	16
516.593	1	22
516.763	1	24
516.933	1	10
517.104	1	20
517.274	1	11
517.444	1	13
517.614	1	11
517.784	1	9
517.954	1	14
518.124	1	16
518.294	1	8
518.465	1	14
518.635	1	5
518.805	1	0
518.975	1	12
519.145	1	16
519.315	1	2
519.485	1	14
519.656	1	32
519.826	1	15
519.996	1	9
520.166	1	10
520.336	1	23
520.506	1	13
520.676	1	1
520.846	1	19
521.017	1	10
521.187	1	13
521.357	1	24
521.527	1	14
521.697	1	16
521.867	1	12
522.037	1	20
522.207	1	24
522.377	1	14
522.548	1	8
522.718	1	16
522.888	1	21
523.058	1	10
523.228	1	19
523.398	1	9
523.568	1	13
523.738	1	14
523.909	1	24
524.079	1	13
524.249	1	6
524.419	1	9
524.589	1	10
524.759	1	0
524.929	1	8
525.099	1	19
525.269	1	10
525.439	1	6
525.610	1	27
525.780	1	10
525.950	1	5
526.120	1	4
526.290	1	10
526.460	1	3
526.630	1	18
526.800	1	3
526.970	1	4
527.140	1	12
527.311	1	12
527.481	1	7
527.651	1	16
527.821	1	0
527.991	1	21
528.161	1	15
528.331	1	11
528.501	1	10
528.671	1	2
528.841	1	10
529.011	1	7
529.181	1	17
529.352	1	12
529.522	1	3
529.692	1	17
529.862	1	13
530.032	1	18
530.202	1	15
530.372	1	13
530.542	1	9
530.712	1	17
530.882	1	16
531.052	1	13
531.222	1	15
531.392	1	10
531.563	1	12
531.733	1	6
531.903	1	14
532.073	1	21
532.243	1	11
532.413	1	18
532.583	1	12
532.753	1	7
532.923	1	-2
533.093	1	11
533.263	1	11
533.433	1	6
533.603	1	15
533.773	1	3
533.943	1	10
534.113	1	6
534.284	1	8
534.454	1	16
534.624	1	23
534.794	1	1
534.964	1	12
535.134	1	7
535.304	1	13
535.474	1	21
535.644	1	2
535.814	1	0
535.984	1	2
536.154	1	8
536.324	1	11
536.494	1	17
536.664	1	16
536.834	1	12
537.004	1	3
537.174	1	17
537.344	1	8
537.514	1	0
537.685	1	16
537.855	1	8
538.025	1	17
538.195	1	16
538.365	1	23
538.535	1	7
538.705	1	5
538.875	1	15
539.045	1	10
539.215	1	11
539.385	1	17
539.555	1	12
539.725	1	11
539.895	1	3
540.065	1	18
540.235	1	13
540.405	1	7
540.575	1	11
540.745	1	8
540.915	1	11
541.085	1	18
541.255	1	6
541.425	1	16
541.595	1	8
541.765	1	9
541.935	1	-3
542.105	1	-4
542.275	1	11
542.445	1	2
542.615	1	10
542.785	1	8
542.955	1	4
543.125	1	1
543.295	1	14
543.465	1	7
543.635	1	10
543.805	1	20
543.975	1	0
544.145	1	7
544.315	1	13
544.485	1	8
544.655	1	9
544.825	1	-3
544.995	1	2
545.165	1	4
545.335	1	10
545.505	1	-4
545.675	1	9
545.845	1	8
546.015	1	13
546.185	1	18
546.355	1	16
546.525	1	10
546.695	1	9
546.865	1	4
547.035	1	11
547.205	1	0
547.375	1	9
547.545	1	19
547.715	1	5
547.885	1	13
548.055	1	4
548.225	1	4
548.395	1	-7
548.565	1	12
548.735	1	19
548.905	1	12
549.075	1	5
549.245	1	7
549.415	1	8
549.585	1	9
549.755	1	10
549.925	1	-3
550.095	1	8
550.265	1	11
550.435	1	6
550.605	1	-2
550.775	1	4
550.945	1	10
551.115	1	14
551.285	1	15
551.455	1	-1
551.625	1	13
551.795	1	3
551.965	1	3
552.135	1	-5
552.305	1	8
552.475	1	3
552.645	1	-1
552.815	1	1
552.985	1	-2
553.155	1	10
553.325	1	8
553.495	1	4
553.665	1	11
553.835	1	1
554.004	1	8
554.174	1	5
554.344	1	15
554.514	1	-1
554.684	1	13
554.854	1	8
555.024	1	-1
555.194	1	0
555.364	1	3
555.534	1	10
555.704	1	10
555.874	1	10
556.044	1	5
556.214	1	-1
556.384	1	6
556.554	1	12
556.724	1	2
556.894	1	1
557.064	1	7
557.234	1	-1
557.404	1	17
557.573	1	14
557.743	1	7
557.913	1	1
558.083	1	3
558.253	1	6
558.423	1	11
558.593	1	7
558.763	1	4
558.933	1	-1
559.103	1	17
559.273	1	10
559.443	1	8
559.613	1	3
559.783	1	2
559.953	1	14
560.122	1	14
560.292	1	9
560.462	1	5
560.632	1	13
560.802	1	6
560.972	1	5
561.142	1	7
561.312	1	0
561.482	1	10
561.652	1	10
561.822	1	3
561.992	1	-4
562.162	1	12
562.331	1	3
562.501	1	5
562.671	1	0
562.841	1	1
563.011	1	9
563.181	1	1
563.351	1	1
563.521	1	8
563.691	1	0
563.861	1	5
564.031	1	14
564.201	1	14
564.370	1	0
564.540	1	6
564.710	1	2
564.880	1	9
565.050	1	9
565.220	1	2
565.390	1	5
565.560	1	13
565.730	1	2
565.900	1	7
566.069	1	9
566.239	1	12
566.409	1	15
566.579	1	10
566.749	1	4
566.919	1	15
567.089	1	8
567.259	1	13
567.429	1	2
567.599	1	8
567.768	1	5
567.938	1	12
568.108	1	7
568.278	1	6
568.448	1	-1
568.618	1	3
568.788	1	7
568.958	1	-6
569.128	1	17
569.297	1	1
569.467	1	-2
569.637	1	14
569.807	1	9
569.977	1	6
570.147	1	8
570.317	1	-4
570.487	1	14
570.656	1	10
570.826	1	4
570.996	1	-1
571.166	1	12
571.336	1	1
571.506	1	10
571.676	1	5
571.846	1	17
572.015	1	2
572.185	1	5
572.355	1	0
572.525	1	11
572.695	1	5
572.865	1	2
573.035	1	8
573.205	1	5
573.374	1	-2
573.544	1	9
573.714	1	11
573.884	1	14
574.054	1	11
574.224	1	9
574.394	1	0
574.563	1	7
574.733	1	5
574.903	1	-2
575.073	1	6
575.243	1	5
575.413	1	12
575.583	1	-1
575.752	1	9
575.922	1	8
576.092	1	5
576.262	1	-3
576.432	1	10
576.602	1	10
576.772	1	15
576.941	1	9
577.111	1	4
577.281	1	-6
577.451	1	4
577.621	1	5
577.791	1	5
577.960	1	7
578.130	1	6
578.300	1	10
578.470	1	15
578.640	1	4
578.810	1	7
578.979	1	5
579.149	1	7
579.319	1	-1
579.489	1	12
579.659	1	3
579.829	1	-2
579.998	1	7
580.168	1	5
580.338	1	13
580.508	1	1
580.678	1	0
580.848	1	8
581.017	1	5
581.187	1	10
581.357	1	4
581.527	1	9
581.697	1	18
581.867	1	10
582.036	1	5
582.206	1	7
582.376	1	12
582.546	1	5
582.716	1	-2
582.885	1	2
583.055	1	1
583.225	1	-1
583.395	1	14
583.565	1	-3
583.735	1	-1
583.904	1	3
584.074	1	3
584.244	1	10
584.414	1	4
584.584	1	8
584.753	1	6
584.923	1	4
585.093	1	4
585.263	1	4
585.433	1	9
585.602	1	-8
585.772	1	8
585.942	1	3
586.112	1	5
586.282	1	-7
586.451	1	0
586.621	1	-6
586.791	1	2
586.961	1	5
587.131	1	14
587.300	1	4
587.470	1	11
587.640	1	13
587.810	1	3
587.980	1	9
588.149	1	4
588.319	1	7
588.489	1	4
588.659	1	8
588.829	1	13
588.998	1	9
589.168	1	12
589.338	1	4
589.508	1	5
589.677	1	-6
589.847	1	-1
590.017	1	26
590.187	1	3
590.357	1	14
590.526	1	16
590.696	1	1
590.866	1	15
591.036	1	3
591.205	1	9
591.375	1	-5
591.545	1	7
591.715	1	13
591.885	1	0
592.054	1	8
592.224	1	3
592.394	1	-4
592.564	1	14
592.733	1	9
592.903	1	9
593.073	1	3
593.243	1	9
593.412	1	12
593.582	1	7
593.752	1	5
593.922	1	3
594.091	1	3
594.261	1	-1
594.431	1	7
594.601	1	13
594.771	1	9
594.940	1	9
595.110	1	6
595.280	1	7
595.450	1	-2
595.619	1	0
595.789	1	6
595.959	1	8
596.129	1	7
596.298	1	1
596.468	1	6
596.638	1	7
596.808	1	10
596.977	1	4
597.147	1	7
597.317	1	3
597.487	1	17
597.656	1	2
597.826	1	11
597.996	1	11
598.166	1	2
598.335	1	-6
598.505	1	7
598.675	1	0
598.844	1	-5
599.014	1	-4
599.184	1	14
599.354	1	-9
599.523	1	6
599.693	1	-7
599.863	1	11
600.033	1	2
600.202	1	6
600.372	1	6
600.542	1	15
600.712	1	-5
600.881	1	4
601.051	1	9
601.221	1	10
601.390	1	-4
601.560	1	7
601.730	1	7
601.900	1	12
602.069	1	17
602.239	1	1
602.409	1	1
602.578	1	2
602.748	1	2
602.918	1	12
603.088	1	4
603.257	1	9
603.427	1	1
603.597	1	5
603.767	1	3
603.936	1	6
604.106	1	8
604.276	1	7
604.445	1	12
604.615	1	5
604.785	1	-1
604.954	1	4
605.124	1	-1
605.294	1	3
605.464	1	-1
605.633	1	8
605.803	1	5
605.973	1	10
606.142	1	1
606.312	1	17
606.482	1	0
606.652	1	8
606.821	1	0
606.991	1	7
607.161	1	11
607.330	1	7
607.500	1	4
607.670	1	-8
607.839	1	16
608.009	1	8
608.179	1	12
608.348	1	9
608.518	1	1
608.688	1	16
608.858	1	-1
609.027	1	-2
609.197	1	3
609.367	1	13
609.536	1	5
609.706	1	4
609.876	1	5
610.045	1	6
610.215	1	11
610.385	1	5
610.554	1	14
610.724	1	16
610.894	1	6
611.063	1	3
611.233	1	4
611.403	1	4
611.572	1	7
611.742	1	10
611.912	1	4
612.081	1	-3
612.251	1	6
612.421	1	10
612.590	1	12
612.760	1	9
612.930	1	2
613.099	1	2
613.269	1	16
613.439	1	6
613.608	1	7
613.778	1	13
613.948	1	2
614.117	1	8
614.287	1	15
614.457	1	11
614.626	1	5
614.796	1	8
614.966	1	0
615.135	1	12
615.305	1	11
615.475	1	14
615.644	1	5
615.814	1	4
615.984	1	10
616.153	1	9
616.323	1	8
616.493	1	2
616.662	1	15
616.832	1	2
617.002	1	-3
617.171	1	-1
617.341	1	1
617.511	1	1
617.680	1	-4
617.850	1	7
618.019	1	17
618.189	1	24
618.359	1	10
618.528	1	2
618.698	1	13
618.868	1	-1
619.037	1	2
619.207	1	0
619.377	1	-2
619.546	1	4
619.716	1	5
619.885	1	10
620.055	1	0
620.225	1	0
620.394	1	0
620.564	1	13
620.734	1	8
620.903	1	-3
621.073	1	8
621.242	1	9
621.412	1	13
621.582	1	5
621.751	1	20
621.921	1	12
622.091	1	6
622.260	1	7
622.430	1	22
622.599	1	2
622.769	1	13
622.939	1	14
623.108	1	14
623.278	1	-5
623.448	1	2
623.617	1	3
623.787	1	7
623.956	1	17
624.126	1	-2
624.296	1	9
624.465	1	6
624.635	1	19
624.804	1	5
624.974	1	5
625.144	1	15
625.313	1	7
625.483	1	4
625.652	1	-1
625.822	1	8
625.992	1	4
626.161	1	18
626.331	1	7
626.501	1	19
626.670	1	2
626.840	1	5
627.009	1	3
627.179	1	12
627.348	1	8
627.518	1	9
627.688	1	8
627.857	1	19
628.027	1	7
628.196	1	13
628.366	1	14
628.536	1	9
628.705	1	12
628.875	1	6
629.044	1	7
629.214	1	6
629.384	1	8
629.553	1	19
629.723	1	10
629.892	1	7
630.062	1	12
630.232	1	4
630.401	1	9
630.571	1	14
630.740	1	2
630.910	1	14
631.079	1	18
631.249	1	2
631.419	1	13
631.588	1	-9
631.758	1	21
631.927	1	4
632.097	1	12
632.266	1	7
632.436	1	6
632.606	1	6
632.775	1	12
632.945	1	14
633.114	1	12
633.284	1	14
633.453	1	13
633.623	1	-1
633.793	1	8
633.962	1	4
634.132	1	10
634.301	1	14
634.471	1	12
634.640	1	6
634.810	1	8
634.979	1	12
635.149	1	13
635.319	1	5
635.488	1	6
635.658	1	-2
635.827	1	4
635.997	1	8
636.166	1	4
636.336	1	-6
636.505	1	19
636.675	1	1
636.845	1	13
637.014	1	13
637.184	1	14
637.353	1	11
637.523	1	13
637.692	1	12
637.862	1	7
638.031	1	14
638.201	1	13
638.370	1	8
638.540	1	8
638.710	1	12
638.879	1	3
639.049	1	13
639.218	1	8
639.388	1	2
639.557	1	-1
639.727	1	13
639.896	1	17
640.066	1	5
640.235	1	7
640.405	1	14
640.574	1	6
640.744	1	0
640.914	1	6
641.083	1	2
641.253	1	8
641.422	1	7
641.592	1	13
641.761	1	3
641.931	1	20
642.100	1	26
642.270	1	0
642.439	1	16
642.609	1	11
642.778	1	8
642.948	1	-3
643.117	1	16
643.287	1	10
643.456	1	6
643.626	1	17
643.795	1	7
643.965	1	8
644.134	1	11
644.304	1	11
644.473	1	17
644.643	1	8
644.812	1	1
644.982	1	13
645.151	1	11
645.321	1	-4
645.490	1	19
645.660	1	3
645.829	1	9
645.999	1	11
646.168	1	15
646.338	1	15
646.507	1	13
646.677	1	14
646.846	1	11
647.016	1	3
647.185	1	8
647.355	1	-5
647.524	1	15
647.694	1	12
647.863	1	20
648.033	1	6
648.202	1	12
648.372	1	4
648.541	1	6
648.711	1	6
648.880	1	-2
649.050	1	2
649.219	1	10
649.389	1	19
649.558	1	5
649.728	1	16
649.897	1	11
650.067	1	14
650.236	1	-1
650.406	1	20
650.575	1	16
650.745	1	19
650.914	1	-1
651.084	1	5
651.253	1	2
651.423	1	15
651.592	1	9
651.762	1	11
651.931	1	19
652.101	1	9
652.270	1	16
652.440	1	11
652.609	1	7
652.778	1	11
652.948	1	20
653.117	1	3
653.287	1	10
653.456	1	19
653.626	1	22
653.795	1	8
653.965	1	10
654.134	1	14
654.304	1	0
654.473	1	10
654.643	1	15
654.812	1	14
654.982	1	6
655.151	1	7
655.320	1	7
655.490	1	10
655.659	1	13
655.829	1	16
655.998	1	14
656.168	1	10
656.337	1	19
656.507	1	21
656.676	1	21
656.846	1	18
657.015	1	16
657.184	1	19
657.354	1	16
657.523	1	7
657.693	1	22
657.862	1	14
658.032	1	9
658.201	1	10
658.371	1	22
658.540	1	7
658.709	1	11
658.879	1	24
659.048	1	15
659.218	1	0
659.387	1	16
659.557	1	15
659.726	1	16
659.895	1	13
660.065	1	-3
660.234	1	13
660.404	1	19
660.573	1	8
660.743	1	5
660.912	1	16
661.081	1	16
661.251	1	14
661.420	1	21
661.590	1	17
661.759	1	12
661.929	1	6
662.098	1	25
662.267	1	11
662.437	1	14
662.606	1	14
662.776	1	7
662.945	1	11
663.115	1	18
663.284	1	7
663.453	1	16
663.623	1	13
663.792	1	13
663.962	1	8
664.131	1	15
664.300	1	21
664.470	1	6
664.639	1	21
664.809	1	13
664.978	1	12
665.148	1	10
665.317	1	9
665.486	1	21
665.656	1	8
665.825	1	23
665.995	1	7
666.164	1	7
666.333	1	11
666.503	1	5
666.672	1	3
666.842	1	11
667.011	1	18
667.180	1	19
667.350	1	6
667.519	1	17
667.689	1	9
667.858	1	15
668.027	1	20
668.197	1	14
668.366	1	5
668.536	1	9
668.705	1	20
668.874	1	17
669.044	1	14
669.213	1	17
669.382	1	5
669.552	1	16
669.721	1	16
669.891	1	19
670.060	1	20
670.229	1	24
670.399	1	9
670.568	1	25
670.738	1	21
670.907	1	-1
671.076	1	6
671.246	1	19
671.415	1	16
671.584	1	8
671.754	1	11
671.923	1	5
672.093	1	19
672.262	1	-2
672.431	1	16
672.601	1	11
672.770	1	11
672.939	1	12
673.109	1	13
673.278	1	19
673.448	1	17
673.617	1	16
673.786	1	15
