325.333	1	12
325.504	1	5
325.675	1	10
325.846	1	5
326.017	1	-6
326.188	1	12
326.359	1	-6
326.531	1	-17
326.702	1	-6
326.873	1	5
327.044	1	10
327.215	1	2
327.386	1	11
327.557	1	-4
327.728	1	5
327.899	1	4
328.070	1	4
328.241	1	4
328.412	1	-13
328.583	1	8
328.754	1	5
328.926	1	13
329.097	1	-7
329.268	1	5
329.439	1	-1
329.610	1	-2
329.781	1	-9
329.952	1	10
330.123	1	3
330.294	1	-5
330.465	1	0
330.636	1	10
330.807	1	-5
330.978	1	-6
331.149	1	0
331.320	1	4
331.492	1	6
331.663	1	5
331.834	1	7
332.005	1	3
332.176	1	12
332.347	1	9
332.518	1	-9
332.689	1	7
332.860	1	-6
333.031	1	8
333.202	1	-5
333.373	1	2
333.544	1	-5
333.715	1	3
333.886	1	1
334.057	1	8
334.228	1	-7
334.399	1	-1
334.570	1	5
334.741	1	-3
334.912	1	9
335.084	1	24
335.255	1	-6
335.426	1	-2
335.597	1	-6
335.768	1	-10
335.939	1	14
336.110	1	5
336.281	1	-13
336.452	1	-7
336.623	1	2
336.794	1	11
336.965	1	3
337.136	1	2
337.307	1	1
337.478	1	2
337.649	1	6
337.820	1	-1
337.991	1	1
338.162	1	-1
338.333	1	0
338.504	1	5
338.675	1	3
338.846	1	0
339.017	1	-3
339.188	1	-5
339.359	1	-1
339.530	1	0
339.701	1	2
339.872	1	10
340.043	1	-5
340.214	1	2
340.385	1	12
340.556	1	-4
340.727	1	6
340.898	1	9
341.069	1	6
341.240	1	-3
341.411	1	3
341.582	1	-1
341.753	1	0
341.924	1	7
342.095	1	3
342.266	1	6
342.437	1	8
342.608	1	-2
342.779	1	4
342.950	1	9
343.121	1	4
343.292	1	0
343.463	1	6
343.634	1	-6
343.805	1	12
343.976	1	1
344.147	1	-2
344.318	1	0
344.489	1	8
344.660	1	17
344.831	1	-3
345.002	1	-11
345.173	1	6
345.344	1	2
345.515	1	0
345.686	1	-4
345.857	1	9
346.028	1	1
346.199	1	-8
346.370	1	2
346.541	1	6
346.712	1	-5
346.883	1	-5
347.054	1	1
347.225	1	4
347.396	1	1
347.567	1	-2
347.738	1	-5
347.909	1	19
348.080	1	-1
348.251	1	7
348.422	1	13
348.593	1	-6
348.764	1	-3
348.935	1	0
349.106	1	-2
349.277	1	5
349.448	1	8
349.619	1	5
349.790	1	3
349.961	1	8
350.132	1	6
350.303	1	4
350.474	1	8
350.645	1	6
350.816	1	-4
350.987	1	0
351.157	1	0
351.328	1	10
351.499	1	7
351.670	1	-4
351.841	1	6
352.012	1	6
352.183	1	6
352.354	1	1
352.525	1	10
352.696	1	8
352.867	1	-5
353.038	1	13
353.209	1	10
353.380	1	1
353.551	1	-4
353.722	1	4
353.893	1	-6
354.064	1	6
354.235	1	8
354.406	1	0
354.576	1	9
354.747	1	1
354.918	1	3
355.089	1	3
355.260	1	13
355.431	1	10
355.602	1	-4
355.773	1	1
355.944	1	-2
356.115	1	3
356.286	1	7
356.457	1	2
356.628	1	-7
356.799	1	7
356.970	1	16
357.141	1	10
357.311	1	-4
357.482	1	-2
357.653	1	0
357.824	1	12
357.995	1	5
358.166	1	-2
358.337	1	6
358.508	1	4
358.679	1	7
358.850	1	-2
359.021	1	-1
359.192	1	7
359.363	1	-2
359.533	1	-1
359.704	1	1
359.875	1	-2
360.046	1	5
360.217	1	-10
360.388	1	4
360.559	1	-2
360.730	1	3
360.901	1	-5
361.072	1	14
361.243	1	6
361.414	1	-2
361.584	1	-7
361.755	1	-1
361.926	1	0
362.097	1	-1
362.268	1	-3
362.439	1	-2
362.610	1	9
362.781	1	-6
362.952	1	-7
363.123	1	4
363.293	1	-2
363.464	1	11
363.635	1	1
363.806	1	-3
363.977	1	-5
364.148	1	0
364.319	1	4
364.490	1	8
364.661	1	3
364.832	1	5
365.002	1	-1
365.173	1	5
365.344	1	9
365.515	1	-7
365.686	1	3
365.857	1	3
366.028	1	9
366.199	1	-11
366.370	1	-1
366.540	1	-4
366.711	1	-13
366.882	1	-7
367.053	1	-4
367.224	1	13
367.395	1	5
367.566	1	6
367.737	1	9
367.908	1	8
368.078	1	-3
368.249	1	12
368.420	1	-8
368.591	1	-7
368.762	1	1
368.933	1	1
369.104	1	-4
369.274	1	0
369.445	1	-6
369.616	1	-4
369.787	1	-2
369.958	1	8
370.129	1	-15
370.300	1	15
370.471	1	-2
370.641	1	5
370.812	1	1
370.983	1	7
371.154	1	0
371.325	1	14
371.496	1	3
371.667	1	4
371.837	1	-5
372.008	1	1
372.179	1	-1
372.350	1	14
372.521	1	2
372.692	1	2
372.863	1	7
373.033	1	-7
373.204	1	-3
373.375	1	11
373.546	1	-1
373.717	1	14
373.888	1	11
374.059	1	10
374.229	1	7
374.400	1	9
374.571	1	0
374.742	1	13
374.913	1	-4
375.084	1	-4
375.254	1	-2
375.425	1	2
375.596	1	5
375.767	1	-7
375.938	1	5
376.109	1	3
376.279	1	-3
376.450	1	11
376.621	1	6
376.792	1	-7
376.963	1	-2
377.134	1	5
377.304	1	-1
377.475	1	5
377.646	1	-3
377.817	1	-1
377.988	1	-5
378.159	1	14
378.329	1	3
378.500	1	-3
378.671	1	-2
378.842	1	-6
379.013	1	-4
379.184	1	-5
379.354	1	-2
379.525	1	-7
379.696	1	13
379.867	1	6
380.038	1	3
380.209	1	11
380.379	1	2
380.550	1	-3
380.721	1	8
380.892	1	0
381.063	1	-2
381.233	1	7
381.404	1	5
381.575	1	6
381.746	1	1
381.917	1	-6
382.087	1	7
382.258	1	4
382.429	1	7
382.600	1	6
382.771	1	-1
382.941	1	-9
383.112	1	4
383.283	1	9
383.454	1	-4
383.625	1	-13
383.795	1	2
383.966	1	3
384.137	1	8
384.308	1	11
384.479	1	6
384.649	1	5
384.820	1	4
384.991	1	0
385.162	1	-1
385.333	1	-5
385.503	1	-3
385.674	1	-16
385.845	1	7
386.016	1	-4
386.187	1	-1
386.357	1	12
386.528	1	13
386.699	1	4
386.870	1	3
387.041	1	2
387.211	1	3
387.382	1	9
387.553	1	9
387.724	1	-3
387.894	1	4
388.065	1	-1
388.236	1	7
388.407	1	12
388.578	1	-3
388.748	1	3
388.919	1	7
389.090	1	1
389.261	1	-4
389.431	1	6
389.602	1	3
389.773	1	-2
389.944	1	5
390.114	1	0
390.285	1	-4
390.456	1	-4
390.627	1	0
390.798	1	6
390.968	1	5
391.139	1	12
391.310	1	-5
391.481	1	12
391.651	1	7
391.822	1	-9
391.993	1	-3
392.164	1	-4
392.334	1	-1
392.505	1	-6
392.676	1	16
392.847	1	14
393.017	1	16
393.188	1	-1
393.359	1	-7
393.530	1	10
393.700	1	-9
393.871	1	0
394.042	1	2
394.213	1	-2
394.383	1	4
394.554	1	2
394.725	1	10
394.896	1	-6
395.066	1	6
395.237	1	-8
395.408	1	3
395.579	1	-4
395.749	1	4
395.920	1	-4
396.091	1	7
396.262	1	-4
396.432	1	-2
396.603	1	6
396.774	1	10
396.945	1	3
397.115	1	-2
397.286	1	0
397.457	1	-3
397.627	1	1
397.798	1	8
397.969	1	3
398.140	1	-6
398.310	1	1
398.481	1	11
398.652	1	9
398.823	1	-4
398.993	1	-2
399.164	1	-4
399.335	1	8
399.505	1	8
399.676	1	4
399.847	1	11
400.018	1	4
400.188	1	3
400.359	1	3
400.530	1	-2
400.700	1	0
400.871	1	4
401.042	1	9
401.213	1	6
401.383	1	0
401.554	1	6
401.725	1	13
401.895	1	-3
402.066	1	2
402.237	1	4
402.408	1	6
402.578	1	-3
402.749	1	7
402.920	1	1
403.090	1	-2
403.261	1	9
403.432	1	2
403.603	1	8
403.773	1	6
403.944	1	7
404.115	1	8
404.285	1	4
404.456	1	-8
404.627	1	4
404.797	1	-3
404.968	1	-4
405.139	1	-7
405.310	1	6
405.480	1	6
405.651	1	5
405.822	1	4
405.992	1	-7
406.163	1	0
406.334	1	-2
406.504	1	3
406.675	1	6
406.846	1	9
407.016	1	12
407.187	1	7
407.358	1	1
407.528	1	-7
407.699	1	-9
407.870	1	-2
408.041	1	2
408.211	1	10
408.382	1	-12
408.553	1	-5
408.723	1	-7
408.894	1	-4
409.065	1	0
409.235	1	-3
409.406	1	2
409.577	1	-14
409.747	1	18
409.918	1	0
410.089	1	-2
410.259	1	5
410.430	1	-8
410.601	1	0
410.771	1	2
410.942	1	8
411.113	1	5
411.283	1	4
411.454	1	2
411.625	1	0
411.795	1	9
411.966	1	5
412.137	1	3
412.307	1	-6
412.478	1	-3
412.649	1	0
412.819	1	2
412.990	1	-3
413.161	1	1
413.331	1	-10
413.502	1	15
413.672	1	-5
413.843	1	-8
414.014	1	7
414.184	1	2
414.355	1	0
414.526	1	0
414.696	1	5
414.867	1	-1
415.038	1	-8
415.208	1	-1
415.379	1	10
415.550	1	9
415.720	1	1
415.891	1	-1
416.062	1	0
416.232	1	-4
416.403	1	-4
416.573	1	8
416.744	1	2
416.915	1	9
417.085	1	7
417.256	1	-3
417.427	1	12
417.597	1	3
417.768	1	-4
417.939	1	2
418.109	1	3
418.280	1	10
418.450	1	0
418.621	1	-5
418.792	1	2
418.962	1	5
419.133	1	19
419.304	1	-8
419.474	1	-5
419.645	1	1
419.815	1	-10
419.986	1	1
420.157	1	1
420.327	1	-1
420.498	1	16
420.669	1	-1
420.839	1	9
421.010	1	11
421.180	1	-4
421.351	1	4
421.522	1	4
421.692	1	1
421.863	1	7
422.033	1	5
422.204	1	4
422.375	1	-4
422.545	1	5
422.716	1	-4
422.886	1	2
423.057	1	10
423.228	1	4
423.398	1	-6
423.569	1	7
423.740	1	-5
423.910	1	-6
424.081	1	-2
424.251	1	-12
424.422	1	0
424.593	1	-6
424.763	1	6
424.934	1	1
425.104	1	5
425.275	1	5
425.445	1	4
425.616	1	0
425.787	1	-1
425.957	1	4
426.128	1	6
426.298	1	-4
426.469	1	1
426.640	1	-3
426.810	1	-7
426.981	1	-3
427.151	1	-3
427.322	1	12
427.493	1	4
427.663	1	6
427.834	1	2
428.004	1	0
428.175	1	5
428.345	1	0
428.516	1	-3
428.687	1	-1
428.857	1	-2
429.028	1	0
429.198	1	0
429.369	1	5
429.540	1	2
429.710	1	-5
429.881	1	6
430.051	1	2
430.222	1	4
430.392	1	8
430.563	1	5
430.734	1	2
430.904	1	9
431.075	1	4
431.245	1	-8
431.416	1	2
431.586	1	1
431.757	1	-1
431.927	1	-2
432.098	1	5
432.269	1	-2
432.439	1	6
432.610	1	-3
432.780	1	9
432.951	1	4
433.121	1	6
433.292	1	-2
433.462	1	11
433.633	1	3
433.804	1	8
433.974	1	5
434.145	1	13
434.315	1	-9
434.486	1	-4
434.656	1	5
434.827	1	0
434.997	1	-6
435.168	1	6
435.339	1	-1
435.509	1	-1
435.680	1	7
435.850	1	0
436.021	1	11
436.191	1	-9
436.362	1	3
436.532	1	-2
436.703	1	3
436.873	1	0
437.044	1	-11
437.214	1	8
437.385	1	2
437.556	1	0
437.726	1	10
437.897	1	10
438.067	1	8
438.238	1	12
438.408	1	9
438.579	1	-6
438.749	1	6
438.920	1	-5
439.090	1	9
439.261	1	1
439.431	1	-3
439.602	1	-2
439.772	1	-5
439.943	1	16
440.113	1	3
440.284	1	-6
440.455	1	-5
440.625	1	3
440.796	1	13
440.966	1	-2
441.137	1	-5
441.307	1	4
441.478	1	11
441.648	1	8
441.819	1	4
441.989	1	-2
442.160	1	11
442.330	1	4
442.501	1	9
442.671	1	-10
442.842	1	-10
443.012	1	1
443.183	1	4
443.353	1	0
443.524	1	-1
443.694	1	20
443.865	1	0
444.035	1	2
444.206	1	-1
444.376	1	4
444.547	1	19
444.717	1	1
444.888	1	1
445.058	1	14
445.229	1	2
445.399	1	0
445.570	1	1
445.740	1	5
445.911	1	4
446.081	1	-4
446.252	1	7
446.422	1	6
446.593	1	-9
446.763	1	7
446.934	1	-7
447.104	1	-3
447.275	1	4
447.445	1	-1
447.616	1	8
447.786	1	6
447.957	1	1
448.127	1	3
448.298	1	5
448.468	1	6
448.639	1	3
448.809	1	5
448.979	1	-4
449.150	1	2
449.320	1	-1
449.491	1	7
449.661	1	-7
449.832	1	-8
450.002	1	0
450.173	1	-4
450.343	1	-5
450.514	1	0
450.684	1	2
450.855	1	3
451.025	1	13
451.196	1	1
451.366	1	0
451.537	1	-5
451.707	1	-19
451.878	1	10
452.048	1	14
452.218	1	10
452.389	1	-3
452.559	1	6
452.730	1	8
452.900	1	9
453.071	1	-4
453.241	1	-2
453.412	1	-2
453.582	1	-1
453.753	1	3
453.923	1	8
454.093	1	5
454.264	1	21
454.434	1	3
454.605	1	13
454.775	1	3
454.946	1	11
455.116	1	-1
455.287	1	-10
455.457	1	-13
455.628	1	-2
455.798	1	6
455.968	1	3
456.139	1	-3
456.309	1	4
456.480	1	-14
456.650	1	5
456.821	1	-1
456.991	1	8
457.161	1	-4
457.332	1	5
457.502	1	-4
457.673	1	7
457.843	1	8
458.014	1	7
458.184	1	7
458.355	1	0
458.525	1	3
458.695	1	4
458.866	1	3
459.036	1	5
459.207	1	-4
459.377	1	2
459.548	1	3
459.718	1	-4
459.888	1	2
460.059	1	-5
460.229	1	4
460.400	1	20
460.570	1	8
460.740	1	2
460.911	1	7
461.081	1	2
461.252	1	1
461.422	1	-10
461.593	1	-7
461.763	1	-4
461.933	1	6
462.104	1	-6
462.274	1	5
462.445	1	1
462.615	1	-4
462.785	1	-1
462.956	1	-3
463.126	1	4
463.297	1	1
463.467	1	0
463.638	1	9
463.808	1	3
463.978	1	-3
464.149	1	-5
464.319	1	-2
464.490	1	8
464.660	1	2
464.830	1	0
465.001	1	-5
465.171	1	8
465.342	1	5
465.512	1	-6
465.682	1	5
465.853	1	6
466.023	1	5
466.194	1	-9
466.364	1	4
466.534	1	8
466.705	1	3
466.875	1	2
467.045	1	-1
467.216	1	13
467.386	1	-3
467.557	1	-5
467.727	1	-9
467.897	1	-1
468.068	1	-5
468.238	1	-4
468.409	1	2
468.579	1	14
468.749	1	0
468.920	1	-7
469.090	1	7
469.260	1	-11
469.431	1	1
469.601	1	10
469.772	1	-1
469.942	1	-7
470.112	1	7
470.283	1	8
470.453	1	10
470.623	1	2
470.794	1	-17
470.964	1	0
471.135	1	1
471.305	1	-10
471.475	1	4
471.646	1	-6
471.816	1	8
471.986	1	7
472.157	1	14
472.327	1	-8
472.497	1	5
472.668	1	-11
472.838	1	-4
473.009	1	2
473.179	1	5
473.349	1	-3
473.520	1	16
473.690	1	9
473.860	1	-1
474.031	1	-2
474.201	1	0
474.371	1	7
474.542	1	-2
474.712	1	3
474.882	1	7
475.053	1	7
475.223	1	5
475.394	1	-5
475.564	1	6
475.734	1	3
475.905	1	13
476.075	1	9
476.245	1	4
476.416	1	6
476.586	1	10
476.756	1	-4
476.927	1	9
477.097	1	9
477.267	1	-8
477.438	1	-4
477.608	1	-3
477.778	1	2
477.949	1	-4
478.119	1	14
478.289	1	11
478.460	1	5
478.630	1	6
478.800	1	-3
478.971	1	-2
479.141	1	-1
479.311	1	-8
479.482	1	-2
479.652	1	3
479.822	1	2
479.993	1	13
480.163	1	7
480.333	1	3
480.504	1	8
480.674	1	6
480.844	1	-9
481.015	1	2
481.185	1	3
481.355	1	10
481.525	1	4
481.696	1	9
481.866	1	3
482.036	1	2
482.207	1	1
482.377	1	1
482.547	1	17
482.718	1	-2
482.888	1	9
483.058	1	-4
483.229	1	-1
483.399	1	4
483.569	1	1
483.740	1	6
483.910	1	4
484.080	1	-2
484.250	1	2
484.421	1	4
484.591	1	6
484.761	1	5
484.932	1	1
485.102	1	10
485.272	1	0
485.443	1	13
485.613	1	8
485.783	1	4
485.953	1	2
486.124	1	4
486.294	1	1
486.464	1	-5
486.635	1	9
486.805	1	20
486.975	1	3
487.146	1	14
487.316	1	0
487.486	1	6
487.656	1	-8
487.827	1	-3
487.997	1	-4
488.167	1	-2
488.338	1	6
488.508	1	-3
488.678	1	0
488.848	1	9
489.019	1	3
489.189	1	-3
489.359	1	3
489.529	1	1
489.700	1	-5
489.870	1	8
490.040	1	-4
490.211	1	-2
490.381	1	4
490.551	1	5
490.721	1	12
490.892	1	9
491.062	1	-10
491.232	1	4
491.402	1	3
491.573	1	-9
491.743	1	-4
491.913	1	0
492.084	1	12
492.254	1	1
492.424	1	5
492.594	1	-2
492.765	1	4
492.935	1	2
493.105	1	8
493.275	1	-2
493.446	1	9
493.616	1	11
493.786	1	-2
493.956	1	-2
494.127	1	7
494.297	1	2
494.467	1	4
494.637	1	1
494.808	1	1
494.978	1	-5
495.148	1	-1
495.318	1	-4
495.489	1	-3
495.659	1	-3
495.829	1	2
495.999	1	-9
496.170	1	10
496.340	1	6
496.510	1	1
496.680	1	4
496.851	1	2
497.021	1	-7
497.191	1	-1
497.361	1	4
497.532	1	-15
497.702	1	0
497.872	1	0
498.042	1	6
498.213	1	4
498.383	1	-3
498.553	1	-4
498.723	1	-2
498.894	1	1
499.064	1	9
499.234	1	5
499.404	1	-2
499.574	1	9
499.745	1	11
499.915	1	-5
500.085	1	7
500.255	1	10
500.426	1	-1
500.596	1	1
500.766	1	4
500.936	1	3
501.106	1	2
501.277	1	3
501.447	1	0
501.617	1	-1
501.787	1	0
501.958	1	1
502.128	1	7
502.298	1	1
502.468	1	-2
502.638	1	-5
502.809	1	0
502.979	1	-2
503.149	1	-7
503.319	1	-4
503.489	1	2
503.660	1	5
503.830	1	6
504.000	1	6
504.170	1	-4
504.340	1	-2
504.511	1	5
504.681	1	8
504.851	1	10
505.021	1	9
505.192	1	1
505.362	1	1
505.532	1	-5
505.702	1	-1
505.872	1	2
506.043	1	-7
506.213	1	-9
506.383	1	12
506.553	1	9
506.723	1	6
506.893	1	2
507.064	1	0
507.234	1	-5
507.404	1	-9
507.574	1	5
507.744	1	5
507.915	1	3
508.085	1	7
508.255	1	1
508.425	1	12
508.595	1	14
508.766	1	10
508.936	1	-4
509.106	1	4
509.276	1	9
509.446	1	-2
509.616	1	-2
509.787	1	-5
509.957	1	2
510.127	1	1
510.297	1	5
510.467	1	-5
510.638	1	9
510.808	1	-9
510.978	1	-4
511.148	1	3
511.318	1	5
511.488	1	-2
511.659	1	7
511.829	1	-9
511.999	1	4
512.169	1	-1
512.339	1	4
512.509	1	5
512.680	1	0
512.850	1	6
513.020	1	8
513.190	1	8
513.360	1	-6
513.530	1	1
513.700	1	3
513.871	1	3
514.041	1	5
514.211	1	10
514.381	1	9
514.551	1	5
514.721	1	-3
514.892	1	2
515.062	1	4
515.232	1	9
515.402	1	-7
515.572	1	-9
515.742	1	7
515.912	1	7
516.083	1	3
516.253	1	10
516.423	1	-3
516.593	1	-3
516.763	1	8
516.933	1	0
517.104	1	2
517.274	1	1
517.444	1	-4
517.614	1	-3
517.784	1	-5
517.954	1	2
518.124	1	-4
518.294	1	0
518.465	1	1
518.635	1	4
518.805	1	-3
518.975	1	8
519.145	1	4
519.315	1	3
519.485	1	-9
519.656	1	11
519.826	1	7
519.996	1	-4
520.166	1	3
520.336	1	7
520.506	1	-3
520.676	1	5
520.846	1	6
521.017	1	9
521.187	1	2
521.357	1	15
521.527	1	-1
521.697	1	1
521.867	1	-5
522.037	1	12
522.207	1	13
522.377	1	3
522.548	1	-1
522.718	1	1
522.888	1	16
523.058	1	4
523.228	1	13
523.398	1	1
523.568	1	1
523.738	1	-7
523.909	1	10
524.079	1	7
524.249	1	-4
524.419	1	2
524.589	1	0
524.759	1	-7
524.929	1	-6
525.099	1	-1
525.269	1	4
525.439	1	-4
525.610	1	12
525.780	1	-1
525.950	1	5
526.120	1	5
526.290	1	1
526.460	1	1
526.630	1	2
526.800	1	-4
526.970	1	3
527.140	1	8
527.311	1	0
527.481	1	-9
527.651	1	12
527.821	1	1
527.991	1	6
528.161	1	10
528.331	1	1
528.501	1	-3
528.671	1	-3
528.841	1	6
529.011	1	-3
529.181	1	2
529.352	1	1
529.522	1	2
529.692	1	3
529.862	1	1
530.032	1	0
530.202	1	6
530.372	1	-6
530.542	1	1
530.712	1	3
530.882	1	2
531.052	1	7
531.222	1	-3
531.392	1	1
531.563	1	-3
531.733	1	-2
531.903	1	7
532.073	1	0
532.243	1	5
532.413	1	-3
532.583	1	-5
532.753	1	-6
532.923	1	-5
533.093	1	1
533.263	1	-3
533.433	1	1
533.603	1	4
533.773	1	-4
533.943	1	-5
534.113	1	1
534.284	1	9
534.454	1	3
534.624	1	15
534.794	1	-12
534.964	1	8
535.134	1	-6
535.304	1	-2
535.474	1	7
535.644	1	-8
535.814	1	-10
535.984	1	-15
536.154	1	-1
536.324	1	-10
536.494	1	4
536.664	1	3
536.834	1	7
537.004	1	-2
537.174	1	5
537.344	1	1
537.514	1	0
537.685	1	4
537.855	1	9
538.025	1	2
538.195	1	4
538.365	1	4
538.535	1	3
538.705	1	5
538.875	1	-2
539.045	1	7
539.215	1	5
539.385	1	0
539.555	1	-3
539.725	1	6
539.895	1	3
540.065	1	6
540.235	1	7
540.405	1	-1
540.575	1	-4
540.745	1	3
540.915	1	8
541.085	1	4
541.255	1	-2
541.425	1	0
541.595	1	2
541.765	1	1
541.935	1	-8
542.105	1	-9
542.275	1	4
542.445	1	-14
542.615	1	6
542.785	1	6
542.955	1	-4
543.125	1	-7
543.295	1	8
543.465	1	-1
543.635	1	7
543.805	1	12
543.975	1	2
544.145	1	11
544.315	1	0
544.485	1	12
544.655	1	2
544.825	1	-8
544.995	1	1
545.165	1	1
545.335	1	8
545.505	1	-1
545.675	1	-1
545.845	1	3
546.015	1	8
546.185	1	8
546.355	1	4
546.525	1	8
546.695	1	7
546.865	1	2
547.035	1	5
547.205	1	-4
547.375	1	6
547.545	1	6
547.715	1	-6
547.885	1	-2
548.055	1	1
548.225	1	7
548.395	1	4
548.565	1	2
548.735	1	-2
548.905	1	-1
549.075	1	8
549.245	1	6
549.415	1	-14
549.585	1	5
549.755	1	1
549.925	1	-1
550.095	1	8
550.265	1	-11
550.435	1	-2
550.605	1	0
550.775	1	6
550.945	1	14
551.115	1	1
551.285	1	3
551.455	1	-3
551.625	1	7
551.795	1	9
551.965	1	2
552.135	1	4
552.305	1	-12
552.475	1	-7
552.645	1	-8
552.815	1	-2
552.985	1	7
553.155	1	2
553.325	1	7
553.495	1	-3
553.665	1	-10
553.835	1	-4
554.004	1	10
554.174	1	-5
554.344	1	3
554.514	1	-2
554.684	1	4
554.854	1	5
555.024	1	-5
555.194	1	-4
555.364	1	3
555.534	1	6
555.704	1	0
555.874	1	9
556.044	1	-4
556.214	1	-1
556.384	1	-4
556.554	1	11
556.724	1	-6
556.894	1	2
557.064	1	4
557.234	1	1
557.404	1	3
557.573	1	-3
557.743	1	-2
557.913	1	-8
558.083	1	-4
558.253	1	10
558.423	1	-7
558.593	1	7
558.763	1	-1
558.933	1	-6
559.103	1	11
559.273	1	2
559.443	1	5
559.613	1	1
559.783	1	-3
559.953	1	4
560.122	1	11
560.292	1	3
560.462	1	-6
560.632	1	1
560.802	1	7
560.972	1	4
561.142	1	2
561.312	1	-1
561.482	1	2
561.652	1	7
561.822	1	-8
561.992	1	0
562.162	1	-6
562.331	1	-2
562.501	1	-15
562.671	1	7
562.841	1	-7
563.011	1	11
563.181	1	0
563.351	1	-4
563.521	1	7
563.691	1	-2
563.861	1	0
564.031	1	11
564.201	1	13
564.370	1	-6
564.540	1	1
564.710	1	1
564.880	1	7
565.050	1	-1
565.220	1	6
565.390	1	6
565.560	1	7
565.730	1	15
565.900	1	3
566.069	1	9
566.239	1	3
566.409	1	7
566.579	1	5
566.749	1	4
566.919	1	13
567.089	1	0
567.259	1	-1
567.429	1	-1
567.599	1	6
567.768	1	6
567.938	1	-1
568.108	1	7
568.278	1	-6
568.448	1	-1
568.618	1	-4
568.788	1	8
568.958	1	3
569.128	1	3
569.297	1	4
569.467	1	0
569.637	1	9
569.807	1	4
569.977	1	7
570.147	1	14
570.317	1	-1
570.487	1	2
570.656	1	3
570.826	1	-5
570.996	1	0
571.166	1	7
571.336	1	-3
571.506	1	3
571.676	1	6
571.846	1	15
572.015	1	2
572.185	1	2
572.355	1	1
572.525	1	0
572.695	1	2
572.865	1	-10
573.035	1	0
573.205	1	-2
573.374	1	-2
573.544	1	4
573.714	1	4
573.884	1	8
574.054	1	2
574.224	1	7
574.394	1	2
574.563	1	-4
574.733	1	-2
574.903	1	-7
575.073	1	6
575.243	1	-2
575.413	1	1
575.583	1	-3
575.752	1	9
575.922	1	0
576.092	1	-3
576.262	1	6
576.432	1	6
576.602	1	-10
576.772	1	12
576.941	1	-2
577.111	1	3
577.281	1	-2
577.451	1	0
577.621	1	13
577.791	1	12
577.960	1	-2
578.130	1	5
578.300	1	0
578.470	1	9
578.640	1	-3
578.810	1	11
578.979	1	1
579.149	1	-6
579.319	1	-5
579.489	1	3
579.659	1	0
579.829	1	1
579.998	1	9
580.168	1	14
580.338	1	2
580.508	1	-1
580.678	1	1
580.848	1	-3
581.017	1	1
581.187	1	5
581.357	1	5
581.527	1	4
581.697	1	2
581.867	1	7
582.036	1	-5
582.206	1	0
582.376	1	9
582.546	1	-5
582.716	1	-5
582.885	1	-9
583.055	1	3
583.225	1	-7
583.395	1	-1
583.565	1	-3
583.735	1	8
583.904	1	4
584.074	1	9
584.244	1	11
584.414	1	2
584.584	1	5
584.753	1	-7
584.923	1	-5
585.093	1	2
585.263	1	4
585.433	1	4
585.602	1	-9
585.772	1	-2
585.942	1	2
586.112	1	7
586.282	1	-2
586.451	1	-7
586.621	1	-2
586.791	1	4
586.961	1	-2
587.131	1	8
587.300	1	4
587.470	1	10
587.640	1	6
587.810	1	-1
587.980	1	-5
588.149	1	-3
588.319	1	6
588.489	1	-2
588.659	1	-10
588.829	1	9
588.998	1	13
589.168	1	7
589.338	1	2
589.508	1	2
589.677	1	-5
589.847	1	-5
590.017	1	11
590.187	1	-6
590.357	1	8
590.526	1	9
590.696	1	4
590.866	1	12
591.036	1	-5
591.205	1	15
591.375	1	-6
591.545	1	-2
591.715	1	5
591.885	1	7
592.054	1	-4
592.224	1	5
592.394	1	1
592.564	1	-3
592.733	1	5
592.903	1	1
593.073	1	0
593.243	1	6
593.412	1	4
593.582	1	-1
593.752	1	-5
593.922	1	8
594.091	1	-4
594.261	1	0
594.431	1	-1
594.601	1	0
594.771	1	2
594.940	1	-6
595.110	1	-3
595.280	1	5
595.450	1	-9
595.619	1	-2
595.789	1	-7
595.959	1	9
596.129	1	-3
596.298	1	-6
596.468	1	1
596.638	1	-5
596.808	1	-3
596.977	1	2
597.147	1	4
597.317	1	-8
597.487	1	11
597.656	1	7
597.826	1	-5
597.996	1	9
598.166	1	3
598.335	1	-4
598.505	1	-2
598.675	1	-1
598.844	1	5
599.014	1	2
599.184	1	0
599.354	1	-6
599.523	1	9
599.693	1	0
599.863	1	4
600.033	1	2
600.202	1	-2
600.372	1	4
600.542	1	11
600.712	1	-3
600.881	1	-5
601.051	1	7
601.221	1	6
601.390	1	0
601.560	1	9
601.730	1	0
601.900	1	8
602.069	1	7
602.239	1	-4
602.409	1	-6
602.578	1	8
602.748	1	1
602.918	1	4
603.088	1	3
603.257	1	8
603.427	1	-6
603.597	1	-3
603.767	1	-2
603.936	1	3
604.106	1	3
604.276	1	-1
604.445	1	6
604.615	1	1
604.785	1	1
604.954	1	-3
605.124	1	0
605.294	1	-1
605.464	1	-2
605.633	1	6
605.803	1	1
605.973	1	5
606.142	1	0
606.312	1	7
606.482	1	2
606.652	1	15
606.821	1	4
606.991	1	1
607.161	1	-3
607.330	1	-2
607.500	1	-2
607.670	1	-8
607.839	1	8
608.009	1	0
608.179	1	5
608.348	1	-1
608.518	1	-1
608.688	1	4
608.858	1	0
609.027	1	-5
609.197	1	-2
609.367	1	13
609.536	1	4
609.706	1	4
609.876	1	-4
610.045	1	6
610.215	1	5
610.385	1	5
610.554	1	-1
610.724	1	9
610.894	1	4
611.063	1	0
611.233	1	-4
611.403	1	2
611.572	1	4
611.742	1	6
611.912	1	4
612.081	1	7
612.251	1	6
612.421	1	0
612.590	1	-4
612.760	1	-1
612.930	1	1
613.099	1	-1
613.269	1	10
613.439	1	-3
613.608	1	-1
613.778	1	7
613.948	1	-3
614.117	1	2
614.287	1	6
614.457	1	7
614.626	1	-5
614.796	1	10
614.966	1	-6
615.135	1	-10
615.305	1	12
615.475	1	6
615.644	1	2
615.814	1	-4
615.984	1	-8
616.153	1	-6
616.323	1	5
616.493	1	-1
616.662	1	13
616.832	1	3
617.002	1	0
617.171	1	-4
617.341	1	9
617.511	1	-7
617.680	1	-14
617.850	1	-6
618.019	1	16
618.189	1	12
618.359	1	5
618.528	1	0
618.698	1	9
618.868	1	-5
619.037	1	2
619.207	1	-5
619.377	1	-15
619.546	1	5
619.716	1	6
619.885	1	4
620.055	1	-8
620.225	1	8
620.394	1	1
620.564	1	10
620.734	1	5
620.903	1	-5
621.073	1	8
621.242	1	4
621.412	1	1
621.582	1	-4
621.751	1	5
621.921	1	2
622.091	1	2
622.260	1	7
622.430	1	2
622.599	1	-9
622.769	1	0
622.939	1	3
623.108	1	-3
623.278	1	4
623.448	1	4
623.617	1	-3
623.787	1	-9
623.956	1	7
624.126	1	-3
624.296	1	-2
624.465	1	1
624.635	1	13
624.804	1	3
624.974	1	6
625.144	1	10
625.313	1	3
625.483	1	1
625.652	1	0
625.822	1	-4
625.992	1	-4
626.161	1	5
626.331	1	2
626.501	1	3
626.670	1	9
626.840	1	-1
627.009	1	-5
627.179	1	4
627.348	1	2
627.518	1	2
627.688	1	3
627.857	1	6
628.027	1	-4
628.196	1	7
628.366	1	10
628.536	1	-2
628.705	1	3
628.875	1	-3
629.044	1	3
629.214	1	8
629.384	1	12
629.553	1	10
629.723	1	-1
629.892	1	-3
630.062	1	0
630.232	1	4
630.401	1	-2
630.571	1	0
630.740	1	6
630.910	1	5
631.079	1	4
631.249	1	-3
631.419	1	9
631.588	1	-11
631.758	1	1
631.927	1	-3
632.097	1	4
632.266	1	-6
632.436	1	5
632.606	1	-2
632.775	1	3
632.945	1	2
633.114	1	-3
633.284	1	5
633.453	1	0
633.623	1	5
633.793	1	-1
633.962	1	0
634.132	1	1
634.301	1	-5
634.471	1	8
634.640	1	4
634.810	1	7
634.979	1	10
635.149	1	3
635.319	1	1
635.488	1	1
635.658	1	0
635.827	1	-5
635.997	1	-2
636.166	1	5
636.336	1	-6
636.505	1	-1
636.675	1	-3
636.845	1	6
637.014	1	2
637.184	1	4
637.353	1	7
637.523	1	9
637.692	1	2
637.862	1	-1
638.031	1	-1
638.201	1	14
638.370	1	-9
638.540	1	-4
638.710	1	-4
638.879	1	-8
639.049	1	-1
639.218	1	7
639.388	1	2
639.557	1	3
639.727	1	4
639.896	1	4
640.066	1	2
640.235	1	6
640.405	1	2
640.574	1	4
640.744	1	-9
640.914	1	3
641.083	1	6
641.253	1	-2
641.422	1	-1
641.592	1	10
641.761	1	-11
641.931	1	-6
642.100	1	21
642.270	1	0
642.439	1	8
642.609	1	9
642.778	1	2
642.948	1	-5
643.117	1	7
643.287	1	-7
643.456	1	2
643.626	1	6
643.795	1	2
643.965	1	7
644.134	1	-6
644.304	1	-4
644.473	1	9
644.643	1	-1
644.812	1	0
644.982	1	0
645.151	1	6
645.321	1	-1
645.490	1	1
645.660	1	-9
645.829	1	1
645.999	1	2
646.168	1	6
646.338	1	12
646.507	1	-2
646.677	1	-2
646.846	1	-4
647.016	1	-13
647.185	1	5
647.355	1	-12
647.524	1	17
647.694	1	11
647.863	1	4
648.033	1	3
648.202	1	4
648.372	1	-2
648.541	1	-9
648.711	1	-2
648.880	1	-1
649.050	1	-6
649.219	1	-3
649.389	1	4
649.558	1	1
649.728	1	5
649.897	1	-10
650.067	1	12
650.236	1	7
650.406	1	1
650.575	1	8
650.745	1	3
650.914	1	3
651.084	1	-8
651.253	1	-1
651.423	1	-1
651.592	1	5
651.762	1	4
651.931	1	8
652.101	1	5
652.270	1	-2
652.440	1	13
652.609	1	-4
652.778	1	-1
652.948	1	2
653.117	1	-5
653.287	1	-1
653.456	1	4
653.626	1	6
653.795	1	2
653.965	1	6
654.134	1	1
654.304	1	-9
654.473	1	10
654.643	1	6
654.812	1	3
654.982	1	1
655.151	1	1
655.320	1	4
655.490	1	-5
655.659	1	4
655.829	1	-4
655.998	1	-1
656.168	1	5
656.337	1	-4
656.507	1	-3
656.676	1	4
656.846	1	8
657.015	1	-1
657.184	1	16
657.354	1	4
657.523	1	1
657.693	1	-1
657.862	1	0
658.032	1	5
658.201	1	-5
658.371	1	10
658.540	1	-4
658.709	1	-6
658.879	1	5
659.048	1	-3
659.218	1	5
659.387	1	2
659.557	1	6
659.726	1	2
659.895	1	-6
660.065	1	-5
660.234	1	-3
660.404	1	1
660.573	1	0
660.743	1	4
660.912	1	3
661.081	1	7
661.251	1	6
661.420	1	7
661.590	1	-1
661.759	1	1
661.929	1	6
662.098	1	6
662.267	1	0
662.437	1	12
662.606	1	0
662.776	1	9
662.945	1	4
663.115	1	16
663.284	1	-6
663.453	1	2
663.623	1	-1
663.792	1	5
663.962	1	5
664.131	1	2
664.300	1	14
664.470	1	-3
664.639	1	13
664.809	1	-2
664.978	1	13
665.148	1	-1
665.317	1	-2
665.486	1	13
665.656	1	-14
665.825	1	10
665.995	1	4
666.164	1	-3
666.333	1	5
666.503	1	1
666.672	1	1
666.842	1	2
667.011	1	-3
667.180	1	5
667.350	1	-7
667.519	1	4
667.689	1	3
667.858	1	6
668.027	1	10
668.197	1	8
668.366	1	-1
668.536	1	8
668.705	1	4
668.874	1	2
669.044	1	5
669.213	1	8
669.382	1	-9
669.552	1	4
669.721	1	2
669.891	1	8
670.060	1	1
670.229	1	10
670.399	1	5
670.568	1	5
670.738	1	9
670.907	1	-10
671.076	1	-6
671.246	1	2
671.415	1	7
671.584	1	-1
671.754	1	1
671.923	1	-4
672.093	1	5
672.262	1	-6
672.431	1	-3
672.601	1	0
672.770	1	-9
672.939	1	3
673.109	1	3
673.278	1	9
673.448	1	2
673.617	1	-12
673.786	1	-5
