325.333	1	16
325.504	1	7
325.675	1	8
325.846	1	7
326.017	1	11
326.188	1	2
326.359	1	0
326.531	1	3
326.702	1	5
326.873	1	15
327.044	1	7
327.215	1	6
327.386	1	10
327.557	1	-2
327.728	1	7
327.899	1	22
328.070	1	18
328.241	1	10
328.412	1	-10
328.583	1	20
328.754	1	19
328.926	1	16
329.097	1	-6
329.268	1	15
329.439	1	21
329.610	1	17
329.781	1	-3
329.952	1	10
330.123	1	9
330.294	1	10
330.465	1	17
330.636	1	10
330.807	1	8
330.978	1	3
331.149	1	10
331.320	1	3
331.492	1	16
331.663	1	15
331.834	1	13
332.005	1	16
332.176	1	29
332.347	1	11
332.518	1	6
332.689	1	19
332.860	1	11
333.031	1	21
333.202	1	8
333.373	1	15
333.544	1	17
333.715	1	21
333.886	1	6
334.057	1	19
334.228	1	1
334.399	1	13
334.570	1	17
334.741	1	2
334.912	1	16
335.084	1	27
335.255	1	18
335.426	1	7
335.597	1	12
335.768	1	8
335.939	1	18
336.110	1	9
336.281	1	1
336.452	1	13
336.623	1	14
336.794	1	15
336.965	1	9
337.136	1	14
337.307	1	22
337.478	1	6
337.649	1	17
337.820	1	16
337.991	1	17
338.162	1	22
338.333	1	18
338.504	1	15
338.675	1	16
338.846	1	25
339.017	1	11
339.188	1	8
339.359	1	-5
339.530	1	22
339.701	1	21
339.872	1	28
340.043	1	12
340.214	1	16
340.385	1	26
340.556	1	8
340.727	1	13
340.898	1	32
341.069	1	15
341.240	1	13
341.411	1	14
341.582	1	17
341.753	1	4
341.924	1	20
342.095	1	16
342.266	1	22
342.437	1	13
342.608	1	14
342.779	1	19
342.950	1	12
343.121	1	22
343.292	1	5
343.463	1	19
343.634	1	20
343.805	1	21
343.976	1	25
344.147	1	24
344.318	1	14
344.489	1	17
344.660	1	25
344.831	1	14
345.002	1	14
345.173	1	21
345.344	1	15
345.515	1	26
345.686	1	17
345.857	1	25
346.028	1	20
346.199	1	9
346.370	1	20
346.541	1	18
346.712	1	15
346.883	1	16
347.054	1	16
347.225	1	23
347.396	1	29
347.567	1	23
347.738	1	11
347.909	1	34
348.080	1	22
348.251	1	30
348.422	1	29
348.593	1	28
348.764	1	27
348.935	1	14
349.106	1	27
349.277	1	20
349.448	1	32
349.619	1	28
349.790	1	22
349.961	1	30
350.132	1	26
350.303	1	30
350.474	1	27
350.645	1	31
350.816	1	27
350.987	1	20
351.157	1	25
351.328	1	28
351.499	1	33
351.670	1	23
351.841	1	33
352.012	1	47
352.183	1	36
352.354	1	32
352.525	1	40
352.696	1	29
352.867	1	23
353.038	1	38
353.209	1	35
353.380	1	31
353.551	1	25
353.722	1	27
353.893	1	31
354.064	1	41
354.235	1	25
354.406	1	35
354.576	1	40
354.747	1	24
354.918	1	46
355.089	1	35
355.260	1	28
355.431	1	37
355.602	1	26
355.773	1	27
355.944	1	37
356.115	1	26
356.286	1	24
356.457	1	37
356.628	1	35
356.799	1	30
356.970	1	39
357.141	1	27
357.311	1	21
357.482	1	38
357.653	1	28
357.824	1	44
357.995	1	33
358.166	1	27
358.337	1	35
358.508	1	43
358.679	1	36
358.850	1	34
359.021	1	35
359.192	1	36
359.363	1	33
359.533	1	39
359.704	1	41
359.875	1	42
360.046	1	31
360.217	1	20
360.388	1	36
360.559	1	25
360.730	1	27
360.901	1	38
361.072	1	35
361.243	1	49
361.414	1	37
361.584	1	26
361.755	1	57
361.926	1	23
362.097	1	35
362.268	1	36
362.439	1	24
362.610	1	46
362.781	1	32
362.952	1	34
363.123	1	30
363.293	1	37
363.464	1	41
363.635	1	44
363.806	1	37
363.977	1	41
364.148	1	35
364.319	1	42
364.490	1	41
364.661	1	38
364.832	1	42
365.002	1	35
365.173	1	43
365.344	1	47
365.515	1	31
365.686	1	36
365.857	1	40
366.028	1	53
366.199	1	46
366.370	1	37
366.540	1	39
366.711	1	20
366.882	1	35
367.053	1	27
367.224	1	36
367.395	1	40
367.566	1	47
367.737	1	42
367.908	1	32
368.078	1	44
368.249	1	52
368.420	1	32
368.591	1	25
368.762	1	44
368.933	1	37
369.104	1	29
369.274	1	35
369.445	1	35
369.616	1	42
369.787	1	37
369.958	1	52
370.129	1	36
370.300	1	61
370.471	1	34
370.641	1	47
370.812	1	43
370.983	1	50
371.154	1	34
371.325	1	46
371.496	1	37
371.667	1	44
371.837	1	28
372.008	1	42
372.179	1	40
372.350	1	64
372.521	1	42
372.692	1	36
372.863	1	41
373.033	1	20
373.204	1	33
373.375	1	36
373.546	1	52
373.717	1	44
373.888	1	57
374.059	1	47
374.229	1	47
374.400	1	41
374.571	1	37
374.742	1	52
374.913	1	41
375.084	1	49
375.254	1	54
375.425	1	54
375.596	1	42
375.767	1	47
375.938	1	43
376.109	1	51
376.279	1	41
376.450	1	48
376.621	1	58
376.792	1	39
376.963	1	43
377.134	1	45
377.304	1	47
377.475	1	38
377.646	1	48
377.817	1	41
377.988	1	38
378.159	1	52
378.329	1	52
378.500	1	40
378.671	1	52
378.842	1	41
379.013	1	44
379.184	1	47
379.354	1	47
379.525	1	37
379.696	1	54
379.867	1	48
380.038	1	46
380.209	1	51
380.379	1	42
380.550	1	37
380.721	1	57
380.892	1	47
381.063	1	53
381.233	1	55
381.404	1	46
381.575	1	52
381.746	1	54
381.917	1	45
382.087	1	45
382.258	1	42
382.429	1	52
382.600	1	63
382.771	1	46
382.941	1	46
383.112	1	57
383.283	1	51
383.454	1	44
383.625	1	43
383.795	1	43
383.966	1	45
384.137	1	58
384.308	1	56
384.479	1	49
384.649	1	62
384.820	1	44
384.991	1	54
385.162	1	53
385.333	1	48
385.503	1	44
385.674	1	47
385.845	1	53
386.016	1	61
386.187	1	51
386.357	1	53
386.528	1	57
386.699	1	51
386.870	1	69
387.041	1	55
387.211	1	60
387.382	1	54
387.553	1	58
387.724	1	53
387.894	1	60
388.065	1	58
388.236	1	56
388.407	1	56
388.578	1	53
388.748	1	50
388.919	1	53
389.090	1	60
389.261	1	45
389.431	1	70
389.602	1	60
389.773	1	50
389.944	1	54
390.114	1	59
390.285	1	53
390.456	1	43
390.627	1	56
390.798	1	48
390.968	1	43
391.139	1	59
391.310	1	55
391.481	1	60
391.651	1	67
391.822	1	46
391.993	1	54
392.164	1	39
392.334	1	53
392.505	1	54
392.676	1	59
392.847	1	58
393.017	1	67
393.188	1	60
393.359	1	46
393.530	1	55
393.700	1	55
393.871	1	43
394.042	1	52
394.213	1	51
394.383	1	66
394.554	1	60
394.725	1	62
394.896	1	57
395.066	1	60
395.237	1	48
395.408	1	57
395.579	1	54
395.749	1	57
395.920	1	63
396.091	1	59
396.262	1	55
396.432	1	63
396.603	1	67
396.774	1	77
396.945	1	60
397.115	1	54
397.286	1	54
397.457	1	47
397.627	1	67
397.798	1	62
397.969	1	48
398.140	1	51
398.310	1	53
398.481	1	69
398.652	1	61
398.823	1	47
398.993	1	62
399.164	1	61
399.335	1	65
399.505	1	72
399.676	1	60
399.847	1	63
400.018	1	55
400.188	1	59
400.359	1	64
400.530	1	55
400.700	1	57
400.871	1	61
401.042	1	54
401.213	1	65
401.383	1	61
401.554	1	65
401.725	1	67
401.895	1	53
402.066	1	62
402.237	1	72
402.408	1	71
402.578	1	56
402.749	1	72
402.920	1	60
403.090	1	55
403.261	1	62
403.432	1	58
403.603	1	61
403.773	1	68
403.944	1	73
404.115	1	68
404.285	1	68
404.456	1	62
404.627	1	60
404.797	1	56
404.968	1	66
405.139	1	51
405.310	1	70
405.480	1	64
405.651	1	55
405.822	1	55
405.992	1	65
406.163	1	55
406.334	1	45
406.504	1	62
406.675	1	75
406.846	1	70
407.016	1	66
407.187	1	67
407.358	1	56
407.528	1	62
407.699	1	58
407.870	1	62
408.041	1	63
408.211	1	81
408.382	1	61
408.553	1	58
408.723	1	74
408.894	1	65
409.065	1	54
409.235	1	57
409.406	1	58
409.577	1	63
409.747	1	64
409.918	1	56
410.089	1	66
410.259	1	71
410.430	1	58
410.601	1	64
410.771	1	73
410.942	1	83
411.113	1	72
411.283	1	50
411.454	1	70
411.625	1	72
411.795	1	68
411.966	1	70
412.137	1	59
412.307	1	58
412.478	1	64
412.649	1	65
412.819	1	55
412.990	1	67
413.161	1	61
413.331	1	52
413.502	1	68
413.672	1	60
413.843	1	63
414.014	1	56
414.184	1	59
414.355	1	65
414.526	1	71
414.696	1	73
414.867	1	65
415.038	1	48
415.208	1	66
415.379	1	80
415.550	1	67
415.720	1	60
415.891	1	60
416.062	1	64
416.232	1	60
416.403	1	56
416.573	1	69
416.744	1	57
416.915	1	69
417.085	1	56
417.256	1	55
417.427	1	63
417.597	1	57
417.768	1	57
417.939	1	65
418.109	1	68
418.280	1	67
418.450	1	62
418.621	1	57
418.792	1	70
418.962	1	71
419.133	1	70
419.304	1	62
419.474	1	68
419.645	1	67
419.815	1	57
419.986	1	61
420.157	1	60
420.327	1	69
420.498	1	64
420.669	1	62
420.839	1	73
421.010	1	59
421.180	1	73
421.351	1	67
421.522	1	66
421.692	1	64
421.863	1	60
422.033	1	72
422.204	1	65
422.375	1	56
422.545	1	68
422.716	1	58
422.886	1	54
423.057	1	66
423.228	1	56
423.398	1	54
423.569	1	46
423.740	1	58
423.910	1	54
424.081	1	70
424.251	1	52
424.422	1	59
424.593	1	58
424.763	1	66
424.934	1	54
425.104	1	56
425.275	1	48
425.445	1	58
425.616	1	62
425.787	1	58
425.957	1	58
426.128	1	63
426.298	1	68
426.469	1	49
426.640	1	63
426.810	1	62
426.981	1	55
427.151	1	50
427.322	1	65
427.493	1	55
427.663	1	58
427.834	1	47
428.004	1	56
428.175	1	60
428.345	1	50
428.516	1	48
428.687	1	54
428.857	1	50
429.028	1	54
429.198	1	56
429.369	1	62
429.540	1	66
429.710	1	60
429.881	1	69
430.051	1	56
430.222	1	48
430.392	1	54
430.563	1	56
430.734	1	70
430.904	1	52
431.075	1	63
431.245	1	60
431.416	1	57
431.586	1	55
431.757	1	63
431.927	1	63
432.098	1	63
432.269	1	46
432.439	1	54
432.610	1	68
432.780	1	63
432.951	1	51
433.121	1	57
433.292	1	64
433.462	1	68
433.633	1	53
433.804	1	51
433.974	1	62
434.145	1	69
434.315	1	52
434.486	1	55
434.656	1	57
434.827	1	55
434.997	1	46
435.168	1	58
435.339	1	59
435.509	1	51
435.680	1	53
435.850	1	41
436.021	1	57
436.191	1	47
436.362	1	50
436.532	1	49
436.703	1	53
436.873	1	56
437.044	1	45
437.214	1	52
437.385	1	50
437.556	1	44
437.726	1	59
437.897	1	50
438.067	1	53
438.238	1	52
438.408	1	70
438.579	1	55
438.749	1	39
438.920	1	44
439.090	1	56
439.261	1	44
439.431	1	53
439.602	1	54
439.772	1	52
439.943	1	59
440.113	1	59
440.284	1	57
440.455	1	49
440.625	1	57
440.796	1	59
440.966	1	39
441.137	1	56
441.307	1	53
441.478	1	56
441.648	1	49
441.819	1	55
441.989	1	44
442.160	1	57
442.330	1	49
442.501	1	54
442.671	1	49
442.842	1	42
443.012	1	44
443.183	1	54
443.353	1	37
443.524	1	53
443.694	1	55
443.865	1	42
444.035	1	59
444.206	1	50
444.376	1	47
444.547	1	55
444.717	1	37
444.888	1	46
445.058	1	59
445.229	1	51
445.399	1	44
445.570	1	51
445.740	1	44
445.911	1	45
446.081	1	43
446.252	1	60
446.422	1	49
446.593	1	45
446.763	1	52
446.934	1	49
447.104	1	49
447.275	1	43
447.445	1	45
447.616	1	50
447.786	1	45
447.957	1	35
448.127	1	52
448.298	1	57
448.468	1	48
448.639	1	42
448.809	1	43
448.979	1	39
449.150	1	52
449.320	1	50
449.491	1	62
449.661	1	42
449.832	1	46
450.002	1	48
450.173	1	48
450.343	1	47
450.514	1	43
450.684	1	43
450.855	1	53
451.025	1	39
451.196	1	49
451.366	1	46
451.537	1	44
451.707	1	39
451.878	1	37
452.048	1	50
452.218	1	51
452.389	1	47
452.559	1	49
452.730	1	48
452.900	1	43
453.071	1	37
453.241	1	45
453.412	1	36
453.582	1	51
453.753	1	42
453.923	1	50
454.093	1	40
454.264	1	50
454.434	1	39
454.605	1	38
454.775	1	52
454.946	1	38
455.116	1	47
455.287	1	42
455.457	1	34
455.628	1	40
455.798	1	46
455.968	1	50
456.139	1	39
456.309	1	38
456.480	1	33
456.650	1	36
456.821	1	27
456.991	1	48
457.161	1	33
457.332	1	44
457.502	1	34
457.673	1	44
457.843	1	42
458.014	1	37
458.184	1	40
458.355	1	31
458.525	1	46
458.695	1	34
458.866	1	40
459.036	1	38
459.207	1	38
459.377	1	34
459.548	1	48
459.718	1	33
459.888	1	44
460.059	1	39
460.229	1	48
460.400	1	44
460.570	1	43
460.740	1	42
460.911	1	41
461.081	1	39
461.252	1	35
461.422	1	33
461.593	1	35
461.763	1	36
461.933	1	46
462.104	1	30
462.274	1	49
462.445	1	34
462.615	1	33
462.785	1	37
462.956	1	40
463.126	1	41
463.297	1	40
463.467	1	42
463.638	1	42
463.808	1	29
463.978	1	29
464.149	1	32
464.319	1	35
464.490	1	64
464.660	1	28
464.830	1	28
465.001	1	42
465.171	1	40
465.342	1	34
465.512	1	28
465.682	1	36
465.853	1	29
466.023	1	43
466.194	1	33
466.364	1	41
466.534	1	28
466.705	1	36
466.875	1	29
467.045	1	30
467.216	1	49
467.386	1	35
467.557	1	35
467.727	1	33
467.897	1	26
468.068	1	31
468.238	1	36
468.409	1	20
468.579	1	38
468.749	1	37
468.920	1	27
469.090	1	43
469.260	1	29
469.431	1	28
469.601	1	30
469.772	1	37
469.942	1	36
470.112	1	28
470.283	1	36
470.453	1	23
470.623	1	18
470.794	1	23
470.964	1	36
471.135	1	30
471.305	1	19
471.475	1	33
471.646	1	20
471.816	1	21
471.986	1	30
472.157	1	38
472.327	1	27
472.497	1	34
472.668	1	13
472.838	1	35
473.009	1	35
473.179	1	15
473.349	1	24
473.520	1	40
473.690	1	30
473.860	1	36
474.031	1	27
474.201	1	33
474.371	1	42
474.542	1	27
474.712	1	29
474.882	1	38
475.053	1	30
475.223	1	18
475.394	1	39
475.564	1	28
475.734	1	36
475.905	1	40
476.075	1	27
476.245	1	32
476.416	1	44
476.586	1	25
476.756	1	24
476.927	1	37
477.097	1	25
477.267	1	20
477.438	1	36
477.608	1	25
477.778	1	34
477.949	1	37
478.119	1	36
478.289	1	37
478.460	1	32
478.630	1	24
478.800	1	34
478.971	1	22
479.141	1	25
479.311	1	30
479.482	1	28
479.652	1	20
479.822	1	33
479.993	1	24
480.163	1	32
480.333	1	41
480.504	1	30
480.674	1	18
480.844	1	17
481.015	1	24
481.185	1	21
481.355	1	27
481.525	1	33
481.696	1	29
481.866	1	26
482.036	1	26
482.207	1	9
482.377	1	23
482.547	1	35
482.718	1	21
482.888	1	27
483.058	1	16
483.229	1	17
483.399	1	15
483.569	1	32
483.740	1	18
483.910	1	26
484.080	1	18
484.250	1	38
484.421	1	17
484.591	1	24
484.761	1	33
484.932	1	29
485.102	1	29
485.272	1	27
485.443	1	28
485.613	1	20
485.783	1	19
485.953	1	24
486.124	1	23
486.294	1	24
486.464	1	22
486.635	1	26
486.805	1	21
486.975	1	16
487.146	1	25
487.316	1	20
487.486	1	19
487.656	1	17
487.827	1	15
487.997	1	8
488.167	1	13
488.338	1	26
488.508	1	23
488.678	1	22
488.848	1	39
489.019	1	18
489.189	1	22
489.359	1	26
489.529	1	23
489.700	1	18
489.870	1	22
490.040	1	11
490.211	1	13
490.381	1	23
490.551	1	31
490.721	1	19
490.892	1	21
491.062	1	23
491.232	1	18
491.402	1	14
491.573	1	7
491.743	1	23
491.913	1	17
492.084	1	22
492.254	1	18
492.424	1	18
492.594	1	17
492.765	1	26
492.935	1	12
493.105	1	18
493.275	1	25
493.446	1	23
493.616	1	24
493.786	1	10
493.956	1	17
494.127	1	25
494.297	1	15
494.467	1	25
494.637	1	20
494.808	1	14
494.978	1	10
495.148	1	12
495.318	1	17
495.489	1	26
495.659	1	22
495.829	1	18
495.999	1	11
496.170	1	26
496.340	1	21
496.510	1	21
496.680	1	6
496.851	1	14
497.021	1	14
497.191	1	7
497.361	1	17
497.532	1	10
497.702	1	16
497.872	1	21
498.042	1	26
498.213	1	12
498.383	1	22
498.553	1	11
498.723	1	25
498.894	1	12
499.064	1	22
499.234	1	21
499.404	1	16
499.574	1	25
499.745	1	26
499.915	1	14
500.085	1	27
500.255	1	19
500.426	1	15
500.596	1	20
500.766	1	15
500.936	1	17
501.106	1	16
501.277	1	24
501.447	1	20
501.617	1	14
501.787	1	11
501.958	1	8
502.128	1	14
502.298	1	15
502.468	1	17
502.638	1	19
502.809	1	21
502.979	1	2
503.149	1	10
503.319	1	9
503.489	1	14
503.660	1	19
503.830	1	13
504.000	1	22
504.170	1	18
504.340	1	5
504.511	1	20
504.681	1	3
504.851	1	14
505.021	1	15
505.192	1	8
505.362	1	16
505.532	1	16
505.702	1	14
505.872	1	20
506.043	1	9
506.213	1	13
506.383	1	8
506.553	1	19
506.723	1	11
506.893	1	16
507.064	1	17
507.234	1	11
507.404	1	12
507.574	1	11
507.744	1	13
507.915	1	12
508.085	1	24
508.255	1	10
508.425	1	12
508.595	1	18
508.766	1	18
508.936	1	4
509.106	1	9
509.276	1	20
509.446	1	9
509.616	1	9
509.787	1	13
509.957	1	17
510.127	1	8
510.297	1	16
510.467	1	10
510.638	1	7
510.808	1	6
510.978	1	4
511.148	1	9
511.318	1	1
511.488	1	10
511.659	1	16
511.829	1	5
511.999	1	15
512.169	1	16
512.339	1	10
512.509	1	7
512.680	1	15
512.850	1	15
513.020	1	8
513.190	1	4
513.360	1	14
513.530	1	10
513.700	1	16
513.871	1	11
514.041	1	14
514.211	1	18
514.381	1	12
514.551	1	7
514.721	1	7
514.892	1	12
515.062	1	16
515.232	1	15
515.402	1	12
515.572	1	2
515.742	1	6
515.912	1	10
516.083	1	14
516.253	1	17
516.423	1	5
516.593	1	22
516.763	1	21
516.933	1	21
517.104	1	22
517.274	1	11
517.444	1	7
517.614	1	9
517.784	1	10
517.954	1	14
518.124	1	20
518.294	1	3
518.465	1	3
518.635	1	5
518.805	1	0
518.975	1	22
519.145	1	9
519.315	1	14
519.485	1	11
519.656	1	6
519.826	1	10
519.996	1	3
520.166	1	10
520.336	1	16
520.506	1	4
520.676	1	7
520.846	1	17
521.017	1	11
521.187	1	6
521.357	1	12
521.527	1	3
521.697	1	12
521.867	1	11
522.037	1	15
522.207	1	10
522.377	1	11
522.548	1	13
522.718	1	15
522.888	1	18
523.058	1	11
523.228	1	15
523.398	1	16
523.568	1	14
523.738	1	15
523.909	1	14
524.079	1	11
524.249	1	6
524.419	1	15
524.589	1	11
524.759	1	4
524.929	1	-2
525.099	1	12
525.269	1	10
525.439	1	13
525.610	1	21
525.780	1	12
525.950	1	11
526.120	1	20
526.290	1	12
526.460	1	0
526.630	1	11
526.800	1	10
526.970	1	3
527.140	1	12
527.311	1	2
527.481	1	4
527.651	1	18
527.821	1	2
527.991	1	13
528.161	1	4
528.331	1	9
528.501	1	11
528.671	1	-8
528.841	1	16
529.011	1	2
529.181	1	10
529.352	1	10
529.522	1	5
529.692	1	22
529.862	1	13
530.032	1	11
530.202	1	12
530.372	1	10
530.542	1	6
530.712	1	5
530.882	1	16
531.052	1	10
531.222	1	12
531.392	1	12
531.563	1	15
531.733	1	8
531.903	1	7
532.073	1	11
532.243	1	17
532.413	1	1
532.583	1	4
532.753	1	12
532.923	1	3
533.093	1	12
533.263	1	11
533.433	1	7
533.603	1	6
533.773	1	13
533.943	1	0
534.113	1	2
534.284	1	10
534.454	1	10
534.624	1	21
534.794	1	5
534.964	1	12
535.134	1	7
535.304	1	10
535.474	1	12
535.644	1	3
535.814	1	-2
535.984	1	-2
536.154	1	2
536.324	1	8
536.494	1	16
536.664	1	3
536.834	1	14
537.004	1	7
537.174	1	13
537.344	1	2
537.514	1	-7
537.685	1	8
537.855	1	11
538.025	1	11
538.195	1	11
538.365	1	13
538.535	1	14
538.705	1	0
538.875	1	9
539.045	1	12
539.215	1	7
539.385	1	7
539.555	1	19
539.725	1	8
539.895	1	1
540.065	1	25
540.235	1	8
540.405	1	5
540.575	1	7
540.745	1	9
540.915	1	14
541.085	1	9
541.255	1	-9
541.425	1	10
541.595	1	10
541.765	1	13
541.935	1	4
542.105	1	-3
542.275	1	4
542.445	1	-1
542.615	1	8
542.785	1	12
542.955	1	17
543.125	1	7
543.295	1	16
543.465	1	10
543.635	1	8
543.805	1	8
543.975	1	4
544.145	1	10
544.315	1	5
544.485	1	18
544.655	1	4
544.825	1	-1
544.995	1	13
545.165	1	0
545.335	1	5
545.505	1	1
545.675	1	21
545.845	1	11
546.015	1	13
546.185	1	11
546.355	1	15
546.525	1	9
546.695	1	11
546.865	1	5
547.035	1	11
547.205	1	-2
547.375	1	2
547.545	1	12
547.715	1	-1
547.885	1	9
548.055	1	-3
548.225	1	11
548.395	1	11
548.565	1	7
548.735	1	-1
548.905	1	12
549.075	1	6
549.245	1	13
549.415	1	1
549.585	1	18
549.755	1	7
549.925	1	4
550.095	1	6
550.265	1	1
550.435	1	0
550.605	1	6
550.775	1	10
550.945	1	11
551.115	1	2
551.285	1	9
551.455	1	-4
551.625	1	12
551.795	1	6
551.965	1	5
552.135	1	0
552.305	1	5
552.475	1	-2
552.645	1	4
552.815	1	8
552.985	1	14
553.155	1	10
553.325	1	9
553.495	1	12
553.665	1	2
553.835	1	-4
554.004	1	15
554.174	1	6
554.344	1	16
554.514	1	6
554.684	1	4
554.854	1	7
555.024	1	-10
555.194	1	-5
555.364	1	5
555.534	1	4
555.704	1	9
555.874	1	15
556.044	1	3
556.214	1	-9
556.384	1	-1
556.554	1	18
556.724	1	3
556.894	1	11
557.064	1	6
557.234	1	7
557.404	1	5
557.573	1	2
557.743	1	1
557.913	1	5
558.083	1	0
558.253	1	13
558.423	1	3
558.593	1	9
558.763	1	-4
558.933	1	-1
559.103	1	12
559.273	1	12
559.443	1	8
559.613	1	12
559.783	1	1
559.953	1	7
560.122	1	11
560.292	1	3
560.462	1	0
560.632	1	11
560.802	1	3
560.972	1	15
561.142	1	9
561.312	1	5
561.482	1	15
561.652	1	6
561.822	1	-6
561.992	1	1
562.162	1	10
562.331	1	1
562.501	1	-6
562.671	1	4
562.841	1	1
563.011	1	7
563.181	1	16
563.351	1	2
563.521	1	13
563.691	1	1
563.861	1	5
564.031	1	10
564.201	1	18
564.370	1	1
564.540	1	9
564.710	1	0
564.880	1	10
565.050	1	15
565.220	1	0
565.390	1	7
565.560	1	10
565.730	1	1
565.900	1	-1
566.069	1	14
566.239	1	6
566.409	1	11
566.579	1	13
566.749	1	5
566.919	1	11
567.089	1	6
567.259	1	19
567.429	1	4
567.599	1	6
567.768	1	10
567.938	1	7
568.108	1	10
568.278	1	3
568.448	1	4
568.618	1	3
568.788	1	0
568.958	1	-2
569.128	1	16
569.297	1	4
569.467	1	6
569.637	1	-5
569.807	1	6
569.977	1	9
570.147	1	18
570.317	1	3
570.487	1	4
570.656	1	9
570.826	1	-2
570.996	1	-4
571.166	1	11
571.336	1	3
571.506	1	4
571.676	1	8
571.846	1	16
572.015	1	9
572.185	1	7
572.355	1	3
572.525	1	10
572.695	1	1
572.865	1	-3
573.035	1	6
573.205	1	10
573.374	1	-3
573.544	1	-1
573.714	1	16
573.884	1	17
574.054	1	5
574.224	1	1
574.394	1	9
574.563	1	7
574.733	1	-1
574.903	1	1
575.073	1	1
575.243	1	11
575.413	1	11
575.583	1	-8
575.752	1	5
575.922	1	1
576.092	1	-2
576.262	1	9
576.432	1	6
576.602	1	-1
576.772	1	19
576.941	1	8
577.111	1	2
577.281	1	-11
577.451	1	-2
577.621	1	12
577.791	1	8
577.960	1	-3
578.130	1	5
578.300	1	9
578.470	1	14
578.640	1	-1
578.810	1	5
578.979	1	12
579.149	1	5
579.319	1	-7
579.489	1	8
579.659	1	6
579.829	1	4
579.998	1	20
580.168	1	11
580.338	1	3
580.508	1	4
580.678	1	10
580.848	1	1
581.017	1	6
581.187	1	7
581.357	1	3
581.527	1	9
581.697	1	7
581.867	1	12
582.036	1	1
582.206	1	2
582.376	1	11
582.546	1	-3
582.716	1	1
582.885	1	5
583.055	1	10
583.225	1	-8
583.395	1	14
583.565	1	-7
583.735	1	7
583.904	1	3
584.074	1	10
584.244	1	-1
584.414	1	0
584.584	1	11
584.753	1	-9
584.923	1	6
585.093	1	2
585.263	1	10
585.433	1	4
585.602	1	8
585.772	1	0
585.942	1	3
586.112	1	5
586.282	1	4
586.451	1	-1
586.621	1	4
586.791	1	-2
586.961	1	-2
587.131	1	11
587.300	1	5
587.470	1	16
587.640	1	10
587.810	1	-3
587.980	1	3
588.149	1	8
588.319	1	4
588.489	1	-5
588.659	1	2
588.829	1	5
588.998	1	5
589.168	1	14
589.338	1	0
589.508	1	2
589.677	1	-3
589.847	1	4
590.017	1	25
590.187	1	-13
590.357	1	17
590.526	1	15
590.696	1	9
590.866	1	8
591.036	1	1
591.205	1	13
591.375	1	-6
591.545	1	0
591.715	1	10
591.885	1	-1
592.054	1	8
592.224	1	1
592.394	1	0
592.564	1	3
592.733	1	12
592.903	1	-1
593.073	1	2
593.243	1	3
593.412	1	8
593.582	1	6
593.752	1	-4
593.922	1	1
594.091	1	12
594.261	1	6
594.431	1	4
594.601	1	6
594.771	1	14
594.940	1	3
595.110	1	3
595.280	1	12
595.450	1	-1
595.619	1	5
595.789	1	5
595.959	1	5
596.129	1	-2
596.298	1	2
596.468	1	12
596.638	1	14
596.808	1	16
596.977	1	1
597.147	1	6
597.317	1	-5
597.487	1	9
597.656	1	6
597.826	1	2
597.996	1	2
598.166	1	4
598.335	1	5
598.505	1	3
598.675	1	7
598.844	1	10
599.014	1	4
599.184	1	9
599.354	1	-4
599.523	1	4
599.693	1	-8
599.863	1	8
600.033	1	6
600.202	1	1
600.372	1	9
600.542	1	12
600.712	1	4
600.881	1	-1
601.051	1	5
601.221	1	9
601.390	1	0
601.560	1	17
601.730	1	11
601.900	1	15
602.069	1	4
602.239	1	-2
602.409	1	-2
602.578	1	9
602.748	1	-1
602.918	1	11
603.088	1	2
603.257	1	5
603.427	1	1
603.597	1	0
603.767	1	13
603.936	1	1
604.106	1	7
604.276	1	4
604.445	1	8
604.615	1	2
604.785	1	-5
604.954	1	1
605.124	1	10
605.294	1	6
605.464	1	-3
605.633	1	2
605.803	1	6
605.973	1	3
606.142	1	8
606.312	1	2
606.482	1	10
606.652	1	4
606.821	1	-6
606.991	1	2
607.161	1	11
607.330	1	13
607.500	1	0
607.670	1	-1
607.839	1	12
608.009	1	14
608.179	1	6
608.348	1	7
608.518	1	0
608.688	1	9
608.858	1	12
609.027	1	0
609.197	1	10
609.367	1	20
609.536	1	4
609.706	1	-3
609.876	1	-6
610.045	1	6
610.215	1	12
610.385	1	1
610.554	1	3
610.724	1	14
610.894	1	0
611.063	1	7
611.233	1	4
611.403	1	6
611.572	1	1
611.742	1	13
611.912	1	3
612.081	1	8
612.251	1	13
612.421	1	7
612.590	1	6
612.760	1	6
612.930	1	-1
613.099	1	-1
613.269	1	13
613.439	1	7
613.608	1	0
613.778	1	14
613.948	1	2
614.117	1	8
614.287	1	6
614.457	1	14
614.626	1	6
614.796	1	10
614.966	1	-2
615.135	1	7
615.305	1	7
615.475	1	-2
615.644	1	4
615.814	1	5
615.984	1	8
616.153	1	-1
616.323	1	0
616.493	1	3
616.662	1	12
616.832	1	16
617.002	1	18
617.171	1	8
617.341	1	-2
617.511	1	-6
617.680	1	-1
617.850	1	4
618.019	1	15
618.189	1	25
618.359	1	7
618.528	1	12
618.698	1	7
618.868	1	-2
619.037	1	14
619.207	1	1
619.377	1	1
619.546	1	6
619.716	1	5
619.885	1	6
620.055	1	-6
620.225	1	15
620.394	1	4
620.564	1	9
620.734	1	9
620.903	1	1
621.073	1	13
621.242	1	1
621.412	1	-10
621.582	1	2
621.751	1	15
621.921	1	5
622.091	1	-3
622.260	1	6
622.430	1	13
622.599	1	6
622.769	1	8
622.939	1	7
623.108	1	5
623.278	1	3
623.448	1	9
623.617	1	0
623.787	1	-2
623.956	1	14
624.126	1	6
624.296	1	8
624.465	1	7
624.635	1	15
624.804	1	4
624.974	1	7
625.144	1	8
625.313	1	5
625.483	1	5
625.652	1	-3
625.822	1	7
625.992	1	8
626.161	1	6
626.331	1	2
626.501	1	5
626.670	1	9
626.840	1	-2
627.009	1	4
627.179	1	11
627.348	1	11
627.518	1	6
627.688	1	9
627.857	1	9
628.027	1	3
628.196	1	4
628.366	1	7
628.536	1	9
628.705	1	6
628.875	1	7
629.044	1	3
629.214	1	10
629.384	1	17
629.553	1	17
629.723	1	6
629.892	1	3
630.062	1	14
630.232	1	8
630.401	1	21
630.571	1	9
630.740	1	7
630.910	1	12
631.079	1	8
631.249	1	5
631.419	1	10
631.588	1	-2
631.758	1	16
631.927	1	-4
632.097	1	7
632.266	1	0
632.436	1	5
632.606	1	6
632.775	1	14
632.945	1	8
633.114	1	4
633.284	1	3
633.453	1	1
633.623	1	11
633.793	1	3
633.962	1	9
634.132	1	4
634.301	1	12
634.471	1	14
634.640	1	10
634.810	1	11
634.979	1	1
635.149	1	10
635.319	1	12
635.488	1	-6
635.658	1	5
635.827	1	7
635.997	1	7
636.166	1	11
636.336	1	0
636.505	1	20
636.675	1	11
636.845	1	11
637.014	1	8
637.184	1	14
637.353	1	6
637.523	1	9
637.692	1	15
637.862	1	8
638.031	1	16
638.201	1	13
638.370	1	11
638.540	1	10
638.710	1	6
638.879	1	-6
639.049	1	7
639.218	1	9
639.388	1	1
639.557	1	3
639.727	1	9
639.896	1	3
640.066	1	14
640.235	1	10
640.405	1	17
640.574	1	10
640.744	1	-3
640.914	1	7
641.083	1	1
641.253	1	9
641.422	1	11
641.592	1	16
641.761	1	4
641.931	1	1
642.100	1	26
642.270	1	8
642.439	1	12
642.609	1	9
642.778	1	3
642.948	1	4
643.117	1	10
643.287	1	7
643.456	1	3
643.626	1	18
643.795	1	7
643.965	1	20
644.134	1	6
644.304	1	8
644.473	1	12
644.643	1	15
644.812	1	8
644.982	1	8
645.151	1	6
645.321	1	6
645.490	1	24
645.660	1	-2
645.829	1	14
645.999	1	11
646.168	1	10
646.338	1	17
646.507	1	2
646.677	1	6
646.846	1	6
647.016	1	3
647.185	1	11
647.355	1	-12
647.524	1	14
647.694	1	21
647.863	1	13
648.033	1	10
648.202	1	5
648.372	1	0
648.541	1	2
648.711	1	8
648.880	1	8
649.050	1	4
649.219	1	15
649.389	1	10
649.558	1	0
649.728	1	17
649.897	1	0
650.067	1	19
650.236	1	8
650.406	1	11
650.575	1	12
650.745	1	10
650.914	1	10
651.084	1	0
651.253	1	23
651.423	1	9
651.592	1	5
651.762	1	3
651.931	1	12
652.101	1	8
652.270	1	9
652.440	1	11
652.609	1	14
652.778	1	6
652.948	1	2
653.117	1	9
653.287	1	3
653.456	1	9
653.626	1	10
653.795	1	11
653.965	1	11
654.134	1	13
654.304	1	-9
654.473	1	11
654.643	1	16
654.812	1	11
654.982	1	17
655.151	1	9
655.320	1	9
655.490	1	1
655.659	1	11
655.829	1	12
655.998	1	3
656.168	1	13
656.337	1	7
656.507	1	9
656.676	1	18
656.846	1	19
657.015	1	20
657.184	1	18
657.354	1	10
657.523	1	9
657.693	1	18
657.862	1	9
658.032	1	10
658.201	1	8
658.371	1	17
658.540	1	9
658.709	1	2
658.879	1	14
659.048	1	10
659.218	1	9
659.387	1	11
659.557	1	5
659.726	1	11
659.895	1	15
660.065	1	4
660.234	1	9
660.404	1	11
660.573	1	8
660.743	1	7
660.912	1	9
661.081	1	12
661.251	1	11
661.420	1	17
661.590	1	5
661.759	1	20
661.929	1	7
662.098	1	23
662.267	1	12
662.437	1	11
662.606	1	15
662.776	1	4
662.945	1	11
663.115	1	13
663.284	1	6
663.453	1	16
663.623	1	7
663.792	1	8
663.962	1	7
664.131	1	15
664.300	1	10
664.470	1	9
664.639	1	6
664.809	1	6
664.978	1	8
665.148	1	10
665.317	1	2
665.486	1	18
665.656	1	7
665.825	1	7
665.995	1	9
666.164	1	5
666.333	1	8
666.503	1	5
666.672	1	5
666.842	1	7
667.011	1	10
667.180	1	19
667.350	1	9
667.519	1	14
667.689	1	8
667.858	1	21
668.027	1	14
668.197	1	8
668.366	1	1
668.536	1	8
668.705	1	12
668.874	1	9
669.044	1	11
669.213	1	16
669.382	1	8
669.552	1	14
669.721	1	21
669.891	1	16
670.060	1	16
670.229	1	24
670.399	1	5
670.568	1	11
670.738	1	21
670.907	1	14
671.076	1	5
671.246	1	11
671.415	1	14
671.584	1	7
671.754	1	14
671.923	1	-3
672.093	1	14
672.262	1	2
672.431	1	11
672.601	1	7
672.770	1	0
672.939	1	10
673.109	1	8
673.278	1	18
673.448	1	15
673.617	1	7
673.786	1	19
