325.333	1	7
325.504	1	2
325.675	1	7
325.846	1	7
326.017	1	1
326.188	1	2
326.359	1	5
326.531	1	-5
326.702	1	-1
326.873	1	14
327.044	1	6
327.215	1	2
327.386	1	5
327.557	1	1
327.728	1	0
327.899	1	0
328.070	1	10
328.241	1	8
328.412	1	-9
328.583	1	3
328.754	1	0
328.926	1	13
329.097	1	-1
329.268	1	11
329.439	1	-4
329.610	1	3
329.781	1	-10
329.952	1	14
330.123	1	8
330.294	1	-2
330.465	1	1
330.636	1	13
330.807	1	-2
330.978	1	-2
331.149	1	0
331.320	1	2
331.492	1	-2
331.663	1	0
331.834	1	12
332.005	1	3
332.176	1	11
332.347	1	17
332.518	1	-1
332.689	1	8
332.860	1	7
333.031	1	6
333.202	1	1
333.373	1	6
333.544	1	9
333.715	1	10
333.886	1	1
334.057	1	9
334.228	1	-5
334.399	1	-4
334.570	1	8
334.741	1	-5
334.912	1	14
335.084	1	18
335.255	1	1
335.426	1	-2
335.597	1	2
335.768	1	10
335.939	1	1
336.110	1	6
336.281	1	3
336.452	1	5
336.623	1	2
336.794	1	5
336.965	1	3
337.136	1	5
337.307	1	5
337.478	1	-1
337.649	1	6
337.820	1	5
337.991	1	4
338.162	1	-1
338.333	1	3
338.504	1	-4
338.675	1	4
338.846	1	2
339.017	1	3
339.188	1	-3
339.359	1	-4
339.530	1	7
339.701	1	5
339.872	1	17
340.043	1	0
340.214	1	4
340.385	1	21
340.556	1	-5
340.727	1	2
340.898	1	14
341.069	1	19
341.240	1	2
341.411	1	5
341.582	1	11
341.753	1	-3
341.924	1	5
342.095	1	1
342.266	1	15
342.437	1	9
342.608	1	2
342.779	1	12
342.950	1	12
343.121	1	11
343.292	1	7
343.463	1	9
343.634	1	5
343.805	1	1
343.976	1	2
344.147	1	4
344.318	1	1
344.489	1	7
344.660	1	13
344.831	1	1
345.002	1	-1
345.173	1	9
345.344	1	5
345.515	1	0
345.686	1	3
345.857	1	6
346.028	1	9
346.199	1	-1
346.370	1	-3
346.541	1	17
346.712	1	4
346.883	1	15
347.054	1	7
347.225	1	4
347.396	1	12
347.567	1	1
347.738	1	-4
347.909	1	9
348.080	1	5
348.251	1	13
348.422	1	7
348.593	1	10
348.764	1	8
348.935	1	6
349.106	1	1
349.277	1	-3
349.448	1	14
349.619	1	8
349.790	1	7
349.961	1	9
350.132	1	14
350.303	1	9
350.474	1	14
350.645	1	13
350.816	1	14
350.987	1	9
351.157	1	1
351.328	1	18
351.499	1	5
351.670	1	-1
351.841	1	21
352.012	1	12
352.183	1	18
352.354	1	14
352.525	1	16
352.696	1	16
352.867	1	2
353.038	1	7
353.209	1	12
353.380	1	8
353.551	1	-1
353.722	1	0
353.893	1	-6
354.064	1	16
354.235	1	15
354.406	1	0
354.576	1	10
354.747	1	15
354.918	1	10
355.089	1	8
355.260	1	21
355.431	1	12
355.602	1	2
355.773	1	10
355.944	1	12
356.115	1	12
356.286	1	10
356.457	1	9
356.628	1	7
356.799	1	9
356.970	1	17
357.141	1	3
357.311	1	4
357.482	1	7
357.653	1	9
357.824	1	20
357.995	1	10
358.166	1	-3
358.337	1	3
358.508	1	11
358.679	1	9
358.850	1	13
359.021	1	5
359.192	1	6
359.363	1	1
359.533	1	5
359.704	1	14
359.875	1	6
360.046	1	9
360.217	1	-1
360.388	1	14
360.559	1	7
360.730	1	10
360.901	1	8
361.072	1	11
361.243	1	12
361.414	1	9
361.584	1	1
361.755	1	13
361.926	1	4
362.097	1	15
362.268	1	12
362.439	1	-1
362.610	1	12
362.781	1	7
362.952	1	7
363.123	1	10
363.293	1	0
363.464	1	19
363.635	1	12
363.806	1	5
363.977	1	1
364.148	1	10
364.319	1	12
364.490	1	7
364.661	1	10
364.832	1	9
365.002	1	7
365.173	1	15
365.344	1	22
365.515	1	0
365.686	1	3
365.857	1	19
366.028	1	19
366.199	1	2
366.370	1	15
366.540	1	-2
366.711	1	-4
366.882	1	-5
367.053	1	6
367.224	1	13
367.395	1	16
367.566	1	13
367.737	1	17
367.908	1	11
368.078	1	21
368.249	1	12
368.420	1	1
368.591	1	2
368.762	1	11
368.933	1	3
369.104	1	-1
369.274	1	9
369.445	1	7
369.616	1	4
369.787	1	16
369.958	1	12
370.129	1	6
370.300	1	17
370.471	1	7
370.641	1	3
370.812	1	14
370.983	1	-1
371.154	1	7
371.325	1	13
371.496	1	11
371.667	1	11
371.837	1	8
372.008	1	4
372.179	1	-1
372.350	1	20
372.521	1	11
372.692	1	7
372.863	1	16
373.033	1	5
373.204	1	10
373.375	1	18
373.546	1	9
373.717	1	17
373.888	1	13
374.059	1	10
374.229	1	27
374.400	1	11
374.571	1	9
374.742	1	16
374.913	1	14
375.084	1	5
375.254	1	10
375.425	1	19
375.596	1	12
375.767	1	9
375.938	1	13
376.109	1	13
376.279	1	12
376.450	1	13
376.621	1	18
376.792	1	4
376.963	1	11
377.134	1	15
377.304	1	13
377.475	1	14
377.646	1	7
377.817	1	6
377.988	1	7
378.159	1	15
378.329	1	19
378.500	1	9
378.671	1	11
378.842	1	6
379.013	1	0
379.184	1	4
379.354	1	10
379.525	1	4
379.696	1	26
379.867	1	19
380.038	1	5
380.209	1	12
380.379	1	16
380.550	1	0
380.721	1	15
380.892	1	8
381.063	1	12
381.233	1	15
381.404	1	15
381.575	1	11
381.746	1	9
381.917	1	12
382.087	1	19
382.258	1	9
382.429	1	6
382.600	1	22
382.771	1	17
382.941	1	6
383.112	1	8
383.283	1	17
383.454	1	20
383.625	1	3
383.795	1	15
383.966	1	15
384.137	1	11
384.308	1	25
384.479	1	19
384.649	1	15
384.820	1	19
384.991	1	7
385.162	1	12
385.333	1	12
385.503	1	2
385.674	1	1
385.845	1	26
386.016	1	15
386.187	1	14
386.357	1	21
386.528	1	23
386.699	1	8
386.870	1	18
387.041	1	16
387.211	1	11
387.382	1	12
387.553	1	24
387.724	1	5
387.894	1	20
388.065	1	12
388.236	1	20
388.407	1	16
388.578	1	8
388.748	1	6
388.919	1	13
389.090	1	4
389.261	1	9
389.431	1	18
389.602	1	15
389.773	1	16
389.944	1	20
390.114	1	22
390.285	1	26
390.456	1	9
390.627	1	13
390.798	1	11
390.968	1	18
391.139	1	6
391.310	1	3
391.481	1	32
391.651	1	22
391.822	1	1
391.993	1	13
392.164	1	14
392.334	1	16
392.505	1	9
392.676	1	18
392.847	1	17
393.017	1	14
393.188	1	14
393.359	1	7
393.530	1	11
393.700	1	13
393.871	1	5
394.042	1	15
394.213	1	21
394.383	1	13
394.554	1	18
394.725	1	15
394.896	1	6
395.066	1	17
395.237	1	11
395.408	1	16
395.579	1	12
395.749	1	16
395.920	1	17
396.091	1	14
396.262	1	22
396.432	1	15
396.603	1	17
396.774	1	23
396.945	1	17
397.115	1	9
397.286	1	15
397.457	1	13
397.627	1	15
397.798	1	9
397.969	1	20
398.140	1	16
398.310	1	13
398.481	1	13
398.652	1	14
398.823	1	12
398.993	1	11
399.164	1	20
399.335	1	23
399.505	1	17
399.676	1	8
399.847	1	17
400.018	1	15
400.188	1	19
400.359	1	23
400.530	1	15
400.700	1	16
400.871	1	9
401.042	1	12
401.213	1	10
401.383	1	14
401.554	1	21
401.725	1	25
401.895	1	15
402.066	1	24
402.237	1	23
402.408	1	17
402.578	1	18
402.749	1	14
402.920	1	14
403.090	1	12
403.261	1	16
403.432	1	10
403.603	1	19
403.773	1	24
403.944	1	30
404.115	1	28
404.285	1	24
404.456	1	14
404.627	1	13
404.797	1	10
404.968	1	13
405.139	1	14
405.310	1	26
405.480	1	14
405.651	1	9
405.822	1	20
405.992	1	5
406.163	1	13
406.334	1	3
406.504	1	13
406.675	1	18
406.846	1	14
407.016	1	24
407.187	1	27
407.358	1	18
407.528	1	7
407.699	1	10
407.870	1	6
408.041	1	14
408.211	1	21
408.382	1	6
408.553	1	5
408.723	1	19
408.894	1	19
409.065	1	19
409.235	1	19
409.406	1	11
409.577	1	10
409.747	1	26
409.918	1	9
410.089	1	13
410.259	1	21
410.430	1	14
410.601	1	15
410.771	1	13
410.942	1	30
411.113	1	20
411.283	1	9
411.454	1	13
411.625	1	17
411.795	1	25
411.966	1	22
412.137	1	18
412.307	1	9
412.478	1	10
412.649	1	13
412.819	1	14
412.990	1	14
413.161	1	7
413.331	1	8
413.502	1	25
413.672	1	19
413.843	1	16
414.014	1	25
414.184	1	25
414.355	1	27
414.526	1	14
414.696	1	20
414.867	1	22
415.038	1	4
415.208	1	17
415.379	1	15
415.550	1	35
415.720	1	11
415.891	1	14
416.062	1	24
416.232	1	21
416.403	1	20
416.573	1	21
416.744	1	17
416.915	1	23
417.085	1	18
417.256	1	19
417.427	1	17
417.597	1	13
417.768	1	10
417.939	1	18
418.109	1	15
418.280	1	29
418.450	1	12
418.621	1	-3
418.792	1	15
418.962	1	20
419.133	1	22
419.304	1	15
419.474	1	19
419.645	1	12
419.815	1	17
419.986	1	16
420.157	1	8
420.327	1	16
420.498	1	17
420.669	1	19
420.839	1	13
421.010	1	20
421.180	1	17
421.351	1	15
421.522	1	25
421.692	1	19
421.863	1	13
422.033	1	20
422.204	1	12
422.375	1	7
422.545	1	20
422.716	1	10
422.886	1	12
423.057	1	21
423.228	1	19
423.398	1	20
423.569	1	10
423.740	1	-1
423.910	1	-4
424.081	1	8
424.251	1	9
424.422	1	15
424.593	1	16
424.763	1	18
424.934	1	20
425.104	1	15
425.275	1	20
425.445	1	9
425.616	1	14
425.787	1	17
425.957	1	21
426.128	1	21
426.298	1	20
426.469	1	14
426.640	1	15
426.810	1	22
426.981	1	15
427.151	1	8
427.322	1	22
427.493	1	14
427.663	1	23
427.834	1	9
428.004	1	19
428.175	1	16
428.345	1	12
428.516	1	15
428.687	1	14
428.857	1	8
429.028	1	10
429.198	1	6
429.369	1	20
429.540	1	8
429.710	1	6
429.881	1	9
430.051	1	17
430.222	1	15
430.392	1	11
430.563	1	24
430.734	1	27
430.904	1	19
431.075	1	15
431.245	1	2
431.416	1	19
431.586	1	14
431.757	1	15
431.927	1	14
432.098	1	18
432.269	1	-1
432.439	1	17
432.610	1	20
432.780	1	28
432.951	1	10
433.121	1	13
433.292	1	33
433.462	1	16
433.633	1	15
433.804	1	9
433.974	1	12
434.145	1	22
434.315	1	8
434.486	1	18
434.656	1	14
434.827	1	10
434.997	1	1
435.168	1	27
435.339	1	17
435.509	1	9
435.680	1	20
435.850	1	16
436.021	1	14
436.191	1	19
436.362	1	5
436.532	1	18
436.703	1	14
436.873	1	15
437.044	1	2
437.214	1	15
437.385	1	5
437.556	1	12
437.726	1	24
437.897	1	13
438.067	1	19
438.238	1	7
438.408	1	27
438.579	1	9
438.749	1	12
438.920	1	10
439.090	1	19
439.261	1	7
439.431	1	12
439.602	1	11
439.772	1	9
439.943	1	23
440.113	1	17
440.284	1	16
440.455	1	12
440.625	1	21
440.796	1	14
440.966	1	8
441.137	1	20
441.307	1	7
441.478	1	18
441.648	1	11
441.819	1	16
441.989	1	18
442.160	1	15
442.330	1	15
442.501	1	11
442.671	1	4
442.842	1	-7
443.012	1	9
443.183	1	12
443.353	1	12
443.524	1	9
443.694	1	16
443.865	1	10
444.035	1	20
444.206	1	7
444.376	1	3
444.547	1	25
444.717	1	24
444.888	1	6
445.058	1	23
445.229	1	20
445.399	1	10
445.570	1	16
445.740	1	2
445.911	1	16
446.081	1	5
446.252	1	21
446.422	1	8
446.593	1	8
446.763	1	12
446.934	1	2
447.104	1	17
447.275	1	12
447.445	1	14
447.616	1	17
447.786	1	8
447.957	1	21
448.127	1	12
448.298	1	18
448.468	1	15
448.639	1	7
448.809	1	9
448.979	1	6
449.150	1	15
449.320	1	14
449.491	1	20
449.661	1	3
449.832	1	7
450.002	1	20
450.173	1	6
450.343	1	14
450.514	1	11
450.684	1	13
450.855	1	1
451.025	1	14
451.196	1	20
451.366	1	16
451.537	1	5
451.707	1	3
451.878	1	15
452.048	1	10
452.218	1	13
452.389	1	11
452.559	1	12
452.730	1	22
452.900	1	19
453.071	1	5
453.241	1	18
453.412	1	11
453.582	1	9
453.753	1	12
453.923	1	6
454.093	1	13
454.264	1	16
454.434	1	5
454.605	1	14
454.775	1	21
454.946	1	11
455.116	1	7
455.287	1	3
455.457	1	4
455.628	1	12
455.798	1	16
455.968	1	15
456.139	1	5
456.309	1	14
456.480	1	7
456.650	1	8
456.821	1	4
456.991	1	10
457.161	1	9
457.332	1	17
457.502	1	2
457.673	1	26
457.843	1	18
458.014	1	11
458.184	1	14
458.355	1	10
458.525	1	18
458.695	1	17
458.866	1	16
459.036	1	16
459.207	1	16
459.377	1	8
459.548	1	12
459.718	1	11
459.888	1	12
460.059	1	10
460.229	1	20
460.400	1	21
460.570	1	8
460.740	1	11
460.911	1	11
461.081	1	6
461.252	1	9
461.422	1	2
461.593	1	4
461.763	1	7
461.933	1	23
462.104	1	3
462.274	1	3
462.445	1	9
462.615	1	13
462.785	1	10
462.956	1	12
463.126	1	15
463.297	1	4
463.467	1	14
463.638	1	12
463.808	1	6
463.978	1	-1
464.149	1	4
464.319	1	8
464.490	1	15
464.660	1	5
464.830	1	1
465.001	1	12
465.171	1	17
465.342	1	16
465.512	1	2
465.682	1	14
465.853	1	12
466.023	1	13
466.194	1	11
466.364	1	10
466.534	1	7
466.705	1	15
466.875	1	10
467.045	1	1
467.216	1	24
467.386	1	0
467.557	1	13
467.727	1	4
467.897	1	3
468.068	1	6
468.238	1	8
468.409	1	2
468.579	1	16
468.749	1	11
468.920	1	-3
469.090	1	10
469.260	1	5
469.431	1	-3
469.601	1	18
469.772	1	10
469.942	1	4
470.112	1	15
470.283	1	12
470.453	1	4
470.623	1	11
470.794	1	-4
470.964	1	15
471.135	1	10
471.305	1	5
471.475	1	11
471.646	1	3
471.816	1	-2
471.986	1	14
472.157	1	18
472.327	1	1
472.497	1	13
472.668	1	-7
472.838	1	11
473.009	1	3
473.179	1	2
473.349	1	2
473.520	1	12
473.690	1	16
473.860	1	8
474.031	1	9
474.201	1	12
474.371	1	10
474.542	1	15
474.712	1	11
474.882	1	15
475.053	1	28
475.223	1	3
475.394	1	-2
475.564	1	13
475.734	1	13
475.905	1	23
476.075	1	-1
476.245	1	15
476.416	1	9
476.586	1	21
476.756	1	6
476.927	1	16
477.097	1	14
477.267	1	2
477.438	1	4
477.608	1	7
477.778	1	6
477.949	1	3
478.119	1	21
478.289	1	11
478.460	1	22
478.630	1	9
478.800	1	10
478.971	1	11
479.141	1	11
479.311	1	-3
479.482	1	9
479.652	1	3
479.822	1	4
479.993	1	3
480.163	1	7
480.333	1	6
480.504	1	13
480.674	1	11
480.844	1	-2
481.015	1	6
481.185	1	3
481.355	1	7
481.525	1	-1
481.696	1	5
481.866	1	4
482.036	1	3
482.207	1	2
482.377	1	6
482.547	1	10
482.718	1	1
482.888	1	15
483.058	1	0
483.229	1	4
483.399	1	-3
483.569	1	1
483.740	1	3
483.910	1	14
484.080	1	5
484.250	1	10
484.421	1	7
484.591	1	19
484.761	1	20
484.932	1	17
485.102	1	13
485.272	1	19
485.443	1	11
485.613	1	2
485.783	1	3
485.953	1	11
486.124	1	10
486.294	1	7
486.464	1	10
486.635	1	13
486.805	1	12
486.975	1	10
487.146	1	9
487.316	1	10
487.486	1	10
487.656	1	3
487.827	1	2
487.997	1	0
488.167	1	4
488.338	1	13
488.508	1	-1
488.678	1	6
488.848	1	18
489.019	1	-2
489.189	1	13
489.359	1	1
489.529	1	2
489.700	1	-1
489.870	1	25
490.040	1	0
490.211	1	-2
490.381	1	7
490.551	1	9
490.721	1	9
490.892	1	12
491.062	1	11
491.232	1	10
491.402	1	-1
491.573	1	2
491.743	1	14
491.913	1	2
492.084	1	2
492.254	1	14
492.424	1	4
492.594	1	-4
492.765	1	-4
492.935	1	5
493.105	1	5
493.275	1	6
493.446	1	20
493.616	1	8
493.786	1	8
493.956	1	16
494.127	1	12
494.297	1	0
494.467	1	4
494.637	1	3
494.808	1	8
494.978	1	5
495.148	1	11
495.318	1	1
495.489	1	12
495.659	1	9
495.829	1	8
495.999	1	6
496.170	1	4
496.340	1	7
496.510	1	8
496.680	1	6
496.851	1	10
497.021	1	-1
497.191	1	-4
497.361	1	-1
497.532	1	2
497.702	1	0
497.872	1	7
498.042	1	1
498.213	1	9
498.383	1	3
498.553	1	-4
498.723	1	2
498.894	1	15
499.064	1	2
499.234	1	7
499.404	1	7
499.574	1	5
499.745	1	21
499.915	1	2
500.085	1	13
500.255	1	19
500.426	1	5
500.596	1	17
500.766	1	-1
500.936	1	2
501.106	1	-4
501.277	1	3
501.447	1	3
501.617	1	10
501.787	1	7
501.958	1	2
502.128	1	-3
502.298	1	13
502.468	1	-3
502.638	1	6
502.809	1	-4
502.979	1	-5
503.149	1	1
503.319	1	-4
503.489	1	7
503.660	1	18
503.830	1	6
504.000	1	14
504.170	1	8
504.340	1	3
504.511	1	18
504.681	1	-2
504.851	1	11
505.021	1	4
505.192	1	0
505.362	1	11
505.532	1	7
505.702	1	0
505.872	1	8
506.043	1	1
506.213	1	3
506.383	1	14
506.553	1	10
506.723	1	10
506.893	1	5
507.064	1	10
507.234	1	-7
507.404	1	-3
507.574	1	2
507.744	1	-3
507.915	1	2
508.085	1	13
508.255	1	9
508.425	1	1
508.595	1	12
508.766	1	8
508.936	1	-11
509.106	1	5
509.276	1	11
509.446	1	1
509.616	1	7
509.787	1	11
509.957	1	11
510.127	1	5
510.297	1	2
510.467	1	-7
510.638	1	3
510.808	1	-7
510.978	1	-1
511.148	1	4
511.318	1	1
511.488	1	-5
511.659	1	14
511.829	1	-1
511.999	1	4
512.169	1	-4
512.339	1	7
512.509	1	-3
512.680	1	-7
512.850	1	1
513.020	1	12
513.190	1	11
513.360	1	0
513.530	1	-2
513.700	1	11
513.871	1	4
514.041	1	2
514.211	1	7
514.381	1	6
514.551	1	7
514.721	1	-1
514.892	1	5
515.062	1	12
515.232	1	7
515.402	1	-8
515.572	1	-6
515.742	1	-4
515.912	1	8
516.083	1	-3
516.253	1	6
516.423	1	-1
516.593	1	3
516.763	1	14
516.933	1	0
517.104	1	0
517.274	1	5
517.444	1	5
517.614	1	-10
517.784	1	5
517.954	1	10
518.124	1	6
518.294	1	-1
518.465	1	4
518.635	1	-1
518.805	1	-9
518.975	1	5
519.145	1	2
519.315	1	0
519.485	1	-1
519.656	1	19
519.826	1	4
519.996	1	0
520.166	1	4
520.336	1	11
520.506	1	-5
520.676	1	-8
520.846	1	14
521.017	1	6
521.187	1	2
521.357	1	14
521.527	1	4
521.697	1	11
521.867	1	0
522.037	1	13
522.207	1	8
522.377	1	6
522.548	1	-4
522.718	1	12
522.888	1	13
523.058	1	4
523.228	1	5
523.398	1	7
523.568	1	1
523.738	1	4
523.909	1	10
524.079	1	10
524.249	1	6
524.419	1	6
524.589	1	-3
524.759	1	-7
524.929	1	2
525.099	1	12
525.269	1	12
525.439	1	2
525.610	1	14
525.780	1	0
525.950	1	8
526.120	1	2
526.290	1	3
526.460	1	-2
526.630	1	-3
526.800	1	-1
526.970	1	-2
527.140	1	3
527.311	1	1
527.481	1	3
527.651	1	10
527.821	1	-6
527.991	1	9
528.161	1	7
528.331	1	-2
528.501	1	1
528.671	1	1
528.841	1	5
529.011	1	1
529.181	1	10
529.352	1	10
529.522	1	-1
529.692	1	1
529.862	1	6
530.032	1	9
530.202	1	0
530.372	1	-1
530.542	1	7
530.712	1	11
530.882	1	10
531.052	1	14
531.222	1	4
531.392	1	-4
531.563	1	5
531.733	1	6
531.903	1	5
532.073	1	7
532.243	1	-3
532.413	1	8
532.583	1	4
532.753	1	6
532.923	1	-10
533.093	1	14
533.263	1	6
533.433	1	-3
533.603	1	8
533.773	1	4
533.943	1	3
534.113	1	3
534.284	1	-3
534.454	1	6
534.624	1	5
534.794	1	-7
534.964	1	5
535.134	1	-7
535.304	1	6
535.474	1	13
535.644	1	-3
535.814	1	4
535.984	1	-4
536.154	1	1
536.324	1	-1
536.494	1	10
536.664	1	6
536.834	1	1
537.004	1	-3
537.174	1	17
537.344	1	3
537.514	1	-3
537.685	1	-2
537.855	1	1
538.025	1	4
538.195	1	5
538.365	1	10
538.535	1	0
538.705	1	-5
538.875	1	1
539.045	1	1
539.215	1	-2
539.385	1	9
539.555	1	10
539.725	1	-5
539.895	1	-5
540.065	1	15
540.235	1	5
540.405	1	3
540.575	1	-2
540.745	1	7
540.915	1	18
541.085	1	9
541.255	1	-4
541.425	1	3
541.595	1	4
541.765	1	5
541.935	1	5
542.105	1	-3
542.275	1	3
542.445	1	-12
542.615	1	0
542.785	1	4
542.955	1	-8
543.125	1	2
543.295	1	15
543.465	1	4
543.635	1	-1
543.805	1	8
543.975	1	2
544.145	1	13
544.315	1	2
544.485	1	9
544.655	1	3
544.825	1	-8
544.995	1	0
545.165	1	-5
545.335	1	2
545.505	1	-2
545.675	1	0
545.845	1	10
546.015	1	2
546.185	1	4
546.355	1	5
546.525	1	-5
546.695	1	2
546.865	1	1
547.035	1	7
547.205	1	-7
547.375	1	8
547.545	1	9
547.715	1	5
547.885	1	1
548.055	1	-1
548.225	1	7
548.395	1	1
548.565	1	3
548.735	1	7
548.905	1	-4
549.075	1	6
549.245	1	1
549.415	1	-2
549.585	1	7
549.755	1	2
549.925	1	-1
550.095	1	-3
550.265	1	7
550.435	1	-5
550.605	1	-9
550.775	1	5
550.945	1	7
551.115	1	-1
551.285	1	2
551.455	1	-6
551.625	1	12
551.795	1	-3
551.965	1	-4
552.135	1	-3
552.305	1	-1
552.475	1	-3
552.645	1	0
552.815	1	0
552.985	1	7
553.155	1	1
553.325	1	2
553.495	1	-2
553.665	1	-2
553.835	1	3
554.004	1	-3
554.174	1	-7
554.344	1	8
554.514	1	-2
554.684	1	5
554.854	1	3
555.024	1	-7
555.194	1	-6
555.364	1	6
555.534	1	2
555.704	1	-5
555.874	1	4
556.044	1	-4
556.214	1	-6
556.384	1	-4
556.554	1	14
556.724	1	6
556.894	1	0
557.064	1	7
557.234	1	-2
557.404	1	5
557.573	1	2
557.743	1	-7
557.913	1	-2
558.083	1	1
558.253	1	7
558.423	1	-2
558.593	1	11
558.763	1	-2
558.933	1	4
559.103	1	13
559.273	1	1
559.443	1	0
559.613	1	9
559.783	1	7
559.953	1	7
560.122	1	18
560.292	1	1
560.462	1	-3
560.632	1	5
560.802	1	0
560.972	1	9
561.142	1	2
561.312	1	1
561.482	1	13
561.652	1	14
561.822	1	-3
561.992	1	-1
562.162	1	0
562.331	1	-3
562.501	1	-9
562.671	1	-1
562.841	1	-7
563.011	1	14
563.181	1	-2
563.351	1	-2
563.521	1	2
563.691	1	-1
563.861	1	-5
564.031	1	8
564.201	1	11
564.370	1	-5
564.540	1	-2
564.710	1	0
564.880	1	11
565.050	1	6
565.220	1	-3
565.390	1	6
565.560	1	7
565.730	1	1
565.900	1	-1
566.069	1	12
566.239	1	8
566.409	1	8
566.579	1	7
566.749	1	7
566.919	1	4
567.089	1	8
567.259	1	10
567.429	1	7
567.599	1	-1
567.768	1	8
567.938	1	-4
568.108	1	1
568.278	1	4
568.448	1	-3
568.618	1	-2
568.788	1	6
568.958	1	-3
569.128	1	4
569.297	1	-4
569.467	1	6
569.637	1	4
569.807	1	4
569.977	1	2
570.147	1	1
570.317	1	-3
570.487	1	6
570.656	1	4
570.826	1	6
570.996	1	-7
571.166	1	3
571.336	1	-8
571.506	1	8
571.676	1	1
571.846	1	-1
572.015	1	-4
572.185	1	-8
572.355	1	4
572.525	1	0
572.695	1	-4
572.865	1	3
573.035	1	11
573.205	1	-5
573.374	1	-4
573.544	1	-6
573.714	1	11
573.884	1	10
574.054	1	0
574.224	1	1
574.394	1	-4
574.563	1	-2
574.733	1	8
574.903	1	4
575.073	1	-5
575.243	1	-9
575.413	1	6
575.583	1	-8
575.752	1	5
575.922	1	4
576.092	1	7
576.262	1	3
576.432	1	-3
576.602	1	-8
576.772	1	22
576.941	1	6
577.111	1	0
577.281	1	-11
577.451	1	-3
577.621	1	4
577.791	1	10
577.960	1	-6
578.130	1	10
578.300	1	1
578.470	1	15
578.640	1	4
578.810	1	5
578.979	1	4
579.149	1	-1
579.319	1	-6
579.489	1	2
579.659	1	-5
579.829	1	2
579.998	1	8
580.168	1	7
580.338	1	4
580.508	1	5
580.678	1	2
580.848	1	-4
581.017	1	-5
581.187	1	1
581.357	1	2
581.527	1	3
581.697	1	15
581.867	1	5
582.036	1	6
582.206	1	9
582.376	1	6
582.546	1	-7
582.716	1	-4
582.885	1	0
583.055	1	-1
583.225	1	-8
583.395	1	6
583.565	1	-10
583.735	1	3
583.904	1	1
584.074	1	4
584.244	1	-1
584.414	1	2
584.584	1	13
584.753	1	-9
584.923	1	-3
585.093	1	1
585.263	1	-6
585.433	1	3
585.602	1	-8
585.772	1	2
585.942	1	-4
586.112	1	-2
586.282	1	0
586.451	1	0
586.621	1	-7
586.791	1	-3
586.961	1	3
587.131	1	8
587.300	1	-6
587.470	1	9
587.640	1	14
587.810	1	1
587.980	1	0
588.149	1	-6
588.319	1	-4
588.489	1	-2
588.659	1	-10
588.829	1	-3
588.998	1	15
589.168	1	7
589.338	1	-4
589.508	1	7
589.677	1	-3
589.847	1	-6
590.017	1	22
590.187	1	-8
590.357	1	9
590.526	1	7
590.696	1	14
590.866	1	1
591.036	1	-1
591.205	1	13
591.375	1	-8
591.545	1	-5
591.715	1	13
591.885	1	-9
592.054	1	8
592.224	1	1
592.394	1	3
592.564	1	9
592.733	1	5
592.903	1	-5
593.073	1	5
593.243	1	3
593.412	1	1
593.582	1	-7
593.752	1	9
593.922	1	-8
594.091	1	5
594.261	1	-1
594.431	1	2
594.601	1	10
594.771	1	0
594.940	1	5
595.110	1	4
595.280	1	-5
595.450	1	3
595.619	1	4
595.789	1	3
595.959	1	7
596.129	1	-3
596.298	1	5
596.468	1	4
596.638	1	6
596.808	1	-2
596.977	1	9
597.147	1	1
597.317	1	-6
597.487	1	10
597.656	1	7
597.826	1	5
597.996	1	5
598.166	1	3
598.335	1	-9
598.505	1	6
598.675	1	-5
598.844	1	3
599.014	1	8
599.184	1	4
599.354	1	-1
599.523	1	9
599.693	1	1
599.863	1	9
600.033	1	-2
600.202	1	5
600.372	1	5
600.542	1	10
600.712	1	-9
600.881	1	-6
601.051	1	4
601.221	1	1
601.390	1	0
601.560	1	4
601.730	1	3
601.900	1	9
602.069	1	10
602.239	1	4
602.409	1	-4
602.578	1	-2
602.748	1	2
602.918	1	7
603.088	1	-1
603.257	1	6
603.427	1	-6
603.597	1	2
603.767	1	5
603.936	1	6
604.106	1	4
604.276	1	2
604.445	1	5
604.615	1	-3
604.785	1	0
604.954	1	0
605.124	1	3
605.294	1	6
605.464	1	-7
605.633	1	6
605.803	1	4
605.973	1	2
606.142	1	2
606.312	1	12
606.482	1	2
606.652	1	13
606.821	1	-6
606.991	1	4
607.161	1	-2
607.330	1	8
607.500	1	1
607.670	1	-1
607.839	1	5
608.009	1	15
608.179	1	-3
608.348	1	8
608.518	1	-3
608.688	1	11
608.858	1	-4
609.027	1	-8
609.197	1	3
609.367	1	14
609.536	1	6
609.706	1	-1
609.876	1	-1
610.045	1	1
610.215	1	9
610.385	1	8
610.554	1	0
610.724	1	3
610.894	1	3
611.063	1	4
611.233	1	4
611.403	1	-6
611.572	1	-7
611.742	1	0
611.912	1	-2
612.081	1	-12
612.251	1	-2
612.421	1	4
612.590	1	7
612.760	1	4
612.930	1	1
613.099	1	5
613.269	1	3
613.439	1	1
613.608	1	-1
613.778	1	4
613.948	1	6
614.117	1	5
614.287	1	14
614.457	1	6
614.626	1	-8
614.796	1	8
614.966	1	-1
615.135	1	-7
615.305	1	12
615.475	1	5
615.644	1	1
615.814	1	5
615.984	1	4
616.153	1	-2
616.323	1	4
616.493	1	2
616.662	1	10
616.832	1	-3
617.002	1	4
617.171	1	2
617.341	1	-8
617.511	1	-2
617.680	1	-2
617.850	1	1
618.019	1	20
618.189	1	16
618.359	1	2
618.528	1	6
618.698	1	4
618.868	1	1
619.037	1	-2
619.207	1	-2
619.377	1	-5
619.546	1	2
619.716	1	-1
619.885	1	-1
620.055	1	-13
620.225	1	0
620.394	1	-2
620.564	1	13
620.734	1	15
620.903	1	-4
621.073	1	11
621.242	1	10
621.412	1	-4
621.582	1	9
621.751	1	0
621.921	1	0
622.091	1	-8
622.260	1	-4
622.430	1	9
622.599	1	0
622.769	1	-1
622.939	1	6
623.108	1	0
623.278	1	-4
623.448	1	-4
623.617	1	-7
623.787	1	3
623.956	1	2
624.126	1	3
624.296	1	-4
624.465	1	6
624.635	1	15
624.804	1	11
624.974	1	-3
625.144	1	3
625.313	1	-3
625.483	1	-10
625.652	1	-8
625.822	1	-3
625.992	1	1
626.161	1	10
626.331	1	2
626.501	1	2
626.670	1	7
626.840	1	-1
627.009	1	-1
627.179	1	12
627.348	1	9
627.518	1	8
627.688	1	10
627.857	1	8
628.027	1	-1
628.196	1	9
628.366	1	14
628.536	1	7
628.705	1	-2
628.875	1	-1
629.044	1	7
629.214	1	1
629.384	1	4
629.553	1	13
629.723	1	12
629.892	1	4
630.062	1	7
630.232	1	-4
630.401	1	10
630.571	1	4
630.740	1	10
630.910	1	4
631.079	1	4
631.249	1	2
631.419	1	4
631.588	1	-9
631.758	1	-3
631.927	1	-3
632.097	1	8
632.266	1	3
632.436	1	12
632.606	1	-1
632.775	1	11
632.945	1	3
633.114	1	6
633.284	1	2
633.453	1	1
633.623	1	-5
633.793	1	5
633.962	1	9
634.132	1	2
634.301	1	5
634.471	1	9
634.640	1	3
634.810	1	8
634.979	1	8
635.149	1	6
635.319	1	5
635.488	1	3
635.658	1	-2
635.827	1	-4
635.997	1	4
636.166	1	1
636.336	1	-10
636.505	1	13
636.675	1	9
636.845	1	10
637.014	1	8
637.184	1	8
637.353	1	6
637.523	1	11
637.692	1	1
637.862	1	3
638.031	1	4
638.201	1	3
638.370	1	-1
638.540	1	12
638.710	1	3
638.879	1	-10
639.049	1	4
639.218	1	-2
639.388	1	5
639.557	1	-2
639.727	1	0
639.896	1	0
640.066	1	-6
640.235	1	11
640.405	1	11
640.574	1	-5
640.744	1	-8
640.914	1	-1
641.083	1	-3
641.253	1	5
641.422	1	3
641.592	1	13
641.761	1	-3
641.931	1	1
642.100	1	18
642.270	1	-6
642.439	1	2
642.609	1	6
642.778	1	0
642.948	1	0
643.117	1	5
643.287	1	8
643.456	1	3
643.626	1	13
643.795	1	1
643.965	1	7
644.134	1	-7
644.304	1	3
644.473	1	-1
644.643	1	5
644.812	1	9
644.982	1	-4
645.151	1	-2
645.321	1	-6
645.490	1	14
645.660	1	-6
645.829	1	1
645.999	1	2
646.168	1	8
646.338	1	8
646.507	1	7
646.677	1	9
646.846	1	-3
647.016	1	-9
647.185	1	7
647.355	1	-13
647.524	1	14
647.694	1	6
647.863	1	7
648.033	1	5
648.202	1	18
648.372	1	-2
648.541	1	8
648.711	1	2
648.880	1	-1
649.050	1	-7
649.219	1	9
649.389	1	11
649.558	1	9
649.728	1	12
649.897	1	1
650.067	1	4
650.236	1	7
650.406	1	6
650.575	1	7
650.745	1	5
650.914	1	-7
651.084	1	4
651.253	1	4
651.423	1	3
651.592	1	-8
651.762	1	-4
651.931	1	16
652.101	1	15
652.270	1	1
652.440	1	9
652.609	1	0
652.778	1	-1
652.948	1	1
653.117	1	3
653.287	1	2
653.456	1	6
653.626	1	9
653.795	1	1
653.965	1	8
654.134	1	2
654.304	1	-11
654.473	1	11
654.643	1	1
654.812	1	5
654.982	1	11
655.151	1	-3
655.320	1	1
655.490	1	-3
655.659	1	13
655.829	1	-6
655.998	1	-2
656.168	1	2
656.337	1	3
656.507	1	10
656.676	1	10
656.846	1	13
657.015	1	11
657.184	1	8
657.354	1	4
657.523	1	7
657.693	1	7
657.862	1	4
658.032	1	-4
658.201	1	7
658.371	1	7
658.540	1	6
658.709	1	6
658.879	1	13
659.048	1	-1
659.218	1	2
659.387	1	5
659.557	1	1
659.726	1	15
659.895	1	-4
660.065	1	-5
660.234	1	-4
660.404	1	13
660.573	1	-2
660.743	1	-4
660.912	1	-4
661.081	1	12
661.251	1	3
661.420	1	4
661.590	1	6
661.759	1	3
661.929	1	13
662.098	1	9
662.267	1	-4
662.437	1	4
662.606	1	2
662.776	1	-5
662.945	1	5
663.115	1	9
663.284	1	-7
663.453	1	3
663.623	1	5
663.792	1	15
663.962	1	5
664.131	1	9
664.300	1	9
664.470	1	1
664.639	1	10
664.809	1	7
664.978	1	2
665.148	1	0
665.317	1	4
665.486	1	3
665.656	1	10
665.825	1	12
665.995	1	-1
666.164	1	-6
666.333	1	0
666.503	1	-2
666.672	1	-9
666.842	1	0
667.011	1	9
667.180	1	9
667.350	1	3
667.519	1	-1
667.689	1	0
667.858	1	10
668.027	1	10
668.197	1	1
668.366	1	-9
668.536	1	0
668.705	1	6
668.874	1	7
669.044	1	6
669.213	1	2
669.382	1	-16
669.552	1	11
669.721	1	5
669.891	1	12
670.060	1	5
670.229	1	13
670.399	1	-6
670.568	1	14
670.738	1	12
670.907	1	-8
671.076	1	-2
671.246	1	-4
671.415	1	7
671.584	1	3
671.754	1	4
671.923	1	7
672.093	1	2
672.262	1	3
672.431	1	10
672.601	1	4
672.770	1	-4
672.939	1	12
673.109	1	-3
673.278	1	11
673.448	1	13
673.617	1	-3
673.786	1	7
