325.333	1	7
325.504	1	9
325.675	1	2
325.846	1	1
326.017	1	-6
326.188	1	-2
326.359	1	-1
326.531	1	-17
326.702	1	1
326.873	1	12
327.044	1	-8
327.215	1	-1
327.386	1	9
327.557	1	-5
327.728	1	7
327.899	1	-4
328.070	1	7
328.241	1	5
328.412	1	-8
328.583	1	18
328.754	1	6
328.926	1	14
329.097	1	-10
329.268	1	14
329.439	1	-6
329.610	1	12
329.781	1	-7
329.952	1	7
330.123	1	8
330.294	1	-2
330.465	1	7
330.636	1	15
330.807	1	-5
330.978	1	-8
331.149	1	0
331.320	1	0
331.492	1	3
331.663	1	3
331.834	1	11
332.005	1	6
332.176	1	21
332.347	1	5
332.518	1	-5
332.689	1	10
332.860	1	1
333.031	1	7
333.202	1	-3
333.373	1	2
333.544	1	9
333.715	1	7
333.886	1	-2
334.057	1	9
334.228	1	8
334.399	1	3
334.570	1	7
334.741	1	2
334.912	1	15
335.084	1	16
335.255	1	6
335.426	1	6
335.597	1	5
335.768	1	-2
335.939	1	9
336.110	1	2
336.281	1	-5
336.452	1	3
336.623	1	8
336.794	1	11
336.965	1	-1
337.136	1	12
337.307	1	8
337.478	1	12
337.649	1	7
337.820	1	4
337.991	1	3
338.162	1	8
338.333	1	-1
338.504	1	8
338.675	1	9
338.846	1	6
339.017	1	3
339.188	1	7
339.359	1	3
339.530	1	11
339.701	1	13
339.872	1	17
340.043	1	-1
340.214	1	3
340.385	1	18
340.556	1	-4
340.727	1	5
340.898	1	9
341.069	1	16
341.240	1	8
341.411	1	9
341.582	1	14
341.753	1	-2
341.924	1	4
342.095	1	13
342.266	1	15
342.437	1	12
342.608	1	-5
342.779	1	19
342.950	1	11
343.121	1	13
343.292	1	-4
343.463	1	9
343.634	1	14
343.805	1	14
343.976	1	12
344.147	1	8
344.318	1	6
344.489	1	8
344.660	1	14
344.831	1	10
345.002	1	3
345.173	1	13
345.344	1	8
345.515	1	8
345.686	1	-2
345.857	1	10
346.028	1	0
346.199	1	5
346.370	1	2
346.541	1	7
346.712	1	2
346.883	1	10
347.054	1	5
347.225	1	5
347.396	1	9
347.567	1	5
347.738	1	-3
347.909	1	22
348.080	1	-4
348.251	1	10
348.422	1	11
348.593	1	9
348.764	1	9
348.935	1	10
349.106	1	11
349.277	1	6
349.448	1	20
349.619	1	10
349.790	1	3
349.961	1	16
350.132	1	13
350.303	1	12
350.474	1	8
350.645	1	12
350.816	1	14
350.987	1	21
351.157	1	4
351.328	1	18
351.499	1	7
351.670	1	2
351.841	1	15
352.012	1	15
352.183	1	18
352.354	1	11
352.525	1	14
352.696	1	17
352.867	1	11
353.038	1	23
353.209	1	15
353.380	1	1
353.551	1	-2
353.722	1	14
353.893	1	11
354.064	1	25
354.235	1	4
354.406	1	17
354.576	1	12
354.747	1	16
354.918	1	11
355.089	1	9
355.260	1	8
355.431	1	22
355.602	1	11
355.773	1	13
355.944	1	12
356.115	1	16
356.286	1	14
356.457	1	12
356.628	1	17
356.799	1	13
356.970	1	13
357.141	1	9
357.311	1	3
357.482	1	9
357.653	1	11
357.824	1	15
357.995	1	23
358.166	1	4
358.337	1	13
358.508	1	14
358.679	1	19
358.850	1	21
359.021	1	11
359.192	1	19
359.363	1	8
359.533	1	19
359.704	1	13
359.875	1	12
360.046	1	17
360.217	1	6
360.388	1	5
360.559	1	2
360.730	1	17
360.901	1	17
361.072	1	26
361.243	1	13
361.414	1	17
361.584	1	16
361.755	1	21
361.926	1	10
362.097	1	7
362.268	1	12
362.439	1	11
362.610	1	26
362.781	1	8
362.952	1	2
363.123	1	13
363.293	1	16
363.464	1	22
363.635	1	21
363.806	1	11
363.977	1	14
364.148	1	15
364.319	1	20
364.490	1	16
364.661	1	20
364.832	1	21
365.002	1	17
365.173	1	16
365.344	1	22
365.515	1	26
365.686	1	12
365.857	1	18
366.028	1	18
366.199	1	18
366.370	1	17
366.540	1	11
366.711	1	1
366.882	1	10
367.053	1	16
367.224	1	36
367.395	1	19
367.566	1	15
367.737	1	19
367.908	1	12
368.078	1	22
368.249	1	22
368.420	1	12
368.591	1	13
368.762	1	16
368.933	1	18
369.104	1	1
369.274	1	18
369.445	1	9
369.616	1	14
369.787	1	18
369.958	1	20
370.129	1	10
370.300	1	21
370.471	1	10
370.641	1	13
370.812	1	17
370.983	1	16
371.154	1	6
371.325	1	29
371.496	1	13
371.667	1	27
371.837	1	8
372.008	1	6
372.179	1	5
372.350	1	26
372.521	1	14
372.692	1	12
372.863	1	19
373.033	1	10
373.204	1	3
373.375	1	17
373.546	1	18
373.717	1	19
373.888	1	18
374.059	1	21
374.229	1	20
374.400	1	10
374.571	1	19
374.742	1	17
374.913	1	16
375.084	1	13
375.254	1	26
375.425	1	20
375.596	1	16
375.767	1	11
375.938	1	13
376.109	1	21
376.279	1	15
376.450	1	14
376.621	1	23
376.792	1	14
376.963	1	11
377.134	1	25
377.304	1	20
377.475	1	17
377.646	1	20
377.817	1	9
377.988	1	15
378.159	1	13
378.329	1	23
378.500	1	5
378.671	1	19
378.842	1	22
379.013	1	12
379.184	1	19
379.354	1	27
379.525	1	11
379.696	1	23
379.867	1	24
380.038	1	26
380.209	1	19
380.379	1	18
380.550	1	10
380.721	1	25
380.892	1	14
381.063	1	22
381.233	1	17
381.404	1	7
381.575	1	26
381.746	1	20
381.917	1	18
382.087	1	22
382.258	1	14
382.429	1	24
382.600	1	25
382.771	1	16
382.941	1	22
383.112	1	24
383.283	1	16
383.454	1	22
383.625	1	12
383.795	1	23
383.966	1	15
384.137	1	22
384.308	1	18
384.479	1	24
384.649	1	26
384.820	1	25
384.991	1	14
385.162	1	21
385.333	1	8
385.503	1	16
385.674	1	17
385.845	1	35
386.016	1	17
386.187	1	24
386.357	1	22
386.528	1	17
386.699	1	15
386.870	1	32
387.041	1	22
387.211	1	19
387.382	1	27
387.553	1	27
387.724	1	15
387.894	1	34
388.065	1	23
388.236	1	36
388.407	1	21
388.578	1	16
388.748	1	23
388.919	1	22
389.090	1	12
389.261	1	18
389.431	1	26
389.602	1	25
389.773	1	25
389.944	1	26
390.114	1	27
390.285	1	28
390.456	1	16
390.627	1	19
390.798	1	18
390.968	1	27
391.139	1	31
391.310	1	13
391.481	1	27
391.651	1	24
391.822	1	24
391.993	1	20
392.164	1	14
392.334	1	25
392.505	1	7
392.676	1	27
392.847	1	29
393.017	1	27
393.188	1	13
393.359	1	13
393.530	1	21
393.700	1	22
393.871	1	14
394.042	1	8
394.213	1	27
394.383	1	20
394.554	1	21
394.725	1	33
394.896	1	21
395.066	1	26
395.237	1	19
395.408	1	17
395.579	1	12
395.749	1	20
395.920	1	14
396.091	1	26
396.262	1	25
396.432	1	18
396.603	1	35
396.774	1	39
396.945	1	31
397.115	1	16
397.286	1	30
397.457	1	30
397.627	1	26
397.798	1	30
397.969	1	26
398.140	1	12
398.310	1	22
398.481	1	37
398.652	1	24
398.823	1	23
398.993	1	21
399.164	1	19
399.335	1	21
399.505	1	21
399.676	1	27
399.847	1	31
400.018	1	18
400.188	1	15
400.359	1	31
400.530	1	12
400.700	1	26
400.871	1	20
401.042	1	21
401.213	1	25
401.383	1	20
401.554	1	31
401.725	1	30
401.895	1	23
402.066	1	22
402.237	1	27
402.408	1	30
402.578	1	22
402.749	1	34
402.920	1	28
403.090	1	14
403.261	1	28
403.432	1	21
403.603	1	42
403.773	1	26
403.944	1	35
404.115	1	30
404.285	1	18
404.456	1	25
404.627	1	24
404.797	1	8
404.968	1	9
405.139	1	15
405.310	1	41
405.480	1	26
405.651	1	21
405.822	1	31
405.992	1	12
406.163	1	19
406.334	1	18
406.504	1	26
406.675	1	29
406.846	1	23
407.016	1	27
407.187	1	26
407.358	1	20
407.528	1	19
407.699	1	22
407.870	1	22
408.041	1	20
408.211	1	38
408.382	1	13
408.553	1	10
408.723	1	21
408.894	1	28
409.065	1	20
409.235	1	22
409.406	1	37
409.577	1	21
409.747	1	39
409.918	1	32
410.089	1	25
410.259	1	28
410.430	1	24
410.601	1	30
410.771	1	27
410.942	1	34
411.113	1	35
411.283	1	21
411.454	1	26
411.625	1	16
411.795	1	27
411.966	1	29
412.137	1	25
412.307	1	17
412.478	1	20
412.649	1	26
412.819	1	20
412.990	1	23
413.161	1	25
413.331	1	16
413.502	1	28
413.672	1	23
413.843	1	22
414.014	1	26
414.184	1	31
414.355	1	21
414.526	1	21
414.696	1	30
414.867	1	25
415.038	1	15
415.208	1	33
415.379	1	30
415.550	1	35
415.720	1	28
415.891	1	18
416.062	1	28
416.232	1	30
416.403	1	29
416.573	1	24
416.744	1	17
416.915	1	22
417.085	1	23
417.256	1	24
417.427	1	28
417.597	1	23
417.768	1	20
417.939	1	23
418.109	1	26
418.280	1	31
418.450	1	16
418.621	1	14
418.792	1	24
418.962	1	29
419.133	1	34
419.304	1	11
419.474	1	17
419.645	1	11
419.815	1	33
419.986	1	25
420.157	1	26
420.327	1	28
420.498	1	29
420.669	1	22
420.839	1	21
421.010	1	20
421.180	1	28
421.351	1	31
421.522	1	25
421.692	1	20
421.863	1	36
422.033	1	28
422.204	1	18
422.375	1	28
422.545	1	26
422.716	1	22
422.886	1	24
423.057	1	23
423.228	1	23
423.398	1	23
423.569	1	28
423.740	1	28
423.910	1	23
424.081	1	16
424.251	1	23
424.422	1	28
424.593	1	23
424.763	1	26
424.934	1	18
425.104	1	23
425.275	1	32
425.445	1	22
425.616	1	12
425.787	1	30
425.957	1	25
426.128	1	34
426.298	1	25
426.469	1	15
426.640	1	28
426.810	1	24
426.981	1	19
427.151	1	19
427.322	1	32
427.493	1	29
427.663	1	26
427.834	1	22
428.004	1	14
428.175	1	29
428.345	1	17
428.516	1	24
428.687	1	21
428.857	1	18
429.028	1	9
429.198	1	25
429.369	1	20
429.540	1	21
429.710	1	20
429.881	1	22
430.051	1	28
430.222	1	23
430.392	1	26
430.563	1	25
430.734	1	31
430.904	1	26
431.075	1	31
431.245	1	14
431.416	1	30
431.586	1	19
431.757	1	23
431.927	1	20
432.098	1	24
432.269	1	15
432.439	1	16
432.610	1	21
432.780	1	24
432.951	1	15
433.121	1	23
433.292	1	22
433.462	1	25
433.633	1	18
433.804	1	20
433.974	1	19
434.145	1	28
434.315	1	20
434.486	1	19
434.656	1	30
434.827	1	11
434.997	1	18
435.168	1	28
435.339	1	34
435.509	1	25
435.680	1	18
435.850	1	23
436.021	1	15
436.191	1	18
436.362	1	30
436.532	1	23
436.703	1	17
436.873	1	16
437.044	1	15
437.214	1	15
437.385	1	20
437.556	1	20
437.726	1	36
437.897	1	30
438.067	1	21
438.238	1	23
438.408	1	22
438.579	1	28
438.749	1	21
438.920	1	12
439.090	1	25
439.261	1	17
439.431	1	11
439.602	1	22
439.772	1	16
439.943	1	30
440.113	1	24
440.284	1	16
440.455	1	19
440.625	1	22
440.796	1	16
440.966	1	17
441.137	1	19
441.307	1	15
441.478	1	32
441.648	1	27
441.819	1	27
441.989	1	24
442.160	1	26
442.330	1	14
442.501	1	25
442.671	1	12
442.842	1	10
443.012	1	20
443.183	1	36
443.353	1	5
443.524	1	14
443.694	1	28
443.865	1	16
444.035	1	17
444.206	1	11
444.376	1	15
444.547	1	35
444.717	1	17
444.888	1	18
445.058	1	25
445.229	1	25
445.399	1	17
445.570	1	16
445.740	1	7
445.911	1	15
446.081	1	14
446.252	1	29
446.422	1	21
446.593	1	7
446.763	1	19
446.934	1	16
447.104	1	12
447.275	1	20
447.445	1	20
447.616	1	22
447.786	1	15
447.957	1	26
448.127	1	9
448.298	1	23
448.468	1	15
448.639	1	14
448.809	1	14
448.979	1	15
449.150	1	21
449.320	1	17
449.491	1	31
449.661	1	19
449.832	1	21
450.002	1	18
450.173	1	11
450.343	1	29
450.514	1	10
450.684	1	14
450.855	1	16
451.025	1	11
451.196	1	16
451.366	1	10
451.537	1	15
451.707	1	8
451.878	1	17
452.048	1	31
452.218	1	22
452.389	1	24
452.559	1	17
452.730	1	15
452.900	1	19
453.071	1	8
453.241	1	15
453.412	1	18
453.582	1	7
453.753	1	18
453.923	1	24
454.093	1	25
454.264	1	35
454.434	1	18
454.605	1	20
454.775	1	16
454.946	1	19
455.116	1	18
455.287	1	6
455.457	1	15
455.628	1	5
455.798	1	19
455.968	1	18
456.139	1	20
456.309	1	17
456.480	1	6
456.650	1	10
456.821	1	7
456.991	1	16
457.161	1	18
457.332	1	17
457.502	1	12
457.673	1	19
457.843	1	13
458.014	1	20
458.184	1	15
458.355	1	7
458.525	1	14
458.695	1	19
458.866	1	9
459.036	1	18
459.207	1	11
459.377	1	21
459.548	1	24
459.718	1	14
459.888	1	13
460.059	1	16
460.229	1	19
460.400	1	20
460.570	1	23
460.740	1	2
460.911	1	24
461.081	1	12
461.252	1	16
461.422	1	12
461.593	1	12
461.763	1	14
461.933	1	11
462.104	1	9
462.274	1	16
462.445	1	23
462.615	1	18
462.785	1	22
462.956	1	19
463.126	1	19
463.297	1	10
463.467	1	11
463.638	1	14
463.808	1	4
463.978	1	13
464.149	1	9
464.319	1	12
464.490	1	22
464.660	1	8
464.830	1	3
465.001	1	12
465.171	1	12
465.342	1	24
465.512	1	2
465.682	1	11
465.853	1	9
466.023	1	22
466.194	1	10
466.364	1	26
466.534	1	15
466.705	1	12
466.875	1	7
467.045	1	12
467.216	1	17
467.386	1	6
467.557	1	20
467.727	1	13
467.897	1	7
468.068	1	21
468.238	1	16
468.409	1	19
468.579	1	16
468.749	1	10
468.920	1	5
469.090	1	15
469.260	1	10
469.431	1	8
469.601	1	20
469.772	1	11
469.942	1	6
470.112	1	21
470.283	1	11
470.453	1	16
470.623	1	10
470.794	1	3
470.964	1	21
471.135	1	5
471.305	1	5
471.475	1	11
471.646	1	13
471.816	1	3
471.986	1	14
472.157	1	18
472.327	1	1
472.497	1	16
472.668	1	9
472.838	1	22
473.009	1	10
473.179	1	14
473.349	1	5
473.520	1	24
473.690	1	14
473.860	1	8
474.031	1	16
474.201	1	10
474.371	1	11
474.542	1	18
474.712	1	8
474.882	1	17
475.053	1	25
475.223	1	17
475.394	1	8
475.564	1	8
475.734	1	12
475.905	1	16
476.075	1	9
476.245	1	12
476.416	1	27
476.586	1	20
476.756	1	12
476.927	1	11
477.097	1	14
477.267	1	-1
477.438	1	17
477.608	1	6
477.778	1	9
477.949	1	16
478.119	1	17
478.289	1	22
478.460	1	22
478.630	1	16
478.800	1	16
478.971	1	13
479.141	1	21
479.311	1	-2
479.482	1	14
479.652	1	8
479.822	1	10
479.993	1	17
480.163	1	14
480.333	1	20
480.504	1	16
480.674	1	6
480.844	1	6
481.015	1	10
481.185	1	12
481.355	1	17
481.525	1	16
481.696	1	19
481.866	1	7
482.036	1	12
482.207	1	5
482.377	1	14
482.547	1	9
482.718	1	5
482.888	1	12
483.058	1	13
483.229	1	6
483.399	1	10
483.569	1	8
483.740	1	10
483.910	1	2
484.080	1	7
484.250	1	20
484.421	1	19
484.591	1	7
484.761	1	12
484.932	1	16
485.102	1	21
485.272	1	22
485.443	1	19
485.613	1	10
485.783	1	7
485.953	1	6
486.124	1	12
486.294	1	11
486.464	1	8
486.635	1	14
486.805	1	11
486.975	1	2
487.146	1	6
487.316	1	10
487.486	1	12
487.656	1	4
487.827	1	8
487.997	1	-3
488.167	1	7
488.338	1	17
488.508	1	8
488.678	1	9
488.848	1	23
489.019	1	6
489.189	1	6
489.359	1	9
489.529	1	5
489.700	1	7
489.870	1	16
490.040	1	5
490.211	1	4
490.381	1	18
490.551	1	17
490.721	1	16
490.892	1	8
491.062	1	10
491.232	1	9
491.402	1	-5
491.573	1	-6
491.743	1	9
491.913	1	6
492.084	1	8
492.254	1	-1
492.424	1	10
492.594	1	10
492.765	1	13
492.935	1	13
493.105	1	6
493.275	1	14
493.446	1	23
493.616	1	12
493.786	1	7
493.956	1	5
494.127	1	7
494.297	1	6
494.467	1	12
494.637	1	15
494.808	1	-2
494.978	1	2
495.148	1	10
495.318	1	9
495.489	1	13
495.659	1	12
495.829	1	8
495.999	1	7
496.170	1	10
496.340	1	11
496.510	1	15
496.680	1	4
496.851	1	7
497.021	1	5
497.191	1	5
497.361	1	3
497.532	1	-1
497.702	1	0
497.872	1	0
498.042	1	8
498.213	1	6
498.383	1	12
498.553	1	-3
498.723	1	11
498.894	1	13
499.064	1	3
499.234	1	13
499.404	1	10
499.574	1	15
499.745	1	10
499.915	1	8
500.085	1	11
500.255	1	13
500.426	1	8
500.596	1	6
500.766	1	8
500.936	1	14
501.106	1	-6
501.277	1	10
501.447	1	2
501.617	1	10
501.787	1	3
501.958	1	4
502.128	1	4
502.298	1	5
502.468	1	7
502.638	1	10
502.809	1	10
502.979	1	3
503.149	1	10
503.319	1	3
503.489	1	2
503.660	1	13
503.830	1	4
504.000	1	9
504.170	1	6
504.340	1	6
504.511	1	13
504.681	1	13
504.851	1	8
505.021	1	7
505.192	1	0
505.362	1	15
505.532	1	6
505.702	1	0
505.872	1	6
506.043	1	13
506.213	1	6
506.383	1	4
506.553	1	9
506.723	1	6
506.893	1	1
507.064	1	17
507.234	1	2
507.404	1	5
507.574	1	4
507.744	1	8
507.915	1	0
508.085	1	15
508.255	1	3
508.425	1	8
508.595	1	10
508.766	1	10
508.936	1	-8
509.106	1	17
509.276	1	8
509.446	1	-3
509.616	1	3
509.787	1	2
509.957	1	9
510.127	1	8
510.297	1	9
510.467	1	-3
510.638	1	10
510.808	1	-11
510.978	1	-4
511.148	1	9
511.318	1	3
511.488	1	-4
511.659	1	14
511.829	1	4
511.999	1	3
512.169	1	2
512.339	1	4
512.509	1	6
512.680	1	12
512.850	1	15
513.020	1	13
513.190	1	6
513.360	1	5
513.530	1	6
513.700	1	9
513.871	1	-3
514.041	1	11
514.211	1	10
514.381	1	16
514.551	1	9
514.721	1	8
514.892	1	6
515.062	1	5
515.232	1	4
515.402	1	-8
515.572	1	-2
515.742	1	9
515.912	1	26
516.083	1	7
516.253	1	15
516.423	1	-5
516.593	1	9
516.763	1	4
516.933	1	-5
517.104	1	2
517.274	1	-4
517.444	1	10
517.614	1	-5
517.784	1	7
517.954	1	4
518.124	1	8
518.294	1	-3
518.465	1	1
518.635	1	1
518.805	1	-5
518.975	1	-2
519.145	1	-4
519.315	1	-1
519.485	1	-3
519.656	1	19
519.826	1	6
519.996	1	-4
520.166	1	5
520.336	1	13
520.506	1	-5
520.676	1	-2
520.846	1	10
521.017	1	-6
521.187	1	-2
521.357	1	14
521.527	1	3
521.697	1	5
521.867	1	8
522.037	1	8
522.207	1	13
522.377	1	8
522.548	1	6
522.718	1	7
522.888	1	14
523.058	1	7
523.228	1	15
523.398	1	8
523.568	1	9
523.738	1	7
523.909	1	16
524.079	1	0
524.249	1	7
524.419	1	4
524.589	1	4
524.759	1	6
524.929	1	-4
525.099	1	10
525.269	1	0
525.439	1	1
525.610	1	16
525.780	1	3
525.950	1	1
526.120	1	5
526.290	1	4
526.460	1	-3
526.630	1	2
526.800	1	3
526.970	1	1
527.140	1	15
527.311	1	-4
527.481	1	2
527.651	1	6
527.821	1	1
527.991	1	14
528.161	1	13
528.331	1	2
528.501	1	-3
528.671	1	3
528.841	1	3
529.011	1	-6
529.181	1	6
529.352	1	5
529.522	1	-5
529.692	1	6
529.862	1	-1
530.032	1	15
530.202	1	4
530.372	1	3
530.542	1	-3
530.712	1	4
530.882	1	9
531.052	1	4
531.222	1	5
531.392	1	7
531.563	1	15
531.733	1	2
531.903	1	-9
532.073	1	16
532.243	1	9
532.413	1	4
532.583	1	-3
532.753	1	3
532.923	1	-5
533.093	1	6
533.263	1	-1
533.433	1	1
533.603	1	3
533.773	1	1
533.943	1	3
534.113	1	9
534.284	1	-3
534.454	1	7
534.624	1	15
534.794	1	-5
534.964	1	7
535.134	1	2
535.304	1	7
535.474	1	21
535.644	1	3
535.814	1	1
535.984	1	-7
536.154	1	-2
536.324	1	1
536.494	1	9
536.664	1	6
536.834	1	12
537.004	1	8
537.174	1	15
537.344	1	-1
537.514	1	-4
537.685	1	-8
537.855	1	9
538.025	1	3
538.195	1	7
538.365	1	10
538.535	1	8
538.705	1	2
538.875	1	15
539.045	1	-3
539.215	1	8
539.385	1	7
539.555	1	0
539.725	1	5
539.895	1	-1
540.065	1	14
540.235	1	9
540.405	1	3
540.575	1	3
540.745	1	-1
540.915	1	5
541.085	1	9
541.255	1	-6
541.425	1	15
541.595	1	8
541.765	1	4
541.935	1	5
542.105	1	-7
542.275	1	-3
542.445	1	-5
542.615	1	5
542.785	1	7
542.955	1	2
543.125	1	0
543.295	1	11
543.465	1	7
543.635	1	-8
543.805	1	23
543.975	1	3
544.145	1	7
544.315	1	5
544.485	1	7
544.655	1	-2
544.825	1	-7
544.995	1	5
545.165	1	-8
545.335	1	8
545.505	1	2
545.675	1	11
545.845	1	6
546.015	1	13
546.185	1	10
546.355	1	8
546.525	1	6
546.695	1	-5
546.865	1	6
547.035	1	10
547.205	1	-5
547.375	1	6
547.545	1	8
547.715	1	-5
547.885	1	4
548.055	1	-4
548.225	1	12
548.395	1	-8
548.565	1	-2
548.735	1	-1
548.905	1	1
549.075	1	2
549.245	1	6
549.415	1	-3
549.585	1	9
549.755	1	3
549.925	1	-1
550.095	1	2
550.265	1	2
550.435	1	2
550.605	1	-7
550.775	1	-3
550.945	1	6
551.115	1	-1
551.285	1	8
551.455	1	-5
551.625	1	8
551.795	1	11
551.965	1	1
552.135	1	6
552.305	1	1
552.475	1	-7
552.645	1	9
552.815	1	1
552.985	1	14
553.155	1	5
553.325	1	4
553.495	1	0
553.665	1	-7
553.835	1	6
554.004	1	1
554.174	1	0
554.344	1	-1
554.514	1	4
554.684	1	8
554.854	1	7
555.024	1	-2
555.194	1	2
555.364	1	11
555.534	1	6
555.704	1	-1
555.874	1	9
556.044	1	6
556.214	1	-6
556.384	1	3
556.554	1	13
556.724	1	7
556.894	1	7
557.064	1	5
557.234	1	7
557.404	1	1
557.573	1	7
557.743	1	-2
557.913	1	-4
558.083	1	-5
558.253	1	12
558.423	1	-3
558.593	1	10
558.763	1	0
558.933	1	4
559.103	1	14
559.273	1	1
559.443	1	3
559.613	1	-3
559.783	1	-1
559.953	1	3
560.122	1	11
560.292	1	7
560.462	1	-2
560.632	1	11
560.802	1	6
560.972	1	1
561.142	1	9
561.312	1	-1
561.482	1	10
561.652	1	0
561.822	1	-3
561.992	1	1
562.162	1	0
562.331	1	1
562.501	1	-10
562.671	1	8
562.841	1	-5
563.011	1	4
563.181	1	1
563.351	1	8
563.521	1	2
563.691	1	-3
563.861	1	6
564.031	1	7
564.201	1	4
564.370	1	-7
564.540	1	6
564.710	1	-2
564.880	1	12
565.050	1	14
565.220	1	-2
565.390	1	4
565.560	1	9
565.730	1	-3
565.900	1	0
566.069	1	12
566.239	1	3
566.409	1	8
566.579	1	11
566.749	1	4
566.919	1	2
567.089	1	1
567.259	1	4
567.429	1	-6
567.599	1	-1
567.768	1	-3
567.938	1	3
568.108	1	4
568.278	1	-4
568.448	1	0
568.618	1	-2
568.788	1	5
568.958	1	0
569.128	1	7
569.297	1	-7
569.467	1	-3
569.637	1	10
569.807	1	-2
569.977	1	3
570.147	1	7
570.317	1	2
570.487	1	9
570.656	1	2
570.826	1	-2
570.996	1	-1
571.166	1	11
571.336	1	-8
571.506	1	5
571.676	1	16
571.846	1	4
572.015	1	8
572.185	1	-3
572.355	1	6
572.525	1	4
572.695	1	5
572.865	1	-1
573.035	1	5
573.205	1	4
573.374	1	-9
573.544	1	6
573.714	1	12
573.884	1	12
574.054	1	5
574.224	1	-2
574.394	1	5
574.563	1	-6
574.733	1	-2
574.903	1	2
575.073	1	6
575.243	1	-3
575.413	1	1
575.583	1	1
575.752	1	4
575.922	1	-3
576.092	1	-5
576.262	1	7
576.432	1	9
576.602	1	-5
576.772	1	8
576.941	1	-4
577.111	1	-2
577.281	1	-5
577.451	1	-5
577.621	1	0
577.791	1	4
577.960	1	-6
578.130	1	9
578.300	1	6
578.470	1	12
578.640	1	-8
578.810	1	8
578.979	1	2
579.149	1	-5
579.319	1	0
579.489	1	1
579.659	1	-7
579.829	1	2
579.998	1	12
580.168	1	9
580.338	1	4
580.508	1	5
580.678	1	3
580.848	1	3
581.017	1	-3
581.187	1	7
581.357	1	-8
581.527	1	8
581.697	1	11
581.867	1	7
582.036	1	4
582.206	1	-3
582.376	1	11
582.546	1	-2
582.716	1	-4
582.885	1	-2
583.055	1	10
583.225	1	-10
583.395	1	7
583.565	1	-3
583.735	1	6
583.904	1	5
584.074	1	11
584.244	1	8
584.414	1	5
584.584	1	6
584.753	1	-10
584.923	1	9
585.093	1	-6
585.263	1	1
585.433	1	5
585.602	1	-2
585.772	1	-2
585.942	1	0
586.112	1	14
586.282	1	-5
586.451	1	-1
586.621	1	-4
586.791	1	1
586.961	1	2
587.131	1	2
587.300	1	0
587.470	1	13
587.640	1	7
587.810	1	0
587.980	1	-3
588.149	1	4
588.319	1	-3
588.489	1	-2
588.659	1	-3
588.829	1	0
588.998	1	12
589.168	1	2
589.338	1	5
589.508	1	6
589.677	1	-5
589.847	1	-8
590.017	1	22
590.187	1	7
590.357	1	14
590.526	1	11
590.696	1	2
590.866	1	10
591.036	1	-6
591.205	1	8
591.375	1	-3
591.545	1	-1
591.715	1	-2
591.885	1	3
592.054	1	10
592.224	1	4
592.394	1	1
592.564	1	0
592.733	1	3
592.903	1	3
593.073	1	0
593.243	1	7
593.412	1	8
593.582	1	-4
593.752	1	-4
593.922	1	8
594.091	1	-1
594.261	1	2
594.431	1	4
594.601	1	6
594.771	1	8
594.940	1	1
595.110	1	-1
595.280	1	3
595.450	1	2
595.619	1	6
595.789	1	7
595.959	1	1
596.129	1	4
596.298	1	0
596.468	1	5
596.638	1	-1
596.808	1	6
596.977	1	6
597.147	1	13
597.317	1	-5
597.487	1	4
597.656	1	7
597.826	1	6
597.996	1	6
598.166	1	-2
598.335	1	4
598.505	1	-3
598.675	1	-3
598.844	1	4
599.014	1	2
599.184	1	9
599.354	1	-10
599.523	1	6
599.693	1	1
599.863	1	10
600.033	1	2
600.202	1	9
600.372	1	2
600.542	1	9
600.712	1	-3
600.881	1	-2
601.051	1	19
601.221	1	7
601.390	1	-4
601.560	1	3
601.730	1	16
601.900	1	8
602.069	1	11
602.239	1	-10
602.409	1	-10
602.578	1	-4
602.748	1	3
602.918	1	10
603.088	1	-1
603.257	1	3
603.427	1	-12
603.597	1	0
603.767	1	9
603.936	1	-2
604.106	1	1
604.276	1	3
604.445	1	3
604.615	1	3
604.785	1	1
604.954	1	8
605.124	1	1
605.294	1	1
605.464	1	0
605.633	1	-1
605.803	1	-8
605.973	1	1
606.142	1	0
606.312	1	7
606.482	1	3
606.652	1	3
606.821	1	8
606.991	1	7
607.161	1	-5
607.330	1	6
607.500	1	7
607.670	1	-3
607.839	1	2
608.009	1	15
608.179	1	11
608.348	1	6
608.518	1	7
608.688	1	10
608.858	1	0
609.027	1	-15
609.197	1	12
609.367	1	13
609.536	1	7
609.706	1	3
609.876	1	7
610.045	1	-2
610.215	1	-2
610.385	1	0
610.554	1	4
610.724	1	3
610.894	1	0
611.063	1	0
611.233	1	-5
611.403	1	5
611.572	1	9
611.742	1	11
611.912	1	8
612.081	1	-2
612.251	1	7
612.421	1	-1
612.590	1	-1
612.760	1	3
612.930	1	3
613.099	1	4
613.269	1	8
613.439	1	-6
613.608	1	3
613.778	1	8
613.948	1	-7
614.117	1	10
614.287	1	0
614.457	1	4
614.626	1	2
614.796	1	3
614.966	1	5
615.135	1	2
615.305	1	9
615.475	1	2
615.644	1	10
615.814	1	8
615.984	1	1
616.153	1	-11
616.323	1	2
616.493	1	-1
616.662	1	8
616.832	1	1
617.002	1	0
617.171	1	5
617.341	1	-6
617.511	1	-7
617.680	1	-3
617.850	1	-1
618.019	1	14
618.189	1	20
618.359	1	-8
618.528	1	11
618.698	1	1
618.868	1	-3
619.037	1	2
619.207	1	0
619.377	1	-12
619.546	1	7
619.716	1	4
619.885	1	4
620.055	1	-7
620.225	1	-4
620.394	1	-3
620.564	1	3
620.734	1	3
620.903	1	1
621.073	1	1
621.242	1	3
621.412	1	0
621.582	1	-2
621.751	1	7
621.921	1	6
622.091	1	-4
622.260	1	3
622.430	1	10
622.599	1	-2
622.769	1	5
622.939	1	8
623.108	1	3
623.278	1	-3
623.448	1	9
623.617	1	6
623.787	1	5
623.956	1	9
624.126	1	-10
624.296	1	3
624.465	1	9
624.635	1	9
624.804	1	5
624.974	1	2
625.144	1	11
625.313	1	-1
625.483	1	-1
625.652	1	-5
625.822	1	1
625.992	1	-7
626.161	1	4
626.331	1	2
626.501	1	6
626.670	1	0
626.840	1	9
627.009	1	0
627.179	1	4
627.348	1	4
627.518	1	4
627.688	1	10
627.857	1	15
628.027	1	-1
628.196	1	-4
628.366	1	7
628.536	1	5
628.705	1	0
628.875	1	5
629.044	1	-6
629.214	1	1
629.384	1	6
629.553	1	10
629.723	1	-1
629.892	1	1
630.062	1	10
630.232	1	2
630.401	1	10
630.571	1	-3
630.740	1	4
630.910	1	16
631.079	1	-3
631.249	1	6
631.419	1	9
631.588	1	-4
631.758	1	9
631.927	1	-4
632.097	1	1
632.266	1	-2
632.436	1	11
632.606	1	-6
632.775	1	9
632.945	1	5
633.114	1	6
633.284	1	0
633.453	1	3
633.623	1	-1
633.793	1	2
633.962	1	4
634.132	1	-1
634.301	1	7
634.471	1	8
634.640	1	6
634.810	1	12
634.979	1	5
635.149	1	11
635.319	1	10
635.488	1	-4
635.658	1	-5
635.827	1	-1
635.997	1	5
636.166	1	8
636.336	1	-4
636.505	1	8
636.675	1	-5
636.845	1	6
637.014	1	7
637.184	1	10
637.353	1	7
637.523	1	7
637.692	1	9
637.862	1	17
638.031	1	-1
638.201	1	11
638.370	1	8
638.540	1	-5
638.710	1	5
638.879	1	-16
639.049	1	2
639.218	1	2
639.388	1	-6
639.557	1	3
639.727	1	10
639.896	1	3
640.066	1	0
640.235	1	5
640.405	1	14
640.574	1	-4
640.744	1	3
640.914	1	0
641.083	1	1
641.253	1	-4
641.422	1	3
641.592	1	12
641.761	1	6
641.931	1	0
642.100	1	17
642.270	1	1
642.439	1	4
642.609	1	5
642.778	1	7
642.948	1	0
643.117	1	13
643.287	1	6
643.456	1	8
643.626	1	18
643.795	1	-2
643.965	1	7
644.134	1	-3
644.304	1	3
644.473	1	5
644.643	1	12
644.812	1	4
644.982	1	2
645.151	1	0
645.321	1	4
645.490	1	22
645.660	1	3
645.829	1	4
645.999	1	-2
646.168	1	16
646.338	1	6
646.507	1	3
646.677	1	5
646.846	1	6
647.016	1	-5
647.185	1	4
647.355	1	-6
647.524	1	12
647.694	1	8
647.863	1	4
648.033	1	4
648.202	1	9
648.372	1	2
648.541	1	3
648.711	1	12
648.880	1	1
649.050	1	-3
649.219	1	-7
649.389	1	13
649.558	1	4
649.728	1	4
649.897	1	2
650.067	1	11
650.236	1	3
650.406	1	-3
650.575	1	9
650.745	1	2
650.914	1	-2
651.084	1	2
651.253	1	10
651.423	1	2
651.592	1	7
651.762	1	-3
651.931	1	18
652.101	1	-2
652.270	1	14
652.440	1	7
652.609	1	-9
652.778	1	-5
652.948	1	8
653.117	1	8
653.287	1	0
653.456	1	6
653.626	1	-3
653.795	1	0
653.965	1	12
654.134	1	6
654.304	1	-1
654.473	1	6
654.643	1	6
654.812	1	2
654.982	1	3
655.151	1	7
655.320	1	2
655.490	1	-2
655.659	1	-3
655.829	1	0
655.998	1	-1
656.168	1	4
656.337	1	4
656.507	1	13
656.676	1	0
656.846	1	10
657.015	1	6
657.184	1	9
657.354	1	12
657.523	1	8
657.693	1	15
657.862	1	0
658.032	1	1
658.201	1	0
658.371	1	9
658.540	1	11
658.709	1	6
658.879	1	8
659.048	1	1
659.218	1	-1
659.387	1	2
659.557	1	9
659.726	1	11
659.895	1	5
660.065	1	-7
660.234	1	15
660.404	1	5
660.573	1	0
660.743	1	10
660.912	1	7
661.081	1	6
661.251	1	2
661.420	1	8
661.590	1	6
661.759	1	11
661.929	1	11
662.098	1	12
662.267	1	7
662.437	1	0
662.606	1	9
662.776	1	13
662.945	1	4
663.115	1	4
663.284	1	4
663.453	1	9
663.623	1	1
663.792	1	1
663.962	1	2
664.131	1	7
664.300	1	17
664.470	1	7
664.639	1	2
664.809	1	0
664.978	1	13
665.148	1	8
665.317	1	11
665.486	1	8
665.656	1	13
665.825	1	1
665.995	1	1
666.164	1	3
666.333	1	9
666.503	1	10
666.672	1	-2
666.842	1	6
667.011	1	-3
667.180	1	10
667.350	1	3
667.519	1	7
667.689	1	2
667.858	1	9
668.027	1	13
668.197	1	0
668.366	1	1
668.536	1	2
668.705	1	11
668.874	1	4
669.044	1	12
669.213	1	9
669.382	1	2
669.552	1	11
669.721	1	3
669.891	1	10
670.060	1	4
670.229	1	14
670.399	1	5
670.568	1	17
670.738	1	18
670.907	1	-7
671.076	1	-2
671.246	1	3
671.415	1	4
671.584	1	8
671.754	1	5
671.923	1	11
672.093	1	9
672.262	1	-13
672.431	1	4
672.601	1	4
672.770	1	-6
672.939	1	3
673.109	1	-3
673.278	1	6
673.448	1	3
673.617	1	7
673.786	1	6
