325.333	1	21
325.504	1	15
325.675	1	10
325.846	1	10
326.017	1	3
326.188	1	20
326.359	1	8
326.531	1	0
326.702	1	12
326.873	1	14
327.044	1	8
327.215	1	5
327.386	1	26
327.557	1	9
327.728	1	6
327.899	1	22
328.070	1	13
328.241	1	16
328.412	1	-1
328.583	1	14
328.754	1	6
328.926	1	22
329.097	1	0
329.268	1	20
329.439	1	8
329.610	1	15
329.781	1	4
329.952	1	18
330.123	1	14
330.294	1	10
330.465	1	17
330.636	1	17
330.807	1	19
330.978	1	9
331.149	1	21
331.320	1	10
331.492	1	12
331.663	1	7
331.834	1	27
332.005	1	18
332.176	1	27
332.347	1	17
332.518	1	12
332.689	1	17
332.860	1	8
333.031	1	26
333.202	1	7
333.373	1	14
333.544	1	9
333.715	1	29
333.886	1	5
334.057	1	26
334.228	1	8
334.399	1	18
334.570	1	19
334.741	1	14
334.912	1	23
335.084	1	35
335.255	1	14
335.426	1	14
335.597	1	14
335.768	1	25
335.939	1	22
336.110	1	15
336.281	1	21
336.452	1	9
336.623	1	17
336.794	1	37
336.965	1	19
337.136	1	16
337.307	1	19
337.478	1	19
337.649	1	22
337.820	1	8
337.991	1	19
338.162	1	25
338.333	1	25
338.504	1	20
338.675	1	20
338.846	1	17
339.017	1	13
339.188	1	24
339.359	1	15
339.530	1	29
339.701	1	35
339.872	1	23
340.043	1	20
340.214	1	21
340.385	1	28
340.556	1	19
340.727	1	24
340.898	1	32
341.069	1	32
341.240	1	20
341.411	1	24
341.582	1	31
341.753	1	19
341.924	1	22
342.095	1	23
342.266	1	28
342.437	1	23
342.608	1	16
342.779	1	24
342.950	1	30
343.121	1	31
343.292	1	20
343.463	1	26
343.634	1	15
343.805	1	31
343.976	1	30
344.147	1	21
344.318	1	16
344.489	1	22
344.660	1	39
344.831	1	27
345.002	1	19
345.173	1	38
345.344	1	30
345.515	1	22
345.686	1	31
345.857	1	29
346.028	1	25
346.199	1	27
346.370	1	14
346.541	1	24
346.712	1	22
346.883	1	37
347.054	1	28
347.225	1	29
347.396	1	36
347.567	1	37
347.738	1	19
347.909	1	52
348.080	1	30
348.251	1	30
348.422	1	36
348.593	1	30
348.764	1	28
348.935	1	32
349.106	1	36
349.277	1	21
349.448	1	37
349.619	1	28
349.790	1	35
349.961	1	46
350.132	1	31
350.303	1	35
350.474	1	45
350.645	1	26
350.816	1	39
350.987	1	29
351.157	1	16
351.328	1	39
351.499	1	32
351.670	1	23
351.841	1	42
352.012	1	47
352.183	1	40
352.354	1	43
352.525	1	45
352.696	1	48
352.867	1	26
353.038	1	45
353.209	1	37
353.380	1	29
353.551	1	40
353.722	1	43
353.893	1	39
354.064	1	47
354.235	1	34
354.406	1	32
354.576	1	39
354.747	1	42
354.918	1	37
355.089	1	48
355.260	1	41
355.431	1	39
355.602	1	43
355.773	1	37
355.944	1	51
356.115	1	48
356.286	1	44
356.457	1	48
356.628	1	41
356.799	1	50
356.970	1	55
357.141	1	41
357.311	1	41
357.482	1	49
357.653	1	43
357.824	1	51
357.995	1	37
358.166	1	36
358.337	1	42
358.508	1	50
358.679	1	51
358.850	1	51
359.021	1	49
359.192	1	53
359.363	1	47
359.533	1	50
359.704	1	48
359.875	1	41
360.046	1	41
360.217	1	39
360.388	1	47
360.559	1	41
360.730	1	57
360.901	1	45
361.072	1	54
361.243	1	51
361.414	1	38
361.584	1	38
361.755	1	62
361.926	1	39
362.097	1	43
362.268	1	45
362.439	1	55
362.610	1	66
362.781	1	52
362.952	1	43
363.123	1	38
363.293	1	39
363.464	1	47
363.635	1	55
363.806	1	44
363.977	1	53
364.148	1	53
364.319	1	43
364.490	1	56
364.661	1	55
364.832	1	60
365.002	1	47
365.173	1	48
365.344	1	57
365.515	1	44
365.686	1	53
365.857	1	52
366.028	1	59
366.199	1	52
366.370	1	62
366.540	1	48
366.711	1	46
366.882	1	45
367.053	1	46
367.224	1	66
367.395	1	48
367.566	1	56
367.737	1	64
367.908	1	46
368.078	1	55
368.249	1	53
368.420	1	32
368.591	1	48
368.762	1	44
368.933	1	45
369.104	1	52
369.274	1	42
369.445	1	56
369.616	1	51
369.787	1	63
369.958	1	56
370.129	1	34
370.300	1	64
370.471	1	55
370.641	1	49
370.812	1	48
370.983	1	46
371.154	1	45
371.325	1	47
371.496	1	49
371.667	1	59
371.837	1	50
372.008	1	50
372.179	1	43
372.350	1	66
372.521	1	54
372.692	1	64
372.863	1	50
373.033	1	37
373.204	1	58
373.375	1	50
373.546	1	59
373.717	1	57
373.888	1	59
374.059	1	65
374.229	1	55
374.400	1	53
374.571	1	47
374.742	1	63
374.913	1	54
375.084	1	51
375.254	1	62
375.425	1	62
375.596	1	57
375.767	1	57
375.938	1	52
376.109	1	65
376.279	1	53
376.450	1	58
376.621	1	61
376.792	1	58
376.963	1	62
377.134	1	62
377.304	1	64
377.475	1	54
377.646	1	48
377.817	1	56
377.988	1	56
378.159	1	56
378.329	1	67
378.500	1	57
378.671	1	66
378.842	1	50
379.013	1	52
379.184	1	63
379.354	1	63
379.525	1	54
379.696	1	65
379.867	1	57
380.038	1	69
380.209	1	72
380.379	1	63
380.550	1	50
380.721	1	70
380.892	1	62
381.063	1	58
381.233	1	68
381.404	1	48
381.575	1	71
381.746	1	64
381.917	1	68
382.087	1	69
382.258	1	68
382.429	1	66
382.600	1	73
382.771	1	56
382.941	1	66
383.112	1	57
383.283	1	66
383.454	1	55
383.625	1	60
383.795	1	68
383.966	1	63
384.137	1	79
384.308	1	68
384.479	1	67
384.649	1	67
384.820	1	63
384.991	1	61
385.162	1	72
385.333	1	64
385.503	1	63
385.674	1	58
385.845	1	74
386.016	1	70
386.187	1	60
386.357	1	65
386.528	1	70
386.699	1	63
386.870	1	79
387.041	1	77
387.211	1	73
387.382	1	78
387.553	1	70
387.724	1	67
387.894	1	72
388.065	1	70
388.236	1	67
388.407	1	72
388.578	1	58
388.748	1	65
388.919	1	79
389.090	1	74
389.261	1	65
389.431	1	75
389.602	1	77
389.773	1	72
389.944	1	66
390.114	1	67
390.285	1	69
390.456	1	79
390.627	1	68
390.798	1	78
390.968	1	60
391.139	1	68
391.310	1	70
391.481	1	79
391.651	1	78
391.822	1	65
391.993	1	64
392.164	1	64
392.334	1	70
392.505	1	60
392.676	1	79
392.847	1	74
393.017	1	86
393.188	1	67
393.359	1	64
393.530	1	76
393.700	1	71
393.871	1	70
394.042	1	71
394.213	1	66
394.383	1	78
394.554	1	76
394.725	1	77
394.896	1	67
395.066	1	78
395.237	1	70
395.408	1	68
395.579	1	70
395.749	1	76
395.920	1	75
396.091	1	77
396.262	1	73
396.432	1	86
396.603	1	79
396.774	1	85
396.945	1	83
397.115	1	76
397.286	1	73
397.457	1	75
397.627	1	83
397.798	1	76
397.969	1	76
398.140	1	70
398.310	1	90
398.481	1	83
398.652	1	73
398.823	1	69
398.993	1	85
399.164	1	70
399.335	1	83
399.505	1	83
399.676	1	85
399.847	1	71
400.018	1	78
400.188	1	78
400.359	1	73
400.530	1	67
400.700	1	71
400.871	1	81
401.042	1	79
401.213	1	84
401.383	1	80
401.554	1	88
401.725	1	70
401.895	1	73
402.066	1	79
402.237	1	72
402.408	1	78
402.578	1	80
402.749	1	83
402.920	1	86
403.090	1	73
403.261	1	78
403.432	1	84
403.603	1	72
403.773	1	84
403.944	1	92
404.115	1	79
404.285	1	74
404.456	1	70
404.627	1	68
404.797	1	65
404.968	1	76
405.139	1	74
405.310	1	93
405.480	1	82
405.651	1	81
405.822	1	74
405.992	1	68
406.163	1	79
406.334	1	71
406.504	1	67
406.675	1	87
406.846	1	84
407.016	1	96
407.187	1	90
407.358	1	78
407.528	1	73
407.699	1	61
407.870	1	74
408.041	1	81
408.211	1	94
408.382	1	79
408.553	1	74
408.723	1	81
408.894	1	91
409.065	1	76
409.235	1	80
409.406	1	74
409.577	1	75
409.747	1	88
409.918	1	86
410.089	1	89
410.259	1	87
410.430	1	84
410.601	1	79
410.771	1	86
410.942	1	97
411.113	1	80
411.283	1	69
411.454	1	83
411.625	1	83
411.795	1	84
411.966	1	82
412.137	1	89
412.307	1	77
412.478	1	82
412.649	1	76
412.819	1	79
412.990	1	77
413.161	1	87
413.331	1	73
413.502	1	100
413.672	1	74
413.843	1	77
414.014	1	75
414.184	1	78
414.355	1	80
414.526	1	84
414.696	1	84
414.867	1	82
415.038	1	76
415.208	1	76
415.379	1	88
415.550	1	81
415.720	1	81
415.891	1	78
416.062	1	76
416.232	1	74
416.403	1	81
416.573	1	76
416.744	1	75
416.915	1	86
417.085	1	72
417.256	1	79
417.427	1	78
417.597	1	86
417.768	1	82
417.939	1	86
418.109	1	91
418.280	1	83
418.450	1	79
418.621	1	54
418.792	1	86
418.962	1	77
419.133	1	79
419.304	1	71
419.474	1	72
419.645	1	79
419.815	1	79
419.986	1	79
420.157	1	79
420.327	1	74
420.498	1	80
420.669	1	69
420.839	1	89
421.010	1	84
421.180	1	83
421.351	1	70
421.522	1	83
421.692	1	76
421.863	1	72
422.033	1	86
422.204	1	83
422.375	1	72
422.545	1	86
422.716	1	83
422.886	1	78
423.057	1	81
423.228	1	79
423.398	1	74
423.569	1	74
423.740	1	67
423.910	1	77
424.081	1	70
424.251	1	73
424.422	1	87
424.593	1	71
424.763	1	77
424.934	1	72
425.104	1	72
425.275	1	71
425.445	1	66
425.616	1	78
425.787	1	77
425.957	1	71
426.128	1	86
426.298	1	76
426.469	1	56
426.640	1	72
426.810	1	67
426.981	1	80
427.151	1	67
427.322	1	81
427.493	1	67
427.663	1	84
427.834	1	61
428.004	1	70
428.175	1	80
428.345	1	62
428.516	1	72
428.687	1	78
428.857	1	70
429.028	1	58
429.198	1	74
429.369	1	65
429.540	1	73
429.710	1	69
429.881	1	73
430.051	1	79
430.222	1	72
430.392	1	68
430.563	1	86
430.734	1	66
430.904	1	74
431.075	1	70
431.245	1	63
431.416	1	80
431.586	1	69
431.757	1	72
431.927	1	74
432.098	1	75
432.269	1	58
432.439	1	70
432.610	1	70
432.780	1	74
432.951	1	62
433.121	1	72
433.292	1	74
433.462	1	74
433.633	1	78
433.804	1	80
433.974	1	80
434.145	1	92
434.315	1	64
434.486	1	69
434.656	1	73
434.827	1	69
434.997	1	57
435.168	1	71
435.339	1	73
435.509	1	70
435.680	1	68
435.850	1	64
436.021	1	59
436.191	1	66
436.362	1	75
436.532	1	67
436.703	1	77
436.873	1	59
437.044	1	58
437.214	1	59
437.385	1	65
437.556	1	69
437.726	1	79
437.897	1	86
438.067	1	73
438.238	1	69
438.408	1	70
438.579	1	60
438.749	1	58
438.920	1	66
439.090	1	65
439.261	1	59
439.431	1	47
439.602	1	55
439.772	1	66
439.943	1	79
440.113	1	74
440.284	1	77
440.455	1	63
440.625	1	70
440.796	1	67
440.966	1	59
441.137	1	65
441.307	1	66
441.478	1	66
441.648	1	62
441.819	1	66
441.989	1	74
442.160	1	71
442.330	1	68
442.501	1	69
442.671	1	59
442.842	1	52
443.012	1	64
443.183	1	70
443.353	1	54
443.524	1	68
443.694	1	68
443.865	1	60
444.035	1	75
444.206	1	53
444.376	1	52
444.547	1	73
444.717	1	75
444.888	1	53
445.058	1	76
445.229	1	59
445.399	1	59
445.570	1	74
445.740	1	57
445.911	1	59
446.081	1	62
446.252	1	62
446.422	1	50
446.593	1	54
446.763	1	59
446.934	1	56
447.104	1	57
447.275	1	63
447.445	1	67
447.616	1	67
447.786	1	58
447.957	1	64
448.127	1	57
448.298	1	65
448.468	1	47
448.639	1	59
448.809	1	56
448.979	1	52
449.150	1	57
449.320	1	56
449.491	1	60
449.661	1	54
449.832	1	58
450.002	1	63
450.173	1	61
450.343	1	52
450.514	1	59
450.684	1	61
450.855	1	60
451.025	1	51
451.196	1	64
451.366	1	50
451.537	1	46
451.707	1	52
451.878	1	53
452.048	1	60
452.218	1	61
452.389	1	61
452.559	1	57
452.730	1	59
452.900	1	62
453.071	1	41
453.241	1	61
453.412	1	56
453.582	1	51
453.753	1	47
453.923	1	54
454.093	1	58
454.264	1	54
454.434	1	46
454.605	1	57
454.775	1	57
454.946	1	55
455.116	1	63
455.287	1	46
455.457	1	50
455.628	1	50
455.798	1	53
455.968	1	48
456.139	1	53
456.309	1	46
456.480	1	51
456.650	1	56
456.821	1	48
456.991	1	57
457.161	1	38
457.332	1	59
457.502	1	42
457.673	1	57
457.843	1	58
458.014	1	44
458.184	1	46
458.355	1	55
458.525	1	43
458.695	1	52
458.866	1	52
459.036	1	59
459.207	1	46
459.377	1	46
459.548	1	50
459.718	1	53
459.888	1	46
460.059	1	57
460.229	1	53
460.400	1	58
460.570	1	47
460.740	1	40
460.911	1	57
461.081	1	49
461.252	1	42
461.422	1	54
461.593	1	53
461.763	1	52
461.933	1	52
462.104	1	39
462.274	1	48
462.445	1	57
462.615	1	52
462.785	1	47
462.956	1	46
463.126	1	60
463.297	1	52
463.467	1	46
463.638	1	46
463.808	1	40
463.978	1	45
464.149	1	36
464.319	1	43
464.490	1	52
464.660	1	39
464.830	1	43
465.001	1	53
465.171	1	45
465.342	1	57
465.512	1	37
465.682	1	48
465.853	1	45
466.023	1	49
466.194	1	40
466.364	1	54
466.534	1	37
466.705	1	48
466.875	1	39
467.045	1	38
467.216	1	54
467.386	1	42
467.557	1	39
467.727	1	33
467.897	1	39
468.068	1	45
468.238	1	46
468.409	1	41
468.579	1	40
468.749	1	44
468.920	1	27
469.090	1	43
469.260	1	35
469.431	1	44
469.601	1	46
469.772	1	41
469.942	1	39
470.112	1	49
470.283	1	43
470.453	1	46
470.623	1	38
470.794	1	37
470.964	1	40
471.135	1	45
471.305	1	38
471.475	1	47
471.646	1	41
471.816	1	44
471.986	1	37
472.157	1	60
472.327	1	27
472.497	1	43
472.668	1	34
472.838	1	48
473.009	1	40
473.179	1	29
473.349	1	32
473.520	1	53
473.690	1	36
473.860	1	38
474.031	1	37
474.201	1	42
474.371	1	47
474.542	1	41
474.712	1	37
474.882	1	37
475.053	1	54
475.223	1	37
475.394	1	46
475.564	1	31
475.734	1	36
475.905	1	45
476.075	1	37
476.245	1	53
476.416	1	52
476.586	1	46
476.756	1	41
476.927	1	56
477.097	1	49
477.267	1	23
477.438	1	31
477.608	1	35
477.778	1	26
477.949	1	37
478.119	1	49
478.289	1	33
478.460	1	41
478.630	1	31
478.800	1	30
478.971	1	36
479.141	1	31
479.311	1	28
479.482	1	41
479.652	1	32
479.822	1	30
479.993	1	37
480.163	1	42
480.333	1	47
480.504	1	45
480.674	1	44
480.844	1	25
481.015	1	38
481.185	1	22
481.355	1	36
481.525	1	29
481.696	1	32
481.866	1	46
482.036	1	30
482.207	1	36
482.377	1	34
482.547	1	31
482.718	1	37
482.888	1	28
483.058	1	25
483.229	1	32
483.399	1	27
483.569	1	29
483.740	1	35
483.910	1	43
484.080	1	29
484.250	1	32
484.421	1	35
484.591	1	40
484.761	1	23
484.932	1	42
485.102	1	41
485.272	1	30
485.443	1	39
485.613	1	42
485.783	1	31
485.953	1	29
486.124	1	41
486.294	1	47
486.464	1	20
486.635	1	33
486.805	1	48
486.975	1	31
487.146	1	24
487.316	1	33
487.486	1	36
487.656	1	18
487.827	1	29
487.997	1	25
488.167	1	13
488.338	1	34
488.508	1	22
488.678	1	23
488.848	1	36
489.019	1	20
489.189	1	25
489.359	1	25
489.529	1	31
489.700	1	30
489.870	1	39
490.040	1	36
490.211	1	25
490.381	1	26
490.551	1	27
490.721	1	39
490.892	1	25
491.062	1	34
491.232	1	39
491.402	1	33
491.573	1	23
491.743	1	33
491.913	1	21
492.084	1	30
492.254	1	22
492.424	1	17
492.594	1	19
492.765	1	34
492.935	1	32
493.105	1	25
493.275	1	24
493.446	1	32
493.616	1	39
493.786	1	25
493.956	1	24
494.127	1	32
494.297	1	23
494.467	1	13
494.637	1	31
494.808	1	15
494.978	1	15
495.148	1	25
495.318	1	28
495.489	1	22
495.659	1	28
495.829	1	18
495.999	1	20
496.170	1	29
496.340	1	23
496.510	1	34
496.680	1	20
496.851	1	24
497.021	1	21
497.191	1	15
497.361	1	21
497.532	1	20
497.702	1	17
497.872	1	20
498.042	1	24
498.213	1	23
498.383	1	24
498.553	1	19
498.723	1	17
498.894	1	20
499.064	1	23
499.234	1	26
499.404	1	24
499.574	1	30
499.745	1	18
499.915	1	25
500.085	1	27
500.255	1	34
500.426	1	20
500.596	1	22
500.766	1	19
500.936	1	15
501.106	1	15
501.277	1	24
501.447	1	20
501.617	1	21
501.787	1	16
501.958	1	13
502.128	1	18
502.298	1	22
502.468	1	15
502.638	1	19
502.809	1	25
502.979	1	15
503.149	1	12
503.319	1	9
503.489	1	17
503.660	1	26
503.830	1	22
504.000	1	24
504.170	1	13
504.340	1	8
504.511	1	29
504.681	1	20
504.851	1	23
505.021	1	21
505.192	1	14
505.362	1	19
505.532	1	22
505.702	1	19
505.872	1	15
506.043	1	14
506.213	1	12
506.383	1	12
506.553	1	18
506.723	1	27
506.893	1	13
507.064	1	28
507.234	1	13
507.404	1	7
507.574	1	19
507.744	1	15
507.915	1	27
508.085	1	25
508.255	1	26
508.425	1	15
508.595	1	22
508.766	1	25
508.936	1	7
509.106	1	19
509.276	1	23
509.446	1	9
509.616	1	12
509.787	1	21
509.957	1	14
510.127	1	22
510.297	1	23
510.467	1	18
510.638	1	17
510.808	1	6
510.978	1	11
511.148	1	20
511.318	1	26
511.488	1	8
511.659	1	17
511.829	1	6
511.999	1	25
512.169	1	6
512.339	1	15
512.509	1	21
512.680	1	14
512.850	1	12
513.020	1	20
513.190	1	17
513.360	1	11
513.530	1	15
513.700	1	25
513.871	1	14
514.041	1	13
514.211	1	26
514.381	1	17
514.551	1	26
514.721	1	14
514.892	1	7
515.062	1	19
515.232	1	14
515.402	1	10
515.572	1	16
515.742	1	13
515.912	1	21
516.083	1	11
516.253	1	22
516.423	1	15
516.593	1	9
516.763	1	24
516.933	1	8
517.104	1	13
517.274	1	17
517.444	1	12
517.614	1	9
517.784	1	16
517.954	1	23
518.124	1	19
518.294	1	7
518.465	1	13
518.635	1	14
518.805	1	-3
518.975	1	18
519.145	1	12
519.315	1	8
519.485	1	12
519.656	1	22
519.826	1	8
519.996	1	16
520.166	1	14
520.336	1	20
520.506	1	14
520.676	1	2
520.846	1	17
521.017	1	18
521.187	1	10
521.357	1	21
521.527	1	10
521.697	1	13
521.867	1	4
522.037	1	18
522.207	1	21
522.377	1	12
522.548	1	7
522.718	1	10
522.888	1	27
523.058	1	4
523.228	1	12
523.398	1	21
523.568	1	13
523.738	1	16
523.909	1	25
524.079	1	12
524.249	1	15
524.419	1	9
524.589	1	6
524.759	1	7
524.929	1	3
525.099	1	14
525.269	1	21
525.439	1	6
525.610	1	28
525.780	1	9
525.950	1	8
526.120	1	14
526.290	1	13
526.460	1	7
526.630	1	10
526.800	1	14
526.970	1	10
527.140	1	14
527.311	1	4
527.481	1	9
527.651	1	16
527.821	1	8
527.991	1	18
528.161	1	25
528.331	1	11
528.501	1	10
528.671	1	8
528.841	1	12
529.011	1	9
529.181	1	15
529.352	1	14
529.522	1	2
529.692	1	5
529.862	1	0
530.032	1	7
530.202	1	12
530.372	1	17
530.542	1	17
530.712	1	9
530.882	1	18
531.052	1	13
531.222	1	15
531.392	1	12
531.563	1	15
531.733	1	9
531.903	1	13
532.073	1	15
532.243	1	6
532.413	1	11
532.583	1	6
532.753	1	16
532.923	1	4
533.093	1	18
533.263	1	11
533.433	1	14
533.603	1	14
533.773	1	-2
533.943	1	19
534.113	1	8
534.284	1	11
534.454	1	15
534.624	1	18
534.794	1	-4
534.964	1	14
535.134	1	11
535.304	1	8
535.474	1	10
535.644	1	0
535.814	1	0
535.984	1	7
536.154	1	9
536.324	1	11
536.494	1	21
536.664	1	17
536.834	1	13
537.004	1	9
537.174	1	20
537.344	1	10
537.514	1	3
537.685	1	7
537.855	1	14
538.025	1	14
538.195	1	13
538.365	1	24
538.535	1	6
538.705	1	14
538.875	1	16
539.045	1	13
539.215	1	17
539.385	1	11
539.555	1	12
539.725	1	12
539.895	1	1
540.065	1	22
540.235	1	19
540.405	1	12
540.575	1	6
540.745	1	13
540.915	1	17
541.085	1	6
541.255	1	-1
541.425	1	11
541.595	1	5
541.765	1	9
541.935	1	5
542.105	1	7
542.275	1	7
542.445	1	0
542.615	1	15
542.785	1	11
542.955	1	6
543.125	1	7
543.295	1	19
543.465	1	9
543.635	1	7
543.805	1	20
543.975	1	7
544.145	1	9
544.315	1	7
544.485	1	16
544.655	1	14
544.825	1	4
544.995	1	8
545.165	1	2
545.335	1	12
545.505	1	5
545.675	1	14
545.845	1	13
546.015	1	6
546.185	1	9
546.355	1	11
546.525	1	19
546.695	1	13
546.865	1	1
547.035	1	7
547.205	1	-2
547.375	1	20
547.545	1	8
547.715	1	6
547.885	1	-3
548.055	1	8
548.225	1	5
548.395	1	-3
548.565	1	3
548.735	1	14
548.905	1	8
549.075	1	16
549.245	1	3
549.415	1	0
549.585	1	10
549.755	1	3
549.925	1	2
550.095	1	12
550.265	1	7
550.435	1	10
550.605	1	13
550.775	1	4
550.945	1	8
551.115	1	4
551.285	1	11
551.455	1	0
551.625	1	10
551.795	1	6
551.965	1	6
552.135	1	3
552.305	1	10
552.475	1	-2
552.645	1	2
552.815	1	5
552.985	1	17
553.155	1	1
553.325	1	11
553.495	1	3
553.665	1	9
553.835	1	6
554.004	1	10
554.174	1	5
554.344	1	9
554.514	1	4
554.684	1	10
554.854	1	15
555.024	1	-4
555.194	1	2
555.364	1	10
555.534	1	14
555.704	1	5
555.874	1	13
556.044	1	3
556.214	1	-6
556.384	1	7
556.554	1	17
556.724	1	4
556.894	1	5
557.064	1	11
557.234	1	7
557.404	1	8
557.573	1	12
557.743	1	5
557.913	1	-2
558.083	1	7
558.253	1	17
558.423	1	1
558.593	1	4
558.763	1	2
558.933	1	12
559.103	1	11
559.273	1	7
559.443	1	8
559.613	1	7
559.783	1	5
559.953	1	7
560.122	1	11
560.292	1	13
560.462	1	-2
560.632	1	10
560.802	1	7
560.972	1	7
561.142	1	8
561.312	1	2
561.482	1	8
561.652	1	13
561.822	1	3
561.992	1	2
562.162	1	6
562.331	1	2
562.501	1	-1
562.671	1	15
562.841	1	0
563.011	1	16
563.181	1	2
563.351	1	-1
563.521	1	0
563.691	1	6
563.861	1	9
564.031	1	14
564.201	1	19
564.370	1	3
564.540	1	10
564.710	1	7
564.880	1	6
565.050	1	13
565.220	1	-8
565.390	1	17
565.560	1	9
565.730	1	-2
565.900	1	3
566.069	1	2
566.239	1	11
566.409	1	8
566.579	1	21
566.749	1	-1
566.919	1	16
567.089	1	13
567.259	1	19
567.429	1	7
567.599	1	-1
567.768	1	11
567.938	1	5
568.108	1	4
568.278	1	0
568.448	1	11
568.618	1	6
568.788	1	12
568.958	1	2
569.128	1	3
569.297	1	0
569.467	1	1
569.637	1	18
569.807	1	-1
569.977	1	3
570.147	1	15
570.317	1	0
570.487	1	13
570.656	1	6
570.826	1	-7
570.996	1	-5
571.166	1	16
571.336	1	1
571.506	1	8
571.676	1	7
571.846	1	15
572.015	1	4
572.185	1	0
572.355	1	11
572.525	1	2
572.695	1	6
572.865	1	-12
573.035	1	7
573.205	1	5
573.374	1	2
573.544	1	5
573.714	1	21
573.884	1	9
574.054	1	12
574.224	1	7
574.394	1	0
574.563	1	6
574.733	1	5
574.903	1	5
575.073	1	8
575.243	1	11
575.413	1	9
575.583	1	4
575.752	1	9
575.922	1	9
576.092	1	2
576.262	1	8
576.432	1	8
576.602	1	0
576.772	1	12
576.941	1	3
577.111	1	2
577.281	1	-3
577.451	1	1
577.621	1	12
577.791	1	20
577.960	1	-2
578.130	1	10
578.300	1	9
578.470	1	6
578.640	1	10
578.810	1	6
578.979	1	10
579.149	1	6
579.319	1	5
579.489	1	5
579.659	1	-4
579.829	1	-1
579.998	1	11
580.168	1	16
580.338	1	6
580.508	1	-7
580.678	1	8
580.848	1	10
581.017	1	2
581.187	1	10
581.357	1	0
581.527	1	12
581.697	1	11
581.867	1	6
582.036	1	5
582.206	1	9
582.376	1	16
582.546	1	6
582.716	1	-3
582.885	1	5
583.055	1	-2
583.225	1	-2
583.395	1	15
583.565	1	-4
583.735	1	13
583.904	1	9
584.074	1	9
584.244	1	1
584.414	1	5
584.584	1	14
584.753	1	-4
584.923	1	6
585.093	1	5
585.263	1	9
585.433	1	4
585.602	1	1
585.772	1	2
585.942	1	0
586.112	1	7
586.282	1	7
586.451	1	3
586.621	1	2
586.791	1	-3
586.961	1	6
587.131	1	10
587.300	1	5
587.470	1	11
587.640	1	15
587.810	1	-3
587.980	1	8
588.149	1	9
588.319	1	4
588.489	1	1
588.659	1	4
588.829	1	9
588.998	1	14
589.168	1	5
589.338	1	2
589.508	1	9
589.677	1	0
589.847	1	-7
590.017	1	24
590.187	1	-2
590.357	1	21
590.526	1	15
590.696	1	-2
590.866	1	9
591.036	1	2
591.205	1	15
591.375	1	-7
591.545	1	3
591.715	1	12
591.885	1	8
592.054	1	8
592.224	1	1
592.394	1	3
592.564	1	9
592.733	1	12
592.903	1	17
593.073	1	4
593.243	1	0
593.412	1	8
593.582	1	0
593.752	1	-10
593.922	1	13
594.091	1	4
594.261	1	0
594.431	1	10
594.601	1	10
594.771	1	13
594.940	1	11
595.110	1	7
595.280	1	4
595.450	1	5
595.619	1	0
595.789	1	5
595.959	1	4
596.129	1	-1
596.298	1	1
596.468	1	9
596.638	1	17
596.808	1	1
596.977	1	9
597.147	1	10
597.317	1	3
597.487	1	-2
597.656	1	-4
597.826	1	7
597.996	1	-1
598.166	1	-4
598.335	1	0
598.505	1	6
598.675	1	13
598.844	1	2
599.014	1	1
599.184	1	10
599.354	1	2
599.523	1	4
599.693	1	4
599.863	1	6
600.033	1	11
600.202	1	-3
600.372	1	3
600.542	1	14
600.712	1	-1
600.881	1	10
601.051	1	17
601.221	1	12
601.390	1	-2
601.560	1	10
601.730	1	11
601.900	1	1
602.069	1	8
602.239	1	0
602.409	1	-3
602.578	1	-1
602.748	1	-6
602.918	1	7
603.088	1	13
603.257	1	8
603.427	1	9
603.597	1	2
603.767	1	5
603.936	1	1
604.106	1	5
604.276	1	2
604.445	1	16
604.615	1	2
604.785	1	1
604.954	1	2
605.124	1	8
605.294	1	0
605.464	1	-1
605.633	1	4
605.803	1	16
605.973	1	5
606.142	1	13
606.312	1	12
606.482	1	9
606.652	1	13
606.821	1	-2
606.991	1	4
607.161	1	-3
607.330	1	3
607.500	1	6
607.670	1	-3
607.839	1	19
608.009	1	7
608.179	1	13
608.348	1	6
608.518	1	4
608.688	1	8
608.858	1	12
609.027	1	-6
609.197	1	11
609.367	1	7
609.536	1	18
609.706	1	2
609.876	1	11
610.045	1	14
610.215	1	11
610.385	1	-1
610.554	1	10
610.724	1	15
610.894	1	15
611.063	1	4
611.233	1	12
611.403	1	10
611.572	1	11
611.742	1	5
611.912	1	3
612.081	1	1
612.251	1	13
612.421	1	10
612.590	1	5
612.760	1	-1
612.930	1	11
613.099	1	15
613.269	1	18
613.439	1	2
613.608	1	-2
613.778	1	5
613.948	1	7
614.117	1	8
614.287	1	14
614.457	1	12
614.626	1	11
614.796	1	15
614.966	1	11
615.135	1	1
615.305	1	7
615.475	1	7
615.644	1	12
615.814	1	7
615.984	1	8
616.153	1	-4
616.323	1	8
616.493	1	-2
616.662	1	15
616.832	1	4
617.002	1	-1
617.171	1	2
617.341	1	7
617.511	1	1
617.680	1	13
617.850	1	8
618.019	1	26
618.189	1	24
618.359	1	12
618.528	1	-2
618.698	1	21
618.868	1	-3
619.037	1	4
619.207	1	4
619.377	1	-7
619.546	1	6
619.716	1	15
619.885	1	4
620.055	1	4
620.225	1	6
620.394	1	0
620.564	1	6
620.734	1	7
620.903	1	6
621.073	1	14
621.242	1	7
621.412	1	4
621.582	1	-6
621.751	1	13
621.921	1	16
622.091	1	8
622.260	1	7
622.430	1	11
622.599	1	10
622.769	1	3
622.939	1	11
623.108	1	9
623.278	1	0
623.448	1	10
623.617	1	-2
623.787	1	11
623.956	1	5
624.126	1	6
624.296	1	7
624.465	1	8
624.635	1	16
624.804	1	8
624.974	1	3
625.144	1	15
625.313	1	4
625.483	1	5
625.652	1	2
625.822	1	3
625.992	1	-3
626.161	1	19
626.331	1	15
626.501	1	12
626.670	1	7
626.840	1	10
627.009	1	-3
627.179	1	14
627.348	1	14
627.518	1	4
627.688	1	10
627.857	1	11
628.027	1	1
628.196	1	13
628.366	1	8
628.536	1	10
628.705	1	6
628.875	1	6
629.044	1	14
629.214	1	11
629.384	1	16
629.553	1	11
629.723	1	13
629.892	1	-5
630.062	1	13
630.232	1	5
630.401	1	16
630.571	1	15
630.740	1	11
630.910	1	14
631.079	1	12
631.249	1	14
631.419	1	9
631.588	1	-5
631.758	1	8
631.927	1	6
632.097	1	12
632.266	1	9
632.436	1	8
632.606	1	7
632.775	1	11
632.945	1	10
633.114	1	10
633.284	1	10
633.453	1	4
633.623	1	-2
633.793	1	10
633.962	1	11
634.132	1	12
634.301	1	7
634.471	1	8
634.640	1	17
634.810	1	10
634.979	1	9
635.149	1	21
635.319	1	12
635.488	1	10
635.658	1	10
635.827	1	9
635.997	1	11
636.166	1	13
636.336	1	2
636.505	1	13
636.675	1	2
636.845	1	15
637.014	1	16
637.184	1	8
637.353	1	16
637.523	1	11
637.692	1	5
637.862	1	19
638.031	1	12
638.201	1	9
638.370	1	12
638.540	1	5
638.710	1	10
638.879	1	0
639.049	1	5
639.218	1	12
639.388	1	6
639.557	1	1
639.727	1	11
639.896	1	11
640.066	1	2
640.235	1	11
640.405	1	12
640.574	1	15
640.744	1	-3
640.914	1	15
641.083	1	4
641.253	1	7
641.422	1	4
641.592	1	18
641.761	1	22
641.931	1	6
642.100	1	32
642.270	1	5
642.439	1	14
642.609	1	17
642.778	1	10
642.948	1	8
643.117	1	20
643.287	1	15
643.456	1	2
643.626	1	16
643.795	1	14
643.965	1	18
644.134	1	8
644.304	1	12
644.473	1	19
644.643	1	20
644.812	1	4
644.982	1	13
645.151	1	9
645.321	1	3
645.490	1	18
645.660	1	8
645.829	1	9
645.999	1	8
646.168	1	16
646.338	1	17
646.507	1	11
646.677	1	11
646.846	1	8
647.016	1	0
647.185	1	14
647.355	1	-3
647.524	1	18
647.694	1	24
647.863	1	15
648.033	1	12
648.202	1	26
648.372	1	9
648.541	1	5
648.711	1	5
648.880	1	2
649.050	1	6
649.219	1	19
649.389	1	17
649.558	1	9
649.728	1	24
649.897	1	8
650.067	1	10
650.236	1	15
650.406	1	12
650.575	1	13
650.745	1	4
650.914	1	2
651.084	1	9
651.253	1	22
651.423	1	5
651.592	1	12
651.762	1	10
651.931	1	26
652.101	1	16
652.270	1	17
652.440	1	22
652.609	1	4
652.778	1	7
652.948	1	21
653.117	1	6
653.287	1	13
653.456	1	14
653.626	1	14
653.795	1	8
653.965	1	10
654.134	1	8
654.304	1	3
654.473	1	13
654.643	1	15
654.812	1	6
654.982	1	16
655.151	1	14
655.320	1	6
655.490	1	12
655.659	1	8
655.829	1	2
655.998	1	12
656.168	1	10
656.337	1	12
656.507	1	15
656.676	1	18
656.846	1	12
657.015	1	13
657.184	1	10
657.354	1	15
657.523	1	11
657.693	1	21
657.862	1	20
658.032	1	7
658.201	1	15
658.371	1	16
658.540	1	15
658.709	1	4
658.879	1	14
659.048	1	12
659.218	1	19
659.387	1	7
659.557	1	17
659.726	1	16
659.895	1	9
660.065	1	7
660.234	1	17
660.404	1	8
660.573	1	-1
660.743	1	16
660.912	1	20
661.081	1	24
661.251	1	13
661.420	1	20
661.590	1	20
661.759	1	18
661.929	1	23
662.098	1	18
662.267	1	21
662.437	1	18
662.606	1	5
662.776	1	15
662.945	1	9
663.115	1	13
663.284	1	1
663.453	1	27
663.623	1	14
663.792	1	17
663.962	1	6
664.131	1	23
664.300	1	26
664.470	1	17
664.639	1	18
664.809	1	15
664.978	1	21
665.148	1	16
665.317	1	15
665.486	1	21
665.656	1	14
665.825	1	25
665.995	1	5
666.164	1	10
666.333	1	22
666.503	1	12
666.672	1	5
666.842	1	11
667.011	1	5
667.180	1	20
667.350	1	9
667.519	1	16
667.689	1	20
667.858	1	14
668.027	1	20
668.197	1	16
668.366	1	-8
668.536	1	8
668.705	1	18
668.874	1	21
669.044	1	17
669.213	1	27
669.382	1	10
669.552	1	16
669.721	1	16
669.891	1	27
670.060	1	12
670.229	1	24
670.399	1	7
670.568	1	30
670.738	1	22
670.907	1	7
671.076	1	5
671.246	1	20
671.415	1	15
671.584	1	12
671.754	1	8
671.923	1	18
672.093	1	14
672.262	1	9
672.431	1	19
672.601	1	12
672.770	1	8
672.939	1	19
673.109	1	15
673.278	1	16
673.448	1	17
673.617	1	10
673.786	1	7
