325.333	1	32
325.504	1	29
325.675	1	37
325.846	1	34
326.017	1	37
326.188	1	39
326.359	1	30
326.531	1	35
326.702	1	30
326.873	1	43
327.044	1	33
327.215	1	36
327.386	1	38
327.557	1	27
327.728	1	36
327.899	1	42
328.070	1	56
328.241	1	42
328.412	1	27
328.583	1	44
328.754	1	37
328.926	1	58
329.097	1	31
329.268	1	55
329.439	1	36
329.610	1	55
329.781	1	31
329.952	1	50
330.123	1	50
330.294	1	46
330.465	1	46
330.636	1	65
330.807	1	40
330.978	1	46
331.149	1	46
331.320	1	47
331.492	1	46
331.663	1	50
331.834	1	50
332.005	1	46
332.176	1	58
332.347	1	56
332.518	1	44
332.689	1	64
332.860	1	55
333.031	1	58
333.202	1	55
333.373	1	50
333.544	1	56
333.715	1	66
333.886	1	52
334.057	1	56
334.228	1	42
334.399	1	54
334.570	1	69
334.741	1	51
334.912	1	60
335.084	1	81
335.255	1	70
335.426	1	62
335.597	1	57
335.768	1	71
335.939	1	65
336.110	1	61
336.281	1	57
336.452	1	59
336.623	1	69
336.794	1	61
336.965	1	61
337.136	1	77
337.307	1	63
337.478	1	59
337.649	1	60
337.820	1	66
337.991	1	60
338.162	1	81
338.333	1	68
338.504	1	84
338.675	1	74
338.846	1	69
339.017	1	54
339.188	1	70
339.359	1	62
339.530	1	68
339.701	1	67
339.872	1	85
340.043	1	69
340.214	1	71
340.385	1	86
340.556	1	67
340.727	1	74
340.898	1	89
341.069	1	82
341.240	1	80
341.411	1	85
341.582	1	85
341.753	1	64
341.924	1	79
342.095	1	83
342.266	1	93
342.437	1	84
342.608	1	83
342.779	1	85
342.950	1	96
343.121	1	92
343.292	1	80
343.463	1	102
343.634	1	82
343.805	1	97
343.976	1	93
344.147	1	87
344.318	1	89
344.489	1	92
344.660	1	97
344.831	1	95
345.002	1	82
345.173	1	103
345.344	1	101
345.515	1	96
345.686	1	94
345.857	1	97
346.028	1	104
346.199	1	91
346.370	1	92
346.541	1	97
346.712	1	96
346.883	1	102
347.054	1	100
347.225	1	98
347.396	1	106
347.567	1	99
347.738	1	95
347.909	1	110
348.080	1	104
348.251	1	110
348.422	1	109
348.593	1	116
348.764	1	103
348.935	1	101
349.106	1	108
349.277	1	99
349.448	1	129
349.619	1	121
349.790	1	118
349.961	1	125
350.132	1	113
350.303	1	116
350.474	1	128
350.645	1	114
350.816	1	126
350.987	1	116
351.157	1	107
351.328	1	130
351.499	1	127
351.670	1	115
351.841	1	135
352.012	1	119
352.183	1	129
352.354	1	120
352.525	1	137
352.696	1	123
352.867	1	122
353.038	1	146
353.209	1	130
353.380	1	126
353.551	1	109
353.722	1	129
353.893	1	129
354.064	1	143
354.235	1	122
354.406	1	133
354.576	1	130
354.747	1	133
354.918	1	133
355.089	1	131
355.260	1	135
355.431	1	129
355.602	1	125
355.773	1	127
355.944	1	136
356.115	1	130
356.286	1	130
356.457	1	148
356.628	1	149
356.799	1	140
356.970	1	156
357.141	1	138
357.311	1	128
357.482	1	143
357.653	1	128
357.824	1	154
357.995	1	138
358.166	1	136
358.337	1	129
358.508	1	146
358.679	1	149
358.850	1	156
359.021	1	143
359.192	1	155
359.363	1	134
359.533	1	134
359.704	1	145
359.875	1	146
360.046	1	162
360.217	1	142
360.388	1	139
360.559	1	146
360.730	1	157
360.901	1	141
361.072	1	159
361.243	1	147
361.414	1	153
361.584	1	144
361.755	1	151
361.926	1	157
362.097	1	148
362.268	1	150
362.439	1	148
362.610	1	166
362.781	1	149
362.952	1	141
363.123	1	160
363.293	1	150
363.464	1	163
363.635	1	152
363.806	1	150
363.977	1	159
364.148	1	157
364.319	1	166
364.490	1	163
364.661	1	177
364.832	1	157
365.002	1	158
365.173	1	171
365.344	1	156
365.515	1	161
365.686	1	152
365.857	1	170
366.028	1	166
366.199	1	167
366.370	1	185
366.540	1	166
366.711	1	163
366.882	1	162
367.053	1	173
367.224	1	178
367.395	1	178
367.566	1	176
367.737	1	176
367.908	1	179
368.078	1	175
368.249	1	167
368.420	1	175
368.591	1	164
368.762	1	170
368.933	1	165
369.104	1	156
369.274	1	173
369.445	1	180
369.616	1	175
369.787	1	192
369.958	1	177
370.129	1	165
370.300	1	175
370.471	1	163
370.641	1	170
370.812	1	190
370.983	1	161
371.154	1	163
371.325	1	181
371.496	1	162
371.667	1	176
371.837	1	172
372.008	1	160
372.179	1	178
372.350	1	181
372.521	1	180
372.692	1	183
372.863	1	189
373.033	1	172
373.204	1	173
373.375	1	188
373.546	1	192
373.717	1	176
373.888	1	188
374.059	1	190
374.229	1	185
374.400	1	177
374.571	1	173
374.742	1	193
374.913	1	182
375.084	1	176
375.254	1	188
375.425	1	198
375.596	1	193
375.767	1	190
375.938	1	198
376.109	1	195
376.279	1	190
376.450	1	187
376.621	1	195
376.792	1	186
376.963	1	189
377.134	1	206
377.304	1	200
377.475	1	202
377.646	1	180
377.817	1	195
377.988	1	188
378.159	1	199
378.329	1	205
378.500	1	199
378.671	1	193
378.842	1	185
379.013	1	185
379.184	1	199
379.354	1	198
379.525	1	209
379.696	1	204
379.867	1	208
380.038	1	198
380.209	1	215
380.379	1	207
380.550	1	197
380.721	1	204
380.892	1	204
381.063	1	203
381.233	1	211
381.404	1	204
381.575	1	211
381.746	1	210
381.917	1	213
382.087	1	200
382.258	1	201
382.429	1	202
382.600	1	212
382.771	1	204
382.941	1	207
383.112	1	206
383.283	1	217
383.454	1	201
383.625	1	221
383.795	1	219
383.966	1	227
384.137	1	221
384.308	1	215
384.479	1	220
384.649	1	238
384.820	1	226
384.991	1	218
385.162	1	234
385.333	1	223
385.503	1	221
385.674	1	204
385.845	1	224
386.016	1	229
386.187	1	224
386.357	1	229
386.528	1	221
386.699	1	225
386.870	1	233
387.041	1	230
387.211	1	245
387.382	1	238
387.553	1	225
387.724	1	221
387.894	1	248
388.065	1	215
388.236	1	243
388.407	1	223
388.578	1	234
388.748	1	238
388.919	1	243
389.090	1	230
389.261	1	228
389.431	1	234
389.602	1	239
389.773	1	236
389.944	1	233
390.114	1	249
390.285	1	240
390.456	1	232
390.627	1	229
390.798	1	231
390.968	1	239
391.139	1	247
391.310	1	230
391.481	1	247
391.651	1	233
391.822	1	229
391.993	1	249
392.164	1	221
392.334	1	241
392.505	1	222
392.676	1	252
392.847	1	227
393.017	1	234
393.188	1	241
393.359	1	222
393.530	1	239
393.700	1	242
393.871	1	234
394.042	1	239
394.213	1	234
394.383	1	237
394.554	1	239
394.725	1	261
394.896	1	237
395.066	1	254
395.237	1	237
395.408	1	247
395.579	1	244
395.749	1	250
395.920	1	248
396.091	1	250
396.262	1	238
396.432	1	236
396.603	1	253
396.774	1	251
396.945	1	251
397.115	1	241
397.286	1	256
397.457	1	266
397.627	1	250
397.798	1	250
397.969	1	234
398.140	1	238
398.310	1	251
398.481	1	237
398.652	1	257
398.823	1	238
398.993	1	248
399.164	1	241
399.335	1	268
399.505	1	247
399.676	1	241
399.847	1	249
400.018	1	249
400.188	1	257
400.359	1	255
400.530	1	243
400.700	1	256
400.871	1	241
401.042	1	246
401.213	1	259
401.383	1	254
401.554	1	256
401.725	1	254
401.895	1	248
402.066	1	252
402.237	1	252
402.408	1	262
402.578	1	260
402.749	1	251
402.920	1	248
403.090	1	246
403.261	1	252
403.432	1	242
403.603	1	257
403.773	1	259
403.944	1	252
404.115	1	263
404.285	1	261
404.456	1	248
404.627	1	241
404.797	1	252
404.968	1	237
405.139	1	254
405.310	1	252
405.480	1	251
405.651	1	250
405.822	1	255
405.992	1	249
406.163	1	252
406.334	1	253
406.504	1	249
406.675	1	268
406.846	1	253
407.016	1	265
407.187	1	254
407.358	1	256
407.528	1	261
407.699	1	245
407.870	1	270
408.041	1	257
408.211	1	286
408.382	1	259
408.553	1	262
408.723	1	263
408.894	1	258
409.065	1	257
409.235	1	270
409.406	1	265
409.577	1	252
409.747	1	275
409.918	1	262
410.089	1	274
410.259	1	266
410.430	1	257
410.601	1	270
410.771	1	265
410.942	1	273
411.113	1	263
411.283	1	264
411.454	1	254
411.625	1	268
411.795	1	254
411.966	1	276
412.137	1	265
412.307	1	248
412.478	1	261
412.649	1	254
412.819	1	262
412.990	1	247
413.161	1	251
413.331	1	247
413.502	1	270
413.672	1	261
413.843	1	250
414.014	1	251
414.184	1	256
414.355	1	244
414.526	1	268
414.696	1	256
414.867	1	272
415.038	1	245
415.208	1	259
415.379	1	250
415.550	1	256
415.720	1	248
415.891	1	240
416.062	1	254
416.232	1	251
416.403	1	248
416.573	1	264
416.744	1	252
416.915	1	262
417.085	1	243
417.256	1	259
417.427	1	234
417.597	1	256
417.768	1	252
417.939	1	246
418.109	1	240
418.280	1	251
418.450	1	248
418.621	1	246
418.792	1	264
418.962	1	258
419.133	1	265
419.304	1	253
419.474	1	247
419.645	1	244
419.815	1	259
419.986	1	245
420.157	1	244
420.327	1	253
420.498	1	246
420.669	1	245
420.839	1	250
421.010	1	254
421.180	1	251
421.351	1	248
421.522	1	247
421.692	1	259
421.863	1	251
422.033	1	256
422.204	1	230
422.375	1	242
422.545	1	250
422.716	1	221
422.886	1	232
423.057	1	253
423.228	1	248
423.398	1	226
423.569	1	221
423.740	1	231
423.910	1	227
424.081	1	236
424.251	1	222
424.422	1	235
424.593	1	236
424.763	1	220
424.934	1	239
425.104	1	233
425.275	1	222
425.445	1	233
425.616	1	240
425.787	1	227
425.957	1	232
426.128	1	228
426.298	1	245
426.469	1	223
426.640	1	241
426.810	1	230
426.981	1	232
427.151	1	225
427.322	1	218
427.493	1	215
427.663	1	232
427.834	1	224
428.004	1	224
428.175	1	226
428.345	1	225
428.516	1	220
428.687	1	221
428.857	1	211
429.028	1	224
429.198	1	225
429.369	1	239
429.540	1	228
429.710	1	217
429.881	1	234
430.051	1	223
430.222	1	226
430.392	1	224
430.563	1	241
430.734	1	235
430.904	1	230
431.075	1	224
431.245	1	214
431.416	1	228
431.586	1	228
431.757	1	217
431.927	1	230
432.098	1	229
432.269	1	218
432.439	1	221
432.610	1	214
432.780	1	227
432.951	1	215
433.121	1	215
433.292	1	232
433.462	1	237
433.633	1	228
433.804	1	225
433.974	1	222
434.145	1	235
434.315	1	221
434.486	1	213
434.656	1	239
434.827	1	213
434.997	1	203
435.168	1	225
435.339	1	225
435.509	1	223
435.680	1	215
435.850	1	222
436.021	1	229
436.191	1	217
436.362	1	215
436.532	1	211
436.703	1	219
436.873	1	219
437.044	1	205
437.214	1	205
437.385	1	194
437.556	1	213
437.726	1	217
437.897	1	211
438.067	1	204
438.238	1	188
438.408	1	219
438.579	1	193
438.749	1	212
438.920	1	196
439.090	1	213
439.261	1	206
439.431	1	194
439.602	1	205
439.772	1	199
439.943	1	207
440.113	1	206
440.284	1	202
440.455	1	205
440.625	1	186
440.796	1	197
440.966	1	195
441.137	1	188
441.307	1	195
441.478	1	202
441.648	1	188
441.819	1	197
441.989	1	184
442.160	1	190
442.330	1	191
442.501	1	186
442.671	1	190
442.842	1	188
443.012	1	195
443.183	1	191
443.353	1	179
443.524	1	195
443.694	1	191
443.865	1	185
444.035	1	195
444.206	1	206
444.376	1	180
444.547	1	198
444.717	1	191
444.888	1	183
445.058	1	186
445.229	1	192
445.399	1	178
445.570	1	187
445.740	1	175
445.911	1	183
446.081	1	192
446.252	1	194
446.422	1	190
446.593	1	187
446.763	1	173
446.934	1	182
447.104	1	191
447.275	1	192
447.445	1	199
447.616	1	197
447.786	1	187
447.957	1	187
448.127	1	182
448.298	1	192
448.468	1	187
448.639	1	180
448.809	1	196
448.979	1	173
449.150	1	187
449.320	1	176
449.491	1	190
449.661	1	170
449.832	1	178
450.002	1	191
450.173	1	184
450.343	1	174
450.514	1	167
450.684	1	177
450.855	1	175
451.025	1	175
451.196	1	185
451.366	1	184
451.537	1	160
451.707	1	158
451.878	1	169
452.048	1	182
452.218	1	180
452.389	1	187
452.559	1	154
452.730	1	182
452.900	1	159
453.071	1	153
453.241	1	157
453.412	1	152
453.582	1	164
453.753	1	166
453.923	1	170
454.093	1	179
454.264	1	171
454.434	1	158
454.605	1	153
454.775	1	157
454.946	1	166
455.116	1	149
455.287	1	147
455.457	1	145
455.628	1	150
455.798	1	160
455.968	1	154
456.139	1	151
456.309	1	159
456.480	1	151
456.650	1	139
456.821	1	148
456.991	1	147
457.161	1	144
457.332	1	148
457.502	1	137
457.673	1	158
457.843	1	143
458.014	1	149
458.184	1	145
458.355	1	148
458.525	1	150
458.695	1	142
458.866	1	167
459.036	1	142
459.207	1	141
459.377	1	138
459.548	1	147
459.718	1	134
459.888	1	138
460.059	1	142
460.229	1	140
460.400	1	151
460.570	1	148
460.740	1	146
460.911	1	149
461.081	1	147
461.252	1	135
461.422	1	132
461.593	1	152
461.763	1	134
461.933	1	146
462.104	1	134
462.274	1	145
462.445	1	137
462.615	1	136
462.785	1	143
462.956	1	147
463.126	1	142
463.297	1	141
463.467	1	142
463.638	1	143
463.808	1	135
463.978	1	122
464.149	1	135
464.319	1	119
464.490	1	153
464.660	1	134
464.830	1	134
465.001	1	137
465.171	1	130
465.342	1	139
465.512	1	135
465.682	1	133
465.853	1	135
466.023	1	122
466.194	1	138
466.364	1	137
466.534	1	125
466.705	1	120
466.875	1	125
467.045	1	119
467.216	1	134
467.386	1	121
467.557	1	119
467.727	1	109
467.897	1	120
468.068	1	129
468.238	1	123
468.409	1	127
468.579	1	122
468.749	1	129
468.920	1	117
469.090	1	133
469.260	1	122
469.431	1	118
469.601	1	129
469.772	1	111
469.942	1	107
470.112	1	116
470.283	1	111
470.453	1	129
470.623	1	114
470.794	1	109
470.964	1	127
471.135	1	121
471.305	1	113
471.475	1	121
471.646	1	113
471.816	1	112
471.986	1	120
472.157	1	126
472.327	1	118
472.497	1	110
472.668	1	107
472.838	1	115
473.009	1	118
473.179	1	112
473.349	1	112
473.520	1	126
473.690	1	108
473.860	1	103
474.031	1	104
474.201	1	124
474.371	1	120
474.542	1	107
474.712	1	107
474.882	1	116
475.053	1	129
475.223	1	110
475.394	1	125
475.564	1	124
475.734	1	107
475.905	1	114
476.075	1	113
476.245	1	113
476.416	1	124
476.586	1	110
476.756	1	114
476.927	1	103
477.097	1	121
477.267	1	104
477.438	1	110
477.608	1	103
477.778	1	103
477.949	1	105
478.119	1	106
478.289	1	116
478.460	1	115
478.630	1	106
478.800	1	106
478.971	1	106
479.141	1	104
479.311	1	104
479.482	1	105
479.652	1	101
479.822	1	98
479.993	1	103
480.163	1	114
480.333	1	113
480.504	1	98
480.674	1	99
480.844	1	102
481.015	1	105
481.185	1	103
481.355	1	110
481.525	1	110
481.696	1	102
481.866	1	95
482.036	1	101
482.207	1	97
482.377	1	105
482.547	1	119
482.718	1	100
482.888	1	110
483.058	1	102
483.229	1	92
483.399	1	98
483.569	1	101
483.740	1	112
483.910	1	101
484.080	1	95
484.250	1	89
484.421	1	96
484.591	1	100
484.761	1	104
484.932	1	92
485.102	1	104
485.272	1	105
485.443	1	99
485.613	1	95
485.783	1	92
485.953	1	80
486.124	1	92
486.294	1	85
486.464	1	91
486.635	1	90
486.805	1	105
486.975	1	87
487.146	1	91
487.316	1	98
487.486	1	96
487.656	1	78
487.827	1	85
487.997	1	81
488.167	1	82
488.338	1	82
488.508	1	71
488.678	1	75
488.848	1	94
489.019	1	79
489.189	1	80
489.359	1	77
489.529	1	92
489.700	1	83
489.870	1	98
490.040	1	75
490.211	1	78
490.381	1	82
490.551	1	82
490.721	1	85
490.892	1	78
491.062	1	88
491.232	1	95
491.402	1	78
491.573	1	67
491.743	1	79
491.913	1	88
492.084	1	87
492.254	1	82
492.424	1	77
492.594	1	83
492.765	1	86
492.935	1	85
493.105	1	87
493.275	1	83
493.446	1	91
493.616	1	88
493.786	1	72
493.956	1	78
494.127	1	87
494.297	1	75
494.467	1	81
494.637	1	79
494.808	1	73
494.978	1	75
495.148	1	76
495.318	1	81
495.489	1	84
495.659	1	78
495.829	1	84
495.999	1	68
496.170	1	80
496.340	1	85
496.510	1	76
496.680	1	69
496.851	1	69
497.021	1	65
497.191	1	66
497.361	1	82
497.532	1	61
497.702	1	75
497.872	1	59
498.042	1	76
498.213	1	68
498.383	1	68
498.553	1	66
498.723	1	80
498.894	1	67
499.064	1	61
499.234	1	70
499.404	1	70
499.574	1	72
499.745	1	82
499.915	1	72
500.085	1	63
500.255	1	70
500.426	1	70
500.596	1	65
500.766	1	70
500.936	1	66
501.106	1	60
501.277	1	68
501.447	1	69
501.617	1	69
501.787	1	64
501.958	1	58
502.128	1	67
502.298	1	69
502.468	1	69
502.638	1	60
502.809	1	70
502.979	1	55
503.149	1	61
503.319	1	60
503.489	1	54
503.660	1	66
503.830	1	74
504.000	1	73
504.170	1	64
504.340	1	60
504.511	1	74
504.681	1	64
504.851	1	60
505.021	1	68
505.192	1	53
505.362	1	66
505.532	1	68
505.702	1	56
505.872	1	67
506.043	1	60
506.213	1	57
506.383	1	60
506.553	1	62
506.723	1	68
506.893	1	57
507.064	1	58
507.234	1	54
507.404	1	58
507.574	1	62
507.744	1	60
507.915	1	56
508.085	1	71
508.255	1	59
508.425	1	58
508.595	1	77
508.766	1	58
508.936	1	49
509.106	1	58
509.276	1	61
509.446	1	49
509.616	1	54
509.787	1	59
509.957	1	54
510.127	1	61
510.297	1	68
510.467	1	55
510.638	1	48
510.808	1	44
510.978	1	44
511.148	1	65
511.318	1	59
511.488	1	50
511.659	1	57
511.829	1	48
511.999	1	53
512.169	1	56
512.339	1	51
512.509	1	54
512.680	1	48
512.850	1	60
513.020	1	59
513.190	1	57
513.360	1	50
513.530	1	59
513.700	1	59
513.871	1	53
514.041	1	51
514.211	1	57
514.381	1	59
514.551	1	52
514.721	1	47
514.892	1	55
515.062	1	43
515.232	1	57
515.402	1	35
515.572	1	37
515.742	1	51
515.912	1	62
516.083	1	44
516.253	1	59
516.423	1	44
516.593	1	47
516.763	1	62
516.933	1	51
517.104	1	50
517.274	1	54
517.444	1	51
517.614	1	41
517.784	1	49
517.954	1	54
518.124	1	52
518.294	1	40
518.465	1	46
518.635	1	49
518.805	1	38
518.975	1	48
519.145	1	46
519.315	1	39
519.485	1	53
519.656	1	65
519.826	1	52
519.996	1	38
520.166	1	47
520.336	1	59
520.506	1	45
520.676	1	39
520.846	1	56
521.017	1	54
521.187	1	42
521.357	1	48
521.527	1	38
521.697	1	48
521.867	1	40
522.037	1	42
522.207	1	48
522.377	1	48
522.548	1	41
522.718	1	50
522.888	1	59
523.058	1	48
523.228	1	42
523.398	1	42
523.568	1	39
523.738	1	38
523.909	1	40
524.079	1	40
524.249	1	52
524.419	1	45
524.589	1	41
524.759	1	44
524.929	1	42
525.099	1	46
525.269	1	46
525.439	1	40
525.610	1	52
525.780	1	41
525.950	1	47
526.120	1	40
526.290	1	46
526.460	1	26
526.630	1	44
526.800	1	43
526.970	1	38
527.140	1	42
527.311	1	36
527.481	1	34
527.651	1	51
527.821	1	29
527.991	1	54
528.161	1	44
528.331	1	39
528.501	1	45
528.671	1	45
528.841	1	32
529.011	1	35
529.181	1	46
529.352	1	37
529.522	1	39
529.692	1	36
529.862	1	39
530.032	1	41
530.202	1	42
530.372	1	35
530.542	1	35
530.712	1	35
530.882	1	44
531.052	1	40
531.222	1	41
531.392	1	34
531.563	1	42
531.733	1	46
531.903	1	37
532.073	1	40
532.243	1	41
532.413	1	44
532.583	1	40
532.753	1	30
532.923	1	36
533.093	1	34
533.263	1	34
533.433	1	36
533.603	1	42
533.773	1	37
533.943	1	47
534.113	1	38
534.284	1	36
534.454	1	39
534.624	1	43
534.794	1	28
534.964	1	46
535.134	1	40
535.304	1	40
535.474	1	42
535.644	1	29
535.814	1	38
535.984	1	32
536.154	1	36
536.324	1	25
536.494	1	39
536.664	1	29
536.834	1	32
537.004	1	34
537.174	1	41
537.344	1	42
537.514	1	35
537.685	1	35
537.855	1	44
538.025	1	40
538.195	1	35
538.365	1	40
538.535	1	37
538.705	1	37
538.875	1	32
539.045	1	38
539.215	1	38
539.385	1	40
539.555	1	34
539.725	1	42
539.895	1	35
540.065	1	55
540.235	1	34
540.405	1	34
540.575	1	32
540.745	1	28
540.915	1	43
541.085	1	46
541.255	1	20
541.425	1	43
541.595	1	34
541.765	1	33
541.935	1	35
542.105	1	19
542.275	1	34
542.445	1	20
542.615	1	35
542.785	1	36
542.955	1	32
543.125	1	27
543.295	1	36
543.465	1	36
543.635	1	36
543.805	1	40
543.975	1	34
544.145	1	33
544.315	1	26
544.485	1	43
544.655	1	32
544.825	1	17
544.995	1	33
545.165	1	29
545.335	1	28
545.505	1	22
545.675	1	32
545.845	1	37
546.015	1	30
546.185	1	28
546.355	1	30
546.525	1	25
546.695	1	38
546.865	1	26
547.035	1	32
547.205	1	22
547.375	1	36
547.545	1	29
547.715	1	30
547.885	1	29
548.055	1	21
548.225	1	36
548.395	1	26
548.565	1	20
548.735	1	33
548.905	1	32
549.075	1	27
549.245	1	32
549.415	1	18
549.585	1	16
549.755	1	33
549.925	1	16
550.095	1	25
550.265	1	30
550.435	1	26
550.605	1	21
550.775	1	39
550.945	1	30
551.115	1	21
551.285	1	24
551.455	1	19
551.625	1	20
551.795	1	33
551.965	1	29
552.135	1	21
552.305	1	20
552.475	1	22
552.645	1	18
552.815	1	22
552.985	1	38
553.155	1	23
553.325	1	40
553.495	1	22
553.665	1	12
553.835	1	24
554.004	1	17
554.174	1	21
554.344	1	20
554.514	1	27
554.684	1	20
554.854	1	25
555.024	1	21
555.194	1	20
555.364	1	31
555.534	1	16
555.704	1	18
555.874	1	24
556.044	1	28
556.214	1	14
556.384	1	29
556.554	1	26
556.724	1	31
556.894	1	26
557.064	1	33
557.234	1	29
557.404	1	20
557.573	1	30
557.743	1	22
557.913	1	12
558.083	1	17
558.253	1	32
558.423	1	24
558.593	1	35
558.763	1	16
558.933	1	22
559.103	1	34
559.273	1	19
559.443	1	29
559.613	1	26
559.783	1	19
559.953	1	15
560.122	1	24
560.292	1	17
560.462	1	19
560.632	1	30
560.802	1	24
560.972	1	28
561.142	1	26
561.312	1	15
561.482	1	21
561.652	1	29
561.822	1	12
561.992	1	24
562.162	1	18
562.331	1	25
562.501	1	11
562.671	1	19
562.841	1	13
563.011	1	31
563.181	1	22
563.351	1	8
563.521	1	14
563.691	1	19
563.861	1	17
564.031	1	26
564.201	1	33
564.370	1	10
564.540	1	16
564.710	1	10
564.880	1	26
565.050	1	23
565.220	1	12
565.390	1	22
565.560	1	29
565.730	1	20
565.900	1	18
566.069	1	19
566.239	1	23
566.409	1	19
566.579	1	24
566.749	1	17
566.919	1	23
567.089	1	16
567.259	1	30
567.429	1	26
567.599	1	23
567.768	1	23
567.938	1	14
568.108	1	15
568.278	1	13
568.448	1	7
568.618	1	10
568.788	1	18
568.958	1	25
569.128	1	16
569.297	1	11
569.467	1	23
569.637	1	24
569.807	1	22
569.977	1	22
570.147	1	26
570.317	1	10
570.487	1	15
570.656	1	29
570.826	1	12
570.996	1	15
571.166	1	23
571.336	1	14
571.506	1	30
571.676	1	22
571.846	1	16
572.015	1	15
572.185	1	13
572.355	1	15
572.525	1	22
572.695	1	16
572.865	1	4
573.035	1	22
573.205	1	20
573.374	1	9
573.544	1	16
573.714	1	24
573.884	1	26
574.054	1	19
574.224	1	13
574.394	1	11
574.563	1	9
574.733	1	16
574.903	1	11
575.073	1	14
575.243	1	8
575.413	1	21
575.583	1	8
575.752	1	16
575.922	1	16
576.092	1	15
576.262	1	15
576.432	1	23
576.602	1	15
576.772	1	29
576.941	1	14
577.111	1	9
577.281	1	15
577.451	1	8
577.621	1	18
577.791	1	23
577.960	1	12
578.130	1	16
578.300	1	20
578.470	1	24
578.640	1	18
578.810	1	14
578.979	1	14
579.149	1	11
579.319	1	11
579.489	1	11
579.659	1	8
579.829	1	16
579.998	1	31
580.168	1	25
580.338	1	18
580.508	1	15
580.678	1	15
580.848	1	6
581.017	1	16
581.187	1	10
581.357	1	2
581.527	1	23
581.697	1	23
581.867	1	15
582.036	1	18
582.206	1	7
582.376	1	25
582.546	1	13
582.716	1	5
582.885	1	10
583.055	1	13
583.225	1	9
583.395	1	24
583.565	1	4
583.735	1	27
583.904	1	22
584.074	1	11
584.244	1	17
584.414	1	15
584.584	1	23
584.753	1	11
584.923	1	16
585.093	1	8
585.263	1	21
585.433	1	23
585.602	1	20
585.772	1	15
585.942	1	10
586.112	1	17
586.282	1	16
586.451	1	11
586.621	1	8
586.791	1	7
586.961	1	18
587.131	1	15
587.300	1	14
587.470	1	22
587.640	1	18
587.810	1	10
587.980	1	15
588.149	1	19
588.319	1	23
588.489	1	14
588.659	1	23
588.829	1	14
588.998	1	31
589.168	1	12
589.338	1	23
589.508	1	31
589.677	1	8
589.847	1	12
590.017	1	34
590.187	1	19
590.357	1	28
590.526	1	16
590.696	1	11
590.866	1	24
591.036	1	11
591.205	1	22
591.375	1	17
591.545	1	9
591.715	1	29
591.885	1	12
592.054	1	16
592.224	1	21
592.394	1	17
592.564	1	10
592.733	1	23
592.903	1	11
593.073	1	18
593.243	1	24
593.412	1	27
593.582	1	22
593.752	1	12
593.922	1	25
594.091	1	15
594.261	1	14
594.431	1	16
594.601	1	25
594.771	1	18
594.940	1	20
595.110	1	8
595.280	1	19
595.450	1	10
595.619	1	16
595.789	1	12
595.959	1	15
596.129	1	19
596.298	1	9
596.468	1	19
596.638	1	27
596.808	1	13
596.977	1	18
597.147	1	21
597.317	1	11
597.487	1	20
597.656	1	14
597.826	1	19
597.996	1	20
598.166	1	14
598.335	1	11
598.505	1	15
598.675	1	12
598.844	1	27
599.014	1	17
599.184	1	17
599.354	1	14
599.523	1	28
599.693	1	21
599.863	1	27
600.033	1	16
600.202	1	14
600.372	1	24
600.542	1	31
600.712	1	15
600.881	1	16
601.051	1	28
601.221	1	25
601.390	1	14
601.560	1	25
601.730	1	30
601.900	1	18
602.069	1	22
602.239	1	6
602.409	1	9
602.578	1	15
602.748	1	17
602.918	1	26
603.088	1	22
603.257	1	31
603.427	1	17
603.597	1	14
603.767	1	27
603.936	1	23
604.106	1	18
604.276	1	13
604.445	1	18
604.615	1	16
604.785	1	20
604.954	1	19
605.124	1	16
605.294	1	21
605.464	1	12
605.633	1	24
605.803	1	23
605.973	1	22
606.142	1	19
606.312	1	13
606.482	1	11
606.652	1	22
606.821	1	14
606.991	1	16
607.161	1	22
607.330	1	20
607.500	1	20
607.670	1	16
607.839	1	22
608.009	1	29
608.179	1	29
608.348	1	23
608.518	1	21
608.688	1	24
608.858	1	20
609.027	1	9
609.197	1	24
609.367	1	29
609.536	1	17
609.706	1	18
609.876	1	23
610.045	1	14
610.215	1	13
610.385	1	15
610.554	1	18
610.724	1	15
610.894	1	18
611.063	1	22
611.233	1	19
611.403	1	13
611.572	1	21
611.742	1	21
611.912	1	19
612.081	1	10
612.251	1	26
612.421	1	23
612.590	1	19
612.760	1	20
612.930	1	19
613.099	1	33
613.269	1	28
613.439	1	27
613.608	1	21
613.778	1	29
613.948	1	13
614.117	1	28
614.287	1	28
614.457	1	18
614.626	1	20
614.796	1	24
614.966	1	24
615.135	1	25
615.305	1	37
615.475	1	23
615.644	1	21
615.814	1	26
615.984	1	12
616.153	1	16
616.323	1	20
616.493	1	27
616.662	1	32
616.832	1	16
617.002	1	16
617.171	1	18
617.341	1	29
617.511	1	16
617.680	1	17
617.850	1	36
618.019	1	25
618.189	1	28
618.359	1	28
618.528	1	19
618.698	1	24
618.868	1	16
619.037	1	25
619.207	1	14
619.377	1	21
619.546	1	20
619.716	1	27
619.885	1	21
620.055	1	11
620.225	1	20
620.394	1	12
620.564	1	25
620.734	1	26
620.903	1	20
621.073	1	30
621.242	1	27
621.412	1	18
621.582	1	22
621.751	1	31
621.921	1	20
622.091	1	16
622.260	1	25
622.430	1	22
622.599	1	26
622.769	1	30
622.939	1	26
623.108	1	26
623.278	1	21
623.448	1	28
623.617	1	25
623.787	1	37
623.956	1	17
624.126	1	18
624.296	1	29
624.465	1	24
624.635	1	29
624.804	1	32
624.974	1	26
625.144	1	29
625.313	1	37
625.483	1	16
625.652	1	30
625.822	1	24
625.992	1	26
626.161	1	31
626.331	1	25
626.501	1	28
626.670	1	25
626.840	1	20
627.009	1	20
627.179	1	25
627.348	1	26
627.518	1	25
627.688	1	29
627.857	1	40
628.027	1	20
628.196	1	27
628.366	1	34
628.536	1	30
628.705	1	17
628.875	1	38
629.044	1	19
629.214	1	39
629.384	1	35
629.553	1	33
629.723	1	39
629.892	1	32
630.062	1	23
630.232	1	31
630.401	1	36
630.571	1	23
630.740	1	31
630.910	1	41
631.079	1	21
631.249	1	36
631.419	1	33
631.588	1	18
631.758	1	48
631.927	1	23
632.097	1	24
632.266	1	32
632.436	1	25
632.606	1	30
632.775	1	32
632.945	1	35
633.114	1	44
633.284	1	37
633.453	1	24
633.623	1	31
633.793	1	36
633.962	1	33
634.132	1	39
634.301	1	39
634.471	1	38
634.640	1	37
634.810	1	31
634.979	1	34
635.149	1	37
635.319	1	28
635.488	1	36
635.658	1	32
635.827	1	24
635.997	1	33
636.166	1	34
636.336	1	31
636.505	1	35
636.675	1	35
636.845	1	32
637.014	1	34
637.184	1	32
637.353	1	34
637.523	1	37
637.692	1	29
637.862	1	40
638.031	1	42
638.201	1	34
638.370	1	37
638.540	1	37
638.710	1	29
638.879	1	24
639.049	1	30
639.218	1	34
639.388	1	30
639.557	1	38
639.727	1	35
639.896	1	40
640.066	1	30
640.235	1	39
640.405	1	39
640.574	1	34
640.744	1	24
640.914	1	33
641.083	1	27
641.253	1	38
641.422	1	36
641.592	1	39
641.761	1	31
641.931	1	40
642.100	1	53
642.270	1	30
642.439	1	41
642.609	1	41
642.778	1	43
642.948	1	37
643.117	1	47
643.287	1	35
643.456	1	39
643.626	1	48
643.795	1	38
643.965	1	35
644.134	1	28
644.304	1	45
644.473	1	42
644.643	1	50
644.812	1	29
644.982	1	36
645.151	1	39
645.321	1	32
645.490	1	51
645.660	1	32
645.829	1	40
645.999	1	36
646.168	1	43
646.338	1	36
646.507	1	49
646.677	1	43
646.846	1	37
647.016	1	30
647.185	1	48
647.355	1	21
647.524	1	55
647.694	1	55
647.863	1	43
648.033	1	42
648.202	1	48
648.372	1	32
648.541	1	31
648.711	1	35
648.880	1	36
649.050	1	46
649.219	1	37
649.389	1	45
649.558	1	37
649.728	1	42
649.897	1	38
650.067	1	44
650.236	1	48
650.406	1	47
650.575	1	52
650.745	1	52
650.914	1	39
651.084	1	39
651.253	1	42
651.423	1	50
651.592	1	49
651.762	1	35
651.931	1	53
652.101	1	50
652.270	1	51
652.440	1	47
652.609	1	41
652.778	1	32
652.948	1	46
653.117	1	53
653.287	1	40
653.456	1	38
653.626	1	44
653.795	1	48
653.965	1	47
654.134	1	55
654.304	1	44
654.473	1	40
654.643	1	43
654.812	1	46
654.982	1	46
655.151	1	44
655.320	1	43
655.490	1	39
655.659	1	43
655.829	1	45
655.998	1	47
656.168	1	39
656.337	1	48
656.507	1	50
656.676	1	45
656.846	1	47
657.015	1	54
657.184	1	48
657.354	1	44
657.523	1	48
657.693	1	45
657.862	1	51
658.032	1	38
658.201	1	50
658.371	1	51
658.540	1	43
658.709	1	41
658.879	1	45
659.048	1	45
659.218	1	34
659.387	1	48
659.557	1	51
659.726	1	47
659.895	1	49
660.065	1	43
660.234	1	48
660.404	1	51
660.573	1	38
660.743	1	48
660.912	1	48
661.081	1	51
661.251	1	46
661.420	1	40
661.590	1	47
661.759	1	46
661.929	1	51
662.098	1	56
662.267	1	47
662.437	1	56
662.606	1	51
662.776	1	51
662.945	1	51
663.115	1	49
663.284	1	45
663.453	1	55
663.623	1	46
663.792	1	43
663.962	1	45
664.131	1	60
664.300	1	52
664.470	1	51
664.639	1	62
664.809	1	49
664.978	1	57
665.148	1	47
665.317	1	52
665.486	1	53
665.656	1	39
665.825	1	57
665.995	1	47
666.164	1	48
666.333	1	47
666.503	1	36
666.672	1	39
666.842	1	49
667.011	1	43
667.180	1	56
667.350	1	45
667.519	1	52
667.689	1	46
667.858	1	52
668.027	1	49
668.197	1	45
668.366	1	43
668.536	1	40
668.705	1	54
668.874	1	55
669.044	1	54
669.213	1	54
669.382	1	37
669.552	1	50
669.721	1	43
669.891	1	62
670.060	1	47
670.229	1	67
670.399	1	34
670.568	1	52
670.738	1	61
670.907	1	34
671.076	1	33
671.246	1	44
671.415	1	53
671.584	1	56
671.754	1	48
671.923	1	48
672.093	1	55
672.262	1	45
672.431	1	58
672.601	1	51
672.770	1	49
672.939	1	47
673.109	1	45
673.278	1	51
673.448	1	60
673.617	1	52
673.786	1	62
