325.333	1	-6
325.504	1	4
325.675	1	2
325.846	1	5
326.017	1	-2
326.188	1	2
326.359	1	-9
326.531	1	-14
326.702	1	-1
326.873	1	9
327.044	1	0
327.215	1	3
327.386	1	6
327.557	1	6
327.728	1	3
327.899	1	6
328.070	1	14
328.241	1	7
328.412	1	-3
328.583	1	8
328.754	1	0
328.926	1	6
329.097	1	-4
329.268	1	13
329.439	1	-2
329.610	1	4
329.781	1	-9
329.952	1	12
330.123	1	4
330.294	1	-3
330.465	1	4
330.636	1	9
330.807	1	-4
330.978	1	-2
331.149	1	-1
331.320	1	-8
331.492	1	0
331.663	1	-6
331.834	1	9
332.005	1	7
332.176	1	12
332.347	1	9
332.518	1	-3
332.689	1	5
332.860	1	2
333.031	1	5
333.202	1	-5
333.373	1	1
333.544	1	6
333.715	1	4
333.886	1	-7
334.057	1	5
334.228	1	-2
334.399	1	4
334.570	1	15
334.741	1	-1
334.912	1	3
335.084	1	14
335.255	1	4
335.426	1	-9
335.597	1	1
335.768	1	-2
335.939	1	13
336.110	1	1
336.281	1	-7
336.452	1	-4
336.623	1	1
336.794	1	6
336.965	1	6
337.136	1	6
337.307	1	-4
337.478	1	-6
337.649	1	0
337.820	1	2
337.991	1	4
338.162	1	0
338.333	1	13
338.504	1	3
338.675	1	4
338.846	1	2
339.017	1	-3
339.188	1	2
339.359	1	-4
339.530	1	1
339.701	1	6
339.872	1	14
340.043	1	-9
340.214	1	7
340.385	1	10
340.556	1	-9
340.727	1	7
340.898	1	1
341.069	1	3
341.240	1	9
341.411	1	5
341.582	1	6
341.753	1	-5
341.924	1	-5
342.095	1	3
342.266	1	15
342.437	1	-2
342.608	1	-1
342.779	1	3
342.950	1	1
343.121	1	5
343.292	1	-8
343.463	1	3
343.634	1	0
343.805	1	8
343.976	1	0
344.147	1	4
344.318	1	3
344.489	1	7
344.660	1	9
344.831	1	6
345.002	1	-9
345.173	1	7
345.344	1	2
345.515	1	9
345.686	1	4
345.857	1	3
346.028	1	-5
346.199	1	-2
346.370	1	3
346.541	1	-6
346.712	1	1
346.883	1	1
347.054	1	0
347.225	1	3
347.396	1	4
347.567	1	1
347.738	1	-9
347.909	1	7
348.080	1	-7
348.251	1	8
348.422	1	14
348.593	1	5
348.764	1	0
348.935	1	1
349.106	1	-2
349.277	1	0
349.448	1	7
349.619	1	-1
349.790	1	4
349.961	1	5
350.132	1	10
350.303	1	-3
350.474	1	14
350.645	1	8
350.816	1	5
350.987	1	5
351.157	1	-1
351.328	1	1
351.499	1	3
351.670	1	-1
351.841	1	6
352.012	1	16
352.183	1	15
352.354	1	14
352.525	1	10
352.696	1	6
352.867	1	-3
353.038	1	10
353.209	1	11
353.380	1	7
353.551	1	-9
353.722	1	-2
353.893	1	0
354.064	1	14
354.235	1	4
354.406	1	-5
354.576	1	-8
354.747	1	-3
354.918	1	1
355.089	1	-3
355.260	1	6
355.431	1	10
355.602	1	-2
355.773	1	5
355.944	1	6
356.115	1	4
356.286	1	2
356.457	1	-3
356.628	1	0
356.799	1	13
356.970	1	10
357.141	1	5
357.311	1	-3
357.482	1	1
357.653	1	-2
357.824	1	17
357.995	1	2
358.166	1	-12
358.337	1	2
358.508	1	10
358.679	1	0
358.850	1	2
359.021	1	-2
359.192	1	10
359.363	1	2
359.533	1	2
359.704	1	-2
359.875	1	-3
360.046	1	0
360.217	1	1
360.388	1	3
360.559	1	-4
360.730	1	-1
360.901	1	-2
361.072	1	8
361.243	1	-2
361.414	1	-1
361.584	1	0
361.755	1	-2
361.926	1	-1
362.097	1	6
362.268	1	6
362.439	1	0
362.610	1	8
362.781	1	-3
362.952	1	-2
363.123	1	-6
363.293	1	-4
363.464	1	9
363.635	1	4
363.806	1	-3
363.977	1	6
364.148	1	8
364.319	1	5
364.490	1	-1
364.661	1	-3
364.832	1	7
365.002	1	1
365.173	1	10
365.344	1	11
365.515	1	3
365.686	1	2
365.857	1	4
366.028	1	15
366.199	1	-1
366.370	1	2
366.540	1	-6
366.711	1	-9
366.882	1	2
367.053	1	-2
367.224	1	21
367.395	1	5
367.566	1	8
367.737	1	9
367.908	1	11
368.078	1	1
368.249	1	7
368.420	1	1
368.591	1	2
368.762	1	7
368.933	1	-2
369.104	1	-7
369.274	1	4
369.445	1	2
369.616	1	5
369.787	1	2
369.958	1	9
370.129	1	-4
370.300	1	11
370.471	1	-10
370.641	1	-2
370.812	1	6
370.983	1	4
371.154	1	-6
371.325	1	6
371.496	1	0
371.667	1	5
371.837	1	-6
372.008	1	-2
372.179	1	0
372.350	1	11
372.521	1	-5
372.692	1	-3
372.863	1	5
373.033	1	-10
373.204	1	1
373.375	1	8
373.546	1	12
373.717	1	7
373.888	1	7
374.059	1	8
374.229	1	1
374.400	1	1
374.571	1	2
374.742	1	0
374.913	1	6
375.084	1	2
375.254	1	5
375.425	1	-2
375.596	1	14
375.767	1	7
375.938	1	6
376.109	1	-3
376.279	1	-8
376.450	1	3
376.621	1	-3
376.792	1	-6
376.963	1	3
377.134	1	2
377.304	1	6
377.475	1	1
377.646	1	8
377.817	1	3
377.988	1	-2
378.159	1	7
378.329	1	8
378.500	1	3
378.671	1	5
378.842	1	-3
379.013	1	-11
379.184	1	-11
379.354	1	4
379.525	1	2
379.696	1	9
379.867	1	7
380.038	1	3
380.209	1	10
380.379	1	3
380.550	1	-5
380.721	1	9
380.892	1	6
381.063	1	-1
381.233	1	4
381.404	1	-2
381.575	1	13
381.746	1	6
381.917	1	-3
382.087	1	9
382.258	1	7
382.429	1	0
382.600	1	11
382.771	1	2
382.941	1	-6
383.112	1	2
383.283	1	6
383.454	1	-4
383.625	1	3
383.795	1	8
383.966	1	5
384.137	1	7
384.308	1	-3
384.479	1	5
384.649	1	0
384.820	1	-8
384.991	1	-7
385.162	1	1
385.333	1	-3
385.503	1	-5
385.674	1	-2
385.845	1	5
386.016	1	1
386.187	1	1
386.357	1	8
386.528	1	0
386.699	1	4
386.870	1	16
387.041	1	-1
387.211	1	3
387.382	1	16
387.553	1	4
387.724	1	0
387.894	1	13
388.065	1	3
388.236	1	1
388.407	1	2
388.578	1	-4
388.748	1	0
388.919	1	11
389.090	1	6
389.261	1	5
389.431	1	7
389.602	1	2
389.773	1	10
389.944	1	5
390.114	1	2
390.285	1	4
390.456	1	1
390.627	1	4
390.798	1	11
390.968	1	-3
391.139	1	6
391.310	1	3
391.481	1	6
391.651	1	4
391.822	1	-13
391.993	1	2
392.164	1	1
392.334	1	0
392.505	1	0
392.676	1	9
392.847	1	10
393.017	1	12
393.188	1	9
393.359	1	4
393.530	1	3
393.700	1	2
393.871	1	-5
394.042	1	-3
394.213	1	1
394.383	1	12
394.554	1	4
394.725	1	2
394.896	1	0
395.066	1	3
395.237	1	-9
395.408	1	-4
395.579	1	-3
395.749	1	5
395.920	1	5
396.091	1	8
396.262	1	-4
396.432	1	5
396.603	1	7
396.774	1	5
396.945	1	5
397.115	1	0
397.286	1	4
397.457	1	-1
397.627	1	3
397.798	1	10
397.969	1	-1
398.140	1	-5
398.310	1	7
398.481	1	5
398.652	1	0
398.823	1	-5
398.993	1	-1
399.164	1	-3
399.335	1	4
399.505	1	2
399.676	1	-1
399.847	1	3
400.018	1	-7
400.188	1	6
400.359	1	6
400.530	1	-4
400.700	1	0
400.871	1	-6
401.042	1	1
401.213	1	0
401.383	1	-4
401.554	1	13
401.725	1	7
401.895	1	-1
402.066	1	5
402.237	1	10
402.408	1	14
402.578	1	9
402.749	1	5
402.920	1	1
403.090	1	-3
403.261	1	2
403.432	1	5
403.603	1	6
403.773	1	14
403.944	1	13
404.115	1	8
404.285	1	17
404.456	1	1
404.627	1	7
404.797	1	-4
404.968	1	4
405.139	1	0
405.310	1	11
405.480	1	5
405.651	1	3
405.822	1	-8
405.992	1	-6
406.163	1	9
406.334	1	-10
406.504	1	5
406.675	1	11
406.846	1	2
407.016	1	9
407.187	1	14
407.358	1	0
407.528	1	-8
407.699	1	-5
407.870	1	-4
408.041	1	0
408.211	1	12
408.382	1	-4
408.553	1	-7
408.723	1	7
408.894	1	4
409.065	1	5
409.235	1	4
409.406	1	2
409.577	1	-7
409.747	1	21
409.918	1	-4
410.089	1	5
410.259	1	5
410.430	1	6
410.601	1	1
410.771	1	3
410.942	1	3
411.113	1	5
411.283	1	-3
411.454	1	0
411.625	1	-2
411.795	1	13
411.966	1	3
412.137	1	1
412.307	1	-7
412.478	1	4
412.649	1	8
412.819	1	-4
412.990	1	-1
413.161	1	1
413.331	1	-4
413.502	1	8
413.672	1	4
413.843	1	-1
414.014	1	3
414.184	1	2
414.355	1	-2
414.526	1	6
414.696	1	8
414.867	1	10
415.038	1	-4
415.208	1	6
415.379	1	14
415.550	1	7
415.720	1	7
415.891	1	-3
416.062	1	7
416.232	1	-2
416.403	1	1
416.573	1	3
416.744	1	-4
416.915	1	6
417.085	1	4
417.256	1	-1
417.427	1	2
417.597	1	4
417.768	1	-2
417.939	1	6
418.109	1	4
418.280	1	13
418.450	1	-5
418.621	1	-9
418.792	1	1
418.962	1	-1
419.133	1	17
419.304	1	1
419.474	1	-8
419.645	1	0
419.815	1	2
419.986	1	5
420.157	1	-2
420.327	1	4
420.498	1	8
420.669	1	2
420.839	1	2
421.010	1	5
421.180	1	8
421.351	1	6
421.522	1	4
421.692	1	4
421.863	1	-1
422.033	1	9
422.204	1	-4
422.375	1	1
422.545	1	17
422.716	1	-2
422.886	1	2
423.057	1	16
423.228	1	0
423.398	1	3
423.569	1	-2
423.740	1	-5
423.910	1	-5
424.081	1	7
424.251	1	-5
424.422	1	10
424.593	1	-10
424.763	1	5
424.934	1	5
425.104	1	10
425.275	1	-5
425.445	1	-6
425.616	1	-1
425.787	1	0
425.957	1	-1
426.128	1	7
426.298	1	10
426.469	1	-7
426.640	1	7
426.810	1	12
426.981	1	5
427.151	1	-4
427.322	1	-2
427.493	1	5
427.663	1	0
427.834	1	-3
428.004	1	1
428.175	1	3
428.345	1	7
428.516	1	-10
428.687	1	11
428.857	1	-4
429.028	1	-2
429.198	1	5
429.369	1	16
429.540	1	5
429.710	1	-9
429.881	1	4
430.051	1	4
430.222	1	4
430.392	1	-1
430.563	1	14
430.734	1	9
430.904	1	9
431.075	1	3
431.245	1	-6
431.416	1	12
431.586	1	4
431.757	1	9
431.927	1	5
432.098	1	6
432.269	1	0
432.439	1	1
432.610	1	2
432.780	1	5
432.951	1	-1
433.121	1	4
433.292	1	17
433.462	1	10
433.633	1	2
433.804	1	4
433.974	1	1
434.145	1	16
434.315	1	-1
434.486	1	5
434.656	1	7
434.827	1	-5
434.997	1	-4
435.168	1	12
435.339	1	5
435.509	1	4
435.680	1	0
435.850	1	8
436.021	1	-1
436.191	1	2
436.362	1	2
436.532	1	-2
436.703	1	-1
436.873	1	10
437.044	1	-14
437.214	1	4
437.385	1	-6
437.556	1	0
437.726	1	9
437.897	1	10
438.067	1	0
438.238	1	-7
438.408	1	8
438.579	1	-11
438.749	1	-4
438.920	1	-2
439.090	1	-1
439.261	1	-4
439.431	1	7
439.602	1	0
439.772	1	4
439.943	1	11
440.113	1	1
440.284	1	7
440.455	1	-4
440.625	1	3
440.796	1	4
440.966	1	0
441.137	1	3
441.307	1	4
441.478	1	14
441.648	1	4
441.819	1	1
441.989	1	3
442.160	1	14
442.330	1	0
442.501	1	-3
442.671	1	-3
442.842	1	0
443.012	1	1
443.183	1	6
443.353	1	-9
443.524	1	-6
443.694	1	14
443.865	1	0
444.035	1	1
444.206	1	1
444.376	1	-3
444.547	1	12
444.717	1	1
444.888	1	2
445.058	1	10
445.229	1	5
445.399	1	-4
445.570	1	2
445.740	1	-4
445.911	1	7
446.081	1	-1
446.252	1	7
446.422	1	0
446.593	1	0
446.763	1	6
446.934	1	-6
447.104	1	-6
447.275	1	2
447.445	1	7
447.616	1	-4
447.786	1	3
447.957	1	2
448.127	1	0
448.298	1	7
448.468	1	0
448.639	1	2
448.809	1	-5
448.979	1	4
449.150	1	4
449.320	1	3
449.491	1	9
449.661	1	0
449.832	1	6
450.002	1	8
450.173	1	0
450.343	1	10
450.514	1	-3
450.684	1	0
450.855	1	-5
451.025	1	4
451.196	1	-1
451.366	1	-3
451.537	1	-5
451.707	1	-8
451.878	1	6
452.048	1	12
452.218	1	6
452.389	1	8
452.559	1	-5
452.730	1	7
452.900	1	5
453.071	1	-8
453.241	1	7
453.412	1	3
453.582	1	-2
453.753	1	11
453.923	1	3
454.093	1	15
454.264	1	15
454.434	1	-2
454.605	1	-4
454.775	1	-4
454.946	1	5
455.116	1	11
455.287	1	-5
455.457	1	-8
455.628	1	2
455.798	1	9
455.968	1	12
456.139	1	1
456.309	1	4
456.480	1	-1
456.650	1	5
456.821	1	-5
456.991	1	4
457.161	1	4
457.332	1	8
457.502	1	-10
457.673	1	5
457.843	1	11
458.014	1	5
458.184	1	-4
458.355	1	4
458.525	1	8
458.695	1	4
458.866	1	3
459.036	1	1
459.207	1	0
459.377	1	-10
459.548	1	13
459.718	1	-8
459.888	1	5
460.059	1	7
460.229	1	10
460.400	1	6
460.570	1	-6
460.740	1	-8
460.911	1	6
461.081	1	-2
461.252	1	1
461.422	1	8
461.593	1	-8
461.763	1	9
461.933	1	5
462.104	1	-3
462.274	1	-8
462.445	1	5
462.615	1	-2
462.785	1	2
462.956	1	6
463.126	1	10
463.297	1	7
463.467	1	6
463.638	1	-1
463.808	1	-7
463.978	1	-9
464.149	1	-9
464.319	1	-6
464.490	1	19
464.660	1	-3
464.830	1	-2
465.001	1	11
465.171	1	10
465.342	1	15
465.512	1	-8
465.682	1	3
465.853	1	-1
466.023	1	11
466.194	1	-14
466.364	1	12
466.534	1	-2
466.705	1	-2
466.875	1	0
467.045	1	1
467.216	1	2
467.386	1	0
467.557	1	-3
467.727	1	-6
467.897	1	0
468.068	1	1
468.238	1	0
468.409	1	-1
468.579	1	3
468.749	1	-3
468.920	1	-7
469.090	1	7
469.260	1	-6
469.431	1	-3
469.601	1	5
469.772	1	11
469.942	1	1
470.112	1	11
470.283	1	1
470.453	1	6
470.623	1	-8
470.794	1	-1
470.964	1	5
471.135	1	4
471.305	1	-6
471.475	1	8
471.646	1	2
471.816	1	0
471.986	1	3
472.157	1	3
472.327	1	-5
472.497	1	8
472.668	1	-2
472.838	1	4
473.009	1	11
473.179	1	-1
473.349	1	-9
473.520	1	11
473.690	1	7
473.860	1	11
474.031	1	-1
474.201	1	1
474.371	1	7
474.542	1	7
474.712	1	8
474.882	1	10
475.053	1	7
475.223	1	-4
475.394	1	8
475.564	1	7
475.734	1	3
475.905	1	0
476.075	1	4
476.245	1	12
476.416	1	16
476.586	1	9
476.756	1	-3
476.927	1	14
477.097	1	1
477.267	1	-2
477.438	1	3
477.608	1	3
477.778	1	-2
477.949	1	7
478.119	1	6
478.289	1	12
478.460	1	15
478.630	1	1
478.800	1	8
478.971	1	6
479.141	1	-2
479.311	1	-10
479.482	1	4
479.652	1	9
479.822	1	1
479.993	1	3
480.163	1	0
480.333	1	0
480.504	1	6
480.674	1	-1
480.844	1	-1
481.015	1	6
481.185	1	-1
481.355	1	13
481.525	1	5
481.696	1	1
481.866	1	0
482.036	1	4
482.207	1	-1
482.377	1	-6
482.547	1	14
482.718	1	3
482.888	1	6
483.058	1	3
483.229	1	-6
483.399	1	4
483.569	1	-5
483.740	1	2
483.910	1	3
484.080	1	-1
484.250	1	4
484.421	1	3
484.591	1	8
484.761	1	9
484.932	1	10
485.102	1	5
485.272	1	5
485.443	1	11
485.613	1	-5
485.783	1	6
485.953	1	-1
486.124	1	7
486.294	1	8
486.464	1	10
486.635	1	5
486.805	1	11
486.975	1	3
487.146	1	0
487.316	1	-4
487.486	1	-2
487.656	1	-5
487.827	1	2
487.997	1	-9
488.167	1	6
488.338	1	10
488.508	1	3
488.678	1	-4
488.848	1	8
489.019	1	-3
489.189	1	1
489.359	1	8
489.529	1	9
489.700	1	6
489.870	1	15
490.040	1	-4
490.211	1	-2
490.381	1	10
490.551	1	1
490.721	1	6
490.892	1	6
491.062	1	2
491.232	1	8
491.402	1	-9
491.573	1	-7
491.743	1	0
491.913	1	-5
492.084	1	7
492.254	1	-2
492.424	1	-1
492.594	1	8
492.765	1	4
492.935	1	0
493.105	1	1
493.275	1	10
493.446	1	10
493.616	1	10
493.786	1	1
493.956	1	3
494.127	1	8
494.297	1	-4
494.467	1	-5
494.637	1	-3
494.808	1	4
494.978	1	-7
495.148	1	7
495.318	1	4
495.489	1	1
495.659	1	3
495.829	1	6
495.999	1	-11
496.170	1	18
496.340	1	7
496.510	1	9
496.680	1	-1
496.851	1	-1
497.021	1	5
497.191	1	-4
497.361	1	8
497.532	1	2
497.702	1	6
497.872	1	-5
498.042	1	-2
498.213	1	10
498.383	1	9
498.553	1	-3
498.723	1	0
498.894	1	5
499.064	1	12
499.234	1	7
499.404	1	12
499.574	1	12
499.745	1	10
499.915	1	-1
500.085	1	3
500.255	1	6
500.426	1	2
500.596	1	-1
500.766	1	1
500.936	1	5
501.106	1	-10
501.277	1	1
501.447	1	2
501.617	1	2
501.787	1	1
501.958	1	2
502.128	1	-10
502.298	1	4
502.468	1	1
502.638	1	1
502.809	1	4
502.979	1	-4
503.149	1	-6
503.319	1	-3
503.489	1	7
503.660	1	12
503.830	1	6
504.000	1	12
504.170	1	0
504.340	1	4
504.511	1	6
504.681	1	-6
504.851	1	-3
505.021	1	13
505.192	1	-4
505.362	1	8
505.532	1	-2
505.702	1	0
505.872	1	2
506.043	1	0
506.213	1	-3
506.383	1	4
506.553	1	6
506.723	1	5
506.893	1	-1
507.064	1	5
507.234	1	-4
507.404	1	-2
507.574	1	-3
507.744	1	-4
507.915	1	0
508.085	1	10
508.255	1	1
508.425	1	7
508.595	1	11
508.766	1	6
508.936	1	-14
509.106	1	12
509.276	1	7
509.446	1	-7
509.616	1	-2
509.787	1	7
509.957	1	11
510.127	1	2
510.297	1	7
510.467	1	-9
510.638	1	-3
510.808	1	-9
510.978	1	-1
511.148	1	-3
511.318	1	1
511.488	1	-7
511.659	1	5
511.829	1	-2
511.999	1	5
512.169	1	0
512.339	1	-4
512.509	1	5
512.680	1	2
512.850	1	0
513.020	1	-3
513.190	1	7
513.360	1	-2
513.530	1	3
513.700	1	4
513.871	1	2
514.041	1	1
514.211	1	9
514.381	1	7
514.551	1	3
514.721	1	-4
514.892	1	3
515.062	1	6
515.232	1	2
515.402	1	-5
515.572	1	-7
515.742	1	3
515.912	1	2
516.083	1	0
516.253	1	7
516.423	1	0
516.593	1	8
516.763	1	17
516.933	1	-7
517.104	1	-2
517.274	1	-6
517.444	1	-3
517.614	1	1
517.784	1	-5
517.954	1	-1
518.124	1	6
518.294	1	-8
518.465	1	-8
518.635	1	2
518.805	1	-11
518.975	1	3
519.145	1	-4
519.315	1	3
519.485	1	-3
519.656	1	14
519.826	1	1
519.996	1	-8
520.166	1	4
520.336	1	7
520.506	1	3
520.676	1	-2
520.846	1	10
521.017	1	0
521.187	1	-7
521.357	1	14
521.527	1	-2
521.697	1	-4
521.867	1	0
522.037	1	15
522.207	1	0
522.377	1	8
522.548	1	10
522.718	1	6
522.888	1	10
523.058	1	-2
523.228	1	11
523.398	1	5
523.568	1	6
523.738	1	-1
523.909	1	7
524.079	1	3
524.249	1	10
524.419	1	0
524.589	1	1
524.759	1	1
524.929	1	-1
525.099	1	9
525.269	1	9
525.439	1	2
525.610	1	10
525.780	1	4
525.950	1	8
526.120	1	-2
526.290	1	3
526.460	1	-7
526.630	1	1
526.800	1	4
526.970	1	0
527.140	1	9
527.311	1	-5
527.481	1	-1
527.651	1	10
527.821	1	1
527.991	1	15
528.161	1	4
528.331	1	-8
528.501	1	-1
528.671	1	-8
528.841	1	3
529.011	1	-9
529.181	1	0
529.352	1	8
529.522	1	-8
529.692	1	4
529.862	1	7
530.032	1	0
530.202	1	2
530.372	1	-5
530.542	1	9
530.712	1	-4
530.882	1	-1
531.052	1	5
531.222	1	-6
531.392	1	-1
531.563	1	5
531.733	1	9
531.903	1	7
532.073	1	17
532.243	1	-3
532.413	1	6
532.583	1	0
532.753	1	4
532.923	1	-7
533.093	1	8
533.263	1	0
533.433	1	4
533.603	1	5
533.773	1	1
533.943	1	2
534.113	1	7
534.284	1	-2
534.454	1	5
534.624	1	17
534.794	1	-1
534.964	1	7
535.134	1	0
535.304	1	3
535.474	1	7
535.644	1	0
535.814	1	-10
535.984	1	-5
536.154	1	-3
536.324	1	0
536.494	1	5
536.664	1	2
536.834	1	5
537.004	1	1
537.174	1	14
537.344	1	-3
537.514	1	-10
537.685	1	1
537.855	1	5
538.025	1	5
538.195	1	1
538.365	1	10
538.535	1	0
538.705	1	4
538.875	1	3
539.045	1	0
539.215	1	-1
539.385	1	16
539.555	1	14
539.725	1	-5
539.895	1	6
540.065	1	7
540.235	1	13
540.405	1	-6
540.575	1	-2
540.745	1	11
540.915	1	8
541.085	1	7
541.255	1	-12
541.425	1	13
541.595	1	6
541.765	1	6
541.935	1	-1
542.105	1	-1
542.275	1	-1
542.445	1	-13
542.615	1	13
542.785	1	8
542.955	1	-2
543.125	1	-7
543.295	1	8
543.465	1	9
543.635	1	1
543.805	1	12
543.975	1	-4
544.145	1	2
544.315	1	1
544.485	1	2
544.655	1	4
544.825	1	-7
544.995	1	11
545.165	1	-4
545.335	1	-1
545.505	1	-4
545.675	1	5
545.845	1	1
546.015	1	10
546.185	1	11
546.355	1	8
546.525	1	11
546.695	1	-1
546.865	1	-1
547.035	1	7
547.205	1	-7
547.375	1	1
547.545	1	6
547.715	1	2
547.885	1	12
548.055	1	-2
548.225	1	8
548.395	1	0
548.565	1	3
548.735	1	3
548.905	1	-1
549.075	1	5
549.245	1	-3
549.415	1	-2
549.585	1	6
549.755	1	7
549.925	1	-13
550.095	1	0
550.265	1	-5
550.435	1	2
550.605	1	6
550.775	1	13
550.945	1	3
551.115	1	0
551.285	1	-4
551.455	1	-6
551.625	1	3
551.795	1	10
551.965	1	-3
552.135	1	4
552.305	1	3
552.475	1	-2
552.645	1	-3
552.815	1	1
552.985	1	10
553.155	1	5
553.325	1	9
553.495	1	9
553.665	1	-2
553.835	1	-1
554.004	1	-5
554.174	1	4
554.344	1	1
554.514	1	1
554.684	1	13
554.854	1	16
555.024	1	-6
555.194	1	-7
555.364	1	3
555.534	1	3
555.704	1	-2
555.874	1	6
556.044	1	2
556.214	1	-4
556.384	1	3
556.554	1	7
556.724	1	8
556.894	1	2
557.064	1	7
557.234	1	-5
557.404	1	1
557.573	1	-4
557.743	1	-1
557.913	1	-14
558.083	1	2
558.253	1	8
558.423	1	-9
558.593	1	14
558.763	1	-1
558.933	1	1
559.103	1	5
559.273	1	3
559.443	1	1
559.613	1	6
559.783	1	-5
559.953	1	-10
560.122	1	6
560.292	1	-3
560.462	1	2
560.632	1	9
560.802	1	9
560.972	1	13
561.142	1	10
561.312	1	4
561.482	1	13
561.652	1	-1
561.822	1	-5
561.992	1	-4
562.162	1	1
562.331	1	9
562.501	1	1
562.671	1	14
562.841	1	-7
563.011	1	2
563.181	1	0
563.351	1	-9
563.521	1	6
563.691	1	-8
563.861	1	13
564.031	1	13
564.201	1	16
564.370	1	-7
564.540	1	6
564.710	1	1
564.880	1	10
565.050	1	8
565.220	1	-8
565.390	1	9
565.560	1	10
565.730	1	1
565.900	1	8
566.069	1	8
566.239	1	6
566.409	1	8
566.579	1	12
566.749	1	2
566.919	1	2
567.089	1	13
567.259	1	9
567.429	1	-3
567.599	1	-9
567.768	1	6
567.938	1	4
568.108	1	1
568.278	1	2
568.448	1	-9
568.618	1	0
568.788	1	-1
568.958	1	2
569.128	1	4
569.297	1	-1
569.467	1	5
569.637	1	13
569.807	1	8
569.977	1	0
570.147	1	2
570.317	1	-10
570.487	1	-1
570.656	1	0
570.826	1	-5
570.996	1	6
571.166	1	9
571.336	1	-3
571.506	1	8
571.676	1	7
571.846	1	9
572.015	1	-4
572.185	1	1
572.355	1	11
572.525	1	-1
572.695	1	4
572.865	1	-6
573.035	1	5
573.205	1	-3
573.374	1	-10
573.544	1	3
573.714	1	14
573.884	1	3
574.054	1	6
574.224	1	2
574.394	1	-5
574.563	1	-4
574.733	1	1
574.903	1	-2
575.073	1	3
575.243	1	8
575.413	1	6
575.583	1	-2
575.752	1	7
575.922	1	3
576.092	1	5
576.262	1	6
576.432	1	1
576.602	1	-7
576.772	1	11
576.941	1	-4
577.111	1	-6
577.281	1	-11
577.451	1	1
577.621	1	18
577.791	1	13
577.960	1	-2
578.130	1	1
578.300	1	1
578.470	1	9
578.640	1	2
578.810	1	5
578.979	1	7
579.149	1	1
579.319	1	-3
579.489	1	4
579.659	1	3
579.829	1	5
579.998	1	6
580.168	1	11
580.338	1	6
580.508	1	2
580.678	1	7
580.848	1	2
581.017	1	10
581.187	1	-7
581.357	1	-5
581.527	1	8
581.697	1	5
581.867	1	9
582.036	1	1
582.206	1	10
582.376	1	2
582.546	1	-7
582.716	1	4
582.885	1	5
583.055	1	-1
583.225	1	-17
583.395	1	12
583.565	1	1
583.735	1	3
583.904	1	5
584.074	1	8
584.244	1	14
584.414	1	-5
584.584	1	5
584.753	1	-7
584.923	1	0
585.093	1	2
585.263	1	12
585.433	1	5
585.602	1	1
585.772	1	1
585.942	1	6
586.112	1	-7
586.282	1	-11
586.451	1	-1
586.621	1	-2
586.791	1	1
586.961	1	3
587.131	1	10
587.300	1	-4
587.470	1	7
587.640	1	4
587.810	1	1
587.980	1	-1
588.149	1	6
588.319	1	-4
588.489	1	0
588.659	1	5
588.829	1	-1
588.998	1	8
589.168	1	7
589.338	1	2
589.508	1	7
589.677	1	-6
589.847	1	-8
590.017	1	12
590.187	1	-7
590.357	1	21
590.526	1	12
590.696	1	9
590.866	1	4
591.036	1	3
591.205	1	7
591.375	1	2
591.545	1	-1
591.715	1	3
591.885	1	1
592.054	1	1
592.224	1	13
592.394	1	-5
592.564	1	7
592.733	1	-3
592.903	1	-3
593.073	1	1
593.243	1	7
593.412	1	2
593.582	1	-4
593.752	1	2
593.922	1	6
594.091	1	-4
594.261	1	4
594.431	1	5
594.601	1	0
594.771	1	11
594.940	1	-4
595.110	1	-5
595.280	1	3
595.450	1	-6
595.619	1	12
595.789	1	1
595.959	1	1
596.129	1	-2
596.298	1	2
596.468	1	4
596.638	1	5
596.808	1	8
596.977	1	4
597.147	1	4
597.317	1	-1
597.487	1	12
597.656	1	4
597.826	1	3
597.996	1	-2
598.166	1	0
598.335	1	-8
598.505	1	-4
598.675	1	1
598.844	1	7
599.014	1	-4
599.184	1	3
599.354	1	-8
599.523	1	6
599.693	1	-3
599.863	1	6
600.033	1	-1
600.202	1	13
600.372	1	-1
600.542	1	17
600.712	1	-3
600.881	1	-6
601.051	1	22
601.221	1	8
601.390	1	-8
601.560	1	6
601.730	1	7
601.900	1	5
602.069	1	9
602.239	1	-3
602.409	1	-5
602.578	1	3
602.748	1	2
602.918	1	10
603.088	1	6
603.257	1	0
603.427	1	-12
603.597	1	7
603.767	1	3
603.936	1	0
604.106	1	11
604.276	1	2
604.445	1	7
604.615	1	-1
604.785	1	3
604.954	1	2
605.124	1	0
605.294	1	4
605.464	1	-8
605.633	1	-3
605.803	1	6
605.973	1	-2
606.142	1	10
606.312	1	10
606.482	1	2
606.652	1	5
606.821	1	-11
606.991	1	6
607.161	1	-2
607.330	1	-4
607.500	1	3
607.670	1	-2
607.839	1	13
608.009	1	9
608.179	1	8
608.348	1	4
608.518	1	5
608.688	1	11
608.858	1	3
609.027	1	-4
609.197	1	5
609.367	1	15
609.536	1	2
609.706	1	9
609.876	1	2
610.045	1	-3
610.215	1	-7
610.385	1	1
610.554	1	12
610.724	1	1
610.894	1	-1
611.063	1	0
611.233	1	-1
611.403	1	1
611.572	1	-2
611.742	1	10
611.912	1	4
612.081	1	-3
612.251	1	5
612.421	1	-4
612.590	1	1
612.760	1	-3
612.930	1	7
613.099	1	0
613.269	1	13
613.439	1	3
613.608	1	2
613.778	1	13
613.948	1	-2
614.117	1	-4
614.287	1	9
614.457	1	9
614.626	1	-5
614.796	1	3
614.966	1	-2
615.135	1	1
615.305	1	8
615.475	1	5
615.644	1	5
615.814	1	7
615.984	1	-2
616.153	1	0
616.323	1	7
616.493	1	-3
616.662	1	13
616.832	1	-2
617.002	1	-3
617.171	1	-3
617.341	1	-2
617.511	1	2
617.680	1	-9
617.850	1	7
618.019	1	12
618.189	1	10
618.359	1	5
618.528	1	3
618.698	1	11
618.868	1	-12
619.037	1	4
619.207	1	-12
619.377	1	-7
619.546	1	1
619.716	1	-1
619.885	1	13
620.055	1	-3
620.225	1	0
620.394	1	-9
620.564	1	6
620.734	1	11
620.903	1	-10
621.073	1	21
621.242	1	3
621.412	1	3
621.582	1	-10
621.751	1	6
621.921	1	-4
622.091	1	-4
622.260	1	-4
622.430	1	6
622.599	1	3
622.769	1	-4
622.939	1	12
623.108	1	-8
623.278	1	0
623.448	1	0
623.617	1	2
623.787	1	5
623.956	1	14
624.126	1	0
624.296	1	-1
624.465	1	3
624.635	1	7
624.804	1	2
624.974	1	0
625.144	1	7
625.313	1	4
625.483	1	6
625.652	1	-4
625.822	1	1
625.992	1	0
626.161	1	9
626.331	1	6
626.501	1	1
626.670	1	3
626.840	1	-2
627.009	1	-3
627.179	1	8
627.348	1	5
627.518	1	1
627.688	1	1
627.857	1	4
628.027	1	-8
628.196	1	0
628.366	1	-1
628.536	1	7
628.705	1	-5
628.875	1	-2
629.044	1	1
629.214	1	5
629.384	1	11
629.553	1	3
629.723	1	-4
629.892	1	5
630.062	1	3
630.232	1	-6
630.401	1	9
630.571	1	1
630.740	1	-2
630.910	1	6
631.079	1	8
631.249	1	-3
631.419	1	0
631.588	1	-12
631.758	1	7
631.927	1	-6
632.097	1	3
632.266	1	1
632.436	1	12
632.606	1	-3
632.775	1	9
632.945	1	7
633.114	1	12
633.284	1	3
633.453	1	-4
633.623	1	5
633.793	1	6
633.962	1	1
634.132	1	-2
634.301	1	-2
634.471	1	7
634.640	1	-4
634.810	1	4
634.979	1	10
635.149	1	-2
635.319	1	8
635.488	1	6
635.658	1	-2
635.827	1	-9
635.997	1	-4
636.166	1	4
636.336	1	-10
636.505	1	8
636.675	1	-4
636.845	1	8
637.014	1	2
637.184	1	11
637.353	1	4
637.523	1	7
637.692	1	5
637.862	1	6
638.031	1	2
638.201	1	0
638.370	1	10
638.540	1	1
638.710	1	4
638.879	1	-8
639.049	1	-4
639.218	1	6
639.388	1	6
639.557	1	-9
639.727	1	1
639.896	1	-3
640.066	1	3
640.235	1	6
640.405	1	10
640.574	1	3
640.744	1	-4
640.914	1	1
641.083	1	-8
641.253	1	-1
641.422	1	4
641.592	1	7
641.761	1	-3
641.931	1	-5
642.100	1	15
642.270	1	-9
642.439	1	4
642.609	1	11
642.778	1	4
642.948	1	-1
643.117	1	1
643.287	1	0
643.456	1	-4
643.626	1	19
643.795	1	4
643.965	1	8
644.134	1	-4
644.304	1	0
644.473	1	10
644.643	1	6
644.812	1	-2
644.982	1	10
645.151	1	1
645.321	1	-2
645.490	1	5
645.660	1	-16
645.829	1	-3
645.999	1	-4
646.168	1	0
646.338	1	11
646.507	1	0
646.677	1	3
646.846	1	-3
647.016	1	-3
647.185	1	3
647.355	1	-9
647.524	1	5
647.694	1	13
647.863	1	2
648.033	1	2
648.202	1	2
648.372	1	2
648.541	1	-5
648.711	1	-4
648.880	1	4
649.050	1	3
649.219	1	2
649.389	1	4
649.558	1	-2
649.728	1	9
649.897	1	-6
650.067	1	8
650.236	1	-1
650.406	1	7
650.575	1	3
650.745	1	5
650.914	1	-1
651.084	1	-5
651.253	1	10
651.423	1	1
651.592	1	-2
651.762	1	-2
651.931	1	8
652.101	1	-1
652.270	1	16
652.440	1	14
652.609	1	-1
652.778	1	-3
652.948	1	13
653.117	1	-4
653.287	1	3
653.456	1	4
653.626	1	17
653.795	1	-2
653.965	1	4
654.134	1	9
654.304	1	-14
654.473	1	5
654.643	1	4
654.812	1	10
654.982	1	1
655.151	1	0
655.320	1	1
655.490	1	-9
655.659	1	2
655.829	1	3
655.998	1	3
656.168	1	4
656.337	1	-2
656.507	1	-7
656.676	1	10
656.846	1	7
657.015	1	5
657.184	1	9
657.354	1	-1
657.523	1	7
657.693	1	10
657.862	1	-1
658.032	1	-2
658.201	1	1
658.371	1	1
658.540	1	3
658.709	1	3
658.879	1	11
659.048	1	5
659.218	1	-1
659.387	1	5
659.557	1	3
659.726	1	9
659.895	1	2
660.065	1	-4
660.234	1	7
660.404	1	-2
660.573	1	1
660.743	1	6
660.912	1	2
661.081	1	3
661.251	1	0
661.420	1	1
661.590	1	-5
661.759	1	1
661.929	1	2
662.098	1	18
662.267	1	-3
662.437	1	11
662.606	1	6
662.776	1	6
662.945	1	6
663.115	1	6
663.284	1	4
663.453	1	3
663.623	1	6
663.792	1	6
663.962	1	0
664.131	1	1
664.300	1	7
664.470	1	-4
664.639	1	0
664.809	1	5
664.978	1	9
665.148	1	6
665.317	1	0
665.486	1	4
665.656	1	2
665.825	1	6
665.995	1	-6
666.164	1	-4
666.333	1	3
666.503	1	2
666.672	1	-1
666.842	1	1
667.011	1	-6
667.180	1	10
667.350	1	-1
667.519	1	6
667.689	1	-2
667.858	1	9
668.027	1	11
668.197	1	-4
668.366	1	-5
668.536	1	5
668.705	1	11
668.874	1	6
669.044	1	3
669.213	1	10
669.382	1	-4
669.552	1	8
669.721	1	-3
669.891	1	16
670.060	1	4
670.229	1	14
670.399	1	-4
670.568	1	12
670.738	1	10
670.907	1	-12
671.076	1	-7
671.246	1	-1
671.415	1	3
671.584	1	1
671.754	1	8
671.923	1	4
672.093	1	5
672.262	1	-3
672.431	1	1
672.601	1	5
672.770	1	-7
672.939	1	15
673.109	1	1
673.278	1	3
673.448	1	5
673.617	1	1
673.786	1	10
