325.333	1	14
325.504	1	13
325.675	1	4
325.846	1	2
326.017	1	7
326.188	1	-2
326.359	1	7
326.531	1	-3
326.702	1	3
326.873	1	12
327.044	1	9
327.215	1	6
327.386	1	12
327.557	1	2
327.728	1	3
327.899	1	5
328.070	1	21
328.241	1	9
328.412	1	-7
328.583	1	18
328.754	1	5
328.926	1	9
329.097	1	5
329.268	1	13
329.439	1	3
329.610	1	1
329.781	1	-1
329.952	1	12
330.123	1	6
330.294	1	5
330.465	1	1
330.636	1	11
330.807	1	-1
330.978	1	5
331.149	1	4
331.320	1	4
331.492	1	4
331.663	1	11
331.834	1	16
332.005	1	8
332.176	1	15
332.347	1	12
332.518	1	3
332.689	1	11
332.860	1	1
333.031	1	18
333.202	1	-2
333.373	1	9
333.544	1	8
333.715	1	14
333.886	1	2
334.057	1	10
334.228	1	-2
334.399	1	3
334.570	1	7
334.741	1	4
334.912	1	9
335.084	1	28
335.255	1	9
335.426	1	4
335.597	1	9
335.768	1	8
335.939	1	15
336.110	1	9
336.281	1	1
336.452	1	1
336.623	1	5
336.794	1	3
336.965	1	9
337.136	1	18
337.307	1	8
337.478	1	11
337.649	1	22
337.820	1	-2
337.991	1	0
338.162	1	7
338.333	1	6
338.504	1	14
338.675	1	9
338.846	1	12
339.017	1	7
339.188	1	12
339.359	1	-5
339.530	1	7
339.701	1	16
339.872	1	24
340.043	1	3
340.214	1	16
340.385	1	14
340.556	1	-4
340.727	1	8
340.898	1	14
341.069	1	16
341.240	1	8
341.411	1	10
341.582	1	17
341.753	1	-2
341.924	1	10
342.095	1	4
342.266	1	11
342.437	1	20
342.608	1	6
342.779	1	19
342.950	1	11
343.121	1	7
343.292	1	13
343.463	1	9
343.634	1	10
343.805	1	16
343.976	1	24
344.147	1	4
344.318	1	10
344.489	1	6
344.660	1	17
344.831	1	6
345.002	1	5
345.173	1	18
345.344	1	4
345.515	1	13
345.686	1	4
345.857	1	16
346.028	1	10
346.199	1	8
346.370	1	6
346.541	1	14
346.712	1	12
346.883	1	5
347.054	1	9
347.225	1	17
347.396	1	21
347.567	1	4
347.738	1	6
347.909	1	26
348.080	1	7
348.251	1	16
348.422	1	19
348.593	1	13
348.764	1	5
348.935	1	9
349.106	1	10
349.277	1	15
349.448	1	21
349.619	1	15
349.790	1	12
349.961	1	24
350.132	1	20
350.303	1	15
350.474	1	29
350.645	1	15
350.816	1	5
350.987	1	20
351.157	1	12
351.328	1	19
351.499	1	17
351.670	1	10
351.841	1	28
352.012	1	19
352.183	1	26
352.354	1	21
352.525	1	25
352.696	1	18
352.867	1	15
353.038	1	26
353.209	1	17
353.380	1	19
353.551	1	6
353.722	1	11
353.893	1	14
354.064	1	28
354.235	1	18
354.406	1	16
354.576	1	9
354.747	1	13
354.918	1	16
355.089	1	13
355.260	1	31
355.431	1	27
355.602	1	10
355.773	1	11
355.944	1	11
356.115	1	9
356.286	1	19
356.457	1	15
356.628	1	20
356.799	1	10
356.970	1	13
357.141	1	21
357.311	1	16
357.482	1	12
357.653	1	23
357.824	1	22
357.995	1	19
358.166	1	12
358.337	1	19
358.508	1	22
358.679	1	13
358.850	1	23
359.021	1	13
359.192	1	24
359.363	1	14
359.533	1	21
359.704	1	26
359.875	1	15
360.046	1	12
360.217	1	12
360.388	1	21
360.559	1	14
360.730	1	24
360.901	1	20
361.072	1	34
361.243	1	26
361.414	1	14
361.584	1	16
361.755	1	18
361.926	1	17
362.097	1	19
362.268	1	24
362.439	1	15
362.610	1	29
362.781	1	10
362.952	1	11
363.123	1	25
363.293	1	13
363.464	1	30
363.635	1	22
363.806	1	13
363.977	1	19
364.148	1	20
364.319	1	28
364.490	1	18
364.661	1	19
364.832	1	23
365.002	1	25
365.173	1	23
365.344	1	36
365.515	1	17
365.686	1	22
365.857	1	24
366.028	1	27
366.199	1	15
366.370	1	28
366.540	1	12
366.711	1	5
366.882	1	13
367.053	1	14
367.224	1	31
367.395	1	19
367.566	1	24
367.737	1	21
367.908	1	21
368.078	1	22
368.249	1	28
368.420	1	17
368.591	1	12
368.762	1	23
368.933	1	16
369.104	1	7
369.274	1	18
369.445	1	15
369.616	1	24
369.787	1	26
369.958	1	35
370.129	1	7
370.300	1	32
370.471	1	16
370.641	1	29
370.812	1	15
370.983	1	20
371.154	1	14
371.325	1	25
371.496	1	22
371.667	1	23
371.837	1	2
372.008	1	15
372.179	1	13
372.350	1	38
372.521	1	18
372.692	1	17
372.863	1	23
373.033	1	10
373.204	1	9
373.375	1	31
373.546	1	23
373.717	1	20
373.888	1	32
374.059	1	24
374.229	1	30
374.400	1	25
374.571	1	19
374.742	1	30
374.913	1	22
375.084	1	14
375.254	1	30
375.425	1	39
375.596	1	34
375.767	1	22
375.938	1	33
376.109	1	33
376.279	1	19
376.450	1	31
376.621	1	32
376.792	1	25
376.963	1	24
377.134	1	24
377.304	1	23
377.475	1	21
377.646	1	26
377.817	1	21
377.988	1	21
378.159	1	28
378.329	1	29
378.500	1	21
378.671	1	26
378.842	1	28
379.013	1	18
379.184	1	22
379.354	1	31
379.525	1	26
379.696	1	30
379.867	1	31
380.038	1	30
380.209	1	28
380.379	1	21
380.550	1	22
380.721	1	29
380.892	1	30
381.063	1	29
381.233	1	22
381.404	1	17
381.575	1	29
381.746	1	40
381.917	1	26
382.087	1	27
382.258	1	31
382.429	1	28
382.600	1	39
382.771	1	23
382.941	1	25
383.112	1	36
383.283	1	20
383.454	1	20
383.625	1	20
383.795	1	23
383.966	1	33
384.137	1	40
384.308	1	31
384.479	1	34
384.649	1	35
384.820	1	20
384.991	1	30
385.162	1	38
385.333	1	29
385.503	1	32
385.674	1	30
385.845	1	37
386.016	1	32
386.187	1	28
386.357	1	28
386.528	1	45
386.699	1	24
386.870	1	48
387.041	1	46
387.211	1	34
387.382	1	50
387.553	1	42
387.724	1	29
387.894	1	37
388.065	1	32
388.236	1	48
388.407	1	29
388.578	1	30
388.748	1	27
388.919	1	45
389.090	1	32
389.261	1	29
389.431	1	37
389.602	1	34
389.773	1	42
389.944	1	38
390.114	1	32
390.285	1	36
390.456	1	30
390.627	1	34
390.798	1	33
390.968	1	31
391.139	1	40
391.310	1	32
391.481	1	41
391.651	1	35
391.822	1	29
391.993	1	38
392.164	1	28
392.334	1	37
392.505	1	27
392.676	1	40
392.847	1	28
393.017	1	43
393.188	1	36
393.359	1	12
393.530	1	31
393.700	1	34
393.871	1	29
394.042	1	42
394.213	1	32
394.383	1	45
394.554	1	34
394.725	1	43
394.896	1	30
395.066	1	37
395.237	1	42
395.408	1	38
395.579	1	31
395.749	1	39
395.920	1	37
396.091	1	39
396.262	1	34
396.432	1	32
396.603	1	42
396.774	1	46
396.945	1	35
397.115	1	35
397.286	1	32
397.457	1	40
397.627	1	38
397.798	1	36
397.969	1	23
398.140	1	33
398.310	1	32
398.481	1	37
398.652	1	40
398.823	1	37
398.993	1	28
399.164	1	37
399.335	1	41
399.505	1	47
399.676	1	40
399.847	1	36
400.018	1	34
400.188	1	35
400.359	1	43
400.530	1	32
400.700	1	34
400.871	1	32
401.042	1	38
401.213	1	27
401.383	1	40
401.554	1	44
401.725	1	32
401.895	1	33
402.066	1	40
402.237	1	33
402.408	1	44
402.578	1	38
402.749	1	33
402.920	1	39
403.090	1	33
403.261	1	26
403.432	1	44
403.603	1	40
403.773	1	46
403.944	1	47
404.115	1	38
404.285	1	38
404.456	1	40
404.627	1	43
404.797	1	34
404.968	1	30
405.139	1	39
405.310	1	52
405.480	1	46
405.651	1	30
405.822	1	38
405.992	1	27
406.163	1	37
406.334	1	36
406.504	1	37
406.675	1	47
406.846	1	44
407.016	1	51
407.187	1	45
407.358	1	35
407.528	1	42
407.699	1	33
407.870	1	36
408.041	1	38
408.211	1	57
408.382	1	39
408.553	1	36
408.723	1	41
408.894	1	36
409.065	1	35
409.235	1	33
409.406	1	42
409.577	1	36
409.747	1	41
409.918	1	33
410.089	1	38
410.259	1	37
410.430	1	34
410.601	1	37
410.771	1	42
410.942	1	46
411.113	1	44
411.283	1	35
411.454	1	42
411.625	1	42
411.795	1	40
411.966	1	44
412.137	1	41
412.307	1	33
412.478	1	38
412.649	1	34
412.819	1	35
412.990	1	40
413.161	1	53
413.331	1	39
413.502	1	44
413.672	1	41
413.843	1	32
414.014	1	40
414.184	1	44
414.355	1	41
414.526	1	36
414.696	1	50
414.867	1	39
415.038	1	25
415.208	1	35
415.379	1	45
415.550	1	45
415.720	1	32
415.891	1	40
416.062	1	40
416.232	1	41
416.403	1	33
416.573	1	44
416.744	1	35
416.915	1	46
417.085	1	41
417.256	1	45
417.427	1	38
417.597	1	40
417.768	1	35
417.939	1	41
418.109	1	43
418.280	1	49
418.450	1	43
418.621	1	21
418.792	1	35
418.962	1	35
419.133	1	46
419.304	1	25
419.474	1	31
419.645	1	25
419.815	1	28
419.986	1	44
420.157	1	39
420.327	1	47
420.498	1	47
420.669	1	33
420.839	1	43
421.010	1	45
421.180	1	41
421.351	1	31
421.522	1	41
421.692	1	36
421.863	1	37
422.033	1	44
422.204	1	42
422.375	1	33
422.545	1	46
422.716	1	34
422.886	1	46
423.057	1	41
423.228	1	40
423.398	1	33
423.569	1	35
423.740	1	22
423.910	1	29
424.081	1	35
424.251	1	30
424.422	1	38
424.593	1	33
424.763	1	43
424.934	1	41
425.104	1	41
425.275	1	34
425.445	1	34
425.616	1	24
425.787	1	33
425.957	1	42
426.128	1	32
426.298	1	42
426.469	1	27
426.640	1	37
426.810	1	40
426.981	1	35
427.151	1	33
427.322	1	40
427.493	1	38
427.663	1	40
427.834	1	40
428.004	1	40
428.175	1	42
428.345	1	33
428.516	1	32
428.687	1	41
428.857	1	30
429.028	1	27
429.198	1	38
429.369	1	38
429.540	1	47
429.710	1	29
429.881	1	33
430.051	1	35
430.222	1	36
430.392	1	23
430.563	1	39
430.734	1	41
430.904	1	39
431.075	1	39
431.245	1	31
431.416	1	43
431.586	1	33
431.757	1	40
431.927	1	29
432.098	1	32
432.269	1	38
432.439	1	27
432.610	1	34
432.780	1	41
432.951	1	33
433.121	1	34
433.292	1	47
433.462	1	41
433.633	1	38
433.804	1	31
433.974	1	37
434.145	1	53
434.315	1	32
434.486	1	26
434.656	1	35
434.827	1	31
434.997	1	33
435.168	1	39
435.339	1	44
435.509	1	33
435.680	1	35
435.850	1	32
436.021	1	40
436.191	1	32
436.362	1	41
436.532	1	32
436.703	1	36
436.873	1	42
437.044	1	31
437.214	1	24
437.385	1	36
437.556	1	27
437.726	1	42
437.897	1	48
438.067	1	37
438.238	1	40
438.408	1	44
438.579	1	25
438.749	1	32
438.920	1	35
439.090	1	20
439.261	1	25
439.431	1	34
439.602	1	28
439.772	1	30
439.943	1	46
440.113	1	35
440.284	1	38
440.455	1	25
440.625	1	26
440.796	1	32
440.966	1	25
441.137	1	35
441.307	1	20
441.478	1	37
441.648	1	33
441.819	1	31
441.989	1	24
442.160	1	36
442.330	1	22
442.501	1	25
442.671	1	19
442.842	1	16
443.012	1	18
443.183	1	42
443.353	1	22
443.524	1	30
443.694	1	34
443.865	1	23
444.035	1	26
444.206	1	29
444.376	1	24
444.547	1	36
444.717	1	32
444.888	1	33
445.058	1	32
445.229	1	48
445.399	1	26
445.570	1	31
445.740	1	23
445.911	1	19
446.081	1	11
446.252	1	29
446.422	1	28
446.593	1	26
446.763	1	27
446.934	1	29
447.104	1	32
447.275	1	26
447.445	1	27
447.616	1	37
447.786	1	30
447.957	1	28
448.127	1	26
448.298	1	37
448.468	1	22
448.639	1	25
448.809	1	34
448.979	1	17
449.150	1	34
449.320	1	34
449.491	1	21
449.661	1	18
449.832	1	32
450.002	1	27
450.173	1	33
450.343	1	30
450.514	1	26
450.684	1	29
450.855	1	20
451.025	1	26
451.196	1	35
451.366	1	23
451.537	1	16
451.707	1	12
451.878	1	24
452.048	1	33
452.218	1	28
452.389	1	34
452.559	1	22
452.730	1	27
452.900	1	36
453.071	1	16
453.241	1	27
453.412	1	27
453.582	1	17
453.753	1	25
453.923	1	25
454.093	1	36
454.264	1	37
454.434	1	21
454.605	1	20
454.775	1	14
454.946	1	28
455.116	1	24
455.287	1	15
455.457	1	20
455.628	1	21
455.798	1	24
455.968	1	30
456.139	1	20
456.309	1	14
456.480	1	18
456.650	1	11
456.821	1	18
456.991	1	18
457.161	1	19
457.332	1	30
457.502	1	10
457.673	1	26
457.843	1	21
458.014	1	32
458.184	1	17
458.355	1	21
458.525	1	27
458.695	1	22
458.866	1	15
459.036	1	24
459.207	1	24
459.377	1	18
459.548	1	24
459.718	1	17
459.888	1	12
460.059	1	21
460.229	1	28
460.400	1	26
460.570	1	29
460.740	1	22
460.911	1	21
461.081	1	25
461.252	1	17
461.422	1	23
461.593	1	21
461.763	1	21
461.933	1	22
462.104	1	15
462.274	1	22
462.445	1	24
462.615	1	20
462.785	1	21
462.956	1	21
463.126	1	20
463.297	1	19
463.467	1	22
463.638	1	28
463.808	1	11
463.978	1	11
464.149	1	21
464.319	1	13
464.490	1	36
464.660	1	11
464.830	1	14
465.001	1	14
465.171	1	29
465.342	1	22
465.512	1	7
465.682	1	13
465.853	1	22
466.023	1	15
466.194	1	17
466.364	1	25
466.534	1	20
466.705	1	22
466.875	1	17
467.045	1	12
467.216	1	26
467.386	1	11
467.557	1	14
467.727	1	20
467.897	1	9
468.068	1	14
468.238	1	21
468.409	1	20
468.579	1	26
468.749	1	11
468.920	1	9
469.090	1	24
469.260	1	6
469.431	1	23
469.601	1	16
469.772	1	22
469.942	1	7
470.112	1	29
470.283	1	9
470.453	1	17
470.623	1	15
470.794	1	4
470.964	1	22
471.135	1	25
471.305	1	8
471.475	1	19
471.646	1	13
471.816	1	12
471.986	1	14
472.157	1	28
472.327	1	12
472.497	1	29
472.668	1	8
472.838	1	16
473.009	1	19
473.179	1	14
473.349	1	13
473.520	1	16
473.690	1	20
473.860	1	23
474.031	1	20
474.201	1	19
474.371	1	26
474.542	1	22
474.712	1	13
474.882	1	15
475.053	1	25
475.223	1	9
475.394	1	16
475.564	1	15
475.734	1	20
475.905	1	26
476.075	1	10
476.245	1	9
476.416	1	30
476.586	1	26
476.756	1	21
476.927	1	19
477.097	1	20
477.267	1	8
477.438	1	15
477.608	1	9
477.778	1	10
477.949	1	19
478.119	1	25
478.289	1	19
478.460	1	31
478.630	1	7
478.800	1	11
478.971	1	21
479.141	1	17
479.311	1	1
479.482	1	17
479.652	1	7
479.822	1	13
479.993	1	21
480.163	1	6
480.333	1	13
480.504	1	29
480.674	1	16
480.844	1	12
481.015	1	21
481.185	1	17
481.355	1	18
481.525	1	13
481.696	1	17
481.866	1	22
482.036	1	10
482.207	1	14
482.377	1	5
482.547	1	18
482.718	1	10
482.888	1	21
483.058	1	13
483.229	1	16
483.399	1	7
483.569	1	15
483.740	1	20
483.910	1	8
484.080	1	11
484.250	1	11
484.421	1	10
484.591	1	15
484.761	1	14
484.932	1	14
485.102	1	18
485.272	1	15
485.443	1	20
485.613	1	12
485.783	1	18
485.953	1	18
486.124	1	13
486.294	1	15
486.464	1	18
486.635	1	20
486.805	1	18
486.975	1	16
487.146	1	17
487.316	1	10
487.486	1	22
487.656	1	8
487.827	1	15
487.997	1	3
488.167	1	12
488.338	1	21
488.508	1	15
488.678	1	12
488.848	1	17
489.019	1	15
489.189	1	21
489.359	1	9
489.529	1	10
489.700	1	1
489.870	1	25
490.040	1	10
490.211	1	8
490.381	1	20
490.551	1	16
490.721	1	15
490.892	1	21
491.062	1	12
491.232	1	18
491.402	1	9
491.573	1	-1
491.743	1	17
491.913	1	7
492.084	1	17
492.254	1	8
492.424	1	14
492.594	1	8
492.765	1	8
492.935	1	10
493.105	1	18
493.275	1	15
493.446	1	21
493.616	1	17
493.786	1	10
493.956	1	14
494.127	1	7
494.297	1	9
494.467	1	16
494.637	1	8
494.808	1	12
494.978	1	4
495.148	1	7
495.318	1	5
495.489	1	17
495.659	1	17
495.829	1	11
495.999	1	3
496.170	1	10
496.340	1	18
496.510	1	16
496.680	1	11
496.851	1	15
497.021	1	-4
497.191	1	0
497.361	1	13
497.532	1	3
497.702	1	17
497.872	1	10
498.042	1	13
498.213	1	5
498.383	1	7
498.553	1	8
498.723	1	5
498.894	1	12
499.064	1	10
499.234	1	13
499.404	1	2
499.574	1	18
499.745	1	12
499.915	1	10
500.085	1	10
500.255	1	13
500.426	1	11
500.596	1	17
500.766	1	19
500.936	1	9
501.106	1	-1
501.277	1	12
501.447	1	10
501.617	1	0
501.787	1	7
501.958	1	-3
502.128	1	3
502.298	1	3
502.468	1	11
502.638	1	16
502.809	1	16
502.979	1	3
503.149	1	9
503.319	1	-1
503.489	1	11
503.660	1	6
503.830	1	4
504.000	1	10
504.170	1	11
504.340	1	5
504.511	1	12
504.681	1	8
504.851	1	16
505.021	1	10
505.192	1	1
505.362	1	10
505.532	1	7
505.702	1	10
505.872	1	14
506.043	1	10
506.213	1	9
506.383	1	2
506.553	1	7
506.723	1	13
506.893	1	12
507.064	1	15
507.234	1	-3
507.404	1	8
507.574	1	8
507.744	1	11
507.915	1	9
508.085	1	15
508.255	1	15
508.425	1	-10
508.595	1	18
508.766	1	13
508.936	1	3
509.106	1	7
509.276	1	18
509.446	1	1
509.616	1	1
509.787	1	8
509.957	1	12
510.127	1	8
510.297	1	9
510.467	1	10
510.638	1	7
510.808	1	4
510.978	1	5
511.148	1	12
511.318	1	11
511.488	1	-7
511.659	1	12
511.829	1	7
511.999	1	7
512.169	1	1
512.339	1	8
512.509	1	-3
512.680	1	6
512.850	1	8
513.020	1	5
513.190	1	10
513.360	1	10
513.530	1	7
513.700	1	11
513.871	1	4
514.041	1	5
514.211	1	23
514.381	1	10
514.551	1	14
514.721	1	5
514.892	1	13
515.062	1	5
515.232	1	14
515.402	1	-2
515.572	1	0
515.742	1	14
515.912	1	14
516.083	1	16
516.253	1	12
516.423	1	5
516.593	1	5
516.763	1	12
516.933	1	-1
517.104	1	13
517.274	1	8
517.444	1	10
517.614	1	-9
517.784	1	8
517.954	1	10
518.124	1	17
518.294	1	7
518.465	1	5
518.635	1	5
518.805	1	-7
518.975	1	2
519.145	1	4
519.315	1	14
519.485	1	8
519.656	1	15
519.826	1	3
519.996	1	-4
520.166	1	7
520.336	1	9
520.506	1	3
520.676	1	2
520.846	1	8
521.017	1	-3
521.187	1	3
521.357	1	13
521.527	1	3
521.697	1	7
521.867	1	1
522.037	1	15
522.207	1	6
522.377	1	-2
522.548	1	14
522.718	1	5
522.888	1	18
523.058	1	11
523.228	1	15
523.398	1	13
523.568	1	14
523.738	1	7
523.909	1	22
524.079	1	3
524.249	1	3
524.419	1	6
524.589	1	6
524.759	1	4
524.929	1	0
525.099	1	4
525.269	1	7
525.439	1	4
525.610	1	13
525.780	1	-2
525.950	1	6
526.120	1	6
526.290	1	11
526.460	1	1
526.630	1	6
526.800	1	5
526.970	1	4
527.140	1	13
527.311	1	2
527.481	1	-1
527.651	1	8
527.821	1	1
527.991	1	19
528.161	1	20
528.331	1	13
528.501	1	13
528.671	1	-8
528.841	1	6
529.011	1	5
529.181	1	-3
529.352	1	11
529.522	1	-1
529.692	1	8
529.862	1	2
530.032	1	12
530.202	1	14
530.372	1	2
530.542	1	8
530.712	1	0
530.882	1	14
531.052	1	5
531.222	1	8
531.392	1	-3
531.563	1	11
531.733	1	8
531.903	1	9
532.073	1	12
532.243	1	1
532.413	1	8
532.583	1	14
532.753	1	6
532.923	1	-7
533.093	1	0
533.263	1	6
533.433	1	5
533.603	1	2
533.773	1	-2
533.943	1	5
534.113	1	11
534.284	1	9
534.454	1	11
534.624	1	13
534.794	1	-1
534.964	1	10
535.134	1	-3
535.304	1	2
535.474	1	13
535.644	1	1
535.814	1	-1
535.984	1	-6
536.154	1	2
536.324	1	9
536.494	1	12
536.664	1	7
536.834	1	10
537.004	1	-1
537.174	1	24
537.344	1	3
537.514	1	0
537.685	1	1
537.855	1	4
538.025	1	10
538.195	1	11
538.365	1	15
538.535	1	3
538.705	1	0
538.875	1	0
539.045	1	2
539.215	1	7
539.385	1	11
539.555	1	1
539.725	1	4
539.895	1	2
540.065	1	14
540.235	1	12
540.405	1	-5
540.575	1	7
540.745	1	6
540.915	1	15
541.085	1	3
541.255	1	2
541.425	1	8
541.595	1	9
541.765	1	5
541.935	1	4
542.105	1	2
542.275	1	12
542.445	1	-13
542.615	1	7
542.785	1	9
542.955	1	-3
543.125	1	4
543.295	1	1
543.465	1	10
543.635	1	8
543.805	1	20
543.975	1	-1
544.145	1	11
544.315	1	5
544.485	1	13
544.655	1	8
544.825	1	-5
544.995	1	4
545.165	1	-2
545.335	1	1
545.505	1	1
545.675	1	12
545.845	1	12
546.015	1	7
546.185	1	6
546.355	1	15
546.525	1	11
546.695	1	5
546.865	1	-4
547.035	1	6
547.205	1	-9
547.375	1	7
547.545	1	9
547.715	1	1
547.885	1	8
548.055	1	3
548.225	1	11
548.395	1	3
548.565	1	14
548.735	1	0
548.905	1	4
549.075	1	9
549.245	1	0
549.415	1	0
549.585	1	9
549.755	1	21
549.925	1	-6
550.095	1	10
550.265	1	-3
550.435	1	-1
550.605	1	-3
550.775	1	11
550.945	1	16
551.115	1	4
551.285	1	3
551.455	1	1
551.625	1	10
551.795	1	10
551.965	1	2
552.135	1	7
552.305	1	0
552.475	1	-4
552.645	1	-5
552.815	1	-1
552.985	1	6
553.155	1	7
553.325	1	9
553.495	1	8
553.665	1	2
553.835	1	-6
554.004	1	7
554.174	1	1
554.344	1	-1
554.514	1	3
554.684	1	-2
554.854	1	6
555.024	1	-8
555.194	1	-1
555.364	1	11
555.534	1	10
555.704	1	-4
555.874	1	20
556.044	1	7
556.214	1	-2
556.384	1	1
556.554	1	15
556.724	1	-1
556.894	1	4
557.064	1	0
557.234	1	2
557.404	1	13
557.573	1	5
557.743	1	7
557.913	1	-5
558.083	1	-1
558.253	1	11
558.423	1	0
558.593	1	14
558.763	1	7
558.933	1	6
559.103	1	4
559.273	1	3
559.443	1	7
559.613	1	13
559.783	1	0
559.953	1	3
560.122	1	11
560.292	1	9
560.462	1	2
560.632	1	6
560.802	1	2
560.972	1	10
561.142	1	11
561.312	1	2
561.482	1	12
561.652	1	8
561.822	1	-8
561.992	1	4
562.162	1	3
562.331	1	1
562.501	1	-6
562.671	1	7
562.841	1	-3
563.011	1	8
563.181	1	-2
563.351	1	-2
563.521	1	11
563.691	1	-7
563.861	1	2
564.031	1	7
564.201	1	20
564.370	1	-5
564.540	1	2
564.710	1	8
564.880	1	5
565.050	1	7
565.220	1	0
565.390	1	8
565.560	1	3
565.730	1	1
565.900	1	-4
566.069	1	6
566.239	1	4
566.409	1	5
566.579	1	17
566.749	1	1
566.919	1	7
567.089	1	1
567.259	1	10
567.429	1	-2
567.599	1	3
567.768	1	4
567.938	1	7
568.108	1	3
568.278	1	4
568.448	1	-8
568.618	1	-2
568.788	1	3
568.958	1	2
569.128	1	3
569.297	1	2
569.467	1	-7
569.637	1	9
569.807	1	3
569.977	1	8
570.147	1	16
570.317	1	-7
570.487	1	2
570.656	1	3
570.826	1	-5
570.996	1	-3
571.166	1	14
571.336	1	0
571.506	1	8
571.676	1	8
571.846	1	6
572.015	1	4
572.185	1	-2
572.355	1	5
572.525	1	12
572.695	1	2
572.865	1	-1
573.035	1	9
573.205	1	6
573.374	1	1
573.544	1	-6
573.714	1	10
573.884	1	10
574.054	1	3
574.224	1	2
574.394	1	-7
574.563	1	0
574.733	1	5
574.903	1	-8
575.073	1	0
575.243	1	-5
575.413	1	1
575.583	1	-4
575.752	1	7
575.922	1	-6
576.092	1	6
576.262	1	5
576.432	1	0
576.602	1	-5
576.772	1	16
576.941	1	6
577.111	1	3
577.281	1	-1
577.451	1	-3
577.621	1	5
577.791	1	6
577.960	1	-5
578.130	1	7
578.300	1	-2
578.470	1	8
578.640	1	7
578.810	1	3
578.979	1	4
579.149	1	3
579.319	1	-3
579.489	1	0
579.659	1	-7
579.829	1	2
579.998	1	5
580.168	1	12
580.338	1	-4
580.508	1	1
580.678	1	3
580.848	1	0
581.017	1	-1
581.187	1	-3
581.357	1	-4
581.527	1	14
581.697	1	-2
581.867	1	3
582.036	1	-5
582.206	1	-2
582.376	1	6
582.546	1	-4
582.716	1	-2
582.885	1	-8
583.055	1	5
583.225	1	-8
583.395	1	5
583.565	1	-4
583.735	1	5
583.904	1	3
584.074	1	2
584.244	1	0
584.414	1	1
584.584	1	5
584.753	1	-11
584.923	1	3
585.093	1	2
585.263	1	-1
585.433	1	7
585.602	1	-2
585.772	1	0
585.942	1	-2
586.112	1	5
586.282	1	-4
586.451	1	-7
586.621	1	-3
586.791	1	3
586.961	1	-7
587.131	1	12
587.300	1	4
587.470	1	8
587.640	1	11
587.810	1	-8
587.980	1	-3
588.149	1	5
588.319	1	-3
588.489	1	6
588.659	1	2
588.829	1	-4
588.998	1	12
589.168	1	8
589.338	1	1
589.508	1	2
589.677	1	4
589.847	1	-9
590.017	1	16
590.187	1	-6
590.357	1	12
590.526	1	7
590.696	1	16
590.866	1	11
591.036	1	-6
591.205	1	3
591.375	1	-4
591.545	1	1
591.715	1	2
591.885	1	-2
592.054	1	6
592.224	1	1
592.394	1	3
592.564	1	3
592.733	1	8
592.903	1	2
593.073	1	-4
593.243	1	0
593.412	1	9
593.582	1	-1
593.752	1	-9
593.922	1	11
594.091	1	1
594.261	1	-2
594.431	1	5
594.601	1	6
594.771	1	11
594.940	1	-2
595.110	1	-3
595.280	1	10
595.450	1	5
595.619	1	-1
595.789	1	7
595.959	1	6
596.129	1	2
596.298	1	4
596.468	1	5
596.638	1	6
596.808	1	6
596.977	1	8
597.147	1	6
597.317	1	-3
597.487	1	8
597.656	1	2
597.826	1	7
597.996	1	3
598.166	1	-2
598.335	1	-4
598.505	1	12
598.675	1	3
598.844	1	4
599.014	1	1
599.184	1	-2
599.354	1	-7
599.523	1	9
599.693	1	-6
599.863	1	7
600.033	1	-4
600.202	1	10
600.372	1	7
600.542	1	7
600.712	1	-10
600.881	1	-7
601.051	1	13
601.221	1	8
601.390	1	-7
601.560	1	5
601.730	1	7
601.900	1	10
602.069	1	5
602.239	1	-6
602.409	1	-8
602.578	1	5
602.748	1	5
602.918	1	15
603.088	1	5
603.257	1	10
603.427	1	-1
603.597	1	1
603.767	1	3
603.936	1	3
604.106	1	3
604.276	1	3
604.445	1	7
604.615	1	-3
604.785	1	-1
604.954	1	5
605.124	1	6
605.294	1	-1
605.464	1	0
605.633	1	-1
605.803	1	4
605.973	1	-3
606.142	1	0
606.312	1	-2
606.482	1	0
606.652	1	3
606.821	1	-11
606.991	1	-2
607.161	1	5
607.330	1	5
607.500	1	3
607.670	1	-10
607.839	1	3
608.009	1	14
608.179	1	2
608.348	1	-4
608.518	1	3
608.688	1	5
608.858	1	0
609.027	1	-6
609.197	1	4
609.367	1	11
609.536	1	6
609.706	1	3
609.876	1	0
610.045	1	4
610.215	1	0
610.385	1	11
610.554	1	3
610.724	1	4
610.894	1	-4
611.063	1	7
611.233	1	-2
611.403	1	-3
611.572	1	10
611.742	1	10
611.912	1	4
612.081	1	-5
612.251	1	7
612.421	1	6
612.590	1	-1
612.760	1	2
612.930	1	6
613.099	1	6
613.269	1	4
613.439	1	7
613.608	1	8
613.778	1	-1
613.948	1	-2
614.117	1	5
614.287	1	16
614.457	1	2
614.626	1	0
614.796	1	7
614.966	1	-2
615.135	1	-2
615.305	1	11
615.475	1	5
615.644	1	12
615.814	1	7
615.984	1	5
616.153	1	-2
616.323	1	3
616.493	1	2
616.662	1	13
616.832	1	-3
617.002	1	-3
617.171	1	1
617.341	1	2
617.511	1	5
617.680	1	-4
617.850	1	6
618.019	1	14
618.189	1	19
618.359	1	6
618.528	1	5
618.698	1	6
618.868	1	4
619.037	1	4
619.207	1	0
619.377	1	-6
619.546	1	-4
619.716	1	3
619.885	1	8
620.055	1	1
620.225	1	1
620.394	1	-5
620.564	1	16
620.734	1	7
620.903	1	-2
621.073	1	5
621.242	1	2
621.412	1	1
621.582	1	6
621.751	1	17
621.921	1	7
622.091	1	-7
622.260	1	-1
622.430	1	6
622.599	1	-3
622.769	1	8
622.939	1	6
623.108	1	-2
623.278	1	-6
623.448	1	7
623.617	1	12
623.787	1	4
623.956	1	14
624.126	1	7
624.296	1	-9
624.465	1	3
624.635	1	15
624.804	1	4
624.974	1	7
625.144	1	15
625.313	1	-3
625.483	1	-2
625.652	1	2
625.822	1	4
625.992	1	0
626.161	1	7
626.331	1	7
626.501	1	1
626.670	1	5
626.840	1	-1
627.009	1	5
627.179	1	5
627.348	1	17
627.518	1	6
627.688	1	5
627.857	1	2
628.027	1	5
628.196	1	6
628.366	1	8
628.536	1	4
628.705	1	3
628.875	1	8
629.044	1	4
629.214	1	7
629.384	1	3
629.553	1	10
629.723	1	-5
629.892	1	6
630.062	1	-6
630.232	1	-4
630.401	1	8
630.571	1	3
630.740	1	5
630.910	1	4
631.079	1	7
631.249	1	0
631.419	1	6
631.588	1	-6
631.758	1	7
631.927	1	-6
632.097	1	0
632.266	1	9
632.436	1	16
632.606	1	3
632.775	1	2
632.945	1	5
633.114	1	0
633.284	1	14
633.453	1	-5
633.623	1	-2
633.793	1	8
633.962	1	5
634.132	1	6
634.301	1	7
634.471	1	4
634.640	1	3
634.810	1	1
634.979	1	8
635.149	1	7
635.319	1	11
635.488	1	1
635.658	1	0
635.827	1	0
635.997	1	9
636.166	1	9
636.336	1	3
636.505	1	0
636.675	1	-4
636.845	1	14
637.014	1	2
637.184	1	9
637.353	1	4
637.523	1	10
637.692	1	5
637.862	1	11
638.031	1	11
638.201	1	4
638.370	1	4
638.540	1	0
638.710	1	3
638.879	1	-13
639.049	1	4
639.218	1	1
639.388	1	-4
639.557	1	3
639.727	1	0
639.896	1	8
640.066	1	4
640.235	1	10
640.405	1	2
640.574	1	3
640.744	1	1
640.914	1	-3
641.083	1	1
641.253	1	8
641.422	1	8
641.592	1	7
641.761	1	10
641.931	1	-3
642.100	1	23
642.270	1	2
642.439	1	6
642.609	1	12
642.778	1	4
642.948	1	2
643.117	1	22
643.287	1	2
643.456	1	5
643.626	1	15
643.795	1	0
643.965	1	13
644.134	1	1
644.304	1	-4
644.473	1	7
644.643	1	11
644.812	1	1
644.982	1	9
645.151	1	15
645.321	1	-10
645.490	1	13
645.660	1	-2
645.829	1	-5
645.999	1	-5
646.168	1	0
646.338	1	10
646.507	1	5
646.677	1	4
646.846	1	7
647.016	1	-2
647.185	1	4
647.355	1	-17
647.524	1	11
647.694	1	10
647.863	1	6
648.033	1	6
648.202	1	13
648.372	1	-3
648.541	1	-6
648.711	1	-1
648.880	1	-2
649.050	1	-11
649.219	1	9
649.389	1	6
649.558	1	0
649.728	1	10
649.897	1	10
650.067	1	6
650.236	1	4
650.406	1	4
650.575	1	13
650.745	1	5
650.914	1	3
651.084	1	-4
651.253	1	6
651.423	1	16
651.592	1	6
651.762	1	-3
651.931	1	11
652.101	1	7
652.270	1	17
652.440	1	12
652.609	1	-12
652.778	1	1
652.948	1	3
653.117	1	4
653.287	1	1
653.456	1	8
653.626	1	10
653.795	1	1
653.965	1	15
654.134	1	13
654.304	1	-5
654.473	1	4
654.643	1	10
654.812	1	4
654.982	1	5
655.151	1	7
655.320	1	-3
655.490	1	7
655.659	1	4
655.829	1	11
655.998	1	2
656.168	1	8
656.337	1	8
656.507	1	13
656.676	1	6
656.846	1	16
657.015	1	11
657.184	1	8
657.354	1	12
657.523	1	12
657.693	1	7
657.862	1	4
658.032	1	4
658.201	1	8
658.371	1	9
658.540	1	6
658.709	1	7
658.879	1	11
659.048	1	6
659.218	1	-2
659.387	1	8
659.557	1	5
659.726	1	13
659.895	1	7
660.065	1	-3
660.234	1	5
660.404	1	7
660.573	1	8
660.743	1	10
660.912	1	7
661.081	1	16
661.251	1	-1
661.420	1	8
661.590	1	8
661.759	1	8
661.929	1	10
662.098	1	11
662.267	1	-1
662.437	1	16
662.606	1	9
662.776	1	8
662.945	1	2
663.115	1	1
663.284	1	0
663.453	1	15
663.623	1	12
663.792	1	4
663.962	1	2
664.131	1	1
664.300	1	13
664.470	1	-1
664.639	1	8
664.809	1	8
664.978	1	18
665.148	1	13
665.317	1	2
665.486	1	9
665.656	1	1
665.825	1	8
665.995	1	6
666.164	1	5
666.333	1	8
666.503	1	5
666.672	1	-1
666.842	1	1
667.011	1	3
667.180	1	12
667.350	1	7
667.519	1	1
667.689	1	3
667.858	1	5
668.027	1	18
668.197	1	2
668.366	1	-2
668.536	1	15
668.705	1	3
668.874	1	10
669.044	1	1
669.213	1	14
669.382	1	-6
669.552	1	11
669.721	1	17
669.891	1	26
670.060	1	11
670.229	1	12
670.399	1	9
670.568	1	11
670.738	1	10
670.907	1	2
671.076	1	-2
671.246	1	8
671.415	1	9
671.584	1	3
671.754	1	-2
671.923	1	3
672.093	1	9
672.262	1	0
672.431	1	11
672.601	1	7
672.770	1	-6
672.939	1	16
673.109	1	-2
673.278	1	9
673.448	1	15
673.617	1	-2
673.786	1	4
