340.368	1	0
340.539	1	-3
340.710	1	-7
340.881	1	-3
341.052	1	9
341.223	1	-15
341.394	1	-2
341.565	1	9
341.737	1	1
341.908	1	-8
342.079	1	1
342.250	1	4
342.421	1	-12
342.592	1	-2
342.763	1	-1
342.934	1	2
343.105	1	-1
343.276	1	-3
343.447	1	7
343.618	1	6
343.789	1	19
343.960	1	6
344.131	1	9
344.302	1	2
344.473	1	-5
344.644	1	1
344.815	1	-1
344.986	1	2
345.157	1	7
345.328	1	-7
345.499	1	11
345.670	1	6
345.841	1	-1
346.012	1	5
346.183	1	-12
346.354	1	0
346.526	1	-4
346.697	1	2
346.868	1	-1
347.039	1	0
347.210	1	-11
347.381	1	-8
347.552	1	6
347.723	1	3
347.894	1	-4
348.065	1	-9
348.236	1	-5
348.407	1	2
348.578	1	-6
348.749	1	-13
348.920	1	-2
349.091	1	8
349.262	1	4
349.433	1	2
349.604	1	5
349.775	1	4
349.946	1	-10
350.117	1	2
350.288	1	3
350.459	1	-3
350.630	1	-11
350.801	1	5
350.972	1	12
351.143	1	-8
351.314	1	-3
351.485	1	1
351.656	1	11
351.827	1	-8
351.998	1	10
352.169	1	3
352.340	1	6
352.511	1	4
352.682	1	-1
352.853	1	4
353.024	1	-1
353.195	1	3
353.366	1	-3
353.537	1	3
353.708	1	-5
353.879	1	3
354.050	1	-3
354.221	1	3
354.392	1	-10
354.563	1	6
354.734	1	-11
354.905	1	4
355.076	1	2
355.247	1	-6
355.418	1	-3
355.589	1	-1
355.760	1	-6
355.931	1	-6
356.102	1	-2
356.273	1	4
356.444	1	6
356.615	1	1
356.785	1	0
356.956	1	15
357.127	1	-1
357.298	1	-5
357.469	1	0
357.640	1	11
357.811	1	-2
357.982	1	7
358.153	1	-6
358.324	1	7
358.495	1	-3
358.666	1	-4
358.837	1	0
359.008	1	4
359.179	1	-1
359.350	1	5
359.521	1	6
359.692	1	8
359.863	1	-4
360.034	1	-9
360.205	1	-3
360.376	1	3
360.547	1	-4
360.718	1	11
360.889	1	6
361.060	1	-2
361.231	1	3
361.401	1	13
361.572	1	1
361.743	1	17
361.914	1	2
362.085	1	2
362.256	1	-3
362.427	1	20
362.598	1	-2
362.769	1	16
362.940	1	-4
363.111	1	5
363.282	1	11
363.453	1	4
363.624	1	9
363.795	1	3
363.966	1	3
364.137	1	4
364.308	1	14
364.478	1	3
364.649	1	17
364.820	1	18
364.991	1	20
365.162	1	15
365.333	1	6
365.504	1	8
365.675	1	9
365.846	1	14
366.017	1	19
366.188	1	17
366.359	1	9
366.530	1	14
366.701	1	17
366.871	1	11
367.042	1	6
367.213	1	14
367.384	1	10
367.555	1	10
367.726	1	20
367.897	1	20
368.068	1	18
368.239	1	23
368.410	1	13
368.581	1	9
368.752	1	2
368.923	1	29
369.093	1	15
369.264	1	18
369.435	1	11
369.606	1	15
369.777	1	14
369.948	1	15
370.119	1	13
370.290	1	11
370.461	1	13
370.632	1	9
370.803	1	14
370.973	1	16
371.144	1	14
371.315	1	9
371.486	1	13
371.657	1	10
371.828	1	15
371.999	1	4
372.170	1	18
372.341	1	16
372.512	1	3
372.682	1	8
372.853	1	4
373.024	1	13
373.195	1	3
373.366	1	12
373.537	1	17
373.708	1	7
373.879	1	5
374.050	1	12
374.220	1	0
374.391	1	1
374.562	1	8
374.733	1	10
374.904	1	-4
375.075	1	5
375.246	1	7
375.417	1	1
375.588	1	9
375.758	1	15
375.929	1	4
376.100	1	-4
376.271	1	5
376.442	1	4
376.613	1	20
376.784	1	13
376.955	1	5
377.125	1	6
377.296	1	12
377.467	1	13
377.638	1	6
377.809	1	4
377.980	1	2
378.151	1	0
378.321	1	2
378.492	1	4
378.663	1	-4
378.834	1	9
379.005	1	6
379.176	1	10
379.347	1	11
379.518	1	5
379.688	1	2
379.859	1	2
380.030	1	5
380.201	1	-1
380.372	1	0
380.543	1	5
380.714	1	14
380.884	1	4
381.055	1	8
381.226	1	4
381.397	1	8
381.568	1	7
381.739	1	-5
381.910	1	9
382.080	1	-5
382.251	1	5
382.422	1	6
382.593	1	5
382.764	1	8
382.935	1	1
383.105	1	3
383.276	1	12
383.447	1	-2
383.618	1	4
383.789	1	12
383.960	1	-7
384.130	1	0
384.301	1	10
384.472	1	2
384.643	1	-6
384.814	1	-2
384.985	1	8
385.156	1	8
385.326	1	3
385.497	1	-8
385.668	1	1
385.839	1	-11
386.010	1	10
386.180	1	-1
386.351	1	-6
386.522	1	5
386.693	1	9
386.864	1	8
387.035	1	8
387.205	1	-6
387.376	1	-1
387.547	1	13
387.718	1	7
387.889	1	6
388.060	1	11
388.230	1	6
388.401	1	11
388.572	1	0
388.743	1	9
388.914	1	9
389.084	1	-9
389.255	1	-2
389.426	1	-2
389.597	1	-6
389.768	1	10
389.939	1	-5
390.109	1	3
390.280	1	-3
390.451	1	1
390.622	1	2
390.793	1	-1
390.963	1	11
391.134	1	-10
391.305	1	-5
391.476	1	6
391.647	1	-4
391.817	1	11
391.988	1	17
392.159	1	9
392.330	1	1
392.501	1	6
392.671	1	-8
392.842	1	6
393.013	1	-3
393.184	1	7
393.355	1	-6
393.525	1	-4
393.696	1	8
393.867	1	4
394.038	1	-1
394.208	1	4
394.379	1	7
394.550	1	1
394.721	1	-9
394.892	1	6
395.062	1	2
395.233	1	-17
395.404	1	0
395.575	1	11
395.746	1	-2
395.916	1	-4
396.087	1	8
396.258	1	-5
396.429	1	-7
396.599	1	5
396.770	1	0
396.941	1	5
397.112	1	-4
397.283	1	3
397.453	1	0
397.624	1	-2
397.795	1	0
397.966	1	15
398.136	1	-9
398.307	1	-2
398.478	1	7
398.649	1	-1
398.819	1	-7
398.990	1	-4
399.161	1	-1
399.332	1	3
399.503	1	1
399.673	1	2
399.844	1	1
400.015	1	-6
400.186	1	-9
400.356	1	-2
400.527	1	-1
400.698	1	-3
400.869	1	-10
401.039	1	-3
401.210	1	5
401.381	1	-3
401.552	1	-3
401.722	1	-6
401.893	1	13
402.064	1	-5
402.235	1	-8
402.405	1	-17
402.576	1	3
402.747	1	-7
402.918	1	4
403.088	1	-2
403.259	1	2
403.430	1	-7
403.601	1	-4
403.771	1	5
403.942	1	8
404.113	1	1
404.284	1	-2
404.454	1	-10
404.625	1	6
404.796	1	3
404.967	1	-2
405.137	1	-3
405.308	1	0
405.479	1	-1
405.649	1	5
405.820	1	-2
405.991	1	-6
406.162	1	3
406.332	1	-1
406.503	1	0
406.674	1	-6
406.845	1	13
407.015	1	0
407.186	1	-11
407.357	1	-11
407.527	1	-2
407.698	1	-1
407.869	1	-11
408.040	1	-2
408.210	1	7
408.381	1	2
408.552	1	7
408.722	1	-3
408.893	1	7
409.064	1	1
409.235	1	-1
409.405	1	-1
409.576	1	-3
409.747	1	5
409.917	1	-8
410.088	1	-1
410.259	1	-5
410.430	1	-7
410.600	1	2
410.771	1	-4
410.942	1	-10
411.112	1	5
411.283	1	-3
411.454	1	7
411.625	1	2
411.795	1	-7
411.966	1	-7
412.137	1	-3
412.307	1	15
412.478	1	-9
412.649	1	-2
412.819	1	7
412.990	1	5
413.161	1	11
413.332	1	7
413.502	1	-3
413.673	1	-4
413.844	1	2
414.014	1	8
414.185	1	-3
414.356	1	-1
414.526	1	-9
414.697	1	-7
414.868	1	0
415.038	1	2
415.209	1	-4
415.380	1	1
415.550	1	20
415.721	1	-11
415.892	1	6
416.063	1	2
416.233	1	3
416.404	1	-6
416.575	1	1
416.745	1	0
416.916	1	-3
417.087	1	-4
417.257	1	-1
417.428	1	11
417.599	1	-12
417.769	1	-1
417.940	1	-1
418.111	1	9
418.281	1	8
418.452	1	5
418.623	1	-5
418.793	1	18
418.964	1	-4
419.135	1	9
419.305	1	-2
419.476	1	7
419.647	1	-2
419.817	1	4
419.988	1	-7
420.159	1	1
420.329	1	1
420.500	1	7
420.671	1	-3
420.841	1	-4
421.012	1	-2
421.183	1	2
421.353	1	-6
421.524	1	2
421.695	1	0
421.865	1	0
422.036	1	3
422.206	1	-7
422.377	1	-2
422.548	1	1
422.718	1	3
422.889	1	8
423.060	1	-3
423.230	1	-4
423.401	1	4
423.572	1	1
423.742	1	0
423.913	1	-2
424.084	1	1
424.254	1	-9
424.425	1	-2
424.595	1	4
424.766	1	-14
424.937	1	11
425.107	1	11
425.278	1	2
425.449	1	-3
425.619	1	2
425.790	1	11
425.961	1	6
426.131	1	-5
426.302	1	-12
426.472	1	-1
426.643	1	7
426.814	1	-7
426.984	1	-4
427.155	1	9
427.326	1	2
427.496	1	-7
427.667	1	-8
427.837	1	-3
428.008	1	1
428.179	1	-5
428.349	1	-3
428.520	1	-2
428.691	1	4
428.861	1	0
429.032	1	6
429.202	1	6
429.373	1	2
429.544	1	8
429.714	1	1
429.885	1	12
430.055	1	-8
430.226	1	-5
430.397	1	7
430.567	1	1
430.738	1	-13
430.909	1	0
431.079	1	3
431.250	1	10
431.420	1	0
431.591	1	-2
431.762	1	1
431.932	1	-4
432.103	1	-13
432.273	1	6
432.444	1	-1
432.615	1	5
432.785	1	-1
432.956	1	-2
433.126	1	12
433.297	1	-1
433.468	1	-2
433.638	1	1
433.809	1	-1
433.979	1	-4
434.150	1	6
434.320	1	4
434.491	1	0
434.662	1	-1
434.832	1	-10
435.003	1	0
435.173	1	-6
435.344	1	2
435.515	1	-9
435.685	1	0
435.856	1	3
436.026	1	-3
436.197	1	9
436.368	1	-6
436.538	1	-5
436.709	1	-13
436.879	1	3
437.050	1	-1
437.220	1	11
437.391	1	1
437.562	1	2
437.732	1	-2
437.903	1	-1
438.073	1	0
438.244	1	9
438.414	1	-11
438.585	1	-5
438.756	1	3
438.926	1	-6
439.097	1	-2
439.267	1	6
439.438	1	7
439.608	1	3
439.779	1	-5
439.949	1	2
440.120	1	1
440.291	1	-4
440.461	1	-8
440.632	1	-2
440.802	1	6
440.973	1	0
441.143	1	-1
441.314	1	0
441.485	1	2
441.655	1	-9
441.826	1	-1
441.996	1	-16
442.167	1	-6
442.337	1	0
442.508	1	-9
442.678	1	-2
442.849	1	19
443.019	1	0
443.190	1	3
443.361	1	4
443.531	1	5
443.702	1	8
443.872	1	-7
444.043	1	5
444.213	1	6
444.384	1	5
444.554	1	-8
444.725	1	21
444.895	1	-4
445.066	1	-1
445.237	1	-12
445.407	1	-4
445.578	1	12
445.748	1	-5
445.919	1	-7
446.089	1	17
446.260	1	2
446.430	1	-5
446.601	1	8
446.771	1	0
446.942	1	-6
447.112	1	-8
447.283	1	-4
447.453	1	-3
447.624	1	0
447.794	1	4
447.965	1	3
448.135	1	1
448.306	1	13
448.477	1	2
448.647	1	-3
448.818	1	-1
448.988	1	-2
449.159	1	4
449.329	1	5
449.500	1	-4
449.670	1	-6
449.841	1	-13
450.011	1	8
450.182	1	1
450.352	1	4
450.523	1	-6
450.693	1	-3
450.864	1	-3
451.034	1	16
451.205	1	1
451.375	1	-4
451.546	1	-8
451.716	1	-5
451.887	1	-1
452.057	1	0
452.228	1	4
452.398	1	12
452.569	1	12
452.739	1	3
452.910	1	-2
453.080	1	-1
453.251	1	-3
453.421	1	4
453.592	1	3
453.762	1	-5
453.933	1	3
454.103	1	-6
454.274	1	2
454.444	1	-6
454.615	1	0
454.785	1	-3
454.956	1	-6
455.126	1	7
455.297	1	11
455.467	1	-2
455.638	1	-5
455.808	1	2
455.979	1	-4
456.149	1	6
456.320	1	9
456.490	1	-1
456.661	1	0
456.831	1	-2
457.001	1	6
457.172	1	-12
457.342	1	-2
457.513	1	5
457.683	1	0
457.854	1	-1
458.024	1	-12
458.195	1	-1
458.365	1	-4
458.536	1	-1
458.706	1	14
458.877	1	-5
459.047	1	3
459.218	1	4
459.388	1	9
459.559	1	-6
459.729	1	-6
459.899	1	-4
460.070	1	-4
460.240	1	-4
460.411	1	1
460.581	1	-1
460.752	1	4
460.922	1	-7
461.093	1	3
461.263	1	0
461.434	1	5
461.604	1	3
461.775	1	-11
461.945	1	-5
462.115	1	5
462.286	1	5
462.456	1	4
462.627	1	3
462.797	1	-4
462.968	1	6
463.138	1	4
463.309	1	1
463.479	1	1
463.649	1	7
463.820	1	-1
463.990	1	-3
464.161	1	-5
464.331	1	-2
464.502	1	-5
464.672	1	4
464.843	1	3
465.013	1	2
465.183	1	-3
465.354	1	5
465.524	1	0
465.695	1	10
465.865	1	0
466.036	1	-4
466.206	1	6
466.376	1	2
466.547	1	4
466.717	1	2
466.888	1	1
467.058	1	16
467.229	1	12
467.399	1	11
467.569	1	16
467.740	1	0
467.910	1	0
468.081	1	2
468.251	1	1
468.422	1	-3
468.592	1	13
468.762	1	3
468.933	1	1
469.103	1	4
469.274	1	10
469.444	1	2
469.614	1	-1
469.785	1	-13
469.955	1	5
470.126	1	-8
470.296	1	-2
470.467	1	0
470.637	1	-1
470.807	1	6
470.978	1	-4
471.148	1	1
471.319	1	10
471.489	1	1
471.659	1	1
471.830	1	1
472.000	1	0
472.171	1	4
472.341	1	-1
472.511	1	11
472.682	1	-8
472.852	1	7
473.023	1	-3
473.193	1	-4
473.363	1	4
473.534	1	5
473.704	1	-13
473.875	1	0
474.045	1	8
474.215	1	5
474.386	1	-6
474.556	1	7
474.727	1	-3
474.897	1	-3
475.067	1	-4
475.238	1	-1
475.408	1	0
475.578	1	7
475.749	1	6
475.919	1	-4
476.090	1	3
476.260	1	-4
476.430	1	-1
476.601	1	-4
476.771	1	2
476.942	1	-1
477.112	1	1
477.282	1	-5
477.453	1	-1
477.623	1	3
477.793	1	0
477.964	1	7
478.134	1	9
478.305	1	6
478.475	1	4
478.645	1	2
478.816	1	-3
478.986	1	5
479.156	1	-11
479.327	1	4
479.497	1	6
479.667	1	-2
479.838	1	6
480.008	1	-8
480.179	1	0
480.349	1	-1
480.519	1	7
480.690	1	2
480.860	1	2
481.030	1	-1
481.201	1	11
481.371	1	10
481.541	1	-7
481.712	1	-9
481.882	1	4
482.053	1	-2
482.223	1	7
482.393	1	6
482.564	1	4
482.734	1	16
482.904	1	2
483.075	1	1
483.245	1	-2
483.415	1	2
483.586	1	4
483.756	1	1
483.926	1	4
484.097	1	8
484.267	1	3
484.437	1	3
484.608	1	0
484.778	1	-5
484.948	1	5
485.119	1	7
485.289	1	-1
485.459	1	5
485.630	1	-1
485.800	1	2
485.970	1	-11
486.141	1	-2
486.311	1	-6
486.481	1	-1
486.652	1	0
486.822	1	1
486.992	1	9
487.163	1	-14
487.333	1	-2
487.503	1	-6
487.674	1	0
487.844	1	-8
488.014	1	1
488.185	1	-6
488.355	1	0
488.525	1	-1
488.696	1	3
488.866	1	2
489.036	1	3
489.207	1	1
489.377	1	1
489.547	1	6
489.718	1	-4
489.888	1	-7
490.058	1	5
490.228	1	4
490.399	1	6
490.569	1	-1
490.739	1	9
490.910	1	-8
491.080	1	-6
491.250	1	11
491.421	1	5
491.591	1	-5
491.761	1	9
491.932	1	5
492.102	1	8
492.272	1	-7
492.442	1	-1
492.613	1	-1
492.783	1	-3
492.953	1	7
493.124	1	0
493.294	1	1
493.464	1	5
493.635	1	5
493.805	1	11
493.975	1	12
494.145	1	-4
494.316	1	0
494.486	1	-17
494.656	1	0
494.827	1	-1
494.997	1	9
495.167	1	14
495.337	1	5
495.508	1	-1
495.678	1	7
495.848	1	3
496.019	1	9
496.189	1	13
496.359	1	-12
496.529	1	2
496.700	1	7
496.870	1	-2
497.040	1	-2
497.211	1	3
497.381	1	2
497.551	1	0
497.721	1	-5
497.892	1	9
498.062	1	2
498.232	1	1
498.403	1	-2
498.573	1	10
498.743	1	-4
498.913	1	4
499.084	1	13
499.254	1	10
499.424	1	-4
499.594	1	-2
499.765	1	4
499.935	1	-5
500.105	1	-7
500.275	1	9
500.446	1	7
500.616	1	11
500.786	1	-5
500.956	1	14
501.127	1	-7
501.297	1	-7
501.467	1	4
501.638	1	-9
501.808	1	15
501.978	1	5
502.148	1	-6
502.319	1	3
502.489	1	3
502.659	1	9
502.829	1	-3
503.000	1	-1
503.170	1	-2
503.340	1	-3
503.510	1	-3
503.681	1	2
503.851	1	-6
504.021	1	3
504.191	1	7
504.362	1	4
504.532	1	1
504.702	1	-6
504.872	1	-10
505.042	1	0
505.213	1	-2
505.383	1	8
505.553	1	0
505.723	1	12
505.894	1	-4
506.064	1	7
506.234	1	0
506.404	1	6
506.575	1	4
506.745	1	-3
506.915	1	4
507.085	1	-1
507.256	1	4
507.426	1	6
507.596	1	5
507.766	1	7
507.936	1	-2
508.107	1	0
508.277	1	-8
508.447	1	-16
508.617	1	-2
508.788	1	-2
508.958	1	6
509.128	1	1
509.298	1	-6
509.468	1	10
509.639	1	-5
509.809	1	1
509.979	1	6
510.149	1	2
510.319	1	14
510.490	1	9
510.660	1	1
510.830	1	-2
511.000	1	-9
511.171	1	5
511.341	1	-6
511.511	1	-6
511.681	1	4
511.851	1	10
512.022	1	10
512.192	1	6
512.362	1	10
512.532	1	2
512.702	1	-4
512.873	1	-1
513.043	1	-3
513.213	1	3
513.383	1	6
513.553	1	-4
513.724	1	10
513.894	1	9
514.064	1	2
514.234	1	0
514.404	1	-10
514.575	1	16
514.745	1	-7
514.915	1	0
515.085	1	-8
515.255	1	0
515.425	1	3
515.596	1	-2
515.766	1	5
515.936	1	7
516.106	1	-2
516.276	1	2
516.447	1	1
516.617	1	2
516.787	1	7
516.957	1	-5
517.127	1	2
517.297	1	2
517.468	1	11
517.638	1	-7
517.808	1	12
517.978	1	-1
518.148	1	11
518.319	1	-5
518.489	1	9
518.659	1	8
518.829	1	0
518.999	1	6
519.169	1	4
519.340	1	7
519.510	1	3
519.680	1	-13
519.850	1	4
520.020	1	-3
520.190	1	14
520.361	1	-1
520.531	1	-3
520.701	1	5
520.871	1	0
521.041	1	-1
521.211	1	-10
521.382	1	4
521.552	1	2
521.722	1	11
521.892	1	-1
522.062	1	2
522.232	1	8
522.402	1	3
522.573	1	6
522.743	1	-8
522.913	1	5
523.083	1	5
523.253	1	-6
523.423	1	7
523.593	1	-5
523.764	1	2
523.934	1	3
524.104	1	6
524.274	1	2
524.444	1	6
524.614	1	10
524.784	1	7
524.955	1	-7
525.125	1	-5
525.295	1	3
525.465	1	9
525.635	1	-5
525.805	1	4
525.975	1	4
526.146	1	-3
526.316	1	-1
526.486	1	6
526.656	1	2
526.826	1	8
526.996	1	1
527.166	1	12
527.337	1	3
527.507	1	-1
527.677	1	2
527.847	1	0
528.017	1	9
528.187	1	9
528.357	1	10
528.527	1	5
528.698	1	5
528.868	1	4
529.038	1	-4
529.208	1	4
529.378	1	-6
529.548	1	2
529.718	1	-1
529.888	1	4
530.058	1	-1
530.229	1	2
530.399	1	13
530.569	1	-6
530.739	1	-1
530.909	1	3
531.079	1	-2
531.249	1	-7
531.419	1	-11
531.589	1	11
531.760	1	13
531.930	1	2
532.100	1	13
532.270	1	5
532.440	1	-3
532.610	1	1
532.780	1	-2
532.950	1	-10
533.120	1	-5
533.290	1	-4
533.461	1	2
533.631	1	3
533.801	1	16
533.971	1	-9
534.141	1	8
534.311	1	-2
534.481	1	-6
534.651	1	6
534.821	1	-13
534.991	1	-4
535.162	1	0
535.332	1	8
535.502	1	11
535.672	1	6
535.842	1	5
536.012	1	-9
536.182	1	11
536.352	1	-1
536.522	1	-3
536.692	1	-11
536.862	1	-2
537.032	1	-5
537.203	1	6
537.373	1	0
537.543	1	8
537.713	1	7
537.883	1	0
538.053	1	4
538.223	1	3
538.393	1	5
538.563	1	12
538.733	1	-5
538.903	1	-2
539.073	1	6
539.243	1	-5
539.413	1	0
539.584	1	0
539.754	1	1
539.924	1	-3
540.094	1	10
540.264	1	10
540.434	1	4
540.604	1	15
540.774	1	0
540.944	1	2
541.114	1	1
541.284	1	4
541.454	1	2
541.624	1	-1
541.794	1	8
541.964	1	-7
542.134	1	-3
542.305	1	5
542.475	1	8
542.645	1	6
542.815	1	-4
542.985	1	-2
543.155	1	16
543.325	1	0
543.495	1	0
543.665	1	2
543.835	1	4
544.005	1	4
544.175	1	11
544.345	1	2
544.515	1	-6
544.685	1	11
544.855	1	-9
545.025	1	6
545.195	1	4
545.365	1	3
545.535	1	9
545.705	1	2
545.875	1	5
546.045	1	4
546.216	1	6
546.386	1	-1
546.556	1	-8
546.726	1	-3
546.896	1	-2
547.066	1	10
547.236	1	-4
547.406	1	4
547.576	1	4
547.746	1	-8
547.916	1	1
548.086	1	-1
548.256	1	-6
548.426	1	9
548.596	1	0
548.766	1	1
548.936	1	-2
549.106	1	-8
549.276	1	1
549.446	1	-4
549.616	1	-3
549.786	1	10
549.956	1	-8
550.126	1	5
550.296	1	8
550.466	1	1
550.636	1	3
550.806	1	11
550.976	1	0
551.146	1	4
551.316	1	2
551.486	1	-1
551.656	1	-17
551.826	1	-2
551.996	1	1
552.166	1	3
552.336	1	4
552.506	1	6
552.676	1	3
552.846	1	7
553.016	1	1
553.186	1	8
553.356	1	0
553.526	1	3
553.696	1	-5
553.866	1	6
554.036	1	13
554.206	1	5
554.376	1	-9
554.546	1	7
554.716	1	2
554.886	1	-5
555.056	1	8
555.226	1	-7
555.396	1	8
555.566	1	-4
555.736	1	2
555.906	1	4
556.076	1	2
556.246	1	1
556.416	1	15
556.586	1	-14
556.756	1	-5
556.926	1	3
557.096	1	6
557.266	1	-2
557.436	1	2
557.606	1	-4
557.776	1	-5
557.946	1	-8
558.116	1	-1
558.286	1	-5
558.456	1	-2
558.626	1	5
558.796	1	10
558.966	1	-1
559.136	1	3
559.306	1	11
559.476	1	4
559.646	1	9
559.816	1	5
559.986	1	3
560.155	1	-2
560.325	1	8
560.495	1	9
560.665	1	1
560.835	1	-1
561.005	1	-3
561.175	1	2
561.345	1	7
561.515	1	-5
561.685	1	6
561.855	1	-3
562.025	1	12
562.195	1	6
562.365	1	4
562.535	1	0
562.705	1	12
562.875	1	-5
563.045	1	3
563.215	1	-4
563.385	1	3
563.555	1	-1
563.725	1	4
563.895	1	-7
564.064	1	2
564.234	1	-9
564.404	1	-4
564.574	1	-9
564.744	1	1
564.914	1	3
565.084	1	-12
565.254	1	2
565.424	1	4
565.594	1	-3
565.764	1	-3
565.934	1	2
566.104	1	-3
566.274	1	6
566.444	1	1
566.614	1	0
566.783	1	-5
566.953	1	1
567.123	1	5
567.293	1	-11
567.463	1	1
567.633	1	3
567.803	1	1
567.973	1	9
568.143	1	2
568.313	1	-2
568.483	1	5
568.653	1	11
568.823	1	0
568.993	1	1
569.162	1	-2
569.332	1	9
569.502	1	6
569.672	1	1
569.842	1	2
570.012	1	9
570.182	1	2
570.352	1	0
570.522	1	-3
570.692	1	-1
570.862	1	11
571.031	1	-8
571.201	1	0
571.371	1	-5
571.541	1	1
571.711	1	-1
571.881	1	8
572.051	1	-11
572.221	1	1
572.391	1	2
572.561	1	2
572.731	1	0
572.900	1	3
573.070	1	1
573.240	1	0
573.410	1	9
573.580	1	8
573.750	1	0
573.920	1	3
574.090	1	2
574.260	1	-2
574.430	1	-3
574.599	1	-4
574.769	1	1
574.939	1	-7
575.109	1	5
575.279	1	-1
575.449	1	6
575.619	1	0
575.789	1	23
575.959	1	0
576.128	1	0
576.298	1	3
576.468	1	2
576.638	1	8
576.808	1	5
576.978	1	-7
577.148	1	10
577.318	1	6
577.487	1	-6
577.657	1	5
577.827	1	-4
577.997	1	1
578.167	1	7
578.337	1	11
578.507	1	8
578.677	1	-8
578.846	1	5
579.016	1	11
579.186	1	-2
579.356	1	7
579.526	1	-3
579.696	1	8
579.866	1	-9
580.036	1	0
580.205	1	2
580.375	1	13
580.545	1	2
580.715	1	0
580.885	1	-5
581.055	1	-1
581.225	1	8
581.394	1	6
581.564	1	8
581.734	1	2
581.904	1	-2
582.074	1	6
582.244	1	7
582.414	1	-8
582.583	1	0
582.753	1	1
582.923	1	-4
583.093	1	-6
583.263	1	6
583.433	1	-4
583.603	1	8
583.772	1	-1
583.942	1	3
584.112	1	-3
584.282	1	8
584.452	1	6
584.622	1	1
584.791	1	3
584.961	1	-3
585.131	1	-6
585.301	1	4
585.471	1	12
585.641	1	11
585.811	1	4
585.980	1	5
586.150	1	-5
586.320	1	2
586.490	1	-1
586.660	1	1
586.830	1	5
586.999	1	10
587.169	1	0
587.339	1	0
587.509	1	-6
587.679	1	13
587.849	1	-2
588.018	1	21
588.188	1	4
588.358	1	3
588.528	1	4
588.698	1	1
588.867	1	7
589.037	1	-1
589.207	1	-3
589.377	1	9
589.547	1	8
589.717	1	1
589.886	1	-7
590.056	1	-10
590.226	1	-1
590.396	1	-2
590.566	1	0
590.735	1	18
590.905	1	3
591.075	1	-7
591.245	1	9
591.415	1	-7
591.585	1	-5
591.754	1	2
591.924	1	6
592.094	1	2
592.264	1	2
592.434	1	-4
592.603	1	0
592.773	1	-3
592.943	1	13
593.113	1	0
593.283	1	5
593.452	1	5
593.622	1	-1
593.792	1	-2
593.962	1	3
594.132	1	-3
594.301	1	6
594.471	1	3
594.641	1	3
594.811	1	1
594.981	1	-2
595.150	1	3
595.320	1	1
595.490	1	8
595.660	1	1
595.829	1	-5
595.999	1	-1
596.169	1	18
596.339	1	-6
596.509	1	3
596.678	1	-4
596.848	1	4
597.018	1	4
597.188	1	2
597.358	1	-6
597.527	1	0
597.697	1	-4
597.867	1	3
598.037	1	4
598.206	1	-3
598.376	1	-6
598.546	1	-7
598.716	1	6
598.885	1	5
599.055	1	3
599.225	1	10
599.395	1	-2
599.565	1	-9
599.734	1	13
599.904	1	-5
600.074	1	-11
600.244	1	6
600.413	1	-2
600.583	1	6
600.753	1	6
600.923	1	5
601.092	1	2
601.262	1	5
601.432	1	3
601.602	1	4
601.771	1	2
601.941	1	-2
602.111	1	3
602.281	1	-4
602.451	1	5
602.620	1	-9
602.790	1	-4
602.960	1	-2
603.130	1	3
603.299	1	5
603.469	1	2
603.639	1	10
603.809	1	4
603.978	1	-2
604.148	1	11
604.318	1	5
604.487	1	-4
604.657	1	1
604.827	1	2
604.997	1	0
605.166	1	5
605.336	1	-1
605.506	1	-3
605.676	1	1
605.845	1	2
606.015	1	-2
606.185	1	0
606.355	1	3
606.524	1	6
606.694	1	-7
606.864	1	-8
607.034	1	2
607.203	1	2
607.373	1	-1
607.543	1	-9
607.712	1	-4
607.882	1	8
608.052	1	0
608.222	1	2
608.391	1	0
608.561	1	5
608.731	1	1
608.901	1	9
609.070	1	-2
609.240	1	6
609.410	1	-11
609.579	1	-4
609.749	1	9
609.919	1	3
610.089	1	0
610.258	1	-2
610.428	1	3
610.598	1	-5
610.767	1	3
610.937	1	-4
611.107	1	-6
611.277	1	5
611.446	1	-4
611.616	1	8
611.786	1	6
611.955	1	-6
612.125	1	-4
612.295	1	6
612.465	1	-3
612.634	1	0
612.804	1	-2
612.974	1	1
613.143	1	-6
613.313	1	-3
613.483	1	0
613.652	1	-2
613.822	1	3
613.992	1	10
614.162	1	-9
614.331	1	6
614.501	1	-8
614.671	1	8
614.840	1	5
615.010	1	0
615.180	1	4
615.349	1	6
615.519	1	6
615.689	1	3
615.858	1	8
616.028	1	6
616.198	1	3
616.368	1	4
616.537	1	-14
616.707	1	8
616.877	1	3
617.046	1	3
617.216	1	20
617.386	1	10
617.555	1	4
617.725	1	-4
617.895	1	5
618.064	1	-8
618.234	1	-4
618.404	1	-1
618.573	1	1
618.743	1	7
618.913	1	8
619.082	1	5
619.252	1	4
619.422	1	-6
619.591	1	-5
619.761	1	-5
619.931	1	-9
620.100	1	2
620.270	1	1
620.440	1	1
620.609	1	-11
620.779	1	5
620.949	1	10
621.118	1	7
621.288	1	2
621.458	1	2
621.627	1	6
621.797	1	0
621.967	1	-5
622.136	1	2
622.306	1	-7
622.476	1	1
622.645	1	5
622.815	1	-11
622.985	1	-2
623.154	1	-5
623.324	1	4
623.494	1	15
623.663	1	15
623.833	1	-6
624.002	1	4
624.172	1	7
624.342	1	-5
624.511	1	7
624.681	1	4
624.851	1	7
625.020	1	17
625.190	1	-6
625.360	1	-5
625.529	1	-8
625.699	1	11
625.869	1	4
626.038	1	-6
626.208	1	-2
626.377	1	3
626.547	1	13
626.717	1	4
626.886	1	4
627.056	1	-3
627.226	1	0
627.395	1	-3
627.565	1	5
627.735	1	3
627.904	1	19
628.074	1	-2
628.243	1	3
628.413	1	4
628.583	1	0
628.752	1	-2
628.922	1	3
629.091	1	-5
629.261	1	-3
629.431	1	-1
629.600	1	7
629.770	1	2
629.940	1	-9
630.109	1	-2
630.279	1	0
630.448	1	2
630.618	1	3
630.788	1	-6
630.957	1	1
631.127	1	2
631.297	1	12
631.466	1	12
631.636	1	2
631.805	1	5
631.975	1	4
632.145	1	-17
632.314	1	-3
632.484	1	4
632.653	1	-4
632.823	1	0
632.993	1	4
633.162	1	10
633.332	1	4
633.501	1	-8
633.671	1	0
633.841	1	-1
634.010	1	7
634.180	1	-4
634.349	1	2
634.519	1	0
634.689	1	1
634.858	1	5
635.028	1	7
635.197	1	0
635.367	1	4
635.537	1	-6
635.706	1	-4
635.876	1	10
636.045	1	-10
636.215	1	-4
636.384	1	-3
636.554	1	9
636.724	1	-1
636.893	1	-2
637.063	1	16
637.232	1	8
637.402	1	-4
637.572	1	1
637.741	1	-13
637.911	1	-10
638.080	1	1
638.250	1	-4
638.419	1	-3
638.589	1	0
638.759	1	3
638.928	1	7
639.098	1	2
639.267	1	-12
639.437	1	2
639.606	1	-7
639.776	1	-3
639.946	1	1
640.115	1	1
640.285	1	4
640.454	1	-5
640.624	1	9
640.793	1	3
640.963	1	-8
641.132	1	-2
641.302	1	5
641.472	1	1
641.641	1	5
641.811	1	-3
641.980	1	-9
642.150	1	4
642.319	1	2
642.489	1	3
642.659	1	1
642.828	1	3
642.998	1	-6
643.167	1	-2
643.337	1	-5
643.506	1	11
643.676	1	-6
643.845	1	0
644.015	1	4
644.184	1	-1
644.354	1	1
644.524	1	7
644.693	1	2
644.863	1	6
645.032	1	3
645.202	1	5
645.371	1	-14
645.541	1	1
645.710	1	3
645.880	1	13
646.049	1	2
646.219	1	4
646.388	1	-10
646.558	1	7
646.728	1	13
646.897	1	3
647.067	1	9
647.236	1	-2
647.406	1	0
647.575	1	2
647.745	1	-5
647.914	1	-1
648.084	1	-5
648.253	1	-5
648.423	1	-1
648.592	1	0
648.762	1	-2
648.931	1	1
649.101	1	0
649.270	1	-1
649.440	1	-1
649.610	1	1
649.779	1	1
649.949	1	-8
650.118	1	1
650.288	1	4
650.457	1	2
650.627	1	4
650.796	1	-5
650.966	1	-1
651.135	1	-3
651.305	1	1
651.474	1	6
651.644	1	-7
651.813	1	-4
651.983	1	11
652.152	1	8
652.322	1	-7
652.491	1	4
652.661	1	3
652.830	1	4
653.000	1	1
653.169	1	7
653.339	1	7
653.508	1	4
653.678	1	-5
653.847	1	10
654.017	1	9
654.186	1	-1
654.356	1	3
654.525	1	8
654.695	1	-4
654.864	1	-1
655.034	1	3
655.203	1	-10
655.373	1	5
655.542	1	-4
655.712	1	-2
655.881	1	-2
656.051	1	1
656.220	1	4
656.390	1	2
656.559	1	10
656.729	1	3
656.898	1	-1
657.068	1	-2
657.237	1	-2
657.406	1	1
657.576	1	-6
657.745	1	4
657.915	1	10
658.084	1	15
658.254	1	-1
658.423	1	4
658.593	1	4
658.762	1	19
658.932	1	-5
659.101	1	2
659.271	1	-6
659.440	1	-7
659.610	1	4
659.779	1	4
659.949	1	3
660.118	1	3
660.288	1	1
660.457	1	14
660.626	1	13
660.796	1	-8
660.965	1	-12
661.135	1	1
661.304	1	4
661.474	1	-2
661.643	1	4
661.813	1	15
661.982	1	1
662.152	1	2
662.321	1	3
662.491	1	5
662.660	1	-4
662.829	1	-6
662.999	1	3
663.168	1	-3
663.338	1	-3
663.507	1	-7
663.677	1	-13
663.846	1	2
664.016	1	5
664.185	1	1
664.354	1	8
664.524	1	-8
664.693	1	1
664.863	1	-4
665.032	1	8
665.202	1	-6
665.371	1	1
665.541	1	-5
665.710	1	-3
665.879	1	3
666.049	1	1
666.218	1	-5
666.388	1	3
666.557	1	4
666.727	1	-4
666.896	1	-1
667.065	1	-1
667.235	1	1
667.404	1	8
667.574	1	6
667.743	1	7
667.913	1	-2
668.082	1	0
668.251	1	2
668.421	1	-4
668.590	1	7
668.760	1	1
668.929	1	-5
669.099	1	5
669.268	1	10
669.437	1	2
669.607	1	0
669.776	1	-2
669.946	1	-4
670.115	1	-7
670.285	1	-5
670.454	1	14
670.623	1	-6
670.793	1	-4
670.962	1	-3
671.132	1	3
671.301	1	-2
671.470	1	3
671.640	1	-2
671.809	1	-2
671.979	1	6
672.148	1	0
672.317	1	-1
672.487	1	2
672.656	1	8
672.826	1	7
672.995	1	1
673.164	1	22
673.334	1	-2
673.503	1	-5
673.673	1	-6
673.842	1	-12
674.011	1	-9
674.181	1	16
674.350	1	-1
674.520	1	14
674.689	1	-6
674.858	1	2
675.028	1	5
675.197	1	3
675.367	1	-10
675.536	1	13
675.705	1	-3
675.875	1	-8
676.044	1	-2
676.214	1	6
676.383	1	4
676.552	1	-1
676.722	1	-5
676.891	1	-11
677.060	1	0
677.230	1	3
677.399	1	5
677.569	1	12
677.738	1	13
677.907	1	2
678.077	1	6
678.246	1	-9
678.416	1	-7
678.585	1	-2
678.754	1	3
678.924	1	-3
679.093	1	3
679.262	1	11
679.432	1	7
679.601	1	19
679.771	1	-1
679.940	1	1
680.109	1	-11
680.279	1	3
680.448	1	-6
680.617	1	-6
680.787	1	6
680.956	1	2
681.125	1	3
681.295	1	-1
681.464	1	7
681.634	1	-2
681.803	1	0
681.972	1	2
682.142	1	-9
682.311	1	4
682.480	1	0
682.650	1	3
682.819	1	7
682.988	1	11
683.158	1	7
683.327	1	5
683.496	1	-5
683.666	1	9
683.835	1	-9
684.004	1	15
684.174	1	8
684.343	1	-3
684.512	1	10
684.682	1	-3
684.851	1	0
685.021	1	-5
685.190	1	10
685.359	1	-8
685.529	1	5
685.698	1	-6
685.867	1	1
686.037	1	-1
686.206	1	2
686.375	1	9
686.545	1	-2
686.714	1	-3
686.883	1	-1
687.053	1	-7
687.222	1	6
687.391	1	6
687.561	1	8
687.730	1	-6
687.899	1	3
688.069	1	1
688.238	1	1
688.407	1	0
688.577	1	7
688.746	1	-8
