340.368	1	7
340.539	1	9
340.710	1	-4
340.881	1	-2
341.052	1	9
341.223	1	-9
341.394	1	6
341.565	1	9
341.737	1	7
341.908	1	2
342.079	1	9
342.250	1	8
342.421	1	3
342.592	1	-3
342.763	1	2
342.934	1	11
343.105	1	3
343.276	1	4
343.447	1	13
343.618	1	10
343.789	1	16
343.960	1	18
344.131	1	10
344.302	1	12
344.473	1	5
344.644	1	2
344.815	1	7
344.986	1	3
345.157	1	7
345.328	1	5
345.499	1	12
345.670	1	10
345.841	1	6
346.012	1	5
346.183	1	-1
346.354	1	3
346.526	1	7
346.697	1	11
346.868	1	4
347.039	1	1
347.210	1	4
347.381	1	8
347.552	1	16
347.723	1	11
347.894	1	2
348.065	1	-1
348.236	1	-6
348.407	1	-1
348.578	1	-1
348.749	1	3
348.920	1	0
349.091	1	10
349.262	1	3
349.433	1	20
349.604	1	-3
349.775	1	6
349.946	1	2
350.117	1	5
350.288	1	9
350.459	1	-3
350.630	1	4
350.801	1	1
350.972	1	8
351.143	1	6
351.314	1	7
351.485	1	4
351.656	1	11
351.827	1	0
351.998	1	14
352.169	1	3
352.340	1	11
352.511	1	6
352.682	1	6
352.853	1	4
353.024	1	9
353.195	1	12
353.366	1	3
353.537	1	12
353.708	1	3
353.879	1	16
354.050	1	11
354.221	1	-1
354.392	1	13
354.563	1	25
354.734	1	-1
354.905	1	19
355.076	1	7
355.247	1	10
355.418	1	15
355.589	1	12
355.760	1	5
355.931	1	10
356.102	1	14
356.273	1	9
356.444	1	17
356.615	1	14
356.785	1	15
356.956	1	23
357.127	1	15
357.298	1	18
357.469	1	20
357.640	1	26
357.811	1	21
357.982	1	28
358.153	1	15
358.324	1	23
358.495	1	23
358.666	1	30
358.837	1	20
359.008	1	18
359.179	1	25
359.350	1	33
359.521	1	26
359.692	1	37
359.863	1	21
360.034	1	30
360.205	1	35
360.376	1	33
360.547	1	45
360.718	1	38
360.889	1	38
361.060	1	29
361.231	1	36
361.401	1	50
361.572	1	53
361.743	1	38
361.914	1	53
362.085	1	57
362.256	1	47
362.427	1	48
362.598	1	51
362.769	1	71
362.940	1	52
363.111	1	56
363.282	1	69
363.453	1	79
363.624	1	82
363.795	1	67
363.966	1	77
364.137	1	77
364.308	1	85
364.478	1	83
364.649	1	93
364.820	1	96
364.991	1	102
365.162	1	130
365.333	1	114
365.504	1	116
365.675	1	115
365.846	1	117
366.017	1	125
366.188	1	131
366.359	1	122
366.530	1	151
366.701	1	141
366.871	1	147
367.042	1	149
367.213	1	165
367.384	1	151
367.555	1	157
367.726	1	158
367.897	1	164
368.068	1	169
368.239	1	164
368.410	1	181
368.581	1	162
368.752	1	179
368.923	1	181
369.093	1	175
369.264	1	175
369.435	1	174
369.606	1	186
369.777	1	156
369.948	1	167
370.119	1	154
370.290	1	170
370.461	1	162
370.632	1	177
370.803	1	152
370.973	1	148
371.144	1	140
371.315	1	134
371.486	1	132
371.657	1	140
371.828	1	128
371.999	1	125
372.170	1	119
372.341	1	119
372.512	1	103
372.682	1	115
372.853	1	113
373.024	1	120
373.195	1	113
373.366	1	105
373.537	1	107
373.708	1	106
373.879	1	102
374.050	1	102
374.220	1	94
374.391	1	82
374.562	1	95
374.733	1	94
374.904	1	76
375.075	1	80
375.246	1	94
375.417	1	74
375.588	1	69
375.758	1	89
375.929	1	64
376.100	1	63
376.271	1	78
376.442	1	69
376.613	1	78
376.784	1	71
376.955	1	57
377.125	1	71
377.296	1	59
377.467	1	74
377.638	1	64
377.809	1	61
377.980	1	51
378.151	1	49
378.321	1	56
378.492	1	59
378.663	1	51
378.834	1	47
379.005	1	56
379.176	1	56
379.347	1	58
379.518	1	60
379.688	1	40
379.859	1	44
380.030	1	47
380.201	1	35
380.372	1	35
380.543	1	37
380.714	1	41
380.884	1	32
381.055	1	45
381.226	1	44
381.397	1	44
381.568	1	42
381.739	1	21
381.910	1	34
382.080	1	35
382.251	1	31
382.422	1	36
382.593	1	37
382.764	1	36
382.935	1	39
383.105	1	30
383.276	1	35
383.447	1	32
383.618	1	36
383.789	1	37
383.960	1	24
384.130	1	33
384.301	1	37
384.472	1	30
384.643	1	29
384.814	1	24
384.985	1	39
385.156	1	30
385.326	1	26
385.497	1	25
385.668	1	22
385.839	1	20
386.010	1	32
386.180	1	26
386.351	1	12
386.522	1	30
386.693	1	22
386.864	1	23
387.035	1	22
387.205	1	7
387.376	1	14
387.547	1	25
387.718	1	23
387.889	1	23
388.060	1	22
388.230	1	24
388.401	1	30
388.572	1	11
388.743	1	22
388.914	1	26
389.084	1	11
389.255	1	10
389.426	1	13
389.597	1	14
389.768	1	23
389.939	1	20
390.109	1	10
390.280	1	28
390.451	1	11
390.622	1	15
390.793	1	13
390.963	1	25
391.134	1	8
391.305	1	12
391.476	1	18
391.647	1	8
391.817	1	22
391.988	1	13
392.159	1	10
392.330	1	8
392.501	1	14
392.671	1	11
392.842	1	10
393.013	1	12
393.184	1	11
393.355	1	5
393.525	1	8
393.696	1	14
393.867	1	12
394.038	1	12
394.208	1	11
394.379	1	13
394.550	1	6
394.721	1	9
394.892	1	6
395.062	1	11
395.233	1	3
395.404	1	21
395.575	1	8
395.746	1	5
395.916	1	12
396.087	1	24
396.258	1	13
396.429	1	10
396.599	1	7
396.770	1	9
396.941	1	15
397.112	1	3
397.283	1	12
397.453	1	7
397.624	1	5
397.795	1	19
397.966	1	16
398.136	1	13
398.307	1	16
398.478	1	11
398.649	1	16
398.819	1	6
398.990	1	5
399.161	1	8
399.332	1	21
399.503	1	14
399.673	1	12
399.844	1	14
400.015	1	-1
400.186	1	0
400.356	1	8
400.527	1	-4
400.698	1	9
400.869	1	2
401.039	1	2
401.210	1	4
401.381	1	9
401.552	1	4
401.722	1	1
401.893	1	14
402.064	1	8
402.235	1	-1
402.405	1	-5
402.576	1	7
402.747	1	11
402.918	1	3
403.088	1	3
403.259	1	17
403.430	1	0
403.601	1	10
403.771	1	7
403.942	1	11
404.113	1	9
404.284	1	5
404.454	1	-4
404.625	1	3
404.796	1	9
404.967	1	9
405.137	1	16
405.308	1	11
405.479	1	8
405.649	1	12
405.820	1	10
405.991	1	2
406.162	1	12
406.332	1	5
406.503	1	-5
406.674	1	4
406.845	1	17
407.015	1	9
407.186	1	-8
407.357	1	4
407.527	1	7
407.698	1	8
407.869	1	-1
408.040	1	12
408.210	1	7
408.381	1	11
408.552	1	10
408.722	1	11
408.893	1	9
409.064	1	-3
409.235	1	9
409.405	1	7
409.576	1	-3
409.747	1	10
409.917	1	5
410.088	1	5
410.259	1	2
410.430	1	5
410.600	1	19
410.771	1	4
410.942	1	1
411.112	1	6
411.283	1	2
411.454	1	15
411.625	1	7
411.795	1	5
411.966	1	3
412.137	1	2
412.307	1	12
412.478	1	1
412.649	1	1
412.819	1	6
412.990	1	9
413.161	1	3
413.332	1	11
413.502	1	4
413.673	1	5
413.844	1	-2
414.014	1	6
414.185	1	5
414.356	1	-3
414.526	1	-6
414.697	1	-2
414.868	1	7
415.038	1	13
415.209	1	11
415.380	1	2
415.550	1	16
415.721	1	0
415.892	1	9
416.063	1	-3
416.233	1	7
416.404	1	-7
416.575	1	6
416.745	1	2
416.916	1	-6
417.087	1	-3
417.257	1	2
417.428	1	11
417.599	1	3
417.769	1	2
417.940	1	-1
418.111	1	6
418.281	1	15
418.452	1	7
418.623	1	-1
418.793	1	18
418.964	1	4
419.135	1	-8
419.305	1	8
419.476	1	11
419.647	1	-9
419.817	1	6
419.988	1	7
420.159	1	12
420.329	1	4
420.500	1	16
420.671	1	5
420.841	1	11
421.012	1	2
421.183	1	4
421.353	1	-10
421.524	1	9
421.695	1	11
421.865	1	7
422.036	1	-4
422.206	1	4
422.377	1	16
422.548	1	6
422.718	1	1
422.889	1	8
423.060	1	-1
423.230	1	7
423.401	1	13
423.572	1	17
423.742	1	7
423.913	1	-1
424.084	1	-1
424.254	1	1
424.425	1	-4
424.595	1	8
424.766	1	-8
424.937	1	6
425.107	1	8
425.278	1	6
425.449	1	15
425.619	1	0
425.790	1	5
425.961	1	4
426.131	1	-5
426.302	1	3
426.472	1	3
426.643	1	14
426.814	1	1
426.984	1	0
427.155	1	9
427.326	1	0
427.496	1	2
427.667	1	-7
427.837	1	-5
428.008	1	7
428.179	1	8
428.349	1	9
428.520	1	0
428.691	1	11
428.861	1	2
429.032	1	9
429.202	1	11
429.373	1	11
429.544	1	-1
429.714	1	8
429.885	1	0
430.055	1	8
430.226	1	2
430.397	1	11
430.567	1	5
430.738	1	-6
430.909	1	10
431.079	1	9
431.250	1	5
431.420	1	6
431.591	1	11
431.762	1	-5
431.932	1	10
432.103	1	-3
432.273	1	13
432.444	1	2
432.615	1	3
432.785	1	9
432.956	1	1
433.126	1	8
433.297	1	-3
433.468	1	-11
433.638	1	5
433.809	1	4
433.979	1	0
434.150	1	14
434.320	1	4
434.491	1	0
434.662	1	13
434.832	1	2
435.003	1	6
435.173	1	-2
435.344	1	-2
435.515	1	4
435.685	1	0
435.856	1	8
436.026	1	2
436.197	1	7
436.368	1	6
436.538	1	1
436.709	1	-5
436.879	1	4
437.050	1	13
437.220	1	15
437.391	1	9
437.562	1	16
437.732	1	7
437.903	1	10
438.073	1	0
438.244	1	8
438.414	1	-1
438.585	1	-5
438.756	1	7
438.926	1	2
439.097	1	4
439.267	1	6
439.438	1	4
439.608	1	-4
439.779	1	4
439.949	1	4
440.120	1	2
440.291	1	3
440.461	1	-9
440.632	1	0
440.802	1	4
440.973	1	16
441.143	1	4
441.314	1	-7
441.485	1	8
441.655	1	-5
441.826	1	12
441.996	1	-5
442.167	1	4
442.337	1	-5
442.508	1	0
442.678	1	7
442.849	1	14
443.019	1	12
443.190	1	8
443.361	1	12
443.531	1	5
443.702	1	6
443.872	1	-3
444.043	1	6
444.213	1	15
444.384	1	4
444.554	1	6
444.725	1	12
444.895	1	6
445.066	1	7
445.237	1	6
445.407	1	-2
445.578	1	8
445.748	1	0
445.919	1	-1
446.089	1	20
446.260	1	-3
446.430	1	8
446.601	1	9
446.771	1	6
446.942	1	3
447.112	1	-4
447.283	1	0
447.453	1	4
447.624	1	6
447.794	1	6
447.965	1	8
448.135	1	3
448.306	1	13
448.477	1	7
448.647	1	-3
448.818	1	8
448.988	1	1
449.159	1	9
449.329	1	6
449.500	1	-4
449.670	1	-7
449.841	1	-2
450.011	1	4
450.182	1	8
450.352	1	10
450.523	1	4
450.693	1	3
450.864	1	3
451.034	1	8
451.205	1	1
451.375	1	7
451.546	1	-3
451.716	1	8
451.887	1	5
452.057	1	4
452.228	1	10
452.398	1	7
452.569	1	18
452.739	1	8
452.910	1	5
453.080	1	-3
453.251	1	-2
453.421	1	7
453.592	1	4
453.762	1	5
453.933	1	-10
454.103	1	-3
454.274	1	0
454.444	1	3
454.615	1	0
454.785	1	-1
454.956	1	0
455.126	1	0
455.297	1	12
455.467	1	4
455.638	1	-1
455.808	1	2
455.979	1	-7
456.149	1	2
456.320	1	1
456.490	1	-1
456.661	1	-1
456.831	1	1
457.001	1	6
457.172	1	-4
457.342	1	5
457.513	1	5
457.683	1	-3
457.854	1	5
458.024	1	-8
458.195	1	-3
458.365	1	10
458.536	1	7
458.706	1	12
458.877	1	-6
459.047	1	5
459.218	1	8
459.388	1	14
459.559	1	-1
459.729	1	-3
459.899	1	3
460.070	1	1
460.240	1	2
460.411	1	4
460.581	1	1
460.752	1	-2
460.922	1	-4
461.093	1	7
461.263	1	6
461.434	1	-1
461.604	1	11
461.775	1	-13
461.945	1	1
462.115	1	6
462.286	1	7
462.456	1	5
462.627	1	1
462.797	1	4
462.968	1	10
463.138	1	17
463.309	1	-6
463.479	1	2
463.649	1	5
463.820	1	2
463.990	1	11
464.161	1	-1
464.331	1	-8
464.502	1	-1
464.672	1	11
464.843	1	6
465.013	1	3
465.183	1	11
465.354	1	-3
465.524	1	0
465.695	1	4
465.865	1	-2
466.036	1	-3
466.206	1	19
466.376	1	-7
466.547	1	6
466.717	1	12
466.888	1	8
467.058	1	10
467.229	1	9
467.399	1	8
467.569	1	17
467.740	1	3
467.910	1	3
468.081	1	5
468.251	1	2
468.422	1	3
468.592	1	12
468.762	1	12
468.933	1	7
469.103	1	-1
469.274	1	9
469.444	1	7
469.614	1	-3
469.785	1	3
469.955	1	4
470.126	1	3
470.296	1	4
470.467	1	-2
470.637	1	0
470.807	1	6
470.978	1	3
471.148	1	16
471.319	1	14
471.489	1	7
471.659	1	0
471.830	1	4
472.000	1	-3
472.171	1	10
472.341	1	-4
472.511	1	-1
472.682	1	7
472.852	1	7
473.023	1	6
473.193	1	13
473.363	1	2
473.534	1	11
473.704	1	-5
473.875	1	4
474.045	1	11
474.215	1	10
474.386	1	-2
474.556	1	5
474.727	1	1
474.897	1	8
475.067	1	4
475.238	1	12
475.408	1	-7
475.578	1	12
475.749	1	11
475.919	1	4
476.090	1	11
476.260	1	2
476.430	1	9
476.601	1	3
476.771	1	13
476.942	1	2
477.112	1	3
477.282	1	-2
477.453	1	1
477.623	1	10
477.793	1	-5
477.964	1	4
478.134	1	16
478.305	1	2
478.475	1	5
478.645	1	5
478.816	1	10
478.986	1	20
479.156	1	0
479.327	1	-2
479.497	1	10
479.667	1	4
479.838	1	6
480.008	1	12
480.179	1	0
480.349	1	0
480.519	1	10
480.690	1	5
480.860	1	8
481.030	1	3
481.201	1	3
481.371	1	6
481.541	1	5
481.712	1	16
481.882	1	19
482.053	1	-2
482.223	1	19
482.393	1	8
482.564	1	7
482.734	1	20
482.904	1	4
483.075	1	2
483.245	1	2
483.415	1	11
483.586	1	17
483.756	1	12
483.926	1	4
484.097	1	11
484.267	1	5
484.437	1	10
484.608	1	9
484.778	1	-2
484.948	1	8
485.119	1	5
485.289	1	14
485.459	1	17
485.630	1	12
485.800	1	-1
485.970	1	3
486.141	1	7
486.311	1	-5
486.481	1	7
486.652	1	6
486.822	1	2
486.992	1	25
487.163	1	4
487.333	1	6
487.503	1	5
487.674	1	7
487.844	1	5
488.014	1	14
488.185	1	2
488.355	1	12
488.525	1	3
488.696	1	9
488.866	1	17
489.036	1	19
489.207	1	10
489.377	1	5
489.547	1	6
489.718	1	4
489.888	1	7
490.058	1	4
490.228	1	9
490.399	1	19
490.569	1	16
490.739	1	19
490.910	1	1
491.080	1	6
491.250	1	9
491.421	1	7
491.591	1	15
491.761	1	15
491.932	1	9
492.102	1	8
492.272	1	4
492.442	1	7
492.613	1	6
492.783	1	-2
492.953	1	7
493.124	1	3
493.294	1	14
493.464	1	14
493.635	1	8
493.805	1	14
493.975	1	16
494.145	1	14
494.316	1	7
494.486	1	-4
494.656	1	1
494.827	1	6
494.997	1	12
495.167	1	27
495.337	1	8
495.508	1	11
495.678	1	17
495.848	1	12
496.019	1	19
496.189	1	17
496.359	1	9
496.529	1	16
496.700	1	25
496.870	1	13
497.040	1	9
497.211	1	8
497.381	1	12
497.551	1	18
497.721	1	7
497.892	1	12
498.062	1	16
498.232	1	13
498.403	1	14
498.573	1	18
498.743	1	9
498.913	1	12
499.084	1	27
499.254	1	4
499.424	1	15
499.594	1	10
499.765	1	21
499.935	1	16
500.105	1	15
500.275	1	20
500.446	1	16
500.616	1	16
500.786	1	13
500.956	1	17
501.127	1	15
501.297	1	10
501.467	1	14
501.638	1	7
501.808	1	14
501.978	1	23
502.148	1	13
502.319	1	17
502.489	1	22
502.659	1	17
502.829	1	13
503.000	1	16
503.170	1	18
503.340	1	18
503.510	1	15
503.681	1	20
503.851	1	10
504.021	1	24
504.191	1	29
504.362	1	9
504.532	1	4
504.702	1	14
504.872	1	13
505.042	1	19
505.213	1	14
505.383	1	23
505.553	1	18
505.723	1	20
505.894	1	10
506.064	1	25
506.234	1	12
506.404	1	24
506.575	1	19
506.745	1	8
506.915	1	24
507.085	1	22
507.256	1	18
507.426	1	26
507.596	1	28
507.766	1	31
507.936	1	17
508.107	1	20
508.277	1	19
508.447	1	15
508.617	1	11
508.788	1	14
508.958	1	27
509.128	1	27
509.298	1	16
509.468	1	30
509.639	1	26
509.809	1	24
509.979	1	31
510.149	1	26
510.319	1	28
510.490	1	14
510.660	1	26
510.830	1	17
511.000	1	27
511.171	1	25
511.341	1	20
511.511	1	18
511.681	1	22
511.851	1	21
512.022	1	19
512.192	1	21
512.362	1	15
512.532	1	26
512.702	1	17
512.873	1	21
513.043	1	18
513.213	1	25
513.383	1	14
513.553	1	9
513.724	1	27
513.894	1	38
514.064	1	26
514.234	1	23
514.404	1	24
514.575	1	38
514.745	1	22
514.915	1	25
515.085	1	26
515.255	1	24
515.425	1	28
515.596	1	34
515.766	1	13
515.936	1	30
516.106	1	37
516.276	1	24
516.447	1	21
516.617	1	30
516.787	1	29
516.957	1	16
517.127	1	29
517.297	1	27
517.468	1	24
517.638	1	22
517.808	1	40
517.978	1	26
518.148	1	23
518.319	1	19
518.489	1	30
518.659	1	37
518.829	1	29
518.999	1	32
519.169	1	24
519.340	1	21
519.510	1	28
519.680	1	15
519.850	1	19
520.020	1	33
520.190	1	31
520.361	1	19
520.531	1	25
520.701	1	25
520.871	1	22
521.041	1	38
521.211	1	12
521.382	1	26
521.552	1	25
521.722	1	31
521.892	1	22
522.062	1	43
522.232	1	21
522.402	1	25
522.573	1	28
522.743	1	26
522.913	1	28
523.083	1	31
523.253	1	25
523.423	1	38
523.593	1	25
523.764	1	31
523.934	1	27
524.104	1	31
524.274	1	25
524.444	1	37
524.614	1	39
524.784	1	35
524.955	1	20
525.125	1	34
525.295	1	27
525.465	1	34
525.635	1	30
525.805	1	32
525.975	1	31
526.146	1	29
526.316	1	46
526.486	1	38
526.656	1	34
526.826	1	44
526.996	1	29
527.166	1	41
527.337	1	34
527.507	1	26
527.677	1	42
527.847	1	29
528.017	1	37
528.187	1	42
528.357	1	41
528.527	1	34
528.698	1	39
528.868	1	40
529.038	1	28
529.208	1	33
529.378	1	33
529.548	1	28
529.718	1	34
529.888	1	29
530.058	1	37
530.229	1	23
530.399	1	35
530.569	1	29
530.739	1	23
530.909	1	44
531.079	1	32
531.249	1	20
531.419	1	36
531.589	1	37
531.760	1	30
531.930	1	36
532.100	1	36
532.270	1	42
532.440	1	18
532.610	1	27
532.780	1	36
532.950	1	26
533.120	1	32
533.290	1	29
533.461	1	32
533.631	1	37
533.801	1	42
533.971	1	34
534.141	1	38
534.311	1	28
534.481	1	22
534.651	1	38
534.821	1	27
534.991	1	29
535.162	1	32
535.332	1	34
535.502	1	30
535.672	1	30
535.842	1	25
536.012	1	14
536.182	1	32
536.352	1	30
536.522	1	23
536.692	1	14
536.862	1	25
537.032	1	27
537.203	1	27
537.373	1	32
537.543	1	33
537.713	1	33
537.883	1	26
538.053	1	32
538.223	1	38
538.393	1	34
538.563	1	37
538.733	1	17
538.903	1	29
539.073	1	36
539.243	1	26
539.413	1	30
539.584	1	29
539.754	1	32
539.924	1	25
540.094	1	34
540.264	1	27
540.434	1	31
540.604	1	32
540.774	1	14
540.944	1	36
541.114	1	12
541.284	1	25
541.454	1	34
541.624	1	18
541.794	1	28
541.964	1	31
542.134	1	23
542.305	1	26
542.475	1	40
542.645	1	26
542.815	1	24
542.985	1	27
543.155	1	34
543.325	1	33
543.495	1	24
543.665	1	43
543.835	1	39
544.005	1	33
544.175	1	32
544.345	1	32
544.515	1	34
544.685	1	22
544.855	1	25
545.025	1	39
545.195	1	21
545.365	1	32
545.535	1	40
545.705	1	31
545.875	1	34
546.045	1	38
546.216	1	35
546.386	1	29
546.556	1	28
546.726	1	33
546.896	1	46
547.066	1	37
547.236	1	36
547.406	1	37
547.576	1	34
547.746	1	23
547.916	1	34
548.086	1	26
548.256	1	31
548.426	1	33
548.596	1	35
548.766	1	32
548.936	1	24
549.106	1	17
549.276	1	20
549.446	1	32
549.616	1	19
549.786	1	39
549.956	1	24
550.126	1	41
550.296	1	20
550.466	1	27
550.636	1	32
550.806	1	32
550.976	1	27
551.146	1	41
551.316	1	22
551.486	1	24
551.656	1	12
551.826	1	24
551.996	1	21
552.166	1	28
552.336	1	34
552.506	1	17
552.676	1	29
552.846	1	20
553.016	1	21
553.186	1	26
553.356	1	35
553.526	1	19
553.696	1	30
553.866	1	34
554.036	1	26
554.206	1	35
554.376	1	16
554.546	1	26
554.716	1	23
554.886	1	23
555.056	1	31
555.226	1	24
555.396	1	32
555.566	1	20
555.736	1	28
555.906	1	30
556.076	1	13
556.246	1	32
556.416	1	35
556.586	1	18
556.756	1	32
556.926	1	39
557.096	1	41
557.266	1	25
557.436	1	27
557.606	1	23
557.776	1	26
557.946	1	14
558.116	1	24
558.286	1	16
558.456	1	15
558.626	1	25
558.796	1	21
558.966	1	30
559.136	1	20
559.306	1	24
559.476	1	26
559.646	1	30
559.816	1	24
559.986	1	19
560.155	1	11
560.325	1	21
560.495	1	24
560.665	1	25
560.835	1	20
561.005	1	22
561.175	1	20
561.345	1	30
561.515	1	21
561.685	1	23
561.855	1	22
562.025	1	19
562.195	1	22
562.365	1	25
562.535	1	36
562.705	1	17
562.875	1	32
563.045	1	24
563.215	1	19
563.385	1	33
563.555	1	18
563.725	1	31
563.895	1	32
564.064	1	22
564.234	1	30
564.404	1	24
564.574	1	13
564.744	1	10
564.914	1	29
565.084	1	13
565.254	1	29
565.424	1	31
565.594	1	18
565.764	1	30
565.934	1	27
566.104	1	23
566.274	1	34
566.444	1	20
566.614	1	20
566.783	1	15
566.953	1	19
567.123	1	16
567.293	1	4
567.463	1	19
567.633	1	17
567.803	1	22
567.973	1	37
568.143	1	25
568.313	1	25
568.483	1	32
568.653	1	22
568.823	1	23
568.993	1	21
569.162	1	25
569.332	1	26
569.502	1	24
569.672	1	29
569.842	1	31
570.012	1	22
570.182	1	12
570.352	1	23
570.522	1	9
570.692	1	5
570.862	1	10
571.031	1	19
571.201	1	20
571.371	1	16
571.541	1	28
571.711	1	13
571.881	1	13
572.051	1	7
572.221	1	16
572.391	1	24
572.561	1	18
572.731	1	13
572.900	1	13
573.070	1	13
573.240	1	17
573.410	1	19
573.580	1	27
573.750	1	25
573.920	1	25
574.090	1	21
574.260	1	15
574.430	1	13
574.599	1	19
574.769	1	19
574.939	1	13
575.109	1	16
575.279	1	21
575.449	1	22
575.619	1	12
575.789	1	29
575.959	1	18
576.128	1	24
576.298	1	16
576.468	1	30
576.638	1	34
576.808	1	21
576.978	1	2
577.148	1	21
577.318	1	20
577.487	1	20
577.657	1	19
577.827	1	15
577.997	1	14
578.167	1	23
578.337	1	26
578.507	1	24
578.677	1	13
578.846	1	21
579.016	1	34
579.186	1	20
579.356	1	21
579.526	1	13
579.696	1	27
579.866	1	16
580.036	1	20
580.205	1	20
580.375	1	28
580.545	1	18
580.715	1	18
580.885	1	8
581.055	1	19
581.225	1	21
581.394	1	21
581.564	1	18
581.734	1	13
581.904	1	14
582.074	1	24
582.244	1	30
582.414	1	10
582.583	1	20
582.753	1	24
582.923	1	14
583.093	1	20
583.263	1	11
583.433	1	22
583.603	1	16
583.772	1	18
583.942	1	20
584.112	1	20
584.282	1	32
584.452	1	13
584.622	1	21
584.791	1	23
584.961	1	13
585.131	1	14
585.301	1	16
585.471	1	26
585.641	1	12
585.811	1	11
585.980	1	24
586.150	1	5
586.320	1	11
586.490	1	5
586.660	1	13
586.830	1	21
586.999	1	26
587.169	1	17
587.339	1	11
587.509	1	11
587.679	1	19
587.849	1	13
588.018	1	29
588.188	1	12
588.358	1	5
588.528	1	22
588.698	1	28
588.867	1	13
589.037	1	13
589.207	1	14
589.377	1	16
589.547	1	13
589.717	1	9
589.886	1	13
590.056	1	12
590.226	1	13
590.396	1	20
590.566	1	17
590.735	1	25
590.905	1	5
591.075	1	5
591.245	1	19
591.415	1	8
591.585	1	5
591.754	1	26
591.924	1	11
592.094	1	7
592.264	1	12
592.434	1	8
592.603	1	23
592.773	1	16
592.943	1	25
593.113	1	10
593.283	1	7
593.452	1	23
593.622	1	14
593.792	1	18
593.962	1	7
594.132	1	23
594.301	1	14
594.471	1	15
594.641	1	13
594.811	1	12
594.981	1	14
595.150	1	13
595.320	1	20
595.490	1	13
595.660	1	18
595.829	1	15
595.999	1	14
596.169	1	29
596.339	1	18
596.509	1	13
596.678	1	13
596.848	1	11
597.018	1	7
597.188	1	13
597.358	1	6
597.527	1	21
597.697	1	5
597.867	1	24
598.037	1	17
598.206	1	15
598.376	1	9
598.546	1	8
598.716	1	19
598.885	1	16
599.055	1	9
599.225	1	17
599.395	1	14
599.565	1	9
599.734	1	18
599.904	1	7
600.074	1	12
600.244	1	23
600.413	1	9
600.583	1	19
600.753	1	18
600.923	1	24
601.092	1	20
601.262	1	13
601.432	1	12
601.602	1	12
601.771	1	17
601.941	1	12
602.111	1	11
602.281	1	20
602.451	1	10
602.620	1	13
602.790	1	23
602.960	1	17
603.130	1	18
603.299	1	25
603.469	1	10
603.639	1	17
603.809	1	8
603.978	1	11
604.148	1	20
604.318	1	28
604.487	1	15
604.657	1	14
604.827	1	18
604.997	1	20
605.166	1	16
605.336	1	3
605.506	1	10
605.676	1	22
605.845	1	20
606.015	1	14
606.185	1	16
606.355	1	18
606.524	1	21
606.694	1	16
606.864	1	4
607.034	1	15
607.203	1	7
607.373	1	18
607.543	1	21
607.712	1	7
607.882	1	14
608.052	1	15
608.222	1	8
608.391	1	18
608.561	1	17
608.731	1	24
608.901	1	11
609.070	1	26
609.240	1	9
609.410	1	10
609.579	1	17
609.749	1	10
609.919	1	-1
610.089	1	13
610.258	1	10
610.428	1	15
610.598	1	13
610.767	1	7
610.937	1	8
611.107	1	9
611.277	1	11
611.446	1	1
611.616	1	17
611.786	1	14
611.955	1	10
612.125	1	4
612.295	1	12
612.465	1	11
612.634	1	9
612.804	1	11
612.974	1	12
613.143	1	10
613.313	1	11
613.483	1	11
613.652	1	11
613.822	1	9
613.992	1	15
614.162	1	12
614.331	1	24
614.501	1	3
614.671	1	15
614.840	1	9
615.010	1	6
615.180	1	30
615.349	1	8
615.519	1	19
615.689	1	9
615.858	1	20
616.028	1	9
616.198	1	18
616.368	1	17
616.537	1	9
616.707	1	13
616.877	1	17
617.046	1	11
617.216	1	23
617.386	1	12
617.555	1	12
617.725	1	3
617.895	1	13
618.064	1	8
618.234	1	5
618.404	1	10
618.573	1	3
618.743	1	20
618.913	1	11
619.082	1	10
619.252	1	19
619.422	1	14
619.591	1	3
619.761	1	10
619.931	1	3
620.100	1	2
620.270	1	13
620.440	1	9
620.609	1	-6
620.779	1	12
620.949	1	11
621.118	1	22
621.288	1	13
621.458	1	16
621.627	1	13
621.797	1	14
621.967	1	10
622.136	1	15
622.306	1	7
622.476	1	15
622.645	1	1
622.815	1	2
622.985	1	1
623.154	1	1
623.324	1	8
623.494	1	22
623.663	1	20
623.833	1	4
624.002	1	0
624.172	1	12
624.342	1	13
624.511	1	18
624.681	1	1
624.851	1	14
625.020	1	22
625.190	1	-2
625.360	1	9
625.529	1	2
625.699	1	11
625.869	1	5
626.038	1	8
626.208	1	12
626.377	1	17
626.547	1	16
626.717	1	13
626.886	1	8
627.056	1	8
627.226	1	11
627.395	1	8
627.565	1	3
627.735	1	2
627.904	1	21
628.074	1	9
628.243	1	11
628.413	1	26
628.583	1	6
628.752	1	2
628.922	1	10
629.091	1	4
629.261	1	14
629.431	1	11
629.600	1	11
629.770	1	6
629.940	1	9
630.109	1	13
630.279	1	8
630.448	1	12
630.618	1	12
630.788	1	14
630.957	1	17
631.127	1	0
631.297	1	15
631.466	1	7
631.636	1	2
631.805	1	6
631.975	1	16
632.145	1	0
632.314	1	7
632.484	1	7
632.653	1	11
632.823	1	4
632.993	1	13
633.162	1	9
633.332	1	14
633.501	1	-1
633.671	1	6
633.841	1	-1
634.010	1	14
634.180	1	2
634.349	1	7
634.519	1	13
634.689	1	22
634.858	1	4
635.028	1	19
635.197	1	15
635.367	1	6
635.537	1	-4
635.706	1	16
635.876	1	9
636.045	1	-2
636.215	1	-2
636.384	1	9
636.554	1	25
636.724	1	9
636.893	1	12
637.063	1	13
637.232	1	14
637.402	1	7
637.572	1	11
637.741	1	0
637.911	1	2
638.080	1	2
638.250	1	5
638.419	1	6
638.589	1	16
638.759	1	14
638.928	1	9
639.098	1	13
639.267	1	6
639.437	1	3
639.606	1	9
639.776	1	9
639.946	1	8
640.115	1	8
640.285	1	13
640.454	1	9
640.624	1	21
640.793	1	10
640.963	1	-1
641.132	1	7
641.302	1	8
641.472	1	9
641.641	1	0
641.811	1	5
641.980	1	3
642.150	1	12
642.319	1	7
642.489	1	12
642.659	1	3
642.828	1	16
642.998	1	7
643.167	1	8
643.337	1	5
643.506	1	17
643.676	1	4
643.845	1	14
644.015	1	8
644.184	1	11
644.354	1	3
644.524	1	4
644.693	1	13
644.863	1	15
645.032	1	6
645.202	1	14
645.371	1	-1
645.541	1	14
645.710	1	18
645.880	1	12
646.049	1	8
646.219	1	14
646.388	1	0
646.558	1	12
646.728	1	1
646.897	1	13
647.067	1	13
647.236	1	5
647.406	1	11
647.575	1	14
647.745	1	12
647.914	1	3
648.084	1	10
648.253	1	10
648.423	1	-2
648.592	1	1
648.762	1	7
648.931	1	18
649.101	1	12
649.270	1	7
649.440	1	8
649.610	1	6
649.779	1	12
649.949	1	-12
650.118	1	8
650.288	1	6
650.457	1	18
650.627	1	2
650.796	1	-4
650.966	1	9
651.135	1	10
651.305	1	6
651.474	1	11
651.644	1	7
651.813	1	10
651.983	1	16
652.152	1	3
652.322	1	-8
652.491	1	17
652.661	1	5
652.830	1	17
653.000	1	7
653.169	1	8
653.339	1	12
653.508	1	7
653.678	1	5
653.847	1	1
654.017	1	12
654.186	1	6
654.356	1	8
654.525	1	8
654.695	1	5
654.864	1	6
655.034	1	10
655.203	1	-5
655.373	1	3
655.542	1	6
655.712	1	3
655.881	1	16
656.051	1	8
656.220	1	13
656.390	1	9
656.559	1	14
656.729	1	5
656.898	1	8
657.068	1	14
657.237	1	12
657.406	1	-1
657.576	1	9
657.745	1	5
657.915	1	6
658.084	1	14
658.254	1	3
658.423	1	8
658.593	1	-3
658.762	1	11
658.932	1	7
659.101	1	13
659.271	1	15
659.440	1	1
659.610	1	5
659.779	1	16
659.949	1	8
660.118	1	10
660.288	1	-1
660.457	1	12
660.626	1	8
660.796	1	2
660.965	1	-3
661.135	1	10
661.304	1	6
661.474	1	1
661.643	1	6
661.813	1	20
661.982	1	0
662.152	1	12
662.321	1	8
662.491	1	3
662.660	1	6
662.829	1	-2
662.999	1	20
663.168	1	9
663.338	1	14
663.507	1	-1
663.677	1	-5
663.846	1	6
664.016	1	6
664.185	1	6
664.354	1	9
664.524	1	1
664.693	1	15
664.863	1	6
665.032	1	17
665.202	1	3
665.371	1	2
665.541	1	7
665.710	1	9
665.879	1	14
666.049	1	6
666.218	1	3
666.388	1	17
666.557	1	0
666.727	1	2
666.896	1	6
667.065	1	17
667.235	1	4
667.404	1	-1
667.574	1	11
667.743	1	19
667.913	1	7
668.082	1	14
668.251	1	13
668.421	1	4
668.590	1	-6
668.760	1	8
668.929	1	2
669.099	1	13
669.268	1	12
669.437	1	6
669.607	1	-1
669.776	1	4
669.946	1	9
670.115	1	10
670.285	1	8
670.454	1	7
670.623	1	2
670.793	1	9
670.962	1	15
671.132	1	10
671.301	1	9
671.470	1	13
671.640	1	13
671.809	1	1
671.979	1	12
672.148	1	2
672.317	1	8
672.487	1	16
672.656	1	14
672.826	1	10
672.995	1	5
673.164	1	21
673.334	1	3
673.503	1	1
673.673	1	2
673.842	1	-1
674.011	1	2
674.181	1	16
674.350	1	5
674.520	1	19
674.689	1	-5
674.858	1	4
675.028	1	18
675.197	1	18
675.367	1	1
675.536	1	25
675.705	1	4
675.875	1	1
676.044	1	2
676.214	1	20
676.383	1	13
676.552	1	6
676.722	1	-3
676.891	1	-4
677.060	1	3
677.230	1	16
677.399	1	7
677.569	1	10
677.738	1	14
677.907	1	9
678.077	1	22
678.246	1	-6
678.416	1	4
678.585	1	5
678.754	1	13
678.924	1	1
679.093	1	17
679.262	1	20
679.432	1	6
679.601	1	13
679.771	1	8
679.940	1	9
680.109	1	1
680.279	1	9
680.448	1	0
680.617	1	2
680.787	1	7
680.956	1	9
681.125	1	5
681.295	1	4
681.464	1	4
681.634	1	5
681.803	1	3
681.972	1	9
682.142	1	-8
682.311	1	13
682.480	1	2
682.650	1	12
682.819	1	12
682.988	1	8
683.158	1	8
683.327	1	8
683.496	1	9
683.666	1	9
683.835	1	1
684.004	1	9
684.174	1	10
684.343	1	12
684.512	1	15
684.682	1	8
684.851	1	13
685.021	1	6
685.190	1	11
685.359	1	2
685.529	1	11
685.698	1	7
685.867	1	6
686.037	1	3
686.206	1	13
686.375	1	20
686.545	1	10
686.714	1	6
686.883	1	15
687.053	1	4
687.222	1	11
687.391	1	17
687.561	1	10
687.730	1	8
687.899	1	7
688.069	1	4
688.238	1	3
688.407	1	8
688.577	1	11
688.746	1	3
