340.368	1	5
340.539	1	-4
340.710	1	-2
340.881	1	-1
341.052	1	3
341.223	1	-12
341.394	1	0
341.565	1	2
341.737	1	1
341.908	1	-5
342.079	1	-11
342.250	1	12
342.421	1	-8
342.592	1	-4
342.763	1	1
342.934	1	0
343.105	1	-3
343.276	1	3
343.447	1	0
343.618	1	6
343.789	1	3
343.960	1	-2
344.131	1	8
344.302	1	9
344.473	1	2
344.644	1	8
344.815	1	2
344.986	1	-3
345.157	1	-12
345.328	1	0
345.499	1	3
345.670	1	3
345.841	1	-5
346.012	1	0
346.183	1	-5
346.354	1	5
346.526	1	2
346.697	1	0
346.868	1	-1
347.039	1	-8
347.210	1	-8
347.381	1	-7
347.552	1	10
347.723	1	1
347.894	1	-2
348.065	1	-9
348.236	1	-4
348.407	1	1
348.578	1	1
348.749	1	-3
348.920	1	-7
349.091	1	1
349.262	1	1
349.433	1	5
349.604	1	-6
349.775	1	6
349.946	1	-4
350.117	1	2
350.288	1	2
350.459	1	-1
350.630	1	2
350.801	1	4
350.972	1	9
351.143	1	-9
351.314	1	4
351.485	1	3
351.656	1	6
351.827	1	2
351.998	1	2
352.169	1	-7
352.340	1	4
352.511	1	1
352.682	1	-17
352.853	1	2
353.024	1	2
353.195	1	1
353.366	1	1
353.537	1	8
353.708	1	-4
353.879	1	3
354.050	1	-8
354.221	1	-7
354.392	1	-1
354.563	1	4
354.734	1	-13
354.905	1	8
355.076	1	-3
355.247	1	2
355.418	1	-4
355.589	1	2
355.760	1	-2
355.931	1	-1
356.102	1	-7
356.273	1	7
356.444	1	-5
356.615	1	-3
356.785	1	-9
356.956	1	14
357.127	1	-8
357.298	1	12
357.469	1	5
357.640	1	-8
357.811	1	-4
357.982	1	-4
358.153	1	-6
358.324	1	-2
358.495	1	4
358.666	1	-2
358.837	1	5
359.008	1	-1
359.179	1	-6
359.350	1	-3
359.521	1	-5
359.692	1	-1
359.863	1	-7
360.034	1	-5
360.205	1	-1
360.376	1	15
360.547	1	4
360.718	1	0
360.889	1	10
361.060	1	0
361.231	1	-3
361.401	1	1
361.572	1	1
361.743	1	9
361.914	1	2
362.085	1	8
362.256	1	-8
362.427	1	12
362.598	1	-5
362.769	1	14
362.940	1	-3
363.111	1	3
363.282	1	9
363.453	1	5
363.624	1	2
363.795	1	-2
363.966	1	1
364.137	1	3
364.308	1	12
364.478	1	-5
364.649	1	20
364.820	1	6
364.991	1	18
365.162	1	7
365.333	1	1
365.504	1	7
365.675	1	7
365.846	1	11
366.017	1	12
366.188	1	18
366.359	1	5
366.530	1	14
366.701	1	7
366.871	1	7
367.042	1	4
367.213	1	8
367.384	1	10
367.555	1	7
367.726	1	10
367.897	1	8
368.068	1	15
368.239	1	6
368.410	1	13
368.581	1	7
368.752	1	6
368.923	1	13
369.093	1	12
369.264	1	16
369.435	1	6
369.606	1	9
369.777	1	12
369.948	1	6
370.119	1	7
370.290	1	11
370.461	1	23
370.632	1	8
370.803	1	17
370.973	1	11
371.144	1	15
371.315	1	4
371.486	1	12
371.657	1	6
371.828	1	8
371.999	1	-11
372.170	1	14
372.341	1	0
372.512	1	-1
372.682	1	11
372.853	1	11
373.024	1	15
373.195	1	11
373.366	1	4
373.537	1	10
373.708	1	17
373.879	1	-2
374.050	1	16
374.220	1	-3
374.391	1	2
374.562	1	11
374.733	1	11
374.904	1	-1
375.075	1	2
375.246	1	10
375.417	1	-1
375.588	1	-3
375.758	1	2
375.929	1	1
376.100	1	3
376.271	1	5
376.442	1	6
376.613	1	12
376.784	1	6
376.955	1	2
377.125	1	16
377.296	1	4
377.467	1	8
377.638	1	6
377.809	1	4
377.980	1	-1
378.151	1	9
378.321	1	8
378.492	1	6
378.663	1	6
378.834	1	-1
379.005	1	-3
379.176	1	-1
379.347	1	3
379.518	1	7
379.688	1	-2
379.859	1	4
380.030	1	10
380.201	1	7
380.372	1	-3
380.543	1	7
380.714	1	9
380.884	1	-3
381.055	1	2
381.226	1	3
381.397	1	16
381.568	1	-4
381.739	1	-4
381.910	1	-5
382.080	1	-3
382.251	1	11
382.422	1	1
382.593	1	5
382.764	1	-2
382.935	1	3
383.105	1	-5
383.276	1	5
383.447	1	2
383.618	1	9
383.789	1	8
383.960	1	-2
384.130	1	2
384.301	1	6
384.472	1	-1
384.643	1	-5
384.814	1	-6
384.985	1	13
385.156	1	12
385.326	1	0
385.497	1	-7
385.668	1	-2
385.839	1	0
386.010	1	4
386.180	1	5
386.351	1	-2
386.522	1	15
386.693	1	12
386.864	1	-3
387.035	1	7
387.205	1	-13
387.376	1	-3
387.547	1	8
387.718	1	1
387.889	1	-3
388.060	1	-4
388.230	1	9
388.401	1	0
388.572	1	-5
388.743	1	-1
388.914	1	-3
389.084	1	-5
389.255	1	-3
389.426	1	0
389.597	1	-4
389.768	1	8
389.939	1	1
390.109	1	-6
390.280	1	13
390.451	1	-3
390.622	1	-7
390.793	1	1
390.963	1	8
391.134	1	-10
391.305	1	-2
391.476	1	19
391.647	1	6
391.817	1	9
391.988	1	12
392.159	1	-4
392.330	1	-9
392.501	1	2
392.671	1	-8
392.842	1	7
393.013	1	0
393.184	1	3
393.355	1	-8
393.525	1	3
393.696	1	-5
393.867	1	3
394.038	1	-5
394.208	1	-7
394.379	1	7
394.550	1	-6
394.721	1	-1
394.892	1	11
395.062	1	9
395.233	1	-8
395.404	1	8
395.575	1	5
395.746	1	-3
395.916	1	-1
396.087	1	-1
396.258	1	2
396.429	1	-6
396.599	1	-11
396.770	1	7
396.941	1	14
397.112	1	-6
397.283	1	11
397.453	1	-6
397.624	1	-1
397.795	1	12
397.966	1	1
398.136	1	2
398.307	1	4
398.478	1	0
398.649	1	8
398.819	1	-7
398.990	1	-5
399.161	1	3
399.332	1	0
399.503	1	-1
399.673	1	5
399.844	1	8
400.015	1	-4
400.186	1	-12
400.356	1	7
400.527	1	-3
400.698	1	1
400.869	1	-9
401.039	1	2
401.210	1	0
401.381	1	4
401.552	1	-8
401.722	1	-1
401.893	1	12
402.064	1	-2
402.235	1	2
402.405	1	-13
402.576	1	2
402.747	1	-8
402.918	1	-4
403.088	1	-2
403.259	1	-4
403.430	1	-9
403.601	1	-5
403.771	1	6
403.942	1	-3
404.113	1	1
404.284	1	1
404.454	1	-3
404.625	1	-12
404.796	1	4
404.967	1	-3
405.137	1	-3
405.308	1	-1
405.479	1	-3
405.649	1	7
405.820	1	9
405.991	1	0
406.162	1	1
406.332	1	-5
406.503	1	-5
406.674	1	9
406.845	1	7
407.015	1	-2
407.186	1	-11
407.357	1	-2
407.527	1	-7
407.698	1	2
407.869	1	-2
408.040	1	0
408.210	1	3
408.381	1	14
408.552	1	4
408.722	1	-3
408.893	1	-5
409.064	1	-4
409.235	1	-4
409.405	1	-6
409.576	1	0
409.747	1	3
409.917	1	2
410.088	1	0
410.259	1	-2
410.430	1	1
410.600	1	-2
410.771	1	4
410.942	1	0
411.112	1	0
411.283	1	-10
411.454	1	6
411.625	1	2
411.795	1	-3
411.966	1	0
412.137	1	-6
412.307	1	14
412.478	1	3
412.649	1	10
412.819	1	1
412.990	1	1
413.161	1	-8
413.332	1	12
413.502	1	-5
413.673	1	2
413.844	1	-5
414.014	1	7
414.185	1	-3
414.356	1	-7
414.526	1	-4
414.697	1	-5
414.868	1	5
415.038	1	9
415.209	1	1
415.380	1	-12
415.550	1	9
415.721	1	1
415.892	1	1
416.063	1	-5
416.233	1	5
416.404	1	-4
416.575	1	-3
416.745	1	-6
416.916	1	4
417.087	1	-2
417.257	1	-10
417.428	1	6
417.599	1	-1
417.769	1	2
417.940	1	-2
418.111	1	5
418.281	1	3
418.452	1	0
418.623	1	-6
418.793	1	12
418.964	1	-3
419.135	1	9
419.305	1	3
419.476	1	5
419.647	1	-6
419.817	1	3
419.988	1	4
420.159	1	0
420.329	1	6
420.500	1	0
420.671	1	-1
420.841	1	2
421.012	1	-7
421.183	1	-2
421.353	1	1
421.524	1	-12
421.695	1	6
421.865	1	-6
422.036	1	0
422.206	1	5
422.377	1	-7
422.548	1	4
422.718	1	8
422.889	1	6
423.060	1	1
423.230	1	-1
423.401	1	6
423.572	1	8
423.742	1	0
423.913	1	-6
424.084	1	0
424.254	1	5
424.425	1	-4
424.595	1	9
424.766	1	-5
424.937	1	13
425.107	1	11
425.278	1	-1
425.449	1	-2
425.619	1	-3
425.790	1	6
425.961	1	-1
426.131	1	-7
426.302	1	-4
426.472	1	-6
426.643	1	4
426.814	1	-3
426.984	1	-1
427.155	1	6
427.326	1	-6
427.496	1	-14
427.667	1	2
427.837	1	-9
428.008	1	4
428.179	1	4
428.349	1	2
428.520	1	9
428.691	1	6
428.861	1	-5
429.032	1	-1
429.202	1	2
429.373	1	8
429.544	1	-1
429.714	1	-3
429.885	1	2
430.055	1	-4
430.226	1	-6
430.397	1	0
430.567	1	0
430.738	1	-4
430.909	1	1
431.079	1	9
431.250	1	5
431.420	1	8
431.591	1	7
431.762	1	-2
431.932	1	-1
432.103	1	-11
432.273	1	10
432.444	1	-12
432.615	1	3
432.785	1	3
432.956	1	2
433.126	1	12
433.297	1	-6
433.468	1	-8
433.638	1	-4
433.809	1	-2
433.979	1	2
434.150	1	-1
434.320	1	3
434.491	1	-2
434.662	1	8
434.832	1	-4
435.003	1	-1
435.173	1	-9
435.344	1	-10
435.515	1	-1
435.685	1	-5
435.856	1	-3
436.026	1	-2
436.197	1	4
436.368	1	-1
436.538	1	7
436.709	1	-3
436.879	1	8
437.050	1	5
437.220	1	10
437.391	1	1
437.562	1	13
437.732	1	2
437.903	1	5
438.073	1	2
438.244	1	8
438.414	1	-8
438.585	1	-6
438.756	1	-1
438.926	1	3
439.097	1	10
439.267	1	-3
439.438	1	1
439.608	1	4
439.779	1	5
439.949	1	-4
440.120	1	1
440.291	1	-3
440.461	1	-3
440.632	1	3
440.802	1	-3
440.973	1	12
441.143	1	5
441.314	1	-8
441.485	1	9
441.655	1	-9
441.826	1	-6
441.996	1	-10
442.167	1	5
442.337	1	1
442.508	1	-7
442.678	1	1
442.849	1	19
443.019	1	5
443.190	1	-7
443.361	1	-3
443.531	1	4
443.702	1	2
443.872	1	2
444.043	1	5
444.213	1	7
444.384	1	8
444.554	1	-6
444.725	1	6
444.895	1	6
445.066	1	4
445.237	1	5
445.407	1	2
445.578	1	9
445.748	1	4
445.919	1	-5
446.089	1	7
446.260	1	-1
446.430	1	6
446.601	1	5
446.771	1	13
446.942	1	-8
447.112	1	0
447.283	1	1
447.453	1	3
447.624	1	-3
447.794	1	7
447.965	1	-1
448.135	1	2
448.306	1	4
448.477	1	4
448.647	1	-1
448.818	1	4
448.988	1	-2
449.159	1	7
449.329	1	6
449.500	1	2
449.670	1	-4
449.841	1	-8
450.011	1	1
450.182	1	5
450.352	1	3
450.523	1	-11
450.693	1	-12
450.864	1	-2
451.034	1	16
451.205	1	-4
451.375	1	-6
451.546	1	1
451.716	1	1
451.887	1	6
452.057	1	-1
452.228	1	6
452.398	1	5
452.569	1	14
452.739	1	6
452.910	1	9
453.080	1	-2
453.251	1	-4
453.421	1	0
453.592	1	9
453.762	1	1
453.933	1	-9
454.103	1	-3
454.274	1	0
454.444	1	-5
454.615	1	-4
454.785	1	4
454.956	1	1
455.126	1	4
455.297	1	2
455.467	1	0
455.638	1	-9
455.808	1	-2
455.979	1	-2
456.149	1	-2
456.320	1	3
456.490	1	4
456.661	1	-2
456.831	1	-6
457.001	1	4
457.172	1	-2
457.342	1	-3
457.513	1	6
457.683	1	-2
457.854	1	2
458.024	1	-8
458.195	1	-10
458.365	1	2
458.536	1	7
458.706	1	5
458.877	1	6
459.047	1	2
459.218	1	-3
459.388	1	10
459.559	1	-5
459.729	1	1
459.899	1	-2
460.070	1	0
460.240	1	-8
460.411	1	2
460.581	1	-1
460.752	1	2
460.922	1	2
461.093	1	-2
461.263	1	-1
461.434	1	-4
461.604	1	8
461.775	1	-7
461.945	1	-5
462.115	1	9
462.286	1	0
462.456	1	-2
462.627	1	1
462.797	1	-1
462.968	1	2
463.138	1	1
463.309	1	0
463.479	1	4
463.649	1	7
463.820	1	3
463.990	1	11
464.161	1	-7
464.331	1	-5
464.502	1	-12
464.672	1	14
464.843	1	4
465.013	1	-2
465.183	1	1
465.354	1	-7
465.524	1	1
465.695	1	2
465.865	1	14
466.036	1	0
466.206	1	13
466.376	1	-7
466.547	1	10
466.717	1	3
466.888	1	-4
467.058	1	8
467.229	1	14
467.399	1	8
467.569	1	4
467.740	1	-7
467.910	1	-6
468.081	1	-6
468.251	1	0
468.422	1	4
468.592	1	6
468.762	1	1
468.933	1	5
469.103	1	1
469.274	1	2
469.444	1	-1
469.614	1	-5
469.785	1	-3
469.955	1	-4
470.126	1	-9
470.296	1	-7
470.467	1	3
470.637	1	-10
470.807	1	0
470.978	1	-7
471.148	1	-1
471.319	1	2
471.489	1	6
471.659	1	6
471.830	1	1
472.000	1	1
472.171	1	-2
472.341	1	-11
472.511	1	1
472.682	1	-4
472.852	1	10
473.023	1	6
473.193	1	2
473.363	1	8
473.534	1	3
473.704	1	-1
473.875	1	-2
474.045	1	8
474.215	1	-5
474.386	1	-8
474.556	1	9
474.727	1	3
474.897	1	2
475.067	1	-6
475.238	1	-1
475.408	1	-8
475.578	1	-6
475.749	1	5
475.919	1	5
476.090	1	2
476.260	1	-1
476.430	1	10
476.601	1	1
476.771	1	6
476.942	1	-13
477.112	1	-11
477.282	1	-10
477.453	1	-8
477.623	1	4
477.793	1	-8
477.964	1	-2
478.134	1	2
478.305	1	9
478.475	1	2
478.645	1	8
478.816	1	-5
478.986	1	2
479.156	1	-11
479.327	1	-1
479.497	1	-3
479.667	1	-4
479.838	1	5
480.008	1	8
480.179	1	6
480.349	1	-2
480.519	1	-2
480.690	1	0
480.860	1	-2
481.030	1	9
481.201	1	3
481.371	1	-3
481.541	1	-2
481.712	1	-10
481.882	1	10
482.053	1	-2
482.223	1	7
482.393	1	2
482.564	1	-11
482.734	1	7
482.904	1	7
483.075	1	-9
483.245	1	-1
483.415	1	3
483.586	1	11
483.756	1	12
483.926	1	2
484.097	1	5
484.267	1	-6
484.437	1	-1
484.608	1	8
484.778	1	-1
484.948	1	0
485.119	1	-8
485.289	1	-3
485.459	1	9
485.630	1	-4
485.800	1	-8
485.970	1	-7
486.141	1	1
486.311	1	-10
486.481	1	-4
486.652	1	2
486.822	1	-6
486.992	1	9
487.163	1	2
487.333	1	-3
487.503	1	-7
487.674	1	4
487.844	1	-9
488.014	1	-6
488.185	1	1
488.355	1	-9
488.525	1	7
488.696	1	5
488.866	1	-5
489.036	1	3
489.207	1	1
489.377	1	-5
489.547	1	-3
489.718	1	2
489.888	1	-2
490.058	1	-1
490.228	1	1
490.399	1	-4
490.569	1	7
490.739	1	6
490.910	1	-9
491.080	1	-15
491.250	1	7
491.421	1	-2
491.591	1	0
491.761	1	15
491.932	1	4
492.102	1	0
492.272	1	-8
492.442	1	-6
492.613	1	-7
492.783	1	-8
492.953	1	10
493.124	1	-11
493.294	1	7
493.464	1	5
493.635	1	13
493.805	1	5
493.975	1	4
494.145	1	3
494.316	1	-5
494.486	1	-4
494.656	1	1
494.827	1	1
494.997	1	11
495.167	1	14
495.337	1	9
495.508	1	0
495.678	1	2
495.848	1	-4
496.019	1	4
496.189	1	7
496.359	1	-9
496.529	1	0
496.700	1	16
496.870	1	2
497.040	1	5
497.211	1	-1
497.381	1	-4
497.551	1	8
497.721	1	-2
497.892	1	-4
498.062	1	-1
498.232	1	-10
498.403	1	-6
498.573	1	8
498.743	1	4
498.913	1	0
499.084	1	-4
499.254	1	2
499.424	1	7
499.594	1	0
499.765	1	-11
499.935	1	3
500.105	1	-6
500.275	1	0
500.446	1	1
500.616	1	0
500.786	1	-5
500.956	1	11
501.127	1	-4
501.297	1	3
501.467	1	-8
501.638	1	5
501.808	1	7
501.978	1	9
502.148	1	-9
502.319	1	6
502.489	1	-2
502.659	1	5
502.829	1	-7
503.000	1	-13
503.170	1	-3
503.340	1	8
503.510	1	2
503.681	1	-1
503.851	1	-9
504.021	1	-1
504.191	1	2
504.362	1	5
504.532	1	-2
504.702	1	-8
504.872	1	-4
505.042	1	-1
505.213	1	-1
505.383	1	11
505.553	1	0
505.723	1	0
505.894	1	-5
506.064	1	-5
506.234	1	-3
506.404	1	1
506.575	1	-9
506.745	1	-16
506.915	1	3
507.085	1	8
507.256	1	2
507.426	1	11
507.596	1	8
507.766	1	12
507.936	1	3
508.107	1	3
508.277	1	-1
508.447	1	-9
508.617	1	6
508.788	1	-9
508.958	1	16
509.128	1	5
509.298	1	-1
509.468	1	5
509.639	1	0
509.809	1	2
509.979	1	5
510.149	1	6
510.319	1	5
510.490	1	11
510.660	1	2
510.830	1	-2
511.000	1	-16
511.171	1	-5
511.341	1	-3
511.511	1	-1
511.681	1	3
511.851	1	-2
512.022	1	-2
512.192	1	5
512.362	1	-3
512.532	1	9
512.702	1	-13
512.873	1	11
513.043	1	3
513.213	1	-6
513.383	1	-10
513.553	1	0
513.724	1	2
513.894	1	9
514.064	1	0
514.234	1	0
514.404	1	-6
514.575	1	5
514.745	1	1
514.915	1	-7
515.085	1	-3
515.255	1	6
515.425	1	8
515.596	1	16
515.766	1	-2
515.936	1	1
516.106	1	3
516.276	1	13
516.447	1	7
516.617	1	6
516.787	1	-11
516.957	1	-4
517.127	1	3
517.297	1	-2
517.468	1	15
517.638	1	-2
517.808	1	1
517.978	1	0
518.148	1	2
518.319	1	-4
518.489	1	0
518.659	1	9
518.829	1	11
518.999	1	1
519.169	1	-1
519.340	1	-8
519.510	1	-6
519.680	1	-6
519.850	1	-1
520.020	1	-8
520.190	1	14
520.361	1	-2
520.531	1	-4
520.701	1	1
520.871	1	5
521.041	1	-4
521.211	1	-9
521.382	1	1
521.552	1	0
521.722	1	8
521.892	1	0
522.062	1	3
522.232	1	7
522.402	1	-3
522.573	1	3
522.743	1	-1
522.913	1	-2
523.083	1	5
523.253	1	-13
523.423	1	4
523.593	1	2
523.764	1	4
523.934	1	-3
524.104	1	4
524.274	1	6
524.444	1	5
524.614	1	13
524.784	1	8
524.955	1	-9
525.125	1	-3
525.295	1	-1
525.465	1	6
525.635	1	6
525.805	1	7
525.975	1	1
526.146	1	-6
526.316	1	1
526.486	1	2
526.656	1	5
526.826	1	20
526.996	1	-8
527.166	1	2
527.337	1	9
527.507	1	3
527.677	1	15
527.847	1	-1
528.017	1	9
528.187	1	3
528.357	1	7
528.527	1	1
528.698	1	2
528.868	1	-2
529.038	1	-5
529.208	1	1
529.378	1	-4
529.548	1	-3
529.718	1	11
529.888	1	3
530.058	1	-10
530.229	1	1
530.399	1	3
530.569	1	-9
530.739	1	-4
530.909	1	9
531.079	1	0
531.249	1	0
531.419	1	2
531.589	1	11
531.760	1	2
531.930	1	-6
532.100	1	8
532.270	1	8
532.440	1	-1
532.610	1	-6
532.780	1	-1
532.950	1	-10
533.120	1	4
533.290	1	1
533.461	1	3
533.631	1	0
533.801	1	10
533.971	1	3
534.141	1	7
534.311	1	-7
534.481	1	-8
534.651	1	5
534.821	1	-6
534.991	1	-2
535.162	1	-2
535.332	1	4
535.502	1	10
535.672	1	0
535.842	1	-5
536.012	1	-5
536.182	1	1
536.352	1	5
536.522	1	-1
536.692	1	-12
536.862	1	1
537.032	1	0
537.203	1	6
537.373	1	12
537.543	1	6
537.713	1	7
537.883	1	-9
538.053	1	2
538.223	1	-3
538.393	1	0
538.563	1	7
538.733	1	-13
538.903	1	2
539.073	1	11
539.243	1	-6
539.413	1	-2
539.584	1	2
539.754	1	4
539.924	1	-2
540.094	1	9
540.264	1	5
540.434	1	0
540.604	1	1
540.774	1	2
540.944	1	2
541.114	1	-11
541.284	1	6
541.454	1	13
541.624	1	0
541.794	1	3
541.964	1	0
542.134	1	2
542.305	1	-2
542.475	1	7
542.645	1	2
542.815	1	-10
542.985	1	3
543.155	1	7
543.325	1	-17
543.495	1	-3
543.665	1	8
543.835	1	6
544.005	1	-1
544.175	1	8
544.345	1	-1
544.515	1	1
544.685	1	11
544.855	1	-3
545.025	1	5
545.195	1	-11
545.365	1	3
545.535	1	11
545.705	1	-5
545.875	1	3
546.045	1	6
546.216	1	16
546.386	1	-8
546.556	1	-9
546.726	1	8
546.896	1	12
547.066	1	11
547.236	1	-2
547.406	1	-1
547.576	1	4
547.746	1	-10
547.916	1	3
548.086	1	2
548.256	1	0
548.426	1	-3
548.596	1	6
548.766	1	1
548.936	1	7
549.106	1	2
549.276	1	-5
549.446	1	-3
549.616	1	-10
549.786	1	15
549.956	1	1
550.126	1	7
550.296	1	8
550.466	1	14
550.636	1	-5
550.806	1	7
550.976	1	4
551.146	1	2
551.316	1	8
551.486	1	4
551.656	1	-22
551.826	1	-15
551.996	1	0
552.166	1	7
552.336	1	10
552.506	1	5
552.676	1	-3
552.846	1	1
553.016	1	10
553.186	1	8
553.356	1	7
553.526	1	2
553.696	1	3
553.866	1	6
554.036	1	15
554.206	1	-1
554.376	1	-4
554.546	1	10
554.716	1	-4
554.886	1	-5
555.056	1	13
555.226	1	0
555.396	1	9
555.566	1	1
555.736	1	5
555.906	1	-6
556.076	1	-7
556.246	1	-1
556.416	1	-3
556.586	1	-14
556.756	1	-4
556.926	1	0
557.096	1	9
557.266	1	-3
557.436	1	8
557.606	1	-9
557.776	1	0
557.946	1	3
558.116	1	-2
558.286	1	-3
558.456	1	-2
558.626	1	4
558.796	1	9
558.966	1	0
559.136	1	2
559.306	1	18
559.476	1	3
559.646	1	4
559.816	1	-4
559.986	1	-2
560.155	1	3
560.325	1	2
560.495	1	7
560.665	1	-2
560.835	1	0
561.005	1	-2
561.175	1	1
561.345	1	10
561.515	1	-4
561.685	1	10
561.855	1	7
562.025	1	1
562.195	1	6
562.365	1	-3
562.535	1	4
562.705	1	1
562.875	1	-5
563.045	1	-6
563.215	1	6
563.385	1	5
563.555	1	-9
563.725	1	2
563.895	1	12
564.064	1	-2
564.234	1	9
564.404	1	-1
564.574	1	3
564.744	1	-9
564.914	1	1
565.084	1	-9
565.254	1	6
565.424	1	7
565.594	1	-1
565.764	1	-1
565.934	1	-2
566.104	1	13
566.274	1	1
566.444	1	5
566.614	1	6
566.783	1	3
566.953	1	-2
567.123	1	5
567.293	1	-12
567.463	1	-2
567.633	1	-4
567.803	1	4
567.973	1	12
568.143	1	-3
568.313	1	8
568.483	1	10
568.653	1	8
568.823	1	-3
568.993	1	-11
569.162	1	0
569.332	1	5
569.502	1	7
569.672	1	11
569.842	1	1
570.012	1	8
570.182	1	0
570.352	1	0
570.522	1	-2
570.692	1	6
570.862	1	6
571.031	1	3
571.201	1	-8
571.371	1	2
571.541	1	7
571.711	1	-6
571.881	1	4
572.051	1	0
572.221	1	-4
572.391	1	9
572.561	1	-4
572.731	1	-7
572.900	1	-6
573.070	1	-2
573.240	1	2
573.410	1	4
573.580	1	11
573.750	1	5
573.920	1	-1
574.090	1	0
574.260	1	-8
574.430	1	5
574.599	1	-1
574.769	1	-2
574.939	1	-1
575.109	1	-3
575.279	1	0
575.449	1	6
575.619	1	-14
575.789	1	10
575.959	1	-11
576.128	1	-2
576.298	1	-4
576.468	1	2
576.638	1	10
576.808	1	5
576.978	1	-7
577.148	1	13
577.318	1	5
577.487	1	7
577.657	1	-6
577.827	1	-2
577.997	1	2
578.167	1	0
578.337	1	9
578.507	1	15
578.677	1	-2
578.846	1	0
579.016	1	9
579.186	1	-2
579.356	1	1
579.526	1	8
579.696	1	7
579.866	1	-2
580.036	1	1
580.205	1	12
580.375	1	1
580.545	1	-8
580.715	1	-3
580.885	1	-9
581.055	1	1
581.225	1	1
581.394	1	13
581.564	1	5
581.734	1	-3
581.904	1	5
582.074	1	-4
582.244	1	8
582.414	1	-10
582.583	1	1
582.753	1	4
582.923	1	4
583.093	1	-6
583.263	1	-3
583.433	1	-5
583.603	1	8
583.772	1	2
583.942	1	-7
584.112	1	-7
584.282	1	-3
584.452	1	-1
584.622	1	-2
584.791	1	2
584.961	1	-3
585.131	1	2
585.301	1	3
585.471	1	11
585.641	1	1
585.811	1	3
585.980	1	1
586.150	1	-2
586.320	1	-1
586.490	1	7
586.660	1	7
586.830	1	2
586.999	1	10
587.169	1	3
587.339	1	-6
587.509	1	-1
587.679	1	-5
587.849	1	-7
588.018	1	11
588.188	1	-1
588.358	1	6
588.528	1	2
588.698	1	-3
588.867	1	7
589.037	1	-5
589.207	1	4
589.377	1	3
589.547	1	6
589.717	1	-5
589.886	1	-1
590.056	1	-8
590.226	1	-9
590.396	1	0
590.566	1	7
590.735	1	14
590.905	1	-3
591.075	1	-11
591.245	1	12
591.415	1	2
591.585	1	1
591.754	1	8
591.924	1	3
592.094	1	-3
592.264	1	-6
592.434	1	7
592.603	1	3
592.773	1	-5
592.943	1	10
593.113	1	0
593.283	1	13
593.452	1	-2
593.622	1	1
593.792	1	6
593.962	1	2
594.132	1	-1
594.301	1	-1
594.471	1	5
594.641	1	-1
594.811	1	-1
594.981	1	-1
595.150	1	-1
595.320	1	7
595.490	1	3
595.660	1	9
595.829	1	-2
595.999	1	3
596.169	1	15
596.339	1	4
596.509	1	6
596.678	1	-6
596.848	1	8
597.018	1	4
597.188	1	3
597.358	1	-8
597.527	1	1
597.697	1	-14
597.867	1	0
598.037	1	13
598.206	1	-2
598.376	1	-14
598.546	1	-10
598.716	1	11
598.885	1	2
599.055	1	13
599.225	1	2
599.395	1	3
599.565	1	0
599.734	1	-7
599.904	1	-1
600.074	1	-7
600.244	1	4
600.413	1	-5
600.583	1	3
600.753	1	4
600.923	1	7
601.092	1	1
601.262	1	0
601.432	1	6
601.602	1	-9
601.771	1	2
601.941	1	-2
602.111	1	-8
602.281	1	6
602.451	1	-1
602.620	1	-9
602.790	1	1
602.960	1	1
603.130	1	8
603.299	1	6
603.469	1	2
603.639	1	-3
603.809	1	3
603.978	1	-10
604.148	1	9
604.318	1	14
604.487	1	-6
604.657	1	0
604.827	1	-1
604.997	1	2
605.166	1	-4
605.336	1	-5
605.506	1	5
605.676	1	4
605.845	1	8
606.015	1	-8
606.185	1	4
606.355	1	-4
606.524	1	10
606.694	1	-2
606.864	1	-1
607.034	1	-1
607.203	1	5
607.373	1	7
607.543	1	3
607.712	1	4
607.882	1	3
608.052	1	0
608.222	1	-7
608.391	1	2
608.561	1	5
608.731	1	2
608.901	1	3
609.070	1	3
609.240	1	15
609.410	1	3
609.579	1	-9
609.749	1	1
609.919	1	4
610.089	1	-8
610.258	1	-4
610.428	1	1
610.598	1	0
610.767	1	2
610.937	1	-4
611.107	1	4
611.277	1	4
611.446	1	-7
611.616	1	9
611.786	1	-5
611.955	1	5
612.125	1	4
612.295	1	-2
612.465	1	4
612.634	1	1
612.804	1	6
612.974	1	-4
613.143	1	-2
613.313	1	-3
613.483	1	-1
613.652	1	-7
613.822	1	-4
613.992	1	2
614.162	1	2
614.331	1	18
614.501	1	1
614.671	1	2
614.840	1	8
615.010	1	0
615.180	1	11
615.349	1	-3
615.519	1	5
615.689	1	1
615.858	1	8
616.028	1	3
616.198	1	10
616.368	1	13
616.537	1	-4
616.707	1	9
616.877	1	0
617.046	1	-3
617.216	1	17
617.386	1	0
617.555	1	9
617.725	1	-9
617.895	1	8
618.064	1	-3
618.234	1	-3
618.404	1	-3
618.573	1	-4
618.743	1	8
618.913	1	-3
619.082	1	-1
619.252	1	9
619.422	1	-6
619.591	1	-8
619.761	1	1
619.931	1	-13
620.100	1	-6
620.270	1	0
620.440	1	-3
620.609	1	-6
620.779	1	-4
620.949	1	7
621.118	1	0
621.288	1	3
621.458	1	-1
621.627	1	9
621.797	1	7
621.967	1	-6
622.136	1	8
622.306	1	-8
622.476	1	3
622.645	1	-1
622.815	1	-12
622.985	1	-4
623.154	1	-7
623.324	1	6
623.494	1	13
623.663	1	17
623.833	1	0
624.002	1	-6
624.172	1	7
624.342	1	-4
624.511	1	-3
624.681	1	-1
624.851	1	10
625.020	1	13
625.190	1	0
625.360	1	9
625.529	1	5
625.699	1	1
625.869	1	-3
626.038	1	-9
626.208	1	0
626.377	1	-2
626.547	1	5
626.717	1	9
626.886	1	2
627.056	1	1
627.226	1	0
627.395	1	1
627.565	1	2
627.735	1	-3
627.904	1	14
628.074	1	1
628.243	1	10
628.413	1	1
628.583	1	-9
628.752	1	-4
628.922	1	2
629.091	1	0
629.261	1	5
629.431	1	-6
629.600	1	6
629.770	1	6
629.940	1	-8
630.109	1	-3
630.279	1	8
630.448	1	5
630.618	1	3
630.788	1	0
630.957	1	10
631.127	1	-3
631.297	1	4
631.466	1	3
631.636	1	3
631.805	1	5
631.975	1	9
632.145	1	-9
632.314	1	-16
632.484	1	-3
632.653	1	0
632.823	1	-4
632.993	1	11
633.162	1	-6
633.332	1	7
633.501	1	-14
633.671	1	-2
633.841	1	-2
634.010	1	7
634.180	1	-7
634.349	1	1
634.519	1	9
634.689	1	9
634.858	1	2
635.028	1	-1
635.197	1	6
635.367	1	4
635.537	1	-14
635.706	1	5
635.876	1	-5
636.045	1	-6
636.215	1	-11
636.384	1	3
636.554	1	8
636.724	1	1
636.893	1	1
637.063	1	5
637.232	1	7
637.402	1	4
637.572	1	0
637.741	1	-11
637.911	1	4
638.080	1	3
638.250	1	-4
638.419	1	-1
638.589	1	-2
638.759	1	-4
638.928	1	4
639.098	1	2
639.267	1	-8
639.437	1	-2
639.606	1	-1
639.776	1	-2
639.946	1	-5
640.115	1	-11
640.285	1	5
640.454	1	6
640.624	1	10
640.793	1	-6
640.963	1	-11
641.132	1	-5
641.302	1	6
641.472	1	-7
641.641	1	-9
641.811	1	0
641.980	1	-5
642.150	1	10
642.319	1	-2
642.489	1	-4
642.659	1	-2
642.828	1	-1
642.998	1	-4
643.167	1	-7
643.337	1	-7
643.506	1	3
643.676	1	-4
643.845	1	0
644.015	1	9
644.184	1	-4
644.354	1	-1
644.524	1	1
644.693	1	-2
644.863	1	3
645.032	1	3
645.202	1	6
645.371	1	-10
645.541	1	-3
645.710	1	7
645.880	1	2
646.049	1	9
646.219	1	-3
646.388	1	1
646.558	1	-2
646.728	1	-1
646.897	1	7
647.067	1	5
647.236	1	-6
647.406	1	2
647.575	1	0
647.745	1	9
647.914	1	-8
648.084	1	-6
648.253	1	-7
648.423	1	6
648.592	1	-7
648.762	1	2
648.931	1	-2
649.101	1	-5
649.270	1	1
649.440	1	-2
649.610	1	0
649.779	1	2
649.949	1	-13
650.118	1	-5
650.288	1	4
650.457	1	-5
650.627	1	-2
650.796	1	-8
650.966	1	-2
651.135	1	6
651.305	1	2
651.474	1	-1
651.644	1	0
651.813	1	4
651.983	1	13
652.152	1	1
652.322	1	-6
652.491	1	6
652.661	1	1
652.830	1	1
653.000	1	-6
653.169	1	15
653.339	1	1
653.508	1	2
653.678	1	-7
653.847	1	2
654.017	1	2
654.186	1	1
654.356	1	10
654.525	1	4
654.695	1	-3
654.864	1	-5
655.034	1	-1
655.203	1	-3
655.373	1	4
655.542	1	-2
655.712	1	5
655.881	1	7
656.051	1	-3
656.220	1	-2
656.390	1	0
656.559	1	-1
656.729	1	5
656.898	1	-5
657.068	1	-4
657.237	1	-3
657.406	1	-1
657.576	1	2
657.745	1	9
657.915	1	-6
658.084	1	7
658.254	1	-4
658.423	1	6
658.593	1	-1
658.762	1	7
658.932	1	4
659.101	1	-2
659.271	1	2
659.440	1	-5
659.610	1	6
659.779	1	0
659.949	1	0
660.118	1	-3
660.288	1	-4
660.457	1	5
660.626	1	0
660.796	1	-7
660.965	1	-4
661.135	1	9
661.304	1	-1
661.474	1	-3
661.643	1	4
661.813	1	12
661.982	1	-12
662.152	1	3
662.321	1	-5
662.491	1	-5
662.660	1	-5
662.829	1	5
662.999	1	12
663.168	1	4
663.338	1	-2
663.507	1	-13
663.677	1	-8
663.846	1	6
664.016	1	5
664.185	1	1
664.354	1	1
664.524	1	-3
664.693	1	3
664.863	1	-1
665.032	1	8
665.202	1	-4
665.371	1	-16
665.541	1	-8
665.710	1	-2
665.879	1	6
666.049	1	2
666.218	1	-5
666.388	1	10
666.557	1	1
666.727	1	2
666.896	1	-1
667.065	1	-6
667.235	1	-4
667.404	1	4
667.574	1	6
667.743	1	8
667.913	1	-7
668.082	1	8
668.251	1	6
668.421	1	-2
668.590	1	-1
668.760	1	0
668.929	1	-1
669.099	1	-2
669.268	1	6
669.437	1	-1
669.607	1	4
669.776	1	-8
669.946	1	-1
670.115	1	-5
670.285	1	-2
670.454	1	0
670.623	1	3
670.793	1	4
670.962	1	2
671.132	1	0
671.301	1	0
671.470	1	2
671.640	1	8
671.809	1	-5
671.979	1	1
672.148	1	-1
672.317	1	-2
672.487	1	3
672.656	1	2
672.826	1	4
672.995	1	1
673.164	1	25
673.334	1	2
673.503	1	-3
673.673	1	-17
673.842	1	-3
674.011	1	-17
674.181	1	0
674.350	1	4
674.520	1	5
674.689	1	-7
674.858	1	-10
675.028	1	10
675.197	1	5
675.367	1	-8
675.536	1	15
675.705	1	0
675.875	1	-6
676.044	1	-1
676.214	1	0
676.383	1	0
676.552	1	2
676.722	1	-4
676.891	1	-6
677.060	1	-4
677.230	1	10
677.399	1	3
677.569	1	11
677.738	1	4
677.907	1	6
678.077	1	13
678.246	1	-7
678.416	1	4
678.585	1	-6
678.754	1	6
678.924	1	3
679.093	1	7
679.262	1	11
679.432	1	9
679.601	1	12
679.771	1	-8
679.940	1	-1
680.109	1	-3
680.279	1	0
680.448	1	1
680.617	1	-10
680.787	1	1
680.956	1	-5
681.125	1	-8
681.295	1	4
681.464	1	3
681.634	1	-7
681.803	1	4
681.972	1	-6
682.142	1	0
682.311	1	-11
682.480	1	-5
682.650	1	3
682.819	1	1
682.988	1	-4
683.158	1	4
683.327	1	8
683.496	1	-1
683.666	1	8
683.835	1	-2
684.004	1	4
684.174	1	4
684.343	1	-1
684.512	1	-7
684.682	1	-4
684.851	1	-2
685.021	1	-9
685.190	1	13
685.359	1	-9
685.529	1	7
685.698	1	-3
685.867	1	-2
686.037	1	-4
686.206	1	4
686.375	1	8
686.545	1	2
686.714	1	3
686.883	1	0
687.053	1	-7
687.222	1	2
687.391	1	8
687.561	1	0
687.730	1	8
687.899	1	2
688.069	1	-1
688.238	1	4
688.407	1	-11
688.577	1	2
688.746	1	1
