340.368	1	2
340.539	1	8
340.710	1	0
340.881	1	-5
341.052	1	17
341.223	1	-7
341.394	1	-2
341.565	1	4
341.737	1	3
341.908	1	-11
342.079	1	1
342.250	1	10
342.421	1	-4
342.592	1	12
342.763	1	10
342.934	1	8
343.105	1	4
343.276	1	4
343.447	1	3
343.618	1	2
343.789	1	15
343.960	1	7
344.131	1	8
344.302	1	14
344.473	1	-4
344.644	1	4
344.815	1	-3
344.986	1	-4
345.157	1	3
345.328	1	-6
345.499	1	2
345.670	1	2
345.841	1	-1
346.012	1	6
346.183	1	0
346.354	1	0
346.526	1	6
346.697	1	0
346.868	1	6
347.039	1	4
347.210	1	-8
347.381	1	3
347.552	1	7
347.723	1	7
347.894	1	1
348.065	1	-7
348.236	1	3
348.407	1	4
348.578	1	-4
348.749	1	-1
348.920	1	-3
349.091	1	7
349.262	1	4
349.433	1	5
349.604	1	-1
349.775	1	1
349.946	1	-3
350.117	1	-6
350.288	1	-9
350.459	1	-8
350.630	1	-11
350.801	1	4
350.972	1	3
351.143	1	0
351.314	1	5
351.485	1	2
351.656	1	9
351.827	1	-7
351.998	1	8
352.169	1	-1
352.340	1	-7
352.511	1	4
352.682	1	-4
352.853	1	6
353.024	1	3
353.195	1	0
353.366	1	0
353.537	1	8
353.708	1	-3
353.879	1	-3
354.050	1	-2
354.221	1	5
354.392	1	1
354.563	1	4
354.734	1	-10
354.905	1	8
355.076	1	1
355.247	1	3
355.418	1	2
355.589	1	-8
355.760	1	9
355.931	1	1
356.102	1	-7
356.273	1	0
356.444	1	4
356.615	1	-2
356.785	1	-1
356.956	1	11
357.127	1	-4
357.298	1	-1
357.469	1	7
357.640	1	2
357.811	1	6
357.982	1	-1
358.153	1	0
358.324	1	-1
358.495	1	8
358.666	1	-3
358.837	1	3
359.008	1	-6
359.179	1	-4
359.350	1	-7
359.521	1	-7
359.692	1	5
359.863	1	-5
360.034	1	-5
360.205	1	-1
360.376	1	8
360.547	1	3
360.718	1	-5
360.889	1	6
361.060	1	-7
361.231	1	-4
361.401	1	1
361.572	1	-6
361.743	1	-2
361.914	1	-1
362.085	1	1
362.256	1	-4
362.427	1	1
362.598	1	2
362.769	1	14
362.940	1	-4
363.111	1	-5
363.282	1	-3
363.453	1	4
363.624	1	8
363.795	1	-10
363.966	1	3
364.137	1	6
364.308	1	19
364.478	1	-1
364.649	1	12
364.820	1	4
364.991	1	-1
365.162	1	6
365.333	1	-11
365.504	1	-6
365.675	1	-2
365.846	1	9
366.017	1	5
366.188	1	8
366.359	1	-12
366.530	1	5
366.701	1	0
366.871	1	-4
367.042	1	-6
367.213	1	-1
367.384	1	5
367.555	1	7
367.726	1	-3
367.897	1	4
368.068	1	7
368.239	1	2
368.410	1	0
368.581	1	-6
368.752	1	-19
368.923	1	-4
369.093	1	4
369.264	1	-1
369.435	1	-1
369.606	1	8
369.777	1	-7
369.948	1	2
370.119	1	-3
370.290	1	1
370.461	1	10
370.632	1	2
370.803	1	0
370.973	1	6
371.144	1	11
371.315	1	5
371.486	1	0
371.657	1	8
371.828	1	-2
371.999	1	-5
372.170	1	2
372.341	1	-1
372.512	1	-6
372.682	1	0
372.853	1	-4
373.024	1	9
373.195	1	-4
373.366	1	-1
373.537	1	6
373.708	1	1
373.879	1	-2
374.050	1	7
374.220	1	-1
374.391	1	-5
374.562	1	10
374.733	1	9
374.904	1	-6
375.075	1	1
375.246	1	7
375.417	1	-3
375.588	1	-1
375.758	1	4
375.929	1	-8
376.100	1	-6
376.271	1	12
376.442	1	-3
376.613	1	8
376.784	1	-10
376.955	1	-8
377.125	1	6
377.296	1	1
377.467	1	0
377.638	1	-4
377.809	1	4
377.980	1	2
378.151	1	2
378.321	1	1
378.492	1	6
378.663	1	6
378.834	1	-1
379.005	1	-6
379.176	1	9
379.347	1	9
379.518	1	3
379.688	1	-6
379.859	1	-2
380.030	1	10
380.201	1	0
380.372	1	-5
380.543	1	-6
380.714	1	2
380.884	1	-5
381.055	1	-6
381.226	1	3
381.397	1	13
381.568	1	-2
381.739	1	2
381.910	1	-7
382.080	1	-5
382.251	1	5
382.422	1	-9
382.593	1	7
382.764	1	7
382.935	1	1
383.105	1	-2
383.276	1	5
383.447	1	1
383.618	1	0
383.789	1	11
383.960	1	-10
384.130	1	3
384.301	1	6
384.472	1	-6
384.643	1	-3
384.814	1	2
384.985	1	8
385.156	1	5
385.326	1	4
385.497	1	-4
385.668	1	-2
385.839	1	-6
386.010	1	11
386.180	1	2
386.351	1	1
386.522	1	4
386.693	1	3
386.864	1	-5
387.035	1	0
387.205	1	-6
387.376	1	2
387.547	1	3
387.718	1	3
387.889	1	10
388.060	1	0
388.230	1	12
388.401	1	10
388.572	1	-4
388.743	1	1
388.914	1	4
389.084	1	2
389.255	1	-1
389.426	1	-4
389.597	1	-3
389.768	1	10
389.939	1	5
390.109	1	-3
390.280	1	9
390.451	1	-5
390.622	1	-2
390.793	1	-3
390.963	1	14
391.134	1	-3
391.305	1	0
391.476	1	10
391.647	1	-1
391.817	1	8
391.988	1	4
392.159	1	2
392.330	1	-2
392.501	1	4
392.671	1	-2
392.842	1	-5
393.013	1	-7
393.184	1	-1
393.355	1	-5
393.525	1	7
393.696	1	9
393.867	1	5
394.038	1	2
394.208	1	2
394.379	1	9
394.550	1	4
394.721	1	-6
394.892	1	3
395.062	1	5
395.233	1	-2
395.404	1	0
395.575	1	6
395.746	1	4
395.916	1	-1
396.087	1	9
396.258	1	7
396.429	1	0
396.599	1	-8
396.770	1	-3
396.941	1	11
397.112	1	-10
397.283	1	1
397.453	1	2
397.624	1	1
397.795	1	6
397.966	1	14
398.136	1	8
398.307	1	0
398.478	1	1
398.649	1	6
398.819	1	-8
398.990	1	-2
399.161	1	3
399.332	1	0
399.503	1	1
399.673	1	5
399.844	1	3
400.015	1	-11
400.186	1	-13
400.356	1	0
400.527	1	8
400.698	1	0
400.869	1	-2
401.039	1	-4
401.210	1	7
401.381	1	4
401.552	1	-2
401.722	1	-1
401.893	1	7
402.064	1	-5
402.235	1	3
402.405	1	0
402.576	1	11
402.747	1	-11
402.918	1	2
403.088	1	1
403.259	1	14
403.430	1	-4
403.601	1	2
403.771	1	1
403.942	1	-3
404.113	1	-3
404.284	1	2
404.454	1	-7
404.625	1	-2
404.796	1	4
404.967	1	2
405.137	1	2
405.308	1	-5
405.479	1	-4
405.649	1	-2
405.820	1	0
405.991	1	6
406.162	1	-3
406.332	1	2
406.503	1	-7
406.674	1	3
406.845	1	15
407.015	1	10
407.186	1	-6
407.357	1	-7
407.527	1	3
407.698	1	1
407.869	1	4
408.040	1	6
408.210	1	5
408.381	1	11
408.552	1	11
408.722	1	0
408.893	1	4
409.064	1	-10
409.235	1	2
409.405	1	-10
409.576	1	2
409.747	1	10
409.917	1	-4
410.088	1	4
410.259	1	-6
410.430	1	-2
410.600	1	-4
410.771	1	-4
410.942	1	-4
411.112	1	6
411.283	1	8
411.454	1	20
411.625	1	9
411.795	1	4
411.966	1	11
412.137	1	-9
412.307	1	6
412.478	1	2
412.649	1	10
412.819	1	1
412.990	1	8
413.161	1	4
413.332	1	19
413.502	1	4
413.673	1	7
413.844	1	4
414.014	1	-5
414.185	1	-5
414.356	1	-12
414.526	1	-7
414.697	1	1
414.868	1	6
415.038	1	6
415.209	1	-11
415.380	1	1
415.550	1	14
415.721	1	-6
415.892	1	2
416.063	1	4
416.233	1	17
416.404	1	-3
416.575	1	8
416.745	1	6
416.916	1	-6
417.087	1	1
417.257	1	3
417.428	1	3
417.599	1	6
417.769	1	-1
417.940	1	-1
418.111	1	6
418.281	1	5
418.452	1	1
418.623	1	-7
418.793	1	18
418.964	1	0
419.135	1	3
419.305	1	7
419.476	1	13
419.647	1	-3
419.817	1	4
419.988	1	8
420.159	1	3
420.329	1	6
420.500	1	16
420.671	1	-3
420.841	1	5
421.012	1	-2
421.183	1	-7
421.353	1	-7
421.524	1	12
421.695	1	1
421.865	1	3
422.036	1	-1
422.206	1	7
422.377	1	4
422.548	1	1
422.718	1	8
422.889	1	5
423.060	1	5
423.230	1	-2
423.401	1	5
423.572	1	14
423.742	1	-2
423.913	1	-9
424.084	1	-2
424.254	1	-6
424.425	1	-3
424.595	1	2
424.766	1	4
424.937	1	13
425.107	1	13
425.278	1	6
425.449	1	4
425.619	1	3
425.790	1	11
425.961	1	-1
426.131	1	2
426.302	1	-11
426.472	1	-8
426.643	1	9
426.814	1	8
426.984	1	-5
427.155	1	16
427.326	1	-2
427.496	1	2
427.667	1	-10
427.837	1	-6
428.008	1	7
428.179	1	6
428.349	1	10
428.520	1	7
428.691	1	10
428.861	1	-9
429.032	1	3
429.202	1	2
429.373	1	15
429.544	1	-6
429.714	1	2
429.885	1	10
430.055	1	-7
430.226	1	1
430.397	1	5
430.567	1	6
430.738	1	-3
430.909	1	11
431.079	1	3
431.250	1	1
431.420	1	9
431.591	1	-1
431.762	1	-1
431.932	1	-7
432.103	1	-7
432.273	1	3
432.444	1	-1
432.615	1	10
432.785	1	3
432.956	1	-7
433.126	1	11
433.297	1	-6
433.468	1	1
433.638	1	6
433.809	1	8
433.979	1	-5
434.150	1	6
434.320	1	17
434.491	1	1
434.662	1	5
434.832	1	-6
435.003	1	5
435.173	1	-8
435.344	1	-5
435.515	1	-1
435.685	1	6
435.856	1	13
436.026	1	-3
436.197	1	7
436.368	1	4
436.538	1	2
436.709	1	3
436.879	1	-1
437.050	1	9
437.220	1	6
437.391	1	2
437.562	1	9
437.732	1	16
437.903	1	3
438.073	1	10
438.244	1	8
438.414	1	-1
438.585	1	-4
438.756	1	8
438.926	1	-1
439.097	1	1
439.267	1	3
439.438	1	10
439.608	1	-5
439.779	1	5
439.949	1	-3
440.120	1	-3
440.291	1	-1
440.461	1	-3
440.632	1	6
440.802	1	6
440.973	1	11
441.143	1	-2
441.314	1	-4
441.485	1	11
441.655	1	-5
441.826	1	3
441.996	1	-6
442.167	1	-3
442.337	1	1
442.508	1	-5
442.678	1	9
442.849	1	10
443.019	1	3
443.190	1	-3
443.361	1	9
443.531	1	10
443.702	1	5
443.872	1	6
444.043	1	2
444.213	1	4
444.384	1	10
444.554	1	8
444.725	1	7
444.895	1	0
445.066	1	0
445.237	1	0
445.407	1	-5
445.578	1	1
445.748	1	2
445.919	1	2
446.089	1	12
446.260	1	-5
446.430	1	2
446.601	1	11
446.771	1	16
446.942	1	-3
447.112	1	-1
447.283	1	9
447.453	1	4
447.624	1	0
447.794	1	4
447.965	1	5
448.135	1	6
448.306	1	10
448.477	1	8
448.647	1	2
448.818	1	2
448.988	1	1
449.159	1	3
449.329	1	7
449.500	1	-10
449.670	1	-5
449.841	1	-5
450.011	1	9
450.182	1	12
450.352	1	5
450.523	1	-5
450.693	1	-10
450.864	1	0
451.034	1	7
451.205	1	-1
451.375	1	-1
451.546	1	-3
451.716	1	-11
451.887	1	5
452.057	1	7
452.228	1	5
452.398	1	5
452.569	1	11
452.739	1	0
452.910	1	0
453.080	1	6
453.251	1	3
453.421	1	11
453.592	1	3
453.762	1	4
453.933	1	-2
454.103	1	-6
454.274	1	4
454.444	1	-3
454.615	1	0
454.785	1	-2
454.956	1	8
455.126	1	4
455.297	1	3
455.467	1	-2
455.638	1	-4
455.808	1	0
455.979	1	-5
456.149	1	-5
456.320	1	-6
456.490	1	4
456.661	1	-4
456.831	1	4
457.001	1	9
457.172	1	-5
457.342	1	6
457.513	1	5
457.683	1	5
457.854	1	4
458.024	1	-13
458.195	1	-5
458.365	1	13
458.536	1	4
458.706	1	13
458.877	1	-4
459.047	1	14
459.218	1	5
459.388	1	10
459.559	1	-2
459.729	1	0
459.899	1	-5
460.070	1	-4
460.240	1	-10
460.411	1	1
460.581	1	3
460.752	1	6
460.922	1	-3
461.093	1	0
461.263	1	-4
461.434	1	-2
461.604	1	4
461.775	1	-8
461.945	1	-6
462.115	1	12
462.286	1	7
462.456	1	-2
462.627	1	-3
462.797	1	-6
462.968	1	3
463.138	1	-3
463.309	1	0
463.479	1	4
463.649	1	8
463.820	1	6
463.990	1	10
464.161	1	-5
464.331	1	-13
464.502	1	0
464.672	1	5
464.843	1	2
465.013	1	-4
465.183	1	0
465.354	1	-4
465.524	1	-2
465.695	1	6
465.865	1	-5
466.036	1	-7
466.206	1	9
466.376	1	-8
466.547	1	11
466.717	1	6
466.888	1	5
467.058	1	0
467.229	1	16
467.399	1	9
467.569	1	2
467.740	1	4
467.910	1	-2
468.081	1	-1
468.251	1	-4
468.422	1	1
468.592	1	18
468.762	1	12
468.933	1	0
469.103	1	0
469.274	1	0
469.444	1	7
469.614	1	-8
469.785	1	-8
469.955	1	-5
470.126	1	7
470.296	1	-6
470.467	1	6
470.637	1	-9
470.807	1	13
470.978	1	-9
471.148	1	-2
471.319	1	12
471.489	1	-2
471.659	1	-3
471.830	1	4
472.000	1	1
472.171	1	-6
472.341	1	1
472.511	1	0
472.682	1	0
472.852	1	5
473.023	1	5
473.193	1	8
473.363	1	3
473.534	1	3
473.704	1	2
473.875	1	0
474.045	1	12
474.215	1	-4
474.386	1	-5
474.556	1	5
474.727	1	-5
474.897	1	-2
475.067	1	3
475.238	1	1
475.408	1	7
475.578	1	4
475.749	1	8
475.919	1	2
476.090	1	-3
476.260	1	1
476.430	1	1
476.601	1	-9
476.771	1	5
476.942	1	-2
477.112	1	3
477.282	1	-4
477.453	1	8
477.623	1	1
477.793	1	-3
477.964	1	4
478.134	1	4
478.305	1	3
478.475	1	3
478.645	1	6
478.816	1	-1
478.986	1	11
479.156	1	-8
479.327	1	1
479.497	1	0
479.667	1	-3
479.838	1	6
480.008	1	5
480.179	1	5
480.349	1	-6
480.519	1	5
480.690	1	4
480.860	1	4
481.030	1	-2
481.201	1	-3
481.371	1	4
481.541	1	5
481.712	1	-2
481.882	1	12
482.053	1	-8
482.223	1	3
482.393	1	-11
482.564	1	9
482.734	1	10
482.904	1	0
483.075	1	2
483.245	1	-1
483.415	1	15
483.586	1	10
483.756	1	4
483.926	1	6
484.097	1	7
484.267	1	-8
484.437	1	2
484.608	1	-1
484.778	1	-5
484.948	1	3
485.119	1	-1
485.289	1	3
485.459	1	9
485.630	1	7
485.800	1	-8
485.970	1	1
486.141	1	-3
486.311	1	0
486.481	1	-1
486.652	1	-1
486.822	1	-4
486.992	1	18
487.163	1	-6
487.333	1	-2
487.503	1	1
487.674	1	6
487.844	1	-6
488.014	1	1
488.185	1	5
488.355	1	-1
488.525	1	3
488.696	1	6
488.866	1	0
489.036	1	6
489.207	1	0
489.377	1	4
489.547	1	0
489.718	1	-8
489.888	1	0
490.058	1	3
490.228	1	-5
490.399	1	10
490.569	1	12
490.739	1	-2
490.910	1	-7
491.080	1	-5
491.250	1	7
491.421	1	2
491.591	1	4
491.761	1	9
491.932	1	1
492.102	1	3
492.272	1	7
492.442	1	-6
492.613	1	-1
492.783	1	-6
492.953	1	9
493.124	1	-7
493.294	1	10
493.464	1	-1
493.635	1	13
493.805	1	6
493.975	1	4
494.145	1	8
494.316	1	-3
494.486	1	-9
494.656	1	-1
494.827	1	0
494.997	1	12
495.167	1	13
495.337	1	-1
495.508	1	-3
495.678	1	14
495.848	1	6
496.019	1	5
496.189	1	3
496.359	1	-9
496.529	1	6
496.700	1	13
496.870	1	-1
497.040	1	2
497.211	1	-1
497.381	1	1
497.551	1	7
497.721	1	-3
497.892	1	5
498.062	1	-3
498.232	1	1
498.403	1	-2
498.573	1	4
498.743	1	-9
498.913	1	-3
499.084	1	9
499.254	1	3
499.424	1	5
499.594	1	-9
499.765	1	7
499.935	1	8
500.105	1	-4
500.275	1	4
500.446	1	-4
500.616	1	10
500.786	1	-1
500.956	1	7
501.127	1	5
501.297	1	-2
501.467	1	-4
501.638	1	-2
501.808	1	5
501.978	1	16
502.148	1	1
502.319	1	8
502.489	1	1
502.659	1	-4
502.829	1	-3
503.000	1	14
503.170	1	2
503.340	1	1
503.510	1	-4
503.681	1	2
503.851	1	-13
504.021	1	1
504.191	1	4
504.362	1	-2
504.532	1	0
504.702	1	-1
504.872	1	2
505.042	1	4
505.213	1	5
505.383	1	3
505.553	1	-5
505.723	1	8
505.894	1	0
506.064	1	-7
506.234	1	-8
506.404	1	6
506.575	1	-2
506.745	1	-3
506.915	1	15
507.085	1	-4
507.256	1	13
507.426	1	4
507.596	1	3
507.766	1	14
507.936	1	-2
508.107	1	4
508.277	1	2
508.447	1	-14
508.617	1	-1
508.788	1	1
508.958	1	7
509.128	1	-1
509.298	1	-8
509.468	1	14
509.639	1	-4
509.809	1	-6
509.979	1	3
510.149	1	5
510.319	1	4
510.490	1	8
510.660	1	9
510.830	1	5
511.000	1	7
511.171	1	3
511.341	1	-4
511.511	1	-8
511.681	1	2
511.851	1	5
512.022	1	0
512.192	1	-2
512.362	1	4
512.532	1	7
512.702	1	1
512.873	1	-7
513.043	1	6
513.213	1	-7
513.383	1	-7
513.553	1	-13
513.724	1	1
513.894	1	12
514.064	1	-8
514.234	1	-1
514.404	1	4
514.575	1	2
514.745	1	0
514.915	1	0
515.085	1	5
515.255	1	-1
515.425	1	6
515.596	1	6
515.766	1	5
515.936	1	15
516.106	1	5
516.276	1	0
516.447	1	5
516.617	1	0
516.787	1	3
516.957	1	0
517.127	1	0
517.297	1	-11
517.468	1	9
517.638	1	2
517.808	1	2
517.978	1	10
518.148	1	9
518.319	1	-2
518.489	1	0
518.659	1	-3
518.829	1	3
518.999	1	5
519.169	1	0
519.340	1	4
519.510	1	6
519.680	1	-5
519.850	1	-1
520.020	1	-3
520.190	1	4
520.361	1	7
520.531	1	0
520.701	1	10
520.871	1	-3
521.041	1	2
521.211	1	-8
521.382	1	4
521.552	1	-3
521.722	1	14
521.892	1	-3
522.062	1	0
522.232	1	7
522.402	1	2
522.573	1	5
522.743	1	-2
522.913	1	-1
523.083	1	-3
523.253	1	4
523.423	1	3
523.593	1	1
523.764	1	-1
523.934	1	3
524.104	1	2
524.274	1	2
524.444	1	2
524.614	1	8
524.784	1	2
524.955	1	-10
525.125	1	-8
525.295	1	8
525.465	1	9
525.635	1	-3
525.805	1	-8
525.975	1	0
526.146	1	-3
526.316	1	3
526.486	1	2
526.656	1	2
526.826	1	18
526.996	1	-5
527.166	1	13
527.337	1	0
527.507	1	-6
527.677	1	6
527.847	1	-3
528.017	1	-1
528.187	1	9
528.357	1	8
528.527	1	6
528.698	1	4
528.868	1	6
529.038	1	-8
529.208	1	1
529.378	1	1
529.548	1	4
529.718	1	1
529.888	1	1
530.058	1	1
530.229	1	-4
530.399	1	3
530.569	1	-6
530.739	1	-1
530.909	1	11
531.079	1	-7
531.249	1	-2
531.419	1	2
531.589	1	10
531.760	1	-1
531.930	1	-2
532.100	1	11
532.270	1	7
532.440	1	-2
532.610	1	-1
532.780	1	-4
532.950	1	-8
533.120	1	-1
533.290	1	-1
533.461	1	-4
533.631	1	0
533.801	1	10
533.971	1	6
534.141	1	7
534.311	1	-6
534.481	1	-8
534.651	1	12
534.821	1	-5
534.991	1	-2
535.162	1	-4
535.332	1	-3
535.502	1	13
535.672	1	1
535.842	1	-13
536.012	1	-5
536.182	1	6
536.352	1	-5
536.522	1	4
536.692	1	-14
536.862	1	-2
537.032	1	-5
537.203	1	3
537.373	1	5
537.543	1	4
537.713	1	1
537.883	1	1
538.053	1	6
538.223	1	5
538.393	1	-6
538.563	1	6
538.733	1	-7
538.903	1	-2
539.073	1	5
539.243	1	-3
539.413	1	-3
539.584	1	10
539.754	1	-5
539.924	1	-11
540.094	1	1
540.264	1	7
540.434	1	-1
540.604	1	6
540.774	1	-9
540.944	1	8
541.114	1	-13
541.284	1	-2
541.454	1	0
541.624	1	-1
541.794	1	6
541.964	1	-3
542.134	1	-6
542.305	1	-2
542.475	1	1
542.645	1	6
542.815	1	-6
542.985	1	-2
543.155	1	6
543.325	1	-2
543.495	1	-6
543.665	1	9
543.835	1	7
544.005	1	4
544.175	1	2
544.345	1	2
544.515	1	-1
544.685	1	8
544.855	1	-7
545.025	1	6
545.195	1	6
545.365	1	7
545.535	1	13
545.705	1	-5
545.875	1	0
546.045	1	5
546.216	1	7
546.386	1	1
546.556	1	-2
546.726	1	10
546.896	1	5
547.066	1	-1
547.236	1	2
547.406	1	9
547.576	1	-7
547.746	1	-9
547.916	1	-11
548.086	1	-3
548.256	1	4
548.426	1	7
548.596	1	3
548.766	1	-8
548.936	1	-8
549.106	1	-1
549.276	1	-12
549.446	1	4
549.616	1	-8
549.786	1	7
549.956	1	-8
550.126	1	10
550.296	1	12
550.466	1	10
550.636	1	-1
550.806	1	4
550.976	1	-1
551.146	1	0
551.316	1	3
551.486	1	14
551.656	1	-18
551.826	1	-10
551.996	1	-2
552.166	1	4
552.336	1	13
552.506	1	-2
552.676	1	0
552.846	1	1
553.016	1	8
553.186	1	-4
553.356	1	3
553.526	1	-5
553.696	1	-2
553.866	1	3
554.036	1	4
554.206	1	4
554.376	1	-8
554.546	1	5
554.716	1	3
554.886	1	-8
555.056	1	2
555.226	1	1
555.396	1	-3
555.566	1	1
555.736	1	3
555.906	1	5
556.076	1	3
556.246	1	-3
556.416	1	0
556.586	1	-4
556.756	1	5
556.926	1	6
557.096	1	5
557.266	1	-2
557.436	1	7
557.606	1	-9
557.776	1	1
557.946	1	-4
558.116	1	-10
558.286	1	-11
558.456	1	-7
558.626	1	6
558.796	1	18
558.966	1	2
559.136	1	-6
559.306	1	9
559.476	1	3
559.646	1	9
559.816	1	-9
559.986	1	-4
560.155	1	-5
560.325	1	7
560.495	1	7
560.665	1	3
560.835	1	-11
561.005	1	1
561.175	1	-4
561.345	1	11
561.515	1	0
561.685	1	6
561.855	1	1
562.025	1	4
562.195	1	10
562.365	1	5
562.535	1	0
562.705	1	-5
562.875	1	2
563.045	1	7
563.215	1	-3
563.385	1	-1
563.555	1	-2
563.725	1	3
563.895	1	9
564.064	1	-6
564.234	1	9
564.404	1	-5
564.574	1	-2
564.744	1	2
564.914	1	1
565.084	1	-10
565.254	1	0
565.424	1	4
565.594	1	1
565.764	1	-4
565.934	1	5
566.104	1	11
566.274	1	5
566.444	1	-1
566.614	1	2
566.783	1	5
566.953	1	7
567.123	1	14
567.293	1	-8
567.463	1	5
567.633	1	-1
567.803	1	0
567.973	1	11
568.143	1	0
568.313	1	3
568.483	1	6
568.653	1	8
568.823	1	0
568.993	1	-1
569.162	1	3
569.332	1	15
569.502	1	8
569.672	1	5
569.842	1	3
570.012	1	5
570.182	1	3
570.352	1	1
570.522	1	-10
570.692	1	-2
570.862	1	0
571.031	1	-1
571.201	1	0
571.371	1	-3
571.541	1	9
571.711	1	-1
571.881	1	1
572.051	1	-7
572.221	1	-10
572.391	1	9
572.561	1	1
572.731	1	-12
572.900	1	-2
573.070	1	0
573.240	1	-1
573.410	1	6
573.580	1	10
573.750	1	5
573.920	1	2
574.090	1	14
574.260	1	-4
574.430	1	0
574.599	1	-1
574.769	1	3
574.939	1	-2
575.109	1	1
575.279	1	2
575.449	1	7
575.619	1	-9
575.789	1	18
575.959	1	4
576.128	1	2
576.298	1	-5
576.468	1	0
576.638	1	14
576.808	1	8
576.978	1	-2
577.148	1	8
577.318	1	1
577.487	1	5
577.657	1	-5
577.827	1	-1
577.997	1	1
578.167	1	2
578.337	1	17
578.507	1	9
578.677	1	4
578.846	1	-5
579.016	1	14
579.186	1	-2
579.356	1	-2
579.526	1	2
579.696	1	5
579.866	1	3
580.036	1	-1
580.205	1	8
580.375	1	1
580.545	1	4
580.715	1	-6
580.885	1	-8
581.055	1	-1
581.225	1	2
581.394	1	6
581.564	1	1
581.734	1	0
581.904	1	-6
582.074	1	-3
582.244	1	6
582.414	1	-12
582.583	1	2
582.753	1	1
582.923	1	-2
583.093	1	-4
583.263	1	5
583.433	1	8
583.603	1	3
583.772	1	5
583.942	1	9
584.112	1	-2
584.282	1	7
584.452	1	2
584.622	1	-6
584.791	1	3
584.961	1	-6
585.131	1	2
585.301	1	-2
585.471	1	18
585.641	1	-3
585.811	1	10
585.980	1	0
586.150	1	-1
586.320	1	-7
586.490	1	5
586.660	1	6
586.830	1	6
586.999	1	1
587.169	1	-1
587.339	1	-1
587.509	1	0
587.679	1	2
587.849	1	3
588.018	1	24
588.188	1	2
588.358	1	0
588.528	1	1
588.698	1	-2
588.867	1	0
589.037	1	3
589.207	1	4
589.377	1	5
589.547	1	11
589.717	1	1
589.886	1	2
590.056	1	-3
590.226	1	3
590.396	1	6
590.566	1	-1
590.735	1	14
590.905	1	-4
591.075	1	-5
591.245	1	11
591.415	1	-7
591.585	1	-11
591.754	1	8
591.924	1	16
592.094	1	-6
592.264	1	-3
592.434	1	-2
592.603	1	4
592.773	1	-13
592.943	1	13
593.113	1	0
593.283	1	12
593.452	1	3
593.622	1	2
593.792	1	1
593.962	1	-1
594.132	1	-2
594.301	1	4
594.471	1	8
594.641	1	-3
594.811	1	-3
594.981	1	-8
595.150	1	0
595.320	1	7
595.490	1	6
595.660	1	9
595.829	1	-1
595.999	1	4
596.169	1	16
596.339	1	1
596.509	1	6
596.678	1	9
596.848	1	4
597.018	1	-4
597.188	1	-1
597.358	1	-9
597.527	1	3
597.697	1	-7
597.867	1	6
598.037	1	9
598.206	1	-1
598.376	1	-9
598.546	1	-10
598.716	1	6
598.885	1	15
599.055	1	6
599.225	1	9
599.395	1	-10
599.565	1	2
599.734	1	-2
599.904	1	-4
600.074	1	-9
600.244	1	6
600.413	1	4
600.583	1	11
600.753	1	7
600.923	1	-1
601.092	1	4
601.262	1	1
601.432	1	10
601.602	1	4
601.771	1	2
601.941	1	3
602.111	1	3
602.281	1	-4
602.451	1	2
602.620	1	-5
602.790	1	10
602.960	1	-6
603.130	1	2
603.299	1	11
603.469	1	8
603.639	1	4
603.809	1	5
603.978	1	-2
604.148	1	3
604.318	1	14
604.487	1	-4
604.657	1	9
604.827	1	-1
604.997	1	7
605.166	1	6
605.336	1	-4
605.506	1	0
605.676	1	5
605.845	1	9
606.015	1	-8
606.185	1	3
606.355	1	3
606.524	1	0
606.694	1	-4
606.864	1	-6
607.034	1	1
607.203	1	10
607.373	1	4
607.543	1	-6
607.712	1	-2
607.882	1	-6
608.052	1	6
608.222	1	-1
608.391	1	4
608.561	1	5
608.731	1	-9
608.901	1	-7
609.070	1	0
609.240	1	4
609.410	1	-3
609.579	1	-1
609.749	1	-1
609.919	1	1
610.089	1	3
610.258	1	-2
610.428	1	-5
610.598	1	1
610.767	1	-2
610.937	1	7
611.107	1	-4
611.277	1	11
611.446	1	-6
611.616	1	4
611.786	1	5
611.955	1	-1
612.125	1	-2
612.295	1	3
612.465	1	11
612.634	1	3
612.804	1	-7
612.974	1	-5
613.143	1	0
613.313	1	-7
613.483	1	8
613.652	1	-1
613.822	1	1
613.992	1	6
614.162	1	5
614.331	1	12
614.501	1	0
614.671	1	8
614.840	1	2
615.010	1	0
615.180	1	10
615.349	1	4
615.519	1	2
615.689	1	2
615.858	1	2
616.028	1	-3
616.198	1	-1
616.368	1	-2
616.537	1	-1
616.707	1	6
616.877	1	6
617.046	1	5
617.216	1	19
617.386	1	-1
617.555	1	4
617.725	1	-6
617.895	1	5
618.064	1	-1
618.234	1	-3
618.404	1	-3
618.573	1	9
618.743	1	10
618.913	1	6
619.082	1	6
619.252	1	5
619.422	1	4
619.591	1	0
619.761	1	-3
619.931	1	0
620.100	1	-1
620.270	1	1
620.440	1	1
620.609	1	-2
620.779	1	7
620.949	1	7
621.118	1	10
621.288	1	-1
621.458	1	14
621.627	1	3
621.797	1	7
621.967	1	4
622.136	1	8
622.306	1	-2
622.476	1	-9
622.645	1	0
622.815	1	-7
622.985	1	0
623.154	1	-2
623.324	1	4
623.494	1	12
623.663	1	7
623.833	1	-6
624.002	1	-1
624.172	1	3
624.342	1	5
624.511	1	10
624.681	1	3
624.851	1	4
625.020	1	13
625.190	1	-4
625.360	1	-7
625.529	1	-4
625.699	1	4
625.869	1	5
626.038	1	3
626.208	1	-4
626.377	1	-3
626.547	1	6
626.717	1	-8
626.886	1	1
627.056	1	0
627.226	1	-6
627.395	1	1
627.565	1	9
627.735	1	7
627.904	1	11
628.074	1	3
628.243	1	11
628.413	1	4
628.583	1	-6
628.752	1	-1
628.922	1	11
629.091	1	2
629.261	1	0
629.431	1	-3
629.600	1	-1
629.770	1	5
629.940	1	6
630.109	1	-5
630.279	1	18
630.448	1	9
630.618	1	14
630.788	1	-4
630.957	1	10
631.127	1	-3
631.297	1	3
631.466	1	1
631.636	1	-4
631.805	1	-2
631.975	1	5
632.145	1	-6
632.314	1	-4
632.484	1	12
632.653	1	2
632.823	1	-2
632.993	1	-3
633.162	1	3
633.332	1	-3
633.501	1	-11
633.671	1	2
633.841	1	0
634.010	1	13
634.180	1	-1
634.349	1	-5
634.519	1	0
634.689	1	8
634.858	1	-5
635.028	1	9
635.197	1	14
635.367	1	1
635.537	1	-10
635.706	1	8
635.876	1	0
636.045	1	-3
636.215	1	-7
636.384	1	-3
636.554	1	10
636.724	1	4
636.893	1	-2
637.063	1	3
637.232	1	10
637.402	1	3
637.572	1	11
637.741	1	-3
637.911	1	-4
638.080	1	3
638.250	1	7
638.419	1	-6
638.589	1	1
638.759	1	8
638.928	1	14
639.098	1	6
639.267	1	-6
639.437	1	-3
639.606	1	-9
639.776	1	-4
639.946	1	-4
640.115	1	7
640.285	1	0
640.454	1	3
640.624	1	6
640.793	1	-5
640.963	1	-6
641.132	1	-2
641.302	1	1
641.472	1	3
641.641	1	-8
641.811	1	-5
641.980	1	-7
642.150	1	4
642.319	1	4
642.489	1	2
642.659	1	-13
642.828	1	7
642.998	1	-8
643.167	1	-7
643.337	1	0
643.506	1	9
643.676	1	-6
643.845	1	3
644.015	1	1
644.184	1	-1
644.354	1	-2
644.524	1	6
644.693	1	-5
644.863	1	7
645.032	1	7
645.202	1	5
645.371	1	-1
645.541	1	-2
645.710	1	7
645.880	1	6
646.049	1	3
646.219	1	3
646.388	1	-4
646.558	1	5
646.728	1	8
646.897	1	11
647.067	1	7
647.236	1	-7
647.406	1	0
647.575	1	0
647.745	1	7
647.914	1	-9
648.084	1	-2
648.253	1	-4
648.423	1	2
648.592	1	-8
648.762	1	2
648.931	1	2
649.101	1	5
649.270	1	-3
649.440	1	-1
649.610	1	-3
649.779	1	7
649.949	1	0
650.118	1	-3
650.288	1	1
650.457	1	-2
650.627	1	-1
650.796	1	-2
650.966	1	0
651.135	1	9
651.305	1	7
651.474	1	0
651.644	1	-10
651.813	1	0
651.983	1	6
652.152	1	-2
652.322	1	-3
652.491	1	4
652.661	1	1
652.830	1	8
653.000	1	-3
653.169	1	3
653.339	1	6
653.508	1	2
653.678	1	-1
653.847	1	-1
654.017	1	2
654.186	1	1
654.356	1	4
654.525	1	1
654.695	1	2
654.864	1	0
655.034	1	9
655.203	1	-5
655.373	1	4
655.542	1	-3
655.712	1	0
655.881	1	2
656.051	1	3
656.220	1	-3
656.390	1	10
656.559	1	-2
656.729	1	2
656.898	1	6
657.068	1	-4
657.237	1	3
657.406	1	-1
657.576	1	0
657.745	1	5
657.915	1	3
658.084	1	-3
658.254	1	12
658.423	1	9
658.593	1	5
658.762	1	6
658.932	1	2
659.101	1	0
659.271	1	4
659.440	1	4
659.610	1	5
659.779	1	11
659.949	1	9
660.118	1	3
660.288	1	3
660.457	1	6
660.626	1	12
660.796	1	-8
660.965	1	0
661.135	1	3
661.304	1	4
661.474	1	-3
661.643	1	-3
661.813	1	5
661.982	1	-7
662.152	1	4
662.321	1	2
662.491	1	1
662.660	1	-11
662.829	1	-3
662.999	1	13
663.168	1	-4
663.338	1	6
663.507	1	-2
663.677	1	-10
663.846	1	9
664.016	1	0
664.185	1	4
664.354	1	2
664.524	1	-2
664.693	1	5
664.863	1	0
665.032	1	9
665.202	1	3
665.371	1	-3
665.541	1	3
665.710	1	4
665.879	1	-5
666.049	1	-6
666.218	1	-7
666.388	1	7
666.557	1	8
666.727	1	0
666.896	1	5
667.065	1	3
667.235	1	4
667.404	1	-3
667.574	1	5
667.743	1	-3
667.913	1	3
668.082	1	0
668.251	1	7
668.421	1	-3
668.590	1	0
668.760	1	3
668.929	1	-7
669.099	1	1
669.268	1	4
669.437	1	2
669.607	1	2
669.776	1	0
669.946	1	-3
670.115	1	7
670.285	1	-2
670.454	1	7
670.623	1	-3
670.793	1	12
670.962	1	-1
671.132	1	5
671.301	1	-12
671.470	1	3
671.640	1	-4
671.809	1	-2
671.979	1	-6
672.148	1	-3
672.317	1	1
672.487	1	-1
672.656	1	8
672.826	1	0
672.995	1	-1
673.164	1	15
673.334	1	5
673.503	1	2
673.673	1	-7
673.842	1	-8
674.011	1	-8
674.181	1	12
674.350	1	5
674.520	1	11
674.689	1	6
674.858	1	5
675.028	1	2
675.197	1	4
675.367	1	-4
675.536	1	15
675.705	1	-6
675.875	1	3
676.044	1	-10
676.214	1	12
676.383	1	9
676.552	1	6
676.722	1	5
676.891	1	-9
677.060	1	6
677.230	1	2
677.399	1	8
677.569	1	13
677.738	1	13
677.907	1	12
678.077	1	16
678.246	1	-8
678.416	1	0
678.585	1	-7
678.754	1	4
678.924	1	-3
679.093	1	11
679.262	1	12
679.432	1	15
679.601	1	11
679.771	1	0
679.940	1	-6
680.109	1	-2
680.279	1	2
680.448	1	1
680.617	1	5
680.787	1	-5
680.956	1	0
681.125	1	0
681.295	1	14
681.464	1	2
681.634	1	-1
681.803	1	-7
681.972	1	-3
682.142	1	-2
682.311	1	2
682.480	1	0
682.650	1	-5
682.819	1	6
682.988	1	8
683.158	1	19
683.327	1	3
683.496	1	-3
683.666	1	10
683.835	1	-5
684.004	1	-1
684.174	1	0
684.343	1	0
684.512	1	12
684.682	1	-2
684.851	1	-7
685.021	1	3
685.190	1	11
685.359	1	-10
685.529	1	-1
685.698	1	-4
685.867	1	1
686.037	1	4
686.206	1	5
686.375	1	4
686.545	1	-16
686.714	1	-4
686.883	1	6
687.053	1	-7
687.222	1	3
687.391	1	10
687.561	1	9
687.730	1	-2
687.899	1	0
688.069	1	-5
688.238	1	1
688.407	1	-2
688.577	1	-5
688.746	1	-9
