340.368	1	6
340.539	1	-4
340.710	1	-9
340.881	1	1
341.052	1	2
341.223	1	-7
341.394	1	-1
341.565	1	2
341.737	1	0
341.908	1	-8
342.079	1	0
342.250	1	4
342.421	1	-14
342.592	1	-1
342.763	1	-4
342.934	1	3
343.105	1	-1
343.276	1	3
343.447	1	7
343.618	1	11
343.789	1	11
343.960	1	3
344.131	1	6
344.302	1	7
344.473	1	1
344.644	1	1
344.815	1	-11
344.986	1	-13
345.157	1	-7
345.328	1	4
345.499	1	6
345.670	1	0
345.841	1	-4
346.012	1	-2
346.183	1	-11
346.354	1	5
346.526	1	8
346.697	1	-4
346.868	1	-2
347.039	1	-6
347.210	1	-3
347.381	1	-10
347.552	1	4
347.723	1	-1
347.894	1	-10
348.065	1	-14
348.236	1	-5
348.407	1	3
348.578	1	6
348.749	1	-6
348.920	1	-4
349.091	1	0
349.262	1	-2
349.433	1	1
349.604	1	0
349.775	1	8
349.946	1	-14
350.117	1	-5
350.288	1	-1
350.459	1	-5
350.630	1	4
350.801	1	7
350.972	1	5
351.143	1	-12
351.314	1	1
351.485	1	-1
351.656	1	4
351.827	1	-4
351.998	1	6
352.169	1	4
352.340	1	2
352.511	1	3
352.682	1	-8
352.853	1	-4
353.024	1	4
353.195	1	-5
353.366	1	-6
353.537	1	6
353.708	1	-7
353.879	1	3
354.050	1	-5
354.221	1	-6
354.392	1	-3
354.563	1	-2
354.734	1	-8
354.905	1	3
355.076	1	2
355.247	1	-3
355.418	1	4
355.589	1	4
355.760	1	-5
355.931	1	-2
356.102	1	-4
356.273	1	6
356.444	1	9
356.615	1	5
356.785	1	-18
356.956	1	11
357.127	1	-7
357.298	1	-5
357.469	1	1
357.640	1	11
357.811	1	5
357.982	1	2
358.153	1	-2
358.324	1	11
358.495	1	-2
358.666	1	-2
358.837	1	-8
359.008	1	4
359.179	1	-3
359.350	1	8
359.521	1	4
359.692	1	3
359.863	1	-15
360.034	1	0
360.205	1	4
360.376	1	4
360.547	1	0
360.718	1	2
360.889	1	13
361.060	1	5
361.231	1	0
361.401	1	4
361.572	1	7
361.743	1	5
361.914	1	2
362.085	1	2
362.256	1	1
362.427	1	3
362.598	1	-1
362.769	1	5
362.940	1	-4
363.111	1	1
363.282	1	13
363.453	1	20
363.624	1	6
363.795	1	2
363.966	1	4
364.137	1	10
364.308	1	9
364.478	1	9
364.649	1	17
364.820	1	13
364.991	1	6
365.162	1	25
365.333	1	6
365.504	1	8
365.675	1	3
365.846	1	7
366.017	1	19
366.188	1	18
366.359	1	12
366.530	1	13
366.701	1	9
366.871	1	10
367.042	1	9
367.213	1	13
367.384	1	11
367.555	1	28
367.726	1	13
367.897	1	20
368.068	1	24
368.239	1	17
368.410	1	14
368.581	1	8
368.752	1	11
368.923	1	24
369.093	1	21
369.264	1	10
369.435	1	16
369.606	1	19
369.777	1	8
369.948	1	12
370.119	1	15
370.290	1	15
370.461	1	21
370.632	1	13
370.803	1	17
370.973	1	15
371.144	1	16
371.315	1	8
371.486	1	11
371.657	1	16
371.828	1	13
371.999	1	-8
372.170	1	16
372.341	1	10
372.512	1	12
372.682	1	6
372.853	1	5
373.024	1	15
373.195	1	0
373.366	1	3
373.537	1	17
373.708	1	13
373.879	1	5
374.050	1	11
374.220	1	9
374.391	1	6
374.562	1	11
374.733	1	14
374.904	1	1
375.075	1	-2
375.246	1	10
375.417	1	1
375.588	1	5
375.758	1	10
375.929	1	-2
376.100	1	-2
376.271	1	5
376.442	1	3
376.613	1	14
376.784	1	10
376.955	1	5
377.125	1	18
377.296	1	10
377.467	1	20
377.638	1	0
377.809	1	2
377.980	1	5
378.151	1	3
378.321	1	1
378.492	1	11
378.663	1	3
378.834	1	5
379.005	1	-2
379.176	1	11
379.347	1	15
379.518	1	6
379.688	1	-5
379.859	1	1
380.030	1	19
380.201	1	-9
380.372	1	0
380.543	1	5
380.714	1	11
380.884	1	1
381.055	1	1
381.226	1	3
381.397	1	19
381.568	1	-6
381.739	1	-8
381.910	1	-7
382.080	1	14
382.251	1	9
382.422	1	1
382.593	1	1
382.764	1	3
382.935	1	14
383.105	1	-6
383.276	1	-2
383.447	1	-4
383.618	1	6
383.789	1	17
383.960	1	4
384.130	1	3
384.301	1	4
384.472	1	2
384.643	1	-8
384.814	1	-6
384.985	1	4
385.156	1	6
385.326	1	15
385.497	1	0
385.668	1	0
385.839	1	-5
386.010	1	6
386.180	1	4
386.351	1	-6
386.522	1	-5
386.693	1	1
386.864	1	-2
387.035	1	7
387.205	1	1
387.376	1	-4
387.547	1	13
387.718	1	3
387.889	1	11
388.060	1	5
388.230	1	15
388.401	1	3
388.572	1	0
388.743	1	7
388.914	1	6
389.084	1	0
389.255	1	-8
389.426	1	-8
389.597	1	-6
389.768	1	10
389.939	1	4
390.109	1	-2
390.280	1	2
390.451	1	3
390.622	1	-1
390.793	1	7
390.963	1	5
391.134	1	-1
391.305	1	-9
391.476	1	0
391.647	1	-5
391.817	1	11
391.988	1	9
392.159	1	0
392.330	1	-7
392.501	1	2
392.671	1	-6
392.842	1	5
393.013	1	-6
393.184	1	9
393.355	1	-5
393.525	1	-5
393.696	1	12
393.867	1	-6
394.038	1	9
394.208	1	-5
394.379	1	13
394.550	1	-5
394.721	1	8
394.892	1	4
395.062	1	3
395.233	1	-12
395.404	1	12
395.575	1	8
395.746	1	-4
395.916	1	1
396.087	1	2
396.258	1	-1
396.429	1	-1
396.599	1	7
396.770	1	4
396.941	1	4
397.112	1	-5
397.283	1	5
397.453	1	-1
397.624	1	-9
397.795	1	10
397.966	1	5
398.136	1	0
398.307	1	-2
398.478	1	0
398.649	1	1
398.819	1	-2
398.990	1	-2
399.161	1	-2
399.332	1	4
399.503	1	10
399.673	1	13
399.844	1	2
400.015	1	-12
400.186	1	-9
400.356	1	6
400.527	1	1
400.698	1	-1
400.869	1	-12
401.039	1	3
401.210	1	-4
401.381	1	0
401.552	1	-9
401.722	1	1
401.893	1	-2
402.064	1	5
402.235	1	-1
402.405	1	-8
402.576	1	-2
402.747	1	3
402.918	1	-1
403.088	1	0
403.259	1	4
403.430	1	-2
403.601	1	-8
403.771	1	7
403.942	1	-1
404.113	1	-3
404.284	1	2
404.454	1	-1
404.625	1	4
404.796	1	-9
404.967	1	6
405.137	1	-4
405.308	1	-4
405.479	1	3
405.649	1	7
405.820	1	10
405.991	1	1
406.162	1	8
406.332	1	-6
406.503	1	-11
406.674	1	-1
406.845	1	11
407.015	1	-3
407.186	1	-12
407.357	1	2
407.527	1	-1
407.698	1	3
407.869	1	-1
408.040	1	6
408.210	1	5
408.381	1	2
408.552	1	6
408.722	1	-8
408.893	1	0
409.064	1	-3
409.235	1	-4
409.405	1	2
409.576	1	-3
409.747	1	-1
409.917	1	8
410.088	1	6
410.259	1	-4
410.430	1	-5
410.600	1	7
410.771	1	-5
410.942	1	11
411.112	1	5
411.283	1	1
411.454	1	20
411.625	1	7
411.795	1	-10
411.966	1	-5
412.137	1	-8
412.307	1	9
412.478	1	-8
412.649	1	6
412.819	1	9
412.990	1	0
413.161	1	2
413.332	1	9
413.502	1	-9
413.673	1	2
413.844	1	-2
414.014	1	0
414.185	1	-3
414.356	1	4
414.526	1	-5
414.697	1	-4
414.868	1	-4
415.038	1	-1
415.209	1	6
415.380	1	-3
415.550	1	3
415.721	1	0
415.892	1	2
416.063	1	-4
416.233	1	-2
416.404	1	-7
416.575	1	3
416.745	1	4
416.916	1	-2
417.087	1	2
417.257	1	-6
417.428	1	-6
417.599	1	-3
417.769	1	-4
417.940	1	-6
418.111	1	0
418.281	1	9
418.452	1	0
418.623	1	1
418.793	1	17
418.964	1	-7
419.135	1	-1
419.305	1	4
419.476	1	10
419.647	1	-6
419.817	1	4
419.988	1	9
420.159	1	4
420.329	1	5
420.500	1	11
420.671	1	9
420.841	1	-4
421.012	1	0
421.183	1	5
421.353	1	-4
421.524	1	3
421.695	1	3
421.865	1	3
422.036	1	0
422.206	1	-5
422.377	1	1
422.548	1	-2
422.718	1	-1
422.889	1	3
423.060	1	-1
423.230	1	0
423.401	1	2
423.572	1	11
423.742	1	8
423.913	1	4
424.084	1	-1
424.254	1	-7
424.425	1	-1
424.595	1	9
424.766	1	-4
424.937	1	7
425.107	1	14
425.278	1	-2
425.449	1	3
425.619	1	5
425.790	1	6
425.961	1	-6
426.131	1	-2
426.302	1	-7
426.472	1	-8
426.643	1	1
426.814	1	0
426.984	1	-3
427.155	1	9
427.326	1	0
427.496	1	-5
427.667	1	-5
427.837	1	-4
428.008	1	6
428.179	1	4
428.349	1	0
428.520	1	8
428.691	1	13
428.861	1	6
429.032	1	0
429.202	1	-4
429.373	1	6
429.544	1	-4
429.714	1	-5
429.885	1	6
430.055	1	0
430.226	1	-8
430.397	1	9
430.567	1	-4
430.738	1	-13
430.909	1	4
431.079	1	11
431.250	1	4
431.420	1	-1
431.591	1	4
431.762	1	4
431.932	1	3
432.103	1	-10
432.273	1	4
432.444	1	1
432.615	1	2
432.785	1	-8
432.956	1	-3
433.126	1	6
433.297	1	0
433.468	1	0
433.638	1	8
433.809	1	10
433.979	1	3
434.150	1	8
434.320	1	1
434.491	1	-2
434.662	1	4
434.832	1	4
435.003	1	0
435.173	1	-6
435.344	1	-5
435.515	1	-7
435.685	1	-6
435.856	1	11
436.026	1	1
436.197	1	5
436.368	1	-1
436.538	1	2
436.709	1	-12
436.879	1	2
437.050	1	2
437.220	1	7
437.391	1	0
437.562	1	10
437.732	1	-1
437.903	1	-8
438.073	1	-3
438.244	1	0
438.414	1	-6
438.585	1	-10
438.756	1	-1
438.926	1	-8
439.097	1	4
439.267	1	-7
439.438	1	0
439.608	1	5
439.779	1	-2
439.949	1	4
440.120	1	-3
440.291	1	-10
440.461	1	-10
440.632	1	-1
440.802	1	-5
440.973	1	3
441.143	1	-1
441.314	1	-3
441.485	1	13
441.655	1	-13
441.826	1	-1
441.996	1	-6
442.167	1	-5
442.337	1	-3
442.508	1	-2
442.678	1	3
442.849	1	11
443.019	1	2
443.190	1	-2
443.361	1	-3
443.531	1	0
443.702	1	9
443.872	1	-5
444.043	1	5
444.213	1	6
444.384	1	8
444.554	1	2
444.725	1	10
444.895	1	5
445.066	1	2
445.237	1	-1
445.407	1	-7
445.578	1	3
445.748	1	-1
445.919	1	-11
446.089	1	26
446.260	1	-8
446.430	1	9
446.601	1	6
446.771	1	4
446.942	1	-2
447.112	1	4
447.283	1	13
447.453	1	-4
447.624	1	11
447.794	1	8
447.965	1	3
448.135	1	3
448.306	1	4
448.477	1	7
448.647	1	-6
448.818	1	7
448.988	1	-2
449.159	1	6
449.329	1	6
449.500	1	-6
449.670	1	-8
449.841	1	-5
450.011	1	0
450.182	1	-3
450.352	1	2
450.523	1	-3
450.693	1	-11
450.864	1	2
451.034	1	9
451.205	1	4
451.375	1	-12
451.546	1	-2
451.716	1	-4
451.887	1	1
452.057	1	2
452.228	1	-3
452.398	1	8
452.569	1	7
452.739	1	2
452.910	1	-3
453.080	1	6
453.251	1	-3
453.421	1	8
453.592	1	5
453.762	1	-12
453.933	1	-4
454.103	1	-8
454.274	1	2
454.444	1	0
454.615	1	-2
454.785	1	3
454.956	1	3
455.126	1	3
455.297	1	0
455.467	1	2
455.638	1	-12
455.808	1	-6
455.979	1	-16
456.149	1	5
456.320	1	2
456.490	1	-3
456.661	1	-5
456.831	1	-6
457.001	1	7
457.172	1	-4
457.342	1	-4
457.513	1	2
457.683	1	7
457.854	1	1
458.024	1	-5
458.195	1	-2
458.365	1	10
458.536	1	6
458.706	1	7
458.877	1	0
459.047	1	3
459.218	1	-4
459.388	1	4
459.559	1	0
459.729	1	-7
459.899	1	0
460.070	1	-1
460.240	1	-4
460.411	1	-2
460.581	1	-1
460.752	1	3
460.922	1	-3
461.093	1	-1
461.263	1	-1
461.434	1	7
461.604	1	0
461.775	1	-7
461.945	1	-3
462.115	1	8
462.286	1	-1
462.456	1	0
462.627	1	-2
462.797	1	1
462.968	1	-3
463.138	1	2
463.309	1	0
463.479	1	-7
463.649	1	7
463.820	1	4
463.990	1	2
464.161	1	-9
464.331	1	-3
464.502	1	-3
464.672	1	1
464.843	1	-1
465.013	1	4
465.183	1	-4
465.354	1	-3
465.524	1	12
465.695	1	14
465.865	1	-2
466.036	1	-10
466.206	1	4
466.376	1	-7
466.547	1	8
466.717	1	6
466.888	1	-5
467.058	1	-2
467.229	1	11
467.399	1	4
467.569	1	11
467.740	1	-6
467.910	1	2
468.081	1	2
468.251	1	1
468.422	1	4
468.592	1	18
468.762	1	-4
468.933	1	1
469.103	1	0
469.274	1	10
469.444	1	0
469.614	1	7
469.785	1	-12
469.955	1	-8
470.126	1	-7
470.296	1	-1
470.467	1	8
470.637	1	2
470.807	1	12
470.978	1	-9
471.148	1	6
471.319	1	-2
471.489	1	5
471.659	1	-3
471.830	1	-6
472.000	1	-4
472.171	1	3
472.341	1	-1
472.511	1	-3
472.682	1	0
472.852	1	6
473.023	1	-2
473.193	1	8
473.363	1	4
473.534	1	5
473.704	1	-4
473.875	1	0
474.045	1	8
474.215	1	4
474.386	1	-9
474.556	1	3
474.727	1	0
474.897	1	-9
475.067	1	1
475.238	1	2
475.408	1	2
475.578	1	-6
475.749	1	2
475.919	1	0
476.090	1	-3
476.260	1	-1
476.430	1	7
476.601	1	-13
476.771	1	5
476.942	1	-5
477.112	1	4
477.282	1	-4
477.453	1	-3
477.623	1	2
477.793	1	-3
477.964	1	0
478.134	1	3
478.305	1	6
478.475	1	-3
478.645	1	0
478.816	1	-4
478.986	1	7
479.156	1	-10
479.327	1	4
479.497	1	4
479.667	1	4
479.838	1	-2
480.008	1	4
480.179	1	3
480.349	1	2
480.519	1	-2
480.690	1	-5
480.860	1	8
481.030	1	13
481.201	1	0
481.371	1	5
481.541	1	-7
481.712	1	2
481.882	1	6
482.053	1	6
482.223	1	11
482.393	1	5
482.564	1	-11
482.734	1	11
482.904	1	5
483.075	1	5
483.245	1	-7
483.415	1	7
483.586	1	10
483.756	1	2
483.926	1	0
484.097	1	7
484.267	1	2
484.437	1	2
484.608	1	-6
484.778	1	-1
484.948	1	8
485.119	1	-7
485.289	1	-6
485.459	1	6
485.630	1	-8
485.800	1	-1
485.970	1	0
486.141	1	-4
486.311	1	-10
486.481	1	0
486.652	1	4
486.822	1	2
486.992	1	3
487.163	1	2
487.333	1	-4
487.503	1	-1
487.674	1	4
487.844	1	-9
488.014	1	1
488.185	1	-7
488.355	1	2
488.525	1	0
488.696	1	6
488.866	1	0
489.036	1	0
489.207	1	0
489.377	1	-4
489.547	1	-13
489.718	1	4
489.888	1	7
490.058	1	2
490.228	1	-3
490.399	1	11
490.569	1	13
490.739	1	6
490.910	1	-9
491.080	1	-2
491.250	1	-1
491.421	1	-4
491.591	1	-4
491.761	1	8
491.932	1	1
492.102	1	-4
492.272	1	1
492.442	1	-3
492.613	1	2
492.783	1	-9
492.953	1	10
493.124	1	-11
493.294	1	6
493.464	1	2
493.635	1	12
493.805	1	8
493.975	1	10
494.145	1	5
494.316	1	2
494.486	1	-2
494.656	1	-8
494.827	1	1
494.997	1	3
495.167	1	15
495.337	1	5
495.508	1	5
495.678	1	3
495.848	1	8
496.019	1	10
496.189	1	5
496.359	1	-2
496.529	1	-3
496.700	1	3
496.870	1	2
497.040	1	-1
497.211	1	-1
497.381	1	-4
497.551	1	5
497.721	1	3
497.892	1	1
498.062	1	4
498.232	1	5
498.403	1	5
498.573	1	7
498.743	1	-14
498.913	1	0
499.084	1	3
499.254	1	-5
499.424	1	3
499.594	1	0
499.765	1	10
499.935	1	2
500.105	1	2
500.275	1	0
500.446	1	1
500.616	1	6
500.786	1	-1
500.956	1	16
501.127	1	7
501.297	1	-13
501.467	1	4
501.638	1	-1
501.808	1	2
501.978	1	8
502.148	1	-7
502.319	1	7
502.489	1	-1
502.659	1	5
502.829	1	-1
503.000	1	0
503.170	1	-1
503.340	1	3
503.510	1	0
503.681	1	-1
503.851	1	4
504.021	1	5
504.191	1	8
504.362	1	1
504.532	1	-1
504.702	1	-2
504.872	1	-8
505.042	1	1
505.213	1	-6
505.383	1	4
505.553	1	-3
505.723	1	7
505.894	1	-6
506.064	1	2
506.234	1	0
506.404	1	17
506.575	1	-8
506.745	1	-4
506.915	1	8
507.085	1	4
507.256	1	11
507.426	1	14
507.596	1	-2
507.766	1	10
507.936	1	-2
508.107	1	6
508.277	1	0
508.447	1	-4
508.617	1	-5
508.788	1	3
508.958	1	3
509.128	1	1
509.298	1	2
509.468	1	12
509.639	1	0
509.809	1	-7
509.979	1	3
510.149	1	1
510.319	1	12
510.490	1	4
510.660	1	-2
510.830	1	-7
511.000	1	-6
511.171	1	-2
511.341	1	-1
511.511	1	-2
511.681	1	11
511.851	1	2
512.022	1	0
512.192	1	10
512.362	1	8
512.532	1	2
512.702	1	-4
512.873	1	1
513.043	1	12
513.213	1	1
513.383	1	-5
513.553	1	6
513.724	1	9
513.894	1	4
514.064	1	2
514.234	1	-9
514.404	1	0
514.575	1	6
514.745	1	-2
514.915	1	-3
515.085	1	-7
515.255	1	5
515.425	1	12
515.596	1	7
515.766	1	2
515.936	1	-2
516.106	1	0
516.276	1	1
516.447	1	13
516.617	1	5
516.787	1	7
516.957	1	-8
517.127	1	0
517.297	1	3
517.468	1	14
517.638	1	3
517.808	1	9
517.978	1	0
518.148	1	12
518.319	1	-1
518.489	1	3
518.659	1	5
518.829	1	2
518.999	1	2
519.169	1	2
519.340	1	-2
519.510	1	-7
519.680	1	-9
519.850	1	-3
520.020	1	5
520.190	1	13
520.361	1	5
520.531	1	-7
520.701	1	7
520.871	1	0
521.041	1	1
521.211	1	-13
521.382	1	4
521.552	1	-7
521.722	1	16
521.892	1	6
522.062	1	3
522.232	1	3
522.402	1	4
522.573	1	-3
522.743	1	-1
522.913	1	2
523.083	1	0
523.253	1	-8
523.423	1	17
523.593	1	2
523.764	1	6
523.934	1	4
524.104	1	-1
524.274	1	-9
524.444	1	-1
524.614	1	10
524.784	1	12
524.955	1	-7
525.125	1	3
525.295	1	5
525.465	1	12
525.635	1	-3
525.805	1	1
525.975	1	7
526.146	1	-1
526.316	1	7
526.486	1	2
526.656	1	9
526.826	1	5
526.996	1	-7
527.166	1	11
527.337	1	3
527.507	1	2
527.677	1	4
527.847	1	0
528.017	1	6
528.187	1	0
528.357	1	16
528.527	1	2
528.698	1	6
528.868	1	4
529.038	1	-4
529.208	1	0
529.378	1	4
529.548	1	4
529.718	1	3
529.888	1	4
530.058	1	4
530.229	1	-3
530.399	1	9
530.569	1	-3
530.739	1	-6
530.909	1	6
531.079	1	10
531.249	1	0
531.419	1	8
531.589	1	7
531.760	1	2
531.930	1	-10
532.100	1	12
532.270	1	7
532.440	1	-7
532.610	1	-6
532.780	1	-5
532.950	1	-7
533.120	1	0
533.290	1	-5
533.461	1	8
533.631	1	7
533.801	1	5
533.971	1	1
534.141	1	13
534.311	1	-1
534.481	1	-2
534.651	1	10
534.821	1	-2
534.991	1	8
535.162	1	-6
535.332	1	7
535.502	1	7
535.672	1	6
535.842	1	-2
536.012	1	2
536.182	1	6
536.352	1	5
536.522	1	1
536.692	1	-5
536.862	1	4
537.032	1	-7
537.203	1	-1
537.373	1	3
537.543	1	3
537.713	1	9
537.883	1	-10
538.053	1	5
538.223	1	-1
538.393	1	7
538.563	1	10
538.733	1	-9
538.903	1	0
539.073	1	4
539.243	1	3
539.413	1	-1
539.584	1	20
539.754	1	-2
539.924	1	4
540.094	1	4
540.264	1	6
540.434	1	3
540.604	1	0
540.774	1	-3
540.944	1	-6
541.114	1	-10
541.284	1	-4
541.454	1	3
541.624	1	-9
541.794	1	3
541.964	1	2
542.134	1	-2
542.305	1	1
542.475	1	7
542.645	1	7
542.815	1	-2
542.985	1	7
543.155	1	3
543.325	1	-10
543.495	1	-7
543.665	1	8
543.835	1	2
544.005	1	3
544.175	1	12
544.345	1	5
544.515	1	-3
544.685	1	9
544.855	1	-5
545.025	1	10
545.195	1	2
545.365	1	-6
545.535	1	5
545.705	1	0
545.875	1	-3
546.045	1	-2
546.216	1	6
546.386	1	5
546.556	1	2
546.726	1	10
546.896	1	11
547.066	1	2
547.236	1	5
547.406	1	7
547.576	1	0
547.746	1	-11
547.916	1	10
548.086	1	2
548.256	1	-1
548.426	1	11
548.596	1	5
548.766	1	-14
548.936	1	-7
549.106	1	-4
549.276	1	5
549.446	1	-1
549.616	1	-1
549.786	1	9
549.956	1	2
550.126	1	6
550.296	1	7
550.466	1	11
550.636	1	7
550.806	1	-1
550.976	1	12
551.146	1	0
551.316	1	-2
551.486	1	-3
551.656	1	-14
551.826	1	-2
551.996	1	2
552.166	1	-2
552.336	1	12
552.506	1	-1
552.676	1	3
552.846	1	6
553.016	1	-1
553.186	1	1
553.356	1	3
553.526	1	4
553.696	1	0
553.866	1	14
554.036	1	-1
554.206	1	6
554.376	1	-6
554.546	1	9
554.716	1	6
554.886	1	-3
555.056	1	0
555.226	1	-11
555.396	1	5
555.566	1	7
555.736	1	2
555.906	1	3
556.076	1	3
556.246	1	-7
556.416	1	4
556.586	1	-7
556.756	1	4
556.926	1	12
557.096	1	0
557.266	1	-2
557.436	1	0
557.606	1	7
557.776	1	-3
557.946	1	-11
558.116	1	-1
558.286	1	-10
558.456	1	-4
558.626	1	10
558.796	1	10
558.966	1	9
559.136	1	5
559.306	1	7
559.476	1	4
559.646	1	14
559.816	1	-1
559.986	1	-4
560.155	1	-15
560.325	1	7
560.495	1	10
560.665	1	-6
560.835	1	0
561.005	1	0
561.175	1	4
561.345	1	8
561.515	1	6
561.685	1	4
561.855	1	0
562.025	1	5
562.195	1	6
562.365	1	9
562.535	1	6
562.705	1	-4
562.875	1	0
563.045	1	6
563.215	1	1
563.385	1	-1
563.555	1	4
563.725	1	1
563.895	1	5
564.064	1	1
564.234	1	8
564.404	1	-2
564.574	1	-2
564.744	1	-6
564.914	1	1
565.084	1	-8
565.254	1	1
565.424	1	11
565.594	1	-5
565.764	1	3
565.934	1	5
566.104	1	10
566.274	1	9
566.444	1	2
566.614	1	6
566.783	1	0
566.953	1	1
567.123	1	1
567.293	1	-5
567.463	1	1
567.633	1	8
567.803	1	0
567.973	1	11
568.143	1	2
568.313	1	5
568.483	1	7
568.653	1	14
568.823	1	-5
568.993	1	6
569.162	1	8
569.332	1	9
569.502	1	6
569.672	1	13
569.842	1	6
570.012	1	5
570.182	1	7
570.352	1	-3
570.522	1	-13
570.692	1	2
570.862	1	-6
571.031	1	-2
571.201	1	3
571.371	1	0
571.541	1	8
571.711	1	4
571.881	1	0
572.051	1	-4
572.221	1	-10
572.391	1	7
572.561	1	-7
572.731	1	-7
572.900	1	4
573.070	1	-1
573.240	1	3
573.410	1	8
573.580	1	2
573.750	1	12
573.920	1	0
574.090	1	5
574.260	1	-6
574.430	1	-8
574.599	1	6
574.769	1	7
574.939	1	3
575.109	1	-4
575.279	1	4
575.449	1	1
575.619	1	6
575.789	1	11
575.959	1	-2
576.128	1	3
576.298	1	-2
576.468	1	1
576.638	1	9
576.808	1	10
576.978	1	-10
577.148	1	-3
577.318	1	1
577.487	1	7
577.657	1	2
577.827	1	3
577.997	1	-7
578.167	1	4
578.337	1	12
578.507	1	7
578.677	1	1
578.846	1	9
579.016	1	12
579.186	1	9
579.356	1	-5
579.526	1	0
579.696	1	8
579.866	1	-5
580.036	1	4
580.205	1	11
580.375	1	5
580.545	1	0
580.715	1	-5
580.885	1	-8
581.055	1	4
581.225	1	-3
581.394	1	8
581.564	1	6
581.734	1	1
581.904	1	-2
582.074	1	-7
582.244	1	12
582.414	1	-3
582.583	1	-3
582.753	1	9
582.923	1	5
583.093	1	7
583.263	1	1
583.433	1	-1
583.603	1	0
583.772	1	-2
583.942	1	4
584.112	1	-7
584.282	1	9
584.452	1	4
584.622	1	8
584.791	1	2
584.961	1	-5
585.131	1	3
585.301	1	-1
585.471	1	13
585.641	1	0
585.811	1	5
585.980	1	8
586.150	1	-8
586.320	1	3
586.490	1	7
586.660	1	3
586.830	1	-1
586.999	1	4
587.169	1	-1
587.339	1	3
587.509	1	-4
587.679	1	5
587.849	1	-8
588.018	1	14
588.188	1	-1
588.358	1	9
588.528	1	4
588.698	1	-3
588.867	1	-6
589.037	1	4
589.207	1	5
589.377	1	1
589.547	1	2
589.717	1	-2
589.886	1	10
590.056	1	6
590.226	1	0
590.396	1	9
590.566	1	-1
590.735	1	16
590.905	1	-10
591.075	1	-1
591.245	1	3
591.415	1	1
591.585	1	-1
591.754	1	11
591.924	1	6
592.094	1	5
592.264	1	-2
592.434	1	-8
592.603	1	8
592.773	1	-11
592.943	1	5
593.113	1	4
593.283	1	9
593.452	1	5
593.622	1	4
593.792	1	10
593.962	1	-4
594.132	1	5
594.301	1	2
594.471	1	9
594.641	1	-3
594.811	1	-1
594.981	1	2
595.150	1	3
595.320	1	12
595.490	1	-3
595.660	1	7
595.829	1	-6
595.999	1	2
596.169	1	13
596.339	1	-3
596.509	1	1
596.678	1	2
596.848	1	1
597.018	1	-1
597.188	1	-1
597.358	1	-4
597.527	1	7
597.697	1	4
597.867	1	4
598.037	1	10
598.206	1	-5
598.376	1	-3
598.546	1	-7
598.716	1	-2
598.885	1	8
599.055	1	-1
599.225	1	11
599.395	1	1
599.565	1	2
599.734	1	0
599.904	1	-1
600.074	1	4
600.244	1	2
600.413	1	3
600.583	1	3
600.753	1	10
600.923	1	7
601.092	1	7
601.262	1	2
601.432	1	4
601.602	1	2
601.771	1	0
601.941	1	2
602.111	1	-5
602.281	1	-1
602.451	1	-3
602.620	1	-6
602.790	1	7
602.960	1	-1
603.130	1	2
603.299	1	9
603.469	1	5
603.639	1	-2
603.809	1	-4
603.978	1	3
604.148	1	7
604.318	1	9
604.487	1	-6
604.657	1	10
604.827	1	-2
604.997	1	5
605.166	1	-1
605.336	1	1
605.506	1	-5
605.676	1	2
605.845	1	0
606.015	1	5
606.185	1	1
606.355	1	0
606.524	1	7
606.694	1	-5
606.864	1	-4
607.034	1	1
607.203	1	3
607.373	1	6
607.543	1	-3
607.712	1	-3
607.882	1	7
608.052	1	3
608.222	1	-3
608.391	1	8
608.561	1	-3
608.731	1	2
608.901	1	-1
609.070	1	4
609.240	1	9
609.410	1	3
609.579	1	-9
609.749	1	-5
609.919	1	2
610.089	1	-10
610.258	1	-1
610.428	1	-6
610.598	1	0
610.767	1	-6
610.937	1	2
611.107	1	4
611.277	1	5
611.446	1	2
611.616	1	4
611.786	1	6
611.955	1	-4
612.125	1	-4
612.295	1	-5
612.465	1	1
612.634	1	9
612.804	1	0
612.974	1	3
613.143	1	-10
613.313	1	5
613.483	1	1
613.652	1	-3
613.822	1	0
613.992	1	10
614.162	1	11
614.331	1	5
614.501	1	3
614.671	1	0
614.840	1	6
615.010	1	1
615.180	1	8
615.349	1	-8
615.519	1	9
615.689	1	4
615.858	1	6
616.028	1	5
616.198	1	1
616.368	1	9
616.537	1	-9
616.707	1	8
616.877	1	11
617.046	1	0
617.216	1	15
617.386	1	3
617.555	1	13
617.725	1	-10
617.895	1	-3
618.064	1	-2
618.234	1	-2
618.404	1	-7
618.573	1	4
618.743	1	14
618.913	1	-3
619.082	1	2
619.252	1	0
619.422	1	2
619.591	1	-7
619.761	1	-1
619.931	1	-5
620.100	1	6
620.270	1	-10
620.440	1	8
620.609	1	-8
620.779	1	-6
620.949	1	3
621.118	1	4
621.288	1	8
621.458	1	11
621.627	1	3
621.797	1	-5
621.967	1	-5
622.136	1	11
622.306	1	-4
622.476	1	0
622.645	1	-6
622.815	1	-3
622.985	1	-4
623.154	1	-3
623.324	1	-4
623.494	1	7
623.663	1	11
623.833	1	0
624.002	1	2
624.172	1	6
624.342	1	1
624.511	1	1
624.681	1	7
624.851	1	-4
625.020	1	10
625.190	1	-5
625.360	1	12
625.529	1	0
625.699	1	7
625.869	1	-5
626.038	1	1
626.208	1	8
626.377	1	0
626.547	1	4
626.717	1	3
626.886	1	-5
627.056	1	3
627.226	1	-5
627.395	1	2
627.565	1	9
627.735	1	3
627.904	1	7
628.074	1	5
628.243	1	10
628.413	1	13
628.583	1	3
628.752	1	-4
628.922	1	0
629.091	1	7
629.261	1	2
629.431	1	-5
629.600	1	5
629.770	1	9
629.940	1	-7
630.109	1	-8
630.279	1	2
630.448	1	3
630.618	1	3
630.788	1	-7
630.957	1	10
631.127	1	-1
631.297	1	3
631.466	1	6
631.636	1	-2
631.805	1	-1
631.975	1	4
632.145	1	-12
632.314	1	-4
632.484	1	1
632.653	1	-7
632.823	1	-5
632.993	1	8
633.162	1	-5
633.332	1	-3
633.501	1	-1
633.671	1	2
633.841	1	-8
634.010	1	7
634.180	1	-10
634.349	1	9
634.519	1	1
634.689	1	13
634.858	1	-2
635.028	1	3
635.197	1	13
635.367	1	8
635.537	1	-2
635.706	1	6
635.876	1	-7
636.045	1	-14
636.215	1	-8
636.384	1	-11
636.554	1	5
636.724	1	-3
636.893	1	-4
637.063	1	2
637.232	1	16
637.402	1	4
637.572	1	-1
637.741	1	-4
637.911	1	-8
638.080	1	-3
638.250	1	-2
638.419	1	-2
638.589	1	-1
638.759	1	8
638.928	1	5
639.098	1	3
639.267	1	-5
639.437	1	-2
639.606	1	-5
639.776	1	5
639.946	1	3
640.115	1	0
640.285	1	2
640.454	1	7
640.624	1	12
640.793	1	-1
640.963	1	-1
641.132	1	7
641.302	1	2
641.472	1	1
641.641	1	-18
641.811	1	2
641.980	1	-9
642.150	1	1
642.319	1	1
642.489	1	9
642.659	1	-5
642.828	1	-4
642.998	1	-1
643.167	1	-7
643.337	1	-14
643.506	1	6
643.676	1	3
643.845	1	-1
644.015	1	4
644.184	1	-5
644.354	1	1
644.524	1	-8
644.693	1	1
644.863	1	7
645.032	1	-5
645.202	1	6
645.371	1	-3
645.541	1	-6
645.710	1	7
645.880	1	2
646.049	1	-8
646.219	1	-6
646.388	1	3
646.558	1	-2
646.728	1	6
646.897	1	10
647.067	1	8
647.236	1	-5
647.406	1	6
647.575	1	6
647.745	1	5
647.914	1	-1
648.084	1	4
648.253	1	0
648.423	1	-1
648.592	1	-5
648.762	1	-4
648.931	1	0
649.101	1	-3
649.270	1	4
649.440	1	2
649.610	1	-5
649.779	1	2
649.949	1	-8
650.118	1	-3
650.288	1	3
650.457	1	-10
650.627	1	7
650.796	1	-8
650.966	1	-3
651.135	1	-4
651.305	1	0
651.474	1	2
651.644	1	-5
651.813	1	3
651.983	1	7
652.152	1	5
652.322	1	-1
652.491	1	-4
652.661	1	2
652.830	1	8
653.000	1	8
653.169	1	-5
653.339	1	11
653.508	1	6
653.678	1	-9
653.847	1	0
654.017	1	-6
654.186	1	13
654.356	1	2
654.525	1	13
654.695	1	-1
654.864	1	-7
655.034	1	-10
655.203	1	-5
655.373	1	-1
655.542	1	-9
655.712	1	-3
655.881	1	17
656.051	1	-7
656.220	1	0
656.390	1	15
656.559	1	-1
656.729	1	9
656.898	1	1
657.068	1	-3
657.237	1	-1
657.406	1	-3
657.576	1	4
657.745	1	6
657.915	1	0
658.084	1	4
658.254	1	8
658.423	1	2
658.593	1	5
658.762	1	11
658.932	1	-6
659.101	1	-3
659.271	1	4
659.440	1	-2
659.610	1	11
659.779	1	4
659.949	1	6
660.118	1	4
660.288	1	-3
660.457	1	8
660.626	1	5
660.796	1	-8
660.965	1	-4
661.135	1	0
661.304	1	7
661.474	1	-4
661.643	1	0
661.813	1	15
661.982	1	1
662.152	1	3
662.321	1	-1
662.491	1	9
662.660	1	-4
662.829	1	9
662.999	1	13
663.168	1	7
663.338	1	4
663.507	1	1
663.677	1	-12
663.846	1	-3
664.016	1	-8
664.185	1	-1
664.354	1	3
664.524	1	-11
664.693	1	3
664.863	1	1
665.032	1	10
665.202	1	-2
665.371	1	-4
665.541	1	-6
665.710	1	-2
665.879	1	1
666.049	1	1
666.218	1	-5
666.388	1	3
666.557	1	4
666.727	1	0
666.896	1	-3
667.065	1	7
667.235	1	-6
667.404	1	-8
667.574	1	3
667.743	1	2
667.913	1	-5
668.082	1	1
668.251	1	9
668.421	1	-2
668.590	1	-2
668.760	1	6
668.929	1	-2
669.099	1	9
669.268	1	6
669.437	1	-2
669.607	1	-3
669.776	1	1
669.946	1	0
670.115	1	0
670.285	1	-5
670.454	1	7
670.623	1	-6
670.793	1	-1
670.962	1	1
671.132	1	-3
671.301	1	-8
671.470	1	-4
671.640	1	-4
671.809	1	-1
671.979	1	1
672.148	1	-1
672.317	1	-1
672.487	1	8
672.656	1	10
672.826	1	3
672.995	1	-8
673.164	1	13
673.334	1	-7
673.503	1	-7
673.673	1	-1
673.842	1	-7
674.011	1	-7
674.181	1	6
674.350	1	3
674.520	1	-2
674.689	1	-6
674.858	1	0
675.028	1	3
675.197	1	0
675.367	1	-6
675.536	1	6
675.705	1	2
675.875	1	-7
676.044	1	4
676.214	1	0
676.383	1	2
676.552	1	6
676.722	1	1
676.891	1	-2
677.060	1	-4
677.230	1	8
677.399	1	11
677.569	1	8
677.738	1	5
677.907	1	9
678.077	1	12
678.246	1	-10
678.416	1	-10
678.585	1	-1
678.754	1	-2
678.924	1	1
679.093	1	13
679.262	1	20
679.432	1	17
679.601	1	8
679.771	1	-3
679.940	1	-6
680.109	1	-9
680.279	1	3
680.448	1	-5
680.617	1	-5
680.787	1	-4
680.956	1	1
681.125	1	10
681.295	1	5
681.464	1	2
681.634	1	-11
681.803	1	1
681.972	1	-7
682.142	1	-4
682.311	1	-3
682.480	1	-1
682.650	1	3
682.819	1	4
682.988	1	4
683.158	1	6
683.327	1	5
683.496	1	-11
683.666	1	2
683.835	1	-7
684.004	1	8
684.174	1	-1
684.343	1	2
684.512	1	0
684.682	1	2
684.851	1	-1
685.021	1	-6
685.190	1	10
685.359	1	-3
685.529	1	9
685.698	1	1
685.867	1	1
686.037	1	1
686.206	1	8
686.375	1	-3
686.545	1	-3
686.714	1	-3
686.883	1	-4
687.053	1	-10
687.222	1	13
687.391	1	6
687.561	1	-4
687.730	1	-1
687.899	1	1
688.069	1	-3
688.238	1	-5
688.407	1	-1
688.577	1	-1
688.746	1	3
