340.368	1	2
340.539	1	2
340.710	1	3
340.881	1	-5
341.052	1	6
341.223	1	-8
341.394	1	-5
341.565	1	12
341.737	1	6
341.908	1	-1
342.079	1	5
342.250	1	4
342.421	1	-11
342.592	1	-6
342.763	1	1
342.934	1	9
343.105	1	-5
343.276	1	1
343.447	1	8
343.618	1	-2
343.789	1	14
343.960	1	7
344.131	1	9
344.302	1	10
344.473	1	6
344.644	1	12
344.815	1	2
344.986	1	-3
345.157	1	-2
345.328	1	1
345.499	1	2
345.670	1	5
345.841	1	3
346.012	1	6
346.183	1	-6
346.354	1	-2
346.526	1	10
346.697	1	1
346.868	1	1
347.039	1	-9
347.210	1	1
347.381	1	-3
347.552	1	8
347.723	1	1
347.894	1	-10
348.065	1	-1
348.236	1	-9
348.407	1	-3
348.578	1	2
348.749	1	-1
348.920	1	-5
349.091	1	10
349.262	1	0
349.433	1	2
349.604	1	6
349.775	1	2
349.946	1	-7
350.117	1	3
350.288	1	6
350.459	1	-10
350.630	1	4
350.801	1	5
350.972	1	5
351.143	1	-9
351.314	1	-1
351.485	1	-1
351.656	1	6
351.827	1	-3
351.998	1	7
352.169	1	-1
352.340	1	13
352.511	1	4
352.682	1	3
352.853	1	2
353.024	1	-3
353.195	1	-1
353.366	1	-3
353.537	1	2
353.708	1	-2
353.879	1	2
354.050	1	2
354.221	1	-4
354.392	1	-10
354.563	1	8
354.734	1	-14
354.905	1	3
355.076	1	-1
355.247	1	5
355.418	1	9
355.589	1	4
355.760	1	1
355.931	1	-2
356.102	1	4
356.273	1	-3
356.444	1	2
356.615	1	0
356.785	1	5
356.956	1	16
357.127	1	-1
357.298	1	3
357.469	1	1
357.640	1	2
357.811	1	1
357.982	1	0
358.153	1	-8
358.324	1	13
358.495	1	3
358.666	1	-2
358.837	1	-11
359.008	1	2
359.179	1	-5
359.350	1	0
359.521	1	3
359.692	1	-1
359.863	1	-6
360.034	1	-4
360.205	1	-5
360.376	1	5
360.547	1	-1
360.718	1	0
360.889	1	2
361.060	1	-15
361.231	1	1
361.401	1	1
361.572	1	8
361.743	1	-1
361.914	1	0
362.085	1	5
362.256	1	-4
362.427	1	5
362.598	1	-3
362.769	1	9
362.940	1	-10
363.111	1	-1
363.282	1	5
363.453	1	3
363.624	1	1
363.795	1	-1
363.966	1	1
364.137	1	-7
364.308	1	4
364.478	1	3
364.649	1	14
364.820	1	1
364.991	1	3
365.162	1	18
365.333	1	3
365.504	1	-2
365.675	1	-5
365.846	1	1
366.017	1	-3
366.188	1	4
366.359	1	-15
366.530	1	10
366.701	1	-4
366.871	1	-3
367.042	1	-7
367.213	1	7
367.384	1	3
367.555	1	3
367.726	1	2
367.897	1	11
368.068	1	1
368.239	1	-1
368.410	1	1
368.581	1	-9
368.752	1	-7
368.923	1	7
369.093	1	-7
369.264	1	-9
369.435	1	-1
369.606	1	5
369.777	1	-7
369.948	1	-2
370.119	1	0
370.290	1	-7
370.461	1	11
370.632	1	-1
370.803	1	3
370.973	1	1
371.144	1	4
371.315	1	-5
371.486	1	-6
371.657	1	2
371.828	1	-3
371.999	1	-10
372.170	1	-1
372.341	1	5
372.512	1	0
372.682	1	0
372.853	1	-6
373.024	1	3
373.195	1	-5
373.366	1	-5
373.537	1	9
373.708	1	11
373.879	1	6
374.050	1	12
374.220	1	-5
374.391	1	-10
374.562	1	7
374.733	1	1
374.904	1	-8
375.075	1	-4
375.246	1	10
375.417	1	-3
375.588	1	-7
375.758	1	11
375.929	1	-5
376.100	1	-1
376.271	1	1
376.442	1	1
376.613	1	11
376.784	1	8
376.955	1	-8
377.125	1	-6
377.296	1	-5
377.467	1	-5
377.638	1	7
377.809	1	-7
377.980	1	-1
378.151	1	-6
378.321	1	-1
378.492	1	4
378.663	1	-1
378.834	1	9
379.005	1	-6
379.176	1	-9
379.347	1	2
379.518	1	5
379.688	1	5
379.859	1	-4
380.030	1	4
380.201	1	-10
380.372	1	-8
380.543	1	-5
380.714	1	5
380.884	1	-6
381.055	1	-2
381.226	1	2
381.397	1	11
381.568	1	1
381.739	1	-4
381.910	1	-2
382.080	1	-4
382.251	1	9
382.422	1	5
382.593	1	4
382.764	1	8
382.935	1	5
383.105	1	-5
383.276	1	2
383.447	1	-4
383.618	1	11
383.789	1	1
383.960	1	-6
384.130	1	-6
384.301	1	3
384.472	1	-2
384.643	1	-10
384.814	1	-3
384.985	1	4
385.156	1	4
385.326	1	3
385.497	1	-9
385.668	1	4
385.839	1	-4
386.010	1	6
386.180	1	7
386.351	1	-6
386.522	1	11
386.693	1	3
386.864	1	1
387.035	1	2
387.205	1	-12
387.376	1	-3
387.547	1	13
387.718	1	3
387.889	1	0
388.060	1	-1
388.230	1	7
388.401	1	8
388.572	1	-1
388.743	1	2
388.914	1	0
389.084	1	3
389.255	1	-1
389.426	1	-2
389.597	1	-10
389.768	1	5
389.939	1	-5
390.109	1	-3
390.280	1	11
390.451	1	6
390.622	1	6
390.793	1	6
390.963	1	8
391.134	1	-6
391.305	1	1
391.476	1	8
391.647	1	-6
391.817	1	4
391.988	1	5
392.159	1	4
392.330	1	-6
392.501	1	1
392.671	1	-3
392.842	1	3
393.013	1	-5
393.184	1	8
393.355	1	-7
393.525	1	1
393.696	1	2
393.867	1	-6
394.038	1	6
394.208	1	2
394.379	1	3
394.550	1	-7
394.721	1	2
394.892	1	2
395.062	1	4
395.233	1	1
395.404	1	7
395.575	1	6
395.746	1	-2
395.916	1	-1
396.087	1	8
396.258	1	2
396.429	1	5
396.599	1	-7
396.770	1	-1
396.941	1	3
397.112	1	-2
397.283	1	-2
397.453	1	1
397.624	1	1
397.795	1	6
397.966	1	9
398.136	1	0
398.307	1	6
398.478	1	3
398.649	1	9
398.819	1	-2
398.990	1	-1
399.161	1	-2
399.332	1	-3
399.503	1	9
399.673	1	-2
399.844	1	-4
400.015	1	-17
400.186	1	-3
400.356	1	0
400.527	1	-1
400.698	1	-3
400.869	1	-1
401.039	1	7
401.210	1	12
401.381	1	2
401.552	1	-4
401.722	1	-3
401.893	1	8
402.064	1	-2
402.235	1	2
402.405	1	-6
402.576	1	7
402.747	1	-6
402.918	1	4
403.088	1	2
403.259	1	9
403.430	1	-4
403.601	1	1
403.771	1	5
403.942	1	-3
404.113	1	6
404.284	1	2
404.454	1	-3
404.625	1	4
404.796	1	-9
404.967	1	2
405.137	1	-3
405.308	1	-3
405.479	1	-2
405.649	1	4
405.820	1	-8
405.991	1	3
406.162	1	8
406.332	1	6
406.503	1	3
406.674	1	-1
406.845	1	15
407.015	1	2
407.186	1	-8
407.357	1	-4
407.527	1	0
407.698	1	-12
407.869	1	0
408.040	1	4
408.210	1	5
408.381	1	-2
408.552	1	6
408.722	1	-5
408.893	1	1
409.064	1	-4
409.235	1	3
409.405	1	-5
409.576	1	-5
409.747	1	6
409.917	1	8
410.088	1	13
410.259	1	-4
410.430	1	-6
410.600	1	7
410.771	1	-1
410.942	1	3
411.112	1	8
411.283	1	-1
411.454	1	13
411.625	1	-7
411.795	1	-4
411.966	1	7
412.137	1	-1
412.307	1	11
412.478	1	4
412.649	1	1
412.819	1	0
412.990	1	6
413.161	1	2
413.332	1	5
413.502	1	6
413.673	1	-1
413.844	1	2
414.014	1	5
414.185	1	-4
414.356	1	1
414.526	1	-6
414.697	1	4
414.868	1	-1
415.038	1	8
415.209	1	-2
415.380	1	2
415.550	1	10
415.721	1	2
415.892	1	4
416.063	1	0
416.233	1	-3
416.404	1	-6
416.575	1	3
416.745	1	-6
416.916	1	2
417.087	1	-2
417.257	1	-5
417.428	1	9
417.599	1	-3
417.769	1	2
417.940	1	-7
418.111	1	7
418.281	1	9
418.452	1	3
418.623	1	-3
418.793	1	14
418.964	1	-2
419.135	1	-1
419.305	1	-1
419.476	1	23
419.647	1	-9
419.817	1	9
419.988	1	-1
420.159	1	-5
420.329	1	1
420.500	1	12
420.671	1	-2
420.841	1	7
421.012	1	2
421.183	1	-1
421.353	1	-3
421.524	1	-1
421.695	1	8
421.865	1	-2
422.036	1	8
422.206	1	-6
422.377	1	-1
422.548	1	7
422.718	1	8
422.889	1	7
423.060	1	5
423.230	1	-4
423.401	1	1
423.572	1	14
423.742	1	4
423.913	1	-5
424.084	1	3
424.254	1	0
424.425	1	1
424.595	1	11
424.766	1	-10
424.937	1	2
425.107	1	8
425.278	1	-1
425.449	1	2
425.619	1	5
425.790	1	6
425.961	1	-3
426.131	1	2
426.302	1	-10
426.472	1	8
426.643	1	10
426.814	1	0
426.984	1	2
427.155	1	15
427.326	1	-2
427.496	1	-3
427.667	1	-9
427.837	1	-5
428.008	1	0
428.179	1	4
428.349	1	-4
428.520	1	1
428.691	1	6
428.861	1	-2
429.032	1	5
429.202	1	3
429.373	1	0
429.544	1	0
429.714	1	-1
429.885	1	9
430.055	1	2
430.226	1	0
430.397	1	3
430.567	1	-6
430.738	1	-10
430.909	1	3
431.079	1	9
431.250	1	4
431.420	1	7
431.591	1	12
431.762	1	-4
431.932	1	1
432.103	1	-12
432.273	1	9
432.444	1	2
432.615	1	4
432.785	1	-1
432.956	1	4
433.126	1	3
433.297	1	3
433.468	1	-4
433.638	1	6
433.809	1	0
433.979	1	5
434.150	1	6
434.320	1	0
434.491	1	-7
434.662	1	-7
434.832	1	-15
435.003	1	6
435.173	1	-6
435.344	1	-4
435.515	1	-3
435.685	1	1
435.856	1	8
436.026	1	-7
436.197	1	1
436.368	1	0
436.538	1	-7
436.709	1	-2
436.879	1	-2
437.050	1	7
437.220	1	17
437.391	1	4
437.562	1	5
437.732	1	-10
437.903	1	0
438.073	1	-1
438.244	1	8
438.414	1	-6
438.585	1	-7
438.756	1	2
438.926	1	-1
439.097	1	1
439.267	1	1
439.438	1	0
439.608	1	4
439.779	1	8
439.949	1	5
440.120	1	7
440.291	1	-11
440.461	1	-1
440.632	1	1
440.802	1	0
440.973	1	10
441.143	1	-1
441.314	1	5
441.485	1	14
441.655	1	-7
441.826	1	7
441.996	1	-5
442.167	1	-4
442.337	1	4
442.508	1	3
442.678	1	2
442.849	1	14
443.019	1	3
443.190	1	1
443.361	1	0
443.531	1	1
443.702	1	11
443.872	1	-5
444.043	1	-1
444.213	1	0
444.384	1	11
444.554	1	4
444.725	1	3
444.895	1	-3
445.066	1	-2
445.237	1	-6
445.407	1	1
445.578	1	7
445.748	1	-2
445.919	1	-5
446.089	1	19
446.260	1	1
446.430	1	15
446.601	1	10
446.771	1	1
446.942	1	1
447.112	1	1
447.283	1	12
447.453	1	2
447.624	1	1
447.794	1	3
447.965	1	-4
448.135	1	7
448.306	1	13
448.477	1	-2
448.647	1	-3
448.818	1	3
448.988	1	5
449.159	1	8
449.329	1	14
449.500	1	-8
449.670	1	-3
449.841	1	-3
450.011	1	7
450.182	1	11
450.352	1	8
450.523	1	-8
450.693	1	-3
450.864	1	-4
451.034	1	6
451.205	1	5
451.375	1	1
451.546	1	-3
451.716	1	-1
451.887	1	2
452.057	1	3
452.228	1	6
452.398	1	-1
452.569	1	9
452.739	1	6
452.910	1	3
453.080	1	4
453.251	1	3
453.421	1	-3
453.592	1	3
453.762	1	-4
453.933	1	6
454.103	1	-7
454.274	1	0
454.444	1	-7
454.615	1	8
454.785	1	-1
454.956	1	-9
455.126	1	-8
455.297	1	7
455.467	1	0
455.638	1	-5
455.808	1	-1
455.979	1	-6
456.149	1	1
456.320	1	-1
456.490	1	8
456.661	1	1
456.831	1	1
457.001	1	7
457.172	1	-3
457.342	1	2
457.513	1	-1
457.683	1	-2
457.854	1	-3
458.024	1	-12
458.195	1	-6
458.365	1	12
458.536	1	0
458.706	1	10
458.877	1	-3
459.047	1	5
459.218	1	6
459.388	1	9
459.559	1	1
459.729	1	-7
459.899	1	6
460.070	1	-3
460.240	1	0
460.411	1	5
460.581	1	0
460.752	1	-6
460.922	1	-3
461.093	1	2
461.263	1	0
461.434	1	4
461.604	1	9
461.775	1	-4
461.945	1	-4
462.115	1	-1
462.286	1	0
462.456	1	-9
462.627	1	-6
462.797	1	7
462.968	1	7
463.138	1	7
463.309	1	-5
463.479	1	-5
463.649	1	4
463.820	1	10
463.990	1	1
464.161	1	0
464.331	1	-5
464.502	1	4
464.672	1	2
464.843	1	-1
465.013	1	6
465.183	1	-1
465.354	1	-4
465.524	1	5
465.695	1	6
465.865	1	4
466.036	1	-6
466.206	1	5
466.376	1	0
466.547	1	4
466.717	1	4
466.888	1	-6
467.058	1	7
467.229	1	4
467.399	1	7
467.569	1	7
467.740	1	5
467.910	1	4
468.081	1	6
468.251	1	2
468.422	1	8
468.592	1	7
468.762	1	-1
468.933	1	1
469.103	1	2
469.274	1	8
469.444	1	8
469.614	1	2
469.785	1	3
469.955	1	-5
470.126	1	1
470.296	1	-1
470.467	1	0
470.637	1	-5
470.807	1	3
470.978	1	-1
471.148	1	2
471.319	1	15
471.489	1	13
471.659	1	0
471.830	1	-2
472.000	1	-4
472.171	1	-2
472.341	1	3
472.511	1	-1
472.682	1	8
472.852	1	10
473.023	1	0
473.193	1	-3
473.363	1	7
473.534	1	5
473.704	1	-5
473.875	1	2
474.045	1	11
474.215	1	1
474.386	1	3
474.556	1	5
474.727	1	-2
474.897	1	-3
475.067	1	-4
475.238	1	0
475.408	1	-6
475.578	1	2
475.749	1	8
475.919	1	0
476.090	1	0
476.260	1	1
476.430	1	5
476.601	1	-1
476.771	1	7
476.942	1	-5
477.112	1	1
477.282	1	-8
477.453	1	-3
477.623	1	4
477.793	1	-2
477.964	1	2
478.134	1	12
478.305	1	3
478.475	1	3
478.645	1	1
478.816	1	-2
478.986	1	6
479.156	1	-2
479.327	1	-6
479.497	1	-1
479.667	1	6
479.838	1	4
480.008	1	-6
480.179	1	-3
480.349	1	-2
480.519	1	0
480.690	1	0
480.860	1	9
481.030	1	11
481.201	1	5
481.371	1	7
481.541	1	0
481.712	1	-2
481.882	1	-1
482.053	1	-2
482.223	1	9
482.393	1	-5
482.564	1	1
482.734	1	10
482.904	1	-2
483.075	1	-9
483.245	1	-6
483.415	1	1
483.586	1	5
483.756	1	1
483.926	1	0
484.097	1	6
484.267	1	-2
484.437	1	2
484.608	1	-4
484.778	1	1
484.948	1	7
485.119	1	3
485.289	1	3
485.459	1	1
485.630	1	10
485.800	1	-1
485.970	1	-3
486.141	1	-13
486.311	1	-7
486.481	1	1
486.652	1	2
486.822	1	3
486.992	1	8
487.163	1	0
487.333	1	-1
487.503	1	1
487.674	1	8
487.844	1	3
488.014	1	3
488.185	1	4
488.355	1	-5
488.525	1	4
488.696	1	11
488.866	1	5
489.036	1	-1
489.207	1	-6
489.377	1	-5
489.547	1	1
489.718	1	-2
489.888	1	8
490.058	1	-4
490.228	1	4
490.399	1	0
490.569	1	4
490.739	1	6
490.910	1	-7
491.080	1	-10
491.250	1	5
491.421	1	-3
491.591	1	1
491.761	1	13
491.932	1	-2
492.102	1	-4
492.272	1	-5
492.442	1	-1
492.613	1	-3
492.783	1	-6
492.953	1	1
493.124	1	-11
493.294	1	3
493.464	1	-3
493.635	1	15
493.805	1	5
493.975	1	5
494.145	1	1
494.316	1	-9
494.486	1	-7
494.656	1	1
494.827	1	1
494.997	1	5
495.167	1	12
495.337	1	9
495.508	1	0
495.678	1	10
495.848	1	-10
496.019	1	-2
496.189	1	1
496.359	1	-9
496.529	1	-4
496.700	1	14
496.870	1	1
497.040	1	4
497.211	1	1
497.381	1	6
497.551	1	1
497.721	1	-3
497.892	1	1
498.062	1	-1
498.232	1	-10
498.403	1	-5
498.573	1	8
498.743	1	-8
498.913	1	-3
499.084	1	6
499.254	1	1
499.424	1	-3
499.594	1	-3
499.765	1	-4
499.935	1	-2
500.105	1	4
500.275	1	19
500.446	1	9
500.616	1	-2
500.786	1	0
500.956	1	13
501.127	1	-1
501.297	1	-10
501.467	1	-7
501.638	1	2
501.808	1	-9
501.978	1	4
502.148	1	-3
502.319	1	2
502.489	1	6
502.659	1	2
502.829	1	-3
503.000	1	2
503.170	1	2
503.340	1	0
503.510	1	-3
503.681	1	-4
503.851	1	-6
504.021	1	2
504.191	1	-2
504.362	1	4
504.532	1	-5
504.702	1	2
504.872	1	-10
505.042	1	-7
505.213	1	6
505.383	1	3
505.553	1	6
505.723	1	2
505.894	1	-11
506.064	1	-12
506.234	1	4
506.404	1	3
506.575	1	-1
506.745	1	-6
506.915	1	4
507.085	1	8
507.256	1	5
507.426	1	9
507.596	1	4
507.766	1	11
507.936	1	5
508.107	1	6
508.277	1	-3
508.447	1	-9
508.617	1	-1
508.788	1	-10
508.958	1	10
509.128	1	3
509.298	1	7
509.468	1	5
509.639	1	-1
509.809	1	-3
509.979	1	7
510.149	1	1
510.319	1	11
510.490	1	1
510.660	1	5
510.830	1	-1
511.000	1	-3
511.171	1	-4
511.341	1	-8
511.511	1	0
511.681	1	10
511.851	1	-5
512.022	1	-3
512.192	1	5
512.362	1	7
512.532	1	8
512.702	1	-16
512.873	1	0
513.043	1	-1
513.213	1	-3
513.383	1	-4
513.553	1	-5
513.724	1	7
513.894	1	13
514.064	1	2
514.234	1	-5
514.404	1	1
514.575	1	-1
514.745	1	3
514.915	1	-6
515.085	1	0
515.255	1	5
515.425	1	12
515.596	1	1
515.766	1	-4
515.936	1	-4
516.106	1	4
516.276	1	3
516.447	1	7
516.617	1	7
516.787	1	8
516.957	1	-14
517.127	1	-2
517.297	1	2
517.468	1	0
517.638	1	3
517.808	1	0
517.978	1	8
518.148	1	6
518.319	1	0
518.489	1	0
518.659	1	4
518.829	1	9
518.999	1	4
519.169	1	-2
519.340	1	2
519.510	1	-3
519.680	1	-7
519.850	1	-2
520.020	1	-8
520.190	1	6
520.361	1	3
520.531	1	-2
520.701	1	10
520.871	1	-1
521.041	1	6
521.211	1	-10
521.382	1	2
521.552	1	-6
521.722	1	4
521.892	1	3
522.062	1	4
522.232	1	5
522.402	1	3
522.573	1	2
522.743	1	1
522.913	1	1
523.083	1	6
523.253	1	-7
523.423	1	-2
523.593	1	-4
523.764	1	12
523.934	1	-5
524.104	1	0
524.274	1	0
524.444	1	0
524.614	1	11
524.784	1	7
524.955	1	-6
525.125	1	1
525.295	1	-3
525.465	1	6
525.635	1	1
525.805	1	3
525.975	1	-4
526.146	1	-12
526.316	1	6
526.486	1	1
526.656	1	5
526.826	1	10
526.996	1	-7
527.166	1	4
527.337	1	2
527.507	1	1
527.677	1	1
527.847	1	-7
528.017	1	6
528.187	1	1
528.357	1	7
528.527	1	-5
528.698	1	-1
528.868	1	-6
529.038	1	-1
529.208	1	2
529.378	1	-6
529.548	1	-4
529.718	1	-6
529.888	1	-3
530.058	1	-1
530.229	1	-10
530.399	1	9
530.569	1	-10
530.739	1	-11
530.909	1	9
531.079	1	1
531.249	1	-3
531.419	1	5
531.589	1	12
531.760	1	8
531.930	1	-4
532.100	1	15
532.270	1	6
532.440	1	-11
532.610	1	1
532.780	1	-7
532.950	1	-8
533.120	1	-14
533.290	1	0
533.461	1	-3
533.631	1	4
533.801	1	8
533.971	1	3
534.141	1	7
534.311	1	0
534.481	1	-1
534.651	1	1
534.821	1	-12
534.991	1	-3
535.162	1	2
535.332	1	-3
535.502	1	13
535.672	1	0
535.842	1	-11
536.012	1	-7
536.182	1	-1
536.352	1	-5
536.522	1	3
536.692	1	-17
536.862	1	-3
537.032	1	-9
537.203	1	-12
537.373	1	4
537.543	1	8
537.713	1	5
537.883	1	-1
538.053	1	3
538.223	1	-2
538.393	1	1
538.563	1	10
538.733	1	-5
538.903	1	3
539.073	1	6
539.243	1	-12
539.413	1	-6
539.584	1	4
539.754	1	-2
539.924	1	-4
540.094	1	2
540.264	1	2
540.434	1	2
540.604	1	0
540.774	1	-3
540.944	1	4
541.114	1	-3
541.284	1	7
541.454	1	3
541.624	1	-2
541.794	1	-1
541.964	1	-1
542.134	1	1
542.305	1	3
542.475	1	-6
542.645	1	3
542.815	1	-8
542.985	1	-4
543.155	1	9
543.325	1	-5
543.495	1	-1
543.665	1	5
543.835	1	8
544.005	1	12
544.175	1	10
544.345	1	-1
544.515	1	4
544.685	1	1
544.855	1	-5
545.025	1	7
545.195	1	1
545.365	1	2
545.535	1	10
545.705	1	6
545.875	1	8
546.045	1	3
546.216	1	3
546.386	1	-10
546.556	1	-7
546.726	1	3
546.896	1	3
547.066	1	4
547.236	1	-9
547.406	1	14
547.576	1	-1
547.746	1	-9
547.916	1	-21
548.086	1	-1
548.256	1	0
548.426	1	0
548.596	1	-1
548.766	1	0
548.936	1	-6
549.106	1	-3
549.276	1	-3
549.446	1	-7
549.616	1	-7
549.786	1	6
549.956	1	1
550.126	1	7
550.296	1	4
550.466	1	6
550.636	1	-3
550.806	1	11
550.976	1	7
551.146	1	8
551.316	1	-7
551.486	1	-1
551.656	1	-12
551.826	1	-6
551.996	1	-7
552.166	1	4
552.336	1	9
552.506	1	3
552.676	1	2
552.846	1	0
553.016	1	2
553.186	1	5
553.356	1	9
553.526	1	-4
553.696	1	4
553.866	1	8
554.036	1	13
554.206	1	2
554.376	1	-9
554.546	1	2
554.716	1	-1
554.886	1	0
555.056	1	-1
555.226	1	-2
555.396	1	-2
555.566	1	-5
555.736	1	0
555.906	1	-7
556.076	1	-1
556.246	1	-2
556.416	1	8
556.586	1	-14
556.756	1	4
556.926	1	2
557.096	1	4
557.266	1	-9
557.436	1	1
557.606	1	2
557.776	1	-2
557.946	1	-1
558.116	1	1
558.286	1	-11
558.456	1	-14
558.626	1	3
558.796	1	5
558.966	1	-1
559.136	1	-6
559.306	1	7
559.476	1	-3
559.646	1	1
559.816	1	-2
559.986	1	-3
560.155	1	-5
560.325	1	2
560.495	1	4
560.665	1	-1
560.835	1	-2
561.005	1	0
561.175	1	1
561.345	1	13
561.515	1	-4
561.685	1	-2
561.855	1	-12
562.025	1	8
562.195	1	5
562.365	1	6
562.535	1	5
562.705	1	5
562.875	1	0
563.045	1	-6
563.215	1	-1
563.385	1	-4
563.555	1	-6
563.725	1	3
563.895	1	1
564.064	1	1
564.234	1	9
564.404	1	-5
564.574	1	-3
564.744	1	-3
564.914	1	4
565.084	1	-9
565.254	1	9
565.424	1	-3
565.594	1	0
565.764	1	1
565.934	1	0
566.104	1	0
566.274	1	3
566.444	1	8
566.614	1	-1
566.783	1	-3
566.953	1	-2
567.123	1	-1
567.293	1	-13
567.463	1	0
567.633	1	-8
567.803	1	3
567.973	1	14
568.143	1	-1
568.313	1	7
568.483	1	-2
568.653	1	12
568.823	1	-3
568.993	1	0
569.162	1	-1
569.332	1	5
569.502	1	10
569.672	1	5
569.842	1	-3
570.012	1	-2
570.182	1	1
570.352	1	-1
570.522	1	-8
570.692	1	-7
570.862	1	-5
571.031	1	-5
571.201	1	-2
571.371	1	0
571.541	1	1
571.711	1	1
571.881	1	-2
572.051	1	-10
572.221	1	0
572.391	1	2
572.561	1	2
572.731	1	-8
572.900	1	-3
573.070	1	-6
573.240	1	-5
573.410	1	0
573.580	1	15
573.750	1	6
573.920	1	1
574.090	1	-4
574.260	1	-5
574.430	1	-5
574.599	1	-2
574.769	1	6
574.939	1	-4
575.109	1	-2
575.279	1	3
575.449	1	-1
575.619	1	-2
575.789	1	8
575.959	1	-2
576.128	1	0
576.298	1	-7
576.468	1	-2
576.638	1	4
576.808	1	5
576.978	1	-15
577.148	1	5
577.318	1	8
577.487	1	-2
577.657	1	-10
577.827	1	-13
577.997	1	-1
578.167	1	6
578.337	1	11
578.507	1	4
578.677	1	-5
578.846	1	5
579.016	1	11
579.186	1	3
579.356	1	4
579.526	1	4
579.696	1	-1
579.866	1	3
580.036	1	-6
580.205	1	3
580.375	1	-1
580.545	1	-4
580.715	1	-10
580.885	1	-6
581.055	1	4
581.225	1	-3
581.394	1	9
581.564	1	0
581.734	1	3
581.904	1	2
582.074	1	-2
582.244	1	10
582.414	1	-9
582.583	1	-8
582.753	1	4
582.923	1	5
583.093	1	0
583.263	1	5
583.433	1	3
583.603	1	5
583.772	1	-1
583.942	1	-3
584.112	1	-7
584.282	1	-2
584.452	1	4
584.622	1	-2
584.791	1	4
584.961	1	-8
585.131	1	0
585.301	1	-1
585.471	1	16
585.641	1	5
585.811	1	6
585.980	1	-4
586.150	1	-7
586.320	1	-4
586.490	1	5
586.660	1	5
586.830	1	0
586.999	1	-1
587.169	1	-9
587.339	1	9
587.509	1	2
587.679	1	-2
587.849	1	-7
588.018	1	21
588.188	1	-2
588.358	1	0
588.528	1	2
588.698	1	0
588.867	1	-4
589.037	1	1
589.207	1	-5
589.377	1	-1
589.547	1	-5
589.717	1	-4
589.886	1	1
590.056	1	-9
590.226	1	3
590.396	1	0
590.566	1	6
590.735	1	6
590.905	1	-3
591.075	1	-11
591.245	1	13
591.415	1	-2
591.585	1	5
591.754	1	10
591.924	1	4
592.094	1	-1
592.264	1	8
592.434	1	-4
592.603	1	-2
592.773	1	-10
592.943	1	10
593.113	1	0
593.283	1	9
593.452	1	-1
593.622	1	2
593.792	1	0
593.962	1	-1
594.132	1	2
594.301	1	4
594.471	1	8
594.641	1	-5
594.811	1	0
594.981	1	2
595.150	1	9
595.320	1	5
595.490	1	7
595.660	1	3
595.829	1	7
595.999	1	7
596.169	1	16
596.339	1	-1
596.509	1	3
596.678	1	-2
596.848	1	3
597.018	1	-7
597.188	1	2
597.358	1	-9
597.527	1	4
597.697	1	-5
597.867	1	-2
598.037	1	4
598.206	1	-3
598.376	1	-2
598.546	1	-5
598.716	1	15
598.885	1	3
599.055	1	9
599.225	1	8
599.395	1	1
599.565	1	-1
599.734	1	2
599.904	1	4
600.074	1	-3
600.244	1	13
600.413	1	-4
600.583	1	10
600.753	1	7
600.923	1	9
601.092	1	2
601.262	1	3
601.432	1	3
601.602	1	5
601.771	1	4
601.941	1	2
602.111	1	9
602.281	1	4
602.451	1	-4
602.620	1	-10
602.790	1	1
602.960	1	0
603.130	1	-2
603.299	1	8
603.469	1	-3
603.639	1	5
603.809	1	-2
603.978	1	-4
604.148	1	10
604.318	1	9
604.487	1	2
604.657	1	-2
604.827	1	-4
604.997	1	3
605.166	1	4
605.336	1	-2
605.506	1	-4
605.676	1	1
605.845	1	9
606.015	1	0
606.185	1	-7
606.355	1	1
606.524	1	4
606.694	1	-2
606.864	1	-7
607.034	1	10
607.203	1	-1
607.373	1	3
607.543	1	-5
607.712	1	-1
607.882	1	4
608.052	1	9
608.222	1	-3
608.391	1	8
608.561	1	-1
608.731	1	-7
608.901	1	0
609.070	1	8
609.240	1	5
609.410	1	7
609.579	1	-5
609.749	1	3
609.919	1	3
610.089	1	-6
610.258	1	-4
610.428	1	-3
610.598	1	-2
610.767	1	-1
610.937	1	2
611.107	1	0
611.277	1	11
611.446	1	-1
611.616	1	-2
611.786	1	-3
611.955	1	3
612.125	1	-10
612.295	1	10
612.465	1	9
612.634	1	8
612.804	1	-3
612.974	1	3
613.143	1	-2
613.313	1	-8
613.483	1	0
613.652	1	-2
613.822	1	-3
613.992	1	7
614.162	1	-3
614.331	1	15
614.501	1	-8
614.671	1	10
614.840	1	-2
615.010	1	1
615.180	1	5
615.349	1	4
615.519	1	7
615.689	1	3
615.858	1	3
616.028	1	-2
616.198	1	0
616.368	1	4
616.537	1	-13
616.707	1	12
616.877	1	5
617.046	1	2
617.216	1	14
617.386	1	-3
617.555	1	1
617.725	1	1
617.895	1	0
618.064	1	4
618.234	1	0
618.404	1	9
618.573	1	4
618.743	1	10
618.913	1	0
619.082	1	5
619.252	1	9
619.422	1	4
619.591	1	-4
619.761	1	0
619.931	1	-4
620.100	1	-2
620.270	1	-1
620.440	1	8
620.609	1	-10
620.779	1	7
620.949	1	7
621.118	1	0
621.288	1	2
621.458	1	7
621.627	1	9
621.797	1	8
621.967	1	0
622.136	1	-4
622.306	1	-12
622.476	1	-7
622.645	1	-1
622.815	1	-12
622.985	1	-3
623.154	1	-4
623.324	1	0
623.494	1	18
623.663	1	13
623.833	1	-1
624.002	1	-6
624.172	1	9
624.342	1	-1
624.511	1	5
624.681	1	0
624.851	1	6
625.020	1	11
625.190	1	-10
625.360	1	-1
625.529	1	0
625.699	1	-4
625.869	1	-2
626.038	1	-4
626.208	1	-2
626.377	1	2
626.547	1	6
626.717	1	3
626.886	1	4
627.056	1	-5
627.226	1	1
627.395	1	0
627.565	1	1
627.735	1	-2
627.904	1	3
628.074	1	4
628.243	1	9
628.413	1	5
628.583	1	-2
628.752	1	-5
628.922	1	11
629.091	1	0
629.261	1	3
629.431	1	0
629.600	1	-7
629.770	1	3
629.940	1	-4
630.109	1	-2
630.279	1	10
630.448	1	-2
630.618	1	8
630.788	1	-1
630.957	1	3
631.127	1	4
631.297	1	2
631.466	1	0
631.636	1	-3
631.805	1	0
631.975	1	2
632.145	1	-7
632.314	1	0
632.484	1	1
632.653	1	1
632.823	1	1
632.993	1	7
633.162	1	-5
633.332	1	0
633.501	1	-5
633.671	1	2
633.841	1	-1
634.010	1	0
634.180	1	-11
634.349	1	-1
634.519	1	6
634.689	1	6
634.858	1	-3
635.028	1	2
635.197	1	5
635.367	1	1
635.537	1	-8
635.706	1	6
635.876	1	-4
636.045	1	-2
636.215	1	-13
636.384	1	3
636.554	1	8
636.724	1	3
636.893	1	-1
637.063	1	11
637.232	1	15
637.402	1	5
637.572	1	12
637.741	1	-4
637.911	1	-7
638.080	1	3
638.250	1	-4
638.419	1	0
638.589	1	3
638.759	1	1
638.928	1	1
639.098	1	4
639.267	1	-11
639.437	1	8
639.606	1	-9
639.776	1	7
639.946	1	1
640.115	1	1
640.285	1	-2
640.454	1	6
640.624	1	12
640.793	1	-5
640.963	1	1
641.132	1	1
641.302	1	2
641.472	1	-4
641.641	1	-6
641.811	1	-3
641.980	1	-1
642.150	1	-2
642.319	1	-2
642.489	1	-3
642.659	1	-6
642.828	1	-2
642.998	1	2
643.167	1	3
643.337	1	1
643.506	1	7
643.676	1	-5
643.845	1	-1
644.015	1	0
644.184	1	1
644.354	1	-1
644.524	1	-4
644.693	1	-5
644.863	1	2
645.032	1	-5
645.202	1	11
645.371	1	-7
645.541	1	-7
645.710	1	6
645.880	1	-6
646.049	1	-6
646.219	1	3
646.388	1	-4
646.558	1	9
646.728	1	-1
646.897	1	10
647.067	1	0
647.236	1	-14
647.406	1	5
647.575	1	4
647.745	1	-1
647.914	1	-1
648.084	1	-1
648.253	1	9
648.423	1	-1
648.592	1	6
648.762	1	-8
648.931	1	-1
649.101	1	-3
649.270	1	0
649.440	1	-1
649.610	1	-5
649.779	1	4
649.949	1	0
650.118	1	-7
650.288	1	6
650.457	1	-5
650.627	1	10
650.796	1	-7
650.966	1	6
651.135	1	-5
651.305	1	0
651.474	1	3
651.644	1	3
651.813	1	3
651.983	1	8
652.152	1	10
652.322	1	-5
652.491	1	6
652.661	1	2
652.830	1	13
653.000	1	-4
653.169	1	3
653.339	1	16
653.508	1	0
653.678	1	-8
653.847	1	2
654.017	1	8
654.186	1	5
654.356	1	5
654.525	1	2
654.695	1	5
654.864	1	1
655.034	1	11
655.203	1	-9
655.373	1	-1
655.542	1	-5
655.712	1	-3
655.881	1	9
656.051	1	7
656.220	1	5
656.390	1	14
656.559	1	-5
656.729	1	0
656.898	1	-7
657.068	1	-3
657.237	1	6
657.406	1	-5
657.576	1	0
657.745	1	1
657.915	1	-1
658.084	1	5
658.254	1	4
658.423	1	9
658.593	1	7
658.762	1	19
658.932	1	-3
659.101	1	-2
659.271	1	0
659.440	1	3
659.610	1	6
659.779	1	12
659.949	1	1
660.118	1	-1
660.288	1	-4
660.457	1	7
660.626	1	5
660.796	1	-2
660.965	1	-11
661.135	1	5
661.304	1	2
661.474	1	-5
661.643	1	4
661.813	1	10
661.982	1	3
662.152	1	5
662.321	1	1
662.491	1	-3
662.660	1	-4
662.829	1	1
662.999	1	15
663.168	1	6
663.338	1	3
663.507	1	-6
663.677	1	-11
663.846	1	-10
664.016	1	6
664.185	1	11
664.354	1	3
664.524	1	-1
664.693	1	-1
664.863	1	-2
665.032	1	0
665.202	1	-6
665.371	1	0
665.541	1	3
665.710	1	3
665.879	1	2
666.049	1	-3
666.218	1	-6
666.388	1	8
666.557	1	-1
666.727	1	-7
666.896	1	2
667.065	1	16
667.235	1	-5
667.404	1	1
667.574	1	0
667.743	1	10
667.913	1	-9
668.082	1	-2
668.251	1	2
668.421	1	-3
668.590	1	-5
668.760	1	3
668.929	1	-14
669.099	1	-3
669.268	1	10
669.437	1	3
669.607	1	-4
669.776	1	2
669.946	1	-5
670.115	1	1
670.285	1	5
670.454	1	5
670.623	1	-7
670.793	1	5
670.962	1	1
671.132	1	1
671.301	1	0
671.470	1	-4
671.640	1	5
671.809	1	-3
671.979	1	1
672.148	1	-3
672.317	1	4
672.487	1	-5
672.656	1	1
672.826	1	1
672.995	1	-3
673.164	1	21
673.334	1	-10
673.503	1	-6
673.673	1	-7
673.842	1	-12
674.011	1	-6
674.181	1	9
674.350	1	-6
674.520	1	5
674.689	1	-1
674.858	1	-7
675.028	1	14
675.197	1	4
675.367	1	-1
675.536	1	11
675.705	1	-10
675.875	1	-5
676.044	1	-7
676.214	1	9
676.383	1	-1
676.552	1	3
676.722	1	-9
676.891	1	1
677.060	1	0
677.230	1	-2
677.399	1	13
677.569	1	3
677.738	1	-2
677.907	1	-1
678.077	1	14
678.246	1	-4
678.416	1	-2
678.585	1	-2
678.754	1	1
678.924	1	3
679.093	1	10
679.262	1	11
679.432	1	10
679.601	1	-2
679.771	1	5
679.940	1	-1
680.109	1	-3
680.279	1	8
680.448	1	-1
680.617	1	-1
680.787	1	0
680.956	1	1
681.125	1	13
681.295	1	5
681.464	1	6
681.634	1	2
681.803	1	-3
681.972	1	-1
682.142	1	-13
682.311	1	4
682.480	1	3
682.650	1	-6
682.819	1	9
682.988	1	3
683.158	1	4
683.327	1	-1
683.496	1	2
683.666	1	8
683.835	1	-8
684.004	1	9
684.174	1	2
684.343	1	2
684.512	1	1
684.682	1	3
684.851	1	4
685.021	1	-8
685.190	1	14
685.359	1	-2
685.529	1	4
685.698	1	0
685.867	1	1
686.037	1	5
686.206	1	14
686.375	1	4
686.545	1	-2
686.714	1	-3
686.883	1	1
687.053	1	-4
687.222	1	1
687.391	1	6
687.561	1	0
687.730	1	4
687.899	1	3
688.069	1	-1
688.238	1	-1
688.407	1	4
688.577	1	-5
688.746	1	2
