340.368	1	7
340.539	1	-1
340.710	1	2
340.881	1	1
341.052	1	4
341.223	1	-12
341.394	1	-2
341.565	1	8
341.737	1	11
341.908	1	-1
342.079	1	3
342.250	1	2
342.421	1	-10
342.592	1	-5
342.763	1	4
342.934	1	7
343.105	1	2
343.276	1	5
343.447	1	-3
343.618	1	1
343.789	1	15
343.960	1	2
344.131	1	10
344.302	1	8
344.473	1	1
344.644	1	-7
344.815	1	-6
344.986	1	-6
345.157	1	7
345.328	1	-4
345.499	1	6
345.670	1	2
345.841	1	2
346.012	1	3
346.183	1	-5
346.354	1	-3
346.526	1	0
346.697	1	1
346.868	1	1
347.039	1	-11
347.210	1	0
347.381	1	-4
347.552	1	10
347.723	1	11
347.894	1	-13
348.065	1	-12
348.236	1	-6
348.407	1	4
348.578	1	-4
348.749	1	0
348.920	1	-4
349.091	1	4
349.262	1	1
349.433	1	2
349.604	1	6
349.775	1	-1
349.946	1	-13
350.117	1	0
350.288	1	4
350.459	1	0
350.630	1	2
350.801	1	-4
350.972	1	3
351.143	1	-3
351.314	1	1
351.485	1	-5
351.656	1	11
351.827	1	1
351.998	1	9
352.169	1	7
352.340	1	3
352.511	1	1
352.682	1	-4
352.853	1	9
353.024	1	7
353.195	1	0
353.366	1	-2
353.537	1	11
353.708	1	-11
353.879	1	6
354.050	1	-7
354.221	1	3
354.392	1	1
354.563	1	11
354.734	1	-17
354.905	1	10
355.076	1	-3
355.247	1	12
355.418	1	3
355.589	1	-8
355.760	1	-2
355.931	1	-6
356.102	1	-2
356.273	1	9
356.444	1	7
356.615	1	1
356.785	1	2
356.956	1	8
357.127	1	-1
357.298	1	4
357.469	1	9
357.640	1	7
357.811	1	-3
357.982	1	-4
358.153	1	-7
358.324	1	6
358.495	1	-1
358.666	1	3
358.837	1	0
359.008	1	12
359.179	1	7
359.350	1	4
359.521	1	6
359.692	1	1
359.863	1	-1
360.034	1	1
360.205	1	0
360.376	1	-2
360.547	1	4
360.718	1	6
360.889	1	8
361.060	1	-7
361.231	1	4
361.401	1	3
361.572	1	1
361.743	1	6
361.914	1	7
362.085	1	10
362.256	1	-2
362.427	1	8
362.598	1	-6
362.769	1	16
362.940	1	-1
363.111	1	8
363.282	1	5
363.453	1	6
363.624	1	9
363.795	1	-5
363.966	1	3
364.137	1	11
364.308	1	14
364.478	1	11
364.649	1	18
364.820	1	1
364.991	1	21
365.162	1	15
365.333	1	14
365.504	1	6
365.675	1	-3
365.846	1	13
366.017	1	4
366.188	1	10
366.359	1	4
366.530	1	18
366.701	1	4
366.871	1	13
367.042	1	10
367.213	1	17
367.384	1	18
367.555	1	14
367.726	1	21
367.897	1	26
368.068	1	25
368.239	1	22
368.410	1	20
368.581	1	8
368.752	1	12
368.923	1	26
369.093	1	11
369.264	1	19
369.435	1	19
369.606	1	16
369.777	1	13
369.948	1	7
370.119	1	13
370.290	1	13
370.461	1	22
370.632	1	9
370.803	1	19
370.973	1	20
371.144	1	17
371.315	1	13
371.486	1	14
371.657	1	13
371.828	1	7
371.999	1	9
372.170	1	6
372.341	1	12
372.512	1	6
372.682	1	21
372.853	1	5
373.024	1	14
373.195	1	8
373.366	1	-1
373.537	1	27
373.708	1	16
373.879	1	17
374.050	1	8
374.220	1	2
374.391	1	6
374.562	1	15
374.733	1	12
374.904	1	8
375.075	1	10
375.246	1	14
375.417	1	5
375.588	1	2
375.758	1	21
375.929	1	-5
376.100	1	8
376.271	1	7
376.442	1	3
376.613	1	13
376.784	1	10
376.955	1	7
377.125	1	10
377.296	1	0
377.467	1	13
377.638	1	6
377.809	1	1
377.980	1	5
378.151	1	3
378.321	1	6
378.492	1	5
378.663	1	7
378.834	1	8
379.005	1	3
379.176	1	-1
379.347	1	14
379.518	1	9
379.688	1	-7
379.859	1	2
380.030	1	11
380.201	1	4
380.372	1	4
380.543	1	4
380.714	1	8
380.884	1	8
381.055	1	11
381.226	1	9
381.397	1	7
381.568	1	-8
381.739	1	2
381.910	1	-5
382.080	1	0
382.251	1	4
382.422	1	3
382.593	1	9
382.764	1	6
382.935	1	8
383.105	1	4
383.276	1	9
383.447	1	-4
383.618	1	6
383.789	1	2
383.960	1	-6
384.130	1	12
384.301	1	8
384.472	1	-4
384.643	1	-2
384.814	1	1
384.985	1	9
385.156	1	4
385.326	1	1
385.497	1	-9
385.668	1	-1
385.839	1	6
386.010	1	4
386.180	1	2
386.351	1	-1
386.522	1	9
386.693	1	9
386.864	1	-6
387.035	1	10
387.205	1	-3
387.376	1	-7
387.547	1	13
387.718	1	-1
387.889	1	3
388.060	1	6
388.230	1	13
388.401	1	6
388.572	1	-3
388.743	1	7
388.914	1	-2
389.084	1	-2
389.255	1	0
389.426	1	-9
389.597	1	-9
389.768	1	9
389.939	1	7
390.109	1	-2
390.280	1	9
390.451	1	-8
390.622	1	-2
390.793	1	-3
390.963	1	6
391.134	1	-14
391.305	1	-5
391.476	1	14
391.647	1	3
391.817	1	8
391.988	1	7
392.159	1	1
392.330	1	4
392.501	1	4
392.671	1	-10
392.842	1	0
393.013	1	1
393.184	1	11
393.355	1	-4
393.525	1	-1
393.696	1	8
393.867	1	1
394.038	1	-7
394.208	1	8
394.379	1	14
394.550	1	-8
394.721	1	2
394.892	1	11
395.062	1	3
395.233	1	0
395.404	1	-1
395.575	1	5
395.746	1	-4
395.916	1	-2
396.087	1	6
396.258	1	3
396.429	1	6
396.599	1	-1
396.770	1	-12
396.941	1	5
397.112	1	-10
397.283	1	9
397.453	1	-2
397.624	1	-1
397.795	1	0
397.966	1	8
398.136	1	7
398.307	1	3
398.478	1	5
398.649	1	11
398.819	1	-1
398.990	1	2
399.161	1	5
399.332	1	-3
399.503	1	3
399.673	1	-6
399.844	1	3
400.015	1	-6
400.186	1	-8
400.356	1	3
400.527	1	-2
400.698	1	-5
400.869	1	-5
401.039	1	-9
401.210	1	6
401.381	1	0
401.552	1	-2
401.722	1	3
401.893	1	1
402.064	1	-4
402.235	1	-4
402.405	1	0
402.576	1	1
402.747	1	1
402.918	1	3
403.088	1	-2
403.259	1	6
403.430	1	-4
403.601	1	-6
403.771	1	4
403.942	1	12
404.113	1	-3
404.284	1	-6
404.454	1	-9
404.625	1	-5
404.796	1	-2
404.967	1	3
405.137	1	2
405.308	1	-4
405.479	1	3
405.649	1	9
405.820	1	6
405.991	1	-2
406.162	1	10
406.332	1	-4
406.503	1	-6
406.674	1	3
406.845	1	16
407.015	1	6
407.186	1	-12
407.357	1	-1
407.527	1	-9
407.698	1	6
407.869	1	1
408.040	1	6
408.210	1	4
408.381	1	9
408.552	1	3
408.722	1	-8
408.893	1	-7
409.064	1	-10
409.235	1	-2
409.405	1	-8
409.576	1	-10
409.747	1	7
409.917	1	-6
410.088	1	-1
410.259	1	-10
410.430	1	-5
410.600	1	-3
410.771	1	4
410.942	1	-1
411.112	1	8
411.283	1	-11
411.454	1	-6
411.625	1	6
411.795	1	-7
411.966	1	6
412.137	1	-6
412.307	1	9
412.478	1	-3
412.649	1	3
412.819	1	7
412.990	1	3
413.161	1	-8
413.332	1	4
413.502	1	4
413.673	1	-7
413.844	1	4
414.014	1	4
414.185	1	-9
414.356	1	-12
414.526	1	-3
414.697	1	-2
414.868	1	1
415.038	1	2
415.209	1	6
415.380	1	10
415.550	1	15
415.721	1	2
415.892	1	-4
416.063	1	4
416.233	1	-2
416.404	1	-12
416.575	1	-2
416.745	1	-2
416.916	1	-4
417.087	1	4
417.257	1	-7
417.428	1	-4
417.599	1	-1
417.769	1	3
417.940	1	-3
418.111	1	4
418.281	1	6
418.452	1	8
418.623	1	-5
418.793	1	14
418.964	1	2
419.135	1	2
419.305	1	6
419.476	1	4
419.647	1	-8
419.817	1	3
419.988	1	9
420.159	1	-2
420.329	1	1
420.500	1	2
420.671	1	0
420.841	1	5
421.012	1	4
421.183	1	4
421.353	1	-1
421.524	1	-1
421.695	1	11
421.865	1	-1
422.036	1	-3
422.206	1	2
422.377	1	0
422.548	1	-2
422.718	1	2
422.889	1	1
423.060	1	-2
423.230	1	5
423.401	1	2
423.572	1	11
423.742	1	4
423.913	1	-8
424.084	1	0
424.254	1	-6
424.425	1	3
424.595	1	8
424.766	1	-4
424.937	1	4
425.107	1	7
425.278	1	0
425.449	1	1
425.619	1	9
425.790	1	0
425.961	1	2
426.131	1	5
426.302	1	-3
426.472	1	-3
426.643	1	8
426.814	1	4
426.984	1	-12
427.155	1	12
427.326	1	4
427.496	1	-7
427.667	1	-1
427.837	1	-7
428.008	1	3
428.179	1	-4
428.349	1	5
428.520	1	-7
428.691	1	11
428.861	1	4
429.032	1	9
429.202	1	3
429.373	1	10
429.544	1	3
429.714	1	-3
429.885	1	-3
430.055	1	-3
430.226	1	-2
430.397	1	-2
430.567	1	-8
430.738	1	-2
430.909	1	8
431.079	1	12
431.250	1	5
431.420	1	6
431.591	1	13
431.762	1	-3
431.932	1	1
432.103	1	-15
432.273	1	9
432.444	1	-7
432.615	1	8
432.785	1	-8
432.956	1	5
433.126	1	6
433.297	1	-1
433.468	1	-6
433.638	1	1
433.809	1	-2
433.979	1	2
434.150	1	7
434.320	1	13
434.491	1	-7
434.662	1	0
434.832	1	-7
435.003	1	2
435.173	1	-5
435.344	1	-2
435.515	1	-2
435.685	1	-8
435.856	1	5
436.026	1	3
436.197	1	9
436.368	1	1
436.538	1	3
436.709	1	-5
436.879	1	7
437.050	1	6
437.220	1	10
437.391	1	-3
437.562	1	12
437.732	1	4
437.903	1	-1
438.073	1	7
438.244	1	12
438.414	1	-9
438.585	1	-9
438.756	1	-3
438.926	1	1
439.097	1	-3
439.267	1	6
439.438	1	5
439.608	1	6
439.779	1	-3
439.949	1	9
440.120	1	4
440.291	1	2
440.461	1	-2
440.632	1	2
440.802	1	-1
440.973	1	10
441.143	1	-4
441.314	1	5
441.485	1	6
441.655	1	-6
441.826	1	6
441.996	1	-1
442.167	1	-10
442.337	1	1
442.508	1	-2
442.678	1	-1
442.849	1	18
443.019	1	2
443.190	1	1
443.361	1	3
443.531	1	0
443.702	1	9
443.872	1	-1
444.043	1	2
444.213	1	-2
444.384	1	-1
444.554	1	6
444.725	1	11
444.895	1	-4
445.066	1	3
445.237	1	-4
445.407	1	-8
445.578	1	6
445.748	1	-2
445.919	1	-5
446.089	1	17
446.260	1	-3
446.430	1	8
446.601	1	6
446.771	1	-5
446.942	1	0
447.112	1	-1
447.283	1	12
447.453	1	3
447.624	1	-1
447.794	1	7
447.965	1	-3
448.135	1	3
448.306	1	11
448.477	1	1
448.647	1	-1
448.818	1	12
448.988	1	-2
449.159	1	11
449.329	1	-1
449.500	1	0
449.670	1	0
449.841	1	-9
450.011	1	0
450.182	1	2
450.352	1	8
450.523	1	-6
450.693	1	-5
450.864	1	-1
451.034	1	13
451.205	1	1
451.375	1	-1
451.546	1	-1
451.716	1	-2
451.887	1	3
452.057	1	4
452.228	1	7
452.398	1	2
452.569	1	8
452.739	1	4
452.910	1	-8
453.080	1	5
453.251	1	-4
453.421	1	3
453.592	1	5
453.762	1	-2
453.933	1	-10
454.103	1	5
454.274	1	-5
454.444	1	6
454.615	1	-2
454.785	1	5
454.956	1	2
455.126	1	-2
455.297	1	8
455.467	1	5
455.638	1	2
455.808	1	-1
455.979	1	-10
456.149	1	-5
456.320	1	-1
456.490	1	2
456.661	1	5
456.831	1	-11
457.001	1	5
457.172	1	-4
457.342	1	3
457.513	1	8
457.683	1	3
457.854	1	4
458.024	1	-2
458.195	1	-8
458.365	1	6
458.536	1	-1
458.706	1	5
458.877	1	3
459.047	1	-5
459.218	1	-8
459.388	1	6
459.559	1	0
459.729	1	-5
459.899	1	-3
460.070	1	3
460.240	1	-7
460.411	1	6
460.581	1	3
460.752	1	-7
460.922	1	4
461.093	1	4
461.263	1	1
461.434	1	-9
461.604	1	4
461.775	1	-7
461.945	1	-6
462.115	1	10
462.286	1	6
462.456	1	5
462.627	1	1
462.797	1	-4
462.968	1	7
463.138	1	15
463.309	1	-7
463.479	1	-1
463.649	1	2
463.820	1	3
463.990	1	1
464.161	1	-6
464.331	1	0
464.502	1	-3
464.672	1	14
464.843	1	1
465.013	1	4
465.183	1	-6
465.354	1	-1
465.524	1	0
465.695	1	5
465.865	1	1
466.036	1	-9
466.206	1	2
466.376	1	-3
466.547	1	7
466.717	1	8
466.888	1	-4
467.058	1	4
467.229	1	5
467.399	1	10
467.569	1	17
467.740	1	1
467.910	1	3
468.081	1	-3
468.251	1	-3
468.422	1	5
468.592	1	9
468.762	1	3
468.933	1	-3
469.103	1	3
469.274	1	3
469.444	1	7
469.614	1	3
469.785	1	-8
469.955	1	-3
470.126	1	-7
470.296	1	10
470.467	1	-2
470.637	1	-1
470.807	1	7
470.978	1	-7
471.148	1	3
471.319	1	4
471.489	1	2
471.659	1	-10
471.830	1	0
472.000	1	-8
472.171	1	-6
472.341	1	-2
472.511	1	-5
472.682	1	-3
472.852	1	-1
473.023	1	-7
473.193	1	4
473.363	1	6
473.534	1	7
473.704	1	-8
473.875	1	0
474.045	1	9
474.215	1	1
474.386	1	-4
474.556	1	1
474.727	1	3
474.897	1	-12
475.067	1	-3
475.238	1	-5
475.408	1	-10
475.578	1	-4
475.749	1	2
475.919	1	5
476.090	1	8
476.260	1	-11
476.430	1	3
476.601	1	2
476.771	1	5
476.942	1	-8
477.112	1	0
477.282	1	-2
477.453	1	1
477.623	1	8
477.793	1	-11
477.964	1	6
478.134	1	-1
478.305	1	12
478.475	1	-3
478.645	1	-1
478.816	1	5
478.986	1	15
479.156	1	-3
479.327	1	2
479.497	1	-4
479.667	1	-7
479.838	1	2
480.008	1	-3
480.179	1	1
480.349	1	-10
480.519	1	3
480.690	1	0
480.860	1	6
481.030	1	0
481.201	1	5
481.371	1	-3
481.541	1	1
481.712	1	-2
481.882	1	14
482.053	1	0
482.223	1	5
482.393	1	10
482.564	1	-6
482.734	1	2
482.904	1	5
483.075	1	-7
483.245	1	2
483.415	1	6
483.586	1	7
483.756	1	7
483.926	1	-3
484.097	1	0
484.267	1	-4
484.437	1	-5
484.608	1	-13
484.778	1	-4
484.948	1	5
485.119	1	-12
485.289	1	-6
485.459	1	5
485.630	1	8
485.800	1	-6
485.970	1	-10
486.141	1	-6
486.311	1	-12
486.481	1	4
486.652	1	1
486.822	1	6
486.992	1	9
487.163	1	-2
487.333	1	-5
487.503	1	0
487.674	1	-7
487.844	1	1
488.014	1	-2
488.185	1	1
488.355	1	4
488.525	1	1
488.696	1	5
488.866	1	-1
489.036	1	5
489.207	1	-2
489.377	1	0
489.547	1	0
489.718	1	4
489.888	1	0
490.058	1	-4
490.228	1	-1
490.399	1	12
490.569	1	8
490.739	1	10
490.910	1	-6
491.080	1	-4
491.250	1	7
491.421	1	9
491.591	1	3
491.761	1	6
491.932	1	0
492.102	1	9
492.272	1	-4
492.442	1	2
492.613	1	2
492.783	1	-8
492.953	1	5
493.124	1	-4
493.294	1	-6
493.464	1	13
493.635	1	16
493.805	1	4
493.975	1	11
494.145	1	2
494.316	1	4
494.486	1	-15
494.656	1	-2
494.827	1	-3
494.997	1	3
495.167	1	19
495.337	1	2
495.508	1	5
495.678	1	0
495.848	1	3
496.019	1	4
496.189	1	4
496.359	1	4
496.529	1	3
496.700	1	7
496.870	1	-2
497.040	1	9
497.211	1	4
497.381	1	-6
497.551	1	5
497.721	1	-2
497.892	1	0
498.062	1	0
498.232	1	-2
498.403	1	2
498.573	1	4
498.743	1	5
498.913	1	-3
499.084	1	10
499.254	1	-6
499.424	1	6
499.594	1	2
499.765	1	0
499.935	1	1
500.105	1	-2
500.275	1	8
500.446	1	9
500.616	1	7
500.786	1	-4
500.956	1	7
501.127	1	0
501.297	1	-2
501.467	1	-1
501.638	1	6
501.808	1	2
501.978	1	6
502.148	1	-5
502.319	1	12
502.489	1	-1
502.659	1	7
502.829	1	2
503.000	1	6
503.170	1	-1
503.340	1	-5
503.510	1	-12
503.681	1	7
503.851	1	-12
504.021	1	-1
504.191	1	12
504.362	1	3
504.532	1	-2
504.702	1	2
504.872	1	-11
505.042	1	1
505.213	1	-3
505.383	1	9
505.553	1	3
505.723	1	4
505.894	1	-1
506.064	1	4
506.234	1	-1
506.404	1	1
506.575	1	-5
506.745	1	-10
506.915	1	6
507.085	1	1
507.256	1	8
507.426	1	2
507.596	1	5
507.766	1	11
507.936	1	4
508.107	1	4
508.277	1	7
508.447	1	-4
508.617	1	-3
508.788	1	-8
508.958	1	10
509.128	1	12
509.298	1	2
509.468	1	5
509.639	1	2
509.809	1	2
509.979	1	11
510.149	1	6
510.319	1	10
510.490	1	6
510.660	1	9
510.830	1	-1
511.000	1	-10
511.171	1	1
511.341	1	-2
511.511	1	-12
511.681	1	6
511.851	1	-3
512.022	1	0
512.192	1	5
512.362	1	4
512.532	1	0
512.702	1	-13
512.873	1	-4
513.043	1	8
513.213	1	1
513.383	1	-1
513.553	1	-7
513.724	1	9
513.894	1	10
514.064	1	6
514.234	1	-2
514.404	1	3
514.575	1	10
514.745	1	-2
514.915	1	-3
515.085	1	-8
515.255	1	3
515.425	1	4
515.596	1	3
515.766	1	5
515.936	1	14
516.106	1	4
516.276	1	8
516.447	1	1
516.617	1	-3
516.787	1	4
516.957	1	-5
517.127	1	-1
517.297	1	7
517.468	1	10
517.638	1	-8
517.808	1	7
517.978	1	6
518.148	1	11
518.319	1	-3
518.489	1	5
518.659	1	11
518.829	1	12
518.999	1	6
519.169	1	-7
519.340	1	-1
519.510	1	-6
519.680	1	-14
519.850	1	9
520.020	1	-4
520.190	1	4
520.361	1	0
520.531	1	8
520.701	1	10
520.871	1	-3
521.041	1	-5
521.211	1	-9
521.382	1	4
521.552	1	-6
521.722	1	15
521.892	1	-4
522.062	1	5
522.232	1	1
522.402	1	7
522.573	1	6
522.743	1	-4
522.913	1	-2
523.083	1	2
523.253	1	-1
523.423	1	12
523.593	1	-5
523.764	1	13
523.934	1	2
524.104	1	3
524.274	1	-4
524.444	1	7
524.614	1	17
524.784	1	6
524.955	1	-13
525.125	1	4
525.295	1	7
525.465	1	18
525.635	1	7
525.805	1	1
525.975	1	2
526.146	1	-1
526.316	1	8
526.486	1	4
526.656	1	2
526.826	1	14
526.996	1	1
527.166	1	13
527.337	1	-1
527.507	1	5
527.677	1	5
527.847	1	5
528.017	1	4
528.187	1	6
528.357	1	7
528.527	1	-1
528.698	1	-6
528.868	1	3
529.038	1	-7
529.208	1	0
529.378	1	-2
529.548	1	-3
529.718	1	4
529.888	1	3
530.058	1	0
530.229	1	-1
530.399	1	10
530.569	1	-6
530.739	1	-5
530.909	1	18
531.079	1	-1
531.249	1	1
531.419	1	-2
531.589	1	9
531.760	1	1
531.930	1	0
532.100	1	11
532.270	1	7
532.440	1	-13
532.610	1	3
532.780	1	1
532.950	1	-9
533.120	1	-2
533.290	1	-1
533.461	1	11
533.631	1	6
533.801	1	10
533.971	1	4
534.141	1	1
534.311	1	0
534.481	1	-2
534.651	1	15
534.821	1	-3
534.991	1	6
535.162	1	-6
535.332	1	9
535.502	1	8
535.672	1	0
535.842	1	-2
536.012	1	3
536.182	1	5
536.352	1	1
536.522	1	2
536.692	1	-12
536.862	1	3
537.032	1	3
537.203	1	2
537.373	1	9
537.543	1	0
537.713	1	7
537.883	1	-1
538.053	1	6
538.223	1	-1
538.393	1	4
538.563	1	13
538.733	1	-13
538.903	1	7
539.073	1	12
539.243	1	-14
539.413	1	-4
539.584	1	3
539.754	1	-2
539.924	1	0
540.094	1	3
540.264	1	-4
540.434	1	6
540.604	1	7
540.774	1	5
540.944	1	8
541.114	1	-2
541.284	1	-3
541.454	1	7
541.624	1	-1
541.794	1	9
541.964	1	3
542.134	1	4
542.305	1	-4
542.475	1	3
542.645	1	7
542.815	1	5
542.985	1	6
543.155	1	13
543.325	1	-2
543.495	1	-1
543.665	1	8
543.835	1	0
544.005	1	0
544.175	1	15
544.345	1	9
544.515	1	5
544.685	1	6
544.855	1	-9
545.025	1	8
545.195	1	-5
545.365	1	8
545.535	1	7
545.705	1	-4
545.875	1	-1
546.045	1	13
546.216	1	5
546.386	1	-5
546.556	1	7
546.726	1	-5
546.896	1	5
547.066	1	5
547.236	1	1
547.406	1	9
547.576	1	6
547.746	1	-2
547.916	1	3
548.086	1	9
548.256	1	3
548.426	1	-6
548.596	1	-1
548.766	1	0
548.936	1	-11
549.106	1	-3
549.276	1	0
549.446	1	-5
549.616	1	-3
549.786	1	5
549.956	1	-1
550.126	1	2
550.296	1	5
550.466	1	3
550.636	1	4
550.806	1	4
550.976	1	-1
551.146	1	11
551.316	1	8
551.486	1	10
551.656	1	-12
551.826	1	4
551.996	1	-4
552.166	1	5
552.336	1	10
552.506	1	3
552.676	1	3
552.846	1	0
553.016	1	0
553.186	1	8
553.356	1	11
553.526	1	-4
553.696	1	-5
553.866	1	9
554.036	1	11
554.206	1	10
554.376	1	-8
554.546	1	13
554.716	1	6
554.886	1	-10
555.056	1	7
555.226	1	-4
555.396	1	0
555.566	1	-2
555.736	1	3
555.906	1	-2
556.076	1	3
556.246	1	5
556.416	1	1
556.586	1	-12
556.756	1	-2
556.926	1	1
557.096	1	12
557.266	1	-9
557.436	1	15
557.606	1	-5
557.776	1	1
557.946	1	-3
558.116	1	10
558.286	1	-12
558.456	1	-2
558.626	1	5
558.796	1	14
558.966	1	10
559.136	1	-3
559.306	1	2
559.476	1	5
559.646	1	3
559.816	1	-9
559.986	1	-2
560.155	1	3
560.325	1	2
560.495	1	12
560.665	1	-3
560.835	1	2
561.005	1	-5
561.175	1	2
561.345	1	12
561.515	1	7
561.685	1	8
561.855	1	-1
562.025	1	4
562.195	1	6
562.365	1	3
562.535	1	13
562.705	1	7
562.875	1	-5
563.045	1	5
563.215	1	4
563.385	1	8
563.555	1	-5
563.725	1	10
563.895	1	9
564.064	1	2
564.234	1	12
564.404	1	-2
564.574	1	-2
564.744	1	-2
564.914	1	5
565.084	1	-5
565.254	1	3
565.424	1	-1
565.594	1	-2
565.764	1	-4
565.934	1	-2
566.104	1	9
566.274	1	2
566.444	1	3
566.614	1	-2
566.783	1	-2
566.953	1	9
567.123	1	13
567.293	1	-7
567.463	1	2
567.633	1	2
567.803	1	2
567.973	1	6
568.143	1	-1
568.313	1	-2
568.483	1	7
568.653	1	11
568.823	1	-10
568.993	1	6
569.162	1	2
569.332	1	5
569.502	1	4
569.672	1	14
569.842	1	6
570.012	1	7
570.182	1	8
570.352	1	6
570.522	1	-7
570.692	1	-4
570.862	1	-4
571.031	1	3
571.201	1	-2
571.371	1	-1
571.541	1	1
571.711	1	-2
571.881	1	-2
572.051	1	-4
572.221	1	0
572.391	1	-1
572.561	1	0
572.731	1	4
572.900	1	-1
573.070	1	-1
573.240	1	-3
573.410	1	11
573.580	1	6
573.750	1	9
573.920	1	0
574.090	1	12
574.260	1	-3
574.430	1	4
574.599	1	-5
574.769	1	3
574.939	1	-1
575.109	1	6
575.279	1	6
575.449	1	4
575.619	1	-2
575.789	1	18
575.959	1	3
576.128	1	7
576.298	1	-7
576.468	1	11
576.638	1	11
576.808	1	-5
576.978	1	-5
577.148	1	3
577.318	1	2
577.487	1	8
577.657	1	1
577.827	1	-1
577.997	1	-1
578.167	1	2
578.337	1	5
578.507	1	3
578.677	1	8
578.846	1	7
579.016	1	8
579.186	1	-5
579.356	1	4
579.526	1	0
579.696	1	3
579.866	1	-1
580.036	1	7
580.205	1	6
580.375	1	10
580.545	1	-3
580.715	1	-4
580.885	1	3
581.055	1	20
581.225	1	7
581.394	1	10
581.564	1	-2
581.734	1	2
581.904	1	-1
582.074	1	-1
582.244	1	3
582.414	1	-2
582.583	1	-1
582.753	1	13
582.923	1	2
583.093	1	6
583.263	1	3
583.433	1	4
583.603	1	3
583.772	1	-2
583.942	1	-5
584.112	1	-6
584.282	1	9
584.452	1	4
584.622	1	-4
584.791	1	5
584.961	1	1
585.131	1	-7
585.301	1	1
585.471	1	12
585.641	1	6
585.811	1	2
585.980	1	5
586.150	1	-2
586.320	1	4
586.490	1	5
586.660	1	-2
586.830	1	9
586.999	1	5
587.169	1	-4
587.339	1	0
587.509	1	0
587.679	1	4
587.849	1	-1
588.018	1	24
588.188	1	0
588.358	1	4
588.528	1	-2
588.698	1	9
588.867	1	-3
589.037	1	3
589.207	1	-5
589.377	1	5
589.547	1	2
589.717	1	-7
589.886	1	6
590.056	1	4
590.226	1	-9
590.396	1	-1
590.566	1	5
590.735	1	3
590.905	1	-1
591.075	1	0
591.245	1	7
591.415	1	-2
591.585	1	-4
591.754	1	16
591.924	1	5
592.094	1	12
592.264	1	-9
592.434	1	-2
592.603	1	10
592.773	1	-10
592.943	1	9
593.113	1	0
593.283	1	5
593.452	1	1
593.622	1	9
593.792	1	1
593.962	1	-6
594.132	1	-2
594.301	1	9
594.471	1	8
594.641	1	2
594.811	1	7
594.981	1	-3
595.150	1	2
595.320	1	15
595.490	1	3
595.660	1	9
595.829	1	-2
595.999	1	4
596.169	1	14
596.339	1	8
596.509	1	2
596.678	1	2
596.848	1	4
597.018	1	-3
597.188	1	-13
597.358	1	-5
597.527	1	7
597.697	1	-9
597.867	1	1
598.037	1	3
598.206	1	6
598.376	1	-15
598.546	1	-11
598.716	1	8
598.885	1	7
599.055	1	6
599.225	1	8
599.395	1	-5
599.565	1	-2
599.734	1	11
599.904	1	3
600.074	1	-4
600.244	1	6
600.413	1	-11
600.583	1	9
600.753	1	10
600.923	1	10
601.092	1	4
601.262	1	2
601.432	1	-3
601.602	1	0
601.771	1	4
601.941	1	5
602.111	1	9
602.281	1	-4
602.451	1	-1
602.620	1	-11
602.790	1	7
602.960	1	4
603.130	1	-1
603.299	1	5
603.469	1	5
603.639	1	1
603.809	1	1
603.978	1	-3
604.148	1	18
604.318	1	17
604.487	1	-5
604.657	1	1
604.827	1	-4
604.997	1	3
605.166	1	4
605.336	1	-3
605.506	1	-3
605.676	1	3
605.845	1	-2
606.015	1	-6
606.185	1	1
606.355	1	1
606.524	1	10
606.694	1	-8
606.864	1	-2
607.034	1	3
607.203	1	-6
607.373	1	5
607.543	1	0
607.712	1	-1
607.882	1	-1
608.052	1	5
608.222	1	2
608.391	1	-4
608.561	1	-2
608.731	1	3
608.901	1	-2
609.070	1	11
609.240	1	0
609.410	1	5
609.579	1	2
609.749	1	10
609.919	1	0
610.089	1	2
610.258	1	3
610.428	1	0
610.598	1	4
610.767	1	-5
610.937	1	-1
611.107	1	-3
611.277	1	0
611.446	1	-3
611.616	1	9
611.786	1	0
611.955	1	2
612.125	1	-1
612.295	1	7
612.465	1	3
612.634	1	2
612.804	1	6
612.974	1	-10
613.143	1	-3
613.313	1	5
613.483	1	-8
613.652	1	-8
613.822	1	1
613.992	1	10
614.162	1	4
614.331	1	10
614.501	1	-11
614.671	1	4
614.840	1	0
615.010	1	-3
615.180	1	4
615.349	1	-2
615.519	1	1
615.689	1	-4
615.858	1	10
616.028	1	6
616.198	1	3
616.368	1	6
616.537	1	-5
616.707	1	11
616.877	1	-1
617.046	1	4
617.216	1	25
617.386	1	10
617.555	1	5
617.725	1	-3
617.895	1	6
618.064	1	-4
618.234	1	-1
618.404	1	0
618.573	1	3
618.743	1	9
618.913	1	-1
619.082	1	11
619.252	1	8
619.422	1	1
619.591	1	-5
619.761	1	4
619.931	1	-3
620.100	1	-11
620.270	1	3
620.440	1	7
620.609	1	-9
620.779	1	2
620.949	1	4
621.118	1	4
621.288	1	4
621.458	1	4
621.627	1	13
621.797	1	3
621.967	1	0
622.136	1	4
622.306	1	-12
622.476	1	-8
622.645	1	-7
622.815	1	-13
622.985	1	-5
623.154	1	6
623.324	1	10
623.494	1	9
623.663	1	4
623.833	1	0
624.002	1	3
624.172	1	-8
624.342	1	2
624.511	1	5
624.681	1	0
624.851	1	5
625.020	1	17
625.190	1	-3
625.360	1	-3
625.529	1	-7
625.699	1	11
625.869	1	-1
626.038	1	-1
626.208	1	-6
626.377	1	9
626.547	1	2
626.717	1	7
626.886	1	3
627.056	1	3
627.226	1	-1
627.395	1	-2
627.565	1	5
627.735	1	4
627.904	1	11
628.074	1	-1
628.243	1	6
628.413	1	7
628.583	1	2
628.752	1	-6
628.922	1	5
629.091	1	-4
629.261	1	-4
629.431	1	-8
629.600	1	-1
629.770	1	5
629.940	1	-22
630.109	1	4
630.279	1	4
630.448	1	5
630.618	1	-4
630.788	1	-4
630.957	1	9
631.127	1	-3
631.297	1	10
631.466	1	3
631.636	1	-3
631.805	1	-5
631.975	1	6
632.145	1	-6
632.314	1	-6
632.484	1	5
632.653	1	0
632.823	1	-5
632.993	1	5
633.162	1	0
633.332	1	-9
633.501	1	-11
633.671	1	2
633.841	1	-4
634.010	1	14
634.180	1	-8
634.349	1	-1
634.519	1	8
634.689	1	3
634.858	1	-5
635.028	1	0
635.197	1	7
635.367	1	-5
635.537	1	-7
635.706	1	7
635.876	1	-3
636.045	1	-2
636.215	1	0
636.384	1	8
636.554	1	14
636.724	1	-2
636.893	1	-4
637.063	1	7
637.232	1	15
637.402	1	0
637.572	1	9
637.741	1	0
637.911	1	1
638.080	1	-4
638.250	1	0
638.419	1	-1
638.589	1	-6
638.759	1	10
638.928	1	16
639.098	1	9
639.267	1	-8
639.437	1	-1
639.606	1	-10
639.776	1	1
639.946	1	4
640.115	1	1
640.285	1	-7
640.454	1	11
640.624	1	12
640.793	1	2
640.963	1	-7
641.132	1	1
641.302	1	-1
641.472	1	-1
641.641	1	0
641.811	1	-1
641.980	1	-1
642.150	1	-4
642.319	1	6
642.489	1	-2
642.659	1	-8
642.828	1	5
642.998	1	-1
643.167	1	-2
643.337	1	-11
643.506	1	8
643.676	1	2
643.845	1	0
644.015	1	-1
644.184	1	0
644.354	1	-7
644.524	1	2
644.693	1	8
644.863	1	3
645.032	1	1
645.202	1	6
645.371	1	-3
645.541	1	-3
645.710	1	3
645.880	1	5
646.049	1	-1
646.219	1	14
646.388	1	1
646.558	1	6
646.728	1	-5
646.897	1	6
647.067	1	2
647.236	1	-5
647.406	1	8
647.575	1	8
647.745	1	1
647.914	1	-8
648.084	1	-1
648.253	1	-3
648.423	1	-1
648.592	1	-5
648.762	1	-3
648.931	1	-7
649.101	1	5
649.270	1	6
649.440	1	-3
649.610	1	0
649.779	1	-2
649.949	1	-4
650.118	1	-1
650.288	1	0
650.457	1	-7
650.627	1	-1
650.796	1	-4
650.966	1	-3
651.135	1	1
651.305	1	3
651.474	1	-3
651.644	1	-12
651.813	1	-6
651.983	1	18
652.152	1	9
652.322	1	-12
652.491	1	2
652.661	1	4
652.830	1	12
653.000	1	0
653.169	1	-2
653.339	1	5
653.508	1	-3
653.678	1	2
653.847	1	10
654.017	1	3
654.186	1	-6
654.356	1	4
654.525	1	9
654.695	1	-1
654.864	1	-2
655.034	1	6
655.203	1	-3
655.373	1	-5
655.542	1	-6
655.712	1	-2
655.881	1	11
656.051	1	6
656.220	1	9
656.390	1	10
656.559	1	-3
656.729	1	-7
656.898	1	3
657.068	1	8
657.237	1	5
657.406	1	-8
657.576	1	-4
657.745	1	7
657.915	1	1
658.084	1	8
658.254	1	7
658.423	1	6
658.593	1	6
658.762	1	10
658.932	1	1
659.101	1	-5
659.271	1	4
659.440	1	-2
659.610	1	11
659.779	1	5
659.949	1	-1
660.118	1	-7
660.288	1	-9
660.457	1	10
660.626	1	-3
660.796	1	-2
660.965	1	-6
661.135	1	3
661.304	1	-3
661.474	1	0
661.643	1	2
661.813	1	9
661.982	1	-1
662.152	1	1
662.321	1	1
662.491	1	-3
662.660	1	-6
662.829	1	-7
662.999	1	5
663.168	1	7
663.338	1	1
663.507	1	5
663.677	1	-4
663.846	1	-8
664.016	1	1
664.185	1	-2
664.354	1	0
664.524	1	-2
664.693	1	9
664.863	1	-6
665.032	1	8
665.202	1	2
665.371	1	-2
665.541	1	-2
665.710	1	-8
665.879	1	5
666.049	1	-6
666.218	1	-10
666.388	1	7
666.557	1	2
666.727	1	-1
666.896	1	0
667.065	1	6
667.235	1	4
667.404	1	1
667.574	1	-1
667.743	1	7
667.913	1	-1
668.082	1	5
668.251	1	7
668.421	1	-7
668.590	1	-5
668.760	1	2
668.929	1	-7
669.099	1	0
669.268	1	3
669.437	1	1
669.607	1	5
669.776	1	-2
669.946	1	-6
670.115	1	-3
670.285	1	-5
670.454	1	-2
670.623	1	4
670.793	1	1
670.962	1	7
671.132	1	8
671.301	1	3
671.470	1	4
671.640	1	6
671.809	1	-3
671.979	1	-2
672.148	1	-3
672.317	1	0
672.487	1	-1
672.656	1	1
672.826	1	5
672.995	1	-3
673.164	1	28
673.334	1	6
673.503	1	-2
673.673	1	-2
673.842	1	-9
674.011	1	-9
674.181	1	4
674.350	1	-1
674.520	1	10
674.689	1	-7
674.858	1	-3
675.028	1	6
675.197	1	11
675.367	1	-7
675.536	1	11
675.705	1	-8
675.875	1	-3
676.044	1	-1
676.214	1	7
676.383	1	1
676.552	1	1
676.722	1	-17
676.891	1	-5
677.060	1	-7
677.230	1	2
677.399	1	4
677.569	1	9
677.738	1	7
677.907	1	2
678.077	1	14
678.246	1	-1
678.416	1	2
678.585	1	-8
678.754	1	-11
678.924	1	0
679.093	1	5
679.262	1	20
679.432	1	4
679.601	1	10
679.771	1	-1
679.940	1	-1
680.109	1	-2
680.279	1	1
680.448	1	-7
680.617	1	3
680.787	1	-1
680.956	1	7
681.125	1	10
681.295	1	2
681.464	1	5
681.634	1	-6
681.803	1	3
681.972	1	-5
682.142	1	-4
682.311	1	-3
682.480	1	-1
682.650	1	2
682.819	1	3
682.988	1	10
683.158	1	2
683.327	1	4
683.496	1	-7
683.666	1	-1
683.835	1	-11
684.004	1	2
684.174	1	5
684.343	1	3
684.512	1	-3
684.682	1	3
684.851	1	1
685.021	1	-5
685.190	1	15
685.359	1	-12
685.529	1	6
685.698	1	-3
685.867	1	-9
686.037	1	-2
686.206	1	4
686.375	1	6
686.545	1	3
686.714	1	-6
686.883	1	12
687.053	1	-7
687.222	1	3
687.391	1	6
687.561	1	3
687.730	1	-3
687.899	1	1
688.069	1	-1
688.238	1	0
688.407	1	3
688.577	1	2
688.746	1	-5
