340.368	1	-6
340.539	1	-4
340.710	1	-1
340.881	1	2
341.052	1	7
341.223	1	-8
341.394	1	-2
341.565	1	7
341.737	1	-4
341.908	1	4
342.079	1	6
342.250	1	7
342.421	1	-5
342.592	1	4
342.763	1	1
342.934	1	-4
343.105	1	0
343.276	1	-9
343.447	1	3
343.618	1	-5
343.789	1	15
343.960	1	5
344.131	1	9
344.302	1	1
344.473	1	9
344.644	1	2
344.815	1	1
344.986	1	-18
345.157	1	2
345.328	1	-7
345.499	1	9
345.670	1	7
345.841	1	2
346.012	1	10
346.183	1	-9
346.354	1	4
346.526	1	-2
346.697	1	-7
346.868	1	-2
347.039	1	-4
347.210	1	3
347.381	1	-5
347.552	1	9
347.723	1	0
347.894	1	0
348.065	1	-5
348.236	1	-19
348.407	1	5
348.578	1	-6
348.749	1	-1
348.920	1	-9
349.091	1	8
349.262	1	-2
349.433	1	3
349.604	1	-2
349.775	1	-1
349.946	1	-10
350.117	1	0
350.288	1	2
350.459	1	-9
350.630	1	-8
350.801	1	8
350.972	1	3
351.143	1	-6
351.314	1	-4
351.485	1	-3
351.656	1	9
351.827	1	0
351.998	1	5
352.169	1	4
352.340	1	4
352.511	1	-7
352.682	1	-8
352.853	1	7
353.024	1	12
353.195	1	-1
353.366	1	-11
353.537	1	7
353.708	1	-3
353.879	1	2
354.050	1	-5
354.221	1	-3
354.392	1	1
354.563	1	4
354.734	1	-8
354.905	1	8
355.076	1	4
355.247	1	-5
355.418	1	6
355.589	1	2
355.760	1	4
355.931	1	-3
356.102	1	-11
356.273	1	3
356.444	1	7
356.615	1	0
356.785	1	6
356.956	1	6
357.127	1	-2
357.298	1	6
357.469	1	2
357.640	1	4
357.811	1	-2
357.982	1	7
358.153	1	-1
358.324	1	7
358.495	1	4
358.666	1	4
358.837	1	-3
359.008	1	1
359.179	1	-2
359.350	1	9
359.521	1	4
359.692	1	2
359.863	1	-6
360.034	1	-8
360.205	1	-2
360.376	1	7
360.547	1	6
360.718	1	2
360.889	1	13
361.060	1	-3
361.231	1	8
361.401	1	-3
361.572	1	8
361.743	1	-2
361.914	1	2
362.085	1	7
362.256	1	7
362.427	1	7
362.598	1	0
362.769	1	10
362.940	1	-2
363.111	1	4
363.282	1	17
363.453	1	11
363.624	1	0
363.795	1	1
363.966	1	16
364.137	1	12
364.308	1	25
364.478	1	3
364.649	1	21
364.820	1	14
364.991	1	12
365.162	1	22
365.333	1	9
365.504	1	-1
365.675	1	8
365.846	1	15
366.017	1	18
366.188	1	17
366.359	1	11
366.530	1	9
366.701	1	12
366.871	1	1
367.042	1	13
367.213	1	11
367.384	1	16
367.555	1	20
367.726	1	19
367.897	1	18
368.068	1	16
368.239	1	26
368.410	1	16
368.581	1	17
368.752	1	14
368.923	1	32
369.093	1	10
369.264	1	17
369.435	1	9
369.606	1	21
369.777	1	8
369.948	1	10
370.119	1	9
370.290	1	7
370.461	1	13
370.632	1	11
370.803	1	14
370.973	1	23
371.144	1	27
371.315	1	9
371.486	1	15
371.657	1	15
371.828	1	15
371.999	1	7
372.170	1	12
372.341	1	10
372.512	1	9
372.682	1	16
372.853	1	9
373.024	1	20
373.195	1	13
373.366	1	10
373.537	1	17
373.708	1	17
373.879	1	9
374.050	1	26
374.220	1	-4
374.391	1	10
374.562	1	14
374.733	1	13
374.904	1	6
375.075	1	6
375.246	1	16
375.417	1	5
375.588	1	5
375.758	1	14
375.929	1	-5
376.100	1	5
376.271	1	5
376.442	1	11
376.613	1	12
376.784	1	11
376.955	1	10
377.125	1	12
377.296	1	5
377.467	1	14
377.638	1	0
377.809	1	18
377.980	1	3
378.151	1	9
378.321	1	2
378.492	1	2
378.663	1	8
378.834	1	-1
379.005	1	-1
379.176	1	2
379.347	1	21
379.518	1	16
379.688	1	-1
379.859	1	4
380.030	1	6
380.201	1	-4
380.372	1	2
380.543	1	5
380.714	1	7
380.884	1	9
381.055	1	-3
381.226	1	9
381.397	1	18
381.568	1	0
381.739	1	-4
381.910	1	7
382.080	1	-5
382.251	1	3
382.422	1	5
382.593	1	6
382.764	1	4
382.935	1	2
383.105	1	12
383.276	1	1
383.447	1	-2
383.618	1	8
383.789	1	4
383.960	1	-5
384.130	1	2
384.301	1	15
384.472	1	3
384.643	1	0
384.814	1	10
384.985	1	10
385.156	1	4
385.326	1	4
385.497	1	-5
385.668	1	10
385.839	1	-1
386.010	1	9
386.180	1	6
386.351	1	-2
386.522	1	12
386.693	1	-2
386.864	1	0
387.035	1	10
387.205	1	-8
387.376	1	0
387.547	1	20
387.718	1	5
387.889	1	-3
388.060	1	-3
388.230	1	7
388.401	1	4
388.572	1	-5
388.743	1	3
388.914	1	5
389.084	1	3
389.255	1	4
389.426	1	-6
389.597	1	-12
389.768	1	8
389.939	1	7
390.109	1	3
390.280	1	2
390.451	1	-2
390.622	1	-5
390.793	1	4
390.963	1	9
391.134	1	-8
391.305	1	-4
391.476	1	6
391.647	1	2
391.817	1	4
391.988	1	5
392.159	1	1
392.330	1	-5
392.501	1	5
392.671	1	-10
392.842	1	7
393.013	1	-2
393.184	1	7
393.355	1	-7
393.525	1	2
393.696	1	18
393.867	1	4
394.038	1	3
394.208	1	-2
394.379	1	8
394.550	1	-1
394.721	1	-1
394.892	1	5
395.062	1	0
395.233	1	-14
395.404	1	-4
395.575	1	12
395.746	1	1
395.916	1	1
396.087	1	2
396.258	1	8
396.429	1	0
396.599	1	2
396.770	1	-4
396.941	1	8
397.112	1	-4
397.283	1	-4
397.453	1	2
397.624	1	-4
397.795	1	8
397.966	1	11
398.136	1	8
398.307	1	0
398.478	1	7
398.649	1	3
398.819	1	0
398.990	1	-8
399.161	1	3
399.332	1	7
399.503	1	-1
399.673	1	7
399.844	1	2
400.015	1	-8
400.186	1	-13
400.356	1	-2
400.527	1	-8
400.698	1	-7
400.869	1	-2
401.039	1	-5
401.210	1	-4
401.381	1	-6
401.552	1	1
401.722	1	-10
401.893	1	-2
402.064	1	-1
402.235	1	-3
402.405	1	-10
402.576	1	2
402.747	1	-8
402.918	1	-5
403.088	1	-3
403.259	1	4
403.430	1	-8
403.601	1	1
403.771	1	4
403.942	1	4
404.113	1	3
404.284	1	0
404.454	1	-4
404.625	1	1
404.796	1	1
404.967	1	-1
405.137	1	-10
405.308	1	-4
405.479	1	-4
405.649	1	7
405.820	1	6
405.991	1	-1
406.162	1	10
406.332	1	-11
406.503	1	-10
406.674	1	4
406.845	1	15
407.015	1	0
407.186	1	-9
407.357	1	-6
407.527	1	-12
407.698	1	-5
407.869	1	-2
408.040	1	-5
408.210	1	7
408.381	1	12
408.552	1	6
408.722	1	5
408.893	1	5
409.064	1	0
409.235	1	12
409.405	1	-3
409.576	1	-3
409.747	1	3
409.917	1	-1
410.088	1	-3
410.259	1	-4
410.430	1	0
410.600	1	5
410.771	1	-9
410.942	1	-3
411.112	1	4
411.283	1	-3
411.454	1	8
411.625	1	4
411.795	1	-3
411.966	1	4
412.137	1	-5
412.307	1	8
412.478	1	0
412.649	1	2
412.819	1	4
412.990	1	5
413.161	1	-7
413.332	1	1
413.502	1	-3
413.673	1	-3
413.844	1	-4
414.014	1	9
414.185	1	-5
414.356	1	1
414.526	1	-9
414.697	1	-2
414.868	1	0
415.038	1	0
415.209	1	2
415.380	1	-8
415.550	1	3
415.721	1	-2
415.892	1	-1
416.063	1	-7
416.233	1	5
416.404	1	-4
416.575	1	-6
416.745	1	3
416.916	1	-1
417.087	1	-6
417.257	1	1
417.428	1	10
417.599	1	-5
417.769	1	1
417.940	1	-4
418.111	1	7
418.281	1	7
418.452	1	3
418.623	1	-5
418.793	1	18
418.964	1	-1
419.135	1	0
419.305	1	-1
419.476	1	8
419.647	1	-10
419.817	1	2
419.988	1	3
420.159	1	4
420.329	1	4
420.500	1	16
420.671	1	-8
420.841	1	4
421.012	1	-5
421.183	1	7
421.353	1	-4
421.524	1	0
421.695	1	3
421.865	1	-1
422.036	1	1
422.206	1	1
422.377	1	1
422.548	1	8
422.718	1	8
422.889	1	-2
423.060	1	-3
423.230	1	-1
423.401	1	15
423.572	1	10
423.742	1	-1
423.913	1	-11
424.084	1	-2
424.254	1	-8
424.425	1	-5
424.595	1	6
424.766	1	5
424.937	1	15
425.107	1	18
425.278	1	3
425.449	1	-2
425.619	1	-10
425.790	1	-4
425.961	1	-4
426.131	1	-4
426.302	1	-4
426.472	1	1
426.643	1	10
426.814	1	-3
426.984	1	-6
427.155	1	8
427.326	1	-3
427.496	1	0
427.667	1	-10
427.837	1	-6
428.008	1	5
428.179	1	8
428.349	1	-2
428.520	1	8
428.691	1	7
428.861	1	2
429.032	1	2
429.202	1	9
429.373	1	10
429.544	1	-2
429.714	1	-4
429.885	1	2
430.055	1	-2
430.226	1	2
430.397	1	5
430.567	1	-4
430.738	1	-4
430.909	1	-1
431.079	1	6
431.250	1	8
431.420	1	9
431.591	1	8
431.762	1	-5
431.932	1	-1
432.103	1	-8
432.273	1	5
432.444	1	-2
432.615	1	7
432.785	1	2
432.956	1	1
433.126	1	15
433.297	1	0
433.468	1	-13
433.638	1	-7
433.809	1	2
433.979	1	-2
434.150	1	0
434.320	1	13
434.491	1	1
434.662	1	1
434.832	1	-14
435.003	1	10
435.173	1	-5
435.344	1	-4
435.515	1	-4
435.685	1	-4
435.856	1	5
436.026	1	8
436.197	1	1
436.368	1	5
436.538	1	4
436.709	1	-10
436.879	1	1
437.050	1	4
437.220	1	16
437.391	1	1
437.562	1	8
437.732	1	2
437.903	1	-2
438.073	1	7
438.244	1	5
438.414	1	-14
438.585	1	-6
438.756	1	6
438.926	1	-4
439.097	1	4
439.267	1	-2
439.438	1	1
439.608	1	2
439.779	1	6
439.949	1	4
440.120	1	-8
440.291	1	-8
440.461	1	-4
440.632	1	5
440.802	1	-2
440.973	1	5
441.143	1	-1
441.314	1	-6
441.485	1	8
441.655	1	-5
441.826	1	6
441.996	1	-11
442.167	1	-7
442.337	1	2
442.508	1	-8
442.678	1	-4
442.849	1	13
443.019	1	7
443.190	1	-1
443.361	1	3
443.531	1	0
443.702	1	9
443.872	1	2
444.043	1	-2
444.213	1	5
444.384	1	5
444.554	1	1
444.725	1	16
444.895	1	1
445.066	1	2
445.237	1	-8
445.407	1	-5
445.578	1	6
445.748	1	-8
445.919	1	-8
446.089	1	22
446.260	1	-10
446.430	1	6
446.601	1	-2
446.771	1	2
446.942	1	-12
447.112	1	-5
447.283	1	6
447.453	1	1
447.624	1	0
447.794	1	8
447.965	1	3
448.135	1	4
448.306	1	13
448.477	1	-4
448.647	1	-17
448.818	1	12
448.988	1	0
449.159	1	1
449.329	1	-6
449.500	1	-8
449.670	1	-7
449.841	1	-9
450.011	1	8
450.182	1	11
450.352	1	8
450.523	1	-6
450.693	1	-5
450.864	1	-4
451.034	1	8
451.205	1	2
451.375	1	-1
451.546	1	-3
451.716	1	-1
451.887	1	5
452.057	1	-4
452.228	1	12
452.398	1	7
452.569	1	13
452.739	1	3
452.910	1	2
453.080	1	0
453.251	1	-1
453.421	1	-4
453.592	1	10
453.762	1	-2
453.933	1	-6
454.103	1	-14
454.274	1	3
454.444	1	3
454.615	1	-2
454.785	1	4
454.956	1	-4
455.126	1	0
455.297	1	8
455.467	1	5
455.638	1	2
455.808	1	-7
455.979	1	-6
456.149	1	5
456.320	1	-11
456.490	1	-1
456.661	1	-10
456.831	1	-9
457.001	1	4
457.172	1	-8
457.342	1	6
457.513	1	3
457.683	1	6
457.854	1	0
458.024	1	-7
458.195	1	-7
458.365	1	4
458.536	1	5
458.706	1	11
458.877	1	2
459.047	1	3
459.218	1	3
459.388	1	5
459.559	1	7
459.729	1	-1
459.899	1	-2
460.070	1	-3
460.240	1	-1
460.411	1	0
460.581	1	-7
460.752	1	1
460.922	1	-11
461.093	1	0
461.263	1	9
461.434	1	7
461.604	1	-1
461.775	1	-3
461.945	1	0
462.115	1	10
462.286	1	8
462.456	1	-1
462.627	1	-2
462.797	1	6
462.968	1	2
463.138	1	2
463.309	1	0
463.479	1	5
463.649	1	11
463.820	1	-3
463.990	1	12
464.161	1	-9
464.331	1	-10
464.502	1	-1
464.672	1	11
464.843	1	3
465.013	1	5
465.183	1	0
465.354	1	0
465.524	1	10
465.695	1	-2
465.865	1	3
466.036	1	-14
466.206	1	2
466.376	1	-5
466.547	1	1
466.717	1	11
466.888	1	-7
467.058	1	5
467.229	1	11
467.399	1	11
467.569	1	7
467.740	1	-6
467.910	1	-4
468.081	1	0
468.251	1	8
468.422	1	6
468.592	1	8
468.762	1	4
468.933	1	9
469.103	1	9
469.274	1	1
469.444	1	0
469.614	1	0
469.785	1	-6
469.955	1	-8
470.126	1	-3
470.296	1	4
470.467	1	4
470.637	1	0
470.807	1	14
470.978	1	-3
471.148	1	0
471.319	1	5
471.489	1	2
471.659	1	-4
471.830	1	-1
472.000	1	-4
472.171	1	-3
472.341	1	-8
472.511	1	6
472.682	1	-2
472.852	1	-11
473.023	1	0
473.193	1	5
473.363	1	9
473.534	1	7
473.704	1	0
473.875	1	14
474.045	1	8
474.215	1	-8
474.386	1	-7
474.556	1	7
474.727	1	3
474.897	1	-8
475.067	1	6
475.238	1	0
475.408	1	-10
475.578	1	-8
475.749	1	7
475.919	1	5
476.090	1	-1
476.260	1	-5
476.430	1	7
476.601	1	-4
476.771	1	3
476.942	1	-9
477.112	1	2
477.282	1	-6
477.453	1	7
477.623	1	11
477.793	1	-11
477.964	1	4
478.134	1	5
478.305	1	3
478.475	1	-2
478.645	1	2
478.816	1	-1
478.986	1	10
479.156	1	-1
479.327	1	4
479.497	1	-1
479.667	1	-4
479.838	1	-6
480.008	1	1
480.179	1	4
480.349	1	2
480.519	1	2
480.690	1	6
480.860	1	5
481.030	1	3
481.201	1	0
481.371	1	8
481.541	1	-2
481.712	1	3
481.882	1	10
482.053	1	-1
482.223	1	3
482.393	1	-1
482.564	1	-5
482.734	1	7
482.904	1	-4
483.075	1	10
483.245	1	-5
483.415	1	-4
483.586	1	2
483.756	1	10
483.926	1	-6
484.097	1	5
484.267	1	-1
484.437	1	4
484.608	1	4
484.778	1	-6
484.948	1	4
485.119	1	1
485.289	1	-2
485.459	1	8
485.630	1	3
485.800	1	-6
485.970	1	-2
486.141	1	0
486.311	1	-9
486.481	1	-7
486.652	1	-5
486.822	1	3
486.992	1	13
487.163	1	-4
487.333	1	-5
487.503	1	-3
487.674	1	3
487.844	1	0
488.014	1	5
488.185	1	-5
488.355	1	-12
488.525	1	0
488.696	1	2
488.866	1	1
489.036	1	2
489.207	1	0
489.377	1	-1
489.547	1	3
489.718	1	-3
489.888	1	3
490.058	1	-5
490.228	1	3
490.399	1	-7
490.569	1	3
490.739	1	2
490.910	1	0
491.080	1	-4
491.250	1	9
491.421	1	9
491.591	1	-7
491.761	1	12
491.932	1	5
492.102	1	-7
492.272	1	-2
492.442	1	1
492.613	1	2
492.783	1	-9
492.953	1	6
493.124	1	-9
493.294	1	5
493.464	1	6
493.635	1	12
493.805	1	14
493.975	1	1
494.145	1	0
494.316	1	-6
494.486	1	-2
494.656	1	-3
494.827	1	-2
494.997	1	3
495.167	1	17
495.337	1	0
495.508	1	3
495.678	1	6
495.848	1	4
496.019	1	13
496.189	1	3
496.359	1	-5
496.529	1	-1
496.700	1	7
496.870	1	0
497.040	1	-1
497.211	1	7
497.381	1	4
497.551	1	2
497.721	1	-8
497.892	1	2
498.062	1	0
498.232	1	-1
498.403	1	0
498.573	1	9
498.743	1	-2
498.913	1	1
499.084	1	2
499.254	1	-3
499.424	1	-2
499.594	1	-2
499.765	1	0
499.935	1	-2
500.105	1	-2
500.275	1	1
500.446	1	-1
500.616	1	6
500.786	1	-1
500.956	1	10
501.127	1	3
501.297	1	-6
501.467	1	-4
501.638	1	-4
501.808	1	1
501.978	1	4
502.148	1	-3
502.319	1	9
502.489	1	6
502.659	1	4
502.829	1	3
503.000	1	4
503.170	1	6
503.340	1	3
503.510	1	-8
503.681	1	7
503.851	1	0
504.021	1	11
504.191	1	2
504.362	1	-4
504.532	1	-12
504.702	1	3
504.872	1	-5
505.042	1	10
505.213	1	-1
505.383	1	7
505.553	1	9
505.723	1	5
505.894	1	-8
506.064	1	-5
506.234	1	2
506.404	1	10
506.575	1	7
506.745	1	-4
506.915	1	-5
507.085	1	4
507.256	1	6
507.426	1	5
507.596	1	-2
507.766	1	9
507.936	1	-3
508.107	1	9
508.277	1	7
508.447	1	-7
508.617	1	-2
508.788	1	-3
508.958	1	2
509.128	1	-1
509.298	1	-7
509.468	1	9
509.639	1	8
509.809	1	0
509.979	1	12
510.149	1	6
510.319	1	4
510.490	1	10
510.660	1	10
510.830	1	1
511.000	1	-5
511.171	1	-4
511.341	1	0
511.511	1	-6
511.681	1	10
511.851	1	1
512.022	1	3
512.192	1	4
512.362	1	8
512.532	1	10
512.702	1	-6
512.873	1	3
513.043	1	0
513.213	1	-6
513.383	1	-6
513.553	1	-5
513.724	1	3
513.894	1	5
514.064	1	9
514.234	1	2
514.404	1	-2
514.575	1	17
514.745	1	-6
514.915	1	1
515.085	1	5
515.255	1	2
515.425	1	6
515.596	1	12
515.766	1	2
515.936	1	13
516.106	1	-3
516.276	1	15
516.447	1	5
516.617	1	-2
516.787	1	11
516.957	1	-7
517.127	1	11
517.297	1	-8
517.468	1	10
517.638	1	-7
517.808	1	4
517.978	1	2
518.148	1	19
518.319	1	3
518.489	1	5
518.659	1	-1
518.829	1	0
518.999	1	3
519.169	1	10
519.340	1	0
519.510	1	-8
519.680	1	-1
519.850	1	3
520.020	1	-6
520.190	1	7
520.361	1	-2
520.531	1	-1
520.701	1	5
520.871	1	-1
521.041	1	2
521.211	1	-8
521.382	1	-1
521.552	1	4
521.722	1	15
521.892	1	-1
522.062	1	3
522.232	1	3
522.402	1	12
522.573	1	1
522.743	1	0
522.913	1	-4
523.083	1	10
523.253	1	-13
523.423	1	8
523.593	1	-5
523.764	1	9
523.934	1	2
524.104	1	-5
524.274	1	-5
524.444	1	-5
524.614	1	10
524.784	1	7
524.955	1	-7
525.125	1	0
525.295	1	9
525.465	1	21
525.635	1	1
525.805	1	7
525.975	1	6
526.146	1	-4
526.316	1	2
526.486	1	4
526.656	1	9
526.826	1	14
526.996	1	-6
527.166	1	16
527.337	1	9
527.507	1	-1
527.677	1	-3
527.847	1	5
528.017	1	16
528.187	1	10
528.357	1	10
528.527	1	7
528.698	1	3
528.868	1	6
529.038	1	-2
529.208	1	2
529.378	1	1
529.548	1	-7
529.718	1	0
529.888	1	2
530.058	1	3
530.229	1	-3
530.399	1	5
530.569	1	-4
530.739	1	4
530.909	1	13
531.079	1	2
531.249	1	7
531.419	1	10
531.589	1	11
531.760	1	-3
531.930	1	2
532.100	1	13
532.270	1	-4
532.440	1	-7
532.610	1	6
532.780	1	1
532.950	1	-1
533.120	1	1
533.290	1	1
533.461	1	-1
533.631	1	-1
533.801	1	4
533.971	1	5
534.141	1	12
534.311	1	-3
534.481	1	5
534.651	1	9
534.821	1	-12
534.991	1	2
535.162	1	-3
535.332	1	5
535.502	1	6
535.672	1	4
535.842	1	1
536.012	1	-8
536.182	1	6
536.352	1	-2
536.522	1	9
536.692	1	-10
536.862	1	3
537.032	1	-8
537.203	1	1
537.373	1	9
537.543	1	6
537.713	1	12
537.883	1	-5
538.053	1	2
538.223	1	0
538.393	1	6
538.563	1	9
538.733	1	-4
538.903	1	0
539.073	1	12
539.243	1	-2
539.413	1	0
539.584	1	6
539.754	1	-1
539.924	1	-3
540.094	1	5
540.264	1	2
540.434	1	12
540.604	1	14
540.774	1	1
540.944	1	3
541.114	1	-3
541.284	1	13
541.454	1	0
541.624	1	1
541.794	1	6
541.964	1	-4
542.134	1	7
542.305	1	-5
542.475	1	11
542.645	1	9
542.815	1	9
542.985	1	4
543.155	1	16
543.325	1	-7
543.495	1	3
543.665	1	1
543.835	1	5
544.005	1	8
544.175	1	4
544.345	1	3
544.515	1	5
544.685	1	13
544.855	1	-1
545.025	1	10
545.195	1	0
545.365	1	2
545.535	1	14
545.705	1	-1
545.875	1	-3
546.045	1	-3
546.216	1	4
546.386	1	4
546.556	1	-4
546.726	1	3
546.896	1	9
547.066	1	6
547.236	1	10
547.406	1	5
547.576	1	4
547.746	1	-10
547.916	1	1
548.086	1	2
548.256	1	-4
548.426	1	4
548.596	1	6
548.766	1	4
548.936	1	-7
549.106	1	-1
549.276	1	-2
549.446	1	7
549.616	1	-3
549.786	1	12
549.956	1	0
550.126	1	11
550.296	1	18
550.466	1	6
550.636	1	2
550.806	1	15
550.976	1	4
551.146	1	9
551.316	1	5
551.486	1	-2
551.656	1	-9
551.826	1	-13
551.996	1	3
552.166	1	4
552.336	1	8
552.506	1	5
552.676	1	7
552.846	1	2
553.016	1	6
553.186	1	6
553.356	1	10
553.526	1	-2
553.696	1	-7
553.866	1	8
554.036	1	17
554.206	1	11
554.376	1	-8
554.546	1	3
554.716	1	4
554.886	1	-5
555.056	1	11
555.226	1	1
555.396	1	-5
555.566	1	-1
555.736	1	5
555.906	1	4
556.076	1	4
556.246	1	-6
556.416	1	6
556.586	1	-12
556.756	1	0
556.926	1	7
557.096	1	9
557.266	1	-3
557.436	1	6
557.606	1	-4
557.776	1	-2
557.946	1	-2
558.116	1	4
558.286	1	-12
558.456	1	-2
558.626	1	1
558.796	1	7
558.966	1	-1
559.136	1	-1
559.306	1	15
559.476	1	17
559.646	1	7
559.816	1	0
559.986	1	-2
560.155	1	-13
560.325	1	-3
560.495	1	9
560.665	1	8
560.835	1	3
561.005	1	8
561.175	1	0
561.345	1	3
561.515	1	5
561.685	1	6
561.855	1	-2
562.025	1	16
562.195	1	9
562.365	1	3
562.535	1	7
562.705	1	1
562.875	1	-3
563.045	1	3
563.215	1	1
563.385	1	6
563.555	1	-5
563.725	1	6
563.895	1	8
564.064	1	2
564.234	1	6
564.404	1	-4
564.574	1	-3
564.744	1	-1
564.914	1	4
565.084	1	-10
565.254	1	4
565.424	1	5
565.594	1	1
565.764	1	3
565.934	1	5
566.104	1	8
566.274	1	9
566.444	1	4
566.614	1	2
566.783	1	4
566.953	1	2
567.123	1	15
567.293	1	-8
567.463	1	-3
567.633	1	-7
567.803	1	6
567.973	1	13
568.143	1	10
568.313	1	3
568.483	1	12
568.653	1	6
568.823	1	4
568.993	1	6
569.162	1	1
569.332	1	7
569.502	1	12
569.672	1	6
569.842	1	1
570.012	1	9
570.182	1	9
570.352	1	1
570.522	1	1
570.692	1	-7
570.862	1	-4
571.031	1	3
571.201	1	0
571.371	1	-1
571.541	1	5
571.711	1	3
571.881	1	-2
572.051	1	-4
572.221	1	-2
572.391	1	1
572.561	1	-2
572.731	1	-14
572.900	1	7
573.070	1	1
573.240	1	-3
573.410	1	-5
573.580	1	11
573.750	1	5
573.920	1	4
574.090	1	5
574.260	1	1
574.430	1	-4
574.599	1	-1
574.769	1	0
574.939	1	1
575.109	1	0
575.279	1	3
575.449	1	6
575.619	1	-2
575.789	1	1
575.959	1	-6
576.128	1	7
576.298	1	2
576.468	1	7
576.638	1	2
576.808	1	13
576.978	1	-8
577.148	1	6
577.318	1	1
577.487	1	5
577.657	1	5
577.827	1	-6
577.997	1	-2
578.167	1	4
578.337	1	8
578.507	1	11
578.677	1	1
578.846	1	2
579.016	1	12
579.186	1	11
579.356	1	1
579.526	1	3
579.696	1	1
579.866	1	8
580.036	1	1
580.205	1	4
580.375	1	2
580.545	1	8
580.715	1	-6
580.885	1	-2
581.055	1	-3
581.225	1	-3
581.394	1	4
581.564	1	-5
581.734	1	1
581.904	1	-4
582.074	1	5
582.244	1	4
582.414	1	-3
582.583	1	-1
582.753	1	1
582.923	1	6
583.093	1	3
583.263	1	5
583.433	1	-3
583.603	1	7
583.772	1	7
583.942	1	0
584.112	1	0
584.282	1	10
584.452	1	-2
584.622	1	2
584.791	1	-1
584.961	1	3
585.131	1	-3
585.301	1	-4
585.471	1	15
585.641	1	2
585.811	1	3
585.980	1	9
586.150	1	-4
586.320	1	0
586.490	1	-7
586.660	1	-9
586.830	1	5
586.999	1	3
587.169	1	-1
587.339	1	-3
587.509	1	-2
587.679	1	5
587.849	1	-6
588.018	1	10
588.188	1	2
588.358	1	-2
588.528	1	1
588.698	1	6
588.867	1	1
589.037	1	3
589.207	1	-1
589.377	1	8
589.547	1	8
589.717	1	1
589.886	1	-2
590.056	1	-4
590.226	1	2
590.396	1	5
590.566	1	3
590.735	1	12
590.905	1	-8
591.075	1	-6
591.245	1	12
591.415	1	-3
591.585	1	-5
591.754	1	10
591.924	1	13
592.094	1	-2
592.264	1	-2
592.434	1	-13
592.603	1	11
592.773	1	-13
592.943	1	6
593.113	1	-6
593.283	1	12
593.452	1	0
593.622	1	10
593.792	1	3
593.962	1	2
594.132	1	5
594.301	1	3
594.471	1	7
594.641	1	1
594.811	1	-2
594.981	1	-9
595.150	1	10
595.320	1	3
595.490	1	10
595.660	1	12
595.829	1	2
595.999	1	12
596.169	1	16
596.339	1	-5
596.509	1	7
596.678	1	6
596.848	1	3
597.018	1	2
597.188	1	-2
597.358	1	-7
597.527	1	-1
597.697	1	-8
597.867	1	-5
598.037	1	4
598.206	1	-5
598.376	1	-11
598.546	1	-10
598.716	1	-2
598.885	1	12
599.055	1	-1
599.225	1	0
599.395	1	-1
599.565	1	0
599.734	1	1
599.904	1	-4
600.074	1	2
600.244	1	13
600.413	1	6
600.583	1	9
600.753	1	8
600.923	1	0
601.092	1	6
601.262	1	5
601.432	1	0
601.602	1	9
601.771	1	3
601.941	1	5
602.111	1	0
602.281	1	0
602.451	1	0
602.620	1	-5
602.790	1	9
602.960	1	-2
603.130	1	5
603.299	1	8
603.469	1	1
603.639	1	6
603.809	1	-5
603.978	1	-2
604.148	1	12
604.318	1	5
604.487	1	-4
604.657	1	2
604.827	1	-2
604.997	1	10
605.166	1	3
605.336	1	-5
605.506	1	-4
605.676	1	-1
605.845	1	3
606.015	1	4
606.185	1	1
606.355	1	11
606.524	1	1
606.694	1	-6
606.864	1	-6
607.034	1	0
607.203	1	1
607.373	1	8
607.543	1	-4
607.712	1	-2
607.882	1	4
608.052	1	-1
608.222	1	-3
608.391	1	-4
608.561	1	9
608.731	1	1
608.901	1	-5
609.070	1	0
609.240	1	9
609.410	1	1
609.579	1	-1
609.749	1	5
609.919	1	0
610.089	1	-4
610.258	1	-6
610.428	1	4
610.598	1	2
610.767	1	-4
610.937	1	-3
611.107	1	-5
611.277	1	2
611.446	1	5
611.616	1	11
611.786	1	8
611.955	1	-4
612.125	1	1
612.295	1	5
612.465	1	4
612.634	1	4
612.804	1	6
612.974	1	-10
613.143	1	-1
613.313	1	6
613.483	1	-1
613.652	1	2
613.822	1	1
613.992	1	0
614.162	1	-1
614.331	1	1
614.501	1	0
614.671	1	5
614.840	1	10
615.010	1	-3
615.180	1	0
615.349	1	-2
615.519	1	12
615.689	1	5
615.858	1	0
616.028	1	5
616.198	1	-7
616.368	1	6
616.537	1	-3
616.707	1	13
616.877	1	5
617.046	1	2
617.216	1	25
617.386	1	1
617.555	1	4
617.725	1	-6
617.895	1	5
618.064	1	-2
618.234	1	4
618.404	1	2
618.573	1	0
618.743	1	10
618.913	1	4
619.082	1	3
619.252	1	6
619.422	1	3
619.591	1	-9
619.761	1	-5
619.931	1	-3
620.100	1	-8
620.270	1	9
620.440	1	-9
620.609	1	2
620.779	1	-3
620.949	1	8
621.118	1	4
621.288	1	-3
621.458	1	4
621.627	1	4
621.797	1	7
621.967	1	3
622.136	1	2
622.306	1	-2
622.476	1	-1
622.645	1	1
622.815	1	-11
622.985	1	-6
623.154	1	0
623.324	1	5
623.494	1	9
623.663	1	12
623.833	1	-13
624.002	1	2
624.172	1	2
624.342	1	8
624.511	1	8
624.681	1	5
624.851	1	3
625.020	1	12
625.190	1	-1
625.360	1	6
625.529	1	-12
625.699	1	0
625.869	1	-5
626.038	1	3
626.208	1	3
626.377	1	8
626.547	1	3
626.717	1	15
626.886	1	3
627.056	1	7
627.226	1	0
627.395	1	0
627.565	1	1
627.735	1	5
627.904	1	10
628.074	1	1
628.243	1	11
628.413	1	8
628.583	1	1
628.752	1	-1
628.922	1	2
629.091	1	0
629.261	1	0
629.431	1	6
629.600	1	-2
629.770	1	1
629.940	1	-12
630.109	1	-7
630.279	1	6
630.448	1	-3
630.618	1	4
630.788	1	-1
630.957	1	4
631.127	1	0
631.297	1	8
631.466	1	-4
631.636	1	-3
631.805	1	4
631.975	1	2
632.145	1	13
632.314	1	-8
632.484	1	6
632.653	1	-1
632.823	1	-7
632.993	1	0
633.162	1	-2
633.332	1	-10
633.501	1	-4
633.671	1	-4
633.841	1	-6
634.010	1	0
634.180	1	-5
634.349	1	3
634.519	1	-1
634.689	1	13
634.858	1	-4
635.028	1	-1
635.197	1	2
635.367	1	1
635.537	1	-14
635.706	1	7
635.876	1	-2
636.045	1	1
636.215	1	-13
636.384	1	6
636.554	1	12
636.724	1	0
636.893	1	0
637.063	1	0
637.232	1	3
637.402	1	2
637.572	1	6
637.741	1	5
637.911	1	-8
638.080	1	3
638.250	1	1
638.419	1	1
638.589	1	-8
638.759	1	2
638.928	1	2
639.098	1	8
639.267	1	-11
639.437	1	4
639.606	1	-5
639.776	1	1
639.946	1	9
640.115	1	-1
640.285	1	-1
640.454	1	-2
640.624	1	13
640.793	1	-1
640.963	1	2
641.132	1	5
641.302	1	3
641.472	1	7
641.641	1	-7
641.811	1	-1
641.980	1	-10
642.150	1	6
642.319	1	4
642.489	1	0
642.659	1	-5
642.828	1	2
642.998	1	-5
643.167	1	0
643.337	1	-5
643.506	1	3
643.676	1	-5
643.845	1	0
644.015	1	4
644.184	1	2
644.354	1	-1
644.524	1	3
644.693	1	-4
644.863	1	11
645.032	1	6
645.202	1	6
645.371	1	-9
645.541	1	-7
645.710	1	5
645.880	1	8
646.049	1	-10
646.219	1	0
646.388	1	-5
646.558	1	3
646.728	1	10
646.897	1	-7
647.067	1	7
647.236	1	0
647.406	1	10
647.575	1	-4
647.745	1	0
647.914	1	-10
648.084	1	-1
648.253	1	0
648.423	1	2
648.592	1	0
648.762	1	-1
648.931	1	0
649.101	1	0
649.270	1	-3
649.440	1	5
649.610	1	-8
649.779	1	4
649.949	1	-10
650.118	1	0
650.288	1	0
650.457	1	-1
650.627	1	0
650.796	1	-4
650.966	1	-11
651.135	1	0
651.305	1	0
651.474	1	0
651.644	1	-4
651.813	1	11
651.983	1	18
652.152	1	3
652.322	1	-7
652.491	1	2
652.661	1	1
652.830	1	6
653.000	1	-1
653.169	1	6
653.339	1	10
653.508	1	3
653.678	1	-3
653.847	1	-5
654.017	1	4
654.186	1	4
654.356	1	6
654.525	1	3
654.695	1	-5
654.864	1	11
655.034	1	-4
655.203	1	-9
655.373	1	-3
655.542	1	11
655.712	1	-6
655.881	1	3
656.051	1	5
656.220	1	-1
656.390	1	10
656.559	1	0
656.729	1	5
656.898	1	7
657.068	1	-2
657.237	1	0
657.406	1	1
657.576	1	-8
657.745	1	2
657.915	1	4
658.084	1	-2
658.254	1	7
658.423	1	4
658.593	1	-1
658.762	1	9
658.932	1	-1
659.101	1	-6
659.271	1	4
659.440	1	-1
659.610	1	11
659.779	1	5
659.949	1	6
660.118	1	3
660.288	1	-7
660.457	1	6
660.626	1	8
660.796	1	-5
660.965	1	-7
661.135	1	6
661.304	1	5
661.474	1	3
661.643	1	10
661.813	1	11
661.982	1	-5
662.152	1	-1
662.321	1	-3
662.491	1	-3
662.660	1	2
662.829	1	-10
662.999	1	17
663.168	1	3
663.338	1	-8
663.507	1	-4
663.677	1	-9
663.846	1	-2
664.016	1	0
664.185	1	6
664.354	1	0
664.524	1	-8
664.693	1	5
664.863	1	2
665.032	1	16
665.202	1	2
665.371	1	-5
665.541	1	0
665.710	1	3
665.879	1	6
666.049	1	0
666.218	1	-5
666.388	1	8
666.557	1	9
666.727	1	-12
666.896	1	2
667.065	1	6
667.235	1	-4
667.404	1	0
667.574	1	3
667.743	1	8
667.913	1	-3
668.082	1	3
668.251	1	8
668.421	1	0
668.590	1	11
668.760	1	-3
668.929	1	-3
669.099	1	1
669.268	1	2
669.437	1	3
669.607	1	-2
669.776	1	5
669.946	1	2
670.115	1	5
670.285	1	0
670.454	1	5
670.623	1	-5
670.793	1	6
670.962	1	2
671.132	1	0
671.301	1	-3
671.470	1	8
671.640	1	-3
671.809	1	-10
671.979	1	2
672.148	1	0
672.317	1	9
672.487	1	-5
672.656	1	4
672.826	1	4
672.995	1	-7
673.164	1	9
673.334	1	1
673.503	1	-10
673.673	1	-13
673.842	1	-10
674.011	1	-6
674.181	1	14
674.350	1	9
674.520	1	7
674.689	1	-4
674.858	1	-12
675.028	1	9
675.197	1	8
675.367	1	-11
675.536	1	11
675.705	1	3
675.875	1	-9
676.044	1	5
676.214	1	3
676.383	1	7
676.552	1	0
676.722	1	-5
676.891	1	-11
677.060	1	-8
677.230	1	1
677.399	1	12
677.569	1	4
677.738	1	8
677.907	1	8
678.077	1	11
678.246	1	-8
678.416	1	-7
678.585	1	0
678.754	1	-4
678.924	1	2
679.093	1	6
679.262	1	11
679.432	1	9
679.601	1	16
679.771	1	-8
679.940	1	-6
680.109	1	4
680.279	1	2
680.448	1	-8
680.617	1	3
680.787	1	-6
680.956	1	-1
681.125	1	11
681.295	1	4
681.464	1	10
681.634	1	2
681.803	1	1
681.972	1	-4
682.142	1	-20
682.311	1	-1
682.480	1	0
682.650	1	-9
682.819	1	-4
682.988	1	8
683.158	1	6
683.327	1	2
683.496	1	8
683.666	1	3
683.835	1	-3
684.004	1	1
684.174	1	0
684.343	1	1
684.512	1	-3
684.682	1	-2
684.851	1	8
685.021	1	1
685.190	1	16
685.359	1	-7
685.529	1	-2
685.698	1	-9
685.867	1	3
686.037	1	-7
686.206	1	8
686.375	1	12
686.545	1	-3
686.714	1	-3
686.883	1	9
687.053	1	-4
687.222	1	7
687.391	1	6
687.561	1	0
687.730	1	-3
687.899	1	5
688.069	1	-5
688.238	1	4
688.407	1	3
688.577	1	1
688.746	1	3
