340.368	1	9
340.539	1	3
340.710	1	3
340.881	1	4
341.052	1	12
341.223	1	-1
341.394	1	0
341.565	1	0
341.737	1	7
341.908	1	6
342.079	1	12
342.250	1	11
342.421	1	2
342.592	1	0
342.763	1	6
342.934	1	6
343.105	1	-4
343.276	1	1
343.447	1	8
343.618	1	9
343.789	1	23
343.960	1	3
344.131	1	15
344.302	1	9
344.473	1	7
344.644	1	10
344.815	1	-7
344.986	1	-4
345.157	1	5
345.328	1	1
345.499	1	7
345.670	1	11
345.841	1	0
346.012	1	5
346.183	1	-5
346.354	1	11
346.526	1	0
346.697	1	1
346.868	1	4
347.039	1	6
347.210	1	-1
347.381	1	5
347.552	1	6
347.723	1	4
347.894	1	0
348.065	1	-3
348.236	1	-5
348.407	1	10
348.578	1	3
348.749	1	0
348.920	1	4
349.091	1	3
349.262	1	2
349.433	1	14
349.604	1	11
349.775	1	6
349.946	1	0
350.117	1	14
350.288	1	9
350.459	1	4
350.630	1	4
350.801	1	7
350.972	1	17
351.143	1	-2
351.314	1	2
351.485	1	1
351.656	1	11
351.827	1	2
351.998	1	18
352.169	1	4
352.340	1	6
352.511	1	13
352.682	1	3
352.853	1	11
353.024	1	18
353.195	1	16
353.366	1	7
353.537	1	17
353.708	1	1
353.879	1	14
354.050	1	9
354.221	1	9
354.392	1	8
354.563	1	19
354.734	1	-2
354.905	1	28
355.076	1	26
355.247	1	18
355.418	1	22
355.589	1	29
355.760	1	5
355.931	1	18
356.102	1	22
356.273	1	18
356.444	1	16
356.615	1	9
356.785	1	18
356.956	1	40
357.127	1	24
357.298	1	17
357.469	1	25
357.640	1	21
357.811	1	17
357.982	1	14
358.153	1	8
358.324	1	20
358.495	1	18
358.666	1	27
358.837	1	20
359.008	1	33
359.179	1	32
359.350	1	29
359.521	1	42
359.692	1	35
359.863	1	33
360.034	1	28
360.205	1	45
360.376	1	43
360.547	1	50
360.718	1	58
360.889	1	51
361.060	1	44
361.231	1	49
361.401	1	56
361.572	1	53
361.743	1	60
361.914	1	55
362.085	1	65
362.256	1	68
362.427	1	66
362.598	1	63
362.769	1	84
362.940	1	66
363.111	1	74
363.282	1	96
363.453	1	98
363.624	1	88
363.795	1	94
363.966	1	100
364.137	1	114
364.308	1	119
364.478	1	117
364.649	1	126
364.820	1	138
364.991	1	127
365.162	1	153
365.333	1	141
365.504	1	142
365.675	1	148
365.846	1	174
366.017	1	160
366.188	1	175
366.359	1	188
366.530	1	201
366.701	1	201
366.871	1	204
367.042	1	193
367.213	1	214
367.384	1	220
367.555	1	224
367.726	1	221
367.897	1	230
368.068	1	239
368.239	1	238
368.410	1	221
368.581	1	243
368.752	1	230
368.923	1	235
369.093	1	226
369.264	1	228
369.435	1	221
369.606	1	234
369.777	1	228
369.948	1	219
370.119	1	213
370.290	1	199
370.461	1	227
370.632	1	197
370.803	1	201
370.973	1	193
371.144	1	188
371.315	1	176
371.486	1	193
371.657	1	175
371.828	1	168
371.999	1	161
372.170	1	172
372.341	1	165
372.512	1	142
372.682	1	130
372.853	1	150
373.024	1	145
373.195	1	130
373.366	1	129
373.537	1	128
373.708	1	126
373.879	1	121
374.050	1	128
374.220	1	111
374.391	1	112
374.562	1	120
374.733	1	116
374.904	1	103
375.075	1	103
375.246	1	111
375.417	1	93
375.588	1	92
375.758	1	107
375.929	1	86
376.100	1	94
376.271	1	98
376.442	1	80
376.613	1	102
376.784	1	80
376.955	1	84
377.125	1	98
377.296	1	85
377.467	1	81
377.638	1	68
377.809	1	70
377.980	1	79
378.151	1	77
378.321	1	75
378.492	1	74
378.663	1	65
378.834	1	62
379.005	1	49
379.176	1	66
379.347	1	70
379.518	1	63
379.688	1	54
379.859	1	60
380.030	1	63
380.201	1	55
380.372	1	52
380.543	1	53
380.714	1	58
380.884	1	42
381.055	1	45
381.226	1	49
381.397	1	57
381.568	1	46
381.739	1	41
381.910	1	45
382.080	1	39
382.251	1	59
382.422	1	35
382.593	1	51
382.764	1	38
382.935	1	50
383.105	1	35
383.276	1	47
383.447	1	34
383.618	1	45
383.789	1	48
383.960	1	33
384.130	1	41
384.301	1	44
384.472	1	31
384.643	1	25
384.814	1	27
384.985	1	32
385.156	1	41
385.326	1	39
385.497	1	22
385.668	1	36
385.839	1	28
386.010	1	47
386.180	1	28
386.351	1	20
386.522	1	35
386.693	1	21
386.864	1	19
387.035	1	41
387.205	1	14
387.376	1	28
387.547	1	36
387.718	1	25
387.889	1	28
388.060	1	18
388.230	1	31
388.401	1	23
388.572	1	18
388.743	1	22
388.914	1	29
389.084	1	19
389.255	1	28
389.426	1	21
389.597	1	11
389.768	1	36
389.939	1	17
390.109	1	21
390.280	1	38
390.451	1	15
390.622	1	13
390.793	1	24
390.963	1	30
391.134	1	8
391.305	1	7
391.476	1	29
391.647	1	13
391.817	1	18
391.988	1	25
392.159	1	10
392.330	1	12
392.501	1	23
392.671	1	11
392.842	1	16
393.013	1	12
393.184	1	16
393.355	1	10
393.525	1	3
393.696	1	23
393.867	1	16
394.038	1	10
394.208	1	18
394.379	1	21
394.550	1	9
394.721	1	7
394.892	1	18
395.062	1	26
395.233	1	6
395.404	1	15
395.575	1	16
395.746	1	10
395.916	1	14
396.087	1	23
396.258	1	15
396.429	1	8
396.599	1	13
396.770	1	12
396.941	1	17
397.112	1	2
397.283	1	17
397.453	1	24
397.624	1	7
397.795	1	18
397.966	1	19
398.136	1	5
398.307	1	16
398.478	1	13
398.649	1	22
398.819	1	11
398.990	1	9
399.161	1	18
399.332	1	6
399.503	1	12
399.673	1	10
399.844	1	7
400.015	1	2
400.186	1	6
400.356	1	15
400.527	1	6
400.698	1	19
400.869	1	-2
401.039	1	0
401.210	1	9
401.381	1	12
401.552	1	7
401.722	1	4
401.893	1	6
402.064	1	6
402.235	1	4
402.405	1	4
402.576	1	1
402.747	1	10
402.918	1	5
403.088	1	8
403.259	1	16
403.430	1	9
403.601	1	4
403.771	1	17
403.942	1	4
404.113	1	12
404.284	1	13
404.454	1	6
404.625	1	8
404.796	1	12
404.967	1	9
405.137	1	5
405.308	1	2
405.479	1	6
405.649	1	6
405.820	1	11
405.991	1	13
406.162	1	14
406.332	1	7
406.503	1	-4
406.674	1	12
406.845	1	20
407.015	1	8
407.186	1	-5
407.357	1	-3
407.527	1	10
407.698	1	6
407.869	1	5
408.040	1	8
408.210	1	15
408.381	1	11
408.552	1	8
408.722	1	0
408.893	1	10
409.064	1	7
409.235	1	6
409.405	1	0
409.576	1	3
409.747	1	5
409.917	1	8
410.088	1	1
410.259	1	0
410.430	1	8
410.600	1	10
410.771	1	6
410.942	1	5
411.112	1	12
411.283	1	3
411.454	1	10
411.625	1	6
411.795	1	-2
411.966	1	8
412.137	1	-2
412.307	1	24
412.478	1	9
412.649	1	18
412.819	1	7
412.990	1	4
413.161	1	11
413.332	1	9
413.502	1	1
413.673	1	6
413.844	1	1
414.014	1	8
414.185	1	3
414.356	1	2
414.526	1	2
414.697	1	5
414.868	1	7
415.038	1	14
415.209	1	5
415.380	1	7
415.550	1	18
415.721	1	1
415.892	1	7
416.063	1	-7
416.233	1	7
416.404	1	0
416.575	1	11
416.745	1	4
416.916	1	7
417.087	1	-4
417.257	1	4
417.428	1	8
417.599	1	3
417.769	1	14
417.940	1	2
418.111	1	12
418.281	1	8
418.452	1	4
418.623	1	0
418.793	1	20
418.964	1	-5
419.135	1	8
419.305	1	14
419.476	1	26
419.647	1	1
419.817	1	6
419.988	1	13
420.159	1	8
420.329	1	4
420.500	1	14
420.671	1	1
420.841	1	7
421.012	1	8
421.183	1	-3
421.353	1	3
421.524	1	1
421.695	1	16
421.865	1	0
422.036	1	0
422.206	1	0
422.377	1	8
422.548	1	10
422.718	1	12
422.889	1	7
423.060	1	4
423.230	1	4
423.401	1	16
423.572	1	14
423.742	1	7
423.913	1	4
424.084	1	0
424.254	1	-2
424.425	1	6
424.595	1	5
424.766	1	4
424.937	1	18
425.107	1	11
425.278	1	3
425.449	1	1
425.619	1	4
425.790	1	9
425.961	1	18
426.131	1	8
426.302	1	-8
426.472	1	2
426.643	1	1
426.814	1	6
426.984	1	-9
427.155	1	19
427.326	1	5
427.496	1	3
427.667	1	-3
427.837	1	0
428.008	1	7
428.179	1	9
428.349	1	10
428.520	1	6
428.691	1	11
428.861	1	-1
429.032	1	7
429.202	1	8
429.373	1	9
429.544	1	-3
429.714	1	6
429.885	1	9
430.055	1	2
430.226	1	2
430.397	1	1
430.567	1	0
430.738	1	-2
430.909	1	8
431.079	1	11
431.250	1	6
431.420	1	5
431.591	1	9
431.762	1	2
431.932	1	1
432.103	1	-5
432.273	1	11
432.444	1	1
432.615	1	16
432.785	1	-2
432.956	1	4
433.126	1	8
433.297	1	11
433.468	1	0
433.638	1	6
433.809	1	16
433.979	1	6
434.150	1	-1
434.320	1	2
434.491	1	-4
434.662	1	9
434.832	1	-2
435.003	1	7
435.173	1	-5
435.344	1	1
435.515	1	4
435.685	1	0
435.856	1	9
436.026	1	-4
436.197	1	2
436.368	1	7
436.538	1	8
436.709	1	0
436.879	1	0
437.050	1	14
437.220	1	21
437.391	1	7
437.562	1	4
437.732	1	11
437.903	1	1
438.073	1	10
438.244	1	7
438.414	1	-1
438.585	1	-6
438.756	1	16
438.926	1	0
439.097	1	2
439.267	1	1
439.438	1	7
439.608	1	12
439.779	1	10
439.949	1	7
440.120	1	4
440.291	1	-3
440.461	1	-3
440.632	1	4
440.802	1	10
440.973	1	17
441.143	1	2
441.314	1	3
441.485	1	9
441.655	1	-5
441.826	1	7
441.996	1	1
442.167	1	-2
442.337	1	3
442.508	1	-6
442.678	1	-1
442.849	1	16
443.019	1	11
443.190	1	3
443.361	1	-3
443.531	1	4
443.702	1	12
443.872	1	0
444.043	1	17
444.213	1	7
444.384	1	10
444.554	1	2
444.725	1	13
444.895	1	0
445.066	1	5
445.237	1	2
445.407	1	4
445.578	1	14
445.748	1	-5
445.919	1	6
446.089	1	22
446.260	1	-3
446.430	1	12
446.601	1	8
446.771	1	2
446.942	1	-6
447.112	1	3
447.283	1	10
447.453	1	3
447.624	1	4
447.794	1	14
447.965	1	7
448.135	1	6
448.306	1	6
448.477	1	6
448.647	1	4
448.818	1	2
448.988	1	6
449.159	1	8
449.329	1	17
449.500	1	-2
449.670	1	-2
449.841	1	-5
450.011	1	0
450.182	1	6
450.352	1	11
450.523	1	2
450.693	1	-3
450.864	1	1
451.034	1	13
451.205	1	3
451.375	1	-2
451.546	1	1
451.716	1	1
451.887	1	5
452.057	1	4
452.228	1	13
452.398	1	15
452.569	1	11
452.739	1	8
452.910	1	8
453.080	1	8
453.251	1	2
453.421	1	-1
453.592	1	4
453.762	1	8
453.933	1	-3
454.103	1	6
454.274	1	5
454.444	1	3
454.615	1	-5
454.785	1	8
454.956	1	6
455.126	1	3
455.297	1	6
455.467	1	4
455.638	1	0
455.808	1	5
455.979	1	-5
456.149	1	3
456.320	1	1
456.490	1	-2
456.661	1	1
456.831	1	0
457.001	1	7
457.172	1	-5
457.342	1	4
457.513	1	6
457.683	1	6
457.854	1	6
458.024	1	-3
458.195	1	4
458.365	1	1
458.536	1	10
458.706	1	18
458.877	1	7
459.047	1	14
459.218	1	1
459.388	1	7
459.559	1	0
459.729	1	8
459.899	1	-1
460.070	1	0
460.240	1	7
460.411	1	8
460.581	1	7
460.752	1	7
460.922	1	-2
461.093	1	6
461.263	1	5
461.434	1	-1
461.604	1	8
461.775	1	-3
461.945	1	1
462.115	1	8
462.286	1	8
462.456	1	-2
462.627	1	-1
462.797	1	5
462.968	1	10
463.138	1	15
463.309	1	-4
463.479	1	0
463.649	1	9
463.820	1	10
463.990	1	6
464.161	1	0
464.331	1	3
464.502	1	4
464.672	1	18
464.843	1	1
465.013	1	2
465.183	1	-1
465.354	1	-4
465.524	1	2
465.695	1	4
465.865	1	16
466.036	1	-2
466.206	1	11
466.376	1	2
466.547	1	7
466.717	1	1
466.888	1	2
467.058	1	6
467.229	1	14
467.399	1	12
467.569	1	16
467.740	1	4
467.910	1	4
468.081	1	8
468.251	1	10
468.422	1	8
468.592	1	10
468.762	1	6
468.933	1	9
469.103	1	5
469.274	1	7
469.444	1	2
469.614	1	11
469.785	1	-5
469.955	1	-6
470.126	1	2
470.296	1	2
470.467	1	3
470.637	1	-1
470.807	1	15
470.978	1	0
471.148	1	13
471.319	1	4
471.489	1	8
471.659	1	8
471.830	1	7
472.000	1	7
472.171	1	-2
472.341	1	-5
472.511	1	8
472.682	1	6
472.852	1	12
473.023	1	11
473.193	1	6
473.363	1	12
473.534	1	19
473.704	1	4
473.875	1	7
474.045	1	14
474.215	1	8
474.386	1	7
474.556	1	19
474.727	1	3
474.897	1	-6
475.067	1	8
475.238	1	5
475.408	1	5
475.578	1	4
475.749	1	15
475.919	1	4
476.090	1	6
476.260	1	3
476.430	1	5
476.601	1	6
476.771	1	9
476.942	1	-3
477.112	1	16
477.282	1	4
477.453	1	2
477.623	1	7
477.793	1	-1
477.964	1	10
478.134	1	11
478.305	1	0
478.475	1	5
478.645	1	2
478.816	1	5
478.986	1	18
479.156	1	4
479.327	1	15
479.497	1	7
479.667	1	-2
479.838	1	10
480.008	1	7
480.179	1	12
480.349	1	2
480.519	1	11
480.690	1	4
480.860	1	11
481.030	1	5
481.201	1	7
481.371	1	5
481.541	1	4
481.712	1	7
481.882	1	15
482.053	1	0
482.223	1	13
482.393	1	1
482.564	1	4
482.734	1	16
482.904	1	0
483.075	1	11
483.245	1	4
483.415	1	8
483.586	1	17
483.756	1	10
483.926	1	3
484.097	1	13
484.267	1	6
484.437	1	12
484.608	1	9
484.778	1	7
484.948	1	18
485.119	1	13
485.289	1	11
485.459	1	19
485.630	1	6
485.800	1	2
485.970	1	8
486.141	1	10
486.311	1	2
486.481	1	6
486.652	1	6
486.822	1	-1
486.992	1	21
487.163	1	7
487.333	1	2
487.503	1	12
487.674	1	7
487.844	1	5
488.014	1	12
488.185	1	14
488.355	1	14
488.525	1	12
488.696	1	10
488.866	1	9
489.036	1	15
489.207	1	9
489.377	1	12
489.547	1	7
489.718	1	6
489.888	1	12
490.058	1	17
490.228	1	20
490.399	1	24
490.569	1	17
490.739	1	16
490.910	1	11
491.080	1	5
491.250	1	19
491.421	1	18
491.591	1	16
491.761	1	19
491.932	1	12
492.102	1	10
492.272	1	7
492.442	1	16
492.613	1	12
492.783	1	8
492.953	1	13
493.124	1	8
493.294	1	22
493.464	1	17
493.635	1	24
493.805	1	18
493.975	1	24
494.145	1	15
494.316	1	14
494.486	1	5
494.656	1	19
494.827	1	11
494.997	1	22
495.167	1	33
495.337	1	22
495.508	1	15
495.678	1	20
495.848	1	16
496.019	1	18
496.189	1	16
496.359	1	13
496.529	1	19
496.700	1	17
496.870	1	21
497.040	1	22
497.211	1	14
497.381	1	16
497.551	1	19
497.721	1	7
497.892	1	22
498.062	1	13
498.232	1	18
498.403	1	11
498.573	1	20
498.743	1	20
498.913	1	19
499.084	1	21
499.254	1	25
499.424	1	15
499.594	1	15
499.765	1	20
499.935	1	24
500.105	1	13
500.275	1	15
500.446	1	18
500.616	1	24
500.786	1	16
500.956	1	31
501.127	1	15
501.297	1	22
501.467	1	16
501.638	1	20
501.808	1	23
501.978	1	34
502.148	1	17
502.319	1	26
502.489	1	21
502.659	1	26
502.829	1	13
503.000	1	25
503.170	1	16
503.340	1	26
503.510	1	12
503.681	1	31
503.851	1	18
504.021	1	25
504.191	1	29
504.362	1	13
504.532	1	21
504.702	1	42
504.872	1	14
505.042	1	27
505.213	1	21
505.383	1	14
505.553	1	27
505.723	1	31
505.894	1	20
506.064	1	12
506.234	1	17
506.404	1	36
506.575	1	14
506.745	1	21
506.915	1	43
507.085	1	25
507.256	1	30
507.426	1	32
507.596	1	21
507.766	1	29
507.936	1	28
508.107	1	15
508.277	1	25
508.447	1	26
508.617	1	22
508.788	1	24
508.958	1	28
509.128	1	29
509.298	1	21
509.468	1	32
509.639	1	29
509.809	1	26
509.979	1	37
510.149	1	34
510.319	1	38
510.490	1	37
510.660	1	38
510.830	1	31
511.000	1	28
511.171	1	35
511.341	1	28
511.511	1	24
511.681	1	29
511.851	1	31
512.022	1	38
512.192	1	22
512.362	1	37
512.532	1	32
512.702	1	27
512.873	1	31
513.043	1	27
513.213	1	36
513.383	1	24
513.553	1	30
513.724	1	35
513.894	1	45
514.064	1	39
514.234	1	29
514.404	1	25
514.575	1	43
514.745	1	28
514.915	1	29
515.085	1	33
515.255	1	39
515.425	1	33
515.596	1	39
515.766	1	26
515.936	1	45
516.106	1	29
516.276	1	41
516.447	1	40
516.617	1	34
516.787	1	35
516.957	1	33
517.127	1	40
517.297	1	33
517.468	1	39
517.638	1	42
517.808	1	40
517.978	1	42
518.148	1	39
518.319	1	31
518.489	1	37
518.659	1	33
518.829	1	37
518.999	1	44
519.169	1	34
519.340	1	30
519.510	1	31
519.680	1	35
519.850	1	33
520.020	1	35
520.190	1	48
520.361	1	33
520.531	1	38
520.701	1	42
520.871	1	38
521.041	1	33
521.211	1	30
521.382	1	34
521.552	1	29
521.722	1	53
521.892	1	33
522.062	1	39
522.232	1	32
522.402	1	40
522.573	1	35
522.743	1	37
522.913	1	25
523.083	1	38
523.253	1	27
523.423	1	38
523.593	1	38
523.764	1	45
523.934	1	43
524.104	1	37
524.274	1	38
524.444	1	55
524.614	1	48
524.784	1	37
524.955	1	33
525.125	1	34
525.295	1	41
525.465	1	41
525.635	1	39
525.805	1	40
525.975	1	44
526.146	1	37
526.316	1	47
526.486	1	46
526.656	1	48
526.826	1	46
526.996	1	40
527.166	1	48
527.337	1	45
527.507	1	40
527.677	1	49
527.847	1	37
528.017	1	50
528.187	1	44
528.357	1	51
528.527	1	39
528.698	1	43
528.868	1	48
529.038	1	32
529.208	1	47
529.378	1	47
529.548	1	37
529.718	1	40
529.888	1	40
530.058	1	46
530.229	1	35
530.399	1	59
530.569	1	34
530.739	1	47
530.909	1	46
531.079	1	41
531.249	1	36
531.419	1	48
531.589	1	56
531.760	1	43
531.930	1	38
532.100	1	44
532.270	1	37
532.440	1	44
532.610	1	35
532.780	1	37
532.950	1	35
533.120	1	39
533.290	1	34
533.461	1	33
533.631	1	44
533.801	1	40
533.971	1	32
534.141	1	49
534.311	1	36
534.481	1	30
534.651	1	49
534.821	1	35
534.991	1	43
535.162	1	31
535.332	1	39
535.502	1	39
535.672	1	34
535.842	1	38
536.012	1	35
536.182	1	33
536.352	1	42
536.522	1	34
536.692	1	22
536.862	1	36
537.032	1	42
537.203	1	26
537.373	1	42
537.543	1	33
537.713	1	42
537.883	1	29
538.053	1	45
538.223	1	34
538.393	1	36
538.563	1	43
538.733	1	35
538.903	1	38
539.073	1	41
539.243	1	30
539.413	1	43
539.584	1	37
539.754	1	32
539.924	1	32
540.094	1	46
540.264	1	35
540.434	1	40
540.604	1	43
540.774	1	29
540.944	1	40
541.114	1	17
541.284	1	36
541.454	1	39
541.624	1	38
541.794	1	32
541.964	1	37
542.134	1	29
542.305	1	34
542.475	1	38
542.645	1	44
542.815	1	24
542.985	1	38
543.155	1	48
543.325	1	33
543.495	1	27
543.665	1	44
543.835	1	36
544.005	1	51
544.175	1	52
544.345	1	41
544.515	1	37
544.685	1	44
544.855	1	35
545.025	1	48
545.195	1	38
545.365	1	39
545.535	1	49
545.705	1	34
545.875	1	49
546.045	1	30
546.216	1	47
546.386	1	34
546.556	1	38
546.726	1	37
546.896	1	49
547.066	1	36
547.236	1	45
547.406	1	42
547.576	1	30
547.746	1	34
547.916	1	44
548.086	1	43
548.256	1	31
548.426	1	41
548.596	1	38
548.766	1	23
548.936	1	41
549.106	1	37
549.276	1	30
549.446	1	24
549.616	1	32
549.786	1	44
549.956	1	39
550.126	1	40
550.296	1	48
550.466	1	45
550.636	1	35
550.806	1	43
550.976	1	46
551.146	1	33
551.316	1	25
551.486	1	37
551.656	1	28
551.826	1	22
551.996	1	35
552.166	1	45
552.336	1	45
552.506	1	41
552.676	1	33
552.846	1	32
553.016	1	36
553.186	1	33
553.356	1	43
553.526	1	31
553.696	1	28
553.866	1	40
554.036	1	41
554.206	1	38
554.376	1	18
554.546	1	41
554.716	1	34
554.886	1	26
555.056	1	48
555.226	1	33
555.396	1	34
555.566	1	36
555.736	1	30
555.906	1	26
556.076	1	25
556.246	1	29
556.416	1	31
556.586	1	19
556.756	1	43
556.926	1	37
557.096	1	40
557.266	1	32
557.436	1	36
557.606	1	37
557.776	1	35
557.946	1	24
558.116	1	38
558.286	1	22
558.456	1	32
558.626	1	38
558.796	1	39
558.966	1	42
559.136	1	28
559.306	1	34
559.476	1	33
559.646	1	41
559.816	1	33
559.986	1	38
560.155	1	25
560.325	1	40
560.495	1	30
560.665	1	25
560.835	1	35
561.005	1	28
561.175	1	36
561.345	1	29
561.515	1	34
561.685	1	37
561.855	1	20
562.025	1	34
562.195	1	38
562.365	1	31
562.535	1	32
562.705	1	35
562.875	1	32
563.045	1	33
563.215	1	34
563.385	1	33
563.555	1	30
563.725	1	38
563.895	1	41
564.064	1	36
564.234	1	37
564.404	1	27
564.574	1	32
564.744	1	25
564.914	1	33
565.084	1	21
565.254	1	33
565.424	1	27
565.594	1	28
565.764	1	31
565.934	1	23
566.104	1	47
566.274	1	29
566.444	1	26
566.614	1	37
566.783	1	17
566.953	1	26
567.123	1	40
567.293	1	29
567.463	1	25
567.633	1	29
567.803	1	31
567.973	1	36
568.143	1	25
568.313	1	29
568.483	1	29
568.653	1	37
568.823	1	21
568.993	1	25
569.162	1	25
569.332	1	32
569.502	1	26
569.672	1	31
569.842	1	27
570.012	1	30
570.182	1	24
570.352	1	24
570.522	1	15
570.692	1	26
570.862	1	22
571.031	1	25
571.201	1	31
571.371	1	21
571.541	1	28
571.711	1	35
571.881	1	18
572.051	1	17
572.221	1	28
572.391	1	22
572.561	1	26
572.731	1	31
572.900	1	15
573.070	1	25
573.240	1	15
573.410	1	31
573.580	1	30
573.750	1	24
573.920	1	28
574.090	1	22
574.260	1	17
574.430	1	21
574.599	1	15
574.769	1	22
574.939	1	19
575.109	1	28
575.279	1	27
575.449	1	31
575.619	1	22
575.789	1	33
575.959	1	28
576.128	1	31
576.298	1	18
576.468	1	32
576.638	1	39
576.808	1	32
576.978	1	25
577.148	1	33
577.318	1	37
577.487	1	24
577.657	1	30
577.827	1	24
577.997	1	19
578.167	1	28
578.337	1	34
578.507	1	29
578.677	1	31
578.846	1	25
579.016	1	25
579.186	1	31
579.356	1	23
579.526	1	29
579.696	1	30
579.866	1	20
580.036	1	24
580.205	1	34
580.375	1	22
580.545	1	25
580.715	1	18
580.885	1	20
581.055	1	26
581.225	1	11
581.394	1	25
581.564	1	20
581.734	1	28
581.904	1	22
582.074	1	23
582.244	1	36
582.414	1	16
582.583	1	28
582.753	1	28
582.923	1	17
583.093	1	27
583.263	1	16
583.433	1	25
583.603	1	25
583.772	1	14
583.942	1	18
584.112	1	11
584.282	1	25
584.452	1	25
584.622	1	17
584.791	1	28
584.961	1	19
585.131	1	20
585.301	1	17
585.471	1	32
585.641	1	18
585.811	1	18
585.980	1	28
586.150	1	16
586.320	1	19
586.490	1	20
586.660	1	19
586.830	1	17
586.999	1	26
587.169	1	20
587.339	1	20
587.509	1	21
587.679	1	12
587.849	1	15
588.018	1	38
588.188	1	17
588.358	1	24
588.528	1	19
588.698	1	23
588.867	1	16
589.037	1	22
589.207	1	18
589.377	1	15
589.547	1	15
589.717	1	23
589.886	1	15
590.056	1	16
590.226	1	8
590.396	1	23
590.566	1	20
590.735	1	30
590.905	1	9
591.075	1	2
591.245	1	27
591.415	1	14
591.585	1	12
591.754	1	27
591.924	1	15
592.094	1	14
592.264	1	9
592.434	1	18
592.603	1	31
592.773	1	5
592.943	1	18
593.113	1	6
593.283	1	17
593.452	1	19
593.622	1	34
593.792	1	17
593.962	1	13
594.132	1	24
594.301	1	22
594.471	1	17
594.641	1	9
594.811	1	11
594.981	1	4
595.150	1	18
595.320	1	32
595.490	1	24
595.660	1	18
595.829	1	17
595.999	1	11
596.169	1	37
596.339	1	17
596.509	1	24
596.678	1	18
596.848	1	17
597.018	1	12
597.188	1	10
597.358	1	7
597.527	1	17
597.697	1	10
597.867	1	22
598.037	1	17
598.206	1	20
598.376	1	10
598.546	1	16
598.716	1	25
598.885	1	18
599.055	1	16
599.225	1	18
599.395	1	20
599.565	1	12
599.734	1	14
599.904	1	15
600.074	1	6
600.244	1	32
600.413	1	9
600.583	1	23
600.753	1	19
600.923	1	24
601.092	1	18
601.262	1	25
601.432	1	15
601.602	1	15
601.771	1	22
601.941	1	22
602.111	1	14
602.281	1	18
602.451	1	10
602.620	1	11
602.790	1	19
602.960	1	17
603.130	1	19
603.299	1	26
603.469	1	26
603.639	1	18
603.809	1	20
603.978	1	15
604.148	1	28
604.318	1	19
604.487	1	15
604.657	1	13
604.827	1	10
604.997	1	18
605.166	1	22
605.336	1	7
605.506	1	3
605.676	1	15
605.845	1	22
606.015	1	8
606.185	1	18
606.355	1	11
606.524	1	18
606.694	1	12
606.864	1	6
607.034	1	16
607.203	1	14
607.373	1	23
607.543	1	10
607.712	1	23
607.882	1	18
608.052	1	17
608.222	1	6
608.391	1	22
608.561	1	20
608.731	1	6
608.901	1	13
609.070	1	11
609.240	1	21
609.410	1	16
609.579	1	11
609.749	1	18
609.919	1	13
610.089	1	13
610.258	1	15
610.428	1	15
610.598	1	15
610.767	1	15
610.937	1	14
611.107	1	16
611.277	1	29
611.446	1	14
611.616	1	12
611.786	1	26
611.955	1	17
612.125	1	15
612.295	1	5
612.465	1	25
612.634	1	22
612.804	1	20
612.974	1	8
613.143	1	13
613.313	1	8
613.483	1	15
613.652	1	12
613.822	1	12
613.992	1	17
614.162	1	18
614.331	1	7
614.501	1	14
614.671	1	16
614.840	1	18
615.010	1	11
615.180	1	20
615.349	1	10
615.519	1	18
615.689	1	17
615.858	1	13
616.028	1	9
616.198	1	20
616.368	1	10
616.537	1	9
616.707	1	23
616.877	1	12
617.046	1	12
617.216	1	36
617.386	1	9
617.555	1	15
617.725	1	3
617.895	1	16
618.064	1	13
618.234	1	13
618.404	1	19
618.573	1	15
618.743	1	22
618.913	1	12
619.082	1	17
619.252	1	29
619.422	1	20
619.591	1	4
619.761	1	11
619.931	1	4
620.100	1	5
620.270	1	8
620.440	1	13
620.609	1	-1
620.779	1	15
620.949	1	23
621.118	1	6
621.288	1	15
621.458	1	15
621.627	1	20
621.797	1	7
621.967	1	3
622.136	1	16
622.306	1	8
622.476	1	8
622.645	1	15
622.815	1	8
622.985	1	5
623.154	1	7
623.324	1	17
623.494	1	29
623.663	1	22
623.833	1	6
624.002	1	16
624.172	1	14
624.342	1	7
624.511	1	18
624.681	1	5
624.851	1	9
625.020	1	28
625.190	1	11
625.360	1	11
625.529	1	5
625.699	1	17
625.869	1	13
626.038	1	8
626.208	1	15
626.377	1	14
626.547	1	13
626.717	1	18
626.886	1	7
627.056	1	12
627.226	1	18
627.395	1	15
627.565	1	24
627.735	1	20
627.904	1	22
628.074	1	6
628.243	1	20
628.413	1	31
628.583	1	17
628.752	1	8
628.922	1	7
629.091	1	7
629.261	1	15
629.431	1	12
629.600	1	10
629.770	1	7
629.940	1	10
630.109	1	-1
630.279	1	13
630.448	1	19
630.618	1	17
630.788	1	3
630.957	1	9
631.127	1	18
631.297	1	23
631.466	1	14
631.636	1	7
631.805	1	7
631.975	1	19
632.145	1	12
632.314	1	7
632.484	1	19
632.653	1	8
632.823	1	18
632.993	1	11
633.162	1	7
633.332	1	13
633.501	1	-3
633.671	1	13
633.841	1	4
634.010	1	9
634.180	1	4
634.349	1	5
634.519	1	14
634.689	1	20
634.858	1	7
635.028	1	12
635.197	1	17
635.367	1	8
635.537	1	-5
635.706	1	24
635.876	1	4
636.045	1	3
636.215	1	6
636.384	1	1
636.554	1	13
636.724	1	9
636.893	1	5
637.063	1	22
637.232	1	17
637.402	1	15
637.572	1	20
637.741	1	8
637.911	1	7
638.080	1	4
638.250	1	18
638.419	1	13
638.589	1	1
638.759	1	15
638.928	1	24
639.098	1	15
639.267	1	0
639.437	1	6
639.606	1	-2
639.776	1	5
639.946	1	12
640.115	1	6
640.285	1	5
640.454	1	20
640.624	1	15
640.793	1	10
640.963	1	6
641.132	1	9
641.302	1	22
641.472	1	13
641.641	1	4
641.811	1	-1
641.980	1	0
642.150	1	16
642.319	1	9
642.489	1	16
642.659	1	4
642.828	1	12
642.998	1	4
643.167	1	4
643.337	1	0
643.506	1	26
643.676	1	5
643.845	1	14
644.015	1	15
644.184	1	13
644.354	1	8
644.524	1	23
644.693	1	16
644.863	1	22
645.032	1	7
645.202	1	24
645.371	1	3
645.541	1	11
645.710	1	18
645.880	1	19
646.049	1	17
646.219	1	20
646.388	1	8
646.558	1	18
646.728	1	20
646.897	1	12
647.067	1	20
647.236	1	9
647.406	1	7
647.575	1	10
647.745	1	6
647.914	1	11
648.084	1	10
648.253	1	14
648.423	1	6
648.592	1	0
648.762	1	6
648.931	1	17
649.101	1	7
649.270	1	12
649.440	1	10
649.610	1	9
649.779	1	14
649.949	1	3
650.118	1	19
650.288	1	11
650.457	1	3
650.627	1	8
650.796	1	-8
650.966	1	13
651.135	1	11
651.305	1	11
651.474	1	15
651.644	1	7
651.813	1	11
651.983	1	20
652.152	1	10
652.322	1	2
652.491	1	9
652.661	1	12
652.830	1	21
653.000	1	6
653.169	1	14
653.339	1	18
653.508	1	15
653.678	1	7
653.847	1	8
654.017	1	16
654.186	1	8
654.356	1	11
654.525	1	9
654.695	1	4
654.864	1	5
655.034	1	6
655.203	1	3
655.373	1	-2
655.542	1	0
655.712	1	-2
655.881	1	5
656.051	1	0
656.220	1	10
656.390	1	18
656.559	1	12
656.729	1	9
656.898	1	12
657.068	1	6
657.237	1	8
657.406	1	-1
657.576	1	14
657.745	1	9
657.915	1	12
658.084	1	12
658.254	1	13
658.423	1	14
658.593	1	18
658.762	1	12
658.932	1	8
659.101	1	0
659.271	1	6
659.440	1	2
659.610	1	19
659.779	1	21
659.949	1	12
660.118	1	12
660.288	1	14
660.457	1	18
660.626	1	18
660.796	1	-2
660.965	1	0
661.135	1	3
661.304	1	15
661.474	1	7
661.643	1	7
661.813	1	24
661.982	1	3
662.152	1	14
662.321	1	12
662.491	1	11
662.660	1	8
662.829	1	7
662.999	1	18
663.168	1	13
663.338	1	5
663.507	1	5
663.677	1	-1
663.846	1	2
664.016	1	9
664.185	1	4
664.354	1	18
664.524	1	3
664.693	1	7
664.863	1	10
665.032	1	4
665.202	1	1
665.371	1	4
665.541	1	12
665.710	1	4
665.879	1	4
666.049	1	8
666.218	1	6
666.388	1	12
666.557	1	17
666.727	1	8
666.896	1	9
667.065	1	7
667.235	1	11
667.404	1	3
667.574	1	18
667.743	1	19
667.913	1	5
668.082	1	12
668.251	1	19
668.421	1	2
668.590	1	7
668.760	1	14
668.929	1	6
669.099	1	8
669.268	1	15
669.437	1	8
669.607	1	10
669.776	1	9
669.946	1	10
670.115	1	-2
670.285	1	-1
670.454	1	17
670.623	1	14
670.793	1	3
670.962	1	16
671.132	1	15
671.301	1	5
671.470	1	10
671.640	1	11
671.809	1	7
671.979	1	8
672.148	1	8
672.317	1	10
672.487	1	8
672.656	1	10
672.826	1	10
672.995	1	13
673.164	1	28
673.334	1	6
673.503	1	18
673.673	1	5
673.842	1	-11
674.011	1	2
674.181	1	11
674.350	1	-1
674.520	1	17
674.689	1	12
674.858	1	5
675.028	1	18
675.197	1	13
675.367	1	5
675.536	1	22
675.705	1	0
675.875	1	-2
676.044	1	7
676.214	1	22
676.383	1	17
676.552	1	13
676.722	1	9
676.891	1	3
677.060	1	3
677.230	1	18
677.399	1	4
677.569	1	20
677.738	1	10
677.907	1	13
678.077	1	20
678.246	1	2
678.416	1	-2
678.585	1	4
678.754	1	14
678.924	1	7
679.093	1	13
679.262	1	19
679.432	1	17
679.601	1	21
679.771	1	2
679.940	1	7
680.109	1	13
680.279	1	19
680.448	1	-7
680.617	1	10
680.787	1	8
680.956	1	10
681.125	1	3
681.295	1	18
681.464	1	7
681.634	1	4
681.803	1	10
681.972	1	11
682.142	1	8
682.311	1	13
682.480	1	14
682.650	1	6
682.819	1	21
682.988	1	15
683.158	1	16
683.327	1	18
683.496	1	8
683.666	1	16
683.835	1	4
684.004	1	13
684.174	1	12
684.343	1	12
684.512	1	7
684.682	1	14
684.851	1	15
685.021	1	11
685.190	1	9
685.359	1	1
685.529	1	14
685.698	1	15
685.867	1	4
686.037	1	10
686.206	1	16
686.375	1	20
686.545	1	1
686.714	1	11
686.883	1	14
687.053	1	5
687.222	1	11
687.391	1	22
687.561	1	10
687.730	1	11
687.899	1	14
688.069	1	7
688.238	1	15
688.407	1	9
688.577	1	13
688.746	1	12
