340.368	1	4
340.539	1	0
340.710	1	2
340.881	1	-2
341.052	1	2
341.223	1	-8
341.394	1	5
341.565	1	-1
341.737	1	13
341.908	1	-7
342.079	1	0
342.250	1	4
342.421	1	-4
342.592	1	4
342.763	1	1
342.934	1	1
343.105	1	7
343.276	1	-1
343.447	1	5
343.618	1	7
343.789	1	14
343.960	1	3
344.131	1	17
344.302	1	16
344.473	1	0
344.644	1	-7
344.815	1	-5
344.986	1	-1
345.157	1	9
345.328	1	-8
345.499	1	4
345.670	1	9
345.841	1	-1
346.012	1	4
346.183	1	1
346.354	1	0
346.526	1	5
346.697	1	1
346.868	1	0
347.039	1	-2
347.210	1	-6
347.381	1	5
347.552	1	6
347.723	1	1
347.894	1	-5
348.065	1	-6
348.236	1	-12
348.407	1	5
348.578	1	2
348.749	1	-2
348.920	1	-14
349.091	1	1
349.262	1	6
349.433	1	2
349.604	1	0
349.775	1	0
349.946	1	-4
350.117	1	-3
350.288	1	10
350.459	1	-12
350.630	1	1
350.801	1	7
350.972	1	5
351.143	1	-3
351.314	1	2
351.485	1	-6
351.656	1	7
351.827	1	-10
351.998	1	8
352.169	1	-2
352.340	1	5
352.511	1	0
352.682	1	-11
352.853	1	-5
353.024	1	9
353.195	1	-3
353.366	1	-2
353.537	1	0
353.708	1	3
353.879	1	6
354.050	1	-1
354.221	1	-1
354.392	1	-5
354.563	1	3
354.734	1	-9
354.905	1	13
355.076	1	3
355.247	1	10
355.418	1	-2
355.589	1	4
355.760	1	0
355.931	1	5
356.102	1	3
356.273	1	5
356.444	1	1
356.615	1	3
356.785	1	-3
356.956	1	12
357.127	1	-8
357.298	1	5
357.469	1	-2
357.640	1	-2
357.811	1	2
357.982	1	6
358.153	1	2
358.324	1	1
358.495	1	-5
358.666	1	3
358.837	1	-3
359.008	1	12
359.179	1	-2
359.350	1	15
359.521	1	4
359.692	1	3
359.863	1	-2
360.034	1	10
360.205	1	-1
360.376	1	9
360.547	1	6
360.718	1	11
360.889	1	13
361.060	1	2
361.231	1	11
361.401	1	8
361.572	1	5
361.743	1	9
361.914	1	3
362.085	1	12
362.256	1	5
362.427	1	14
362.598	1	9
362.769	1	13
362.940	1	4
363.111	1	17
363.282	1	16
363.453	1	15
363.624	1	24
363.795	1	8
363.966	1	17
364.137	1	12
364.308	1	19
364.478	1	17
364.649	1	32
364.820	1	23
364.991	1	24
365.162	1	29
365.333	1	20
365.504	1	17
365.675	1	19
365.846	1	29
366.017	1	22
366.188	1	25
366.359	1	24
366.530	1	33
366.701	1	30
366.871	1	26
367.042	1	38
367.213	1	35
367.384	1	36
367.555	1	34
367.726	1	36
367.897	1	33
368.068	1	35
368.239	1	43
368.410	1	35
368.581	1	35
368.752	1	22
368.923	1	41
369.093	1	41
369.264	1	36
369.435	1	29
369.606	1	44
369.777	1	29
369.948	1	27
370.119	1	35
370.290	1	31
370.461	1	36
370.632	1	30
370.803	1	32
370.973	1	39
371.144	1	40
371.315	1	35
371.486	1	28
371.657	1	39
371.828	1	28
371.999	1	30
372.170	1	27
372.341	1	27
372.512	1	20
372.682	1	11
372.853	1	21
373.024	1	27
373.195	1	23
373.366	1	12
373.537	1	30
373.708	1	22
373.879	1	22
374.050	1	19
374.220	1	14
374.391	1	12
374.562	1	26
374.733	1	23
374.904	1	12
375.075	1	3
375.246	1	21
375.417	1	8
375.588	1	7
375.758	1	23
375.929	1	11
376.100	1	10
376.271	1	13
376.442	1	13
376.613	1	25
376.784	1	15
376.955	1	14
377.125	1	19
377.296	1	18
377.467	1	24
377.638	1	16
377.809	1	17
377.980	1	12
378.151	1	4
378.321	1	20
378.492	1	6
378.663	1	13
378.834	1	12
379.005	1	12
379.176	1	19
379.347	1	28
379.518	1	15
379.688	1	2
379.859	1	8
380.030	1	8
380.201	1	1
380.372	1	1
380.543	1	18
380.714	1	14
380.884	1	0
381.055	1	10
381.226	1	10
381.397	1	22
381.568	1	1
381.739	1	-2
381.910	1	0
382.080	1	5
382.251	1	9
382.422	1	3
382.593	1	14
382.764	1	2
382.935	1	12
383.105	1	2
383.276	1	-2
383.447	1	4
383.618	1	10
383.789	1	9
383.960	1	8
384.130	1	10
384.301	1	13
384.472	1	1
384.643	1	0
384.814	1	-1
384.985	1	15
385.156	1	9
385.326	1	7
385.497	1	1
385.668	1	7
385.839	1	5
386.010	1	8
386.180	1	9
386.351	1	1
386.522	1	7
386.693	1	13
386.864	1	7
387.035	1	15
387.205	1	-10
387.376	1	5
387.547	1	18
387.718	1	0
387.889	1	6
388.060	1	12
388.230	1	8
388.401	1	12
388.572	1	-3
388.743	1	16
388.914	1	13
389.084	1	-6
389.255	1	9
389.426	1	4
389.597	1	-5
389.768	1	10
389.939	1	2
390.109	1	6
390.280	1	11
390.451	1	-3
390.622	1	6
390.793	1	8
390.963	1	6
391.134	1	-4
391.305	1	4
391.476	1	11
391.647	1	1
391.817	1	12
391.988	1	15
392.159	1	6
392.330	1	-3
392.501	1	2
392.671	1	2
392.842	1	-2
393.013	1	0
393.184	1	1
393.355	1	0
393.525	1	2
393.696	1	8
393.867	1	2
394.038	1	2
394.208	1	2
394.379	1	5
394.550	1	9
394.721	1	-1
394.892	1	7
395.062	1	7
395.233	1	-8
395.404	1	5
395.575	1	5
395.746	1	-5
395.916	1	-4
396.087	1	11
396.258	1	3
396.429	1	3
396.599	1	0
396.770	1	1
396.941	1	11
397.112	1	-4
397.283	1	8
397.453	1	7
397.624	1	-6
397.795	1	9
397.966	1	5
398.136	1	-1
398.307	1	-2
398.478	1	9
398.649	1	12
398.819	1	-4
398.990	1	-1
399.161	1	2
399.332	1	0
399.503	1	11
399.673	1	11
399.844	1	0
400.015	1	-4
400.186	1	1
400.356	1	7
400.527	1	0
400.698	1	5
400.869	1	2
401.039	1	0
401.210	1	5
401.381	1	5
401.552	1	-6
401.722	1	-5
401.893	1	2
402.064	1	4
402.235	1	2
402.405	1	-1
402.576	1	1
402.747	1	4
402.918	1	8
403.088	1	2
403.259	1	6
403.430	1	-2
403.601	1	-1
403.771	1	2
403.942	1	3
404.113	1	-1
404.284	1	3
404.454	1	-9
404.625	1	9
404.796	1	1
404.967	1	8
405.137	1	-2
405.308	1	-6
405.479	1	1
405.649	1	8
405.820	1	14
405.991	1	-7
406.162	1	8
406.332	1	0
406.503	1	-6
406.674	1	2
406.845	1	16
407.015	1	5
407.186	1	-3
407.357	1	-8
407.527	1	3
407.698	1	-7
407.869	1	-3
408.040	1	6
408.210	1	10
408.381	1	10
408.552	1	6
408.722	1	1
408.893	1	-2
409.064	1	4
409.235	1	4
409.405	1	-4
409.576	1	-11
409.747	1	-3
409.917	1	1
410.088	1	-6
410.259	1	-10
410.430	1	-10
410.600	1	1
410.771	1	-4
410.942	1	0
411.112	1	4
411.283	1	-6
411.454	1	9
411.625	1	4
411.795	1	-4
411.966	1	4
412.137	1	-3
412.307	1	13
412.478	1	-2
412.649	1	6
412.819	1	6
412.990	1	7
413.161	1	-2
413.332	1	1
413.502	1	-2
413.673	1	3
413.844	1	-8
414.014	1	3
414.185	1	5
414.356	1	-7
414.526	1	-2
414.697	1	-2
414.868	1	-2
415.038	1	13
415.209	1	-4
415.380	1	6
415.550	1	7
415.721	1	-12
415.892	1	5
416.063	1	0
416.233	1	0
416.404	1	-2
416.575	1	-3
416.745	1	0
416.916	1	-8
417.087	1	3
417.257	1	4
417.428	1	12
417.599	1	-4
417.769	1	5
417.940	1	3
418.111	1	2
418.281	1	12
418.452	1	4
418.623	1	-7
418.793	1	18
418.964	1	-6
419.135	1	5
419.305	1	6
419.476	1	10
419.647	1	-11
419.817	1	11
419.988	1	0
420.159	1	2
420.329	1	3
420.500	1	11
420.671	1	-7
420.841	1	0
421.012	1	6
421.183	1	-1
421.353	1	-7
421.524	1	2
421.695	1	8
421.865	1	5
422.036	1	3
422.206	1	2
422.377	1	9
422.548	1	-1
422.718	1	5
422.889	1	0
423.060	1	-1
423.230	1	0
423.401	1	4
423.572	1	4
423.742	1	6
423.913	1	-8
424.084	1	-3
424.254	1	3
424.425	1	1
424.595	1	10
424.766	1	-3
424.937	1	13
425.107	1	12
425.278	1	6
425.449	1	0
425.619	1	-7
425.790	1	0
425.961	1	1
426.131	1	-4
426.302	1	8
426.472	1	-3
426.643	1	4
426.814	1	9
426.984	1	-7
427.155	1	11
427.326	1	-5
427.496	1	3
427.667	1	-8
427.837	1	-1
428.008	1	11
428.179	1	3
428.349	1	5
428.520	1	2
428.691	1	13
428.861	1	-4
429.032	1	3
429.202	1	6
429.373	1	7
429.544	1	4
429.714	1	-1
429.885	1	0
430.055	1	4
430.226	1	-3
430.397	1	-1
430.567	1	-5
430.738	1	-6
430.909	1	3
431.079	1	10
431.250	1	4
431.420	1	12
431.591	1	12
431.762	1	-2
431.932	1	-6
432.103	1	-12
432.273	1	5
432.444	1	-1
432.615	1	1
432.785	1	3
432.956	1	2
433.126	1	10
433.297	1	-10
433.468	1	-1
433.638	1	3
433.809	1	-1
433.979	1	2
434.150	1	10
434.320	1	10
434.491	1	-6
434.662	1	6
434.832	1	-1
435.003	1	-4
435.173	1	1
435.344	1	-4
435.515	1	-7
435.685	1	-4
435.856	1	4
436.026	1	4
436.197	1	-3
436.368	1	-2
436.538	1	1
436.709	1	-11
436.879	1	6
437.050	1	3
437.220	1	9
437.391	1	0
437.562	1	8
437.732	1	5
437.903	1	3
438.073	1	5
438.244	1	3
438.414	1	-9
438.585	1	-13
438.756	1	12
438.926	1	-1
439.097	1	-1
439.267	1	-8
439.438	1	3
439.608	1	4
439.779	1	-1
439.949	1	-3
440.120	1	3
440.291	1	-3
440.461	1	8
440.632	1	5
440.802	1	-6
440.973	1	3
441.143	1	2
441.314	1	0
441.485	1	3
441.655	1	-10
441.826	1	13
441.996	1	-7
442.167	1	0
442.337	1	3
442.508	1	-8
442.678	1	-9
442.849	1	9
443.019	1	11
443.190	1	2
443.361	1	0
443.531	1	7
443.702	1	5
443.872	1	2
444.043	1	2
444.213	1	10
444.384	1	1
444.554	1	0
444.725	1	13
444.895	1	5
445.066	1	3
445.237	1	-5
445.407	1	6
445.578	1	8
445.748	1	-1
445.919	1	-12
446.089	1	11
446.260	1	-7
446.430	1	0
446.601	1	7
446.771	1	6
446.942	1	-5
447.112	1	4
447.283	1	0
447.453	1	5
447.624	1	8
447.794	1	10
447.965	1	-1
448.135	1	1
448.306	1	10
448.477	1	6
448.647	1	-1
448.818	1	3
448.988	1	1
449.159	1	12
449.329	1	5
449.500	1	-13
449.670	1	-10
449.841	1	-8
450.011	1	8
450.182	1	11
450.352	1	5
450.523	1	-5
450.693	1	-13
450.864	1	2
451.034	1	13
451.205	1	-4
451.375	1	0
451.546	1	-2
451.716	1	-5
451.887	1	6
452.057	1	13
452.228	1	17
452.398	1	0
452.569	1	5
452.739	1	8
452.910	1	-1
453.080	1	-1
453.251	1	-1
453.421	1	2
453.592	1	4
453.762	1	1
453.933	1	-4
454.103	1	-12
454.274	1	-5
454.444	1	-2
454.615	1	-6
454.785	1	-2
454.956	1	0
455.126	1	-1
455.297	1	8
455.467	1	0
455.638	1	-4
455.808	1	0
455.979	1	-5
456.149	1	-4
456.320	1	-5
456.490	1	-2
456.661	1	11
456.831	1	-3
457.001	1	1
457.172	1	-4
457.342	1	2
457.513	1	10
457.683	1	4
457.854	1	-9
458.024	1	-7
458.195	1	2
458.365	1	4
458.536	1	7
458.706	1	13
458.877	1	-2
459.047	1	-2
459.218	1	1
459.388	1	8
459.559	1	-2
459.729	1	-11
459.899	1	2
460.070	1	-5
460.240	1	-1
460.411	1	0
460.581	1	7
460.752	1	-1
460.922	1	-7
461.093	1	6
461.263	1	-1
461.434	1	3
461.604	1	6
461.775	1	-5
461.945	1	-1
462.115	1	8
462.286	1	4
462.456	1	-2
462.627	1	1
462.797	1	6
462.968	1	-2
463.138	1	10
463.309	1	-10
463.479	1	2
463.649	1	9
463.820	1	4
463.990	1	8
464.161	1	1
464.331	1	2
464.502	1	-5
464.672	1	11
464.843	1	-3
465.013	1	6
465.183	1	8
465.354	1	-1
465.524	1	6
465.695	1	3
465.865	1	12
466.036	1	-2
466.206	1	8
466.376	1	-7
466.547	1	8
466.717	1	6
466.888	1	2
467.058	1	-3
467.229	1	9
467.399	1	7
467.569	1	8
467.740	1	1
467.910	1	1
468.081	1	1
468.251	1	-6
468.422	1	13
468.592	1	9
468.762	1	3
468.933	1	-1
469.103	1	5
469.274	1	11
469.444	1	3
469.614	1	-9
469.785	1	-4
469.955	1	-7
470.126	1	-3
470.296	1	-1
470.467	1	5
470.637	1	-16
470.807	1	4
470.978	1	1
471.148	1	7
471.319	1	11
471.489	1	8
471.659	1	-1
471.830	1	-10
472.000	1	-6
472.171	1	2
472.341	1	3
472.511	1	0
472.682	1	2
472.852	1	5
473.023	1	4
473.193	1	10
473.363	1	11
473.534	1	6
473.704	1	2
473.875	1	3
474.045	1	4
474.215	1	2
474.386	1	-4
474.556	1	9
474.727	1	-1
474.897	1	-5
475.067	1	-2
475.238	1	11
475.408	1	-5
475.578	1	-3
475.749	1	8
475.919	1	-8
476.090	1	5
476.260	1	-5
476.430	1	4
476.601	1	3
476.771	1	4
476.942	1	-10
477.112	1	8
477.282	1	4
477.453	1	-2
477.623	1	4
477.793	1	-5
477.964	1	9
478.134	1	5
478.305	1	5
478.475	1	1
478.645	1	0
478.816	1	6
478.986	1	4
479.156	1	-6
479.327	1	1
479.497	1	12
479.667	1	-2
479.838	1	4
480.008	1	-1
480.179	1	8
480.349	1	2
480.519	1	3
480.690	1	6
480.860	1	2
481.030	1	0
481.201	1	6
481.371	1	0
481.541	1	-8
481.712	1	1
481.882	1	7
482.053	1	-16
482.223	1	7
482.393	1	-4
482.564	1	5
482.734	1	4
482.904	1	1
483.075	1	-6
483.245	1	-8
483.415	1	0
483.586	1	7
483.756	1	6
483.926	1	1
484.097	1	4
484.267	1	-3
484.437	1	-5
484.608	1	4
484.778	1	-8
484.948	1	7
485.119	1	-4
485.289	1	1
485.459	1	3
485.630	1	3
485.800	1	-9
485.970	1	0
486.141	1	2
486.311	1	2
486.481	1	2
486.652	1	-4
486.822	1	3
486.992	1	11
487.163	1	-3
487.333	1	3
487.503	1	3
487.674	1	10
487.844	1	-4
488.014	1	0
488.185	1	-6
488.355	1	0
488.525	1	1
488.696	1	5
488.866	1	4
489.036	1	7
489.207	1	-3
489.377	1	-1
489.547	1	-1
489.718	1	4
489.888	1	3
490.058	1	0
490.228	1	1
490.399	1	7
490.569	1	8
490.739	1	7
490.910	1	-4
491.080	1	-2
491.250	1	4
491.421	1	3
491.591	1	4
491.761	1	14
491.932	1	3
492.102	1	5
492.272	1	1
492.442	1	-2
492.613	1	5
492.783	1	-9
492.953	1	4
493.124	1	-12
493.294	1	3
493.464	1	7
493.635	1	18
493.805	1	12
493.975	1	5
494.145	1	4
494.316	1	-4
494.486	1	-6
494.656	1	-7
494.827	1	-2
494.997	1	10
495.167	1	24
495.337	1	8
495.508	1	11
495.678	1	11
495.848	1	6
496.019	1	0
496.189	1	7
496.359	1	-6
496.529	1	0
496.700	1	13
496.870	1	-2
497.040	1	4
497.211	1	0
497.381	1	4
497.551	1	3
497.721	1	-5
497.892	1	5
498.062	1	5
498.232	1	2
498.403	1	-2
498.573	1	16
498.743	1	1
498.913	1	8
499.084	1	7
499.254	1	5
499.424	1	1
499.594	1	0
499.765	1	-13
499.935	1	3
500.105	1	5
500.275	1	9
500.446	1	6
500.616	1	5
500.786	1	5
500.956	1	13
501.127	1	4
501.297	1	-5
501.467	1	8
501.638	1	8
501.808	1	9
501.978	1	16
502.148	1	-7
502.319	1	-2
502.489	1	7
502.659	1	5
502.829	1	-7
503.000	1	8
503.170	1	10
503.340	1	7
503.510	1	2
503.681	1	2
503.851	1	3
504.021	1	6
504.191	1	5
504.362	1	8
504.532	1	5
504.702	1	-1
504.872	1	-5
505.042	1	1
505.213	1	5
505.383	1	10
505.553	1	7
505.723	1	2
505.894	1	-6
506.064	1	4
506.234	1	3
506.404	1	18
506.575	1	-3
506.745	1	-7
506.915	1	11
507.085	1	3
507.256	1	17
507.426	1	5
507.596	1	1
507.766	1	20
507.936	1	5
508.107	1	8
508.277	1	4
508.447	1	-7
508.617	1	6
508.788	1	3
508.958	1	18
509.128	1	-1
509.298	1	1
509.468	1	5
509.639	1	-5
509.809	1	-6
509.979	1	17
510.149	1	2
510.319	1	15
510.490	1	17
510.660	1	11
510.830	1	-1
511.000	1	1
511.171	1	2
511.341	1	6
511.511	1	1
511.681	1	2
511.851	1	4
512.022	1	0
512.192	1	11
512.362	1	10
512.532	1	12
512.702	1	-2
512.873	1	6
513.043	1	7
513.213	1	6
513.383	1	-2
513.553	1	4
513.724	1	1
513.894	1	9
514.064	1	3
514.234	1	-2
514.404	1	6
514.575	1	11
514.745	1	4
514.915	1	-8
515.085	1	2
515.255	1	0
515.425	1	-4
515.596	1	7
515.766	1	7
515.936	1	11
516.106	1	2
516.276	1	4
516.447	1	10
516.617	1	6
516.787	1	1
516.957	1	-3
517.127	1	4
517.297	1	4
517.468	1	9
517.638	1	1
517.808	1	10
517.978	1	6
518.148	1	9
518.319	1	3
518.489	1	10
518.659	1	10
518.829	1	6
518.999	1	6
519.169	1	-1
519.340	1	4
519.510	1	-6
519.680	1	0
519.850	1	2
520.020	1	5
520.190	1	6
520.361	1	11
520.531	1	0
520.701	1	17
520.871	1	5
521.041	1	6
521.211	1	-3
521.382	1	5
521.552	1	1
521.722	1	18
521.892	1	4
522.062	1	8
522.232	1	9
522.402	1	13
522.573	1	8
522.743	1	8
522.913	1	6
523.083	1	1
523.253	1	-1
523.423	1	2
523.593	1	6
523.764	1	11
523.934	1	4
524.104	1	16
524.274	1	2
524.444	1	1
524.614	1	5
524.784	1	6
524.955	1	-6
525.125	1	6
525.295	1	4
525.465	1	5
525.635	1	1
525.805	1	6
525.975	1	1
526.146	1	-3
526.316	1	9
526.486	1	7
526.656	1	5
526.826	1	4
526.996	1	-3
527.166	1	11
527.337	1	9
527.507	1	7
527.677	1	11
527.847	1	-1
528.017	1	8
528.187	1	8
528.357	1	15
528.527	1	7
528.698	1	7
528.868	1	0
529.038	1	7
529.208	1	5
529.378	1	11
529.548	1	-2
529.718	1	4
529.888	1	7
530.058	1	5
530.229	1	-2
530.399	1	9
530.569	1	-5
530.739	1	5
530.909	1	15
531.079	1	5
531.249	1	0
531.419	1	7
531.589	1	15
531.760	1	12
531.930	1	3
532.100	1	12
532.270	1	-7
532.440	1	-7
532.610	1	6
532.780	1	8
532.950	1	-2
533.120	1	-3
533.290	1	2
533.461	1	7
533.631	1	7
533.801	1	15
533.971	1	4
534.141	1	14
534.311	1	0
534.481	1	6
534.651	1	8
534.821	1	4
534.991	1	8
535.162	1	-6
535.332	1	9
535.502	1	7
535.672	1	0
535.842	1	0
536.012	1	5
536.182	1	10
536.352	1	4
536.522	1	4
536.692	1	-2
536.862	1	6
537.032	1	-1
537.203	1	-9
537.373	1	10
537.543	1	11
537.713	1	8
537.883	1	-1
538.053	1	6
538.223	1	7
538.393	1	11
538.563	1	15
538.733	1	-4
538.903	1	-2
539.073	1	11
539.243	1	3
539.413	1	5
539.584	1	9
539.754	1	4
539.924	1	-6
540.094	1	7
540.264	1	-5
540.434	1	10
540.604	1	10
540.774	1	-6
540.944	1	13
541.114	1	-6
541.284	1	21
541.454	1	5
541.624	1	6
541.794	1	9
541.964	1	-5
542.134	1	-3
542.305	1	13
542.475	1	11
542.645	1	9
542.815	1	6
542.985	1	7
543.155	1	17
543.325	1	0
543.495	1	1
543.665	1	17
543.835	1	2
544.005	1	12
544.175	1	11
544.345	1	4
544.515	1	3
544.685	1	10
544.855	1	1
545.025	1	12
545.195	1	5
545.365	1	-3
545.535	1	8
545.705	1	6
545.875	1	10
546.045	1	12
546.216	1	15
546.386	1	-3
546.556	1	0
546.726	1	4
546.896	1	11
547.066	1	6
547.236	1	14
547.406	1	11
547.576	1	5
547.746	1	-5
547.916	1	9
548.086	1	2
548.256	1	9
548.426	1	5
548.596	1	11
548.766	1	4
548.936	1	0
549.106	1	2
549.276	1	-2
549.446	1	-3
549.616	1	1
549.786	1	18
549.956	1	6
550.126	1	5
550.296	1	15
550.466	1	14
550.636	1	9
550.806	1	2
550.976	1	12
551.146	1	10
551.316	1	14
551.486	1	-2
551.656	1	-9
551.826	1	-4
551.996	1	-4
552.166	1	6
552.336	1	9
552.506	1	4
552.676	1	5
552.846	1	9
553.016	1	13
553.186	1	2
553.356	1	13
553.526	1	1
553.696	1	5
553.866	1	12
554.036	1	19
554.206	1	6
554.376	1	-1
554.546	1	11
554.716	1	6
554.886	1	4
555.056	1	8
555.226	1	6
555.396	1	2
555.566	1	12
555.736	1	8
555.906	1	9
556.076	1	5
556.246	1	12
556.416	1	10
556.586	1	-8
556.756	1	3
556.926	1	9
557.096	1	10
557.266	1	5
557.436	1	8
557.606	1	3
557.776	1	0
557.946	1	-7
558.116	1	3
558.286	1	-10
558.456	1	4
558.626	1	8
558.796	1	10
558.966	1	10
559.136	1	0
559.306	1	6
559.476	1	2
559.646	1	18
559.816	1	0
559.986	1	2
560.155	1	-6
560.325	1	5
560.495	1	15
560.665	1	1
560.835	1	3
561.005	1	-5
561.175	1	6
561.345	1	6
561.515	1	4
561.685	1	12
561.855	1	-3
562.025	1	4
562.195	1	9
562.365	1	8
562.535	1	16
562.705	1	10
562.875	1	-1
563.045	1	13
563.215	1	4
563.385	1	-3
563.555	1	6
563.725	1	-6
563.895	1	7
564.064	1	-1
564.234	1	12
564.404	1	-4
564.574	1	3
564.744	1	-4
564.914	1	14
565.084	1	-9
565.254	1	11
565.424	1	7
565.594	1	-3
565.764	1	5
565.934	1	12
566.104	1	5
566.274	1	7
566.444	1	11
566.614	1	9
566.783	1	-1
566.953	1	7
567.123	1	8
567.293	1	-8
567.463	1	-5
567.633	1	4
567.803	1	7
567.973	1	17
568.143	1	1
568.313	1	12
568.483	1	2
568.653	1	16
568.823	1	-1
568.993	1	-1
569.162	1	8
569.332	1	6
569.502	1	11
569.672	1	11
569.842	1	2
570.012	1	9
570.182	1	-3
570.352	1	-4
570.522	1	1
570.692	1	3
570.862	1	-1
571.031	1	-1
571.201	1	-1
571.371	1	7
571.541	1	5
571.711	1	2
571.881	1	6
572.051	1	-2
572.221	1	-9
572.391	1	15
572.561	1	11
572.731	1	-4
572.900	1	-1
573.070	1	3
573.240	1	1
573.410	1	10
573.580	1	3
573.750	1	1
573.920	1	-2
574.090	1	7
574.260	1	3
574.430	1	7
574.599	1	2
574.769	1	2
574.939	1	-4
575.109	1	-2
575.279	1	7
575.449	1	11
575.619	1	0
575.789	1	14
575.959	1	-2
576.128	1	3
576.298	1	2
576.468	1	10
576.638	1	10
576.808	1	17
576.978	1	-6
577.148	1	9
577.318	1	5
577.487	1	9
577.657	1	0
577.827	1	-3
577.997	1	6
578.167	1	11
578.337	1	12
578.507	1	6
578.677	1	4
578.846	1	6
579.016	1	12
579.186	1	9
579.356	1	5
579.526	1	12
579.696	1	4
579.866	1	9
580.036	1	10
580.205	1	10
580.375	1	7
580.545	1	4
580.715	1	1
580.885	1	3
581.055	1	12
581.225	1	3
581.394	1	8
581.564	1	2
581.734	1	2
581.904	1	4
582.074	1	-9
582.244	1	12
582.414	1	-8
582.583	1	4
582.753	1	4
582.923	1	6
583.093	1	0
583.263	1	8
583.433	1	9
583.603	1	11
583.772	1	-2
583.942	1	-1
584.112	1	-5
584.282	1	9
584.452	1	1
584.622	1	10
584.791	1	6
584.961	1	2
585.131	1	7
585.301	1	-3
585.471	1	9
585.641	1	5
585.811	1	9
585.980	1	12
586.150	1	1
586.320	1	1
586.490	1	2
586.660	1	8
586.830	1	8
586.999	1	13
587.169	1	3
587.339	1	2
587.509	1	-2
587.679	1	7
587.849	1	7
588.018	1	12
588.188	1	3
588.358	1	3
588.528	1	3
588.698	1	1
588.867	1	1
589.037	1	4
589.207	1	-1
589.377	1	6
589.547	1	5
589.717	1	-1
589.886	1	4
590.056	1	-3
590.226	1	3
590.396	1	-1
590.566	1	8
590.735	1	12
590.905	1	2
591.075	1	-3
591.245	1	11
591.415	1	-7
591.585	1	-1
591.754	1	14
591.924	1	9
592.094	1	7
592.264	1	-1
592.434	1	1
592.603	1	5
592.773	1	-6
592.943	1	14
593.113	1	3
593.283	1	0
593.452	1	6
593.622	1	11
593.792	1	11
593.962	1	-1
594.132	1	2
594.301	1	4
594.471	1	9
594.641	1	-10
594.811	1	1
594.981	1	-3
595.150	1	7
595.320	1	18
595.490	1	2
595.660	1	9
595.829	1	3
595.999	1	4
596.169	1	15
596.339	1	-1
596.509	1	9
596.678	1	7
596.848	1	1
597.018	1	7
597.188	1	-3
597.358	1	-7
597.527	1	-4
597.697	1	-2
597.867	1	7
598.037	1	6
598.206	1	4
598.376	1	-6
598.546	1	-2
598.716	1	11
598.885	1	13
599.055	1	9
599.225	1	9
599.395	1	-2
599.565	1	2
599.734	1	3
599.904	1	-2
600.074	1	5
600.244	1	8
600.413	1	7
600.583	1	10
600.753	1	18
600.923	1	8
601.092	1	10
601.262	1	9
601.432	1	1
601.602	1	2
601.771	1	0
601.941	1	11
602.111	1	6
602.281	1	3
602.451	1	1
602.620	1	-7
602.790	1	19
602.960	1	6
603.130	1	4
603.299	1	16
603.469	1	8
603.639	1	9
603.809	1	2
603.978	1	-2
604.148	1	14
604.318	1	20
604.487	1	-4
604.657	1	9
604.827	1	-5
604.997	1	6
605.166	1	10
605.336	1	2
605.506	1	3
605.676	1	0
605.845	1	7
606.015	1	-2
606.185	1	1
606.355	1	10
606.524	1	7
606.694	1	-7
606.864	1	0
607.034	1	0
607.203	1	10
607.373	1	3
607.543	1	-2
607.712	1	4
607.882	1	11
608.052	1	-2
608.222	1	4
608.391	1	6
608.561	1	4
608.731	1	-1
608.901	1	1
609.070	1	13
609.240	1	6
609.410	1	0
609.579	1	3
609.749	1	5
609.919	1	6
610.089	1	2
610.258	1	5
610.428	1	-1
610.598	1	3
610.767	1	-3
610.937	1	1
611.107	1	4
611.277	1	9
611.446	1	5
611.616	1	6
611.786	1	5
611.955	1	-3
612.125	1	-3
612.295	1	-3
612.465	1	11
612.634	1	3
612.804	1	3
612.974	1	-5
613.143	1	-3
613.313	1	0
613.483	1	8
613.652	1	-3
613.822	1	6
613.992	1	3
614.162	1	4
614.331	1	9
614.501	1	3
614.671	1	3
614.840	1	-1
615.010	1	1
615.180	1	5
615.349	1	6
615.519	1	12
615.689	1	1
615.858	1	2
616.028	1	-2
616.198	1	11
616.368	1	4
616.537	1	-8
616.707	1	13
616.877	1	5
617.046	1	6
617.216	1	17
617.386	1	-1
617.555	1	8
617.725	1	-7
617.895	1	7
618.064	1	-5
618.234	1	9
618.404	1	1
618.573	1	12
618.743	1	8
618.913	1	7
619.082	1	-1
619.252	1	14
619.422	1	-1
619.591	1	-1
619.761	1	0
619.931	1	0
620.100	1	0
620.270	1	-2
620.440	1	-6
620.609	1	-4
620.779	1	7
620.949	1	1
621.118	1	4
621.288	1	3
621.458	1	3
621.627	1	19
621.797	1	5
621.967	1	2
622.136	1	11
622.306	1	1
622.476	1	-6
622.645	1	0
622.815	1	-3
622.985	1	5
623.154	1	-3
623.324	1	2
623.494	1	10
623.663	1	-1
623.833	1	-6
624.002	1	-2
624.172	1	10
624.342	1	0
624.511	1	6
624.681	1	-3
624.851	1	3
625.020	1	12
625.190	1	1
625.360	1	-7
625.529	1	-8
625.699	1	-2
625.869	1	-1
626.038	1	8
626.208	1	10
626.377	1	-2
626.547	1	6
626.717	1	6
626.886	1	1
627.056	1	4
627.226	1	-2
627.395	1	-2
627.565	1	0
627.735	1	14
627.904	1	13
628.074	1	-2
628.243	1	4
628.413	1	8
628.583	1	-9
628.752	1	-1
628.922	1	0
629.091	1	-3
629.261	1	6
629.431	1	3
629.600	1	-2
629.770	1	2
629.940	1	-4
630.109	1	-12
630.279	1	9
630.448	1	9
630.618	1	6
630.788	1	-6
630.957	1	6
631.127	1	1
631.297	1	1
631.466	1	4
631.636	1	-5
631.805	1	9
631.975	1	2
632.145	1	2
632.314	1	-6
632.484	1	9
632.653	1	-8
632.823	1	-1
632.993	1	9
633.162	1	2
633.332	1	-1
633.501	1	-6
633.671	1	3
633.841	1	-8
634.010	1	4
634.180	1	-5
634.349	1	10
634.519	1	7
634.689	1	4
634.858	1	-3
635.028	1	-3
635.197	1	7
635.367	1	7
635.537	1	-1
635.706	1	0
635.876	1	-4
636.045	1	-7
636.215	1	-2
636.384	1	1
636.554	1	10
636.724	1	5
636.893	1	-11
637.063	1	5
637.232	1	6
637.402	1	8
637.572	1	10
637.741	1	-3
637.911	1	0
638.080	1	-1
638.250	1	0
638.419	1	8
638.589	1	8
638.759	1	10
638.928	1	8
639.098	1	16
639.267	1	-5
639.437	1	4
639.606	1	-4
639.776	1	0
639.946	1	3
640.115	1	-1
640.285	1	6
640.454	1	7
640.624	1	11
640.793	1	-3
640.963	1	-2
641.132	1	4
641.302	1	-2
641.472	1	2
641.641	1	2
641.811	1	-3
641.980	1	-2
642.150	1	5
642.319	1	2
642.489	1	5
642.659	1	-12
642.828	1	7
642.998	1	-7
643.167	1	-5
643.337	1	3
643.506	1	10
643.676	1	3
643.845	1	7
644.015	1	6
644.184	1	3
644.354	1	6
644.524	1	-1
644.693	1	0
644.863	1	6
645.032	1	14
645.202	1	13
645.371	1	-7
645.541	1	8
645.710	1	0
645.880	1	5
646.049	1	1
646.219	1	13
646.388	1	-5
646.558	1	12
646.728	1	2
646.897	1	1
647.067	1	10
647.236	1	3
647.406	1	7
647.575	1	2
647.745	1	5
647.914	1	-3
648.084	1	1
648.253	1	3
648.423	1	3
648.592	1	0
648.762	1	5
648.931	1	-5
649.101	1	-6
649.270	1	10
649.440	1	-2
649.610	1	6
649.779	1	5
649.949	1	-7
650.118	1	1
650.288	1	2
650.457	1	-1
650.627	1	4
650.796	1	-11
650.966	1	2
651.135	1	0
651.305	1	4
651.474	1	8
651.644	1	-5
651.813	1	10
651.983	1	10
652.152	1	9
652.322	1	-8
652.491	1	3
652.661	1	3
652.830	1	13
653.000	1	3
653.169	1	5
653.339	1	6
653.508	1	10
653.678	1	2
653.847	1	-3
654.017	1	0
654.186	1	1
654.356	1	7
654.525	1	2
654.695	1	-1
654.864	1	8
655.034	1	9
655.203	1	-6
655.373	1	15
655.542	1	-3
655.712	1	-8
655.881	1	12
656.051	1	-1
656.220	1	-6
656.390	1	7
656.559	1	10
656.729	1	4
656.898	1	5
657.068	1	7
657.237	1	-1
657.406	1	-3
657.576	1	-1
657.745	1	2
657.915	1	3
658.084	1	12
658.254	1	2
658.423	1	5
658.593	1	4
658.762	1	10
658.932	1	-2
659.101	1	-4
659.271	1	3
659.440	1	3
659.610	1	13
659.779	1	8
659.949	1	-3
660.118	1	-4
660.288	1	-1
660.457	1	6
660.626	1	6
660.796	1	-9
660.965	1	-7
661.135	1	-2
661.304	1	10
661.474	1	-1
661.643	1	8
661.813	1	12
661.982	1	1
662.152	1	-3
662.321	1	2
662.491	1	6
662.660	1	4
662.829	1	1
662.999	1	5
663.168	1	0
663.338	1	-3
663.507	1	-3
663.677	1	-5
663.846	1	-3
664.016	1	2
664.185	1	11
664.354	1	2
664.524	1	-5
664.693	1	2
664.863	1	2
665.032	1	3
665.202	1	-2
665.371	1	-6
665.541	1	-11
665.710	1	-8
665.879	1	6
666.049	1	0
666.218	1	-5
666.388	1	11
666.557	1	7
666.727	1	5
666.896	1	1
667.065	1	10
667.235	1	-1
667.404	1	-7
667.574	1	-1
667.743	1	2
667.913	1	-6
668.082	1	2
668.251	1	5
668.421	1	0
668.590	1	-1
668.760	1	-2
668.929	1	1
669.099	1	10
669.268	1	9
669.437	1	-2
669.607	1	6
669.776	1	3
669.946	1	2
670.115	1	-2
670.285	1	2
670.454	1	0
670.623	1	0
670.793	1	5
670.962	1	5
671.132	1	8
671.301	1	-1
671.470	1	2
671.640	1	4
671.809	1	-1
671.979	1	-8
672.148	1	-2
672.317	1	-3
672.487	1	-5
672.656	1	10
672.826	1	6
672.995	1	-4
673.164	1	18
673.334	1	0
673.503	1	8
673.673	1	-11
673.842	1	-11
674.011	1	-10
674.181	1	8
674.350	1	9
674.520	1	16
674.689	1	2
674.858	1	-12
675.028	1	10
675.197	1	6
675.367	1	-6
675.536	1	19
675.705	1	-8
675.875	1	-1
676.044	1	-8
676.214	1	3
676.383	1	6
676.552	1	4
676.722	1	6
676.891	1	-8
677.060	1	-4
677.230	1	2
677.399	1	4
677.569	1	14
677.738	1	8
677.907	1	11
678.077	1	12
678.246	1	-1
678.416	1	1
678.585	1	-2
678.754	1	7
678.924	1	1
679.093	1	5
679.262	1	12
679.432	1	8
679.601	1	11
679.771	1	5
679.940	1	7
680.109	1	0
680.279	1	7
680.448	1	-3
680.617	1	4
680.787	1	-2
680.956	1	6
681.125	1	3
681.295	1	10
681.464	1	9
681.634	1	-6
681.803	1	-1
681.972	1	1
682.142	1	-10
682.311	1	7
682.480	1	-1
682.650	1	2
682.819	1	1
682.988	1	10
683.158	1	7
683.327	1	6
683.496	1	1
683.666	1	-1
683.835	1	0
684.004	1	3
684.174	1	10
684.343	1	-15
684.512	1	8
684.682	1	-3
684.851	1	0
685.021	1	3
685.190	1	6
685.359	1	-8
685.529	1	5
685.698	1	9
685.867	1	3
686.037	1	3
686.206	1	10
686.375	1	10
686.545	1	-5
686.714	1	0
686.883	1	9
687.053	1	-2
687.222	1	0
687.391	1	2
687.561	1	9
687.730	1	2
687.899	1	5
688.069	1	0
688.238	1	5
688.407	1	3
688.577	1	1
688.746	1	-6
