340.368	1	1
340.539	1	3
340.710	1	5
340.881	1	-2
341.052	1	12
341.223	1	-13
341.394	1	4
341.565	1	12
341.737	1	6
341.908	1	4
342.079	1	6
342.250	1	-3
342.421	1	4
342.592	1	2
342.763	1	6
342.934	1	-3
343.105	1	-1
343.276	1	-1
343.447	1	7
343.618	1	7
343.789	1	17
343.960	1	4
344.131	1	12
344.302	1	10
344.473	1	5
344.644	1	-1
344.815	1	-5
344.986	1	-5
345.157	1	-8
345.328	1	-4
345.499	1	9
345.670	1	7
345.841	1	-1
346.012	1	11
346.183	1	-6
346.354	1	0
346.526	1	10
346.697	1	4
346.868	1	2
347.039	1	-14
347.210	1	-1
347.381	1	2
347.552	1	5
347.723	1	-1
347.894	1	-1
348.065	1	-3
348.236	1	-3
348.407	1	7
348.578	1	-5
348.749	1	-7
348.920	1	-3
349.091	1	8
349.262	1	13
349.433	1	6
349.604	1	1
349.775	1	1
349.946	1	-8
350.117	1	-1
350.288	1	-1
350.459	1	-3
350.630	1	3
350.801	1	10
350.972	1	5
351.143	1	-3
351.314	1	4
351.485	1	-4
351.656	1	1
351.827	1	-7
351.998	1	2
352.169	1	2
352.340	1	-1
352.511	1	5
352.682	1	-6
352.853	1	7
353.024	1	8
353.195	1	2
353.366	1	-12
353.537	1	6
353.708	1	3
353.879	1	-3
354.050	1	-6
354.221	1	-7
354.392	1	1
354.563	1	2
354.734	1	-13
354.905	1	5
355.076	1	-2
355.247	1	-2
355.418	1	3
355.589	1	0
355.760	1	3
355.931	1	-9
356.102	1	4
356.273	1	7
356.444	1	-7
356.615	1	0
356.785	1	-2
356.956	1	11
357.127	1	7
357.298	1	-1
357.469	1	7
357.640	1	4
357.811	1	-4
357.982	1	1
358.153	1	-10
358.324	1	7
358.495	1	1
358.666	1	-3
358.837	1	-1
359.008	1	5
359.179	1	0
359.350	1	3
359.521	1	9
359.692	1	4
359.863	1	-8
360.034	1	-4
360.205	1	8
360.376	1	9
360.547	1	1
360.718	1	-6
360.889	1	3
361.060	1	-8
361.231	1	-5
361.401	1	-2
361.572	1	-1
361.743	1	12
361.914	1	-3
362.085	1	4
362.256	1	3
362.427	1	-6
362.598	1	-9
362.769	1	7
362.940	1	-10
363.111	1	9
363.282	1	8
363.453	1	1
363.624	1	5
363.795	1	-11
363.966	1	6
364.137	1	4
364.308	1	11
364.478	1	-6
364.649	1	12
364.820	1	2
364.991	1	-5
365.162	1	7
365.333	1	4
365.504	1	-11
365.675	1	-1
365.846	1	3
366.017	1	6
366.188	1	-7
366.359	1	-5
366.530	1	6
366.701	1	3
366.871	1	-4
367.042	1	-2
367.213	1	3
367.384	1	13
367.555	1	-1
367.726	1	10
367.897	1	4
368.068	1	-2
368.239	1	6
368.410	1	6
368.581	1	-5
368.752	1	-1
368.923	1	6
369.093	1	-7
369.264	1	-3
369.435	1	2
369.606	1	4
369.777	1	-6
369.948	1	-10
370.119	1	-8
370.290	1	-5
370.461	1	9
370.632	1	9
370.803	1	6
370.973	1	14
371.144	1	2
371.315	1	-4
371.486	1	0
371.657	1	9
371.828	1	3
371.999	1	2
372.170	1	-4
372.341	1	0
372.512	1	10
372.682	1	-5
372.853	1	-6
373.024	1	10
373.195	1	-1
373.366	1	-5
373.537	1	10
373.708	1	-4
373.879	1	-8
374.050	1	5
374.220	1	-6
374.391	1	-10
374.562	1	7
374.733	1	0
374.904	1	-6
375.075	1	-8
375.246	1	11
375.417	1	-1
375.588	1	-4
375.758	1	12
375.929	1	0
376.100	1	3
376.271	1	2
376.442	1	-6
376.613	1	6
376.784	1	2
376.955	1	-7
377.125	1	6
377.296	1	6
377.467	1	6
377.638	1	6
377.809	1	5
377.980	1	-3
378.151	1	-6
378.321	1	2
378.492	1	2
378.663	1	-2
378.834	1	4
379.005	1	-2
379.176	1	-2
379.347	1	5
379.518	1	10
379.688	1	-9
379.859	1	-7
380.030	1	3
380.201	1	1
380.372	1	-11
380.543	1	1
380.714	1	6
380.884	1	-6
381.055	1	3
381.226	1	13
381.397	1	12
381.568	1	-3
381.739	1	-15
381.910	1	2
382.080	1	0
382.251	1	11
382.422	1	0
382.593	1	-1
382.764	1	1
382.935	1	-4
383.105	1	-1
383.276	1	3
383.447	1	-7
383.618	1	8
383.789	1	1
383.960	1	3
384.130	1	-1
384.301	1	3
384.472	1	-9
384.643	1	-15
384.814	1	-3
384.985	1	0
385.156	1	3
385.326	1	5
385.497	1	-6
385.668	1	-1
385.839	1	-4
386.010	1	9
386.180	1	4
386.351	1	-9
386.522	1	1
386.693	1	6
386.864	1	4
387.035	1	7
387.205	1	-15
387.376	1	2
387.547	1	6
387.718	1	-4
387.889	1	-1
388.060	1	8
388.230	1	-1
388.401	1	11
388.572	1	0
388.743	1	-3
388.914	1	12
389.084	1	0
389.255	1	-4
389.426	1	5
389.597	1	-8
389.768	1	6
389.939	1	-2
390.109	1	1
390.280	1	11
390.451	1	-6
390.622	1	4
390.793	1	-3
390.963	1	8
391.134	1	-6
391.305	1	-1
391.476	1	9
391.647	1	-1
391.817	1	10
391.988	1	7
392.159	1	-1
392.330	1	-4
392.501	1	4
392.671	1	0
392.842	1	-2
393.013	1	2
393.184	1	1
393.355	1	8
393.525	1	-5
393.696	1	4
393.867	1	1
394.038	1	-2
394.208	1	-4
394.379	1	2
394.550	1	5
394.721	1	-6
394.892	1	5
395.062	1	6
395.233	1	1
395.404	1	3
395.575	1	11
395.746	1	-4
395.916	1	0
396.087	1	-4
396.258	1	4
396.429	1	5
396.599	1	2
396.770	1	5
396.941	1	13
397.112	1	-5
397.283	1	4
397.453	1	6
397.624	1	-13
397.795	1	2
397.966	1	4
398.136	1	-11
398.307	1	6
398.478	1	9
398.649	1	16
398.819	1	-4
398.990	1	2
399.161	1	2
399.332	1	6
399.503	1	-1
399.673	1	6
399.844	1	0
400.015	1	-10
400.186	1	-7
400.356	1	7
400.527	1	1
400.698	1	1
400.869	1	0
401.039	1	-1
401.210	1	1
401.381	1	1
401.552	1	-3
401.722	1	-7
401.893	1	10
402.064	1	1
402.235	1	10
402.405	1	-1
402.576	1	0
402.747	1	1
402.918	1	1
403.088	1	-11
403.259	1	10
403.430	1	4
403.601	1	-1
403.771	1	7
403.942	1	-8
404.113	1	-1
404.284	1	0
404.454	1	-7
404.625	1	-2
404.796	1	-10
404.967	1	1
405.137	1	4
405.308	1	-6
405.479	1	5
405.649	1	4
405.820	1	14
405.991	1	-3
406.162	1	4
406.332	1	1
406.503	1	-5
406.674	1	2
406.845	1	7
407.015	1	3
407.186	1	-5
407.357	1	-4
407.527	1	0
407.698	1	1
407.869	1	-2
408.040	1	-1
408.210	1	3
408.381	1	8
408.552	1	15
408.722	1	-9
408.893	1	-2
409.064	1	-3
409.235	1	-4
409.405	1	2
409.576	1	-3
409.747	1	2
409.917	1	4
410.088	1	0
410.259	1	-1
410.430	1	-2
410.600	1	7
410.771	1	0
410.942	1	2
411.112	1	7
411.283	1	-6
411.454	1	13
411.625	1	4
411.795	1	5
411.966	1	4
412.137	1	-2
412.307	1	11
412.478	1	5
412.649	1	-1
412.819	1	10
412.990	1	-2
413.161	1	2
413.332	1	9
413.502	1	-2
413.673	1	7
413.844	1	1
414.014	1	4
414.185	1	-7
414.356	1	-3
414.526	1	-10
414.697	1	5
414.868	1	4
415.038	1	9
415.209	1	5
415.380	1	5
415.550	1	8
415.721	1	-10
415.892	1	6
416.063	1	3
416.233	1	5
416.404	1	-8
416.575	1	1
416.745	1	-5
416.916	1	0
417.087	1	-5
417.257	1	3
417.428	1	5
417.599	1	0
417.769	1	-2
417.940	1	-1
418.111	1	1
418.281	1	11
418.452	1	-2
418.623	1	0
418.793	1	4
418.964	1	-7
419.135	1	5
419.305	1	-1
419.476	1	17
419.647	1	-10
419.817	1	7
419.988	1	5
420.159	1	7
420.329	1	7
420.500	1	7
420.671	1	-6
420.841	1	2
421.012	1	-4
421.183	1	-4
421.353	1	-5
421.524	1	2
421.695	1	16
421.865	1	2
422.036	1	3
422.206	1	8
422.377	1	4
422.548	1	-1
422.718	1	5
422.889	1	0
423.060	1	-4
423.230	1	-1
423.401	1	2
423.572	1	3
423.742	1	5
423.913	1	4
424.084	1	-1
424.254	1	-4
424.425	1	-3
424.595	1	2
424.766	1	0
424.937	1	7
425.107	1	10
425.278	1	-1
425.449	1	3
425.619	1	6
425.790	1	-2
425.961	1	1
426.131	1	0
426.302	1	-8
426.472	1	-6
426.643	1	10
426.814	1	-1
426.984	1	1
427.155	1	6
427.326	1	4
427.496	1	-5
427.667	1	-1
427.837	1	-2
428.008	1	7
428.179	1	7
428.349	1	4
428.520	1	-1
428.691	1	17
428.861	1	-4
429.032	1	10
429.202	1	8
429.373	1	11
429.544	1	-4
429.714	1	-3
429.885	1	13
430.055	1	5
430.226	1	3
430.397	1	-1
430.567	1	-3
430.738	1	-12
430.909	1	3
431.079	1	15
431.250	1	6
431.420	1	3
431.591	1	10
431.762	1	6
431.932	1	0
432.103	1	-13
432.273	1	5
432.444	1	-6
432.615	1	8
432.785	1	-4
432.956	1	-3
433.126	1	6
433.297	1	-6
433.468	1	0
433.638	1	3
433.809	1	10
433.979	1	5
434.150	1	11
434.320	1	11
434.491	1	-5
434.662	1	4
434.832	1	-6
435.003	1	5
435.173	1	-7
435.344	1	6
435.515	1	-3
435.685	1	-6
435.856	1	9
436.026	1	-4
436.197	1	4
436.368	1	-1
436.538	1	6
436.709	1	1
436.879	1	8
437.050	1	6
437.220	1	13
437.391	1	8
437.562	1	11
437.732	1	-1
437.903	1	-2
438.073	1	11
438.244	1	7
438.414	1	-7
438.585	1	-10
438.756	1	1
438.926	1	0
439.097	1	-2
439.267	1	9
439.438	1	2
439.608	1	-1
439.779	1	2
439.949	1	2
440.120	1	0
440.291	1	-2
440.461	1	-3
440.632	1	-1
440.802	1	2
440.973	1	13
441.143	1	0
441.314	1	-1
441.485	1	10
441.655	1	-6
441.826	1	6
441.996	1	-7
442.167	1	-4
442.337	1	5
442.508	1	4
442.678	1	-4
442.849	1	9
443.019	1	5
443.190	1	13
443.361	1	1
443.531	1	-4
443.702	1	5
443.872	1	6
444.043	1	3
444.213	1	4
444.384	1	0
444.554	1	2
444.725	1	18
444.895	1	8
445.066	1	3
445.237	1	-2
445.407	1	2
445.578	1	12
445.748	1	-10
445.919	1	0
446.089	1	12
446.260	1	-3
446.430	1	-4
446.601	1	15
446.771	1	8
446.942	1	-1
447.112	1	-2
447.283	1	10
447.453	1	3
447.624	1	-2
447.794	1	15
447.965	1	1
448.135	1	1
448.306	1	8
448.477	1	-2
448.647	1	-3
448.818	1	6
448.988	1	-1
449.159	1	3
449.329	1	4
449.500	1	-5
449.670	1	-4
449.841	1	-4
450.011	1	7
450.182	1	1
450.352	1	1
450.523	1	-6
450.693	1	-4
450.864	1	5
451.034	1	9
451.205	1	1
451.375	1	-10
451.546	1	6
451.716	1	2
451.887	1	1
452.057	1	0
452.228	1	12
452.398	1	-4
452.569	1	3
452.739	1	0
452.910	1	-3
453.080	1	7
453.251	1	9
453.421	1	-3
453.592	1	3
453.762	1	-4
453.933	1	-2
454.103	1	-6
454.274	1	1
454.444	1	0
454.615	1	4
454.785	1	2
454.956	1	-9
455.126	1	-7
455.297	1	3
455.467	1	-5
455.638	1	-3
455.808	1	4
455.979	1	-5
456.149	1	-2
456.320	1	1
456.490	1	4
456.661	1	3
456.831	1	-6
457.001	1	7
457.172	1	-9
457.342	1	-2
457.513	1	2
457.683	1	18
457.854	1	-2
458.024	1	-3
458.195	1	-2
458.365	1	8
458.536	1	-1
458.706	1	12
458.877	1	-7
459.047	1	12
459.218	1	0
459.388	1	2
459.559	1	0
459.729	1	-5
459.899	1	1
460.070	1	-5
460.240	1	3
460.411	1	6
460.581	1	0
460.752	1	1
460.922	1	2
461.093	1	5
461.263	1	5
461.434	1	-2
461.604	1	7
461.775	1	0
461.945	1	-13
462.115	1	12
462.286	1	4
462.456	1	0
462.627	1	-1
462.797	1	-4
462.968	1	8
463.138	1	7
463.309	1	-3
463.479	1	6
463.649	1	1
463.820	1	10
463.990	1	-1
464.161	1	-10
464.331	1	-6
464.502	1	-4
464.672	1	7
464.843	1	6
465.013	1	4
465.183	1	8
465.354	1	-2
465.524	1	7
465.695	1	4
465.865	1	-1
466.036	1	-5
466.206	1	5
466.376	1	0
466.547	1	6
466.717	1	3
466.888	1	11
467.058	1	4
467.229	1	13
467.399	1	11
467.569	1	15
467.740	1	-9
467.910	1	-4
468.081	1	-3
468.251	1	-2
468.422	1	10
468.592	1	8
468.762	1	0
468.933	1	-1
469.103	1	5
469.274	1	1
469.444	1	8
469.614	1	-7
469.785	1	-2
469.955	1	-16
470.126	1	-5
470.296	1	2
470.467	1	1
470.637	1	-6
470.807	1	7
470.978	1	-4
471.148	1	3
471.319	1	12
471.489	1	6
471.659	1	-9
471.830	1	4
472.000	1	-5
472.171	1	-1
472.341	1	1
472.511	1	-1
472.682	1	-3
472.852	1	8
473.023	1	1
473.193	1	9
473.363	1	6
473.534	1	4
473.704	1	5
473.875	1	3
474.045	1	7
474.215	1	5
474.386	1	-4
474.556	1	11
474.727	1	10
474.897	1	3
475.067	1	5
475.238	1	-2
475.408	1	-5
475.578	1	-5
475.749	1	7
475.919	1	5
476.090	1	16
476.260	1	-5
476.430	1	3
476.601	1	3
476.771	1	4
476.942	1	-8
477.112	1	5
477.282	1	-3
477.453	1	5
477.623	1	9
477.793	1	-3
477.964	1	-6
478.134	1	8
478.305	1	-1
478.475	1	-3
478.645	1	2
478.816	1	3
478.986	1	13
479.156	1	-9
479.327	1	0
479.497	1	4
479.667	1	-2
479.838	1	0
480.008	1	-6
480.179	1	1
480.349	1	4
480.519	1	-2
480.690	1	5
480.860	1	8
481.030	1	-1
481.201	1	-2
481.371	1	3
481.541	1	4
481.712	1	7
481.882	1	6
482.053	1	-8
482.223	1	-1
482.393	1	3
482.564	1	1
482.734	1	6
482.904	1	0
483.075	1	1
483.245	1	2
483.415	1	-4
483.586	1	12
483.756	1	5
483.926	1	0
484.097	1	5
484.267	1	-1
484.437	1	6
484.608	1	-8
484.778	1	-1
484.948	1	4
485.119	1	1
485.289	1	-4
485.459	1	11
485.630	1	2
485.800	1	-1
485.970	1	-10
486.141	1	-4
486.311	1	-3
486.481	1	-5
486.652	1	3
486.822	1	1
486.992	1	15
487.163	1	-10
487.333	1	-2
487.503	1	-2
487.674	1	6
487.844	1	-8
488.014	1	-3
488.185	1	4
488.355	1	2
488.525	1	6
488.696	1	8
488.866	1	1
489.036	1	1
489.207	1	-2
489.377	1	1
489.547	1	0
489.718	1	-4
489.888	1	1
490.058	1	-4
490.228	1	2
490.399	1	4
490.569	1	5
490.739	1	9
490.910	1	1
491.080	1	-6
491.250	1	6
491.421	1	5
491.591	1	-2
491.761	1	11
491.932	1	0
492.102	1	6
492.272	1	-11
492.442	1	-3
492.613	1	9
492.783	1	-12
492.953	1	10
493.124	1	-7
493.294	1	0
493.464	1	7
493.635	1	4
493.805	1	12
493.975	1	4
494.145	1	6
494.316	1	-6
494.486	1	-6
494.656	1	-4
494.827	1	3
494.997	1	9
495.167	1	14
495.337	1	5
495.508	1	-6
495.678	1	5
495.848	1	1
496.019	1	0
496.189	1	11
496.359	1	3
496.529	1	0
496.700	1	5
496.870	1	-2
497.040	1	-5
497.211	1	3
497.381	1	-1
497.551	1	7
497.721	1	-5
497.892	1	4
498.062	1	2
498.232	1	0
498.403	1	-8
498.573	1	2
498.743	1	-3
498.913	1	6
499.084	1	5
499.254	1	0
499.424	1	3
499.594	1	5
499.765	1	-1
499.935	1	0
500.105	1	-6
500.275	1	9
500.446	1	5
500.616	1	2
500.786	1	-4
500.956	1	9
501.127	1	8
501.297	1	0
501.467	1	-2
501.638	1	-2
501.808	1	4
501.978	1	9
502.148	1	-4
502.319	1	-2
502.489	1	1
502.659	1	4
502.829	1	-5
503.000	1	2
503.170	1	-3
503.340	1	6
503.510	1	-12
503.681	1	11
503.851	1	-10
504.021	1	-1
504.191	1	7
504.362	1	8
504.532	1	2
504.702	1	3
504.872	1	-2
505.042	1	0
505.213	1	-10
505.383	1	6
505.553	1	-2
505.723	1	-4
505.894	1	-5
506.064	1	-3
506.234	1	-5
506.404	1	8
506.575	1	-5
506.745	1	-6
506.915	1	6
507.085	1	0
507.256	1	8
507.426	1	8
507.596	1	2
507.766	1	4
507.936	1	2
508.107	1	0
508.277	1	0
508.447	1	-4
508.617	1	1
508.788	1	-10
508.958	1	12
509.128	1	0
509.298	1	-1
509.468	1	10
509.639	1	-2
509.809	1	-1
509.979	1	0
510.149	1	2
510.319	1	1
510.490	1	1
510.660	1	12
510.830	1	-4
511.000	1	1
511.171	1	-2
511.341	1	2
511.511	1	-2
511.681	1	3
511.851	1	4
512.022	1	-4
512.192	1	8
512.362	1	1
512.532	1	7
512.702	1	-9
512.873	1	2
513.043	1	3
513.213	1	-1
513.383	1	-4
513.553	1	-6
513.724	1	12
513.894	1	15
514.064	1	-4
514.234	1	-3
514.404	1	-6
514.575	1	11
514.745	1	4
514.915	1	-8
515.085	1	-3
515.255	1	0
515.425	1	9
515.596	1	4
515.766	1	2
515.936	1	8
516.106	1	3
516.276	1	5
516.447	1	5
516.617	1	-2
516.787	1	-3
516.957	1	-4
517.127	1	-2
517.297	1	1
517.468	1	2
517.638	1	-1
517.808	1	4
517.978	1	2
518.148	1	11
518.319	1	-8
518.489	1	12
518.659	1	5
518.829	1	11
518.999	1	-1
519.169	1	3
519.340	1	-2
519.510	1	4
519.680	1	-10
519.850	1	7
520.020	1	-3
520.190	1	11
520.361	1	-6
520.531	1	-1
520.701	1	0
520.871	1	0
521.041	1	6
521.211	1	-3
521.382	1	3
521.552	1	-4
521.722	1	13
521.892	1	-6
522.062	1	11
522.232	1	2
522.402	1	9
522.573	1	2
522.743	1	1
522.913	1	3
523.083	1	9
523.253	1	-10
523.423	1	2
523.593	1	-8
523.764	1	9
523.934	1	-6
524.104	1	1
524.274	1	-1
524.444	1	-4
524.614	1	14
524.784	1	-3
524.955	1	-7
525.125	1	-5
525.295	1	-8
525.465	1	4
525.635	1	-1
525.805	1	2
525.975	1	-11
526.146	1	-4
526.316	1	9
526.486	1	0
526.656	1	10
526.826	1	1
526.996	1	6
527.166	1	11
527.337	1	-2
527.507	1	-2
527.677	1	8
527.847	1	-2
528.017	1	5
528.187	1	11
528.357	1	5
528.527	1	-1
528.698	1	-1
528.868	1	0
529.038	1	-9
529.208	1	6
529.378	1	1
529.548	1	0
529.718	1	-2
529.888	1	1
530.058	1	9
530.229	1	-4
530.399	1	-1
530.569	1	-4
530.739	1	0
530.909	1	0
531.079	1	-5
531.249	1	10
531.419	1	0
531.589	1	12
531.760	1	5
531.930	1	-9
532.100	1	6
532.270	1	-4
532.440	1	-6
532.610	1	-4
532.780	1	2
532.950	1	-11
533.120	1	3
533.290	1	-10
533.461	1	0
533.631	1	-2
533.801	1	10
533.971	1	1
534.141	1	8
534.311	1	-6
534.481	1	-3
534.651	1	3
534.821	1	-2
534.991	1	-4
535.162	1	3
535.332	1	8
535.502	1	2
535.672	1	-2
535.842	1	-3
536.012	1	-4
536.182	1	1
536.352	1	-3
536.522	1	4
536.692	1	-4
536.862	1	-3
537.032	1	-3
537.203	1	4
537.373	1	4
537.543	1	3
537.713	1	4
537.883	1	-6
538.053	1	-9
538.223	1	0
538.393	1	8
538.563	1	8
538.733	1	-13
538.903	1	-4
539.073	1	11
539.243	1	-14
539.413	1	-6
539.584	1	-1
539.754	1	1
539.924	1	-1
540.094	1	16
540.264	1	3
540.434	1	6
540.604	1	2
540.774	1	-2
540.944	1	4
541.114	1	-7
541.284	1	-2
541.454	1	11
541.624	1	-3
541.794	1	3
541.964	1	-7
542.134	1	5
542.305	1	0
542.475	1	-3
542.645	1	1
542.815	1	-9
542.985	1	-1
543.155	1	13
543.325	1	-8
543.495	1	-6
543.665	1	7
543.835	1	6
544.005	1	8
544.175	1	7
544.345	1	-5
544.515	1	5
544.685	1	5
544.855	1	-2
545.025	1	0
545.195	1	-7
545.365	1	-3
545.535	1	0
545.705	1	0
545.875	1	12
546.045	1	-4
546.216	1	10
546.386	1	6
546.556	1	-3
546.726	1	3
546.896	1	8
547.066	1	13
547.236	1	-5
547.406	1	7
547.576	1	0
547.746	1	-1
547.916	1	-12
548.086	1	-2
548.256	1	-4
548.426	1	-4
548.596	1	7
548.766	1	4
548.936	1	-1
549.106	1	-12
549.276	1	-6
549.446	1	-9
549.616	1	-5
549.786	1	11
549.956	1	-3
550.126	1	8
550.296	1	4
550.466	1	9
550.636	1	5
550.806	1	0
550.976	1	-5
551.146	1	-3
551.316	1	1
551.486	1	-1
551.656	1	-8
551.826	1	-3
551.996	1	-2
552.166	1	-2
552.336	1	7
552.506	1	10
552.676	1	-3
552.846	1	0
553.016	1	2
553.186	1	0
553.356	1	0
553.526	1	4
553.696	1	-5
553.866	1	6
554.036	1	6
554.206	1	5
554.376	1	-3
554.546	1	3
554.716	1	9
554.886	1	-5
555.056	1	7
555.226	1	-7
555.396	1	3
555.566	1	-7
555.736	1	2
555.906	1	-3
556.076	1	-5
556.246	1	-4
556.416	1	13
556.586	1	-3
556.756	1	3
556.926	1	3
557.096	1	8
557.266	1	3
557.436	1	3
557.606	1	-2
557.776	1	-13
557.946	1	2
558.116	1	4
558.286	1	-18
558.456	1	-3
558.626	1	5
558.796	1	7
558.966	1	1
559.136	1	0
559.306	1	7
559.476	1	0
559.646	1	7
559.816	1	2
559.986	1	-3
560.155	1	-2
560.325	1	4
560.495	1	7
560.665	1	-6
560.835	1	-13
561.005	1	-5
561.175	1	2
561.345	1	8
561.515	1	-5
561.685	1	3
561.855	1	-5
562.025	1	7
562.195	1	4
562.365	1	-6
562.535	1	6
562.705	1	-1
562.875	1	-6
563.045	1	0
563.215	1	2
563.385	1	-1
563.555	1	0
563.725	1	5
563.895	1	6
564.064	1	5
564.234	1	0
564.404	1	1
564.574	1	0
564.744	1	-3
564.914	1	-2
565.084	1	-14
565.254	1	5
565.424	1	5
565.594	1	-3
565.764	1	-1
565.934	1	0
566.104	1	5
566.274	1	4
566.444	1	0
566.614	1	-2
566.783	1	-3
566.953	1	3
567.123	1	7
567.293	1	-7
567.463	1	8
567.633	1	-4
567.803	1	1
567.973	1	3
568.143	1	8
568.313	1	6
568.483	1	-1
568.653	1	5
568.823	1	-1
568.993	1	7
569.162	1	4
569.332	1	0
569.502	1	3
569.672	1	7
569.842	1	6
570.012	1	10
570.182	1	0
570.352	1	1
570.522	1	-12
570.692	1	0
570.862	1	-6
571.031	1	-3
571.201	1	7
571.371	1	-2
571.541	1	13
571.711	1	4
571.881	1	10
572.051	1	-16
572.221	1	1
572.391	1	4
572.561	1	-3
572.731	1	-6
572.900	1	-2
573.070	1	1
573.240	1	0
573.410	1	7
573.580	1	18
573.750	1	3
573.920	1	1
574.090	1	2
574.260	1	-3
574.430	1	4
574.599	1	-2
574.769	1	-3
574.939	1	-1
575.109	1	0
575.279	1	8
575.449	1	-2
575.619	1	-6
575.789	1	11
575.959	1	-4
576.128	1	3
576.298	1	-1
576.468	1	13
576.638	1	7
576.808	1	10
576.978	1	-9
577.148	1	12
577.318	1	2
577.487	1	1
577.657	1	-5
577.827	1	-9
577.997	1	2
578.167	1	14
578.337	1	11
578.507	1	10
578.677	1	7
578.846	1	2
579.016	1	14
579.186	1	-2
579.356	1	1
579.526	1	4
579.696	1	9
579.866	1	-4
580.036	1	-2
580.205	1	6
580.375	1	4
580.545	1	4
580.715	1	-3
580.885	1	-12
581.055	1	4
581.225	1	-5
581.394	1	-2
581.564	1	1
581.734	1	-3
581.904	1	1
582.074	1	-4
582.244	1	6
582.414	1	-1
582.583	1	6
582.753	1	8
582.923	1	2
583.093	1	-9
583.263	1	7
583.433	1	-1
583.603	1	-1
583.772	1	6
583.942	1	7
584.112	1	-2
584.282	1	10
584.452	1	1
584.622	1	-7
584.791	1	-2
584.961	1	1
585.131	1	-4
585.301	1	-10
585.471	1	14
585.641	1	7
585.811	1	10
585.980	1	0
586.150	1	-7
586.320	1	-8
586.490	1	2
586.660	1	-3
586.830	1	10
586.999	1	2
587.169	1	4
587.339	1	-4
587.509	1	0
587.679	1	6
587.849	1	-9
588.018	1	10
588.188	1	2
588.358	1	6
588.528	1	-4
588.698	1	-2
588.867	1	2
589.037	1	-4
589.207	1	5
589.377	1	-5
589.547	1	4
589.717	1	-1
589.886	1	-3
590.056	1	-2
590.226	1	4
590.396	1	0
590.566	1	-2
590.735	1	18
590.905	1	-1
591.075	1	-10
591.245	1	6
591.415	1	0
591.585	1	-3
591.754	1	6
591.924	1	8
592.094	1	0
592.264	1	-5
592.434	1	-2
592.603	1	8
592.773	1	-5
592.943	1	-1
593.113	1	-3
593.283	1	6
593.452	1	5
593.622	1	8
593.792	1	5
593.962	1	-2
594.132	1	-2
594.301	1	-2
594.471	1	12
594.641	1	1
594.811	1	-8
594.981	1	-8
595.150	1	2
595.320	1	6
595.490	1	1
595.660	1	4
595.829	1	-1
595.999	1	2
596.169	1	11
596.339	1	6
596.509	1	2
596.678	1	-2
596.848	1	5
597.018	1	1
597.188	1	-4
597.358	1	-8
597.527	1	-2
597.697	1	-7
597.867	1	5
598.037	1	12
598.206	1	3
598.376	1	-7
598.546	1	-10
598.716	1	-1
598.885	1	7
599.055	1	4
599.225	1	7
599.395	1	-1
599.565	1	2
599.734	1	3
599.904	1	4
600.074	1	-1
600.244	1	1
600.413	1	-3
600.583	1	1
600.753	1	3
600.923	1	9
601.092	1	1
601.262	1	10
601.432	1	0
601.602	1	3
601.771	1	3
601.941	1	0
602.111	1	-5
602.281	1	1
602.451	1	3
602.620	1	-6
602.790	1	0
602.960	1	5
603.130	1	-6
603.299	1	8
603.469	1	7
603.639	1	2
603.809	1	-2
603.978	1	-6
604.148	1	12
604.318	1	11
604.487	1	-4
604.657	1	1
604.827	1	-1
604.997	1	6
605.166	1	4
605.336	1	6
605.506	1	-2
605.676	1	2
605.845	1	8
606.015	1	-3
606.185	1	-1
606.355	1	2
606.524	1	5
606.694	1	-6
606.864	1	-3
607.034	1	-4
607.203	1	2
607.373	1	2
607.543	1	-5
607.712	1	0
607.882	1	2
608.052	1	5
608.222	1	3
608.391	1	6
608.561	1	4
608.731	1	-4
608.901	1	-1
609.070	1	7
609.240	1	6
609.410	1	4
609.579	1	-13
609.749	1	1
609.919	1	8
610.089	1	-9
610.258	1	-3
610.428	1	-3
610.598	1	-6
610.767	1	-4
610.937	1	-5
611.107	1	-5
611.277	1	7
611.446	1	2
611.616	1	8
611.786	1	-8
611.955	1	-9
612.125	1	-2
612.295	1	1
612.465	1	7
612.634	1	1
612.804	1	2
612.974	1	-8
613.143	1	9
613.313	1	-5
613.483	1	0
613.652	1	-7
613.822	1	0
613.992	1	6
614.162	1	0
614.331	1	6
614.501	1	-6
614.671	1	7
614.840	1	7
615.010	1	6
615.180	1	9
615.349	1	-3
615.519	1	4
615.689	1	4
615.858	1	5
616.028	1	-2
616.198	1	-1
616.368	1	0
616.537	1	-5
616.707	1	12
616.877	1	4
617.046	1	-3
617.216	1	8
617.386	1	9
617.555	1	4
617.725	1	-1
617.895	1	7
618.064	1	0
618.234	1	-4
618.404	1	4
618.573	1	0
618.743	1	13
618.913	1	5
619.082	1	11
619.252	1	4
619.422	1	3
619.591	1	-5
619.761	1	5
619.931	1	-4
620.100	1	5
620.270	1	2
620.440	1	-2
620.609	1	-11
620.779	1	-3
620.949	1	10
621.118	1	4
621.288	1	4
621.458	1	14
621.627	1	0
621.797	1	10
621.967	1	-2
622.136	1	0
622.306	1	-8
622.476	1	2
622.645	1	-3
622.815	1	-12
622.985	1	-8
623.154	1	-6
623.324	1	5
623.494	1	19
623.663	1	0
623.833	1	-9
624.002	1	6
624.172	1	-3
624.342	1	5
624.511	1	5
624.681	1	8
624.851	1	6
625.020	1	20
625.190	1	-1
625.360	1	2
625.529	1	-7
625.699	1	-7
625.869	1	-3
626.038	1	2
626.208	1	1
626.377	1	3
626.547	1	7
626.717	1	1
626.886	1	2
627.056	1	0
627.226	1	7
627.395	1	2
627.565	1	-1
627.735	1	-4
627.904	1	7
628.074	1	-2
628.243	1	6
628.413	1	18
628.583	1	2
628.752	1	-3
628.922	1	4
629.091	1	-6
629.261	1	0
629.431	1	-2
629.600	1	-2
629.770	1	5
629.940	1	-6
630.109	1	-1
630.279	1	1
630.448	1	2
630.618	1	10
630.788	1	0
630.957	1	11
631.127	1	3
631.297	1	-2
631.466	1	-3
631.636	1	-8
631.805	1	-3
631.975	1	9
632.145	1	-4
632.314	1	-7
632.484	1	5
632.653	1	6
632.823	1	11
632.993	1	5
633.162	1	0
633.332	1	2
633.501	1	-9
633.671	1	7
633.841	1	-1
634.010	1	9
634.180	1	-9
634.349	1	1
634.519	1	4
634.689	1	1
634.858	1	-1
635.028	1	0
635.197	1	8
635.367	1	-9
635.537	1	-4
635.706	1	-2
635.876	1	-5
636.045	1	-5
636.215	1	-5
636.384	1	10
636.554	1	2
636.724	1	6
636.893	1	3
637.063	1	11
637.232	1	2
637.402	1	8
637.572	1	10
637.741	1	-14
637.911	1	-8
638.080	1	1
638.250	1	3
638.419	1	3
638.589	1	4
638.759	1	5
638.928	1	8
639.098	1	13
639.267	1	-3
639.437	1	-5
639.606	1	-2
639.776	1	-4
639.946	1	9
640.115	1	2
640.285	1	4
640.454	1	-4
640.624	1	13
640.793	1	0
640.963	1	-8
641.132	1	3
641.302	1	-4
641.472	1	-1
641.641	1	-2
641.811	1	-11
641.980	1	-3
642.150	1	6
642.319	1	-5
642.489	1	-2
642.659	1	-6
642.828	1	1
642.998	1	-1
643.167	1	-4
643.337	1	-1
643.506	1	12
643.676	1	-4
643.845	1	1
644.015	1	3
644.184	1	3
644.354	1	2
644.524	1	5
644.693	1	0
644.863	1	6
645.032	1	5
645.202	1	9
645.371	1	-10
645.541	1	5
645.710	1	2
645.880	1	9
646.049	1	-1
646.219	1	5
646.388	1	3
646.558	1	10
646.728	1	0
646.897	1	1
647.067	1	13
647.236	1	-5
647.406	1	-3
647.575	1	1
647.745	1	-2
647.914	1	-2
648.084	1	-2
648.253	1	8
648.423	1	-3
648.592	1	-1
648.762	1	-3
648.931	1	9
649.101	1	-4
649.270	1	1
649.440	1	-7
649.610	1	-4
649.779	1	7
649.949	1	-11
650.118	1	3
650.288	1	4
650.457	1	3
650.627	1	1
650.796	1	-14
650.966	1	-1
651.135	1	4
651.305	1	3
651.474	1	8
651.644	1	-4
651.813	1	0
651.983	1	7
652.152	1	3
652.322	1	-8
652.491	1	5
652.661	1	-7
652.830	1	10
653.000	1	-10
653.169	1	2
653.339	1	11
653.508	1	8
653.678	1	-12
653.847	1	-6
654.017	1	5
654.186	1	-6
654.356	1	0
654.525	1	-1
654.695	1	-5
654.864	1	1
655.034	1	3
655.203	1	-8
655.373	1	3
655.542	1	-3
655.712	1	-4
655.881	1	10
656.051	1	-3
656.220	1	4
656.390	1	10
656.559	1	4
656.729	1	5
656.898	1	0
657.068	1	0
657.237	1	-2
657.406	1	1
657.576	1	-3
657.745	1	1
657.915	1	2
658.084	1	5
658.254	1	3
658.423	1	9
658.593	1	1
658.762	1	12
658.932	1	-3
659.101	1	2
659.271	1	5
659.440	1	1
659.610	1	12
659.779	1	-2
659.949	1	4
660.118	1	1
660.288	1	1
660.457	1	9
660.626	1	7
660.796	1	-3
660.965	1	10
661.135	1	7
661.304	1	1
661.474	1	-4
661.643	1	-2
661.813	1	15
661.982	1	0
662.152	1	5
662.321	1	-8
662.491	1	1
662.660	1	-4
662.829	1	-4
662.999	1	10
663.168	1	2
663.338	1	2
663.507	1	-6
663.677	1	-8
663.846	1	-1
664.016	1	5
664.185	1	1
664.354	1	1
664.524	1	-5
664.693	1	-1
664.863	1	-1
665.032	1	6
665.202	1	-2
665.371	1	-5
665.541	1	-9
665.710	1	0
665.879	1	5
666.049	1	2
666.218	1	-1
666.388	1	10
666.557	1	1
666.727	1	-5
666.896	1	7
667.065	1	7
667.235	1	-2
667.404	1	4
667.574	1	7
667.743	1	6
667.913	1	-4
668.082	1	0
668.251	1	3
668.421	1	-7
668.590	1	5
668.760	1	0
668.929	1	-1
669.099	1	5
669.268	1	1
669.437	1	2
669.607	1	-3
669.776	1	0
669.946	1	6
670.115	1	6
670.285	1	-1
670.454	1	6
670.623	1	1
670.793	1	-3
670.962	1	4
671.132	1	1
671.301	1	-7
671.470	1	-1
671.640	1	0
671.809	1	-3
671.979	1	2
672.148	1	8
672.317	1	-1
672.487	1	-4
672.656	1	7
672.826	1	4
672.995	1	4
673.164	1	14
673.334	1	3
673.503	1	3
673.673	1	-6
673.842	1	-1
674.011	1	-12
674.181	1	11
674.350	1	-5
674.520	1	8
674.689	1	-3
674.858	1	-4
675.028	1	11
675.197	1	12
675.367	1	1
675.536	1	8
675.705	1	-10
675.875	1	-11
676.044	1	1
676.214	1	5
676.383	1	0
676.552	1	4
676.722	1	0
676.891	1	-2
677.060	1	2
677.230	1	5
677.399	1	10
677.569	1	8
677.738	1	8
677.907	1	7
678.077	1	10
678.246	1	-4
678.416	1	2
678.585	1	0
678.754	1	3
678.924	1	5
679.093	1	10
679.262	1	7
679.432	1	13
679.601	1	16
679.771	1	-1
679.940	1	-5
680.109	1	-3
680.279	1	14
680.448	1	-9
680.617	1	4
680.787	1	-8
680.956	1	1
681.125	1	7
681.295	1	6
681.464	1	3
681.634	1	-3
681.803	1	1
681.972	1	-7
682.142	1	-3
682.311	1	5
682.480	1	-3
682.650	1	-2
682.819	1	4
682.988	1	6
683.158	1	2
683.327	1	6
683.496	1	0
683.666	1	9
683.835	1	0
684.004	1	8
684.174	1	0
684.343	1	1
684.512	1	2
684.682	1	1
684.851	1	10
685.021	1	3
685.190	1	6
685.359	1	-3
685.529	1	5
685.698	1	3
685.867	1	-7
686.037	1	-4
686.206	1	3
686.375	1	4
686.545	1	-9
686.714	1	-4
686.883	1	14
687.053	1	-11
687.222	1	5
687.391	1	5
687.561	1	0
687.730	1	-6
687.899	1	8
688.069	1	-5
688.238	1	0
688.407	1	5
688.577	1	0
688.746	1	-5
