340.368	1	6
340.539	1	1
340.710	1	-3
340.881	1	0
341.052	1	4
341.223	1	-10
341.394	1	-2
341.565	1	-1
341.737	1	12
341.908	1	-3
342.079	1	9
342.250	1	8
342.421	1	-3
342.592	1	-3
342.763	1	-3
342.934	1	1
343.105	1	-6
343.276	1	0
343.447	1	9
343.618	1	1
343.789	1	13
343.960	1	11
344.131	1	9
344.302	1	12
344.473	1	-6
344.644	1	0
344.815	1	2
344.986	1	-7
345.157	1	0
345.328	1	-5
345.499	1	3
345.670	1	-2
345.841	1	2
346.012	1	6
346.183	1	-11
346.354	1	6
346.526	1	7
346.697	1	-3
346.868	1	-1
347.039	1	-7
347.210	1	-1
347.381	1	-6
347.552	1	14
347.723	1	-2
347.894	1	0
348.065	1	-11
348.236	1	2
348.407	1	6
348.578	1	0
348.749	1	2
348.920	1	-1
349.091	1	2
349.262	1	6
349.433	1	6
349.604	1	5
349.775	1	16
349.946	1	-3
350.117	1	1
350.288	1	6
350.459	1	-10
350.630	1	-3
350.801	1	3
350.972	1	-5
351.143	1	0
351.314	1	-4
351.485	1	-5
351.656	1	-4
351.827	1	-3
351.998	1	2
352.169	1	-4
352.340	1	1
352.511	1	0
352.682	1	-7
352.853	1	5
353.024	1	1
353.195	1	4
353.366	1	-3
353.537	1	5
353.708	1	-9
353.879	1	3
354.050	1	-5
354.221	1	-3
354.392	1	-3
354.563	1	7
354.734	1	-16
354.905	1	14
355.076	1	-2
355.247	1	9
355.418	1	7
355.589	1	0
355.760	1	3
355.931	1	-1
356.102	1	10
356.273	1	2
356.444	1	-1
356.615	1	5
356.785	1	4
356.956	1	8
357.127	1	-1
357.298	1	1
357.469	1	6
357.640	1	8
357.811	1	4
357.982	1	3
358.153	1	-7
358.324	1	1
358.495	1	4
358.666	1	9
358.837	1	1
359.008	1	7
359.179	1	5
359.350	1	10
359.521	1	-1
359.692	1	1
359.863	1	-2
360.034	1	3
360.205	1	6
360.376	1	19
360.547	1	9
360.718	1	10
360.889	1	10
361.060	1	3
361.231	1	1
361.401	1	8
361.572	1	9
361.743	1	11
361.914	1	13
362.085	1	22
362.256	1	10
362.427	1	10
362.598	1	2
362.769	1	20
362.940	1	4
363.111	1	10
363.282	1	21
363.453	1	15
363.624	1	9
363.795	1	0
363.966	1	22
364.137	1	24
364.308	1	18
364.478	1	21
364.649	1	24
364.820	1	19
364.991	1	24
365.162	1	28
365.333	1	24
365.504	1	18
365.675	1	23
365.846	1	21
366.017	1	20
366.188	1	21
366.359	1	25
366.530	1	27
366.701	1	30
366.871	1	22
367.042	1	28
367.213	1	35
367.384	1	39
367.555	1	40
367.726	1	43
367.897	1	43
368.068	1	38
368.239	1	43
368.410	1	31
368.581	1	26
368.752	1	28
368.923	1	48
369.093	1	40
369.264	1	38
369.435	1	28
369.606	1	42
369.777	1	24
369.948	1	38
370.119	1	31
370.290	1	36
370.461	1	36
370.632	1	23
370.803	1	44
370.973	1	39
371.144	1	34
371.315	1	35
371.486	1	33
371.657	1	33
371.828	1	26
371.999	1	17
372.170	1	29
372.341	1	21
372.512	1	14
372.682	1	38
372.853	1	18
373.024	1	26
373.195	1	24
373.366	1	21
373.537	1	27
373.708	1	24
373.879	1	24
374.050	1	10
374.220	1	11
374.391	1	15
374.562	1	31
374.733	1	17
374.904	1	7
375.075	1	7
375.246	1	26
375.417	1	9
375.588	1	15
375.758	1	25
375.929	1	19
376.100	1	10
376.271	1	11
376.442	1	17
376.613	1	26
376.784	1	19
376.955	1	13
377.125	1	17
377.296	1	15
377.467	1	27
377.638	1	19
377.809	1	17
377.980	1	5
378.151	1	7
378.321	1	20
378.492	1	18
378.663	1	20
378.834	1	10
379.005	1	9
379.176	1	18
379.347	1	6
379.518	1	17
379.688	1	-5
379.859	1	8
380.030	1	14
380.201	1	10
380.372	1	3
380.543	1	16
380.714	1	9
380.884	1	6
381.055	1	6
381.226	1	21
381.397	1	22
381.568	1	1
381.739	1	2
381.910	1	0
382.080	1	10
382.251	1	15
382.422	1	7
382.593	1	7
382.764	1	9
382.935	1	12
383.105	1	12
383.276	1	5
383.447	1	6
383.618	1	8
383.789	1	4
383.960	1	2
384.130	1	8
384.301	1	16
384.472	1	2
384.643	1	0
384.814	1	6
384.985	1	10
385.156	1	12
385.326	1	10
385.497	1	4
385.668	1	7
385.839	1	-8
386.010	1	10
386.180	1	3
386.351	1	4
386.522	1	11
386.693	1	17
386.864	1	4
387.035	1	17
387.205	1	2
387.376	1	-1
387.547	1	16
387.718	1	5
387.889	1	11
388.060	1	9
388.230	1	12
388.401	1	8
388.572	1	-6
388.743	1	12
388.914	1	17
389.084	1	8
389.255	1	1
389.426	1	1
389.597	1	3
389.768	1	9
389.939	1	4
390.109	1	3
390.280	1	10
390.451	1	-6
390.622	1	7
390.793	1	5
390.963	1	19
391.134	1	-4
391.305	1	0
391.476	1	1
391.647	1	-4
391.817	1	8
391.988	1	13
392.159	1	0
392.330	1	3
392.501	1	6
392.671	1	-5
392.842	1	6
393.013	1	2
393.184	1	4
393.355	1	7
393.525	1	3
393.696	1	12
393.867	1	11
394.038	1	-7
394.208	1	1
394.379	1	7
394.550	1	-4
394.721	1	4
394.892	1	10
395.062	1	8
395.233	1	-3
395.404	1	4
395.575	1	13
395.746	1	4
395.916	1	5
396.087	1	12
396.258	1	-5
396.429	1	4
396.599	1	0
396.770	1	-4
396.941	1	3
397.112	1	-2
397.283	1	4
397.453	1	2
397.624	1	6
397.795	1	6
397.966	1	3
398.136	1	1
398.307	1	8
398.478	1	9
398.649	1	5
398.819	1	-8
398.990	1	-2
399.161	1	0
399.332	1	12
399.503	1	0
399.673	1	7
399.844	1	0
400.015	1	-8
400.186	1	-2
400.356	1	8
400.527	1	-1
400.698	1	5
400.869	1	2
401.039	1	3
401.210	1	2
401.381	1	-4
401.552	1	-5
401.722	1	-3
401.893	1	-1
402.064	1	0
402.235	1	4
402.405	1	-1
402.576	1	-2
402.747	1	0
402.918	1	1
403.088	1	5
403.259	1	0
403.430	1	2
403.601	1	-3
403.771	1	7
403.942	1	9
404.113	1	6
404.284	1	9
404.454	1	-2
404.625	1	-2
404.796	1	-2
404.967	1	0
405.137	1	8
405.308	1	1
405.479	1	-4
405.649	1	11
405.820	1	14
405.991	1	4
406.162	1	-1
406.332	1	1
406.503	1	-2
406.674	1	2
406.845	1	14
407.015	1	9
407.186	1	-6
407.357	1	-2
407.527	1	-1
407.698	1	4
407.869	1	-1
408.040	1	4
408.210	1	6
408.381	1	3
408.552	1	8
408.722	1	3
408.893	1	6
409.064	1	-1
409.235	1	0
409.405	1	0
409.576	1	-7
409.747	1	0
409.917	1	0
410.088	1	3
410.259	1	-8
410.430	1	-1
410.600	1	0
410.771	1	0
410.942	1	-7
411.112	1	11
411.283	1	-2
411.454	1	7
411.625	1	10
411.795	1	-2
411.966	1	6
412.137	1	-12
412.307	1	2
412.478	1	-4
412.649	1	3
412.819	1	9
412.990	1	5
413.161	1	-6
413.332	1	13
413.502	1	-2
413.673	1	1
413.844	1	-6
414.014	1	6
414.185	1	-2
414.356	1	2
414.526	1	-4
414.697	1	-4
414.868	1	4
415.038	1	8
415.209	1	3
415.380	1	-3
415.550	1	18
415.721	1	-5
415.892	1	5
416.063	1	-3
416.233	1	5
416.404	1	-12
416.575	1	1
416.745	1	-5
416.916	1	-2
417.087	1	-8
417.257	1	-1
417.428	1	2
417.599	1	-4
417.769	1	-2
417.940	1	-4
418.111	1	11
418.281	1	6
418.452	1	3
418.623	1	-6
418.793	1	11
418.964	1	-9
419.135	1	-3
419.305	1	9
419.476	1	11
419.647	1	-6
419.817	1	1
419.988	1	7
420.159	1	-3
420.329	1	4
420.500	1	13
420.671	1	0
420.841	1	5
421.012	1	6
421.183	1	6
421.353	1	-2
421.524	1	8
421.695	1	7
421.865	1	2
422.036	1	-2
422.206	1	2
422.377	1	-4
422.548	1	6
422.718	1	5
422.889	1	-2
423.060	1	-6
423.230	1	2
423.401	1	9
423.572	1	10
423.742	1	1
423.913	1	0
424.084	1	-4
424.254	1	-3
424.425	1	-7
424.595	1	16
424.766	1	-8
424.937	1	10
425.107	1	6
425.278	1	1
425.449	1	-1
425.619	1	6
425.790	1	5
425.961	1	8
426.131	1	2
426.302	1	0
426.472	1	-3
426.643	1	-5
426.814	1	7
426.984	1	-3
427.155	1	7
427.326	1	-3
427.496	1	-5
427.667	1	-2
427.837	1	-2
428.008	1	5
428.179	1	2
428.349	1	-2
428.520	1	3
428.691	1	20
428.861	1	-2
429.032	1	1
429.202	1	2
429.373	1	9
429.544	1	-3
429.714	1	2
429.885	1	-1
430.055	1	-9
430.226	1	1
430.397	1	1
430.567	1	1
430.738	1	-3
430.909	1	9
431.079	1	8
431.250	1	5
431.420	1	11
431.591	1	13
431.762	1	-1
431.932	1	6
432.103	1	-4
432.273	1	10
432.444	1	-3
432.615	1	1
432.785	1	-3
432.956	1	5
433.126	1	16
433.297	1	-7
433.468	1	-4
433.638	1	8
433.809	1	-6
433.979	1	0
434.150	1	2
434.320	1	7
434.491	1	3
434.662	1	2
434.832	1	-10
435.003	1	8
435.173	1	0
435.344	1	2
435.515	1	-10
435.685	1	-4
435.856	1	3
436.026	1	3
436.197	1	0
436.368	1	-2
436.538	1	9
436.709	1	-2
436.879	1	7
437.050	1	0
437.220	1	11
437.391	1	6
437.562	1	-1
437.732	1	1
437.903	1	2
438.073	1	11
438.244	1	8
438.414	1	-9
438.585	1	-4
438.756	1	7
438.926	1	3
439.097	1	5
439.267	1	0
439.438	1	6
439.608	1	0
439.779	1	-1
439.949	1	2
440.120	1	2
440.291	1	-6
440.461	1	1
440.632	1	-8
440.802	1	-6
440.973	1	12
441.143	1	9
441.314	1	-8
441.485	1	10
441.655	1	-9
441.826	1	-4
441.996	1	-8
442.167	1	-4
442.337	1	-6
442.508	1	-3
442.678	1	-1
442.849	1	15
443.019	1	4
443.190	1	7
443.361	1	-4
443.531	1	1
443.702	1	9
443.872	1	-11
444.043	1	2
444.213	1	5
444.384	1	2
444.554	1	7
444.725	1	14
444.895	1	4
445.066	1	5
445.237	1	2
445.407	1	-5
445.578	1	2
445.748	1	2
445.919	1	-11
446.089	1	15
446.260	1	-2
446.430	1	15
446.601	1	8
446.771	1	2
446.942	1	-5
447.112	1	-6
447.283	1	8
447.453	1	2
447.624	1	-5
447.794	1	8
447.965	1	-1
448.135	1	3
448.306	1	6
448.477	1	5
448.647	1	-5
448.818	1	10
448.988	1	-8
449.159	1	-1
449.329	1	1
449.500	1	-10
449.670	1	-3
449.841	1	3
450.011	1	0
450.182	1	3
450.352	1	8
450.523	1	-7
450.693	1	-6
450.864	1	1
451.034	1	14
451.205	1	-1
451.375	1	-7
451.546	1	-6
451.716	1	-3
451.887	1	-4
452.057	1	1
452.228	1	5
452.398	1	10
452.569	1	9
452.739	1	3
452.910	1	-3
453.080	1	4
453.251	1	0
453.421	1	9
453.592	1	-2
453.762	1	-2
453.933	1	-2
454.103	1	-8
454.274	1	2
454.444	1	-9
454.615	1	1
454.785	1	-1
454.956	1	0
455.126	1	1
455.297	1	4
455.467	1	-1
455.638	1	1
455.808	1	-2
455.979	1	-15
456.149	1	-3
456.320	1	2
456.490	1	-5
456.661	1	-1
456.831	1	2
457.001	1	14
457.172	1	-11
457.342	1	-3
457.513	1	-2
457.683	1	5
457.854	1	1
458.024	1	-2
458.195	1	-2
458.365	1	0
458.536	1	7
458.706	1	6
458.877	1	2
459.047	1	7
459.218	1	5
459.388	1	5
459.559	1	3
459.729	1	-12
459.899	1	-2
460.070	1	0
460.240	1	-3
460.411	1	-2
460.581	1	6
460.752	1	0
460.922	1	-2
461.093	1	5
461.263	1	1
461.434	1	-3
461.604	1	10
461.775	1	-6
461.945	1	-11
462.115	1	8
462.286	1	8
462.456	1	3
462.627	1	-14
462.797	1	4
462.968	1	6
463.138	1	4
463.309	1	2
463.479	1	-2
463.649	1	8
463.820	1	1
463.990	1	8
464.161	1	-6
464.331	1	-2
464.502	1	-4
464.672	1	13
464.843	1	15
465.013	1	-5
465.183	1	-2
465.354	1	-2
465.524	1	5
465.695	1	4
465.865	1	6
466.036	1	-3
466.206	1	0
466.376	1	-4
466.547	1	11
466.717	1	4
466.888	1	5
467.058	1	2
467.229	1	10
467.399	1	6
467.569	1	15
467.740	1	-6
467.910	1	-2
468.081	1	3
468.251	1	0
468.422	1	0
468.592	1	7
468.762	1	-1
468.933	1	6
469.103	1	5
469.274	1	7
469.444	1	13
469.614	1	2
469.785	1	-2
469.955	1	-4
470.126	1	-10
470.296	1	5
470.467	1	0
470.637	1	-4
470.807	1	3
470.978	1	1
471.148	1	5
471.319	1	13
471.489	1	4
471.659	1	-7
471.830	1	2
472.000	1	-7
472.171	1	-2
472.341	1	-3
472.511	1	3
472.682	1	-7
472.852	1	10
473.023	1	-4
473.193	1	2
473.363	1	3
473.534	1	14
473.704	1	2
473.875	1	8
474.045	1	4
474.215	1	5
474.386	1	-4
474.556	1	17
474.727	1	12
474.897	1	-9
475.067	1	4
475.238	1	8
475.408	1	-2
475.578	1	1
475.749	1	4
475.919	1	-6
476.090	1	5
476.260	1	-1
476.430	1	3
476.601	1	-1
476.771	1	6
476.942	1	0
477.112	1	0
477.282	1	-4
477.453	1	5
477.623	1	6
477.793	1	-12
477.964	1	9
478.134	1	1
478.305	1	3
478.475	1	-1
478.645	1	3
478.816	1	0
478.986	1	12
479.156	1	-7
479.327	1	2
479.497	1	8
479.667	1	2
479.838	1	2
480.008	1	-4
480.179	1	7
480.349	1	-3
480.519	1	7
480.690	1	-1
480.860	1	1
481.030	1	11
481.201	1	8
481.371	1	8
481.541	1	-7
481.712	1	1
481.882	1	3
482.053	1	-1
482.223	1	1
482.393	1	1
482.564	1	1
482.734	1	10
482.904	1	9
483.075	1	4
483.245	1	-7
483.415	1	-1
483.586	1	-1
483.756	1	6
483.926	1	-5
484.097	1	5
484.267	1	-7
484.437	1	1
484.608	1	4
484.778	1	-16
484.948	1	2
485.119	1	3
485.289	1	4
485.459	1	6
485.630	1	7
485.800	1	3
485.970	1	-5
486.141	1	-3
486.311	1	-4
486.481	1	2
486.652	1	3
486.822	1	-1
486.992	1	10
487.163	1	-8
487.333	1	1
487.503	1	4
487.674	1	0
487.844	1	5
488.014	1	3
488.185	1	-1
488.355	1	-5
488.525	1	-1
488.696	1	7
488.866	1	6
489.036	1	6
489.207	1	2
489.377	1	-5
489.547	1	1
489.718	1	0
489.888	1	0
490.058	1	-3
490.228	1	1
490.399	1	7
490.569	1	9
490.739	1	9
490.910	1	0
491.080	1	-5
491.250	1	8
491.421	1	5
491.591	1	1
491.761	1	16
491.932	1	3
492.102	1	-3
492.272	1	-1
492.442	1	4
492.613	1	4
492.783	1	-6
492.953	1	5
493.124	1	-11
493.294	1	7
493.464	1	13
493.635	1	15
493.805	1	8
493.975	1	8
494.145	1	-4
494.316	1	-5
494.486	1	4
494.656	1	2
494.827	1	0
494.997	1	13
495.167	1	17
495.337	1	10
495.508	1	8
495.678	1	13
495.848	1	16
496.019	1	1
496.189	1	10
496.359	1	5
496.529	1	4
496.700	1	9
496.870	1	6
497.040	1	4
497.211	1	6
497.381	1	0
497.551	1	12
497.721	1	-6
497.892	1	3
498.062	1	0
498.232	1	0
498.403	1	-12
498.573	1	10
498.743	1	0
498.913	1	9
499.084	1	6
499.254	1	4
499.424	1	3
499.594	1	-1
499.765	1	4
499.935	1	10
500.105	1	-4
500.275	1	0
500.446	1	6
500.616	1	7
500.786	1	11
500.956	1	8
501.127	1	1
501.297	1	-8
501.467	1	6
501.638	1	-4
501.808	1	13
501.978	1	13
502.148	1	4
502.319	1	10
502.489	1	7
502.659	1	3
502.829	1	-2
503.000	1	1
503.170	1	4
503.340	1	1
503.510	1	-3
503.681	1	-1
503.851	1	-3
504.021	1	3
504.191	1	13
504.362	1	7
504.532	1	-2
504.702	1	5
504.872	1	-13
505.042	1	5
505.213	1	0
505.383	1	11
505.553	1	7
505.723	1	10
505.894	1	-2
506.064	1	3
506.234	1	-1
506.404	1	18
506.575	1	-1
506.745	1	-2
506.915	1	12
507.085	1	-1
507.256	1	13
507.426	1	10
507.596	1	12
507.766	1	21
507.936	1	10
508.107	1	11
508.277	1	5
508.447	1	0
508.617	1	-10
508.788	1	5
508.958	1	11
509.128	1	1
509.298	1	-1
509.468	1	22
509.639	1	-6
509.809	1	-5
509.979	1	12
510.149	1	10
510.319	1	15
510.490	1	7
510.660	1	13
510.830	1	8
511.000	1	-2
511.171	1	-1
511.341	1	3
511.511	1	-4
511.681	1	5
511.851	1	-1
512.022	1	4
512.192	1	7
512.362	1	3
512.532	1	12
512.702	1	0
512.873	1	-2
513.043	1	2
513.213	1	0
513.383	1	-9
513.553	1	1
513.724	1	5
513.894	1	17
514.064	1	4
514.234	1	12
514.404	1	-6
514.575	1	11
514.745	1	-1
514.915	1	-3
515.085	1	4
515.255	1	5
515.425	1	5
515.596	1	6
515.766	1	3
515.936	1	5
516.106	1	7
516.276	1	7
516.447	1	11
516.617	1	6
516.787	1	9
516.957	1	-5
517.127	1	-5
517.297	1	3
517.468	1	15
517.638	1	-4
517.808	1	11
517.978	1	5
518.148	1	8
518.319	1	4
518.489	1	8
518.659	1	6
518.829	1	8
518.999	1	2
519.169	1	-4
519.340	1	9
519.510	1	-5
519.680	1	-5
519.850	1	1
520.020	1	1
520.190	1	17
520.361	1	3
520.531	1	12
520.701	1	3
520.871	1	-2
521.041	1	2
521.211	1	1
521.382	1	5
521.552	1	12
521.722	1	15
521.892	1	2
522.062	1	16
522.232	1	7
522.402	1	9
522.573	1	8
522.743	1	1
522.913	1	1
523.083	1	6
523.253	1	6
523.423	1	7
523.593	1	1
523.764	1	8
523.934	1	11
524.104	1	13
524.274	1	6
524.444	1	8
524.614	1	14
524.784	1	6
524.955	1	-2
525.125	1	7
525.295	1	10
525.465	1	4
525.635	1	8
525.805	1	3
525.975	1	6
526.146	1	-1
526.316	1	13
526.486	1	5
526.656	1	6
526.826	1	9
526.996	1	-3
527.166	1	11
527.337	1	11
527.507	1	2
527.677	1	12
527.847	1	2
528.017	1	11
528.187	1	6
528.357	1	8
528.527	1	-4
528.698	1	6
528.868	1	11
529.038	1	10
529.208	1	2
529.378	1	7
529.548	1	2
529.718	1	12
529.888	1	1
530.058	1	11
530.229	1	-3
530.399	1	15
530.569	1	2
530.739	1	3
530.909	1	7
531.079	1	0
531.249	1	0
531.419	1	7
531.589	1	8
531.760	1	10
531.930	1	2
532.100	1	19
532.270	1	6
532.440	1	-2
532.610	1	8
532.780	1	-2
532.950	1	-7
533.120	1	-7
533.290	1	5
533.461	1	3
533.631	1	0
533.801	1	15
533.971	1	11
534.141	1	24
534.311	1	5
534.481	1	1
534.651	1	14
534.821	1	-3
534.991	1	0
535.162	1	-1
535.332	1	7
535.502	1	11
535.672	1	9
535.842	1	0
536.012	1	3
536.182	1	9
536.352	1	4
536.522	1	1
536.692	1	-13
536.862	1	15
537.032	1	-4
537.203	1	4
537.373	1	9
537.543	1	13
537.713	1	18
537.883	1	-1
538.053	1	10
538.223	1	-1
538.393	1	4
538.563	1	10
538.733	1	2
538.903	1	6
539.073	1	16
539.243	1	3
539.413	1	3
539.584	1	2
539.754	1	3
539.924	1	2
540.094	1	4
540.264	1	10
540.434	1	11
540.604	1	11
540.774	1	4
540.944	1	9
541.114	1	-10
541.284	1	12
541.454	1	10
541.624	1	4
541.794	1	5
541.964	1	5
542.134	1	5
542.305	1	7
542.475	1	6
542.645	1	18
542.815	1	7
542.985	1	-4
543.155	1	13
543.325	1	-3
543.495	1	1
543.665	1	4
543.835	1	13
544.005	1	7
544.175	1	14
544.345	1	6
544.515	1	3
544.685	1	12
544.855	1	-5
545.025	1	14
545.195	1	3
545.365	1	6
545.535	1	9
545.705	1	12
545.875	1	5
546.045	1	14
546.216	1	12
546.386	1	6
546.556	1	10
546.726	1	11
546.896	1	8
547.066	1	7
547.236	1	9
547.406	1	8
547.576	1	1
547.746	1	-10
547.916	1	-3
548.086	1	2
548.256	1	0
548.426	1	8
548.596	1	6
548.766	1	5
548.936	1	0
549.106	1	5
549.276	1	5
549.446	1	2
549.616	1	-5
549.786	1	23
549.956	1	5
550.126	1	9
550.296	1	0
550.466	1	7
550.636	1	8
550.806	1	15
550.976	1	-3
551.146	1	11
551.316	1	6
551.486	1	18
551.656	1	-15
551.826	1	-4
551.996	1	1
552.166	1	3
552.336	1	10
552.506	1	8
552.676	1	-1
552.846	1	17
553.016	1	5
553.186	1	5
553.356	1	-5
553.526	1	6
553.696	1	2
553.866	1	7
554.036	1	10
554.206	1	12
554.376	1	-6
554.546	1	9
554.716	1	9
554.886	1	5
555.056	1	15
555.226	1	6
555.396	1	-1
555.566	1	-5
555.736	1	1
555.906	1	4
556.076	1	10
556.246	1	-2
556.416	1	11
556.586	1	-5
556.756	1	9
556.926	1	0
557.096	1	9
557.266	1	2
557.436	1	7
557.606	1	0
557.776	1	-1
557.946	1	4
558.116	1	11
558.286	1	-3
558.456	1	2
558.626	1	10
558.796	1	17
558.966	1	4
559.136	1	1
559.306	1	9
559.476	1	6
559.646	1	13
559.816	1	2
559.986	1	2
560.155	1	0
560.325	1	11
560.495	1	16
560.665	1	5
560.835	1	-5
561.005	1	3
561.175	1	0
561.345	1	10
561.515	1	-1
561.685	1	6
561.855	1	0
562.025	1	14
562.195	1	4
562.365	1	3
562.535	1	7
562.705	1	4
562.875	1	4
563.045	1	9
563.215	1	7
563.385	1	12
563.555	1	-1
563.725	1	1
563.895	1	1
564.064	1	3
564.234	1	6
564.404	1	-1
564.574	1	5
564.744	1	-1
564.914	1	0
565.084	1	-6
565.254	1	8
565.424	1	9
565.594	1	-2
565.764	1	-3
565.934	1	11
566.104	1	17
566.274	1	3
566.444	1	1
566.614	1	-3
566.783	1	1
566.953	1	2
567.123	1	15
567.293	1	-6
567.463	1	8
567.633	1	-1
567.803	1	9
567.973	1	9
568.143	1	4
568.313	1	9
568.483	1	13
568.653	1	15
568.823	1	5
568.993	1	6
569.162	1	2
569.332	1	5
569.502	1	13
569.672	1	8
569.842	1	7
570.012	1	8
570.182	1	10
570.352	1	4
570.522	1	-1
570.692	1	-1
570.862	1	3
571.031	1	5
571.201	1	0
571.371	1	6
571.541	1	1
571.711	1	4
571.881	1	5
572.051	1	2
572.221	1	4
572.391	1	4
572.561	1	6
572.731	1	2
572.900	1	-6
573.070	1	0
573.240	1	0
573.410	1	14
573.580	1	19
573.750	1	12
573.920	1	0
574.090	1	5
574.260	1	-4
574.430	1	4
574.599	1	3
574.769	1	5
574.939	1	0
575.109	1	3
575.279	1	5
575.449	1	13
575.619	1	-7
575.789	1	18
575.959	1	-4
576.128	1	9
576.298	1	-8
576.468	1	6
576.638	1	13
576.808	1	3
576.978	1	-5
577.148	1	17
577.318	1	7
577.487	1	6
577.657	1	2
577.827	1	-5
577.997	1	5
578.167	1	6
578.337	1	5
578.507	1	14
578.677	1	15
578.846	1	8
579.016	1	15
579.186	1	10
579.356	1	14
579.526	1	-1
579.696	1	8
579.866	1	8
580.036	1	12
580.205	1	15
580.375	1	1
580.545	1	10
580.715	1	0
580.885	1	-1
581.055	1	14
581.225	1	1
581.394	1	2
581.564	1	3
581.734	1	1
581.904	1	1
582.074	1	4
582.244	1	17
582.414	1	1
582.583	1	-1
582.753	1	5
582.923	1	6
583.093	1	5
583.263	1	4
583.433	1	10
583.603	1	9
583.772	1	5
583.942	1	-2
584.112	1	-3
584.282	1	11
584.452	1	0
584.622	1	-1
584.791	1	9
584.961	1	8
585.131	1	0
585.301	1	-3
585.471	1	22
585.641	1	5
585.811	1	7
585.980	1	3
586.150	1	5
586.320	1	7
586.490	1	4
586.660	1	6
586.830	1	-1
586.999	1	5
587.169	1	3
587.339	1	-1
587.509	1	-3
587.679	1	19
587.849	1	-5
588.018	1	19
588.188	1	0
588.358	1	15
588.528	1	6
588.698	1	-2
588.867	1	4
589.037	1	-3
589.207	1	3
589.377	1	0
589.547	1	3
589.717	1	5
589.886	1	3
590.056	1	-5
590.226	1	1
590.396	1	3
590.566	1	8
590.735	1	12
590.905	1	-4
591.075	1	-2
591.245	1	17
591.415	1	-5
591.585	1	2
591.754	1	5
591.924	1	6
592.094	1	4
592.264	1	-7
592.434	1	-5
592.603	1	2
592.773	1	-1
592.943	1	7
593.113	1	0
593.283	1	3
593.452	1	12
593.622	1	8
593.792	1	12
593.962	1	4
594.132	1	4
594.301	1	9
594.471	1	5
594.641	1	0
594.811	1	-3
594.981	1	-7
595.150	1	7
595.320	1	11
595.490	1	5
595.660	1	2
595.829	1	6
595.999	1	-3
596.169	1	19
596.339	1	1
596.509	1	2
596.678	1	5
596.848	1	10
597.018	1	4
597.188	1	3
597.358	1	-16
597.527	1	4
597.697	1	-12
597.867	1	11
598.037	1	3
598.206	1	5
598.376	1	-9
598.546	1	-6
598.716	1	10
598.885	1	9
599.055	1	7
599.225	1	0
599.395	1	-1
599.565	1	-3
599.734	1	0
599.904	1	5
600.074	1	5
600.244	1	12
600.413	1	3
600.583	1	2
600.753	1	6
600.923	1	8
601.092	1	13
601.262	1	6
601.432	1	7
601.602	1	1
601.771	1	8
601.941	1	10
602.111	1	-4
602.281	1	1
602.451	1	1
602.620	1	-1
602.790	1	3
602.960	1	-2
603.130	1	5
603.299	1	9
603.469	1	11
603.639	1	8
603.809	1	-5
603.978	1	-9
604.148	1	14
604.318	1	21
604.487	1	-2
604.657	1	2
604.827	1	-4
604.997	1	10
605.166	1	4
605.336	1	0
605.506	1	-4
605.676	1	12
605.845	1	7
606.015	1	2
606.185	1	1
606.355	1	5
606.524	1	8
606.694	1	-5
606.864	1	-6
607.034	1	2
607.203	1	7
607.373	1	6
607.543	1	-8
607.712	1	3
607.882	1	2
608.052	1	5
608.222	1	-2
608.391	1	11
608.561	1	1
608.731	1	2
608.901	1	0
609.070	1	7
609.240	1	8
609.410	1	2
609.579	1	-3
609.749	1	2
609.919	1	-5
610.089	1	-3
610.258	1	0
610.428	1	6
610.598	1	5
610.767	1	3
610.937	1	-3
611.107	1	6
611.277	1	8
611.446	1	4
611.616	1	3
611.786	1	-6
611.955	1	0
612.125	1	0
612.295	1	8
612.465	1	7
612.634	1	2
612.804	1	7
612.974	1	-2
613.143	1	-2
613.313	1	3
613.483	1	1
613.652	1	-2
613.822	1	3
613.992	1	3
614.162	1	-1
614.331	1	14
614.501	1	1
614.671	1	9
614.840	1	4
615.010	1	-5
615.180	1	7
615.349	1	-3
615.519	1	5
615.689	1	-2
615.858	1	4
616.028	1	7
616.198	1	7
616.368	1	9
616.537	1	2
616.707	1	12
616.877	1	2
617.046	1	-2
617.216	1	14
617.386	1	14
617.555	1	4
617.725	1	3
617.895	1	8
618.064	1	2
618.234	1	3
618.404	1	10
618.573	1	6
618.743	1	14
618.913	1	7
619.082	1	5
619.252	1	9
619.422	1	8
619.591	1	-8
619.761	1	9
619.931	1	1
620.100	1	-4
620.270	1	7
620.440	1	-2
620.609	1	0
620.779	1	-1
620.949	1	7
621.118	1	2
621.288	1	10
621.458	1	13
621.627	1	21
621.797	1	3
621.967	1	-1
622.136	1	14
622.306	1	-7
622.476	1	2
622.645	1	-1
622.815	1	-4
622.985	1	9
623.154	1	5
623.324	1	-4
623.494	1	20
623.663	1	14
623.833	1	2
624.002	1	-3
624.172	1	1
624.342	1	8
624.511	1	12
624.681	1	10
624.851	1	1
625.020	1	17
625.190	1	-2
625.360	1	8
625.529	1	2
625.699	1	7
625.869	1	-1
626.038	1	3
626.208	1	10
626.377	1	2
626.547	1	5
626.717	1	11
626.886	1	1
627.056	1	6
627.226	1	-2
627.395	1	4
627.565	1	-7
627.735	1	-1
627.904	1	12
628.074	1	-1
628.243	1	2
628.413	1	6
628.583	1	-1
628.752	1	3
628.922	1	7
629.091	1	2
629.261	1	-3
629.431	1	4
629.600	1	-1
629.770	1	8
629.940	1	-7
630.109	1	-5
630.279	1	4
630.448	1	12
630.618	1	0
630.788	1	-2
630.957	1	0
631.127	1	-3
631.297	1	8
631.466	1	-3
631.636	1	10
631.805	1	5
631.975	1	11
632.145	1	-5
632.314	1	-5
632.484	1	-3
632.653	1	-2
632.823	1	3
632.993	1	12
633.162	1	2
633.332	1	0
633.501	1	-5
633.671	1	-7
633.841	1	-3
634.010	1	1
634.180	1	-11
634.349	1	5
634.519	1	2
634.689	1	15
634.858	1	0
635.028	1	8
635.197	1	9
635.367	1	-5
635.537	1	-4
635.706	1	9
635.876	1	-3
636.045	1	4
636.215	1	4
636.384	1	-4
636.554	1	11
636.724	1	4
636.893	1	3
637.063	1	7
637.232	1	17
637.402	1	1
637.572	1	16
637.741	1	8
637.911	1	5
638.080	1	-2
638.250	1	6
638.419	1	7
638.589	1	4
638.759	1	0
638.928	1	-2
639.098	1	14
639.267	1	-8
639.437	1	-4
639.606	1	-3
639.776	1	2
639.946	1	5
640.115	1	1
640.285	1	0
640.454	1	0
640.624	1	16
640.793	1	-6
640.963	1	-1
641.132	1	3
641.302	1	0
641.472	1	-2
641.641	1	-4
641.811	1	1
641.980	1	-6
642.150	1	5
642.319	1	-6
642.489	1	8
642.659	1	-5
642.828	1	8
642.998	1	0
643.167	1	-2
643.337	1	-3
643.506	1	18
643.676	1	-2
643.845	1	12
644.015	1	15
644.184	1	0
644.354	1	-8
644.524	1	7
644.693	1	4
644.863	1	6
645.032	1	-2
645.202	1	6
645.371	1	-3
645.541	1	7
645.710	1	12
645.880	1	11
646.049	1	5
646.219	1	9
646.388	1	0
646.558	1	4
646.728	1	5
646.897	1	13
647.067	1	2
647.236	1	-1
647.406	1	-2
647.575	1	3
647.745	1	11
647.914	1	-3
648.084	1	2
648.253	1	-5
648.423	1	0
648.592	1	-3
648.762	1	11
648.931	1	3
649.101	1	9
649.270	1	8
649.440	1	-2
649.610	1	-1
649.779	1	4
649.949	1	-5
650.118	1	-1
650.288	1	-1
650.457	1	5
650.627	1	1
650.796	1	1
650.966	1	1
651.135	1	4
651.305	1	3
651.474	1	7
651.644	1	-2
651.813	1	6
651.983	1	14
652.152	1	2
652.322	1	-3
652.491	1	5
652.661	1	2
652.830	1	17
653.000	1	-4
653.169	1	4
653.339	1	4
653.508	1	3
653.678	1	-1
653.847	1	-2
654.017	1	-3
654.186	1	6
654.356	1	1
654.525	1	5
654.695	1	2
654.864	1	2
655.034	1	2
655.203	1	-1
655.373	1	7
655.542	1	-3
655.712	1	-4
655.881	1	9
656.051	1	4
656.220	1	5
656.390	1	13
656.559	1	0
656.729	1	5
656.898	1	-3
657.068	1	8
657.237	1	3
657.406	1	-4
657.576	1	-8
657.745	1	-1
657.915	1	-10
658.084	1	1
658.254	1	12
658.423	1	6
658.593	1	6
658.762	1	6
658.932	1	2
659.101	1	-1
659.271	1	4
659.440	1	1
659.610	1	9
659.779	1	1
659.949	1	-2
660.118	1	-4
660.288	1	5
660.457	1	1
660.626	1	6
660.796	1	-6
660.965	1	2
661.135	1	0
661.304	1	13
661.474	1	1
661.643	1	6
661.813	1	11
661.982	1	-4
662.152	1	5
662.321	1	-2
662.491	1	4
662.660	1	-6
662.829	1	0
662.999	1	7
663.168	1	7
663.338	1	5
663.507	1	-1
663.677	1	-8
663.846	1	-3
664.016	1	-4
664.185	1	4
664.354	1	9
664.524	1	-6
664.693	1	1
664.863	1	-2
665.032	1	9
665.202	1	1
665.371	1	-5
665.541	1	-7
665.710	1	1
665.879	1	3
666.049	1	-2
666.218	1	1
666.388	1	8
666.557	1	-1
666.727	1	4
666.896	1	5
667.065	1	12
667.235	1	3
667.404	1	0
667.574	1	5
667.743	1	9
667.913	1	6
668.082	1	17
668.251	1	13
668.421	1	-3
668.590	1	-1
668.760	1	7
668.929	1	-1
669.099	1	10
669.268	1	6
669.437	1	4
669.607	1	2
669.776	1	4
669.946	1	2
670.115	1	-1
670.285	1	-2
670.454	1	9
670.623	1	2
670.793	1	2
670.962	1	-1
671.132	1	6
671.301	1	-2
671.470	1	8
671.640	1	0
671.809	1	-3
671.979	1	4
672.148	1	-4
672.317	1	8
672.487	1	-2
672.656	1	2
672.826	1	4
672.995	1	1
673.164	1	15
673.334	1	8
673.503	1	-4
673.673	1	-6
673.842	1	-4
674.011	1	-4
674.181	1	9
674.350	1	5
674.520	1	6
674.689	1	-1
674.858	1	-4
675.028	1	3
675.197	1	12
675.367	1	-8
675.536	1	13
675.705	1	-5
675.875	1	-2
676.044	1	1
676.214	1	9
676.383	1	8
676.552	1	5
676.722	1	0
676.891	1	-3
677.060	1	-2
677.230	1	7
677.399	1	5
677.569	1	7
677.738	1	3
677.907	1	3
678.077	1	14
678.246	1	-7
678.416	1	-4
678.585	1	2
678.754	1	1
678.924	1	4
679.093	1	13
679.262	1	20
679.432	1	6
679.601	1	15
679.771	1	0
679.940	1	12
680.109	1	-3
680.279	1	4
680.448	1	-3
680.617	1	-3
680.787	1	-1
680.956	1	-2
681.125	1	11
681.295	1	4
681.464	1	18
681.634	1	1
681.803	1	12
681.972	1	-3
682.142	1	-1
682.311	1	5
682.480	1	1
682.650	1	-3
682.819	1	0
682.988	1	9
683.158	1	3
683.327	1	7
683.496	1	-5
683.666	1	14
683.835	1	-7
684.004	1	13
684.174	1	0
684.343	1	2
684.512	1	0
684.682	1	3
684.851	1	8
685.021	1	1
685.190	1	13
685.359	1	1
685.529	1	7
685.698	1	2
685.867	1	2
686.037	1	11
686.206	1	9
686.375	1	4
686.545	1	0
686.714	1	5
686.883	1	10
687.053	1	-3
687.222	1	-3
687.391	1	7
687.561	1	3
687.730	1	4
687.899	1	6
688.069	1	4
688.238	1	1
688.407	1	-2
688.577	1	-1
688.746	1	-2
