340.368	1	16
340.539	1	5
340.710	1	12
340.881	1	3
341.052	1	8
341.223	1	-5
341.394	1	0
341.565	1	2
341.737	1	6
341.908	1	7
342.079	1	2
342.250	1	0
342.421	1	0
342.592	1	6
342.763	1	7
342.934	1	-2
343.105	1	4
343.276	1	-6
343.447	1	7
343.618	1	8
343.789	1	8
343.960	1	7
344.131	1	16
344.302	1	15
344.473	1	5
344.644	1	5
344.815	1	-13
344.986	1	1
345.157	1	7
345.328	1	-3
345.499	1	1
345.670	1	3
345.841	1	-6
346.012	1	11
346.183	1	-1
346.354	1	12
346.526	1	0
346.697	1	-2
346.868	1	3
347.039	1	-3
347.210	1	-2
347.381	1	9
347.552	1	11
347.723	1	5
347.894	1	-4
348.065	1	0
348.236	1	5
348.407	1	6
348.578	1	-1
348.749	1	-13
348.920	1	-7
349.091	1	10
349.262	1	7
349.433	1	-2
349.604	1	0
349.775	1	15
349.946	1	3
350.117	1	1
350.288	1	8
350.459	1	-3
350.630	1	-6
350.801	1	5
350.972	1	4
351.143	1	6
351.314	1	-6
351.485	1	-1
351.656	1	13
351.827	1	1
351.998	1	3
352.169	1	-4
352.340	1	1
352.511	1	-2
352.682	1	-9
352.853	1	4
353.024	1	3
353.195	1	10
353.366	1	6
353.537	1	13
353.708	1	0
353.879	1	7
354.050	1	-7
354.221	1	-4
354.392	1	5
354.563	1	11
354.734	1	-15
354.905	1	15
355.076	1	0
355.247	1	5
355.418	1	7
355.589	1	7
355.760	1	8
355.931	1	-3
356.102	1	0
356.273	1	6
356.444	1	-4
356.615	1	10
356.785	1	5
356.956	1	10
357.127	1	8
357.298	1	5
357.469	1	10
357.640	1	4
357.811	1	3
357.982	1	11
358.153	1	-6
358.324	1	11
358.495	1	10
358.666	1	10
358.837	1	6
359.008	1	10
359.179	1	-2
359.350	1	10
359.521	1	5
359.692	1	7
359.863	1	6
360.034	1	10
360.205	1	8
360.376	1	15
360.547	1	10
360.718	1	6
360.889	1	19
361.060	1	3
361.231	1	12
361.401	1	15
361.572	1	8
361.743	1	18
361.914	1	18
362.085	1	16
362.256	1	12
362.427	1	24
362.598	1	13
362.769	1	22
362.940	1	7
363.111	1	7
363.282	1	23
363.453	1	20
363.624	1	26
363.795	1	22
363.966	1	33
364.137	1	28
364.308	1	33
364.478	1	17
364.649	1	38
364.820	1	36
364.991	1	31
365.162	1	57
365.333	1	25
365.504	1	32
365.675	1	29
365.846	1	36
366.017	1	42
366.188	1	47
366.359	1	23
366.530	1	49
366.701	1	40
366.871	1	51
367.042	1	47
367.213	1	45
367.384	1	51
367.555	1	48
367.726	1	51
367.897	1	50
368.068	1	56
368.239	1	59
368.410	1	47
368.581	1	42
368.752	1	51
368.923	1	52
369.093	1	48
369.264	1	50
369.435	1	45
369.606	1	59
369.777	1	44
369.948	1	45
370.119	1	45
370.290	1	49
370.461	1	45
370.632	1	45
370.803	1	57
370.973	1	56
371.144	1	42
371.315	1	32
371.486	1	39
371.657	1	45
371.828	1	42
371.999	1	36
372.170	1	44
372.341	1	45
372.512	1	35
372.682	1	29
372.853	1	33
373.024	1	42
373.195	1	36
373.366	1	20
373.537	1	40
373.708	1	26
373.879	1	28
374.050	1	35
374.220	1	24
374.391	1	15
374.562	1	31
374.733	1	23
374.904	1	24
375.075	1	18
375.246	1	28
375.417	1	28
375.588	1	19
375.758	1	27
375.929	1	21
376.100	1	21
376.271	1	20
376.442	1	13
376.613	1	18
376.784	1	13
376.955	1	18
377.125	1	22
377.296	1	16
377.467	1	28
377.638	1	18
377.809	1	22
377.980	1	12
378.151	1	14
378.321	1	19
378.492	1	3
378.663	1	17
378.834	1	8
379.005	1	13
379.176	1	12
379.347	1	22
379.518	1	15
379.688	1	14
379.859	1	20
380.030	1	17
380.201	1	7
380.372	1	8
380.543	1	14
380.714	1	19
380.884	1	3
381.055	1	10
381.226	1	23
381.397	1	30
381.568	1	11
381.739	1	8
381.910	1	4
382.080	1	4
382.251	1	27
382.422	1	6
382.593	1	11
382.764	1	9
382.935	1	1
383.105	1	2
383.276	1	8
383.447	1	7
383.618	1	14
383.789	1	26
383.960	1	3
384.130	1	12
384.301	1	16
384.472	1	0
384.643	1	-11
384.814	1	10
384.985	1	17
385.156	1	11
385.326	1	15
385.497	1	0
385.668	1	4
385.839	1	4
386.010	1	19
386.180	1	5
386.351	1	-2
386.522	1	22
386.693	1	16
386.864	1	4
387.035	1	5
387.205	1	0
387.376	1	5
387.547	1	18
387.718	1	-3
387.889	1	14
388.060	1	13
388.230	1	20
388.401	1	13
388.572	1	-4
388.743	1	20
388.914	1	5
389.084	1	4
389.255	1	13
389.426	1	5
389.597	1	3
389.768	1	6
389.939	1	9
390.109	1	9
390.280	1	12
390.451	1	-2
390.622	1	1
390.793	1	6
390.963	1	18
391.134	1	-2
391.305	1	5
391.476	1	4
391.647	1	-2
391.817	1	14
391.988	1	20
392.159	1	4
392.330	1	3
392.501	1	14
392.671	1	6
392.842	1	1
393.013	1	-7
393.184	1	9
393.355	1	3
393.525	1	7
393.696	1	12
393.867	1	-2
394.038	1	4
394.208	1	2
394.379	1	7
394.550	1	-7
394.721	1	-4
394.892	1	4
395.062	1	8
395.233	1	-6
395.404	1	9
395.575	1	5
395.746	1	7
395.916	1	7
396.087	1	15
396.258	1	4
396.429	1	0
396.599	1	5
396.770	1	8
396.941	1	2
397.112	1	-2
397.283	1	13
397.453	1	12
397.624	1	3
397.795	1	13
397.966	1	15
398.136	1	3
398.307	1	0
398.478	1	5
398.649	1	23
398.819	1	4
398.990	1	-4
399.161	1	6
399.332	1	5
399.503	1	1
399.673	1	2
399.844	1	5
400.015	1	-16
400.186	1	-2
400.356	1	6
400.527	1	-4
400.698	1	3
400.869	1	0
401.039	1	0
401.210	1	6
401.381	1	1
401.552	1	-6
401.722	1	-4
401.893	1	4
402.064	1	8
402.235	1	17
402.405	1	-1
402.576	1	2
402.747	1	-8
402.918	1	0
403.088	1	-1
403.259	1	6
403.430	1	1
403.601	1	4
403.771	1	2
403.942	1	14
404.113	1	-1
404.284	1	10
404.454	1	-1
404.625	1	1
404.796	1	-6
404.967	1	0
405.137	1	-6
405.308	1	6
405.479	1	-2
405.649	1	0
405.820	1	9
405.991	1	1
406.162	1	6
406.332	1	0
406.503	1	-6
406.674	1	6
406.845	1	19
407.015	1	5
407.186	1	-6
407.357	1	-8
407.527	1	0
407.698	1	1
407.869	1	9
408.040	1	-2
408.210	1	14
408.381	1	7
408.552	1	17
408.722	1	5
408.893	1	3
409.064	1	-1
409.235	1	8
409.405	1	-3
409.576	1	3
409.747	1	3
409.917	1	1
410.088	1	5
410.259	1	0
410.430	1	-4
410.600	1	5
410.771	1	3
410.942	1	2
411.112	1	10
411.283	1	1
411.454	1	7
411.625	1	1
411.795	1	0
411.966	1	2
412.137	1	6
412.307	1	5
412.478	1	2
412.649	1	4
412.819	1	5
412.990	1	0
413.161	1	0
413.332	1	16
413.502	1	0
413.673	1	-4
413.844	1	4
414.014	1	-5
414.185	1	-2
414.356	1	-12
414.526	1	-11
414.697	1	-2
414.868	1	-4
415.038	1	11
415.209	1	4
415.380	1	-6
415.550	1	17
415.721	1	-3
415.892	1	-9
416.063	1	-9
416.233	1	1
416.404	1	-1
416.575	1	2
416.745	1	-2
416.916	1	2
417.087	1	0
417.257	1	-6
417.428	1	3
417.599	1	-1
417.769	1	0
417.940	1	0
418.111	1	14
418.281	1	12
418.452	1	9
418.623	1	-10
418.793	1	15
418.964	1	-7
419.135	1	9
419.305	1	1
419.476	1	10
419.647	1	-4
419.817	1	3
419.988	1	11
420.159	1	0
420.329	1	13
420.500	1	7
420.671	1	-9
420.841	1	-1
421.012	1	5
421.183	1	-3
421.353	1	7
421.524	1	5
421.695	1	11
421.865	1	0
422.036	1	-1
422.206	1	-2
422.377	1	3
422.548	1	7
422.718	1	4
422.889	1	3
423.060	1	-1
423.230	1	9
423.401	1	-2
423.572	1	16
423.742	1	-1
423.913	1	-1
424.084	1	2
424.254	1	-6
424.425	1	-1
424.595	1	10
424.766	1	-4
424.937	1	8
425.107	1	9
425.278	1	8
425.449	1	-4
425.619	1	4
425.790	1	-2
425.961	1	3
426.131	1	-7
426.302	1	3
426.472	1	1
426.643	1	6
426.814	1	5
426.984	1	-7
427.155	1	8
427.326	1	1
427.496	1	-8
427.667	1	-2
427.837	1	2
428.008	1	10
428.179	1	9
428.349	1	3
428.520	1	3
428.691	1	15
428.861	1	1
429.032	1	-3
429.202	1	3
429.373	1	13
429.544	1	-1
429.714	1	-1
429.885	1	6
430.055	1	-10
430.226	1	1
430.397	1	6
430.567	1	4
430.738	1	0
430.909	1	3
431.079	1	10
431.250	1	7
431.420	1	12
431.591	1	5
431.762	1	6
431.932	1	-1
432.103	1	-7
432.273	1	15
432.444	1	-6
432.615	1	7
432.785	1	3
432.956	1	0
433.126	1	8
433.297	1	6
433.468	1	-5
433.638	1	2
433.809	1	7
433.979	1	-5
434.150	1	6
434.320	1	3
434.491	1	6
434.662	1	2
434.832	1	2
435.003	1	-3
435.173	1	-3
435.344	1	-3
435.515	1	-2
435.685	1	-5
435.856	1	14
436.026	1	7
436.197	1	5
436.368	1	3
436.538	1	0
436.709	1	1
436.879	1	-1
437.050	1	0
437.220	1	7
437.391	1	3
437.562	1	6
437.732	1	-1
437.903	1	2
438.073	1	7
438.244	1	11
438.414	1	-7
438.585	1	-3
438.756	1	-3
438.926	1	-9
439.097	1	6
439.267	1	1
439.438	1	-3
439.608	1	3
439.779	1	4
439.949	1	8
440.120	1	-3
440.291	1	4
440.461	1	-2
440.632	1	-6
440.802	1	1
440.973	1	4
441.143	1	-6
441.314	1	4
441.485	1	4
441.655	1	-15
441.826	1	9
441.996	1	-2
442.167	1	2
442.337	1	5
442.508	1	-5
442.678	1	7
442.849	1	19
443.019	1	0
443.190	1	4
443.361	1	4
443.531	1	2
443.702	1	11
443.872	1	-2
444.043	1	8
444.213	1	10
444.384	1	8
444.554	1	6
444.725	1	11
444.895	1	2
445.066	1	3
445.237	1	-3
445.407	1	-5
445.578	1	7
445.748	1	1
445.919	1	-2
446.089	1	22
446.260	1	4
446.430	1	2
446.601	1	11
446.771	1	4
446.942	1	-10
447.112	1	3
447.283	1	12
447.453	1	-2
447.624	1	3
447.794	1	10
447.965	1	2
448.135	1	4
448.306	1	-2
448.477	1	0
448.647	1	-8
448.818	1	3
448.988	1	0
449.159	1	5
449.329	1	3
449.500	1	-6
449.670	1	-9
449.841	1	-15
450.011	1	-4
450.182	1	-1
450.352	1	0
450.523	1	-1
450.693	1	-11
450.864	1	5
451.034	1	13
451.205	1	-4
451.375	1	4
451.546	1	-2
451.716	1	-5
451.887	1	1
452.057	1	-1
452.228	1	9
452.398	1	10
452.569	1	8
452.739	1	6
452.910	1	0
453.080	1	6
453.251	1	-5
453.421	1	3
453.592	1	0
453.762	1	3
453.933	1	11
454.103	1	7
454.274	1	3
454.444	1	1
454.615	1	5
454.785	1	5
454.956	1	-5
455.126	1	4
455.297	1	12
455.467	1	5
455.638	1	3
455.808	1	2
455.979	1	1
456.149	1	-5
456.320	1	3
456.490	1	2
456.661	1	2
456.831	1	-5
457.001	1	1
457.172	1	1
457.342	1	0
457.513	1	12
457.683	1	3
457.854	1	10
458.024	1	-7
458.195	1	-5
458.365	1	4
458.536	1	6
458.706	1	12
458.877	1	-5
459.047	1	6
459.218	1	7
459.388	1	6
459.559	1	2
459.729	1	-7
459.899	1	-1
460.070	1	-3
460.240	1	2
460.411	1	0
460.581	1	-5
460.752	1	1
460.922	1	-1
461.093	1	2
461.263	1	13
461.434	1	10
461.604	1	1
461.775	1	-5
461.945	1	-8
462.115	1	9
462.286	1	4
462.456	1	-1
462.627	1	6
462.797	1	2
462.968	1	9
463.138	1	6
463.309	1	-1
463.479	1	0
463.649	1	4
463.820	1	2
463.990	1	5
464.161	1	-4
464.331	1	4
464.502	1	2
464.672	1	12
464.843	1	5
465.013	1	1
465.183	1	6
465.354	1	-4
465.524	1	10
465.695	1	9
465.865	1	-1
466.036	1	-9
466.206	1	6
466.376	1	1
466.547	1	14
466.717	1	6
466.888	1	1
467.058	1	5
467.229	1	11
467.399	1	3
467.569	1	21
467.740	1	1
467.910	1	-8
468.081	1	-6
468.251	1	3
468.422	1	-4
468.592	1	18
468.762	1	1
468.933	1	4
469.103	1	-1
469.274	1	6
469.444	1	3
469.614	1	-5
469.785	1	0
469.955	1	-3
470.126	1	-5
470.296	1	-3
470.467	1	1
470.637	1	-2
470.807	1	13
470.978	1	-5
471.148	1	2
471.319	1	12
471.489	1	14
471.659	1	-8
471.830	1	3
472.000	1	1
472.171	1	11
472.341	1	-3
472.511	1	7
472.682	1	1
472.852	1	5
473.023	1	8
473.193	1	8
473.363	1	12
473.534	1	0
473.704	1	1
473.875	1	5
474.045	1	4
474.215	1	8
474.386	1	-1
474.556	1	9
474.727	1	-3
474.897	1	-5
475.067	1	1
475.238	1	-1
475.408	1	-6
475.578	1	6
475.749	1	-4
475.919	1	14
476.090	1	6
476.260	1	0
476.430	1	0
476.601	1	-2
476.771	1	8
476.942	1	-9
477.112	1	9
477.282	1	-1
477.453	1	-3
477.623	1	3
477.793	1	-10
477.964	1	3
478.134	1	4
478.305	1	5
478.475	1	4
478.645	1	0
478.816	1	-2
478.986	1	9
479.156	1	-9
479.327	1	-3
479.497	1	-5
479.667	1	-1
479.838	1	-4
480.008	1	0
480.179	1	5
480.349	1	-6
480.519	1	7
480.690	1	-3
480.860	1	6
481.030	1	-7
481.201	1	-6
481.371	1	-4
481.541	1	7
481.712	1	7
481.882	1	-1
482.053	1	1
482.223	1	8
482.393	1	-5
482.564	1	1
482.734	1	16
482.904	1	3
483.075	1	-7
483.245	1	-6
483.415	1	8
483.586	1	8
483.756	1	8
483.926	1	-4
484.097	1	9
484.267	1	3
484.437	1	7
484.608	1	0
484.778	1	-6
484.948	1	5
485.119	1	7
485.289	1	-4
485.459	1	3
485.630	1	10
485.800	1	6
485.970	1	7
486.141	1	-8
486.311	1	1
486.481	1	7
486.652	1	3
486.822	1	9
486.992	1	13
487.163	1	3
487.333	1	-5
487.503	1	-6
487.674	1	6
487.844	1	-4
488.014	1	1
488.185	1	15
488.355	1	6
488.525	1	4
488.696	1	3
488.866	1	9
489.036	1	6
489.207	1	1
489.377	1	-9
489.547	1	7
489.718	1	-7
489.888	1	3
490.058	1	5
490.228	1	-2
490.399	1	6
490.569	1	9
490.739	1	7
490.910	1	1
491.080	1	3
491.250	1	-4
491.421	1	6
491.591	1	-2
491.761	1	7
491.932	1	10
492.102	1	1
492.272	1	1
492.442	1	-5
492.613	1	4
492.783	1	-14
492.953	1	6
493.124	1	0
493.294	1	10
493.464	1	8
493.635	1	15
493.805	1	7
493.975	1	10
494.145	1	7
494.316	1	-4
494.486	1	-4
494.656	1	2
494.827	1	10
494.997	1	5
495.167	1	14
495.337	1	5
495.508	1	5
495.678	1	16
495.848	1	5
496.019	1	6
496.189	1	4
496.359	1	-9
496.529	1	1
496.700	1	18
496.870	1	-3
497.040	1	1
497.211	1	2
497.381	1	8
497.551	1	6
497.721	1	-4
497.892	1	7
498.062	1	4
498.232	1	-2
498.403	1	-3
498.573	1	15
498.743	1	6
498.913	1	4
499.084	1	7
499.254	1	-1
499.424	1	9
499.594	1	-2
499.765	1	8
499.935	1	10
500.105	1	-4
500.275	1	11
500.446	1	4
500.616	1	4
500.786	1	2
500.956	1	18
501.127	1	9
501.297	1	1
501.467	1	7
501.638	1	-3
501.808	1	15
501.978	1	6
502.148	1	-3
502.319	1	8
502.489	1	2
502.659	1	9
502.829	1	4
503.000	1	5
503.170	1	2
503.340	1	4
503.510	1	4
503.681	1	10
503.851	1	-3
504.021	1	5
504.191	1	7
504.362	1	3
504.532	1	9
504.702	1	2
504.872	1	-2
505.042	1	5
505.213	1	-2
505.383	1	8
505.553	1	9
505.723	1	9
505.894	1	12
506.064	1	0
506.234	1	8
506.404	1	8
506.575	1	-5
506.745	1	-6
506.915	1	6
507.085	1	9
507.256	1	9
507.426	1	1
507.596	1	8
507.766	1	25
507.936	1	2
508.107	1	5
508.277	1	6
508.447	1	-8
508.617	1	-1
508.788	1	2
508.958	1	21
509.128	1	7
509.298	1	1
509.468	1	23
509.639	1	-1
509.809	1	2
509.979	1	14
510.149	1	12
510.319	1	11
510.490	1	8
510.660	1	11
510.830	1	6
511.000	1	-5
511.171	1	-1
511.341	1	5
511.511	1	-1
511.681	1	11
511.851	1	-3
512.022	1	7
512.192	1	5
512.362	1	10
512.532	1	10
512.702	1	-5
512.873	1	0
513.043	1	4
513.213	1	6
513.383	1	-3
513.553	1	-3
513.724	1	7
513.894	1	19
514.064	1	12
514.234	1	3
514.404	1	4
514.575	1	6
514.745	1	6
514.915	1	8
515.085	1	-3
515.255	1	3
515.425	1	5
515.596	1	15
515.766	1	12
515.936	1	17
516.106	1	8
516.276	1	13
516.447	1	3
516.617	1	5
516.787	1	8
516.957	1	6
517.127	1	5
517.297	1	5
517.468	1	14
517.638	1	3
517.808	1	16
517.978	1	11
518.148	1	27
518.319	1	3
518.489	1	12
518.659	1	9
518.829	1	11
518.999	1	8
519.169	1	8
519.340	1	12
519.510	1	7
519.680	1	-5
519.850	1	16
520.020	1	7
520.190	1	13
520.361	1	11
520.531	1	10
520.701	1	10
520.871	1	4
521.041	1	9
521.211	1	-4
521.382	1	10
521.552	1	5
521.722	1	11
521.892	1	9
522.062	1	14
522.232	1	15
522.402	1	4
522.573	1	9
522.743	1	1
522.913	1	0
523.083	1	4
523.253	1	-9
523.423	1	14
523.593	1	5
523.764	1	19
523.934	1	7
524.104	1	7
524.274	1	0
524.444	1	11
524.614	1	16
524.784	1	10
524.955	1	4
525.125	1	8
525.295	1	13
525.465	1	15
525.635	1	16
525.805	1	9
525.975	1	4
526.146	1	4
526.316	1	9
526.486	1	7
526.656	1	20
526.826	1	19
526.996	1	3
527.166	1	17
527.337	1	9
527.507	1	16
527.677	1	13
527.847	1	11
528.017	1	14
528.187	1	10
528.357	1	5
528.527	1	5
528.698	1	9
528.868	1	4
529.038	1	3
529.208	1	9
529.378	1	7
529.548	1	1
529.718	1	9
529.888	1	1
530.058	1	7
530.229	1	4
530.399	1	10
530.569	1	6
530.739	1	7
530.909	1	18
531.079	1	1
531.249	1	5
531.419	1	3
531.589	1	2
531.760	1	11
531.930	1	3
532.100	1	18
532.270	1	10
532.440	1	-1
532.610	1	0
532.780	1	2
532.950	1	2
533.120	1	3
533.290	1	-1
533.461	1	2
533.631	1	10
533.801	1	13
533.971	1	13
534.141	1	12
534.311	1	-2
534.481	1	1
534.651	1	14
534.821	1	2
534.991	1	-3
535.162	1	3
535.332	1	6
535.502	1	14
535.672	1	9
535.842	1	4
536.012	1	-3
536.182	1	9
536.352	1	7
536.522	1	2
536.692	1	-5
536.862	1	12
537.032	1	6
537.203	1	4
537.373	1	8
537.543	1	3
537.713	1	13
537.883	1	11
538.053	1	6
538.223	1	7
538.393	1	3
538.563	1	13
538.733	1	-6
538.903	1	5
539.073	1	10
539.243	1	2
539.413	1	3
539.584	1	5
539.754	1	9
539.924	1	8
540.094	1	10
540.264	1	4
540.434	1	16
540.604	1	10
540.774	1	12
540.944	1	7
541.114	1	-11
541.284	1	9
541.454	1	13
541.624	1	3
541.794	1	10
541.964	1	6
542.134	1	14
542.305	1	7
542.475	1	7
542.645	1	18
542.815	1	2
542.985	1	11
543.155	1	11
543.325	1	-2
543.495	1	-1
543.665	1	4
543.835	1	12
544.005	1	2
544.175	1	17
544.345	1	6
544.515	1	11
544.685	1	18
544.855	1	1
545.025	1	23
545.195	1	8
545.365	1	-1
545.535	1	16
545.705	1	15
545.875	1	18
546.045	1	4
546.216	1	10
546.386	1	9
546.556	1	10
546.726	1	4
546.896	1	12
547.066	1	14
547.236	1	9
547.406	1	9
547.576	1	6
547.746	1	4
547.916	1	11
548.086	1	8
548.256	1	10
548.426	1	6
548.596	1	2
548.766	1	6
548.936	1	6
549.106	1	0
549.276	1	5
549.446	1	-5
549.616	1	-6
549.786	1	12
549.956	1	9
550.126	1	8
550.296	1	9
550.466	1	16
550.636	1	7
550.806	1	15
550.976	1	6
551.146	1	16
551.316	1	7
551.486	1	12
551.656	1	-5
551.826	1	-5
551.996	1	8
552.166	1	8
552.336	1	12
552.506	1	-1
552.676	1	9
552.846	1	10
553.016	1	14
553.186	1	-1
553.356	1	11
553.526	1	1
553.696	1	-1
553.866	1	9
554.036	1	20
554.206	1	12
554.376	1	-2
554.546	1	16
554.716	1	5
554.886	1	5
555.056	1	9
555.226	1	6
555.396	1	10
555.566	1	12
555.736	1	6
555.906	1	10
556.076	1	2
556.246	1	8
556.416	1	10
556.586	1	2
556.756	1	7
556.926	1	9
557.096	1	21
557.266	1	6
557.436	1	4
557.606	1	0
557.776	1	-4
557.946	1	-1
558.116	1	8
558.286	1	6
558.456	1	2
558.626	1	10
558.796	1	5
558.966	1	15
559.136	1	5
559.306	1	9
559.476	1	13
559.646	1	15
559.816	1	5
559.986	1	6
560.155	1	-4
560.325	1	5
560.495	1	8
560.665	1	9
560.835	1	7
561.005	1	4
561.175	1	4
561.345	1	17
561.515	1	15
561.685	1	12
561.855	1	4
562.025	1	14
562.195	1	13
562.365	1	4
562.535	1	-2
562.705	1	2
562.875	1	-6
563.045	1	13
563.215	1	6
563.385	1	10
563.555	1	1
563.725	1	15
563.895	1	8
564.064	1	12
564.234	1	7
564.404	1	5
564.574	1	-11
564.744	1	3
564.914	1	2
565.084	1	-3
565.254	1	8
565.424	1	17
565.594	1	6
565.764	1	2
565.934	1	7
566.104	1	14
566.274	1	10
566.444	1	-1
566.614	1	2
566.783	1	0
566.953	1	15
567.123	1	19
567.293	1	-8
567.463	1	13
567.633	1	7
567.803	1	13
567.973	1	15
568.143	1	10
568.313	1	21
568.483	1	0
568.653	1	10
568.823	1	5
568.993	1	12
569.162	1	14
569.332	1	6
569.502	1	8
569.672	1	16
569.842	1	4
570.012	1	4
570.182	1	10
570.352	1	0
570.522	1	4
570.692	1	-2
570.862	1	6
571.031	1	2
571.201	1	6
571.371	1	-1
571.541	1	7
571.711	1	3
571.881	1	11
572.051	1	-7
572.221	1	6
572.391	1	5
572.561	1	6
572.731	1	4
572.900	1	0
573.070	1	0
573.240	1	-3
573.410	1	13
573.580	1	11
573.750	1	10
573.920	1	10
574.090	1	13
574.260	1	0
574.430	1	4
574.599	1	8
574.769	1	7
574.939	1	0
575.109	1	-5
575.279	1	10
575.449	1	16
575.619	1	1
575.789	1	18
575.959	1	5
576.128	1	-3
576.298	1	7
576.468	1	11
576.638	1	17
576.808	1	5
576.978	1	-10
577.148	1	5
577.318	1	15
577.487	1	0
577.657	1	8
577.827	1	2
577.997	1	8
578.167	1	2
578.337	1	8
578.507	1	12
578.677	1	8
578.846	1	8
579.016	1	16
579.186	1	6
579.356	1	5
579.526	1	10
579.696	1	10
579.866	1	0
580.036	1	0
580.205	1	-2
580.375	1	7
580.545	1	9
580.715	1	4
580.885	1	4
581.055	1	13
581.225	1	0
581.394	1	0
581.564	1	9
581.734	1	11
581.904	1	3
582.074	1	0
582.244	1	14
582.414	1	3
582.583	1	4
582.753	1	11
582.923	1	9
583.093	1	8
583.263	1	4
583.433	1	12
583.603	1	8
583.772	1	6
583.942	1	10
584.112	1	6
584.282	1	15
584.452	1	12
584.622	1	-3
584.791	1	5
584.961	1	1
585.131	1	7
585.301	1	-1
585.471	1	18
585.641	1	-2
585.811	1	10
585.980	1	14
586.150	1	0
586.320	1	-7
586.490	1	6
586.660	1	3
586.830	1	5
586.999	1	9
587.169	1	5
587.339	1	7
587.509	1	-3
587.679	1	1
587.849	1	4
588.018	1	25
588.188	1	7
588.358	1	3
588.528	1	3
588.698	1	-2
588.867	1	3
589.037	1	0
589.207	1	17
589.377	1	10
589.547	1	4
589.717	1	6
589.886	1	-4
590.056	1	6
590.226	1	-2
590.396	1	12
590.566	1	5
590.735	1	15
590.905	1	-10
591.075	1	6
591.245	1	16
591.415	1	2
591.585	1	-1
591.754	1	8
591.924	1	0
592.094	1	6
592.264	1	5
592.434	1	6
592.603	1	8
592.773	1	-2
592.943	1	6
593.113	1	6
593.283	1	2
593.452	1	1
593.622	1	-3
593.792	1	8
593.962	1	8
594.132	1	6
594.301	1	9
594.471	1	9
594.641	1	1
594.811	1	-2
594.981	1	-6
595.150	1	-1
595.320	1	9
595.490	1	8
595.660	1	15
595.829	1	1
595.999	1	12
596.169	1	24
596.339	1	6
596.509	1	5
596.678	1	10
596.848	1	7
597.018	1	5
597.188	1	-5
597.358	1	-2
597.527	1	10
597.697	1	2
597.867	1	1
598.037	1	4
598.206	1	1
598.376	1	-2
598.546	1	-5
598.716	1	13
598.885	1	15
599.055	1	7
599.225	1	5
599.395	1	2
599.565	1	11
599.734	1	-1
599.904	1	-2
600.074	1	1
600.244	1	14
600.413	1	6
600.583	1	17
600.753	1	11
600.923	1	10
601.092	1	3
601.262	1	6
601.432	1	-1
601.602	1	13
601.771	1	12
601.941	1	5
602.111	1	11
602.281	1	2
602.451	1	5
602.620	1	-3
602.790	1	10
602.960	1	7
603.130	1	7
603.299	1	13
603.469	1	17
603.639	1	6
603.809	1	2
603.978	1	3
604.148	1	7
604.318	1	13
604.487	1	-6
604.657	1	4
604.827	1	-3
604.997	1	14
605.166	1	-3
605.336	1	0
605.506	1	8
605.676	1	3
605.845	1	10
606.015	1	2
606.185	1	1
606.355	1	10
606.524	1	9
606.694	1	6
606.864	1	2
607.034	1	-8
607.203	1	-3
607.373	1	5
607.543	1	-5
607.712	1	8
607.882	1	12
608.052	1	4
608.222	1	-6
608.391	1	3
608.561	1	6
608.731	1	-2
608.901	1	8
609.070	1	12
609.240	1	12
609.410	1	3
609.579	1	-3
609.749	1	8
609.919	1	12
610.089	1	0
610.258	1	-4
610.428	1	-1
610.598	1	3
610.767	1	10
610.937	1	4
611.107	1	-2
611.277	1	6
611.446	1	-6
611.616	1	8
611.786	1	13
611.955	1	1
612.125	1	1
612.295	1	5
612.465	1	8
612.634	1	1
612.804	1	4
612.974	1	1
613.143	1	0
613.313	1	2
613.483	1	9
613.652	1	9
613.822	1	1
613.992	1	14
614.162	1	5
614.331	1	10
614.501	1	-8
614.671	1	9
614.840	1	18
615.010	1	2
615.180	1	13
615.349	1	3
615.519	1	9
615.689	1	7
615.858	1	10
616.028	1	0
616.198	1	3
616.368	1	3
616.537	1	-11
616.707	1	12
616.877	1	5
617.046	1	4
617.216	1	18
617.386	1	10
617.555	1	8
617.725	1	1
617.895	1	13
618.064	1	-3
618.234	1	-2
618.404	1	-4
618.573	1	4
618.743	1	14
618.913	1	8
619.082	1	7
619.252	1	11
619.422	1	6
619.591	1	-3
619.761	1	-4
619.931	1	-5
620.100	1	-2
620.270	1	11
620.440	1	-3
620.609	1	-8
620.779	1	5
620.949	1	8
621.118	1	5
621.288	1	10
621.458	1	4
621.627	1	11
621.797	1	3
621.967	1	-10
622.136	1	6
622.306	1	2
622.476	1	0
622.645	1	2
622.815	1	-17
622.985	1	0
623.154	1	-2
623.324	1	2
623.494	1	16
623.663	1	13
623.833	1	-3
624.002	1	8
624.172	1	7
624.342	1	6
624.511	1	6
624.681	1	9
624.851	1	8
625.020	1	12
625.190	1	-2
625.360	1	1
625.529	1	-5
625.699	1	3
625.869	1	6
626.038	1	4
626.208	1	6
626.377	1	1
626.547	1	8
626.717	1	7
626.886	1	2
627.056	1	10
627.226	1	2
627.395	1	6
627.565	1	-1
627.735	1	4
627.904	1	8
628.074	1	1
628.243	1	11
628.413	1	11
628.583	1	2
628.752	1	-1
628.922	1	7
629.091	1	-9
629.261	1	0
629.431	1	1
629.600	1	4
629.770	1	4
629.940	1	-4
630.109	1	6
630.279	1	6
630.448	1	0
630.618	1	1
630.788	1	-9
630.957	1	4
631.127	1	4
631.297	1	9
631.466	1	-3
631.636	1	-1
631.805	1	2
631.975	1	17
632.145	1	4
632.314	1	-2
632.484	1	1
632.653	1	-3
632.823	1	-1
632.993	1	14
633.162	1	-1
633.332	1	-7
633.501	1	-1
633.671	1	18
633.841	1	-10
634.010	1	3
634.180	1	-5
634.349	1	4
634.519	1	8
634.689	1	7
634.858	1	2
635.028	1	4
635.197	1	6
635.367	1	7
635.537	1	-3
635.706	1	12
635.876	1	-6
636.045	1	-5
636.215	1	-3
636.384	1	1
636.554	1	6
636.724	1	4
636.893	1	-3
637.063	1	9
637.232	1	14
637.402	1	11
637.572	1	12
637.741	1	1
637.911	1	-2
638.080	1	-6
638.250	1	3
638.419	1	-1
638.589	1	4
638.759	1	11
638.928	1	6
639.098	1	6
639.267	1	-8
639.437	1	7
639.606	1	-3
639.776	1	1
639.946	1	7
640.115	1	10
640.285	1	6
640.454	1	9
640.624	1	7
640.793	1	0
640.963	1	-6
641.132	1	4
641.302	1	8
641.472	1	5
641.641	1	3
641.811	1	-13
641.980	1	0
642.150	1	4
642.319	1	-4
642.489	1	7
642.659	1	-3
642.828	1	7
642.998	1	-15
643.167	1	-6
643.337	1	0
643.506	1	7
643.676	1	4
643.845	1	11
644.015	1	1
644.184	1	-4
644.354	1	-4
644.524	1	5
644.693	1	-2
644.863	1	9
645.032	1	1
645.202	1	3
645.371	1	-10
645.541	1	1
645.710	1	3
645.880	1	9
646.049	1	2
646.219	1	12
646.388	1	4
646.558	1	13
646.728	1	5
646.897	1	13
647.067	1	0
647.236	1	-4
647.406	1	3
647.575	1	2
647.745	1	3
647.914	1	-6
648.084	1	1
648.253	1	2
648.423	1	6
648.592	1	-5
648.762	1	6
648.931	1	3
649.101	1	12
649.270	1	3
649.440	1	7
649.610	1	8
649.779	1	10
649.949	1	-9
650.118	1	-2
650.288	1	3
650.457	1	-4
650.627	1	5
650.796	1	-5
650.966	1	8
651.135	1	6
651.305	1	3
651.474	1	7
651.644	1	4
651.813	1	6
651.983	1	8
652.152	1	4
652.322	1	0
652.491	1	0
652.661	1	11
652.830	1	10
653.000	1	5
653.169	1	2
653.339	1	8
653.508	1	5
653.678	1	-4
653.847	1	1
654.017	1	0
654.186	1	8
654.356	1	1
654.525	1	7
654.695	1	-4
654.864	1	-4
655.034	1	4
655.203	1	-2
655.373	1	8
655.542	1	-1
655.712	1	2
655.881	1	5
656.051	1	-3
656.220	1	8
656.390	1	2
656.559	1	4
656.729	1	-4
656.898	1	6
657.068	1	3
657.237	1	-1
657.406	1	-1
657.576	1	2
657.745	1	5
657.915	1	-3
658.084	1	8
658.254	1	9
658.423	1	14
658.593	1	2
658.762	1	15
658.932	1	3
659.101	1	-3
659.271	1	7
659.440	1	5
659.610	1	9
659.779	1	5
659.949	1	5
660.118	1	4
660.288	1	1
660.457	1	8
660.626	1	5
660.796	1	-3
660.965	1	-8
661.135	1	5
661.304	1	11
661.474	1	1
661.643	1	1
661.813	1	9
661.982	1	0
662.152	1	11
662.321	1	-1
662.491	1	2
662.660	1	3
662.829	1	3
662.999	1	10
663.168	1	4
663.338	1	4
663.507	1	3
663.677	1	-8
663.846	1	0
664.016	1	0
664.185	1	11
664.354	1	9
664.524	1	0
664.693	1	11
664.863	1	-3
665.032	1	6
665.202	1	-5
665.371	1	6
665.541	1	-2
665.710	1	5
665.879	1	1
666.049	1	-2
666.218	1	1
666.388	1	9
666.557	1	3
666.727	1	-1
666.896	1	0
667.065	1	7
667.235	1	-7
667.404	1	1
667.574	1	7
667.743	1	7
667.913	1	7
668.082	1	6
668.251	1	8
668.421	1	0
668.590	1	4
668.760	1	2
668.929	1	-1
669.099	1	1
669.268	1	3
669.437	1	0
669.607	1	-3
669.776	1	8
669.946	1	4
670.115	1	9
670.285	1	5
670.454	1	11
670.623	1	-7
670.793	1	6
670.962	1	-3
671.132	1	4
671.301	1	2
671.470	1	-3
671.640	1	11
671.809	1	-1
671.979	1	10
672.148	1	0
672.317	1	-1
672.487	1	2
672.656	1	12
672.826	1	2
672.995	1	2
673.164	1	7
673.334	1	-1
673.503	1	-5
673.673	1	-3
673.842	1	-4
674.011	1	-7
674.181	1	7
674.350	1	5
674.520	1	11
674.689	1	-8
674.858	1	-10
675.028	1	1
675.197	1	0
675.367	1	-4
675.536	1	6
675.705	1	3
675.875	1	-2
676.044	1	5
676.214	1	-2
676.383	1	14
676.552	1	1
676.722	1	-3
676.891	1	-15
677.060	1	-2
677.230	1	8
677.399	1	7
677.569	1	8
677.738	1	-2
677.907	1	8
678.077	1	16
678.246	1	-16
678.416	1	-1
678.585	1	0
678.754	1	2
678.924	1	-3
679.093	1	12
679.262	1	13
679.432	1	13
679.601	1	11
679.771	1	-11
679.940	1	9
680.109	1	-4
680.279	1	12
680.448	1	-3
680.617	1	9
680.787	1	-3
680.956	1	5
681.125	1	7
681.295	1	9
681.464	1	3
681.634	1	-8
681.803	1	6
681.972	1	-5
682.142	1	-3
682.311	1	8
682.480	1	7
682.650	1	7
682.819	1	8
682.988	1	6
683.158	1	7
683.327	1	1
683.496	1	6
683.666	1	6
683.835	1	-7
684.004	1	3
684.174	1	-1
684.343	1	7
684.512	1	7
684.682	1	-3
684.851	1	1
685.021	1	1
685.190	1	13
685.359	1	0
685.529	1	4
685.698	1	-6
685.867	1	-4
686.037	1	-1
686.206	1	2
686.375	1	5
686.545	1	-2
686.714	1	8
686.883	1	7
687.053	1	-5
687.222	1	6
687.391	1	17
687.561	1	-1
687.730	1	2
687.899	1	8
688.069	1	-2
688.238	1	0
688.407	1	5
688.577	1	3
688.746	1	1
