340.368	1	15
340.539	1	6
340.710	1	2
340.881	1	-1
341.052	1	3
341.223	1	-6
341.394	1	-2
341.565	1	2
341.737	1	0
341.908	1	-3
342.079	1	0
342.250	1	4
342.421	1	-1
342.592	1	-3
342.763	1	5
342.934	1	0
343.105	1	0
343.276	1	-8
343.447	1	1
343.618	1	3
343.789	1	11
343.960	1	9
344.131	1	16
344.302	1	13
344.473	1	2
344.644	1	7
344.815	1	-9
344.986	1	-8
345.157	1	-3
345.328	1	-8
345.499	1	3
345.670	1	8
345.841	1	0
346.012	1	3
346.183	1	-4
346.354	1	-4
346.526	1	4
346.697	1	0
346.868	1	-2
347.039	1	-13
347.210	1	1
347.381	1	3
347.552	1	3
347.723	1	-10
347.894	1	-13
348.065	1	0
348.236	1	-4
348.407	1	4
348.578	1	-5
348.749	1	-10
348.920	1	-8
349.091	1	6
349.262	1	2
349.433	1	3
349.604	1	-3
349.775	1	1
349.946	1	-5
350.117	1	-1
350.288	1	6
350.459	1	-9
350.630	1	-1
350.801	1	7
350.972	1	7
351.143	1	-7
351.314	1	2
351.485	1	-10
351.656	1	3
351.827	1	-3
351.998	1	9
352.169	1	-3
352.340	1	4
352.511	1	-3
352.682	1	-12
352.853	1	4
353.024	1	2
353.195	1	3
353.366	1	-3
353.537	1	3
353.708	1	-3
353.879	1	6
354.050	1	1
354.221	1	0
354.392	1	-4
354.563	1	3
354.734	1	-13
354.905	1	7
355.076	1	-8
355.247	1	-1
355.418	1	-3
355.589	1	-4
355.760	1	12
355.931	1	-2
356.102	1	-2
356.273	1	-1
356.444	1	5
356.615	1	-7
356.785	1	-6
356.956	1	9
357.127	1	5
357.298	1	-5
357.469	1	6
357.640	1	1
357.811	1	2
357.982	1	0
358.153	1	1
358.324	1	-2
358.495	1	5
358.666	1	-1
358.837	1	2
359.008	1	3
359.179	1	-3
359.350	1	1
359.521	1	2
359.692	1	-4
359.863	1	-4
360.034	1	-2
360.205	1	2
360.376	1	11
360.547	1	2
360.718	1	-1
360.889	1	3
361.060	1	-7
361.231	1	-1
361.401	1	4
361.572	1	13
361.743	1	1
361.914	1	1
362.085	1	9
362.256	1	1
362.427	1	0
362.598	1	1
362.769	1	8
362.940	1	-3
363.111	1	5
363.282	1	9
363.453	1	8
363.624	1	6
363.795	1	1
363.966	1	5
364.137	1	18
364.308	1	8
364.478	1	10
364.649	1	18
364.820	1	3
364.991	1	3
365.162	1	18
365.333	1	4
365.504	1	10
365.675	1	8
365.846	1	10
366.017	1	15
366.188	1	12
366.359	1	7
366.530	1	12
366.701	1	3
366.871	1	-5
367.042	1	18
367.213	1	14
367.384	1	7
367.555	1	9
367.726	1	12
367.897	1	20
368.068	1	10
368.239	1	17
368.410	1	10
368.581	1	6
368.752	1	10
368.923	1	23
369.093	1	7
369.264	1	8
369.435	1	4
369.606	1	7
369.777	1	4
369.948	1	9
370.119	1	7
370.290	1	1
370.461	1	17
370.632	1	6
370.803	1	12
370.973	1	18
371.144	1	15
371.315	1	1
371.486	1	14
371.657	1	11
371.828	1	9
371.999	1	5
372.170	1	8
372.341	1	9
372.512	1	0
372.682	1	3
372.853	1	2
373.024	1	13
373.195	1	-5
373.366	1	-3
373.537	1	4
373.708	1	15
373.879	1	8
374.050	1	10
374.220	1	6
374.391	1	0
374.562	1	6
374.733	1	6
374.904	1	12
375.075	1	-2
375.246	1	19
375.417	1	-3
375.588	1	5
375.758	1	13
375.929	1	3
376.100	1	2
376.271	1	10
376.442	1	6
376.613	1	8
376.784	1	0
376.955	1	-3
377.125	1	5
377.296	1	8
377.467	1	12
377.638	1	7
377.809	1	8
377.980	1	9
378.151	1	3
378.321	1	8
378.492	1	3
378.663	1	4
378.834	1	2
379.005	1	-5
379.176	1	2
379.347	1	7
379.518	1	19
379.688	1	-1
379.859	1	9
380.030	1	7
380.201	1	1
380.372	1	-6
380.543	1	-1
380.714	1	7
380.884	1	3
381.055	1	-4
381.226	1	12
381.397	1	14
381.568	1	6
381.739	1	-9
381.910	1	0
382.080	1	-8
382.251	1	4
382.422	1	-2
382.593	1	0
382.764	1	4
382.935	1	-6
383.105	1	4
383.276	1	0
383.447	1	3
383.618	1	4
383.789	1	-1
383.960	1	-2
384.130	1	-6
384.301	1	18
384.472	1	0
384.643	1	-14
384.814	1	-4
384.985	1	14
385.156	1	-4
385.326	1	-1
385.497	1	-8
385.668	1	-4
385.839	1	0
386.010	1	7
386.180	1	7
386.351	1	-6
386.522	1	6
386.693	1	5
386.864	1	-5
387.035	1	6
387.205	1	-16
387.376	1	2
387.547	1	15
387.718	1	7
387.889	1	4
388.060	1	-1
388.230	1	5
388.401	1	5
388.572	1	-1
388.743	1	0
388.914	1	1
389.084	1	-6
389.255	1	0
389.426	1	7
389.597	1	-6
389.768	1	6
389.939	1	7
390.109	1	0
390.280	1	10
390.451	1	5
390.622	1	-3
390.793	1	10
390.963	1	10
391.134	1	-9
391.305	1	-7
391.476	1	1
391.647	1	4
391.817	1	12
391.988	1	7
392.159	1	6
392.330	1	0
392.501	1	4
392.671	1	-5
392.842	1	4
393.013	1	4
393.184	1	8
393.355	1	-10
393.525	1	1
393.696	1	-1
393.867	1	1
394.038	1	-12
394.208	1	-2
394.379	1	8
394.550	1	-3
394.721	1	-3
394.892	1	5
395.062	1	0
395.233	1	-10
395.404	1	3
395.575	1	6
395.746	1	1
395.916	1	2
396.087	1	11
396.258	1	1
396.429	1	-4
396.599	1	-2
396.770	1	4
396.941	1	9
397.112	1	-6
397.283	1	11
397.453	1	-5
397.624	1	-4
397.795	1	4
397.966	1	9
398.136	1	2
398.307	1	3
398.478	1	4
398.649	1	6
398.819	1	-9
398.990	1	-11
399.161	1	3
399.332	1	-3
399.503	1	1
399.673	1	1
399.844	1	3
400.015	1	-8
400.186	1	-10
400.356	1	9
400.527	1	-4
400.698	1	4
400.869	1	-7
401.039	1	-2
401.210	1	5
401.381	1	-3
401.552	1	4
401.722	1	-2
401.893	1	8
402.064	1	2
402.235	1	-9
402.405	1	-8
402.576	1	-2
402.747	1	-7
402.918	1	-2
403.088	1	3
403.259	1	3
403.430	1	3
403.601	1	-5
403.771	1	-3
403.942	1	-6
404.113	1	-2
404.284	1	3
404.454	1	-6
404.625	1	-3
404.796	1	3
404.967	1	4
405.137	1	5
405.308	1	-1
405.479	1	0
405.649	1	4
405.820	1	2
405.991	1	-13
406.162	1	3
406.332	1	-8
406.503	1	-8
406.674	1	1
406.845	1	11
407.015	1	-5
407.186	1	-16
407.357	1	-13
407.527	1	-6
407.698	1	-5
407.869	1	-9
408.040	1	2
408.210	1	8
408.381	1	4
408.552	1	5
408.722	1	2
408.893	1	2
409.064	1	-7
409.235	1	-4
409.405	1	0
409.576	1	-5
409.747	1	3
409.917	1	-2
410.088	1	0
410.259	1	-9
410.430	1	0
410.600	1	-6
410.771	1	5
410.942	1	3
411.112	1	-1
411.283	1	0
411.454	1	16
411.625	1	-3
411.795	1	-5
411.966	1	6
412.137	1	-11
412.307	1	9
412.478	1	-6
412.649	1	9
412.819	1	9
412.990	1	8
413.161	1	-1
413.332	1	11
413.502	1	-9
413.673	1	-3
413.844	1	10
414.014	1	-1
414.185	1	6
414.356	1	-10
414.526	1	-3
414.697	1	-9
414.868	1	-3
415.038	1	6
415.209	1	-4
415.380	1	2
415.550	1	13
415.721	1	0
415.892	1	-2
416.063	1	-11
416.233	1	1
416.404	1	3
416.575	1	-3
416.745	1	-12
416.916	1	-5
417.087	1	2
417.257	1	-13
417.428	1	8
417.599	1	-2
417.769	1	-6
417.940	1	-9
418.111	1	6
418.281	1	4
418.452	1	-4
418.623	1	-11
418.793	1	15
418.964	1	-5
419.135	1	-10
419.305	1	1
419.476	1	3
419.647	1	-10
419.817	1	0
419.988	1	3
420.159	1	4
420.329	1	7
420.500	1	10
420.671	1	-7
420.841	1	1
421.012	1	3
421.183	1	-5
421.353	1	-11
421.524	1	3
421.695	1	6
421.865	1	-2
422.036	1	-5
422.206	1	7
422.377	1	0
422.548	1	-4
422.718	1	7
422.889	1	-2
423.060	1	-5
423.230	1	-2
423.401	1	4
423.572	1	9
423.742	1	2
423.913	1	-1
424.084	1	-2
424.254	1	-8
424.425	1	-2
424.595	1	5
424.766	1	-1
424.937	1	4
425.107	1	8
425.278	1	6
425.449	1	7
425.619	1	-2
425.790	1	0
425.961	1	-3
426.131	1	-3
426.302	1	-11
426.472	1	-6
426.643	1	6
426.814	1	8
426.984	1	3
427.155	1	5
427.326	1	0
427.496	1	-4
427.667	1	-4
427.837	1	-8
428.008	1	14
428.179	1	1
428.349	1	5
428.520	1	5
428.691	1	11
428.861	1	9
429.032	1	0
429.202	1	4
429.373	1	1
429.544	1	-4
429.714	1	-2
429.885	1	1
430.055	1	1
430.226	1	-6
430.397	1	-3
430.567	1	-5
430.738	1	-5
430.909	1	-1
431.079	1	19
431.250	1	4
431.420	1	2
431.591	1	7
431.762	1	0
431.932	1	10
432.103	1	-15
432.273	1	4
432.444	1	1
432.615	1	2
432.785	1	5
432.956	1	-3
433.126	1	12
433.297	1	-4
433.468	1	-5
433.638	1	-1
433.809	1	2
433.979	1	-3
434.150	1	4
434.320	1	11
434.491	1	2
434.662	1	-2
434.832	1	-9
435.003	1	-2
435.173	1	-3
435.344	1	-8
435.515	1	-3
435.685	1	-9
435.856	1	-1
436.026	1	-9
436.197	1	-3
436.368	1	-5
436.538	1	-6
436.709	1	-2
436.879	1	3
437.050	1	5
437.220	1	7
437.391	1	0
437.562	1	8
437.732	1	2
437.903	1	2
438.073	1	5
438.244	1	8
438.414	1	-10
438.585	1	-6
438.756	1	-2
438.926	1	3
439.097	1	3
439.267	1	4
439.438	1	14
439.608	1	0
439.779	1	-7
439.949	1	6
440.120	1	-2
440.291	1	0
440.461	1	-6
440.632	1	-1
440.802	1	-6
440.973	1	12
441.143	1	3
441.314	1	-6
441.485	1	14
441.655	1	-1
441.826	1	2
441.996	1	-7
442.167	1	-1
442.337	1	2
442.508	1	-2
442.678	1	2
442.849	1	15
443.019	1	1
443.190	1	-1
443.361	1	-3
443.531	1	10
443.702	1	5
443.872	1	-2
444.043	1	3
444.213	1	7
444.384	1	4
444.554	1	-4
444.725	1	11
444.895	1	7
445.066	1	-3
445.237	1	-3
445.407	1	-8
445.578	1	3
445.748	1	2
445.919	1	7
446.089	1	10
446.260	1	-10
446.430	1	-1
446.601	1	2
446.771	1	15
446.942	1	-4
447.112	1	-1
447.283	1	6
447.453	1	-2
447.624	1	-1
447.794	1	9
447.965	1	4
448.135	1	1
448.306	1	2
448.477	1	-1
448.647	1	-10
448.818	1	7
448.988	1	2
449.159	1	0
449.329	1	-10
449.500	1	-11
449.670	1	-6
449.841	1	-2
450.011	1	3
450.182	1	3
450.352	1	8
450.523	1	-10
450.693	1	-5
450.864	1	3
451.034	1	7
451.205	1	-3
451.375	1	4
451.546	1	-4
451.716	1	-9
451.887	1	0
452.057	1	-1
452.228	1	6
452.398	1	3
452.569	1	9
452.739	1	3
452.910	1	0
453.080	1	-6
453.251	1	-3
453.421	1	0
453.592	1	3
453.762	1	-1
453.933	1	-4
454.103	1	-12
454.274	1	2
454.444	1	-3
454.615	1	-8
454.785	1	-13
454.956	1	1
455.126	1	-3
455.297	1	-2
455.467	1	5
455.638	1	5
455.808	1	2
455.979	1	-4
456.149	1	-8
456.320	1	-4
456.490	1	-3
456.661	1	-18
456.831	1	-6
457.001	1	-3
457.172	1	-8
457.342	1	1
457.513	1	3
457.683	1	5
457.854	1	-5
458.024	1	-8
458.195	1	-2
458.365	1	-2
458.536	1	9
458.706	1	13
458.877	1	-7
459.047	1	3
459.218	1	0
459.388	1	-3
459.559	1	0
459.729	1	-4
459.899	1	0
460.070	1	-5
460.240	1	-13
460.411	1	-1
460.581	1	-3
460.752	1	8
460.922	1	-4
461.093	1	4
461.263	1	2
461.434	1	2
461.604	1	-1
461.775	1	-8
461.945	1	-6
462.115	1	9
462.286	1	3
462.456	1	3
462.627	1	-1
462.797	1	5
462.968	1	5
463.138	1	6
463.309	1	-8
463.479	1	2
463.649	1	6
463.820	1	-5
463.990	1	2
464.161	1	-4
464.331	1	-8
464.502	1	1
464.672	1	10
464.843	1	13
465.013	1	4
465.183	1	-2
465.354	1	-6
465.524	1	-1
465.695	1	7
465.865	1	4
466.036	1	-4
466.206	1	6
466.376	1	-3
466.547	1	2
466.717	1	16
466.888	1	-3
467.058	1	4
467.229	1	7
467.399	1	1
467.569	1	10
467.740	1	-6
467.910	1	-5
468.081	1	-4
468.251	1	4
468.422	1	5
468.592	1	18
468.762	1	-1
468.933	1	1
469.103	1	5
469.274	1	7
469.444	1	5
469.614	1	1
469.785	1	-9
469.955	1	-4
470.126	1	-5
470.296	1	-5
470.467	1	6
470.637	1	-10
470.807	1	6
470.978	1	-5
471.148	1	4
471.319	1	5
471.489	1	3
471.659	1	-1
471.830	1	-1
472.000	1	-5
472.171	1	6
472.341	1	-6
472.511	1	2
472.682	1	-8
472.852	1	2
473.023	1	0
473.193	1	-5
473.363	1	7
473.534	1	8
473.704	1	0
473.875	1	0
474.045	1	6
474.215	1	2
474.386	1	-3
474.556	1	7
474.727	1	4
474.897	1	-7
475.067	1	0
475.238	1	2
475.408	1	-3
475.578	1	-4
475.749	1	2
475.919	1	-4
476.090	1	-1
476.260	1	4
476.430	1	5
476.601	1	0
476.771	1	1
476.942	1	-6
477.112	1	6
477.282	1	-1
477.453	1	-2
477.623	1	10
477.793	1	-9
477.964	1	7
478.134	1	5
478.305	1	7
478.475	1	3
478.645	1	4
478.816	1	-2
478.986	1	1
479.156	1	-7
479.327	1	-4
479.497	1	2
479.667	1	-1
479.838	1	3
480.008	1	5
480.179	1	5
480.349	1	1
480.519	1	1
480.690	1	6
480.860	1	5
481.030	1	-1
481.201	1	-1
481.371	1	8
481.541	1	-1
481.712	1	3
481.882	1	6
482.053	1	-4
482.223	1	1
482.393	1	-7
482.564	1	4
482.734	1	8
482.904	1	0
483.075	1	-3
483.245	1	-1
483.415	1	-1
483.586	1	2
483.756	1	2
483.926	1	-2
484.097	1	9
484.267	1	-6
484.437	1	-2
484.608	1	0
484.778	1	-11
484.948	1	5
485.119	1	-4
485.289	1	-10
485.459	1	5
485.630	1	-7
485.800	1	-12
485.970	1	-9
486.141	1	2
486.311	1	-17
486.481	1	11
486.652	1	0
486.822	1	-1
486.992	1	12
487.163	1	-5
487.333	1	-8
487.503	1	1
487.674	1	6
487.844	1	-8
488.014	1	1
488.185	1	8
488.355	1	3
488.525	1	4
488.696	1	-1
488.866	1	-5
489.036	1	2
489.207	1	-6
489.377	1	3
489.547	1	3
489.718	1	-10
489.888	1	9
490.058	1	4
490.228	1	3
490.399	1	0
490.569	1	7
490.739	1	5
490.910	1	-4
491.080	1	-19
491.250	1	5
491.421	1	1
491.591	1	-1
491.761	1	4
491.932	1	-1
492.102	1	11
492.272	1	-8
492.442	1	0
492.613	1	3
492.783	1	-9
492.953	1	7
493.124	1	-13
493.294	1	-1
493.464	1	3
493.635	1	6
493.805	1	13
493.975	1	11
494.145	1	2
494.316	1	-3
494.486	1	-5
494.656	1	-17
494.827	1	-1
494.997	1	6
495.167	1	16
495.337	1	14
495.508	1	0
495.678	1	7
495.848	1	3
496.019	1	-3
496.189	1	4
496.359	1	-2
496.529	1	-1
496.700	1	16
496.870	1	4
497.040	1	1
497.211	1	-1
497.381	1	6
497.551	1	1
497.721	1	0
497.892	1	-1
498.062	1	0
498.232	1	-9
498.403	1	-6
498.573	1	-2
498.743	1	-7
498.913	1	3
499.084	1	2
499.254	1	10
499.424	1	-4
499.594	1	0
499.765	1	-6
499.935	1	-7
500.105	1	-5
500.275	1	3
500.446	1	10
500.616	1	5
500.786	1	-6
500.956	1	9
501.127	1	-2
501.297	1	-1
501.467	1	1
501.638	1	4
501.808	1	5
501.978	1	7
502.148	1	-9
502.319	1	9
502.489	1	-3
502.659	1	7
502.829	1	-5
503.000	1	5
503.170	1	-7
503.340	1	5
503.510	1	0
503.681	1	0
503.851	1	-8
504.021	1	1
504.191	1	-1
504.362	1	8
504.532	1	5
504.702	1	5
504.872	1	-10
505.042	1	-7
505.213	1	5
505.383	1	4
505.553	1	-7
505.723	1	3
505.894	1	-1
506.064	1	-1
506.234	1	-11
506.404	1	12
506.575	1	-2
506.745	1	-8
506.915	1	8
507.085	1	-3
507.256	1	12
507.426	1	10
507.596	1	-4
507.766	1	11
507.936	1	1
508.107	1	-3
508.277	1	1
508.447	1	-4
508.617	1	-4
508.788	1	-2
508.958	1	5
509.128	1	3
509.298	1	-1
509.468	1	14
509.639	1	-5
509.809	1	-7
509.979	1	8
510.149	1	2
510.319	1	10
510.490	1	1
510.660	1	6
510.830	1	-2
511.000	1	6
511.171	1	1
511.341	1	-1
511.511	1	-4
511.681	1	-3
511.851	1	-5
512.022	1	0
512.192	1	1
512.362	1	5
512.532	1	6
512.702	1	-11
512.873	1	6
513.043	1	6
513.213	1	-1
513.383	1	-5
513.553	1	-7
513.724	1	7
513.894	1	3
514.064	1	1
514.234	1	-10
514.404	1	-2
514.575	1	8
514.745	1	-3
514.915	1	3
515.085	1	-1
515.255	1	1
515.425	1	4
515.596	1	8
515.766	1	-1
515.936	1	1
516.106	1	8
516.276	1	4
516.447	1	9
516.617	1	-4
516.787	1	9
516.957	1	-6
517.127	1	3
517.297	1	4
517.468	1	12
517.638	1	-7
517.808	1	0
517.978	1	-2
518.148	1	15
518.319	1	-9
518.489	1	13
518.659	1	6
518.829	1	-5
518.999	1	0
519.169	1	-1
519.340	1	-6
519.510	1	-3
519.680	1	-11
519.850	1	8
520.020	1	-2
520.190	1	9
520.361	1	4
520.531	1	-2
520.701	1	-1
520.871	1	0
521.041	1	-4
521.211	1	-3
521.382	1	-1
521.552	1	-2
521.722	1	8
521.892	1	-3
522.062	1	9
522.232	1	3
522.402	1	2
522.573	1	2
522.743	1	-9
522.913	1	3
523.083	1	9
523.253	1	-10
523.423	1	11
523.593	1	-7
523.764	1	0
523.934	1	0
524.104	1	2
524.274	1	-2
524.444	1	4
524.614	1	7
524.784	1	4
524.955	1	5
525.125	1	-4
525.295	1	-2
525.465	1	12
525.635	1	3
525.805	1	-1
525.975	1	-1
526.146	1	-3
526.316	1	4
526.486	1	-3
526.656	1	0
526.826	1	5
526.996	1	4
527.166	1	7
527.337	1	10
527.507	1	1
527.677	1	9
527.847	1	1
528.017	1	3
528.187	1	-5
528.357	1	2
528.527	1	4
528.698	1	-1
528.868	1	2
529.038	1	-5
529.208	1	-1
529.378	1	-8
529.548	1	-6
529.718	1	-5
529.888	1	8
530.058	1	1
530.229	1	-6
530.399	1	11
530.569	1	-2
530.739	1	2
530.909	1	16
531.079	1	-4
531.249	1	-1
531.419	1	0
531.589	1	4
531.760	1	3
531.930	1	-3
532.100	1	4
532.270	1	3
532.440	1	-4
532.610	1	1
532.780	1	-4
532.950	1	1
533.120	1	0
533.290	1	-1
533.461	1	-1
533.631	1	3
533.801	1	11
533.971	1	10
534.141	1	17
534.311	1	-1
534.481	1	-16
534.651	1	13
534.821	1	-5
534.991	1	3
535.162	1	-4
535.332	1	3
535.502	1	9
535.672	1	-8
535.842	1	6
536.012	1	0
536.182	1	5
536.352	1	-6
536.522	1	-1
536.692	1	-14
536.862	1	-6
537.032	1	-4
537.203	1	-1
537.373	1	5
537.543	1	1
537.713	1	5
537.883	1	-4
538.053	1	6
538.223	1	4
538.393	1	-2
538.563	1	6
538.733	1	-16
538.903	1	4
539.073	1	4
539.243	1	-3
539.413	1	-8
539.584	1	5
539.754	1	3
539.924	1	3
540.094	1	1
540.264	1	3
540.434	1	0
540.604	1	9
540.774	1	2
540.944	1	2
541.114	1	-12
541.284	1	6
541.454	1	7
541.624	1	2
541.794	1	-2
541.964	1	-10
542.134	1	5
542.305	1	8
542.475	1	7
542.645	1	5
542.815	1	-2
542.985	1	-8
543.155	1	7
543.325	1	-13
543.495	1	0
543.665	1	5
543.835	1	6
544.005	1	1
544.175	1	11
544.345	1	4
544.515	1	-1
544.685	1	4
544.855	1	-3
545.025	1	5
545.195	1	-2
545.365	1	-4
545.535	1	8
545.705	1	-5
545.875	1	2
546.045	1	5
546.216	1	15
546.386	1	0
546.556	1	-6
546.726	1	-10
546.896	1	11
547.066	1	5
547.236	1	2
547.406	1	1
547.576	1	-4
547.746	1	-13
547.916	1	-3
548.086	1	-4
548.256	1	-4
548.426	1	3
548.596	1	-3
548.766	1	-3
548.936	1	-11
549.106	1	3
549.276	1	5
549.446	1	-10
549.616	1	-2
549.786	1	12
549.956	1	11
550.126	1	-3
550.296	1	1
550.466	1	5
550.636	1	0
550.806	1	10
550.976	1	0
551.146	1	-4
551.316	1	3
551.486	1	5
551.656	1	-14
551.826	1	3
551.996	1	4
552.166	1	-1
552.336	1	14
552.506	1	-2
552.676	1	8
552.846	1	-1
553.016	1	0
553.186	1	6
553.356	1	3
553.526	1	0
553.696	1	4
553.866	1	13
554.036	1	9
554.206	1	12
554.376	1	-2
554.546	1	3
554.716	1	0
554.886	1	-5
555.056	1	11
555.226	1	5
555.396	1	2
555.566	1	-6
555.736	1	5
555.906	1	5
556.076	1	4
556.246	1	-3
556.416	1	8
556.586	1	-8
556.756	1	-5
556.926	1	3
557.096	1	6
557.266	1	-1
557.436	1	5
557.606	1	3
557.776	1	-1
557.946	1	-4
558.116	1	1
558.286	1	-10
558.456	1	0
558.626	1	9
558.796	1	5
558.966	1	1
559.136	1	0
559.306	1	8
559.476	1	6
559.646	1	18
559.816	1	-12
559.986	1	-2
560.155	1	5
560.325	1	6
560.495	1	4
560.665	1	-8
560.835	1	3
561.005	1	4
561.175	1	-8
561.345	1	8
561.515	1	5
561.685	1	-3
561.855	1	-3
562.025	1	9
562.195	1	-5
562.365	1	0
562.535	1	4
562.705	1	-3
562.875	1	3
563.045	1	9
563.215	1	-1
563.385	1	4
563.555	1	-7
563.725	1	8
563.895	1	4
564.064	1	3
564.234	1	5
564.404	1	-2
564.574	1	-4
564.744	1	-12
564.914	1	4
565.084	1	-6
565.254	1	4
565.424	1	7
565.594	1	-5
565.764	1	-2
565.934	1	3
566.104	1	7
566.274	1	5
566.444	1	-7
566.614	1	-3
566.783	1	3
566.953	1	1
567.123	1	5
567.293	1	-8
567.463	1	5
567.633	1	-3
567.803	1	3
567.973	1	8
568.143	1	2
568.313	1	8
568.483	1	9
568.653	1	2
568.823	1	-12
568.993	1	0
569.162	1	6
569.332	1	12
569.502	1	4
569.672	1	10
569.842	1	5
570.012	1	14
570.182	1	-1
570.352	1	5
570.522	1	-5
570.692	1	-3
570.862	1	-3
571.031	1	2
571.201	1	3
571.371	1	-2
571.541	1	10
571.711	1	4
571.881	1	-2
572.051	1	-1
572.221	1	2
572.391	1	5
572.561	1	5
572.731	1	-7
572.900	1	-4
573.070	1	-3
573.240	1	4
573.410	1	9
573.580	1	7
573.750	1	2
573.920	1	4
574.090	1	1
574.260	1	-9
574.430	1	-1
574.599	1	8
574.769	1	3
574.939	1	-6
575.109	1	-2
575.279	1	14
575.449	1	-2
575.619	1	-2
575.789	1	10
575.959	1	-6
576.128	1	6
576.298	1	-2
576.468	1	-2
576.638	1	10
576.808	1	2
576.978	1	-9
577.148	1	11
577.318	1	2
577.487	1	-5
577.657	1	-6
577.827	1	-15
577.997	1	-3
578.167	1	2
578.337	1	6
578.507	1	11
578.677	1	2
578.846	1	-2
579.016	1	9
579.186	1	-4
579.356	1	5
579.526	1	4
579.696	1	2
579.866	1	-4
580.036	1	5
580.205	1	0
580.375	1	6
580.545	1	6
580.715	1	0
580.885	1	-7
581.055	1	-1
581.225	1	-2
581.394	1	1
581.564	1	-3
581.734	1	-15
581.904	1	-4
582.074	1	-1
582.244	1	8
582.414	1	-6
582.583	1	-2
582.753	1	15
582.923	1	1
583.093	1	-1
583.263	1	1
583.433	1	2
583.603	1	-2
583.772	1	1
583.942	1	2
584.112	1	-3
584.282	1	1
584.452	1	6
584.622	1	6
584.791	1	9
584.961	1	3
585.131	1	-7
585.301	1	-7
585.471	1	9
585.641	1	3
585.811	1	6
585.980	1	8
586.150	1	-5
586.320	1	0
586.490	1	6
586.660	1	-6
586.830	1	4
586.999	1	6
587.169	1	-4
587.339	1	-13
587.509	1	-4
587.679	1	7
587.849	1	1
588.018	1	19
588.188	1	8
588.358	1	4
588.528	1	4
588.698	1	-6
588.867	1	-7
589.037	1	0
589.207	1	10
589.377	1	6
589.547	1	4
589.717	1	0
589.886	1	0
590.056	1	-4
590.226	1	1
590.396	1	-1
590.566	1	3
590.735	1	10
590.905	1	-5
591.075	1	-16
591.245	1	14
591.415	1	-9
591.585	1	-15
591.754	1	11
591.924	1	5
592.094	1	1
592.264	1	-8
592.434	1	1
592.603	1	-1
592.773	1	-2
592.943	1	12
593.113	1	-6
593.283	1	1
593.452	1	-1
593.622	1	8
593.792	1	5
593.962	1	-3
594.132	1	4
594.301	1	2
594.471	1	6
594.641	1	-10
594.811	1	-5
594.981	1	-13
595.150	1	7
595.320	1	11
595.490	1	1
595.660	1	5
595.829	1	2
595.999	1	9
596.169	1	20
596.339	1	5
596.509	1	12
596.678	1	3
596.848	1	4
597.018	1	-3
597.188	1	-8
597.358	1	-16
597.527	1	-4
597.697	1	-10
597.867	1	4
598.037	1	9
598.206	1	-2
598.376	1	-2
598.546	1	-10
598.716	1	14
598.885	1	4
599.055	1	1
599.225	1	9
599.395	1	1
599.565	1	-6
599.734	1	-2
599.904	1	6
600.074	1	-2
600.244	1	10
600.413	1	-3
600.583	1	15
600.753	1	4
600.923	1	12
601.092	1	16
601.262	1	3
601.432	1	5
601.602	1	4
601.771	1	3
601.941	1	4
602.111	1	2
602.281	1	-6
602.451	1	1
602.620	1	-8
602.790	1	3
602.960	1	5
603.130	1	2
603.299	1	7
603.469	1	0
603.639	1	7
603.809	1	-5
603.978	1	-5
604.148	1	14
604.318	1	9
604.487	1	3
604.657	1	5
604.827	1	-8
604.997	1	4
605.166	1	1
605.336	1	-11
605.506	1	0
605.676	1	5
605.845	1	1
606.015	1	-3
606.185	1	-3
606.355	1	5
606.524	1	7
606.694	1	2
606.864	1	-4
607.034	1	3
607.203	1	-1
607.373	1	1
607.543	1	-1
607.712	1	-2
607.882	1	3
608.052	1	0
608.222	1	1
608.391	1	5
608.561	1	4
608.731	1	-9
608.901	1	1
609.070	1	3
609.240	1	-2
609.410	1	3
609.579	1	1
609.749	1	10
609.919	1	3
610.089	1	-4
610.258	1	-3
610.428	1	-4
610.598	1	2
610.767	1	-7
610.937	1	1
611.107	1	-6
611.277	1	12
611.446	1	-2
611.616	1	9
611.786	1	5
611.955	1	-6
612.125	1	-6
612.295	1	-1
612.465	1	-2
612.634	1	-1
612.804	1	2
612.974	1	-3
613.143	1	-3
613.313	1	-3
613.483	1	4
613.652	1	-5
613.822	1	1
613.992	1	6
614.162	1	-3
614.331	1	3
614.501	1	-2
614.671	1	-2
614.840	1	8
615.010	1	-8
615.180	1	17
615.349	1	2
615.519	1	4
615.689	1	6
615.858	1	3
616.028	1	-7
616.198	1	1
616.368	1	-7
616.537	1	-5
616.707	1	3
616.877	1	5
617.046	1	-1
617.216	1	22
617.386	1	-2
617.555	1	8
617.725	1	-9
617.895	1	13
618.064	1	-2
618.234	1	-2
618.404	1	-1
618.573	1	9
618.743	1	14
618.913	1	-5
619.082	1	8
619.252	1	8
619.422	1	-4
619.591	1	0
619.761	1	-4
619.931	1	1
620.100	1	-3
620.270	1	6
620.440	1	4
620.609	1	-8
620.779	1	3
620.949	1	10
621.118	1	-1
621.288	1	-8
621.458	1	-1
621.627	1	7
621.797	1	5
621.967	1	-1
622.136	1	9
622.306	1	-6
622.476	1	8
622.645	1	-2
622.815	1	-11
622.985	1	-4
623.154	1	-9
623.324	1	6
623.494	1	10
623.663	1	14
623.833	1	-6
624.002	1	0
624.172	1	4
624.342	1	7
624.511	1	5
624.681	1	-8
624.851	1	1
625.020	1	15
625.190	1	-6
625.360	1	-1
625.529	1	-2
625.699	1	4
625.869	1	-9
626.038	1	-4
626.208	1	-8
626.377	1	4
626.547	1	7
626.717	1	2
626.886	1	-1
627.056	1	0
627.226	1	0
627.395	1	-2
627.565	1	-2
627.735	1	1
627.904	1	13
628.074	1	6
628.243	1	6
628.413	1	1
628.583	1	0
628.752	1	-2
628.922	1	6
629.091	1	-6
629.261	1	0
629.431	1	0
629.600	1	-12
629.770	1	-2
629.940	1	-7
630.109	1	-5
630.279	1	5
630.448	1	7
630.618	1	3
630.788	1	-4
630.957	1	11
631.127	1	6
631.297	1	5
631.466	1	4
631.636	1	-5
631.805	1	3
631.975	1	8
632.145	1	1
632.314	1	3
632.484	1	4
632.653	1	-2
632.823	1	1
632.993	1	5
633.162	1	3
633.332	1	6
633.501	1	-11
633.671	1	5
633.841	1	-1
634.010	1	6
634.180	1	-1
634.349	1	2
634.519	1	3
634.689	1	-5
634.858	1	-3
635.028	1	4
635.197	1	10
635.367	1	-4
635.537	1	-12
635.706	1	7
635.876	1	3
636.045	1	-4
636.215	1	-4
636.384	1	3
636.554	1	11
636.724	1	-1
636.893	1	0
637.063	1	6
637.232	1	18
637.402	1	-2
637.572	1	5
637.741	1	-8
637.911	1	-6
638.080	1	2
638.250	1	7
638.419	1	-2
638.589	1	0
638.759	1	12
638.928	1	7
639.098	1	5
639.267	1	-6
639.437	1	2
639.606	1	-2
639.776	1	-9
639.946	1	-3
640.115	1	5
640.285	1	0
640.454	1	2
640.624	1	9
640.793	1	-3
640.963	1	-5
641.132	1	6
641.302	1	0
641.472	1	-9
641.641	1	-6
641.811	1	-7
641.980	1	4
642.150	1	5
642.319	1	4
642.489	1	3
642.659	1	-3
642.828	1	-8
642.998	1	-9
643.167	1	5
643.337	1	-8
643.506	1	4
643.676	1	-3
643.845	1	4
644.015	1	8
644.184	1	-7
644.354	1	0
644.524	1	1
644.693	1	0
644.863	1	7
645.032	1	-3
645.202	1	2
645.371	1	-11
645.541	1	7
645.710	1	2
645.880	1	1
646.049	1	-5
646.219	1	7
646.388	1	-1
646.558	1	8
646.728	1	1
646.897	1	6
647.067	1	5
647.236	1	-6
647.406	1	0
647.575	1	3
647.745	1	3
647.914	1	-2
648.084	1	2
648.253	1	2
648.423	1	-3
648.592	1	-12
648.762	1	4
648.931	1	3
649.101	1	-1
649.270	1	-6
649.440	1	-5
649.610	1	-1
649.779	1	0
649.949	1	-5
650.118	1	-5
650.288	1	3
650.457	1	-1
650.627	1	-5
650.796	1	-10
650.966	1	-7
651.135	1	2
651.305	1	4
651.474	1	-6
651.644	1	-5
651.813	1	5
651.983	1	13
652.152	1	7
652.322	1	-10
652.491	1	-2
652.661	1	-4
652.830	1	3
653.000	1	-5
653.169	1	-6
653.339	1	1
653.508	1	3
653.678	1	-7
653.847	1	5
654.017	1	7
654.186	1	8
654.356	1	-2
654.525	1	1
654.695	1	4
654.864	1	7
655.034	1	3
655.203	1	-13
655.373	1	-5
655.542	1	0
655.712	1	-2
655.881	1	11
656.051	1	9
656.220	1	-5
656.390	1	9
656.559	1	4
656.729	1	-3
656.898	1	5
657.068	1	-8
657.237	1	6
657.406	1	-8
657.576	1	-5
657.745	1	6
657.915	1	3
658.084	1	11
658.254	1	5
658.423	1	2
658.593	1	-6
658.762	1	8
658.932	1	-12
659.101	1	-7
659.271	1	-1
659.440	1	-5
659.610	1	11
659.779	1	11
659.949	1	2
660.118	1	-1
660.288	1	-4
660.457	1	8
660.626	1	4
660.796	1	-9
660.965	1	0
661.135	1	2
661.304	1	1
661.474	1	-2
661.643	1	2
661.813	1	3
661.982	1	-7
662.152	1	2
662.321	1	-4
662.491	1	1
662.660	1	-5
662.829	1	-2
662.999	1	4
663.168	1	3
663.338	1	1
663.507	1	-6
663.677	1	-6
663.846	1	-5
664.016	1	3
664.185	1	0
664.354	1	-4
664.524	1	-11
664.693	1	0
664.863	1	0
665.032	1	7
665.202	1	-11
665.371	1	-3
665.541	1	-6
665.710	1	4
665.879	1	3
666.049	1	-8
666.218	1	-5
666.388	1	8
666.557	1	10
666.727	1	-2
666.896	1	7
667.065	1	9
667.235	1	3
667.404	1	0
667.574	1	3
667.743	1	10
667.913	1	-4
668.082	1	-4
668.251	1	12
668.421	1	-2
668.590	1	-2
668.760	1	-2
668.929	1	-4
669.099	1	10
669.268	1	6
669.437	1	-6
669.607	1	-1
669.776	1	-3
669.946	1	-10
670.115	1	1
670.285	1	-1
670.454	1	1
670.623	1	-2
670.793	1	2
670.962	1	4
671.132	1	1
671.301	1	1
671.470	1	3
671.640	1	7
671.809	1	-12
671.979	1	5
672.148	1	-1
672.317	1	10
672.487	1	-1
672.656	1	-2
672.826	1	-6
672.995	1	-2
673.164	1	10
673.334	1	-6
673.503	1	2
673.673	1	-8
673.842	1	-17
674.011	1	-4
674.181	1	5
674.350	1	6
674.520	1	4
674.689	1	-7
674.858	1	-6
675.028	1	9
675.197	1	-4
675.367	1	-8
675.536	1	5
675.705	1	-7
675.875	1	-9
676.044	1	-4
676.214	1	2
676.383	1	-1
676.552	1	0
676.722	1	4
676.891	1	-10
677.060	1	-2
677.230	1	3
677.399	1	6
677.569	1	9
677.738	1	2
677.907	1	-4
678.077	1	17
678.246	1	-8
678.416	1	-4
678.585	1	-6
678.754	1	-2
678.924	1	3
679.093	1	6
679.262	1	13
679.432	1	13
679.601	1	9
679.771	1	-9
679.940	1	3
680.109	1	3
680.279	1	0
680.448	1	-7
680.617	1	0
680.787	1	-5
680.956	1	1
681.125	1	7
681.295	1	8
681.464	1	2
681.634	1	-11
681.803	1	0
681.972	1	2
682.142	1	-5
682.311	1	-2
682.480	1	-3
682.650	1	7
682.819	1	5
682.988	1	3
683.158	1	2
683.327	1	3
683.496	1	-2
683.666	1	1
683.835	1	-7
684.004	1	3
684.174	1	-3
684.343	1	2
684.512	1	10
684.682	1	-3
684.851	1	1
685.021	1	-7
685.190	1	16
685.359	1	-7
685.529	1	-5
685.698	1	0
685.867	1	-7
686.037	1	1
686.206	1	7
686.375	1	-3
686.545	1	-6
686.714	1	-1
686.883	1	-2
687.053	1	-4
687.222	1	0
687.391	1	11
687.561	1	4
687.730	1	4
687.899	1	11
688.069	1	-15
688.238	1	-6
688.407	1	-3
688.577	1	-3
688.746	1	-5
