340.368	1	7
340.539	1	3
340.710	1	6
340.881	1	4
341.052	1	13
341.223	1	-8
341.394	1	1
341.565	1	9
341.737	1	2
341.908	1	6
342.079	1	6
342.250	1	12
342.421	1	2
342.592	1	3
342.763	1	5
342.934	1	6
343.105	1	-8
343.276	1	9
343.447	1	1
343.618	1	6
343.789	1	19
343.960	1	11
344.131	1	10
344.302	1	17
344.473	1	9
344.644	1	4
344.815	1	0
344.986	1	-5
345.157	1	6
345.328	1	6
345.499	1	8
345.670	1	5
345.841	1	5
346.012	1	11
346.183	1	-5
346.354	1	1
346.526	1	6
346.697	1	10
346.868	1	7
347.039	1	-2
347.210	1	1
347.381	1	-2
347.552	1	13
347.723	1	11
347.894	1	1
348.065	1	3
348.236	1	2
348.407	1	7
348.578	1	11
348.749	1	2
348.920	1	1
349.091	1	5
349.262	1	12
349.433	1	16
349.604	1	7
349.775	1	16
349.946	1	-2
350.117	1	13
350.288	1	18
350.459	1	1
350.630	1	3
350.801	1	10
350.972	1	6
351.143	1	12
351.314	1	5
351.485	1	2
351.656	1	14
351.827	1	9
351.998	1	16
352.169	1	11
352.340	1	0
352.511	1	6
352.682	1	14
352.853	1	14
353.024	1	19
353.195	1	4
353.366	1	11
353.537	1	16
353.708	1	5
353.879	1	14
354.050	1	12
354.221	1	11
354.392	1	9
354.563	1	26
354.734	1	4
354.905	1	18
355.076	1	10
355.247	1	15
355.418	1	14
355.589	1	19
355.760	1	11
355.931	1	16
356.102	1	14
356.273	1	24
356.444	1	19
356.615	1	19
356.785	1	13
356.956	1	30
357.127	1	21
357.298	1	29
357.469	1	23
357.640	1	27
357.811	1	36
357.982	1	30
358.153	1	24
358.324	1	31
358.495	1	33
358.666	1	30
358.837	1	28
359.008	1	33
359.179	1	31
359.350	1	41
359.521	1	38
359.692	1	44
359.863	1	35
360.034	1	41
360.205	1	46
360.376	1	41
360.547	1	52
360.718	1	57
360.889	1	55
361.060	1	60
361.231	1	49
361.401	1	54
361.572	1	65
361.743	1	71
361.914	1	59
362.085	1	76
362.256	1	62
362.427	1	75
362.598	1	70
362.769	1	93
362.940	1	62
363.111	1	87
363.282	1	100
363.453	1	110
363.624	1	97
363.795	1	108
363.966	1	120
364.137	1	123
364.308	1	134
364.478	1	134
364.649	1	148
364.820	1	159
364.991	1	152
365.162	1	156
365.333	1	175
365.504	1	160
365.675	1	179
365.846	1	196
366.017	1	190
366.188	1	212
366.359	1	203
366.530	1	230
366.701	1	221
366.871	1	239
367.042	1	249
367.213	1	262
367.384	1	254
367.555	1	272
367.726	1	270
367.897	1	272
368.068	1	280
368.239	1	272
368.410	1	284
368.581	1	271
368.752	1	277
368.923	1	279
369.093	1	279
369.264	1	271
369.435	1	256
369.606	1	272
369.777	1	268
369.948	1	261
370.119	1	244
370.290	1	247
370.461	1	242
370.632	1	240
370.803	1	246
370.973	1	242
371.144	1	231
371.315	1	225
371.486	1	195
371.657	1	201
371.828	1	200
371.999	1	200
372.170	1	192
372.341	1	196
372.512	1	182
372.682	1	178
372.853	1	167
373.024	1	175
373.195	1	159
373.366	1	151
373.537	1	162
373.708	1	158
373.879	1	147
374.050	1	153
374.220	1	139
374.391	1	128
374.562	1	139
374.733	1	138
374.904	1	119
375.075	1	120
375.246	1	123
375.417	1	125
375.588	1	119
375.758	1	129
375.929	1	109
376.100	1	111
376.271	1	122
376.442	1	97
376.613	1	108
376.784	1	95
376.955	1	99
377.125	1	110
377.296	1	91
377.467	1	94
377.638	1	89
377.809	1	94
377.980	1	92
378.151	1	65
378.321	1	81
378.492	1	68
378.663	1	78
378.834	1	71
379.005	1	67
379.176	1	75
379.347	1	81
379.518	1	81
379.688	1	56
379.859	1	60
380.030	1	81
380.201	1	64
380.372	1	53
380.543	1	50
380.714	1	70
380.884	1	51
381.055	1	52
381.226	1	55
381.397	1	62
381.568	1	59
381.739	1	60
381.910	1	39
382.080	1	49
382.251	1	54
382.422	1	49
382.593	1	49
382.764	1	48
382.935	1	47
383.105	1	50
383.276	1	51
383.447	1	44
383.618	1	52
383.789	1	52
383.960	1	42
384.130	1	42
384.301	1	49
384.472	1	36
384.643	1	35
384.814	1	41
384.985	1	43
385.156	1	49
385.326	1	33
385.497	1	39
385.668	1	27
385.839	1	28
386.010	1	43
386.180	1	43
386.351	1	33
386.522	1	45
386.693	1	44
386.864	1	29
387.035	1	33
387.205	1	16
387.376	1	25
387.547	1	40
387.718	1	28
387.889	1	38
388.060	1	36
388.230	1	24
388.401	1	39
388.572	1	21
388.743	1	33
388.914	1	33
389.084	1	16
389.255	1	28
389.426	1	27
389.597	1	11
389.768	1	35
389.939	1	25
390.109	1	26
390.280	1	31
390.451	1	10
390.622	1	31
390.793	1	28
390.963	1	26
391.134	1	18
391.305	1	23
391.476	1	31
391.647	1	16
391.817	1	24
391.988	1	19
392.159	1	14
392.330	1	12
392.501	1	21
392.671	1	13
392.842	1	16
393.013	1	13
393.184	1	16
393.355	1	7
393.525	1	15
393.696	1	23
393.867	1	24
394.038	1	22
394.208	1	5
394.379	1	22
394.550	1	11
394.721	1	17
394.892	1	10
395.062	1	13
395.233	1	5
395.404	1	17
395.575	1	24
395.746	1	15
395.916	1	12
396.087	1	19
396.258	1	22
396.429	1	17
396.599	1	13
396.770	1	13
396.941	1	13
397.112	1	11
397.283	1	15
397.453	1	14
397.624	1	9
397.795	1	13
397.966	1	14
398.136	1	22
398.307	1	11
398.478	1	16
398.649	1	18
398.819	1	5
398.990	1	7
399.161	1	10
399.332	1	12
399.503	1	16
399.673	1	9
399.844	1	9
400.015	1	1
400.186	1	6
400.356	1	11
400.527	1	2
400.698	1	12
400.869	1	5
401.039	1	9
401.210	1	16
401.381	1	21
401.552	1	6
401.722	1	4
401.893	1	10
402.064	1	7
402.235	1	8
402.405	1	-1
402.576	1	7
402.747	1	8
402.918	1	14
403.088	1	4
403.259	1	15
403.430	1	3
403.601	1	0
403.771	1	8
403.942	1	2
404.113	1	12
404.284	1	9
404.454	1	7
404.625	1	10
404.796	1	2
404.967	1	9
405.137	1	0
405.308	1	8
405.479	1	8
405.649	1	14
405.820	1	8
405.991	1	14
406.162	1	8
406.332	1	9
406.503	1	3
406.674	1	12
406.845	1	17
407.015	1	9
407.186	1	2
407.357	1	5
407.527	1	8
407.698	1	8
407.869	1	5
408.040	1	16
408.210	1	13
408.381	1	6
408.552	1	8
408.722	1	4
408.893	1	9
409.064	1	-2
409.235	1	9
409.405	1	0
409.576	1	5
409.747	1	16
409.917	1	7
410.088	1	-1
410.259	1	1
410.430	1	4
410.600	1	9
410.771	1	3
410.942	1	3
411.112	1	16
411.283	1	0
411.454	1	13
411.625	1	12
411.795	1	9
411.966	1	16
412.137	1	-5
412.307	1	14
412.478	1	4
412.649	1	11
412.819	1	6
412.990	1	12
413.161	1	2
413.332	1	4
413.502	1	2
413.673	1	11
413.844	1	10
414.014	1	5
414.185	1	2
414.356	1	-2
414.526	1	-4
414.697	1	0
414.868	1	9
415.038	1	12
415.209	1	10
415.380	1	1
415.550	1	18
415.721	1	2
415.892	1	5
416.063	1	1
416.233	1	0
416.404	1	2
416.575	1	5
416.745	1	7
416.916	1	-3
417.087	1	7
417.257	1	3
417.428	1	18
417.599	1	2
417.769	1	2
417.940	1	7
418.111	1	18
418.281	1	10
418.452	1	8
418.623	1	2
418.793	1	19
418.964	1	7
419.135	1	0
419.305	1	2
419.476	1	18
419.647	1	0
419.817	1	3
419.988	1	11
420.159	1	3
420.329	1	7
420.500	1	15
420.671	1	5
420.841	1	6
421.012	1	8
421.183	1	3
421.353	1	1
421.524	1	3
421.695	1	20
421.865	1	3
422.036	1	10
422.206	1	4
422.377	1	8
422.548	1	10
422.718	1	13
422.889	1	8
423.060	1	5
423.230	1	-2
423.401	1	6
423.572	1	25
423.742	1	2
423.913	1	5
424.084	1	-2
424.254	1	-2
424.425	1	-1
424.595	1	16
424.766	1	0
424.937	1	16
425.107	1	12
425.278	1	16
425.449	1	3
425.619	1	4
425.790	1	3
425.961	1	2
426.131	1	7
426.302	1	-4
426.472	1	-3
426.643	1	11
426.814	1	10
426.984	1	-2
427.155	1	5
427.326	1	5
427.496	1	0
427.667	1	-6
427.837	1	3
428.008	1	5
428.179	1	6
428.349	1	3
428.520	1	7
428.691	1	15
428.861	1	2
429.032	1	6
429.202	1	17
429.373	1	0
429.544	1	11
429.714	1	5
429.885	1	10
430.055	1	-3
430.226	1	3
430.397	1	9
430.567	1	4
430.738	1	1
430.909	1	-1
431.079	1	15
431.250	1	12
431.420	1	13
431.591	1	11
431.762	1	-3
431.932	1	-1
432.103	1	-7
432.273	1	19
432.444	1	3
432.615	1	6
432.785	1	5
432.956	1	3
433.126	1	14
433.297	1	-3
433.468	1	4
433.638	1	7
433.809	1	6
433.979	1	14
434.150	1	7
434.320	1	8
434.491	1	-1
434.662	1	8
434.832	1	0
435.003	1	7
435.173	1	-11
435.344	1	0
435.515	1	-7
435.685	1	0
435.856	1	10
436.026	1	4
436.197	1	10
436.368	1	11
436.538	1	4
436.709	1	-2
436.879	1	1
437.050	1	12
437.220	1	17
437.391	1	4
437.562	1	9
437.732	1	4
437.903	1	4
438.073	1	5
438.244	1	8
438.414	1	2
438.585	1	-7
438.756	1	9
438.926	1	-1
439.097	1	-2
439.267	1	8
439.438	1	2
439.608	1	1
439.779	1	5
439.949	1	9
440.120	1	-5
440.291	1	0
440.461	1	-3
440.632	1	8
440.802	1	5
440.973	1	5
441.143	1	-5
441.314	1	-2
441.485	1	17
441.655	1	4
441.826	1	4
441.996	1	-7
442.167	1	6
442.337	1	-1
442.508	1	0
442.678	1	7
442.849	1	18
443.019	1	9
443.190	1	3
443.361	1	11
443.531	1	2
443.702	1	4
443.872	1	-1
444.043	1	8
444.213	1	11
444.384	1	15
444.554	1	6
444.725	1	12
444.895	1	1
445.066	1	6
445.237	1	-3
445.407	1	4
445.578	1	13
445.748	1	-5
445.919	1	-2
446.089	1	16
446.260	1	-7
446.430	1	8
446.601	1	18
446.771	1	5
446.942	1	7
447.112	1	2
447.283	1	18
447.453	1	5
447.624	1	0
447.794	1	8
447.965	1	8
448.135	1	7
448.306	1	8
448.477	1	6
448.647	1	2
448.818	1	11
448.988	1	1
449.159	1	1
449.329	1	6
449.500	1	0
449.670	1	4
449.841	1	-4
450.011	1	9
450.182	1	14
450.352	1	5
450.523	1	1
450.693	1	-2
450.864	1	6
451.034	1	16
451.205	1	-6
451.375	1	-4
451.546	1	5
451.716	1	-2
451.887	1	8
452.057	1	-8
452.228	1	12
452.398	1	7
452.569	1	11
452.739	1	1
452.910	1	9
453.080	1	-2
453.251	1	7
453.421	1	0
453.592	1	6
453.762	1	1
453.933	1	-2
454.103	1	-5
454.274	1	9
454.444	1	4
454.615	1	11
454.785	1	11
454.956	1	8
455.126	1	2
455.297	1	2
455.467	1	5
455.638	1	-1
455.808	1	4
455.979	1	-1
456.149	1	-1
456.320	1	5
456.490	1	3
456.661	1	5
456.831	1	-5
457.001	1	17
457.172	1	-8
457.342	1	3
457.513	1	14
457.683	1	10
457.854	1	7
458.024	1	-5
458.195	1	7
458.365	1	3
458.536	1	5
458.706	1	16
458.877	1	7
459.047	1	2
459.218	1	5
459.388	1	13
459.559	1	3
459.729	1	-5
459.899	1	1
460.070	1	10
460.240	1	-2
460.411	1	2
460.581	1	14
460.752	1	5
460.922	1	3
461.093	1	7
461.263	1	7
461.434	1	12
461.604	1	6
461.775	1	-2
461.945	1	-8
462.115	1	8
462.286	1	7
462.456	1	3
462.627	1	-4
462.797	1	-1
462.968	1	17
463.138	1	7
463.309	1	3
463.479	1	2
463.649	1	10
463.820	1	4
463.990	1	5
464.161	1	-4
464.331	1	-7
464.502	1	-4
464.672	1	12
464.843	1	3
465.013	1	14
465.183	1	2
465.354	1	4
465.524	1	5
465.695	1	8
465.865	1	1
466.036	1	0
466.206	1	11
466.376	1	11
466.547	1	9
466.717	1	15
466.888	1	3
467.058	1	8
467.229	1	15
467.399	1	14
467.569	1	12
467.740	1	4
467.910	1	0
468.081	1	7
468.251	1	16
468.422	1	6
468.592	1	9
468.762	1	8
468.933	1	10
469.103	1	5
469.274	1	12
469.444	1	8
469.614	1	-6
469.785	1	3
469.955	1	-5
470.126	1	0
470.296	1	4
470.467	1	3
470.637	1	5
470.807	1	12
470.978	1	1
471.148	1	2
471.319	1	19
471.489	1	7
471.659	1	10
471.830	1	-3
472.000	1	3
472.171	1	13
472.341	1	5
472.511	1	5
472.682	1	-4
472.852	1	13
473.023	1	11
473.193	1	14
473.363	1	11
473.534	1	11
473.704	1	-1
473.875	1	8
474.045	1	19
474.215	1	8
474.386	1	-4
474.556	1	15
474.727	1	-1
474.897	1	-1
475.067	1	-1
475.238	1	13
475.408	1	5
475.578	1	7
475.749	1	7
475.919	1	9
476.090	1	10
476.260	1	7
476.430	1	8
476.601	1	1
476.771	1	13
476.942	1	-8
477.112	1	16
477.282	1	-7
477.453	1	3
477.623	1	13
477.793	1	-2
477.964	1	8
478.134	1	8
478.305	1	10
478.475	1	4
478.645	1	3
478.816	1	6
478.986	1	16
479.156	1	2
479.327	1	6
479.497	1	9
479.667	1	5
479.838	1	0
480.008	1	12
480.179	1	14
480.349	1	3
480.519	1	19
480.690	1	11
480.860	1	12
481.030	1	3
481.201	1	4
481.371	1	4
481.541	1	5
481.712	1	7
481.882	1	17
482.053	1	6
482.223	1	19
482.393	1	-3
482.564	1	7
482.734	1	17
482.904	1	11
483.075	1	-3
483.245	1	8
483.415	1	2
483.586	1	28
483.756	1	13
483.926	1	10
484.097	1	15
484.267	1	11
484.437	1	12
484.608	1	2
484.778	1	9
484.948	1	14
485.119	1	10
485.289	1	0
485.459	1	10
485.630	1	5
485.800	1	10
485.970	1	5
486.141	1	8
486.311	1	-1
486.481	1	13
486.652	1	14
486.822	1	12
486.992	1	18
487.163	1	9
487.333	1	12
487.503	1	9
487.674	1	17
487.844	1	11
488.014	1	12
488.185	1	11
488.355	1	14
488.525	1	14
488.696	1	16
488.866	1	15
489.036	1	23
489.207	1	20
489.377	1	17
489.547	1	9
489.718	1	9
489.888	1	13
490.058	1	9
490.228	1	9
490.399	1	24
490.569	1	15
490.739	1	22
490.910	1	16
491.080	1	7
491.250	1	20
491.421	1	17
491.591	1	17
491.761	1	27
491.932	1	15
492.102	1	22
492.272	1	12
492.442	1	12
492.613	1	11
492.783	1	4
492.953	1	24
493.124	1	9
493.294	1	19
493.464	1	30
493.635	1	15
493.805	1	24
493.975	1	24
494.145	1	16
494.316	1	14
494.486	1	4
494.656	1	17
494.827	1	17
494.997	1	21
495.167	1	30
495.337	1	25
495.508	1	12
495.678	1	24
495.848	1	20
496.019	1	22
496.189	1	25
496.359	1	13
496.529	1	16
496.700	1	17
496.870	1	17
497.040	1	19
497.211	1	24
497.381	1	16
497.551	1	25
497.721	1	12
497.892	1	29
498.062	1	18
498.232	1	18
498.403	1	14
498.573	1	29
498.743	1	16
498.913	1	22
499.084	1	22
499.254	1	29
499.424	1	22
499.594	1	20
499.765	1	27
499.935	1	26
500.105	1	17
500.275	1	31
500.446	1	14
500.616	1	25
500.786	1	32
500.956	1	33
501.127	1	21
501.297	1	24
501.467	1	20
501.638	1	19
501.808	1	34
501.978	1	33
502.148	1	25
502.319	1	40
502.489	1	25
502.659	1	33
502.829	1	28
503.000	1	40
503.170	1	23
503.340	1	33
503.510	1	27
503.681	1	17
503.851	1	18
504.021	1	36
504.191	1	18
504.362	1	20
504.532	1	28
504.702	1	31
504.872	1	35
505.042	1	25
505.213	1	32
505.383	1	28
505.553	1	18
505.723	1	34
505.894	1	24
506.064	1	25
506.234	1	39
506.404	1	46
506.575	1	28
506.745	1	26
506.915	1	30
507.085	1	37
507.256	1	38
507.426	1	28
507.596	1	41
507.766	1	46
507.936	1	38
508.107	1	34
508.277	1	42
508.447	1	26
508.617	1	32
508.788	1	25
508.958	1	46
509.128	1	32
509.298	1	27
509.468	1	41
509.639	1	38
509.809	1	33
509.979	1	42
510.149	1	28
510.319	1	43
510.490	1	47
510.660	1	23
510.830	1	37
511.000	1	30
511.171	1	40
511.341	1	44
511.511	1	27
511.681	1	43
511.851	1	31
512.022	1	38
512.192	1	32
512.362	1	41
512.532	1	41
512.702	1	32
512.873	1	43
513.043	1	37
513.213	1	33
513.383	1	43
513.553	1	29
513.724	1	49
513.894	1	45
514.064	1	32
514.234	1	42
514.404	1	31
514.575	1	43
514.745	1	34
514.915	1	39
515.085	1	34
515.255	1	36
515.425	1	40
515.596	1	40
515.766	1	38
515.936	1	50
516.106	1	49
516.276	1	41
516.447	1	54
516.617	1	29
516.787	1	45
516.957	1	32
517.127	1	45
517.297	1	36
517.468	1	42
517.638	1	42
517.808	1	48
517.978	1	38
518.148	1	49
518.319	1	34
518.489	1	45
518.659	1	52
518.829	1	47
518.999	1	41
519.169	1	32
519.340	1	34
519.510	1	26
519.680	1	34
519.850	1	49
520.020	1	41
520.190	1	48
520.361	1	37
520.531	1	38
520.701	1	56
520.871	1	44
521.041	1	42
521.211	1	42
521.382	1	39
521.552	1	51
521.722	1	47
521.892	1	45
522.062	1	48
522.232	1	34
522.402	1	47
522.573	1	46
522.743	1	39
522.913	1	37
523.083	1	50
523.253	1	32
523.423	1	50
523.593	1	40
523.764	1	55
523.934	1	46
524.104	1	51
524.274	1	48
524.444	1	42
524.614	1	48
524.784	1	45
524.955	1	37
525.125	1	49
525.295	1	42
525.465	1	53
525.635	1	48
525.805	1	45
525.975	1	43
526.146	1	45
526.316	1	52
526.486	1	52
526.656	1	53
526.826	1	56
526.996	1	57
527.166	1	39
527.337	1	53
527.507	1	49
527.677	1	51
527.847	1	46
528.017	1	54
528.187	1	47
528.357	1	52
528.527	1	40
528.698	1	43
528.868	1	53
529.038	1	33
529.208	1	58
529.378	1	43
529.548	1	54
529.718	1	51
529.888	1	54
530.058	1	54
530.229	1	47
530.399	1	56
530.569	1	48
530.739	1	40
530.909	1	54
531.079	1	37
531.249	1	59
531.419	1	47
531.589	1	64
531.760	1	56
531.930	1	45
532.100	1	58
532.270	1	54
532.440	1	38
532.610	1	51
532.780	1	51
532.950	1	32
533.120	1	44
533.290	1	50
533.461	1	40
533.631	1	61
533.801	1	54
533.971	1	48
534.141	1	48
534.311	1	48
534.481	1	34
534.651	1	49
534.821	1	40
534.991	1	44
535.162	1	37
535.332	1	53
535.502	1	49
535.672	1	43
535.842	1	34
536.012	1	44
536.182	1	39
536.352	1	46
536.522	1	44
536.692	1	31
536.862	1	51
537.032	1	37
537.203	1	39
537.373	1	40
537.543	1	41
537.713	1	48
537.883	1	43
538.053	1	42
538.223	1	40
538.393	1	45
538.563	1	43
538.733	1	32
538.903	1	43
539.073	1	50
539.243	1	46
539.413	1	34
539.584	1	49
539.754	1	43
539.924	1	38
540.094	1	48
540.264	1	45
540.434	1	46
540.604	1	55
540.774	1	39
540.944	1	43
541.114	1	38
541.284	1	47
541.454	1	42
541.624	1	44
541.794	1	42
541.964	1	43
542.134	1	40
542.305	1	38
542.475	1	51
542.645	1	49
542.815	1	44
542.985	1	42
543.155	1	61
543.325	1	36
543.495	1	40
543.665	1	47
543.835	1	54
544.005	1	39
544.175	1	46
544.345	1	56
544.515	1	49
544.685	1	55
544.855	1	34
545.025	1	51
545.195	1	41
545.365	1	44
545.535	1	53
545.705	1	39
545.875	1	53
546.045	1	39
546.216	1	54
546.386	1	48
546.556	1	43
546.726	1	59
546.896	1	50
547.066	1	55
547.236	1	42
547.406	1	46
547.576	1	49
547.746	1	40
547.916	1	36
548.086	1	47
548.256	1	50
548.426	1	47
548.596	1	44
548.766	1	40
548.936	1	46
549.106	1	49
549.276	1	36
549.446	1	38
549.616	1	44
549.786	1	54
549.956	1	54
550.126	1	46
550.296	1	48
550.466	1	41
550.636	1	53
550.806	1	58
550.976	1	48
551.146	1	49
551.316	1	47
551.486	1	46
551.656	1	32
551.826	1	42
551.996	1	44
552.166	1	51
552.336	1	50
552.506	1	46
552.676	1	33
552.846	1	42
553.016	1	50
553.186	1	43
553.356	1	47
553.526	1	36
553.696	1	43
553.866	1	47
554.036	1	53
554.206	1	46
554.376	1	25
554.546	1	44
554.716	1	42
554.886	1	44
555.056	1	51
555.226	1	31
555.396	1	36
555.566	1	33
555.736	1	39
555.906	1	40
556.076	1	47
556.246	1	43
556.416	1	38
556.586	1	31
556.756	1	45
556.926	1	33
557.096	1	43
557.266	1	32
557.436	1	33
557.606	1	38
557.776	1	38
557.946	1	22
558.116	1	30
558.286	1	31
558.456	1	45
558.626	1	46
558.796	1	48
558.966	1	40
559.136	1	35
559.306	1	44
559.476	1	40
559.646	1	47
559.816	1	48
559.986	1	28
560.155	1	31
560.325	1	46
560.495	1	42
560.665	1	45
560.835	1	40
561.005	1	32
561.175	1	43
561.345	1	42
561.515	1	36
561.685	1	41
561.855	1	35
562.025	1	42
562.195	1	36
562.365	1	44
562.535	1	40
562.705	1	39
562.875	1	36
563.045	1	47
563.215	1	27
563.385	1	40
563.555	1	35
563.725	1	36
563.895	1	39
564.064	1	36
564.234	1	40
564.404	1	29
564.574	1	33
564.744	1	25
564.914	1	37
565.084	1	25
565.254	1	37
565.424	1	36
565.594	1	38
565.764	1	37
565.934	1	32
566.104	1	44
566.274	1	37
566.444	1	30
566.614	1	31
566.783	1	31
566.953	1	36
567.123	1	45
567.293	1	31
567.463	1	36
567.633	1	38
567.803	1	45
567.973	1	52
568.143	1	33
568.313	1	34
568.483	1	37
568.653	1	39
568.823	1	27
568.993	1	36
569.162	1	37
569.332	1	43
569.502	1	50
569.672	1	40
569.842	1	37
570.012	1	32
570.182	1	40
570.352	1	28
570.522	1	35
570.692	1	26
570.862	1	24
571.031	1	26
571.201	1	40
571.371	1	21
571.541	1	42
571.711	1	28
571.881	1	21
572.051	1	25
572.221	1	31
572.391	1	31
572.561	1	38
572.731	1	25
572.900	1	44
573.070	1	24
573.240	1	41
573.410	1	34
573.580	1	47
573.750	1	32
573.920	1	26
574.090	1	35
574.260	1	24
574.430	1	33
574.599	1	36
574.769	1	32
574.939	1	32
575.109	1	23
575.279	1	37
575.449	1	39
575.619	1	21
575.789	1	41
575.959	1	27
576.128	1	33
576.298	1	30
576.468	1	33
576.638	1	37
576.808	1	40
576.978	1	30
577.148	1	46
577.318	1	35
577.487	1	38
577.657	1	31
577.827	1	29
577.997	1	31
578.167	1	32
578.337	1	57
578.507	1	32
578.677	1	30
578.846	1	31
579.016	1	33
579.186	1	35
579.356	1	31
579.526	1	27
579.696	1	36
579.866	1	27
580.036	1	20
580.205	1	31
580.375	1	34
580.545	1	29
580.715	1	25
580.885	1	32
581.055	1	39
581.225	1	25
581.394	1	38
581.564	1	28
581.734	1	30
581.904	1	27
582.074	1	34
582.244	1	45
582.414	1	28
582.583	1	29
582.753	1	34
582.923	1	28
583.093	1	35
583.263	1	31
583.433	1	16
583.603	1	32
583.772	1	31
583.942	1	26
584.112	1	32
584.282	1	37
584.452	1	32
584.622	1	28
584.791	1	34
584.961	1	28
585.131	1	14
585.301	1	25
585.471	1	42
585.641	1	27
585.811	1	32
585.980	1	33
586.150	1	17
586.320	1	21
586.490	1	27
586.660	1	18
586.830	1	28
586.999	1	32
587.169	1	26
587.339	1	28
587.509	1	26
587.679	1	23
587.849	1	26
588.018	1	38
588.188	1	24
588.358	1	31
588.528	1	17
588.698	1	16
588.867	1	26
589.037	1	22
589.207	1	25
589.377	1	26
589.547	1	23
589.717	1	24
589.886	1	17
590.056	1	20
590.226	1	20
590.396	1	17
590.566	1	15
590.735	1	34
590.905	1	19
591.075	1	11
591.245	1	34
591.415	1	24
591.585	1	28
591.754	1	29
591.924	1	22
592.094	1	22
592.264	1	21
592.434	1	12
592.603	1	28
592.773	1	7
592.943	1	27
593.113	1	22
593.283	1	21
593.452	1	26
593.622	1	15
593.792	1	23
593.962	1	21
594.132	1	12
594.301	1	27
594.471	1	16
594.641	1	21
594.811	1	18
594.981	1	14
595.150	1	19
595.320	1	28
595.490	1	25
595.660	1	22
595.829	1	24
595.999	1	21
596.169	1	27
596.339	1	23
596.509	1	27
596.678	1	23
596.848	1	16
597.018	1	23
597.188	1	21
597.358	1	14
597.527	1	28
597.697	1	24
597.867	1	18
598.037	1	17
598.206	1	18
598.376	1	11
598.546	1	16
598.716	1	21
598.885	1	25
599.055	1	16
599.225	1	22
599.395	1	15
599.565	1	11
599.734	1	26
599.904	1	19
600.074	1	16
600.244	1	26
600.413	1	10
600.583	1	33
600.753	1	28
600.923	1	36
601.092	1	16
601.262	1	26
601.432	1	26
601.602	1	19
601.771	1	22
601.941	1	24
602.111	1	21
602.281	1	26
602.451	1	21
602.620	1	18
602.790	1	28
602.960	1	16
603.130	1	19
603.299	1	29
603.469	1	27
603.639	1	22
603.809	1	27
603.978	1	22
604.148	1	15
604.318	1	38
604.487	1	11
604.657	1	17
604.827	1	28
604.997	1	31
605.166	1	20
605.336	1	19
605.506	1	16
605.676	1	26
605.845	1	22
606.015	1	16
606.185	1	20
606.355	1	26
606.524	1	34
606.694	1	22
606.864	1	4
607.034	1	28
607.203	1	22
607.373	1	20
607.543	1	23
607.712	1	23
607.882	1	16
608.052	1	28
608.222	1	16
608.391	1	19
608.561	1	18
608.731	1	12
608.901	1	23
609.070	1	29
609.240	1	22
609.410	1	25
609.579	1	8
609.749	1	22
609.919	1	10
610.089	1	17
610.258	1	14
610.428	1	25
610.598	1	22
610.767	1	17
610.937	1	4
611.107	1	24
611.277	1	29
611.446	1	12
611.616	1	23
611.786	1	19
611.955	1	4
612.125	1	13
612.295	1	19
612.465	1	26
612.634	1	23
612.804	1	13
612.974	1	13
613.143	1	20
613.313	1	24
613.483	1	29
613.652	1	18
613.822	1	11
613.992	1	20
614.162	1	20
614.331	1	20
614.501	1	8
614.671	1	20
614.840	1	23
615.010	1	23
615.180	1	18
615.349	1	16
615.519	1	16
615.689	1	21
615.858	1	16
616.028	1	15
616.198	1	20
616.368	1	20
616.537	1	28
616.707	1	17
616.877	1	13
617.046	1	18
617.216	1	25
617.386	1	20
617.555	1	15
617.725	1	5
617.895	1	21
618.064	1	11
618.234	1	17
618.404	1	24
618.573	1	21
618.743	1	28
618.913	1	15
619.082	1	13
619.252	1	19
619.422	1	16
619.591	1	11
619.761	1	24
619.931	1	17
620.100	1	9
620.270	1	5
620.440	1	14
620.609	1	7
620.779	1	14
620.949	1	19
621.118	1	24
621.288	1	19
621.458	1	26
621.627	1	13
621.797	1	16
621.967	1	21
622.136	1	20
622.306	1	-1
622.476	1	8
622.645	1	7
622.815	1	16
622.985	1	15
623.154	1	6
623.324	1	22
623.494	1	30
623.663	1	17
623.833	1	14
624.002	1	21
624.172	1	20
624.342	1	13
624.511	1	19
624.681	1	8
624.851	1	19
625.020	1	26
625.190	1	0
625.360	1	15
625.529	1	11
625.699	1	20
625.869	1	13
626.038	1	7
626.208	1	11
626.377	1	21
626.547	1	15
626.717	1	19
626.886	1	21
627.056	1	7
627.226	1	6
627.395	1	15
627.565	1	13
627.735	1	19
627.904	1	33
628.074	1	16
628.243	1	14
628.413	1	26
628.583	1	22
628.752	1	8
628.922	1	13
629.091	1	15
629.261	1	19
629.431	1	11
629.600	1	6
629.770	1	16
629.940	1	12
630.109	1	6
630.279	1	20
630.448	1	20
630.618	1	17
630.788	1	7
630.957	1	12
631.127	1	21
631.297	1	22
631.466	1	16
631.636	1	13
631.805	1	21
631.975	1	19
632.145	1	13
632.314	1	9
632.484	1	19
632.653	1	8
632.823	1	14
632.993	1	18
633.162	1	6
633.332	1	9
633.501	1	7
633.671	1	10
633.841	1	-1
634.010	1	21
634.180	1	0
634.349	1	21
634.519	1	20
634.689	1	13
634.858	1	17
635.028	1	10
635.197	1	8
635.367	1	4
635.537	1	15
635.706	1	19
635.876	1	5
636.045	1	7
636.215	1	13
636.384	1	8
636.554	1	17
636.724	1	12
636.893	1	12
637.063	1	19
637.232	1	21
637.402	1	16
637.572	1	19
637.741	1	14
637.911	1	10
638.080	1	15
638.250	1	12
638.419	1	13
638.589	1	9
638.759	1	6
638.928	1	25
639.098	1	18
639.267	1	5
639.437	1	13
639.606	1	14
639.776	1	11
639.946	1	14
640.115	1	5
640.285	1	20
640.454	1	10
640.624	1	27
640.793	1	16
640.963	1	8
641.132	1	13
641.302	1	13
641.472	1	17
641.641	1	11
641.811	1	10
641.980	1	9
642.150	1	18
642.319	1	13
642.489	1	10
642.659	1	3
642.828	1	22
642.998	1	3
643.167	1	13
643.337	1	2
643.506	1	17
643.676	1	3
643.845	1	9
644.015	1	4
644.184	1	7
644.354	1	10
644.524	1	17
644.693	1	14
644.863	1	13
645.032	1	10
645.202	1	17
645.371	1	7
645.541	1	7
645.710	1	18
645.880	1	22
646.049	1	13
646.219	1	20
646.388	1	8
646.558	1	19
646.728	1	13
646.897	1	24
647.067	1	16
647.236	1	8
647.406	1	13
647.575	1	13
647.745	1	18
647.914	1	13
648.084	1	11
648.253	1	8
648.423	1	9
648.592	1	7
648.762	1	6
648.931	1	21
649.101	1	4
649.270	1	14
649.440	1	15
649.610	1	15
649.779	1	14
649.949	1	12
650.118	1	7
650.288	1	11
650.457	1	15
650.627	1	5
650.796	1	-11
650.966	1	11
651.135	1	13
651.305	1	2
651.474	1	15
651.644	1	1
651.813	1	15
651.983	1	17
652.152	1	15
652.322	1	4
652.491	1	11
652.661	1	21
652.830	1	16
653.000	1	14
653.169	1	11
653.339	1	21
653.508	1	19
653.678	1	6
653.847	1	13
654.017	1	7
654.186	1	10
654.356	1	15
654.525	1	13
654.695	1	11
654.864	1	9
655.034	1	1
655.203	1	6
655.373	1	8
655.542	1	9
655.712	1	5
655.881	1	3
656.051	1	7
656.220	1	4
656.390	1	15
656.559	1	2
656.729	1	10
656.898	1	12
657.068	1	13
657.237	1	9
657.406	1	3
657.576	1	8
657.745	1	17
657.915	1	4
658.084	1	14
658.254	1	19
658.423	1	14
658.593	1	3
658.762	1	18
658.932	1	7
659.101	1	5
659.271	1	14
659.440	1	9
659.610	1	18
659.779	1	19
659.949	1	15
660.118	1	11
660.288	1	0
660.457	1	18
660.626	1	25
660.796	1	0
660.965	1	6
661.135	1	12
661.304	1	7
661.474	1	11
661.643	1	16
661.813	1	15
661.982	1	11
662.152	1	-2
662.321	1	0
662.491	1	10
662.660	1	7
662.829	1	3
662.999	1	16
663.168	1	11
663.338	1	13
663.507	1	3
663.677	1	-4
663.846	1	6
664.016	1	11
664.185	1	10
664.354	1	12
664.524	1	5
664.693	1	22
664.863	1	3
665.032	1	28
665.202	1	15
665.371	1	12
665.541	1	7
665.710	1	6
665.879	1	14
666.049	1	5
666.218	1	1
666.388	1	24
666.557	1	14
666.727	1	5
666.896	1	16
667.065	1	16
667.235	1	4
667.404	1	10
667.574	1	13
667.743	1	13
667.913	1	5
668.082	1	17
668.251	1	24
668.421	1	5
668.590	1	12
668.760	1	0
668.929	1	6
669.099	1	13
669.268	1	13
669.437	1	11
669.607	1	10
669.776	1	10
669.946	1	6
670.115	1	8
670.285	1	16
670.454	1	12
670.623	1	10
670.793	1	11
670.962	1	18
671.132	1	7
671.301	1	9
671.470	1	21
671.640	1	12
671.809	1	-1
671.979	1	7
672.148	1	8
672.317	1	8
672.487	1	8
672.656	1	16
672.826	1	10
672.995	1	10
673.164	1	33
673.334	1	14
673.503	1	19
673.673	1	5
673.842	1	-3
674.011	1	-5
674.181	1	20
674.350	1	10
674.520	1	20
674.689	1	13
674.858	1	1
675.028	1	18
675.197	1	16
675.367	1	2
675.536	1	28
675.705	1	0
675.875	1	4
676.044	1	3
676.214	1	10
676.383	1	15
676.552	1	7
676.722	1	6
676.891	1	7
677.060	1	7
677.230	1	12
677.399	1	14
677.569	1	17
677.738	1	8
677.907	1	9
678.077	1	27
678.246	1	5
678.416	1	10
678.585	1	12
678.754	1	19
678.924	1	14
679.093	1	15
679.262	1	27
679.432	1	17
679.601	1	25
679.771	1	11
679.940	1	4
680.109	1	13
680.279	1	5
680.448	1	11
680.617	1	15
680.787	1	6
680.956	1	10
681.125	1	17
681.295	1	15
681.464	1	5
681.634	1	8
681.803	1	11
681.972	1	18
682.142	1	7
682.311	1	13
682.480	1	10
682.650	1	8
682.819	1	14
682.988	1	12
683.158	1	18
683.327	1	18
683.496	1	0
683.666	1	9
683.835	1	4
684.004	1	10
684.174	1	12
684.343	1	2
684.512	1	10
684.682	1	11
684.851	1	16
685.021	1	13
685.190	1	22
685.359	1	5
685.529	1	6
685.698	1	3
685.867	1	12
686.037	1	14
686.206	1	7
686.375	1	12
686.545	1	8
686.714	1	3
686.883	1	11
687.053	1	6
687.222	1	9
687.391	1	16
687.561	1	20
687.730	1	11
687.899	1	15
688.069	1	-2
688.238	1	19
688.407	1	14
688.577	1	16
688.746	1	4
