340.368	1	10
340.539	1	10
340.710	1	3
340.881	1	-3
341.052	1	16
341.223	1	-7
341.394	1	-7
341.565	1	3
341.737	1	13
341.908	1	9
342.079	1	9
342.250	1	11
342.421	1	1
342.592	1	1
342.763	1	7
342.934	1	8
343.105	1	-3
343.276	1	-6
343.447	1	7
343.618	1	14
343.789	1	21
343.960	1	10
344.131	1	11
344.302	1	16
344.473	1	11
344.644	1	5
344.815	1	-2
344.986	1	0
345.157	1	8
345.328	1	-1
345.499	1	13
345.670	1	8
345.841	1	3
346.012	1	12
346.183	1	2
346.354	1	3
346.526	1	12
346.697	1	0
346.868	1	8
347.039	1	3
347.210	1	-1
347.381	1	5
347.552	1	8
347.723	1	8
347.894	1	-9
348.065	1	-7
348.236	1	1
348.407	1	17
348.578	1	6
348.749	1	-4
348.920	1	3
349.091	1	6
349.262	1	11
349.433	1	8
349.604	1	4
349.775	1	10
349.946	1	3
350.117	1	12
350.288	1	3
350.459	1	7
350.630	1	6
350.801	1	10
350.972	1	14
351.143	1	8
351.314	1	10
351.485	1	9
351.656	1	11
351.827	1	-2
351.998	1	8
352.169	1	8
352.340	1	12
352.511	1	12
352.682	1	9
352.853	1	14
353.024	1	14
353.195	1	9
353.366	1	4
353.537	1	15
353.708	1	2
353.879	1	6
354.050	1	18
354.221	1	11
354.392	1	17
354.563	1	25
354.734	1	-2
354.905	1	19
355.076	1	13
355.247	1	16
355.418	1	21
355.589	1	15
355.760	1	6
355.931	1	18
356.102	1	18
356.273	1	27
356.444	1	17
356.615	1	21
356.785	1	23
356.956	1	24
357.127	1	14
357.298	1	25
357.469	1	19
357.640	1	23
357.811	1	20
357.982	1	24
358.153	1	18
358.324	1	34
358.495	1	25
358.666	1	35
358.837	1	34
359.008	1	21
359.179	1	35
359.350	1	42
359.521	1	31
359.692	1	45
359.863	1	31
360.034	1	46
360.205	1	48
360.376	1	53
360.547	1	47
360.718	1	53
360.889	1	54
361.060	1	48
361.231	1	58
361.401	1	64
361.572	1	64
361.743	1	61
361.914	1	67
362.085	1	62
362.256	1	69
362.427	1	75
362.598	1	72
362.769	1	83
362.940	1	61
363.111	1	81
363.282	1	101
363.453	1	99
363.624	1	97
363.795	1	100
363.966	1	113
364.137	1	113
364.308	1	132
364.478	1	124
364.649	1	137
364.820	1	132
364.991	1	143
365.162	1	159
365.333	1	159
365.504	1	167
365.675	1	169
365.846	1	179
366.017	1	179
366.188	1	198
366.359	1	197
366.530	1	218
366.701	1	210
366.871	1	214
367.042	1	230
367.213	1	222
367.384	1	232
367.555	1	254
367.726	1	248
367.897	1	250
368.068	1	247
368.239	1	265
368.410	1	260
368.581	1	250
368.752	1	243
368.923	1	264
369.093	1	250
369.264	1	269
369.435	1	257
369.606	1	251
369.777	1	227
369.948	1	247
370.119	1	232
370.290	1	243
370.461	1	230
370.632	1	225
370.803	1	230
370.973	1	230
371.144	1	204
371.315	1	202
371.486	1	201
371.657	1	184
371.828	1	192
371.999	1	171
372.170	1	182
372.341	1	181
372.512	1	178
372.682	1	167
372.853	1	155
373.024	1	161
373.195	1	156
373.366	1	155
373.537	1	147
373.708	1	145
373.879	1	154
374.050	1	150
374.220	1	125
374.391	1	125
374.562	1	139
374.733	1	114
374.904	1	110
375.075	1	109
375.246	1	121
375.417	1	112
375.588	1	96
375.758	1	107
375.929	1	101
376.100	1	101
376.271	1	103
376.442	1	96
376.613	1	100
376.784	1	103
376.955	1	95
377.125	1	89
377.296	1	90
377.467	1	89
377.638	1	87
377.809	1	80
377.980	1	87
378.151	1	77
378.321	1	83
378.492	1	75
378.663	1	72
378.834	1	67
379.005	1	75
379.176	1	69
379.347	1	70
379.518	1	83
379.688	1	62
379.859	1	64
380.030	1	66
380.201	1	57
380.372	1	54
380.543	1	55
380.714	1	59
380.884	1	62
381.055	1	53
381.226	1	55
381.397	1	55
381.568	1	55
381.739	1	45
381.910	1	53
382.080	1	51
382.251	1	51
382.422	1	49
382.593	1	53
382.764	1	38
382.935	1	49
383.105	1	35
383.276	1	54
383.447	1	38
383.618	1	44
383.789	1	49
383.960	1	33
384.130	1	45
384.301	1	51
384.472	1	31
384.643	1	28
384.814	1	38
384.985	1	44
385.156	1	42
385.326	1	42
385.497	1	30
385.668	1	33
385.839	1	37
386.010	1	36
386.180	1	26
386.351	1	25
386.522	1	42
386.693	1	31
386.864	1	37
387.035	1	33
387.205	1	19
387.376	1	29
387.547	1	41
387.718	1	29
387.889	1	31
388.060	1	31
388.230	1	36
388.401	1	33
388.572	1	24
388.743	1	39
388.914	1	34
389.084	1	13
389.255	1	28
389.426	1	19
389.597	1	16
389.768	1	43
389.939	1	24
390.109	1	21
390.280	1	38
390.451	1	14
390.622	1	19
390.793	1	28
390.963	1	24
391.134	1	17
391.305	1	23
391.476	1	20
391.647	1	16
391.817	1	24
391.988	1	21
392.159	1	19
392.330	1	15
392.501	1	15
392.671	1	8
392.842	1	19
393.013	1	17
393.184	1	12
393.355	1	7
393.525	1	23
393.696	1	22
393.867	1	13
394.038	1	13
394.208	1	11
394.379	1	14
394.550	1	11
394.721	1	11
394.892	1	13
395.062	1	19
395.233	1	12
395.404	1	13
395.575	1	22
395.746	1	19
395.916	1	21
396.087	1	13
396.258	1	10
396.429	1	11
396.599	1	7
396.770	1	12
396.941	1	17
397.112	1	6
397.283	1	23
397.453	1	10
397.624	1	17
397.795	1	18
397.966	1	20
398.136	1	17
398.307	1	16
398.478	1	18
398.649	1	20
398.819	1	6
398.990	1	11
399.161	1	12
399.332	1	4
399.503	1	26
399.673	1	10
399.844	1	6
400.015	1	-7
400.186	1	8
400.356	1	13
400.527	1	4
400.698	1	14
400.869	1	3
401.039	1	13
401.210	1	13
401.381	1	7
401.552	1	5
401.722	1	-1
401.893	1	11
402.064	1	11
402.235	1	2
402.405	1	0
402.576	1	14
402.747	1	16
402.918	1	6
403.088	1	11
403.259	1	14
403.430	1	6
403.601	1	8
403.771	1	11
403.942	1	14
404.113	1	11
404.284	1	3
404.454	1	10
404.625	1	7
404.796	1	8
404.967	1	9
405.137	1	-3
405.308	1	6
405.479	1	12
405.649	1	19
405.820	1	15
405.991	1	8
406.162	1	23
406.332	1	9
406.503	1	-1
406.674	1	13
406.845	1	19
407.015	1	15
407.186	1	-2
407.357	1	4
407.527	1	5
407.698	1	9
407.869	1	1
408.040	1	6
408.210	1	14
408.381	1	8
408.552	1	13
408.722	1	5
408.893	1	9
409.064	1	6
409.235	1	7
409.405	1	6
409.576	1	0
409.747	1	12
409.917	1	10
410.088	1	10
410.259	1	3
410.430	1	7
410.600	1	4
410.771	1	5
410.942	1	4
411.112	1	10
411.283	1	3
411.454	1	15
411.625	1	2
411.795	1	10
411.966	1	11
412.137	1	-3
412.307	1	10
412.478	1	8
412.649	1	6
412.819	1	10
412.990	1	3
413.161	1	2
413.332	1	13
413.502	1	7
413.673	1	7
413.844	1	4
414.014	1	6
414.185	1	6
414.356	1	2
414.526	1	-6
414.697	1	4
414.868	1	0
415.038	1	9
415.209	1	3
415.380	1	8
415.550	1	14
415.721	1	3
415.892	1	0
416.063	1	6
416.233	1	17
416.404	1	0
416.575	1	3
416.745	1	3
416.916	1	5
417.087	1	2
417.257	1	5
417.428	1	12
417.599	1	6
417.769	1	4
417.940	1	0
418.111	1	11
418.281	1	22
418.452	1	6
418.623	1	-2
418.793	1	21
418.964	1	-2
419.135	1	5
419.305	1	7
419.476	1	15
419.647	1	-5
419.817	1	2
419.988	1	14
420.159	1	6
420.329	1	11
420.500	1	13
420.671	1	1
420.841	1	4
421.012	1	16
421.183	1	4
421.353	1	5
421.524	1	-1
421.695	1	8
421.865	1	-5
422.036	1	14
422.206	1	7
422.377	1	10
422.548	1	5
422.718	1	12
422.889	1	13
423.060	1	0
423.230	1	13
423.401	1	5
423.572	1	13
423.742	1	6
423.913	1	1
424.084	1	-1
424.254	1	-1
424.425	1	0
424.595	1	17
424.766	1	3
424.937	1	16
425.107	1	20
425.278	1	11
425.449	1	7
425.619	1	-1
425.790	1	0
425.961	1	3
426.131	1	6
426.302	1	9
426.472	1	-5
426.643	1	14
426.814	1	15
426.984	1	-4
427.155	1	13
427.326	1	0
427.496	1	0
427.667	1	-6
427.837	1	-6
428.008	1	0
428.179	1	0
428.349	1	5
428.520	1	6
428.691	1	15
428.861	1	9
429.032	1	10
429.202	1	10
429.373	1	3
429.544	1	1
429.714	1	-1
429.885	1	6
430.055	1	1
430.226	1	9
430.397	1	7
430.567	1	2
430.738	1	0
430.909	1	7
431.079	1	17
431.250	1	12
431.420	1	21
431.591	1	14
431.762	1	6
431.932	1	-3
432.103	1	-2
432.273	1	13
432.444	1	0
432.615	1	11
432.785	1	3
432.956	1	4
433.126	1	8
433.297	1	-4
433.468	1	-5
433.638	1	4
433.809	1	9
433.979	1	2
434.150	1	9
434.320	1	12
434.491	1	4
434.662	1	10
434.832	1	6
435.003	1	-2
435.173	1	-7
435.344	1	-1
435.515	1	1
435.685	1	0
435.856	1	15
436.026	1	1
436.197	1	11
436.368	1	1
436.538	1	8
436.709	1	-11
436.879	1	5
437.050	1	10
437.220	1	20
437.391	1	2
437.562	1	12
437.732	1	12
437.903	1	5
438.073	1	3
438.244	1	6
438.414	1	-8
438.585	1	-1
438.756	1	9
438.926	1	7
439.097	1	2
439.267	1	-1
439.438	1	5
439.608	1	0
439.779	1	3
439.949	1	10
440.120	1	7
440.291	1	2
440.461	1	-2
440.632	1	-4
440.802	1	-4
440.973	1	9
441.143	1	7
441.314	1	8
441.485	1	7
441.655	1	-3
441.826	1	12
441.996	1	-1
442.167	1	7
442.337	1	10
442.508	1	3
442.678	1	-3
442.849	1	16
443.019	1	10
443.190	1	10
443.361	1	8
443.531	1	-1
443.702	1	11
443.872	1	-2
444.043	1	9
444.213	1	11
444.384	1	10
444.554	1	1
444.725	1	8
444.895	1	0
445.066	1	4
445.237	1	0
445.407	1	5
445.578	1	7
445.748	1	3
445.919	1	3
446.089	1	16
446.260	1	-3
446.430	1	6
446.601	1	10
446.771	1	5
446.942	1	5
447.112	1	6
447.283	1	7
447.453	1	3
447.624	1	8
447.794	1	3
447.965	1	4
448.135	1	5
448.306	1	11
448.477	1	11
448.647	1	-4
448.818	1	0
448.988	1	3
449.159	1	15
449.329	1	2
449.500	1	-2
449.670	1	-3
449.841	1	-6
450.011	1	8
450.182	1	13
450.352	1	10
450.523	1	6
450.693	1	1
450.864	1	1
451.034	1	7
451.205	1	-1
451.375	1	0
451.546	1	4
451.716	1	-8
451.887	1	8
452.057	1	8
452.228	1	-4
452.398	1	7
452.569	1	11
452.739	1	7
452.910	1	5
453.080	1	3
453.251	1	3
453.421	1	0
453.592	1	5
453.762	1	6
453.933	1	-2
454.103	1	-1
454.274	1	-2
454.444	1	9
454.615	1	12
454.785	1	7
454.956	1	-3
455.126	1	-1
455.297	1	14
455.467	1	9
455.638	1	5
455.808	1	3
455.979	1	-6
456.149	1	-1
456.320	1	5
456.490	1	12
456.661	1	0
456.831	1	-7
457.001	1	13
457.172	1	-3
457.342	1	2
457.513	1	11
457.683	1	13
457.854	1	-3
458.024	1	-1
458.195	1	3
458.365	1	5
458.536	1	3
458.706	1	15
458.877	1	4
459.047	1	3
459.218	1	1
459.388	1	15
459.559	1	11
459.729	1	-2
459.899	1	3
460.070	1	10
460.240	1	-5
460.411	1	2
460.581	1	1
460.752	1	10
460.922	1	3
461.093	1	8
461.263	1	5
461.434	1	-2
461.604	1	13
461.775	1	-3
461.945	1	1
462.115	1	1
462.286	1	7
462.456	1	5
462.627	1	-2
462.797	1	7
462.968	1	16
463.138	1	10
463.309	1	-9
463.479	1	10
463.649	1	7
463.820	1	4
463.990	1	7
464.161	1	5
464.331	1	5
464.502	1	0
464.672	1	14
464.843	1	11
465.013	1	11
465.183	1	-4
465.354	1	-1
465.524	1	11
465.695	1	11
465.865	1	17
466.036	1	2
466.206	1	15
466.376	1	3
466.547	1	10
466.717	1	10
466.888	1	-1
467.058	1	4
467.229	1	12
467.399	1	6
467.569	1	12
467.740	1	7
467.910	1	11
468.081	1	1
468.251	1	1
468.422	1	7
468.592	1	10
468.762	1	7
468.933	1	1
469.103	1	0
469.274	1	1
469.444	1	11
469.614	1	3
469.785	1	5
469.955	1	5
470.126	1	-6
470.296	1	0
470.467	1	3
470.637	1	4
470.807	1	13
470.978	1	-7
471.148	1	11
471.319	1	20
471.489	1	7
471.659	1	-1
471.830	1	-9
472.000	1	3
472.171	1	0
472.341	1	-6
472.511	1	1
472.682	1	4
472.852	1	15
473.023	1	5
473.193	1	12
473.363	1	9
473.534	1	16
473.704	1	5
473.875	1	6
474.045	1	6
474.215	1	11
474.386	1	5
474.556	1	17
474.727	1	2
474.897	1	10
475.067	1	2
475.238	1	17
475.408	1	1
475.578	1	4
475.749	1	13
475.919	1	-2
476.090	1	2
476.260	1	-6
476.430	1	8
476.601	1	9
476.771	1	5
476.942	1	-8
477.112	1	5
477.282	1	4
477.453	1	7
477.623	1	12
477.793	1	10
477.964	1	3
478.134	1	4
478.305	1	4
478.475	1	10
478.645	1	9
478.816	1	5
478.986	1	15
479.156	1	-2
479.327	1	-3
479.497	1	1
479.667	1	7
479.838	1	9
480.008	1	10
480.179	1	11
480.349	1	0
480.519	1	18
480.690	1	9
480.860	1	16
481.030	1	7
481.201	1	5
481.371	1	7
481.541	1	-1
481.712	1	10
481.882	1	6
482.053	1	7
482.223	1	14
482.393	1	12
482.564	1	13
482.734	1	27
482.904	1	6
483.075	1	7
483.245	1	4
483.415	1	11
483.586	1	7
483.756	1	10
483.926	1	12
484.097	1	8
484.267	1	0
484.437	1	15
484.608	1	4
484.778	1	4
484.948	1	10
485.119	1	13
485.289	1	9
485.459	1	9
485.630	1	11
485.800	1	5
485.970	1	10
486.141	1	0
486.311	1	7
486.481	1	9
486.652	1	9
486.822	1	6
486.992	1	13
487.163	1	6
487.333	1	9
487.503	1	12
487.674	1	13
487.844	1	12
488.014	1	9
488.185	1	13
488.355	1	8
488.525	1	11
488.696	1	4
488.866	1	14
489.036	1	15
489.207	1	12
489.377	1	14
489.547	1	10
489.718	1	16
489.888	1	16
490.058	1	11
490.228	1	8
490.399	1	21
490.569	1	17
490.739	1	10
490.910	1	5
491.080	1	10
491.250	1	24
491.421	1	8
491.591	1	11
491.761	1	23
491.932	1	10
492.102	1	15
492.272	1	18
492.442	1	12
492.613	1	12
492.783	1	0
492.953	1	26
493.124	1	11
493.294	1	15
493.464	1	24
493.635	1	18
493.805	1	26
493.975	1	17
494.145	1	13
494.316	1	16
494.486	1	10
494.656	1	16
494.827	1	17
494.997	1	19
495.167	1	23
495.337	1	14
495.508	1	24
495.678	1	20
495.848	1	25
496.019	1	17
496.189	1	20
496.359	1	14
496.529	1	17
496.700	1	26
496.870	1	16
497.040	1	22
497.211	1	17
497.381	1	14
497.551	1	17
497.721	1	18
497.892	1	29
498.062	1	20
498.232	1	17
498.403	1	15
498.573	1	22
498.743	1	17
498.913	1	26
499.084	1	29
499.254	1	21
499.424	1	17
499.594	1	20
499.765	1	20
499.935	1	24
500.105	1	12
500.275	1	25
500.446	1	32
500.616	1	24
500.786	1	9
500.956	1	35
501.127	1	25
501.297	1	16
501.467	1	17
501.638	1	17
501.808	1	24
501.978	1	29
502.148	1	10
502.319	1	33
502.489	1	17
502.659	1	25
502.829	1	28
503.000	1	31
503.170	1	27
503.340	1	30
503.510	1	19
503.681	1	39
503.851	1	10
504.021	1	23
504.191	1	33
504.362	1	25
504.532	1	24
504.702	1	33
504.872	1	17
505.042	1	27
505.213	1	33
505.383	1	26
505.553	1	26
505.723	1	39
505.894	1	17
506.064	1	11
506.234	1	24
506.404	1	36
506.575	1	26
506.745	1	29
506.915	1	36
507.085	1	35
507.256	1	33
507.426	1	43
507.596	1	35
507.766	1	41
507.936	1	27
508.107	1	33
508.277	1	28
508.447	1	14
508.617	1	34
508.788	1	18
508.958	1	30
509.128	1	27
509.298	1	32
509.468	1	35
509.639	1	25
509.809	1	27
509.979	1	31
510.149	1	38
510.319	1	34
510.490	1	29
510.660	1	45
510.830	1	34
511.000	1	25
511.171	1	37
511.341	1	37
511.511	1	26
511.681	1	35
511.851	1	33
512.022	1	42
512.192	1	32
512.362	1	28
512.532	1	37
512.702	1	33
512.873	1	24
513.043	1	35
513.213	1	36
513.383	1	15
513.553	1	24
513.724	1	35
513.894	1	40
514.064	1	31
514.234	1	35
514.404	1	34
514.575	1	45
514.745	1	38
514.915	1	27
515.085	1	37
515.255	1	37
515.425	1	47
515.596	1	35
515.766	1	36
515.936	1	46
516.106	1	35
516.276	1	43
516.447	1	37
516.617	1	34
516.787	1	44
516.957	1	22
517.127	1	45
517.297	1	41
517.468	1	38
517.638	1	45
517.808	1	43
517.978	1	44
518.148	1	51
518.319	1	37
518.489	1	36
518.659	1	35
518.829	1	41
518.999	1	31
519.169	1	32
519.340	1	42
519.510	1	34
519.680	1	28
519.850	1	37
520.020	1	38
520.190	1	53
520.361	1	42
520.531	1	34
520.701	1	44
520.871	1	39
521.041	1	38
521.211	1	28
521.382	1	47
521.552	1	32
521.722	1	43
521.892	1	39
522.062	1	50
522.232	1	34
522.402	1	40
522.573	1	53
522.743	1	37
522.913	1	39
523.083	1	43
523.253	1	39
523.423	1	41
523.593	1	35
523.764	1	48
523.934	1	44
524.104	1	40
524.274	1	41
524.444	1	41
524.614	1	53
524.784	1	48
524.955	1	38
525.125	1	37
525.295	1	51
525.465	1	52
525.635	1	44
525.805	1	49
525.975	1	47
526.146	1	38
526.316	1	54
526.486	1	54
526.656	1	45
526.826	1	54
526.996	1	44
527.166	1	48
527.337	1	46
527.507	1	39
527.677	1	48
527.847	1	59
528.017	1	45
528.187	1	57
528.357	1	54
528.527	1	39
528.698	1	51
528.868	1	52
529.038	1	46
529.208	1	55
529.378	1	47
529.548	1	51
529.718	1	40
529.888	1	42
530.058	1	46
530.229	1	38
530.399	1	63
530.569	1	50
530.739	1	48
530.909	1	57
531.079	1	37
531.249	1	62
531.419	1	44
531.589	1	56
531.760	1	47
531.930	1	49
532.100	1	55
532.270	1	55
532.440	1	46
532.610	1	46
532.780	1	34
532.950	1	33
533.120	1	42
533.290	1	37
533.461	1	43
533.631	1	45
533.801	1	48
533.971	1	40
534.141	1	46
534.311	1	27
534.481	1	38
534.651	1	47
534.821	1	33
534.991	1	36
535.162	1	33
535.332	1	48
535.502	1	54
535.672	1	35
535.842	1	35
536.012	1	34
536.182	1	40
536.352	1	38
536.522	1	46
536.692	1	29
536.862	1	37
537.032	1	41
537.203	1	43
537.373	1	46
537.543	1	43
537.713	1	52
537.883	1	45
538.053	1	32
538.223	1	36
538.393	1	45
538.563	1	41
538.733	1	41
538.903	1	47
539.073	1	46
539.243	1	40
539.413	1	37
539.584	1	41
539.754	1	38
539.924	1	29
540.094	1	40
540.264	1	46
540.434	1	48
540.604	1	53
540.774	1	44
540.944	1	42
541.114	1	32
541.284	1	49
541.454	1	41
541.624	1	39
541.794	1	50
541.964	1	35
542.134	1	43
542.305	1	37
542.475	1	40
542.645	1	49
542.815	1	41
542.985	1	42
543.155	1	62
543.325	1	27
543.495	1	42
543.665	1	48
543.835	1	56
544.005	1	48
544.175	1	61
544.345	1	47
544.515	1	38
544.685	1	56
544.855	1	51
545.025	1	56
545.195	1	35
545.365	1	36
545.535	1	46
545.705	1	40
545.875	1	48
546.045	1	52
546.216	1	47
546.386	1	47
546.556	1	36
546.726	1	49
546.896	1	43
547.066	1	46
547.236	1	41
547.406	1	51
547.576	1	42
547.746	1	29
547.916	1	38
548.086	1	54
548.256	1	38
548.426	1	43
548.596	1	42
548.766	1	44
548.936	1	30
549.106	1	43
549.276	1	36
549.446	1	40
549.616	1	31
549.786	1	48
549.956	1	40
550.126	1	43
550.296	1	42
550.466	1	47
550.636	1	46
550.806	1	45
550.976	1	42
551.146	1	42
551.316	1	39
551.486	1	40
551.656	1	26
551.826	1	45
551.996	1	31
552.166	1	33
552.336	1	47
552.506	1	40
552.676	1	40
552.846	1	36
553.016	1	37
553.186	1	41
553.356	1	42
553.526	1	28
553.696	1	31
553.866	1	45
554.036	1	47
554.206	1	43
554.376	1	27
554.546	1	42
554.716	1	48
554.886	1	28
555.056	1	42
555.226	1	39
555.396	1	45
555.566	1	31
555.736	1	37
555.906	1	27
556.076	1	38
556.246	1	38
556.416	1	47
556.586	1	30
556.756	1	38
556.926	1	46
557.096	1	49
557.266	1	28
557.436	1	34
557.606	1	33
557.776	1	41
557.946	1	30
558.116	1	38
558.286	1	30
558.456	1	35
558.626	1	45
558.796	1	38
558.966	1	30
559.136	1	32
559.306	1	50
559.476	1	38
559.646	1	42
559.816	1	36
559.986	1	31
560.155	1	29
560.325	1	39
560.495	1	38
560.665	1	35
560.835	1	35
561.005	1	34
561.175	1	35
561.345	1	45
561.515	1	29
561.685	1	44
561.855	1	35
562.025	1	44
562.195	1	36
562.365	1	34
562.535	1	29
562.705	1	27
562.875	1	49
563.045	1	29
563.215	1	29
563.385	1	37
563.555	1	45
563.725	1	36
563.895	1	42
564.064	1	35
564.234	1	32
564.404	1	26
564.574	1	32
564.744	1	27
564.914	1	29
565.084	1	34
565.254	1	31
565.424	1	44
565.594	1	28
565.764	1	31
565.934	1	31
566.104	1	47
566.274	1	37
566.444	1	32
566.614	1	37
566.783	1	29
566.953	1	23
567.123	1	40
567.293	1	26
567.463	1	35
567.633	1	37
567.803	1	36
567.973	1	43
568.143	1	30
568.313	1	32
568.483	1	41
568.653	1	42
568.823	1	27
568.993	1	36
569.162	1	37
569.332	1	42
569.502	1	42
569.672	1	34
569.842	1	33
570.012	1	41
570.182	1	32
570.352	1	22
570.522	1	25
570.692	1	34
570.862	1	28
571.031	1	38
571.201	1	31
571.371	1	29
571.541	1	37
571.711	1	42
571.881	1	33
572.051	1	26
572.221	1	23
572.391	1	40
572.561	1	31
572.731	1	10
572.900	1	34
573.070	1	25
573.240	1	25
573.410	1	40
573.580	1	31
573.750	1	27
573.920	1	35
574.090	1	26
574.260	1	32
574.430	1	34
574.599	1	19
574.769	1	32
574.939	1	30
575.109	1	27
575.279	1	41
575.449	1	28
575.619	1	27
575.789	1	42
575.959	1	16
576.128	1	35
576.298	1	32
576.468	1	36
576.638	1	43
576.808	1	38
576.978	1	25
577.148	1	30
577.318	1	26
577.487	1	28
577.657	1	24
577.827	1	18
577.997	1	24
578.167	1	31
578.337	1	39
578.507	1	33
578.677	1	29
578.846	1	41
579.016	1	28
579.186	1	31
579.356	1	27
579.526	1	24
579.696	1	28
579.866	1	11
580.036	1	29
580.205	1	23
580.375	1	37
580.545	1	36
580.715	1	15
580.885	1	13
581.055	1	37
581.225	1	20
581.394	1	26
581.564	1	38
581.734	1	16
581.904	1	28
582.074	1	24
582.244	1	26
582.414	1	25
582.583	1	20
582.753	1	32
582.923	1	32
583.093	1	29
583.263	1	37
583.433	1	33
583.603	1	28
583.772	1	27
583.942	1	25
584.112	1	16
584.282	1	34
584.452	1	28
584.622	1	16
584.791	1	28
584.961	1	16
585.131	1	22
585.301	1	19
585.471	1	37
585.641	1	17
585.811	1	27
585.980	1	23
586.150	1	15
586.320	1	12
586.490	1	14
586.660	1	20
586.830	1	26
586.999	1	20
587.169	1	23
587.339	1	21
587.509	1	19
587.679	1	9
587.849	1	5
588.018	1	36
588.188	1	18
588.358	1	22
588.528	1	23
588.698	1	25
588.867	1	19
589.037	1	25
589.207	1	16
589.377	1	19
589.547	1	20
589.717	1	17
589.886	1	17
590.056	1	22
590.226	1	19
590.396	1	23
590.566	1	18
590.735	1	29
590.905	1	14
591.075	1	13
591.245	1	27
591.415	1	17
591.585	1	17
591.754	1	27
591.924	1	27
592.094	1	15
592.264	1	16
592.434	1	16
592.603	1	25
592.773	1	9
592.943	1	21
593.113	1	11
593.283	1	22
593.452	1	25
593.622	1	23
593.792	1	21
593.962	1	14
594.132	1	13
594.301	1	21
594.471	1	26
594.641	1	15
594.811	1	11
594.981	1	8
595.150	1	16
595.320	1	29
595.490	1	23
595.660	1	28
595.829	1	11
595.999	1	19
596.169	1	22
596.339	1	22
596.509	1	27
596.678	1	25
596.848	1	22
597.018	1	15
597.188	1	14
597.358	1	9
597.527	1	22
597.697	1	12
597.867	1	20
598.037	1	28
598.206	1	8
598.376	1	15
598.546	1	8
598.716	1	24
598.885	1	18
599.055	1	27
599.225	1	33
599.395	1	14
599.565	1	15
599.734	1	26
599.904	1	19
600.074	1	10
600.244	1	21
600.413	1	12
600.583	1	22
600.753	1	25
600.923	1	22
601.092	1	21
601.262	1	19
601.432	1	20
601.602	1	21
601.771	1	24
601.941	1	22
602.111	1	21
602.281	1	12
602.451	1	21
602.620	1	2
602.790	1	18
602.960	1	12
603.130	1	22
603.299	1	24
603.469	1	27
603.639	1	27
603.809	1	11
603.978	1	18
604.148	1	25
604.318	1	29
604.487	1	12
604.657	1	20
604.827	1	15
604.997	1	21
605.166	1	25
605.336	1	15
605.506	1	19
605.676	1	12
605.845	1	30
606.015	1	14
606.185	1	16
606.355	1	28
606.524	1	22
606.694	1	16
606.864	1	21
607.034	1	18
607.203	1	20
607.373	1	17
607.543	1	3
607.712	1	17
607.882	1	24
608.052	1	21
608.222	1	15
608.391	1	15
608.561	1	19
608.731	1	15
608.901	1	14
609.070	1	12
609.240	1	25
609.410	1	18
609.579	1	12
609.749	1	16
609.919	1	16
610.089	1	16
610.258	1	13
610.428	1	17
610.598	1	18
610.767	1	12
610.937	1	12
611.107	1	14
611.277	1	17
611.446	1	19
611.616	1	19
611.786	1	22
611.955	1	23
612.125	1	13
612.295	1	18
612.465	1	18
612.634	1	24
612.804	1	13
612.974	1	4
613.143	1	21
613.313	1	10
613.483	1	25
613.652	1	12
613.822	1	24
613.992	1	17
614.162	1	20
614.331	1	21
614.501	1	8
614.671	1	13
614.840	1	9
615.010	1	13
615.180	1	21
615.349	1	10
615.519	1	20
615.689	1	22
615.858	1	16
616.028	1	21
616.198	1	9
616.368	1	16
616.537	1	6
616.707	1	25
616.877	1	17
617.046	1	17
617.216	1	25
617.386	1	16
617.555	1	30
617.725	1	8
617.895	1	29
618.064	1	7
618.234	1	17
618.404	1	13
618.573	1	15
618.743	1	19
618.913	1	12
619.082	1	12
619.252	1	21
619.422	1	9
619.591	1	10
619.761	1	19
619.931	1	6
620.100	1	15
620.270	1	19
620.440	1	15
620.609	1	3
620.779	1	17
620.949	1	23
621.118	1	18
621.288	1	16
621.458	1	16
621.627	1	28
621.797	1	14
621.967	1	19
622.136	1	12
622.306	1	22
622.476	1	21
622.645	1	12
622.815	1	17
622.985	1	17
623.154	1	-2
623.324	1	9
623.494	1	29
623.663	1	23
623.833	1	9
624.002	1	16
624.172	1	23
624.342	1	10
624.511	1	20
624.681	1	12
624.851	1	8
625.020	1	17
625.190	1	7
625.360	1	16
625.529	1	11
625.699	1	16
625.869	1	10
626.038	1	6
626.208	1	15
626.377	1	11
626.547	1	14
626.717	1	23
626.886	1	21
627.056	1	14
627.226	1	5
627.395	1	13
627.565	1	15
627.735	1	19
627.904	1	25
628.074	1	18
628.243	1	18
628.413	1	28
628.583	1	16
628.752	1	10
628.922	1	14
629.091	1	15
629.261	1	21
629.431	1	5
629.600	1	9
629.770	1	7
629.940	1	7
630.109	1	10
630.279	1	11
630.448	1	18
630.618	1	15
630.788	1	7
630.957	1	18
631.127	1	7
631.297	1	22
631.466	1	9
631.636	1	9
631.805	1	2
631.975	1	9
632.145	1	6
632.314	1	8
632.484	1	18
632.653	1	11
632.823	1	14
632.993	1	14
633.162	1	14
633.332	1	12
633.501	1	12
633.671	1	18
633.841	1	7
634.010	1	7
634.180	1	6
634.349	1	7
634.519	1	16
634.689	1	16
634.858	1	7
635.028	1	17
635.197	1	17
635.367	1	13
635.537	1	8
635.706	1	26
635.876	1	10
636.045	1	10
636.215	1	11
636.384	1	10
636.554	1	14
636.724	1	11
636.893	1	9
637.063	1	28
637.232	1	21
637.402	1	13
637.572	1	22
637.741	1	7
637.911	1	9
638.080	1	5
638.250	1	18
638.419	1	13
638.589	1	13
638.759	1	6
638.928	1	10
639.098	1	24
639.267	1	13
639.437	1	13
639.606	1	11
639.776	1	-1
639.946	1	12
640.115	1	10
640.285	1	19
640.454	1	19
640.624	1	11
640.793	1	20
640.963	1	14
641.132	1	9
641.302	1	16
641.472	1	16
641.641	1	14
641.811	1	5
641.980	1	1
642.150	1	12
642.319	1	4
642.489	1	18
642.659	1	4
642.828	1	3
642.998	1	-7
643.167	1	11
643.337	1	8
643.506	1	18
643.676	1	11
643.845	1	12
644.015	1	3
644.184	1	15
644.354	1	7
644.524	1	15
644.693	1	10
644.863	1	8
645.032	1	14
645.202	1	8
645.371	1	1
645.541	1	8
645.710	1	21
645.880	1	17
646.049	1	4
646.219	1	10
646.388	1	6
646.558	1	14
646.728	1	19
646.897	1	19
647.067	1	19
647.236	1	5
647.406	1	10
647.575	1	17
647.745	1	18
647.914	1	9
648.084	1	14
648.253	1	16
648.423	1	13
648.592	1	3
648.762	1	12
648.931	1	7
649.101	1	12
649.270	1	11
649.440	1	8
649.610	1	17
649.779	1	12
649.949	1	2
650.118	1	1
650.288	1	11
650.457	1	5
650.627	1	16
650.796	1	-6
650.966	1	13
651.135	1	8
651.305	1	4
651.474	1	11
651.644	1	4
651.813	1	16
651.983	1	27
652.152	1	13
652.322	1	5
652.491	1	11
652.661	1	11
652.830	1	22
653.000	1	6
653.169	1	9
653.339	1	18
653.508	1	4
653.678	1	10
653.847	1	10
654.017	1	14
654.186	1	6
654.356	1	21
654.525	1	13
654.695	1	7
654.864	1	6
655.034	1	7
655.203	1	-1
655.373	1	16
655.542	1	7
655.712	1	9
655.881	1	6
656.051	1	6
656.220	1	15
656.390	1	22
656.559	1	8
656.729	1	9
656.898	1	15
657.068	1	11
657.237	1	18
657.406	1	6
657.576	1	-1
657.745	1	9
657.915	1	13
658.084	1	11
658.254	1	9
658.423	1	12
658.593	1	11
658.762	1	17
658.932	1	6
659.101	1	6
659.271	1	11
659.440	1	-6
659.610	1	12
659.779	1	8
659.949	1	14
660.118	1	2
660.288	1	6
660.457	1	14
660.626	1	11
660.796	1	-3
660.965	1	12
661.135	1	15
661.304	1	11
661.474	1	5
661.643	1	16
661.813	1	8
661.982	1	5
662.152	1	7
662.321	1	6
662.491	1	6
662.660	1	7
662.829	1	3
662.999	1	17
663.168	1	6
663.338	1	7
663.507	1	10
663.677	1	6
663.846	1	-6
664.016	1	11
664.185	1	14
664.354	1	18
664.524	1	5
664.693	1	13
664.863	1	8
665.032	1	21
665.202	1	5
665.371	1	11
665.541	1	4
665.710	1	9
665.879	1	16
666.049	1	4
666.218	1	2
666.388	1	19
666.557	1	10
666.727	1	2
666.896	1	3
667.065	1	20
667.235	1	7
667.404	1	10
667.574	1	10
667.743	1	18
667.913	1	7
668.082	1	10
668.251	1	19
668.421	1	0
668.590	1	13
668.760	1	11
668.929	1	4
669.099	1	5
669.268	1	12
669.437	1	12
669.607	1	10
669.776	1	11
669.946	1	14
670.115	1	-2
670.285	1	9
670.454	1	15
670.623	1	5
670.793	1	20
670.962	1	10
671.132	1	17
671.301	1	12
671.470	1	11
671.640	1	18
671.809	1	9
671.979	1	14
672.148	1	12
672.317	1	13
672.487	1	8
672.656	1	15
672.826	1	8
672.995	1	6
673.164	1	26
673.334	1	6
673.503	1	16
673.673	1	-5
673.842	1	4
674.011	1	6
674.181	1	20
674.350	1	12
674.520	1	22
674.689	1	7
674.858	1	4
675.028	1	12
675.197	1	16
675.367	1	-2
675.536	1	25
675.705	1	4
675.875	1	7
676.044	1	2
676.214	1	7
676.383	1	13
676.552	1	15
676.722	1	1
676.891	1	-2
677.060	1	10
677.230	1	17
677.399	1	10
677.569	1	12
677.738	1	16
677.907	1	13
678.077	1	28
678.246	1	8
678.416	1	9
678.585	1	8
678.754	1	10
678.924	1	1
679.093	1	20
679.262	1	25
679.432	1	15
679.601	1	27
679.771	1	12
679.940	1	5
680.109	1	5
680.279	1	9
680.448	1	0
680.617	1	5
680.787	1	10
680.956	1	13
681.125	1	17
681.295	1	26
681.464	1	16
681.634	1	8
681.803	1	9
681.972	1	9
682.142	1	5
682.311	1	11
682.480	1	7
682.650	1	6
682.819	1	10
682.988	1	11
683.158	1	13
683.327	1	19
683.496	1	8
683.666	1	13
683.835	1	3
684.004	1	9
684.174	1	10
684.343	1	8
684.512	1	11
684.682	1	12
684.851	1	15
685.021	1	12
685.190	1	14
685.359	1	8
685.529	1	13
685.698	1	16
685.867	1	8
686.037	1	7
686.206	1	15
686.375	1	17
686.545	1	10
686.714	1	1
686.883	1	13
687.053	1	0
687.222	1	11
687.391	1	19
687.561	1	21
687.730	1	13
687.899	1	24
688.069	1	6
688.238	1	14
688.407	1	14
688.577	1	13
688.746	1	9
