340.368	1	5
340.539	1	2
340.710	1	-4
340.881	1	4
341.052	1	6
341.223	1	-8
341.394	1	-2
341.565	1	7
341.737	1	12
341.908	1	-9
342.079	1	-1
342.250	1	6
342.421	1	-5
342.592	1	2
342.763	1	2
342.934	1	10
343.105	1	5
343.276	1	4
343.447	1	0
343.618	1	13
343.789	1	15
343.960	1	12
344.131	1	8
344.302	1	11
344.473	1	5
344.644	1	6
344.815	1	-4
344.986	1	-3
345.157	1	1
345.328	1	-4
345.499	1	5
345.670	1	-1
345.841	1	8
346.012	1	9
346.183	1	-7
346.354	1	6
346.526	1	6
346.697	1	1
346.868	1	0
347.039	1	1
347.210	1	-2
347.381	1	-1
347.552	1	10
347.723	1	12
347.894	1	-4
348.065	1	-6
348.236	1	-4
348.407	1	3
348.578	1	-6
348.749	1	-6
348.920	1	-5
349.091	1	0
349.262	1	-1
349.433	1	12
349.604	1	0
349.775	1	8
349.946	1	1
350.117	1	-2
350.288	1	5
350.459	1	-9
350.630	1	1
350.801	1	-1
350.972	1	4
351.143	1	-1
351.314	1	1
351.485	1	6
351.656	1	7
351.827	1	-6
351.998	1	6
352.169	1	-6
352.340	1	1
352.511	1	2
352.682	1	-7
352.853	1	3
353.024	1	8
353.195	1	-1
353.366	1	-3
353.537	1	8
353.708	1	0
353.879	1	9
354.050	1	2
354.221	1	0
354.392	1	-1
354.563	1	5
354.734	1	-10
354.905	1	15
355.076	1	-1
355.247	1	7
355.418	1	3
355.589	1	-1
355.760	1	-5
355.931	1	-7
356.102	1	4
356.273	1	1
356.444	1	-1
356.615	1	9
356.785	1	3
356.956	1	15
357.127	1	4
357.298	1	1
357.469	1	9
357.640	1	5
357.811	1	0
357.982	1	8
358.153	1	-6
358.324	1	6
358.495	1	3
358.666	1	5
358.837	1	8
359.008	1	3
359.179	1	6
359.350	1	7
359.521	1	9
359.692	1	10
359.863	1	0
360.034	1	0
360.205	1	9
360.376	1	17
360.547	1	6
360.718	1	12
360.889	1	5
361.060	1	1
361.231	1	2
361.401	1	7
361.572	1	12
361.743	1	13
361.914	1	11
362.085	1	11
362.256	1	5
362.427	1	6
362.598	1	3
362.769	1	18
362.940	1	6
363.111	1	2
363.282	1	23
363.453	1	18
363.624	1	19
363.795	1	7
363.966	1	8
364.137	1	13
364.308	1	28
364.478	1	24
364.649	1	29
364.820	1	29
364.991	1	29
365.162	1	24
365.333	1	21
365.504	1	21
365.675	1	16
365.846	1	28
366.017	1	21
366.188	1	36
366.359	1	22
366.530	1	32
366.701	1	32
366.871	1	38
367.042	1	35
367.213	1	30
367.384	1	38
367.555	1	38
367.726	1	39
367.897	1	31
368.068	1	43
368.239	1	30
368.410	1	24
368.581	1	34
368.752	1	19
368.923	1	39
369.093	1	40
369.264	1	33
369.435	1	35
369.606	1	42
369.777	1	25
369.948	1	33
370.119	1	32
370.290	1	20
370.461	1	26
370.632	1	34
370.803	1	28
370.973	1	47
371.144	1	47
371.315	1	32
371.486	1	27
371.657	1	32
371.828	1	29
371.999	1	14
372.170	1	31
372.341	1	35
372.512	1	17
372.682	1	28
372.853	1	21
373.024	1	28
373.195	1	13
373.366	1	24
373.537	1	28
373.708	1	25
373.879	1	23
374.050	1	28
374.220	1	18
374.391	1	12
374.562	1	19
374.733	1	23
374.904	1	18
375.075	1	19
375.246	1	17
375.417	1	15
375.588	1	8
375.758	1	22
375.929	1	8
376.100	1	20
376.271	1	15
376.442	1	19
376.613	1	25
376.784	1	10
376.955	1	8
377.125	1	10
377.296	1	10
377.467	1	13
377.638	1	4
377.809	1	14
377.980	1	19
378.151	1	8
378.321	1	20
378.492	1	8
378.663	1	11
378.834	1	14
379.005	1	3
379.176	1	12
379.347	1	16
379.518	1	15
379.688	1	11
379.859	1	4
380.030	1	15
380.201	1	2
380.372	1	-1
380.543	1	3
380.714	1	10
380.884	1	9
381.055	1	5
381.226	1	15
381.397	1	27
381.568	1	9
381.739	1	0
381.910	1	4
382.080	1	14
382.251	1	23
382.422	1	3
382.593	1	10
382.764	1	12
382.935	1	11
383.105	1	6
383.276	1	8
383.447	1	-4
383.618	1	15
383.789	1	8
383.960	1	6
384.130	1	7
384.301	1	9
384.472	1	7
384.643	1	-1
384.814	1	3
384.985	1	12
385.156	1	16
385.326	1	7
385.497	1	1
385.668	1	4
385.839	1	7
386.010	1	12
386.180	1	5
386.351	1	-3
386.522	1	8
386.693	1	8
386.864	1	7
387.035	1	17
387.205	1	-4
387.376	1	5
387.547	1	15
387.718	1	-3
387.889	1	9
388.060	1	-2
388.230	1	14
388.401	1	9
388.572	1	10
388.743	1	12
388.914	1	6
389.084	1	1
389.255	1	6
389.426	1	4
389.597	1	1
389.768	1	10
389.939	1	2
390.109	1	-2
390.280	1	5
390.451	1	0
390.622	1	9
390.793	1	-4
390.963	1	10
391.134	1	-4
391.305	1	7
391.476	1	6
391.647	1	-4
391.817	1	-1
391.988	1	4
392.159	1	1
392.330	1	-4
392.501	1	12
392.671	1	-4
392.842	1	7
393.013	1	4
393.184	1	11
393.355	1	-2
393.525	1	-4
393.696	1	13
393.867	1	7
394.038	1	6
394.208	1	7
394.379	1	9
394.550	1	0
394.721	1	0
394.892	1	8
395.062	1	18
395.233	1	-11
395.404	1	-1
395.575	1	5
395.746	1	-1
395.916	1	-1
396.087	1	17
396.258	1	7
396.429	1	7
396.599	1	-4
396.770	1	-2
396.941	1	6
397.112	1	-8
397.283	1	12
397.453	1	1
397.624	1	7
397.795	1	5
397.966	1	16
398.136	1	-3
398.307	1	0
398.478	1	3
398.649	1	19
398.819	1	-7
398.990	1	-10
399.161	1	11
399.332	1	-3
399.503	1	1
399.673	1	5
399.844	1	10
400.015	1	-3
400.186	1	0
400.356	1	6
400.527	1	1
400.698	1	0
400.869	1	-2
401.039	1	3
401.210	1	-2
401.381	1	7
401.552	1	-7
401.722	1	-11
401.893	1	12
402.064	1	4
402.235	1	5
402.405	1	-5
402.576	1	3
402.747	1	-9
402.918	1	8
403.088	1	-1
403.259	1	1
403.430	1	-5
403.601	1	-2
403.771	1	9
403.942	1	-1
404.113	1	1
404.284	1	1
404.454	1	-7
404.625	1	-1
404.796	1	-4
404.967	1	-2
405.137	1	-2
405.308	1	4
405.479	1	1
405.649	1	-3
405.820	1	6
405.991	1	-3
406.162	1	6
406.332	1	-1
406.503	1	-10
406.674	1	11
406.845	1	18
407.015	1	-1
407.186	1	-4
407.357	1	-11
407.527	1	7
407.698	1	1
407.869	1	-1
408.040	1	-1
408.210	1	6
408.381	1	16
408.552	1	19
408.722	1	1
408.893	1	2
409.064	1	-7
409.235	1	8
409.405	1	-7
409.576	1	0
409.747	1	2
409.917	1	6
410.088	1	12
410.259	1	-6
410.430	1	-2
410.600	1	0
410.771	1	-2
410.942	1	-6
411.112	1	10
411.283	1	-2
411.454	1	14
411.625	1	2
411.795	1	-6
411.966	1	3
412.137	1	-6
412.307	1	5
412.478	1	3
412.649	1	2
412.819	1	7
412.990	1	4
413.161	1	11
413.332	1	13
413.502	1	-4
413.673	1	8
413.844	1	0
414.014	1	2
414.185	1	-8
414.356	1	-8
414.526	1	-2
414.697	1	8
414.868	1	-1
415.038	1	8
415.209	1	-3
415.380	1	-3
415.550	1	9
415.721	1	-3
415.892	1	4
416.063	1	-1
416.233	1	9
416.404	1	-2
416.575	1	5
416.745	1	6
416.916	1	-1
417.087	1	-1
417.257	1	-8
417.428	1	5
417.599	1	-1
417.769	1	3
417.940	1	2
418.111	1	11
418.281	1	14
418.452	1	5
418.623	1	-2
418.793	1	19
418.964	1	-12
419.135	1	0
419.305	1	6
419.476	1	0
419.647	1	-7
419.817	1	2
419.988	1	-6
420.159	1	4
420.329	1	8
420.500	1	17
420.671	1	-4
420.841	1	1
421.012	1	-1
421.183	1	-6
421.353	1	-6
421.524	1	2
421.695	1	11
421.865	1	0
422.036	1	0
422.206	1	1
422.377	1	3
422.548	1	8
422.718	1	12
422.889	1	2
423.060	1	5
423.230	1	-4
423.401	1	-3
423.572	1	7
423.742	1	5
423.913	1	-2
424.084	1	-4
424.254	1	-5
424.425	1	0
424.595	1	9
424.766	1	-2
424.937	1	8
425.107	1	12
425.278	1	4
425.449	1	12
425.619	1	4
425.790	1	9
425.961	1	2
426.131	1	-1
426.302	1	-7
426.472	1	1
426.643	1	8
426.814	1	4
426.984	1	-9
427.155	1	7
427.326	1	-4
427.496	1	2
427.667	1	2
427.837	1	-5
428.008	1	10
428.179	1	-7
428.349	1	4
428.520	1	1
428.691	1	13
428.861	1	-3
429.032	1	0
429.202	1	0
429.373	1	12
429.544	1	6
429.714	1	-4
429.885	1	-1
430.055	1	-1
430.226	1	-3
430.397	1	10
430.567	1	-3
430.738	1	-5
430.909	1	0
431.079	1	5
431.250	1	5
431.420	1	2
431.591	1	13
431.762	1	-4
431.932	1	-5
432.103	1	-9
432.273	1	15
432.444	1	1
432.615	1	5
432.785	1	5
432.956	1	6
433.126	1	8
433.297	1	-9
433.468	1	0
433.638	1	9
433.809	1	7
433.979	1	2
434.150	1	6
434.320	1	6
434.491	1	1
434.662	1	4
434.832	1	-16
435.003	1	-2
435.173	1	-3
435.344	1	-6
435.515	1	-1
435.685	1	-6
435.856	1	5
436.026	1	-2
436.197	1	10
436.368	1	8
436.538	1	3
436.709	1	-8
436.879	1	-2
437.050	1	9
437.220	1	12
437.391	1	5
437.562	1	11
437.732	1	-1
437.903	1	7
438.073	1	11
438.244	1	3
438.414	1	-5
438.585	1	-7
438.756	1	5
438.926	1	-6
439.097	1	-2
439.267	1	7
439.438	1	1
439.608	1	5
439.779	1	13
439.949	1	2
440.120	1	5
440.291	1	-6
440.461	1	-5
440.632	1	3
440.802	1	8
440.973	1	2
441.143	1	3
441.314	1	-4
441.485	1	0
441.655	1	0
441.826	1	9
441.996	1	-5
442.167	1	5
442.337	1	-5
442.508	1	-5
442.678	1	0
442.849	1	2
443.019	1	4
443.190	1	1
443.361	1	1
443.531	1	5
443.702	1	11
443.872	1	4
444.043	1	1
444.213	1	4
444.384	1	1
444.554	1	5
444.725	1	13
444.895	1	5
445.066	1	7
445.237	1	3
445.407	1	-9
445.578	1	6
445.748	1	-2
445.919	1	-8
446.089	1	6
446.260	1	-10
446.430	1	-3
446.601	1	2
446.771	1	9
446.942	1	-7
447.112	1	-1
447.283	1	12
447.453	1	-2
447.624	1	5
447.794	1	4
447.965	1	4
448.135	1	7
448.306	1	14
448.477	1	2
448.647	1	-4
448.818	1	6
448.988	1	-1
449.159	1	11
449.329	1	4
449.500	1	-6
449.670	1	-9
449.841	1	-8
450.011	1	2
450.182	1	6
450.352	1	4
450.523	1	-9
450.693	1	-4
450.864	1	3
451.034	1	21
451.205	1	-4
451.375	1	-3
451.546	1	-14
451.716	1	-1
451.887	1	7
452.057	1	4
452.228	1	13
452.398	1	11
452.569	1	9
452.739	1	2
452.910	1	9
453.080	1	3
453.251	1	7
453.421	1	-4
453.592	1	8
453.762	1	-1
453.933	1	-9
454.103	1	-7
454.274	1	7
454.444	1	-9
454.615	1	0
454.785	1	7
454.956	1	1
455.126	1	-8
455.297	1	0
455.467	1	-1
455.638	1	-12
455.808	1	0
455.979	1	-8
456.149	1	4
456.320	1	0
456.490	1	3
456.661	1	0
456.831	1	-13
457.001	1	7
457.172	1	-11
457.342	1	5
457.513	1	0
457.683	1	6
457.854	1	2
458.024	1	4
458.195	1	-7
458.365	1	7
458.536	1	1
458.706	1	9
458.877	1	1
459.047	1	0
459.218	1	7
459.388	1	-1
459.559	1	3
459.729	1	-12
459.899	1	-2
460.070	1	3
460.240	1	3
460.411	1	-1
460.581	1	-4
460.752	1	9
460.922	1	0
461.093	1	6
461.263	1	-10
461.434	1	0
461.604	1	-1
461.775	1	-11
461.945	1	-9
462.115	1	12
462.286	1	2
462.456	1	8
462.627	1	-14
462.797	1	7
462.968	1	7
463.138	1	7
463.309	1	-12
463.479	1	3
463.649	1	5
463.820	1	4
463.990	1	0
464.161	1	-5
464.331	1	0
464.502	1	1
464.672	1	-3
464.843	1	3
465.013	1	1
465.183	1	-5
465.354	1	-6
465.524	1	5
465.695	1	1
465.865	1	3
466.036	1	-7
466.206	1	8
466.376	1	-5
466.547	1	12
466.717	1	3
466.888	1	7
467.058	1	15
467.229	1	8
467.399	1	8
467.569	1	8
467.740	1	1
467.910	1	4
468.081	1	3
468.251	1	1
468.422	1	2
468.592	1	13
468.762	1	0
468.933	1	12
469.103	1	-2
469.274	1	3
469.444	1	6
469.614	1	0
469.785	1	-10
469.955	1	-4
470.126	1	8
470.296	1	3
470.467	1	1
470.637	1	1
470.807	1	13
470.978	1	-3
471.148	1	4
471.319	1	1
471.489	1	-2
471.659	1	-4
471.830	1	-6
472.000	1	0
472.171	1	-1
472.341	1	-1
472.511	1	6
472.682	1	3
472.852	1	5
473.023	1	-4
473.193	1	7
473.363	1	9
473.534	1	2
473.704	1	-1
473.875	1	2
474.045	1	3
474.215	1	-2
474.386	1	-4
474.556	1	4
474.727	1	8
474.897	1	4
475.067	1	11
475.238	1	2
475.408	1	2
475.578	1	10
475.749	1	2
475.919	1	6
476.090	1	0
476.260	1	-7
476.430	1	2
476.601	1	7
476.771	1	9
476.942	1	1
477.112	1	4
477.282	1	1
477.453	1	-5
477.623	1	8
477.793	1	-5
477.964	1	5
478.134	1	4
478.305	1	-2
478.475	1	4
478.645	1	3
478.816	1	-1
478.986	1	14
479.156	1	-6
479.327	1	6
479.497	1	3
479.667	1	-1
479.838	1	-6
480.008	1	2
480.179	1	5
480.349	1	-6
480.519	1	0
480.690	1	0
480.860	1	5
481.030	1	6
481.201	1	2
481.371	1	8
481.541	1	-12
481.712	1	-5
481.882	1	12
482.053	1	-3
482.223	1	3
482.393	1	-1
482.564	1	11
482.734	1	7
482.904	1	3
483.075	1	1
483.245	1	-2
483.415	1	4
483.586	1	13
483.756	1	6
483.926	1	-2
484.097	1	11
484.267	1	1
484.437	1	5
484.608	1	3
484.778	1	-5
484.948	1	4
485.119	1	-2
485.289	1	-1
485.459	1	10
485.630	1	10
485.800	1	-4
485.970	1	-7
486.141	1	-7
486.311	1	-12
486.481	1	-2
486.652	1	4
486.822	1	7
486.992	1	14
487.163	1	1
487.333	1	-2
487.503	1	-4
487.674	1	6
487.844	1	-3
488.014	1	-1
488.185	1	7
488.355	1	-5
488.525	1	10
488.696	1	3
488.866	1	9
489.036	1	5
489.207	1	3
489.377	1	0
489.547	1	-1
489.718	1	-1
489.888	1	9
490.058	1	-7
490.228	1	9
490.399	1	9
490.569	1	14
490.739	1	11
490.910	1	-2
491.080	1	-3
491.250	1	4
491.421	1	5
491.591	1	4
491.761	1	11
491.932	1	8
492.102	1	2
492.272	1	5
492.442	1	-3
492.613	1	6
492.783	1	-11
492.953	1	17
493.124	1	-3
493.294	1	-4
493.464	1	1
493.635	1	16
493.805	1	8
493.975	1	9
494.145	1	6
494.316	1	3
494.486	1	-11
494.656	1	-8
494.827	1	4
494.997	1	7
495.167	1	17
495.337	1	9
495.508	1	4
495.678	1	5
495.848	1	2
496.019	1	2
496.189	1	9
496.359	1	-9
496.529	1	0
496.700	1	13
496.870	1	-1
497.040	1	-2
497.211	1	-3
497.381	1	3
497.551	1	4
497.721	1	0
497.892	1	8
498.062	1	1
498.232	1	3
498.403	1	6
498.573	1	16
498.743	1	-1
498.913	1	0
499.084	1	6
499.254	1	3
499.424	1	-1
499.594	1	2
499.765	1	6
499.935	1	0
500.105	1	0
500.275	1	7
500.446	1	8
500.616	1	4
500.786	1	0
500.956	1	13
501.127	1	3
501.297	1	-2
501.467	1	3
501.638	1	-11
501.808	1	1
501.978	1	9
502.148	1	-5
502.319	1	7
502.489	1	-1
502.659	1	9
502.829	1	-5
503.000	1	5
503.170	1	8
503.340	1	4
503.510	1	1
503.681	1	0
503.851	1	1
504.021	1	2
504.191	1	6
504.362	1	-2
504.532	1	3
504.702	1	6
504.872	1	-2
505.042	1	1
505.213	1	-3
505.383	1	3
505.553	1	8
505.723	1	11
505.894	1	0
506.064	1	5
506.234	1	-2
506.404	1	5
506.575	1	-5
506.745	1	2
506.915	1	12
507.085	1	9
507.256	1	12
507.426	1	15
507.596	1	6
507.766	1	9
507.936	1	3
508.107	1	7
508.277	1	8
508.447	1	-7
508.617	1	6
508.788	1	1
508.958	1	16
509.128	1	5
509.298	1	2
509.468	1	12
509.639	1	2
509.809	1	-3
509.979	1	10
510.149	1	4
510.319	1	13
510.490	1	7
510.660	1	5
510.830	1	2
511.000	1	-1
511.171	1	0
511.341	1	1
511.511	1	-1
511.681	1	7
511.851	1	1
512.022	1	2
512.192	1	9
512.362	1	7
512.532	1	6
512.702	1	-14
512.873	1	9
513.043	1	-2
513.213	1	-1
513.383	1	1
513.553	1	-2
513.724	1	3
513.894	1	2
514.064	1	14
514.234	1	7
514.404	1	-4
514.575	1	3
514.745	1	3
514.915	1	7
515.085	1	1
515.255	1	10
515.425	1	11
515.596	1	12
515.766	1	-5
515.936	1	5
516.106	1	0
516.276	1	9
516.447	1	6
516.617	1	2
516.787	1	7
516.957	1	-3
517.127	1	2
517.297	1	3
517.468	1	17
517.638	1	0
517.808	1	2
517.978	1	10
518.148	1	10
518.319	1	7
518.489	1	1
518.659	1	5
518.829	1	4
518.999	1	5
519.169	1	-1
519.340	1	6
519.510	1	4
519.680	1	-4
519.850	1	16
520.020	1	2
520.190	1	14
520.361	1	9
520.531	1	2
520.701	1	8
520.871	1	-9
521.041	1	-4
521.211	1	0
521.382	1	5
521.552	1	11
521.722	1	14
521.892	1	2
522.062	1	16
522.232	1	2
522.402	1	11
522.573	1	4
522.743	1	-4
522.913	1	6
523.083	1	6
523.253	1	2
523.423	1	10
523.593	1	2
523.764	1	10
523.934	1	6
524.104	1	10
524.274	1	-4
524.444	1	4
524.614	1	9
524.784	1	1
524.955	1	0
525.125	1	9
525.295	1	5
525.465	1	8
525.635	1	3
525.805	1	0
525.975	1	4
526.146	1	2
526.316	1	8
526.486	1	5
526.656	1	11
526.826	1	14
526.996	1	8
527.166	1	13
527.337	1	4
527.507	1	3
527.677	1	17
527.847	1	6
528.017	1	13
528.187	1	13
528.357	1	7
528.527	1	6
528.698	1	0
528.868	1	4
529.038	1	-8
529.208	1	11
529.378	1	-3
529.548	1	3
529.718	1	-3
529.888	1	7
530.058	1	6
530.229	1	11
530.399	1	12
530.569	1	-5
530.739	1	0
530.909	1	20
531.079	1	1
531.249	1	4
531.419	1	18
531.589	1	12
531.760	1	14
531.930	1	5
532.100	1	19
532.270	1	8
532.440	1	-8
532.610	1	1
532.780	1	4
532.950	1	-3
533.120	1	6
533.290	1	0
533.461	1	1
533.631	1	-3
533.801	1	13
533.971	1	14
534.141	1	13
534.311	1	2
534.481	1	-4
534.651	1	10
534.821	1	-3
534.991	1	4
535.162	1	-3
535.332	1	5
535.502	1	7
535.672	1	8
535.842	1	-1
536.012	1	-8
536.182	1	5
536.352	1	-1
536.522	1	10
536.692	1	-8
536.862	1	0
537.032	1	-1
537.203	1	3
537.373	1	4
537.543	1	10
537.713	1	11
537.883	1	-3
538.053	1	-1
538.223	1	0
538.393	1	9
538.563	1	17
538.733	1	-7
538.903	1	11
539.073	1	17
539.243	1	3
539.413	1	2
539.584	1	8
539.754	1	10
539.924	1	-6
540.094	1	12
540.264	1	5
540.434	1	4
540.604	1	3
540.774	1	9
540.944	1	2
541.114	1	-5
541.284	1	1
541.454	1	5
541.624	1	-2
541.794	1	10
541.964	1	3
542.134	1	9
542.305	1	0
542.475	1	6
542.645	1	2
542.815	1	5
542.985	1	2
543.155	1	20
543.325	1	0
543.495	1	-2
543.665	1	14
543.835	1	15
544.005	1	6
544.175	1	6
544.345	1	3
544.515	1	2
544.685	1	19
544.855	1	-2
545.025	1	14
545.195	1	4
545.365	1	3
545.535	1	14
545.705	1	4
545.875	1	6
546.045	1	7
546.216	1	2
546.386	1	0
546.556	1	4
546.726	1	12
546.896	1	19
547.066	1	7
547.236	1	4
547.406	1	9
547.576	1	7
547.746	1	2
547.916	1	7
548.086	1	2
548.256	1	0
548.426	1	7
548.596	1	6
548.766	1	8
548.936	1	-3
549.106	1	4
549.276	1	4
549.446	1	2
549.616	1	-1
549.786	1	12
549.956	1	6
550.126	1	8
550.296	1	18
550.466	1	14
550.636	1	4
550.806	1	7
550.976	1	1
551.146	1	6
551.316	1	-6
551.486	1	10
551.656	1	-16
551.826	1	2
551.996	1	-2
552.166	1	5
552.336	1	8
552.506	1	-1
552.676	1	-2
552.846	1	8
553.016	1	9
553.186	1	1
553.356	1	8
553.526	1	0
553.696	1	-2
553.866	1	18
554.036	1	6
554.206	1	16
554.376	1	0
554.546	1	13
554.716	1	4
554.886	1	1
555.056	1	12
555.226	1	-3
555.396	1	5
555.566	1	4
555.736	1	11
555.906	1	4
556.076	1	4
556.246	1	8
556.416	1	10
556.586	1	-8
556.756	1	3
556.926	1	2
557.096	1	5
557.266	1	11
557.436	1	9
557.606	1	5
557.776	1	5
557.946	1	-2
558.116	1	1
558.286	1	-8
558.456	1	-1
558.626	1	10
558.796	1	7
558.966	1	4
559.136	1	0
559.306	1	9
559.476	1	8
559.646	1	8
559.816	1	2
559.986	1	-7
560.155	1	-2
560.325	1	-5
560.495	1	10
560.665	1	0
560.835	1	-5
561.005	1	-4
561.175	1	-2
561.345	1	14
561.515	1	15
561.685	1	5
561.855	1	7
562.025	1	12
562.195	1	6
562.365	1	5
562.535	1	5
562.705	1	6
562.875	1	7
563.045	1	0
563.215	1	10
563.385	1	8
563.555	1	5
563.725	1	-1
563.895	1	15
564.064	1	6
564.234	1	15
564.404	1	-1
564.574	1	-7
564.744	1	-4
564.914	1	2
565.084	1	-9
565.254	1	6
565.424	1	9
565.594	1	4
565.764	1	6
565.934	1	4
566.104	1	13
566.274	1	11
566.444	1	5
566.614	1	-1
566.783	1	-2
566.953	1	5
567.123	1	13
567.293	1	-2
567.463	1	6
567.633	1	8
567.803	1	3
567.973	1	13
568.143	1	5
568.313	1	6
568.483	1	13
568.653	1	16
568.823	1	-6
568.993	1	6
569.162	1	-2
569.332	1	11
569.502	1	10
569.672	1	7
569.842	1	15
570.012	1	9
570.182	1	1
570.352	1	-1
570.522	1	-3
570.692	1	6
570.862	1	4
571.031	1	8
571.201	1	-5
571.371	1	10
571.541	1	5
571.711	1	3
571.881	1	2
572.051	1	-8
572.221	1	3
572.391	1	9
572.561	1	4
572.731	1	-8
572.900	1	4
573.070	1	-5
573.240	1	3
573.410	1	3
573.580	1	2
573.750	1	3
573.920	1	4
574.090	1	7
574.260	1	-4
574.430	1	-3
574.599	1	7
574.769	1	3
574.939	1	2
575.109	1	-3
575.279	1	11
575.449	1	12
575.619	1	2
575.789	1	20
575.959	1	2
576.128	1	2
576.298	1	3
576.468	1	11
576.638	1	17
576.808	1	10
576.978	1	-5
577.148	1	6
577.318	1	17
577.487	1	13
577.657	1	5
577.827	1	4
577.997	1	2
578.167	1	7
578.337	1	2
578.507	1	14
578.677	1	-1
578.846	1	-1
579.016	1	10
579.186	1	-3
579.356	1	6
579.526	1	3
579.696	1	9
579.866	1	4
580.036	1	4
580.205	1	5
580.375	1	6
580.545	1	9
580.715	1	-2
580.885	1	-1
581.055	1	11
581.225	1	1
581.394	1	8
581.564	1	6
581.734	1	5
581.904	1	9
582.074	1	7
582.244	1	9
582.414	1	-4
582.583	1	7
582.753	1	11
582.923	1	-2
583.093	1	5
583.263	1	8
583.433	1	8
583.603	1	8
583.772	1	7
583.942	1	4
584.112	1	-1
584.282	1	8
584.452	1	1
584.622	1	2
584.791	1	9
584.961	1	-8
585.131	1	-6
585.301	1	4
585.471	1	13
585.641	1	7
585.811	1	2
585.980	1	10
586.150	1	-8
586.320	1	-2
586.490	1	0
586.660	1	-2
586.830	1	5
586.999	1	9
587.169	1	12
587.339	1	1
587.509	1	4
587.679	1	3
587.849	1	0
588.018	1	15
588.188	1	-5
588.358	1	12
588.528	1	12
588.698	1	-2
588.867	1	-2
589.037	1	1
589.207	1	7
589.377	1	8
589.547	1	15
589.717	1	8
589.886	1	-2
590.056	1	-5
590.226	1	2
590.396	1	10
590.566	1	2
590.735	1	14
590.905	1	-1
591.075	1	-6
591.245	1	10
591.415	1	3
591.585	1	-2
591.754	1	12
591.924	1	10
592.094	1	5
592.264	1	3
592.434	1	-2
592.603	1	12
592.773	1	-1
592.943	1	10
593.113	1	5
593.283	1	2
593.452	1	3
593.622	1	10
593.792	1	12
593.962	1	4
594.132	1	6
594.301	1	5
594.471	1	3
594.641	1	-3
594.811	1	4
594.981	1	4
595.150	1	10
595.320	1	17
595.490	1	6
595.660	1	11
595.829	1	1
595.999	1	10
596.169	1	13
596.339	1	-1
596.509	1	7
596.678	1	2
596.848	1	1
597.018	1	6
597.188	1	0
597.358	1	-2
597.527	1	-1
597.697	1	-3
597.867	1	8
598.037	1	12
598.206	1	5
598.376	1	-8
598.546	1	-7
598.716	1	5
598.885	1	7
599.055	1	4
599.225	1	13
599.395	1	-11
599.565	1	5
599.734	1	1
599.904	1	10
600.074	1	-2
600.244	1	3
600.413	1	-5
600.583	1	7
600.753	1	12
600.923	1	7
601.092	1	13
601.262	1	14
601.432	1	13
601.602	1	-5
601.771	1	8
601.941	1	3
602.111	1	-2
602.281	1	-6
602.451	1	4
602.620	1	-4
602.790	1	5
602.960	1	3
603.130	1	3
603.299	1	13
603.469	1	6
603.639	1	4
603.809	1	0
603.978	1	0
604.148	1	10
604.318	1	20
604.487	1	-2
604.657	1	-1
604.827	1	7
604.997	1	12
605.166	1	4
605.336	1	-6
605.506	1	-3
605.676	1	4
605.845	1	13
606.015	1	2
606.185	1	4
606.355	1	4
606.524	1	10
606.694	1	-2
606.864	1	-12
607.034	1	3
607.203	1	3
607.373	1	6
607.543	1	-7
607.712	1	5
607.882	1	8
608.052	1	13
608.222	1	3
608.391	1	13
608.561	1	2
608.731	1	-5
608.901	1	1
609.070	1	6
609.240	1	3
609.410	1	8
609.579	1	1
609.749	1	8
609.919	1	1
610.089	1	-2
610.258	1	-3
610.428	1	0
610.598	1	6
610.767	1	-2
610.937	1	2
611.107	1	7
611.277	1	11
611.446	1	4
611.616	1	10
611.786	1	6
611.955	1	4
612.125	1	-8
612.295	1	8
612.465	1	10
612.634	1	3
612.804	1	7
612.974	1	-2
613.143	1	5
613.313	1	6
613.483	1	4
613.652	1	4
613.822	1	1
613.992	1	3
614.162	1	-7
614.331	1	10
614.501	1	-9
614.671	1	-4
614.840	1	12
615.010	1	-7
615.180	1	6
615.349	1	3
615.519	1	7
615.689	1	-4
615.858	1	8
616.028	1	0
616.198	1	-1
616.368	1	3
616.537	1	-4
616.707	1	17
616.877	1	2
617.046	1	4
617.216	1	17
617.386	1	6
617.555	1	4
617.725	1	-2
617.895	1	6
618.064	1	5
618.234	1	-1
618.404	1	4
618.573	1	6
618.743	1	12
618.913	1	-1
619.082	1	3
619.252	1	7
619.422	1	2
619.591	1	3
619.761	1	5
619.931	1	0
620.100	1	-7
620.270	1	-1
620.440	1	5
620.609	1	-9
620.779	1	0
620.949	1	7
621.118	1	1
621.288	1	-3
621.458	1	11
621.627	1	11
621.797	1	4
621.967	1	2
622.136	1	7
622.306	1	-8
622.476	1	-5
622.645	1	-2
622.815	1	-2
622.985	1	-6
623.154	1	-8
623.324	1	2
623.494	1	20
623.663	1	8
623.833	1	-3
624.002	1	-2
624.172	1	9
624.342	1	5
624.511	1	11
624.681	1	7
624.851	1	1
625.020	1	17
625.190	1	-4
625.360	1	8
625.529	1	2
625.699	1	5
625.869	1	3
626.038	1	-2
626.208	1	-2
626.377	1	10
626.547	1	4
626.717	1	5
626.886	1	-2
627.056	1	3
627.226	1	5
627.395	1	2
627.565	1	7
627.735	1	4
627.904	1	4
628.074	1	0
628.243	1	5
628.413	1	13
628.583	1	2
628.752	1	1
628.922	1	3
629.091	1	6
629.261	1	-3
629.431	1	-4
629.600	1	3
629.770	1	-4
629.940	1	-7
630.109	1	-7
630.279	1	11
630.448	1	10
630.618	1	-1
630.788	1	-3
630.957	1	7
631.127	1	1
631.297	1	10
631.466	1	-1
631.636	1	-8
631.805	1	7
631.975	1	2
632.145	1	0
632.314	1	-3
632.484	1	6
632.653	1	-1
632.823	1	3
632.993	1	7
633.162	1	5
633.332	1	-3
633.501	1	2
633.671	1	-2
633.841	1	1
634.010	1	3
634.180	1	-2
634.349	1	5
634.519	1	3
634.689	1	8
634.858	1	-2
635.028	1	3
635.197	1	14
635.367	1	2
635.537	1	-5
635.706	1	7
635.876	1	3
636.045	1	-9
636.215	1	-2
636.384	1	-1
636.554	1	13
636.724	1	7
636.893	1	2
637.063	1	10
637.232	1	8
637.402	1	8
637.572	1	6
637.741	1	0
637.911	1	-7
638.080	1	-4
638.250	1	5
638.419	1	6
638.589	1	-4
638.759	1	9
638.928	1	10
639.098	1	10
639.267	1	-8
639.437	1	-4
639.606	1	-7
639.776	1	0
639.946	1	0
640.115	1	2
640.285	1	6
640.454	1	2
640.624	1	9
640.793	1	-1
640.963	1	-2
641.132	1	8
641.302	1	1
641.472	1	5
641.641	1	-2
641.811	1	0
641.980	1	-4
642.150	1	7
642.319	1	6
642.489	1	5
642.659	1	-8
642.828	1	-1
642.998	1	-4
643.167	1	-4
643.337	1	-3
643.506	1	9
643.676	1	9
643.845	1	3
644.015	1	0
644.184	1	1
644.354	1	-2
644.524	1	9
644.693	1	1
644.863	1	7
645.032	1	7
645.202	1	3
645.371	1	-7
645.541	1	6
645.710	1	8
645.880	1	10
646.049	1	3
646.219	1	7
646.388	1	-2
646.558	1	5
646.728	1	2
646.897	1	14
647.067	1	2
647.236	1	2
647.406	1	-4
647.575	1	8
647.745	1	5
647.914	1	-12
648.084	1	4
648.253	1	-5
648.423	1	-1
648.592	1	-1
648.762	1	7
648.931	1	5
649.101	1	-4
649.270	1	3
649.440	1	4
649.610	1	5
649.779	1	8
649.949	1	-2
650.118	1	-4
650.288	1	-2
650.457	1	2
650.627	1	3
650.796	1	-10
650.966	1	-7
651.135	1	6
651.305	1	4
651.474	1	8
651.644	1	0
651.813	1	-2
651.983	1	10
652.152	1	3
652.322	1	-3
652.491	1	17
652.661	1	8
652.830	1	11
653.000	1	1
653.169	1	1
653.339	1	11
653.508	1	4
653.678	1	-8
653.847	1	-3
654.017	1	-8
654.186	1	0
654.356	1	2
654.525	1	-1
654.695	1	-2
654.864	1	-2
655.034	1	6
655.203	1	1
655.373	1	6
655.542	1	-1
655.712	1	-6
655.881	1	3
656.051	1	-1
656.220	1	-1
656.390	1	10
656.559	1	7
656.729	1	-7
656.898	1	4
657.068	1	2
657.237	1	5
657.406	1	3
657.576	1	4
657.745	1	7
657.915	1	-6
658.084	1	6
658.254	1	11
658.423	1	9
658.593	1	8
658.762	1	3
658.932	1	0
659.101	1	2
659.271	1	3
659.440	1	-6
659.610	1	11
659.779	1	6
659.949	1	7
660.118	1	4
660.288	1	-2
660.457	1	5
660.626	1	1
660.796	1	-4
660.965	1	-5
661.135	1	1
661.304	1	5
661.474	1	-1
661.643	1	-1
661.813	1	11
661.982	1	1
662.152	1	6
662.321	1	-6
662.491	1	-3
662.660	1	1
662.829	1	3
662.999	1	12
663.168	1	10
663.338	1	-3
663.507	1	3
663.677	1	-7
663.846	1	0
664.016	1	-7
664.185	1	3
664.354	1	7
664.524	1	-13
664.693	1	0
664.863	1	12
665.032	1	4
665.202	1	-6
665.371	1	0
665.541	1	-3
665.710	1	-1
665.879	1	-4
666.049	1	-7
666.218	1	-2
666.388	1	13
666.557	1	15
666.727	1	1
666.896	1	7
667.065	1	4
667.235	1	-4
667.404	1	-5
667.574	1	1
667.743	1	7
667.913	1	3
668.082	1	7
668.251	1	2
668.421	1	0
668.590	1	9
668.760	1	4
668.929	1	-2
669.099	1	-6
669.268	1	3
669.437	1	-3
669.607	1	1
669.776	1	-6
669.946	1	-2
670.115	1	-2
670.285	1	2
670.454	1	12
670.623	1	-8
670.793	1	4
670.962	1	8
671.132	1	-2
671.301	1	0
671.470	1	2
671.640	1	-4
671.809	1	-5
671.979	1	12
672.148	1	0
672.317	1	0
672.487	1	7
672.656	1	5
672.826	1	2
672.995	1	-2
673.164	1	21
673.334	1	2
673.503	1	3
673.673	1	-13
673.842	1	-6
674.011	1	-3
674.181	1	9
674.350	1	5
674.520	1	11
674.689	1	-8
674.858	1	-4
675.028	1	2
675.197	1	4
675.367	1	3
675.536	1	21
675.705	1	4
675.875	1	-8
676.044	1	0
676.214	1	1
676.383	1	8
676.552	1	-1
676.722	1	-2
676.891	1	-3
677.060	1	-2
677.230	1	2
677.399	1	14
677.569	1	7
677.738	1	6
677.907	1	-2
678.077	1	15
678.246	1	-13
678.416	1	6
678.585	1	-5
678.754	1	5
678.924	1	5
679.093	1	8
679.262	1	15
679.432	1	9
679.601	1	3
679.771	1	-5
679.940	1	0
680.109	1	-3
680.279	1	8
680.448	1	1
680.617	1	4
680.787	1	0
680.956	1	-10
681.125	1	1
681.295	1	13
681.464	1	2
681.634	1	0
681.803	1	-4
681.972	1	0
682.142	1	5
682.311	1	-2
682.480	1	7
682.650	1	-3
682.819	1	5
682.988	1	2
683.158	1	5
683.327	1	5
683.496	1	-4
683.666	1	6
683.835	1	-4
684.004	1	9
684.174	1	-1
684.343	1	1
684.512	1	4
684.682	1	3
684.851	1	6
685.021	1	5
685.190	1	14
685.359	1	-10
685.529	1	-1
685.698	1	4
685.867	1	1
686.037	1	10
686.206	1	8
686.375	1	1
686.545	1	-9
686.714	1	0
686.883	1	-6
687.053	1	-2
687.222	1	-3
687.391	1	1
687.561	1	4
687.730	1	-1
687.899	1	7
688.069	1	-8
688.238	1	-1
688.407	1	7
688.577	1	-4
688.746	1	-6
