340.368	1	2
340.539	1	7
340.710	1	6
340.881	1	9
341.052	1	16
341.223	1	-13
341.394	1	4
341.565	1	16
341.737	1	8
341.908	1	-4
342.079	1	11
342.250	1	18
342.421	1	2
342.592	1	2
342.763	1	-5
342.934	1	11
343.105	1	-3
343.276	1	5
343.447	1	17
343.618	1	12
343.789	1	21
343.960	1	10
344.131	1	18
344.302	1	18
344.473	1	10
344.644	1	4
344.815	1	2
344.986	1	3
345.157	1	2
345.328	1	3
345.499	1	10
345.670	1	8
345.841	1	-3
346.012	1	11
346.183	1	1
346.354	1	18
346.526	1	5
346.697	1	12
346.868	1	11
347.039	1	9
347.210	1	1
347.381	1	9
347.552	1	19
347.723	1	12
347.894	1	5
348.065	1	2
348.236	1	4
348.407	1	16
348.578	1	6
348.749	1	8
348.920	1	2
349.091	1	15
349.262	1	8
349.433	1	12
349.604	1	14
349.775	1	14
349.946	1	12
350.117	1	9
350.288	1	20
350.459	1	3
350.630	1	6
350.801	1	19
350.972	1	29
351.143	1	13
351.314	1	17
351.485	1	18
351.656	1	26
351.827	1	14
351.998	1	16
352.169	1	16
352.340	1	18
352.511	1	25
352.682	1	15
352.853	1	15
353.024	1	32
353.195	1	12
353.366	1	9
353.537	1	32
353.708	1	24
353.879	1	30
354.050	1	27
354.221	1	14
354.392	1	29
354.563	1	29
354.734	1	17
354.905	1	31
355.076	1	24
355.247	1	38
355.418	1	29
355.589	1	27
355.760	1	28
355.931	1	37
356.102	1	29
356.273	1	43
356.444	1	44
356.615	1	49
356.785	1	44
356.956	1	54
357.127	1	53
357.298	1	49
357.469	1	46
357.640	1	53
357.811	1	51
357.982	1	63
358.153	1	55
358.324	1	62
358.495	1	77
358.666	1	74
358.837	1	67
359.008	1	67
359.179	1	71
359.350	1	83
359.521	1	78
359.692	1	94
359.863	1	96
360.034	1	95
360.205	1	105
360.376	1	109
360.547	1	110
360.718	1	126
360.889	1	131
361.060	1	134
361.231	1	135
361.401	1	148
361.572	1	159
361.743	1	171
361.914	1	189
362.085	1	193
362.256	1	184
362.427	1	215
362.598	1	222
362.769	1	246
362.940	1	256
363.111	1	278
363.282	1	293
363.453	1	313
363.624	1	320
363.795	1	339
363.966	1	363
364.137	1	390
364.308	1	421
364.478	1	427
364.649	1	495
364.820	1	488
364.991	1	524
365.162	1	565
365.333	1	591
365.504	1	630
365.675	1	674
365.846	1	702
366.017	1	731
366.188	1	798
366.359	1	824
366.530	1	853
366.701	1	878
366.871	1	921
367.042	1	957
367.213	1	993
367.384	1	1042
367.555	1	1052
367.726	1	1074
367.897	1	1090
368.068	1	1117
368.239	1	1122
368.410	1	1117
368.581	1	1124
368.752	1	1124
368.923	1	1155
369.093	1	1150
369.264	1	1129
369.435	1	1106
369.606	1	1097
369.777	1	1076
369.948	1	1014
370.119	1	1035
370.290	1	991
370.461	1	1010
370.632	1	926
370.803	1	893
370.973	1	893
371.144	1	853
371.315	1	838
371.486	1	806
371.657	1	778
371.828	1	733
371.999	1	700
372.170	1	687
372.341	1	683
372.512	1	651
372.682	1	638
372.853	1	601
373.024	1	598
373.195	1	575
373.366	1	544
373.537	1	540
373.708	1	539
373.879	1	491
374.050	1	497
374.220	1	485
374.391	1	471
374.562	1	454
374.733	1	452
374.904	1	428
375.075	1	410
375.246	1	435
375.417	1	390
375.588	1	384
375.758	1	376
375.929	1	373
376.100	1	355
376.271	1	358
376.442	1	323
376.613	1	333
376.784	1	304
376.955	1	316
377.125	1	305
377.296	1	306
377.467	1	292
377.638	1	281
377.809	1	275
377.980	1	261
378.151	1	253
378.321	1	252
378.492	1	226
378.663	1	229
378.834	1	227
379.005	1	223
379.176	1	221
379.347	1	221
379.518	1	210
379.688	1	193
379.859	1	185
380.030	1	192
380.201	1	175
380.372	1	172
380.543	1	174
380.714	1	175
380.884	1	166
381.055	1	161
381.226	1	164
381.397	1	174
381.568	1	143
381.739	1	155
381.910	1	139
382.080	1	138
382.251	1	145
382.422	1	148
382.593	1	139
382.764	1	137
382.935	1	133
383.105	1	124
383.276	1	143
383.447	1	136
383.618	1	135
383.789	1	121
383.960	1	119
384.130	1	130
384.301	1	127
384.472	1	120
384.643	1	111
384.814	1	114
384.985	1	138
385.156	1	116
385.326	1	120
385.497	1	103
385.668	1	105
385.839	1	106
386.010	1	110
386.180	1	96
386.351	1	96
386.522	1	94
386.693	1	103
386.864	1	94
387.035	1	101
387.205	1	77
387.376	1	87
387.547	1	98
387.718	1	78
387.889	1	81
388.060	1	82
388.230	1	76
388.401	1	87
388.572	1	83
388.743	1	84
388.914	1	86
389.084	1	77
389.255	1	74
389.426	1	73
389.597	1	64
389.768	1	88
389.939	1	76
390.109	1	76
390.280	1	74
390.451	1	65
390.622	1	86
390.793	1	65
390.963	1	70
391.134	1	58
391.305	1	62
391.476	1	75
391.647	1	55
391.817	1	68
391.988	1	56
392.159	1	55
392.330	1	56
392.501	1	55
392.671	1	40
392.842	1	47
393.013	1	53
393.184	1	57
393.355	1	45
393.525	1	44
393.696	1	53
393.867	1	52
394.038	1	55
394.208	1	47
394.379	1	55
394.550	1	50
394.721	1	47
394.892	1	46
395.062	1	50
395.233	1	51
395.404	1	52
395.575	1	61
395.746	1	41
395.916	1	49
396.087	1	49
396.258	1	48
396.429	1	39
396.599	1	40
396.770	1	48
396.941	1	45
397.112	1	40
397.283	1	44
397.453	1	40
397.624	1	48
397.795	1	42
397.966	1	46
398.136	1	36
398.307	1	43
398.478	1	41
398.649	1	46
398.819	1	32
398.990	1	38
399.161	1	44
399.332	1	36
399.503	1	33
399.673	1	45
399.844	1	33
400.015	1	30
400.186	1	24
400.356	1	45
400.527	1	25
400.698	1	28
400.869	1	24
401.039	1	30
401.210	1	35
401.381	1	30
401.552	1	22
401.722	1	32
401.893	1	43
402.064	1	25
402.235	1	31
402.405	1	29
402.576	1	18
402.747	1	25
402.918	1	26
403.088	1	23
403.259	1	39
403.430	1	20
403.601	1	17
403.771	1	32
403.942	1	23
404.113	1	26
404.284	1	28
404.454	1	22
404.625	1	31
404.796	1	19
404.967	1	12
405.137	1	24
405.308	1	26
405.479	1	16
405.649	1	24
405.820	1	31
405.991	1	18
406.162	1	31
406.332	1	28
406.503	1	24
406.674	1	15
406.845	1	36
407.015	1	30
407.186	1	9
407.357	1	16
407.527	1	13
407.698	1	18
407.869	1	21
408.040	1	27
408.210	1	24
408.381	1	32
408.552	1	30
408.722	1	20
408.893	1	27
409.064	1	13
409.235	1	22
409.405	1	16
409.576	1	14
409.747	1	21
409.917	1	14
410.088	1	22
410.259	1	16
410.430	1	21
410.600	1	17
410.771	1	16
410.942	1	20
411.112	1	30
411.283	1	9
411.454	1	24
411.625	1	22
411.795	1	12
411.966	1	14
412.137	1	10
412.307	1	23
412.478	1	23
412.649	1	18
412.819	1	25
412.990	1	11
413.161	1	11
413.332	1	18
413.502	1	7
413.673	1	18
413.844	1	10
414.014	1	19
414.185	1	13
414.356	1	11
414.526	1	3
414.697	1	15
414.868	1	15
415.038	1	22
415.209	1	18
415.380	1	12
415.550	1	32
415.721	1	11
415.892	1	16
416.063	1	7
416.233	1	16
416.404	1	9
416.575	1	15
416.745	1	16
416.916	1	14
417.087	1	11
417.257	1	8
417.428	1	18
417.599	1	14
417.769	1	19
417.940	1	11
418.111	1	26
418.281	1	30
418.452	1	15
418.623	1	3
418.793	1	20
418.964	1	10
419.135	1	7
419.305	1	18
419.476	1	19
419.647	1	9
419.817	1	13
419.988	1	11
420.159	1	20
420.329	1	13
420.500	1	22
420.671	1	11
420.841	1	14
421.012	1	21
421.183	1	6
421.353	1	7
421.524	1	7
421.695	1	13
421.865	1	13
422.036	1	8
422.206	1	9
422.377	1	12
422.548	1	19
422.718	1	15
422.889	1	13
423.060	1	11
423.230	1	14
423.401	1	8
423.572	1	29
423.742	1	14
423.913	1	8
424.084	1	13
424.254	1	9
424.425	1	12
424.595	1	18
424.766	1	6
424.937	1	16
425.107	1	15
425.278	1	3
425.449	1	11
425.619	1	22
425.790	1	18
425.961	1	12
426.131	1	10
426.302	1	5
426.472	1	18
426.643	1	7
426.814	1	13
426.984	1	6
427.155	1	20
427.326	1	7
427.496	1	17
427.667	1	7
427.837	1	8
428.008	1	10
428.179	1	12
428.349	1	11
428.520	1	13
428.691	1	16
428.861	1	11
429.032	1	16
429.202	1	15
429.373	1	23
429.544	1	14
429.714	1	1
429.885	1	7
430.055	1	10
430.226	1	8
430.397	1	26
430.567	1	6
430.738	1	2
430.909	1	18
431.079	1	18
431.250	1	18
431.420	1	9
431.591	1	19
431.762	1	4
431.932	1	13
432.103	1	5
432.273	1	15
432.444	1	7
432.615	1	15
432.785	1	19
432.956	1	17
433.126	1	19
433.297	1	7
433.468	1	3
433.638	1	12
433.809	1	8
433.979	1	2
434.150	1	20
434.320	1	3
434.491	1	11
434.662	1	11
434.832	1	4
435.003	1	8
435.173	1	7
435.344	1	1
435.515	1	2
435.685	1	7
435.856	1	17
436.026	1	8
436.197	1	4
436.368	1	6
436.538	1	11
436.709	1	6
436.879	1	8
437.050	1	13
437.220	1	18
437.391	1	6
437.562	1	14
437.732	1	8
437.903	1	8
438.073	1	8
438.244	1	13
438.414	1	-6
438.585	1	-3
438.756	1	15
438.926	1	8
439.097	1	13
439.267	1	15
439.438	1	6
439.608	1	12
439.779	1	13
439.949	1	10
440.120	1	9
440.291	1	2
440.461	1	6
440.632	1	10
440.802	1	16
440.973	1	13
441.143	1	5
441.314	1	-3
441.485	1	16
441.655	1	11
441.826	1	7
441.996	1	9
442.167	1	12
442.337	1	11
442.508	1	5
442.678	1	2
442.849	1	20
443.019	1	15
443.190	1	1
443.361	1	7
443.531	1	14
443.702	1	14
443.872	1	4
444.043	1	6
444.213	1	16
444.384	1	12
444.554	1	12
444.725	1	17
444.895	1	13
445.066	1	12
445.237	1	16
445.407	1	7
445.578	1	10
445.748	1	13
445.919	1	-15
446.089	1	20
446.260	1	8
446.430	1	12
446.601	1	14
446.771	1	12
446.942	1	3
447.112	1	13
447.283	1	12
447.453	1	8
447.624	1	11
447.794	1	11
447.965	1	10
448.135	1	6
448.306	1	13
448.477	1	15
448.647	1	11
448.818	1	16
448.988	1	6
449.159	1	21
449.329	1	8
449.500	1	-5
449.670	1	-8
449.841	1	-4
450.011	1	13
450.182	1	13
450.352	1	15
450.523	1	7
450.693	1	5
450.864	1	5
451.034	1	20
451.205	1	8
451.375	1	2
451.546	1	4
451.716	1	6
451.887	1	20
452.057	1	5
452.228	1	11
452.398	1	11
452.569	1	14
452.739	1	13
452.910	1	14
453.080	1	11
453.251	1	4
453.421	1	4
453.592	1	11
453.762	1	9
453.933	1	-1
454.103	1	1
454.274	1	13
454.444	1	6
454.615	1	7
454.785	1	6
454.956	1	10
455.126	1	8
455.297	1	11
455.467	1	12
455.638	1	4
455.808	1	11
455.979	1	-3
456.149	1	2
456.320	1	2
456.490	1	4
456.661	1	11
456.831	1	6
457.001	1	20
457.172	1	2
457.342	1	10
457.513	1	16
457.683	1	11
457.854	1	10
458.024	1	3
458.195	1	0
458.365	1	9
458.536	1	9
458.706	1	15
458.877	1	4
459.047	1	9
459.218	1	11
459.388	1	3
459.559	1	9
459.729	1	3
459.899	1	12
460.070	1	-9
460.240	1	8
460.411	1	11
460.581	1	9
460.752	1	2
460.922	1	1
461.093	1	5
461.263	1	11
461.434	1	8
461.604	1	11
461.775	1	-6
461.945	1	5
462.115	1	11
462.286	1	17
462.456	1	6
462.627	1	12
462.797	1	2
462.968	1	14
463.138	1	15
463.309	1	5
463.479	1	16
463.649	1	8
463.820	1	17
463.990	1	15
464.161	1	5
464.331	1	2
464.502	1	10
464.672	1	24
464.843	1	13
465.013	1	5
465.183	1	5
465.354	1	6
465.524	1	17
465.695	1	16
465.865	1	7
466.036	1	10
466.206	1	14
466.376	1	2
466.547	1	15
466.717	1	13
466.888	1	5
467.058	1	14
467.229	1	18
467.399	1	14
467.569	1	19
467.740	1	6
467.910	1	11
468.081	1	5
468.251	1	16
468.422	1	12
468.592	1	11
468.762	1	19
468.933	1	8
469.103	1	12
469.274	1	19
469.444	1	6
469.614	1	6
469.785	1	11
469.955	1	16
470.126	1	3
470.296	1	14
470.467	1	10
470.637	1	6
470.807	1	21
470.978	1	5
471.148	1	11
471.319	1	19
471.489	1	8
471.659	1	5
471.830	1	8
472.000	1	7
472.171	1	4
472.341	1	11
472.511	1	11
472.682	1	13
472.852	1	16
473.023	1	7
473.193	1	8
473.363	1	14
473.534	1	17
473.704	1	11
473.875	1	12
474.045	1	25
474.215	1	19
474.386	1	9
474.556	1	20
474.727	1	16
474.897	1	7
475.067	1	14
475.238	1	12
475.408	1	7
475.578	1	13
475.749	1	17
475.919	1	20
476.090	1	18
476.260	1	19
476.430	1	17
476.601	1	13
476.771	1	22
476.942	1	13
477.112	1	19
477.282	1	10
477.453	1	14
477.623	1	25
477.793	1	2
477.964	1	30
478.134	1	28
478.305	1	19
478.475	1	13
478.645	1	13
478.816	1	12
478.986	1	25
479.156	1	10
479.327	1	15
479.497	1	13
479.667	1	19
479.838	1	18
480.008	1	23
480.179	1	13
480.349	1	18
480.519	1	20
480.690	1	23
480.860	1	34
481.030	1	17
481.201	1	36
481.371	1	28
481.541	1	20
481.712	1	23
481.882	1	24
482.053	1	18
482.223	1	27
482.393	1	14
482.564	1	20
482.734	1	39
482.904	1	26
483.075	1	18
483.245	1	13
483.415	1	19
483.586	1	30
483.756	1	29
483.926	1	27
484.097	1	35
484.267	1	26
484.437	1	34
484.608	1	32
484.778	1	33
484.948	1	36
485.119	1	36
485.289	1	31
485.459	1	47
485.630	1	30
485.800	1	23
485.970	1	27
486.141	1	40
486.311	1	29
486.481	1	42
486.652	1	43
486.822	1	36
486.992	1	40
487.163	1	32
487.333	1	31
487.503	1	40
487.674	1	43
487.844	1	30
488.014	1	39
488.185	1	34
488.355	1	36
488.525	1	45
488.696	1	46
488.866	1	34
489.036	1	46
489.207	1	47
489.377	1	45
489.547	1	31
489.718	1	43
489.888	1	44
490.058	1	45
490.228	1	45
490.399	1	45
490.569	1	50
490.739	1	51
490.910	1	46
491.080	1	42
491.250	1	37
491.421	1	48
491.591	1	43
491.761	1	63
491.932	1	46
492.102	1	43
492.272	1	32
492.442	1	50
492.613	1	48
492.783	1	39
492.953	1	53
493.124	1	35
493.294	1	49
493.464	1	55
493.635	1	56
493.805	1	55
493.975	1	61
494.145	1	52
494.316	1	45
494.486	1	43
494.656	1	44
494.827	1	46
494.997	1	53
495.167	1	62
495.337	1	59
495.508	1	66
495.678	1	56
495.848	1	62
496.019	1	65
496.189	1	60
496.359	1	52
496.529	1	70
496.700	1	63
496.870	1	53
497.040	1	55
497.211	1	59
497.381	1	69
497.551	1	72
497.721	1	56
497.892	1	67
498.062	1	63
498.232	1	62
498.403	1	72
498.573	1	72
498.743	1	61
498.913	1	67
499.084	1	73
499.254	1	74
499.424	1	62
499.594	1	74
499.765	1	67
499.935	1	79
500.105	1	73
500.275	1	68
500.446	1	78
500.616	1	82
500.786	1	66
500.956	1	85
501.127	1	76
501.297	1	78
501.467	1	75
501.638	1	79
501.808	1	76
501.978	1	87
502.148	1	78
502.319	1	99
502.489	1	86
502.659	1	86
502.829	1	84
503.000	1	89
503.170	1	83
503.340	1	83
503.510	1	82
503.681	1	83
503.851	1	71
504.021	1	82
504.191	1	101
504.362	1	94
504.532	1	83
504.702	1	86
504.872	1	89
505.042	1	104
505.213	1	92
505.383	1	101
505.553	1	99
505.723	1	103
505.894	1	90
506.064	1	81
506.234	1	78
506.404	1	103
506.575	1	86
506.745	1	85
506.915	1	108
507.085	1	105
507.256	1	109
507.426	1	106
507.596	1	98
507.766	1	104
507.936	1	75
508.107	1	104
508.277	1	108
508.447	1	97
508.617	1	101
508.788	1	99
508.958	1	106
509.128	1	112
509.298	1	96
509.468	1	109
509.639	1	108
509.809	1	93
509.979	1	101
510.149	1	108
510.319	1	110
510.490	1	119
510.660	1	106
510.830	1	104
511.000	1	86
511.171	1	98
511.341	1	113
511.511	1	101
511.681	1	117
511.851	1	116
512.022	1	106
512.192	1	118
512.362	1	117
512.532	1	118
512.702	1	109
512.873	1	112
513.043	1	112
513.213	1	104
513.383	1	115
513.553	1	105
513.724	1	116
513.894	1	124
514.064	1	119
514.234	1	129
514.404	1	115
514.575	1	111
514.745	1	115
514.915	1	110
515.085	1	120
515.255	1	123
515.425	1	118
515.596	1	122
515.766	1	127
515.936	1	127
516.106	1	117
516.276	1	131
516.447	1	124
516.617	1	116
516.787	1	134
516.957	1	102
517.127	1	122
517.297	1	122
517.468	1	133
517.638	1	119
517.808	1	127
517.978	1	134
518.148	1	132
518.319	1	119
518.489	1	123
518.659	1	135
518.829	1	134
518.999	1	124
519.169	1	125
519.340	1	128
519.510	1	131
519.680	1	116
519.850	1	131
520.020	1	123
520.190	1	134
520.361	1	134
520.531	1	132
520.701	1	141
520.871	1	125
521.041	1	137
521.211	1	123
521.382	1	143
521.552	1	143
521.722	1	143
521.892	1	132
522.062	1	134
522.232	1	136
522.402	1	132
522.573	1	134
522.743	1	122
522.913	1	140
523.083	1	145
523.253	1	126
523.423	1	136
523.593	1	141
523.764	1	145
523.934	1	143
524.104	1	149
524.274	1	139
524.444	1	149
524.614	1	159
524.784	1	147
524.955	1	136
525.125	1	148
525.295	1	152
525.465	1	144
525.635	1	143
525.805	1	154
525.975	1	145
526.146	1	155
526.316	1	146
526.486	1	148
526.656	1	156
526.826	1	168
526.996	1	149
527.166	1	167
527.337	1	157
527.507	1	146
527.677	1	168
527.847	1	142
528.017	1	162
528.187	1	178
528.357	1	154
528.527	1	165
528.698	1	154
528.868	1	152
529.038	1	151
529.208	1	154
529.378	1	153
529.548	1	153
529.718	1	153
529.888	1	151
530.058	1	153
530.229	1	161
530.399	1	166
530.569	1	142
530.739	1	158
530.909	1	160
531.079	1	154
531.249	1	157
531.419	1	154
531.589	1	169
531.760	1	153
531.930	1	145
532.100	1	174
532.270	1	142
532.440	1	134
532.610	1	147
532.780	1	149
532.950	1	144
533.120	1	143
533.290	1	154
533.461	1	151
533.631	1	138
533.801	1	155
533.971	1	142
534.141	1	157
534.311	1	147
534.481	1	136
534.651	1	145
534.821	1	131
534.991	1	144
535.162	1	135
535.332	1	147
535.502	1	125
535.672	1	149
535.842	1	138
536.012	1	137
536.182	1	132
536.352	1	136
536.522	1	143
536.692	1	125
536.862	1	125
537.032	1	128
537.203	1	130
537.373	1	141
537.543	1	136
537.713	1	145
537.883	1	127
538.053	1	149
538.223	1	129
538.393	1	136
538.563	1	147
538.733	1	123
538.903	1	137
539.073	1	144
539.243	1	132
539.413	1	122
539.584	1	130
539.754	1	134
539.924	1	131
540.094	1	149
540.264	1	146
540.434	1	139
540.604	1	151
540.774	1	141
540.944	1	137
541.114	1	130
541.284	1	152
541.454	1	153
541.624	1	140
541.794	1	147
541.964	1	150
542.134	1	141
542.305	1	140
542.475	1	152
542.645	1	160
542.815	1	140
542.985	1	141
543.155	1	152
543.325	1	142
543.495	1	147
543.665	1	153
543.835	1	145
544.005	1	144
544.175	1	145
544.345	1	147
544.515	1	153
544.685	1	163
544.855	1	148
545.025	1	154
545.195	1	153
545.365	1	143
545.535	1	157
545.705	1	153
545.875	1	165
546.045	1	129
546.216	1	156
546.386	1	146
546.556	1	151
546.726	1	154
546.896	1	167
547.066	1	161
547.236	1	138
547.406	1	154
547.576	1	160
547.746	1	138
547.916	1	148
548.086	1	148
548.256	1	134
548.426	1	151
548.596	1	138
548.766	1	147
548.936	1	141
549.106	1	141
549.276	1	131
549.446	1	138
549.616	1	137
549.786	1	154
549.956	1	138
550.126	1	148
550.296	1	149
550.466	1	154
550.636	1	147
550.806	1	142
550.976	1	140
551.146	1	145
551.316	1	146
551.486	1	133
551.656	1	136
551.826	1	122
551.996	1	132
552.166	1	140
552.336	1	138
552.506	1	131
552.676	1	133
552.846	1	134
553.016	1	125
553.186	1	120
553.356	1	136
553.526	1	132
553.696	1	133
553.866	1	142
554.036	1	136
554.206	1	135
554.376	1	125
554.546	1	141
554.716	1	128
554.886	1	118
555.056	1	128
555.226	1	120
555.396	1	129
555.566	1	131
555.736	1	121
555.906	1	118
556.076	1	128
556.246	1	132
556.416	1	126
556.586	1	120
556.756	1	121
556.926	1	127
557.096	1	137
557.266	1	117
557.436	1	129
557.606	1	127
557.776	1	117
557.946	1	114
558.116	1	120
558.286	1	124
558.456	1	114
558.626	1	130
558.796	1	138
558.966	1	130
559.136	1	116
559.306	1	132
559.476	1	128
559.646	1	133
559.816	1	119
559.986	1	116
560.155	1	129
560.325	1	125
560.495	1	120
560.665	1	127
560.835	1	131
561.005	1	123
561.175	1	111
561.345	1	127
561.515	1	122
561.685	1	121
561.855	1	115
562.025	1	121
562.195	1	126
562.365	1	132
562.535	1	116
562.705	1	123
562.875	1	126
563.045	1	111
563.215	1	117
563.385	1	123
563.555	1	117
563.725	1	119
563.895	1	123
564.064	1	110
564.234	1	121
564.404	1	120
564.574	1	113
564.744	1	111
564.914	1	128
565.084	1	109
565.254	1	109
565.424	1	115
565.594	1	115
565.764	1	101
565.934	1	109
566.104	1	121
566.274	1	117
566.444	1	113
566.614	1	111
566.783	1	118
566.953	1	106
567.123	1	117
567.293	1	101
567.463	1	116
567.633	1	106
567.803	1	113
567.973	1	104
568.143	1	111
568.313	1	113
568.483	1	108
568.653	1	113
568.823	1	92
568.993	1	111
569.162	1	103
569.332	1	120
569.502	1	108
569.672	1	116
569.842	1	109
570.012	1	119
570.182	1	107
570.352	1	111
570.522	1	99
570.692	1	97
570.862	1	100
571.031	1	104
571.201	1	102
571.371	1	100
571.541	1	99
571.711	1	96
571.881	1	104
572.051	1	100
572.221	1	103
572.391	1	99
572.561	1	90
572.731	1	86
572.900	1	96
573.070	1	103
573.240	1	103
573.410	1	101
573.580	1	117
573.750	1	103
573.920	1	114
574.090	1	92
574.260	1	89
574.430	1	109
574.599	1	100
574.769	1	102
574.939	1	92
575.109	1	93
575.279	1	95
575.449	1	106
575.619	1	98
575.789	1	120
575.959	1	90
576.128	1	97
576.298	1	81
576.468	1	106
576.638	1	106
576.808	1	116
576.978	1	102
577.148	1	113
577.318	1	106
577.487	1	106
577.657	1	93
577.827	1	92
577.997	1	96
578.167	1	103
578.337	1	108
578.507	1	102
578.677	1	89
578.846	1	98
579.016	1	116
579.186	1	96
579.356	1	106
579.526	1	105
579.696	1	98
579.866	1	99
580.036	1	100
580.205	1	99
580.375	1	92
580.545	1	96
580.715	1	92
580.885	1	85
581.055	1	102
581.225	1	103
581.394	1	93
581.564	1	91
581.734	1	81
581.904	1	88
582.074	1	90
582.244	1	104
582.414	1	85
582.583	1	89
582.753	1	89
582.923	1	91
583.093	1	80
583.263	1	95
583.433	1	95
583.603	1	87
583.772	1	92
583.942	1	79
584.112	1	90
584.282	1	100
584.452	1	96
584.622	1	82
584.791	1	92
584.961	1	88
585.131	1	75
585.301	1	74
585.471	1	93
585.641	1	88
585.811	1	99
585.980	1	87
586.150	1	72
586.320	1	78
586.490	1	80
586.660	1	90
586.830	1	80
586.999	1	75
587.169	1	73
587.339	1	72
587.509	1	78
587.679	1	82
587.849	1	68
588.018	1	95
588.188	1	74
588.358	1	83
588.528	1	82
588.698	1	80
588.867	1	76
589.037	1	68
589.207	1	73
589.377	1	82
589.547	1	78
589.717	1	74
589.886	1	67
590.056	1	78
590.226	1	65
590.396	1	77
590.566	1	69
590.735	1	88
590.905	1	59
591.075	1	65
591.245	1	82
591.415	1	67
591.585	1	67
591.754	1	72
591.924	1	83
592.094	1	69
592.264	1	72
592.434	1	74
592.603	1	67
592.773	1	65
592.943	1	82
593.113	1	62
593.283	1	71
593.452	1	70
593.622	1	69
593.792	1	80
593.962	1	72
594.132	1	76
594.301	1	85
594.471	1	64
594.641	1	63
594.811	1	62
594.981	1	55
595.150	1	72
595.320	1	79
595.490	1	83
595.660	1	83
595.829	1	76
595.999	1	72
596.169	1	81
596.339	1	71
596.509	1	82
596.678	1	69
596.848	1	76
597.018	1	58
597.188	1	66
597.358	1	58
597.527	1	78
597.697	1	68
597.867	1	80
598.037	1	77
598.206	1	65
598.376	1	55
598.546	1	54
598.716	1	85
598.885	1	81
599.055	1	64
599.225	1	74
599.395	1	69
599.565	1	64
599.734	1	74
599.904	1	74
600.074	1	65
600.244	1	75
600.413	1	68
600.583	1	81
600.753	1	77
600.923	1	80
601.092	1	68
601.262	1	79
601.432	1	73
601.602	1	74
601.771	1	76
601.941	1	64
602.111	1	79
602.281	1	68
602.451	1	72
602.620	1	71
602.790	1	81
602.960	1	61
603.130	1	72
603.299	1	74
603.469	1	70
603.639	1	67
603.809	1	68
603.978	1	63
604.148	1	78
604.318	1	86
604.487	1	56
604.657	1	67
604.827	1	73
604.997	1	69
605.166	1	67
605.336	1	53
605.506	1	57
605.676	1	71
605.845	1	71
606.015	1	69
606.185	1	73
606.355	1	75
606.524	1	75
606.694	1	59
606.864	1	51
607.034	1	64
607.203	1	73
607.373	1	69
607.543	1	68
607.712	1	72
607.882	1	68
608.052	1	74
608.222	1	52
608.391	1	65
608.561	1	69
608.731	1	58
608.901	1	61
609.070	1	73
609.240	1	73
609.410	1	62
609.579	1	54
609.749	1	61
609.919	1	48
610.089	1	61
610.258	1	62
610.428	1	63
610.598	1	59
610.767	1	55
610.937	1	57
611.107	1	52
611.277	1	66
611.446	1	60
611.616	1	63
611.786	1	60
611.955	1	54
612.125	1	62
612.295	1	58
612.465	1	69
612.634	1	59
612.804	1	59
612.974	1	55
613.143	1	60
613.313	1	55
613.483	1	67
613.652	1	50
613.822	1	52
613.992	1	56
614.162	1	53
614.331	1	57
614.501	1	61
614.671	1	56
614.840	1	52
615.010	1	51
615.180	1	56
615.349	1	55
615.519	1	65
615.689	1	58
615.858	1	57
616.028	1	54
616.198	1	54
616.368	1	61
616.537	1	50
616.707	1	69
616.877	1	49
617.046	1	65
617.216	1	75
617.386	1	59
617.555	1	55
617.725	1	49
617.895	1	54
618.064	1	45
618.234	1	57
618.404	1	59
618.573	1	54
618.743	1	61
618.913	1	53
619.082	1	60
619.252	1	61
619.422	1	51
619.591	1	49
619.761	1	47
619.931	1	45
620.100	1	50
620.270	1	48
620.440	1	52
620.609	1	41
620.779	1	48
620.949	1	57
621.118	1	53
621.288	1	59
621.458	1	48
621.627	1	58
621.797	1	51
621.967	1	53
622.136	1	54
622.306	1	43
622.476	1	52
622.645	1	43
622.815	1	39
622.985	1	51
623.154	1	42
623.324	1	48
623.494	1	65
623.663	1	61
623.833	1	62
624.002	1	54
624.172	1	51
624.342	1	53
624.511	1	60
624.681	1	47
624.851	1	50
625.020	1	62
625.190	1	50
625.360	1	54
625.529	1	45
625.699	1	52
625.869	1	44
626.038	1	50
626.208	1	42
626.377	1	47
626.547	1	49
626.717	1	50
626.886	1	43
627.056	1	45
627.226	1	44
627.395	1	48
627.565	1	55
627.735	1	52
627.904	1	57
628.074	1	47
628.243	1	46
628.413	1	51
628.583	1	46
628.752	1	42
628.922	1	51
629.091	1	46
629.261	1	45
629.431	1	40
629.600	1	54
629.770	1	54
629.940	1	51
630.109	1	38
630.279	1	51
630.448	1	53
630.618	1	40
630.788	1	39
630.957	1	53
631.127	1	43
631.297	1	58
631.466	1	53
631.636	1	42
631.805	1	36
631.975	1	52
632.145	1	42
632.314	1	36
632.484	1	37
632.653	1	48
632.823	1	46
632.993	1	51
633.162	1	51
633.332	1	39
633.501	1	39
633.671	1	43
633.841	1	36
634.010	1	38
634.180	1	30
634.349	1	51
634.519	1	39
634.689	1	57
634.858	1	42
635.028	1	47
635.197	1	44
635.367	1	48
635.537	1	33
635.706	1	54
635.876	1	45
636.045	1	41
636.215	1	41
636.384	1	32
636.554	1	51
636.724	1	52
636.893	1	34
637.063	1	40
637.232	1	54
637.402	1	40
637.572	1	50
637.741	1	33
637.911	1	39
638.080	1	39
638.250	1	46
638.419	1	40
638.589	1	39
638.759	1	55
638.928	1	44
639.098	1	41
639.267	1	27
639.437	1	39
639.606	1	49
639.776	1	37
639.946	1	38
640.115	1	44
640.285	1	47
640.454	1	43
640.624	1	51
640.793	1	42
640.963	1	35
641.132	1	39
641.302	1	45
641.472	1	33
641.641	1	33
641.811	1	40
641.980	1	36
642.150	1	47
642.319	1	44
642.489	1	40
642.659	1	35
642.828	1	40
642.998	1	43
643.167	1	33
643.337	1	39
643.506	1	44
643.676	1	36
643.845	1	39
644.015	1	37
644.184	1	43
644.354	1	41
644.524	1	42
644.693	1	45
644.863	1	40
645.032	1	33
645.202	1	41
645.371	1	27
645.541	1	37
645.710	1	37
645.880	1	45
646.049	1	43
646.219	1	45
646.388	1	33
646.558	1	35
646.728	1	37
646.897	1	47
647.067	1	49
647.236	1	31
647.406	1	39
647.575	1	44
647.745	1	36
647.914	1	35
648.084	1	39
648.253	1	42
648.423	1	41
648.592	1	35
648.762	1	35
648.931	1	27
649.101	1	33
649.270	1	43
649.440	1	33
649.610	1	41
649.779	1	37
649.949	1	27
650.118	1	30
650.288	1	39
650.457	1	36
650.627	1	36
650.796	1	30
650.966	1	32
651.135	1	38
651.305	1	34
651.474	1	32
651.644	1	27
651.813	1	41
651.983	1	47
652.152	1	41
652.322	1	26
652.491	1	40
652.661	1	39
652.830	1	46
653.000	1	38
653.169	1	30
653.339	1	33
653.508	1	27
653.678	1	40
653.847	1	40
654.017	1	32
654.186	1	29
654.356	1	36
654.525	1	32
654.695	1	34
654.864	1	34
655.034	1	38
655.203	1	22
655.373	1	37
655.542	1	32
655.712	1	32
655.881	1	37
656.051	1	26
656.220	1	26
656.390	1	37
656.559	1	28
656.729	1	27
656.898	1	26
657.068	1	21
657.237	1	27
657.406	1	31
657.576	1	21
657.745	1	34
657.915	1	31
658.084	1	25
658.254	1	43
658.423	1	38
658.593	1	30
658.762	1	37
658.932	1	32
659.101	1	36
659.271	1	36
659.440	1	23
659.610	1	38
659.779	1	34
659.949	1	29
660.118	1	40
660.288	1	24
660.457	1	32
660.626	1	33
660.796	1	3
660.965	1	18
661.135	1	35
661.304	1	25
661.474	1	22
661.643	1	25
661.813	1	34
661.982	1	26
662.152	1	32
662.321	1	22
662.491	1	32
662.660	1	22
662.829	1	23
662.999	1	28
663.168	1	26
663.338	1	23
663.507	1	21
663.677	1	11
663.846	1	24
664.016	1	16
664.185	1	28
664.354	1	28
664.524	1	23
664.693	1	22
664.863	1	25
665.032	1	34
665.202	1	22
665.371	1	31
665.541	1	25
665.710	1	21
665.879	1	27
666.049	1	28
666.218	1	27
666.388	1	38
666.557	1	42
666.727	1	24
666.896	1	32
667.065	1	31
667.235	1	28
667.404	1	28
667.574	1	31
667.743	1	36
667.913	1	24
668.082	1	37
668.251	1	34
668.421	1	21
668.590	1	40
668.760	1	28
668.929	1	21
669.099	1	38
669.268	1	30
669.437	1	29
669.607	1	37
669.776	1	30
669.946	1	33
670.115	1	30
670.285	1	29
670.454	1	43
670.623	1	33
670.793	1	39
670.962	1	32
671.132	1	27
671.301	1	30
671.470	1	24
671.640	1	25
671.809	1	30
671.979	1	27
672.148	1	32
672.317	1	31
672.487	1	28
672.656	1	48
672.826	1	31
672.995	1	36
673.164	1	33
673.334	1	25
673.503	1	32
673.673	1	24
673.842	1	12
674.011	1	34
674.181	1	36
674.350	1	28
674.520	1	40
674.689	1	28
674.858	1	22
675.028	1	42
675.197	1	37
675.367	1	18
675.536	1	43
675.705	1	26
675.875	1	26
676.044	1	32
676.214	1	38
676.383	1	29
676.552	1	21
676.722	1	25
676.891	1	19
677.060	1	21
677.230	1	38
677.399	1	30
677.569	1	51
677.738	1	36
677.907	1	31
678.077	1	38
678.246	1	22
678.416	1	30
678.585	1	32
678.754	1	30
678.924	1	32
679.093	1	46
679.262	1	39
679.432	1	47
679.601	1	41
679.771	1	32
679.940	1	31
680.109	1	30
680.279	1	34
680.448	1	32
680.617	1	35
680.787	1	29
680.956	1	31
681.125	1	45
681.295	1	41
681.464	1	41
681.634	1	25
681.803	1	34
681.972	1	33
682.142	1	23
682.311	1	35
682.480	1	30
682.650	1	36
682.819	1	30
682.988	1	34
683.158	1	43
683.327	1	33
683.496	1	26
683.666	1	32
683.835	1	19
684.004	1	20
684.174	1	34
684.343	1	30
684.512	1	20
684.682	1	34
684.851	1	30
685.021	1	20
685.190	1	47
685.359	1	13
685.529	1	30
685.698	1	27
685.867	1	24
686.037	1	33
686.206	1	30
686.375	1	39
686.545	1	31
686.714	1	19
686.883	1	31
687.053	1	31
687.222	1	25
687.391	1	36
687.561	1	25
687.730	1	24
687.899	1	32
688.069	1	27
688.238	1	27
688.407	1	37
688.577	1	27
688.746	1	33
