340.368	1	5
340.539	1	10
340.710	1	10
340.881	1	1
341.052	1	8
341.223	1	-3
341.394	1	0
341.565	1	6
341.737	1	5
341.908	1	0
342.079	1	-4
342.250	1	8
342.421	1	0
342.592	1	2
342.763	1	2
342.934	1	5
343.105	1	-2
343.276	1	1
343.447	1	9
343.618	1	11
343.789	1	14
343.960	1	16
344.131	1	12
344.302	1	9
344.473	1	1
344.644	1	5
344.815	1	0
344.986	1	-2
345.157	1	-1
345.328	1	0
345.499	1	9
345.670	1	5
345.841	1	3
346.012	1	15
346.183	1	0
346.354	1	5
346.526	1	5
346.697	1	6
346.868	1	4
347.039	1	-3
347.210	1	-9
347.381	1	6
347.552	1	5
347.723	1	5
347.894	1	-2
348.065	1	3
348.236	1	-6
348.407	1	6
348.578	1	8
348.749	1	1
348.920	1	-7
349.091	1	7
349.262	1	9
349.433	1	7
349.604	1	2
349.775	1	5
349.946	1	-6
350.117	1	6
350.288	1	10
350.459	1	2
350.630	1	1
350.801	1	14
350.972	1	7
351.143	1	-2
351.314	1	11
351.485	1	1
351.656	1	17
351.827	1	0
351.998	1	7
352.169	1	5
352.340	1	15
352.511	1	11
352.682	1	-7
352.853	1	13
353.024	1	23
353.195	1	22
353.366	1	3
353.537	1	11
353.708	1	4
353.879	1	15
354.050	1	9
354.221	1	-2
354.392	1	9
354.563	1	20
354.734	1	1
354.905	1	19
355.076	1	9
355.247	1	15
355.418	1	21
355.589	1	1
355.760	1	9
355.931	1	6
356.102	1	6
356.273	1	7
356.444	1	15
356.615	1	6
356.785	1	8
356.956	1	20
357.127	1	8
357.298	1	10
357.469	1	18
357.640	1	17
357.811	1	17
357.982	1	16
358.153	1	16
358.324	1	17
358.495	1	21
358.666	1	17
358.837	1	18
359.008	1	14
359.179	1	14
359.350	1	21
359.521	1	27
359.692	1	16
359.863	1	12
360.034	1	25
360.205	1	19
360.376	1	31
360.547	1	35
360.718	1	26
360.889	1	31
361.060	1	29
361.231	1	26
361.401	1	39
361.572	1	43
361.743	1	36
361.914	1	42
362.085	1	34
362.256	1	46
362.427	1	49
362.598	1	34
362.769	1	50
362.940	1	31
363.111	1	45
363.282	1	56
363.453	1	60
363.624	1	64
363.795	1	60
363.966	1	65
364.137	1	74
364.308	1	69
364.478	1	66
364.649	1	80
364.820	1	76
364.991	1	77
365.162	1	90
365.333	1	80
365.504	1	88
365.675	1	88
365.846	1	106
366.017	1	101
366.188	1	104
366.359	1	101
366.530	1	119
366.701	1	112
366.871	1	113
367.042	1	120
367.213	1	127
367.384	1	121
367.555	1	131
367.726	1	125
367.897	1	141
368.068	1	128
368.239	1	137
368.410	1	136
368.581	1	134
368.752	1	126
368.923	1	138
369.093	1	139
369.264	1	132
369.435	1	137
369.606	1	124
369.777	1	129
369.948	1	112
370.119	1	132
370.290	1	114
370.461	1	124
370.632	1	112
370.803	1	127
370.973	1	126
371.144	1	120
371.315	1	106
371.486	1	113
371.657	1	107
371.828	1	101
371.999	1	103
372.170	1	99
372.341	1	91
372.512	1	87
372.682	1	95
372.853	1	82
373.024	1	84
373.195	1	92
373.366	1	74
373.537	1	88
373.708	1	91
373.879	1	82
374.050	1	83
374.220	1	63
374.391	1	73
374.562	1	74
374.733	1	78
374.904	1	57
375.075	1	61
375.246	1	66
375.417	1	56
375.588	1	63
375.758	1	68
375.929	1	60
376.100	1	55
376.271	1	63
376.442	1	55
376.613	1	64
376.784	1	65
376.955	1	48
377.125	1	57
377.296	1	54
377.467	1	50
377.638	1	51
377.809	1	49
377.980	1	41
378.151	1	41
378.321	1	41
378.492	1	44
378.663	1	53
378.834	1	43
379.005	1	49
379.176	1	42
379.347	1	48
379.518	1	49
379.688	1	34
379.859	1	34
380.030	1	40
380.201	1	36
380.372	1	30
380.543	1	43
380.714	1	34
380.884	1	31
381.055	1	33
381.226	1	32
381.397	1	48
381.568	1	28
381.739	1	34
381.910	1	35
382.080	1	26
382.251	1	41
382.422	1	27
382.593	1	28
382.764	1	33
382.935	1	22
383.105	1	24
383.276	1	30
383.447	1	27
383.618	1	19
383.789	1	42
383.960	1	19
384.130	1	24
384.301	1	26
384.472	1	21
384.643	1	11
384.814	1	25
384.985	1	31
385.156	1	28
385.326	1	22
385.497	1	10
385.668	1	17
385.839	1	20
386.010	1	25
386.180	1	23
386.351	1	18
386.522	1	21
386.693	1	21
386.864	1	22
387.035	1	24
387.205	1	13
387.376	1	22
387.547	1	27
387.718	1	10
387.889	1	21
388.060	1	16
388.230	1	14
388.401	1	16
388.572	1	11
388.743	1	19
388.914	1	22
389.084	1	16
389.255	1	17
389.426	1	19
389.597	1	9
389.768	1	13
389.939	1	6
390.109	1	19
390.280	1	21
390.451	1	10
390.622	1	20
390.793	1	18
390.963	1	20
391.134	1	5
391.305	1	7
391.476	1	23
391.647	1	8
391.817	1	8
391.988	1	23
392.159	1	18
392.330	1	5
392.501	1	20
392.671	1	10
392.842	1	14
393.013	1	-2
393.184	1	20
393.355	1	1
393.525	1	3
393.696	1	6
393.867	1	10
394.038	1	5
394.208	1	6
394.379	1	7
394.550	1	10
394.721	1	6
394.892	1	14
395.062	1	13
395.233	1	5
395.404	1	4
395.575	1	19
395.746	1	0
395.916	1	8
396.087	1	21
396.258	1	11
396.429	1	6
396.599	1	6
396.770	1	0
396.941	1	13
397.112	1	5
397.283	1	9
397.453	1	13
397.624	1	-7
397.795	1	20
397.966	1	22
398.136	1	7
398.307	1	10
398.478	1	5
398.649	1	16
398.819	1	-5
398.990	1	0
399.161	1	8
399.332	1	5
399.503	1	13
399.673	1	8
399.844	1	14
400.015	1	-4
400.186	1	-4
400.356	1	11
400.527	1	-1
400.698	1	3
400.869	1	4
401.039	1	5
401.210	1	10
401.381	1	2
401.552	1	5
401.722	1	-6
401.893	1	15
402.064	1	4
402.235	1	11
402.405	1	7
402.576	1	10
402.747	1	-3
402.918	1	8
403.088	1	2
403.259	1	14
403.430	1	0
403.601	1	-3
403.771	1	5
403.942	1	7
404.113	1	-1
404.284	1	2
404.454	1	-2
404.625	1	10
404.796	1	2
404.967	1	4
405.137	1	13
405.308	1	7
405.479	1	5
405.649	1	8
405.820	1	5
405.991	1	4
406.162	1	22
406.332	1	3
406.503	1	-3
406.674	1	8
406.845	1	26
407.015	1	3
407.186	1	-4
407.357	1	-4
407.527	1	12
407.698	1	4
407.869	1	5
408.040	1	14
408.210	1	9
408.381	1	6
408.552	1	5
408.722	1	3
408.893	1	9
409.064	1	1
409.235	1	13
409.405	1	8
409.576	1	-5
409.747	1	10
409.917	1	4
410.088	1	6
410.259	1	-3
410.430	1	-5
410.600	1	9
410.771	1	6
410.942	1	9
411.112	1	12
411.283	1	-7
411.454	1	8
411.625	1	3
411.795	1	9
411.966	1	6
412.137	1	-3
412.307	1	13
412.478	1	0
412.649	1	11
412.819	1	7
412.990	1	8
413.161	1	3
413.332	1	20
413.502	1	-1
413.673	1	-3
413.844	1	1
414.014	1	7
414.185	1	1
414.356	1	6
414.526	1	3
414.697	1	0
414.868	1	-5
415.038	1	5
415.209	1	8
415.380	1	0
415.550	1	13
415.721	1	-3
415.892	1	3
416.063	1	-5
416.233	1	5
416.404	1	0
416.575	1	-1
416.745	1	2
416.916	1	-4
417.087	1	5
417.257	1	-4
417.428	1	4
417.599	1	-2
417.769	1	2
417.940	1	-1
418.111	1	6
418.281	1	4
418.452	1	3
418.623	1	-3
418.793	1	24
418.964	1	2
419.135	1	0
419.305	1	4
419.476	1	17
419.647	1	-4
419.817	1	11
419.988	1	5
420.159	1	5
420.329	1	9
420.500	1	13
420.671	1	-2
420.841	1	3
421.012	1	6
421.183	1	-3
421.353	1	2
421.524	1	7
421.695	1	8
421.865	1	10
422.036	1	7
422.206	1	6
422.377	1	4
422.548	1	11
422.718	1	2
422.889	1	4
423.060	1	4
423.230	1	4
423.401	1	13
423.572	1	15
423.742	1	-5
423.913	1	2
424.084	1	0
424.254	1	4
424.425	1	-2
424.595	1	8
424.766	1	-3
424.937	1	20
425.107	1	5
425.278	1	8
425.449	1	12
425.619	1	5
425.790	1	1
425.961	1	-1
426.131	1	9
426.302	1	0
426.472	1	-4
426.643	1	6
426.814	1	9
426.984	1	2
427.155	1	10
427.326	1	5
427.496	1	3
427.667	1	-9
427.837	1	-3
428.008	1	14
428.179	1	-3
428.349	1	8
428.520	1	3
428.691	1	17
428.861	1	-2
429.032	1	8
429.202	1	10
429.373	1	1
429.544	1	-2
429.714	1	-1
429.885	1	9
430.055	1	-1
430.226	1	4
430.397	1	-6
430.567	1	2
430.738	1	2
430.909	1	7
431.079	1	8
431.250	1	12
431.420	1	17
431.591	1	13
431.762	1	4
431.932	1	11
432.103	1	-11
432.273	1	1
432.444	1	0
432.615	1	1
432.785	1	-6
432.956	1	1
433.126	1	14
433.297	1	6
433.468	1	3
433.638	1	10
433.809	1	1
433.979	1	-1
434.150	1	5
434.320	1	7
434.491	1	-4
434.662	1	3
434.832	1	-10
435.003	1	4
435.173	1	-7
435.344	1	-9
435.515	1	-1
435.685	1	-2
435.856	1	10
436.026	1	-5
436.197	1	3
436.368	1	4
436.538	1	2
436.709	1	-2
436.879	1	4
437.050	1	16
437.220	1	13
437.391	1	13
437.562	1	-1
437.732	1	3
437.903	1	1
438.073	1	11
438.244	1	5
438.414	1	3
438.585	1	-8
438.756	1	4
438.926	1	-3
439.097	1	3
439.267	1	3
439.438	1	11
439.608	1	-1
439.779	1	7
439.949	1	-1
440.120	1	-1
440.291	1	0
440.461	1	-3
440.632	1	0
440.802	1	1
440.973	1	15
441.143	1	7
441.314	1	2
441.485	1	16
441.655	1	-6
441.826	1	13
441.996	1	-7
442.167	1	-1
442.337	1	3
442.508	1	-5
442.678	1	-3
442.849	1	21
443.019	1	5
443.190	1	1
443.361	1	13
443.531	1	11
443.702	1	8
443.872	1	8
444.043	1	2
444.213	1	10
444.384	1	5
444.554	1	1
444.725	1	13
444.895	1	5
445.066	1	6
445.237	1	-3
445.407	1	1
445.578	1	5
445.748	1	9
445.919	1	-8
446.089	1	21
446.260	1	1
446.430	1	8
446.601	1	8
446.771	1	4
446.942	1	-1
447.112	1	4
447.283	1	3
447.453	1	6
447.624	1	5
447.794	1	13
447.965	1	8
448.135	1	4
448.306	1	16
448.477	1	4
448.647	1	2
448.818	1	3
448.988	1	-5
449.159	1	6
449.329	1	6
449.500	1	2
449.670	1	-4
449.841	1	7
450.011	1	12
450.182	1	13
450.352	1	10
450.523	1	-8
450.693	1	-9
450.864	1	1
451.034	1	16
451.205	1	8
451.375	1	-6
451.546	1	0
451.716	1	4
451.887	1	9
452.057	1	0
452.228	1	8
452.398	1	8
452.569	1	13
452.739	1	4
452.910	1	10
453.080	1	3
453.251	1	-1
453.421	1	4
453.592	1	-4
453.762	1	-6
453.933	1	-7
454.103	1	-2
454.274	1	1
454.444	1	4
454.615	1	-8
454.785	1	3
454.956	1	6
455.126	1	-5
455.297	1	12
455.467	1	2
455.638	1	-3
455.808	1	-7
455.979	1	-5
456.149	1	-4
456.320	1	-8
456.490	1	4
456.661	1	7
456.831	1	-4
457.001	1	5
457.172	1	-4
457.342	1	6
457.513	1	14
457.683	1	9
457.854	1	7
458.024	1	-6
458.195	1	4
458.365	1	4
458.536	1	-4
458.706	1	8
458.877	1	1
459.047	1	4
459.218	1	2
459.388	1	-1
459.559	1	6
459.729	1	-2
459.899	1	3
460.070	1	0
460.240	1	-3
460.411	1	7
460.581	1	-1
460.752	1	11
460.922	1	-3
461.093	1	3
461.263	1	5
461.434	1	7
461.604	1	-3
461.775	1	-4
461.945	1	-6
462.115	1	4
462.286	1	7
462.456	1	4
462.627	1	-1
462.797	1	0
462.968	1	4
463.138	1	8
463.309	1	-2
463.479	1	3
463.649	1	6
463.820	1	9
463.990	1	11
464.161	1	-1
464.331	1	-2
464.502	1	-3
464.672	1	11
464.843	1	0
465.013	1	8
465.183	1	7
465.354	1	-3
465.524	1	5
465.695	1	12
465.865	1	4
466.036	1	-6
466.206	1	11
466.376	1	5
466.547	1	4
466.717	1	5
466.888	1	4
467.058	1	10
467.229	1	17
467.399	1	11
467.569	1	9
467.740	1	3
467.910	1	2
468.081	1	6
468.251	1	5
468.422	1	9
468.592	1	11
468.762	1	9
468.933	1	2
469.103	1	2
469.274	1	6
469.444	1	7
469.614	1	-1
469.785	1	2
469.955	1	-3
470.126	1	-2
470.296	1	9
470.467	1	3
470.637	1	9
470.807	1	12
470.978	1	3
471.148	1	8
471.319	1	14
471.489	1	1
471.659	1	0
471.830	1	3
472.000	1	-2
472.171	1	13
472.341	1	-2
472.511	1	-1
472.682	1	1
472.852	1	8
473.023	1	5
473.193	1	5
473.363	1	9
473.534	1	13
473.704	1	-6
473.875	1	11
474.045	1	7
474.215	1	10
474.386	1	5
474.556	1	4
474.727	1	8
474.897	1	-3
475.067	1	3
475.238	1	1
475.408	1	-1
475.578	1	-5
475.749	1	18
475.919	1	3
476.090	1	9
476.260	1	-4
476.430	1	4
476.601	1	2
476.771	1	12
476.942	1	7
477.112	1	3
477.282	1	-4
477.453	1	3
477.623	1	6
477.793	1	-1
477.964	1	4
478.134	1	10
478.305	1	7
478.475	1	9
478.645	1	-5
478.816	1	-1
478.986	1	7
479.156	1	5
479.327	1	9
479.497	1	5
479.667	1	-4
479.838	1	5
480.008	1	11
480.179	1	1
480.349	1	-4
480.519	1	1
480.690	1	8
480.860	1	6
481.030	1	2
481.201	1	2
481.371	1	6
481.541	1	-7
481.712	1	14
481.882	1	10
482.053	1	1
482.223	1	8
482.393	1	7
482.564	1	12
482.734	1	19
482.904	1	7
483.075	1	8
483.245	1	-3
483.415	1	8
483.586	1	9
483.756	1	5
483.926	1	1
484.097	1	9
484.267	1	9
484.437	1	9
484.608	1	1
484.778	1	-3
484.948	1	3
485.119	1	11
485.289	1	5
485.459	1	16
485.630	1	17
485.800	1	3
485.970	1	-3
486.141	1	7
486.311	1	-2
486.481	1	8
486.652	1	7
486.822	1	8
486.992	1	15
487.163	1	6
487.333	1	9
487.503	1	7
487.674	1	2
487.844	1	5
488.014	1	10
488.185	1	8
488.355	1	7
488.525	1	8
488.696	1	8
488.866	1	8
489.036	1	12
489.207	1	8
489.377	1	5
489.547	1	7
489.718	1	-3
489.888	1	7
490.058	1	5
490.228	1	14
490.399	1	9
490.569	1	13
490.739	1	15
490.910	1	4
491.080	1	-5
491.250	1	14
491.421	1	14
491.591	1	7
491.761	1	17
491.932	1	18
492.102	1	9
492.272	1	7
492.442	1	2
492.613	1	1
492.783	1	2
492.953	1	10
493.124	1	0
493.294	1	15
493.464	1	12
493.635	1	14
493.805	1	23
493.975	1	11
494.145	1	10
494.316	1	2
494.486	1	-2
494.656	1	0
494.827	1	9
494.997	1	19
495.167	1	21
495.337	1	6
495.508	1	10
495.678	1	14
495.848	1	14
496.019	1	17
496.189	1	18
496.359	1	13
496.529	1	11
496.700	1	19
496.870	1	8
497.040	1	10
497.211	1	12
497.381	1	13
497.551	1	15
497.721	1	6
497.892	1	15
498.062	1	5
498.232	1	7
498.403	1	-4
498.573	1	16
498.743	1	10
498.913	1	11
499.084	1	13
499.254	1	8
499.424	1	14
499.594	1	6
499.765	1	8
499.935	1	21
500.105	1	10
500.275	1	12
500.446	1	19
500.616	1	9
500.786	1	4
500.956	1	23
501.127	1	8
501.297	1	11
501.467	1	11
501.638	1	12
501.808	1	25
501.978	1	20
502.148	1	9
502.319	1	16
502.489	1	12
502.659	1	19
502.829	1	6
503.000	1	22
503.170	1	18
503.340	1	18
503.510	1	5
503.681	1	7
503.851	1	5
504.021	1	15
504.191	1	12
504.362	1	17
504.532	1	17
504.702	1	11
504.872	1	4
505.042	1	15
505.213	1	14
505.383	1	23
505.553	1	7
505.723	1	26
505.894	1	3
506.064	1	15
506.234	1	13
506.404	1	28
506.575	1	14
506.745	1	11
506.915	1	19
507.085	1	13
507.256	1	21
507.426	1	23
507.596	1	18
507.766	1	29
507.936	1	14
508.107	1	17
508.277	1	21
508.447	1	6
508.617	1	9
508.788	1	5
508.958	1	23
509.128	1	18
509.298	1	13
509.468	1	25
509.639	1	9
509.809	1	13
509.979	1	26
510.149	1	20
510.319	1	30
510.490	1	25
510.660	1	15
510.830	1	15
511.000	1	16
511.171	1	12
511.341	1	14
511.511	1	21
511.681	1	26
511.851	1	22
512.022	1	18
512.192	1	17
512.362	1	27
512.532	1	21
512.702	1	20
512.873	1	19
513.043	1	16
513.213	1	16
513.383	1	9
513.553	1	5
513.724	1	22
513.894	1	28
514.064	1	15
514.234	1	11
514.404	1	8
514.575	1	20
514.745	1	9
514.915	1	18
515.085	1	11
515.255	1	18
515.425	1	12
515.596	1	20
515.766	1	18
515.936	1	21
516.106	1	24
516.276	1	24
516.447	1	25
516.617	1	15
516.787	1	27
516.957	1	12
517.127	1	19
517.297	1	18
517.468	1	35
517.638	1	30
517.808	1	25
517.978	1	28
518.148	1	24
518.319	1	21
518.489	1	8
518.659	1	23
518.829	1	24
518.999	1	16
519.169	1	25
519.340	1	14
519.510	1	20
519.680	1	15
519.850	1	13
520.020	1	20
520.190	1	24
520.361	1	19
520.531	1	18
520.701	1	29
520.871	1	27
521.041	1	24
521.211	1	10
521.382	1	38
521.552	1	12
521.722	1	24
521.892	1	27
522.062	1	19
522.232	1	25
522.402	1	38
522.573	1	22
522.743	1	19
522.913	1	13
523.083	1	18
523.253	1	9
523.423	1	27
523.593	1	25
523.764	1	22
523.934	1	16
524.104	1	17
524.274	1	11
524.444	1	22
524.614	1	31
524.784	1	31
524.955	1	12
525.125	1	12
525.295	1	24
525.465	1	29
525.635	1	33
525.805	1	18
525.975	1	27
526.146	1	30
526.316	1	30
526.486	1	27
526.656	1	28
526.826	1	31
526.996	1	14
527.166	1	28
527.337	1	32
527.507	1	24
527.677	1	33
527.847	1	29
528.017	1	22
528.187	1	29
528.357	1	33
528.527	1	18
528.698	1	25
528.868	1	32
529.038	1	9
529.208	1	26
529.378	1	34
529.548	1	22
529.718	1	19
529.888	1	32
530.058	1	20
530.229	1	25
530.399	1	33
530.569	1	18
530.739	1	31
530.909	1	24
531.079	1	24
531.249	1	32
531.419	1	18
531.589	1	27
531.760	1	32
531.930	1	14
532.100	1	32
532.270	1	31
532.440	1	15
532.610	1	25
532.780	1	27
532.950	1	10
533.120	1	14
533.290	1	31
533.461	1	23
533.631	1	17
533.801	1	40
533.971	1	29
534.141	1	28
534.311	1	25
534.481	1	26
534.651	1	26
534.821	1	16
534.991	1	26
535.162	1	15
535.332	1	16
535.502	1	31
535.672	1	18
535.842	1	19
536.012	1	18
536.182	1	18
536.352	1	14
536.522	1	25
536.692	1	11
536.862	1	19
537.032	1	18
537.203	1	13
537.373	1	27
537.543	1	26
537.713	1	24
537.883	1	15
538.053	1	17
538.223	1	28
538.393	1	17
538.563	1	29
538.733	1	15
538.903	1	20
539.073	1	32
539.243	1	14
539.413	1	19
539.584	1	16
539.754	1	23
539.924	1	14
540.094	1	20
540.264	1	19
540.434	1	24
540.604	1	21
540.774	1	26
540.944	1	18
541.114	1	11
541.284	1	33
541.454	1	20
541.624	1	15
541.794	1	30
541.964	1	15
542.134	1	16
542.305	1	30
542.475	1	15
542.645	1	34
542.815	1	28
542.985	1	27
543.155	1	25
543.325	1	23
543.495	1	22
543.665	1	31
543.835	1	31
544.005	1	19
544.175	1	34
544.345	1	24
544.515	1	30
544.685	1	31
544.855	1	18
545.025	1	38
545.195	1	9
545.365	1	19
545.535	1	32
545.705	1	17
545.875	1	30
546.045	1	26
546.216	1	27
546.386	1	25
546.556	1	14
546.726	1	25
546.896	1	31
547.066	1	26
547.236	1	18
547.406	1	26
547.576	1	11
547.746	1	19
547.916	1	23
548.086	1	29
548.256	1	30
548.426	1	16
548.596	1	27
548.766	1	28
548.936	1	24
549.106	1	19
549.276	1	24
549.446	1	21
549.616	1	11
549.786	1	31
549.956	1	15
550.126	1	27
550.296	1	24
550.466	1	27
550.636	1	27
550.806	1	23
550.976	1	27
551.146	1	29
551.316	1	17
551.486	1	18
551.656	1	-2
551.826	1	12
551.996	1	15
552.166	1	27
552.336	1	29
552.506	1	17
552.676	1	16
552.846	1	19
553.016	1	25
553.186	1	19
553.356	1	22
553.526	1	10
553.696	1	22
553.866	1	29
554.036	1	27
554.206	1	34
554.376	1	7
554.546	1	26
554.716	1	30
554.886	1	22
555.056	1	22
555.226	1	27
555.396	1	16
555.566	1	17
555.736	1	22
555.906	1	13
556.076	1	12
556.246	1	17
556.416	1	26
556.586	1	9
556.756	1	15
556.926	1	23
557.096	1	20
557.266	1	16
557.436	1	11
557.606	1	14
557.776	1	23
557.946	1	6
558.116	1	17
558.286	1	4
558.456	1	26
558.626	1	23
558.796	1	21
558.966	1	26
559.136	1	14
559.306	1	23
559.476	1	3
559.646	1	23
559.816	1	11
559.986	1	17
560.155	1	16
560.325	1	22
560.495	1	30
560.665	1	14
560.835	1	11
561.005	1	10
561.175	1	12
561.345	1	28
561.515	1	25
561.685	1	21
561.855	1	16
562.025	1	19
562.195	1	26
562.365	1	23
562.535	1	20
562.705	1	15
562.875	1	17
563.045	1	17
563.215	1	19
563.385	1	21
563.555	1	11
563.725	1	12
563.895	1	23
564.064	1	26
564.234	1	22
564.404	1	11
564.574	1	14
564.744	1	8
564.914	1	17
565.084	1	10
565.254	1	21
565.424	1	23
565.594	1	23
565.764	1	20
565.934	1	22
566.104	1	18
566.274	1	24
566.444	1	15
566.614	1	20
566.783	1	12
566.953	1	21
567.123	1	20
567.293	1	3
567.463	1	20
567.633	1	16
567.803	1	21
567.973	1	25
568.143	1	20
568.313	1	24
568.483	1	16
568.653	1	27
568.823	1	17
568.993	1	23
569.162	1	18
569.332	1	27
569.502	1	31
569.672	1	3
569.842	1	18
570.012	1	17
570.182	1	12
570.352	1	10
570.522	1	8
570.692	1	13
570.862	1	15
571.031	1	18
571.201	1	12
571.371	1	9
571.541	1	27
571.711	1	16
571.881	1	17
572.051	1	6
572.221	1	10
572.391	1	24
572.561	1	17
572.731	1	13
572.900	1	19
573.070	1	21
573.240	1	19
573.410	1	20
573.580	1	12
573.750	1	17
573.920	1	25
574.090	1	19
574.260	1	11
574.430	1	9
574.599	1	19
574.769	1	19
574.939	1	12
575.109	1	16
575.279	1	21
575.449	1	22
575.619	1	11
575.789	1	28
575.959	1	10
576.128	1	17
576.298	1	7
576.468	1	19
576.638	1	26
576.808	1	29
576.978	1	9
577.148	1	28
577.318	1	18
577.487	1	13
577.657	1	12
577.827	1	11
577.997	1	14
578.167	1	20
578.337	1	26
578.507	1	29
578.677	1	9
578.846	1	11
579.016	1	25
579.186	1	18
579.356	1	16
579.526	1	25
579.696	1	15
579.866	1	8
580.036	1	12
580.205	1	23
580.375	1	14
580.545	1	25
580.715	1	5
580.885	1	12
581.055	1	26
581.225	1	18
581.394	1	21
581.564	1	14
581.734	1	20
581.904	1	12
582.074	1	10
582.244	1	26
582.414	1	10
582.583	1	17
582.753	1	23
582.923	1	21
583.093	1	21
583.263	1	22
583.433	1	15
583.603	1	22
583.772	1	14
583.942	1	17
584.112	1	11
584.282	1	17
584.452	1	12
584.622	1	13
584.791	1	17
584.961	1	18
585.131	1	17
585.301	1	4
585.471	1	28
585.641	1	12
585.811	1	13
585.980	1	19
586.150	1	-2
586.320	1	9
586.490	1	16
586.660	1	13
586.830	1	14
586.999	1	10
587.169	1	14
587.339	1	12
587.509	1	13
587.679	1	16
587.849	1	10
588.018	1	34
588.188	1	14
588.358	1	15
588.528	1	13
588.698	1	14
588.867	1	10
589.037	1	8
589.207	1	18
589.377	1	16
589.547	1	12
589.717	1	14
589.886	1	13
590.056	1	5
590.226	1	10
590.396	1	7
590.566	1	11
590.735	1	24
590.905	1	1
591.075	1	2
591.245	1	19
591.415	1	4
591.585	1	7
591.754	1	17
591.924	1	16
592.094	1	12
592.264	1	2
592.434	1	16
592.603	1	24
592.773	1	10
592.943	1	19
593.113	1	10
593.283	1	13
593.452	1	24
593.622	1	16
593.792	1	15
593.962	1	2
594.132	1	18
594.301	1	16
594.471	1	8
594.641	1	-2
594.811	1	9
594.981	1	3
595.150	1	14
595.320	1	21
595.490	1	15
595.660	1	22
595.829	1	10
595.999	1	14
596.169	1	22
596.339	1	14
596.509	1	7
596.678	1	7
596.848	1	15
597.018	1	12
597.188	1	14
597.358	1	10
597.527	1	20
597.697	1	6
597.867	1	16
598.037	1	15
598.206	1	12
598.376	1	4
598.546	1	-4
598.716	1	16
598.885	1	15
599.055	1	22
599.225	1	27
599.395	1	13
599.565	1	6
599.734	1	16
599.904	1	8
600.074	1	2
600.244	1	23
600.413	1	10
600.583	1	11
600.753	1	23
600.923	1	17
601.092	1	17
601.262	1	8
601.432	1	8
601.602	1	14
601.771	1	11
601.941	1	15
602.111	1	12
602.281	1	17
602.451	1	14
602.620	1	4
602.790	1	19
602.960	1	7
603.130	1	17
603.299	1	13
603.469	1	16
603.639	1	16
603.809	1	10
603.978	1	7
604.148	1	19
604.318	1	22
604.487	1	10
604.657	1	12
604.827	1	21
604.997	1	16
605.166	1	11
605.336	1	-1
605.506	1	12
605.676	1	19
605.845	1	14
606.015	1	13
606.185	1	6
606.355	1	5
606.524	1	14
606.694	1	11
606.864	1	5
607.034	1	14
607.203	1	13
607.373	1	3
607.543	1	6
607.712	1	13
607.882	1	17
608.052	1	11
608.222	1	9
608.391	1	17
608.561	1	12
608.731	1	1
608.901	1	7
609.070	1	18
609.240	1	18
609.410	1	9
609.579	1	11
609.749	1	22
609.919	1	11
610.089	1	0
610.258	1	3
610.428	1	14
610.598	1	10
610.767	1	9
610.937	1	9
611.107	1	1
611.277	1	14
611.446	1	8
611.616	1	18
611.786	1	11
611.955	1	0
612.125	1	3
612.295	1	9
612.465	1	20
612.634	1	14
612.804	1	13
612.974	1	4
613.143	1	3
613.313	1	9
613.483	1	16
613.652	1	5
613.822	1	10
613.992	1	17
614.162	1	2
614.331	1	15
614.501	1	11
614.671	1	5
614.840	1	12
615.010	1	7
615.180	1	17
615.349	1	1
615.519	1	18
615.689	1	13
615.858	1	18
616.028	1	12
616.198	1	21
616.368	1	20
616.537	1	5
616.707	1	12
616.877	1	6
617.046	1	7
617.216	1	30
617.386	1	5
617.555	1	15
617.725	1	2
617.895	1	10
618.064	1	1
618.234	1	-1
618.404	1	19
618.573	1	11
618.743	1	18
618.913	1	17
619.082	1	12
619.252	1	13
619.422	1	7
619.591	1	10
619.761	1	12
619.931	1	3
620.100	1	11
620.270	1	19
620.440	1	7
620.609	1	10
620.779	1	8
620.949	1	13
621.118	1	7
621.288	1	13
621.458	1	11
621.627	1	10
621.797	1	20
621.967	1	9
622.136	1	19
622.306	1	-6
622.476	1	8
622.645	1	-2
622.815	1	6
622.985	1	9
623.154	1	-3
623.324	1	7
623.494	1	21
623.663	1	19
623.833	1	2
624.002	1	10
624.172	1	5
624.342	1	11
624.511	1	11
624.681	1	15
624.851	1	12
625.020	1	18
625.190	1	6
625.360	1	13
625.529	1	11
625.699	1	5
625.869	1	3
626.038	1	4
626.208	1	15
626.377	1	9
626.547	1	17
626.717	1	22
626.886	1	5
627.056	1	10
627.226	1	4
627.395	1	16
627.565	1	6
627.735	1	14
627.904	1	20
628.074	1	22
628.243	1	19
628.413	1	11
628.583	1	7
628.752	1	2
628.922	1	7
629.091	1	4
629.261	1	13
629.431	1	7
629.600	1	11
629.770	1	9
629.940	1	9
630.109	1	10
630.279	1	15
630.448	1	12
630.618	1	8
630.788	1	-1
630.957	1	10
631.127	1	3
631.297	1	18
631.466	1	12
631.636	1	-1
631.805	1	6
631.975	1	20
632.145	1	5
632.314	1	-1
632.484	1	7
632.653	1	5
632.823	1	9
632.993	1	14
633.162	1	-3
633.332	1	0
633.501	1	-1
633.671	1	10
633.841	1	1
634.010	1	14
634.180	1	2
634.349	1	12
634.519	1	3
634.689	1	20
634.858	1	11
635.028	1	8
635.197	1	15
635.367	1	7
635.537	1	-4
635.706	1	14
635.876	1	8
636.045	1	8
636.215	1	2
636.384	1	5
636.554	1	13
636.724	1	-3
636.893	1	3
637.063	1	8
637.232	1	23
637.402	1	13
637.572	1	18
637.741	1	10
637.911	1	6
638.080	1	8
638.250	1	8
638.419	1	9
638.589	1	11
638.759	1	14
638.928	1	19
639.098	1	3
639.267	1	-3
639.437	1	5
639.606	1	8
639.776	1	6
639.946	1	13
640.115	1	12
640.285	1	8
640.454	1	9
640.624	1	16
640.793	1	-2
640.963	1	-4
641.132	1	8
641.302	1	11
641.472	1	11
641.641	1	11
641.811	1	-3
641.980	1	7
642.150	1	17
642.319	1	6
642.489	1	11
642.659	1	1
642.828	1	14
642.998	1	-9
643.167	1	10
643.337	1	11
643.506	1	7
643.676	1	0
643.845	1	14
644.015	1	5
644.184	1	0
644.354	1	3
644.524	1	13
644.693	1	-1
644.863	1	15
645.032	1	7
645.202	1	18
645.371	1	-2
645.541	1	1
645.710	1	9
645.880	1	17
646.049	1	4
646.219	1	8
646.388	1	7
646.558	1	24
646.728	1	14
646.897	1	9
647.067	1	13
647.236	1	0
647.406	1	2
647.575	1	13
647.745	1	6
647.914	1	2
648.084	1	19
648.253	1	14
648.423	1	7
648.592	1	4
648.762	1	10
648.931	1	13
649.101	1	13
649.270	1	5
649.440	1	5
649.610	1	14
649.779	1	6
649.949	1	-1
650.118	1	-6
650.288	1	7
650.457	1	-5
650.627	1	12
650.796	1	-3
650.966	1	8
651.135	1	4
651.305	1	3
651.474	1	1
651.644	1	4
651.813	1	23
651.983	1	14
652.152	1	13
652.322	1	3
652.491	1	11
652.661	1	3
652.830	1	18
653.000	1	0
653.169	1	10
653.339	1	11
653.508	1	9
653.678	1	-1
653.847	1	8
654.017	1	4
654.186	1	13
654.356	1	5
654.525	1	3
654.695	1	2
654.864	1	5
655.034	1	8
655.203	1	-4
655.373	1	0
655.542	1	-2
655.712	1	4
655.881	1	12
656.051	1	7
656.220	1	3
656.390	1	17
656.559	1	5
656.729	1	15
656.898	1	6
657.068	1	18
657.237	1	12
657.406	1	4
657.576	1	0
657.745	1	12
657.915	1	1
658.084	1	12
658.254	1	7
658.423	1	15
658.593	1	12
658.762	1	17
658.932	1	5
659.101	1	8
659.271	1	17
659.440	1	3
659.610	1	6
659.779	1	13
659.949	1	10
660.118	1	4
660.288	1	2
660.457	1	10
660.626	1	13
660.796	1	1
660.965	1	1
661.135	1	4
661.304	1	14
661.474	1	-1
661.643	1	8
661.813	1	11
661.982	1	9
662.152	1	8
662.321	1	-1
662.491	1	6
662.660	1	7
662.829	1	6
662.999	1	12
663.168	1	5
663.338	1	4
663.507	1	-8
663.677	1	0
663.846	1	7
664.016	1	7
664.185	1	0
664.354	1	6
664.524	1	-1
664.693	1	11
664.863	1	7
665.032	1	16
665.202	1	5
665.371	1	1
665.541	1	5
665.710	1	0
665.879	1	13
666.049	1	2
666.218	1	12
666.388	1	4
666.557	1	7
666.727	1	3
666.896	1	21
667.065	1	5
667.235	1	9
667.404	1	6
667.574	1	16
667.743	1	7
667.913	1	0
668.082	1	6
668.251	1	15
668.421	1	6
668.590	1	8
668.760	1	0
668.929	1	-1
669.099	1	4
669.268	1	7
669.437	1	7
669.607	1	6
669.776	1	-3
669.946	1	9
670.115	1	4
670.285	1	5
670.454	1	12
670.623	1	11
670.793	1	12
670.962	1	8
671.132	1	12
671.301	1	4
671.470	1	11
671.640	1	11
671.809	1	-1
671.979	1	6
672.148	1	13
672.317	1	4
672.487	1	7
672.656	1	4
672.826	1	9
672.995	1	1
673.164	1	18
673.334	1	13
673.503	1	4
673.673	1	-5
673.842	1	2
674.011	1	9
674.181	1	16
674.350	1	9
674.520	1	19
674.689	1	-1
674.858	1	6
675.028	1	5
675.197	1	15
675.367	1	1
675.536	1	19
675.705	1	-3
675.875	1	-3
676.044	1	0
676.214	1	14
676.383	1	7
676.552	1	14
676.722	1	3
676.891	1	-4
677.060	1	7
677.230	1	5
677.399	1	19
677.569	1	15
677.738	1	13
677.907	1	9
678.077	1	17
678.246	1	-4
678.416	1	-5
678.585	1	6
678.754	1	13
678.924	1	9
679.093	1	11
679.262	1	14
679.432	1	17
679.601	1	17
679.771	1	8
679.940	1	2
680.109	1	7
680.279	1	6
680.448	1	7
680.617	1	1
680.787	1	4
680.956	1	3
681.125	1	5
681.295	1	6
681.464	1	14
681.634	1	1
681.803	1	8
681.972	1	4
682.142	1	-1
682.311	1	10
682.480	1	4
682.650	1	6
682.819	1	6
682.988	1	12
683.158	1	6
683.327	1	15
683.496	1	14
683.666	1	18
683.835	1	-3
684.004	1	3
684.174	1	11
684.343	1	6
684.512	1	11
684.682	1	9
684.851	1	10
685.021	1	6
685.190	1	4
685.359	1	1
685.529	1	20
685.698	1	8
685.867	1	1
686.037	1	14
686.206	1	13
686.375	1	8
686.545	1	3
686.714	1	-2
686.883	1	14
687.053	1	0
687.222	1	11
687.391	1	8
687.561	1	10
687.730	1	0
687.899	1	5
688.069	1	3
688.238	1	2
688.407	1	10
688.577	1	-1
688.746	1	7
