340.368	1	-4
340.539	1	13
340.710	1	10
340.881	1	0
341.052	1	13
341.223	1	-12
341.394	1	2
341.565	1	4
341.737	1	9
341.908	1	2
342.079	1	6
342.250	1	9
342.421	1	7
342.592	1	-1
342.763	1	16
342.934	1	11
343.105	1	1
343.276	1	9
343.447	1	3
343.618	1	1
343.789	1	27
343.960	1	22
344.131	1	9
344.302	1	12
344.473	1	8
344.644	1	5
344.815	1	-5
344.986	1	4
345.157	1	10
345.328	1	-1
345.499	1	16
345.670	1	14
345.841	1	9
346.012	1	9
346.183	1	-2
346.354	1	6
346.526	1	11
346.697	1	18
346.868	1	8
347.039	1	12
347.210	1	-1
347.381	1	13
347.552	1	21
347.723	1	9
347.894	1	6
348.065	1	11
348.236	1	7
348.407	1	15
348.578	1	-4
348.749	1	4
348.920	1	3
349.091	1	7
349.262	1	17
349.433	1	11
349.604	1	13
349.775	1	17
349.946	1	10
350.117	1	13
350.288	1	23
350.459	1	4
350.630	1	15
350.801	1	21
350.972	1	15
351.143	1	9
351.314	1	13
351.485	1	17
351.656	1	25
351.827	1	14
351.998	1	18
352.169	1	15
352.340	1	29
352.511	1	23
352.682	1	19
352.853	1	35
353.024	1	28
353.195	1	38
353.366	1	25
353.537	1	36
353.708	1	32
353.879	1	34
354.050	1	28
354.221	1	27
354.392	1	25
354.563	1	39
354.734	1	26
354.905	1	49
355.076	1	43
355.247	1	37
355.418	1	44
355.589	1	48
355.760	1	40
355.931	1	50
356.102	1	48
356.273	1	57
356.444	1	57
356.615	1	58
356.785	1	52
356.956	1	65
357.127	1	62
357.298	1	56
357.469	1	70
357.640	1	65
357.811	1	70
357.982	1	78
358.153	1	71
358.324	1	89
358.495	1	77
358.666	1	92
358.837	1	79
359.008	1	95
359.179	1	100
359.350	1	102
359.521	1	116
359.692	1	120
359.863	1	118
360.034	1	126
360.205	1	146
360.376	1	154
360.547	1	152
360.718	1	174
360.889	1	197
361.060	1	193
361.231	1	208
361.401	1	218
361.572	1	236
361.743	1	249
361.914	1	276
362.085	1	269
362.256	1	286
362.427	1	319
362.598	1	353
362.769	1	401
362.940	1	382
363.111	1	411
363.282	1	469
363.453	1	477
363.624	1	531
363.795	1	558
363.966	1	594
364.137	1	656
364.308	1	706
364.478	1	745
364.649	1	816
364.820	1	871
364.991	1	910
365.162	1	1015
365.333	1	1054
365.504	1	1117
365.675	1	1167
365.846	1	1288
366.017	1	1373
366.188	1	1412
366.359	1	1528
366.530	1	1602
366.701	1	1677
366.871	1	1763
367.042	1	1860
367.213	1	1915
367.384	1	1982
367.555	1	2039
367.726	1	2132
367.897	1	2153
368.068	1	2201
368.239	1	2221
368.410	1	2277
368.581	1	2260
368.752	1	2248
368.923	1	2282
369.093	1	2262
369.264	1	2239
369.435	1	2194
369.606	1	2176
369.777	1	2133
369.948	1	2056
370.119	1	2007
370.290	1	1939
370.461	1	1887
370.632	1	1791
370.803	1	1767
370.973	1	1705
371.144	1	1652
371.315	1	1560
371.486	1	1529
371.657	1	1445
371.828	1	1417
371.999	1	1362
372.170	1	1313
372.341	1	1266
372.512	1	1173
372.682	1	1175
372.853	1	1105
373.024	1	1105
373.195	1	1058
373.366	1	1047
373.537	1	994
373.708	1	1001
373.879	1	955
374.050	1	914
374.220	1	893
374.391	1	842
374.562	1	829
374.733	1	814
374.904	1	770
375.075	1	776
375.246	1	747
375.417	1	719
375.588	1	688
375.758	1	679
375.929	1	662
376.100	1	640
376.271	1	620
376.442	1	614
376.613	1	599
376.784	1	570
376.955	1	570
377.125	1	533
377.296	1	520
377.467	1	504
377.638	1	493
377.809	1	482
377.980	1	449
378.151	1	449
378.321	1	426
378.492	1	414
378.663	1	404
378.834	1	392
379.005	1	382
379.176	1	354
379.347	1	355
379.518	1	333
379.688	1	335
379.859	1	303
380.030	1	315
380.201	1	303
380.372	1	291
380.543	1	297
380.714	1	297
380.884	1	282
381.055	1	274
381.226	1	281
381.397	1	268
381.568	1	251
381.739	1	249
381.910	1	250
382.080	1	247
382.251	1	259
382.422	1	241
382.593	1	244
382.764	1	232
382.935	1	255
383.105	1	240
383.276	1	240
383.447	1	230
383.618	1	242
383.789	1	235
383.960	1	227
384.130	1	226
384.301	1	239
384.472	1	224
384.643	1	214
384.814	1	217
384.985	1	234
385.156	1	222
385.326	1	209
385.497	1	202
385.668	1	191
385.839	1	210
386.010	1	196
386.180	1	183
386.351	1	179
386.522	1	194
386.693	1	191
386.864	1	166
387.035	1	186
387.205	1	152
387.376	1	179
387.547	1	171
387.718	1	165
387.889	1	165
388.060	1	156
388.230	1	175
388.401	1	161
388.572	1	143
388.743	1	152
388.914	1	174
389.084	1	133
389.255	1	142
389.426	1	131
389.597	1	122
389.768	1	159
389.939	1	138
390.109	1	127
390.280	1	141
390.451	1	128
390.622	1	125
390.793	1	133
390.963	1	136
391.134	1	128
391.305	1	111
391.476	1	121
391.647	1	104
391.817	1	111
391.988	1	126
392.159	1	107
392.330	1	101
392.501	1	109
392.671	1	106
392.842	1	99
393.013	1	97
393.184	1	102
393.355	1	88
393.525	1	93
393.696	1	100
393.867	1	95
394.038	1	104
394.208	1	87
394.379	1	95
394.550	1	83
394.721	1	81
394.892	1	99
395.062	1	102
395.233	1	80
395.404	1	94
395.575	1	107
395.746	1	91
395.916	1	96
396.087	1	109
396.258	1	96
396.429	1	92
396.599	1	86
396.770	1	96
396.941	1	99
397.112	1	88
397.283	1	94
397.453	1	86
397.624	1	95
397.795	1	90
397.966	1	87
398.136	1	83
398.307	1	91
398.478	1	99
398.649	1	87
398.819	1	77
398.990	1	79
399.161	1	85
399.332	1	75
399.503	1	86
399.673	1	75
399.844	1	84
400.015	1	62
400.186	1	64
400.356	1	75
400.527	1	68
400.698	1	62
400.869	1	60
401.039	1	71
401.210	1	66
401.381	1	60
401.552	1	61
401.722	1	68
401.893	1	63
402.064	1	71
402.235	1	53
402.405	1	64
402.576	1	67
402.747	1	56
402.918	1	60
403.088	1	58
403.259	1	58
403.430	1	50
403.601	1	55
403.771	1	56
403.942	1	62
404.113	1	52
404.284	1	55
404.454	1	57
404.625	1	54
404.796	1	53
404.967	1	55
405.137	1	51
405.308	1	43
405.479	1	53
405.649	1	52
405.820	1	48
405.991	1	52
406.162	1	66
406.332	1	53
406.503	1	44
406.674	1	58
406.845	1	69
407.015	1	53
407.186	1	43
407.357	1	46
407.527	1	45
407.698	1	43
407.869	1	56
408.040	1	46
408.210	1	58
408.381	1	54
408.552	1	63
408.722	1	43
408.893	1	48
409.064	1	45
409.235	1	54
409.405	1	42
409.576	1	40
409.747	1	48
409.917	1	39
410.088	1	50
410.259	1	38
410.430	1	42
410.600	1	43
410.771	1	45
410.942	1	35
411.112	1	44
411.283	1	46
411.454	1	44
411.625	1	39
411.795	1	35
411.966	1	45
412.137	1	43
412.307	1	48
412.478	1	37
412.649	1	36
412.819	1	39
412.990	1	35
413.161	1	36
413.332	1	35
413.502	1	30
413.673	1	44
413.844	1	40
414.014	1	39
414.185	1	36
414.356	1	25
414.526	1	36
414.697	1	41
414.868	1	48
415.038	1	42
415.209	1	34
415.380	1	36
415.550	1	56
415.721	1	43
415.892	1	38
416.063	1	31
416.233	1	43
416.404	1	37
416.575	1	33
416.745	1	29
416.916	1	28
417.087	1	32
417.257	1	32
417.428	1	46
417.599	1	34
417.769	1	38
417.940	1	29
418.111	1	33
418.281	1	44
418.452	1	40
418.623	1	35
418.793	1	46
418.964	1	20
419.135	1	34
419.305	1	33
419.476	1	34
419.647	1	33
419.817	1	32
419.988	1	32
420.159	1	35
420.329	1	28
420.500	1	45
420.671	1	23
420.841	1	31
421.012	1	31
421.183	1	17
421.353	1	28
421.524	1	32
421.695	1	27
421.865	1	27
422.036	1	24
422.206	1	19
422.377	1	37
422.548	1	28
422.718	1	31
422.889	1	27
423.060	1	20
423.230	1	21
423.401	1	31
423.572	1	37
423.742	1	27
423.913	1	9
424.084	1	34
424.254	1	13
424.425	1	17
424.595	1	35
424.766	1	14
424.937	1	38
425.107	1	41
425.278	1	26
425.449	1	28
425.619	1	31
425.790	1	29
425.961	1	23
426.131	1	33
426.302	1	16
426.472	1	20
426.643	1	31
426.814	1	34
426.984	1	19
427.155	1	35
427.326	1	29
427.496	1	14
427.667	1	23
427.837	1	26
428.008	1	17
428.179	1	29
428.349	1	33
428.520	1	22
428.691	1	40
428.861	1	33
429.032	1	24
429.202	1	49
429.373	1	22
429.544	1	26
429.714	1	21
429.885	1	28
430.055	1	13
430.226	1	19
430.397	1	22
430.567	1	19
430.738	1	16
430.909	1	28
431.079	1	26
431.250	1	23
431.420	1	29
431.591	1	26
431.762	1	17
431.932	1	18
432.103	1	17
432.273	1	31
432.444	1	21
432.615	1	21
432.785	1	19
432.956	1	15
433.126	1	31
433.297	1	23
433.468	1	24
433.638	1	28
433.809	1	19
433.979	1	28
434.150	1	18
434.320	1	17
434.491	1	25
434.662	1	15
434.832	1	13
435.003	1	32
435.173	1	24
435.344	1	7
435.515	1	29
435.685	1	22
435.856	1	26
436.026	1	8
436.197	1	17
436.368	1	18
436.538	1	19
436.709	1	12
436.879	1	18
437.050	1	21
437.220	1	28
437.391	1	28
437.562	1	30
437.732	1	25
437.903	1	14
438.073	1	17
438.244	1	17
438.414	1	7
438.585	1	20
438.756	1	23
438.926	1	12
439.097	1	27
439.267	1	18
439.438	1	19
439.608	1	13
439.779	1	17
439.949	1	22
440.120	1	15
440.291	1	16
440.461	1	7
440.632	1	12
440.802	1	13
440.973	1	13
441.143	1	19
441.314	1	15
441.485	1	21
441.655	1	9
441.826	1	19
441.996	1	3
442.167	1	24
442.337	1	18
442.508	1	14
442.678	1	13
442.849	1	34
443.019	1	13
443.190	1	24
443.361	1	18
443.531	1	15
443.702	1	32
443.872	1	23
444.043	1	22
444.213	1	24
444.384	1	17
444.554	1	23
444.725	1	23
444.895	1	14
445.066	1	19
445.237	1	9
445.407	1	10
445.578	1	19
445.748	1	7
445.919	1	6
446.089	1	24
446.260	1	10
446.430	1	19
446.601	1	17
446.771	1	23
446.942	1	13
447.112	1	18
447.283	1	25
447.453	1	21
447.624	1	15
447.794	1	22
447.965	1	18
448.135	1	16
448.306	1	26
448.477	1	18
448.647	1	12
448.818	1	21
448.988	1	20
449.159	1	16
449.329	1	17
449.500	1	10
449.670	1	7
449.841	1	12
450.011	1	20
450.182	1	11
450.352	1	14
450.523	1	11
450.693	1	11
450.864	1	14
451.034	1	17
451.205	1	11
451.375	1	16
451.546	1	16
451.716	1	21
451.887	1	25
452.057	1	16
452.228	1	29
452.398	1	30
452.569	1	26
452.739	1	17
452.910	1	9
453.080	1	17
453.251	1	29
453.421	1	24
453.592	1	21
453.762	1	18
453.933	1	15
454.103	1	12
454.274	1	13
454.444	1	16
454.615	1	15
454.785	1	23
454.956	1	12
455.126	1	11
455.297	1	17
455.467	1	13
455.638	1	10
455.808	1	11
455.979	1	2
456.149	1	14
456.320	1	14
456.490	1	17
456.661	1	6
456.831	1	15
457.001	1	11
457.172	1	14
457.342	1	8
457.513	1	22
457.683	1	10
457.854	1	19
458.024	1	11
458.195	1	14
458.365	1	18
458.536	1	28
458.706	1	22
458.877	1	6
459.047	1	11
459.218	1	12
459.388	1	17
459.559	1	18
459.729	1	20
459.899	1	10
460.070	1	5
460.240	1	11
460.411	1	12
460.581	1	13
460.752	1	23
460.922	1	9
461.093	1	14
461.263	1	18
461.434	1	19
461.604	1	21
461.775	1	5
461.945	1	10
462.115	1	16
462.286	1	23
462.456	1	18
462.627	1	9
462.797	1	13
462.968	1	19
463.138	1	17
463.309	1	5
463.479	1	18
463.649	1	20
463.820	1	26
463.990	1	20
464.161	1	2
464.331	1	7
464.502	1	20
464.672	1	18
464.843	1	18
465.013	1	10
465.183	1	9
465.354	1	9
465.524	1	27
465.695	1	20
465.865	1	23
466.036	1	9
466.206	1	21
466.376	1	5
466.547	1	22
466.717	1	23
466.888	1	22
467.058	1	28
467.229	1	22
467.399	1	16
467.569	1	26
467.740	1	15
467.910	1	9
468.081	1	22
468.251	1	22
468.422	1	17
468.592	1	20
468.762	1	25
468.933	1	19
469.103	1	24
469.274	1	22
469.444	1	26
469.614	1	16
469.785	1	10
469.955	1	9
470.126	1	22
470.296	1	28
470.467	1	15
470.637	1	8
470.807	1	34
470.978	1	13
471.148	1	22
471.319	1	28
471.489	1	26
471.659	1	11
471.830	1	23
472.000	1	14
472.171	1	20
472.341	1	16
472.511	1	27
472.682	1	11
472.852	1	20
473.023	1	21
473.193	1	22
473.363	1	24
473.534	1	31
473.704	1	19
473.875	1	20
474.045	1	25
474.215	1	27
474.386	1	24
474.556	1	28
474.727	1	23
474.897	1	32
475.067	1	27
475.238	1	21
475.408	1	21
475.578	1	29
475.749	1	22
475.919	1	22
476.090	1	30
476.260	1	18
476.430	1	25
476.601	1	15
476.771	1	23
476.942	1	32
477.112	1	31
477.282	1	19
477.453	1	33
477.623	1	34
477.793	1	9
477.964	1	39
478.134	1	39
478.305	1	24
478.475	1	25
478.645	1	30
478.816	1	39
478.986	1	33
479.156	1	30
479.327	1	23
479.497	1	31
479.667	1	32
479.838	1	26
480.008	1	32
480.179	1	30
480.349	1	27
480.519	1	39
480.690	1	42
480.860	1	30
481.030	1	41
481.201	1	37
481.371	1	25
481.541	1	29
481.712	1	30
481.882	1	34
482.053	1	33
482.223	1	46
482.393	1	40
482.564	1	37
482.734	1	51
482.904	1	47
483.075	1	45
483.245	1	39
483.415	1	42
483.586	1	44
483.756	1	52
483.926	1	44
484.097	1	52
484.267	1	37
484.437	1	50
484.608	1	36
484.778	1	42
484.948	1	52
485.119	1	43
485.289	1	53
485.459	1	56
485.630	1	53
485.800	1	51
485.970	1	44
486.141	1	51
486.311	1	32
486.481	1	57
486.652	1	58
486.822	1	61
486.992	1	68
487.163	1	48
487.333	1	57
487.503	1	64
487.674	1	63
487.844	1	58
488.014	1	53
488.185	1	59
488.355	1	67
488.525	1	57
488.696	1	58
488.866	1	61
489.036	1	65
489.207	1	65
489.377	1	65
489.547	1	72
489.718	1	64
489.888	1	71
490.058	1	64
490.228	1	64
490.399	1	68
490.569	1	74
490.739	1	82
490.910	1	61
491.080	1	70
491.250	1	77
491.421	1	70
491.591	1	65
491.761	1	82
491.932	1	70
492.102	1	69
492.272	1	57
492.442	1	82
492.613	1	73
492.783	1	72
492.953	1	85
493.124	1	75
493.294	1	71
493.464	1	79
493.635	1	77
493.805	1	77
493.975	1	85
494.145	1	95
494.316	1	74
494.486	1	79
494.656	1	79
494.827	1	83
494.997	1	89
495.167	1	103
495.337	1	84
495.508	1	84
495.678	1	102
495.848	1	85
496.019	1	91
496.189	1	104
496.359	1	90
496.529	1	94
496.700	1	93
496.870	1	105
497.040	1	91
497.211	1	90
497.381	1	111
497.551	1	103
497.721	1	94
497.892	1	112
498.062	1	104
498.232	1	93
498.403	1	109
498.573	1	111
498.743	1	104
498.913	1	109
499.084	1	113
499.254	1	127
499.424	1	112
499.594	1	119
499.765	1	112
499.935	1	127
500.105	1	115
500.275	1	129
500.446	1	122
500.616	1	116
500.786	1	118
500.956	1	131
501.127	1	130
501.297	1	134
501.467	1	123
501.638	1	132
501.808	1	136
501.978	1	136
502.148	1	131
502.319	1	147
502.489	1	123
502.659	1	137
502.829	1	129
503.000	1	136
503.170	1	143
503.340	1	142
503.510	1	141
503.681	1	126
503.851	1	126
504.021	1	137
504.191	1	148
504.362	1	143
504.532	1	139
504.702	1	151
504.872	1	140
505.042	1	149
505.213	1	152
505.383	1	151
505.553	1	147
505.723	1	156
505.894	1	147
506.064	1	143
506.234	1	146
506.404	1	163
506.575	1	153
506.745	1	143
506.915	1	159
507.085	1	163
507.256	1	166
507.426	1	167
507.596	1	160
507.766	1	176
507.936	1	165
508.107	1	174
508.277	1	163
508.447	1	164
508.617	1	153
508.788	1	172
508.958	1	168
509.128	1	168
509.298	1	162
509.468	1	184
509.639	1	168
509.809	1	180
509.979	1	189
510.149	1	181
510.319	1	171
510.490	1	184
510.660	1	182
510.830	1	172
511.000	1	182
511.171	1	193
511.341	1	188
511.511	1	184
511.681	1	190
511.851	1	195
512.022	1	186
512.192	1	179
512.362	1	189
512.532	1	202
512.702	1	175
512.873	1	199
513.043	1	181
513.213	1	194
513.383	1	197
513.553	1	192
513.724	1	196
513.894	1	195
514.064	1	200
514.234	1	200
514.404	1	190
514.575	1	204
514.745	1	200
514.915	1	199
515.085	1	196
515.255	1	197
515.425	1	207
515.596	1	214
515.766	1	194
515.936	1	219
516.106	1	205
516.276	1	207
516.447	1	203
516.617	1	201
516.787	1	218
516.957	1	197
517.127	1	212
517.297	1	212
517.468	1	222
517.638	1	231
517.808	1	196
517.978	1	224
518.148	1	222
518.319	1	214
518.489	1	220
518.659	1	226
518.829	1	213
518.999	1	210
519.169	1	217
519.340	1	216
519.510	1	207
519.680	1	215
519.850	1	235
520.020	1	223
520.190	1	237
520.361	1	230
520.531	1	228
520.701	1	241
520.871	1	231
521.041	1	214
521.211	1	227
521.382	1	233
521.552	1	237
521.722	1	245
521.892	1	233
522.062	1	237
522.232	1	247
522.402	1	235
522.573	1	240
522.743	1	241
522.913	1	235
523.083	1	243
523.253	1	237
523.423	1	249
523.593	1	245
523.764	1	260
523.934	1	252
524.104	1	245
524.274	1	244
524.444	1	252
524.614	1	264
524.784	1	244
524.955	1	254
525.125	1	260
525.295	1	250
525.465	1	257
525.635	1	267
525.805	1	256
525.975	1	272
526.146	1	258
526.316	1	271
526.486	1	261
526.656	1	262
526.826	1	277
526.996	1	273
527.166	1	293
527.337	1	268
527.507	1	280
527.677	1	291
527.847	1	267
528.017	1	264
528.187	1	285
528.357	1	275
528.527	1	276
528.698	1	289
528.868	1	283
529.038	1	265
529.208	1	273
529.378	1	277
529.548	1	283
529.718	1	282
529.888	1	269
530.058	1	293
530.229	1	271
530.399	1	296
530.569	1	287
530.739	1	274
530.909	1	295
531.079	1	273
531.249	1	275
531.419	1	286
531.589	1	303
531.760	1	284
531.930	1	274
532.100	1	289
532.270	1	268
532.440	1	260
532.610	1	279
532.780	1	266
532.950	1	258
533.120	1	256
533.290	1	261
533.461	1	253
533.631	1	268
533.801	1	263
533.971	1	243
534.141	1	259
534.311	1	258
534.481	1	244
534.651	1	265
534.821	1	247
534.991	1	249
535.162	1	255
535.332	1	260
535.502	1	254
535.672	1	238
535.842	1	248
536.012	1	243
536.182	1	246
536.352	1	246
536.522	1	257
536.692	1	232
536.862	1	242
537.032	1	229
537.203	1	249
537.373	1	245
537.543	1	241
537.713	1	258
537.883	1	244
538.053	1	246
538.223	1	249
538.393	1	239
538.563	1	252
538.733	1	228
538.903	1	247
539.073	1	251
539.243	1	240
539.413	1	228
539.584	1	241
539.754	1	255
539.924	1	248
540.094	1	253
540.264	1	257
540.434	1	260
540.604	1	264
540.774	1	263
540.944	1	248
541.114	1	245
541.284	1	263
541.454	1	265
541.624	1	255
541.794	1	258
541.964	1	247
542.134	1	262
542.305	1	255
542.475	1	264
542.645	1	271
542.815	1	261
542.985	1	265
543.155	1	278
543.325	1	246
543.495	1	272
543.665	1	277
543.835	1	269
544.005	1	270
544.175	1	278
544.345	1	262
544.515	1	268
544.685	1	272
544.855	1	274
545.025	1	278
545.195	1	270
545.365	1	259
545.535	1	280
545.705	1	274
545.875	1	283
546.045	1	278
546.216	1	285
546.386	1	282
546.556	1	279
546.726	1	283
546.896	1	275
547.066	1	293
547.236	1	278
547.406	1	281
547.576	1	278
547.746	1	271
547.916	1	254
548.086	1	266
548.256	1	279
548.426	1	275
548.596	1	286
548.766	1	260
548.936	1	276
549.106	1	273
549.276	1	264
549.446	1	265
549.616	1	253
549.786	1	279
549.956	1	272
550.126	1	269
550.296	1	276
550.466	1	286
550.636	1	270
550.806	1	264
550.976	1	266
551.146	1	271
551.316	1	258
551.486	1	259
551.656	1	234
551.826	1	248
551.996	1	278
552.166	1	266
552.336	1	271
552.506	1	259
552.676	1	255
552.846	1	267
553.016	1	261
553.186	1	251
553.356	1	259
553.526	1	258
553.696	1	243
553.866	1	254
554.036	1	242
554.206	1	266
554.376	1	247
554.546	1	266
554.716	1	236
554.886	1	245
555.056	1	230
555.226	1	243
555.396	1	232
555.566	1	237
555.736	1	252
555.906	1	258
556.076	1	238
556.246	1	248
556.416	1	241
556.586	1	235
556.756	1	239
556.926	1	257
557.096	1	243
557.266	1	243
557.436	1	249
557.606	1	258
557.776	1	245
557.946	1	217
558.116	1	239
558.286	1	231
558.456	1	240
558.626	1	258
558.796	1	257
558.966	1	245
559.136	1	243
559.306	1	248
559.476	1	242
559.646	1	237
559.816	1	243
559.986	1	241
560.155	1	240
560.325	1	238
560.495	1	233
560.665	1	245
560.835	1	232
561.005	1	238
561.175	1	240
561.345	1	233
561.515	1	241
561.685	1	234
561.855	1	247
562.025	1	238
562.195	1	238
562.365	1	234
562.535	1	232
562.705	1	230
562.875	1	238
563.045	1	229
563.215	1	234
563.385	1	242
563.555	1	236
563.725	1	237
563.895	1	239
564.064	1	234
564.234	1	235
564.404	1	231
564.574	1	223
564.744	1	231
564.914	1	233
565.084	1	210
565.254	1	226
565.424	1	233
565.594	1	210
565.764	1	221
565.934	1	234
566.104	1	224
566.274	1	223
566.444	1	228
566.614	1	213
566.783	1	233
566.953	1	208
567.123	1	229
567.293	1	217
567.463	1	216
567.633	1	222
567.803	1	226
567.973	1	221
568.143	1	221
568.313	1	219
568.483	1	225
568.653	1	224
568.823	1	206
568.993	1	215
569.162	1	205
569.332	1	221
569.502	1	215
569.672	1	219
569.842	1	209
570.012	1	210
570.182	1	199
570.352	1	214
570.522	1	198
570.692	1	201
570.862	1	201
571.031	1	204
571.201	1	213
571.371	1	217
571.541	1	207
571.711	1	206
571.881	1	210
572.051	1	203
572.221	1	209
572.391	1	215
572.561	1	194
572.731	1	192
572.900	1	213
573.070	1	202
573.240	1	198
573.410	1	222
573.580	1	204
573.750	1	199
573.920	1	204
574.090	1	212
574.260	1	197
574.430	1	202
574.599	1	207
574.769	1	202
574.939	1	199
575.109	1	205
575.279	1	202
575.449	1	204
575.619	1	199
575.789	1	214
575.959	1	206
576.128	1	207
576.298	1	208
576.468	1	207
576.638	1	218
576.808	1	208
576.978	1	191
577.148	1	216
577.318	1	214
577.487	1	212
577.657	1	207
577.827	1	195
577.997	1	202
578.167	1	216
578.337	1	211
578.507	1	222
578.677	1	205
578.846	1	212
579.016	1	216
579.186	1	208
579.356	1	203
579.526	1	207
579.696	1	209
579.866	1	199
580.036	1	186
580.205	1	210
580.375	1	210
580.545	1	190
580.715	1	195
580.885	1	186
581.055	1	209
581.225	1	196
581.394	1	202
581.564	1	195
581.734	1	197
581.904	1	202
582.074	1	190
582.244	1	190
582.414	1	182
582.583	1	198
582.753	1	199
582.923	1	193
583.093	1	179
583.263	1	193
583.433	1	194
583.603	1	189
583.772	1	193
583.942	1	179
584.112	1	168
584.282	1	199
584.452	1	180
584.622	1	177
584.791	1	190
584.961	1	163
585.131	1	179
585.301	1	157
585.471	1	181
585.641	1	179
585.811	1	182
585.980	1	174
586.150	1	165
586.320	1	162
586.490	1	175
586.660	1	170
586.830	1	174
586.999	1	167
587.169	1	155
587.339	1	159
587.509	1	163
587.679	1	159
587.849	1	157
588.018	1	163
588.188	1	163
588.358	1	156
588.528	1	156
588.698	1	156
588.867	1	159
589.037	1	155
589.207	1	151
589.377	1	157
589.547	1	145
589.717	1	151
589.886	1	154
590.056	1	142
590.226	1	151
590.396	1	149
590.566	1	150
590.735	1	155
590.905	1	147
591.075	1	144
591.245	1	160
591.415	1	140
591.585	1	143
591.754	1	148
591.924	1	146
592.094	1	142
592.264	1	142
592.434	1	152
592.603	1	153
592.773	1	136
592.943	1	162
593.113	1	148
593.283	1	148
593.452	1	156
593.622	1	155
593.792	1	156
593.962	1	155
594.132	1	148
594.301	1	151
594.471	1	161
594.641	1	146
594.811	1	147
594.981	1	144
595.150	1	154
595.320	1	152
595.490	1	155
595.660	1	152
595.829	1	142
595.999	1	141
596.169	1	149
596.339	1	155
596.509	1	146
596.678	1	147
596.848	1	149
597.018	1	145
597.188	1	149
597.358	1	140
597.527	1	158
597.697	1	136
597.867	1	153
598.037	1	157
598.206	1	154
598.376	1	138
598.546	1	144
598.716	1	161
598.885	1	152
599.055	1	151
599.225	1	162
599.395	1	146
599.565	1	145
599.734	1	158
599.904	1	155
600.074	1	148
600.244	1	161
600.413	1	150
600.583	1	158
600.753	1	156
600.923	1	152
601.092	1	159
601.262	1	151
601.432	1	143
601.602	1	150
601.771	1	149
601.941	1	153
602.111	1	158
602.281	1	143
602.451	1	153
602.620	1	142
602.790	1	154
602.960	1	152
603.130	1	140
603.299	1	154
603.469	1	151
603.639	1	150
603.809	1	141
603.978	1	149
604.148	1	148
604.318	1	147
604.487	1	147
604.657	1	157
604.827	1	151
604.997	1	153
605.166	1	141
605.336	1	139
605.506	1	139
605.676	1	144
605.845	1	158
606.015	1	139
606.185	1	147
606.355	1	135
606.524	1	158
606.694	1	134
606.864	1	134
607.034	1	130
607.203	1	140
607.373	1	145
607.543	1	135
607.712	1	144
607.882	1	139
608.052	1	133
608.222	1	128
608.391	1	137
608.561	1	132
608.731	1	146
608.901	1	133
609.070	1	136
609.240	1	124
609.410	1	143
609.579	1	118
609.749	1	126
609.919	1	116
610.089	1	122
610.258	1	128
610.428	1	125
610.598	1	113
610.767	1	121
610.937	1	114
611.107	1	116
611.277	1	131
611.446	1	120
611.616	1	125
611.786	1	123
611.955	1	123
612.125	1	109
612.295	1	113
612.465	1	120
612.634	1	130
612.804	1	119
612.974	1	118
613.143	1	121
613.313	1	129
613.483	1	116
613.652	1	107
613.822	1	101
613.992	1	122
614.162	1	116
614.331	1	128
614.501	1	116
614.671	1	111
614.840	1	106
615.010	1	110
615.180	1	131
615.349	1	108
615.519	1	123
615.689	1	111
615.858	1	122
616.028	1	109
616.198	1	121
616.368	1	118
616.537	1	108
616.707	1	111
616.877	1	109
617.046	1	108
617.216	1	126
617.386	1	108
617.555	1	109
617.725	1	110
617.895	1	114
618.064	1	95
618.234	1	98
618.404	1	116
618.573	1	109
618.743	1	128
618.913	1	108
619.082	1	111
619.252	1	113
619.422	1	116
619.591	1	105
619.761	1	97
619.931	1	103
620.100	1	105
620.270	1	99
620.440	1	109
620.609	1	101
620.779	1	96
620.949	1	119
621.118	1	117
621.288	1	110
621.458	1	111
621.627	1	119
621.797	1	116
621.967	1	94
622.136	1	109
622.306	1	103
622.476	1	107
622.645	1	95
622.815	1	95
622.985	1	113
623.154	1	103
623.324	1	95
623.494	1	115
623.663	1	110
623.833	1	101
624.002	1	104
624.172	1	109
624.342	1	96
624.511	1	111
624.681	1	101
624.851	1	94
625.020	1	109
625.190	1	92
625.360	1	104
625.529	1	103
625.699	1	102
625.869	1	117
626.038	1	98
626.208	1	104
626.377	1	103
626.547	1	101
626.717	1	94
626.886	1	100
627.056	1	95
627.226	1	104
627.395	1	110
627.565	1	100
627.735	1	105
627.904	1	103
628.074	1	103
628.243	1	102
628.413	1	115
628.583	1	102
628.752	1	96
628.922	1	99
629.091	1	91
629.261	1	97
629.431	1	85
629.600	1	97
629.770	1	96
629.940	1	85
630.109	1	83
630.279	1	99
630.448	1	102
630.618	1	91
630.788	1	85
630.957	1	107
631.127	1	93
631.297	1	96
631.466	1	93
631.636	1	85
631.805	1	103
631.975	1	105
632.145	1	82
632.314	1	88
632.484	1	88
632.653	1	93
632.823	1	87
632.993	1	84
633.162	1	84
633.332	1	83
633.501	1	76
633.671	1	92
633.841	1	89
634.010	1	93
634.180	1	84
634.349	1	97
634.519	1	86
634.689	1	92
634.858	1	87
635.028	1	81
635.197	1	105
635.367	1	83
635.537	1	87
635.706	1	101
635.876	1	80
636.045	1	81
636.215	1	81
636.384	1	84
636.554	1	96
636.724	1	84
636.893	1	78
637.063	1	88
637.232	1	77
637.402	1	80
637.572	1	101
637.741	1	80
637.911	1	81
638.080	1	75
638.250	1	82
638.419	1	88
638.589	1	75
638.759	1	90
638.928	1	91
639.098	1	81
639.267	1	79
639.437	1	82
639.606	1	80
639.776	1	82
639.946	1	82
640.115	1	84
640.285	1	86
640.454	1	81
640.624	1	107
640.793	1	82
640.963	1	82
641.132	1	90
641.302	1	89
641.472	1	80
641.641	1	82
641.811	1	76
641.980	1	70
642.150	1	85
642.319	1	84
642.489	1	83
642.659	1	69
642.828	1	88
642.998	1	77
643.167	1	76
643.337	1	80
643.506	1	86
643.676	1	69
643.845	1	85
644.015	1	72
644.184	1	81
644.354	1	77
644.524	1	92
644.693	1	82
644.863	1	88
645.032	1	85
645.202	1	84
645.371	1	59
645.541	1	90
645.710	1	79
645.880	1	76
646.049	1	65
646.219	1	91
646.388	1	84
646.558	1	93
646.728	1	83
646.897	1	85
647.067	1	87
647.236	1	77
647.406	1	75
647.575	1	81
647.745	1	76
647.914	1	67
648.084	1	72
648.253	1	75
648.423	1	69
648.592	1	70
648.762	1	81
648.931	1	87
649.101	1	61
649.270	1	73
649.440	1	78
649.610	1	67
649.779	1	78
649.949	1	68
650.118	1	69
650.288	1	78
650.457	1	69
650.627	1	68
650.796	1	57
650.966	1	68
651.135	1	74
651.305	1	68
651.474	1	66
651.644	1	68
651.813	1	69
651.983	1	79
652.152	1	71
652.322	1	68
652.491	1	70
652.661	1	70
652.830	1	76
653.000	1	69
653.169	1	61
653.339	1	68
653.508	1	62
653.678	1	57
653.847	1	71
654.017	1	74
654.186	1	77
654.356	1	77
654.525	1	68
654.695	1	71
654.864	1	51
655.034	1	56
655.203	1	54
655.373	1	64
655.542	1	64
655.712	1	62
655.881	1	76
656.051	1	56
656.220	1	59
656.390	1	67
656.559	1	54
656.729	1	64
656.898	1	64
657.068	1	63
657.237	1	59
657.406	1	54
657.576	1	56
657.745	1	55
657.915	1	55
658.084	1	62
658.254	1	62
658.423	1	62
658.593	1	59
658.762	1	76
658.932	1	50
659.101	1	55
659.271	1	66
659.440	1	55
659.610	1	58
659.779	1	64
659.949	1	46
660.118	1	75
660.288	1	50
660.457	1	52
660.626	1	54
660.796	1	49
660.965	1	55
661.135	1	53
661.304	1	51
661.474	1	58
661.643	1	48
661.813	1	66
661.982	1	59
662.152	1	62
662.321	1	59
662.491	1	52
662.660	1	62
662.829	1	52
662.999	1	64
663.168	1	55
663.338	1	56
663.507	1	46
663.677	1	48
663.846	1	58
664.016	1	60
664.185	1	60
664.354	1	66
664.524	1	49
664.693	1	65
664.863	1	64
665.032	1	58
665.202	1	56
665.371	1	52
665.541	1	53
665.710	1	57
665.879	1	57
666.049	1	54
666.218	1	51
666.388	1	65
666.557	1	58
666.727	1	48
666.896	1	50
667.065	1	61
667.235	1	57
667.404	1	51
667.574	1	52
667.743	1	69
667.913	1	72
668.082	1	62
668.251	1	74
668.421	1	42
668.590	1	53
668.760	1	63
668.929	1	49
669.099	1	55
669.268	1	58
669.437	1	57
669.607	1	58
669.776	1	57
669.946	1	53
670.115	1	57
670.285	1	54
670.454	1	68
670.623	1	54
670.793	1	54
670.962	1	69
671.132	1	65
671.301	1	61
671.470	1	55
671.640	1	63
671.809	1	49
671.979	1	64
672.148	1	60
672.317	1	63
672.487	1	57
672.656	1	68
672.826	1	59
672.995	1	58
673.164	1	71
673.334	1	57
673.503	1	65
673.673	1	48
673.842	1	53
674.011	1	52
674.181	1	65
674.350	1	55
674.520	1	67
674.689	1	53
674.858	1	47
675.028	1	65
675.197	1	53
675.367	1	51
675.536	1	52
675.705	1	59
675.875	1	46
676.044	1	49
676.214	1	60
676.383	1	57
676.552	1	62
676.722	1	50
676.891	1	52
677.060	1	53
677.230	1	55
677.399	1	65
677.569	1	58
677.738	1	60
677.907	1	50
678.077	1	64
678.246	1	47
678.416	1	54
678.585	1	50
678.754	1	53
678.924	1	55
679.093	1	55
679.262	1	65
679.432	1	63
679.601	1	64
679.771	1	63
679.940	1	59
680.109	1	48
680.279	1	52
680.448	1	46
680.617	1	51
680.787	1	50
680.956	1	58
681.125	1	56
681.295	1	63
681.464	1	52
681.634	1	45
681.803	1	53
681.972	1	47
682.142	1	45
682.311	1	50
682.480	1	50
682.650	1	50
682.819	1	47
682.988	1	51
683.158	1	54
683.327	1	51
683.496	1	46
683.666	1	47
683.835	1	36
684.004	1	54
684.174	1	58
684.343	1	47
684.512	1	44
684.682	1	45
684.851	1	51
685.021	1	51
685.190	1	57
685.359	1	39
685.529	1	49
685.698	1	45
685.867	1	48
686.037	1	57
686.206	1	56
686.375	1	53
686.545	1	42
686.714	1	47
686.883	1	44
687.053	1	43
687.222	1	49
687.391	1	62
687.561	1	53
687.730	1	50
687.899	1	57
688.069	1	42
688.238	1	54
688.407	1	48
688.577	1	52
688.746	1	54
