340.368	1	7
340.539	1	6
340.710	1	0
340.881	1	2
341.052	1	1
341.223	1	-13
341.394	1	1
341.565	1	9
341.737	1	3
341.908	1	6
342.079	1	11
342.250	1	2
342.421	1	0
342.592	1	-2
342.763	1	5
342.934	1	-4
343.105	1	8
343.276	1	-3
343.447	1	8
343.618	1	1
343.789	1	20
343.960	1	4
344.131	1	12
344.302	1	11
344.473	1	-3
344.644	1	4
344.815	1	-6
344.986	1	2
345.157	1	0
345.328	1	0
345.499	1	10
345.670	1	3
345.841	1	4
346.012	1	6
346.183	1	-3
346.354	1	1
346.526	1	3
346.697	1	12
346.868	1	0
347.039	1	6
347.210	1	1
347.381	1	1
347.552	1	3
347.723	1	0
347.894	1	-8
348.065	1	-3
348.236	1	-7
348.407	1	8
348.578	1	3
348.749	1	0
348.920	1	-4
349.091	1	9
349.262	1	9
349.433	1	6
349.604	1	-3
349.775	1	3
349.946	1	-3
350.117	1	6
350.288	1	14
350.459	1	2
350.630	1	3
350.801	1	7
350.972	1	0
351.143	1	-1
351.314	1	2
351.485	1	2
351.656	1	7
351.827	1	-3
351.998	1	12
352.169	1	-1
352.340	1	4
352.511	1	5
352.682	1	-7
352.853	1	4
353.024	1	3
353.195	1	0
353.366	1	-3
353.537	1	12
353.708	1	10
353.879	1	14
354.050	1	1
354.221	1	2
354.392	1	0
354.563	1	8
354.734	1	-4
354.905	1	7
355.076	1	7
355.247	1	2
355.418	1	9
355.589	1	6
355.760	1	3
355.931	1	1
356.102	1	0
356.273	1	10
356.444	1	8
356.615	1	3
356.785	1	10
356.956	1	15
357.127	1	14
357.298	1	0
357.469	1	18
357.640	1	15
357.811	1	13
357.982	1	15
358.153	1	7
358.324	1	16
358.495	1	8
358.666	1	11
358.837	1	6
359.008	1	7
359.179	1	19
359.350	1	9
359.521	1	13
359.692	1	17
359.863	1	9
360.034	1	11
360.205	1	5
360.376	1	20
360.547	1	24
360.718	1	24
360.889	1	21
361.060	1	3
361.231	1	13
361.401	1	16
361.572	1	16
361.743	1	29
361.914	1	16
362.085	1	25
362.256	1	21
362.427	1	18
362.598	1	19
362.769	1	27
362.940	1	14
363.111	1	24
363.282	1	38
363.453	1	29
363.624	1	34
363.795	1	29
363.966	1	28
364.137	1	42
364.308	1	46
364.478	1	43
364.649	1	49
364.820	1	57
364.991	1	44
365.162	1	55
365.333	1	53
365.504	1	38
365.675	1	48
365.846	1	57
366.017	1	57
366.188	1	57
366.359	1	48
366.530	1	62
366.701	1	65
366.871	1	60
367.042	1	62
367.213	1	68
367.384	1	78
367.555	1	71
367.726	1	84
367.897	1	80
368.068	1	83
368.239	1	75
368.410	1	82
368.581	1	73
368.752	1	61
368.923	1	79
369.093	1	70
369.264	1	68
369.435	1	67
369.606	1	75
369.777	1	70
369.948	1	73
370.119	1	67
370.290	1	68
370.461	1	73
370.632	1	69
370.803	1	70
370.973	1	76
371.144	1	64
371.315	1	50
371.486	1	50
371.657	1	61
371.828	1	63
371.999	1	51
372.170	1	53
372.341	1	56
372.512	1	46
372.682	1	63
372.853	1	31
373.024	1	67
373.195	1	51
373.366	1	42
373.537	1	50
373.708	1	42
373.879	1	48
374.050	1	52
374.220	1	43
374.391	1	33
374.562	1	45
374.733	1	53
374.904	1	35
375.075	1	39
375.246	1	36
375.417	1	35
375.588	1	38
375.758	1	41
375.929	1	28
376.100	1	39
376.271	1	38
376.442	1	33
376.613	1	41
376.784	1	34
376.955	1	19
377.125	1	35
377.296	1	34
377.467	1	25
377.638	1	31
377.809	1	31
377.980	1	28
378.151	1	20
378.321	1	34
378.492	1	18
378.663	1	23
378.834	1	23
379.005	1	12
379.176	1	23
379.347	1	24
379.518	1	27
379.688	1	20
379.859	1	17
380.030	1	23
380.201	1	8
380.372	1	11
380.543	1	21
380.714	1	24
380.884	1	8
381.055	1	22
381.226	1	17
381.397	1	28
381.568	1	20
381.739	1	17
381.910	1	12
382.080	1	14
382.251	1	21
382.422	1	19
382.593	1	21
382.764	1	18
382.935	1	10
383.105	1	9
383.276	1	9
383.447	1	9
383.618	1	19
383.789	1	14
383.960	1	8
384.130	1	17
384.301	1	21
384.472	1	11
384.643	1	11
384.814	1	12
384.985	1	13
385.156	1	18
385.326	1	13
385.497	1	0
385.668	1	11
385.839	1	13
386.010	1	14
386.180	1	3
386.351	1	15
386.522	1	21
386.693	1	21
386.864	1	9
387.035	1	18
387.205	1	-1
387.376	1	10
387.547	1	21
387.718	1	10
387.889	1	13
388.060	1	12
388.230	1	15
388.401	1	15
388.572	1	0
388.743	1	13
388.914	1	3
389.084	1	8
389.255	1	14
389.426	1	7
389.597	1	-1
389.768	1	19
389.939	1	14
390.109	1	7
390.280	1	23
390.451	1	4
390.622	1	10
390.793	1	13
390.963	1	16
391.134	1	-1
391.305	1	3
391.476	1	17
391.647	1	4
391.817	1	12
391.988	1	18
392.159	1	4
392.330	1	1
392.501	1	5
392.671	1	-4
392.842	1	15
393.013	1	-6
393.184	1	5
393.355	1	4
393.525	1	0
393.696	1	7
393.867	1	5
394.038	1	3
394.208	1	15
394.379	1	11
394.550	1	8
394.721	1	5
394.892	1	10
395.062	1	10
395.233	1	-8
395.404	1	2
395.575	1	10
395.746	1	-2
395.916	1	5
396.087	1	17
396.258	1	6
396.429	1	6
396.599	1	2
396.770	1	13
396.941	1	5
397.112	1	2
397.283	1	9
397.453	1	8
397.624	1	-3
397.795	1	13
397.966	1	17
398.136	1	10
398.307	1	6
398.478	1	7
398.649	1	9
398.819	1	2
398.990	1	3
399.161	1	13
399.332	1	7
399.503	1	5
399.673	1	10
399.844	1	8
400.015	1	-10
400.186	1	-5
400.356	1	8
400.527	1	5
400.698	1	2
400.869	1	3
401.039	1	-2
401.210	1	7
401.381	1	0
401.552	1	-7
401.722	1	-5
401.893	1	4
402.064	1	3
402.235	1	3
402.405	1	5
402.576	1	7
402.747	1	1
402.918	1	7
403.088	1	7
403.259	1	5
403.430	1	-3
403.601	1	-3
403.771	1	15
403.942	1	1
404.113	1	5
404.284	1	4
404.454	1	2
404.625	1	-3
404.796	1	10
404.967	1	0
405.137	1	5
405.308	1	-7
405.479	1	7
405.649	1	11
405.820	1	8
405.991	1	4
406.162	1	9
406.332	1	-10
406.503	1	0
406.674	1	8
406.845	1	17
407.015	1	15
407.186	1	-10
407.357	1	4
407.527	1	7
407.698	1	4
407.869	1	0
408.040	1	7
408.210	1	8
408.381	1	12
408.552	1	10
408.722	1	3
408.893	1	11
409.064	1	-1
409.235	1	7
409.405	1	-1
409.576	1	8
409.747	1	3
409.917	1	-6
410.088	1	-1
410.259	1	-2
410.430	1	9
410.600	1	8
410.771	1	8
410.942	1	1
411.112	1	6
411.283	1	1
411.454	1	3
411.625	1	7
411.795	1	-4
411.966	1	3
412.137	1	-8
412.307	1	9
412.478	1	4
412.649	1	3
412.819	1	14
412.990	1	11
413.161	1	3
413.332	1	6
413.502	1	-2
413.673	1	9
413.844	1	3
414.014	1	3
414.185	1	5
414.356	1	2
414.526	1	-11
414.697	1	-4
414.868	1	3
415.038	1	8
415.209	1	7
415.380	1	-3
415.550	1	16
415.721	1	-6
415.892	1	7
416.063	1	7
416.233	1	-6
416.404	1	10
416.575	1	-2
416.745	1	6
416.916	1	-11
417.087	1	1
417.257	1	-1
417.428	1	10
417.599	1	3
417.769	1	-1
417.940	1	-6
418.111	1	5
418.281	1	19
418.452	1	6
418.623	1	-2
418.793	1	12
418.964	1	-6
419.135	1	2
419.305	1	-2
419.476	1	9
419.647	1	-11
419.817	1	0
419.988	1	3
420.159	1	4
420.329	1	-1
420.500	1	16
420.671	1	-7
420.841	1	2
421.012	1	1
421.183	1	2
421.353	1	2
421.524	1	1
421.695	1	13
421.865	1	2
422.036	1	6
422.206	1	2
422.377	1	-1
422.548	1	6
422.718	1	10
422.889	1	8
423.060	1	2
423.230	1	-6
423.401	1	3
423.572	1	14
423.742	1	4
423.913	1	4
424.084	1	0
424.254	1	3
424.425	1	3
424.595	1	7
424.766	1	-5
424.937	1	7
425.107	1	14
425.278	1	6
425.449	1	-5
425.619	1	0
425.790	1	10
425.961	1	6
426.131	1	5
426.302	1	-13
426.472	1	-4
426.643	1	9
426.814	1	4
426.984	1	1
427.155	1	6
427.326	1	0
427.496	1	-5
427.667	1	-2
427.837	1	1
428.008	1	13
428.179	1	5
428.349	1	3
428.520	1	-7
428.691	1	14
428.861	1	6
429.032	1	3
429.202	1	11
429.373	1	10
429.544	1	3
429.714	1	-10
429.885	1	-3
430.055	1	7
430.226	1	7
430.397	1	2
430.567	1	1
430.738	1	-9
430.909	1	-3
431.079	1	10
431.250	1	8
431.420	1	11
431.591	1	10
431.762	1	-4
431.932	1	-8
432.103	1	-3
432.273	1	14
432.444	1	-4
432.615	1	8
432.785	1	0
432.956	1	-2
433.126	1	14
433.297	1	1
433.468	1	1
433.638	1	-3
433.809	1	7
433.979	1	7
434.150	1	7
434.320	1	9
434.491	1	-15
434.662	1	6
434.832	1	1
435.003	1	0
435.173	1	4
435.344	1	-11
435.515	1	1
435.685	1	-4
435.856	1	7
436.026	1	-5
436.197	1	7
436.368	1	3
436.538	1	4
436.709	1	-6
436.879	1	8
437.050	1	13
437.220	1	10
437.391	1	1
437.562	1	8
437.732	1	0
437.903	1	0
438.073	1	-8
438.244	1	10
438.414	1	-4
438.585	1	-3
438.756	1	10
438.926	1	0
439.097	1	-4
439.267	1	2
439.438	1	5
439.608	1	-1
439.779	1	-1
439.949	1	6
440.120	1	-5
440.291	1	-6
440.461	1	-6
440.632	1	10
440.802	1	7
440.973	1	15
441.143	1	-4
441.314	1	2
441.485	1	11
441.655	1	-4
441.826	1	1
441.996	1	-7
442.167	1	-9
442.337	1	2
442.508	1	4
442.678	1	1
442.849	1	17
443.019	1	3
443.190	1	7
443.361	1	9
443.531	1	-2
443.702	1	13
443.872	1	3
444.043	1	3
444.213	1	3
444.384	1	2
444.554	1	4
444.725	1	20
444.895	1	4
445.066	1	4
445.237	1	3
445.407	1	-7
445.578	1	1
445.748	1	-4
445.919	1	-6
446.089	1	22
446.260	1	-4
446.430	1	2
446.601	1	0
446.771	1	9
446.942	1	-1
447.112	1	3
447.283	1	16
447.453	1	2
447.624	1	-2
447.794	1	7
447.965	1	5
448.135	1	5
448.306	1	14
448.477	1	15
448.647	1	-5
448.818	1	4
448.988	1	6
449.159	1	7
449.329	1	6
449.500	1	-8
449.670	1	-1
449.841	1	-11
450.011	1	4
450.182	1	2
450.352	1	5
450.523	1	-9
450.693	1	-4
450.864	1	0
451.034	1	15
451.205	1	-2
451.375	1	4
451.546	1	-3
451.716	1	-1
451.887	1	6
452.057	1	5
452.228	1	9
452.398	1	2
452.569	1	9
452.739	1	9
452.910	1	1
453.080	1	-8
453.251	1	-7
453.421	1	0
453.592	1	11
453.762	1	-1
453.933	1	-5
454.103	1	-5
454.274	1	2
454.444	1	2
454.615	1	0
454.785	1	5
454.956	1	-3
455.126	1	0
455.297	1	6
455.467	1	-2
455.638	1	0
455.808	1	-2
455.979	1	-11
456.149	1	3
456.320	1	1
456.490	1	-2
456.661	1	0
456.831	1	-8
457.001	1	4
457.172	1	3
457.342	1	6
457.513	1	3
457.683	1	10
457.854	1	4
458.024	1	-5
458.195	1	-5
458.365	1	7
458.536	1	6
458.706	1	12
458.877	1	9
459.047	1	-4
459.218	1	-2
459.388	1	3
459.559	1	-3
459.729	1	0
459.899	1	0
460.070	1	-1
460.240	1	3
460.411	1	-3
460.581	1	-5
460.752	1	3
460.922	1	-3
461.093	1	1
461.263	1	1
461.434	1	3
461.604	1	6
461.775	1	-10
461.945	1	-5
462.115	1	5
462.286	1	1
462.456	1	-4
462.627	1	-3
462.797	1	10
462.968	1	8
463.138	1	9
463.309	1	-5
463.479	1	2
463.649	1	4
463.820	1	0
463.990	1	-1
464.161	1	-1
464.331	1	-9
464.502	1	-6
464.672	1	5
464.843	1	0
465.013	1	3
465.183	1	7
465.354	1	-3
465.524	1	-2
465.695	1	7
465.865	1	9
466.036	1	-7
466.206	1	8
466.376	1	2
466.547	1	13
466.717	1	2
466.888	1	2
467.058	1	11
467.229	1	12
467.399	1	10
467.569	1	15
467.740	1	-2
467.910	1	-1
468.081	1	-3
468.251	1	4
468.422	1	1
468.592	1	12
468.762	1	2
468.933	1	2
469.103	1	3
469.274	1	7
469.444	1	8
469.614	1	-4
469.785	1	-5
469.955	1	-10
470.126	1	0
470.296	1	-3
470.467	1	-1
470.637	1	2
470.807	1	7
470.978	1	-3
471.148	1	3
471.319	1	11
471.489	1	-7
471.659	1	-1
471.830	1	0
472.000	1	0
472.171	1	1
472.341	1	7
472.511	1	1
472.682	1	-11
472.852	1	10
473.023	1	0
473.193	1	11
473.363	1	3
473.534	1	9
473.704	1	-6
473.875	1	13
474.045	1	-2
474.215	1	12
474.386	1	-5
474.556	1	16
474.727	1	1
474.897	1	-9
475.067	1	2
475.238	1	7
475.408	1	3
475.578	1	-4
475.749	1	7
475.919	1	6
476.090	1	2
476.260	1	5
476.430	1	11
476.601	1	6
476.771	1	7
476.942	1	-11
477.112	1	10
477.282	1	-4
477.453	1	-4
477.623	1	11
477.793	1	-1
477.964	1	0
478.134	1	4
478.305	1	10
478.475	1	2
478.645	1	4
478.816	1	-2
478.986	1	17
479.156	1	-10
479.327	1	-5
479.497	1	-1
479.667	1	5
479.838	1	13
480.008	1	-1
480.179	1	5
480.349	1	6
480.519	1	-1
480.690	1	0
480.860	1	8
481.030	1	11
481.201	1	7
481.371	1	8
481.541	1	2
481.712	1	12
481.882	1	4
482.053	1	2
482.223	1	4
482.393	1	-4
482.564	1	-4
482.734	1	14
482.904	1	7
483.075	1	1
483.245	1	1
483.415	1	1
483.586	1	14
483.756	1	8
483.926	1	6
484.097	1	11
484.267	1	0
484.437	1	16
484.608	1	-4
484.778	1	1
484.948	1	6
485.119	1	4
485.289	1	-6
485.459	1	7
485.630	1	3
485.800	1	-2
485.970	1	3
486.141	1	-7
486.311	1	-3
486.481	1	15
486.652	1	5
486.822	1	5
486.992	1	16
487.163	1	3
487.333	1	-3
487.503	1	10
487.674	1	4
487.844	1	4
488.014	1	4
488.185	1	7
488.355	1	2
488.525	1	4
488.696	1	10
488.866	1	5
489.036	1	10
489.207	1	10
489.377	1	6
489.547	1	3
489.718	1	-4
489.888	1	2
490.058	1	7
490.228	1	9
490.399	1	12
490.569	1	16
490.739	1	12
490.910	1	2
491.080	1	6
491.250	1	6
491.421	1	5
491.591	1	8
491.761	1	17
491.932	1	5
492.102	1	7
492.272	1	1
492.442	1	-4
492.613	1	3
492.783	1	-9
492.953	1	11
493.124	1	3
493.294	1	1
493.464	1	6
493.635	1	1
493.805	1	15
493.975	1	11
494.145	1	7
494.316	1	-1
494.486	1	0
494.656	1	5
494.827	1	-1
494.997	1	17
495.167	1	18
495.337	1	8
495.508	1	5
495.678	1	13
495.848	1	8
496.019	1	6
496.189	1	9
496.359	1	2
496.529	1	4
496.700	1	15
496.870	1	6
497.040	1	11
497.211	1	0
497.381	1	3
497.551	1	15
497.721	1	-6
497.892	1	17
498.062	1	0
498.232	1	4
498.403	1	-1
498.573	1	17
498.743	1	7
498.913	1	17
499.084	1	9
499.254	1	-1
499.424	1	10
499.594	1	0
499.765	1	14
499.935	1	4
500.105	1	7
500.275	1	7
500.446	1	9
500.616	1	7
500.786	1	1
500.956	1	14
501.127	1	5
501.297	1	1
501.467	1	3
501.638	1	10
501.808	1	11
501.978	1	14
502.148	1	4
502.319	1	18
502.489	1	7
502.659	1	2
502.829	1	6
503.000	1	15
503.170	1	13
503.340	1	7
503.510	1	-10
503.681	1	6
503.851	1	-3
504.021	1	4
504.191	1	5
504.362	1	9
504.532	1	8
504.702	1	5
504.872	1	-2
505.042	1	7
505.213	1	5
505.383	1	9
505.553	1	10
505.723	1	3
505.894	1	1
506.064	1	-1
506.234	1	1
506.404	1	14
506.575	1	10
506.745	1	-1
506.915	1	19
507.085	1	8
507.256	1	17
507.426	1	14
507.596	1	19
507.766	1	19
507.936	1	6
508.107	1	15
508.277	1	11
508.447	1	3
508.617	1	11
508.788	1	-9
508.958	1	22
509.128	1	8
509.298	1	3
509.468	1	21
509.639	1	8
509.809	1	6
509.979	1	17
510.149	1	9
510.319	1	19
510.490	1	18
510.660	1	14
510.830	1	4
511.000	1	12
511.171	1	6
511.341	1	10
511.511	1	3
511.681	1	12
511.851	1	14
512.022	1	12
512.192	1	15
512.362	1	10
512.532	1	5
512.702	1	6
512.873	1	5
513.043	1	21
513.213	1	15
513.383	1	9
513.553	1	1
513.724	1	17
513.894	1	14
514.064	1	4
514.234	1	11
514.404	1	-1
514.575	1	17
514.745	1	11
514.915	1	3
515.085	1	14
515.255	1	9
515.425	1	13
515.596	1	13
515.766	1	12
515.936	1	17
516.106	1	8
516.276	1	15
516.447	1	16
516.617	1	5
516.787	1	16
516.957	1	2
517.127	1	7
517.297	1	17
517.468	1	17
517.638	1	6
517.808	1	9
517.978	1	12
518.148	1	11
518.319	1	6
518.489	1	18
518.659	1	14
518.829	1	18
518.999	1	7
519.169	1	12
519.340	1	5
519.510	1	4
519.680	1	3
519.850	1	6
520.020	1	1
520.190	1	30
520.361	1	9
520.531	1	12
520.701	1	8
520.871	1	8
521.041	1	1
521.211	1	11
521.382	1	5
521.552	1	5
521.722	1	17
521.892	1	15
522.062	1	16
522.232	1	9
522.402	1	19
522.573	1	9
522.743	1	3
522.913	1	5
523.083	1	7
523.253	1	7
523.423	1	13
523.593	1	16
523.764	1	19
523.934	1	14
524.104	1	15
524.274	1	18
524.444	1	11
524.614	1	18
524.784	1	16
524.955	1	-3
525.125	1	8
525.295	1	10
525.465	1	23
525.635	1	13
525.805	1	8
525.975	1	12
526.146	1	8
526.316	1	22
526.486	1	7
526.656	1	21
526.826	1	24
526.996	1	12
527.166	1	21
527.337	1	18
527.507	1	17
527.677	1	17
527.847	1	9
528.017	1	15
528.187	1	11
528.357	1	27
528.527	1	16
528.698	1	13
528.868	1	9
529.038	1	5
529.208	1	11
529.378	1	7
529.548	1	10
529.718	1	7
529.888	1	10
530.058	1	21
530.229	1	9
530.399	1	20
530.569	1	8
530.739	1	4
530.909	1	24
531.079	1	14
531.249	1	17
531.419	1	14
531.589	1	26
531.760	1	9
531.930	1	9
532.100	1	21
532.270	1	11
532.440	1	1
532.610	1	18
532.780	1	2
532.950	1	7
533.120	1	1
533.290	1	2
533.461	1	16
533.631	1	14
533.801	1	19
533.971	1	9
534.141	1	10
534.311	1	8
534.481	1	10
534.651	1	18
534.821	1	9
534.991	1	-2
535.162	1	5
535.332	1	15
535.502	1	17
535.672	1	3
535.842	1	13
536.012	1	4
536.182	1	15
536.352	1	10
536.522	1	7
536.692	1	-2
536.862	1	15
537.032	1	8
537.203	1	3
537.373	1	18
537.543	1	11
537.713	1	18
537.883	1	7
538.053	1	2
538.223	1	13
538.393	1	11
538.563	1	25
538.733	1	8
538.903	1	18
539.073	1	23
539.243	1	11
539.413	1	-1
539.584	1	12
539.754	1	6
539.924	1	7
540.094	1	18
540.264	1	20
540.434	1	13
540.604	1	19
540.774	1	11
540.944	1	15
541.114	1	3
541.284	1	17
541.454	1	14
541.624	1	7
541.794	1	12
541.964	1	9
542.134	1	11
542.305	1	10
542.475	1	15
542.645	1	14
542.815	1	1
542.985	1	4
543.155	1	19
543.325	1	5
543.495	1	6
543.665	1	18
543.835	1	23
544.005	1	19
544.175	1	16
544.345	1	5
544.515	1	8
544.685	1	9
544.855	1	14
545.025	1	16
545.195	1	13
545.365	1	14
545.535	1	21
545.705	1	9
545.875	1	5
546.045	1	4
546.216	1	9
546.386	1	3
546.556	1	9
546.726	1	16
546.896	1	17
547.066	1	16
547.236	1	12
547.406	1	22
547.576	1	13
547.746	1	10
547.916	1	11
548.086	1	17
548.256	1	6
548.426	1	16
548.596	1	10
548.766	1	8
548.936	1	8
549.106	1	8
549.276	1	5
549.446	1	7
549.616	1	5
549.786	1	21
549.956	1	12
550.126	1	9
550.296	1	15
550.466	1	19
550.636	1	14
550.806	1	15
550.976	1	13
551.146	1	19
551.316	1	17
551.486	1	16
551.656	1	-6
551.826	1	11
551.996	1	13
552.166	1	13
552.336	1	19
552.506	1	15
552.676	1	6
552.846	1	14
553.016	1	16
553.186	1	1
553.356	1	11
553.526	1	10
553.696	1	14
553.866	1	28
554.036	1	19
554.206	1	15
554.376	1	-2
554.546	1	27
554.716	1	14
554.886	1	11
555.056	1	17
555.226	1	8
555.396	1	11
555.566	1	16
555.736	1	-3
555.906	1	12
556.076	1	7
556.246	1	15
556.416	1	18
556.586	1	-3
556.756	1	16
556.926	1	16
557.096	1	15
557.266	1	10
557.436	1	20
557.606	1	11
557.776	1	3
557.946	1	5
558.116	1	17
558.286	1	-5
558.456	1	-3
558.626	1	17
558.796	1	24
558.966	1	14
559.136	1	8
559.306	1	16
559.476	1	11
559.646	1	18
559.816	1	9
559.986	1	14
560.155	1	5
560.325	1	10
560.495	1	14
560.665	1	3
560.835	1	6
561.005	1	4
561.175	1	11
561.345	1	13
561.515	1	11
561.685	1	12
561.855	1	10
562.025	1	12
562.195	1	13
562.365	1	10
562.535	1	11
562.705	1	1
562.875	1	11
563.045	1	5
563.215	1	11
563.385	1	20
563.555	1	9
563.725	1	17
563.895	1	8
564.064	1	7
564.234	1	8
564.404	1	10
564.574	1	10
564.744	1	5
564.914	1	17
565.084	1	5
565.254	1	9
565.424	1	9
565.594	1	3
565.764	1	7
565.934	1	14
566.104	1	15
566.274	1	17
566.444	1	4
566.614	1	13
566.783	1	7
566.953	1	7
567.123	1	19
567.293	1	0
567.463	1	12
567.633	1	6
567.803	1	5
567.973	1	22
568.143	1	14
568.313	1	12
568.483	1	14
568.653	1	22
568.823	1	3
568.993	1	7
569.162	1	19
569.332	1	17
569.502	1	11
569.672	1	17
569.842	1	8
570.012	1	12
570.182	1	17
570.352	1	5
570.522	1	1
570.692	1	13
570.862	1	12
571.031	1	12
571.201	1	8
571.371	1	4
571.541	1	16
571.711	1	8
571.881	1	9
572.051	1	-1
572.221	1	15
572.391	1	12
572.561	1	3
572.731	1	1
572.900	1	10
573.070	1	7
573.240	1	11
573.410	1	14
573.580	1	11
573.750	1	10
573.920	1	4
574.090	1	10
574.260	1	0
574.430	1	11
574.599	1	5
574.769	1	2
574.939	1	14
575.109	1	6
575.279	1	8
575.449	1	15
575.619	1	5
575.789	1	16
575.959	1	8
576.128	1	0
576.298	1	8
576.468	1	19
576.638	1	25
576.808	1	11
576.978	1	-2
577.148	1	11
577.318	1	6
577.487	1	13
577.657	1	4
577.827	1	10
577.997	1	-2
578.167	1	11
578.337	1	16
578.507	1	24
578.677	1	7
578.846	1	12
579.016	1	22
579.186	1	5
579.356	1	9
579.526	1	11
579.696	1	10
579.866	1	3
580.036	1	9
580.205	1	13
580.375	1	9
580.545	1	13
580.715	1	5
580.885	1	-4
581.055	1	10
581.225	1	4
581.394	1	17
581.564	1	9
581.734	1	15
581.904	1	13
582.074	1	14
582.244	1	13
582.414	1	2
582.583	1	10
582.753	1	9
582.923	1	14
583.093	1	-4
583.263	1	9
583.433	1	16
583.603	1	14
583.772	1	16
583.942	1	-2
584.112	1	5
584.282	1	12
584.452	1	13
584.622	1	3
584.791	1	13
584.961	1	0
585.131	1	1
585.301	1	2
585.471	1	21
585.641	1	8
585.811	1	12
585.980	1	9
586.150	1	5
586.320	1	5
586.490	1	5
586.660	1	7
586.830	1	7
586.999	1	7
587.169	1	12
587.339	1	4
587.509	1	10
587.679	1	14
587.849	1	2
588.018	1	36
588.188	1	6
588.358	1	8
588.528	1	8
588.698	1	5
588.867	1	5
589.037	1	3
589.207	1	6
589.377	1	3
589.547	1	15
589.717	1	-2
589.886	1	7
590.056	1	5
590.226	1	12
590.396	1	5
590.566	1	11
590.735	1	13
590.905	1	-8
591.075	1	-9
591.245	1	18
591.415	1	0
591.585	1	11
591.754	1	12
591.924	1	12
592.094	1	6
592.264	1	-1
592.434	1	-6
592.603	1	11
592.773	1	-6
592.943	1	15
593.113	1	7
593.283	1	11
593.452	1	8
593.622	1	13
593.792	1	20
593.962	1	3
594.132	1	3
594.301	1	8
594.471	1	9
594.641	1	2
594.811	1	7
594.981	1	2
595.150	1	14
595.320	1	20
595.490	1	12
595.660	1	14
595.829	1	13
595.999	1	2
596.169	1	17
596.339	1	1
596.509	1	8
596.678	1	9
596.848	1	4
597.018	1	4
597.188	1	9
597.358	1	-1
597.527	1	6
597.697	1	10
597.867	1	8
598.037	1	10
598.206	1	9
598.376	1	2
598.546	1	0
598.716	1	13
598.885	1	5
599.055	1	0
599.225	1	11
599.395	1	2
599.565	1	7
599.734	1	8
599.904	1	12
600.074	1	-7
600.244	1	13
600.413	1	8
600.583	1	19
600.753	1	21
600.923	1	8
601.092	1	12
601.262	1	13
601.432	1	-3
601.602	1	12
601.771	1	6
601.941	1	13
602.111	1	6
602.281	1	6
602.451	1	6
602.620	1	-2
602.790	1	8
602.960	1	8
603.130	1	-1
603.299	1	13
603.469	1	10
603.639	1	11
603.809	1	9
603.978	1	7
604.148	1	16
604.318	1	22
604.487	1	5
604.657	1	7
604.827	1	8
604.997	1	8
605.166	1	11
605.336	1	2
605.506	1	1
605.676	1	8
605.845	1	8
606.015	1	-4
606.185	1	2
606.355	1	7
606.524	1	18
606.694	1	9
606.864	1	-1
607.034	1	3
607.203	1	6
607.373	1	14
607.543	1	8
607.712	1	5
607.882	1	10
608.052	1	9
608.222	1	-1
608.391	1	12
608.561	1	8
608.731	1	7
608.901	1	-2
609.070	1	15
609.240	1	5
609.410	1	4
609.579	1	-11
609.749	1	4
609.919	1	4
610.089	1	3
610.258	1	-3
610.428	1	2
610.598	1	2
610.767	1	0
610.937	1	5
611.107	1	1
611.277	1	9
611.446	1	2
611.616	1	14
611.786	1	6
611.955	1	10
612.125	1	-4
612.295	1	3
612.465	1	6
612.634	1	10
612.804	1	4
612.974	1	0
613.143	1	6
613.313	1	14
613.483	1	11
613.652	1	-4
613.822	1	0
613.992	1	6
614.162	1	8
614.331	1	14
614.501	1	3
614.671	1	9
614.840	1	2
615.010	1	12
615.180	1	4
615.349	1	12
615.519	1	11
615.689	1	14
615.858	1	10
616.028	1	-3
616.198	1	6
616.368	1	5
616.537	1	-1
616.707	1	12
616.877	1	13
617.046	1	10
617.216	1	17
617.386	1	7
617.555	1	4
617.725	1	2
617.895	1	16
618.064	1	2
618.234	1	3
618.404	1	4
618.573	1	0
618.743	1	18
618.913	1	8
619.082	1	9
619.252	1	11
619.422	1	2
619.591	1	5
619.761	1	0
619.931	1	0
620.100	1	0
620.270	1	1
620.440	1	2
620.609	1	-6
620.779	1	4
620.949	1	12
621.118	1	5
621.288	1	10
621.458	1	8
621.627	1	13
621.797	1	5
621.967	1	0
622.136	1	0
622.306	1	-9
622.476	1	-2
622.645	1	9
622.815	1	0
622.985	1	-4
623.154	1	1
623.324	1	9
623.494	1	27
623.663	1	18
623.833	1	-9
624.002	1	9
624.172	1	15
624.342	1	5
624.511	1	10
624.681	1	-1
624.851	1	7
625.020	1	12
625.190	1	4
625.360	1	1
625.529	1	2
625.699	1	5
625.869	1	3
626.038	1	8
626.208	1	11
626.377	1	4
626.547	1	3
626.717	1	7
626.886	1	10
627.056	1	3
627.226	1	-3
627.395	1	4
627.565	1	8
627.735	1	4
627.904	1	9
628.074	1	6
628.243	1	5
628.413	1	13
628.583	1	5
628.752	1	7
628.922	1	1
629.091	1	5
629.261	1	7
629.431	1	5
629.600	1	7
629.770	1	11
629.940	1	1
630.109	1	9
630.279	1	12
630.448	1	9
630.618	1	8
630.788	1	1
630.957	1	15
631.127	1	1
631.297	1	14
631.466	1	6
631.636	1	5
631.805	1	3
631.975	1	16
632.145	1	3
632.314	1	1
632.484	1	-4
632.653	1	5
632.823	1	2
632.993	1	7
633.162	1	3
633.332	1	0
633.501	1	3
633.671	1	5
633.841	1	-4
634.010	1	5
634.180	1	-8
634.349	1	11
634.519	1	7
634.689	1	12
634.858	1	3
635.028	1	4
635.197	1	8
635.367	1	-11
635.537	1	-1
635.706	1	8
635.876	1	4
636.045	1	-8
636.215	1	6
636.384	1	4
636.554	1	10
636.724	1	10
636.893	1	3
637.063	1	20
637.232	1	10
637.402	1	10
637.572	1	9
637.741	1	4
637.911	1	7
638.080	1	8
638.250	1	3
638.419	1	8
638.589	1	-3
638.759	1	7
638.928	1	4
639.098	1	13
639.267	1	-6
639.437	1	-2
639.606	1	-7
639.776	1	2
639.946	1	-1
640.115	1	6
640.285	1	4
640.454	1	6
640.624	1	13
640.793	1	-2
640.963	1	-2
641.132	1	10
641.302	1	7
641.472	1	5
641.641	1	1
641.811	1	-4
641.980	1	-3
642.150	1	6
642.319	1	3
642.489	1	2
642.659	1	-3
642.828	1	1
642.998	1	-7
643.167	1	6
643.337	1	-3
643.506	1	11
643.676	1	-8
643.845	1	6
644.015	1	8
644.184	1	10
644.354	1	0
644.524	1	6
644.693	1	2
644.863	1	9
645.032	1	3
645.202	1	13
645.371	1	-4
645.541	1	3
645.710	1	7
645.880	1	-3
646.049	1	9
646.219	1	6
646.388	1	0
646.558	1	11
646.728	1	13
646.897	1	11
647.067	1	15
647.236	1	-3
647.406	1	7
647.575	1	-1
647.745	1	8
647.914	1	4
648.084	1	2
648.253	1	7
648.423	1	2
648.592	1	-2
648.762	1	4
648.931	1	3
649.101	1	1
649.270	1	5
649.440	1	9
649.610	1	5
649.779	1	7
649.949	1	-9
650.118	1	-1
650.288	1	3
650.457	1	0
650.627	1	-1
650.796	1	-6
650.966	1	7
651.135	1	-1
651.305	1	7
651.474	1	5
651.644	1	1
651.813	1	6
651.983	1	21
652.152	1	13
652.322	1	-9
652.491	1	11
652.661	1	5
652.830	1	20
653.000	1	2
653.169	1	8
653.339	1	11
653.508	1	7
653.678	1	-2
653.847	1	10
654.017	1	2
654.186	1	14
654.356	1	10
654.525	1	13
654.695	1	6
654.864	1	3
655.034	1	3
655.203	1	0
655.373	1	10
655.542	1	-5
655.712	1	-6
655.881	1	-1
656.051	1	3
656.220	1	9
656.390	1	3
656.559	1	12
656.729	1	0
656.898	1	7
657.068	1	3
657.237	1	2
657.406	1	-1
657.576	1	-5
657.745	1	1
657.915	1	6
658.084	1	9
658.254	1	6
658.423	1	7
658.593	1	14
658.762	1	12
658.932	1	0
659.101	1	-7
659.271	1	8
659.440	1	4
659.610	1	4
659.779	1	11
659.949	1	7
660.118	1	7
660.288	1	-1
660.457	1	11
660.626	1	1
660.796	1	-4
660.965	1	7
661.135	1	11
661.304	1	7
661.474	1	4
661.643	1	7
661.813	1	8
661.982	1	7
662.152	1	4
662.321	1	4
662.491	1	5
662.660	1	5
662.829	1	5
662.999	1	19
663.168	1	9
663.338	1	7
663.507	1	-2
663.677	1	-10
663.846	1	1
664.016	1	-3
664.185	1	5
664.354	1	-3
664.524	1	-1
664.693	1	8
664.863	1	5
665.032	1	9
665.202	1	-5
665.371	1	1
665.541	1	4
665.710	1	5
665.879	1	3
666.049	1	1
666.218	1	-3
666.388	1	11
666.557	1	9
666.727	1	3
666.896	1	8
667.065	1	11
667.235	1	-1
667.404	1	-4
667.574	1	13
667.743	1	11
667.913	1	2
668.082	1	-4
668.251	1	7
668.421	1	4
668.590	1	-8
668.760	1	5
668.929	1	2
669.099	1	6
669.268	1	11
669.437	1	0
669.607	1	7
669.776	1	3
669.946	1	7
670.115	1	-1
670.285	1	-3
670.454	1	-1
670.623	1	13
670.793	1	11
670.962	1	-3
671.132	1	0
671.301	1	2
671.470	1	-2
671.640	1	6
671.809	1	-8
671.979	1	8
672.148	1	-9
672.317	1	9
672.487	1	7
672.656	1	-2
672.826	1	2
672.995	1	5
673.164	1	26
673.334	1	4
673.503	1	-2
673.673	1	-14
673.842	1	-3
674.011	1	4
674.181	1	1
674.350	1	2
674.520	1	4
674.689	1	-5
674.858	1	8
675.028	1	17
675.197	1	12
675.367	1	6
675.536	1	11
675.705	1	9
675.875	1	-2
676.044	1	0
676.214	1	3
676.383	1	7
676.552	1	16
676.722	1	-10
676.891	1	2
677.060	1	2
677.230	1	6
677.399	1	4
677.569	1	7
677.738	1	10
677.907	1	7
678.077	1	17
678.246	1	-5
678.416	1	2
678.585	1	-7
678.754	1	0
678.924	1	4
679.093	1	14
679.262	1	18
679.432	1	9
679.601	1	15
679.771	1	0
679.940	1	7
680.109	1	-5
680.279	1	7
680.448	1	0
680.617	1	2
680.787	1	6
680.956	1	1
681.125	1	8
681.295	1	4
681.464	1	6
681.634	1	3
681.803	1	1
681.972	1	0
682.142	1	2
682.311	1	0
682.480	1	8
682.650	1	8
682.819	1	15
682.988	1	9
683.158	1	8
683.327	1	10
683.496	1	-1
683.666	1	13
683.835	1	5
684.004	1	13
684.174	1	6
684.343	1	10
684.512	1	5
684.682	1	2
684.851	1	10
685.021	1	5
685.190	1	10
685.359	1	-4
685.529	1	14
685.698	1	6
685.867	1	2
686.037	1	6
686.206	1	4
686.375	1	10
686.545	1	-1
686.714	1	5
686.883	1	8
687.053	1	-1
687.222	1	7
687.391	1	14
687.561	1	8
687.730	1	-1
687.899	1	7
688.069	1	0
688.238	1	-6
688.407	1	13
688.577	1	4
688.746	1	11
