340.368	1	-2
340.539	1	-1
340.710	1	3
340.881	1	-6
341.052	1	9
341.223	1	-12
341.394	1	-2
341.565	1	9
341.737	1	0
341.908	1	-1
342.079	1	7
342.250	1	2
342.421	1	-11
342.592	1	7
342.763	1	0
342.934	1	-2
343.105	1	-3
343.276	1	-1
343.447	1	7
343.618	1	-3
343.789	1	9
343.960	1	3
344.131	1	7
344.302	1	13
344.473	1	6
344.644	1	1
344.815	1	-4
344.986	1	-1
345.157	1	-1
345.328	1	2
345.499	1	4
345.670	1	8
345.841	1	2
346.012	1	4
346.183	1	-2
346.354	1	8
346.526	1	7
346.697	1	-2
346.868	1	2
347.039	1	-4
347.210	1	-8
347.381	1	-1
347.552	1	5
347.723	1	2
347.894	1	-5
348.065	1	2
348.236	1	3
348.407	1	5
348.578	1	-2
348.749	1	-12
348.920	1	5
349.091	1	-1
349.262	1	2
349.433	1	7
349.604	1	2
349.775	1	5
349.946	1	-1
350.117	1	8
350.288	1	0
350.459	1	-14
350.630	1	0
350.801	1	6
350.972	1	2
351.143	1	-7
351.314	1	1
351.485	1	-3
351.656	1	7
351.827	1	-1
351.998	1	5
352.169	1	-3
352.340	1	2
352.511	1	-3
352.682	1	-12
352.853	1	-8
353.024	1	2
353.195	1	5
353.366	1	-11
353.537	1	8
353.708	1	-4
353.879	1	6
354.050	1	-6
354.221	1	-6
354.392	1	0
354.563	1	5
354.734	1	-11
354.905	1	10
355.076	1	-2
355.247	1	-5
355.418	1	3
355.589	1	-5
355.760	1	-5
355.931	1	1
356.102	1	2
356.273	1	6
356.444	1	4
356.615	1	1
356.785	1	1
356.956	1	6
357.127	1	1
357.298	1	-1
357.469	1	-3
357.640	1	8
357.811	1	-1
357.982	1	-2
358.153	1	-3
358.324	1	3
358.495	1	-4
358.666	1	4
358.837	1	-1
359.008	1	4
359.179	1	-8
359.350	1	2
359.521	1	9
359.692	1	5
359.863	1	-4
360.034	1	-3
360.205	1	0
360.376	1	-1
360.547	1	5
360.718	1	1
360.889	1	1
361.060	1	-6
361.231	1	-6
361.401	1	0
361.572	1	3
361.743	1	11
361.914	1	-8
362.085	1	3
362.256	1	-5
362.427	1	1
362.598	1	-3
362.769	1	1
362.940	1	-14
363.111	1	-10
363.282	1	-2
363.453	1	-1
363.624	1	-3
363.795	1	-8
363.966	1	5
364.137	1	6
364.308	1	-3
364.478	1	-2
364.649	1	12
364.820	1	-3
364.991	1	2
365.162	1	8
365.333	1	-5
365.504	1	-2
365.675	1	4
365.846	1	11
366.017	1	-6
366.188	1	-3
366.359	1	-7
366.530	1	-5
366.701	1	3
366.871	1	-3
367.042	1	-7
367.213	1	-3
367.384	1	-3
367.555	1	10
367.726	1	6
367.897	1	5
368.068	1	-3
368.239	1	10
368.410	1	0
368.581	1	-12
368.752	1	0
368.923	1	12
369.093	1	-8
369.264	1	6
369.435	1	-5
369.606	1	7
369.777	1	-2
369.948	1	-9
370.119	1	0
370.290	1	-4
370.461	1	1
370.632	1	-2
370.803	1	10
370.973	1	4
371.144	1	8
371.315	1	0
371.486	1	1
371.657	1	7
371.828	1	-6
371.999	1	-8
372.170	1	2
372.341	1	0
372.512	1	-3
372.682	1	7
372.853	1	0
373.024	1	8
373.195	1	-7
373.366	1	-3
373.537	1	4
373.708	1	7
373.879	1	-2
374.050	1	10
374.220	1	-4
374.391	1	1
374.562	1	3
374.733	1	8
374.904	1	-7
375.075	1	-9
375.246	1	11
375.417	1	-1
375.588	1	0
375.758	1	-3
375.929	1	-3
376.100	1	-1
376.271	1	-1
376.442	1	4
376.613	1	8
376.784	1	3
376.955	1	-4
377.125	1	6
377.296	1	3
377.467	1	8
377.638	1	-4
377.809	1	-1
377.980	1	-1
378.151	1	5
378.321	1	-4
378.492	1	1
378.663	1	-1
378.834	1	3
379.005	1	-8
379.176	1	-1
379.347	1	10
379.518	1	10
379.688	1	-4
379.859	1	4
380.030	1	10
380.201	1	-4
380.372	1	2
380.543	1	7
380.714	1	10
380.884	1	6
381.055	1	4
381.226	1	0
381.397	1	14
381.568	1	3
381.739	1	-4
381.910	1	-1
382.080	1	-4
382.251	1	13
382.422	1	4
382.593	1	3
382.764	1	3
382.935	1	3
383.105	1	-5
383.276	1	1
383.447	1	-9
383.618	1	5
383.789	1	-7
383.960	1	-4
384.130	1	7
384.301	1	3
384.472	1	-4
384.643	1	-5
384.814	1	-6
384.985	1	9
385.156	1	8
385.326	1	1
385.497	1	-8
385.668	1	-2
385.839	1	-2
386.010	1	3
386.180	1	6
386.351	1	4
386.522	1	-4
386.693	1	5
386.864	1	4
387.035	1	7
387.205	1	-7
387.376	1	-1
387.547	1	14
387.718	1	4
387.889	1	-2
388.060	1	-2
388.230	1	7
388.401	1	8
388.572	1	-4
388.743	1	6
388.914	1	7
389.084	1	-4
389.255	1	-7
389.426	1	-8
389.597	1	-9
389.768	1	-5
389.939	1	3
390.109	1	7
390.280	1	10
390.451	1	4
390.622	1	9
390.793	1	-3
390.963	1	12
391.134	1	-5
391.305	1	-1
391.476	1	9
391.647	1	-8
391.817	1	2
391.988	1	9
392.159	1	2
392.330	1	-1
392.501	1	12
392.671	1	-6
392.842	1	-2
393.013	1	1
393.184	1	3
393.355	1	-4
393.525	1	2
393.696	1	4
393.867	1	2
394.038	1	3
394.208	1	1
394.379	1	5
394.550	1	-8
394.721	1	-6
394.892	1	5
395.062	1	8
395.233	1	-6
395.404	1	2
395.575	1	-1
395.746	1	-9
395.916	1	-1
396.087	1	-1
396.258	1	-2
396.429	1	0
396.599	1	-1
396.770	1	-4
396.941	1	5
397.112	1	-8
397.283	1	11
397.453	1	-2
397.624	1	-5
397.795	1	5
397.966	1	8
398.136	1	3
398.307	1	1
398.478	1	-1
398.649	1	6
398.819	1	-10
398.990	1	-1
399.161	1	2
399.332	1	3
399.503	1	3
399.673	1	6
399.844	1	-5
400.015	1	-2
400.186	1	-8
400.356	1	2
400.527	1	2
400.698	1	-3
400.869	1	-8
401.039	1	-7
401.210	1	2
401.381	1	5
401.552	1	-6
401.722	1	0
401.893	1	6
402.064	1	-3
402.235	1	1
402.405	1	-9
402.576	1	0
402.747	1	-1
402.918	1	8
403.088	1	-9
403.259	1	7
403.430	1	-6
403.601	1	2
403.771	1	0
403.942	1	-4
404.113	1	2
404.284	1	-3
404.454	1	4
404.625	1	4
404.796	1	-7
404.967	1	-2
405.137	1	1
405.308	1	-1
405.479	1	-7
405.649	1	0
405.820	1	3
405.991	1	-8
406.162	1	9
406.332	1	-5
406.503	1	-7
406.674	1	2
406.845	1	14
407.015	1	5
407.186	1	-5
407.357	1	-3
407.527	1	-5
407.698	1	-6
407.869	1	0
408.040	1	2
408.210	1	6
408.381	1	7
408.552	1	6
408.722	1	-2
408.893	1	-5
409.064	1	-3
409.235	1	5
409.405	1	-2
409.576	1	-12
409.747	1	2
409.917	1	-1
410.088	1	4
410.259	1	-9
410.430	1	-5
410.600	1	10
410.771	1	4
410.942	1	2
411.112	1	6
411.283	1	-4
411.454	1	13
411.625	1	2
411.795	1	-3
411.966	1	-1
412.137	1	-10
412.307	1	7
412.478	1	9
412.649	1	0
412.819	1	3
412.990	1	5
413.161	1	4
413.332	1	8
413.502	1	-2
413.673	1	5
413.844	1	-1
414.014	1	2
414.185	1	4
414.356	1	4
414.526	1	-7
414.697	1	-4
414.868	1	5
415.038	1	6
415.209	1	3
415.380	1	6
415.550	1	11
415.721	1	1
415.892	1	-7
416.063	1	0
416.233	1	2
416.404	1	-5
416.575	1	2
416.745	1	7
416.916	1	-9
417.087	1	0
417.257	1	-5
417.428	1	12
417.599	1	0
417.769	1	4
417.940	1	-10
418.111	1	0
418.281	1	5
418.452	1	5
418.623	1	-6
418.793	1	18
418.964	1	-5
419.135	1	-1
419.305	1	3
419.476	1	12
419.647	1	-10
419.817	1	6
419.988	1	5
420.159	1	4
420.329	1	2
420.500	1	11
420.671	1	-4
420.841	1	5
421.012	1	5
421.183	1	-1
421.353	1	-6
421.524	1	-9
421.695	1	7
421.865	1	2
422.036	1	-6
422.206	1	1
422.377	1	3
422.548	1	2
422.718	1	3
422.889	1	9
423.060	1	-1
423.230	1	-3
423.401	1	3
423.572	1	15
423.742	1	1
423.913	1	-3
424.084	1	-3
424.254	1	-3
424.425	1	0
424.595	1	11
424.766	1	-3
424.937	1	7
425.107	1	11
425.278	1	-6
425.449	1	-2
425.619	1	1
425.790	1	7
425.961	1	5
426.131	1	-5
426.302	1	-3
426.472	1	2
426.643	1	14
426.814	1	5
426.984	1	-5
427.155	1	7
427.326	1	6
427.496	1	1
427.667	1	-1
427.837	1	-11
428.008	1	5
428.179	1	6
428.349	1	-6
428.520	1	-8
428.691	1	14
428.861	1	2
429.032	1	1
429.202	1	1
429.373	1	9
429.544	1	2
429.714	1	-7
429.885	1	8
430.055	1	-7
430.226	1	0
430.397	1	-5
430.567	1	-1
430.738	1	-4
430.909	1	1
431.079	1	5
431.250	1	8
431.420	1	7
431.591	1	14
431.762	1	6
431.932	1	1
432.103	1	-19
432.273	1	10
432.444	1	-4
432.615	1	8
432.785	1	0
432.956	1	1
433.126	1	14
433.297	1	1
433.468	1	-1
433.638	1	11
433.809	1	5
433.979	1	-11
434.150	1	1
434.320	1	3
434.491	1	-9
434.662	1	10
434.832	1	-6
435.003	1	-5
435.173	1	-2
435.344	1	-5
435.515	1	-3
435.685	1	-2
435.856	1	10
436.026	1	8
436.197	1	7
436.368	1	0
436.538	1	3
436.709	1	-5
436.879	1	5
437.050	1	-1
437.220	1	8
437.391	1	0
437.562	1	6
437.732	1	-4
437.903	1	3
438.073	1	6
438.244	1	2
438.414	1	-11
438.585	1	2
438.756	1	4
438.926	1	4
439.097	1	-4
439.267	1	12
439.438	1	2
439.608	1	7
439.779	1	-1
439.949	1	2
440.120	1	0
440.291	1	-16
440.461	1	-1
440.632	1	3
440.802	1	-2
440.973	1	6
441.143	1	5
441.314	1	-4
441.485	1	8
441.655	1	-12
441.826	1	4
441.996	1	-6
442.167	1	-2
442.337	1	2
442.508	1	-3
442.678	1	4
442.849	1	17
443.019	1	3
443.190	1	-3
443.361	1	6
443.531	1	6
443.702	1	13
443.872	1	-3
444.043	1	4
444.213	1	3
444.384	1	4
444.554	1	6
444.725	1	13
444.895	1	2
445.066	1	4
445.237	1	1
445.407	1	-5
445.578	1	11
445.748	1	-1
445.919	1	-10
446.089	1	18
446.260	1	-4
446.430	1	-2
446.601	1	4
446.771	1	8
446.942	1	-10
447.112	1	3
447.283	1	6
447.453	1	0
447.624	1	7
447.794	1	11
447.965	1	6
448.135	1	0
448.306	1	10
448.477	1	3
448.647	1	-7
448.818	1	6
448.988	1	2
449.159	1	6
449.329	1	14
449.500	1	-7
449.670	1	-9
449.841	1	-2
450.011	1	-1
450.182	1	5
450.352	1	10
450.523	1	-5
450.693	1	-8
450.864	1	-3
451.034	1	10
451.205	1	9
451.375	1	-4
451.546	1	0
451.716	1	-5
451.887	1	1
452.057	1	-1
452.228	1	11
452.398	1	9
452.569	1	11
452.739	1	5
452.910	1	0
453.080	1	6
453.251	1	4
453.421	1	5
453.592	1	5
453.762	1	-3
453.933	1	0
454.103	1	-8
454.274	1	0
454.444	1	-7
454.615	1	-6
454.785	1	-2
454.956	1	-4
455.126	1	2
455.297	1	6
455.467	1	-3
455.638	1	-12
455.808	1	1
455.979	1	-7
456.149	1	-1
456.320	1	-2
456.490	1	-4
456.661	1	-1
456.831	1	-1
457.001	1	2
457.172	1	-2
457.342	1	-1
457.513	1	4
457.683	1	5
457.854	1	7
458.024	1	-5
458.195	1	-4
458.365	1	8
458.536	1	2
458.706	1	10
458.877	1	1
459.047	1	12
459.218	1	-3
459.388	1	5
459.559	1	0
459.729	1	-2
459.899	1	-4
460.070	1	-2
460.240	1	-2
460.411	1	5
460.581	1	-2
460.752	1	-5
460.922	1	-1
461.093	1	0
461.263	1	2
461.434	1	-5
461.604	1	10
461.775	1	-9
461.945	1	-2
462.115	1	4
462.286	1	2
462.456	1	2
462.627	1	-10
462.797	1	4
462.968	1	7
463.138	1	-3
463.309	1	2
463.479	1	-6
463.649	1	4
463.820	1	2
463.990	1	4
464.161	1	-9
464.331	1	-6
464.502	1	-5
464.672	1	5
464.843	1	6
465.013	1	1
465.183	1	4
465.354	1	-1
465.524	1	9
465.695	1	5
465.865	1	6
466.036	1	-2
466.206	1	7
466.376	1	-11
466.547	1	12
466.717	1	8
466.888	1	5
467.058	1	4
467.229	1	13
467.399	1	5
467.569	1	14
467.740	1	-2
467.910	1	-6
468.081	1	-1
468.251	1	4
468.422	1	3
468.592	1	10
468.762	1	6
468.933	1	-4
469.103	1	-2
469.274	1	14
469.444	1	-5
469.614	1	-4
469.785	1	1
469.955	1	-6
470.126	1	-3
470.296	1	-8
470.467	1	2
470.637	1	-9
470.807	1	3
470.978	1	-1
471.148	1	2
471.319	1	7
471.489	1	3
471.659	1	-6
471.830	1	-3
472.000	1	-3
472.171	1	-7
472.341	1	1
472.511	1	9
472.682	1	-5
472.852	1	9
473.023	1	-2
473.193	1	5
473.363	1	12
473.534	1	9
473.704	1	-1
473.875	1	4
474.045	1	14
474.215	1	3
474.386	1	-12
474.556	1	10
474.727	1	-1
474.897	1	0
475.067	1	-4
475.238	1	6
475.408	1	-7
475.578	1	7
475.749	1	-1
475.919	1	8
476.090	1	5
476.260	1	-3
476.430	1	1
476.601	1	-6
476.771	1	3
476.942	1	-4
477.112	1	0
477.282	1	1
477.453	1	0
477.623	1	8
477.793	1	-9
477.964	1	7
478.134	1	4
478.305	1	-3
478.475	1	3
478.645	1	5
478.816	1	-10
478.986	1	8
479.156	1	-1
479.327	1	-7
479.497	1	6
479.667	1	-2
479.838	1	6
480.008	1	2
480.179	1	10
480.349	1	2
480.519	1	13
480.690	1	4
480.860	1	0
481.030	1	-3
481.201	1	10
481.371	1	1
481.541	1	4
481.712	1	-6
481.882	1	5
482.053	1	1
482.223	1	8
482.393	1	-5
482.564	1	-2
482.734	1	6
482.904	1	1
483.075	1	2
483.245	1	-4
483.415	1	2
483.586	1	9
483.756	1	0
483.926	1	-1
484.097	1	5
484.267	1	-3
484.437	1	-1
484.608	1	-1
484.778	1	-10
484.948	1	2
485.119	1	-2
485.289	1	3
485.459	1	9
485.630	1	2
485.800	1	-9
485.970	1	-4
486.141	1	2
486.311	1	-8
486.481	1	2
486.652	1	2
486.822	1	6
486.992	1	6
487.163	1	-4
487.333	1	-7
487.503	1	5
487.674	1	-4
487.844	1	0
488.014	1	9
488.185	1	1
488.355	1	2
488.525	1	1
488.696	1	7
488.866	1	0
489.036	1	0
489.207	1	2
489.377	1	2
489.547	1	0
489.718	1	1
489.888	1	6
490.058	1	2
490.228	1	-7
490.399	1	9
490.569	1	0
490.739	1	7
490.910	1	-6
491.080	1	-8
491.250	1	1
491.421	1	7
491.591	1	8
491.761	1	4
491.932	1	8
492.102	1	-5
492.272	1	-2
492.442	1	-7
492.613	1	1
492.783	1	-9
492.953	1	10
493.124	1	-13
493.294	1	5
493.464	1	4
493.635	1	1
493.805	1	8
493.975	1	4
494.145	1	12
494.316	1	-5
494.486	1	-16
494.656	1	-2
494.827	1	-6
494.997	1	4
495.167	1	20
495.337	1	3
495.508	1	6
495.678	1	7
495.848	1	6
496.019	1	-2
496.189	1	8
496.359	1	1
496.529	1	-13
496.700	1	6
496.870	1	-9
497.040	1	4
497.211	1	1
497.381	1	8
497.551	1	10
497.721	1	-6
497.892	1	3
498.062	1	-3
498.232	1	-5
498.403	1	-6
498.573	1	14
498.743	1	1
498.913	1	3
499.084	1	4
499.254	1	3
499.424	1	-2
499.594	1	-7
499.765	1	1
499.935	1	4
500.105	1	-8
500.275	1	-1
500.446	1	-1
500.616	1	0
500.786	1	1
500.956	1	12
501.127	1	11
501.297	1	4
501.467	1	9
501.638	1	-4
501.808	1	4
501.978	1	0
502.148	1	-3
502.319	1	7
502.489	1	-5
502.659	1	5
502.829	1	-1
503.000	1	-5
503.170	1	4
503.340	1	7
503.510	1	-7
503.681	1	2
503.851	1	-8
504.021	1	-10
504.191	1	5
504.362	1	6
504.532	1	-3
504.702	1	-1
504.872	1	-16
505.042	1	-5
505.213	1	-1
505.383	1	-6
505.553	1	-2
505.723	1	2
505.894	1	-8
506.064	1	-3
506.234	1	-6
506.404	1	14
506.575	1	-7
506.745	1	-4
506.915	1	3
507.085	1	11
507.256	1	1
507.426	1	0
507.596	1	0
507.766	1	14
507.936	1	3
508.107	1	2
508.277	1	11
508.447	1	-12
508.617	1	-6
508.788	1	-8
508.958	1	16
509.128	1	-2
509.298	1	-8
509.468	1	8
509.639	1	-1
509.809	1	1
509.979	1	3
510.149	1	-1
510.319	1	8
510.490	1	4
510.660	1	9
510.830	1	-4
511.000	1	-5
511.171	1	-6
511.341	1	9
511.511	1	3
511.681	1	-1
511.851	1	-2
512.022	1	4
512.192	1	2
512.362	1	3
512.532	1	1
512.702	1	-9
512.873	1	-1
513.043	1	2
513.213	1	3
513.383	1	1
513.553	1	-1
513.724	1	7
513.894	1	8
514.064	1	-3
514.234	1	-8
514.404	1	-3
514.575	1	6
514.745	1	0
514.915	1	-7
515.085	1	-1
515.255	1	1
515.425	1	-6
515.596	1	6
515.766	1	2
515.936	1	-4
516.106	1	1
516.276	1	4
516.447	1	1
516.617	1	2
516.787	1	1
516.957	1	-7
517.127	1	-1
517.297	1	-2
517.468	1	13
517.638	1	-4
517.808	1	0
517.978	1	-6
518.148	1	13
518.319	1	4
518.489	1	-1
518.659	1	-2
518.829	1	1
518.999	1	1
519.169	1	2
519.340	1	5
519.510	1	-7
519.680	1	-4
519.850	1	-7
520.020	1	-5
520.190	1	-2
520.361	1	-11
520.531	1	0
520.701	1	2
520.871	1	4
521.041	1	-1
521.211	1	-12
521.382	1	5
521.552	1	-7
521.722	1	15
521.892	1	-1
522.062	1	16
522.232	1	-4
522.402	1	2
522.573	1	1
522.743	1	1
522.913	1	-1
523.083	1	-1
523.253	1	-6
523.423	1	-2
523.593	1	-2
523.764	1	12
523.934	1	-3
524.104	1	0
524.274	1	-1
524.444	1	11
524.614	1	9
524.784	1	6
524.955	1	-10
525.125	1	-4
525.295	1	4
525.465	1	1
525.635	1	3
525.805	1	4
525.975	1	-3
526.146	1	-9
526.316	1	5
526.486	1	-3
526.656	1	4
526.826	1	8
526.996	1	3
527.166	1	10
527.337	1	7
527.507	1	-8
527.677	1	3
527.847	1	-7
528.017	1	3
528.187	1	3
528.357	1	3
528.527	1	2
528.698	1	-1
528.868	1	3
529.038	1	-13
529.208	1	-5
529.378	1	-2
529.548	1	-11
529.718	1	-6
529.888	1	2
530.058	1	-6
530.229	1	-1
530.399	1	9
530.569	1	-9
530.739	1	-3
530.909	1	10
531.079	1	-6
531.249	1	-5
531.419	1	1
531.589	1	10
531.760	1	6
531.930	1	-5
532.100	1	3
532.270	1	3
532.440	1	-10
532.610	1	2
532.780	1	-11
532.950	1	-8
533.120	1	0
533.290	1	-3
533.461	1	-3
533.631	1	-8
533.801	1	6
533.971	1	-1
534.141	1	7
534.311	1	-5
534.481	1	-5
534.651	1	4
534.821	1	-13
534.991	1	-1
535.162	1	-6
535.332	1	-1
535.502	1	-3
535.672	1	-7
535.842	1	2
536.012	1	-9
536.182	1	7
536.352	1	3
536.522	1	1
536.692	1	-9
536.862	1	-10
537.032	1	1
537.203	1	-7
537.373	1	4
537.543	1	6
537.713	1	7
537.883	1	-7
538.053	1	3
538.223	1	-3
538.393	1	0
538.563	1	8
538.733	1	-7
538.903	1	-3
539.073	1	6
539.243	1	-6
539.413	1	1
539.584	1	5
539.754	1	4
539.924	1	2
540.094	1	0
540.264	1	-13
540.434	1	3
540.604	1	3
540.774	1	-6
540.944	1	2
541.114	1	-3
541.284	1	5
541.454	1	5
541.624	1	-9
541.794	1	5
541.964	1	-10
542.134	1	-6
542.305	1	-3
542.475	1	3
542.645	1	11
542.815	1	-4
542.985	1	-3
543.155	1	8
543.325	1	-8
543.495	1	-8
543.665	1	5
543.835	1	2
544.005	1	2
544.175	1	6
544.345	1	1
544.515	1	2
544.685	1	-1
544.855	1	-4
545.025	1	10
545.195	1	-7
545.365	1	1
545.535	1	11
545.705	1	-9
545.875	1	-3
546.045	1	-1
546.216	1	1
546.386	1	-6
546.556	1	1
546.726	1	7
546.896	1	7
547.066	1	7
547.236	1	0
547.406	1	0
547.576	1	-8
547.746	1	-2
547.916	1	-5
548.086	1	6
548.256	1	-2
548.426	1	-5
548.596	1	1
548.766	1	-10
548.936	1	-9
549.106	1	-8
549.276	1	-6
549.446	1	-3
549.616	1	-10
549.786	1	7
549.956	1	-8
550.126	1	4
550.296	1	5
550.466	1	-4
550.636	1	10
550.806	1	-2
550.976	1	1
551.146	1	3
551.316	1	9
551.486	1	1
551.656	1	-15
551.826	1	-11
551.996	1	-2
552.166	1	7
552.336	1	12
552.506	1	2
552.676	1	-5
552.846	1	5
553.016	1	2
553.186	1	1
553.356	1	3
553.526	1	-7
553.696	1	-9
553.866	1	11
554.036	1	8
554.206	1	1
554.376	1	-11
554.546	1	4
554.716	1	4
554.886	1	1
555.056	1	2
555.226	1	-3
555.396	1	-3
555.566	1	2
555.736	1	6
555.906	1	-5
556.076	1	-5
556.246	1	-8
556.416	1	5
556.586	1	-2
556.756	1	-4
556.926	1	1
557.096	1	6
557.266	1	4
557.436	1	7
557.606	1	-9
557.776	1	-9
557.946	1	-3
558.116	1	-8
558.286	1	-15
558.456	1	1
558.626	1	6
558.796	1	11
558.966	1	7
559.136	1	-5
559.306	1	1
559.476	1	1
559.646	1	-3
559.816	1	5
559.986	1	0
560.155	1	-4
560.325	1	0
560.495	1	1
560.665	1	-10
560.835	1	-2
561.005	1	-7
561.175	1	-2
561.345	1	2
561.515	1	1
561.685	1	0
561.855	1	-5
562.025	1	6
562.195	1	7
562.365	1	0
562.535	1	-3
562.705	1	3
562.875	1	-14
563.045	1	-8
563.215	1	3
563.385	1	3
563.555	1	2
563.725	1	-9
563.895	1	10
564.064	1	2
564.234	1	-4
564.404	1	-4
564.574	1	-1
564.744	1	-7
564.914	1	3
565.084	1	-13
565.254	1	1
565.424	1	6
565.594	1	2
565.764	1	-3
565.934	1	-8
566.104	1	17
566.274	1	1
566.444	1	3
566.614	1	0
566.783	1	-6
566.953	1	3
567.123	1	7
567.293	1	-12
567.463	1	2
567.633	1	-8
567.803	1	1
567.973	1	9
568.143	1	6
568.313	1	4
568.483	1	2
568.653	1	6
568.823	1	-2
568.993	1	4
569.162	1	10
569.332	1	12
569.502	1	1
569.672	1	-1
569.842	1	0
570.012	1	9
570.182	1	3
570.352	1	-5
570.522	1	-7
570.692	1	-2
570.862	1	-10
571.031	1	1
571.201	1	-1
571.371	1	-2
571.541	1	1
571.711	1	2
571.881	1	4
572.051	1	-5
572.221	1	-9
572.391	1	1
572.561	1	-3
572.731	1	-12
572.900	1	6
573.070	1	-8
573.240	1	-4
573.410	1	6
573.580	1	11
573.750	1	-1
573.920	1	-7
574.090	1	-1
574.260	1	-4
574.430	1	1
574.599	1	-5
574.769	1	-5
574.939	1	-10
575.109	1	-9
575.279	1	5
575.449	1	1
575.619	1	-3
575.789	1	9
575.959	1	-2
576.128	1	-3
576.298	1	-7
576.468	1	-4
576.638	1	7
576.808	1	8
576.978	1	-10
577.148	1	0
577.318	1	4
577.487	1	3
577.657	1	0
577.827	1	-11
577.997	1	-1
578.167	1	1
578.337	1	9
578.507	1	13
578.677	1	-9
578.846	1	1
579.016	1	2
579.186	1	-1
579.356	1	9
579.526	1	0
579.696	1	1
579.866	1	-2
580.036	1	6
580.205	1	1
580.375	1	0
580.545	1	-7
580.715	1	-8
580.885	1	-12
581.055	1	8
581.225	1	-3
581.394	1	7
581.564	1	0
581.734	1	3
581.904	1	-6
582.074	1	-10
582.244	1	2
582.414	1	-10
582.583	1	3
582.753	1	6
582.923	1	11
583.093	1	-1
583.263	1	-7
583.433	1	2
583.603	1	-3
583.772	1	-6
583.942	1	6
584.112	1	-13
584.282	1	4
584.452	1	2
584.622	1	4
584.791	1	6
584.961	1	-3
585.131	1	-4
585.301	1	-11
585.471	1	13
585.641	1	4
585.811	1	1
585.980	1	5
586.150	1	0
586.320	1	-5
586.490	1	0
586.660	1	1
586.830	1	4
586.999	1	1
587.169	1	-2
587.339	1	-1
587.509	1	2
587.679	1	8
587.849	1	-4
588.018	1	17
588.188	1	-4
588.358	1	10
588.528	1	-8
588.698	1	-1
588.867	1	-5
589.037	1	4
589.207	1	3
589.377	1	6
589.547	1	-5
589.717	1	2
589.886	1	-3
590.056	1	-5
590.226	1	-3
590.396	1	1
590.566	1	1
590.735	1	9
590.905	1	-2
591.075	1	-13
591.245	1	3
591.415	1	0
591.585	1	-6
591.754	1	5
591.924	1	0
592.094	1	0
592.264	1	-7
592.434	1	3
592.603	1	4
592.773	1	-1
592.943	1	5
593.113	1	0
593.283	1	4
593.452	1	3
593.622	1	5
593.792	1	0
593.962	1	-6
594.132	1	-7
594.301	1	3
594.471	1	6
594.641	1	-9
594.811	1	-3
594.981	1	-11
595.150	1	2
595.320	1	1
595.490	1	2
595.660	1	7
595.829	1	-1
595.999	1	8
596.169	1	9
596.339	1	0
596.509	1	-4
596.678	1	3
596.848	1	2
597.018	1	-5
597.188	1	-9
597.358	1	-6
597.527	1	4
597.697	1	-9
597.867	1	-2
598.037	1	1
598.206	1	3
598.376	1	-9
598.546	1	-14
598.716	1	-2
598.885	1	8
599.055	1	7
599.225	1	-3
599.395	1	0
599.565	1	-5
599.734	1	7
599.904	1	4
600.074	1	-8
600.244	1	6
600.413	1	-5
600.583	1	8
600.753	1	5
600.923	1	2
601.092	1	2
601.262	1	4
601.432	1	-2
601.602	1	-6
601.771	1	-4
601.941	1	-4
602.111	1	-3
602.281	1	-6
602.451	1	0
602.620	1	-6
602.790	1	4
602.960	1	-3
603.130	1	0
603.299	1	8
603.469	1	-2
603.639	1	7
603.809	1	-7
603.978	1	-14
604.148	1	-5
604.318	1	17
604.487	1	0
604.657	1	7
604.827	1	-3
604.997	1	-1
605.166	1	-1
605.336	1	-7
605.506	1	-4
605.676	1	8
605.845	1	0
606.015	1	2
606.185	1	5
606.355	1	1
606.524	1	3
606.694	1	-2
606.864	1	-2
607.034	1	-7
607.203	1	-2
607.373	1	1
607.543	1	0
607.712	1	4
607.882	1	2
608.052	1	1
608.222	1	-3
608.391	1	4
608.561	1	3
608.731	1	4
608.901	1	2
609.070	1	10
609.240	1	-1
609.410	1	-1
609.579	1	1
609.749	1	7
609.919	1	-2
610.089	1	-1
610.258	1	-5
610.428	1	0
610.598	1	-5
610.767	1	1
610.937	1	-5
611.107	1	-5
611.277	1	10
611.446	1	-3
611.616	1	6
611.786	1	4
611.955	1	0
612.125	1	-4
612.295	1	6
612.465	1	2
612.634	1	5
612.804	1	-7
612.974	1	1
613.143	1	0
613.313	1	-7
613.483	1	6
613.652	1	-7
613.822	1	-5
613.992	1	11
614.162	1	-1
614.331	1	13
614.501	1	-5
614.671	1	9
614.840	1	6
615.010	1	1
615.180	1	2
615.349	1	-10
615.519	1	2
615.689	1	6
615.858	1	4
616.028	1	0
616.198	1	-4
616.368	1	4
616.537	1	-8
616.707	1	4
616.877	1	0
617.046	1	-2
617.216	1	19
617.386	1	5
617.555	1	1
617.725	1	-1
617.895	1	-1
618.064	1	-3
618.234	1	0
618.404	1	-6
618.573	1	2
618.743	1	13
618.913	1	-5
619.082	1	5
619.252	1	1
619.422	1	-2
619.591	1	2
619.761	1	-3
619.931	1	0
620.100	1	3
620.270	1	0
620.440	1	-4
620.609	1	-2
620.779	1	8
620.949	1	7
621.118	1	0
621.288	1	-8
621.458	1	5
621.627	1	3
621.797	1	5
621.967	1	-7
622.136	1	6
622.306	1	-9
622.476	1	6
622.645	1	-2
622.815	1	-8
622.985	1	5
623.154	1	-6
623.324	1	-2
623.494	1	9
623.663	1	6
623.833	1	-3
624.002	1	-4
624.172	1	11
624.342	1	-3
624.511	1	9
624.681	1	-4
624.851	1	6
625.020	1	8
625.190	1	2
625.360	1	0
625.529	1	-4
625.699	1	5
625.869	1	0
626.038	1	-1
626.208	1	2
626.377	1	-6
626.547	1	0
626.717	1	-2
626.886	1	-7
627.056	1	7
627.226	1	-10
627.395	1	-4
627.565	1	4
627.735	1	-1
627.904	1	11
628.074	1	4
628.243	1	9
628.413	1	6
628.583	1	5
628.752	1	-5
628.922	1	-5
629.091	1	1
629.261	1	5
629.431	1	-6
629.600	1	-1
629.770	1	-10
629.940	1	-11
630.109	1	-2
630.279	1	0
630.448	1	5
630.618	1	2
630.788	1	-11
630.957	1	24
631.127	1	-4
631.297	1	5
631.466	1	4
631.636	1	2
631.805	1	-1
631.975	1	7
632.145	1	-7
632.314	1	-9
632.484	1	10
632.653	1	3
632.823	1	10
632.993	1	3
633.162	1	2
633.332	1	-3
633.501	1	-2
633.671	1	4
633.841	1	-7
634.010	1	3
634.180	1	-8
634.349	1	0
634.519	1	0
634.689	1	9
634.858	1	2
635.028	1	6
635.197	1	-1
635.367	1	3
635.537	1	-6
635.706	1	-3
635.876	1	-2
636.045	1	-10
636.215	1	-4
636.384	1	-4
636.554	1	7
636.724	1	-11
636.893	1	0
637.063	1	8
637.232	1	3
637.402	1	10
637.572	1	6
637.741	1	-1
637.911	1	-11
638.080	1	0
638.250	1	1
638.419	1	-11
638.589	1	4
638.759	1	8
638.928	1	2
639.098	1	1
639.267	1	-12
639.437	1	1
639.606	1	-4
639.776	1	-4
639.946	1	3
640.115	1	-3
640.285	1	3
640.454	1	-1
640.624	1	1
640.793	1	2
640.963	1	-7
641.132	1	4
641.302	1	7
641.472	1	-3
641.641	1	0
641.811	1	-5
641.980	1	-8
642.150	1	8
642.319	1	1
642.489	1	8
642.659	1	-3
642.828	1	3
642.998	1	-7
643.167	1	1
643.337	1	-5
643.506	1	7
643.676	1	-2
643.845	1	-3
644.015	1	8
644.184	1	3
644.354	1	-10
644.524	1	3
644.693	1	8
644.863	1	0
645.032	1	-5
645.202	1	-1
645.371	1	-9
645.541	1	-3
645.710	1	5
645.880	1	3
646.049	1	-8
646.219	1	2
646.388	1	-3
646.558	1	7
646.728	1	-1
646.897	1	10
647.067	1	7
647.236	1	-8
647.406	1	7
647.575	1	0
647.745	1	3
647.914	1	-9
648.084	1	-5
648.253	1	0
648.423	1	7
648.592	1	-4
648.762	1	0
648.931	1	-2
649.101	1	4
649.270	1	0
649.440	1	-6
649.610	1	3
649.779	1	6
649.949	1	-14
650.118	1	-3
650.288	1	1
650.457	1	-5
650.627	1	4
650.796	1	-18
650.966	1	2
651.135	1	-7
651.305	1	-3
651.474	1	-2
651.644	1	1
651.813	1	6
651.983	1	9
652.152	1	2
652.322	1	-7
652.491	1	10
652.661	1	7
652.830	1	8
653.000	1	3
653.169	1	3
653.339	1	7
653.508	1	2
653.678	1	-9
653.847	1	-3
654.017	1	3
654.186	1	-5
654.356	1	-1
654.525	1	5
654.695	1	-1
654.864	1	-8
655.034	1	-3
655.203	1	-4
655.373	1	-8
655.542	1	1
655.712	1	1
655.881	1	6
656.051	1	1
656.220	1	0
656.390	1	3
656.559	1	5
656.729	1	1
656.898	1	2
657.068	1	5
657.237	1	6
657.406	1	-10
657.576	1	-2
657.745	1	-1
657.915	1	0
658.084	1	1
658.254	1	0
658.423	1	6
658.593	1	3
658.762	1	13
658.932	1	-3
659.101	1	-14
659.271	1	7
659.440	1	-4
659.610	1	5
659.779	1	-1
659.949	1	5
660.118	1	-2
660.288	1	-10
660.457	1	9
660.626	1	9
660.796	1	-4
660.965	1	-6
661.135	1	-4
661.304	1	3
661.474	1	4
661.643	1	2
661.813	1	1
661.982	1	-2
662.152	1	9
662.321	1	0
662.491	1	-5
662.660	1	-5
662.829	1	-3
662.999	1	7
663.168	1	7
663.338	1	0
663.507	1	-5
663.677	1	-2
663.846	1	-7
664.016	1	3
664.185	1	-4
664.354	1	-1
664.524	1	-10
664.693	1	-1
664.863	1	-1
665.032	1	7
665.202	1	1
665.371	1	7
665.541	1	-6
665.710	1	-1
665.879	1	1
666.049	1	-10
666.218	1	-6
666.388	1	12
666.557	1	-2
666.727	1	-2
666.896	1	2
667.065	1	7
667.235	1	11
667.404	1	-2
667.574	1	3
667.743	1	9
667.913	1	-1
668.082	1	6
668.251	1	2
668.421	1	-2
668.590	1	4
668.760	1	11
668.929	1	-10
669.099	1	4
669.268	1	0
669.437	1	1
669.607	1	0
669.776	1	-1
669.946	1	0
670.115	1	-3
670.285	1	-1
670.454	1	3
670.623	1	7
670.793	1	-4
670.962	1	4
671.132	1	2
671.301	1	-7
671.470	1	6
671.640	1	0
671.809	1	-11
671.979	1	2
672.148	1	3
672.317	1	4
672.487	1	9
672.656	1	3
672.826	1	0
672.995	1	-2
673.164	1	15
673.334	1	-2
673.503	1	-1
673.673	1	-1
673.842	1	-1
674.011	1	-6
674.181	1	12
674.350	1	-4
674.520	1	10
674.689	1	-7
674.858	1	-9
675.028	1	9
675.197	1	11
675.367	1	-2
675.536	1	5
675.705	1	-4
675.875	1	-4
676.044	1	1
676.214	1	1
676.383	1	0
676.552	1	9
676.722	1	-10
676.891	1	-6
677.060	1	-8
677.230	1	-2
677.399	1	7
677.569	1	7
677.738	1	-4
677.907	1	2
678.077	1	9
678.246	1	-10
678.416	1	-5
678.585	1	-2
678.754	1	5
678.924	1	3
679.093	1	9
679.262	1	14
679.432	1	21
679.601	1	7
679.771	1	-2
679.940	1	9
680.109	1	1
680.279	1	-2
680.448	1	-9
680.617	1	-4
680.787	1	-1
680.956	1	5
681.125	1	2
681.295	1	7
681.464	1	7
681.634	1	-3
681.803	1	5
681.972	1	-3
682.142	1	-3
682.311	1	10
682.480	1	-2
682.650	1	11
682.819	1	-1
682.988	1	2
683.158	1	6
683.327	1	-1
683.496	1	-2
683.666	1	0
683.835	1	-10
684.004	1	0
684.174	1	2
684.343	1	11
684.512	1	-4
684.682	1	-5
684.851	1	-2
685.021	1	-1
685.190	1	5
685.359	1	-16
685.529	1	1
685.698	1	0
685.867	1	-1
686.037	1	8
686.206	1	12
686.375	1	0
686.545	1	-4
686.714	1	-2
686.883	1	-7
687.053	1	-5
687.222	1	1
687.391	1	9
687.561	1	1
687.730	1	-5
687.899	1	11
688.069	1	7
688.238	1	-1
688.407	1	-3
688.577	1	-5
688.746	1	3
