340.368	1	12
340.539	1	11
340.710	1	2
340.881	1	6
341.052	1	15
341.223	1	-4
341.394	1	-3
341.565	1	4
341.737	1	9
341.908	1	-3
342.079	1	8
342.250	1	5
342.421	1	0
342.592	1	8
342.763	1	5
342.934	1	5
343.105	1	10
343.276	1	-3
343.447	1	9
343.618	1	5
343.789	1	28
343.960	1	7
344.131	1	18
344.302	1	11
344.473	1	7
344.644	1	16
344.815	1	3
344.986	1	0
345.157	1	2
345.328	1	1
345.499	1	11
345.670	1	4
345.841	1	4
346.012	1	11
346.183	1	3
346.354	1	15
346.526	1	17
346.697	1	7
346.868	1	10
347.039	1	-1
347.210	1	3
347.381	1	12
347.552	1	12
347.723	1	3
347.894	1	14
348.065	1	-2
348.236	1	5
348.407	1	-1
348.578	1	3
348.749	1	4
348.920	1	1
349.091	1	4
349.262	1	18
349.433	1	8
349.604	1	11
349.775	1	11
349.946	1	4
350.117	1	9
350.288	1	13
350.459	1	6
350.630	1	11
350.801	1	16
350.972	1	13
351.143	1	6
351.314	1	15
351.485	1	13
351.656	1	20
351.827	1	4
351.998	1	16
352.169	1	6
352.340	1	14
352.511	1	17
352.682	1	4
352.853	1	12
353.024	1	26
353.195	1	12
353.366	1	21
353.537	1	19
353.708	1	9
353.879	1	30
354.050	1	13
354.221	1	17
354.392	1	20
354.563	1	15
354.734	1	8
354.905	1	30
355.076	1	22
355.247	1	25
355.418	1	20
355.589	1	24
355.760	1	19
355.931	1	22
356.102	1	34
356.273	1	27
356.444	1	30
356.615	1	37
356.785	1	30
356.956	1	40
357.127	1	34
357.298	1	30
357.469	1	41
357.640	1	36
357.811	1	40
357.982	1	44
358.153	1	36
358.324	1	49
358.495	1	51
358.666	1	51
358.837	1	48
359.008	1	61
359.179	1	48
359.350	1	59
359.521	1	77
359.692	1	72
359.863	1	62
360.034	1	72
360.205	1	71
360.376	1	80
360.547	1	78
360.718	1	99
360.889	1	93
361.060	1	93
361.231	1	96
361.401	1	95
361.572	1	105
361.743	1	100
361.914	1	126
362.085	1	128
362.256	1	132
362.427	1	146
362.598	1	143
362.769	1	169
362.940	1	161
363.111	1	178
363.282	1	185
363.453	1	204
363.624	1	212
363.795	1	219
363.966	1	228
364.137	1	246
364.308	1	269
364.478	1	277
364.649	1	297
364.820	1	301
364.991	1	318
365.162	1	351
365.333	1	354
365.504	1	339
365.675	1	383
365.846	1	416
366.017	1	445
366.188	1	451
366.359	1	461
366.530	1	496
366.701	1	498
366.871	1	531
367.042	1	538
367.213	1	539
367.384	1	554
367.555	1	597
367.726	1	600
367.897	1	617
368.068	1	604
368.239	1	623
368.410	1	619
368.581	1	603
368.752	1	619
368.923	1	638
369.093	1	641
369.264	1	597
369.435	1	601
369.606	1	594
369.777	1	591
369.948	1	565
370.119	1	556
370.290	1	547
370.461	1	545
370.632	1	533
370.803	1	517
370.973	1	518
371.144	1	483
371.315	1	453
371.486	1	456
371.657	1	448
371.828	1	419
371.999	1	415
372.170	1	415
372.341	1	382
372.512	1	376
372.682	1	375
372.853	1	347
373.024	1	356
373.195	1	340
373.366	1	325
373.537	1	325
373.708	1	317
373.879	1	295
374.050	1	299
374.220	1	294
374.391	1	276
374.562	1	281
374.733	1	268
374.904	1	262
375.075	1	256
375.246	1	240
375.417	1	244
375.588	1	229
375.758	1	227
375.929	1	237
376.100	1	204
376.271	1	223
376.442	1	205
376.613	1	208
376.784	1	196
376.955	1	189
377.125	1	196
377.296	1	181
377.467	1	181
377.638	1	166
377.809	1	191
377.980	1	151
378.151	1	148
378.321	1	146
378.492	1	142
378.663	1	136
378.834	1	129
379.005	1	129
379.176	1	126
379.347	1	144
379.518	1	137
379.688	1	124
379.859	1	119
380.030	1	114
380.201	1	102
380.372	1	105
380.543	1	116
380.714	1	113
380.884	1	114
381.055	1	100
381.226	1	103
381.397	1	107
381.568	1	93
381.739	1	91
381.910	1	91
382.080	1	90
382.251	1	88
382.422	1	94
382.593	1	98
382.764	1	78
382.935	1	85
383.105	1	89
383.276	1	83
383.447	1	80
383.618	1	71
383.789	1	76
383.960	1	75
384.130	1	81
384.301	1	86
384.472	1	67
384.643	1	74
384.814	1	77
384.985	1	85
385.156	1	65
385.326	1	70
385.497	1	66
385.668	1	75
385.839	1	71
386.010	1	66
386.180	1	58
386.351	1	59
386.522	1	62
386.693	1	61
386.864	1	60
387.035	1	61
387.205	1	47
387.376	1	47
387.547	1	59
387.718	1	58
387.889	1	54
388.060	1	55
388.230	1	54
388.401	1	54
388.572	1	45
388.743	1	46
388.914	1	53
389.084	1	42
389.255	1	54
389.426	1	33
389.597	1	39
389.768	1	51
389.939	1	48
390.109	1	47
390.280	1	50
390.451	1	32
390.622	1	45
390.793	1	43
390.963	1	42
391.134	1	37
391.305	1	31
391.476	1	48
391.647	1	37
391.817	1	44
391.988	1	42
392.159	1	35
392.330	1	35
392.501	1	30
392.671	1	30
392.842	1	30
393.013	1	23
393.184	1	30
393.355	1	23
393.525	1	26
393.696	1	33
393.867	1	41
394.038	1	34
394.208	1	29
394.379	1	35
394.550	1	30
394.721	1	30
394.892	1	32
395.062	1	27
395.233	1	28
395.404	1	25
395.575	1	27
395.746	1	33
395.916	1	26
396.087	1	34
396.258	1	40
396.429	1	16
396.599	1	25
396.770	1	34
396.941	1	20
397.112	1	27
397.283	1	28
397.453	1	26
397.624	1	19
397.795	1	24
397.966	1	27
398.136	1	25
398.307	1	26
398.478	1	19
398.649	1	30
398.819	1	19
398.990	1	7
399.161	1	28
399.332	1	21
399.503	1	24
399.673	1	23
399.844	1	19
400.015	1	7
400.186	1	17
400.356	1	17
400.527	1	11
400.698	1	19
400.869	1	14
401.039	1	13
401.210	1	21
401.381	1	15
401.552	1	11
401.722	1	8
401.893	1	19
402.064	1	13
402.235	1	13
402.405	1	13
402.576	1	17
402.747	1	11
402.918	1	14
403.088	1	21
403.259	1	23
403.430	1	13
403.601	1	9
403.771	1	16
403.942	1	19
404.113	1	14
404.284	1	15
404.454	1	2
404.625	1	20
404.796	1	16
404.967	1	18
405.137	1	17
405.308	1	11
405.479	1	8
405.649	1	21
405.820	1	13
405.991	1	6
406.162	1	20
406.332	1	8
406.503	1	15
406.674	1	15
406.845	1	18
407.015	1	21
407.186	1	4
407.357	1	7
407.527	1	6
407.698	1	8
407.869	1	7
408.040	1	14
408.210	1	22
408.381	1	27
408.552	1	26
408.722	1	10
408.893	1	12
409.064	1	11
409.235	1	13
409.405	1	6
409.576	1	7
409.747	1	14
409.917	1	8
410.088	1	15
410.259	1	5
410.430	1	2
410.600	1	15
410.771	1	8
410.942	1	14
411.112	1	23
411.283	1	3
411.454	1	17
411.625	1	12
411.795	1	8
411.966	1	9
412.137	1	1
412.307	1	16
412.478	1	2
412.649	1	16
412.819	1	13
412.990	1	14
413.161	1	6
413.332	1	21
413.502	1	6
413.673	1	13
413.844	1	7
414.014	1	5
414.185	1	6
414.356	1	11
414.526	1	1
414.697	1	3
414.868	1	14
415.038	1	13
415.209	1	14
415.380	1	9
415.550	1	17
415.721	1	3
415.892	1	14
416.063	1	-3
416.233	1	9
416.404	1	7
416.575	1	4
416.745	1	6
416.916	1	0
417.087	1	10
417.257	1	13
417.428	1	15
417.599	1	12
417.769	1	9
417.940	1	-1
418.111	1	12
418.281	1	19
418.452	1	6
418.623	1	11
418.793	1	28
418.964	1	14
419.135	1	12
419.305	1	8
419.476	1	22
419.647	1	12
419.817	1	7
419.988	1	12
420.159	1	11
420.329	1	11
420.500	1	6
420.671	1	5
420.841	1	9
421.012	1	15
421.183	1	8
421.353	1	8
421.524	1	7
421.695	1	6
421.865	1	12
422.036	1	6
422.206	1	10
422.377	1	12
422.548	1	3
422.718	1	21
422.889	1	12
423.060	1	4
423.230	1	11
423.401	1	15
423.572	1	21
423.742	1	7
423.913	1	-2
424.084	1	0
424.254	1	-4
424.425	1	1
424.595	1	13
424.766	1	-5
424.937	1	10
425.107	1	16
425.278	1	15
425.449	1	7
425.619	1	-2
425.790	1	11
425.961	1	-1
426.131	1	10
426.302	1	0
426.472	1	5
426.643	1	10
426.814	1	15
426.984	1	4
427.155	1	7
427.326	1	2
427.496	1	4
427.667	1	-3
427.837	1	-1
428.008	1	9
428.179	1	8
428.349	1	7
428.520	1	8
428.691	1	19
428.861	1	6
429.032	1	1
429.202	1	7
429.373	1	8
429.544	1	5
429.714	1	-1
429.885	1	13
430.055	1	8
430.226	1	12
430.397	1	3
430.567	1	12
430.738	1	-2
430.909	1	2
431.079	1	19
431.250	1	9
431.420	1	16
431.591	1	14
431.762	1	12
431.932	1	0
432.103	1	-9
432.273	1	8
432.444	1	10
432.615	1	13
432.785	1	4
432.956	1	3
433.126	1	21
433.297	1	5
433.468	1	5
433.638	1	17
433.809	1	9
433.979	1	-2
434.150	1	13
434.320	1	8
434.491	1	8
434.662	1	3
434.832	1	-2
435.003	1	0
435.173	1	0
435.344	1	9
435.515	1	8
435.685	1	-2
435.856	1	10
436.026	1	10
436.197	1	13
436.368	1	17
436.538	1	10
436.709	1	-5
436.879	1	7
437.050	1	10
437.220	1	17
437.391	1	2
437.562	1	19
437.732	1	5
437.903	1	8
438.073	1	19
438.244	1	10
438.414	1	-4
438.585	1	4
438.756	1	4
438.926	1	5
439.097	1	7
439.267	1	3
439.438	1	6
439.608	1	4
439.779	1	4
439.949	1	9
440.120	1	10
440.291	1	-4
440.461	1	6
440.632	1	2
440.802	1	2
440.973	1	18
441.143	1	9
441.314	1	3
441.485	1	15
441.655	1	-8
441.826	1	5
441.996	1	-3
442.167	1	4
442.337	1	4
442.508	1	1
442.678	1	7
442.849	1	31
443.019	1	10
443.190	1	14
443.361	1	8
443.531	1	9
443.702	1	15
443.872	1	7
444.043	1	4
444.213	1	10
444.384	1	13
444.554	1	13
444.725	1	19
444.895	1	3
445.066	1	5
445.237	1	1
445.407	1	2
445.578	1	14
445.748	1	2
445.919	1	-11
446.089	1	17
446.260	1	-1
446.430	1	14
446.601	1	27
446.771	1	17
446.942	1	-8
447.112	1	3
447.283	1	7
447.453	1	8
447.624	1	3
447.794	1	3
447.965	1	12
448.135	1	4
448.306	1	14
448.477	1	0
448.647	1	0
448.818	1	8
448.988	1	4
449.159	1	12
449.329	1	10
449.500	1	1
449.670	1	-1
449.841	1	-4
450.011	1	10
450.182	1	3
450.352	1	18
450.523	1	-6
450.693	1	11
450.864	1	6
451.034	1	19
451.205	1	7
451.375	1	5
451.546	1	3
451.716	1	3
451.887	1	3
452.057	1	4
452.228	1	17
452.398	1	2
452.569	1	11
452.739	1	17
452.910	1	4
453.080	1	13
453.251	1	1
453.421	1	1
453.592	1	6
453.762	1	4
453.933	1	7
454.103	1	3
454.274	1	3
454.444	1	-5
454.615	1	7
454.785	1	14
454.956	1	12
455.126	1	0
455.297	1	13
455.467	1	3
455.638	1	5
455.808	1	4
455.979	1	0
456.149	1	-1
456.320	1	6
456.490	1	4
456.661	1	10
456.831	1	-3
457.001	1	16
457.172	1	0
457.342	1	1
457.513	1	7
457.683	1	9
457.854	1	7
458.024	1	-8
458.195	1	7
458.365	1	13
458.536	1	5
458.706	1	17
458.877	1	8
459.047	1	13
459.218	1	-3
459.388	1	16
459.559	1	8
459.729	1	-4
459.899	1	3
460.070	1	4
460.240	1	7
460.411	1	12
460.581	1	1
460.752	1	2
460.922	1	6
461.093	1	9
461.263	1	-3
461.434	1	10
461.604	1	5
461.775	1	0
461.945	1	-9
462.115	1	12
462.286	1	13
462.456	1	8
462.627	1	5
462.797	1	4
462.968	1	10
463.138	1	10
463.309	1	1
463.479	1	5
463.649	1	4
463.820	1	4
463.990	1	6
464.161	1	10
464.331	1	-1
464.502	1	8
464.672	1	20
464.843	1	1
465.013	1	3
465.183	1	9
465.354	1	8
465.524	1	2
465.695	1	16
465.865	1	13
466.036	1	4
466.206	1	8
466.376	1	4
466.547	1	6
466.717	1	6
466.888	1	-2
467.058	1	5
467.229	1	20
467.399	1	15
467.569	1	23
467.740	1	8
467.910	1	8
468.081	1	3
468.251	1	3
468.422	1	7
468.592	1	8
468.762	1	4
468.933	1	7
469.103	1	7
469.274	1	2
469.444	1	9
469.614	1	-2
469.785	1	3
469.955	1	-5
470.126	1	6
470.296	1	6
470.467	1	9
470.637	1	0
470.807	1	6
470.978	1	0
471.148	1	20
471.319	1	7
471.489	1	8
471.659	1	2
471.830	1	0
472.000	1	3
472.171	1	4
472.341	1	9
472.511	1	14
472.682	1	7
472.852	1	22
473.023	1	10
473.193	1	9
473.363	1	15
473.534	1	18
473.704	1	0
473.875	1	10
474.045	1	8
474.215	1	14
474.386	1	7
474.556	1	2
474.727	1	9
474.897	1	1
475.067	1	7
475.238	1	11
475.408	1	2
475.578	1	13
475.749	1	10
475.919	1	12
476.090	1	9
476.260	1	3
476.430	1	18
476.601	1	10
476.771	1	16
476.942	1	7
477.112	1	6
477.282	1	12
477.453	1	12
477.623	1	17
477.793	1	5
477.964	1	9
478.134	1	22
478.305	1	11
478.475	1	11
478.645	1	8
478.816	1	13
478.986	1	18
479.156	1	7
479.327	1	10
479.497	1	8
479.667	1	8
479.838	1	11
480.008	1	12
480.179	1	8
480.349	1	5
480.519	1	14
480.690	1	18
480.860	1	19
481.030	1	15
481.201	1	11
481.371	1	16
481.541	1	12
481.712	1	7
481.882	1	22
482.053	1	11
482.223	1	14
482.393	1	7
482.564	1	16
482.734	1	29
482.904	1	7
483.075	1	16
483.245	1	-2
483.415	1	15
483.586	1	17
483.756	1	26
483.926	1	9
484.097	1	23
484.267	1	20
484.437	1	11
484.608	1	15
484.778	1	13
484.948	1	29
485.119	1	17
485.289	1	12
485.459	1	24
485.630	1	18
485.800	1	10
485.970	1	11
486.141	1	22
486.311	1	15
486.481	1	17
486.652	1	20
486.822	1	13
486.992	1	26
487.163	1	23
487.333	1	21
487.503	1	30
487.674	1	23
487.844	1	23
488.014	1	27
488.185	1	26
488.355	1	20
488.525	1	20
488.696	1	20
488.866	1	22
489.036	1	38
489.207	1	22
489.377	1	16
489.547	1	25
489.718	1	17
489.888	1	24
490.058	1	16
490.228	1	15
490.399	1	34
490.569	1	19
490.739	1	34
490.910	1	22
491.080	1	20
491.250	1	32
491.421	1	38
491.591	1	24
491.761	1	33
491.932	1	34
492.102	1	29
492.272	1	18
492.442	1	38
492.613	1	32
492.783	1	15
492.953	1	38
493.124	1	26
493.294	1	30
493.464	1	45
493.635	1	43
493.805	1	38
493.975	1	45
494.145	1	41
494.316	1	23
494.486	1	16
494.656	1	32
494.827	1	28
494.997	1	23
495.167	1	42
495.337	1	47
495.508	1	22
495.678	1	42
495.848	1	34
496.019	1	35
496.189	1	46
496.359	1	38
496.529	1	39
496.700	1	45
496.870	1	51
497.040	1	35
497.211	1	39
497.381	1	43
497.551	1	51
497.721	1	35
497.892	1	39
498.062	1	37
498.232	1	42
498.403	1	40
498.573	1	42
498.743	1	41
498.913	1	46
499.084	1	52
499.254	1	56
499.424	1	49
499.594	1	45
499.765	1	43
499.935	1	43
500.105	1	47
500.275	1	46
500.446	1	48
500.616	1	46
500.786	1	50
500.956	1	52
501.127	1	49
501.297	1	48
501.467	1	61
501.638	1	52
501.808	1	63
501.978	1	62
502.148	1	48
502.319	1	63
502.489	1	49
502.659	1	54
502.829	1	54
503.000	1	56
503.170	1	53
503.340	1	49
503.510	1	55
503.681	1	52
503.851	1	47
504.021	1	61
504.191	1	49
504.362	1	57
504.532	1	55
504.702	1	54
504.872	1	56
505.042	1	66
505.213	1	52
505.383	1	66
505.553	1	65
505.723	1	61
505.894	1	61
506.064	1	51
506.234	1	55
506.404	1	60
506.575	1	61
506.745	1	54
506.915	1	60
507.085	1	57
507.256	1	71
507.426	1	71
507.596	1	57
507.766	1	67
507.936	1	65
508.107	1	61
508.277	1	64
508.447	1	51
508.617	1	53
508.788	1	57
508.958	1	73
509.128	1	61
509.298	1	53
509.468	1	72
509.639	1	65
509.809	1	64
509.979	1	76
510.149	1	68
510.319	1	76
510.490	1	63
510.660	1	75
510.830	1	70
511.000	1	67
511.171	1	70
511.341	1	60
511.511	1	56
511.681	1	70
511.851	1	66
512.022	1	77
512.192	1	76
512.362	1	73
512.532	1	81
512.702	1	69
512.873	1	61
513.043	1	78
513.213	1	74
513.383	1	72
513.553	1	66
513.724	1	71
513.894	1	81
514.064	1	72
514.234	1	70
514.404	1	72
514.575	1	84
514.745	1	75
514.915	1	63
515.085	1	78
515.255	1	74
515.425	1	83
515.596	1	75
515.766	1	77
515.936	1	89
516.106	1	73
516.276	1	79
516.447	1	80
516.617	1	75
516.787	1	75
516.957	1	70
517.127	1	76
517.297	1	73
517.468	1	88
517.638	1	80
517.808	1	80
517.978	1	78
518.148	1	76
518.319	1	76
518.489	1	78
518.659	1	80
518.829	1	82
518.999	1	76
519.169	1	80
519.340	1	84
519.510	1	79
519.680	1	74
519.850	1	83
520.020	1	75
520.190	1	88
520.361	1	87
520.531	1	73
520.701	1	85
520.871	1	87
521.041	1	89
521.211	1	81
521.382	1	77
521.552	1	74
521.722	1	90
521.892	1	98
522.062	1	101
522.232	1	94
522.402	1	92
522.573	1	85
522.743	1	76
522.913	1	84
523.083	1	83
523.253	1	84
523.423	1	89
523.593	1	82
523.764	1	93
523.934	1	83
524.104	1	90
524.274	1	80
524.444	1	98
524.614	1	104
524.784	1	89
524.955	1	77
525.125	1	96
525.295	1	97
525.465	1	98
525.635	1	100
525.805	1	95
525.975	1	81
526.146	1	97
526.316	1	95
526.486	1	86
526.656	1	103
526.826	1	102
526.996	1	89
527.166	1	98
527.337	1	103
527.507	1	89
527.677	1	102
527.847	1	97
528.017	1	97
528.187	1	102
528.357	1	98
528.527	1	98
528.698	1	90
528.868	1	104
529.038	1	88
529.208	1	101
529.378	1	101
529.548	1	99
529.718	1	105
529.888	1	93
530.058	1	95
530.229	1	99
530.399	1	100
530.569	1	92
530.739	1	85
530.909	1	115
531.079	1	88
531.249	1	96
531.419	1	106
531.589	1	100
531.760	1	100
531.930	1	91
532.100	1	110
532.270	1	82
532.440	1	79
532.610	1	101
532.780	1	89
532.950	1	90
533.120	1	88
533.290	1	95
533.461	1	88
533.631	1	97
533.801	1	99
533.971	1	87
534.141	1	98
534.311	1	86
534.481	1	80
534.651	1	91
534.821	1	78
534.991	1	86
535.162	1	82
535.332	1	83
535.502	1	81
535.672	1	87
535.842	1	80
536.012	1	90
536.182	1	85
536.352	1	81
536.522	1	89
536.692	1	69
536.862	1	82
537.032	1	77
537.203	1	76
537.373	1	77
537.543	1	78
537.713	1	94
537.883	1	75
538.053	1	87
538.223	1	76
538.393	1	93
538.563	1	86
538.733	1	70
538.903	1	75
539.073	1	86
539.243	1	75
539.413	1	76
539.584	1	84
539.754	1	82
539.924	1	70
540.094	1	84
540.264	1	86
540.434	1	77
540.604	1	90
540.774	1	83
540.944	1	92
541.114	1	76
541.284	1	82
541.454	1	84
541.624	1	86
541.794	1	86
541.964	1	81
542.134	1	76
542.305	1	91
542.475	1	87
542.645	1	97
542.815	1	86
542.985	1	83
543.155	1	107
543.325	1	76
543.495	1	86
543.665	1	99
543.835	1	88
544.005	1	88
544.175	1	96
544.345	1	87
544.515	1	76
544.685	1	91
544.855	1	86
545.025	1	106
545.195	1	77
545.365	1	90
545.535	1	99
545.705	1	95
545.875	1	93
546.045	1	91
546.216	1	94
546.386	1	99
546.556	1	86
546.726	1	88
546.896	1	96
547.066	1	95
547.236	1	99
547.406	1	80
547.576	1	80
547.746	1	86
547.916	1	88
548.086	1	95
548.256	1	86
548.426	1	92
548.596	1	96
548.766	1	89
548.936	1	89
549.106	1	90
549.276	1	86
549.446	1	81
549.616	1	82
549.786	1	95
549.956	1	80
550.126	1	84
550.296	1	88
550.466	1	83
550.636	1	85
550.806	1	78
550.976	1	85
551.146	1	77
551.316	1	90
551.486	1	96
551.656	1	69
551.826	1	82
551.996	1	79
552.166	1	86
552.336	1	86
552.506	1	82
552.676	1	84
552.846	1	79
553.016	1	85
553.186	1	83
553.356	1	88
553.526	1	70
553.696	1	80
553.866	1	85
554.036	1	75
554.206	1	85
554.376	1	72
554.546	1	72
554.716	1	80
554.886	1	71
555.056	1	74
555.226	1	70
555.396	1	70
555.566	1	72
555.736	1	80
555.906	1	87
556.076	1	74
556.246	1	78
556.416	1	74
556.586	1	57
556.756	1	69
556.926	1	85
557.096	1	72
557.266	1	75
557.436	1	75
557.606	1	78
557.776	1	71
557.946	1	67
558.116	1	69
558.286	1	67
558.456	1	75
558.626	1	80
558.796	1	86
558.966	1	72
559.136	1	73
559.306	1	72
559.476	1	67
559.646	1	71
559.816	1	79
559.986	1	66
560.155	1	75
560.325	1	71
560.495	1	82
560.665	1	75
560.835	1	69
561.005	1	72
561.175	1	68
561.345	1	75
561.515	1	67
561.685	1	77
561.855	1	62
562.025	1	69
562.195	1	70
562.365	1	76
562.535	1	83
562.705	1	74
562.875	1	71
563.045	1	73
563.215	1	65
563.385	1	73
563.555	1	69
563.725	1	59
563.895	1	71
564.064	1	71
564.234	1	81
564.404	1	55
564.574	1	64
564.744	1	65
564.914	1	67
565.084	1	67
565.254	1	73
565.424	1	65
565.594	1	61
565.764	1	73
565.934	1	70
566.104	1	79
566.274	1	72
566.444	1	66
566.614	1	66
566.783	1	57
566.953	1	61
567.123	1	68
567.293	1	56
567.463	1	64
567.633	1	64
567.803	1	66
567.973	1	80
568.143	1	59
568.313	1	75
568.483	1	71
568.653	1	63
568.823	1	60
568.993	1	66
569.162	1	62
569.332	1	61
569.502	1	59
569.672	1	68
569.842	1	67
570.012	1	69
570.182	1	59
570.352	1	48
570.522	1	59
570.692	1	50
570.862	1	56
571.031	1	62
571.201	1	54
571.371	1	52
571.541	1	69
571.711	1	54
571.881	1	63
572.051	1	49
572.221	1	57
572.391	1	62
572.561	1	57
572.731	1	48
572.900	1	54
573.070	1	65
573.240	1	58
573.410	1	59
573.580	1	59
573.750	1	65
573.920	1	53
574.090	1	58
574.260	1	54
574.430	1	56
574.599	1	57
574.769	1	63
574.939	1	49
575.109	1	59
575.279	1	66
575.449	1	59
575.619	1	55
575.789	1	76
575.959	1	53
576.128	1	54
576.298	1	61
576.468	1	65
576.638	1	66
576.808	1	66
576.978	1	54
577.148	1	62
577.318	1	49
577.487	1	62
577.657	1	57
577.827	1	53
577.997	1	50
578.167	1	54
578.337	1	70
578.507	1	60
578.677	1	59
578.846	1	56
579.016	1	70
579.186	1	62
579.356	1	56
579.526	1	65
579.696	1	60
579.866	1	55
580.036	1	59
580.205	1	53
580.375	1	66
580.545	1	54
580.715	1	49
580.885	1	48
581.055	1	56
581.225	1	44
581.394	1	61
581.564	1	58
581.734	1	45
581.904	1	53
582.074	1	54
582.244	1	57
582.414	1	46
582.583	1	58
582.753	1	51
582.923	1	53
583.093	1	46
583.263	1	58
583.433	1	49
583.603	1	60
583.772	1	42
583.942	1	45
584.112	1	40
584.282	1	58
584.452	1	59
584.622	1	39
584.791	1	53
584.961	1	50
585.131	1	49
585.301	1	37
585.471	1	59
585.641	1	56
585.811	1	48
585.980	1	58
586.150	1	41
586.320	1	58
586.490	1	36
586.660	1	45
586.830	1	47
586.999	1	47
587.169	1	52
587.339	1	46
587.509	1	48
587.679	1	50
587.849	1	38
588.018	1	59
588.188	1	51
588.358	1	47
588.528	1	47
588.698	1	41
588.867	1	39
589.037	1	54
589.207	1	46
589.377	1	56
589.547	1	43
589.717	1	49
589.886	1	41
590.056	1	36
590.226	1	29
590.396	1	35
590.566	1	33
590.735	1	53
590.905	1	31
591.075	1	42
591.245	1	54
591.415	1	39
591.585	1	34
591.754	1	50
591.924	1	37
592.094	1	36
592.264	1	37
592.434	1	35
592.603	1	47
592.773	1	27
592.943	1	46
593.113	1	34
593.283	1	42
593.452	1	37
593.622	1	51
593.792	1	43
593.962	1	29
594.132	1	36
594.301	1	40
594.471	1	49
594.641	1	35
594.811	1	41
594.981	1	38
595.150	1	41
595.320	1	45
595.490	1	47
595.660	1	56
595.829	1	34
595.999	1	51
596.169	1	50
596.339	1	39
596.509	1	33
596.678	1	42
596.848	1	38
597.018	1	40
597.188	1	36
597.358	1	20
597.527	1	40
597.697	1	28
597.867	1	48
598.037	1	53
598.206	1	40
598.376	1	41
598.546	1	30
598.716	1	42
598.885	1	52
599.055	1	42
599.225	1	43
599.395	1	38
599.565	1	41
599.734	1	42
599.904	1	41
600.074	1	37
600.244	1	47
600.413	1	40
600.583	1	55
600.753	1	46
600.923	1	39
601.092	1	45
601.262	1	48
601.432	1	47
601.602	1	39
601.771	1	41
601.941	1	37
602.111	1	47
602.281	1	48
602.451	1	46
602.620	1	31
602.790	1	38
602.960	1	39
603.130	1	46
603.299	1	47
603.469	1	42
603.639	1	39
603.809	1	32
603.978	1	37
604.148	1	43
604.318	1	53
604.487	1	30
604.657	1	32
604.827	1	38
604.997	1	47
605.166	1	43
605.336	1	33
605.506	1	36
605.676	1	42
605.845	1	46
606.015	1	36
606.185	1	43
606.355	1	35
606.524	1	46
606.694	1	48
606.864	1	38
607.034	1	36
607.203	1	38
607.373	1	45
607.543	1	38
607.712	1	41
607.882	1	49
608.052	1	34
608.222	1	35
608.391	1	41
608.561	1	44
608.731	1	31
608.901	1	38
609.070	1	46
609.240	1	41
609.410	1	32
609.579	1	31
609.749	1	42
609.919	1	32
610.089	1	22
610.258	1	28
610.428	1	25
610.598	1	34
610.767	1	37
610.937	1	24
611.107	1	33
611.277	1	34
611.446	1	25
611.616	1	51
611.786	1	36
611.955	1	28
612.125	1	32
612.295	1	45
612.465	1	51
612.634	1	31
612.804	1	44
612.974	1	23
613.143	1	30
613.313	1	28
613.483	1	38
613.652	1	25
613.822	1	25
613.992	1	39
614.162	1	36
614.331	1	38
614.501	1	28
614.671	1	37
614.840	1	38
615.010	1	40
615.180	1	29
615.349	1	31
615.519	1	33
615.689	1	31
615.858	1	39
616.028	1	29
616.198	1	35
616.368	1	23
616.537	1	21
616.707	1	43
616.877	1	22
617.046	1	40
617.216	1	43
617.386	1	32
617.555	1	34
617.725	1	20
617.895	1	44
618.064	1	34
618.234	1	24
618.404	1	34
618.573	1	41
618.743	1	42
618.913	1	37
619.082	1	29
619.252	1	32
619.422	1	33
619.591	1	17
619.761	1	34
619.931	1	21
620.100	1	23
620.270	1	36
620.440	1	18
620.609	1	26
620.779	1	23
620.949	1	29
621.118	1	36
621.288	1	20
621.458	1	29
621.627	1	29
621.797	1	26
621.967	1	28
622.136	1	31
622.306	1	15
622.476	1	32
622.645	1	20
622.815	1	23
622.985	1	16
623.154	1	25
623.324	1	23
623.494	1	31
623.663	1	38
623.833	1	18
624.002	1	25
624.172	1	34
624.342	1	26
624.511	1	26
624.681	1	26
624.851	1	20
625.020	1	42
625.190	1	16
625.360	1	31
625.529	1	30
625.699	1	24
625.869	1	27
626.038	1	21
626.208	1	22
626.377	1	30
626.547	1	35
626.717	1	29
626.886	1	33
627.056	1	24
627.226	1	22
627.395	1	27
627.565	1	25
627.735	1	24
627.904	1	40
628.074	1	22
628.243	1	26
628.413	1	42
628.583	1	18
628.752	1	22
628.922	1	22
629.091	1	18
629.261	1	21
629.431	1	25
629.600	1	21
629.770	1	23
629.940	1	18
630.109	1	20
630.279	1	30
630.448	1	27
630.618	1	32
630.788	1	19
630.957	1	32
631.127	1	34
631.297	1	28
631.466	1	18
631.636	1	27
631.805	1	16
631.975	1	23
632.145	1	25
632.314	1	16
632.484	1	20
632.653	1	26
632.823	1	23
632.993	1	25
633.162	1	25
633.332	1	24
633.501	1	18
633.671	1	21
633.841	1	18
634.010	1	19
634.180	1	12
634.349	1	30
634.519	1	24
634.689	1	25
634.858	1	29
635.028	1	28
635.197	1	25
635.367	1	28
635.537	1	9
635.706	1	19
635.876	1	29
636.045	1	14
636.215	1	20
636.384	1	26
636.554	1	22
636.724	1	17
636.893	1	27
637.063	1	35
637.232	1	20
637.402	1	27
637.572	1	27
637.741	1	20
637.911	1	8
638.080	1	17
638.250	1	31
638.419	1	21
638.589	1	30
638.759	1	27
638.928	1	34
639.098	1	26
639.267	1	10
639.437	1	22
639.606	1	11
639.776	1	16
639.946	1	25
640.115	1	19
640.285	1	26
640.454	1	26
640.624	1	27
640.793	1	16
640.963	1	14
641.132	1	25
641.302	1	18
641.472	1	23
641.641	1	10
641.811	1	22
641.980	1	12
642.150	1	18
642.319	1	21
642.489	1	20
642.659	1	11
642.828	1	18
642.998	1	17
643.167	1	11
643.337	1	22
643.506	1	25
643.676	1	11
643.845	1	19
644.015	1	20
644.184	1	19
644.354	1	16
644.524	1	20
644.693	1	24
644.863	1	29
645.032	1	18
645.202	1	21
645.371	1	14
645.541	1	27
645.710	1	15
645.880	1	25
646.049	1	27
646.219	1	25
646.388	1	16
646.558	1	29
646.728	1	22
646.897	1	26
647.067	1	24
647.236	1	12
647.406	1	26
647.575	1	21
647.745	1	19
647.914	1	13
648.084	1	22
648.253	1	16
648.423	1	28
648.592	1	17
648.762	1	12
648.931	1	25
649.101	1	18
649.270	1	18
649.440	1	21
649.610	1	25
649.779	1	30
649.949	1	14
650.118	1	10
650.288	1	21
650.457	1	13
650.627	1	28
650.796	1	11
650.966	1	17
651.135	1	18
651.305	1	27
651.474	1	22
651.644	1	3
651.813	1	15
651.983	1	34
652.152	1	18
652.322	1	8
652.491	1	19
652.661	1	23
652.830	1	21
653.000	1	13
653.169	1	17
653.339	1	29
653.508	1	18
653.678	1	17
653.847	1	20
654.017	1	28
654.186	1	16
654.356	1	25
654.525	1	22
654.695	1	12
654.864	1	12
655.034	1	11
655.203	1	16
655.373	1	9
655.542	1	12
655.712	1	20
655.881	1	17
656.051	1	12
656.220	1	20
656.390	1	21
656.559	1	29
656.729	1	15
656.898	1	19
657.068	1	22
657.237	1	11
657.406	1	11
657.576	1	12
657.745	1	16
657.915	1	10
658.084	1	23
658.254	1	22
658.423	1	28
658.593	1	15
658.762	1	29
658.932	1	5
659.101	1	12
659.271	1	17
659.440	1	15
659.610	1	18
659.779	1	22
659.949	1	23
660.118	1	19
660.288	1	7
660.457	1	26
660.626	1	18
660.796	1	0
660.965	1	6
661.135	1	26
661.304	1	18
661.474	1	19
661.643	1	13
661.813	1	24
661.982	1	17
662.152	1	21
662.321	1	3
662.491	1	12
662.660	1	16
662.829	1	17
662.999	1	32
663.168	1	13
663.338	1	21
663.507	1	12
663.677	1	1
663.846	1	16
664.016	1	20
664.185	1	14
664.354	1	13
664.524	1	8
664.693	1	23
664.863	1	12
665.032	1	12
665.202	1	3
665.371	1	14
665.541	1	8
665.710	1	15
665.879	1	15
666.049	1	15
666.218	1	10
666.388	1	27
666.557	1	18
666.727	1	17
666.896	1	17
667.065	1	15
667.235	1	12
667.404	1	13
667.574	1	17
667.743	1	25
667.913	1	10
668.082	1	17
668.251	1	32
668.421	1	18
668.590	1	19
668.760	1	16
668.929	1	15
669.099	1	16
669.268	1	19
669.437	1	18
669.607	1	13
669.776	1	11
669.946	1	14
670.115	1	14
670.285	1	21
670.454	1	19
670.623	1	16
670.793	1	23
670.962	1	19
671.132	1	21
671.301	1	17
671.470	1	21
671.640	1	17
671.809	1	11
671.979	1	24
672.148	1	15
672.317	1	25
672.487	1	14
672.656	1	18
672.826	1	10
672.995	1	11
673.164	1	33
673.334	1	18
673.503	1	20
673.673	1	19
673.842	1	6
674.011	1	13
674.181	1	18
674.350	1	15
674.520	1	21
674.689	1	18
674.858	1	12
675.028	1	27
675.197	1	24
675.367	1	15
675.536	1	20
675.705	1	11
675.875	1	9
676.044	1	8
676.214	1	19
676.383	1	23
676.552	1	17
676.722	1	8
676.891	1	5
677.060	1	11
677.230	1	26
677.399	1	24
677.569	1	24
677.738	1	18
677.907	1	21
678.077	1	34
678.246	1	7
678.416	1	10
678.585	1	14
678.754	1	20
678.924	1	20
679.093	1	18
679.262	1	25
679.432	1	23
679.601	1	29
679.771	1	11
679.940	1	22
680.109	1	22
680.279	1	26
680.448	1	15
680.617	1	8
680.787	1	10
680.956	1	12
681.125	1	20
681.295	1	24
681.464	1	21
681.634	1	15
681.803	1	18
681.972	1	16
682.142	1	15
682.311	1	16
682.480	1	18
682.650	1	17
682.819	1	22
682.988	1	23
683.158	1	12
683.327	1	18
683.496	1	11
683.666	1	23
683.835	1	13
684.004	1	17
684.174	1	19
684.343	1	5
684.512	1	24
684.682	1	15
684.851	1	18
685.021	1	22
685.190	1	36
685.359	1	8
685.529	1	21
685.698	1	29
685.867	1	20
686.037	1	11
686.206	1	33
686.375	1	26
686.545	1	16
686.714	1	25
686.883	1	13
687.053	1	1
687.222	1	19
687.391	1	20
687.561	1	24
687.730	1	10
687.899	1	24
688.069	1	19
688.238	1	26
688.407	1	24
688.577	1	17
688.746	1	24
