340.368	1	2
340.539	1	0
340.710	1	6
340.881	1	2
341.052	1	10
341.223	1	-9
341.394	1	-6
341.565	1	6
341.737	1	2
341.908	1	5
342.079	1	3
342.250	1	6
342.421	1	-3
342.592	1	1
342.763	1	2
342.934	1	2
343.105	1	4
343.276	1	6
343.447	1	3
343.618	1	1
343.789	1	9
343.960	1	6
344.131	1	10
344.302	1	8
344.473	1	8
344.644	1	-6
344.815	1	8
344.986	1	-4
345.157	1	7
345.328	1	4
345.499	1	2
345.670	1	2
345.841	1	1
346.012	1	7
346.183	1	-2
346.354	1	6
346.526	1	8
346.697	1	4
346.868	1	10
347.039	1	-1
347.210	1	-13
347.381	1	3
347.552	1	8
347.723	1	-1
347.894	1	-4
348.065	1	-4
348.236	1	6
348.407	1	8
348.578	1	-2
348.749	1	2
348.920	1	1
349.091	1	6
349.262	1	2
349.433	1	7
349.604	1	1
349.775	1	17
349.946	1	-1
350.117	1	12
350.288	1	4
350.459	1	-7
350.630	1	5
350.801	1	9
350.972	1	1
351.143	1	-4
351.314	1	8
351.485	1	-10
351.656	1	10
351.827	1	-3
351.998	1	12
352.169	1	-1
352.340	1	7
352.511	1	4
352.682	1	3
352.853	1	8
353.024	1	7
353.195	1	11
353.366	1	-11
353.537	1	13
353.708	1	2
353.879	1	16
354.050	1	4
354.221	1	5
354.392	1	4
354.563	1	12
354.734	1	-11
354.905	1	13
355.076	1	6
355.247	1	10
355.418	1	13
355.589	1	11
355.760	1	1
355.931	1	0
356.102	1	3
356.273	1	9
356.444	1	4
356.615	1	9
356.785	1	3
356.956	1	19
357.127	1	11
357.298	1	10
357.469	1	12
357.640	1	14
357.811	1	11
357.982	1	16
358.153	1	7
358.324	1	11
358.495	1	4
358.666	1	11
358.837	1	7
359.008	1	9
359.179	1	11
359.350	1	16
359.521	1	15
359.692	1	14
359.863	1	16
360.034	1	7
360.205	1	7
360.376	1	22
360.547	1	9
360.718	1	20
360.889	1	25
361.060	1	7
361.231	1	12
361.401	1	15
361.572	1	18
361.743	1	20
361.914	1	19
362.085	1	22
362.256	1	14
362.427	1	21
362.598	1	12
362.769	1	27
362.940	1	16
363.111	1	25
363.282	1	29
363.453	1	27
363.624	1	41
363.795	1	20
363.966	1	32
364.137	1	42
364.308	1	28
364.478	1	44
364.649	1	49
364.820	1	33
364.991	1	49
365.162	1	52
365.333	1	46
365.504	1	45
365.675	1	42
365.846	1	60
366.017	1	57
366.188	1	50
366.359	1	48
366.530	1	57
366.701	1	60
366.871	1	55
367.042	1	73
367.213	1	62
367.384	1	61
367.555	1	79
367.726	1	76
367.897	1	84
368.068	1	70
368.239	1	74
368.410	1	76
368.581	1	64
368.752	1	67
368.923	1	78
369.093	1	69
369.264	1	73
369.435	1	70
369.606	1	78
369.777	1	60
369.948	1	58
370.119	1	52
370.290	1	64
370.461	1	70
370.632	1	58
370.803	1	64
370.973	1	63
371.144	1	67
371.315	1	54
371.486	1	60
371.657	1	63
371.828	1	51
371.999	1	55
372.170	1	54
372.341	1	47
372.512	1	42
372.682	1	50
372.853	1	45
373.024	1	61
373.195	1	45
373.366	1	34
373.537	1	44
373.708	1	47
373.879	1	49
374.050	1	50
374.220	1	43
374.391	1	26
374.562	1	39
374.733	1	45
374.904	1	33
375.075	1	25
375.246	1	36
375.417	1	25
375.588	1	31
375.758	1	41
375.929	1	26
376.100	1	30
376.271	1	38
376.442	1	35
376.613	1	45
376.784	1	34
376.955	1	26
377.125	1	26
377.296	1	32
377.467	1	37
377.638	1	20
377.809	1	32
377.980	1	28
378.151	1	22
378.321	1	32
378.492	1	16
378.663	1	24
378.834	1	31
379.005	1	12
379.176	1	16
379.347	1	39
379.518	1	27
379.688	1	17
379.859	1	16
380.030	1	24
380.201	1	15
380.372	1	12
380.543	1	20
380.714	1	22
380.884	1	8
381.055	1	17
381.226	1	19
381.397	1	25
381.568	1	13
381.739	1	10
381.910	1	16
382.080	1	15
382.251	1	25
382.422	1	15
382.593	1	14
382.764	1	16
382.935	1	15
383.105	1	12
383.276	1	19
383.447	1	11
383.618	1	16
383.789	1	16
383.960	1	13
384.130	1	15
384.301	1	21
384.472	1	9
384.643	1	0
384.814	1	6
384.985	1	20
385.156	1	13
385.326	1	14
385.497	1	12
385.668	1	11
385.839	1	11
386.010	1	21
386.180	1	18
386.351	1	9
386.522	1	20
386.693	1	17
386.864	1	10
387.035	1	17
387.205	1	8
387.376	1	5
387.547	1	24
387.718	1	11
387.889	1	13
388.060	1	21
388.230	1	13
388.401	1	15
388.572	1	3
388.743	1	11
388.914	1	11
389.084	1	9
389.255	1	13
389.426	1	4
389.597	1	1
389.768	1	15
389.939	1	9
390.109	1	-1
390.280	1	16
390.451	1	4
390.622	1	8
390.793	1	2
390.963	1	11
391.134	1	-7
391.305	1	10
391.476	1	11
391.647	1	12
391.817	1	11
391.988	1	15
392.159	1	10
392.330	1	-4
392.501	1	11
392.671	1	-3
392.842	1	0
393.013	1	4
393.184	1	14
393.355	1	8
393.525	1	2
393.696	1	5
393.867	1	11
394.038	1	9
394.208	1	5
394.379	1	14
394.550	1	6
394.721	1	3
394.892	1	8
395.062	1	9
395.233	1	-7
395.404	1	7
395.575	1	8
395.746	1	2
395.916	1	12
396.087	1	19
396.258	1	9
396.429	1	4
396.599	1	0
396.770	1	-2
396.941	1	7
397.112	1	4
397.283	1	10
397.453	1	9
397.624	1	-1
397.795	1	8
397.966	1	5
398.136	1	6
398.307	1	-1
398.478	1	12
398.649	1	12
398.819	1	-1
398.990	1	-4
399.161	1	9
399.332	1	1
399.503	1	7
399.673	1	4
399.844	1	8
400.015	1	-4
400.186	1	-8
400.356	1	9
400.527	1	6
400.698	1	-1
400.869	1	-2
401.039	1	-9
401.210	1	12
401.381	1	9
401.552	1	-2
401.722	1	3
401.893	1	2
402.064	1	2
402.235	1	7
402.405	1	4
402.576	1	10
402.747	1	2
402.918	1	7
403.088	1	-3
403.259	1	7
403.430	1	-1
403.601	1	9
403.771	1	5
403.942	1	2
404.113	1	-1
404.284	1	15
404.454	1	-6
404.625	1	2
404.796	1	0
404.967	1	4
405.137	1	4
405.308	1	6
405.479	1	5
405.649	1	13
405.820	1	2
405.991	1	-1
406.162	1	10
406.332	1	0
406.503	1	-4
406.674	1	6
406.845	1	21
407.015	1	13
407.186	1	-9
407.357	1	-2
407.527	1	3
407.698	1	-3
407.869	1	5
408.040	1	12
408.210	1	0
408.381	1	10
408.552	1	11
408.722	1	-4
408.893	1	5
409.064	1	-6
409.235	1	0
409.405	1	-2
409.576	1	0
409.747	1	12
409.917	1	-2
410.088	1	5
410.259	1	-3
410.430	1	6
410.600	1	9
410.771	1	3
410.942	1	-2
411.112	1	9
411.283	1	-8
411.454	1	10
411.625	1	10
411.795	1	8
411.966	1	9
412.137	1	-5
412.307	1	4
412.478	1	-6
412.649	1	3
412.819	1	8
412.990	1	5
413.161	1	0
413.332	1	16
413.502	1	3
413.673	1	7
413.844	1	-1
414.014	1	5
414.185	1	-3
414.356	1	-4
414.526	1	-9
414.697	1	0
414.868	1	3
415.038	1	5
415.209	1	5
415.380	1	4
415.550	1	17
415.721	1	-5
415.892	1	3
416.063	1	1
416.233	1	5
416.404	1	-6
416.575	1	-2
416.745	1	1
416.916	1	-1
417.087	1	9
417.257	1	-1
417.428	1	9
417.599	1	3
417.769	1	3
417.940	1	-5
418.111	1	17
418.281	1	14
418.452	1	3
418.623	1	-2
418.793	1	14
418.964	1	-2
419.135	1	0
419.305	1	7
419.476	1	9
419.647	1	-5
419.817	1	5
419.988	1	7
420.159	1	4
420.329	1	5
420.500	1	14
420.671	1	-7
420.841	1	8
421.012	1	6
421.183	1	12
421.353	1	0
421.524	1	0
421.695	1	9
421.865	1	3
422.036	1	3
422.206	1	4
422.377	1	3
422.548	1	5
422.718	1	6
422.889	1	6
423.060	1	-2
423.230	1	5
423.401	1	13
423.572	1	14
423.742	1	5
423.913	1	-3
424.084	1	3
424.254	1	-1
424.425	1	-4
424.595	1	17
424.766	1	-7
424.937	1	16
425.107	1	3
425.278	1	0
425.449	1	-1
425.619	1	2
425.790	1	7
425.961	1	5
426.131	1	-9
426.302	1	6
426.472	1	-3
426.643	1	5
426.814	1	2
426.984	1	-8
427.155	1	15
427.326	1	-1
427.496	1	-1
427.667	1	-7
427.837	1	-1
428.008	1	5
428.179	1	4
428.349	1	-2
428.520	1	7
428.691	1	10
428.861	1	1
429.032	1	4
429.202	1	8
429.373	1	10
429.544	1	5
429.714	1	0
429.885	1	3
430.055	1	-4
430.226	1	-1
430.397	1	-5
430.567	1	-5
430.738	1	-5
430.909	1	-5
431.079	1	11
431.250	1	9
431.420	1	12
431.591	1	4
431.762	1	5
431.932	1	4
432.103	1	2
432.273	1	0
432.444	1	5
432.615	1	18
432.785	1	3
432.956	1	-5
433.126	1	15
433.297	1	8
433.468	1	-4
433.638	1	5
433.809	1	2
433.979	1	2
434.150	1	8
434.320	1	9
434.491	1	-2
434.662	1	-2
434.832	1	-10
435.003	1	-7
435.173	1	0
435.344	1	-3
435.515	1	-8
435.685	1	2
435.856	1	0
436.026	1	13
436.197	1	6
436.368	1	3
436.538	1	-5
436.709	1	-3
436.879	1	-4
437.050	1	-1
437.220	1	13
437.391	1	5
437.562	1	15
437.732	1	9
437.903	1	1
438.073	1	7
438.244	1	5
438.414	1	-2
438.585	1	-10
438.756	1	7
438.926	1	-3
439.097	1	6
439.267	1	-4
439.438	1	12
439.608	1	9
439.779	1	-1
439.949	1	2
440.120	1	-3
440.291	1	1
440.461	1	5
440.632	1	-4
440.802	1	8
440.973	1	9
441.143	1	6
441.314	1	-1
441.485	1	5
441.655	1	-10
441.826	1	5
441.996	1	-5
442.167	1	6
442.337	1	-2
442.508	1	1
442.678	1	1
442.849	1	22
443.019	1	9
443.190	1	11
443.361	1	3
443.531	1	0
443.702	1	5
443.872	1	0
444.043	1	3
444.213	1	12
444.384	1	3
444.554	1	9
444.725	1	6
444.895	1	9
445.066	1	-1
445.237	1	3
445.407	1	-3
445.578	1	11
445.748	1	0
445.919	1	-4
446.089	1	5
446.260	1	-3
446.430	1	10
446.601	1	7
446.771	1	-4
446.942	1	-9
447.112	1	4
447.283	1	-2
447.453	1	7
447.624	1	-5
447.794	1	7
447.965	1	-1
448.135	1	4
448.306	1	5
448.477	1	-4
448.647	1	-7
448.818	1	4
448.988	1	-9
449.159	1	11
449.329	1	1
449.500	1	-4
449.670	1	-6
449.841	1	-7
450.011	1	7
450.182	1	4
450.352	1	7
450.523	1	-9
450.693	1	0
450.864	1	0
451.034	1	12
451.205	1	-3
451.375	1	3
451.546	1	2
451.716	1	1
451.887	1	6
452.057	1	6
452.228	1	13
452.398	1	5
452.569	1	11
452.739	1	6
452.910	1	-4
453.080	1	7
453.251	1	1
453.421	1	3
453.592	1	10
453.762	1	4
453.933	1	0
454.103	1	0
454.274	1	6
454.444	1	-1
454.615	1	-1
454.785	1	7
454.956	1	13
455.126	1	3
455.297	1	8
455.467	1	0
455.638	1	-3
455.808	1	6
455.979	1	0
456.149	1	-6
456.320	1	-1
456.490	1	-2
456.661	1	9
456.831	1	-4
457.001	1	3
457.172	1	-6
457.342	1	3
457.513	1	0
457.683	1	3
457.854	1	0
458.024	1	1
458.195	1	-3
458.365	1	3
458.536	1	6
458.706	1	19
458.877	1	1
459.047	1	1
459.218	1	-7
459.388	1	0
459.559	1	8
459.729	1	-4
459.899	1	5
460.070	1	-5
460.240	1	3
460.411	1	1
460.581	1	3
460.752	1	11
460.922	1	-10
461.093	1	2
461.263	1	3
461.434	1	0
461.604	1	7
461.775	1	-10
461.945	1	-3
462.115	1	7
462.286	1	6
462.456	1	-1
462.627	1	2
462.797	1	-1
462.968	1	10
463.138	1	5
463.309	1	-3
463.479	1	1
463.649	1	6
463.820	1	1
463.990	1	2
464.161	1	-9
464.331	1	0
464.502	1	8
464.672	1	15
464.843	1	5
465.013	1	1
465.183	1	-2
465.354	1	-3
465.524	1	8
465.695	1	6
465.865	1	1
466.036	1	-2
466.206	1	6
466.376	1	2
466.547	1	6
466.717	1	12
466.888	1	-1
467.058	1	6
467.229	1	9
467.399	1	10
467.569	1	12
467.740	1	-4
467.910	1	8
468.081	1	-4
468.251	1	8
468.422	1	5
468.592	1	8
468.762	1	0
468.933	1	-1
469.103	1	15
469.274	1	12
469.444	1	7
469.614	1	-5
469.785	1	-3
469.955	1	3
470.126	1	-1
470.296	1	-6
470.467	1	-3
470.637	1	-3
470.807	1	16
470.978	1	-7
471.148	1	9
471.319	1	9
471.489	1	6
471.659	1	-2
471.830	1	1
472.000	1	-6
472.171	1	-1
472.341	1	-1
472.511	1	4
472.682	1	-2
472.852	1	2
473.023	1	-1
473.193	1	8
473.363	1	10
473.534	1	9
473.704	1	1
473.875	1	11
474.045	1	11
474.215	1	3
474.386	1	-5
474.556	1	12
474.727	1	-2
474.897	1	-1
475.067	1	0
475.238	1	9
475.408	1	6
475.578	1	-1
475.749	1	7
475.919	1	-1
476.090	1	12
476.260	1	-3
476.430	1	1
476.601	1	-3
476.771	1	3
476.942	1	1
477.112	1	-1
477.282	1	0
477.453	1	3
477.623	1	5
477.793	1	-3
477.964	1	3
478.134	1	-1
478.305	1	-2
478.475	1	7
478.645	1	-6
478.816	1	-3
478.986	1	9
479.156	1	2
479.327	1	4
479.497	1	1
479.667	1	0
479.838	1	8
480.008	1	0
480.179	1	3
480.349	1	-4
480.519	1	3
480.690	1	8
480.860	1	10
481.030	1	8
481.201	1	3
481.371	1	2
481.541	1	-2
481.712	1	6
481.882	1	5
482.053	1	7
482.223	1	6
482.393	1	-1
482.564	1	1
482.734	1	21
482.904	1	5
483.075	1	-2
483.245	1	1
483.415	1	8
483.586	1	5
483.756	1	9
483.926	1	-2
484.097	1	12
484.267	1	-4
484.437	1	6
484.608	1	0
484.778	1	5
484.948	1	10
485.119	1	6
485.289	1	-1
485.459	1	3
485.630	1	1
485.800	1	-20
485.970	1	1
486.141	1	4
486.311	1	-11
486.481	1	2
486.652	1	-1
486.822	1	10
486.992	1	6
487.163	1	4
487.333	1	-2
487.503	1	5
487.674	1	7
487.844	1	3
488.014	1	-1
488.185	1	5
488.355	1	0
488.525	1	14
488.696	1	4
488.866	1	-3
489.036	1	11
489.207	1	4
489.377	1	6
489.547	1	1
489.718	1	9
489.888	1	7
490.058	1	4
490.228	1	7
490.399	1	14
490.569	1	12
490.739	1	5
490.910	1	1
491.080	1	-1
491.250	1	6
491.421	1	7
491.591	1	3
491.761	1	24
491.932	1	5
492.102	1	6
492.272	1	8
492.442	1	-2
492.613	1	2
492.783	1	9
492.953	1	10
493.124	1	-6
493.294	1	10
493.464	1	13
493.635	1	5
493.805	1	13
493.975	1	17
494.145	1	11
494.316	1	5
494.486	1	2
494.656	1	8
494.827	1	4
494.997	1	8
495.167	1	11
495.337	1	4
495.508	1	1
495.678	1	11
495.848	1	3
496.019	1	11
496.189	1	18
496.359	1	5
496.529	1	1
496.700	1	24
496.870	1	1
497.040	1	3
497.211	1	4
497.381	1	10
497.551	1	9
497.721	1	1
497.892	1	12
498.062	1	5
498.232	1	8
498.403	1	3
498.573	1	12
498.743	1	5
498.913	1	6
499.084	1	14
499.254	1	3
499.424	1	9
499.594	1	10
499.765	1	6
499.935	1	7
500.105	1	6
500.275	1	4
500.446	1	4
500.616	1	4
500.786	1	15
500.956	1	23
501.127	1	10
501.297	1	0
501.467	1	0
501.638	1	1
501.808	1	4
501.978	1	12
502.148	1	5
502.319	1	6
502.489	1	9
502.659	1	10
502.829	1	-1
503.000	1	16
503.170	1	4
503.340	1	20
503.510	1	3
503.681	1	6
503.851	1	-8
504.021	1	10
504.191	1	5
504.362	1	13
504.532	1	9
504.702	1	9
504.872	1	3
505.042	1	10
505.213	1	4
505.383	1	12
505.553	1	18
505.723	1	5
505.894	1	-1
506.064	1	4
506.234	1	8
506.404	1	21
506.575	1	-1
506.745	1	2
506.915	1	7
507.085	1	14
507.256	1	13
507.426	1	16
507.596	1	12
507.766	1	21
507.936	1	9
508.107	1	8
508.277	1	10
508.447	1	-7
508.617	1	8
508.788	1	2
508.958	1	15
509.128	1	9
509.298	1	9
509.468	1	18
509.639	1	5
509.809	1	9
509.979	1	15
510.149	1	8
510.319	1	26
510.490	1	17
510.660	1	14
510.830	1	2
511.000	1	16
511.171	1	4
511.341	1	4
511.511	1	-9
511.681	1	14
511.851	1	11
512.022	1	14
512.192	1	8
512.362	1	18
512.532	1	14
512.702	1	6
512.873	1	3
513.043	1	7
513.213	1	12
513.383	1	5
513.553	1	5
513.724	1	8
513.894	1	9
514.064	1	1
514.234	1	17
514.404	1	-4
514.575	1	18
514.745	1	9
514.915	1	1
515.085	1	3
515.255	1	12
515.425	1	13
515.596	1	10
515.766	1	5
515.936	1	13
516.106	1	12
516.276	1	4
516.447	1	12
516.617	1	5
516.787	1	9
516.957	1	8
517.127	1	5
517.297	1	5
517.468	1	17
517.638	1	6
517.808	1	14
517.978	1	20
518.148	1	19
518.319	1	8
518.489	1	11
518.659	1	11
518.829	1	19
518.999	1	4
519.169	1	8
519.340	1	8
519.510	1	15
519.680	1	-2
519.850	1	12
520.020	1	10
520.190	1	20
520.361	1	14
520.531	1	7
520.701	1	24
520.871	1	11
521.041	1	17
521.211	1	4
521.382	1	14
521.552	1	-3
521.722	1	12
521.892	1	8
522.062	1	13
522.232	1	20
522.402	1	10
522.573	1	18
522.743	1	6
522.913	1	12
523.083	1	15
523.253	1	1
523.423	1	3
523.593	1	6
523.764	1	16
523.934	1	10
524.104	1	1
524.274	1	16
524.444	1	3
524.614	1	21
524.784	1	13
524.955	1	4
525.125	1	9
525.295	1	10
525.465	1	21
525.635	1	4
525.805	1	11
525.975	1	15
526.146	1	12
526.316	1	17
526.486	1	11
526.656	1	18
526.826	1	16
526.996	1	2
527.166	1	22
527.337	1	8
527.507	1	10
527.677	1	20
527.847	1	16
528.017	1	15
528.187	1	17
528.357	1	18
528.527	1	15
528.698	1	13
528.868	1	14
529.038	1	11
529.208	1	16
529.378	1	12
529.548	1	5
529.718	1	22
529.888	1	17
530.058	1	10
530.229	1	6
530.399	1	19
530.569	1	9
530.739	1	10
530.909	1	26
531.079	1	8
531.249	1	14
531.419	1	17
531.589	1	14
531.760	1	22
531.930	1	5
532.100	1	22
532.270	1	10
532.440	1	-7
532.610	1	4
532.780	1	5
532.950	1	11
533.120	1	10
533.290	1	11
533.461	1	8
533.631	1	20
533.801	1	28
533.971	1	9
534.141	1	18
534.311	1	1
534.481	1	6
534.651	1	20
534.821	1	13
534.991	1	8
535.162	1	6
535.332	1	15
535.502	1	12
535.672	1	13
535.842	1	13
536.012	1	1
536.182	1	17
536.352	1	6
536.522	1	20
536.692	1	-4
536.862	1	7
537.032	1	5
537.203	1	9
537.373	1	12
537.543	1	10
537.713	1	16
537.883	1	-8
538.053	1	7
538.223	1	-4
538.393	1	23
538.563	1	17
538.733	1	10
538.903	1	6
539.073	1	14
539.243	1	10
539.413	1	15
539.584	1	16
539.754	1	14
539.924	1	12
540.094	1	16
540.264	1	7
540.434	1	9
540.604	1	14
540.774	1	6
540.944	1	10
541.114	1	-1
541.284	1	10
541.454	1	19
541.624	1	8
541.794	1	20
541.964	1	5
542.134	1	10
542.305	1	9
542.475	1	13
542.645	1	18
542.815	1	4
542.985	1	13
543.155	1	14
543.325	1	1
543.495	1	20
543.665	1	15
543.835	1	14
544.005	1	4
544.175	1	22
544.345	1	8
544.515	1	8
544.685	1	14
544.855	1	6
545.025	1	13
545.195	1	7
545.365	1	14
545.535	1	15
545.705	1	15
545.875	1	11
546.045	1	7
546.216	1	12
546.386	1	12
546.556	1	10
546.726	1	20
546.896	1	15
547.066	1	16
547.236	1	6
547.406	1	16
547.576	1	15
547.746	1	4
547.916	1	8
548.086	1	11
548.256	1	11
548.426	1	13
548.596	1	13
548.766	1	3
548.936	1	6
549.106	1	3
549.276	1	8
549.446	1	1
549.616	1	9
549.786	1	13
549.956	1	1
550.126	1	11
550.296	1	23
550.466	1	16
550.636	1	16
550.806	1	11
550.976	1	25
551.146	1	14
551.316	1	9
551.486	1	6
551.656	1	-13
551.826	1	6
551.996	1	6
552.166	1	12
552.336	1	20
552.506	1	14
552.676	1	15
552.846	1	10
553.016	1	14
553.186	1	5
553.356	1	16
553.526	1	24
553.696	1	15
553.866	1	19
554.036	1	12
554.206	1	17
554.376	1	-1
554.546	1	21
554.716	1	11
554.886	1	1
555.056	1	14
555.226	1	9
555.396	1	6
555.566	1	4
555.736	1	13
555.906	1	12
556.076	1	4
556.246	1	8
556.416	1	17
556.586	1	7
556.756	1	10
556.926	1	14
557.096	1	15
557.266	1	4
557.436	1	12
557.606	1	5
557.776	1	7
557.946	1	6
558.116	1	11
558.286	1	-3
558.456	1	12
558.626	1	11
558.796	1	20
558.966	1	11
559.136	1	10
559.306	1	18
559.476	1	16
559.646	1	9
559.816	1	4
559.986	1	13
560.155	1	6
560.325	1	10
560.495	1	22
560.665	1	15
560.835	1	6
561.005	1	10
561.175	1	4
561.345	1	7
561.515	1	9
561.685	1	15
561.855	1	13
562.025	1	10
562.195	1	12
562.365	1	11
562.535	1	17
562.705	1	4
562.875	1	12
563.045	1	5
563.215	1	13
563.385	1	8
563.555	1	9
563.725	1	2
563.895	1	14
564.064	1	10
564.234	1	19
564.404	1	11
564.574	1	0
564.744	1	6
564.914	1	9
565.084	1	5
565.254	1	12
565.424	1	14
565.594	1	8
565.764	1	11
565.934	1	12
566.104	1	13
566.274	1	18
566.444	1	20
566.614	1	1
566.783	1	11
566.953	1	17
567.123	1	9
567.293	1	6
567.463	1	10
567.633	1	11
567.803	1	14
567.973	1	20
568.143	1	6
568.313	1	13
568.483	1	13
568.653	1	20
568.823	1	5
568.993	1	7
569.162	1	14
569.332	1	16
569.502	1	19
569.672	1	17
569.842	1	5
570.012	1	11
570.182	1	4
570.352	1	8
570.522	1	3
570.692	1	-4
570.862	1	4
571.031	1	5
571.201	1	9
571.371	1	10
571.541	1	10
571.711	1	10
571.881	1	6
572.051	1	1
572.221	1	0
572.391	1	9
572.561	1	6
572.731	1	0
572.900	1	3
573.070	1	-2
573.240	1	15
573.410	1	20
573.580	1	16
573.750	1	11
573.920	1	10
574.090	1	11
574.260	1	3
574.430	1	2
574.599	1	9
574.769	1	6
574.939	1	12
575.109	1	7
575.279	1	11
575.449	1	15
575.619	1	5
575.789	1	17
575.959	1	6
576.128	1	-4
576.298	1	12
576.468	1	9
576.638	1	18
576.808	1	17
576.978	1	2
577.148	1	16
577.318	1	18
577.487	1	15
577.657	1	9
577.827	1	-6
577.997	1	16
578.167	1	7
578.337	1	19
578.507	1	16
578.677	1	11
578.846	1	12
579.016	1	18
579.186	1	4
579.356	1	3
579.526	1	1
579.696	1	6
579.866	1	-2
580.036	1	8
580.205	1	4
580.375	1	11
580.545	1	15
580.715	1	8
580.885	1	5
581.055	1	9
581.225	1	3
581.394	1	8
581.564	1	9
581.734	1	7
581.904	1	21
582.074	1	4
582.244	1	13
582.414	1	-1
582.583	1	2
582.753	1	3
582.923	1	12
583.093	1	6
583.263	1	3
583.433	1	8
583.603	1	16
583.772	1	4
583.942	1	8
584.112	1	-4
584.282	1	11
584.452	1	6
584.622	1	2
584.791	1	16
584.961	1	5
585.131	1	4
585.301	1	2
585.471	1	16
585.641	1	4
585.811	1	13
585.980	1	7
586.150	1	-2
586.320	1	1
586.490	1	7
586.660	1	5
586.830	1	12
586.999	1	20
587.169	1	7
587.339	1	2
587.509	1	6
587.679	1	11
587.849	1	8
588.018	1	27
588.188	1	14
588.358	1	10
588.528	1	8
588.698	1	10
588.867	1	1
589.037	1	6
589.207	1	12
589.377	1	7
589.547	1	0
589.717	1	3
589.886	1	0
590.056	1	4
590.226	1	11
590.396	1	2
590.566	1	15
590.735	1	13
590.905	1	0
591.075	1	-2
591.245	1	7
591.415	1	8
591.585	1	-4
591.754	1	26
591.924	1	9
592.094	1	3
592.264	1	9
592.434	1	3
592.603	1	9
592.773	1	0
592.943	1	15
593.113	1	5
593.283	1	8
593.452	1	2
593.622	1	13
593.792	1	8
593.962	1	4
594.132	1	-3
594.301	1	7
594.471	1	11
594.641	1	3
594.811	1	4
594.981	1	2
595.150	1	7
595.320	1	10
595.490	1	12
595.660	1	21
595.829	1	4
595.999	1	10
596.169	1	20
596.339	1	10
596.509	1	5
596.678	1	9
596.848	1	10
597.018	1	3
597.188	1	2
597.358	1	-2
597.527	1	5
597.697	1	1
597.867	1	8
598.037	1	11
598.206	1	4
598.376	1	-2
598.546	1	-7
598.716	1	18
598.885	1	15
599.055	1	11
599.225	1	13
599.395	1	5
599.565	1	-2
599.734	1	11
599.904	1	13
600.074	1	6
600.244	1	8
600.413	1	4
600.583	1	24
600.753	1	10
600.923	1	15
601.092	1	9
601.262	1	6
601.432	1	5
601.602	1	9
601.771	1	4
601.941	1	15
602.111	1	-3
602.281	1	0
602.451	1	0
602.620	1	-1
602.790	1	6
602.960	1	3
603.130	1	5
603.299	1	10
603.469	1	15
603.639	1	8
603.809	1	-1
603.978	1	4
604.148	1	7
604.318	1	15
604.487	1	-4
604.657	1	11
604.827	1	10
604.997	1	14
605.166	1	12
605.336	1	-4
605.506	1	4
605.676	1	11
605.845	1	15
606.015	1	1
606.185	1	3
606.355	1	11
606.524	1	14
606.694	1	8
606.864	1	-6
607.034	1	6
607.203	1	10
607.373	1	11
607.543	1	-4
607.712	1	2
607.882	1	6
608.052	1	6
608.222	1	3
608.391	1	23
608.561	1	3
608.731	1	-4
608.901	1	3
609.070	1	10
609.240	1	6
609.410	1	12
609.579	1	9
609.749	1	6
609.919	1	4
610.089	1	-3
610.258	1	9
610.428	1	1
610.598	1	11
610.767	1	7
610.937	1	-2
611.107	1	-5
611.277	1	12
611.446	1	1
611.616	1	8
611.786	1	-2
611.955	1	-1
612.125	1	0
612.295	1	16
612.465	1	8
612.634	1	10
612.804	1	11
612.974	1	8
613.143	1	-4
613.313	1	7
613.483	1	15
613.652	1	4
613.822	1	5
613.992	1	14
614.162	1	-5
614.331	1	11
614.501	1	-4
614.671	1	8
614.840	1	15
615.010	1	-1
615.180	1	8
615.349	1	3
615.519	1	12
615.689	1	12
615.858	1	14
616.028	1	6
616.198	1	4
616.368	1	3
616.537	1	2
616.707	1	14
616.877	1	11
617.046	1	2
617.216	1	25
617.386	1	8
617.555	1	11
617.725	1	-3
617.895	1	16
618.064	1	-3
618.234	1	5
618.404	1	14
618.573	1	5
618.743	1	16
618.913	1	16
619.082	1	11
619.252	1	10
619.422	1	5
619.591	1	0
619.761	1	7
619.931	1	1
620.100	1	-5
620.270	1	11
620.440	1	7
620.609	1	-2
620.779	1	6
620.949	1	6
621.118	1	8
621.288	1	3
621.458	1	2
621.627	1	10
621.797	1	9
621.967	1	4
622.136	1	12
622.306	1	-7
622.476	1	4
622.645	1	5
622.815	1	-4
622.985	1	-1
623.154	1	2
623.324	1	8
623.494	1	15
623.663	1	9
623.833	1	-1
624.002	1	7
624.172	1	14
624.342	1	5
624.511	1	9
624.681	1	3
624.851	1	12
625.020	1	16
625.190	1	5
625.360	1	8
625.529	1	-2
625.699	1	0
625.869	1	-2
626.038	1	9
626.208	1	8
626.377	1	-9
626.547	1	10
626.717	1	12
626.886	1	-6
627.056	1	7
627.226	1	1
627.395	1	5
627.565	1	8
627.735	1	-5
627.904	1	17
628.074	1	7
628.243	1	8
628.413	1	11
628.583	1	6
628.752	1	4
628.922	1	6
629.091	1	-2
629.261	1	2
629.431	1	-1
629.600	1	1
629.770	1	2
629.940	1	3
630.109	1	6
630.279	1	11
630.448	1	10
630.618	1	-1
630.788	1	-2
630.957	1	8
631.127	1	12
631.297	1	12
631.466	1	3
631.636	1	-1
631.805	1	2
631.975	1	12
632.145	1	3
632.314	1	-7
632.484	1	5
632.653	1	1
632.823	1	1
632.993	1	7
633.162	1	-1
633.332	1	6
633.501	1	-6
633.671	1	2
633.841	1	-7
634.010	1	2
634.180	1	-12
634.349	1	3
634.519	1	6
634.689	1	12
634.858	1	-4
635.028	1	0
635.197	1	13
635.367	1	4
635.537	1	-5
635.706	1	13
635.876	1	6
636.045	1	-8
636.215	1	-6
636.384	1	3
636.554	1	20
636.724	1	7
636.893	1	-2
637.063	1	16
637.232	1	7
637.402	1	16
637.572	1	10
637.741	1	3
637.911	1	7
638.080	1	1
638.250	1	11
638.419	1	3
638.589	1	9
638.759	1	6
638.928	1	9
639.098	1	11
639.267	1	7
639.437	1	4
639.606	1	-8
639.776	1	3
639.946	1	0
640.115	1	0
640.285	1	6
640.454	1	5
640.624	1	16
640.793	1	6
640.963	1	-2
641.132	1	5
641.302	1	5
641.472	1	0
641.641	1	-7
641.811	1	-4
641.980	1	-3
642.150	1	7
642.319	1	0
642.489	1	6
642.659	1	-4
642.828	1	10
642.998	1	3
643.167	1	-1
643.337	1	-8
643.506	1	9
643.676	1	1
643.845	1	2
644.015	1	-2
644.184	1	7
644.354	1	-4
644.524	1	8
644.693	1	7
644.863	1	10
645.032	1	-1
645.202	1	11
645.371	1	-1
645.541	1	5
645.710	1	10
645.880	1	3
646.049	1	9
646.219	1	15
646.388	1	0
646.558	1	6
646.728	1	-2
646.897	1	13
647.067	1	10
647.236	1	1
647.406	1	9
647.575	1	1
647.745	1	9
647.914	1	0
648.084	1	2
648.253	1	2
648.423	1	-2
648.592	1	-4
648.762	1	1
648.931	1	8
649.101	1	4
649.270	1	8
649.440	1	-3
649.610	1	6
649.779	1	1
649.949	1	3
650.118	1	2
650.288	1	7
650.457	1	-4
650.627	1	9
650.796	1	-11
650.966	1	4
651.135	1	9
651.305	1	4
651.474	1	5
651.644	1	-3
651.813	1	11
651.983	1	14
652.152	1	1
652.322	1	-6
652.491	1	6
652.661	1	7
652.830	1	14
653.000	1	-1
653.169	1	3
653.339	1	14
653.508	1	3
653.678	1	1
653.847	1	1
654.017	1	11
654.186	1	5
654.356	1	7
654.525	1	5
654.695	1	1
654.864	1	-5
655.034	1	2
655.203	1	-8
655.373	1	0
655.542	1	-2
655.712	1	1
655.881	1	10
656.051	1	0
656.220	1	11
656.390	1	16
656.559	1	4
656.729	1	4
656.898	1	0
657.068	1	0
657.237	1	3
657.406	1	5
657.576	1	3
657.745	1	6
657.915	1	1
658.084	1	8
658.254	1	8
658.423	1	14
658.593	1	-1
658.762	1	7
658.932	1	-3
659.101	1	7
659.271	1	3
659.440	1	-4
659.610	1	12
659.779	1	7
659.949	1	5
660.118	1	1
660.288	1	4
660.457	1	13
660.626	1	8
660.796	1	-2
660.965	1	-3
661.135	1	5
661.304	1	9
661.474	1	-1
661.643	1	6
661.813	1	14
661.982	1	4
662.152	1	3
662.321	1	-1
662.491	1	6
662.660	1	-5
662.829	1	3
662.999	1	5
663.168	1	-3
663.338	1	-3
663.507	1	5
663.677	1	-11
663.846	1	0
664.016	1	-3
664.185	1	7
664.354	1	2
664.524	1	-8
664.693	1	5
664.863	1	-2
665.032	1	2
665.202	1	8
665.371	1	0
665.541	1	-5
665.710	1	11
665.879	1	6
666.049	1	9
666.218	1	0
666.388	1	12
666.557	1	6
666.727	1	-4
666.896	1	7
667.065	1	6
667.235	1	6
667.404	1	3
667.574	1	12
667.743	1	7
667.913	1	5
668.082	1	6
668.251	1	10
668.421	1	-1
668.590	1	4
668.760	1	10
668.929	1	0
669.099	1	1
669.268	1	12
669.437	1	7
669.607	1	6
669.776	1	6
669.946	1	-6
670.115	1	0
670.285	1	1
670.454	1	11
670.623	1	-5
670.793	1	4
670.962	1	4
671.132	1	15
671.301	1	2
671.470	1	6
671.640	1	10
671.809	1	-5
671.979	1	9
672.148	1	8
672.317	1	5
672.487	1	2
672.656	1	10
672.826	1	2
672.995	1	0
673.164	1	25
673.334	1	-3
673.503	1	-2
673.673	1	-7
673.842	1	0
674.011	1	-12
674.181	1	12
674.350	1	9
674.520	1	2
674.689	1	3
674.858	1	2
675.028	1	12
675.197	1	8
675.367	1	-1
675.536	1	19
675.705	1	0
675.875	1	-3
676.044	1	-3
676.214	1	14
676.383	1	11
676.552	1	10
676.722	1	-4
676.891	1	-5
677.060	1	-3
677.230	1	9
677.399	1	13
677.569	1	9
677.738	1	2
677.907	1	1
678.077	1	5
678.246	1	-5
678.416	1	4
678.585	1	-8
678.754	1	10
678.924	1	-1
679.093	1	14
679.262	1	11
679.432	1	16
679.601	1	17
679.771	1	-1
679.940	1	5
680.109	1	4
680.279	1	9
680.448	1	-3
680.617	1	12
680.787	1	-5
680.956	1	1
681.125	1	7
681.295	1	6
681.464	1	2
681.634	1	-7
681.803	1	9
681.972	1	10
682.142	1	-5
682.311	1	10
682.480	1	5
682.650	1	4
682.819	1	1
682.988	1	1
683.158	1	7
683.327	1	9
683.496	1	14
683.666	1	6
683.835	1	-7
684.004	1	9
684.174	1	4
684.343	1	6
684.512	1	2
684.682	1	5
684.851	1	5
685.021	1	-1
685.190	1	16
685.359	1	-1
685.529	1	11
685.698	1	14
685.867	1	2
686.037	1	5
686.206	1	5
686.375	1	7
686.545	1	0
686.714	1	3
686.883	1	2
687.053	1	-1
687.222	1	12
687.391	1	10
687.561	1	10
687.730	1	6
687.899	1	1
688.069	1	-10
688.238	1	-1
688.407	1	10
688.577	1	0
688.746	1	3
