340.368	1	7
340.539	1	8
340.710	1	3
340.881	1	0
341.052	1	17
341.223	1	-3
341.394	1	3
341.565	1	13
341.737	1	7
341.908	1	-8
342.079	1	2
342.250	1	14
342.421	1	3
342.592	1	-1
342.763	1	8
342.934	1	6
343.105	1	4
343.276	1	-2
343.447	1	4
343.618	1	0
343.789	1	17
343.960	1	11
344.131	1	10
344.302	1	9
344.473	1	6
344.644	1	-5
344.815	1	-4
344.986	1	-7
345.157	1	1
345.328	1	2
345.499	1	4
345.670	1	1
345.841	1	2
346.012	1	3
346.183	1	-8
346.354	1	6
346.526	1	1
346.697	1	0
346.868	1	-1
347.039	1	0
347.210	1	-7
347.381	1	9
347.552	1	5
347.723	1	4
347.894	1	-8
348.065	1	-5
348.236	1	4
348.407	1	1
348.578	1	0
348.749	1	1
348.920	1	-5
349.091	1	4
349.262	1	6
349.433	1	10
349.604	1	-2
349.775	1	3
349.946	1	0
350.117	1	9
350.288	1	4
350.459	1	-5
350.630	1	-3
350.801	1	6
350.972	1	7
351.143	1	-4
351.314	1	3
351.485	1	-1
351.656	1	15
351.827	1	4
351.998	1	9
352.169	1	4
352.340	1	9
352.511	1	1
352.682	1	-5
352.853	1	4
353.024	1	13
353.195	1	-1
353.366	1	-6
353.537	1	6
353.708	1	3
353.879	1	8
354.050	1	-4
354.221	1	9
354.392	1	5
354.563	1	12
354.734	1	-6
354.905	1	18
355.076	1	8
355.247	1	6
355.418	1	12
355.589	1	5
355.760	1	-1
355.931	1	6
356.102	1	-2
356.273	1	9
356.444	1	7
356.615	1	6
356.785	1	3
356.956	1	8
357.127	1	7
357.298	1	1
357.469	1	10
357.640	1	7
357.811	1	4
357.982	1	0
358.153	1	2
358.324	1	15
358.495	1	14
358.666	1	10
358.837	1	8
359.008	1	15
359.179	1	-2
359.350	1	13
359.521	1	9
359.692	1	13
359.863	1	5
360.034	1	7
360.205	1	10
360.376	1	18
360.547	1	12
360.718	1	11
360.889	1	20
361.060	1	4
361.231	1	12
361.401	1	22
361.572	1	19
361.743	1	12
361.914	1	12
362.085	1	25
362.256	1	13
362.427	1	14
362.598	1	20
362.769	1	24
362.940	1	7
363.111	1	14
363.282	1	31
363.453	1	32
363.624	1	28
363.795	1	20
363.966	1	35
364.137	1	46
364.308	1	26
364.478	1	36
364.649	1	47
364.820	1	40
364.991	1	33
365.162	1	49
365.333	1	47
365.504	1	36
365.675	1	33
365.846	1	50
366.017	1	50
366.188	1	46
366.359	1	44
366.530	1	53
366.701	1	59
366.871	1	50
367.042	1	54
367.213	1	63
367.384	1	58
367.555	1	51
367.726	1	67
367.897	1	55
368.068	1	63
368.239	1	67
368.410	1	46
368.581	1	59
368.752	1	43
368.923	1	72
369.093	1	55
369.264	1	61
369.435	1	61
369.606	1	52
369.777	1	62
369.948	1	47
370.119	1	57
370.290	1	43
370.461	1	54
370.632	1	59
370.803	1	52
370.973	1	63
371.144	1	62
371.315	1	42
371.486	1	51
371.657	1	53
371.828	1	42
371.999	1	39
372.170	1	58
372.341	1	36
372.512	1	39
372.682	1	37
372.853	1	31
373.024	1	44
373.195	1	46
373.366	1	39
373.537	1	46
373.708	1	44
373.879	1	40
374.050	1	33
374.220	1	39
374.391	1	24
374.562	1	42
374.733	1	41
374.904	1	32
375.075	1	31
375.246	1	45
375.417	1	27
375.588	1	26
375.758	1	33
375.929	1	30
376.100	1	33
376.271	1	29
376.442	1	32
376.613	1	29
376.784	1	31
376.955	1	23
377.125	1	29
377.296	1	28
377.467	1	29
377.638	1	19
377.809	1	33
377.980	1	18
378.151	1	12
378.321	1	23
378.492	1	16
378.663	1	11
378.834	1	20
379.005	1	13
379.176	1	19
379.347	1	30
379.518	1	23
379.688	1	5
379.859	1	14
380.030	1	20
380.201	1	14
380.372	1	17
380.543	1	12
380.714	1	26
380.884	1	14
381.055	1	20
381.226	1	17
381.397	1	24
381.568	1	6
381.739	1	5
381.910	1	15
382.080	1	11
382.251	1	25
382.422	1	14
382.593	1	8
382.764	1	16
382.935	1	12
383.105	1	13
383.276	1	17
383.447	1	7
383.618	1	3
383.789	1	17
383.960	1	-5
384.130	1	9
384.301	1	14
384.472	1	-3
384.643	1	-2
384.814	1	6
384.985	1	19
385.156	1	15
385.326	1	10
385.497	1	10
385.668	1	0
385.839	1	7
386.010	1	9
386.180	1	6
386.351	1	6
386.522	1	20
386.693	1	13
386.864	1	13
387.035	1	18
387.205	1	-7
387.376	1	8
387.547	1	19
387.718	1	15
387.889	1	12
388.060	1	11
388.230	1	14
388.401	1	19
388.572	1	-2
388.743	1	16
388.914	1	17
389.084	1	5
389.255	1	9
389.426	1	-9
389.597	1	-2
389.768	1	9
389.939	1	11
390.109	1	3
390.280	1	14
390.451	1	0
390.622	1	3
390.793	1	13
390.963	1	20
391.134	1	2
391.305	1	6
391.476	1	13
391.647	1	-6
391.817	1	10
391.988	1	11
392.159	1	4
392.330	1	-4
392.501	1	19
392.671	1	3
392.842	1	-1
393.013	1	1
393.184	1	2
393.355	1	-10
393.525	1	4
393.696	1	8
393.867	1	15
394.038	1	6
394.208	1	12
394.379	1	10
394.550	1	4
394.721	1	3
394.892	1	12
395.062	1	11
395.233	1	-4
395.404	1	1
395.575	1	13
395.746	1	5
395.916	1	5
396.087	1	9
396.258	1	-1
396.429	1	8
396.599	1	0
396.770	1	-1
396.941	1	5
397.112	1	-6
397.283	1	10
397.453	1	10
397.624	1	-1
397.795	1	16
397.966	1	11
398.136	1	4
398.307	1	9
398.478	1	7
398.649	1	16
398.819	1	-8
398.990	1	3
399.161	1	2
399.332	1	4
399.503	1	7
399.673	1	9
399.844	1	3
400.015	1	-8
400.186	1	-6
400.356	1	11
400.527	1	2
400.698	1	7
400.869	1	-9
401.039	1	-3
401.210	1	13
401.381	1	12
401.552	1	1
401.722	1	-10
401.893	1	1
402.064	1	1
402.235	1	-4
402.405	1	-2
402.576	1	10
402.747	1	5
402.918	1	-2
403.088	1	5
403.259	1	-1
403.430	1	-7
403.601	1	1
403.771	1	6
403.942	1	5
404.113	1	6
404.284	1	-1
404.454	1	0
404.625	1	3
404.796	1	4
404.967	1	-2
405.137	1	-2
405.308	1	-4
405.479	1	-3
405.649	1	4
405.820	1	14
405.991	1	-3
406.162	1	11
406.332	1	-1
406.503	1	-1
406.674	1	0
406.845	1	12
407.015	1	9
407.186	1	0
407.357	1	-9
407.527	1	2
407.698	1	1
407.869	1	7
408.040	1	5
408.210	1	12
408.381	1	12
408.552	1	11
408.722	1	-1
408.893	1	7
409.064	1	-7
409.235	1	3
409.405	1	-3
409.576	1	-2
409.747	1	1
409.917	1	0
410.088	1	4
410.259	1	-7
410.430	1	7
410.600	1	6
410.771	1	2
410.942	1	-1
411.112	1	9
411.283	1	-8
411.454	1	14
411.625	1	5
411.795	1	-2
411.966	1	5
412.137	1	-8
412.307	1	2
412.478	1	2
412.649	1	7
412.819	1	5
412.990	1	7
413.161	1	7
413.332	1	13
413.502	1	-1
413.673	1	-6
413.844	1	-3
414.014	1	-2
414.185	1	-11
414.356	1	2
414.526	1	4
414.697	1	-4
414.868	1	-4
415.038	1	9
415.209	1	6
415.380	1	9
415.550	1	12
415.721	1	1
415.892	1	-2
416.063	1	2
416.233	1	7
416.404	1	2
416.575	1	4
416.745	1	6
416.916	1	2
417.087	1	2
417.257	1	-1
417.428	1	4
417.599	1	1
417.769	1	-7
417.940	1	-10
418.111	1	3
418.281	1	12
418.452	1	5
418.623	1	-5
418.793	1	12
418.964	1	8
419.135	1	1
419.305	1	4
419.476	1	8
419.647	1	-9
419.817	1	4
419.988	1	9
420.159	1	3
420.329	1	8
420.500	1	13
420.671	1	-5
420.841	1	1
421.012	1	5
421.183	1	4
421.353	1	-4
421.524	1	-4
421.695	1	11
421.865	1	-2
422.036	1	0
422.206	1	-6
422.377	1	3
422.548	1	2
422.718	1	6
422.889	1	2
423.060	1	4
423.230	1	3
423.401	1	16
423.572	1	15
423.742	1	-4
423.913	1	-1
424.084	1	-3
424.254	1	1
424.425	1	-4
424.595	1	10
424.766	1	-4
424.937	1	9
425.107	1	5
425.278	1	11
425.449	1	3
425.619	1	-1
425.790	1	1
425.961	1	-2
426.131	1	4
426.302	1	-6
426.472	1	0
426.643	1	0
426.814	1	6
426.984	1	2
427.155	1	7
427.326	1	12
427.496	1	-3
427.667	1	-3
427.837	1	-1
428.008	1	5
428.179	1	5
428.349	1	5
428.520	1	-2
428.691	1	14
428.861	1	7
429.032	1	2
429.202	1	7
429.373	1	15
429.544	1	5
429.714	1	1
429.885	1	5
430.055	1	-1
430.226	1	4
430.397	1	-6
430.567	1	-4
430.738	1	-8
430.909	1	-6
431.079	1	6
431.250	1	5
431.420	1	7
431.591	1	14
431.762	1	3
431.932	1	3
432.103	1	-5
432.273	1	5
432.444	1	-2
432.615	1	16
432.785	1	2
432.956	1	4
433.126	1	10
433.297	1	0
433.468	1	-1
433.638	1	6
433.809	1	2
433.979	1	7
434.150	1	14
434.320	1	8
434.491	1	-3
434.662	1	4
434.832	1	-3
435.003	1	1
435.173	1	-10
435.344	1	-4
435.515	1	-1
435.685	1	-3
435.856	1	11
436.026	1	1
436.197	1	2
436.368	1	6
436.538	1	-2
436.709	1	-6
436.879	1	1
437.050	1	8
437.220	1	7
437.391	1	1
437.562	1	4
437.732	1	6
437.903	1	-3
438.073	1	11
438.244	1	14
438.414	1	-4
438.585	1	-3
438.756	1	9
438.926	1	0
439.097	1	0
439.267	1	0
439.438	1	-6
439.608	1	-2
439.779	1	7
439.949	1	6
440.120	1	2
440.291	1	-1
440.461	1	1
440.632	1	4
440.802	1	1
440.973	1	12
441.143	1	-7
441.314	1	0
441.485	1	7
441.655	1	-6
441.826	1	3
441.996	1	1
442.167	1	-1
442.337	1	9
442.508	1	-5
442.678	1	5
442.849	1	13
443.019	1	11
443.190	1	-1
443.361	1	5
443.531	1	8
443.702	1	6
443.872	1	-1
444.043	1	3
444.213	1	7
444.384	1	6
444.554	1	1
444.725	1	10
444.895	1	5
445.066	1	2
445.237	1	3
445.407	1	3
445.578	1	9
445.748	1	-1
445.919	1	-8
446.089	1	17
446.260	1	-5
446.430	1	2
446.601	1	10
446.771	1	2
446.942	1	-1
447.112	1	-1
447.283	1	6
447.453	1	-3
447.624	1	6
447.794	1	4
447.965	1	4
448.135	1	-5
448.306	1	11
448.477	1	8
448.647	1	1
448.818	1	9
448.988	1	-7
449.159	1	2
449.329	1	6
449.500	1	-7
449.670	1	-3
449.841	1	-8
450.011	1	0
450.182	1	7
450.352	1	5
450.523	1	0
450.693	1	-6
450.864	1	-6
451.034	1	14
451.205	1	11
451.375	1	-3
451.546	1	0
451.716	1	-4
451.887	1	15
452.057	1	3
452.228	1	7
452.398	1	8
452.569	1	9
452.739	1	2
452.910	1	5
453.080	1	0
453.251	1	-3
453.421	1	1
453.592	1	3
453.762	1	7
453.933	1	-9
454.103	1	-3
454.274	1	8
454.444	1	-1
454.615	1	-2
454.785	1	0
454.956	1	3
455.126	1	2
455.297	1	1
455.467	1	-10
455.638	1	-4
455.808	1	0
455.979	1	-8
456.149	1	7
456.320	1	-2
456.490	1	-7
456.661	1	3
456.831	1	3
457.001	1	12
457.172	1	-8
457.342	1	2
457.513	1	12
457.683	1	17
457.854	1	2
458.024	1	-7
458.195	1	-5
458.365	1	1
458.536	1	5
458.706	1	11
458.877	1	1
459.047	1	2
459.218	1	-5
459.388	1	5
459.559	1	6
459.729	1	-1
459.899	1	-3
460.070	1	5
460.240	1	4
460.411	1	-4
460.581	1	-4
460.752	1	-1
460.922	1	1
461.093	1	8
461.263	1	5
461.434	1	4
461.604	1	-3
461.775	1	-6
461.945	1	1
462.115	1	10
462.286	1	0
462.456	1	-2
462.627	1	0
462.797	1	-2
462.968	1	5
463.138	1	3
463.309	1	2
463.479	1	-4
463.649	1	0
463.820	1	2
463.990	1	7
464.161	1	-3
464.331	1	4
464.502	1	-13
464.672	1	9
464.843	1	-1
465.013	1	-3
465.183	1	2
465.354	1	-1
465.524	1	14
465.695	1	12
465.865	1	10
466.036	1	-8
466.206	1	8
466.376	1	-11
466.547	1	7
466.717	1	3
466.888	1	-2
467.058	1	10
467.229	1	15
467.399	1	17
467.569	1	9
467.740	1	-4
467.910	1	-1
468.081	1	-1
468.251	1	8
468.422	1	4
468.592	1	12
468.762	1	-5
468.933	1	3
469.103	1	2
469.274	1	0
469.444	1	2
469.614	1	-2
469.785	1	0
469.955	1	-5
470.126	1	5
470.296	1	-3
470.467	1	-4
470.637	1	-4
470.807	1	8
470.978	1	-1
471.148	1	7
471.319	1	7
471.489	1	1
471.659	1	3
471.830	1	-10
472.000	1	3
472.171	1	-4
472.341	1	-2
472.511	1	9
472.682	1	5
472.852	1	10
473.023	1	8
473.193	1	3
473.363	1	0
473.534	1	15
473.704	1	-2
473.875	1	5
474.045	1	11
474.215	1	8
474.386	1	1
474.556	1	19
474.727	1	11
474.897	1	3
475.067	1	-2
475.238	1	3
475.408	1	-14
475.578	1	0
475.749	1	11
475.919	1	0
476.090	1	9
476.260	1	-2
476.430	1	-2
476.601	1	8
476.771	1	8
476.942	1	-2
477.112	1	-1
477.282	1	1
477.453	1	6
477.623	1	17
477.793	1	-4
477.964	1	5
478.134	1	4
478.305	1	5
478.475	1	7
478.645	1	5
478.816	1	-5
478.986	1	11
479.156	1	-6
479.327	1	2
479.497	1	6
479.667	1	4
479.838	1	2
480.008	1	1
480.179	1	7
480.349	1	7
480.519	1	12
480.690	1	8
480.860	1	-2
481.030	1	-4
481.201	1	11
481.371	1	-8
481.541	1	6
481.712	1	-2
481.882	1	6
482.053	1	-3
482.223	1	13
482.393	1	-1
482.564	1	3
482.734	1	12
482.904	1	3
483.075	1	-4
483.245	1	-8
483.415	1	1
483.586	1	8
483.756	1	12
483.926	1	6
484.097	1	12
484.267	1	-3
484.437	1	3
484.608	1	8
484.778	1	2
484.948	1	13
485.119	1	1
485.289	1	-1
485.459	1	5
485.630	1	6
485.800	1	-8
485.970	1	1
486.141	1	-2
486.311	1	-4
486.481	1	-2
486.652	1	3
486.822	1	-2
486.992	1	11
487.163	1	-3
487.333	1	5
487.503	1	1
487.674	1	8
487.844	1	9
488.014	1	-3
488.185	1	10
488.355	1	6
488.525	1	1
488.696	1	8
488.866	1	2
489.036	1	3
489.207	1	2
489.377	1	8
489.547	1	7
489.718	1	3
489.888	1	5
490.058	1	1
490.228	1	-9
490.399	1	8
490.569	1	2
490.739	1	6
490.910	1	-5
491.080	1	-4
491.250	1	11
491.421	1	11
491.591	1	-5
491.761	1	13
491.932	1	5
492.102	1	11
492.272	1	-2
492.442	1	5
492.613	1	2
492.783	1	-6
492.953	1	11
493.124	1	-8
493.294	1	12
493.464	1	12
493.635	1	10
493.805	1	16
493.975	1	9
494.145	1	8
494.316	1	1
494.486	1	0
494.656	1	2
494.827	1	7
494.997	1	7
495.167	1	19
495.337	1	9
495.508	1	8
495.678	1	6
495.848	1	-1
496.019	1	12
496.189	1	6
496.359	1	2
496.529	1	13
496.700	1	11
496.870	1	4
497.040	1	9
497.211	1	10
497.381	1	-3
497.551	1	8
497.721	1	7
497.892	1	6
498.062	1	2
498.232	1	3
498.403	1	11
498.573	1	11
498.743	1	-2
498.913	1	-2
499.084	1	14
499.254	1	0
499.424	1	8
499.594	1	-6
499.765	1	-1
499.935	1	-1
500.105	1	3
500.275	1	11
500.446	1	4
500.616	1	7
500.786	1	2
500.956	1	12
501.127	1	2
501.297	1	1
501.467	1	9
501.638	1	4
501.808	1	6
501.978	1	15
502.148	1	-5
502.319	1	4
502.489	1	6
502.659	1	10
502.829	1	10
503.000	1	-1
503.170	1	13
503.340	1	5
503.510	1	0
503.681	1	7
503.851	1	0
504.021	1	11
504.191	1	12
504.362	1	4
504.532	1	8
504.702	1	7
504.872	1	-5
505.042	1	1
505.213	1	4
505.383	1	8
505.553	1	9
505.723	1	8
505.894	1	4
506.064	1	-3
506.234	1	-2
506.404	1	15
506.575	1	-1
506.745	1	1
506.915	1	13
507.085	1	21
507.256	1	14
507.426	1	12
507.596	1	5
507.766	1	14
507.936	1	11
508.107	1	6
508.277	1	11
508.447	1	-7
508.617	1	1
508.788	1	-5
508.958	1	18
509.128	1	9
509.298	1	1
509.468	1	12
509.639	1	-2
509.809	1	6
509.979	1	8
510.149	1	3
510.319	1	17
510.490	1	8
510.660	1	12
510.830	1	-1
511.000	1	14
511.171	1	0
511.341	1	7
511.511	1	-3
511.681	1	16
511.851	1	3
512.022	1	7
512.192	1	10
512.362	1	10
512.532	1	16
512.702	1	4
512.873	1	9
513.043	1	11
513.213	1	3
513.383	1	6
513.553	1	11
513.724	1	6
513.894	1	8
514.064	1	7
514.234	1	10
514.404	1	7
514.575	1	5
514.745	1	4
514.915	1	1
515.085	1	12
515.255	1	9
515.425	1	7
515.596	1	12
515.766	1	3
515.936	1	17
516.106	1	8
516.276	1	16
516.447	1	7
516.617	1	5
516.787	1	13
516.957	1	6
517.127	1	11
517.297	1	2
517.468	1	9
517.638	1	1
517.808	1	11
517.978	1	9
518.148	1	17
518.319	1	8
518.489	1	14
518.659	1	14
518.829	1	13
518.999	1	8
519.169	1	2
519.340	1	2
519.510	1	7
519.680	1	1
519.850	1	10
520.020	1	-1
520.190	1	18
520.361	1	8
520.531	1	7
520.701	1	14
520.871	1	5
521.041	1	6
521.211	1	1
521.382	1	14
521.552	1	6
521.722	1	15
521.892	1	12
522.062	1	16
522.232	1	10
522.402	1	10
522.573	1	15
522.743	1	-2
522.913	1	10
523.083	1	13
523.253	1	1
523.423	1	14
523.593	1	11
523.764	1	16
523.934	1	8
524.104	1	4
524.274	1	5
524.444	1	7
524.614	1	18
524.784	1	17
524.955	1	3
525.125	1	14
525.295	1	5
525.465	1	24
525.635	1	19
525.805	1	5
525.975	1	6
526.146	1	4
526.316	1	13
526.486	1	12
526.656	1	22
526.826	1	16
526.996	1	4
527.166	1	10
527.337	1	16
527.507	1	9
527.677	1	12
527.847	1	9
528.017	1	16
528.187	1	16
528.357	1	21
528.527	1	12
528.698	1	11
528.868	1	0
529.038	1	4
529.208	1	13
529.378	1	14
529.548	1	10
529.718	1	16
529.888	1	2
530.058	1	11
530.229	1	4
530.399	1	18
530.569	1	10
530.739	1	3
530.909	1	29
531.079	1	10
531.249	1	6
531.419	1	7
531.589	1	10
531.760	1	13
531.930	1	2
532.100	1	25
532.270	1	12
532.440	1	5
532.610	1	8
532.780	1	10
532.950	1	-2
533.120	1	6
533.290	1	11
533.461	1	14
533.631	1	10
533.801	1	12
533.971	1	9
534.141	1	12
534.311	1	6
534.481	1	7
534.651	1	20
534.821	1	-2
534.991	1	6
535.162	1	3
535.332	1	23
535.502	1	8
535.672	1	0
535.842	1	4
536.012	1	8
536.182	1	9
536.352	1	16
536.522	1	21
536.692	1	3
536.862	1	6
537.032	1	4
537.203	1	2
537.373	1	7
537.543	1	15
537.713	1	21
537.883	1	15
538.053	1	4
538.223	1	22
538.393	1	19
538.563	1	18
538.733	1	9
538.903	1	10
539.073	1	14
539.243	1	13
539.413	1	7
539.584	1	12
539.754	1	3
539.924	1	10
540.094	1	5
540.264	1	13
540.434	1	10
540.604	1	15
540.774	1	10
540.944	1	8
541.114	1	8
541.284	1	9
541.454	1	5
541.624	1	0
541.794	1	12
541.964	1	6
542.134	1	12
542.305	1	2
542.475	1	12
542.645	1	13
542.815	1	2
542.985	1	3
543.155	1	22
543.325	1	-3
543.495	1	1
543.665	1	17
543.835	1	16
544.005	1	18
544.175	1	20
544.345	1	12
544.515	1	1
544.685	1	17
544.855	1	2
545.025	1	19
545.195	1	14
545.365	1	5
545.535	1	21
545.705	1	12
545.875	1	11
546.045	1	9
546.216	1	14
546.386	1	3
546.556	1	9
546.726	1	8
546.896	1	12
547.066	1	19
547.236	1	12
547.406	1	8
547.576	1	13
547.746	1	6
547.916	1	10
548.086	1	1
548.256	1	9
548.426	1	15
548.596	1	7
548.766	1	7
548.936	1	14
549.106	1	10
549.276	1	10
549.446	1	10
549.616	1	1
549.786	1	23
549.956	1	9
550.126	1	5
550.296	1	12
550.466	1	22
550.636	1	13
550.806	1	18
550.976	1	13
551.146	1	13
551.316	1	16
551.486	1	13
551.656	1	-11
551.826	1	6
551.996	1	5
552.166	1	14
552.336	1	13
552.506	1	11
552.676	1	10
552.846	1	13
553.016	1	5
553.186	1	8
553.356	1	19
553.526	1	3
553.696	1	6
553.866	1	17
554.036	1	16
554.206	1	16
554.376	1	0
554.546	1	7
554.716	1	4
554.886	1	7
555.056	1	15
555.226	1	7
555.396	1	9
555.566	1	-5
555.736	1	6
555.906	1	11
556.076	1	4
556.246	1	5
556.416	1	18
556.586	1	-1
556.756	1	11
556.926	1	11
557.096	1	15
557.266	1	5
557.436	1	10
557.606	1	5
557.776	1	-6
557.946	1	3
558.116	1	5
558.286	1	4
558.456	1	6
558.626	1	7
558.796	1	23
558.966	1	3
559.136	1	3
559.306	1	16
559.476	1	17
559.646	1	15
559.816	1	6
559.986	1	5
560.155	1	-1
560.325	1	4
560.495	1	20
560.665	1	4
560.835	1	9
561.005	1	7
561.175	1	0
561.345	1	13
561.515	1	6
561.685	1	12
561.855	1	5
562.025	1	13
562.195	1	10
562.365	1	7
562.535	1	6
562.705	1	3
562.875	1	5
563.045	1	13
563.215	1	10
563.385	1	9
563.555	1	12
563.725	1	2
563.895	1	13
564.064	1	7
564.234	1	17
564.404	1	7
564.574	1	0
564.744	1	-1
564.914	1	12
565.084	1	-2
565.254	1	11
565.424	1	9
565.594	1	8
565.764	1	9
565.934	1	13
566.104	1	16
566.274	1	9
566.444	1	17
566.614	1	6
566.783	1	9
566.953	1	1
567.123	1	14
567.293	1	-3
567.463	1	11
567.633	1	-2
567.803	1	3
567.973	1	16
568.143	1	17
568.313	1	17
568.483	1	13
568.653	1	16
568.823	1	6
568.993	1	1
569.162	1	5
569.332	1	10
569.502	1	17
569.672	1	11
569.842	1	14
570.012	1	19
570.182	1	6
570.352	1	5
570.522	1	6
570.692	1	13
570.862	1	-3
571.031	1	9
571.201	1	-1
571.371	1	8
571.541	1	10
571.711	1	13
571.881	1	5
572.051	1	6
572.221	1	3
572.391	1	8
572.561	1	3
572.731	1	-4
572.900	1	10
573.070	1	5
573.240	1	8
573.410	1	13
573.580	1	17
573.750	1	1
573.920	1	8
574.090	1	5
574.260	1	10
574.430	1	-1
574.599	1	2
574.769	1	1
574.939	1	-3
575.109	1	-3
575.279	1	10
575.449	1	12
575.619	1	4
575.789	1	16
575.959	1	2
576.128	1	6
576.298	1	-1
576.468	1	12
576.638	1	13
576.808	1	6
576.978	1	-5
577.148	1	9
577.318	1	6
577.487	1	6
577.657	1	10
577.827	1	1
577.997	1	6
578.167	1	9
578.337	1	16
578.507	1	14
578.677	1	1
578.846	1	6
579.016	1	18
579.186	1	18
579.356	1	6
579.526	1	4
579.696	1	5
579.866	1	1
580.036	1	10
580.205	1	19
580.375	1	10
580.545	1	3
580.715	1	4
580.885	1	2
581.055	1	13
581.225	1	7
581.394	1	14
581.564	1	3
581.734	1	-3
581.904	1	-1
582.074	1	2
582.244	1	15
582.414	1	5
582.583	1	9
582.753	1	5
582.923	1	15
583.093	1	5
583.263	1	5
583.433	1	19
583.603	1	16
583.772	1	8
583.942	1	-1
584.112	1	1
584.282	1	13
584.452	1	5
584.622	1	1
584.791	1	19
584.961	1	-2
585.131	1	2
585.301	1	-2
585.471	1	19
585.641	1	8
585.811	1	6
585.980	1	12
586.150	1	0
586.320	1	-1
586.490	1	7
586.660	1	1
586.830	1	9
586.999	1	8
587.169	1	6
587.339	1	7
587.509	1	-2
587.679	1	8
587.849	1	3
588.018	1	21
588.188	1	18
588.358	1	5
588.528	1	6
588.698	1	3
588.867	1	9
589.037	1	-3
589.207	1	11
589.377	1	9
589.547	1	12
589.717	1	3
589.886	1	8
590.056	1	5
590.226	1	3
590.396	1	13
590.566	1	5
590.735	1	14
590.905	1	-4
591.075	1	3
591.245	1	13
591.415	1	4
591.585	1	2
591.754	1	12
591.924	1	11
592.094	1	4
592.264	1	8
592.434	1	0
592.603	1	1
592.773	1	0
592.943	1	13
593.113	1	8
593.283	1	10
593.452	1	7
593.622	1	5
593.792	1	11
593.962	1	10
594.132	1	10
594.301	1	16
594.471	1	14
594.641	1	-5
594.811	1	2
594.981	1	-3
595.150	1	10
595.320	1	9
595.490	1	11
595.660	1	13
595.829	1	4
595.999	1	6
596.169	1	20
596.339	1	5
596.509	1	2
596.678	1	8
596.848	1	12
597.018	1	7
597.188	1	2
597.358	1	-7
597.527	1	10
597.697	1	3
597.867	1	-1
598.037	1	12
598.206	1	6
598.376	1	1
598.546	1	-7
598.716	1	13
598.885	1	14
599.055	1	14
599.225	1	11
599.395	1	10
599.565	1	3
599.734	1	5
599.904	1	6
600.074	1	5
600.244	1	9
600.413	1	4
600.583	1	11
600.753	1	12
600.923	1	3
601.092	1	6
601.262	1	5
601.432	1	8
601.602	1	8
601.771	1	12
601.941	1	13
602.111	1	3
602.281	1	-4
602.451	1	11
602.620	1	2
602.790	1	8
602.960	1	8
603.130	1	-1
603.299	1	15
603.469	1	9
603.639	1	-1
603.809	1	-3
603.978	1	8
604.148	1	12
604.318	1	20
604.487	1	-1
604.657	1	6
604.827	1	-3
604.997	1	11
605.166	1	10
605.336	1	3
605.506	1	-3
605.676	1	8
605.845	1	7
606.015	1	-6
606.185	1	0
606.355	1	5
606.524	1	11
606.694	1	10
606.864	1	7
607.034	1	5
607.203	1	10
607.373	1	3
607.543	1	-2
607.712	1	9
607.882	1	-1
608.052	1	5
608.222	1	1
608.391	1	9
608.561	1	9
608.731	1	-1
608.901	1	10
609.070	1	6
609.240	1	12
609.410	1	1
609.579	1	-3
609.749	1	8
609.919	1	0
610.089	1	-2
610.258	1	-7
610.428	1	9
610.598	1	9
610.767	1	5
610.937	1	-2
611.107	1	3
611.277	1	7
611.446	1	-5
611.616	1	9
611.786	1	-3
611.955	1	4
612.125	1	-2
612.295	1	-2
612.465	1	1
612.634	1	5
612.804	1	7
612.974	1	2
613.143	1	0
613.313	1	3
613.483	1	4
613.652	1	8
613.822	1	1
613.992	1	9
614.162	1	5
614.331	1	12
614.501	1	5
614.671	1	7
614.840	1	-2
615.010	1	6
615.180	1	10
615.349	1	10
615.519	1	1
615.689	1	6
615.858	1	6
616.028	1	7
616.198	1	7
616.368	1	8
616.537	1	1
616.707	1	8
616.877	1	-1
617.046	1	4
617.216	1	17
617.386	1	11
617.555	1	8
617.725	1	-7
617.895	1	13
618.064	1	-3
618.234	1	3
618.404	1	1
618.573	1	-1
618.743	1	14
618.913	1	10
619.082	1	10
619.252	1	4
619.422	1	5
619.591	1	1
619.761	1	4
619.931	1	-6
620.100	1	-3
620.270	1	5
620.440	1	3
620.609	1	-6
620.779	1	8
620.949	1	11
621.118	1	3
621.288	1	14
621.458	1	9
621.627	1	14
621.797	1	7
621.967	1	6
622.136	1	6
622.306	1	-7
622.476	1	-10
622.645	1	-2
622.815	1	-6
622.985	1	1
623.154	1	-4
623.324	1	5
623.494	1	17
623.663	1	9
623.833	1	1
624.002	1	-7
624.172	1	5
624.342	1	1
624.511	1	3
624.681	1	4
624.851	1	7
625.020	1	17
625.190	1	1
625.360	1	-1
625.529	1	1
625.699	1	-2
625.869	1	7
626.038	1	5
626.208	1	8
626.377	1	6
626.547	1	8
626.717	1	7
626.886	1	3
627.056	1	5
627.226	1	7
627.395	1	-1
627.565	1	4
627.735	1	9
627.904	1	10
628.074	1	7
628.243	1	8
628.413	1	15
628.583	1	-1
628.752	1	1
628.922	1	7
629.091	1	3
629.261	1	6
629.431	1	1
629.600	1	11
629.770	1	4
629.940	1	-2
630.109	1	4
630.279	1	2
630.448	1	12
630.618	1	8
630.788	1	-2
630.957	1	10
631.127	1	-5
631.297	1	2
631.466	1	5
631.636	1	-9
631.805	1	9
631.975	1	17
632.145	1	-2
632.314	1	-4
632.484	1	12
632.653	1	4
632.823	1	1
632.993	1	0
633.162	1	0
633.332	1	5
633.501	1	3
633.671	1	5
633.841	1	-2
634.010	1	2
634.180	1	-8
634.349	1	3
634.519	1	4
634.689	1	14
634.858	1	-4
635.028	1	8
635.197	1	11
635.367	1	-5
635.537	1	-9
635.706	1	0
635.876	1	11
636.045	1	-1
636.215	1	-1
636.384	1	2
636.554	1	10
636.724	1	7
636.893	1	4
637.063	1	12
637.232	1	8
637.402	1	13
637.572	1	6
637.741	1	-2
637.911	1	3
638.080	1	3
638.250	1	7
638.419	1	0
638.589	1	9
638.759	1	8
638.928	1	16
639.098	1	11
639.267	1	1
639.437	1	1
639.606	1	-7
639.776	1	-1
639.946	1	2
640.115	1	6
640.285	1	3
640.454	1	2
640.624	1	10
640.793	1	0
640.963	1	0
641.132	1	3
641.302	1	0
641.472	1	12
641.641	1	2
641.811	1	1
641.980	1	-6
642.150	1	10
642.319	1	6
642.489	1	9
642.659	1	-3
642.828	1	5
642.998	1	-9
643.167	1	3
643.337	1	-8
643.506	1	16
643.676	1	0
643.845	1	6
644.015	1	11
644.184	1	8
644.354	1	4
644.524	1	12
644.693	1	3
644.863	1	11
645.032	1	6
645.202	1	19
645.371	1	-11
645.541	1	8
645.710	1	11
645.880	1	17
646.049	1	2
646.219	1	5
646.388	1	1
646.558	1	18
646.728	1	8
646.897	1	7
647.067	1	17
647.236	1	-3
647.406	1	2
647.575	1	5
647.745	1	3
647.914	1	-7
648.084	1	4
648.253	1	-2
648.423	1	9
648.592	1	5
648.762	1	-3
648.931	1	5
649.101	1	1
649.270	1	1
649.440	1	5
649.610	1	5
649.779	1	2
649.949	1	-6
650.118	1	-4
650.288	1	15
650.457	1	5
650.627	1	-1
650.796	1	-9
650.966	1	7
651.135	1	0
651.305	1	7
651.474	1	9
651.644	1	3
651.813	1	5
651.983	1	20
652.152	1	10
652.322	1	-1
652.491	1	3
652.661	1	-3
652.830	1	14
653.000	1	1
653.169	1	9
653.339	1	10
653.508	1	5
653.678	1	-2
653.847	1	3
654.017	1	2
654.186	1	4
654.356	1	7
654.525	1	8
654.695	1	-1
654.864	1	-1
655.034	1	2
655.203	1	-3
655.373	1	5
655.542	1	-4
655.712	1	2
655.881	1	2
656.051	1	2
656.220	1	-1
656.390	1	15
656.559	1	3
656.729	1	10
656.898	1	-7
657.068	1	3
657.237	1	1
657.406	1	-1
657.576	1	-6
657.745	1	7
657.915	1	1
658.084	1	11
658.254	1	12
658.423	1	12
658.593	1	1
658.762	1	12
658.932	1	2
659.101	1	7
659.271	1	0
659.440	1	0
659.610	1	6
659.779	1	9
659.949	1	5
660.118	1	11
660.288	1	2
660.457	1	11
660.626	1	7
660.796	1	-6
660.965	1	-4
661.135	1	14
661.304	1	4
661.474	1	6
661.643	1	2
661.813	1	12
661.982	1	-1
662.152	1	12
662.321	1	-7
662.491	1	6
662.660	1	6
662.829	1	-4
662.999	1	9
663.168	1	11
663.338	1	7
663.507	1	3
663.677	1	-1
663.846	1	-6
664.016	1	1
664.185	1	1
664.354	1	8
664.524	1	-6
664.693	1	6
664.863	1	13
665.032	1	10
665.202	1	4
665.371	1	2
665.541	1	-1
665.710	1	8
665.879	1	8
666.049	1	7
666.218	1	3
666.388	1	5
666.557	1	4
666.727	1	-5
666.896	1	6
667.065	1	2
667.235	1	10
667.404	1	1
667.574	1	8
667.743	1	-2
667.913	1	2
668.082	1	9
668.251	1	10
668.421	1	-5
668.590	1	3
668.760	1	4
668.929	1	-7
669.099	1	4
669.268	1	4
669.437	1	10
669.607	1	7
669.776	1	7
669.946	1	0
670.115	1	8
670.285	1	3
670.454	1	12
670.623	1	0
670.793	1	0
670.962	1	8
671.132	1	1
671.301	1	0
671.470	1	6
671.640	1	4
671.809	1	-1
671.979	1	6
672.148	1	-1
672.317	1	12
672.487	1	-4
672.656	1	10
672.826	1	0
672.995	1	4
673.164	1	25
673.334	1	5
673.503	1	9
673.673	1	-7
673.842	1	-5
674.011	1	4
674.181	1	9
674.350	1	5
674.520	1	12
674.689	1	-1
674.858	1	-4
675.028	1	9
675.197	1	9
675.367	1	-4
675.536	1	14
675.705	1	-10
675.875	1	-5
676.044	1	-2
676.214	1	6
676.383	1	3
676.552	1	-5
676.722	1	-3
676.891	1	-5
677.060	1	-15
677.230	1	8
677.399	1	9
677.569	1	14
677.738	1	6
677.907	1	9
678.077	1	6
678.246	1	-1
678.416	1	-4
678.585	1	5
678.754	1	9
678.924	1	-3
679.093	1	10
679.262	1	14
679.432	1	16
679.601	1	15
679.771	1	1
679.940	1	5
680.109	1	6
680.279	1	0
680.448	1	8
680.617	1	10
680.787	1	5
680.956	1	7
681.125	1	-1
681.295	1	11
681.464	1	12
681.634	1	-9
681.803	1	6
681.972	1	6
682.142	1	6
682.311	1	3
682.480	1	-1
682.650	1	-4
682.819	1	5
682.988	1	3
683.158	1	8
683.327	1	9
683.496	1	11
683.666	1	1
683.835	1	-3
684.004	1	7
684.174	1	0
684.343	1	8
684.512	1	-2
684.682	1	0
684.851	1	4
685.021	1	5
685.190	1	11
685.359	1	-6
685.529	1	3
685.698	1	-3
685.867	1	-1
686.037	1	9
686.206	1	13
686.375	1	7
686.545	1	2
686.714	1	6
686.883	1	11
687.053	1	0
687.222	1	8
687.391	1	9
687.561	1	5
687.730	1	-1
687.899	1	10
688.069	1	-1
688.238	1	7
688.407	1	5
688.577	1	-1
688.746	1	5
