340.368	1	6
340.539	1	0
340.710	1	-6
340.881	1	1
341.052	1	8
341.223	1	-9
341.394	1	-8
341.565	1	6
341.737	1	4
341.908	1	6
342.079	1	3
342.250	1	7
342.421	1	-10
342.592	1	-1
342.763	1	4
342.934	1	4
343.105	1	-3
343.276	1	-5
343.447	1	6
343.618	1	11
343.789	1	25
343.960	1	6
344.131	1	9
344.302	1	10
344.473	1	3
344.644	1	-5
344.815	1	-8
344.986	1	-6
345.157	1	1
345.328	1	0
345.499	1	9
345.670	1	7
345.841	1	-2
346.012	1	7
346.183	1	-6
346.354	1	4
346.526	1	12
346.697	1	4
346.868	1	2
347.039	1	1
347.210	1	-12
347.381	1	3
347.552	1	3
347.723	1	12
347.894	1	1
348.065	1	7
348.236	1	2
348.407	1	3
348.578	1	3
348.749	1	-2
348.920	1	-4
349.091	1	-3
349.262	1	10
349.433	1	3
349.604	1	4
349.775	1	6
349.946	1	-7
350.117	1	1
350.288	1	2
350.459	1	-5
350.630	1	4
350.801	1	3
350.972	1	11
351.143	1	-3
351.314	1	0
351.485	1	-1
351.656	1	12
351.827	1	-3
351.998	1	18
352.169	1	4
352.340	1	5
352.511	1	3
352.682	1	-6
352.853	1	5
353.024	1	9
353.195	1	2
353.366	1	-5
353.537	1	8
353.708	1	5
353.879	1	12
354.050	1	7
354.221	1	3
354.392	1	-10
354.563	1	4
354.734	1	-8
354.905	1	5
355.076	1	9
355.247	1	9
355.418	1	5
355.589	1	-5
355.760	1	1
355.931	1	5
356.102	1	6
356.273	1	-1
356.444	1	1
356.615	1	3
356.785	1	4
356.956	1	12
357.127	1	8
357.298	1	4
357.469	1	7
357.640	1	-2
357.811	1	11
357.982	1	5
358.153	1	0
358.324	1	14
358.495	1	2
358.666	1	1
358.837	1	12
359.008	1	16
359.179	1	1
359.350	1	6
359.521	1	13
359.692	1	12
359.863	1	6
360.034	1	4
360.205	1	6
360.376	1	14
360.547	1	3
360.718	1	7
360.889	1	13
361.060	1	6
361.231	1	11
361.401	1	4
361.572	1	14
361.743	1	17
361.914	1	11
362.085	1	8
362.256	1	15
362.427	1	13
362.598	1	8
362.769	1	21
362.940	1	4
363.111	1	19
363.282	1	17
363.453	1	27
363.624	1	10
363.795	1	11
363.966	1	20
364.137	1	25
364.308	1	25
364.478	1	21
364.649	1	32
364.820	1	29
364.991	1	24
365.162	1	40
365.333	1	22
365.504	1	23
365.675	1	28
365.846	1	20
366.017	1	42
366.188	1	35
366.359	1	28
366.530	1	36
366.701	1	30
366.871	1	39
367.042	1	40
367.213	1	40
367.384	1	37
367.555	1	46
367.726	1	42
367.897	1	48
368.068	1	47
368.239	1	48
368.410	1	48
368.581	1	36
368.752	1	42
368.923	1	50
369.093	1	42
369.264	1	49
369.435	1	42
369.606	1	43
369.777	1	38
369.948	1	39
370.119	1	41
370.290	1	40
370.461	1	45
370.632	1	38
370.803	1	51
370.973	1	42
371.144	1	38
371.315	1	36
371.486	1	34
371.657	1	47
371.828	1	33
371.999	1	23
372.170	1	28
372.341	1	38
372.512	1	22
372.682	1	27
372.853	1	31
373.024	1	45
373.195	1	23
373.366	1	18
373.537	1	34
373.708	1	29
373.879	1	32
374.050	1	30
374.220	1	25
374.391	1	24
374.562	1	21
374.733	1	29
374.904	1	27
375.075	1	14
375.246	1	14
375.417	1	19
375.588	1	14
375.758	1	27
375.929	1	5
376.100	1	25
376.271	1	22
376.442	1	15
376.613	1	19
376.784	1	11
376.955	1	17
377.125	1	16
377.296	1	17
377.467	1	24
377.638	1	20
377.809	1	12
377.980	1	24
378.151	1	11
378.321	1	16
378.492	1	11
378.663	1	9
378.834	1	21
379.005	1	2
379.176	1	15
379.347	1	26
379.518	1	13
379.688	1	5
379.859	1	11
380.030	1	17
380.201	1	4
380.372	1	7
380.543	1	12
380.714	1	22
380.884	1	4
381.055	1	14
381.226	1	16
381.397	1	18
381.568	1	6
381.739	1	-1
381.910	1	7
382.080	1	6
382.251	1	20
382.422	1	4
382.593	1	4
382.764	1	13
382.935	1	5
383.105	1	3
383.276	1	11
383.447	1	3
383.618	1	5
383.789	1	3
383.960	1	2
384.130	1	7
384.301	1	17
384.472	1	2
384.643	1	-5
384.814	1	7
384.985	1	17
385.156	1	14
385.326	1	4
385.497	1	-6
385.668	1	5
385.839	1	6
386.010	1	9
386.180	1	8
386.351	1	8
386.522	1	8
386.693	1	5
386.864	1	6
387.035	1	20
387.205	1	-8
387.376	1	1
387.547	1	17
387.718	1	5
387.889	1	8
388.060	1	15
388.230	1	14
388.401	1	9
388.572	1	9
388.743	1	5
388.914	1	14
389.084	1	-4
389.255	1	14
389.426	1	0
389.597	1	4
389.768	1	10
389.939	1	11
390.109	1	3
390.280	1	8
390.451	1	3
390.622	1	3
390.793	1	12
390.963	1	10
391.134	1	-1
391.305	1	3
391.476	1	7
391.647	1	8
391.817	1	8
391.988	1	17
392.159	1	2
392.330	1	1
392.501	1	9
392.671	1	-1
392.842	1	13
393.013	1	4
393.184	1	9
393.355	1	4
393.525	1	0
393.696	1	7
393.867	1	6
394.038	1	4
394.208	1	6
394.379	1	12
394.550	1	0
394.721	1	1
394.892	1	5
395.062	1	15
395.233	1	-5
395.404	1	13
395.575	1	8
395.746	1	4
395.916	1	3
396.087	1	11
396.258	1	10
396.429	1	6
396.599	1	-4
396.770	1	3
396.941	1	16
397.112	1	-6
397.283	1	7
397.453	1	6
397.624	1	-5
397.795	1	14
397.966	1	1
398.136	1	2
398.307	1	2
398.478	1	5
398.649	1	7
398.819	1	-5
398.990	1	0
399.161	1	2
399.332	1	4
399.503	1	5
399.673	1	4
399.844	1	-1
400.015	1	-2
400.186	1	2
400.356	1	1
400.527	1	1
400.698	1	4
400.869	1	-8
401.039	1	7
401.210	1	5
401.381	1	13
401.552	1	-7
401.722	1	10
401.893	1	6
402.064	1	0
402.235	1	7
402.405	1	-6
402.576	1	1
402.747	1	-1
402.918	1	3
403.088	1	5
403.259	1	4
403.430	1	-5
403.601	1	-5
403.771	1	2
403.942	1	0
404.113	1	6
404.284	1	2
404.454	1	2
404.625	1	1
404.796	1	-2
404.967	1	1
405.137	1	0
405.308	1	-1
405.479	1	1
405.649	1	4
405.820	1	9
405.991	1	0
406.162	1	2
406.332	1	7
406.503	1	-8
406.674	1	6
406.845	1	11
407.015	1	3
407.186	1	-2
407.357	1	4
407.527	1	0
407.698	1	3
407.869	1	0
408.040	1	0
408.210	1	10
408.381	1	8
408.552	1	15
408.722	1	2
408.893	1	2
409.064	1	-7
409.235	1	-5
409.405	1	-7
409.576	1	0
409.747	1	3
409.917	1	1
410.088	1	-1
410.259	1	-9
410.430	1	-1
410.600	1	5
410.771	1	13
410.942	1	-1
411.112	1	10
411.283	1	-6
411.454	1	6
411.625	1	7
411.795	1	-1
411.966	1	6
412.137	1	-7
412.307	1	13
412.478	1	10
412.649	1	6
412.819	1	7
412.990	1	5
413.161	1	4
413.332	1	8
413.502	1	-1
413.673	1	1
413.844	1	0
414.014	1	3
414.185	1	-4
414.356	1	-7
414.526	1	-5
414.697	1	-2
414.868	1	2
415.038	1	5
415.209	1	7
415.380	1	-2
415.550	1	18
415.721	1	-6
415.892	1	4
416.063	1	4
416.233	1	1
416.404	1	-9
416.575	1	7
416.745	1	1
416.916	1	-10
417.087	1	0
417.257	1	3
417.428	1	7
417.599	1	0
417.769	1	-4
417.940	1	-7
418.111	1	7
418.281	1	13
418.452	1	9
418.623	1	-11
418.793	1	15
418.964	1	-12
419.135	1	-3
419.305	1	4
419.476	1	8
419.647	1	6
419.817	1	9
419.988	1	14
420.159	1	4
420.329	1	10
420.500	1	8
420.671	1	5
420.841	1	3
421.012	1	7
421.183	1	3
421.353	1	1
421.524	1	3
421.695	1	10
421.865	1	-1
422.036	1	4
422.206	1	-4
422.377	1	5
422.548	1	4
422.718	1	5
422.889	1	0
423.060	1	-2
423.230	1	10
423.401	1	9
423.572	1	7
423.742	1	1
423.913	1	-2
424.084	1	1
424.254	1	-9
424.425	1	-6
424.595	1	11
424.766	1	-7
424.937	1	10
425.107	1	6
425.278	1	15
425.449	1	-2
425.619	1	-3
425.790	1	2
425.961	1	6
426.131	1	-11
426.302	1	-3
426.472	1	-5
426.643	1	12
426.814	1	5
426.984	1	-5
427.155	1	12
427.326	1	1
427.496	1	-2
427.667	1	-2
427.837	1	-7
428.008	1	8
428.179	1	2
428.349	1	2
428.520	1	-1
428.691	1	7
428.861	1	2
429.032	1	4
429.202	1	8
429.373	1	-2
429.544	1	8
429.714	1	4
429.885	1	0
430.055	1	1
430.226	1	11
430.397	1	6
430.567	1	-3
430.738	1	-5
430.909	1	-3
431.079	1	10
431.250	1	10
431.420	1	2
431.591	1	14
431.762	1	-3
431.932	1	-2
432.103	1	-6
432.273	1	8
432.444	1	-4
432.615	1	7
432.785	1	6
432.956	1	3
433.126	1	9
433.297	1	7
433.468	1	-3
433.638	1	8
433.809	1	2
433.979	1	-2
434.150	1	6
434.320	1	11
434.491	1	0
434.662	1	-5
434.832	1	-12
435.003	1	1
435.173	1	-1
435.344	1	5
435.515	1	-5
435.685	1	-1
435.856	1	1
436.026	1	5
436.197	1	10
436.368	1	5
436.538	1	-1
436.709	1	-6
436.879	1	11
437.050	1	8
437.220	1	17
437.391	1	5
437.562	1	8
437.732	1	-3
437.903	1	-4
438.073	1	3
438.244	1	-4
438.414	1	-9
438.585	1	0
438.756	1	9
438.926	1	-2
439.097	1	0
439.267	1	13
439.438	1	2
439.608	1	2
439.779	1	2
439.949	1	9
440.120	1	-2
440.291	1	-3
440.461	1	2
440.632	1	-6
440.802	1	-7
440.973	1	2
441.143	1	-3
441.314	1	-10
441.485	1	1
441.655	1	-11
441.826	1	5
441.996	1	-15
442.167	1	1
442.337	1	5
442.508	1	-5
442.678	1	1
442.849	1	6
443.019	1	7
443.190	1	4
443.361	1	-2
443.531	1	4
443.702	1	8
443.872	1	5
444.043	1	12
444.213	1	3
444.384	1	3
444.554	1	2
444.725	1	14
444.895	1	3
445.066	1	-4
445.237	1	9
445.407	1	-9
445.578	1	4
445.748	1	-1
445.919	1	-9
446.089	1	26
446.260	1	-4
446.430	1	4
446.601	1	1
446.771	1	8
446.942	1	0
447.112	1	1
447.283	1	7
447.453	1	5
447.624	1	3
447.794	1	9
447.965	1	-5
448.135	1	6
448.306	1	9
448.477	1	2
448.647	1	-10
448.818	1	6
448.988	1	-6
449.159	1	-2
449.329	1	10
449.500	1	-17
449.670	1	-7
449.841	1	-7
450.011	1	1
450.182	1	12
450.352	1	9
450.523	1	-8
450.693	1	-3
450.864	1	7
451.034	1	11
451.205	1	0
451.375	1	-4
451.546	1	-1
451.716	1	-3
451.887	1	8
452.057	1	0
452.228	1	5
452.398	1	11
452.569	1	18
452.739	1	6
452.910	1	-5
453.080	1	5
453.251	1	0
453.421	1	3
453.592	1	2
453.762	1	2
453.933	1	3
454.103	1	-11
454.274	1	-6
454.444	1	4
454.615	1	-4
454.785	1	2
454.956	1	-1
455.126	1	0
455.297	1	9
455.467	1	1
455.638	1	-3
455.808	1	-3
455.979	1	-7
456.149	1	1
456.320	1	-6
456.490	1	-6
456.661	1	2
456.831	1	2
457.001	1	2
457.172	1	-2
457.342	1	-6
457.513	1	10
457.683	1	2
457.854	1	-4
458.024	1	-10
458.195	1	1
458.365	1	5
458.536	1	0
458.706	1	16
458.877	1	2
459.047	1	9
459.218	1	1
459.388	1	-1
459.559	1	2
459.729	1	-6
459.899	1	2
460.070	1	-13
460.240	1	2
460.411	1	8
460.581	1	7
460.752	1	1
460.922	1	1
461.093	1	2
461.263	1	-1
461.434	1	-2
461.604	1	5
461.775	1	-7
461.945	1	-8
462.115	1	13
462.286	1	12
462.456	1	7
462.627	1	5
462.797	1	7
462.968	1	-4
463.138	1	5
463.309	1	-5
463.479	1	-1
463.649	1	6
463.820	1	5
463.990	1	8
464.161	1	-7
464.331	1	-9
464.502	1	7
464.672	1	15
464.843	1	-2
465.013	1	-2
465.183	1	1
465.354	1	-5
465.524	1	6
465.695	1	4
465.865	1	13
466.036	1	-7
466.206	1	10
466.376	1	-7
466.547	1	9
466.717	1	7
466.888	1	3
467.058	1	5
467.229	1	12
467.399	1	12
467.569	1	12
467.740	1	-2
467.910	1	-3
468.081	1	0
468.251	1	10
468.422	1	0
468.592	1	17
468.762	1	0
468.933	1	6
469.103	1	3
469.274	1	5
469.444	1	1
469.614	1	-4
469.785	1	-2
469.955	1	-5
470.126	1	-5
470.296	1	2
470.467	1	1
470.637	1	-8
470.807	1	8
470.978	1	0
471.148	1	7
471.319	1	10
471.489	1	1
471.659	1	-9
471.830	1	0
472.000	1	-8
472.171	1	-5
472.341	1	1
472.511	1	3
472.682	1	0
472.852	1	2
473.023	1	3
473.193	1	4
473.363	1	5
473.534	1	5
473.704	1	-7
473.875	1	9
474.045	1	13
474.215	1	10
474.386	1	-3
474.556	1	4
474.727	1	4
474.897	1	-9
475.067	1	-2
475.238	1	-3
475.408	1	-9
475.578	1	-2
475.749	1	5
475.919	1	0
476.090	1	9
476.260	1	0
476.430	1	4
476.601	1	-4
476.771	1	3
476.942	1	-12
477.112	1	4
477.282	1	-4
477.453	1	-7
477.623	1	7
477.793	1	-6
477.964	1	-5
478.134	1	13
478.305	1	2
478.475	1	1
478.645	1	5
478.816	1	3
478.986	1	17
479.156	1	-7
479.327	1	3
479.497	1	8
479.667	1	0
479.838	1	7
480.008	1	6
480.179	1	1
480.349	1	-3
480.519	1	5
480.690	1	-6
480.860	1	7
481.030	1	7
481.201	1	11
481.371	1	0
481.541	1	1
481.712	1	1
481.882	1	10
482.053	1	-9
482.223	1	11
482.393	1	1
482.564	1	2
482.734	1	8
482.904	1	3
483.075	1	-16
483.245	1	-4
483.415	1	8
483.586	1	9
483.756	1	1
483.926	1	-6
484.097	1	9
484.267	1	0
484.437	1	3
484.608	1	-3
484.778	1	-8
484.948	1	5
485.119	1	-4
485.289	1	13
485.459	1	2
485.630	1	-2
485.800	1	-3
485.970	1	3
486.141	1	1
486.311	1	-6
486.481	1	-3
486.652	1	-1
486.822	1	3
486.992	1	6
487.163	1	-1
487.333	1	-5
487.503	1	0
487.674	1	8
487.844	1	1
488.014	1	2
488.185	1	-1
488.355	1	1
488.525	1	-1
488.696	1	4
488.866	1	1
489.036	1	15
489.207	1	11
489.377	1	1
489.547	1	-2
489.718	1	8
489.888	1	1
490.058	1	0
490.228	1	4
490.399	1	11
490.569	1	12
490.739	1	1
490.910	1	3
491.080	1	-5
491.250	1	10
491.421	1	5
491.591	1	1
491.761	1	19
491.932	1	7
492.102	1	5
492.272	1	7
492.442	1	-1
492.613	1	-5
492.783	1	-4
492.953	1	6
493.124	1	-7
493.294	1	0
493.464	1	12
493.635	1	4
493.805	1	9
493.975	1	6
494.145	1	2
494.316	1	-3
494.486	1	-4
494.656	1	1
494.827	1	1
494.997	1	14
495.167	1	20
495.337	1	2
495.508	1	14
495.678	1	8
495.848	1	7
496.019	1	6
496.189	1	2
496.359	1	-2
496.529	1	0
496.700	1	13
496.870	1	-3
497.040	1	4
497.211	1	4
497.381	1	5
497.551	1	12
497.721	1	-2
497.892	1	11
498.062	1	-3
498.232	1	-6
498.403	1	2
498.573	1	7
498.743	1	6
498.913	1	13
499.084	1	3
499.254	1	8
499.424	1	2
499.594	1	-4
499.765	1	-1
499.935	1	7
500.105	1	0
500.275	1	17
500.446	1	7
500.616	1	8
500.786	1	-3
500.956	1	7
501.127	1	7
501.297	1	-2
501.467	1	4
501.638	1	1
501.808	1	4
501.978	1	15
502.148	1	-1
502.319	1	16
502.489	1	-4
502.659	1	4
502.829	1	-6
503.000	1	4
503.170	1	8
503.340	1	5
503.510	1	-1
503.681	1	5
503.851	1	-1
504.021	1	5
504.191	1	12
504.362	1	-3
504.532	1	3
504.702	1	0
504.872	1	-6
505.042	1	5
505.213	1	2
505.383	1	8
505.553	1	3
505.723	1	9
505.894	1	1
506.064	1	3
506.234	1	-3
506.404	1	15
506.575	1	-1
506.745	1	6
506.915	1	5
507.085	1	-1
507.256	1	7
507.426	1	12
507.596	1	11
507.766	1	13
507.936	1	0
508.107	1	17
508.277	1	12
508.447	1	-5
508.617	1	3
508.788	1	4
508.958	1	19
509.128	1	6
509.298	1	-3
509.468	1	16
509.639	1	-2
509.809	1	1
509.979	1	7
510.149	1	9
510.319	1	18
510.490	1	12
510.660	1	6
510.830	1	4
511.000	1	4
511.171	1	0
511.341	1	3
511.511	1	4
511.681	1	8
511.851	1	1
512.022	1	5
512.192	1	12
512.362	1	1
512.532	1	14
512.702	1	-7
512.873	1	5
513.043	1	2
513.213	1	15
513.383	1	-2
513.553	1	3
513.724	1	10
513.894	1	16
514.064	1	2
514.234	1	9
514.404	1	3
514.575	1	12
514.745	1	10
514.915	1	-3
515.085	1	-3
515.255	1	5
515.425	1	1
515.596	1	10
515.766	1	7
515.936	1	10
516.106	1	17
516.276	1	3
516.447	1	14
516.617	1	-2
516.787	1	5
516.957	1	-2
517.127	1	5
517.297	1	5
517.468	1	18
517.638	1	-1
517.808	1	9
517.978	1	8
518.148	1	6
518.319	1	4
518.489	1	4
518.659	1	8
518.829	1	9
518.999	1	8
519.169	1	14
519.340	1	9
519.510	1	6
519.680	1	-6
519.850	1	0
520.020	1	6
520.190	1	14
520.361	1	11
520.531	1	1
520.701	1	13
520.871	1	-1
521.041	1	1
521.211	1	-4
521.382	1	-2
521.552	1	4
521.722	1	13
521.892	1	10
522.062	1	7
522.232	1	8
522.402	1	9
522.573	1	1
522.743	1	2
522.913	1	12
523.083	1	10
523.253	1	-1
523.423	1	12
523.593	1	-2
523.764	1	13
523.934	1	4
524.104	1	9
524.274	1	9
524.444	1	18
524.614	1	15
524.784	1	18
524.955	1	-2
525.125	1	4
525.295	1	9
525.465	1	2
525.635	1	7
525.805	1	-4
525.975	1	10
526.146	1	0
526.316	1	14
526.486	1	11
526.656	1	14
526.826	1	16
526.996	1	-6
527.166	1	12
527.337	1	6
527.507	1	9
527.677	1	7
527.847	1	9
528.017	1	8
528.187	1	14
528.357	1	9
528.527	1	8
528.698	1	4
528.868	1	11
529.038	1	-4
529.208	1	5
529.378	1	3
529.548	1	10
529.718	1	11
529.888	1	3
530.058	1	4
530.229	1	11
530.399	1	10
530.569	1	-3
530.739	1	4
530.909	1	23
531.079	1	10
531.249	1	2
531.419	1	2
531.589	1	15
531.760	1	14
531.930	1	3
532.100	1	14
532.270	1	16
532.440	1	-4
532.610	1	3
532.780	1	5
532.950	1	2
533.120	1	3
533.290	1	-2
533.461	1	9
533.631	1	8
533.801	1	10
533.971	1	9
534.141	1	12
534.311	1	-2
534.481	1	-3
534.651	1	3
534.821	1	-3
534.991	1	2
535.162	1	6
535.332	1	10
535.502	1	5
535.672	1	2
535.842	1	3
536.012	1	0
536.182	1	12
536.352	1	-1
536.522	1	4
536.692	1	-5
536.862	1	3
537.032	1	2
537.203	1	-3
537.373	1	12
537.543	1	10
537.713	1	14
537.883	1	-1
538.053	1	10
538.223	1	5
538.393	1	9
538.563	1	16
538.733	1	0
538.903	1	5
539.073	1	12
539.243	1	-3
539.413	1	-2
539.584	1	4
539.754	1	12
539.924	1	5
540.094	1	18
540.264	1	7
540.434	1	0
540.604	1	15
540.774	1	-1
540.944	1	6
541.114	1	1
541.284	1	5
541.454	1	8
541.624	1	7
541.794	1	9
541.964	1	3
542.134	1	2
542.305	1	3
542.475	1	5
542.645	1	21
542.815	1	12
542.985	1	-4
543.155	1	18
543.325	1	-2
543.495	1	14
543.665	1	19
543.835	1	5
544.005	1	6
544.175	1	17
544.345	1	5
544.515	1	-1
544.685	1	13
544.855	1	2
545.025	1	14
545.195	1	11
545.365	1	7
545.535	1	17
545.705	1	7
545.875	1	5
546.045	1	6
546.216	1	16
546.386	1	2
546.556	1	4
546.726	1	10
546.896	1	13
547.066	1	5
547.236	1	10
547.406	1	9
547.576	1	6
547.746	1	0
547.916	1	8
548.086	1	3
548.256	1	1
548.426	1	11
548.596	1	11
548.766	1	3
548.936	1	1
549.106	1	-6
549.276	1	-4
549.446	1	-4
549.616	1	3
549.786	1	19
549.956	1	8
550.126	1	9
550.296	1	13
550.466	1	10
550.636	1	12
550.806	1	7
550.976	1	6
551.146	1	5
551.316	1	8
551.486	1	12
551.656	1	-11
551.826	1	-2
551.996	1	2
552.166	1	6
552.336	1	18
552.506	1	3
552.676	1	8
552.846	1	9
553.016	1	4
553.186	1	2
553.356	1	13
553.526	1	11
553.696	1	-1
553.866	1	9
554.036	1	5
554.206	1	15
554.376	1	2
554.546	1	8
554.716	1	5
554.886	1	0
555.056	1	8
555.226	1	1
555.396	1	6
555.566	1	6
555.736	1	4
555.906	1	5
556.076	1	-1
556.246	1	8
556.416	1	12
556.586	1	2
556.756	1	9
556.926	1	10
557.096	1	10
557.266	1	8
557.436	1	13
557.606	1	11
557.776	1	2
557.946	1	3
558.116	1	7
558.286	1	-7
558.456	1	-2
558.626	1	7
558.796	1	13
558.966	1	4
559.136	1	3
559.306	1	5
559.476	1	8
559.646	1	12
559.816	1	4
559.986	1	-1
560.155	1	0
560.325	1	2
560.495	1	9
560.665	1	-2
560.835	1	1
561.005	1	1
561.175	1	0
561.345	1	4
561.515	1	-1
561.685	1	12
561.855	1	3
562.025	1	8
562.195	1	7
562.365	1	8
562.535	1	9
562.705	1	17
562.875	1	6
563.045	1	5
563.215	1	15
563.385	1	10
563.555	1	2
563.725	1	4
563.895	1	6
564.064	1	4
564.234	1	13
564.404	1	-3
564.574	1	-2
564.744	1	-5
564.914	1	8
565.084	1	-3
565.254	1	6
565.424	1	-1
565.594	1	8
565.764	1	5
565.934	1	12
566.104	1	-1
566.274	1	8
566.444	1	8
566.614	1	4
566.783	1	-2
566.953	1	3
567.123	1	5
567.293	1	-5
567.463	1	14
567.633	1	5
567.803	1	12
567.973	1	10
568.143	1	5
568.313	1	3
568.483	1	9
568.653	1	9
568.823	1	11
568.993	1	5
569.162	1	1
569.332	1	11
569.502	1	18
569.672	1	5
569.842	1	10
570.012	1	12
570.182	1	4
570.352	1	-7
570.522	1	2
570.692	1	-1
570.862	1	5
571.031	1	4
571.201	1	3
571.371	1	15
571.541	1	7
571.711	1	10
571.881	1	3
572.051	1	-3
572.221	1	-2
572.391	1	8
572.561	1	12
572.731	1	1
572.900	1	-1
573.070	1	3
573.240	1	9
573.410	1	3
573.580	1	4
573.750	1	4
573.920	1	4
574.090	1	4
574.260	1	3
574.430	1	-5
574.599	1	0
574.769	1	9
574.939	1	1
575.109	1	1
575.279	1	1
575.449	1	11
575.619	1	-4
575.789	1	8
575.959	1	3
576.128	1	8
576.298	1	-2
576.468	1	10
576.638	1	13
576.808	1	15
576.978	1	-6
577.148	1	7
577.318	1	9
577.487	1	14
577.657	1	-8
577.827	1	-4
577.997	1	1
578.167	1	12
578.337	1	5
578.507	1	16
578.677	1	5
578.846	1	11
579.016	1	23
579.186	1	1
579.356	1	3
579.526	1	14
579.696	1	4
579.866	1	2
580.036	1	6
580.205	1	5
580.375	1	9
580.545	1	3
580.715	1	3
580.885	1	-1
581.055	1	1
581.225	1	6
581.394	1	10
581.564	1	12
581.734	1	3
581.904	1	9
582.074	1	-1
582.244	1	8
582.414	1	-7
582.583	1	10
582.753	1	5
582.923	1	5
583.093	1	-7
583.263	1	7
583.433	1	12
583.603	1	12
583.772	1	2
583.942	1	3
584.112	1	-7
584.282	1	7
584.452	1	6
584.622	1	0
584.791	1	13
584.961	1	7
585.131	1	3
585.301	1	-5
585.471	1	7
585.641	1	3
585.811	1	7
585.980	1	5
586.150	1	2
586.320	1	-2
586.490	1	-2
586.660	1	3
586.830	1	6
586.999	1	10
587.169	1	12
587.339	1	2
587.509	1	1
587.679	1	4
587.849	1	0
588.018	1	17
588.188	1	0
588.358	1	7
588.528	1	11
588.698	1	9
588.867	1	0
589.037	1	2
589.207	1	1
589.377	1	-3
589.547	1	4
589.717	1	2
589.886	1	0
590.056	1	4
590.226	1	-4
590.396	1	6
590.566	1	9
590.735	1	27
590.905	1	-1
591.075	1	-7
591.245	1	12
591.415	1	-1
591.585	1	-7
591.754	1	16
591.924	1	4
592.094	1	8
592.264	1	0
592.434	1	4
592.603	1	9
592.773	1	-1
592.943	1	5
593.113	1	-5
593.283	1	1
593.452	1	15
593.622	1	5
593.792	1	10
593.962	1	3
594.132	1	12
594.301	1	5
594.471	1	10
594.641	1	-4
594.811	1	0
594.981	1	-6
595.150	1	13
595.320	1	14
595.490	1	6
595.660	1	7
595.829	1	10
595.999	1	16
596.169	1	21
596.339	1	-2
596.509	1	15
596.678	1	-1
596.848	1	12
597.018	1	-4
597.188	1	-3
597.358	1	-10
597.527	1	1
597.697	1	-4
597.867	1	12
598.037	1	8
598.206	1	3
598.376	1	-5
598.546	1	-3
598.716	1	6
598.885	1	7
599.055	1	9
599.225	1	9
599.395	1	-1
599.565	1	-2
599.734	1	7
599.904	1	0
600.074	1	0
600.244	1	9
600.413	1	7
600.583	1	12
600.753	1	9
600.923	1	4
601.092	1	4
601.262	1	8
601.432	1	4
601.602	1	-1
601.771	1	3
601.941	1	7
602.111	1	3
602.281	1	-2
602.451	1	-2
602.620	1	-6
602.790	1	11
602.960	1	5
603.130	1	8
603.299	1	14
603.469	1	2
603.639	1	8
603.809	1	5
603.978	1	-9
604.148	1	4
604.318	1	19
604.487	1	-10
604.657	1	0
604.827	1	0
604.997	1	6
605.166	1	6
605.336	1	-4
605.506	1	-7
605.676	1	9
605.845	1	9
606.015	1	2
606.185	1	2
606.355	1	8
606.524	1	4
606.694	1	3
606.864	1	-3
607.034	1	5
607.203	1	13
607.373	1	4
607.543	1	-4
607.712	1	8
607.882	1	0
608.052	1	4
608.222	1	-2
608.391	1	16
608.561	1	7
608.731	1	1
608.901	1	8
609.070	1	12
609.240	1	5
609.410	1	3
609.579	1	-1
609.749	1	3
609.919	1	7
610.089	1	-1
610.258	1	6
610.428	1	3
610.598	1	2
610.767	1	-2
610.937	1	-3
611.107	1	-3
611.277	1	7
611.446	1	-1
611.616	1	10
611.786	1	10
611.955	1	1
612.125	1	0
612.295	1	1
612.465	1	7
612.634	1	9
612.804	1	7
612.974	1	-9
613.143	1	-2
613.313	1	2
613.483	1	13
613.652	1	1
613.822	1	-4
613.992	1	12
614.162	1	-1
614.331	1	7
614.501	1	5
614.671	1	-3
614.840	1	7
615.010	1	3
615.180	1	2
615.349	1	0
615.519	1	6
615.689	1	6
615.858	1	7
616.028	1	4
616.198	1	8
616.368	1	-1
616.537	1	-4
616.707	1	9
616.877	1	7
617.046	1	9
617.216	1	20
617.386	1	9
617.555	1	-1
617.725	1	-3
617.895	1	6
618.064	1	2
618.234	1	-2
618.404	1	0
618.573	1	5
618.743	1	22
618.913	1	3
619.082	1	5
619.252	1	7
619.422	1	7
619.591	1	-5
619.761	1	5
619.931	1	0
620.100	1	1
620.270	1	-3
620.440	1	2
620.609	1	0
620.779	1	6
620.949	1	10
621.118	1	2
621.288	1	9
621.458	1	11
621.627	1	15
621.797	1	11
621.967	1	5
622.136	1	6
622.306	1	-7
622.476	1	-1
622.645	1	-7
622.815	1	-4
622.985	1	6
623.154	1	-4
623.324	1	10
623.494	1	14
623.663	1	13
623.833	1	-5
624.002	1	5
624.172	1	9
624.342	1	4
624.511	1	6
624.681	1	3
624.851	1	10
625.020	1	17
625.190	1	-4
625.360	1	3
625.529	1	2
625.699	1	7
625.869	1	-4
626.038	1	4
626.208	1	0
626.377	1	4
626.547	1	4
626.717	1	1
626.886	1	-6
627.056	1	2
627.226	1	9
627.395	1	-4
627.565	1	1
627.735	1	7
627.904	1	14
628.074	1	-4
628.243	1	3
628.413	1	12
628.583	1	10
628.752	1	-3
628.922	1	4
629.091	1	1
629.261	1	0
629.431	1	3
629.600	1	1
629.770	1	8
629.940	1	-4
630.109	1	-6
630.279	1	11
630.448	1	6
630.618	1	-3
630.788	1	-2
630.957	1	7
631.127	1	1
631.297	1	2
631.466	1	7
631.636	1	-1
631.805	1	9
631.975	1	6
632.145	1	2
632.314	1	-11
632.484	1	6
632.653	1	-2
632.823	1	-2
632.993	1	7
633.162	1	1
633.332	1	-2
633.501	1	-4
633.671	1	-5
633.841	1	2
634.010	1	-1
634.180	1	-11
634.349	1	7
634.519	1	5
634.689	1	7
634.858	1	-2
635.028	1	5
635.197	1	12
635.367	1	0
635.537	1	-5
635.706	1	0
635.876	1	0
636.045	1	-8
636.215	1	-5
636.384	1	-1
636.554	1	12
636.724	1	6
636.893	1	4
637.063	1	9
637.232	1	3
637.402	1	8
637.572	1	9
637.741	1	2
637.911	1	-1
638.080	1	1
638.250	1	3
638.419	1	3
638.589	1	0
638.759	1	-5
638.928	1	5
639.098	1	7
639.267	1	-9
639.437	1	3
639.606	1	-8
639.776	1	-1
639.946	1	3
640.115	1	-3
640.285	1	5
640.454	1	12
640.624	1	16
640.793	1	-1
640.963	1	0
641.132	1	-1
641.302	1	8
641.472	1	4
641.641	1	-10
641.811	1	-7
641.980	1	0
642.150	1	5
642.319	1	8
642.489	1	-9
642.659	1	1
642.828	1	6
642.998	1	-7
643.167	1	0
643.337	1	2
643.506	1	16
643.676	1	-1
643.845	1	5
644.015	1	1
644.184	1	3
644.354	1	-3
644.524	1	5
644.693	1	2
644.863	1	5
645.032	1	0
645.202	1	7
645.371	1	-5
645.541	1	-5
645.710	1	1
645.880	1	-2
646.049	1	7
646.219	1	11
646.388	1	2
646.558	1	4
646.728	1	3
646.897	1	13
647.067	1	14
647.236	1	-3
647.406	1	0
647.575	1	8
647.745	1	3
647.914	1	0
648.084	1	-7
648.253	1	-1
648.423	1	1
648.592	1	1
648.762	1	8
648.931	1	0
649.101	1	-9
649.270	1	7
649.440	1	4
649.610	1	-6
649.779	1	2
649.949	1	0
650.118	1	0
650.288	1	-1
650.457	1	-3
650.627	1	-2
650.796	1	-1
650.966	1	-3
651.135	1	6
651.305	1	1
651.474	1	6
651.644	1	1
651.813	1	2
651.983	1	13
652.152	1	9
652.322	1	-9
652.491	1	4
652.661	1	-3
652.830	1	8
653.000	1	1
653.169	1	0
653.339	1	10
653.508	1	9
653.678	1	-6
653.847	1	-1
654.017	1	4
654.186	1	3
654.356	1	-2
654.525	1	-4
654.695	1	3
654.864	1	3
655.034	1	2
655.203	1	-3
655.373	1	13
655.542	1	0
655.712	1	-3
655.881	1	10
656.051	1	-3
656.220	1	4
656.390	1	0
656.559	1	7
656.729	1	3
656.898	1	4
657.068	1	1
657.237	1	5
657.406	1	3
657.576	1	0
657.745	1	4
657.915	1	3
658.084	1	4
658.254	1	6
658.423	1	7
658.593	1	-2
658.762	1	10
658.932	1	-1
659.101	1	-3
659.271	1	3
659.440	1	-1
659.610	1	13
659.779	1	6
659.949	1	-4
660.118	1	-3
660.288	1	-5
660.457	1	-2
660.626	1	9
660.796	1	2
660.965	1	-3
661.135	1	5
661.304	1	-2
661.474	1	-3
661.643	1	4
661.813	1	4
661.982	1	-5
662.152	1	10
662.321	1	1
662.491	1	1
662.660	1	-4
662.829	1	0
662.999	1	15
663.168	1	10
663.338	1	9
663.507	1	0
663.677	1	-3
663.846	1	-1
664.016	1	2
664.185	1	10
664.354	1	5
664.524	1	-8
664.693	1	4
664.863	1	-1
665.032	1	14
665.202	1	-8
665.371	1	3
665.541	1	-8
665.710	1	2
665.879	1	0
666.049	1	-1
666.218	1	3
666.388	1	10
666.557	1	4
666.727	1	1
666.896	1	3
667.065	1	6
667.235	1	9
667.404	1	3
667.574	1	-2
667.743	1	3
667.913	1	-1
668.082	1	7
668.251	1	11
668.421	1	-6
668.590	1	5
668.760	1	6
668.929	1	-2
669.099	1	1
669.268	1	6
669.437	1	-7
669.607	1	10
669.776	1	0
669.946	1	-4
670.115	1	-3
670.285	1	0
670.454	1	8
670.623	1	-1
670.793	1	3
670.962	1	11
671.132	1	1
671.301	1	0
671.470	1	-1
671.640	1	6
671.809	1	1
671.979	1	-1
672.148	1	4
672.317	1	12
672.487	1	-3
672.656	1	10
672.826	1	2
672.995	1	4
673.164	1	12
673.334	1	7
673.503	1	0
673.673	1	5
673.842	1	-3
674.011	1	8
674.181	1	15
674.350	1	-1
674.520	1	12
674.689	1	-4
674.858	1	-8
675.028	1	2
675.197	1	-1
675.367	1	4
675.536	1	19
675.705	1	-7
675.875	1	-6
676.044	1	-4
676.214	1	2
676.383	1	8
676.552	1	7
676.722	1	-2
676.891	1	0
677.060	1	-9
677.230	1	8
677.399	1	4
677.569	1	16
677.738	1	9
677.907	1	20
678.077	1	9
678.246	1	4
678.416	1	-3
678.585	1	-5
678.754	1	-5
678.924	1	2
679.093	1	11
679.262	1	14
679.432	1	12
679.601	1	11
679.771	1	-4
679.940	1	-1
680.109	1	-6
680.279	1	10
680.448	1	-6
680.617	1	11
680.787	1	4
680.956	1	3
681.125	1	5
681.295	1	2
681.464	1	9
681.634	1	-1
681.803	1	4
681.972	1	-2
682.142	1	0
682.311	1	-2
682.480	1	-1
682.650	1	-1
682.819	1	8
682.988	1	2
683.158	1	12
683.327	1	13
683.496	1	8
683.666	1	0
683.835	1	-7
684.004	1	-2
684.174	1	3
684.343	1	-5
684.512	1	-5
684.682	1	-3
684.851	1	2
685.021	1	-3
685.190	1	13
685.359	1	-9
685.529	1	3
685.698	1	4
685.867	1	3
686.037	1	3
686.206	1	13
686.375	1	8
686.545	1	6
686.714	1	0
686.883	1	7
687.053	1	-8
687.222	1	0
687.391	1	0
687.561	1	0
687.730	1	4
687.899	1	9
688.069	1	4
688.238	1	4
688.407	1	-2
688.577	1	7
688.746	1	-1
