340.368	1	9
340.539	1	5
340.710	1	-6
340.881	1	-5
341.052	1	8
341.223	1	-11
341.394	1	-5
341.565	1	17
341.737	1	7
341.908	1	-5
342.079	1	-4
342.250	1	13
342.421	1	-5
342.592	1	-9
342.763	1	4
342.934	1	7
343.105	1	1
343.276	1	-1
343.447	1	4
343.618	1	6
343.789	1	13
343.960	1	4
344.131	1	11
344.302	1	13
344.473	1	1
344.644	1	4
344.815	1	-7
344.986	1	-1
345.157	1	6
345.328	1	-9
345.499	1	6
345.670	1	-5
345.841	1	-2
346.012	1	8
346.183	1	-9
346.354	1	-1
346.526	1	5
346.697	1	2
346.868	1	9
347.039	1	-5
347.210	1	0
347.381	1	-1
347.552	1	1
347.723	1	-1
347.894	1	-5
348.065	1	3
348.236	1	-1
348.407	1	5
348.578	1	6
348.749	1	-9
348.920	1	-5
349.091	1	1
349.262	1	14
349.433	1	2
349.604	1	0
349.775	1	-1
349.946	1	-7
350.117	1	-2
350.288	1	4
350.459	1	-2
350.630	1	1
350.801	1	2
350.972	1	3
351.143	1	-9
351.314	1	0
351.485	1	-6
351.656	1	6
351.827	1	-2
351.998	1	6
352.169	1	-8
352.340	1	3
352.511	1	3
352.682	1	-3
352.853	1	7
353.024	1	3
353.195	1	-4
353.366	1	-8
353.537	1	7
353.708	1	-4
353.879	1	10
354.050	1	3
354.221	1	-4
354.392	1	0
354.563	1	3
354.734	1	-11
354.905	1	8
355.076	1	5
355.247	1	-4
355.418	1	1
355.589	1	-1
355.760	1	1
355.931	1	4
356.102	1	-3
356.273	1	10
356.444	1	5
356.615	1	2
356.785	1	1
356.956	1	6
357.127	1	0
357.298	1	6
357.469	1	14
357.640	1	0
357.811	1	0
357.982	1	6
358.153	1	-10
358.324	1	4
358.495	1	5
358.666	1	12
358.837	1	7
359.008	1	-1
359.179	1	0
359.350	1	6
359.521	1	8
359.692	1	7
359.863	1	-7
360.034	1	1
360.205	1	1
360.376	1	5
360.547	1	5
360.718	1	8
360.889	1	6
361.060	1	-5
361.231	1	0
361.401	1	9
361.572	1	11
361.743	1	8
361.914	1	7
362.085	1	15
362.256	1	3
362.427	1	10
362.598	1	5
362.769	1	17
362.940	1	5
363.111	1	7
363.282	1	15
363.453	1	16
363.624	1	10
363.795	1	8
363.966	1	15
364.137	1	13
364.308	1	16
364.478	1	17
364.649	1	24
364.820	1	20
364.991	1	18
365.162	1	26
365.333	1	16
365.504	1	17
365.675	1	19
365.846	1	17
366.017	1	25
366.188	1	21
366.359	1	18
366.530	1	33
366.701	1	27
366.871	1	22
367.042	1	43
367.213	1	30
367.384	1	30
367.555	1	33
367.726	1	36
367.897	1	33
368.068	1	38
368.239	1	45
368.410	1	33
368.581	1	42
368.752	1	24
368.923	1	37
369.093	1	35
369.264	1	36
369.435	1	31
369.606	1	37
369.777	1	35
369.948	1	21
370.119	1	31
370.290	1	19
370.461	1	25
370.632	1	31
370.803	1	25
370.973	1	31
371.144	1	34
371.315	1	28
371.486	1	22
371.657	1	37
371.828	1	31
371.999	1	6
372.170	1	30
372.341	1	31
372.512	1	20
372.682	1	16
372.853	1	25
373.024	1	17
373.195	1	16
373.366	1	15
373.537	1	24
373.708	1	14
373.879	1	23
374.050	1	27
374.220	1	9
374.391	1	6
374.562	1	25
374.733	1	19
374.904	1	12
375.075	1	5
375.246	1	18
375.417	1	9
375.588	1	19
375.758	1	23
375.929	1	7
376.100	1	16
376.271	1	16
376.442	1	18
376.613	1	21
376.784	1	7
376.955	1	11
377.125	1	16
377.296	1	20
377.467	1	12
377.638	1	16
377.809	1	14
377.980	1	17
378.151	1	10
378.321	1	6
378.492	1	15
378.663	1	12
378.834	1	9
379.005	1	3
379.176	1	12
379.347	1	18
379.518	1	8
379.688	1	7
379.859	1	9
380.030	1	11
380.201	1	-2
380.372	1	-5
380.543	1	12
380.714	1	16
380.884	1	10
381.055	1	7
381.226	1	4
381.397	1	27
381.568	1	5
381.739	1	15
381.910	1	-2
382.080	1	2
382.251	1	11
382.422	1	4
382.593	1	13
382.764	1	7
382.935	1	9
383.105	1	6
383.276	1	12
383.447	1	-4
383.618	1	12
383.789	1	16
383.960	1	-2
384.130	1	6
384.301	1	16
384.472	1	-1
384.643	1	4
384.814	1	-1
384.985	1	6
385.156	1	15
385.326	1	11
385.497	1	-1
385.668	1	4
385.839	1	-1
386.010	1	5
386.180	1	3
386.351	1	-4
386.522	1	5
386.693	1	10
386.864	1	8
387.035	1	13
387.205	1	-4
387.376	1	5
387.547	1	19
387.718	1	8
387.889	1	4
388.060	1	-2
388.230	1	5
388.401	1	13
388.572	1	3
388.743	1	9
388.914	1	9
389.084	1	1
389.255	1	2
389.426	1	-2
389.597	1	-3
389.768	1	13
389.939	1	-2
390.109	1	1
390.280	1	5
390.451	1	9
390.622	1	-1
390.793	1	-6
390.963	1	6
391.134	1	0
391.305	1	-3
391.476	1	16
391.647	1	-2
391.817	1	14
391.988	1	5
392.159	1	1
392.330	1	-4
392.501	1	1
392.671	1	-9
392.842	1	5
393.013	1	11
393.184	1	-4
393.355	1	-2
393.525	1	0
393.696	1	4
393.867	1	4
394.038	1	4
394.208	1	8
394.379	1	3
394.550	1	2
394.721	1	-3
394.892	1	3
395.062	1	5
395.233	1	-1
395.404	1	-2
395.575	1	11
395.746	1	1
395.916	1	2
396.087	1	9
396.258	1	11
396.429	1	6
396.599	1	-4
396.770	1	-2
396.941	1	4
397.112	1	-8
397.283	1	4
397.453	1	7
397.624	1	-5
397.795	1	13
397.966	1	6
398.136	1	-2
398.307	1	5
398.478	1	2
398.649	1	11
398.819	1	-7
398.990	1	-9
399.161	1	0
399.332	1	0
399.503	1	11
399.673	1	11
399.844	1	1
400.015	1	-8
400.186	1	-1
400.356	1	9
400.527	1	3
400.698	1	2
400.869	1	-4
401.039	1	-3
401.210	1	5
401.381	1	8
401.552	1	-2
401.722	1	2
401.893	1	4
402.064	1	-1
402.235	1	1
402.405	1	2
402.576	1	3
402.747	1	-10
402.918	1	11
403.088	1	-2
403.259	1	8
403.430	1	-1
403.601	1	-1
403.771	1	12
403.942	1	-2
404.113	1	-7
404.284	1	-3
404.454	1	-2
404.625	1	-7
404.796	1	0
404.967	1	4
405.137	1	0
405.308	1	-1
405.479	1	1
405.649	1	10
405.820	1	5
405.991	1	-1
406.162	1	3
406.332	1	-4
406.503	1	-8
406.674	1	11
406.845	1	17
407.015	1	2
407.186	1	-10
407.357	1	-1
407.527	1	-3
407.698	1	-5
407.869	1	-5
408.040	1	9
408.210	1	9
408.381	1	11
408.552	1	10
408.722	1	3
408.893	1	1
409.064	1	9
409.235	1	13
409.405	1	-5
409.576	1	-6
409.747	1	-2
409.917	1	-4
410.088	1	2
410.259	1	2
410.430	1	-3
410.600	1	4
410.771	1	1
410.942	1	-3
411.112	1	9
411.283	1	-1
411.454	1	6
411.625	1	4
411.795	1	-2
411.966	1	11
412.137	1	-7
412.307	1	8
412.478	1	-3
412.649	1	1
412.819	1	-3
412.990	1	5
413.161	1	5
413.332	1	7
413.502	1	-3
413.673	1	-5
413.844	1	-1
414.014	1	11
414.185	1	-5
414.356	1	-4
414.526	1	-9
414.697	1	-1
414.868	1	5
415.038	1	9
415.209	1	0
415.380	1	1
415.550	1	11
415.721	1	-11
415.892	1	7
416.063	1	-4
416.233	1	2
416.404	1	-5
416.575	1	8
416.745	1	8
416.916	1	1
417.087	1	-1
417.257	1	-1
417.428	1	9
417.599	1	1
417.769	1	0
417.940	1	2
418.111	1	1
418.281	1	10
418.452	1	3
418.623	1	3
418.793	1	10
418.964	1	0
419.135	1	-3
419.305	1	1
419.476	1	10
419.647	1	-5
419.817	1	3
419.988	1	0
420.159	1	-1
420.329	1	6
420.500	1	7
420.671	1	-4
420.841	1	1
421.012	1	6
421.183	1	-8
421.353	1	-3
421.524	1	2
421.695	1	2
421.865	1	-1
422.036	1	2
422.206	1	5
422.377	1	7
422.548	1	2
422.718	1	4
422.889	1	5
423.060	1	9
423.230	1	-4
423.401	1	7
423.572	1	17
423.742	1	3
423.913	1	-3
424.084	1	8
424.254	1	-9
424.425	1	0
424.595	1	10
424.766	1	-3
424.937	1	6
425.107	1	17
425.278	1	2
425.449	1	7
425.619	1	1
425.790	1	4
425.961	1	5
426.131	1	3
426.302	1	-7
426.472	1	0
426.643	1	5
426.814	1	2
426.984	1	-3
427.155	1	11
427.326	1	1
427.496	1	-8
427.667	1	1
427.837	1	-1
428.008	1	1
428.179	1	3
428.349	1	-4
428.520	1	6
428.691	1	13
428.861	1	4
429.032	1	8
429.202	1	5
429.373	1	9
429.544	1	-3
429.714	1	-3
429.885	1	-7
430.055	1	0
430.226	1	0
430.397	1	5
430.567	1	-6
430.738	1	-8
430.909	1	2
431.079	1	13
431.250	1	5
431.420	1	5
431.591	1	9
431.762	1	-7
431.932	1	6
432.103	1	0
432.273	1	4
432.444	1	-6
432.615	1	3
432.785	1	3
432.956	1	0
433.126	1	11
433.297	1	3
433.468	1	-2
433.638	1	6
433.809	1	9
433.979	1	1
434.150	1	2
434.320	1	-1
434.491	1	4
434.662	1	8
434.832	1	-11
435.003	1	-7
435.173	1	4
435.344	1	-17
435.515	1	-4
435.685	1	-1
435.856	1	13
436.026	1	-1
436.197	1	2
436.368	1	-5
436.538	1	2
436.709	1	-2
436.879	1	-5
437.050	1	10
437.220	1	1
437.391	1	3
437.562	1	11
437.732	1	10
437.903	1	-2
438.073	1	7
438.244	1	4
438.414	1	-6
438.585	1	-8
438.756	1	9
438.926	1	-9
439.097	1	2
439.267	1	6
439.438	1	2
439.608	1	7
439.779	1	4
439.949	1	0
440.120	1	-4
440.291	1	-3
440.461	1	0
440.632	1	1
440.802	1	-4
440.973	1	7
441.143	1	-2
441.314	1	2
441.485	1	9
441.655	1	-3
441.826	1	3
441.996	1	-3
442.167	1	3
442.337	1	-1
442.508	1	-2
442.678	1	-3
442.849	1	17
443.019	1	2
443.190	1	0
443.361	1	-2
443.531	1	-4
443.702	1	-1
443.872	1	0
444.043	1	10
444.213	1	1
444.384	1	2
444.554	1	1
444.725	1	13
444.895	1	6
445.066	1	10
445.237	1	-9
445.407	1	-4
445.578	1	1
445.748	1	-5
445.919	1	-11
446.089	1	14
446.260	1	-6
446.430	1	9
446.601	1	6
446.771	1	7
446.942	1	-7
447.112	1	1
447.283	1	4
447.453	1	6
447.624	1	-9
447.794	1	13
447.965	1	-1
448.135	1	5
448.306	1	4
448.477	1	1
448.647	1	-10
448.818	1	0
448.988	1	2
449.159	1	-2
449.329	1	-3
449.500	1	-5
449.670	1	-5
449.841	1	-6
450.011	1	-3
450.182	1	5
450.352	1	8
450.523	1	1
450.693	1	-6
450.864	1	2
451.034	1	12
451.205	1	-3
451.375	1	-4
451.546	1	-1
451.716	1	-1
451.887	1	4
452.057	1	1
452.228	1	4
452.398	1	0
452.569	1	10
452.739	1	6
452.910	1	6
453.080	1	2
453.251	1	-1
453.421	1	4
453.592	1	6
453.762	1	-3
453.933	1	1
454.103	1	-4
454.274	1	2
454.444	1	0
454.615	1	2
454.785	1	-4
454.956	1	5
455.126	1	4
455.297	1	12
455.467	1	1
455.638	1	1
455.808	1	-4
455.979	1	-2
456.149	1	-2
456.320	1	-4
456.490	1	2
456.661	1	-6
456.831	1	0
457.001	1	8
457.172	1	-2
457.342	1	0
457.513	1	2
457.683	1	4
457.854	1	-3
458.024	1	-3
458.195	1	3
458.365	1	10
458.536	1	10
458.706	1	16
458.877	1	3
459.047	1	1
459.218	1	-1
459.388	1	-1
459.559	1	-4
459.729	1	0
459.899	1	7
460.070	1	3
460.240	1	0
460.411	1	3
460.581	1	-7
460.752	1	-3
460.922	1	-4
461.093	1	-4
461.263	1	-1
461.434	1	-1
461.604	1	-2
461.775	1	-9
461.945	1	-3
462.115	1	8
462.286	1	4
462.456	1	-1
462.627	1	-9
462.797	1	1
462.968	1	16
463.138	1	4
463.309	1	-4
463.479	1	0
463.649	1	5
463.820	1	4
463.990	1	3
464.161	1	-8
464.331	1	-3
464.502	1	-1
464.672	1	6
464.843	1	-3
465.013	1	-5
465.183	1	3
465.354	1	-2
465.524	1	-1
465.695	1	11
465.865	1	6
466.036	1	0
466.206	1	5
466.376	1	1
466.547	1	2
466.717	1	10
466.888	1	-4
467.058	1	10
467.229	1	14
467.399	1	-1
467.569	1	8
467.740	1	4
467.910	1	-6
468.081	1	0
468.251	1	4
468.422	1	13
468.592	1	15
468.762	1	-1
468.933	1	-3
469.103	1	3
469.274	1	1
469.444	1	3
469.614	1	-4
469.785	1	-2
469.955	1	-5
470.126	1	-3
470.296	1	-1
470.467	1	7
470.637	1	-4
470.807	1	6
470.978	1	-5
471.148	1	8
471.319	1	7
471.489	1	7
471.659	1	-6
471.830	1	-7
472.000	1	-8
472.171	1	1
472.341	1	1
472.511	1	4
472.682	1	-8
472.852	1	0
473.023	1	10
473.193	1	-5
473.363	1	11
473.534	1	14
473.704	1	0
473.875	1	4
474.045	1	4
474.215	1	10
474.386	1	5
474.556	1	12
474.727	1	-4
474.897	1	-7
475.067	1	-5
475.238	1	-1
475.408	1	3
475.578	1	0
475.749	1	9
475.919	1	1
476.090	1	4
476.260	1	-1
476.430	1	0
476.601	1	-2
476.771	1	7
476.942	1	-4
477.112	1	4
477.282	1	-7
477.453	1	4
477.623	1	3
477.793	1	-4
477.964	1	5
478.134	1	17
478.305	1	10
478.475	1	3
478.645	1	3
478.816	1	4
478.986	1	13
479.156	1	-7
479.327	1	1
479.497	1	2
479.667	1	-3
479.838	1	2
480.008	1	-1
480.179	1	5
480.349	1	1
480.519	1	0
480.690	1	4
480.860	1	0
481.030	1	5
481.201	1	-2
481.371	1	6
481.541	1	-4
481.712	1	0
481.882	1	6
482.053	1	-9
482.223	1	7
482.393	1	6
482.564	1	-2
482.734	1	16
482.904	1	8
483.075	1	1
483.245	1	-4
483.415	1	2
483.586	1	12
483.756	1	6
483.926	1	5
484.097	1	12
484.267	1	2
484.437	1	4
484.608	1	-7
484.778	1	1
484.948	1	5
485.119	1	4
485.289	1	-5
485.459	1	12
485.630	1	3
485.800	1	-9
485.970	1	-6
486.141	1	-2
486.311	1	-3
486.481	1	6
486.652	1	-3
486.822	1	-1
486.992	1	6
487.163	1	3
487.333	1	-5
487.503	1	4
487.674	1	-1
487.844	1	3
488.014	1	5
488.185	1	0
488.355	1	-2
488.525	1	12
488.696	1	1
488.866	1	4
489.036	1	1
489.207	1	7
489.377	1	7
489.547	1	0
489.718	1	-6
489.888	1	3
490.058	1	-1
490.228	1	4
490.399	1	5
490.569	1	7
490.739	1	3
490.910	1	-6
491.080	1	-7
491.250	1	1
491.421	1	4
491.591	1	-1
491.761	1	12
491.932	1	-3
492.102	1	1
492.272	1	-3
492.442	1	3
492.613	1	0
492.783	1	-11
492.953	1	7
493.124	1	-5
493.294	1	6
493.464	1	15
493.635	1	7
493.805	1	2
493.975	1	5
494.145	1	12
494.316	1	3
494.486	1	-4
494.656	1	-6
494.827	1	7
494.997	1	16
495.167	1	15
495.337	1	7
495.508	1	3
495.678	1	6
495.848	1	2
496.019	1	8
496.189	1	5
496.359	1	2
496.529	1	-1
496.700	1	13
496.870	1	1
497.040	1	-2
497.211	1	8
497.381	1	3
497.551	1	10
497.721	1	1
497.892	1	4
498.062	1	-2
498.232	1	4
498.403	1	-6
498.573	1	2
498.743	1	-1
498.913	1	4
499.084	1	8
499.254	1	0
499.424	1	6
499.594	1	-2
499.765	1	9
499.935	1	-3
500.105	1	1
500.275	1	16
500.446	1	7
500.616	1	13
500.786	1	3
500.956	1	4
501.127	1	-2
501.297	1	-5
501.467	1	8
501.638	1	-4
501.808	1	8
501.978	1	4
502.148	1	1
502.319	1	2
502.489	1	2
502.659	1	7
502.829	1	-3
503.000	1	9
503.170	1	5
503.340	1	11
503.510	1	-2
503.681	1	0
503.851	1	-9
504.021	1	3
504.191	1	3
504.362	1	7
504.532	1	2
504.702	1	-4
504.872	1	-7
505.042	1	2
505.213	1	2
505.383	1	4
505.553	1	2
505.723	1	15
505.894	1	7
506.064	1	-2
506.234	1	1
506.404	1	11
506.575	1	-4
506.745	1	-8
506.915	1	9
507.085	1	1
507.256	1	9
507.426	1	9
507.596	1	2
507.766	1	15
507.936	1	9
508.107	1	10
508.277	1	4
508.447	1	-4
508.617	1	0
508.788	1	0
508.958	1	14
509.128	1	1
509.298	1	1
509.468	1	17
509.639	1	-4
509.809	1	0
509.979	1	9
510.149	1	7
510.319	1	10
510.490	1	14
510.660	1	14
510.830	1	5
511.000	1	-3
511.171	1	-1
511.341	1	6
511.511	1	-10
511.681	1	16
511.851	1	10
512.022	1	13
512.192	1	11
512.362	1	7
512.532	1	18
512.702	1	-5
512.873	1	5
513.043	1	7
513.213	1	5
513.383	1	1
513.553	1	-3
513.724	1	3
513.894	1	13
514.064	1	6
514.234	1	7
514.404	1	2
514.575	1	5
514.745	1	0
514.915	1	0
515.085	1	0
515.255	1	8
515.425	1	11
515.596	1	10
515.766	1	-2
515.936	1	14
516.106	1	7
516.276	1	7
516.447	1	10
516.617	1	-3
516.787	1	11
516.957	1	-7
517.127	1	5
517.297	1	6
517.468	1	9
517.638	1	-4
517.808	1	4
517.978	1	15
518.148	1	16
518.319	1	4
518.489	1	10
518.659	1	6
518.829	1	11
518.999	1	8
519.169	1	6
519.340	1	0
519.510	1	-1
519.680	1	-4
519.850	1	6
520.020	1	-9
520.190	1	13
520.361	1	5
520.531	1	11
520.701	1	9
520.871	1	10
521.041	1	3
521.211	1	-5
521.382	1	7
521.552	1	3
521.722	1	19
521.892	1	3
522.062	1	7
522.232	1	-1
522.402	1	7
522.573	1	12
522.743	1	2
522.913	1	3
523.083	1	9
523.253	1	-9
523.423	1	13
523.593	1	3
523.764	1	16
523.934	1	-3
524.104	1	1
524.274	1	1
524.444	1	10
524.614	1	13
524.784	1	6
524.955	1	-7
525.125	1	10
525.295	1	5
525.465	1	4
525.635	1	6
525.805	1	8
525.975	1	-5
526.146	1	-1
526.316	1	21
526.486	1	9
526.656	1	3
526.826	1	11
526.996	1	3
527.166	1	19
527.337	1	11
527.507	1	-3
527.677	1	14
527.847	1	3
528.017	1	9
528.187	1	13
528.357	1	11
528.527	1	7
528.698	1	3
528.868	1	-1
529.038	1	-4
529.208	1	7
529.378	1	-2
529.548	1	5
529.718	1	-4
529.888	1	-7
530.058	1	17
530.229	1	8
530.399	1	15
530.569	1	-1
530.739	1	4
530.909	1	11
531.079	1	0
531.249	1	1
531.419	1	3
531.589	1	9
531.760	1	7
531.930	1	8
532.100	1	13
532.270	1	4
532.440	1	-7
532.610	1	0
532.780	1	0
532.950	1	-9
533.120	1	-1
533.290	1	8
533.461	1	7
533.631	1	6
533.801	1	10
533.971	1	4
534.141	1	10
534.311	1	8
534.481	1	-9
534.651	1	9
534.821	1	1
534.991	1	-5
535.162	1	4
535.332	1	11
535.502	1	10
535.672	1	-2
535.842	1	-3
536.012	1	-3
536.182	1	4
536.352	1	-1
536.522	1	6
536.692	1	-7
536.862	1	-3
537.032	1	-1
537.203	1	7
537.373	1	5
537.543	1	-2
537.713	1	8
537.883	1	1
538.053	1	6
538.223	1	-2
538.393	1	0
538.563	1	16
538.733	1	2
538.903	1	0
539.073	1	9
539.243	1	-3
539.413	1	-7
539.584	1	6
539.754	1	9
539.924	1	-1
540.094	1	7
540.264	1	-1
540.434	1	0
540.604	1	10
540.774	1	-5
540.944	1	8
541.114	1	-9
541.284	1	7
541.454	1	10
541.624	1	2
541.794	1	12
541.964	1	-1
542.134	1	5
542.305	1	2
542.475	1	2
542.645	1	22
542.815	1	3
542.985	1	2
543.155	1	11
543.325	1	-2
543.495	1	3
543.665	1	14
543.835	1	14
544.005	1	15
544.175	1	2
544.345	1	3
544.515	1	8
544.685	1	10
544.855	1	-2
545.025	1	3
545.195	1	2
545.365	1	-2
545.535	1	14
545.705	1	3
545.875	1	5
546.045	1	8
546.216	1	13
546.386	1	-3
546.556	1	3
546.726	1	9
546.896	1	0
547.066	1	8
547.236	1	7
547.406	1	4
547.576	1	-6
547.746	1	-5
547.916	1	-2
548.086	1	3
548.256	1	2
548.426	1	-1
548.596	1	6
548.766	1	2
548.936	1	5
549.106	1	1
549.276	1	5
549.446	1	3
549.616	1	-2
549.786	1	9
549.956	1	-2
550.126	1	6
550.296	1	10
550.466	1	11
550.636	1	20
550.806	1	6
550.976	1	2
551.146	1	6
551.316	1	4
551.486	1	4
551.656	1	-8
551.826	1	-1
551.996	1	2
552.166	1	8
552.336	1	6
552.506	1	1
552.676	1	6
552.846	1	7
553.016	1	15
553.186	1	6
553.356	1	10
553.526	1	-8
553.696	1	10
553.866	1	12
554.036	1	7
554.206	1	15
554.376	1	-11
554.546	1	12
554.716	1	-2
554.886	1	6
555.056	1	14
555.226	1	7
555.396	1	-2
555.566	1	5
555.736	1	2
555.906	1	2
556.076	1	3
556.246	1	5
556.416	1	9
556.586	1	-4
556.756	1	4
556.926	1	7
557.096	1	18
557.266	1	2
557.436	1	-1
557.606	1	4
557.776	1	-4
557.946	1	-1
558.116	1	1
558.286	1	-12
558.456	1	5
558.626	1	9
558.796	1	13
558.966	1	10
559.136	1	7
559.306	1	2
559.476	1	6
559.646	1	5
559.816	1	-3
559.986	1	-1
560.155	1	-6
560.325	1	6
560.495	1	8
560.665	1	-5
560.835	1	3
561.005	1	-3
561.175	1	8
561.345	1	7
561.515	1	-4
561.685	1	-1
561.855	1	2
562.025	1	12
562.195	1	7
562.365	1	8
562.535	1	7
562.705	1	12
562.875	1	-1
563.045	1	4
563.215	1	1
563.385	1	9
563.555	1	7
563.725	1	8
563.895	1	11
564.064	1	12
564.234	1	12
564.404	1	-2
564.574	1	-8
564.744	1	-9
564.914	1	16
565.084	1	7
565.254	1	7
565.424	1	4
565.594	1	0
565.764	1	7
565.934	1	5
566.104	1	13
566.274	1	11
566.444	1	6
566.614	1	5
566.783	1	-7
566.953	1	1
567.123	1	11
567.293	1	-2
567.463	1	5
567.633	1	-3
567.803	1	0
567.973	1	15
568.143	1	7
568.313	1	6
568.483	1	5
568.653	1	6
568.823	1	5
568.993	1	13
569.162	1	5
569.332	1	16
569.502	1	12
569.672	1	11
569.842	1	0
570.012	1	9
570.182	1	0
570.352	1	-1
570.522	1	2
570.692	1	0
570.862	1	0
571.031	1	-3
571.201	1	-3
571.371	1	1
571.541	1	7
571.711	1	4
571.881	1	3
572.051	1	-8
572.221	1	0
572.391	1	12
572.561	1	-6
572.731	1	-4
572.900	1	-3
573.070	1	0
573.240	1	-9
573.410	1	9
573.580	1	22
573.750	1	9
573.920	1	9
574.090	1	16
574.260	1	5
574.430	1	-1
574.599	1	0
574.769	1	-1
574.939	1	2
575.109	1	-3
575.279	1	4
575.449	1	15
575.619	1	4
575.789	1	15
575.959	1	4
576.128	1	2
576.298	1	-2
576.468	1	3
576.638	1	17
576.808	1	7
576.978	1	7
577.148	1	3
577.318	1	3
577.487	1	-4
577.657	1	-1
577.827	1	4
577.997	1	4
578.167	1	4
578.337	1	4
578.507	1	12
578.677	1	-1
578.846	1	0
579.016	1	10
579.186	1	9
579.356	1	0
579.526	1	3
579.696	1	2
579.866	1	7
580.036	1	2
580.205	1	3
580.375	1	11
580.545	1	7
580.715	1	-2
580.885	1	-7
581.055	1	4
581.225	1	0
581.394	1	3
581.564	1	2
581.734	1	2
581.904	1	-1
582.074	1	6
582.244	1	7
582.414	1	4
582.583	1	4
582.753	1	1
582.923	1	-5
583.093	1	-2
583.263	1	2
583.433	1	2
583.603	1	13
583.772	1	-2
583.942	1	3
584.112	1	-8
584.282	1	11
584.452	1	7
584.622	1	-2
584.791	1	9
584.961	1	1
585.131	1	5
585.301	1	-1
585.471	1	20
585.641	1	-7
585.811	1	4
585.980	1	3
586.150	1	5
586.320	1	-9
586.490	1	1
586.660	1	4
586.830	1	-1
586.999	1	-1
587.169	1	5
587.339	1	3
587.509	1	2
587.679	1	3
587.849	1	1
588.018	1	20
588.188	1	-3
588.358	1	1
588.528	1	2
588.698	1	8
588.867	1	6
589.037	1	6
589.207	1	9
589.377	1	2
589.547	1	4
589.717	1	-3
589.886	1	1
590.056	1	1
590.226	1	-2
590.396	1	1
590.566	1	7
590.735	1	19
590.905	1	-5
591.075	1	-4
591.245	1	11
591.415	1	-3
591.585	1	-1
591.754	1	15
591.924	1	2
592.094	1	6
592.264	1	1
592.434	1	3
592.603	1	5
592.773	1	-7
592.943	1	11
593.113	1	3
593.283	1	1
593.452	1	11
593.622	1	6
593.792	1	7
593.962	1	2
594.132	1	0
594.301	1	5
594.471	1	12
594.641	1	-4
594.811	1	2
594.981	1	-4
595.150	1	13
595.320	1	8
595.490	1	2
595.660	1	11
595.829	1	8
595.999	1	3
596.169	1	10
596.339	1	-1
596.509	1	1
596.678	1	7
596.848	1	5
597.018	1	2
597.188	1	-5
597.358	1	-9
597.527	1	9
597.697	1	4
597.867	1	4
598.037	1	3
598.206	1	-4
598.376	1	4
598.546	1	-2
598.716	1	5
598.885	1	7
599.055	1	16
599.225	1	13
599.395	1	-9
599.565	1	-2
599.734	1	12
599.904	1	0
600.074	1	3
600.244	1	4
600.413	1	11
600.583	1	-1
600.753	1	10
600.923	1	3
601.092	1	12
601.262	1	4
601.432	1	6
601.602	1	3
601.771	1	-8
601.941	1	7
602.111	1	-2
602.281	1	-8
602.451	1	14
602.620	1	-4
602.790	1	4
602.960	1	-3
603.130	1	5
603.299	1	1
603.469	1	5
603.639	1	12
603.809	1	0
603.978	1	2
604.148	1	12
604.318	1	15
604.487	1	0
604.657	1	3
604.827	1	5
604.997	1	8
605.166	1	5
605.336	1	-6
605.506	1	-1
605.676	1	-2
605.845	1	12
606.015	1	-9
606.185	1	2
606.355	1	0
606.524	1	7
606.694	1	-1
606.864	1	-2
607.034	1	4
607.203	1	0
607.373	1	7
607.543	1	9
607.712	1	2
607.882	1	2
608.052	1	2
608.222	1	2
608.391	1	6
608.561	1	9
608.731	1	3
608.901	1	5
609.070	1	-1
609.240	1	6
609.410	1	1
609.579	1	0
609.749	1	3
609.919	1	2
610.089	1	6
610.258	1	3
610.428	1	2
610.598	1	2
610.767	1	-2
610.937	1	8
611.107	1	-1
611.277	1	8
611.446	1	0
611.616	1	1
611.786	1	4
611.955	1	0
612.125	1	1
612.295	1	2
612.465	1	7
612.634	1	17
612.804	1	5
612.974	1	-6
613.143	1	-2
613.313	1	5
613.483	1	3
613.652	1	-2
613.822	1	3
613.992	1	9
614.162	1	4
614.331	1	8
614.501	1	4
614.671	1	2
614.840	1	2
615.010	1	5
615.180	1	11
615.349	1	8
615.519	1	8
615.689	1	2
615.858	1	1
616.028	1	7
616.198	1	9
616.368	1	3
616.537	1	-2
616.707	1	5
616.877	1	3
617.046	1	7
617.216	1	16
617.386	1	0
617.555	1	-3
617.725	1	-2
617.895	1	8
618.064	1	-10
618.234	1	-12
618.404	1	7
618.573	1	2
618.743	1	10
618.913	1	-1
619.082	1	-5
619.252	1	4
619.422	1	2
619.591	1	-10
619.761	1	10
619.931	1	-6
620.100	1	-1
620.270	1	9
620.440	1	1
620.609	1	-8
620.779	1	-3
620.949	1	10
621.118	1	7
621.288	1	1
621.458	1	9
621.627	1	9
621.797	1	4
621.967	1	0
622.136	1	7
622.306	1	3
622.476	1	-6
622.645	1	-4
622.815	1	-5
622.985	1	3
623.154	1	5
623.324	1	0
623.494	1	19
623.663	1	7
623.833	1	-2
624.002	1	2
624.172	1	6
624.342	1	6
624.511	1	5
624.681	1	5
624.851	1	-4
625.020	1	16
625.190	1	2
625.360	1	4
625.529	1	0
625.699	1	4
625.869	1	1
626.038	1	4
626.208	1	-4
626.377	1	0
626.547	1	1
626.717	1	3
626.886	1	-1
627.056	1	8
627.226	1	1
627.395	1	2
627.565	1	1
627.735	1	8
627.904	1	3
628.074	1	8
628.243	1	1
628.413	1	4
628.583	1	4
628.752	1	-1
628.922	1	-4
629.091	1	0
629.261	1	6
629.431	1	1
629.600	1	1
629.770	1	0
629.940	1	-4
630.109	1	-3
630.279	1	7
630.448	1	6
630.618	1	4
630.788	1	1
630.957	1	3
631.127	1	2
631.297	1	5
631.466	1	7
631.636	1	-11
631.805	1	0
631.975	1	8
632.145	1	0
632.314	1	-12
632.484	1	6
632.653	1	1
632.823	1	-1
632.993	1	5
633.162	1	6
633.332	1	-2
633.501	1	-7
633.671	1	3
633.841	1	-2
634.010	1	-2
634.180	1	-2
634.349	1	1
634.519	1	-2
634.689	1	8
634.858	1	-2
635.028	1	7
635.197	1	8
635.367	1	0
635.537	1	-10
635.706	1	5
635.876	1	-4
636.045	1	3
636.215	1	-4
636.384	1	0
636.554	1	6
636.724	1	2
636.893	1	-2
637.063	1	17
637.232	1	8
637.402	1	-1
637.572	1	-2
637.741	1	-3
637.911	1	7
638.080	1	-9
638.250	1	4
638.419	1	1
638.589	1	0
638.759	1	1
638.928	1	6
639.098	1	10
639.267	1	-5
639.437	1	0
639.606	1	0
639.776	1	4
639.946	1	-5
640.115	1	0
640.285	1	5
640.454	1	6
640.624	1	4
640.793	1	4
640.963	1	3
641.132	1	13
641.302	1	-5
641.472	1	2
641.641	1	1
641.811	1	0
641.980	1	-8
642.150	1	7
642.319	1	0
642.489	1	2
642.659	1	-9
642.828	1	14
642.998	1	-8
643.167	1	-4
643.337	1	0
643.506	1	10
643.676	1	-3
643.845	1	-2
644.015	1	0
644.184	1	-8
644.354	1	1
644.524	1	3
644.693	1	2
644.863	1	7
645.032	1	3
645.202	1	10
645.371	1	-6
645.541	1	-6
645.710	1	6
645.880	1	8
646.049	1	0
646.219	1	8
646.388	1	-5
646.558	1	10
646.728	1	11
646.897	1	4
647.067	1	1
647.236	1	-3
647.406	1	8
647.575	1	8
647.745	1	-4
647.914	1	-12
648.084	1	1
648.253	1	4
648.423	1	-5
648.592	1	-2
648.762	1	4
648.931	1	-1
649.101	1	7
649.270	1	-4
649.440	1	0
649.610	1	-1
649.779	1	-3
649.949	1	1
650.118	1	3
650.288	1	7
650.457	1	-5
650.627	1	6
650.796	1	-10
650.966	1	2
651.135	1	0
651.305	1	2
651.474	1	0
651.644	1	3
651.813	1	6
651.983	1	10
652.152	1	3
652.322	1	-15
652.491	1	7
652.661	1	4
652.830	1	2
653.000	1	3
653.169	1	1
653.339	1	3
653.508	1	19
653.678	1	-6
653.847	1	9
654.017	1	0
654.186	1	7
654.356	1	2
654.525	1	11
654.695	1	-1
654.864	1	5
655.034	1	0
655.203	1	-7
655.373	1	3
655.542	1	-1
655.712	1	-5
655.881	1	14
656.051	1	3
656.220	1	0
656.390	1	11
656.559	1	5
656.729	1	-3
656.898	1	2
657.068	1	-1
657.237	1	6
657.406	1	2
657.576	1	-5
657.745	1	1
657.915	1	-7
658.084	1	7
658.254	1	12
658.423	1	7
658.593	1	7
658.762	1	14
658.932	1	-10
659.101	1	-2
659.271	1	1
659.440	1	-3
659.610	1	14
659.779	1	8
659.949	1	0
660.118	1	4
660.288	1	-1
660.457	1	1
660.626	1	2
660.796	1	-5
660.965	1	-4
661.135	1	0
661.304	1	5
661.474	1	-5
661.643	1	1
661.813	1	5
661.982	1	-8
662.152	1	4
662.321	1	2
662.491	1	4
662.660	1	-9
662.829	1	1
662.999	1	11
663.168	1	9
663.338	1	5
663.507	1	0
663.677	1	1
663.846	1	-5
664.016	1	-3
664.185	1	7
664.354	1	10
664.524	1	-9
664.693	1	0
664.863	1	-1
665.032	1	1
665.202	1	-5
665.371	1	-2
665.541	1	1
665.710	1	4
665.879	1	8
666.049	1	-5
666.218	1	3
666.388	1	8
666.557	1	0
666.727	1	1
666.896	1	9
667.065	1	0
667.235	1	-7
667.404	1	2
667.574	1	5
667.743	1	13
667.913	1	9
668.082	1	7
668.251	1	11
668.421	1	-14
668.590	1	10
668.760	1	-2
668.929	1	-5
669.099	1	4
669.268	1	8
669.437	1	0
669.607	1	3
669.776	1	-1
669.946	1	1
670.115	1	3
670.285	1	1
670.454	1	3
670.623	1	1
670.793	1	0
670.962	1	10
671.132	1	-1
671.301	1	-1
671.470	1	6
671.640	1	11
671.809	1	4
671.979	1	6
672.148	1	8
672.317	1	3
672.487	1	1
672.656	1	-8
672.826	1	1
672.995	1	-6
673.164	1	13
673.334	1	0
673.503	1	3
673.673	1	-4
673.842	1	-6
674.011	1	-4
674.181	1	4
674.350	1	6
674.520	1	2
674.689	1	3
674.858	1	-10
675.028	1	3
675.197	1	3
675.367	1	2
675.536	1	19
675.705	1	-8
675.875	1	-4
676.044	1	3
676.214	1	6
676.383	1	3
676.552	1	2
676.722	1	-2
676.891	1	0
677.060	1	0
677.230	1	4
677.399	1	4
677.569	1	6
677.738	1	4
677.907	1	7
678.077	1	15
678.246	1	-2
678.416	1	4
678.585	1	-9
678.754	1	11
678.924	1	1
679.093	1	1
679.262	1	7
679.432	1	11
679.601	1	4
679.771	1	5
679.940	1	-3
680.109	1	0
680.279	1	5
680.448	1	-2
680.617	1	-2
680.787	1	4
680.956	1	-2
681.125	1	2
681.295	1	9
681.464	1	7
681.634	1	-4
681.803	1	8
681.972	1	-1
682.142	1	-2
682.311	1	-9
682.480	1	4
682.650	1	0
682.819	1	-2
682.988	1	9
683.158	1	4
683.327	1	6
683.496	1	0
683.666	1	9
683.835	1	-5
684.004	1	0
684.174	1	2
684.343	1	6
684.512	1	1
684.682	1	-8
684.851	1	0
685.021	1	-1
685.190	1	8
685.359	1	-6
685.529	1	7
685.698	1	3
685.867	1	-4
686.037	1	2
686.206	1	-1
686.375	1	4
686.545	1	3
686.714	1	0
686.883	1	4
687.053	1	-9
687.222	1	4
687.391	1	7
687.561	1	-2
687.730	1	-1
687.899	1	0
688.069	1	-4
688.238	1	-8
688.407	1	1
688.577	1	6
688.746	1	-2
