340.368	1	6
340.539	1	5
340.710	1	7
340.881	1	-7
341.052	1	7
341.223	1	0
341.394	1	1
341.565	1	13
341.737	1	14
341.908	1	4
342.079	1	9
342.250	1	10
342.421	1	7
342.592	1	3
342.763	1	1
342.934	1	5
343.105	1	-3
343.276	1	0
343.447	1	2
343.618	1	16
343.789	1	20
343.960	1	5
344.131	1	10
344.302	1	9
344.473	1	2
344.644	1	4
344.815	1	5
344.986	1	7
345.157	1	-6
345.328	1	6
345.499	1	17
345.670	1	6
345.841	1	4
346.012	1	6
346.183	1	-8
346.354	1	10
346.526	1	12
346.697	1	-2
346.868	1	7
347.039	1	-4
347.210	1	3
347.381	1	2
347.552	1	12
347.723	1	4
347.894	1	-3
348.065	1	2
348.236	1	0
348.407	1	18
348.578	1	8
348.749	1	0
348.920	1	6
349.091	1	7
349.262	1	7
349.433	1	9
349.604	1	2
349.775	1	8
349.946	1	-2
350.117	1	16
350.288	1	5
350.459	1	-5
350.630	1	2
350.801	1	15
350.972	1	11
351.143	1	5
351.314	1	2
351.485	1	2
351.656	1	17
351.827	1	-1
351.998	1	9
352.169	1	10
352.340	1	13
352.511	1	10
352.682	1	-4
352.853	1	14
353.024	1	17
353.195	1	10
353.366	1	11
353.537	1	13
353.708	1	8
353.879	1	14
354.050	1	13
354.221	1	8
354.392	1	7
354.563	1	9
354.734	1	-6
354.905	1	21
355.076	1	13
355.247	1	19
355.418	1	5
355.589	1	2
355.760	1	10
355.931	1	13
356.102	1	10
356.273	1	26
356.444	1	19
356.615	1	10
356.785	1	9
356.956	1	26
357.127	1	24
357.298	1	23
357.469	1	20
357.640	1	19
357.811	1	19
357.982	1	14
358.153	1	9
358.324	1	35
358.495	1	25
358.666	1	32
358.837	1	29
359.008	1	20
359.179	1	28
359.350	1	33
359.521	1	29
359.692	1	32
359.863	1	26
360.034	1	29
360.205	1	38
360.376	1	44
360.547	1	40
360.718	1	43
360.889	1	44
361.060	1	34
361.231	1	45
361.401	1	48
361.572	1	48
361.743	1	48
361.914	1	56
362.085	1	59
362.256	1	55
362.427	1	52
362.598	1	62
362.769	1	70
362.940	1	64
363.111	1	81
363.282	1	85
363.453	1	84
363.624	1	82
363.795	1	81
363.966	1	93
364.137	1	97
364.308	1	109
364.478	1	113
364.649	1	118
364.820	1	107
364.991	1	108
365.162	1	120
365.333	1	125
365.504	1	118
365.675	1	136
365.846	1	152
366.017	1	140
366.188	1	167
366.359	1	155
366.530	1	174
366.701	1	162
366.871	1	159
367.042	1	169
367.213	1	175
367.384	1	190
367.555	1	183
367.726	1	205
367.897	1	201
368.068	1	215
368.239	1	213
368.410	1	210
368.581	1	194
368.752	1	193
368.923	1	199
369.093	1	209
369.264	1	198
369.435	1	204
369.606	1	201
369.777	1	191
369.948	1	191
370.119	1	175
370.290	1	180
370.461	1	174
370.632	1	158
370.803	1	177
370.973	1	194
371.144	1	175
371.315	1	157
371.486	1	161
371.657	1	162
371.828	1	146
371.999	1	134
372.170	1	143
372.341	1	144
372.512	1	124
372.682	1	135
372.853	1	124
373.024	1	134
373.195	1	123
373.366	1	117
373.537	1	117
373.708	1	117
373.879	1	112
374.050	1	112
374.220	1	103
374.391	1	99
374.562	1	108
374.733	1	96
374.904	1	89
375.075	1	94
375.246	1	102
375.417	1	88
375.588	1	86
375.758	1	92
375.929	1	80
376.100	1	89
376.271	1	90
376.442	1	76
376.613	1	76
376.784	1	70
376.955	1	76
377.125	1	87
377.296	1	63
377.467	1	67
377.638	1	71
377.809	1	71
377.980	1	73
378.151	1	61
378.321	1	68
378.492	1	56
378.663	1	68
378.834	1	63
379.005	1	54
379.176	1	55
379.347	1	55
379.518	1	63
379.688	1	46
379.859	1	51
380.030	1	61
380.201	1	34
380.372	1	47
380.543	1	44
380.714	1	45
380.884	1	35
381.055	1	48
381.226	1	35
381.397	1	59
381.568	1	45
381.739	1	38
381.910	1	39
382.080	1	35
382.251	1	40
382.422	1	38
382.593	1	48
382.764	1	44
382.935	1	39
383.105	1	34
383.276	1	36
383.447	1	26
383.618	1	32
383.789	1	44
383.960	1	29
384.130	1	32
384.301	1	38
384.472	1	31
384.643	1	20
384.814	1	24
384.985	1	36
385.156	1	36
385.326	1	29
385.497	1	22
385.668	1	26
385.839	1	31
386.010	1	30
386.180	1	39
386.351	1	22
386.522	1	23
386.693	1	28
386.864	1	23
387.035	1	28
387.205	1	17
387.376	1	18
387.547	1	24
387.718	1	22
387.889	1	17
388.060	1	24
388.230	1	19
388.401	1	26
388.572	1	13
388.743	1	32
388.914	1	21
389.084	1	16
389.255	1	30
389.426	1	3
389.597	1	14
389.768	1	31
389.939	1	18
390.109	1	19
390.280	1	23
390.451	1	13
390.622	1	20
390.793	1	17
390.963	1	16
391.134	1	-2
391.305	1	15
391.476	1	21
391.647	1	13
391.817	1	17
391.988	1	23
392.159	1	16
392.330	1	17
392.501	1	21
392.671	1	12
392.842	1	16
393.013	1	15
393.184	1	15
393.355	1	2
393.525	1	4
393.696	1	22
393.867	1	14
394.038	1	12
394.208	1	6
394.379	1	10
394.550	1	12
394.721	1	3
394.892	1	24
395.062	1	16
395.233	1	11
395.404	1	15
395.575	1	19
395.746	1	18
395.916	1	19
396.087	1	16
396.258	1	7
396.429	1	3
396.599	1	12
396.770	1	-1
396.941	1	18
397.112	1	3
397.283	1	17
397.453	1	6
397.624	1	6
397.795	1	18
397.966	1	15
398.136	1	7
398.307	1	15
398.478	1	12
398.649	1	20
398.819	1	11
398.990	1	-2
399.161	1	12
399.332	1	7
399.503	1	13
399.673	1	8
399.844	1	13
400.015	1	-5
400.186	1	0
400.356	1	22
400.527	1	7
400.698	1	8
400.869	1	5
401.039	1	14
401.210	1	5
401.381	1	9
401.552	1	4
401.722	1	7
401.893	1	10
402.064	1	8
402.235	1	12
402.405	1	3
402.576	1	7
402.747	1	2
402.918	1	7
403.088	1	5
403.259	1	14
403.430	1	5
403.601	1	6
403.771	1	12
403.942	1	10
404.113	1	2
404.284	1	3
404.454	1	2
404.625	1	5
404.796	1	6
404.967	1	3
405.137	1	8
405.308	1	4
405.479	1	2
405.649	1	10
405.820	1	10
405.991	1	0
406.162	1	9
406.332	1	-2
406.503	1	-1
406.674	1	13
406.845	1	17
407.015	1	14
407.186	1	-7
407.357	1	11
407.527	1	3
407.698	1	5
407.869	1	0
408.040	1	12
408.210	1	14
408.381	1	9
408.552	1	11
408.722	1	8
408.893	1	1
409.064	1	2
409.235	1	2
409.405	1	4
409.576	1	-6
409.747	1	4
409.917	1	4
410.088	1	4
410.259	1	7
410.430	1	5
410.600	1	15
410.771	1	-3
410.942	1	2
411.112	1	14
411.283	1	5
411.454	1	7
411.625	1	10
411.795	1	9
411.966	1	15
412.137	1	-1
412.307	1	9
412.478	1	5
412.649	1	11
412.819	1	12
412.990	1	0
413.161	1	0
413.332	1	4
413.502	1	11
413.673	1	14
413.844	1	5
414.014	1	7
414.185	1	-3
414.356	1	6
414.526	1	-7
414.697	1	2
414.868	1	9
415.038	1	17
415.209	1	7
415.380	1	9
415.550	1	18
415.721	1	3
415.892	1	4
416.063	1	-8
416.233	1	12
416.404	1	-1
416.575	1	12
416.745	1	4
416.916	1	-4
417.087	1	6
417.257	1	3
417.428	1	14
417.599	1	0
417.769	1	4
417.940	1	1
418.111	1	12
418.281	1	9
418.452	1	14
418.623	1	5
418.793	1	23
418.964	1	1
419.135	1	1
419.305	1	4
419.476	1	9
419.647	1	9
419.817	1	12
419.988	1	6
420.159	1	8
420.329	1	11
420.500	1	13
420.671	1	-1
420.841	1	1
421.012	1	11
421.183	1	-3
421.353	1	0
421.524	1	-3
421.695	1	8
421.865	1	4
422.036	1	9
422.206	1	2
422.377	1	14
422.548	1	-4
422.718	1	7
422.889	1	1
423.060	1	-1
423.230	1	1
423.401	1	1
423.572	1	10
423.742	1	7
423.913	1	3
424.084	1	5
424.254	1	3
424.425	1	4
424.595	1	13
424.766	1	-1
424.937	1	24
425.107	1	7
425.278	1	3
425.449	1	7
425.619	1	11
425.790	1	-2
425.961	1	10
426.131	1	7
426.302	1	-3
426.472	1	2
426.643	1	2
426.814	1	-3
426.984	1	0
427.155	1	7
427.326	1	3
427.496	1	-3
427.667	1	-3
427.837	1	7
428.008	1	4
428.179	1	7
428.349	1	-6
428.520	1	11
428.691	1	5
428.861	1	4
429.032	1	5
429.202	1	3
429.373	1	11
429.544	1	-3
429.714	1	6
429.885	1	8
430.055	1	13
430.226	1	2
430.397	1	0
430.567	1	10
430.738	1	-9
430.909	1	3
431.079	1	18
431.250	1	23
431.420	1	11
431.591	1	12
431.762	1	3
431.932	1	1
432.103	1	-6
432.273	1	15
432.444	1	1
432.615	1	17
432.785	1	7
432.956	1	12
433.126	1	14
433.297	1	9
433.468	1	5
433.638	1	4
433.809	1	-3
433.979	1	-2
434.150	1	17
434.320	1	2
434.491	1	1
434.662	1	3
434.832	1	0
435.003	1	6
435.173	1	-1
435.344	1	2
435.515	1	-3
435.685	1	0
435.856	1	8
436.026	1	1
436.197	1	11
436.368	1	-1
436.538	1	-4
436.709	1	-2
436.879	1	8
437.050	1	19
437.220	1	16
437.391	1	6
437.562	1	8
437.732	1	10
437.903	1	-4
438.073	1	5
438.244	1	9
438.414	1	5
438.585	1	-5
438.756	1	8
438.926	1	4
439.097	1	3
439.267	1	5
439.438	1	-1
439.608	1	6
439.779	1	11
439.949	1	7
440.120	1	6
440.291	1	-10
440.461	1	7
440.632	1	3
440.802	1	2
440.973	1	17
441.143	1	8
441.314	1	-3
441.485	1	13
441.655	1	-9
441.826	1	7
441.996	1	-1
442.167	1	6
442.337	1	3
442.508	1	-1
442.678	1	-2
442.849	1	22
443.019	1	9
443.190	1	8
443.361	1	7
443.531	1	6
443.702	1	4
443.872	1	2
444.043	1	9
444.213	1	10
444.384	1	6
444.554	1	7
444.725	1	13
444.895	1	7
445.066	1	12
445.237	1	1
445.407	1	-3
445.578	1	8
445.748	1	0
445.919	1	-5
446.089	1	24
446.260	1	-12
446.430	1	10
446.601	1	7
446.771	1	7
446.942	1	5
447.112	1	6
447.283	1	8
447.453	1	4
447.624	1	8
447.794	1	8
447.965	1	-2
448.135	1	0
448.306	1	3
448.477	1	11
448.647	1	-5
448.818	1	9
448.988	1	1
449.159	1	12
449.329	1	11
449.500	1	0
449.670	1	-3
449.841	1	-4
450.011	1	0
450.182	1	7
450.352	1	7
450.523	1	1
450.693	1	-15
450.864	1	3
451.034	1	15
451.205	1	8
451.375	1	5
451.546	1	-1
451.716	1	0
451.887	1	4
452.057	1	5
452.228	1	8
452.398	1	2
452.569	1	11
452.739	1	13
452.910	1	13
453.080	1	-1
453.251	1	7
453.421	1	8
453.592	1	1
453.762	1	-1
453.933	1	8
454.103	1	2
454.274	1	4
454.444	1	-7
454.615	1	-1
454.785	1	9
454.956	1	-2
455.126	1	-1
455.297	1	13
455.467	1	-6
455.638	1	4
455.808	1	1
455.979	1	-6
456.149	1	0
456.320	1	0
456.490	1	9
456.661	1	-6
456.831	1	-2
457.001	1	3
457.172	1	0
457.342	1	3
457.513	1	10
457.683	1	9
457.854	1	7
458.024	1	-5
458.195	1	9
458.365	1	1
458.536	1	2
458.706	1	14
458.877	1	4
459.047	1	15
459.218	1	4
459.388	1	12
459.559	1	1
459.729	1	-1
459.899	1	6
460.070	1	-3
460.240	1	-5
460.411	1	1
460.581	1	8
460.752	1	12
460.922	1	-2
461.093	1	1
461.263	1	0
461.434	1	4
461.604	1	4
461.775	1	9
461.945	1	4
462.115	1	6
462.286	1	10
462.456	1	4
462.627	1	3
462.797	1	-1
462.968	1	10
463.138	1	12
463.309	1	-6
463.479	1	8
463.649	1	11
463.820	1	8
463.990	1	1
464.161	1	-2
464.331	1	5
464.502	1	1
464.672	1	15
464.843	1	4
465.013	1	5
465.183	1	8
465.354	1	-6
465.524	1	7
465.695	1	7
465.865	1	6
466.036	1	-1
466.206	1	15
466.376	1	-7
466.547	1	6
466.717	1	11
466.888	1	0
467.058	1	15
467.229	1	9
467.399	1	16
467.569	1	16
467.740	1	-4
467.910	1	-1
468.081	1	4
468.251	1	2
468.422	1	11
468.592	1	0
468.762	1	2
468.933	1	3
469.103	1	13
469.274	1	6
469.444	1	3
469.614	1	-7
469.785	1	1
469.955	1	-3
470.126	1	6
470.296	1	0
470.467	1	6
470.637	1	1
470.807	1	15
470.978	1	6
471.148	1	10
471.319	1	8
471.489	1	5
471.659	1	2
471.830	1	-1
472.000	1	2
472.171	1	-2
472.341	1	7
472.511	1	14
472.682	1	7
472.852	1	8
473.023	1	2
473.193	1	7
473.363	1	7
473.534	1	11
473.704	1	6
473.875	1	0
474.045	1	14
474.215	1	6
474.386	1	0
474.556	1	12
474.727	1	6
474.897	1	-2
475.067	1	4
475.238	1	6
475.408	1	3
475.578	1	4
475.749	1	13
475.919	1	8
476.090	1	10
476.260	1	2
476.430	1	8
476.601	1	4
476.771	1	8
476.942	1	-1
477.112	1	24
477.282	1	1
477.453	1	2
477.623	1	7
477.793	1	-14
477.964	1	8
478.134	1	10
478.305	1	3
478.475	1	0
478.645	1	6
478.816	1	0
478.986	1	15
479.156	1	1
479.327	1	3
479.497	1	8
479.667	1	-1
479.838	1	17
480.008	1	2
480.179	1	8
480.349	1	4
480.519	1	7
480.690	1	8
480.860	1	5
481.030	1	11
481.201	1	4
481.371	1	11
481.541	1	4
481.712	1	0
481.882	1	20
482.053	1	6
482.223	1	10
482.393	1	7
482.564	1	8
482.734	1	18
482.904	1	3
483.075	1	1
483.245	1	4
483.415	1	9
483.586	1	13
483.756	1	9
483.926	1	9
484.097	1	9
484.267	1	4
484.437	1	-1
484.608	1	12
484.778	1	0
484.948	1	10
485.119	1	4
485.289	1	-1
485.459	1	15
485.630	1	9
485.800	1	-2
485.970	1	7
486.141	1	6
486.311	1	4
486.481	1	17
486.652	1	8
486.822	1	8
486.992	1	11
487.163	1	2
487.333	1	14
487.503	1	4
487.674	1	17
487.844	1	3
488.014	1	10
488.185	1	4
488.355	1	11
488.525	1	12
488.696	1	6
488.866	1	7
489.036	1	10
489.207	1	13
489.377	1	1
489.547	1	16
489.718	1	7
489.888	1	6
490.058	1	8
490.228	1	6
490.399	1	20
490.569	1	7
490.739	1	15
490.910	1	6
491.080	1	7
491.250	1	19
491.421	1	15
491.591	1	10
491.761	1	22
491.932	1	19
492.102	1	5
492.272	1	10
492.442	1	9
492.613	1	17
492.783	1	0
492.953	1	21
493.124	1	1
493.294	1	14
493.464	1	22
493.635	1	20
493.805	1	19
493.975	1	14
494.145	1	16
494.316	1	19
494.486	1	4
494.656	1	10
494.827	1	3
494.997	1	30
495.167	1	23
495.337	1	9
495.508	1	11
495.678	1	17
495.848	1	14
496.019	1	19
496.189	1	22
496.359	1	9
496.529	1	9
496.700	1	13
496.870	1	20
497.040	1	13
497.211	1	19
497.381	1	21
497.551	1	22
497.721	1	17
497.892	1	20
498.062	1	13
498.232	1	19
498.403	1	14
498.573	1	23
498.743	1	15
498.913	1	19
499.084	1	23
499.254	1	13
499.424	1	22
499.594	1	19
499.765	1	21
499.935	1	22
500.105	1	16
500.275	1	12
500.446	1	16
500.616	1	18
500.786	1	18
500.956	1	26
501.127	1	16
501.297	1	12
501.467	1	16
501.638	1	18
501.808	1	21
501.978	1	29
502.148	1	13
502.319	1	30
502.489	1	22
502.659	1	19
502.829	1	9
503.000	1	24
503.170	1	21
503.340	1	27
503.510	1	11
503.681	1	21
503.851	1	13
504.021	1	20
504.191	1	16
504.362	1	14
504.532	1	11
504.702	1	24
504.872	1	17
505.042	1	21
505.213	1	14
505.383	1	30
505.553	1	26
505.723	1	24
505.894	1	12
506.064	1	25
506.234	1	17
506.404	1	25
506.575	1	23
506.745	1	13
506.915	1	28
507.085	1	40
507.256	1	31
507.426	1	24
507.596	1	34
507.766	1	32
507.936	1	18
508.107	1	22
508.277	1	20
508.447	1	16
508.617	1	18
508.788	1	18
508.958	1	23
509.128	1	24
509.298	1	18
509.468	1	29
509.639	1	13
509.809	1	17
509.979	1	31
510.149	1	24
510.319	1	32
510.490	1	30
510.660	1	29
510.830	1	19
511.000	1	23
511.171	1	26
511.341	1	23
511.511	1	9
511.681	1	34
511.851	1	18
512.022	1	25
512.192	1	41
512.362	1	25
512.532	1	25
512.702	1	28
512.873	1	27
513.043	1	22
513.213	1	21
513.383	1	29
513.553	1	16
513.724	1	26
513.894	1	38
514.064	1	28
514.234	1	35
514.404	1	18
514.575	1	41
514.745	1	32
514.915	1	17
515.085	1	34
515.255	1	30
515.425	1	28
515.596	1	34
515.766	1	31
515.936	1	31
516.106	1	30
516.276	1	27
516.447	1	25
516.617	1	27
516.787	1	33
516.957	1	20
517.127	1	35
517.297	1	34
517.468	1	39
517.638	1	31
517.808	1	37
517.978	1	31
518.148	1	42
518.319	1	25
518.489	1	45
518.659	1	36
518.829	1	27
518.999	1	35
519.169	1	29
519.340	1	28
519.510	1	26
519.680	1	28
519.850	1	33
520.020	1	25
520.190	1	39
520.361	1	27
520.531	1	29
520.701	1	31
520.871	1	22
521.041	1	37
521.211	1	36
521.382	1	28
521.552	1	31
521.722	1	45
521.892	1	36
522.062	1	41
522.232	1	36
522.402	1	41
522.573	1	31
522.743	1	39
522.913	1	37
523.083	1	35
523.253	1	11
523.423	1	38
523.593	1	39
523.764	1	38
523.934	1	23
524.104	1	32
524.274	1	33
524.444	1	40
524.614	1	40
524.784	1	45
524.955	1	25
525.125	1	32
525.295	1	23
525.465	1	43
525.635	1	31
525.805	1	38
525.975	1	31
526.146	1	31
526.316	1	43
526.486	1	34
526.656	1	40
526.826	1	45
526.996	1	31
527.166	1	40
527.337	1	41
527.507	1	36
527.677	1	47
527.847	1	30
528.017	1	35
528.187	1	42
528.357	1	43
528.527	1	39
528.698	1	41
528.868	1	40
529.038	1	35
529.208	1	38
529.378	1	32
529.548	1	38
529.718	1	38
529.888	1	43
530.058	1	40
530.229	1	26
530.399	1	44
530.569	1	35
530.739	1	30
530.909	1	47
531.079	1	32
531.249	1	40
531.419	1	41
531.589	1	43
531.760	1	41
531.930	1	33
532.100	1	55
532.270	1	40
532.440	1	22
532.610	1	40
532.780	1	37
532.950	1	32
533.120	1	35
533.290	1	34
533.461	1	30
533.631	1	30
533.801	1	41
533.971	1	38
534.141	1	38
534.311	1	29
534.481	1	23
534.651	1	45
534.821	1	27
534.991	1	34
535.162	1	33
535.332	1	25
535.502	1	41
535.672	1	33
535.842	1	23
536.012	1	26
536.182	1	52
536.352	1	19
536.522	1	38
536.692	1	27
536.862	1	26
537.032	1	38
537.203	1	24
537.373	1	38
537.543	1	26
537.713	1	34
537.883	1	32
538.053	1	25
538.223	1	28
538.393	1	31
538.563	1	38
538.733	1	25
538.903	1	33
539.073	1	38
539.243	1	33
539.413	1	18
539.584	1	39
539.754	1	27
539.924	1	17
540.094	1	42
540.264	1	41
540.434	1	20
540.604	1	34
540.774	1	33
540.944	1	36
541.114	1	31
541.284	1	35
541.454	1	35
541.624	1	17
541.794	1	35
541.964	1	33
542.134	1	25
542.305	1	26
542.475	1	41
542.645	1	26
542.815	1	23
542.985	1	31
543.155	1	36
543.325	1	19
543.495	1	27
543.665	1	39
543.835	1	36
544.005	1	44
544.175	1	40
544.345	1	34
544.515	1	32
544.685	1	38
544.855	1	29
545.025	1	47
545.195	1	34
545.365	1	44
545.535	1	40
545.705	1	35
545.875	1	40
546.045	1	35
546.216	1	39
546.386	1	37
546.556	1	38
546.726	1	36
546.896	1	31
547.066	1	42
547.236	1	28
547.406	1	36
547.576	1	35
547.746	1	30
547.916	1	34
548.086	1	38
548.256	1	38
548.426	1	38
548.596	1	43
548.766	1	29
548.936	1	33
549.106	1	36
549.276	1	33
549.446	1	29
549.616	1	21
549.786	1	48
549.956	1	32
550.126	1	36
550.296	1	35
550.466	1	34
550.636	1	40
550.806	1	37
550.976	1	39
551.146	1	40
551.316	1	28
551.486	1	39
551.656	1	14
551.826	1	27
551.996	1	33
552.166	1	35
552.336	1	34
552.506	1	36
552.676	1	32
552.846	1	27
553.016	1	42
553.186	1	39
553.356	1	30
553.526	1	30
553.696	1	21
553.866	1	31
554.036	1	34
554.206	1	38
554.376	1	20
554.546	1	40
554.716	1	31
554.886	1	24
555.056	1	31
555.226	1	21
555.396	1	30
555.566	1	18
555.736	1	29
555.906	1	40
556.076	1	28
556.246	1	34
556.416	1	33
556.586	1	25
556.756	1	39
556.926	1	39
557.096	1	30
557.266	1	24
557.436	1	32
557.606	1	21
557.776	1	30
557.946	1	26
558.116	1	30
558.286	1	16
558.456	1	24
558.626	1	40
558.796	1	25
558.966	1	29
559.136	1	27
559.306	1	29
559.476	1	19
559.646	1	47
559.816	1	24
559.986	1	19
560.155	1	31
560.325	1	18
560.495	1	35
560.665	1	29
560.835	1	21
561.005	1	26
561.175	1	34
561.345	1	29
561.515	1	25
561.685	1	31
561.855	1	19
562.025	1	20
562.195	1	30
562.365	1	32
562.535	1	27
562.705	1	35
562.875	1	17
563.045	1	31
563.215	1	31
563.385	1	23
563.555	1	29
563.725	1	32
563.895	1	26
564.064	1	32
564.234	1	36
564.404	1	17
564.574	1	27
564.744	1	17
564.914	1	20
565.084	1	23
565.254	1	16
565.424	1	26
565.594	1	28
565.764	1	26
565.934	1	24
566.104	1	42
566.274	1	32
566.444	1	14
566.614	1	36
566.783	1	25
566.953	1	18
567.123	1	29
567.293	1	19
567.463	1	19
567.633	1	18
567.803	1	34
567.973	1	31
568.143	1	33
568.313	1	33
568.483	1	19
568.653	1	38
568.823	1	23
568.993	1	31
569.162	1	25
569.332	1	15
569.502	1	30
569.672	1	28
569.842	1	24
570.012	1	24
570.182	1	24
570.352	1	17
570.522	1	23
570.692	1	8
570.862	1	26
571.031	1	22
571.201	1	22
571.371	1	22
571.541	1	22
571.711	1	17
571.881	1	28
572.051	1	15
572.221	1	20
572.391	1	15
572.561	1	20
572.731	1	9
572.900	1	22
573.070	1	24
573.240	1	29
573.410	1	21
573.580	1	38
573.750	1	29
573.920	1	21
574.090	1	29
574.260	1	26
574.430	1	26
574.599	1	29
574.769	1	26
574.939	1	12
575.109	1	25
575.279	1	16
575.449	1	26
575.619	1	7
575.789	1	24
575.959	1	21
576.128	1	15
576.298	1	19
576.468	1	30
576.638	1	29
576.808	1	25
576.978	1	8
577.148	1	28
577.318	1	22
577.487	1	21
577.657	1	24
577.827	1	15
577.997	1	9
578.167	1	19
578.337	1	27
578.507	1	19
578.677	1	22
578.846	1	25
579.016	1	34
579.186	1	21
579.356	1	27
579.526	1	23
579.696	1	18
579.866	1	19
580.036	1	20
580.205	1	21
580.375	1	25
580.545	1	13
580.715	1	12
580.885	1	-1
581.055	1	28
581.225	1	17
581.394	1	24
581.564	1	21
581.734	1	17
581.904	1	26
582.074	1	8
582.244	1	27
582.414	1	8
582.583	1	25
582.753	1	16
582.923	1	30
583.093	1	15
583.263	1	16
583.433	1	25
583.603	1	13
583.772	1	19
583.942	1	19
584.112	1	9
584.282	1	28
584.452	1	16
584.622	1	26
584.791	1	21
584.961	1	18
585.131	1	27
585.301	1	7
585.471	1	24
585.641	1	17
585.811	1	22
585.980	1	24
586.150	1	17
586.320	1	20
586.490	1	20
586.660	1	12
586.830	1	15
586.999	1	28
587.169	1	13
587.339	1	18
587.509	1	12
587.679	1	27
587.849	1	13
588.018	1	37
588.188	1	19
588.358	1	19
588.528	1	16
588.698	1	14
588.867	1	16
589.037	1	17
589.207	1	14
589.377	1	17
589.547	1	16
589.717	1	10
589.886	1	21
590.056	1	10
590.226	1	8
590.396	1	8
590.566	1	19
590.735	1	25
590.905	1	8
591.075	1	4
591.245	1	18
591.415	1	10
591.585	1	10
591.754	1	18
591.924	1	17
592.094	1	14
592.264	1	7
592.434	1	9
592.603	1	24
592.773	1	0
592.943	1	23
593.113	1	11
593.283	1	21
593.452	1	20
593.622	1	23
593.792	1	12
593.962	1	18
594.132	1	14
594.301	1	27
594.471	1	16
594.641	1	8
594.811	1	11
594.981	1	16
595.150	1	15
595.320	1	25
595.490	1	16
595.660	1	25
595.829	1	14
595.999	1	19
596.169	1	20
596.339	1	25
596.509	1	19
596.678	1	18
596.848	1	14
597.018	1	9
597.188	1	8
597.358	1	7
597.527	1	25
597.697	1	3
597.867	1	18
598.037	1	18
598.206	1	14
598.376	1	7
598.546	1	4
598.716	1	25
598.885	1	21
599.055	1	24
599.225	1	20
599.395	1	5
599.565	1	12
599.734	1	21
599.904	1	13
600.074	1	12
600.244	1	14
600.413	1	18
600.583	1	15
600.753	1	22
600.923	1	13
601.092	1	21
601.262	1	22
601.432	1	14
601.602	1	15
601.771	1	8
601.941	1	21
602.111	1	11
602.281	1	8
602.451	1	12
602.620	1	10
602.790	1	21
602.960	1	18
603.130	1	14
603.299	1	21
603.469	1	21
603.639	1	16
603.809	1	12
603.978	1	9
604.148	1	26
604.318	1	28
604.487	1	14
604.657	1	12
604.827	1	18
604.997	1	22
605.166	1	15
605.336	1	13
605.506	1	8
605.676	1	16
605.845	1	9
606.015	1	12
606.185	1	5
606.355	1	12
606.524	1	17
606.694	1	11
606.864	1	15
607.034	1	11
607.203	1	17
607.373	1	17
607.543	1	2
607.712	1	7
607.882	1	17
608.052	1	9
608.222	1	8
608.391	1	22
608.561	1	19
608.731	1	25
608.901	1	9
609.070	1	16
609.240	1	27
609.410	1	1
609.579	1	12
609.749	1	16
609.919	1	12
610.089	1	15
610.258	1	8
610.428	1	4
610.598	1	20
610.767	1	9
610.937	1	14
611.107	1	13
611.277	1	19
611.446	1	11
611.616	1	19
611.786	1	17
611.955	1	10
612.125	1	8
612.295	1	8
612.465	1	17
612.634	1	16
612.804	1	11
612.974	1	6
613.143	1	13
613.313	1	12
613.483	1	20
613.652	1	12
613.822	1	11
613.992	1	21
614.162	1	9
614.331	1	21
614.501	1	4
614.671	1	15
614.840	1	17
615.010	1	12
615.180	1	26
615.349	1	9
615.519	1	15
615.689	1	23
615.858	1	15
616.028	1	6
616.198	1	10
616.368	1	17
616.537	1	11
616.707	1	12
616.877	1	20
617.046	1	11
617.216	1	30
617.386	1	15
617.555	1	19
617.725	1	15
617.895	1	16
618.064	1	5
618.234	1	13
618.404	1	15
618.573	1	8
618.743	1	21
618.913	1	17
619.082	1	17
619.252	1	19
619.422	1	17
619.591	1	11
619.761	1	11
619.931	1	14
620.100	1	3
620.270	1	13
620.440	1	12
620.609	1	0
620.779	1	6
620.949	1	17
621.118	1	16
621.288	1	8
621.458	1	15
621.627	1	13
621.797	1	11
621.967	1	8
622.136	1	18
622.306	1	14
622.476	1	4
622.645	1	12
622.815	1	-6
622.985	1	9
623.154	1	0
623.324	1	19
623.494	1	21
623.663	1	21
623.833	1	5
624.002	1	12
624.172	1	18
624.342	1	10
624.511	1	29
624.681	1	15
624.851	1	8
625.020	1	23
625.190	1	11
625.360	1	11
625.529	1	8
625.699	1	9
625.869	1	7
626.038	1	5
626.208	1	17
626.377	1	18
626.547	1	12
626.717	1	19
626.886	1	15
627.056	1	7
627.226	1	9
627.395	1	13
627.565	1	12
627.735	1	11
627.904	1	20
628.074	1	12
628.243	1	17
628.413	1	17
628.583	1	5
628.752	1	12
628.922	1	17
629.091	1	12
629.261	1	10
629.431	1	14
629.600	1	9
629.770	1	8
629.940	1	7
630.109	1	3
630.279	1	13
630.448	1	14
630.618	1	17
630.788	1	7
630.957	1	27
631.127	1	14
631.297	1	19
631.466	1	10
631.636	1	9
631.805	1	-2
631.975	1	23
632.145	1	15
632.314	1	9
632.484	1	10
632.653	1	1
632.823	1	13
632.993	1	1
633.162	1	7
633.332	1	12
633.501	1	4
633.671	1	14
633.841	1	14
634.010	1	13
634.180	1	5
634.349	1	6
634.519	1	14
634.689	1	12
634.858	1	15
635.028	1	6
635.197	1	12
635.367	1	7
635.537	1	4
635.706	1	22
635.876	1	12
636.045	1	4
636.215	1	4
636.384	1	9
636.554	1	15
636.724	1	9
636.893	1	9
637.063	1	16
637.232	1	18
637.402	1	13
637.572	1	15
637.741	1	9
637.911	1	4
638.080	1	2
638.250	1	13
638.419	1	8
638.589	1	14
638.759	1	16
638.928	1	11
639.098	1	23
639.267	1	-1
639.437	1	-1
639.606	1	3
639.776	1	5
639.946	1	5
640.115	1	9
640.285	1	15
640.454	1	14
640.624	1	20
640.793	1	6
640.963	1	6
641.132	1	11
641.302	1	6
641.472	1	13
641.641	1	6
641.811	1	10
641.980	1	-1
642.150	1	10
642.319	1	9
642.489	1	6
642.659	1	10
642.828	1	12
642.998	1	-1
643.167	1	5
643.337	1	4
643.506	1	20
643.676	1	6
643.845	1	13
644.015	1	13
644.184	1	10
644.354	1	3
644.524	1	17
644.693	1	7
644.863	1	15
645.032	1	6
645.202	1	16
645.371	1	7
645.541	1	13
645.710	1	4
645.880	1	16
646.049	1	15
646.219	1	8
646.388	1	6
646.558	1	13
646.728	1	17
646.897	1	13
647.067	1	6
647.236	1	6
647.406	1	14
647.575	1	14
647.745	1	8
647.914	1	8
648.084	1	14
648.253	1	5
648.423	1	11
648.592	1	0
648.762	1	8
648.931	1	1
649.101	1	10
649.270	1	15
649.440	1	11
649.610	1	10
649.779	1	5
649.949	1	16
650.118	1	7
650.288	1	12
650.457	1	9
650.627	1	7
650.796	1	9
650.966	1	9
651.135	1	11
651.305	1	-1
651.474	1	5
651.644	1	11
651.813	1	12
651.983	1	22
652.152	1	9
652.322	1	1
652.491	1	18
652.661	1	8
652.830	1	15
653.000	1	-2
653.169	1	3
653.339	1	6
653.508	1	16
653.678	1	4
653.847	1	6
654.017	1	8
654.186	1	4
654.356	1	0
654.525	1	12
654.695	1	8
654.864	1	4
655.034	1	14
655.203	1	1
655.373	1	10
655.542	1	2
655.712	1	5
655.881	1	13
656.051	1	10
656.220	1	1
656.390	1	17
656.559	1	9
656.729	1	8
656.898	1	5
657.068	1	12
657.237	1	8
657.406	1	-2
657.576	1	13
657.745	1	2
657.915	1	11
658.084	1	16
658.254	1	14
658.423	1	11
658.593	1	7
658.762	1	24
658.932	1	3
659.101	1	-1
659.271	1	6
659.440	1	8
659.610	1	6
659.779	1	20
659.949	1	8
660.118	1	11
660.288	1	7
660.457	1	1
660.626	1	12
660.796	1	4
660.965	1	8
661.135	1	12
661.304	1	10
661.474	1	11
661.643	1	8
661.813	1	20
661.982	1	8
662.152	1	8
662.321	1	5
662.491	1	-4
662.660	1	7
662.829	1	0
662.999	1	20
663.168	1	13
663.338	1	13
663.507	1	5
663.677	1	-7
663.846	1	5
664.016	1	15
664.185	1	18
664.354	1	12
664.524	1	2
664.693	1	10
664.863	1	6
665.032	1	7
665.202	1	8
665.371	1	13
665.541	1	0
665.710	1	5
665.879	1	9
666.049	1	4
666.218	1	5
666.388	1	18
666.557	1	5
666.727	1	-3
666.896	1	9
667.065	1	4
667.235	1	3
667.404	1	3
667.574	1	11
667.743	1	14
667.913	1	11
668.082	1	10
668.251	1	6
668.421	1	4
668.590	1	12
668.760	1	9
668.929	1	3
669.099	1	13
669.268	1	16
669.437	1	14
669.607	1	4
669.776	1	10
669.946	1	7
670.115	1	9
670.285	1	8
670.454	1	12
670.623	1	6
670.793	1	6
670.962	1	8
671.132	1	8
671.301	1	7
671.470	1	12
671.640	1	13
671.809	1	10
671.979	1	-2
672.148	1	2
672.317	1	19
672.487	1	13
672.656	1	21
672.826	1	5
672.995	1	9
673.164	1	24
673.334	1	10
673.503	1	10
673.673	1	-4
673.842	1	-5
674.011	1	0
674.181	1	16
674.350	1	15
674.520	1	21
674.689	1	1
674.858	1	7
675.028	1	12
675.197	1	22
675.367	1	13
675.536	1	17
675.705	1	6
675.875	1	5
676.044	1	3
676.214	1	17
676.383	1	8
676.552	1	8
676.722	1	6
676.891	1	4
677.060	1	-7
677.230	1	8
677.399	1	15
677.569	1	26
677.738	1	11
677.907	1	12
678.077	1	28
678.246	1	4
678.416	1	5
678.585	1	5
678.754	1	8
678.924	1	6
679.093	1	7
679.262	1	22
679.432	1	16
679.601	1	22
679.771	1	5
679.940	1	12
680.109	1	5
680.279	1	13
680.448	1	8
680.617	1	7
680.787	1	10
680.956	1	7
681.125	1	19
681.295	1	14
681.464	1	13
681.634	1	-3
681.803	1	3
681.972	1	-3
682.142	1	4
682.311	1	13
682.480	1	13
682.650	1	9
682.819	1	13
682.988	1	15
683.158	1	8
683.327	1	14
683.496	1	13
683.666	1	5
683.835	1	3
684.004	1	10
684.174	1	14
684.343	1	6
684.512	1	4
684.682	1	9
684.851	1	16
685.021	1	9
685.190	1	12
685.359	1	8
685.529	1	9
685.698	1	13
685.867	1	9
686.037	1	17
686.206	1	10
686.375	1	15
686.545	1	6
686.714	1	6
686.883	1	11
687.053	1	0
687.222	1	4
687.391	1	22
687.561	1	10
687.730	1	10
687.899	1	10
688.069	1	2
688.238	1	15
688.407	1	15
688.577	1	14
688.746	1	5
