340.368	1	10
340.539	1	4
340.710	1	7
340.881	1	-1
341.052	1	11
341.223	1	0
341.394	1	-2
341.565	1	12
341.737	1	5
341.908	1	-1
342.079	1	-1
342.250	1	3
342.421	1	-3
342.592	1	4
342.763	1	7
342.934	1	6
343.105	1	3
343.276	1	-5
343.447	1	9
343.618	1	8
343.789	1	20
343.960	1	15
344.131	1	10
344.302	1	9
344.473	1	0
344.644	1	-2
344.815	1	8
344.986	1	-6
345.157	1	2
345.328	1	-5
345.499	1	11
345.670	1	-1
345.841	1	1
346.012	1	7
346.183	1	-2
346.354	1	11
346.526	1	2
346.697	1	4
346.868	1	3
347.039	1	-1
347.210	1	-9
347.381	1	-1
347.552	1	16
347.723	1	10
347.894	1	-1
348.065	1	-3
348.236	1	11
348.407	1	13
348.578	1	7
348.749	1	-8
348.920	1	-9
349.091	1	9
349.262	1	13
349.433	1	10
349.604	1	-3
349.775	1	9
349.946	1	2
350.117	1	9
350.288	1	14
350.459	1	-6
350.630	1	-4
350.801	1	6
350.972	1	3
351.143	1	-5
351.314	1	2
351.485	1	4
351.656	1	16
351.827	1	0
351.998	1	11
352.169	1	6
352.340	1	8
352.511	1	1
352.682	1	-3
352.853	1	11
353.024	1	9
353.195	1	-5
353.366	1	-7
353.537	1	11
353.708	1	1
353.879	1	15
354.050	1	5
354.221	1	3
354.392	1	3
354.563	1	7
354.734	1	-1
354.905	1	16
355.076	1	10
355.247	1	16
355.418	1	10
355.589	1	15
355.760	1	3
355.931	1	7
356.102	1	6
356.273	1	13
356.444	1	16
356.615	1	9
356.785	1	8
356.956	1	6
357.127	1	17
357.298	1	6
357.469	1	21
357.640	1	13
357.811	1	16
357.982	1	17
358.153	1	12
358.324	1	20
358.495	1	17
358.666	1	14
358.837	1	6
359.008	1	14
359.179	1	19
359.350	1	24
359.521	1	18
359.692	1	14
359.863	1	14
360.034	1	14
360.205	1	23
360.376	1	28
360.547	1	26
360.718	1	31
360.889	1	18
361.060	1	14
361.231	1	29
361.401	1	32
361.572	1	26
361.743	1	33
361.914	1	34
362.085	1	35
362.256	1	36
362.427	1	32
362.598	1	33
362.769	1	44
362.940	1	24
363.111	1	43
363.282	1	48
363.453	1	50
363.624	1	50
363.795	1	39
363.966	1	62
364.137	1	44
364.308	1	59
364.478	1	62
364.649	1	70
364.820	1	61
364.991	1	65
365.162	1	73
365.333	1	71
365.504	1	75
365.675	1	70
365.846	1	79
366.017	1	80
366.188	1	76
366.359	1	79
366.530	1	96
366.701	1	87
366.871	1	85
367.042	1	96
367.213	1	93
367.384	1	94
367.555	1	105
367.726	1	101
367.897	1	107
368.068	1	106
368.239	1	124
368.410	1	113
368.581	1	104
368.752	1	104
368.923	1	111
369.093	1	111
369.264	1	104
369.435	1	98
369.606	1	104
369.777	1	97
369.948	1	100
370.119	1	96
370.290	1	80
370.461	1	102
370.632	1	94
370.803	1	94
370.973	1	98
371.144	1	100
371.315	1	82
371.486	1	83
371.657	1	85
371.828	1	82
371.999	1	75
372.170	1	72
372.341	1	72
372.512	1	69
372.682	1	63
372.853	1	67
373.024	1	81
373.195	1	66
373.366	1	59
373.537	1	63
373.708	1	68
373.879	1	66
374.050	1	60
374.220	1	54
374.391	1	49
374.562	1	50
374.733	1	57
374.904	1	46
375.075	1	51
375.246	1	56
375.417	1	42
375.588	1	49
375.758	1	65
375.929	1	44
376.100	1	42
376.271	1	56
376.442	1	47
376.613	1	59
376.784	1	43
376.955	1	39
377.125	1	47
377.296	1	37
377.467	1	46
377.638	1	40
377.809	1	44
377.980	1	41
378.151	1	41
378.321	1	44
378.492	1	34
378.663	1	37
378.834	1	39
379.005	1	32
379.176	1	35
379.347	1	44
379.518	1	42
379.688	1	17
379.859	1	34
380.030	1	33
380.201	1	18
380.372	1	20
380.543	1	20
380.714	1	28
380.884	1	23
381.055	1	28
381.226	1	32
381.397	1	36
381.568	1	29
381.739	1	14
381.910	1	22
382.080	1	22
382.251	1	38
382.422	1	17
382.593	1	16
382.764	1	33
382.935	1	19
383.105	1	22
383.276	1	27
383.447	1	11
383.618	1	19
383.789	1	16
383.960	1	12
384.130	1	27
384.301	1	19
384.472	1	13
384.643	1	7
384.814	1	17
384.985	1	28
385.156	1	21
385.326	1	19
385.497	1	15
385.668	1	21
385.839	1	10
386.010	1	18
386.180	1	6
386.351	1	14
386.522	1	20
386.693	1	24
386.864	1	8
387.035	1	10
387.205	1	8
387.376	1	14
387.547	1	23
387.718	1	10
387.889	1	13
388.060	1	23
388.230	1	15
388.401	1	21
388.572	1	5
388.743	1	18
388.914	1	16
389.084	1	5
389.255	1	11
389.426	1	14
389.597	1	2
389.768	1	20
389.939	1	3
390.109	1	14
390.280	1	23
390.451	1	5
390.622	1	9
390.793	1	21
390.963	1	24
391.134	1	-1
391.305	1	8
391.476	1	20
391.647	1	13
391.817	1	17
391.988	1	13
392.159	1	6
392.330	1	12
392.501	1	16
392.671	1	2
392.842	1	8
393.013	1	9
393.184	1	18
393.355	1	6
393.525	1	8
393.696	1	9
393.867	1	15
394.038	1	6
394.208	1	5
394.379	1	24
394.550	1	6
394.721	1	1
394.892	1	6
395.062	1	5
395.233	1	-2
395.404	1	1
395.575	1	9
395.746	1	2
395.916	1	12
396.087	1	13
396.258	1	6
396.429	1	9
396.599	1	0
396.770	1	6
396.941	1	8
397.112	1	0
397.283	1	9
397.453	1	-1
397.624	1	-1
397.795	1	14
397.966	1	12
398.136	1	-6
398.307	1	4
398.478	1	11
398.649	1	6
398.819	1	0
398.990	1	0
399.161	1	7
399.332	1	3
399.503	1	7
399.673	1	4
399.844	1	8
400.015	1	-5
400.186	1	7
400.356	1	3
400.527	1	7
400.698	1	8
400.869	1	-4
401.039	1	10
401.210	1	11
401.381	1	6
401.552	1	4
401.722	1	-1
401.893	1	11
402.064	1	-1
402.235	1	-2
402.405	1	0
402.576	1	7
402.747	1	7
402.918	1	10
403.088	1	8
403.259	1	3
403.430	1	8
403.601	1	-4
403.771	1	6
403.942	1	12
404.113	1	10
404.284	1	9
404.454	1	5
404.625	1	7
404.796	1	5
404.967	1	-2
405.137	1	-2
405.308	1	1
405.479	1	4
405.649	1	9
405.820	1	11
405.991	1	5
406.162	1	7
406.332	1	-3
406.503	1	-4
406.674	1	13
406.845	1	20
407.015	1	10
407.186	1	-3
407.357	1	1
407.527	1	-1
407.698	1	1
407.869	1	4
408.040	1	10
408.210	1	12
408.381	1	11
408.552	1	19
408.722	1	3
408.893	1	7
409.064	1	-3
409.235	1	4
409.405	1	4
409.576	1	-3
409.747	1	0
409.917	1	-1
410.088	1	1
410.259	1	0
410.430	1	-1
410.600	1	4
410.771	1	3
410.942	1	2
411.112	1	12
411.283	1	-5
411.454	1	12
411.625	1	8
411.795	1	2
411.966	1	9
412.137	1	0
412.307	1	16
412.478	1	2
412.649	1	4
412.819	1	2
412.990	1	20
413.161	1	2
413.332	1	18
413.502	1	0
413.673	1	12
413.844	1	-4
414.014	1	-2
414.185	1	0
414.356	1	2
414.526	1	2
414.697	1	2
414.868	1	3
415.038	1	13
415.209	1	11
415.380	1	4
415.550	1	17
415.721	1	10
415.892	1	-2
416.063	1	-5
416.233	1	4
416.404	1	-2
416.575	1	4
416.745	1	7
416.916	1	-3
417.087	1	6
417.257	1	-4
417.428	1	14
417.599	1	0
417.769	1	1
417.940	1	3
418.111	1	8
418.281	1	11
418.452	1	6
418.623	1	-1
418.793	1	27
418.964	1	-3
419.135	1	0
419.305	1	2
419.476	1	5
419.647	1	-2
419.817	1	2
419.988	1	9
420.159	1	2
420.329	1	0
420.500	1	11
420.671	1	5
420.841	1	7
421.012	1	-1
421.183	1	8
421.353	1	-1
421.524	1	3
421.695	1	10
421.865	1	4
422.036	1	0
422.206	1	-1
422.377	1	4
422.548	1	9
422.718	1	11
422.889	1	7
423.060	1	-1
423.230	1	12
423.401	1	2
423.572	1	9
423.742	1	1
423.913	1	7
424.084	1	3
424.254	1	-2
424.425	1	-4
424.595	1	12
424.766	1	3
424.937	1	8
425.107	1	13
425.278	1	-1
425.449	1	10
425.619	1	0
425.790	1	9
425.961	1	2
426.131	1	0
426.302	1	-1
426.472	1	0
426.643	1	7
426.814	1	14
426.984	1	1
427.155	1	12
427.326	1	8
427.496	1	-5
427.667	1	-2
427.837	1	-3
428.008	1	5
428.179	1	3
428.349	1	3
428.520	1	-1
428.691	1	10
428.861	1	6
429.032	1	8
429.202	1	7
429.373	1	9
429.544	1	3
429.714	1	7
429.885	1	7
430.055	1	0
430.226	1	5
430.397	1	0
430.567	1	3
430.738	1	4
430.909	1	5
431.079	1	6
431.250	1	1
431.420	1	13
431.591	1	11
431.762	1	1
431.932	1	-3
432.103	1	-9
432.273	1	17
432.444	1	-3
432.615	1	10
432.785	1	12
432.956	1	4
433.126	1	17
433.297	1	-2
433.468	1	2
433.638	1	13
433.809	1	-2
433.979	1	-6
434.150	1	9
434.320	1	7
434.491	1	0
434.662	1	14
434.832	1	-8
435.003	1	-3
435.173	1	-1
435.344	1	1
435.515	1	-1
435.685	1	-10
435.856	1	6
436.026	1	0
436.197	1	4
436.368	1	4
436.538	1	3
436.709	1	-2
436.879	1	-7
437.050	1	7
437.220	1	7
437.391	1	3
437.562	1	11
437.732	1	6
437.903	1	-4
438.073	1	7
438.244	1	9
438.414	1	-5
438.585	1	-7
438.756	1	12
438.926	1	2
439.097	1	-3
439.267	1	-7
439.438	1	2
439.608	1	8
439.779	1	3
439.949	1	16
440.120	1	6
440.291	1	2
440.461	1	4
440.632	1	-3
440.802	1	2
440.973	1	8
441.143	1	-3
441.314	1	-1
441.485	1	10
441.655	1	-5
441.826	1	3
441.996	1	-2
442.167	1	-3
442.337	1	1
442.508	1	-2
442.678	1	1
442.849	1	18
443.019	1	9
443.190	1	0
443.361	1	6
443.531	1	-4
443.702	1	8
443.872	1	-1
444.043	1	14
444.213	1	10
444.384	1	8
444.554	1	-3
444.725	1	15
444.895	1	7
445.066	1	9
445.237	1	10
445.407	1	4
445.578	1	8
445.748	1	-3
445.919	1	-2
446.089	1	19
446.260	1	-5
446.430	1	6
446.601	1	13
446.771	1	9
446.942	1	2
447.112	1	-1
447.283	1	13
447.453	1	-7
447.624	1	0
447.794	1	1
447.965	1	-8
448.135	1	5
448.306	1	21
448.477	1	3
448.647	1	-4
448.818	1	9
448.988	1	-2
449.159	1	13
449.329	1	0
449.500	1	-5
449.670	1	-10
449.841	1	1
450.011	1	-1
450.182	1	1
450.352	1	7
450.523	1	7
450.693	1	-1
450.864	1	0
451.034	1	13
451.205	1	6
451.375	1	-5
451.546	1	7
451.716	1	2
451.887	1	14
452.057	1	10
452.228	1	14
452.398	1	3
452.569	1	8
452.739	1	4
452.910	1	8
453.080	1	9
453.251	1	-5
453.421	1	1
453.592	1	4
453.762	1	-3
453.933	1	1
454.103	1	3
454.274	1	5
454.444	1	3
454.615	1	-1
454.785	1	9
454.956	1	0
455.126	1	-4
455.297	1	4
455.467	1	14
455.638	1	6
455.808	1	4
455.979	1	-5
456.149	1	7
456.320	1	3
456.490	1	-6
456.661	1	-2
456.831	1	0
457.001	1	3
457.172	1	1
457.342	1	4
457.513	1	8
457.683	1	1
457.854	1	1
458.024	1	0
458.195	1	-1
458.365	1	8
458.536	1	4
458.706	1	7
458.877	1	-2
459.047	1	3
459.218	1	4
459.388	1	5
459.559	1	-3
459.729	1	0
459.899	1	9
460.070	1	7
460.240	1	7
460.411	1	8
460.581	1	4
460.752	1	14
460.922	1	-10
461.093	1	5
461.263	1	6
461.434	1	-3
461.604	1	7
461.775	1	-7
461.945	1	3
462.115	1	12
462.286	1	10
462.456	1	6
462.627	1	-1
462.797	1	0
462.968	1	1
463.138	1	4
463.309	1	0
463.479	1	2
463.649	1	5
463.820	1	2
463.990	1	9
464.161	1	-2
464.331	1	3
464.502	1	-1
464.672	1	11
464.843	1	3
465.013	1	5
465.183	1	4
465.354	1	0
465.524	1	8
465.695	1	16
465.865	1	5
466.036	1	-3
466.206	1	4
466.376	1	-1
466.547	1	10
466.717	1	6
466.888	1	5
467.058	1	5
467.229	1	12
467.399	1	9
467.569	1	11
467.740	1	8
467.910	1	0
468.081	1	7
468.251	1	3
468.422	1	2
468.592	1	15
468.762	1	2
468.933	1	2
469.103	1	7
469.274	1	10
469.444	1	6
469.614	1	-4
469.785	1	-1
469.955	1	-6
470.126	1	2
470.296	1	-3
470.467	1	7
470.637	1	4
470.807	1	12
470.978	1	0
471.148	1	10
471.319	1	10
471.489	1	4
471.659	1	0
471.830	1	-1
472.000	1	-8
472.171	1	8
472.341	1	3
472.511	1	5
472.682	1	5
472.852	1	11
473.023	1	6
473.193	1	3
473.363	1	11
473.534	1	11
473.704	1	2
473.875	1	1
474.045	1	16
474.215	1	3
474.386	1	2
474.556	1	5
474.727	1	3
474.897	1	-3
475.067	1	-3
475.238	1	6
475.408	1	-10
475.578	1	7
475.749	1	8
475.919	1	5
476.090	1	7
476.260	1	6
476.430	1	1
476.601	1	0
476.771	1	8
476.942	1	-10
477.112	1	0
477.282	1	4
477.453	1	7
477.623	1	8
477.793	1	-5
477.964	1	1
478.134	1	9
478.305	1	0
478.475	1	8
478.645	1	2
478.816	1	6
478.986	1	16
479.156	1	-5
479.327	1	9
479.497	1	7
479.667	1	-2
479.838	1	5
480.008	1	-3
480.179	1	6
480.349	1	1
480.519	1	9
480.690	1	10
480.860	1	13
481.030	1	12
481.201	1	10
481.371	1	3
481.541	1	-3
481.712	1	5
481.882	1	1
482.053	1	3
482.223	1	10
482.393	1	-2
482.564	1	-1
482.734	1	18
482.904	1	2
483.075	1	7
483.245	1	-2
483.415	1	11
483.586	1	11
483.756	1	-1
483.926	1	2
484.097	1	9
484.267	1	6
484.437	1	6
484.608	1	9
484.778	1	-2
484.948	1	5
485.119	1	5
485.289	1	5
485.459	1	12
485.630	1	6
485.800	1	-4
485.970	1	-3
486.141	1	0
486.311	1	-8
486.481	1	2
486.652	1	10
486.822	1	14
486.992	1	11
487.163	1	6
487.333	1	-2
487.503	1	-6
487.674	1	7
487.844	1	1
488.014	1	0
488.185	1	7
488.355	1	-2
488.525	1	10
488.696	1	9
488.866	1	7
489.036	1	13
489.207	1	-4
489.377	1	5
489.547	1	6
489.718	1	-1
489.888	1	2
490.058	1	9
490.228	1	9
490.399	1	7
490.569	1	8
490.739	1	18
490.910	1	2
491.080	1	1
491.250	1	15
491.421	1	8
491.591	1	11
491.761	1	6
491.932	1	8
492.102	1	8
492.272	1	-5
492.442	1	8
492.613	1	7
492.783	1	-6
492.953	1	16
493.124	1	3
493.294	1	6
493.464	1	13
493.635	1	4
493.805	1	11
493.975	1	10
494.145	1	15
494.316	1	2
494.486	1	4
494.656	1	12
494.827	1	2
494.997	1	23
495.167	1	16
495.337	1	6
495.508	1	13
495.678	1	14
495.848	1	16
496.019	1	15
496.189	1	8
496.359	1	13
496.529	1	9
496.700	1	15
496.870	1	4
497.040	1	6
497.211	1	3
497.381	1	14
497.551	1	9
497.721	1	9
497.892	1	5
498.062	1	4
498.232	1	7
498.403	1	5
498.573	1	17
498.743	1	13
498.913	1	12
499.084	1	22
499.254	1	9
499.424	1	12
499.594	1	7
499.765	1	4
499.935	1	14
500.105	1	5
500.275	1	5
500.446	1	-2
500.616	1	17
500.786	1	17
500.956	1	13
501.127	1	0
501.297	1	0
501.467	1	13
501.638	1	11
501.808	1	10
501.978	1	10
502.148	1	6
502.319	1	20
502.489	1	3
502.659	1	12
502.829	1	3
503.000	1	16
503.170	1	11
503.340	1	14
503.510	1	7
503.681	1	8
503.851	1	-5
504.021	1	14
504.191	1	9
504.362	1	10
504.532	1	6
504.702	1	14
504.872	1	-1
505.042	1	13
505.213	1	9
505.383	1	22
505.553	1	4
505.723	1	6
505.894	1	5
506.064	1	7
506.234	1	7
506.404	1	19
506.575	1	16
506.745	1	3
506.915	1	8
507.085	1	16
507.256	1	13
507.426	1	12
507.596	1	18
507.766	1	17
507.936	1	15
508.107	1	21
508.277	1	19
508.447	1	4
508.617	1	8
508.788	1	5
508.958	1	22
509.128	1	9
509.298	1	2
509.468	1	22
509.639	1	6
509.809	1	8
509.979	1	22
510.149	1	15
510.319	1	16
510.490	1	19
510.660	1	15
510.830	1	2
511.000	1	14
511.171	1	11
511.341	1	13
511.511	1	8
511.681	1	16
511.851	1	14
512.022	1	16
512.192	1	15
512.362	1	20
512.532	1	17
512.702	1	9
512.873	1	7
513.043	1	10
513.213	1	10
513.383	1	16
513.553	1	14
513.724	1	12
513.894	1	25
514.064	1	14
514.234	1	16
514.404	1	8
514.575	1	21
514.745	1	13
514.915	1	16
515.085	1	19
515.255	1	15
515.425	1	9
515.596	1	10
515.766	1	26
515.936	1	19
516.106	1	17
516.276	1	31
516.447	1	19
516.617	1	9
516.787	1	19
516.957	1	5
517.127	1	19
517.297	1	7
517.468	1	25
517.638	1	12
517.808	1	23
517.978	1	18
518.148	1	26
518.319	1	6
518.489	1	18
518.659	1	21
518.829	1	20
518.999	1	16
519.169	1	11
519.340	1	16
519.510	1	9
519.680	1	7
519.850	1	9
520.020	1	10
520.190	1	31
520.361	1	7
520.531	1	14
520.701	1	22
520.871	1	11
521.041	1	10
521.211	1	3
521.382	1	24
521.552	1	23
521.722	1	29
521.892	1	15
522.062	1	16
522.232	1	16
522.402	1	24
522.573	1	26
522.743	1	5
522.913	1	6
523.083	1	19
523.253	1	4
523.423	1	15
523.593	1	8
523.764	1	30
523.934	1	28
524.104	1	18
524.274	1	12
524.444	1	28
524.614	1	24
524.784	1	21
524.955	1	18
525.125	1	18
525.295	1	22
525.465	1	28
525.635	1	21
525.805	1	20
525.975	1	10
526.146	1	7
526.316	1	29
526.486	1	22
526.656	1	16
526.826	1	15
526.996	1	9
527.166	1	25
527.337	1	24
527.507	1	15
527.677	1	31
527.847	1	17
528.017	1	23
528.187	1	25
528.357	1	21
528.527	1	26
528.698	1	20
528.868	1	16
529.038	1	10
529.208	1	17
529.378	1	20
529.548	1	21
529.718	1	13
529.888	1	21
530.058	1	15
530.229	1	15
530.399	1	34
530.569	1	9
530.739	1	16
530.909	1	36
531.079	1	13
531.249	1	19
531.419	1	26
531.589	1	25
531.760	1	17
531.930	1	8
532.100	1	21
532.270	1	21
532.440	1	7
532.610	1	9
532.780	1	8
532.950	1	2
533.120	1	8
533.290	1	21
533.461	1	12
533.631	1	22
533.801	1	26
533.971	1	22
534.141	1	19
534.311	1	14
534.481	1	3
534.651	1	31
534.821	1	10
534.991	1	16
535.162	1	14
535.332	1	17
535.502	1	18
535.672	1	7
535.842	1	13
536.012	1	14
536.182	1	18
536.352	1	8
536.522	1	23
536.692	1	5
536.862	1	14
537.032	1	13
537.203	1	12
537.373	1	19
537.543	1	17
537.713	1	24
537.883	1	6
538.053	1	15
538.223	1	13
538.393	1	17
538.563	1	23
538.733	1	11
538.903	1	11
539.073	1	24
539.243	1	14
539.413	1	17
539.584	1	11
539.754	1	10
539.924	1	14
540.094	1	16
540.264	1	13
540.434	1	21
540.604	1	21
540.774	1	20
540.944	1	27
541.114	1	7
541.284	1	22
541.454	1	11
541.624	1	18
541.794	1	18
541.964	1	8
542.134	1	20
542.305	1	11
542.475	1	19
542.645	1	20
542.815	1	17
542.985	1	11
543.155	1	17
543.325	1	9
543.495	1	10
543.665	1	20
543.835	1	23
544.005	1	18
544.175	1	31
544.345	1	14
544.515	1	17
544.685	1	22
544.855	1	24
545.025	1	19
545.195	1	12
545.365	1	28
545.535	1	21
545.705	1	17
545.875	1	26
546.045	1	24
546.216	1	22
546.386	1	14
546.556	1	15
546.726	1	22
546.896	1	32
547.066	1	27
547.236	1	20
547.406	1	22
547.576	1	14
547.746	1	2
547.916	1	10
548.086	1	9
548.256	1	13
548.426	1	16
548.596	1	25
548.766	1	13
548.936	1	18
549.106	1	9
549.276	1	17
549.446	1	3
549.616	1	11
549.786	1	27
549.956	1	15
550.126	1	20
550.296	1	19
550.466	1	18
550.636	1	16
550.806	1	18
550.976	1	24
551.146	1	27
551.316	1	15
551.486	1	17
551.656	1	-4
551.826	1	14
551.996	1	17
552.166	1	22
552.336	1	17
552.506	1	20
552.676	1	16
552.846	1	15
553.016	1	19
553.186	1	11
553.356	1	22
553.526	1	12
553.696	1	18
553.866	1	14
554.036	1	19
554.206	1	17
554.376	1	3
554.546	1	22
554.716	1	19
554.886	1	20
555.056	1	14
555.226	1	10
555.396	1	12
555.566	1	10
555.736	1	23
555.906	1	19
556.076	1	15
556.246	1	19
556.416	1	17
556.586	1	12
556.756	1	14
556.926	1	24
557.096	1	26
557.266	1	5
557.436	1	17
557.606	1	5
557.776	1	8
557.946	1	10
558.116	1	15
558.286	1	5
558.456	1	13
558.626	1	16
558.796	1	24
558.966	1	25
559.136	1	15
559.306	1	24
559.476	1	18
559.646	1	21
559.816	1	5
559.986	1	14
560.155	1	7
560.325	1	18
560.495	1	17
560.665	1	17
560.835	1	13
561.005	1	10
561.175	1	16
561.345	1	20
561.515	1	15
561.685	1	16
561.855	1	12
562.025	1	15
562.195	1	22
562.365	1	11
562.535	1	16
562.705	1	16
562.875	1	6
563.045	1	17
563.215	1	15
563.385	1	22
563.555	1	9
563.725	1	12
563.895	1	16
564.064	1	16
564.234	1	21
564.404	1	14
564.574	1	17
564.744	1	6
564.914	1	22
565.084	1	4
565.254	1	16
565.424	1	21
565.594	1	15
565.764	1	7
565.934	1	15
566.104	1	26
566.274	1	16
566.444	1	15
566.614	1	17
566.783	1	14
566.953	1	20
567.123	1	14
567.293	1	10
567.463	1	16
567.633	1	6
567.803	1	9
567.973	1	26
568.143	1	7
568.313	1	15
568.483	1	14
568.653	1	22
568.823	1	12
568.993	1	7
569.162	1	14
569.332	1	19
569.502	1	21
569.672	1	19
569.842	1	16
570.012	1	17
570.182	1	15
570.352	1	9
570.522	1	16
570.692	1	12
570.862	1	11
571.031	1	14
571.201	1	21
571.371	1	5
571.541	1	10
571.711	1	21
571.881	1	16
572.051	1	3
572.221	1	11
572.391	1	17
572.561	1	5
572.731	1	-1
572.900	1	13
573.070	1	12
573.240	1	17
573.410	1	15
573.580	1	24
573.750	1	17
573.920	1	16
574.090	1	22
574.260	1	9
574.430	1	1
574.599	1	7
574.769	1	5
574.939	1	12
575.109	1	17
575.279	1	12
575.449	1	27
575.619	1	7
575.789	1	17
575.959	1	2
576.128	1	11
576.298	1	16
576.468	1	17
576.638	1	28
576.808	1	8
576.978	1	2
577.148	1	18
577.318	1	11
577.487	1	12
577.657	1	17
577.827	1	4
577.997	1	7
578.167	1	19
578.337	1	17
578.507	1	17
578.677	1	14
578.846	1	5
579.016	1	22
579.186	1	9
579.356	1	13
579.526	1	8
579.696	1	6
579.866	1	7
580.036	1	9
580.205	1	7
580.375	1	19
580.545	1	20
580.715	1	14
580.885	1	0
581.055	1	15
581.225	1	4
581.394	1	15
581.564	1	13
581.734	1	3
581.904	1	11
582.074	1	4
582.244	1	25
582.414	1	6
582.583	1	18
582.753	1	13
582.923	1	21
583.093	1	3
583.263	1	8
583.433	1	19
583.603	1	15
583.772	1	12
583.942	1	7
584.112	1	0
584.282	1	20
584.452	1	9
584.622	1	12
584.791	1	14
584.961	1	13
585.131	1	12
585.301	1	6
585.471	1	16
585.641	1	8
585.811	1	17
585.980	1	8
586.150	1	-2
586.320	1	12
586.490	1	18
586.660	1	9
586.830	1	18
586.999	1	23
587.169	1	7
587.339	1	8
587.509	1	6
587.679	1	5
587.849	1	6
588.018	1	29
588.188	1	10
588.358	1	4
588.528	1	16
588.698	1	13
588.867	1	3
589.037	1	8
589.207	1	15
589.377	1	5
589.547	1	4
589.717	1	7
589.886	1	17
590.056	1	10
590.226	1	2
590.396	1	14
590.566	1	8
590.735	1	23
590.905	1	9
591.075	1	-2
591.245	1	19
591.415	1	4
591.585	1	3
591.754	1	6
591.924	1	7
592.094	1	5
592.264	1	6
592.434	1	13
592.603	1	11
592.773	1	3
592.943	1	11
593.113	1	5
593.283	1	7
593.452	1	21
593.622	1	19
593.792	1	4
593.962	1	4
594.132	1	9
594.301	1	12
594.471	1	18
594.641	1	6
594.811	1	-1
594.981	1	-7
595.150	1	9
595.320	1	21
595.490	1	9
595.660	1	13
595.829	1	5
595.999	1	16
596.169	1	28
596.339	1	18
596.509	1	14
596.678	1	12
596.848	1	7
597.018	1	15
597.188	1	17
597.358	1	2
597.527	1	6
597.697	1	-3
597.867	1	17
598.037	1	12
598.206	1	19
598.376	1	-2
598.546	1	4
598.716	1	13
598.885	1	12
599.055	1	13
599.225	1	16
599.395	1	12
599.565	1	2
599.734	1	7
599.904	1	12
600.074	1	3
600.244	1	10
600.413	1	8
600.583	1	13
600.753	1	21
600.923	1	15
601.092	1	14
601.262	1	7
601.432	1	9
601.602	1	10
601.771	1	6
601.941	1	4
602.111	1	13
602.281	1	14
602.451	1	4
602.620	1	0
602.790	1	17
602.960	1	11
603.130	1	14
603.299	1	16
603.469	1	15
603.639	1	19
603.809	1	3
603.978	1	8
604.148	1	10
604.318	1	12
604.487	1	8
604.657	1	10
604.827	1	9
604.997	1	19
605.166	1	10
605.336	1	2
605.506	1	2
605.676	1	2
605.845	1	8
606.015	1	6
606.185	1	10
606.355	1	4
606.524	1	20
606.694	1	7
606.864	1	7
607.034	1	7
607.203	1	16
607.373	1	19
607.543	1	-6
607.712	1	9
607.882	1	17
608.052	1	12
608.222	1	6
608.391	1	8
608.561	1	9
608.731	1	10
608.901	1	5
609.070	1	15
609.240	1	8
609.410	1	12
609.579	1	5
609.749	1	12
609.919	1	15
610.089	1	0
610.258	1	-2
610.428	1	11
610.598	1	5
610.767	1	-1
610.937	1	4
611.107	1	13
611.277	1	16
611.446	1	-2
611.616	1	11
611.786	1	1
611.955	1	5
612.125	1	9
612.295	1	3
612.465	1	18
612.634	1	11
612.804	1	16
612.974	1	-1
613.143	1	5
613.313	1	8
613.483	1	13
613.652	1	4
613.822	1	3
613.992	1	16
614.162	1	5
614.331	1	13
614.501	1	2
614.671	1	3
614.840	1	6
615.010	1	0
615.180	1	13
615.349	1	12
615.519	1	11
615.689	1	6
615.858	1	12
616.028	1	9
616.198	1	7
616.368	1	9
616.537	1	1
616.707	1	17
616.877	1	9
617.046	1	10
617.216	1	30
617.386	1	10
617.555	1	15
617.725	1	8
617.895	1	15
618.064	1	1
618.234	1	7
618.404	1	5
618.573	1	9
618.743	1	12
618.913	1	11
619.082	1	14
619.252	1	17
619.422	1	13
619.591	1	-2
619.761	1	13
619.931	1	2
620.100	1	7
620.270	1	7
620.440	1	10
620.609	1	1
620.779	1	3
620.949	1	13
621.118	1	6
621.288	1	3
621.458	1	15
621.627	1	10
621.797	1	5
621.967	1	0
622.136	1	7
622.306	1	-4
622.476	1	9
622.645	1	2
622.815	1	0
622.985	1	3
623.154	1	0
623.324	1	11
623.494	1	25
623.663	1	22
623.833	1	-7
624.002	1	9
624.172	1	5
624.342	1	3
624.511	1	7
624.681	1	11
624.851	1	13
625.020	1	16
625.190	1	7
625.360	1	7
625.529	1	12
625.699	1	2
625.869	1	8
626.038	1	-2
626.208	1	11
626.377	1	3
626.547	1	9
626.717	1	14
626.886	1	14
627.056	1	7
627.226	1	8
627.395	1	11
627.565	1	13
627.735	1	3
627.904	1	26
628.074	1	7
628.243	1	6
628.413	1	10
628.583	1	10
628.752	1	3
628.922	1	10
629.091	1	6
629.261	1	8
629.431	1	1
629.600	1	1
629.770	1	7
629.940	1	4
630.109	1	-4
630.279	1	5
630.448	1	9
630.618	1	13
630.788	1	1
630.957	1	17
631.127	1	9
631.297	1	17
631.466	1	10
631.636	1	2
631.805	1	-1
631.975	1	16
632.145	1	0
632.314	1	2
632.484	1	1
632.653	1	14
632.823	1	5
632.993	1	4
633.162	1	12
633.332	1	2
633.501	1	-1
633.671	1	14
633.841	1	10
634.010	1	9
634.180	1	-9
634.349	1	4
634.519	1	2
634.689	1	19
634.858	1	6
635.028	1	4
635.197	1	17
635.367	1	6
635.537	1	-4
635.706	1	15
635.876	1	5
636.045	1	0
636.215	1	-8
636.384	1	1
636.554	1	17
636.724	1	9
636.893	1	-3
637.063	1	11
637.232	1	8
637.402	1	11
637.572	1	15
637.741	1	7
637.911	1	2
638.080	1	9
638.250	1	6
638.419	1	7
638.589	1	14
638.759	1	13
638.928	1	7
639.098	1	17
639.267	1	-8
639.437	1	1
639.606	1	4
639.776	1	3
639.946	1	2
640.115	1	3
640.285	1	8
640.454	1	7
640.624	1	18
640.793	1	0
640.963	1	10
641.132	1	5
641.302	1	8
641.472	1	7
641.641	1	5
641.811	1	-2
641.980	1	5
642.150	1	4
642.319	1	3
642.489	1	3
642.659	1	6
642.828	1	6
642.998	1	-3
643.167	1	4
643.337	1	6
643.506	1	13
643.676	1	8
643.845	1	4
644.015	1	1
644.184	1	6
644.354	1	10
644.524	1	7
644.693	1	2
644.863	1	15
645.032	1	4
645.202	1	8
645.371	1	-3
645.541	1	7
645.710	1	12
645.880	1	12
646.049	1	10
646.219	1	11
646.388	1	6
646.558	1	9
646.728	1	15
646.897	1	11
647.067	1	14
647.236	1	-2
647.406	1	7
647.575	1	10
647.745	1	1
647.914	1	6
648.084	1	0
648.253	1	2
648.423	1	3
648.592	1	1
648.762	1	7
648.931	1	10
649.101	1	7
649.270	1	6
649.440	1	7
649.610	1	3
649.779	1	3
649.949	1	-2
650.118	1	0
650.288	1	3
650.457	1	4
650.627	1	7
650.796	1	-6
650.966	1	1
651.135	1	5
651.305	1	8
651.474	1	9
651.644	1	-6
651.813	1	5
651.983	1	16
652.152	1	9
652.322	1	-1
652.491	1	10
652.661	1	8
652.830	1	11
653.000	1	2
653.169	1	9
653.339	1	9
653.508	1	18
653.678	1	2
653.847	1	2
654.017	1	5
654.186	1	0
654.356	1	8
654.525	1	15
654.695	1	4
654.864	1	9
655.034	1	8
655.203	1	8
655.373	1	-3
655.542	1	3
655.712	1	9
655.881	1	10
656.051	1	6
656.220	1	5
656.390	1	4
656.559	1	2
656.729	1	7
656.898	1	9
657.068	1	8
657.237	1	3
657.406	1	-2
657.576	1	-2
657.745	1	5
657.915	1	3
658.084	1	11
658.254	1	3
658.423	1	9
658.593	1	3
658.762	1	9
658.932	1	-1
659.101	1	3
659.271	1	11
659.440	1	-3
659.610	1	15
659.779	1	9
659.949	1	7
660.118	1	-2
660.288	1	-4
660.457	1	7
660.626	1	7
660.796	1	5
660.965	1	-9
661.135	1	11
661.304	1	11
661.474	1	5
661.643	1	2
661.813	1	18
661.982	1	-7
662.152	1	7
662.321	1	0
662.491	1	8
662.660	1	9
662.829	1	5
662.999	1	11
663.168	1	14
663.338	1	-2
663.507	1	1
663.677	1	-10
663.846	1	4
664.016	1	0
664.185	1	16
664.354	1	10
664.524	1	-6
664.693	1	8
664.863	1	11
665.032	1	11
665.202	1	-13
665.371	1	-3
665.541	1	-2
665.710	1	4
665.879	1	2
666.049	1	-1
666.218	1	8
666.388	1	21
666.557	1	5
666.727	1	-1
666.896	1	15
667.065	1	-1
667.235	1	4
667.404	1	3
667.574	1	9
667.743	1	16
667.913	1	2
668.082	1	15
668.251	1	9
668.421	1	1
668.590	1	12
668.760	1	6
668.929	1	3
669.099	1	15
669.268	1	10
669.437	1	-1
669.607	1	12
669.776	1	10
669.946	1	5
670.115	1	1
670.285	1	13
670.454	1	7
670.623	1	8
670.793	1	9
670.962	1	11
671.132	1	5
671.301	1	5
671.470	1	3
671.640	1	9
671.809	1	1
671.979	1	8
672.148	1	-3
672.317	1	6
672.487	1	8
672.656	1	11
672.826	1	8
672.995	1	5
673.164	1	16
673.334	1	-2
673.503	1	13
673.673	1	-4
673.842	1	0
674.011	1	0
674.181	1	5
674.350	1	9
674.520	1	12
674.689	1	5
674.858	1	0
675.028	1	11
675.197	1	9
675.367	1	5
675.536	1	11
675.705	1	-3
675.875	1	-5
676.044	1	12
676.214	1	12
676.383	1	18
676.552	1	7
676.722	1	-2
676.891	1	1
677.060	1	5
677.230	1	14
677.399	1	10
677.569	1	21
677.738	1	3
677.907	1	20
678.077	1	14
678.246	1	2
678.416	1	9
678.585	1	2
678.754	1	5
678.924	1	-1
679.093	1	9
679.262	1	20
679.432	1	8
679.601	1	11
679.771	1	-4
679.940	1	7
680.109	1	11
680.279	1	5
680.448	1	-10
680.617	1	7
680.787	1	2
680.956	1	-3
681.125	1	5
681.295	1	13
681.464	1	4
681.634	1	-10
681.803	1	-1
681.972	1	6
682.142	1	-2
682.311	1	12
682.480	1	6
682.650	1	-2
682.819	1	10
682.988	1	12
683.158	1	14
683.327	1	15
683.496	1	14
683.666	1	-2
683.835	1	1
684.004	1	0
684.174	1	7
684.343	1	11
684.512	1	1
684.682	1	5
684.851	1	5
685.021	1	4
685.190	1	18
685.359	1	4
685.529	1	10
685.698	1	4
685.867	1	3
686.037	1	2
686.206	1	17
686.375	1	12
686.545	1	6
686.714	1	10
686.883	1	-2
687.053	1	0
687.222	1	0
687.391	1	11
687.561	1	8
687.730	1	6
687.899	1	12
688.069	1	-3
688.238	1	6
688.407	1	3
688.577	1	4
688.746	1	10
