340.368	1	13
340.539	1	0
340.710	1	-7
340.881	1	-1
341.052	1	10
341.223	1	-2
341.394	1	-8
341.565	1	10
341.737	1	15
341.908	1	-4
342.079	1	-1
342.250	1	7
342.421	1	4
342.592	1	10
342.763	1	1
342.934	1	-3
343.105	1	-5
343.276	1	0
343.447	1	8
343.618	1	5
343.789	1	10
343.960	1	-1
344.131	1	2
344.302	1	8
344.473	1	5
344.644	1	3
344.815	1	1
344.986	1	-2
345.157	1	-7
345.328	1	-2
345.499	1	12
345.670	1	0
345.841	1	8
346.012	1	5
346.183	1	4
346.354	1	1
346.526	1	7
346.697	1	2
346.868	1	-2
347.039	1	6
347.210	1	3
347.381	1	4
347.552	1	6
347.723	1	-8
347.894	1	-3
348.065	1	-9
348.236	1	-3
348.407	1	0
348.578	1	0
348.749	1	2
348.920	1	-5
349.091	1	-3
349.262	1	4
349.433	1	12
349.604	1	6
349.775	1	14
349.946	1	-2
350.117	1	-1
350.288	1	4
350.459	1	-8
350.630	1	4
350.801	1	5
350.972	1	1
351.143	1	-1
351.314	1	1
351.485	1	-5
351.656	1	10
351.827	1	-2
351.998	1	7
352.169	1	0
352.340	1	2
352.511	1	5
352.682	1	-7
352.853	1	1
353.024	1	10
353.195	1	4
353.366	1	-2
353.537	1	4
353.708	1	-9
353.879	1	7
354.050	1	4
354.221	1	-5
354.392	1	0
354.563	1	11
354.734	1	-8
354.905	1	15
355.076	1	13
355.247	1	6
355.418	1	8
355.589	1	4
355.760	1	4
355.931	1	0
356.102	1	8
356.273	1	14
356.444	1	8
356.615	1	9
356.785	1	-2
356.956	1	14
357.127	1	11
357.298	1	-1
357.469	1	14
357.640	1	5
357.811	1	4
357.982	1	6
358.153	1	8
358.324	1	10
358.495	1	-2
358.666	1	16
358.837	1	7
359.008	1	19
359.179	1	6
359.350	1	7
359.521	1	10
359.692	1	8
359.863	1	1
360.034	1	4
360.205	1	7
360.376	1	18
360.547	1	11
360.718	1	21
360.889	1	21
361.060	1	11
361.231	1	7
361.401	1	15
361.572	1	14
361.743	1	13
361.914	1	13
362.085	1	21
362.256	1	14
362.427	1	11
362.598	1	17
362.769	1	28
362.940	1	11
363.111	1	10
363.282	1	24
363.453	1	24
363.624	1	27
363.795	1	17
363.966	1	26
364.137	1	23
364.308	1	38
364.478	1	22
364.649	1	41
364.820	1	43
364.991	1	21
365.162	1	43
365.333	1	32
365.504	1	26
365.675	1	27
365.846	1	45
366.017	1	48
366.188	1	42
366.359	1	36
366.530	1	53
366.701	1	39
366.871	1	33
367.042	1	50
367.213	1	50
367.384	1	45
367.555	1	49
367.726	1	51
367.897	1	49
368.068	1	54
368.239	1	54
368.410	1	55
368.581	1	49
368.752	1	46
368.923	1	61
369.093	1	49
369.264	1	52
369.435	1	44
369.606	1	63
369.777	1	39
369.948	1	41
370.119	1	44
370.290	1	42
370.461	1	48
370.632	1	49
370.803	1	55
370.973	1	43
371.144	1	51
371.315	1	37
371.486	1	47
371.657	1	52
371.828	1	32
371.999	1	37
372.170	1	40
372.341	1	50
372.512	1	22
372.682	1	45
372.853	1	36
373.024	1	44
373.195	1	35
373.366	1	23
373.537	1	39
373.708	1	40
373.879	1	39
374.050	1	37
374.220	1	35
374.391	1	25
374.562	1	43
374.733	1	44
374.904	1	25
375.075	1	18
375.246	1	26
375.417	1	28
375.588	1	10
375.758	1	28
375.929	1	25
376.100	1	22
376.271	1	19
376.442	1	28
376.613	1	26
376.784	1	16
376.955	1	20
377.125	1	18
377.296	1	18
377.467	1	17
377.638	1	17
377.809	1	20
377.980	1	25
378.151	1	20
378.321	1	7
378.492	1	17
378.663	1	13
378.834	1	3
379.005	1	21
379.176	1	14
379.347	1	18
379.518	1	11
379.688	1	13
379.859	1	14
380.030	1	15
380.201	1	5
380.372	1	11
380.543	1	12
380.714	1	22
380.884	1	12
381.055	1	17
381.226	1	18
381.397	1	24
381.568	1	5
381.739	1	5
381.910	1	10
382.080	1	7
382.251	1	21
382.422	1	7
382.593	1	12
382.764	1	4
382.935	1	14
383.105	1	4
383.276	1	8
383.447	1	8
383.618	1	16
383.789	1	15
383.960	1	4
384.130	1	12
384.301	1	18
384.472	1	-1
384.643	1	-5
384.814	1	14
384.985	1	21
385.156	1	16
385.326	1	9
385.497	1	1
385.668	1	13
385.839	1	4
386.010	1	14
386.180	1	7
386.351	1	3
386.522	1	8
386.693	1	12
386.864	1	17
387.035	1	8
387.205	1	-8
387.376	1	8
387.547	1	18
387.718	1	11
387.889	1	7
388.060	1	8
388.230	1	5
388.401	1	13
388.572	1	-1
388.743	1	7
388.914	1	8
389.084	1	-3
389.255	1	3
389.426	1	-3
389.597	1	-3
389.768	1	13
389.939	1	9
390.109	1	6
390.280	1	5
390.451	1	9
390.622	1	11
390.793	1	8
390.963	1	5
391.134	1	5
391.305	1	1
391.476	1	9
391.647	1	-7
391.817	1	13
391.988	1	10
392.159	1	7
392.330	1	-4
392.501	1	2
392.671	1	3
392.842	1	7
393.013	1	-4
393.184	1	8
393.355	1	-5
393.525	1	1
393.696	1	2
393.867	1	4
394.038	1	9
394.208	1	0
394.379	1	11
394.550	1	7
394.721	1	1
394.892	1	13
395.062	1	6
395.233	1	1
395.404	1	-4
395.575	1	7
395.746	1	-4
395.916	1	0
396.087	1	13
396.258	1	10
396.429	1	11
396.599	1	2
396.770	1	3
396.941	1	13
397.112	1	7
397.283	1	10
397.453	1	1
397.624	1	-2
397.795	1	10
397.966	1	13
398.136	1	7
398.307	1	12
398.478	1	1
398.649	1	14
398.819	1	-6
398.990	1	5
399.161	1	10
399.332	1	4
399.503	1	6
399.673	1	10
399.844	1	0
400.015	1	-6
400.186	1	0
400.356	1	9
400.527	1	1
400.698	1	-6
400.869	1	-1
401.039	1	3
401.210	1	17
401.381	1	9
401.552	1	7
401.722	1	-8
401.893	1	8
402.064	1	8
402.235	1	1
402.405	1	-2
402.576	1	5
402.747	1	-2
402.918	1	-1
403.088	1	3
403.259	1	8
403.430	1	-11
403.601	1	-4
403.771	1	8
403.942	1	2
404.113	1	6
404.284	1	-5
404.454	1	-6
404.625	1	2
404.796	1	7
404.967	1	1
405.137	1	6
405.308	1	-3
405.479	1	-1
405.649	1	1
405.820	1	8
405.991	1	-2
406.162	1	17
406.332	1	1
406.503	1	-6
406.674	1	4
406.845	1	13
407.015	1	6
407.186	1	-6
407.357	1	1
407.527	1	-3
407.698	1	1
407.869	1	-5
408.040	1	12
408.210	1	8
408.381	1	14
408.552	1	8
408.722	1	-1
408.893	1	9
409.064	1	-1
409.235	1	3
409.405	1	0
409.576	1	-7
409.747	1	3
409.917	1	7
410.088	1	5
410.259	1	-5
410.430	1	-2
410.600	1	5
410.771	1	4
410.942	1	3
411.112	1	13
411.283	1	0
411.454	1	11
411.625	1	3
411.795	1	-1
411.966	1	2
412.137	1	-6
412.307	1	15
412.478	1	2
412.649	1	4
412.819	1	4
412.990	1	3
413.161	1	6
413.332	1	5
413.502	1	0
413.673	1	4
413.844	1	-2
414.014	1	-3
414.185	1	-13
414.356	1	-4
414.526	1	-6
414.697	1	0
414.868	1	2
415.038	1	12
415.209	1	3
415.380	1	3
415.550	1	17
415.721	1	-6
415.892	1	2
416.063	1	-8
416.233	1	5
416.404	1	-9
416.575	1	7
416.745	1	4
416.916	1	-6
417.087	1	-8
417.257	1	-2
417.428	1	2
417.599	1	-7
417.769	1	1
417.940	1	5
418.111	1	-2
418.281	1	4
418.452	1	-1
418.623	1	-7
418.793	1	13
418.964	1	-6
419.135	1	6
419.305	1	12
419.476	1	7
419.647	1	-8
419.817	1	-5
419.988	1	2
420.159	1	10
420.329	1	7
420.500	1	14
420.671	1	-3
420.841	1	1
421.012	1	10
421.183	1	2
421.353	1	-8
421.524	1	1
421.695	1	15
421.865	1	-3
422.036	1	-1
422.206	1	3
422.377	1	4
422.548	1	7
422.718	1	15
422.889	1	3
423.060	1	3
423.230	1	-1
423.401	1	2
423.572	1	10
423.742	1	2
423.913	1	-6
424.084	1	5
424.254	1	2
424.425	1	0
424.595	1	8
424.766	1	-9
424.937	1	9
425.107	1	18
425.278	1	9
425.449	1	1
425.619	1	-3
425.790	1	2
425.961	1	-1
426.131	1	4
426.302	1	-2
426.472	1	-6
426.643	1	7
426.814	1	4
426.984	1	-7
427.155	1	9
427.326	1	-4
427.496	1	4
427.667	1	-7
427.837	1	-4
428.008	1	2
428.179	1	6
428.349	1	8
428.520	1	-4
428.691	1	17
428.861	1	2
429.032	1	5
429.202	1	9
429.373	1	2
429.544	1	5
429.714	1	-3
429.885	1	17
430.055	1	0
430.226	1	9
430.397	1	5
430.567	1	1
430.738	1	-5
430.909	1	6
431.079	1	8
431.250	1	9
431.420	1	0
431.591	1	7
431.762	1	-5
431.932	1	-1
432.103	1	-11
432.273	1	5
432.444	1	0
432.615	1	9
432.785	1	9
432.956	1	-3
433.126	1	15
433.297	1	-5
433.468	1	-4
433.638	1	5
433.809	1	7
433.979	1	0
434.150	1	-1
434.320	1	7
434.491	1	1
434.662	1	7
434.832	1	-3
435.003	1	11
435.173	1	0
435.344	1	-7
435.515	1	-3
435.685	1	-7
435.856	1	8
436.026	1	-1
436.197	1	3
436.368	1	-4
436.538	1	9
436.709	1	1
436.879	1	-3
437.050	1	10
437.220	1	13
437.391	1	9
437.562	1	12
437.732	1	8
437.903	1	2
438.073	1	1
438.244	1	14
438.414	1	-10
438.585	1	-7
438.756	1	5
438.926	1	7
439.097	1	1
439.267	1	2
439.438	1	6
439.608	1	14
439.779	1	3
439.949	1	-4
440.120	1	4
440.291	1	-6
440.461	1	-3
440.632	1	-4
440.802	1	-3
440.973	1	10
441.143	1	-4
441.314	1	5
441.485	1	11
441.655	1	-10
441.826	1	7
441.996	1	-12
442.167	1	0
442.337	1	-9
442.508	1	2
442.678	1	-8
442.849	1	13
443.019	1	6
443.190	1	-4
443.361	1	4
443.531	1	2
443.702	1	4
443.872	1	-1
444.043	1	-3
444.213	1	5
444.384	1	4
444.554	1	3
444.725	1	11
444.895	1	2
445.066	1	2
445.237	1	-2
445.407	1	-6
445.578	1	11
445.748	1	3
445.919	1	3
446.089	1	18
446.260	1	-4
446.430	1	2
446.601	1	10
446.771	1	3
446.942	1	-6
447.112	1	2
447.283	1	14
447.453	1	1
447.624	1	7
447.794	1	8
447.965	1	-2
448.135	1	4
448.306	1	5
448.477	1	5
448.647	1	-4
448.818	1	6
448.988	1	5
449.159	1	3
449.329	1	-1
449.500	1	-5
449.670	1	-2
449.841	1	-7
450.011	1	7
450.182	1	-1
450.352	1	5
450.523	1	0
450.693	1	-4
450.864	1	3
451.034	1	10
451.205	1	8
451.375	1	0
451.546	1	4
451.716	1	1
451.887	1	-2
452.057	1	-3
452.228	1	8
452.398	1	4
452.569	1	10
452.739	1	2
452.910	1	6
453.080	1	-5
453.251	1	1
453.421	1	4
453.592	1	2
453.762	1	-6
453.933	1	-1
454.103	1	-3
454.274	1	-4
454.444	1	1
454.615	1	2
454.785	1	1
454.956	1	-5
455.126	1	5
455.297	1	2
455.467	1	5
455.638	1	-3
455.808	1	6
455.979	1	-15
456.149	1	-8
456.320	1	-7
456.490	1	-3
456.661	1	-5
456.831	1	-6
457.001	1	9
457.172	1	-1
457.342	1	6
457.513	1	6
457.683	1	10
457.854	1	-5
458.024	1	-4
458.195	1	0
458.365	1	3
458.536	1	9
458.706	1	16
458.877	1	6
459.047	1	6
459.218	1	3
459.388	1	5
459.559	1	-7
459.729	1	5
459.899	1	0
460.070	1	-2
460.240	1	0
460.411	1	7
460.581	1	9
460.752	1	-2
460.922	1	-8
461.093	1	4
461.263	1	-1
461.434	1	0
461.604	1	4
461.775	1	-10
461.945	1	2
462.115	1	9
462.286	1	9
462.456	1	-5
462.627	1	-2
462.797	1	4
462.968	1	14
463.138	1	8
463.309	1	-7
463.479	1	1
463.649	1	12
463.820	1	4
463.990	1	10
464.161	1	2
464.331	1	6
464.502	1	1
464.672	1	8
464.843	1	10
465.013	1	1
465.183	1	2
465.354	1	-5
465.524	1	11
465.695	1	2
465.865	1	6
466.036	1	8
466.206	1	19
466.376	1	-5
466.547	1	7
466.717	1	11
466.888	1	-1
467.058	1	1
467.229	1	12
467.399	1	8
467.569	1	14
467.740	1	3
467.910	1	-1
468.081	1	4
468.251	1	-1
468.422	1	1
468.592	1	5
468.762	1	12
468.933	1	7
469.103	1	-2
469.274	1	-1
469.444	1	3
469.614	1	1
469.785	1	-4
469.955	1	-5
470.126	1	4
470.296	1	-12
470.467	1	8
470.637	1	-10
470.807	1	10
470.978	1	-1
471.148	1	6
471.319	1	10
471.489	1	5
471.659	1	-2
471.830	1	1
472.000	1	-5
472.171	1	-6
472.341	1	-1
472.511	1	8
472.682	1	4
472.852	1	11
473.023	1	10
473.193	1	4
473.363	1	11
473.534	1	4
473.704	1	4
473.875	1	2
474.045	1	12
474.215	1	-1
474.386	1	-7
474.556	1	9
474.727	1	5
474.897	1	-2
475.067	1	0
475.238	1	1
475.408	1	-1
475.578	1	2
475.749	1	13
475.919	1	-3
476.090	1	1
476.260	1	-4
476.430	1	0
476.601	1	7
476.771	1	10
476.942	1	5
477.112	1	5
477.282	1	-11
477.453	1	3
477.623	1	1
477.793	1	-8
477.964	1	14
478.134	1	8
478.305	1	1
478.475	1	-3
478.645	1	5
478.816	1	-1
478.986	1	11
479.156	1	-7
479.327	1	4
479.497	1	8
479.667	1	-1
479.838	1	5
480.008	1	3
480.179	1	8
480.349	1	-4
480.519	1	5
480.690	1	-3
480.860	1	3
481.030	1	6
481.201	1	5
481.371	1	2
481.541	1	3
481.712	1	1
481.882	1	11
482.053	1	5
482.223	1	5
482.393	1	5
482.564	1	1
482.734	1	14
482.904	1	2
483.075	1	9
483.245	1	0
483.415	1	2
483.586	1	14
483.756	1	8
483.926	1	5
484.097	1	1
484.267	1	1
484.437	1	-6
484.608	1	4
484.778	1	-6
484.948	1	5
485.119	1	6
485.289	1	0
485.459	1	9
485.630	1	5
485.800	1	-2
485.970	1	-1
486.141	1	5
486.311	1	-4
486.481	1	2
486.652	1	1
486.822	1	6
486.992	1	6
487.163	1	2
487.333	1	0
487.503	1	6
487.674	1	3
487.844	1	3
488.014	1	-3
488.185	1	5
488.355	1	-1
488.525	1	12
488.696	1	4
488.866	1	6
489.036	1	12
489.207	1	1
489.377	1	6
489.547	1	-2
489.718	1	6
489.888	1	4
490.058	1	7
490.228	1	0
490.399	1	11
490.569	1	9
490.739	1	13
490.910	1	-4
491.080	1	-4
491.250	1	8
491.421	1	12
491.591	1	1
491.761	1	10
491.932	1	-6
492.102	1	-1
492.272	1	-3
492.442	1	-6
492.613	1	-2
492.783	1	-8
492.953	1	13
493.124	1	-8
493.294	1	5
493.464	1	6
493.635	1	14
493.805	1	8
493.975	1	10
494.145	1	6
494.316	1	4
494.486	1	-3
494.656	1	-1
494.827	1	-2
494.997	1	8
495.167	1	13
495.337	1	7
495.508	1	9
495.678	1	11
495.848	1	2
496.019	1	11
496.189	1	12
496.359	1	4
496.529	1	5
496.700	1	14
496.870	1	1
497.040	1	0
497.211	1	5
497.381	1	4
497.551	1	9
497.721	1	-2
497.892	1	10
498.062	1	3
498.232	1	-2
498.403	1	-4
498.573	1	15
498.743	1	7
498.913	1	6
499.084	1	14
499.254	1	5
499.424	1	9
499.594	1	1
499.765	1	3
499.935	1	4
500.105	1	5
500.275	1	11
500.446	1	4
500.616	1	9
500.786	1	3
500.956	1	12
501.127	1	7
501.297	1	-6
501.467	1	7
501.638	1	0
501.808	1	6
501.978	1	2
502.148	1	6
502.319	1	15
502.489	1	1
502.659	1	8
502.829	1	2
503.000	1	8
503.170	1	-1
503.340	1	10
503.510	1	7
503.681	1	6
503.851	1	2
504.021	1	10
504.191	1	13
504.362	1	1
504.532	1	1
504.702	1	8
504.872	1	-6
505.042	1	6
505.213	1	6
505.383	1	4
505.553	1	7
505.723	1	6
505.894	1	0
506.064	1	9
506.234	1	1
506.404	1	9
506.575	1	3
506.745	1	1
506.915	1	12
507.085	1	14
507.256	1	5
507.426	1	13
507.596	1	16
507.766	1	25
507.936	1	6
508.107	1	15
508.277	1	11
508.447	1	-2
508.617	1	7
508.788	1	0
508.958	1	20
509.128	1	11
509.298	1	-3
509.468	1	7
509.639	1	9
509.809	1	6
509.979	1	15
510.149	1	10
510.319	1	6
510.490	1	12
510.660	1	11
510.830	1	0
511.000	1	1
511.171	1	6
511.341	1	7
511.511	1	6
511.681	1	0
511.851	1	3
512.022	1	11
512.192	1	15
512.362	1	11
512.532	1	17
512.702	1	2
512.873	1	8
513.043	1	10
513.213	1	1
513.383	1	4
513.553	1	3
513.724	1	10
513.894	1	8
514.064	1	3
514.234	1	7
514.404	1	-4
514.575	1	12
514.745	1	-1
514.915	1	-5
515.085	1	8
515.255	1	11
515.425	1	10
515.596	1	8
515.766	1	6
515.936	1	12
516.106	1	12
516.276	1	9
516.447	1	8
516.617	1	6
516.787	1	12
516.957	1	0
517.127	1	0
517.297	1	7
517.468	1	9
517.638	1	8
517.808	1	6
517.978	1	13
518.148	1	16
518.319	1	10
518.489	1	4
518.659	1	11
518.829	1	13
518.999	1	0
519.169	1	8
519.340	1	2
519.510	1	6
519.680	1	-1
519.850	1	-2
520.020	1	-1
520.190	1	13
520.361	1	11
520.531	1	9
520.701	1	13
520.871	1	8
521.041	1	10
521.211	1	1
521.382	1	6
521.552	1	13
521.722	1	20
521.892	1	3
522.062	1	10
522.232	1	10
522.402	1	12
522.573	1	13
522.743	1	1
522.913	1	3
523.083	1	9
523.253	1	7
523.423	1	17
523.593	1	-8
523.764	1	11
523.934	1	10
524.104	1	10
524.274	1	1
524.444	1	5
524.614	1	17
524.784	1	13
524.955	1	-2
525.125	1	10
525.295	1	7
525.465	1	20
525.635	1	8
525.805	1	15
525.975	1	11
526.146	1	-2
526.316	1	6
526.486	1	14
526.656	1	17
526.826	1	13
526.996	1	7
527.166	1	9
527.337	1	11
527.507	1	-2
527.677	1	16
527.847	1	5
528.017	1	14
528.187	1	18
528.357	1	11
528.527	1	3
528.698	1	16
528.868	1	5
529.038	1	11
529.208	1	6
529.378	1	4
529.548	1	4
529.718	1	11
529.888	1	11
530.058	1	10
530.229	1	7
530.399	1	13
530.569	1	-2
530.739	1	1
530.909	1	11
531.079	1	6
531.249	1	1
531.419	1	7
531.589	1	13
531.760	1	9
531.930	1	-1
532.100	1	13
532.270	1	7
532.440	1	-4
532.610	1	5
532.780	1	0
532.950	1	8
533.120	1	0
533.290	1	8
533.461	1	9
533.631	1	12
533.801	1	10
533.971	1	12
534.141	1	18
534.311	1	6
534.481	1	-6
534.651	1	11
534.821	1	3
534.991	1	12
535.162	1	10
535.332	1	13
535.502	1	15
535.672	1	4
535.842	1	11
536.012	1	0
536.182	1	5
536.352	1	16
536.522	1	16
536.692	1	-3
536.862	1	1
537.032	1	-5
537.203	1	9
537.373	1	13
537.543	1	16
537.713	1	18
537.883	1	2
538.053	1	8
538.223	1	7
538.393	1	8
538.563	1	12
538.733	1	2
538.903	1	12
539.073	1	15
539.243	1	10
539.413	1	7
539.584	1	7
539.754	1	13
539.924	1	10
540.094	1	12
540.264	1	13
540.434	1	14
540.604	1	11
540.774	1	16
540.944	1	17
541.114	1	1
541.284	1	8
541.454	1	9
541.624	1	3
541.794	1	8
541.964	1	5
542.134	1	10
542.305	1	-2
542.475	1	11
542.645	1	16
542.815	1	-2
542.985	1	9
543.155	1	13
543.325	1	2
543.495	1	-1
543.665	1	5
543.835	1	7
544.005	1	11
544.175	1	14
544.345	1	8
544.515	1	16
544.685	1	19
544.855	1	0
545.025	1	14
545.195	1	9
545.365	1	2
545.535	1	15
545.705	1	10
545.875	1	2
546.045	1	14
546.216	1	12
546.386	1	5
546.556	1	3
546.726	1	11
546.896	1	13
547.066	1	15
547.236	1	8
547.406	1	11
547.576	1	6
547.746	1	0
547.916	1	4
548.086	1	8
548.256	1	1
548.426	1	11
548.596	1	6
548.766	1	8
548.936	1	0
549.106	1	6
549.276	1	5
549.446	1	4
549.616	1	-7
549.786	1	26
549.956	1	4
550.126	1	11
550.296	1	14
550.466	1	15
550.636	1	14
550.806	1	4
550.976	1	10
551.146	1	18
551.316	1	7
551.486	1	10
551.656	1	-9
551.826	1	1
551.996	1	0
552.166	1	0
552.336	1	16
552.506	1	7
552.676	1	9
552.846	1	11
553.016	1	14
553.186	1	7
553.356	1	14
553.526	1	10
553.696	1	16
553.866	1	16
554.036	1	12
554.206	1	14
554.376	1	2
554.546	1	11
554.716	1	3
554.886	1	2
555.056	1	4
555.226	1	3
555.396	1	5
555.566	1	5
555.736	1	7
555.906	1	13
556.076	1	-1
556.246	1	12
556.416	1	5
556.586	1	2
556.756	1	11
556.926	1	7
557.096	1	12
557.266	1	5
557.436	1	6
557.606	1	-1
557.776	1	8
557.946	1	0
558.116	1	4
558.286	1	-5
558.456	1	-3
558.626	1	13
558.796	1	13
558.966	1	9
559.136	1	5
559.306	1	5
559.476	1	11
559.646	1	15
559.816	1	4
559.986	1	2
560.155	1	0
560.325	1	5
560.495	1	15
560.665	1	4
560.835	1	6
561.005	1	-4
561.175	1	6
561.345	1	10
561.515	1	14
561.685	1	3
561.855	1	6
562.025	1	13
562.195	1	15
562.365	1	13
562.535	1	2
562.705	1	8
562.875	1	17
563.045	1	12
563.215	1	1
563.385	1	7
563.555	1	7
563.725	1	1
563.895	1	8
564.064	1	10
564.234	1	5
564.404	1	3
564.574	1	3
564.744	1	-1
564.914	1	9
565.084	1	4
565.254	1	9
565.424	1	12
565.594	1	3
565.764	1	7
565.934	1	1
566.104	1	19
566.274	1	5
566.444	1	6
566.614	1	11
566.783	1	10
566.953	1	13
567.123	1	9
567.293	1	7
567.463	1	5
567.633	1	5
567.803	1	6
567.973	1	8
568.143	1	1
568.313	1	-1
568.483	1	11
568.653	1	10
568.823	1	5
568.993	1	7
569.162	1	15
569.332	1	16
569.502	1	17
569.672	1	12
569.842	1	6
570.012	1	9
570.182	1	15
570.352	1	3
570.522	1	0
570.692	1	6
570.862	1	4
571.031	1	12
571.201	1	3
571.371	1	1
571.541	1	14
571.711	1	-2
571.881	1	8
572.051	1	2
572.221	1	8
572.391	1	11
572.561	1	8
572.731	1	4
572.900	1	4
573.070	1	-2
573.240	1	-1
573.410	1	8
573.580	1	19
573.750	1	18
573.920	1	9
574.090	1	8
574.260	1	-3
574.430	1	9
574.599	1	3
574.769	1	2
574.939	1	8
575.109	1	5
575.279	1	7
575.449	1	16
575.619	1	-1
575.789	1	15
575.959	1	8
576.128	1	5
576.298	1	5
576.468	1	8
576.638	1	12
576.808	1	10
576.978	1	-3
577.148	1	7
577.318	1	12
577.487	1	13
577.657	1	4
577.827	1	-3
577.997	1	-3
578.167	1	18
578.337	1	15
578.507	1	15
578.677	1	7
578.846	1	6
579.016	1	17
579.186	1	4
579.356	1	3
579.526	1	1
579.696	1	7
579.866	1	3
580.036	1	5
580.205	1	7
580.375	1	7
580.545	1	10
580.715	1	-4
580.885	1	-2
581.055	1	7
581.225	1	-4
581.394	1	7
581.564	1	10
581.734	1	4
581.904	1	6
582.074	1	1
582.244	1	14
582.414	1	-6
582.583	1	3
582.753	1	3
582.923	1	9
583.093	1	2
583.263	1	2
583.433	1	7
583.603	1	-1
583.772	1	5
583.942	1	1
584.112	1	6
584.282	1	4
584.452	1	6
584.622	1	1
584.791	1	11
584.961	1	7
585.131	1	-4
585.301	1	8
585.471	1	17
585.641	1	13
585.811	1	5
585.980	1	18
586.150	1	6
586.320	1	4
586.490	1	4
586.660	1	6
586.830	1	5
586.999	1	10
587.169	1	7
587.339	1	4
587.509	1	5
587.679	1	7
587.849	1	-1
588.018	1	18
588.188	1	10
588.358	1	16
588.528	1	8
588.698	1	8
588.867	1	2
589.037	1	6
589.207	1	1
589.377	1	11
589.547	1	10
589.717	1	8
589.886	1	-2
590.056	1	-2
590.226	1	3
590.396	1	8
590.566	1	1
590.735	1	15
590.905	1	7
591.075	1	11
591.245	1	7
591.415	1	4
591.585	1	-7
591.754	1	6
591.924	1	8
592.094	1	8
592.264	1	2
592.434	1	3
592.603	1	11
592.773	1	-8
592.943	1	16
593.113	1	2
593.283	1	9
593.452	1	3
593.622	1	11
593.792	1	10
593.962	1	3
594.132	1	3
594.301	1	11
594.471	1	6
594.641	1	-3
594.811	1	2
594.981	1	-9
595.150	1	7
595.320	1	2
595.490	1	14
595.660	1	14
595.829	1	4
595.999	1	18
596.169	1	11
596.339	1	11
596.509	1	7
596.678	1	3
596.848	1	5
597.018	1	-3
597.188	1	0
597.358	1	-9
597.527	1	1
597.697	1	5
597.867	1	12
598.037	1	16
598.206	1	1
598.376	1	-3
598.546	1	-1
598.716	1	12
598.885	1	12
599.055	1	9
599.225	1	13
599.395	1	7
599.565	1	-5
599.734	1	0
599.904	1	6
600.074	1	0
600.244	1	6
600.413	1	-1
600.583	1	14
600.753	1	12
600.923	1	11
601.092	1	12
601.262	1	3
601.432	1	7
601.602	1	8
601.771	1	9
601.941	1	-2
602.111	1	10
602.281	1	-1
602.451	1	0
602.620	1	-12
602.790	1	6
602.960	1	6
603.130	1	13
603.299	1	11
603.469	1	0
603.639	1	6
603.809	1	5
603.978	1	-2
604.148	1	16
604.318	1	11
604.487	1	5
604.657	1	8
604.827	1	-2
604.997	1	7
605.166	1	3
605.336	1	1
605.506	1	0
605.676	1	8
605.845	1	5
606.015	1	4
606.185	1	12
606.355	1	12
606.524	1	2
606.694	1	1
606.864	1	5
607.034	1	3
607.203	1	10
607.373	1	9
607.543	1	7
607.712	1	5
607.882	1	1
608.052	1	2
608.222	1	-3
608.391	1	1
608.561	1	9
608.731	1	4
608.901	1	7
609.070	1	5
609.240	1	7
609.410	1	5
609.579	1	-4
609.749	1	-3
609.919	1	-3
610.089	1	0
610.258	1	-1
610.428	1	2
610.598	1	6
610.767	1	3
610.937	1	1
611.107	1	0
611.277	1	6
611.446	1	5
611.616	1	1
611.786	1	0
611.955	1	6
612.125	1	4
612.295	1	14
612.465	1	4
612.634	1	6
612.804	1	5
612.974	1	0
613.143	1	-2
613.313	1	3
613.483	1	6
613.652	1	3
613.822	1	8
613.992	1	18
614.162	1	5
614.331	1	6
614.501	1	4
614.671	1	3
614.840	1	3
615.010	1	2
615.180	1	2
615.349	1	-3
615.519	1	14
615.689	1	13
615.858	1	13
616.028	1	2
616.198	1	7
616.368	1	-6
616.537	1	-1
616.707	1	14
616.877	1	2
617.046	1	5
617.216	1	20
617.386	1	10
617.555	1	10
617.725	1	-2
617.895	1	7
618.064	1	3
618.234	1	-2
618.404	1	10
618.573	1	4
618.743	1	16
618.913	1	8
619.082	1	4
619.252	1	10
619.422	1	12
619.591	1	4
619.761	1	5
619.931	1	9
620.100	1	2
620.270	1	0
620.440	1	1
620.609	1	-2
620.779	1	9
620.949	1	8
621.118	1	-2
621.288	1	2
621.458	1	10
621.627	1	14
621.797	1	8
621.967	1	-9
622.136	1	-1
622.306	1	-9
622.476	1	5
622.645	1	1
622.815	1	2
622.985	1	-3
623.154	1	3
623.324	1	13
623.494	1	13
623.663	1	19
623.833	1	-5
624.002	1	2
624.172	1	-5
624.342	1	11
624.511	1	3
624.681	1	1
624.851	1	6
625.020	1	14
625.190	1	7
625.360	1	1
625.529	1	1
625.699	1	-1
625.869	1	5
626.038	1	1
626.208	1	11
626.377	1	1
626.547	1	0
626.717	1	-4
626.886	1	1
627.056	1	8
627.226	1	-1
627.395	1	4
627.565	1	4
627.735	1	13
627.904	1	11
628.074	1	3
628.243	1	11
628.413	1	8
628.583	1	-5
628.752	1	1
628.922	1	2
629.091	1	6
629.261	1	-1
629.431	1	-5
629.600	1	4
629.770	1	-2
629.940	1	-7
630.109	1	-3
630.279	1	5
630.448	1	13
630.618	1	-2
630.788	1	4
630.957	1	5
631.127	1	0
631.297	1	-1
631.466	1	9
631.636	1	6
631.805	1	-3
631.975	1	8
632.145	1	-7
632.314	1	-10
632.484	1	8
632.653	1	4
632.823	1	6
632.993	1	1
633.162	1	4
633.332	1	-1
633.501	1	-2
633.671	1	5
633.841	1	-6
634.010	1	8
634.180	1	-6
634.349	1	6
634.519	1	4
634.689	1	7
634.858	1	5
635.028	1	2
635.197	1	4
635.367	1	-4
635.537	1	0
635.706	1	9
635.876	1	7
636.045	1	-3
636.215	1	3
636.384	1	3
636.554	1	16
636.724	1	-3
636.893	1	2
637.063	1	12
637.232	1	16
637.402	1	2
637.572	1	6
637.741	1	1
637.911	1	1
638.080	1	8
638.250	1	1
638.419	1	8
638.589	1	2
638.759	1	13
638.928	1	7
639.098	1	8
639.267	1	-8
639.437	1	-5
639.606	1	-4
639.776	1	6
639.946	1	3
640.115	1	-2
640.285	1	8
640.454	1	1
640.624	1	13
640.793	1	-5
640.963	1	0
641.132	1	4
641.302	1	3
641.472	1	4
641.641	1	-1
641.811	1	-2
641.980	1	3
642.150	1	7
642.319	1	-3
642.489	1	5
642.659	1	-5
642.828	1	5
642.998	1	-2
643.167	1	3
643.337	1	-4
643.506	1	10
643.676	1	-7
643.845	1	3
644.015	1	5
644.184	1	5
644.354	1	0
644.524	1	2
644.693	1	2
644.863	1	5
645.032	1	2
645.202	1	12
645.371	1	-5
645.541	1	1
645.710	1	3
645.880	1	15
646.049	1	-5
646.219	1	2
646.388	1	-6
646.558	1	11
646.728	1	10
646.897	1	11
647.067	1	14
647.236	1	3
647.406	1	8
647.575	1	-3
647.745	1	4
647.914	1	5
648.084	1	-1
648.253	1	3
648.423	1	-5
648.592	1	0
648.762	1	2
648.931	1	-1
649.101	1	6
649.270	1	10
649.440	1	6
649.610	1	0
649.779	1	5
649.949	1	-8
650.118	1	-1
650.288	1	-6
650.457	1	-1
650.627	1	0
650.796	1	-12
650.966	1	3
651.135	1	9
651.305	1	13
651.474	1	6
651.644	1	-8
651.813	1	1
651.983	1	17
652.152	1	-1
652.322	1	-5
652.491	1	3
652.661	1	-2
652.830	1	13
653.000	1	2
653.169	1	6
653.339	1	8
653.508	1	1
653.678	1	2
653.847	1	-1
654.017	1	-2
654.186	1	0
654.356	1	7
654.525	1	14
654.695	1	-1
654.864	1	5
655.034	1	1
655.203	1	2
655.373	1	-1
655.542	1	-1
655.712	1	0
655.881	1	15
656.051	1	5
656.220	1	6
656.390	1	12
656.559	1	2
656.729	1	3
656.898	1	4
657.068	1	-7
657.237	1	3
657.406	1	6
657.576	1	-2
657.745	1	8
657.915	1	-3
658.084	1	3
658.254	1	0
658.423	1	16
658.593	1	1
658.762	1	14
658.932	1	2
659.101	1	1
659.271	1	1
659.440	1	-3
659.610	1	10
659.779	1	5
659.949	1	6
660.118	1	6
660.288	1	-3
660.457	1	5
660.626	1	1
660.796	1	2
660.965	1	-5
661.135	1	5
661.304	1	1
661.474	1	0
661.643	1	4
661.813	1	13
661.982	1	4
662.152	1	11
662.321	1	4
662.491	1	0
662.660	1	0
662.829	1	-1
662.999	1	7
663.168	1	1
663.338	1	-1
663.507	1	-6
663.677	1	-9
663.846	1	1
664.016	1	6
664.185	1	11
664.354	1	6
664.524	1	-5
664.693	1	1
664.863	1	6
665.032	1	6
665.202	1	0
665.371	1	-2
665.541	1	-2
665.710	1	8
665.879	1	0
666.049	1	-1
666.218	1	-2
666.388	1	5
666.557	1	-9
666.727	1	0
666.896	1	3
667.065	1	2
667.235	1	2
667.404	1	4
667.574	1	12
667.743	1	4
667.913	1	3
668.082	1	5
668.251	1	12
668.421	1	4
668.590	1	0
668.760	1	3
668.929	1	3
669.099	1	8
669.268	1	14
669.437	1	1
669.607	1	-8
669.776	1	6
669.946	1	1
670.115	1	-5
670.285	1	3
670.454	1	0
670.623	1	5
670.793	1	10
670.962	1	7
671.132	1	10
671.301	1	2
671.470	1	0
671.640	1	7
671.809	1	-7
671.979	1	1
672.148	1	9
672.317	1	14
672.487	1	1
672.656	1	1
672.826	1	4
672.995	1	-2
673.164	1	24
673.334	1	-2
673.503	1	8
673.673	1	-6
673.842	1	-10
674.011	1	-3
674.181	1	7
674.350	1	4
674.520	1	5
674.689	1	-1
674.858	1	-7
675.028	1	13
675.197	1	5
675.367	1	1
675.536	1	11
675.705	1	-7
675.875	1	-2
676.044	1	-5
676.214	1	7
676.383	1	8
676.552	1	9
676.722	1	2
676.891	1	-1
677.060	1	-8
677.230	1	0
677.399	1	14
677.569	1	12
677.738	1	8
677.907	1	5
678.077	1	19
678.246	1	-3
678.416	1	5
678.585	1	0
678.754	1	6
678.924	1	0
679.093	1	15
679.262	1	24
679.432	1	13
679.601	1	12
679.771	1	5
679.940	1	2
680.109	1	5
680.279	1	5
680.448	1	1
680.617	1	11
680.787	1	5
680.956	1	4
681.125	1	16
681.295	1	5
681.464	1	14
681.634	1	0
681.803	1	3
681.972	1	-1
682.142	1	0
682.311	1	1
682.480	1	5
682.650	1	-2
682.819	1	7
682.988	1	2
683.158	1	4
683.327	1	12
683.496	1	-2
683.666	1	9
683.835	1	3
684.004	1	9
684.174	1	-3
684.343	1	3
684.512	1	6
684.682	1	-1
684.851	1	5
685.021	1	2
685.190	1	8
685.359	1	0
685.529	1	10
685.698	1	9
685.867	1	-2
686.037	1	1
686.206	1	6
686.375	1	15
686.545	1	5
686.714	1	6
686.883	1	13
687.053	1	-5
687.222	1	3
687.391	1	10
687.561	1	8
687.730	1	5
687.899	1	-1
688.069	1	1
688.238	1	1
688.407	1	7
688.577	1	6
688.746	1	-2
