340.368	1	-3
340.539	1	6
340.710	1	7
340.881	1	5
341.052	1	7
341.223	1	7
341.394	1	-7
341.565	1	5
341.737	1	5
341.908	1	2
342.079	1	3
342.250	1	5
342.421	1	-2
342.592	1	2
342.763	1	-4
342.934	1	5
343.105	1	-1
343.276	1	-5
343.447	1	11
343.618	1	8
343.789	1	16
343.960	1	4
344.131	1	13
344.302	1	18
344.473	1	5
344.644	1	1
344.815	1	-1
344.986	1	-2
345.157	1	7
345.328	1	-1
345.499	1	14
345.670	1	3
345.841	1	4
346.012	1	14
346.183	1	-3
346.354	1	7
346.526	1	9
346.697	1	6
346.868	1	7
347.039	1	-5
347.210	1	-2
347.381	1	-2
347.552	1	8
347.723	1	7
347.894	1	-4
348.065	1	0
348.236	1	-1
348.407	1	12
348.578	1	0
348.749	1	-4
348.920	1	4
349.091	1	11
349.262	1	7
349.433	1	8
349.604	1	10
349.775	1	11
349.946	1	0
350.117	1	9
350.288	1	4
350.459	1	0
350.630	1	5
350.801	1	5
350.972	1	6
351.143	1	-4
351.314	1	7
351.485	1	3
351.656	1	11
351.827	1	3
351.998	1	12
352.169	1	6
352.340	1	6
352.511	1	1
352.682	1	-5
352.853	1	12
353.024	1	11
353.195	1	10
353.366	1	4
353.537	1	7
353.708	1	7
353.879	1	8
354.050	1	8
354.221	1	10
354.392	1	8
354.563	1	14
354.734	1	-3
354.905	1	19
355.076	1	19
355.247	1	2
355.418	1	11
355.589	1	12
355.760	1	11
355.931	1	10
356.102	1	9
356.273	1	14
356.444	1	10
356.615	1	10
356.785	1	10
356.956	1	20
357.127	1	19
357.298	1	13
357.469	1	30
357.640	1	9
357.811	1	13
357.982	1	18
358.153	1	12
358.324	1	17
358.495	1	26
358.666	1	15
358.837	1	16
359.008	1	26
359.179	1	13
359.350	1	27
359.521	1	27
359.692	1	23
359.863	1	18
360.034	1	22
360.205	1	26
360.376	1	26
360.547	1	19
360.718	1	52
360.889	1	33
361.060	1	24
361.231	1	26
361.401	1	44
361.572	1	40
361.743	1	40
361.914	1	43
362.085	1	39
362.256	1	46
362.427	1	52
362.598	1	51
362.769	1	54
362.940	1	40
363.111	1	48
363.282	1	59
363.453	1	63
363.624	1	63
363.795	1	53
363.966	1	69
364.137	1	71
364.308	1	76
364.478	1	81
364.649	1	98
364.820	1	80
364.991	1	72
365.162	1	87
365.333	1	94
365.504	1	81
365.675	1	94
365.846	1	104
366.017	1	113
366.188	1	123
366.359	1	111
366.530	1	107
366.701	1	125
366.871	1	125
367.042	1	128
367.213	1	129
367.384	1	131
367.555	1	133
367.726	1	147
367.897	1	151
368.068	1	137
368.239	1	141
368.410	1	146
368.581	1	147
368.752	1	140
368.923	1	149
369.093	1	144
369.264	1	148
369.435	1	142
369.606	1	138
369.777	1	129
369.948	1	119
370.119	1	123
370.290	1	129
370.461	1	133
370.632	1	124
370.803	1	118
370.973	1	119
371.144	1	136
371.315	1	116
371.486	1	109
371.657	1	118
371.828	1	107
371.999	1	105
372.170	1	100
372.341	1	107
372.512	1	86
372.682	1	96
372.853	1	90
373.024	1	104
373.195	1	89
373.366	1	84
373.537	1	91
373.708	1	91
373.879	1	82
374.050	1	88
374.220	1	82
374.391	1	73
374.562	1	79
374.733	1	79
374.904	1	70
375.075	1	63
375.246	1	81
375.417	1	63
375.588	1	70
375.758	1	71
375.929	1	54
376.100	1	63
376.271	1	56
376.442	1	54
376.613	1	71
376.784	1	61
376.955	1	57
377.125	1	59
377.296	1	51
377.467	1	58
377.638	1	54
377.809	1	57
377.980	1	57
378.151	1	45
378.321	1	34
378.492	1	47
378.663	1	44
378.834	1	40
379.005	1	44
379.176	1	47
379.347	1	41
379.518	1	48
379.688	1	34
379.859	1	41
380.030	1	44
380.201	1	31
380.372	1	27
380.543	1	43
380.714	1	42
380.884	1	27
381.055	1	37
381.226	1	38
381.397	1	58
381.568	1	28
381.739	1	26
381.910	1	24
382.080	1	27
382.251	1	35
382.422	1	33
382.593	1	40
382.764	1	33
382.935	1	36
383.105	1	26
383.276	1	26
383.447	1	28
383.618	1	29
383.789	1	26
383.960	1	21
384.130	1	35
384.301	1	26
384.472	1	33
384.643	1	18
384.814	1	17
384.985	1	42
385.156	1	17
385.326	1	11
385.497	1	25
385.668	1	13
385.839	1	19
386.010	1	32
386.180	1	21
386.351	1	14
386.522	1	21
386.693	1	20
386.864	1	16
387.035	1	34
387.205	1	9
387.376	1	15
387.547	1	33
387.718	1	12
387.889	1	21
388.060	1	17
388.230	1	11
388.401	1	25
388.572	1	10
388.743	1	19
388.914	1	20
389.084	1	12
389.255	1	13
389.426	1	12
389.597	1	12
389.768	1	22
389.939	1	7
390.109	1	15
390.280	1	24
390.451	1	8
390.622	1	9
390.793	1	14
390.963	1	24
391.134	1	12
391.305	1	14
391.476	1	24
391.647	1	6
391.817	1	21
391.988	1	23
392.159	1	3
392.330	1	12
392.501	1	20
392.671	1	14
392.842	1	10
393.013	1	11
393.184	1	25
393.355	1	1
393.525	1	15
393.696	1	18
393.867	1	14
394.038	1	7
394.208	1	9
394.379	1	12
394.550	1	-2
394.721	1	11
394.892	1	18
395.062	1	9
395.233	1	-1
395.404	1	9
395.575	1	9
395.746	1	-1
395.916	1	11
396.087	1	9
396.258	1	3
396.429	1	14
396.599	1	3
396.770	1	14
396.941	1	13
397.112	1	9
397.283	1	13
397.453	1	7
397.624	1	9
397.795	1	12
397.966	1	18
398.136	1	9
398.307	1	19
398.478	1	7
398.649	1	18
398.819	1	3
398.990	1	4
399.161	1	9
399.332	1	2
399.503	1	7
399.673	1	8
399.844	1	4
400.015	1	-1
400.186	1	1
400.356	1	10
400.527	1	-3
400.698	1	10
400.869	1	-3
401.039	1	6
401.210	1	13
401.381	1	10
401.552	1	2
401.722	1	-2
401.893	1	8
402.064	1	-5
402.235	1	3
402.405	1	1
402.576	1	12
402.747	1	3
402.918	1	20
403.088	1	3
403.259	1	10
403.430	1	-1
403.601	1	1
403.771	1	4
403.942	1	4
404.113	1	9
404.284	1	10
404.454	1	10
404.625	1	2
404.796	1	10
404.967	1	12
405.137	1	3
405.308	1	-2
405.479	1	7
405.649	1	19
405.820	1	7
405.991	1	5
406.162	1	12
406.332	1	10
406.503	1	-1
406.674	1	4
406.845	1	13
407.015	1	3
407.186	1	-2
407.357	1	4
407.527	1	7
407.698	1	6
407.869	1	2
408.040	1	8
408.210	1	9
408.381	1	14
408.552	1	5
408.722	1	-1
408.893	1	2
409.064	1	0
409.235	1	3
409.405	1	2
409.576	1	-8
409.747	1	11
409.917	1	2
410.088	1	15
410.259	1	-5
410.430	1	11
410.600	1	-2
410.771	1	11
410.942	1	5
411.112	1	11
411.283	1	-2
411.454	1	19
411.625	1	7
411.795	1	1
411.966	1	2
412.137	1	1
412.307	1	8
412.478	1	7
412.649	1	6
412.819	1	14
412.990	1	1
413.161	1	-2
413.332	1	10
413.502	1	1
413.673	1	4
413.844	1	-2
414.014	1	4
414.185	1	0
414.356	1	2
414.526	1	-13
414.697	1	5
414.868	1	1
415.038	1	7
415.209	1	0
415.380	1	8
415.550	1	14
415.721	1	-3
415.892	1	2
416.063	1	2
416.233	1	14
416.404	1	0
416.575	1	7
416.745	1	5
416.916	1	6
417.087	1	-4
417.257	1	3
417.428	1	12
417.599	1	7
417.769	1	1
417.940	1	3
418.111	1	4
418.281	1	13
418.452	1	11
418.623	1	5
418.793	1	20
418.964	1	-1
419.135	1	-7
419.305	1	7
419.476	1	14
419.647	1	0
419.817	1	14
419.988	1	6
420.159	1	13
420.329	1	13
420.500	1	15
420.671	1	-1
420.841	1	-3
421.012	1	2
421.183	1	-1
421.353	1	-2
421.524	1	8
421.695	1	8
421.865	1	0
422.036	1	3
422.206	1	0
422.377	1	-2
422.548	1	3
422.718	1	20
422.889	1	8
423.060	1	6
423.230	1	-1
423.401	1	10
423.572	1	11
423.742	1	8
423.913	1	4
424.084	1	4
424.254	1	0
424.425	1	4
424.595	1	9
424.766	1	-4
424.937	1	8
425.107	1	15
425.278	1	5
425.449	1	1
425.619	1	1
425.790	1	10
425.961	1	3
426.131	1	2
426.302	1	-6
426.472	1	-1
426.643	1	9
426.814	1	4
426.984	1	-1
427.155	1	11
427.326	1	5
427.496	1	-1
427.667	1	5
427.837	1	-6
428.008	1	5
428.179	1	12
428.349	1	13
428.520	1	11
428.691	1	7
428.861	1	4
429.032	1	4
429.202	1	10
429.373	1	9
429.544	1	5
429.714	1	3
429.885	1	11
430.055	1	4
430.226	1	5
430.397	1	3
430.567	1	2
430.738	1	-3
430.909	1	6
431.079	1	15
431.250	1	11
431.420	1	10
431.591	1	11
431.762	1	3
431.932	1	7
432.103	1	-16
432.273	1	-1
432.444	1	1
432.615	1	8
432.785	1	-1
432.956	1	4
433.126	1	13
433.297	1	9
433.468	1	-7
433.638	1	8
433.809	1	-1
433.979	1	4
434.150	1	3
434.320	1	7
434.491	1	-4
434.662	1	13
434.832	1	-12
435.003	1	5
435.173	1	-11
435.344	1	0
435.515	1	6
435.685	1	-2
435.856	1	10
436.026	1	0
436.197	1	6
436.368	1	9
436.538	1	6
436.709	1	-2
436.879	1	4
437.050	1	10
437.220	1	13
437.391	1	-1
437.562	1	2
437.732	1	-7
437.903	1	4
438.073	1	6
438.244	1	9
438.414	1	-1
438.585	1	-3
438.756	1	5
438.926	1	-3
439.097	1	3
439.267	1	10
439.438	1	9
439.608	1	2
439.779	1	6
439.949	1	4
440.120	1	7
440.291	1	-2
440.461	1	2
440.632	1	12
440.802	1	-2
440.973	1	7
441.143	1	4
441.314	1	-3
441.485	1	8
441.655	1	-4
441.826	1	10
441.996	1	-6
442.167	1	1
442.337	1	13
442.508	1	-2
442.678	1	-2
442.849	1	19
443.019	1	7
443.190	1	7
443.361	1	12
443.531	1	4
443.702	1	14
443.872	1	-4
444.043	1	11
444.213	1	19
444.384	1	8
444.554	1	5
444.725	1	12
444.895	1	13
445.066	1	6
445.237	1	3
445.407	1	-6
445.578	1	14
445.748	1	-4
445.919	1	-1
446.089	1	11
446.260	1	-1
446.430	1	2
446.601	1	10
446.771	1	5
446.942	1	2
447.112	1	-2
447.283	1	14
447.453	1	7
447.624	1	3
447.794	1	8
447.965	1	2
448.135	1	5
448.306	1	12
448.477	1	0
448.647	1	-11
448.818	1	0
448.988	1	2
449.159	1	5
449.329	1	7
449.500	1	-7
449.670	1	-8
449.841	1	-2
450.011	1	3
450.182	1	8
450.352	1	6
450.523	1	-2
450.693	1	6
450.864	1	-1
451.034	1	10
451.205	1	6
451.375	1	4
451.546	1	6
451.716	1	-5
451.887	1	8
452.057	1	6
452.228	1	11
452.398	1	6
452.569	1	13
452.739	1	9
452.910	1	1
453.080	1	-4
453.251	1	2
453.421	1	4
453.592	1	7
453.762	1	5
453.933	1	1
454.103	1	0
454.274	1	3
454.444	1	1
454.615	1	-4
454.785	1	13
454.956	1	-2
455.126	1	2
455.297	1	8
455.467	1	4
455.638	1	-1
455.808	1	-2
455.979	1	1
456.149	1	1
456.320	1	6
456.490	1	-3
456.661	1	7
456.831	1	-9
457.001	1	13
457.172	1	-4
457.342	1	11
457.513	1	8
457.683	1	8
457.854	1	5
458.024	1	-5
458.195	1	-4
458.365	1	3
458.536	1	2
458.706	1	10
458.877	1	4
459.047	1	4
459.218	1	1
459.388	1	9
459.559	1	-2
459.729	1	-1
459.899	1	-1
460.070	1	-3
460.240	1	1
460.411	1	0
460.581	1	0
460.752	1	-3
460.922	1	-3
461.093	1	6
461.263	1	8
461.434	1	2
461.604	1	7
461.775	1	-3
461.945	1	-7
462.115	1	15
462.286	1	12
462.456	1	3
462.627	1	2
462.797	1	5
462.968	1	10
463.138	1	4
463.309	1	-10
463.479	1	5
463.649	1	11
463.820	1	6
463.990	1	12
464.161	1	-10
464.331	1	2
464.502	1	-1
464.672	1	12
464.843	1	2
465.013	1	2
465.183	1	-1
465.354	1	-2
465.524	1	1
465.695	1	4
465.865	1	0
466.036	1	6
466.206	1	11
466.376	1	-1
466.547	1	17
466.717	1	7
466.888	1	-1
467.058	1	4
467.229	1	4
467.399	1	6
467.569	1	9
467.740	1	3
467.910	1	0
468.081	1	-4
468.251	1	3
468.422	1	3
468.592	1	7
468.762	1	0
468.933	1	3
469.103	1	8
469.274	1	7
469.444	1	6
469.614	1	-6
469.785	1	-2
469.955	1	4
470.126	1	4
470.296	1	-2
470.467	1	0
470.637	1	8
470.807	1	4
470.978	1	-1
471.148	1	7
471.319	1	17
471.489	1	11
471.659	1	-5
471.830	1	9
472.000	1	2
472.171	1	4
472.341	1	-4
472.511	1	11
472.682	1	-1
472.852	1	10
473.023	1	6
473.193	1	12
473.363	1	10
473.534	1	21
473.704	1	1
473.875	1	11
474.045	1	15
474.215	1	1
474.386	1	-5
474.556	1	10
474.727	1	12
474.897	1	-2
475.067	1	12
475.238	1	3
475.408	1	-1
475.578	1	7
475.749	1	5
475.919	1	-1
476.090	1	7
476.260	1	2
476.430	1	9
476.601	1	7
476.771	1	5
476.942	1	-3
477.112	1	14
477.282	1	-4
477.453	1	2
477.623	1	16
477.793	1	-1
477.964	1	9
478.134	1	2
478.305	1	4
478.475	1	8
478.645	1	4
478.816	1	1
478.986	1	19
479.156	1	0
479.327	1	6
479.497	1	9
479.667	1	3
479.838	1	6
480.008	1	7
480.179	1	12
480.349	1	6
480.519	1	3
480.690	1	15
480.860	1	-3
481.030	1	1
481.201	1	12
481.371	1	6
481.541	1	2
481.712	1	8
481.882	1	18
482.053	1	-3
482.223	1	17
482.393	1	2
482.564	1	8
482.734	1	8
482.904	1	9
483.075	1	9
483.245	1	3
483.415	1	8
483.586	1	12
483.756	1	3
483.926	1	-1
484.097	1	15
484.267	1	2
484.437	1	8
484.608	1	5
484.778	1	13
484.948	1	6
485.119	1	8
485.289	1	7
485.459	1	11
485.630	1	2
485.800	1	1
485.970	1	-1
486.141	1	-5
486.311	1	1
486.481	1	5
486.652	1	8
486.822	1	6
486.992	1	17
487.163	1	2
487.333	1	10
487.503	1	8
487.674	1	8
487.844	1	9
488.014	1	-3
488.185	1	8
488.355	1	3
488.525	1	14
488.696	1	12
488.866	1	5
489.036	1	15
489.207	1	0
489.377	1	-4
489.547	1	0
489.718	1	10
489.888	1	9
490.058	1	4
490.228	1	15
490.399	1	12
490.569	1	19
490.739	1	15
490.910	1	6
491.080	1	8
491.250	1	11
491.421	1	14
491.591	1	3
491.761	1	14
491.932	1	7
492.102	1	9
492.272	1	8
492.442	1	12
492.613	1	8
492.783	1	-1
492.953	1	9
493.124	1	-5
493.294	1	5
493.464	1	14
493.635	1	15
493.805	1	16
493.975	1	12
494.145	1	19
494.316	1	3
494.486	1	-3
494.656	1	11
494.827	1	6
494.997	1	17
495.167	1	26
495.337	1	16
495.508	1	9
495.678	1	16
495.848	1	13
496.019	1	11
496.189	1	10
496.359	1	11
496.529	1	15
496.700	1	19
496.870	1	11
497.040	1	13
497.211	1	7
497.381	1	18
497.551	1	19
497.721	1	10
497.892	1	13
498.062	1	8
498.232	1	13
498.403	1	1
498.573	1	16
498.743	1	8
498.913	1	17
499.084	1	15
499.254	1	17
499.424	1	8
499.594	1	1
499.765	1	13
499.935	1	7
500.105	1	15
500.275	1	12
500.446	1	14
500.616	1	19
500.786	1	9
500.956	1	20
501.127	1	16
501.297	1	11
501.467	1	16
501.638	1	7
501.808	1	12
501.978	1	19
502.148	1	3
502.319	1	16
502.489	1	16
502.659	1	16
502.829	1	16
503.000	1	26
503.170	1	8
503.340	1	17
503.510	1	9
503.681	1	17
503.851	1	2
504.021	1	18
504.191	1	13
504.362	1	16
504.532	1	16
504.702	1	16
504.872	1	7
505.042	1	9
505.213	1	12
505.383	1	18
505.553	1	12
505.723	1	22
505.894	1	15
506.064	1	15
506.234	1	18
506.404	1	21
506.575	1	9
506.745	1	6
506.915	1	22
507.085	1	16
507.256	1	21
507.426	1	19
507.596	1	23
507.766	1	20
507.936	1	16
508.107	1	21
508.277	1	18
508.447	1	9
508.617	1	10
508.788	1	12
508.958	1	31
509.128	1	11
509.298	1	6
509.468	1	29
509.639	1	5
509.809	1	9
509.979	1	23
510.149	1	18
510.319	1	28
510.490	1	16
510.660	1	18
510.830	1	13
511.000	1	13
511.171	1	19
511.341	1	19
511.511	1	20
511.681	1	19
511.851	1	18
512.022	1	9
512.192	1	20
512.362	1	24
512.532	1	15
512.702	1	12
512.873	1	16
513.043	1	26
513.213	1	11
513.383	1	17
513.553	1	5
513.724	1	22
513.894	1	20
514.064	1	24
514.234	1	21
514.404	1	14
514.575	1	23
514.745	1	23
514.915	1	13
515.085	1	13
515.255	1	21
515.425	1	13
515.596	1	24
515.766	1	9
515.936	1	34
516.106	1	21
516.276	1	22
516.447	1	37
516.617	1	16
516.787	1	26
516.957	1	9
517.127	1	17
517.297	1	16
517.468	1	29
517.638	1	22
517.808	1	20
517.978	1	23
518.148	1	25
518.319	1	15
518.489	1	28
518.659	1	28
518.829	1	20
518.999	1	16
519.169	1	16
519.340	1	21
519.510	1	19
519.680	1	19
519.850	1	19
520.020	1	12
520.190	1	36
520.361	1	18
520.531	1	22
520.701	1	26
520.871	1	12
521.041	1	22
521.211	1	12
521.382	1	24
521.552	1	19
521.722	1	33
521.892	1	11
522.062	1	17
522.232	1	26
522.402	1	31
522.573	1	21
522.743	1	29
522.913	1	27
523.083	1	21
523.253	1	22
523.423	1	32
523.593	1	16
523.764	1	31
523.934	1	29
524.104	1	24
524.274	1	26
524.444	1	37
524.614	1	28
524.784	1	35
524.955	1	17
525.125	1	29
525.295	1	33
525.465	1	21
525.635	1	30
525.805	1	29
525.975	1	15
526.146	1	17
526.316	1	43
526.486	1	26
526.656	1	27
526.826	1	42
526.996	1	21
527.166	1	30
527.337	1	26
527.507	1	13
527.677	1	28
527.847	1	27
528.017	1	26
528.187	1	25
528.357	1	33
528.527	1	32
528.698	1	35
528.868	1	30
529.038	1	13
529.208	1	29
529.378	1	23
529.548	1	12
529.718	1	32
529.888	1	26
530.058	1	26
530.229	1	34
530.399	1	40
530.569	1	20
530.739	1	29
530.909	1	37
531.079	1	20
531.249	1	27
531.419	1	31
531.589	1	32
531.760	1	33
531.930	1	22
532.100	1	37
532.270	1	27
532.440	1	23
532.610	1	25
532.780	1	15
532.950	1	19
533.120	1	4
533.290	1	26
533.461	1	25
533.631	1	29
533.801	1	34
533.971	1	25
534.141	1	39
534.311	1	30
534.481	1	8
534.651	1	31
534.821	1	21
534.991	1	28
535.162	1	18
535.332	1	39
535.502	1	23
535.672	1	20
535.842	1	30
536.012	1	11
536.182	1	28
536.352	1	26
536.522	1	17
536.692	1	12
536.862	1	25
537.032	1	10
537.203	1	29
537.373	1	33
537.543	1	22
537.713	1	39
537.883	1	18
538.053	1	25
538.223	1	18
538.393	1	11
538.563	1	24
538.733	1	3
538.903	1	23
539.073	1	28
539.243	1	18
539.413	1	20
539.584	1	19
539.754	1	17
539.924	1	25
540.094	1	23
540.264	1	29
540.434	1	26
540.604	1	31
540.774	1	22
540.944	1	22
541.114	1	26
541.284	1	19
541.454	1	27
541.624	1	30
541.794	1	21
541.964	1	20
542.134	1	19
542.305	1	30
542.475	1	24
542.645	1	25
542.815	1	29
542.985	1	21
543.155	1	29
543.325	1	13
543.495	1	19
543.665	1	33
543.835	1	30
544.005	1	29
544.175	1	37
544.345	1	18
544.515	1	20
544.685	1	38
544.855	1	13
545.025	1	33
545.195	1	23
545.365	1	25
545.535	1	36
545.705	1	25
545.875	1	16
546.045	1	29
546.216	1	18
546.386	1	28
546.556	1	30
546.726	1	28
546.896	1	31
547.066	1	33
547.236	1	16
547.406	1	29
547.576	1	34
547.746	1	8
547.916	1	17
548.086	1	35
548.256	1	14
548.426	1	23
548.596	1	28
548.766	1	25
548.936	1	23
549.106	1	20
549.276	1	34
549.446	1	14
549.616	1	7
549.786	1	35
549.956	1	23
550.126	1	29
550.296	1	30
550.466	1	24
550.636	1	26
550.806	1	26
550.976	1	28
551.146	1	25
551.316	1	18
551.486	1	18
551.656	1	9
551.826	1	13
551.996	1	14
552.166	1	23
552.336	1	29
552.506	1	31
552.676	1	20
552.846	1	13
553.016	1	26
553.186	1	23
553.356	1	24
553.526	1	18
553.696	1	25
553.866	1	30
554.036	1	31
554.206	1	21
554.376	1	11
554.546	1	16
554.716	1	25
554.886	1	16
555.056	1	22
555.226	1	17
555.396	1	20
555.566	1	23
555.736	1	29
555.906	1	8
556.076	1	32
556.246	1	24
556.416	1	19
556.586	1	16
556.756	1	12
556.926	1	22
557.096	1	22
557.266	1	28
557.436	1	29
557.606	1	17
557.776	1	15
557.946	1	21
558.116	1	19
558.286	1	4
558.456	1	13
558.626	1	20
558.796	1	32
558.966	1	24
559.136	1	20
559.306	1	19
559.476	1	12
559.646	1	25
559.816	1	23
559.986	1	24
560.155	1	15
560.325	1	15
560.495	1	18
560.665	1	14
560.835	1	19
561.005	1	23
561.175	1	19
561.345	1	25
561.515	1	19
561.685	1	17
561.855	1	21
562.025	1	26
562.195	1	17
562.365	1	24
562.535	1	19
562.705	1	30
562.875	1	20
563.045	1	18
563.215	1	32
563.385	1	18
563.555	1	15
563.725	1	27
563.895	1	24
564.064	1	23
564.234	1	28
564.404	1	10
564.574	1	13
564.744	1	7
564.914	1	24
565.084	1	10
565.254	1	20
565.424	1	15
565.594	1	19
565.764	1	8
565.934	1	23
566.104	1	25
566.274	1	20
566.444	1	15
566.614	1	15
566.783	1	13
566.953	1	30
567.123	1	23
567.293	1	13
567.463	1	22
567.633	1	8
567.803	1	14
567.973	1	24
568.143	1	13
568.313	1	26
568.483	1	23
568.653	1	26
568.823	1	18
568.993	1	23
569.162	1	22
569.332	1	30
569.502	1	21
569.672	1	28
569.842	1	19
570.012	1	22
570.182	1	14
570.352	1	8
570.522	1	18
570.692	1	18
570.862	1	24
571.031	1	17
571.201	1	13
571.371	1	15
571.541	1	25
571.711	1	17
571.881	1	26
572.051	1	7
572.221	1	10
572.391	1	12
572.561	1	16
572.731	1	16
572.900	1	21
573.070	1	11
573.240	1	20
573.410	1	16
573.580	1	19
573.750	1	21
573.920	1	18
574.090	1	18
574.260	1	16
574.430	1	14
574.599	1	19
574.769	1	24
574.939	1	16
575.109	1	19
575.279	1	18
575.449	1	21
575.619	1	14
575.789	1	23
575.959	1	9
576.128	1	11
576.298	1	16
576.468	1	21
576.638	1	30
576.808	1	23
576.978	1	4
577.148	1	15
577.318	1	9
577.487	1	17
577.657	1	13
577.827	1	4
577.997	1	13
578.167	1	24
578.337	1	23
578.507	1	23
578.677	1	8
578.846	1	23
579.016	1	25
579.186	1	16
579.356	1	13
579.526	1	18
579.696	1	20
579.866	1	7
580.036	1	16
580.205	1	22
580.375	1	20
580.545	1	19
580.715	1	12
580.885	1	10
581.055	1	21
581.225	1	11
581.394	1	19
581.564	1	13
581.734	1	17
581.904	1	18
582.074	1	8
582.244	1	25
582.414	1	7
582.583	1	14
582.753	1	16
582.923	1	16
583.093	1	14
583.263	1	11
583.433	1	18
583.603	1	11
583.772	1	16
583.942	1	9
584.112	1	11
584.282	1	23
584.452	1	8
584.622	1	10
584.791	1	19
584.961	1	7
585.131	1	7
585.301	1	4
585.471	1	20
585.641	1	12
585.811	1	15
585.980	1	20
586.150	1	4
586.320	1	17
586.490	1	16
586.660	1	17
586.830	1	10
586.999	1	14
587.169	1	14
587.339	1	8
587.509	1	15
587.679	1	13
587.849	1	4
588.018	1	32
588.188	1	15
588.358	1	12
588.528	1	17
588.698	1	15
588.867	1	8
589.037	1	19
589.207	1	19
589.377	1	16
589.547	1	18
589.717	1	12
589.886	1	13
590.056	1	12
590.226	1	16
590.396	1	21
590.566	1	23
590.735	1	20
590.905	1	5
591.075	1	0
591.245	1	25
591.415	1	8
591.585	1	3
591.754	1	25
591.924	1	17
592.094	1	12
592.264	1	10
592.434	1	7
592.603	1	23
592.773	1	3
592.943	1	25
593.113	1	6
593.283	1	19
593.452	1	16
593.622	1	21
593.792	1	18
593.962	1	10
594.132	1	12
594.301	1	20
594.471	1	21
594.641	1	13
594.811	1	5
594.981	1	7
595.150	1	18
595.320	1	26
595.490	1	11
595.660	1	20
595.829	1	10
595.999	1	18
596.169	1	25
596.339	1	2
596.509	1	15
596.678	1	18
596.848	1	19
597.018	1	10
597.188	1	21
597.358	1	1
597.527	1	14
597.697	1	10
597.867	1	-1
598.037	1	10
598.206	1	7
598.376	1	13
598.546	1	5
598.716	1	9
598.885	1	12
599.055	1	23
599.225	1	23
599.395	1	7
599.565	1	15
599.734	1	9
599.904	1	6
600.074	1	9
600.244	1	14
600.413	1	8
600.583	1	21
600.753	1	22
600.923	1	14
601.092	1	17
601.262	1	15
601.432	1	9
601.602	1	5
601.771	1	16
601.941	1	13
602.111	1	19
602.281	1	14
602.451	1	14
602.620	1	3
602.790	1	11
602.960	1	14
603.130	1	7
603.299	1	22
603.469	1	21
603.639	1	8
603.809	1	9
603.978	1	0
604.148	1	20
604.318	1	28
604.487	1	14
604.657	1	19
604.827	1	7
604.997	1	18
605.166	1	7
605.336	1	0
605.506	1	13
605.676	1	11
605.845	1	14
606.015	1	1
606.185	1	14
606.355	1	8
606.524	1	20
606.694	1	13
606.864	1	7
607.034	1	25
607.203	1	18
607.373	1	13
607.543	1	6
607.712	1	14
607.882	1	22
608.052	1	11
608.222	1	5
608.391	1	19
608.561	1	7
608.731	1	10
608.901	1	9
609.070	1	18
609.240	1	26
609.410	1	14
609.579	1	6
609.749	1	14
609.919	1	4
610.089	1	18
610.258	1	3
610.428	1	13
610.598	1	8
610.767	1	7
610.937	1	6
611.107	1	6
611.277	1	24
611.446	1	1
611.616	1	10
611.786	1	2
611.955	1	19
612.125	1	-1
612.295	1	3
612.465	1	9
612.634	1	17
612.804	1	15
612.974	1	4
613.143	1	10
613.313	1	9
613.483	1	12
613.652	1	8
613.822	1	2
613.992	1	14
614.162	1	6
614.331	1	21
614.501	1	-1
614.671	1	7
614.840	1	16
615.010	1	5
615.180	1	26
615.349	1	15
615.519	1	9
615.689	1	11
615.858	1	15
616.028	1	9
616.198	1	8
616.368	1	8
616.537	1	11
616.707	1	14
616.877	1	12
617.046	1	15
617.216	1	24
617.386	1	4
617.555	1	14
617.725	1	0
617.895	1	17
618.064	1	1
618.234	1	11
618.404	1	25
618.573	1	12
618.743	1	26
618.913	1	6
619.082	1	23
619.252	1	14
619.422	1	17
619.591	1	-2
619.761	1	8
619.931	1	0
620.100	1	2
620.270	1	3
620.440	1	6
620.609	1	-1
620.779	1	17
620.949	1	19
621.118	1	10
621.288	1	-1
621.458	1	21
621.627	1	11
621.797	1	14
621.967	1	1
622.136	1	12
622.306	1	1
622.476	1	9
622.645	1	8
622.815	1	0
622.985	1	14
623.154	1	8
623.324	1	5
623.494	1	23
623.663	1	10
623.833	1	0
624.002	1	15
624.172	1	8
624.342	1	7
624.511	1	9
624.681	1	3
624.851	1	10
625.020	1	26
625.190	1	16
625.360	1	4
625.529	1	13
625.699	1	17
625.869	1	3
626.038	1	4
626.208	1	12
626.377	1	13
626.547	1	6
626.717	1	5
626.886	1	-1
627.056	1	8
627.226	1	8
627.395	1	4
627.565	1	14
627.735	1	10
627.904	1	20
628.074	1	16
628.243	1	13
628.413	1	20
628.583	1	8
628.752	1	3
628.922	1	10
629.091	1	4
629.261	1	8
629.431	1	0
629.600	1	9
629.770	1	5
629.940	1	4
630.109	1	0
630.279	1	16
630.448	1	4
630.618	1	10
630.788	1	9
630.957	1	15
631.127	1	-2
631.297	1	12
631.466	1	9
631.636	1	3
631.805	1	-1
631.975	1	11
632.145	1	7
632.314	1	1
632.484	1	11
632.653	1	5
632.823	1	11
632.993	1	0
633.162	1	5
633.332	1	7
633.501	1	7
633.671	1	9
633.841	1	4
634.010	1	11
634.180	1	-9
634.349	1	3
634.519	1	11
634.689	1	18
634.858	1	4
635.028	1	8
635.197	1	7
635.367	1	7
635.537	1	-4
635.706	1	15
635.876	1	13
636.045	1	-4
636.215	1	-2
636.384	1	6
636.554	1	18
636.724	1	12
636.893	1	-2
637.063	1	16
637.232	1	10
637.402	1	10
637.572	1	11
637.741	1	2
637.911	1	1
638.080	1	9
638.250	1	5
638.419	1	13
638.589	1	13
638.759	1	12
638.928	1	14
639.098	1	18
639.267	1	-5
639.437	1	6
639.606	1	3
639.776	1	11
639.946	1	13
640.115	1	6
640.285	1	12
640.454	1	5
640.624	1	20
640.793	1	6
640.963	1	-1
641.132	1	15
641.302	1	14
641.472	1	10
641.641	1	7
641.811	1	4
641.980	1	6
642.150	1	19
642.319	1	8
642.489	1	14
642.659	1	-3
642.828	1	13
642.998	1	4
643.167	1	2
643.337	1	-10
643.506	1	19
643.676	1	0
643.845	1	7
644.015	1	7
644.184	1	17
644.354	1	2
644.524	1	6
644.693	1	1
644.863	1	10
645.032	1	4
645.202	1	19
645.371	1	-3
645.541	1	6
645.710	1	12
645.880	1	11
646.049	1	10
646.219	1	6
646.388	1	1
646.558	1	19
646.728	1	12
646.897	1	13
647.067	1	13
647.236	1	9
647.406	1	3
647.575	1	14
647.745	1	6
647.914	1	7
648.084	1	10
648.253	1	10
648.423	1	11
648.592	1	-2
648.762	1	5
648.931	1	7
649.101	1	4
649.270	1	2
649.440	1	6
649.610	1	14
649.779	1	8
649.949	1	1
650.118	1	3
650.288	1	6
650.457	1	6
650.627	1	10
650.796	1	-8
650.966	1	7
651.135	1	2
651.305	1	8
651.474	1	4
651.644	1	10
651.813	1	10
651.983	1	20
652.152	1	13
652.322	1	10
652.491	1	12
652.661	1	5
652.830	1	15
653.000	1	6
653.169	1	14
653.339	1	-1
653.508	1	10
653.678	1	2
653.847	1	5
654.017	1	8
654.186	1	13
654.356	1	9
654.525	1	8
654.695	1	16
654.864	1	-4
655.034	1	14
655.203	1	-3
655.373	1	5
655.542	1	-1
655.712	1	-2
655.881	1	14
656.051	1	10
656.220	1	16
656.390	1	13
656.559	1	6
656.729	1	3
656.898	1	3
657.068	1	5
657.237	1	14
657.406	1	16
657.576	1	5
657.745	1	17
657.915	1	8
658.084	1	20
658.254	1	13
658.423	1	5
658.593	1	14
658.762	1	12
658.932	1	-3
659.101	1	1
659.271	1	12
659.440	1	8
659.610	1	15
659.779	1	11
659.949	1	2
660.118	1	11
660.288	1	-2
660.457	1	5
660.626	1	10
660.796	1	-1
660.965	1	7
661.135	1	10
661.304	1	19
661.474	1	7
661.643	1	6
661.813	1	13
661.982	1	-3
662.152	1	7
662.321	1	8
662.491	1	11
662.660	1	2
662.829	1	7
662.999	1	20
663.168	1	13
663.338	1	8
663.507	1	-2
663.677	1	0
663.846	1	-4
664.016	1	7
664.185	1	4
664.354	1	12
664.524	1	-6
664.693	1	3
664.863	1	-1
665.032	1	11
665.202	1	-2
665.371	1	6
665.541	1	-7
665.710	1	8
665.879	1	7
666.049	1	4
666.218	1	1
666.388	1	15
666.557	1	12
666.727	1	8
666.896	1	10
667.065	1	17
667.235	1	5
667.404	1	6
667.574	1	11
667.743	1	6
667.913	1	7
668.082	1	6
668.251	1	15
668.421	1	2
668.590	1	12
668.760	1	6
668.929	1	2
669.099	1	3
669.268	1	10
669.437	1	1
669.607	1	9
669.776	1	2
669.946	1	11
670.115	1	6
670.285	1	10
670.454	1	8
670.623	1	2
670.793	1	14
670.962	1	14
671.132	1	7
671.301	1	12
671.470	1	6
671.640	1	9
671.809	1	6
671.979	1	4
672.148	1	-3
672.317	1	7
672.487	1	3
672.656	1	11
672.826	1	8
672.995	1	-1
673.164	1	20
673.334	1	9
673.503	1	1
673.673	1	0
673.842	1	-4
674.011	1	-2
674.181	1	12
674.350	1	7
674.520	1	15
674.689	1	4
674.858	1	1
675.028	1	12
675.197	1	3
675.367	1	5
675.536	1	12
675.705	1	3
675.875	1	4
676.044	1	7
676.214	1	13
676.383	1	9
676.552	1	8
676.722	1	4
676.891	1	-5
677.060	1	1
677.230	1	3
677.399	1	19
677.569	1	12
677.738	1	13
677.907	1	23
678.077	1	15
678.246	1	0
678.416	1	2
678.585	1	4
678.754	1	3
678.924	1	8
679.093	1	13
679.262	1	18
679.432	1	12
679.601	1	19
679.771	1	2
679.940	1	4
680.109	1	4
680.279	1	9
680.448	1	6
680.617	1	-4
680.787	1	2
680.956	1	3
681.125	1	18
681.295	1	10
681.464	1	13
681.634	1	6
681.803	1	9
681.972	1	2
682.142	1	3
682.311	1	10
682.480	1	10
682.650	1	10
682.819	1	3
682.988	1	6
683.158	1	6
683.327	1	15
683.496	1	8
683.666	1	13
683.835	1	-4
684.004	1	6
684.174	1	10
684.343	1	6
684.512	1	9
684.682	1	4
684.851	1	8
685.021	1	6
685.190	1	15
685.359	1	-2
685.529	1	15
685.698	1	6
685.867	1	12
686.037	1	7
686.206	1	20
686.375	1	11
686.545	1	1
686.714	1	11
686.883	1	10
687.053	1	2
687.222	1	16
687.391	1	12
687.561	1	15
687.730	1	0
687.899	1	15
688.069	1	2
688.238	1	1
688.407	1	10
688.577	1	3
688.746	1	2
