340.368	1	6
340.539	1	9
340.710	1	1
340.881	1	4
341.052	1	8
341.223	1	-3
341.394	1	-1
341.565	1	12
341.737	1	6
341.908	1	-11
342.079	1	1
342.250	1	0
342.421	1	-4
342.592	1	0
342.763	1	1
342.934	1	3
343.105	1	-5
343.276	1	-5
343.447	1	9
343.618	1	5
343.789	1	12
343.960	1	9
344.131	1	6
344.302	1	7
344.473	1	-2
344.644	1	-1
344.815	1	-2
344.986	1	-10
345.157	1	-1
345.328	1	-10
345.499	1	8
345.670	1	-3
345.841	1	6
346.012	1	7
346.183	1	-1
346.354	1	0
346.526	1	5
346.697	1	3
346.868	1	2
347.039	1	-6
347.210	1	-7
347.381	1	-1
347.552	1	7
347.723	1	7
347.894	1	3
348.065	1	-1
348.236	1	-10
348.407	1	3
348.578	1	-5
348.749	1	-7
348.920	1	-8
349.091	1	1
349.262	1	1
349.433	1	6
349.604	1	-5
349.775	1	4
349.946	1	-3
350.117	1	3
350.288	1	1
350.459	1	0
350.630	1	1
350.801	1	5
350.972	1	4
351.143	1	4
351.314	1	-4
351.485	1	0
351.656	1	2
351.827	1	-3
351.998	1	7
352.169	1	-4
352.340	1	3
352.511	1	9
352.682	1	-9
352.853	1	6
353.024	1	5
353.195	1	6
353.366	1	-5
353.537	1	7
353.708	1	0
353.879	1	-1
354.050	1	-3
354.221	1	-3
354.392	1	-1
354.563	1	10
354.734	1	-17
354.905	1	13
355.076	1	6
355.247	1	7
355.418	1	0
355.589	1	-5
355.760	1	-4
355.931	1	3
356.102	1	-7
356.273	1	-1
356.444	1	-1
356.615	1	2
356.785	1	3
356.956	1	12
357.127	1	-3
357.298	1	2
357.469	1	10
357.640	1	2
357.811	1	1
357.982	1	-5
358.153	1	-4
358.324	1	3
358.495	1	5
358.666	1	-3
358.837	1	3
359.008	1	6
359.179	1	-4
359.350	1	2
359.521	1	8
359.692	1	7
359.863	1	-1
360.034	1	-2
360.205	1	-4
360.376	1	13
360.547	1	2
360.718	1	-1
360.889	1	-1
361.060	1	-7
361.231	1	1
361.401	1	12
361.572	1	12
361.743	1	4
361.914	1	8
362.085	1	8
362.256	1	7
362.427	1	5
362.598	1	-3
362.769	1	15
362.940	1	0
363.111	1	2
363.282	1	14
363.453	1	15
363.624	1	17
363.795	1	-2
363.966	1	14
364.137	1	10
364.308	1	8
364.478	1	9
364.649	1	29
364.820	1	15
364.991	1	12
365.162	1	29
365.333	1	16
365.504	1	4
365.675	1	9
365.846	1	19
366.017	1	13
366.188	1	17
366.359	1	20
366.530	1	26
366.701	1	26
366.871	1	12
367.042	1	30
367.213	1	16
367.384	1	19
367.555	1	27
367.726	1	21
367.897	1	36
368.068	1	24
368.239	1	33
368.410	1	28
368.581	1	15
368.752	1	26
368.923	1	31
369.093	1	13
369.264	1	30
369.435	1	18
369.606	1	23
369.777	1	27
369.948	1	7
370.119	1	17
370.290	1	20
370.461	1	25
370.632	1	14
370.803	1	20
370.973	1	24
371.144	1	29
371.315	1	10
371.486	1	16
371.657	1	22
371.828	1	21
371.999	1	4
372.170	1	14
372.341	1	24
372.512	1	10
372.682	1	29
372.853	1	10
373.024	1	19
373.195	1	18
373.366	1	10
373.537	1	26
373.708	1	19
373.879	1	20
374.050	1	16
374.220	1	20
374.391	1	-2
374.562	1	20
374.733	1	20
374.904	1	10
375.075	1	7
375.246	1	16
375.417	1	9
375.588	1	13
375.758	1	17
375.929	1	7
376.100	1	8
376.271	1	11
376.442	1	10
376.613	1	16
376.784	1	5
376.955	1	7
377.125	1	4
377.296	1	17
377.467	1	15
377.638	1	12
377.809	1	8
377.980	1	12
378.151	1	6
378.321	1	6
378.492	1	1
378.663	1	10
378.834	1	8
379.005	1	0
379.176	1	12
379.347	1	16
379.518	1	13
379.688	1	6
379.859	1	3
380.030	1	10
380.201	1	0
380.372	1	-5
380.543	1	5
380.714	1	18
380.884	1	-3
381.055	1	8
381.226	1	14
381.397	1	23
381.568	1	0
381.739	1	-5
381.910	1	-9
382.080	1	3
382.251	1	13
382.422	1	13
382.593	1	11
382.764	1	11
382.935	1	6
383.105	1	-5
383.276	1	5
383.447	1	5
383.618	1	9
383.789	1	3
383.960	1	0
384.130	1	7
384.301	1	12
384.472	1	-3
384.643	1	-1
384.814	1	1
384.985	1	7
385.156	1	1
385.326	1	0
385.497	1	3
385.668	1	3
385.839	1	2
386.010	1	7
386.180	1	5
386.351	1	-3
386.522	1	6
386.693	1	3
386.864	1	7
387.035	1	9
387.205	1	-5
387.376	1	2
387.547	1	12
387.718	1	5
387.889	1	12
388.060	1	3
388.230	1	7
388.401	1	5
388.572	1	-9
388.743	1	6
388.914	1	15
389.084	1	1
389.255	1	-2
389.426	1	0
389.597	1	-13
389.768	1	3
389.939	1	5
390.109	1	3
390.280	1	9
390.451	1	-4
390.622	1	5
390.793	1	7
390.963	1	12
391.134	1	-8
391.305	1	5
391.476	1	9
391.647	1	0
391.817	1	2
391.988	1	8
392.159	1	-1
392.330	1	0
392.501	1	4
392.671	1	-2
392.842	1	1
393.013	1	1
393.184	1	7
393.355	1	1
393.525	1	2
393.696	1	7
393.867	1	-2
394.038	1	6
394.208	1	6
394.379	1	12
394.550	1	0
394.721	1	10
394.892	1	3
395.062	1	9
395.233	1	-1
395.404	1	-4
395.575	1	13
395.746	1	-8
395.916	1	2
396.087	1	7
396.258	1	7
396.429	1	-6
396.599	1	-2
396.770	1	-5
396.941	1	7
397.112	1	-1
397.283	1	12
397.453	1	4
397.624	1	-1
397.795	1	3
397.966	1	5
398.136	1	-2
398.307	1	8
398.478	1	9
398.649	1	6
398.819	1	4
398.990	1	-3
399.161	1	2
399.332	1	7
399.503	1	3
399.673	1	4
399.844	1	14
400.015	1	-9
400.186	1	-1
400.356	1	4
400.527	1	-4
400.698	1	-8
400.869	1	-2
401.039	1	-6
401.210	1	-5
401.381	1	0
401.552	1	-4
401.722	1	-4
401.893	1	0
402.064	1	3
402.235	1	-4
402.405	1	-3
402.576	1	3
402.747	1	5
402.918	1	8
403.088	1	0
403.259	1	8
403.430	1	-5
403.601	1	-3
403.771	1	7
403.942	1	3
404.113	1	1
404.284	1	-9
404.454	1	-13
404.625	1	-2
404.796	1	-3
404.967	1	3
405.137	1	-2
405.308	1	4
405.479	1	-3
405.649	1	-2
405.820	1	5
405.991	1	-3
406.162	1	2
406.332	1	5
406.503	1	-5
406.674	1	5
406.845	1	11
407.015	1	8
407.186	1	-8
407.357	1	-9
407.527	1	-5
407.698	1	-1
407.869	1	4
408.040	1	3
408.210	1	12
408.381	1	9
408.552	1	7
408.722	1	0
408.893	1	1
409.064	1	-2
409.235	1	5
409.405	1	-7
409.576	1	-7
409.747	1	7
409.917	1	8
410.088	1	1
410.259	1	0
410.430	1	-3
410.600	1	16
410.771	1	-7
410.942	1	1
411.112	1	2
411.283	1	-10
411.454	1	13
411.625	1	-4
411.795	1	2
411.966	1	10
412.137	1	-7
412.307	1	1
412.478	1	-4
412.649	1	4
412.819	1	11
412.990	1	2
413.161	1	-1
413.332	1	-2
413.502	1	-4
413.673	1	-3
413.844	1	2
414.014	1	3
414.185	1	-3
414.356	1	-4
414.526	1	-4
414.697	1	1
414.868	1	-4
415.038	1	7
415.209	1	3
415.380	1	-4
415.550	1	22
415.721	1	-7
415.892	1	10
416.063	1	-6
416.233	1	3
416.404	1	-10
416.575	1	-3
416.745	1	5
416.916	1	-7
417.087	1	-6
417.257	1	1
417.428	1	8
417.599	1	-1
417.769	1	2
417.940	1	-5
418.111	1	1
418.281	1	10
418.452	1	0
418.623	1	-8
418.793	1	6
418.964	1	1
419.135	1	-1
419.305	1	0
419.476	1	2
419.647	1	-13
419.817	1	0
419.988	1	9
420.159	1	3
420.329	1	9
420.500	1	10
420.671	1	-6
420.841	1	6
421.012	1	5
421.183	1	3
421.353	1	3
421.524	1	1
421.695	1	11
421.865	1	4
422.036	1	-3
422.206	1	7
422.377	1	6
422.548	1	7
422.718	1	7
422.889	1	8
423.060	1	2
423.230	1	-3
423.401	1	3
423.572	1	0
423.742	1	4
423.913	1	-7
424.084	1	-6
424.254	1	1
424.425	1	-1
424.595	1	12
424.766	1	-12
424.937	1	3
425.107	1	9
425.278	1	-3
425.449	1	1
425.619	1	8
425.790	1	9
425.961	1	3
426.131	1	1
426.302	1	-6
426.472	1	-5
426.643	1	13
426.814	1	1
426.984	1	0
427.155	1	6
427.326	1	2
427.496	1	-9
427.667	1	-7
427.837	1	-6
428.008	1	3
428.179	1	-1
428.349	1	1
428.520	1	1
428.691	1	14
428.861	1	-3
429.032	1	1
429.202	1	6
429.373	1	8
429.544	1	6
429.714	1	1
429.885	1	6
430.055	1	-2
430.226	1	5
430.397	1	1
430.567	1	-7
430.738	1	-8
430.909	1	1
431.079	1	6
431.250	1	7
431.420	1	10
431.591	1	14
431.762	1	-12
431.932	1	-3
432.103	1	-13
432.273	1	11
432.444	1	-6
432.615	1	13
432.785	1	5
432.956	1	5
433.126	1	11
433.297	1	-2
433.468	1	3
433.638	1	9
433.809	1	3
433.979	1	-7
434.150	1	-5
434.320	1	6
434.491	1	0
434.662	1	-1
434.832	1	-11
435.003	1	-1
435.173	1	0
435.344	1	-11
435.515	1	-6
435.685	1	-9
435.856	1	13
436.026	1	-4
436.197	1	0
436.368	1	9
436.538	1	-3
436.709	1	1
436.879	1	-8
437.050	1	13
437.220	1	13
437.391	1	-3
437.562	1	6
437.732	1	5
437.903	1	4
438.073	1	3
438.244	1	2
438.414	1	-4
438.585	1	-6
438.756	1	6
438.926	1	4
439.097	1	1
439.267	1	-7
439.438	1	3
439.608	1	-5
439.779	1	5
439.949	1	8
440.120	1	-11
440.291	1	-2
440.461	1	-7
440.632	1	-7
440.802	1	-6
440.973	1	18
441.143	1	-7
441.314	1	-8
441.485	1	-3
441.655	1	-4
441.826	1	-4
441.996	1	-8
442.167	1	4
442.337	1	-4
442.508	1	-4
442.678	1	-4
442.849	1	22
443.019	1	3
443.190	1	-3
443.361	1	4
443.531	1	-4
443.702	1	12
443.872	1	-12
444.043	1	1
444.213	1	2
444.384	1	1
444.554	1	1
444.725	1	10
444.895	1	-6
445.066	1	-1
445.237	1	5
445.407	1	-1
445.578	1	10
445.748	1	-5
445.919	1	-17
446.089	1	23
446.260	1	-6
446.430	1	2
446.601	1	5
446.771	1	5
446.942	1	-2
447.112	1	2
447.283	1	9
447.453	1	4
447.624	1	-2
447.794	1	1
447.965	1	6
448.135	1	7
448.306	1	14
448.477	1	2
448.647	1	2
448.818	1	7
448.988	1	-2
449.159	1	-3
449.329	1	4
449.500	1	-9
449.670	1	-8
449.841	1	-4
450.011	1	10
450.182	1	9
450.352	1	-1
450.523	1	-9
450.693	1	-4
450.864	1	-6
451.034	1	6
451.205	1	3
451.375	1	0
451.546	1	-1
451.716	1	-2
451.887	1	12
452.057	1	5
452.228	1	0
452.398	1	3
452.569	1	6
452.739	1	2
452.910	1	5
453.080	1	4
453.251	1	0
453.421	1	7
453.592	1	8
453.762	1	6
453.933	1	-2
454.103	1	-2
454.274	1	-1
454.444	1	4
454.615	1	-13
454.785	1	6
454.956	1	-3
455.126	1	-5
455.297	1	5
455.467	1	1
455.638	1	0
455.808	1	-6
455.979	1	-4
456.149	1	-4
456.320	1	0
456.490	1	-6
456.661	1	0
456.831	1	-4
457.001	1	3
457.172	1	-2
457.342	1	-3
457.513	1	5
457.683	1	-2
457.854	1	5
458.024	1	-4
458.195	1	0
458.365	1	3
458.536	1	3
458.706	1	10
458.877	1	1
459.047	1	4
459.218	1	6
459.388	1	-2
459.559	1	-4
459.729	1	-9
459.899	1	1
460.070	1	0
460.240	1	0
460.411	1	7
460.581	1	-1
460.752	1	2
460.922	1	-8
461.093	1	3
461.263	1	6
461.434	1	-10
461.604	1	7
461.775	1	-7
461.945	1	-7
462.115	1	6
462.286	1	5
462.456	1	3
462.627	1	1
462.797	1	-4
462.968	1	12
463.138	1	0
463.309	1	0
463.479	1	1
463.649	1	6
463.820	1	1
463.990	1	4
464.161	1	-2
464.331	1	-12
464.502	1	-2
464.672	1	2
464.843	1	-2
465.013	1	5
465.183	1	-3
465.354	1	-2
465.524	1	7
465.695	1	5
465.865	1	2
466.036	1	-3
466.206	1	8
466.376	1	-3
466.547	1	10
466.717	1	4
466.888	1	-7
467.058	1	6
467.229	1	6
467.399	1	0
467.569	1	16
467.740	1	-4
467.910	1	-9
468.081	1	-4
468.251	1	1
468.422	1	1
468.592	1	14
468.762	1	2
468.933	1	2
469.103	1	4
469.274	1	-3
469.444	1	9
469.614	1	-3
469.785	1	-6
469.955	1	0
470.126	1	-3
470.296	1	-9
470.467	1	2
470.637	1	2
470.807	1	5
470.978	1	-12
471.148	1	7
471.319	1	13
471.489	1	-4
471.659	1	2
471.830	1	-2
472.000	1	-9
472.171	1	-16
472.341	1	-9
472.511	1	-4
472.682	1	3
472.852	1	5
473.023	1	8
473.193	1	2
473.363	1	10
473.534	1	7
473.704	1	-1
473.875	1	5
474.045	1	14
474.215	1	1
474.386	1	0
474.556	1	11
474.727	1	3
474.897	1	0
475.067	1	-1
475.238	1	0
475.408	1	-6
475.578	1	6
475.749	1	9
475.919	1	4
476.090	1	-1
476.260	1	-1
476.430	1	1
476.601	1	5
476.771	1	0
476.942	1	-1
477.112	1	-4
477.282	1	-2
477.453	1	-5
477.623	1	11
477.793	1	-16
477.964	1	5
478.134	1	1
478.305	1	1
478.475	1	7
478.645	1	3
478.816	1	-5
478.986	1	8
479.156	1	-6
479.327	1	2
479.497	1	1
479.667	1	1
479.838	1	2
480.008	1	1
480.179	1	6
480.349	1	-4
480.519	1	3
480.690	1	2
480.860	1	-3
481.030	1	-3
481.201	1	1
481.371	1	-1
481.541	1	-2
481.712	1	-7
481.882	1	5
482.053	1	-3
482.223	1	4
482.393	1	-1
482.564	1	2
482.734	1	7
482.904	1	-1
483.075	1	-2
483.245	1	2
483.415	1	2
483.586	1	9
483.756	1	-3
483.926	1	-2
484.097	1	7
484.267	1	-4
484.437	1	-7
484.608	1	-1
484.778	1	1
484.948	1	-1
485.119	1	6
485.289	1	-1
485.459	1	0
485.630	1	4
485.800	1	-13
485.970	1	-7
486.141	1	-5
486.311	1	-14
486.481	1	-2
486.652	1	4
486.822	1	0
486.992	1	5
487.163	1	-5
487.333	1	-9
487.503	1	-5
487.674	1	5
487.844	1	-5
488.014	1	10
488.185	1	-2
488.355	1	7
488.525	1	-3
488.696	1	11
488.866	1	0
489.036	1	3
489.207	1	4
489.377	1	-9
489.547	1	8
489.718	1	0
489.888	1	0
490.058	1	5
490.228	1	9
490.399	1	9
490.569	1	3
490.739	1	1
490.910	1	-8
491.080	1	-9
491.250	1	11
491.421	1	4
491.591	1	-2
491.761	1	13
491.932	1	12
492.102	1	3
492.272	1	-6
492.442	1	-11
492.613	1	0
492.783	1	-14
492.953	1	7
493.124	1	-12
493.294	1	11
493.464	1	4
493.635	1	12
493.805	1	4
493.975	1	10
494.145	1	1
494.316	1	3
494.486	1	-5
494.656	1	-2
494.827	1	-4
494.997	1	2
495.167	1	19
495.337	1	5
495.508	1	5
495.678	1	1
495.848	1	5
496.019	1	2
496.189	1	4
496.359	1	1
496.529	1	-1
496.700	1	9
496.870	1	4
497.040	1	-3
497.211	1	-3
497.381	1	0
497.551	1	10
497.721	1	-2
497.892	1	0
498.062	1	-2
498.232	1	-6
498.403	1	0
498.573	1	12
498.743	1	-5
498.913	1	5
499.084	1	10
499.254	1	-4
499.424	1	5
499.594	1	2
499.765	1	-4
499.935	1	9
500.105	1	-3
500.275	1	6
500.446	1	-3
500.616	1	5
500.786	1	4
500.956	1	18
501.127	1	-3
501.297	1	-7
501.467	1	-5
501.638	1	2
501.808	1	12
501.978	1	11
502.148	1	-3
502.319	1	4
502.489	1	0
502.659	1	2
502.829	1	1
503.000	1	11
503.170	1	0
503.340	1	5
503.510	1	-5
503.681	1	-4
503.851	1	-4
504.021	1	3
504.191	1	8
504.362	1	1
504.532	1	3
504.702	1	5
504.872	1	-6
505.042	1	1
505.213	1	-1
505.383	1	2
505.553	1	-1
505.723	1	11
505.894	1	2
506.064	1	-10
506.234	1	-5
506.404	1	17
506.575	1	-6
506.745	1	-10
506.915	1	-4
507.085	1	0
507.256	1	9
507.426	1	12
507.596	1	2
507.766	1	12
507.936	1	8
508.107	1	9
508.277	1	9
508.447	1	-7
508.617	1	2
508.788	1	-14
508.958	1	12
509.128	1	0
509.298	1	3
509.468	1	11
509.639	1	-3
509.809	1	-3
509.979	1	3
510.149	1	9
510.319	1	11
510.490	1	12
510.660	1	11
510.830	1	-7
511.000	1	-4
511.171	1	-3
511.341	1	-2
511.511	1	-1
511.681	1	8
511.851	1	0
512.022	1	10
512.192	1	6
512.362	1	12
512.532	1	-1
512.702	1	-2
512.873	1	1
513.043	1	6
513.213	1	5
513.383	1	-1
513.553	1	0
513.724	1	8
513.894	1	10
514.064	1	16
514.234	1	3
514.404	1	-9
514.575	1	8
514.745	1	-2
514.915	1	-1
515.085	1	-3
515.255	1	9
515.425	1	11
515.596	1	9
515.766	1	9
515.936	1	6
516.106	1	5
516.276	1	4
516.447	1	9
516.617	1	3
516.787	1	4
516.957	1	-3
517.127	1	-2
517.297	1	4
517.468	1	-1
517.638	1	-4
517.808	1	9
517.978	1	0
518.148	1	16
518.319	1	-2
518.489	1	11
518.659	1	19
518.829	1	9
518.999	1	6
519.169	1	2
519.340	1	-3
519.510	1	5
519.680	1	-6
519.850	1	3
520.020	1	-3
520.190	1	9
520.361	1	1
520.531	1	1
520.701	1	8
520.871	1	-4
521.041	1	3
521.211	1	-3
521.382	1	4
521.552	1	-1
521.722	1	8
521.892	1	10
522.062	1	5
522.232	1	5
522.402	1	4
522.573	1	-2
522.743	1	2
522.913	1	5
523.083	1	17
523.253	1	-1
523.423	1	13
523.593	1	-4
523.764	1	0
523.934	1	6
524.104	1	0
524.274	1	0
524.444	1	9
524.614	1	16
524.784	1	-4
524.955	1	-6
525.125	1	3
525.295	1	-6
525.465	1	17
525.635	1	3
525.805	1	4
525.975	1	11
526.146	1	1
526.316	1	9
526.486	1	10
526.656	1	6
526.826	1	9
526.996	1	-4
527.166	1	10
527.337	1	5
527.507	1	7
527.677	1	9
527.847	1	1
528.017	1	2
528.187	1	10
528.357	1	12
528.527	1	-1
528.698	1	3
528.868	1	2
529.038	1	-5
529.208	1	6
529.378	1	-6
529.548	1	-1
529.718	1	0
529.888	1	-2
530.058	1	-2
530.229	1	0
530.399	1	7
530.569	1	0
530.739	1	3
530.909	1	10
531.079	1	-4
531.249	1	-2
531.419	1	5
531.589	1	6
531.760	1	4
531.930	1	1
532.100	1	18
532.270	1	3
532.440	1	-10
532.610	1	-3
532.780	1	5
532.950	1	-8
533.120	1	-6
533.290	1	3
533.461	1	1
533.631	1	11
533.801	1	12
533.971	1	4
534.141	1	7
534.311	1	-7
534.481	1	-4
534.651	1	5
534.821	1	-11
534.991	1	-1
535.162	1	6
535.332	1	12
535.502	1	7
535.672	1	-2
535.842	1	3
536.012	1	-3
536.182	1	5
536.352	1	-3
536.522	1	6
536.692	1	-16
536.862	1	14
537.032	1	-8
537.203	1	3
537.373	1	-2
537.543	1	10
537.713	1	1
537.883	1	-7
538.053	1	2
538.223	1	7
538.393	1	7
538.563	1	9
538.733	1	0
538.903	1	4
539.073	1	19
539.243	1	-5
539.413	1	-4
539.584	1	4
539.754	1	2
539.924	1	-2
540.094	1	7
540.264	1	0
540.434	1	10
540.604	1	3
540.774	1	1
540.944	1	-1
541.114	1	1
541.284	1	-4
541.454	1	9
541.624	1	-1
541.794	1	-3
541.964	1	1
542.134	1	10
542.305	1	19
542.475	1	14
542.645	1	9
542.815	1	4
542.985	1	0
543.155	1	9
543.325	1	-9
543.495	1	3
543.665	1	3
543.835	1	14
544.005	1	14
544.175	1	17
544.345	1	0
544.515	1	3
544.685	1	6
544.855	1	-3
545.025	1	11
545.195	1	1
545.365	1	-1
545.535	1	7
545.705	1	-3
545.875	1	11
546.045	1	13
546.216	1	9
546.386	1	0
546.556	1	-5
546.726	1	3
546.896	1	11
547.066	1	9
547.236	1	2
547.406	1	9
547.576	1	10
547.746	1	-6
547.916	1	-1
548.086	1	1
548.256	1	1
548.426	1	5
548.596	1	2
548.766	1	0
548.936	1	-4
549.106	1	3
549.276	1	2
549.446	1	-5
549.616	1	-7
549.786	1	13
549.956	1	-5
550.126	1	-4
550.296	1	7
550.466	1	9
550.636	1	9
550.806	1	8
550.976	1	10
551.146	1	13
551.316	1	7
551.486	1	11
551.656	1	-13
551.826	1	-10
551.996	1	10
552.166	1	2
552.336	1	12
552.506	1	1
552.676	1	6
552.846	1	4
553.016	1	11
553.186	1	11
553.356	1	10
553.526	1	2
553.696	1	1
553.866	1	4
554.036	1	9
554.206	1	8
554.376	1	-3
554.546	1	0
554.716	1	0
554.886	1	-1
555.056	1	6
555.226	1	1
555.396	1	0
555.566	1	-5
555.736	1	5
555.906	1	7
556.076	1	1
556.246	1	6
556.416	1	4
556.586	1	-8
556.756	1	-1
556.926	1	6
557.096	1	12
557.266	1	-4
557.436	1	11
557.606	1	3
557.776	1	3
557.946	1	-3
558.116	1	6
558.286	1	-9
558.456	1	-2
558.626	1	5
558.796	1	9
558.966	1	8
559.136	1	0
559.306	1	2
559.476	1	7
559.646	1	9
559.816	1	6
559.986	1	-7
560.155	1	-4
560.325	1	-3
560.495	1	14
560.665	1	11
560.835	1	3
561.005	1	-1
561.175	1	-5
561.345	1	14
561.515	1	3
561.685	1	9
561.855	1	-3
562.025	1	5
562.195	1	-2
562.365	1	3
562.535	1	-4
562.705	1	9
562.875	1	-4
563.045	1	4
563.215	1	4
563.385	1	12
563.555	1	-4
563.725	1	3
563.895	1	8
564.064	1	1
564.234	1	4
564.404	1	3
564.574	1	-1
564.744	1	1
564.914	1	-1
565.084	1	-2
565.254	1	5
565.424	1	6
565.594	1	-5
565.764	1	-2
565.934	1	2
566.104	1	13
566.274	1	1
566.444	1	5
566.614	1	-2
566.783	1	3
566.953	1	2
567.123	1	13
567.293	1	-7
567.463	1	10
567.633	1	6
567.803	1	7
567.973	1	7
568.143	1	3
568.313	1	4
568.483	1	10
568.653	1	3
568.823	1	4
568.993	1	-3
569.162	1	7
569.332	1	8
569.502	1	6
569.672	1	6
569.842	1	2
570.012	1	8
570.182	1	2
570.352	1	-1
570.522	1	-3
570.692	1	-6
570.862	1	-2
571.031	1	-5
571.201	1	1
571.371	1	3
571.541	1	0
571.711	1	-4
571.881	1	5
572.051	1	-2
572.221	1	-1
572.391	1	-3
572.561	1	2
572.731	1	-5
572.900	1	0
573.070	1	2
573.240	1	9
573.410	1	18
573.580	1	16
573.750	1	7
573.920	1	-1
574.090	1	-5
574.260	1	0
574.430	1	7
574.599	1	-6
574.769	1	6
574.939	1	-4
575.109	1	7
575.279	1	8
575.449	1	10
575.619	1	-1
575.789	1	12
575.959	1	3
576.128	1	-3
576.298	1	4
576.468	1	19
576.638	1	10
576.808	1	2
576.978	1	-13
577.148	1	5
577.318	1	4
577.487	1	4
577.657	1	5
577.827	1	-4
577.997	1	3
578.167	1	7
578.337	1	14
578.507	1	11
578.677	1	-2
578.846	1	4
579.016	1	8
579.186	1	1
579.356	1	3
579.526	1	4
579.696	1	6
579.866	1	3
580.036	1	9
580.205	1	8
580.375	1	6
580.545	1	-1
580.715	1	-3
580.885	1	-6
581.055	1	7
581.225	1	0
581.394	1	4
581.564	1	5
581.734	1	8
581.904	1	0
582.074	1	2
582.244	1	14
582.414	1	-9
582.583	1	7
582.753	1	5
582.923	1	3
583.093	1	-3
583.263	1	0
583.433	1	9
583.603	1	10
583.772	1	5
583.942	1	-2
584.112	1	-8
584.282	1	7
584.452	1	1
584.622	1	1
584.791	1	8
584.961	1	-4
585.131	1	-2
585.301	1	-2
585.471	1	15
585.641	1	9
585.811	1	8
585.980	1	4
586.150	1	3
586.320	1	3
586.490	1	-1
586.660	1	-2
586.830	1	-1
586.999	1	7
587.169	1	2
587.339	1	-5
587.509	1	-1
587.679	1	7
587.849	1	-4
588.018	1	15
588.188	1	1
588.358	1	14
588.528	1	5
588.698	1	8
588.867	1	2
589.037	1	9
589.207	1	0
589.377	1	-1
589.547	1	-1
589.717	1	0
589.886	1	0
590.056	1	-7
590.226	1	-4
590.396	1	4
590.566	1	5
590.735	1	21
590.905	1	-2
591.075	1	-3
591.245	1	8
591.415	1	2
591.585	1	-2
591.754	1	12
591.924	1	3
592.094	1	4
592.264	1	-3
592.434	1	3
592.603	1	3
592.773	1	-7
592.943	1	11
593.113	1	-1
593.283	1	12
593.452	1	11
593.622	1	7
593.792	1	11
593.962	1	-3
594.132	1	-5
594.301	1	10
594.471	1	-1
594.641	1	-4
594.811	1	-8
594.981	1	2
595.150	1	-1
595.320	1	10
595.490	1	6
595.660	1	10
595.829	1	2
595.999	1	11
596.169	1	8
596.339	1	-2
596.509	1	4
596.678	1	5
596.848	1	8
597.018	1	-4
597.188	1	-4
597.358	1	-14
597.527	1	5
597.697	1	-2
597.867	1	0
598.037	1	-5
598.206	1	-6
598.376	1	4
598.546	1	-8
598.716	1	2
598.885	1	6
599.055	1	9
599.225	1	8
599.395	1	-9
599.565	1	4
599.734	1	-1
599.904	1	2
600.074	1	-2
600.244	1	9
600.413	1	-1
600.583	1	13
600.753	1	15
600.923	1	12
601.092	1	3
601.262	1	5
601.432	1	-6
601.602	1	10
601.771	1	6
601.941	1	-5
602.111	1	2
602.281	1	10
602.451	1	1
602.620	1	-7
602.790	1	6
602.960	1	-3
603.130	1	-1
603.299	1	11
603.469	1	11
603.639	1	5
603.809	1	3
603.978	1	-11
604.148	1	10
604.318	1	11
604.487	1	-5
604.657	1	4
604.827	1	1
604.997	1	6
605.166	1	5
605.336	1	5
605.506	1	-4
605.676	1	2
605.845	1	-1
606.015	1	5
606.185	1	8
606.355	1	5
606.524	1	4
606.694	1	-5
606.864	1	-6
607.034	1	-6
607.203	1	13
607.373	1	1
607.543	1	-7
607.712	1	4
607.882	1	1
608.052	1	14
608.222	1	4
608.391	1	7
608.561	1	0
608.731	1	2
608.901	1	1
609.070	1	6
609.240	1	6
609.410	1	1
609.579	1	-1
609.749	1	9
609.919	1	4
610.089	1	-1
610.258	1	-5
610.428	1	0
610.598	1	2
610.767	1	0
610.937	1	3
611.107	1	3
611.277	1	8
611.446	1	-8
611.616	1	11
611.786	1	1
611.955	1	-5
612.125	1	-4
612.295	1	5
612.465	1	9
612.634	1	1
612.804	1	10
612.974	1	-2
613.143	1	-8
613.313	1	-4
613.483	1	1
613.652	1	6
613.822	1	-2
613.992	1	12
614.162	1	-6
614.331	1	-2
614.501	1	4
614.671	1	5
614.840	1	6
615.010	1	-5
615.180	1	1
615.349	1	3
615.519	1	12
615.689	1	-1
615.858	1	11
616.028	1	2
616.198	1	4
616.368	1	-6
616.537	1	-9
616.707	1	7
616.877	1	8
617.046	1	14
617.216	1	16
617.386	1	2
617.555	1	3
617.725	1	-3
617.895	1	5
618.064	1	-8
618.234	1	-2
618.404	1	2
618.573	1	6
618.743	1	7
618.913	1	2
619.082	1	1
619.252	1	7
619.422	1	7
619.591	1	-2
619.761	1	-3
619.931	1	1
620.100	1	-6
620.270	1	-4
620.440	1	4
620.609	1	-6
620.779	1	3
620.949	1	5
621.118	1	6
621.288	1	3
621.458	1	5
621.627	1	8
621.797	1	3
621.967	1	3
622.136	1	9
622.306	1	-10
622.476	1	9
622.645	1	3
622.815	1	-9
622.985	1	-4
623.154	1	-8
623.324	1	3
623.494	1	8
623.663	1	15
623.833	1	-4
624.002	1	5
624.172	1	3
624.342	1	-1
624.511	1	7
624.681	1	-3
624.851	1	6
625.020	1	5
625.190	1	-4
625.360	1	4
625.529	1	3
625.699	1	11
625.869	1	5
626.038	1	2
626.208	1	4
626.377	1	-1
626.547	1	10
626.717	1	0
626.886	1	-2
627.056	1	-9
627.226	1	-6
627.395	1	3
627.565	1	-5
627.735	1	11
627.904	1	17
628.074	1	0
628.243	1	3
628.413	1	13
628.583	1	6
628.752	1	-6
628.922	1	4
629.091	1	-1
629.261	1	-2
629.431	1	-8
629.600	1	11
629.770	1	4
629.940	1	-6
630.109	1	-1
630.279	1	6
630.448	1	5
630.618	1	6
630.788	1	-7
630.957	1	7
631.127	1	4
631.297	1	10
631.466	1	3
631.636	1	1
631.805	1	-4
631.975	1	8
632.145	1	-7
632.314	1	-10
632.484	1	-5
632.653	1	-4
632.823	1	0
632.993	1	2
633.162	1	3
633.332	1	-1
633.501	1	4
633.671	1	1
633.841	1	-4
634.010	1	-3
634.180	1	-4
634.349	1	6
634.519	1	-7
634.689	1	14
634.858	1	1
635.028	1	0
635.197	1	5
635.367	1	-3
635.537	1	-4
635.706	1	3
635.876	1	0
636.045	1	0
636.215	1	0
636.384	1	-2
636.554	1	9
636.724	1	-2
636.893	1	-1
637.063	1	9
637.232	1	-1
637.402	1	10
637.572	1	5
637.741	1	-7
637.911	1	-4
638.080	1	4
638.250	1	6
638.419	1	3
638.589	1	5
638.759	1	3
638.928	1	-1
639.098	1	10
639.267	1	-9
639.437	1	-10
639.606	1	-6
639.776	1	-1
639.946	1	9
640.115	1	3
640.285	1	7
640.454	1	8
640.624	1	19
640.793	1	4
640.963	1	-4
641.132	1	3
641.302	1	7
641.472	1	0
641.641	1	1
641.811	1	0
641.980	1	2
642.150	1	0
642.319	1	3
642.489	1	6
642.659	1	-2
642.828	1	6
642.998	1	-3
643.167	1	2
643.337	1	5
643.506	1	8
643.676	1	-2
643.845	1	2
644.015	1	3
644.184	1	-6
644.354	1	5
644.524	1	10
644.693	1	-7
644.863	1	5
645.032	1	1
645.202	1	0
645.371	1	-10
645.541	1	0
645.710	1	1
645.880	1	13
646.049	1	4
646.219	1	-3
646.388	1	-10
646.558	1	-2
646.728	1	5
646.897	1	1
647.067	1	8
647.236	1	-5
647.406	1	3
647.575	1	-5
647.745	1	2
647.914	1	2
648.084	1	-2
648.253	1	-3
648.423	1	4
648.592	1	-6
648.762	1	2
648.931	1	4
649.101	1	5
649.270	1	-1
649.440	1	-3
649.610	1	3
649.779	1	3
649.949	1	-7
650.118	1	-3
650.288	1	-2
650.457	1	0
650.627	1	7
650.796	1	-4
650.966	1	1
651.135	1	-1
651.305	1	2
651.474	1	2
651.644	1	-2
651.813	1	2
651.983	1	12
652.152	1	5
652.322	1	-9
652.491	1	6
652.661	1	3
652.830	1	12
653.000	1	-6
653.169	1	5
653.339	1	10
653.508	1	8
653.678	1	1
653.847	1	0
654.017	1	6
654.186	1	2
654.356	1	2
654.525	1	1
654.695	1	-10
654.864	1	-1
655.034	1	-3
655.203	1	-7
655.373	1	2
655.542	1	-2
655.712	1	-3
655.881	1	6
656.051	1	-5
656.220	1	4
656.390	1	8
656.559	1	1
656.729	1	-6
656.898	1	2
657.068	1	0
657.237	1	-1
657.406	1	-2
657.576	1	3
657.745	1	1
657.915	1	1
658.084	1	13
658.254	1	1
658.423	1	7
658.593	1	4
658.762	1	10
658.932	1	-7
659.101	1	3
659.271	1	3
659.440	1	4
659.610	1	5
659.779	1	0
659.949	1	6
660.118	1	1
660.288	1	0
660.457	1	-6
660.626	1	7
660.796	1	-8
660.965	1	-3
661.135	1	1
661.304	1	6
661.474	1	-4
661.643	1	3
661.813	1	12
661.982	1	-4
662.152	1	-3
662.321	1	-7
662.491	1	2
662.660	1	-1
662.829	1	-3
662.999	1	7
663.168	1	7
663.338	1	-1
663.507	1	-5
663.677	1	-14
663.846	1	2
664.016	1	0
664.185	1	6
664.354	1	5
664.524	1	-2
664.693	1	4
664.863	1	0
665.032	1	1
665.202	1	-4
665.371	1	0
665.541	1	-5
665.710	1	4
665.879	1	3
666.049	1	-2
666.218	1	1
666.388	1	3
666.557	1	6
666.727	1	-9
666.896	1	-2
667.065	1	3
667.235	1	-2
667.404	1	-3
667.574	1	11
667.743	1	4
667.913	1	-2
668.082	1	1
668.251	1	9
668.421	1	-7
668.590	1	-6
668.760	1	8
668.929	1	-8
669.099	1	4
669.268	1	2
669.437	1	4
669.607	1	-2
669.776	1	1
669.946	1	-2
670.115	1	0
670.285	1	-8
670.454	1	9
670.623	1	-3
670.793	1	5
670.962	1	-2
671.132	1	5
671.301	1	-10
671.470	1	7
671.640	1	4
671.809	1	-7
671.979	1	6
672.148	1	-5
672.317	1	4
672.487	1	3
672.656	1	10
672.826	1	-1
672.995	1	-9
673.164	1	14
673.334	1	1
673.503	1	-2
673.673	1	-8
673.842	1	-12
674.011	1	-1
674.181	1	-4
674.350	1	8
674.520	1	9
674.689	1	4
674.858	1	-4
675.028	1	5
675.197	1	3
675.367	1	2
675.536	1	13
675.705	1	-1
675.875	1	-4
676.044	1	-5
676.214	1	3
676.383	1	2
676.552	1	6
676.722	1	-6
676.891	1	-14
677.060	1	-2
677.230	1	5
677.399	1	9
677.569	1	7
677.738	1	7
677.907	1	4
678.077	1	11
678.246	1	2
678.416	1	-5
678.585	1	2
678.754	1	4
678.924	1	-2
679.093	1	11
679.262	1	11
679.432	1	12
679.601	1	6
679.771	1	-5
679.940	1	-3
680.109	1	8
680.279	1	3
680.448	1	-6
680.617	1	-1
680.787	1	4
680.956	1	-1
681.125	1	8
681.295	1	-4
681.464	1	3
681.634	1	-9
681.803	1	0
681.972	1	6
682.142	1	4
682.311	1	-3
682.480	1	9
682.650	1	1
682.819	1	2
682.988	1	6
683.158	1	1
683.327	1	1
683.496	1	0
683.666	1	11
683.835	1	3
684.004	1	9
684.174	1	-4
684.343	1	-3
684.512	1	-1
684.682	1	0
684.851	1	4
685.021	1	1
685.190	1	9
685.359	1	-11
685.529	1	-5
685.698	1	4
685.867	1	-1
686.037	1	-3
686.206	1	6
686.375	1	9
686.545	1	-5
686.714	1	3
686.883	1	-4
687.053	1	-4
687.222	1	5
687.391	1	3
687.561	1	5
687.730	1	-9
687.899	1	2
688.069	1	-8
688.238	1	5
688.407	1	2
688.577	1	4
688.746	1	-1
