340.368	1	1
340.539	1	5
340.710	1	-2
340.881	1	0
341.052	1	5
341.223	1	-9
341.394	1	6
341.565	1	0
341.737	1	-8
341.908	1	-4
342.079	1	3
342.250	1	0
342.421	1	-12
342.592	1	-2
342.763	1	-2
342.934	1	1
343.105	1	2
343.276	1	2
343.447	1	8
343.618	1	-2
343.789	1	2
343.960	1	0
344.131	1	-4
344.302	1	4
344.473	1	5
344.644	1	5
344.815	1	-1
344.986	1	-14
345.157	1	-1
345.328	1	3
345.499	1	12
345.670	1	3
345.841	1	-5
346.012	1	-5
346.183	1	6
346.354	1	5
346.526	1	-6
346.697	1	-3
346.868	1	0
347.039	1	5
347.210	1	-9
347.381	1	10
347.552	1	-1
347.723	1	10
347.894	1	6
348.065	1	-2
348.236	1	-4
348.407	1	-4
348.578	1	-8
348.749	1	6
348.920	1	6
349.091	1	6
349.262	1	-2
349.433	1	-2
349.604	1	1
349.775	1	-5
349.946	1	1
350.117	1	-5
350.288	1	-5
350.459	1	-4
350.630	1	10
350.801	1	7
350.972	1	2
351.143	1	4
351.314	1	-3
351.485	1	-1
351.656	1	2
351.827	1	14
351.998	1	0
352.169	1	2
352.340	1	10
352.511	1	3
352.682	1	4
352.853	1	3
353.024	1	7
353.195	1	-7
353.366	1	-8
353.537	1	6
353.708	1	10
353.879	1	-4
354.050	1	4
354.221	1	3
354.392	1	7
354.563	1	3
354.734	1	0
354.905	1	5
355.076	1	-3
355.247	1	-1
355.418	1	5
355.589	1	-4
355.760	1	2
355.931	1	-6
356.102	1	0
356.273	1	-2
356.444	1	-3
356.615	1	12
356.785	1	2
356.956	1	1
357.127	1	-4
357.298	1	-1
357.469	1	5
357.640	1	8
357.811	1	6
357.982	1	4
358.153	1	-6
358.324	1	9
358.495	1	-2
358.666	1	-7
358.837	1	0
359.008	1	-1
359.179	1	4
359.350	1	2
359.521	1	12
359.692	1	14
359.863	1	3
360.034	1	6
360.205	1	3
360.376	1	3
360.547	1	-4
360.718	1	-8
360.889	1	13
361.060	1	8
361.231	1	-3
361.401	1	6
361.572	1	9
361.743	1	-1
361.914	1	1
362.085	1	-3
362.256	1	0
362.427	1	4
362.598	1	11
362.769	1	2
362.940	1	9
363.111	1	2
363.282	1	3
363.453	1	1
363.624	1	1
363.795	1	-2
363.966	1	2
364.137	1	-5
364.308	1	-4
364.478	1	13
364.649	1	1
364.820	1	4
364.991	1	-1
365.162	1	-2
365.333	1	-11
365.504	1	6
365.675	1	0
365.846	1	10
366.017	1	3
366.188	1	7
366.359	1	4
366.530	1	2
366.701	1	-6
366.871	1	4
367.042	1	9
367.213	1	5
367.384	1	2
367.555	1	4
367.726	1	7
367.897	1	19
368.068	1	3
368.239	1	-2
368.410	1	-2
368.581	1	0
368.752	1	-1
368.923	1	10
369.093	1	1
369.264	1	-3
369.435	1	-3
369.606	1	1
369.777	1	5
369.948	1	10
370.119	1	6
370.290	1	6
370.461	1	10
370.632	1	1
370.803	1	-7
370.973	1	-2
371.144	1	4
371.315	1	3
371.486	1	6
371.657	1	4
371.828	1	-5
371.999	1	-11
372.170	1	-3
372.341	1	-4
372.512	1	3
372.682	1	9
372.853	1	5
373.024	1	5
373.195	1	-4
373.366	1	5
373.537	1	-5
373.708	1	4
373.879	1	-3
374.050	1	-8
374.220	1	9
374.391	1	2
374.562	1	4
374.733	1	5
374.904	1	3
375.075	1	7
375.246	1	1
375.417	1	-4
375.588	1	-3
375.758	1	2
375.929	1	2
376.100	1	3
376.271	1	-4
376.442	1	-4
376.613	1	-2
376.784	1	13
376.955	1	4
377.125	1	-1
377.296	1	-6
377.467	1	-7
377.638	1	-1
377.809	1	0
377.980	1	-3
378.151	1	5
378.321	1	4
378.492	1	-1
378.663	1	3
378.834	1	-8
379.005	1	5
379.176	1	3
379.347	1	10
379.518	1	9
379.688	1	-4
379.859	1	-5
380.030	1	12
380.201	1	-1
380.372	1	-13
380.543	1	6
380.714	1	7
380.884	1	4
381.055	1	-1
381.226	1	5
381.397	1	4
381.568	1	2
381.739	1	5
381.910	1	0
382.080	1	-2
382.251	1	-6
382.422	1	-1
382.593	1	1
382.764	1	-2
382.935	1	-2
383.105	1	10
383.276	1	5
383.447	1	-6
383.618	1	2
383.789	1	-1
383.960	1	-2
384.130	1	-5
384.301	1	6
384.472	1	2
384.643	1	13
384.814	1	1
384.985	1	0
385.156	1	6
385.326	1	4
385.497	1	3
385.668	1	2
385.839	1	-1
386.010	1	5
386.180	1	-5
386.351	1	-7
386.522	1	1
386.693	1	-3
386.864	1	3
387.035	1	4
387.205	1	8
387.376	1	-4
387.547	1	-1
387.718	1	-2
387.889	1	3
388.060	1	-3
388.230	1	5
388.401	1	14
388.572	1	4
388.743	1	17
388.914	1	-5
389.084	1	5
389.255	1	0
389.426	1	8
389.597	1	13
389.768	1	8
389.939	1	5
390.109	1	-6
390.280	1	-2
390.451	1	10
390.622	1	-4
390.793	1	6
390.963	1	7
391.134	1	1
391.305	1	3
391.476	1	-11
391.647	1	-7
391.817	1	-8
391.988	1	-1
392.159	1	6
392.330	1	0
392.501	1	-8
392.671	1	-12
392.842	1	-5
393.013	1	5
393.184	1	-3
393.355	1	3
393.525	1	1
393.696	1	3
393.867	1	-14
394.038	1	2
394.208	1	6
394.379	1	15
394.550	1	-3
394.721	1	1
394.892	1	-1
395.062	1	-5
395.233	1	5
395.404	1	-2
395.575	1	9
395.746	1	-1
395.916	1	-3
396.087	1	9
396.258	1	8
396.429	1	4
396.599	1	-5
396.770	1	0
396.941	1	3
397.112	1	8
397.283	1	-4
397.453	1	9
397.624	1	3
397.795	1	5
397.966	1	1
398.136	1	18
398.307	1	-3
398.478	1	6
398.649	1	-8
398.819	1	1
398.990	1	4
399.161	1	0
399.332	1	10
399.503	1	-6
399.673	1	2
399.844	1	-5
400.015	1	10
400.186	1	1
400.356	1	15
400.527	1	-10
400.698	1	12
400.869	1	-5
401.039	1	6
401.210	1	10
401.381	1	7
401.552	1	-2
401.722	1	1
401.893	1	-2
402.064	1	0
402.235	1	2
402.405	1	2
402.576	1	2
402.747	1	-8
402.918	1	-4
403.088	1	-7
403.259	1	4
403.430	1	-10
403.601	1	5
403.771	1	-4
403.942	1	0
404.113	1	1
404.284	1	8
404.454	1	2
404.625	1	-4
404.796	1	-2
404.967	1	0
405.137	1	-2
405.308	1	-3
405.479	1	-11
405.649	1	5
405.820	1	1
405.991	1	4
406.162	1	0
406.332	1	-3
406.503	1	-8
406.674	1	2
406.845	1	-4
407.015	1	-2
407.186	1	7
407.357	1	2
407.527	1	-3
407.698	1	-7
407.869	1	2
408.040	1	-2
408.210	1	16
408.381	1	3
408.552	1	1
408.722	1	9
408.893	1	1
409.064	1	-5
409.235	1	2
409.405	1	7
409.576	1	11
409.747	1	4
409.917	1	1
410.088	1	5
410.259	1	-9
410.430	1	4
410.600	1	2
410.771	1	-1
410.942	1	3
411.112	1	-9
411.283	1	5
411.454	1	7
411.625	1	7
411.795	1	3
411.966	1	-10
412.137	1	12
412.307	1	-5
412.478	1	-4
412.649	1	-19
412.819	1	10
412.990	1	9
413.161	1	15
413.332	1	12
413.502	1	2
413.673	1	8
413.844	1	-7
414.014	1	-2
414.185	1	-6
414.356	1	-2
414.526	1	-2
414.697	1	8
414.868	1	-11
415.038	1	3
415.209	1	3
415.380	1	3
415.550	1	-9
415.721	1	-1
415.892	1	-9
416.063	1	-3
416.233	1	0
416.404	1	-4
416.575	1	15
416.745	1	8
416.916	1	-2
417.087	1	-9
417.257	1	-8
417.428	1	5
417.599	1	7
417.769	1	-5
417.940	1	-6
418.111	1	3
418.281	1	8
418.452	1	-4
418.623	1	-6
418.793	1	3
418.964	1	-9
419.135	1	1
419.305	1	1
419.476	1	-5
419.647	1	-7
419.817	1	-10
419.988	1	11
420.159	1	16
420.329	1	-2
420.500	1	0
420.671	1	5
420.841	1	-4
421.012	1	5
421.183	1	-1
421.353	1	2
421.524	1	4
421.695	1	-5
421.865	1	8
422.036	1	4
422.206	1	-3
422.377	1	-5
422.548	1	-6
422.718	1	1
422.889	1	4
423.060	1	2
423.230	1	12
423.401	1	-6
423.572	1	3
423.742	1	-2
423.913	1	1
424.084	1	-7
424.254	1	-1
424.425	1	12
424.595	1	7
424.766	1	-1
424.937	1	1
425.107	1	2
425.278	1	3
425.449	1	4
425.619	1	11
425.790	1	6
425.961	1	-7
426.131	1	-3
426.302	1	0
426.472	1	-7
426.643	1	-6
426.814	1	-3
426.984	1	11
427.155	1	-1
427.326	1	5
427.496	1	-2
427.667	1	6
427.837	1	-1
428.008	1	1
428.179	1	6
428.349	1	-8
428.520	1	-5
428.691	1	4
428.861	1	-3
429.032	1	-1
429.202	1	9
429.373	1	3
429.544	1	2
429.714	1	11
429.885	1	6
430.055	1	4
430.226	1	12
430.397	1	13
430.567	1	-2
430.738	1	-10
430.909	1	-5
431.079	1	7
431.250	1	5
431.420	1	6
431.591	1	-1
431.762	1	1
431.932	1	0
432.103	1	-5
432.273	1	14
432.444	1	2
432.615	1	-2
432.785	1	2
432.956	1	6
433.126	1	0
433.297	1	3
433.468	1	8
433.638	1	6
433.809	1	-3
433.979	1	-12
434.150	1	3
434.320	1	2
434.491	1	3
434.662	1	-5
434.832	1	-1
435.003	1	0
435.173	1	-5
435.344	1	2
435.515	1	4
435.685	1	-1
435.856	1	-9
436.026	1	11
436.197	1	-4
436.368	1	3
436.538	1	-3
436.709	1	-2
436.879	1	-5
437.050	1	-2
437.220	1	0
437.391	1	10
437.562	1	11
437.732	1	6
437.903	1	5
438.073	1	-9
438.244	1	-12
438.414	1	3
438.585	1	4
438.756	1	9
438.926	1	0
439.097	1	3
439.267	1	1
439.438	1	-3
439.608	1	9
439.779	1	4
439.949	1	9
440.120	1	7
440.291	1	-2
440.461	1	-2
440.632	1	-1
440.802	1	2
440.973	1	4
441.143	1	-1
441.314	1	7
441.485	1	1
441.655	1	-3
441.826	1	-11
441.996	1	2
442.167	1	2
442.337	1	-7
442.508	1	1
442.678	1	10
442.849	1	3
443.019	1	17
443.190	1	2
443.361	1	11
443.531	1	-11
443.702	1	-1
443.872	1	-4
444.043	1	5
444.213	1	-11
444.384	1	9
444.554	1	8
444.725	1	3
444.895	1	5
445.066	1	3
445.237	1	2
445.407	1	-1
445.578	1	-2
445.748	1	6
445.919	1	-3
446.089	1	0
446.260	1	4
446.430	1	10
446.601	1	6
446.771	1	4
446.942	1	-8
447.112	1	-2
447.283	1	13
447.453	1	-3
447.624	1	1
447.794	1	0
447.965	1	10
448.135	1	3
448.306	1	1
448.477	1	-3
448.647	1	-8
448.818	1	-6
448.988	1	-2
449.159	1	8
449.329	1	3
449.500	1	-8
449.670	1	-1
449.841	1	6
450.011	1	9
450.182	1	-9
450.352	1	-9
450.523	1	-2
450.693	1	3
450.864	1	-5
451.034	1	9
451.205	1	-8
451.375	1	0
451.546	1	-6
451.716	1	2
451.887	1	-3
452.057	1	10
452.228	1	-2
452.398	1	15
452.569	1	-8
452.739	1	-8
452.910	1	1
453.080	1	9
453.251	1	1
453.421	1	-6
453.592	1	0
453.762	1	8
453.933	1	4
454.103	1	4
454.274	1	-12
454.444	1	9
454.615	1	-6
454.785	1	3
454.956	1	2
455.126	1	3
455.297	1	0
455.467	1	-5
455.638	1	3
455.808	1	0
455.979	1	1
456.149	1	3
456.320	1	-2
456.490	1	-4
456.661	1	10
456.831	1	7
457.001	1	13
457.172	1	3
457.342	1	3
457.513	1	5
457.683	1	-2
457.854	1	0
458.024	1	-15
458.195	1	-13
458.365	1	-6
458.536	1	1
458.706	1	11
458.877	1	2
459.047	1	11
459.218	1	2
459.388	1	3
459.559	1	-4
459.729	1	-2
459.899	1	-4
460.070	1	11
460.240	1	8
460.411	1	10
460.581	1	-3
460.752	1	8
460.922	1	-3
461.093	1	4
461.263	1	6
461.434	1	-5
461.604	1	8
461.775	1	9
461.945	1	-7
462.115	1	10
462.286	1	-4
462.456	1	-5
462.627	1	-7
462.797	1	-1
462.968	1	-9
463.138	1	7
463.309	1	4
463.479	1	-6
463.649	1	9
463.820	1	7
463.990	1	10
464.161	1	2
464.331	1	-4
464.502	1	6
464.672	1	2
464.843	1	3
465.013	1	4
465.183	1	2
465.354	1	-2
465.524	1	-10
465.695	1	4
465.865	1	2
466.036	1	6
466.206	1	5
466.376	1	5
466.547	1	2
466.717	1	-4
466.888	1	4
467.058	1	5
467.229	1	1
467.399	1	-1
467.569	1	1
467.740	1	5
467.910	1	4
468.081	1	0
468.251	1	4
468.422	1	18
468.592	1	0
468.762	1	-3
468.933	1	1
469.103	1	8
469.274	1	-3
469.444	1	7
469.614	1	-5
469.785	1	1
469.955	1	8
470.126	1	3
470.296	1	1
470.467	1	1
470.637	1	-7
470.807	1	-10
470.978	1	2
471.148	1	1
471.319	1	1
471.489	1	-3
471.659	1	10
471.830	1	-1
472.000	1	-6
472.171	1	-6
472.341	1	-3
472.511	1	8
472.682	1	2
472.852	1	-1
473.023	1	0
473.193	1	7
473.363	1	5
473.534	1	2
473.704	1	7
473.875	1	6
474.045	1	4
474.215	1	-6
474.386	1	2
474.556	1	4
474.727	1	2
474.897	1	0
475.067	1	5
475.238	1	-5
475.408	1	10
475.578	1	5
475.749	1	0
475.919	1	15
476.090	1	5
476.260	1	5
476.430	1	-14
476.601	1	5
476.771	1	1
476.942	1	-1
477.112	1	-2
477.282	1	-2
477.453	1	2
477.623	1	-6
477.793	1	-1
477.964	1	8
478.134	1	-4
478.305	1	-2
478.475	1	11
478.645	1	6
478.816	1	7
478.986	1	-9
479.156	1	2
479.327	1	3
479.497	1	2
479.667	1	-10
479.838	1	0
480.008	1	-11
480.179	1	12
480.349	1	1
480.519	1	8
480.690	1	-4
480.860	1	6
481.030	1	5
481.201	1	2
481.371	1	-14
481.541	1	0
481.712	1	3
481.882	1	1
482.053	1	-3
482.223	1	-1
482.393	1	0
482.564	1	2
482.734	1	9
482.904	1	11
483.075	1	5
483.245	1	-6
483.415	1	3
483.586	1	4
483.756	1	-1
483.926	1	7
484.097	1	-1
484.267	1	8
484.437	1	4
484.608	1	-6
484.778	1	6
484.948	1	-3
485.119	1	-5
485.289	1	0
485.459	1	-2
485.630	1	11
485.800	1	-6
485.970	1	3
486.141	1	1
486.311	1	8
486.481	1	4
486.652	1	6
486.822	1	-3
486.992	1	-10
487.163	1	-2
487.333	1	1
487.503	1	6
487.674	1	-3
487.844	1	3
488.014	1	1
488.185	1	2
488.355	1	14
488.525	1	2
488.696	1	3
488.866	1	-4
489.036	1	-8
489.207	1	12
489.377	1	4
489.547	1	-2
489.718	1	-4
489.888	1	1
490.058	1	15
490.228	1	-3
490.399	1	-1
490.569	1	-6
490.739	1	-7
490.910	1	-15
491.080	1	12
491.250	1	-1
491.421	1	2
491.591	1	3
491.761	1	8
491.932	1	6
492.102	1	3
492.272	1	-11
492.442	1	2
492.613	1	-3
492.783	1	2
492.953	1	6
493.124	1	6
493.294	1	7
493.464	1	-8
493.635	1	-5
493.805	1	7
493.975	1	7
494.145	1	2
494.316	1	5
494.486	1	11
494.656	1	-4
494.827	1	8
494.997	1	-1
495.167	1	6
495.337	1	8
495.508	1	8
495.678	1	4
495.848	1	0
496.019	1	1
496.189	1	-4
496.359	1	-4
496.529	1	3
496.700	1	4
496.870	1	7
497.040	1	-1
497.211	1	3
497.381	1	-5
497.551	1	5
497.721	1	6
497.892	1	4
498.062	1	-2
498.232	1	0
498.403	1	-2
498.573	1	13
498.743	1	12
498.913	1	-2
499.084	1	-1
499.254	1	-5
499.424	1	-6
499.594	1	-2
499.765	1	-4
499.935	1	5
500.105	1	-3
500.275	1	-3
500.446	1	-5
500.616	1	13
500.786	1	1
500.956	1	10
501.127	1	2
501.297	1	-3
501.467	1	4
501.638	1	9
501.808	1	10
501.978	1	-2
502.148	1	2
502.319	1	-1
502.489	1	1
502.659	1	-2
502.829	1	6
503.000	1	13
503.170	1	0
503.340	1	6
503.510	1	4
503.681	1	-2
503.851	1	-9
504.021	1	7
504.191	1	0
504.362	1	1
504.532	1	1
504.702	1	4
504.872	1	4
505.042	1	0
505.213	1	10
505.383	1	9
505.553	1	-7
505.723	1	8
505.894	1	-10
506.064	1	3
506.234	1	7
506.404	1	11
506.575	1	-3
506.745	1	-2
506.915	1	-12
507.085	1	6
507.256	1	4
507.426	1	0
507.596	1	-7
507.766	1	-5
507.936	1	-3
508.107	1	6
508.277	1	15
508.447	1	4
508.617	1	-9
508.788	1	-4
508.958	1	5
509.128	1	-1
509.298	1	7
509.468	1	13
509.639	1	-2
509.809	1	-3
509.979	1	3
510.149	1	8
510.319	1	8
510.490	1	-15
510.660	1	3
510.830	1	-6
511.000	1	3
511.171	1	6
511.341	1	-2
511.511	1	12
511.681	1	-9
511.851	1	-2
512.022	1	1
512.192	1	7
512.362	1	2
512.532	1	-2
512.702	1	8
512.873	1	1
513.043	1	11
513.213	1	12
513.383	1	-4
513.553	1	5
513.724	1	0
513.894	1	8
514.064	1	-8
514.234	1	5
514.404	1	3
514.575	1	-3
514.745	1	-4
514.915	1	-10
515.085	1	-6
515.255	1	-7
515.425	1	-6
515.596	1	8
515.766	1	1
515.936	1	4
516.106	1	3
516.276	1	10
516.447	1	0
516.617	1	-2
516.787	1	-3
516.957	1	-1
517.127	1	-9
517.297	1	-2
517.468	1	-2
517.638	1	0
517.808	1	-4
517.978	1	8
518.148	1	0
518.319	1	1
518.489	1	-1
518.659	1	-4
518.829	1	1
518.999	1	-3
519.169	1	-11
519.340	1	11
519.510	1	-4
519.680	1	4
519.850	1	17
520.020	1	1
520.190	1	-7
520.361	1	-3
520.531	1	14
520.701	1	-8
520.871	1	-1
521.041	1	1
521.211	1	-3
521.382	1	7
521.552	1	-1
521.722	1	-4
521.892	1	-3
522.062	1	3
522.232	1	3
522.402	1	0
522.573	1	-9
522.743	1	7
522.913	1	-3
523.083	1	12
523.253	1	3
523.423	1	2
523.593	1	-7
523.764	1	-11
523.934	1	4
524.104	1	-1
524.274	1	-8
524.444	1	4
524.614	1	6
524.784	1	-9
524.955	1	4
525.125	1	0
525.295	1	-1
525.465	1	-3
525.635	1	-2
525.805	1	7
525.975	1	3
526.146	1	6
526.316	1	-1
526.486	1	-3
526.656	1	-8
526.826	1	-6
526.996	1	-5
527.166	1	9
527.337	1	12
527.507	1	9
527.677	1	10
527.847	1	-13
528.017	1	7
528.187	1	-4
528.357	1	-4
528.527	1	-4
528.698	1	-4
528.868	1	3
529.038	1	0
529.208	1	4
529.378	1	6
529.548	1	-3
529.718	1	-9
529.888	1	6
530.058	1	8
530.229	1	-5
530.399	1	-5
530.569	1	5
530.739	1	12
530.909	1	-4
531.079	1	-5
531.249	1	5
531.419	1	-9
531.589	1	-12
531.760	1	7
531.930	1	3
532.100	1	0
532.270	1	4
532.440	1	1
532.610	1	1
532.780	1	-1
532.950	1	6
533.120	1	9
533.290	1	-13
533.461	1	-4
533.631	1	-8
533.801	1	1
533.971	1	2
534.141	1	5
534.311	1	1
534.481	1	2
534.651	1	-1
534.821	1	5
534.991	1	16
535.162	1	-6
535.332	1	-13
535.502	1	2
535.672	1	2
535.842	1	-2
536.012	1	3
536.182	1	4
536.352	1	4
536.522	1	-4
536.692	1	6
536.862	1	-4
537.032	1	8
537.203	1	7
537.373	1	-12
537.543	1	11
537.713	1	1
537.883	1	-3
538.053	1	-6
538.223	1	10
538.393	1	-1
538.563	1	4
538.733	1	2
538.903	1	0
539.073	1	13
539.243	1	0
539.413	1	4
539.584	1	0
539.754	1	-2
539.924	1	2
540.094	1	-3
540.264	1	-2
540.434	1	8
540.604	1	-2
540.774	1	1
540.944	1	12
541.114	1	1
541.284	1	-3
541.454	1	1
541.624	1	9
541.794	1	-1
541.964	1	-1
542.134	1	3
542.305	1	6
542.475	1	4
542.645	1	-6
542.815	1	7
542.985	1	8
543.155	1	-1
543.325	1	7
543.495	1	-4
543.665	1	1
543.835	1	6
544.005	1	8
544.175	1	-7
544.345	1	3
544.515	1	-7
544.685	1	9
544.855	1	-7
545.025	1	7
545.195	1	0
545.365	1	5
545.535	1	-3
545.705	1	0
545.875	1	2
546.045	1	-3
546.216	1	0
546.386	1	-2
546.556	1	5
546.726	1	1
546.896	1	11
547.066	1	-8
547.236	1	12
547.406	1	-5
547.576	1	-6
547.746	1	-7
547.916	1	4
548.086	1	-3
548.256	1	1
548.426	1	15
548.596	1	-1
548.766	1	6
548.936	1	6
549.106	1	-3
549.276	1	-4
549.446	1	7
549.616	1	-3
549.786	1	0
549.956	1	4
550.126	1	-5
550.296	1	8
550.466	1	-2
550.636	1	9
550.806	1	10
550.976	1	6
551.146	1	-2
551.316	1	-1
551.486	1	5
551.656	1	4
551.826	1	-7
551.996	1	1
552.166	1	-1
552.336	1	6
552.506	1	-8
552.676	1	7
552.846	1	-3
553.016	1	4
553.186	1	-14
553.356	1	-2
553.526	1	-9
553.696	1	-3
553.866	1	0
554.036	1	8
554.206	1	-6
554.376	1	4
554.546	1	4
554.716	1	0
554.886	1	-1
555.056	1	15
555.226	1	-7
555.396	1	3
555.566	1	-3
555.736	1	-4
555.906	1	-4
556.076	1	0
556.246	1	4
556.416	1	11
556.586	1	-2
556.756	1	5
556.926	1	-6
557.096	1	-5
557.266	1	4
557.436	1	5
557.606	1	1
557.776	1	1
557.946	1	11
558.116	1	4
558.286	1	9
558.456	1	2
558.626	1	-6
558.796	1	13
558.966	1	8
559.136	1	-8
559.306	1	2
559.476	1	-4
559.646	1	7
559.816	1	-4
559.986	1	1
560.155	1	-2
560.325	1	-3
560.495	1	5
560.665	1	5
560.835	1	0
561.005	1	9
561.175	1	-7
561.345	1	1
561.515	1	-6
561.685	1	3
561.855	1	-3
562.025	1	-1
562.195	1	9
562.365	1	0
562.535	1	4
562.705	1	7
562.875	1	-2
563.045	1	4
563.215	1	8
563.385	1	4
563.555	1	-7
563.725	1	1
563.895	1	-2
564.064	1	-11
564.234	1	0
564.404	1	7
564.574	1	9
564.744	1	6
564.914	1	-5
565.084	1	-4
565.254	1	7
565.424	1	-15
565.594	1	9
565.764	1	0
565.934	1	-2
566.104	1	-8
566.274	1	3
566.444	1	1
566.614	1	-11
566.783	1	9
566.953	1	-9
567.123	1	5
567.293	1	-1
567.463	1	-4
567.633	1	6
567.803	1	-2
567.973	1	1
568.143	1	6
568.313	1	12
568.483	1	6
568.653	1	5
568.823	1	-11
568.993	1	0
569.162	1	5
569.332	1	3
569.502	1	2
569.672	1	-9
569.842	1	8
570.012	1	16
570.182	1	12
570.352	1	4
570.522	1	5
570.692	1	3
570.862	1	5
571.031	1	-7
571.201	1	-4
571.371	1	1
571.541	1	6
571.711	1	1
571.881	1	6
572.051	1	-7
572.221	1	-4
572.391	1	-14
572.561	1	-5
572.731	1	5
572.900	1	1
573.070	1	0
573.240	1	5
573.410	1	3
573.580	1	-5
573.750	1	8
573.920	1	5
574.090	1	6
574.260	1	-9
574.430	1	1
574.599	1	8
574.769	1	5
574.939	1	-11
575.109	1	6
575.279	1	8
575.449	1	5
575.619	1	6
575.789	1	-5
575.959	1	5
576.128	1	1
576.298	1	8
576.468	1	-4
576.638	1	8
576.808	1	1
576.978	1	9
577.148	1	-4
577.318	1	9
577.487	1	1
577.657	1	2
577.827	1	-4
577.997	1	2
578.167	1	1
578.337	1	10
578.507	1	-1
578.677	1	5
578.846	1	-1
579.016	1	1
579.186	1	-8
579.356	1	-5
579.526	1	3
579.696	1	-3
579.866	1	-1
580.036	1	2
580.205	1	-1
580.375	1	10
580.545	1	-1
580.715	1	1
580.885	1	1
581.055	1	7
581.225	1	-2
581.394	1	-2
581.564	1	3
581.734	1	-4
581.904	1	-1
582.074	1	-10
582.244	1	10
582.414	1	6
582.583	1	1
582.753	1	-16
582.923	1	-3
583.093	1	13
583.263	1	0
583.433	1	-1
583.603	1	6
583.772	1	4
583.942	1	3
584.112	1	-3
584.282	1	6
584.452	1	1
584.622	1	1
584.791	1	-5
584.961	1	7
585.131	1	-2
585.301	1	5
585.471	1	-8
585.641	1	3
585.811	1	-3
585.980	1	-3
586.150	1	0
586.320	1	-3
586.490	1	-6
586.660	1	3
586.830	1	8
586.999	1	4
587.169	1	-7
587.339	1	6
587.509	1	1
587.679	1	6
587.849	1	3
588.018	1	0
588.188	1	5
588.358	1	8
588.528	1	5
588.698	1	7
588.867	1	5
589.037	1	7
589.207	1	0
589.377	1	0
589.547	1	-8
589.717	1	1
589.886	1	2
590.056	1	5
590.226	1	5
590.396	1	10
590.566	1	4
590.735	1	-3
590.905	1	2
591.075	1	-11
591.245	1	5
591.415	1	-1
591.585	1	1
591.754	1	-6
591.924	1	-3
592.094	1	-11
592.264	1	-2
592.434	1	3
592.603	1	-6
592.773	1	8
592.943	1	0
593.113	1	8
593.283	1	12
593.452	1	3
593.622	1	1
593.792	1	0
593.962	1	-8
594.132	1	3
594.301	1	-4
594.471	1	2
594.641	1	6
594.811	1	6
594.981	1	3
595.150	1	4
595.320	1	3
595.490	1	8
595.660	1	-11
595.829	1	2
595.999	1	-11
596.169	1	-8
596.339	1	10
596.509	1	3
596.678	1	12
596.848	1	5
597.018	1	2
597.188	1	2
597.358	1	9
597.527	1	9
597.697	1	2
597.867	1	6
598.037	1	-12
598.206	1	-2
598.376	1	0
598.546	1	0
598.716	1	5
598.885	1	2
599.055	1	10
599.225	1	-10
599.395	1	7
599.565	1	0
599.734	1	-2
599.904	1	-1
600.074	1	6
600.244	1	2
600.413	1	7
600.583	1	13
600.753	1	1
600.923	1	5
601.092	1	-2
601.262	1	3
601.432	1	-12
601.602	1	6
601.771	1	5
601.941	1	4
602.111	1	-10
602.281	1	5
602.451	1	12
602.620	1	0
602.790	1	-11
602.960	1	9
603.130	1	2
603.299	1	5
603.469	1	-2
603.639	1	-8
603.809	1	-4
603.978	1	8
604.148	1	0
604.318	1	0
604.487	1	2
604.657	1	2
604.827	1	8
604.997	1	1
605.166	1	6
605.336	1	9
605.506	1	8
605.676	1	-2
605.845	1	6
606.015	1	7
606.185	1	4
606.355	1	5
606.524	1	-6
606.694	1	4
606.864	1	-6
607.034	1	2
607.203	1	1
607.373	1	2
607.543	1	1
607.712	1	-2
607.882	1	12
608.052	1	2
608.222	1	-7
608.391	1	4
608.561	1	-2
608.731	1	-1
608.901	1	-3
609.070	1	-6
609.240	1	4
609.410	1	11
609.579	1	-5
609.749	1	-1
609.919	1	2
610.089	1	0
610.258	1	0
610.428	1	-1
610.598	1	2
610.767	1	-5
610.937	1	0
611.107	1	2
611.277	1	1
611.446	1	6
611.616	1	-1
611.786	1	4
611.955	1	-8
612.125	1	17
612.295	1	2
612.465	1	7
612.634	1	1
612.804	1	10
612.974	1	-1
613.143	1	-2
613.313	1	-6
613.483	1	-8
613.652	1	0
613.822	1	5
613.992	1	7
614.162	1	11
614.331	1	-5
614.501	1	3
614.671	1	6
614.840	1	12
615.010	1	3
615.180	1	2
615.349	1	1
615.519	1	0
615.689	1	10
615.858	1	-3
616.028	1	-2
616.198	1	3
616.368	1	11
616.537	1	3
616.707	1	2
616.877	1	-10
617.046	1	-6
617.216	1	2
617.386	1	-5
617.555	1	12
617.725	1	-1
617.895	1	16
618.064	1	7
618.234	1	-1
618.404	1	9
618.573	1	10
618.743	1	-13
618.913	1	6
619.082	1	12
619.252	1	-1
619.422	1	11
619.591	1	13
619.761	1	12
619.931	1	-16
620.100	1	3
620.270	1	-12
620.440	1	12
620.609	1	7
620.779	1	4
620.949	1	9
621.118	1	3
621.288	1	-1
621.458	1	-6
621.627	1	7
621.797	1	0
621.967	1	0
622.136	1	-7
622.306	1	8
622.476	1	5
622.645	1	12
622.815	1	0
622.985	1	-10
623.154	1	2
623.324	1	7
623.494	1	-1
623.663	1	2
623.833	1	7
624.002	1	-2
624.172	1	5
624.342	1	-5
624.511	1	8
624.681	1	-3
624.851	1	6
625.020	1	10
625.190	1	2
625.360	1	-1
625.529	1	2
625.699	1	1
625.869	1	-7
626.038	1	1
626.208	1	4
626.377	1	10
626.547	1	-6
626.717	1	-7
626.886	1	1
627.056	1	-2
627.226	1	6
627.395	1	10
627.565	1	-1
627.735	1	3
627.904	1	-1
628.074	1	5
628.243	1	-12
628.413	1	-2
628.583	1	11
628.752	1	3
628.922	1	5
629.091	1	-8
629.261	1	-8
629.431	1	-5
629.600	1	6
629.770	1	-2
629.940	1	7
630.109	1	9
630.279	1	-3
630.448	1	7
630.618	1	-12
630.788	1	5
630.957	1	8
631.127	1	8
631.297	1	-7
631.466	1	9
631.636	1	8
631.805	1	1
631.975	1	7
632.145	1	2
632.314	1	-3
632.484	1	2
632.653	1	6
632.823	1	0
632.993	1	12
633.162	1	3
633.332	1	5
633.501	1	2
633.671	1	3
633.841	1	5
634.010	1	13
634.180	1	-3
634.349	1	-3
634.519	1	2
634.689	1	4
634.858	1	7
635.028	1	2
635.197	1	-7
635.367	1	0
635.537	1	5
635.706	1	0
635.876	1	-9
636.045	1	9
636.215	1	-2
636.384	1	13
636.554	1	8
636.724	1	-1
636.893	1	6
637.063	1	-11
637.232	1	7
637.402	1	-2
637.572	1	7
637.741	1	10
637.911	1	-1
638.080	1	5
638.250	1	2
638.419	1	6
638.589	1	-5
638.759	1	0
638.928	1	1
639.098	1	12
639.267	1	0
639.437	1	-8
639.606	1	1
639.776	1	5
639.946	1	-10
640.115	1	-14
640.285	1	-7
640.454	1	4
640.624	1	0
640.793	1	-1
640.963	1	3
641.132	1	-9
641.302	1	4
641.472	1	-6
641.641	1	-2
641.811	1	5
641.980	1	-5
642.150	1	-1
642.319	1	-1
642.489	1	-7
642.659	1	3
642.828	1	-1
642.998	1	-2
643.167	1	-2
643.337	1	-1
643.506	1	-2
643.676	1	0
643.845	1	-4
644.015	1	-11
644.184	1	-3
644.354	1	-5
644.524	1	-2
644.693	1	-2
644.863	1	3
645.032	1	0
645.202	1	-11
645.371	1	8
645.541	1	-3
645.710	1	-2
645.880	1	9
646.049	1	-11
646.219	1	2
646.388	1	0
646.558	1	8
646.728	1	-4
646.897	1	8
647.067	1	-1
647.236	1	-4
647.406	1	5
647.575	1	4
647.745	1	8
647.914	1	-1
648.084	1	3
648.253	1	5
648.423	1	-3
648.592	1	-11
648.762	1	7
648.931	1	8
649.101	1	-10
649.270	1	-3
649.440	1	7
649.610	1	-6
649.779	1	11
649.949	1	-2
650.118	1	-4
650.288	1	-3
650.457	1	-8
650.627	1	-2
650.796	1	-7
650.966	1	1
651.135	1	1
651.305	1	5
651.474	1	15
651.644	1	-8
651.813	1	2
651.983	1	-11
652.152	1	5
652.322	1	1
652.491	1	2
652.661	1	-3
652.830	1	-3
653.000	1	1
653.169	1	-4
653.339	1	10
653.508	1	4
653.678	1	1
653.847	1	-8
654.017	1	4
654.186	1	5
654.356	1	0
654.525	1	-2
654.695	1	5
654.864	1	7
655.034	1	5
655.203	1	7
655.373	1	11
655.542	1	3
655.712	1	-5
655.881	1	11
656.051	1	5
656.220	1	1
656.390	1	7
656.559	1	-2
656.729	1	-9
656.898	1	-4
657.068	1	1
657.237	1	-5
657.406	1	-4
657.576	1	-2
657.745	1	8
657.915	1	5
658.084	1	-5
658.254	1	-7
658.423	1	-3
658.593	1	-3
658.762	1	-4
658.932	1	8
659.101	1	-5
659.271	1	7
659.440	1	4
659.610	1	5
659.779	1	-4
659.949	1	-7
660.118	1	1
660.288	1	-1
660.457	1	5
660.626	1	2
660.796	1	-2
660.965	1	-5
661.135	1	14
661.304	1	12
661.474	1	1
661.643	1	-8
661.813	1	-15
661.982	1	0
662.152	1	8
662.321	1	-3
662.491	1	2
662.660	1	3
662.829	1	3
662.999	1	1
663.168	1	-2
663.338	1	4
663.507	1	4
663.677	1	3
663.846	1	-15
664.016	1	11
664.185	1	3
664.354	1	-2
664.524	1	1
664.693	1	3
664.863	1	-1
665.032	1	-4
665.202	1	10
665.371	1	-7
665.541	1	-4
665.710	1	-4
665.879	1	7
666.049	1	0
666.218	1	-17
666.388	1	6
666.557	1	-7
666.727	1	-9
666.896	1	8
667.065	1	11
667.235	1	6
667.404	1	12
667.574	1	2
667.743	1	-3
667.913	1	7
668.082	1	13
668.251	1	7
668.421	1	10
668.590	1	-4
668.760	1	-1
668.929	1	5
669.099	1	0
669.268	1	4
669.437	1	7
669.607	1	3
669.776	1	4
669.946	1	2
670.115	1	6
670.285	1	-1
670.454	1	6
670.623	1	-5
670.793	1	3
670.962	1	0
671.132	1	8
671.301	1	2
671.470	1	7
671.640	1	0
671.809	1	-6
671.979	1	7
672.148	1	1
672.317	1	6
672.487	1	7
672.656	1	3
672.826	1	2
672.995	1	12
673.164	1	9
673.334	1	-4
673.503	1	4
673.673	1	-4
673.842	1	1
674.011	1	-1
674.181	1	3
674.350	1	6
674.520	1	-3
674.689	1	7
674.858	1	-7
675.028	1	3
675.197	1	3
675.367	1	-1
675.536	1	-2
675.705	1	-7
675.875	1	-4
676.044	1	5
676.214	1	7
676.383	1	19
676.552	1	4
676.722	1	4
676.891	1	0
677.060	1	17
677.230	1	-7
677.399	1	-1
677.569	1	-13
677.738	1	-13
677.907	1	-3
678.077	1	11
678.246	1	-9
678.416	1	2
678.585	1	-3
678.754	1	-1
678.924	1	10
679.093	1	0
679.262	1	-2
679.432	1	-10
679.601	1	13
679.771	1	6
679.940	1	4
680.109	1	0
680.279	1	1
680.448	1	-4
680.617	1	-8
680.787	1	-2
680.956	1	-3
681.125	1	2
681.295	1	-2
681.464	1	5
681.634	1	10
681.803	1	13
681.972	1	-3
682.142	1	-2
682.311	1	12
682.480	1	1
682.650	1	-3
682.819	1	2
682.988	1	0
683.158	1	5
683.327	1	6
683.496	1	3
683.666	1	2
683.835	1	-2
684.004	1	-1
684.174	1	-4
684.343	1	10
684.512	1	-8
684.682	1	-2
684.851	1	7
685.021	1	7
685.190	1	-7
685.359	1	0
685.529	1	-5
685.698	1	5
685.867	1	2
686.037	1	-5
686.206	1	4
686.375	1	1
686.545	1	-1
686.714	1	0
686.883	1	8
687.053	1	0
687.222	1	9
687.391	1	0
687.561	1	-1
687.730	1	10
687.899	1	-2
688.069	1	-2
688.238	1	-2
688.407	1	6
688.577	1	5
688.746	1	2
