340.368	1	5
340.539	1	14
340.710	1	4
340.881	1	1
341.052	1	-5
341.223	1	-1
341.394	1	-1
341.565	1	-3
341.737	1	0
341.908	1	-2
342.079	1	-2
342.250	1	1
342.421	1	-11
342.592	1	8
342.763	1	-8
342.934	1	2
343.105	1	-2
343.276	1	-6
343.447	1	8
343.618	1	-12
343.789	1	4
343.960	1	-2
344.131	1	-4
344.302	1	3
344.473	1	3
344.644	1	-2
344.815	1	-1
344.986	1	-10
345.157	1	4
345.328	1	-4
345.499	1	11
345.670	1	4
345.841	1	-6
346.012	1	1
346.183	1	-6
346.354	1	-2
346.526	1	1
346.697	1	-2
346.868	1	2
347.039	1	-1
347.210	1	-1
347.381	1	3
347.552	1	-3
347.723	1	-2
347.894	1	21
348.065	1	-1
348.236	1	-2
348.407	1	4
348.578	1	-12
348.749	1	-3
348.920	1	9
349.091	1	8
349.262	1	1
349.433	1	0
349.604	1	3
349.775	1	5
349.946	1	1
350.117	1	5
350.288	1	-4
350.459	1	-8
350.630	1	4
350.801	1	0
350.972	1	5
351.143	1	10
351.314	1	-11
351.485	1	0
351.656	1	3
351.827	1	7
351.998	1	-4
352.169	1	-5
352.340	1	2
352.511	1	9
352.682	1	-6
352.853	1	-9
353.024	1	2
353.195	1	4
353.366	1	4
353.537	1	7
353.708	1	6
353.879	1	0
354.050	1	8
354.221	1	1
354.392	1	2
354.563	1	-1
354.734	1	1
354.905	1	9
355.076	1	0
355.247	1	1
355.418	1	8
355.589	1	-4
355.760	1	-6
355.931	1	-14
356.102	1	-3
356.273	1	0
356.444	1	-14
356.615	1	9
356.785	1	-1
356.956	1	5
357.127	1	-6
357.298	1	1
357.469	1	0
357.640	1	6
357.811	1	6
357.982	1	0
358.153	1	4
358.324	1	8
358.495	1	-10
358.666	1	-5
358.837	1	2
359.008	1	1
359.179	1	-8
359.350	1	0
359.521	1	1
359.692	1	7
359.863	1	4
360.034	1	12
360.205	1	8
360.376	1	3
360.547	1	6
360.718	1	-6
360.889	1	9
361.060	1	1
361.231	1	-10
361.401	1	3
361.572	1	9
361.743	1	-7
361.914	1	9
362.085	1	-1
362.256	1	2
362.427	1	3
362.598	1	4
362.769	1	6
362.940	1	3
363.111	1	-5
363.282	1	-2
363.453	1	8
363.624	1	-5
363.795	1	-3
363.966	1	-1
364.137	1	2
364.308	1	3
364.478	1	-3
364.649	1	3
364.820	1	8
364.991	1	-1
365.162	1	-3
365.333	1	3
365.504	1	5
365.675	1	1
365.846	1	8
366.017	1	6
366.188	1	-4
366.359	1	0
366.530	1	-10
366.701	1	1
366.871	1	6
367.042	1	10
367.213	1	10
367.384	1	-5
367.555	1	10
367.726	1	4
367.897	1	13
368.068	1	6
368.239	1	-2
368.410	1	1
368.581	1	-6
368.752	1	-2
368.923	1	7
369.093	1	-3
369.264	1	-3
369.435	1	3
369.606	1	0
369.777	1	4
369.948	1	1
370.119	1	-7
370.290	1	2
370.461	1	15
370.632	1	-5
370.803	1	-3
370.973	1	0
371.144	1	0
371.315	1	7
371.486	1	-4
371.657	1	4
371.828	1	-6
371.999	1	-1
372.170	1	-8
372.341	1	13
372.512	1	-18
372.682	1	9
372.853	1	-1
373.024	1	9
373.195	1	-2
373.366	1	4
373.537	1	-2
373.708	1	5
373.879	1	-2
374.050	1	-4
374.220	1	3
374.391	1	-1
374.562	1	-6
374.733	1	-6
374.904	1	-1
375.075	1	6
375.246	1	10
375.417	1	-11
375.588	1	1
375.758	1	-6
375.929	1	6
376.100	1	3
376.271	1	-1
376.442	1	-5
376.613	1	0
376.784	1	-1
376.955	1	-1
377.125	1	-5
377.296	1	-2
377.467	1	-4
377.638	1	-2
377.809	1	1
377.980	1	5
378.151	1	1
378.321	1	0
378.492	1	-4
378.663	1	9
378.834	1	-7
379.005	1	-2
379.176	1	2
379.347	1	5
379.518	1	4
379.688	1	-2
379.859	1	-14
380.030	1	0
380.201	1	-1
380.372	1	0
380.543	1	-1
380.714	1	8
380.884	1	-8
381.055	1	4
381.226	1	2
381.397	1	-6
381.568	1	-5
381.739	1	2
381.910	1	3
382.080	1	5
382.251	1	-7
382.422	1	-4
382.593	1	3
382.764	1	-7
382.935	1	-8
383.105	1	-6
383.276	1	21
383.447	1	7
383.618	1	6
383.789	1	2
383.960	1	3
384.130	1	-6
384.301	1	5
384.472	1	-5
384.643	1	1
384.814	1	0
384.985	1	-2
385.156	1	-1
385.326	1	-4
385.497	1	9
385.668	1	5
385.839	1	1
386.010	1	10
386.180	1	8
386.351	1	2
386.522	1	3
386.693	1	-10
386.864	1	-2
387.035	1	2
387.205	1	5
387.376	1	-7
387.547	1	8
387.718	1	-8
387.889	1	2
388.060	1	6
388.230	1	7
388.401	1	16
388.572	1	0
388.743	1	9
388.914	1	-1
389.084	1	-1
389.255	1	-4
389.426	1	2
389.597	1	13
389.768	1	9
389.939	1	-4
390.109	1	-11
390.280	1	-4
390.451	1	9
390.622	1	2
390.793	1	2
390.963	1	10
391.134	1	2
391.305	1	1
391.476	1	-7
391.647	1	-6
391.817	1	-7
391.988	1	-1
392.159	1	2
392.330	1	-4
392.501	1	-9
392.671	1	-3
392.842	1	-7
393.013	1	-1
393.184	1	2
393.355	1	6
393.525	1	3
393.696	1	-2
393.867	1	-5
394.038	1	4
394.208	1	9
394.379	1	1
394.550	1	-9
394.721	1	10
394.892	1	3
395.062	1	-3
395.233	1	15
395.404	1	-9
395.575	1	5
395.746	1	-7
395.916	1	2
396.087	1	2
396.258	1	9
396.429	1	6
396.599	1	-7
396.770	1	-9
396.941	1	0
397.112	1	7
397.283	1	2
397.453	1	1
397.624	1	0
397.795	1	12
397.966	1	1
398.136	1	8
398.307	1	-2
398.478	1	4
398.649	1	-1
398.819	1	-2
398.990	1	-1
399.161	1	3
399.332	1	-3
399.503	1	-3
399.673	1	10
399.844	1	0
400.015	1	4
400.186	1	5
400.356	1	12
400.527	1	-9
400.698	1	11
400.869	1	-6
401.039	1	6
401.210	1	6
401.381	1	2
401.552	1	5
401.722	1	-4
401.893	1	0
402.064	1	6
402.235	1	-2
402.405	1	0
402.576	1	-8
402.747	1	6
402.918	1	0
403.088	1	-6
403.259	1	2
403.430	1	-7
403.601	1	-4
403.771	1	4
403.942	1	0
404.113	1	1
404.284	1	5
404.454	1	-5
404.625	1	-5
404.796	1	-8
404.967	1	6
405.137	1	-2
405.308	1	-5
405.479	1	5
405.649	1	15
405.820	1	4
405.991	1	4
406.162	1	-2
406.332	1	-3
406.503	1	1
406.674	1	0
406.845	1	2
407.015	1	-3
407.186	1	3
407.357	1	10
407.527	1	-1
407.698	1	3
407.869	1	-8
408.040	1	3
408.210	1	12
408.381	1	0
408.552	1	-2
408.722	1	11
408.893	1	-1
409.064	1	-3
409.235	1	2
409.405	1	3
409.576	1	2
409.747	1	3
409.917	1	4
410.088	1	4
410.259	1	0
410.430	1	-5
410.600	1	7
410.771	1	-3
410.942	1	-1
411.112	1	-5
411.283	1	0
411.454	1	0
411.625	1	3
411.795	1	13
411.966	1	1
412.137	1	1
412.307	1	-14
412.478	1	-4
412.649	1	-4
412.819	1	12
412.990	1	4
413.161	1	5
413.332	1	9
413.502	1	5
413.673	1	2
413.844	1	-10
414.014	1	2
414.185	1	-8
414.356	1	-1
414.526	1	0
414.697	1	1
414.868	1	-7
415.038	1	8
415.209	1	7
415.380	1	2
415.550	1	6
415.721	1	8
415.892	1	-4
416.063	1	-9
416.233	1	11
416.404	1	-10
416.575	1	5
416.745	1	4
416.916	1	4
417.087	1	2
417.257	1	-4
417.428	1	-9
417.599	1	-11
417.769	1	8
417.940	1	0
418.111	1	2
418.281	1	6
418.452	1	-3
418.623	1	2
418.793	1	5
418.964	1	-15
419.135	1	10
419.305	1	6
419.476	1	-9
419.647	1	-6
419.817	1	0
419.988	1	-3
420.159	1	24
420.329	1	-3
420.500	1	-2
420.671	1	9
420.841	1	6
421.012	1	6
421.183	1	-4
421.353	1	-7
421.524	1	9
421.695	1	-3
421.865	1	13
422.036	1	9
422.206	1	2
422.377	1	-7
422.548	1	-10
422.718	1	-2
422.889	1	3
423.060	1	-1
423.230	1	9
423.401	1	0
423.572	1	1
423.742	1	3
423.913	1	4
424.084	1	6
424.254	1	3
424.425	1	2
424.595	1	3
424.766	1	1
424.937	1	-1
425.107	1	3
425.278	1	0
425.449	1	-3
425.619	1	13
425.790	1	0
425.961	1	9
426.131	1	-4
426.302	1	3
426.472	1	-1
426.643	1	-9
426.814	1	1
426.984	1	8
427.155	1	7
427.326	1	5
427.496	1	-1
427.667	1	-3
427.837	1	-1
428.008	1	8
428.179	1	3
428.349	1	-12
428.520	1	-11
428.691	1	1
428.861	1	-5
429.032	1	-3
429.202	1	3
429.373	1	0
429.544	1	4
429.714	1	12
429.885	1	-9
430.055	1	3
430.226	1	8
430.397	1	14
430.567	1	-5
430.738	1	-1
430.909	1	0
431.079	1	4
431.250	1	1
431.420	1	-4
431.591	1	3
431.762	1	1
431.932	1	-11
432.103	1	-3
432.273	1	10
432.444	1	0
432.615	1	-8
432.785	1	6
432.956	1	-3
433.126	1	1
433.297	1	-5
433.468	1	10
433.638	1	3
433.809	1	6
433.979	1	-8
434.150	1	9
434.320	1	-6
434.491	1	-3
434.662	1	5
434.832	1	-8
435.003	1	-1
435.173	1	-2
435.344	1	-2
435.515	1	2
435.685	1	-1
435.856	1	-3
436.026	1	10
436.197	1	1
436.368	1	6
436.538	1	-1
436.709	1	-2
436.879	1	-1
437.050	1	1
437.220	1	-5
437.391	1	-1
437.562	1	11
437.732	1	8
437.903	1	3
438.073	1	-16
438.244	1	-10
438.414	1	1
438.585	1	5
438.756	1	-1
438.926	1	2
439.097	1	6
439.267	1	3
439.438	1	11
439.608	1	4
439.779	1	3
439.949	1	8
440.120	1	8
440.291	1	0
440.461	1	-3
440.632	1	1
440.802	1	2
440.973	1	15
441.143	1	5
441.314	1	12
441.485	1	1
441.655	1	-5
441.826	1	-4
441.996	1	10
442.167	1	-5
442.337	1	-6
442.508	1	5
442.678	1	3
442.849	1	2
443.019	1	5
443.190	1	0
443.361	1	2
443.531	1	-10
443.702	1	-5
443.872	1	2
444.043	1	3
444.213	1	-3
444.384	1	9
444.554	1	4
444.725	1	-1
444.895	1	2
445.066	1	-3
445.237	1	3
445.407	1	2
445.578	1	1
445.748	1	12
445.919	1	-1
446.089	1	7
446.260	1	0
446.430	1	9
446.601	1	0
446.771	1	5
446.942	1	-2
447.112	1	-6
447.283	1	2
447.453	1	6
447.624	1	4
447.794	1	7
447.965	1	-3
448.135	1	-5
448.306	1	4
448.477	1	0
448.647	1	-2
448.818	1	-2
448.988	1	2
449.159	1	7
449.329	1	6
449.500	1	-12
449.670	1	-14
449.841	1	-2
450.011	1	0
450.182	1	-9
450.352	1	-2
450.523	1	1
450.693	1	6
450.864	1	-7
451.034	1	14
451.205	1	-11
451.375	1	-4
451.546	1	-3
451.716	1	-2
451.887	1	4
452.057	1	1
452.228	1	3
452.398	1	10
452.569	1	-13
452.739	1	4
452.910	1	-6
453.080	1	3
453.251	1	-6
453.421	1	-1
453.592	1	-2
453.762	1	12
453.933	1	1
454.103	1	4
454.274	1	-11
454.444	1	0
454.615	1	-5
454.785	1	-6
454.956	1	3
455.126	1	-1
455.297	1	-6
455.467	1	1
455.638	1	-5
455.808	1	3
455.979	1	7
456.149	1	1
456.320	1	6
456.490	1	-4
456.661	1	6
456.831	1	0
457.001	1	13
457.172	1	4
457.342	1	1
457.513	1	6
457.683	1	-12
457.854	1	-3
458.024	1	-9
458.195	1	-6
458.365	1	-12
458.536	1	-3
458.706	1	12
458.877	1	2
459.047	1	8
459.218	1	9
459.388	1	10
459.559	1	-1
459.729	1	-3
459.899	1	-5
460.070	1	5
460.240	1	6
460.411	1	2
460.581	1	-2
460.752	1	8
460.922	1	-7
461.093	1	1
461.263	1	4
461.434	1	-3
461.604	1	2
461.775	1	6
461.945	1	-8
462.115	1	8
462.286	1	0
462.456	1	3
462.627	1	-9
462.797	1	10
462.968	1	-1
463.138	1	-1
463.309	1	9
463.479	1	-7
463.649	1	10
463.820	1	-1
463.990	1	4
464.161	1	1
464.331	1	-11
464.502	1	10
464.672	1	8
464.843	1	7
465.013	1	10
465.183	1	-1
465.354	1	8
465.524	1	4
465.695	1	1
465.865	1	-2
466.036	1	5
466.206	1	1
466.376	1	5
466.547	1	0
466.717	1	0
466.888	1	10
467.058	1	5
467.229	1	3
467.399	1	-3
467.569	1	-7
467.740	1	-6
467.910	1	2
468.081	1	7
468.251	1	5
468.422	1	3
468.592	1	3
468.762	1	-11
468.933	1	-6
469.103	1	-7
469.274	1	4
469.444	1	2
469.614	1	3
469.785	1	0
469.955	1	8
470.126	1	4
470.296	1	7
470.467	1	-6
470.637	1	-9
470.807	1	3
470.978	1	10
471.148	1	-9
471.319	1	3
471.489	1	8
471.659	1	12
471.830	1	1
472.000	1	-9
472.171	1	1
472.341	1	-4
472.511	1	2
472.682	1	-2
472.852	1	-1
473.023	1	2
473.193	1	5
473.363	1	3
473.534	1	5
473.704	1	0
473.875	1	6
474.045	1	0
474.215	1	-3
474.386	1	-5
474.556	1	13
474.727	1	4
474.897	1	1
475.067	1	11
475.238	1	5
475.408	1	8
475.578	1	3
475.749	1	3
475.919	1	11
476.090	1	-4
476.260	1	13
476.430	1	-9
476.601	1	6
476.771	1	8
476.942	1	2
477.112	1	-5
477.282	1	6
477.453	1	-3
477.623	1	-6
477.793	1	-1
477.964	1	0
478.134	1	-8
478.305	1	5
478.475	1	5
478.645	1	-2
478.816	1	4
478.986	1	-7
479.156	1	1
479.327	1	4
479.497	1	-7
479.667	1	3
479.838	1	0
480.008	1	-3
480.179	1	1
480.349	1	0
480.519	1	5
480.690	1	0
480.860	1	4
481.030	1	-7
481.201	1	7
481.371	1	1
481.541	1	7
481.712	1	9
481.882	1	2
482.053	1	4
482.223	1	-14
482.393	1	-4
482.564	1	-6
482.734	1	9
482.904	1	8
483.075	1	7
483.245	1	5
483.415	1	4
483.586	1	12
483.756	1	6
483.926	1	1
484.097	1	0
484.267	1	8
484.437	1	2
484.608	1	-5
484.778	1	5
484.948	1	2
485.119	1	-4
485.289	1	2
485.459	1	9
485.630	1	10
485.800	1	-4
485.970	1	0
486.141	1	-1
486.311	1	-9
486.481	1	3
486.652	1	9
486.822	1	-4
486.992	1	2
487.163	1	-3
487.333	1	-7
487.503	1	-6
487.674	1	-2
487.844	1	6
488.014	1	-1
488.185	1	2
488.355	1	7
488.525	1	5
488.696	1	1
488.866	1	-5
489.036	1	9
489.207	1	10
489.377	1	-3
489.547	1	-4
489.718	1	-6
489.888	1	11
490.058	1	-8
490.228	1	-4
490.399	1	-2
490.569	1	5
490.739	1	5
490.910	1	7
491.080	1	8
491.250	1	2
491.421	1	-1
491.591	1	-3
491.761	1	1
491.932	1	4
492.102	1	-3
492.272	1	-12
492.442	1	5
492.613	1	7
492.783	1	-4
492.953	1	8
493.124	1	7
493.294	1	11
493.464	1	-1
493.635	1	3
493.805	1	2
493.975	1	8
494.145	1	-10
494.316	1	-6
494.486	1	11
494.656	1	7
494.827	1	6
494.997	1	-5
495.167	1	5
495.337	1	-6
495.508	1	10
495.678	1	3
495.848	1	-5
496.019	1	0
496.189	1	6
496.359	1	-11
496.529	1	0
496.700	1	6
496.870	1	4
497.040	1	0
497.211	1	-2
497.381	1	-3
497.551	1	6
497.721	1	1
497.892	1	5
498.062	1	-8
498.232	1	2
498.403	1	8
498.573	1	3
498.743	1	8
498.913	1	-8
499.084	1	-2
499.254	1	-3
499.424	1	7
499.594	1	4
499.765	1	-10
499.935	1	-1
500.105	1	0
500.275	1	-7
500.446	1	6
500.616	1	6
500.786	1	-7
500.956	1	9
501.127	1	2
501.297	1	-2
501.467	1	0
501.638	1	1
501.808	1	8
501.978	1	2
502.148	1	-1
502.319	1	-3
502.489	1	5
502.659	1	-4
502.829	1	-1
503.000	1	13
503.170	1	2
503.340	1	14
503.510	1	5
503.681	1	-6
503.851	1	-3
504.021	1	10
504.191	1	-2
504.362	1	-1
504.532	1	8
504.702	1	3
504.872	1	3
505.042	1	4
505.213	1	7
505.383	1	2
505.553	1	-5
505.723	1	5
505.894	1	-4
506.064	1	2
506.234	1	-11
506.404	1	3
506.575	1	-8
506.745	1	10
506.915	1	-13
507.085	1	3
507.256	1	1
507.426	1	1
507.596	1	-9
507.766	1	4
507.936	1	-1
508.107	1	4
508.277	1	7
508.447	1	16
508.617	1	-3
508.788	1	-7
508.958	1	1
509.128	1	-3
509.298	1	-3
509.468	1	8
509.639	1	2
509.809	1	4
509.979	1	4
510.149	1	5
510.319	1	12
510.490	1	0
510.660	1	-3
510.830	1	1
511.000	1	-7
511.171	1	16
511.341	1	2
511.511	1	9
511.681	1	1
511.851	1	-4
512.022	1	-10
512.192	1	9
512.362	1	7
512.532	1	4
512.702	1	3
512.873	1	-3
513.043	1	-8
513.213	1	10
513.383	1	-1
513.553	1	2
513.724	1	8
513.894	1	10
514.064	1	3
514.234	1	10
514.404	1	8
514.575	1	4
514.745	1	-5
514.915	1	-5
515.085	1	4
515.255	1	-8
515.425	1	9
515.596	1	1
515.766	1	-8
515.936	1	-2
516.106	1	6
516.276	1	8
516.447	1	-1
516.617	1	-7
516.787	1	-7
516.957	1	-4
517.127	1	-2
517.297	1	-3
517.468	1	3
517.638	1	-8
517.808	1	-1
517.978	1	-3
518.148	1	0
518.319	1	-1
518.489	1	-2
518.659	1	-12
518.829	1	10
518.999	1	-1
519.169	1	-4
519.340	1	-6
519.510	1	-1
519.680	1	-10
519.850	1	6
520.020	1	6
520.190	1	-2
520.361	1	-7
520.531	1	16
520.701	1	-8
520.871	1	-1
521.041	1	-2
521.211	1	-5
521.382	1	-1
521.552	1	-1
521.722	1	-2
521.892	1	-1
522.062	1	2
522.232	1	1
522.402	1	6
522.573	1	-1
522.743	1	0
522.913	1	-5
523.083	1	6
523.253	1	-2
523.423	1	3
523.593	1	-16
523.764	1	-3
523.934	1	-2
524.104	1	0
524.274	1	0
524.444	1	5
524.614	1	1
524.784	1	-16
524.955	1	-10
525.125	1	-1
525.295	1	-2
525.465	1	-8
525.635	1	1
525.805	1	13
525.975	1	-2
526.146	1	-8
526.316	1	-4
526.486	1	-6
526.656	1	-2
526.826	1	-2
526.996	1	-3
527.166	1	7
527.337	1	4
527.507	1	11
527.677	1	-4
527.847	1	-17
528.017	1	-4
528.187	1	-2
528.357	1	-10
528.527	1	-6
528.698	1	-4
528.868	1	3
529.038	1	1
529.208	1	1
529.378	1	3
529.548	1	-7
529.718	1	-5
529.888	1	0
530.058	1	6
530.229	1	1
530.399	1	-4
530.569	1	10
530.739	1	0
530.909	1	-3
531.079	1	3
531.249	1	1
531.419	1	-10
531.589	1	4
531.760	1	-5
531.930	1	8
532.100	1	9
532.270	1	7
532.440	1	14
532.610	1	5
532.780	1	3
532.950	1	-3
533.120	1	-2
533.290	1	-2
533.461	1	-4
533.631	1	-7
533.801	1	0
533.971	1	9
534.141	1	9
534.311	1	6
534.481	1	-4
534.651	1	-8
534.821	1	1
534.991	1	4
535.162	1	-6
535.332	1	-2
535.502	1	1
535.672	1	2
535.842	1	-5
536.012	1	8
536.182	1	1
536.352	1	-7
536.522	1	1
536.692	1	5
536.862	1	-11
537.032	1	5
537.203	1	5
537.373	1	-14
537.543	1	13
537.713	1	1
537.883	1	-7
538.053	1	-1
538.223	1	12
538.393	1	4
538.563	1	-1
538.733	1	-8
538.903	1	1
539.073	1	13
539.243	1	-5
539.413	1	4
539.584	1	-2
539.754	1	-5
539.924	1	-8
540.094	1	6
540.264	1	-9
540.434	1	-5
540.604	1	-9
540.774	1	2
540.944	1	7
541.114	1	-4
541.284	1	8
541.454	1	-2
541.624	1	2
541.794	1	-3
541.964	1	-1
542.134	1	1
542.305	1	6
542.475	1	-2
542.645	1	2
542.815	1	4
542.985	1	6
543.155	1	4
543.325	1	6
543.495	1	3
543.665	1	-2
543.835	1	7
544.005	1	0
544.175	1	5
544.345	1	11
544.515	1	-6
544.685	1	1
544.855	1	-3
545.025	1	7
545.195	1	-3
545.365	1	3
545.535	1	-3
545.705	1	4
545.875	1	2
546.045	1	-10
546.216	1	-8
546.386	1	-1
546.556	1	12
546.726	1	-3
546.896	1	6
547.066	1	-6
547.236	1	4
547.406	1	3
547.576	1	-5
547.746	1	-4
547.916	1	3
548.086	1	-3
548.256	1	1
548.426	1	8
548.596	1	7
548.766	1	-1
548.936	1	0
549.106	1	2
549.276	1	0
549.446	1	2
549.616	1	-4
549.786	1	5
549.956	1	10
550.126	1	-6
550.296	1	4
550.466	1	3
550.636	1	7
550.806	1	7
550.976	1	2
551.146	1	2
551.316	1	-3
551.486	1	9
551.656	1	1
551.826	1	1
551.996	1	5
552.166	1	-1
552.336	1	12
552.506	1	-9
552.676	1	8
552.846	1	-2
553.016	1	7
553.186	1	-6
553.356	1	-8
553.526	1	1
553.696	1	-10
553.866	1	-1
554.036	1	8
554.206	1	-3
554.376	1	4
554.546	1	-2
554.716	1	-1
554.886	1	-2
555.056	1	0
555.226	1	-9
555.396	1	8
555.566	1	-4
555.736	1	-17
555.906	1	7
556.076	1	-3
556.246	1	1
556.416	1	-10
556.586	1	-9
556.756	1	8
556.926	1	2
557.096	1	-12
557.266	1	7
557.436	1	0
557.606	1	-6
557.776	1	9
557.946	1	-1
558.116	1	15
558.286	1	2
558.456	1	0
558.626	1	-10
558.796	1	11
558.966	1	5
559.136	1	6
559.306	1	3
559.476	1	-8
559.646	1	-8
559.816	1	-5
559.986	1	4
560.155	1	12
560.325	1	-2
560.495	1	2
560.665	1	-2
560.835	1	4
561.005	1	4
561.175	1	-5
561.345	1	4
561.515	1	0
561.685	1	-6
561.855	1	9
562.025	1	2
562.195	1	22
562.365	1	3
562.535	1	0
562.705	1	3
562.875	1	1
563.045	1	5
563.215	1	3
563.385	1	10
563.555	1	0
563.725	1	4
563.895	1	6
564.064	1	-4
564.234	1	-2
564.404	1	5
564.574	1	7
564.744	1	-8
564.914	1	-5
565.084	1	10
565.254	1	12
565.424	1	-2
565.594	1	9
565.764	1	0
565.934	1	-3
566.104	1	-11
566.274	1	-1
566.444	1	7
566.614	1	2
566.783	1	6
566.953	1	-3
567.123	1	6
567.293	1	-11
567.463	1	2
567.633	1	6
567.803	1	-1
567.973	1	1
568.143	1	4
568.313	1	-4
568.483	1	1
568.653	1	1
568.823	1	-3
568.993	1	-1
569.162	1	10
569.332	1	4
569.502	1	0
569.672	1	4
569.842	1	-6
570.012	1	0
570.182	1	1
570.352	1	11
570.522	1	5
570.692	1	-1
570.862	1	-3
571.031	1	-3
571.201	1	1
571.371	1	-12
571.541	1	5
571.711	1	4
571.881	1	-2
572.051	1	-5
572.221	1	-3
572.391	1	-4
572.561	1	-13
572.731	1	0
572.900	1	8
573.070	1	-2
573.240	1	2
573.410	1	-1
573.580	1	-3
573.750	1	5
573.920	1	-3
574.090	1	7
574.260	1	-3
574.430	1	-1
574.599	1	15
574.769	1	5
574.939	1	-4
575.109	1	14
575.279	1	10
575.449	1	5
575.619	1	6
575.789	1	4
575.959	1	8
576.128	1	-2
576.298	1	-5
576.468	1	-7
576.638	1	0
576.808	1	-2
576.978	1	0
577.148	1	-7
577.318	1	4
577.487	1	4
577.657	1	5
577.827	1	2
577.997	1	2
578.167	1	0
578.337	1	13
578.507	1	-6
578.677	1	-6
578.846	1	-4
579.016	1	7
579.186	1	-2
579.356	1	8
579.526	1	4
579.696	1	-1
579.866	1	-7
580.036	1	6
580.205	1	8
580.375	1	14
580.545	1	-4
580.715	1	11
580.885	1	-6
581.055	1	7
581.225	1	13
581.394	1	5
581.564	1	-3
581.734	1	3
581.904	1	-3
582.074	1	-14
582.244	1	5
582.414	1	10
582.583	1	-2
582.753	1	-9
582.923	1	-9
583.093	1	11
583.263	1	-10
583.433	1	0
583.603	1	8
583.772	1	13
583.942	1	-2
584.112	1	-14
584.282	1	2
584.452	1	-1
584.622	1	-12
584.791	1	0
584.961	1	-1
585.131	1	3
585.301	1	6
585.471	1	-5
585.641	1	9
585.811	1	-8
585.980	1	1
586.150	1	-8
586.320	1	5
586.490	1	-3
586.660	1	-3
586.830	1	0
586.999	1	7
587.169	1	-7
587.339	1	0
587.509	1	5
587.679	1	0
587.849	1	10
588.018	1	8
588.188	1	8
588.358	1	4
588.528	1	5
588.698	1	6
588.867	1	5
589.037	1	9
589.207	1	0
589.377	1	-1
589.547	1	0
589.717	1	-7
589.886	1	6
590.056	1	8
590.226	1	7
590.396	1	5
590.566	1	9
590.735	1	-2
590.905	1	-4
591.075	1	-2
591.245	1	2
591.415	1	1
591.585	1	-8
591.754	1	3
591.924	1	-3
592.094	1	5
592.264	1	-8
592.434	1	-5
592.603	1	-12
592.773	1	9
592.943	1	-2
593.113	1	6
593.283	1	1
593.452	1	0
593.622	1	0
593.792	1	-4
593.962	1	3
594.132	1	3
594.301	1	-5
594.471	1	4
594.641	1	5
594.811	1	8
594.981	1	-3
595.150	1	2
595.320	1	-2
595.490	1	0
595.660	1	-5
595.829	1	3
595.999	1	-2
596.169	1	-9
596.339	1	6
596.509	1	0
596.678	1	7
596.848	1	0
597.018	1	3
597.188	1	5
597.358	1	2
597.527	1	14
597.697	1	-6
597.867	1	2
598.037	1	3
598.206	1	-2
598.376	1	7
598.546	1	2
598.716	1	12
598.885	1	4
599.055	1	3
599.225	1	-8
599.395	1	4
599.565	1	-8
599.734	1	0
599.904	1	0
600.074	1	6
600.244	1	-1
600.413	1	15
600.583	1	9
600.753	1	7
600.923	1	5
601.092	1	3
601.262	1	7
601.432	1	-5
601.602	1	18
601.771	1	4
601.941	1	2
602.111	1	-7
602.281	1	1
602.451	1	9
602.620	1	7
602.790	1	-5
602.960	1	10
603.130	1	2
603.299	1	4
603.469	1	-5
603.639	1	-13
603.809	1	3
603.978	1	3
604.148	1	-1
604.318	1	-3
604.487	1	5
604.657	1	12
604.827	1	0
604.997	1	-5
605.166	1	1
605.336	1	7
605.506	1	-1
605.676	1	0
605.845	1	6
606.015	1	6
606.185	1	5
606.355	1	0
606.524	1	-8
606.694	1	10
606.864	1	-9
607.034	1	-2
607.203	1	1
607.373	1	1
607.543	1	6
607.712	1	8
607.882	1	1
608.052	1	7
608.222	1	0
608.391	1	8
608.561	1	3
608.731	1	4
608.901	1	-9
609.070	1	2
609.240	1	4
609.410	1	4
609.579	1	-11
609.749	1	8
609.919	1	-1
610.089	1	6
610.258	1	-5
610.428	1	4
610.598	1	3
610.767	1	-9
610.937	1	-4
611.107	1	-2
611.277	1	1
611.446	1	5
611.616	1	0
611.786	1	6
611.955	1	-5
612.125	1	-4
612.295	1	4
612.465	1	3
612.634	1	3
612.804	1	4
612.974	1	6
613.143	1	-1
613.313	1	3
613.483	1	-8
613.652	1	-3
613.822	1	11
613.992	1	2
614.162	1	3
614.331	1	1
614.501	1	-5
614.671	1	-4
614.840	1	8
615.010	1	2
615.180	1	0
615.349	1	5
615.519	1	3
615.689	1	-4
615.858	1	1
616.028	1	5
616.198	1	4
616.368	1	9
616.537	1	5
616.707	1	3
616.877	1	-5
617.046	1	-2
617.216	1	-9
617.386	1	-16
617.555	1	6
617.725	1	-8
617.895	1	11
618.064	1	-2
618.234	1	1
618.404	1	-1
618.573	1	2
618.743	1	-7
618.913	1	-1
619.082	1	11
619.252	1	0
619.422	1	21
619.591	1	9
619.761	1	8
619.931	1	-14
620.100	1	2
620.270	1	2
620.440	1	7
620.609	1	5
620.779	1	-3
620.949	1	5
621.118	1	-6
621.288	1	-7
621.458	1	5
621.627	1	10
621.797	1	-5
621.967	1	-4
622.136	1	-4
622.306	1	2
622.476	1	3
622.645	1	8
622.815	1	1
622.985	1	3
623.154	1	0
623.324	1	6
623.494	1	5
623.663	1	8
623.833	1	-12
624.002	1	-10
624.172	1	6
624.342	1	-11
624.511	1	9
624.681	1	0
624.851	1	9
625.020	1	3
625.190	1	-4
625.360	1	0
625.529	1	-9
625.699	1	8
625.869	1	-10
626.038	1	0
626.208	1	1
626.377	1	3
626.547	1	-10
626.717	1	5
626.886	1	4
627.056	1	-7
627.226	1	12
627.395	1	5
627.565	1	-1
627.735	1	8
627.904	1	11
628.074	1	1
628.243	1	5
628.413	1	-2
628.583	1	9
628.752	1	-6
628.922	1	-2
629.091	1	-4
629.261	1	-1
629.431	1	2
629.600	1	3
629.770	1	-3
629.940	1	1
630.109	1	2
630.279	1	1
630.448	1	0
630.618	1	-5
630.788	1	4
630.957	1	1
631.127	1	6
631.297	1	3
631.466	1	-2
631.636	1	14
631.805	1	6
631.975	1	2
632.145	1	5
632.314	1	0
632.484	1	-2
632.653	1	-2
632.823	1	9
632.993	1	8
633.162	1	14
633.332	1	4
633.501	1	9
633.671	1	-3
633.841	1	4
634.010	1	8
634.180	1	-5
634.349	1	0
634.519	1	3
634.689	1	4
634.858	1	-1
635.028	1	0
635.197	1	0
635.367	1	6
635.537	1	19
635.706	1	-4
635.876	1	7
636.045	1	7
636.215	1	-2
636.384	1	-3
636.554	1	9
636.724	1	1
636.893	1	1
637.063	1	3
637.232	1	3
637.402	1	-5
637.572	1	-9
637.741	1	11
637.911	1	-3
638.080	1	11
638.250	1	4
638.419	1	9
638.589	1	-1
638.759	1	-13
638.928	1	7
639.098	1	10
639.267	1	3
639.437	1	-3
639.606	1	3
639.776	1	2
639.946	1	-5
640.115	1	-6
640.285	1	-2
640.454	1	8
640.624	1	-4
640.793	1	-5
640.963	1	-6
641.132	1	-17
641.302	1	-5
641.472	1	-1
641.641	1	-3
641.811	1	-5
641.980	1	1
642.150	1	-2
642.319	1	4
642.489	1	0
642.659	1	1
642.828	1	-3
642.998	1	-6
643.167	1	1
643.337	1	2
643.506	1	9
643.676	1	2
643.845	1	-3
644.015	1	1
644.184	1	4
644.354	1	1
644.524	1	1
644.693	1	-5
644.863	1	-2
645.032	1	2
645.202	1	-13
645.371	1	6
645.541	1	-6
645.710	1	-6
645.880	1	7
646.049	1	-13
646.219	1	-1
646.388	1	-11
646.558	1	5
646.728	1	-7
646.897	1	12
647.067	1	-2
647.236	1	-3
647.406	1	-3
647.575	1	-10
647.745	1	-3
647.914	1	9
648.084	1	7
648.253	1	1
648.423	1	-5
648.592	1	-3
648.762	1	11
648.931	1	8
649.101	1	-1
649.270	1	0
649.440	1	-1
649.610	1	-1
649.779	1	3
649.949	1	-9
650.118	1	-9
650.288	1	0
650.457	1	-2
650.627	1	2
650.796	1	2
650.966	1	-1
651.135	1	-6
651.305	1	8
651.474	1	16
651.644	1	1
651.813	1	-1
651.983	1	-8
652.152	1	-3
652.322	1	-4
652.491	1	5
652.661	1	-3
652.830	1	4
653.000	1	1
653.169	1	-3
653.339	1	1
653.508	1	5
653.678	1	5
653.847	1	-6
654.017	1	-8
654.186	1	-5
654.356	1	-8
654.525	1	1
654.695	1	6
654.864	1	2
655.034	1	7
655.203	1	9
655.373	1	3
655.542	1	-3
655.712	1	-6
655.881	1	5
656.051	1	-2
656.220	1	2
656.390	1	11
656.559	1	2
656.729	1	-3
656.898	1	-3
657.068	1	0
657.237	1	-7
657.406	1	-4
657.576	1	-7
657.745	1	3
657.915	1	3
658.084	1	-4
658.254	1	-5
658.423	1	-5
658.593	1	9
658.762	1	-1
658.932	1	4
659.101	1	-4
659.271	1	2
659.440	1	6
659.610	1	0
659.779	1	7
659.949	1	-2
660.118	1	-2
660.288	1	-10
660.457	1	-7
660.626	1	3
660.796	1	-3
660.965	1	2
661.135	1	9
661.304	1	17
661.474	1	-4
661.643	1	6
661.813	1	-13
661.982	1	3
662.152	1	-9
662.321	1	-7
662.491	1	-2
662.660	1	-2
662.829	1	4
662.999	1	8
663.168	1	4
663.338	1	-6
663.507	1	5
663.677	1	11
663.846	1	-13
664.016	1	13
664.185	1	4
664.354	1	-2
664.524	1	0
664.693	1	0
664.863	1	11
665.032	1	-2
665.202	1	4
665.371	1	-6
665.541	1	-5
665.710	1	-3
665.879	1	7
666.049	1	3
666.218	1	-6
666.388	1	7
666.557	1	-1
666.727	1	-14
666.896	1	0
667.065	1	2
667.235	1	9
667.404	1	6
667.574	1	-4
667.743	1	-2
667.913	1	2
668.082	1	8
668.251	1	2
668.421	1	13
668.590	1	-8
668.760	1	-1
668.929	1	-4
669.099	1	-1
669.268	1	3
669.437	1	-6
669.607	1	-9
669.776	1	11
669.946	1	1
670.115	1	4
670.285	1	-6
670.454	1	10
670.623	1	1
670.793	1	3
670.962	1	1
671.132	1	9
671.301	1	-1
671.470	1	-3
671.640	1	2
671.809	1	-8
671.979	1	8
672.148	1	-7
672.317	1	9
672.487	1	4
672.656	1	5
672.826	1	-5
672.995	1	-3
673.164	1	-5
673.334	1	-11
673.503	1	10
673.673	1	-6
673.842	1	6
674.011	1	1
674.181	1	5
674.350	1	0
674.520	1	-9
674.689	1	15
674.858	1	3
675.028	1	7
675.197	1	2
675.367	1	3
675.536	1	-8
675.705	1	-6
675.875	1	-4
676.044	1	11
676.214	1	-5
676.383	1	17
676.552	1	5
676.722	1	10
676.891	1	-4
677.060	1	17
677.230	1	-1
677.399	1	1
677.569	1	-17
677.738	1	-2
677.907	1	0
678.077	1	5
678.246	1	-7
678.416	1	-1
678.585	1	1
678.754	1	6
678.924	1	12
679.093	1	0
679.262	1	-4
679.432	1	0
679.601	1	6
679.771	1	3
679.940	1	-9
680.109	1	-7
680.279	1	1
680.448	1	1
680.617	1	4
680.787	1	-1
680.956	1	4
681.125	1	3
681.295	1	0
681.464	1	-2
681.634	1	-5
681.803	1	2
681.972	1	2
682.142	1	0
682.311	1	9
682.480	1	-3
682.650	1	3
682.819	1	7
682.988	1	-2
683.158	1	-1
683.327	1	6
683.496	1	3
683.666	1	-7
683.835	1	-5
684.004	1	8
684.174	1	-10
684.343	1	4
684.512	1	-3
684.682	1	5
684.851	1	-2
685.021	1	3
685.190	1	-7
685.359	1	5
685.529	1	-9
685.698	1	-4
685.867	1	9
686.037	1	-2
686.206	1	7
686.375	1	-3
686.545	1	-5
686.714	1	1
686.883	1	-2
687.053	1	1
687.222	1	5
687.391	1	-10
687.561	1	-3
687.730	1	4
687.899	1	6
688.069	1	-3
688.238	1	3
688.407	1	14
688.577	1	0
688.746	1	-4
