340.368	1	-9
340.539	1	9
340.710	1	6
340.881	1	0
341.052	1	2
341.223	1	-5
341.394	1	0
341.565	1	-5
341.737	1	-9
341.908	1	-3
342.079	1	2
342.250	1	-2
342.421	1	-10
342.592	1	-4
342.763	1	-10
342.934	1	3
343.105	1	-4
343.276	1	1
343.447	1	11
343.618	1	-8
343.789	1	-2
343.960	1	-9
344.131	1	6
344.302	1	11
344.473	1	1
344.644	1	4
344.815	1	0
344.986	1	-8
345.157	1	-6
345.328	1	-2
345.499	1	8
345.670	1	5
345.841	1	0
346.012	1	7
346.183	1	-5
346.354	1	-7
346.526	1	-6
346.697	1	4
346.868	1	-9
347.039	1	7
347.210	1	-13
347.381	1	1
347.552	1	1
347.723	1	2
347.894	1	8
348.065	1	3
348.236	1	-9
348.407	1	-2
348.578	1	-15
348.749	1	6
348.920	1	15
349.091	1	7
349.262	1	-1
349.433	1	0
349.604	1	7
349.775	1	5
349.946	1	2
350.117	1	7
350.288	1	-3
350.459	1	-4
350.630	1	-4
350.801	1	7
350.972	1	1
351.143	1	8
351.314	1	4
351.485	1	-2
351.656	1	10
351.827	1	-1
351.998	1	1
352.169	1	-2
352.340	1	11
352.511	1	3
352.682	1	6
352.853	1	-4
353.024	1	-1
353.195	1	7
353.366	1	-9
353.537	1	5
353.708	1	8
353.879	1	4
354.050	1	16
354.221	1	3
354.392	1	-2
354.563	1	-1
354.734	1	5
354.905	1	9
355.076	1	-5
355.247	1	3
355.418	1	-8
355.589	1	4
355.760	1	2
355.931	1	-6
356.102	1	3
356.273	1	2
356.444	1	-10
356.615	1	1
356.785	1	2
356.956	1	3
357.127	1	3
357.298	1	2
357.469	1	11
357.640	1	13
357.811	1	5
357.982	1	5
358.153	1	-1
358.324	1	8
358.495	1	0
358.666	1	-4
358.837	1	3
359.008	1	4
359.179	1	-1
359.350	1	10
359.521	1	-1
359.692	1	16
359.863	1	9
360.034	1	0
360.205	1	6
360.376	1	2
360.547	1	6
360.718	1	-3
360.889	1	15
361.060	1	13
361.231	1	-5
361.401	1	10
361.572	1	9
361.743	1	-2
361.914	1	6
362.085	1	0
362.256	1	10
362.427	1	9
362.598	1	11
362.769	1	12
362.940	1	22
363.111	1	2
363.282	1	12
363.453	1	8
363.624	1	1
363.795	1	-1
363.966	1	6
364.137	1	1
364.308	1	5
364.478	1	13
364.649	1	5
364.820	1	8
364.991	1	17
365.162	1	10
365.333	1	5
365.504	1	1
365.675	1	7
365.846	1	11
366.017	1	17
366.188	1	14
366.359	1	7
366.530	1	6
366.701	1	8
366.871	1	9
367.042	1	16
367.213	1	17
367.384	1	10
367.555	1	13
367.726	1	17
367.897	1	28
368.068	1	15
368.239	1	11
368.410	1	7
368.581	1	15
368.752	1	10
368.923	1	9
369.093	1	11
369.264	1	14
369.435	1	17
369.606	1	5
369.777	1	9
369.948	1	17
370.119	1	9
370.290	1	27
370.461	1	25
370.632	1	10
370.803	1	16
370.973	1	5
371.144	1	25
371.315	1	13
371.486	1	17
371.657	1	18
371.828	1	15
371.999	1	8
372.170	1	0
372.341	1	22
372.512	1	9
372.682	1	32
372.853	1	23
373.024	1	13
373.195	1	15
373.366	1	25
373.537	1	13
373.708	1	23
373.879	1	17
374.050	1	6
374.220	1	11
374.391	1	12
374.562	1	10
374.733	1	13
374.904	1	15
375.075	1	13
375.246	1	22
375.417	1	13
375.588	1	10
375.758	1	10
375.929	1	16
376.100	1	22
376.271	1	11
376.442	1	17
376.613	1	10
376.784	1	8
376.955	1	13
377.125	1	10
377.296	1	2
377.467	1	2
377.638	1	19
377.809	1	2
377.980	1	18
378.151	1	21
378.321	1	24
378.492	1	20
378.663	1	6
378.834	1	1
379.005	1	14
379.176	1	18
379.347	1	23
379.518	1	19
379.688	1	17
379.859	1	-3
380.030	1	16
380.201	1	13
380.372	1	2
380.543	1	1
380.714	1	21
380.884	1	10
381.055	1	7
381.226	1	7
381.397	1	3
381.568	1	6
381.739	1	4
381.910	1	6
382.080	1	4
382.251	1	-2
382.422	1	3
382.593	1	8
382.764	1	6
382.935	1	-1
383.105	1	22
383.276	1	21
383.447	1	3
383.618	1	9
383.789	1	6
383.960	1	8
384.130	1	8
384.301	1	9
384.472	1	6
384.643	1	2
384.814	1	0
384.985	1	5
385.156	1	16
385.326	1	9
385.497	1	15
385.668	1	6
385.839	1	4
386.010	1	6
386.180	1	8
386.351	1	14
386.522	1	2
386.693	1	-2
386.864	1	-2
387.035	1	8
387.205	1	17
387.376	1	-1
387.547	1	7
387.718	1	-6
387.889	1	11
388.060	1	8
388.230	1	12
388.401	1	14
388.572	1	6
388.743	1	10
388.914	1	7
389.084	1	13
389.255	1	7
389.426	1	10
389.597	1	21
389.768	1	14
389.939	1	12
390.109	1	-3
390.280	1	10
390.451	1	13
390.622	1	8
390.793	1	13
390.963	1	18
391.134	1	9
391.305	1	12
391.476	1	-6
391.647	1	0
391.817	1	6
391.988	1	-4
392.159	1	2
392.330	1	-1
392.501	1	-5
392.671	1	-7
392.842	1	2
393.013	1	9
393.184	1	4
393.355	1	10
393.525	1	1
393.696	1	9
393.867	1	-5
394.038	1	11
394.208	1	18
394.379	1	6
394.550	1	1
394.721	1	9
394.892	1	11
395.062	1	-2
395.233	1	13
395.404	1	4
395.575	1	8
395.746	1	0
395.916	1	-2
396.087	1	15
396.258	1	4
396.429	1	7
396.599	1	4
396.770	1	-4
396.941	1	-2
397.112	1	13
397.283	1	0
397.453	1	14
397.624	1	-4
397.795	1	15
397.966	1	6
398.136	1	6
398.307	1	2
398.478	1	7
398.649	1	6
398.819	1	11
398.990	1	6
399.161	1	-6
399.332	1	7
399.503	1	-4
399.673	1	16
399.844	1	11
400.015	1	2
400.186	1	3
400.356	1	9
400.527	1	-2
400.698	1	10
400.869	1	6
401.039	1	13
401.210	1	7
401.381	1	4
401.552	1	7
401.722	1	13
401.893	1	10
402.064	1	9
402.235	1	0
402.405	1	12
402.576	1	0
402.747	1	1
402.918	1	8
403.088	1	0
403.259	1	-5
403.430	1	0
403.601	1	1
403.771	1	9
403.942	1	3
404.113	1	-1
404.284	1	16
404.454	1	0
404.625	1	-4
404.796	1	2
404.967	1	10
405.137	1	13
405.308	1	-7
405.479	1	-2
405.649	1	8
405.820	1	11
405.991	1	9
406.162	1	4
406.332	1	3
406.503	1	6
406.674	1	15
406.845	1	5
407.015	1	0
407.186	1	9
407.357	1	14
407.527	1	10
407.698	1	12
407.869	1	-5
408.040	1	4
408.210	1	5
408.381	1	4
408.552	1	8
408.722	1	11
408.893	1	3
409.064	1	9
409.235	1	10
409.405	1	-2
409.576	1	7
409.747	1	1
409.917	1	10
410.088	1	3
410.259	1	-7
410.430	1	8
410.600	1	4
410.771	1	-2
410.942	1	7
411.112	1	0
411.283	1	4
411.454	1	8
411.625	1	7
411.795	1	6
411.966	1	-1
412.137	1	10
412.307	1	-10
412.478	1	-4
412.649	1	-9
412.819	1	14
412.990	1	2
413.161	1	8
413.332	1	10
413.502	1	5
413.673	1	16
413.844	1	5
414.014	1	5
414.185	1	2
414.356	1	-2
414.526	1	1
414.697	1	10
414.868	1	-8
415.038	1	10
415.209	1	3
415.380	1	10
415.550	1	-1
415.721	1	5
415.892	1	4
416.063	1	6
416.233	1	16
416.404	1	1
416.575	1	16
416.745	1	6
416.916	1	12
417.087	1	7
417.257	1	-3
417.428	1	-4
417.599	1	1
417.769	1	6
417.940	1	-1
418.111	1	3
418.281	1	12
418.452	1	8
418.623	1	9
418.793	1	-2
418.964	1	1
419.135	1	1
419.305	1	0
419.476	1	-2
419.647	1	-2
419.817	1	5
419.988	1	7
420.159	1	18
420.329	1	-9
420.500	1	1
420.671	1	22
420.841	1	5
421.012	1	3
421.183	1	-1
421.353	1	4
421.524	1	8
421.695	1	2
421.865	1	19
422.036	1	-1
422.206	1	2
422.377	1	-14
422.548	1	3
422.718	1	4
422.889	1	19
423.060	1	-8
423.230	1	2
423.401	1	0
423.572	1	10
423.742	1	-6
423.913	1	4
424.084	1	0
424.254	1	-9
424.425	1	5
424.595	1	8
424.766	1	-1
424.937	1	12
425.107	1	3
425.278	1	3
425.449	1	3
425.619	1	13
425.790	1	7
425.961	1	-1
426.131	1	-5
426.302	1	-2
426.472	1	-3
426.643	1	-2
426.814	1	7
426.984	1	11
427.155	1	4
427.326	1	12
427.496	1	9
427.667	1	11
427.837	1	-5
428.008	1	0
428.179	1	7
428.349	1	-2
428.520	1	-3
428.691	1	1
428.861	1	0
429.032	1	3
429.202	1	7
429.373	1	3
429.544	1	6
429.714	1	7
429.885	1	4
430.055	1	4
430.226	1	12
430.397	1	11
430.567	1	-6
430.738	1	1
430.909	1	-9
431.079	1	11
431.250	1	9
431.420	1	9
431.591	1	6
431.762	1	-1
431.932	1	8
432.103	1	2
432.273	1	6
432.444	1	9
432.615	1	6
432.785	1	5
432.956	1	9
433.126	1	7
433.297	1	-9
433.468	1	2
433.638	1	5
433.809	1	11
433.979	1	-5
434.150	1	4
434.320	1	-2
434.491	1	-4
434.662	1	5
434.832	1	-6
435.003	1	-3
435.173	1	0
435.344	1	-2
435.515	1	-3
435.685	1	3
435.856	1	5
436.026	1	14
436.197	1	1
436.368	1	6
436.538	1	8
436.709	1	4
436.879	1	3
437.050	1	4
437.220	1	0
437.391	1	5
437.562	1	11
437.732	1	8
437.903	1	-2
438.073	1	3
438.244	1	-2
438.414	1	9
438.585	1	5
438.756	1	5
438.926	1	-3
439.097	1	2
439.267	1	5
439.438	1	8
439.608	1	1
439.779	1	10
439.949	1	1
440.120	1	3
440.291	1	-4
440.461	1	4
440.632	1	10
440.802	1	8
440.973	1	14
441.143	1	11
441.314	1	14
441.485	1	-2
441.655	1	-1
441.826	1	0
441.996	1	1
442.167	1	-4
442.337	1	-2
442.508	1	5
442.678	1	16
442.849	1	9
443.019	1	13
443.190	1	1
443.361	1	5
443.531	1	-3
443.702	1	1
443.872	1	-1
444.043	1	5
444.213	1	2
444.384	1	6
444.554	1	8
444.725	1	7
444.895	1	1
445.066	1	3
445.237	1	4
445.407	1	-2
445.578	1	-3
445.748	1	10
445.919	1	5
446.089	1	-3
446.260	1	-3
446.430	1	18
446.601	1	11
446.771	1	0
446.942	1	3
447.112	1	0
447.283	1	8
447.453	1	8
447.624	1	1
447.794	1	15
447.965	1	-3
448.135	1	-1
448.306	1	5
448.477	1	-4
448.647	1	-9
448.818	1	-2
448.988	1	2
449.159	1	10
449.329	1	1
449.500	1	-1
449.670	1	2
449.841	1	7
450.011	1	2
450.182	1	-4
450.352	1	2
450.523	1	-1
450.693	1	-10
450.864	1	-2
451.034	1	5
451.205	1	-14
451.375	1	-5
451.546	1	-2
451.716	1	3
451.887	1	5
452.057	1	-2
452.228	1	-4
452.398	1	15
452.569	1	-9
452.739	1	-11
452.910	1	1
453.080	1	16
453.251	1	6
453.421	1	3
453.592	1	9
453.762	1	13
453.933	1	-1
454.103	1	8
454.274	1	-6
454.444	1	7
454.615	1	-4
454.785	1	-4
454.956	1	10
455.126	1	3
455.297	1	-1
455.467	1	1
455.638	1	-1
455.808	1	-1
455.979	1	6
456.149	1	5
456.320	1	-2
456.490	1	-8
456.661	1	7
456.831	1	6
457.001	1	8
457.172	1	2
457.342	1	6
457.513	1	-6
457.683	1	-8
457.854	1	0
458.024	1	-6
458.195	1	-5
458.365	1	-2
458.536	1	7
458.706	1	15
458.877	1	4
459.047	1	12
459.218	1	7
459.388	1	-7
459.559	1	-2
459.729	1	0
459.899	1	-5
460.070	1	13
460.240	1	11
460.411	1	-3
460.581	1	-6
460.752	1	8
460.922	1	-8
461.093	1	2
461.263	1	6
461.434	1	1
461.604	1	8
461.775	1	0
461.945	1	-4
462.115	1	10
462.286	1	-3
462.456	1	0
462.627	1	2
462.797	1	-2
462.968	1	-3
463.138	1	11
463.309	1	5
463.479	1	-7
463.649	1	3
463.820	1	6
463.990	1	4
464.161	1	3
464.331	1	2
464.502	1	9
464.672	1	6
464.843	1	6
465.013	1	4
465.183	1	7
465.354	1	6
465.524	1	3
465.695	1	1
465.865	1	-7
466.036	1	1
466.206	1	0
466.376	1	2
466.547	1	-3
466.717	1	-4
466.888	1	-3
467.058	1	9
467.229	1	2
467.399	1	-5
467.569	1	0
467.740	1	-5
467.910	1	4
468.081	1	8
468.251	1	16
468.422	1	9
468.592	1	-3
468.762	1	-5
468.933	1	-1
469.103	1	3
469.274	1	-2
469.444	1	-2
469.614	1	3
469.785	1	2
469.955	1	9
470.126	1	8
470.296	1	8
470.467	1	3
470.637	1	-12
470.807	1	4
470.978	1	-1
471.148	1	1
471.319	1	12
471.489	1	2
471.659	1	12
471.830	1	-1
472.000	1	2
472.171	1	-2
472.341	1	7
472.511	1	5
472.682	1	-3
472.852	1	8
473.023	1	-5
473.193	1	-4
473.363	1	11
473.534	1	2
473.704	1	8
473.875	1	2
474.045	1	6
474.215	1	-3
474.386	1	-6
474.556	1	13
474.727	1	10
474.897	1	0
475.067	1	3
475.238	1	2
475.408	1	18
475.578	1	3
475.749	1	2
475.919	1	7
476.090	1	-2
476.260	1	8
476.430	1	-8
476.601	1	10
476.771	1	2
476.942	1	-2
477.112	1	0
477.282	1	-3
477.453	1	4
477.623	1	-6
477.793	1	-6
477.964	1	6
478.134	1	1
478.305	1	3
478.475	1	11
478.645	1	3
478.816	1	4
478.986	1	-3
479.156	1	-3
479.327	1	-1
479.497	1	1
479.667	1	-2
479.838	1	2
480.008	1	-5
480.179	1	5
480.349	1	0
480.519	1	13
480.690	1	-12
480.860	1	6
481.030	1	-1
481.201	1	5
481.371	1	-7
481.541	1	5
481.712	1	1
481.882	1	0
482.053	1	-3
482.223	1	3
482.393	1	0
482.564	1	0
482.734	1	9
482.904	1	8
483.075	1	1
483.245	1	0
483.415	1	-3
483.586	1	7
483.756	1	3
483.926	1	-9
484.097	1	-2
484.267	1	11
484.437	1	4
484.608	1	-2
484.778	1	10
484.948	1	-3
485.119	1	-5
485.289	1	-2
485.459	1	4
485.630	1	11
485.800	1	1
485.970	1	-2
486.141	1	6
486.311	1	-8
486.481	1	3
486.652	1	10
486.822	1	0
486.992	1	-7
487.163	1	5
487.333	1	0
487.503	1	7
487.674	1	-1
487.844	1	5
488.014	1	3
488.185	1	-2
488.355	1	6
488.525	1	6
488.696	1	14
488.866	1	-8
489.036	1	10
489.207	1	7
489.377	1	3
489.547	1	-2
489.718	1	2
489.888	1	6
490.058	1	8
490.228	1	-5
490.399	1	-1
490.569	1	4
490.739	1	-2
490.910	1	5
491.080	1	4
491.250	1	5
491.421	1	-5
491.591	1	-7
491.761	1	3
491.932	1	3
492.102	1	0
492.272	1	-11
492.442	1	6
492.613	1	10
492.783	1	-3
492.953	1	8
493.124	1	-7
493.294	1	3
493.464	1	0
493.635	1	5
493.805	1	5
493.975	1	3
494.145	1	4
494.316	1	8
494.486	1	13
494.656	1	5
494.827	1	-3
494.997	1	-1
495.167	1	8
495.337	1	1
495.508	1	11
495.678	1	2
495.848	1	1
496.019	1	-7
496.189	1	-1
496.359	1	-11
496.529	1	10
496.700	1	4
496.870	1	-1
497.040	1	11
497.211	1	-1
497.381	1	0
497.551	1	-1
497.721	1	4
497.892	1	1
498.062	1	1
498.232	1	7
498.403	1	7
498.573	1	-1
498.743	1	11
498.913	1	-11
499.084	1	-3
499.254	1	-6
499.424	1	-6
499.594	1	4
499.765	1	-7
499.935	1	6
500.105	1	7
500.275	1	-4
500.446	1	6
500.616	1	5
500.786	1	-1
500.956	1	7
501.127	1	5
501.297	1	-3
501.467	1	3
501.638	1	6
501.808	1	12
501.978	1	-4
502.148	1	5
502.319	1	6
502.489	1	7
502.659	1	6
502.829	1	9
503.000	1	19
503.170	1	0
503.340	1	7
503.510	1	5
503.681	1	-1
503.851	1	-6
504.021	1	8
504.191	1	2
504.362	1	2
504.532	1	5
504.702	1	3
504.872	1	6
505.042	1	5
505.213	1	16
505.383	1	2
505.553	1	5
505.723	1	6
505.894	1	7
506.064	1	8
506.234	1	4
506.404	1	0
506.575	1	-6
506.745	1	10
506.915	1	-21
507.085	1	-1
507.256	1	-4
507.426	1	1
507.596	1	-4
507.766	1	0
507.936	1	1
508.107	1	8
508.277	1	13
508.447	1	12
508.617	1	-5
508.788	1	-1
508.958	1	11
509.128	1	-2
509.298	1	0
509.468	1	8
509.639	1	0
509.809	1	-7
509.979	1	7
510.149	1	0
510.319	1	11
510.490	1	-4
510.660	1	7
510.830	1	1
511.000	1	7
511.171	1	19
511.341	1	1
511.511	1	8
511.681	1	-5
511.851	1	-6
512.022	1	6
512.192	1	8
512.362	1	5
512.532	1	2
512.702	1	5
512.873	1	-1
513.043	1	1
513.213	1	0
513.383	1	0
513.553	1	15
513.724	1	-4
513.894	1	15
514.064	1	0
514.234	1	6
514.404	1	-3
514.575	1	1
514.745	1	-4
514.915	1	-1
515.085	1	1
515.255	1	1
515.425	1	-4
515.596	1	8
515.766	1	2
515.936	1	5
516.106	1	1
516.276	1	5
516.447	1	0
516.617	1	2
516.787	1	1
516.957	1	-5
517.127	1	2
517.297	1	11
517.468	1	-1
517.638	1	3
517.808	1	5
517.978	1	1
518.148	1	-7
518.319	1	1
518.489	1	2
518.659	1	2
518.829	1	6
518.999	1	-2
519.169	1	6
519.340	1	-2
519.510	1	-5
519.680	1	2
519.850	1	3
520.020	1	10
520.190	1	-6
520.361	1	-5
520.531	1	13
520.701	1	4
520.871	1	-3
521.041	1	2
521.211	1	0
521.382	1	-5
521.552	1	4
521.722	1	2
521.892	1	-2
522.062	1	1
522.232	1	-3
522.402	1	0
522.573	1	-4
522.743	1	7
522.913	1	-1
523.083	1	11
523.253	1	-1
523.423	1	7
523.593	1	1
523.764	1	-4
523.934	1	2
524.104	1	6
524.274	1	3
524.444	1	9
524.614	1	7
524.784	1	-8
524.955	1	-6
525.125	1	0
525.295	1	-8
525.465	1	-8
525.635	1	6
525.805	1	9
525.975	1	-2
526.146	1	9
526.316	1	3
526.486	1	7
526.656	1	-1
526.826	1	0
526.996	1	-7
527.166	1	4
527.337	1	7
527.507	1	11
527.677	1	-3
527.847	1	-2
528.017	1	-4
528.187	1	-3
528.357	1	3
528.527	1	-8
528.698	1	-1
528.868	1	3
529.038	1	6
529.208	1	2
529.378	1	1
529.548	1	8
529.718	1	7
529.888	1	-3
530.058	1	-5
530.229	1	0
530.399	1	-1
530.569	1	10
530.739	1	5
530.909	1	-5
531.079	1	2
531.249	1	6
531.419	1	-3
531.589	1	-3
531.760	1	6
531.930	1	-1
532.100	1	4
532.270	1	10
532.440	1	12
532.610	1	10
532.780	1	4
532.950	1	11
533.120	1	4
533.290	1	-6
533.461	1	-6
533.631	1	-2
533.801	1	3
533.971	1	6
534.141	1	11
534.311	1	3
534.481	1	1
534.651	1	0
534.821	1	1
534.991	1	-1
535.162	1	-4
535.332	1	-4
535.502	1	9
535.672	1	0
535.842	1	-4
536.012	1	12
536.182	1	2
536.352	1	-1
536.522	1	2
536.692	1	12
536.862	1	-1
537.032	1	7
537.203	1	7
537.373	1	-16
537.543	1	13
537.713	1	1
537.883	1	-2
538.053	1	11
538.223	1	0
538.393	1	3
538.563	1	3
538.733	1	1
538.903	1	-2
539.073	1	14
539.243	1	3
539.413	1	-2
539.584	1	2
539.754	1	-9
539.924	1	4
540.094	1	4
540.264	1	-1
540.434	1	-7
540.604	1	-3
540.774	1	5
540.944	1	8
541.114	1	-2
541.284	1	8
541.454	1	-1
541.624	1	0
541.794	1	-3
541.964	1	1
542.134	1	7
542.305	1	11
542.475	1	-1
542.645	1	2
542.815	1	15
542.985	1	6
543.155	1	6
543.325	1	9
543.495	1	-2
543.665	1	0
543.835	1	9
544.005	1	3
544.175	1	-1
544.345	1	7
544.515	1	-11
544.685	1	5
544.855	1	-1
545.025	1	2
545.195	1	-1
545.365	1	7
545.535	1	-8
545.705	1	4
545.875	1	8
546.045	1	6
546.216	1	-4
546.386	1	1
546.556	1	7
546.726	1	1
546.896	1	6
547.066	1	1
547.236	1	8
547.406	1	-7
547.576	1	1
547.746	1	3
547.916	1	11
548.086	1	-1
548.256	1	0
548.426	1	14
548.596	1	6
548.766	1	0
548.936	1	1
549.106	1	4
549.276	1	-5
549.446	1	7
549.616	1	-4
549.786	1	4
549.956	1	11
550.126	1	1
550.296	1	10
550.466	1	8
550.636	1	2
550.806	1	8
550.976	1	3
551.146	1	0
551.316	1	-1
551.486	1	-1
551.656	1	2
551.826	1	4
551.996	1	14
552.166	1	-8
552.336	1	7
552.506	1	3
552.676	1	2
552.846	1	-4
553.016	1	-1
553.186	1	4
553.356	1	2
553.526	1	4
553.696	1	0
553.866	1	6
554.036	1	15
554.206	1	5
554.376	1	5
554.546	1	1
554.716	1	0
554.886	1	-5
555.056	1	11
555.226	1	-4
555.396	1	13
555.566	1	1
555.736	1	-6
555.906	1	12
556.076	1	4
556.246	1	8
556.416	1	0
556.586	1	-7
556.756	1	2
556.926	1	1
557.096	1	-5
557.266	1	8
557.436	1	3
557.606	1	-6
557.776	1	15
557.946	1	-2
558.116	1	14
558.286	1	-8
558.456	1	11
558.626	1	-3
558.796	1	3
558.966	1	6
559.136	1	-2
559.306	1	3
559.476	1	-2
559.646	1	9
559.816	1	-2
559.986	1	3
560.155	1	-6
560.325	1	-1
560.495	1	8
560.665	1	9
560.835	1	1
561.005	1	6
561.175	1	-1
561.345	1	6
561.515	1	0
561.685	1	2
561.855	1	13
562.025	1	-7
562.195	1	11
562.365	1	-4
562.535	1	6
562.705	1	-1
562.875	1	-1
563.045	1	5
563.215	1	10
563.385	1	10
563.555	1	8
563.725	1	-2
563.895	1	3
564.064	1	-7
564.234	1	-4
564.404	1	4
564.574	1	18
564.744	1	-10
564.914	1	-5
565.084	1	6
565.254	1	5
565.424	1	-2
565.594	1	1
565.764	1	-6
565.934	1	4
566.104	1	-6
566.274	1	2
566.444	1	9
566.614	1	-3
566.783	1	6
566.953	1	-3
567.123	1	4
567.293	1	-8
567.463	1	1
567.633	1	-7
567.803	1	1
567.973	1	5
568.143	1	9
568.313	1	10
568.483	1	-2
568.653	1	3
568.823	1	-6
568.993	1	1
569.162	1	2
569.332	1	3
569.502	1	2
569.672	1	-1
569.842	1	-8
570.012	1	12
570.182	1	3
570.352	1	2
570.522	1	16
570.692	1	-5
570.862	1	5
571.031	1	-3
571.201	1	-2
571.371	1	-3
571.541	1	9
571.711	1	5
571.881	1	-2
572.051	1	0
572.221	1	-8
572.391	1	-7
572.561	1	-2
572.731	1	10
572.900	1	8
573.070	1	3
573.240	1	-1
573.410	1	4
573.580	1	-1
573.750	1	2
573.920	1	2
574.090	1	6
574.260	1	-2
574.430	1	4
574.599	1	16
574.769	1	6
574.939	1	-4
575.109	1	4
575.279	1	12
575.449	1	12
575.619	1	-4
575.789	1	4
575.959	1	14
576.128	1	3
576.298	1	-3
576.468	1	-6
576.638	1	9
576.808	1	-1
576.978	1	9
577.148	1	14
577.318	1	8
577.487	1	7
577.657	1	4
577.827	1	-2
577.997	1	1
578.167	1	-6
578.337	1	16
578.507	1	0
578.677	1	-4
578.846	1	-1
579.016	1	8
579.186	1	-3
579.356	1	12
579.526	1	11
579.696	1	6
579.866	1	-4
580.036	1	8
580.205	1	0
580.375	1	18
580.545	1	0
580.715	1	5
580.885	1	1
581.055	1	9
581.225	1	-1
581.394	1	1
581.564	1	1
581.734	1	7
581.904	1	2
582.074	1	-8
582.244	1	8
582.414	1	20
582.583	1	3
582.753	1	-6
582.923	1	5
583.093	1	6
583.263	1	-10
583.433	1	4
583.603	1	3
583.772	1	14
583.942	1	3
584.112	1	3
584.282	1	7
584.452	1	11
584.622	1	-4
584.791	1	2
584.961	1	6
585.131	1	2
585.301	1	8
585.471	1	2
585.641	1	6
585.811	1	-6
585.980	1	2
586.150	1	-2
586.320	1	13
586.490	1	0
586.660	1	-2
586.830	1	14
586.999	1	5
587.169	1	2
587.339	1	2
587.509	1	3
587.679	1	12
587.849	1	9
588.018	1	4
588.188	1	10
588.358	1	10
588.528	1	2
588.698	1	11
588.867	1	2
589.037	1	4
589.207	1	6
589.377	1	-2
589.547	1	-11
589.717	1	2
589.886	1	8
590.056	1	2
590.226	1	3
590.396	1	8
590.566	1	0
590.735	1	-9
590.905	1	-2
591.075	1	-12
591.245	1	5
591.415	1	10
591.585	1	-5
591.754	1	-3
591.924	1	5
592.094	1	7
592.264	1	-4
592.434	1	8
592.603	1	-4
592.773	1	9
592.943	1	-3
593.113	1	12
593.283	1	-1
593.452	1	2
593.622	1	-2
593.792	1	2
593.962	1	3
594.132	1	12
594.301	1	-7
594.471	1	8
594.641	1	-1
594.811	1	2
594.981	1	2
595.150	1	10
595.320	1	0
595.490	1	-3
595.660	1	-2
595.829	1	-1
595.999	1	-12
596.169	1	-18
596.339	1	10
596.509	1	-3
596.678	1	2
596.848	1	8
597.018	1	-3
597.188	1	0
597.358	1	2
597.527	1	4
597.697	1	-8
597.867	1	8
598.037	1	2
598.206	1	5
598.376	1	0
598.546	1	8
598.716	1	7
598.885	1	-2
599.055	1	-2
599.225	1	-6
599.395	1	1
599.565	1	-1
599.734	1	-2
599.904	1	0
600.074	1	5
600.244	1	1
600.413	1	7
600.583	1	5
600.753	1	4
600.923	1	9
601.092	1	6
601.262	1	9
601.432	1	-5
601.602	1	8
601.771	1	2
601.941	1	4
602.111	1	-3
602.281	1	-2
602.451	1	6
602.620	1	5
602.790	1	3
602.960	1	5
603.130	1	5
603.299	1	3
603.469	1	2
603.639	1	-2
603.809	1	8
603.978	1	13
604.148	1	-2
604.318	1	6
604.487	1	6
604.657	1	14
604.827	1	8
604.997	1	4
605.166	1	0
605.336	1	6
605.506	1	8
605.676	1	13
605.845	1	2
606.015	1	3
606.185	1	-8
606.355	1	3
606.524	1	3
606.694	1	5
606.864	1	-3
607.034	1	-3
607.203	1	15
607.373	1	2
607.543	1	3
607.712	1	8
607.882	1	4
608.052	1	3
608.222	1	4
608.391	1	1
608.561	1	9
608.731	1	-4
608.901	1	4
609.070	1	2
609.240	1	4
609.410	1	14
609.579	1	-5
609.749	1	3
609.919	1	1
610.089	1	7
610.258	1	0
610.428	1	7
610.598	1	4
610.767	1	-6
610.937	1	7
611.107	1	0
611.277	1	3
611.446	1	4
611.616	1	-2
611.786	1	11
611.955	1	-8
612.125	1	-1
612.295	1	-3
612.465	1	-7
612.634	1	-3
612.804	1	5
612.974	1	5
613.143	1	2
613.313	1	1
613.483	1	-11
613.652	1	-2
613.822	1	5
613.992	1	2
614.162	1	9
614.331	1	4
614.501	1	2
614.671	1	6
614.840	1	3
615.010	1	12
615.180	1	-2
615.349	1	-7
615.519	1	-2
615.689	1	12
615.858	1	-5
616.028	1	7
616.198	1	9
616.368	1	14
616.537	1	-2
616.707	1	4
616.877	1	-4
617.046	1	-6
617.216	1	4
617.386	1	-6
617.555	1	7
617.725	1	-1
617.895	1	9
618.064	1	-2
618.234	1	3
618.404	1	6
618.573	1	11
618.743	1	-9
618.913	1	6
619.082	1	8
619.252	1	1
619.422	1	19
619.591	1	10
619.761	1	5
619.931	1	-10
620.100	1	1
620.270	1	0
620.440	1	4
620.609	1	7
620.779	1	-4
620.949	1	8
621.118	1	5
621.288	1	0
621.458	1	5
621.627	1	11
621.797	1	4
621.967	1	-3
622.136	1	1
622.306	1	8
622.476	1	11
622.645	1	-1
622.815	1	5
622.985	1	2
623.154	1	-5
623.324	1	16
623.494	1	1
623.663	1	5
623.833	1	4
624.002	1	-2
624.172	1	10
624.342	1	-7
624.511	1	12
624.681	1	-1
624.851	1	10
625.020	1	1
625.190	1	10
625.360	1	-2
625.529	1	-5
625.699	1	8
625.869	1	0
626.038	1	2
626.208	1	6
626.377	1	7
626.547	1	-3
626.717	1	1
626.886	1	2
627.056	1	3
627.226	1	9
627.395	1	10
627.565	1	10
627.735	1	8
627.904	1	-4
628.074	1	0
628.243	1	2
628.413	1	0
628.583	1	11
628.752	1	2
628.922	1	0
629.091	1	-1
629.261	1	-8
629.431	1	-9
629.600	1	0
629.770	1	2
629.940	1	1
630.109	1	3
630.279	1	-4
630.448	1	0
630.618	1	1
630.788	1	10
630.957	1	5
631.127	1	3
631.297	1	-9
631.466	1	-1
631.636	1	4
631.805	1	2
631.975	1	11
632.145	1	-5
632.314	1	0
632.484	1	0
632.653	1	3
632.823	1	7
632.993	1	6
633.162	1	5
633.332	1	7
633.501	1	-5
633.671	1	2
633.841	1	14
634.010	1	-5
634.180	1	3
634.349	1	-4
634.519	1	0
634.689	1	3
634.858	1	-3
635.028	1	0
635.197	1	1
635.367	1	0
635.537	1	22
635.706	1	-1
635.876	1	5
636.045	1	8
636.215	1	6
636.384	1	5
636.554	1	-4
636.724	1	1
636.893	1	3
637.063	1	-4
637.232	1	5
637.402	1	-2
637.572	1	-4
637.741	1	14
637.911	1	-5
638.080	1	7
638.250	1	9
638.419	1	12
638.589	1	-5
638.759	1	-3
638.928	1	-1
639.098	1	5
639.267	1	5
639.437	1	4
639.606	1	2
639.776	1	9
639.946	1	4
640.115	1	-3
640.285	1	-3
640.454	1	7
640.624	1	-3
640.793	1	-2
640.963	1	4
641.132	1	-9
641.302	1	2
641.472	1	17
641.641	1	-3
641.811	1	-2
641.980	1	-5
642.150	1	-3
642.319	1	6
642.489	1	-2
642.659	1	3
642.828	1	7
642.998	1	12
643.167	1	7
643.337	1	0
643.506	1	-5
643.676	1	-1
643.845	1	-3
644.015	1	-5
644.184	1	4
644.354	1	-4
644.524	1	-3
644.693	1	-3
644.863	1	-9
645.032	1	4
645.202	1	-3
645.371	1	10
645.541	1	-15
645.710	1	-4
645.880	1	5
646.049	1	-9
646.219	1	2
646.388	1	2
646.558	1	8
646.728	1	-8
646.897	1	13
647.067	1	6
647.236	1	5
647.406	1	7
647.575	1	-8
647.745	1	-4
647.914	1	10
648.084	1	4
648.253	1	8
648.423	1	2
648.592	1	-3
648.762	1	17
648.931	1	4
649.101	1	-5
649.270	1	5
649.440	1	8
649.610	1	-3
649.779	1	0
649.949	1	-4
650.118	1	1
650.288	1	1
650.457	1	-6
650.627	1	11
650.796	1	-2
650.966	1	5
651.135	1	-8
651.305	1	10
651.474	1	7
651.644	1	7
651.813	1	-7
651.983	1	-7
652.152	1	7
652.322	1	10
652.491	1	6
652.661	1	5
652.830	1	-1
653.000	1	-4
653.169	1	7
653.339	1	4
653.508	1	5
653.678	1	3
653.847	1	-1
654.017	1	4
654.186	1	2
654.356	1	1
654.525	1	4
654.695	1	5
654.864	1	0
655.034	1	0
655.203	1	13
655.373	1	6
655.542	1	6
655.712	1	-7
655.881	1	9
656.051	1	10
656.220	1	5
656.390	1	20
656.559	1	5
656.729	1	1
656.898	1	2
657.068	1	0
657.237	1	1
657.406	1	0
657.576	1	-1
657.745	1	12
657.915	1	4
658.084	1	-11
658.254	1	-3
658.423	1	-2
658.593	1	-2
658.762	1	13
658.932	1	2
659.101	1	-5
659.271	1	7
659.440	1	7
659.610	1	-8
659.779	1	-1
659.949	1	0
660.118	1	7
660.288	1	-3
660.457	1	2
660.626	1	7
660.796	1	5
660.965	1	1
661.135	1	9
661.304	1	11
661.474	1	0
661.643	1	-5
661.813	1	-14
661.982	1	5
662.152	1	1
662.321	1	-7
662.491	1	-3
662.660	1	-3
662.829	1	3
662.999	1	0
663.168	1	-2
663.338	1	1
663.507	1	1
663.677	1	-4
663.846	1	-14
664.016	1	13
664.185	1	0
664.354	1	-3
664.524	1	4
664.693	1	-2
664.863	1	1
665.032	1	0
665.202	1	9
665.371	1	0
665.541	1	-1
665.710	1	-11
665.879	1	-5
666.049	1	5
666.218	1	-3
666.388	1	7
666.557	1	-5
666.727	1	-1
666.896	1	-2
667.065	1	1
667.235	1	1
667.404	1	3
667.574	1	-4
667.743	1	6
667.913	1	1
668.082	1	1
668.251	1	8
668.421	1	9
668.590	1	-14
668.760	1	2
668.929	1	-3
669.099	1	-3
669.268	1	-5
669.437	1	10
669.607	1	-4
669.776	1	7
669.946	1	5
670.115	1	8
670.285	1	9
670.454	1	9
670.623	1	-5
670.793	1	-2
670.962	1	-4
671.132	1	8
671.301	1	-6
671.470	1	7
671.640	1	-5
671.809	1	5
671.979	1	6
672.148	1	4
672.317	1	6
672.487	1	6
672.656	1	2
672.826	1	-5
672.995	1	-3
673.164	1	0
673.334	1	-5
673.503	1	6
673.673	1	-2
673.842	1	1
674.011	1	-2
674.181	1	3
674.350	1	2
674.520	1	1
674.689	1	16
674.858	1	9
675.028	1	9
675.197	1	-2
675.367	1	7
675.536	1	-2
675.705	1	1
675.875	1	-2
676.044	1	11
676.214	1	9
676.383	1	10
676.552	1	8
676.722	1	6
676.891	1	-5
677.060	1	12
677.230	1	-4
677.399	1	3
677.569	1	-8
677.738	1	-9
677.907	1	8
678.077	1	6
678.246	1	0
678.416	1	7
678.585	1	12
678.754	1	2
678.924	1	8
679.093	1	3
679.262	1	1
679.432	1	-13
679.601	1	7
679.771	1	8
679.940	1	-8
680.109	1	2
680.279	1	1
680.448	1	-1
680.617	1	-4
680.787	1	-8
680.956	1	-4
681.125	1	0
681.295	1	2
681.464	1	-1
681.634	1	-1
681.803	1	6
681.972	1	-1
682.142	1	9
682.311	1	1
682.480	1	-5
682.650	1	-1
682.819	1	-7
682.988	1	8
683.158	1	2
683.327	1	6
683.496	1	0
683.666	1	5
683.835	1	-3
684.004	1	6
684.174	1	-3
684.343	1	-1
684.512	1	3
684.682	1	3
684.851	1	4
685.021	1	-4
685.190	1	-7
685.359	1	-7
685.529	1	-2
685.698	1	-1
685.867	1	11
686.037	1	1
686.206	1	9
686.375	1	-7
686.545	1	0
686.714	1	-4
686.883	1	-1
687.053	1	1
687.222	1	13
687.391	1	-2
687.561	1	5
687.730	1	5
687.899	1	3
688.069	1	-3
688.238	1	2
688.407	1	8
688.577	1	7
688.746	1	12
