340.368	1	-3
340.539	1	4
340.710	1	5
340.881	1	2
341.052	1	-2
341.223	1	0
341.394	1	-1
341.565	1	-4
341.737	1	2
341.908	1	-8
342.079	1	1
342.250	1	8
342.421	1	-10
342.592	1	0
342.763	1	-9
342.934	1	12
343.105	1	1
343.276	1	-2
343.447	1	9
343.618	1	-7
343.789	1	-2
343.960	1	-13
344.131	1	-4
344.302	1	6
344.473	1	1
344.644	1	6
344.815	1	6
344.986	1	-9
345.157	1	-4
345.328	1	-3
345.499	1	11
345.670	1	5
345.841	1	-8
346.012	1	1
346.183	1	4
346.354	1	-2
346.526	1	-5
346.697	1	0
346.868	1	-9
347.039	1	-2
347.210	1	-14
347.381	1	5
347.552	1	2
347.723	1	7
347.894	1	-1
348.065	1	-7
348.236	1	-8
348.407	1	4
348.578	1	-6
348.749	1	10
348.920	1	7
349.091	1	1
349.262	1	4
349.433	1	0
349.604	1	-12
349.775	1	2
349.946	1	7
350.117	1	2
350.288	1	-6
350.459	1	-4
350.630	1	-3
350.801	1	0
350.972	1	1
351.143	1	12
351.314	1	-4
351.485	1	1
351.656	1	3
351.827	1	-1
351.998	1	7
352.169	1	-3
352.340	1	6
352.511	1	7
352.682	1	-3
352.853	1	-2
353.024	1	-1
353.195	1	-4
353.366	1	1
353.537	1	11
353.708	1	14
353.879	1	12
354.050	1	6
354.221	1	-2
354.392	1	7
354.563	1	-5
354.734	1	-2
354.905	1	1
355.076	1	5
355.247	1	8
355.418	1	-1
355.589	1	0
355.760	1	5
355.931	1	3
356.102	1	6
356.273	1	0
356.444	1	-6
356.615	1	4
356.785	1	-2
356.956	1	10
357.127	1	-2
357.298	1	6
357.469	1	3
357.640	1	11
357.811	1	-1
357.982	1	7
358.153	1	3
358.324	1	5
358.495	1	-2
358.666	1	-8
358.837	1	6
359.008	1	-1
359.179	1	7
359.350	1	1
359.521	1	6
359.692	1	16
359.863	1	16
360.034	1	12
360.205	1	5
360.376	1	6
360.547	1	2
360.718	1	3
360.889	1	22
361.060	1	17
361.231	1	1
361.401	1	9
361.572	1	12
361.743	1	4
361.914	1	11
362.085	1	9
362.256	1	-2
362.427	1	13
362.598	1	7
362.769	1	13
362.940	1	9
363.111	1	2
363.282	1	11
363.453	1	9
363.624	1	3
363.795	1	3
363.966	1	6
364.137	1	3
364.308	1	12
364.478	1	18
364.649	1	-2
364.820	1	14
364.991	1	11
365.162	1	13
365.333	1	1
365.504	1	0
365.675	1	8
365.846	1	18
366.017	1	9
366.188	1	13
366.359	1	6
366.530	1	9
366.701	1	17
366.871	1	6
367.042	1	21
367.213	1	12
367.384	1	14
367.555	1	8
367.726	1	16
367.897	1	43
368.068	1	18
368.239	1	9
368.410	1	17
368.581	1	10
368.752	1	12
368.923	1	22
369.093	1	12
369.264	1	13
369.435	1	13
369.606	1	15
369.777	1	11
369.948	1	18
370.119	1	10
370.290	1	21
370.461	1	29
370.632	1	21
370.803	1	18
370.973	1	10
371.144	1	25
371.315	1	14
371.486	1	27
371.657	1	16
371.828	1	10
371.999	1	13
372.170	1	9
372.341	1	10
372.512	1	4
372.682	1	27
372.853	1	24
373.024	1	20
373.195	1	9
373.366	1	28
373.537	1	10
373.708	1	22
373.879	1	29
374.050	1	19
374.220	1	23
374.391	1	15
374.562	1	17
374.733	1	26
374.904	1	14
375.075	1	11
375.246	1	28
375.417	1	11
375.588	1	14
375.758	1	17
375.929	1	6
376.100	1	27
376.271	1	26
376.442	1	14
376.613	1	19
376.784	1	27
376.955	1	13
377.125	1	11
377.296	1	12
377.467	1	4
377.638	1	19
377.809	1	26
377.980	1	13
378.151	1	17
378.321	1	21
378.492	1	22
378.663	1	13
378.834	1	3
379.005	1	26
379.176	1	13
379.347	1	23
379.518	1	26
379.688	1	12
379.859	1	5
380.030	1	30
380.201	1	14
380.372	1	6
380.543	1	11
380.714	1	21
380.884	1	8
381.055	1	9
381.226	1	17
381.397	1	5
381.568	1	6
381.739	1	11
381.910	1	14
382.080	1	14
382.251	1	13
382.422	1	14
382.593	1	11
382.764	1	7
382.935	1	1
383.105	1	23
383.276	1	23
383.447	1	3
383.618	1	11
383.789	1	2
383.960	1	9
384.130	1	3
384.301	1	14
384.472	1	11
384.643	1	16
384.814	1	8
384.985	1	8
385.156	1	13
385.326	1	9
385.497	1	9
385.668	1	23
385.839	1	9
386.010	1	23
386.180	1	20
386.351	1	6
386.522	1	16
386.693	1	4
386.864	1	1
387.035	1	18
387.205	1	4
387.376	1	-2
387.547	1	10
387.718	1	3
387.889	1	1
388.060	1	6
388.230	1	16
388.401	1	28
388.572	1	7
388.743	1	24
388.914	1	7
389.084	1	15
389.255	1	4
389.426	1	8
389.597	1	21
389.768	1	13
389.939	1	9
390.109	1	-3
390.280	1	1
390.451	1	9
390.622	1	15
390.793	1	13
390.963	1	10
391.134	1	7
391.305	1	8
391.476	1	1
391.647	1	13
391.817	1	6
391.988	1	4
392.159	1	8
392.330	1	6
392.501	1	0
392.671	1	1
392.842	1	5
393.013	1	5
393.184	1	6
393.355	1	9
393.525	1	8
393.696	1	1
393.867	1	0
394.038	1	13
394.208	1	17
394.379	1	12
394.550	1	-2
394.721	1	6
394.892	1	5
395.062	1	4
395.233	1	8
395.404	1	4
395.575	1	4
395.746	1	13
395.916	1	6
396.087	1	13
396.258	1	1
396.429	1	19
396.599	1	6
396.770	1	-4
396.941	1	2
397.112	1	12
397.283	1	3
397.453	1	1
397.624	1	2
397.795	1	-1
397.966	1	7
398.136	1	10
398.307	1	6
398.478	1	8
398.649	1	1
398.819	1	15
398.990	1	9
399.161	1	2
399.332	1	-1
399.503	1	8
399.673	1	13
399.844	1	1
400.015	1	9
400.186	1	9
400.356	1	11
400.527	1	-4
400.698	1	17
400.869	1	2
401.039	1	15
401.210	1	6
401.381	1	2
401.552	1	3
401.722	1	7
401.893	1	6
402.064	1	10
402.235	1	4
402.405	1	-1
402.576	1	-1
402.747	1	7
402.918	1	-7
403.088	1	1
403.259	1	13
403.430	1	-5
403.601	1	6
403.771	1	-1
403.942	1	0
404.113	1	2
404.284	1	10
404.454	1	8
404.625	1	7
404.796	1	6
404.967	1	3
405.137	1	6
405.308	1	3
405.479	1	-8
405.649	1	14
405.820	1	2
405.991	1	12
406.162	1	-5
406.332	1	1
406.503	1	3
406.674	1	16
406.845	1	7
407.015	1	1
407.186	1	13
407.357	1	3
407.527	1	5
407.698	1	8
407.869	1	-7
408.040	1	6
408.210	1	13
408.381	1	0
408.552	1	8
408.722	1	7
408.893	1	5
409.064	1	9
409.235	1	7
409.405	1	5
409.576	1	14
409.747	1	8
409.917	1	1
410.088	1	9
410.259	1	4
410.430	1	13
410.600	1	-2
410.771	1	9
410.942	1	11
411.112	1	-3
411.283	1	3
411.454	1	12
411.625	1	6
411.795	1	3
411.966	1	-5
412.137	1	5
412.307	1	-2
412.478	1	-3
412.649	1	-3
412.819	1	11
412.990	1	1
413.161	1	17
413.332	1	5
413.502	1	6
413.673	1	4
413.844	1	5
414.014	1	6
414.185	1	1
414.356	1	-4
414.526	1	0
414.697	1	13
414.868	1	-1
415.038	1	17
415.209	1	3
415.380	1	8
415.550	1	-5
415.721	1	10
415.892	1	4
416.063	1	8
416.233	1	5
416.404	1	-5
416.575	1	7
416.745	1	2
416.916	1	14
417.087	1	1
417.257	1	4
417.428	1	-3
417.599	1	2
417.769	1	4
417.940	1	0
418.111	1	14
418.281	1	15
418.452	1	12
418.623	1	4
418.793	1	7
418.964	1	5
419.135	1	11
419.305	1	8
419.476	1	-3
419.647	1	-5
419.817	1	8
419.988	1	14
420.159	1	17
420.329	1	-2
420.500	1	1
420.671	1	12
420.841	1	10
421.012	1	11
421.183	1	10
421.353	1	6
421.524	1	3
421.695	1	-1
421.865	1	15
422.036	1	12
422.206	1	1
422.377	1	-13
422.548	1	3
422.718	1	8
422.889	1	20
423.060	1	5
423.230	1	2
423.401	1	3
423.572	1	7
423.742	1	-1
423.913	1	12
424.084	1	0
424.254	1	0
424.425	1	11
424.595	1	6
424.766	1	-3
424.937	1	2
425.107	1	9
425.278	1	3
425.449	1	3
425.619	1	24
425.790	1	10
425.961	1	1
426.131	1	-4
426.302	1	-3
426.472	1	-3
426.643	1	2
426.814	1	3
426.984	1	5
427.155	1	7
427.326	1	10
427.496	1	2
427.667	1	11
427.837	1	3
428.008	1	-3
428.179	1	1
428.349	1	-7
428.520	1	1
428.691	1	-2
428.861	1	-2
429.032	1	1
429.202	1	14
429.373	1	5
429.544	1	16
429.714	1	7
429.885	1	5
430.055	1	4
430.226	1	8
430.397	1	19
430.567	1	-4
430.738	1	1
430.909	1	-1
431.079	1	6
431.250	1	5
431.420	1	10
431.591	1	5
431.762	1	2
431.932	1	5
432.103	1	-9
432.273	1	8
432.444	1	-1
432.615	1	3
432.785	1	3
432.956	1	7
433.126	1	11
433.297	1	-4
433.468	1	15
433.638	1	5
433.809	1	8
433.979	1	-4
434.150	1	5
434.320	1	0
434.491	1	-7
434.662	1	3
434.832	1	5
435.003	1	2
435.173	1	0
435.344	1	4
435.515	1	9
435.685	1	0
435.856	1	-6
436.026	1	17
436.197	1	-1
436.368	1	7
436.538	1	8
436.709	1	7
436.879	1	-6
437.050	1	-1
437.220	1	-1
437.391	1	7
437.562	1	5
437.732	1	22
437.903	1	-3
438.073	1	-1
438.244	1	-11
438.414	1	10
438.585	1	4
438.756	1	7
438.926	1	0
439.097	1	-1
439.267	1	17
439.438	1	3
439.608	1	-2
439.779	1	2
439.949	1	11
440.120	1	11
440.291	1	-1
440.461	1	5
440.632	1	2
440.802	1	1
440.973	1	7
441.143	1	7
441.314	1	9
441.485	1	1
441.655	1	4
441.826	1	0
441.996	1	11
442.167	1	0
442.337	1	0
442.508	1	1
442.678	1	0
442.849	1	5
443.019	1	2
443.190	1	4
443.361	1	9
443.531	1	-1
443.702	1	-3
443.872	1	5
444.043	1	6
444.213	1	-3
444.384	1	6
444.554	1	5
444.725	1	10
444.895	1	3
445.066	1	5
445.237	1	-5
445.407	1	0
445.578	1	-2
445.748	1	11
445.919	1	1
446.089	1	2
446.260	1	10
446.430	1	7
446.601	1	-1
446.771	1	-4
446.942	1	0
447.112	1	2
447.283	1	0
447.453	1	5
447.624	1	6
447.794	1	7
447.965	1	2
448.135	1	-3
448.306	1	7
448.477	1	-4
448.647	1	-4
448.818	1	5
448.988	1	9
449.159	1	9
449.329	1	-5
449.500	1	-1
449.670	1	-5
449.841	1	5
450.011	1	-2
450.182	1	-11
450.352	1	4
450.523	1	6
450.693	1	14
450.864	1	1
451.034	1	4
451.205	1	-9
451.375	1	-1
451.546	1	0
451.716	1	8
451.887	1	1
452.057	1	3
452.228	1	-1
452.398	1	16
452.569	1	-4
452.739	1	-2
452.910	1	-5
453.080	1	1
453.251	1	-2
453.421	1	-4
453.592	1	0
453.762	1	7
453.933	1	-8
454.103	1	3
454.274	1	-5
454.444	1	7
454.615	1	1
454.785	1	5
454.956	1	12
455.126	1	-1
455.297	1	7
455.467	1	3
455.638	1	3
455.808	1	-2
455.979	1	-1
456.149	1	-1
456.320	1	11
456.490	1	0
456.661	1	13
456.831	1	7
457.001	1	14
457.172	1	5
457.342	1	3
457.513	1	6
457.683	1	2
457.854	1	-3
458.024	1	-2
458.195	1	9
458.365	1	-4
458.536	1	0
458.706	1	17
458.877	1	-2
459.047	1	9
459.218	1	5
459.388	1	6
459.559	1	0
459.729	1	0
459.899	1	1
460.070	1	5
460.240	1	6
460.411	1	6
460.581	1	-9
460.752	1	9
460.922	1	-6
461.093	1	3
461.263	1	7
461.434	1	-5
461.604	1	1
461.775	1	7
461.945	1	0
462.115	1	0
462.286	1	2
462.456	1	0
462.627	1	-7
462.797	1	4
462.968	1	0
463.138	1	10
463.309	1	11
463.479	1	-8
463.649	1	12
463.820	1	9
463.990	1	7
464.161	1	9
464.331	1	2
464.502	1	4
464.672	1	9
464.843	1	8
465.013	1	7
465.183	1	13
465.354	1	-1
465.524	1	0
465.695	1	2
465.865	1	1
466.036	1	2
466.206	1	-4
466.376	1	1
466.547	1	-4
466.717	1	-3
466.888	1	1
467.058	1	3
467.229	1	4
467.399	1	4
467.569	1	-3
467.740	1	2
467.910	1	2
468.081	1	-2
468.251	1	9
468.422	1	12
468.592	1	3
468.762	1	0
468.933	1	-2
469.103	1	3
469.274	1	3
469.444	1	1
469.614	1	-3
469.785	1	9
469.955	1	12
470.126	1	3
470.296	1	8
470.467	1	3
470.637	1	-9
470.807	1	2
470.978	1	3
471.148	1	-5
471.319	1	10
471.489	1	-7
471.659	1	13
471.830	1	2
472.000	1	-2
472.171	1	1
472.341	1	-2
472.511	1	8
472.682	1	-2
472.852	1	3
473.023	1	-6
473.193	1	0
473.363	1	8
473.534	1	14
473.704	1	2
473.875	1	5
474.045	1	-2
474.215	1	10
474.386	1	-3
474.556	1	2
474.727	1	2
474.897	1	6
475.067	1	-2
475.238	1	-4
475.408	1	10
475.578	1	1
475.749	1	-8
475.919	1	16
476.090	1	0
476.260	1	9
476.430	1	-4
476.601	1	0
476.771	1	1
476.942	1	3
477.112	1	-3
477.282	1	-8
477.453	1	-3
477.623	1	-10
477.793	1	1
477.964	1	2
478.134	1	2
478.305	1	1
478.475	1	7
478.645	1	11
478.816	1	1
478.986	1	-2
479.156	1	7
479.327	1	3
479.497	1	-2
479.667	1	2
479.838	1	2
480.008	1	-5
480.179	1	5
480.349	1	0
480.519	1	-1
480.690	1	-5
480.860	1	4
481.030	1	0
481.201	1	3
481.371	1	-9
481.541	1	7
481.712	1	8
481.882	1	3
482.053	1	0
482.223	1	-2
482.393	1	-6
482.564	1	4
482.734	1	8
482.904	1	12
483.075	1	2
483.245	1	-7
483.415	1	5
483.586	1	13
483.756	1	0
483.926	1	3
484.097	1	-2
484.267	1	12
484.437	1	-1
484.608	1	1
484.778	1	8
484.948	1	-1
485.119	1	-5
485.289	1	-4
485.459	1	9
485.630	1	6
485.800	1	0
485.970	1	2
486.141	1	0
486.311	1	0
486.481	1	2
486.652	1	10
486.822	1	0
486.992	1	2
487.163	1	7
487.333	1	-2
487.503	1	-4
487.674	1	-1
487.844	1	5
488.014	1	13
488.185	1	-6
488.355	1	1
488.525	1	6
488.696	1	14
488.866	1	-6
489.036	1	12
489.207	1	5
489.377	1	7
489.547	1	3
489.718	1	2
489.888	1	0
490.058	1	7
490.228	1	-6
490.399	1	-2
490.569	1	4
490.739	1	6
490.910	1	0
491.080	1	4
491.250	1	-1
491.421	1	-2
491.591	1	-1
491.761	1	2
491.932	1	7
492.102	1	-5
492.272	1	-10
492.442	1	-4
492.613	1	8
492.783	1	2
492.953	1	12
493.124	1	-6
493.294	1	6
493.464	1	5
493.635	1	1
493.805	1	-5
493.975	1	2
494.145	1	7
494.316	1	9
494.486	1	14
494.656	1	3
494.827	1	6
494.997	1	-7
495.167	1	7
495.337	1	-7
495.508	1	11
495.678	1	1
495.848	1	-4
496.019	1	-9
496.189	1	0
496.359	1	-10
496.529	1	-2
496.700	1	6
496.870	1	2
497.040	1	1
497.211	1	-3
497.381	1	-1
497.551	1	2
497.721	1	-9
497.892	1	1
498.062	1	-2
498.232	1	4
498.403	1	6
498.573	1	11
498.743	1	7
498.913	1	-24
499.084	1	-4
499.254	1	0
499.424	1	1
499.594	1	9
499.765	1	-7
499.935	1	9
500.105	1	8
500.275	1	-5
500.446	1	8
500.616	1	6
500.786	1	-2
500.956	1	7
501.127	1	5
501.297	1	10
501.467	1	13
501.638	1	4
501.808	1	6
501.978	1	6
502.148	1	-4
502.319	1	9
502.489	1	6
502.659	1	-4
502.829	1	16
503.000	1	11
503.170	1	-2
503.340	1	10
503.510	1	1
503.681	1	8
503.851	1	-7
504.021	1	6
504.191	1	6
504.362	1	4
504.532	1	4
504.702	1	4
504.872	1	8
505.042	1	7
505.213	1	7
505.383	1	9
505.553	1	-1
505.723	1	0
505.894	1	9
506.064	1	4
506.234	1	4
506.404	1	10
506.575	1	-7
506.745	1	6
506.915	1	-7
507.085	1	0
507.256	1	8
507.426	1	2
507.596	1	1
507.766	1	11
507.936	1	3
508.107	1	3
508.277	1	10
508.447	1	10
508.617	1	-5
508.788	1	-14
508.958	1	10
509.128	1	2
509.298	1	6
509.468	1	11
509.639	1	-2
509.809	1	3
509.979	1	5
510.149	1	7
510.319	1	8
510.490	1	8
510.660	1	6
510.830	1	-8
511.000	1	3
511.171	1	10
511.341	1	7
511.511	1	13
511.681	1	6
511.851	1	1
512.022	1	7
512.192	1	2
512.362	1	2
512.532	1	2
512.702	1	11
512.873	1	3
513.043	1	-2
513.213	1	14
513.383	1	2
513.553	1	0
513.724	1	5
513.894	1	20
514.064	1	3
514.234	1	5
514.404	1	8
514.575	1	2
514.745	1	-8
514.915	1	-12
515.085	1	5
515.255	1	-1
515.425	1	12
515.596	1	3
515.766	1	1
515.936	1	4
516.106	1	10
516.276	1	5
516.447	1	3
516.617	1	4
516.787	1	-3
516.957	1	1
517.127	1	-7
517.297	1	8
517.468	1	-6
517.638	1	0
517.808	1	-3
517.978	1	4
518.148	1	-2
518.319	1	1
518.489	1	0
518.659	1	-14
518.829	1	-1
518.999	1	-2
519.169	1	-3
519.340	1	8
519.510	1	-3
519.680	1	4
519.850	1	6
520.020	1	-2
520.190	1	-1
520.361	1	-9
520.531	1	10
520.701	1	-2
520.871	1	7
521.041	1	-5
521.211	1	-16
521.382	1	5
521.552	1	4
521.722	1	4
521.892	1	-1
522.062	1	2
522.232	1	-5
522.402	1	0
522.573	1	1
522.743	1	5
522.913	1	-6
523.083	1	10
523.253	1	5
523.423	1	9
523.593	1	-12
523.764	1	-1
523.934	1	2
524.104	1	3
524.274	1	-9
524.444	1	5
524.614	1	9
524.784	1	-3
524.955	1	5
525.125	1	-5
525.295	1	3
525.465	1	-6
525.635	1	9
525.805	1	5
525.975	1	7
526.146	1	10
526.316	1	-12
526.486	1	-8
526.656	1	-3
526.826	1	2
526.996	1	-10
527.166	1	0
527.337	1	9
527.507	1	2
527.677	1	-2
527.847	1	-13
528.017	1	-1
528.187	1	-7
528.357	1	2
528.527	1	3
528.698	1	-1
528.868	1	1
529.038	1	2
529.208	1	0
529.378	1	7
529.548	1	2
529.718	1	-8
529.888	1	3
530.058	1	-5
530.229	1	3
530.399	1	-5
530.569	1	9
530.739	1	4
530.909	1	-4
531.079	1	2
531.249	1	0
531.419	1	-3
531.589	1	-10
531.760	1	1
531.930	1	2
532.100	1	12
532.270	1	12
532.440	1	5
532.610	1	10
532.780	1	-6
532.950	1	6
533.120	1	3
533.290	1	-2
533.461	1	-8
533.631	1	-1
533.801	1	12
533.971	1	2
534.141	1	8
534.311	1	2
534.481	1	0
534.651	1	2
534.821	1	-4
534.991	1	4
535.162	1	-6
535.332	1	-4
535.502	1	5
535.672	1	-1
535.842	1	1
536.012	1	10
536.182	1	3
536.352	1	-1
536.522	1	-9
536.692	1	-3
536.862	1	-4
537.032	1	13
537.203	1	-1
537.373	1	-7
537.543	1	7
537.713	1	-4
537.883	1	-2
538.053	1	3
538.223	1	6
538.393	1	1
538.563	1	-3
538.733	1	5
538.903	1	-4
539.073	1	10
539.243	1	-4
539.413	1	1
539.584	1	1
539.754	1	-4
539.924	1	3
540.094	1	7
540.264	1	-8
540.434	1	0
540.604	1	2
540.774	1	9
540.944	1	10
541.114	1	1
541.284	1	11
541.454	1	4
541.624	1	11
541.794	1	-2
541.964	1	0
542.134	1	3
542.305	1	13
542.475	1	6
542.645	1	-10
542.815	1	6
542.985	1	5
543.155	1	4
543.325	1	3
543.495	1	5
543.665	1	-9
543.835	1	10
544.005	1	10
544.175	1	-2
544.345	1	6
544.515	1	3
544.685	1	2
544.855	1	3
545.025	1	5
545.195	1	-2
545.365	1	17
545.535	1	5
545.705	1	-2
545.875	1	8
546.045	1	-4
546.216	1	-2
546.386	1	3
546.556	1	6
546.726	1	-5
546.896	1	2
547.066	1	-1
547.236	1	7
547.406	1	1
547.576	1	-14
547.746	1	3
547.916	1	-2
548.086	1	1
548.256	1	2
548.426	1	20
548.596	1	5
548.766	1	-1
548.936	1	3
549.106	1	1
549.276	1	-7
549.446	1	6
549.616	1	4
549.786	1	6
549.956	1	10
550.126	1	-1
550.296	1	5
550.466	1	3
550.636	1	6
550.806	1	4
550.976	1	12
551.146	1	3
551.316	1	-9
551.486	1	6
551.656	1	-5
551.826	1	7
551.996	1	7
552.166	1	-5
552.336	1	1
552.506	1	2
552.676	1	-4
552.846	1	-2
553.016	1	9
553.186	1	4
553.356	1	-10
553.526	1	3
553.696	1	-4
553.866	1	7
554.036	1	12
554.206	1	-3
554.376	1	5
554.546	1	7
554.716	1	8
554.886	1	1
555.056	1	13
555.226	1	2
555.396	1	7
555.566	1	4
555.736	1	-8
555.906	1	-6
556.076	1	2
556.246	1	8
556.416	1	0
556.586	1	4
556.756	1	6
556.926	1	-1
557.096	1	-8
557.266	1	15
557.436	1	7
557.606	1	2
557.776	1	1
557.946	1	2
558.116	1	10
558.286	1	1
558.456	1	2
558.626	1	-2
558.796	1	14
558.966	1	-5
559.136	1	3
559.306	1	11
559.476	1	-2
559.646	1	-1
559.816	1	1
559.986	1	7
560.155	1	-1
560.325	1	1
560.495	1	5
560.665	1	7
560.835	1	8
561.005	1	-1
561.175	1	1
561.345	1	2
561.515	1	3
561.685	1	9
561.855	1	14
562.025	1	2
562.195	1	13
562.365	1	-2
562.535	1	-4
562.705	1	6
562.875	1	-3
563.045	1	2
563.215	1	13
563.385	1	8
563.555	1	-1
563.725	1	3
563.895	1	2
564.064	1	-1
564.234	1	4
564.404	1	5
564.574	1	7
564.744	1	-8
564.914	1	2
565.084	1	10
565.254	1	8
565.424	1	-8
565.594	1	2
565.764	1	8
565.934	1	0
566.104	1	-10
566.274	1	1
566.444	1	-1
566.614	1	0
566.783	1	8
566.953	1	-8
567.123	1	2
567.293	1	-3
567.463	1	-1
567.633	1	4
567.803	1	5
567.973	1	1
568.143	1	10
568.313	1	8
568.483	1	0
568.653	1	11
568.823	1	-3
568.993	1	3
569.162	1	3
569.332	1	7
569.502	1	2
569.672	1	13
569.842	1	-5
570.012	1	5
570.182	1	4
570.352	1	6
570.522	1	6
570.692	1	4
570.862	1	-3
571.031	1	-7
571.201	1	-7
571.371	1	1
571.541	1	12
571.711	1	16
571.881	1	6
572.051	1	1
572.221	1	-4
572.391	1	-1
572.561	1	-3
572.731	1	1
572.900	1	8
573.070	1	7
573.240	1	3
573.410	1	1
573.580	1	-2
573.750	1	5
573.920	1	-7
574.090	1	6
574.260	1	-6
574.430	1	1
574.599	1	19
574.769	1	-5
574.939	1	-6
575.109	1	6
575.279	1	16
575.449	1	0
575.619	1	8
575.789	1	1
575.959	1	3
576.128	1	0
576.298	1	-1
576.468	1	-1
576.638	1	5
576.808	1	-5
576.978	1	12
577.148	1	4
577.318	1	9
577.487	1	12
577.657	1	2
577.827	1	5
577.997	1	2
578.167	1	-2
578.337	1	6
578.507	1	1
578.677	1	-3
578.846	1	-1
579.016	1	19
579.186	1	-3
579.356	1	-1
579.526	1	0
579.696	1	-5
579.866	1	-1
580.036	1	1
580.205	1	5
580.375	1	13
580.545	1	-2
580.715	1	10
580.885	1	-1
581.055	1	7
581.225	1	-1
581.394	1	-4
581.564	1	-2
581.734	1	0
581.904	1	-10
582.074	1	-8
582.244	1	7
582.414	1	12
582.583	1	0
582.753	1	-1
582.923	1	4
583.093	1	-1
583.263	1	-4
583.433	1	-10
583.603	1	9
583.772	1	12
583.942	1	-5
584.112	1	0
584.282	1	11
584.452	1	5
584.622	1	-3
584.791	1	6
584.961	1	8
585.131	1	-1
585.301	1	0
585.471	1	1
585.641	1	1
585.811	1	2
585.980	1	0
586.150	1	-1
586.320	1	7
586.490	1	-6
586.660	1	3
586.830	1	6
586.999	1	0
587.169	1	-3
587.339	1	-5
587.509	1	5
587.679	1	9
587.849	1	6
588.018	1	7
588.188	1	9
588.358	1	5
588.528	1	2
588.698	1	10
588.867	1	5
589.037	1	2
589.207	1	12
589.377	1	1
589.547	1	1
589.717	1	0
589.886	1	2
590.056	1	4
590.226	1	0
590.396	1	6
590.566	1	7
590.735	1	8
590.905	1	-3
591.075	1	-4
591.245	1	6
591.415	1	-2
591.585	1	4
591.754	1	6
591.924	1	2
592.094	1	-3
592.264	1	0
592.434	1	1
592.603	1	-9
592.773	1	4
592.943	1	2
593.113	1	9
593.283	1	2
593.452	1	-6
593.622	1	5
593.792	1	-2
593.962	1	-6
594.132	1	10
594.301	1	3
594.471	1	1
594.641	1	-3
594.811	1	6
594.981	1	2
595.150	1	9
595.320	1	4
595.490	1	4
595.660	1	4
595.829	1	6
595.999	1	-9
596.169	1	-10
596.339	1	11
596.509	1	4
596.678	1	5
596.848	1	6
597.018	1	3
597.188	1	6
597.358	1	3
597.527	1	13
597.697	1	-2
597.867	1	4
598.037	1	2
598.206	1	0
598.376	1	1
598.546	1	9
598.716	1	3
598.885	1	-4
599.055	1	-3
599.225	1	4
599.395	1	-1
599.565	1	-5
599.734	1	-1
599.904	1	2
600.074	1	-2
600.244	1	1
600.413	1	-6
600.583	1	11
600.753	1	4
600.923	1	8
601.092	1	4
601.262	1	10
601.432	1	-3
601.602	1	5
601.771	1	-2
601.941	1	9
602.111	1	8
602.281	1	10
602.451	1	12
602.620	1	3
602.790	1	-4
602.960	1	16
603.130	1	1
603.299	1	-2
603.469	1	5
603.639	1	-6
603.809	1	9
603.978	1	14
604.148	1	-10
604.318	1	-3
604.487	1	8
604.657	1	10
604.827	1	4
604.997	1	6
605.166	1	10
605.336	1	3
605.506	1	-2
605.676	1	8
605.845	1	8
606.015	1	7
606.185	1	0
606.355	1	-1
606.524	1	5
606.694	1	3
606.864	1	-5
607.034	1	7
607.203	1	0
607.373	1	-3
607.543	1	-2
607.712	1	9
607.882	1	6
608.052	1	8
608.222	1	5
608.391	1	6
608.561	1	11
608.731	1	6
608.901	1	3
609.070	1	5
609.240	1	6
609.410	1	7
609.579	1	0
609.749	1	5
609.919	1	9
610.089	1	0
610.258	1	2
610.428	1	0
610.598	1	10
610.767	1	-14
610.937	1	2
611.107	1	-4
611.277	1	4
611.446	1	14
611.616	1	9
611.786	1	4
611.955	1	-8
612.125	1	2
612.295	1	-2
612.465	1	5
612.634	1	-4
612.804	1	12
612.974	1	6
613.143	1	5
613.313	1	2
613.483	1	-1
613.652	1	11
613.822	1	6
613.992	1	0
614.162	1	0
614.331	1	-10
614.501	1	5
614.671	1	7
614.840	1	9
615.010	1	13
615.180	1	-2
615.349	1	5
615.519	1	-12
615.689	1	5
615.858	1	-4
616.028	1	3
616.198	1	2
616.368	1	9
616.537	1	-3
616.707	1	0
616.877	1	-5
617.046	1	2
617.216	1	-1
617.386	1	-7
617.555	1	4
617.725	1	-1
617.895	1	13
618.064	1	-1
618.234	1	-1
618.404	1	7
618.573	1	8
618.743	1	-3
618.913	1	-1
619.082	1	1
619.252	1	-1
619.422	1	20
619.591	1	12
619.761	1	8
619.931	1	-2
620.100	1	2
620.270	1	2
620.440	1	-4
620.609	1	-1
620.779	1	-1
620.949	1	4
621.118	1	1
621.288	1	-8
621.458	1	7
621.627	1	7
621.797	1	12
621.967	1	6
622.136	1	3
622.306	1	7
622.476	1	12
622.645	1	10
622.815	1	-3
622.985	1	-6
623.154	1	1
623.324	1	6
623.494	1	-6
623.663	1	4
623.833	1	9
624.002	1	-10
624.172	1	2
624.342	1	-6
624.511	1	6
624.681	1	4
624.851	1	-3
625.020	1	-2
625.190	1	0
625.360	1	1
625.529	1	4
625.699	1	11
625.869	1	1
626.038	1	3
626.208	1	12
626.377	1	11
626.547	1	-11
626.717	1	-8
626.886	1	5
627.056	1	-1
627.226	1	1
627.395	1	5
627.565	1	10
627.735	1	6
627.904	1	11
628.074	1	-1
628.243	1	6
628.413	1	2
628.583	1	6
628.752	1	2
628.922	1	14
629.091	1	2
629.261	1	-5
629.431	1	4
629.600	1	1
629.770	1	-1
629.940	1	2
630.109	1	9
630.279	1	7
630.448	1	0
630.618	1	1
630.788	1	4
630.957	1	5
631.127	1	11
631.297	1	-5
631.466	1	0
631.636	1	11
631.805	1	6
631.975	1	9
632.145	1	1
632.314	1	-4
632.484	1	6
632.653	1	1
632.823	1	8
632.993	1	9
633.162	1	0
633.332	1	10
633.501	1	4
633.671	1	5
633.841	1	3
634.010	1	9
634.180	1	-9
634.349	1	3
634.519	1	3
634.689	1	13
634.858	1	8
635.028	1	3
635.197	1	-3
635.367	1	8
635.537	1	26
635.706	1	0
635.876	1	0
636.045	1	11
636.215	1	11
636.384	1	2
636.554	1	11
636.724	1	-1
636.893	1	9
637.063	1	-5
637.232	1	-5
637.402	1	2
637.572	1	-2
637.741	1	8
637.911	1	-5
638.080	1	7
638.250	1	-2
638.419	1	8
638.589	1	-6
638.759	1	3
638.928	1	3
639.098	1	20
639.267	1	9
639.437	1	1
639.606	1	4
639.776	1	-1
639.946	1	8
640.115	1	-6
640.285	1	2
640.454	1	10
640.624	1	-4
640.793	1	-4
640.963	1	3
641.132	1	-5
641.302	1	-3
641.472	1	0
641.641	1	4
641.811	1	0
641.980	1	-4
642.150	1	-2
642.319	1	2
642.489	1	0
642.659	1	3
642.828	1	-3
642.998	1	-2
643.167	1	3
643.337	1	4
643.506	1	-3
643.676	1	5
643.845	1	0
644.015	1	2
644.184	1	-1
644.354	1	2
644.524	1	5
644.693	1	2
644.863	1	-1
645.032	1	7
645.202	1	-11
645.371	1	4
645.541	1	1
645.710	1	-3
645.880	1	9
646.049	1	-11
646.219	1	-1
646.388	1	-3
646.558	1	1
646.728	1	2
646.897	1	19
647.067	1	0
647.236	1	-6
647.406	1	10
647.575	1	-1
647.745	1	-2
647.914	1	7
648.084	1	4
648.253	1	3
648.423	1	3
648.592	1	1
648.762	1	5
648.931	1	6
649.101	1	-2
649.270	1	-7
649.440	1	9
649.610	1	5
649.779	1	-1
649.949	1	1
650.118	1	1
650.288	1	3
650.457	1	-1
650.627	1	6
650.796	1	3
650.966	1	-4
651.135	1	1
651.305	1	13
651.474	1	25
651.644	1	-2
651.813	1	-1
651.983	1	-3
652.152	1	1
652.322	1	7
652.491	1	12
652.661	1	1
652.830	1	4
653.000	1	10
653.169	1	-4
653.339	1	6
653.508	1	7
653.678	1	7
653.847	1	-6
654.017	1	-2
654.186	1	14
654.356	1	7
654.525	1	6
654.695	1	2
654.864	1	4
655.034	1	9
655.203	1	6
655.373	1	14
655.542	1	-2
655.712	1	-9
655.881	1	9
656.051	1	-1
656.220	1	6
656.390	1	15
656.559	1	9
656.729	1	-6
656.898	1	7
657.068	1	3
657.237	1	-3
657.406	1	-1
657.576	1	-6
657.745	1	9
657.915	1	4
658.084	1	-1
658.254	1	-6
658.423	1	-3
658.593	1	-4
658.762	1	6
658.932	1	12
659.101	1	-3
659.271	1	0
659.440	1	12
659.610	1	3
659.779	1	8
659.949	1	-1
660.118	1	-1
660.288	1	1
660.457	1	3
660.626	1	2
660.796	1	8
660.965	1	5
661.135	1	10
661.304	1	7
661.474	1	-10
661.643	1	-1
661.813	1	-11
661.982	1	9
662.152	1	4
662.321	1	9
662.491	1	4
662.660	1	8
662.829	1	-5
662.999	1	-3
663.168	1	2
663.338	1	-3
663.507	1	6
663.677	1	3
663.846	1	-5
664.016	1	14
664.185	1	-5
664.354	1	4
664.524	1	0
664.693	1	10
664.863	1	10
665.032	1	-3
665.202	1	3
665.371	1	-5
665.541	1	-4
665.710	1	-6
665.879	1	10
666.049	1	3
666.218	1	-1
666.388	1	11
666.557	1	-7
666.727	1	-4
666.896	1	-4
667.065	1	11
667.235	1	12
667.404	1	13
667.574	1	4
667.743	1	-6
667.913	1	8
668.082	1	4
668.251	1	11
668.421	1	12
668.590	1	-2
668.760	1	6
668.929	1	1
669.099	1	-6
669.268	1	-1
669.437	1	11
669.607	1	11
669.776	1	17
669.946	1	2
670.115	1	7
670.285	1	-8
670.454	1	5
670.623	1	-1
670.793	1	4
670.962	1	-2
671.132	1	2
671.301	1	1
671.470	1	10
671.640	1	-6
671.809	1	3
671.979	1	1
672.148	1	7
672.317	1	5
672.487	1	9
672.656	1	8
672.826	1	0
672.995	1	1
673.164	1	0
673.334	1	-9
673.503	1	10
673.673	1	1
673.842	1	4
674.011	1	3
674.181	1	13
674.350	1	4
674.520	1	-3
674.689	1	16
674.858	1	-1
675.028	1	0
675.197	1	6
675.367	1	-2
675.536	1	0
675.705	1	0
675.875	1	-5
676.044	1	9
676.214	1	6
676.383	1	21
676.552	1	9
676.722	1	13
676.891	1	0
677.060	1	14
677.230	1	-6
677.399	1	2
677.569	1	-10
677.738	1	-3
677.907	1	3
678.077	1	-2
678.246	1	-6
678.416	1	10
678.585	1	4
678.754	1	8
678.924	1	10
679.093	1	7
679.262	1	11
679.432	1	-1
679.601	1	1
679.771	1	7
679.940	1	-4
680.109	1	2
680.279	1	0
680.448	1	0
680.617	1	-7
680.787	1	-1
680.956	1	-1
681.125	1	7
681.295	1	10
681.464	1	8
681.634	1	8
681.803	1	7
681.972	1	-6
682.142	1	2
682.311	1	-2
682.480	1	-5
682.650	1	2
682.819	1	-2
682.988	1	-2
683.158	1	2
683.327	1	13
683.496	1	-3
683.666	1	7
683.835	1	-8
684.004	1	8
684.174	1	0
684.343	1	4
684.512	1	-2
684.682	1	-4
684.851	1	0
685.021	1	6
685.190	1	1
685.359	1	0
685.529	1	-2
685.698	1	5
685.867	1	10
686.037	1	-5
686.206	1	10
686.375	1	-1
686.545	1	7
686.714	1	0
686.883	1	-6
687.053	1	-3
687.222	1	4
687.391	1	3
687.561	1	1
687.730	1	-9
687.899	1	6
688.069	1	-8
688.238	1	0
688.407	1	8
688.577	1	3
688.746	1	-3
