340.368	1	0
340.539	1	6
340.710	1	10
340.881	1	4
341.052	1	6
341.223	1	3
341.394	1	9
341.565	1	-8
341.737	1	0
341.908	1	7
342.079	1	3
342.250	1	0
342.421	1	-13
342.592	1	1
342.763	1	-6
342.934	1	6
343.105	1	6
343.276	1	-4
343.447	1	14
343.618	1	-9
343.789	1	2
343.960	1	-11
344.131	1	-4
344.302	1	10
344.473	1	-8
344.644	1	5
344.815	1	8
344.986	1	-7
345.157	1	6
345.328	1	-2
345.499	1	12
345.670	1	1
345.841	1	1
346.012	1	6
346.183	1	16
346.354	1	0
346.526	1	0
346.697	1	0
346.868	1	5
347.039	1	8
347.210	1	-2
347.381	1	3
347.552	1	5
347.723	1	7
347.894	1	2
348.065	1	-8
348.236	1	-1
348.407	1	4
348.578	1	0
348.749	1	5
348.920	1	10
349.091	1	5
349.262	1	4
349.433	1	7
349.604	1	6
349.775	1	6
349.946	1	4
350.117	1	9
350.288	1	4
350.459	1	6
350.630	1	6
350.801	1	2
350.972	1	11
351.143	1	12
351.314	1	3
351.485	1	2
351.656	1	3
351.827	1	14
351.998	1	3
352.169	1	-1
352.340	1	5
352.511	1	11
352.682	1	4
352.853	1	5
353.024	1	7
353.195	1	3
353.366	1	2
353.537	1	15
353.708	1	6
353.879	1	3
354.050	1	5
354.221	1	7
354.392	1	5
354.563	1	19
354.734	1	9
354.905	1	4
355.076	1	13
355.247	1	7
355.418	1	13
355.589	1	13
355.760	1	0
355.931	1	-3
356.102	1	8
356.273	1	6
356.444	1	10
356.615	1	9
356.785	1	9
356.956	1	2
357.127	1	9
357.298	1	12
357.469	1	20
357.640	1	21
357.811	1	13
357.982	1	15
358.153	1	7
358.324	1	10
358.495	1	4
358.666	1	3
358.837	1	19
359.008	1	8
359.179	1	10
359.350	1	19
359.521	1	10
359.692	1	23
359.863	1	12
360.034	1	14
360.205	1	17
360.376	1	18
360.547	1	2
360.718	1	12
360.889	1	21
361.060	1	31
361.231	1	18
361.401	1	18
361.572	1	15
361.743	1	24
361.914	1	18
362.085	1	16
362.256	1	21
362.427	1	11
362.598	1	22
362.769	1	26
362.940	1	25
363.111	1	25
363.282	1	11
363.453	1	18
363.624	1	19
363.795	1	17
363.966	1	18
364.137	1	20
364.308	1	33
364.478	1	28
364.649	1	23
364.820	1	32
364.991	1	36
365.162	1	33
365.333	1	26
365.504	1	20
365.675	1	25
365.846	1	36
366.017	1	35
366.188	1	38
366.359	1	43
366.530	1	31
366.701	1	34
366.871	1	41
367.042	1	50
367.213	1	44
367.384	1	42
367.555	1	36
367.726	1	42
367.897	1	49
368.068	1	46
368.239	1	40
368.410	1	39
368.581	1	42
368.752	1	46
368.923	1	53
369.093	1	45
369.264	1	51
369.435	1	46
369.606	1	49
369.777	1	42
369.948	1	55
370.119	1	53
370.290	1	52
370.461	1	60
370.632	1	46
370.803	1	40
370.973	1	51
371.144	1	61
371.315	1	48
371.486	1	60
371.657	1	57
371.828	1	50
371.999	1	44
372.170	1	57
372.341	1	69
372.512	1	48
372.682	1	66
372.853	1	55
373.024	1	64
373.195	1	52
373.366	1	67
373.537	1	57
373.708	1	79
373.879	1	55
374.050	1	63
374.220	1	60
374.391	1	50
374.562	1	67
374.733	1	65
374.904	1	62
375.075	1	58
375.246	1	69
375.417	1	58
375.588	1	57
375.758	1	55
375.929	1	72
376.100	1	61
376.271	1	65
376.442	1	54
376.613	1	58
376.784	1	52
376.955	1	58
377.125	1	49
377.296	1	54
377.467	1	54
377.638	1	65
377.809	1	54
377.980	1	56
378.151	1	57
378.321	1	45
378.492	1	51
378.663	1	45
378.834	1	31
379.005	1	47
379.176	1	54
379.347	1	53
379.518	1	57
379.688	1	45
379.859	1	38
380.030	1	58
380.201	1	37
380.372	1	45
380.543	1	40
380.714	1	48
380.884	1	35
381.055	1	40
381.226	1	46
381.397	1	38
381.568	1	34
381.739	1	30
381.910	1	46
382.080	1	45
382.251	1	38
382.422	1	41
382.593	1	44
382.764	1	33
382.935	1	30
383.105	1	38
383.276	1	46
383.447	1	27
383.618	1	32
383.789	1	26
383.960	1	26
384.130	1	28
384.301	1	38
384.472	1	32
384.643	1	34
384.814	1	31
384.985	1	32
385.156	1	39
385.326	1	34
385.497	1	27
385.668	1	32
385.839	1	30
386.010	1	32
386.180	1	25
386.351	1	20
386.522	1	26
386.693	1	26
386.864	1	29
387.035	1	36
387.205	1	30
387.376	1	21
387.547	1	37
387.718	1	27
387.889	1	32
388.060	1	19
388.230	1	37
388.401	1	32
388.572	1	28
388.743	1	29
388.914	1	28
389.084	1	21
389.255	1	24
389.426	1	26
389.597	1	29
389.768	1	27
389.939	1	33
390.109	1	20
390.280	1	17
390.451	1	18
390.622	1	17
390.793	1	28
390.963	1	25
391.134	1	16
391.305	1	30
391.476	1	7
391.647	1	9
391.817	1	14
391.988	1	5
392.159	1	14
392.330	1	8
392.501	1	14
392.671	1	0
392.842	1	15
393.013	1	15
393.184	1	5
393.355	1	12
393.525	1	7
393.696	1	14
393.867	1	14
394.038	1	20
394.208	1	18
394.379	1	21
394.550	1	5
394.721	1	15
394.892	1	21
395.062	1	10
395.233	1	19
395.404	1	6
395.575	1	7
395.746	1	15
395.916	1	13
396.087	1	18
396.258	1	22
396.429	1	21
396.599	1	3
396.770	1	13
396.941	1	2
397.112	1	21
397.283	1	6
397.453	1	12
397.624	1	6
397.795	1	22
397.966	1	21
398.136	1	13
398.307	1	17
398.478	1	12
398.649	1	12
398.819	1	8
398.990	1	8
399.161	1	11
399.332	1	10
399.503	1	12
399.673	1	18
399.844	1	5
400.015	1	18
400.186	1	7
400.356	1	15
400.527	1	1
400.698	1	10
400.869	1	11
401.039	1	11
401.210	1	12
401.381	1	10
401.552	1	19
401.722	1	11
401.893	1	12
402.064	1	13
402.235	1	8
402.405	1	13
402.576	1	2
402.747	1	10
402.918	1	10
403.088	1	1
403.259	1	17
403.430	1	-6
403.601	1	11
403.771	1	4
403.942	1	6
404.113	1	6
404.284	1	19
404.454	1	10
404.625	1	12
404.796	1	5
404.967	1	12
405.137	1	8
405.308	1	5
405.479	1	8
405.649	1	17
405.820	1	3
405.991	1	15
406.162	1	5
406.332	1	-6
406.503	1	10
406.674	1	15
406.845	1	2
407.015	1	7
407.186	1	4
407.357	1	9
407.527	1	8
407.698	1	5
407.869	1	-1
408.040	1	14
408.210	1	17
408.381	1	16
408.552	1	4
408.722	1	11
408.893	1	13
409.064	1	8
409.235	1	17
409.405	1	9
409.576	1	12
409.747	1	7
409.917	1	16
410.088	1	15
410.259	1	10
410.430	1	12
410.600	1	13
410.771	1	-1
410.942	1	6
411.112	1	-3
411.283	1	13
411.454	1	10
411.625	1	18
411.795	1	8
411.966	1	9
412.137	1	-2
412.307	1	0
412.478	1	7
412.649	1	-7
412.819	1	7
412.990	1	3
413.161	1	9
413.332	1	17
413.502	1	7
413.673	1	19
413.844	1	8
414.014	1	14
414.185	1	7
414.356	1	13
414.526	1	9
414.697	1	11
414.868	1	-5
415.038	1	10
415.209	1	12
415.380	1	10
415.550	1	-1
415.721	1	10
415.892	1	9
416.063	1	10
416.233	1	13
416.404	1	1
416.575	1	22
416.745	1	14
416.916	1	17
417.087	1	2
417.257	1	1
417.428	1	0
417.599	1	2
417.769	1	12
417.940	1	3
418.111	1	16
418.281	1	12
418.452	1	3
418.623	1	0
418.793	1	4
418.964	1	-6
419.135	1	15
419.305	1	1
419.476	1	-1
419.647	1	8
419.817	1	1
419.988	1	13
420.159	1	20
420.329	1	5
420.500	1	1
420.671	1	14
420.841	1	3
421.012	1	13
421.183	1	4
421.353	1	11
421.524	1	5
421.695	1	8
421.865	1	22
422.036	1	12
422.206	1	-2
422.377	1	-1
422.548	1	-1
422.718	1	4
422.889	1	8
423.060	1	5
423.230	1	2
423.401	1	16
423.572	1	7
423.742	1	-2
423.913	1	8
424.084	1	7
424.254	1	6
424.425	1	11
424.595	1	10
424.766	1	6
424.937	1	-6
425.107	1	16
425.278	1	9
425.449	1	5
425.619	1	14
425.790	1	8
425.961	1	11
426.131	1	-9
426.302	1	3
426.472	1	-3
426.643	1	3
426.814	1	1
426.984	1	16
427.155	1	3
427.326	1	6
427.496	1	4
427.667	1	6
427.837	1	7
428.008	1	12
428.179	1	7
428.349	1	13
428.520	1	5
428.691	1	11
428.861	1	-1
429.032	1	7
429.202	1	13
429.373	1	6
429.544	1	8
429.714	1	13
429.885	1	5
430.055	1	8
430.226	1	17
430.397	1	24
430.567	1	1
430.738	1	3
430.909	1	-1
431.079	1	14
431.250	1	10
431.420	1	11
431.591	1	11
431.762	1	7
431.932	1	5
432.103	1	-5
432.273	1	16
432.444	1	12
432.615	1	12
432.785	1	5
432.956	1	9
433.126	1	8
433.297	1	3
433.468	1	19
433.638	1	5
433.809	1	5
433.979	1	2
434.150	1	5
434.320	1	4
434.491	1	-1
434.662	1	7
434.832	1	3
435.003	1	16
435.173	1	3
435.344	1	6
435.515	1	12
435.685	1	3
435.856	1	-3
436.026	1	12
436.197	1	12
436.368	1	20
436.538	1	7
436.709	1	6
436.879	1	-4
437.050	1	3
437.220	1	1
437.391	1	9
437.562	1	6
437.732	1	12
437.903	1	0
438.073	1	-8
438.244	1	-3
438.414	1	9
438.585	1	6
438.756	1	12
438.926	1	5
439.097	1	8
439.267	1	6
439.438	1	8
439.608	1	5
439.779	1	11
439.949	1	10
440.120	1	20
440.291	1	3
440.461	1	5
440.632	1	8
440.802	1	11
440.973	1	18
441.143	1	11
441.314	1	7
441.485	1	6
441.655	1	9
441.826	1	3
441.996	1	4
442.167	1	8
442.337	1	-7
442.508	1	2
442.678	1	7
442.849	1	7
443.019	1	7
443.190	1	0
443.361	1	5
443.531	1	-8
443.702	1	2
443.872	1	1
444.043	1	7
444.213	1	4
444.384	1	11
444.554	1	6
444.725	1	3
444.895	1	3
445.066	1	13
445.237	1	0
445.407	1	-2
445.578	1	0
445.748	1	14
445.919	1	-5
446.089	1	2
446.260	1	8
446.430	1	8
446.601	1	0
446.771	1	10
446.942	1	8
447.112	1	1
447.283	1	5
447.453	1	10
447.624	1	6
447.794	1	16
447.965	1	6
448.135	1	-4
448.306	1	7
448.477	1	2
448.647	1	3
448.818	1	5
448.988	1	4
449.159	1	10
449.329	1	0
449.500	1	-2
449.670	1	2
449.841	1	3
450.011	1	7
450.182	1	3
450.352	1	13
450.523	1	6
450.693	1	-2
450.864	1	-3
451.034	1	4
451.205	1	-6
451.375	1	-2
451.546	1	3
451.716	1	4
451.887	1	-2
452.057	1	13
452.228	1	7
452.398	1	11
452.569	1	-8
452.739	1	1
452.910	1	-8
453.080	1	8
453.251	1	-5
453.421	1	1
453.592	1	6
453.762	1	7
453.933	1	6
454.103	1	12
454.274	1	-7
454.444	1	5
454.615	1	-2
454.785	1	3
454.956	1	11
455.126	1	4
455.297	1	14
455.467	1	4
455.638	1	9
455.808	1	10
455.979	1	12
456.149	1	6
456.320	1	9
456.490	1	-5
456.661	1	21
456.831	1	10
457.001	1	7
457.172	1	1
457.342	1	-3
457.513	1	7
457.683	1	0
457.854	1	1
458.024	1	-1
458.195	1	-2
458.365	1	1
458.536	1	5
458.706	1	20
458.877	1	9
459.047	1	10
459.218	1	-1
459.388	1	6
459.559	1	7
459.729	1	7
459.899	1	3
460.070	1	6
460.240	1	6
460.411	1	9
460.581	1	-1
460.752	1	13
460.922	1	-3
461.093	1	10
461.263	1	8
461.434	1	0
461.604	1	4
461.775	1	6
461.945	1	7
462.115	1	4
462.286	1	1
462.456	1	-5
462.627	1	-6
462.797	1	4
462.968	1	1
463.138	1	7
463.309	1	13
463.479	1	7
463.649	1	7
463.820	1	10
463.990	1	4
464.161	1	-2
464.331	1	-5
464.502	1	9
464.672	1	13
464.843	1	-2
465.013	1	7
465.183	1	-6
465.354	1	10
465.524	1	-5
465.695	1	10
465.865	1	1
466.036	1	7
466.206	1	-1
466.376	1	4
466.547	1	2
466.717	1	-3
466.888	1	1
467.058	1	8
467.229	1	-5
467.399	1	6
467.569	1	5
467.740	1	1
467.910	1	14
468.081	1	9
468.251	1	10
468.422	1	8
468.592	1	9
468.762	1	6
468.933	1	1
469.103	1	1
469.274	1	7
469.444	1	9
469.614	1	1
469.785	1	11
469.955	1	14
470.126	1	5
470.296	1	10
470.467	1	4
470.637	1	2
470.807	1	0
470.978	1	3
471.148	1	-1
471.319	1	4
471.489	1	2
471.659	1	12
471.830	1	2
472.000	1	3
472.171	1	-3
472.341	1	6
472.511	1	6
472.682	1	1
472.852	1	6
473.023	1	2
473.193	1	11
473.363	1	5
473.534	1	6
473.704	1	9
473.875	1	9
474.045	1	2
474.215	1	7
474.386	1	-2
474.556	1	6
474.727	1	-4
474.897	1	1
475.067	1	5
475.238	1	7
475.408	1	8
475.578	1	2
475.749	1	3
475.919	1	8
476.090	1	1
476.260	1	19
476.430	1	4
476.601	1	15
476.771	1	7
476.942	1	0
477.112	1	0
477.282	1	9
477.453	1	4
477.623	1	2
477.793	1	-1
477.964	1	7
478.134	1	6
478.305	1	9
478.475	1	20
478.645	1	0
478.816	1	4
478.986	1	3
479.156	1	3
479.327	1	9
479.497	1	0
479.667	1	0
479.838	1	6
480.008	1	-5
480.179	1	11
480.349	1	3
480.519	1	11
480.690	1	0
480.860	1	4
481.030	1	-7
481.201	1	12
481.371	1	-9
481.541	1	6
481.712	1	7
481.882	1	8
482.053	1	6
482.223	1	-4
482.393	1	-1
482.564	1	-1
482.734	1	3
482.904	1	-1
483.075	1	9
483.245	1	-2
483.415	1	-1
483.586	1	17
483.756	1	7
483.926	1	0
484.097	1	0
484.267	1	15
484.437	1	-4
484.608	1	4
484.778	1	14
484.948	1	7
485.119	1	-4
485.289	1	10
485.459	1	5
485.630	1	9
485.800	1	1
485.970	1	3
486.141	1	-4
486.311	1	-6
486.481	1	7
486.652	1	12
486.822	1	3
486.992	1	0
487.163	1	10
487.333	1	5
487.503	1	2
487.674	1	-5
487.844	1	6
488.014	1	6
488.185	1	-2
488.355	1	2
488.525	1	-3
488.696	1	6
488.866	1	-8
489.036	1	9
489.207	1	18
489.377	1	13
489.547	1	3
489.718	1	-1
489.888	1	6
490.058	1	10
490.228	1	-4
490.399	1	-7
490.569	1	11
490.739	1	6
490.910	1	12
491.080	1	11
491.250	1	5
491.421	1	2
491.591	1	0
491.761	1	1
491.932	1	19
492.102	1	6
492.272	1	-11
492.442	1	6
492.613	1	7
492.783	1	2
492.953	1	5
493.124	1	2
493.294	1	6
493.464	1	-4
493.635	1	4
493.805	1	1
493.975	1	8
494.145	1	9
494.316	1	2
494.486	1	7
494.656	1	6
494.827	1	9
494.997	1	6
495.167	1	-1
495.337	1	8
495.508	1	16
495.678	1	9
495.848	1	-6
496.019	1	3
496.189	1	-2
496.359	1	-9
496.529	1	2
496.700	1	12
496.870	1	-1
497.040	1	6
497.211	1	12
497.381	1	7
497.551	1	9
497.721	1	-4
497.892	1	11
498.062	1	4
498.232	1	7
498.403	1	9
498.573	1	11
498.743	1	15
498.913	1	-5
499.084	1	3
499.254	1	3
499.424	1	-2
499.594	1	10
499.765	1	-3
499.935	1	5
500.105	1	1
500.275	1	-6
500.446	1	10
500.616	1	7
500.786	1	1
500.956	1	9
501.127	1	-1
501.297	1	8
501.467	1	4
501.638	1	6
501.808	1	6
501.978	1	4
502.148	1	11
502.319	1	4
502.489	1	18
502.659	1	-7
502.829	1	6
503.000	1	25
503.170	1	2
503.340	1	5
503.510	1	0
503.681	1	4
503.851	1	-4
504.021	1	14
504.191	1	7
504.362	1	-1
504.532	1	4
504.702	1	3
504.872	1	19
505.042	1	2
505.213	1	8
505.383	1	8
505.553	1	9
505.723	1	5
505.894	1	-1
506.064	1	9
506.234	1	-5
506.404	1	12
506.575	1	-5
506.745	1	11
506.915	1	-11
507.085	1	8
507.256	1	11
507.426	1	9
507.596	1	-2
507.766	1	5
507.936	1	5
508.107	1	5
508.277	1	10
508.447	1	13
508.617	1	-6
508.788	1	-14
508.958	1	13
509.128	1	0
509.298	1	9
509.468	1	10
509.639	1	3
509.809	1	-3
509.979	1	5
510.149	1	4
510.319	1	10
510.490	1	-4
510.660	1	7
510.830	1	2
511.000	1	6
511.171	1	9
511.341	1	2
511.511	1	7
511.681	1	-1
511.851	1	1
512.022	1	10
512.192	1	2
512.362	1	0
512.532	1	1
512.702	1	14
512.873	1	-7
513.043	1	13
513.213	1	10
513.383	1	-10
513.553	1	3
513.724	1	6
513.894	1	16
514.064	1	3
514.234	1	0
514.404	1	-1
514.575	1	7
514.745	1	-2
514.915	1	-7
515.085	1	4
515.255	1	0
515.425	1	8
515.596	1	4
515.766	1	4
515.936	1	7
516.106	1	12
516.276	1	9
516.447	1	-2
516.617	1	5
516.787	1	5
516.957	1	-3
517.127	1	4
517.297	1	4
517.468	1	1
517.638	1	-2
517.808	1	6
517.978	1	4
518.148	1	-5
518.319	1	9
518.489	1	0
518.659	1	-2
518.829	1	3
518.999	1	0
519.169	1	1
519.340	1	6
519.510	1	-2
519.680	1	5
519.850	1	4
520.020	1	-3
520.190	1	-4
520.361	1	-2
520.531	1	16
520.701	1	2
520.871	1	0
521.041	1	6
521.211	1	-5
521.382	1	9
521.552	1	0
521.722	1	-12
521.892	1	-8
522.062	1	1
522.232	1	-1
522.402	1	9
522.573	1	-3
522.743	1	13
522.913	1	-3
523.083	1	19
523.253	1	2
523.423	1	6
523.593	1	-9
523.764	1	-8
523.934	1	4
524.104	1	-2
524.274	1	4
524.444	1	5
524.614	1	5
524.784	1	-7
524.955	1	-6
525.125	1	-5
525.295	1	2
525.465	1	-7
525.635	1	-4
525.805	1	20
525.975	1	1
526.146	1	13
526.316	1	4
526.486	1	-3
526.656	1	2
526.826	1	2
526.996	1	-5
527.166	1	11
527.337	1	11
527.507	1	5
527.677	1	4
527.847	1	0
528.017	1	-4
528.187	1	4
528.357	1	8
528.527	1	1
528.698	1	-9
528.868	1	7
529.038	1	6
529.208	1	11
529.378	1	7
529.548	1	3
529.718	1	-6
529.888	1	6
530.058	1	4
530.229	1	8
530.399	1	0
530.569	1	6
530.739	1	-2
530.909	1	2
531.079	1	2
531.249	1	7
531.419	1	3
531.589	1	-2
531.760	1	-1
531.930	1	4
532.100	1	6
532.270	1	11
532.440	1	10
532.610	1	2
532.780	1	5
532.950	1	4
533.120	1	9
533.290	1	-1
533.461	1	0
533.631	1	2
533.801	1	1
533.971	1	13
534.141	1	6
534.311	1	-3
534.481	1	-1
534.651	1	-3
534.821	1	4
534.991	1	0
535.162	1	-1
535.332	1	1
535.502	1	10
535.672	1	0
535.842	1	7
536.012	1	4
536.182	1	3
536.352	1	-3
536.522	1	1
536.692	1	10
536.862	1	8
537.032	1	2
537.203	1	9
537.373	1	-8
537.543	1	13
537.713	1	3
537.883	1	11
538.053	1	9
538.223	1	10
538.393	1	3
538.563	1	2
538.733	1	-4
538.903	1	-8
539.073	1	29
539.243	1	6
539.413	1	10
539.584	1	12
539.754	1	2
539.924	1	1
540.094	1	-6
540.264	1	5
540.434	1	3
540.604	1	-5
540.774	1	5
540.944	1	13
541.114	1	6
541.284	1	10
541.454	1	6
541.624	1	7
541.794	1	-2
541.964	1	2
542.134	1	18
542.305	1	7
542.475	1	8
542.645	1	0
542.815	1	9
542.985	1	22
543.155	1	6
543.325	1	8
543.495	1	-1
543.665	1	-1
543.835	1	11
544.005	1	10
544.175	1	3
544.345	1	6
544.515	1	0
544.685	1	5
544.855	1	3
545.025	1	7
545.195	1	1
545.365	1	5
545.535	1	2
545.705	1	1
545.875	1	-4
546.045	1	-1
546.216	1	14
546.386	1	8
546.556	1	13
546.726	1	0
546.896	1	8
547.066	1	1
547.236	1	6
547.406	1	1
547.576	1	-3
547.746	1	-4
547.916	1	7
548.086	1	11
548.256	1	1
548.426	1	12
548.596	1	12
548.766	1	5
548.936	1	8
549.106	1	7
549.276	1	7
549.446	1	14
549.616	1	-8
549.786	1	7
549.956	1	8
550.126	1	-2
550.296	1	7
550.466	1	-1
550.636	1	9
550.806	1	12
550.976	1	9
551.146	1	11
551.316	1	-7
551.486	1	10
551.656	1	4
551.826	1	6
551.996	1	5
552.166	1	3
552.336	1	4
552.506	1	5
552.676	1	7
552.846	1	1
553.016	1	0
553.186	1	-4
553.356	1	-2
553.526	1	4
553.696	1	4
553.866	1	-1
554.036	1	5
554.206	1	4
554.376	1	10
554.546	1	-3
554.716	1	6
554.886	1	10
555.056	1	13
555.226	1	1
555.396	1	2
555.566	1	5
555.736	1	1
555.906	1	0
556.076	1	11
556.246	1	11
556.416	1	-3
556.586	1	3
556.756	1	14
556.926	1	2
557.096	1	1
557.266	1	8
557.436	1	2
557.606	1	9
557.776	1	8
557.946	1	5
558.116	1	28
558.286	1	2
558.456	1	0
558.626	1	-12
558.796	1	11
558.966	1	4
559.136	1	0
559.306	1	8
559.476	1	0
559.646	1	7
559.816	1	2
559.986	1	9
560.155	1	-2
560.325	1	2
560.495	1	10
560.665	1	9
560.835	1	4
561.005	1	-3
561.175	1	1
561.345	1	9
561.515	1	2
561.685	1	1
561.855	1	8
562.025	1	3
562.195	1	11
562.365	1	5
562.535	1	12
562.705	1	10
562.875	1	-7
563.045	1	2
563.215	1	13
563.385	1	14
563.555	1	12
563.725	1	9
563.895	1	5
564.064	1	-1
564.234	1	4
564.404	1	-1
564.574	1	21
564.744	1	-11
564.914	1	2
565.084	1	11
565.254	1	17
565.424	1	-1
565.594	1	8
565.764	1	9
565.934	1	6
566.104	1	4
566.274	1	1
566.444	1	9
566.614	1	5
566.783	1	9
566.953	1	5
567.123	1	12
567.293	1	-4
567.463	1	-1
567.633	1	-4
567.803	1	3
567.973	1	4
568.143	1	9
568.313	1	11
568.483	1	6
568.653	1	7
568.823	1	-1
568.993	1	3
569.162	1	15
569.332	1	7
569.502	1	1
569.672	1	9
569.842	1	-1
570.012	1	14
570.182	1	15
570.352	1	18
570.522	1	7
570.692	1	-2
570.862	1	4
571.031	1	-7
571.201	1	-2
571.371	1	-7
571.541	1	4
571.711	1	19
571.881	1	9
572.051	1	0
572.221	1	-4
572.391	1	-9
572.561	1	-2
572.731	1	9
572.900	1	3
573.070	1	4
573.240	1	2
573.410	1	4
573.580	1	7
573.750	1	16
573.920	1	10
574.090	1	13
574.260	1	1
574.430	1	3
574.599	1	18
574.769	1	5
574.939	1	0
575.109	1	4
575.279	1	13
575.449	1	5
575.619	1	5
575.789	1	2
575.959	1	9
576.128	1	3
576.298	1	-2
576.468	1	3
576.638	1	13
576.808	1	-2
576.978	1	14
577.148	1	4
577.318	1	6
577.487	1	5
577.657	1	11
577.827	1	-4
577.997	1	6
578.167	1	2
578.337	1	12
578.507	1	2
578.677	1	12
578.846	1	-4
579.016	1	12
579.186	1	1
579.356	1	7
579.526	1	13
579.696	1	5
579.866	1	4
580.036	1	1
580.205	1	-2
580.375	1	12
580.545	1	3
580.715	1	6
580.885	1	-7
581.055	1	12
581.225	1	2
581.394	1	7
581.564	1	-5
581.734	1	6
581.904	1	2
582.074	1	-6
582.244	1	4
582.414	1	14
582.583	1	4
582.753	1	-4
582.923	1	5
583.093	1	5
583.263	1	7
583.433	1	-1
583.603	1	12
583.772	1	19
583.942	1	1
584.112	1	-5
584.282	1	4
584.452	1	12
584.622	1	6
584.791	1	5
584.961	1	8
585.131	1	-3
585.301	1	-8
585.471	1	-1
585.641	1	5
585.811	1	2
585.980	1	6
586.150	1	8
586.320	1	15
586.490	1	5
586.660	1	3
586.830	1	4
586.999	1	4
587.169	1	-3
587.339	1	3
587.509	1	4
587.679	1	8
587.849	1	7
588.018	1	-2
588.188	1	20
588.358	1	1
588.528	1	6
588.698	1	14
588.867	1	4
589.037	1	4
589.207	1	3
589.377	1	-6
589.547	1	-6
589.717	1	-5
589.886	1	19
590.056	1	11
590.226	1	10
590.396	1	8
590.566	1	6
590.735	1	7
590.905	1	1
591.075	1	-10
591.245	1	11
591.415	1	8
591.585	1	0
591.754	1	2
591.924	1	0
592.094	1	16
592.264	1	4
592.434	1	9
592.603	1	-9
592.773	1	6
592.943	1	4
593.113	1	12
593.283	1	-3
593.452	1	8
593.622	1	2
593.792	1	3
593.962	1	4
594.132	1	4
594.301	1	1
594.471	1	0
594.641	1	2
594.811	1	11
594.981	1	-5
595.150	1	11
595.320	1	-1
595.490	1	19
595.660	1	4
595.829	1	4
595.999	1	-5
596.169	1	-7
596.339	1	6
596.509	1	5
596.678	1	17
596.848	1	-3
597.018	1	14
597.188	1	14
597.358	1	10
597.527	1	7
597.697	1	-5
597.867	1	7
598.037	1	5
598.206	1	5
598.376	1	1
598.546	1	6
598.716	1	12
598.885	1	6
599.055	1	0
599.225	1	3
599.395	1	5
599.565	1	4
599.734	1	2
599.904	1	6
600.074	1	15
600.244	1	5
600.413	1	4
600.583	1	13
600.753	1	19
600.923	1	13
601.092	1	13
601.262	1	8
601.432	1	-8
601.602	1	10
601.771	1	0
601.941	1	13
602.111	1	-4
602.281	1	1
602.451	1	10
602.620	1	1
602.790	1	1
602.960	1	17
603.130	1	4
603.299	1	6
603.469	1	-6
603.639	1	-7
603.809	1	2
603.978	1	12
604.148	1	0
604.318	1	9
604.487	1	5
604.657	1	7
604.827	1	8
604.997	1	9
605.166	1	11
605.336	1	11
605.506	1	9
605.676	1	16
605.845	1	7
606.015	1	10
606.185	1	4
606.355	1	6
606.524	1	6
606.694	1	2
606.864	1	-2
607.034	1	1
607.203	1	5
607.373	1	13
607.543	1	5
607.712	1	15
607.882	1	4
608.052	1	2
608.222	1	1
608.391	1	5
608.561	1	15
608.731	1	4
608.901	1	2
609.070	1	6
609.240	1	-3
609.410	1	20
609.579	1	2
609.749	1	-3
609.919	1	-4
610.089	1	10
610.258	1	6
610.428	1	3
610.598	1	6
610.767	1	-4
610.937	1	3
611.107	1	1
611.277	1	7
611.446	1	9
611.616	1	6
611.786	1	13
611.955	1	-1
612.125	1	9
612.295	1	6
612.465	1	8
612.634	1	7
612.804	1	8
612.974	1	5
613.143	1	5
613.313	1	10
613.483	1	-7
613.652	1	10
613.822	1	7
613.992	1	5
614.162	1	10
614.331	1	-2
614.501	1	5
614.671	1	5
614.840	1	9
615.010	1	12
615.180	1	6
615.349	1	5
615.519	1	6
615.689	1	18
615.858	1	4
616.028	1	16
616.198	1	11
616.368	1	20
616.537	1	5
616.707	1	8
616.877	1	-2
617.046	1	3
617.216	1	7
617.386	1	-7
617.555	1	16
617.725	1	3
617.895	1	10
618.064	1	6
618.234	1	1
618.404	1	11
618.573	1	8
618.743	1	-2
618.913	1	-1
619.082	1	7
619.252	1	-1
619.422	1	17
619.591	1	5
619.761	1	10
619.931	1	-12
620.100	1	4
620.270	1	-3
620.440	1	9
620.609	1	1
620.779	1	-7
620.949	1	14
621.118	1	0
621.288	1	3
621.458	1	5
621.627	1	9
621.797	1	10
621.967	1	-7
622.136	1	3
622.306	1	14
622.476	1	13
622.645	1	14
622.815	1	10
622.985	1	-7
623.154	1	1
623.324	1	8
623.494	1	4
623.663	1	14
623.833	1	-1
624.002	1	0
624.172	1	2
624.342	1	-5
624.511	1	7
624.681	1	10
624.851	1	11
625.020	1	9
625.190	1	6
625.360	1	2
625.529	1	-2
625.699	1	6
625.869	1	0
626.038	1	4
626.208	1	11
626.377	1	15
626.547	1	0
626.717	1	4
626.886	1	3
627.056	1	-6
627.226	1	2
627.395	1	2
627.565	1	7
627.735	1	8
627.904	1	11
628.074	1	12
628.243	1	-14
628.413	1	-7
628.583	1	7
628.752	1	-3
628.922	1	12
629.091	1	-4
629.261	1	-4
629.431	1	-2
629.600	1	5
629.770	1	-7
629.940	1	4
630.109	1	15
630.279	1	-4
630.448	1	6
630.618	1	-6
630.788	1	14
630.957	1	16
631.127	1	12
631.297	1	-12
631.466	1	2
631.636	1	13
631.805	1	8
631.975	1	6
632.145	1	5
632.314	1	1
632.484	1	7
632.653	1	-2
632.823	1	0
632.993	1	14
633.162	1	2
633.332	1	8
633.501	1	8
633.671	1	-3
633.841	1	10
634.010	1	11
634.180	1	7
634.349	1	2
634.519	1	7
634.689	1	6
634.858	1	6
635.028	1	-3
635.197	1	4
635.367	1	6
635.537	1	18
635.706	1	4
635.876	1	2
636.045	1	13
636.215	1	1
636.384	1	11
636.554	1	11
636.724	1	9
636.893	1	7
637.063	1	1
637.232	1	10
637.402	1	5
637.572	1	8
637.741	1	10
637.911	1	4
638.080	1	7
638.250	1	7
638.419	1	7
638.589	1	-5
638.759	1	2
638.928	1	4
639.098	1	16
639.267	1	4
639.437	1	-3
639.606	1	5
639.776	1	5
639.946	1	6
640.115	1	-11
640.285	1	-4
640.454	1	10
640.624	1	4
640.793	1	-2
640.963	1	1
641.132	1	-3
641.302	1	3
641.472	1	9
641.641	1	4
641.811	1	-2
641.980	1	6
642.150	1	-6
642.319	1	7
642.489	1	-2
642.659	1	3
642.828	1	-3
642.998	1	7
643.167	1	4
643.337	1	7
643.506	1	1
643.676	1	14
643.845	1	1
644.015	1	0
644.184	1	0
644.354	1	9
644.524	1	6
644.693	1	2
644.863	1	-3
645.032	1	5
645.202	1	-12
645.371	1	15
645.541	1	-1
645.710	1	-4
645.880	1	13
646.049	1	-16
646.219	1	4
646.388	1	7
646.558	1	17
646.728	1	4
646.897	1	21
647.067	1	-1
647.236	1	5
647.406	1	4
647.575	1	-2
647.745	1	3
647.914	1	3
648.084	1	4
648.253	1	6
648.423	1	2
648.592	1	3
648.762	1	10
648.931	1	2
649.101	1	3
649.270	1	8
649.440	1	1
649.610	1	1
649.779	1	14
649.949	1	-5
650.118	1	-2
650.288	1	-1
650.457	1	2
650.627	1	6
650.796	1	0
650.966	1	11
651.135	1	8
651.305	1	13
651.474	1	10
651.644	1	2
651.813	1	-1
651.983	1	-4
652.152	1	12
652.322	1	9
652.491	1	12
652.661	1	-4
652.830	1	8
653.000	1	8
653.169	1	1
653.339	1	13
653.508	1	2
653.678	1	-3
653.847	1	-7
654.017	1	-1
654.186	1	9
654.356	1	6
654.525	1	6
654.695	1	13
654.864	1	5
655.034	1	12
655.203	1	12
655.373	1	1
655.542	1	3
655.712	1	-5
655.881	1	17
656.051	1	1
656.220	1	17
656.390	1	13
656.559	1	9
656.729	1	5
656.898	1	-1
657.068	1	8
657.237	1	-6
657.406	1	3
657.576	1	-8
657.745	1	12
657.915	1	10
658.084	1	-7
658.254	1	-4
658.423	1	1
658.593	1	-1
658.762	1	12
658.932	1	9
659.101	1	3
659.271	1	2
659.440	1	5
659.610	1	3
659.779	1	7
659.949	1	-1
660.118	1	-4
660.288	1	-2
660.457	1	4
660.626	1	7
660.796	1	19
660.965	1	3
661.135	1	1
661.304	1	11
661.474	1	0
661.643	1	1
661.813	1	-11
661.982	1	10
662.152	1	9
662.321	1	2
662.491	1	3
662.660	1	11
662.829	1	-2
662.999	1	8
663.168	1	1
663.338	1	3
663.507	1	1
663.677	1	0
663.846	1	-7
664.016	1	19
664.185	1	-2
664.354	1	5
664.524	1	7
664.693	1	4
664.863	1	6
665.032	1	2
665.202	1	9
665.371	1	4
665.541	1	7
665.710	1	1
665.879	1	9
666.049	1	8
666.218	1	-1
666.388	1	5
666.557	1	2
666.727	1	-6
666.896	1	1
667.065	1	12
667.235	1	12
667.404	1	7
667.574	1	-1
667.743	1	1
667.913	1	8
668.082	1	5
668.251	1	17
668.421	1	13
668.590	1	-6
668.760	1	3
668.929	1	2
669.099	1	1
669.268	1	8
669.437	1	12
669.607	1	6
669.776	1	12
669.946	1	0
670.115	1	7
670.285	1	-2
670.454	1	3
670.623	1	3
670.793	1	2
670.962	1	2
671.132	1	9
671.301	1	-1
671.470	1	5
671.640	1	2
671.809	1	1
671.979	1	8
672.148	1	-2
672.317	1	0
672.487	1	10
672.656	1	4
672.826	1	-1
672.995	1	5
673.164	1	-3
673.334	1	11
673.503	1	3
673.673	1	2
673.842	1	0
674.011	1	2
674.181	1	11
674.350	1	6
674.520	1	-5
674.689	1	13
674.858	1	4
675.028	1	7
675.197	1	-5
675.367	1	9
675.536	1	2
675.705	1	-5
675.875	1	-1
676.044	1	8
676.214	1	4
676.383	1	18
676.552	1	13
676.722	1	8
676.891	1	-1
677.060	1	15
677.230	1	-3
677.399	1	4
677.569	1	-12
677.738	1	6
677.907	1	14
678.077	1	7
678.246	1	2
678.416	1	-4
678.585	1	1
678.754	1	12
678.924	1	7
679.093	1	6
679.262	1	3
679.432	1	-12
679.601	1	13
679.771	1	7
679.940	1	5
680.109	1	-2
680.279	1	4
680.448	1	6
680.617	1	-8
680.787	1	11
680.956	1	-4
681.125	1	6
681.295	1	2
681.464	1	4
681.634	1	17
681.803	1	15
681.972	1	3
682.142	1	8
682.311	1	1
682.480	1	-4
682.650	1	11
682.819	1	3
682.988	1	5
683.158	1	2
683.327	1	16
683.496	1	-13
683.666	1	8
683.835	1	-6
684.004	1	11
684.174	1	1
684.343	1	14
684.512	1	5
684.682	1	0
684.851	1	5
685.021	1	8
685.190	1	-3
685.359	1	1
685.529	1	4
685.698	1	3
685.867	1	20
686.037	1	1
686.206	1	12
686.375	1	-4
686.545	1	10
686.714	1	-2
686.883	1	-3
687.053	1	5
687.222	1	14
687.391	1	-1
687.561	1	5
687.730	1	9
687.899	1	9
688.069	1	-1
688.238	1	5
688.407	1	9
688.577	1	4
688.746	1	-2
