340.368	1	5
340.539	1	14
340.710	1	8
340.881	1	8
341.052	1	15
341.223	1	-2
341.394	1	14
341.565	1	7
341.737	1	-6
341.908	1	14
342.079	1	13
342.250	1	-1
342.421	1	-4
342.592	1	12
342.763	1	-5
342.934	1	9
343.105	1	1
343.276	1	5
343.447	1	19
343.618	1	0
343.789	1	14
343.960	1	4
344.131	1	3
344.302	1	17
344.473	1	10
344.644	1	5
344.815	1	9
344.986	1	-10
345.157	1	4
345.328	1	12
345.499	1	25
345.670	1	14
345.841	1	12
346.012	1	16
346.183	1	13
346.354	1	9
346.526	1	7
346.697	1	11
346.868	1	14
347.039	1	17
347.210	1	9
347.381	1	20
347.552	1	7
347.723	1	18
347.894	1	20
348.065	1	4
348.236	1	12
348.407	1	16
348.578	1	5
348.749	1	18
348.920	1	18
349.091	1	7
349.262	1	-3
349.433	1	8
349.604	1	16
349.775	1	20
349.946	1	27
350.117	1	19
350.288	1	21
350.459	1	13
350.630	1	22
350.801	1	24
350.972	1	17
351.143	1	32
351.314	1	21
351.485	1	12
351.656	1	16
351.827	1	27
351.998	1	21
352.169	1	21
352.340	1	36
352.511	1	32
352.682	1	27
352.853	1	26
353.024	1	30
353.195	1	20
353.366	1	28
353.537	1	30
353.708	1	39
353.879	1	39
354.050	1	34
354.221	1	35
354.392	1	32
354.563	1	32
354.734	1	37
354.905	1	34
355.076	1	43
355.247	1	45
355.418	1	40
355.589	1	45
355.760	1	39
355.931	1	42
356.102	1	34
356.273	1	48
356.444	1	33
356.615	1	56
356.785	1	45
356.956	1	52
357.127	1	54
357.298	1	60
357.469	1	71
357.640	1	68
357.811	1	72
357.982	1	73
358.153	1	59
358.324	1	76
358.495	1	74
358.666	1	79
358.837	1	82
359.008	1	88
359.179	1	86
359.350	1	89
359.521	1	95
359.692	1	107
359.863	1	109
360.034	1	112
360.205	1	123
360.376	1	117
360.547	1	118
360.718	1	115
360.889	1	143
361.060	1	149
361.231	1	143
361.401	1	152
361.572	1	164
361.743	1	158
361.914	1	177
362.085	1	166
362.256	1	179
362.427	1	197
362.598	1	224
362.769	1	228
362.940	1	224
363.111	1	209
363.282	1	237
363.453	1	241
363.624	1	266
363.795	1	271
363.966	1	286
364.137	1	286
364.308	1	311
364.478	1	350
364.649	1	345
364.820	1	363
364.991	1	374
365.162	1	392
365.333	1	415
365.504	1	439
365.675	1	454
365.846	1	494
366.017	1	501
366.188	1	532
366.359	1	549
366.530	1	582
366.701	1	619
366.871	1	655
367.042	1	653
367.213	1	691
367.384	1	723
367.555	1	753
367.726	1	792
367.897	1	836
368.068	1	879
368.239	1	922
368.410	1	973
368.581	1	1017
368.752	1	1046
368.923	1	1091
369.093	1	1123
369.264	1	1158
369.435	1	1241
369.606	1	1272
369.777	1	1306
369.948	1	1342
370.119	1	1378
370.290	1	1453
370.461	1	1463
370.632	1	1530
370.803	1	1611
370.973	1	1618
371.144	1	1731
371.315	1	1720
371.486	1	1788
371.657	1	1819
371.828	1	1874
371.999	1	1910
372.170	1	1980
372.341	1	2023
372.512	1	2054
372.682	1	2072
372.853	1	2111
373.024	1	2170
373.195	1	2171
373.366	1	2216
373.537	1	2242
373.708	1	2246
373.879	1	2277
374.050	1	2251
374.220	1	2296
374.391	1	2271
374.562	1	2304
374.733	1	2210
374.904	1	2272
375.075	1	2234
375.246	1	2252
375.417	1	2187
375.588	1	2135
375.758	1	2145
375.929	1	2078
376.100	1	2072
376.271	1	2052
376.442	1	2019
376.613	1	1982
376.784	1	1921
376.955	1	1894
377.125	1	1797
377.296	1	1788
377.467	1	1744
377.638	1	1734
377.809	1	1681
377.980	1	1658
378.151	1	1596
378.321	1	1615
378.492	1	1545
378.663	1	1522
378.834	1	1445
379.005	1	1423
379.176	1	1401
379.347	1	1370
379.518	1	1356
379.688	1	1309
379.859	1	1276
380.030	1	1259
380.201	1	1190
380.372	1	1194
380.543	1	1162
380.714	1	1129
380.884	1	1117
381.055	1	1095
381.226	1	1038
381.397	1	1022
381.568	1	998
381.739	1	958
381.910	1	959
382.080	1	904
382.251	1	894
382.422	1	842
382.593	1	802
382.764	1	783
382.935	1	776
383.105	1	750
383.276	1	723
383.447	1	704
383.618	1	686
383.789	1	659
383.960	1	645
384.130	1	616
384.301	1	604
384.472	1	611
384.643	1	583
384.814	1	576
384.985	1	568
385.156	1	552
385.326	1	541
385.497	1	557
385.668	1	537
385.839	1	520
386.010	1	518
386.180	1	511
386.351	1	492
386.522	1	485
386.693	1	471
386.864	1	463
387.035	1	450
387.205	1	421
387.376	1	404
387.547	1	415
387.718	1	395
387.889	1	370
388.060	1	373
388.230	1	356
388.401	1	354
388.572	1	347
388.743	1	334
388.914	1	317
389.084	1	328
389.255	1	307
389.426	1	301
389.597	1	309
389.768	1	307
389.939	1	285
390.109	1	277
390.280	1	295
390.451	1	284
390.622	1	265
390.793	1	281
390.963	1	292
391.134	1	277
391.305	1	276
391.476	1	261
391.647	1	238
391.817	1	244
391.988	1	232
392.159	1	229
392.330	1	231
392.501	1	227
392.671	1	211
392.842	1	210
393.013	1	217
393.184	1	207
393.355	1	192
393.525	1	178
393.696	1	180
393.867	1	169
394.038	1	183
394.208	1	179
394.379	1	149
394.550	1	143
394.721	1	152
394.892	1	154
395.062	1	143
395.233	1	142
395.404	1	139
395.575	1	149
395.746	1	144
395.916	1	120
396.087	1	130
396.258	1	126
396.429	1	136
396.599	1	130
396.770	1	114
396.941	1	126
397.112	1	123
397.283	1	117
397.453	1	115
397.624	1	121
397.795	1	119
397.966	1	121
398.136	1	122
398.307	1	96
398.478	1	113
398.649	1	104
398.819	1	102
398.990	1	105
399.161	1	101
399.332	1	100
399.503	1	101
399.673	1	95
399.844	1	101
400.015	1	96
400.186	1	86
400.356	1	91
400.527	1	81
400.698	1	95
400.869	1	80
401.039	1	88
401.210	1	77
401.381	1	84
401.552	1	82
401.722	1	72
401.893	1	69
402.064	1	68
402.235	1	74
402.405	1	79
402.576	1	64
402.747	1	81
402.918	1	62
403.088	1	56
403.259	1	58
403.430	1	53
403.601	1	62
403.771	1	65
403.942	1	64
404.113	1	57
404.284	1	65
404.454	1	52
404.625	1	62
404.796	1	53
404.967	1	58
405.137	1	56
405.308	1	43
405.479	1	53
405.649	1	65
405.820	1	65
405.991	1	53
406.162	1	59
406.332	1	45
406.503	1	55
406.674	1	57
406.845	1	42
407.015	1	39
407.186	1	58
407.357	1	52
407.527	1	45
407.698	1	52
407.869	1	42
408.040	1	31
408.210	1	47
408.381	1	38
408.552	1	39
408.722	1	41
408.893	1	49
409.064	1	51
409.235	1	52
409.405	1	49
409.576	1	52
409.747	1	51
409.917	1	33
410.088	1	36
410.259	1	45
410.430	1	47
410.600	1	38
410.771	1	40
410.942	1	46
411.112	1	32
411.283	1	45
411.454	1	37
411.625	1	25
411.795	1	29
411.966	1	26
412.137	1	53
412.307	1	29
412.478	1	32
412.649	1	19
412.819	1	38
412.990	1	37
413.161	1	39
413.332	1	36
413.502	1	29
413.673	1	35
413.844	1	27
414.014	1	33
414.185	1	36
414.356	1	22
414.526	1	26
414.697	1	39
414.868	1	16
415.038	1	30
415.209	1	27
415.380	1	46
415.550	1	20
415.721	1	29
415.892	1	28
416.063	1	31
416.233	1	37
416.404	1	25
416.575	1	33
416.745	1	33
416.916	1	37
417.087	1	28
417.257	1	34
417.428	1	30
417.599	1	23
417.769	1	34
417.940	1	27
418.111	1	43
418.281	1	26
418.452	1	31
418.623	1	30
418.793	1	29
418.964	1	17
419.135	1	30
419.305	1	32
419.476	1	23
419.647	1	30
419.817	1	29
419.988	1	23
420.159	1	41
420.329	1	25
420.500	1	28
420.671	1	36
420.841	1	24
421.012	1	25
421.183	1	31
421.353	1	30
421.524	1	36
421.695	1	25
421.865	1	43
422.036	1	29
422.206	1	22
422.377	1	19
422.548	1	31
422.718	1	18
422.889	1	26
423.060	1	24
423.230	1	25
423.401	1	33
423.572	1	21
423.742	1	23
423.913	1	29
424.084	1	11
424.254	1	22
424.425	1	35
424.595	1	30
424.766	1	20
424.937	1	22
425.107	1	30
425.278	1	29
425.449	1	29
425.619	1	39
425.790	1	26
425.961	1	24
426.131	1	21
426.302	1	12
426.472	1	24
426.643	1	17
426.814	1	16
426.984	1	37
427.155	1	32
427.326	1	23
427.496	1	26
427.667	1	33
427.837	1	27
428.008	1	26
428.179	1	27
428.349	1	23
428.520	1	14
428.691	1	26
428.861	1	16
429.032	1	24
429.202	1	28
429.373	1	22
429.544	1	25
429.714	1	32
429.885	1	19
430.055	1	26
430.226	1	30
430.397	1	35
430.567	1	12
430.738	1	27
430.909	1	10
431.079	1	25
431.250	1	23
431.420	1	15
431.591	1	26
431.762	1	23
431.932	1	12
432.103	1	21
432.273	1	35
432.444	1	24
432.615	1	16
432.785	1	27
432.956	1	12
433.126	1	16
433.297	1	17
433.468	1	19
433.638	1	26
433.809	1	26
433.979	1	16
434.150	1	29
434.320	1	11
434.491	1	20
434.662	1	25
434.832	1	22
435.003	1	24
435.173	1	16
435.344	1	20
435.515	1	26
435.685	1	4
435.856	1	10
436.026	1	29
436.197	1	17
436.368	1	24
436.538	1	23
436.709	1	14
436.879	1	11
437.050	1	29
437.220	1	8
437.391	1	20
437.562	1	29
437.732	1	24
437.903	1	14
438.073	1	27
438.244	1	2
438.414	1	25
438.585	1	19
438.756	1	19
438.926	1	24
439.097	1	17
439.267	1	17
439.438	1	19
439.608	1	16
439.779	1	21
439.949	1	31
440.120	1	27
440.291	1	14
440.461	1	21
440.632	1	12
440.802	1	25
440.973	1	25
441.143	1	21
441.314	1	25
441.485	1	20
441.655	1	16
441.826	1	10
441.996	1	26
442.167	1	12
442.337	1	14
442.508	1	30
442.678	1	17
442.849	1	33
443.019	1	26
443.190	1	22
443.361	1	28
443.531	1	16
443.702	1	16
443.872	1	21
444.043	1	24
444.213	1	14
444.384	1	27
444.554	1	27
444.725	1	13
444.895	1	18
445.066	1	26
445.237	1	13
445.407	1	8
445.578	1	16
445.748	1	22
445.919	1	26
446.089	1	24
446.260	1	23
446.430	1	32
446.601	1	22
446.771	1	4
446.942	1	17
447.112	1	24
447.283	1	20
447.453	1	10
447.624	1	30
447.794	1	19
447.965	1	19
448.135	1	14
448.306	1	26
448.477	1	10
448.647	1	10
448.818	1	21
448.988	1	13
449.159	1	33
449.329	1	23
449.500	1	16
449.670	1	20
449.841	1	14
450.011	1	24
450.182	1	15
450.352	1	12
450.523	1	21
450.693	1	21
450.864	1	12
451.034	1	29
451.205	1	-4
451.375	1	21
451.546	1	22
451.716	1	22
451.887	1	24
452.057	1	27
452.228	1	24
452.398	1	28
452.569	1	16
452.739	1	8
452.910	1	13
453.080	1	30
453.251	1	14
453.421	1	8
453.592	1	20
453.762	1	21
453.933	1	9
454.103	1	24
454.274	1	9
454.444	1	14
454.615	1	23
454.785	1	16
454.956	1	26
455.126	1	24
455.297	1	7
455.467	1	21
455.638	1	21
455.808	1	16
455.979	1	27
456.149	1	21
456.320	1	16
456.490	1	20
456.661	1	43
456.831	1	23
457.001	1	24
457.172	1	19
457.342	1	27
457.513	1	23
457.683	1	13
457.854	1	29
458.024	1	13
458.195	1	13
458.365	1	16
458.536	1	32
458.706	1	22
458.877	1	21
459.047	1	24
459.218	1	13
459.388	1	25
459.559	1	17
459.729	1	23
459.899	1	30
460.070	1	13
460.240	1	28
460.411	1	21
460.581	1	14
460.752	1	15
460.922	1	1
461.093	1	16
461.263	1	22
461.434	1	13
461.604	1	16
461.775	1	23
461.945	1	6
462.115	1	21
462.286	1	19
462.456	1	13
462.627	1	7
462.797	1	24
462.968	1	16
463.138	1	21
463.309	1	42
463.479	1	17
463.649	1	21
463.820	1	28
463.990	1	28
464.161	1	16
464.331	1	23
464.502	1	28
464.672	1	15
464.843	1	23
465.013	1	36
465.183	1	15
465.354	1	20
465.524	1	19
465.695	1	16
465.865	1	17
466.036	1	33
466.206	1	17
466.376	1	29
466.547	1	26
466.717	1	14
466.888	1	23
467.058	1	24
467.229	1	21
467.399	1	23
467.569	1	17
467.740	1	24
467.910	1	36
468.081	1	31
468.251	1	25
468.422	1	43
468.592	1	24
468.762	1	20
468.933	1	20
469.103	1	20
469.274	1	20
469.444	1	20
469.614	1	24
469.785	1	28
469.955	1	25
470.126	1	24
470.296	1	31
470.467	1	19
470.637	1	13
470.807	1	22
470.978	1	17
471.148	1	20
471.319	1	21
471.489	1	20
471.659	1	39
471.830	1	27
472.000	1	16
472.171	1	31
472.341	1	20
472.511	1	23
472.682	1	21
472.852	1	30
473.023	1	20
473.193	1	24
473.363	1	31
473.534	1	36
473.704	1	28
473.875	1	29
474.045	1	25
474.215	1	26
474.386	1	23
474.556	1	27
474.727	1	26
474.897	1	22
475.067	1	33
475.238	1	28
475.408	1	29
475.578	1	25
475.749	1	22
475.919	1	38
476.090	1	17
476.260	1	38
476.430	1	17
476.601	1	39
476.771	1	31
476.942	1	34
477.112	1	15
477.282	1	32
477.453	1	20
477.623	1	16
477.793	1	24
477.964	1	38
478.134	1	29
478.305	1	31
478.475	1	25
478.645	1	33
478.816	1	33
478.986	1	19
479.156	1	30
479.327	1	30
479.497	1	27
479.667	1	11
479.838	1	29
480.008	1	19
480.179	1	25
480.349	1	38
480.519	1	25
480.690	1	24
480.860	1	27
481.030	1	36
481.201	1	27
481.371	1	26
481.541	1	32
481.712	1	40
481.882	1	29
482.053	1	26
482.223	1	36
482.393	1	29
482.564	1	28
482.734	1	39
482.904	1	35
483.075	1	35
483.245	1	26
483.415	1	23
483.586	1	42
483.756	1	31
483.926	1	35
484.097	1	33
484.267	1	37
484.437	1	40
484.608	1	27
484.778	1	42
484.948	1	28
485.119	1	19
485.289	1	32
485.459	1	37
485.630	1	37
485.800	1	37
485.970	1	32
486.141	1	39
486.311	1	32
486.481	1	35
486.652	1	36
486.822	1	49
486.992	1	34
487.163	1	39
487.333	1	44
487.503	1	38
487.674	1	41
487.844	1	51
488.014	1	47
488.185	1	33
488.355	1	38
488.525	1	47
488.696	1	49
488.866	1	44
489.036	1	45
489.207	1	48
489.377	1	41
489.547	1	34
489.718	1	41
489.888	1	47
490.058	1	52
490.228	1	35
490.399	1	37
490.569	1	34
490.739	1	46
490.910	1	49
491.080	1	46
491.250	1	47
491.421	1	40
491.591	1	41
491.761	1	49
491.932	1	48
492.102	1	41
492.272	1	29
492.442	1	42
492.613	1	44
492.783	1	35
492.953	1	44
493.124	1	52
493.294	1	58
493.464	1	45
493.635	1	47
493.805	1	45
493.975	1	40
494.145	1	42
494.316	1	51
494.486	1	54
494.656	1	48
494.827	1	60
494.997	1	54
495.167	1	52
495.337	1	58
495.508	1	59
495.678	1	51
495.848	1	51
496.019	1	39
496.189	1	47
496.359	1	46
496.529	1	54
496.700	1	58
496.870	1	59
497.040	1	52
497.211	1	55
497.381	1	50
497.551	1	66
497.721	1	55
497.892	1	50
498.062	1	50
498.232	1	57
498.403	1	64
498.573	1	67
498.743	1	70
498.913	1	55
499.084	1	59
499.254	1	52
499.424	1	47
499.594	1	61
499.765	1	66
499.935	1	64
500.105	1	62
500.275	1	55
500.446	1	68
500.616	1	73
500.786	1	84
500.956	1	78
501.127	1	74
501.297	1	73
501.467	1	65
501.638	1	79
501.808	1	72
501.978	1	67
502.148	1	75
502.319	1	73
502.489	1	87
502.659	1	62
502.829	1	81
503.000	1	82
503.170	1	73
503.340	1	88
503.510	1	79
503.681	1	85
503.851	1	65
504.021	1	83
504.191	1	80
504.362	1	76
504.532	1	77
504.702	1	78
504.872	1	89
505.042	1	81
505.213	1	85
505.383	1	86
505.553	1	85
505.723	1	82
505.894	1	82
506.064	1	97
506.234	1	91
506.404	1	94
506.575	1	94
506.745	1	102
506.915	1	71
507.085	1	84
507.256	1	87
507.426	1	88
507.596	1	89
507.766	1	81
507.936	1	94
508.107	1	95
508.277	1	97
508.447	1	101
508.617	1	87
508.788	1	86
508.958	1	95
509.128	1	88
509.298	1	96
509.468	1	108
509.639	1	95
509.809	1	95
509.979	1	103
510.149	1	106
510.319	1	97
510.490	1	88
510.660	1	104
510.830	1	100
511.000	1	107
511.171	1	117
511.341	1	103
511.511	1	107
511.681	1	109
511.851	1	93
512.022	1	100
512.192	1	111
512.362	1	109
512.532	1	111
512.702	1	99
512.873	1	101
513.043	1	108
513.213	1	120
513.383	1	106
513.553	1	112
513.724	1	108
513.894	1	127
514.064	1	114
514.234	1	112
514.404	1	114
514.575	1	115
514.745	1	111
514.915	1	101
515.085	1	111
515.255	1	109
515.425	1	101
515.596	1	128
515.766	1	124
515.936	1	124
516.106	1	126
516.276	1	124
516.447	1	120
516.617	1	120
516.787	1	124
516.957	1	118
517.127	1	120
517.297	1	117
517.468	1	118
517.638	1	126
517.808	1	125
517.978	1	133
518.148	1	121
518.319	1	135
518.489	1	121
518.659	1	127
518.829	1	144
518.999	1	136
519.169	1	110
519.340	1	128
519.510	1	128
519.680	1	131
519.850	1	134
520.020	1	137
520.190	1	132
520.361	1	130
520.531	1	150
520.701	1	142
520.871	1	131
521.041	1	136
521.211	1	134
521.382	1	155
521.552	1	140
521.722	1	151
521.892	1	139
522.062	1	145
522.232	1	150
522.402	1	146
522.573	1	135
522.743	1	166
522.913	1	156
523.083	1	160
523.253	1	143
523.423	1	151
523.593	1	163
523.764	1	147
523.934	1	153
524.104	1	144
524.274	1	162
524.444	1	164
524.614	1	154
524.784	1	163
524.955	1	165
525.125	1	166
525.295	1	153
525.465	1	160
525.635	1	180
525.805	1	184
525.975	1	165
526.146	1	174
526.316	1	176
526.486	1	182
526.656	1	179
526.826	1	181
526.996	1	164
527.166	1	197
527.337	1	202
527.507	1	193
527.677	1	188
527.847	1	181
528.017	1	191
528.187	1	188
528.357	1	187
528.527	1	193
528.698	1	188
528.868	1	207
529.038	1	194
529.208	1	196
529.378	1	205
529.548	1	203
529.718	1	208
529.888	1	216
530.058	1	203
530.229	1	201
530.399	1	200
530.569	1	212
530.739	1	216
530.909	1	206
531.079	1	205
531.249	1	206
531.419	1	215
531.589	1	217
531.760	1	221
531.930	1	222
532.100	1	225
532.270	1	211
532.440	1	220
532.610	1	217
532.780	1	213
532.950	1	223
533.120	1	221
533.290	1	204
533.461	1	204
533.631	1	217
533.801	1	211
533.971	1	213
534.141	1	210
534.311	1	222
534.481	1	207
534.651	1	202
534.821	1	221
534.991	1	212
535.162	1	208
535.332	1	215
535.502	1	207
535.672	1	212
535.842	1	210
536.012	1	218
536.182	1	214
536.352	1	228
536.522	1	210
536.692	1	221
536.862	1	209
537.032	1	204
537.203	1	208
537.373	1	194
537.543	1	219
537.713	1	216
537.883	1	204
538.053	1	221
538.223	1	220
538.393	1	216
538.563	1	211
538.733	1	212
538.903	1	212
539.073	1	232
539.243	1	237
539.413	1	215
539.584	1	219
539.754	1	217
539.924	1	222
540.094	1	231
540.264	1	211
540.434	1	217
540.604	1	219
540.774	1	238
540.944	1	231
541.114	1	227
541.284	1	243
541.454	1	228
541.624	1	249
541.794	1	235
541.964	1	235
542.134	1	232
542.305	1	240
542.475	1	230
542.645	1	255
542.815	1	245
542.985	1	255
543.155	1	262
543.325	1	249
543.495	1	252
543.665	1	253
543.835	1	248
544.005	1	243
544.175	1	250
544.345	1	258
544.515	1	240
544.685	1	255
544.855	1	261
545.025	1	278
545.195	1	257
545.365	1	264
545.535	1	258
545.705	1	266
545.875	1	265
546.045	1	263
546.216	1	278
546.386	1	278
546.556	1	287
546.726	1	281
546.896	1	296
547.066	1	284
547.236	1	289
547.406	1	291
547.576	1	290
547.746	1	283
547.916	1	294
548.086	1	301
548.256	1	290
548.426	1	295
548.596	1	289
548.766	1	307
548.936	1	303
549.106	1	288
549.276	1	300
549.446	1	301
549.616	1	308
549.786	1	296
549.956	1	301
550.126	1	297
550.296	1	304
550.466	1	295
550.636	1	297
550.806	1	308
550.976	1	300
551.146	1	310
551.316	1	300
551.486	1	313
551.656	1	307
551.826	1	306
551.996	1	317
552.166	1	299
552.336	1	303
552.506	1	298
552.676	1	321
552.846	1	315
553.016	1	309
553.186	1	301
553.356	1	309
553.526	1	290
553.696	1	317
553.866	1	306
554.036	1	328
554.206	1	304
554.376	1	316
554.546	1	308
554.716	1	307
554.886	1	309
555.056	1	318
555.226	1	301
555.396	1	318
555.566	1	309
555.736	1	309
555.906	1	305
556.076	1	305
556.246	1	311
556.416	1	315
556.586	1	303
556.756	1	318
556.926	1	310
557.096	1	298
557.266	1	322
557.436	1	332
557.606	1	313
557.776	1	324
557.946	1	322
558.116	1	332
558.286	1	323
558.456	1	323
558.626	1	301
558.796	1	342
558.966	1	328
559.136	1	319
559.306	1	320
559.476	1	315
559.646	1	316
559.816	1	318
559.986	1	327
560.155	1	329
560.325	1	333
560.495	1	330
560.665	1	338
560.835	1	335
561.005	1	342
561.175	1	319
561.345	1	335
561.515	1	338
561.685	1	347
561.855	1	338
562.025	1	333
562.195	1	355
562.365	1	330
562.535	1	350
562.705	1	332
562.875	1	340
563.045	1	329
563.215	1	331
563.385	1	355
563.555	1	340
563.725	1	334
563.895	1	332
564.064	1	341
564.234	1	330
564.404	1	348
564.574	1	332
564.744	1	335
564.914	1	339
565.084	1	354
565.254	1	344
565.424	1	338
565.594	1	352
565.764	1	334
565.934	1	341
566.104	1	337
566.274	1	334
566.444	1	343
566.614	1	352
566.783	1	349
566.953	1	335
567.123	1	352
567.293	1	330
567.463	1	337
567.633	1	342
567.803	1	330
567.973	1	336
568.143	1	357
568.313	1	357
568.483	1	337
568.653	1	340
568.823	1	333
568.993	1	341
569.162	1	346
569.332	1	349
569.502	1	348
569.672	1	353
569.842	1	353
570.012	1	339
570.182	1	339
570.352	1	352
570.522	1	344
570.692	1	338
570.862	1	348
571.031	1	335
571.201	1	336
571.371	1	331
571.541	1	362
571.711	1	345
571.881	1	340
572.051	1	344
572.221	1	331
572.391	1	335
572.561	1	323
572.731	1	339
572.900	1	355
573.070	1	348
573.240	1	342
573.410	1	356
573.580	1	323
573.750	1	342
573.920	1	359
574.090	1	359
574.260	1	332
574.430	1	344
574.599	1	364
574.769	1	354
574.939	1	350
575.109	1	353
575.279	1	356
575.449	1	349
575.619	1	360
575.789	1	358
575.959	1	369
576.128	1	354
576.298	1	356
576.468	1	346
576.638	1	359
576.808	1	345
576.978	1	360
577.148	1	365
577.318	1	373
577.487	1	366
577.657	1	377
577.827	1	355
577.997	1	371
578.167	1	369
578.337	1	365
578.507	1	357
578.677	1	367
578.846	1	352
579.016	1	366
579.186	1	370
579.356	1	380
579.526	1	370
579.696	1	386
579.866	1	367
580.036	1	368
580.205	1	370
580.375	1	376
580.545	1	385
580.715	1	387
580.885	1	392
581.055	1	382
581.225	1	383
581.394	1	377
581.564	1	378
581.734	1	379
581.904	1	361
582.074	1	367
582.244	1	369
582.414	1	383
582.583	1	371
582.753	1	362
582.923	1	380
583.093	1	386
583.263	1	350
583.433	1	353
583.603	1	368
583.772	1	386
583.942	1	370
584.112	1	370
584.282	1	383
584.452	1	375
584.622	1	359
584.791	1	360
584.961	1	364
585.131	1	361
585.301	1	373
585.471	1	343
585.641	1	366
585.811	1	358
585.980	1	351
586.150	1	357
586.320	1	369
586.490	1	348
586.660	1	356
586.830	1	350
586.999	1	364
587.169	1	345
587.339	1	335
587.509	1	349
587.679	1	340
587.849	1	345
588.018	1	362
588.188	1	357
588.358	1	349
588.528	1	333
588.698	1	359
588.867	1	346
589.037	1	347
589.207	1	333
589.377	1	332
589.547	1	330
589.717	1	321
589.886	1	326
590.056	1	345
590.226	1	325
590.396	1	337
590.566	1	331
590.735	1	329
590.905	1	320
591.075	1	325
591.245	1	330
591.415	1	327
591.585	1	302
591.754	1	319
591.924	1	326
592.094	1	324
592.264	1	332
592.434	1	321
592.603	1	320
592.773	1	326
592.943	1	315
593.113	1	323
593.283	1	336
593.452	1	336
593.622	1	330
593.792	1	321
593.962	1	318
594.132	1	337
594.301	1	331
594.471	1	321
594.641	1	332
594.811	1	318
594.981	1	325
595.150	1	326
595.320	1	323
595.490	1	344
595.660	1	314
595.829	1	343
595.999	1	309
596.169	1	313
596.339	1	353
596.509	1	331
596.678	1	331
596.848	1	331
597.018	1	322
597.188	1	321
597.358	1	348
597.527	1	330
597.697	1	338
597.867	1	334
598.037	1	339
598.206	1	331
598.376	1	332
598.546	1	344
598.716	1	349
598.885	1	342
599.055	1	343
599.225	1	334
599.395	1	339
599.565	1	335
599.734	1	331
599.904	1	340
600.074	1	346
600.244	1	327
600.413	1	340
600.583	1	330
600.753	1	350
600.923	1	345
601.092	1	328
601.262	1	373
601.432	1	346
601.602	1	347
601.771	1	339
601.941	1	350
602.111	1	339
602.281	1	353
602.451	1	345
602.620	1	345
602.790	1	338
602.960	1	339
603.130	1	344
603.299	1	326
603.469	1	349
603.639	1	336
603.809	1	349
603.978	1	370
604.148	1	338
604.318	1	341
604.487	1	341
604.657	1	363
604.827	1	341
604.997	1	351
605.166	1	349
605.336	1	322
605.506	1	351
605.676	1	354
605.845	1	345
606.015	1	332
606.185	1	332
606.355	1	351
606.524	1	342
606.694	1	329
606.864	1	319
607.034	1	328
607.203	1	352
607.373	1	333
607.543	1	346
607.712	1	329
607.882	1	327
608.052	1	342
608.222	1	329
608.391	1	332
608.561	1	322
608.731	1	318
608.901	1	322
609.070	1	326
609.240	1	339
609.410	1	334
609.579	1	318
609.749	1	304
609.919	1	324
610.089	1	329
610.258	1	301
610.428	1	325
610.598	1	317
610.767	1	312
610.937	1	327
611.107	1	315
611.277	1	321
611.446	1	320
611.616	1	308
611.786	1	313
611.955	1	306
612.125	1	301
612.295	1	309
612.465	1	288
612.634	1	292
612.804	1	307
612.974	1	308
613.143	1	317
613.313	1	290
613.483	1	267
613.652	1	304
613.822	1	299
613.992	1	298
614.162	1	293
614.331	1	283
614.501	1	301
614.671	1	291
614.840	1	303
615.010	1	295
615.180	1	292
615.349	1	293
615.519	1	269
615.689	1	302
615.858	1	293
616.028	1	284
616.198	1	295
616.368	1	291
616.537	1	283
616.707	1	294
616.877	1	266
617.046	1	291
617.216	1	280
617.386	1	273
617.555	1	280
617.725	1	278
617.895	1	287
618.064	1	263
618.234	1	273
618.404	1	288
618.573	1	284
618.743	1	256
618.913	1	292
619.082	1	282
619.252	1	275
619.422	1	284
619.591	1	271
619.761	1	277
619.931	1	258
620.100	1	280
620.270	1	278
620.440	1	285
620.609	1	284
620.779	1	289
620.949	1	284
621.118	1	279
621.288	1	279
621.458	1	279
621.627	1	280
621.797	1	274
621.967	1	282
622.136	1	254
622.306	1	274
622.476	1	282
622.645	1	266
622.815	1	250
622.985	1	255
623.154	1	258
623.324	1	271
623.494	1	263
623.663	1	267
623.833	1	268
624.002	1	262
624.172	1	261
624.342	1	260
624.511	1	272
624.681	1	260
624.851	1	263
625.020	1	252
625.190	1	253
625.360	1	254
625.529	1	253
625.699	1	271
625.869	1	250
626.038	1	262
626.208	1	262
626.377	1	261
626.547	1	248
626.717	1	254
626.886	1	271
627.056	1	247
627.226	1	259
627.395	1	256
627.565	1	254
627.735	1	259
627.904	1	252
628.074	1	260
628.243	1	240
628.413	1	262
628.583	1	231
628.752	1	252
628.922	1	246
629.091	1	247
629.261	1	247
629.431	1	243
629.600	1	255
629.770	1	231
629.940	1	245
630.109	1	248
630.279	1	251
630.448	1	245
630.618	1	230
630.788	1	255
630.957	1	258
631.127	1	238
631.297	1	233
631.466	1	228
631.636	1	251
631.805	1	252
631.975	1	245
632.145	1	226
632.314	1	230
632.484	1	228
632.653	1	226
632.823	1	251
632.993	1	248
633.162	1	238
633.332	1	236
633.501	1	226
633.671	1	228
633.841	1	236
634.010	1	218
634.180	1	226
634.349	1	225
634.519	1	235
634.689	1	240
634.858	1	233
635.028	1	228
635.197	1	230
635.367	1	232
635.537	1	247
635.706	1	224
635.876	1	222
636.045	1	227
636.215	1	234
636.384	1	234
636.554	1	232
636.724	1	227
636.893	1	247
637.063	1	215
637.232	1	228
637.402	1	214
637.572	1	221
637.741	1	235
637.911	1	226
638.080	1	226
638.250	1	216
638.419	1	217
638.589	1	207
638.759	1	202
638.928	1	228
639.098	1	232
639.267	1	210
639.437	1	219
639.606	1	231
639.776	1	224
639.946	1	217
640.115	1	215
640.285	1	225
640.454	1	229
640.624	1	225
640.793	1	217
640.963	1	221
641.132	1	215
641.302	1	222
641.472	1	225
641.641	1	218
641.811	1	226
641.980	1	208
642.150	1	219
642.319	1	207
642.489	1	217
642.659	1	218
642.828	1	199
642.998	1	207
643.167	1	205
643.337	1	204
643.506	1	216
643.676	1	215
643.845	1	215
644.015	1	205
644.184	1	205
644.354	1	202
644.524	1	196
644.693	1	216
644.863	1	203
645.032	1	211
645.202	1	215
645.371	1	222
645.541	1	218
645.710	1	202
645.880	1	218
646.049	1	199
646.219	1	206
646.388	1	200
646.558	1	217
646.728	1	202
646.897	1	209
647.067	1	207
647.236	1	200
647.406	1	205
647.575	1	191
647.745	1	202
647.914	1	209
648.084	1	210
648.253	1	204
648.423	1	214
648.592	1	208
648.762	1	221
648.931	1	203
649.101	1	196
649.270	1	194
649.440	1	212
649.610	1	196
649.779	1	195
649.949	1	182
650.118	1	201
650.288	1	191
650.457	1	186
650.627	1	191
650.796	1	192
650.966	1	182
651.135	1	191
651.305	1	184
651.474	1	202
651.644	1	197
651.813	1	190
651.983	1	177
652.152	1	194
652.322	1	190
652.491	1	184
652.661	1	171
652.830	1	185
653.000	1	196
653.169	1	171
653.339	1	186
653.508	1	178
653.678	1	185
653.847	1	171
654.017	1	174
654.186	1	178
654.356	1	181
654.525	1	179
654.695	1	174
654.864	1	172
655.034	1	182
655.203	1	168
655.373	1	187
655.542	1	178
655.712	1	154
655.881	1	181
656.051	1	171
656.220	1	164
656.390	1	171
656.559	1	171
656.729	1	148
656.898	1	151
657.068	1	159
657.237	1	161
657.406	1	161
657.576	1	171
657.745	1	162
657.915	1	167
658.084	1	149
658.254	1	154
658.423	1	153
658.593	1	151
658.762	1	160
658.932	1	146
659.101	1	168
659.271	1	154
659.440	1	169
659.610	1	156
659.779	1	166
659.949	1	145
660.118	1	158
660.288	1	137
660.457	1	168
660.626	1	145
660.796	1	156
660.965	1	150
661.135	1	149
661.304	1	162
661.474	1	160
661.643	1	128
661.813	1	132
661.982	1	146
662.152	1	152
662.321	1	155
662.491	1	140
662.660	1	147
662.829	1	146
662.999	1	141
663.168	1	137
663.338	1	143
663.507	1	145
663.677	1	149
663.846	1	135
664.016	1	159
664.185	1	148
664.354	1	141
664.524	1	145
664.693	1	140
664.863	1	131
665.032	1	146
665.202	1	143
665.371	1	139
665.541	1	139
665.710	1	129
665.879	1	155
666.049	1	142
666.218	1	139
666.388	1	146
666.557	1	134
666.727	1	141
666.896	1	130
667.065	1	141
667.235	1	126
667.404	1	146
667.574	1	131
667.743	1	135
667.913	1	150
668.082	1	146
668.251	1	150
668.421	1	149
668.590	1	124
668.760	1	148
668.929	1	145
669.099	1	144
669.268	1	133
669.437	1	139
669.607	1	137
669.776	1	150
669.946	1	132
670.115	1	144
670.285	1	142
670.454	1	149
670.623	1	132
670.793	1	132
670.962	1	147
671.132	1	148
671.301	1	127
671.470	1	145
671.640	1	137
671.809	1	136
671.979	1	136
672.148	1	145
672.317	1	138
672.487	1	159
672.656	1	146
672.826	1	132
672.995	1	149
673.164	1	127
673.334	1	143
673.503	1	132
673.673	1	136
673.842	1	138
674.011	1	124
674.181	1	139
674.350	1	142
674.520	1	124
674.689	1	152
674.858	1	140
675.028	1	147
675.197	1	137
675.367	1	135
675.536	1	131
675.705	1	137
675.875	1	139
676.044	1	148
676.214	1	153
676.383	1	153
676.552	1	128
676.722	1	137
676.891	1	135
677.060	1	147
677.230	1	119
677.399	1	133
677.569	1	111
677.738	1	133
677.907	1	132
678.077	1	131
678.246	1	132
678.416	1	131
678.585	1	133
678.754	1	129
678.924	1	146
679.093	1	134
679.262	1	116
679.432	1	120
679.601	1	128
679.771	1	129
679.940	1	123
680.109	1	130
680.279	1	127
680.448	1	122
680.617	1	128
680.787	1	127
680.956	1	125
681.125	1	125
681.295	1	120
681.464	1	130
681.634	1	125
681.803	1	137
681.972	1	132
682.142	1	122
682.311	1	110
682.480	1	111
682.650	1	115
682.819	1	124
682.988	1	120
683.158	1	117
683.327	1	128
683.496	1	128
683.666	1	120
683.835	1	112
684.004	1	119
684.174	1	115
684.343	1	117
684.512	1	118
684.682	1	119
684.851	1	112
685.021	1	103
685.190	1	110
685.359	1	112
685.529	1	111
685.698	1	111
685.867	1	129
686.037	1	101
686.206	1	113
686.375	1	103
686.545	1	105
686.714	1	110
686.883	1	108
687.053	1	105
687.222	1	119
687.391	1	108
687.561	1	105
687.730	1	108
687.899	1	106
688.069	1	102
688.238	1	112
688.407	1	109
688.577	1	108
688.746	1	109
