340.368	1	-2
340.539	1	12
340.710	1	-3
340.881	1	5
341.052	1	8
341.223	1	-9
341.394	1	10
341.565	1	0
341.737	1	-9
341.908	1	11
342.079	1	3
342.250	1	5
342.421	1	-4
342.592	1	1
342.763	1	-5
342.934	1	-5
343.105	1	3
343.276	1	2
343.447	1	5
343.618	1	-4
343.789	1	-4
343.960	1	2
344.131	1	-4
344.302	1	3
344.473	1	-3
344.644	1	6
344.815	1	-3
344.986	1	-11
345.157	1	1
345.328	1	-8
345.499	1	16
345.670	1	-2
345.841	1	0
346.012	1	2
346.183	1	-6
346.354	1	2
346.526	1	-5
346.697	1	5
346.868	1	4
347.039	1	9
347.210	1	-6
347.381	1	4
347.552	1	2
347.723	1	3
347.894	1	3
348.065	1	-9
348.236	1	-2
348.407	1	0
348.578	1	-3
348.749	1	9
348.920	1	9
349.091	1	9
349.262	1	3
349.433	1	8
349.604	1	-5
349.775	1	2
349.946	1	0
350.117	1	1
350.288	1	-2
350.459	1	4
350.630	1	2
350.801	1	-4
350.972	1	3
351.143	1	19
351.314	1	-6
351.485	1	1
351.656	1	-5
351.827	1	8
351.998	1	0
352.169	1	-8
352.340	1	12
352.511	1	7
352.682	1	-1
352.853	1	0
353.024	1	12
353.195	1	-3
353.366	1	-9
353.537	1	7
353.708	1	14
353.879	1	4
354.050	1	4
354.221	1	13
354.392	1	1
354.563	1	-2
354.734	1	-2
354.905	1	-3
355.076	1	1
355.247	1	3
355.418	1	0
355.589	1	6
355.760	1	-7
355.931	1	-4
356.102	1	0
356.273	1	-5
356.444	1	-4
356.615	1	-4
356.785	1	-1
356.956	1	-4
357.127	1	5
357.298	1	5
357.469	1	5
357.640	1	5
357.811	1	10
357.982	1	-3
358.153	1	-7
358.324	1	1
358.495	1	-10
358.666	1	-9
358.837	1	1
359.008	1	1
359.179	1	2
359.350	1	11
359.521	1	2
359.692	1	8
359.863	1	9
360.034	1	-2
360.205	1	0
360.376	1	3
360.547	1	8
360.718	1	-1
360.889	1	12
361.060	1	11
361.231	1	-11
361.401	1	0
361.572	1	8
361.743	1	2
361.914	1	1
362.085	1	0
362.256	1	8
362.427	1	6
362.598	1	6
362.769	1	10
362.940	1	1
363.111	1	0
363.282	1	-3
363.453	1	8
363.624	1	7
363.795	1	-1
363.966	1	2
364.137	1	1
364.308	1	3
364.478	1	4
364.649	1	-3
364.820	1	9
364.991	1	4
365.162	1	7
365.333	1	-6
365.504	1	-4
365.675	1	8
365.846	1	4
366.017	1	1
366.188	1	-6
366.359	1	-7
366.530	1	3
366.701	1	7
366.871	1	8
367.042	1	11
367.213	1	12
367.384	1	2
367.555	1	4
367.726	1	-3
367.897	1	12
368.068	1	5
368.239	1	0
368.410	1	-4
368.581	1	-1
368.752	1	-3
368.923	1	3
369.093	1	7
369.264	1	2
369.435	1	4
369.606	1	5
369.777	1	-1
369.948	1	9
370.119	1	-4
370.290	1	12
370.461	1	12
370.632	1	0
370.803	1	3
370.973	1	0
371.144	1	2
371.315	1	1
371.486	1	5
371.657	1	4
371.828	1	-7
371.999	1	1
372.170	1	3
372.341	1	-2
372.512	1	-7
372.682	1	12
372.853	1	3
373.024	1	1
373.195	1	-4
373.366	1	3
373.537	1	0
373.708	1	-5
373.879	1	5
374.050	1	0
374.220	1	-3
374.391	1	-6
374.562	1	-6
374.733	1	-3
374.904	1	4
375.075	1	1
375.246	1	5
375.417	1	7
375.588	1	-3
375.758	1	-4
375.929	1	8
376.100	1	2
376.271	1	3
376.442	1	-1
376.613	1	-8
376.784	1	-2
376.955	1	-3
377.125	1	-5
377.296	1	-7
377.467	1	-8
377.638	1	10
377.809	1	-4
377.980	1	6
378.151	1	12
378.321	1	4
378.492	1	-4
378.663	1	2
378.834	1	-9
379.005	1	2
379.176	1	2
379.347	1	11
379.518	1	7
379.688	1	-2
379.859	1	-6
380.030	1	0
380.201	1	3
380.372	1	-3
380.543	1	-4
380.714	1	13
380.884	1	-11
381.055	1	-2
381.226	1	-4
381.397	1	-1
381.568	1	-8
381.739	1	-3
381.910	1	0
382.080	1	5
382.251	1	-7
382.422	1	2
382.593	1	2
382.764	1	-6
382.935	1	3
383.105	1	8
383.276	1	9
383.447	1	-5
383.618	1	4
383.789	1	2
383.960	1	-5
384.130	1	-11
384.301	1	1
384.472	1	1
384.643	1	7
384.814	1	-4
384.985	1	-5
385.156	1	4
385.326	1	-6
385.497	1	5
385.668	1	2
385.839	1	1
386.010	1	11
386.180	1	-3
386.351	1	-8
386.522	1	-2
386.693	1	1
386.864	1	-7
387.035	1	5
387.205	1	7
387.376	1	-2
387.547	1	7
387.718	1	0
387.889	1	-7
388.060	1	4
388.230	1	4
388.401	1	15
388.572	1	0
388.743	1	7
388.914	1	-2
389.084	1	6
389.255	1	8
389.426	1	-3
389.597	1	4
389.768	1	10
389.939	1	4
390.109	1	-8
390.280	1	-10
390.451	1	16
390.622	1	-5
390.793	1	2
390.963	1	3
391.134	1	6
391.305	1	0
391.476	1	-13
391.647	1	0
391.817	1	-1
391.988	1	-6
392.159	1	7
392.330	1	6
392.501	1	-9
392.671	1	-20
392.842	1	4
393.013	1	7
393.184	1	4
393.355	1	1
393.525	1	1
393.696	1	2
393.867	1	-8
394.038	1	3
394.208	1	5
394.379	1	8
394.550	1	-13
394.721	1	13
394.892	1	4
395.062	1	1
395.233	1	7
395.404	1	-4
395.575	1	15
395.746	1	-2
395.916	1	3
396.087	1	5
396.258	1	-3
396.429	1	7
396.599	1	-10
396.770	1	-2
396.941	1	1
397.112	1	2
397.283	1	-1
397.453	1	2
397.624	1	-1
397.795	1	7
397.966	1	2
398.136	1	-2
398.307	1	4
398.478	1	3
398.649	1	4
398.819	1	0
398.990	1	-7
399.161	1	-8
399.332	1	-7
399.503	1	4
399.673	1	3
399.844	1	5
400.015	1	8
400.186	1	7
400.356	1	10
400.527	1	-3
400.698	1	15
400.869	1	2
401.039	1	-3
401.210	1	1
401.381	1	0
401.552	1	10
401.722	1	3
401.893	1	6
402.064	1	13
402.235	1	4
402.405	1	-1
402.576	1	-9
402.747	1	0
402.918	1	-3
403.088	1	-2
403.259	1	-6
403.430	1	-3
403.601	1	-4
403.771	1	2
403.942	1	0
404.113	1	-3
404.284	1	6
404.454	1	-5
404.625	1	-2
404.796	1	6
404.967	1	4
405.137	1	9
405.308	1	-6
405.479	1	-6
405.649	1	5
405.820	1	0
405.991	1	2
406.162	1	-6
406.332	1	-6
406.503	1	2
406.674	1	6
406.845	1	-1
407.015	1	-7
407.186	1	9
407.357	1	6
407.527	1	5
407.698	1	2
407.869	1	-6
408.040	1	3
408.210	1	10
408.381	1	0
408.552	1	-4
408.722	1	5
408.893	1	0
409.064	1	5
409.235	1	2
409.405	1	-4
409.576	1	0
409.747	1	7
409.917	1	1
410.088	1	2
410.259	1	-4
410.430	1	9
410.600	1	1
410.771	1	9
410.942	1	11
411.112	1	-9
411.283	1	0
411.454	1	8
411.625	1	3
411.795	1	-2
411.966	1	-5
412.137	1	8
412.307	1	-13
412.478	1	-8
412.649	1	-7
412.819	1	5
412.990	1	3
413.161	1	7
413.332	1	4
413.502	1	5
413.673	1	11
413.844	1	-6
414.014	1	6
414.185	1	3
414.356	1	-10
414.526	1	-7
414.697	1	4
414.868	1	0
415.038	1	14
415.209	1	-1
415.380	1	5
415.550	1	-3
415.721	1	4
415.892	1	-8
416.063	1	-2
416.233	1	7
416.404	1	-2
416.575	1	11
416.745	1	-1
416.916	1	-1
417.087	1	6
417.257	1	-2
417.428	1	4
417.599	1	0
417.769	1	0
417.940	1	-9
418.111	1	6
418.281	1	13
418.452	1	1
418.623	1	-6
418.793	1	-2
418.964	1	-10
419.135	1	3
419.305	1	0
419.476	1	-7
419.647	1	0
419.817	1	-9
419.988	1	8
420.159	1	14
420.329	1	1
420.500	1	-4
420.671	1	11
420.841	1	5
421.012	1	-5
421.183	1	2
421.353	1	1
421.524	1	5
421.695	1	4
421.865	1	13
422.036	1	9
422.206	1	-1
422.377	1	-17
422.548	1	-8
422.718	1	4
422.889	1	0
423.060	1	2
423.230	1	2
423.401	1	-3
423.572	1	-7
423.742	1	-2
423.913	1	-1
424.084	1	0
424.254	1	-2
424.425	1	9
424.595	1	3
424.766	1	-5
424.937	1	3
425.107	1	-3
425.278	1	-2
425.449	1	8
425.619	1	17
425.790	1	11
425.961	1	2
426.131	1	-11
426.302	1	-5
426.472	1	2
426.643	1	0
426.814	1	1
426.984	1	12
427.155	1	4
427.326	1	-6
427.496	1	0
427.667	1	8
427.837	1	5
428.008	1	-1
428.179	1	8
428.349	1	-1
428.520	1	1
428.691	1	11
428.861	1	-13
429.032	1	0
429.202	1	5
429.373	1	-6
429.544	1	8
429.714	1	3
429.885	1	0
430.055	1	6
430.226	1	14
430.397	1	5
430.567	1	5
430.738	1	6
430.909	1	2
431.079	1	5
431.250	1	3
431.420	1	4
431.591	1	-1
431.762	1	-1
431.932	1	-1
432.103	1	-1
432.273	1	7
432.444	1	13
432.615	1	-1
432.785	1	-1
432.956	1	4
433.126	1	-11
433.297	1	-2
433.468	1	4
433.638	1	0
433.809	1	-8
433.979	1	-13
434.150	1	8
434.320	1	10
434.491	1	1
434.662	1	10
434.832	1	2
435.003	1	6
435.173	1	-3
435.344	1	10
435.515	1	3
435.685	1	6
435.856	1	-6
436.026	1	14
436.197	1	1
436.368	1	6
436.538	1	-4
436.709	1	5
436.879	1	-4
437.050	1	1
437.220	1	-3
437.391	1	6
437.562	1	11
437.732	1	7
437.903	1	0
438.073	1	-9
438.244	1	-1
438.414	1	0
438.585	1	11
438.756	1	4
438.926	1	8
439.097	1	5
439.267	1	8
439.438	1	10
439.608	1	-3
439.779	1	16
439.949	1	7
440.120	1	6
440.291	1	-4
440.461	1	-9
440.632	1	-12
440.802	1	5
440.973	1	11
441.143	1	7
441.314	1	8
441.485	1	-7
441.655	1	-4
441.826	1	-3
441.996	1	2
442.167	1	1
442.337	1	-3
442.508	1	2
442.678	1	4
442.849	1	6
443.019	1	6
443.190	1	4
443.361	1	3
443.531	1	-11
443.702	1	-4
443.872	1	0
444.043	1	-1
444.213	1	-4
444.384	1	1
444.554	1	15
444.725	1	3
444.895	1	12
445.066	1	-3
445.237	1	-2
445.407	1	-4
445.578	1	-1
445.748	1	0
445.919	1	-2
446.089	1	5
446.260	1	7
446.430	1	9
446.601	1	-2
446.771	1	-3
446.942	1	3
447.112	1	1
447.283	1	3
447.453	1	-1
447.624	1	3
447.794	1	13
447.965	1	6
448.135	1	-7
448.306	1	3
448.477	1	-2
448.647	1	5
448.818	1	2
448.988	1	3
449.159	1	10
449.329	1	2
449.500	1	3
449.670	1	-6
449.841	1	-3
450.011	1	1
450.182	1	-6
450.352	1	-7
450.523	1	2
450.693	1	-2
450.864	1	5
451.034	1	9
451.205	1	-3
451.375	1	1
451.546	1	-4
451.716	1	-4
451.887	1	1
452.057	1	1
452.228	1	5
452.398	1	12
452.569	1	-4
452.739	1	-6
452.910	1	-3
453.080	1	5
453.251	1	0
453.421	1	-2
453.592	1	-7
453.762	1	6
453.933	1	-6
454.103	1	8
454.274	1	-4
454.444	1	3
454.615	1	2
454.785	1	6
454.956	1	0
455.126	1	1
455.297	1	-3
455.467	1	1
455.638	1	1
455.808	1	-4
455.979	1	4
456.149	1	2
456.320	1	-3
456.490	1	-3
456.661	1	19
456.831	1	0
457.001	1	0
457.172	1	-1
457.342	1	0
457.513	1	3
457.683	1	1
457.854	1	-2
458.024	1	-2
458.195	1	3
458.365	1	-2
458.536	1	10
458.706	1	7
458.877	1	5
459.047	1	-6
459.218	1	6
459.388	1	12
459.559	1	-7
459.729	1	5
459.899	1	3
460.070	1	7
460.240	1	4
460.411	1	2
460.581	1	-3
460.752	1	1
460.922	1	-6
461.093	1	4
461.263	1	7
461.434	1	-5
461.604	1	5
461.775	1	10
461.945	1	-3
462.115	1	17
462.286	1	-3
462.456	1	5
462.627	1	-11
462.797	1	-5
462.968	1	-9
463.138	1	4
463.309	1	9
463.479	1	-6
463.649	1	6
463.820	1	4
463.990	1	0
464.161	1	0
464.331	1	5
464.502	1	3
464.672	1	4
464.843	1	-4
465.013	1	10
465.183	1	-2
465.354	1	4
465.524	1	3
465.695	1	-1
465.865	1	-13
466.036	1	-3
466.206	1	9
466.376	1	2
466.547	1	10
466.717	1	4
466.888	1	-3
467.058	1	0
467.229	1	-5
467.399	1	0
467.569	1	-3
467.740	1	-1
467.910	1	2
468.081	1	-4
468.251	1	3
468.422	1	8
468.592	1	2
468.762	1	-3
468.933	1	-10
469.103	1	13
469.274	1	-7
469.444	1	-3
469.614	1	0
469.785	1	5
469.955	1	11
470.126	1	4
470.296	1	15
470.467	1	5
470.637	1	-19
470.807	1	-6
470.978	1	7
471.148	1	-2
471.319	1	0
471.489	1	-6
471.659	1	16
471.830	1	4
472.000	1	-3
472.171	1	-3
472.341	1	3
472.511	1	6
472.682	1	-12
472.852	1	7
473.023	1	-1
473.193	1	1
473.363	1	4
473.534	1	8
473.704	1	11
473.875	1	6
474.045	1	1
474.215	1	5
474.386	1	-3
474.556	1	11
474.727	1	3
474.897	1	1
475.067	1	6
475.238	1	-6
475.408	1	4
475.578	1	0
475.749	1	-3
475.919	1	11
476.090	1	-1
476.260	1	14
476.430	1	-4
476.601	1	-1
476.771	1	11
476.942	1	1
477.112	1	-3
477.282	1	-2
477.453	1	1
477.623	1	-10
477.793	1	-5
477.964	1	2
478.134	1	10
478.305	1	8
478.475	1	7
478.645	1	15
478.816	1	4
478.986	1	-8
479.156	1	4
479.327	1	4
479.497	1	8
479.667	1	-6
479.838	1	5
480.008	1	-2
480.179	1	11
480.349	1	4
480.519	1	1
480.690	1	-7
480.860	1	1
481.030	1	-3
481.201	1	4
481.371	1	-3
481.541	1	-1
481.712	1	2
481.882	1	2
482.053	1	3
482.223	1	-16
482.393	1	2
482.564	1	-10
482.734	1	5
482.904	1	7
483.075	1	11
483.245	1	-4
483.415	1	-11
483.586	1	3
483.756	1	-6
483.926	1	-3
484.097	1	-8
484.267	1	15
484.437	1	-6
484.608	1	7
484.778	1	5
484.948	1	-2
485.119	1	-14
485.289	1	-2
485.459	1	-1
485.630	1	2
485.800	1	-7
485.970	1	2
486.141	1	1
486.311	1	-7
486.481	1	5
486.652	1	12
486.822	1	-6
486.992	1	-9
487.163	1	2
487.333	1	8
487.503	1	-10
487.674	1	1
487.844	1	6
488.014	1	-1
488.185	1	2
488.355	1	2
488.525	1	14
488.696	1	9
488.866	1	-2
489.036	1	-1
489.207	1	11
489.377	1	1
489.547	1	1
489.718	1	-11
489.888	1	11
490.058	1	1
490.228	1	-12
490.399	1	1
490.569	1	-6
490.739	1	-7
490.910	1	5
491.080	1	7
491.250	1	8
491.421	1	3
491.591	1	-3
491.761	1	3
491.932	1	6
492.102	1	5
492.272	1	-11
492.442	1	6
492.613	1	15
492.783	1	-4
492.953	1	5
493.124	1	2
493.294	1	3
493.464	1	-12
493.635	1	3
493.805	1	3
493.975	1	2
494.145	1	-4
494.316	1	3
494.486	1	2
494.656	1	2
494.827	1	-1
494.997	1	2
495.167	1	-2
495.337	1	3
495.508	1	6
495.678	1	4
495.848	1	-1
496.019	1	1
496.189	1	-1
496.359	1	-3
496.529	1	1
496.700	1	5
496.870	1	1
497.040	1	3
497.211	1	0
497.381	1	-9
497.551	1	6
497.721	1	1
497.892	1	9
498.062	1	1
498.232	1	6
498.403	1	11
498.573	1	-7
498.743	1	3
498.913	1	-12
499.084	1	1
499.254	1	-9
499.424	1	-1
499.594	1	-2
499.765	1	-7
499.935	1	-1
500.105	1	11
500.275	1	1
500.446	1	6
500.616	1	0
500.786	1	0
500.956	1	1
501.127	1	5
501.297	1	1
501.467	1	7
501.638	1	2
501.808	1	8
501.978	1	-2
502.148	1	-1
502.319	1	3
502.489	1	1
502.659	1	-4
502.829	1	3
503.000	1	19
503.170	1	2
503.340	1	13
503.510	1	0
503.681	1	-4
503.851	1	-2
504.021	1	4
504.191	1	1
504.362	1	-2
504.532	1	2
504.702	1	12
504.872	1	11
505.042	1	0
505.213	1	10
505.383	1	1
505.553	1	-8
505.723	1	10
505.894	1	1
506.064	1	2
506.234	1	0
506.404	1	7
506.575	1	-5
506.745	1	4
506.915	1	-18
507.085	1	-6
507.256	1	-1
507.426	1	-1
507.596	1	3
507.766	1	-5
507.936	1	7
508.107	1	5
508.277	1	12
508.447	1	7
508.617	1	0
508.788	1	-5
508.958	1	8
509.128	1	-2
509.298	1	-2
509.468	1	11
509.639	1	-6
509.809	1	2
509.979	1	-5
510.149	1	5
510.319	1	7
510.490	1	-11
510.660	1	-2
510.830	1	-1
511.000	1	8
511.171	1	10
511.341	1	5
511.511	1	16
511.681	1	-1
511.851	1	6
512.022	1	-3
512.192	1	7
512.362	1	-1
512.532	1	6
512.702	1	-4
512.873	1	-3
513.043	1	2
513.213	1	6
513.383	1	-3
513.553	1	4
513.724	1	-2
513.894	1	11
514.064	1	1
514.234	1	4
514.404	1	-2
514.575	1	-4
514.745	1	-1
514.915	1	-8
515.085	1	5
515.255	1	-2
515.425	1	-1
515.596	1	9
515.766	1	3
515.936	1	1
516.106	1	14
516.276	1	9
516.447	1	2
516.617	1	-1
516.787	1	-13
516.957	1	-10
517.127	1	4
517.297	1	4
517.468	1	2
517.638	1	4
517.808	1	-2
517.978	1	0
518.148	1	0
518.319	1	-2
518.489	1	-6
518.659	1	-1
518.829	1	9
518.999	1	-3
519.169	1	0
519.340	1	-1
519.510	1	-6
519.680	1	2
519.850	1	-3
520.020	1	1
520.190	1	-8
520.361	1	-3
520.531	1	12
520.701	1	6
520.871	1	-8
521.041	1	-1
521.211	1	-4
521.382	1	10
521.552	1	-5
521.722	1	-3
521.892	1	3
522.062	1	-1
522.232	1	1
522.402	1	0
522.573	1	-1
522.743	1	7
522.913	1	-1
523.083	1	10
523.253	1	0
523.423	1	2
523.593	1	-10
523.764	1	-4
523.934	1	7
524.104	1	8
524.274	1	-8
524.444	1	8
524.614	1	-4
524.784	1	-8
524.955	1	1
525.125	1	-5
525.295	1	-2
525.465	1	2
525.635	1	4
525.805	1	11
525.975	1	3
526.146	1	8
526.316	1	-9
526.486	1	-11
526.656	1	-6
526.826	1	-2
526.996	1	-3
527.166	1	7
527.337	1	8
527.507	1	6
527.677	1	-10
527.847	1	2
528.017	1	-6
528.187	1	0
528.357	1	-6
528.527	1	-4
528.698	1	-3
528.868	1	2
529.038	1	7
529.208	1	0
529.378	1	7
529.548	1	3
529.718	1	-6
529.888	1	5
530.058	1	2
530.229	1	2
530.399	1	-5
530.569	1	2
530.739	1	6
530.909	1	-3
531.079	1	10
531.249	1	3
531.419	1	-2
531.589	1	-11
531.760	1	-8
531.930	1	-3
532.100	1	10
532.270	1	4
532.440	1	-1
532.610	1	15
532.780	1	-13
532.950	1	14
533.120	1	12
533.290	1	-6
533.461	1	-11
533.631	1	3
533.801	1	3
533.971	1	5
534.141	1	6
534.311	1	-3
534.481	1	3
534.651	1	-1
534.821	1	2
534.991	1	7
535.162	1	-2
535.332	1	-3
535.502	1	-1
535.672	1	-2
535.842	1	-3
536.012	1	6
536.182	1	-2
536.352	1	-7
536.522	1	-4
536.692	1	5
536.862	1	0
537.032	1	-2
537.203	1	-8
537.373	1	-12
537.543	1	13
537.713	1	5
537.883	1	-10
538.053	1	6
538.223	1	8
538.393	1	4
538.563	1	0
538.733	1	1
538.903	1	4
539.073	1	7
539.243	1	5
539.413	1	-2
539.584	1	1
539.754	1	-11
539.924	1	-1
540.094	1	5
540.264	1	-11
540.434	1	-6
540.604	1	-8
540.774	1	5
540.944	1	8
541.114	1	3
541.284	1	4
541.454	1	1
541.624	1	5
541.794	1	-10
541.964	1	7
542.134	1	3
542.305	1	2
542.475	1	6
542.645	1	-2
542.815	1	4
542.985	1	8
543.155	1	4
543.325	1	6
543.495	1	-4
543.665	1	-6
543.835	1	6
544.005	1	5
544.175	1	-1
544.345	1	8
544.515	1	-6
544.685	1	-5
544.855	1	5
545.025	1	0
545.195	1	-1
545.365	1	6
545.535	1	-4
545.705	1	7
545.875	1	8
546.045	1	-10
546.216	1	9
546.386	1	5
546.556	1	4
546.726	1	9
546.896	1	7
547.066	1	-11
547.236	1	2
547.406	1	4
547.576	1	-1
547.746	1	-5
547.916	1	2
548.086	1	3
548.256	1	0
548.426	1	2
548.596	1	-1
548.766	1	-5
548.936	1	11
549.106	1	-4
549.276	1	1
549.446	1	10
549.616	1	1
549.786	1	6
549.956	1	2
550.126	1	-4
550.296	1	-5
550.466	1	7
550.636	1	5
550.806	1	14
550.976	1	0
551.146	1	-3
551.316	1	5
551.486	1	8
551.656	1	6
551.826	1	4
551.996	1	5
552.166	1	-10
552.336	1	-1
552.506	1	-7
552.676	1	5
552.846	1	-4
553.016	1	7
553.186	1	-3
553.356	1	-9
553.526	1	4
553.696	1	-6
553.866	1	-3
554.036	1	18
554.206	1	8
554.376	1	2
554.546	1	3
554.716	1	-4
554.886	1	4
555.056	1	2
555.226	1	4
555.396	1	11
555.566	1	4
555.736	1	-12
555.906	1	2
556.076	1	-7
556.246	1	1
556.416	1	-5
556.586	1	-1
556.756	1	8
556.926	1	2
557.096	1	-10
557.266	1	8
557.436	1	-1
557.606	1	-6
557.776	1	6
557.946	1	10
558.116	1	5
558.286	1	2
558.456	1	8
558.626	1	-1
558.796	1	11
558.966	1	9
559.136	1	0
559.306	1	2
559.476	1	-2
559.646	1	-5
559.816	1	3
559.986	1	12
560.155	1	-4
560.325	1	4
560.495	1	5
560.665	1	7
560.835	1	1
561.005	1	5
561.175	1	0
561.345	1	-2
561.515	1	-1
561.685	1	-4
561.855	1	17
562.025	1	-4
562.195	1	5
562.365	1	0
562.535	1	-3
562.705	1	9
562.875	1	-3
563.045	1	4
563.215	1	10
563.385	1	6
563.555	1	-10
563.725	1	-3
563.895	1	2
564.064	1	-5
564.234	1	-6
564.404	1	8
564.574	1	3
564.744	1	-2
564.914	1	1
565.084	1	7
565.254	1	13
565.424	1	-4
565.594	1	3
565.764	1	1
565.934	1	2
566.104	1	-7
566.274	1	2
566.444	1	13
566.614	1	-1
566.783	1	11
566.953	1	0
567.123	1	-5
567.293	1	2
567.463	1	-8
567.633	1	3
567.803	1	-2
567.973	1	3
568.143	1	1
568.313	1	16
568.483	1	1
568.653	1	5
568.823	1	-5
568.993	1	-2
569.162	1	6
569.332	1	5
569.502	1	2
569.672	1	6
569.842	1	-2
570.012	1	12
570.182	1	7
570.352	1	2
570.522	1	6
570.692	1	-3
570.862	1	1
571.031	1	-6
571.201	1	-3
571.371	1	-9
571.541	1	14
571.711	1	18
571.881	1	2
572.051	1	-3
572.221	1	4
572.391	1	-5
572.561	1	-7
572.731	1	4
572.900	1	6
573.070	1	-5
573.240	1	2
573.410	1	12
573.580	1	-3
573.750	1	5
573.920	1	3
574.090	1	11
574.260	1	-7
574.430	1	-1
574.599	1	16
574.769	1	-1
574.939	1	4
575.109	1	0
575.279	1	8
575.449	1	-3
575.619	1	-1
575.789	1	-3
575.959	1	5
576.128	1	-3
576.298	1	5
576.468	1	-10
576.638	1	8
576.808	1	-1
576.978	1	8
577.148	1	-1
577.318	1	8
577.487	1	-2
577.657	1	3
577.827	1	-3
577.997	1	4
578.167	1	-1
578.337	1	15
578.507	1	7
578.677	1	1
578.846	1	3
579.016	1	6
579.186	1	-13
579.356	1	5
579.526	1	6
579.696	1	-2
579.866	1	-3
580.036	1	2
580.205	1	1
580.375	1	17
580.545	1	-6
580.715	1	5
580.885	1	2
581.055	1	10
581.225	1	-3
581.394	1	12
581.564	1	-5
581.734	1	6
581.904	1	-1
582.074	1	-13
582.244	1	-3
582.414	1	2
582.583	1	4
582.753	1	-5
582.923	1	9
583.093	1	6
583.263	1	-9
583.433	1	-8
583.603	1	8
583.772	1	2
583.942	1	-1
584.112	1	-8
584.282	1	2
584.452	1	-2
584.622	1	-6
584.791	1	8
584.961	1	10
585.131	1	-5
585.301	1	3
585.471	1	-7
585.641	1	2
585.811	1	1
585.980	1	4
586.150	1	3
586.320	1	9
586.490	1	0
586.660	1	1
586.830	1	11
586.999	1	6
587.169	1	3
587.339	1	-8
587.509	1	0
587.679	1	7
587.849	1	15
588.018	1	3
588.188	1	11
588.358	1	1
588.528	1	5
588.698	1	5
588.867	1	4
589.037	1	4
589.207	1	-3
589.377	1	-8
589.547	1	-7
589.717	1	5
589.886	1	11
590.056	1	4
590.226	1	7
590.396	1	-4
590.566	1	4
590.735	1	-3
590.905	1	-8
591.075	1	-13
591.245	1	6
591.415	1	0
591.585	1	-11
591.754	1	9
591.924	1	2
592.094	1	1
592.264	1	-7
592.434	1	8
592.603	1	-8
592.773	1	9
592.943	1	8
593.113	1	9
593.283	1	4
593.452	1	6
593.622	1	-3
593.792	1	0
593.962	1	7
594.132	1	5
594.301	1	-8
594.471	1	-1
594.641	1	-1
594.811	1	9
594.981	1	0
595.150	1	8
595.320	1	-1
595.490	1	8
595.660	1	-1
595.829	1	6
595.999	1	-3
596.169	1	-11
596.339	1	9
596.509	1	5
596.678	1	3
596.848	1	3
597.018	1	-1
597.188	1	5
597.358	1	0
597.527	1	1
597.697	1	-6
597.867	1	4
598.037	1	2
598.206	1	3
598.376	1	-3
598.546	1	0
598.716	1	3
598.885	1	3
599.055	1	-4
599.225	1	-8
599.395	1	7
599.565	1	-5
599.734	1	3
599.904	1	1
600.074	1	2
600.244	1	1
600.413	1	-4
600.583	1	4
600.753	1	11
600.923	1	-4
601.092	1	1
601.262	1	18
601.432	1	-3
601.602	1	4
601.771	1	-5
601.941	1	-3
602.111	1	1
602.281	1	-1
602.451	1	13
602.620	1	10
602.790	1	-5
602.960	1	13
603.130	1	-3
603.299	1	5
603.469	1	-3
603.639	1	-8
603.809	1	1
603.978	1	7
604.148	1	-6
604.318	1	3
604.487	1	4
604.657	1	11
604.827	1	12
604.997	1	9
605.166	1	1
605.336	1	6
605.506	1	0
605.676	1	12
605.845	1	11
606.015	1	5
606.185	1	10
606.355	1	6
606.524	1	4
606.694	1	1
606.864	1	3
607.034	1	4
607.203	1	6
607.373	1	-3
607.543	1	3
607.712	1	14
607.882	1	12
608.052	1	-4
608.222	1	3
608.391	1	10
608.561	1	6
608.731	1	3
608.901	1	-2
609.070	1	-14
609.240	1	-4
609.410	1	14
609.579	1	2
609.749	1	-1
609.919	1	7
610.089	1	6
610.258	1	-1
610.428	1	2
610.598	1	7
610.767	1	-8
610.937	1	-4
611.107	1	9
611.277	1	7
611.446	1	5
611.616	1	-4
611.786	1	7
611.955	1	-4
612.125	1	-5
612.295	1	-3
612.465	1	3
612.634	1	1
612.804	1	9
612.974	1	16
613.143	1	2
613.313	1	-2
613.483	1	-12
613.652	1	3
613.822	1	-1
613.992	1	-6
614.162	1	7
614.331	1	-3
614.501	1	6
614.671	1	8
614.840	1	4
615.010	1	6
615.180	1	-4
615.349	1	9
615.519	1	-2
615.689	1	8
615.858	1	-1
616.028	1	4
616.198	1	-6
616.368	1	9
616.537	1	3
616.707	1	8
616.877	1	-5
617.046	1	-4
617.216	1	-1
617.386	1	-17
617.555	1	7
617.725	1	-3
617.895	1	6
618.064	1	2
618.234	1	1
618.404	1	4
618.573	1	6
618.743	1	9
618.913	1	0
619.082	1	6
619.252	1	13
619.422	1	12
619.591	1	8
619.761	1	1
619.931	1	-17
620.100	1	3
620.270	1	-7
620.440	1	1
620.609	1	6
620.779	1	2
620.949	1	4
621.118	1	9
621.288	1	4
621.458	1	6
621.627	1	6
621.797	1	5
621.967	1	3
622.136	1	-1
622.306	1	5
622.476	1	12
622.645	1	13
622.815	1	-5
622.985	1	-7
623.154	1	-4
623.324	1	13
623.494	1	0
623.663	1	14
623.833	1	5
624.002	1	-3
624.172	1	0
624.342	1	-8
624.511	1	14
624.681	1	8
624.851	1	5
625.020	1	4
625.190	1	3
625.360	1	2
625.529	1	5
625.699	1	9
625.869	1	-5
626.038	1	6
626.208	1	6
626.377	1	6
626.547	1	-11
626.717	1	-6
626.886	1	9
627.056	1	-1
627.226	1	1
627.395	1	1
627.565	1	3
627.735	1	-11
627.904	1	9
628.074	1	6
628.243	1	-6
628.413	1	-6
628.583	1	11
628.752	1	1
628.922	1	1
629.091	1	-6
629.261	1	-9
629.431	1	-13
629.600	1	2
629.770	1	-4
629.940	1	4
630.109	1	5
630.279	1	-1
630.448	1	1
630.618	1	-11
630.788	1	6
630.957	1	1
631.127	1	17
631.297	1	-4
631.466	1	-4
631.636	1	10
631.805	1	0
631.975	1	2
632.145	1	-3
632.314	1	-1
632.484	1	10
632.653	1	-6
632.823	1	6
632.993	1	10
633.162	1	3
633.332	1	1
633.501	1	0
633.671	1	2
633.841	1	8
634.010	1	0
634.180	1	-4
634.349	1	-1
634.519	1	2
634.689	1	-3
634.858	1	6
635.028	1	2
635.197	1	9
635.367	1	-7
635.537	1	15
635.706	1	-1
635.876	1	1
636.045	1	2
636.215	1	-1
636.384	1	1
636.554	1	6
636.724	1	4
636.893	1	4
637.063	1	-5
637.232	1	2
637.402	1	-7
637.572	1	6
637.741	1	5
637.911	1	-3
638.080	1	-2
638.250	1	6
638.419	1	8
638.589	1	-6
638.759	1	4
638.928	1	2
639.098	1	14
639.267	1	1
639.437	1	-6
639.606	1	9
639.776	1	-3
639.946	1	-4
640.115	1	-9
640.285	1	0
640.454	1	4
640.624	1	-7
640.793	1	9
640.963	1	9
641.132	1	-3
641.302	1	2
641.472	1	6
641.641	1	0
641.811	1	-5
641.980	1	-9
642.150	1	0
642.319	1	5
642.489	1	-13
642.659	1	8
642.828	1	-2
642.998	1	0
643.167	1	3
643.337	1	0
643.506	1	4
643.676	1	1
643.845	1	-8
644.015	1	0
644.184	1	0
644.354	1	1
644.524	1	4
644.693	1	2
644.863	1	-10
645.032	1	-2
645.202	1	-10
645.371	1	15
645.541	1	1
645.710	1	-7
645.880	1	12
646.049	1	-20
646.219	1	8
646.388	1	-2
646.558	1	6
646.728	1	-5
646.897	1	6
647.067	1	0
647.236	1	4
647.406	1	5
647.575	1	1
647.745	1	4
647.914	1	1
648.084	1	7
648.253	1	2
648.423	1	2
648.592	1	-4
648.762	1	12
648.931	1	2
649.101	1	-5
649.270	1	-6
649.440	1	11
649.610	1	-1
649.779	1	6
649.949	1	-8
650.118	1	-1
650.288	1	-5
650.457	1	-11
650.627	1	4
650.796	1	-2
650.966	1	1
651.135	1	-1
651.305	1	2
651.474	1	8
651.644	1	-4
651.813	1	-5
651.983	1	-8
652.152	1	2
652.322	1	0
652.491	1	11
652.661	1	-4
652.830	1	3
653.000	1	-8
653.169	1	-3
653.339	1	4
653.508	1	1
653.678	1	0
653.847	1	-7
654.017	1	1
654.186	1	8
654.356	1	-1
654.525	1	2
654.695	1	3
654.864	1	-2
655.034	1	6
655.203	1	2
655.373	1	3
655.542	1	7
655.712	1	-1
655.881	1	11
656.051	1	-5
656.220	1	13
656.390	1	18
656.559	1	2
656.729	1	-8
656.898	1	13
657.068	1	-2
657.237	1	1
657.406	1	2
657.576	1	0
657.745	1	6
657.915	1	10
658.084	1	-2
658.254	1	-4
658.423	1	-3
658.593	1	-4
658.762	1	8
658.932	1	5
659.101	1	-8
659.271	1	-3
659.440	1	5
659.610	1	-1
659.779	1	2
659.949	1	-4
660.118	1	7
660.288	1	9
660.457	1	-5
660.626	1	-6
660.796	1	5
660.965	1	7
661.135	1	7
661.304	1	0
661.474	1	-1
661.643	1	-4
661.813	1	-13
661.982	1	2
662.152	1	-2
662.321	1	-5
662.491	1	3
662.660	1	0
662.829	1	4
662.999	1	2
663.168	1	5
663.338	1	1
663.507	1	-1
663.677	1	2
663.846	1	-6
664.016	1	14
664.185	1	4
664.354	1	0
664.524	1	4
664.693	1	2
664.863	1	9
665.032	1	4
665.202	1	2
665.371	1	2
665.541	1	-3
665.710	1	-5
665.879	1	5
666.049	1	-3
666.218	1	-8
666.388	1	9
666.557	1	0
666.727	1	-5
666.896	1	-2
667.065	1	12
667.235	1	3
667.404	1	5
667.574	1	3
667.743	1	-7
667.913	1	14
668.082	1	9
668.251	1	9
668.421	1	10
668.590	1	-9
668.760	1	-4
668.929	1	1
669.099	1	-8
669.268	1	-5
669.437	1	5
669.607	1	0
669.776	1	7
669.946	1	-3
670.115	1	6
670.285	1	2
670.454	1	2
670.623	1	3
670.793	1	5
670.962	1	0
671.132	1	0
671.301	1	2
671.470	1	-2
671.640	1	2
671.809	1	2
671.979	1	11
672.148	1	-10
672.317	1	0
672.487	1	6
672.656	1	0
672.826	1	-9
672.995	1	0
673.164	1	6
673.334	1	-3
673.503	1	9
673.673	1	-2
673.842	1	5
674.011	1	-2
674.181	1	4
674.350	1	11
674.520	1	-9
674.689	1	15
674.858	1	15
675.028	1	12
675.197	1	1
675.367	1	-2
675.536	1	6
675.705	1	-6
675.875	1	-7
676.044	1	3
676.214	1	-1
676.383	1	10
676.552	1	7
676.722	1	0
676.891	1	-2
677.060	1	9
677.230	1	-4
677.399	1	-4
677.569	1	-17
677.738	1	-2
677.907	1	4
678.077	1	10
678.246	1	2
678.416	1	2
678.585	1	14
678.754	1	5
678.924	1	-1
679.093	1	12
679.262	1	-6
679.432	1	-12
679.601	1	5
679.771	1	7
679.940	1	-1
680.109	1	3
680.279	1	7
680.448	1	-6
680.617	1	-2
680.787	1	-7
680.956	1	4
681.125	1	0
681.295	1	9
681.464	1	6
681.634	1	-7
681.803	1	4
681.972	1	-1
682.142	1	10
682.311	1	9
682.480	1	-9
682.650	1	-3
682.819	1	-1
682.988	1	1
683.158	1	-1
683.327	1	0
683.496	1	-2
683.666	1	2
683.835	1	-2
684.004	1	12
684.174	1	-5
684.343	1	5
684.512	1	8
684.682	1	-7
684.851	1	4
685.021	1	3
685.190	1	-4
685.359	1	-3
685.529	1	-4
685.698	1	1
685.867	1	15
686.037	1	-6
686.206	1	2
686.375	1	-3
686.545	1	-2
686.714	1	2
686.883	1	-5
687.053	1	3
687.222	1	4
687.391	1	-5
687.561	1	2
687.730	1	-6
687.899	1	3
688.069	1	-7
688.238	1	-1
688.407	1	2
688.577	1	5
688.746	1	-3
