340.368	1	5
340.539	1	11
340.710	1	11
340.881	1	5
341.052	1	4
341.223	1	-8
341.394	1	8
341.565	1	-10
341.737	1	1
341.908	1	-2
342.079	1	14
342.250	1	5
342.421	1	-8
342.592	1	9
342.763	1	-1
342.934	1	7
343.105	1	-3
343.276	1	-5
343.447	1	6
343.618	1	-4
343.789	1	3
343.960	1	2
344.131	1	2
344.302	1	10
344.473	1	2
344.644	1	15
344.815	1	7
344.986	1	-10
345.157	1	1
345.328	1	-1
345.499	1	14
345.670	1	7
345.841	1	-4
346.012	1	8
346.183	1	-2
346.354	1	1
346.526	1	0
346.697	1	-2
346.868	1	1
347.039	1	17
347.210	1	1
347.381	1	-2
347.552	1	5
347.723	1	8
347.894	1	10
348.065	1	1
348.236	1	11
348.407	1	8
348.578	1	-15
348.749	1	9
348.920	1	8
349.091	1	19
349.262	1	-3
349.433	1	9
349.604	1	3
349.775	1	11
349.946	1	3
350.117	1	10
350.288	1	2
350.459	1	3
350.630	1	6
350.801	1	12
350.972	1	6
351.143	1	12
351.314	1	8
351.485	1	3
351.656	1	3
351.827	1	8
351.998	1	6
352.169	1	3
352.340	1	14
352.511	1	12
352.682	1	6
352.853	1	13
353.024	1	12
353.195	1	4
353.366	1	-3
353.537	1	9
353.708	1	10
353.879	1	1
354.050	1	14
354.221	1	4
354.392	1	12
354.563	1	5
354.734	1	6
354.905	1	4
355.076	1	2
355.247	1	13
355.418	1	6
355.589	1	8
355.760	1	12
355.931	1	6
356.102	1	14
356.273	1	17
356.444	1	13
356.615	1	13
356.785	1	13
356.956	1	7
357.127	1	8
357.298	1	8
357.469	1	16
357.640	1	19
357.811	1	12
357.982	1	22
358.153	1	7
358.324	1	21
358.495	1	10
358.666	1	12
358.837	1	12
359.008	1	6
359.179	1	13
359.350	1	13
359.521	1	17
359.692	1	14
359.863	1	18
360.034	1	14
360.205	1	19
360.376	1	19
360.547	1	6
360.718	1	10
360.889	1	21
361.060	1	25
361.231	1	11
361.401	1	25
361.572	1	27
361.743	1	12
361.914	1	29
362.085	1	32
362.256	1	12
362.427	1	26
362.598	1	24
362.769	1	21
362.940	1	37
363.111	1	25
363.282	1	20
363.453	1	32
363.624	1	23
363.795	1	20
363.966	1	25
364.137	1	37
364.308	1	31
364.478	1	34
364.649	1	24
364.820	1	36
364.991	1	35
365.162	1	32
365.333	1	38
365.504	1	32
365.675	1	28
365.846	1	41
366.017	1	36
366.188	1	49
366.359	1	37
366.530	1	36
366.701	1	39
366.871	1	54
367.042	1	49
367.213	1	45
367.384	1	45
367.555	1	48
367.726	1	48
367.897	1	61
368.068	1	49
368.239	1	52
368.410	1	51
368.581	1	49
368.752	1	52
368.923	1	57
369.093	1	42
369.264	1	62
369.435	1	48
369.606	1	46
369.777	1	59
369.948	1	60
370.119	1	50
370.290	1	69
370.461	1	70
370.632	1	59
370.803	1	59
370.973	1	71
371.144	1	76
371.315	1	66
371.486	1	64
371.657	1	74
371.828	1	58
371.999	1	70
372.170	1	68
372.341	1	67
372.512	1	54
372.682	1	77
372.853	1	64
373.024	1	81
373.195	1	79
373.366	1	68
373.537	1	69
373.708	1	85
373.879	1	80
374.050	1	67
374.220	1	76
374.391	1	73
374.562	1	79
374.733	1	78
374.904	1	73
375.075	1	79
375.246	1	76
375.417	1	70
375.588	1	62
375.758	1	62
375.929	1	72
376.100	1	66
376.271	1	67
376.442	1	65
376.613	1	61
376.784	1	59
376.955	1	72
377.125	1	67
377.296	1	57
377.467	1	58
377.638	1	66
377.809	1	55
377.980	1	68
378.151	1	71
378.321	1	53
378.492	1	53
378.663	1	50
378.834	1	59
379.005	1	66
379.176	1	55
379.347	1	66
379.518	1	60
379.688	1	53
379.859	1	47
380.030	1	55
380.201	1	48
380.372	1	43
380.543	1	46
380.714	1	51
380.884	1	43
381.055	1	44
381.226	1	54
381.397	1	39
381.568	1	45
381.739	1	58
381.910	1	44
382.080	1	38
382.251	1	31
382.422	1	40
382.593	1	35
382.764	1	34
382.935	1	39
383.105	1	60
383.276	1	42
383.447	1	40
383.618	1	41
383.789	1	33
383.960	1	42
384.130	1	30
384.301	1	37
384.472	1	38
384.643	1	39
384.814	1	37
384.985	1	39
385.156	1	41
385.326	1	33
385.497	1	44
385.668	1	36
385.839	1	35
386.010	1	42
386.180	1	28
386.351	1	29
386.522	1	35
386.693	1	23
386.864	1	22
387.035	1	31
387.205	1	41
387.376	1	25
387.547	1	33
387.718	1	27
387.889	1	27
388.060	1	26
388.230	1	38
388.401	1	41
388.572	1	33
388.743	1	38
388.914	1	29
389.084	1	32
389.255	1	20
389.426	1	22
389.597	1	27
389.768	1	27
389.939	1	28
390.109	1	12
390.280	1	26
390.451	1	29
390.622	1	12
390.793	1	25
390.963	1	26
391.134	1	21
391.305	1	23
391.476	1	10
391.647	1	17
391.817	1	14
391.988	1	22
392.159	1	25
392.330	1	14
392.501	1	26
392.671	1	6
392.842	1	8
393.013	1	16
393.184	1	12
393.355	1	16
393.525	1	22
393.696	1	17
393.867	1	11
394.038	1	23
394.208	1	22
394.379	1	12
394.550	1	6
394.721	1	19
394.892	1	14
395.062	1	2
395.233	1	17
395.404	1	14
395.575	1	22
395.746	1	16
395.916	1	10
396.087	1	23
396.258	1	15
396.429	1	31
396.599	1	11
396.770	1	-1
396.941	1	19
397.112	1	13
397.283	1	16
397.453	1	31
397.624	1	9
397.795	1	11
397.966	1	23
398.136	1	20
398.307	1	9
398.478	1	12
398.649	1	16
398.819	1	8
398.990	1	13
399.161	1	11
399.332	1	21
399.503	1	14
399.673	1	8
399.844	1	18
400.015	1	21
400.186	1	12
400.356	1	10
400.527	1	-4
400.698	1	10
400.869	1	11
401.039	1	26
401.210	1	13
401.381	1	10
401.552	1	22
401.722	1	16
401.893	1	15
402.064	1	20
402.235	1	11
402.405	1	16
402.576	1	7
402.747	1	17
402.918	1	2
403.088	1	7
403.259	1	5
403.430	1	7
403.601	1	9
403.771	1	12
403.942	1	11
404.113	1	10
404.284	1	14
404.454	1	13
404.625	1	12
404.796	1	6
404.967	1	7
405.137	1	16
405.308	1	4
405.479	1	4
405.649	1	14
405.820	1	14
405.991	1	13
406.162	1	5
406.332	1	1
406.503	1	7
406.674	1	17
406.845	1	16
407.015	1	2
407.186	1	13
407.357	1	20
407.527	1	9
407.698	1	11
407.869	1	3
408.040	1	10
408.210	1	10
408.381	1	11
408.552	1	7
408.722	1	8
408.893	1	12
409.064	1	4
409.235	1	23
409.405	1	11
409.576	1	14
409.747	1	5
409.917	1	7
410.088	1	18
410.259	1	7
410.430	1	12
410.600	1	4
410.771	1	9
410.942	1	5
411.112	1	7
411.283	1	13
411.454	1	9
411.625	1	10
411.795	1	11
411.966	1	5
412.137	1	6
412.307	1	-11
412.478	1	9
412.649	1	-7
412.819	1	15
412.990	1	3
413.161	1	13
413.332	1	14
413.502	1	9
413.673	1	15
413.844	1	1
414.014	1	9
414.185	1	6
414.356	1	0
414.526	1	6
414.697	1	11
414.868	1	8
415.038	1	12
415.209	1	10
415.380	1	6
415.550	1	5
415.721	1	5
415.892	1	8
416.063	1	8
416.233	1	15
416.404	1	8
416.575	1	14
416.745	1	-5
416.916	1	13
417.087	1	7
417.257	1	8
417.428	1	5
417.599	1	6
417.769	1	-1
417.940	1	-1
418.111	1	9
418.281	1	14
418.452	1	11
418.623	1	0
418.793	1	6
418.964	1	3
419.135	1	2
419.305	1	15
419.476	1	10
419.647	1	3
419.817	1	0
419.988	1	16
420.159	1	19
420.329	1	5
420.500	1	8
420.671	1	13
420.841	1	9
421.012	1	2
421.183	1	9
421.353	1	5
421.524	1	10
421.695	1	2
421.865	1	29
422.036	1	5
422.206	1	12
422.377	1	-3
422.548	1	2
422.718	1	7
422.889	1	20
423.060	1	5
423.230	1	13
423.401	1	11
423.572	1	6
423.742	1	-3
423.913	1	2
424.084	1	4
424.254	1	6
424.425	1	14
424.595	1	5
424.766	1	1
424.937	1	3
425.107	1	13
425.278	1	8
425.449	1	9
425.619	1	16
425.790	1	4
425.961	1	6
426.131	1	4
426.302	1	2
426.472	1	3
426.643	1	9
426.814	1	3
426.984	1	15
427.155	1	10
427.326	1	14
427.496	1	6
427.667	1	14
427.837	1	9
428.008	1	8
428.179	1	8
428.349	1	11
428.520	1	-2
428.691	1	8
428.861	1	-1
429.032	1	7
429.202	1	7
429.373	1	10
429.544	1	-3
429.714	1	6
429.885	1	7
430.055	1	8
430.226	1	13
430.397	1	19
430.567	1	4
430.738	1	9
430.909	1	3
431.079	1	8
431.250	1	7
431.420	1	6
431.591	1	16
431.762	1	4
431.932	1	8
432.103	1	0
432.273	1	13
432.444	1	13
432.615	1	2
432.785	1	6
432.956	1	13
433.126	1	17
433.297	1	0
433.468	1	3
433.638	1	7
433.809	1	5
433.979	1	-4
434.150	1	12
434.320	1	2
434.491	1	-4
434.662	1	7
434.832	1	-3
435.003	1	9
435.173	1	6
435.344	1	-4
435.515	1	7
435.685	1	10
435.856	1	-6
436.026	1	14
436.197	1	10
436.368	1	12
436.538	1	5
436.709	1	6
436.879	1	-2
437.050	1	11
437.220	1	-2
437.391	1	11
437.562	1	7
437.732	1	4
437.903	1	5
438.073	1	2
438.244	1	2
438.414	1	11
438.585	1	16
438.756	1	6
438.926	1	8
439.097	1	2
439.267	1	6
439.438	1	17
439.608	1	-5
439.779	1	13
439.949	1	12
440.120	1	16
440.291	1	-4
440.461	1	5
440.632	1	5
440.802	1	6
440.973	1	9
441.143	1	12
441.314	1	23
441.485	1	0
441.655	1	4
441.826	1	0
441.996	1	0
442.167	1	-5
442.337	1	-5
442.508	1	7
442.678	1	8
442.849	1	7
443.019	1	15
443.190	1	15
443.361	1	23
443.531	1	3
443.702	1	2
443.872	1	1
444.043	1	5
444.213	1	-1
444.384	1	3
444.554	1	14
444.725	1	1
444.895	1	17
445.066	1	9
445.237	1	6
445.407	1	-8
445.578	1	0
445.748	1	0
445.919	1	-1
446.089	1	0
446.260	1	4
446.430	1	12
446.601	1	5
446.771	1	1
446.942	1	12
447.112	1	3
447.283	1	0
447.453	1	8
447.624	1	7
447.794	1	9
447.965	1	9
448.135	1	9
448.306	1	9
448.477	1	0
448.647	1	3
448.818	1	8
448.988	1	8
449.159	1	11
449.329	1	10
449.500	1	2
449.670	1	-2
449.841	1	-1
450.011	1	12
450.182	1	-2
450.352	1	3
450.523	1	1
450.693	1	10
450.864	1	-1
451.034	1	15
451.205	1	-14
451.375	1	17
451.546	1	0
451.716	1	4
451.887	1	3
452.057	1	5
452.228	1	2
452.398	1	14
452.569	1	-4
452.739	1	-3
452.910	1	-1
453.080	1	7
453.251	1	14
453.421	1	2
453.592	1	4
453.762	1	6
453.933	1	7
454.103	1	9
454.274	1	-4
454.444	1	4
454.615	1	4
454.785	1	5
454.956	1	0
455.126	1	15
455.297	1	4
455.467	1	6
455.638	1	-2
455.808	1	2
455.979	1	10
456.149	1	3
456.320	1	10
456.490	1	1
456.661	1	18
456.831	1	16
457.001	1	15
457.172	1	5
457.342	1	9
457.513	1	5
457.683	1	7
457.854	1	-2
458.024	1	-3
458.195	1	5
458.365	1	-5
458.536	1	12
458.706	1	20
458.877	1	6
459.047	1	7
459.218	1	0
459.388	1	-2
459.559	1	0
459.729	1	10
459.899	1	-2
460.070	1	10
460.240	1	8
460.411	1	4
460.581	1	4
460.752	1	2
460.922	1	-3
461.093	1	9
461.263	1	8
461.434	1	-1
461.604	1	4
461.775	1	3
461.945	1	-3
462.115	1	4
462.286	1	-2
462.456	1	3
462.627	1	-6
462.797	1	1
462.968	1	1
463.138	1	11
463.309	1	12
463.479	1	4
463.649	1	9
463.820	1	12
463.990	1	8
464.161	1	19
464.331	1	9
464.502	1	11
464.672	1	-3
464.843	1	3
465.013	1	14
465.183	1	8
465.354	1	2
465.524	1	2
465.695	1	7
465.865	1	0
466.036	1	8
466.206	1	10
466.376	1	4
466.547	1	-2
466.717	1	0
466.888	1	4
467.058	1	11
467.229	1	10
467.399	1	9
467.569	1	11
467.740	1	8
467.910	1	4
468.081	1	5
468.251	1	13
468.422	1	15
468.592	1	4
468.762	1	2
468.933	1	6
469.103	1	1
469.274	1	12
469.444	1	7
469.614	1	7
469.785	1	7
469.955	1	13
470.126	1	8
470.296	1	9
470.467	1	7
470.637	1	-6
470.807	1	7
470.978	1	13
471.148	1	18
471.319	1	4
471.489	1	-8
471.659	1	23
471.830	1	5
472.000	1	4
472.171	1	-5
472.341	1	2
472.511	1	0
472.682	1	-3
472.852	1	5
473.023	1	-1
473.193	1	5
473.363	1	11
473.534	1	2
473.704	1	16
473.875	1	5
474.045	1	-2
474.215	1	1
474.386	1	-1
474.556	1	8
474.727	1	17
474.897	1	1
475.067	1	1
475.238	1	14
475.408	1	2
475.578	1	7
475.749	1	1
475.919	1	11
476.090	1	6
476.260	1	8
476.430	1	0
476.601	1	13
476.771	1	1
476.942	1	4
477.112	1	6
477.282	1	12
477.453	1	7
477.623	1	-14
477.793	1	2
477.964	1	7
478.134	1	4
478.305	1	-1
478.475	1	14
478.645	1	4
478.816	1	7
478.986	1	1
479.156	1	-1
479.327	1	9
479.497	1	-8
479.667	1	3
479.838	1	1
480.008	1	-8
480.179	1	13
480.349	1	9
480.519	1	-3
480.690	1	-8
480.860	1	7
481.030	1	1
481.201	1	11
481.371	1	0
481.541	1	1
481.712	1	6
481.882	1	7
482.053	1	12
482.223	1	-8
482.393	1	6
482.564	1	6
482.734	1	8
482.904	1	10
483.075	1	3
483.245	1	7
483.415	1	5
483.586	1	8
483.756	1	14
483.926	1	6
484.097	1	5
484.267	1	14
484.437	1	6
484.608	1	5
484.778	1	12
484.948	1	-7
485.119	1	-1
485.289	1	4
485.459	1	9
485.630	1	9
485.800	1	10
485.970	1	12
486.141	1	-1
486.311	1	0
486.481	1	2
486.652	1	8
486.822	1	4
486.992	1	-4
487.163	1	0
487.333	1	12
487.503	1	8
487.674	1	0
487.844	1	5
488.014	1	10
488.185	1	0
488.355	1	5
488.525	1	6
488.696	1	13
488.866	1	0
489.036	1	4
489.207	1	6
489.377	1	7
489.547	1	-1
489.718	1	-1
489.888	1	11
490.058	1	10
490.228	1	-10
490.399	1	6
490.569	1	4
490.739	1	2
490.910	1	3
491.080	1	14
491.250	1	1
491.421	1	7
491.591	1	1
491.761	1	7
491.932	1	11
492.102	1	0
492.272	1	-8
492.442	1	6
492.613	1	4
492.783	1	-1
492.953	1	8
493.124	1	5
493.294	1	6
493.464	1	-7
493.635	1	2
493.805	1	-1
493.975	1	7
494.145	1	6
494.316	1	8
494.486	1	11
494.656	1	6
494.827	1	8
494.997	1	-3
495.167	1	1
495.337	1	5
495.508	1	11
495.678	1	8
495.848	1	-4
496.019	1	0
496.189	1	4
496.359	1	-8
496.529	1	5
496.700	1	5
496.870	1	6
497.040	1	2
497.211	1	7
497.381	1	3
497.551	1	0
497.721	1	3
497.892	1	11
498.062	1	-3
498.232	1	8
498.403	1	5
498.573	1	9
498.743	1	15
498.913	1	-11
499.084	1	-1
499.254	1	3
499.424	1	-9
499.594	1	3
499.765	1	4
499.935	1	11
500.105	1	-2
500.275	1	3
500.446	1	11
500.616	1	13
500.786	1	-1
500.956	1	6
501.127	1	11
501.297	1	-1
501.467	1	-2
501.638	1	6
501.808	1	-1
501.978	1	7
502.148	1	-1
502.319	1	3
502.489	1	10
502.659	1	0
502.829	1	6
503.000	1	17
503.170	1	8
503.340	1	11
503.510	1	3
503.681	1	6
503.851	1	-4
504.021	1	4
504.191	1	6
504.362	1	-1
504.532	1	4
504.702	1	4
504.872	1	5
505.042	1	2
505.213	1	5
505.383	1	11
505.553	1	-1
505.723	1	8
505.894	1	0
506.064	1	4
506.234	1	-5
506.404	1	10
506.575	1	-4
506.745	1	9
506.915	1	-17
507.085	1	7
507.256	1	9
507.426	1	9
507.596	1	-7
507.766	1	4
507.936	1	6
508.107	1	7
508.277	1	15
508.447	1	14
508.617	1	1
508.788	1	-1
508.958	1	14
509.128	1	2
509.298	1	9
509.468	1	13
509.639	1	3
509.809	1	6
509.979	1	5
510.149	1	2
510.319	1	19
510.490	1	-5
510.660	1	5
510.830	1	-4
511.000	1	3
511.171	1	10
511.341	1	3
511.511	1	12
511.681	1	-7
511.851	1	-1
512.022	1	-1
512.192	1	6
512.362	1	6
512.532	1	3
512.702	1	9
512.873	1	11
513.043	1	4
513.213	1	13
513.383	1	1
513.553	1	8
513.724	1	15
513.894	1	16
514.064	1	3
514.234	1	5
514.404	1	8
514.575	1	1
514.745	1	-5
514.915	1	-10
515.085	1	1
515.255	1	2
515.425	1	5
515.596	1	14
515.766	1	4
515.936	1	5
516.106	1	8
516.276	1	17
516.447	1	-2
516.617	1	6
516.787	1	1
516.957	1	12
517.127	1	7
517.297	1	5
517.468	1	0
517.638	1	1
517.808	1	7
517.978	1	7
518.148	1	-3
518.319	1	7
518.489	1	7
518.659	1	-1
518.829	1	11
518.999	1	-7
519.169	1	4
519.340	1	0
519.510	1	-1
519.680	1	4
519.850	1	3
520.020	1	3
520.190	1	4
520.361	1	-2
520.531	1	14
520.701	1	10
520.871	1	-3
521.041	1	10
521.211	1	0
521.382	1	17
521.552	1	5
521.722	1	6
521.892	1	7
522.062	1	5
522.232	1	6
522.402	1	5
522.573	1	-2
522.743	1	7
522.913	1	3
523.083	1	12
523.253	1	2
523.423	1	7
523.593	1	-2
523.764	1	3
523.934	1	1
524.104	1	3
524.274	1	3
524.444	1	9
524.614	1	7
524.784	1	-6
524.955	1	-4
525.125	1	-1
525.295	1	3
525.465	1	-10
525.635	1	1
525.805	1	16
525.975	1	8
526.146	1	8
526.316	1	-4
526.486	1	-1
526.656	1	7
526.826	1	4
526.996	1	-10
527.166	1	5
527.337	1	5
527.507	1	8
527.677	1	-3
527.847	1	-4
528.017	1	1
528.187	1	-6
528.357	1	-1
528.527	1	1
528.698	1	-1
528.868	1	0
529.038	1	0
529.208	1	1
529.378	1	9
529.548	1	1
529.718	1	2
529.888	1	12
530.058	1	-2
530.229	1	6
530.399	1	-3
530.569	1	13
530.739	1	4
530.909	1	-5
531.079	1	6
531.249	1	5
531.419	1	3
531.589	1	-5
531.760	1	1
531.930	1	-1
532.100	1	12
532.270	1	9
532.440	1	11
532.610	1	5
532.780	1	12
532.950	1	8
533.120	1	9
533.290	1	1
533.461	1	1
533.631	1	3
533.801	1	0
533.971	1	9
534.141	1	14
534.311	1	6
534.481	1	6
534.651	1	-1
534.821	1	11
534.991	1	10
535.162	1	4
535.332	1	5
535.502	1	12
535.672	1	3
535.842	1	-3
536.012	1	0
536.182	1	4
536.352	1	1
536.522	1	1
536.692	1	13
536.862	1	3
537.032	1	14
537.203	1	6
537.373	1	-5
537.543	1	18
537.713	1	5
537.883	1	-2
538.053	1	8
538.223	1	7
538.393	1	11
538.563	1	12
538.733	1	2
538.903	1	4
539.073	1	16
539.243	1	2
539.413	1	8
539.584	1	2
539.754	1	3
539.924	1	5
540.094	1	9
540.264	1	-4
540.434	1	6
540.604	1	-2
540.774	1	6
540.944	1	11
541.114	1	6
541.284	1	4
541.454	1	8
541.624	1	7
541.794	1	-2
541.964	1	-8
542.134	1	3
542.305	1	10
542.475	1	2
542.645	1	1
542.815	1	8
542.985	1	8
543.155	1	4
543.325	1	-1
543.495	1	10
543.665	1	3
543.835	1	7
544.005	1	7
544.175	1	0
544.345	1	-1
544.515	1	-12
544.685	1	2
544.855	1	1
545.025	1	-1
545.195	1	12
545.365	1	6
545.535	1	-3
545.705	1	1
545.875	1	4
546.045	1	4
546.216	1	5
546.386	1	6
546.556	1	2
546.726	1	8
546.896	1	9
547.066	1	12
547.236	1	10
547.406	1	2
547.576	1	-5
547.746	1	-2
547.916	1	6
548.086	1	1
548.256	1	-1
548.426	1	6
548.596	1	8
548.766	1	5
548.936	1	-1
549.106	1	4
549.276	1	-2
549.446	1	8
549.616	1	2
549.786	1	4
549.956	1	0
550.126	1	1
550.296	1	19
550.466	1	6
550.636	1	0
550.806	1	8
550.976	1	11
551.146	1	11
551.316	1	7
551.486	1	11
551.656	1	7
551.826	1	4
551.996	1	13
552.166	1	-6
552.336	1	9
552.506	1	7
552.676	1	5
552.846	1	3
553.016	1	8
553.186	1	-3
553.356	1	1
553.526	1	7
553.696	1	6
553.866	1	3
554.036	1	16
554.206	1	3
554.376	1	19
554.546	1	-1
554.716	1	5
554.886	1	7
555.056	1	14
555.226	1	2
555.396	1	12
555.566	1	5
555.736	1	3
555.906	1	10
556.076	1	-1
556.246	1	7
556.416	1	-4
556.586	1	3
556.756	1	-1
556.926	1	10
557.096	1	-4
557.266	1	12
557.436	1	3
557.606	1	10
557.776	1	5
557.946	1	6
558.116	1	8
558.286	1	10
558.456	1	2
558.626	1	-5
558.796	1	7
558.966	1	3
559.136	1	2
559.306	1	6
559.476	1	-2
559.646	1	2
559.816	1	-5
559.986	1	7
560.155	1	8
560.325	1	-1
560.495	1	10
560.665	1	2
560.835	1	13
561.005	1	15
561.175	1	0
561.345	1	7
561.515	1	5
561.685	1	6
561.855	1	8
562.025	1	-2
562.195	1	13
562.365	1	5
562.535	1	4
562.705	1	2
562.875	1	3
563.045	1	5
563.215	1	9
563.385	1	10
563.555	1	8
563.725	1	9
563.895	1	3
564.064	1	5
564.234	1	-2
564.404	1	8
564.574	1	11
564.744	1	-3
564.914	1	-2
565.084	1	13
565.254	1	12
565.424	1	-5
565.594	1	-1
565.764	1	3
565.934	1	3
566.104	1	-5
566.274	1	7
566.444	1	16
566.614	1	5
566.783	1	8
566.953	1	0
567.123	1	1
567.293	1	1
567.463	1	6
567.633	1	14
567.803	1	1
567.973	1	6
568.143	1	10
568.313	1	19
568.483	1	13
568.653	1	15
568.823	1	-4
568.993	1	6
569.162	1	3
569.332	1	5
569.502	1	6
569.672	1	19
569.842	1	0
570.012	1	14
570.182	1	3
570.352	1	7
570.522	1	2
570.692	1	-1
570.862	1	8
571.031	1	7
571.201	1	-5
571.371	1	-10
571.541	1	15
571.711	1	4
571.881	1	10
572.051	1	-2
572.221	1	1
572.391	1	-2
572.561	1	5
572.731	1	11
572.900	1	10
573.070	1	3
573.240	1	12
573.410	1	3
573.580	1	10
573.750	1	11
573.920	1	6
574.090	1	11
574.260	1	-1
574.430	1	6
574.599	1	16
574.769	1	0
574.939	1	-7
575.109	1	15
575.279	1	6
575.449	1	3
575.619	1	6
575.789	1	0
575.959	1	9
576.128	1	4
576.298	1	1
576.468	1	-2
576.638	1	7
576.808	1	0
576.978	1	11
577.148	1	10
577.318	1	8
577.487	1	-2
577.657	1	6
577.827	1	2
577.997	1	4
578.167	1	1
578.337	1	16
578.507	1	8
578.677	1	0
578.846	1	6
579.016	1	10
579.186	1	1
579.356	1	5
579.526	1	13
579.696	1	7
579.866	1	6
580.036	1	9
580.205	1	9
580.375	1	6
580.545	1	8
580.715	1	6
580.885	1	7
581.055	1	11
581.225	1	5
581.394	1	6
581.564	1	0
581.734	1	13
581.904	1	8
582.074	1	-7
582.244	1	7
582.414	1	16
582.583	1	2
582.753	1	2
582.923	1	5
583.093	1	8
583.263	1	3
583.433	1	6
583.603	1	10
583.772	1	7
583.942	1	-1
584.112	1	-1
584.282	1	9
584.452	1	-2
584.622	1	4
584.791	1	8
584.961	1	15
585.131	1	7
585.301	1	7
585.471	1	-2
585.641	1	10
585.811	1	2
585.980	1	2
586.150	1	12
586.320	1	13
586.490	1	-2
586.660	1	-6
586.830	1	15
586.999	1	8
587.169	1	2
587.339	1	-2
587.509	1	15
587.679	1	7
587.849	1	10
588.018	1	16
588.188	1	12
588.358	1	12
588.528	1	-3
588.698	1	12
588.867	1	6
589.037	1	7
589.207	1	8
589.377	1	2
589.547	1	-1
589.717	1	5
589.886	1	12
590.056	1	9
590.226	1	13
590.396	1	11
590.566	1	9
590.735	1	3
590.905	1	1
591.075	1	-4
591.245	1	3
591.415	1	3
591.585	1	2
591.754	1	7
591.924	1	1
592.094	1	5
592.264	1	1
592.434	1	15
592.603	1	-10
592.773	1	8
592.943	1	3
593.113	1	8
593.283	1	5
593.452	1	15
593.622	1	3
593.792	1	0
593.962	1	1
594.132	1	18
594.301	1	-7
594.471	1	8
594.641	1	-9
594.811	1	14
594.981	1	2
595.150	1	10
595.320	1	4
595.490	1	1
595.660	1	-13
595.829	1	9
595.999	1	0
596.169	1	-13
596.339	1	-4
596.509	1	13
596.678	1	8
596.848	1	8
597.018	1	0
597.188	1	4
597.358	1	11
597.527	1	6
597.697	1	9
597.867	1	10
598.037	1	4
598.206	1	-5
598.376	1	11
598.546	1	-1
598.716	1	12
598.885	1	8
599.055	1	5
599.225	1	-1
599.395	1	6
599.565	1	4
599.734	1	8
599.904	1	2
600.074	1	4
600.244	1	7
600.413	1	3
600.583	1	5
600.753	1	13
600.923	1	10
601.092	1	5
601.262	1	11
601.432	1	-8
601.602	1	8
601.771	1	-1
601.941	1	15
602.111	1	4
602.281	1	13
602.451	1	9
602.620	1	0
602.790	1	-7
602.960	1	14
603.130	1	11
603.299	1	18
603.469	1	0
603.639	1	-6
603.809	1	5
603.978	1	5
604.148	1	3
604.318	1	11
604.487	1	7
604.657	1	9
604.827	1	9
604.997	1	2
605.166	1	6
605.336	1	2
605.506	1	9
605.676	1	2
605.845	1	7
606.015	1	7
606.185	1	5
606.355	1	4
606.524	1	9
606.694	1	7
606.864	1	-1
607.034	1	7
607.203	1	14
607.373	1	-1
607.543	1	2
607.712	1	14
607.882	1	12
608.052	1	11
608.222	1	12
608.391	1	10
608.561	1	9
608.731	1	-4
608.901	1	-2
609.070	1	3
609.240	1	-4
609.410	1	9
609.579	1	-1
609.749	1	-1
609.919	1	9
610.089	1	3
610.258	1	6
610.428	1	3
610.598	1	6
610.767	1	1
610.937	1	3
611.107	1	-1
611.277	1	6
611.446	1	11
611.616	1	7
611.786	1	9
611.955	1	-4
612.125	1	4
612.295	1	6
612.465	1	7
612.634	1	0
612.804	1	12
612.974	1	13
613.143	1	6
613.313	1	7
613.483	1	-8
613.652	1	5
613.822	1	10
613.992	1	-6
614.162	1	-4
614.331	1	4
614.501	1	-6
614.671	1	4
614.840	1	13
615.010	1	7
615.180	1	6
615.349	1	9
615.519	1	1
615.689	1	7
615.858	1	-6
616.028	1	1
616.198	1	5
616.368	1	9
616.537	1	3
616.707	1	1
616.877	1	-2
617.046	1	-6
617.216	1	7
617.386	1	-3
617.555	1	12
617.725	1	-6
617.895	1	14
618.064	1	6
618.234	1	10
618.404	1	14
618.573	1	16
618.743	1	-1
618.913	1	-3
619.082	1	13
619.252	1	11
619.422	1	18
619.591	1	11
619.761	1	3
619.931	1	-9
620.100	1	12
620.270	1	10
620.440	1	7
620.609	1	3
620.779	1	2
620.949	1	8
621.118	1	-2
621.288	1	3
621.458	1	7
621.627	1	11
621.797	1	13
621.967	1	6
622.136	1	11
622.306	1	4
622.476	1	10
622.645	1	15
622.815	1	1
622.985	1	-4
623.154	1	1
623.324	1	9
623.494	1	4
623.663	1	10
623.833	1	7
624.002	1	8
624.172	1	3
624.342	1	-7
624.511	1	10
624.681	1	-13
624.851	1	12
625.020	1	4
625.190	1	8
625.360	1	10
625.529	1	1
625.699	1	9
625.869	1	7
626.038	1	-3
626.208	1	1
626.377	1	12
626.547	1	-7
626.717	1	-3
626.886	1	4
627.056	1	4
627.226	1	8
627.395	1	4
627.565	1	16
627.735	1	11
627.904	1	2
628.074	1	-2
628.243	1	-3
628.413	1	6
628.583	1	19
628.752	1	3
628.922	1	9
629.091	1	7
629.261	1	-4
629.431	1	3
629.600	1	1
629.770	1	5
629.940	1	7
630.109	1	6
630.279	1	6
630.448	1	5
630.618	1	-2
630.788	1	6
630.957	1	16
631.127	1	12
631.297	1	-4
631.466	1	-1
631.636	1	12
631.805	1	5
631.975	1	6
632.145	1	-3
632.314	1	-4
632.484	1	7
632.653	1	7
632.823	1	17
632.993	1	11
633.162	1	0
633.332	1	12
633.501	1	-8
633.671	1	8
633.841	1	12
634.010	1	7
634.180	1	7
634.349	1	8
634.519	1	5
634.689	1	6
634.858	1	11
635.028	1	1
635.197	1	-2
635.367	1	8
635.537	1	17
635.706	1	9
635.876	1	11
636.045	1	1
636.215	1	9
636.384	1	10
636.554	1	7
636.724	1	13
636.893	1	3
637.063	1	-6
637.232	1	10
637.402	1	-2
637.572	1	3
637.741	1	16
637.911	1	2
638.080	1	9
638.250	1	2
638.419	1	8
638.589	1	-10
638.759	1	6
638.928	1	10
639.098	1	16
639.267	1	11
639.437	1	-2
639.606	1	2
639.776	1	9
639.946	1	-1
640.115	1	0
640.285	1	5
640.454	1	11
640.624	1	-1
640.793	1	2
640.963	1	5
641.132	1	-9
641.302	1	13
641.472	1	11
641.641	1	8
641.811	1	0
641.980	1	-1
642.150	1	1
642.319	1	3
642.489	1	-6
642.659	1	9
642.828	1	-5
642.998	1	6
643.167	1	5
643.337	1	12
643.506	1	11
643.676	1	11
643.845	1	-1
644.015	1	-5
644.184	1	-4
644.354	1	-4
644.524	1	3
644.693	1	5
644.863	1	-2
645.032	1	3
645.202	1	-4
645.371	1	12
645.541	1	-14
645.710	1	-3
645.880	1	4
646.049	1	-13
646.219	1	7
646.388	1	-2
646.558	1	13
646.728	1	-1
646.897	1	10
647.067	1	5
647.236	1	0
647.406	1	2
647.575	1	-1
647.745	1	-10
647.914	1	3
648.084	1	10
648.253	1	-4
648.423	1	0
648.592	1	7
648.762	1	13
648.931	1	10
649.101	1	-7
649.270	1	-4
649.440	1	11
649.610	1	0
649.779	1	5
649.949	1	-8
650.118	1	10
650.288	1	-3
650.457	1	-5
650.627	1	5
650.796	1	-1
650.966	1	11
651.135	1	9
651.305	1	5
651.474	1	18
651.644	1	7
651.813	1	1
651.983	1	-5
652.152	1	3
652.322	1	9
652.491	1	8
652.661	1	10
652.830	1	-3
653.000	1	2
653.169	1	7
653.339	1	5
653.508	1	5
653.678	1	-2
653.847	1	-2
654.017	1	6
654.186	1	4
654.356	1	14
654.525	1	2
654.695	1	6
654.864	1	-1
655.034	1	8
655.203	1	8
655.373	1	9
655.542	1	2
655.712	1	-5
655.881	1	20
656.051	1	5
656.220	1	-3
656.390	1	14
656.559	1	3
656.729	1	4
656.898	1	5
657.068	1	11
657.237	1	-4
657.406	1	5
657.576	1	3
657.745	1	18
657.915	1	6
658.084	1	-6
658.254	1	-1
658.423	1	5
658.593	1	-11
658.762	1	2
658.932	1	12
659.101	1	2
659.271	1	3
659.440	1	16
659.610	1	2
659.779	1	-1
659.949	1	-3
660.118	1	3
660.288	1	3
660.457	1	14
660.626	1	-6
660.796	1	10
660.965	1	7
661.135	1	8
661.304	1	11
661.474	1	5
661.643	1	-7
661.813	1	-12
661.982	1	4
662.152	1	-3
662.321	1	-4
662.491	1	0
662.660	1	11
662.829	1	11
662.999	1	1
663.168	1	6
663.338	1	6
663.507	1	6
663.677	1	12
663.846	1	-9
664.016	1	23
664.185	1	3
664.354	1	-7
664.524	1	12
664.693	1	10
664.863	1	5
665.032	1	-9
665.202	1	4
665.371	1	-7
665.541	1	0
665.710	1	-7
665.879	1	9
666.049	1	2
666.218	1	-3
666.388	1	13
666.557	1	4
666.727	1	9
666.896	1	-9
667.065	1	13
667.235	1	9
667.404	1	9
667.574	1	6
667.743	1	-3
667.913	1	10
668.082	1	15
668.251	1	6
668.421	1	14
668.590	1	-2
668.760	1	5
668.929	1	0
669.099	1	10
669.268	1	6
669.437	1	4
669.607	1	-4
669.776	1	17
669.946	1	0
670.115	1	15
670.285	1	6
670.454	1	9
670.623	1	1
670.793	1	8
670.962	1	0
671.132	1	15
671.301	1	-3
671.470	1	11
671.640	1	1
671.809	1	-2
671.979	1	7
672.148	1	3
672.317	1	3
672.487	1	8
672.656	1	13
672.826	1	0
672.995	1	7
673.164	1	1
673.334	1	4
673.503	1	6
673.673	1	-2
673.842	1	0
674.011	1	4
674.181	1	7
674.350	1	4
674.520	1	-2
674.689	1	15
674.858	1	4
675.028	1	8
675.197	1	9
675.367	1	5
675.536	1	-1
675.705	1	-2
675.875	1	-3
676.044	1	18
676.214	1	13
676.383	1	27
676.552	1	17
676.722	1	7
676.891	1	7
677.060	1	15
677.230	1	5
677.399	1	5
677.569	1	-6
677.738	1	-2
677.907	1	11
678.077	1	13
678.246	1	-4
678.416	1	10
678.585	1	3
678.754	1	8
678.924	1	13
679.093	1	7
679.262	1	10
679.432	1	3
679.601	1	9
679.771	1	13
679.940	1	0
680.109	1	5
680.279	1	6
680.448	1	-5
680.617	1	-3
680.787	1	15
680.956	1	3
681.125	1	7
681.295	1	15
681.464	1	8
681.634	1	13
681.803	1	19
681.972	1	-1
682.142	1	10
682.311	1	5
682.480	1	7
682.650	1	0
682.819	1	-1
682.988	1	9
683.158	1	4
683.327	1	11
683.496	1	0
683.666	1	9
683.835	1	1
684.004	1	7
684.174	1	7
684.343	1	9
684.512	1	6
684.682	1	-2
684.851	1	9
685.021	1	6
685.190	1	3
685.359	1	-3
685.529	1	0
685.698	1	1
685.867	1	19
686.037	1	0
686.206	1	8
686.375	1	3
686.545	1	1
686.714	1	4
686.883	1	-2
687.053	1	1
687.222	1	11
687.391	1	0
687.561	1	2
687.730	1	5
687.899	1	0
688.069	1	-1
688.238	1	7
688.407	1	8
688.577	1	10
688.746	1	0
