340.368	1	1
340.539	1	12
340.710	1	6
340.881	1	13
341.052	1	4
341.223	1	-6
341.394	1	7
341.565	1	-6
341.737	1	-14
341.908	1	-5
342.079	1	9
342.250	1	12
342.421	1	-6
342.592	1	6
342.763	1	3
342.934	1	-5
343.105	1	2
343.276	1	-5
343.447	1	6
343.618	1	-5
343.789	1	1
343.960	1	-4
344.131	1	-9
344.302	1	5
344.473	1	6
344.644	1	3
344.815	1	0
344.986	1	-5
345.157	1	3
345.328	1	4
345.499	1	5
345.670	1	9
345.841	1	9
346.012	1	6
346.183	1	6
346.354	1	2
346.526	1	2
346.697	1	2
346.868	1	-5
347.039	1	7
347.210	1	-7
347.381	1	3
347.552	1	-5
347.723	1	11
347.894	1	3
348.065	1	-5
348.236	1	-4
348.407	1	-2
348.578	1	-3
348.749	1	2
348.920	1	11
349.091	1	5
349.262	1	-1
349.433	1	9
349.604	1	6
349.775	1	4
349.946	1	-2
350.117	1	5
350.288	1	-5
350.459	1	4
350.630	1	8
350.801	1	11
350.972	1	10
351.143	1	13
351.314	1	4
351.485	1	11
351.656	1	2
351.827	1	6
351.998	1	6
352.169	1	8
352.340	1	11
352.511	1	11
352.682	1	9
352.853	1	6
353.024	1	6
353.195	1	0
353.366	1	11
353.537	1	4
353.708	1	18
353.879	1	1
354.050	1	4
354.221	1	13
354.392	1	5
354.563	1	12
354.734	1	7
354.905	1	6
355.076	1	1
355.247	1	11
355.418	1	8
355.589	1	11
355.760	1	5
355.931	1	3
356.102	1	14
356.273	1	14
356.444	1	8
356.615	1	3
356.785	1	18
356.956	1	12
357.127	1	6
357.298	1	4
357.469	1	15
357.640	1	12
357.811	1	13
357.982	1	16
358.153	1	8
358.324	1	16
358.495	1	4
358.666	1	13
358.837	1	20
359.008	1	11
359.179	1	6
359.350	1	9
359.521	1	19
359.692	1	26
359.863	1	17
360.034	1	15
360.205	1	21
360.376	1	17
360.547	1	7
360.718	1	8
360.889	1	32
361.060	1	26
361.231	1	9
361.401	1	9
361.572	1	21
361.743	1	15
361.914	1	30
362.085	1	21
362.256	1	18
362.427	1	28
362.598	1	30
362.769	1	28
362.940	1	35
363.111	1	23
363.282	1	35
363.453	1	31
363.624	1	17
363.795	1	30
363.966	1	31
364.137	1	26
364.308	1	32
364.478	1	34
364.649	1	32
364.820	1	36
364.991	1	29
365.162	1	41
365.333	1	29
365.504	1	33
365.675	1	36
365.846	1	40
366.017	1	42
366.188	1	48
366.359	1	43
366.530	1	39
366.701	1	41
366.871	1	43
367.042	1	50
367.213	1	53
367.384	1	45
367.555	1	48
367.726	1	40
367.897	1	66
368.068	1	43
368.239	1	48
368.410	1	47
368.581	1	51
368.752	1	54
368.923	1	54
369.093	1	66
369.264	1	56
369.435	1	53
369.606	1	46
369.777	1	60
369.948	1	65
370.119	1	49
370.290	1	70
370.461	1	71
370.632	1	69
370.803	1	53
370.973	1	61
371.144	1	76
371.315	1	71
371.486	1	69
371.657	1	65
371.828	1	63
371.999	1	59
372.170	1	65
372.341	1	73
372.512	1	70
372.682	1	86
372.853	1	69
373.024	1	82
373.195	1	69
373.366	1	72
373.537	1	66
373.708	1	80
373.879	1	77
374.050	1	73
374.220	1	90
374.391	1	69
374.562	1	72
374.733	1	71
374.904	1	80
375.075	1	74
375.246	1	78
375.417	1	61
375.588	1	55
375.758	1	65
375.929	1	81
376.100	1	72
376.271	1	79
376.442	1	69
376.613	1	75
376.784	1	61
376.955	1	65
377.125	1	67
377.296	1	59
377.467	1	52
377.638	1	76
377.809	1	63
377.980	1	72
378.151	1	68
378.321	1	65
378.492	1	65
378.663	1	63
378.834	1	47
379.005	1	65
379.176	1	63
379.347	1	60
379.518	1	65
379.688	1	52
379.859	1	52
380.030	1	73
380.201	1	65
380.372	1	52
380.543	1	47
380.714	1	61
380.884	1	41
381.055	1	48
381.226	1	50
381.397	1	49
381.568	1	45
381.739	1	54
381.910	1	53
382.080	1	50
382.251	1	49
382.422	1	44
382.593	1	42
382.764	1	45
382.935	1	40
383.105	1	48
383.276	1	51
383.447	1	38
383.618	1	44
383.789	1	44
383.960	1	38
384.130	1	26
384.301	1	42
384.472	1	35
384.643	1	32
384.814	1	36
384.985	1	38
385.156	1	40
385.326	1	42
385.497	1	36
385.668	1	32
385.839	1	40
386.010	1	34
386.180	1	35
386.351	1	28
386.522	1	31
386.693	1	39
386.864	1	30
387.035	1	34
387.205	1	34
387.376	1	23
387.547	1	37
387.718	1	27
387.889	1	26
388.060	1	33
388.230	1	39
388.401	1	44
388.572	1	33
388.743	1	27
388.914	1	32
389.084	1	37
389.255	1	16
389.426	1	38
389.597	1	34
389.768	1	29
389.939	1	23
390.109	1	14
390.280	1	15
390.451	1	26
390.622	1	17
390.793	1	20
390.963	1	42
391.134	1	24
391.305	1	27
391.476	1	19
391.647	1	26
391.817	1	26
391.988	1	21
392.159	1	25
392.330	1	21
392.501	1	15
392.671	1	11
392.842	1	15
393.013	1	18
393.184	1	24
393.355	1	19
393.525	1	14
393.696	1	19
393.867	1	7
394.038	1	21
394.208	1	12
394.379	1	25
394.550	1	9
394.721	1	21
394.892	1	21
395.062	1	16
395.233	1	23
395.404	1	10
395.575	1	21
395.746	1	23
395.916	1	18
396.087	1	16
396.258	1	23
396.429	1	22
396.599	1	0
396.770	1	13
396.941	1	17
397.112	1	20
397.283	1	18
397.453	1	16
397.624	1	14
397.795	1	23
397.966	1	1
398.136	1	15
398.307	1	12
398.478	1	18
398.649	1	13
398.819	1	5
398.990	1	14
399.161	1	18
399.332	1	17
399.503	1	11
399.673	1	22
399.844	1	14
400.015	1	15
400.186	1	7
400.356	1	19
400.527	1	1
400.698	1	21
400.869	1	4
401.039	1	16
401.210	1	12
401.381	1	7
401.552	1	15
401.722	1	7
401.893	1	15
402.064	1	9
402.235	1	8
402.405	1	10
402.576	1	5
402.747	1	16
402.918	1	4
403.088	1	6
403.259	1	13
403.430	1	0
403.601	1	13
403.771	1	13
403.942	1	9
404.113	1	-3
404.284	1	16
404.454	1	6
404.625	1	9
404.796	1	11
404.967	1	11
405.137	1	13
405.308	1	1
405.479	1	-1
405.649	1	7
405.820	1	13
405.991	1	14
406.162	1	8
406.332	1	12
406.503	1	11
406.674	1	17
406.845	1	11
407.015	1	5
407.186	1	10
407.357	1	12
407.527	1	4
407.698	1	11
407.869	1	2
408.040	1	12
408.210	1	18
408.381	1	12
408.552	1	9
408.722	1	10
408.893	1	9
409.064	1	5
409.235	1	12
409.405	1	-1
409.576	1	13
409.747	1	15
409.917	1	7
410.088	1	12
410.259	1	0
410.430	1	22
410.600	1	3
410.771	1	5
410.942	1	9
411.112	1	-2
411.283	1	4
411.454	1	17
411.625	1	17
411.795	1	12
411.966	1	0
412.137	1	9
412.307	1	-4
412.478	1	3
412.649	1	0
412.819	1	24
412.990	1	4
413.161	1	18
413.332	1	17
413.502	1	13
413.673	1	19
413.844	1	10
414.014	1	8
414.185	1	7
414.356	1	5
414.526	1	8
414.697	1	7
414.868	1	-1
415.038	1	13
415.209	1	5
415.380	1	15
415.550	1	-3
415.721	1	8
415.892	1	-2
416.063	1	11
416.233	1	8
416.404	1	2
416.575	1	14
416.745	1	12
416.916	1	15
417.087	1	6
417.257	1	7
417.428	1	9
417.599	1	15
417.769	1	11
417.940	1	7
418.111	1	10
418.281	1	15
418.452	1	10
418.623	1	16
418.793	1	7
418.964	1	9
419.135	1	3
419.305	1	-1
419.476	1	-8
419.647	1	4
419.817	1	3
419.988	1	1
420.159	1	30
420.329	1	11
420.500	1	13
420.671	1	14
420.841	1	9
421.012	1	5
421.183	1	7
421.353	1	8
421.524	1	20
421.695	1	3
421.865	1	21
422.036	1	4
422.206	1	4
422.377	1	0
422.548	1	7
422.718	1	10
422.889	1	10
423.060	1	1
423.230	1	13
423.401	1	9
423.572	1	11
423.742	1	2
423.913	1	9
424.084	1	-4
424.254	1	11
424.425	1	11
424.595	1	-1
424.766	1	7
424.937	1	0
425.107	1	15
425.278	1	10
425.449	1	7
425.619	1	19
425.790	1	8
425.961	1	11
426.131	1	-2
426.302	1	4
426.472	1	1
426.643	1	12
426.814	1	12
426.984	1	17
427.155	1	12
427.326	1	6
427.496	1	5
427.667	1	15
427.837	1	4
428.008	1	11
428.179	1	16
428.349	1	5
428.520	1	5
428.691	1	17
428.861	1	5
429.032	1	3
429.202	1	10
429.373	1	3
429.544	1	12
429.714	1	15
429.885	1	13
430.055	1	7
430.226	1	16
430.397	1	12
430.567	1	13
430.738	1	3
430.909	1	4
431.079	1	7
431.250	1	5
431.420	1	13
431.591	1	15
431.762	1	0
431.932	1	3
432.103	1	5
432.273	1	17
432.444	1	15
432.615	1	1
432.785	1	21
432.956	1	5
433.126	1	4
433.297	1	-4
433.468	1	10
433.638	1	10
433.809	1	5
433.979	1	5
434.150	1	16
434.320	1	6
434.491	1	11
434.662	1	10
434.832	1	-9
435.003	1	8
435.173	1	0
435.344	1	9
435.515	1	3
435.685	1	-1
435.856	1	-1
436.026	1	18
436.197	1	7
436.368	1	11
436.538	1	0
436.709	1	10
436.879	1	0
437.050	1	8
437.220	1	-1
437.391	1	10
437.562	1	19
437.732	1	13
437.903	1	11
438.073	1	-7
438.244	1	3
438.414	1	7
438.585	1	11
438.756	1	13
438.926	1	5
439.097	1	7
439.267	1	6
439.438	1	13
439.608	1	9
439.779	1	2
439.949	1	10
440.120	1	12
440.291	1	2
440.461	1	3
440.632	1	0
440.802	1	18
440.973	1	12
441.143	1	6
441.314	1	15
441.485	1	12
441.655	1	6
441.826	1	10
441.996	1	12
442.167	1	5
442.337	1	-11
442.508	1	2
442.678	1	13
442.849	1	12
443.019	1	8
443.190	1	1
443.361	1	-1
443.531	1	-4
443.702	1	4
443.872	1	-4
444.043	1	3
444.213	1	5
444.384	1	15
444.554	1	17
444.725	1	13
444.895	1	8
445.066	1	7
445.237	1	2
445.407	1	4
445.578	1	6
445.748	1	1
445.919	1	5
446.089	1	3
446.260	1	6
446.430	1	19
446.601	1	5
446.771	1	6
446.942	1	5
447.112	1	13
447.283	1	9
447.453	1	1
447.624	1	11
447.794	1	14
447.965	1	7
448.135	1	0
448.306	1	11
448.477	1	7
448.647	1	1
448.818	1	2
448.988	1	4
449.159	1	5
449.329	1	9
449.500	1	10
449.670	1	6
449.841	1	13
450.011	1	2
450.182	1	5
450.352	1	5
450.523	1	6
450.693	1	12
450.864	1	-2
451.034	1	14
451.205	1	-7
451.375	1	2
451.546	1	6
451.716	1	7
451.887	1	-1
452.057	1	-1
452.228	1	2
452.398	1	14
452.569	1	-4
452.739	1	-6
452.910	1	3
453.080	1	9
453.251	1	-4
453.421	1	7
453.592	1	5
453.762	1	14
453.933	1	4
454.103	1	0
454.274	1	-4
454.444	1	5
454.615	1	5
454.785	1	5
454.956	1	6
455.126	1	6
455.297	1	2
455.467	1	13
455.638	1	-4
455.808	1	8
455.979	1	8
456.149	1	-2
456.320	1	7
456.490	1	5
456.661	1	15
456.831	1	4
457.001	1	17
457.172	1	9
457.342	1	6
457.513	1	9
457.683	1	-3
457.854	1	-1
458.024	1	0
458.195	1	8
458.365	1	1
458.536	1	14
458.706	1	8
458.877	1	-1
459.047	1	5
459.218	1	2
459.388	1	11
459.559	1	-1
459.729	1	5
459.899	1	-3
460.070	1	12
460.240	1	9
460.411	1	10
460.581	1	-4
460.752	1	12
460.922	1	4
461.093	1	-3
461.263	1	15
461.434	1	-3
461.604	1	7
461.775	1	9
461.945	1	0
462.115	1	9
462.286	1	-1
462.456	1	9
462.627	1	-9
462.797	1	-3
462.968	1	0
463.138	1	10
463.309	1	12
463.479	1	1
463.649	1	15
463.820	1	13
463.990	1	6
464.161	1	13
464.331	1	-3
464.502	1	2
464.672	1	6
464.843	1	1
465.013	1	9
465.183	1	9
465.354	1	11
465.524	1	10
465.695	1	3
465.865	1	-1
466.036	1	2
466.206	1	7
466.376	1	6
466.547	1	-1
466.717	1	8
466.888	1	8
467.058	1	5
467.229	1	4
467.399	1	9
467.569	1	2
467.740	1	4
467.910	1	5
468.081	1	7
468.251	1	6
468.422	1	7
468.592	1	7
468.762	1	-1
468.933	1	1
469.103	1	0
469.274	1	0
469.444	1	7
469.614	1	6
469.785	1	11
469.955	1	11
470.126	1	0
470.296	1	3
470.467	1	16
470.637	1	-8
470.807	1	5
470.978	1	6
471.148	1	3
471.319	1	3
471.489	1	1
471.659	1	14
471.830	1	8
472.000	1	-5
472.171	1	-1
472.341	1	9
472.511	1	12
472.682	1	-6
472.852	1	8
473.023	1	12
473.193	1	9
473.363	1	13
473.534	1	9
473.704	1	5
473.875	1	6
474.045	1	15
474.215	1	-4
474.386	1	7
474.556	1	11
474.727	1	2
474.897	1	4
475.067	1	9
475.238	1	4
475.408	1	12
475.578	1	1
475.749	1	1
475.919	1	16
476.090	1	-5
476.260	1	16
476.430	1	6
476.601	1	15
476.771	1	6
476.942	1	5
477.112	1	3
477.282	1	6
477.453	1	0
477.623	1	-9
477.793	1	2
477.964	1	2
478.134	1	8
478.305	1	-1
478.475	1	14
478.645	1	7
478.816	1	-2
478.986	1	3
479.156	1	-5
479.327	1	4
479.497	1	0
479.667	1	-3
479.838	1	3
480.008	1	-2
480.179	1	16
480.349	1	13
480.519	1	16
480.690	1	1
480.860	1	12
481.030	1	4
481.201	1	4
481.371	1	3
481.541	1	11
481.712	1	5
481.882	1	9
482.053	1	10
482.223	1	-6
482.393	1	2
482.564	1	10
482.734	1	14
482.904	1	7
483.075	1	8
483.245	1	0
483.415	1	-9
483.586	1	19
483.756	1	11
483.926	1	0
484.097	1	-2
484.267	1	15
484.437	1	5
484.608	1	2
484.778	1	5
484.948	1	1
485.119	1	-9
485.289	1	0
485.459	1	10
485.630	1	7
485.800	1	1
485.970	1	8
486.141	1	1
486.311	1	-4
486.481	1	9
486.652	1	4
486.822	1	-2
486.992	1	-5
487.163	1	4
487.333	1	7
487.503	1	4
487.674	1	11
487.844	1	11
488.014	1	11
488.185	1	-5
488.355	1	11
488.525	1	15
488.696	1	3
488.866	1	-1
489.036	1	5
489.207	1	15
489.377	1	5
489.547	1	8
489.718	1	4
489.888	1	6
490.058	1	12
490.228	1	-9
490.399	1	-2
490.569	1	2
490.739	1	3
490.910	1	13
491.080	1	6
491.250	1	7
491.421	1	-2
491.591	1	-2
491.761	1	4
491.932	1	8
492.102	1	-1
492.272	1	-3
492.442	1	11
492.613	1	13
492.783	1	4
492.953	1	5
493.124	1	5
493.294	1	16
493.464	1	4
493.635	1	5
493.805	1	8
493.975	1	7
494.145	1	5
494.316	1	-1
494.486	1	13
494.656	1	5
494.827	1	4
494.997	1	2
495.167	1	-3
495.337	1	16
495.508	1	13
495.678	1	2
495.848	1	-6
496.019	1	2
496.189	1	8
496.359	1	-3
496.529	1	14
496.700	1	9
496.870	1	12
497.040	1	0
497.211	1	13
497.381	1	2
497.551	1	7
497.721	1	1
497.892	1	8
498.062	1	5
498.232	1	19
498.403	1	10
498.573	1	9
498.743	1	15
498.913	1	-3
499.084	1	4
499.254	1	-3
499.424	1	-5
499.594	1	12
499.765	1	-7
499.935	1	7
500.105	1	10
500.275	1	-1
500.446	1	5
500.616	1	10
500.786	1	11
500.956	1	8
501.127	1	0
501.297	1	7
501.467	1	7
501.638	1	11
501.808	1	7
501.978	1	5
502.148	1	6
502.319	1	4
502.489	1	12
502.659	1	1
502.829	1	2
503.000	1	20
503.170	1	1
503.340	1	6
503.510	1	5
503.681	1	1
503.851	1	4
504.021	1	11
504.191	1	-2
504.362	1	-1
504.532	1	3
504.702	1	7
504.872	1	8
505.042	1	6
505.213	1	15
505.383	1	9
505.553	1	3
505.723	1	8
505.894	1	2
506.064	1	10
506.234	1	-1
506.404	1	12
506.575	1	-7
506.745	1	10
506.915	1	-8
507.085	1	12
507.256	1	4
507.426	1	-1
507.596	1	-8
507.766	1	3
507.936	1	5
508.107	1	2
508.277	1	6
508.447	1	20
508.617	1	-13
508.788	1	-3
508.958	1	11
509.128	1	0
509.298	1	4
509.468	1	11
509.639	1	2
509.809	1	-2
509.979	1	5
510.149	1	6
510.319	1	3
510.490	1	-6
510.660	1	7
510.830	1	4
511.000	1	-2
511.171	1	7
511.341	1	17
511.511	1	9
511.681	1	-6
511.851	1	0
512.022	1	4
512.192	1	7
512.362	1	8
512.532	1	5
512.702	1	4
512.873	1	2
513.043	1	8
513.213	1	5
513.383	1	11
513.553	1	1
513.724	1	4
513.894	1	16
514.064	1	0
514.234	1	16
514.404	1	5
514.575	1	-3
514.745	1	-1
514.915	1	-2
515.085	1	8
515.255	1	-11
515.425	1	4
515.596	1	4
515.766	1	10
515.936	1	6
516.106	1	0
516.276	1	20
516.447	1	-5
516.617	1	9
516.787	1	3
516.957	1	9
517.127	1	6
517.297	1	0
517.468	1	3
517.638	1	3
517.808	1	-2
517.978	1	9
518.148	1	1
518.319	1	1
518.489	1	6
518.659	1	7
518.829	1	6
518.999	1	-7
519.169	1	2
519.340	1	-1
519.510	1	0
519.680	1	1
519.850	1	11
520.020	1	5
520.190	1	-10
520.361	1	3
520.531	1	27
520.701	1	7
520.871	1	0
521.041	1	-3
521.211	1	-1
521.382	1	4
521.552	1	3
521.722	1	5
521.892	1	2
522.062	1	5
522.232	1	8
522.402	1	2
522.573	1	3
522.743	1	5
522.913	1	-6
523.083	1	11
523.253	1	5
523.423	1	7
523.593	1	-3
523.764	1	0
523.934	1	9
524.104	1	3
524.274	1	-3
524.444	1	12
524.614	1	6
524.784	1	-4
524.955	1	1
525.125	1	5
525.295	1	2
525.465	1	3
525.635	1	3
525.805	1	18
525.975	1	-4
526.146	1	10
526.316	1	1
526.486	1	1
526.656	1	2
526.826	1	6
526.996	1	1
527.166	1	14
527.337	1	9
527.507	1	10
527.677	1	-7
527.847	1	-3
528.017	1	2
528.187	1	-2
528.357	1	2
528.527	1	3
528.698	1	-4
528.868	1	10
529.038	1	7
529.208	1	1
529.378	1	0
529.548	1	3
529.718	1	0
529.888	1	5
530.058	1	10
530.229	1	4
530.399	1	9
530.569	1	6
530.739	1	15
530.909	1	2
531.079	1	6
531.249	1	0
531.419	1	2
531.589	1	6
531.760	1	5
531.930	1	9
532.100	1	8
532.270	1	9
532.440	1	11
532.610	1	1
532.780	1	2
532.950	1	14
533.120	1	0
533.290	1	-5
533.461	1	6
533.631	1	8
533.801	1	7
533.971	1	12
534.141	1	6
534.311	1	-7
534.481	1	2
534.651	1	-7
534.821	1	5
534.991	1	11
535.162	1	2
535.332	1	7
535.502	1	12
535.672	1	0
535.842	1	-5
536.012	1	2
536.182	1	4
536.352	1	1
536.522	1	3
536.692	1	8
536.862	1	7
537.032	1	16
537.203	1	4
537.373	1	-6
537.543	1	16
537.713	1	-1
537.883	1	0
538.053	1	5
538.223	1	10
538.393	1	2
538.563	1	6
538.733	1	5
538.903	1	6
539.073	1	6
539.243	1	6
539.413	1	11
539.584	1	4
539.754	1	3
539.924	1	-5
540.094	1	8
540.264	1	2
540.434	1	6
540.604	1	-3
540.774	1	6
540.944	1	5
541.114	1	-2
541.284	1	13
541.454	1	7
541.624	1	7
541.794	1	5
541.964	1	7
542.134	1	9
542.305	1	9
542.475	1	-5
542.645	1	-5
542.815	1	15
542.985	1	5
543.155	1	7
543.325	1	9
543.495	1	12
543.665	1	4
543.835	1	7
544.005	1	12
544.175	1	2
544.345	1	6
544.515	1	4
544.685	1	-2
544.855	1	10
545.025	1	-1
545.195	1	5
545.365	1	11
545.535	1	-1
545.705	1	3
545.875	1	9
546.045	1	6
546.216	1	11
546.386	1	12
546.556	1	10
546.726	1	-5
546.896	1	10
547.066	1	0
547.236	1	0
547.406	1	2
547.576	1	9
547.746	1	0
547.916	1	-4
548.086	1	2
548.256	1	10
548.426	1	3
548.596	1	4
548.766	1	0
548.936	1	5
549.106	1	6
549.276	1	-4
549.446	1	16
549.616	1	5
549.786	1	11
549.956	1	11
550.126	1	-2
550.296	1	3
550.466	1	5
550.636	1	13
550.806	1	6
550.976	1	17
551.146	1	3
551.316	1	-3
551.486	1	6
551.656	1	6
551.826	1	3
551.996	1	1
552.166	1	-2
552.336	1	0
552.506	1	5
552.676	1	9
552.846	1	-3
553.016	1	7
553.186	1	3
553.356	1	5
553.526	1	7
553.696	1	16
553.866	1	2
554.036	1	17
554.206	1	11
554.376	1	6
554.546	1	5
554.716	1	7
554.886	1	3
555.056	1	17
555.226	1	-2
555.396	1	17
555.566	1	0
555.736	1	-1
555.906	1	9
556.076	1	3
556.246	1	5
556.416	1	-4
556.586	1	-8
556.756	1	8
556.926	1	-3
557.096	1	-4
557.266	1	9
557.436	1	0
557.606	1	4
557.776	1	7
557.946	1	18
558.116	1	13
558.286	1	-2
558.456	1	4
558.626	1	-4
558.796	1	6
558.966	1	9
559.136	1	1
559.306	1	15
559.476	1	7
559.646	1	1
559.816	1	6
559.986	1	3
560.155	1	6
560.325	1	-1
560.495	1	2
560.665	1	7
560.835	1	7
561.005	1	0
561.175	1	10
561.345	1	9
561.515	1	2
561.685	1	2
561.855	1	10
562.025	1	10
562.195	1	12
562.365	1	-3
562.535	1	-3
562.705	1	18
562.875	1	3
563.045	1	8
563.215	1	13
563.385	1	6
563.555	1	2
563.725	1	5
563.895	1	2
564.064	1	7
564.234	1	1
564.404	1	16
564.574	1	14
564.744	1	-13
564.914	1	4
565.084	1	9
565.254	1	9
565.424	1	-5
565.594	1	8
565.764	1	3
565.934	1	1
566.104	1	-8
566.274	1	4
566.444	1	5
566.614	1	2
566.783	1	3
566.953	1	-4
567.123	1	7
567.293	1	-1
567.463	1	1
567.633	1	10
567.803	1	4
567.973	1	12
568.143	1	15
568.313	1	10
568.483	1	5
568.653	1	4
568.823	1	-4
568.993	1	11
569.162	1	10
569.332	1	13
569.502	1	8
569.672	1	4
569.842	1	-5
570.012	1	11
570.182	1	10
570.352	1	5
570.522	1	9
570.692	1	3
570.862	1	9
571.031	1	-2
571.201	1	3
571.371	1	-1
571.541	1	12
571.711	1	12
571.881	1	12
572.051	1	2
572.221	1	4
572.391	1	1
572.561	1	4
572.731	1	3
572.900	1	-3
573.070	1	2
573.240	1	11
573.410	1	3
573.580	1	0
573.750	1	13
573.920	1	3
574.090	1	10
574.260	1	0
574.430	1	3
574.599	1	26
574.769	1	7
574.939	1	-3
575.109	1	-3
575.279	1	13
575.449	1	6
575.619	1	2
575.789	1	8
575.959	1	12
576.128	1	2
576.298	1	6
576.468	1	-3
576.638	1	12
576.808	1	6
576.978	1	16
577.148	1	5
577.318	1	16
577.487	1	7
577.657	1	17
577.827	1	2
577.997	1	0
578.167	1	-3
578.337	1	13
578.507	1	-6
578.677	1	-3
578.846	1	-5
579.016	1	13
579.186	1	-11
579.356	1	4
579.526	1	6
579.696	1	3
579.866	1	6
580.036	1	0
580.205	1	8
580.375	1	16
580.545	1	6
580.715	1	8
580.885	1	-5
581.055	1	9
581.225	1	5
581.394	1	8
581.564	1	4
581.734	1	6
581.904	1	8
582.074	1	0
582.244	1	0
582.414	1	15
582.583	1	2
582.753	1	2
582.923	1	7
583.093	1	11
583.263	1	-3
583.433	1	0
583.603	1	12
583.772	1	12
583.942	1	-3
584.112	1	-2
584.282	1	13
584.452	1	4
584.622	1	-7
584.791	1	4
584.961	1	4
585.131	1	6
585.301	1	13
585.471	1	-1
585.641	1	4
585.811	1	5
585.980	1	3
586.150	1	7
586.320	1	21
586.490	1	-6
586.660	1	-3
586.830	1	1
586.999	1	12
587.169	1	0
587.339	1	8
587.509	1	4
587.679	1	8
587.849	1	12
588.018	1	6
588.188	1	13
588.358	1	11
588.528	1	0
588.698	1	8
588.867	1	15
589.037	1	11
589.207	1	1
589.377	1	5
589.547	1	2
589.717	1	-2
589.886	1	10
590.056	1	5
590.226	1	13
590.396	1	11
590.566	1	5
590.735	1	10
590.905	1	-2
591.075	1	-4
591.245	1	1
591.415	1	5
591.585	1	6
591.754	1	10
591.924	1	5
592.094	1	9
592.264	1	3
592.434	1	11
592.603	1	3
592.773	1	5
592.943	1	1
593.113	1	19
593.283	1	3
593.452	1	17
593.622	1	6
593.792	1	13
593.962	1	4
594.132	1	13
594.301	1	-2
594.471	1	8
594.641	1	11
594.811	1	6
594.981	1	11
595.150	1	10
595.320	1	6
595.490	1	6
595.660	1	-1
595.829	1	8
595.999	1	5
596.169	1	-6
596.339	1	14
596.509	1	5
596.678	1	9
596.848	1	13
597.018	1	9
597.188	1	6
597.358	1	7
597.527	1	5
597.697	1	-3
597.867	1	2
598.037	1	4
598.206	1	-4
598.376	1	8
598.546	1	-2
598.716	1	11
598.885	1	5
599.055	1	-3
599.225	1	14
599.395	1	8
599.565	1	-7
599.734	1	3
599.904	1	9
600.074	1	4
600.244	1	7
600.413	1	9
600.583	1	9
600.753	1	11
600.923	1	-1
601.092	1	14
601.262	1	19
601.432	1	2
601.602	1	13
601.771	1	-5
601.941	1	19
602.111	1	1
602.281	1	15
602.451	1	9
602.620	1	5
602.790	1	-4
602.960	1	5
603.130	1	9
603.299	1	2
603.469	1	6
603.639	1	-8
603.809	1	5
603.978	1	16
604.148	1	10
604.318	1	10
604.487	1	5
604.657	1	11
604.827	1	5
604.997	1	14
605.166	1	11
605.336	1	4
605.506	1	9
605.676	1	14
605.845	1	13
606.015	1	12
606.185	1	6
606.355	1	12
606.524	1	4
606.694	1	12
606.864	1	-1
607.034	1	5
607.203	1	8
607.373	1	13
607.543	1	-2
607.712	1	7
607.882	1	16
608.052	1	5
608.222	1	10
608.391	1	4
608.561	1	9
608.731	1	14
608.901	1	1
609.070	1	4
609.240	1	4
609.410	1	6
609.579	1	6
609.749	1	13
609.919	1	6
610.089	1	3
610.258	1	-3
610.428	1	-5
610.598	1	10
610.767	1	-1
610.937	1	6
611.107	1	6
611.277	1	13
611.446	1	9
611.616	1	7
611.786	1	11
611.955	1	1
612.125	1	3
612.295	1	5
612.465	1	-2
612.634	1	-1
612.804	1	17
612.974	1	10
613.143	1	4
613.313	1	2
613.483	1	-9
613.652	1	18
613.822	1	16
613.992	1	0
614.162	1	2
614.331	1	1
614.501	1	-4
614.671	1	9
614.840	1	12
615.010	1	11
615.180	1	3
615.349	1	2
615.519	1	6
615.689	1	13
615.858	1	4
616.028	1	6
616.198	1	9
616.368	1	8
616.537	1	4
616.707	1	-2
616.877	1	-3
617.046	1	6
617.216	1	6
617.386	1	1
617.555	1	15
617.725	1	3
617.895	1	22
618.064	1	-1
618.234	1	0
618.404	1	17
618.573	1	14
618.743	1	5
618.913	1	7
619.082	1	11
619.252	1	7
619.422	1	12
619.591	1	19
619.761	1	12
619.931	1	-7
620.100	1	8
620.270	1	5
620.440	1	5
620.609	1	8
620.779	1	6
620.949	1	3
621.118	1	7
621.288	1	-1
621.458	1	2
621.627	1	6
621.797	1	17
621.967	1	4
622.136	1	0
622.306	1	8
622.476	1	11
622.645	1	12
622.815	1	0
622.985	1	-2
623.154	1	-1
623.324	1	12
623.494	1	3
623.663	1	7
623.833	1	13
624.002	1	1
624.172	1	10
624.342	1	-10
624.511	1	19
624.681	1	11
624.851	1	6
625.020	1	-5
625.190	1	1
625.360	1	2
625.529	1	6
625.699	1	13
625.869	1	1
626.038	1	8
626.208	1	9
626.377	1	13
626.547	1	-14
626.717	1	0
626.886	1	2
627.056	1	4
627.226	1	2
627.395	1	8
627.565	1	4
627.735	1	8
627.904	1	8
628.074	1	4
628.243	1	4
628.413	1	0
628.583	1	5
628.752	1	9
628.922	1	3
629.091	1	6
629.261	1	-5
629.431	1	-6
629.600	1	2
629.770	1	1
629.940	1	5
630.109	1	10
630.279	1	4
630.448	1	3
630.618	1	-1
630.788	1	5
630.957	1	15
631.127	1	4
631.297	1	4
631.466	1	-4
631.636	1	10
631.805	1	10
631.975	1	6
632.145	1	-4
632.314	1	2
632.484	1	9
632.653	1	1
632.823	1	21
632.993	1	15
633.162	1	8
633.332	1	5
633.501	1	6
633.671	1	6
633.841	1	13
634.010	1	10
634.180	1	3
634.349	1	1
634.519	1	17
634.689	1	-2
634.858	1	12
635.028	1	4
635.197	1	6
635.367	1	6
635.537	1	9
635.706	1	3
635.876	1	7
636.045	1	-1
636.215	1	6
636.384	1	12
636.554	1	8
636.724	1	5
636.893	1	13
637.063	1	-5
637.232	1	8
637.402	1	4
637.572	1	-1
637.741	1	19
637.911	1	3
638.080	1	2
638.250	1	9
638.419	1	13
638.589	1	-8
638.759	1	0
638.928	1	12
639.098	1	10
639.267	1	2
639.437	1	3
639.606	1	6
639.776	1	15
639.946	1	-2
640.115	1	2
640.285	1	-2
640.454	1	2
640.624	1	-1
640.793	1	3
640.963	1	1
641.132	1	-12
641.302	1	9
641.472	1	12
641.641	1	3
641.811	1	9
641.980	1	-5
642.150	1	4
642.319	1	-1
642.489	1	-3
642.659	1	7
642.828	1	-2
642.998	1	7
643.167	1	11
643.337	1	12
643.506	1	-5
643.676	1	11
643.845	1	4
644.015	1	-5
644.184	1	2
644.354	1	4
644.524	1	1
644.693	1	9
644.863	1	6
645.032	1	1
645.202	1	-4
645.371	1	5
645.541	1	11
645.710	1	5
645.880	1	11
646.049	1	-12
646.219	1	9
646.388	1	-2
646.558	1	1
646.728	1	-5
646.897	1	10
647.067	1	4
647.236	1	4
647.406	1	8
647.575	1	0
647.745	1	4
647.914	1	0
648.084	1	11
648.253	1	6
648.423	1	3
648.592	1	-3
648.762	1	10
648.931	1	3
649.101	1	-7
649.270	1	4
649.440	1	7
649.610	1	-1
649.779	1	12
649.949	1	0
650.118	1	-5
650.288	1	-7
650.457	1	3
650.627	1	4
650.796	1	1
650.966	1	5
651.135	1	-5
651.305	1	10
651.474	1	21
651.644	1	4
651.813	1	-1
651.983	1	-9
652.152	1	9
652.322	1	4
652.491	1	6
652.661	1	1
652.830	1	-1
653.000	1	8
653.169	1	-3
653.339	1	12
653.508	1	3
653.678	1	8
653.847	1	-6
654.017	1	10
654.186	1	10
654.356	1	5
654.525	1	9
654.695	1	16
654.864	1	5
655.034	1	6
655.203	1	10
655.373	1	14
655.542	1	3
655.712	1	2
655.881	1	11
656.051	1	4
656.220	1	5
656.390	1	17
656.559	1	-3
656.729	1	-4
656.898	1	0
657.068	1	-3
657.237	1	3
657.406	1	-4
657.576	1	2
657.745	1	11
657.915	1	11
658.084	1	0
658.254	1	-2
658.423	1	3
658.593	1	7
658.762	1	10
658.932	1	15
659.101	1	-8
659.271	1	3
659.440	1	9
659.610	1	8
659.779	1	6
659.949	1	5
660.118	1	14
660.288	1	-3
660.457	1	9
660.626	1	4
660.796	1	12
660.965	1	3
661.135	1	13
661.304	1	18
661.474	1	-4
661.643	1	0
661.813	1	-12
661.982	1	8
662.152	1	2
662.321	1	-1
662.491	1	6
662.660	1	2
662.829	1	13
662.999	1	8
663.168	1	8
663.338	1	0
663.507	1	1
663.677	1	3
663.846	1	-9
664.016	1	13
664.185	1	8
664.354	1	-1
664.524	1	-1
664.693	1	2
664.863	1	1
665.032	1	-1
665.202	1	-6
665.371	1	2
665.541	1	3
665.710	1	-4
665.879	1	3
666.049	1	8
666.218	1	-2
666.388	1	1
666.557	1	-2
666.727	1	5
666.896	1	3
667.065	1	7
667.235	1	5
667.404	1	14
667.574	1	-2
667.743	1	-4
667.913	1	4
668.082	1	19
668.251	1	17
668.421	1	10
668.590	1	-2
668.760	1	4
668.929	1	1
669.099	1	6
669.268	1	-3
669.437	1	10
669.607	1	-4
669.776	1	15
669.946	1	1
670.115	1	5
670.285	1	9
670.454	1	2
670.623	1	8
670.793	1	-1
670.962	1	3
671.132	1	5
671.301	1	0
671.470	1	7
671.640	1	5
671.809	1	9
671.979	1	9
672.148	1	0
672.317	1	3
672.487	1	0
672.656	1	-3
672.826	1	-1
672.995	1	10
673.164	1	2
673.334	1	6
673.503	1	13
673.673	1	0
673.842	1	1
674.011	1	6
674.181	1	9
674.350	1	1
674.520	1	0
674.689	1	27
674.858	1	7
675.028	1	6
675.197	1	1
675.367	1	10
675.536	1	7
675.705	1	-5
675.875	1	6
676.044	1	9
676.214	1	1
676.383	1	19
676.552	1	1
676.722	1	8
676.891	1	7
677.060	1	21
677.230	1	-5
677.399	1	16
677.569	1	-15
677.738	1	-3
677.907	1	14
678.077	1	3
678.246	1	-1
678.416	1	8
678.585	1	-1
678.754	1	15
678.924	1	12
679.093	1	4
679.262	1	-1
679.432	1	0
679.601	1	3
679.771	1	12
679.940	1	7
680.109	1	10
680.279	1	1
680.448	1	4
680.617	1	4
680.787	1	5
680.956	1	5
681.125	1	6
681.295	1	11
681.464	1	-1
681.634	1	6
681.803	1	7
681.972	1	0
682.142	1	4
682.311	1	20
682.480	1	-2
682.650	1	14
682.819	1	-2
682.988	1	12
683.158	1	7
683.327	1	7
683.496	1	-4
683.666	1	1
683.835	1	-5
684.004	1	1
684.174	1	7
684.343	1	7
684.512	1	-7
684.682	1	2
684.851	1	7
685.021	1	2
685.190	1	5
685.359	1	0
685.529	1	-11
685.698	1	2
685.867	1	17
686.037	1	2
686.206	1	-1
686.375	1	-2
686.545	1	0
686.714	1	1
686.883	1	3
687.053	1	8
687.222	1	3
687.391	1	1
687.561	1	7
687.730	1	8
687.899	1	9
688.069	1	1
688.238	1	5
688.407	1	5
688.577	1	6
688.746	1	7
