340.368	1	3
340.539	1	10
340.710	1	-1
340.881	1	1
341.052	1	-2
341.223	1	-7
341.394	1	6
341.565	1	-2
341.737	1	-8
341.908	1	-3
342.079	1	-2
342.250	1	7
342.421	1	-8
342.592	1	0
342.763	1	-3
342.934	1	3
343.105	1	2
343.276	1	-6
343.447	1	9
343.618	1	-5
343.789	1	-8
343.960	1	-8
344.131	1	-2
344.302	1	4
344.473	1	2
344.644	1	3
344.815	1	3
344.986	1	-13
345.157	1	-4
345.328	1	-4
345.499	1	15
345.670	1	5
345.841	1	3
346.012	1	4
346.183	1	1
346.354	1	9
346.526	1	-3
346.697	1	0
346.868	1	-6
347.039	1	-7
347.210	1	-7
347.381	1	-4
347.552	1	-5
347.723	1	7
347.894	1	3
348.065	1	-10
348.236	1	0
348.407	1	-4
348.578	1	-7
348.749	1	5
348.920	1	7
349.091	1	8
349.262	1	0
349.433	1	1
349.604	1	8
349.775	1	6
349.946	1	-9
350.117	1	-2
350.288	1	-6
350.459	1	-5
350.630	1	0
350.801	1	3
350.972	1	7
351.143	1	14
351.314	1	-6
351.485	1	-3
351.656	1	3
351.827	1	-1
351.998	1	1
352.169	1	-1
352.340	1	1
352.511	1	7
352.682	1	-3
352.853	1	0
353.024	1	5
353.195	1	-8
353.366	1	2
353.537	1	0
353.708	1	4
353.879	1	2
354.050	1	0
354.221	1	7
354.392	1	4
354.563	1	0
354.734	1	7
354.905	1	-3
355.076	1	3
355.247	1	1
355.418	1	-11
355.589	1	2
355.760	1	-7
355.931	1	-9
356.102	1	2
356.273	1	6
356.444	1	-3
356.615	1	7
356.785	1	-2
356.956	1	0
357.127	1	0
357.298	1	-7
357.469	1	7
357.640	1	5
357.811	1	2
357.982	1	11
358.153	1	1
358.324	1	3
358.495	1	-7
358.666	1	1
358.837	1	0
359.008	1	-1
359.179	1	-7
359.350	1	3
359.521	1	0
359.692	1	4
359.863	1	-6
360.034	1	4
360.205	1	6
360.376	1	3
360.547	1	-8
360.718	1	-2
360.889	1	12
361.060	1	16
361.231	1	-9
361.401	1	2
361.572	1	13
361.743	1	0
361.914	1	-11
362.085	1	-1
362.256	1	4
362.427	1	8
362.598	1	5
362.769	1	9
362.940	1	6
363.111	1	-8
363.282	1	3
363.453	1	6
363.624	1	-5
363.795	1	1
363.966	1	-1
364.137	1	5
364.308	1	-1
364.478	1	10
364.649	1	-4
364.820	1	2
364.991	1	6
365.162	1	5
365.333	1	-4
365.504	1	-5
365.675	1	0
365.846	1	8
366.017	1	4
366.188	1	-1
366.359	1	-2
366.530	1	-7
366.701	1	0
366.871	1	9
367.042	1	1
367.213	1	2
367.384	1	6
367.555	1	11
367.726	1	11
367.897	1	13
368.068	1	7
368.239	1	-4
368.410	1	-5
368.581	1	-10
368.752	1	0
368.923	1	13
369.093	1	7
369.264	1	0
369.435	1	-4
369.606	1	4
369.777	1	1
369.948	1	-3
370.119	1	2
370.290	1	6
370.461	1	11
370.632	1	4
370.803	1	-9
370.973	1	-3
371.144	1	9
371.315	1	-4
371.486	1	6
371.657	1	2
371.828	1	-2
371.999	1	-3
372.170	1	-4
372.341	1	11
372.512	1	-5
372.682	1	1
372.853	1	0
373.024	1	1
373.195	1	-11
373.366	1	-1
373.537	1	-2
373.708	1	8
373.879	1	5
374.050	1	-2
374.220	1	8
374.391	1	5
374.562	1	5
374.733	1	-4
374.904	1	-6
375.075	1	2
375.246	1	11
375.417	1	-3
375.588	1	-9
375.758	1	-6
375.929	1	4
376.100	1	6
376.271	1	2
376.442	1	0
376.613	1	11
376.784	1	-6
376.955	1	1
377.125	1	-1
377.296	1	-8
377.467	1	4
377.638	1	11
377.809	1	-2
377.980	1	1
378.151	1	5
378.321	1	6
378.492	1	0
378.663	1	5
378.834	1	-11
379.005	1	-2
379.176	1	-2
379.347	1	9
379.518	1	5
379.688	1	0
379.859	1	-10
380.030	1	17
380.201	1	4
380.372	1	-2
380.543	1	0
380.714	1	11
380.884	1	-3
381.055	1	-7
381.226	1	8
381.397	1	-1
381.568	1	-3
381.739	1	1
381.910	1	2
382.080	1	-1
382.251	1	-2
382.422	1	9
382.593	1	5
382.764	1	1
382.935	1	-11
383.105	1	4
383.276	1	9
383.447	1	-4
383.618	1	1
383.789	1	3
383.960	1	-4
384.130	1	-3
384.301	1	1
384.472	1	4
384.643	1	1
384.814	1	-10
384.985	1	-5
385.156	1	11
385.326	1	-4
385.497	1	9
385.668	1	6
385.839	1	-1
386.010	1	6
386.180	1	-7
386.351	1	-7
386.522	1	1
386.693	1	-11
386.864	1	5
387.035	1	14
387.205	1	5
387.376	1	-3
387.547	1	9
387.718	1	-6
387.889	1	-7
388.060	1	9
388.230	1	12
388.401	1	13
388.572	1	7
388.743	1	8
388.914	1	-4
389.084	1	6
389.255	1	3
389.426	1	9
389.597	1	0
389.768	1	10
389.939	1	3
390.109	1	-1
390.280	1	-6
390.451	1	14
390.622	1	3
390.793	1	10
390.963	1	4
391.134	1	10
391.305	1	6
391.476	1	-1
391.647	1	4
391.817	1	5
391.988	1	-4
392.159	1	-7
392.330	1	1
392.501	1	2
392.671	1	-16
392.842	1	0
393.013	1	8
393.184	1	-4
393.355	1	-5
393.525	1	3
393.696	1	-4
393.867	1	-9
394.038	1	6
394.208	1	8
394.379	1	-5
394.550	1	-3
394.721	1	1
394.892	1	-4
395.062	1	5
395.233	1	6
395.404	1	-5
395.575	1	7
395.746	1	1
395.916	1	0
396.087	1	3
396.258	1	3
396.429	1	11
396.599	1	0
396.770	1	-3
396.941	1	1
397.112	1	1
397.283	1	0
397.453	1	3
397.624	1	-1
397.795	1	5
397.966	1	10
398.136	1	2
398.307	1	-1
398.478	1	1
398.649	1	3
398.819	1	-1
398.990	1	-2
399.161	1	0
399.332	1	0
399.503	1	6
399.673	1	6
399.844	1	-3
400.015	1	4
400.186	1	2
400.356	1	-2
400.527	1	-7
400.698	1	11
400.869	1	3
401.039	1	12
401.210	1	12
401.381	1	-1
401.552	1	8
401.722	1	-5
401.893	1	2
402.064	1	8
402.235	1	6
402.405	1	-7
402.576	1	-6
402.747	1	4
402.918	1	-5
403.088	1	-7
403.259	1	10
403.430	1	-6
403.601	1	10
403.771	1	2
403.942	1	3
404.113	1	-5
404.284	1	0
404.454	1	-1
404.625	1	0
404.796	1	-12
404.967	1	9
405.137	1	4
405.308	1	-7
405.479	1	-1
405.649	1	11
405.820	1	1
405.991	1	4
406.162	1	4
406.332	1	1
406.503	1	2
406.674	1	5
406.845	1	2
407.015	1	0
407.186	1	11
407.357	1	12
407.527	1	9
407.698	1	-1
407.869	1	-6
408.040	1	-3
408.210	1	7
408.381	1	-2
408.552	1	4
408.722	1	5
408.893	1	7
409.064	1	1
409.235	1	6
409.405	1	1
409.576	1	8
409.747	1	2
409.917	1	-6
410.088	1	9
410.259	1	-6
410.430	1	13
410.600	1	4
410.771	1	2
410.942	1	8
411.112	1	-7
411.283	1	2
411.454	1	10
411.625	1	9
411.795	1	11
411.966	1	-6
412.137	1	2
412.307	1	-17
412.478	1	4
412.649	1	-11
412.819	1	8
412.990	1	5
413.161	1	5
413.332	1	8
413.502	1	8
413.673	1	7
413.844	1	0
414.014	1	5
414.185	1	-10
414.356	1	-3
414.526	1	0
414.697	1	3
414.868	1	-2
415.038	1	3
415.209	1	1
415.380	1	0
415.550	1	-12
415.721	1	-4
415.892	1	0
416.063	1	4
416.233	1	5
416.404	1	-2
416.575	1	11
416.745	1	5
416.916	1	10
417.087	1	-3
417.257	1	-1
417.428	1	0
417.599	1	7
417.769	1	-4
417.940	1	-14
418.111	1	15
418.281	1	8
418.452	1	1
418.623	1	0
418.793	1	4
418.964	1	-7
419.135	1	1
419.305	1	3
419.476	1	-5
419.647	1	-12
419.817	1	-7
419.988	1	7
420.159	1	13
420.329	1	-8
420.500	1	-1
420.671	1	0
420.841	1	2
421.012	1	-2
421.183	1	6
421.353	1	-6
421.524	1	2
421.695	1	-4
421.865	1	6
422.036	1	2
422.206	1	1
422.377	1	-2
422.548	1	-3
422.718	1	-5
422.889	1	8
423.060	1	1
423.230	1	1
423.401	1	3
423.572	1	2
423.742	1	1
423.913	1	4
424.084	1	0
424.254	1	4
424.425	1	8
424.595	1	3
424.766	1	3
424.937	1	3
425.107	1	5
425.278	1	12
425.449	1	7
425.619	1	9
425.790	1	2
425.961	1	-1
426.131	1	0
426.302	1	2
426.472	1	-11
426.643	1	1
426.814	1	2
426.984	1	8
427.155	1	6
427.326	1	12
427.496	1	-3
427.667	1	7
427.837	1	-2
428.008	1	4
428.179	1	0
428.349	1	-10
428.520	1	-12
428.691	1	-6
428.861	1	-5
429.032	1	-4
429.202	1	5
429.373	1	-9
429.544	1	-3
429.714	1	6
429.885	1	4
430.055	1	3
430.226	1	7
430.397	1	10
430.567	1	0
430.738	1	1
430.909	1	-8
431.079	1	13
431.250	1	4
431.420	1	-2
431.591	1	8
431.762	1	2
431.932	1	0
432.103	1	-1
432.273	1	12
432.444	1	6
432.615	1	1
432.785	1	7
432.956	1	-2
433.126	1	-2
433.297	1	-3
433.468	1	0
433.638	1	1
433.809	1	6
433.979	1	-6
434.150	1	12
434.320	1	-4
434.491	1	-3
434.662	1	-3
434.832	1	-5
435.003	1	1
435.173	1	-4
435.344	1	-5
435.515	1	6
435.685	1	1
435.856	1	-7
436.026	1	13
436.197	1	-2
436.368	1	5
436.538	1	7
436.709	1	6
436.879	1	-7
437.050	1	7
437.220	1	-5
437.391	1	7
437.562	1	13
437.732	1	6
437.903	1	3
438.073	1	-6
438.244	1	-10
438.414	1	6
438.585	1	5
438.756	1	3
438.926	1	-15
439.097	1	0
439.267	1	9
439.438	1	5
439.608	1	4
439.779	1	-2
439.949	1	6
440.120	1	2
440.291	1	3
440.461	1	0
440.632	1	6
440.802	1	4
440.973	1	8
441.143	1	9
441.314	1	8
441.485	1	-5
441.655	1	-4
441.826	1	-6
441.996	1	6
442.167	1	-2
442.337	1	-5
442.508	1	4
442.678	1	1
442.849	1	2
443.019	1	12
443.190	1	5
443.361	1	-5
443.531	1	-2
443.702	1	8
443.872	1	-7
444.043	1	7
444.213	1	-4
444.384	1	3
444.554	1	10
444.725	1	8
444.895	1	3
445.066	1	15
445.237	1	1
445.407	1	-8
445.578	1	1
445.748	1	7
445.919	1	-3
446.089	1	1
446.260	1	5
446.430	1	13
446.601	1	6
446.771	1	2
446.942	1	2
447.112	1	1
447.283	1	-2
447.453	1	6
447.624	1	4
447.794	1	10
447.965	1	4
448.135	1	-6
448.306	1	8
448.477	1	-6
448.647	1	2
448.818	1	-1
448.988	1	0
449.159	1	5
449.329	1	1
449.500	1	-7
449.670	1	-6
449.841	1	3
450.011	1	-7
450.182	1	-5
450.352	1	-2
450.523	1	2
450.693	1	-1
450.864	1	-9
451.034	1	7
451.205	1	-3
451.375	1	5
451.546	1	-5
451.716	1	4
451.887	1	5
452.057	1	2
452.228	1	-6
452.398	1	12
452.569	1	1
452.739	1	-3
452.910	1	-2
453.080	1	-1
453.251	1	-1
453.421	1	-8
453.592	1	-2
453.762	1	2
453.933	1	1
454.103	1	3
454.274	1	-6
454.444	1	9
454.615	1	-7
454.785	1	2
454.956	1	1
455.126	1	2
455.297	1	-10
455.467	1	0
455.638	1	-3
455.808	1	-4
455.979	1	1
456.149	1	5
456.320	1	7
456.490	1	-6
456.661	1	7
456.831	1	6
457.001	1	3
457.172	1	-1
457.342	1	7
457.513	1	4
457.683	1	-14
457.854	1	6
458.024	1	0
458.195	1	-3
458.365	1	-9
458.536	1	11
458.706	1	14
458.877	1	-1
459.047	1	5
459.218	1	8
459.388	1	7
459.559	1	-13
459.729	1	5
459.899	1	0
460.070	1	14
460.240	1	8
460.411	1	6
460.581	1	0
460.752	1	4
460.922	1	-9
461.093	1	3
461.263	1	3
461.434	1	-6
461.604	1	4
461.775	1	12
461.945	1	-1
462.115	1	0
462.286	1	-2
462.456	1	0
462.627	1	-9
462.797	1	-6
462.968	1	-2
463.138	1	5
463.309	1	8
463.479	1	-6
463.649	1	8
463.820	1	2
463.990	1	-4
464.161	1	5
464.331	1	-5
464.502	1	8
464.672	1	0
464.843	1	2
465.013	1	8
465.183	1	11
465.354	1	9
465.524	1	-4
465.695	1	-3
465.865	1	-7
466.036	1	4
466.206	1	-3
466.376	1	-4
466.547	1	-6
466.717	1	-1
466.888	1	2
467.058	1	2
467.229	1	0
467.399	1	6
467.569	1	-13
467.740	1	4
467.910	1	2
468.081	1	4
468.251	1	8
468.422	1	10
468.592	1	-3
468.762	1	-4
468.933	1	-1
469.103	1	0
469.274	1	0
469.444	1	0
469.614	1	1
469.785	1	8
469.955	1	3
470.126	1	2
470.296	1	3
470.467	1	5
470.637	1	-9
470.807	1	-6
470.978	1	-1
471.148	1	5
471.319	1	-9
471.489	1	-3
471.659	1	17
471.830	1	-4
472.000	1	-2
472.171	1	0
472.341	1	4
472.511	1	3
472.682	1	-2
472.852	1	10
473.023	1	2
473.193	1	8
473.363	1	4
473.534	1	10
473.704	1	-2
473.875	1	10
474.045	1	-2
474.215	1	-4
474.386	1	0
474.556	1	5
474.727	1	5
474.897	1	14
475.067	1	0
475.238	1	6
475.408	1	2
475.578	1	-3
475.749	1	-3
475.919	1	11
476.090	1	-7
476.260	1	10
476.430	1	-6
476.601	1	15
476.771	1	5
476.942	1	0
477.112	1	-6
477.282	1	5
477.453	1	-7
477.623	1	-12
477.793	1	-4
477.964	1	-2
478.134	1	0
478.305	1	1
478.475	1	11
478.645	1	0
478.816	1	9
478.986	1	-3
479.156	1	4
479.327	1	3
479.497	1	-5
479.667	1	-10
479.838	1	3
480.008	1	-7
480.179	1	8
480.349	1	4
480.519	1	3
480.690	1	-1
480.860	1	9
481.030	1	-1
481.201	1	1
481.371	1	-6
481.541	1	4
481.712	1	7
481.882	1	-2
482.053	1	7
482.223	1	-3
482.393	1	0
482.564	1	-7
482.734	1	14
482.904	1	4
483.075	1	5
483.245	1	-5
483.415	1	5
483.586	1	12
483.756	1	-6
483.926	1	-10
484.097	1	0
484.267	1	16
484.437	1	-14
484.608	1	5
484.778	1	7
484.948	1	2
485.119	1	-7
485.289	1	3
485.459	1	11
485.630	1	2
485.800	1	1
485.970	1	0
486.141	1	4
486.311	1	-15
486.481	1	8
486.652	1	6
486.822	1	-8
486.992	1	0
487.163	1	5
487.333	1	2
487.503	1	2
487.674	1	-4
487.844	1	2
488.014	1	-7
488.185	1	-1
488.355	1	5
488.525	1	7
488.696	1	8
488.866	1	-5
489.036	1	12
489.207	1	13
489.377	1	1
489.547	1	0
489.718	1	-12
489.888	1	7
490.058	1	3
490.228	1	-7
490.399	1	-5
490.569	1	-9
490.739	1	4
490.910	1	-1
491.080	1	2
491.250	1	5
491.421	1	-2
491.591	1	-11
491.761	1	0
491.932	1	7
492.102	1	4
492.272	1	-6
492.442	1	-5
492.613	1	-4
492.783	1	6
492.953	1	-3
493.124	1	5
493.294	1	7
493.464	1	-6
493.635	1	2
493.805	1	1
493.975	1	2
494.145	1	2
494.316	1	5
494.486	1	9
494.656	1	11
494.827	1	1
494.997	1	-6
495.167	1	0
495.337	1	9
495.508	1	15
495.678	1	2
495.848	1	-6
496.019	1	-7
496.189	1	-1
496.359	1	0
496.529	1	7
496.700	1	9
496.870	1	-7
497.040	1	4
497.211	1	5
497.381	1	-7
497.551	1	7
497.721	1	-1
497.892	1	6
498.062	1	1
498.232	1	-1
498.403	1	9
498.573	1	1
498.743	1	11
498.913	1	-13
499.084	1	1
499.254	1	-8
499.424	1	-2
499.594	1	4
499.765	1	1
499.935	1	1
500.105	1	3
500.275	1	-7
500.446	1	12
500.616	1	2
500.786	1	-4
500.956	1	-2
501.127	1	4
501.297	1	-3
501.467	1	-1
501.638	1	3
501.808	1	10
501.978	1	-3
502.148	1	-5
502.319	1	1
502.489	1	10
502.659	1	-10
502.829	1	3
503.000	1	11
503.170	1	-2
503.340	1	6
503.510	1	6
503.681	1	-4
503.851	1	-9
504.021	1	6
504.191	1	-2
504.362	1	-5
504.532	1	1
504.702	1	6
504.872	1	7
505.042	1	8
505.213	1	-3
505.383	1	4
505.553	1	-3
505.723	1	1
505.894	1	-3
506.064	1	3
506.234	1	-2
506.404	1	3
506.575	1	-9
506.745	1	10
506.915	1	-10
507.085	1	-6
507.256	1	0
507.426	1	3
507.596	1	-1
507.766	1	-1
507.936	1	1
508.107	1	7
508.277	1	6
508.447	1	9
508.617	1	-5
508.788	1	-2
508.958	1	13
509.128	1	-3
509.298	1	5
509.468	1	7
509.639	1	0
509.809	1	9
509.979	1	2
510.149	1	-4
510.319	1	17
510.490	1	-7
510.660	1	7
510.830	1	-7
511.000	1	1
511.171	1	12
511.341	1	2
511.511	1	-3
511.681	1	-9
511.851	1	-3
512.022	1	7
512.192	1	9
512.362	1	3
512.532	1	1
512.702	1	0
512.873	1	2
513.043	1	9
513.213	1	5
513.383	1	0
513.553	1	2
513.724	1	5
513.894	1	11
514.064	1	3
514.234	1	6
514.404	1	2
514.575	1	8
514.745	1	-2
514.915	1	-10
515.085	1	3
515.255	1	-2
515.425	1	2
515.596	1	6
515.766	1	0
515.936	1	1
516.106	1	10
516.276	1	9
516.447	1	-17
516.617	1	3
516.787	1	-7
516.957	1	-5
517.127	1	1
517.297	1	4
517.468	1	3
517.638	1	2
517.808	1	-7
517.978	1	5
518.148	1	-1
518.319	1	1
518.489	1	0
518.659	1	-4
518.829	1	2
518.999	1	-7
519.169	1	1
519.340	1	-9
519.510	1	-7
519.680	1	-2
519.850	1	16
520.020	1	2
520.190	1	-7
520.361	1	-6
520.531	1	9
520.701	1	-3
520.871	1	2
521.041	1	-3
521.211	1	-1
521.382	1	8
521.552	1	-7
521.722	1	-6
521.892	1	-4
522.062	1	-2
522.232	1	5
522.402	1	3
522.573	1	3
522.743	1	-7
522.913	1	-2
523.083	1	-1
523.253	1	9
523.423	1	-8
523.593	1	-4
523.764	1	-9
523.934	1	2
524.104	1	1
524.274	1	-6
524.444	1	-4
524.614	1	1
524.784	1	-11
524.955	1	1
525.125	1	3
525.295	1	-1
525.465	1	-7
525.635	1	4
525.805	1	10
525.975	1	10
526.146	1	1
526.316	1	-2
526.486	1	-8
526.656	1	-7
526.826	1	-6
526.996	1	-2
527.166	1	6
527.337	1	2
527.507	1	9
527.677	1	-5
527.847	1	-12
528.017	1	-2
528.187	1	-3
528.357	1	3
528.527	1	-2
528.698	1	-4
528.868	1	13
529.038	1	-4
529.208	1	0
529.378	1	10
529.548	1	-1
529.718	1	0
529.888	1	-3
530.058	1	9
530.229	1	3
530.399	1	-7
530.569	1	7
530.739	1	3
530.909	1	2
531.079	1	-3
531.249	1	7
531.419	1	-7
531.589	1	0
531.760	1	-1
531.930	1	6
532.100	1	20
532.270	1	3
532.440	1	5
532.610	1	2
532.780	1	5
532.950	1	7
533.120	1	7
533.290	1	-5
533.461	1	3
533.631	1	-10
533.801	1	10
533.971	1	-4
534.141	1	-2
534.311	1	-1
534.481	1	2
534.651	1	-4
534.821	1	1
534.991	1	3
535.162	1	-9
535.332	1	-6
535.502	1	10
535.672	1	2
535.842	1	-5
536.012	1	6
536.182	1	5
536.352	1	-4
536.522	1	4
536.692	1	2
536.862	1	-5
537.032	1	1
537.203	1	4
537.373	1	-12
537.543	1	13
537.713	1	4
537.883	1	0
538.053	1	10
538.223	1	4
538.393	1	3
538.563	1	-2
538.733	1	-6
538.903	1	-2
539.073	1	18
539.243	1	2
539.413	1	7
539.584	1	-6
539.754	1	-2
539.924	1	-3
540.094	1	3
540.264	1	-7
540.434	1	-1
540.604	1	-2
540.774	1	6
540.944	1	3
541.114	1	-1
541.284	1	7
541.454	1	3
541.624	1	4
541.794	1	1
541.964	1	1
542.134	1	3
542.305	1	12
542.475	1	2
542.645	1	-3
542.815	1	14
542.985	1	7
543.155	1	0
543.325	1	-1
543.495	1	4
543.665	1	-5
543.835	1	3
544.005	1	6
544.175	1	1
544.345	1	6
544.515	1	-6
544.685	1	-6
544.855	1	4
545.025	1	-3
545.195	1	-2
545.365	1	8
545.535	1	-2
545.705	1	8
545.875	1	-3
546.045	1	-2
546.216	1	-2
546.386	1	8
546.556	1	7
546.726	1	-13
546.896	1	-5
547.066	1	0
547.236	1	11
547.406	1	4
547.576	1	0
547.746	1	-1
547.916	1	4
548.086	1	4
548.256	1	2
548.426	1	9
548.596	1	4
548.766	1	0
548.936	1	-5
549.106	1	4
549.276	1	3
549.446	1	9
549.616	1	-2
549.786	1	-2
549.956	1	7
550.126	1	-8
550.296	1	-3
550.466	1	-8
550.636	1	4
550.806	1	3
550.976	1	2
551.146	1	7
551.316	1	-3
551.486	1	8
551.656	1	-2
551.826	1	-4
551.996	1	5
552.166	1	-4
552.336	1	-4
552.506	1	-3
552.676	1	9
552.846	1	-6
553.016	1	5
553.186	1	-2
553.356	1	-11
553.526	1	-10
553.696	1	-9
553.866	1	10
554.036	1	9
554.206	1	-3
554.376	1	3
554.546	1	-1
554.716	1	3
554.886	1	-4
555.056	1	8
555.226	1	-8
555.396	1	10
555.566	1	1
555.736	1	-11
555.906	1	7
556.076	1	4
556.246	1	4
556.416	1	-3
556.586	1	5
556.756	1	7
556.926	1	-6
557.096	1	-7
557.266	1	7
557.436	1	2
557.606	1	3
557.776	1	4
557.946	1	-5
558.116	1	16
558.286	1	8
558.456	1	9
558.626	1	-4
558.796	1	0
558.966	1	9
559.136	1	0
559.306	1	10
559.476	1	-10
559.646	1	-10
559.816	1	0
559.986	1	2
560.155	1	4
560.325	1	-1
560.495	1	3
560.665	1	11
560.835	1	2
561.005	1	4
561.175	1	-1
561.345	1	-3
561.515	1	-10
561.685	1	-2
561.855	1	3
562.025	1	-5
562.195	1	20
562.365	1	-2
562.535	1	2
562.705	1	-3
562.875	1	7
563.045	1	-3
563.215	1	11
563.385	1	9
563.555	1	3
563.725	1	6
563.895	1	-1
564.064	1	-3
564.234	1	-8
564.404	1	-1
564.574	1	5
564.744	1	-13
564.914	1	-4
565.084	1	-1
565.254	1	13
565.424	1	-12
565.594	1	8
565.764	1	-4
565.934	1	6
566.104	1	-7
566.274	1	-4
566.444	1	8
566.614	1	-3
566.783	1	3
566.953	1	6
567.123	1	-3
567.293	1	-1
567.463	1	0
567.633	1	1
567.803	1	2
567.973	1	-1
568.143	1	3
568.313	1	4
568.483	1	3
568.653	1	11
568.823	1	3
568.993	1	-9
569.162	1	11
569.332	1	2
569.502	1	1
569.672	1	4
569.842	1	-3
570.012	1	4
570.182	1	-9
570.352	1	6
570.522	1	7
570.692	1	4
570.862	1	-10
571.031	1	0
571.201	1	-4
571.371	1	1
571.541	1	5
571.711	1	8
571.881	1	9
572.051	1	-8
572.221	1	-6
572.391	1	1
572.561	1	-1
572.731	1	-11
572.900	1	0
573.070	1	-4
573.240	1	4
573.410	1	-6
573.580	1	5
573.750	1	9
573.920	1	3
574.090	1	9
574.260	1	-12
574.430	1	2
574.599	1	15
574.769	1	-1
574.939	1	-12
575.109	1	5
575.279	1	10
575.449	1	1
575.619	1	7
575.789	1	7
575.959	1	4
576.128	1	2
576.298	1	4
576.468	1	-2
576.638	1	9
576.808	1	-1
576.978	1	9
577.148	1	-4
577.318	1	10
577.487	1	4
577.657	1	3
577.827	1	3
577.997	1	-5
578.167	1	-6
578.337	1	11
578.507	1	6
578.677	1	-4
578.846	1	-2
579.016	1	1
579.186	1	-10
579.356	1	2
579.526	1	4
579.696	1	-1
579.866	1	-5
580.036	1	3
580.205	1	1
580.375	1	13
580.545	1	-4
580.715	1	4
580.885	1	-2
581.055	1	16
581.225	1	-1
581.394	1	5
581.564	1	-8
581.734	1	11
581.904	1	1
582.074	1	-10
582.244	1	5
582.414	1	0
582.583	1	-4
582.753	1	-4
582.923	1	-1
583.093	1	3
583.263	1	-2
583.433	1	-6
583.603	1	8
583.772	1	1
583.942	1	3
584.112	1	-5
584.282	1	7
584.452	1	6
584.622	1	-1
584.791	1	0
584.961	1	4
585.131	1	-2
585.301	1	2
585.471	1	1
585.641	1	2
585.811	1	-6
585.980	1	0
586.150	1	-2
586.320	1	9
586.490	1	4
586.660	1	-7
586.830	1	10
586.999	1	5
587.169	1	-8
587.339	1	-4
587.509	1	-6
587.679	1	3
587.849	1	5
588.018	1	4
588.188	1	13
588.358	1	7
588.528	1	-5
588.698	1	9
588.867	1	15
589.037	1	9
589.207	1	5
589.377	1	2
589.547	1	0
589.717	1	8
589.886	1	4
590.056	1	5
590.226	1	-5
590.396	1	4
590.566	1	-3
590.735	1	-3
590.905	1	-2
591.075	1	-8
591.245	1	5
591.415	1	12
591.585	1	-9
591.754	1	-4
591.924	1	-1
592.094	1	-2
592.264	1	-2
592.434	1	4
592.603	1	-14
592.773	1	7
592.943	1	7
593.113	1	13
593.283	1	-2
593.452	1	5
593.622	1	-4
593.792	1	2
593.962	1	0
594.132	1	9
594.301	1	-14
594.471	1	2
594.641	1	1
594.811	1	8
594.981	1	3
595.150	1	11
595.320	1	6
595.490	1	7
595.660	1	-6
595.829	1	0
595.999	1	-10
596.169	1	-12
596.339	1	8
596.509	1	-2
596.678	1	11
596.848	1	1
597.018	1	3
597.188	1	-2
597.358	1	4
597.527	1	6
597.697	1	0
597.867	1	0
598.037	1	-3
598.206	1	2
598.376	1	-1
598.546	1	5
598.716	1	10
598.885	1	2
599.055	1	3
599.225	1	-4
599.395	1	7
599.565	1	-8
599.734	1	-4
599.904	1	7
600.074	1	5
600.244	1	5
600.413	1	4
600.583	1	-3
600.753	1	8
600.923	1	1
601.092	1	0
601.262	1	-1
601.432	1	-14
601.602	1	4
601.771	1	4
601.941	1	9
602.111	1	-3
602.281	1	8
602.451	1	3
602.620	1	-1
602.790	1	1
602.960	1	11
603.130	1	1
603.299	1	1
603.469	1	-3
603.639	1	-12
603.809	1	-2
603.978	1	11
604.148	1	-2
604.318	1	6
604.487	1	-2
604.657	1	12
604.827	1	4
604.997	1	3
605.166	1	7
605.336	1	8
605.506	1	1
605.676	1	14
605.845	1	4
606.015	1	13
606.185	1	1
606.355	1	5
606.524	1	1
606.694	1	6
606.864	1	-13
607.034	1	0
607.203	1	6
607.373	1	2
607.543	1	5
607.712	1	15
607.882	1	3
608.052	1	-5
608.222	1	4
608.391	1	6
608.561	1	8
608.731	1	5
608.901	1	-2
609.070	1	-5
609.240	1	2
609.410	1	10
609.579	1	-3
609.749	1	-6
609.919	1	2
610.089	1	2
610.258	1	-4
610.428	1	2
610.598	1	-3
610.767	1	-3
610.937	1	0
611.107	1	4
611.277	1	2
611.446	1	7
611.616	1	8
611.786	1	5
611.955	1	-10
612.125	1	-1
612.295	1	3
612.465	1	3
612.634	1	1
612.804	1	12
612.974	1	7
613.143	1	2
613.313	1	3
613.483	1	-5
613.652	1	5
613.822	1	14
613.992	1	-1
614.162	1	2
614.331	1	-6
614.501	1	0
614.671	1	9
614.840	1	13
615.010	1	2
615.180	1	6
615.349	1	5
615.519	1	3
615.689	1	8
615.858	1	0
616.028	1	1
616.198	1	5
616.368	1	11
616.537	1	4
616.707	1	2
616.877	1	-8
617.046	1	3
617.216	1	-6
617.386	1	-12
617.555	1	6
617.725	1	-1
617.895	1	7
618.064	1	-4
618.234	1	-2
618.404	1	6
618.573	1	13
618.743	1	-3
618.913	1	-1
619.082	1	4
619.252	1	-2
619.422	1	18
619.591	1	10
619.761	1	-1
619.931	1	-7
620.100	1	2
620.270	1	-8
620.440	1	11
620.609	1	-2
620.779	1	4
620.949	1	2
621.118	1	0
621.288	1	-5
621.458	1	3
621.627	1	-2
621.797	1	6
621.967	1	2
622.136	1	2
622.306	1	1
622.476	1	2
622.645	1	7
622.815	1	-1
622.985	1	-11
623.154	1	-2
623.324	1	6
623.494	1	6
623.663	1	5
623.833	1	1
624.002	1	-7
624.172	1	3
624.342	1	-6
624.511	1	-1
624.681	1	4
624.851	1	-1
625.020	1	0
625.190	1	-6
625.360	1	6
625.529	1	2
625.699	1	9
625.869	1	3
626.038	1	10
626.208	1	2
626.377	1	8
626.547	1	-4
626.717	1	-1
626.886	1	-5
627.056	1	3
627.226	1	12
627.395	1	-1
627.565	1	5
627.735	1	-1
627.904	1	6
628.074	1	9
628.243	1	-10
628.413	1	5
628.583	1	7
628.752	1	1
628.922	1	5
629.091	1	-7
629.261	1	-4
629.431	1	-15
629.600	1	1
629.770	1	-4
629.940	1	6
630.109	1	0
630.279	1	4
630.448	1	5
630.618	1	-9
630.788	1	1
630.957	1	6
631.127	1	2
631.297	1	-4
631.466	1	1
631.636	1	13
631.805	1	8
631.975	1	6
632.145	1	-3
632.314	1	-1
632.484	1	11
632.653	1	3
632.823	1	13
632.993	1	2
633.162	1	10
633.332	1	2
633.501	1	-6
633.671	1	-1
633.841	1	8
634.010	1	5
634.180	1	2
634.349	1	-2
634.519	1	6
634.689	1	7
634.858	1	3
635.028	1	1
635.197	1	4
635.367	1	6
635.537	1	5
635.706	1	2
635.876	1	-3
636.045	1	5
636.215	1	1
636.384	1	8
636.554	1	4
636.724	1	12
636.893	1	6
637.063	1	-7
637.232	1	-7
637.402	1	1
637.572	1	-3
637.741	1	5
637.911	1	-6
638.080	1	0
638.250	1	2
638.419	1	11
638.589	1	-1
638.759	1	6
638.928	1	18
639.098	1	15
639.267	1	2
639.437	1	-6
639.606	1	3
639.776	1	1
639.946	1	2
640.115	1	-9
640.285	1	1
640.454	1	-1
640.624	1	-4
640.793	1	-11
640.963	1	2
641.132	1	-9
641.302	1	11
641.472	1	3
641.641	1	1
641.811	1	5
641.980	1	-10
642.150	1	-1
642.319	1	7
642.489	1	-5
642.659	1	8
642.828	1	6
642.998	1	2
643.167	1	4
643.337	1	1
643.506	1	8
643.676	1	6
643.845	1	-4
644.015	1	-2
644.184	1	0
644.354	1	0
644.524	1	-2
644.693	1	-1
644.863	1	-2
645.032	1	1
645.202	1	-15
645.371	1	13
645.541	1	-7
645.710	1	-2
645.880	1	7
646.049	1	-15
646.219	1	6
646.388	1	-6
646.558	1	3
646.728	1	-8
646.897	1	10
647.067	1	-2
647.236	1	1
647.406	1	-1
647.575	1	-9
647.745	1	-5
647.914	1	4
648.084	1	7
648.253	1	-7
648.423	1	7
648.592	1	-8
648.762	1	14
648.931	1	4
649.101	1	-1
649.270	1	8
649.440	1	9
649.610	1	-5
649.779	1	4
649.949	1	-6
650.118	1	1
650.288	1	-1
650.457	1	-3
650.627	1	2
650.796	1	-2
650.966	1	3
651.135	1	-5
651.305	1	8
651.474	1	14
651.644	1	-1
651.813	1	-4
651.983	1	-5
652.152	1	3
652.322	1	0
652.491	1	0
652.661	1	-3
652.830	1	5
653.000	1	5
653.169	1	-7
653.339	1	-1
653.508	1	5
653.678	1	2
653.847	1	-2
654.017	1	4
654.186	1	5
654.356	1	0
654.525	1	9
654.695	1	2
654.864	1	-3
655.034	1	0
655.203	1	6
655.373	1	7
655.542	1	5
655.712	1	3
655.881	1	2
656.051	1	-5
656.220	1	8
656.390	1	11
656.559	1	7
656.729	1	-10
656.898	1	0
657.068	1	4
657.237	1	-5
657.406	1	-7
657.576	1	-4
657.745	1	4
657.915	1	2
658.084	1	-3
658.254	1	-7
658.423	1	6
658.593	1	-3
658.762	1	2
658.932	1	3
659.101	1	-8
659.271	1	1
659.440	1	10
659.610	1	9
659.779	1	5
659.949	1	3
660.118	1	6
660.288	1	-5
660.457	1	2
660.626	1	1
660.796	1	12
660.965	1	3
661.135	1	11
661.304	1	5
661.474	1	-1
661.643	1	-4
661.813	1	-11
661.982	1	6
662.152	1	0
662.321	1	5
662.491	1	-3
662.660	1	-4
662.829	1	0
662.999	1	3
663.168	1	-5
663.338	1	-3
663.507	1	-7
663.677	1	-1
663.846	1	-9
664.016	1	15
664.185	1	-2
664.354	1	-4
664.524	1	8
664.693	1	7
664.863	1	6
665.032	1	-2
665.202	1	1
665.371	1	0
665.541	1	1
665.710	1	-12
665.879	1	-1
666.049	1	-3
666.218	1	-10
666.388	1	2
666.557	1	-3
666.727	1	-5
666.896	1	2
667.065	1	2
667.235	1	3
667.404	1	10
667.574	1	-2
667.743	1	-7
667.913	1	5
668.082	1	9
668.251	1	14
668.421	1	14
668.590	1	-11
668.760	1	6
668.929	1	0
669.099	1	-3
669.268	1	5
669.437	1	-4
669.607	1	-6
669.776	1	12
669.946	1	1
670.115	1	6
670.285	1	-1
670.454	1	1
670.623	1	9
670.793	1	3
670.962	1	-4
671.132	1	1
671.301	1	1
671.470	1	5
671.640	1	-2
671.809	1	-2
671.979	1	14
672.148	1	-3
672.317	1	4
672.487	1	6
672.656	1	3
672.826	1	-4
672.995	1	2
673.164	1	3
673.334	1	-1
673.503	1	8
673.673	1	3
673.842	1	8
674.011	1	-4
674.181	1	1
674.350	1	4
674.520	1	-11
674.689	1	11
674.858	1	7
675.028	1	11
675.197	1	-2
675.367	1	10
675.536	1	-1
675.705	1	-4
675.875	1	2
676.044	1	2
676.214	1	-4
676.383	1	15
676.552	1	8
676.722	1	2
676.891	1	5
677.060	1	8
677.230	1	-8
677.399	1	-5
677.569	1	-13
677.738	1	2
677.907	1	2
678.077	1	0
678.246	1	1
678.416	1	6
678.585	1	-1
678.754	1	6
678.924	1	5
679.093	1	3
679.262	1	-10
679.432	1	-10
679.601	1	-5
679.771	1	15
679.940	1	-3
680.109	1	6
680.279	1	3
680.448	1	-4
680.617	1	3
680.787	1	-8
680.956	1	-7
681.125	1	0
681.295	1	1
681.464	1	0
681.634	1	-2
681.803	1	8
681.972	1	-8
682.142	1	5
682.311	1	3
682.480	1	-5
682.650	1	1
682.819	1	-4
682.988	1	3
683.158	1	-5
683.327	1	3
683.496	1	-6
683.666	1	6
683.835	1	-5
684.004	1	13
684.174	1	-4
684.343	1	0
684.512	1	-3
684.682	1	-6
684.851	1	6
685.021	1	-6
685.190	1	6
685.359	1	5
685.529	1	-1
685.698	1	2
685.867	1	15
686.037	1	-1
686.206	1	-1
686.375	1	-3
686.545	1	2
686.714	1	1
686.883	1	-6
687.053	1	7
687.222	1	1
687.391	1	-4
687.561	1	-2
687.730	1	2
687.899	1	-5
688.069	1	2
688.238	1	2
688.407	1	0
688.577	1	5
688.746	1	4
