340.368	1	3
340.539	1	10
340.710	1	-2
340.881	1	5
341.052	1	-3
341.223	1	-18
341.394	1	9
341.565	1	-3
341.737	1	-13
341.908	1	11
342.079	1	1
342.250	1	8
342.421	1	-9
342.592	1	6
342.763	1	-9
342.934	1	7
343.105	1	-3
343.276	1	-1
343.447	1	3
343.618	1	-11
343.789	1	8
343.960	1	-9
344.131	1	-9
344.302	1	4
344.473	1	1
344.644	1	8
344.815	1	3
344.986	1	-9
345.157	1	-10
345.328	1	2
345.499	1	12
345.670	1	9
345.841	1	-8
346.012	1	3
346.183	1	2
346.354	1	0
346.526	1	4
346.697	1	0
346.868	1	-5
347.039	1	0
347.210	1	-2
347.381	1	1
347.552	1	-6
347.723	1	4
347.894	1	4
348.065	1	-16
348.236	1	7
348.407	1	-2
348.578	1	-9
348.749	1	-5
348.920	1	11
349.091	1	6
349.262	1	-3
349.433	1	0
349.604	1	3
349.775	1	3
349.946	1	3
350.117	1	7
350.288	1	-6
350.459	1	-3
350.630	1	-2
350.801	1	-5
350.972	1	3
351.143	1	16
351.314	1	-1
351.485	1	-1
351.656	1	3
351.827	1	0
351.998	1	1
352.169	1	-6
352.340	1	9
352.511	1	3
352.682	1	-4
352.853	1	5
353.024	1	0
353.195	1	-3
353.366	1	1
353.537	1	8
353.708	1	11
353.879	1	-2
354.050	1	0
354.221	1	9
354.392	1	2
354.563	1	6
354.734	1	4
354.905	1	1
355.076	1	-4
355.247	1	-2
355.418	1	-16
355.589	1	5
355.760	1	4
355.931	1	-7
356.102	1	3
356.273	1	1
356.444	1	-2
356.615	1	7
356.785	1	10
356.956	1	5
357.127	1	1
357.298	1	0
357.469	1	11
357.640	1	9
357.811	1	-3
357.982	1	8
358.153	1	5
358.324	1	5
358.495	1	-5
358.666	1	-1
358.837	1	6
359.008	1	9
359.179	1	-5
359.350	1	9
359.521	1	1
359.692	1	13
359.863	1	-1
360.034	1	8
360.205	1	12
360.376	1	3
360.547	1	1
360.718	1	-7
360.889	1	12
361.060	1	18
361.231	1	3
361.401	1	1
361.572	1	8
361.743	1	-3
361.914	1	11
362.085	1	8
362.256	1	8
362.427	1	12
362.598	1	9
362.769	1	7
362.940	1	13
363.111	1	0
363.282	1	11
363.453	1	14
363.624	1	-3
363.795	1	8
363.966	1	-1
364.137	1	5
364.308	1	2
364.478	1	8
364.649	1	4
364.820	1	8
364.991	1	11
365.162	1	11
365.333	1	11
365.504	1	4
365.675	1	2
365.846	1	5
366.017	1	15
366.188	1	13
366.359	1	8
366.530	1	11
366.701	1	9
366.871	1	10
367.042	1	19
367.213	1	16
367.384	1	8
367.555	1	10
367.726	1	7
367.897	1	19
368.068	1	10
368.239	1	12
368.410	1	4
368.581	1	6
368.752	1	5
368.923	1	9
369.093	1	16
369.264	1	12
369.435	1	1
369.606	1	10
369.777	1	13
369.948	1	19
370.119	1	4
370.290	1	17
370.461	1	22
370.632	1	10
370.803	1	8
370.973	1	7
371.144	1	19
371.315	1	0
371.486	1	16
371.657	1	9
371.828	1	7
371.999	1	2
372.170	1	0
372.341	1	14
372.512	1	2
372.682	1	14
372.853	1	12
373.024	1	17
373.195	1	9
373.366	1	17
373.537	1	9
373.708	1	19
373.879	1	10
374.050	1	10
374.220	1	4
374.391	1	0
374.562	1	8
374.733	1	11
374.904	1	0
375.075	1	11
375.246	1	22
375.417	1	-1
375.588	1	2
375.758	1	-1
375.929	1	21
376.100	1	12
376.271	1	16
376.442	1	16
376.613	1	5
376.784	1	7
376.955	1	13
377.125	1	7
377.296	1	-3
377.467	1	4
377.638	1	7
377.809	1	11
377.980	1	15
378.151	1	22
378.321	1	9
378.492	1	2
378.663	1	8
378.834	1	-3
379.005	1	5
379.176	1	2
379.347	1	20
379.518	1	20
379.688	1	12
379.859	1	-1
380.030	1	16
380.201	1	15
380.372	1	6
380.543	1	-4
380.714	1	14
380.884	1	4
381.055	1	1
381.226	1	11
381.397	1	11
381.568	1	0
381.739	1	10
381.910	1	4
382.080	1	14
382.251	1	17
382.422	1	253
382.593	1	54
382.764	1	13
382.935	1	3
383.105	1	21
383.276	1	12
383.447	1	5
383.618	1	11
383.789	1	5
383.960	1	-1
384.130	1	-6
384.301	1	10
384.472	1	3
384.643	1	-1
384.814	1	4
384.985	1	0
385.156	1	15
385.326	1	9
385.497	1	12
385.668	1	5
385.839	1	-3
386.010	1	7
386.180	1	2
386.351	1	-2
386.522	1	8
386.693	1	-8
386.864	1	-2
387.035	1	15
387.205	1	7
387.376	1	0
387.547	1	11
387.718	1	-1
387.889	1	2
388.060	1	7
388.230	1	16
388.401	1	21
388.572	1	9
388.743	1	12
388.914	1	6
389.084	1	10
389.255	1	9
389.426	1	4
389.597	1	14
389.768	1	11
389.939	1	-2
390.109	1	-3
390.280	1	2
390.451	1	11
390.622	1	10
390.793	1	4
390.963	1	15
391.134	1	13
391.305	1	9
391.476	1	-1
391.647	1	1
391.817	1	13
391.988	1	-2
392.159	1	3
392.330	1	-4
392.501	1	-9
392.671	1	-2
392.842	1	3
393.013	1	8
393.184	1	4
393.355	1	8
393.525	1	-1
393.696	1	5
393.867	1	4
394.038	1	6
394.208	1	11
394.379	1	10
394.550	1	-8
394.721	1	15
394.892	1	7
395.062	1	-13
395.233	1	6
395.404	1	4
395.575	1	7
395.746	1	13
395.916	1	1
396.087	1	13
396.258	1	8
396.429	1	13
396.599	1	6
396.770	1	-1
396.941	1	4
397.112	1	6
397.283	1	4
397.453	1	6
397.624	1	2
397.795	1	16
397.966	1	0
398.136	1	7
398.307	1	2
398.478	1	4
398.649	1	-3
398.819	1	5
398.990	1	2
399.161	1	2
399.332	1	11
399.503	1	1
399.673	1	17
399.844	1	4
400.015	1	5
400.186	1	7
400.356	1	13
400.527	1	-2
400.698	1	12
400.869	1	-7
401.039	1	9
401.210	1	6
401.381	1	2
401.552	1	9
401.722	1	1
401.893	1	8
402.064	1	1
402.235	1	-4
402.405	1	-2
402.576	1	-2
402.747	1	7
402.918	1	-5
403.088	1	-5
403.259	1	8
403.430	1	-7
403.601	1	-1
403.771	1	1
403.942	1	1
404.113	1	10
404.284	1	14
404.454	1	-1
404.625	1	2
404.796	1	-10
404.967	1	6
405.137	1	6
405.308	1	-2
405.479	1	-2
405.649	1	12
405.820	1	8
405.991	1	15
406.162	1	4
406.332	1	-7
406.503	1	7
406.674	1	5
406.845	1	2
407.015	1	1
407.186	1	12
407.357	1	5
407.527	1	0
407.698	1	-1
407.869	1	-4
408.040	1	4
408.210	1	8
408.381	1	9
408.552	1	4
408.722	1	7
408.893	1	5
409.064	1	3
409.235	1	14
409.405	1	-6
409.576	1	12
409.747	1	6
409.917	1	5
410.088	1	6
410.259	1	-1
410.430	1	13
410.600	1	0
410.771	1	9
410.942	1	5
411.112	1	-3
411.283	1	5
411.454	1	3
411.625	1	6
411.795	1	-5
411.966	1	-6
412.137	1	-9
412.307	1	-12
412.478	1	-5
412.649	1	1
412.819	1	3
412.990	1	2
413.161	1	6
413.332	1	6
413.502	1	1
413.673	1	12
413.844	1	-3
414.014	1	9
414.185	1	-4
414.356	1	-5
414.526	1	0
414.697	1	9
414.868	1	-2
415.038	1	4
415.209	1	4
415.380	1	1
415.550	1	-4
415.721	1	8
415.892	1	-10
416.063	1	-3
416.233	1	11
416.404	1	0
416.575	1	12
416.745	1	8
416.916	1	13
417.087	1	0
417.257	1	-5
417.428	1	4
417.599	1	-2
417.769	1	7
417.940	1	-2
418.111	1	9
418.281	1	12
418.452	1	7
418.623	1	2
418.793	1	8
418.964	1	-2
419.135	1	-4
419.305	1	-5
419.476	1	-15
419.647	1	10
419.817	1	-10
419.988	1	8
420.159	1	22
420.329	1	1
420.500	1	-4
420.671	1	10
420.841	1	2
421.012	1	4
421.183	1	5
421.353	1	-9
421.524	1	-3
421.695	1	1
421.865	1	23
422.036	1	0
422.206	1	1
422.377	1	-9
422.548	1	-2
422.718	1	1
422.889	1	13
423.060	1	5
423.230	1	10
423.401	1	-4
423.572	1	9
423.742	1	2
423.913	1	0
424.084	1	-6
424.254	1	3
424.425	1	11
424.595	1	-3
424.766	1	-1
424.937	1	1
425.107	1	-2
425.278	1	1
425.449	1	0
425.619	1	15
425.790	1	8
425.961	1	-1
426.131	1	4
426.302	1	-5
426.472	1	0
426.643	1	0
426.814	1	6
426.984	1	12
427.155	1	9
427.326	1	10
427.496	1	6
427.667	1	6
427.837	1	6
428.008	1	3
428.179	1	12
428.349	1	-1
428.520	1	-3
428.691	1	6
428.861	1	-7
429.032	1	3
429.202	1	-1
429.373	1	-5
429.544	1	2
429.714	1	12
429.885	1	-5
430.055	1	3
430.226	1	11
430.397	1	16
430.567	1	-10
430.738	1	4
430.909	1	-2
431.079	1	10
431.250	1	1
431.420	1	16
431.591	1	7
431.762	1	-5
431.932	1	-3
432.103	1	-1
432.273	1	14
432.444	1	5
432.615	1	5
432.785	1	3
432.956	1	3
433.126	1	3
433.297	1	-4
433.468	1	6
433.638	1	-1
433.809	1	9
433.979	1	-6
434.150	1	10
434.320	1	2
434.491	1	-4
434.662	1	5
434.832	1	2
435.003	1	-2
435.173	1	2
435.344	1	2
435.515	1	5
435.685	1	1
435.856	1	-4
436.026	1	14
436.197	1	3
436.368	1	4
436.538	1	5
436.709	1	3
436.879	1	1
437.050	1	4
437.220	1	-2
437.391	1	13
437.562	1	18
437.732	1	15
437.903	1	-3
438.073	1	-3
438.244	1	-5
438.414	1	7
438.585	1	5
438.756	1	1
438.926	1	-13
439.097	1	-3
439.267	1	8
439.438	1	14
439.608	1	4
439.779	1	8
439.949	1	14
440.120	1	5
440.291	1	-3
440.461	1	0
440.632	1	9
440.802	1	-1
440.973	1	11
441.143	1	17
441.314	1	5
441.485	1	8
441.655	1	3
441.826	1	-3
441.996	1	2
442.167	1	-4
442.337	1	-7
442.508	1	-3
442.678	1	3
442.849	1	-1
443.019	1	9
443.190	1	-2
443.361	1	7
443.531	1	-5
443.702	1	-3
443.872	1	-2
444.043	1	6
444.213	1	-2
444.384	1	2
444.554	1	5
444.725	1	5
444.895	1	10
445.066	1	9
445.237	1	-5
445.407	1	-4
445.578	1	-4
445.748	1	14
445.919	1	0
446.089	1	10
446.260	1	5
446.430	1	9
446.601	1	-7
446.771	1	-9
446.942	1	-5
447.112	1	8
447.283	1	11
447.453	1	-2
447.624	1	4
447.794	1	11
447.965	1	2
448.135	1	-8
448.306	1	8
448.477	1	0
448.647	1	5
448.818	1	-4
448.988	1	5
449.159	1	10
449.329	1	15
449.500	1	0
449.670	1	3
449.841	1	-9
450.011	1	13
450.182	1	0
450.352	1	2
450.523	1	0
450.693	1	5
450.864	1	-6
451.034	1	9
451.205	1	-14
451.375	1	1
451.546	1	-13
451.716	1	9
451.887	1	-4
452.057	1	5
452.228	1	4
452.398	1	15
452.569	1	2
452.739	1	-2
452.910	1	-7
453.080	1	13
453.251	1	-2
453.421	1	-5
453.592	1	5
453.762	1	-2
453.933	1	-6
454.103	1	3
454.274	1	3
454.444	1	2
454.615	1	0
454.785	1	-6
454.956	1	2
455.126	1	13
455.297	1	2
455.467	1	3
455.638	1	4
455.808	1	-3
455.979	1	2
456.149	1	-3
456.320	1	8
456.490	1	1
456.661	1	7
456.831	1	7
457.001	1	5
457.172	1	-4
457.342	1	-1
457.513	1	3
457.683	1	0
457.854	1	3
458.024	1	-5
458.195	1	0
458.365	1	-5
458.536	1	-3
458.706	1	5
458.877	1	3
459.047	1	0
459.218	1	6
459.388	1	-6
459.559	1	6
459.729	1	-1
459.899	1	0
460.070	1	3
460.240	1	2
460.411	1	-5
460.581	1	-2
460.752	1	3
460.922	1	-3
461.093	1	-12
461.263	1	2
461.434	1	-5
461.604	1	6
461.775	1	4
461.945	1	-4
462.115	1	12
462.286	1	1
462.456	1	0
462.627	1	-6
462.797	1	6
462.968	1	-8
463.138	1	5
463.309	1	8
463.479	1	-1
463.649	1	7
463.820	1	3
463.990	1	14
464.161	1	-2
464.331	1	-2
464.502	1	2
464.672	1	11
464.843	1	5
465.013	1	0
465.183	1	0
465.354	1	-7
465.524	1	1
465.695	1	-5
465.865	1	-6
466.036	1	0
466.206	1	-3
466.376	1	2
466.547	1	0
466.717	1	3
466.888	1	0
467.058	1	3
467.229	1	5
467.399	1	1
467.569	1	-8
467.740	1	3
467.910	1	1
468.081	1	1
468.251	1	5
468.422	1	7
468.592	1	13
468.762	1	-8
468.933	1	0
469.103	1	-5
469.274	1	-8
469.444	1	10
469.614	1	-2
469.785	1	9
469.955	1	7
470.126	1	9
470.296	1	11
470.467	1	-4
470.637	1	-15
470.807	1	3
470.978	1	4
471.148	1	-2
471.319	1	3
471.489	1	6
471.659	1	16
471.830	1	10
472.000	1	-10
472.171	1	-1
472.341	1	-3
472.511	1	12
472.682	1	-14
472.852	1	1
473.023	1	0
473.193	1	11
473.363	1	9
473.534	1	0
473.704	1	10
473.875	1	3
474.045	1	-3
474.215	1	3
474.386	1	0
474.556	1	10
474.727	1	1
474.897	1	9
475.067	1	5
475.238	1	4
475.408	1	2
475.578	1	4
475.749	1	0
475.919	1	10
476.090	1	0
476.260	1	15
476.430	1	-5
476.601	1	13
476.771	1	6
476.942	1	2
477.112	1	0
477.282	1	0
477.453	1	-4
477.623	1	-3
477.793	1	1
477.964	1	3
478.134	1	1
478.305	1	1
478.475	1	11
478.645	1	1
478.816	1	14
478.986	1	-12
479.156	1	-1
479.327	1	3
479.497	1	5
479.667	1	-12
479.838	1	-3
480.008	1	-10
480.179	1	6
480.349	1	5
480.519	1	0
480.690	1	1
480.860	1	2
481.030	1	3
481.201	1	5
481.371	1	-7
481.541	1	6
481.712	1	3
481.882	1	4
482.053	1	-6
482.223	1	0
482.393	1	-7
482.564	1	2
482.734	1	11
482.904	1	0
483.075	1	10
483.245	1	1
483.415	1	5
483.586	1	10
483.756	1	6
483.926	1	-2
484.097	1	0
484.267	1	10
484.437	1	-2
484.608	1	-6
484.778	1	13
484.948	1	7
485.119	1	-9
485.289	1	-2
485.459	1	-3
485.630	1	9
485.800	1	-6
485.970	1	5
486.141	1	1
486.311	1	-12
486.481	1	6
486.652	1	4
486.822	1	-1
486.992	1	-4
487.163	1	5
487.333	1	6
487.503	1	1
487.674	1	2
487.844	1	-1
488.014	1	3
488.185	1	-1
488.355	1	0
488.525	1	2
488.696	1	3
488.866	1	-7
489.036	1	2
489.207	1	6
489.377	1	6
489.547	1	5
489.718	1	-5
489.888	1	11
490.058	1	3
490.228	1	-6
490.399	1	-2
490.569	1	3
490.739	1	7
490.910	1	7
491.080	1	17
491.250	1	10
491.421	1	-3
491.591	1	-2
491.761	1	-6
491.932	1	3
492.102	1	1
492.272	1	-16
492.442	1	0
492.613	1	12
492.783	1	-6
492.953	1	-2
493.124	1	8
493.294	1	6
493.464	1	3
493.635	1	4
493.805	1	-1
493.975	1	4
494.145	1	8
494.316	1	4
494.486	1	12
494.656	1	1
494.827	1	3
494.997	1	2
495.167	1	2
495.337	1	-2
495.508	1	17
495.678	1	8
495.848	1	-11
496.019	1	3
496.189	1	0
496.359	1	-7
496.529	1	7
496.700	1	7
496.870	1	-10
497.040	1	9
497.211	1	7
497.381	1	2
497.551	1	5
497.721	1	-1
497.892	1	1
498.062	1	2
498.232	1	-1
498.403	1	8
498.573	1	22
498.743	1	10
498.913	1	-3
499.084	1	0
499.254	1	-7
499.424	1	-5
499.594	1	6
499.765	1	-2
499.935	1	1
500.105	1	-3
500.275	1	-2
500.446	1	0
500.616	1	6
500.786	1	-3
500.956	1	11
501.127	1	1
501.297	1	-2
501.467	1	2
501.638	1	1
501.808	1	11
501.978	1	0
502.148	1	4
502.319	1	8
502.489	1	7
502.659	1	1
502.829	1	5
503.000	1	11
503.170	1	7
503.340	1	5
503.510	1	8
503.681	1	0
503.851	1	-9
504.021	1	-5
504.191	1	4
504.362	1	-1
504.532	1	-8
504.702	1	9
504.872	1	13
505.042	1	2
505.213	1	4
505.383	1	10
505.553	1	3
505.723	1	8
505.894	1	3
506.064	1	2
506.234	1	-4
506.404	1	9
506.575	1	-13
506.745	1	7
506.915	1	-13
507.085	1	3
507.256	1	9
507.426	1	5
507.596	1	-1
507.766	1	1
507.936	1	2
508.107	1	1
508.277	1	7
508.447	1	5
508.617	1	-8
508.788	1	-8
508.958	1	5
509.128	1	-9
509.298	1	-4
509.468	1	13
509.639	1	-1
509.809	1	-13
509.979	1	10
510.149	1	2
510.319	1	3
510.490	1	-10
510.660	1	4
510.830	1	-6
511.000	1	0
511.171	1	8
511.341	1	2
511.511	1	2
511.681	1	-9
511.851	1	2
512.022	1	4
512.192	1	9
512.362	1	4
512.532	1	0
512.702	1	4
512.873	1	-2
513.043	1	-1
513.213	1	4
513.383	1	-1
513.553	1	6
513.724	1	8
513.894	1	15
514.064	1	7
514.234	1	5
514.404	1	-3
514.575	1	-1
514.745	1	-2
514.915	1	-9
515.085	1	2
515.255	1	-8
515.425	1	2
515.596	1	5
515.766	1	1
515.936	1	2
516.106	1	4
516.276	1	13
516.447	1	-4
516.617	1	0
516.787	1	-4
516.957	1	-2
517.127	1	6
517.297	1	-3
517.468	1	-3
517.638	1	3
517.808	1	-4
517.978	1	-7
518.148	1	6
518.319	1	-2
518.489	1	6
518.659	1	-5
518.829	1	4
518.999	1	2
519.169	1	-11
519.340	1	-6
519.510	1	-1
519.680	1	1
519.850	1	8
520.020	1	2
520.190	1	-7
520.361	1	-2
520.531	1	15
520.701	1	6
520.871	1	2
521.041	1	-2
521.211	1	-11
521.382	1	10
521.552	1	-2
521.722	1	-6
521.892	1	9
522.062	1	0
522.232	1	6
522.402	1	6
522.573	1	3
522.743	1	6
522.913	1	-1
523.083	1	12
523.253	1	2
523.423	1	6
523.593	1	-1
523.764	1	-3
523.934	1	12
524.104	1	-1
524.274	1	-2
524.444	1	0
524.614	1	7
524.784	1	-14
524.955	1	-1
525.125	1	-8
525.295	1	-3
525.465	1	-5
525.635	1	1
525.805	1	12
525.975	1	-6
526.146	1	7
526.316	1	6
526.486	1	-3
526.656	1	-8
526.826	1	-3
526.996	1	5
527.166	1	11
527.337	1	7
527.507	1	3
527.677	1	-1
527.847	1	-10
528.017	1	3
528.187	1	2
528.357	1	-2
528.527	1	0
528.698	1	-7
528.868	1	1
529.038	1	0
529.208	1	-3
529.378	1	10
529.548	1	1
529.718	1	-6
529.888	1	3
530.058	1	-2
530.229	1	-5
530.399	1	-2
530.569	1	13
530.739	1	4
530.909	1	-7
531.079	1	0
531.249	1	8
531.419	1	-1
531.589	1	2
531.760	1	7
531.930	1	-12
532.100	1	10
532.270	1	9
532.440	1	13
532.610	1	4
532.780	1	-5
532.950	1	4
533.120	1	7
533.290	1	-13
533.461	1	-4
533.631	1	0
533.801	1	7
533.971	1	2
534.141	1	8
534.311	1	1
534.481	1	6
534.651	1	-1
534.821	1	5
534.991	1	6
535.162	1	-4
535.332	1	-5
535.502	1	0
535.672	1	6
535.842	1	3
536.012	1	12
536.182	1	4
536.352	1	-3
536.522	1	-3
536.692	1	1
536.862	1	-3
537.032	1	-1
537.203	1	5
537.373	1	-7
537.543	1	15
537.713	1	4
537.883	1	2
538.053	1	12
538.223	1	1
538.393	1	3
538.563	1	-7
538.733	1	-5
538.903	1	-3
539.073	1	7
539.243	1	-7
539.413	1	10
539.584	1	-5
539.754	1	-9
539.924	1	-4
540.094	1	7
540.264	1	0
540.434	1	-8
540.604	1	-7
540.774	1	9
540.944	1	8
541.114	1	3
541.284	1	5
541.454	1	4
541.624	1	12
541.794	1	-5
541.964	1	7
542.134	1	5
542.305	1	1
542.475	1	-2
542.645	1	1
542.815	1	3
542.985	1	9
543.155	1	4
543.325	1	5
543.495	1	0
543.665	1	-9
543.835	1	7
544.005	1	7
544.175	1	4
544.345	1	7
544.515	1	-6
544.685	1	0
544.855	1	-1
545.025	1	7
545.195	1	0
545.365	1	4
545.535	1	-7
545.705	1	-1
545.875	1	3
546.045	1	3
546.216	1	4
546.386	1	7
546.556	1	13
546.726	1	-3
546.896	1	10
547.066	1	6
547.236	1	4
547.406	1	14
547.576	1	5
547.746	1	-2
547.916	1	-4
548.086	1	1
548.256	1	2
548.426	1	10
548.596	1	-1
548.766	1	5
548.936	1	8
549.106	1	0
549.276	1	-3
549.446	1	12
549.616	1	-3
549.786	1	-4
549.956	1	8
550.126	1	-6
550.296	1	10
550.466	1	-6
550.636	1	6
550.806	1	5
550.976	1	8
551.146	1	-6
551.316	1	2
551.486	1	8
551.656	1	5
551.826	1	8
551.996	1	3
552.166	1	-6
552.336	1	7
552.506	1	2
552.676	1	9
552.846	1	-5
553.016	1	14
553.186	1	-1
553.356	1	-2
553.526	1	-9
553.696	1	8
553.866	1	8
554.036	1	12
554.206	1	-2
554.376	1	6
554.546	1	-1
554.716	1	4
554.886	1	1
555.056	1	5
555.226	1	-2
555.396	1	7
555.566	1	3
555.736	1	-4
555.906	1	-1
556.076	1	7
556.246	1	12
556.416	1	2
556.586	1	-3
556.756	1	-3
556.926	1	-1
557.096	1	-8
557.266	1	7
557.436	1	11
557.606	1	0
557.776	1	14
557.946	1	1
558.116	1	17
558.286	1	4
558.456	1	2
558.626	1	-2
558.796	1	10
558.966	1	-2
559.136	1	3
559.306	1	9
559.476	1	-4
559.646	1	2
559.816	1	-7
559.986	1	1
560.155	1	6
560.325	1	-3
560.495	1	8
560.665	1	2
560.835	1	2
561.005	1	-1
561.175	1	0
561.345	1	2
561.515	1	-2
561.685	1	1
561.855	1	3
562.025	1	-3
562.195	1	4
562.365	1	2
562.535	1	6
562.705	1	8
562.875	1	0
563.045	1	6
563.215	1	14
563.385	1	3
563.555	1	2
563.725	1	-4
563.895	1	5
564.064	1	-3
564.234	1	-5
564.404	1	-3
564.574	1	7
564.744	1	-11
564.914	1	-7
565.084	1	4
565.254	1	11
565.424	1	-4
565.594	1	6
565.764	1	-2
565.934	1	-6
566.104	1	-6
566.274	1	10
566.444	1	13
566.614	1	-7
566.783	1	7
566.953	1	-3
567.123	1	0
567.293	1	-5
567.463	1	-8
567.633	1	4
567.803	1	4
567.973	1	4
568.143	1	8
568.313	1	14
568.483	1	4
568.653	1	13
568.823	1	-1
568.993	1	7
569.162	1	3
569.332	1	5
569.502	1	0
569.672	1	8
569.842	1	-6
570.012	1	0
570.182	1	8
570.352	1	15
570.522	1	11
570.692	1	9
570.862	1	-7
571.031	1	-9
571.201	1	4
571.371	1	-5
571.541	1	9
571.711	1	6
571.881	1	10
572.051	1	-8
572.221	1	-5
572.391	1	5
572.561	1	-3
572.731	1	1
572.900	1	9
573.070	1	0
573.240	1	7
573.410	1	-4
573.580	1	3
573.750	1	6
573.920	1	3
574.090	1	11
574.260	1	-3
574.430	1	-2
574.599	1	7
574.769	1	6
574.939	1	-7
575.109	1	3
575.279	1	1
575.449	1	1
575.619	1	1
575.789	1	8
575.959	1	11
576.128	1	3
576.298	1	3
576.468	1	1
576.638	1	7
576.808	1	-6
576.978	1	11
577.148	1	-2
577.318	1	6
577.487	1	-4
577.657	1	-1
577.827	1	-2
577.997	1	-4
578.167	1	0
578.337	1	6
578.507	1	-4
578.677	1	0
578.846	1	-3
579.016	1	6
579.186	1	-8
579.356	1	9
579.526	1	4
579.696	1	-7
579.866	1	4
580.036	1	2
580.205	1	-5
580.375	1	17
580.545	1	-3
580.715	1	8
580.885	1	5
581.055	1	7
581.225	1	3
581.394	1	-6
581.564	1	-2
581.734	1	-1
581.904	1	2
582.074	1	-3
582.244	1	1
582.414	1	9
582.583	1	1
582.753	1	-6
582.923	1	1
583.093	1	10
583.263	1	-10
583.433	1	-6
583.603	1	12
583.772	1	-1
583.942	1	-5
584.112	1	-2
584.282	1	3
584.452	1	4
584.622	1	-1
584.791	1	7
584.961	1	-6
585.131	1	-2
585.301	1	10
585.471	1	-4
585.641	1	2
585.811	1	-4
585.980	1	-11
586.150	1	6
586.320	1	6
586.490	1	1
586.660	1	-7
586.830	1	9
586.999	1	4
587.169	1	2
587.339	1	2
587.509	1	5
587.679	1	-2
587.849	1	14
588.018	1	3
588.188	1	12
588.358	1	10
588.528	1	2
588.698	1	4
588.867	1	3
589.037	1	4
589.207	1	2
589.377	1	2
589.547	1	0
589.717	1	-5
589.886	1	8
590.056	1	6
590.226	1	8
590.396	1	11
590.566	1	9
590.735	1	9
590.905	1	-2
591.075	1	3
591.245	1	3
591.415	1	8
591.585	1	-4
591.754	1	0
591.924	1	-4
592.094	1	5
592.264	1	-3
592.434	1	5
592.603	1	-9
592.773	1	11
592.943	1	1
593.113	1	17
593.283	1	3
593.452	1	1
593.622	1	6
593.792	1	9
593.962	1	0
594.132	1	15
594.301	1	-5
594.471	1	4
594.641	1	-3
594.811	1	4
594.981	1	-3
595.150	1	4
595.320	1	4
595.490	1	0
595.660	1	-3
595.829	1	-6
595.999	1	-12
596.169	1	-15
596.339	1	11
596.509	1	8
596.678	1	13
596.848	1	8
597.018	1	-2
597.188	1	12
597.358	1	8
597.527	1	10
597.697	1	-1
597.867	1	1
598.037	1	1
598.206	1	2
598.376	1	-4
598.546	1	1
598.716	1	6
598.885	1	4
599.055	1	-2
599.225	1	-1
599.395	1	9
599.565	1	-7
599.734	1	6
599.904	1	-2
600.074	1	2
600.244	1	2
600.413	1	2
600.583	1	15
600.753	1	7
600.923	1	4
601.092	1	-1
601.262	1	7
601.432	1	-7
601.602	1	15
601.771	1	-1
601.941	1	9
602.111	1	3
602.281	1	11
602.451	1	10
602.620	1	-2
602.790	1	-2
602.960	1	5
603.130	1	3
603.299	1	5
603.469	1	-1
603.639	1	-17
603.809	1	1
603.978	1	4
604.148	1	-1
604.318	1	6
604.487	1	10
604.657	1	15
604.827	1	4
604.997	1	1
605.166	1	15
605.336	1	1
605.506	1	0
605.676	1	5
605.845	1	5
606.015	1	13
606.185	1	3
606.355	1	1
606.524	1	4
606.694	1	8
606.864	1	-14
607.034	1	14
607.203	1	5
607.373	1	4
607.543	1	-1
607.712	1	3
607.882	1	14
608.052	1	6
608.222	1	7
608.391	1	12
608.561	1	9
608.731	1	8
608.901	1	5
609.070	1	5
609.240	1	-6
609.410	1	10
609.579	1	-2
609.749	1	-6
609.919	1	12
610.089	1	1
610.258	1	8
610.428	1	8
610.598	1	5
610.767	1	-6
610.937	1	4
611.107	1	-3
611.277	1	-3
611.446	1	5
611.616	1	3
611.786	1	10
611.955	1	-19
612.125	1	1
612.295	1	10
612.465	1	4
612.634	1	5
612.804	1	1
612.974	1	6
613.143	1	5
613.313	1	2
613.483	1	-5
613.652	1	6
613.822	1	-2
613.992	1	4
614.162	1	-2
614.331	1	-5
614.501	1	6
614.671	1	4
614.840	1	14
615.010	1	12
615.180	1	3
615.349	1	3
615.519	1	2
615.689	1	2
615.858	1	6
616.028	1	-5
616.198	1	5
616.368	1	6
616.537	1	-2
616.707	1	3
616.877	1	0
617.046	1	3
617.216	1	-5
617.386	1	-2
617.555	1	11
617.725	1	-2
617.895	1	15
618.064	1	2
618.234	1	0
618.404	1	10
618.573	1	9
618.743	1	-1
618.913	1	2
619.082	1	6
619.252	1	7
619.422	1	13
619.591	1	9
619.761	1	7
619.931	1	-10
620.100	1	3
620.270	1	-1
620.440	1	4
620.609	1	5
620.779	1	-4
620.949	1	2
621.118	1	-2
621.288	1	-1
621.458	1	5
621.627	1	7
621.797	1	7
621.967	1	4
622.136	1	-2
622.306	1	2
622.476	1	8
622.645	1	2
622.815	1	-3
622.985	1	-5
623.154	1	0
623.324	1	3
623.494	1	0
623.663	1	7
623.833	1	5
624.002	1	-6
624.172	1	4
624.342	1	-9
624.511	1	6
624.681	1	2
624.851	1	4
625.020	1	4
625.190	1	1
625.360	1	3
625.529	1	1
625.699	1	13
625.869	1	1
626.038	1	-5
626.208	1	4
626.377	1	12
626.547	1	0
626.717	1	3
626.886	1	3
627.056	1	-2
627.226	1	7
627.395	1	0
627.565	1	3
627.735	1	0
627.904	1	0
628.074	1	-6
628.243	1	2
628.413	1	2
628.583	1	13
628.752	1	1
628.922	1	6
629.091	1	-2
629.261	1	-9
629.431	1	1
629.600	1	-1
629.770	1	-3
629.940	1	2
630.109	1	8
630.279	1	1
630.448	1	6
630.618	1	-2
630.788	1	16
630.957	1	6
631.127	1	12
631.297	1	-7
631.466	1	-7
631.636	1	13
631.805	1	4
631.975	1	11
632.145	1	-7
632.314	1	-2
632.484	1	5
632.653	1	-6
632.823	1	5
632.993	1	6
633.162	1	11
633.332	1	6
633.501	1	7
633.671	1	6
633.841	1	5
634.010	1	-5
634.180	1	1
634.349	1	-5
634.519	1	5
634.689	1	6
634.858	1	11
635.028	1	-2
635.197	1	3
635.367	1	8
635.537	1	14
635.706	1	2
635.876	1	-2
636.045	1	6
636.215	1	4
636.384	1	7
636.554	1	9
636.724	1	6
636.893	1	3
637.063	1	0
637.232	1	-2
637.402	1	-5
637.572	1	0
637.741	1	5
637.911	1	-8
638.080	1	0
638.250	1	-1
638.419	1	11
638.589	1	-7
638.759	1	-4
638.928	1	3
639.098	1	15
639.267	1	-2
639.437	1	-7
639.606	1	2
639.776	1	-3
639.946	1	-2
640.115	1	-8
640.285	1	-3
640.454	1	1
640.624	1	0
640.793	1	1
640.963	1	1
641.132	1	-8
641.302	1	6
641.472	1	-5
641.641	1	1
641.811	1	0
641.980	1	-4
642.150	1	-3
642.319	1	5
642.489	1	-8
642.659	1	2
642.828	1	-3
642.998	1	-6
643.167	1	0
643.337	1	4
643.506	1	1
643.676	1	8
643.845	1	0
644.015	1	-6
644.184	1	3
644.354	1	7
644.524	1	3
644.693	1	4
644.863	1	-4
645.032	1	3
645.202	1	-6
645.371	1	8
645.541	1	-7
645.710	1	0
645.880	1	-2
646.049	1	-10
646.219	1	6
646.388	1	3
646.558	1	7
646.728	1	-2
646.897	1	21
647.067	1	2
647.236	1	5
647.406	1	1
647.575	1	-5
647.745	1	-3
647.914	1	-2
648.084	1	-1
648.253	1	-6
648.423	1	2
648.592	1	0
648.762	1	12
648.931	1	5
649.101	1	1
649.270	1	5
649.440	1	6
649.610	1	-2
649.779	1	10
649.949	1	-1
650.118	1	-4
650.288	1	-7
650.457	1	-2
650.627	1	10
650.796	1	0
650.966	1	-5
651.135	1	-6
651.305	1	0
651.474	1	7
651.644	1	13
651.813	1	1
651.983	1	-4
652.152	1	4
652.322	1	12
652.491	1	3
652.661	1	-6
652.830	1	3
653.000	1	3
653.169	1	8
653.339	1	2
653.508	1	-3
653.678	1	2
653.847	1	-4
654.017	1	1
654.186	1	6
654.356	1	1
654.525	1	4
654.695	1	7
654.864	1	-1
655.034	1	-1
655.203	1	11
655.373	1	8
655.542	1	3
655.712	1	-5
655.881	1	10
656.051	1	-5
656.220	1	7
656.390	1	14
656.559	1	-3
656.729	1	1
656.898	1	1
657.068	1	6
657.237	1	0
657.406	1	-2
657.576	1	-1
657.745	1	3
657.915	1	6
658.084	1	-4
658.254	1	-4
658.423	1	2
658.593	1	7
658.762	1	7
658.932	1	8
659.101	1	-2
659.271	1	0
659.440	1	7
659.610	1	0
659.779	1	5
659.949	1	1
660.118	1	1
660.288	1	0
660.457	1	1
660.626	1	-1
660.796	1	-1
660.965	1	-1
661.135	1	13
661.304	1	5
661.474	1	5
661.643	1	-8
661.813	1	-7
661.982	1	6
662.152	1	-2
662.321	1	5
662.491	1	9
662.660	1	1
662.829	1	0
662.999	1	3
663.168	1	-7
663.338	1	-4
663.507	1	6
663.677	1	-9
663.846	1	-10
664.016	1	11
664.185	1	3
664.354	1	-4
664.524	1	0
664.693	1	7
664.863	1	11
665.032	1	-1
665.202	1	5
665.371	1	-9
665.541	1	1
665.710	1	0
665.879	1	3
666.049	1	0
666.218	1	-9
666.388	1	5
666.557	1	2
666.727	1	-7
666.896	1	-1
667.065	1	5
667.235	1	10
667.404	1	5
667.574	1	-9
667.743	1	5
667.913	1	1
668.082	1	12
668.251	1	19
668.421	1	12
668.590	1	-5
668.760	1	-1
668.929	1	1
669.099	1	-5
669.268	1	6
669.437	1	9
669.607	1	0
669.776	1	11
669.946	1	1
670.115	1	6
670.285	1	7
670.454	1	7
670.623	1	-1
670.793	1	1
670.962	1	-1
671.132	1	6
671.301	1	-3
671.470	1	-2
671.640	1	3
671.809	1	-8
671.979	1	11
672.148	1	7
672.317	1	-2
672.487	1	15
672.656	1	3
672.826	1	-12
672.995	1	3
673.164	1	1
673.334	1	-7
673.503	1	14
673.673	1	-4
673.842	1	3
674.011	1	11
674.181	1	3
674.350	1	6
674.520	1	-7
674.689	1	13
674.858	1	6
675.028	1	6
675.197	1	-4
675.367	1	-3
675.536	1	-2
675.705	1	-1
675.875	1	-4
676.044	1	11
676.214	1	0
676.383	1	19
676.552	1	5
676.722	1	5
676.891	1	2
677.060	1	11
677.230	1	-9
677.399	1	0
677.569	1	-8
677.738	1	0
677.907	1	11
678.077	1	11
678.246	1	6
678.416	1	1
678.585	1	-2
678.754	1	4
678.924	1	8
679.093	1	1
679.262	1	2
679.432	1	3
679.601	1	2
679.771	1	8
679.940	1	7
680.109	1	-1
680.279	1	-4
680.448	1	-2
680.617	1	-2
680.787	1	6
680.956	1	-8
681.125	1	4
681.295	1	5
681.464	1	0
681.634	1	7
681.803	1	7
681.972	1	0
682.142	1	-1
682.311	1	1
682.480	1	-8
682.650	1	-1
682.819	1	-5
682.988	1	6
683.158	1	-7
683.327	1	7
683.496	1	2
683.666	1	-2
683.835	1	-4
684.004	1	6
684.174	1	-1
684.343	1	13
684.512	1	-2
684.682	1	-4
684.851	1	5
685.021	1	0
685.190	1	2
685.359	1	5
685.529	1	2
685.698	1	-3
685.867	1	7
686.037	1	3
686.206	1	3
686.375	1	-1
686.545	1	-1
686.714	1	-5
686.883	1	-10
687.053	1	2
687.222	1	6
687.391	1	-4
687.561	1	8
687.730	1	-1
687.899	1	0
688.069	1	-5
688.238	1	4
688.407	1	5
688.577	1	4
688.746	1	-5
