340.368	1	-5
340.539	1	15
340.710	1	3
340.881	1	4
341.052	1	7
341.223	1	-3
341.394	1	-9
341.565	1	0
341.737	1	-5
341.908	1	4
342.079	1	4
342.250	1	-6
342.421	1	-10
342.592	1	0
342.763	1	-6
342.934	1	5
343.105	1	-3
343.276	1	-12
343.447	1	6
343.618	1	-11
343.789	1	-3
343.960	1	-14
344.131	1	-1
344.302	1	2
344.473	1	0
344.644	1	3
344.815	1	1
344.986	1	-11
345.157	1	-6
345.328	1	-2
345.499	1	15
345.670	1	-1
345.841	1	9
346.012	1	5
346.183	1	6
346.354	1	-3
346.526	1	1
346.697	1	-1
346.868	1	-1
347.039	1	2
347.210	1	-10
347.381	1	2
347.552	1	-6
347.723	1	1
347.894	1	13
348.065	1	-3
348.236	1	1
348.407	1	-4
348.578	1	-5
348.749	1	1
348.920	1	-3
349.091	1	7
349.262	1	-9
349.433	1	8
349.604	1	0
349.775	1	-5
349.946	1	0
350.117	1	3
350.288	1	-5
350.459	1	-3
350.630	1	-2
350.801	1	-4
350.972	1	1
351.143	1	8
351.314	1	-1
351.485	1	1
351.656	1	2
351.827	1	7
351.998	1	-1
352.169	1	0
352.340	1	8
352.511	1	4
352.682	1	-1
352.853	1	3
353.024	1	-5
353.195	1	-4
353.366	1	0
353.537	1	2
353.708	1	0
353.879	1	9
354.050	1	11
354.221	1	0
354.392	1	-3
354.563	1	0
354.734	1	-7
354.905	1	-2
355.076	1	5
355.247	1	-6
355.418	1	1
355.589	1	-1
355.760	1	-1
355.931	1	-6
356.102	1	2
356.273	1	-5
356.444	1	-9
356.615	1	2
356.785	1	0
356.956	1	1
357.127	1	5
357.298	1	0
357.469	1	3
357.640	1	12
357.811	1	-1
357.982	1	2
358.153	1	-3
358.324	1	2
358.495	1	-2
358.666	1	-4
358.837	1	-5
359.008	1	7
359.179	1	-2
359.350	1	-2
359.521	1	1
359.692	1	10
359.863	1	-5
360.034	1	1
360.205	1	9
360.376	1	7
360.547	1	-4
360.718	1	3
360.889	1	13
361.060	1	6
361.231	1	-7
361.401	1	3
361.572	1	4
361.743	1	-8
361.914	1	4
362.085	1	1
362.256	1	2
362.427	1	-4
362.598	1	-2
362.769	1	3
362.940	1	2
363.111	1	-2
363.282	1	2
363.453	1	1
363.624	1	-10
363.795	1	1
363.966	1	-5
364.137	1	-1
364.308	1	7
364.478	1	9
364.649	1	0
364.820	1	10
364.991	1	15
365.162	1	2
365.333	1	-3
365.504	1	-2
365.675	1	1
365.846	1	4
366.017	1	0
366.188	1	7
366.359	1	2
366.530	1	0
366.701	1	2
366.871	1	2
367.042	1	6
367.213	1	6
367.384	1	2
367.555	1	9
367.726	1	2
367.897	1	14
368.068	1	3
368.239	1	-1
368.410	1	-5
368.581	1	1
368.752	1	4
368.923	1	5
369.093	1	-1
369.264	1	2
369.435	1	0
369.606	1	-5
369.777	1	-7
369.948	1	10
370.119	1	3
370.290	1	7
370.461	1	17
370.632	1	4
370.803	1	-5
370.973	1	3
371.144	1	17
371.315	1	5
371.486	1	7
371.657	1	-2
371.828	1	-10
371.999	1	-1
372.170	1	2
372.341	1	4
372.512	1	-7
372.682	1	8
372.853	1	7
373.024	1	5
373.195	1	-3
373.366	1	2
373.537	1	1
373.708	1	8
373.879	1	5
374.050	1	-8
374.220	1	4
374.391	1	3
374.562	1	-1
374.733	1	-5
374.904	1	4
375.075	1	4
375.246	1	5
375.417	1	-4
375.588	1	2
375.758	1	-12
375.929	1	1
376.100	1	5
376.271	1	2
376.442	1	4
376.613	1	-1
376.784	1	-1
376.955	1	1
377.125	1	-4
377.296	1	-4
377.467	1	-9
377.638	1	7
377.809	1	1
377.980	1	-3
378.151	1	12
378.321	1	-1
378.492	1	-4
378.663	1	-1
378.834	1	-10
379.005	1	4
379.176	1	-3
379.347	1	5
379.518	1	10
379.688	1	-2
379.859	1	-14
380.030	1	7
380.201	1	4
380.372	1	-7
380.543	1	-8
380.714	1	7
380.884	1	4
381.055	1	-3
381.226	1	-3
381.397	1	-4
381.568	1	-6
381.739	1	2
381.910	1	4
382.080	1	-1
382.251	1	-2
382.422	1	-3
382.593	1	2
382.764	1	-3
382.935	1	-6
383.105	1	-2
383.276	1	17
383.447	1	-8
383.618	1	2
383.789	1	-3
383.960	1	3
384.130	1	1
384.301	1	3
384.472	1	5
384.643	1	-4
384.814	1	-6
384.985	1	-7
385.156	1	5
385.326	1	-2
385.497	1	4
385.668	1	8
385.839	1	-1
386.010	1	4
386.180	1	0
386.351	1	-3
386.522	1	-2
386.693	1	-7
386.864	1	1
387.035	1	5
387.205	1	3
387.376	1	2
387.547	1	5
387.718	1	-11
387.889	1	0
388.060	1	0
388.230	1	14
388.401	1	10
388.572	1	0
388.743	1	4
388.914	1	-9
389.084	1	3
389.255	1	0
389.426	1	4
389.597	1	7
389.768	1	3
389.939	1	0
390.109	1	-10
390.280	1	-1
390.451	1	8
390.622	1	1
390.793	1	4
390.963	1	4
391.134	1	-1
391.305	1	11
391.476	1	-6
391.647	1	-11
391.817	1	-4
391.988	1	2
392.159	1	0
392.330	1	-3
392.501	1	-4
392.671	1	-5
392.842	1	1
393.013	1	0
393.184	1	1
393.355	1	4
393.525	1	3
393.696	1	2
393.867	1	-2
394.038	1	4
394.208	1	0
394.379	1	-5
394.550	1	-7
394.721	1	12
394.892	1	6
395.062	1	-8
395.233	1	-4
395.404	1	-10
395.575	1	4
395.746	1	9
395.916	1	-5
396.087	1	3
396.258	1	11
396.429	1	9
396.599	1	7
396.770	1	-8
396.941	1	-1
397.112	1	5
397.283	1	1
397.453	1	5
397.624	1	-9
397.795	1	5
397.966	1	5
398.136	1	6
398.307	1	3
398.478	1	6
398.649	1	-6
398.819	1	-3
398.990	1	-5
399.161	1	-3
399.332	1	-1
399.503	1	4
399.673	1	1
399.844	1	8
400.015	1	8
400.186	1	6
400.356	1	16
400.527	1	-8
400.698	1	15
400.869	1	-7
401.039	1	8
401.210	1	8
401.381	1	3
401.552	1	-1
401.722	1	4
401.893	1	4
402.064	1	11
402.235	1	5
402.405	1	-7
402.576	1	-10
402.747	1	11
402.918	1	5
403.088	1	-7
403.259	1	4
403.430	1	-11
403.601	1	4
403.771	1	-4
403.942	1	-7
404.113	1	7
404.284	1	9
404.454	1	-5
404.625	1	5
404.796	1	-3
404.967	1	3
405.137	1	-2
405.308	1	-6
405.479	1	0
405.649	1	10
405.820	1	-7
405.991	1	5
406.162	1	7
406.332	1	-6
406.503	1	7
406.674	1	14
406.845	1	5
407.015	1	1
407.186	1	10
407.357	1	5
407.527	1	-8
407.698	1	-3
407.869	1	-14
408.040	1	5
408.210	1	6
408.381	1	2
408.552	1	8
408.722	1	3
408.893	1	1
409.064	1	4
409.235	1	1
409.405	1	-10
409.576	1	3
409.747	1	5
409.917	1	4
410.088	1	8
410.259	1	-2
410.430	1	4
410.600	1	-5
410.771	1	8
410.942	1	2
411.112	1	-5
411.283	1	5
411.454	1	12
411.625	1	1
411.795	1	1
411.966	1	7
412.137	1	14
412.307	1	-13
412.478	1	-15
412.649	1	-3
412.819	1	4
412.990	1	-5
413.161	1	10
413.332	1	5
413.502	1	2
413.673	1	7
413.844	1	2
414.014	1	2
414.185	1	1
414.356	1	1
414.526	1	-1
414.697	1	5
414.868	1	0
415.038	1	11
415.209	1	-6
415.380	1	14
415.550	1	-1
415.721	1	0
415.892	1	-3
416.063	1	0
416.233	1	10
416.404	1	-6
416.575	1	5
416.745	1	7
416.916	1	10
417.087	1	-4
417.257	1	-3
417.428	1	-5
417.599	1	5
417.769	1	-1
417.940	1	2
418.111	1	4
418.281	1	14
418.452	1	5
418.623	1	4
418.793	1	6
418.964	1	0
419.135	1	8
419.305	1	2
419.476	1	-9
419.647	1	3
419.817	1	0
419.988	1	3
420.159	1	16
420.329	1	0
420.500	1	-1
420.671	1	7
420.841	1	-1
421.012	1	-1
421.183	1	0
421.353	1	5
421.524	1	-2
421.695	1	6
421.865	1	13
422.036	1	-2
422.206	1	2
422.377	1	-8
422.548	1	-4
422.718	1	-5
422.889	1	3
423.060	1	0
423.230	1	-1
423.401	1	-6
423.572	1	-1
423.742	1	-2
423.913	1	-5
424.084	1	-1
424.254	1	-3
424.425	1	12
424.595	1	10
424.766	1	4
424.937	1	4
425.107	1	9
425.278	1	6
425.449	1	-1
425.619	1	11
425.790	1	-5
425.961	1	5
426.131	1	-3
426.302	1	2
426.472	1	-7
426.643	1	-7
426.814	1	7
426.984	1	6
427.155	1	2
427.326	1	5
427.496	1	-5
427.667	1	7
427.837	1	8
428.008	1	7
428.179	1	1
428.349	1	-2
428.520	1	-8
428.691	1	4
428.861	1	-5
429.032	1	4
429.202	1	6
429.373	1	-6
429.544	1	-1
429.714	1	8
429.885	1	-5
430.055	1	1
430.226	1	5
430.397	1	8
430.567	1	-1
430.738	1	4
430.909	1	-9
431.079	1	0
431.250	1	5
431.420	1	6
431.591	1	6
431.762	1	5
431.932	1	1
432.103	1	-12
432.273	1	2
432.444	1	0
432.615	1	-3
432.785	1	4
432.956	1	-1
433.126	1	0
433.297	1	-4
433.468	1	4
433.638	1	4
433.809	1	2
433.979	1	-7
434.150	1	7
434.320	1	-5
434.491	1	-5
434.662	1	6
434.832	1	-1
435.003	1	4
435.173	1	1
435.344	1	-1
435.515	1	-5
435.685	1	0
435.856	1	-10
436.026	1	9
436.197	1	7
436.368	1	5
436.538	1	5
436.709	1	7
436.879	1	-7
437.050	1	5
437.220	1	-1
437.391	1	-3
437.562	1	11
437.732	1	10
437.903	1	-6
438.073	1	-4
438.244	1	-11
438.414	1	10
438.585	1	-5
438.756	1	3
438.926	1	3
439.097	1	6
439.267	1	7
439.438	1	0
439.608	1	4
439.779	1	-1
439.949	1	3
440.120	1	11
440.291	1	4
440.461	1	-2
440.632	1	8
440.802	1	8
440.973	1	19
441.143	1	8
441.314	1	14
441.485	1	2
441.655	1	1
441.826	1	-10
441.996	1	-2
442.167	1	-1
442.337	1	-5
442.508	1	11
442.678	1	10
442.849	1	3
443.019	1	13
443.190	1	5
443.361	1	2
443.531	1	-2
443.702	1	3
443.872	1	1
444.043	1	2
444.213	1	1
444.384	1	8
444.554	1	8
444.725	1	2
444.895	1	-4
445.066	1	3
445.237	1	-2
445.407	1	-7
445.578	1	-4
445.748	1	0
445.919	1	-6
446.089	1	-1
446.260	1	9
446.430	1	6
446.601	1	-1
446.771	1	5
446.942	1	2
447.112	1	4
447.283	1	1
447.453	1	5
447.624	1	8
447.794	1	8
447.965	1	4
448.135	1	3
448.306	1	-1
448.477	1	-7
448.647	1	-3
448.818	1	-3
448.988	1	4
449.159	1	0
449.329	1	4
449.500	1	-1
449.670	1	7
449.841	1	-2
450.011	1	3
450.182	1	0
450.352	1	2
450.523	1	-7
450.693	1	9
450.864	1	-5
451.034	1	12
451.205	1	-12
451.375	1	-3
451.546	1	-1
451.716	1	-2
451.887	1	8
452.057	1	11
452.228	1	7
452.398	1	8
452.569	1	2
452.739	1	-6
452.910	1	-7
453.080	1	7
453.251	1	-7
453.421	1	-1
453.592	1	0
453.762	1	2
453.933	1	3
454.103	1	4
454.274	1	-5
454.444	1	6
454.615	1	-3
454.785	1	2
454.956	1	0
455.126	1	-1
455.297	1	-1
455.467	1	-6
455.638	1	-6
455.808	1	0
455.979	1	3
456.149	1	4
456.320	1	3
456.490	1	-2
456.661	1	7
456.831	1	0
457.001	1	10
457.172	1	2
457.342	1	3
457.513	1	6
457.683	1	-4
457.854	1	13
458.024	1	1
458.195	1	-6
458.365	1	-7
458.536	1	-3
458.706	1	10
458.877	1	2
459.047	1	-3
459.218	1	1
459.388	1	0
459.559	1	-10
459.729	1	6
459.899	1	5
460.070	1	11
460.240	1	3
460.411	1	1
460.581	1	-3
460.752	1	1
460.922	1	-8
461.093	1	4
461.263	1	5
461.434	1	-1
461.604	1	1
461.775	1	10
461.945	1	-8
462.115	1	14
462.286	1	-3
462.456	1	8
462.627	1	-2
462.797	1	-7
462.968	1	-9
463.138	1	9
463.309	1	16
463.479	1	-9
463.649	1	14
463.820	1	-1
463.990	1	0
464.161	1	5
464.331	1	-5
464.502	1	5
464.672	1	2
464.843	1	6
465.013	1	4
465.183	1	8
465.354	1	6
465.524	1	-7
465.695	1	-1
465.865	1	3
466.036	1	-1
466.206	1	7
466.376	1	2
466.547	1	-3
466.717	1	-3
466.888	1	3
467.058	1	1
467.229	1	4
467.399	1	-4
467.569	1	-3
467.740	1	5
467.910	1	-1
468.081	1	8
468.251	1	6
468.422	1	16
468.592	1	-1
468.762	1	-1
468.933	1	3
469.103	1	-8
469.274	1	-5
469.444	1	-2
469.614	1	1
469.785	1	6
469.955	1	-2
470.126	1	10
470.296	1	1
470.467	1	6
470.637	1	-6
470.807	1	-5
470.978	1	4
471.148	1	-1
471.319	1	-1
471.489	1	-16
471.659	1	6
471.830	1	-3
472.000	1	-7
472.171	1	-2
472.341	1	-2
472.511	1	17
472.682	1	-2
472.852	1	2
473.023	1	0
473.193	1	7
473.363	1	6
473.534	1	9
473.704	1	8
473.875	1	6
474.045	1	3
474.215	1	-7
474.386	1	-16
474.556	1	9
474.727	1	-4
474.897	1	8
475.067	1	5
475.238	1	2
475.408	1	16
475.578	1	4
475.749	1	-3
475.919	1	2
476.090	1	2
476.260	1	8
476.430	1	-5
476.601	1	14
476.771	1	3
476.942	1	-2
477.112	1	4
477.282	1	-1
477.453	1	6
477.623	1	-6
477.793	1	-3
477.964	1	6
478.134	1	-6
478.305	1	1
478.475	1	7
478.645	1	12
478.816	1	4
478.986	1	-10
479.156	1	5
479.327	1	0
479.497	1	-8
479.667	1	-7
479.838	1	2
480.008	1	-10
480.179	1	5
480.349	1	6
480.519	1	3
480.690	1	-17
480.860	1	9
481.030	1	6
481.201	1	10
481.371	1	-11
481.541	1	11
481.712	1	9
481.882	1	5
482.053	1	5
482.223	1	-5
482.393	1	0
482.564	1	0
482.734	1	2
482.904	1	9
483.075	1	-1
483.245	1	1
483.415	1	-5
483.586	1	9
483.756	1	1
483.926	1	-1
484.097	1	-2
484.267	1	2
484.437	1	-5
484.608	1	-8
484.778	1	9
484.948	1	-1
485.119	1	-4
485.289	1	8
485.459	1	8
485.630	1	10
485.800	1	5
485.970	1	5
486.141	1	2
486.311	1	-2
486.481	1	7
486.652	1	0
486.822	1	-3
486.992	1	-1
487.163	1	6
487.333	1	6
487.503	1	-3
487.674	1	-1
487.844	1	-2
488.014	1	7
488.185	1	-2
488.355	1	3
488.525	1	9
488.696	1	9
488.866	1	-4
489.036	1	10
489.207	1	5
489.377	1	-2
489.547	1	-4
489.718	1	-5
489.888	1	7
490.058	1	1
490.228	1	-2
490.399	1	-8
490.569	1	-1
490.739	1	5
490.910	1	4
491.080	1	6
491.250	1	12
491.421	1	0
491.591	1	0
491.761	1	5
491.932	1	6
492.102	1	10
492.272	1	-5
492.442	1	1
492.613	1	5
492.783	1	-6
492.953	1	4
493.124	1	13
493.294	1	12
493.464	1	1
493.635	1	5
493.805	1	1
493.975	1	5
494.145	1	-1
494.316	1	3
494.486	1	12
494.656	1	16
494.827	1	8
494.997	1	-5
495.167	1	3
495.337	1	4
495.508	1	5
495.678	1	1
495.848	1	-8
496.019	1	-3
496.189	1	-1
496.359	1	0
496.529	1	4
496.700	1	5
496.870	1	6
497.040	1	-1
497.211	1	0
497.381	1	9
497.551	1	-2
497.721	1	-3
497.892	1	6
498.062	1	2
498.232	1	3
498.403	1	11
498.573	1	4
498.743	1	9
498.913	1	-16
499.084	1	1
499.254	1	0
499.424	1	-11
499.594	1	3
499.765	1	-7
499.935	1	1
500.105	1	3
500.275	1	0
500.446	1	5
500.616	1	9
500.786	1	3
500.956	1	6
501.127	1	5
501.297	1	6
501.467	1	7
501.638	1	2
501.808	1	4
501.978	1	-2
502.148	1	-4
502.319	1	1
502.489	1	-1
502.659	1	-7
502.829	1	4
503.000	1	18
503.170	1	3
503.340	1	10
503.510	1	-2
503.681	1	2
503.851	1	-4
504.021	1	2
504.191	1	-8
504.362	1	6
504.532	1	10
504.702	1	-3
504.872	1	17
505.042	1	3
505.213	1	8
505.383	1	-2
505.553	1	-6
505.723	1	0
505.894	1	-6
506.064	1	8
506.234	1	-1
506.404	1	4
506.575	1	-5
506.745	1	9
506.915	1	-10
507.085	1	6
507.256	1	8
507.426	1	5
507.596	1	-4
507.766	1	0
507.936	1	-2
508.107	1	-2
508.277	1	13
508.447	1	8
508.617	1	-7
508.788	1	-3
508.958	1	16
509.128	1	-4
509.298	1	-4
509.468	1	13
509.639	1	-2
509.809	1	-2
509.979	1	1
510.149	1	9
510.319	1	5
510.490	1	-10
510.660	1	0
510.830	1	-7
511.000	1	1
511.171	1	22
511.341	1	5
511.511	1	1
511.681	1	-6
511.851	1	7
512.022	1	-3
512.192	1	1
512.362	1	-5
512.532	1	-1
512.702	1	1
512.873	1	2
513.043	1	8
513.213	1	7
513.383	1	4
513.553	1	3
513.724	1	0
513.894	1	14
514.064	1	1
514.234	1	14
514.404	1	-3
514.575	1	1
514.745	1	1
514.915	1	-10
515.085	1	-1
515.255	1	-7
515.425	1	1
515.596	1	10
515.766	1	-2
515.936	1	-5
516.106	1	11
516.276	1	8
516.447	1	-7
516.617	1	1
516.787	1	-4
516.957	1	-3
517.127	1	2
517.297	1	4
517.468	1	-5
517.638	1	-1
517.808	1	-4
517.978	1	1
518.148	1	-1
518.319	1	4
518.489	1	-1
518.659	1	0
518.829	1	-1
518.999	1	-10
519.169	1	-6
519.340	1	3
519.510	1	5
519.680	1	-4
519.850	1	13
520.020	1	0
520.190	1	-10
520.361	1	4
520.531	1	13
520.701	1	2
520.871	1	-4
521.041	1	-9
521.211	1	-10
521.382	1	11
521.552	1	-2
521.722	1	13
521.892	1	-1
522.062	1	-3
522.232	1	3
522.402	1	-1
522.573	1	-6
522.743	1	-3
522.913	1	-5
523.083	1	13
523.253	1	-2
523.423	1	5
523.593	1	-12
523.764	1	6
523.934	1	3
524.104	1	4
524.274	1	-5
524.444	1	0
524.614	1	4
524.784	1	-13
524.955	1	2
525.125	1	-9
525.295	1	-1
525.465	1	-8
525.635	1	4
525.805	1	4
525.975	1	3
526.146	1	8
526.316	1	-2
526.486	1	2
526.656	1	0
526.826	1	-6
526.996	1	-1
527.166	1	1
527.337	1	-2
527.507	1	10
527.677	1	-3
527.847	1	0
528.017	1	-2
528.187	1	-13
528.357	1	-1
528.527	1	-2
528.698	1	-15
528.868	1	-3
529.038	1	-6
529.208	1	2
529.378	1	9
529.548	1	3
529.718	1	-7
529.888	1	2
530.058	1	11
530.229	1	6
530.399	1	-7
530.569	1	7
530.739	1	3
530.909	1	4
531.079	1	4
531.249	1	3
531.419	1	11
531.589	1	2
531.760	1	-6
531.930	1	3
532.100	1	4
532.270	1	0
532.440	1	-1
532.610	1	-1
532.780	1	-9
532.950	1	3
533.120	1	7
533.290	1	-6
533.461	1	-6
533.631	1	-11
533.801	1	-2
533.971	1	-1
534.141	1	10
534.311	1	2
534.481	1	1
534.651	1	5
534.821	1	4
534.991	1	0
535.162	1	-12
535.332	1	-8
535.502	1	1
535.672	1	2
535.842	1	-4
536.012	1	5
536.182	1	-2
536.352	1	5
536.522	1	-5
536.692	1	7
536.862	1	-8
537.032	1	7
537.203	1	1
537.373	1	-12
537.543	1	4
537.713	1	3
537.883	1	-2
538.053	1	6
538.223	1	-7
538.393	1	-5
538.563	1	1
538.733	1	0
538.903	1	-3
539.073	1	8
539.243	1	-3
539.413	1	3
539.584	1	0
539.754	1	-5
539.924	1	-9
540.094	1	-6
540.264	1	-8
540.434	1	-1
540.604	1	5
540.774	1	-1
540.944	1	11
541.114	1	-1
541.284	1	3
541.454	1	14
541.624	1	10
541.794	1	2
541.964	1	-4
542.134	1	7
542.305	1	4
542.475	1	1
542.645	1	-5
542.815	1	1
542.985	1	1
543.155	1	6
543.325	1	2
543.495	1	6
543.665	1	-1
543.835	1	0
544.005	1	3
544.175	1	0
544.345	1	1
544.515	1	-4
544.685	1	6
544.855	1	-1
545.025	1	1
545.195	1	-4
545.365	1	13
545.535	1	-8
545.705	1	0
545.875	1	2
546.045	1	-1
546.216	1	-6
546.386	1	5
546.556	1	6
546.726	1	-4
546.896	1	0
547.066	1	-9
547.236	1	0
547.406	1	-4
547.576	1	-4
547.746	1	-6
547.916	1	8
548.086	1	4
548.256	1	-5
548.426	1	5
548.596	1	-4
548.766	1	9
548.936	1	-3
549.106	1	3
549.276	1	-1
549.446	1	17
549.616	1	-5
549.786	1	-1
549.956	1	1
550.126	1	0
550.296	1	-5
550.466	1	-7
550.636	1	10
550.806	1	8
550.976	1	5
551.146	1	0
551.316	1	-3
551.486	1	-6
551.656	1	1
551.826	1	4
551.996	1	2
552.166	1	-10
552.336	1	-1
552.506	1	4
552.676	1	6
552.846	1	6
553.016	1	4
553.186	1	-2
553.356	1	-12
553.526	1	-8
553.696	1	-7
553.866	1	-1
554.036	1	16
554.206	1	-10
554.376	1	6
554.546	1	2
554.716	1	0
554.886	1	3
555.056	1	12
555.226	1	-5
555.396	1	7
555.566	1	-2
555.736	1	-8
555.906	1	-4
556.076	1	7
556.246	1	7
556.416	1	5
556.586	1	-5
556.756	1	-4
556.926	1	-9
557.096	1	-13
557.266	1	4
557.436	1	0
557.606	1	3
557.776	1	8
557.946	1	0
558.116	1	17
558.286	1	15
558.456	1	5
558.626	1	-4
558.796	1	-2
558.966	1	6
559.136	1	-7
559.306	1	0
559.476	1	-15
559.646	1	-7
559.816	1	-12
559.986	1	11
560.155	1	2
560.325	1	-4
560.495	1	6
560.665	1	-5
560.835	1	5
561.005	1	3
561.175	1	-1
561.345	1	16
561.515	1	-3
561.685	1	-7
561.855	1	6
562.025	1	5
562.195	1	9
562.365	1	4
562.535	1	6
562.705	1	2
562.875	1	1
563.045	1	-1
563.215	1	10
563.385	1	1
563.555	1	-5
563.725	1	5
563.895	1	1
564.064	1	-5
564.234	1	-6
564.404	1	3
564.574	1	6
564.744	1	-4
564.914	1	-3
565.084	1	8
565.254	1	11
565.424	1	-17
565.594	1	11
565.764	1	1
565.934	1	4
566.104	1	-7
566.274	1	8
566.444	1	2
566.614	1	-2
566.783	1	5
566.953	1	3
567.123	1	8
567.293	1	-7
567.463	1	1
567.633	1	7
567.803	1	-1
567.973	1	6
568.143	1	5
568.313	1	11
568.483	1	0
568.653	1	1
568.823	1	3
568.993	1	-1
569.162	1	5
569.332	1	4
569.502	1	-5
569.672	1	2
569.842	1	-2
570.012	1	11
570.182	1	-4
570.352	1	5
570.522	1	5
570.692	1	14
570.862	1	3
571.031	1	-6
571.201	1	-10
571.371	1	3
571.541	1	2
571.711	1	11
571.881	1	-1
572.051	1	-1
572.221	1	-3
572.391	1	-5
572.561	1	-14
572.731	1	2
572.900	1	-2
573.070	1	-1
573.240	1	8
573.410	1	12
573.580	1	2
573.750	1	9
573.920	1	-2
574.090	1	-2
574.260	1	-2
574.430	1	2
574.599	1	10
574.769	1	7
574.939	1	-20
575.109	1	-1
575.279	1	10
575.449	1	0
575.619	1	5
575.789	1	-1
575.959	1	3
576.128	1	5
576.298	1	4
576.468	1	-5
576.638	1	5
576.808	1	5
576.978	1	11
577.148	1	4
577.318	1	7
577.487	1	-6
577.657	1	4
577.827	1	5
577.997	1	-1
578.167	1	-4
578.337	1	9
578.507	1	-4
578.677	1	-1
578.846	1	2
579.016	1	5
579.186	1	-12
579.356	1	8
579.526	1	2
579.696	1	-9
579.866	1	0
580.036	1	0
580.205	1	8
580.375	1	10
580.545	1	-3
580.715	1	13
580.885	1	-4
581.055	1	3
581.225	1	-1
581.394	1	-1
581.564	1	-12
581.734	1	-3
581.904	1	5
582.074	1	-6
582.244	1	2
582.414	1	12
582.583	1	-8
582.753	1	-8
582.923	1	-8
583.093	1	0
583.263	1	2
583.433	1	-8
583.603	1	11
583.772	1	12
583.942	1	-7
584.112	1	-5
584.282	1	-1
584.452	1	1
584.622	1	-4
584.791	1	4
584.961	1	2
585.131	1	-2
585.301	1	-6
585.471	1	-3
585.641	1	-5
585.811	1	0
585.980	1	2
586.150	1	10
586.320	1	7
586.490	1	3
586.660	1	-11
586.830	1	4
586.999	1	7
587.169	1	0
587.339	1	4
587.509	1	7
587.679	1	5
587.849	1	14
588.018	1	1
588.188	1	0
588.358	1	12
588.528	1	-1
588.698	1	9
588.867	1	7
589.037	1	9
589.207	1	-2
589.377	1	1
589.547	1	-5
589.717	1	-3
589.886	1	6
590.056	1	8
590.226	1	5
590.396	1	-3
590.566	1	4
590.735	1	-6
590.905	1	-7
591.075	1	-16
591.245	1	0
591.415	1	1
591.585	1	-1
591.754	1	-1
591.924	1	3
592.094	1	12
592.264	1	-5
592.434	1	5
592.603	1	-10
592.773	1	13
592.943	1	5
593.113	1	10
593.283	1	4
593.452	1	-2
593.622	1	-8
593.792	1	-3
593.962	1	-2
594.132	1	8
594.301	1	-7
594.471	1	-3
594.641	1	-2
594.811	1	6
594.981	1	5
595.150	1	3
595.320	1	1
595.490	1	-2
595.660	1	-8
595.829	1	6
595.999	1	-9
596.169	1	-5
596.339	1	3
596.509	1	-1
596.678	1	6
596.848	1	2
597.018	1	3
597.188	1	3
597.358	1	2
597.527	1	12
597.697	1	5
597.867	1	2
598.037	1	2
598.206	1	-3
598.376	1	3
598.546	1	1
598.716	1	4
598.885	1	-7
599.055	1	-5
599.225	1	-2
599.395	1	11
599.565	1	-11
599.734	1	0
599.904	1	3
600.074	1	4
600.244	1	2
600.413	1	8
600.583	1	7
600.753	1	-7
600.923	1	0
601.092	1	3
601.262	1	10
601.432	1	-9
601.602	1	9
601.771	1	-5
601.941	1	5
602.111	1	-4
602.281	1	9
602.451	1	6
602.620	1	0
602.790	1	0
602.960	1	5
603.130	1	3
603.299	1	-5
603.469	1	1
603.639	1	-14
603.809	1	7
603.978	1	10
604.148	1	1
604.318	1	-1
604.487	1	5
604.657	1	17
604.827	1	1
604.997	1	-1
605.166	1	6
605.336	1	5
605.506	1	7
605.676	1	-2
605.845	1	10
606.015	1	9
606.185	1	4
606.355	1	1
606.524	1	2
606.694	1	-5
606.864	1	0
607.034	1	1
607.203	1	15
607.373	1	0
607.543	1	5
607.712	1	4
607.882	1	9
608.052	1	9
608.222	1	9
608.391	1	9
608.561	1	0
608.731	1	3
608.901	1	-4
609.070	1	-1
609.240	1	1
609.410	1	11
609.579	1	-3
609.749	1	-7
609.919	1	1
610.089	1	3
610.258	1	1
610.428	1	3
610.598	1	5
610.767	1	-7
610.937	1	-6
611.107	1	4
611.277	1	3
611.446	1	-4
611.616	1	3
611.786	1	9
611.955	1	-5
612.125	1	4
612.295	1	7
612.465	1	-4
612.634	1	-11
612.804	1	13
612.974	1	1
613.143	1	5
613.313	1	-2
613.483	1	-12
613.652	1	6
613.822	1	0
613.992	1	-4
614.162	1	-1
614.331	1	2
614.501	1	-5
614.671	1	-3
614.840	1	8
615.010	1	4
615.180	1	10
615.349	1	-7
615.519	1	-1
615.689	1	6
615.858	1	-4
616.028	1	5
616.198	1	1
616.368	1	14
616.537	1	10
616.707	1	-2
616.877	1	-2
617.046	1	3
617.216	1	2
617.386	1	-3
617.555	1	6
617.725	1	-3
617.895	1	21
618.064	1	12
618.234	1	8
618.404	1	2
618.573	1	4
618.743	1	-3
618.913	1	4
619.082	1	2
619.252	1	3
619.422	1	8
619.591	1	6
619.761	1	0
619.931	1	-11
620.100	1	0
620.270	1	-6
620.440	1	-3
620.609	1	8
620.779	1	-8
620.949	1	-5
621.118	1	3
621.288	1	1
621.458	1	0
621.627	1	11
621.797	1	7
621.967	1	3
622.136	1	1
622.306	1	-2
622.476	1	-2
622.645	1	3
622.815	1	-3
622.985	1	-5
623.154	1	3
623.324	1	10
623.494	1	-8
623.663	1	2
623.833	1	-12
624.002	1	-5
624.172	1	3
624.342	1	-4
624.511	1	-2
624.681	1	5
624.851	1	8
625.020	1	4
625.190	1	2
625.360	1	4
625.529	1	2
625.699	1	3
625.869	1	-1
626.038	1	3
626.208	1	9
626.377	1	8
626.547	1	-8
626.717	1	-1
626.886	1	1
627.056	1	-1
627.226	1	-2
627.395	1	3
627.565	1	2
627.735	1	1
627.904	1	1
628.074	1	10
628.243	1	-2
628.413	1	2
628.583	1	3
628.752	1	-6
628.922	1	12
629.091	1	-2
629.261	1	-3
629.431	1	2
629.600	1	5
629.770	1	0
629.940	1	8
630.109	1	8
630.279	1	-1
630.448	1	2
630.618	1	-6
630.788	1	5
630.957	1	0
631.127	1	10
631.297	1	-6
631.466	1	-6
631.636	1	13
631.805	1	3
631.975	1	7
632.145	1	-1
632.314	1	0
632.484	1	1
632.653	1	5
632.823	1	8
632.993	1	10
633.162	1	2
633.332	1	4
633.501	1	4
633.671	1	3
633.841	1	12
634.010	1	6
634.180	1	0
634.349	1	2
634.519	1	7
634.689	1	-3
634.858	1	2
635.028	1	3
635.197	1	-2
635.367	1	-2
635.537	1	16
635.706	1	6
635.876	1	-3
636.045	1	5
636.215	1	11
636.384	1	-2
636.554	1	7
636.724	1	5
636.893	1	5
637.063	1	-7
637.232	1	1
637.402	1	11
637.572	1	2
637.741	1	8
637.911	1	-6
638.080	1	9
638.250	1	1
638.419	1	6
638.589	1	-10
638.759	1	3
638.928	1	2
639.098	1	12
639.267	1	8
639.437	1	1
639.606	1	7
639.776	1	12
639.946	1	8
640.115	1	-3
640.285	1	-8
640.454	1	3
640.624	1	-8
640.793	1	-12
640.963	1	-3
641.132	1	-3
641.302	1	7
641.472	1	8
641.641	1	-3
641.811	1	7
641.980	1	-8
642.150	1	-1
642.319	1	3
642.489	1	-4
642.659	1	1
642.828	1	6
642.998	1	-8
643.167	1	0
643.337	1	6
643.506	1	4
643.676	1	8
643.845	1	-2
644.015	1	-2
644.184	1	-12
644.354	1	4
644.524	1	2
644.693	1	8
644.863	1	-3
645.032	1	7
645.202	1	-8
645.371	1	2
645.541	1	-2
645.710	1	-8
645.880	1	7
646.049	1	-13
646.219	1	4
646.388	1	3
646.558	1	2
646.728	1	-5
646.897	1	16
647.067	1	1
647.236	1	5
647.406	1	4
647.575	1	5
647.745	1	-5
647.914	1	-2
648.084	1	14
648.253	1	4
648.423	1	2
648.592	1	-4
648.762	1	12
648.931	1	0
649.101	1	-6
649.270	1	3
649.440	1	7
649.610	1	3
649.779	1	19
649.949	1	-10
650.118	1	-2
650.288	1	-12
650.457	1	1
650.627	1	-2
650.796	1	3
650.966	1	8
651.135	1	-1
651.305	1	13
651.474	1	15
651.644	1	-8
651.813	1	6
651.983	1	-17
652.152	1	4
652.322	1	-1
652.491	1	-3
652.661	1	-4
652.830	1	7
653.000	1	6
653.169	1	-9
653.339	1	9
653.508	1	-5
653.678	1	11
653.847	1	-3
654.017	1	-4
654.186	1	6
654.356	1	-4
654.525	1	-7
654.695	1	4
654.864	1	-4
655.034	1	7
655.203	1	9
655.373	1	6
655.542	1	6
655.712	1	0
655.881	1	7
656.051	1	-1
656.220	1	2
656.390	1	12
656.559	1	1
656.729	1	-3
656.898	1	3
657.068	1	-4
657.237	1	4
657.406	1	1
657.576	1	-12
657.745	1	4
657.915	1	10
658.084	1	3
658.254	1	-9
658.423	1	4
658.593	1	-8
658.762	1	-2
658.932	1	5
659.101	1	-2
659.271	1	-5
659.440	1	-2
659.610	1	2
659.779	1	5
659.949	1	-5
660.118	1	3
660.288	1	-4
660.457	1	4
660.626	1	-4
660.796	1	-2
660.965	1	5
661.135	1	5
661.304	1	12
661.474	1	0
661.643	1	9
661.813	1	-17
661.982	1	5
662.152	1	0
662.321	1	1
662.491	1	-12
662.660	1	4
662.829	1	-1
662.999	1	3
663.168	1	-1
663.338	1	3
663.507	1	-2
663.677	1	5
663.846	1	-18
664.016	1	14
664.185	1	-1
664.354	1	5
664.524	1	2
664.693	1	14
664.863	1	2
665.032	1	2
665.202	1	6
665.371	1	-3
665.541	1	3
665.710	1	-7
665.879	1	12
666.049	1	2
666.218	1	-9
666.388	1	0
666.557	1	3
666.727	1	-7
666.896	1	1
667.065	1	6
667.235	1	0
667.404	1	0
667.574	1	-12
667.743	1	1
667.913	1	8
668.082	1	8
668.251	1	11
668.421	1	6
668.590	1	-8
668.760	1	3
668.929	1	-2
669.099	1	-5
669.268	1	-2
669.437	1	-4
669.607	1	3
669.776	1	9
669.946	1	-4
670.115	1	12
670.285	1	0
670.454	1	3
670.623	1	2
670.793	1	1
670.962	1	-7
671.132	1	-3
671.301	1	-10
671.470	1	0
671.640	1	0
671.809	1	4
671.979	1	0
672.148	1	2
672.317	1	3
672.487	1	6
672.656	1	3
672.826	1	-7
672.995	1	0
673.164	1	-2
673.334	1	-5
673.503	1	8
673.673	1	-1
673.842	1	-6
674.011	1	-7
674.181	1	4
674.350	1	17
674.520	1	-6
674.689	1	13
674.858	1	2
675.028	1	14
675.197	1	1
675.367	1	-7
675.536	1	1
675.705	1	-7
675.875	1	-4
676.044	1	6
676.214	1	5
676.383	1	11
676.552	1	7
676.722	1	13
676.891	1	4
677.060	1	9
677.230	1	-6
677.399	1	1
677.569	1	-19
677.738	1	-4
677.907	1	7
678.077	1	1
678.246	1	-4
678.416	1	9
678.585	1	5
678.754	1	0
678.924	1	6
679.093	1	0
679.262	1	-1
679.432	1	-15
679.601	1	-3
679.771	1	10
679.940	1	3
680.109	1	3
680.279	1	-3
680.448	1	1
680.617	1	0
680.787	1	-4
680.956	1	1
681.125	1	7
681.295	1	0
681.464	1	8
681.634	1	3
681.803	1	10
681.972	1	8
682.142	1	-1
682.311	1	13
682.480	1	-8
682.650	1	4
682.819	1	-6
682.988	1	2
683.158	1	0
683.327	1	6
683.496	1	2
683.666	1	8
683.835	1	-6
684.004	1	9
684.174	1	-5
684.343	1	3
684.512	1	-6
684.682	1	1
684.851	1	14
685.021	1	19
685.190	1	-6
685.359	1	1
685.529	1	-5
685.698	1	-2
685.867	1	13
686.037	1	-5
686.206	1	0
686.375	1	-8
686.545	1	2
686.714	1	-1
686.883	1	4
687.053	1	3
687.222	1	6
687.391	1	1
687.561	1	-5
687.730	1	2
687.899	1	3
688.069	1	-12
688.238	1	-4
688.407	1	6
688.577	1	9
688.746	1	-2
