340.368	1	0
340.539	1	-1
340.710	1	12
340.881	1	6
341.052	1	1
341.223	1	-3
341.394	1	11
341.565	1	3
341.737	1	-7
341.908	1	9
342.079	1	0
342.250	1	-3
342.421	1	-7
342.592	1	2
342.763	1	-8
342.934	1	2
343.105	1	2
343.276	1	-3
343.447	1	-2
343.618	1	-5
343.789	1	0
343.960	1	-6
344.131	1	0
344.302	1	4
344.473	1	2
344.644	1	5
344.815	1	6
344.986	1	-13
345.157	1	-6
345.328	1	-2
345.499	1	14
345.670	1	-3
345.841	1	-3
346.012	1	3
346.183	1	6
346.354	1	0
346.526	1	6
346.697	1	7
346.868	1	-1
347.039	1	5
347.210	1	-4
347.381	1	4
347.552	1	-2
347.723	1	7
347.894	1	3
348.065	1	-5
348.236	1	2
348.407	1	-1
348.578	1	-1
348.749	1	1
348.920	1	6
349.091	1	3
349.262	1	-2
349.433	1	-1
349.604	1	-2
349.775	1	1
349.946	1	11
350.117	1	4
350.288	1	-2
350.459	1	-5
350.630	1	2
350.801	1	1
350.972	1	1
351.143	1	19
351.314	1	-12
351.485	1	-2
351.656	1	-1
351.827	1	13
351.998	1	-1
352.169	1	0
352.340	1	16
352.511	1	13
352.682	1	3
352.853	1	1
353.024	1	10
353.195	1	-4
353.366	1	-4
353.537	1	9
353.708	1	6
353.879	1	-2
354.050	1	4
354.221	1	12
354.392	1	1
354.563	1	-4
354.734	1	6
354.905	1	-7
355.076	1	3
355.247	1	2
355.418	1	-3
355.589	1	2
355.760	1	4
355.931	1	-9
356.102	1	-2
356.273	1	5
356.444	1	1
356.615	1	6
356.785	1	4
356.956	1	2
357.127	1	-3
357.298	1	7
357.469	1	7
357.640	1	6
357.811	1	11
357.982	1	4
358.153	1	-5
358.324	1	-4
358.495	1	4
358.666	1	4
358.837	1	9
359.008	1	11
359.179	1	2
359.350	1	8
359.521	1	4
359.692	1	13
359.863	1	10
360.034	1	5
360.205	1	16
360.376	1	18
360.547	1	2
360.718	1	-5
360.889	1	24
361.060	1	22
361.231	1	-4
361.401	1	10
361.572	1	10
361.743	1	7
361.914	1	12
362.085	1	2
362.256	1	4
362.427	1	5
362.598	1	15
362.769	1	14
362.940	1	13
363.111	1	2
363.282	1	10
363.453	1	10
363.624	1	5
363.795	1	3
363.966	1	2
364.137	1	8
364.308	1	10
364.478	1	17
364.649	1	5
364.820	1	7
364.991	1	15
365.162	1	11
365.333	1	-5
365.504	1	11
365.675	1	7
365.846	1	19
366.017	1	12
366.188	1	13
366.359	1	0
366.530	1	5
366.701	1	18
366.871	1	12
367.042	1	24
367.213	1	17
367.384	1	14
367.555	1	24
367.726	1	17
367.897	1	29
368.068	1	4
368.239	1	8
368.410	1	10
368.581	1	18
368.752	1	15
368.923	1	19
369.093	1	19
369.264	1	17
369.435	1	17
369.606	1	8
369.777	1	13
369.948	1	14
370.119	1	9
370.290	1	32
370.461	1	22
370.632	1	16
370.803	1	15
370.973	1	17
371.144	1	20
371.315	1	20
371.486	1	18
371.657	1	21
371.828	1	18
371.999	1	1
372.170	1	7
372.341	1	25
372.512	1	14
372.682	1	29
372.853	1	21
373.024	1	27
373.195	1	24
373.366	1	27
373.537	1	22
373.708	1	28
373.879	1	26
374.050	1	21
374.220	1	18
374.391	1	16
374.562	1	23
374.733	1	18
374.904	1	14
375.075	1	26
375.246	1	28
375.417	1	15
375.588	1	22
375.758	1	23
375.929	1	21
376.100	1	30
376.271	1	21
376.442	1	27
376.613	1	21
376.784	1	21
376.955	1	21
377.125	1	17
377.296	1	9
377.467	1	8
377.638	1	27
377.809	1	10
377.980	1	17
378.151	1	28
378.321	1	13
378.492	1	19
378.663	1	20
378.834	1	-1
379.005	1	9
379.176	1	20
379.347	1	26
379.518	1	24
379.688	1	16
379.859	1	10
380.030	1	18
380.201	1	27
380.372	1	4
380.543	1	5
380.714	1	38
380.884	1	8
381.055	1	15
381.226	1	21
381.397	1	16
381.568	1	10
381.739	1	15
381.910	1	22
382.080	1	16
382.251	1	4
382.422	1	15
382.593	1	9
382.764	1	8
382.935	1	11
383.105	1	15
383.276	1	19
383.447	1	10
383.618	1	15
383.789	1	8
383.960	1	20
384.130	1	3
384.301	1	18
384.472	1	18
384.643	1	9
384.814	1	2
384.985	1	1
385.156	1	16
385.326	1	6
385.497	1	20
385.668	1	4
385.839	1	14
386.010	1	14
386.180	1	10
386.351	1	8
386.522	1	4
386.693	1	-5
386.864	1	22
387.035	1	24
387.205	1	7
387.376	1	12
387.547	1	6
387.718	1	10
387.889	1	5
388.060	1	11
388.230	1	16
388.401	1	21
388.572	1	3
388.743	1	16
388.914	1	8
389.084	1	9
389.255	1	3
389.426	1	7
389.597	1	17
389.768	1	17
389.939	1	12
390.109	1	-1
390.280	1	13
390.451	1	10
390.622	1	-3
390.793	1	19
390.963	1	15
391.134	1	9
391.305	1	6
391.476	1	-3
391.647	1	4
391.817	1	2
391.988	1	10
392.159	1	4
392.330	1	8
392.501	1	7
392.671	1	-5
392.842	1	3
393.013	1	18
393.184	1	5
393.355	1	4
393.525	1	9
393.696	1	14
393.867	1	-6
394.038	1	4
394.208	1	14
394.379	1	4
394.550	1	-1
394.721	1	14
394.892	1	5
395.062	1	-1
395.233	1	9
395.404	1	1
395.575	1	16
395.746	1	6
395.916	1	8
396.087	1	9
396.258	1	1
396.429	1	12
396.599	1	3
396.770	1	-8
396.941	1	3
397.112	1	8
397.283	1	0
397.453	1	14
397.624	1	3
397.795	1	12
397.966	1	13
398.136	1	14
398.307	1	7
398.478	1	3
398.649	1	9
398.819	1	9
398.990	1	6
399.161	1	10
399.332	1	-5
399.503	1	-2
399.673	1	15
399.844	1	12
400.015	1	7
400.186	1	10
400.356	1	16
400.527	1	-10
400.698	1	14
400.869	1	-2
401.039	1	10
401.210	1	8
401.381	1	5
401.552	1	11
401.722	1	12
401.893	1	8
402.064	1	10
402.235	1	3
402.405	1	4
402.576	1	0
402.747	1	17
402.918	1	2
403.088	1	1
403.259	1	5
403.430	1	-5
403.601	1	1
403.771	1	5
403.942	1	8
404.113	1	-1
404.284	1	12
404.454	1	2
404.625	1	3
404.796	1	-1
404.967	1	0
405.137	1	13
405.308	1	-5
405.479	1	8
405.649	1	5
405.820	1	4
405.991	1	2
406.162	1	-2
406.332	1	0
406.503	1	9
406.674	1	7
406.845	1	11
407.015	1	-1
407.186	1	13
407.357	1	7
407.527	1	4
407.698	1	8
407.869	1	-3
408.040	1	7
408.210	1	11
408.381	1	13
408.552	1	8
408.722	1	2
408.893	1	5
409.064	1	5
409.235	1	13
409.405	1	-4
409.576	1	14
409.747	1	3
409.917	1	6
410.088	1	8
410.259	1	-7
410.430	1	13
410.600	1	8
410.771	1	3
410.942	1	5
411.112	1	-1
411.283	1	3
411.454	1	8
411.625	1	6
411.795	1	4
411.966	1	-2
412.137	1	4
412.307	1	2
412.478	1	-10
412.649	1	-4
412.819	1	8
412.990	1	9
413.161	1	9
413.332	1	15
413.502	1	7
413.673	1	13
413.844	1	-4
414.014	1	4
414.185	1	-4
414.356	1	5
414.526	1	5
414.697	1	4
414.868	1	10
415.038	1	6
415.209	1	-4
415.380	1	7
415.550	1	-6
415.721	1	4
415.892	1	-5
416.063	1	2
416.233	1	8
416.404	1	-4
416.575	1	8
416.745	1	7
416.916	1	3
417.087	1	-1
417.257	1	3
417.428	1	-6
417.599	1	0
417.769	1	5
417.940	1	2
418.111	1	10
418.281	1	6
418.452	1	7
418.623	1	-5
418.793	1	6
418.964	1	-1
419.135	1	4
419.305	1	-1
419.476	1	-3
419.647	1	4
419.817	1	4
419.988	1	5
420.159	1	18
420.329	1	-2
420.500	1	1
420.671	1	11
420.841	1	-2
421.012	1	5
421.183	1	2
421.353	1	11
421.524	1	3
421.695	1	4
421.865	1	20
422.036	1	11
422.206	1	6
422.377	1	0
422.548	1	-5
422.718	1	7
422.889	1	8
423.060	1	6
423.230	1	9
423.401	1	8
423.572	1	4
423.742	1	-6
423.913	1	8
424.084	1	-3
424.254	1	3
424.425	1	14
424.595	1	-3
424.766	1	9
424.937	1	1
425.107	1	6
425.278	1	8
425.449	1	7
425.619	1	20
425.790	1	15
425.961	1	3
426.131	1	-1
426.302	1	0
426.472	1	-8
426.643	1	3
426.814	1	19
426.984	1	15
427.155	1	10
427.326	1	8
427.496	1	-1
427.667	1	6
427.837	1	-4
428.008	1	6
428.179	1	1
428.349	1	-9
428.520	1	-2
428.691	1	10
428.861	1	-5
429.032	1	9
429.202	1	12
429.373	1	-6
429.544	1	1
429.714	1	16
429.885	1	7
430.055	1	6
430.226	1	9
430.397	1	12
430.567	1	4
430.738	1	11
430.909	1	-7
431.079	1	6
431.250	1	-8
431.420	1	3
431.591	1	7
431.762	1	0
431.932	1	-4
432.103	1	8
432.273	1	14
432.444	1	3
432.615	1	-6
432.785	1	1
432.956	1	-1
433.126	1	10
433.297	1	8
433.468	1	2
433.638	1	9
433.809	1	8
433.979	1	-7
434.150	1	11
434.320	1	2
434.491	1	1
434.662	1	9
434.832	1	3
435.003	1	8
435.173	1	-1
435.344	1	7
435.515	1	6
435.685	1	5
435.856	1	3
436.026	1	14
436.197	1	1
436.368	1	12
436.538	1	2
436.709	1	6
436.879	1	-4
437.050	1	2
437.220	1	4
437.391	1	1
437.562	1	17
437.732	1	3
437.903	1	-3
438.073	1	0
438.244	1	-5
438.414	1	4
438.585	1	14
438.756	1	2
438.926	1	9
439.097	1	8
439.267	1	5
439.438	1	7
439.608	1	12
439.779	1	5
439.949	1	10
440.120	1	12
440.291	1	-4
440.461	1	2
440.632	1	6
440.802	1	12
440.973	1	13
441.143	1	15
441.314	1	14
441.485	1	7
441.655	1	3
441.826	1	5
441.996	1	3
442.167	1	2
442.337	1	0
442.508	1	-5
442.678	1	12
442.849	1	6
443.019	1	12
443.190	1	4
443.361	1	-4
443.531	1	4
443.702	1	1
443.872	1	-1
444.043	1	1
444.213	1	1
444.384	1	6
444.554	1	7
444.725	1	6
444.895	1	1
445.066	1	4
445.237	1	-2
445.407	1	3
445.578	1	-4
445.748	1	2
445.919	1	10
446.089	1	7
446.260	1	4
446.430	1	7
446.601	1	3
446.771	1	3
446.942	1	6
447.112	1	2
447.283	1	12
447.453	1	10
447.624	1	-4
447.794	1	9
447.965	1	-5
448.135	1	-3
448.306	1	-6
448.477	1	0
448.647	1	-8
448.818	1	2
448.988	1	0
449.159	1	9
449.329	1	3
449.500	1	-8
449.670	1	7
449.841	1	5
450.011	1	5
450.182	1	-14
450.352	1	2
450.523	1	2
450.693	1	7
450.864	1	-3
451.034	1	8
451.205	1	-4
451.375	1	1
451.546	1	0
451.716	1	1
451.887	1	4
452.057	1	6
452.228	1	3
452.398	1	9
452.569	1	4
452.739	1	-3
452.910	1	0
453.080	1	12
453.251	1	2
453.421	1	5
453.592	1	1
453.762	1	4
453.933	1	6
454.103	1	3
454.274	1	-6
454.444	1	6
454.615	1	-2
454.785	1	8
454.956	1	9
455.126	1	2
455.297	1	5
455.467	1	3
455.638	1	-1
455.808	1	-4
455.979	1	-2
456.149	1	-5
456.320	1	5
456.490	1	-8
456.661	1	12
456.831	1	9
457.001	1	15
457.172	1	10
457.342	1	-4
457.513	1	3
457.683	1	-2
457.854	1	-4
458.024	1	-7
458.195	1	-9
458.365	1	0
458.536	1	5
458.706	1	20
458.877	1	-3
459.047	1	10
459.218	1	-3
459.388	1	3
459.559	1	2
459.729	1	2
459.899	1	-9
460.070	1	6
460.240	1	7
460.411	1	-2
460.581	1	-2
460.752	1	4
460.922	1	-6
461.093	1	8
461.263	1	13
461.434	1	-4
461.604	1	-1
461.775	1	5
461.945	1	9
462.115	1	6
462.286	1	5
462.456	1	-3
462.627	1	-11
462.797	1	-4
462.968	1	-2
463.138	1	8
463.309	1	7
463.479	1	-4
463.649	1	7
463.820	1	10
463.990	1	2
464.161	1	4
464.331	1	7
464.502	1	3
464.672	1	4
464.843	1	9
465.013	1	6
465.183	1	0
465.354	1	0
465.524	1	-3
465.695	1	2
465.865	1	5
466.036	1	5
466.206	1	1
466.376	1	5
466.547	1	5
466.717	1	0
466.888	1	3
467.058	1	10
467.229	1	-6
467.399	1	9
467.569	1	0
467.740	1	0
467.910	1	4
468.081	1	6
468.251	1	10
468.422	1	6
468.592	1	4
468.762	1	6
468.933	1	-3
469.103	1	-4
469.274	1	-6
469.444	1	-3
469.614	1	-2
469.785	1	9
469.955	1	12
470.126	1	-5
470.296	1	12
470.467	1	9
470.637	1	-1
470.807	1	7
470.978	1	3
471.148	1	4
471.319	1	0
471.489	1	-8
471.659	1	18
471.830	1	3
472.000	1	0
472.171	1	0
472.341	1	-1
472.511	1	10
472.682	1	0
472.852	1	9
473.023	1	-5
473.193	1	12
473.363	1	8
473.534	1	12
473.704	1	9
473.875	1	7
474.045	1	-2
474.215	1	3
474.386	1	-3
474.556	1	1
474.727	1	9
474.897	1	7
475.067	1	9
475.238	1	7
475.408	1	12
475.578	1	4
475.749	1	-1
475.919	1	11
476.090	1	3
476.260	1	14
476.430	1	-4
476.601	1	14
476.771	1	13
476.942	1	0
477.112	1	-10
477.282	1	-3
477.453	1	3
477.623	1	-5
477.793	1	-12
477.964	1	6
478.134	1	-5
478.305	1	1
478.475	1	13
478.645	1	8
478.816	1	-2
478.986	1	-1
479.156	1	9
479.327	1	13
479.497	1	1
479.667	1	-9
479.838	1	-12
480.008	1	-9
480.179	1	11
480.349	1	-1
480.519	1	1
480.690	1	-5
480.860	1	6
481.030	1	0
481.201	1	2
481.371	1	1
481.541	1	3
481.712	1	5
481.882	1	4
482.053	1	6
482.223	1	-1
482.393	1	-4
482.564	1	10
482.734	1	11
482.904	1	5
483.075	1	12
483.245	1	3
483.415	1	1
483.586	1	14
483.756	1	8
483.926	1	-2
484.097	1	0
484.267	1	0
484.437	1	7
484.608	1	3
484.778	1	14
484.948	1	2
485.119	1	-3
485.289	1	5
485.459	1	12
485.630	1	9
485.800	1	-5
485.970	1	3
486.141	1	-1
486.311	1	1
486.481	1	7
486.652	1	13
486.822	1	12
486.992	1	1
487.163	1	5
487.333	1	2
487.503	1	6
487.674	1	4
487.844	1	14
488.014	1	1
488.185	1	0
488.355	1	12
488.525	1	13
488.696	1	4
488.866	1	-6
489.036	1	4
489.207	1	4
489.377	1	3
489.547	1	-6
489.718	1	1
489.888	1	3
490.058	1	0
490.228	1	-13
490.399	1	-2
490.569	1	7
490.739	1	4
490.910	1	2
491.080	1	10
491.250	1	16
491.421	1	-3
491.591	1	1
491.761	1	3
491.932	1	7
492.102	1	-6
492.272	1	-7
492.442	1	7
492.613	1	2
492.783	1	5
492.953	1	9
493.124	1	8
493.294	1	8
493.464	1	-7
493.635	1	-1
493.805	1	-1
493.975	1	2
494.145	1	1
494.316	1	10
494.486	1	15
494.656	1	0
494.827	1	9
494.997	1	2
495.167	1	5
495.337	1	3
495.508	1	10
495.678	1	3
495.848	1	-7
496.019	1	-1
496.189	1	3
496.359	1	-10
496.529	1	10
496.700	1	4
496.870	1	2
497.040	1	1
497.211	1	1
497.381	1	-1
497.551	1	1
497.721	1	-2
497.892	1	3
498.062	1	4
498.232	1	3
498.403	1	7
498.573	1	10
498.743	1	11
498.913	1	-15
499.084	1	0
499.254	1	-2
499.424	1	-2
499.594	1	2
499.765	1	-6
499.935	1	5
500.105	1	2
500.275	1	6
500.446	1	4
500.616	1	2
500.786	1	-1
500.956	1	2
501.127	1	3
501.297	1	-1
501.467	1	2
501.638	1	19
501.808	1	6
501.978	1	5
502.148	1	4
502.319	1	3
502.489	1	7
502.659	1	-3
502.829	1	9
503.000	1	11
503.170	1	5
503.340	1	12
503.510	1	5
503.681	1	-1
503.851	1	-5
504.021	1	7
504.191	1	0
504.362	1	0
504.532	1	-9
504.702	1	3
504.872	1	6
505.042	1	10
505.213	1	13
505.383	1	9
505.553	1	6
505.723	1	4
505.894	1	-8
506.064	1	-8
506.234	1	-2
506.404	1	-1
506.575	1	-1
506.745	1	5
506.915	1	-7
507.085	1	-3
507.256	1	6
507.426	1	-1
507.596	1	-2
507.766	1	-3
507.936	1	0
508.107	1	7
508.277	1	11
508.447	1	6
508.617	1	-1
508.788	1	-3
508.958	1	12
509.128	1	4
509.298	1	3
509.468	1	2
509.639	1	-2
509.809	1	-1
509.979	1	6
510.149	1	6
510.319	1	4
510.490	1	-11
510.660	1	13
510.830	1	-2
511.000	1	3
511.171	1	11
511.341	1	6
511.511	1	9
511.681	1	-4
511.851	1	2
512.022	1	2
512.192	1	2
512.362	1	7
512.532	1	-3
512.702	1	10
512.873	1	-1
513.043	1	12
513.213	1	3
513.383	1	-3
513.553	1	3
513.724	1	13
513.894	1	9
514.064	1	1
514.234	1	7
514.404	1	6
514.575	1	11
514.745	1	-1
514.915	1	-7
515.085	1	-2
515.255	1	-16
515.425	1	7
515.596	1	9
515.766	1	1
515.936	1	9
516.106	1	11
516.276	1	7
516.447	1	4
516.617	1	-2
516.787	1	-1
516.957	1	-5
517.127	1	6
517.297	1	2
517.468	1	7
517.638	1	4
517.808	1	5
517.978	1	-5
518.148	1	11
518.319	1	0
518.489	1	4
518.659	1	-2
518.829	1	6
518.999	1	-1
519.169	1	-5
519.340	1	-3
519.510	1	-4
519.680	1	8
519.850	1	6
520.020	1	1
520.190	1	1
520.361	1	0
520.531	1	14
520.701	1	-3
520.871	1	3
521.041	1	5
521.211	1	-12
521.382	1	14
521.552	1	-1
521.722	1	-2
521.892	1	-1
522.062	1	-6
522.232	1	1
522.402	1	8
522.573	1	2
522.743	1	12
522.913	1	-2
523.083	1	20
523.253	1	4
523.423	1	8
523.593	1	-8
523.764	1	-2
523.934	1	9
524.104	1	3
524.274	1	-7
524.444	1	12
524.614	1	3
524.784	1	-1
524.955	1	-3
525.125	1	2
525.295	1	-2
525.465	1	-12
525.635	1	-2
525.805	1	13
525.975	1	4
526.146	1	8
526.316	1	-4
526.486	1	4
526.656	1	-2
526.826	1	0
526.996	1	-1
527.166	1	7
527.337	1	2
527.507	1	6
527.677	1	-1
527.847	1	-4
528.017	1	-2
528.187	1	-7
528.357	1	3
528.527	1	7
528.698	1	-6
528.868	1	7
529.038	1	2
529.208	1	1
529.378	1	5
529.548	1	4
529.718	1	-8
529.888	1	2
530.058	1	-4
530.229	1	-1
530.399	1	-5
530.569	1	8
530.739	1	4
530.909	1	1
531.079	1	-7
531.249	1	3
531.419	1	5
531.589	1	1
531.760	1	-2
531.930	1	4
532.100	1	7
532.270	1	12
532.440	1	13
532.610	1	4
532.780	1	-2
532.950	1	12
533.120	1	11
533.290	1	-12
533.461	1	-6
533.631	1	-4
533.801	1	3
533.971	1	7
534.141	1	10
534.311	1	3
534.481	1	3
534.651	1	-3
534.821	1	5
534.991	1	9
535.162	1	-10
535.332	1	-1
535.502	1	5
535.672	1	-2
535.842	1	-2
536.012	1	6
536.182	1	-2
536.352	1	11
536.522	1	-6
536.692	1	0
536.862	1	-5
537.032	1	4
537.203	1	8
537.373	1	-9
537.543	1	15
537.713	1	3
537.883	1	3
538.053	1	10
538.223	1	-4
538.393	1	1
538.563	1	-3
538.733	1	1
538.903	1	-2
539.073	1	14
539.243	1	10
539.413	1	2
539.584	1	10
539.754	1	3
539.924	1	-4
540.094	1	0
540.264	1	1
540.434	1	-8
540.604	1	-3
540.774	1	7
540.944	1	13
541.114	1	-2
541.284	1	2
541.454	1	6
541.624	1	-2
541.794	1	-1
541.964	1	2
542.134	1	7
542.305	1	4
542.475	1	3
542.645	1	-3
542.815	1	16
542.985	1	12
543.155	1	3
543.325	1	3
543.495	1	13
543.665	1	-6
543.835	1	0
544.005	1	9
544.175	1	0
544.345	1	6
544.515	1	-6
544.685	1	8
544.855	1	7
545.025	1	2
545.195	1	1
545.365	1	7
545.535	1	-2
545.705	1	-1
545.875	1	2
546.045	1	-4
546.216	1	5
546.386	1	5
546.556	1	9
546.726	1	11
546.896	1	3
547.066	1	-5
547.236	1	3
547.406	1	4
547.576	1	-5
547.746	1	-1
547.916	1	0
548.086	1	6
548.256	1	10
548.426	1	10
548.596	1	11
548.766	1	0
548.936	1	12
549.106	1	2
549.276	1	-2
549.446	1	7
549.616	1	7
549.786	1	5
549.956	1	8
550.126	1	-10
550.296	1	4
550.466	1	-7
550.636	1	5
550.806	1	5
550.976	1	11
551.146	1	0
551.316	1	-1
551.486	1	4
551.656	1	3
551.826	1	0
551.996	1	10
552.166	1	6
552.336	1	2
552.506	1	4
552.676	1	9
552.846	1	-5
553.016	1	-2
553.186	1	2
553.356	1	-1
553.526	1	6
553.696	1	1
553.866	1	3
554.036	1	18
554.206	1	-2
554.376	1	2
554.546	1	4
554.716	1	-5
554.886	1	8
555.056	1	9
555.226	1	2
555.396	1	4
555.566	1	3
555.736	1	-4
555.906	1	0
556.076	1	1
556.246	1	9
556.416	1	6
556.586	1	-7
556.756	1	5
556.926	1	-2
557.096	1	1
557.266	1	3
557.436	1	3
557.606	1	1
557.776	1	3
557.946	1	7
558.116	1	19
558.286	1	9
558.456	1	8
558.626	1	-8
558.796	1	12
558.966	1	8
559.136	1	-1
559.306	1	10
559.476	1	-6
559.646	1	-8
559.816	1	-2
559.986	1	0
560.155	1	3
560.325	1	-3
560.495	1	6
560.665	1	3
560.835	1	4
561.005	1	2
561.175	1	3
561.345	1	0
561.515	1	-3
561.685	1	6
561.855	1	6
562.025	1	5
562.195	1	13
562.365	1	-9
562.535	1	20
562.705	1	3
562.875	1	6
563.045	1	-3
563.215	1	14
563.385	1	12
563.555	1	10
563.725	1	2
563.895	1	8
564.064	1	1
564.234	1	-2
564.404	1	8
564.574	1	17
564.744	1	-12
564.914	1	3
565.084	1	1
565.254	1	10
565.424	1	-4
565.594	1	1
565.764	1	6
565.934	1	1
566.104	1	-4
566.274	1	0
566.444	1	9
566.614	1	6
566.783	1	10
566.953	1	0
567.123	1	0
567.293	1	-3
567.463	1	1
567.633	1	-1
567.803	1	5
567.973	1	8
568.143	1	5
568.313	1	16
568.483	1	6
568.653	1	10
568.823	1	-8
568.993	1	17
569.162	1	2
569.332	1	0
569.502	1	-1
569.672	1	2
569.842	1	-1
570.012	1	12
570.182	1	2
570.352	1	12
570.522	1	8
570.692	1	1
570.862	1	9
571.031	1	-5
571.201	1	-6
571.371	1	-1
571.541	1	9
571.711	1	12
571.881	1	5
572.051	1	7
572.221	1	-4
572.391	1	-5
572.561	1	-12
572.731	1	0
572.900	1	6
573.070	1	1
573.240	1	2
573.410	1	8
573.580	1	2
573.750	1	11
573.920	1	1
574.090	1	10
574.260	1	-1
574.430	1	13
574.599	1	19
574.769	1	8
574.939	1	-7
575.109	1	15
575.279	1	8
575.449	1	5
575.619	1	-3
575.789	1	2
575.959	1	9
576.128	1	4
576.298	1	4
576.468	1	-9
576.638	1	9
576.808	1	5
576.978	1	16
577.148	1	-4
577.318	1	12
577.487	1	-2
577.657	1	3
577.827	1	2
577.997	1	4
578.167	1	-7
578.337	1	12
578.507	1	-7
578.677	1	7
578.846	1	0
579.016	1	7
579.186	1	-2
579.356	1	8
579.526	1	3
579.696	1	-9
579.866	1	-3
580.036	1	1
580.205	1	5
580.375	1	13
580.545	1	4
580.715	1	3
580.885	1	0
581.055	1	6
581.225	1	9
581.394	1	6
581.564	1	-6
581.734	1	7
581.904	1	6
582.074	1	0
582.244	1	0
582.414	1	6
582.583	1	3
582.753	1	-6
582.923	1	-7
583.093	1	18
583.263	1	-1
583.433	1	-2
583.603	1	17
583.772	1	15
583.942	1	6
584.112	1	-6
584.282	1	10
584.452	1	8
584.622	1	-6
584.791	1	6
584.961	1	2
585.131	1	2
585.301	1	5
585.471	1	6
585.641	1	0
585.811	1	13
585.980	1	-2
586.150	1	-2
586.320	1	21
586.490	1	-7
586.660	1	11
586.830	1	8
586.999	1	3
587.169	1	8
587.339	1	-1
587.509	1	2
587.679	1	3
587.849	1	7
588.018	1	3
588.188	1	10
588.358	1	1
588.528	1	2
588.698	1	7
588.867	1	12
589.037	1	12
589.207	1	3
589.377	1	1
589.547	1	6
589.717	1	-8
589.886	1	18
590.056	1	7
590.226	1	1
590.396	1	5
590.566	1	1
590.735	1	2
590.905	1	-1
591.075	1	-6
591.245	1	3
591.415	1	1
591.585	1	-5
591.754	1	6
591.924	1	-15
592.094	1	0
592.264	1	4
592.434	1	14
592.603	1	-5
592.773	1	-1
592.943	1	-2
593.113	1	9
593.283	1	-5
593.452	1	1
593.622	1	-1
593.792	1	-3
593.962	1	-1
594.132	1	6
594.301	1	3
594.471	1	-1
594.641	1	4
594.811	1	6
594.981	1	3
595.150	1	9
595.320	1	-2
595.490	1	12
595.660	1	2
595.829	1	6
595.999	1	-2
596.169	1	-1
596.339	1	14
596.509	1	-4
596.678	1	10
596.848	1	2
597.018	1	3
597.188	1	4
597.358	1	1
597.527	1	14
597.697	1	0
597.867	1	1
598.037	1	3
598.206	1	2
598.376	1	1
598.546	1	2
598.716	1	12
598.885	1	8
599.055	1	1
599.225	1	0
599.395	1	6
599.565	1	-7
599.734	1	5
599.904	1	8
600.074	1	-2
600.244	1	5
600.413	1	8
600.583	1	6
600.753	1	14
600.923	1	5
601.092	1	6
601.262	1	11
601.432	1	-7
601.602	1	7
601.771	1	1
601.941	1	8
602.111	1	-1
602.281	1	0
602.451	1	12
602.620	1	-5
602.790	1	-4
602.960	1	10
603.130	1	6
603.299	1	9
603.469	1	-3
603.639	1	0
603.809	1	3
603.978	1	11
604.148	1	4
604.318	1	7
604.487	1	4
604.657	1	9
604.827	1	12
604.997	1	1
605.166	1	5
605.336	1	11
605.506	1	-4
605.676	1	8
605.845	1	7
606.015	1	3
606.185	1	2
606.355	1	7
606.524	1	4
606.694	1	-1
606.864	1	-6
607.034	1	-3
607.203	1	13
607.373	1	3
607.543	1	3
607.712	1	6
607.882	1	9
608.052	1	-7
608.222	1	10
608.391	1	8
608.561	1	6
608.731	1	9
608.901	1	4
609.070	1	-2
609.240	1	-2
609.410	1	7
609.579	1	-3
609.749	1	-4
609.919	1	4
610.089	1	2
610.258	1	6
610.428	1	6
610.598	1	11
610.767	1	3
610.937	1	3
611.107	1	2
611.277	1	4
611.446	1	8
611.616	1	4
611.786	1	8
611.955	1	-1
612.125	1	-3
612.295	1	5
612.465	1	7
612.634	1	10
612.804	1	7
612.974	1	5
613.143	1	-1
613.313	1	4
613.483	1	-16
613.652	1	7
613.822	1	7
613.992	1	3
614.162	1	15
614.331	1	-5
614.501	1	8
614.671	1	10
614.840	1	7
615.010	1	5
615.180	1	2
615.349	1	-5
615.519	1	4
615.689	1	8
615.858	1	3
616.028	1	4
616.198	1	8
616.368	1	16
616.537	1	-4
616.707	1	-2
616.877	1	-7
617.046	1	1
617.216	1	5
617.386	1	1
617.555	1	5
617.725	1	4
617.895	1	17
618.064	1	-6
618.234	1	3
618.404	1	13
618.573	1	10
618.743	1	-9
618.913	1	-1
619.082	1	13
619.252	1	11
619.422	1	14
619.591	1	5
619.761	1	1
619.931	1	-7
620.100	1	3
620.270	1	-6
620.440	1	11
620.609	1	15
620.779	1	-1
620.949	1	2
621.118	1	-5
621.288	1	-2
621.458	1	9
621.627	1	5
621.797	1	8
621.967	1	6
622.136	1	6
622.306	1	13
622.476	1	16
622.645	1	2
622.815	1	-3
622.985	1	-6
623.154	1	-3
623.324	1	7
623.494	1	-1
623.663	1	4
623.833	1	10
624.002	1	-7
624.172	1	2
624.342	1	1
624.511	1	4
624.681	1	2
624.851	1	-1
625.020	1	3
625.190	1	-3
625.360	1	6
625.529	1	-2
625.699	1	7
625.869	1	-4
626.038	1	3
626.208	1	10
626.377	1	10
626.547	1	-7
626.717	1	-4
626.886	1	11
627.056	1	8
627.226	1	7
627.395	1	7
627.565	1	3
627.735	1	10
627.904	1	4
628.074	1	4
628.243	1	1
628.413	1	-5
628.583	1	5
628.752	1	-1
628.922	1	0
629.091	1	-8
629.261	1	-2
629.431	1	-5
629.600	1	7
629.770	1	-7
629.940	1	0
630.109	1	10
630.279	1	4
630.448	1	2
630.618	1	-5
630.788	1	2
630.957	1	6
631.127	1	9
631.297	1	-10
631.466	1	4
631.636	1	10
631.805	1	9
631.975	1	10
632.145	1	-1
632.314	1	-6
632.484	1	1
632.653	1	3
632.823	1	20
632.993	1	6
633.162	1	4
633.332	1	8
633.501	1	-2
633.671	1	-6
633.841	1	8
634.010	1	-2
634.180	1	5
634.349	1	-2
634.519	1	8
634.689	1	8
634.858	1	6
635.028	1	1
635.197	1	5
635.367	1	-2
635.537	1	23
635.706	1	5
635.876	1	4
636.045	1	5
636.215	1	9
636.384	1	8
636.554	1	7
636.724	1	13
636.893	1	8
637.063	1	-10
637.232	1	7
637.402	1	-5
637.572	1	6
637.741	1	8
637.911	1	-2
638.080	1	12
638.250	1	0
638.419	1	6
638.589	1	-2
638.759	1	1
638.928	1	6
639.098	1	13
639.267	1	6
639.437	1	-3
639.606	1	1
639.776	1	4
639.946	1	-6
640.115	1	-14
640.285	1	1
640.454	1	2
640.624	1	2
640.793	1	1
640.963	1	1
641.132	1	-4
641.302	1	1
641.472	1	12
641.641	1	6
641.811	1	5
641.980	1	-2
642.150	1	-1
642.319	1	2
642.489	1	-8
642.659	1	3
642.828	1	2
642.998	1	-7
643.167	1	2
643.337	1	3
643.506	1	-8
643.676	1	12
643.845	1	-6
644.015	1	7
644.184	1	0
644.354	1	-5
644.524	1	-2
644.693	1	8
644.863	1	10
645.032	1	-3
645.202	1	-11
645.371	1	12
645.541	1	3
645.710	1	-4
645.880	1	5
646.049	1	-2
646.219	1	1
646.388	1	-7
646.558	1	3
646.728	1	-8
646.897	1	12
647.067	1	1
647.236	1	4
647.406	1	6
647.575	1	0
647.745	1	5
647.914	1	3
648.084	1	10
648.253	1	2
648.423	1	4
648.592	1	11
648.762	1	7
648.931	1	10
649.101	1	-8
649.270	1	0
649.440	1	7
649.610	1	-3
649.779	1	8
649.949	1	-8
650.118	1	-4
650.288	1	2
650.457	1	-9
650.627	1	4
650.796	1	2
650.966	1	6
651.135	1	-5
651.305	1	6
651.474	1	12
651.644	1	6
651.813	1	2
651.983	1	-5
652.152	1	8
652.322	1	8
652.491	1	7
652.661	1	8
652.830	1	0
653.000	1	3
653.169	1	-3
653.339	1	1
653.508	1	9
653.678	1	8
653.847	1	-3
654.017	1	4
654.186	1	11
654.356	1	-1
654.525	1	1
654.695	1	5
654.864	1	-9
655.034	1	8
655.203	1	5
655.373	1	6
655.542	1	-3
655.712	1	3
655.881	1	10
656.051	1	4
656.220	1	3
656.390	1	13
656.559	1	1
656.729	1	2
656.898	1	-4
657.068	1	7
657.237	1	0
657.406	1	4
657.576	1	-3
657.745	1	7
657.915	1	8
658.084	1	-5
658.254	1	-1
658.423	1	4
658.593	1	-4
658.762	1	4
658.932	1	8
659.101	1	3
659.271	1	4
659.440	1	4
659.610	1	2
659.779	1	8
659.949	1	-5
660.118	1	0
660.288	1	1
660.457	1	2
660.626	1	1
660.796	1	5
660.965	1	4
661.135	1	11
661.304	1	6
661.474	1	7
661.643	1	-2
661.813	1	-11
661.982	1	3
662.152	1	-7
662.321	1	-1
662.491	1	0
662.660	1	9
662.829	1	12
662.999	1	-1
663.168	1	6
663.338	1	0
663.507	1	-2
663.677	1	-5
663.846	1	-15
664.016	1	16
664.185	1	10
664.354	1	-2
664.524	1	8
664.693	1	-1
664.863	1	-1
665.032	1	2
665.202	1	9
665.371	1	1
665.541	1	-1
665.710	1	0
665.879	1	8
666.049	1	0
666.218	1	-7
666.388	1	1
666.557	1	-3
666.727	1	-4
666.896	1	-1
667.065	1	9
667.235	1	5
667.404	1	12
667.574	1	3
667.743	1	-4
667.913	1	8
668.082	1	14
668.251	1	5
668.421	1	7
668.590	1	-4
668.760	1	6
668.929	1	-7
669.099	1	2
669.268	1	1
669.437	1	8
669.607	1	-7
669.776	1	11
669.946	1	-6
670.115	1	1
670.285	1	0
670.454	1	13
670.623	1	-3
670.793	1	-1
670.962	1	1
671.132	1	3
671.301	1	-3
671.470	1	-7
671.640	1	3
671.809	1	-9
671.979	1	4
672.148	1	4
672.317	1	7
672.487	1	13
672.656	1	2
672.826	1	6
672.995	1	2
673.164	1	1
673.334	1	-2
673.503	1	9
673.673	1	1
673.842	1	2
674.011	1	3
674.181	1	-2
674.350	1	4
674.520	1	3
674.689	1	15
674.858	1	0
675.028	1	5
675.197	1	-4
675.367	1	1
675.536	1	-7
675.705	1	2
675.875	1	-8
676.044	1	3
676.214	1	14
676.383	1	21
676.552	1	5
676.722	1	14
676.891	1	-4
677.060	1	7
677.230	1	-12
677.399	1	-1
677.569	1	-8
677.738	1	-6
677.907	1	1
678.077	1	5
678.246	1	5
678.416	1	4
678.585	1	1
678.754	1	10
678.924	1	5
679.093	1	1
679.262	1	-3
679.432	1	-1
679.601	1	6
679.771	1	7
679.940	1	4
680.109	1	-5
680.279	1	1
680.448	1	-1
680.617	1	0
680.787	1	3
680.956	1	4
681.125	1	5
681.295	1	10
681.464	1	5
681.634	1	-6
681.803	1	1
681.972	1	-2
682.142	1	4
682.311	1	11
682.480	1	-13
682.650	1	4
682.819	1	3
682.988	1	5
683.158	1	-2
683.327	1	6
683.496	1	5
683.666	1	3
683.835	1	-6
684.004	1	2
684.174	1	-1
684.343	1	13
684.512	1	-1
684.682	1	3
684.851	1	0
685.021	1	-1
685.190	1	-6
685.359	1	-2
685.529	1	-6
685.698	1	6
685.867	1	20
686.037	1	6
686.206	1	9
686.375	1	-7
686.545	1	1
686.714	1	-4
686.883	1	5
687.053	1	5
687.222	1	5
687.391	1	5
687.561	1	3
687.730	1	7
687.899	1	3
688.069	1	0
688.238	1	0
688.407	1	8
688.577	1	4
688.746	1	-4
