340.368	1	-2
340.539	1	13
340.710	1	-1
340.881	1	3
341.052	1	10
341.223	1	-1
341.394	1	-6
341.565	1	-7
341.737	1	0
341.908	1	-4
342.079	1	-4
342.250	1	0
342.421	1	-12
342.592	1	-3
342.763	1	-11
342.934	1	8
343.105	1	8
343.276	1	-6
343.447	1	4
343.618	1	-1
343.789	1	2
343.960	1	-15
344.131	1	-15
344.302	1	6
344.473	1	-3
344.644	1	7
344.815	1	2
344.986	1	-12
345.157	1	-6
345.328	1	-3
345.499	1	4
345.670	1	2
345.841	1	-3
346.012	1	10
346.183	1	5
346.354	1	3
346.526	1	-7
346.697	1	5
346.868	1	-3
347.039	1	2
347.210	1	-4
347.381	1	-1
347.552	1	-8
347.723	1	-2
347.894	1	7
348.065	1	-11
348.236	1	2
348.407	1	-6
348.578	1	-10
348.749	1	9
348.920	1	7
349.091	1	6
349.262	1	-6
349.433	1	1
349.604	1	4
349.775	1	8
349.946	1	6
350.117	1	6
350.288	1	-2
350.459	1	-2
350.630	1	5
350.801	1	4
350.972	1	7
351.143	1	11
351.314	1	-4
351.485	1	0
351.656	1	0
351.827	1	-4
351.998	1	-2
352.169	1	-3
352.340	1	8
352.511	1	-1
352.682	1	6
352.853	1	5
353.024	1	-1
353.195	1	-8
353.366	1	-1
353.537	1	3
353.708	1	11
353.879	1	2
354.050	1	7
354.221	1	9
354.392	1	-2
354.563	1	7
354.734	1	1
354.905	1	-1
355.076	1	-7
355.247	1	1
355.418	1	-10
355.589	1	-4
355.760	1	-5
355.931	1	-1
356.102	1	-3
356.273	1	-3
356.444	1	-4
356.615	1	6
356.785	1	4
356.956	1	3
357.127	1	1
357.298	1	7
357.469	1	10
357.640	1	15
357.811	1	1
357.982	1	-2
358.153	1	-2
358.324	1	12
358.495	1	-4
358.666	1	3
358.837	1	-3
359.008	1	2
359.179	1	1
359.350	1	7
359.521	1	6
359.692	1	18
359.863	1	13
360.034	1	6
360.205	1	8
360.376	1	2
360.547	1	-3
360.718	1	2
360.889	1	16
361.060	1	10
361.231	1	-7
361.401	1	7
361.572	1	7
361.743	1	-2
361.914	1	7
362.085	1	4
362.256	1	-1
362.427	1	10
362.598	1	10
362.769	1	5
362.940	1	6
363.111	1	6
363.282	1	4
363.453	1	5
363.624	1	11
363.795	1	4
363.966	1	1
364.137	1	8
364.308	1	3
364.478	1	-1
364.649	1	0
364.820	1	9
364.991	1	10
365.162	1	2
365.333	1	3
365.504	1	3
365.675	1	1
365.846	1	17
366.017	1	7
366.188	1	0
366.359	1	1
366.530	1	12
366.701	1	16
366.871	1	6
367.042	1	13
367.213	1	12
367.384	1	8
367.555	1	14
367.726	1	14
367.897	1	14
368.068	1	8
368.239	1	4
368.410	1	-1
368.581	1	5
368.752	1	8
368.923	1	9
369.093	1	13
369.264	1	1
369.435	1	4
369.606	1	8
369.777	1	6
369.948	1	13
370.119	1	-4
370.290	1	26
370.461	1	22
370.632	1	9
370.803	1	0
370.973	1	11
371.144	1	18
371.315	1	6
371.486	1	15
371.657	1	15
371.828	1	9
371.999	1	-1
372.170	1	4
372.341	1	14
372.512	1	5
372.682	1	16
372.853	1	9
373.024	1	10
373.195	1	4
373.366	1	15
373.537	1	5
373.708	1	15
373.879	1	5
374.050	1	8
374.220	1	14
374.391	1	16
374.562	1	2
374.733	1	0
374.904	1	-3
375.075	1	11
375.246	1	18
375.417	1	8
375.588	1	1
375.758	1	2
375.929	1	9
376.100	1	23
376.271	1	8
376.442	1	4
376.613	1	12
376.784	1	4
376.955	1	13
377.125	1	3
377.296	1	8
377.467	1	-1
377.638	1	14
377.809	1	3
377.980	1	9
378.151	1	12
378.321	1	10
378.492	1	4
378.663	1	10
378.834	1	-3
379.005	1	8
379.176	1	10
379.347	1	15
379.518	1	19
379.688	1	0
379.859	1	-6
380.030	1	14
380.201	1	5
380.372	1	-2
380.543	1	3
380.714	1	25
380.884	1	2
381.055	1	4
381.226	1	-4
381.397	1	6
381.568	1	7
381.739	1	12
381.910	1	11
382.080	1	8
382.251	1	4
382.422	1	12
382.593	1	11
382.764	1	4
382.935	1	9
383.105	1	5
383.276	1	12
383.447	1	1
383.618	1	4
383.789	1	5
383.960	1	7
384.130	1	-5
384.301	1	10
384.472	1	11
384.643	1	8
384.814	1	4
384.985	1	3
385.156	1	5
385.326	1	1
385.497	1	11
385.668	1	7
385.839	1	5
386.010	1	10
386.180	1	13
386.351	1	-3
386.522	1	6
386.693	1	-1
386.864	1	9
387.035	1	20
387.205	1	11
387.376	1	2
387.547	1	6
387.718	1	-2
387.889	1	3
388.060	1	-2
388.230	1	8
388.401	1	21
388.572	1	10
388.743	1	14
388.914	1	-8
389.084	1	10
389.255	1	4
389.426	1	8
389.597	1	14
389.768	1	12
389.939	1	6
390.109	1	-3
390.280	1	-3
390.451	1	6
390.622	1	7
390.793	1	7
390.963	1	12
391.134	1	10
391.305	1	8
391.476	1	4
391.647	1	5
391.817	1	1
391.988	1	0
392.159	1	2
392.330	1	1
392.501	1	9
392.671	1	-8
392.842	1	5
393.013	1	7
393.184	1	2
393.355	1	-1
393.525	1	7
393.696	1	6
393.867	1	-9
394.038	1	15
394.208	1	5
394.379	1	6
394.550	1	-8
394.721	1	13
394.892	1	10
395.062	1	-9
395.233	1	11
395.404	1	-1
395.575	1	5
395.746	1	4
395.916	1	-3
396.087	1	3
396.258	1	10
396.429	1	17
396.599	1	-4
396.770	1	-2
396.941	1	7
397.112	1	12
397.283	1	-3
397.453	1	4
397.624	1	-6
397.795	1	16
397.966	1	8
398.136	1	8
398.307	1	3
398.478	1	9
398.649	1	7
398.819	1	-1
398.990	1	6
399.161	1	7
399.332	1	9
399.503	1	4
399.673	1	13
399.844	1	7
400.015	1	4
400.186	1	2
400.356	1	13
400.527	1	-7
400.698	1	11
400.869	1	3
401.039	1	10
401.210	1	5
401.381	1	6
401.552	1	10
401.722	1	-2
401.893	1	8
402.064	1	2
402.235	1	8
402.405	1	2
402.576	1	-3
402.747	1	5
402.918	1	-6
403.088	1	-5
403.259	1	-3
403.430	1	-11
403.601	1	1
403.771	1	13
403.942	1	-1
404.113	1	-7
404.284	1	17
404.454	1	-1
404.625	1	4
404.796	1	-2
404.967	1	3
405.137	1	12
405.308	1	3
405.479	1	-3
405.649	1	13
405.820	1	7
405.991	1	5
406.162	1	4
406.332	1	-5
406.503	1	8
406.674	1	9
406.845	1	-5
407.015	1	-4
407.186	1	4
407.357	1	13
407.527	1	1
407.698	1	-2
407.869	1	-8
408.040	1	1
408.210	1	5
408.381	1	6
408.552	1	5
408.722	1	-1
408.893	1	2
409.064	1	-3
409.235	1	12
409.405	1	0
409.576	1	13
409.747	1	3
409.917	1	0
410.088	1	5
410.259	1	-3
410.430	1	7
410.600	1	-9
410.771	1	-3
410.942	1	2
411.112	1	-5
411.283	1	8
411.454	1	2
411.625	1	2
411.795	1	6
411.966	1	1
412.137	1	-1
412.307	1	-9
412.478	1	-4
412.649	1	-7
412.819	1	2
412.990	1	3
413.161	1	9
413.332	1	1
413.502	1	-3
413.673	1	7
413.844	1	7
414.014	1	8
414.185	1	-3
414.356	1	-5
414.526	1	1
414.697	1	1
414.868	1	-3
415.038	1	10
415.209	1	5
415.380	1	3
415.550	1	-5
415.721	1	8
415.892	1	-1
416.063	1	3
416.233	1	9
416.404	1	-1
416.575	1	7
416.745	1	0
416.916	1	7
417.087	1	3
417.257	1	1
417.428	1	-3
417.599	1	3
417.769	1	0
417.940	1	3
418.111	1	8
418.281	1	16
418.452	1	6
418.623	1	6
418.793	1	-1
418.964	1	5
419.135	1	3
419.305	1	5
419.476	1	0
419.647	1	0
419.817	1	-1
419.988	1	4
420.159	1	14
420.329	1	2
420.500	1	-9
420.671	1	10
420.841	1	-7
421.012	1	2
421.183	1	-2
421.353	1	-1
421.524	1	4
421.695	1	5
421.865	1	15
422.036	1	-5
422.206	1	2
422.377	1	-5
422.548	1	0
422.718	1	2
422.889	1	11
423.060	1	8
423.230	1	6
423.401	1	9
423.572	1	5
423.742	1	-3
423.913	1	6
424.084	1	-7
424.254	1	-5
424.425	1	14
424.595	1	5
424.766	1	-5
424.937	1	7
425.107	1	11
425.278	1	0
425.449	1	3
425.619	1	20
425.790	1	7
425.961	1	1
426.131	1	-5
426.302	1	2
426.472	1	-10
426.643	1	0
426.814	1	1
426.984	1	9
427.155	1	4
427.326	1	3
427.496	1	2
427.667	1	10
427.837	1	1
428.008	1	7
428.179	1	8
428.349	1	-1
428.520	1	-9
428.691	1	9
428.861	1	-13
429.032	1	-2
429.202	1	10
429.373	1	-4
429.544	1	5
429.714	1	6
429.885	1	0
430.055	1	5
430.226	1	8
430.397	1	7
430.567	1	-3
430.738	1	4
430.909	1	-4
431.079	1	-7
431.250	1	1
431.420	1	9
431.591	1	5
431.762	1	10
431.932	1	3
432.103	1	-8
432.273	1	7
432.444	1	6
432.615	1	0
432.785	1	10
432.956	1	8
433.126	1	4
433.297	1	-2
433.468	1	10
433.638	1	9
433.809	1	1
433.979	1	-5
434.150	1	8
434.320	1	-8
434.491	1	1
434.662	1	2
434.832	1	-2
435.003	1	10
435.173	1	-4
435.344	1	9
435.515	1	0
435.685	1	0
435.856	1	-2
436.026	1	13
436.197	1	9
436.368	1	5
436.538	1	-1
436.709	1	13
436.879	1	-1
437.050	1	0
437.220	1	-8
437.391	1	3
437.562	1	14
437.732	1	0
437.903	1	0
438.073	1	-4
438.244	1	4
438.414	1	3
438.585	1	7
438.756	1	5
438.926	1	-5
439.097	1	3
439.267	1	-3
439.438	1	11
439.608	1	1
439.779	1	3
439.949	1	6
440.120	1	10
440.291	1	4
440.461	1	4
440.632	1	1
440.802	1	9
440.973	1	-2
441.143	1	12
441.314	1	6
441.485	1	3
441.655	1	1
441.826	1	4
441.996	1	12
442.167	1	-2
442.337	1	-5
442.508	1	2
442.678	1	7
442.849	1	8
443.019	1	5
443.190	1	2
443.361	1	2
443.531	1	-7
443.702	1	1
443.872	1	-5
444.043	1	3
444.213	1	-4
444.384	1	6
444.554	1	16
444.725	1	7
444.895	1	2
445.066	1	8
445.237	1	1
445.407	1	-9
445.578	1	0
445.748	1	6
445.919	1	9
446.089	1	-6
446.260	1	2
446.430	1	10
446.601	1	-6
446.771	1	-1
446.942	1	-1
447.112	1	-1
447.283	1	7
447.453	1	0
447.624	1	3
447.794	1	9
447.965	1	4
448.135	1	6
448.306	1	5
448.477	1	-7
448.647	1	1
448.818	1	-12
448.988	1	3
449.159	1	3
449.329	1	14
449.500	1	-4
449.670	1	-1
449.841	1	2
450.011	1	-1
450.182	1	-14
450.352	1	-2
450.523	1	-2
450.693	1	4
450.864	1	-6
451.034	1	11
451.205	1	-14
451.375	1	-2
451.546	1	-6
451.716	1	0
451.887	1	0
452.057	1	3
452.228	1	-1
452.398	1	13
452.569	1	-7
452.739	1	-6
452.910	1	-1
453.080	1	13
453.251	1	8
453.421	1	-9
453.592	1	-5
453.762	1	10
453.933	1	-1
454.103	1	4
454.274	1	-6
454.444	1	5
454.615	1	5
454.785	1	7
454.956	1	11
455.126	1	-1
455.297	1	-3
455.467	1	0
455.638	1	-1
455.808	1	3
455.979	1	10
456.149	1	-5
456.320	1	5
456.490	1	-1
456.661	1	18
456.831	1	-2
457.001	1	11
457.172	1	4
457.342	1	2
457.513	1	6
457.683	1	-5
457.854	1	-8
458.024	1	-10
458.195	1	-5
458.365	1	-3
458.536	1	6
458.706	1	5
458.877	1	10
459.047	1	-3
459.218	1	2
459.388	1	-9
459.559	1	5
459.729	1	3
459.899	1	-6
460.070	1	10
460.240	1	2
460.411	1	2
460.581	1	1
460.752	1	9
460.922	1	-7
461.093	1	2
461.263	1	5
461.434	1	-6
461.604	1	3
461.775	1	2
461.945	1	2
462.115	1	14
462.286	1	-6
462.456	1	1
462.627	1	-6
462.797	1	-3
462.968	1	-6
463.138	1	15
463.309	1	6
463.479	1	-11
463.649	1	9
463.820	1	4
463.990	1	9
464.161	1	2
464.331	1	3
464.502	1	5
464.672	1	13
464.843	1	7
465.013	1	0
465.183	1	5
465.354	1	-2
465.524	1	-3
465.695	1	0
465.865	1	-6
466.036	1	0
466.206	1	-3
466.376	1	1
466.547	1	1
466.717	1	-3
466.888	1	4
467.058	1	8
467.229	1	-3
467.399	1	6
467.569	1	-4
467.740	1	-9
467.910	1	-1
468.081	1	4
468.251	1	14
468.422	1	12
468.592	1	-9
468.762	1	-6
468.933	1	3
469.103	1	1
469.274	1	1
469.444	1	-3
469.614	1	-3
469.785	1	4
469.955	1	11
470.126	1	7
470.296	1	5
470.467	1	10
470.637	1	-8
470.807	1	-5
470.978	1	-1
471.148	1	3
471.319	1	-2
471.489	1	-2
471.659	1	6
471.830	1	4
472.000	1	-7
472.171	1	-7
472.341	1	7
472.511	1	10
472.682	1	-7
472.852	1	5
473.023	1	6
473.193	1	3
473.363	1	3
473.534	1	3
473.704	1	5
473.875	1	7
474.045	1	-2
474.215	1	-6
474.386	1	5
474.556	1	7
474.727	1	-2
474.897	1	-3
475.067	1	1
475.238	1	10
475.408	1	-7
475.578	1	-4
475.749	1	-6
475.919	1	7
476.090	1	9
476.260	1	8
476.430	1	-10
476.601	1	11
476.771	1	-3
476.942	1	-1
477.112	1	-4
477.282	1	5
477.453	1	-1
477.623	1	-7
477.793	1	-2
477.964	1	-1
478.134	1	1
478.305	1	-5
478.475	1	12
478.645	1	-5
478.816	1	6
478.986	1	3
479.156	1	-5
479.327	1	7
479.497	1	-4
479.667	1	-7
479.838	1	-2
480.008	1	-7
480.179	1	-1
480.349	1	-2
480.519	1	-2
480.690	1	0
480.860	1	6
481.030	1	0
481.201	1	3
481.371	1	-7
481.541	1	8
481.712	1	7
481.882	1	2
482.053	1	-3
482.223	1	-9
482.393	1	-5
482.564	1	-6
482.734	1	5
482.904	1	7
483.075	1	4
483.245	1	-4
483.415	1	-4
483.586	1	4
483.756	1	2
483.926	1	0
484.097	1	0
484.267	1	13
484.437	1	-3
484.608	1	2
484.778	1	16
484.948	1	-5
485.119	1	-7
485.289	1	-6
485.459	1	6
485.630	1	11
485.800	1	-8
485.970	1	8
486.141	1	3
486.311	1	-3
486.481	1	3
486.652	1	8
486.822	1	0
486.992	1	-3
487.163	1	-1
487.333	1	10
487.503	1	2
487.674	1	-5
487.844	1	3
488.014	1	3
488.185	1	-6
488.355	1	7
488.525	1	1
488.696	1	6
488.866	1	0
489.036	1	6
489.207	1	8
489.377	1	-1
489.547	1	-11
489.718	1	-4
489.888	1	4
490.058	1	3
490.228	1	-9
490.399	1	4
490.569	1	0
490.739	1	0
490.910	1	7
491.080	1	14
491.250	1	-2
491.421	1	1
491.591	1	-1
491.761	1	4
491.932	1	1
492.102	1	2
492.272	1	-9
492.442	1	0
492.613	1	-3
492.783	1	-2
492.953	1	5
493.124	1	5
493.294	1	5
493.464	1	-2
493.635	1	2
493.805	1	-1
493.975	1	4
494.145	1	4
494.316	1	5
494.486	1	9
494.656	1	11
494.827	1	10
494.997	1	5
495.167	1	9
495.337	1	6
495.508	1	1
495.678	1	1
495.848	1	0
496.019	1	-3
496.189	1	-2
496.359	1	-6
496.529	1	5
496.700	1	8
496.870	1	-4
497.040	1	7
497.211	1	-4
497.381	1	1
497.551	1	-5
497.721	1	-2
497.892	1	6
498.062	1	-9
498.232	1	3
498.403	1	7
498.573	1	5
498.743	1	12
498.913	1	-13
499.084	1	-10
499.254	1	-16
499.424	1	-4
499.594	1	-4
499.765	1	-5
499.935	1	7
500.105	1	5
500.275	1	-11
500.446	1	13
500.616	1	5
500.786	1	2
500.956	1	7
501.127	1	-1
501.297	1	1
501.467	1	1
501.638	1	2
501.808	1	0
501.978	1	7
502.148	1	-3
502.319	1	8
502.489	1	12
502.659	1	-6
502.829	1	8
503.000	1	8
503.170	1	-4
503.340	1	7
503.510	1	2
503.681	1	6
503.851	1	-7
504.021	1	11
504.191	1	6
504.362	1	-4
504.532	1	-5
504.702	1	-6
504.872	1	6
505.042	1	11
505.213	1	-3
505.383	1	8
505.553	1	-5
505.723	1	14
505.894	1	1
506.064	1	4
506.234	1	-3
506.404	1	9
506.575	1	-9
506.745	1	12
506.915	1	-6
507.085	1	5
507.256	1	5
507.426	1	2
507.596	1	-13
507.766	1	1
507.936	1	3
508.107	1	4
508.277	1	4
508.447	1	7
508.617	1	3
508.788	1	2
508.958	1	8
509.128	1	0
509.298	1	5
509.468	1	8
509.639	1	-3
509.809	1	-3
509.979	1	-9
510.149	1	10
510.319	1	16
510.490	1	-7
510.660	1	4
510.830	1	-5
511.000	1	-2
511.171	1	7
511.341	1	-2
511.511	1	4
511.681	1	2
511.851	1	-5
512.022	1	5
512.192	1	7
512.362	1	13
512.532	1	2
512.702	1	0
512.873	1	-3
513.043	1	-1
513.213	1	10
513.383	1	-5
513.553	1	7
513.724	1	3
513.894	1	11
514.064	1	1
514.234	1	5
514.404	1	3
514.575	1	0
514.745	1	-5
514.915	1	-10
515.085	1	8
515.255	1	-1
515.425	1	5
515.596	1	3
515.766	1	-5
515.936	1	-1
516.106	1	6
516.276	1	10
516.447	1	-4
516.617	1	2
516.787	1	-5
516.957	1	-1
517.127	1	-5
517.297	1	6
517.468	1	-5
517.638	1	2
517.808	1	-5
517.978	1	3
518.148	1	-2
518.319	1	-1
518.489	1	3
518.659	1	-8
518.829	1	14
518.999	1	2
519.169	1	-11
519.340	1	-4
519.510	1	1
519.680	1	5
519.850	1	2
520.020	1	1
520.190	1	-3
520.361	1	-2
520.531	1	4
520.701	1	-6
520.871	1	-7
521.041	1	3
521.211	1	-6
521.382	1	10
521.552	1	3
521.722	1	0
521.892	1	4
522.062	1	-2
522.232	1	1
522.402	1	0
522.573	1	-5
522.743	1	-2
522.913	1	-6
523.083	1	-4
523.253	1	4
523.423	1	-1
523.593	1	-10
523.764	1	-5
523.934	1	5
524.104	1	-2
524.274	1	-7
524.444	1	12
524.614	1	1
524.784	1	-8
524.955	1	-4
525.125	1	-5
525.295	1	6
525.465	1	-8
525.635	1	4
525.805	1	4
525.975	1	6
526.146	1	7
526.316	1	-6
526.486	1	5
526.656	1	0
526.826	1	5
526.996	1	-6
527.166	1	3
527.337	1	3
527.507	1	2
527.677	1	-2
527.847	1	-1
528.017	1	-9
528.187	1	-1
528.357	1	-1
528.527	1	-1
528.698	1	1
528.868	1	-3
529.038	1	5
529.208	1	8
529.378	1	1
529.548	1	2
529.718	1	-1
529.888	1	-2
530.058	1	-8
530.229	1	-7
530.399	1	-6
530.569	1	3
530.739	1	8
530.909	1	-7
531.079	1	-3
531.249	1	3
531.419	1	4
531.589	1	-10
531.760	1	-4
531.930	1	1
532.100	1	3
532.270	1	5
532.440	1	7
532.610	1	10
532.780	1	-5
532.950	1	12
533.120	1	3
533.290	1	-8
533.461	1	6
533.631	1	-3
533.801	1	-1
533.971	1	5
534.141	1	6
534.311	1	6
534.481	1	-6
534.651	1	-3
534.821	1	12
534.991	1	11
535.162	1	-10
535.332	1	1
535.502	1	2
535.672	1	-5
535.842	1	4
536.012	1	10
536.182	1	8
536.352	1	2
536.522	1	-9
536.692	1	1
536.862	1	-9
537.032	1	11
537.203	1	-1
537.373	1	-19
537.543	1	2
537.713	1	-3
537.883	1	-2
538.053	1	6
538.223	1	4
538.393	1	6
538.563	1	3
538.733	1	1
538.903	1	-2
539.073	1	11
539.243	1	8
539.413	1	1
539.584	1	0
539.754	1	4
539.924	1	-4
540.094	1	-5
540.264	1	-10
540.434	1	-1
540.604	1	-4
540.774	1	6
540.944	1	6
541.114	1	2
541.284	1	1
541.454	1	-2
541.624	1	5
541.794	1	-3
541.964	1	1
542.134	1	6
542.305	1	5
542.475	1	4
542.645	1	-11
542.815	1	7
542.985	1	7
543.155	1	0
543.325	1	10
543.495	1	-8
543.665	1	-2
543.835	1	13
544.005	1	2
544.175	1	-2
544.345	1	-1
544.515	1	-5
544.685	1	-2
544.855	1	7
545.025	1	-2
545.195	1	-4
545.365	1	3
545.535	1	-8
545.705	1	0
545.875	1	0
546.045	1	3
546.216	1	1
546.386	1	2
546.556	1	11
546.726	1	1
546.896	1	8
547.066	1	-6
547.236	1	11
547.406	1	3
547.576	1	-2
547.746	1	-1
547.916	1	1
548.086	1	4
548.256	1	-2
548.426	1	8
548.596	1	4
548.766	1	3
548.936	1	-5
549.106	1	-2
549.276	1	-5
549.446	1	14
549.616	1	-1
549.786	1	-1
549.956	1	6
550.126	1	-6
550.296	1	2
550.466	1	-3
550.636	1	6
550.806	1	7
550.976	1	7
551.146	1	3
551.316	1	2
551.486	1	7
551.656	1	2
551.826	1	6
551.996	1	2
552.166	1	-3
552.336	1	7
552.506	1	0
552.676	1	3
552.846	1	-1
553.016	1	5
553.186	1	-6
553.356	1	-3
553.526	1	2
553.696	1	-4
553.866	1	2
554.036	1	19
554.206	1	-7
554.376	1	-3
554.546	1	3
554.716	1	1
554.886	1	-2
555.056	1	6
555.226	1	-5
555.396	1	5
555.566	1	-6
555.736	1	-1
555.906	1	8
556.076	1	3
556.246	1	9
556.416	1	2
556.586	1	-8
556.756	1	6
556.926	1	-10
557.096	1	0
557.266	1	5
557.436	1	5
557.606	1	4
557.776	1	8
557.946	1	11
558.116	1	17
558.286	1	12
558.456	1	0
558.626	1	0
558.796	1	14
558.966	1	3
559.136	1	-1
559.306	1	5
559.476	1	0
559.646	1	-1
559.816	1	-9
559.986	1	-2
560.155	1	1
560.325	1	1
560.495	1	3
560.665	1	2
560.835	1	9
561.005	1	3
561.175	1	-1
561.345	1	-2
561.515	1	-1
561.685	1	-6
561.855	1	13
562.025	1	3
562.195	1	2
562.365	1	1
562.535	1	4
562.705	1	4
562.875	1	-11
563.045	1	3
563.215	1	6
563.385	1	11
563.555	1	-4
563.725	1	4
563.895	1	-2
564.064	1	-3
564.234	1	-10
564.404	1	8
564.574	1	8
564.744	1	-6
564.914	1	-5
565.084	1	-2
565.254	1	14
565.424	1	-9
565.594	1	-1
565.764	1	5
565.934	1	-7
566.104	1	-6
566.274	1	5
566.444	1	7
566.614	1	-5
566.783	1	16
566.953	1	1
567.123	1	1
567.293	1	-9
567.463	1	-8
567.633	1	0
567.803	1	6
567.973	1	7
568.143	1	9
568.313	1	12
568.483	1	6
568.653	1	6
568.823	1	-8
568.993	1	0
569.162	1	-4
569.332	1	9
569.502	1	-2
569.672	1	4
569.842	1	-5
570.012	1	10
570.182	1	-5
570.352	1	10
570.522	1	7
570.692	1	1
570.862	1	5
571.031	1	-3
571.201	1	-4
571.371	1	1
571.541	1	5
571.711	1	13
571.881	1	5
572.051	1	-8
572.221	1	-5
572.391	1	-11
572.561	1	-2
572.731	1	2
572.900	1	1
573.070	1	-8
573.240	1	5
573.410	1	1
573.580	1	2
573.750	1	-2
573.920	1	0
574.090	1	10
574.260	1	3
574.430	1	-6
574.599	1	15
574.769	1	-1
574.939	1	-5
575.109	1	3
575.279	1	14
575.449	1	0
575.619	1	2
575.789	1	2
575.959	1	-3
576.128	1	3
576.298	1	10
576.468	1	5
576.638	1	9
576.808	1	0
576.978	1	15
577.148	1	-2
577.318	1	8
577.487	1	-6
577.657	1	2
577.827	1	-5
577.997	1	-2
578.167	1	0
578.337	1	16
578.507	1	-4
578.677	1	1
578.846	1	-3
579.016	1	3
579.186	1	1
579.356	1	-7
579.526	1	0
579.696	1	-1
579.866	1	0
580.036	1	-1
580.205	1	2
580.375	1	12
580.545	1	1
580.715	1	0
580.885	1	-1
581.055	1	2
581.225	1	2
581.394	1	-2
581.564	1	-7
581.734	1	2
581.904	1	0
582.074	1	-8
582.244	1	-2
582.414	1	7
582.583	1	-5
582.753	1	-6
582.923	1	4
583.093	1	15
583.263	1	-5
583.433	1	-1
583.603	1	6
583.772	1	1
583.942	1	3
584.112	1	-10
584.282	1	1
584.452	1	3
584.622	1	-4
584.791	1	3
584.961	1	2
585.131	1	1
585.301	1	-1
585.471	1	-2
585.641	1	-2
585.811	1	1
585.980	1	-11
586.150	1	9
586.320	1	6
586.490	1	-3
586.660	1	-2
586.830	1	0
586.999	1	5
587.169	1	1
587.339	1	-1
587.509	1	8
587.679	1	11
587.849	1	5
588.018	1	2
588.188	1	11
588.358	1	6
588.528	1	0
588.698	1	13
588.867	1	10
589.037	1	1
589.207	1	10
589.377	1	3
589.547	1	-8
589.717	1	1
589.886	1	0
590.056	1	7
590.226	1	9
590.396	1	4
590.566	1	3
590.735	1	9
590.905	1	-2
591.075	1	-1
591.245	1	7
591.415	1	-2
591.585	1	-4
591.754	1	2
591.924	1	0
592.094	1	1
592.264	1	-7
592.434	1	6
592.603	1	-8
592.773	1	4
592.943	1	-6
593.113	1	6
593.283	1	5
593.452	1	9
593.622	1	-10
593.792	1	4
593.962	1	-5
594.132	1	8
594.301	1	-6
594.471	1	4
594.641	1	-7
594.811	1	4
594.981	1	7
595.150	1	5
595.320	1	-4
595.490	1	4
595.660	1	2
595.829	1	4
595.999	1	-9
596.169	1	-4
596.339	1	9
596.509	1	3
596.678	1	13
596.848	1	7
597.018	1	0
597.188	1	3
597.358	1	3
597.527	1	1
597.697	1	-1
597.867	1	6
598.037	1	-3
598.206	1	1
598.376	1	-1
598.546	1	-1
598.716	1	-6
598.885	1	5
599.055	1	-6
599.225	1	-3
599.395	1	8
599.565	1	-4
599.734	1	-5
599.904	1	9
600.074	1	3
600.244	1	4
600.413	1	4
600.583	1	5
600.753	1	5
600.923	1	7
601.092	1	9
601.262	1	15
601.432	1	1
601.602	1	12
601.771	1	-2
601.941	1	9
602.111	1	-4
602.281	1	-1
602.451	1	7
602.620	1	5
602.790	1	3
602.960	1	17
603.130	1	0
603.299	1	7
603.469	1	4
603.639	1	-5
603.809	1	0
603.978	1	15
604.148	1	-6
604.318	1	-2
604.487	1	6
604.657	1	14
604.827	1	3
604.997	1	-4
605.166	1	6
605.336	1	-2
605.506	1	12
605.676	1	3
605.845	1	6
606.015	1	8
606.185	1	8
606.355	1	1
606.524	1	4
606.694	1	4
606.864	1	-5
607.034	1	2
607.203	1	3
607.373	1	-3
607.543	1	-1
607.712	1	12
607.882	1	4
608.052	1	-7
608.222	1	12
608.391	1	-2
608.561	1	8
608.731	1	-1
608.901	1	2
609.070	1	1
609.240	1	3
609.410	1	10
609.579	1	2
609.749	1	-5
609.919	1	2
610.089	1	5
610.258	1	1
610.428	1	5
610.598	1	5
610.767	1	1
610.937	1	-4
611.107	1	5
611.277	1	0
611.446	1	7
611.616	1	6
611.786	1	4
611.955	1	-6
612.125	1	-1
612.295	1	-5
612.465	1	1
612.634	1	-7
612.804	1	12
612.974	1	3
613.143	1	6
613.313	1	-1
613.483	1	-14
613.652	1	11
613.822	1	6
613.992	1	-2
614.162	1	9
614.331	1	3
614.501	1	0
614.671	1	7
614.840	1	20
615.010	1	5
615.180	1	-4
615.349	1	-5
615.519	1	-5
615.689	1	12
615.858	1	6
616.028	1	4
616.198	1	-1
616.368	1	12
616.537	1	4
616.707	1	0
616.877	1	-11
617.046	1	6
617.216	1	0
617.386	1	0
617.555	1	8
617.725	1	1
617.895	1	12
618.064	1	-4
618.234	1	4
618.404	1	6
618.573	1	8
618.743	1	-6
618.913	1	2
619.082	1	2
619.252	1	8
619.422	1	12
619.591	1	7
619.761	1	2
619.931	1	-10
620.100	1	7
620.270	1	-1
620.440	1	1
620.609	1	11
620.779	1	2
620.949	1	10
621.118	1	0
621.288	1	2
621.458	1	-5
621.627	1	7
621.797	1	4
621.967	1	-4
622.136	1	3
622.306	1	6
622.476	1	5
622.645	1	9
622.815	1	3
622.985	1	-8
623.154	1	3
623.324	1	12
623.494	1	8
623.663	1	7
623.833	1	10
624.002	1	-4
624.172	1	7
624.342	1	-13
624.511	1	3
624.681	1	0
624.851	1	7
625.020	1	1
625.190	1	0
625.360	1	-1
625.529	1	4
625.699	1	9
625.869	1	-2
626.038	1	1
626.208	1	6
626.377	1	12
626.547	1	-3
626.717	1	-2
626.886	1	6
627.056	1	4
627.226	1	9
627.395	1	11
627.565	1	1
627.735	1	4
627.904	1	1
628.074	1	9
628.243	1	-4
628.413	1	-1
628.583	1	8
628.752	1	3
628.922	1	-5
629.091	1	-6
629.261	1	-4
629.431	1	-7
629.600	1	-1
629.770	1	-4
629.940	1	0
630.109	1	9
630.279	1	3
630.448	1	3
630.618	1	-2
630.788	1	6
630.957	1	3
631.127	1	8
631.297	1	0
631.466	1	-2
631.636	1	10
631.805	1	3
631.975	1	0
632.145	1	1
632.314	1	-2
632.484	1	3
632.653	1	-5
632.823	1	12
632.993	1	-2
633.162	1	2
633.332	1	4
633.501	1	3
633.671	1	9
633.841	1	9
634.010	1	3
634.180	1	-2
634.349	1	-6
634.519	1	5
634.689	1	1
634.858	1	8
635.028	1	-5
635.197	1	6
635.367	1	0
635.537	1	16
635.706	1	10
635.876	1	-2
636.045	1	8
636.215	1	5
636.384	1	13
636.554	1	2
636.724	1	5
636.893	1	-1
637.063	1	-6
637.232	1	4
637.402	1	-4
637.572	1	1
637.741	1	8
637.911	1	-2
638.080	1	-1
638.250	1	4
638.419	1	9
638.589	1	-4
638.759	1	-4
638.928	1	11
639.098	1	11
639.267	1	2
639.437	1	1
639.606	1	3
639.776	1	1
639.946	1	2
640.115	1	-4
640.285	1	0
640.454	1	0
640.624	1	-6
640.793	1	5
640.963	1	-2
641.132	1	-3
641.302	1	1
641.472	1	9
641.641	1	6
641.811	1	0
641.980	1	-1
642.150	1	6
642.319	1	-2
642.489	1	-11
642.659	1	17
642.828	1	9
642.998	1	7
643.167	1	0
643.337	1	8
643.506	1	-1
643.676	1	-1
643.845	1	-6
644.015	1	-10
644.184	1	1
644.354	1	-3
644.524	1	3
644.693	1	2
644.863	1	-6
645.032	1	-6
645.202	1	-15
645.371	1	13
645.541	1	-4
645.710	1	-6
645.880	1	5
646.049	1	-8
646.219	1	9
646.388	1	-2
646.558	1	7
646.728	1	-9
646.897	1	5
647.067	1	-3
647.236	1	0
647.406	1	8
647.575	1	-6
647.745	1	-2
647.914	1	-3
648.084	1	1
648.253	1	0
648.423	1	4
648.592	1	-5
648.762	1	4
648.931	1	15
649.101	1	-5
649.270	1	4
649.440	1	7
649.610	1	-6
649.779	1	4
649.949	1	-3
650.118	1	-4
650.288	1	-3
650.457	1	-21
650.627	1	6
650.796	1	-1
650.966	1	3
651.135	1	-7
651.305	1	10
651.474	1	12
651.644	1	2
651.813	1	7
651.983	1	-12
652.152	1	3
652.322	1	3
652.491	1	7
652.661	1	7
652.830	1	3
653.000	1	3
653.169	1	-2
653.339	1	2
653.508	1	0
653.678	1	1
653.847	1	1
654.017	1	2
654.186	1	7
654.356	1	-1
654.525	1	0
654.695	1	6
654.864	1	3
655.034	1	-3
655.203	1	3
655.373	1	8
655.542	1	3
655.712	1	1
655.881	1	1
656.051	1	3
656.220	1	3
656.390	1	10
656.559	1	4
656.729	1	-1
656.898	1	3
657.068	1	2
657.237	1	-4
657.406	1	3
657.576	1	2
657.745	1	8
657.915	1	9
658.084	1	-6
658.254	1	-5
658.423	1	0
658.593	1	-4
658.762	1	4
658.932	1	13
659.101	1	4
659.271	1	3
659.440	1	12
659.610	1	3
659.779	1	3
659.949	1	-3
660.118	1	-2
660.288	1	2
660.457	1	9
660.626	1	1
660.796	1	8
660.965	1	6
661.135	1	2
661.304	1	9
661.474	1	1
661.643	1	-3
661.813	1	-15
661.982	1	3
662.152	1	4
662.321	1	-5
662.491	1	-8
662.660	1	-2
662.829	1	5
662.999	1	7
663.168	1	-1
663.338	1	-5
663.507	1	3
663.677	1	-5
663.846	1	3
664.016	1	10
664.185	1	6
664.354	1	3
664.524	1	3
664.693	1	3
664.863	1	10
665.032	1	-5
665.202	1	2
665.371	1	-2
665.541	1	-5
665.710	1	-6
665.879	1	1
666.049	1	4
666.218	1	-8
666.388	1	4
666.557	1	-6
666.727	1	0
666.896	1	1
667.065	1	14
667.235	1	5
667.404	1	6
667.574	1	0
667.743	1	-5
667.913	1	8
668.082	1	4
668.251	1	3
668.421	1	6
668.590	1	-3
668.760	1	2
668.929	1	-2
669.099	1	0
669.268	1	-1
669.437	1	3
669.607	1	0
669.776	1	8
669.946	1	0
670.115	1	3
670.285	1	-2
670.454	1	5
670.623	1	0
670.793	1	-1
670.962	1	-3
671.132	1	2
671.301	1	2
671.470	1	1
671.640	1	-1
671.809	1	-3
671.979	1	5
672.148	1	4
672.317	1	-3
672.487	1	-3
672.656	1	2
672.826	1	-1
672.995	1	6
673.164	1	-7
673.334	1	-4
673.503	1	5
673.673	1	3
673.842	1	1
674.011	1	10
674.181	1	2
674.350	1	1
674.520	1	-4
674.689	1	10
674.858	1	1
675.028	1	1
675.197	1	0
675.367	1	3
675.536	1	-3
675.705	1	-1
675.875	1	-5
676.044	1	9
676.214	1	-2
676.383	1	15
676.552	1	0
676.722	1	3
676.891	1	-1
677.060	1	9
677.230	1	-7
677.399	1	-4
677.569	1	-11
677.738	1	2
677.907	1	8
678.077	1	8
678.246	1	6
678.416	1	4
678.585	1	3
678.754	1	3
678.924	1	-3
679.093	1	7
679.262	1	-4
679.432	1	-6
679.601	1	-2
679.771	1	2
679.940	1	0
680.109	1	7
680.279	1	1
680.448	1	-9
680.617	1	-4
680.787	1	-9
680.956	1	-2
681.125	1	5
681.295	1	5
681.464	1	6
681.634	1	0
681.803	1	4
681.972	1	1
682.142	1	2
682.311	1	-4
682.480	1	-9
682.650	1	6
682.819	1	-1
682.988	1	5
683.158	1	5
683.327	1	4
683.496	1	-2
683.666	1	3
683.835	1	2
684.004	1	5
684.174	1	-6
684.343	1	4
684.512	1	-10
684.682	1	-6
684.851	1	0
685.021	1	4
685.190	1	-7
685.359	1	-9
685.529	1	-4
685.698	1	5
685.867	1	4
686.037	1	1
686.206	1	4
686.375	1	1
686.545	1	-4
686.714	1	7
686.883	1	2
687.053	1	-3
687.222	1	3
687.391	1	-6
687.561	1	-3
687.730	1	3
687.899	1	1
688.069	1	-3
688.238	1	-7
688.407	1	4
688.577	1	-7
688.746	1	-5
