340.368	1	1
340.539	1	7
340.710	1	4
340.881	1	7
341.052	1	3
341.223	1	1
341.394	1	6
341.565	1	-3
341.737	1	-2
341.908	1	-3
342.079	1	-4
342.250	1	5
342.421	1	-7
342.592	1	-4
342.763	1	-13
342.934	1	15
343.105	1	-4
343.276	1	-7
343.447	1	8
343.618	1	-3
343.789	1	0
343.960	1	1
344.131	1	2
344.302	1	3
344.473	1	-6
344.644	1	8
344.815	1	12
344.986	1	-7
345.157	1	-2
345.328	1	-1
345.499	1	20
345.670	1	5
345.841	1	-1
346.012	1	5
346.183	1	6
346.354	1	7
346.526	1	7
346.697	1	7
346.868	1	-1
347.039	1	11
347.210	1	-14
347.381	1	-1
347.552	1	-6
347.723	1	11
347.894	1	10
348.065	1	-10
348.236	1	6
348.407	1	-1
348.578	1	-3
348.749	1	5
348.920	1	13
349.091	1	6
349.262	1	3
349.433	1	10
349.604	1	2
349.775	1	6
349.946	1	2
350.117	1	10
350.288	1	-1
350.459	1	11
350.630	1	-6
350.801	1	13
350.972	1	4
351.143	1	20
351.314	1	1
351.485	1	9
351.656	1	3
351.827	1	8
351.998	1	4
352.169	1	-3
352.340	1	7
352.511	1	13
352.682	1	2
352.853	1	-3
353.024	1	6
353.195	1	1
353.366	1	7
353.537	1	12
353.708	1	11
353.879	1	-3
354.050	1	-2
354.221	1	10
354.392	1	9
354.563	1	-2
354.734	1	7
354.905	1	0
355.076	1	2
355.247	1	2
355.418	1	2
355.589	1	3
355.760	1	1
355.931	1	3
356.102	1	12
356.273	1	7
356.444	1	2
356.615	1	14
356.785	1	16
356.956	1	10
357.127	1	13
357.298	1	15
357.469	1	10
357.640	1	12
357.811	1	7
357.982	1	10
358.153	1	9
358.324	1	13
358.495	1	2
358.666	1	9
358.837	1	9
359.008	1	23
359.179	1	2
359.350	1	8
359.521	1	16
359.692	1	10
359.863	1	9
360.034	1	11
360.205	1	21
360.376	1	16
360.547	1	10
360.718	1	5
360.889	1	27
361.060	1	23
361.231	1	4
361.401	1	27
361.572	1	20
361.743	1	18
361.914	1	16
362.085	1	14
362.256	1	23
362.427	1	11
362.598	1	16
362.769	1	22
362.940	1	22
363.111	1	10
363.282	1	10
363.453	1	13
363.624	1	14
363.795	1	9
363.966	1	6
364.137	1	13
364.308	1	23
364.478	1	22
364.649	1	12
364.820	1	30
364.991	1	27
365.162	1	21
365.333	1	27
365.504	1	19
365.675	1	21
365.846	1	38
366.017	1	25
366.188	1	29
366.359	1	22
366.530	1	20
366.701	1	34
366.871	1	32
367.042	1	34
367.213	1	32
367.384	1	40
367.555	1	35
367.726	1	31
367.897	1	38
368.068	1	35
368.239	1	31
368.410	1	34
368.581	1	34
368.752	1	37
368.923	1	40
369.093	1	40
369.264	1	35
369.435	1	42
369.606	1	32
369.777	1	37
369.948	1	42
370.119	1	32
370.290	1	45
370.461	1	47
370.632	1	46
370.803	1	51
370.973	1	45
371.144	1	48
371.315	1	44
371.486	1	47
371.657	1	56
371.828	1	39
371.999	1	42
372.170	1	43
372.341	1	53
372.512	1	41
372.682	1	59
372.853	1	52
373.024	1	55
373.195	1	44
373.366	1	56
373.537	1	51
373.708	1	59
373.879	1	54
374.050	1	55
374.220	1	53
374.391	1	44
374.562	1	50
374.733	1	51
374.904	1	40
375.075	1	45
375.246	1	55
375.417	1	37
375.588	1	52
375.758	1	47
375.929	1	56
376.100	1	56
376.271	1	59
376.442	1	44
376.613	1	44
376.784	1	42
376.955	1	48
377.125	1	41
377.296	1	36
377.467	1	40
377.638	1	49
377.809	1	45
377.980	1	46
378.151	1	52
378.321	1	45
378.492	1	41
378.663	1	39
378.834	1	29
379.005	1	42
379.176	1	40
379.347	1	49
379.518	1	46
379.688	1	36
379.859	1	29
380.030	1	54
380.201	1	38
380.372	1	27
380.543	1	34
380.714	1	41
380.884	1	32
381.055	1	33
381.226	1	33
381.397	1	38
381.568	1	39
381.739	1	28
381.910	1	33
382.080	1	34
382.251	1	24
382.422	1	28
382.593	1	38
382.764	1	27
382.935	1	29
383.105	1	34
383.276	1	41
383.447	1	23
383.618	1	36
383.789	1	23
383.960	1	25
384.130	1	18
384.301	1	24
384.472	1	33
384.643	1	23
384.814	1	15
384.985	1	15
385.156	1	42
385.326	1	22
385.497	1	20
385.668	1	25
385.839	1	24
386.010	1	20
386.180	1	26
386.351	1	15
386.522	1	16
386.693	1	13
386.864	1	22
387.035	1	21
387.205	1	33
387.376	1	21
387.547	1	21
387.718	1	14
387.889	1	18
388.060	1	25
388.230	1	22
388.401	1	34
388.572	1	27
388.743	1	18
388.914	1	16
389.084	1	36
389.255	1	11
389.426	1	26
389.597	1	32
389.768	1	31
389.939	1	21
390.109	1	12
390.280	1	15
390.451	1	26
390.622	1	12
390.793	1	20
390.963	1	27
391.134	1	22
391.305	1	22
391.476	1	5
391.647	1	7
391.817	1	15
391.988	1	10
392.159	1	17
392.330	1	5
392.501	1	11
392.671	1	10
392.842	1	9
393.013	1	19
393.184	1	14
393.355	1	17
393.525	1	15
393.696	1	10
393.867	1	7
394.038	1	13
394.208	1	20
394.379	1	15
394.550	1	1
394.721	1	13
394.892	1	12
395.062	1	14
395.233	1	8
395.404	1	14
395.575	1	24
395.746	1	19
395.916	1	9
396.087	1	28
396.258	1	14
396.429	1	19
396.599	1	12
396.770	1	8
396.941	1	10
397.112	1	9
397.283	1	18
397.453	1	18
397.624	1	5
397.795	1	26
397.966	1	4
398.136	1	14
398.307	1	13
398.478	1	-5
398.649	1	7
398.819	1	8
398.990	1	12
399.161	1	14
399.332	1	10
399.503	1	12
399.673	1	9
399.844	1	10
400.015	1	16
400.186	1	13
400.356	1	7
400.527	1	0
400.698	1	18
400.869	1	9
401.039	1	6
401.210	1	13
401.381	1	2
401.552	1	9
401.722	1	9
401.893	1	7
402.064	1	9
402.235	1	-2
402.405	1	9
402.576	1	-1
402.747	1	13
402.918	1	7
403.088	1	4
403.259	1	9
403.430	1	0
403.601	1	4
403.771	1	3
403.942	1	7
404.113	1	11
404.284	1	18
404.454	1	5
404.625	1	13
404.796	1	1
404.967	1	14
405.137	1	12
405.308	1	-5
405.479	1	-3
405.649	1	18
405.820	1	6
405.991	1	11
406.162	1	7
406.332	1	6
406.503	1	19
406.674	1	11
406.845	1	3
407.015	1	5
407.186	1	10
407.357	1	9
407.527	1	4
407.698	1	13
407.869	1	-3
408.040	1	6
408.210	1	16
408.381	1	14
408.552	1	1
408.722	1	10
408.893	1	11
409.064	1	5
409.235	1	22
409.405	1	6
409.576	1	8
409.747	1	5
409.917	1	6
410.088	1	8
410.259	1	7
410.430	1	15
410.600	1	2
410.771	1	3
410.942	1	9
411.112	1	-10
411.283	1	10
411.454	1	4
411.625	1	10
411.795	1	8
411.966	1	4
412.137	1	8
412.307	1	-1
412.478	1	-7
412.649	1	-2
412.819	1	6
412.990	1	10
413.161	1	13
413.332	1	11
413.502	1	14
413.673	1	15
413.844	1	2
414.014	1	10
414.185	1	18
414.356	1	6
414.526	1	7
414.697	1	15
414.868	1	10
415.038	1	10
415.209	1	4
415.380	1	6
415.550	1	1
415.721	1	5
415.892	1	1
416.063	1	7
416.233	1	10
416.404	1	1
416.575	1	8
416.745	1	5
416.916	1	10
417.087	1	3
417.257	1	-1
417.428	1	4
417.599	1	6
417.769	1	6
417.940	1	8
418.111	1	19
418.281	1	13
418.452	1	11
418.623	1	-1
418.793	1	4
418.964	1	6
419.135	1	9
419.305	1	6
419.476	1	-11
419.647	1	3
419.817	1	3
419.988	1	12
420.159	1	16
420.329	1	1
420.500	1	9
420.671	1	3
420.841	1	2
421.012	1	17
421.183	1	11
421.353	1	3
421.524	1	-1
421.695	1	0
421.865	1	16
422.036	1	5
422.206	1	8
422.377	1	3
422.548	1	0
422.718	1	16
422.889	1	13
423.060	1	5
423.230	1	2
423.401	1	9
423.572	1	6
423.742	1	-3
423.913	1	10
424.084	1	-1
424.254	1	-4
424.425	1	15
424.595	1	13
424.766	1	10
424.937	1	5
425.107	1	7
425.278	1	8
425.449	1	12
425.619	1	22
425.790	1	6
425.961	1	3
426.131	1	2
426.302	1	11
426.472	1	10
426.643	1	3
426.814	1	-2
426.984	1	19
427.155	1	10
427.326	1	16
427.496	1	0
427.667	1	11
427.837	1	5
428.008	1	4
428.179	1	6
428.349	1	4
428.520	1	4
428.691	1	11
428.861	1	2
429.032	1	3
429.202	1	18
429.373	1	6
429.544	1	6
429.714	1	11
429.885	1	2
430.055	1	8
430.226	1	19
430.397	1	27
430.567	1	1
430.738	1	3
430.909	1	-3
431.079	1	22
431.250	1	3
431.420	1	11
431.591	1	5
431.762	1	2
431.932	1	8
432.103	1	-2
432.273	1	15
432.444	1	15
432.615	1	7
432.785	1	10
432.956	1	14
433.126	1	9
433.297	1	-4
433.468	1	5
433.638	1	9
433.809	1	9
433.979	1	-5
434.150	1	9
434.320	1	6
434.491	1	2
434.662	1	5
434.832	1	-3
435.003	1	8
435.173	1	1
435.344	1	9
435.515	1	6
435.685	1	16
435.856	1	4
436.026	1	12
436.197	1	8
436.368	1	9
436.538	1	7
436.709	1	18
436.879	1	4
437.050	1	4
437.220	1	-4
437.391	1	11
437.562	1	23
437.732	1	10
437.903	1	8
438.073	1	-3
438.244	1	-7
438.414	1	7
438.585	1	-1
438.756	1	10
438.926	1	-1
439.097	1	12
439.267	1	2
439.438	1	22
439.608	1	12
439.779	1	7
439.949	1	10
440.120	1	9
440.291	1	-1
440.461	1	7
440.632	1	-2
440.802	1	0
440.973	1	14
441.143	1	10
441.314	1	15
441.485	1	6
441.655	1	14
441.826	1	-2
441.996	1	7
442.167	1	3
442.337	1	-12
442.508	1	-2
442.678	1	9
442.849	1	4
443.019	1	11
443.190	1	10
443.361	1	0
443.531	1	-1
443.702	1	5
443.872	1	7
444.043	1	10
444.213	1	9
444.384	1	12
444.554	1	14
444.725	1	3
444.895	1	9
445.066	1	6
445.237	1	1
445.407	1	2
445.578	1	2
445.748	1	15
445.919	1	-2
446.089	1	6
446.260	1	15
446.430	1	8
446.601	1	-2
446.771	1	3
446.942	1	0
447.112	1	6
447.283	1	8
447.453	1	7
447.624	1	1
447.794	1	15
447.965	1	14
448.135	1	4
448.306	1	15
448.477	1	-1
448.647	1	1
448.818	1	-2
448.988	1	4
449.159	1	10
449.329	1	4
449.500	1	4
449.670	1	4
449.841	1	-1
450.011	1	4
450.182	1	6
450.352	1	-1
450.523	1	2
450.693	1	1
450.864	1	0
451.034	1	12
451.205	1	-7
451.375	1	1
451.546	1	8
451.716	1	4
451.887	1	1
452.057	1	-6
452.228	1	7
452.398	1	18
452.569	1	4
452.739	1	-7
452.910	1	-5
453.080	1	8
453.251	1	0
453.421	1	0
453.592	1	7
453.762	1	6
453.933	1	6
454.103	1	0
454.274	1	-1
454.444	1	5
454.615	1	7
454.785	1	5
454.956	1	12
455.126	1	0
455.297	1	9
455.467	1	3
455.638	1	2
455.808	1	1
455.979	1	10
456.149	1	-4
456.320	1	11
456.490	1	3
456.661	1	16
456.831	1	13
457.001	1	20
457.172	1	4
457.342	1	1
457.513	1	7
457.683	1	3
457.854	1	3
458.024	1	-5
458.195	1	4
458.365	1	-3
458.536	1	3
458.706	1	19
458.877	1	16
459.047	1	2
459.218	1	4
459.388	1	-3
459.559	1	9
459.729	1	7
459.899	1	-3
460.070	1	15
460.240	1	5
460.411	1	8
460.581	1	-1
460.752	1	7
460.922	1	-5
461.093	1	12
461.263	1	3
461.434	1	0
461.604	1	-3
461.775	1	5
461.945	1	1
462.115	1	12
462.286	1	5
462.456	1	7
462.627	1	4
462.797	1	2
462.968	1	-3
463.138	1	13
463.309	1	21
463.479	1	-11
463.649	1	15
463.820	1	6
463.990	1	8
464.161	1	-4
464.331	1	5
464.502	1	14
464.672	1	1
464.843	1	0
465.013	1	11
465.183	1	7
465.354	1	6
465.524	1	4
465.695	1	7
465.865	1	1
466.036	1	9
466.206	1	8
466.376	1	9
466.547	1	3
466.717	1	1
466.888	1	1
467.058	1	13
467.229	1	3
467.399	1	1
467.569	1	1
467.740	1	4
467.910	1	5
468.081	1	4
468.251	1	7
468.422	1	13
468.592	1	2
468.762	1	-2
468.933	1	3
469.103	1	6
469.274	1	7
469.444	1	0
469.614	1	0
469.785	1	10
469.955	1	4
470.126	1	1
470.296	1	12
470.467	1	-1
470.637	1	-3
470.807	1	6
470.978	1	13
471.148	1	0
471.319	1	-1
471.489	1	-7
471.659	1	14
471.830	1	-1
472.000	1	8
472.171	1	3
472.341	1	4
472.511	1	8
472.682	1	-6
472.852	1	9
473.023	1	-6
473.193	1	4
473.363	1	5
473.534	1	10
473.704	1	4
473.875	1	11
474.045	1	-1
474.215	1	-4
474.386	1	1
474.556	1	15
474.727	1	1
474.897	1	14
475.067	1	15
475.238	1	5
475.408	1	12
475.578	1	4
475.749	1	8
475.919	1	13
476.090	1	7
476.260	1	10
476.430	1	-6
476.601	1	13
476.771	1	3
476.942	1	-4
477.112	1	1
477.282	1	2
477.453	1	6
477.623	1	5
477.793	1	2
477.964	1	5
478.134	1	-4
478.305	1	7
478.475	1	16
478.645	1	2
478.816	1	9
478.986	1	5
479.156	1	7
479.327	1	8
479.497	1	-2
479.667	1	4
479.838	1	3
480.008	1	-6
480.179	1	9
480.349	1	-1
480.519	1	14
480.690	1	-11
480.860	1	5
481.030	1	-5
481.201	1	7
481.371	1	-2
481.541	1	9
481.712	1	15
481.882	1	3
482.053	1	9
482.223	1	-7
482.393	1	2
482.564	1	-3
482.734	1	10
482.904	1	5
483.075	1	3
483.245	1	3
483.415	1	-3
483.586	1	13
483.756	1	-1
483.926	1	1
484.097	1	2
484.267	1	6
484.437	1	5
484.608	1	0
484.778	1	6
484.948	1	7
485.119	1	-2
485.289	1	9
485.459	1	10
485.630	1	12
485.800	1	3
485.970	1	3
486.141	1	8
486.311	1	1
486.481	1	7
486.652	1	3
486.822	1	1
486.992	1	3
487.163	1	3
487.333	1	10
487.503	1	1
487.674	1	5
487.844	1	10
488.014	1	12
488.185	1	1
488.355	1	5
488.525	1	-3
488.696	1	5
488.866	1	-2
489.036	1	1
489.207	1	6
489.377	1	3
489.547	1	8
489.718	1	-2
489.888	1	11
490.058	1	10
490.228	1	-11
490.399	1	7
490.569	1	-1
490.739	1	4
490.910	1	2
491.080	1	12
491.250	1	13
491.421	1	-3
491.591	1	7
491.761	1	-1
491.932	1	6
492.102	1	5
492.272	1	-6
492.442	1	9
492.613	1	13
492.783	1	7
492.953	1	13
493.124	1	7
493.294	1	8
493.464	1	-5
493.635	1	-7
493.805	1	-1
493.975	1	6
494.145	1	2
494.316	1	5
494.486	1	4
494.656	1	8
494.827	1	12
494.997	1	-5
495.167	1	3
495.337	1	7
495.508	1	19
495.678	1	4
495.848	1	-4
496.019	1	7
496.189	1	5
496.359	1	-4
496.529	1	7
496.700	1	13
496.870	1	9
497.040	1	9
497.211	1	3
497.381	1	4
497.551	1	4
497.721	1	-2
497.892	1	7
498.062	1	2
498.232	1	8
498.403	1	11
498.573	1	16
498.743	1	6
498.913	1	-12
499.084	1	2
499.254	1	6
499.424	1	-2
499.594	1	11
499.765	1	-7
499.935	1	8
500.105	1	6
500.275	1	-3
500.446	1	14
500.616	1	10
500.786	1	4
500.956	1	6
501.127	1	1
501.297	1	2
501.467	1	4
501.638	1	11
501.808	1	-3
501.978	1	7
502.148	1	7
502.319	1	-2
502.489	1	12
502.659	1	-5
502.829	1	3
503.000	1	14
503.170	1	6
503.340	1	12
503.510	1	6
503.681	1	0
503.851	1	-6
504.021	1	3
504.191	1	2
504.362	1	-5
504.532	1	-4
504.702	1	-1
504.872	1	16
505.042	1	16
505.213	1	14
505.383	1	11
505.553	1	1
505.723	1	8
505.894	1	-8
506.064	1	15
506.234	1	-5
506.404	1	13
506.575	1	-8
506.745	1	20
506.915	1	-22
507.085	1	7
507.256	1	6
507.426	1	-1
507.596	1	3
507.766	1	1
507.936	1	-3
508.107	1	1
508.277	1	8
508.447	1	9
508.617	1	-1
508.788	1	-10
508.958	1	8
509.128	1	-1
509.298	1	8
509.468	1	15
509.639	1	10
509.809	1	-2
509.979	1	4
510.149	1	10
510.319	1	1
510.490	1	-3
510.660	1	8
510.830	1	0
511.000	1	3
511.171	1	7
511.341	1	7
511.511	1	6
511.681	1	-1
511.851	1	0
512.022	1	0
512.192	1	8
512.362	1	4
512.532	1	-3
512.702	1	1
512.873	1	-1
513.043	1	4
513.213	1	14
513.383	1	-2
513.553	1	10
513.724	1	10
513.894	1	21
514.064	1	11
514.234	1	1
514.404	1	4
514.575	1	-1
514.745	1	-3
514.915	1	-9
515.085	1	6
515.255	1	-9
515.425	1	0
515.596	1	6
515.766	1	5
515.936	1	7
516.106	1	9
516.276	1	11
516.447	1	0
516.617	1	4
516.787	1	-1
516.957	1	4
517.127	1	6
517.297	1	2
517.468	1	11
517.638	1	-2
517.808	1	7
517.978	1	2
518.148	1	3
518.319	1	-4
518.489	1	-1
518.659	1	7
518.829	1	2
518.999	1	2
519.169	1	-1
519.340	1	2
519.510	1	-4
519.680	1	3
519.850	1	15
520.020	1	4
520.190	1	-13
520.361	1	-4
520.531	1	12
520.701	1	7
520.871	1	6
521.041	1	-5
521.211	1	2
521.382	1	8
521.552	1	7
521.722	1	6
521.892	1	-7
522.062	1	7
522.232	1	4
522.402	1	7
522.573	1	0
522.743	1	5
522.913	1	2
523.083	1	9
523.253	1	1
523.423	1	10
523.593	1	-9
523.764	1	7
523.934	1	15
524.104	1	7
524.274	1	-8
524.444	1	7
524.614	1	8
524.784	1	-14
524.955	1	-1
525.125	1	-3
525.295	1	-1
525.465	1	-9
525.635	1	-10
525.805	1	12
525.975	1	9
526.146	1	6
526.316	1	5
526.486	1	0
526.656	1	4
526.826	1	3
526.996	1	1
527.166	1	9
527.337	1	2
527.507	1	7
527.677	1	3
527.847	1	-5
528.017	1	1
528.187	1	-2
528.357	1	-9
528.527	1	6
528.698	1	-11
528.868	1	4
529.038	1	8
529.208	1	9
529.378	1	8
529.548	1	7
529.718	1	-3
529.888	1	16
530.058	1	-7
530.229	1	2
530.399	1	-2
530.569	1	9
530.739	1	8
530.909	1	6
531.079	1	0
531.249	1	-1
531.419	1	-5
531.589	1	-4
531.760	1	-1
531.930	1	4
532.100	1	8
532.270	1	13
532.440	1	25
532.610	1	6
532.780	1	-3
532.950	1	10
533.120	1	7
533.290	1	-1
533.461	1	0
533.631	1	5
533.801	1	4
533.971	1	12
534.141	1	18
534.311	1	10
534.481	1	-1
534.651	1	-4
534.821	1	9
534.991	1	4
535.162	1	-1
535.332	1	0
535.502	1	10
535.672	1	8
535.842	1	1
536.012	1	8
536.182	1	-2
536.352	1	4
536.522	1	5
536.692	1	10
536.862	1	0
537.032	1	5
537.203	1	9
537.373	1	-6
537.543	1	11
537.713	1	13
537.883	1	2
538.053	1	1
538.223	1	9
538.393	1	1
538.563	1	5
538.733	1	-4
538.903	1	0
539.073	1	15
539.243	1	-2
539.413	1	-1
539.584	1	12
539.754	1	5
539.924	1	-4
540.094	1	1
540.264	1	-7
540.434	1	2
540.604	1	-8
540.774	1	3
540.944	1	9
541.114	1	0
541.284	1	6
541.454	1	11
541.624	1	9
541.794	1	-3
541.964	1	-3
542.134	1	12
542.305	1	12
542.475	1	5
542.645	1	2
542.815	1	13
542.985	1	10
543.155	1	6
543.325	1	4
543.495	1	11
543.665	1	0
543.835	1	2
544.005	1	4
544.175	1	5
544.345	1	5
544.515	1	-5
544.685	1	6
544.855	1	4
545.025	1	5
545.195	1	0
545.365	1	25
545.535	1	4
545.705	1	3
545.875	1	-5
546.045	1	10
546.216	1	8
546.386	1	7
546.556	1	11
546.726	1	-2
546.896	1	3
547.066	1	3
547.236	1	3
547.406	1	6
547.576	1	-1
547.746	1	1
547.916	1	6
548.086	1	10
548.256	1	10
548.426	1	11
548.596	1	14
548.766	1	-1
548.936	1	-3
549.106	1	4
549.276	1	4
549.446	1	11
549.616	1	2
549.786	1	3
549.956	1	10
550.126	1	7
550.296	1	11
550.466	1	-1
550.636	1	3
550.806	1	6
550.976	1	10
551.146	1	7
551.316	1	6
551.486	1	7
551.656	1	2
551.826	1	11
551.996	1	9
552.166	1	3
552.336	1	1
552.506	1	0
552.676	1	10
552.846	1	5
553.016	1	9
553.186	1	1
553.356	1	-12
553.526	1	10
553.696	1	6
553.866	1	7
554.036	1	17
554.206	1	-5
554.376	1	8
554.546	1	2
554.716	1	12
554.886	1	-1
555.056	1	8
555.226	1	4
555.396	1	13
555.566	1	1
555.736	1	-2
555.906	1	8
556.076	1	10
556.246	1	-2
556.416	1	5
556.586	1	8
556.756	1	11
556.926	1	-4
557.096	1	5
557.266	1	7
557.436	1	3
557.606	1	0
557.776	1	6
557.946	1	15
558.116	1	17
558.286	1	3
558.456	1	-1
558.626	1	-2
558.796	1	8
558.966	1	9
559.136	1	7
559.306	1	9
559.476	1	-1
559.646	1	-4
559.816	1	7
559.986	1	3
560.155	1	6
560.325	1	-2
560.495	1	6
560.665	1	10
560.835	1	4
561.005	1	14
561.175	1	6
561.345	1	5
561.515	1	-2
561.685	1	-6
561.855	1	1
562.025	1	3
562.195	1	16
562.365	1	1
562.535	1	8
562.705	1	5
562.875	1	-2
563.045	1	11
563.215	1	7
563.385	1	14
563.555	1	2
563.725	1	6
563.895	1	3
564.064	1	2
564.234	1	-3
564.404	1	7
564.574	1	2
564.744	1	-2
564.914	1	0
565.084	1	7
565.254	1	15
565.424	1	1
565.594	1	3
565.764	1	4
565.934	1	1
566.104	1	-7
566.274	1	10
566.444	1	0
566.614	1	-8
566.783	1	14
566.953	1	5
567.123	1	11
567.293	1	1
567.463	1	1
567.633	1	5
567.803	1	6
567.973	1	7
568.143	1	4
568.313	1	12
568.483	1	9
568.653	1	8
568.823	1	3
568.993	1	1
569.162	1	6
569.332	1	10
569.502	1	-4
569.672	1	4
569.842	1	1
570.012	1	3
570.182	1	-2
570.352	1	11
570.522	1	11
570.692	1	0
570.862	1	7
571.031	1	-4
571.201	1	-11
571.371	1	7
571.541	1	-2
571.711	1	10
571.881	1	6
572.051	1	6
572.221	1	4
572.391	1	5
572.561	1	-5
572.731	1	8
572.900	1	11
573.070	1	4
573.240	1	7
573.410	1	2
573.580	1	-5
573.750	1	25
573.920	1	12
574.090	1	16
574.260	1	-9
574.430	1	9
574.599	1	17
574.769	1	1
574.939	1	-3
575.109	1	6
575.279	1	13
575.449	1	-1
575.619	1	4
575.789	1	8
575.959	1	8
576.128	1	5
576.298	1	15
576.468	1	7
576.638	1	4
576.808	1	-5
576.978	1	7
577.148	1	-4
577.318	1	9
577.487	1	0
577.657	1	6
577.827	1	1
577.997	1	3
578.167	1	-2
578.337	1	11
578.507	1	2
578.677	1	2
578.846	1	3
579.016	1	15
579.186	1	-5
579.356	1	2
579.526	1	14
579.696	1	-5
579.866	1	1
580.036	1	6
580.205	1	7
580.375	1	19
580.545	1	-11
580.715	1	9
580.885	1	-1
581.055	1	13
581.225	1	3
581.394	1	1
581.564	1	3
581.734	1	7
581.904	1	0
582.074	1	-10
582.244	1	0
582.414	1	7
582.583	1	-2
582.753	1	0
582.923	1	13
583.093	1	6
583.263	1	0
583.433	1	0
583.603	1	17
583.772	1	4
583.942	1	1
584.112	1	-3
584.282	1	15
584.452	1	12
584.622	1	3
584.791	1	13
584.961	1	9
585.131	1	2
585.301	1	3
585.471	1	-5
585.641	1	8
585.811	1	2
585.980	1	1
586.150	1	9
586.320	1	11
586.490	1	3
586.660	1	-1
586.830	1	8
586.999	1	10
587.169	1	3
587.339	1	5
587.509	1	11
587.679	1	-1
587.849	1	6
588.018	1	7
588.188	1	16
588.358	1	7
588.528	1	5
588.698	1	15
588.867	1	14
589.037	1	5
589.207	1	7
589.377	1	0
589.547	1	-3
589.717	1	4
589.886	1	-2
590.056	1	9
590.226	1	7
590.396	1	7
590.566	1	3
590.735	1	-2
590.905	1	-5
591.075	1	-9
591.245	1	7
591.415	1	9
591.585	1	0
591.754	1	6
591.924	1	4
592.094	1	16
592.264	1	8
592.434	1	6
592.603	1	-3
592.773	1	9
592.943	1	2
593.113	1	21
593.283	1	8
593.452	1	2
593.622	1	0
593.792	1	0
593.962	1	0
594.132	1	9
594.301	1	-4
594.471	1	-1
594.641	1	3
594.811	1	3
594.981	1	3
595.150	1	10
595.320	1	5
595.490	1	7
595.660	1	-6
595.829	1	11
595.999	1	-18
596.169	1	-8
596.339	1	11
596.509	1	9
596.678	1	12
596.848	1	3
597.018	1	6
597.188	1	15
597.358	1	8
597.527	1	7
597.697	1	0
597.867	1	6
598.037	1	-5
598.206	1	1
598.376	1	-6
598.546	1	6
598.716	1	9
598.885	1	6
599.055	1	5
599.225	1	2
599.395	1	6
599.565	1	0
599.734	1	1
599.904	1	11
600.074	1	14
600.244	1	3
600.413	1	8
600.583	1	13
600.753	1	16
600.923	1	6
601.092	1	12
601.262	1	10
601.432	1	2
601.602	1	19
601.771	1	8
601.941	1	9
602.111	1	2
602.281	1	7
602.451	1	5
602.620	1	0
602.790	1	-3
602.960	1	11
603.130	1	8
603.299	1	3
603.469	1	3
603.639	1	-4
603.809	1	11
603.978	1	10
604.148	1	0
604.318	1	11
604.487	1	-2
604.657	1	13
604.827	1	14
604.997	1	1
605.166	1	7
605.336	1	4
605.506	1	2
605.676	1	13
605.845	1	19
606.015	1	8
606.185	1	7
606.355	1	7
606.524	1	-1
606.694	1	7
606.864	1	1
607.034	1	0
607.203	1	7
607.373	1	0
607.543	1	-3
607.712	1	13
607.882	1	15
608.052	1	8
608.222	1	8
608.391	1	9
608.561	1	2
608.731	1	9
608.901	1	-4
609.070	1	-4
609.240	1	4
609.410	1	6
609.579	1	0
609.749	1	3
609.919	1	1
610.089	1	5
610.258	1	12
610.428	1	-2
610.598	1	3
610.767	1	-8
610.937	1	11
611.107	1	8
611.277	1	7
611.446	1	14
611.616	1	8
611.786	1	17
611.955	1	-12
612.125	1	7
612.295	1	7
612.465	1	9
612.634	1	-1
612.804	1	18
612.974	1	9
613.143	1	13
613.313	1	6
613.483	1	-1
613.652	1	16
613.822	1	3
613.992	1	-2
614.162	1	5
614.331	1	2
614.501	1	-4
614.671	1	3
614.840	1	22
615.010	1	12
615.180	1	4
615.349	1	-3
615.519	1	11
615.689	1	7
615.858	1	5
616.028	1	-1
616.198	1	0
616.368	1	11
616.537	1	2
616.707	1	2
616.877	1	1
617.046	1	-1
617.216	1	5
617.386	1	-10
617.555	1	11
617.725	1	6
617.895	1	21
618.064	1	5
618.234	1	11
618.404	1	3
618.573	1	12
618.743	1	-4
618.913	1	2
619.082	1	7
619.252	1	13
619.422	1	17
619.591	1	11
619.761	1	14
619.931	1	-6
620.100	1	8
620.270	1	-11
620.440	1	11
620.609	1	12
620.779	1	-4
620.949	1	6
621.118	1	-2
621.288	1	6
621.458	1	6
621.627	1	8
621.797	1	5
621.967	1	4
622.136	1	7
622.306	1	3
622.476	1	6
622.645	1	6
622.815	1	1
622.985	1	-8
623.154	1	-3
623.324	1	8
623.494	1	0
623.663	1	3
623.833	1	-3
624.002	1	-3
624.172	1	7
624.342	1	-5
624.511	1	6
624.681	1	18
624.851	1	1
625.020	1	4
625.190	1	4
625.360	1	3
625.529	1	3
625.699	1	14
625.869	1	-6
626.038	1	16
626.208	1	8
626.377	1	9
626.547	1	2
626.717	1	-3
626.886	1	8
627.056	1	5
627.226	1	2
627.395	1	3
627.565	1	14
627.735	1	11
627.904	1	7
628.074	1	6
628.243	1	-8
628.413	1	2
628.583	1	10
628.752	1	2
628.922	1	11
629.091	1	1
629.261	1	0
629.431	1	1
629.600	1	13
629.770	1	-2
629.940	1	0
630.109	1	7
630.279	1	2
630.448	1	8
630.618	1	-3
630.788	1	13
630.957	1	6
631.127	1	17
631.297	1	3
631.466	1	-4
631.636	1	12
631.805	1	0
631.975	1	13
632.145	1	-8
632.314	1	2
632.484	1	2
632.653	1	2
632.823	1	9
632.993	1	13
633.162	1	6
633.332	1	4
633.501	1	-1
633.671	1	-4
633.841	1	13
634.010	1	1
634.180	1	11
634.349	1	3
634.519	1	7
634.689	1	2
634.858	1	8
635.028	1	-1
635.197	1	0
635.367	1	9
635.537	1	20
635.706	1	1
635.876	1	2
636.045	1	8
636.215	1	3
636.384	1	16
636.554	1	4
636.724	1	8
636.893	1	5
637.063	1	-9
637.232	1	1
637.402	1	2
637.572	1	6
637.741	1	5
637.911	1	-4
638.080	1	7
638.250	1	5
638.419	1	10
638.589	1	-4
638.759	1	1
638.928	1	7
639.098	1	3
639.267	1	11
639.437	1	7
639.606	1	7
639.776	1	11
639.946	1	1
640.115	1	2
640.285	1	-10
640.454	1	6
640.624	1	-2
640.793	1	5
640.963	1	0
641.132	1	-5
641.302	1	10
641.472	1	10
641.641	1	1
641.811	1	10
641.980	1	1
642.150	1	-1
642.319	1	-5
642.489	1	-2
642.659	1	13
642.828	1	-1
642.998	1	9
643.167	1	6
643.337	1	-2
643.506	1	-1
643.676	1	11
643.845	1	-1
644.015	1	-4
644.184	1	1
644.354	1	3
644.524	1	3
644.693	1	1
644.863	1	2
645.032	1	7
645.202	1	-4
645.371	1	9
645.541	1	-1
645.710	1	-10
645.880	1	6
646.049	1	-7
646.219	1	3
646.388	1	-3
646.558	1	11
646.728	1	1
646.897	1	13
647.067	1	0
647.236	1	2
647.406	1	4
647.575	1	-5
647.745	1	2
647.914	1	7
648.084	1	7
648.253	1	2
648.423	1	12
648.592	1	1
648.762	1	5
648.931	1	12
649.101	1	2
649.270	1	3
649.440	1	11
649.610	1	-1
649.779	1	12
649.949	1	0
650.118	1	-7
650.288	1	-2
650.457	1	-2
650.627	1	-2
650.796	1	6
650.966	1	0
651.135	1	4
651.305	1	1
651.474	1	22
651.644	1	1
651.813	1	13
651.983	1	-7
652.152	1	5
652.322	1	13
652.491	1	8
652.661	1	8
652.830	1	-1
653.000	1	3
653.169	1	14
653.339	1	9
653.508	1	7
653.678	1	12
653.847	1	0
654.017	1	3
654.186	1	14
654.356	1	-1
654.525	1	14
654.695	1	5
654.864	1	2
655.034	1	-1
655.203	1	6
655.373	1	9
655.542	1	9
655.712	1	2
655.881	1	12
656.051	1	2
656.220	1	7
656.390	1	17
656.559	1	2
656.729	1	7
656.898	1	8
657.068	1	2
657.237	1	2
657.406	1	0
657.576	1	2
657.745	1	14
657.915	1	3
658.084	1	7
658.254	1	-6
658.423	1	2
658.593	1	-3
658.762	1	2
658.932	1	11
659.101	1	-1
659.271	1	4
659.440	1	13
659.610	1	0
659.779	1	12
659.949	1	7
660.118	1	2
660.288	1	6
660.457	1	10
660.626	1	4
660.796	1	14
660.965	1	16
661.135	1	10
661.304	1	15
661.474	1	2
661.643	1	4
661.813	1	-10
661.982	1	4
662.152	1	8
662.321	1	5
662.491	1	-3
662.660	1	8
662.829	1	6
662.999	1	1
663.168	1	5
663.338	1	7
663.507	1	7
663.677	1	-3
663.846	1	-14
664.016	1	15
664.185	1	8
664.354	1	-6
664.524	1	4
664.693	1	1
664.863	1	6
665.032	1	6
665.202	1	2
665.371	1	2
665.541	1	10
665.710	1	-8
665.879	1	10
666.049	1	-4
666.218	1	-8
666.388	1	4
666.557	1	-2
666.727	1	0
666.896	1	2
667.065	1	12
667.235	1	13
667.404	1	18
667.574	1	3
667.743	1	-1
667.913	1	8
668.082	1	15
668.251	1	7
668.421	1	15
668.590	1	-7
668.760	1	1
668.929	1	1
669.099	1	-1
669.268	1	1
669.437	1	10
669.607	1	0
669.776	1	21
669.946	1	-3
670.115	1	8
670.285	1	5
670.454	1	11
670.623	1	-2
670.793	1	-1
670.962	1	2
671.132	1	4
671.301	1	0
671.470	1	8
671.640	1	1
671.809	1	-2
671.979	1	11
672.148	1	-1
672.317	1	2
672.487	1	-1
672.656	1	6
672.826	1	-1
672.995	1	11
673.164	1	3
673.334	1	-1
673.503	1	17
673.673	1	-1
673.842	1	7
674.011	1	-2
674.181	1	6
674.350	1	6
674.520	1	-4
674.689	1	18
674.858	1	5
675.028	1	11
675.197	1	6
675.367	1	11
675.536	1	1
675.705	1	-4
675.875	1	3
676.044	1	3
676.214	1	-1
676.383	1	19
676.552	1	12
676.722	1	12
676.891	1	5
677.060	1	14
677.230	1	2
677.399	1	0
677.569	1	-4
677.738	1	-8
677.907	1	5
678.077	1	11
678.246	1	3
678.416	1	6
678.585	1	4
678.754	1	10
678.924	1	2
679.093	1	4
679.262	1	1
679.432	1	-6
679.601	1	-6
679.771	1	9
679.940	1	1
680.109	1	8
680.279	1	2
680.448	1	-10
680.617	1	2
680.787	1	-5
680.956	1	1
681.125	1	11
681.295	1	3
681.464	1	12
681.634	1	2
681.803	1	16
681.972	1	-5
682.142	1	6
682.311	1	7
682.480	1	-10
682.650	1	-2
682.819	1	-4
682.988	1	7
683.158	1	2
683.327	1	13
683.496	1	1
683.666	1	8
683.835	1	0
684.004	1	6
684.174	1	-9
684.343	1	8
684.512	1	11
684.682	1	4
684.851	1	5
685.021	1	5
685.190	1	3
685.359	1	0
685.529	1	-4
685.698	1	14
685.867	1	8
686.037	1	-8
686.206	1	5
686.375	1	3
686.545	1	-4
686.714	1	-8
686.883	1	2
687.053	1	6
687.222	1	9
687.391	1	2
687.561	1	11
687.730	1	8
687.899	1	7
688.069	1	-13
688.238	1	-2
688.407	1	11
688.577	1	6
688.746	1	6
