340.368	1	-1
340.539	1	6
340.710	1	1
340.881	1	6
341.052	1	5
341.223	1	-1
341.394	1	8
341.565	1	-4
341.737	1	-10
341.908	1	-5
342.079	1	-3
342.250	1	1
342.421	1	-10
342.592	1	1
342.763	1	-4
342.934	1	0
343.105	1	4
343.276	1	-3
343.447	1	-1
343.618	1	3
343.789	1	-1
343.960	1	-10
344.131	1	-4
344.302	1	8
344.473	1	11
344.644	1	7
344.815	1	3
344.986	1	-7
345.157	1	0
345.328	1	-9
345.499	1	10
345.670	1	8
345.841	1	1
346.012	1	4
346.183	1	-2
346.354	1	5
346.526	1	4
346.697	1	2
346.868	1	4
347.039	1	5
347.210	1	-4
347.381	1	5
347.552	1	3
347.723	1	11
347.894	1	11
348.065	1	-9
348.236	1	3
348.407	1	3
348.578	1	-3
348.749	1	10
348.920	1	6
349.091	1	3
349.262	1	-8
349.433	1	7
349.604	1	4
349.775	1	3
349.946	1	-1
350.117	1	9
350.288	1	-5
350.459	1	-8
350.630	1	0
350.801	1	0
350.972	1	11
351.143	1	15
351.314	1	-2
351.485	1	-5
351.656	1	-1
351.827	1	3
351.998	1	1
352.169	1	-5
352.340	1	11
352.511	1	2
352.682	1	-1
352.853	1	0
353.024	1	15
353.195	1	-9
353.366	1	2
353.537	1	6
353.708	1	11
353.879	1	9
354.050	1	10
354.221	1	15
354.392	1	10
354.563	1	-2
354.734	1	9
354.905	1	6
355.076	1	7
355.247	1	-1
355.418	1	0
355.589	1	-4
355.760	1	4
355.931	1	-7
356.102	1	2
356.273	1	8
356.444	1	1
356.615	1	14
356.785	1	5
356.956	1	11
357.127	1	-1
357.298	1	6
357.469	1	16
357.640	1	9
357.811	1	12
357.982	1	8
358.153	1	12
358.324	1	16
358.495	1	9
358.666	1	3
358.837	1	8
359.008	1	1
359.179	1	13
359.350	1	8
359.521	1	9
359.692	1	11
359.863	1	20
360.034	1	14
360.205	1	18
360.376	1	14
360.547	1	7
360.718	1	2
360.889	1	22
361.060	1	15
361.231	1	9
361.401	1	13
361.572	1	11
361.743	1	5
361.914	1	17
362.085	1	10
362.256	1	18
362.427	1	8
362.598	1	18
362.769	1	15
362.940	1	18
363.111	1	5
363.282	1	23
363.453	1	17
363.624	1	14
363.795	1	21
363.966	1	13
364.137	1	7
364.308	1	16
364.478	1	13
364.649	1	7
364.820	1	21
364.991	1	17
365.162	1	19
365.333	1	8
365.504	1	18
365.675	1	20
365.846	1	23
366.017	1	28
366.188	1	33
366.359	1	30
366.530	1	24
366.701	1	24
366.871	1	28
367.042	1	26
367.213	1	23
367.384	1	28
367.555	1	26
367.726	1	18
367.897	1	43
368.068	1	38
368.239	1	15
368.410	1	29
368.581	1	34
368.752	1	27
368.923	1	36
369.093	1	30
369.264	1	26
369.435	1	37
369.606	1	25
369.777	1	35
369.948	1	40
370.119	1	32
370.290	1	40
370.461	1	46
370.632	1	37
370.803	1	26
370.973	1	32
371.144	1	46
371.315	1	31
371.486	1	29
371.657	1	33
371.828	1	26
371.999	1	33
372.170	1	28
372.341	1	36
372.512	1	32
372.682	1	45
372.853	1	35
373.024	1	39
373.195	1	36
373.366	1	31
373.537	1	41
373.708	1	42
373.879	1	38
374.050	1	28
374.220	1	51
374.391	1	38
374.562	1	40
374.733	1	42
374.904	1	39
375.075	1	37
375.246	1	53
375.417	1	28
375.588	1	33
375.758	1	32
375.929	1	36
376.100	1	34
376.271	1	31
376.442	1	36
376.613	1	30
376.784	1	31
376.955	1	37
377.125	1	35
377.296	1	28
377.467	1	18
377.638	1	36
377.809	1	35
377.980	1	38
378.151	1	35
378.321	1	43
378.492	1	29
378.663	1	33
378.834	1	10
379.005	1	41
379.176	1	27
379.347	1	52
379.518	1	35
379.688	1	23
379.859	1	24
380.030	1	27
380.201	1	19
380.372	1	20
380.543	1	24
380.714	1	31
380.884	1	23
381.055	1	14
381.226	1	42
381.397	1	17
381.568	1	21
381.739	1	27
381.910	1	28
382.080	1	17
382.251	1	19
382.422	1	28
382.593	1	17
382.764	1	31
382.935	1	32
383.105	1	25
383.276	1	34
383.447	1	13
383.618	1	36
383.789	1	19
383.960	1	3
384.130	1	12
384.301	1	24
384.472	1	16
384.643	1	25
384.814	1	15
384.985	1	21
385.156	1	20
385.326	1	19
385.497	1	20
385.668	1	17
385.839	1	22
386.010	1	12
386.180	1	17
386.351	1	15
386.522	1	9
386.693	1	10
386.864	1	24
387.035	1	25
387.205	1	21
387.376	1	8
387.547	1	21
387.718	1	9
387.889	1	10
388.060	1	16
388.230	1	16
388.401	1	26
388.572	1	7
388.743	1	16
388.914	1	14
389.084	1	13
389.255	1	11
389.426	1	15
389.597	1	14
389.768	1	17
389.939	1	9
390.109	1	11
390.280	1	3
390.451	1	19
390.622	1	22
390.793	1	14
390.963	1	18
391.134	1	26
391.305	1	25
391.476	1	7
391.647	1	19
391.817	1	19
391.988	1	11
392.159	1	7
392.330	1	8
392.501	1	11
392.671	1	5
392.842	1	7
393.013	1	17
393.184	1	6
393.355	1	10
393.525	1	-1
393.696	1	13
393.867	1	14
394.038	1	17
394.208	1	17
394.379	1	16
394.550	1	-13
394.721	1	23
394.892	1	4
395.062	1	-1
395.233	1	12
395.404	1	5
395.575	1	14
395.746	1	12
395.916	1	12
396.087	1	19
396.258	1	8
396.429	1	21
396.599	1	2
396.770	1	4
396.941	1	11
397.112	1	9
397.283	1	9
397.453	1	13
397.624	1	17
397.795	1	4
397.966	1	15
398.136	1	8
398.307	1	4
398.478	1	6
398.649	1	0
398.819	1	5
398.990	1	13
399.161	1	2
399.332	1	9
399.503	1	8
399.673	1	13
399.844	1	11
400.015	1	7
400.186	1	12
400.356	1	11
400.527	1	-10
400.698	1	15
400.869	1	5
401.039	1	9
401.210	1	9
401.381	1	0
401.552	1	9
401.722	1	4
401.893	1	10
402.064	1	13
402.235	1	7
402.405	1	6
402.576	1	-9
402.747	1	-4
402.918	1	2
403.088	1	7
403.259	1	7
403.430	1	-3
403.601	1	5
403.771	1	12
403.942	1	13
404.113	1	6
404.284	1	14
404.454	1	5
404.625	1	5
404.796	1	8
404.967	1	11
405.137	1	14
405.308	1	-9
405.479	1	2
405.649	1	7
405.820	1	5
405.991	1	4
406.162	1	6
406.332	1	1
406.503	1	0
406.674	1	8
406.845	1	12
407.015	1	4
407.186	1	4
407.357	1	6
407.527	1	16
407.698	1	7
407.869	1	-3
408.040	1	5
408.210	1	18
408.381	1	14
408.552	1	8
408.722	1	8
408.893	1	9
409.064	1	11
409.235	1	12
409.405	1	-2
409.576	1	13
409.747	1	8
409.917	1	10
410.088	1	18
410.259	1	-5
410.430	1	8
410.600	1	8
410.771	1	0
410.942	1	6
411.112	1	-2
411.283	1	2
411.454	1	8
411.625	1	3
411.795	1	12
411.966	1	6
412.137	1	12
412.307	1	-5
412.478	1	0
412.649	1	2
412.819	1	9
412.990	1	4
413.161	1	11
413.332	1	16
413.502	1	7
413.673	1	13
413.844	1	4
414.014	1	5
414.185	1	-2
414.356	1	11
414.526	1	7
414.697	1	2
414.868	1	9
415.038	1	19
415.209	1	6
415.380	1	7
415.550	1	-1
415.721	1	12
415.892	1	2
416.063	1	5
416.233	1	6
416.404	1	2
416.575	1	11
416.745	1	4
416.916	1	17
417.087	1	5
417.257	1	-6
417.428	1	4
417.599	1	-1
417.769	1	2
417.940	1	-3
418.111	1	21
418.281	1	8
418.452	1	14
418.623	1	-5
418.793	1	4
418.964	1	4
419.135	1	-3
419.305	1	4
419.476	1	-11
419.647	1	-2
419.817	1	-1
419.988	1	13
420.159	1	23
420.329	1	2
420.500	1	5
420.671	1	9
420.841	1	-2
421.012	1	11
421.183	1	6
421.353	1	6
421.524	1	7
421.695	1	5
421.865	1	14
422.036	1	12
422.206	1	1
422.377	1	-5
422.548	1	6
422.718	1	6
422.889	1	5
423.060	1	3
423.230	1	10
423.401	1	8
423.572	1	18
423.742	1	-3
423.913	1	4
424.084	1	0
424.254	1	2
424.425	1	4
424.595	1	7
424.766	1	2
424.937	1	8
425.107	1	17
425.278	1	4
425.449	1	2
425.619	1	17
425.790	1	7
425.961	1	2
426.131	1	-4
426.302	1	3
426.472	1	3
426.643	1	2
426.814	1	-1
426.984	1	15
427.155	1	10
427.326	1	8
427.496	1	4
427.667	1	11
427.837	1	11
428.008	1	4
428.179	1	12
428.349	1	1
428.520	1	-1
428.691	1	16
428.861	1	2
429.032	1	0
429.202	1	5
429.373	1	3
429.544	1	-7
429.714	1	9
429.885	1	0
430.055	1	-4
430.226	1	18
430.397	1	5
430.567	1	-2
430.738	1	-2
430.909	1	-4
431.079	1	11
431.250	1	7
431.420	1	8
431.591	1	8
431.762	1	9
431.932	1	12
432.103	1	4
432.273	1	3
432.444	1	11
432.615	1	2
432.785	1	9
432.956	1	10
433.126	1	8
433.297	1	0
433.468	1	7
433.638	1	11
433.809	1	7
433.979	1	-4
434.150	1	7
434.320	1	3
434.491	1	2
434.662	1	7
434.832	1	-3
435.003	1	12
435.173	1	6
435.344	1	10
435.515	1	9
435.685	1	3
435.856	1	3
436.026	1	9
436.197	1	8
436.368	1	9
436.538	1	9
436.709	1	14
436.879	1	12
437.050	1	1
437.220	1	3
437.391	1	5
437.562	1	14
437.732	1	13
437.903	1	-5
438.073	1	7
438.244	1	-1
438.414	1	14
438.585	1	15
438.756	1	11
438.926	1	1
439.097	1	3
439.267	1	0
439.438	1	9
439.608	1	-10
439.779	1	9
439.949	1	16
440.120	1	6
440.291	1	2
440.461	1	-1
440.632	1	7
440.802	1	0
440.973	1	9
441.143	1	14
441.314	1	15
441.485	1	7
441.655	1	7
441.826	1	-3
441.996	1	11
442.167	1	-7
442.337	1	-11
442.508	1	4
442.678	1	9
442.849	1	-1
443.019	1	4
443.190	1	12
443.361	1	3
443.531	1	-2
443.702	1	3
443.872	1	0
444.043	1	8
444.213	1	-2
444.384	1	5
444.554	1	10
444.725	1	8
444.895	1	14
445.066	1	16
445.237	1	9
445.407	1	1
445.578	1	6
445.748	1	6
445.919	1	3
446.089	1	11
446.260	1	6
446.430	1	14
446.601	1	-2
446.771	1	6
446.942	1	3
447.112	1	1
447.283	1	19
447.453	1	3
447.624	1	8
447.794	1	16
447.965	1	8
448.135	1	2
448.306	1	10
448.477	1	-4
448.647	1	-2
448.818	1	12
448.988	1	-3
449.159	1	5
449.329	1	6
449.500	1	1
449.670	1	-1
449.841	1	5
450.011	1	5
450.182	1	4
450.352	1	-1
450.523	1	6
450.693	1	2
450.864	1	-2
451.034	1	7
451.205	1	-5
451.375	1	-1
451.546	1	-1
451.716	1	10
451.887	1	7
452.057	1	0
452.228	1	-7
452.398	1	15
452.569	1	-10
452.739	1	-7
452.910	1	2
453.080	1	7
453.251	1	5
453.421	1	0
453.592	1	-1
453.762	1	6
453.933	1	4
454.103	1	12
454.274	1	2
454.444	1	9
454.615	1	1
454.785	1	4
454.956	1	7
455.126	1	4
455.297	1	5
455.467	1	8
455.638	1	6
455.808	1	-1
455.979	1	14
456.149	1	9
456.320	1	9
456.490	1	-7
456.661	1	14
456.831	1	12
457.001	1	12
457.172	1	5
457.342	1	0
457.513	1	12
457.683	1	5
457.854	1	1
458.024	1	-3
458.195	1	0
458.365	1	-3
458.536	1	2
458.706	1	8
458.877	1	11
459.047	1	14
459.218	1	4
459.388	1	-7
459.559	1	11
459.729	1	13
459.899	1	-3
460.070	1	6
460.240	1	4
460.411	1	5
460.581	1	3
460.752	1	11
460.922	1	8
461.093	1	3
461.263	1	3
461.434	1	-9
461.604	1	2
461.775	1	2
461.945	1	-5
462.115	1	20
462.286	1	1
462.456	1	-4
462.627	1	-4
462.797	1	6
462.968	1	-1
463.138	1	10
463.309	1	11
463.479	1	0
463.649	1	10
463.820	1	5
463.990	1	2
464.161	1	12
464.331	1	-3
464.502	1	8
464.672	1	6
464.843	1	5
465.013	1	13
465.183	1	10
465.354	1	2
465.524	1	7
465.695	1	1
465.865	1	4
466.036	1	3
466.206	1	0
466.376	1	12
466.547	1	5
466.717	1	3
466.888	1	1
467.058	1	9
467.229	1	12
467.399	1	5
467.569	1	3
467.740	1	6
467.910	1	-3
468.081	1	0
468.251	1	2
468.422	1	13
468.592	1	-4
468.762	1	5
468.933	1	1
469.103	1	-2
469.274	1	-1
469.444	1	-4
469.614	1	1
469.785	1	12
469.955	1	8
470.126	1	3
470.296	1	3
470.467	1	8
470.637	1	-1
470.807	1	7
470.978	1	6
471.148	1	6
471.319	1	-1
471.489	1	-5
471.659	1	16
471.830	1	2
472.000	1	-3
472.171	1	0
472.341	1	-3
472.511	1	10
472.682	1	-3
472.852	1	6
473.023	1	2
473.193	1	0
473.363	1	3
473.534	1	15
473.704	1	7
473.875	1	10
474.045	1	7
474.215	1	4
474.386	1	-5
474.556	1	5
474.727	1	5
474.897	1	5
475.067	1	10
475.238	1	9
475.408	1	9
475.578	1	-1
475.749	1	-1
475.919	1	11
476.090	1	-2
476.260	1	11
476.430	1	-15
476.601	1	10
476.771	1	5
476.942	1	4
477.112	1	3
477.282	1	-3
477.453	1	2
477.623	1	0
477.793	1	-5
477.964	1	10
478.134	1	-5
478.305	1	5
478.475	1	10
478.645	1	8
478.816	1	7
478.986	1	-11
479.156	1	8
479.327	1	7
479.497	1	-5
479.667	1	4
479.838	1	1
480.008	1	-5
480.179	1	10
480.349	1	0
480.519	1	11
480.690	1	-6
480.860	1	7
481.030	1	-9
481.201	1	5
481.371	1	-2
481.541	1	6
481.712	1	9
481.882	1	7
482.053	1	4
482.223	1	1
482.393	1	3
482.564	1	-7
482.734	1	6
482.904	1	12
483.075	1	11
483.245	1	1
483.415	1	10
483.586	1	11
483.756	1	4
483.926	1	3
484.097	1	-2
484.267	1	12
484.437	1	4
484.608	1	2
484.778	1	16
484.948	1	1
485.119	1	4
485.289	1	2
485.459	1	9
485.630	1	6
485.800	1	-4
485.970	1	4
486.141	1	2
486.311	1	4
486.481	1	8
486.652	1	12
486.822	1	4
486.992	1	-13
487.163	1	2
487.333	1	7
487.503	1	-2
487.674	1	-1
487.844	1	12
488.014	1	1
488.185	1	-6
488.355	1	9
488.525	1	7
488.696	1	9
488.866	1	-3
489.036	1	6
489.207	1	14
489.377	1	2
489.547	1	0
489.718	1	4
489.888	1	3
490.058	1	4
490.228	1	-2
490.399	1	1
490.569	1	-1
490.739	1	1
490.910	1	2
491.080	1	6
491.250	1	7
491.421	1	5
491.591	1	-3
491.761	1	8
491.932	1	7
492.102	1	2
492.272	1	-7
492.442	1	6
492.613	1	4
492.783	1	4
492.953	1	16
493.124	1	10
493.294	1	10
493.464	1	3
493.635	1	2
493.805	1	1
493.975	1	3
494.145	1	6
494.316	1	1
494.486	1	13
494.656	1	12
494.827	1	8
494.997	1	5
495.167	1	2
495.337	1	17
495.508	1	10
495.678	1	7
495.848	1	-5
496.019	1	-7
496.189	1	7
496.359	1	-6
496.529	1	10
496.700	1	14
496.870	1	6
497.040	1	2
497.211	1	0
497.381	1	4
497.551	1	3
497.721	1	7
497.892	1	4
498.062	1	8
498.232	1	3
498.403	1	7
498.573	1	2
498.743	1	6
498.913	1	-15
499.084	1	-4
499.254	1	-2
499.424	1	1
499.594	1	4
499.765	1	1
499.935	1	6
500.105	1	4
500.275	1	-2
500.446	1	4
500.616	1	9
500.786	1	2
500.956	1	7
501.127	1	13
501.297	1	8
501.467	1	3
501.638	1	6
501.808	1	5
501.978	1	-4
502.148	1	7
502.319	1	3
502.489	1	13
502.659	1	1
502.829	1	4
503.000	1	14
503.170	1	14
503.340	1	8
503.510	1	10
503.681	1	3
503.851	1	-3
504.021	1	13
504.191	1	3
504.362	1	-6
504.532	1	8
504.702	1	6
504.872	1	23
505.042	1	6
505.213	1	10
505.383	1	10
505.553	1	5
505.723	1	10
505.894	1	1
506.064	1	0
506.234	1	10
506.404	1	8
506.575	1	2
506.745	1	15
506.915	1	-10
507.085	1	9
507.256	1	8
507.426	1	2
507.596	1	-9
507.766	1	2
507.936	1	9
508.107	1	12
508.277	1	16
508.447	1	7
508.617	1	0
508.788	1	0
508.958	1	7
509.128	1	3
509.298	1	4
509.468	1	3
509.639	1	-1
509.809	1	-4
509.979	1	8
510.149	1	7
510.319	1	4
510.490	1	2
510.660	1	6
510.830	1	1
511.000	1	-9
511.171	1	18
511.341	1	0
511.511	1	12
511.681	1	-7
511.851	1	-2
512.022	1	9
512.192	1	3
512.362	1	8
512.532	1	1
512.702	1	3
512.873	1	1
513.043	1	-2
513.213	1	5
513.383	1	-1
513.553	1	4
513.724	1	9
513.894	1	16
514.064	1	4
514.234	1	4
514.404	1	5
514.575	1	2
514.745	1	-11
514.915	1	-4
515.085	1	5
515.255	1	-4
515.425	1	15
515.596	1	1
515.766	1	2
515.936	1	2
516.106	1	9
516.276	1	9
516.447	1	0
516.617	1	0
516.787	1	-6
516.957	1	1
517.127	1	5
517.297	1	7
517.468	1	5
517.638	1	-5
517.808	1	1
517.978	1	0
518.148	1	5
518.319	1	4
518.489	1	1
518.659	1	3
518.829	1	7
518.999	1	-1
519.169	1	-5
519.340	1	3
519.510	1	-2
519.680	1	0
519.850	1	13
520.020	1	5
520.190	1	-4
520.361	1	-2
520.531	1	14
520.701	1	8
520.871	1	-10
521.041	1	8
521.211	1	-1
521.382	1	8
521.552	1	7
521.722	1	1
521.892	1	1
522.062	1	3
522.232	1	2
522.402	1	11
522.573	1	9
522.743	1	4
522.913	1	-7
523.083	1	10
523.253	1	9
523.423	1	4
523.593	1	-8
523.764	1	-6
523.934	1	0
524.104	1	0
524.274	1	0
524.444	1	9
524.614	1	3
524.784	1	-4
524.955	1	5
525.125	1	7
525.295	1	7
525.465	1	-2
525.635	1	-1
525.805	1	13
525.975	1	2
526.146	1	14
526.316	1	4
526.486	1	-1
526.656	1	-3
526.826	1	-1
526.996	1	-5
527.166	1	9
527.337	1	5
527.507	1	7
527.677	1	3
527.847	1	0
528.017	1	5
528.187	1	-5
528.357	1	3
528.527	1	8
528.698	1	-4
528.868	1	9
529.038	1	7
529.208	1	-4
529.378	1	7
529.548	1	-1
529.718	1	-4
529.888	1	4
530.058	1	11
530.229	1	1
530.399	1	-10
530.569	1	12
530.739	1	5
530.909	1	-4
531.079	1	2
531.249	1	2
531.419	1	1
531.589	1	-2
531.760	1	2
531.930	1	4
532.100	1	8
532.270	1	14
532.440	1	14
532.610	1	-3
532.780	1	4
532.950	1	7
533.120	1	3
533.290	1	8
533.461	1	-7
533.631	1	-4
533.801	1	3
533.971	1	11
534.141	1	9
534.311	1	2
534.481	1	6
534.651	1	2
534.821	1	4
534.991	1	7
535.162	1	-6
535.332	1	2
535.502	1	-1
535.672	1	-4
535.842	1	0
536.012	1	6
536.182	1	-2
536.352	1	0
536.522	1	0
536.692	1	8
536.862	1	-3
537.032	1	10
537.203	1	8
537.373	1	-17
537.543	1	10
537.713	1	-2
537.883	1	4
538.053	1	7
538.223	1	13
538.393	1	3
538.563	1	-1
538.733	1	3
538.903	1	-1
539.073	1	13
539.243	1	4
539.413	1	5
539.584	1	3
539.754	1	2
539.924	1	4
540.094	1	9
540.264	1	-4
540.434	1	-5
540.604	1	-4
540.774	1	3
540.944	1	12
541.114	1	0
541.284	1	10
541.454	1	9
541.624	1	-2
541.794	1	3
541.964	1	5
542.134	1	12
542.305	1	12
542.475	1	5
542.645	1	-5
542.815	1	12
542.985	1	12
543.155	1	9
543.325	1	3
543.495	1	4
543.665	1	0
543.835	1	9
544.005	1	10
544.175	1	4
544.345	1	6
544.515	1	0
544.685	1	13
544.855	1	11
545.025	1	1
545.195	1	-3
545.365	1	9
545.535	1	-11
545.705	1	2
545.875	1	-1
546.045	1	6
546.216	1	5
546.386	1	9
546.556	1	13
546.726	1	7
546.896	1	8
547.066	1	-6
547.236	1	8
547.406	1	7
547.576	1	-3
547.746	1	-1
547.916	1	8
548.086	1	3
548.256	1	4
548.426	1	13
548.596	1	4
548.766	1	3
548.936	1	10
549.106	1	-1
549.276	1	-7
549.446	1	16
549.616	1	3
549.786	1	-4
549.956	1	8
550.126	1	-5
550.296	1	9
550.466	1	5
550.636	1	8
550.806	1	4
550.976	1	2
551.146	1	2
551.316	1	2
551.486	1	15
551.656	1	7
551.826	1	13
551.996	1	8
552.166	1	3
552.336	1	5
552.506	1	4
552.676	1	7
552.846	1	2
553.016	1	10
553.186	1	5
553.356	1	-8
553.526	1	6
553.696	1	-2
553.866	1	-1
554.036	1	20
554.206	1	-4
554.376	1	13
554.546	1	4
554.716	1	3
554.886	1	2
555.056	1	11
555.226	1	-8
555.396	1	5
555.566	1	4
555.736	1	-3
555.906	1	2
556.076	1	5
556.246	1	7
556.416	1	-1
556.586	1	-4
556.756	1	3
556.926	1	-9
557.096	1	-4
557.266	1	10
557.436	1	11
557.606	1	4
557.776	1	8
557.946	1	8
558.116	1	19
558.286	1	7
558.456	1	10
558.626	1	-10
558.796	1	15
558.966	1	7
559.136	1	0
559.306	1	5
559.476	1	3
559.646	1	-1
559.816	1	1
559.986	1	4
560.155	1	-5
560.325	1	8
560.495	1	4
560.665	1	11
560.835	1	4
561.005	1	7
561.175	1	6
561.345	1	1
561.515	1	4
561.685	1	-4
561.855	1	2
562.025	1	3
562.195	1	11
562.365	1	1
562.535	1	15
562.705	1	8
562.875	1	4
563.045	1	9
563.215	1	10
563.385	1	6
563.555	1	2
563.725	1	5
563.895	1	4
564.064	1	1
564.234	1	4
564.404	1	9
564.574	1	12
564.744	1	-4
564.914	1	-2
565.084	1	7
565.254	1	15
565.424	1	-17
565.594	1	17
565.764	1	0
565.934	1	10
566.104	1	-3
566.274	1	-2
566.444	1	12
566.614	1	2
566.783	1	11
566.953	1	-2
567.123	1	1
567.293	1	-8
567.463	1	4
567.633	1	6
567.803	1	3
567.973	1	7
568.143	1	9
568.313	1	6
568.483	1	-2
568.653	1	12
568.823	1	-8
568.993	1	2
569.162	1	0
569.332	1	4
569.502	1	9
569.672	1	-4
569.842	1	2
570.012	1	19
570.182	1	5
570.352	1	6
570.522	1	11
570.692	1	3
570.862	1	7
571.031	1	1
571.201	1	-3
571.371	1	-4
571.541	1	1
571.711	1	11
571.881	1	2
572.051	1	6
572.221	1	-3
572.391	1	-6
572.561	1	0
572.731	1	-3
572.900	1	4
573.070	1	5
573.240	1	12
573.410	1	6
573.580	1	2
573.750	1	7
573.920	1	7
574.090	1	13
574.260	1	-9
574.430	1	3
574.599	1	10
574.769	1	6
574.939	1	-2
575.109	1	7
575.279	1	12
575.449	1	3
575.619	1	-1
575.789	1	9
575.959	1	5
576.128	1	-2
576.298	1	6
576.468	1	-1
576.638	1	10
576.808	1	0
576.978	1	7
577.148	1	3
577.318	1	13
577.487	1	4
577.657	1	2
577.827	1	3
577.997	1	9
578.167	1	-9
578.337	1	20
578.507	1	-1
578.677	1	5
578.846	1	6
579.016	1	9
579.186	1	-2
579.356	1	-9
579.526	1	17
579.696	1	2
579.866	1	-3
580.036	1	3
580.205	1	0
580.375	1	19
580.545	1	3
580.715	1	15
580.885	1	-5
581.055	1	7
581.225	1	8
581.394	1	-1
581.564	1	-4
581.734	1	5
581.904	1	0
582.074	1	1
582.244	1	7
582.414	1	17
582.583	1	7
582.753	1	3
582.923	1	8
583.093	1	8
583.263	1	-11
583.433	1	-4
583.603	1	9
583.772	1	11
583.942	1	0
584.112	1	-6
584.282	1	12
584.452	1	1
584.622	1	-2
584.791	1	1
584.961	1	0
585.131	1	3
585.301	1	9
585.471	1	0
585.641	1	10
585.811	1	-3
585.980	1	2
586.150	1	2
586.320	1	2
586.490	1	-3
586.660	1	1
586.830	1	1
586.999	1	7
587.169	1	5
587.339	1	14
587.509	1	8
587.679	1	2
587.849	1	12
588.018	1	2
588.188	1	4
588.358	1	5
588.528	1	4
588.698	1	7
588.867	1	12
589.037	1	5
589.207	1	6
589.377	1	-4
589.547	1	3
589.717	1	2
589.886	1	10
590.056	1	10
590.226	1	18
590.396	1	5
590.566	1	10
590.735	1	-1
590.905	1	-3
591.075	1	-5
591.245	1	7
591.415	1	6
591.585	1	-4
591.754	1	7
591.924	1	-3
592.094	1	3
592.264	1	3
592.434	1	3
592.603	1	-4
592.773	1	8
592.943	1	-10
593.113	1	5
593.283	1	10
593.452	1	5
593.622	1	2
593.792	1	14
593.962	1	2
594.132	1	16
594.301	1	-8
594.471	1	10
594.641	1	-5
594.811	1	1
594.981	1	2
595.150	1	7
595.320	1	5
595.490	1	-2
595.660	1	-3
595.829	1	11
595.999	1	-6
596.169	1	0
596.339	1	18
596.509	1	2
596.678	1	10
596.848	1	-3
597.018	1	2
597.188	1	10
597.358	1	7
597.527	1	14
597.697	1	-1
597.867	1	-1
598.037	1	-5
598.206	1	10
598.376	1	0
598.546	1	9
598.716	1	14
598.885	1	2
599.055	1	7
599.225	1	-2
599.395	1	5
599.565	1	-4
599.734	1	2
599.904	1	2
600.074	1	6
600.244	1	2
600.413	1	-2
600.583	1	7
600.753	1	2
600.923	1	14
601.092	1	13
601.262	1	18
601.432	1	-2
601.602	1	7
601.771	1	7
601.941	1	12
602.111	1	4
602.281	1	-2
602.451	1	10
602.620	1	7
602.790	1	12
602.960	1	9
603.130	1	6
603.299	1	3
603.469	1	0
603.639	1	-6
603.809	1	6
603.978	1	14
604.148	1	-2
604.318	1	4
604.487	1	3
604.657	1	16
604.827	1	5
604.997	1	6
605.166	1	5
605.336	1	1
605.506	1	8
605.676	1	12
605.845	1	7
606.015	1	2
606.185	1	5
606.355	1	6
606.524	1	5
606.694	1	11
606.864	1	-2
607.034	1	9
607.203	1	9
607.373	1	9
607.543	1	13
607.712	1	7
607.882	1	17
608.052	1	-1
608.222	1	9
608.391	1	5
608.561	1	8
608.731	1	11
608.901	1	1
609.070	1	0
609.240	1	8
609.410	1	4
609.579	1	2
609.749	1	-8
609.919	1	6
610.089	1	4
610.258	1	4
610.428	1	-6
610.598	1	11
610.767	1	-7
610.937	1	0
611.107	1	-3
611.277	1	0
611.446	1	4
611.616	1	9
611.786	1	8
611.955	1	-7
612.125	1	7
612.295	1	5
612.465	1	-4
612.634	1	-7
612.804	1	17
612.974	1	4
613.143	1	7
613.313	1	-3
613.483	1	-5
613.652	1	13
613.822	1	15
613.992	1	-2
614.162	1	16
614.331	1	2
614.501	1	-5
614.671	1	4
614.840	1	15
615.010	1	10
615.180	1	0
615.349	1	1
615.519	1	4
615.689	1	11
615.858	1	8
616.028	1	9
616.198	1	4
616.368	1	9
616.537	1	6
616.707	1	3
616.877	1	-7
617.046	1	4
617.216	1	2
617.386	1	3
617.555	1	14
617.725	1	-4
617.895	1	17
618.064	1	10
618.234	1	6
618.404	1	17
618.573	1	6
618.743	1	-1
618.913	1	4
619.082	1	5
619.252	1	9
619.422	1	19
619.591	1	1
619.761	1	6
619.931	1	-11
620.100	1	-1
620.270	1	6
620.440	1	9
620.609	1	4
620.779	1	2
620.949	1	11
621.118	1	4
621.288	1	1
621.458	1	2
621.627	1	11
621.797	1	-1
621.967	1	9
622.136	1	6
622.306	1	-7
622.476	1	7
622.645	1	11
622.815	1	2
622.985	1	3
623.154	1	5
623.324	1	6
623.494	1	0
623.663	1	6
623.833	1	1
624.002	1	5
624.172	1	3
624.342	1	-11
624.511	1	11
624.681	1	10
624.851	1	13
625.020	1	7
625.190	1	5
625.360	1	5
625.529	1	4
625.699	1	10
625.869	1	0
626.038	1	7
626.208	1	1
626.377	1	11
626.547	1	-7
626.717	1	4
626.886	1	11
627.056	1	-5
627.226	1	13
627.395	1	2
627.565	1	-1
627.735	1	-13
627.904	1	-5
628.074	1	6
628.243	1	-7
628.413	1	0
628.583	1	12
628.752	1	3
628.922	1	-1
629.091	1	3
629.261	1	-4
629.431	1	-2
629.600	1	3
629.770	1	-3
629.940	1	6
630.109	1	11
630.279	1	8
630.448	1	9
630.618	1	8
630.788	1	8
630.957	1	10
631.127	1	10
631.297	1	-5
631.466	1	3
631.636	1	11
631.805	1	8
631.975	1	7
632.145	1	-7
632.314	1	7
632.484	1	7
632.653	1	-5
632.823	1	11
632.993	1	10
633.162	1	3
633.332	1	10
633.501	1	5
633.671	1	5
633.841	1	11
634.010	1	10
634.180	1	-5
634.349	1	0
634.519	1	5
634.689	1	9
634.858	1	3
635.028	1	2
635.197	1	10
635.367	1	6
635.537	1	15
635.706	1	9
635.876	1	3
636.045	1	1
636.215	1	4
636.384	1	7
636.554	1	6
636.724	1	8
636.893	1	2
637.063	1	-2
637.232	1	-1
637.402	1	5
637.572	1	8
637.741	1	10
637.911	1	-4
638.080	1	4
638.250	1	0
638.419	1	6
638.589	1	-3
638.759	1	4
638.928	1	8
639.098	1	14
639.267	1	6
639.437	1	8
639.606	1	8
639.776	1	-1
639.946	1	0
640.115	1	0
640.285	1	4
640.454	1	8
640.624	1	5
640.793	1	8
640.963	1	-7
641.132	1	-10
641.302	1	-3
641.472	1	1
641.641	1	6
641.811	1	7
641.980	1	4
642.150	1	8
642.319	1	6
642.489	1	-9
642.659	1	6
642.828	1	-4
642.998	1	-1
643.167	1	0
643.337	1	-6
643.506	1	-1
643.676	1	6
643.845	1	-2
644.015	1	-4
644.184	1	-1
644.354	1	4
644.524	1	8
644.693	1	8
644.863	1	1
645.032	1	4
645.202	1	-12
645.371	1	9
645.541	1	-9
645.710	1	3
645.880	1	6
646.049	1	-12
646.219	1	3
646.388	1	0
646.558	1	12
646.728	1	-2
646.897	1	14
647.067	1	6
647.236	1	13
647.406	1	5
647.575	1	5
647.745	1	-2
647.914	1	0
648.084	1	9
648.253	1	7
648.423	1	5
648.592	1	2
648.762	1	18
648.931	1	9
649.101	1	-11
649.270	1	2
649.440	1	13
649.610	1	-3
649.779	1	11
649.949	1	-8
650.118	1	-3
650.288	1	3
650.457	1	-1
650.627	1	0
650.796	1	-6
650.966	1	9
651.135	1	0
651.305	1	10
651.474	1	15
651.644	1	7
651.813	1	3
651.983	1	-14
652.152	1	2
652.322	1	9
652.491	1	10
652.661	1	5
652.830	1	4
653.000	1	4
653.169	1	-4
653.339	1	5
653.508	1	2
653.678	1	10
653.847	1	0
654.017	1	3
654.186	1	14
654.356	1	-3
654.525	1	5
654.695	1	4
654.864	1	0
655.034	1	5
655.203	1	12
655.373	1	8
655.542	1	6
655.712	1	5
655.881	1	11
656.051	1	7
656.220	1	9
656.390	1	21
656.559	1	10
656.729	1	-6
656.898	1	4
657.068	1	5
657.237	1	4
657.406	1	3
657.576	1	-3
657.745	1	9
657.915	1	13
658.084	1	5
658.254	1	-5
658.423	1	-7
658.593	1	-2
658.762	1	1
658.932	1	5
659.101	1	-2
659.271	1	4
659.440	1	2
659.610	1	5
659.779	1	7
659.949	1	-1
660.118	1	0
660.288	1	-8
660.457	1	1
660.626	1	6
660.796	1	5
660.965	1	8
661.135	1	15
661.304	1	13
661.474	1	3
661.643	1	4
661.813	1	-4
661.982	1	3
662.152	1	4
662.321	1	-3
662.491	1	-2
662.660	1	2
662.829	1	1
662.999	1	6
663.168	1	6
663.338	1	6
663.507	1	3
663.677	1	2
663.846	1	-4
664.016	1	5
664.185	1	9
664.354	1	1
664.524	1	4
664.693	1	4
664.863	1	6
665.032	1	-1
665.202	1	6
665.371	1	-2
665.541	1	0
665.710	1	4
665.879	1	-2
666.049	1	-6
666.218	1	-5
666.388	1	7
666.557	1	6
666.727	1	-6
666.896	1	1
667.065	1	5
667.235	1	2
667.404	1	3
667.574	1	-3
667.743	1	-6
667.913	1	10
668.082	1	19
668.251	1	7
668.421	1	8
668.590	1	-14
668.760	1	1
668.929	1	-2
669.099	1	-3
669.268	1	3
669.437	1	4
669.607	1	-12
669.776	1	20
669.946	1	-4
670.115	1	6
670.285	1	-7
670.454	1	17
670.623	1	-2
670.793	1	7
670.962	1	4
671.132	1	13
671.301	1	0
671.470	1	3
671.640	1	4
671.809	1	2
671.979	1	5
672.148	1	-3
672.317	1	5
672.487	1	3
672.656	1	5
672.826	1	-1
672.995	1	8
673.164	1	10
673.334	1	-4
673.503	1	3
673.673	1	2
673.842	1	2
674.011	1	8
674.181	1	7
674.350	1	1
674.520	1	-2
674.689	1	20
674.858	1	7
675.028	1	1
675.197	1	-2
675.367	1	9
675.536	1	-2
675.705	1	5
675.875	1	-1
676.044	1	8
676.214	1	7
676.383	1	14
676.552	1	8
676.722	1	6
676.891	1	-1
677.060	1	3
677.230	1	-9
677.399	1	1
677.569	1	-9
677.738	1	-6
677.907	1	3
678.077	1	10
678.246	1	-2
678.416	1	11
678.585	1	2
678.754	1	8
678.924	1	9
679.093	1	1
679.262	1	-3
679.432	1	0
679.601	1	0
679.771	1	13
679.940	1	0
680.109	1	7
680.279	1	5
680.448	1	-8
680.617	1	2
680.787	1	2
680.956	1	8
681.125	1	10
681.295	1	3
681.464	1	6
681.634	1	5
681.803	1	9
681.972	1	0
682.142	1	8
682.311	1	4
682.480	1	3
682.650	1	1
682.819	1	2
682.988	1	4
683.158	1	-1
683.327	1	3
683.496	1	0
683.666	1	4
683.835	1	-9
684.004	1	7
684.174	1	11
684.343	1	4
684.512	1	4
684.682	1	6
684.851	1	-3
685.021	1	5
685.190	1	-2
685.359	1	-1
685.529	1	-2
685.698	1	-1
685.867	1	17
686.037	1	0
686.206	1	8
686.375	1	3
686.545	1	1
686.714	1	-1
686.883	1	-3
687.053	1	-1
687.222	1	0
687.391	1	-1
687.561	1	7
687.730	1	0
687.899	1	8
688.069	1	-4
688.238	1	6
688.407	1	13
688.577	1	6
688.746	1	2
