340.368	1	13
340.539	1	16
340.710	1	4
340.881	1	13
341.052	1	9
341.223	1	6
341.394	1	11
341.565	1	7
341.737	1	-3
341.908	1	12
342.079	1	18
342.250	1	3
342.421	1	1
342.592	1	13
342.763	1	3
342.934	1	15
343.105	1	10
343.276	1	0
343.447	1	7
343.618	1	-6
343.789	1	12
343.960	1	-9
344.131	1	8
344.302	1	7
344.473	1	12
344.644	1	9
344.815	1	13
344.986	1	-5
345.157	1	9
345.328	1	6
345.499	1	14
345.670	1	-3
345.841	1	9
346.012	1	16
346.183	1	2
346.354	1	10
346.526	1	14
346.697	1	12
346.868	1	3
347.039	1	29
347.210	1	-1
347.381	1	4
347.552	1	13
347.723	1	6
347.894	1	23
348.065	1	4
348.236	1	12
348.407	1	10
348.578	1	8
348.749	1	16
348.920	1	13
349.091	1	11
349.262	1	12
349.433	1	12
349.604	1	10
349.775	1	19
349.946	1	5
350.117	1	12
350.288	1	19
350.459	1	16
350.630	1	11
350.801	1	22
350.972	1	17
351.143	1	19
351.314	1	17
351.485	1	13
351.656	1	13
351.827	1	29
351.998	1	17
352.169	1	13
352.340	1	34
352.511	1	12
352.682	1	27
352.853	1	16
353.024	1	20
353.195	1	18
353.366	1	24
353.537	1	16
353.708	1	34
353.879	1	35
354.050	1	34
354.221	1	31
354.392	1	38
354.563	1	22
354.734	1	27
354.905	1	28
355.076	1	34
355.247	1	35
355.418	1	36
355.589	1	42
355.760	1	43
355.931	1	22
356.102	1	37
356.273	1	40
356.444	1	44
356.615	1	37
356.785	1	44
356.956	1	47
357.127	1	46
357.298	1	50
357.469	1	56
357.640	1	53
357.811	1	54
357.982	1	58
358.153	1	61
358.324	1	69
358.495	1	56
358.666	1	64
358.837	1	64
359.008	1	78
359.179	1	68
359.350	1	69
359.521	1	78
359.692	1	84
359.863	1	80
360.034	1	92
360.205	1	96
360.376	1	102
360.547	1	97
360.718	1	98
360.889	1	123
361.060	1	115
361.231	1	113
361.401	1	109
361.572	1	121
361.743	1	126
361.914	1	140
362.085	1	141
362.256	1	145
362.427	1	149
362.598	1	163
362.769	1	179
362.940	1	168
363.111	1	176
363.282	1	193
363.453	1	201
363.624	1	209
363.795	1	201
363.966	1	227
364.137	1	241
364.308	1	259
364.478	1	259
364.649	1	260
364.820	1	269
364.991	1	297
365.162	1	312
365.333	1	307
365.504	1	327
365.675	1	342
365.846	1	368
366.017	1	392
366.188	1	391
366.359	1	410
366.530	1	424
366.701	1	468
366.871	1	482
367.042	1	504
367.213	1	545
367.384	1	528
367.555	1	565
367.726	1	593
367.897	1	623
368.068	1	633
368.239	1	660
368.410	1	662
368.581	1	702
368.752	1	738
368.923	1	787
369.093	1	792
369.264	1	830
369.435	1	833
369.606	1	882
369.777	1	916
369.948	1	914
370.119	1	982
370.290	1	989
370.461	1	1023
370.632	1	1059
370.803	1	1077
370.973	1	1111
371.144	1	1162
371.315	1	1170
371.486	1	1200
371.657	1	1198
371.828	1	1250
371.999	1	1275
372.170	1	1323
372.341	1	1325
372.512	1	1343
372.682	1	1376
372.853	1	1391
373.024	1	1414
373.195	1	1421
373.366	1	1456
373.537	1	1430
373.708	1	1451
373.879	1	1439
374.050	1	1453
374.220	1	1455
374.391	1	1449
374.562	1	1466
374.733	1	1462
374.904	1	1434
375.075	1	1419
375.246	1	1398
375.417	1	1399
375.588	1	1391
375.758	1	1370
375.929	1	1360
376.100	1	1335
376.271	1	1337
376.442	1	1317
376.613	1	1277
376.784	1	1238
376.955	1	1232
377.125	1	1203
377.296	1	1164
377.467	1	1114
377.638	1	1108
377.809	1	1097
377.980	1	1076
378.151	1	1033
378.321	1	1047
378.492	1	1001
378.663	1	975
378.834	1	950
379.005	1	922
379.176	1	920
379.347	1	922
379.518	1	880
379.688	1	852
379.859	1	831
380.030	1	823
380.201	1	813
380.372	1	795
380.543	1	787
380.714	1	769
380.884	1	732
381.055	1	725
381.226	1	701
381.397	1	686
381.568	1	656
381.739	1	647
381.910	1	614
382.080	1	618
382.251	1	572
382.422	1	573
382.593	1	565
382.764	1	536
382.935	1	524
383.105	1	512
383.276	1	510
383.447	1	488
383.618	1	491
383.789	1	457
383.960	1	438
384.130	1	441
384.301	1	428
384.472	1	424
384.643	1	412
384.814	1	413
384.985	1	414
385.156	1	405
385.326	1	394
385.497	1	388
385.668	1	379
385.839	1	365
386.010	1	371
386.180	1	350
386.351	1	334
386.522	1	330
386.693	1	322
386.864	1	312
387.035	1	308
387.205	1	307
387.376	1	283
387.547	1	299
387.718	1	262
387.889	1	263
388.060	1	271
388.230	1	257
388.401	1	246
388.572	1	245
388.743	1	245
388.914	1	216
389.084	1	216
389.255	1	212
389.426	1	218
389.597	1	224
389.768	1	212
389.939	1	219
390.109	1	193
390.280	1	202
390.451	1	214
390.622	1	200
390.793	1	206
390.963	1	201
391.134	1	193
391.305	1	203
391.476	1	192
391.647	1	179
391.817	1	188
391.988	1	178
392.159	1	162
392.330	1	171
392.501	1	161
392.671	1	151
392.842	1	151
393.013	1	152
393.184	1	141
393.355	1	133
393.525	1	137
393.696	1	123
393.867	1	119
394.038	1	127
394.208	1	130
394.379	1	125
394.550	1	109
394.721	1	122
394.892	1	115
395.062	1	106
395.233	1	106
395.404	1	100
395.575	1	105
395.746	1	102
395.916	1	94
396.087	1	117
396.258	1	100
396.429	1	108
396.599	1	84
396.770	1	84
396.941	1	95
397.112	1	97
397.283	1	85
397.453	1	88
397.624	1	82
397.795	1	86
397.966	1	93
398.136	1	84
398.307	1	77
398.478	1	81
398.649	1	80
398.819	1	74
398.990	1	76
399.161	1	83
399.332	1	68
399.503	1	74
399.673	1	79
399.844	1	75
400.015	1	71
400.186	1	65
400.356	1	65
400.527	1	44
400.698	1	68
400.869	1	57
401.039	1	62
401.210	1	70
401.381	1	66
401.552	1	63
401.722	1	58
401.893	1	56
402.064	1	66
402.235	1	55
402.405	1	49
402.576	1	52
402.747	1	52
402.918	1	52
403.088	1	45
403.259	1	54
403.430	1	38
403.601	1	50
403.771	1	51
403.942	1	44
404.113	1	41
404.284	1	56
404.454	1	43
404.625	1	43
404.796	1	41
404.967	1	49
405.137	1	46
405.308	1	35
405.479	1	40
405.649	1	51
405.820	1	39
405.991	1	40
406.162	1	37
406.332	1	36
406.503	1	38
406.674	1	39
406.845	1	37
407.015	1	40
407.186	1	38
407.357	1	49
407.527	1	35
407.698	1	36
407.869	1	26
408.040	1	32
408.210	1	32
408.381	1	31
408.552	1	33
408.722	1	41
408.893	1	34
409.064	1	40
409.235	1	37
409.405	1	36
409.576	1	40
409.747	1	34
409.917	1	34
410.088	1	39
410.259	1	31
410.430	1	41
410.600	1	32
410.771	1	33
410.942	1	35
411.112	1	25
411.283	1	30
411.454	1	31
411.625	1	34
411.795	1	36
411.966	1	32
412.137	1	33
412.307	1	18
412.478	1	13
412.649	1	19
412.819	1	30
412.990	1	17
413.161	1	29
413.332	1	33
413.502	1	28
413.673	1	37
413.844	1	22
414.014	1	29
414.185	1	19
414.356	1	17
414.526	1	25
414.697	1	29
414.868	1	16
415.038	1	32
415.209	1	19
415.380	1	30
415.550	1	28
415.721	1	29
415.892	1	20
416.063	1	23
416.233	1	34
416.404	1	19
416.575	1	24
416.745	1	20
416.916	1	34
417.087	1	16
417.257	1	14
417.428	1	24
417.599	1	16
417.769	1	17
417.940	1	20
418.111	1	29
418.281	1	21
418.452	1	19
418.623	1	29
418.793	1	16
418.964	1	7
419.135	1	26
419.305	1	21
419.476	1	9
419.647	1	18
419.817	1	18
419.988	1	22
420.159	1	34
420.329	1	20
420.500	1	6
420.671	1	29
420.841	1	28
421.012	1	16
421.183	1	20
421.353	1	15
421.524	1	18
421.695	1	18
421.865	1	29
422.036	1	14
422.206	1	16
422.377	1	5
422.548	1	9
422.718	1	20
422.889	1	24
423.060	1	18
423.230	1	11
423.401	1	24
423.572	1	15
423.742	1	11
423.913	1	20
424.084	1	11
424.254	1	18
424.425	1	23
424.595	1	26
424.766	1	1
424.937	1	11
425.107	1	27
425.278	1	11
425.449	1	11
425.619	1	29
425.790	1	11
425.961	1	18
426.131	1	14
426.302	1	8
426.472	1	6
426.643	1	18
426.814	1	18
426.984	1	13
427.155	1	20
427.326	1	26
427.496	1	20
427.667	1	26
427.837	1	19
428.008	1	30
428.179	1	23
428.349	1	-2
428.520	1	7
428.691	1	9
428.861	1	8
429.032	1	10
429.202	1	15
429.373	1	11
429.544	1	9
429.714	1	27
429.885	1	10
430.055	1	8
430.226	1	23
430.397	1	19
430.567	1	20
430.738	1	21
430.909	1	10
431.079	1	25
431.250	1	14
431.420	1	11
431.591	1	26
431.762	1	10
431.932	1	16
432.103	1	12
432.273	1	20
432.444	1	24
432.615	1	22
432.785	1	15
432.956	1	14
433.126	1	19
433.297	1	3
433.468	1	9
433.638	1	7
433.809	1	18
433.979	1	4
434.150	1	20
434.320	1	15
434.491	1	3
434.662	1	14
434.832	1	1
435.003	1	16
435.173	1	7
435.344	1	14
435.515	1	10
435.685	1	9
435.856	1	0
436.026	1	32
436.197	1	15
436.368	1	18
436.538	1	18
436.709	1	13
436.879	1	5
437.050	1	10
437.220	1	9
437.391	1	7
437.562	1	16
437.732	1	26
437.903	1	13
438.073	1	1
438.244	1	0
438.414	1	14
438.585	1	20
438.756	1	14
438.926	1	12
439.097	1	7
439.267	1	2
439.438	1	15
439.608	1	11
439.779	1	16
439.949	1	12
440.120	1	21
440.291	1	5
440.461	1	17
440.632	1	7
440.802	1	18
440.973	1	20
441.143	1	14
441.314	1	18
441.485	1	27
441.655	1	10
441.826	1	5
441.996	1	25
442.167	1	7
442.337	1	7
442.508	1	17
442.678	1	19
442.849	1	19
443.019	1	24
443.190	1	19
443.361	1	13
443.531	1	9
443.702	1	13
443.872	1	15
444.043	1	8
444.213	1	11
444.384	1	22
444.554	1	16
444.725	1	12
444.895	1	5
445.066	1	12
445.237	1	9
445.407	1	7
445.578	1	7
445.748	1	22
445.919	1	5
446.089	1	12
446.260	1	17
446.430	1	23
446.601	1	2
446.771	1	13
446.942	1	10
447.112	1	8
447.283	1	15
447.453	1	16
447.624	1	16
447.794	1	19
447.965	1	12
448.135	1	8
448.306	1	17
448.477	1	5
448.647	1	11
448.818	1	14
448.988	1	9
449.159	1	22
449.329	1	18
449.500	1	3
449.670	1	2
449.841	1	19
450.011	1	17
450.182	1	7
450.352	1	9
450.523	1	7
450.693	1	6
450.864	1	10
451.034	1	19
451.205	1	9
451.375	1	5
451.546	1	6
451.716	1	3
451.887	1	15
452.057	1	16
452.228	1	14
452.398	1	21
452.569	1	9
452.739	1	-3
452.910	1	3
453.080	1	17
453.251	1	13
453.421	1	5
453.592	1	13
453.762	1	15
453.933	1	7
454.103	1	24
454.274	1	6
454.444	1	11
454.615	1	8
454.785	1	11
454.956	1	13
455.126	1	15
455.297	1	7
455.467	1	10
455.638	1	2
455.808	1	13
455.979	1	19
456.149	1	9
456.320	1	14
456.490	1	8
456.661	1	18
456.831	1	10
457.001	1	14
457.172	1	13
457.342	1	11
457.513	1	19
457.683	1	7
457.854	1	10
458.024	1	5
458.195	1	8
458.365	1	7
458.536	1	9
458.706	1	18
458.877	1	12
459.047	1	5
459.218	1	14
459.388	1	23
459.559	1	15
459.729	1	10
459.899	1	10
460.070	1	11
460.240	1	15
460.411	1	22
460.581	1	2
460.752	1	16
460.922	1	-2
461.093	1	15
461.263	1	21
461.434	1	8
461.604	1	15
461.775	1	15
461.945	1	10
462.115	1	17
462.286	1	12
462.456	1	9
462.627	1	0
462.797	1	3
462.968	1	7
463.138	1	20
463.309	1	16
463.479	1	11
463.649	1	12
463.820	1	16
463.990	1	11
464.161	1	15
464.331	1	6
464.502	1	9
464.672	1	19
464.843	1	17
465.013	1	11
465.183	1	14
465.354	1	16
465.524	1	18
465.695	1	10
465.865	1	11
466.036	1	11
466.206	1	19
466.376	1	11
466.547	1	18
466.717	1	14
466.888	1	15
467.058	1	11
467.229	1	20
467.399	1	8
467.569	1	7
467.740	1	21
467.910	1	4
468.081	1	8
468.251	1	22
468.422	1	24
468.592	1	16
468.762	1	6
468.933	1	8
469.103	1	-1
469.274	1	14
469.444	1	6
469.614	1	1
469.785	1	11
469.955	1	17
470.126	1	5
470.296	1	18
470.467	1	15
470.637	1	10
470.807	1	11
470.978	1	17
471.148	1	16
471.319	1	5
471.489	1	3
471.659	1	20
471.830	1	16
472.000	1	10
472.171	1	5
472.341	1	14
472.511	1	16
472.682	1	8
472.852	1	12
473.023	1	2
473.193	1	17
473.363	1	11
473.534	1	22
473.704	1	6
473.875	1	26
474.045	1	15
474.215	1	15
474.386	1	17
474.556	1	13
474.727	1	15
474.897	1	17
475.067	1	13
475.238	1	9
475.408	1	18
475.578	1	10
475.749	1	10
475.919	1	24
476.090	1	11
476.260	1	21
476.430	1	9
476.601	1	19
476.771	1	19
476.942	1	19
477.112	1	-3
477.282	1	19
477.453	1	14
477.623	1	4
477.793	1	7
477.964	1	11
478.134	1	17
478.305	1	11
478.475	1	25
478.645	1	9
478.816	1	19
478.986	1	10
479.156	1	4
479.327	1	16
479.497	1	3
479.667	1	7
479.838	1	13
480.008	1	-3
480.179	1	16
480.349	1	18
480.519	1	12
480.690	1	10
480.860	1	15
481.030	1	14
481.201	1	17
481.371	1	1
481.541	1	8
481.712	1	18
481.882	1	20
482.053	1	5
482.223	1	5
482.393	1	10
482.564	1	11
482.734	1	13
482.904	1	21
483.075	1	21
483.245	1	2
483.415	1	5
483.586	1	24
483.756	1	11
483.926	1	13
484.097	1	7
484.267	1	24
484.437	1	16
484.608	1	7
484.778	1	22
484.948	1	2
485.119	1	3
485.289	1	9
485.459	1	18
485.630	1	24
485.800	1	14
485.970	1	12
486.141	1	14
486.311	1	16
486.481	1	16
486.652	1	16
486.822	1	15
486.992	1	3
487.163	1	25
487.333	1	19
487.503	1	17
487.674	1	15
487.844	1	29
488.014	1	14
488.185	1	14
488.355	1	26
488.525	1	21
488.696	1	18
488.866	1	18
489.036	1	25
489.207	1	21
489.377	1	20
489.547	1	30
489.718	1	11
489.888	1	11
490.058	1	27
490.228	1	2
490.399	1	7
490.569	1	20
490.739	1	21
490.910	1	12
491.080	1	26
491.250	1	25
491.421	1	13
491.591	1	22
491.761	1	27
491.932	1	35
492.102	1	24
492.272	1	4
492.442	1	15
492.613	1	22
492.783	1	16
492.953	1	18
493.124	1	22
493.294	1	17
493.464	1	14
493.635	1	10
493.805	1	23
493.975	1	28
494.145	1	17
494.316	1	21
494.486	1	26
494.656	1	13
494.827	1	35
494.997	1	15
495.167	1	22
495.337	1	20
495.508	1	22
495.678	1	24
495.848	1	19
496.019	1	22
496.189	1	18
496.359	1	20
496.529	1	24
496.700	1	25
496.870	1	20
497.040	1	24
497.211	1	24
497.381	1	18
497.551	1	30
497.721	1	19
497.892	1	25
498.062	1	18
498.232	1	24
498.403	1	18
498.573	1	25
498.743	1	33
498.913	1	8
499.084	1	26
499.254	1	27
499.424	1	23
499.594	1	26
499.765	1	12
499.935	1	32
500.105	1	23
500.275	1	21
500.446	1	33
500.616	1	35
500.786	1	23
500.956	1	31
501.127	1	34
501.297	1	27
501.467	1	34
501.638	1	27
501.808	1	27
501.978	1	25
502.148	1	19
502.319	1	28
502.489	1	38
502.659	1	17
502.829	1	28
503.000	1	34
503.170	1	38
503.340	1	32
503.510	1	31
503.681	1	22
503.851	1	23
504.021	1	28
504.191	1	37
504.362	1	28
504.532	1	39
504.702	1	21
504.872	1	38
505.042	1	24
505.213	1	34
505.383	1	28
505.553	1	23
505.723	1	29
505.894	1	31
506.064	1	36
506.234	1	22
506.404	1	33
506.575	1	21
506.745	1	36
506.915	1	16
507.085	1	24
507.256	1	32
507.426	1	28
507.596	1	31
507.766	1	23
507.936	1	22
508.107	1	30
508.277	1	38
508.447	1	42
508.617	1	23
508.788	1	29
508.958	1	33
509.128	1	26
509.298	1	23
509.468	1	39
509.639	1	30
509.809	1	27
509.979	1	35
510.149	1	31
510.319	1	41
510.490	1	16
510.660	1	40
510.830	1	22
511.000	1	45
511.171	1	42
511.341	1	32
511.511	1	38
511.681	1	24
511.851	1	42
512.022	1	32
512.192	1	38
512.362	1	32
512.532	1	35
512.702	1	35
512.873	1	37
513.043	1	36
513.213	1	52
513.383	1	28
513.553	1	36
513.724	1	34
513.894	1	41
514.064	1	36
514.234	1	34
514.404	1	35
514.575	1	32
514.745	1	29
514.915	1	27
515.085	1	47
515.255	1	29
515.425	1	33
515.596	1	38
515.766	1	35
515.936	1	37
516.106	1	41
516.276	1	47
516.447	1	34
516.617	1	42
516.787	1	41
516.957	1	30
517.127	1	31
517.297	1	29
517.468	1	35
517.638	1	38
517.808	1	48
517.978	1	40
518.148	1	41
518.319	1	27
518.489	1	40
518.659	1	30
518.829	1	42
518.999	1	33
519.169	1	38
519.340	1	32
519.510	1	35
519.680	1	35
519.850	1	46
520.020	1	46
520.190	1	32
520.361	1	30
520.531	1	51
520.701	1	43
520.871	1	32
521.041	1	45
521.211	1	36
521.382	1	40
521.552	1	29
521.722	1	43
521.892	1	37
522.062	1	38
522.232	1	45
522.402	1	47
522.573	1	40
522.743	1	46
522.913	1	44
523.083	1	52
523.253	1	49
523.423	1	49
523.593	1	38
523.764	1	46
523.934	1	48
524.104	1	47
524.274	1	46
524.444	1	41
524.614	1	46
524.784	1	37
524.955	1	53
525.125	1	43
525.295	1	38
525.465	1	49
525.635	1	48
525.805	1	64
525.975	1	54
526.146	1	53
526.316	1	51
526.486	1	50
526.656	1	45
526.826	1	43
526.996	1	44
527.166	1	58
527.337	1	51
527.507	1	65
527.677	1	56
527.847	1	47
528.017	1	43
528.187	1	55
528.357	1	51
528.527	1	56
528.698	1	50
528.868	1	60
529.038	1	52
529.208	1	59
529.378	1	59
529.548	1	56
529.718	1	53
529.888	1	60
530.058	1	59
530.229	1	58
530.399	1	56
530.569	1	66
530.739	1	75
530.909	1	50
531.079	1	63
531.249	1	65
531.419	1	65
531.589	1	50
531.760	1	55
531.930	1	56
532.100	1	62
532.270	1	71
532.440	1	64
532.610	1	64
532.780	1	54
532.950	1	64
533.120	1	67
533.290	1	54
533.461	1	57
533.631	1	57
533.801	1	64
533.971	1	60
534.141	1	61
534.311	1	57
534.481	1	55
534.651	1	51
534.821	1	63
534.991	1	65
535.162	1	43
535.332	1	51
535.502	1	52
535.672	1	51
535.842	1	54
536.012	1	59
536.182	1	67
536.352	1	57
536.522	1	62
536.692	1	60
536.862	1	55
537.032	1	49
537.203	1	54
537.373	1	40
537.543	1	68
537.713	1	50
537.883	1	59
538.053	1	66
538.223	1	56
538.393	1	58
538.563	1	56
538.733	1	65
538.903	1	50
539.073	1	69
539.243	1	58
539.413	1	66
539.584	1	77
539.754	1	53
539.924	1	57
540.094	1	60
540.264	1	52
540.434	1	59
540.604	1	58
540.774	1	63
540.944	1	68
541.114	1	63
541.284	1	74
541.454	1	68
541.624	1	71
541.794	1	67
541.964	1	69
542.134	1	74
542.305	1	76
542.475	1	62
542.645	1	67
542.815	1	75
542.985	1	76
543.155	1	77
543.325	1	79
543.495	1	63
543.665	1	66
543.835	1	67
544.005	1	72
544.175	1	66
544.345	1	78
544.515	1	64
544.685	1	64
544.855	1	72
545.025	1	75
545.195	1	71
545.365	1	77
545.535	1	77
545.705	1	72
545.875	1	78
546.045	1	66
546.216	1	70
546.386	1	81
546.556	1	84
546.726	1	83
546.896	1	77
547.066	1	76
547.236	1	96
547.406	1	80
547.576	1	69
547.746	1	79
547.916	1	82
548.086	1	84
548.256	1	81
548.426	1	88
548.596	1	82
548.766	1	83
548.936	1	85
549.106	1	82
549.276	1	80
549.446	1	86
549.616	1	89
549.786	1	82
549.956	1	85
550.126	1	74
550.296	1	82
550.466	1	80
550.636	1	88
550.806	1	88
550.976	1	77
551.146	1	89
551.316	1	84
551.486	1	83
551.656	1	83
551.826	1	81
551.996	1	83
552.166	1	88
552.336	1	83
552.506	1	78
552.676	1	79
552.846	1	80
553.016	1	82
553.186	1	64
553.356	1	68
553.526	1	75
553.696	1	82
553.866	1	76
554.036	1	96
554.206	1	78
554.376	1	95
554.546	1	83
554.716	1	79
554.886	1	81
555.056	1	79
555.226	1	70
555.396	1	78
555.566	1	66
555.736	1	66
555.906	1	77
556.076	1	80
556.246	1	90
556.416	1	73
556.586	1	84
556.756	1	85
556.926	1	84
557.096	1	77
557.266	1	79
557.436	1	83
557.606	1	87
557.776	1	81
557.946	1	81
558.116	1	101
558.286	1	92
558.456	1	83
558.626	1	78
558.796	1	95
558.966	1	77
559.136	1	85
559.306	1	85
559.476	1	73
559.646	1	95
559.816	1	83
559.986	1	82
560.155	1	85
560.325	1	89
560.495	1	85
560.665	1	96
560.835	1	85
561.005	1	69
561.175	1	94
561.345	1	94
561.515	1	86
561.685	1	85
561.855	1	93
562.025	1	91
562.195	1	91
562.365	1	93
562.535	1	84
562.705	1	92
562.875	1	94
563.045	1	88
563.215	1	103
563.385	1	86
563.555	1	84
563.725	1	85
563.895	1	87
564.064	1	88
564.234	1	89
564.404	1	85
564.574	1	101
564.744	1	78
564.914	1	82
565.084	1	87
565.254	1	103
565.424	1	80
565.594	1	99
565.764	1	85
565.934	1	97
566.104	1	81
566.274	1	101
566.444	1	95
566.614	1	85
566.783	1	101
566.953	1	79
567.123	1	86
567.293	1	76
567.463	1	73
567.633	1	93
567.803	1	98
567.973	1	95
568.143	1	98
568.313	1	87
568.483	1	85
568.653	1	100
568.823	1	76
568.993	1	84
569.162	1	85
569.332	1	88
569.502	1	95
569.672	1	96
569.842	1	87
570.012	1	97
570.182	1	102
570.352	1	86
570.522	1	94
570.692	1	89
570.862	1	86
571.031	1	86
571.201	1	84
571.371	1	80
571.541	1	100
571.711	1	97
571.881	1	94
572.051	1	88
572.221	1	92
572.391	1	81
572.561	1	85
572.731	1	86
572.900	1	89
573.070	1	83
573.240	1	91
573.410	1	92
573.580	1	101
573.750	1	99
573.920	1	92
574.090	1	102
574.260	1	92
574.430	1	87
574.599	1	111
574.769	1	97
574.939	1	88
575.109	1	98
575.279	1	104
575.449	1	91
575.619	1	95
575.789	1	105
575.959	1	106
576.128	1	84
576.298	1	98
576.468	1	94
576.638	1	96
576.808	1	85
576.978	1	115
577.148	1	85
577.318	1	116
577.487	1	90
577.657	1	107
577.827	1	99
577.997	1	96
578.167	1	94
578.337	1	109
578.507	1	89
578.677	1	95
578.846	1	93
579.016	1	109
579.186	1	79
579.356	1	104
579.526	1	103
579.696	1	96
579.866	1	97
580.036	1	100
580.205	1	99
580.375	1	117
580.545	1	84
580.715	1	102
580.885	1	99
581.055	1	103
581.225	1	99
581.394	1	105
581.564	1	97
581.734	1	106
581.904	1	95
582.074	1	94
582.244	1	90
582.414	1	105
582.583	1	99
582.753	1	89
582.923	1	97
583.093	1	111
583.263	1	96
583.433	1	105
583.603	1	107
583.772	1	104
583.942	1	87
584.112	1	92
584.282	1	111
584.452	1	94
584.622	1	86
584.791	1	97
584.961	1	105
585.131	1	99
585.301	1	99
585.471	1	87
585.641	1	102
585.811	1	90
585.980	1	99
586.150	1	105
586.320	1	108
586.490	1	88
586.660	1	87
586.830	1	105
586.999	1	93
587.169	1	102
587.339	1	92
587.509	1	90
587.679	1	107
587.849	1	87
588.018	1	99
588.188	1	92
588.358	1	81
588.528	1	91
588.698	1	100
588.867	1	100
589.037	1	88
589.207	1	97
589.377	1	89
589.547	1	84
589.717	1	86
589.886	1	95
590.056	1	92
590.226	1	103
590.396	1	90
590.566	1	83
590.735	1	72
590.905	1	83
591.075	1	83
591.245	1	89
591.415	1	88
591.585	1	73
591.754	1	96
591.924	1	84
592.094	1	88
592.264	1	81
592.434	1	95
592.603	1	87
592.773	1	91
592.943	1	82
593.113	1	99
593.283	1	86
593.452	1	71
593.622	1	85
593.792	1	95
593.962	1	78
594.132	1	95
594.301	1	91
594.471	1	90
594.641	1	85
594.811	1	87
594.981	1	89
595.150	1	95
595.320	1	91
595.490	1	88
595.660	1	71
595.829	1	83
595.999	1	79
596.169	1	83
596.339	1	86
596.509	1	88
596.678	1	92
596.848	1	95
597.018	1	75
597.188	1	91
597.358	1	91
597.527	1	94
597.697	1	83
597.867	1	100
598.037	1	93
598.206	1	82
598.376	1	91
598.546	1	85
598.716	1	98
598.885	1	83
599.055	1	98
599.225	1	86
599.395	1	98
599.565	1	83
599.734	1	95
599.904	1	93
600.074	1	103
600.244	1	99
600.413	1	94
600.583	1	99
600.753	1	110
600.923	1	97
601.092	1	92
601.262	1	97
601.432	1	88
601.602	1	108
601.771	1	88
601.941	1	102
602.111	1	99
602.281	1	91
602.451	1	99
602.620	1	93
602.790	1	99
602.960	1	105
603.130	1	95
603.299	1	97
603.469	1	93
603.639	1	84
603.809	1	99
603.978	1	108
604.148	1	89
604.318	1	97
604.487	1	93
604.657	1	103
604.827	1	96
604.997	1	95
605.166	1	103
605.336	1	104
605.506	1	98
605.676	1	106
605.845	1	89
606.015	1	92
606.185	1	92
606.355	1	101
606.524	1	100
606.694	1	96
606.864	1	79
607.034	1	96
607.203	1	98
607.373	1	94
607.543	1	87
607.712	1	93
607.882	1	101
608.052	1	90
608.222	1	92
608.391	1	97
608.561	1	89
608.731	1	84
608.901	1	104
609.070	1	87
609.240	1	87
609.410	1	95
609.579	1	92
609.749	1	81
609.919	1	81
610.089	1	77
610.258	1	88
610.428	1	88
610.598	1	81
610.767	1	80
610.937	1	82
611.107	1	93
611.277	1	91
611.446	1	86
611.616	1	85
611.786	1	97
611.955	1	71
612.125	1	82
612.295	1	77
612.465	1	76
612.634	1	82
612.804	1	83
612.974	1	88
613.143	1	86
613.313	1	79
613.483	1	75
613.652	1	93
613.822	1	86
613.992	1	76
614.162	1	74
614.331	1	69
614.501	1	70
614.671	1	76
614.840	1	87
615.010	1	90
615.180	1	80
615.349	1	70
615.519	1	85
615.689	1	77
615.858	1	81
616.028	1	79
616.198	1	86
616.368	1	85
616.537	1	67
616.707	1	75
616.877	1	75
617.046	1	70
617.216	1	86
617.386	1	57
617.555	1	80
617.725	1	81
617.895	1	85
618.064	1	73
618.234	1	75
618.404	1	79
618.573	1	78
618.743	1	61
618.913	1	71
619.082	1	87
619.252	1	63
619.422	1	82
619.591	1	81
619.761	1	78
619.931	1	70
620.100	1	68
620.270	1	79
620.440	1	77
620.609	1	72
620.779	1	76
620.949	1	79
621.118	1	81
621.288	1	71
621.458	1	71
621.627	1	87
621.797	1	79
621.967	1	77
622.136	1	73
622.306	1	74
622.476	1	77
622.645	1	76
622.815	1	61
622.985	1	67
623.154	1	85
623.324	1	77
623.494	1	69
623.663	1	77
623.833	1	81
624.002	1	78
624.172	1	71
624.342	1	69
624.511	1	83
624.681	1	75
624.851	1	78
625.020	1	75
625.190	1	69
625.360	1	85
625.529	1	69
625.699	1	86
625.869	1	80
626.038	1	72
626.208	1	72
626.377	1	81
626.547	1	61
626.717	1	74
626.886	1	87
627.056	1	72
627.226	1	72
627.395	1	79
627.565	1	81
627.735	1	74
627.904	1	70
628.074	1	82
628.243	1	62
628.413	1	74
628.583	1	74
628.752	1	63
628.922	1	80
629.091	1	68
629.261	1	67
629.431	1	62
629.600	1	70
629.770	1	68
629.940	1	68
630.109	1	72
630.279	1	60
630.448	1	70
630.618	1	67
630.788	1	78
630.957	1	70
631.127	1	74
631.297	1	60
631.466	1	49
631.636	1	79
631.805	1	71
631.975	1	81
632.145	1	61
632.314	1	69
632.484	1	67
632.653	1	69
632.823	1	69
632.993	1	64
633.162	1	70
633.332	1	71
633.501	1	66
633.671	1	69
633.841	1	74
634.010	1	72
634.180	1	58
634.349	1	65
634.519	1	64
634.689	1	76
634.858	1	75
635.028	1	67
635.197	1	71
635.367	1	60
635.537	1	82
635.706	1	64
635.876	1	60
636.045	1	66
636.215	1	64
636.384	1	59
636.554	1	68
636.724	1	69
636.893	1	64
637.063	1	57
637.232	1	63
637.402	1	55
637.572	1	66
637.741	1	72
637.911	1	65
638.080	1	73
638.250	1	57
638.419	1	69
638.589	1	62
638.759	1	64
638.928	1	60
639.098	1	77
639.267	1	63
639.437	1	58
639.606	1	62
639.776	1	62
639.946	1	60
640.115	1	53
640.285	1	62
640.454	1	63
640.624	1	57
640.793	1	53
640.963	1	55
641.132	1	62
641.302	1	62
641.472	1	71
641.641	1	64
641.811	1	62
641.980	1	62
642.150	1	60
642.319	1	69
642.489	1	59
642.659	1	67
642.828	1	64
642.998	1	58
643.167	1	60
643.337	1	56
643.506	1	60
643.676	1	72
643.845	1	59
644.015	1	60
644.184	1	56
644.354	1	65
644.524	1	63
644.693	1	61
644.863	1	52
645.032	1	69
645.202	1	47
645.371	1	71
645.541	1	67
645.710	1	66
645.880	1	72
646.049	1	49
646.219	1	68
646.388	1	57
646.558	1	73
646.728	1	55
646.897	1	79
647.067	1	61
647.236	1	54
647.406	1	62
647.575	1	64
647.745	1	55
647.914	1	54
648.084	1	69
648.253	1	63
648.423	1	62
648.592	1	55
648.762	1	68
648.931	1	63
649.101	1	63
649.270	1	56
649.440	1	64
649.610	1	59
649.779	1	65
649.949	1	51
650.118	1	53
650.288	1	55
650.457	1	49
650.627	1	57
650.796	1	55
650.966	1	58
651.135	1	51
651.305	1	65
651.474	1	58
651.644	1	51
651.813	1	49
651.983	1	48
652.152	1	56
652.322	1	62
652.491	1	61
652.661	1	48
652.830	1	55
653.000	1	63
653.169	1	52
653.339	1	53
653.508	1	54
653.678	1	55
653.847	1	38
654.017	1	51
654.186	1	67
654.356	1	53
654.525	1	50
654.695	1	58
654.864	1	53
655.034	1	43
655.203	1	51
655.373	1	49
655.542	1	53
655.712	1	48
655.881	1	55
656.051	1	50
656.220	1	66
656.390	1	68
656.559	1	41
656.729	1	36
656.898	1	42
657.068	1	47
657.237	1	34
657.406	1	49
657.576	1	48
657.745	1	55
657.915	1	51
658.084	1	51
658.254	1	41
658.423	1	50
658.593	1	47
658.762	1	52
658.932	1	58
659.101	1	38
659.271	1	51
659.440	1	52
659.610	1	46
659.779	1	47
659.949	1	37
660.118	1	49
660.288	1	42
660.457	1	53
660.626	1	44
660.796	1	54
660.965	1	50
661.135	1	49
661.304	1	65
661.474	1	50
661.643	1	45
661.813	1	43
661.982	1	56
662.152	1	47
662.321	1	38
662.491	1	41
662.660	1	42
662.829	1	56
662.999	1	41
663.168	1	45
663.338	1	47
663.507	1	56
663.677	1	44
663.846	1	30
664.016	1	62
664.185	1	47
664.354	1	48
664.524	1	43
664.693	1	40
664.863	1	46
665.032	1	48
665.202	1	58
665.371	1	41
665.541	1	47
665.710	1	41
665.879	1	56
666.049	1	41
666.218	1	39
666.388	1	49
666.557	1	38
666.727	1	39
666.896	1	46
667.065	1	51
667.235	1	45
667.404	1	54
667.574	1	41
667.743	1	46
667.913	1	47
668.082	1	59
668.251	1	51
668.421	1	57
668.590	1	36
668.760	1	44
668.929	1	36
669.099	1	41
669.268	1	49
669.437	1	50
669.607	1	33
669.776	1	55
669.946	1	44
670.115	1	59
670.285	1	47
670.454	1	52
670.623	1	49
670.793	1	49
670.962	1	51
671.132	1	47
671.301	1	30
671.470	1	46
671.640	1	47
671.809	1	43
671.979	1	54
672.148	1	37
672.317	1	47
672.487	1	47
672.656	1	49
672.826	1	45
672.995	1	55
673.164	1	42
673.334	1	44
673.503	1	56
673.673	1	42
673.842	1	54
674.011	1	50
674.181	1	48
674.350	1	51
674.520	1	38
674.689	1	52
674.858	1	46
675.028	1	54
675.197	1	46
675.367	1	48
675.536	1	52
675.705	1	37
675.875	1	38
676.044	1	55
676.214	1	44
676.383	1	57
676.552	1	48
676.722	1	56
676.891	1	53
677.060	1	58
677.230	1	41
677.399	1	52
677.569	1	27
677.738	1	48
677.907	1	49
678.077	1	49
678.246	1	43
678.416	1	50
678.585	1	54
678.754	1	55
678.924	1	47
679.093	1	48
679.262	1	50
679.432	1	27
679.601	1	39
679.771	1	53
679.940	1	38
680.109	1	42
680.279	1	45
680.448	1	38
680.617	1	46
680.787	1	39
680.956	1	44
681.125	1	41
681.295	1	46
681.464	1	41
681.634	1	51
681.803	1	44
681.972	1	47
682.142	1	60
682.311	1	42
682.480	1	34
682.650	1	46
682.819	1	42
682.988	1	45
683.158	1	48
683.327	1	51
683.496	1	37
683.666	1	36
683.835	1	35
684.004	1	51
684.174	1	40
684.343	1	44
684.512	1	30
684.682	1	41
684.851	1	43
685.021	1	49
685.190	1	39
685.359	1	33
685.529	1	40
685.698	1	42
685.867	1	59
686.037	1	54
686.206	1	57
686.375	1	35
686.545	1	43
686.714	1	43
686.883	1	34
687.053	1	45
687.222	1	45
687.391	1	47
687.561	1	40
687.730	1	42
687.899	1	49
688.069	1	42
688.238	1	42
688.407	1	43
688.577	1	47
688.746	1	47
