340.368	1	7
340.539	1	5
340.710	1	0
340.881	1	-4
341.052	1	15
341.223	1	3
341.394	1	2
341.565	1	7
341.737	1	-4
341.908	1	3
342.079	1	7
342.250	1	-4
342.421	1	-9
342.592	1	8
342.763	1	-4
342.934	1	2
343.105	1	8
343.276	1	-4
343.447	1	7
343.618	1	-16
343.789	1	-2
343.960	1	-7
344.131	1	-6
344.302	1	5
344.473	1	-1
344.644	1	12
344.815	1	-4
344.986	1	-8
345.157	1	-4
345.328	1	-4
345.499	1	10
345.670	1	4
345.841	1	-2
346.012	1	9
346.183	1	0
346.354	1	3
346.526	1	3
346.697	1	-1
346.868	1	2
347.039	1	8
347.210	1	-7
347.381	1	13
347.552	1	-3
347.723	1	9
347.894	1	8
348.065	1	-3
348.236	1	-1
348.407	1	-1
348.578	1	-1
348.749	1	3
348.920	1	7
349.091	1	6
349.262	1	1
349.433	1	-1
349.604	1	7
349.775	1	3
349.946	1	10
350.117	1	14
350.288	1	-7
350.459	1	8
350.630	1	2
350.801	1	4
350.972	1	2
351.143	1	16
351.314	1	-6
351.485	1	7
351.656	1	-2
351.827	1	-6
351.998	1	-2
352.169	1	-3
352.340	1	8
352.511	1	10
352.682	1	9
352.853	1	5
353.024	1	7
353.195	1	-8
353.366	1	-2
353.537	1	6
353.708	1	9
353.879	1	-5
354.050	1	8
354.221	1	5
354.392	1	13
354.563	1	-1
354.734	1	3
354.905	1	7
355.076	1	-2
355.247	1	8
355.418	1	10
355.589	1	1
355.760	1	-1
355.931	1	0
356.102	1	1
356.273	1	-2
356.444	1	1
356.615	1	5
356.785	1	3
356.956	1	14
357.127	1	1
357.298	1	-2
357.469	1	13
357.640	1	22
357.811	1	6
357.982	1	-2
358.153	1	7
358.324	1	12
358.495	1	6
358.666	1	1
358.837	1	8
359.008	1	5
359.179	1	4
359.350	1	10
359.521	1	18
359.692	1	18
359.863	1	4
360.034	1	13
360.205	1	14
360.376	1	13
360.547	1	0
360.718	1	7
360.889	1	16
361.060	1	26
361.231	1	-1
361.401	1	10
361.572	1	15
361.743	1	2
361.914	1	12
362.085	1	14
362.256	1	15
362.427	1	10
362.598	1	17
362.769	1	23
362.940	1	15
363.111	1	10
363.282	1	18
363.453	1	27
363.624	1	13
363.795	1	12
363.966	1	18
364.137	1	9
364.308	1	16
364.478	1	29
364.649	1	12
364.820	1	16
364.991	1	33
365.162	1	16
365.333	1	13
365.504	1	23
365.675	1	6
365.846	1	15
366.017	1	26
366.188	1	26
366.359	1	19
366.530	1	28
366.701	1	24
366.871	1	25
367.042	1	35
367.213	1	29
367.384	1	28
367.555	1	26
367.726	1	29
367.897	1	36
368.068	1	35
368.239	1	25
368.410	1	21
368.581	1	20
368.752	1	25
368.923	1	24
369.093	1	30
369.264	1	27
369.435	1	29
369.606	1	26
369.777	1	36
369.948	1	34
370.119	1	31
370.290	1	38
370.461	1	41
370.632	1	35
370.803	1	25
370.973	1	30
371.144	1	55
371.315	1	31
371.486	1	33
371.657	1	34
371.828	1	26
371.999	1	31
372.170	1	43
372.341	1	55
372.512	1	36
372.682	1	51
372.853	1	43
373.024	1	43
373.195	1	32
373.366	1	40
373.537	1	38
373.708	1	47
373.879	1	46
374.050	1	39
374.220	1	38
374.391	1	36
374.562	1	36
374.733	1	35
374.904	1	37
375.075	1	39
375.246	1	43
375.417	1	34
375.588	1	32
375.758	1	35
375.929	1	41
376.100	1	47
376.271	1	45
376.442	1	31
376.613	1	42
376.784	1	32
376.955	1	40
377.125	1	29
377.296	1	26
377.467	1	31
377.638	1	34
377.809	1	32
377.980	1	37
378.151	1	39
378.321	1	38
378.492	1	34
378.663	1	37
378.834	1	23
379.005	1	32
379.176	1	45
379.347	1	35
379.518	1	35
379.688	1	30
379.859	1	19
380.030	1	42
380.201	1	31
380.372	1	23
380.543	1	12
380.714	1	40
380.884	1	32
381.055	1	22
381.226	1	26
381.397	1	26
381.568	1	15
381.739	1	31
381.910	1	28
382.080	1	32
382.251	1	21
382.422	1	33
382.593	1	31
382.764	1	22
382.935	1	15
383.105	1	32
383.276	1	32
383.447	1	20
383.618	1	26
383.789	1	24
383.960	1	21
384.130	1	18
384.301	1	25
384.472	1	27
384.643	1	22
384.814	1	16
384.985	1	21
385.156	1	28
385.326	1	19
385.497	1	23
385.668	1	25
385.839	1	19
386.010	1	29
386.180	1	21
386.351	1	21
386.522	1	32
386.693	1	8
386.864	1	25
387.035	1	26
387.205	1	9
387.376	1	21
387.547	1	23
387.718	1	4
387.889	1	16
388.060	1	20
388.230	1	18
388.401	1	19
388.572	1	18
388.743	1	24
388.914	1	8
389.084	1	18
389.255	1	16
389.426	1	23
389.597	1	24
389.768	1	16
389.939	1	20
390.109	1	7
390.280	1	10
390.451	1	22
390.622	1	12
390.793	1	15
390.963	1	16
391.134	1	12
391.305	1	25
391.476	1	1
391.647	1	14
391.817	1	17
391.988	1	8
392.159	1	3
392.330	1	1
392.501	1	6
392.671	1	3
392.842	1	8
393.013	1	16
393.184	1	19
393.355	1	11
393.525	1	5
393.696	1	18
393.867	1	-2
394.038	1	22
394.208	1	15
394.379	1	16
394.550	1	0
394.721	1	14
394.892	1	11
395.062	1	-1
395.233	1	13
395.404	1	10
395.575	1	19
395.746	1	6
395.916	1	2
396.087	1	15
396.258	1	7
396.429	1	24
396.599	1	11
396.770	1	7
396.941	1	10
397.112	1	10
397.283	1	10
397.453	1	14
397.624	1	10
397.795	1	19
397.966	1	12
398.136	1	12
398.307	1	2
398.478	1	3
398.649	1	4
398.819	1	2
398.990	1	4
399.161	1	7
399.332	1	12
399.503	1	4
399.673	1	10
399.844	1	16
400.015	1	23
400.186	1	16
400.356	1	12
400.527	1	-12
400.698	1	13
400.869	1	6
401.039	1	5
401.210	1	12
401.381	1	13
401.552	1	8
401.722	1	8
401.893	1	10
402.064	1	11
402.235	1	7
402.405	1	7
402.576	1	1
402.747	1	11
402.918	1	-4
403.088	1	5
403.259	1	5
403.430	1	-2
403.601	1	6
403.771	1	3
403.942	1	7
404.113	1	11
404.284	1	5
404.454	1	1
404.625	1	1
404.796	1	-8
404.967	1	12
405.137	1	13
405.308	1	1
405.479	1	0
405.649	1	13
405.820	1	7
405.991	1	8
406.162	1	2
406.332	1	3
406.503	1	-3
406.674	1	5
406.845	1	3
407.015	1	3
407.186	1	8
407.357	1	6
407.527	1	-4
407.698	1	7
407.869	1	-8
408.040	1	2
408.210	1	19
408.381	1	5
408.552	1	1
408.722	1	10
408.893	1	14
409.064	1	2
409.235	1	23
409.405	1	8
409.576	1	24
409.747	1	8
409.917	1	0
410.088	1	9
410.259	1	-1
410.430	1	10
410.600	1	6
410.771	1	5
410.942	1	9
411.112	1	0
411.283	1	13
411.454	1	12
411.625	1	11
411.795	1	12
411.966	1	2
412.137	1	11
412.307	1	-8
412.478	1	-2
412.649	1	-9
412.819	1	11
412.990	1	7
413.161	1	2
413.332	1	8
413.502	1	9
413.673	1	12
413.844	1	2
414.014	1	8
414.185	1	5
414.356	1	0
414.526	1	4
414.697	1	10
414.868	1	2
415.038	1	15
415.209	1	4
415.380	1	13
415.550	1	-2
415.721	1	5
415.892	1	-3
416.063	1	6
416.233	1	10
416.404	1	5
416.575	1	4
416.745	1	14
416.916	1	8
417.087	1	4
417.257	1	0
417.428	1	-8
417.599	1	-4
417.769	1	-1
417.940	1	-4
418.111	1	18
418.281	1	7
418.452	1	6
418.623	1	-2
418.793	1	-5
418.964	1	2
419.135	1	6
419.305	1	2
419.476	1	-2
419.647	1	9
419.817	1	1
419.988	1	15
420.159	1	23
420.329	1	0
420.500	1	13
420.671	1	13
420.841	1	-5
421.012	1	6
421.183	1	7
421.353	1	13
421.524	1	11
421.695	1	3
421.865	1	23
422.036	1	10
422.206	1	5
422.377	1	-4
422.548	1	6
422.718	1	9
422.889	1	9
423.060	1	3
423.230	1	7
423.401	1	-2
423.572	1	14
423.742	1	-4
423.913	1	9
424.084	1	1
424.254	1	5
424.425	1	7
424.595	1	1
424.766	1	0
424.937	1	6
425.107	1	1
425.278	1	7
425.449	1	5
425.619	1	9
425.790	1	9
425.961	1	11
426.131	1	0
426.302	1	9
426.472	1	-1
426.643	1	3
426.814	1	0
426.984	1	7
427.155	1	12
427.326	1	14
427.496	1	5
427.667	1	9
427.837	1	3
428.008	1	11
428.179	1	-1
428.349	1	0
428.520	1	-3
428.691	1	2
428.861	1	-3
429.032	1	3
429.202	1	2
429.373	1	-10
429.544	1	5
429.714	1	16
429.885	1	0
430.055	1	8
430.226	1	16
430.397	1	8
430.567	1	3
430.738	1	1
430.909	1	-3
431.079	1	14
431.250	1	13
431.420	1	5
431.591	1	8
431.762	1	5
431.932	1	14
432.103	1	1
432.273	1	6
432.444	1	3
432.615	1	4
432.785	1	7
432.956	1	19
433.126	1	7
433.297	1	-3
433.468	1	5
433.638	1	9
433.809	1	16
433.979	1	0
434.150	1	11
434.320	1	-1
434.491	1	0
434.662	1	-4
434.832	1	-4
435.003	1	10
435.173	1	1
435.344	1	2
435.515	1	13
435.685	1	11
435.856	1	-7
436.026	1	18
436.197	1	2
436.368	1	9
436.538	1	5
436.709	1	11
436.879	1	10
437.050	1	5
437.220	1	10
437.391	1	1
437.562	1	19
437.732	1	16
437.903	1	4
438.073	1	0
438.244	1	3
438.414	1	5
438.585	1	8
438.756	1	5
438.926	1	1
439.097	1	13
439.267	1	0
439.438	1	7
439.608	1	6
439.779	1	-1
439.949	1	4
440.120	1	13
440.291	1	7
440.461	1	1
440.632	1	3
440.802	1	4
440.973	1	7
441.143	1	5
441.314	1	10
441.485	1	7
441.655	1	6
441.826	1	11
441.996	1	5
442.167	1	11
442.337	1	-16
442.508	1	-1
442.678	1	12
442.849	1	-2
443.019	1	12
443.190	1	-1
443.361	1	13
443.531	1	-8
443.702	1	9
443.872	1	1
444.043	1	3
444.213	1	-3
444.384	1	10
444.554	1	13
444.725	1	3
444.895	1	7
445.066	1	1
445.237	1	-5
445.407	1	2
445.578	1	2
445.748	1	10
445.919	1	0
446.089	1	3
446.260	1	6
446.430	1	6
446.601	1	1
446.771	1	5
446.942	1	-1
447.112	1	-3
447.283	1	4
447.453	1	6
447.624	1	15
447.794	1	5
447.965	1	1
448.135	1	10
448.306	1	4
448.477	1	-13
448.647	1	5
448.818	1	4
448.988	1	6
449.159	1	11
449.329	1	14
449.500	1	6
449.670	1	-2
449.841	1	2
450.011	1	1
450.182	1	1
450.352	1	-4
450.523	1	3
450.693	1	8
450.864	1	3
451.034	1	16
451.205	1	-4
451.375	1	0
451.546	1	3
451.716	1	4
451.887	1	7
452.057	1	6
452.228	1	7
452.398	1	19
452.569	1	-2
452.739	1	-2
452.910	1	2
453.080	1	21
453.251	1	5
453.421	1	4
453.592	1	3
453.762	1	11
453.933	1	4
454.103	1	14
454.274	1	-1
454.444	1	5
454.615	1	-5
454.785	1	2
454.956	1	11
455.126	1	8
455.297	1	6
455.467	1	2
455.638	1	5
455.808	1	4
455.979	1	11
456.149	1	2
456.320	1	4
456.490	1	7
456.661	1	23
456.831	1	10
457.001	1	17
457.172	1	5
457.342	1	5
457.513	1	12
457.683	1	0
457.854	1	-1
458.024	1	-5
458.195	1	0
458.365	1	-4
458.536	1	3
458.706	1	12
458.877	1	4
459.047	1	11
459.218	1	2
459.388	1	-2
459.559	1	-1
459.729	1	4
459.899	1	4
460.070	1	11
460.240	1	17
460.411	1	2
460.581	1	1
460.752	1	0
460.922	1	-7
461.093	1	7
461.263	1	8
461.434	1	-6
461.604	1	-2
461.775	1	-2
461.945	1	-5
462.115	1	20
462.286	1	-2
462.456	1	-2
462.627	1	-3
462.797	1	0
462.968	1	-2
463.138	1	8
463.309	1	14
463.479	1	0
463.649	1	-1
463.820	1	12
463.990	1	7
464.161	1	12
464.331	1	5
464.502	1	1
464.672	1	2
464.843	1	8
465.013	1	11
465.183	1	9
465.354	1	12
465.524	1	3
465.695	1	0
465.865	1	-2
466.036	1	9
466.206	1	3
466.376	1	0
466.547	1	2
466.717	1	7
466.888	1	9
467.058	1	8
467.229	1	6
467.399	1	6
467.569	1	7
467.740	1	-1
467.910	1	0
468.081	1	3
468.251	1	13
468.422	1	10
468.592	1	-3
468.762	1	5
468.933	1	-5
469.103	1	-3
469.274	1	7
469.444	1	0
469.614	1	-7
469.785	1	4
469.955	1	9
470.126	1	6
470.296	1	12
470.467	1	5
470.637	1	0
470.807	1	-4
470.978	1	5
471.148	1	-2
471.319	1	2
471.489	1	-8
471.659	1	19
471.830	1	3
472.000	1	-3
472.171	1	-3
472.341	1	1
472.511	1	12
472.682	1	1
472.852	1	3
473.023	1	0
473.193	1	2
473.363	1	9
473.534	1	6
473.704	1	10
473.875	1	-5
474.045	1	3
474.215	1	3
474.386	1	-1
474.556	1	11
474.727	1	4
474.897	1	6
475.067	1	9
475.238	1	9
475.408	1	12
475.578	1	3
475.749	1	10
475.919	1	13
476.090	1	-2
476.260	1	15
476.430	1	-3
476.601	1	6
476.771	1	-3
476.942	1	6
477.112	1	1
477.282	1	2
477.453	1	6
477.623	1	-1
477.793	1	-5
477.964	1	4
478.134	1	7
478.305	1	8
478.475	1	2
478.645	1	13
478.816	1	1
478.986	1	-1
479.156	1	-6
479.327	1	7
479.497	1	5
479.667	1	-3
479.838	1	3
480.008	1	-5
480.179	1	18
480.349	1	-1
480.519	1	5
480.690	1	1
480.860	1	8
481.030	1	-3
481.201	1	13
481.371	1	-10
481.541	1	9
481.712	1	6
481.882	1	5
482.053	1	11
482.223	1	-1
482.393	1	-4
482.564	1	-4
482.734	1	8
482.904	1	12
483.075	1	1
483.245	1	2
483.415	1	4
483.586	1	8
483.756	1	6
483.926	1	2
484.097	1	6
484.267	1	11
484.437	1	8
484.608	1	4
484.778	1	14
484.948	1	-1
485.119	1	1
485.289	1	0
485.459	1	3
485.630	1	11
485.800	1	1
485.970	1	9
486.141	1	5
486.311	1	0
486.481	1	19
486.652	1	12
486.822	1	4
486.992	1	-4
487.163	1	-3
487.333	1	8
487.503	1	-3
487.674	1	-1
487.844	1	11
488.014	1	13
488.185	1	4
488.355	1	15
488.525	1	8
488.696	1	13
488.866	1	-4
489.036	1	4
489.207	1	12
489.377	1	15
489.547	1	0
489.718	1	4
489.888	1	16
490.058	1	6
490.228	1	-10
490.399	1	-4
490.569	1	3
490.739	1	-2
490.910	1	8
491.080	1	6
491.250	1	7
491.421	1	6
491.591	1	-2
491.761	1	3
491.932	1	9
492.102	1	3
492.272	1	-5
492.442	1	3
492.613	1	3
492.783	1	1
492.953	1	0
493.124	1	10
493.294	1	10
493.464	1	-1
493.635	1	4
493.805	1	6
493.975	1	7
494.145	1	10
494.316	1	10
494.486	1	19
494.656	1	11
494.827	1	14
494.997	1	3
495.167	1	9
495.337	1	4
495.508	1	11
495.678	1	6
495.848	1	-7
496.019	1	2
496.189	1	-5
496.359	1	-3
496.529	1	8
496.700	1	6
496.870	1	1
497.040	1	6
497.211	1	8
497.381	1	-2
497.551	1	8
497.721	1	3
497.892	1	-1
498.062	1	0
498.232	1	-3
498.403	1	4
498.573	1	4
498.743	1	16
498.913	1	-5
499.084	1	0
499.254	1	1
499.424	1	3
499.594	1	10
499.765	1	-4
499.935	1	5
500.105	1	4
500.275	1	-5
500.446	1	8
500.616	1	4
500.786	1	-4
500.956	1	12
501.127	1	-5
501.297	1	4
501.467	1	10
501.638	1	8
501.808	1	10
501.978	1	-7
502.148	1	4
502.319	1	11
502.489	1	8
502.659	1	5
502.829	1	4
503.000	1	12
503.170	1	12
503.340	1	3
503.510	1	-7
503.681	1	14
503.851	1	-6
504.021	1	6
504.191	1	2
504.362	1	-4
504.532	1	-1
504.702	1	5
504.872	1	5
505.042	1	2
505.213	1	14
505.383	1	5
505.553	1	-3
505.723	1	10
505.894	1	2
506.064	1	3
506.234	1	-7
506.404	1	10
506.575	1	-8
506.745	1	14
506.915	1	-15
507.085	1	6
507.256	1	9
507.426	1	11
507.596	1	5
507.766	1	3
507.936	1	2
508.107	1	7
508.277	1	9
508.447	1	13
508.617	1	0
508.788	1	-5
508.958	1	10
509.128	1	7
509.298	1	4
509.468	1	16
509.639	1	2
509.809	1	1
509.979	1	8
510.149	1	10
510.319	1	4
510.490	1	0
510.660	1	5
510.830	1	3
511.000	1	8
511.171	1	16
511.341	1	0
511.511	1	8
511.681	1	0
511.851	1	3
512.022	1	1
512.192	1	14
512.362	1	-1
512.532	1	3
512.702	1	6
512.873	1	-1
513.043	1	11
513.213	1	11
513.383	1	4
513.553	1	2
513.724	1	8
513.894	1	3
514.064	1	10
514.234	1	1
514.404	1	3
514.575	1	4
514.745	1	-7
514.915	1	-3
515.085	1	6
515.255	1	-1
515.425	1	2
515.596	1	10
515.766	1	2
515.936	1	7
516.106	1	10
516.276	1	10
516.447	1	-5
516.617	1	6
516.787	1	1
516.957	1	0
517.127	1	7
517.297	1	3
517.468	1	3
517.638	1	3
517.808	1	-4
517.978	1	10
518.148	1	0
518.319	1	11
518.489	1	1
518.659	1	0
518.829	1	10
518.999	1	-4
519.169	1	-5
519.340	1	3
519.510	1	3
519.680	1	3
519.850	1	2
520.020	1	9
520.190	1	-6
520.361	1	-2
520.531	1	12
520.701	1	8
520.871	1	-4
521.041	1	-2
521.211	1	-4
521.382	1	12
521.552	1	0
521.722	1	-3
521.892	1	0
522.062	1	-1
522.232	1	10
522.402	1	9
522.573	1	-2
522.743	1	7
522.913	1	-1
523.083	1	10
523.253	1	4
523.423	1	5
523.593	1	-9
523.764	1	1
523.934	1	-1
524.104	1	4
524.274	1	5
524.444	1	2
524.614	1	7
524.784	1	-7
524.955	1	-2
525.125	1	-4
525.295	1	3
525.465	1	-3
525.635	1	3
525.805	1	21
525.975	1	6
526.146	1	14
526.316	1	-5
526.486	1	4
526.656	1	5
526.826	1	-2
526.996	1	-6
527.166	1	9
527.337	1	12
527.507	1	8
527.677	1	5
527.847	1	-11
528.017	1	0
528.187	1	-14
528.357	1	3
528.527	1	1
528.698	1	-1
528.868	1	2
529.038	1	3
529.208	1	6
529.378	1	7
529.548	1	1
529.718	1	0
529.888	1	4
530.058	1	-3
530.229	1	4
530.399	1	-2
530.569	1	7
530.739	1	13
530.909	1	6
531.079	1	4
531.249	1	0
531.419	1	0
531.589	1	-4
531.760	1	-2
531.930	1	2
532.100	1	9
532.270	1	15
532.440	1	14
532.610	1	12
532.780	1	1
532.950	1	13
533.120	1	4
533.290	1	1
533.461	1	2
533.631	1	1
533.801	1	3
533.971	1	8
534.141	1	9
534.311	1	0
534.481	1	-1
534.651	1	-2
534.821	1	6
534.991	1	4
535.162	1	-9
535.332	1	-10
535.502	1	4
535.672	1	7
535.842	1	0
536.012	1	9
536.182	1	10
536.352	1	11
536.522	1	8
536.692	1	2
536.862	1	-5
537.032	1	8
537.203	1	6
537.373	1	-16
537.543	1	12
537.713	1	3
537.883	1	0
538.053	1	8
538.223	1	8
538.393	1	-4
538.563	1	5
538.733	1	2
538.903	1	5
539.073	1	16
539.243	1	0
539.413	1	18
539.584	1	-2
539.754	1	-5
539.924	1	-3
540.094	1	8
540.264	1	-6
540.434	1	3
540.604	1	3
540.774	1	0
540.944	1	13
541.114	1	-2
541.284	1	0
541.454	1	12
541.624	1	2
541.794	1	2
541.964	1	3
542.134	1	7
542.305	1	6
542.475	1	0
542.645	1	-3
542.815	1	8
542.985	1	16
543.155	1	5
543.325	1	3
543.495	1	2
543.665	1	2
543.835	1	11
544.005	1	5
544.175	1	5
544.345	1	14
544.515	1	1
544.685	1	6
544.855	1	2
545.025	1	-2
545.195	1	-2
545.365	1	14
545.535	1	2
545.705	1	6
545.875	1	1
546.045	1	3
546.216	1	6
546.386	1	11
546.556	1	8
546.726	1	3
546.896	1	-3
547.066	1	-1
547.236	1	4
547.406	1	8
547.576	1	4
547.746	1	8
547.916	1	8
548.086	1	0
548.256	1	7
548.426	1	11
548.596	1	9
548.766	1	6
548.936	1	2
549.106	1	0
549.276	1	1
549.446	1	6
549.616	1	3
549.786	1	-1
549.956	1	7
550.126	1	1
550.296	1	5
550.466	1	-1
550.636	1	14
550.806	1	6
550.976	1	15
551.146	1	5
551.316	1	10
551.486	1	5
551.656	1	10
551.826	1	7
551.996	1	12
552.166	1	-3
552.336	1	15
552.506	1	9
552.676	1	6
552.846	1	5
553.016	1	-6
553.186	1	-2
553.356	1	-4
553.526	1	0
553.696	1	-5
553.866	1	9
554.036	1	11
554.206	1	-6
554.376	1	10
554.546	1	3
554.716	1	9
554.886	1	5
555.056	1	10
555.226	1	1
555.396	1	5
555.566	1	-3
555.736	1	-1
555.906	1	1
556.076	1	10
556.246	1	9
556.416	1	0
556.586	1	1
556.756	1	11
556.926	1	8
557.096	1	3
557.266	1	9
557.436	1	9
557.606	1	7
557.776	1	3
557.946	1	6
558.116	1	13
558.286	1	-1
558.456	1	5
558.626	1	-2
558.796	1	14
558.966	1	11
559.136	1	1
559.306	1	7
559.476	1	-2
559.646	1	3
559.816	1	1
559.986	1	9
560.155	1	1
560.325	1	3
560.495	1	-1
560.665	1	14
560.835	1	2
561.005	1	-4
561.175	1	1
561.345	1	4
561.515	1	-4
561.685	1	3
561.855	1	15
562.025	1	-3
562.195	1	10
562.365	1	1
562.535	1	9
562.705	1	6
562.875	1	-3
563.045	1	-5
563.215	1	18
563.385	1	4
563.555	1	-2
563.725	1	3
563.895	1	4
564.064	1	-5
564.234	1	-1
564.404	1	9
564.574	1	11
564.744	1	1
564.914	1	1
565.084	1	12
565.254	1	9
565.424	1	-4
565.594	1	7
565.764	1	2
565.934	1	-11
566.104	1	-13
566.274	1	9
566.444	1	8
566.614	1	3
566.783	1	14
566.953	1	5
567.123	1	11
567.293	1	-3
567.463	1	-6
567.633	1	2
567.803	1	7
567.973	1	4
568.143	1	15
568.313	1	11
568.483	1	0
568.653	1	9
568.823	1	0
568.993	1	8
569.162	1	2
569.332	1	2
569.502	1	-6
569.672	1	5
569.842	1	1
570.012	1	15
570.182	1	6
570.352	1	16
570.522	1	6
570.692	1	3
570.862	1	9
571.031	1	-3
571.201	1	1
571.371	1	-3
571.541	1	8
571.711	1	14
571.881	1	0
572.051	1	8
572.221	1	-1
572.391	1	-10
572.561	1	-6
572.731	1	4
572.900	1	-4
573.070	1	-3
573.240	1	7
573.410	1	12
573.580	1	7
573.750	1	15
573.920	1	5
574.090	1	10
574.260	1	-10
574.430	1	6
574.599	1	17
574.769	1	7
574.939	1	-12
575.109	1	3
575.279	1	15
575.449	1	6
575.619	1	3
575.789	1	9
575.959	1	5
576.128	1	-9
576.298	1	9
576.468	1	-7
576.638	1	9
576.808	1	-2
576.978	1	8
577.148	1	11
577.318	1	7
577.487	1	6
577.657	1	8
577.827	1	1
577.997	1	4
578.167	1	-4
578.337	1	14
578.507	1	-3
578.677	1	1
578.846	1	5
579.016	1	12
579.186	1	-3
579.356	1	10
579.526	1	8
579.696	1	-7
579.866	1	2
580.036	1	8
580.205	1	-1
580.375	1	21
580.545	1	1
580.715	1	8
580.885	1	0
581.055	1	10
581.225	1	8
581.394	1	4
581.564	1	0
581.734	1	3
581.904	1	2
582.074	1	4
582.244	1	1
582.414	1	9
582.583	1	-4
582.753	1	-2
582.923	1	3
583.093	1	14
583.263	1	-2
583.433	1	1
583.603	1	7
583.772	1	12
583.942	1	-1
584.112	1	-8
584.282	1	-1
584.452	1	10
584.622	1	4
584.791	1	5
584.961	1	7
585.131	1	1
585.301	1	0
585.471	1	6
585.641	1	4
585.811	1	-2
585.980	1	-4
586.150	1	5
586.320	1	12
586.490	1	-2
586.660	1	1
586.830	1	9
586.999	1	5
587.169	1	4
587.339	1	-4
587.509	1	7
587.679	1	2
587.849	1	7
588.018	1	10
588.188	1	11
588.358	1	5
588.528	1	1
588.698	1	19
588.867	1	10
589.037	1	0
589.207	1	7
589.377	1	5
589.547	1	3
589.717	1	4
589.886	1	11
590.056	1	8
590.226	1	5
590.396	1	3
590.566	1	8
590.735	1	3
590.905	1	-8
591.075	1	-4
591.245	1	15
591.415	1	-7
591.585	1	0
591.754	1	9
591.924	1	3
592.094	1	2
592.264	1	0
592.434	1	8
592.603	1	-7
592.773	1	12
592.943	1	13
593.113	1	15
593.283	1	-2
593.452	1	13
593.622	1	0
593.792	1	9
593.962	1	-4
594.132	1	11
594.301	1	-5
594.471	1	10
594.641	1	8
594.811	1	6
594.981	1	-1
595.150	1	9
595.320	1	6
595.490	1	7
595.660	1	7
595.829	1	1
595.999	1	-7
596.169	1	-11
596.339	1	11
596.509	1	-1
596.678	1	11
596.848	1	1
597.018	1	10
597.188	1	4
597.358	1	4
597.527	1	14
597.697	1	-6
597.867	1	5
598.037	1	-1
598.206	1	3
598.376	1	8
598.546	1	-1
598.716	1	12
598.885	1	1
599.055	1	6
599.225	1	-3
599.395	1	13
599.565	1	-8
599.734	1	1
599.904	1	4
600.074	1	6
600.244	1	1
600.413	1	0
600.583	1	4
600.753	1	5
600.923	1	-2
601.092	1	8
601.262	1	10
601.432	1	-7
601.602	1	11
601.771	1	1
601.941	1	16
602.111	1	2
602.281	1	8
602.451	1	17
602.620	1	6
602.790	1	3
602.960	1	7
603.130	1	3
603.299	1	6
603.469	1	-1
603.639	1	-4
603.809	1	10
603.978	1	12
604.148	1	11
604.318	1	11
604.487	1	7
604.657	1	16
604.827	1	9
604.997	1	14
605.166	1	10
605.336	1	10
605.506	1	9
605.676	1	13
605.845	1	5
606.015	1	16
606.185	1	10
606.355	1	7
606.524	1	2
606.694	1	8
606.864	1	-3
607.034	1	0
607.203	1	12
607.373	1	7
607.543	1	2
607.712	1	12
607.882	1	10
608.052	1	5
608.222	1	12
608.391	1	4
608.561	1	3
608.731	1	3
608.901	1	3
609.070	1	-4
609.240	1	-3
609.410	1	12
609.579	1	-3
609.749	1	5
609.919	1	10
610.089	1	5
610.258	1	-2
610.428	1	0
610.598	1	8
610.767	1	0
610.937	1	-4
611.107	1	2
611.277	1	7
611.446	1	10
611.616	1	0
611.786	1	5
611.955	1	2
612.125	1	6
612.295	1	2
612.465	1	-2
612.634	1	4
612.804	1	6
612.974	1	3
613.143	1	1
613.313	1	1
613.483	1	-12
613.652	1	10
613.822	1	14
613.992	1	3
614.162	1	6
614.331	1	4
614.501	1	5
614.671	1	5
614.840	1	11
615.010	1	9
615.180	1	7
615.349	1	-6
615.519	1	-2
615.689	1	16
615.858	1	6
616.028	1	3
616.198	1	12
616.368	1	10
616.537	1	-2
616.707	1	-4
616.877	1	1
617.046	1	0
617.216	1	2
617.386	1	-4
617.555	1	11
617.725	1	-6
617.895	1	14
618.064	1	8
618.234	1	5
618.404	1	14
618.573	1	10
618.743	1	-2
618.913	1	-6
619.082	1	3
619.252	1	5
619.422	1	18
619.591	1	3
619.761	1	0
619.931	1	-4
620.100	1	4
620.270	1	1
620.440	1	6
620.609	1	10
620.779	1	-4
620.949	1	10
621.118	1	9
621.288	1	4
621.458	1	6
621.627	1	9
621.797	1	4
621.967	1	3
622.136	1	2
622.306	1	1
622.476	1	12
622.645	1	2
622.815	1	5
622.985	1	-6
623.154	1	2
623.324	1	22
623.494	1	-2
623.663	1	4
623.833	1	-2
624.002	1	-11
624.172	1	9
624.342	1	4
624.511	1	6
624.681	1	1
624.851	1	4
625.020	1	2
625.190	1	7
625.360	1	13
625.529	1	-1
625.699	1	10
625.869	1	1
626.038	1	-1
626.208	1	8
626.377	1	10
626.547	1	-4
626.717	1	-2
626.886	1	11
627.056	1	8
627.226	1	3
627.395	1	4
627.565	1	4
627.735	1	-1
627.904	1	-3
628.074	1	3
628.243	1	-2
628.413	1	8
628.583	1	10
628.752	1	6
628.922	1	8
629.091	1	6
629.261	1	3
629.431	1	0
629.600	1	4
629.770	1	5
629.940	1	11
630.109	1	13
630.279	1	1
630.448	1	1
630.618	1	-7
630.788	1	11
630.957	1	9
631.127	1	11
631.297	1	0
631.466	1	2
631.636	1	-1
631.805	1	3
631.975	1	12
632.145	1	-2
632.314	1	6
632.484	1	6
632.653	1	5
632.823	1	6
632.993	1	4
633.162	1	10
633.332	1	-1
633.501	1	-1
633.671	1	3
633.841	1	11
634.010	1	6
634.180	1	-1
634.349	1	2
634.519	1	7
634.689	1	1
634.858	1	8
635.028	1	9
635.197	1	-1
635.367	1	10
635.537	1	20
635.706	1	0
635.876	1	1
636.045	1	10
636.215	1	7
636.384	1	7
636.554	1	15
636.724	1	4
636.893	1	2
637.063	1	-3
637.232	1	-4
637.402	1	2
637.572	1	0
637.741	1	14
637.911	1	6
638.080	1	5
638.250	1	13
638.419	1	14
638.589	1	-4
638.759	1	-4
638.928	1	10
639.098	1	6
639.267	1	12
639.437	1	1
639.606	1	6
639.776	1	5
639.946	1	1
640.115	1	-6
640.285	1	-4
640.454	1	8
640.624	1	-1
640.793	1	-4
640.963	1	4
641.132	1	-6
641.302	1	4
641.472	1	9
641.641	1	8
641.811	1	8
641.980	1	-3
642.150	1	7
642.319	1	10
642.489	1	-9
642.659	1	11
642.828	1	6
642.998	1	1
643.167	1	3
643.337	1	-7
643.506	1	6
643.676	1	5
643.845	1	-9
644.015	1	1
644.184	1	-6
644.354	1	0
644.524	1	8
644.693	1	-1
644.863	1	3
645.032	1	-9
645.202	1	-13
645.371	1	12
645.541	1	-3
645.710	1	2
645.880	1	9
646.049	1	-11
646.219	1	-2
646.388	1	7
646.558	1	6
646.728	1	2
646.897	1	6
647.067	1	7
647.236	1	7
647.406	1	7
647.575	1	1
647.745	1	-2
647.914	1	5
648.084	1	14
648.253	1	8
648.423	1	7
648.592	1	-3
648.762	1	8
648.931	1	16
649.101	1	-2
649.270	1	0
649.440	1	7
649.610	1	1
649.779	1	6
649.949	1	-4
650.118	1	4
650.288	1	-1
650.457	1	2
650.627	1	2
650.796	1	-3
650.966	1	-1
651.135	1	3
651.305	1	9
651.474	1	20
651.644	1	6
651.813	1	7
651.983	1	-7
652.152	1	5
652.322	1	5
652.491	1	3
652.661	1	15
652.830	1	5
653.000	1	5
653.169	1	-1
653.339	1	14
653.508	1	7
653.678	1	1
653.847	1	-4
654.017	1	0
654.186	1	4
654.356	1	-3
654.525	1	0
654.695	1	5
654.864	1	3
655.034	1	2
655.203	1	7
655.373	1	15
655.542	1	5
655.712	1	1
655.881	1	9
656.051	1	1
656.220	1	10
656.390	1	16
656.559	1	4
656.729	1	-2
656.898	1	6
657.068	1	3
657.237	1	0
657.406	1	3
657.576	1	-4
657.745	1	12
657.915	1	2
658.084	1	-8
658.254	1	-11
658.423	1	1
658.593	1	-2
658.762	1	12
658.932	1	3
659.101	1	-2
659.271	1	5
659.440	1	9
659.610	1	5
659.779	1	11
659.949	1	6
660.118	1	2
660.288	1	-6
660.457	1	1
660.626	1	1
660.796	1	3
660.965	1	0
661.135	1	8
661.304	1	23
661.474	1	4
661.643	1	-6
661.813	1	-18
661.982	1	7
662.152	1	-4
662.321	1	-1
662.491	1	-2
662.660	1	4
662.829	1	3
662.999	1	5
663.168	1	1
663.338	1	4
663.507	1	12
663.677	1	-2
663.846	1	-3
664.016	1	7
664.185	1	1
664.354	1	0
664.524	1	-2
664.693	1	7
664.863	1	6
665.032	1	7
665.202	1	8
665.371	1	3
665.541	1	7
665.710	1	-3
665.879	1	11
666.049	1	0
666.218	1	1
666.388	1	9
666.557	1	5
666.727	1	-1
666.896	1	-1
667.065	1	7
667.235	1	2
667.404	1	6
667.574	1	-6
667.743	1	1
667.913	1	8
668.082	1	6
668.251	1	12
668.421	1	8
668.590	1	-1
668.760	1	5
668.929	1	5
669.099	1	4
669.268	1	6
669.437	1	2
669.607	1	-4
669.776	1	18
669.946	1	-8
670.115	1	6
670.285	1	1
670.454	1	7
670.623	1	4
670.793	1	2
670.962	1	1
671.132	1	3
671.301	1	4
671.470	1	-1
671.640	1	-2
671.809	1	0
671.979	1	9
672.148	1	-2
672.317	1	2
672.487	1	2
672.656	1	0
672.826	1	-3
672.995	1	-1
673.164	1	-2
673.334	1	-4
673.503	1	10
673.673	1	4
673.842	1	7
674.011	1	5
674.181	1	13
674.350	1	1
674.520	1	-1
674.689	1	14
674.858	1	5
675.028	1	11
675.197	1	7
675.367	1	1
675.536	1	6
675.705	1	2
675.875	1	0
676.044	1	5
676.214	1	2
676.383	1	9
676.552	1	9
676.722	1	8
676.891	1	5
677.060	1	17
677.230	1	-5
677.399	1	-3
677.569	1	-15
677.738	1	-9
677.907	1	-1
678.077	1	11
678.246	1	-1
678.416	1	9
678.585	1	3
678.754	1	-3
678.924	1	6
679.093	1	7
679.262	1	5
679.432	1	-11
679.601	1	13
679.771	1	13
679.940	1	4
680.109	1	-5
680.279	1	14
680.448	1	-1
680.617	1	4
680.787	1	-6
680.956	1	6
681.125	1	4
681.295	1	-3
681.464	1	-1
681.634	1	5
681.803	1	11
681.972	1	1
682.142	1	11
682.311	1	6
682.480	1	-2
682.650	1	7
682.819	1	4
682.988	1	9
683.158	1	2
683.327	1	12
683.496	1	-2
683.666	1	8
683.835	1	-1
684.004	1	12
684.174	1	9
684.343	1	7
684.512	1	3
684.682	1	13
684.851	1	6
685.021	1	8
685.190	1	0
685.359	1	0
685.529	1	2
685.698	1	8
685.867	1	12
686.037	1	8
686.206	1	4
686.375	1	-9
686.545	1	3
686.714	1	9
686.883	1	-7
687.053	1	6
687.222	1	4
687.391	1	-1
687.561	1	1
687.730	1	4
687.899	1	5
688.069	1	-2
688.238	1	2
688.407	1	10
688.577	1	3
688.746	1	12
