340.368	1	4
340.539	1	12
340.710	1	7
340.881	1	-7
341.052	1	11
341.223	1	6
341.394	1	-3
341.565	1	2
341.737	1	-2
341.908	1	-5
342.079	1	-5
342.250	1	1
342.421	1	-10
342.592	1	0
342.763	1	-9
342.934	1	1
343.105	1	2
343.276	1	-15
343.447	1	3
343.618	1	-4
343.789	1	2
343.960	1	-11
344.131	1	-12
344.302	1	0
344.473	1	-7
344.644	1	8
344.815	1	5
344.986	1	-6
345.157	1	-8
345.328	1	1
345.499	1	3
345.670	1	0
345.841	1	3
346.012	1	1
346.183	1	3
346.354	1	-6
346.526	1	9
346.697	1	8
346.868	1	-3
347.039	1	10
347.210	1	-3
347.381	1	3
347.552	1	-5
347.723	1	9
347.894	1	10
348.065	1	-5
348.236	1	4
348.407	1	2
348.578	1	-10
348.749	1	0
348.920	1	11
349.091	1	3
349.262	1	-3
349.433	1	2
349.604	1	3
349.775	1	10
349.946	1	-3
350.117	1	10
350.288	1	-5
350.459	1	-3
350.630	1	-3
350.801	1	-1
350.972	1	1
351.143	1	8
351.314	1	5
351.485	1	7
351.656	1	-1
351.827	1	9
351.998	1	1
352.169	1	-6
352.340	1	8
352.511	1	3
352.682	1	1
352.853	1	-1
353.024	1	5
353.195	1	6
353.366	1	1
353.537	1	4
353.708	1	7
353.879	1	9
354.050	1	2
354.221	1	7
354.392	1	3
354.563	1	-1
354.734	1	8
354.905	1	4
355.076	1	-1
355.247	1	10
355.418	1	1
355.589	1	-2
355.760	1	3
355.931	1	-13
356.102	1	0
356.273	1	4
356.444	1	-3
356.615	1	1
356.785	1	10
356.956	1	7
357.127	1	-7
357.298	1	-2
357.469	1	8
357.640	1	13
357.811	1	0
357.982	1	0
358.153	1	-4
358.324	1	8
358.495	1	1
358.666	1	1
358.837	1	2
359.008	1	3
359.179	1	2
359.350	1	7
359.521	1	-2
359.692	1	16
359.863	1	13
360.034	1	12
360.205	1	4
360.376	1	3
360.547	1	2
360.718	1	4
360.889	1	19
361.060	1	16
361.231	1	-5
361.401	1	13
361.572	1	17
361.743	1	-8
361.914	1	4
362.085	1	-2
362.256	1	1
362.427	1	12
362.598	1	10
362.769	1	17
362.940	1	14
363.111	1	2
363.282	1	14
363.453	1	3
363.624	1	-4
363.795	1	5
363.966	1	9
364.137	1	5
364.308	1	12
364.478	1	19
364.649	1	6
364.820	1	10
364.991	1	11
365.162	1	12
365.333	1	5
365.504	1	9
365.675	1	6
365.846	1	8
366.017	1	12
366.188	1	19
366.359	1	10
366.530	1	19
366.701	1	8
366.871	1	15
367.042	1	18
367.213	1	19
367.384	1	10
367.555	1	16
367.726	1	24
367.897	1	31
368.068	1	12
368.239	1	11
368.410	1	16
368.581	1	17
368.752	1	13
368.923	1	11
369.093	1	15
369.264	1	12
369.435	1	17
369.606	1	17
369.777	1	19
369.948	1	26
370.119	1	14
370.290	1	18
370.461	1	29
370.632	1	20
370.803	1	11
370.973	1	6
371.144	1	23
371.315	1	7
371.486	1	26
371.657	1	14
371.828	1	14
371.999	1	3
372.170	1	13
372.341	1	32
372.512	1	7
372.682	1	29
372.853	1	18
373.024	1	15
373.195	1	21
373.366	1	24
373.537	1	17
373.708	1	26
373.879	1	23
374.050	1	26
374.220	1	31
374.391	1	18
374.562	1	24
374.733	1	21
374.904	1	14
375.075	1	19
375.246	1	27
375.417	1	14
375.588	1	23
375.758	1	15
375.929	1	20
376.100	1	23
376.271	1	23
376.442	1	22
376.613	1	22
376.784	1	11
376.955	1	17
377.125	1	20
377.296	1	12
377.467	1	4
377.638	1	29
377.809	1	19
377.980	1	24
378.151	1	27
378.321	1	32
378.492	1	27
378.663	1	14
378.834	1	12
379.005	1	17
379.176	1	11
379.347	1	35
379.518	1	16
379.688	1	4
379.859	1	9
380.030	1	21
380.201	1	18
380.372	1	2
380.543	1	2
380.714	1	21
380.884	1	12
381.055	1	9
381.226	1	22
381.397	1	3
381.568	1	9
381.739	1	18
381.910	1	7
382.080	1	13
382.251	1	-4
382.422	1	18
382.593	1	12
382.764	1	14
382.935	1	3
383.105	1	19
383.276	1	13
383.447	1	3
383.618	1	13
383.789	1	9
383.960	1	8
384.130	1	3
384.301	1	17
384.472	1	4
384.643	1	9
384.814	1	0
384.985	1	7
385.156	1	13
385.326	1	10
385.497	1	6
385.668	1	10
385.839	1	11
386.010	1	11
386.180	1	16
386.351	1	9
386.522	1	8
386.693	1	-1
386.864	1	11
387.035	1	26
387.205	1	9
387.376	1	4
387.547	1	23
387.718	1	0
387.889	1	7
388.060	1	15
388.230	1	18
388.401	1	20
388.572	1	3
388.743	1	21
388.914	1	-5
389.084	1	9
389.255	1	4
389.426	1	9
389.597	1	14
389.768	1	19
389.939	1	12
390.109	1	-1
390.280	1	5
390.451	1	14
390.622	1	4
390.793	1	10
390.963	1	18
391.134	1	14
391.305	1	11
391.476	1	-1
391.647	1	0
391.817	1	8
391.988	1	7
392.159	1	9
392.330	1	12
392.501	1	0
392.671	1	1
392.842	1	-6
393.013	1	16
393.184	1	5
393.355	1	8
393.525	1	1
393.696	1	9
393.867	1	2
394.038	1	4
394.208	1	9
394.379	1	7
394.550	1	-3
394.721	1	16
394.892	1	8
395.062	1	-10
395.233	1	7
395.404	1	10
395.575	1	18
395.746	1	17
395.916	1	7
396.087	1	14
396.258	1	15
396.429	1	11
396.599	1	2
396.770	1	0
396.941	1	4
397.112	1	9
397.283	1	4
397.453	1	13
397.624	1	8
397.795	1	14
397.966	1	8
398.136	1	3
398.307	1	-2
398.478	1	7
398.649	1	3
398.819	1	7
398.990	1	12
399.161	1	13
399.332	1	5
399.503	1	11
399.673	1	3
399.844	1	2
400.015	1	10
400.186	1	-1
400.356	1	11
400.527	1	-2
400.698	1	10
400.869	1	-2
401.039	1	12
401.210	1	11
401.381	1	5
401.552	1	6
401.722	1	0
401.893	1	0
402.064	1	2
402.235	1	7
402.405	1	-2
402.576	1	1
402.747	1	8
402.918	1	-3
403.088	1	1
403.259	1	4
403.430	1	-1
403.601	1	8
403.771	1	-1
403.942	1	-2
404.113	1	1
404.284	1	20
404.454	1	9
404.625	1	4
404.796	1	-1
404.967	1	9
405.137	1	10
405.308	1	1
405.479	1	6
405.649	1	9
405.820	1	9
405.991	1	5
406.162	1	-2
406.332	1	1
406.503	1	8
406.674	1	5
406.845	1	1
407.015	1	1
407.186	1	16
407.357	1	13
407.527	1	6
407.698	1	4
407.869	1	-8
408.040	1	4
408.210	1	8
408.381	1	11
408.552	1	8
408.722	1	11
408.893	1	15
409.064	1	-2
409.235	1	13
409.405	1	2
409.576	1	15
409.747	1	7
409.917	1	3
410.088	1	5
410.259	1	-1
410.430	1	14
410.600	1	3
410.771	1	8
410.942	1	5
411.112	1	-7
411.283	1	8
411.454	1	2
411.625	1	3
411.795	1	6
411.966	1	3
412.137	1	4
412.307	1	-10
412.478	1	-2
412.649	1	-6
412.819	1	1
412.990	1	4
413.161	1	10
413.332	1	5
413.502	1	11
413.673	1	6
413.844	1	5
414.014	1	7
414.185	1	5
414.356	1	-3
414.526	1	6
414.697	1	0
414.868	1	1
415.038	1	9
415.209	1	0
415.380	1	17
415.550	1	-1
415.721	1	3
415.892	1	-5
416.063	1	6
416.233	1	16
416.404	1	-8
416.575	1	13
416.745	1	9
416.916	1	5
417.087	1	-2
417.257	1	4
417.428	1	7
417.599	1	1
417.769	1	8
417.940	1	3
418.111	1	6
418.281	1	6
418.452	1	2
418.623	1	2
418.793	1	-4
418.964	1	-2
419.135	1	12
419.305	1	5
419.476	1	-5
419.647	1	7
419.817	1	4
419.988	1	10
420.159	1	10
420.329	1	-1
420.500	1	5
420.671	1	20
420.841	1	3
421.012	1	12
421.183	1	5
421.353	1	0
421.524	1	0
421.695	1	4
421.865	1	15
422.036	1	8
422.206	1	5
422.377	1	-1
422.548	1	7
422.718	1	9
422.889	1	6
423.060	1	7
423.230	1	11
423.401	1	4
423.572	1	15
423.742	1	0
423.913	1	9
424.084	1	2
424.254	1	6
424.425	1	17
424.595	1	7
424.766	1	6
424.937	1	1
425.107	1	16
425.278	1	5
425.449	1	6
425.619	1	16
425.790	1	8
425.961	1	3
426.131	1	6
426.302	1	-4
426.472	1	-5
426.643	1	10
426.814	1	-3
426.984	1	8
427.155	1	0
427.326	1	6
427.496	1	5
427.667	1	11
427.837	1	3
428.008	1	0
428.179	1	3
428.349	1	-8
428.520	1	2
428.691	1	12
428.861	1	2
429.032	1	0
429.202	1	13
429.373	1	6
429.544	1	3
429.714	1	2
429.885	1	6
430.055	1	6
430.226	1	8
430.397	1	11
430.567	1	-2
430.738	1	4
430.909	1	-5
431.079	1	13
431.250	1	9
431.420	1	-1
431.591	1	6
431.762	1	-1
431.932	1	-6
432.103	1	-6
432.273	1	7
432.444	1	10
432.615	1	4
432.785	1	4
432.956	1	9
433.126	1	9
433.297	1	-1
433.468	1	4
433.638	1	8
433.809	1	12
433.979	1	-4
434.150	1	10
434.320	1	-1
434.491	1	-4
434.662	1	-6
434.832	1	-5
435.003	1	2
435.173	1	4
435.344	1	-3
435.515	1	-1
435.685	1	7
435.856	1	-4
436.026	1	19
436.197	1	11
436.368	1	9
436.538	1	-3
436.709	1	5
436.879	1	10
437.050	1	6
437.220	1	3
437.391	1	-4
437.562	1	18
437.732	1	3
437.903	1	-2
438.073	1	-1
438.244	1	-5
438.414	1	5
438.585	1	11
438.756	1	-2
438.926	1	2
439.097	1	3
439.267	1	-6
439.438	1	12
439.608	1	1
439.779	1	14
439.949	1	2
440.120	1	13
440.291	1	-6
440.461	1	-1
440.632	1	3
440.802	1	4
440.973	1	15
441.143	1	8
441.314	1	9
441.485	1	4
441.655	1	9
441.826	1	-2
441.996	1	12
442.167	1	8
442.337	1	-10
442.508	1	-3
442.678	1	8
442.849	1	11
443.019	1	6
443.190	1	9
443.361	1	-2
443.531	1	1
443.702	1	6
443.872	1	-3
444.043	1	3
444.213	1	0
444.384	1	-4
444.554	1	16
444.725	1	6
444.895	1	5
445.066	1	1
445.237	1	-6
445.407	1	0
445.578	1	-2
445.748	1	5
445.919	1	12
446.089	1	-2
446.260	1	2
446.430	1	3
446.601	1	5
446.771	1	8
446.942	1	2
447.112	1	6
447.283	1	11
447.453	1	5
447.624	1	3
447.794	1	5
447.965	1	7
448.135	1	2
448.306	1	10
448.477	1	-3
448.647	1	0
448.818	1	6
448.988	1	2
449.159	1	7
449.329	1	13
449.500	1	-3
449.670	1	-6
449.841	1	1
450.011	1	-3
450.182	1	-2
450.352	1	0
450.523	1	2
450.693	1	0
450.864	1	-4
451.034	1	6
451.205	1	-2
451.375	1	0
451.546	1	0
451.716	1	-1
451.887	1	0
452.057	1	7
452.228	1	3
452.398	1	8
452.569	1	-5
452.739	1	0
452.910	1	1
453.080	1	3
453.251	1	0
453.421	1	1
453.592	1	-5
453.762	1	3
453.933	1	6
454.103	1	14
454.274	1	-9
454.444	1	-1
454.615	1	-10
454.785	1	-3
454.956	1	7
455.126	1	2
455.297	1	5
455.467	1	4
455.638	1	-1
455.808	1	-3
455.979	1	11
456.149	1	2
456.320	1	4
456.490	1	-2
456.661	1	13
456.831	1	1
457.001	1	10
457.172	1	5
457.342	1	3
457.513	1	14
457.683	1	-5
457.854	1	-3
458.024	1	0
458.195	1	4
458.365	1	-6
458.536	1	0
458.706	1	14
458.877	1	4
459.047	1	9
459.218	1	9
459.388	1	-13
459.559	1	-3
459.729	1	1
459.899	1	-3
460.070	1	5
460.240	1	6
460.411	1	2
460.581	1	-3
460.752	1	14
460.922	1	-2
461.093	1	3
461.263	1	4
461.434	1	7
461.604	1	1
461.775	1	3
461.945	1	-6
462.115	1	7
462.286	1	-2
462.456	1	3
462.627	1	-5
462.797	1	-5
462.968	1	-1
463.138	1	3
463.309	1	15
463.479	1	-6
463.649	1	7
463.820	1	8
463.990	1	6
464.161	1	2
464.331	1	3
464.502	1	-1
464.672	1	-2
464.843	1	2
465.013	1	9
465.183	1	6
465.354	1	7
465.524	1	6
465.695	1	2
465.865	1	-12
466.036	1	4
466.206	1	0
466.376	1	6
466.547	1	1
466.717	1	5
466.888	1	6
467.058	1	5
467.229	1	3
467.399	1	6
467.569	1	5
467.740	1	2
467.910	1	-3
468.081	1	0
468.251	1	1
468.422	1	11
468.592	1	1
468.762	1	2
468.933	1	-5
469.103	1	2
469.274	1	-1
469.444	1	-1
469.614	1	-3
469.785	1	8
469.955	1	8
470.126	1	7
470.296	1	0
470.467	1	2
470.637	1	-2
470.807	1	0
470.978	1	4
471.148	1	1
471.319	1	4
471.489	1	5
471.659	1	10
471.830	1	4
472.000	1	-2
472.171	1	3
472.341	1	-1
472.511	1	14
472.682	1	-6
472.852	1	2
473.023	1	2
473.193	1	7
473.363	1	10
473.534	1	13
473.704	1	8
473.875	1	15
474.045	1	-1
474.215	1	1
474.386	1	-7
474.556	1	12
474.727	1	4
474.897	1	8
475.067	1	-2
475.238	1	2
475.408	1	5
475.578	1	4
475.749	1	4
475.919	1	7
476.090	1	0
476.260	1	8
476.430	1	-4
476.601	1	13
476.771	1	2
476.942	1	-3
477.112	1	5
477.282	1	0
477.453	1	0
477.623	1	-6
477.793	1	-4
477.964	1	-3
478.134	1	-1
478.305	1	8
478.475	1	14
478.645	1	0
478.816	1	8
478.986	1	4
479.156	1	1
479.327	1	16
479.497	1	0
479.667	1	-7
479.838	1	7
480.008	1	-7
480.179	1	6
480.349	1	3
480.519	1	-2
480.690	1	2
480.860	1	6
481.030	1	1
481.201	1	6
481.371	1	-6
481.541	1	10
481.712	1	7
481.882	1	-5
482.053	1	4
482.223	1	-6
482.393	1	3
482.564	1	5
482.734	1	7
482.904	1	11
483.075	1	5
483.245	1	-4
483.415	1	8
483.586	1	4
483.756	1	3
483.926	1	0
484.097	1	-2
484.267	1	12
484.437	1	-2
484.608	1	3
484.778	1	8
484.948	1	3
485.119	1	-1
485.289	1	-3
485.459	1	-2
485.630	1	10
485.800	1	6
485.970	1	10
486.141	1	2
486.311	1	2
486.481	1	12
486.652	1	9
486.822	1	1
486.992	1	-2
487.163	1	-7
487.333	1	3
487.503	1	2
487.674	1	1
487.844	1	12
488.014	1	10
488.185	1	4
488.355	1	4
488.525	1	10
488.696	1	10
488.866	1	5
489.036	1	6
489.207	1	12
489.377	1	0
489.547	1	-1
489.718	1	2
489.888	1	4
490.058	1	11
490.228	1	-6
490.399	1	-2
490.569	1	5
490.739	1	4
490.910	1	1
491.080	1	8
491.250	1	3
491.421	1	-2
491.591	1	-12
491.761	1	2
491.932	1	4
492.102	1	5
492.272	1	-10
492.442	1	8
492.613	1	7
492.783	1	-8
492.953	1	0
493.124	1	10
493.294	1	0
493.464	1	-3
493.635	1	7
493.805	1	4
493.975	1	9
494.145	1	5
494.316	1	3
494.486	1	16
494.656	1	12
494.827	1	-3
494.997	1	0
495.167	1	2
495.337	1	5
495.508	1	7
495.678	1	11
495.848	1	-3
496.019	1	4
496.189	1	2
496.359	1	-10
496.529	1	1
496.700	1	7
496.870	1	3
497.040	1	6
497.211	1	5
497.381	1	-6
497.551	1	4
497.721	1	-4
497.892	1	0
498.062	1	-9
498.232	1	3
498.403	1	5
498.573	1	4
498.743	1	16
498.913	1	-7
499.084	1	0
499.254	1	-8
499.424	1	0
499.594	1	10
499.765	1	-2
499.935	1	8
500.105	1	8
500.275	1	-1
500.446	1	4
500.616	1	3
500.786	1	3
500.956	1	6
501.127	1	-2
501.297	1	7
501.467	1	-1
501.638	1	5
501.808	1	8
501.978	1	1
502.148	1	5
502.319	1	1
502.489	1	11
502.659	1	1
502.829	1	8
503.000	1	14
503.170	1	6
503.340	1	8
503.510	1	-1
503.681	1	-7
503.851	1	-6
504.021	1	4
504.191	1	3
504.362	1	3
504.532	1	5
504.702	1	4
504.872	1	8
505.042	1	3
505.213	1	7
505.383	1	14
505.553	1	-9
505.723	1	5
505.894	1	1
506.064	1	4
506.234	1	-3
506.404	1	9
506.575	1	-5
506.745	1	16
506.915	1	-16
507.085	1	2
507.256	1	4
507.426	1	-2
507.596	1	1
507.766	1	2
507.936	1	2
508.107	1	4
508.277	1	15
508.447	1	4
508.617	1	-3
508.788	1	-7
508.958	1	12
509.128	1	2
509.298	1	8
509.468	1	14
509.639	1	-6
509.809	1	-1
509.979	1	-1
510.149	1	1
510.319	1	7
510.490	1	-10
510.660	1	1
510.830	1	-7
511.000	1	2
511.171	1	16
511.341	1	2
511.511	1	12
511.681	1	-2
511.851	1	-6
512.022	1	6
512.192	1	8
512.362	1	3
512.532	1	2
512.702	1	11
512.873	1	0
513.043	1	1
513.213	1	12
513.383	1	-6
513.553	1	0
513.724	1	6
513.894	1	10
514.064	1	3
514.234	1	7
514.404	1	8
514.575	1	-3
514.745	1	-1
514.915	1	-10
515.085	1	3
515.255	1	-7
515.425	1	13
515.596	1	10
515.766	1	1
515.936	1	0
516.106	1	4
516.276	1	4
516.447	1	-1
516.617	1	-1
516.787	1	-3
516.957	1	-3
517.127	1	-3
517.297	1	0
517.468	1	4
517.638	1	0
517.808	1	6
517.978	1	2
518.148	1	-2
518.319	1	2
518.489	1	12
518.659	1	-6
518.829	1	7
518.999	1	-1
519.169	1	-2
519.340	1	2
519.510	1	3
519.680	1	6
519.850	1	10
520.020	1	6
520.190	1	-9
520.361	1	-7
520.531	1	11
520.701	1	0
520.871	1	-5
521.041	1	-7
521.211	1	-4
521.382	1	2
521.552	1	2
521.722	1	1
521.892	1	1
522.062	1	0
522.232	1	8
522.402	1	-2
522.573	1	-2
522.743	1	8
522.913	1	-2
523.083	1	11
523.253	1	2
523.423	1	9
523.593	1	-3
523.764	1	-3
523.934	1	-2
524.104	1	-4
524.274	1	-3
524.444	1	0
524.614	1	9
524.784	1	-11
524.955	1	-3
525.125	1	-7
525.295	1	-1
525.465	1	-9
525.635	1	9
525.805	1	13
525.975	1	7
526.146	1	0
526.316	1	-4
526.486	1	-2
526.656	1	-2
526.826	1	2
526.996	1	-3
527.166	1	9
527.337	1	6
527.507	1	8
527.677	1	-1
527.847	1	-7
528.017	1	12
528.187	1	-4
528.357	1	-2
528.527	1	4
528.698	1	-3
528.868	1	2
529.038	1	10
529.208	1	9
529.378	1	4
529.548	1	14
529.718	1	-5
529.888	1	6
530.058	1	7
530.229	1	1
530.399	1	0
530.569	1	10
530.739	1	-3
530.909	1	1
531.079	1	6
531.249	1	-1
531.419	1	-1
531.589	1	-2
531.760	1	5
531.930	1	5
532.100	1	5
532.270	1	5
532.440	1	11
532.610	1	6
532.780	1	4
532.950	1	10
533.120	1	9
533.290	1	-1
533.461	1	-5
533.631	1	7
533.801	1	2
533.971	1	3
534.141	1	3
534.311	1	0
534.481	1	-1
534.651	1	-8
534.821	1	10
534.991	1	2
535.162	1	-7
535.332	1	-1
535.502	1	-3
535.672	1	6
535.842	1	2
536.012	1	12
536.182	1	-2
536.352	1	4
536.522	1	0
536.692	1	12
536.862	1	5
537.032	1	-3
537.203	1	-1
537.373	1	-5
537.543	1	6
537.713	1	6
537.883	1	-3
538.053	1	2
538.223	1	6
538.393	1	-10
538.563	1	-1
538.733	1	3
538.903	1	7
539.073	1	3
539.243	1	4
539.413	1	10
539.584	1	3
539.754	1	-4
539.924	1	-4
540.094	1	12
540.264	1	-7
540.434	1	-3
540.604	1	-8
540.774	1	8
540.944	1	9
541.114	1	7
541.284	1	9
541.454	1	10
541.624	1	3
541.794	1	-4
541.964	1	1
542.134	1	2
542.305	1	8
542.475	1	4
542.645	1	-7
542.815	1	9
542.985	1	14
543.155	1	8
543.325	1	10
543.495	1	-2
543.665	1	-3
543.835	1	0
544.005	1	11
544.175	1	8
544.345	1	5
544.515	1	-3
544.685	1	2
544.855	1	3
545.025	1	5
545.195	1	-6
545.365	1	7
545.535	1	-3
545.705	1	-1
545.875	1	0
546.045	1	-2
546.216	1	4
546.386	1	4
546.556	1	9
546.726	1	-6
546.896	1	1
547.066	1	-8
547.236	1	10
547.406	1	-2
547.576	1	7
547.746	1	-5
547.916	1	11
548.086	1	8
548.256	1	-1
548.426	1	9
548.596	1	3
548.766	1	10
548.936	1	-5
549.106	1	-7
549.276	1	5
549.446	1	16
549.616	1	0
549.786	1	11
549.956	1	7
550.126	1	-7
550.296	1	0
550.466	1	-5
550.636	1	-1
550.806	1	7
550.976	1	13
551.146	1	7
551.316	1	0
551.486	1	-1
551.656	1	2
551.826	1	-5
551.996	1	8
552.166	1	-4
552.336	1	7
552.506	1	7
552.676	1	3
552.846	1	-5
553.016	1	5
553.186	1	3
553.356	1	-6
553.526	1	2
553.696	1	-1
553.866	1	0
554.036	1	10
554.206	1	-4
554.376	1	5
554.546	1	-1
554.716	1	-2
554.886	1	12
555.056	1	5
555.226	1	-1
555.396	1	-2
555.566	1	-6
555.736	1	-5
555.906	1	6
556.076	1	11
556.246	1	9
556.416	1	9
556.586	1	-2
556.756	1	-1
556.926	1	-6
557.096	1	-6
557.266	1	1
557.436	1	6
557.606	1	0
557.776	1	8
557.946	1	2
558.116	1	11
558.286	1	9
558.456	1	5
558.626	1	-5
558.796	1	15
558.966	1	5
559.136	1	-3
559.306	1	6
559.476	1	-2
559.646	1	5
559.816	1	-2
559.986	1	6
560.155	1	0
560.325	1	1
560.495	1	6
560.665	1	1
560.835	1	12
561.005	1	8
561.175	1	-3
561.345	1	-1
561.515	1	8
561.685	1	4
561.855	1	2
562.025	1	-7
562.195	1	13
562.365	1	-2
562.535	1	4
562.705	1	12
562.875	1	7
563.045	1	-2
563.215	1	7
563.385	1	7
563.555	1	-1
563.725	1	5
563.895	1	1
564.064	1	1
564.234	1	-5
564.404	1	-2
564.574	1	15
564.744	1	-10
564.914	1	-6
565.084	1	-2
565.254	1	15
565.424	1	-12
565.594	1	0
565.764	1	7
565.934	1	-2
566.104	1	-3
566.274	1	13
566.444	1	3
566.614	1	6
566.783	1	10
566.953	1	-9
567.123	1	-2
567.293	1	-12
567.463	1	-4
567.633	1	3
567.803	1	1
567.973	1	8
568.143	1	4
568.313	1	12
568.483	1	11
568.653	1	-4
568.823	1	3
568.993	1	7
569.162	1	13
569.332	1	9
569.502	1	-1
569.672	1	5
569.842	1	1
570.012	1	10
570.182	1	8
570.352	1	9
570.522	1	5
570.692	1	3
570.862	1	8
571.031	1	-12
571.201	1	-7
571.371	1	-3
571.541	1	13
571.711	1	7
571.881	1	2
572.051	1	2
572.221	1	-2
572.391	1	-5
572.561	1	-9
572.731	1	15
572.900	1	4
573.070	1	2
573.240	1	5
573.410	1	6
573.580	1	-8
573.750	1	9
573.920	1	9
574.090	1	11
574.260	1	-4
574.430	1	5
574.599	1	22
574.769	1	6
574.939	1	-5
575.109	1	0
575.279	1	5
575.449	1	4
575.619	1	9
575.789	1	4
575.959	1	12
576.128	1	4
576.298	1	1
576.468	1	-1
576.638	1	9
576.808	1	0
576.978	1	12
577.148	1	11
577.318	1	6
577.487	1	6
577.657	1	11
577.827	1	1
577.997	1	7
578.167	1	-1
578.337	1	5
578.507	1	-5
578.677	1	-3
578.846	1	-9
579.016	1	13
579.186	1	0
579.356	1	12
579.526	1	13
579.696	1	-3
579.866	1	2
580.036	1	-4
580.205	1	0
580.375	1	9
580.545	1	-2
580.715	1	6
580.885	1	0
581.055	1	15
581.225	1	-4
581.394	1	7
581.564	1	-6
581.734	1	-4
581.904	1	-11
582.074	1	-5
582.244	1	1
582.414	1	5
582.583	1	-2
582.753	1	-6
582.923	1	2
583.093	1	9
583.263	1	2
583.433	1	-6
583.603	1	3
583.772	1	11
583.942	1	1
584.112	1	-6
584.282	1	11
584.452	1	10
584.622	1	5
584.791	1	6
584.961	1	5
585.131	1	10
585.301	1	12
585.471	1	-10
585.641	1	-3
585.811	1	2
585.980	1	3
586.150	1	5
586.320	1	6
586.490	1	-2
586.660	1	-8
586.830	1	8
586.999	1	0
587.169	1	-2
587.339	1	4
587.509	1	6
587.679	1	1
587.849	1	14
588.018	1	-2
588.188	1	9
588.358	1	8
588.528	1	0
588.698	1	9
588.867	1	6
589.037	1	4
589.207	1	0
589.377	1	1
589.547	1	-5
589.717	1	1
589.886	1	4
590.056	1	8
590.226	1	10
590.396	1	5
590.566	1	6
590.735	1	0
590.905	1	-10
591.075	1	-7
591.245	1	12
591.415	1	10
591.585	1	-3
591.754	1	3
591.924	1	-1
592.094	1	5
592.264	1	-5
592.434	1	-2
592.603	1	-13
592.773	1	6
592.943	1	9
593.113	1	15
593.283	1	1
593.452	1	2
593.622	1	3
593.792	1	1
593.962	1	1
594.132	1	11
594.301	1	-8
594.471	1	8
594.641	1	8
594.811	1	3
594.981	1	-2
595.150	1	8
595.320	1	1
595.490	1	7
595.660	1	-1
595.829	1	2
595.999	1	-14
596.169	1	-11
596.339	1	3
596.509	1	-3
596.678	1	5
596.848	1	10
597.018	1	1
597.188	1	5
597.358	1	5
597.527	1	11
597.697	1	-8
597.867	1	16
598.037	1	-1
598.206	1	1
598.376	1	-2
598.546	1	7
598.716	1	6
598.885	1	7
599.055	1	5
599.225	1	-7
599.395	1	9
599.565	1	-5
599.734	1	8
599.904	1	5
600.074	1	5
600.244	1	-3
600.413	1	11
600.583	1	0
600.753	1	13
600.923	1	8
601.092	1	13
601.262	1	8
601.432	1	2
601.602	1	0
601.771	1	-1
601.941	1	3
602.111	1	-8
602.281	1	5
602.451	1	2
602.620	1	4
602.790	1	-6
602.960	1	10
603.130	1	-1
603.299	1	6
603.469	1	-8
603.639	1	-10
603.809	1	2
603.978	1	12
604.148	1	7
604.318	1	0
604.487	1	1
604.657	1	18
604.827	1	6
604.997	1	4
605.166	1	-3
605.336	1	0
605.506	1	8
605.676	1	9
605.845	1	11
606.015	1	10
606.185	1	8
606.355	1	6
606.524	1	8
606.694	1	-1
606.864	1	4
607.034	1	2
607.203	1	10
607.373	1	-3
607.543	1	6
607.712	1	24
607.882	1	5
608.052	1	-1
608.222	1	1
608.391	1	9
608.561	1	4
608.731	1	14
608.901	1	2
609.070	1	-3
609.240	1	2
609.410	1	7
609.579	1	-3
609.749	1	5
609.919	1	-2
610.089	1	10
610.258	1	3
610.428	1	9
610.598	1	18
610.767	1	2
610.937	1	0
611.107	1	-1
611.277	1	-2
611.446	1	6
611.616	1	3
611.786	1	7
611.955	1	-5
612.125	1	1
612.295	1	9
612.465	1	-2
612.634	1	0
612.804	1	10
612.974	1	-2
613.143	1	0
613.313	1	3
613.483	1	-4
613.652	1	14
613.822	1	16
613.992	1	-3
614.162	1	-3
614.331	1	1
614.501	1	-4
614.671	1	0
614.840	1	7
615.010	1	8
615.180	1	1
615.349	1	-1
615.519	1	2
615.689	1	10
615.858	1	-4
616.028	1	6
616.198	1	8
616.368	1	6
616.537	1	5
616.707	1	1
616.877	1	-4
617.046	1	6
617.216	1	2
617.386	1	-4
617.555	1	5
617.725	1	-10
617.895	1	21
618.064	1	9
618.234	1	4
618.404	1	8
618.573	1	7
618.743	1	0
618.913	1	11
619.082	1	5
619.252	1	11
619.422	1	13
619.591	1	3
619.761	1	8
619.931	1	-9
620.100	1	3
620.270	1	-1
620.440	1	3
620.609	1	7
620.779	1	-3
620.949	1	-2
621.118	1	1
621.288	1	2
621.458	1	2
621.627	1	10
621.797	1	14
621.967	1	3
622.136	1	3
622.306	1	11
622.476	1	8
622.645	1	9
622.815	1	-2
622.985	1	-6
623.154	1	1
623.324	1	14
623.494	1	4
623.663	1	5
623.833	1	1
624.002	1	-5
624.172	1	5
624.342	1	-4
624.511	1	-2
624.681	1	7
624.851	1	5
625.020	1	1
625.190	1	11
625.360	1	4
625.529	1	6
625.699	1	4
625.869	1	3
626.038	1	14
626.208	1	8
626.377	1	6
626.547	1	-2
626.717	1	-4
626.886	1	8
627.056	1	6
627.226	1	3
627.395	1	5
627.565	1	2
627.735	1	-3
627.904	1	7
628.074	1	-2
628.243	1	-11
628.413	1	-5
628.583	1	7
628.752	1	3
628.922	1	7
629.091	1	1
629.261	1	-5
629.431	1	-1
629.600	1	-2
629.770	1	-5
629.940	1	-3
630.109	1	4
630.279	1	0
630.448	1	5
630.618	1	-1
630.788	1	12
630.957	1	7
631.127	1	5
631.297	1	0
631.466	1	0
631.636	1	6
631.805	1	1
631.975	1	0
632.145	1	5
632.314	1	-1
632.484	1	7
632.653	1	6
632.823	1	2
632.993	1	12
633.162	1	6
633.332	1	3
633.501	1	0
633.671	1	3
633.841	1	7
634.010	1	5
634.180	1	3
634.349	1	1
634.519	1	-1
634.689	1	10
634.858	1	4
635.028	1	-7
635.197	1	5
635.367	1	0
635.537	1	18
635.706	1	4
635.876	1	-1
636.045	1	13
636.215	1	4
636.384	1	9
636.554	1	6
636.724	1	4
636.893	1	10
637.063	1	-10
637.232	1	5
637.402	1	0
637.572	1	4
637.741	1	10
637.911	1	5
638.080	1	2
638.250	1	-4
638.419	1	17
638.589	1	-8
638.759	1	-4
638.928	1	9
639.098	1	14
639.267	1	4
639.437	1	-1
639.606	1	7
639.776	1	9
639.946	1	3
640.115	1	-6
640.285	1	-6
640.454	1	12
640.624	1	2
640.793	1	-3
640.963	1	4
641.132	1	-2
641.302	1	2
641.472	1	10
641.641	1	2
641.811	1	-5
641.980	1	-9
642.150	1	-1
642.319	1	9
642.489	1	-14
642.659	1	12
642.828	1	4
642.998	1	6
643.167	1	5
643.337	1	-4
643.506	1	3
643.676	1	3
643.845	1	-2
644.015	1	-13
644.184	1	1
644.354	1	3
644.524	1	8
644.693	1	-1
644.863	1	8
645.032	1	14
645.202	1	-4
645.371	1	2
645.541	1	-5
645.710	1	0
645.880	1	2
646.049	1	-11
646.219	1	9
646.388	1	1
646.558	1	5
646.728	1	3
646.897	1	16
647.067	1	2
647.236	1	1
647.406	1	5
647.575	1	-8
647.745	1	-7
647.914	1	6
648.084	1	9
648.253	1	3
648.423	1	-1
648.592	1	5
648.762	1	20
648.931	1	10
649.101	1	-2
649.270	1	0
649.440	1	10
649.610	1	1
649.779	1	7
649.949	1	-5
650.118	1	0
650.288	1	-1
650.457	1	-8
650.627	1	4
650.796	1	1
650.966	1	11
651.135	1	-8
651.305	1	10
651.474	1	13
651.644	1	1
651.813	1	-5
651.983	1	-13
652.152	1	3
652.322	1	3
652.491	1	5
652.661	1	1
652.830	1	11
653.000	1	7
653.169	1	-2
653.339	1	0
653.508	1	5
653.678	1	15
653.847	1	-7
654.017	1	6
654.186	1	14
654.356	1	-2
654.525	1	7
654.695	1	10
654.864	1	0
655.034	1	5
655.203	1	8
655.373	1	11
655.542	1	9
655.712	1	-18
655.881	1	7
656.051	1	3
656.220	1	5
656.390	1	13
656.559	1	14
656.729	1	-1
656.898	1	-6
657.068	1	0
657.237	1	-6
657.406	1	6
657.576	1	0
657.745	1	18
657.915	1	9
658.084	1	1
658.254	1	-4
658.423	1	1
658.593	1	3
658.762	1	10
658.932	1	11
659.101	1	-7
659.271	1	5
659.440	1	11
659.610	1	1
659.779	1	9
659.949	1	1
660.118	1	5
660.288	1	9
660.457	1	2
660.626	1	5
660.796	1	-1
660.965	1	3
661.135	1	9
661.304	1	18
661.474	1	-3
661.643	1	3
661.813	1	-23
661.982	1	8
662.152	1	9
662.321	1	2
662.491	1	4
662.660	1	0
662.829	1	9
662.999	1	2
663.168	1	7
663.338	1	5
663.507	1	5
663.677	1	2
663.846	1	-8
664.016	1	9
664.185	1	4
664.354	1	-8
664.524	1	9
664.693	1	6
664.863	1	16
665.032	1	-6
665.202	1	3
665.371	1	2
665.541	1	-2
665.710	1	-7
665.879	1	4
666.049	1	1
666.218	1	-8
666.388	1	4
666.557	1	-12
666.727	1	1
666.896	1	-1
667.065	1	3
667.235	1	4
667.404	1	5
667.574	1	-2
667.743	1	-1
667.913	1	9
668.082	1	7
668.251	1	3
668.421	1	10
668.590	1	-10
668.760	1	3
668.929	1	-8
669.099	1	-10
669.268	1	-1
669.437	1	5
669.607	1	-8
669.776	1	10
669.946	1	-9
670.115	1	1
670.285	1	3
670.454	1	7
670.623	1	2
670.793	1	1
670.962	1	-1
671.132	1	4
671.301	1	-5
671.470	1	2
671.640	1	5
671.809	1	-1
671.979	1	4
672.148	1	4
672.317	1	9
672.487	1	6
672.656	1	4
672.826	1	4
672.995	1	10
673.164	1	-1
673.334	1	2
673.503	1	2
673.673	1	2
673.842	1	1
674.011	1	3
674.181	1	4
674.350	1	9
674.520	1	3
674.689	1	16
674.858	1	0
675.028	1	5
675.197	1	1
675.367	1	5
675.536	1	5
675.705	1	-5
675.875	1	1
676.044	1	12
676.214	1	6
676.383	1	22
676.552	1	2
676.722	1	14
676.891	1	1
677.060	1	17
677.230	1	-6
677.399	1	13
677.569	1	-13
677.738	1	-9
677.907	1	0
678.077	1	11
678.246	1	1
678.416	1	7
678.585	1	2
678.754	1	8
678.924	1	4
679.093	1	-3
679.262	1	1
679.432	1	1
679.601	1	3
679.771	1	6
679.940	1	2
680.109	1	4
680.279	1	6
680.448	1	4
680.617	1	-3
680.787	1	-2
680.956	1	8
681.125	1	-2
681.295	1	4
681.464	1	7
681.634	1	5
681.803	1	9
681.972	1	-5
682.142	1	2
682.311	1	1
682.480	1	0
682.650	1	3
682.819	1	-1
682.988	1	10
683.158	1	4
683.327	1	8
683.496	1	2
683.666	1	1
683.835	1	-5
684.004	1	6
684.174	1	0
684.343	1	9
684.512	1	5
684.682	1	0
684.851	1	7
685.021	1	9
685.190	1	-13
685.359	1	-4
685.529	1	-7
685.698	1	-1
685.867	1	14
686.037	1	-1
686.206	1	8
686.375	1	2
686.545	1	-7
686.714	1	2
686.883	1	5
687.053	1	1
687.222	1	13
687.391	1	-2
687.561	1	0
687.730	1	6
687.899	1	11
688.069	1	-6
688.238	1	1
688.407	1	6
688.577	1	1
688.746	1	-1
