325.333	1	15
325.504	1	5
325.675	1	-2
325.846	1	8
326.017	1	13
326.188	1	8
326.359	1	-1
326.531	1	8
326.702	1	6
326.873	1	15
327.044	1	16
327.215	1	2
327.386	1	2
327.557	1	3
327.728	1	13
327.899	1	9
328.070	1	5
328.241	1	11
328.412	1	10
328.583	1	9
328.754	1	9
328.926	1	10
329.097	1	1
329.268	1	8
329.439	1	2
329.610	1	9
329.781	1	-6
329.952	1	9
330.123	1	5
330.294	1	-4
330.465	1	3
330.636	1	16
330.807	1	8
330.978	1	6
331.149	1	19
331.320	1	11
331.492	1	4
331.663	1	12
331.834	1	7
332.005	1	6
332.176	1	8
332.347	1	13
332.518	1	10
332.689	1	12
332.860	1	5
333.031	1	10
333.202	1	-4
333.373	1	1
333.544	1	8
333.715	1	15
333.886	1	0
334.057	1	5
334.228	1	17
334.399	1	21
334.570	1	14
334.741	1	4
334.912	1	8
335.084	1	2
335.255	1	4
335.426	1	6
335.597	1	11
335.768	1	18
335.939	1	11
336.110	1	11
336.281	1	9
336.452	1	11
336.623	1	7
336.794	1	4
336.965	1	13
337.136	1	0
337.307	1	5
337.478	1	6
337.649	1	10
337.820	1	4
337.991	1	5
338.162	1	6
338.333	1	6
338.504	1	2
338.675	1	8
338.846	1	10
339.017	1	21
339.188	1	2
339.359	1	12
339.530	1	17
339.701	1	4
339.872	1	17
340.043	1	-5
340.214	1	2
340.385	1	1
340.556	1	14
340.727	1	3
340.898	1	17
341.069	1	11
341.240	1	13
341.411	1	-2
341.582	1	20
341.753	1	4
341.924	1	8
342.095	1	17
342.266	1	7
342.437	1	19
342.608	1	11
342.779	1	4
342.950	1	6
343.121	1	19
343.292	1	12
343.463	1	7
343.634	1	6
343.805	1	12
343.976	1	14
344.147	1	10
344.318	1	8
344.489	1	10
344.660	1	7
344.831	1	14
345.002	1	13
345.173	1	0
345.344	1	7
345.515	1	8
345.686	1	15
345.857	1	15
346.028	1	12
346.199	1	-7
346.370	1	7
346.541	1	-2
346.712	1	0
346.883	1	12
347.054	1	7
347.225	1	13
347.396	1	6
347.567	1	14
347.738	1	8
347.909	1	2
348.080	1	11
348.251	1	5
348.422	1	12
348.593	1	11
348.764	1	8
348.935	1	2
349.106	1	14
349.277	1	6
349.448	1	7
349.619	1	6
349.790	1	13
349.961	1	13
350.132	1	6
350.303	1	17
350.474	1	8
350.645	1	13
350.816	1	15
350.987	1	16
351.157	1	21
351.328	1	14
351.499	1	5
351.670	1	3
351.841	1	11
352.012	1	21
352.183	1	-1
352.354	1	-5
352.525	1	10
352.696	1	21
352.867	1	11
353.038	1	-2
353.209	1	0
353.380	1	6
353.551	1	2
353.722	1	15
353.893	1	6
354.064	1	9
354.235	1	5
354.406	1	4
354.576	1	12
354.747	1	5
354.918	1	12
355.089	1	0
355.260	1	15
355.431	1	0
355.602	1	10
355.773	1	6
355.944	1	6
356.115	1	11
356.286	1	8
356.457	1	9
356.628	1	10
356.799	1	11
356.970	1	12
357.141	1	-5
357.311	1	16
357.482	1	14
357.653	1	14
357.824	1	5
357.995	1	6
358.166	1	1
358.337	1	11
358.508	1	14
358.679	1	9
358.850	1	8
359.021	1	9
359.192	1	18
359.363	1	10
359.533	1	-6
359.704	1	10
359.875	1	16
360.046	1	12
360.217	1	10
360.388	1	17
360.559	1	14
360.730	1	1
360.901	1	4
361.072	1	16
361.243	1	10
361.414	1	10
361.584	1	-1
361.755	1	7
361.926	1	15
362.097	1	11
362.268	1	6
362.439	1	-4
362.610	1	9
362.781	1	0
362.952	1	15
363.123	1	9
363.293	1	11
363.464	1	12
363.635	1	13
363.806	1	-3
363.977	1	3
364.148	1	4
364.319	1	9
364.490	1	10
364.661	1	9
364.832	1	15
365.002	1	15
365.173	1	-2
365.344	1	21
365.515	1	-1
365.686	1	0
365.857	1	2
366.028	1	4
366.199	1	5
366.370	1	12
366.540	1	6
366.711	1	9
366.882	1	5
367.053	1	8
367.224	1	5
367.395	1	6
367.566	1	5
367.737	1	7
367.908	1	8
368.078	1	14
368.249	1	7
368.420	1	10
368.591	1	16
368.762	1	4
368.933	1	-7
369.104	1	17
369.274	1	5
369.445	1	8
369.616	1	15
369.787	1	18
369.958	1	3
370.129	1	-2
370.300	1	10
370.471	1	0
370.641	1	8
370.812	1	8
370.983	1	8
371.154	1	6
371.325	1	2
371.496	1	14
371.667	1	10
371.837	1	11
372.008	1	-6
372.179	1	7
372.350	1	1
372.521	1	0
372.692	1	11
372.863	1	6
373.033	1	16
373.204	1	6
373.375	1	13
373.546	1	17
373.717	1	-2
373.888	1	14
374.059	1	8
374.229	1	1
374.400	1	3
374.571	1	10
374.742	1	10
374.913	1	15
375.084	1	4
375.254	1	14
375.425	1	1
375.596	1	13
375.767	1	4
375.938	1	8
376.109	1	9
376.279	1	3
376.450	1	14
376.621	1	7
376.792	1	2
376.963	1	7
377.134	1	10
377.304	1	11
377.475	1	6
377.646	1	4
377.817	1	-5
377.988	1	1
378.159	1	27
378.329	1	7
378.500	1	16
378.671	1	10
378.842	1	8
379.013	1	3
379.184	1	-1
379.354	1	5
379.525	1	17
379.696	1	4
379.867	1	15
380.038	1	14
380.209	1	9
380.379	1	10
380.550	1	11
380.721	1	3
380.892	1	2
381.063	1	9
381.233	1	12
381.404	1	6
381.575	1	18
381.746	1	7
381.917	1	15
382.087	1	26
382.258	1	23
382.429	1	11
382.600	1	14
382.771	1	18
382.941	1	18
383.112	1	8
383.283	1	22
383.454	1	0
383.625	1	2
383.795	1	8
383.966	1	4
384.137	1	22
384.308	1	5
384.479	1	10
384.649	1	13
384.820	1	28
384.991	1	7
385.162	1	6
385.333	1	15
385.503	1	8
385.674	1	4
385.845	1	3
386.016	1	11
386.187	1	10
386.357	1	15
386.528	1	8
386.699	1	9
386.870	1	7
387.041	1	20
387.211	1	14
387.382	1	6
387.553	1	12
387.724	1	20
387.894	1	2
388.065	1	10
388.236	1	6
388.407	1	14
388.578	1	6
388.748	1	7
388.919	1	5
389.090	1	17
389.261	1	10
389.431	1	11
389.602	1	24
389.773	1	18
389.944	1	28
390.114	1	22
390.285	1	11
390.456	1	3
390.627	1	8
390.798	1	1
390.968	1	20
391.139	1	14
391.310	1	11
391.481	1	16
391.651	1	15
391.822	1	8
391.993	1	12
392.164	1	17
392.334	1	1
392.505	1	15
392.676	1	19
392.847	1	12
393.017	1	17
393.188	1	16
393.359	1	15
393.530	1	19
393.700	1	4
393.871	1	8
394.042	1	11
394.213	1	9
394.383	1	12
394.554	1	21
394.725	1	9
394.896	1	8
395.066	1	12
395.237	1	19
395.408	1	23
395.579	1	11
395.749	1	12
395.920	1	7
396.091	1	17
396.262	1	7
396.432	1	13
396.603	1	16
396.774	1	9
396.945	1	5
397.115	1	10
397.286	1	7
397.457	1	9
397.627	1	14
397.798	1	13
397.969	1	19
398.140	1	16
398.310	1	16
398.481	1	12
398.652	1	8
398.823	1	16
398.993	1	7
399.164	1	14
399.335	1	13
399.505	1	7
399.676	1	14
399.847	1	17
400.018	1	24
400.188	1	8
400.359	1	11
400.530	1	18
400.700	1	9
400.871	1	15
401.042	1	7
401.213	1	7
401.383	1	9
401.554	1	8
401.725	1	10
401.895	1	8
402.066	1	11
402.237	1	16
402.408	1	14
402.578	1	8
402.749	1	5
402.920	1	11
403.090	1	20
403.261	1	24
403.432	1	14
403.603	1	4
403.773	1	25
403.944	1	13
404.115	1	10
404.285	1	11
404.456	1	13
404.627	1	10
404.797	1	5
404.968	1	19
405.139	1	18
405.310	1	25
405.480	1	23
405.651	1	9
405.822	1	12
405.992	1	11
406.163	1	25
406.334	1	23
406.504	1	22
406.675	1	28
406.846	1	18
407.016	1	15
407.187	1	14
407.358	1	19
407.528	1	3
407.699	1	-1
407.870	1	22
408.041	1	26
408.211	1	18
408.382	1	23
408.553	1	14
408.723	1	18
408.894	1	5
409.065	1	8
409.235	1	15
409.406	1	3
409.577	1	12
409.747	1	15
409.918	1	17
410.089	1	22
410.259	1	14
410.430	1	21
410.601	1	19
410.771	1	9
410.942	1	11
411.113	1	15
411.283	1	20
411.454	1	22
411.625	1	21
411.795	1	11
411.966	1	37
412.137	1	22
412.307	1	15
412.478	1	21
412.649	1	15
412.819	1	14
412.990	1	21
413.161	1	16
413.331	1	14
413.502	1	28
413.672	1	21
413.843	1	17
414.014	1	20
414.184	1	11
414.355	1	18
414.526	1	23
414.696	1	15
414.867	1	16
415.038	1	16
415.208	1	17
415.379	1	28
415.550	1	24
415.720	1	9
415.891	1	16
416.062	1	25
416.232	1	6
416.403	1	18
416.573	1	23
416.744	1	19
416.915	1	25
417.085	1	21
417.256	1	12
417.427	1	15
417.597	1	30
417.768	1	20
417.939	1	17
418.109	1	8
418.280	1	13
418.450	1	15
418.621	1	17
418.792	1	7
418.962	1	11
419.133	1	14
419.304	1	10
419.474	1	13
419.645	1	20
419.815	1	25
419.986	1	22
420.157	1	20
420.327	1	12
420.498	1	15
420.669	1	15
420.839	1	22
421.010	1	15
421.180	1	16
421.351	1	17
421.522	1	16
421.692	1	27
421.863	1	17
422.033	1	14
422.204	1	26
422.375	1	15
422.545	1	15
422.716	1	14
422.886	1	4
423.057	1	18
423.228	1	18
423.398	1	19
423.569	1	18
423.740	1	20
423.910	1	19
424.081	1	17
424.251	1	18
424.422	1	11
424.593	1	17
424.763	1	21
424.934	1	18
425.104	1	8
425.275	1	26
425.445	1	8
425.616	1	20
425.787	1	12
425.957	1	12
426.128	1	12
426.298	1	20
426.469	1	8
426.640	1	16
426.810	1	25
426.981	1	26
427.151	1	14
427.322	1	23
427.493	1	18
427.663	1	28
427.834	1	25
428.004	1	18
428.175	1	20
428.345	1	15
428.516	1	23
428.687	1	27
428.857	1	11
429.028	1	14
429.198	1	23
429.369	1	16
429.540	1	15
429.710	1	16
429.881	1	14
430.051	1	23
430.222	1	26
430.392	1	12
430.563	1	19
430.734	1	20
430.904	1	12
431.075	1	13
431.245	1	21
431.416	1	17
431.586	1	1
431.757	1	7
431.927	1	28
432.098	1	4
432.269	1	17
432.439	1	20
432.610	1	30
432.780	1	13
432.951	1	22
433.121	1	22
433.292	1	12
433.462	1	13
433.633	1	7
433.804	1	11
433.974	1	15
434.145	1	20
434.315	1	13
434.486	1	24
434.656	1	24
434.827	1	16
434.997	1	19
435.168	1	24
435.339	1	9
435.509	1	18
435.680	1	15
435.850	1	12
436.021	1	24
436.191	1	22
436.362	1	16
436.532	1	22
436.703	1	10
436.873	1	19
437.044	1	10
437.214	1	-1
437.385	1	22
437.556	1	17
437.726	1	14
437.897	1	24
438.067	1	6
438.238	1	17
438.408	1	10
438.579	1	24
438.749	1	2
438.920	1	21
439.090	1	12
439.261	1	14
439.431	1	16
439.602	1	12
439.772	1	15
439.943	1	23
440.113	1	26
440.284	1	14
440.455	1	10
440.625	1	26
440.796	1	18
440.966	1	-3
441.137	1	8
441.307	1	13
441.478	1	10
441.648	1	13
441.819	1	17
441.989	1	23
442.160	1	10
442.330	1	13
442.501	1	26
442.671	1	15
442.842	1	12
443.012	1	22
443.183	1	18
443.353	1	18
443.524	1	15
443.694	1	11
443.865	1	21
444.035	1	5
444.206	1	23
444.376	1	6
444.547	1	26
444.717	1	11
444.888	1	18
445.058	1	12
445.229	1	7
445.399	1	16
445.570	1	7
445.740	1	14
445.911	1	21
446.081	1	22
446.252	1	21
446.422	1	11
446.593	1	12
446.763	1	6
446.934	1	14
447.104	1	14
447.275	1	17
447.445	1	17
447.616	1	18
447.786	1	21
447.957	1	13
448.127	1	19
448.298	1	19
448.468	1	4
448.639	1	16
448.809	1	6
448.979	1	1
449.150	1	15
449.320	1	13
449.491	1	18
449.661	1	27
449.832	1	13
450.002	1	15
450.173	1	11
450.343	1	15
450.514	1	13
450.684	1	15
450.855	1	17
451.025	1	4
451.196	1	18
451.366	1	26
451.537	1	14
451.707	1	14
451.878	1	7
452.048	1	17
452.218	1	17
452.389	1	17
452.559	1	2
452.730	1	15
452.900	1	15
453.071	1	3
453.241	1	19
453.412	1	13
453.582	1	12
453.753	1	9
453.923	1	13
454.093	1	23
454.264	1	23
454.434	1	13
454.605	1	25
454.775	1	13
454.946	1	25
455.116	1	17
455.287	1	3
455.457	1	14
455.628	1	15
455.798	1	21
455.968	1	13
456.139	1	4
456.309	1	12
456.480	1	18
456.650	1	23
456.821	1	33
456.991	1	16
457.161	1	7
457.332	1	11
457.502	1	13
457.673	1	12
457.843	1	15
458.014	1	10
458.184	1	13
458.355	1	14
458.525	1	6
458.695	1	8
458.866	1	12
459.036	1	15
459.207	1	0
459.377	1	19
459.548	1	8
459.718	1	6
459.888	1	24
460.059	1	11
460.229	1	-1
460.400	1	22
460.570	1	18
460.740	1	14
460.911	1	14
461.081	1	6
461.252	1	27
461.422	1	11
461.593	1	0
461.763	1	17
461.933	1	12
462.104	1	21
462.274	1	19
462.445	1	11
462.615	1	10
462.785	1	-2
462.956	1	7
463.126	1	4
463.297	1	12
463.467	1	12
463.638	1	5
463.808	1	13
463.978	1	11
464.149	1	23
464.319	1	4
464.490	1	21
464.660	1	6
464.830	1	4
465.001	1	18
465.171	1	17
465.342	1	19
465.512	1	12
465.682	1	13
465.853	1	4
466.023	1	11
466.194	1	14
466.364	1	13
466.534	1	17
466.705	1	22
466.875	1	15
467.045	1	5
467.216	1	12
467.386	1	16
467.557	1	2
467.727	1	8
467.897	1	9
468.068	1	13
468.238	1	5
468.409	1	3
468.579	1	-1
468.749	1	8
468.920	1	5
469.090	1	12
469.260	1	0
469.431	1	14
469.601	1	14
469.772	1	9
469.942	1	22
470.112	1	11
470.283	1	5
470.453	1	22
470.623	1	13
470.794	1	23
470.964	1	1
471.135	1	7
471.305	1	8
471.475	1	6
471.646	1	8
471.816	1	4
471.986	1	6
472.157	1	9
472.327	1	18
472.497	1	-3
472.668	1	-1
472.838	1	9
473.009	1	26
473.179	1	8
473.349	1	12
473.520	1	7
473.690	1	13
473.860	1	0
474.031	1	9
474.201	1	9
474.371	1	-1
474.542	1	9
474.712	1	-2
474.882	1	25
475.053	1	11
475.223	1	13
475.394	1	6
475.564	1	3
475.734	1	3
475.905	1	14
476.075	1	2
476.245	1	10
476.416	1	9
476.586	1	17
476.756	1	9
476.927	1	2
477.097	1	9
477.267	1	16
477.438	1	-5
477.608	1	4
477.778	1	16
477.949	1	8
478.119	1	14
478.289	1	12
478.460	1	11
478.630	1	9
478.800	1	0
478.971	1	16
479.141	1	8
479.311	1	3
479.482	1	11
479.652	1	12
479.822	1	4
479.993	1	5
480.163	1	9
480.333	1	15
480.504	1	9
480.674	1	13
480.844	1	8
481.015	1	2
481.185	1	16
481.355	1	8
481.525	1	12
481.696	1	12
481.866	1	0
482.036	1	-1
482.207	1	-3
482.377	1	6
482.547	1	13
482.718	1	14
482.888	1	9
483.058	1	4
483.229	1	9
483.399	1	5
483.569	1	11
483.740	1	-3
483.910	1	-3
484.080	1	7
484.250	1	19
484.421	1	10
484.591	1	7
484.761	1	5
484.932	1	11
485.102	1	11
485.272	1	8
485.443	1	3
485.613	1	17
485.783	1	4
485.953	1	9
486.124	1	-2
486.294	1	9
486.464	1	11
486.635	1	8
486.805	1	6
486.975	1	2
487.146	1	4
487.316	1	17
487.486	1	4
487.656	1	-4
487.827	1	11
487.997	1	12
488.167	1	9
488.338	1	-9
488.508	1	10
488.678	1	8
488.848	1	9
489.019	1	5
489.189	1	13
489.359	1	6
489.529	1	0
489.700	1	-2
489.870	1	7
490.040	1	-5
490.211	1	-1
490.381	1	2
490.551	1	5
490.721	1	15
490.892	1	17
491.062	1	-2
491.232	1	-1
491.402	1	1
491.573	1	9
491.743	1	7
491.913	1	9
492.084	1	4
492.254	1	20
492.424	1	3
492.594	1	18
492.765	1	12
492.935	1	3
493.105	1	7
493.275	1	-4
493.446	1	8
493.616	1	2
493.786	1	10
493.956	1	11
494.127	1	6
494.297	1	12
494.467	1	13
494.637	1	1
494.808	1	2
494.978	1	2
495.148	1	12
495.318	1	-11
495.489	1	-2
495.659	1	9
495.829	1	10
495.999	1	15
496.170	1	8
496.340	1	8
496.510	1	3
496.680	1	1
496.851	1	4
497.021	1	3
497.191	1	4
497.361	1	9
497.532	1	5
497.702	1	11
497.872	1	7
498.042	1	11
498.213	1	4
498.383	1	10
498.553	1	-1
498.723	1	-4
498.894	1	-2
499.064	1	10
499.234	1	5
499.404	1	8
499.574	1	8
499.745	1	4
499.915	1	-2
500.085	1	2
500.255	1	3
500.426	1	4
500.596	1	7
500.766	1	0
500.936	1	3
501.106	1	8
501.277	1	10
501.447	1	1
501.617	1	7
501.787	1	7
501.958	1	9
502.128	1	10
502.298	1	8
502.468	1	2
502.638	1	-4
502.809	1	6
502.979	1	0
503.149	1	7
503.319	1	3
503.489	1	-5
503.660	1	6
503.830	1	0
504.000	1	8
504.170	1	11
504.340	1	12
504.511	1	6
504.681	1	11
504.851	1	4
505.021	1	2
505.192	1	2
505.362	1	5
505.532	1	3
505.702	1	-3
505.872	1	8
506.043	1	0
506.213	1	5
506.383	1	6
506.553	1	-6
506.723	1	5
506.893	1	0
507.064	1	8
507.234	1	0
507.404	1	14
507.574	1	-3
507.744	1	8
507.915	1	-2
508.085	1	-3
508.255	1	5
508.425	1	3
508.595	1	2
508.766	1	-3
508.936	1	18
509.106	1	2
509.276	1	10
509.446	1	6
509.616	1	4
509.787	1	4
509.957	1	11
510.127	1	-4
510.297	1	-4
510.467	1	12
510.638	1	8
510.808	1	-5
510.978	1	6
511.148	1	14
511.318	1	-1
511.488	1	17
511.659	1	4
511.829	1	13
511.999	1	-5
512.169	1	-4
512.339	1	0
512.509	1	3
512.680	1	1
512.850	1	3
513.020	1	14
513.190	1	1
513.360	1	3
513.530	1	8
513.700	1	5
513.871	1	6
514.041	1	-2
514.211	1	-1
514.381	1	14
514.551	1	3
514.721	1	2
514.892	1	8
515.062	1	11
515.232	1	7
515.402	1	3
515.572	1	9
515.742	1	7
515.912	1	6
516.083	1	11
516.253	1	3
516.423	1	-9
516.593	1	0
516.763	1	6
516.933	1	14
517.104	1	1
517.274	1	11
517.444	1	-8
517.614	1	-3
517.784	1	-3
517.954	1	-6
518.124	1	9
518.294	1	7
518.465	1	3
518.635	1	2
518.805	1	3
518.975	1	1
519.145	1	6
519.315	1	0
519.485	1	-1
519.656	1	4
519.826	1	3
519.996	1	2
520.166	1	-4
520.336	1	-2
520.506	1	5
520.676	1	15
520.846	1	1
521.017	1	4
521.187	1	-6
521.357	1	3
521.527	1	2
521.697	1	-1
521.867	1	5
522.037	1	5
522.207	1	7
522.377	1	3
522.548	1	4
522.718	1	10
522.888	1	3
523.058	1	6
523.228	1	-9
523.398	1	7
523.568	1	1
523.738	1	-5
523.909	1	5
524.079	1	5
524.249	1	-1
524.419	1	12
524.589	1	1
524.759	1	8
524.929	1	-3
525.099	1	-1
525.269	1	-3
525.439	1	9
525.610	1	-4
525.780	1	2
525.950	1	9
526.120	1	5
526.290	1	3
526.460	1	12
526.630	1	1
526.800	1	4
526.970	1	8
527.140	1	9
527.311	1	11
527.481	1	-2
527.651	1	5
527.821	1	4
527.991	1	-2
528.161	1	-4
528.331	1	-2
528.501	1	-9
528.671	1	10
528.841	1	18
529.011	1	-5
529.181	1	10
529.352	1	6
529.522	1	6
529.692	1	-6
529.862	1	-8
530.032	1	1
530.202	1	8
530.372	1	4
530.542	1	0
530.712	1	19
530.882	1	10
531.052	1	4
531.222	1	-2
531.392	1	1
531.563	1	10
531.733	1	0
531.903	1	13
532.073	1	-3
532.243	1	14
532.413	1	-3
532.583	1	9
532.753	1	2
532.923	1	2
533.093	1	1
533.263	1	5
533.433	1	8
533.603	1	-7
533.773	1	-2
533.943	1	-7
534.113	1	13
534.284	1	-2
534.454	1	6
534.624	1	14
534.794	1	11
534.964	1	8
535.134	1	12
535.304	1	9
535.474	1	6
535.644	1	8
535.814	1	1
535.984	1	11
536.154	1	7
536.324	1	-1
536.494	1	1
536.664	1	-1
536.834	1	5
537.004	1	4
537.174	1	5
537.344	1	7
537.514	1	-3
537.685	1	4
537.855	1	2
538.025	1	6
538.195	1	5
538.365	1	4
538.535	1	-4
538.705	1	-7
538.875	1	-2
539.045	1	0
539.215	1	4
539.385	1	-7
539.555	1	5
539.725	1	9
539.895	1	2
540.065	1	-6
540.235	1	0
540.405	1	-14
540.575	1	3
540.745	1	5
540.915	1	-2
541.085	1	-1
541.255	1	6
541.425	1	-5
541.595	1	3
541.765	1	3
541.935	1	4
542.105	1	-1
542.275	1	6
542.445	1	7
542.615	1	-1
542.785	1	1
542.955	1	-5
543.125	1	-8
543.295	1	-1
543.465	1	-3
543.635	1	-3
543.805	1	-4
543.975	1	-5
544.145	1	10
544.315	1	4
544.485	1	5
544.655	1	0
544.825	1	2
544.995	1	8
545.165	1	7
545.335	1	-5
545.505	1	-3
545.675	1	-13
545.845	1	1
546.015	1	2
546.185	1	-2
546.355	1	-4
546.525	1	-9
546.695	1	-2
546.865	1	5
547.035	1	-1
547.205	1	8
547.375	1	11
547.545	1	-7
547.715	1	-2
547.885	1	2
548.055	1	-2
548.225	1	7
548.395	1	-10
548.565	1	7
548.735	1	-2
548.905	1	0
549.075	1	8
549.245	1	9
549.415	1	5
549.585	1	-2
549.755	1	2
549.925	1	-10
550.095	1	5
550.265	1	6
550.435	1	-8
550.605	1	7
550.775	1	11
550.945	1	-1
551.115	1	10
551.285	1	3
551.455	1	3
551.625	1	-9
551.795	1	-6
551.965	1	1
552.135	1	6
552.305	1	-2
552.475	1	-1
552.645	1	-5
552.815	1	2
552.985	1	-4
553.155	1	2
553.325	1	-8
553.495	1	3
553.665	1	-5
553.835	1	7
554.004	1	11
554.174	1	0
554.344	1	0
554.514	1	6
554.684	1	-7
554.854	1	-12
555.024	1	3
555.194	1	-1
555.364	1	7
555.534	1	-4
555.704	1	8
555.874	1	1
556.044	1	3
556.214	1	3
556.384	1	-3
556.554	1	5
556.724	1	3
556.894	1	-6
557.064	1	7
557.234	1	-9
557.404	1	5
557.573	1	-1
557.743	1	1
557.913	1	13
558.083	1	-4
558.253	1	2
558.423	1	-1
558.593	1	2
558.763	1	7
558.933	1	6
559.103	1	4
559.273	1	1
559.443	1	0
559.613	1	2
559.783	1	-9
559.953	1	0
560.122	1	4
560.292	1	12
560.462	1	3
560.632	1	-6
560.802	1	2
560.972	1	-6
561.142	1	-3
561.312	1	7
561.482	1	-2
561.652	1	-2
561.822	1	-5
561.992	1	-6
562.162	1	9
562.331	1	4
562.501	1	-3
562.671	1	5
562.841	1	-4
563.011	1	2
563.181	1	5
563.351	1	5
563.521	1	13
563.691	1	7
563.861	1	6
564.031	1	-2
564.201	1	11
564.370	1	-3
564.540	1	9
564.710	1	9
564.880	1	4
565.050	1	0
565.220	1	-2
565.390	1	8
565.560	1	7
565.730	1	3
565.900	1	-6
566.069	1	3
566.239	1	3
566.409	1	-5
566.579	1	7
566.749	1	-3
566.919	1	-8
567.089	1	-2
567.259	1	3
567.429	1	-4
567.599	1	4
567.768	1	2
567.938	1	-6
568.108	1	-1
568.278	1	0
568.448	1	-1
568.618	1	-1
568.788	1	7
568.958	1	0
569.128	1	12
569.297	1	-4
569.467	1	-4
569.637	1	5
569.807	1	6
569.977	1	-6
570.147	1	12
570.317	1	-2
570.487	1	-5
570.656	1	-11
570.826	1	0
570.996	1	-16
571.166	1	9
571.336	1	4
571.506	1	1
571.676	1	10
571.846	1	-3
572.015	1	4
572.185	1	5
572.355	1	-5
572.525	1	-7
572.695	1	1
572.865	1	-7
573.035	1	7
573.205	1	-1
573.374	1	9
573.544	1	2
573.714	1	-3
573.884	1	-5
574.054	1	4
574.224	1	1
574.394	1	3
574.563	1	8
574.733	1	0
574.903	1	3
575.073	1	3
575.243	1	2
575.413	1	5
575.583	1	6
575.752	1	-6
575.922	1	-1
576.092	1	0
576.262	1	3
576.432	1	10
576.602	1	-4
576.772	1	6
576.941	1	-1
577.111	1	-5
577.281	1	-1
577.451	1	-5
577.621	1	-2
577.791	1	-1
577.960	1	-7
578.130	1	2
578.300	1	-10
578.470	1	-1
578.640	1	6
578.810	1	2
578.979	1	0
579.149	1	5
579.319	1	-7
579.489	1	-10
579.659	1	-11
579.829	1	1
579.998	1	10
580.168	1	-4
580.338	1	5
580.508	1	14
580.678	1	3
580.848	1	2
581.017	1	11
581.187	1	14
581.357	1	-6
581.527	1	-1
581.697	1	2
581.867	1	-1
582.036	1	-8
582.206	1	8
582.376	1	0
582.546	1	-12
582.716	1	0
582.885	1	1
583.055	1	-3
583.225	1	-6
583.395	1	11
583.565	1	-2
583.735	1	1
583.904	1	-1
584.074	1	-4
584.244	1	-3
584.414	1	9
584.584	1	4
584.753	1	7
584.923	1	0
585.093	1	2
585.263	1	8
585.433	1	-7
585.602	1	-3
585.772	1	0
585.942	1	-5
586.112	1	3
586.282	1	-2
586.451	1	6
586.621	1	10
586.791	1	6
586.961	1	-1
587.131	1	4
587.300	1	-4
587.470	1	-8
587.640	1	4
587.810	1	8
587.980	1	12
588.149	1	5
588.319	1	10
588.489	1	-1
588.659	1	7
588.829	1	8
588.998	1	6
589.168	1	16
589.338	1	6
589.508	1	3
589.677	1	6
589.847	1	6
590.017	1	5
590.187	1	-14
590.357	1	6
590.526	1	0
590.696	1	-2
590.866	1	4
591.036	1	7
591.205	1	-1
591.375	1	-6
591.545	1	8
591.715	1	-3
591.885	1	5
592.054	1	4
592.224	1	6
592.394	1	4
592.564	1	-6
592.733	1	-3
592.903	1	-3
593.073	1	-1
593.243	1	7
593.412	1	-1
593.582	1	7
593.752	1	-4
593.922	1	-4
594.091	1	-2
594.261	1	3
594.431	1	12
594.601	1	1
594.771	1	7
594.940	1	7
595.110	1	1
595.280	1	1
595.450	1	2
595.619	1	8
595.789	1	3
595.959	1	7
596.129	1	3
596.298	1	9
596.468	1	-7
596.638	1	1
596.808	1	0
596.977	1	4
597.147	1	0
597.317	1	-1
597.487	1	3
597.656	1	1
597.826	1	11
597.996	1	16
598.166	1	0
598.335	1	4
598.505	1	-4
598.675	1	1
598.844	1	1
599.014	1	8
599.184	1	5
599.354	1	3
599.523	1	1
599.693	1	7
599.863	1	2
600.033	1	0
600.202	1	7
600.372	1	-2
600.542	1	0
600.712	1	-3
600.881	1	-9
601.051	1	2
601.221	1	14
601.390	1	2
601.560	1	8
601.730	1	0
601.900	1	11
602.069	1	2
602.239	1	-3
602.409	1	4
602.578	1	6
602.748	1	15
602.918	1	-1
603.088	1	5
603.257	1	4
603.427	1	0
603.597	1	2
603.767	1	-1
603.936	1	-4
604.106	1	3
604.276	1	11
604.445	1	3
604.615	1	3
604.785	1	5
604.954	1	15
605.124	1	-6
605.294	1	4
605.464	1	3
605.633	1	-1
605.803	1	-1
605.973	1	4
606.142	1	7
606.312	1	-2
606.482	1	-1
606.652	1	-9
606.821	1	-2
606.991	1	3
607.161	1	-3
607.330	1	-4
607.500	1	9
607.670	1	9
607.839	1	13
608.009	1	4
608.179	1	-6
608.348	1	12
608.518	1	-4
608.688	1	-4
608.858	1	8
609.027	1	6
609.197	1	-11
609.367	1	16
609.536	1	10
609.706	1	6
609.876	1	4
610.045	1	1
610.215	1	5
610.385	1	-12
610.554	1	-5
610.724	1	4
610.894	1	15
611.063	1	3
611.233	1	3
611.403	1	4
611.572	1	-1
611.742	1	7
611.912	1	6
612.081	1	-4
612.251	1	0
612.421	1	8
612.590	1	4
612.760	1	3
612.930	1	-7
613.099	1	1
613.269	1	9
613.439	1	1
613.608	1	4
613.778	1	-8
613.948	1	3
614.117	1	3
614.287	1	4
614.457	1	-8
614.626	1	12
614.796	1	-1
614.966	1	1
615.135	1	-4
615.305	1	8
615.475	1	6
615.644	1	7
615.814	1	-1
615.984	1	-4
616.153	1	3
616.323	1	5
616.493	1	18
616.662	1	10
616.832	1	7
617.002	1	0
617.171	1	2
617.341	1	2
617.511	1	2
617.680	1	10
617.850	1	5
618.019	1	0
618.189	1	9
618.359	1	0
618.528	1	4
618.698	1	6
618.868	1	-5
619.037	1	4
619.207	1	-5
619.377	1	0
619.546	1	-6
619.716	1	6
619.885	1	3
620.055	1	12
620.225	1	9
620.394	1	1
620.564	1	12
620.734	1	9
620.903	1	0
621.073	1	-9
621.242	1	-7
621.412	1	-3
621.582	1	9
621.751	1	4
621.921	1	-1
622.091	1	1
622.260	1	6
622.430	1	-1
622.599	1	8
622.769	1	6
622.939	1	1
623.108	1	3
623.278	1	5
623.448	1	6
623.617	1	6
623.787	1	6
623.956	1	13
624.126	1	14
624.296	1	-2
624.465	1	7
624.635	1	11
624.804	1	2
624.974	1	12
625.144	1	-3
625.313	1	1
625.483	1	15
625.652	1	6
625.822	1	2
625.992	1	4
626.161	1	12
626.331	1	5
626.501	1	7
626.670	1	14
626.840	1	11
627.009	1	11
627.179	1	3
627.348	1	6
627.518	1	14
627.688	1	5
627.857	1	5
628.027	1	-8
628.196	1	0
628.366	1	-2
628.536	1	2
628.705	1	11
628.875	1	9
629.044	1	7
629.214	1	6
629.384	1	1
629.553	1	5
629.723	1	-10
629.892	1	12
630.062	1	1
630.232	1	6
630.401	1	9
630.571	1	19
630.740	1	8
630.910	1	11
631.079	1	8
631.249	1	6
631.419	1	2
631.588	1	6
631.758	1	4
631.927	1	0
632.097	1	3
632.266	1	11
632.436	1	2
632.606	1	12
632.775	1	13
632.945	1	18
633.114	1	11
633.284	1	-5
633.453	1	-3
633.623	1	16
633.793	1	0
633.962	1	6
634.132	1	6
634.301	1	6
634.471	1	6
634.640	1	-1
634.810	1	1
634.979	1	5
635.149	1	15
635.319	1	10
635.488	1	16
635.658	1	10
635.827	1	8
635.997	1	9
636.166	1	3
636.336	1	7
636.505	1	2
636.675	1	15
636.845	1	2
637.014	1	4
637.184	1	6
637.353	1	2
637.523	1	4
637.692	1	15
637.862	1	3
638.031	1	14
638.201	1	9
638.370	1	4
638.540	1	-1
638.710	1	16
638.879	1	10
639.049	1	15
639.218	1	1
639.388	1	8
639.557	1	13
639.727	1	0
639.896	1	14
640.066	1	11
640.235	1	14
640.405	1	5
640.574	1	11
640.744	1	11
640.914	1	10
641.083	1	6
641.253	1	14
641.422	1	4
641.592	1	-3
641.761	1	13
641.931	1	4
642.100	1	0
642.270	1	4
642.439	1	1
642.609	1	7
642.778	1	4
642.948	1	6
643.117	1	13
643.287	1	-3
643.456	1	23
643.626	1	19
643.795	1	-1
643.965	1	16
644.134	1	7
644.304	1	8
644.473	1	12
644.643	1	-9
644.812	1	13
644.982	1	2
645.151	1	11
645.321	1	3
645.490	1	7
645.660	1	9
645.829	1	6
645.999	1	5
646.168	1	-3
646.338	1	4
646.507	1	7
646.677	1	-1
646.846	1	2
647.016	1	11
647.185	1	2
647.355	1	8
647.524	1	14
647.694	1	6
647.863	1	-5
648.033	1	5
648.202	1	1
648.372	1	19
648.541	1	6
648.711	1	17
648.880	1	-4
649.050	1	9
649.219	1	-1
649.389	1	3
649.558	1	2
649.728	1	7
649.897	1	12
650.067	1	-5
650.236	1	8
650.406	1	7
650.575	1	0
650.745	1	5
650.914	1	-6
651.084	1	4
651.253	1	2
651.423	1	11
651.592	1	2
651.762	1	8
651.931	1	-5
652.101	1	3
652.270	1	3
652.440	1	3
652.609	1	10
652.778	1	1
652.948	1	14
653.117	1	9
653.287	1	19
653.456	1	6
653.626	1	-1
653.795	1	9
653.965	1	11
654.134	1	13
654.304	1	11
654.473	1	5
654.643	1	11
654.812	1	5
654.982	1	3
655.151	1	-2
655.320	1	-1
655.490	1	7
655.659	1	9
655.829	1	12
655.998	1	-1
656.168	1	-6
656.337	1	15
656.507	1	-12
656.676	1	3
656.846	1	6
657.015	1	1
657.184	1	5
657.354	1	3
657.523	1	8
657.693	1	2
657.862	1	6
658.032	1	3
658.201	1	8
658.371	1	-1
658.540	1	-4
658.709	1	5
658.879	1	-9
659.048	1	-5
659.218	1	1
659.387	1	-1
659.557	1	0
659.726	1	7
659.895	1	6
660.065	1	-5
660.234	1	1
660.404	1	5
660.573	1	6
660.743	1	6
660.912	1	5
661.081	1	17
661.251	1	5
661.420	1	8
661.590	1	2
661.759	1	7
661.929	1	9
662.098	1	3
662.267	1	5
662.437	1	6
662.606	1	18
662.776	1	4
662.945	1	3
663.115	1	7
663.284	1	15
663.453	1	1
663.623	1	10
663.792	1	2
663.962	1	9
664.131	1	15
664.300	1	2
664.470	1	7
664.639	1	0
664.809	1	5
664.978	1	-5
665.148	1	-1
665.317	1	-1
665.486	1	-1
665.656	1	-3
665.825	1	1
665.995	1	10
666.164	1	5
666.333	1	6
666.503	1	13
666.672	1	18
666.842	1	8
667.011	1	-6
667.180	1	12
667.350	1	9
667.519	1	8
667.689	1	-7
667.858	1	5
668.027	1	13
668.197	1	15
668.366	1	9
668.536	1	9
668.705	1	2
668.874	1	4
669.044	1	1
669.213	1	4
669.382	1	7
669.552	1	12
669.721	1	15
669.891	1	6
670.060	1	7
670.229	1	5
670.399	1	4
670.568	1	-1
670.738	1	-9
670.907	1	5
671.076	1	9
671.246	1	11
671.415	1	11
671.584	1	-3
671.754	1	4
671.923	1	12
672.093	1	20
672.262	1	4
672.431	1	-2
672.601	1	2
672.770	1	-1
672.939	1	8
673.109	1	1
673.278	1	9
673.448	1	-6
673.617	1	-6
673.786	1	8
