325.333	1	10
325.504	1	2
325.675	1	9
325.846	1	2
326.017	1	1
326.188	1	15
326.359	1	-3
326.531	1	-2
326.702	1	3
326.873	1	7
327.044	1	11
327.215	1	15
327.386	1	-2
327.557	1	7
327.728	1	8
327.899	1	12
328.070	1	7
328.241	1	-1
328.412	1	4
328.583	1	4
328.754	1	1
328.926	1	0
329.097	1	7
329.268	1	-1
329.439	1	9
329.610	1	12
329.781	1	-3
329.952	1	11
330.123	1	4
330.294	1	8
330.465	1	-7
330.636	1	10
330.807	1	0
330.978	1	3
331.149	1	7
331.320	1	7
331.492	1	5
331.663	1	13
331.834	1	10
332.005	1	8
332.176	1	5
332.347	1	10
332.518	1	6
332.689	1	9
332.860	1	7
333.031	1	4
333.202	1	-2
333.373	1	11
333.544	1	7
333.715	1	11
333.886	1	6
334.057	1	7
334.228	1	-2
334.399	1	15
334.570	1	1
334.741	1	9
334.912	1	11
335.084	1	1
335.255	1	4
335.426	1	5
335.597	1	16
335.768	1	9
335.939	1	13
336.110	1	3
336.281	1	5
336.452	1	5
336.623	1	4
336.794	1	10
336.965	1	2
337.136	1	-1
337.307	1	10
337.478	1	1
337.649	1	14
337.820	1	-4
337.991	1	15
338.162	1	5
338.333	1	1
338.504	1	0
338.675	1	16
338.846	1	7
339.017	1	19
339.188	1	5
339.359	1	15
339.530	1	11
339.701	1	6
339.872	1	7
340.043	1	-4
340.214	1	3
340.385	1	8
340.556	1	9
340.727	1	15
340.898	1	21
341.069	1	10
341.240	1	11
341.411	1	11
341.582	1	12
341.753	1	-6
341.924	1	6
342.095	1	9
342.266	1	11
342.437	1	22
342.608	1	13
342.779	1	12
342.950	1	5
343.121	1	12
343.292	1	6
343.463	1	4
343.634	1	-3
343.805	1	-8
343.976	1	7
344.147	1	5
344.318	1	9
344.489	1	11
344.660	1	11
344.831	1	19
345.002	1	11
345.173	1	1
345.344	1	5
345.515	1	-16
345.686	1	10
345.857	1	0
346.028	1	10
346.199	1	-1
346.370	1	9
346.541	1	-2
346.712	1	8
346.883	1	3
347.054	1	1
347.225	1	7
347.396	1	-10
347.567	1	13
347.738	1	-5
347.909	1	14
348.080	1	9
348.251	1	14
348.422	1	5
348.593	1	4
348.764	1	18
348.935	1	20
349.106	1	-1
349.277	1	-1
349.448	1	8
349.619	1	4
349.790	1	13
349.961	1	8
350.132	1	18
350.303	1	6
350.474	1	7
350.645	1	13
350.816	1	5
350.987	1	2
351.157	1	8
351.328	1	10
351.499	1	4
351.670	1	14
351.841	1	13
352.012	1	15
352.183	1	9
352.354	1	0
352.525	1	5
352.696	1	21
352.867	1	-2
353.038	1	3
353.209	1	6
353.380	1	7
353.551	1	2
353.722	1	6
353.893	1	11
354.064	1	0
354.235	1	3
354.406	1	6
354.576	1	11
354.747	1	6
354.918	1	6
355.089	1	8
355.260	1	13
355.431	1	10
355.602	1	9
355.773	1	0
355.944	1	4
356.115	1	6
356.286	1	13
356.457	1	-6
356.628	1	13
356.799	1	2
356.970	1	9
357.141	1	15
357.311	1	9
357.482	1	0
357.653	1	6
357.824	1	14
357.995	1	3
358.166	1	6
358.337	1	5
358.508	1	11
358.679	1	12
358.850	1	2
359.021	1	5
359.192	1	9
359.363	1	11
359.533	1	-6
359.704	1	9
359.875	1	8
360.046	1	9
360.217	1	13
360.388	1	11
360.559	1	12
360.730	1	3
360.901	1	0
361.072	1	3
361.243	1	10
361.414	1	9
361.584	1	3
361.755	1	2
361.926	1	19
362.097	1	6
362.268	1	1
362.439	1	1
362.610	1	9
362.781	1	4
362.952	1	25
363.123	1	6
363.293	1	12
363.464	1	-2
363.635	1	10
363.806	1	6
363.977	1	7
364.148	1	9
364.319	1	4
364.490	1	8
364.661	1	1
364.832	1	10
365.002	1	7
365.173	1	5
365.344	1	10
365.515	1	-14
365.686	1	-6
365.857	1	12
366.028	1	3
366.199	1	11
366.370	1	2
366.540	1	7
366.711	1	6
366.882	1	-4
367.053	1	3
367.224	1	3
367.395	1	2
367.566	1	-1
367.737	1	-4
367.908	1	13
368.078	1	11
368.249	1	9
368.420	1	10
368.591	1	13
368.762	1	1
368.933	1	-7
369.104	1	12
369.274	1	-2
369.445	1	10
369.616	1	6
369.787	1	11
369.958	1	4
370.129	1	-7
370.300	1	2
370.471	1	12
370.641	1	11
370.812	1	7
370.983	1	-8
371.154	1	0
371.325	1	10
371.496	1	16
371.667	1	10
371.837	1	5
372.008	1	-8
372.179	1	1
372.350	1	0
372.521	1	6
372.692	1	6
372.863	1	6
373.033	1	7
373.204	1	-1
373.375	1	5
373.546	1	13
373.717	1	3
373.888	1	8
374.059	1	5
374.229	1	6
374.400	1	12
374.571	1	-6
374.742	1	-1
374.913	1	5
375.084	1	5
375.254	1	8
375.425	1	2
375.596	1	10
375.767	1	10
375.938	1	10
376.109	1	10
376.279	1	-2
376.450	1	2
376.621	1	-3
376.792	1	5
376.963	1	2
377.134	1	10
377.304	1	11
377.475	1	1
377.646	1	5
377.817	1	-2
377.988	1	7
378.159	1	10
378.329	1	5
378.500	1	12
378.671	1	12
378.842	1	6
379.013	1	5
379.184	1	0
379.354	1	-1
379.525	1	8
379.696	1	13
379.867	1	2
380.038	1	11
380.209	1	6
380.379	1	6
380.550	1	24
380.721	1	9
380.892	1	4
381.063	1	3
381.233	1	5
381.404	1	9
381.575	1	10
381.746	1	3
381.917	1	1
382.087	1	12
382.258	1	18
382.429	1	5
382.600	1	11
382.771	1	8
382.941	1	19
383.112	1	-2
383.283	1	6
383.454	1	9
383.625	1	-5
383.795	1	16
383.966	1	-1
384.137	1	6
384.308	1	3
384.479	1	5
384.649	1	9
384.820	1	12
384.991	1	5
385.162	1	16
385.333	1	11
385.503	1	-2
385.674	1	3
385.845	1	11
386.016	1	12
386.187	1	10
386.357	1	9
386.528	1	-2
386.699	1	8
386.870	1	2
387.041	1	24
387.211	1	5
387.382	1	1
387.553	1	8
387.724	1	21
387.894	1	9
388.065	1	8
388.236	1	6
388.407	1	4
388.578	1	3
388.748	1	3
388.919	1	0
389.090	1	11
389.261	1	12
389.431	1	12
389.602	1	10
389.773	1	24
389.944	1	24
390.114	1	11
390.285	1	7
390.456	1	2
390.627	1	3
390.798	1	10
390.968	1	19
391.139	1	8
391.310	1	10
391.481	1	12
391.651	1	18
391.822	1	18
391.993	1	-5
392.164	1	8
392.334	1	0
392.505	1	22
392.676	1	14
392.847	1	9
393.017	1	10
393.188	1	16
393.359	1	11
393.530	1	1
393.700	1	2
393.871	1	10
394.042	1	10
394.213	1	1
394.383	1	9
394.554	1	22
394.725	1	9
394.896	1	14
395.066	1	9
395.237	1	3
395.408	1	8
395.579	1	3
395.749	1	9
395.920	1	10
396.091	1	13
396.262	1	4
396.432	1	14
396.603	1	6
396.774	1	6
396.945	1	13
397.115	1	-7
397.286	1	4
397.457	1	2
397.627	1	10
397.798	1	15
397.969	1	14
398.140	1	7
398.310	1	9
398.481	1	5
398.652	1	-9
398.823	1	14
398.993	1	9
399.164	1	17
399.335	1	3
399.505	1	6
399.676	1	12
399.847	1	7
400.018	1	24
400.188	1	2
400.359	1	5
400.530	1	9
400.700	1	14
400.871	1	3
401.042	1	11
401.213	1	9
401.383	1	13
401.554	1	9
401.725	1	20
401.895	1	5
402.066	1	6
402.237	1	15
402.408	1	6
402.578	1	3
402.749	1	7
402.920	1	18
403.090	1	8
403.261	1	10
403.432	1	13
403.603	1	12
403.773	1	15
403.944	1	7
404.115	1	5
404.285	1	11
404.456	1	7
404.627	1	6
404.797	1	7
404.968	1	15
405.139	1	6
405.310	1	16
405.480	1	13
405.651	1	8
405.822	1	1
405.992	1	-1
406.163	1	20
406.334	1	15
406.504	1	13
406.675	1	30
406.846	1	22
407.016	1	17
407.187	1	7
407.358	1	14
407.528	1	14
407.699	1	-3
407.870	1	10
408.041	1	12
408.211	1	5
408.382	1	9
408.553	1	19
408.723	1	17
408.894	1	1
409.065	1	6
409.235	1	18
409.406	1	3
409.577	1	13
409.747	1	7
409.918	1	6
410.089	1	15
410.259	1	3
410.430	1	15
410.601	1	10
410.771	1	12
410.942	1	17
411.113	1	12
411.283	1	17
411.454	1	12
411.625	1	16
411.795	1	-4
411.966	1	26
412.137	1	18
412.307	1	14
412.478	1	19
412.649	1	18
412.819	1	11
412.990	1	11
413.161	1	25
413.331	1	11
413.502	1	14
413.672	1	16
413.843	1	11
414.014	1	9
414.184	1	14
414.355	1	16
414.526	1	5
414.696	1	17
414.867	1	11
415.038	1	11
415.208	1	17
415.379	1	22
415.550	1	13
415.720	1	6
415.891	1	21
416.062	1	12
416.232	1	11
416.403	1	7
416.573	1	22
416.744	1	12
416.915	1	23
417.085	1	20
417.256	1	14
417.427	1	11
417.597	1	20
417.768	1	18
417.939	1	13
418.109	1	14
418.280	1	12
418.450	1	13
418.621	1	14
418.792	1	14
418.962	1	9
419.133	1	4
419.304	1	4
419.474	1	7
419.645	1	8
419.815	1	4
419.986	1	17
420.157	1	10
420.327	1	6
420.498	1	7
420.669	1	20
420.839	1	4
421.010	1	14
421.180	1	19
421.351	1	10
421.522	1	13
421.692	1	19
421.863	1	16
422.033	1	5
422.204	1	21
422.375	1	4
422.545	1	9
422.716	1	10
422.886	1	6
423.057	1	16
423.228	1	6
423.398	1	11
423.569	1	11
423.740	1	18
423.910	1	18
424.081	1	17
424.251	1	10
424.422	1	12
424.593	1	9
424.763	1	14
424.934	1	13
425.104	1	7
425.275	1	12
425.445	1	4
425.616	1	10
425.787	1	15
425.957	1	1
426.128	1	15
426.298	1	20
426.469	1	12
426.640	1	5
426.810	1	21
426.981	1	18
427.151	1	11
427.322	1	19
427.493	1	19
427.663	1	24
427.834	1	11
428.004	1	-1
428.175	1	25
428.345	1	11
428.516	1	19
428.687	1	17
428.857	1	2
429.028	1	8
429.198	1	15
429.369	1	12
429.540	1	8
429.710	1	9
429.881	1	-6
430.051	1	17
430.222	1	17
430.392	1	2
430.563	1	22
430.734	1	14
430.904	1	10
431.075	1	12
431.245	1	10
431.416	1	10
431.586	1	4
431.757	1	11
431.927	1	22
432.098	1	-2
432.269	1	13
432.439	1	9
432.610	1	23
432.780	1	13
432.951	1	11
433.121	1	13
433.292	1	8
433.462	1	11
433.633	1	-4
433.804	1	3
433.974	1	20
434.145	1	9
434.315	1	1
434.486	1	15
434.656	1	19
434.827	1	0
434.997	1	11
435.168	1	5
435.339	1	-3
435.509	1	6
435.680	1	11
435.850	1	14
436.021	1	10
436.191	1	18
436.362	1	26
436.532	1	9
436.703	1	5
436.873	1	-3
437.044	1	5
437.214	1	4
437.385	1	12
437.556	1	14
437.726	1	12
437.897	1	12
438.067	1	8
438.238	1	10
438.408	1	10
438.579	1	5
438.749	1	8
438.920	1	15
439.090	1	11
439.261	1	8
439.431	1	12
439.602	1	10
439.772	1	10
439.943	1	15
440.113	1	18
440.284	1	6
440.455	1	15
440.625	1	31
440.796	1	23
440.966	1	6
441.137	1	6
441.307	1	5
441.478	1	15
441.648	1	2
441.819	1	19
441.989	1	13
442.160	1	10
442.330	1	19
442.501	1	9
442.671	1	13
442.842	1	12
443.012	1	12
443.183	1	18
443.353	1	15
443.524	1	9
443.694	1	8
443.865	1	13
444.035	1	7
444.206	1	10
444.376	1	9
444.547	1	12
444.717	1	6
444.888	1	11
445.058	1	5
445.229	1	5
445.399	1	8
445.570	1	0
445.740	1	7
445.911	1	21
446.081	1	17
446.252	1	17
446.422	1	7
446.593	1	12
446.763	1	7
446.934	1	8
447.104	1	12
447.275	1	20
447.445	1	3
447.616	1	19
447.786	1	11
447.957	1	3
448.127	1	9
448.298	1	11
448.468	1	0
448.639	1	16
448.809	1	12
448.979	1	14
449.150	1	3
449.320	1	11
449.491	1	12
449.661	1	21
449.832	1	9
450.002	1	-2
450.173	1	-2
450.343	1	9
450.514	1	12
450.684	1	10
450.855	1	13
451.025	1	1
451.196	1	8
451.366	1	14
451.537	1	9
451.707	1	9
451.878	1	3
452.048	1	4
452.218	1	12
452.389	1	5
452.559	1	2
452.730	1	2
452.900	1	12
453.071	1	10
453.241	1	6
453.412	1	14
453.582	1	6
453.753	1	7
453.923	1	15
454.093	1	19
454.264	1	11
454.434	1	25
454.605	1	18
454.775	1	16
454.946	1	19
455.116	1	8
455.287	1	4
455.457	1	1
455.628	1	10
455.798	1	14
455.968	1	6
456.139	1	6
456.309	1	10
456.480	1	5
456.650	1	17
456.821	1	14
456.991	1	6
457.161	1	8
457.332	1	7
457.502	1	5
457.673	1	13
457.843	1	4
458.014	1	6
458.184	1	5
458.355	1	2
458.525	1	7
458.695	1	5
458.866	1	4
459.036	1	2
459.207	1	-1
459.377	1	20
459.548	1	4
459.718	1	11
459.888	1	15
460.059	1	7
460.229	1	3
460.400	1	15
460.570	1	14
460.740	1	14
460.911	1	8
461.081	1	9
461.252	1	15
461.422	1	5
461.593	1	-4
461.763	1	12
461.933	1	2
462.104	1	13
462.274	1	13
462.445	1	8
462.615	1	0
462.785	1	2
462.956	1	5
463.126	1	11
463.297	1	15
463.467	1	17
463.638	1	1
463.808	1	4
463.978	1	1
464.149	1	9
464.319	1	5
464.490	1	2
464.660	1	5
464.830	1	12
465.001	1	17
465.171	1	-1
465.342	1	5
465.512	1	8
465.682	1	13
465.853	1	0
466.023	1	8
466.194	1	8
466.364	1	17
466.534	1	10
466.705	1	14
466.875	1	16
467.045	1	-3
467.216	1	4
467.386	1	12
467.557	1	7
467.727	1	0
467.897	1	7
468.068	1	14
468.238	1	14
468.409	1	1
468.579	1	0
468.749	1	3
468.920	1	8
469.090	1	9
469.260	1	-7
469.431	1	9
469.601	1	3
469.772	1	2
469.942	1	21
470.112	1	5
470.283	1	13
470.453	1	14
470.623	1	12
470.794	1	13
470.964	1	2
471.135	1	4
471.305	1	8
471.475	1	-2
471.646	1	8
471.816	1	5
471.986	1	-1
472.157	1	11
472.327	1	-1
472.497	1	1
472.668	1	5
472.838	1	2
473.009	1	19
473.179	1	-1
473.349	1	10
473.520	1	8
473.690	1	8
473.860	1	10
474.031	1	11
474.201	1	11
474.371	1	6
474.542	1	14
474.712	1	-4
474.882	1	16
475.053	1	12
475.223	1	3
475.394	1	12
475.564	1	0
475.734	1	3
475.905	1	3
476.075	1	5
476.245	1	16
476.416	1	4
476.586	1	3
476.756	1	14
476.927	1	17
477.097	1	9
477.267	1	10
477.438	1	-11
477.608	1	1
477.778	1	20
477.949	1	0
478.119	1	-1
478.289	1	18
478.460	1	17
478.630	1	0
478.800	1	4
478.971	1	5
479.141	1	4
479.311	1	8
479.482	1	8
479.652	1	-2
479.822	1	0
479.993	1	2
480.163	1	12
480.333	1	14
480.504	1	11
480.674	1	11
480.844	1	11
481.015	1	0
481.185	1	9
481.355	1	4
481.525	1	11
481.696	1	12
481.866	1	-4
482.036	1	10
482.207	1	-5
482.377	1	8
482.547	1	-3
482.718	1	3
482.888	1	6
483.058	1	5
483.229	1	6
483.399	1	4
483.569	1	3
483.740	1	1
483.910	1	-5
484.080	1	6
484.250	1	7
484.421	1	15
484.591	1	4
484.761	1	-2
484.932	1	20
485.102	1	11
485.272	1	1
485.443	1	3
485.613	1	9
485.783	1	-4
485.953	1	5
486.124	1	-10
486.294	1	0
486.464	1	-2
486.635	1	4
486.805	1	8
486.975	1	2
487.146	1	-3
487.316	1	8
487.486	1	0
487.656	1	3
487.827	1	9
487.997	1	8
488.167	1	4
488.338	1	0
488.508	1	4
488.678	1	8
488.848	1	-1
489.019	1	10
489.189	1	-6
489.359	1	9
489.529	1	-3
489.700	1	1
489.870	1	2
490.040	1	-4
490.211	1	5
490.381	1	1
490.551	1	-10
490.721	1	14
490.892	1	12
491.062	1	2
491.232	1	-6
491.402	1	5
491.573	1	7
491.743	1	-1
491.913	1	7
492.084	1	-1
492.254	1	18
492.424	1	5
492.594	1	12
492.765	1	4
492.935	1	6
493.105	1	5
493.275	1	-9
493.446	1	7
493.616	1	8
493.786	1	1
493.956	1	2
494.127	1	3
494.297	1	4
494.467	1	12
494.637	1	2
494.808	1	0
494.978	1	-7
495.148	1	9
495.318	1	-12
495.489	1	-3
495.659	1	11
495.829	1	8
495.999	1	8
496.170	1	6
496.340	1	5
496.510	1	6
496.680	1	2
496.851	1	-1
497.021	1	-4
497.191	1	2
497.361	1	0
497.532	1	3
497.702	1	0
497.872	1	1
498.042	1	14
498.213	1	17
498.383	1	3
498.553	1	4
498.723	1	-9
498.894	1	12
499.064	1	-1
499.234	1	-1
499.404	1	4
499.574	1	8
499.745	1	-2
499.915	1	-12
500.085	1	7
500.255	1	9
500.426	1	-4
500.596	1	9
500.766	1	-9
500.936	1	4
501.106	1	4
501.277	1	-1
501.447	1	0
501.617	1	3
501.787	1	4
501.958	1	-4
502.128	1	17
502.298	1	6
502.468	1	2
502.638	1	2
502.809	1	0
502.979	1	-7
503.149	1	4
503.319	1	3
503.489	1	6
503.660	1	-6
503.830	1	2
504.000	1	8
504.170	1	6
504.340	1	-5
504.511	1	-1
504.681	1	7
504.851	1	5
505.021	1	-7
505.192	1	-6
505.362	1	2
505.532	1	-2
505.702	1	1
505.872	1	12
506.043	1	7
506.213	1	6
506.383	1	12
506.553	1	-5
506.723	1	8
506.893	1	-3
507.064	1	-4
507.234	1	-2
507.404	1	9
507.574	1	3
507.744	1	6
507.915	1	0
508.085	1	-10
508.255	1	11
508.425	1	-5
508.595	1	2
508.766	1	-13
508.936	1	12
509.106	1	3
509.276	1	6
509.446	1	12
509.616	1	-3
509.787	1	4
509.957	1	0
510.127	1	-1
510.297	1	7
510.467	1	1
510.638	1	1
510.808	1	-8
510.978	1	9
511.148	1	14
511.318	1	7
511.488	1	12
511.659	1	12
511.829	1	8
511.999	1	-2
512.169	1	-2
512.339	1	-2
512.509	1	3
512.680	1	-4
512.850	1	1
513.020	1	9
513.190	1	4
513.360	1	3
513.530	1	0
513.700	1	-1
513.871	1	1
514.041	1	-2
514.211	1	-5
514.381	1	12
514.551	1	-9
514.721	1	1
514.892	1	-4
515.062	1	9
515.232	1	9
515.402	1	8
515.572	1	3
515.742	1	11
515.912	1	1
516.083	1	6
516.253	1	6
516.423	1	-2
516.593	1	2
516.763	1	4
516.933	1	8
517.104	1	-5
517.274	1	5
517.444	1	-3
517.614	1	7
517.784	1	5
517.954	1	1
518.124	1	7
518.294	1	1
518.465	1	17
518.635	1	-3
518.805	1	-5
518.975	1	-5
519.145	1	10
519.315	1	-12
519.485	1	-3
519.656	1	0
519.826	1	-1
519.996	1	9
520.166	1	2
520.336	1	-10
520.506	1	3
520.676	1	5
520.846	1	5
521.017	1	-8
521.187	1	3
521.357	1	-3
521.527	1	5
521.697	1	3
521.867	1	8
522.037	1	1
522.207	1	2
522.377	1	5
522.548	1	11
522.718	1	8
522.888	1	5
523.058	1	8
523.228	1	0
523.398	1	13
523.568	1	-4
523.738	1	3
523.909	1	11
524.079	1	-3
524.249	1	2
524.419	1	2
524.589	1	-2
524.759	1	7
524.929	1	-4
525.099	1	-9
525.269	1	-2
525.439	1	7
525.610	1	-3
525.780	1	9
525.950	1	8
526.120	1	7
526.290	1	-2
526.460	1	2
526.630	1	3
526.800	1	1
526.970	1	-2
527.140	1	11
527.311	1	10
527.481	1	2
527.651	1	0
527.821	1	-3
527.991	1	-8
528.161	1	-9
528.331	1	7
528.501	1	4
528.671	1	10
528.841	1	8
529.011	1	2
529.181	1	2
529.352	1	8
529.522	1	8
529.692	1	2
529.862	1	-6
530.032	1	9
530.202	1	8
530.372	1	-1
530.542	1	1
530.712	1	11
530.882	1	7
531.052	1	6
531.222	1	2
531.392	1	3
531.563	1	-8
531.733	1	-5
531.903	1	-3
532.073	1	5
532.243	1	7
532.413	1	-2
532.583	1	8
532.753	1	14
532.923	1	2
533.093	1	0
533.263	1	-1
533.433	1	0
533.603	1	-7
533.773	1	-4
533.943	1	-5
534.113	1	6
534.284	1	-4
534.454	1	0
534.624	1	6
534.794	1	1
534.964	1	3
535.134	1	9
535.304	1	7
535.474	1	-6
535.644	1	7
535.814	1	-6
535.984	1	1
536.154	1	-7
536.324	1	-3
536.494	1	7
536.664	1	8
536.834	1	10
537.004	1	-2
537.174	1	-5
537.344	1	-3
537.514	1	-2
537.685	1	-9
537.855	1	-2
538.025	1	5
538.195	1	3
538.365	1	7
538.535	1	-6
538.705	1	1
538.875	1	5
539.045	1	-1
539.215	1	-10
539.385	1	-5
539.555	1	3
539.725	1	-11
539.895	1	-1
540.065	1	-1
540.235	1	-2
540.405	1	0
540.575	1	1
540.745	1	-5
540.915	1	1
541.085	1	-9
541.255	1	14
541.425	1	-6
541.595	1	3
541.765	1	10
541.935	1	-2
542.105	1	5
542.275	1	-3
542.445	1	2
542.615	1	4
542.785	1	-4
542.955	1	1
543.125	1	2
543.295	1	8
543.465	1	-3
543.635	1	-8
543.805	1	0
543.975	1	-4
544.145	1	2
544.315	1	-6
544.485	1	-2
544.655	1	-4
544.825	1	7
544.995	1	11
545.165	1	10
545.335	1	-12
545.505	1	4
545.675	1	-5
545.845	1	2
546.015	1	5
546.185	1	-3
546.355	1	6
546.525	1	-7
546.695	1	-4
546.865	1	13
547.035	1	-1
547.205	1	-3
547.375	1	7
547.545	1	1
547.715	1	8
547.885	1	-2
548.055	1	-2
548.225	1	4
548.395	1	-3
548.565	1	6
548.735	1	-7
548.905	1	3
549.075	1	0
549.245	1	1
549.415	1	-3
549.585	1	5
549.755	1	13
549.925	1	-5
550.095	1	1
550.265	1	7
550.435	1	-1
550.605	1	-1
550.775	1	1
550.945	1	-3
551.115	1	-1
551.285	1	3
551.455	1	-2
551.625	1	-1
551.795	1	-10
551.965	1	7
552.135	1	2
552.305	1	7
552.475	1	1
552.645	1	-1
552.815	1	2
552.985	1	-2
553.155	1	6
553.325	1	-9
553.495	1	9
553.665	1	-2
553.835	1	5
554.004	1	7
554.174	1	0
554.344	1	4
554.514	1	-2
554.684	1	-4
554.854	1	-4
555.024	1	3
555.194	1	-7
555.364	1	3
555.534	1	-5
555.704	1	-1
555.874	1	6
556.044	1	6
556.214	1	5
556.384	1	7
556.554	1	-3
556.724	1	3
556.894	1	-6
557.064	1	-2
557.234	1	-2
557.404	1	-2
557.573	1	-14
557.743	1	-8
557.913	1	7
558.083	1	2
558.253	1	-13
558.423	1	-4
558.593	1	-5
558.763	1	4
558.933	1	0
559.103	1	2
559.273	1	2
559.443	1	2
559.613	1	1
559.783	1	-5
559.953	1	0
560.122	1	4
560.292	1	5
560.462	1	-3
560.632	1	-5
560.802	1	2
560.972	1	-8
561.142	1	-4
561.312	1	0
561.482	1	1
561.652	1	4
561.822	1	-6
561.992	1	-6
562.162	1	7
562.331	1	-1
562.501	1	-2
562.671	1	7
562.841	1	-8
563.011	1	9
563.181	1	6
563.351	1	6
563.521	1	14
563.691	1	-5
563.861	1	1
564.031	1	-2
564.201	1	6
564.370	1	4
564.540	1	8
564.710	1	6
564.880	1	3
565.050	1	1
565.220	1	-1
565.390	1	-1
565.560	1	1
565.730	1	-4
565.900	1	3
566.069	1	-3
566.239	1	-9
566.409	1	-12
566.579	1	0
566.749	1	-9
566.919	1	2
567.089	1	-4
567.259	1	-1
567.429	1	-1
567.599	1	0
567.768	1	-4
567.938	1	-2
568.108	1	-5
568.278	1	8
568.448	1	2
568.618	1	-1
568.788	1	5
568.958	1	-6
569.128	1	-4
569.297	1	-11
569.467	1	-7
569.637	1	3
569.807	1	-2
569.977	1	-1
570.147	1	4
570.317	1	-6
570.487	1	-2
570.656	1	-7
570.826	1	-1
570.996	1	-8
571.166	1	13
571.336	1	-6
571.506	1	4
571.676	1	15
571.846	1	4
572.015	1	4
572.185	1	2
572.355	1	-8
572.525	1	-12
572.695	1	1
572.865	1	-6
573.035	1	13
573.205	1	4
573.374	1	1
573.544	1	8
573.714	1	4
573.884	1	-7
574.054	1	3
574.224	1	-1
574.394	1	3
574.563	1	3
574.733	1	2
574.903	1	4
575.073	1	1
575.243	1	0
575.413	1	3
575.583	1	5
575.752	1	-4
575.922	1	-5
576.092	1	-5
576.262	1	1
576.432	1	7
576.602	1	-12
576.772	1	-5
576.941	1	7
577.111	1	-5
577.281	1	3
577.451	1	-1
577.621	1	5
577.791	1	0
577.960	1	-2
578.130	1	2
578.300	1	-7
578.470	1	-6
578.640	1	5
578.810	1	-3
578.979	1	3
579.149	1	1
579.319	1	-4
579.489	1	-4
579.659	1	-16
579.829	1	-2
579.998	1	-6
580.168	1	-1
580.338	1	12
580.508	1	7
580.678	1	0
580.848	1	8
581.017	1	13
581.187	1	-1
581.357	1	-11
581.527	1	-3
581.697	1	-8
581.867	1	-8
582.036	1	1
582.206	1	-2
582.376	1	-9
582.546	1	-10
582.716	1	-3
582.885	1	-9
583.055	1	-8
583.225	1	2
583.395	1	7
583.565	1	-7
583.735	1	4
583.904	1	-3
584.074	1	-1
584.244	1	-8
584.414	1	7
584.584	1	-3
584.753	1	7
584.923	1	-1
585.093	1	6
585.263	1	1
585.433	1	-2
585.602	1	-4
585.772	1	-11
585.942	1	6
586.112	1	-4
586.282	1	-1
586.451	1	9
586.621	1	5
586.791	1	-1
586.961	1	-6
587.131	1	-11
587.300	1	-4
587.470	1	-1
587.640	1	6
587.810	1	8
587.980	1	-8
588.149	1	-6
588.319	1	10
588.489	1	4
588.659	1	-6
588.829	1	3
588.998	1	3
589.168	1	3
589.338	1	3
589.508	1	12
589.677	1	8
589.847	1	-5
590.017	1	0
590.187	1	5
590.357	1	1
590.526	1	-3
590.696	1	-6
590.866	1	2
591.036	1	14
591.205	1	1
591.375	1	-1
591.545	1	14
591.715	1	2
591.885	1	-5
592.054	1	-3
592.224	1	10
592.394	1	-6
592.564	1	2
592.733	1	-7
592.903	1	8
593.073	1	-3
593.243	1	-2
593.412	1	0
593.582	1	10
593.752	1	-9
593.922	1	1
594.091	1	-6
594.261	1	-4
594.431	1	12
594.601	1	5
594.771	1	11
594.940	1	2
595.110	1	-2
595.280	1	-4
595.450	1	10
595.619	1	9
595.789	1	-5
595.959	1	7
596.129	1	-5
596.298	1	16
596.468	1	-7
596.638	1	6
596.808	1	5
596.977	1	-1
597.147	1	-8
597.317	1	-5
597.487	1	4
597.656	1	5
597.826	1	8
597.996	1	-4
598.166	1	7
598.335	1	5
598.505	1	9
598.675	1	-8
598.844	1	-5
599.014	1	3
599.184	1	5
599.354	1	2
599.523	1	0
599.693	1	11
599.863	1	7
600.033	1	0
600.202	1	4
600.372	1	0
600.542	1	7
600.712	1	-5
600.881	1	-6
601.051	1	-2
601.221	1	2
601.390	1	-11
601.560	1	2
601.730	1	5
601.900	1	4
602.069	1	6
602.239	1	5
602.409	1	8
602.578	1	4
602.748	1	10
602.918	1	-3
603.088	1	2
603.257	1	0
603.427	1	2
603.597	1	-1
603.767	1	-3
603.936	1	-2
604.106	1	5
604.276	1	12
604.445	1	3
604.615	1	0
604.785	1	2
604.954	1	15
605.124	1	-5
605.294	1	11
605.464	1	-5
605.633	1	8
605.803	1	0
605.973	1	3
606.142	1	2
606.312	1	-10
606.482	1	6
606.652	1	6
606.821	1	0
606.991	1	-3
607.161	1	-2
607.330	1	-6
607.500	1	1
607.670	1	9
607.839	1	11
608.009	1	3
608.179	1	-4
608.348	1	7
608.518	1	-1
608.688	1	-2
608.858	1	13
609.027	1	7
609.197	1	-19
609.367	1	12
609.536	1	4
609.706	1	-1
609.876	1	8
610.045	1	-4
610.215	1	1
610.385	1	-8
610.554	1	5
610.724	1	-7
610.894	1	8
611.063	1	-9
611.233	1	8
611.403	1	-5
611.572	1	7
611.742	1	4
611.912	1	3
612.081	1	-6
612.251	1	11
612.421	1	7
612.590	1	-2
612.760	1	7
612.930	1	2
613.099	1	4
613.269	1	-3
613.439	1	-9
613.608	1	0
613.778	1	-6
613.948	1	1
614.117	1	13
614.287	1	4
614.457	1	-2
614.626	1	13
614.796	1	0
614.966	1	-3
615.135	1	6
615.305	1	6
615.475	1	-5
615.644	1	2
615.814	1	1
615.984	1	-4
616.153	1	9
616.323	1	12
616.493	1	14
616.662	1	7
616.832	1	-2
617.002	1	2
617.171	1	4
617.341	1	8
617.511	1	0
617.680	1	9
617.850	1	12
618.019	1	-2
618.189	1	12
618.359	1	-3
618.528	1	-2
618.698	1	-2
618.868	1	-4
619.037	1	8
619.207	1	7
619.377	1	3
619.546	1	-5
619.716	1	-2
619.885	1	6
620.055	1	4
620.225	1	10
620.394	1	0
620.564	1	6
620.734	1	7
620.903	1	8
621.073	1	-2
621.242	1	4
621.412	1	1
621.582	1	6
621.751	1	10
621.921	1	6
622.091	1	6
622.260	1	-2
622.430	1	4
622.599	1	-1
622.769	1	11
622.939	1	4
623.108	1	4
623.278	1	8
623.448	1	3
623.617	1	-1
623.787	1	8
623.956	1	14
624.126	1	17
624.296	1	-2
624.465	1	1
624.635	1	-2
624.804	1	-3
624.974	1	12
625.144	1	0
625.313	1	-3
625.483	1	17
625.652	1	5
625.822	1	1
625.992	1	9
626.161	1	12
626.331	1	5
626.501	1	9
626.670	1	4
626.840	1	9
627.009	1	11
627.179	1	1
627.348	1	14
627.518	1	0
627.688	1	5
627.857	1	8
628.027	1	5
628.196	1	14
628.366	1	-4
628.536	1	-3
628.705	1	6
628.875	1	13
629.044	1	3
629.214	1	1
629.384	1	7
629.553	1	4
629.723	1	-1
629.892	1	12
630.062	1	13
630.232	1	0
630.401	1	8
630.571	1	10
630.740	1	4
630.910	1	6
631.079	1	-2
631.249	1	3
631.419	1	-5
631.588	1	-5
631.758	1	15
631.927	1	0
632.097	1	0
632.266	1	2
632.436	1	9
632.606	1	5
632.775	1	16
632.945	1	10
633.114	1	-5
633.284	1	4
633.453	1	-1
633.623	1	12
633.793	1	-12
633.962	1	4
634.132	1	3
634.301	1	8
634.471	1	6
634.640	1	8
634.810	1	5
634.979	1	0
635.149	1	1
635.319	1	9
635.488	1	17
635.658	1	10
635.827	1	15
635.997	1	6
636.166	1	6
636.336	1	10
636.505	1	9
636.675	1	8
636.845	1	-3
637.014	1	5
637.184	1	0
637.353	1	3
637.523	1	5
637.692	1	18
637.862	1	3
638.031	1	2
638.201	1	12
638.370	1	4
638.540	1	4
638.710	1	17
638.879	1	2
639.049	1	6
639.218	1	3
639.388	1	3
639.557	1	9
639.727	1	-2
639.896	1	6
640.066	1	7
640.235	1	2
640.405	1	-2
640.574	1	4
640.744	1	8
640.914	1	10
641.083	1	3
641.253	1	18
641.422	1	-3
641.592	1	0
641.761	1	3
641.931	1	9
642.100	1	-2
642.270	1	-2
642.439	1	-2
642.609	1	7
642.778	1	7
642.948	1	9
643.117	1	14
643.287	1	-4
643.456	1	8
643.626	1	12
643.795	1	12
643.965	1	1
644.134	1	8
644.304	1	7
644.473	1	7
644.643	1	9
644.812	1	15
644.982	1	12
645.151	1	16
645.321	1	0
645.490	1	-13
645.660	1	-1
645.829	1	3
645.999	1	3
646.168	1	3
646.338	1	4
646.507	1	12
646.677	1	4
646.846	1	9
647.016	1	14
647.185	1	-6
647.355	1	3
647.524	1	5
647.694	1	-1
647.863	1	6
648.033	1	-7
648.202	1	10
648.372	1	17
648.541	1	13
648.711	1	6
648.880	1	12
649.050	1	3
649.219	1	-7
649.389	1	1
649.558	1	4
649.728	1	3
649.897	1	5
650.067	1	4
650.236	1	10
650.406	1	-10
650.575	1	5
650.745	1	6
650.914	1	-1
651.084	1	-8
651.253	1	3
651.423	1	10
651.592	1	15
651.762	1	13
651.931	1	3
652.101	1	2
652.270	1	8
652.440	1	-1
652.609	1	2
652.778	1	2
652.948	1	9
653.117	1	-4
653.287	1	13
653.456	1	1
653.626	1	-4
653.795	1	7
653.965	1	11
654.134	1	5
654.304	1	9
654.473	1	3
654.643	1	4
654.812	1	-2
654.982	1	9
655.151	1	4
655.320	1	7
655.490	1	6
655.659	1	8
655.829	1	3
655.998	1	-3
656.168	1	-8
656.337	1	19
656.507	1	-7
656.676	1	6
656.846	1	5
657.015	1	3
657.184	1	-11
657.354	1	3
657.523	1	0
657.693	1	3
657.862	1	7
658.032	1	3
658.201	1	4
658.371	1	2
658.540	1	0
658.709	1	0
658.879	1	-17
659.048	1	1
659.218	1	0
659.387	1	2
659.557	1	5
659.726	1	9
659.895	1	8
660.065	1	-18
660.234	1	2
660.404	1	8
660.573	1	14
660.743	1	6
660.912	1	3
661.081	1	15
661.251	1	-4
661.420	1	-2
661.590	1	1
661.759	1	12
661.929	1	7
662.098	1	4
662.267	1	0
662.437	1	0
662.606	1	9
662.776	1	4
662.945	1	-1
663.115	1	2
663.284	1	4
663.453	1	1
663.623	1	10
663.792	1	3
663.962	1	3
664.131	1	1
664.300	1	6
664.470	1	6
664.639	1	-1
664.809	1	-3
664.978	1	-1
665.148	1	1
665.317	1	-4
665.486	1	5
665.656	1	3
665.825	1	7
665.995	1	-7
666.164	1	7
666.333	1	13
666.503	1	-2
666.672	1	6
666.842	1	-2
667.011	1	14
667.180	1	-4
667.350	1	12
667.519	1	10
667.689	1	-6
667.858	1	5
668.027	1	10
668.197	1	8
668.366	1	1
668.536	1	14
668.705	1	7
668.874	1	11
669.044	1	-5
669.213	1	-3
669.382	1	5
669.552	1	4
669.721	1	13
669.891	1	-4
670.060	1	16
670.229	1	1
670.399	1	11
670.568	1	1
670.738	1	-11
670.907	1	-6
671.076	1	1
671.246	1	6
671.415	1	2
671.584	1	-1
671.754	1	7
671.923	1	4
672.093	1	14
672.262	1	3
672.431	1	-2
672.601	1	9
672.770	1	6
672.939	1	3
673.109	1	8
673.278	1	6
673.448	1	-4
673.617	1	-7
673.786	1	10
