325.333	1	26
325.504	1	16
325.675	1	13
325.846	1	18
326.017	1	13
326.188	1	16
326.359	1	20
326.531	1	6
326.702	1	13
326.873	1	14
327.044	1	13
327.215	1	24
327.386	1	26
327.557	1	10
327.728	1	28
327.899	1	29
328.070	1	14
328.241	1	30
328.412	1	12
328.583	1	15
328.754	1	20
328.926	1	10
329.097	1	11
329.268	1	28
329.439	1	17
329.610	1	24
329.781	1	12
329.952	1	15
330.123	1	16
330.294	1	9
330.465	1	21
330.636	1	17
330.807	1	23
330.978	1	22
331.149	1	26
331.320	1	24
331.492	1	19
331.663	1	16
331.834	1	15
332.005	1	19
332.176	1	11
332.347	1	33
332.518	1	19
332.689	1	25
332.860	1	29
333.031	1	18
333.202	1	12
333.373	1	23
333.544	1	19
333.715	1	19
333.886	1	15
334.057	1	19
334.228	1	15
334.399	1	22
334.570	1	20
334.741	1	19
334.912	1	21
335.084	1	14
335.255	1	23
335.426	1	14
335.597	1	26
335.768	1	25
335.939	1	24
336.110	1	19
336.281	1	24
336.452	1	19
336.623	1	21
336.794	1	14
336.965	1	12
337.136	1	10
337.307	1	23
337.478	1	12
337.649	1	28
337.820	1	29
337.991	1	20
338.162	1	22
338.333	1	27
338.504	1	12
338.675	1	14
338.846	1	28
339.017	1	29
339.188	1	23
339.359	1	30
339.530	1	25
339.701	1	21
339.872	1	28
340.043	1	3
340.214	1	12
340.385	1	20
340.556	1	20
340.727	1	25
340.898	1	32
341.069	1	25
341.240	1	28
341.411	1	25
341.582	1	21
341.753	1	15
341.924	1	25
342.095	1	19
342.266	1	23
342.437	1	33
342.608	1	32
342.779	1	18
342.950	1	33
343.121	1	29
343.292	1	22
343.463	1	27
343.634	1	18
343.805	1	17
343.976	1	24
344.147	1	29
344.318	1	21
344.489	1	30
344.660	1	34
344.831	1	23
345.002	1	24
345.173	1	17
345.344	1	26
345.515	1	21
345.686	1	34
345.857	1	26
346.028	1	30
346.199	1	19
346.370	1	34
346.541	1	25
346.712	1	19
346.883	1	33
347.054	1	29
347.225	1	20
347.396	1	25
347.567	1	39
347.738	1	12
347.909	1	29
348.080	1	31
348.251	1	18
348.422	1	29
348.593	1	23
348.764	1	29
348.935	1	31
349.106	1	33
349.277	1	31
349.448	1	29
349.619	1	28
349.790	1	37
349.961	1	40
350.132	1	36
350.303	1	33
350.474	1	28
350.645	1	34
350.816	1	26
350.987	1	42
351.157	1	34
351.328	1	36
351.499	1	28
351.670	1	29
351.841	1	41
352.012	1	33
352.183	1	37
352.354	1	19
352.525	1	35
352.696	1	42
352.867	1	27
353.038	1	26
353.209	1	40
353.380	1	22
353.551	1	21
353.722	1	32
353.893	1	22
354.064	1	30
354.235	1	35
354.406	1	36
354.576	1	41
354.747	1	35
354.918	1	35
355.089	1	35
355.260	1	45
355.431	1	35
355.602	1	40
355.773	1	26
355.944	1	22
356.115	1	45
356.286	1	38
356.457	1	29
356.628	1	29
356.799	1	34
356.970	1	31
357.141	1	22
357.311	1	36
357.482	1	32
357.653	1	27
357.824	1	35
357.995	1	32
358.166	1	17
358.337	1	35
358.508	1	29
358.679	1	25
358.850	1	29
359.021	1	29
359.192	1	35
359.363	1	26
359.533	1	9
359.704	1	36
359.875	1	38
360.046	1	34
360.217	1	40
360.388	1	41
360.559	1	29
360.730	1	39
360.901	1	29
361.072	1	29
361.243	1	28
361.414	1	31
361.584	1	14
361.755	1	21
361.926	1	38
362.097	1	25
362.268	1	21
362.439	1	31
362.610	1	22
362.781	1	30
362.952	1	53
363.123	1	34
363.293	1	38
363.464	1	27
363.635	1	41
363.806	1	43
363.977	1	32
364.148	1	38
364.319	1	36
364.490	1	49
364.661	1	30
364.832	1	41
365.002	1	41
365.173	1	26
365.344	1	30
365.515	1	26
365.686	1	30
365.857	1	28
366.028	1	35
366.199	1	29
366.370	1	29
366.540	1	38
366.711	1	45
366.882	1	23
367.053	1	31
367.224	1	36
367.395	1	29
367.566	1	28
367.737	1	30
367.908	1	38
368.078	1	34
368.249	1	41
368.420	1	37
368.591	1	30
368.762	1	30
368.933	1	30
369.104	1	39
369.274	1	21
369.445	1	43
369.616	1	34
369.787	1	45
369.958	1	34
370.129	1	35
370.300	1	36
370.471	1	45
370.641	1	40
370.812	1	32
370.983	1	32
371.154	1	24
371.325	1	39
371.496	1	38
371.667	1	45
371.837	1	33
372.008	1	22
372.179	1	42
372.350	1	34
372.521	1	42
372.692	1	31
372.863	1	35
373.033	1	38
373.204	1	29
373.375	1	31
373.546	1	46
373.717	1	31
373.888	1	42
374.059	1	39
374.229	1	36
374.400	1	34
374.571	1	30
374.742	1	26
374.913	1	40
375.084	1	42
375.254	1	47
375.425	1	33
375.596	1	51
375.767	1	37
375.938	1	40
376.109	1	41
376.279	1	35
376.450	1	34
376.621	1	40
376.792	1	40
376.963	1	40
377.134	1	45
377.304	1	40
377.475	1	37
377.646	1	30
377.817	1	36
377.988	1	45
378.159	1	51
378.329	1	41
378.500	1	53
378.671	1	46
378.842	1	39
379.013	1	45
379.184	1	43
379.354	1	38
379.525	1	35
379.696	1	42
379.867	1	42
380.038	1	47
380.209	1	42
380.379	1	46
380.550	1	45
380.721	1	39
380.892	1	29
381.063	1	43
381.233	1	51
381.404	1	44
381.575	1	42
381.746	1	58
381.917	1	45
382.087	1	54
382.258	1	59
382.429	1	38
382.600	1	43
382.771	1	45
382.941	1	55
383.112	1	39
383.283	1	53
383.454	1	49
383.625	1	43
383.795	1	49
383.966	1	35
384.137	1	42
384.308	1	42
384.479	1	27
384.649	1	44
384.820	1	46
384.991	1	41
385.162	1	48
385.333	1	50
385.503	1	49
385.674	1	39
385.845	1	48
386.016	1	40
386.187	1	42
386.357	1	38
386.528	1	27
386.699	1	43
386.870	1	37
387.041	1	59
387.211	1	42
387.382	1	38
387.553	1	45
387.724	1	55
387.894	1	53
388.065	1	43
388.236	1	49
388.407	1	44
388.578	1	48
388.748	1	46
388.919	1	42
389.090	1	52
389.261	1	38
389.431	1	50
389.602	1	57
389.773	1	57
389.944	1	64
390.114	1	55
390.285	1	45
390.456	1	37
390.627	1	52
390.798	1	47
390.968	1	51
391.139	1	39
391.310	1	52
391.481	1	62
391.651	1	65
391.822	1	53
391.993	1	56
392.164	1	56
392.334	1	32
392.505	1	48
392.676	1	57
392.847	1	63
393.017	1	63
393.188	1	55
393.359	1	55
393.530	1	53
393.700	1	47
393.871	1	46
394.042	1	44
394.213	1	45
394.383	1	55
394.554	1	67
394.725	1	50
394.896	1	56
395.066	1	46
395.237	1	54
395.408	1	60
395.579	1	50
395.749	1	52
395.920	1	40
396.091	1	61
396.262	1	50
396.432	1	57
396.603	1	44
396.774	1	42
396.945	1	54
397.115	1	61
397.286	1	44
397.457	1	51
397.627	1	49
397.798	1	48
397.969	1	54
398.140	1	44
398.310	1	53
398.481	1	56
398.652	1	52
398.823	1	59
398.993	1	65
399.164	1	60
399.335	1	62
399.505	1	56
399.676	1	49
399.847	1	67
400.018	1	70
400.188	1	45
400.359	1	56
400.530	1	62
400.700	1	63
400.871	1	56
401.042	1	63
401.213	1	50
401.383	1	57
401.554	1	63
401.725	1	53
401.895	1	57
402.066	1	59
402.237	1	74
402.408	1	54
402.578	1	60
402.749	1	57
402.920	1	62
403.090	1	70
403.261	1	71
403.432	1	61
403.603	1	56
403.773	1	63
403.944	1	55
404.115	1	64
404.285	1	64
404.456	1	63
404.627	1	61
404.797	1	64
404.968	1	60
405.139	1	60
405.310	1	68
405.480	1	67
405.651	1	51
405.822	1	69
405.992	1	64
406.163	1	72
406.334	1	62
406.504	1	69
406.675	1	74
406.846	1	65
407.016	1	65
407.187	1	61
407.358	1	65
407.528	1	75
407.699	1	49
407.870	1	69
408.041	1	69
408.211	1	62
408.382	1	75
408.553	1	71
408.723	1	71
408.894	1	57
409.065	1	60
409.235	1	67
409.406	1	67
409.577	1	51
409.747	1	59
409.918	1	67
410.089	1	77
410.259	1	57
410.430	1	65
410.601	1	59
410.771	1	74
410.942	1	75
411.113	1	71
411.283	1	65
411.454	1	80
411.625	1	71
411.795	1	70
411.966	1	81
412.137	1	72
412.307	1	61
412.478	1	70
412.649	1	72
412.819	1	79
412.990	1	67
413.161	1	75
413.331	1	68
413.502	1	74
413.672	1	79
413.843	1	73
414.014	1	74
414.184	1	63
414.355	1	79
414.526	1	78
414.696	1	67
414.867	1	72
415.038	1	81
415.208	1	79
415.379	1	76
415.550	1	76
415.720	1	61
415.891	1	89
416.062	1	72
416.232	1	50
416.403	1	69
416.573	1	77
416.744	1	60
416.915	1	84
417.085	1	70
417.256	1	65
417.427	1	57
417.597	1	77
417.768	1	69
417.939	1	67
418.109	1	53
418.280	1	69
418.450	1	70
418.621	1	67
418.792	1	68
418.962	1	57
419.133	1	64
419.304	1	63
419.474	1	73
419.645	1	70
419.815	1	55
419.986	1	71
420.157	1	69
420.327	1	62
420.498	1	59
420.669	1	66
420.839	1	60
421.010	1	61
421.180	1	74
421.351	1	81
421.522	1	67
421.692	1	70
421.863	1	75
422.033	1	52
422.204	1	72
422.375	1	68
422.545	1	83
422.716	1	61
422.886	1	64
423.057	1	72
423.228	1	69
423.398	1	72
423.569	1	65
423.740	1	76
423.910	1	81
424.081	1	60
424.251	1	57
424.422	1	69
424.593	1	70
424.763	1	73
424.934	1	65
425.104	1	65
425.275	1	69
425.445	1	62
425.616	1	63
425.787	1	66
425.957	1	66
426.128	1	75
426.298	1	65
426.469	1	63
426.640	1	59
426.810	1	80
426.981	1	78
427.151	1	81
427.322	1	79
427.493	1	69
427.663	1	77
427.834	1	56
428.004	1	62
428.175	1	71
428.345	1	81
428.516	1	68
428.687	1	81
428.857	1	68
429.028	1	63
429.198	1	75
429.369	1	71
429.540	1	65
429.710	1	68
429.881	1	53
430.051	1	66
430.222	1	65
430.392	1	63
430.563	1	75
430.734	1	69
430.904	1	58
431.075	1	63
431.245	1	57
431.416	1	65
431.586	1	59
431.757	1	67
431.927	1	80
432.098	1	50
432.269	1	67
432.439	1	73
432.610	1	82
432.780	1	59
432.951	1	69
433.121	1	65
433.292	1	55
433.462	1	56
433.633	1	56
433.804	1	49
433.974	1	61
434.145	1	59
434.315	1	63
434.486	1	73
434.656	1	70
434.827	1	54
434.997	1	74
435.168	1	68
435.339	1	63
435.509	1	63
435.680	1	69
435.850	1	70
436.021	1	88
436.191	1	67
436.362	1	63
436.532	1	64
436.703	1	72
436.873	1	62
437.044	1	64
437.214	1	66
437.385	1	72
437.556	1	61
437.726	1	68
437.897	1	68
438.067	1	55
438.238	1	54
438.408	1	55
438.579	1	70
438.749	1	60
438.920	1	70
439.090	1	67
439.261	1	56
439.431	1	54
439.602	1	54
439.772	1	65
439.943	1	67
440.113	1	71
440.284	1	60
440.455	1	63
440.625	1	75
440.796	1	57
440.966	1	58
441.137	1	48
441.307	1	55
441.478	1	60
441.648	1	56
441.819	1	70
441.989	1	58
442.160	1	66
442.330	1	70
442.501	1	57
442.671	1	53
442.842	1	58
443.012	1	63
443.183	1	58
443.353	1	56
443.524	1	52
443.694	1	57
443.865	1	60
444.035	1	60
444.206	1	60
444.376	1	54
444.547	1	72
444.717	1	53
444.888	1	60
445.058	1	49
445.229	1	53
445.399	1	63
445.570	1	54
445.740	1	45
445.911	1	55
446.081	1	69
446.252	1	53
446.422	1	49
446.593	1	47
446.763	1	46
446.934	1	57
447.104	1	64
447.275	1	61
447.445	1	62
447.616	1	62
447.786	1	59
447.957	1	55
448.127	1	53
448.298	1	50
448.468	1	46
448.639	1	54
448.809	1	64
448.979	1	44
449.150	1	59
449.320	1	56
449.491	1	56
449.661	1	64
449.832	1	57
450.002	1	49
450.173	1	40
450.343	1	58
450.514	1	50
450.684	1	47
450.855	1	65
451.025	1	58
451.196	1	55
451.366	1	70
451.537	1	53
451.707	1	49
451.878	1	49
452.048	1	46
452.218	1	59
452.389	1	62
452.559	1	43
452.730	1	58
452.900	1	59
453.071	1	55
453.241	1	54
453.412	1	56
453.582	1	63
453.753	1	43
453.923	1	51
454.093	1	68
454.264	1	63
454.434	1	53
454.605	1	58
454.775	1	57
454.946	1	65
455.116	1	47
455.287	1	44
455.457	1	52
455.628	1	58
455.798	1	60
455.968	1	52
456.139	1	49
456.309	1	49
456.480	1	59
456.650	1	60
456.821	1	50
456.991	1	48
457.161	1	50
457.332	1	44
457.502	1	52
457.673	1	44
457.843	1	55
458.014	1	51
458.184	1	48
458.355	1	46
458.525	1	37
458.695	1	39
458.866	1	43
459.036	1	45
459.207	1	54
459.377	1	53
459.548	1	54
459.718	1	49
459.888	1	55
460.059	1	49
460.229	1	39
460.400	1	56
460.570	1	55
460.740	1	44
460.911	1	43
461.081	1	42
461.252	1	55
461.422	1	46
461.593	1	32
461.763	1	51
461.933	1	36
462.104	1	45
462.274	1	41
462.445	1	39
462.615	1	37
462.785	1	46
462.956	1	43
463.126	1	36
463.297	1	45
463.467	1	56
463.638	1	40
463.808	1	34
463.978	1	41
464.149	1	64
464.319	1	40
464.490	1	42
464.660	1	48
464.830	1	40
465.001	1	57
465.171	1	44
465.342	1	52
465.512	1	36
465.682	1	41
465.853	1	41
466.023	1	52
466.194	1	46
466.364	1	43
466.534	1	44
466.705	1	59
466.875	1	46
467.045	1	35
467.216	1	37
467.386	1	48
467.557	1	40
467.727	1	38
467.897	1	31
468.068	1	50
468.238	1	43
468.409	1	38
468.579	1	40
468.749	1	38
468.920	1	37
469.090	1	42
469.260	1	39
469.431	1	40
469.601	1	36
469.772	1	37
469.942	1	50
470.112	1	39
470.283	1	48
470.453	1	42
470.623	1	46
470.794	1	47
470.964	1	27
471.135	1	41
471.305	1	46
471.475	1	36
471.646	1	28
471.816	1	36
471.986	1	42
472.157	1	28
472.327	1	45
472.497	1	22
472.668	1	37
472.838	1	32
473.009	1	50
473.179	1	43
473.349	1	28
473.520	1	37
473.690	1	35
473.860	1	38
474.031	1	34
474.201	1	42
474.371	1	31
474.542	1	39
474.712	1	30
474.882	1	46
475.053	1	43
475.223	1	41
475.394	1	49
475.564	1	35
475.734	1	32
475.905	1	40
476.075	1	27
476.245	1	39
476.416	1	29
476.586	1	35
476.756	1	39
476.927	1	37
477.097	1	38
477.267	1	36
477.438	1	17
477.608	1	38
477.778	1	43
477.949	1	34
478.119	1	33
478.289	1	44
478.460	1	39
478.630	1	24
478.800	1	34
478.971	1	46
479.141	1	35
479.311	1	46
479.482	1	34
479.652	1	36
479.822	1	34
479.993	1	33
480.163	1	36
480.333	1	38
480.504	1	37
480.674	1	38
480.844	1	34
481.015	1	32
481.185	1	39
481.355	1	27
481.525	1	33
481.696	1	47
481.866	1	34
482.036	1	32
482.207	1	26
482.377	1	36
482.547	1	41
482.718	1	31
482.888	1	29
483.058	1	34
483.229	1	40
483.399	1	32
483.569	1	27
483.740	1	32
483.910	1	28
484.080	1	38
484.250	1	32
484.421	1	37
484.591	1	35
484.761	1	36
484.932	1	37
485.102	1	35
485.272	1	34
485.443	1	26
485.613	1	37
485.783	1	30
485.953	1	20
486.124	1	20
486.294	1	35
486.464	1	24
486.635	1	29
486.805	1	24
486.975	1	26
487.146	1	24
487.316	1	30
487.486	1	32
487.656	1	30
487.827	1	24
487.997	1	26
488.167	1	41
488.338	1	21
488.508	1	26
488.678	1	27
488.848	1	38
489.019	1	16
489.189	1	34
489.359	1	18
489.529	1	18
489.700	1	21
489.870	1	18
490.040	1	15
490.211	1	29
490.381	1	26
490.551	1	9
490.721	1	29
490.892	1	38
491.062	1	18
491.232	1	15
491.402	1	34
491.573	1	20
491.743	1	14
491.913	1	34
492.084	1	11
492.254	1	36
492.424	1	28
492.594	1	28
492.765	1	22
492.935	1	33
493.105	1	25
493.275	1	26
493.446	1	22
493.616	1	24
493.786	1	29
493.956	1	19
494.127	1	20
494.297	1	18
494.467	1	27
494.637	1	19
494.808	1	26
494.978	1	19
495.148	1	37
495.318	1	20
495.489	1	22
495.659	1	40
495.829	1	23
495.999	1	21
496.170	1	26
496.340	1	33
496.510	1	15
496.680	1	30
496.851	1	10
497.021	1	19
497.191	1	26
497.361	1	23
497.532	1	17
497.702	1	24
497.872	1	15
498.042	1	19
498.213	1	21
498.383	1	26
498.553	1	16
498.723	1	13
498.894	1	28
499.064	1	20
499.234	1	20
499.404	1	23
499.574	1	27
499.745	1	11
499.915	1	23
500.085	1	27
500.255	1	22
500.426	1	19
500.596	1	36
500.766	1	23
500.936	1	20
501.106	1	32
501.277	1	22
501.447	1	18
501.617	1	23
501.787	1	32
501.958	1	32
502.128	1	27
502.298	1	25
502.468	1	23
502.638	1	20
502.809	1	11
502.979	1	20
503.149	1	24
503.319	1	22
503.489	1	15
503.660	1	18
503.830	1	23
504.000	1	20
504.170	1	18
504.340	1	16
504.511	1	36
504.681	1	25
504.851	1	26
505.021	1	24
505.192	1	11
505.362	1	16
505.532	1	19
505.702	1	20
505.872	1	22
506.043	1	9
506.213	1	22
506.383	1	40
506.553	1	25
506.723	1	25
506.893	1	23
507.064	1	19
507.234	1	22
507.404	1	31
507.574	1	11
507.744	1	19
507.915	1	14
508.085	1	0
508.255	1	22
508.425	1	14
508.595	1	22
508.766	1	5
508.936	1	21
509.106	1	12
509.276	1	23
509.446	1	13
509.616	1	14
509.787	1	23
509.957	1	10
510.127	1	17
510.297	1	11
510.467	1	18
510.638	1	24
510.808	1	10
510.978	1	25
511.148	1	32
511.318	1	19
511.488	1	23
511.659	1	16
511.829	1	11
511.999	1	10
512.169	1	3
512.339	1	8
512.509	1	19
512.680	1	12
512.850	1	19
513.020	1	16
513.190	1	14
513.360	1	15
513.530	1	24
513.700	1	12
513.871	1	15
514.041	1	14
514.211	1	13
514.381	1	31
514.551	1	10
514.721	1	16
514.892	1	15
515.062	1	27
515.232	1	21
515.402	1	22
515.572	1	11
515.742	1	23
515.912	1	12
516.083	1	19
516.253	1	19
516.423	1	11
516.593	1	6
516.763	1	24
516.933	1	23
517.104	1	13
517.274	1	27
517.444	1	13
517.614	1	17
517.784	1	15
517.954	1	11
518.124	1	11
518.294	1	16
518.465	1	23
518.635	1	14
518.805	1	14
518.975	1	13
519.145	1	18
519.315	1	18
519.485	1	15
519.656	1	23
519.826	1	4
519.996	1	17
520.166	1	13
520.336	1	0
520.506	1	25
520.676	1	21
520.846	1	16
521.017	1	8
521.187	1	21
521.357	1	13
521.527	1	17
521.697	1	14
521.867	1	13
522.037	1	9
522.207	1	19
522.377	1	6
522.548	1	17
522.718	1	18
522.888	1	21
523.058	1	18
523.228	1	9
523.398	1	20
523.568	1	17
523.738	1	20
523.909	1	19
524.079	1	12
524.249	1	7
524.419	1	23
524.589	1	12
524.759	1	16
524.929	1	15
525.099	1	2
525.269	1	3
525.439	1	14
525.610	1	7
525.780	1	12
525.950	1	19
526.120	1	18
526.290	1	9
526.460	1	15
526.630	1	22
526.800	1	8
526.970	1	13
527.140	1	19
527.311	1	20
527.481	1	5
527.651	1	15
527.821	1	16
527.991	1	9
528.161	1	9
528.331	1	9
528.501	1	6
528.671	1	12
528.841	1	20
529.011	1	13
529.181	1	16
529.352	1	22
529.522	1	10
529.692	1	16
529.862	1	10
530.032	1	7
530.202	1	18
530.372	1	18
530.542	1	10
530.712	1	15
530.882	1	20
531.052	1	17
531.222	1	10
531.392	1	12
531.563	1	9
531.733	1	7
531.903	1	21
532.073	1	22
532.243	1	18
532.413	1	11
532.583	1	13
532.753	1	21
532.923	1	10
533.093	1	18
533.263	1	12
533.433	1	8
533.603	1	8
533.773	1	6
533.943	1	16
534.113	1	12
534.284	1	1
534.454	1	15
534.624	1	13
534.794	1	19
534.964	1	12
535.134	1	16
535.304	1	21
535.474	1	11
535.644	1	14
535.814	1	13
535.984	1	3
536.154	1	11
536.324	1	6
536.494	1	9
536.664	1	16
536.834	1	20
537.004	1	21
537.174	1	11
537.344	1	17
537.514	1	10
537.685	1	6
537.855	1	13
538.025	1	8
538.195	1	18
538.365	1	11
538.535	1	8
538.705	1	4
538.875	1	17
539.045	1	11
539.215	1	13
539.385	1	4
539.555	1	12
539.725	1	2
539.895	1	12
540.065	1	6
540.235	1	12
540.405	1	-4
540.575	1	11
540.745	1	1
540.915	1	13
541.085	1	8
541.255	1	23
541.425	1	-2
541.595	1	24
541.765	1	21
541.935	1	10
542.105	1	10
542.275	1	10
542.445	1	8
542.615	1	12
542.785	1	8
542.955	1	2
543.125	1	11
543.295	1	12
543.465	1	8
543.635	1	16
543.805	1	10
543.975	1	6
544.145	1	20
544.315	1	3
544.485	1	9
544.655	1	10
544.825	1	13
544.995	1	16
545.165	1	13
545.335	1	0
545.505	1	-1
545.675	1	0
545.845	1	16
546.015	1	6
546.185	1	5
546.355	1	7
546.525	1	5
546.695	1	7
546.865	1	11
547.035	1	8
547.205	1	8
547.375	1	13
547.545	1	11
547.715	1	14
547.885	1	8
548.055	1	7
548.225	1	10
548.395	1	3
548.565	1	12
548.735	1	12
548.905	1	6
549.075	1	11
549.245	1	11
549.415	1	12
549.585	1	11
549.755	1	16
549.925	1	4
550.095	1	12
550.265	1	16
550.435	1	9
550.605	1	9
550.775	1	16
550.945	1	14
551.115	1	12
551.285	1	6
551.455	1	5
551.625	1	5
551.795	1	9
551.965	1	16
552.135	1	7
552.305	1	11
552.475	1	11
552.645	1	9
552.815	1	5
552.985	1	7
553.155	1	16
553.325	1	4
553.495	1	6
553.665	1	10
553.835	1	8
554.004	1	16
554.174	1	11
554.344	1	16
554.514	1	9
554.684	1	8
554.854	1	9
555.024	1	11
555.194	1	5
555.364	1	10
555.534	1	4
555.704	1	14
555.874	1	13
556.044	1	8
556.214	1	16
556.384	1	17
556.554	1	1
556.724	1	4
556.894	1	1
557.064	1	9
557.234	1	3
557.404	1	11
557.573	1	-3
557.743	1	7
557.913	1	14
558.083	1	9
558.253	1	10
558.423	1	6
558.593	1	10
558.763	1	21
558.933	1	11
559.103	1	15
559.273	1	8
559.443	1	3
559.613	1	3
559.783	1	-1
559.953	1	19
560.122	1	5
560.292	1	26
560.462	1	12
560.632	1	1
560.802	1	12
560.972	1	11
561.142	1	5
561.312	1	9
561.482	1	6
561.652	1	9
561.822	1	-4
561.992	1	2
562.162	1	16
562.331	1	4
562.501	1	9
562.671	1	11
562.841	1	1
563.011	1	12
563.181	1	8
563.351	1	7
563.521	1	10
563.691	1	9
563.861	1	11
564.031	1	1
564.201	1	12
564.370	1	9
564.540	1	16
564.710	1	18
564.880	1	2
565.050	1	10
565.220	1	5
565.390	1	11
565.560	1	11
565.730	1	7
565.900	1	4
566.069	1	9
566.239	1	3
566.409	1	4
566.579	1	5
566.749	1	-1
566.919	1	2
567.089	1	12
567.259	1	10
567.429	1	7
567.599	1	6
567.768	1	17
567.938	1	-5
568.108	1	18
568.278	1	15
568.448	1	7
568.618	1	0
568.788	1	16
568.958	1	0
569.128	1	20
569.297	1	5
569.467	1	7
569.637	1	24
569.807	1	7
569.977	1	7
570.147	1	13
570.317	1	12
570.487	1	3
570.656	1	-10
570.826	1	5
570.996	1	-10
571.166	1	15
571.336	1	3
571.506	1	11
571.676	1	16
571.846	1	9
572.015	1	0
572.185	1	12
572.355	1	-5
572.525	1	-5
572.695	1	14
572.865	1	-6
573.035	1	9
573.205	1	24
573.374	1	13
573.544	1	15
573.714	1	4
573.884	1	6
574.054	1	4
574.224	1	0
574.394	1	-5
574.563	1	20
574.733	1	7
574.903	1	19
575.073	1	11
575.243	1	10
575.413	1	4
575.583	1	15
575.752	1	4
575.922	1	1
576.092	1	2
576.262	1	9
576.432	1	15
576.602	1	-1
576.772	1	8
576.941	1	12
577.111	1	11
577.281	1	5
577.451	1	11
577.621	1	13
577.791	1	5
577.960	1	-5
578.130	1	7
578.300	1	-1
578.470	1	10
578.640	1	7
578.810	1	8
578.979	1	10
579.149	1	8
579.319	1	2
579.489	1	-4
579.659	1	-4
579.829	1	9
579.998	1	9
580.168	1	9
580.338	1	18
580.508	1	16
580.678	1	8
580.848	1	10
581.017	1	17
581.187	1	9
581.357	1	3
581.527	1	8
581.697	1	10
581.867	1	15
582.036	1	-1
582.206	1	15
582.376	1	9
582.546	1	-10
582.716	1	0
582.885	1	0
583.055	1	6
583.225	1	4
583.395	1	11
583.565	1	-2
583.735	1	8
583.904	1	2
584.074	1	-5
584.244	1	3
584.414	1	3
584.584	1	7
584.753	1	8
584.923	1	6
585.093	1	11
585.263	1	8
585.433	1	8
585.602	1	6
585.772	1	4
585.942	1	4
586.112	1	-2
586.282	1	9
586.451	1	14
586.621	1	13
586.791	1	16
586.961	1	8
587.131	1	1
587.300	1	8
587.470	1	-1
587.640	1	10
587.810	1	14
587.980	1	2
588.149	1	11
588.319	1	6
588.489	1	8
588.659	1	5
588.829	1	8
588.998	1	17
589.168	1	15
589.338	1	9
589.508	1	9
589.677	1	21
589.847	1	8
590.017	1	0
590.187	1	11
590.357	1	7
590.526	1	4
590.696	1	-4
590.866	1	0
591.036	1	17
591.205	1	15
591.375	1	2
591.545	1	4
591.715	1	1
591.885	1	3
592.054	1	3
592.224	1	3
592.394	1	0
592.564	1	13
592.733	1	-6
592.903	1	5
593.073	1	10
593.243	1	16
593.412	1	7
593.582	1	2
593.752	1	3
593.922	1	-1
594.091	1	5
594.261	1	5
594.431	1	12
594.601	1	9
594.771	1	10
594.940	1	8
595.110	1	16
595.280	1	4
595.450	1	12
595.619	1	9
595.789	1	11
595.959	1	12
596.129	1	-2
596.298	1	16
596.468	1	7
596.638	1	12
596.808	1	10
596.977	1	3
597.147	1	-5
597.317	1	-5
597.487	1	5
597.656	1	-1
597.826	1	16
597.996	1	13
598.166	1	15
598.335	1	12
598.505	1	13
598.675	1	-6
598.844	1	3
599.014	1	13
599.184	1	12
599.354	1	12
599.523	1	5
599.693	1	14
599.863	1	11
600.033	1	-1
600.202	1	15
600.372	1	5
600.542	1	7
600.712	1	12
600.881	1	1
601.051	1	14
601.221	1	3
601.390	1	-9
601.560	1	17
601.730	1	19
601.900	1	9
602.069	1	9
602.239	1	14
602.409	1	19
602.578	1	11
602.748	1	12
602.918	1	11
603.088	1	16
603.257	1	15
603.427	1	7
603.597	1	10
603.767	1	14
603.936	1	2
604.106	1	4
604.276	1	18
604.445	1	15
604.615	1	13
604.785	1	15
604.954	1	24
605.124	1	7
605.294	1	13
605.464	1	9
605.633	1	14
605.803	1	13
605.973	1	15
606.142	1	6
606.312	1	4
606.482	1	17
606.652	1	3
606.821	1	11
606.991	1	6
607.161	1	3
607.330	1	-11
607.500	1	7
607.670	1	19
607.839	1	21
608.009	1	10
608.179	1	6
608.348	1	15
608.518	1	1
608.688	1	4
608.858	1	16
609.027	1	15
609.197	1	-5
609.367	1	25
609.536	1	6
609.706	1	13
609.876	1	18
610.045	1	9
610.215	1	15
610.385	1	6
610.554	1	10
610.724	1	-4
610.894	1	15
611.063	1	1
611.233	1	7
611.403	1	2
611.572	1	11
611.742	1	14
611.912	1	13
612.081	1	3
612.251	1	15
612.421	1	13
612.590	1	1
612.760	1	10
612.930	1	9
613.099	1	14
613.269	1	3
613.439	1	8
613.608	1	11
613.778	1	2
613.948	1	1
614.117	1	3
614.287	1	10
614.457	1	-3
614.626	1	16
614.796	1	0
614.966	1	13
615.135	1	5
615.305	1	11
615.475	1	10
615.644	1	10
615.814	1	-5
615.984	1	8
616.153	1	9
616.323	1	10
616.493	1	25
616.662	1	20
616.832	1	11
617.002	1	5
617.171	1	4
617.341	1	13
617.511	1	17
617.680	1	17
617.850	1	7
618.019	1	12
618.189	1	16
618.359	1	9
618.528	1	9
618.698	1	17
618.868	1	7
619.037	1	15
619.207	1	13
619.377	1	7
619.546	1	12
619.716	1	18
619.885	1	8
620.055	1	10
620.225	1	21
620.394	1	6
620.564	1	21
620.734	1	7
620.903	1	10
621.073	1	7
621.242	1	6
621.412	1	17
621.582	1	22
621.751	1	15
621.921	1	12
622.091	1	14
622.260	1	1
622.430	1	14
622.599	1	-3
622.769	1	20
622.939	1	10
623.108	1	5
623.278	1	13
623.448	1	11
623.617	1	11
623.787	1	16
623.956	1	14
624.126	1	26
624.296	1	12
624.465	1	15
624.635	1	19
624.804	1	3
624.974	1	23
625.144	1	13
625.313	1	6
625.483	1	25
625.652	1	11
625.822	1	5
625.992	1	12
626.161	1	26
626.331	1	11
626.501	1	6
626.670	1	8
626.840	1	16
627.009	1	13
627.179	1	14
627.348	1	18
627.518	1	16
627.688	1	22
627.857	1	20
628.027	1	7
628.196	1	-4
628.366	1	5
628.536	1	6
628.705	1	24
628.875	1	19
629.044	1	12
629.214	1	6
629.384	1	8
629.553	1	19
629.723	1	6
629.892	1	20
630.062	1	8
630.232	1	7
630.401	1	11
630.571	1	17
630.740	1	23
630.910	1	17
631.079	1	2
631.249	1	7
631.419	1	13
631.588	1	11
631.758	1	18
631.927	1	17
632.097	1	7
632.266	1	6
632.436	1	14
632.606	1	14
632.775	1	19
632.945	1	15
633.114	1	12
633.284	1	14
633.453	1	7
633.623	1	15
633.793	1	12
633.962	1	19
634.132	1	13
634.301	1	21
634.471	1	4
634.640	1	12
634.810	1	5
634.979	1	7
635.149	1	12
635.319	1	19
635.488	1	25
635.658	1	10
635.827	1	11
635.997	1	20
636.166	1	14
636.336	1	14
636.505	1	17
636.675	1	15
636.845	1	18
637.014	1	20
637.184	1	14
637.353	1	12
637.523	1	14
637.692	1	19
637.862	1	19
638.031	1	15
638.201	1	18
638.370	1	12
638.540	1	15
638.710	1	25
638.879	1	15
639.049	1	15
639.218	1	7
639.388	1	20
639.557	1	21
639.727	1	10
639.896	1	11
640.066	1	27
640.235	1	11
640.405	1	17
640.574	1	15
640.744	1	26
640.914	1	18
641.083	1	17
641.253	1	35
641.422	1	16
641.592	1	6
641.761	1	16
641.931	1	16
642.100	1	5
642.270	1	6
642.439	1	18
642.609	1	21
642.778	1	13
642.948	1	13
643.117	1	14
643.287	1	16
643.456	1	18
643.626	1	27
643.795	1	17
643.965	1	13
644.134	1	12
644.304	1	12
644.473	1	19
644.643	1	9
644.812	1	25
644.982	1	20
645.151	1	26
645.321	1	11
645.490	1	8
645.660	1	5
645.829	1	21
645.999	1	13
646.168	1	4
646.338	1	16
646.507	1	12
646.677	1	19
646.846	1	9
647.016	1	21
647.185	1	4
647.355	1	15
647.524	1	10
647.694	1	8
647.863	1	9
648.033	1	4
648.202	1	13
648.372	1	21
648.541	1	12
648.711	1	21
648.880	1	23
649.050	1	7
649.219	1	7
649.389	1	13
649.558	1	6
649.728	1	10
649.897	1	9
650.067	1	14
650.236	1	20
650.406	1	2
650.575	1	15
650.745	1	19
650.914	1	7
651.084	1	8
651.253	1	16
651.423	1	26
651.592	1	18
651.762	1	21
651.931	1	16
652.101	1	21
652.270	1	21
652.440	1	10
652.609	1	20
652.778	1	7
652.948	1	22
653.117	1	4
653.287	1	29
653.456	1	15
653.626	1	10
653.795	1	15
653.965	1	15
654.134	1	17
654.304	1	17
654.473	1	15
654.643	1	26
654.812	1	14
654.982	1	10
655.151	1	7
655.320	1	15
655.490	1	22
655.659	1	9
655.829	1	16
655.998	1	8
656.168	1	13
656.337	1	23
656.507	1	13
656.676	1	18
656.846	1	7
657.015	1	15
657.184	1	7
657.354	1	18
657.523	1	19
657.693	1	21
657.862	1	20
658.032	1	11
658.201	1	3
658.371	1	2
658.540	1	5
658.709	1	11
658.879	1	-2
659.048	1	17
659.218	1	13
659.387	1	4
659.557	1	19
659.726	1	23
659.895	1	15
660.065	1	6
660.234	1	9
660.404	1	19
660.573	1	9
660.743	1	14
660.912	1	9
661.081	1	27
661.251	1	11
661.420	1	9
661.590	1	15
661.759	1	19
661.929	1	8
662.098	1	1
662.267	1	13
662.437	1	19
662.606	1	26
662.776	1	16
662.945	1	13
663.115	1	12
663.284	1	17
663.453	1	15
663.623	1	14
663.792	1	14
663.962	1	7
664.131	1	9
664.300	1	9
664.470	1	17
664.639	1	4
664.809	1	8
664.978	1	11
665.148	1	12
665.317	1	6
665.486	1	14
665.656	1	11
665.825	1	18
665.995	1	13
666.164	1	12
666.333	1	22
666.503	1	21
666.672	1	18
666.842	1	10
667.011	1	20
667.180	1	21
667.350	1	21
667.519	1	16
667.689	1	9
667.858	1	8
668.027	1	18
668.197	1	11
668.366	1	25
668.536	1	20
668.705	1	12
668.874	1	11
669.044	1	16
669.213	1	16
669.382	1	10
669.552	1	21
669.721	1	20
669.891	1	9
670.060	1	23
670.229	1	10
670.399	1	11
670.568	1	16
670.738	1	10
670.907	1	16
671.076	1	17
671.246	1	19
671.415	1	24
671.584	1	15
671.754	1	21
671.923	1	10
672.093	1	22
672.262	1	21
672.431	1	14
672.601	1	21
672.770	1	12
672.939	1	8
673.109	1	5
673.278	1	20
673.448	1	10
673.617	1	9
673.786	1	16
