325.333	1	9
325.504	1	7
325.675	1	-9
325.846	1	4
326.017	1	3
326.188	1	4
326.359	1	3
326.531	1	5
326.702	1	-3
326.873	1	-1
327.044	1	-10
327.215	1	2
327.386	1	-5
327.557	1	-1
327.728	1	-4
327.899	1	8
328.070	1	10
328.241	1	8
328.412	1	1
328.583	1	-1
328.754	1	3
328.926	1	0
329.097	1	-6
329.268	1	-5
329.439	1	0
329.610	1	9
329.781	1	-4
329.952	1	8
330.123	1	4
330.294	1	-10
330.465	1	-10
330.636	1	-2
330.807	1	-2
330.978	1	-2
331.149	1	8
331.320	1	5
331.492	1	-2
331.663	1	6
331.834	1	0
332.005	1	2
332.176	1	-3
332.347	1	12
332.518	1	0
332.689	1	-14
332.860	1	-1
333.031	1	-1
333.202	1	-15
333.373	1	4
333.544	1	2
333.715	1	9
333.886	1	2
334.057	1	-2
334.228	1	7
334.399	1	6
334.570	1	1
334.741	1	-4
334.912	1	-1
335.084	1	-7
335.255	1	4
335.426	1	-10
335.597	1	8
335.768	1	1
335.939	1	-3
336.110	1	0
336.281	1	1
336.452	1	2
336.623	1	6
336.794	1	1
336.965	1	4
337.136	1	4
337.307	1	-1
337.478	1	-3
337.649	1	0
337.820	1	1
337.991	1	6
338.162	1	-2
338.333	1	-3
338.504	1	-7
338.675	1	0
338.846	1	-3
339.017	1	8
339.188	1	-4
339.359	1	-3
339.530	1	7
339.701	1	-7
339.872	1	7
340.043	1	-14
340.214	1	-3
340.385	1	-2
340.556	1	0
340.727	1	4
340.898	1	8
341.069	1	2
341.240	1	8
341.411	1	-2
341.582	1	4
341.753	1	-11
341.924	1	-6
342.095	1	2
342.266	1	-2
342.437	1	1
342.608	1	12
342.779	1	-4
342.950	1	5
343.121	1	9
343.292	1	2
343.463	1	2
343.634	1	-7
343.805	1	-4
343.976	1	0
344.147	1	-3
344.318	1	-6
344.489	1	1
344.660	1	1
344.831	1	12
345.002	1	6
345.173	1	-7
345.344	1	-1
345.515	1	-6
345.686	1	15
345.857	1	-4
346.028	1	0
346.199	1	-2
346.370	1	4
346.541	1	1
346.712	1	3
346.883	1	1
347.054	1	-3
347.225	1	-2
347.396	1	-7
347.567	1	11
347.738	1	-6
347.909	1	4
348.080	1	-3
348.251	1	4
348.422	1	7
348.593	1	1
348.764	1	-3
348.935	1	-7
349.106	1	-1
349.277	1	2
349.448	1	2
349.619	1	-5
349.790	1	6
349.961	1	5
350.132	1	5
350.303	1	4
350.474	1	3
350.645	1	2
350.816	1	-3
350.987	1	14
351.157	1	0
351.328	1	16
351.499	1	7
351.670	1	2
351.841	1	6
352.012	1	7
352.183	1	-5
352.354	1	-9
352.525	1	6
352.696	1	11
352.867	1	8
353.038	1	-5
353.209	1	2
353.380	1	-6
353.551	1	-12
353.722	1	1
353.893	1	-3
354.064	1	8
354.235	1	8
354.406	1	13
354.576	1	6
354.747	1	0
354.918	1	7
355.089	1	0
355.260	1	13
355.431	1	-2
355.602	1	1
355.773	1	-5
355.944	1	-5
356.115	1	8
356.286	1	2
356.457	1	0
356.628	1	-3
356.799	1	-5
356.970	1	4
357.141	1	-1
357.311	1	7
357.482	1	3
357.653	1	6
357.824	1	10
357.995	1	-1
358.166	1	0
358.337	1	2
358.508	1	5
358.679	1	5
358.850	1	-2
359.021	1	-1
359.192	1	17
359.363	1	10
359.533	1	-3
359.704	1	4
359.875	1	7
360.046	1	10
360.217	1	10
360.388	1	-2
360.559	1	5
360.730	1	1
360.901	1	1
361.072	1	-1
361.243	1	4
361.414	1	-3
361.584	1	6
361.755	1	-5
361.926	1	4
362.097	1	-3
362.268	1	9
362.439	1	1
362.610	1	-1
362.781	1	-8
362.952	1	11
363.123	1	1
363.293	1	6
363.464	1	0
363.635	1	7
363.806	1	-4
363.977	1	2
364.148	1	-10
364.319	1	3
364.490	1	8
364.661	1	2
364.832	1	9
365.002	1	-1
365.173	1	1
365.344	1	11
365.515	1	-6
365.686	1	-8
365.857	1	2
366.028	1	6
366.199	1	5
366.370	1	9
366.540	1	3
366.711	1	0
366.882	1	-8
367.053	1	1
367.224	1	-1
367.395	1	2
367.566	1	5
367.737	1	-1
367.908	1	-9
368.078	1	3
368.249	1	4
368.420	1	3
368.591	1	10
368.762	1	-3
368.933	1	-10
369.104	1	15
369.274	1	-6
369.445	1	8
369.616	1	15
369.787	1	15
369.958	1	-1
370.129	1	-3
370.300	1	-5
370.471	1	-1
370.641	1	-2
370.812	1	-1
370.983	1	-7
371.154	1	-2
371.325	1	-1
371.496	1	8
371.667	1	-4
371.837	1	5
372.008	1	-6
372.179	1	-3
372.350	1	-4
372.521	1	2
372.692	1	7
372.863	1	-5
373.033	1	2
373.204	1	-4
373.375	1	-2
373.546	1	15
373.717	1	-2
373.888	1	17
374.059	1	-1
374.229	1	-4
374.400	1	-3
374.571	1	2
374.742	1	2
374.913	1	-5
375.084	1	-2
375.254	1	8
375.425	1	-8
375.596	1	3
375.767	1	12
375.938	1	6
376.109	1	3
376.279	1	7
376.450	1	7
376.621	1	-3
376.792	1	8
376.963	1	2
377.134	1	3
377.304	1	6
377.475	1	7
377.646	1	-8
377.817	1	-3
377.988	1	-4
378.159	1	6
378.329	1	3
378.500	1	1
378.671	1	-1
378.842	1	-3
379.013	1	4
379.184	1	-1
379.354	1	-3
379.525	1	-5
379.696	1	2
379.867	1	2
380.038	1	7
380.209	1	-5
380.379	1	2
380.550	1	-1
380.721	1	0
380.892	1	-2
381.063	1	0
381.233	1	6
381.404	1	1
381.575	1	0
381.746	1	14
381.917	1	3
382.087	1	10
382.258	1	9
382.429	1	-2
382.600	1	9
382.771	1	8
382.941	1	7
383.112	1	-5
383.283	1	4
383.454	1	2
383.625	1	-7
383.795	1	8
383.966	1	-7
384.137	1	-3
384.308	1	5
384.479	1	-8
384.649	1	2
384.820	1	6
384.991	1	-2
385.162	1	0
385.333	1	6
385.503	1	-5
385.674	1	-14
385.845	1	8
386.016	1	7
386.187	1	0
386.357	1	-2
386.528	1	0
386.699	1	-5
386.870	1	8
387.041	1	16
387.211	1	5
387.382	1	-8
387.553	1	3
387.724	1	17
387.894	1	5
388.065	1	-3
388.236	1	-3
388.407	1	-1
388.578	1	-1
388.748	1	1
388.919	1	5
389.090	1	7
389.261	1	-2
389.431	1	-4
389.602	1	9
389.773	1	7
389.944	1	1
390.114	1	6
390.285	1	-4
390.456	1	-8
390.627	1	2
390.798	1	-4
390.968	1	7
391.139	1	-1
391.310	1	0
391.481	1	0
391.651	1	0
391.822	1	7
391.993	1	-3
392.164	1	5
392.334	1	-7
392.505	1	-1
392.676	1	8
392.847	1	-9
393.017	1	8
393.188	1	6
393.359	1	-1
393.530	1	4
393.700	1	-5
393.871	1	-4
394.042	1	0
394.213	1	-1
394.383	1	3
394.554	1	10
394.725	1	-10
394.896	1	4
395.066	1	1
395.237	1	-5
395.408	1	3
395.579	1	4
395.749	1	2
395.920	1	-6
396.091	1	4
396.262	1	5
396.432	1	7
396.603	1	-4
396.774	1	4
396.945	1	5
397.115	1	-4
397.286	1	-1
397.457	1	0
397.627	1	-5
397.798	1	-5
397.969	1	-1
398.140	1	-6
398.310	1	4
398.481	1	-13
398.652	1	-2
398.823	1	3
398.993	1	5
399.164	1	2
399.335	1	6
399.505	1	-2
399.676	1	-4
399.847	1	-5
400.018	1	16
400.188	1	-2
400.359	1	-4
400.530	1	2
400.700	1	1
400.871	1	-5
401.042	1	10
401.213	1	-1
401.383	1	5
401.554	1	0
401.725	1	1
401.895	1	-11
402.066	1	0
402.237	1	5
402.408	1	-6
402.578	1	0
402.749	1	2
402.920	1	-4
403.090	1	-8
403.261	1	8
403.432	1	-1
403.603	1	-2
403.773	1	4
403.944	1	-2
404.115	1	-8
404.285	1	8
404.456	1	4
404.627	1	4
404.797	1	2
404.968	1	2
405.139	1	7
405.310	1	5
405.480	1	4
405.651	1	-13
405.822	1	2
405.992	1	-5
406.163	1	13
406.334	1	4
406.504	1	4
406.675	1	9
406.846	1	5
407.016	1	5
407.187	1	1
407.358	1	2
407.528	1	6
407.699	1	-9
407.870	1	9
408.041	1	7
408.211	1	4
408.382	1	6
408.553	1	7
408.723	1	-3
408.894	1	3
409.065	1	-9
409.235	1	4
409.406	1	-6
409.577	1	-6
409.747	1	5
409.918	1	0
410.089	1	-1
410.259	1	-12
410.430	1	7
410.601	1	1
410.771	1	0
410.942	1	-3
411.113	1	-8
411.283	1	0
411.454	1	9
411.625	1	3
411.795	1	-7
411.966	1	21
412.137	1	1
412.307	1	-1
412.478	1	8
412.649	1	3
412.819	1	2
412.990	1	-2
413.161	1	6
413.331	1	0
413.502	1	5
413.672	1	5
413.843	1	1
414.014	1	7
414.184	1	3
414.355	1	5
414.526	1	0
414.696	1	0
414.867	1	7
415.038	1	10
415.208	1	0
415.379	1	7
415.550	1	-1
415.720	1	-12
415.891	1	4
416.062	1	10
416.232	1	-4
416.403	1	-7
416.573	1	8
416.744	1	-3
416.915	1	6
417.085	1	5
417.256	1	-3
417.427	1	-4
417.597	1	6
417.768	1	-8
417.939	1	4
418.109	1	3
418.280	1	-3
418.450	1	2
418.621	1	8
418.792	1	-6
418.962	1	-7
419.133	1	3
419.304	1	-14
419.474	1	8
419.645	1	1
419.815	1	-2
419.986	1	8
420.157	1	-2
420.327	1	2
420.498	1	5
420.669	1	-2
420.839	1	1
421.010	1	-1
421.180	1	13
421.351	1	11
421.522	1	-5
421.692	1	9
421.863	1	-1
422.033	1	-4
422.204	1	8
422.375	1	0
422.545	1	3
422.716	1	-1
422.886	1	-1
423.057	1	3
423.228	1	-2
423.398	1	4
423.569	1	0
423.740	1	7
423.910	1	10
424.081	1	-1
424.251	1	-5
424.422	1	-6
424.593	1	7
424.763	1	20
424.934	1	-2
425.104	1	1
425.275	1	6
425.445	1	6
425.616	1	1
425.787	1	-1
425.957	1	-5
426.128	1	4
426.298	1	9
426.469	1	-13
426.640	1	5
426.810	1	19
426.981	1	-4
427.151	1	3
427.322	1	12
427.493	1	-4
427.663	1	9
427.834	1	-5
428.004	1	-10
428.175	1	14
428.345	1	-2
428.516	1	13
428.687	1	17
428.857	1	-10
429.028	1	-7
429.198	1	2
429.369	1	5
429.540	1	-3
429.710	1	4
429.881	1	-4
430.051	1	9
430.222	1	2
430.392	1	-3
430.563	1	4
430.734	1	6
430.904	1	-2
431.075	1	13
431.245	1	-5
431.416	1	8
431.586	1	-2
431.757	1	5
431.927	1	12
432.098	1	-9
432.269	1	-3
432.439	1	7
432.610	1	5
432.780	1	-6
432.951	1	3
433.121	1	4
433.292	1	-1
433.462	1	0
433.633	1	-5
433.804	1	-6
433.974	1	-4
434.145	1	-2
434.315	1	0
434.486	1	2
434.656	1	12
434.827	1	2
434.997	1	-6
435.168	1	0
435.339	1	-9
435.509	1	-5
435.680	1	-7
435.850	1	-7
436.021	1	10
436.191	1	7
436.362	1	6
436.532	1	4
436.703	1	-3
436.873	1	-7
437.044	1	-2
437.214	1	-10
437.385	1	8
437.556	1	6
437.726	1	12
437.897	1	2
438.067	1	-1
438.238	1	-2
438.408	1	3
438.579	1	2
438.749	1	-2
438.920	1	1
439.090	1	3
439.261	1	-4
439.431	1	-2
439.602	1	-4
439.772	1	8
439.943	1	-5
440.113	1	10
440.284	1	-5
440.455	1	-2
440.625	1	11
440.796	1	3
440.966	1	-9
441.137	1	-9
441.307	1	3
441.478	1	-1
441.648	1	4
441.819	1	5
441.989	1	1
442.160	1	-10
442.330	1	-1
442.501	1	7
442.671	1	2
442.842	1	11
443.012	1	0
443.183	1	14
443.353	1	6
443.524	1	-1
443.694	1	4
443.865	1	7
444.035	1	-8
444.206	1	-5
444.376	1	2
444.547	1	11
444.717	1	-2
444.888	1	-2
445.058	1	3
445.229	1	-7
445.399	1	2
445.570	1	-6
445.740	1	1
445.911	1	12
446.081	1	9
446.252	1	6
446.422	1	2
446.593	1	-12
446.763	1	-5
446.934	1	3
447.104	1	-9
447.275	1	9
447.445	1	3
447.616	1	1
447.786	1	6
447.957	1	6
448.127	1	6
448.298	1	-3
448.468	1	-12
448.639	1	-2
448.809	1	12
448.979	1	-7
449.150	1	5
449.320	1	6
449.491	1	0
449.661	1	1
449.832	1	1
450.002	1	-1
450.173	1	-3
450.343	1	5
450.514	1	10
450.684	1	-1
450.855	1	7
451.025	1	-3
451.196	1	0
451.366	1	2
451.537	1	-4
451.707	1	6
451.878	1	-11
452.048	1	-2
452.218	1	-2
452.389	1	6
452.559	1	-4
452.730	1	-3
452.900	1	-4
453.071	1	-2
453.241	1	8
453.412	1	3
453.582	1	-4
453.753	1	-7
453.923	1	3
454.093	1	4
454.264	1	5
454.434	1	12
454.605	1	11
454.775	1	4
454.946	1	2
455.116	1	0
455.287	1	-1
455.457	1	-4
455.628	1	-2
455.798	1	5
455.968	1	4
456.139	1	-13
456.309	1	-4
456.480	1	6
456.650	1	15
456.821	1	8
456.991	1	1
457.161	1	8
457.332	1	-4
457.502	1	-2
457.673	1	3
457.843	1	1
458.014	1	0
458.184	1	2
458.355	1	3
458.525	1	-2
458.695	1	-6
458.866	1	6
459.036	1	2
459.207	1	5
459.377	1	11
459.548	1	-5
459.718	1	-1
459.888	1	13
460.059	1	-2
460.229	1	0
460.400	1	6
460.570	1	10
460.740	1	-4
460.911	1	1
461.081	1	-5
461.252	1	17
461.422	1	-2
461.593	1	-12
461.763	1	9
461.933	1	-6
462.104	1	12
462.274	1	10
462.445	1	-2
462.615	1	4
462.785	1	-6
462.956	1	1
463.126	1	-3
463.297	1	-3
463.467	1	0
463.638	1	-10
463.808	1	-11
463.978	1	4
464.149	1	9
464.319	1	-1
464.490	1	7
464.660	1	3
464.830	1	-3
465.001	1	4
465.171	1	-4
465.342	1	6
465.512	1	10
465.682	1	9
465.853	1	-1
466.023	1	6
466.194	1	2
466.364	1	1
466.534	1	8
466.705	1	6
466.875	1	9
467.045	1	-6
467.216	1	7
467.386	1	0
467.557	1	-2
467.727	1	1
467.897	1	-6
468.068	1	6
468.238	1	7
468.409	1	-4
468.579	1	-7
468.749	1	-3
468.920	1	-3
469.090	1	4
469.260	1	-13
469.431	1	-2
469.601	1	-1
469.772	1	-8
469.942	1	13
470.112	1	2
470.283	1	8
470.453	1	2
470.623	1	0
470.794	1	-2
470.964	1	-3
471.135	1	5
471.305	1	1
471.475	1	-1
471.646	1	-3
471.816	1	-2
471.986	1	0
472.157	1	-7
472.327	1	-4
472.497	1	-10
472.668	1	6
472.838	1	-4
473.009	1	10
473.179	1	4
473.349	1	-5
473.520	1	6
473.690	1	-5
473.860	1	10
474.031	1	9
474.201	1	1
474.371	1	-9
474.542	1	11
474.712	1	-9
474.882	1	5
475.053	1	11
475.223	1	13
475.394	1	9
475.564	1	-4
475.734	1	-10
475.905	1	-3
476.075	1	-6
476.245	1	10
476.416	1	-1
476.586	1	-4
476.756	1	4
476.927	1	3
477.097	1	-5
477.267	1	17
477.438	1	-8
477.608	1	-1
477.778	1	9
477.949	1	-2
478.119	1	-1
478.289	1	2
478.460	1	8
478.630	1	-3
478.800	1	-2
478.971	1	7
479.141	1	1
479.311	1	3
479.482	1	-8
479.652	1	2
479.822	1	-6
479.993	1	0
480.163	1	-3
480.333	1	12
480.504	1	0
480.674	1	3
480.844	1	1
481.015	1	-3
481.185	1	6
481.355	1	1
481.525	1	-1
481.696	1	7
481.866	1	-3
482.036	1	0
482.207	1	-3
482.377	1	-2
482.547	1	10
482.718	1	-2
482.888	1	2
483.058	1	8
483.229	1	-1
483.399	1	5
483.569	1	0
483.740	1	0
483.910	1	-9
484.080	1	8
484.250	1	1
484.421	1	6
484.591	1	-1
484.761	1	8
484.932	1	3
485.102	1	5
485.272	1	-1
485.443	1	-3
485.613	1	-3
485.783	1	-6
485.953	1	-3
486.124	1	0
486.294	1	10
486.464	1	2
486.635	1	5
486.805	1	-2
486.975	1	-3
487.146	1	-12
487.316	1	10
487.486	1	-3
487.656	1	-5
487.827	1	-2
487.997	1	8
488.167	1	6
488.338	1	-15
488.508	1	-5
488.678	1	-1
488.848	1	1
489.019	1	5
489.189	1	3
489.359	1	0
489.529	1	-7
489.700	1	-8
489.870	1	-1
490.040	1	-7
490.211	1	13
490.381	1	-2
490.551	1	-8
490.721	1	3
490.892	1	8
491.062	1	1
491.232	1	2
491.402	1	0
491.573	1	4
491.743	1	-10
491.913	1	1
492.084	1	-3
492.254	1	3
492.424	1	-2
492.594	1	14
492.765	1	0
492.935	1	13
493.105	1	-3
493.275	1	2
493.446	1	-3
493.616	1	9
493.786	1	7
493.956	1	-12
494.127	1	-4
494.297	1	3
494.467	1	8
494.637	1	3
494.808	1	-6
494.978	1	-1
495.148	1	15
495.318	1	-9
495.489	1	-3
495.659	1	2
495.829	1	6
495.999	1	6
496.170	1	0
496.340	1	8
496.510	1	1
496.680	1	5
496.851	1	1
497.021	1	-4
497.191	1	-5
497.361	1	-8
497.532	1	-3
497.702	1	3
497.872	1	0
498.042	1	9
498.213	1	-3
498.383	1	-2
498.553	1	5
498.723	1	-6
498.894	1	4
499.064	1	5
499.234	1	1
499.404	1	6
499.574	1	8
499.745	1	3
499.915	1	3
500.085	1	0
500.255	1	-1
500.426	1	-6
500.596	1	6
500.766	1	-1
500.936	1	6
501.106	1	10
501.277	1	0
501.447	1	-5
501.617	1	-15
501.787	1	-1
501.958	1	9
502.128	1	14
502.298	1	5
502.468	1	-5
502.638	1	-5
502.809	1	4
502.979	1	-9
503.149	1	7
503.319	1	-1
503.489	1	-4
503.660	1	6
503.830	1	2
504.000	1	2
504.170	1	3
504.340	1	5
504.511	1	8
504.681	1	15
504.851	1	4
505.021	1	-5
505.192	1	-5
505.362	1	-4
505.532	1	-2
505.702	1	-1
505.872	1	10
506.043	1	-4
506.213	1	9
506.383	1	5
506.553	1	-8
506.723	1	10
506.893	1	5
507.064	1	-8
507.234	1	-2
507.404	1	12
507.574	1	2
507.744	1	6
507.915	1	-5
508.085	1	-15
508.255	1	6
508.425	1	-1
508.595	1	-5
508.766	1	-7
508.936	1	7
509.106	1	-1
509.276	1	5
509.446	1	10
509.616	1	-3
509.787	1	10
509.957	1	0
510.127	1	-9
510.297	1	2
510.467	1	-7
510.638	1	-1
510.808	1	-6
510.978	1	8
511.148	1	9
511.318	1	4
511.488	1	9
511.659	1	10
511.829	1	1
511.999	1	-2
512.169	1	-2
512.339	1	5
512.509	1	4
512.680	1	-4
512.850	1	5
513.020	1	8
513.190	1	-2
513.360	1	-4
513.530	1	2
513.700	1	4
513.871	1	8
514.041	1	2
514.211	1	1
514.381	1	2
514.551	1	-11
514.721	1	6
514.892	1	-5
515.062	1	12
515.232	1	12
515.402	1	7
515.572	1	-2
515.742	1	3
515.912	1	-8
516.083	1	5
516.253	1	15
516.423	1	-5
516.593	1	-9
516.763	1	1
516.933	1	10
517.104	1	0
517.274	1	1
517.444	1	-6
517.614	1	1
517.784	1	3
517.954	1	8
518.124	1	1
518.294	1	-8
518.465	1	8
518.635	1	5
518.805	1	-2
518.975	1	-3
519.145	1	-1
519.315	1	-6
519.485	1	3
519.656	1	5
519.826	1	2
519.996	1	9
520.166	1	1
520.336	1	-7
520.506	1	3
520.676	1	8
520.846	1	1
521.017	1	6
521.187	1	4
521.357	1	5
521.527	1	-2
521.697	1	4
521.867	1	-2
522.037	1	-4
522.207	1	7
522.377	1	9
522.548	1	-11
522.718	1	0
522.888	1	4
523.058	1	-2
523.228	1	3
523.398	1	13
523.568	1	-1
523.738	1	0
523.909	1	7
524.079	1	4
524.249	1	3
524.419	1	-2
524.589	1	-1
524.759	1	9
524.929	1	0
525.099	1	-5
525.269	1	-8
525.439	1	4
525.610	1	-5
525.780	1	2
525.950	1	14
526.120	1	-4
526.290	1	2
526.460	1	4
526.630	1	8
526.800	1	-2
526.970	1	1
527.140	1	6
527.311	1	14
527.481	1	-13
527.651	1	-6
527.821	1	-1
527.991	1	0
528.161	1	-5
528.331	1	3
528.501	1	-5
528.671	1	8
528.841	1	13
529.011	1	-2
529.181	1	-5
529.352	1	1
529.522	1	7
529.692	1	-2
529.862	1	4
530.032	1	5
530.202	1	8
530.372	1	7
530.542	1	-3
530.712	1	12
530.882	1	9
531.052	1	-6
531.222	1	-1
531.392	1	-1
531.563	1	-6
531.733	1	-1
531.903	1	19
532.073	1	1
532.243	1	3
532.413	1	-4
532.583	1	8
532.753	1	4
532.923	1	4
533.093	1	-1
533.263	1	-3
533.433	1	-1
533.603	1	-1
533.773	1	6
533.943	1	-2
534.113	1	7
534.284	1	-8
534.454	1	3
534.624	1	6
534.794	1	9
534.964	1	0
535.134	1	9
535.304	1	10
535.474	1	5
535.644	1	1
535.814	1	0
535.984	1	2
536.154	1	5
536.324	1	-3
536.494	1	-3
536.664	1	12
536.834	1	13
537.004	1	8
537.174	1	-9
537.344	1	7
537.514	1	-1
537.685	1	-11
537.855	1	-3
538.025	1	2
538.195	1	3
538.365	1	11
538.535	1	-1
538.705	1	7
538.875	1	6
539.045	1	2
539.215	1	5
539.385	1	-4
539.555	1	3
539.725	1	-4
539.895	1	6
540.065	1	3
540.235	1	7
540.405	1	-11
540.575	1	2
540.745	1	1
540.915	1	-9
541.085	1	3
541.255	1	-1
541.425	1	-13
541.595	1	4
541.765	1	11
541.935	1	-5
542.105	1	9
542.275	1	2
542.445	1	6
542.615	1	1
542.785	1	1
542.955	1	-5
543.125	1	-3
543.295	1	13
543.465	1	2
543.635	1	-5
543.805	1	-7
543.975	1	-5
544.145	1	10
544.315	1	-4
544.485	1	-1
544.655	1	0
544.825	1	4
544.995	1	10
545.165	1	0
545.335	1	-7
545.505	1	-7
545.675	1	-10
545.845	1	6
546.015	1	0
546.185	1	0
546.355	1	-1
546.525	1	0
546.695	1	-10
546.865	1	1
547.035	1	-6
547.205	1	6
547.375	1	11
547.545	1	-5
547.715	1	10
547.885	1	-13
548.055	1	1
548.225	1	11
548.395	1	-5
548.565	1	8
548.735	1	-2
548.905	1	5
549.075	1	9
549.245	1	3
549.415	1	-3
549.585	1	3
549.755	1	10
549.925	1	-5
550.095	1	-4
550.265	1	11
550.435	1	-4
550.605	1	5
550.775	1	5
550.945	1	5
551.115	1	-1
551.285	1	0
551.455	1	-1
551.625	1	0
551.795	1	-1
551.965	1	7
552.135	1	8
552.305	1	4
552.475	1	3
552.645	1	5
552.815	1	-5
552.985	1	-7
553.155	1	-3
553.325	1	-7
553.495	1	-1
553.665	1	-3
553.835	1	8
554.004	1	4
554.174	1	0
554.344	1	3
554.514	1	6
554.684	1	-5
554.854	1	-12
555.024	1	1
555.194	1	4
555.364	1	6
555.534	1	-4
555.704	1	9
555.874	1	-4
556.044	1	4
556.214	1	7
556.384	1	10
556.554	1	0
556.724	1	4
556.894	1	7
557.064	1	2
557.234	1	-1
557.404	1	3
557.573	1	0
557.743	1	-2
557.913	1	5
558.083	1	-3
558.253	1	1
558.423	1	-2
558.593	1	-5
558.763	1	5
558.933	1	2
559.103	1	12
559.273	1	2
559.443	1	2
559.613	1	-4
559.783	1	-5
559.953	1	-6
560.122	1	-1
560.292	1	10
560.462	1	-3
560.632	1	0
560.802	1	4
560.972	1	0
561.142	1	2
561.312	1	-2
561.482	1	0
561.652	1	0
561.822	1	-9
561.992	1	2
562.162	1	7
562.331	1	10
562.501	1	-1
562.671	1	12
562.841	1	-3
563.011	1	8
563.181	1	1
563.351	1	3
563.521	1	6
563.691	1	6
563.861	1	3
564.031	1	-9
564.201	1	8
564.370	1	-7
564.540	1	-3
564.710	1	-2
564.880	1	1
565.050	1	4
565.220	1	-6
565.390	1	0
565.560	1	10
565.730	1	10
565.900	1	7
566.069	1	-5
566.239	1	-1
566.409	1	-7
566.579	1	10
566.749	1	-4
566.919	1	5
567.089	1	1
567.259	1	-1
567.429	1	-1
567.599	1	6
567.768	1	-4
567.938	1	-6
568.108	1	8
568.278	1	1
568.448	1	6
568.618	1	5
568.788	1	2
568.958	1	-1
569.128	1	-1
569.297	1	0
569.467	1	-4
569.637	1	7
569.807	1	6
569.977	1	1
570.147	1	6
570.317	1	-4
570.487	1	0
570.656	1	-3
570.826	1	8
570.996	1	-2
571.166	1	8
571.336	1	-11
571.506	1	-5
571.676	1	12
571.846	1	6
572.015	1	-5
572.185	1	15
572.355	1	-10
572.525	1	1
572.695	1	-1
572.865	1	-14
573.035	1	6
573.205	1	8
573.374	1	2
573.544	1	3
573.714	1	-9
573.884	1	5
574.054	1	0
574.224	1	0
574.394	1	-8
574.563	1	3
574.733	1	0
574.903	1	11
575.073	1	5
575.243	1	-4
575.413	1	-5
575.583	1	7
575.752	1	-2
575.922	1	3
576.092	1	-5
576.262	1	-1
576.432	1	10
576.602	1	-6
576.772	1	8
576.941	1	-2
577.111	1	-4
577.281	1	-2
577.451	1	0
577.621	1	5
577.791	1	0
577.960	1	0
578.130	1	14
578.300	1	-7
578.470	1	-7
578.640	1	1
578.810	1	-2
578.979	1	2
579.149	1	-2
579.319	1	2
579.489	1	-13
579.659	1	0
579.829	1	2
579.998	1	4
580.168	1	6
580.338	1	-1
580.508	1	8
580.678	1	13
580.848	1	0
581.017	1	15
581.187	1	10
581.357	1	-5
581.527	1	3
581.697	1	3
581.867	1	9
582.036	1	1
582.206	1	10
582.376	1	7
582.546	1	-6
582.716	1	1
582.885	1	-15
583.055	1	3
583.225	1	1
583.395	1	8
583.565	1	4
583.735	1	10
583.904	1	3
584.074	1	-7
584.244	1	-8
584.414	1	0
584.584	1	-3
584.753	1	2
584.923	1	5
585.093	1	4
585.263	1	10
585.433	1	6
585.602	1	8
585.772	1	-4
585.942	1	5
586.112	1	-7
586.282	1	1
586.451	1	6
586.621	1	1
586.791	1	1
586.961	1	5
587.131	1	-4
587.300	1	-1
587.470	1	-9
587.640	1	5
587.810	1	12
587.980	1	4
588.149	1	-3
588.319	1	6
588.489	1	-2
588.659	1	11
588.829	1	3
588.998	1	10
589.168	1	9
589.338	1	4
589.508	1	7
589.677	1	9
589.847	1	7
590.017	1	-5
590.187	1	7
590.357	1	6
590.526	1	-2
590.696	1	-10
590.866	1	-3
591.036	1	5
591.205	1	6
591.375	1	1
591.545	1	7
591.715	1	0
591.885	1	9
592.054	1	2
592.224	1	-4
592.394	1	-6
592.564	1	-4
592.733	1	-12
592.903	1	3
593.073	1	6
593.243	1	13
593.412	1	6
593.582	1	5
593.752	1	-4
593.922	1	-3
594.091	1	-8
594.261	1	-3
594.431	1	10
594.601	1	4
594.771	1	12
594.940	1	5
595.110	1	-5
595.280	1	-3
595.450	1	7
595.619	1	2
595.789	1	7
595.959	1	10
596.129	1	4
596.298	1	12
596.468	1	-3
596.638	1	-5
596.808	1	9
596.977	1	-3
597.147	1	-10
597.317	1	-5
597.487	1	3
597.656	1	9
597.826	1	6
597.996	1	9
598.166	1	4
598.335	1	1
598.505	1	12
598.675	1	-5
598.844	1	-6
599.014	1	10
599.184	1	4
599.354	1	3
599.523	1	1
599.693	1	8
599.863	1	2
600.033	1	-3
600.202	1	8
600.372	1	3
600.542	1	0
600.712	1	-2
600.881	1	-5
601.051	1	2
601.221	1	6
601.390	1	-10
601.560	1	8
601.730	1	7
601.900	1	3
602.069	1	6
602.239	1	2
602.409	1	-1
602.578	1	5
602.748	1	-2
602.918	1	0
603.088	1	2
603.257	1	3
603.427	1	-4
603.597	1	0
603.767	1	-2
603.936	1	1
604.106	1	2
604.276	1	9
604.445	1	3
604.615	1	-2
604.785	1	5
604.954	1	12
605.124	1	-4
605.294	1	2
605.464	1	1
605.633	1	-2
605.803	1	11
605.973	1	3
606.142	1	11
606.312	1	-5
606.482	1	9
606.652	1	-6
606.821	1	1
606.991	1	-2
607.161	1	7
607.330	1	-1
607.500	1	4
607.670	1	4
607.839	1	13
608.009	1	1
608.179	1	3
608.348	1	-3
608.518	1	0
608.688	1	-8
608.858	1	7
609.027	1	1
609.197	1	-4
609.367	1	16
609.536	1	10
609.706	1	3
609.876	1	10
610.045	1	4
610.215	1	-8
610.385	1	-9
610.554	1	4
610.724	1	-9
610.894	1	7
611.063	1	-10
611.233	1	4
611.403	1	-7
611.572	1	7
611.742	1	9
611.912	1	5
612.081	1	-12
612.251	1	6
612.421	1	1
612.590	1	10
612.760	1	1
612.930	1	2
613.099	1	0
613.269	1	1
613.439	1	-3
613.608	1	5
613.778	1	-5
613.948	1	6
614.117	1	4
614.287	1	4
614.457	1	-2
614.626	1	2
614.796	1	5
614.966	1	10
615.135	1	9
615.305	1	-3
615.475	1	-2
615.644	1	-7
615.814	1	-10
615.984	1	2
616.153	1	5
616.323	1	7
616.493	1	12
616.662	1	7
616.832	1	1
617.002	1	-3
617.171	1	3
617.341	1	-7
617.511	1	3
617.680	1	-3
617.850	1	-8
618.019	1	0
618.189	1	7
618.359	1	-9
618.528	1	5
618.698	1	7
618.868	1	-9
619.037	1	6
619.207	1	10
619.377	1	-5
619.546	1	-11
619.716	1	3
619.885	1	-8
620.055	1	-1
620.225	1	9
620.394	1	4
620.564	1	12
620.734	1	2
620.903	1	1
621.073	1	-7
621.242	1	8
621.412	1	9
621.582	1	-2
621.751	1	-4
621.921	1	1
622.091	1	1
622.260	1	-7
622.430	1	-1
622.599	1	-9
622.769	1	4
622.939	1	9
623.108	1	3
623.278	1	3
623.448	1	8
623.617	1	0
623.787	1	4
623.956	1	4
624.126	1	5
624.296	1	-7
624.465	1	9
624.635	1	1
624.804	1	-10
624.974	1	9
625.144	1	-1
625.313	1	-3
625.483	1	8
625.652	1	2
625.822	1	1
625.992	1	11
626.161	1	2
626.331	1	-1
626.501	1	-2
626.670	1	2
626.840	1	8
627.009	1	1
627.179	1	0
627.348	1	13
627.518	1	8
627.688	1	-2
627.857	1	2
628.027	1	-12
628.196	1	-5
628.366	1	-7
628.536	1	0
628.705	1	11
628.875	1	16
629.044	1	6
629.214	1	2
629.384	1	5
629.553	1	-2
629.723	1	-15
629.892	1	9
630.062	1	-4
630.232	1	-4
630.401	1	11
630.571	1	2
630.740	1	10
630.910	1	3
631.079	1	-7
631.249	1	-3
631.419	1	-5
631.588	1	2
631.758	1	8
631.927	1	2
632.097	1	-10
632.266	1	9
632.436	1	-1
632.606	1	3
632.775	1	9
632.945	1	7
633.114	1	-6
633.284	1	-2
633.453	1	-6
633.623	1	7
633.793	1	-6
633.962	1	-3
634.132	1	-4
634.301	1	-2
634.471	1	1
634.640	1	10
634.810	1	2
634.979	1	0
635.149	1	-5
635.319	1	7
635.488	1	10
635.658	1	2
635.827	1	-1
635.997	1	1
636.166	1	-1
636.336	1	0
636.505	1	0
636.675	1	5
636.845	1	5
637.014	1	0
637.184	1	0
637.353	1	-2
637.523	1	1
637.692	1	4
637.862	1	0
638.031	1	4
638.201	1	8
638.370	1	-4
638.540	1	-10
638.710	1	0
638.879	1	-5
639.049	1	0
639.218	1	0
639.388	1	7
639.557	1	11
639.727	1	1
639.896	1	-4
640.066	1	7
640.235	1	9
640.405	1	4
640.574	1	4
640.744	1	-3
640.914	1	-3
641.083	1	8
641.253	1	10
641.422	1	7
641.592	1	1
641.761	1	10
641.931	1	-6
642.100	1	-6
642.270	1	-5
642.439	1	7
642.609	1	-4
642.778	1	-9
642.948	1	4
643.117	1	12
643.287	1	-10
643.456	1	7
643.626	1	15
643.795	1	2
643.965	1	0
644.134	1	2
644.304	1	-7
644.473	1	8
644.643	1	-7
644.812	1	18
644.982	1	-3
645.151	1	8
645.321	1	6
645.490	1	-3
645.660	1	-14
645.829	1	3
645.999	1	2
646.168	1	-18
646.338	1	4
646.507	1	8
646.677	1	5
646.846	1	3
647.016	1	11
647.185	1	5
647.355	1	3
647.524	1	-3
647.694	1	3
647.863	1	4
648.033	1	-12
648.202	1	1
648.372	1	9
648.541	1	-3
648.711	1	7
648.880	1	4
649.050	1	0
649.219	1	-3
649.389	1	-5
649.558	1	-9
649.728	1	-4
649.897	1	-4
650.067	1	2
650.236	1	10
650.406	1	-6
650.575	1	14
650.745	1	1
650.914	1	-2
651.084	1	-9
651.253	1	3
651.423	1	-1
651.592	1	5
651.762	1	5
651.931	1	-3
652.101	1	5
652.270	1	-1
652.440	1	0
652.609	1	3
652.778	1	-1
652.948	1	5
653.117	1	-9
653.287	1	11
653.456	1	0
653.626	1	0
653.795	1	6
653.965	1	12
654.134	1	2
654.304	1	2
654.473	1	-1
654.643	1	5
654.812	1	0
654.982	1	1
655.151	1	-6
655.320	1	2
655.490	1	-4
655.659	1	3
655.829	1	7
655.998	1	-4
656.168	1	1
656.337	1	7
656.507	1	0
656.676	1	-1
656.846	1	-4
657.015	1	4
657.184	1	2
657.354	1	-4
657.523	1	-1
657.693	1	6
657.862	1	-6
658.032	1	-3
658.201	1	2
658.371	1	-6
658.540	1	-5
658.709	1	2
658.879	1	-10
659.048	1	10
659.218	1	3
659.387	1	0
659.557	1	5
659.726	1	2
659.895	1	3
660.065	1	-8
660.234	1	1
660.404	1	0
660.573	1	6
660.743	1	6
660.912	1	2
661.081	1	12
661.251	1	2
661.420	1	-3
661.590	1	-7
661.759	1	-1
661.929	1	5
662.098	1	0
662.267	1	1
662.437	1	6
662.606	1	13
662.776	1	9
662.945	1	-2
663.115	1	6
663.284	1	-5
663.453	1	-4
663.623	1	4
663.792	1	-2
663.962	1	-1
664.131	1	4
664.300	1	-2
664.470	1	8
664.639	1	-1
664.809	1	-3
664.978	1	10
665.148	1	1
665.317	1	6
665.486	1	8
665.656	1	-4
665.825	1	0
665.995	1	-2
666.164	1	2
666.333	1	3
666.503	1	4
666.672	1	17
666.842	1	-9
667.011	1	-8
667.180	1	-3
667.350	1	2
667.519	1	-1
667.689	1	-2
667.858	1	9
668.027	1	6
668.197	1	-2
668.366	1	4
668.536	1	2
668.705	1	2
668.874	1	4
669.044	1	4
669.213	1	5
669.382	1	0
669.552	1	5
669.721	1	8
669.891	1	2
670.060	1	9
670.229	1	6
670.399	1	2
670.568	1	-1
670.738	1	-4
670.907	1	5
671.076	1	-1
671.246	1	10
671.415	1	4
671.584	1	4
671.754	1	3
671.923	1	1
672.093	1	5
672.262	1	7
672.431	1	0
672.601	1	2
672.770	1	-4
672.939	1	3
673.109	1	-2
673.278	1	0
673.448	1	-2
673.617	1	-5
673.786	1	2
