325.333	1	8
325.504	1	5
325.675	1	5
325.846	1	6
326.017	1	15
326.188	1	10
326.359	1	11
326.531	1	1
326.702	1	3
326.873	1	2
327.044	1	5
327.215	1	8
327.386	1	3
327.557	1	6
327.728	1	8
327.899	1	15
328.070	1	6
328.241	1	8
328.412	1	6
328.583	1	5
328.754	1	8
328.926	1	7
329.097	1	-4
329.268	1	7
329.439	1	6
329.610	1	10
329.781	1	-2
329.952	1	16
330.123	1	11
330.294	1	-4
330.465	1	1
330.636	1	14
330.807	1	5
330.978	1	6
331.149	1	13
331.320	1	10
331.492	1	5
331.663	1	13
331.834	1	11
332.005	1	6
332.176	1	-1
332.347	1	10
332.518	1	10
332.689	1	2
332.860	1	8
333.031	1	14
333.202	1	-8
333.373	1	9
333.544	1	5
333.715	1	16
333.886	1	4
334.057	1	11
334.228	1	16
334.399	1	8
334.570	1	11
334.741	1	7
334.912	1	16
335.084	1	8
335.255	1	12
335.426	1	8
335.597	1	18
335.768	1	9
335.939	1	6
336.110	1	15
336.281	1	8
336.452	1	9
336.623	1	2
336.794	1	5
336.965	1	9
337.136	1	2
337.307	1	9
337.478	1	7
337.649	1	14
337.820	1	7
337.991	1	15
338.162	1	-2
338.333	1	0
338.504	1	5
338.675	1	7
338.846	1	9
339.017	1	11
339.188	1	2
339.359	1	11
339.530	1	11
339.701	1	8
339.872	1	9
340.043	1	-9
340.214	1	9
340.385	1	7
340.556	1	14
340.727	1	23
340.898	1	13
341.069	1	8
341.240	1	11
341.411	1	6
341.582	1	13
341.753	1	-1
341.924	1	-2
342.095	1	11
342.266	1	7
342.437	1	22
342.608	1	24
342.779	1	9
342.950	1	6
343.121	1	16
343.292	1	4
343.463	1	9
343.634	1	0
343.805	1	0
343.976	1	8
344.147	1	7
344.318	1	4
344.489	1	10
344.660	1	14
344.831	1	18
345.002	1	13
345.173	1	-2
345.344	1	10
345.515	1	-2
345.686	1	19
345.857	1	4
346.028	1	14
346.199	1	0
346.370	1	11
346.541	1	8
346.712	1	-1
346.883	1	6
347.054	1	18
347.225	1	10
347.396	1	1
347.567	1	10
347.738	1	-2
347.909	1	1
348.080	1	11
348.251	1	5
348.422	1	11
348.593	1	4
348.764	1	8
348.935	1	5
349.106	1	12
349.277	1	15
349.448	1	13
349.619	1	9
349.790	1	11
349.961	1	8
350.132	1	9
350.303	1	10
350.474	1	-2
350.645	1	14
350.816	1	-5
350.987	1	16
351.157	1	4
351.328	1	15
351.499	1	9
351.670	1	10
351.841	1	1
352.012	1	13
352.183	1	1
352.354	1	-6
352.525	1	7
352.696	1	26
352.867	1	8
353.038	1	5
353.209	1	-1
353.380	1	4
353.551	1	8
353.722	1	9
353.893	1	5
354.064	1	10
354.235	1	16
354.406	1	10
354.576	1	13
354.747	1	7
354.918	1	9
355.089	1	11
355.260	1	12
355.431	1	-1
355.602	1	13
355.773	1	5
355.944	1	-5
356.115	1	15
356.286	1	20
356.457	1	5
356.628	1	3
356.799	1	1
356.970	1	13
357.141	1	4
357.311	1	14
357.482	1	7
357.653	1	13
357.824	1	7
357.995	1	7
358.166	1	-5
358.337	1	12
358.508	1	1
358.679	1	14
358.850	1	0
359.021	1	10
359.192	1	19
359.363	1	16
359.533	1	4
359.704	1	21
359.875	1	5
360.046	1	12
360.217	1	10
360.388	1	8
360.559	1	9
360.730	1	4
360.901	1	7
361.072	1	0
361.243	1	14
361.414	1	7
361.584	1	1
361.755	1	4
361.926	1	6
362.097	1	5
362.268	1	7
362.439	1	10
362.610	1	7
362.781	1	1
362.952	1	9
363.123	1	1
363.293	1	5
363.464	1	10
363.635	1	18
363.806	1	0
363.977	1	3
364.148	1	-1
364.319	1	12
364.490	1	6
364.661	1	11
364.832	1	14
365.002	1	16
365.173	1	3
365.344	1	17
365.515	1	-3
365.686	1	-1
365.857	1	10
366.028	1	10
366.199	1	9
366.370	1	12
366.540	1	6
366.711	1	2
366.882	1	-5
367.053	1	4
367.224	1	9
367.395	1	6
367.566	1	6
367.737	1	-1
367.908	1	5
368.078	1	14
368.249	1	7
368.420	1	10
368.591	1	11
368.762	1	2
368.933	1	-2
369.104	1	12
369.274	1	-7
369.445	1	13
369.616	1	7
369.787	1	15
369.958	1	11
370.129	1	-2
370.300	1	15
370.471	1	5
370.641	1	1
370.812	1	6
370.983	1	-2
371.154	1	0
371.325	1	7
371.496	1	8
371.667	1	10
371.837	1	7
372.008	1	-2
372.179	1	-2
372.350	1	-5
372.521	1	2
372.692	1	6
372.863	1	4
373.033	1	8
373.204	1	7
373.375	1	10
373.546	1	12
373.717	1	0
373.888	1	8
374.059	1	10
374.229	1	0
374.400	1	2
374.571	1	7
374.742	1	1
374.913	1	3
375.084	1	12
375.254	1	8
375.425	1	-6
375.596	1	21
375.767	1	7
375.938	1	8
376.109	1	7
376.279	1	2
376.450	1	5
376.621	1	-1
376.792	1	10
376.963	1	0
377.134	1	7
377.304	1	11
377.475	1	5
377.646	1	3
377.817	1	0
377.988	1	-2
378.159	1	20
378.329	1	3
378.500	1	11
378.671	1	14
378.842	1	4
379.013	1	15
379.184	1	-9
379.354	1	4
379.525	1	9
379.696	1	13
379.867	1	1
380.038	1	13
380.209	1	-1
380.379	1	3
380.550	1	10
380.721	1	10
380.892	1	4
381.063	1	16
381.233	1	8
381.404	1	14
381.575	1	1
381.746	1	13
381.917	1	9
382.087	1	12
382.258	1	11
382.429	1	12
382.600	1	11
382.771	1	6
382.941	1	10
383.112	1	0
383.283	1	19
383.454	1	2
383.625	1	3
383.795	1	10
383.966	1	2
384.137	1	7
384.308	1	12
384.479	1	2
384.649	1	3
384.820	1	17
384.991	1	-1
385.162	1	9
385.333	1	6
385.503	1	-2
385.674	1	-11
385.845	1	10
386.016	1	10
386.187	1	10
386.357	1	9
386.528	1	5
386.699	1	14
386.870	1	10
387.041	1	19
387.211	1	-1
387.382	1	2
387.553	1	8
387.724	1	21
387.894	1	14
388.065	1	11
388.236	1	11
388.407	1	1
388.578	1	3
388.748	1	7
388.919	1	8
389.090	1	23
389.261	1	13
389.431	1	9
389.602	1	22
389.773	1	21
389.944	1	20
390.114	1	18
390.285	1	6
390.456	1	6
390.627	1	10
390.798	1	9
390.968	1	20
391.139	1	3
391.310	1	16
391.481	1	5
391.651	1	9
391.822	1	10
391.993	1	14
392.164	1	12
392.334	1	2
392.505	1	11
392.676	1	24
392.847	1	10
393.017	1	17
393.188	1	22
393.359	1	5
393.530	1	17
393.700	1	0
393.871	1	7
394.042	1	9
394.213	1	6
394.383	1	7
394.554	1	12
394.725	1	8
394.896	1	2
395.066	1	9
395.237	1	16
395.408	1	9
395.579	1	9
395.749	1	4
395.920	1	7
396.091	1	14
396.262	1	7
396.432	1	11
396.603	1	12
396.774	1	5
396.945	1	17
397.115	1	10
397.286	1	7
397.457	1	3
397.627	1	9
397.798	1	4
397.969	1	9
398.140	1	14
398.310	1	2
398.481	1	10
398.652	1	-5
398.823	1	11
398.993	1	13
399.164	1	12
399.335	1	21
399.505	1	9
399.676	1	9
399.847	1	20
400.018	1	16
400.188	1	6
400.359	1	18
400.530	1	13
400.700	1	15
400.871	1	7
401.042	1	15
401.213	1	3
401.383	1	13
401.554	1	6
401.725	1	20
401.895	1	12
402.066	1	3
402.237	1	16
402.408	1	13
402.578	1	6
402.749	1	10
402.920	1	14
403.090	1	10
403.261	1	24
403.432	1	14
403.603	1	15
403.773	1	16
403.944	1	6
404.115	1	3
404.285	1	7
404.456	1	8
404.627	1	18
404.797	1	8
404.968	1	16
405.139	1	9
405.310	1	19
405.480	1	15
405.651	1	3
405.822	1	8
405.992	1	17
406.163	1	25
406.334	1	15
406.504	1	21
406.675	1	25
406.846	1	30
407.016	1	28
407.187	1	12
407.358	1	19
407.528	1	18
407.699	1	6
407.870	1	20
408.041	1	23
408.211	1	15
408.382	1	7
408.553	1	19
408.723	1	24
408.894	1	5
409.065	1	13
409.235	1	12
409.406	1	7
409.577	1	11
409.747	1	8
409.918	1	22
410.089	1	16
410.259	1	8
410.430	1	11
410.601	1	11
410.771	1	15
410.942	1	20
411.113	1	10
411.283	1	17
411.454	1	18
411.625	1	14
411.795	1	0
411.966	1	28
412.137	1	20
412.307	1	18
412.478	1	9
412.649	1	25
412.819	1	11
412.990	1	11
413.161	1	15
413.331	1	11
413.502	1	15
413.672	1	19
413.843	1	21
414.014	1	22
414.184	1	10
414.355	1	18
414.526	1	8
414.696	1	13
414.867	1	18
415.038	1	19
415.208	1	23
415.379	1	25
415.550	1	25
415.720	1	1
415.891	1	28
416.062	1	18
416.232	1	1
416.403	1	15
416.573	1	22
416.744	1	20
416.915	1	24
417.085	1	19
417.256	1	8
417.427	1	9
417.597	1	14
417.768	1	16
417.939	1	16
418.109	1	7
418.280	1	12
418.450	1	20
418.621	1	28
418.792	1	10
418.962	1	10
419.133	1	5
419.304	1	3
419.474	1	11
419.645	1	17
419.815	1	10
419.986	1	24
420.157	1	8
420.327	1	12
420.498	1	14
420.669	1	23
420.839	1	9
421.010	1	7
421.180	1	11
421.351	1	28
421.522	1	9
421.692	1	21
421.863	1	20
422.033	1	9
422.204	1	22
422.375	1	15
422.545	1	20
422.716	1	13
422.886	1	1
423.057	1	19
423.228	1	14
423.398	1	19
423.569	1	8
423.740	1	18
423.910	1	23
424.081	1	11
424.251	1	15
424.422	1	3
424.593	1	17
424.763	1	26
424.934	1	17
425.104	1	13
425.275	1	22
425.445	1	8
425.616	1	18
425.787	1	13
425.957	1	5
426.128	1	20
426.298	1	33
426.469	1	12
426.640	1	3
426.810	1	29
426.981	1	16
427.151	1	19
427.322	1	18
427.493	1	24
427.663	1	25
427.834	1	23
428.004	1	6
428.175	1	18
428.345	1	8
428.516	1	16
428.687	1	23
428.857	1	17
429.028	1	17
429.198	1	26
429.369	1	7
429.540	1	16
429.710	1	12
429.881	1	12
430.051	1	17
430.222	1	16
430.392	1	5
430.563	1	28
430.734	1	15
430.904	1	19
431.075	1	16
431.245	1	16
431.416	1	20
431.586	1	2
431.757	1	10
431.927	1	29
432.098	1	0
432.269	1	11
432.439	1	31
432.610	1	25
432.780	1	9
432.951	1	19
433.121	1	14
433.292	1	12
433.462	1	7
433.633	1	8
433.804	1	21
433.974	1	10
434.145	1	19
434.315	1	13
434.486	1	32
434.656	1	22
434.827	1	9
434.997	1	17
435.168	1	14
435.339	1	15
435.509	1	15
435.680	1	19
435.850	1	13
436.021	1	18
436.191	1	22
436.362	1	17
436.532	1	21
436.703	1	6
436.873	1	14
437.044	1	4
437.214	1	15
437.385	1	18
437.556	1	11
437.726	1	19
437.897	1	13
438.067	1	9
438.238	1	10
438.408	1	7
438.579	1	6
438.749	1	5
438.920	1	14
439.090	1	14
439.261	1	10
439.431	1	16
439.602	1	20
439.772	1	11
439.943	1	14
440.113	1	19
440.284	1	13
440.455	1	13
440.625	1	24
440.796	1	19
440.966	1	11
441.137	1	12
441.307	1	8
441.478	1	18
441.648	1	7
441.819	1	11
441.989	1	14
442.160	1	8
442.330	1	25
442.501	1	5
442.671	1	9
442.842	1	15
443.012	1	13
443.183	1	9
443.353	1	24
443.524	1	8
443.694	1	10
443.865	1	9
444.035	1	12
444.206	1	15
444.376	1	13
444.547	1	15
444.717	1	9
444.888	1	16
445.058	1	13
445.229	1	9
445.399	1	6
445.570	1	4
445.740	1	10
445.911	1	14
446.081	1	25
446.252	1	14
446.422	1	11
446.593	1	2
446.763	1	12
446.934	1	10
447.104	1	17
447.275	1	19
447.445	1	17
447.616	1	14
447.786	1	15
447.957	1	16
448.127	1	11
448.298	1	18
448.468	1	0
448.639	1	19
448.809	1	19
448.979	1	10
449.150	1	6
449.320	1	14
449.491	1	12
449.661	1	20
449.832	1	8
450.002	1	8
450.173	1	8
450.343	1	14
450.514	1	15
450.684	1	18
450.855	1	26
451.025	1	9
451.196	1	3
451.366	1	21
451.537	1	8
451.707	1	24
451.878	1	-1
452.048	1	18
452.218	1	14
452.389	1	20
452.559	1	9
452.730	1	7
452.900	1	7
453.071	1	14
453.241	1	21
453.412	1	14
453.582	1	8
453.753	1	9
453.923	1	24
454.093	1	20
454.264	1	18
454.434	1	19
454.605	1	16
454.775	1	16
454.946	1	17
455.116	1	15
455.287	1	10
455.457	1	10
455.628	1	9
455.798	1	7
455.968	1	13
456.139	1	2
456.309	1	6
456.480	1	8
456.650	1	20
456.821	1	23
456.991	1	10
457.161	1	17
457.332	1	14
457.502	1	4
457.673	1	15
457.843	1	21
458.014	1	10
458.184	1	11
458.355	1	11
458.525	1	9
458.695	1	10
458.866	1	11
459.036	1	12
459.207	1	18
459.377	1	23
459.548	1	9
459.718	1	8
459.888	1	16
460.059	1	4
460.229	1	4
460.400	1	12
460.570	1	13
460.740	1	9
460.911	1	13
461.081	1	2
461.252	1	18
461.422	1	10
461.593	1	-4
461.763	1	20
461.933	1	6
462.104	1	8
462.274	1	18
462.445	1	1
462.615	1	5
462.785	1	8
462.956	1	8
463.126	1	0
463.297	1	7
463.467	1	20
463.638	1	9
463.808	1	9
463.978	1	4
464.149	1	24
464.319	1	0
464.490	1	10
464.660	1	11
464.830	1	8
465.001	1	19
465.171	1	10
465.342	1	12
465.512	1	8
465.682	1	5
465.853	1	13
466.023	1	13
466.194	1	16
466.364	1	14
466.534	1	7
466.705	1	15
466.875	1	13
467.045	1	12
467.216	1	8
467.386	1	2
467.557	1	-1
467.727	1	8
467.897	1	5
468.068	1	12
468.238	1	6
468.409	1	-3
468.579	1	6
468.749	1	12
468.920	1	6
469.090	1	15
469.260	1	1
469.431	1	0
469.601	1	9
469.772	1	12
469.942	1	14
470.112	1	14
470.283	1	22
470.453	1	5
470.623	1	10
470.794	1	5
470.964	1	-1
471.135	1	8
471.305	1	10
471.475	1	2
471.646	1	10
471.816	1	4
471.986	1	13
472.157	1	4
472.327	1	10
472.497	1	-4
472.668	1	12
472.838	1	14
473.009	1	20
473.179	1	12
473.349	1	5
473.520	1	8
473.690	1	9
473.860	1	13
474.031	1	9
474.201	1	12
474.371	1	1
474.542	1	10
474.712	1	2
474.882	1	10
475.053	1	22
475.223	1	12
475.394	1	8
475.564	1	-3
475.734	1	5
475.905	1	9
476.075	1	0
476.245	1	9
476.416	1	14
476.586	1	15
476.756	1	17
476.927	1	15
477.097	1	2
477.267	1	13
477.438	1	-7
477.608	1	3
477.778	1	12
477.949	1	4
478.119	1	14
478.289	1	20
478.460	1	18
478.630	1	12
478.800	1	0
478.971	1	13
479.141	1	3
479.311	1	11
479.482	1	4
479.652	1	5
479.822	1	-3
479.993	1	12
480.163	1	10
480.333	1	13
480.504	1	12
480.674	1	5
480.844	1	6
481.015	1	1
481.185	1	17
481.355	1	2
481.525	1	10
481.696	1	14
481.866	1	-3
482.036	1	1
482.207	1	-3
482.377	1	6
482.547	1	4
482.718	1	9
482.888	1	8
483.058	1	9
483.229	1	1
483.399	1	20
483.569	1	-1
483.740	1	-1
483.910	1	-3
484.080	1	6
484.250	1	3
484.421	1	8
484.591	1	-2
484.761	1	14
484.932	1	9
485.102	1	4
485.272	1	5
485.443	1	11
485.613	1	2
485.783	1	14
485.953	1	-3
486.124	1	-4
486.294	1	0
486.464	1	5
486.635	1	-2
486.805	1	1
486.975	1	7
487.146	1	2
487.316	1	11
487.486	1	-6
487.656	1	4
487.827	1	7
487.997	1	11
488.167	1	8
488.338	1	-7
488.508	1	9
488.678	1	9
488.848	1	2
489.019	1	10
489.189	1	7
489.359	1	1
489.529	1	-9
489.700	1	6
489.870	1	3
490.040	1	4
490.211	1	5
490.381	1	5
490.551	1	1
490.721	1	16
490.892	1	21
491.062	1	6
491.232	1	2
491.402	1	9
491.573	1	6
491.743	1	3
491.913	1	7
492.084	1	2
492.254	1	10
492.424	1	2
492.594	1	19
492.765	1	3
492.935	1	18
493.105	1	10
493.275	1	0
493.446	1	11
493.616	1	5
493.786	1	4
493.956	1	3
494.127	1	0
494.297	1	4
494.467	1	16
494.637	1	10
494.808	1	0
494.978	1	-9
495.148	1	9
495.318	1	0
495.489	1	-14
495.659	1	10
495.829	1	9
495.999	1	8
496.170	1	3
496.340	1	13
496.510	1	-2
496.680	1	6
496.851	1	-5
497.021	1	0
497.191	1	-5
497.361	1	7
497.532	1	2
497.702	1	10
497.872	1	4
498.042	1	6
498.213	1	7
498.383	1	5
498.553	1	5
498.723	1	-10
498.894	1	17
499.064	1	12
499.234	1	-6
499.404	1	4
499.574	1	3
499.745	1	3
499.915	1	-2
500.085	1	0
500.255	1	8
500.426	1	0
500.596	1	12
500.766	1	-1
500.936	1	5
501.106	1	6
501.277	1	8
501.447	1	-3
501.617	1	-2
501.787	1	12
501.958	1	9
502.128	1	15
502.298	1	9
502.468	1	-4
502.638	1	2
502.809	1	4
502.979	1	0
503.149	1	16
503.319	1	-2
503.489	1	1
503.660	1	-3
503.830	1	7
504.000	1	1
504.170	1	-6
504.340	1	6
504.511	1	16
504.681	1	16
504.851	1	9
505.021	1	-3
505.192	1	-2
505.362	1	3
505.532	1	2
505.702	1	8
505.872	1	10
506.043	1	2
506.213	1	11
506.383	1	16
506.553	1	-4
506.723	1	5
506.893	1	-2
507.064	1	0
507.234	1	9
507.404	1	13
507.574	1	5
507.744	1	5
507.915	1	-1
508.085	1	-7
508.255	1	4
508.425	1	5
508.595	1	-1
508.766	1	-4
508.936	1	14
509.106	1	4
509.276	1	5
509.446	1	3
509.616	1	-5
509.787	1	1
509.957	1	3
510.127	1	2
510.297	1	11
510.467	1	-1
510.638	1	-3
510.808	1	-14
510.978	1	9
511.148	1	13
511.318	1	3
511.488	1	17
511.659	1	4
511.829	1	-5
511.999	1	1
512.169	1	-3
512.339	1	-4
512.509	1	5
512.680	1	-4
512.850	1	7
513.020	1	8
513.190	1	6
513.360	1	3
513.530	1	1
513.700	1	4
513.871	1	4
514.041	1	-5
514.211	1	7
514.381	1	7
514.551	1	-9
514.721	1	3
514.892	1	-3
515.062	1	13
515.232	1	11
515.402	1	3
515.572	1	4
515.742	1	4
515.912	1	1
516.083	1	4
516.253	1	4
516.423	1	5
516.593	1	0
516.763	1	2
516.933	1	9
517.104	1	-4
517.274	1	19
517.444	1	1
517.614	1	7
517.784	1	-3
517.954	1	1
518.124	1	7
518.294	1	-6
518.465	1	6
518.635	1	-8
518.805	1	-6
518.975	1	3
519.145	1	14
519.315	1	-7
519.485	1	8
519.656	1	-2
519.826	1	-6
519.996	1	6
520.166	1	0
520.336	1	-7
520.506	1	2
520.676	1	11
520.846	1	-2
521.017	1	11
521.187	1	-7
521.357	1	5
521.527	1	-1
521.697	1	0
521.867	1	5
522.037	1	8
522.207	1	9
522.377	1	4
522.548	1	2
522.718	1	3
522.888	1	12
523.058	1	6
523.228	1	-5
523.398	1	11
523.568	1	4
523.738	1	-3
523.909	1	2
524.079	1	12
524.249	1	2
524.419	1	5
524.589	1	9
524.759	1	12
524.929	1	2
525.099	1	-6
525.269	1	-6
525.439	1	8
525.610	1	-4
525.780	1	0
525.950	1	15
526.120	1	0
526.290	1	-7
526.460	1	6
526.630	1	5
526.800	1	-1
526.970	1	1
527.140	1	3
527.311	1	4
527.481	1	-9
527.651	1	5
527.821	1	-8
527.991	1	-3
528.161	1	9
528.331	1	-1
528.501	1	6
528.671	1	13
528.841	1	16
529.011	1	0
529.181	1	-1
529.352	1	7
529.522	1	4
529.692	1	-5
529.862	1	3
530.032	1	8
530.202	1	14
530.372	1	11
530.542	1	-5
530.712	1	4
530.882	1	7
531.052	1	5
531.222	1	1
531.392	1	-2
531.563	1	2
531.733	1	2
531.903	1	6
532.073	1	-5
532.243	1	1
532.413	1	-10
532.583	1	-2
532.753	1	11
532.923	1	5
533.093	1	-2
533.263	1	3
533.433	1	3
533.603	1	-5
533.773	1	1
533.943	1	1
534.113	1	20
534.284	1	-14
534.454	1	12
534.624	1	6
534.794	1	6
534.964	1	0
535.134	1	17
535.304	1	6
535.474	1	9
535.644	1	-4
535.814	1	3
535.984	1	1
536.154	1	3
536.324	1	3
536.494	1	1
536.664	1	-2
536.834	1	9
537.004	1	-2
537.174	1	6
537.344	1	9
537.514	1	4
537.685	1	-4
537.855	1	-1
538.025	1	0
538.195	1	12
538.365	1	8
538.535	1	3
538.705	1	-8
538.875	1	2
539.045	1	2
539.215	1	9
539.385	1	-8
539.555	1	7
539.725	1	-2
539.895	1	6
540.065	1	-5
540.235	1	0
540.405	1	-3
540.575	1	1
540.745	1	8
540.915	1	5
541.085	1	-6
541.255	1	9
541.425	1	-6
541.595	1	7
541.765	1	8
541.935	1	3
542.105	1	-9
542.275	1	3
542.445	1	7
542.615	1	1
542.785	1	4
542.955	1	3
543.125	1	-1
543.295	1	4
543.465	1	3
543.635	1	0
543.805	1	0
543.975	1	-13
544.145	1	9
544.315	1	-1
544.485	1	3
544.655	1	-1
544.825	1	2
544.995	1	14
545.165	1	6
545.335	1	-6
545.505	1	-3
545.675	1	-16
545.845	1	-3
546.015	1	6
546.185	1	-9
546.355	1	-5
546.525	1	-3
546.695	1	0
546.865	1	3
547.035	1	-7
547.205	1	5
547.375	1	-7
547.545	1	0
547.715	1	1
547.885	1	2
548.055	1	0
548.225	1	8
548.395	1	-1
548.565	1	13
548.735	1	-4
548.905	1	3
549.075	1	-1
549.245	1	1
549.415	1	9
549.585	1	-2
549.755	1	14
549.925	1	-7
550.095	1	-4
550.265	1	11
550.435	1	-1
550.605	1	-3
550.775	1	-2
550.945	1	0
551.115	1	8
551.285	1	-3
551.455	1	4
551.625	1	-8
551.795	1	5
551.965	1	8
552.135	1	1
552.305	1	5
552.475	1	-3
552.645	1	1
552.815	1	3
552.985	1	2
553.155	1	4
553.325	1	-4
553.495	1	6
553.665	1	4
553.835	1	5
554.004	1	3
554.174	1	-6
554.344	1	-1
554.514	1	2
554.684	1	1
554.854	1	-5
555.024	1	6
555.194	1	2
555.364	1	-4
555.534	1	-11
555.704	1	9
555.874	1	2
556.044	1	8
556.214	1	9
556.384	1	11
556.554	1	0
556.724	1	6
556.894	1	-1
557.064	1	8
557.234	1	-8
557.404	1	1
557.573	1	-6
557.743	1	1
557.913	1	12
558.083	1	0
558.253	1	-3
558.423	1	7
558.593	1	5
558.763	1	12
558.933	1	2
559.103	1	-2
559.273	1	5
559.443	1	-6
559.613	1	-8
559.783	1	-4
559.953	1	1
560.122	1	10
560.292	1	12
560.462	1	5
560.632	1	-6
560.802	1	-3
560.972	1	-16
561.142	1	-7
561.312	1	5
561.482	1	2
561.652	1	-3
561.822	1	-9
561.992	1	-6
562.162	1	7
562.331	1	8
562.501	1	-6
562.671	1	9
562.841	1	-2
563.011	1	11
563.181	1	-1
563.351	1	7
563.521	1	-6
563.691	1	2
563.861	1	12
564.031	1	-4
564.201	1	8
564.370	1	-5
564.540	1	5
564.710	1	2
564.880	1	-1
565.050	1	8
565.220	1	4
565.390	1	1
565.560	1	16
565.730	1	2
565.900	1	-3
566.069	1	-3
566.239	1	2
566.409	1	-16
566.579	1	2
566.749	1	-7
566.919	1	1
567.089	1	10
567.259	1	3
567.429	1	-5
567.599	1	3
567.768	1	4
567.938	1	-10
568.108	1	4
568.278	1	8
568.448	1	5
568.618	1	2
568.788	1	7
568.958	1	-2
569.128	1	3
569.297	1	-9
569.467	1	-3
569.637	1	4
569.807	1	1
569.977	1	2
570.147	1	9
570.317	1	3
570.487	1	0
570.656	1	-6
570.826	1	-6
570.996	1	-10
571.166	1	6
571.336	1	-4
571.506	1	-2
571.676	1	11
571.846	1	1
572.015	1	0
572.185	1	8
572.355	1	1
572.525	1	-14
572.695	1	-1
572.865	1	-8
573.035	1	7
573.205	1	4
573.374	1	9
573.544	1	4
573.714	1	-1
573.884	1	2
574.054	1	1
574.224	1	7
574.394	1	-6
574.563	1	9
574.733	1	-6
574.903	1	4
575.073	1	-2
575.243	1	-3
575.413	1	7
575.583	1	8
575.752	1	5
575.922	1	-2
576.092	1	-11
576.262	1	-4
576.432	1	1
576.602	1	-3
576.772	1	4
576.941	1	2
577.111	1	-8
577.281	1	-1
577.451	1	12
577.621	1	-1
577.791	1	4
577.960	1	-1
578.130	1	1
578.300	1	-3
578.470	1	-2
578.640	1	-2
578.810	1	-11
578.979	1	-4
579.149	1	-5
579.319	1	-1
579.489	1	-8
579.659	1	-4
579.829	1	10
579.998	1	0
580.168	1	-12
580.338	1	11
580.508	1	2
580.678	1	-6
580.848	1	3
581.017	1	13
581.187	1	3
581.357	1	-11
581.527	1	-1
581.697	1	-2
581.867	1	-5
582.036	1	-4
582.206	1	3
582.376	1	-3
582.546	1	-7
582.716	1	-1
582.885	1	-7
583.055	1	5
583.225	1	-5
583.395	1	8
583.565	1	-2
583.735	1	12
583.904	1	-5
584.074	1	-5
584.244	1	-8
584.414	1	-6
584.584	1	3
584.753	1	6
584.923	1	-6
585.093	1	0
585.263	1	5
585.433	1	0
585.602	1	5
585.772	1	-8
585.942	1	2
586.112	1	-8
586.282	1	-6
586.451	1	8
586.621	1	9
586.791	1	-6
586.961	1	-3
587.131	1	-4
587.300	1	2
587.470	1	-10
587.640	1	8
587.810	1	7
587.980	1	-6
588.149	1	0
588.319	1	8
588.489	1	2
588.659	1	-4
588.829	1	1
588.998	1	-4
589.168	1	-2
589.338	1	6
589.508	1	-2
589.677	1	-4
589.847	1	2
590.017	1	4
590.187	1	2
590.357	1	5
590.526	1	-5
590.696	1	-3
590.866	1	-1
591.036	1	7
591.205	1	2
591.375	1	3
591.545	1	4
591.715	1	-3
591.885	1	5
592.054	1	-2
592.224	1	4
592.394	1	1
592.564	1	0
592.733	1	-9
592.903	1	-2
593.073	1	-4
593.243	1	4
593.412	1	9
593.582	1	4
593.752	1	0
593.922	1	5
594.091	1	0
594.261	1	-7
594.431	1	14
594.601	1	-5
594.771	1	9
594.940	1	4
595.110	1	1
595.280	1	-6
595.450	1	2
595.619	1	7
595.789	1	11
595.959	1	5
596.129	1	0
596.298	1	15
596.468	1	1
596.638	1	2
596.808	1	-6
596.977	1	9
597.147	1	-9
597.317	1	-13
597.487	1	-6
597.656	1	0
597.826	1	4
597.996	1	4
598.166	1	-1
598.335	1	4
598.505	1	8
598.675	1	-4
598.844	1	-7
599.014	1	7
599.184	1	7
599.354	1	8
599.523	1	9
599.693	1	6
599.863	1	1
600.033	1	2
600.202	1	12
600.372	1	-1
600.542	1	-1
600.712	1	3
600.881	1	-5
601.051	1	2
601.221	1	5
601.390	1	-5
601.560	1	7
601.730	1	3
601.900	1	4
602.069	1	5
602.239	1	0
602.409	1	1
602.578	1	-2
602.748	1	6
602.918	1	6
603.088	1	4
603.257	1	9
603.427	1	-5
603.597	1	-4
603.767	1	12
603.936	1	3
604.106	1	7
604.276	1	1
604.445	1	9
604.615	1	5
604.785	1	0
604.954	1	5
605.124	1	-3
605.294	1	-2
605.464	1	7
605.633	1	2
605.803	1	4
605.973	1	5
606.142	1	-4
606.312	1	5
606.482	1	4
606.652	1	-3
606.821	1	7
606.991	1	2
607.161	1	-2
607.330	1	3
607.500	1	9
607.670	1	20
607.839	1	5
608.009	1	9
608.179	1	3
608.348	1	2
608.518	1	-2
608.688	1	0
608.858	1	3
609.027	1	2
609.197	1	-1
609.367	1	12
609.536	1	3
609.706	1	5
609.876	1	9
610.045	1	4
610.215	1	-2
610.385	1	-3
610.554	1	3
610.724	1	-1
610.894	1	5
611.063	1	-3
611.233	1	13
611.403	1	-3
611.572	1	11
611.742	1	0
611.912	1	4
612.081	1	-5
612.251	1	7
612.421	1	-1
612.590	1	-2
612.760	1	9
612.930	1	3
613.099	1	7
613.269	1	-1
613.439	1	2
613.608	1	9
613.778	1	-5
613.948	1	-1
614.117	1	8
614.287	1	3
614.457	1	-6
614.626	1	5
614.796	1	6
614.966	1	5
615.135	1	11
615.305	1	10
615.475	1	3
615.644	1	-3
615.814	1	-9
615.984	1	1
616.153	1	1
616.323	1	9
616.493	1	6
616.662	1	18
616.832	1	8
617.002	1	4
617.171	1	-4
617.341	1	-1
617.511	1	5
617.680	1	0
617.850	1	5
618.019	1	5
618.189	1	2
618.359	1	0
618.528	1	1
618.698	1	18
618.868	1	-9
619.037	1	8
619.207	1	3
619.377	1	5
619.546	1	0
619.716	1	3
619.885	1	7
620.055	1	1
620.225	1	9
620.394	1	17
620.564	1	10
620.734	1	10
620.903	1	12
621.073	1	4
621.242	1	4
621.412	1	7
621.582	1	1
621.751	1	6
621.921	1	3
622.091	1	6
622.260	1	-7
622.430	1	-2
622.599	1	-4
622.769	1	6
622.939	1	8
623.108	1	3
623.278	1	11
623.448	1	4
623.617	1	-9
623.787	1	-1
623.956	1	6
624.126	1	11
624.296	1	5
624.465	1	17
624.635	1	16
624.804	1	-2
624.974	1	9
625.144	1	1
625.313	1	-3
625.483	1	16
625.652	1	13
625.822	1	0
625.992	1	14
626.161	1	11
626.331	1	1
626.501	1	8
626.670	1	9
626.840	1	9
627.009	1	0
627.179	1	10
627.348	1	13
627.518	1	11
627.688	1	2
627.857	1	13
628.027	1	-4
628.196	1	-1
628.366	1	-2
628.536	1	4
628.705	1	5
628.875	1	18
629.044	1	8
629.214	1	5
629.384	1	4
629.553	1	-3
629.723	1	4
629.892	1	19
630.062	1	-4
630.232	1	-7
630.401	1	12
630.571	1	14
630.740	1	2
630.910	1	12
631.079	1	-7
631.249	1	2
631.419	1	0
631.588	1	-3
631.758	1	4
631.927	1	11
632.097	1	10
632.266	1	3
632.436	1	4
632.606	1	-5
632.775	1	13
632.945	1	11
633.114	1	0
633.284	1	1
633.453	1	8
633.623	1	8
633.793	1	-7
633.962	1	15
634.132	1	12
634.301	1	9
634.471	1	6
634.640	1	7
634.810	1	5
634.979	1	-4
635.149	1	5
635.319	1	6
635.488	1	16
635.658	1	5
635.827	1	11
635.997	1	8
636.166	1	5
636.336	1	2
636.505	1	9
636.675	1	13
636.845	1	1
637.014	1	4
637.184	1	9
637.353	1	12
637.523	1	9
637.692	1	9
637.862	1	16
638.031	1	11
638.201	1	11
638.370	1	5
638.540	1	2
638.710	1	14
638.879	1	-1
639.049	1	14
639.218	1	4
639.388	1	2
639.557	1	9
639.727	1	0
639.896	1	2
640.066	1	22
640.235	1	5
640.405	1	-1
640.574	1	11
640.744	1	14
640.914	1	12
641.083	1	4
641.253	1	13
641.422	1	2
641.592	1	6
641.761	1	4
641.931	1	-1
642.100	1	5
642.270	1	8
642.439	1	3
642.609	1	1
642.778	1	0
642.948	1	4
643.117	1	8
643.287	1	2
643.456	1	11
643.626	1	6
643.795	1	3
643.965	1	3
644.134	1	13
644.304	1	5
644.473	1	13
644.643	1	7
644.812	1	23
644.982	1	11
645.151	1	20
645.321	1	2
645.490	1	4
645.660	1	-4
645.829	1	16
645.999	1	4
646.168	1	-3
646.338	1	4
646.507	1	14
646.677	1	5
646.846	1	11
647.016	1	12
647.185	1	0
647.355	1	-1
647.524	1	7
647.694	1	3
647.863	1	-4
648.033	1	-1
648.202	1	6
648.372	1	15
648.541	1	0
648.711	1	13
648.880	1	11
649.050	1	2
649.219	1	-3
649.389	1	7
649.558	1	-8
649.728	1	-4
649.897	1	2
650.067	1	3
650.236	1	8
650.406	1	4
650.575	1	7
650.745	1	0
650.914	1	14
651.084	1	2
651.253	1	12
651.423	1	2
651.592	1	5
651.762	1	12
651.931	1	4
652.101	1	13
652.270	1	4
652.440	1	3
652.609	1	4
652.778	1	4
652.948	1	2
653.117	1	1
653.287	1	0
653.456	1	4
653.626	1	-6
653.795	1	13
653.965	1	13
654.134	1	9
654.304	1	6
654.473	1	10
654.643	1	9
654.812	1	11
654.982	1	0
655.151	1	-1
655.320	1	7
655.490	1	5
655.659	1	3
655.829	1	15
655.998	1	4
656.168	1	-4
656.337	1	6
656.507	1	2
656.676	1	9
656.846	1	6
657.015	1	3
657.184	1	2
657.354	1	-1
657.523	1	6
657.693	1	8
657.862	1	-1
658.032	1	2
658.201	1	1
658.371	1	-2
658.540	1	-3
658.709	1	0
658.879	1	-11
659.048	1	0
659.218	1	1
659.387	1	-3
659.557	1	9
659.726	1	5
659.895	1	6
660.065	1	-4
660.234	1	-5
660.404	1	13
660.573	1	12
660.743	1	18
660.912	1	4
661.081	1	19
661.251	1	-4
661.420	1	-5
661.590	1	-5
661.759	1	1
661.929	1	11
662.098	1	-4
662.267	1	11
662.437	1	2
662.606	1	10
662.776	1	11
662.945	1	3
663.115	1	13
663.284	1	6
663.453	1	-2
663.623	1	10
663.792	1	6
663.962	1	8
664.131	1	6
664.300	1	5
664.470	1	5
664.639	1	10
664.809	1	2
664.978	1	1
665.148	1	7
665.317	1	3
665.486	1	0
665.656	1	-3
665.825	1	9
665.995	1	-4
666.164	1	7
666.333	1	8
666.503	1	10
666.672	1	5
666.842	1	2
667.011	1	8
667.180	1	7
667.350	1	9
667.519	1	9
667.689	1	3
667.858	1	8
668.027	1	14
668.197	1	3
668.366	1	9
668.536	1	6
668.705	1	11
668.874	1	13
669.044	1	6
669.213	1	-4
669.382	1	5
669.552	1	14
669.721	1	10
669.891	1	13
670.060	1	10
670.229	1	1
670.399	1	4
670.568	1	1
670.738	1	-5
670.907	1	8
671.076	1	-3
671.246	1	4
671.415	1	11
671.584	1	0
671.754	1	10
671.923	1	5
672.093	1	19
672.262	1	14
672.431	1	-3
672.601	1	11
672.770	1	2
672.939	1	2
673.109	1	-1
673.278	1	11
673.448	1	0
673.617	1	-6
673.786	1	6
