325.333	1	12
325.504	1	15
325.675	1	8
325.846	1	-3
326.017	1	7
326.188	1	7
326.359	1	9
326.531	1	5
326.702	1	15
326.873	1	10
327.044	1	13
327.215	1	11
327.386	1	12
327.557	1	3
327.728	1	10
327.899	1	21
328.070	1	20
328.241	1	12
328.412	1	6
328.583	1	14
328.754	1	13
328.926	1	0
329.097	1	-4
329.268	1	7
329.439	1	14
329.610	1	26
329.781	1	2
329.952	1	19
330.123	1	14
330.294	1	11
330.465	1	2
330.636	1	10
330.807	1	-1
330.978	1	11
331.149	1	18
331.320	1	11
331.492	1	7
331.663	1	20
331.834	1	14
332.005	1	9
332.176	1	11
332.347	1	17
332.518	1	18
332.689	1	7
332.860	1	18
333.031	1	9
333.202	1	-5
333.373	1	11
333.544	1	12
333.715	1	12
333.886	1	3
334.057	1	8
334.228	1	11
334.399	1	26
334.570	1	7
334.741	1	20
334.912	1	9
335.084	1	7
335.255	1	19
335.426	1	13
335.597	1	15
335.768	1	24
335.939	1	11
336.110	1	16
336.281	1	15
336.452	1	13
336.623	1	9
336.794	1	13
336.965	1	12
337.136	1	11
337.307	1	16
337.478	1	8
337.649	1	10
337.820	1	22
337.991	1	9
338.162	1	9
338.333	1	9
338.504	1	6
338.675	1	22
338.846	1	22
339.017	1	9
339.188	1	6
339.359	1	18
339.530	1	26
339.701	1	11
339.872	1	20
340.043	1	-3
340.214	1	11
340.385	1	13
340.556	1	19
340.727	1	18
340.898	1	25
341.069	1	15
341.240	1	28
341.411	1	12
341.582	1	23
341.753	1	0
341.924	1	8
342.095	1	7
342.266	1	12
342.437	1	19
342.608	1	27
342.779	1	20
342.950	1	17
343.121	1	15
343.292	1	11
343.463	1	13
343.634	1	-1
343.805	1	18
343.976	1	17
344.147	1	20
344.318	1	20
344.489	1	25
344.660	1	20
344.831	1	24
345.002	1	18
345.173	1	13
345.344	1	14
345.515	1	10
345.686	1	27
345.857	1	12
346.028	1	11
346.199	1	15
346.370	1	23
346.541	1	10
346.712	1	21
346.883	1	20
347.054	1	14
347.225	1	19
347.396	1	-4
347.567	1	20
347.738	1	6
347.909	1	13
348.080	1	21
348.251	1	13
348.422	1	17
348.593	1	13
348.764	1	15
348.935	1	21
349.106	1	3
349.277	1	17
349.448	1	17
349.619	1	7
349.790	1	16
349.961	1	15
350.132	1	20
350.303	1	22
350.474	1	8
350.645	1	19
350.816	1	6
350.987	1	26
351.157	1	20
351.328	1	22
351.499	1	12
351.670	1	13
351.841	1	18
352.012	1	20
352.183	1	18
352.354	1	-2
352.525	1	17
352.696	1	24
352.867	1	14
353.038	1	8
353.209	1	23
353.380	1	16
353.551	1	11
353.722	1	16
353.893	1	16
354.064	1	6
354.235	1	17
354.406	1	25
354.576	1	26
354.747	1	17
354.918	1	28
355.089	1	8
355.260	1	24
355.431	1	17
355.602	1	20
355.773	1	8
355.944	1	15
356.115	1	28
356.286	1	11
356.457	1	12
356.628	1	14
356.799	1	9
356.970	1	17
357.141	1	6
357.311	1	18
357.482	1	-2
357.653	1	17
357.824	1	20
357.995	1	18
358.166	1	6
358.337	1	15
358.508	1	16
358.679	1	11
358.850	1	9
359.021	1	16
359.192	1	26
359.363	1	20
359.533	1	-1
359.704	1	18
359.875	1	28
360.046	1	14
360.217	1	13
360.388	1	9
360.559	1	20
360.730	1	6
360.901	1	13
361.072	1	20
361.243	1	13
361.414	1	8
361.584	1	6
361.755	1	16
361.926	1	16
362.097	1	12
362.268	1	14
362.439	1	19
362.610	1	24
362.781	1	11
362.952	1	26
363.123	1	20
363.293	1	12
363.464	1	20
363.635	1	20
363.806	1	11
363.977	1	11
364.148	1	14
364.319	1	18
364.490	1	27
364.661	1	6
364.832	1	24
365.002	1	23
365.173	1	2
365.344	1	24
365.515	1	8
365.686	1	11
365.857	1	17
366.028	1	11
366.199	1	16
366.370	1	21
366.540	1	11
366.711	1	11
366.882	1	9
367.053	1	16
367.224	1	20
367.395	1	6
367.566	1	7
367.737	1	9
367.908	1	17
368.078	1	19
368.249	1	12
368.420	1	14
368.591	1	19
368.762	1	10
368.933	1	8
369.104	1	26
369.274	1	0
369.445	1	15
369.616	1	19
369.787	1	20
369.958	1	12
370.129	1	9
370.300	1	22
370.471	1	20
370.641	1	21
370.812	1	11
370.983	1	3
371.154	1	8
371.325	1	15
371.496	1	27
371.667	1	17
371.837	1	19
372.008	1	2
372.179	1	10
372.350	1	14
372.521	1	13
372.692	1	17
372.863	1	12
373.033	1	18
373.204	1	3
373.375	1	13
373.546	1	26
373.717	1	10
373.888	1	23
374.059	1	20
374.229	1	12
374.400	1	10
374.571	1	7
374.742	1	10
374.913	1	18
375.084	1	19
375.254	1	21
375.425	1	15
375.596	1	31
375.767	1	13
375.938	1	18
376.109	1	16
376.279	1	14
376.450	1	20
376.621	1	14
376.792	1	16
376.963	1	16
377.134	1	22
377.304	1	21
377.475	1	16
377.646	1	17
377.817	1	8
377.988	1	18
378.159	1	15
378.329	1	28
378.500	1	23
378.671	1	28
378.842	1	9
379.013	1	20
379.184	1	4
379.354	1	17
379.525	1	20
379.696	1	17
379.867	1	17
380.038	1	18
380.209	1	17
380.379	1	18
380.550	1	22
380.721	1	17
380.892	1	19
381.063	1	25
381.233	1	17
381.404	1	21
381.575	1	7
381.746	1	24
381.917	1	21
382.087	1	23
382.258	1	33
382.429	1	24
382.600	1	17
382.771	1	24
382.941	1	22
383.112	1	23
383.283	1	28
383.454	1	17
383.625	1	10
383.795	1	19
383.966	1	15
384.137	1	20
384.308	1	18
384.479	1	18
384.649	1	17
384.820	1	28
384.991	1	11
385.162	1	26
385.333	1	22
385.503	1	12
385.674	1	4
385.845	1	24
386.016	1	25
386.187	1	24
386.357	1	18
386.528	1	13
386.699	1	18
386.870	1	18
387.041	1	22
387.211	1	20
387.382	1	9
387.553	1	11
387.724	1	32
387.894	1	20
388.065	1	26
388.236	1	23
388.407	1	22
388.578	1	32
388.748	1	25
388.919	1	15
389.090	1	34
389.261	1	20
389.431	1	21
389.602	1	28
389.773	1	27
389.944	1	29
390.114	1	32
390.285	1	11
390.456	1	29
390.627	1	17
390.798	1	25
390.968	1	25
391.139	1	22
391.310	1	42
391.481	1	25
391.651	1	36
391.822	1	30
391.993	1	17
392.164	1	31
392.334	1	13
392.505	1	30
392.676	1	30
392.847	1	28
393.017	1	24
393.188	1	28
393.359	1	25
393.530	1	24
393.700	1	16
393.871	1	12
394.042	1	23
394.213	1	13
394.383	1	24
394.554	1	31
394.725	1	25
394.896	1	14
395.066	1	22
395.237	1	35
395.408	1	28
395.579	1	9
395.749	1	26
395.920	1	17
396.091	1	30
396.262	1	17
396.432	1	22
396.603	1	20
396.774	1	27
396.945	1	18
397.115	1	18
397.286	1	21
397.457	1	28
397.627	1	11
397.798	1	18
397.969	1	35
398.140	1	25
398.310	1	21
398.481	1	29
398.652	1	15
398.823	1	23
398.993	1	23
399.164	1	30
399.335	1	27
399.505	1	16
399.676	1	36
399.847	1	26
400.018	1	30
400.188	1	23
400.359	1	24
400.530	1	29
400.700	1	32
400.871	1	16
401.042	1	28
401.213	1	31
401.383	1	23
401.554	1	28
401.725	1	41
401.895	1	25
402.066	1	29
402.237	1	42
402.408	1	26
402.578	1	30
402.749	1	35
402.920	1	30
403.090	1	31
403.261	1	38
403.432	1	30
403.603	1	33
403.773	1	32
403.944	1	37
404.115	1	26
404.285	1	24
404.456	1	34
404.627	1	28
404.797	1	17
404.968	1	32
405.139	1	34
405.310	1	37
405.480	1	41
405.651	1	33
405.822	1	32
405.992	1	31
406.163	1	43
406.334	1	43
406.504	1	33
406.675	1	41
406.846	1	31
407.016	1	34
407.187	1	28
407.358	1	27
407.528	1	28
407.699	1	25
407.870	1	34
408.041	1	43
408.211	1	36
408.382	1	30
408.553	1	35
408.723	1	38
408.894	1	32
409.065	1	24
409.235	1	41
409.406	1	31
409.577	1	25
409.747	1	28
409.918	1	34
410.089	1	27
410.259	1	28
410.430	1	36
410.601	1	26
410.771	1	41
410.942	1	30
411.113	1	28
411.283	1	39
411.454	1	38
411.625	1	43
411.795	1	32
411.966	1	44
412.137	1	35
412.307	1	38
412.478	1	40
412.649	1	46
412.819	1	31
412.990	1	33
413.161	1	44
413.331	1	31
413.502	1	49
413.672	1	33
413.843	1	39
414.014	1	47
414.184	1	28
414.355	1	44
414.526	1	39
414.696	1	38
414.867	1	38
415.038	1	29
415.208	1	42
415.379	1	36
415.550	1	38
415.720	1	29
415.891	1	50
416.062	1	32
416.232	1	23
416.403	1	31
416.573	1	36
416.744	1	29
416.915	1	53
417.085	1	34
417.256	1	36
417.427	1	36
417.597	1	44
417.768	1	38
417.939	1	40
418.109	1	31
418.280	1	32
418.450	1	34
418.621	1	34
418.792	1	34
418.962	1	33
419.133	1	36
419.304	1	32
419.474	1	40
419.645	1	42
419.815	1	27
419.986	1	38
420.157	1	37
420.327	1	28
420.498	1	48
420.669	1	36
420.839	1	28
421.010	1	28
421.180	1	36
421.351	1	41
421.522	1	35
421.692	1	34
421.863	1	37
422.033	1	32
422.204	1	43
422.375	1	24
422.545	1	39
422.716	1	34
422.886	1	36
423.057	1	42
423.228	1	39
423.398	1	36
423.569	1	33
423.740	1	37
423.910	1	37
424.081	1	36
424.251	1	35
424.422	1	31
424.593	1	35
424.763	1	41
424.934	1	43
425.104	1	37
425.275	1	36
425.445	1	30
425.616	1	32
425.787	1	34
425.957	1	20
426.128	1	36
426.298	1	50
426.469	1	27
426.640	1	36
426.810	1	40
426.981	1	32
427.151	1	37
427.322	1	46
427.493	1	41
427.663	1	39
427.834	1	36
428.004	1	31
428.175	1	51
428.345	1	34
428.516	1	39
428.687	1	49
428.857	1	24
429.028	1	49
429.198	1	31
429.369	1	41
429.540	1	36
429.710	1	27
429.881	1	26
430.051	1	44
430.222	1	29
430.392	1	30
430.563	1	48
430.734	1	48
430.904	1	22
431.075	1	33
431.245	1	30
431.416	1	24
431.586	1	29
431.757	1	34
431.927	1	41
432.098	1	23
432.269	1	27
432.439	1	43
432.610	1	42
432.780	1	26
432.951	1	44
433.121	1	40
433.292	1	27
433.462	1	28
433.633	1	27
433.804	1	33
433.974	1	39
434.145	1	35
434.315	1	37
434.486	1	41
434.656	1	34
434.827	1	28
434.997	1	28
435.168	1	38
435.339	1	34
435.509	1	36
435.680	1	34
435.850	1	26
436.021	1	41
436.191	1	34
436.362	1	40
436.532	1	41
436.703	1	34
436.873	1	39
437.044	1	32
437.214	1	30
437.385	1	37
437.556	1	30
437.726	1	40
437.897	1	35
438.067	1	30
438.238	1	36
438.408	1	29
438.579	1	33
438.749	1	28
438.920	1	38
439.090	1	32
439.261	1	38
439.431	1	29
439.602	1	30
439.772	1	32
439.943	1	35
440.113	1	43
440.284	1	34
440.455	1	31
440.625	1	43
440.796	1	46
440.966	1	27
441.137	1	31
441.307	1	34
441.478	1	39
441.648	1	27
441.819	1	34
441.989	1	36
442.160	1	30
442.330	1	34
442.501	1	34
442.671	1	33
442.842	1	32
443.012	1	27
443.183	1	29
443.353	1	23
443.524	1	20
443.694	1	31
443.865	1	40
444.035	1	26
444.206	1	45
444.376	1	35
444.547	1	41
444.717	1	24
444.888	1	30
445.058	1	39
445.229	1	31
445.399	1	31
445.570	1	20
445.740	1	28
445.911	1	37
446.081	1	29
446.252	1	37
446.422	1	33
446.593	1	20
446.763	1	27
446.934	1	26
447.104	1	24
447.275	1	43
447.445	1	29
447.616	1	30
447.786	1	32
447.957	1	20
448.127	1	31
448.298	1	27
448.468	1	15
448.639	1	45
448.809	1	19
448.979	1	21
449.150	1	22
449.320	1	26
449.491	1	47
449.661	1	33
449.832	1	31
450.002	1	30
450.173	1	16
450.343	1	35
450.514	1	39
450.684	1	21
450.855	1	33
451.025	1	24
451.196	1	25
451.366	1	35
451.537	1	24
451.707	1	44
451.878	1	23
452.048	1	27
452.218	1	38
452.389	1	34
452.559	1	13
452.730	1	29
452.900	1	36
453.071	1	26
453.241	1	36
453.412	1	31
453.582	1	22
453.753	1	23
453.923	1	37
454.093	1	28
454.264	1	42
454.434	1	37
454.605	1	31
454.775	1	41
454.946	1	43
455.116	1	25
455.287	1	27
455.457	1	23
455.628	1	25
455.798	1	34
455.968	1	31
456.139	1	20
456.309	1	27
456.480	1	35
456.650	1	32
456.821	1	37
456.991	1	25
457.161	1	30
457.332	1	27
457.502	1	14
457.673	1	24
457.843	1	25
458.014	1	19
458.184	1	16
458.355	1	22
458.525	1	20
458.695	1	19
458.866	1	27
459.036	1	23
459.207	1	19
459.377	1	30
459.548	1	32
459.718	1	19
459.888	1	27
460.059	1	30
460.229	1	17
460.400	1	25
460.570	1	31
460.740	1	23
460.911	1	23
461.081	1	20
461.252	1	24
461.422	1	20
461.593	1	7
461.763	1	24
461.933	1	16
462.104	1	28
462.274	1	29
462.445	1	12
462.615	1	25
462.785	1	20
462.956	1	24
463.126	1	15
463.297	1	22
463.467	1	30
463.638	1	17
463.808	1	11
463.978	1	18
464.149	1	27
464.319	1	14
464.490	1	22
464.660	1	22
464.830	1	22
465.001	1	30
465.171	1	16
465.342	1	23
465.512	1	25
465.682	1	10
465.853	1	26
466.023	1	24
466.194	1	21
466.364	1	22
466.534	1	27
466.705	1	18
466.875	1	22
467.045	1	13
467.216	1	20
467.386	1	24
467.557	1	10
467.727	1	16
467.897	1	30
468.068	1	30
468.238	1	13
468.409	1	23
468.579	1	12
468.749	1	14
468.920	1	11
469.090	1	20
469.260	1	11
469.431	1	21
469.601	1	21
469.772	1	15
469.942	1	32
470.112	1	22
470.283	1	42
470.453	1	21
470.623	1	19
470.794	1	20
470.964	1	15
471.135	1	6
471.305	1	16
471.475	1	20
471.646	1	17
471.816	1	22
471.986	1	12
472.157	1	21
472.327	1	13
472.497	1	17
472.668	1	22
472.838	1	17
473.009	1	32
473.179	1	21
473.349	1	12
473.520	1	16
473.690	1	22
473.860	1	19
474.031	1	21
474.201	1	21
474.371	1	16
474.542	1	22
474.712	1	10
474.882	1	27
475.053	1	22
475.223	1	21
475.394	1	18
475.564	1	12
475.734	1	13
475.905	1	15
476.075	1	11
476.245	1	22
476.416	1	11
476.586	1	20
476.756	1	22
476.927	1	19
477.097	1	16
477.267	1	22
477.438	1	5
477.608	1	22
477.778	1	22
477.949	1	13
478.119	1	14
478.289	1	24
478.460	1	28
478.630	1	10
478.800	1	12
478.971	1	16
479.141	1	11
479.311	1	15
479.482	1	14
479.652	1	15
479.822	1	16
479.993	1	13
480.163	1	17
480.333	1	22
480.504	1	18
480.674	1	13
480.844	1	16
481.015	1	12
481.185	1	18
481.355	1	9
481.525	1	13
481.696	1	25
481.866	1	10
482.036	1	4
482.207	1	9
482.377	1	15
482.547	1	20
482.718	1	24
482.888	1	15
483.058	1	22
483.229	1	23
483.399	1	22
483.569	1	11
483.740	1	11
483.910	1	8
484.080	1	26
484.250	1	12
484.421	1	26
484.591	1	14
484.761	1	16
484.932	1	16
485.102	1	3
485.272	1	19
485.443	1	17
485.613	1	20
485.783	1	6
485.953	1	7
486.124	1	-2
486.294	1	9
486.464	1	21
486.635	1	8
486.805	1	11
486.975	1	13
487.146	1	4
487.316	1	17
487.486	1	23
487.656	1	13
487.827	1	26
487.997	1	4
488.167	1	24
488.338	1	3
488.508	1	10
488.678	1	9
488.848	1	19
489.019	1	10
489.189	1	14
489.359	1	12
489.529	1	0
489.700	1	8
489.870	1	13
490.040	1	9
490.211	1	13
490.381	1	8
490.551	1	4
490.721	1	13
490.892	1	15
491.062	1	14
491.232	1	6
491.402	1	3
491.573	1	19
491.743	1	2
491.913	1	19
492.084	1	17
492.254	1	23
492.424	1	11
492.594	1	17
492.765	1	14
492.935	1	13
493.105	1	14
493.275	1	10
493.446	1	13
493.616	1	9
493.786	1	21
493.956	1	-2
494.127	1	2
494.297	1	21
494.467	1	9
494.637	1	9
494.808	1	5
494.978	1	7
495.148	1	20
495.318	1	5
495.489	1	4
495.659	1	18
495.829	1	23
495.999	1	15
496.170	1	8
496.340	1	13
496.510	1	14
496.680	1	17
496.851	1	11
497.021	1	3
497.191	1	4
497.361	1	12
497.532	1	1
497.702	1	7
497.872	1	8
498.042	1	15
498.213	1	10
498.383	1	11
498.553	1	10
498.723	1	7
498.894	1	15
499.064	1	16
499.234	1	8
499.404	1	11
499.574	1	14
499.745	1	13
499.915	1	2
500.085	1	18
500.255	1	15
500.426	1	3
500.596	1	15
500.766	1	11
500.936	1	17
501.106	1	12
501.277	1	24
501.447	1	7
501.617	1	7
501.787	1	15
501.958	1	9
502.128	1	24
502.298	1	8
502.468	1	10
502.638	1	7
502.809	1	4
502.979	1	-2
503.149	1	11
503.319	1	18
503.489	1	14
503.660	1	7
503.830	1	6
504.000	1	10
504.170	1	0
504.340	1	8
504.511	1	11
504.681	1	13
504.851	1	13
505.021	1	9
505.192	1	7
505.362	1	7
505.532	1	-2
505.702	1	1
505.872	1	14
506.043	1	6
506.213	1	13
506.383	1	5
506.553	1	12
506.723	1	9
506.893	1	16
507.064	1	-1
507.234	1	7
507.404	1	5
507.574	1	7
507.744	1	18
507.915	1	8
508.085	1	3
508.255	1	10
508.425	1	12
508.595	1	3
508.766	1	2
508.936	1	13
509.106	1	3
509.276	1	11
509.446	1	16
509.616	1	10
509.787	1	5
509.957	1	-1
510.127	1	2
510.297	1	19
510.467	1	1
510.638	1	9
510.808	1	-3
510.978	1	13
511.148	1	8
511.318	1	4
511.488	1	16
511.659	1	16
511.829	1	9
511.999	1	10
512.169	1	4
512.339	1	2
512.509	1	3
512.680	1	-4
512.850	1	10
513.020	1	13
513.190	1	10
513.360	1	6
513.530	1	15
513.700	1	11
513.871	1	9
514.041	1	12
514.211	1	4
514.381	1	5
514.551	1	3
514.721	1	1
514.892	1	10
515.062	1	5
515.232	1	10
515.402	1	10
515.572	1	8
515.742	1	11
515.912	1	4
516.083	1	0
516.253	1	10
516.423	1	-4
516.593	1	14
516.763	1	12
516.933	1	11
517.104	1	-2
517.274	1	16
517.444	1	3
517.614	1	9
517.784	1	6
517.954	1	7
518.124	1	10
518.294	1	4
518.465	1	17
518.635	1	6
518.805	1	6
518.975	1	4
519.145	1	16
519.315	1	-3
519.485	1	4
519.656	1	5
519.826	1	1
519.996	1	6
520.166	1	12
520.336	1	6
520.506	1	9
520.676	1	11
520.846	1	5
521.017	1	1
521.187	1	5
521.357	1	4
521.527	1	14
521.697	1	9
521.867	1	4
522.037	1	11
522.207	1	13
522.377	1	12
522.548	1	9
522.718	1	7
522.888	1	18
523.058	1	8
523.228	1	4
523.398	1	3
523.568	1	6
523.738	1	0
523.909	1	14
524.079	1	4
524.249	1	0
524.419	1	11
524.589	1	13
524.759	1	10
524.929	1	8
525.099	1	-6
525.269	1	-4
525.439	1	6
525.610	1	-1
525.780	1	7
525.950	1	15
526.120	1	-4
526.290	1	14
526.460	1	8
526.630	1	7
526.800	1	-3
526.970	1	8
527.140	1	15
527.311	1	17
527.481	1	-6
527.651	1	7
527.821	1	-3
527.991	1	6
528.161	1	7
528.331	1	5
528.501	1	-3
528.671	1	4
528.841	1	20
529.011	1	0
529.181	1	11
529.352	1	17
529.522	1	9
529.692	1	-9
529.862	1	8
530.032	1	9
530.202	1	14
530.372	1	5
530.542	1	-2
530.712	1	18
530.882	1	19
531.052	1	10
531.222	1	11
531.392	1	14
531.563	1	3
531.733	1	-4
531.903	1	12
532.073	1	1
532.243	1	13
532.413	1	-1
532.583	1	23
532.753	1	3
532.923	1	10
533.093	1	4
533.263	1	4
533.433	1	0
533.603	1	-1
533.773	1	1
533.943	1	6
534.113	1	16
534.284	1	7
534.454	1	4
534.624	1	13
534.794	1	6
534.964	1	10
535.134	1	9
535.304	1	16
535.474	1	5
535.644	1	7
535.814	1	11
535.984	1	14
536.154	1	9
536.324	1	-8
536.494	1	17
536.664	1	7
536.834	1	1
537.004	1	9
537.174	1	15
537.344	1	8
537.514	1	6
537.685	1	5
537.855	1	5
538.025	1	8
538.195	1	11
538.365	1	14
538.535	1	5
538.705	1	2
538.875	1	9
539.045	1	2
539.215	1	4
539.385	1	-1
539.555	1	4
539.725	1	-4
539.895	1	0
540.065	1	-4
540.235	1	8
540.405	1	-3
540.575	1	6
540.745	1	5
540.915	1	3
541.085	1	2
541.255	1	13
541.425	1	-7
541.595	1	5
541.765	1	13
541.935	1	2
542.105	1	4
542.275	1	11
542.445	1	7
542.615	1	0
542.785	1	5
542.955	1	0
543.125	1	0
543.295	1	7
543.465	1	4
543.635	1	0
543.805	1	1
543.975	1	-1
544.145	1	15
544.315	1	-2
544.485	1	5
544.655	1	5
544.825	1	4
544.995	1	10
545.165	1	5
545.335	1	1
545.505	1	2
545.675	1	-12
545.845	1	12
546.015	1	8
546.185	1	3
546.355	1	3
546.525	1	0
546.695	1	2
546.865	1	11
547.035	1	5
547.205	1	13
547.375	1	6
547.545	1	8
547.715	1	12
547.885	1	-4
548.055	1	3
548.225	1	2
548.395	1	3
548.565	1	7
548.735	1	-4
548.905	1	7
549.075	1	2
549.245	1	13
549.415	1	-1
549.585	1	8
549.755	1	7
549.925	1	0
550.095	1	-4
550.265	1	20
550.435	1	4
550.605	1	11
550.775	1	2
550.945	1	6
551.115	1	5
551.285	1	5
551.455	1	-1
551.625	1	1
551.795	1	-3
551.965	1	2
552.135	1	3
552.305	1	9
552.475	1	12
552.645	1	3
552.815	1	4
552.985	1	1
553.155	1	9
553.325	1	-9
553.495	1	1
553.665	1	0
553.835	1	10
554.004	1	12
554.174	1	1
554.344	1	4
554.514	1	4
554.684	1	-6
554.854	1	-4
555.024	1	-3
555.194	1	-4
555.364	1	2
555.534	1	-5
555.704	1	6
555.874	1	-1
556.044	1	2
556.214	1	15
556.384	1	10
556.554	1	0
556.724	1	3
556.894	1	1
557.064	1	8
557.234	1	-7
557.404	1	6
557.573	1	2
557.743	1	4
557.913	1	15
558.083	1	4
558.253	1	-6
558.423	1	-4
558.593	1	2
558.763	1	8
558.933	1	8
559.103	1	6
559.273	1	12
559.443	1	13
559.613	1	-3
559.783	1	-1
559.953	1	4
560.122	1	-5
560.292	1	10
560.462	1	9
560.632	1	-9
560.802	1	12
560.972	1	-4
561.142	1	3
561.312	1	3
561.482	1	-4
561.652	1	2
561.822	1	-7
561.992	1	-1
562.162	1	7
562.331	1	7
562.501	1	4
562.671	1	5
562.841	1	1
563.011	1	11
563.181	1	12
563.351	1	3
563.521	1	0
563.691	1	5
563.861	1	14
564.031	1	-3
564.201	1	19
564.370	1	-4
564.540	1	23
564.710	1	7
564.880	1	9
565.050	1	10
565.220	1	0
565.390	1	-3
565.560	1	14
565.730	1	12
565.900	1	5
566.069	1	7
566.239	1	-2
566.409	1	-16
566.579	1	12
566.749	1	-5
566.919	1	-2
567.089	1	6
567.259	1	0
567.429	1	4
567.599	1	6
567.768	1	10
567.938	1	-2
568.108	1	8
568.278	1	5
568.448	1	7
568.618	1	-1
568.788	1	19
568.958	1	-4
569.128	1	6
569.297	1	1
569.467	1	-1
569.637	1	7
569.807	1	3
569.977	1	4
570.147	1	-5
570.317	1	0
570.487	1	6
570.656	1	-6
570.826	1	6
570.996	1	-10
571.166	1	16
571.336	1	-2
571.506	1	6
571.676	1	20
571.846	1	19
572.015	1	-3
572.185	1	8
572.355	1	1
572.525	1	3
572.695	1	-1
572.865	1	-8
573.035	1	5
573.205	1	-1
573.374	1	-3
573.544	1	6
573.714	1	-8
573.884	1	-2
574.054	1	2
574.224	1	4
574.394	1	5
574.563	1	7
574.733	1	11
574.903	1	7
575.073	1	4
575.243	1	2
575.413	1	0
575.583	1	7
575.752	1	2
575.922	1	8
576.092	1	-2
576.262	1	-4
576.432	1	11
576.602	1	-2
576.772	1	11
576.941	1	11
577.111	1	12
577.281	1	0
577.451	1	7
577.621	1	3
577.791	1	5
577.960	1	7
578.130	1	0
578.300	1	2
578.470	1	-3
578.640	1	-1
578.810	1	-1
578.979	1	3
579.149	1	1
579.319	1	1
579.489	1	2
579.659	1	-5
579.829	1	6
579.998	1	1
580.168	1	11
580.338	1	13
580.508	1	9
580.678	1	-1
580.848	1	1
581.017	1	18
581.187	1	3
581.357	1	-3
581.527	1	-1
581.697	1	3
581.867	1	1
582.036	1	1
582.206	1	7
582.376	1	7
582.546	1	-7
582.716	1	-2
582.885	1	-8
583.055	1	4
583.225	1	-4
583.395	1	9
583.565	1	11
583.735	1	12
583.904	1	-2
584.074	1	3
584.244	1	-1
584.414	1	4
584.584	1	-1
584.753	1	-3
584.923	1	5
585.093	1	8
585.263	1	12
585.433	1	8
585.602	1	6
585.772	1	-6
585.942	1	8
586.112	1	3
586.282	1	5
586.451	1	14
586.621	1	12
586.791	1	4
586.961	1	-3
587.131	1	-1
587.300	1	-5
587.470	1	-3
587.640	1	2
587.810	1	8
587.980	1	5
588.149	1	8
588.319	1	4
588.489	1	0
588.659	1	3
588.829	1	0
588.998	1	3
589.168	1	15
589.338	1	8
589.508	1	5
589.677	1	9
589.847	1	1
590.017	1	3
590.187	1	6
590.357	1	10
590.526	1	-8
590.696	1	-1
590.866	1	1
591.036	1	6
591.205	1	9
591.375	1	-1
591.545	1	12
591.715	1	1
591.885	1	-3
592.054	1	0
592.224	1	4
592.394	1	-5
592.564	1	3
592.733	1	-9
592.903	1	8
593.073	1	5
593.243	1	6
593.412	1	2
593.582	1	13
593.752	1	-6
593.922	1	3
594.091	1	-8
594.261	1	0
594.431	1	10
594.601	1	-6
594.771	1	6
594.940	1	-3
595.110	1	-1
595.280	1	0
595.450	1	11
595.619	1	15
595.789	1	1
595.959	1	2
596.129	1	5
596.298	1	13
596.468	1	4
596.638	1	2
596.808	1	1
596.977	1	7
597.147	1	0
597.317	1	5
597.487	1	8
597.656	1	2
597.826	1	11
597.996	1	8
598.166	1	11
598.335	1	11
598.505	1	11
598.675	1	-6
598.844	1	2
599.014	1	11
599.184	1	4
599.354	1	16
599.523	1	10
599.693	1	11
599.863	1	1
600.033	1	-1
600.202	1	2
600.372	1	-1
600.542	1	-7
600.712	1	10
600.881	1	1
601.051	1	9
601.221	1	9
601.390	1	-9
601.560	1	17
601.730	1	14
601.900	1	8
602.069	1	3
602.239	1	18
602.409	1	4
602.578	1	-2
602.748	1	11
602.918	1	3
603.088	1	12
603.257	1	2
603.427	1	-2
603.597	1	5
603.767	1	13
603.936	1	6
604.106	1	8
604.276	1	21
604.445	1	8
604.615	1	-1
604.785	1	9
604.954	1	14
605.124	1	2
605.294	1	3
605.464	1	5
605.633	1	1
605.803	1	8
605.973	1	3
606.142	1	1
606.312	1	1
606.482	1	10
606.652	1	1
606.821	1	5
606.991	1	-5
607.161	1	-1
607.330	1	-5
607.500	1	7
607.670	1	12
607.839	1	10
608.009	1	5
608.179	1	0
608.348	1	7
608.518	1	1
608.688	1	2
608.858	1	14
609.027	1	5
609.197	1	-5
609.367	1	15
609.536	1	14
609.706	1	4
609.876	1	16
610.045	1	5
610.215	1	1
610.385	1	-9
610.554	1	3
610.724	1	-1
610.894	1	9
611.063	1	-4
611.233	1	11
611.403	1	4
611.572	1	5
611.742	1	12
611.912	1	7
612.081	1	-7
612.251	1	14
612.421	1	13
612.590	1	5
612.760	1	5
612.930	1	-3
613.099	1	8
613.269	1	-3
613.439	1	-3
613.608	1	7
613.778	1	3
613.948	1	0
614.117	1	8
614.287	1	2
614.457	1	-11
614.626	1	11
614.796	1	6
614.966	1	14
615.135	1	10
615.305	1	11
615.475	1	6
615.644	1	0
615.814	1	-5
615.984	1	5
616.153	1	0
616.323	1	10
616.493	1	22
616.662	1	4
616.832	1	11
617.002	1	7
617.171	1	-5
617.341	1	2
617.511	1	7
617.680	1	13
617.850	1	9
618.019	1	1
618.189	1	14
618.359	1	4
618.528	1	7
618.698	1	10
618.868	1	5
619.037	1	3
619.207	1	7
619.377	1	8
619.546	1	5
619.716	1	6
619.885	1	4
620.055	1	16
620.225	1	16
620.394	1	6
620.564	1	11
620.734	1	-3
620.903	1	18
621.073	1	-3
621.242	1	7
621.412	1	8
621.582	1	20
621.751	1	4
621.921	1	7
622.091	1	8
622.260	1	1
622.430	1	4
622.599	1	-2
622.769	1	11
622.939	1	12
623.108	1	11
623.278	1	4
623.448	1	4
623.617	1	0
623.787	1	13
623.956	1	14
624.126	1	20
624.296	1	4
624.465	1	1
624.635	1	11
624.804	1	-1
624.974	1	9
625.144	1	7
625.313	1	9
625.483	1	26
625.652	1	10
625.822	1	7
625.992	1	9
626.161	1	18
626.331	1	6
626.501	1	9
626.670	1	7
626.840	1	13
627.009	1	12
627.179	1	15
627.348	1	18
627.518	1	13
627.688	1	4
627.857	1	12
628.027	1	-7
628.196	1	4
628.366	1	1
628.536	1	3
628.705	1	10
628.875	1	18
629.044	1	11
629.214	1	15
629.384	1	5
629.553	1	14
629.723	1	3
629.892	1	14
630.062	1	9
630.232	1	14
630.401	1	13
630.571	1	10
630.740	1	11
630.910	1	17
631.079	1	-5
631.249	1	10
631.419	1	2
631.588	1	4
631.758	1	10
631.927	1	11
632.097	1	7
632.266	1	7
632.436	1	8
632.606	1	-1
632.775	1	22
632.945	1	15
633.114	1	9
633.284	1	1
633.453	1	3
633.623	1	9
633.793	1	-3
633.962	1	0
634.132	1	12
634.301	1	12
634.471	1	1
634.640	1	15
634.810	1	9
634.979	1	8
635.149	1	11
635.319	1	15
635.488	1	18
635.658	1	8
635.827	1	8
635.997	1	9
636.166	1	6
636.336	1	5
636.505	1	6
636.675	1	13
636.845	1	5
637.014	1	6
637.184	1	8
637.353	1	8
637.523	1	10
637.692	1	10
637.862	1	15
638.031	1	10
638.201	1	21
638.370	1	13
638.540	1	-1
638.710	1	12
638.879	1	6
639.049	1	12
639.218	1	9
639.388	1	11
639.557	1	9
639.727	1	8
639.896	1	5
640.066	1	15
640.235	1	14
640.405	1	10
640.574	1	-1
640.744	1	14
640.914	1	13
641.083	1	14
641.253	1	20
641.422	1	0
641.592	1	16
641.761	1	10
641.931	1	-4
642.100	1	-1
642.270	1	6
642.439	1	7
642.609	1	7
642.778	1	1
642.948	1	5
643.117	1	10
643.287	1	11
643.456	1	18
643.626	1	23
643.795	1	11
643.965	1	20
644.134	1	4
644.304	1	3
644.473	1	9
644.643	1	18
644.812	1	19
644.982	1	18
645.151	1	21
645.321	1	6
645.490	1	4
645.660	1	4
645.829	1	10
645.999	1	3
646.168	1	-4
646.338	1	8
646.507	1	7
646.677	1	12
646.846	1	12
647.016	1	10
647.185	1	8
647.355	1	10
647.524	1	6
647.694	1	12
647.863	1	2
648.033	1	8
648.202	1	11
648.372	1	16
648.541	1	8
648.711	1	6
648.880	1	14
649.050	1	9
649.219	1	5
649.389	1	6
649.558	1	8
649.728	1	0
649.897	1	6
650.067	1	11
650.236	1	15
650.406	1	11
650.575	1	10
650.745	1	7
650.914	1	12
651.084	1	0
651.253	1	20
651.423	1	8
651.592	1	11
651.762	1	15
651.931	1	10
652.101	1	7
652.270	1	15
652.440	1	9
652.609	1	14
652.778	1	5
652.948	1	10
653.117	1	7
653.287	1	18
653.456	1	15
653.626	1	4
653.795	1	13
653.965	1	9
654.134	1	8
654.304	1	13
654.473	1	11
654.643	1	13
654.812	1	12
654.982	1	12
655.151	1	6
655.320	1	7
655.490	1	7
655.659	1	9
655.829	1	8
655.998	1	7
656.168	1	9
656.337	1	16
656.507	1	-1
656.676	1	18
656.846	1	3
657.015	1	-7
657.184	1	2
657.354	1	5
657.523	1	6
657.693	1	7
657.862	1	13
658.032	1	9
658.201	1	12
658.371	1	0
658.540	1	-3
658.709	1	7
658.879	1	0
659.048	1	7
659.218	1	4
659.387	1	3
659.557	1	12
659.726	1	11
659.895	1	8
660.065	1	-8
660.234	1	10
660.404	1	0
660.573	1	5
660.743	1	19
660.912	1	19
661.081	1	17
661.251	1	1
661.420	1	0
661.590	1	2
661.759	1	3
661.929	1	11
662.098	1	1
662.267	1	11
662.437	1	9
662.606	1	17
662.776	1	5
662.945	1	4
663.115	1	7
663.284	1	13
663.453	1	-8
663.623	1	23
663.792	1	12
663.962	1	9
664.131	1	11
664.300	1	5
664.470	1	11
664.639	1	1
664.809	1	-5
664.978	1	2
665.148	1	9
665.317	1	2
665.486	1	8
665.656	1	2
665.825	1	8
665.995	1	4
666.164	1	13
666.333	1	6
666.503	1	3
666.672	1	13
666.842	1	-4
667.011	1	10
667.180	1	5
667.350	1	7
667.519	1	16
667.689	1	3
667.858	1	7
668.027	1	15
668.197	1	2
668.366	1	7
668.536	1	18
668.705	1	4
668.874	1	7
669.044	1	13
669.213	1	8
669.382	1	12
669.552	1	12
669.721	1	14
669.891	1	17
670.060	1	21
670.229	1	14
670.399	1	15
670.568	1	4
670.738	1	-1
670.907	1	5
671.076	1	14
671.246	1	15
671.415	1	11
671.584	1	10
671.754	1	7
671.923	1	14
672.093	1	11
672.262	1	10
672.431	1	-3
672.601	1	15
672.770	1	-3
672.939	1	15
673.109	1	8
673.278	1	20
673.448	1	8
673.617	1	-6
673.786	1	5
