325.333	1	10
325.504	1	12
325.675	1	9
325.846	1	15
326.017	1	15
326.188	1	10
326.359	1	12
326.531	1	6
326.702	1	18
326.873	1	17
327.044	1	4
327.215	1	10
327.386	1	5
327.557	1	22
327.728	1	10
327.899	1	21
328.070	1	25
328.241	1	18
328.412	1	10
328.583	1	12
328.754	1	12
328.926	1	6
329.097	1	4
329.268	1	16
329.439	1	15
329.610	1	19
329.781	1	10
329.952	1	17
330.123	1	12
330.294	1	8
330.465	1	6
330.636	1	10
330.807	1	15
330.978	1	6
331.149	1	24
331.320	1	8
331.492	1	17
331.663	1	12
331.834	1	10
332.005	1	17
332.176	1	11
332.347	1	17
332.518	1	18
332.689	1	21
332.860	1	19
333.031	1	12
333.202	1	6
333.373	1	14
333.544	1	18
333.715	1	18
333.886	1	12
334.057	1	16
334.228	1	7
334.399	1	26
334.570	1	18
334.741	1	15
334.912	1	15
335.084	1	17
335.255	1	20
335.426	1	13
335.597	1	23
335.768	1	25
335.939	1	17
336.110	1	17
336.281	1	17
336.452	1	18
336.623	1	20
336.794	1	15
336.965	1	14
337.136	1	13
337.307	1	22
337.478	1	15
337.649	1	23
337.820	1	21
337.991	1	22
338.162	1	21
338.333	1	12
338.504	1	19
338.675	1	12
338.846	1	17
339.017	1	27
339.188	1	21
339.359	1	21
339.530	1	29
339.701	1	9
339.872	1	26
340.043	1	4
340.214	1	21
340.385	1	14
340.556	1	19
340.727	1	18
340.898	1	23
341.069	1	30
341.240	1	22
341.411	1	12
341.582	1	23
341.753	1	17
341.924	1	13
342.095	1	16
342.266	1	21
342.437	1	22
342.608	1	35
342.779	1	15
342.950	1	23
343.121	1	22
343.292	1	21
343.463	1	21
343.634	1	18
343.805	1	19
343.976	1	20
344.147	1	24
344.318	1	18
344.489	1	30
344.660	1	22
344.831	1	29
345.002	1	24
345.173	1	13
345.344	1	29
345.515	1	13
345.686	1	35
345.857	1	21
346.028	1	29
346.199	1	13
346.370	1	26
346.541	1	20
346.712	1	27
346.883	1	22
347.054	1	21
347.225	1	24
347.396	1	12
347.567	1	34
347.738	1	16
347.909	1	25
348.080	1	29
348.251	1	18
348.422	1	31
348.593	1	23
348.764	1	22
348.935	1	26
349.106	1	23
349.277	1	28
349.448	1	27
349.619	1	12
349.790	1	46
349.961	1	27
350.132	1	31
350.303	1	20
350.474	1	20
350.645	1	29
350.816	1	19
350.987	1	27
351.157	1	32
351.328	1	32
351.499	1	25
351.670	1	39
351.841	1	27
352.012	1	31
352.183	1	26
352.354	1	16
352.525	1	30
352.696	1	42
352.867	1	26
353.038	1	25
353.209	1	33
353.380	1	22
353.551	1	34
353.722	1	26
353.893	1	20
354.064	1	35
354.235	1	34
354.406	1	38
354.576	1	45
354.747	1	28
354.918	1	34
355.089	1	32
355.260	1	48
355.431	1	30
355.602	1	36
355.773	1	30
355.944	1	32
356.115	1	35
356.286	1	41
356.457	1	37
356.628	1	18
356.799	1	37
356.970	1	36
357.141	1	24
357.311	1	45
357.482	1	33
357.653	1	38
357.824	1	39
357.995	1	35
358.166	1	30
358.337	1	33
358.508	1	44
358.679	1	30
358.850	1	35
359.021	1	34
359.192	1	39
359.363	1	30
359.533	1	20
359.704	1	39
359.875	1	34
360.046	1	44
360.217	1	39
360.388	1	35
360.559	1	37
360.730	1	28
360.901	1	39
361.072	1	39
361.243	1	34
361.414	1	34
361.584	1	35
361.755	1	29
361.926	1	44
362.097	1	39
362.268	1	39
362.439	1	27
362.610	1	30
362.781	1	26
362.952	1	46
363.123	1	32
363.293	1	36
363.464	1	35
363.635	1	40
363.806	1	33
363.977	1	44
364.148	1	36
364.319	1	42
364.490	1	39
364.661	1	32
364.832	1	31
365.002	1	44
365.173	1	43
365.344	1	35
365.515	1	30
365.686	1	28
365.857	1	43
366.028	1	37
366.199	1	40
366.370	1	40
366.540	1	36
366.711	1	41
366.882	1	24
367.053	1	35
367.224	1	28
367.395	1	41
367.566	1	30
367.737	1	41
367.908	1	40
368.078	1	53
368.249	1	41
368.420	1	40
368.591	1	42
368.762	1	35
368.933	1	21
369.104	1	39
369.274	1	31
369.445	1	33
369.616	1	42
369.787	1	53
369.958	1	40
370.129	1	32
370.300	1	42
370.471	1	50
370.641	1	36
370.812	1	36
370.983	1	37
371.154	1	37
371.325	1	45
371.496	1	41
371.667	1	35
371.837	1	38
372.008	1	27
372.179	1	32
372.350	1	34
372.521	1	46
372.692	1	41
372.863	1	38
373.033	1	44
373.204	1	33
373.375	1	42
373.546	1	54
373.717	1	39
373.888	1	37
374.059	1	35
374.229	1	36
374.400	1	39
374.571	1	41
374.742	1	31
374.913	1	43
375.084	1	46
375.254	1	39
375.425	1	24
375.596	1	45
375.767	1	40
375.938	1	48
376.109	1	31
376.279	1	32
376.450	1	54
376.621	1	33
376.792	1	42
376.963	1	32
377.134	1	48
377.304	1	39
377.475	1	41
377.646	1	49
377.817	1	35
377.988	1	43
378.159	1	50
378.329	1	46
378.500	1	51
378.671	1	42
378.842	1	42
379.013	1	48
379.184	1	37
379.354	1	52
379.525	1	39
379.696	1	42
379.867	1	43
380.038	1	57
380.209	1	41
380.379	1	36
380.550	1	52
380.721	1	42
380.892	1	49
381.063	1	53
381.233	1	51
381.404	1	48
381.575	1	53
381.746	1	55
381.917	1	52
382.087	1	46
382.258	1	47
382.429	1	34
382.600	1	45
382.771	1	48
382.941	1	53
383.112	1	39
383.283	1	56
383.454	1	50
383.625	1	40
383.795	1	46
383.966	1	43
384.137	1	41
384.308	1	46
384.479	1	36
384.649	1	50
384.820	1	58
384.991	1	55
385.162	1	44
385.333	1	50
385.503	1	40
385.674	1	29
385.845	1	53
386.016	1	53
386.187	1	51
386.357	1	49
386.528	1	46
386.699	1	51
386.870	1	46
387.041	1	52
387.211	1	46
387.382	1	39
387.553	1	51
387.724	1	65
387.894	1	53
388.065	1	55
388.236	1	50
388.407	1	54
388.578	1	55
388.748	1	55
388.919	1	51
389.090	1	57
389.261	1	54
389.431	1	48
389.602	1	65
389.773	1	63
389.944	1	66
390.114	1	65
390.285	1	42
390.456	1	46
390.627	1	57
390.798	1	46
390.968	1	61
391.139	1	43
391.310	1	61
391.481	1	68
391.651	1	61
391.822	1	59
391.993	1	50
392.164	1	57
392.334	1	49
392.505	1	54
392.676	1	62
392.847	1	55
393.017	1	58
393.188	1	63
393.359	1	63
393.530	1	51
393.700	1	39
393.871	1	50
394.042	1	42
394.213	1	48
394.383	1	41
394.554	1	66
394.725	1	47
394.896	1	62
395.066	1	56
395.237	1	52
395.408	1	61
395.579	1	54
395.749	1	50
395.920	1	38
396.091	1	63
396.262	1	58
396.432	1	54
396.603	1	52
396.774	1	54
396.945	1	55
397.115	1	44
397.286	1	56
397.457	1	54
397.627	1	48
397.798	1	52
397.969	1	58
398.140	1	54
398.310	1	56
398.481	1	49
398.652	1	62
398.823	1	59
398.993	1	54
399.164	1	66
399.335	1	63
399.505	1	55
399.676	1	55
399.847	1	64
400.018	1	71
400.188	1	55
400.359	1	66
400.530	1	66
400.700	1	61
400.871	1	49
401.042	1	64
401.213	1	63
401.383	1	67
401.554	1	63
401.725	1	76
401.895	1	69
402.066	1	52
402.237	1	66
402.408	1	63
402.578	1	54
402.749	1	72
402.920	1	72
403.090	1	53
403.261	1	67
403.432	1	66
403.603	1	63
403.773	1	69
403.944	1	61
404.115	1	72
404.285	1	62
404.456	1	46
404.627	1	52
404.797	1	55
404.968	1	67
405.139	1	56
405.310	1	64
405.480	1	60
405.651	1	55
405.822	1	58
405.992	1	51
406.163	1	77
406.334	1	67
406.504	1	68
406.675	1	72
406.846	1	65
407.016	1	65
407.187	1	60
407.358	1	73
407.528	1	65
407.699	1	61
407.870	1	74
408.041	1	68
408.211	1	74
408.382	1	68
408.553	1	70
408.723	1	56
408.894	1	64
409.065	1	61
409.235	1	51
409.406	1	56
409.577	1	63
409.747	1	67
409.918	1	66
410.089	1	59
410.259	1	59
410.430	1	57
410.601	1	64
410.771	1	66
410.942	1	69
411.113	1	58
411.283	1	63
411.454	1	74
411.625	1	78
411.795	1	64
411.966	1	93
412.137	1	79
412.307	1	68
412.478	1	66
412.649	1	54
412.819	1	76
412.990	1	80
413.161	1	77
413.331	1	69
413.502	1	72
413.672	1	65
413.843	1	68
414.014	1	78
414.184	1	66
414.355	1	78
414.526	1	67
414.696	1	73
414.867	1	57
415.038	1	76
415.208	1	66
415.379	1	74
415.550	1	70
415.720	1	63
415.891	1	77
416.062	1	66
416.232	1	66
416.403	1	69
416.573	1	69
416.744	1	58
416.915	1	83
417.085	1	72
417.256	1	54
417.427	1	68
417.597	1	65
417.768	1	67
417.939	1	68
418.109	1	66
418.280	1	59
418.450	1	61
418.621	1	68
418.792	1	63
418.962	1	62
419.133	1	65
419.304	1	61
419.474	1	61
419.645	1	68
419.815	1	57
419.986	1	70
420.157	1	66
420.327	1	45
420.498	1	60
420.669	1	59
420.839	1	55
421.010	1	59
421.180	1	62
421.351	1	75
421.522	1	70
421.692	1	83
421.863	1	62
422.033	1	57
422.204	1	69
422.375	1	58
422.545	1	71
422.716	1	63
422.886	1	64
423.057	1	69
423.228	1	56
423.398	1	71
423.569	1	58
423.740	1	60
423.910	1	71
424.081	1	79
424.251	1	60
424.422	1	57
424.593	1	64
424.763	1	81
424.934	1	72
425.104	1	72
425.275	1	72
425.445	1	55
425.616	1	65
425.787	1	66
425.957	1	67
426.128	1	66
426.298	1	70
426.469	1	60
426.640	1	70
426.810	1	79
426.981	1	78
427.151	1	61
427.322	1	71
427.493	1	74
427.663	1	65
427.834	1	67
428.004	1	63
428.175	1	74
428.345	1	70
428.516	1	70
428.687	1	78
428.857	1	62
429.028	1	64
429.198	1	74
429.369	1	75
429.540	1	61
429.710	1	60
429.881	1	54
430.051	1	74
430.222	1	69
430.392	1	63
430.563	1	76
430.734	1	65
430.904	1	62
431.075	1	67
431.245	1	59
431.416	1	61
431.586	1	52
431.757	1	67
431.927	1	70
432.098	1	54
432.269	1	51
432.439	1	63
432.610	1	67
432.780	1	54
432.951	1	64
433.121	1	73
433.292	1	53
433.462	1	54
433.633	1	58
433.804	1	63
433.974	1	72
434.145	1	71
434.315	1	64
434.486	1	81
434.656	1	64
434.827	1	62
434.997	1	63
435.168	1	58
435.339	1	64
435.509	1	62
435.680	1	71
435.850	1	54
436.021	1	71
436.191	1	74
436.362	1	63
436.532	1	61
436.703	1	63
436.873	1	68
437.044	1	50
437.214	1	61
437.385	1	67
437.556	1	61
437.726	1	63
437.897	1	69
438.067	1	64
438.238	1	70
438.408	1	58
438.579	1	65
438.749	1	64
438.920	1	80
439.090	1	57
439.261	1	59
439.431	1	69
439.602	1	66
439.772	1	66
439.943	1	64
440.113	1	73
440.284	1	60
440.455	1	60
440.625	1	80
440.796	1	64
440.966	1	57
441.137	1	57
441.307	1	65
441.478	1	61
441.648	1	60
441.819	1	69
441.989	1	56
442.160	1	57
442.330	1	57
442.501	1	55
442.671	1	56
442.842	1	59
443.012	1	56
443.183	1	61
443.353	1	65
443.524	1	58
443.694	1	55
443.865	1	63
444.035	1	45
444.206	1	57
444.376	1	52
444.547	1	75
444.717	1	52
444.888	1	49
445.058	1	61
445.229	1	45
445.399	1	58
445.570	1	55
445.740	1	53
445.911	1	63
446.081	1	53
446.252	1	69
446.422	1	50
446.593	1	51
446.763	1	57
446.934	1	55
447.104	1	62
447.275	1	69
447.445	1	58
447.616	1	53
447.786	1	53
447.957	1	60
448.127	1	58
448.298	1	57
448.468	1	61
448.639	1	58
448.809	1	66
448.979	1	39
449.150	1	43
449.320	1	61
449.491	1	56
449.661	1	60
449.832	1	56
450.002	1	61
450.173	1	54
450.343	1	53
450.514	1	61
450.684	1	49
450.855	1	61
451.025	1	41
451.196	1	62
451.366	1	55
451.537	1	59
451.707	1	61
451.878	1	50
452.048	1	67
452.218	1	50
452.389	1	59
452.559	1	46
452.730	1	55
452.900	1	56
453.071	1	52
453.241	1	66
453.412	1	61
453.582	1	47
453.753	1	47
453.923	1	54
454.093	1	59
454.264	1	66
454.434	1	59
454.605	1	57
454.775	1	57
454.946	1	64
455.116	1	65
455.287	1	54
455.457	1	51
455.628	1	66
455.798	1	52
455.968	1	62
456.139	1	52
456.309	1	62
456.480	1	55
456.650	1	65
456.821	1	63
456.991	1	52
457.161	1	64
457.332	1	47
457.502	1	51
457.673	1	54
457.843	1	58
458.014	1	52
458.184	1	44
458.355	1	41
458.525	1	55
458.695	1	47
458.866	1	53
459.036	1	43
459.207	1	47
459.377	1	66
459.548	1	43
459.718	1	41
459.888	1	62
460.059	1	42
460.229	1	41
460.400	1	68
460.570	1	59
460.740	1	46
460.911	1	50
461.081	1	39
461.252	1	65
461.422	1	45
461.593	1	43
461.763	1	52
461.933	1	42
462.104	1	53
462.274	1	53
462.445	1	43
462.615	1	56
462.785	1	46
462.956	1	50
463.126	1	42
463.297	1	45
463.467	1	54
463.638	1	34
463.808	1	44
463.978	1	44
464.149	1	57
464.319	1	37
464.490	1	55
464.660	1	51
464.830	1	42
465.001	1	51
465.171	1	51
465.342	1	57
465.512	1	47
465.682	1	44
465.853	1	50
466.023	1	58
466.194	1	48
466.364	1	49
466.534	1	57
466.705	1	53
466.875	1	56
467.045	1	44
467.216	1	45
467.386	1	41
467.557	1	51
467.727	1	48
467.897	1	37
468.068	1	51
468.238	1	48
468.409	1	37
468.579	1	48
468.749	1	37
468.920	1	43
469.090	1	51
469.260	1	40
469.431	1	43
469.601	1	30
469.772	1	54
469.942	1	59
470.112	1	56
470.283	1	53
470.453	1	49
470.623	1	44
470.794	1	50
470.964	1	43
471.135	1	55
471.305	1	51
471.475	1	43
471.646	1	41
471.816	1	48
471.986	1	48
472.157	1	38
472.327	1	39
472.497	1	31
472.668	1	43
472.838	1	44
473.009	1	59
473.179	1	44
473.349	1	37
473.520	1	48
473.690	1	39
473.860	1	41
474.031	1	46
474.201	1	45
474.371	1	38
474.542	1	47
474.712	1	32
474.882	1	45
475.053	1	57
475.223	1	43
475.394	1	39
475.564	1	43
475.734	1	41
475.905	1	52
476.075	1	36
476.245	1	46
476.416	1	41
476.586	1	30
476.756	1	45
476.927	1	45
477.097	1	55
477.267	1	46
477.438	1	20
477.608	1	48
477.778	1	46
477.949	1	39
478.119	1	41
478.289	1	51
478.460	1	50
478.630	1	37
478.800	1	43
478.971	1	46
479.141	1	35
479.311	1	40
479.482	1	36
479.652	1	44
479.822	1	38
479.993	1	37
480.163	1	41
480.333	1	48
480.504	1	45
480.674	1	42
480.844	1	36
481.015	1	34
481.185	1	37
481.355	1	33
481.525	1	41
481.696	1	49
481.866	1	40
482.036	1	35
482.207	1	41
482.377	1	28
482.547	1	51
482.718	1	37
482.888	1	38
483.058	1	41
483.229	1	40
483.399	1	44
483.569	1	32
483.740	1	47
483.910	1	31
484.080	1	32
484.250	1	40
484.421	1	43
484.591	1	42
484.761	1	43
484.932	1	39
485.102	1	42
485.272	1	48
485.443	1	46
485.613	1	36
485.783	1	33
485.953	1	31
486.124	1	28
486.294	1	40
486.464	1	39
486.635	1	43
486.805	1	31
486.975	1	31
487.146	1	41
487.316	1	41
487.486	1	31
487.656	1	35
487.827	1	52
487.997	1	34
488.167	1	45
488.338	1	23
488.508	1	33
488.678	1	37
488.848	1	46
489.019	1	40
489.189	1	33
489.359	1	35
489.529	1	29
489.700	1	27
489.870	1	36
490.040	1	24
490.211	1	29
490.381	1	33
490.551	1	32
490.721	1	46
490.892	1	53
491.062	1	35
491.232	1	35
491.402	1	32
491.573	1	32
491.743	1	34
491.913	1	39
492.084	1	30
492.254	1	40
492.424	1	29
492.594	1	37
492.765	1	37
492.935	1	43
493.105	1	42
493.275	1	28
493.446	1	38
493.616	1	34
493.786	1	41
493.956	1	34
494.127	1	29
494.297	1	24
494.467	1	34
494.637	1	40
494.808	1	19
494.978	1	27
495.148	1	45
495.318	1	20
495.489	1	40
495.659	1	38
495.829	1	31
495.999	1	31
496.170	1	26
496.340	1	30
496.510	1	34
496.680	1	36
496.851	1	21
497.021	1	31
497.191	1	28
497.361	1	35
497.532	1	19
497.702	1	42
497.872	1	34
498.042	1	24
498.213	1	35
498.383	1	42
498.553	1	29
498.723	1	21
498.894	1	40
499.064	1	47
499.234	1	35
499.404	1	40
499.574	1	29
499.745	1	33
499.915	1	29
500.085	1	22
500.255	1	35
500.426	1	26
500.596	1	35
500.766	1	30
500.936	1	36
501.106	1	34
501.277	1	41
501.447	1	38
501.617	1	31
501.787	1	36
501.958	1	31
502.128	1	41
502.298	1	33
502.468	1	34
502.638	1	29
502.809	1	38
502.979	1	27
503.149	1	42
503.319	1	32
503.489	1	31
503.660	1	33
503.830	1	36
504.000	1	33
504.170	1	24
504.340	1	29
504.511	1	42
504.681	1	29
504.851	1	37
505.021	1	23
505.192	1	23
505.362	1	23
505.532	1	25
505.702	1	17
505.872	1	36
506.043	1	27
506.213	1	30
506.383	1	39
506.553	1	23
506.723	1	39
506.893	1	32
507.064	1	21
507.234	1	27
507.404	1	41
507.574	1	30
507.744	1	33
507.915	1	23
508.085	1	27
508.255	1	47
508.425	1	18
508.595	1	25
508.766	1	22
508.936	1	41
509.106	1	25
509.276	1	36
509.446	1	26
509.616	1	24
509.787	1	31
509.957	1	20
510.127	1	22
510.297	1	38
510.467	1	18
510.638	1	26
510.808	1	21
510.978	1	28
511.148	1	31
511.318	1	35
511.488	1	26
511.659	1	26
511.829	1	26
511.999	1	14
512.169	1	21
512.339	1	21
512.509	1	16
512.680	1	18
512.850	1	22
513.020	1	30
513.190	1	24
513.360	1	19
513.530	1	22
513.700	1	21
513.871	1	23
514.041	1	30
514.211	1	22
514.381	1	27
514.551	1	25
514.721	1	16
514.892	1	27
515.062	1	33
515.232	1	29
515.402	1	22
515.572	1	24
515.742	1	21
515.912	1	15
516.083	1	17
516.253	1	28
516.423	1	15
516.593	1	21
516.763	1	28
516.933	1	36
517.104	1	22
517.274	1	29
517.444	1	26
517.614	1	17
517.784	1	20
517.954	1	24
518.124	1	18
518.294	1	13
518.465	1	16
518.635	1	25
518.805	1	15
518.975	1	22
519.145	1	30
519.315	1	19
519.485	1	15
519.656	1	18
519.826	1	19
519.996	1	25
520.166	1	9
520.336	1	25
520.506	1	33
520.676	1	32
520.846	1	14
521.017	1	23
521.187	1	20
521.357	1	19
521.527	1	12
521.697	1	28
521.867	1	21
522.037	1	22
522.207	1	20
522.377	1	21
522.548	1	27
522.718	1	24
522.888	1	27
523.058	1	25
523.228	1	13
523.398	1	31
523.568	1	20
523.738	1	20
523.909	1	18
524.079	1	16
524.249	1	24
524.419	1	25
524.589	1	19
524.759	1	24
524.929	1	16
525.099	1	11
525.269	1	13
525.439	1	25
525.610	1	12
525.780	1	19
525.950	1	34
526.120	1	20
526.290	1	18
526.460	1	21
526.630	1	25
526.800	1	8
526.970	1	16
527.140	1	27
527.311	1	29
527.481	1	10
527.651	1	18
527.821	1	21
527.991	1	19
528.161	1	14
528.331	1	16
528.501	1	6
528.671	1	23
528.841	1	35
529.011	1	17
529.181	1	24
529.352	1	22
529.522	1	17
529.692	1	18
529.862	1	19
530.032	1	22
530.202	1	16
530.372	1	22
530.542	1	16
530.712	1	27
530.882	1	23
531.052	1	18
531.222	1	13
531.392	1	13
531.563	1	12
531.733	1	16
531.903	1	19
532.073	1	17
532.243	1	24
532.413	1	12
532.583	1	19
532.753	1	25
532.923	1	27
533.093	1	15
533.263	1	16
533.433	1	15
533.603	1	13
533.773	1	13
533.943	1	15
534.113	1	19
534.284	1	2
534.454	1	21
534.624	1	28
534.794	1	23
534.964	1	8
535.134	1	22
535.304	1	24
535.474	1	16
535.644	1	20
535.814	1	18
535.984	1	12
536.154	1	24
536.324	1	17
536.494	1	20
536.664	1	10
536.834	1	21
537.004	1	20
537.174	1	12
537.344	1	22
537.514	1	13
537.685	1	24
537.855	1	15
538.025	1	25
538.195	1	16
538.365	1	27
538.535	1	8
538.705	1	12
538.875	1	7
539.045	1	19
539.215	1	12
539.385	1	8
539.555	1	11
539.725	1	8
539.895	1	22
540.065	1	12
540.235	1	18
540.405	1	9
540.575	1	16
540.745	1	9
540.915	1	20
541.085	1	13
541.255	1	17
541.425	1	10
541.595	1	19
541.765	1	25
541.935	1	11
542.105	1	15
542.275	1	26
542.445	1	19
542.615	1	21
542.785	1	13
542.955	1	13
543.125	1	14
543.295	1	16
543.465	1	26
543.635	1	10
543.805	1	13
543.975	1	6
544.145	1	23
544.315	1	18
544.485	1	16
544.655	1	13
544.825	1	5
544.995	1	16
545.165	1	10
545.335	1	6
545.505	1	16
545.675	1	-2
545.845	1	21
546.015	1	7
546.185	1	6
546.355	1	9
546.525	1	8
546.695	1	7
546.865	1	26
547.035	1	8
547.205	1	25
547.375	1	13
547.545	1	4
547.715	1	19
547.885	1	13
548.055	1	7
548.225	1	9
548.395	1	12
548.565	1	18
548.735	1	17
548.905	1	25
549.075	1	20
549.245	1	16
549.415	1	15
549.585	1	11
549.755	1	18
549.925	1	17
550.095	1	11
550.265	1	28
550.435	1	21
550.605	1	23
550.775	1	20
550.945	1	12
551.115	1	14
551.285	1	13
551.455	1	16
551.625	1	5
551.795	1	10
551.965	1	10
552.135	1	11
552.305	1	12
552.475	1	12
552.645	1	23
552.815	1	12
552.985	1	7
553.155	1	18
553.325	1	9
553.495	1	19
553.665	1	14
553.835	1	18
554.004	1	20
554.174	1	6
554.344	1	19
554.514	1	27
554.684	1	3
554.854	1	6
555.024	1	4
555.194	1	9
555.364	1	21
555.534	1	10
555.704	1	13
555.874	1	12
556.044	1	12
556.214	1	23
556.384	1	18
556.554	1	10
556.724	1	14
556.894	1	12
557.064	1	18
557.234	1	7
557.404	1	17
557.573	1	14
557.743	1	14
557.913	1	27
558.083	1	8
558.253	1	9
558.423	1	8
558.593	1	6
558.763	1	21
558.933	1	16
559.103	1	23
559.273	1	18
559.443	1	19
559.613	1	3
559.783	1	6
559.953	1	12
560.122	1	16
560.292	1	22
560.462	1	9
560.632	1	11
560.802	1	17
560.972	1	3
561.142	1	4
561.312	1	7
561.482	1	5
561.652	1	9
561.822	1	6
561.992	1	8
562.162	1	25
562.331	1	21
562.501	1	16
562.671	1	16
562.841	1	5
563.011	1	7
563.181	1	5
563.351	1	13
563.521	1	16
563.691	1	12
563.861	1	20
564.031	1	10
564.201	1	24
564.370	1	10
564.540	1	17
564.710	1	8
564.880	1	17
565.050	1	15
565.220	1	1
565.390	1	8
565.560	1	20
565.730	1	13
565.900	1	14
566.069	1	14
566.239	1	18
566.409	1	-11
566.579	1	11
566.749	1	7
566.919	1	17
567.089	1	16
567.259	1	6
567.429	1	6
567.599	1	11
567.768	1	9
567.938	1	6
568.108	1	17
568.278	1	11
568.448	1	15
568.618	1	10
568.788	1	18
568.958	1	0
569.128	1	6
569.297	1	15
569.467	1	3
569.637	1	12
569.807	1	14
569.977	1	10
570.147	1	9
570.317	1	-2
570.487	1	10
570.656	1	1
570.826	1	20
570.996	1	3
571.166	1	21
571.336	1	17
571.506	1	13
571.676	1	24
571.846	1	19
572.015	1	7
572.185	1	17
572.355	1	5
572.525	1	3
572.695	1	10
572.865	1	0
573.035	1	14
573.205	1	18
573.374	1	9
573.544	1	18
573.714	1	9
573.884	1	5
574.054	1	16
574.224	1	0
574.394	1	13
574.563	1	19
574.733	1	8
574.903	1	12
575.073	1	1
575.243	1	8
575.413	1	14
575.583	1	6
575.752	1	14
575.922	1	8
576.092	1	0
576.262	1	11
576.432	1	13
576.602	1	9
576.772	1	21
576.941	1	8
577.111	1	1
577.281	1	1
577.451	1	5
577.621	1	17
577.791	1	5
577.960	1	4
578.130	1	10
578.300	1	3
578.470	1	2
578.640	1	14
578.810	1	5
578.979	1	8
579.149	1	5
579.319	1	6
579.489	1	2
579.659	1	-1
579.829	1	11
579.998	1	8
580.168	1	18
580.338	1	12
580.508	1	25
580.678	1	10
580.848	1	12
581.017	1	24
581.187	1	10
581.357	1	5
581.527	1	10
581.697	1	10
581.867	1	12
582.036	1	-3
582.206	1	16
582.376	1	10
582.546	1	4
582.716	1	7
582.885	1	4
583.055	1	16
583.225	1	6
583.395	1	23
583.565	1	12
583.735	1	16
583.904	1	9
584.074	1	9
584.244	1	16
584.414	1	11
584.584	1	8
584.753	1	19
584.923	1	12
585.093	1	17
585.263	1	14
585.433	1	1
585.602	1	8
585.772	1	6
585.942	1	11
586.112	1	2
586.282	1	11
586.451	1	16
586.621	1	13
586.791	1	12
586.961	1	11
587.131	1	7
587.300	1	4
587.470	1	11
587.640	1	10
587.810	1	22
587.980	1	21
588.149	1	9
588.319	1	15
588.489	1	9
588.659	1	14
588.829	1	18
588.998	1	14
589.168	1	14
589.338	1	19
589.508	1	15
589.677	1	8
589.847	1	11
590.017	1	5
590.187	1	15
590.357	1	14
590.526	1	6
590.696	1	12
590.866	1	12
591.036	1	8
591.205	1	22
591.375	1	11
591.545	1	15
591.715	1	7
591.885	1	15
592.054	1	8
592.224	1	9
592.394	1	12
592.564	1	2
592.733	1	-2
592.903	1	7
593.073	1	4
593.243	1	17
593.412	1	14
593.582	1	15
593.752	1	12
593.922	1	6
594.091	1	17
594.261	1	9
594.431	1	16
594.601	1	4
594.771	1	24
594.940	1	17
595.110	1	11
595.280	1	6
595.450	1	9
595.619	1	14
595.789	1	14
595.959	1	23
596.129	1	4
596.298	1	13
596.468	1	8
596.638	1	9
596.808	1	5
596.977	1	4
597.147	1	0
597.317	1	10
597.487	1	11
597.656	1	8
597.826	1	11
597.996	1	12
598.166	1	18
598.335	1	18
598.505	1	18
598.675	1	10
598.844	1	2
599.014	1	21
599.184	1	7
599.354	1	11
599.523	1	16
599.693	1	20
599.863	1	9
600.033	1	11
600.202	1	24
600.372	1	2
600.542	1	10
600.712	1	19
600.881	1	4
601.051	1	7
601.221	1	11
601.390	1	-3
601.560	1	19
601.730	1	20
601.900	1	14
602.069	1	16
602.239	1	12
602.409	1	9
602.578	1	13
602.748	1	10
602.918	1	15
603.088	1	7
603.257	1	16
603.427	1	3
603.597	1	1
603.767	1	13
603.936	1	8
604.106	1	16
604.276	1	17
604.445	1	15
604.615	1	9
604.785	1	8
604.954	1	16
605.124	1	8
605.294	1	7
605.464	1	14
605.633	1	14
605.803	1	17
605.973	1	11
606.142	1	9
606.312	1	11
606.482	1	14
606.652	1	6
606.821	1	9
606.991	1	16
607.161	1	12
607.330	1	2
607.500	1	16
607.670	1	18
607.839	1	21
608.009	1	19
608.179	1	15
608.348	1	12
608.518	1	4
608.688	1	0
608.858	1	12
609.027	1	13
609.197	1	-5
609.367	1	16
609.536	1	7
609.706	1	9
609.876	1	13
610.045	1	13
610.215	1	6
610.385	1	-1
610.554	1	14
610.724	1	-2
610.894	1	14
611.063	1	2
611.233	1	17
611.403	1	8
611.572	1	18
611.742	1	15
611.912	1	17
612.081	1	3
612.251	1	19
612.421	1	14
612.590	1	1
612.760	1	6
612.930	1	8
613.099	1	17
613.269	1	12
613.439	1	7
613.608	1	11
613.778	1	14
613.948	1	11
614.117	1	22
614.287	1	4
614.457	1	4
614.626	1	16
614.796	1	22
614.966	1	8
615.135	1	6
615.305	1	20
615.475	1	13
615.644	1	9
615.814	1	9
615.984	1	4
616.153	1	2
616.323	1	15
616.493	1	19
616.662	1	20
616.832	1	13
617.002	1	8
617.171	1	9
617.341	1	10
617.511	1	7
617.680	1	20
617.850	1	22
618.019	1	6
618.189	1	20
618.359	1	11
618.528	1	9
618.698	1	22
618.868	1	9
619.037	1	18
619.207	1	16
619.377	1	7
619.546	1	16
619.716	1	13
619.885	1	3
620.055	1	11
620.225	1	10
620.394	1	18
620.564	1	25
620.734	1	10
620.903	1	16
621.073	1	6
621.242	1	21
621.412	1	15
621.582	1	6
621.751	1	18
621.921	1	12
622.091	1	14
622.260	1	6
622.430	1	14
622.599	1	10
622.769	1	20
622.939	1	12
623.108	1	7
623.278	1	13
623.448	1	11
623.617	1	12
623.787	1	5
623.956	1	18
624.126	1	21
624.296	1	11
624.465	1	17
624.635	1	20
624.804	1	11
624.974	1	17
625.144	1	11
625.313	1	3
625.483	1	23
625.652	1	16
625.822	1	12
625.992	1	8
626.161	1	17
626.331	1	11
626.501	1	15
626.670	1	9
626.840	1	16
627.009	1	11
627.179	1	16
627.348	1	21
627.518	1	13
627.688	1	21
627.857	1	24
628.027	1	1
628.196	1	10
628.366	1	9
628.536	1	17
628.705	1	2
628.875	1	20
629.044	1	8
629.214	1	20
629.384	1	11
629.553	1	14
629.723	1	2
629.892	1	22
630.062	1	12
630.232	1	16
630.401	1	19
630.571	1	16
630.740	1	13
630.910	1	18
631.079	1	11
631.249	1	11
631.419	1	15
631.588	1	3
631.758	1	21
631.927	1	15
632.097	1	9
632.266	1	8
632.436	1	19
632.606	1	15
632.775	1	22
632.945	1	26
633.114	1	9
633.284	1	10
633.453	1	2
633.623	1	17
633.793	1	3
633.962	1	14
634.132	1	13
634.301	1	13
634.471	1	13
634.640	1	19
634.810	1	9
634.979	1	17
635.149	1	18
635.319	1	14
635.488	1	20
635.658	1	4
635.827	1	7
635.997	1	19
636.166	1	12
636.336	1	5
636.505	1	16
636.675	1	19
636.845	1	10
637.014	1	9
637.184	1	13
637.353	1	13
637.523	1	15
637.692	1	26
637.862	1	16
638.031	1	19
638.201	1	20
638.370	1	15
638.540	1	10
638.710	1	17
638.879	1	10
639.049	1	8
639.218	1	10
639.388	1	22
639.557	1	8
639.727	1	10
639.896	1	12
640.066	1	24
640.235	1	10
640.405	1	9
640.574	1	15
640.744	1	20
640.914	1	15
641.083	1	27
641.253	1	23
641.422	1	18
641.592	1	8
641.761	1	18
641.931	1	13
642.100	1	13
642.270	1	8
642.439	1	7
642.609	1	9
642.778	1	13
642.948	1	9
643.117	1	24
643.287	1	16
643.456	1	21
643.626	1	18
643.795	1	14
643.965	1	18
644.134	1	10
644.304	1	19
644.473	1	15
644.643	1	8
644.812	1	28
644.982	1	22
645.151	1	28
645.321	1	11
645.490	1	1
645.660	1	12
645.829	1	16
645.999	1	12
646.168	1	4
646.338	1	19
646.507	1	21
646.677	1	7
646.846	1	21
647.016	1	19
647.185	1	8
647.355	1	10
647.524	1	18
647.694	1	13
647.863	1	6
648.033	1	14
648.202	1	13
648.372	1	16
648.541	1	18
648.711	1	17
648.880	1	10
649.050	1	11
649.219	1	10
649.389	1	13
649.558	1	10
649.728	1	13
649.897	1	9
650.067	1	13
650.236	1	17
650.406	1	8
650.575	1	15
650.745	1	6
650.914	1	19
651.084	1	8
651.253	1	13
651.423	1	25
651.592	1	21
651.762	1	21
651.931	1	16
652.101	1	13
652.270	1	14
652.440	1	13
652.609	1	17
652.778	1	4
652.948	1	14
653.117	1	6
653.287	1	21
653.456	1	21
653.626	1	3
653.795	1	24
653.965	1	11
654.134	1	17
654.304	1	-2
654.473	1	10
654.643	1	16
654.812	1	15
654.982	1	0
655.151	1	17
655.320	1	11
655.490	1	20
655.659	1	6
655.829	1	21
655.998	1	7
656.168	1	6
656.337	1	18
656.507	1	4
656.676	1	19
656.846	1	3
657.015	1	12
657.184	1	16
657.354	1	10
657.523	1	15
657.693	1	14
657.862	1	12
658.032	1	15
658.201	1	19
658.371	1	4
658.540	1	5
658.709	1	9
658.879	1	1
659.048	1	15
659.218	1	18
659.387	1	5
659.557	1	7
659.726	1	19
659.895	1	13
660.065	1	5
660.234	1	12
660.404	1	19
660.573	1	15
660.743	1	18
660.912	1	14
661.081	1	30
661.251	1	9
661.420	1	13
661.590	1	15
661.759	1	12
661.929	1	17
662.098	1	7
662.267	1	7
662.437	1	23
662.606	1	17
662.776	1	13
662.945	1	14
663.115	1	17
663.284	1	19
663.453	1	3
663.623	1	22
663.792	1	12
663.962	1	11
664.131	1	19
664.300	1	14
664.470	1	17
664.639	1	17
664.809	1	12
664.978	1	15
665.148	1	22
665.317	1	13
665.486	1	15
665.656	1	9
665.825	1	13
665.995	1	8
666.164	1	10
666.333	1	19
666.503	1	17
666.672	1	23
666.842	1	11
667.011	1	14
667.180	1	11
667.350	1	16
667.519	1	29
667.689	1	7
667.858	1	15
668.027	1	30
668.197	1	19
668.366	1	15
668.536	1	21
668.705	1	14
668.874	1	16
669.044	1	9
669.213	1	17
669.382	1	12
669.552	1	19
669.721	1	30
669.891	1	20
670.060	1	21
670.229	1	23
670.399	1	19
670.568	1	8
670.738	1	6
670.907	1	19
671.076	1	11
671.246	1	18
671.415	1	18
671.584	1	19
671.754	1	19
671.923	1	19
672.093	1	27
672.262	1	25
672.431	1	1
672.601	1	14
672.770	1	15
672.939	1	17
673.109	1	11
673.278	1	24
673.448	1	17
673.617	1	2
673.786	1	20
