325.333	1	4
325.504	1	8
325.675	1	-2
325.846	1	4
326.017	1	5
326.188	1	4
326.359	1	3
326.531	1	5
326.702	1	8
326.873	1	6
327.044	1	0
327.215	1	3
327.386	1	11
327.557	1	-5
327.728	1	1
327.899	1	10
328.070	1	19
328.241	1	10
328.412	1	1
328.583	1	7
328.754	1	1
328.926	1	-3
329.097	1	-3
329.268	1	2
329.439	1	8
329.610	1	11
329.781	1	3
329.952	1	5
330.123	1	12
330.294	1	1
330.465	1	14
330.636	1	4
330.807	1	-1
330.978	1	5
331.149	1	9
331.320	1	11
331.492	1	6
331.663	1	11
331.834	1	5
332.005	1	2
332.176	1	4
332.347	1	16
332.518	1	5
332.689	1	10
332.860	1	9
333.031	1	1
333.202	1	-2
333.373	1	10
333.544	1	0
333.715	1	2
333.886	1	-3
334.057	1	12
334.228	1	9
334.399	1	9
334.570	1	-3
334.741	1	11
334.912	1	10
335.084	1	-3
335.255	1	4
335.426	1	0
335.597	1	14
335.768	1	10
335.939	1	5
336.110	1	7
336.281	1	11
336.452	1	12
336.623	1	7
336.794	1	8
336.965	1	-9
337.136	1	-1
337.307	1	-4
337.478	1	7
337.649	1	13
337.820	1	8
337.991	1	12
338.162	1	7
338.333	1	0
338.504	1	1
338.675	1	14
338.846	1	6
339.017	1	12
339.188	1	3
339.359	1	7
339.530	1	6
339.701	1	8
339.872	1	8
340.043	1	-5
340.214	1	12
340.385	1	4
340.556	1	4
340.727	1	9
340.898	1	11
341.069	1	12
341.240	1	5
341.411	1	-1
341.582	1	6
341.753	1	0
341.924	1	11
342.095	1	4
342.266	1	12
342.437	1	10
342.608	1	20
342.779	1	8
342.950	1	-2
343.121	1	3
343.292	1	0
343.463	1	9
343.634	1	3
343.805	1	3
343.976	1	7
344.147	1	7
344.318	1	9
344.489	1	15
344.660	1	4
344.831	1	12
345.002	1	12
345.173	1	-4
345.344	1	14
345.515	1	-6
345.686	1	18
345.857	1	4
346.028	1	3
346.199	1	-6
346.370	1	4
346.541	1	-7
346.712	1	11
346.883	1	4
347.054	1	9
347.225	1	10
347.396	1	-8
347.567	1	8
347.738	1	2
347.909	1	1
348.080	1	7
348.251	1	0
348.422	1	12
348.593	1	-5
348.764	1	3
348.935	1	4
349.106	1	3
349.277	1	6
349.448	1	12
349.619	1	4
349.790	1	12
349.961	1	5
350.132	1	16
350.303	1	9
350.474	1	-5
350.645	1	2
350.816	1	3
350.987	1	8
351.157	1	15
351.328	1	17
351.499	1	5
351.670	1	1
351.841	1	8
352.012	1	14
352.183	1	3
352.354	1	-1
352.525	1	2
352.696	1	19
352.867	1	3
353.038	1	-2
353.209	1	1
353.380	1	-6
353.551	1	2
353.722	1	7
353.893	1	4
354.064	1	2
354.235	1	5
354.406	1	9
354.576	1	-3
354.747	1	7
354.918	1	17
355.089	1	4
355.260	1	13
355.431	1	-1
355.602	1	0
355.773	1	3
355.944	1	-1
356.115	1	17
356.286	1	13
356.457	1	1
356.628	1	1
356.799	1	4
356.970	1	6
357.141	1	3
357.311	1	8
357.482	1	2
357.653	1	4
357.824	1	3
357.995	1	1
358.166	1	-2
358.337	1	9
358.508	1	3
358.679	1	8
358.850	1	1
359.021	1	12
359.192	1	18
359.363	1	11
359.533	1	-5
359.704	1	16
359.875	1	9
360.046	1	13
360.217	1	4
360.388	1	11
360.559	1	0
360.730	1	7
360.901	1	-2
361.072	1	12
361.243	1	4
361.414	1	-2
361.584	1	-8
361.755	1	1
361.926	1	0
362.097	1	6
362.268	1	-2
362.439	1	8
362.610	1	5
362.781	1	-1
362.952	1	-1
363.123	1	9
363.293	1	9
363.464	1	2
363.635	1	12
363.806	1	-2
363.977	1	6
364.148	1	-8
364.319	1	9
364.490	1	8
364.661	1	3
364.832	1	10
365.002	1	6
365.173	1	1
365.344	1	10
365.515	1	2
365.686	1	-6
365.857	1	7
366.028	1	0
366.199	1	10
366.370	1	12
366.540	1	4
366.711	1	-1
366.882	1	-2
367.053	1	2
367.224	1	0
367.395	1	15
367.566	1	-3
367.737	1	13
367.908	1	7
368.078	1	5
368.249	1	4
368.420	1	2
368.591	1	8
368.762	1	3
368.933	1	-4
369.104	1	18
369.274	1	-2
369.445	1	1
369.616	1	5
369.787	1	8
369.958	1	4
370.129	1	1
370.300	1	11
370.471	1	3
370.641	1	9
370.812	1	9
370.983	1	-2
371.154	1	4
371.325	1	6
371.496	1	8
371.667	1	5
371.837	1	-2
372.008	1	1
372.179	1	-4
372.350	1	-1
372.521	1	1
372.692	1	1
372.863	1	-2
373.033	1	5
373.204	1	-4
373.375	1	8
373.546	1	20
373.717	1	8
373.888	1	5
374.059	1	5
374.229	1	2
374.400	1	-1
374.571	1	-10
374.742	1	-5
374.913	1	11
375.084	1	10
375.254	1	7
375.425	1	-3
375.596	1	12
375.767	1	5
375.938	1	0
376.109	1	12
376.279	1	3
376.450	1	5
376.621	1	2
376.792	1	8
376.963	1	4
377.134	1	7
377.304	1	2
377.475	1	7
377.646	1	-5
377.817	1	-12
377.988	1	-4
378.159	1	9
378.329	1	6
378.500	1	10
378.671	1	11
378.842	1	8
379.013	1	-1
379.184	1	0
379.354	1	-1
379.525	1	-1
379.696	1	2
379.867	1	2
380.038	1	7
380.209	1	6
380.379	1	4
380.550	1	14
380.721	1	-3
380.892	1	7
381.063	1	1
381.233	1	8
381.404	1	-1
381.575	1	9
381.746	1	12
381.917	1	2
382.087	1	10
382.258	1	21
382.429	1	1
382.600	1	6
382.771	1	1
382.941	1	13
383.112	1	-3
383.283	1	7
383.454	1	-2
383.625	1	-9
383.795	1	13
383.966	1	-5
384.137	1	11
384.308	1	8
384.479	1	-3
384.649	1	7
384.820	1	11
384.991	1	-3
385.162	1	12
385.333	1	-4
385.503	1	9
385.674	1	-11
385.845	1	8
386.016	1	11
386.187	1	3
386.357	1	5
386.528	1	-3
386.699	1	4
386.870	1	5
387.041	1	15
387.211	1	8
387.382	1	3
387.553	1	4
387.724	1	10
387.894	1	9
388.065	1	-3
388.236	1	9
388.407	1	4
388.578	1	-5
388.748	1	4
388.919	1	4
389.090	1	9
389.261	1	11
389.431	1	2
389.602	1	9
389.773	1	9
389.944	1	7
390.114	1	14
390.285	1	2
390.456	1	7
390.627	1	2
390.798	1	3
390.968	1	16
391.139	1	1
391.310	1	11
391.481	1	5
391.651	1	9
391.822	1	12
391.993	1	15
392.164	1	6
392.334	1	-6
392.505	1	14
392.676	1	7
392.847	1	13
393.017	1	1
393.188	1	11
393.359	1	6
393.530	1	5
393.700	1	1
393.871	1	7
394.042	1	3
394.213	1	-5
394.383	1	4
394.554	1	13
394.725	1	-1
394.896	1	12
395.066	1	3
395.237	1	10
395.408	1	7
395.579	1	-2
395.749	1	7
395.920	1	-10
396.091	1	18
396.262	1	1
396.432	1	13
396.603	1	4
396.774	1	6
396.945	1	10
397.115	1	1
397.286	1	10
397.457	1	-2
397.627	1	4
397.798	1	6
397.969	1	11
398.140	1	9
398.310	1	5
398.481	1	0
398.652	1	-1
398.823	1	14
398.993	1	7
399.164	1	4
399.335	1	15
399.505	1	-1
399.676	1	2
399.847	1	2
400.018	1	22
400.188	1	8
400.359	1	6
400.530	1	8
400.700	1	9
400.871	1	6
401.042	1	3
401.213	1	1
401.383	1	3
401.554	1	4
401.725	1	8
401.895	1	13
402.066	1	2
402.237	1	12
402.408	1	13
402.578	1	3
402.749	1	2
402.920	1	2
403.090	1	5
403.261	1	9
403.432	1	8
403.603	1	0
403.773	1	13
403.944	1	3
404.115	1	-2
404.285	1	10
404.456	1	3
404.627	1	6
404.797	1	4
404.968	1	18
405.139	1	-2
405.310	1	7
405.480	1	11
405.651	1	-1
405.822	1	11
405.992	1	0
406.163	1	16
406.334	1	18
406.504	1	12
406.675	1	27
406.846	1	4
407.016	1	10
407.187	1	13
407.358	1	8
407.528	1	5
407.699	1	1
407.870	1	16
408.041	1	23
408.211	1	11
408.382	1	5
408.553	1	15
408.723	1	0
408.894	1	1
409.065	1	4
409.235	1	14
409.406	1	3
409.577	1	4
409.747	1	3
409.918	1	3
410.089	1	15
410.259	1	5
410.430	1	4
410.601	1	7
410.771	1	6
410.942	1	8
411.113	1	3
411.283	1	11
411.454	1	17
411.625	1	13
411.795	1	4
411.966	1	16
412.137	1	15
412.307	1	9
412.478	1	5
412.649	1	0
412.819	1	8
412.990	1	12
413.161	1	14
413.331	1	18
413.502	1	11
413.672	1	11
413.843	1	7
414.014	1	13
414.184	1	6
414.355	1	15
414.526	1	3
414.696	1	10
414.867	1	4
415.038	1	15
415.208	1	13
415.379	1	16
415.550	1	16
415.720	1	0
415.891	1	24
416.062	1	5
416.232	1	-1
416.403	1	11
416.573	1	27
416.744	1	7
416.915	1	5
417.085	1	6
417.256	1	11
417.427	1	10
417.597	1	12
417.768	1	7
417.939	1	15
418.109	1	10
418.280	1	6
418.450	1	11
418.621	1	26
418.792	1	146
418.962	1	77
419.133	1	19
419.304	1	6
419.474	1	6
419.645	1	9
419.815	1	7
419.986	1	15
420.157	1	5
420.327	1	3
420.498	1	7
420.669	1	4
420.839	1	6
421.010	1	4
421.180	1	11
421.351	1	16
421.522	1	11
421.692	1	15
421.863	1	8
422.033	1	-2
422.204	1	21
422.375	1	10
422.545	1	2
422.716	1	7
422.886	1	10
423.057	1	15
423.228	1	7
423.398	1	15
423.569	1	10
423.740	1	6
423.910	1	9
424.081	1	8
424.251	1	2
424.422	1	10
424.593	1	11
424.763	1	16
424.934	1	21
425.104	1	1
425.275	1	14
425.445	1	-2
425.616	1	7
425.787	1	8
425.957	1	1
426.128	1	16
426.298	1	18
426.469	1	10
426.640	1	0
426.810	1	23
426.981	1	7
427.151	1	19
427.322	1	12
427.493	1	8
427.663	1	15
427.834	1	11
428.004	1	9
428.175	1	14
428.345	1	8
428.516	1	12
428.687	1	15
428.857	1	4
429.028	1	6
429.198	1	14
429.369	1	9
429.540	1	10
429.710	1	2
429.881	1	-1
430.051	1	8
430.222	1	12
430.392	1	7
430.563	1	20
430.734	1	10
430.904	1	14
431.075	1	14
431.245	1	8
431.416	1	15
431.586	1	4
431.757	1	11
431.927	1	23
432.098	1	1
432.269	1	11
432.439	1	13
432.610	1	20
432.780	1	2
432.951	1	11
433.121	1	10
433.292	1	9
433.462	1	3
433.633	1	-4
433.804	1	10
433.974	1	7
434.145	1	11
434.315	1	12
434.486	1	22
434.656	1	13
434.827	1	7
434.997	1	10
435.168	1	10
435.339	1	9
435.509	1	3
435.680	1	4
435.850	1	0
436.021	1	28
436.191	1	10
436.362	1	11
436.532	1	10
436.703	1	9
436.873	1	7
437.044	1	3
437.214	1	0
437.385	1	13
437.556	1	14
437.726	1	7
437.897	1	5
438.067	1	1
438.238	1	2
438.408	1	1
438.579	1	9
438.749	1	3
438.920	1	7
439.090	1	10
439.261	1	19
439.431	1	8
439.602	1	11
439.772	1	9
439.943	1	8
440.113	1	13
440.284	1	4
440.455	1	2
440.625	1	17
440.796	1	13
440.966	1	9
441.137	1	3
441.307	1	2
441.478	1	4
441.648	1	5
441.819	1	2
441.989	1	7
442.160	1	7
442.330	1	11
442.501	1	4
442.671	1	7
442.842	1	20
443.012	1	7
443.183	1	6
443.353	1	13
443.524	1	4
443.694	1	9
443.865	1	7
444.035	1	3
444.206	1	8
444.376	1	10
444.547	1	20
444.717	1	8
444.888	1	12
445.058	1	12
445.229	1	9
445.399	1	18
445.570	1	-6
445.740	1	11
445.911	1	10
446.081	1	16
446.252	1	16
446.422	1	15
446.593	1	-1
446.763	1	-1
446.934	1	10
447.104	1	11
447.275	1	12
447.445	1	10
447.616	1	10
447.786	1	7
447.957	1	7
448.127	1	11
448.298	1	10
448.468	1	-6
448.639	1	8
448.809	1	10
448.979	1	-6
449.150	1	3
449.320	1	7
449.491	1	11
449.661	1	31
449.832	1	13
450.002	1	5
450.173	1	4
450.343	1	2
450.514	1	11
450.684	1	-6
450.855	1	13
451.025	1	3
451.196	1	14
451.366	1	7
451.537	1	6
451.707	1	14
451.878	1	5
452.048	1	3
452.218	1	3
452.389	1	14
452.559	1	2
452.730	1	13
452.900	1	16
453.071	1	11
453.241	1	12
453.412	1	6
453.582	1	5
453.753	1	0
453.923	1	5
454.093	1	18
454.264	1	10
454.434	1	15
454.605	1	23
454.775	1	13
454.946	1	19
455.116	1	11
455.287	1	0
455.457	1	2
455.628	1	8
455.798	1	6
455.968	1	14
456.139	1	2
456.309	1	8
456.480	1	7
456.650	1	17
456.821	1	18
456.991	1	5
457.161	1	4
457.332	1	12
457.502	1	3
457.673	1	4
457.843	1	0
458.014	1	11
458.184	1	5
458.355	1	4
458.525	1	4
458.695	1	8
458.866	1	2
459.036	1	5
459.207	1	7
459.377	1	16
459.548	1	2
459.718	1	-1
459.888	1	12
460.059	1	8
460.229	1	-2
460.400	1	14
460.570	1	9
460.740	1	10
460.911	1	4
461.081	1	1
461.252	1	10
461.422	1	0
461.593	1	-4
461.763	1	11
461.933	1	13
462.104	1	13
462.274	1	14
462.445	1	-4
462.615	1	6
462.785	1	-3
462.956	1	4
463.126	1	0
463.297	1	11
463.467	1	12
463.638	1	8
463.808	1	6
463.978	1	-1
464.149	1	11
464.319	1	2
464.490	1	10
464.660	1	-3
464.830	1	-13
465.001	1	3
465.171	1	9
465.342	1	16
465.512	1	5
465.682	1	18
465.853	1	6
466.023	1	11
466.194	1	10
466.364	1	13
466.534	1	0
466.705	1	5
466.875	1	10
467.045	1	-6
467.216	1	9
467.386	1	8
467.557	1	4
467.727	1	8
467.897	1	-2
468.068	1	11
468.238	1	3
468.409	1	2
468.579	1	-4
468.749	1	1
468.920	1	2
469.090	1	14
469.260	1	-4
469.431	1	-1
469.601	1	-2
469.772	1	1
469.942	1	18
470.112	1	9
470.283	1	12
470.453	1	9
470.623	1	9
470.794	1	8
470.964	1	-4
471.135	1	-2
471.305	1	13
471.475	1	-3
471.646	1	6
471.816	1	7
471.986	1	3
472.157	1	1
472.327	1	0
472.497	1	0
472.668	1	1
472.838	1	-1
473.009	1	10
473.179	1	8
473.349	1	9
473.520	1	10
473.690	1	-3
473.860	1	1
474.031	1	6
474.201	1	4
474.371	1	9
474.542	1	7
474.712	1	7
474.882	1	11
475.053	1	2
475.223	1	8
475.394	1	21
475.564	1	-9
475.734	1	0
475.905	1	1
476.075	1	2
476.245	1	6
476.416	1	8
476.586	1	2
476.756	1	12
476.927	1	7
477.097	1	11
477.267	1	11
477.438	1	-18
477.608	1	-4
477.778	1	7
477.949	1	12
478.119	1	3
478.289	1	10
478.460	1	7
478.630	1	-2
478.800	1	-9
478.971	1	7
479.141	1	1
479.311	1	3
479.482	1	6
479.652	1	4
479.822	1	0
479.993	1	10
480.163	1	4
480.333	1	12
480.504	1	5
480.674	1	-1
480.844	1	2
481.015	1	-6
481.185	1	14
481.355	1	-4
481.525	1	12
481.696	1	7
481.866	1	5
482.036	1	-6
482.207	1	2
482.377	1	5
482.547	1	-3
482.718	1	3
482.888	1	11
483.058	1	4
483.229	1	12
483.399	1	11
483.569	1	0
483.740	1	1
483.910	1	1
484.080	1	3
484.250	1	14
484.421	1	2
484.591	1	0
484.761	1	5
484.932	1	2
485.102	1	10
485.272	1	7
485.443	1	10
485.613	1	-1
485.783	1	5
485.953	1	-12
486.124	1	-5
486.294	1	11
486.464	1	3
486.635	1	2
486.805	1	-5
486.975	1	-3
487.146	1	4
487.316	1	6
487.486	1	-3
487.656	1	4
487.827	1	7
487.997	1	-1
488.167	1	15
488.338	1	2
488.508	1	4
488.678	1	5
488.848	1	8
489.019	1	8
489.189	1	9
489.359	1	7
489.529	1	-4
489.700	1	-10
489.870	1	2
490.040	1	-2
490.211	1	-2
490.381	1	1
490.551	1	-9
490.721	1	3
490.892	1	14
491.062	1	1
491.232	1	-5
491.402	1	9
491.573	1	-3
491.743	1	-2
491.913	1	-2
492.084	1	3
492.254	1	5
492.424	1	6
492.594	1	2
492.765	1	7
492.935	1	4
493.105	1	-7
493.275	1	-1
493.446	1	10
493.616	1	6
493.786	1	8
493.956	1	8
494.127	1	0
494.297	1	-4
494.467	1	0
494.637	1	4
494.808	1	-8
494.978	1	-4
495.148	1	11
495.318	1	-5
495.489	1	4
495.659	1	12
495.829	1	8
495.999	1	1
496.170	1	0
496.340	1	9
496.510	1	9
496.680	1	3
496.851	1	2
497.021	1	-2
497.191	1	-5
497.361	1	-2
497.532	1	-7
497.702	1	9
497.872	1	-6
498.042	1	3
498.213	1	1
498.383	1	11
498.553	1	-6
498.723	1	-12
498.894	1	-6
499.064	1	4
499.234	1	-9
499.404	1	6
499.574	1	13
499.745	1	7
499.915	1	-10
500.085	1	-2
500.255	1	-6
500.426	1	1
500.596	1	10
500.766	1	-1
500.936	1	-1
501.106	1	9
501.277	1	0
501.447	1	-2
501.617	1	-4
501.787	1	4
501.958	1	10
502.128	1	14
502.298	1	6
502.468	1	5
502.638	1	-1
502.809	1	-5
502.979	1	0
503.149	1	10
503.319	1	-7
503.489	1	-7
503.660	1	-5
503.830	1	7
504.000	1	2
504.170	1	5
504.340	1	3
504.511	1	1
504.681	1	3
504.851	1	5
505.021	1	9
505.192	1	-8
505.362	1	3
505.532	1	-3
505.702	1	5
505.872	1	7
506.043	1	-4
506.213	1	12
506.383	1	9
506.553	1	-3
506.723	1	-1
506.893	1	1
507.064	1	10
507.234	1	3
507.404	1	2
507.574	1	5
507.744	1	2
507.915	1	-6
508.085	1	-9
508.255	1	2
508.425	1	2
508.595	1	4
508.766	1	0
508.936	1	11
509.106	1	-7
509.276	1	0
509.446	1	1
509.616	1	12
509.787	1	0
509.957	1	-4
510.127	1	-2
510.297	1	9
510.467	1	-1
510.638	1	5
510.808	1	-6
510.978	1	5
511.148	1	12
511.318	1	4
511.488	1	5
511.659	1	8
511.829	1	2
511.999	1	3
512.169	1	-6
512.339	1	-4
512.509	1	7
512.680	1	-5
512.850	1	5
513.020	1	3
513.190	1	6
513.360	1	0
513.530	1	6
513.700	1	2
513.871	1	5
514.041	1	5
514.211	1	-4
514.381	1	12
514.551	1	-3
514.721	1	-4
514.892	1	-1
515.062	1	14
515.232	1	6
515.402	1	5
515.572	1	2
515.742	1	11
515.912	1	4
516.083	1	-1
516.253	1	9
516.423	1	-12
516.593	1	-4
516.763	1	4
516.933	1	4
517.104	1	-1
517.274	1	7
517.444	1	8
517.614	1	0
517.784	1	-1
517.954	1	-3
518.124	1	-2
518.294	1	-6
518.465	1	2
518.635	1	2
518.805	1	-10
518.975	1	0
519.145	1	3
519.315	1	-8
519.485	1	2
519.656	1	9
519.826	1	3
519.996	1	-6
520.166	1	3
520.336	1	-6
520.506	1	2
520.676	1	8
520.846	1	1
521.017	1	0
521.187	1	3
521.357	1	-3
521.527	1	0
521.697	1	-7
521.867	1	-2
522.037	1	-2
522.207	1	-4
522.377	1	7
522.548	1	13
522.718	1	1
522.888	1	6
523.058	1	9
523.228	1	2
523.398	1	5
523.568	1	0
523.738	1	-4
523.909	1	9
524.079	1	2
524.249	1	-1
524.419	1	-5
524.589	1	-6
524.759	1	3
524.929	1	-1
525.099	1	-11
525.269	1	-5
525.439	1	4
525.610	1	-5
525.780	1	-2
525.950	1	15
526.120	1	-3
526.290	1	4
526.460	1	5
526.630	1	7
526.800	1	0
526.970	1	2
527.140	1	3
527.311	1	3
527.481	1	-5
527.651	1	0
527.821	1	-5
527.991	1	-5
528.161	1	2
528.331	1	1
528.501	1	-6
528.671	1	12
528.841	1	7
529.011	1	-1
529.181	1	7
529.352	1	-5
529.522	1	9
529.692	1	2
529.862	1	2
530.032	1	-1
530.202	1	5
530.372	1	4
530.542	1	-7
530.712	1	13
530.882	1	10
531.052	1	-5
531.222	1	0
531.392	1	6
531.563	1	5
531.733	1	-3
531.903	1	3
532.073	1	5
532.243	1	9
532.413	1	-5
532.583	1	8
532.753	1	10
532.923	1	5
533.093	1	-8
533.263	1	0
533.433	1	-4
533.603	1	2
533.773	1	2
533.943	1	6
534.113	1	6
534.284	1	-2
534.454	1	0
534.624	1	10
534.794	1	11
534.964	1	6
535.134	1	5
535.304	1	8
535.474	1	-4
535.644	1	-3
535.814	1	2
535.984	1	5
536.154	1	-3
536.324	1	-5
536.494	1	1
536.664	1	10
536.834	1	4
537.004	1	2
537.174	1	0
537.344	1	0
537.514	1	1
537.685	1	9
537.855	1	-4
538.025	1	-3
538.195	1	1
538.365	1	11
538.535	1	-4
538.705	1	0
538.875	1	3
539.045	1	-1
539.215	1	8
539.385	1	-6
539.555	1	-7
539.725	1	-2
539.895	1	9
540.065	1	-12
540.235	1	1
540.405	1	2
540.575	1	-7
540.745	1	2
540.915	1	5
541.085	1	-2
541.255	1	6
541.425	1	-2
541.595	1	6
541.765	1	5
541.935	1	2
542.105	1	-1
542.275	1	6
542.445	1	5
542.615	1	9
542.785	1	-9
542.955	1	-7
543.125	1	-2
543.295	1	3
543.465	1	-3
543.635	1	-1
543.805	1	0
543.975	1	-5
544.145	1	14
544.315	1	-2
544.485	1	3
544.655	1	-4
544.825	1	0
544.995	1	7
545.165	1	7
545.335	1	-4
545.505	1	-1
545.675	1	-13
545.845	1	7
546.015	1	3
546.185	1	5
546.355	1	-13
546.525	1	-3
546.695	1	-5
546.865	1	1
547.035	1	-2
547.205	1	13
547.375	1	6
547.545	1	-9
547.715	1	3
547.885	1	-7
548.055	1	5
548.225	1	9
548.395	1	3
548.565	1	6
548.735	1	1
548.905	1	7
549.075	1	4
549.245	1	7
549.415	1	-1
549.585	1	3
549.755	1	7
549.925	1	0
550.095	1	-1
550.265	1	4
550.435	1	0
550.605	1	3
550.775	1	8
550.945	1	-7
551.115	1	3
551.285	1	0
551.455	1	-9
551.625	1	-7
551.795	1	-6
551.965	1	0
552.135	1	-7
552.305	1	5
552.475	1	3
552.645	1	2
552.815	1	2
552.985	1	-3
553.155	1	1
553.325	1	-7
553.495	1	2
553.665	1	-11
553.835	1	10
554.004	1	5
554.174	1	-5
554.344	1	6
554.514	1	9
554.684	1	-11
554.854	1	5
555.024	1	-1
555.194	1	-7
555.364	1	6
555.534	1	-11
555.704	1	-3
555.874	1	-5
556.044	1	3
556.214	1	2
556.384	1	12
556.554	1	-11
556.724	1	-5
556.894	1	0
557.064	1	6
557.234	1	0
557.404	1	-2
557.573	1	-1
557.743	1	5
557.913	1	14
558.083	1	-3
558.253	1	5
558.423	1	2
558.593	1	3
558.763	1	9
558.933	1	3
559.103	1	8
559.273	1	-4
559.443	1	-3
559.613	1	-11
559.783	1	-6
559.953	1	-4
560.122	1	0
560.292	1	10
560.462	1	-2
560.632	1	-5
560.802	1	0
560.972	1	-1
561.142	1	-1
561.312	1	-1
561.482	1	-1
561.652	1	-5
561.822	1	-9
561.992	1	-6
562.162	1	0
562.331	1	4
562.501	1	-4
562.671	1	3
562.841	1	1
563.011	1	9
563.181	1	10
563.351	1	-10
563.521	1	-3
563.691	1	0
563.861	1	-1
564.031	1	-5
564.201	1	12
564.370	1	-1
564.540	1	15
564.710	1	2
564.880	1	3
565.050	1	9
565.220	1	-6
565.390	1	3
565.560	1	-4
565.730	1	0
565.900	1	4
566.069	1	1
566.239	1	1
566.409	1	-4
566.579	1	11
566.749	1	-16
566.919	1	-10
567.089	1	-1
567.259	1	0
567.429	1	-7
567.599	1	7
567.768	1	3
567.938	1	-7
568.108	1	1
568.278	1	9
568.448	1	2
568.618	1	-3
568.788	1	-1
568.958	1	-3
569.128	1	3
569.297	1	-2
569.467	1	1
569.637	1	11
569.807	1	5
569.977	1	-1
570.147	1	-1
570.317	1	-3
570.487	1	-6
570.656	1	-7
570.826	1	1
570.996	1	-9
571.166	1	9
571.336	1	-1
571.506	1	-7
571.676	1	9
571.846	1	10
572.015	1	4
572.185	1	3
572.355	1	-12
572.525	1	-13
572.695	1	0
572.865	1	-4
573.035	1	19
573.205	1	11
573.374	1	0
573.544	1	4
573.714	1	-6
573.884	1	6
574.054	1	3
574.224	1	0
574.394	1	-7
574.563	1	3
574.733	1	-5
574.903	1	2
575.073	1	-2
575.243	1	3
575.413	1	0
575.583	1	3
575.752	1	-1
575.922	1	-11
576.092	1	-7
576.262	1	-5
576.432	1	-4
576.602	1	-4
576.772	1	-3
576.941	1	5
577.111	1	-2
577.281	1	-6
577.451	1	0
577.621	1	-10
577.791	1	0
577.960	1	0
578.130	1	-3
578.300	1	-6
578.470	1	-3
578.640	1	9
578.810	1	6
578.979	1	1
579.149	1	3
579.319	1	-9
579.489	1	-8
579.659	1	-7
579.829	1	2
579.998	1	0
580.168	1	-3
580.338	1	9
580.508	1	3
580.678	1	8
580.848	1	3
581.017	1	6
581.187	1	2
581.357	1	-6
581.527	1	-3
581.697	1	0
581.867	1	2
582.036	1	-2
582.206	1	3
582.376	1	-2
582.546	1	-10
582.716	1	-10
582.885	1	-13
583.055	1	-5
583.225	1	-3
583.395	1	9
583.565	1	-2
583.735	1	10
583.904	1	6
584.074	1	-10
584.244	1	-8
584.414	1	-4
584.584	1	-4
584.753	1	3
584.923	1	-1
585.093	1	-6
585.263	1	7
585.433	1	-2
585.602	1	-2
585.772	1	0
585.942	1	-4
586.112	1	-9
586.282	1	3
586.451	1	2
586.621	1	0
586.791	1	-3
586.961	1	-8
587.131	1	-3
587.300	1	0
587.470	1	-4
587.640	1	7
587.810	1	5
587.980	1	3
588.149	1	-4
588.319	1	8
588.489	1	0
588.659	1	-5
588.829	1	4
588.998	1	2
589.168	1	6
589.338	1	3
589.508	1	4
589.677	1	-1
589.847	1	2
590.017	1	-6
590.187	1	-1
590.357	1	10
590.526	1	3
590.696	1	-10
590.866	1	0
591.036	1	9
591.205	1	10
591.375	1	-6
591.545	1	1
591.715	1	-2
591.885	1	0
592.054	1	1
592.224	1	6
592.394	1	-11
592.564	1	3
592.733	1	-3
592.903	1	-4
593.073	1	2
593.243	1	7
593.412	1	3
593.582	1	-1
593.752	1	3
593.922	1	-4
594.091	1	7
594.261	1	1
594.431	1	15
594.601	1	-9
594.771	1	4
594.940	1	5
595.110	1	-6
595.280	1	-5
595.450	1	5
595.619	1	-5
595.789	1	5
595.959	1	3
596.129	1	-5
596.298	1	1
596.468	1	-8
596.638	1	-5
596.808	1	1
596.977	1	-6
597.147	1	-9
597.317	1	-2
597.487	1	2
597.656	1	-3
597.826	1	3
597.996	1	5
598.166	1	2
598.335	1	2
598.505	1	9
598.675	1	-8
598.844	1	-5
599.014	1	-2
599.184	1	11
599.354	1	5
599.523	1	4
599.693	1	7
599.863	1	5
600.033	1	-7
600.202	1	8
600.372	1	-9
600.542	1	8
600.712	1	7
600.881	1	-10
601.051	1	0
601.221	1	2
601.390	1	-5
601.560	1	4
601.730	1	4
601.900	1	4
602.069	1	8
602.239	1	2
602.409	1	4
602.578	1	-4
602.748	1	-3
602.918	1	-6
603.088	1	5
603.257	1	3
603.427	1	-9
603.597	1	3
603.767	1	-3
603.936	1	-9
604.106	1	-2
604.276	1	9
604.445	1	0
604.615	1	-1
604.785	1	1
604.954	1	14
605.124	1	3
605.294	1	4
605.464	1	-4
605.633	1	-2
605.803	1	6
605.973	1	6
606.142	1	-4
606.312	1	-2
606.482	1	10
606.652	1	-6
606.821	1	0
606.991	1	0
607.161	1	6
607.330	1	-9
607.500	1	7
607.670	1	4
607.839	1	3
608.009	1	6
608.179	1	1
608.348	1	0
608.518	1	-2
608.688	1	4
608.858	1	10
609.027	1	0
609.197	1	-4
609.367	1	11
609.536	1	1
609.706	1	4
609.876	1	11
610.045	1	5
610.215	1	0
610.385	1	6
610.554	1	5
610.724	1	-9
610.894	1	6
611.063	1	-11
611.233	1	3
611.403	1	-2
611.572	1	-2
611.742	1	-3
611.912	1	4
612.081	1	-15
612.251	1	3
612.421	1	0
612.590	1	-2
612.760	1	4
612.930	1	-1
613.099	1	1
613.269	1	-3
613.439	1	0
613.608	1	-5
613.778	1	-3
613.948	1	9
614.117	1	14
614.287	1	-1
614.457	1	-15
614.626	1	8
614.796	1	7
614.966	1	7
615.135	1	9
615.305	1	5
615.475	1	1
615.644	1	-7
615.814	1	-1
615.984	1	-2
616.153	1	-1
616.323	1	6
616.493	1	17
616.662	1	7
616.832	1	-2
617.002	1	-4
617.171	1	1
617.341	1	6
617.511	1	7
617.680	1	8
617.850	1	5
618.019	1	-5
618.189	1	-4
618.359	1	6
618.528	1	8
618.698	1	2
618.868	1	-2
619.037	1	5
619.207	1	5
619.377	1	-9
619.546	1	6
619.716	1	8
619.885	1	-7
620.055	1	1
620.225	1	8
620.394	1	3
620.564	1	8
620.734	1	5
620.903	1	4
621.073	1	-1
621.242	1	1
621.412	1	5
621.582	1	1
621.751	1	5
621.921	1	-2
622.091	1	-2
622.260	1	-7
622.430	1	13
622.599	1	-6
622.769	1	11
622.939	1	1
623.108	1	11
623.278	1	0
623.448	1	11
623.617	1	3
623.787	1	7
623.956	1	6
624.126	1	17
624.296	1	-2
624.465	1	9
624.635	1	4
624.804	1	-8
624.974	1	10
625.144	1	7
625.313	1	2
625.483	1	23
625.652	1	0
625.822	1	-5
625.992	1	9
626.161	1	17
626.331	1	5
626.501	1	5
626.670	1	9
626.840	1	6
627.009	1	3
627.179	1	2
627.348	1	8
627.518	1	2
627.688	1	6
627.857	1	6
628.027	1	-7
628.196	1	6
628.366	1	1
628.536	1	3
628.705	1	-4
628.875	1	13
629.044	1	3
629.214	1	0
629.384	1	5
629.553	1	6
629.723	1	-7
629.892	1	12
630.062	1	6
630.232	1	8
630.401	1	11
630.571	1	0
630.740	1	7
630.910	1	12
631.079	1	1
631.249	1	0
631.419	1	-1
631.588	1	1
631.758	1	7
631.927	1	9
632.097	1	11
632.266	1	5
632.436	1	1
632.606	1	8
632.775	1	13
632.945	1	15
633.114	1	-13
633.284	1	-4
633.453	1	-2
633.623	1	4
633.793	1	-3
633.962	1	12
634.132	1	6
634.301	1	7
634.471	1	-3
634.640	1	2
634.810	1	7
634.979	1	8
635.149	1	4
635.319	1	8
635.488	1	6
635.658	1	8
635.827	1	10
635.997	1	6
636.166	1	1
636.336	1	3
636.505	1	-10
636.675	1	14
636.845	1	-2
637.014	1	0
637.184	1	5
637.353	1	-2
637.523	1	7
637.692	1	16
637.862	1	11
638.031	1	8
638.201	1	5
638.370	1	0
638.540	1	-3
638.710	1	11
638.879	1	4
639.049	1	9
639.218	1	3
639.388	1	-2
639.557	1	13
639.727	1	-4
639.896	1	4
640.066	1	8
640.235	1	6
640.405	1	3
640.574	1	3
640.744	1	9
640.914	1	6
641.083	1	3
641.253	1	15
641.422	1	4
641.592	1	-6
641.761	1	2
641.931	1	-1
642.100	1	-2
642.270	1	-2
642.439	1	-5
642.609	1	5
642.778	1	1
642.948	1	10
643.117	1	14
643.287	1	-3
643.456	1	10
643.626	1	8
643.795	1	3
643.965	1	3
644.134	1	7
644.304	1	5
644.473	1	3
644.643	1	-1
644.812	1	15
644.982	1	8
645.151	1	15
645.321	1	-4
645.490	1	2
645.660	1	-7
645.829	1	6
645.999	1	4
646.168	1	-5
646.338	1	-2
646.507	1	5
646.677	1	2
646.846	1	7
647.016	1	7
647.185	1	-6
647.355	1	5
647.524	1	11
647.694	1	-1
647.863	1	1
648.033	1	-4
648.202	1	-1
648.372	1	15
648.541	1	10
648.711	1	7
648.880	1	6
649.050	1	-6
649.219	1	4
649.389	1	7
649.558	1	0
649.728	1	2
649.897	1	6
650.067	1	-1
650.236	1	3
650.406	1	-3
650.575	1	10
650.745	1	2
650.914	1	8
651.084	1	4
651.253	1	6
651.423	1	14
651.592	1	5
651.762	1	3
651.931	1	-7
652.101	1	4
652.270	1	4
652.440	1	-3
652.609	1	0
652.778	1	2
652.948	1	5
653.117	1	-4
653.287	1	12
653.456	1	10
653.626	1	-4
653.795	1	5
653.965	1	-7
654.134	1	4
654.304	1	12
654.473	1	1
654.643	1	0
654.812	1	-3
654.982	1	-7
655.151	1	1
655.320	1	7
655.490	1	2
655.659	1	0
655.829	1	4
655.998	1	8
656.168	1	-8
656.337	1	15
656.507	1	1
656.676	1	7
656.846	1	-1
657.015	1	-5
657.184	1	1
657.354	1	0
657.523	1	-2
657.693	1	8
657.862	1	8
658.032	1	6
658.201	1	6
658.371	1	-2
658.540	1	-13
658.709	1	2
658.879	1	-7
659.048	1	4
659.218	1	6
659.387	1	0
659.557	1	6
659.726	1	9
659.895	1	2
660.065	1	2
660.234	1	4
660.404	1	11
660.573	1	9
660.743	1	8
660.912	1	4
661.081	1	16
661.251	1	7
661.420	1	-6
661.590	1	3
661.759	1	4
661.929	1	-4
662.098	1	2
662.267	1	-2
662.437	1	3
662.606	1	12
662.776	1	-4
662.945	1	1
663.115	1	9
663.284	1	5
663.453	1	-8
663.623	1	10
663.792	1	8
663.962	1	-1
664.131	1	4
664.300	1	8
664.470	1	4
664.639	1	-9
664.809	1	0
664.978	1	-4
665.148	1	3
665.317	1	6
665.486	1	6
665.656	1	0
665.825	1	-2
665.995	1	7
666.164	1	5
666.333	1	8
666.503	1	5
666.672	1	4
666.842	1	-6
667.011	1	6
667.180	1	-3
667.350	1	3
667.519	1	7
667.689	1	7
667.858	1	-1
668.027	1	18
668.197	1	2
668.366	1	9
668.536	1	11
668.705	1	1
668.874	1	6
669.044	1	9
669.213	1	2
669.382	1	-11
669.552	1	10
669.721	1	14
669.891	1	-1
670.060	1	1
670.229	1	12
670.399	1	14
670.568	1	-1
670.738	1	-4
670.907	1	0
671.076	1	1
671.246	1	6
671.415	1	-2
671.584	1	7
671.754	1	6
671.923	1	4
672.093	1	23
672.262	1	8
672.431	1	0
672.601	1	1
672.770	1	-1
672.939	1	1
673.109	1	-2
673.278	1	5
673.448	1	-3
673.617	1	-7
673.786	1	5
