325.333	1	7
325.504	1	14
325.675	1	-2
325.846	1	11
326.017	1	8
326.188	1	6
326.359	1	-5
326.531	1	-1
326.702	1	3
326.873	1	2
327.044	1	4
327.215	1	1
327.386	1	7
327.557	1	11
327.728	1	2
327.899	1	13
328.070	1	11
328.241	1	5
328.412	1	7
328.583	1	6
328.754	1	-4
328.926	1	7
329.097	1	-4
329.268	1	6
329.439	1	10
329.610	1	12
329.781	1	2
329.952	1	11
330.123	1	-2
330.294	1	4
330.465	1	1
330.636	1	4
330.807	1	1
330.978	1	4
331.149	1	18
331.320	1	8
331.492	1	12
331.663	1	-3
331.834	1	4
332.005	1	9
332.176	1	3
332.347	1	13
332.518	1	8
332.689	1	10
332.860	1	5
333.031	1	-2
333.202	1	-2
333.373	1	7
333.544	1	8
333.715	1	6
333.886	1	7
334.057	1	8
334.228	1	-2
334.399	1	12
334.570	1	-2
334.741	1	5
334.912	1	9
335.084	1	-1
335.255	1	3
335.426	1	-5
335.597	1	6
335.768	1	10
335.939	1	1
336.110	1	9
336.281	1	-1
336.452	1	9
336.623	1	12
336.794	1	0
336.965	1	3
337.136	1	3
337.307	1	8
337.478	1	9
337.649	1	3
337.820	1	-1
337.991	1	9
338.162	1	7
338.333	1	0
338.504	1	3
338.675	1	8
338.846	1	6
339.017	1	13
339.188	1	17
339.359	1	13
339.530	1	7
339.701	1	5
339.872	1	11
340.043	1	-11
340.214	1	9
340.385	1	-2
340.556	1	12
340.727	1	17
340.898	1	10
341.069	1	17
341.240	1	3
341.411	1	5
341.582	1	10
341.753	1	2
341.924	1	-6
342.095	1	4
342.266	1	5
342.437	1	15
342.608	1	18
342.779	1	1
342.950	1	1
343.121	1	6
343.292	1	-4
343.463	1	5
343.634	1	5
343.805	1	4
343.976	1	5
344.147	1	-1
344.318	1	10
344.489	1	6
344.660	1	17
344.831	1	13
345.002	1	10
345.173	1	-6
345.344	1	14
345.515	1	-11
345.686	1	16
345.857	1	6
346.028	1	2
346.199	1	4
346.370	1	-1
346.541	1	5
346.712	1	5
346.883	1	10
347.054	1	2
347.225	1	5
347.396	1	-4
347.567	1	18
347.738	1	-6
347.909	1	2
348.080	1	2
348.251	1	9
348.422	1	12
348.593	1	1
348.764	1	7
348.935	1	2
349.106	1	2
349.277	1	1
349.448	1	8
349.619	1	-3
349.790	1	10
349.961	1	16
350.132	1	17
350.303	1	10
350.474	1	-4
350.645	1	10
350.816	1	-7
350.987	1	14
351.157	1	1
351.328	1	12
351.499	1	14
351.670	1	6
351.841	1	13
352.012	1	10
352.183	1	0
352.354	1	2
352.525	1	10
352.696	1	20
352.867	1	10
353.038	1	5
353.209	1	0
353.380	1	-4
353.551	1	-5
353.722	1	13
353.893	1	-2
354.064	1	-3
354.235	1	7
354.406	1	7
354.576	1	14
354.747	1	3
354.918	1	3
355.089	1	9
355.260	1	18
355.431	1	1
355.602	1	12
355.773	1	-5
355.944	1	2
356.115	1	12
356.286	1	11
356.457	1	8
356.628	1	6
356.799	1	5
356.970	1	11
357.141	1	0
357.311	1	14
357.482	1	4
357.653	1	9
357.824	1	12
357.995	1	-9
358.166	1	-6
358.337	1	5
358.508	1	4
358.679	1	12
358.850	1	3
359.021	1	9
359.192	1	16
359.363	1	8
359.533	1	-10
359.704	1	15
359.875	1	19
360.046	1	7
360.217	1	7
360.388	1	-6
360.559	1	3
360.730	1	7
360.901	1	8
361.072	1	8
361.243	1	5
361.414	1	-1
361.584	1	-5
361.755	1	4
361.926	1	5
362.097	1	-3
362.268	1	16
362.439	1	-1
362.610	1	5
362.781	1	3
362.952	1	9
363.123	1	7
363.293	1	-2
363.464	1	8
363.635	1	10
363.806	1	6
363.977	1	10
364.148	1	-3
364.319	1	2
364.490	1	13
364.661	1	2
364.832	1	9
365.002	1	9
365.173	1	4
365.344	1	12
365.515	1	1
365.686	1	-2
365.857	1	3
366.028	1	5
366.199	1	4
366.370	1	6
366.540	1	8
366.711	1	3
366.882	1	-1
367.053	1	-2
367.224	1	9
367.395	1	2
367.566	1	-3
367.737	1	10
367.908	1	4
368.078	1	14
368.249	1	3
368.420	1	11
368.591	1	2
368.762	1	-3
368.933	1	-9
369.104	1	13
369.274	1	-4
369.445	1	15
369.616	1	7
369.787	1	4
369.958	1	-1
370.129	1	0
370.300	1	6
370.471	1	7
370.641	1	7
370.812	1	4
370.983	1	0
371.154	1	-3
371.325	1	0
371.496	1	12
371.667	1	3
371.837	1	-2
372.008	1	-13
372.179	1	-3
372.350	1	0
372.521	1	8
372.692	1	-2
372.863	1	4
373.033	1	11
373.204	1	0
373.375	1	-1
373.546	1	20
373.717	1	-14
373.888	1	6
374.059	1	12
374.229	1	1
374.400	1	-5
374.571	1	-2
374.742	1	5
374.913	1	3
375.084	1	8
375.254	1	2
375.425	1	-5
375.596	1	2
375.767	1	17
375.938	1	8
376.109	1	7
376.279	1	0
376.450	1	7
376.621	1	9
376.792	1	6
376.963	1	5
377.134	1	13
377.304	1	6
377.475	1	10
377.646	1	5
377.817	1	4
377.988	1	-3
378.159	1	21
378.329	1	0
378.500	1	11
378.671	1	10
378.842	1	0
379.013	1	9
379.184	1	-3
379.354	1	2
379.525	1	4
379.696	1	9
379.867	1	4
380.038	1	11
380.209	1	1
380.379	1	1
380.550	1	13
380.721	1	-2
380.892	1	14
381.063	1	-1
381.233	1	11
381.404	1	12
381.575	1	15
381.746	1	16
381.917	1	5
382.087	1	9
382.258	1	19
382.429	1	3
382.600	1	10
382.771	1	-2
382.941	1	13
383.112	1	6
383.283	1	14
383.454	1	-8
383.625	1	-3
383.795	1	9
383.966	1	-12
384.137	1	11
384.308	1	4
384.479	1	-3
384.649	1	-3
384.820	1	18
384.991	1	-1
385.162	1	12
385.333	1	8
385.503	1	-6
385.674	1	-5
385.845	1	8
386.016	1	22
386.187	1	5
386.357	1	-1
386.528	1	0
386.699	1	9
386.870	1	3
387.041	1	14
387.211	1	5
387.382	1	1
387.553	1	5
387.724	1	4
387.894	1	0
388.065	1	-1
388.236	1	2
388.407	1	16
388.578	1	10
388.748	1	4
388.919	1	9
389.090	1	10
389.261	1	1
389.431	1	16
389.602	1	15
389.773	1	13
389.944	1	13
390.114	1	12
390.285	1	4
390.456	1	0
390.627	1	7
390.798	1	3
390.968	1	17
391.139	1	4
391.310	1	13
391.481	1	6
391.651	1	14
391.822	1	17
391.993	1	4
392.164	1	11
392.334	1	5
392.505	1	8
392.676	1	12
392.847	1	13
393.017	1	7
393.188	1	1
393.359	1	4
393.530	1	3
393.700	1	-2
393.871	1	6
394.042	1	6
394.213	1	5
394.383	1	13
394.554	1	19
394.725	1	14
394.896	1	10
395.066	1	4
395.237	1	6
395.408	1	8
395.579	1	9
395.749	1	4
395.920	1	3
396.091	1	15
396.262	1	6
396.432	1	4
396.603	1	7
396.774	1	7
396.945	1	14
397.115	1	4
397.286	1	1
397.457	1	10
397.627	1	4
397.798	1	9
397.969	1	16
398.140	1	5
398.310	1	1
398.481	1	7
398.652	1	0
398.823	1	12
398.993	1	15
399.164	1	12
399.335	1	-3
399.505	1	3
399.676	1	1
399.847	1	8
400.018	1	22
400.188	1	6
400.359	1	10
400.530	1	13
400.700	1	13
400.871	1	2
401.042	1	12
401.213	1	-1
401.383	1	9
401.554	1	2
401.725	1	11
401.895	1	13
402.066	1	7
402.237	1	13
402.408	1	11
402.578	1	5
402.749	1	15
402.920	1	16
403.090	1	1
403.261	1	9
403.432	1	9
403.603	1	10
403.773	1	18
403.944	1	8
404.115	1	5
404.285	1	19
404.456	1	5
404.627	1	2
404.797	1	7
404.968	1	11
405.139	1	0
405.310	1	18
405.480	1	14
405.651	1	0
405.822	1	2
405.992	1	12
406.163	1	12
406.334	1	12
406.504	1	15
406.675	1	19
406.846	1	19
407.016	1	13
407.187	1	13
407.358	1	14
407.528	1	10
407.699	1	1
407.870	1	17
408.041	1	17
408.211	1	5
408.382	1	10
408.553	1	2
408.723	1	10
408.894	1	0
409.065	1	9
409.235	1	12
409.406	1	6
409.577	1	-4
409.747	1	4
409.918	1	2
410.089	1	21
410.259	1	8
410.430	1	18
410.601	1	13
410.771	1	10
410.942	1	11
411.113	1	18
411.283	1	11
411.454	1	12
411.625	1	15
411.795	1	-5
411.966	1	21
412.137	1	17
412.307	1	4
412.478	1	4
412.649	1	11
412.819	1	19
412.990	1	8
413.161	1	7
413.331	1	8
413.502	1	7
413.672	1	16
413.843	1	9
414.014	1	12
414.184	1	14
414.355	1	17
414.526	1	11
414.696	1	12
414.867	1	17
415.038	1	17
415.208	1	8
415.379	1	18
415.550	1	14
415.720	1	7
415.891	1	27
416.062	1	9
416.232	1	7
416.403	1	12
416.573	1	12
416.744	1	14
416.915	1	21
417.085	1	12
417.256	1	-8
417.427	1	11
417.597	1	13
417.768	1	19
417.939	1	11
418.109	1	2
418.280	1	20
418.450	1	4
418.621	1	18
418.792	1	6
418.962	1	2
419.133	1	7
419.304	1	1
419.474	1	10
419.645	1	19
419.815	1	6
419.986	1	12
420.157	1	8
420.327	1	8
420.498	1	8
420.669	1	19
420.839	1	10
421.010	1	-5
421.180	1	8
421.351	1	16
421.522	1	5
421.692	1	17
421.863	1	8
422.033	1	5
422.204	1	20
422.375	1	-3
422.545	1	14
422.716	1	10
422.886	1	3
423.057	1	11
423.228	1	19
423.398	1	19
423.569	1	1
423.740	1	14
423.910	1	16
424.081	1	15
424.251	1	7
424.422	1	22
424.593	1	12
424.763	1	10
424.934	1	10
425.104	1	7
425.275	1	12
425.445	1	13
425.616	1	15
425.787	1	10
425.957	1	1
426.128	1	22
426.298	1	23
426.469	1	8
426.640	1	6
426.810	1	20
426.981	1	17
427.151	1	10
427.322	1	25
427.493	1	10
427.663	1	20
427.834	1	14
428.004	1	4
428.175	1	21
428.345	1	6
428.516	1	18
428.687	1	12
428.857	1	11
429.028	1	0
429.198	1	16
429.369	1	9
429.540	1	11
429.710	1	10
429.881	1	3
430.051	1	16
430.222	1	15
430.392	1	4
430.563	1	24
430.734	1	16
430.904	1	0
431.075	1	10
431.245	1	18
431.416	1	13
431.586	1	10
431.757	1	9
431.927	1	22
432.098	1	2
432.269	1	8
432.439	1	17
432.610	1	16
432.780	1	6
432.951	1	9
433.121	1	13
433.292	1	12
433.462	1	14
433.633	1	0
433.804	1	7
433.974	1	14
434.145	1	4
434.315	1	4
434.486	1	24
434.656	1	23
434.827	1	9
434.997	1	13
435.168	1	16
435.339	1	0
435.509	1	10
435.680	1	10
435.850	1	-1
436.021	1	17
436.191	1	9
436.362	1	9
436.532	1	15
436.703	1	20
436.873	1	9
437.044	1	5
437.214	1	11
437.385	1	16
437.556	1	11
437.726	1	9
437.897	1	9
438.067	1	2
438.238	1	7
438.408	1	9
438.579	1	8
438.749	1	8
438.920	1	7
439.090	1	11
439.261	1	13
439.431	1	14
439.602	1	10
439.772	1	12
439.943	1	12
440.113	1	12
440.284	1	5
440.455	1	21
440.625	1	24
440.796	1	16
440.966	1	0
441.137	1	-5
441.307	1	6
441.478	1	9
441.648	1	7
441.819	1	4
441.989	1	2
442.160	1	8
442.330	1	8
442.501	1	12
442.671	1	4
442.842	1	11
443.012	1	11
443.183	1	8
443.353	1	21
443.524	1	2
443.694	1	15
443.865	1	14
444.035	1	10
444.206	1	10
444.376	1	6
444.547	1	19
444.717	1	3
444.888	1	7
445.058	1	8
445.229	1	10
445.399	1	0
445.570	1	2
445.740	1	5
445.911	1	11
446.081	1	17
446.252	1	12
446.422	1	15
446.593	1	6
446.763	1	-2
446.934	1	12
447.104	1	19
447.275	1	13
447.445	1	8
447.616	1	3
447.786	1	12
447.957	1	1
448.127	1	9
448.298	1	-1
448.468	1	10
448.639	1	14
448.809	1	13
448.979	1	-2
449.150	1	2
449.320	1	-3
449.491	1	6
449.661	1	12
449.832	1	10
450.002	1	2
450.173	1	1
450.343	1	12
450.514	1	16
450.684	1	6
450.855	1	10
451.025	1	4
451.196	1	9
451.366	1	26
451.537	1	16
451.707	1	12
451.878	1	-6
452.048	1	11
452.218	1	5
452.389	1	10
452.559	1	-2
452.730	1	18
452.900	1	-2
453.071	1	8
453.241	1	8
453.412	1	7
453.582	1	6
453.753	1	10
453.923	1	13
454.093	1	11
454.264	1	13
454.434	1	-3
454.605	1	11
454.775	1	15
454.946	1	20
455.116	1	9
455.287	1	8
455.457	1	5
455.628	1	5
455.798	1	6
455.968	1	7
456.139	1	0
456.309	1	0
456.480	1	18
456.650	1	18
456.821	1	13
456.991	1	13
457.161	1	9
457.332	1	6
457.502	1	2
457.673	1	0
457.843	1	11
458.014	1	7
458.184	1	10
458.355	1	6
458.525	1	0
458.695	1	5
458.866	1	2
459.036	1	8
459.207	1	7
459.377	1	8
459.548	1	-5
459.718	1	9
459.888	1	17
460.059	1	16
460.229	1	-1
460.400	1	18
460.570	1	9
460.740	1	6
460.911	1	-1
461.081	1	6
461.252	1	21
461.422	1	10
461.593	1	1
461.763	1	22
461.933	1	0
462.104	1	10
462.274	1	14
462.445	1	-5
462.615	1	10
462.785	1	-3
462.956	1	11
463.126	1	6
463.297	1	2
463.467	1	23
463.638	1	-1
463.808	1	3
463.978	1	-3
464.149	1	10
464.319	1	-1
464.490	1	8
464.660	1	2
464.830	1	-9
465.001	1	23
465.171	1	-1
465.342	1	12
465.512	1	7
465.682	1	9
465.853	1	9
466.023	1	7
466.194	1	7
466.364	1	7
466.534	1	9
466.705	1	18
466.875	1	7
467.045	1	7
467.216	1	11
467.386	1	9
467.557	1	3
467.727	1	-9
467.897	1	5
468.068	1	10
468.238	1	9
468.409	1	4
468.579	1	6
468.749	1	11
468.920	1	6
469.090	1	6
469.260	1	-10
469.431	1	0
469.601	1	1
469.772	1	4
469.942	1	13
470.112	1	16
470.283	1	8
470.453	1	13
470.623	1	8
470.794	1	7
470.964	1	-1
471.135	1	5
471.305	1	10
471.475	1	11
471.646	1	1
471.816	1	1
471.986	1	8
472.157	1	4
472.327	1	0
472.497	1	-16
472.668	1	9
472.838	1	8
473.009	1	21
473.179	1	7
473.349	1	0
473.520	1	9
473.690	1	13
473.860	1	7
474.031	1	-4
474.201	1	10
474.371	1	8
474.542	1	8
474.712	1	1
474.882	1	16
475.053	1	15
475.223	1	9
475.394	1	8
475.564	1	1
475.734	1	1
475.905	1	7
476.075	1	-1
476.245	1	15
476.416	1	-2
476.586	1	6
476.756	1	15
476.927	1	10
477.097	1	5
477.267	1	7
477.438	1	-8
477.608	1	11
477.778	1	8
477.949	1	1
478.119	1	6
478.289	1	10
478.460	1	6
478.630	1	4
478.800	1	-6
478.971	1	14
479.141	1	1
479.311	1	10
479.482	1	6
479.652	1	6
479.822	1	-1
479.993	1	4
480.163	1	-1
480.333	1	5
480.504	1	17
480.674	1	-3
480.844	1	12
481.015	1	4
481.185	1	18
481.355	1	-2
481.525	1	1
481.696	1	11
481.866	1	-3
482.036	1	5
482.207	1	3
482.377	1	7
482.547	1	-2
482.718	1	2
482.888	1	15
483.058	1	4
483.229	1	5
483.399	1	7
483.569	1	3
483.740	1	2
483.910	1	-5
484.080	1	10
484.250	1	8
484.421	1	10
484.591	1	6
484.761	1	11
484.932	1	8
485.102	1	1
485.272	1	-4
485.443	1	5
485.613	1	4
485.783	1	0
485.953	1	-2
486.124	1	-3
486.294	1	-2
486.464	1	9
486.635	1	-1
486.805	1	-3
486.975	1	-2
487.146	1	3
487.316	1	12
487.486	1	-16
487.656	1	3
487.827	1	8
487.997	1	-2
488.167	1	5
488.338	1	1
488.508	1	2
488.678	1	3
488.848	1	6
489.019	1	8
489.189	1	8
489.359	1	1
489.529	1	-3
489.700	1	0
489.870	1	4
490.040	1	-3
490.211	1	2
490.381	1	7
490.551	1	-6
490.721	1	10
490.892	1	17
491.062	1	5
491.232	1	-1
491.402	1	6
491.573	1	4
491.743	1	2
491.913	1	9
492.084	1	1
492.254	1	10
492.424	1	-1
492.594	1	10
492.765	1	5
492.935	1	13
493.105	1	14
493.275	1	0
493.446	1	7
493.616	1	2
493.786	1	-4
493.956	1	8
494.127	1	-6
494.297	1	-1
494.467	1	6
494.637	1	5
494.808	1	-9
494.978	1	-1
495.148	1	15
495.318	1	8
495.489	1	-4
495.659	1	17
495.829	1	11
495.999	1	4
496.170	1	-3
496.340	1	5
496.510	1	-4
496.680	1	0
496.851	1	6
497.021	1	2
497.191	1	-2
497.361	1	0
497.532	1	4
497.702	1	7
497.872	1	-3
498.042	1	9
498.213	1	1
498.383	1	1
498.553	1	-5
498.723	1	-8
498.894	1	3
499.064	1	6
499.234	1	0
499.404	1	6
499.574	1	-4
499.745	1	-1
499.915	1	-2
500.085	1	1
500.255	1	3
500.426	1	-2
500.596	1	12
500.766	1	1
500.936	1	9
501.106	1	5
501.277	1	4
501.447	1	-5
501.617	1	-5
501.787	1	6
501.958	1	9
502.128	1	14
502.298	1	11
502.468	1	-1
502.638	1	4
502.809	1	-4
502.979	1	-2
503.149	1	2
503.319	1	-1
503.489	1	2
503.660	1	6
503.830	1	3
504.000	1	13
504.170	1	-1
504.340	1	-5
504.511	1	9
504.681	1	7
504.851	1	7
505.021	1	0
505.192	1	-7
505.362	1	3
505.532	1	0
505.702	1	-4
505.872	1	-1
506.043	1	-11
506.213	1	5
506.383	1	14
506.553	1	1
506.723	1	13
506.893	1	-3
507.064	1	-4
507.234	1	-8
507.404	1	4
507.574	1	4
507.744	1	-1
507.915	1	-4
508.085	1	-17
508.255	1	10
508.425	1	8
508.595	1	0
508.766	1	-1
508.936	1	9
509.106	1	-2
509.276	1	4
509.446	1	4
509.616	1	3
509.787	1	3
509.957	1	4
510.127	1	10
510.297	1	9
510.467	1	-1
510.638	1	8
510.808	1	-7
510.978	1	0
511.148	1	5
511.318	1	4
511.488	1	-5
511.659	1	11
511.829	1	-3
511.999	1	0
512.169	1	7
512.339	1	-6
512.509	1	-2
512.680	1	-3
512.850	1	-6
513.020	1	5
513.190	1	4
513.360	1	-4
513.530	1	5
513.700	1	-4
513.871	1	5
514.041	1	-3
514.211	1	-3
514.381	1	0
514.551	1	-5
514.721	1	0
514.892	1	-2
515.062	1	3
515.232	1	12
515.402	1	9
515.572	1	-1
515.742	1	8
515.912	1	-2
516.083	1	-2
516.253	1	4
516.423	1	-14
516.593	1	2
516.763	1	10
516.933	1	19
517.104	1	10
517.274	1	19
517.444	1	-4
517.614	1	1
517.784	1	5
517.954	1	2
518.124	1	8
518.294	1	-9
518.465	1	-1
518.635	1	-3
518.805	1	3
518.975	1	-4
519.145	1	15
519.315	1	-3
519.485	1	-1
519.656	1	14
519.826	1	-3
519.996	1	3
520.166	1	10
520.336	1	-9
520.506	1	4
520.676	1	11
520.846	1	7
521.017	1	8
521.187	1	0
521.357	1	6
521.527	1	1
521.697	1	6
521.867	1	6
522.037	1	0
522.207	1	8
522.377	1	4
522.548	1	2
522.718	1	13
522.888	1	10
523.058	1	-4
523.228	1	-4
523.398	1	6
523.568	1	-5
523.738	1	-2
523.909	1	-1
524.079	1	-2
524.249	1	2
524.419	1	6
524.589	1	2
524.759	1	5
524.929	1	-1
525.099	1	-3
525.269	1	-16
525.439	1	4
525.610	1	-6
525.780	1	1
525.950	1	9
526.120	1	4
526.290	1	0
526.460	1	7
526.630	1	1
526.800	1	10
526.970	1	2
527.140	1	2
527.311	1	7
527.481	1	-7
527.651	1	3
527.821	1	-4
527.991	1	0
528.161	1	-1
528.331	1	2
528.501	1	-10
528.671	1	9
528.841	1	12
529.011	1	-2
529.181	1	2
529.352	1	4
529.522	1	4
529.692	1	-5
529.862	1	3
530.032	1	0
530.202	1	1
530.372	1	1
530.542	1	-1
530.712	1	17
530.882	1	10
531.052	1	2
531.222	1	1
531.392	1	0
531.563	1	-6
531.733	1	0
531.903	1	-1
532.073	1	0
532.243	1	8
532.413	1	-3
532.583	1	11
532.753	1	5
532.923	1	4
533.093	1	-1
533.263	1	-4
533.433	1	3
533.603	1	-9
533.773	1	3
533.943	1	2
534.113	1	12
534.284	1	-5
534.454	1	3
534.624	1	2
534.794	1	2
534.964	1	2
535.134	1	12
535.304	1	9
535.474	1	-2
535.644	1	14
535.814	1	2
535.984	1	4
536.154	1	-6
536.324	1	-4
536.494	1	6
536.664	1	-1
536.834	1	-2
537.004	1	1
537.174	1	8
537.344	1	0
537.514	1	8
537.685	1	3
537.855	1	-3
538.025	1	-5
538.195	1	8
538.365	1	14
538.535	1	-6
538.705	1	-3
538.875	1	-3
539.045	1	4
539.215	1	-2
539.385	1	0
539.555	1	-3
539.725	1	-1
539.895	1	0
540.065	1	-5
540.235	1	12
540.405	1	0
540.575	1	-1
540.745	1	-12
540.915	1	0
541.085	1	-2
541.255	1	7
541.425	1	-1
541.595	1	3
541.765	1	9
541.935	1	0
542.105	1	-3
542.275	1	5
542.445	1	3
542.615	1	-1
542.785	1	-2
542.955	1	-13
543.125	1	-7
543.295	1	11
543.465	1	-5
543.635	1	-2
543.805	1	-2
543.975	1	-5
544.145	1	14
544.315	1	-4
544.485	1	3
544.655	1	1
544.825	1	3
544.995	1	15
545.165	1	4
545.335	1	-9
545.505	1	-1
545.675	1	-19
545.845	1	3
546.015	1	6
546.185	1	2
546.355	1	3
546.525	1	0
546.695	1	-3
546.865	1	4
547.035	1	0
547.205	1	19
547.375	1	-2
547.545	1	-6
547.715	1	5
547.885	1	-3
548.055	1	-2
548.225	1	2
548.395	1	-6
548.565	1	11
548.735	1	7
548.905	1	7
549.075	1	0
549.245	1	-3
549.415	1	4
549.585	1	-1
549.755	1	7
549.925	1	-2
550.095	1	-3
550.265	1	6
550.435	1	-2
550.605	1	8
550.775	1	4
550.945	1	-1
551.115	1	-4
551.285	1	1
551.455	1	-4
551.625	1	-8
551.795	1	-4
551.965	1	4
552.135	1	3
552.305	1	1
552.475	1	1
552.645	1	-3
552.815	1	4
552.985	1	-5
553.155	1	-1
553.325	1	-6
553.495	1	-2
553.665	1	4
553.835	1	6
554.004	1	7
554.174	1	-6
554.344	1	2
554.514	1	-2
554.684	1	-4
554.854	1	-1
555.024	1	-3
555.194	1	-2
555.364	1	7
555.534	1	-5
555.704	1	7
555.874	1	-2
556.044	1	-3
556.214	1	5
556.384	1	0
556.554	1	-2
556.724	1	6
556.894	1	-6
557.064	1	7
557.234	1	-2
557.404	1	5
557.573	1	-5
557.743	1	-1
557.913	1	9
558.083	1	-5
558.253	1	9
558.423	1	-9
558.593	1	-7
558.763	1	5
558.933	1	0
559.103	1	14
559.273	1	-8
559.443	1	4
559.613	1	-6
559.783	1	-9
559.953	1	2
560.122	1	-1
560.292	1	9
560.462	1	0
560.632	1	-4
560.802	1	7
560.972	1	-3
561.142	1	2
561.312	1	9
561.482	1	-3
561.652	1	-10
561.822	1	-7
561.992	1	-4
562.162	1	2
562.331	1	6
562.501	1	2
562.671	1	9
562.841	1	-15
563.011	1	4
563.181	1	0
563.351	1	-1
563.521	1	0
563.691	1	8
563.861	1	2
564.031	1	-9
564.201	1	3
564.370	1	3
564.540	1	5
564.710	1	-5
564.880	1	3
565.050	1	11
565.220	1	-8
565.390	1	-2
565.560	1	12
565.730	1	14
565.900	1	7
566.069	1	3
566.239	1	5
566.409	1	-4
566.579	1	3
566.749	1	-2
566.919	1	-1
567.089	1	5
567.259	1	2
567.429	1	-7
567.599	1	13
567.768	1	5
567.938	1	-14
568.108	1	6
568.278	1	5
568.448	1	0
568.618	1	-3
568.788	1	-5
568.958	1	-6
569.128	1	6
569.297	1	-11
569.467	1	-2
569.637	1	-2
569.807	1	6
569.977	1	3
570.147	1	1
570.317	1	0
570.487	1	-1
570.656	1	-13
570.826	1	-7
570.996	1	-11
571.166	1	6
571.336	1	-6
571.506	1	5
571.676	1	12
571.846	1	5
572.015	1	2
572.185	1	4
572.355	1	1
572.525	1	-7
572.695	1	-4
572.865	1	-6
573.035	1	5
573.205	1	8
573.374	1	1
573.544	1	6
573.714	1	-6
573.884	1	1
574.054	1	-2
574.224	1	-4
574.394	1	-3
574.563	1	5
574.733	1	-3
574.903	1	4
575.073	1	3
575.243	1	-3
575.413	1	-7
575.583	1	1
575.752	1	-1
575.922	1	2
576.092	1	-5
576.262	1	-6
576.432	1	3
576.602	1	-4
576.772	1	8
576.941	1	1
577.111	1	-1
577.281	1	0
577.451	1	-1
577.621	1	1
577.791	1	1
577.960	1	-4
578.130	1	-11
578.300	1	-14
578.470	1	-4
578.640	1	10
578.810	1	-5
578.979	1	-4
579.149	1	2
579.319	1	3
579.489	1	-6
579.659	1	-6
579.829	1	-4
579.998	1	-5
580.168	1	4
580.338	1	-2
580.508	1	6
580.678	1	0
580.848	1	2
581.017	1	11
581.187	1	3
581.357	1	-1
581.527	1	0
581.697	1	-1
581.867	1	-4
582.036	1	-9
582.206	1	4
582.376	1	1
582.546	1	-6
582.716	1	10
582.885	1	-9
583.055	1	0
583.225	1	-6
583.395	1	0
583.565	1	-1
583.735	1	-4
583.904	1	1
584.074	1	-13
584.244	1	-8
584.414	1	5
584.584	1	-9
584.753	1	0
584.923	1	-5
585.093	1	1
585.263	1	0
585.433	1	2
585.602	1	-5
585.772	1	3
585.942	1	5
586.112	1	-3
586.282	1	2
586.451	1	4
586.621	1	12
586.791	1	1
586.961	1	-10
587.131	1	-9
587.300	1	-4
587.470	1	1
587.640	1	12
587.810	1	13
587.980	1	-4
588.149	1	-2
588.319	1	0
588.489	1	0
588.659	1	-1
588.829	1	-3
588.998	1	5
589.168	1	8
589.338	1	4
589.508	1	-1
589.677	1	-2
589.847	1	1
590.017	1	-2
590.187	1	6
590.357	1	6
590.526	1	-2
590.696	1	2
590.866	1	-6
591.036	1	11
591.205	1	7
591.375	1	-10
591.545	1	4
591.715	1	-3
591.885	1	-5
592.054	1	-2
592.224	1	-2
592.394	1	-5
592.564	1	-2
592.733	1	-12
592.903	1	-1
593.073	1	1
593.243	1	4
593.412	1	5
593.582	1	2
593.752	1	0
593.922	1	-5
594.091	1	3
594.261	1	-6
594.431	1	16
594.601	1	-6
594.771	1	12
594.940	1	1
595.110	1	-1
595.280	1	-4
595.450	1	9
595.619	1	7
595.789	1	2
595.959	1	10
596.129	1	2
596.298	1	7
596.468	1	-2
596.638	1	-1
596.808	1	-1
596.977	1	-5
597.147	1	-5
597.317	1	1
597.487	1	0
597.656	1	-2
597.826	1	10
597.996	1	8
598.166	1	5
598.335	1	-2
598.505	1	9
598.675	1	-5
598.844	1	-14
599.014	1	-4
599.184	1	0
599.354	1	7
599.523	1	0
599.693	1	4
599.863	1	-5
600.033	1	-5
600.202	1	15
600.372	1	-4
600.542	1	-8
600.712	1	-1
600.881	1	-3
601.051	1	-4
601.221	1	14
601.390	1	-13
601.560	1	4
601.730	1	1
601.900	1	10
602.069	1	9
602.239	1	2
602.409	1	0
602.578	1	-5
602.748	1	-2
602.918	1	4
603.088	1	11
603.257	1	3
603.427	1	5
603.597	1	5
603.767	1	8
603.936	1	4
604.106	1	1
604.276	1	6
604.445	1	4
604.615	1	0
604.785	1	6
604.954	1	8
605.124	1	-1
605.294	1	0
605.464	1	-6
605.633	1	5
605.803	1	8
605.973	1	6
606.142	1	4
606.312	1	3
606.482	1	5
606.652	1	-2
606.821	1	-1
606.991	1	-5
607.161	1	1
607.330	1	-10
607.500	1	3
607.670	1	10
607.839	1	5
608.009	1	8
608.179	1	7
608.348	1	6
608.518	1	-4
608.688	1	-5
608.858	1	7
609.027	1	0
609.197	1	-4
609.367	1	8
609.536	1	-5
609.706	1	3
609.876	1	11
610.045	1	-1
610.215	1	2
610.385	1	-1
610.554	1	1
610.724	1	-13
610.894	1	4
611.063	1	-6
611.233	1	5
611.403	1	-3
611.572	1	5
611.742	1	4
611.912	1	3
612.081	1	-10
612.251	1	8
612.421	1	9
612.590	1	2
612.760	1	3
612.930	1	-3
613.099	1	-1
613.269	1	-7
613.439	1	-5
613.608	1	13
613.778	1	-4
613.948	1	5
614.117	1	2
614.287	1	4
614.457	1	-7
614.626	1	4
614.796	1	-3
614.966	1	7
615.135	1	7
615.305	1	-3
615.475	1	3
615.644	1	4
615.814	1	-3
615.984	1	0
616.153	1	6
616.323	1	15
616.493	1	11
616.662	1	0
616.832	1	-4
617.002	1	-1
617.171	1	-1
617.341	1	0
617.511	1	10
617.680	1	12
617.850	1	3
618.019	1	-1
618.189	1	-1
618.359	1	-2
618.528	1	3
618.698	1	4
618.868	1	1
619.037	1	7
619.207	1	1
619.377	1	-3
619.546	1	2
619.716	1	3
619.885	1	9
620.055	1	5
620.225	1	15
620.394	1	4
620.564	1	9
620.734	1	7
620.903	1	5
621.073	1	4
621.242	1	-1
621.412	1	11
621.582	1	-4
621.751	1	7
621.921	1	6
622.091	1	4
622.260	1	-10
622.430	1	5
622.599	1	-6
622.769	1	14
622.939	1	0
623.108	1	2
623.278	1	8
623.448	1	8
623.617	1	1
623.787	1	1
623.956	1	15
624.126	1	4
624.296	1	6
624.465	1	-1
624.635	1	14
624.804	1	-6
624.974	1	22
625.144	1	5
625.313	1	-4
625.483	1	20
625.652	1	0
625.822	1	4
625.992	1	5
626.161	1	18
626.331	1	1
626.501	1	5
626.670	1	2
626.840	1	2
627.009	1	11
627.179	1	4
627.348	1	17
627.518	1	-1
627.688	1	1
627.857	1	9
628.027	1	-9
628.196	1	3
628.366	1	-1
628.536	1	-2
628.705	1	-3
628.875	1	3
629.044	1	1
629.214	1	12
629.384	1	-2
629.553	1	6
629.723	1	-8
629.892	1	19
630.062	1	-5
630.232	1	4
630.401	1	10
630.571	1	9
630.740	1	4
630.910	1	8
631.079	1	-5
631.249	1	1
631.419	1	-4
631.588	1	-2
631.758	1	11
631.927	1	4
632.097	1	-10
632.266	1	6
632.436	1	6
632.606	1	-2
632.775	1	5
632.945	1	5
633.114	1	4
633.284	1	0
633.453	1	1
633.623	1	4
633.793	1	-9
633.962	1	-1
634.132	1	5
634.301	1	9
634.471	1	-1
634.640	1	-3
634.810	1	6
634.979	1	9
635.149	1	3
635.319	1	7
635.488	1	6
635.658	1	4
635.827	1	1
635.997	1	4
636.166	1	-8
636.336	1	-1
636.505	1	7
636.675	1	4
636.845	1	5
637.014	1	5
637.184	1	5
637.353	1	-5
637.523	1	0
637.692	1	11
637.862	1	4
638.031	1	11
638.201	1	12
638.370	1	0
638.540	1	2
638.710	1	10
638.879	1	5
639.049	1	4
639.218	1	5
639.388	1	0
639.557	1	11
639.727	1	7
639.896	1	-3
640.066	1	9
640.235	1	7
640.405	1	-1
640.574	1	2
640.744	1	20
640.914	1	9
641.083	1	8
641.253	1	17
641.422	1	3
641.592	1	4
641.761	1	8
641.931	1	1
642.100	1	-6
642.270	1	5
642.439	1	-5
642.609	1	13
642.778	1	0
642.948	1	7
643.117	1	5
643.287	1	4
643.456	1	14
643.626	1	7
643.795	1	5
643.965	1	4
644.134	1	8
644.304	1	8
644.473	1	7
644.643	1	-8
644.812	1	18
644.982	1	6
645.151	1	11
645.321	1	-3
645.490	1	-6
645.660	1	-8
645.829	1	2
645.999	1	10
646.168	1	1
646.338	1	0
646.507	1	10
646.677	1	11
646.846	1	2
647.016	1	6
647.185	1	-2
647.355	1	5
647.524	1	7
647.694	1	2
647.863	1	3
648.033	1	5
648.202	1	1
648.372	1	5
648.541	1	1
648.711	1	2
648.880	1	16
649.050	1	-2
649.219	1	-8
649.389	1	10
649.558	1	0
649.728	1	3
649.897	1	3
650.067	1	7
650.236	1	8
650.406	1	2
650.575	1	2
650.745	1	4
650.914	1	2
651.084	1	2
651.253	1	15
651.423	1	7
651.592	1	8
651.762	1	-1
651.931	1	1
652.101	1	6
652.270	1	2
652.440	1	-9
652.609	1	0
652.778	1	1
652.948	1	-1
653.117	1	2
653.287	1	11
653.456	1	9
653.626	1	-2
653.795	1	13
653.965	1	9
654.134	1	-3
654.304	1	10
654.473	1	1
654.643	1	1
654.812	1	-1
654.982	1	1
655.151	1	3
655.320	1	4
655.490	1	-5
655.659	1	-1
655.829	1	12
655.998	1	-11
656.168	1	0
656.337	1	5
656.507	1	-8
656.676	1	3
656.846	1	5
657.015	1	3
657.184	1	5
657.354	1	2
657.523	1	8
657.693	1	4
657.862	1	5
658.032	1	1
658.201	1	2
658.371	1	-4
658.540	1	-5
658.709	1	-4
658.879	1	-11
659.048	1	1
659.218	1	2
659.387	1	-7
659.557	1	14
659.726	1	1
659.895	1	8
660.065	1	3
660.234	1	-2
660.404	1	-2
660.573	1	-4
660.743	1	8
660.912	1	3
661.081	1	16
661.251	1	9
661.420	1	7
661.590	1	2
661.759	1	6
661.929	1	10
662.098	1	0
662.267	1	-2
662.437	1	7
662.606	1	7
662.776	1	6
662.945	1	6
663.115	1	8
663.284	1	12
663.453	1	-9
663.623	1	1
663.792	1	10
663.962	1	4
664.131	1	3
664.300	1	0
664.470	1	10
664.639	1	-6
664.809	1	0
664.978	1	-2
665.148	1	14
665.317	1	-6
665.486	1	6
665.656	1	2
665.825	1	1
665.995	1	-1
666.164	1	6
666.333	1	9
666.503	1	1
666.672	1	5
666.842	1	-2
667.011	1	5
667.180	1	6
667.350	1	8
667.519	1	15
667.689	1	4
667.858	1	4
668.027	1	8
668.197	1	-3
668.366	1	12
668.536	1	8
668.705	1	-4
668.874	1	-6
669.044	1	4
669.213	1	1
669.382	1	-4
669.552	1	12
669.721	1	8
669.891	1	2
670.060	1	4
670.229	1	-1
670.399	1	6
670.568	1	4
670.738	1	-6
670.907	1	5
671.076	1	5
671.246	1	12
671.415	1	15
671.584	1	-2
671.754	1	1
671.923	1	4
672.093	1	16
672.262	1	13
672.431	1	-6
672.601	1	0
672.770	1	2
672.939	1	3
673.109	1	8
673.278	1	7
673.448	1	-8
673.617	1	-11
673.786	1	1
