325.333	1	12
325.504	1	8
325.675	1	-5
325.846	1	-6
326.017	1	5
326.188	1	3
326.359	1	0
326.531	1	-2
326.702	1	8
326.873	1	12
327.044	1	8
327.215	1	5
327.386	1	12
327.557	1	7
327.728	1	-1
327.899	1	16
328.070	1	0
328.241	1	4
328.412	1	4
328.583	1	4
328.754	1	1
328.926	1	-2
329.097	1	-3
329.268	1	5
329.439	1	6
329.610	1	13
329.781	1	6
329.952	1	6
330.123	1	5
330.294	1	4
330.465	1	2
330.636	1	12
330.807	1	11
330.978	1	10
331.149	1	18
331.320	1	8
331.492	1	11
331.663	1	8
331.834	1	-1
332.005	1	0
332.176	1	2
332.347	1	16
332.518	1	1
332.689	1	-3
332.860	1	7
333.031	1	7
333.202	1	11
333.373	1	10
333.544	1	8
333.715	1	15
333.886	1	-8
334.057	1	13
334.228	1	8
334.399	1	18
334.570	1	1
334.741	1	12
334.912	1	12
335.084	1	-1
335.255	1	8
335.426	1	1
335.597	1	9
335.768	1	14
335.939	1	12
336.110	1	17
336.281	1	8
336.452	1	14
336.623	1	6
336.794	1	0
336.965	1	8
337.136	1	2
337.307	1	1
337.478	1	-7
337.649	1	20
337.820	1	12
337.991	1	7
338.162	1	7
338.333	1	1
338.504	1	-1
338.675	1	7
338.846	1	5
339.017	1	16
339.188	1	5
339.359	1	13
339.530	1	19
339.701	1	3
339.872	1	14
340.043	1	-7
340.214	1	8
340.385	1	5
340.556	1	6
340.727	1	15
340.898	1	6
341.069	1	12
341.240	1	16
341.411	1	4
341.582	1	14
341.753	1	9
341.924	1	6
342.095	1	6
342.266	1	6
342.437	1	18
342.608	1	14
342.779	1	21
342.950	1	4
343.121	1	7
343.292	1	0
343.463	1	4
343.634	1	-7
343.805	1	5
343.976	1	7
344.147	1	6
344.318	1	10
344.489	1	11
344.660	1	6
344.831	1	14
345.002	1	15
345.173	1	-4
345.344	1	10
345.515	1	-8
345.686	1	19
345.857	1	5
346.028	1	9
346.199	1	4
346.370	1	13
346.541	1	5
346.712	1	6
346.883	1	4
347.054	1	8
347.225	1	9
347.396	1	-6
347.567	1	14
347.738	1	2
347.909	1	7
348.080	1	9
348.251	1	8
348.422	1	6
348.593	1	-1
348.764	1	10
348.935	1	4
349.106	1	8
349.277	1	6
349.448	1	5
349.619	1	5
349.790	1	17
349.961	1	18
350.132	1	7
350.303	1	2
350.474	1	-3
350.645	1	7
350.816	1	3
350.987	1	8
351.157	1	14
351.328	1	8
351.499	1	4
351.670	1	3
351.841	1	10
352.012	1	10
352.183	1	-1
352.354	1	-6
352.525	1	11
352.696	1	22
352.867	1	2
353.038	1	8
353.209	1	8
353.380	1	2
353.551	1	7
353.722	1	5
353.893	1	2
354.064	1	9
354.235	1	14
354.406	1	12
354.576	1	9
354.747	1	7
354.918	1	2
355.089	1	4
355.260	1	12
355.431	1	11
355.602	1	9
355.773	1	4
355.944	1	-5
356.115	1	14
356.286	1	6
356.457	1	5
356.628	1	1
356.799	1	-1
356.970	1	12
357.141	1	9
357.311	1	7
357.482	1	9
357.653	1	14
357.824	1	17
357.995	1	4
358.166	1	7
358.337	1	6
358.508	1	5
358.679	1	16
358.850	1	13
359.021	1	3
359.192	1	7
359.363	1	2
359.533	1	1
359.704	1	15
359.875	1	20
360.046	1	9
360.217	1	7
360.388	1	10
360.559	1	9
360.730	1	-3
360.901	1	8
361.072	1	8
361.243	1	11
361.414	1	5
361.584	1	7
361.755	1	-4
361.926	1	-1
362.097	1	10
362.268	1	2
362.439	1	2
362.610	1	4
362.781	1	8
362.952	1	14
363.123	1	8
363.293	1	3
363.464	1	5
363.635	1	1
363.806	1	-4
363.977	1	7
364.148	1	-3
364.319	1	7
364.490	1	12
364.661	1	7
364.832	1	1
365.002	1	4
365.173	1	-1
365.344	1	10
365.515	1	2
365.686	1	-2
365.857	1	9
366.028	1	9
366.199	1	7
366.370	1	11
366.540	1	9
366.711	1	8
366.882	1	-6
367.053	1	-1
367.224	1	9
367.395	1	8
367.566	1	-4
367.737	1	9
367.908	1	-6
368.078	1	12
368.249	1	9
368.420	1	7
368.591	1	8
368.762	1	5
368.933	1	0
369.104	1	14
369.274	1	-4
369.445	1	11
369.616	1	4
369.787	1	10
369.958	1	4
370.129	1	2
370.300	1	6
370.471	1	9
370.641	1	10
370.812	1	8
370.983	1	0
371.154	1	1
371.325	1	9
371.496	1	13
371.667	1	5
371.837	1	11
372.008	1	-6
372.179	1	6
372.350	1	1
372.521	1	6
372.692	1	2
372.863	1	-2
373.033	1	15
373.204	1	0
373.375	1	1
373.546	1	16
373.717	1	1
373.888	1	4
374.059	1	14
374.229	1	1
374.400	1	-4
374.571	1	8
374.742	1	-6
374.913	1	3
375.084	1	6
375.254	1	12
375.425	1	2
375.596	1	8
375.767	1	10
375.938	1	1
376.109	1	9
376.279	1	-3
376.450	1	14
376.621	1	1
376.792	1	10
376.963	1	11
377.134	1	15
377.304	1	7
377.475	1	0
377.646	1	1
377.817	1	-4
377.988	1	7
378.159	1	14
378.329	1	12
378.500	1	13
378.671	1	9
378.842	1	9
379.013	1	10
379.184	1	-1
379.354	1	6
379.525	1	4
379.696	1	15
379.867	1	-2
380.038	1	10
380.209	1	3
380.379	1	8
380.550	1	12
380.721	1	6
380.892	1	-5
381.063	1	1
381.233	1	-1
381.404	1	13
381.575	1	17
381.746	1	15
381.917	1	14
382.087	1	10
382.258	1	21
382.429	1	1
382.600	1	7
382.771	1	4
382.941	1	10
383.112	1	7
383.283	1	19
383.454	1	6
383.625	1	3
383.795	1	4
383.966	1	-4
384.137	1	4
384.308	1	6
384.479	1	5
384.649	1	-1
384.820	1	14
384.991	1	6
385.162	1	8
385.333	1	4
385.503	1	4
385.674	1	-9
385.845	1	14
386.016	1	8
386.187	1	9
386.357	1	0
386.528	1	10
386.699	1	5
386.870	1	1
387.041	1	15
387.211	1	1
387.382	1	-1
387.553	1	6
387.724	1	20
387.894	1	11
388.065	1	8
388.236	1	5
388.407	1	11
388.578	1	4
388.748	1	8
388.919	1	5
389.090	1	11
389.261	1	6
389.431	1	11
389.602	1	15
389.773	1	9
389.944	1	21
390.114	1	14
390.285	1	-2
390.456	1	3
390.627	1	-3
390.798	1	-4
390.968	1	15
391.139	1	4
391.310	1	7
391.481	1	7
391.651	1	5
391.822	1	9
391.993	1	2
392.164	1	6
392.334	1	-4
392.505	1	6
392.676	1	14
392.847	1	7
393.017	1	3
393.188	1	24
393.359	1	7
393.530	1	16
393.700	1	-3
393.871	1	-3
394.042	1	7
394.213	1	8
394.383	1	1
394.554	1	17
394.725	1	12
394.896	1	19
395.066	1	10
395.237	1	7
395.408	1	18
395.579	1	3
395.749	1	9
395.920	1	0
396.091	1	8
396.262	1	1
396.432	1	14
396.603	1	7
396.774	1	13
396.945	1	11
397.115	1	4
397.286	1	5
397.457	1	2
397.627	1	7
397.798	1	9
397.969	1	15
398.140	1	5
398.310	1	13
398.481	1	-1
398.652	1	-1
398.823	1	13
398.993	1	8
399.164	1	7
399.335	1	16
399.505	1	2
399.676	1	0
399.847	1	13
400.018	1	16
400.188	1	6
400.359	1	14
400.530	1	17
400.700	1	15
400.871	1	0
401.042	1	13
401.213	1	1
401.383	1	7
401.554	1	12
401.725	1	16
401.895	1	9
402.066	1	15
402.237	1	16
402.408	1	0
402.578	1	4
402.749	1	-4
402.920	1	10
403.090	1	7
403.261	1	10
403.432	1	10
403.603	1	12
403.773	1	18
403.944	1	16
404.115	1	5
404.285	1	10
404.456	1	-1
404.627	1	1
404.797	1	4
404.968	1	8
405.139	1	13
405.310	1	17
405.480	1	20
405.651	1	1
405.822	1	17
405.992	1	9
406.163	1	5
406.334	1	11
406.504	1	15
406.675	1	23
406.846	1	13
407.016	1	20
407.187	1	9
407.358	1	18
407.528	1	12
407.699	1	6
407.870	1	18
408.041	1	20
408.211	1	15
408.382	1	13
408.553	1	14
408.723	1	15
408.894	1	7
409.065	1	5
409.235	1	13
409.406	1	6
409.577	1	2
409.747	1	-1
409.918	1	8
410.089	1	21
410.259	1	4
410.430	1	21
410.601	1	19
410.771	1	11
410.942	1	9
411.113	1	4
411.283	1	11
411.454	1	19
411.625	1	12
411.795	1	-5
411.966	1	23
412.137	1	9
412.307	1	14
412.478	1	9
412.649	1	18
412.819	1	13
412.990	1	11
413.161	1	13
413.331	1	4
413.502	1	13
413.672	1	24
413.843	1	15
414.014	1	17
414.184	1	13
414.355	1	14
414.526	1	17
414.696	1	11
414.867	1	18
415.038	1	7
415.208	1	16
415.379	1	16
415.550	1	18
415.720	1	11
415.891	1	36
416.062	1	14
416.232	1	11
416.403	1	19
416.573	1	15
416.744	1	17
416.915	1	28
417.085	1	12
417.256	1	9
417.427	1	4
417.597	1	13
417.768	1	15
417.939	1	3
418.109	1	13
418.280	1	16
418.450	1	17
418.621	1	15
418.792	1	10
418.962	1	8
419.133	1	5
419.304	1	11
419.474	1	12
419.645	1	16
419.815	1	6
419.986	1	19
420.157	1	14
420.327	1	10
420.498	1	16
420.669	1	9
420.839	1	5
421.010	1	10
421.180	1	16
421.351	1	19
421.522	1	11
421.692	1	15
421.863	1	24
422.033	1	7
422.204	1	11
422.375	1	14
422.545	1	21
422.716	1	11
422.886	1	-3
423.057	1	9
423.228	1	14
423.398	1	16
423.569	1	12
423.740	1	14
423.910	1	13
424.081	1	8
424.251	1	-2
424.422	1	8
424.593	1	8
424.763	1	18
424.934	1	15
425.104	1	14
425.275	1	23
425.445	1	8
425.616	1	10
425.787	1	13
425.957	1	3
426.128	1	13
426.298	1	20
426.469	1	2
426.640	1	22
426.810	1	29
426.981	1	13
427.151	1	15
427.322	1	23
427.493	1	24
427.663	1	20
427.834	1	15
428.004	1	-1
428.175	1	21
428.345	1	12
428.516	1	26
428.687	1	15
428.857	1	17
429.028	1	2
429.198	1	13
429.369	1	9
429.540	1	17
429.710	1	10
429.881	1	7
430.051	1	17
430.222	1	14
430.392	1	2
430.563	1	13
430.734	1	7
430.904	1	10
431.075	1	14
431.245	1	4
431.416	1	18
431.586	1	9
431.757	1	20
431.927	1	13
432.098	1	3
432.269	1	7
432.439	1	21
432.610	1	14
432.780	1	11
432.951	1	17
433.121	1	19
433.292	1	10
433.462	1	9
433.633	1	6
433.804	1	8
433.974	1	11
434.145	1	10
434.315	1	3
434.486	1	18
434.656	1	22
434.827	1	13
434.997	1	16
435.168	1	19
435.339	1	14
435.509	1	14
435.680	1	8
435.850	1	9
436.021	1	18
436.191	1	8
436.362	1	13
436.532	1	12
436.703	1	10
436.873	1	12
437.044	1	8
437.214	1	10
437.385	1	14
437.556	1	20
437.726	1	19
437.897	1	12
438.067	1	1
438.238	1	7
438.408	1	9
438.579	1	18
438.749	1	-1
438.920	1	16
439.090	1	16
439.261	1	13
439.431	1	12
439.602	1	9
439.772	1	19
439.943	1	8
440.113	1	23
440.284	1	16
440.455	1	13
440.625	1	21
440.796	1	22
440.966	1	3
441.137	1	-1
441.307	1	22
441.478	1	20
441.648	1	8
441.819	1	19
441.989	1	2
442.160	1	10
442.330	1	9
442.501	1	7
442.671	1	10
442.842	1	9
443.012	1	14
443.183	1	23
443.353	1	21
443.524	1	6
443.694	1	7
443.865	1	13
444.035	1	10
444.206	1	16
444.376	1	4
444.547	1	19
444.717	1	8
444.888	1	13
445.058	1	13
445.229	1	-1
445.399	1	5
445.570	1	10
445.740	1	15
445.911	1	14
446.081	1	18
446.252	1	15
446.422	1	17
446.593	1	6
446.763	1	2
446.934	1	13
447.104	1	12
447.275	1	10
447.445	1	14
447.616	1	18
447.786	1	13
447.957	1	3
448.127	1	16
448.298	1	9
448.468	1	7
448.639	1	7
448.809	1	16
448.979	1	-4
449.150	1	14
449.320	1	10
449.491	1	12
449.661	1	25
449.832	1	15
450.002	1	16
450.173	1	9
450.343	1	5
450.514	1	7
450.684	1	5
450.855	1	16
451.025	1	-1
451.196	1	8
451.366	1	16
451.537	1	10
451.707	1	12
451.878	1	1
452.048	1	19
452.218	1	13
452.389	1	7
452.559	1	1
452.730	1	7
452.900	1	14
453.071	1	11
453.241	1	14
453.412	1	10
453.582	1	17
453.753	1	9
453.923	1	8
454.093	1	23
454.264	1	24
454.434	1	13
454.605	1	14
454.775	1	13
454.946	1	25
455.116	1	8
455.287	1	5
455.457	1	26
455.628	1	11
455.798	1	4
455.968	1	2
456.139	1	-8
456.309	1	6
456.480	1	20
456.650	1	25
456.821	1	16
456.991	1	11
457.161	1	13
457.332	1	12
457.502	1	7
457.673	1	4
457.843	1	12
458.014	1	15
458.184	1	10
458.355	1	-1
458.525	1	4
458.695	1	12
458.866	1	12
459.036	1	8
459.207	1	10
459.377	1	17
459.548	1	1
459.718	1	5
459.888	1	20
460.059	1	6
460.229	1	2
460.400	1	15
460.570	1	9
460.740	1	7
460.911	1	7
461.081	1	6
461.252	1	13
461.422	1	19
461.593	1	-1
461.763	1	13
461.933	1	4
462.104	1	21
462.274	1	3
462.445	1	-6
462.615	1	6
462.785	1	10
462.956	1	6
463.126	1	-5
463.297	1	18
463.467	1	16
463.638	1	-2
463.808	1	8
463.978	1	6
464.149	1	12
464.319	1	0
464.490	1	1
464.660	1	4
464.830	1	-1
465.001	1	17
465.171	1	9
465.342	1	8
465.512	1	11
465.682	1	4
465.853	1	13
466.023	1	15
466.194	1	8
466.364	1	5
466.534	1	11
466.705	1	4
466.875	1	13
467.045	1	-2
467.216	1	8
467.386	1	-6
467.557	1	-1
467.727	1	9
467.897	1	-4
468.068	1	16
468.238	1	3
468.409	1	-2
468.579	1	4
468.749	1	-4
468.920	1	10
469.090	1	15
469.260	1	-2
469.431	1	5
469.601	1	-2
469.772	1	1
469.942	1	13
470.112	1	4
470.283	1	17
470.453	1	8
470.623	1	5
470.794	1	9
470.964	1	0
471.135	1	0
471.305	1	12
471.475	1	7
471.646	1	12
471.816	1	-4
471.986	1	6
472.157	1	8
472.327	1	8
472.497	1	0
472.668	1	10
472.838	1	-4
473.009	1	26
473.179	1	1
473.349	1	3
473.520	1	1
473.690	1	1
473.860	1	6
474.031	1	10
474.201	1	9
474.371	1	6
474.542	1	6
474.712	1	-2
474.882	1	14
475.053	1	8
475.223	1	1
475.394	1	13
475.564	1	-4
475.734	1	9
475.905	1	3
476.075	1	-5
476.245	1	14
476.416	1	2
476.586	1	7
476.756	1	15
476.927	1	8
477.097	1	5
477.267	1	12
477.438	1	-4
477.608	1	11
477.778	1	11
477.949	1	1
478.119	1	10
478.289	1	14
478.460	1	8
478.630	1	-3
478.800	1	4
478.971	1	9
479.141	1	1
479.311	1	13
479.482	1	6
479.652	1	7
479.822	1	2
479.993	1	9
480.163	1	7
480.333	1	15
480.504	1	11
480.674	1	4
480.844	1	12
481.015	1	3
481.185	1	13
481.355	1	1
481.525	1	9
481.696	1	22
481.866	1	-5
482.036	1	6
482.207	1	3
482.377	1	19
482.547	1	6
482.718	1	8
482.888	1	2
483.058	1	5
483.229	1	-1
483.399	1	8
483.569	1	4
483.740	1	1
483.910	1	-3
484.080	1	11
484.250	1	15
484.421	1	8
484.591	1	3
484.761	1	10
484.932	1	6
485.102	1	8
485.272	1	2
485.443	1	0
485.613	1	5
485.783	1	7
485.953	1	5
486.124	1	-2
486.294	1	12
486.464	1	6
486.635	1	4
486.805	1	-2
486.975	1	6
487.146	1	-2
487.316	1	7
487.486	1	3
487.656	1	-1
487.827	1	6
487.997	1	-1
488.167	1	4
488.338	1	-6
488.508	1	14
488.678	1	5
488.848	1	8
489.019	1	10
489.189	1	6
489.359	1	5
489.529	1	1
489.700	1	0
489.870	1	-3
490.040	1	-1
490.211	1	6
490.381	1	4
490.551	1	-8
490.721	1	9
490.892	1	13
491.062	1	5
491.232	1	0
491.402	1	4
491.573	1	7
491.743	1	-1
491.913	1	-2
492.084	1	-6
492.254	1	13
492.424	1	-3
492.594	1	20
492.765	1	9
492.935	1	12
493.105	1	7
493.275	1	4
493.446	1	5
493.616	1	5
493.786	1	5
493.956	1	2
494.127	1	-11
494.297	1	-2
494.467	1	13
494.637	1	16
494.808	1	-2
494.978	1	-2
495.148	1	6
495.318	1	-8
495.489	1	0
495.659	1	14
495.829	1	-1
495.999	1	3
496.170	1	2
496.340	1	-2
496.510	1	-4
496.680	1	6
496.851	1	0
497.021	1	2
497.191	1	1
497.361	1	3
497.532	1	6
497.702	1	6
497.872	1	0
498.042	1	2
498.213	1	0
498.383	1	4
498.553	1	3
498.723	1	-3
498.894	1	7
499.064	1	8
499.234	1	-3
499.404	1	8
499.574	1	-3
499.745	1	0
499.915	1	-3
500.085	1	-3
500.255	1	12
500.426	1	2
500.596	1	13
500.766	1	-1
500.936	1	-2
501.106	1	2
501.277	1	19
501.447	1	-1
501.617	1	2
501.787	1	9
501.958	1	9
502.128	1	19
502.298	1	3
502.468	1	-5
502.638	1	-2
502.809	1	-1
502.979	1	-7
503.149	1	8
503.319	1	-4
503.489	1	0
503.660	1	2
503.830	1	2
504.000	1	3
504.170	1	3
504.340	1	3
504.511	1	6
504.681	1	16
504.851	1	12
505.021	1	-4
505.192	1	-1
505.362	1	-4
505.532	1	-9
505.702	1	-10
505.872	1	11
506.043	1	7
506.213	1	-2
506.383	1	10
506.553	1	2
506.723	1	14
506.893	1	-2
507.064	1	3
507.234	1	6
507.404	1	7
507.574	1	5
507.744	1	3
507.915	1	2
508.085	1	-11
508.255	1	7
508.425	1	-6
508.595	1	-2
508.766	1	-9
508.936	1	12
509.106	1	-2
509.276	1	5
509.446	1	6
509.616	1	-2
509.787	1	3
509.957	1	-4
510.127	1	-1
510.297	1	13
510.467	1	-5
510.638	1	5
510.808	1	-4
510.978	1	4
511.148	1	17
511.318	1	5
511.488	1	6
511.659	1	5
511.829	1	2
511.999	1	-7
512.169	1	-6
512.339	1	-9
512.509	1	6
512.680	1	-8
512.850	1	3
513.020	1	12
513.190	1	1
513.360	1	-4
513.530	1	-8
513.700	1	0
513.871	1	2
514.041	1	-4
514.211	1	-5
514.381	1	13
514.551	1	-6
514.721	1	3
514.892	1	4
515.062	1	3
515.232	1	-1
515.402	1	1
515.572	1	4
515.742	1	6
515.912	1	3
516.083	1	-1
516.253	1	4
516.423	1	2
516.593	1	-1
516.763	1	6
516.933	1	12
517.104	1	-5
517.274	1	8
517.444	1	-6
517.614	1	-7
517.784	1	-3
517.954	1	7
518.124	1	7
518.294	1	4
518.465	1	6
518.635	1	0
518.805	1	-3
518.975	1	-3
519.145	1	4
519.315	1	5
519.485	1	2
519.656	1	11
519.826	1	-5
519.996	1	2
520.166	1	3
520.336	1	6
520.506	1	8
520.676	1	10
520.846	1	1
521.017	1	4
521.187	1	0
521.357	1	4
521.527	1	2
521.697	1	5
521.867	1	-2
522.037	1	2
522.207	1	6
522.377	1	12
522.548	1	3
522.718	1	1
522.888	1	3
523.058	1	5
523.228	1	4
523.398	1	8
523.568	1	7
523.738	1	3
523.909	1	-3
524.079	1	2
524.249	1	-4
524.419	1	-9
524.589	1	13
524.759	1	10
524.929	1	4
525.099	1	-2
525.269	1	-3
525.439	1	6
525.610	1	-5
525.780	1	1
525.950	1	7
526.120	1	5
526.290	1	6
526.460	1	0
526.630	1	1
526.800	1	0
526.970	1	3
527.140	1	10
527.311	1	16
527.481	1	-7
527.651	1	5
527.821	1	1
527.991	1	-2
528.161	1	-7
528.331	1	7
528.501	1	-4
528.671	1	9
528.841	1	20
529.011	1	1
529.181	1	9
529.352	1	3
529.522	1	2
529.692	1	-7
529.862	1	7
530.032	1	-8
530.202	1	3
530.372	1	8
530.542	1	0
530.712	1	14
530.882	1	10
531.052	1	1
531.222	1	-5
531.392	1	-3
531.563	1	3
531.733	1	-7
531.903	1	13
532.073	1	-1
532.243	1	14
532.413	1	0
532.583	1	5
532.753	1	4
532.923	1	11
533.093	1	-11
533.263	1	1
533.433	1	5
533.603	1	-5
533.773	1	-1
533.943	1	5
534.113	1	6
534.284	1	-8
534.454	1	9
534.624	1	6
534.794	1	9
534.964	1	-2
535.134	1	12
535.304	1	1
535.474	1	-5
535.644	1	8
535.814	1	-5
535.984	1	2
536.154	1	9
536.324	1	-2
536.494	1	5
536.664	1	1
536.834	1	12
537.004	1	5
537.174	1	8
537.344	1	0
537.514	1	6
537.685	1	0
537.855	1	-1
538.025	1	4
538.195	1	7
538.365	1	7
538.535	1	-1
538.705	1	-1
538.875	1	-1
539.045	1	3
539.215	1	4
539.385	1	-6
539.555	1	6
539.725	1	5
539.895	1	3
540.065	1	-8
540.235	1	1
540.405	1	-3
540.575	1	2
540.745	1	1
540.915	1	0
541.085	1	-12
541.255	1	10
541.425	1	-5
541.595	1	3
541.765	1	7
541.935	1	4
542.105	1	-4
542.275	1	10
542.445	1	1
542.615	1	-7
542.785	1	-13
542.955	1	-6
543.125	1	-9
543.295	1	4
543.465	1	-9
543.635	1	4
543.805	1	-1
543.975	1	-9
544.145	1	13
544.315	1	-7
544.485	1	14
544.655	1	-1
544.825	1	-1
544.995	1	8
545.165	1	2
545.335	1	-7
545.505	1	2
545.675	1	-7
545.845	1	4
546.015	1	-4
546.185	1	3
546.355	1	-1
546.525	1	-4
546.695	1	-3
546.865	1	5
547.035	1	-4
547.205	1	6
547.375	1	6
547.545	1	-3
547.715	1	8
547.885	1	-8
548.055	1	-3
548.225	1	1
548.395	1	-7
548.565	1	4
548.735	1	-1
548.905	1	5
549.075	1	5
549.245	1	3
549.415	1	4
549.585	1	8
549.755	1	11
549.925	1	-1
550.095	1	-5
550.265	1	8
550.435	1	-1
550.605	1	12
550.775	1	14
550.945	1	7
551.115	1	2
551.285	1	3
551.455	1	-5
551.625	1	6
551.795	1	-10
551.965	1	6
552.135	1	-1
552.305	1	7
552.475	1	-1
552.645	1	-1
552.815	1	4
552.985	1	0
553.155	1	5
553.325	1	-10
553.495	1	6
553.665	1	-16
553.835	1	8
554.004	1	6
554.174	1	-6
554.344	1	2
554.514	1	0
554.684	1	6
554.854	1	-9
555.024	1	-2
555.194	1	-1
555.364	1	-1
555.534	1	-5
555.704	1	4
555.874	1	-4
556.044	1	-1
556.214	1	5
556.384	1	7
556.554	1	0
556.724	1	-1
556.894	1	-5
557.064	1	11
557.234	1	-1
557.404	1	-5
557.573	1	-5
557.743	1	-5
557.913	1	6
558.083	1	-1
558.253	1	-1
558.423	1	7
558.593	1	-2
558.763	1	3
558.933	1	0
559.103	1	9
559.273	1	-4
559.443	1	-2
559.613	1	-12
559.783	1	-9
559.953	1	6
560.122	1	6
560.292	1	7
560.462	1	-2
560.632	1	-5
560.802	1	2
560.972	1	-11
561.142	1	-3
561.312	1	-3
561.482	1	-8
561.652	1	4
561.822	1	-4
561.992	1	0
562.162	1	6
562.331	1	6
562.501	1	1
562.671	1	9
562.841	1	-6
563.011	1	5
563.181	1	3
563.351	1	-2
563.521	1	3
563.691	1	2
563.861	1	13
564.031	1	0
564.201	1	7
564.370	1	-2
564.540	1	9
564.710	1	5
564.880	1	11
565.050	1	-1
565.220	1	2
565.390	1	2
565.560	1	4
565.730	1	-2
565.900	1	6
566.069	1	2
566.239	1	7
566.409	1	-7
566.579	1	6
566.749	1	-11
566.919	1	-7
567.089	1	1
567.259	1	4
567.429	1	-3
567.599	1	10
567.768	1	-1
567.938	1	-6
568.108	1	2
568.278	1	2
568.448	1	-4
568.618	1	0
568.788	1	0
568.958	1	-5
569.128	1	9
569.297	1	-2
569.467	1	-2
569.637	1	4
569.807	1	2
569.977	1	-1
570.147	1	0
570.317	1	-4
570.487	1	-9
570.656	1	-11
570.826	1	-7
570.996	1	-15
571.166	1	8
571.336	1	-4
571.506	1	4
571.676	1	13
571.846	1	-1
572.015	1	6
572.185	1	-1
572.355	1	-6
572.525	1	-16
572.695	1	3
572.865	1	2
573.035	1	8
573.205	1	2
573.374	1	-1
573.544	1	3
573.714	1	-1
573.884	1	7
574.054	1	1
574.224	1	-3
574.394	1	-2
574.563	1	-3
574.733	1	-1
574.903	1	4
575.073	1	1
575.243	1	-1
575.413	1	1
575.583	1	2
575.752	1	8
575.922	1	-1
576.092	1	0
576.262	1	-7
576.432	1	-3
576.602	1	-5
576.772	1	-2
576.941	1	3
577.111	1	-10
577.281	1	4
577.451	1	4
577.621	1	-6
577.791	1	-1
577.960	1	-4
578.130	1	-1
578.300	1	-7
578.470	1	-4
578.640	1	7
578.810	1	-3
578.979	1	-1
579.149	1	-6
579.319	1	1
579.489	1	-8
579.659	1	-4
579.829	1	3
579.998	1	3
580.168	1	3
580.338	1	8
580.508	1	10
580.678	1	9
580.848	1	8
581.017	1	7
581.187	1	4
581.357	1	-10
581.527	1	-2
581.697	1	2
581.867	1	-5
582.036	1	-5
582.206	1	6
582.376	1	-9
582.546	1	-4
582.716	1	-5
582.885	1	-8
583.055	1	-1
583.225	1	-2
583.395	1	10
583.565	1	-1
583.735	1	2
583.904	1	1
584.074	1	-4
584.244	1	-6
584.414	1	3
584.584	1	3
584.753	1	9
584.923	1	1
585.093	1	-2
585.263	1	4
585.433	1	-6
585.602	1	-6
585.772	1	-13
585.942	1	7
586.112	1	-13
586.282	1	1
586.451	1	12
586.621	1	9
586.791	1	1
586.961	1	0
587.131	1	1
587.300	1	-6
587.470	1	-10
587.640	1	7
587.810	1	7
587.980	1	-5
588.149	1	7
588.319	1	7
588.489	1	-2
588.659	1	-2
588.829	1	-1
588.998	1	4
589.168	1	10
589.338	1	0
589.508	1	10
589.677	1	-3
589.847	1	6
590.017	1	4
590.187	1	5
590.357	1	2
590.526	1	-2
590.696	1	-12
590.866	1	1
591.036	1	-3
591.205	1	6
591.375	1	-2
591.545	1	3
591.715	1	-3
591.885	1	-3
592.054	1	2
592.224	1	0
592.394	1	1
592.564	1	-8
592.733	1	-9
592.903	1	1
593.073	1	-5
593.243	1	-1
593.412	1	3
593.582	1	10
593.752	1	-10
593.922	1	-4
594.091	1	-2
594.261	1	-9
594.431	1	6
594.601	1	2
594.771	1	7
594.940	1	11
595.110	1	0
595.280	1	3
595.450	1	9
595.619	1	3
595.789	1	3
595.959	1	10
596.129	1	-9
596.298	1	6
596.468	1	-3
596.638	1	0
596.808	1	-2
596.977	1	4
597.147	1	0
597.317	1	-7
597.487	1	10
597.656	1	4
597.826	1	10
597.996	1	-1
598.166	1	1
598.335	1	9
598.505	1	2
598.675	1	-1
598.844	1	-10
599.014	1	9
599.184	1	1
599.354	1	5
599.523	1	1
599.693	1	12
599.863	1	-1
600.033	1	-1
600.202	1	10
600.372	1	0
600.542	1	5
600.712	1	4
600.881	1	-2
601.051	1	-3
601.221	1	5
601.390	1	-7
601.560	1	16
601.730	1	12
601.900	1	4
602.069	1	5
602.239	1	6
602.409	1	-3
602.578	1	-6
602.748	1	-2
602.918	1	-8
603.088	1	2
603.257	1	4
603.427	1	5
603.597	1	4
603.767	1	-1
603.936	1	7
604.106	1	3
604.276	1	8
604.445	1	2
604.615	1	2
604.785	1	5
604.954	1	5
605.124	1	-5
605.294	1	5
605.464	1	4
605.633	1	10
605.803	1	5
605.973	1	5
606.142	1	3
606.312	1	-11
606.482	1	10
606.652	1	-2
606.821	1	0
606.991	1	1
607.161	1	-2
607.330	1	-11
607.500	1	3
607.670	1	8
607.839	1	20
608.009	1	6
608.179	1	-1
608.348	1	-3
608.518	1	-4
608.688	1	5
608.858	1	1
609.027	1	1
609.197	1	-14
609.367	1	8
609.536	1	1
609.706	1	-2
609.876	1	9
610.045	1	2
610.215	1	-1
610.385	1	-8
610.554	1	-15
610.724	1	-9
610.894	1	7
611.063	1	-1
611.233	1	17
611.403	1	2
611.572	1	15
611.742	1	8
611.912	1	7
612.081	1	1
612.251	1	8
612.421	1	5
612.590	1	3
612.760	1	4
612.930	1	-7
613.099	1	8
613.269	1	1
613.439	1	0
613.608	1	10
613.778	1	1
613.948	1	12
614.117	1	15
614.287	1	5
614.457	1	-17
614.626	1	6
614.796	1	-8
614.966	1	-3
615.135	1	7
615.305	1	7
615.475	1	0
615.644	1	2
615.814	1	-12
615.984	1	9
616.153	1	-1
616.323	1	7
616.493	1	17
616.662	1	4
616.832	1	3
617.002	1	0
617.171	1	-10
617.341	1	1
617.511	1	0
617.680	1	8
617.850	1	4
618.019	1	0
618.189	1	5
618.359	1	1
618.528	1	5
618.698	1	6
618.868	1	-1
619.037	1	8
619.207	1	9
619.377	1	-3
619.546	1	-4
619.716	1	6
619.885	1	6
620.055	1	13
620.225	1	9
620.394	1	3
620.564	1	2
620.734	1	5
620.903	1	15
621.073	1	0
621.242	1	3
621.412	1	6
621.582	1	-2
621.751	1	5
621.921	1	8
622.091	1	7
622.260	1	-8
622.430	1	1
622.599	1	-12
622.769	1	10
622.939	1	0
623.108	1	-1
623.278	1	3
623.448	1	6
623.617	1	7
623.787	1	7
623.956	1	3
624.126	1	5
624.296	1	9
624.465	1	10
624.635	1	11
624.804	1	-6
624.974	1	6
625.144	1	1
625.313	1	0
625.483	1	20
625.652	1	9
625.822	1	-5
625.992	1	7
626.161	1	18
626.331	1	9
626.501	1	-2
626.670	1	4
626.840	1	8
627.009	1	13
627.179	1	8
627.348	1	14
627.518	1	4
627.688	1	4
627.857	1	5
628.027	1	-5
628.196	1	-4
628.366	1	-6
628.536	1	4
628.705	1	2
628.875	1	15
629.044	1	14
629.214	1	6
629.384	1	5
629.553	1	7
629.723	1	-5
629.892	1	10
630.062	1	-3
630.232	1	4
630.401	1	5
630.571	1	9
630.740	1	8
630.910	1	12
631.079	1	-2
631.249	1	8
631.419	1	-5
631.588	1	0
631.758	1	9
631.927	1	13
632.097	1	3
632.266	1	7
632.436	1	10
632.606	1	-1
632.775	1	4
632.945	1	17
633.114	1	2
633.284	1	3
633.453	1	-1
633.623	1	5
633.793	1	-5
633.962	1	8
634.132	1	-3
634.301	1	9
634.471	1	-4
634.640	1	-3
634.810	1	4
634.979	1	3
635.149	1	8
635.319	1	6
635.488	1	12
635.658	1	-8
635.827	1	16
635.997	1	6
636.166	1	-3
636.336	1	7
636.505	1	8
636.675	1	8
636.845	1	10
637.014	1	3
637.184	1	3
637.353	1	5
637.523	1	2
637.692	1	13
637.862	1	-3
638.031	1	14
638.201	1	10
638.370	1	-3
638.540	1	-7
638.710	1	15
638.879	1	9
639.049	1	9
639.218	1	5
639.388	1	0
639.557	1	10
639.727	1	5
639.896	1	6
640.066	1	17
640.235	1	12
640.405	1	0
640.574	1	-1
640.744	1	4
640.914	1	1
641.083	1	9
641.253	1	17
641.422	1	6
641.592	1	-9
641.761	1	8
641.931	1	-3
642.100	1	-8
642.270	1	2
642.439	1	4
642.609	1	12
642.778	1	-3
642.948	1	5
643.117	1	8
643.287	1	2
643.456	1	10
643.626	1	15
643.795	1	13
643.965	1	7
644.134	1	7
644.304	1	3
644.473	1	8
644.643	1	-7
644.812	1	12
644.982	1	13
645.151	1	17
645.321	1	4
645.490	1	10
645.660	1	-5
645.829	1	8
645.999	1	13
646.168	1	-3
646.338	1	5
646.507	1	4
646.677	1	7
646.846	1	6
647.016	1	11
647.185	1	4
647.355	1	6
647.524	1	13
647.694	1	-3
647.863	1	0
648.033	1	-2
648.202	1	-1
648.372	1	14
648.541	1	6
648.711	1	-1
648.880	1	11
649.050	1	6
649.219	1	-5
649.389	1	4
649.558	1	-3
649.728	1	3
649.897	1	9
650.067	1	2
650.236	1	20
650.406	1	-3
650.575	1	14
650.745	1	2
650.914	1	1
651.084	1	8
651.253	1	4
651.423	1	13
651.592	1	14
651.762	1	12
651.931	1	3
652.101	1	3
652.270	1	9
652.440	1	4
652.609	1	-4
652.778	1	-4
652.948	1	8
653.117	1	0
653.287	1	13
653.456	1	6
653.626	1	2
653.795	1	8
653.965	1	4
654.134	1	7
654.304	1	14
654.473	1	1
654.643	1	2
654.812	1	1
654.982	1	3
655.151	1	-1
655.320	1	2
655.490	1	6
655.659	1	4
655.829	1	11
655.998	1	-3
656.168	1	2
656.337	1	14
656.507	1	-1
656.676	1	-2
656.846	1	2
657.015	1	-2
657.184	1	-5
657.354	1	-1
657.523	1	1
657.693	1	17
657.862	1	-5
658.032	1	-1
658.201	1	3
658.371	1	1
658.540	1	0
658.709	1	-6
658.879	1	-5
659.048	1	0
659.218	1	3
659.387	1	4
659.557	1	3
659.726	1	6
659.895	1	2
660.065	1	1
660.234	1	7
660.404	1	3
660.573	1	9
660.743	1	14
660.912	1	8
661.081	1	18
661.251	1	-3
661.420	1	-2
661.590	1	-4
661.759	1	-1
661.929	1	-4
662.098	1	-5
662.267	1	1
662.437	1	6
662.606	1	7
662.776	1	5
662.945	1	-4
663.115	1	11
663.284	1	0
663.453	1	-7
663.623	1	7
663.792	1	3
663.962	1	7
664.131	1	-1
664.300	1	7
664.470	1	8
664.639	1	1
664.809	1	1
664.978	1	5
665.148	1	5
665.317	1	0
665.486	1	2
665.656	1	-8
665.825	1	1
665.995	1	0
666.164	1	7
666.333	1	13
666.503	1	4
666.672	1	6
666.842	1	-9
667.011	1	8
667.180	1	-10
667.350	1	4
667.519	1	8
667.689	1	-9
667.858	1	6
668.027	1	14
668.197	1	5
668.366	1	3
668.536	1	14
668.705	1	9
668.874	1	3
669.044	1	-5
669.213	1	2
669.382	1	15
669.552	1	1
669.721	1	14
669.891	1	-2
670.060	1	5
670.229	1	-1
670.399	1	-3
670.568	1	2
670.738	1	-6
670.907	1	0
671.076	1	-5
671.246	1	13
671.415	1	19
671.584	1	-4
671.754	1	7
671.923	1	10
672.093	1	15
672.262	1	15
672.431	1	-9
672.601	1	-2
672.770	1	2
672.939	1	-1
673.109	1	-1
673.278	1	9
673.448	1	-2
673.617	1	-4
673.786	1	3
