325.333	1	18
325.504	1	11
325.675	1	7
325.846	1	4
326.017	1	7
326.188	1	14
326.359	1	-4
326.531	1	-1
326.702	1	1
326.873	1	1
327.044	1	5
327.215	1	-4
327.386	1	5
327.557	1	12
327.728	1	5
327.899	1	22
328.070	1	11
328.241	1	5
328.412	1	15
328.583	1	12
328.754	1	11
328.926	1	10
329.097	1	3
329.268	1	10
329.439	1	6
329.610	1	12
329.781	1	5
329.952	1	17
330.123	1	13
330.294	1	3
330.465	1	11
330.636	1	11
330.807	1	6
330.978	1	3
331.149	1	17
331.320	1	17
331.492	1	13
331.663	1	6
331.834	1	9
332.005	1	16
332.176	1	-6
332.347	1	18
332.518	1	2
332.689	1	10
332.860	1	12
333.031	1	5
333.202	1	-5
333.373	1	9
333.544	1	8
333.715	1	14
333.886	1	8
334.057	1	10
334.228	1	9
334.399	1	15
334.570	1	5
334.741	1	11
334.912	1	13
335.084	1	5
335.255	1	6
335.426	1	11
335.597	1	10
335.768	1	19
335.939	1	9
336.110	1	9
336.281	1	9
336.452	1	9
336.623	1	14
336.794	1	7
336.965	1	1
337.136	1	14
337.307	1	7
337.478	1	6
337.649	1	17
337.820	1	3
337.991	1	2
338.162	1	4
338.333	1	14
338.504	1	7
338.675	1	9
338.846	1	10
339.017	1	16
339.188	1	0
339.359	1	10
339.530	1	13
339.701	1	6
339.872	1	14
340.043	1	0
340.214	1	6
340.385	1	4
340.556	1	6
340.727	1	6
340.898	1	12
341.069	1	20
341.240	1	12
341.411	1	13
341.582	1	20
341.753	1	1
341.924	1	9
342.095	1	8
342.266	1	6
342.437	1	13
342.608	1	20
342.779	1	13
342.950	1	6
343.121	1	15
343.292	1	7
343.463	1	6
343.634	1	2
343.805	1	8
343.976	1	13
344.147	1	5
344.318	1	2
344.489	1	14
344.660	1	18
344.831	1	28
345.002	1	20
345.173	1	8
345.344	1	6
345.515	1	-2
345.686	1	15
345.857	1	3
346.028	1	7
346.199	1	-2
346.370	1	16
346.541	1	4
346.712	1	13
346.883	1	14
347.054	1	11
347.225	1	12
347.396	1	-6
347.567	1	23
347.738	1	1
347.909	1	13
348.080	1	9
348.251	1	12
348.422	1	17
348.593	1	9
348.764	1	10
348.935	1	6
349.106	1	11
349.277	1	-4
349.448	1	3
349.619	1	-1
349.790	1	23
349.961	1	15
350.132	1	11
350.303	1	22
350.474	1	6
350.645	1	8
350.816	1	4
350.987	1	14
351.157	1	22
351.328	1	17
351.499	1	11
351.670	1	5
351.841	1	4
352.012	1	14
352.183	1	8
352.354	1	0
352.525	1	8
352.696	1	21
352.867	1	12
353.038	1	8
353.209	1	10
353.380	1	1
353.551	1	6
353.722	1	1
353.893	1	2
354.064	1	8
354.235	1	6
354.406	1	15
354.576	1	8
354.747	1	5
354.918	1	15
355.089	1	13
355.260	1	15
355.431	1	11
355.602	1	17
355.773	1	4
355.944	1	1
356.115	1	16
356.286	1	7
356.457	1	6
356.628	1	13
356.799	1	10
356.970	1	20
357.141	1	6
357.311	1	14
357.482	1	9
357.653	1	16
357.824	1	11
357.995	1	11
358.166	1	6
358.337	1	8
358.508	1	9
358.679	1	16
358.850	1	8
359.021	1	13
359.192	1	13
359.363	1	16
359.533	1	-9
359.704	1	13
359.875	1	12
360.046	1	14
360.217	1	11
360.388	1	19
360.559	1	12
360.730	1	8
360.901	1	8
361.072	1	14
361.243	1	1
361.414	1	5
361.584	1	-4
361.755	1	13
361.926	1	11
362.097	1	14
362.268	1	9
362.439	1	8
362.610	1	8
362.781	1	-3
362.952	1	10
363.123	1	12
363.293	1	13
363.464	1	11
363.635	1	11
363.806	1	13
363.977	1	7
364.148	1	1
364.319	1	4
364.490	1	11
364.661	1	6
364.832	1	18
365.002	1	18
365.173	1	9
365.344	1	16
365.515	1	4
365.686	1	-2
365.857	1	1
366.028	1	15
366.199	1	13
366.370	1	13
366.540	1	1
366.711	1	10
366.882	1	-5
367.053	1	5
367.224	1	13
367.395	1	1
367.566	1	3
367.737	1	1
367.908	1	-1
368.078	1	21
368.249	1	9
368.420	1	11
368.591	1	10
368.762	1	1
368.933	1	3
369.104	1	24
369.274	1	-7
369.445	1	15
369.616	1	13
369.787	1	17
369.958	1	0
370.129	1	4
370.300	1	5
370.471	1	16
370.641	1	8
370.812	1	12
370.983	1	2
371.154	1	6
371.325	1	9
371.496	1	15
371.667	1	7
371.837	1	5
372.008	1	-2
372.179	1	6
372.350	1	-5
372.521	1	9
372.692	1	11
372.863	1	-1
373.033	1	16
373.204	1	7
373.375	1	8
373.546	1	21
373.717	1	4
373.888	1	17
374.059	1	13
374.229	1	1
374.400	1	3
374.571	1	4
374.742	1	3
374.913	1	8
375.084	1	6
375.254	1	10
375.425	1	8
375.596	1	14
375.767	1	4
375.938	1	13
376.109	1	11
376.279	1	7
376.450	1	7
376.621	1	3
376.792	1	19
376.963	1	12
377.134	1	10
377.304	1	12
377.475	1	13
377.646	1	12
377.817	1	11
377.988	1	0
378.159	1	25
378.329	1	12
378.500	1	11
378.671	1	11
378.842	1	1
379.013	1	5
379.184	1	3
379.354	1	3
379.525	1	13
379.696	1	15
379.867	1	9
380.038	1	20
380.209	1	8
380.379	1	10
380.550	1	15
380.721	1	-3
380.892	1	13
381.063	1	4
381.233	1	15
381.404	1	8
381.575	1	17
381.746	1	27
381.917	1	9
382.087	1	20
382.258	1	24
382.429	1	6
382.600	1	11
382.771	1	7
382.941	1	17
383.112	1	5
383.283	1	14
383.454	1	12
383.625	1	6
383.795	1	13
383.966	1	2
384.137	1	12
384.308	1	6
384.479	1	2
384.649	1	6
384.820	1	16
384.991	1	8
385.162	1	7
385.333	1	8
385.503	1	5
385.674	1	-4
385.845	1	13
386.016	1	12
386.187	1	10
386.357	1	10
386.528	1	6
386.699	1	9
386.870	1	6
387.041	1	18
387.211	1	15
387.382	1	-2
387.553	1	14
387.724	1	14
387.894	1	13
388.065	1	5
388.236	1	9
388.407	1	7
388.578	1	7
388.748	1	15
388.919	1	7
389.090	1	25
389.261	1	19
389.431	1	8
389.602	1	23
389.773	1	20
389.944	1	29
390.114	1	22
390.285	1	5
390.456	1	4
390.627	1	10
390.798	1	7
390.968	1	23
391.139	1	5
391.310	1	16
391.481	1	15
391.651	1	16
391.822	1	18
391.993	1	14
392.164	1	19
392.334	1	9
392.505	1	19
392.676	1	19
392.847	1	11
393.017	1	22
393.188	1	20
393.359	1	11
393.530	1	21
393.700	1	3
393.871	1	14
394.042	1	12
394.213	1	13
394.383	1	5
394.554	1	17
394.725	1	8
394.896	1	18
395.066	1	17
395.237	1	11
395.408	1	10
395.579	1	6
395.749	1	10
395.920	1	-2
396.091	1	23
396.262	1	5
396.432	1	15
396.603	1	11
396.774	1	13
396.945	1	14
397.115	1	7
397.286	1	9
397.457	1	8
397.627	1	12
397.798	1	18
397.969	1	13
398.140	1	13
398.310	1	9
398.481	1	14
398.652	1	13
398.823	1	21
398.993	1	7
399.164	1	23
399.335	1	18
399.505	1	10
399.676	1	8
399.847	1	24
400.018	1	16
400.188	1	9
400.359	1	18
400.530	1	15
400.700	1	12
400.871	1	6
401.042	1	19
401.213	1	16
401.383	1	13
401.554	1	4
401.725	1	12
401.895	1	23
402.066	1	17
402.237	1	22
402.408	1	15
402.578	1	16
402.749	1	13
402.920	1	11
403.090	1	11
403.261	1	22
403.432	1	20
403.603	1	18
403.773	1	24
403.944	1	13
404.115	1	9
404.285	1	20
404.456	1	20
404.627	1	11
404.797	1	14
404.968	1	18
405.139	1	19
405.310	1	29
405.480	1	25
405.651	1	12
405.822	1	14
405.992	1	10
406.163	1	25
406.334	1	16
406.504	1	19
406.675	1	33
406.846	1	29
407.016	1	20
407.187	1	19
407.358	1	22
407.528	1	23
407.699	1	0
407.870	1	25
408.041	1	22
408.211	1	24
408.382	1	28
408.553	1	24
408.723	1	18
408.894	1	14
409.065	1	12
409.235	1	24
409.406	1	16
409.577	1	12
409.747	1	14
409.918	1	8
410.089	1	23
410.259	1	7
410.430	1	18
410.601	1	19
410.771	1	21
410.942	1	16
411.113	1	16
411.283	1	20
411.454	1	24
411.625	1	21
411.795	1	14
411.966	1	27
412.137	1	8
412.307	1	22
412.478	1	18
412.649	1	17
412.819	1	19
412.990	1	22
413.161	1	29
413.331	1	16
413.502	1	23
413.672	1	26
413.843	1	12
414.014	1	27
414.184	1	13
414.355	1	32
414.526	1	16
414.696	1	25
414.867	1	20
415.038	1	14
415.208	1	17
415.379	1	23
415.550	1	27
415.720	1	1
415.891	1	33
416.062	1	14
416.232	1	8
416.403	1	25
416.573	1	31
416.744	1	22
416.915	1	32
417.085	1	18
417.256	1	18
417.427	1	12
417.597	1	23
417.768	1	22
417.939	1	23
418.109	1	10
418.280	1	19
418.450	1	18
418.621	1	27
418.792	1	10
418.962	1	6
419.133	1	12
419.304	1	18
419.474	1	9
419.645	1	19
419.815	1	9
419.986	1	25
420.157	1	17
420.327	1	14
420.498	1	22
420.669	1	18
420.839	1	18
421.010	1	12
421.180	1	22
421.351	1	13
421.522	1	13
421.692	1	22
421.863	1	26
422.033	1	16
422.204	1	26
422.375	1	17
422.545	1	24
422.716	1	14
422.886	1	8
423.057	1	17
423.228	1	16
423.398	1	26
423.569	1	16
423.740	1	25
423.910	1	12
424.081	1	14
424.251	1	19
424.422	1	14
424.593	1	16
424.763	1	34
424.934	1	27
425.104	1	13
425.275	1	19
425.445	1	10
425.616	1	18
425.787	1	21
425.957	1	14
426.128	1	15
426.298	1	38
426.469	1	10
426.640	1	16
426.810	1	36
426.981	1	22
427.151	1	21
427.322	1	24
427.493	1	23
427.663	1	28
427.834	1	22
428.004	1	8
428.175	1	29
428.345	1	23
428.516	1	21
428.687	1	22
428.857	1	18
429.028	1	15
429.198	1	21
429.369	1	22
429.540	1	15
429.710	1	20
429.881	1	3
430.051	1	20
430.222	1	20
430.392	1	8
430.563	1	20
430.734	1	18
430.904	1	15
431.075	1	24
431.245	1	9
431.416	1	24
431.586	1	9
431.757	1	21
431.927	1	22
432.098	1	3
432.269	1	9
432.439	1	34
432.610	1	39
432.780	1	14
432.951	1	13
433.121	1	30
433.292	1	18
433.462	1	22
433.633	1	4
433.804	1	15
433.974	1	12
434.145	1	17
434.315	1	11
434.486	1	26
434.656	1	29
434.827	1	15
434.997	1	17
435.168	1	25
435.339	1	14
435.509	1	12
435.680	1	16
435.850	1	12
436.021	1	24
436.191	1	17
436.362	1	20
436.532	1	33
436.703	1	28
436.873	1	15
437.044	1	13
437.214	1	23
437.385	1	17
437.556	1	11
437.726	1	23
437.897	1	16
438.067	1	5
438.238	1	11
438.408	1	26
438.579	1	18
438.749	1	11
438.920	1	26
439.090	1	15
439.261	1	22
439.431	1	18
439.602	1	19
439.772	1	17
439.943	1	14
440.113	1	19
440.284	1	13
440.455	1	14
440.625	1	37
440.796	1	16
440.966	1	7
441.137	1	4
441.307	1	17
441.478	1	23
441.648	1	13
441.819	1	23
441.989	1	28
442.160	1	7
442.330	1	23
442.501	1	14
442.671	1	17
442.842	1	28
443.012	1	24
443.183	1	19
443.353	1	24
443.524	1	21
443.694	1	15
443.865	1	21
444.035	1	14
444.206	1	16
444.376	1	12
444.547	1	30
444.717	1	8
444.888	1	17
445.058	1	16
445.229	1	5
445.399	1	10
445.570	1	9
445.740	1	6
445.911	1	19
446.081	1	28
446.252	1	20
446.422	1	10
446.593	1	14
446.763	1	6
446.934	1	19
447.104	1	15
447.275	1	19
447.445	1	20
447.616	1	12
447.786	1	21
447.957	1	8
448.127	1	16
448.298	1	15
448.468	1	14
448.639	1	16
448.809	1	14
448.979	1	8
449.150	1	15
449.320	1	16
449.491	1	17
449.661	1	35
449.832	1	14
450.002	1	23
450.173	1	7
450.343	1	8
450.514	1	14
450.684	1	26
450.855	1	24
451.025	1	16
451.196	1	16
451.366	1	21
451.537	1	12
451.707	1	17
451.878	1	0
452.048	1	17
452.218	1	23
452.389	1	11
452.559	1	7
452.730	1	19
452.900	1	16
453.071	1	13
453.241	1	20
453.412	1	14
453.582	1	19
453.753	1	7
453.923	1	12
454.093	1	26
454.264	1	26
454.434	1	21
454.605	1	20
454.775	1	18
454.946	1	22
455.116	1	10
455.287	1	18
455.457	1	21
455.628	1	14
455.798	1	15
455.968	1	14
456.139	1	10
456.309	1	8
456.480	1	22
456.650	1	25
456.821	1	14
456.991	1	12
457.161	1	23
457.332	1	20
457.502	1	6
457.673	1	14
457.843	1	21
458.014	1	14
458.184	1	16
458.355	1	8
458.525	1	5
458.695	1	5
458.866	1	14
459.036	1	14
459.207	1	7
459.377	1	23
459.548	1	9
459.718	1	11
459.888	1	22
460.059	1	10
460.229	1	17
460.400	1	22
460.570	1	14
460.740	1	12
460.911	1	8
461.081	1	9
461.252	1	20
461.422	1	21
461.593	1	6
461.763	1	22
461.933	1	14
462.104	1	10
462.274	1	15
462.445	1	-4
462.615	1	14
462.785	1	2
462.956	1	10
463.126	1	9
463.297	1	14
463.467	1	10
463.638	1	15
463.808	1	12
463.978	1	14
464.149	1	11
464.319	1	3
464.490	1	15
464.660	1	16
464.830	1	5
465.001	1	21
465.171	1	14
465.342	1	13
465.512	1	19
465.682	1	15
465.853	1	8
466.023	1	7
466.194	1	15
466.364	1	22
466.534	1	23
466.705	1	2
466.875	1	18
467.045	1	8
467.216	1	14
467.386	1	10
467.557	1	12
467.727	1	16
467.897	1	-3
468.068	1	5
468.238	1	1
468.409	1	11
468.579	1	13
468.749	1	5
468.920	1	10
469.090	1	23
469.260	1	-1
469.431	1	8
469.601	1	12
469.772	1	6
469.942	1	19
470.112	1	21
470.283	1	20
470.453	1	8
470.623	1	14
470.794	1	12
470.964	1	4
471.135	1	19
471.305	1	17
471.475	1	11
471.646	1	8
471.816	1	10
471.986	1	16
472.157	1	11
472.327	1	10
472.497	1	2
472.668	1	13
472.838	1	4
473.009	1	14
473.179	1	12
473.349	1	5
473.520	1	9
473.690	1	9
473.860	1	13
474.031	1	17
474.201	1	17
474.371	1	13
474.542	1	19
474.712	1	5
474.882	1	23
475.053	1	9
475.223	1	19
475.394	1	17
475.564	1	1
475.734	1	6
475.905	1	10
476.075	1	15
476.245	1	20
476.416	1	3
476.586	1	15
476.756	1	11
476.927	1	22
477.097	1	12
477.267	1	18
477.438	1	-7
477.608	1	7
477.778	1	19
477.949	1	8
478.119	1	2
478.289	1	24
478.460	1	19
478.630	1	-1
478.800	1	10
478.971	1	16
479.141	1	-2
479.311	1	23
479.482	1	4
479.652	1	19
479.822	1	1
479.993	1	12
480.163	1	1
480.333	1	18
480.504	1	20
480.674	1	18
480.844	1	13
481.015	1	5
481.185	1	9
481.355	1	2
481.525	1	14
481.696	1	13
481.866	1	8
482.036	1	13
482.207	1	10
482.377	1	1
482.547	1	14
482.718	1	15
482.888	1	7
483.058	1	4
483.229	1	5
483.399	1	8
483.569	1	7
483.740	1	10
483.910	1	1
484.080	1	10
484.250	1	2
484.421	1	13
484.591	1	4
484.761	1	16
484.932	1	8
485.102	1	5
485.272	1	-2
485.443	1	9
485.613	1	16
485.783	1	7
485.953	1	5
486.124	1	4
486.294	1	12
486.464	1	4
486.635	1	8
486.805	1	3
486.975	1	2
487.146	1	9
487.316	1	10
487.486	1	8
487.656	1	12
487.827	1	6
487.997	1	4
488.167	1	4
488.338	1	-8
488.508	1	3
488.678	1	12
488.848	1	1
489.019	1	19
489.189	1	10
489.359	1	3
489.529	1	0
489.700	1	2
489.870	1	0
490.040	1	-7
490.211	1	3
490.381	1	7
490.551	1	0
490.721	1	10
490.892	1	18
491.062	1	3
491.232	1	7
491.402	1	3
491.573	1	4
491.743	1	0
491.913	1	12
492.084	1	4
492.254	1	21
492.424	1	16
492.594	1	12
492.765	1	9
492.935	1	18
493.105	1	7
493.275	1	0
493.446	1	15
493.616	1	2
493.786	1	8
493.956	1	6
494.127	1	4
494.297	1	11
494.467	1	17
494.637	1	-1
494.808	1	-4
494.978	1	-7
495.148	1	18
495.318	1	2
495.489	1	16
495.659	1	11
495.829	1	7
495.999	1	10
496.170	1	11
496.340	1	10
496.510	1	3
496.680	1	9
496.851	1	2
497.021	1	2
497.191	1	6
497.361	1	8
497.532	1	3
497.702	1	8
497.872	1	1
498.042	1	12
498.213	1	6
498.383	1	4
498.553	1	0
498.723	1	-9
498.894	1	16
499.064	1	11
499.234	1	3
499.404	1	4
499.574	1	9
499.745	1	9
499.915	1	1
500.085	1	5
500.255	1	4
500.426	1	0
500.596	1	14
500.766	1	0
500.936	1	5
501.106	1	7
501.277	1	4
501.447	1	3
501.617	1	1
501.787	1	15
501.958	1	8
502.128	1	18
502.298	1	1
502.468	1	5
502.638	1	10
502.809	1	4
502.979	1	-3
503.149	1	12
503.319	1	0
503.489	1	9
503.660	1	-2
503.830	1	8
504.000	1	0
504.170	1	4
504.340	1	0
504.511	1	19
504.681	1	13
504.851	1	19
505.021	1	2
505.192	1	6
505.362	1	3
505.532	1	2
505.702	1	0
505.872	1	13
506.043	1	-4
506.213	1	9
506.383	1	17
506.553	1	11
506.723	1	-1
506.893	1	5
507.064	1	-1
507.234	1	5
507.404	1	17
507.574	1	2
507.744	1	5
507.915	1	-2
508.085	1	-4
508.255	1	11
508.425	1	12
508.595	1	0
508.766	1	0
508.936	1	9
509.106	1	0
509.276	1	10
509.446	1	4
509.616	1	-1
509.787	1	9
509.957	1	9
510.127	1	-3
510.297	1	10
510.467	1	-5
510.638	1	6
510.808	1	-1
510.978	1	13
511.148	1	12
511.318	1	7
511.488	1	15
511.659	1	13
511.829	1	5
511.999	1	7
512.169	1	-3
512.339	1	-8
512.509	1	4
512.680	1	3
512.850	1	5
513.020	1	8
513.190	1	8
513.360	1	1
513.530	1	1
513.700	1	-2
513.871	1	6
514.041	1	5
514.211	1	-3
514.381	1	11
514.551	1	-2
514.721	1	8
514.892	1	5
515.062	1	12
515.232	1	12
515.402	1	12
515.572	1	-1
515.742	1	11
515.912	1	5
516.083	1	3
516.253	1	9
516.423	1	4
516.593	1	4
516.763	1	13
516.933	1	10
517.104	1	4
517.274	1	9
517.444	1	1
517.614	1	-3
517.784	1	4
517.954	1	5
518.124	1	5
518.294	1	8
518.465	1	5
518.635	1	3
518.805	1	4
518.975	1	1
519.145	1	12
519.315	1	-2
519.485	1	7
519.656	1	4
519.826	1	-8
519.996	1	11
520.166	1	3
520.336	1	-7
520.506	1	4
520.676	1	7
520.846	1	-1
521.017	1	10
521.187	1	3
521.357	1	-5
521.527	1	0
521.697	1	7
521.867	1	-11
522.037	1	5
522.207	1	7
522.377	1	4
522.548	1	4
522.718	1	-2
522.888	1	13
523.058	1	-1
523.228	1	-6
523.398	1	10
523.568	1	0
523.738	1	7
523.909	1	4
524.079	1	0
524.249	1	-3
524.419	1	11
524.589	1	4
524.759	1	7
524.929	1	-4
525.099	1	-4
525.269	1	-4
525.439	1	8
525.610	1	1
525.780	1	3
525.950	1	17
526.120	1	-4
526.290	1	2
526.460	1	10
526.630	1	1
526.800	1	0
526.970	1	6
527.140	1	9
527.311	1	4
527.481	1	-2
527.651	1	6
527.821	1	2
527.991	1	4
528.161	1	5
528.331	1	5
528.501	1	-4
528.671	1	9
528.841	1	15
529.011	1	0
529.181	1	10
529.352	1	12
529.522	1	4
529.692	1	3
529.862	1	5
530.032	1	7
530.202	1	3
530.372	1	10
530.542	1	2
530.712	1	16
530.882	1	11
531.052	1	12
531.222	1	2
531.392	1	7
531.563	1	1
531.733	1	0
531.903	1	5
532.073	1	2
532.243	1	16
532.413	1	-2
532.583	1	7
532.753	1	12
532.923	1	5
533.093	1	2
533.263	1	1
533.433	1	-3
533.603	1	2
533.773	1	-6
533.943	1	6
534.113	1	2
534.284	1	-5
534.454	1	1
534.624	1	19
534.794	1	11
534.964	1	3
535.134	1	11
535.304	1	12
535.474	1	5
535.644	1	3
535.814	1	3
535.984	1	11
536.154	1	10
536.324	1	0
536.494	1	2
536.664	1	3
536.834	1	4
537.004	1	3
537.174	1	2
537.344	1	2
537.514	1	-1
537.685	1	4
537.855	1	6
538.025	1	11
538.195	1	-1
538.365	1	11
538.535	1	-5
538.705	1	-4
538.875	1	4
539.045	1	-2
539.215	1	9
539.385	1	-1
539.555	1	5
539.725	1	-5
539.895	1	5
540.065	1	-6
540.235	1	2
540.405	1	0
540.575	1	2
540.745	1	1
540.915	1	7
541.085	1	3
541.255	1	9
541.425	1	-2
541.595	1	5
541.765	1	7
541.935	1	-5
542.105	1	2
542.275	1	15
542.445	1	-1
542.615	1	0
542.785	1	-1
542.955	1	-1
543.125	1	1
543.295	1	8
543.465	1	-4
543.635	1	-5
543.805	1	-5
543.975	1	-1
544.145	1	15
544.315	1	-5
544.485	1	2
544.655	1	-3
544.825	1	6
544.995	1	5
545.165	1	9
545.335	1	-7
545.505	1	-2
545.675	1	-11
545.845	1	9
546.015	1	-3
546.185	1	5
546.355	1	0
546.525	1	-3
546.695	1	8
546.865	1	4
547.035	1	1
547.205	1	5
547.375	1	3
547.545	1	0
547.715	1	1
547.885	1	-4
548.055	1	4
548.225	1	5
548.395	1	-8
548.565	1	6
548.735	1	4
548.905	1	6
549.075	1	9
549.245	1	3
549.415	1	-1
549.585	1	3
549.755	1	5
549.925	1	-1
550.095	1	-5
550.265	1	6
550.435	1	-3
550.605	1	4
550.775	1	12
550.945	1	7
551.115	1	2
551.285	1	-6
551.455	1	-4
551.625	1	-1
551.795	1	-13
551.965	1	10
552.135	1	0
552.305	1	4
552.475	1	-4
552.645	1	-2
552.815	1	9
552.985	1	-4
553.155	1	7
553.325	1	-4
553.495	1	3
553.665	1	0
553.835	1	1
554.004	1	7
554.174	1	5
554.344	1	4
554.514	1	0
554.684	1	-3
554.854	1	5
555.024	1	0
555.194	1	1
555.364	1	-5
555.534	1	-2
555.704	1	9
555.874	1	-4
556.044	1	4
556.214	1	-1
556.384	1	10
556.554	1	-4
556.724	1	-2
556.894	1	-7
557.064	1	4
557.234	1	3
557.404	1	5
557.573	1	-2
557.743	1	4
557.913	1	8
558.083	1	6
558.253	1	-7
558.423	1	5
558.593	1	-1
558.763	1	-1
558.933	1	6
559.103	1	16
559.273	1	0
559.443	1	5
559.613	1	-5
559.783	1	-8
559.953	1	1
560.122	1	3
560.292	1	13
560.462	1	0
560.632	1	-9
560.802	1	1
560.972	1	-4
561.142	1	-12
561.312	1	-2
561.482	1	-6
561.652	1	-9
561.822	1	-1
561.992	1	-3
562.162	1	6
562.331	1	8
562.501	1	-8
562.671	1	4
562.841	1	4
563.011	1	2
563.181	1	8
563.351	1	-4
563.521	1	7
563.691	1	-1
563.861	1	8
564.031	1	6
564.201	1	12
564.370	1	-3
564.540	1	5
564.710	1	1
564.880	1	7
565.050	1	9
565.220	1	3
565.390	1	0
565.560	1	13
565.730	1	-2
565.900	1	2
566.069	1	3
566.239	1	1
566.409	1	-7
566.579	1	4
566.749	1	-9
566.919	1	1
567.089	1	5
567.259	1	1
567.429	1	3
567.599	1	1
567.768	1	2
567.938	1	-9
568.108	1	17
568.278	1	12
568.448	1	5
568.618	1	7
568.788	1	-3
568.958	1	0
569.128	1	1
569.297	1	3
569.467	1	-12
569.637	1	8
569.807	1	3
569.977	1	-6
570.147	1	-2
570.317	1	1
570.487	1	-1
570.656	1	-3
570.826	1	-3
570.996	1	-2
571.166	1	5
571.336	1	-2
571.506	1	2
571.676	1	14
571.846	1	7
572.015	1	6
572.185	1	11
572.355	1	3
572.525	1	-6
572.695	1	-2
572.865	1	0
573.035	1	6
573.205	1	5
573.374	1	-3
573.544	1	10
573.714	1	-6
573.884	1	-1
574.054	1	8
574.224	1	8
574.394	1	-4
574.563	1	5
574.733	1	6
574.903	1	13
575.073	1	1
575.243	1	2
575.413	1	4
575.583	1	5
575.752	1	0
575.922	1	-5
576.092	1	-7
576.262	1	-1
576.432	1	0
576.602	1	-5
576.772	1	3
576.941	1	-1
577.111	1	-1
577.281	1	0
577.451	1	10
577.621	1	1
577.791	1	5
577.960	1	-1
578.130	1	-5
578.300	1	-4
578.470	1	2
578.640	1	9
578.810	1	2
578.979	1	2
579.149	1	6
579.319	1	-4
579.489	1	-12
579.659	1	-9
579.829	1	6
579.998	1	-4
580.168	1	2
580.338	1	7
580.508	1	9
580.678	1	10
580.848	1	9
581.017	1	16
581.187	1	5
581.357	1	-7
581.527	1	0
581.697	1	8
581.867	1	8
582.036	1	-3
582.206	1	8
582.376	1	-3
582.546	1	-2
582.716	1	2
582.885	1	-10
583.055	1	1
583.225	1	-10
583.395	1	10
583.565	1	8
583.735	1	-3
583.904	1	0
584.074	1	-9
584.244	1	-5
584.414	1	-4
584.584	1	0
584.753	1	9
584.923	1	6
585.093	1	0
585.263	1	-1
585.433	1	0
585.602	1	-1
585.772	1	-9
585.942	1	2
586.112	1	-3
586.282	1	0
586.451	1	11
586.621	1	8
586.791	1	-3
586.961	1	0
587.131	1	-1
587.300	1	-1
587.470	1	-9
587.640	1	11
587.810	1	5
587.980	1	3
588.149	1	-2
588.319	1	4
588.489	1	11
588.659	1	4
588.829	1	3
588.998	1	1
589.168	1	12
589.338	1	2
589.508	1	6
589.677	1	0
589.847	1	14
590.017	1	-5
590.187	1	2
590.357	1	2
590.526	1	-5
590.696	1	-6
590.866	1	-5
591.036	1	8
591.205	1	2
591.375	1	-1
591.545	1	7
591.715	1	-1
591.885	1	-1
592.054	1	3
592.224	1	9
592.394	1	0
592.564	1	4
592.733	1	-11
592.903	1	-2
593.073	1	0
593.243	1	19
593.412	1	3
593.582	1	2
593.752	1	7
593.922	1	2
594.091	1	-1
594.261	1	-7
594.431	1	8
594.601	1	-7
594.771	1	12
594.940	1	-1
595.110	1	1
595.280	1	-7
595.450	1	2
595.619	1	12
595.789	1	7
595.959	1	10
596.129	1	6
596.298	1	6
596.468	1	7
596.638	1	-6
596.808	1	-3
596.977	1	-1
597.147	1	-4
597.317	1	-4
597.487	1	8
597.656	1	7
597.826	1	9
597.996	1	2
598.166	1	1
598.335	1	15
598.505	1	9
598.675	1	3
598.844	1	-8
599.014	1	15
599.184	1	7
599.354	1	5
599.523	1	5
599.693	1	11
599.863	1	4
600.033	1	-7
600.202	1	6
600.372	1	-7
600.542	1	-1
600.712	1	-2
600.881	1	1
601.051	1	4
601.221	1	9
601.390	1	-11
601.560	1	0
601.730	1	17
601.900	1	4
602.069	1	8
602.239	1	5
602.409	1	5
602.578	1	-9
602.748	1	8
602.918	1	11
603.088	1	8
603.257	1	11
603.427	1	0
603.597	1	-1
603.767	1	6
603.936	1	1
604.106	1	1
604.276	1	6
604.445	1	10
604.615	1	0
604.785	1	16
604.954	1	13
605.124	1	-3
605.294	1	1
605.464	1	2
605.633	1	1
605.803	1	3
605.973	1	3
606.142	1	2
606.312	1	-7
606.482	1	4
606.652	1	-1
606.821	1	9
606.991	1	6
607.161	1	7
607.330	1	-12
607.500	1	2
607.670	1	13
607.839	1	12
608.009	1	9
608.179	1	-1
608.348	1	9
608.518	1	1
608.688	1	-2
608.858	1	7
609.027	1	5
609.197	1	-1
609.367	1	17
609.536	1	-1
609.706	1	7
609.876	1	12
610.045	1	-6
610.215	1	7
610.385	1	-5
610.554	1	-2
610.724	1	-4
610.894	1	9
611.063	1	0
611.233	1	12
611.403	1	2
611.572	1	-1
611.742	1	9
611.912	1	-1
612.081	1	0
612.251	1	6
612.421	1	10
612.590	1	4
612.760	1	9
612.930	1	-11
613.099	1	3
613.269	1	1
613.439	1	1
613.608	1	9
613.778	1	-8
613.948	1	5
614.117	1	1
614.287	1	8
614.457	1	-4
614.626	1	5
614.796	1	3
614.966	1	-3
615.135	1	4
615.305	1	2
615.475	1	5
615.644	1	6
615.814	1	4
615.984	1	1
616.153	1	-4
616.323	1	0
616.493	1	16
616.662	1	6
616.832	1	10
617.002	1	4
617.171	1	2
617.341	1	0
617.511	1	1
617.680	1	8
617.850	1	1
618.019	1	2
618.189	1	5
618.359	1	5
618.528	1	5
618.698	1	10
618.868	1	-13
619.037	1	5
619.207	1	10
619.377	1	-1
619.546	1	1
619.716	1	12
619.885	1	7
620.055	1	-4
620.225	1	9
620.394	1	5
620.564	1	12
620.734	1	5
620.903	1	8
621.073	1	-10
621.242	1	6
621.412	1	14
621.582	1	4
621.751	1	9
621.921	1	2
622.091	1	-2
622.260	1	-1
622.430	1	4
622.599	1	-2
622.769	1	7
622.939	1	11
623.108	1	4
623.278	1	0
623.448	1	12
623.617	1	4
623.787	1	3
623.956	1	5
624.126	1	14
624.296	1	0
624.465	1	6
624.635	1	17
624.804	1	-2
624.974	1	6
625.144	1	0
625.313	1	3
625.483	1	25
625.652	1	5
625.822	1	-4
625.992	1	13
626.161	1	12
626.331	1	6
626.501	1	19
626.670	1	8
626.840	1	11
627.009	1	6
627.179	1	8
627.348	1	9
627.518	1	11
627.688	1	7
627.857	1	12
628.027	1	-2
628.196	1	0
628.366	1	-7
628.536	1	-1
628.705	1	-6
628.875	1	15
629.044	1	3
629.214	1	7
629.384	1	16
629.553	1	9
629.723	1	-4
629.892	1	18
630.062	1	1
630.232	1	3
630.401	1	10
630.571	1	12
630.740	1	12
630.910	1	13
631.079	1	1
631.249	1	6
631.419	1	-8
631.588	1	7
631.758	1	6
631.927	1	13
632.097	1	0
632.266	1	10
632.436	1	15
632.606	1	15
632.775	1	9
632.945	1	4
633.114	1	1
633.284	1	10
633.453	1	3
633.623	1	10
633.793	1	-4
633.962	1	8
634.132	1	5
634.301	1	3
634.471	1	7
634.640	1	0
634.810	1	9
634.979	1	5
635.149	1	6
635.319	1	14
635.488	1	13
635.658	1	23
635.827	1	10
635.997	1	9
636.166	1	10
636.336	1	1
636.505	1	0
636.675	1	4
636.845	1	-2
637.014	1	0
637.184	1	5
637.353	1	8
637.523	1	11
637.692	1	22
637.862	1	12
638.031	1	10
638.201	1	12
638.370	1	-2
638.540	1	-6
638.710	1	15
638.879	1	5
639.049	1	12
639.218	1	6
639.388	1	5
639.557	1	8
639.727	1	9
639.896	1	7
640.066	1	13
640.235	1	9
640.405	1	2
640.574	1	2
640.744	1	16
640.914	1	12
641.083	1	14
641.253	1	22
641.422	1	3
641.592	1	9
641.761	1	2
641.931	1	7
642.100	1	3
642.270	1	6
642.439	1	-1
642.609	1	5
642.778	1	-2
642.948	1	5
643.117	1	12
643.287	1	8
643.456	1	13
643.626	1	8
643.795	1	6
643.965	1	8
644.134	1	10
644.304	1	6
644.473	1	4
644.643	1	1
644.812	1	17
644.982	1	4
645.151	1	23
645.321	1	1
645.490	1	0
645.660	1	6
645.829	1	11
645.999	1	6
646.168	1	7
646.338	1	6
646.507	1	15
646.677	1	5
646.846	1	-3
647.016	1	23
647.185	1	11
647.355	1	6
647.524	1	11
647.694	1	9
647.863	1	1
648.033	1	3
648.202	1	6
648.372	1	11
648.541	1	7
648.711	1	15
648.880	1	7
649.050	1	-3
649.219	1	8
649.389	1	8
649.558	1	-1
649.728	1	-2
649.897	1	7
650.067	1	-1
650.236	1	14
650.406	1	7
650.575	1	14
650.745	1	12
650.914	1	0
651.084	1	5
651.253	1	15
651.423	1	2
651.592	1	3
651.762	1	4
651.931	1	4
652.101	1	14
652.270	1	10
652.440	1	4
652.609	1	6
652.778	1	-7
652.948	1	6
653.117	1	-2
653.287	1	16
653.456	1	8
653.626	1	9
653.795	1	14
653.965	1	12
654.134	1	4
654.304	1	8
654.473	1	1
654.643	1	3
654.812	1	-3
654.982	1	-2
655.151	1	-2
655.320	1	3
655.490	1	14
655.659	1	3
655.829	1	13
655.998	1	-7
656.168	1	3
656.337	1	3
656.507	1	5
656.676	1	10
656.846	1	6
657.015	1	3
657.184	1	6
657.354	1	7
657.523	1	3
657.693	1	10
657.862	1	6
658.032	1	3
658.201	1	6
658.371	1	7
658.540	1	-7
658.709	1	1
658.879	1	-11
659.048	1	5
659.218	1	-1
659.387	1	0
659.557	1	5
659.726	1	14
659.895	1	4
660.065	1	-11
660.234	1	5
660.404	1	7
660.573	1	12
660.743	1	16
660.912	1	11
661.081	1	9
661.251	1	7
661.420	1	1
661.590	1	-1
661.759	1	6
661.929	1	6
662.098	1	-1
662.267	1	0
662.437	1	8
662.606	1	8
662.776	1	3
662.945	1	4
663.115	1	7
663.284	1	12
663.453	1	1
663.623	1	19
663.792	1	7
663.962	1	5
664.131	1	7
664.300	1	0
664.470	1	8
664.639	1	6
664.809	1	0
664.978	1	5
665.148	1	9
665.317	1	11
665.486	1	12
665.656	1	-7
665.825	1	9
665.995	1	4
666.164	1	6
666.333	1	8
666.503	1	10
666.672	1	8
666.842	1	2
667.011	1	7
667.180	1	2
667.350	1	12
667.519	1	10
667.689	1	-2
667.858	1	8
668.027	1	17
668.197	1	14
668.366	1	13
668.536	1	9
668.705	1	1
668.874	1	13
669.044	1	6
669.213	1	3
669.382	1	2
669.552	1	11
669.721	1	15
669.891	1	0
670.060	1	17
670.229	1	5
670.399	1	6
670.568	1	-1
670.738	1	-1
670.907	1	5
671.076	1	1
671.246	1	8
671.415	1	14
671.584	1	3
671.754	1	1
671.923	1	9
672.093	1	11
672.262	1	7
672.431	1	-1
672.601	1	-4
672.770	1	4
672.939	1	3
673.109	1	9
673.278	1	4
673.448	1	7
673.617	1	-4
673.786	1	9
