325.333	1	13
325.504	1	5
325.675	1	4
325.846	1	-1
326.017	1	15
326.188	1	16
326.359	1	8
326.531	1	2
326.702	1	13
326.873	1	7
327.044	1	1
327.215	1	9
327.386	1	11
327.557	1	4
327.728	1	-1
327.899	1	15
328.070	1	9
328.241	1	10
328.412	1	20
328.583	1	4
328.754	1	15
328.926	1	10
329.097	1	2
329.268	1	8
329.439	1	9
329.610	1	10
329.781	1	6
329.952	1	12
330.123	1	11
330.294	1	5
330.465	1	5
330.636	1	15
330.807	1	12
330.978	1	14
331.149	1	7
331.320	1	8
331.492	1	16
331.663	1	9
331.834	1	12
332.005	1	11
332.176	1	1
332.347	1	15
332.518	1	16
332.689	1	-1
332.860	1	9
333.031	1	8
333.202	1	-6
333.373	1	20
333.544	1	10
333.715	1	13
333.886	1	5
334.057	1	14
334.228	1	10
334.399	1	20
334.570	1	2
334.741	1	13
334.912	1	14
335.084	1	6
335.255	1	4
335.426	1	4
335.597	1	12
335.768	1	23
335.939	1	13
336.110	1	2
336.281	1	10
336.452	1	13
336.623	1	10
336.794	1	14
336.965	1	6
337.136	1	17
337.307	1	11
337.478	1	11
337.649	1	13
337.820	1	11
337.991	1	11
338.162	1	7
338.333	1	8
338.504	1	8
338.675	1	10
338.846	1	14
339.017	1	18
339.188	1	19
339.359	1	21
339.530	1	9
339.701	1	0
339.872	1	13
340.043	1	-3
340.214	1	2
340.385	1	8
340.556	1	25
340.727	1	8
340.898	1	22
341.069	1	6
341.240	1	16
341.411	1	9
341.582	1	7
341.753	1	12
341.924	1	5
342.095	1	4
342.266	1	14
342.437	1	15
342.608	1	24
342.779	1	8
342.950	1	11
343.121	1	21
343.292	1	1
343.463	1	6
343.634	1	10
343.805	1	13
343.976	1	9
344.147	1	19
344.318	1	5
344.489	1	16
344.660	1	17
344.831	1	19
345.002	1	10
345.173	1	4
345.344	1	6
345.515	1	3
345.686	1	14
345.857	1	10
346.028	1	19
346.199	1	6
346.370	1	15
346.541	1	8
346.712	1	7
346.883	1	9
347.054	1	4
347.225	1	13
347.396	1	4
347.567	1	23
347.738	1	4
347.909	1	13
348.080	1	2
348.251	1	14
348.422	1	14
348.593	1	12
348.764	1	12
348.935	1	11
349.106	1	9
349.277	1	14
349.448	1	19
349.619	1	1
349.790	1	14
349.961	1	13
350.132	1	23
350.303	1	8
350.474	1	9
350.645	1	7
350.816	1	0
350.987	1	16
351.157	1	15
351.328	1	26
351.499	1	11
351.670	1	4
351.841	1	13
352.012	1	17
352.183	1	12
352.354	1	-5
352.525	1	18
352.696	1	11
352.867	1	11
353.038	1	2
353.209	1	16
353.380	1	4
353.551	1	0
353.722	1	5
353.893	1	7
354.064	1	9
354.235	1	22
354.406	1	17
354.576	1	11
354.747	1	13
354.918	1	21
355.089	1	16
355.260	1	19
355.431	1	11
355.602	1	8
355.773	1	8
355.944	1	1
356.115	1	26
356.286	1	8
356.457	1	11
356.628	1	4
356.799	1	9
356.970	1	15
357.141	1	14
357.311	1	19
357.482	1	8
357.653	1	21
357.824	1	14
357.995	1	-1
358.166	1	0
358.337	1	8
358.508	1	17
358.679	1	10
358.850	1	14
359.021	1	9
359.192	1	14
359.363	1	15
359.533	1	-2
359.704	1	16
359.875	1	21
360.046	1	15
360.217	1	12
360.388	1	12
360.559	1	4
360.730	1	6
360.901	1	11
361.072	1	10
361.243	1	12
361.414	1	3
361.584	1	-3
361.755	1	-1
361.926	1	18
362.097	1	24
362.268	1	12
362.439	1	14
362.610	1	16
362.781	1	6
362.952	1	12
363.123	1	11
363.293	1	5
363.464	1	14
363.635	1	15
363.806	1	7
363.977	1	16
364.148	1	-3
364.319	1	9
364.490	1	18
364.661	1	14
364.832	1	10
365.002	1	17
365.173	1	8
365.344	1	16
365.515	1	6
365.686	1	13
365.857	1	11
366.028	1	10
366.199	1	11
366.370	1	6
366.540	1	-1
366.711	1	7
366.882	1	3
367.053	1	6
367.224	1	12
367.395	1	9
367.566	1	7
367.737	1	12
367.908	1	7
368.078	1	16
368.249	1	8
368.420	1	10
368.591	1	15
368.762	1	8
368.933	1	-1
369.104	1	18
369.274	1	8
369.445	1	8
369.616	1	21
369.787	1	20
369.958	1	5
370.129	1	1
370.300	1	19
370.471	1	6
370.641	1	18
370.812	1	9
370.983	1	4
371.154	1	4
371.325	1	15
371.496	1	8
371.667	1	12
371.837	1	14
372.008	1	-1
372.179	1	7
372.350	1	4
372.521	1	10
372.692	1	8
372.863	1	2
373.033	1	21
373.204	1	-1
373.375	1	15
373.546	1	27
373.717	1	14
373.888	1	18
374.059	1	10
374.229	1	5
374.400	1	8
374.571	1	9
374.742	1	-1
374.913	1	13
375.084	1	13
375.254	1	16
375.425	1	2
375.596	1	16
375.767	1	10
375.938	1	11
376.109	1	14
376.279	1	0
376.450	1	11
376.621	1	3
376.792	1	7
376.963	1	7
377.134	1	16
377.304	1	16
377.475	1	4
377.646	1	11
377.817	1	10
377.988	1	11
378.159	1	20
378.329	1	18
378.500	1	23
378.671	1	19
378.842	1	-3
379.013	1	15
379.184	1	5
379.354	1	12
379.525	1	13
379.696	1	7
379.867	1	19
380.038	1	24
380.209	1	12
380.379	1	15
380.550	1	15
380.721	1	2
380.892	1	8
381.063	1	12
381.233	1	11
381.404	1	12
381.575	1	9
381.746	1	19
381.917	1	8
382.087	1	22
382.258	1	24
382.429	1	13
382.600	1	21
382.771	1	15
382.941	1	20
383.112	1	4
383.283	1	15
383.454	1	5
383.625	1	3
383.795	1	16
383.966	1	16
384.137	1	18
384.308	1	14
384.479	1	0
384.649	1	15
384.820	1	16
384.991	1	11
385.162	1	9
385.333	1	13
385.503	1	6
385.674	1	-7
385.845	1	19
386.016	1	14
386.187	1	15
386.357	1	18
386.528	1	16
386.699	1	9
386.870	1	20
387.041	1	17
387.211	1	11
387.382	1	9
387.553	1	11
387.724	1	28
387.894	1	18
388.065	1	12
388.236	1	12
388.407	1	22
388.578	1	16
388.748	1	8
388.919	1	18
389.090	1	27
389.261	1	1
389.431	1	12
389.602	1	21
389.773	1	19
389.944	1	21
390.114	1	25
390.285	1	9
390.456	1	10
390.627	1	15
390.798	1	10
390.968	1	28
391.139	1	7
391.310	1	17
391.481	1	19
391.651	1	30
391.822	1	21
391.993	1	15
392.164	1	19
392.334	1	5
392.505	1	11
392.676	1	25
392.847	1	20
393.017	1	22
393.188	1	24
393.359	1	16
393.530	1	12
393.700	1	6
393.871	1	21
394.042	1	16
394.213	1	11
394.383	1	9
394.554	1	20
394.725	1	10
394.896	1	20
395.066	1	18
395.237	1	10
395.408	1	25
395.579	1	5
395.749	1	19
395.920	1	11
396.091	1	13
396.262	1	11
396.432	1	18
396.603	1	16
396.774	1	9
396.945	1	15
397.115	1	15
397.286	1	11
397.457	1	17
397.627	1	15
397.798	1	12
397.969	1	21
398.140	1	14
398.310	1	21
398.481	1	18
398.652	1	14
398.823	1	21
398.993	1	20
399.164	1	16
399.335	1	21
399.505	1	5
399.676	1	24
399.847	1	17
400.018	1	32
400.188	1	16
400.359	1	15
400.530	1	20
400.700	1	12
400.871	1	8
401.042	1	14
401.213	1	13
401.383	1	20
401.554	1	20
401.725	1	26
401.895	1	20
402.066	1	12
402.237	1	27
402.408	1	15
402.578	1	20
402.749	1	20
402.920	1	14
403.090	1	15
403.261	1	27
403.432	1	19
403.603	1	23
403.773	1	20
403.944	1	17
404.115	1	11
404.285	1	19
404.456	1	19
404.627	1	25
404.797	1	20
404.968	1	24
405.139	1	26
405.310	1	26
405.480	1	24
405.651	1	15
405.822	1	24
405.992	1	21
406.163	1	30
406.334	1	22
406.504	1	19
406.675	1	26
406.846	1	23
407.016	1	25
407.187	1	25
407.358	1	24
407.528	1	22
407.699	1	7
407.870	1	29
408.041	1	24
408.211	1	17
408.382	1	22
408.553	1	27
408.723	1	29
408.894	1	15
409.065	1	11
409.235	1	29
409.406	1	16
409.577	1	14
409.747	1	17
409.918	1	25
410.089	1	27
410.259	1	16
410.430	1	28
410.601	1	27
410.771	1	16
410.942	1	20
411.113	1	17
411.283	1	30
411.454	1	20
411.625	1	30
411.795	1	24
411.966	1	35
412.137	1	32
412.307	1	23
412.478	1	22
412.649	1	31
412.819	1	24
412.990	1	25
413.161	1	33
413.331	1	17
413.502	1	27
413.672	1	23
413.843	1	24
414.014	1	25
414.184	1	20
414.355	1	21
414.526	1	22
414.696	1	28
414.867	1	27
415.038	1	26
415.208	1	21
415.379	1	25
415.550	1	21
415.720	1	7
415.891	1	40
416.062	1	21
416.232	1	11
416.403	1	30
416.573	1	26
416.744	1	19
416.915	1	41
417.085	1	29
417.256	1	25
417.427	1	37
417.597	1	32
417.768	1	31
417.939	1	21
418.109	1	28
418.280	1	22
418.450	1	14
418.621	1	32
418.792	1	9
418.962	1	16
419.133	1	20
419.304	1	21
419.474	1	16
419.645	1	28
419.815	1	17
419.986	1	30
420.157	1	18
420.327	1	7
420.498	1	19
420.669	1	27
420.839	1	5
421.010	1	29
421.180	1	19
421.351	1	37
421.522	1	20
421.692	1	19
421.863	1	35
422.033	1	9
422.204	1	22
422.375	1	25
422.545	1	31
422.716	1	12
422.886	1	24
423.057	1	27
423.228	1	17
423.398	1	37
423.569	1	21
423.740	1	17
423.910	1	34
424.081	1	15
424.251	1	15
424.422	1	20
424.593	1	25
424.763	1	35
424.934	1	27
425.104	1	19
425.275	1	46
425.445	1	16
425.616	1	24
425.787	1	33
425.957	1	18
426.128	1	17
426.298	1	40
426.469	1	12
426.640	1	20
426.810	1	34
426.981	1	15
427.151	1	21
427.322	1	28
427.493	1	21
427.663	1	32
427.834	1	33
428.004	1	24
428.175	1	34
428.345	1	29
428.516	1	28
428.687	1	18
428.857	1	17
429.028	1	16
429.198	1	30
429.369	1	28
429.540	1	27
429.710	1	28
429.881	1	20
430.051	1	17
430.222	1	25
430.392	1	28
430.563	1	28
430.734	1	22
430.904	1	29
431.075	1	20
431.245	1	16
431.416	1	26
431.586	1	21
431.757	1	13
431.927	1	36
432.098	1	3
432.269	1	12
432.439	1	29
432.610	1	28
432.780	1	14
432.951	1	21
433.121	1	24
433.292	1	14
433.462	1	12
433.633	1	16
433.804	1	18
433.974	1	20
434.145	1	21
434.315	1	25
434.486	1	32
434.656	1	21
434.827	1	13
434.997	1	27
435.168	1	24
435.339	1	22
435.509	1	27
435.680	1	23
435.850	1	10
436.021	1	32
436.191	1	27
436.362	1	34
436.532	1	15
436.703	1	29
436.873	1	31
437.044	1	14
437.214	1	18
437.385	1	30
437.556	1	24
437.726	1	21
437.897	1	36
438.067	1	15
438.238	1	22
438.408	1	20
438.579	1	22
438.749	1	18
438.920	1	22
439.090	1	18
439.261	1	32
439.431	1	21
439.602	1	17
439.772	1	38
439.943	1	16
440.113	1	34
440.284	1	15
440.455	1	21
440.625	1	31
440.796	1	28
440.966	1	15
441.137	1	13
441.307	1	20
441.478	1	25
441.648	1	16
441.819	1	20
441.989	1	24
442.160	1	11
442.330	1	26
442.501	1	23
442.671	1	14
442.842	1	20
443.012	1	17
443.183	1	22
443.353	1	26
443.524	1	7
443.694	1	20
443.865	1	28
444.035	1	11
444.206	1	14
444.376	1	26
444.547	1	32
444.717	1	11
444.888	1	29
445.058	1	21
445.229	1	8
445.399	1	24
445.570	1	15
445.740	1	18
445.911	1	33
446.081	1	25
446.252	1	18
446.422	1	10
446.593	1	21
446.763	1	10
446.934	1	20
447.104	1	14
447.275	1	29
447.445	1	10
447.616	1	15
447.786	1	21
447.957	1	24
448.127	1	24
448.298	1	24
448.468	1	11
448.639	1	15
448.809	1	20
448.979	1	15
449.150	1	14
449.320	1	22
449.491	1	17
449.661	1	27
449.832	1	32
450.002	1	20
450.173	1	11
450.343	1	25
450.514	1	20
450.684	1	21
450.855	1	21
451.025	1	10
451.196	1	16
451.366	1	20
451.537	1	20
451.707	1	16
451.878	1	5
452.048	1	24
452.218	1	23
452.389	1	18
452.559	1	16
452.730	1	13
452.900	1	18
453.071	1	20
453.241	1	24
453.412	1	16
453.582	1	11
453.753	1	18
453.923	1	24
454.093	1	22
454.264	1	23
454.434	1	24
454.605	1	31
454.775	1	17
454.946	1	27
455.116	1	23
455.287	1	11
455.457	1	10
455.628	1	19
455.798	1	27
455.968	1	18
456.139	1	6
456.309	1	15
456.480	1	20
456.650	1	26
456.821	1	30
456.991	1	17
457.161	1	20
457.332	1	14
457.502	1	15
457.673	1	17
457.843	1	17
458.014	1	20
458.184	1	21
458.355	1	13
458.525	1	11
458.695	1	14
458.866	1	16
459.036	1	18
459.207	1	23
459.377	1	26
459.548	1	10
459.718	1	17
459.888	1	23
460.059	1	19
460.229	1	9
460.400	1	26
460.570	1	18
460.740	1	18
460.911	1	13
461.081	1	18
461.252	1	27
461.422	1	12
461.593	1	0
461.763	1	25
461.933	1	16
462.104	1	15
462.274	1	17
462.445	1	7
462.615	1	15
462.785	1	11
462.956	1	14
463.126	1	2
463.297	1	19
463.467	1	24
463.638	1	5
463.808	1	3
463.978	1	14
464.149	1	12
464.319	1	6
464.490	1	20
464.660	1	12
464.830	1	7
465.001	1	14
465.171	1	11
465.342	1	18
465.512	1	14
465.682	1	19
465.853	1	13
466.023	1	18
466.194	1	10
466.364	1	20
466.534	1	10
466.705	1	16
466.875	1	16
467.045	1	13
467.216	1	15
467.386	1	19
467.557	1	13
467.727	1	7
467.897	1	1
468.068	1	22
468.238	1	12
468.409	1	1
468.579	1	10
468.749	1	17
468.920	1	9
469.090	1	21
469.260	1	4
469.431	1	19
469.601	1	23
469.772	1	10
469.942	1	23
470.112	1	12
470.283	1	25
470.453	1	9
470.623	1	18
470.794	1	14
470.964	1	18
471.135	1	20
471.305	1	17
471.475	1	4
471.646	1	7
471.816	1	6
471.986	1	15
472.157	1	11
472.327	1	13
472.497	1	0
472.668	1	9
472.838	1	5
473.009	1	28
473.179	1	13
473.349	1	26
473.520	1	10
473.690	1	15
473.860	1	12
474.031	1	0
474.201	1	13
474.371	1	11
474.542	1	24
474.712	1	8
474.882	1	28
475.053	1	14
475.223	1	18
475.394	1	6
475.564	1	8
475.734	1	7
475.905	1	7
476.075	1	9
476.245	1	11
476.416	1	8
476.586	1	15
476.756	1	13
476.927	1	14
477.097	1	16
477.267	1	7
477.438	1	-4
477.608	1	7
477.778	1	21
477.949	1	12
478.119	1	14
478.289	1	17
478.460	1	18
478.630	1	12
478.800	1	5
478.971	1	25
479.141	1	16
479.311	1	8
479.482	1	2
479.652	1	11
479.822	1	20
479.993	1	17
480.163	1	1
480.333	1	9
480.504	1	17
480.674	1	6
480.844	1	11
481.015	1	18
481.185	1	15
481.355	1	6
481.525	1	7
481.696	1	13
481.866	1	7
482.036	1	7
482.207	1	9
482.377	1	13
482.547	1	7
482.718	1	11
482.888	1	8
483.058	1	13
483.229	1	9
483.399	1	8
483.569	1	9
483.740	1	5
483.910	1	5
484.080	1	11
484.250	1	17
484.421	1	7
484.591	1	10
484.761	1	13
484.932	1	29
485.102	1	13
485.272	1	13
485.443	1	5
485.613	1	11
485.783	1	12
485.953	1	-4
486.124	1	-2
486.294	1	14
486.464	1	14
486.635	1	16
486.805	1	2
486.975	1	5
487.146	1	4
487.316	1	23
487.486	1	9
487.656	1	3
487.827	1	12
487.997	1	18
488.167	1	10
488.338	1	9
488.508	1	12
488.678	1	10
488.848	1	12
489.019	1	13
489.189	1	7
489.359	1	6
489.529	1	-3
489.700	1	2
489.870	1	12
490.040	1	-2
490.211	1	12
490.381	1	3
490.551	1	-5
490.721	1	3
490.892	1	18
491.062	1	12
491.232	1	9
491.402	1	12
491.573	1	3
491.743	1	7
491.913	1	12
492.084	1	9
492.254	1	12
492.424	1	5
492.594	1	8
492.765	1	7
492.935	1	14
493.105	1	17
493.275	1	12
493.446	1	18
493.616	1	3
493.786	1	15
493.956	1	0
494.127	1	1
494.297	1	12
494.467	1	16
494.637	1	20
494.808	1	-1
494.978	1	4
495.148	1	13
495.318	1	1
495.489	1	10
495.659	1	11
495.829	1	11
495.999	1	9
496.170	1	2
496.340	1	13
496.510	1	13
496.680	1	5
496.851	1	4
497.021	1	6
497.191	1	4
497.361	1	6
497.532	1	8
497.702	1	12
497.872	1	-3
498.042	1	5
498.213	1	7
498.383	1	12
498.553	1	1
498.723	1	-1
498.894	1	23
499.064	1	10
499.234	1	5
499.404	1	10
499.574	1	4
499.745	1	13
499.915	1	7
500.085	1	1
500.255	1	15
500.426	1	4
500.596	1	8
500.766	1	1
500.936	1	4
501.106	1	6
501.277	1	15
501.447	1	3
501.617	1	-1
501.787	1	15
501.958	1	9
502.128	1	14
502.298	1	6
502.468	1	4
502.638	1	3
502.809	1	3
502.979	1	4
503.149	1	5
503.319	1	3
503.489	1	-3
503.660	1	8
503.830	1	12
504.000	1	4
504.170	1	3
504.340	1	7
504.511	1	20
504.681	1	19
504.851	1	7
505.021	1	10
505.192	1	5
505.362	1	9
505.532	1	-7
505.702	1	2
505.872	1	19
506.043	1	0
506.213	1	8
506.383	1	20
506.553	1	9
506.723	1	11
506.893	1	8
507.064	1	10
507.234	1	3
507.404	1	10
507.574	1	7
507.744	1	-3
507.915	1	7
508.085	1	1
508.255	1	11
508.425	1	4
508.595	1	4
508.766	1	-4
508.936	1	13
509.106	1	10
509.276	1	9
509.446	1	10
509.616	1	7
509.787	1	12
509.957	1	1
510.127	1	1
510.297	1	8
510.467	1	10
510.638	1	6
510.808	1	2
510.978	1	7
511.148	1	17
511.318	1	10
511.488	1	6
511.659	1	11
511.829	1	4
511.999	1	5
512.169	1	0
512.339	1	2
512.509	1	11
512.680	1	2
512.850	1	8
513.020	1	10
513.190	1	13
513.360	1	-1
513.530	1	12
513.700	1	6
513.871	1	10
514.041	1	0
514.211	1	3
514.381	1	19
514.551	1	2
514.721	1	3
514.892	1	5
515.062	1	13
515.232	1	5
515.402	1	8
515.572	1	4
515.742	1	12
515.912	1	1
516.083	1	0
516.253	1	7
516.423	1	3
516.593	1	9
516.763	1	13
516.933	1	9
517.104	1	-4
517.274	1	15
517.444	1	1
517.614	1	6
517.784	1	6
517.954	1	10
518.124	1	7
518.294	1	2
518.465	1	4
518.635	1	5
518.805	1	5
518.975	1	-2
519.145	1	5
519.315	1	-3
519.485	1	-1
519.656	1	10
519.826	1	2
519.996	1	13
520.166	1	-1
520.336	1	-3
520.506	1	-4
520.676	1	15
520.846	1	3
521.017	1	10
521.187	1	4
521.357	1	10
521.527	1	7
521.697	1	12
521.867	1	-2
522.037	1	7
522.207	1	-2
522.377	1	9
522.548	1	9
522.718	1	3
522.888	1	12
523.058	1	7
523.228	1	-5
523.398	1	12
523.568	1	6
523.738	1	4
523.909	1	10
524.079	1	1
524.249	1	6
524.419	1	6
524.589	1	6
524.759	1	8
524.929	1	-2
525.099	1	0
525.269	1	-1
525.439	1	4
525.610	1	-3
525.780	1	2
525.950	1	19
526.120	1	-3
526.290	1	5
526.460	1	5
526.630	1	13
526.800	1	-1
526.970	1	2
527.140	1	8
527.311	1	10
527.481	1	6
527.651	1	12
527.821	1	-2
527.991	1	-1
528.161	1	0
528.331	1	6
528.501	1	10
528.671	1	8
528.841	1	15
529.011	1	8
529.181	1	9
529.352	1	11
529.522	1	10
529.692	1	-8
529.862	1	3
530.032	1	7
530.202	1	8
530.372	1	14
530.542	1	-2
530.712	1	11
530.882	1	6
531.052	1	7
531.222	1	8
531.392	1	2
531.563	1	7
531.733	1	0
531.903	1	6
532.073	1	-1
532.243	1	5
532.413	1	-4
532.583	1	7
532.753	1	7
532.923	1	5
533.093	1	5
533.263	1	10
533.433	1	2
533.603	1	-4
533.773	1	-7
533.943	1	1
534.113	1	14
534.284	1	1
534.454	1	-1
534.624	1	12
534.794	1	12
534.964	1	3
535.134	1	8
535.304	1	9
535.474	1	7
535.644	1	13
535.814	1	7
535.984	1	3
536.154	1	6
536.324	1	4
536.494	1	-1
536.664	1	5
536.834	1	8
537.004	1	6
537.174	1	3
537.344	1	9
537.514	1	6
537.685	1	-1
537.855	1	5
538.025	1	9
538.195	1	11
538.365	1	9
538.535	1	-3
538.705	1	0
538.875	1	3
539.045	1	9
539.215	1	7
539.385	1	-2
539.555	1	2
539.725	1	-3
539.895	1	2
540.065	1	0
540.235	1	4
540.405	1	-3
540.575	1	9
540.745	1	-1
540.915	1	1
541.085	1	-7
541.255	1	16
541.425	1	0
541.595	1	15
541.765	1	4
541.935	1	6
542.105	1	-3
542.275	1	0
542.445	1	5
542.615	1	4
542.785	1	-1
542.955	1	-1
543.125	1	10
543.295	1	9
543.465	1	8
543.635	1	4
543.805	1	-7
543.975	1	-2
544.145	1	10
544.315	1	-4
544.485	1	9
544.655	1	5
544.825	1	-2
544.995	1	9
545.165	1	7
545.335	1	-7
545.505	1	6
545.675	1	-10
545.845	1	13
546.015	1	2
546.185	1	-1
546.355	1	8
546.525	1	-2
546.695	1	-2
546.865	1	9
547.035	1	-1
547.205	1	9
547.375	1	8
547.545	1	-4
547.715	1	2
547.885	1	-2
548.055	1	-2
548.225	1	4
548.395	1	1
548.565	1	10
548.735	1	-3
548.905	1	1
549.075	1	6
549.245	1	8
549.415	1	6
549.585	1	3
549.755	1	8
549.925	1	1
550.095	1	-3
550.265	1	9
550.435	1	2
550.605	1	8
550.775	1	9
550.945	1	3
551.115	1	1
551.285	1	6
551.455	1	-3
551.625	1	-5
551.795	1	-6
551.965	1	2
552.135	1	0
552.305	1	3
552.475	1	-4
552.645	1	15
552.815	1	1
552.985	1	1
553.155	1	0
553.325	1	-1
553.495	1	-6
553.665	1	0
553.835	1	10
554.004	1	12
554.174	1	-1
554.344	1	5
554.514	1	0
554.684	1	-5
554.854	1	-3
555.024	1	5
555.194	1	-9
555.364	1	10
555.534	1	-1
555.704	1	-1
555.874	1	-5
556.044	1	-2
556.214	1	8
556.384	1	9
556.554	1	-6
556.724	1	6
556.894	1	-3
557.064	1	7
557.234	1	-1
557.404	1	12
557.573	1	2
557.743	1	3
557.913	1	4
558.083	1	1
558.253	1	3
558.423	1	7
558.593	1	1
558.763	1	9
558.933	1	-2
559.103	1	10
559.273	1	3
559.443	1	6
559.613	1	10
559.783	1	-3
559.953	1	-1
560.122	1	4
560.292	1	5
560.462	1	2
560.632	1	0
560.802	1	14
560.972	1	1
561.142	1	0
561.312	1	5
561.482	1	1
561.652	1	-1
561.822	1	-4
561.992	1	-8
562.162	1	7
562.331	1	7
562.501	1	5
562.671	1	2
562.841	1	-13
563.011	1	11
563.181	1	8
563.351	1	7
563.521	1	9
563.691	1	8
563.861	1	0
564.031	1	4
564.201	1	6
564.370	1	-2
564.540	1	7
564.710	1	-8
564.880	1	8
565.050	1	6
565.220	1	-12
565.390	1	2
565.560	1	3
565.730	1	5
565.900	1	-4
566.069	1	3
566.239	1	-1
566.409	1	-7
566.579	1	-2
566.749	1	-7
566.919	1	9
567.089	1	7
567.259	1	9
567.429	1	-2
567.599	1	-7
567.768	1	3
567.938	1	0
568.108	1	5
568.278	1	4
568.448	1	1
568.618	1	-1
568.788	1	6
568.958	1	-2
569.128	1	5
569.297	1	4
569.467	1	-3
569.637	1	-2
569.807	1	8
569.977	1	0
570.147	1	5
570.317	1	-6
570.487	1	-5
570.656	1	-8
570.826	1	4
570.996	1	-11
571.166	1	8
571.336	1	-4
571.506	1	0
571.676	1	13
571.846	1	6
572.015	1	4
572.185	1	1
572.355	1	-7
572.525	1	-14
572.695	1	2
572.865	1	-10
573.035	1	7
573.205	1	2
573.374	1	0
573.544	1	8
573.714	1	4
573.884	1	4
574.054	1	2
574.224	1	2
574.394	1	-6
574.563	1	4
574.733	1	7
574.903	1	8
575.073	1	4
575.243	1	1
575.413	1	2
575.583	1	5
575.752	1	6
575.922	1	-9
576.092	1	1
576.262	1	-11
576.432	1	8
576.602	1	-5
576.772	1	-5
576.941	1	-4
577.111	1	-2
577.281	1	-6
577.451	1	1
577.621	1	1
577.791	1	0
577.960	1	8
578.130	1	2
578.300	1	-8
578.470	1	-4
578.640	1	13
578.810	1	-2
578.979	1	6
579.149	1	-1
579.319	1	1
579.489	1	-8
579.659	1	-2
579.829	1	2
579.998	1	-4
580.168	1	8
580.338	1	8
580.508	1	8
580.678	1	8
580.848	1	5
581.017	1	11
581.187	1	-1
581.357	1	-3
581.527	1	3
581.697	1	1
581.867	1	8
582.036	1	3
582.206	1	10
582.376	1	5
582.546	1	-6
582.716	1	4
582.885	1	-14
583.055	1	0
583.225	1	-6
583.395	1	10
583.565	1	2
583.735	1	11
583.904	1	8
584.074	1	8
584.244	1	-12
584.414	1	-1
584.584	1	0
584.753	1	5
584.923	1	-7
585.093	1	-1
585.263	1	5
585.433	1	-3
585.602	1	2
585.772	1	-5
585.942	1	7
586.112	1	3
586.282	1	3
586.451	1	13
586.621	1	2
586.791	1	5
586.961	1	5
587.131	1	9
587.300	1	5
587.470	1	-13
587.640	1	12
587.810	1	12
587.980	1	-4
588.149	1	-2
588.319	1	3
588.489	1	6
588.659	1	-1
588.829	1	10
588.998	1	0
589.168	1	6
589.338	1	0
589.508	1	6
589.677	1	13
589.847	1	0
590.017	1	-3
590.187	1	3
590.357	1	-3
590.526	1	-11
590.696	1	-2
590.866	1	7
591.036	1	4
591.205	1	4
591.375	1	-1
591.545	1	2
591.715	1	1
591.885	1	7
592.054	1	-5
592.224	1	15
592.394	1	-11
592.564	1	10
592.733	1	-8
592.903	1	7
593.073	1	-2
593.243	1	15
593.412	1	0
593.582	1	1
593.752	1	-4
593.922	1	0
594.091	1	4
594.261	1	1
594.431	1	14
594.601	1	3
594.771	1	7
594.940	1	7
595.110	1	-3
595.280	1	-5
595.450	1	5
595.619	1	9
595.789	1	4
595.959	1	7
596.129	1	-3
596.298	1	7
596.468	1	3
596.638	1	15
596.808	1	1
596.977	1	0
597.147	1	-8
597.317	1	-9
597.487	1	9
597.656	1	6
597.826	1	11
597.996	1	4
598.166	1	4
598.335	1	11
598.505	1	12
598.675	1	-2
598.844	1	-10
599.014	1	3
599.184	1	1
599.354	1	2
599.523	1	4
599.693	1	11
599.863	1	13
600.033	1	-2
600.202	1	14
600.372	1	-1
600.542	1	7
600.712	1	-8
600.881	1	1
601.051	1	-5
601.221	1	6
601.390	1	-13
601.560	1	14
601.730	1	6
601.900	1	1
602.069	1	0
602.239	1	2
602.409	1	6
602.578	1	7
602.748	1	4
602.918	1	6
603.088	1	6
603.257	1	6
603.427	1	-3
603.597	1	7
603.767	1	-1
603.936	1	-4
604.106	1	2
604.276	1	11
604.445	1	12
604.615	1	6
604.785	1	12
604.954	1	14
605.124	1	-6
605.294	1	10
605.464	1	6
605.633	1	-3
605.803	1	5
605.973	1	7
606.142	1	6
606.312	1	2
606.482	1	10
606.652	1	0
606.821	1	6
606.991	1	2
607.161	1	0
607.330	1	-7
607.500	1	13
607.670	1	13
607.839	1	13
608.009	1	3
608.179	1	9
608.348	1	13
608.518	1	6
608.688	1	1
608.858	1	9
609.027	1	7
609.197	1	-13
609.367	1	9
609.536	1	7
609.706	1	5
609.876	1	9
610.045	1	2
610.215	1	9
610.385	1	1
610.554	1	7
610.724	1	-1
610.894	1	6
611.063	1	-5
611.233	1	5
611.403	1	14
611.572	1	7
611.742	1	4
611.912	1	0
612.081	1	-6
612.251	1	8
612.421	1	8
612.590	1	0
612.760	1	8
612.930	1	-3
613.099	1	6
613.269	1	6
613.439	1	-6
613.608	1	9
613.778	1	-4
613.948	1	4
614.117	1	4
614.287	1	5
614.457	1	-4
614.626	1	6
614.796	1	5
614.966	1	-2
615.135	1	14
615.305	1	6
615.475	1	2
615.644	1	7
615.814	1	-9
615.984	1	7
616.153	1	13
616.323	1	15
616.493	1	17
616.662	1	11
616.832	1	6
617.002	1	1
617.171	1	-5
617.341	1	3
617.511	1	5
617.680	1	9
617.850	1	0
618.019	1	7
618.189	1	22
618.359	1	6
618.528	1	-2
618.698	1	4
618.868	1	4
619.037	1	15
619.207	1	7
619.377	1	-5
619.546	1	3
619.716	1	9
619.885	1	6
620.055	1	7
620.225	1	9
620.394	1	4
620.564	1	10
620.734	1	8
620.903	1	1
621.073	1	-3
621.242	1	4
621.412	1	7
621.582	1	7
621.751	1	16
621.921	1	8
622.091	1	10
622.260	1	5
622.430	1	7
622.599	1	-8
622.769	1	7
622.939	1	9
623.108	1	10
623.278	1	-1
623.448	1	6
623.617	1	7
623.787	1	5
623.956	1	7
624.126	1	13
624.296	1	8
624.465	1	2
624.635	1	12
624.804	1	3
624.974	1	8
625.144	1	6
625.313	1	-1
625.483	1	21
625.652	1	13
625.822	1	2
625.992	1	10
626.161	1	0
626.331	1	0
626.501	1	4
626.670	1	6
626.840	1	17
627.009	1	-2
627.179	1	4
627.348	1	9
627.518	1	10
627.688	1	-1
627.857	1	14
628.027	1	-2
628.196	1	6
628.366	1	-6
628.536	1	3
628.705	1	12
628.875	1	17
629.044	1	8
629.214	1	5
629.384	1	2
629.553	1	12
629.723	1	0
629.892	1	22
630.062	1	2
630.232	1	-1
630.401	1	15
630.571	1	7
630.740	1	12
630.910	1	10
631.079	1	5
631.249	1	6
631.419	1	-3
631.588	1	-6
631.758	1	6
631.927	1	9
632.097	1	10
632.266	1	5
632.436	1	13
632.606	1	-2
632.775	1	13
632.945	1	19
633.114	1	0
633.284	1	4
633.453	1	8
633.623	1	11
633.793	1	8
633.962	1	3
634.132	1	7
634.301	1	5
634.471	1	5
634.640	1	10
634.810	1	7
634.979	1	5
635.149	1	5
635.319	1	18
635.488	1	10
635.658	1	14
635.827	1	9
635.997	1	7
636.166	1	2
636.336	1	3
636.505	1	13
636.675	1	12
636.845	1	3
637.014	1	5
637.184	1	-3
637.353	1	3
637.523	1	6
637.692	1	13
637.862	1	19
638.031	1	13
638.201	1	12
638.370	1	4
638.540	1	7
638.710	1	13
638.879	1	3
639.049	1	7
639.218	1	15
639.388	1	11
639.557	1	12
639.727	1	1
639.896	1	4
640.066	1	12
640.235	1	13
640.405	1	3
640.574	1	11
640.744	1	12
640.914	1	6
641.083	1	5
641.253	1	11
641.422	1	7
641.592	1	9
641.761	1	12
641.931	1	-2
642.100	1	8
642.270	1	-4
642.439	1	4
642.609	1	5
642.778	1	1
642.948	1	13
643.117	1	14
643.287	1	2
643.456	1	18
643.626	1	20
643.795	1	4
643.965	1	10
644.134	1	9
644.304	1	11
644.473	1	13
644.643	1	0
644.812	1	19
644.982	1	6
645.151	1	22
645.321	1	4
645.490	1	0
645.660	1	-2
645.829	1	6
645.999	1	13
646.168	1	-8
646.338	1	8
646.507	1	1
646.677	1	8
646.846	1	6
647.016	1	25
647.185	1	-1
647.355	1	13
647.524	1	12
647.694	1	6
647.863	1	7
648.033	1	-1
648.202	1	7
648.372	1	11
648.541	1	-1
648.711	1	8
648.880	1	3
649.050	1	9
649.219	1	0
649.389	1	15
649.558	1	6
649.728	1	3
649.897	1	9
650.067	1	10
650.236	1	15
650.406	1	0
650.575	1	17
650.745	1	1
650.914	1	10
651.084	1	4
651.253	1	19
651.423	1	6
651.592	1	10
651.762	1	8
651.931	1	3
652.101	1	4
652.270	1	7
652.440	1	6
652.609	1	2
652.778	1	2
652.948	1	11
653.117	1	2
653.287	1	14
653.456	1	11
653.626	1	3
653.795	1	10
653.965	1	1
654.134	1	12
654.304	1	9
654.473	1	7
654.643	1	-2
654.812	1	4
654.982	1	4
655.151	1	7
655.320	1	5
655.490	1	12
655.659	1	8
655.829	1	19
655.998	1	-3
656.168	1	8
656.337	1	13
656.507	1	0
656.676	1	4
656.846	1	0
657.015	1	9
657.184	1	1
657.354	1	5
657.523	1	7
657.693	1	5
657.862	1	7
658.032	1	4
658.201	1	5
658.371	1	1
658.540	1	-1
658.709	1	3
658.879	1	-1
659.048	1	8
659.218	1	16
659.387	1	2
659.557	1	3
659.726	1	14
659.895	1	1
660.065	1	-4
660.234	1	13
660.404	1	15
660.573	1	4
660.743	1	11
660.912	1	19
661.081	1	24
661.251	1	8
661.420	1	-2
661.590	1	7
661.759	1	3
661.929	1	13
662.098	1	4
662.267	1	7
662.437	1	0
662.606	1	8
662.776	1	2
662.945	1	2
663.115	1	3
663.284	1	6
663.453	1	8
663.623	1	13
663.792	1	12
663.962	1	7
664.131	1	7
664.300	1	5
664.470	1	6
664.639	1	7
664.809	1	5
664.978	1	1
665.148	1	6
665.317	1	10
665.486	1	14
665.656	1	-4
665.825	1	10
665.995	1	3
666.164	1	3
666.333	1	7
666.503	1	3
666.672	1	10
666.842	1	-8
667.011	1	7
667.180	1	14
667.350	1	11
667.519	1	5
667.689	1	6
667.858	1	8
668.027	1	21
668.197	1	13
668.366	1	8
668.536	1	6
668.705	1	10
668.874	1	14
669.044	1	8
669.213	1	8
669.382	1	-1
669.552	1	15
669.721	1	10
669.891	1	9
670.060	1	5
670.229	1	8
670.399	1	10
670.568	1	-1
670.738	1	-8
670.907	1	8
671.076	1	2
671.246	1	9
671.415	1	15
671.584	1	6
671.754	1	13
671.923	1	11
672.093	1	16
672.262	1	13
672.431	1	0
672.601	1	7
672.770	1	4
672.939	1	4
673.109	1	-1
673.278	1	10
673.448	1	2
673.617	1	-2
673.786	1	4
