325.333	1	11
325.504	1	9
325.675	1	6
325.846	1	12
326.017	1	15
326.188	1	11
326.359	1	12
326.531	1	8
326.702	1	7
326.873	1	8
327.044	1	6
327.215	1	11
327.386	1	9
327.557	1	11
327.728	1	10
327.899	1	13
328.070	1	8
328.241	1	11
328.412	1	7
328.583	1	9
328.754	1	2
328.926	1	0
329.097	1	0
329.268	1	8
329.439	1	7
329.610	1	15
329.781	1	10
329.952	1	14
330.123	1	8
330.294	1	4
330.465	1	9
330.636	1	7
330.807	1	10
330.978	1	16
331.149	1	14
331.320	1	12
331.492	1	17
331.663	1	11
331.834	1	18
332.005	1	4
332.176	1	0
332.347	1	23
332.518	1	12
332.689	1	5
332.860	1	9
333.031	1	6
333.202	1	2
333.373	1	15
333.544	1	11
333.715	1	13
333.886	1	19
334.057	1	11
334.228	1	13
334.399	1	17
334.570	1	13
334.741	1	13
334.912	1	16
335.084	1	9
335.255	1	15
335.426	1	7
335.597	1	9
335.768	1	13
335.939	1	8
336.110	1	8
336.281	1	12
336.452	1	18
336.623	1	4
336.794	1	17
336.965	1	6
337.136	1	11
337.307	1	14
337.478	1	6
337.649	1	14
337.820	1	4
337.991	1	0
338.162	1	7
338.333	1	16
338.504	1	8
338.675	1	16
338.846	1	14
339.017	1	19
339.188	1	6
339.359	1	8
339.530	1	12
339.701	1	5
339.872	1	19
340.043	1	0
340.214	1	7
340.385	1	9
340.556	1	13
340.727	1	15
340.898	1	13
341.069	1	13
341.240	1	7
341.411	1	6
341.582	1	10
341.753	1	7
341.924	1	9
342.095	1	18
342.266	1	15
342.437	1	5
342.608	1	22
342.779	1	16
342.950	1	11
343.121	1	19
343.292	1	9
343.463	1	16
343.634	1	11
343.805	1	11
343.976	1	18
344.147	1	13
344.318	1	10
344.489	1	17
344.660	1	22
344.831	1	22
345.002	1	23
345.173	1	4
345.344	1	11
345.515	1	1
345.686	1	18
345.857	1	7
346.028	1	2
346.199	1	6
346.370	1	13
346.541	1	10
346.712	1	13
346.883	1	16
347.054	1	4
347.225	1	16
347.396	1	0
347.567	1	17
347.738	1	12
347.909	1	10
348.080	1	14
348.251	1	8
348.422	1	18
348.593	1	12
348.764	1	13
348.935	1	12
349.106	1	14
349.277	1	9
349.448	1	14
349.619	1	12
349.790	1	22
349.961	1	14
350.132	1	26
350.303	1	12
350.474	1	5
350.645	1	21
350.816	1	1
350.987	1	17
351.157	1	9
351.328	1	18
351.499	1	19
351.670	1	12
351.841	1	14
352.012	1	15
352.183	1	11
352.354	1	-3
352.525	1	10
352.696	1	23
352.867	1	8
353.038	1	16
353.209	1	22
353.380	1	7
353.551	1	8
353.722	1	9
353.893	1	10
354.064	1	19
354.235	1	17
354.406	1	9
354.576	1	17
354.747	1	13
354.918	1	19
355.089	1	13
355.260	1	22
355.431	1	10
355.602	1	13
355.773	1	19
355.944	1	-3
356.115	1	19
356.286	1	18
356.457	1	8
356.628	1	7
356.799	1	17
356.970	1	16
357.141	1	3
357.311	1	18
357.482	1	14
357.653	1	9
357.824	1	18
357.995	1	8
358.166	1	11
358.337	1	19
358.508	1	8
358.679	1	26
358.850	1	15
359.021	1	13
359.192	1	14
359.363	1	8
359.533	1	1
359.704	1	13
359.875	1	15
360.046	1	10
360.217	1	5
360.388	1	11
360.559	1	27
360.730	1	5
360.901	1	4
361.072	1	13
361.243	1	9
361.414	1	1
361.584	1	3
361.755	1	10
361.926	1	14
362.097	1	12
362.268	1	8
362.439	1	10
362.610	1	15
362.781	1	6
362.952	1	14
363.123	1	9
363.293	1	9
363.464	1	5
363.635	1	15
363.806	1	11
363.977	1	2
364.148	1	10
364.319	1	14
364.490	1	19
364.661	1	15
364.832	1	22
365.002	1	16
365.173	1	4
365.344	1	23
365.515	1	8
365.686	1	-3
365.857	1	14
366.028	1	5
366.199	1	16
366.370	1	16
366.540	1	19
366.711	1	5
366.882	1	13
367.053	1	-1
367.224	1	13
367.395	1	10
367.566	1	-1
367.737	1	14
367.908	1	12
368.078	1	21
368.249	1	12
368.420	1	16
368.591	1	16
368.762	1	0
368.933	1	-2
369.104	1	30
369.274	1	6
369.445	1	16
369.616	1	14
369.787	1	14
369.958	1	15
370.129	1	-1
370.300	1	10
370.471	1	10
370.641	1	13
370.812	1	11
370.983	1	8
371.154	1	7
371.325	1	4
371.496	1	19
371.667	1	17
371.837	1	26
372.008	1	-4
372.179	1	2
372.350	1	6
372.521	1	9
372.692	1	8
372.863	1	12
373.033	1	15
373.204	1	4
373.375	1	15
373.546	1	25
373.717	1	4
373.888	1	25
374.059	1	16
374.229	1	2
374.400	1	0
374.571	1	10
374.742	1	9
374.913	1	17
375.084	1	18
375.254	1	8
375.425	1	20
375.596	1	19
375.767	1	15
375.938	1	9
376.109	1	16
376.279	1	5
376.450	1	10
376.621	1	17
376.792	1	13
376.963	1	10
377.134	1	17
377.304	1	21
377.475	1	13
377.646	1	13
377.817	1	-1
377.988	1	11
378.159	1	14
378.329	1	15
378.500	1	23
378.671	1	17
378.842	1	17
379.013	1	7
379.184	1	6
379.354	1	1
379.525	1	10
379.696	1	15
379.867	1	16
380.038	1	19
380.209	1	14
380.379	1	22
380.550	1	25
380.721	1	-2
380.892	1	16
381.063	1	14
381.233	1	14
381.404	1	14
381.575	1	16
381.746	1	25
381.917	1	15
382.087	1	18
382.258	1	28
382.429	1	14
382.600	1	14
382.771	1	14
382.941	1	15
383.112	1	6
383.283	1	29
383.454	1	5
383.625	1	4
383.795	1	20
383.966	1	10
384.137	1	12
384.308	1	0
384.479	1	12
384.649	1	10
384.820	1	17
384.991	1	13
385.162	1	16
385.333	1	9
385.503	1	16
385.674	1	-1
385.845	1	14
386.016	1	13
386.187	1	10
386.357	1	14
386.528	1	2
386.699	1	16
386.870	1	13
387.041	1	28
387.211	1	9
387.382	1	11
387.553	1	19
387.724	1	30
387.894	1	11
388.065	1	9
388.236	1	12
388.407	1	15
388.578	1	18
388.748	1	11
388.919	1	11
389.090	1	27
389.261	1	14
389.431	1	19
389.602	1	22
389.773	1	20
389.944	1	25
390.114	1	16
390.285	1	15
390.456	1	11
390.627	1	22
390.798	1	17
390.968	1	27
391.139	1	15
391.310	1	19
391.481	1	19
391.651	1	20
391.822	1	19
391.993	1	14
392.164	1	32
392.334	1	8
392.505	1	15
392.676	1	28
392.847	1	21
393.017	1	22
393.188	1	21
393.359	1	12
393.530	1	16
393.700	1	10
393.871	1	12
394.042	1	19
394.213	1	15
394.383	1	26
394.554	1	19
394.725	1	16
394.896	1	30
395.066	1	14
395.237	1	24
395.408	1	25
395.579	1	10
395.749	1	14
395.920	1	16
396.091	1	28
396.262	1	7
396.432	1	23
396.603	1	14
396.774	1	13
396.945	1	21
397.115	1	14
397.286	1	22
397.457	1	14
397.627	1	13
397.798	1	15
397.969	1	12
398.140	1	20
398.310	1	26
398.481	1	16
398.652	1	8
398.823	1	22
398.993	1	13
399.164	1	12
399.335	1	15
399.505	1	12
399.676	1	8
399.847	1	19
400.018	1	29
400.188	1	16
400.359	1	11
400.530	1	21
400.700	1	22
400.871	1	31
401.042	1	19
401.213	1	9
401.383	1	26
401.554	1	21
401.725	1	19
401.895	1	17
402.066	1	20
402.237	1	26
402.408	1	26
402.578	1	12
402.749	1	20
402.920	1	8
403.090	1	14
403.261	1	32
403.432	1	24
403.603	1	20
403.773	1	35
403.944	1	21
404.115	1	11
404.285	1	35
404.456	1	18
404.627	1	14
404.797	1	31
404.968	1	16
405.139	1	14
405.310	1	34
405.480	1	25
405.651	1	14
405.822	1	23
405.992	1	16
406.163	1	28
406.334	1	25
406.504	1	25
406.675	1	36
406.846	1	22
407.016	1	29
407.187	1	25
407.358	1	26
407.528	1	29
407.699	1	12
407.870	1	26
408.041	1	33
408.211	1	14
408.382	1	22
408.553	1	22
408.723	1	20
408.894	1	16
409.065	1	16
409.235	1	22
409.406	1	20
409.577	1	18
409.747	1	10
409.918	1	17
410.089	1	26
410.259	1	16
410.430	1	24
410.601	1	21
410.771	1	25
410.942	1	29
411.113	1	24
411.283	1	27
411.454	1	35
411.625	1	18
411.795	1	11
411.966	1	42
412.137	1	32
412.307	1	25
412.478	1	35
412.649	1	30
412.819	1	24
412.990	1	29
413.161	1	34
413.331	1	27
413.502	1	33
413.672	1	37
413.843	1	33
414.014	1	34
414.184	1	26
414.355	1	31
414.526	1	19
414.696	1	27
414.867	1	29
415.038	1	26
415.208	1	22
415.379	1	38
415.550	1	17
415.720	1	25
415.891	1	34
416.062	1	25
416.232	1	25
416.403	1	25
416.573	1	30
416.744	1	23
416.915	1	28
417.085	1	24
417.256	1	21
417.427	1	21
417.597	1	29
417.768	1	32
417.939	1	35
418.109	1	23
418.280	1	26
418.450	1	29
418.621	1	24
418.792	1	33
418.962	1	15
419.133	1	24
419.304	1	31
419.474	1	15
419.645	1	32
419.815	1	29
419.986	1	30
420.157	1	23
420.327	1	25
420.498	1	22
420.669	1	18
420.839	1	22
421.010	1	23
421.180	1	15
421.351	1	28
421.522	1	18
421.692	1	28
421.863	1	24
422.033	1	7
422.204	1	23
422.375	1	17
422.545	1	29
422.716	1	17
422.886	1	16
423.057	1	22
423.228	1	22
423.398	1	29
423.569	1	23
423.740	1	28
423.910	1	29
424.081	1	25
424.251	1	23
424.422	1	14
424.593	1	20
424.763	1	34
424.934	1	22
425.104	1	29
425.275	1	23
425.445	1	19
425.616	1	24
425.787	1	18
425.957	1	24
426.128	1	29
426.298	1	43
426.469	1	26
426.640	1	38
426.810	1	32
426.981	1	36
427.151	1	32
427.322	1	36
427.493	1	25
427.663	1	35
427.834	1	31
428.004	1	15
428.175	1	44
428.345	1	24
428.516	1	29
428.687	1	35
428.857	1	18
429.028	1	22
429.198	1	38
429.369	1	30
429.540	1	28
429.710	1	33
429.881	1	9
430.051	1	33
430.222	1	26
430.392	1	19
430.563	1	37
430.734	1	27
430.904	1	16
431.075	1	28
431.245	1	17
431.416	1	16
431.586	1	16
431.757	1	27
431.927	1	37
432.098	1	19
432.269	1	27
432.439	1	32
432.610	1	33
432.780	1	19
432.951	1	15
433.121	1	22
433.292	1	20
433.462	1	23
433.633	1	15
433.804	1	21
433.974	1	27
434.145	1	19
434.315	1	22
434.486	1	32
434.656	1	20
434.827	1	14
434.997	1	27
435.168	1	25
435.339	1	26
435.509	1	15
435.680	1	22
435.850	1	12
436.021	1	33
436.191	1	28
436.362	1	22
436.532	1	31
436.703	1	13
436.873	1	25
437.044	1	15
437.214	1	20
437.385	1	26
437.556	1	23
437.726	1	21
437.897	1	28
438.067	1	14
438.238	1	20
438.408	1	20
438.579	1	33
438.749	1	16
438.920	1	24
439.090	1	34
439.261	1	21
439.431	1	24
439.602	1	15
439.772	1	20
439.943	1	19
440.113	1	36
440.284	1	19
440.455	1	32
440.625	1	40
440.796	1	19
440.966	1	20
441.137	1	24
441.307	1	18
441.478	1	12
441.648	1	23
441.819	1	27
441.989	1	24
442.160	1	28
442.330	1	21
442.501	1	26
442.671	1	24
442.842	1	21
443.012	1	35
443.183	1	23
443.353	1	23
443.524	1	26
443.694	1	27
443.865	1	32
444.035	1	29
444.206	1	30
444.376	1	28
444.547	1	32
444.717	1	21
444.888	1	28
445.058	1	20
445.229	1	11
445.399	1	35
445.570	1	8
445.740	1	23
445.911	1	33
446.081	1	32
446.252	1	27
446.422	1	13
446.593	1	16
446.763	1	0
446.934	1	24
447.104	1	22
447.275	1	29
447.445	1	27
447.616	1	28
447.786	1	22
447.957	1	16
448.127	1	20
448.298	1	18
448.468	1	21
448.639	1	21
448.809	1	24
448.979	1	14
449.150	1	16
449.320	1	26
449.491	1	27
449.661	1	30
449.832	1	18
450.002	1	15
450.173	1	17
450.343	1	21
450.514	1	26
450.684	1	16
450.855	1	30
451.025	1	15
451.196	1	17
451.366	1	15
451.537	1	14
451.707	1	27
451.878	1	8
452.048	1	28
452.218	1	20
452.389	1	23
452.559	1	18
452.730	1	19
452.900	1	20
453.071	1	22
453.241	1	19
453.412	1	22
453.582	1	20
453.753	1	17
453.923	1	24
454.093	1	36
454.264	1	25
454.434	1	30
454.605	1	33
454.775	1	22
454.946	1	34
455.116	1	30
455.287	1	20
455.457	1	23
455.628	1	25
455.798	1	22
455.968	1	20
456.139	1	4
456.309	1	17
456.480	1	18
456.650	1	38
456.821	1	25
456.991	1	25
457.161	1	28
457.332	1	22
457.502	1	14
457.673	1	20
457.843	1	20
458.014	1	18
458.184	1	27
458.355	1	12
458.525	1	11
458.695	1	18
458.866	1	16
459.036	1	20
459.207	1	19
459.377	1	26
459.548	1	9
459.718	1	17
459.888	1	25
460.059	1	21
460.229	1	16
460.400	1	26
460.570	1	23
460.740	1	11
460.911	1	9
461.081	1	8
461.252	1	27
461.422	1	15
461.593	1	7
461.763	1	24
461.933	1	14
462.104	1	20
462.274	1	23
462.445	1	8
462.615	1	13
462.785	1	10
462.956	1	22
463.126	1	11
463.297	1	17
463.467	1	23
463.638	1	23
463.808	1	13
463.978	1	12
464.149	1	25
464.319	1	7
464.490	1	17
464.660	1	7
464.830	1	13
465.001	1	24
465.171	1	20
465.342	1	18
465.512	1	22
465.682	1	13
465.853	1	13
466.023	1	13
466.194	1	17
466.364	1	20
466.534	1	17
466.705	1	18
466.875	1	10
467.045	1	11
467.216	1	15
467.386	1	10
467.557	1	11
467.727	1	18
467.897	1	12
468.068	1	30
468.238	1	12
468.409	1	9
468.579	1	-1
468.749	1	13
468.920	1	13
469.090	1	25
469.260	1	-1
469.431	1	10
469.601	1	9
469.772	1	14
469.942	1	20
470.112	1	26
470.283	1	26
470.453	1	18
470.623	1	18
470.794	1	15
470.964	1	7
471.135	1	12
471.305	1	14
471.475	1	19
471.646	1	17
471.816	1	18
471.986	1	15
472.157	1	10
472.327	1	9
472.497	1	3
472.668	1	5
472.838	1	11
473.009	1	29
473.179	1	12
473.349	1	13
473.520	1	17
473.690	1	15
473.860	1	18
474.031	1	11
474.201	1	22
474.371	1	8
474.542	1	23
474.712	1	11
474.882	1	24
475.053	1	16
475.223	1	23
475.394	1	15
475.564	1	0
475.734	1	16
475.905	1	15
476.075	1	11
476.245	1	17
476.416	1	6
476.586	1	16
476.756	1	22
476.927	1	16
477.097	1	17
477.267	1	18
477.438	1	4
477.608	1	13
477.778	1	8
477.949	1	16
478.119	1	14
478.289	1	13
478.460	1	19
478.630	1	12
478.800	1	9
478.971	1	19
479.141	1	9
479.311	1	7
479.482	1	13
479.652	1	13
479.822	1	12
479.993	1	10
480.163	1	20
480.333	1	17
480.504	1	11
480.674	1	15
480.844	1	12
481.015	1	6
481.185	1	21
481.355	1	7
481.525	1	7
481.696	1	21
481.866	1	5
482.036	1	11
482.207	1	11
482.377	1	2
482.547	1	9
482.718	1	7
482.888	1	19
483.058	1	0
483.229	1	14
483.399	1	18
483.569	1	8
483.740	1	6
483.910	1	-4
484.080	1	7
484.250	1	8
484.421	1	18
484.591	1	11
484.761	1	17
484.932	1	13
485.102	1	13
485.272	1	9
485.443	1	6
485.613	1	6
485.783	1	-2
485.953	1	-1
486.124	1	-4
486.294	1	8
486.464	1	12
486.635	1	11
486.805	1	8
486.975	1	-1
487.146	1	8
487.316	1	15
487.486	1	4
487.656	1	16
487.827	1	19
487.997	1	6
488.167	1	8
488.338	1	3
488.508	1	6
488.678	1	12
488.848	1	17
489.019	1	11
489.189	1	10
489.359	1	19
489.529	1	3
489.700	1	4
489.870	1	3
490.040	1	0
490.211	1	8
490.381	1	10
490.551	1	0
490.721	1	16
490.892	1	23
491.062	1	15
491.232	1	5
491.402	1	15
491.573	1	10
491.743	1	8
491.913	1	6
492.084	1	9
492.254	1	12
492.424	1	5
492.594	1	15
492.765	1	14
492.935	1	14
493.105	1	16
493.275	1	6
493.446	1	7
493.616	1	10
493.786	1	11
493.956	1	14
494.127	1	4
494.297	1	18
494.467	1	13
494.637	1	15
494.808	1	4
494.978	1	-1
495.148	1	8
495.318	1	-7
495.489	1	6
495.659	1	17
495.829	1	14
495.999	1	13
496.170	1	13
496.340	1	21
496.510	1	14
496.680	1	11
496.851	1	1
497.021	1	6
497.191	1	6
497.361	1	8
497.532	1	6
497.702	1	8
497.872	1	10
498.042	1	17
498.213	1	14
498.383	1	14
498.553	1	5
498.723	1	7
498.894	1	7
499.064	1	11
499.234	1	-1
499.404	1	9
499.574	1	7
499.745	1	2
499.915	1	5
500.085	1	4
500.255	1	10
500.426	1	2
500.596	1	18
500.766	1	9
500.936	1	11
501.106	1	12
501.277	1	14
501.447	1	0
501.617	1	7
501.787	1	16
501.958	1	8
502.128	1	15
502.298	1	5
502.468	1	1
502.638	1	7
502.809	1	2
502.979	1	2
503.149	1	0
503.319	1	4
503.489	1	-4
503.660	1	9
503.830	1	9
504.000	1	3
504.170	1	2
504.340	1	16
504.511	1	17
504.681	1	16
504.851	1	10
505.021	1	2
505.192	1	6
505.362	1	1
505.532	1	-1
505.702	1	-4
505.872	1	15
506.043	1	6
506.213	1	9
506.383	1	13
506.553	1	-5
506.723	1	6
506.893	1	7
507.064	1	7
507.234	1	4
507.404	1	13
507.574	1	6
507.744	1	7
507.915	1	3
508.085	1	-12
508.255	1	9
508.425	1	4
508.595	1	-2
508.766	1	6
508.936	1	19
509.106	1	3
509.276	1	4
509.446	1	12
509.616	1	1
509.787	1	13
509.957	1	3
510.127	1	4
510.297	1	13
510.467	1	9
510.638	1	8
510.808	1	2
510.978	1	23
511.148	1	19
511.318	1	8
511.488	1	11
511.659	1	4
511.829	1	10
511.999	1	4
512.169	1	3
512.339	1	1
512.509	1	0
512.680	1	6
512.850	1	4
513.020	1	6
513.190	1	15
513.360	1	6
513.530	1	0
513.700	1	2
513.871	1	0
514.041	1	8
514.211	1	7
514.381	1	15
514.551	1	-4
514.721	1	-1
514.892	1	14
515.062	1	10
515.232	1	7
515.402	1	11
515.572	1	-1
515.742	1	16
515.912	1	6
516.083	1	2
516.253	1	16
516.423	1	12
516.593	1	4
516.763	1	5
516.933	1	19
517.104	1	3
517.274	1	13
517.444	1	2
517.614	1	4
517.784	1	3
517.954	1	4
518.124	1	5
518.294	1	4
518.465	1	3
518.635	1	2
518.805	1	2
518.975	1	0
519.145	1	5
519.315	1	4
519.485	1	6
519.656	1	7
519.826	1	6
519.996	1	13
520.166	1	-6
520.336	1	-10
520.506	1	11
520.676	1	13
520.846	1	11
521.017	1	-1
521.187	1	3
521.357	1	17
521.527	1	6
521.697	1	3
521.867	1	-1
522.037	1	5
522.207	1	18
522.377	1	3
522.548	1	9
522.718	1	3
522.888	1	16
523.058	1	5
523.228	1	-11
523.398	1	5
523.568	1	5
523.738	1	2
523.909	1	5
524.079	1	7
524.249	1	5
524.419	1	0
524.589	1	6
524.759	1	8
524.929	1	-1
525.099	1	-3
525.269	1	-6
525.439	1	12
525.610	1	-5
525.780	1	3
525.950	1	16
526.120	1	-1
526.290	1	7
526.460	1	6
526.630	1	1
526.800	1	2
526.970	1	2
527.140	1	10
527.311	1	17
527.481	1	-11
527.651	1	7
527.821	1	-2
527.991	1	-12
528.161	1	8
528.331	1	4
528.501	1	4
528.671	1	14
528.841	1	21
529.011	1	2
529.181	1	10
529.352	1	17
529.522	1	21
529.692	1	-2
529.862	1	-3
530.032	1	5
530.202	1	13
530.372	1	7
530.542	1	3
530.712	1	15
530.882	1	10
531.052	1	6
531.222	1	2
531.392	1	-2
531.563	1	4
531.733	1	-6
531.903	1	14
532.073	1	9
532.243	1	15
532.413	1	-7
532.583	1	19
532.753	1	14
532.923	1	2
533.093	1	5
533.263	1	2
533.433	1	-5
533.603	1	-1
533.773	1	-4
533.943	1	6
534.113	1	7
534.284	1	-5
534.454	1	5
534.624	1	9
534.794	1	6
534.964	1	-1
535.134	1	12
535.304	1	14
535.474	1	-8
535.644	1	5
535.814	1	3
535.984	1	-2
536.154	1	11
536.324	1	-6
536.494	1	3
536.664	1	0
536.834	1	10
537.004	1	1
537.174	1	-3
537.344	1	1
537.514	1	8
537.685	1	6
537.855	1	6
538.025	1	11
538.195	1	5
538.365	1	12
538.535	1	-2
538.705	1	-13
538.875	1	4
539.045	1	13
539.215	1	5
539.385	1	4
539.555	1	1
539.725	1	5
539.895	1	4
540.065	1	-9
540.235	1	10
540.405	1	0
540.575	1	14
540.745	1	0
540.915	1	10
541.085	1	7
541.255	1	5
541.425	1	-5
541.595	1	2
541.765	1	16
541.935	1	3
542.105	1	6
542.275	1	0
542.445	1	6
542.615	1	6
542.785	1	3
542.955	1	-3
543.125	1	-1
543.295	1	17
543.465	1	6
543.635	1	1
543.805	1	-4
543.975	1	-4
544.145	1	16
544.315	1	-1
544.485	1	5
544.655	1	-1
544.825	1	-6
544.995	1	14
545.165	1	7
545.335	1	-7
545.505	1	7
545.675	1	-12
545.845	1	7
546.015	1	4
546.185	1	9
546.355	1	-7
546.525	1	2
546.695	1	-1
546.865	1	6
547.035	1	8
547.205	1	13
547.375	1	3
547.545	1	-2
547.715	1	12
547.885	1	4
548.055	1	-2
548.225	1	16
548.395	1	-4
548.565	1	10
548.735	1	2
548.905	1	1
549.075	1	5
549.245	1	18
549.415	1	-2
549.585	1	2
549.755	1	6
549.925	1	0
550.095	1	8
550.265	1	17
550.435	1	5
550.605	1	4
550.775	1	8
550.945	1	10
551.115	1	-2
551.285	1	1
551.455	1	-1
551.625	1	-8
551.795	1	-7
551.965	1	4
552.135	1	4
552.305	1	10
552.475	1	15
552.645	1	-1
552.815	1	1
552.985	1	-1
553.155	1	-3
553.325	1	5
553.495	1	4
553.665	1	-7
553.835	1	5
554.004	1	7
554.174	1	1
554.344	1	0
554.514	1	12
554.684	1	-2
554.854	1	-4
555.024	1	-6
555.194	1	6
555.364	1	6
555.534	1	-9
555.704	1	9
555.874	1	3
556.044	1	2
556.214	1	10
556.384	1	8
556.554	1	1
556.724	1	5
556.894	1	0
557.064	1	7
557.234	1	-7
557.404	1	-1
557.573	1	-8
557.743	1	12
557.913	1	15
558.083	1	3
558.253	1	-3
558.423	1	2
558.593	1	-5
558.763	1	6
558.933	1	-6
559.103	1	5
559.273	1	-5
559.443	1	2
559.613	1	0
559.783	1	0
559.953	1	7
560.122	1	8
560.292	1	5
560.462	1	6
560.632	1	-1
560.802	1	11
560.972	1	0
561.142	1	2
561.312	1	0
561.482	1	-6
561.652	1	2
561.822	1	-6
561.992	1	-4
562.162	1	4
562.331	1	8
562.501	1	7
562.671	1	4
562.841	1	-4
563.011	1	8
563.181	1	2
563.351	1	4
563.521	1	-7
563.691	1	2
563.861	1	4
564.031	1	2
564.201	1	4
564.370	1	4
564.540	1	1
564.710	1	6
564.880	1	6
565.050	1	7
565.220	1	0
565.390	1	11
565.560	1	12
565.730	1	-2
565.900	1	2
566.069	1	6
566.239	1	4
566.409	1	-12
566.579	1	8
566.749	1	-5
566.919	1	1
567.089	1	4
567.259	1	8
567.429	1	-2
567.599	1	8
567.768	1	3
567.938	1	3
568.108	1	-2
568.278	1	9
568.448	1	7
568.618	1	1
568.788	1	8
568.958	1	-2
569.128	1	11
569.297	1	-9
569.467	1	-6
569.637	1	3
569.807	1	0
569.977	1	1
570.147	1	4
570.317	1	9
570.487	1	2
570.656	1	-9
570.826	1	-3
570.996	1	-5
571.166	1	5
571.336	1	0
571.506	1	3
571.676	1	21
571.846	1	0
572.015	1	0
572.185	1	7
572.355	1	5
572.525	1	-10
572.695	1	1
572.865	1	-3
573.035	1	7
573.205	1	7
573.374	1	10
573.544	1	5
573.714	1	-1
573.884	1	6
574.054	1	10
574.224	1	-1
574.394	1	-4
574.563	1	11
574.733	1	-1
574.903	1	8
575.073	1	3
575.243	1	-12
575.413	1	9
575.583	1	8
575.752	1	-2
575.922	1	-4
576.092	1	0
576.262	1	0
576.432	1	3
576.602	1	3
576.772	1	2
576.941	1	9
577.111	1	-11
577.281	1	6
577.451	1	7
577.621	1	6
577.791	1	2
577.960	1	-5
578.130	1	-2
578.300	1	-9
578.470	1	-5
578.640	1	-2
578.810	1	-7
578.979	1	1
579.149	1	-1
579.319	1	3
579.489	1	-7
579.659	1	1
579.829	1	4
579.998	1	8
580.168	1	0
580.338	1	4
580.508	1	5
580.678	1	7
580.848	1	5
581.017	1	8
581.187	1	12
581.357	1	0
581.527	1	2
581.697	1	-2
581.867	1	9
582.036	1	-11
582.206	1	3
582.376	1	-6
582.546	1	-11
582.716	1	1
582.885	1	-9
583.055	1	11
583.225	1	-2
583.395	1	13
583.565	1	3
583.735	1	9
583.904	1	-1
584.074	1	-4
584.244	1	-3
584.414	1	5
584.584	1	12
584.753	1	0
584.923	1	0
585.093	1	12
585.263	1	7
585.433	1	2
585.602	1	-5
585.772	1	-8
585.942	1	7
586.112	1	3
586.282	1	-2
586.451	1	11
586.621	1	17
586.791	1	3
586.961	1	-4
587.131	1	-6
587.300	1	5
587.470	1	-6
587.640	1	12
587.810	1	3
587.980	1	0
588.149	1	-1
588.319	1	2
588.489	1	7
588.659	1	2
588.829	1	7
588.998	1	3
589.168	1	10
589.338	1	-6
589.508	1	8
589.677	1	8
589.847	1	5
590.017	1	0
590.187	1	2
590.357	1	9
590.526	1	0
590.696	1	-13
590.866	1	-1
591.036	1	11
591.205	1	8
591.375	1	1
591.545	1	6
591.715	1	-4
591.885	1	-7
592.054	1	3
592.224	1	12
592.394	1	-3
592.564	1	6
592.733	1	-4
592.903	1	-2
593.073	1	7
593.243	1	3
593.412	1	13
593.582	1	3
593.752	1	1
593.922	1	-11
594.091	1	5
594.261	1	1
594.431	1	21
594.601	1	-1
594.771	1	12
594.940	1	6
595.110	1	-3
595.280	1	2
595.450	1	5
595.619	1	11
595.789	1	9
595.959	1	16
596.129	1	5
596.298	1	13
596.468	1	-9
596.638	1	0
596.808	1	8
596.977	1	-3
597.147	1	-8
597.317	1	-1
597.487	1	2
597.656	1	1
597.826	1	6
597.996	1	12
598.166	1	6
598.335	1	12
598.505	1	2
598.675	1	0
598.844	1	-12
599.014	1	16
599.184	1	-5
599.354	1	14
599.523	1	-3
599.693	1	9
599.863	1	3
600.033	1	-1
600.202	1	4
600.372	1	-10
600.542	1	-1
600.712	1	8
600.881	1	-7
601.051	1	1
601.221	1	6
601.390	1	-7
601.560	1	10
601.730	1	8
601.900	1	4
602.069	1	6
602.239	1	0
602.409	1	7
602.578	1	3
602.748	1	12
602.918	1	0
603.088	1	9
603.257	1	10
603.427	1	3
603.597	1	4
603.767	1	8
603.936	1	5
604.106	1	-5
604.276	1	3
604.445	1	5
604.615	1	-5
604.785	1	6
604.954	1	18
605.124	1	-7
605.294	1	12
605.464	1	-2
605.633	1	3
605.803	1	6
605.973	1	11
606.142	1	1
606.312	1	-2
606.482	1	-1
606.652	1	-9
606.821	1	4
606.991	1	8
607.161	1	-5
607.330	1	-1
607.500	1	14
607.670	1	10
607.839	1	24
608.009	1	11
608.179	1	-3
608.348	1	-4
608.518	1	-2
608.688	1	-1
608.858	1	-1
609.027	1	2
609.197	1	-7
609.367	1	9
609.536	1	9
609.706	1	1
609.876	1	19
610.045	1	-8
610.215	1	1
610.385	1	2
610.554	1	4
610.724	1	-4
610.894	1	3
611.063	1	7
611.233	1	7
611.403	1	8
611.572	1	8
611.742	1	4
611.912	1	0
612.081	1	-4
612.251	1	12
612.421	1	6
612.590	1	4
612.760	1	-2
612.930	1	8
613.099	1	-1
613.269	1	-3
613.439	1	5
613.608	1	7
613.778	1	-2
613.948	1	-4
614.117	1	8
614.287	1	4
614.457	1	-11
614.626	1	12
614.796	1	4
614.966	1	14
615.135	1	2
615.305	1	8
615.475	1	6
615.644	1	8
615.814	1	1
615.984	1	9
616.153	1	13
616.323	1	8
616.493	1	18
616.662	1	9
616.832	1	10
617.002	1	4
617.171	1	-6
617.341	1	2
617.511	1	1
617.680	1	13
617.850	1	12
618.019	1	4
618.189	1	19
618.359	1	-3
618.528	1	3
618.698	1	10
618.868	1	0
619.037	1	13
619.207	1	0
619.377	1	-1
619.546	1	2
619.716	1	11
619.885	1	1
620.055	1	8
620.225	1	12
620.394	1	8
620.564	1	8
620.734	1	4
620.903	1	3
621.073	1	10
621.242	1	4
621.412	1	11
621.582	1	1
621.751	1	11
621.921	1	4
622.091	1	1
622.260	1	-2
622.430	1	5
622.599	1	1
622.769	1	16
622.939	1	2
623.108	1	6
623.278	1	2
623.448	1	4
623.617	1	5
623.787	1	7
623.956	1	17
624.126	1	19
624.296	1	6
624.465	1	4
624.635	1	3
624.804	1	3
624.974	1	16
625.144	1	2
625.313	1	0
625.483	1	17
625.652	1	13
625.822	1	3
625.992	1	9
626.161	1	10
626.331	1	4
626.501	1	9
626.670	1	7
626.840	1	10
627.009	1	15
627.179	1	1
627.348	1	14
627.518	1	15
627.688	1	3
627.857	1	10
628.027	1	-10
628.196	1	6
628.366	1	-1
628.536	1	9
628.705	1	6
628.875	1	11
629.044	1	3
629.214	1	13
629.384	1	8
629.553	1	11
629.723	1	5
629.892	1	14
630.062	1	3
630.232	1	4
630.401	1	19
630.571	1	10
630.740	1	10
630.910	1	17
631.079	1	3
631.249	1	5
631.419	1	4
631.588	1	1
631.758	1	15
631.927	1	3
632.097	1	7
632.266	1	10
632.436	1	7
632.606	1	4
632.775	1	17
632.945	1	10
633.114	1	0
633.284	1	-3
633.453	1	1
633.623	1	15
633.793	1	2
633.962	1	13
634.132	1	8
634.301	1	3
634.471	1	-6
634.640	1	4
634.810	1	8
634.979	1	9
635.149	1	12
635.319	1	13
635.488	1	15
635.658	1	9
635.827	1	12
635.997	1	6
636.166	1	-12
636.336	1	7
636.505	1	8
636.675	1	10
636.845	1	6
637.014	1	5
637.184	1	12
637.353	1	5
637.523	1	1
637.692	1	13
637.862	1	5
638.031	1	10
638.201	1	7
638.370	1	6
638.540	1	-1
638.710	1	19
638.879	1	6
639.049	1	15
639.218	1	12
639.388	1	8
639.557	1	12
639.727	1	-1
639.896	1	11
640.066	1	13
640.235	1	7
640.405	1	5
640.574	1	0
640.744	1	12
640.914	1	10
641.083	1	14
641.253	1	16
641.422	1	10
641.592	1	2
641.761	1	11
641.931	1	7
642.100	1	-5
642.270	1	7
642.439	1	5
642.609	1	5
642.778	1	1
642.948	1	2
643.117	1	10
643.287	1	9
643.456	1	14
643.626	1	28
643.795	1	11
643.965	1	17
644.134	1	10
644.304	1	2
644.473	1	6
644.643	1	2
644.812	1	11
644.982	1	7
645.151	1	17
645.321	1	5
645.490	1	5
645.660	1	-2
645.829	1	8
645.999	1	12
646.168	1	-4
646.338	1	9
646.507	1	12
646.677	1	13
646.846	1	5
647.016	1	17
647.185	1	3
647.355	1	0
647.524	1	4
647.694	1	12
647.863	1	-2
648.033	1	5
648.202	1	13
648.372	1	17
648.541	1	13
648.711	1	9
648.880	1	13
649.050	1	5
649.219	1	4
649.389	1	11
649.558	1	4
649.728	1	6
649.897	1	5
650.067	1	9
650.236	1	9
650.406	1	0
650.575	1	6
650.745	1	-1
650.914	1	10
651.084	1	0
651.253	1	14
651.423	1	4
651.592	1	13
651.762	1	12
651.931	1	11
652.101	1	10
652.270	1	8
652.440	1	3
652.609	1	8
652.778	1	6
652.948	1	4
653.117	1	5
653.287	1	24
653.456	1	11
653.626	1	-7
653.795	1	8
653.965	1	2
654.134	1	9
654.304	1	8
654.473	1	5
654.643	1	6
654.812	1	-3
654.982	1	8
655.151	1	9
655.320	1	6
655.490	1	4
655.659	1	4
655.829	1	17
655.998	1	1
656.168	1	10
656.337	1	15
656.507	1	1
656.676	1	16
656.846	1	10
657.015	1	4
657.184	1	4
657.354	1	2
657.523	1	8
657.693	1	10
657.862	1	8
658.032	1	3
658.201	1	1
658.371	1	-1
658.540	1	4
658.709	1	1
658.879	1	-7
659.048	1	3
659.218	1	13
659.387	1	3
659.557	1	7
659.726	1	14
659.895	1	10
660.065	1	-3
660.234	1	7
660.404	1	7
660.573	1	13
660.743	1	15
660.912	1	4
661.081	1	25
661.251	1	10
661.420	1	5
661.590	1	9
661.759	1	0
661.929	1	-4
662.098	1	-5
662.267	1	12
662.437	1	4
662.606	1	8
662.776	1	-2
662.945	1	-2
663.115	1	13
663.284	1	12
663.453	1	0
663.623	1	20
663.792	1	4
663.962	1	0
664.131	1	11
664.300	1	10
664.470	1	9
664.639	1	8
664.809	1	-1
664.978	1	9
665.148	1	1
665.317	1	8
665.486	1	13
665.656	1	5
665.825	1	10
665.995	1	-3
666.164	1	-3
666.333	1	0
666.503	1	3
666.672	1	14
666.842	1	10
667.011	1	5
667.180	1	1
667.350	1	12
667.519	1	11
667.689	1	7
667.858	1	9
668.027	1	8
668.197	1	5
668.366	1	4
668.536	1	19
668.705	1	4
668.874	1	12
669.044	1	5
669.213	1	3
669.382	1	10
669.552	1	9
669.721	1	20
669.891	1	8
670.060	1	13
670.229	1	4
670.399	1	10
670.568	1	10
670.738	1	0
670.907	1	4
671.076	1	8
671.246	1	21
671.415	1	10
671.584	1	0
671.754	1	8
671.923	1	8
672.093	1	12
672.262	1	7
672.431	1	-1
672.601	1	3
672.770	1	11
672.939	1	11
673.109	1	5
673.278	1	4
673.448	1	-2
673.617	1	-3
673.786	1	6
