325.333	1	16
325.504	1	15
325.675	1	15
325.846	1	16
326.017	1	21
326.188	1	18
326.359	1	11
326.531	1	18
326.702	1	25
326.873	1	20
327.044	1	20
327.215	1	19
327.386	1	19
327.557	1	19
327.728	1	14
327.899	1	25
328.070	1	15
328.241	1	14
328.412	1	14
328.583	1	14
328.754	1	17
328.926	1	15
329.097	1	11
329.268	1	5
329.439	1	16
329.610	1	22
329.781	1	3
329.952	1	14
330.123	1	25
330.294	1	8
330.465	1	18
330.636	1	30
330.807	1	9
330.978	1	12
331.149	1	34
331.320	1	21
331.492	1	16
331.663	1	22
331.834	1	19
332.005	1	16
332.176	1	13
332.347	1	25
332.518	1	12
332.689	1	15
332.860	1	12
333.031	1	10
333.202	1	13
333.373	1	20
333.544	1	19
333.715	1	18
333.886	1	14
334.057	1	25
334.228	1	15
334.399	1	28
334.570	1	10
334.741	1	19
334.912	1	24
335.084	1	16
335.255	1	26
335.426	1	15
335.597	1	24
335.768	1	40
335.939	1	18
336.110	1	20
336.281	1	22
336.452	1	24
336.623	1	21
336.794	1	19
336.965	1	12
337.136	1	15
337.307	1	14
337.478	1	9
337.649	1	26
337.820	1	19
337.991	1	21
338.162	1	27
338.333	1	16
338.504	1	8
338.675	1	20
338.846	1	24
339.017	1	27
339.188	1	24
339.359	1	28
339.530	1	17
339.701	1	24
339.872	1	22
340.043	1	9
340.214	1	23
340.385	1	16
340.556	1	15
340.727	1	29
340.898	1	31
341.069	1	22
341.240	1	22
341.411	1	15
341.582	1	22
341.753	1	14
341.924	1	22
342.095	1	23
342.266	1	26
342.437	1	25
342.608	1	30
342.779	1	27
342.950	1	19
343.121	1	18
343.292	1	24
343.463	1	22
343.634	1	19
343.805	1	19
343.976	1	24
344.147	1	17
344.318	1	23
344.489	1	30
344.660	1	22
344.831	1	23
345.002	1	31
345.173	1	14
345.344	1	23
345.515	1	8
345.686	1	26
345.857	1	15
346.028	1	17
346.199	1	24
346.370	1	31
346.541	1	24
346.712	1	25
346.883	1	25
347.054	1	18
347.225	1	19
347.396	1	8
347.567	1	23
347.738	1	14
347.909	1	15
348.080	1	26
348.251	1	24
348.422	1	30
348.593	1	17
348.764	1	30
348.935	1	34
349.106	1	24
349.277	1	31
349.448	1	32
349.619	1	22
349.790	1	35
349.961	1	37
350.132	1	30
350.303	1	33
350.474	1	27
350.645	1	28
350.816	1	22
350.987	1	31
351.157	1	32
351.328	1	28
351.499	1	39
351.670	1	27
351.841	1	28
352.012	1	31
352.183	1	28
352.354	1	17
352.525	1	30
352.696	1	46
352.867	1	26
353.038	1	10
353.209	1	26
353.380	1	8
353.551	1	22
353.722	1	37
353.893	1	31
354.064	1	32
354.235	1	32
354.406	1	35
354.576	1	33
354.747	1	32
354.918	1	37
355.089	1	43
355.260	1	41
355.431	1	29
355.602	1	33
355.773	1	29
355.944	1	23
356.115	1	41
356.286	1	39
356.457	1	31
356.628	1	26
356.799	1	32
356.970	1	43
357.141	1	12
357.311	1	36
357.482	1	30
357.653	1	35
357.824	1	35
357.995	1	26
358.166	1	28
358.337	1	37
358.508	1	32
358.679	1	33
358.850	1	32
359.021	1	43
359.192	1	34
359.363	1	40
359.533	1	30
359.704	1	33
359.875	1	41
360.046	1	35
360.217	1	19
360.388	1	42
360.559	1	32
360.730	1	27
360.901	1	35
361.072	1	45
361.243	1	39
361.414	1	32
361.584	1	20
361.755	1	36
361.926	1	40
362.097	1	24
362.268	1	33
362.439	1	37
362.610	1	32
362.781	1	23
362.952	1	43
363.123	1	29
363.293	1	24
363.464	1	46
363.635	1	43
363.806	1	24
363.977	1	37
364.148	1	29
364.319	1	21
364.490	1	42
364.661	1	34
364.832	1	38
365.002	1	40
365.173	1	30
365.344	1	41
365.515	1	22
365.686	1	19
365.857	1	34
366.028	1	35
366.199	1	25
366.370	1	45
366.540	1	27
366.711	1	26
366.882	1	30
367.053	1	36
367.224	1	41
367.395	1	28
367.566	1	24
367.737	1	27
367.908	1	30
368.078	1	43
368.249	1	40
368.420	1	25
368.591	1	42
368.762	1	22
368.933	1	20
369.104	1	49
369.274	1	17
369.445	1	33
369.616	1	39
369.787	1	43
369.958	1	44
370.129	1	23
370.300	1	28
370.471	1	49
370.641	1	39
370.812	1	22
370.983	1	40
371.154	1	29
371.325	1	31
371.496	1	40
371.667	1	41
371.837	1	39
372.008	1	35
372.179	1	30
372.350	1	26
372.521	1	30
372.692	1	37
372.863	1	36
373.033	1	42
373.204	1	29
373.375	1	43
373.546	1	46
373.717	1	34
373.888	1	44
374.059	1	39
374.229	1	27
374.400	1	29
374.571	1	29
374.742	1	38
374.913	1	32
375.084	1	34
375.254	1	36
375.425	1	27
375.596	1	46
375.767	1	37
375.938	1	40
376.109	1	41
376.279	1	23
376.450	1	38
376.621	1	28
376.792	1	33
376.963	1	34
377.134	1	42
377.304	1	32
377.475	1	38
377.646	1	40
377.817	1	37
377.988	1	31
378.159	1	58
378.329	1	30
378.500	1	32
378.671	1	37
378.842	1	35
379.013	1	24
379.184	1	30
379.354	1	39
379.525	1	28
379.696	1	51
379.867	1	35
380.038	1	50
380.209	1	40
380.379	1	42
380.550	1	57
380.721	1	41
380.892	1	37
381.063	1	47
381.233	1	43
381.404	1	50
381.575	1	47
381.746	1	46
381.917	1	39
382.087	1	44
382.258	1	53
382.429	1	38
382.600	1	44
382.771	1	37
382.941	1	53
383.112	1	36
383.283	1	48
383.454	1	44
383.625	1	37
383.795	1	38
383.966	1	36
384.137	1	50
384.308	1	43
384.479	1	32
384.649	1	36
384.820	1	55
384.991	1	37
385.162	1	50
385.333	1	47
385.503	1	39
385.674	1	30
385.845	1	48
386.016	1	47
386.187	1	30
386.357	1	39
386.528	1	35
386.699	1	50
386.870	1	38
387.041	1	60
387.211	1	44
387.382	1	40
387.553	1	42
387.724	1	62
387.894	1	50
388.065	1	46
388.236	1	52
388.407	1	44
388.578	1	44
388.748	1	37
388.919	1	43
389.090	1	57
389.261	1	51
389.431	1	46
389.602	1	62
389.773	1	57
389.944	1	58
390.114	1	49
390.285	1	38
390.456	1	47
390.627	1	47
390.798	1	50
390.968	1	65
391.139	1	49
391.310	1	54
391.481	1	52
391.651	1	55
391.822	1	55
391.993	1	52
392.164	1	60
392.334	1	42
392.505	1	50
392.676	1	59
392.847	1	58
393.017	1	59
393.188	1	54
393.359	1	50
393.530	1	56
393.700	1	55
393.871	1	47
394.042	1	52
394.213	1	54
394.383	1	56
394.554	1	54
394.725	1	48
394.896	1	55
395.066	1	51
395.237	1	45
395.408	1	57
395.579	1	45
395.749	1	50
395.920	1	54
396.091	1	63
396.262	1	41
396.432	1	56
396.603	1	41
396.774	1	56
396.945	1	48
397.115	1	36
397.286	1	52
397.457	1	53
397.627	1	42
397.798	1	46
397.969	1	67
398.140	1	48
398.310	1	49
398.481	1	39
398.652	1	49
398.823	1	64
398.993	1	64
399.164	1	55
399.335	1	49
399.505	1	58
399.676	1	64
399.847	1	60
400.018	1	63
400.188	1	58
400.359	1	62
400.530	1	65
400.700	1	60
400.871	1	52
401.042	1	61
401.213	1	56
401.383	1	58
401.554	1	58
401.725	1	61
401.895	1	58
402.066	1	58
402.237	1	72
402.408	1	67
402.578	1	62
402.749	1	64
402.920	1	63
403.090	1	51
403.261	1	60
403.432	1	60
403.603	1	64
403.773	1	65
403.944	1	64
404.115	1	54
404.285	1	71
404.456	1	55
404.627	1	53
404.797	1	51
404.968	1	60
405.139	1	73
405.310	1	62
405.480	1	66
405.651	1	48
405.822	1	51
405.992	1	68
406.163	1	68
406.334	1	63
406.504	1	65
406.675	1	82
406.846	1	70
407.016	1	69
407.187	1	63
407.358	1	63
407.528	1	58
407.699	1	59
407.870	1	64
408.041	1	69
408.211	1	60
408.382	1	59
408.553	1	63
408.723	1	70
408.894	1	62
409.065	1	54
409.235	1	55
409.406	1	66
409.577	1	59
409.747	1	59
409.918	1	64
410.089	1	74
410.259	1	58
410.430	1	60
410.601	1	72
410.771	1	68
410.942	1	57
411.113	1	65
411.283	1	68
411.454	1	72
411.625	1	63
411.795	1	60
411.966	1	79
412.137	1	73
412.307	1	69
412.478	1	72
412.649	1	69
412.819	1	70
412.990	1	74
413.161	1	74
413.331	1	68
413.502	1	73
413.672	1	75
413.843	1	56
414.014	1	71
414.184	1	65
414.355	1	76
414.526	1	65
414.696	1	70
414.867	1	71
415.038	1	54
415.208	1	74
415.379	1	77
415.550	1	61
415.720	1	65
415.891	1	79
416.062	1	71
416.232	1	57
416.403	1	64
416.573	1	69
416.744	1	71
416.915	1	79
417.085	1	71
417.256	1	67
417.427	1	73
417.597	1	71
417.768	1	60
417.939	1	73
418.109	1	57
418.280	1	59
418.450	1	62
418.621	1	68
418.792	1	78
418.962	1	64
419.133	1	61
419.304	1	66
419.474	1	63
419.645	1	67
419.815	1	66
419.986	1	71
420.157	1	59
420.327	1	60
420.498	1	68
420.669	1	65
420.839	1	62
421.010	1	68
421.180	1	68
421.351	1	68
421.522	1	61
421.692	1	70
421.863	1	65
422.033	1	60
422.204	1	69
422.375	1	61
422.545	1	68
422.716	1	68
422.886	1	54
423.057	1	69
423.228	1	55
423.398	1	61
423.569	1	59
423.740	1	66
423.910	1	72
424.081	1	71
424.251	1	57
424.422	1	61
424.593	1	65
424.763	1	74
424.934	1	74
425.104	1	55
425.275	1	67
425.445	1	59
425.616	1	68
425.787	1	76
425.957	1	61
426.128	1	62
426.298	1	77
426.469	1	64
426.640	1	70
426.810	1	76
426.981	1	66
427.151	1	68
427.322	1	77
427.493	1	72
427.663	1	63
427.834	1	62
428.004	1	61
428.175	1	81
428.345	1	67
428.516	1	70
428.687	1	63
428.857	1	58
429.028	1	70
429.198	1	75
429.369	1	59
429.540	1	60
429.710	1	66
429.881	1	61
430.051	1	68
430.222	1	57
430.392	1	65
430.563	1	70
430.734	1	60
430.904	1	63
431.075	1	66
431.245	1	58
431.416	1	66
431.586	1	48
431.757	1	61
431.927	1	85
432.098	1	53
432.269	1	60
432.439	1	66
432.610	1	73
432.780	1	55
432.951	1	60
433.121	1	62
433.292	1	62
433.462	1	58
433.633	1	48
433.804	1	53
433.974	1	63
434.145	1	55
434.315	1	56
434.486	1	77
434.656	1	68
434.827	1	56
434.997	1	58
435.168	1	74
435.339	1	52
435.509	1	52
435.680	1	53
435.850	1	55
436.021	1	76
436.191	1	74
436.362	1	62
436.532	1	64
436.703	1	68
436.873	1	56
437.044	1	61
437.214	1	58
437.385	1	62
437.556	1	57
437.726	1	68
437.897	1	61
438.067	1	50
438.238	1	73
438.408	1	60
438.579	1	64
438.749	1	59
438.920	1	79
439.090	1	63
439.261	1	58
439.431	1	58
439.602	1	61
439.772	1	64
439.943	1	61
440.113	1	66
440.284	1	61
440.455	1	68
440.625	1	76
440.796	1	65
440.966	1	53
441.137	1	58
441.307	1	51
441.478	1	63
441.648	1	51
441.819	1	56
441.989	1	57
442.160	1	52
442.330	1	65
442.501	1	57
442.671	1	61
442.842	1	67
443.012	1	55
443.183	1	60
443.353	1	67
443.524	1	44
443.694	1	65
443.865	1	60
444.035	1	54
444.206	1	54
444.376	1	50
444.547	1	64
444.717	1	55
444.888	1	65
445.058	1	60
445.229	1	61
445.399	1	55
445.570	1	49
445.740	1	54
445.911	1	56
446.081	1	63
446.252	1	53
446.422	1	59
446.593	1	48
446.763	1	50
446.934	1	51
447.104	1	52
447.275	1	58
447.445	1	58
447.616	1	58
447.786	1	61
447.957	1	48
448.127	1	58
448.298	1	58
448.468	1	48
448.639	1	60
448.809	1	60
448.979	1	47
449.150	1	45
449.320	1	47
449.491	1	57
449.661	1	61
449.832	1	63
450.002	1	58
450.173	1	44
450.343	1	63
450.514	1	64
450.684	1	58
450.855	1	58
451.025	1	48
451.196	1	48
451.366	1	58
451.537	1	49
451.707	1	59
451.878	1	36
452.048	1	51
452.218	1	57
452.389	1	51
452.559	1	41
452.730	1	52
452.900	1	46
453.071	1	50
453.241	1	58
453.412	1	44
453.582	1	45
453.753	1	40
453.923	1	61
454.093	1	51
454.264	1	64
454.434	1	54
454.605	1	61
454.775	1	48
454.946	1	62
455.116	1	49
455.287	1	49
455.457	1	47
455.628	1	51
455.798	1	51
455.968	1	57
456.139	1	40
456.309	1	48
456.480	1	52
456.650	1	57
456.821	1	57
456.991	1	50
457.161	1	58
457.332	1	40
457.502	1	45
457.673	1	37
457.843	1	53
458.014	1	46
458.184	1	48
458.355	1	39
458.525	1	49
458.695	1	32
458.866	1	44
459.036	1	43
459.207	1	47
459.377	1	51
459.548	1	52
459.718	1	43
459.888	1	56
460.059	1	46
460.229	1	44
460.400	1	48
460.570	1	55
460.740	1	39
460.911	1	31
461.081	1	41
461.252	1	47
461.422	1	52
461.593	1	42
461.763	1	36
461.933	1	44
462.104	1	44
462.274	1	52
462.445	1	40
462.615	1	37
462.785	1	51
462.956	1	40
463.126	1	32
463.297	1	47
463.467	1	53
463.638	1	32
463.808	1	34
463.978	1	36
464.149	1	38
464.319	1	36
464.490	1	39
464.660	1	39
464.830	1	33
465.001	1	52
465.171	1	48
465.342	1	43
465.512	1	39
465.682	1	43
465.853	1	49
466.023	1	47
466.194	1	39
466.364	1	49
466.534	1	42
466.705	1	44
466.875	1	43
467.045	1	35
467.216	1	38
467.386	1	43
467.557	1	36
467.727	1	38
467.897	1	30
468.068	1	43
468.238	1	44
468.409	1	36
468.579	1	35
468.749	1	37
468.920	1	32
469.090	1	45
469.260	1	27
469.431	1	41
469.601	1	38
469.772	1	41
469.942	1	57
470.112	1	39
470.283	1	44
470.453	1	42
470.623	1	43
470.794	1	39
470.964	1	27
471.135	1	44
471.305	1	34
471.475	1	33
471.646	1	39
471.816	1	37
471.986	1	33
472.157	1	34
472.327	1	32
472.497	1	18
472.668	1	25
472.838	1	37
473.009	1	34
473.179	1	34
473.349	1	38
473.520	1	31
473.690	1	37
473.860	1	30
474.031	1	31
474.201	1	35
474.371	1	35
474.542	1	45
474.712	1	27
474.882	1	48
475.053	1	30
475.223	1	42
475.394	1	27
475.564	1	18
475.734	1	38
475.905	1	28
476.075	1	20
476.245	1	46
476.416	1	42
476.586	1	27
476.756	1	50
476.927	1	40
477.097	1	25
477.267	1	46
477.438	1	30
477.608	1	29
477.778	1	43
477.949	1	31
478.119	1	36
478.289	1	45
478.460	1	44
478.630	1	30
478.800	1	32
478.971	1	41
479.141	1	24
479.311	1	31
479.482	1	32
479.652	1	32
479.822	1	41
479.993	1	36
480.163	1	31
480.333	1	26
480.504	1	35
480.674	1	33
480.844	1	33
481.015	1	18
481.185	1	43
481.355	1	33
481.525	1	31
481.696	1	32
481.866	1	33
482.036	1	31
482.207	1	22
482.377	1	31
482.547	1	42
482.718	1	24
482.888	1	33
483.058	1	37
483.229	1	22
483.399	1	39
483.569	1	28
483.740	1	23
483.910	1	26
484.080	1	29
484.250	1	22
484.421	1	40
484.591	1	44
484.761	1	32
484.932	1	39
485.102	1	35
485.272	1	23
485.443	1	22
485.613	1	32
485.783	1	30
485.953	1	15
486.124	1	22
486.294	1	31
486.464	1	28
486.635	1	31
486.805	1	27
486.975	1	23
487.146	1	29
487.316	1	35
487.486	1	19
487.656	1	21
487.827	1	34
487.997	1	25
488.167	1	24
488.338	1	25
488.508	1	21
488.678	1	25
488.848	1	37
489.019	1	27
489.189	1	21
489.359	1	31
489.529	1	14
489.700	1	18
489.870	1	22
490.040	1	10
490.211	1	30
490.381	1	16
490.551	1	23
490.721	1	32
490.892	1	33
491.062	1	24
491.232	1	25
491.402	1	19
491.573	1	22
491.743	1	25
491.913	1	17
492.084	1	19
492.254	1	35
492.424	1	17
492.594	1	25
492.765	1	17
492.935	1	26
493.105	1	30
493.275	1	25
493.446	1	32
493.616	1	20
493.786	1	24
493.956	1	27
494.127	1	6
494.297	1	23
494.467	1	29
494.637	1	21
494.808	1	18
494.978	1	12
495.148	1	30
495.318	1	15
495.489	1	21
495.659	1	20
495.829	1	25
495.999	1	21
496.170	1	29
496.340	1	17
496.510	1	25
496.680	1	29
496.851	1	9
497.021	1	15
497.191	1	18
497.361	1	21
497.532	1	14
497.702	1	23
497.872	1	18
498.042	1	29
498.213	1	21
498.383	1	26
498.553	1	18
498.723	1	17
498.894	1	23
499.064	1	30
499.234	1	20
499.404	1	31
499.574	1	22
499.745	1	22
499.915	1	16
500.085	1	16
500.255	1	16
500.426	1	12
500.596	1	25
500.766	1	19
500.936	1	17
501.106	1	26
501.277	1	30
501.447	1	21
501.617	1	11
501.787	1	17
501.958	1	16
502.128	1	30
502.298	1	26
502.468	1	18
502.638	1	19
502.809	1	16
502.979	1	18
503.149	1	18
503.319	1	17
503.489	1	13
503.660	1	18
503.830	1	25
504.000	1	20
504.170	1	17
504.340	1	24
504.511	1	28
504.681	1	25
504.851	1	20
505.021	1	19
505.192	1	16
505.362	1	14
505.532	1	8
505.702	1	2
505.872	1	28
506.043	1	12
506.213	1	22
506.383	1	20
506.553	1	22
506.723	1	22
506.893	1	24
507.064	1	13
507.234	1	10
507.404	1	25
507.574	1	18
507.744	1	21
507.915	1	14
508.085	1	3
508.255	1	25
508.425	1	23
508.595	1	24
508.766	1	9
508.936	1	13
509.106	1	11
509.276	1	24
509.446	1	23
509.616	1	17
509.787	1	15
509.957	1	7
510.127	1	23
510.297	1	26
510.467	1	8
510.638	1	20
510.808	1	13
510.978	1	14
511.148	1	27
511.318	1	22
511.488	1	14
511.659	1	20
511.829	1	22
511.999	1	17
512.169	1	10
512.339	1	12
512.509	1	14
512.680	1	10
512.850	1	12
513.020	1	17
513.190	1	20
513.360	1	13
513.530	1	21
513.700	1	5
513.871	1	17
514.041	1	4
514.211	1	17
514.381	1	21
514.551	1	11
514.721	1	13
514.892	1	6
515.062	1	18
515.232	1	21
515.402	1	18
515.572	1	14
515.742	1	21
515.912	1	20
516.083	1	12
516.253	1	18
516.423	1	8
516.593	1	14
516.763	1	26
516.933	1	23
517.104	1	7
517.274	1	20
517.444	1	9
517.614	1	14
517.784	1	16
517.954	1	16
518.124	1	16
518.294	1	12
518.465	1	17
518.635	1	19
518.805	1	13
518.975	1	4
519.145	1	18
519.315	1	13
519.485	1	7
519.656	1	19
519.826	1	4
519.996	1	15
520.166	1	16
520.336	1	8
520.506	1	19
520.676	1	19
520.846	1	7
521.017	1	21
521.187	1	11
521.357	1	25
521.527	1	12
521.697	1	18
521.867	1	12
522.037	1	9
522.207	1	20
522.377	1	17
522.548	1	13
522.718	1	13
522.888	1	17
523.058	1	12
523.228	1	13
523.398	1	11
523.568	1	13
523.738	1	13
523.909	1	9
524.079	1	16
524.249	1	4
524.419	1	18
524.589	1	13
524.759	1	24
524.929	1	15
525.099	1	-7
525.269	1	6
525.439	1	18
525.610	1	11
525.780	1	10
525.950	1	19
526.120	1	7
526.290	1	13
526.460	1	24
526.630	1	22
526.800	1	17
526.970	1	9
527.140	1	12
527.311	1	21
527.481	1	3
527.651	1	18
527.821	1	4
527.991	1	-1
528.161	1	3
528.331	1	16
528.501	1	14
528.671	1	25
528.841	1	23
529.011	1	14
529.181	1	14
529.352	1	13
529.522	1	17
529.692	1	7
529.862	1	15
530.032	1	16
530.202	1	15
530.372	1	15
530.542	1	11
530.712	1	22
530.882	1	13
531.052	1	8
531.222	1	4
531.392	1	5
531.563	1	5
531.733	1	16
531.903	1	14
532.073	1	11
532.243	1	16
532.413	1	7
532.583	1	15
532.753	1	16
532.923	1	16
533.093	1	12
533.263	1	11
533.433	1	12
533.603	1	12
533.773	1	17
533.943	1	16
534.113	1	12
534.284	1	4
534.454	1	19
534.624	1	19
534.794	1	21
534.964	1	11
535.134	1	21
535.304	1	20
535.474	1	2
535.644	1	9
535.814	1	18
535.984	1	15
536.154	1	6
536.324	1	7
536.494	1	11
536.664	1	7
536.834	1	18
537.004	1	-9
537.174	1	11
537.344	1	11
537.514	1	9
537.685	1	14
537.855	1	14
538.025	1	10
538.195	1	11
538.365	1	21
538.535	1	2
538.705	1	7
538.875	1	3
539.045	1	13
539.215	1	19
539.385	1	3
539.555	1	5
539.725	1	4
539.895	1	8
540.065	1	7
540.235	1	13
540.405	1	3
540.575	1	8
540.745	1	13
540.915	1	10
541.085	1	13
541.255	1	19
541.425	1	5
541.595	1	14
541.765	1	19
541.935	1	8
542.105	1	9
542.275	1	7
542.445	1	12
542.615	1	12
542.785	1	14
542.955	1	-4
543.125	1	9
543.295	1	22
543.465	1	11
543.635	1	12
543.805	1	7
543.975	1	-6
544.145	1	17
544.315	1	1
544.485	1	23
544.655	1	4
544.825	1	12
544.995	1	13
545.165	1	13
545.335	1	11
545.505	1	8
545.675	1	8
545.845	1	6
546.015	1	13
546.185	1	5
546.355	1	2
546.525	1	6
546.695	1	-4
546.865	1	15
547.035	1	8
547.205	1	22
547.375	1	15
547.545	1	3
547.715	1	6
547.885	1	6
548.055	1	0
548.225	1	16
548.395	1	1
548.565	1	20
548.735	1	3
548.905	1	10
549.075	1	14
549.245	1	10
549.415	1	6
549.585	1	6
549.755	1	19
549.925	1	16
550.095	1	0
550.265	1	20
550.435	1	5
550.605	1	6
550.775	1	8
550.945	1	11
551.115	1	13
551.285	1	7
551.455	1	6
551.625	1	3
551.795	1	4
551.965	1	5
552.135	1	8
552.305	1	9
552.475	1	14
552.645	1	5
552.815	1	12
552.985	1	5
553.155	1	13
553.325	1	1
553.495	1	6
553.665	1	-1
553.835	1	15
554.004	1	21
554.174	1	12
554.344	1	1
554.514	1	16
554.684	1	8
554.854	1	11
555.024	1	8
555.194	1	5
555.364	1	17
555.534	1	0
555.704	1	17
555.874	1	14
556.044	1	5
556.214	1	16
556.384	1	9
556.554	1	6
556.724	1	6
556.894	1	7
557.064	1	17
557.234	1	4
557.404	1	16
557.573	1	0
557.743	1	5
557.913	1	18
558.083	1	8
558.253	1	8
558.423	1	9
558.593	1	11
558.763	1	13
558.933	1	5
559.103	1	17
559.273	1	6
559.443	1	15
559.613	1	6
559.783	1	6
559.953	1	4
560.122	1	7
560.292	1	18
560.462	1	17
560.632	1	-5
560.802	1	2
560.972	1	5
561.142	1	13
561.312	1	2
561.482	1	7
561.652	1	2
561.822	1	9
561.992	1	7
562.162	1	9
562.331	1	14
562.501	1	1
562.671	1	22
562.841	1	2
563.011	1	8
563.181	1	13
563.351	1	6
563.521	1	2
563.691	1	10
563.861	1	11
564.031	1	2
564.201	1	5
564.370	1	4
564.540	1	16
564.710	1	11
564.880	1	7
565.050	1	15
565.220	1	11
565.390	1	2
565.560	1	12
565.730	1	3
565.900	1	15
566.069	1	8
566.239	1	3
566.409	1	0
566.579	1	18
566.749	1	1
566.919	1	-6
567.089	1	11
567.259	1	9
567.429	1	4
567.599	1	12
567.768	1	10
567.938	1	6
568.108	1	3
568.278	1	17
568.448	1	9
568.618	1	1
568.788	1	3
568.958	1	1
569.128	1	10
569.297	1	-4
569.467	1	11
569.637	1	17
569.807	1	17
569.977	1	6
570.147	1	12
570.317	1	3
570.487	1	4
570.656	1	6
570.826	1	2
570.996	1	2
571.166	1	15
571.336	1	2
571.506	1	2
571.676	1	16
571.846	1	12
572.015	1	8
572.185	1	8
572.355	1	4
572.525	1	-12
572.695	1	8
572.865	1	-3
573.035	1	12
573.205	1	16
573.374	1	10
573.544	1	9
573.714	1	-1
573.884	1	6
574.054	1	10
574.224	1	11
574.394	1	3
574.563	1	12
574.733	1	4
574.903	1	15
575.073	1	10
575.243	1	4
575.413	1	2
575.583	1	14
575.752	1	4
575.922	1	-5
576.092	1	-1
576.262	1	2
576.432	1	11
576.602	1	-4
576.772	1	18
576.941	1	1
577.111	1	0
577.281	1	-2
577.451	1	8
577.621	1	5
577.791	1	16
577.960	1	7
578.130	1	6
578.300	1	1
578.470	1	-4
578.640	1	13
578.810	1	-1
578.979	1	-1
579.149	1	1
579.319	1	7
579.489	1	1
579.659	1	1
579.829	1	9
579.998	1	1
580.168	1	8
580.338	1	3
580.508	1	6
580.678	1	5
580.848	1	3
581.017	1	22
581.187	1	14
581.357	1	-4
581.527	1	0
581.697	1	7
581.867	1	12
582.036	1	2
582.206	1	13
582.376	1	12
582.546	1	3
582.716	1	7
582.885	1	3
583.055	1	4
583.225	1	7
583.395	1	12
583.565	1	5
583.735	1	7
583.904	1	12
584.074	1	-11
584.244	1	-13
584.414	1	1
584.584	1	9
584.753	1	5
584.923	1	3
585.093	1	12
585.263	1	4
585.433	1	3
585.602	1	4
585.772	1	-5
585.942	1	11
586.112	1	0
586.282	1	10
586.451	1	11
586.621	1	14
586.791	1	9
586.961	1	15
587.131	1	8
587.300	1	8
587.470	1	-2
587.640	1	9
587.810	1	6
587.980	1	5
588.149	1	14
588.319	1	16
588.489	1	6
588.659	1	-1
588.829	1	7
588.998	1	3
589.168	1	6
589.338	1	8
589.508	1	8
589.677	1	16
589.847	1	7
590.017	1	12
590.187	1	10
590.357	1	8
590.526	1	3
590.696	1	-11
590.866	1	9
591.036	1	12
591.205	1	16
591.375	1	-4
591.545	1	2
591.715	1	10
591.885	1	19
592.054	1	2
592.224	1	11
592.394	1	-1
592.564	1	4
592.733	1	-1
592.903	1	6
593.073	1	9
593.243	1	15
593.412	1	8
593.582	1	13
593.752	1	7
593.922	1	4
594.091	1	9
594.261	1	5
594.431	1	16
594.601	1	1
594.771	1	12
594.940	1	15
595.110	1	6
595.280	1	7
595.450	1	10
595.619	1	7
595.789	1	6
595.959	1	10
596.129	1	1
596.298	1	9
596.468	1	-4
596.638	1	6
596.808	1	11
596.977	1	14
597.147	1	3
597.317	1	0
597.487	1	15
597.656	1	-2
597.826	1	7
597.996	1	9
598.166	1	9
598.335	1	10
598.505	1	16
598.675	1	1
598.844	1	-5
599.014	1	10
599.184	1	7
599.354	1	10
599.523	1	11
599.693	1	17
599.863	1	12
600.033	1	-5
600.202	1	14
600.372	1	-3
600.542	1	3
600.712	1	11
600.881	1	3
601.051	1	7
601.221	1	11
601.390	1	-2
601.560	1	15
601.730	1	12
601.900	1	9
602.069	1	11
602.239	1	6
602.409	1	10
602.578	1	0
602.748	1	13
602.918	1	8
603.088	1	7
603.257	1	10
603.427	1	10
603.597	1	2
603.767	1	10
603.936	1	-4
604.106	1	9
604.276	1	13
604.445	1	13
604.615	1	3
604.785	1	10
604.954	1	13
605.124	1	-2
605.294	1	15
605.464	1	9
605.633	1	14
605.803	1	12
605.973	1	9
606.142	1	8
606.312	1	3
606.482	1	11
606.652	1	6
606.821	1	3
606.991	1	2
607.161	1	12
607.330	1	-5
607.500	1	15
607.670	1	9
607.839	1	20
608.009	1	12
608.179	1	13
608.348	1	9
608.518	1	6
608.688	1	4
608.858	1	13
609.027	1	2
609.197	1	-1
609.367	1	18
609.536	1	12
609.706	1	12
609.876	1	12
610.045	1	5
610.215	1	6
610.385	1	-6
610.554	1	2
610.724	1	4
610.894	1	9
611.063	1	0
611.233	1	10
611.403	1	4
611.572	1	15
611.742	1	11
611.912	1	12
612.081	1	12
612.251	1	6
612.421	1	7
612.590	1	20
612.760	1	13
612.930	1	6
613.099	1	9
613.269	1	-4
613.439	1	1
613.608	1	15
613.778	1	-4
613.948	1	9
614.117	1	21
614.287	1	10
614.457	1	5
614.626	1	7
614.796	1	8
614.966	1	11
615.135	1	8
615.305	1	11
615.475	1	12
615.644	1	8
615.814	1	3
615.984	1	11
616.153	1	2
616.323	1	12
616.493	1	16
616.662	1	8
616.832	1	10
617.002	1	14
617.171	1	11
617.341	1	7
617.511	1	10
617.680	1	17
617.850	1	15
618.019	1	8
618.189	1	20
618.359	1	8
618.528	1	6
618.698	1	17
618.868	1	5
619.037	1	20
619.207	1	12
619.377	1	1
619.546	1	12
619.716	1	14
619.885	1	9
620.055	1	13
620.225	1	19
620.394	1	3
620.564	1	22
620.734	1	14
620.903	1	10
621.073	1	-1
621.242	1	15
621.412	1	9
621.582	1	13
621.751	1	15
621.921	1	24
622.091	1	12
622.260	1	0
622.430	1	9
622.599	1	6
622.769	1	16
622.939	1	11
623.108	1	12
623.278	1	12
623.448	1	14
623.617	1	7
623.787	1	17
623.956	1	17
624.126	1	25
624.296	1	12
624.465	1	13
624.635	1	21
624.804	1	8
624.974	1	18
625.144	1	4
625.313	1	11
625.483	1	29
625.652	1	17
625.822	1	10
625.992	1	9
626.161	1	11
626.331	1	13
626.501	1	15
626.670	1	22
626.840	1	20
627.009	1	16
627.179	1	11
627.348	1	21
627.518	1	17
627.688	1	17
627.857	1	33
628.027	1	1
628.196	1	4
628.366	1	13
628.536	1	7
628.705	1	10
628.875	1	20
629.044	1	15
629.214	1	26
629.384	1	14
629.553	1	18
629.723	1	5
629.892	1	22
630.062	1	10
630.232	1	12
630.401	1	15
630.571	1	19
630.740	1	12
630.910	1	22
631.079	1	14
631.249	1	3
631.419	1	9
631.588	1	1
631.758	1	14
631.927	1	18
632.097	1	17
632.266	1	12
632.436	1	20
632.606	1	11
632.775	1	22
632.945	1	16
633.114	1	12
633.284	1	6
633.453	1	9
633.623	1	21
633.793	1	6
633.962	1	19
634.132	1	9
634.301	1	21
634.471	1	2
634.640	1	7
634.810	1	6
634.979	1	12
635.149	1	10
635.319	1	19
635.488	1	20
635.658	1	12
635.827	1	16
635.997	1	17
636.166	1	14
636.336	1	9
636.505	1	22
636.675	1	19
636.845	1	4
637.014	1	6
637.184	1	18
637.353	1	4
637.523	1	13
637.692	1	18
637.862	1	11
638.031	1	10
638.201	1	19
638.370	1	4
638.540	1	10
638.710	1	23
638.879	1	10
639.049	1	16
639.218	1	13
639.388	1	17
639.557	1	21
639.727	1	21
639.896	1	8
640.066	1	15
640.235	1	16
640.405	1	6
640.574	1	12
640.744	1	25
640.914	1	13
641.083	1	18
641.253	1	29
641.422	1	7
641.592	1	8
641.761	1	6
641.931	1	5
642.100	1	9
642.270	1	3
642.439	1	4
642.609	1	17
642.778	1	4
642.948	1	10
643.117	1	23
643.287	1	16
643.456	1	21
643.626	1	18
643.795	1	17
643.965	1	18
644.134	1	17
644.304	1	20
644.473	1	18
644.643	1	12
644.812	1	20
644.982	1	10
645.151	1	23
645.321	1	13
645.490	1	12
645.660	1	11
645.829	1	13
645.999	1	15
646.168	1	-1
646.338	1	14
646.507	1	25
646.677	1	19
646.846	1	6
647.016	1	20
647.185	1	-2
647.355	1	17
647.524	1	18
647.694	1	7
647.863	1	15
648.033	1	5
648.202	1	16
648.372	1	16
648.541	1	14
648.711	1	16
648.880	1	12
649.050	1	17
649.219	1	7
649.389	1	7
649.558	1	2
649.728	1	14
649.897	1	15
650.067	1	15
650.236	1	12
650.406	1	3
650.575	1	15
650.745	1	12
650.914	1	11
651.084	1	10
651.253	1	26
651.423	1	22
651.592	1	18
651.762	1	17
651.931	1	9
652.101	1	11
652.270	1	16
652.440	1	7
652.609	1	14
652.778	1	12
652.948	1	5
653.117	1	4
653.287	1	18
653.456	1	26
653.626	1	3
653.795	1	16
653.965	1	12
654.134	1	14
654.304	1	15
654.473	1	21
654.643	1	15
654.812	1	10
654.982	1	14
655.151	1	14
655.320	1	17
655.490	1	15
655.659	1	11
655.829	1	21
655.998	1	11
656.168	1	10
656.337	1	18
656.507	1	0
656.676	1	13
656.846	1	14
657.015	1	8
657.184	1	11
657.354	1	17
657.523	1	18
657.693	1	14
657.862	1	16
658.032	1	9
658.201	1	14
658.371	1	5
658.540	1	11
658.709	1	18
658.879	1	4
659.048	1	13
659.218	1	14
659.387	1	11
659.557	1	13
659.726	1	13
659.895	1	14
660.065	1	6
660.234	1	12
660.404	1	20
660.573	1	18
660.743	1	21
660.912	1	15
661.081	1	25
661.251	1	10
661.420	1	14
661.590	1	11
661.759	1	10
661.929	1	20
662.098	1	12
662.267	1	9
662.437	1	23
662.606	1	16
662.776	1	14
662.945	1	15
663.115	1	21
663.284	1	19
663.453	1	11
663.623	1	20
663.792	1	13
663.962	1	18
664.131	1	15
664.300	1	14
664.470	1	19
664.639	1	13
664.809	1	9
664.978	1	6
665.148	1	21
665.317	1	16
665.486	1	16
665.656	1	-1
665.825	1	15
665.995	1	9
666.164	1	11
666.333	1	10
666.503	1	16
666.672	1	11
666.842	1	14
667.011	1	22
667.180	1	13
667.350	1	13
667.519	1	8
667.689	1	15
667.858	1	8
668.027	1	28
668.197	1	14
668.366	1	10
668.536	1	21
668.705	1	12
668.874	1	12
669.044	1	11
669.213	1	22
669.382	1	1
669.552	1	9
669.721	1	16
669.891	1	12
670.060	1	27
670.229	1	8
670.399	1	11
670.568	1	10
670.738	1	4
670.907	1	25
671.076	1	12
671.246	1	21
671.415	1	17
671.584	1	13
671.754	1	15
671.923	1	26
672.093	1	25
672.262	1	27
672.431	1	5
672.601	1	16
672.770	1	14
672.939	1	11
673.109	1	17
673.278	1	20
673.448	1	11
673.617	1	2
673.786	1	17
