325.333	1	11
325.504	1	4
325.675	1	-3
325.846	1	5
326.017	1	8
326.188	1	2
326.359	1	2
326.531	1	1
326.702	1	9
326.873	1	3
327.044	1	0
327.215	1	4
327.386	1	4
327.557	1	3
327.728	1	11
327.899	1	20
328.070	1	7
328.241	1	7
328.412	1	1
328.583	1	-3
328.754	1	-2
328.926	1	7
329.097	1	1
329.268	1	-1
329.439	1	5
329.610	1	10
329.781	1	-3
329.952	1	14
330.123	1	5
330.294	1	-6
330.465	1	6
330.636	1	8
330.807	1	1
330.978	1	8
331.149	1	5
331.320	1	9
331.492	1	11
331.663	1	9
331.834	1	2
332.005	1	8
332.176	1	6
332.347	1	18
332.518	1	2
332.689	1	3
332.860	1	9
333.031	1	2
333.202	1	-12
333.373	1	21
333.544	1	3
333.715	1	10
333.886	1	1
334.057	1	11
334.228	1	7
334.399	1	6
334.570	1	6
334.741	1	1
334.912	1	12
335.084	1	10
335.255	1	6
335.426	1	5
335.597	1	5
335.768	1	6
335.939	1	10
336.110	1	5
336.281	1	5
336.452	1	13
336.623	1	9
336.794	1	1
336.965	1	4
337.136	1	5
337.307	1	13
337.478	1	5
337.649	1	10
337.820	1	1
337.991	1	2
338.162	1	2
338.333	1	4
338.504	1	-1
338.675	1	10
338.846	1	13
339.017	1	16
339.188	1	8
339.359	1	4
339.530	1	8
339.701	1	2
339.872	1	8
340.043	1	-3
340.214	1	-1
340.385	1	11
340.556	1	8
340.727	1	15
340.898	1	6
341.069	1	10
341.240	1	9
341.411	1	4
341.582	1	15
341.753	1	0
341.924	1	-1
342.095	1	10
342.266	1	11
342.437	1	12
342.608	1	10
342.779	1	9
342.950	1	15
343.121	1	13
343.292	1	8
343.463	1	11
343.634	1	5
343.805	1	6
343.976	1	6
344.147	1	-2
344.318	1	16
344.489	1	15
344.660	1	5
344.831	1	11
345.002	1	8
345.173	1	-7
345.344	1	5
345.515	1	-8
345.686	1	16
345.857	1	4
346.028	1	-2
346.199	1	-1
346.370	1	5
346.541	1	0
346.712	1	13
346.883	1	8
347.054	1	3
347.225	1	10
347.396	1	0
347.567	1	15
347.738	1	-4
347.909	1	7
348.080	1	2
348.251	1	7
348.422	1	4
348.593	1	-3
348.764	1	14
348.935	1	5
349.106	1	9
349.277	1	9
349.448	1	2
349.619	1	5
349.790	1	7
349.961	1	6
350.132	1	15
350.303	1	17
350.474	1	0
350.645	1	10
350.816	1	-5
350.987	1	9
351.157	1	8
351.328	1	22
351.499	1	6
351.670	1	9
351.841	1	16
352.012	1	12
352.183	1	-2
352.354	1	8
352.525	1	9
352.696	1	14
352.867	1	2
353.038	1	1
353.209	1	5
353.380	1	-2
353.551	1	1
353.722	1	8
353.893	1	-1
354.064	1	9
354.235	1	3
354.406	1	14
354.576	1	10
354.747	1	4
354.918	1	3
355.089	1	-1
355.260	1	7
355.431	1	7
355.602	1	7
355.773	1	-6
355.944	1	2
356.115	1	7
356.286	1	5
356.457	1	0
356.628	1	3
356.799	1	2
356.970	1	11
357.141	1	6
357.311	1	12
357.482	1	2
357.653	1	5
357.824	1	9
357.995	1	-1
358.166	1	-5
358.337	1	8
358.508	1	10
358.679	1	8
358.850	1	-4
359.021	1	4
359.192	1	9
359.363	1	7
359.533	1	-10
359.704	1	18
359.875	1	10
360.046	1	11
360.217	1	7
360.388	1	7
360.559	1	10
360.730	1	4
360.901	1	5
361.072	1	2
361.243	1	-4
361.414	1	7
361.584	1	-5
361.755	1	0
361.926	1	11
362.097	1	8
362.268	1	0
362.439	1	-1
362.610	1	6
362.781	1	2
362.952	1	3
363.123	1	2
363.293	1	2
363.464	1	11
363.635	1	4
363.806	1	4
363.977	1	7
364.148	1	-2
364.319	1	-4
364.490	1	5
364.661	1	-1
364.832	1	13
365.002	1	12
365.173	1	-6
365.344	1	9
365.515	1	-5
365.686	1	-1
365.857	1	9
366.028	1	1
366.199	1	8
366.370	1	7
366.540	1	9
366.711	1	-6
366.882	1	-1
367.053	1	-3
367.224	1	2
367.395	1	6
367.566	1	-4
367.737	1	4
367.908	1	3
368.078	1	10
368.249	1	8
368.420	1	3
368.591	1	5
368.762	1	-5
368.933	1	5
369.104	1	18
369.274	1	-12
369.445	1	5
369.616	1	8
369.787	1	11
369.958	1	3
370.129	1	-10
370.300	1	5
370.471	1	5
370.641	1	-6
370.812	1	3
370.983	1	3
371.154	1	-4
371.325	1	11
371.496	1	5
371.667	1	7
371.837	1	5
372.008	1	-2
372.179	1	-5
372.350	1	-7
372.521	1	1
372.692	1	2
372.863	1	1
373.033	1	5
373.204	1	-4
373.375	1	5
373.546	1	19
373.717	1	0
373.888	1	12
374.059	1	2
374.229	1	-2
374.400	1	-2
374.571	1	12
374.742	1	0
374.913	1	5
375.084	1	12
375.254	1	9
375.425	1	-5
375.596	1	15
375.767	1	5
375.938	1	9
376.109	1	12
376.279	1	-3
376.450	1	2
376.621	1	-9
376.792	1	8
376.963	1	-1
377.134	1	8
377.304	1	11
377.475	1	10
377.646	1	5
377.817	1	3
377.988	1	0
378.159	1	10
378.329	1	9
378.500	1	6
378.671	1	8
378.842	1	15
379.013	1	4
379.184	1	-7
379.354	1	7
379.525	1	-5
379.696	1	11
379.867	1	1
380.038	1	7
380.209	1	4
380.379	1	5
380.550	1	17
380.721	1	0
380.892	1	1
381.063	1	3
381.233	1	4
381.404	1	1
381.575	1	10
381.746	1	14
381.917	1	14
382.087	1	14
382.258	1	20
382.429	1	3
382.600	1	-4
382.771	1	7
382.941	1	16
383.112	1	-6
383.283	1	13
383.454	1	2
383.625	1	4
383.795	1	2
383.966	1	0
384.137	1	8
384.308	1	-3
384.479	1	1
384.649	1	8
384.820	1	19
384.991	1	5
385.162	1	10
385.333	1	-1
385.503	1	3
385.674	1	-8
385.845	1	14
386.016	1	5
386.187	1	5
386.357	1	6
386.528	1	-9
386.699	1	6
386.870	1	-8
387.041	1	16
387.211	1	6
387.382	1	-6
387.553	1	10
387.724	1	16
387.894	1	11
388.065	1	3
388.236	1	12
388.407	1	4
388.578	1	-8
388.748	1	-1
388.919	1	-1
389.090	1	10
389.261	1	5
389.431	1	9
389.602	1	13
389.773	1	10
389.944	1	15
390.114	1	21
390.285	1	-2
390.456	1	5
390.627	1	5
390.798	1	9
390.968	1	15
391.139	1	1
391.310	1	13
391.481	1	9
391.651	1	15
391.822	1	13
391.993	1	2
392.164	1	10
392.334	1	-3
392.505	1	7
392.676	1	4
392.847	1	9
393.017	1	16
393.188	1	11
393.359	1	15
393.530	1	16
393.700	1	-5
393.871	1	1
394.042	1	4
394.213	1	2
394.383	1	6
394.554	1	16
394.725	1	-1
394.896	1	5
395.066	1	15
395.237	1	15
395.408	1	14
395.579	1	-2
395.749	1	7
395.920	1	-3
396.091	1	19
396.262	1	-2
396.432	1	15
396.603	1	4
396.774	1	10
396.945	1	13
397.115	1	-1
397.286	1	8
397.457	1	1
397.627	1	2
397.798	1	9
397.969	1	13
398.140	1	9
398.310	1	5
398.481	1	3
398.652	1	1
398.823	1	14
398.993	1	8
399.164	1	11
399.335	1	22
399.505	1	-11
399.676	1	8
399.847	1	5
400.018	1	13
400.188	1	7
400.359	1	10
400.530	1	15
400.700	1	11
400.871	1	4
401.042	1	20
401.213	1	1
401.383	1	14
401.554	1	6
401.725	1	11
401.895	1	1
402.066	1	1
402.237	1	13
402.408	1	7
402.578	1	4
402.749	1	10
402.920	1	9
403.090	1	11
403.261	1	13
403.432	1	8
403.603	1	6
403.773	1	21
403.944	1	7
404.115	1	2
404.285	1	13
404.456	1	4
404.627	1	10
404.797	1	7
404.968	1	16
405.139	1	3
405.310	1	19
405.480	1	24
405.651	1	-6
405.822	1	12
405.992	1	-7
406.163	1	16
406.334	1	13
406.504	1	14
406.675	1	23
406.846	1	19
407.016	1	18
407.187	1	12
407.358	1	6
407.528	1	6
407.699	1	1
407.870	1	13
408.041	1	14
408.211	1	8
408.382	1	13
408.553	1	17
408.723	1	9
408.894	1	4
409.065	1	3
409.235	1	12
409.406	1	10
409.577	1	2
409.747	1	2
409.918	1	7
410.089	1	13
410.259	1	7
410.430	1	11
410.601	1	7
410.771	1	13
410.942	1	14
411.113	1	13
411.283	1	10
411.454	1	15
411.625	1	18
411.795	1	-3
411.966	1	23
412.137	1	20
412.307	1	8
412.478	1	12
412.649	1	14
412.819	1	10
412.990	1	16
413.161	1	18
413.331	1	2
413.502	1	13
413.672	1	18
413.843	1	5
414.014	1	8
414.184	1	13
414.355	1	22
414.526	1	10
414.696	1	5
414.867	1	6
415.038	1	7
415.208	1	13
415.379	1	15
415.550	1	17
415.720	1	-3
415.891	1	25
416.062	1	11
416.232	1	7
416.403	1	13
416.573	1	16
416.744	1	12
416.915	1	18
417.085	1	10
417.256	1	12
417.427	1	10
417.597	1	16
417.768	1	26
417.939	1	13
418.109	1	10
418.280	1	-4
418.450	1	9
418.621	1	14
418.792	1	14
418.962	1	1
419.133	1	11
419.304	1	0
419.474	1	11
419.645	1	27
419.815	1	9
419.986	1	15
420.157	1	10
420.327	1	3
420.498	1	9
420.669	1	12
420.839	1	4
421.010	1	11
421.180	1	11
421.351	1	13
421.522	1	6
421.692	1	11
421.863	1	12
422.033	1	8
422.204	1	17
422.375	1	12
422.545	1	11
422.716	1	8
422.886	1	13
423.057	1	13
423.228	1	13
423.398	1	5
423.569	1	14
423.740	1	16
423.910	1	10
424.081	1	20
424.251	1	3
424.422	1	-2
424.593	1	13
424.763	1	24
424.934	1	13
425.104	1	4
425.275	1	24
425.445	1	7
425.616	1	9
425.787	1	3
425.957	1	8
426.128	1	10
426.298	1	11
426.469	1	13
426.640	1	12
426.810	1	20
426.981	1	9
427.151	1	2
427.322	1	17
427.493	1	11
427.663	1	17
427.834	1	18
428.004	1	7
428.175	1	19
428.345	1	8
428.516	1	21
428.687	1	14
428.857	1	0
429.028	1	3
429.198	1	20
429.369	1	17
429.540	1	11
429.710	1	7
429.881	1	-1
430.051	1	19
430.222	1	11
430.392	1	14
430.563	1	18
430.734	1	10
430.904	1	7
431.075	1	16
431.245	1	6
431.416	1	21
431.586	1	6
431.757	1	12
431.927	1	23
432.098	1	9
432.269	1	4
432.439	1	16
432.610	1	13
432.780	1	4
432.951	1	13
433.121	1	10
433.292	1	13
433.462	1	10
433.633	1	1
433.804	1	7
433.974	1	18
434.145	1	4
434.315	1	7
434.486	1	22
434.656	1	18
434.827	1	7
434.997	1	15
435.168	1	12
435.339	1	9
435.509	1	6
435.680	1	12
435.850	1	10
436.021	1	21
436.191	1	11
436.362	1	15
436.532	1	18
436.703	1	13
436.873	1	11
437.044	1	1
437.214	1	1
437.385	1	15
437.556	1	12
437.726	1	16
437.897	1	17
438.067	1	2
438.238	1	12
438.408	1	3
438.579	1	4
438.749	1	1
438.920	1	17
439.090	1	9
439.261	1	12
439.431	1	2
439.602	1	8
439.772	1	6
439.943	1	7
440.113	1	14
440.284	1	7
440.455	1	13
440.625	1	26
440.796	1	5
440.966	1	10
441.137	1	-2
441.307	1	16
441.478	1	15
441.648	1	6
441.819	1	10
441.989	1	19
442.160	1	3
442.330	1	5
442.501	1	9
442.671	1	4
442.842	1	7
443.012	1	8
443.183	1	6
443.353	1	10
443.524	1	5
443.694	1	15
443.865	1	11
444.035	1	12
444.206	1	12
444.376	1	9
444.547	1	25
444.717	1	1
444.888	1	8
445.058	1	12
445.229	1	3
445.399	1	2
445.570	1	2
445.740	1	-1
445.911	1	20
446.081	1	15
446.252	1	10
446.422	1	15
446.593	1	3
446.763	1	5
446.934	1	6
447.104	1	9
447.275	1	12
447.445	1	10
447.616	1	19
447.786	1	6
447.957	1	12
448.127	1	22
448.298	1	4
448.468	1	7
448.639	1	7
448.809	1	14
448.979	1	-1
449.150	1	3
449.320	1	10
449.491	1	16
449.661	1	24
449.832	1	3
450.002	1	12
450.173	1	3
450.343	1	3
450.514	1	13
450.684	1	11
450.855	1	16
451.025	1	9
451.196	1	7
451.366	1	13
451.537	1	8
451.707	1	15
451.878	1	-7
452.048	1	10
452.218	1	3
452.389	1	18
452.559	1	-8
452.730	1	5
452.900	1	11
453.071	1	3
453.241	1	14
453.412	1	11
453.582	1	13
453.753	1	-9
453.923	1	16
454.093	1	16
454.264	1	22
454.434	1	16
454.605	1	7
454.775	1	20
454.946	1	16
455.116	1	16
455.287	1	1
455.457	1	5
455.628	1	12
455.798	1	4
455.968	1	7
456.139	1	-2
456.309	1	20
456.480	1	13
456.650	1	18
456.821	1	15
456.991	1	10
457.161	1	10
457.332	1	13
457.502	1	2
457.673	1	6
457.843	1	16
458.014	1	7
458.184	1	6
458.355	1	4
458.525	1	8
458.695	1	4
458.866	1	7
459.036	1	5
459.207	1	-4
459.377	1	22
459.548	1	-3
459.718	1	9
459.888	1	15
460.059	1	3
460.229	1	3
460.400	1	11
460.570	1	9
460.740	1	0
460.911	1	9
461.081	1	1
461.252	1	21
461.422	1	11
461.593	1	0
461.763	1	20
461.933	1	6
462.104	1	14
462.274	1	10
462.445	1	7
462.615	1	6
462.785	1	-2
462.956	1	11
463.126	1	0
463.297	1	7
463.467	1	19
463.638	1	0
463.808	1	7
463.978	1	-3
464.149	1	11
464.319	1	3
464.490	1	3
464.660	1	2
464.830	1	3
465.001	1	9
465.171	1	3
465.342	1	12
465.512	1	18
465.682	1	10
465.853	1	7
466.023	1	9
466.194	1	2
466.364	1	9
466.534	1	11
466.705	1	3
466.875	1	14
467.045	1	5
467.216	1	4
467.386	1	5
467.557	1	-3
467.727	1	10
467.897	1	0
468.068	1	7
468.238	1	6
468.409	1	3
468.579	1	7
468.749	1	9
468.920	1	2
469.090	1	7
469.260	1	-2
469.431	1	5
469.601	1	-1
469.772	1	8
469.942	1	18
470.112	1	14
470.283	1	26
470.453	1	11
470.623	1	5
470.794	1	4
470.964	1	-2
471.135	1	5
471.305	1	13
471.475	1	1
471.646	1	3
471.816	1	8
471.986	1	9
472.157	1	6
472.327	1	3
472.497	1	0
472.668	1	6
472.838	1	5
473.009	1	16
473.179	1	17
473.349	1	5
473.520	1	11
473.690	1	6
473.860	1	6
474.031	1	4
474.201	1	4
474.371	1	11
474.542	1	13
474.712	1	-5
474.882	1	17
475.053	1	5
475.223	1	6
475.394	1	4
475.564	1	-1
475.734	1	-1
475.905	1	7
476.075	1	-3
476.245	1	12
476.416	1	-4
476.586	1	8
476.756	1	10
476.927	1	6
477.097	1	18
477.267	1	4
477.438	1	-12
477.608	1	5
477.778	1	16
477.949	1	10
478.119	1	3
478.289	1	11
478.460	1	4
478.630	1	-2
478.800	1	1
478.971	1	13
479.141	1	1
479.311	1	-2
479.482	1	1
479.652	1	5
479.822	1	2
479.993	1	4
480.163	1	6
480.333	1	5
480.504	1	9
480.674	1	1
480.844	1	10
481.015	1	2
481.185	1	4
481.355	1	-12
481.525	1	10
481.696	1	9
481.866	1	-2
482.036	1	13
482.207	1	6
482.377	1	3
482.547	1	9
482.718	1	1
482.888	1	2
483.058	1	8
483.229	1	5
483.399	1	6
483.569	1	13
483.740	1	-1
483.910	1	-16
484.080	1	5
484.250	1	13
484.421	1	7
484.591	1	9
484.761	1	4
484.932	1	5
485.102	1	6
485.272	1	3
485.443	1	0
485.613	1	3
485.783	1	0
485.953	1	-5
486.124	1	-11
486.294	1	3
486.464	1	4
486.635	1	8
486.805	1	-1
486.975	1	-3
487.146	1	-4
487.316	1	7
487.486	1	9
487.656	1	-3
487.827	1	10
487.997	1	-2
488.167	1	11
488.338	1	-10
488.508	1	10
488.678	1	8
488.848	1	13
489.019	1	7
489.189	1	2
489.359	1	5
489.529	1	-8
489.700	1	3
489.870	1	-2
490.040	1	-5
490.211	1	4
490.381	1	-11
490.551	1	3
490.721	1	-2
490.892	1	12
491.062	1	6
491.232	1	0
491.402	1	-1
491.573	1	6
491.743	1	6
491.913	1	-2
492.084	1	-4
492.254	1	15
492.424	1	1
492.594	1	17
492.765	1	-2
492.935	1	13
493.105	1	4
493.275	1	6
493.446	1	9
493.616	1	3
493.786	1	4
493.956	1	3
494.127	1	-8
494.297	1	6
494.467	1	19
494.637	1	6
494.808	1	-9
494.978	1	2
495.148	1	9
495.318	1	-2
495.489	1	0
495.659	1	18
495.829	1	8
495.999	1	-2
496.170	1	-8
496.340	1	8
496.510	1	5
496.680	1	2
496.851	1	1
497.021	1	-2
497.191	1	-3
497.361	1	4
497.532	1	-4
497.702	1	1
497.872	1	0
498.042	1	7
498.213	1	4
498.383	1	2
498.553	1	1
498.723	1	-2
498.894	1	9
499.064	1	7
499.234	1	-8
499.404	1	12
499.574	1	8
499.745	1	3
499.915	1	-3
500.085	1	-5
500.255	1	4
500.426	1	3
500.596	1	13
500.766	1	-5
500.936	1	3
501.106	1	1
501.277	1	11
501.447	1	-4
501.617	1	4
501.787	1	7
501.958	1	9
502.128	1	7
502.298	1	10
502.468	1	-10
502.638	1	-2
502.809	1	-5
502.979	1	-5
503.149	1	5
503.319	1	4
503.489	1	6
503.660	1	2
503.830	1	-1
504.000	1	7
504.170	1	2
504.340	1	4
504.511	1	5
504.681	1	11
504.851	1	5
505.021	1	7
505.192	1	-5
505.362	1	-2
505.532	1	-6
505.702	1	-2
505.872	1	9
506.043	1	-3
506.213	1	4
506.383	1	14
506.553	1	-2
506.723	1	18
506.893	1	2
507.064	1	-1
507.234	1	-5
507.404	1	13
507.574	1	-1
507.744	1	3
507.915	1	6
508.085	1	-5
508.255	1	6
508.425	1	-3
508.595	1	-3
508.766	1	-10
508.936	1	16
509.106	1	-4
509.276	1	11
509.446	1	0
509.616	1	1
509.787	1	3
509.957	1	9
510.127	1	-2
510.297	1	12
510.467	1	-7
510.638	1	0
510.808	1	-7
510.978	1	3
511.148	1	17
511.318	1	9
511.488	1	4
511.659	1	3
511.829	1	1
511.999	1	-3
512.169	1	-1
512.339	1	0
512.509	1	10
512.680	1	-3
512.850	1	3
513.020	1	12
513.190	1	1
513.360	1	0
513.530	1	-1
513.700	1	1
513.871	1	4
514.041	1	0
514.211	1	-3
514.381	1	11
514.551	1	-4
514.721	1	1
514.892	1	4
515.062	1	0
515.232	1	13
515.402	1	4
515.572	1	2
515.742	1	13
515.912	1	3
516.083	1	-1
516.253	1	-3
516.423	1	-5
516.593	1	3
516.763	1	13
516.933	1	15
517.104	1	0
517.274	1	10
517.444	1	-2
517.614	1	-1
517.784	1	2
517.954	1	2
518.124	1	4
518.294	1	2
518.465	1	4
518.635	1	4
518.805	1	-10
518.975	1	-7
519.145	1	-2
519.315	1	-9
519.485	1	1
519.656	1	-1
519.826	1	-5
519.996	1	8
520.166	1	3
520.336	1	-10
520.506	1	5
520.676	1	4
520.846	1	-8
521.017	1	-3
521.187	1	7
521.357	1	2
521.527	1	5
521.697	1	-5
521.867	1	-2
522.037	1	-1
522.207	1	7
522.377	1	0
522.548	1	6
522.718	1	5
522.888	1	12
523.058	1	3
523.228	1	4
523.398	1	13
523.568	1	5
523.738	1	6
523.909	1	1
524.079	1	0
524.249	1	-7
524.419	1	5
524.589	1	6
524.759	1	6
524.929	1	-3
525.099	1	-4
525.269	1	-9
525.439	1	4
525.610	1	-9
525.780	1	2
525.950	1	17
526.120	1	1
526.290	1	-3
526.460	1	6
526.630	1	3
526.800	1	-4
526.970	1	4
527.140	1	7
527.311	1	13
527.481	1	-5
527.651	1	5
527.821	1	-8
527.991	1	2
528.161	1	-5
528.331	1	-10
528.501	1	-6
528.671	1	9
528.841	1	23
529.011	1	3
529.181	1	4
529.352	1	7
529.522	1	0
529.692	1	6
529.862	1	-1
530.032	1	10
530.202	1	10
530.372	1	10
530.542	1	7
530.712	1	15
530.882	1	11
531.052	1	2
531.222	1	4
531.392	1	0
531.563	1	-2
531.733	1	-3
531.903	1	4
532.073	1	-4
532.243	1	12
532.413	1	1
532.583	1	1
532.753	1	8
532.923	1	11
533.093	1	2
533.263	1	-6
533.433	1	1
533.603	1	-9
533.773	1	-4
533.943	1	-3
534.113	1	13
534.284	1	-5
534.454	1	5
534.624	1	1
534.794	1	9
534.964	1	-2
535.134	1	7
535.304	1	9
535.474	1	1
535.644	1	11
535.814	1	5
535.984	1	-4
536.154	1	-6
536.324	1	-5
536.494	1	1
536.664	1	0
536.834	1	7
537.004	1	3
537.174	1	-3
537.344	1	2
537.514	1	-1
537.685	1	6
537.855	1	0
538.025	1	1
538.195	1	8
538.365	1	2
538.535	1	-5
538.705	1	-15
538.875	1	-1
539.045	1	6
539.215	1	7
539.385	1	5
539.555	1	0
539.725	1	-9
539.895	1	4
540.065	1	-6
540.235	1	6
540.405	1	-5
540.575	1	5
540.745	1	3
540.915	1	-3
541.085	1	-6
541.255	1	6
541.425	1	4
541.595	1	12
541.765	1	5
541.935	1	-5
542.105	1	2
542.275	1	12
542.445	1	-1
542.615	1	5
542.785	1	9
542.955	1	-3
543.125	1	0
543.295	1	5
543.465	1	1
543.635	1	-10
543.805	1	5
543.975	1	-2
544.145	1	11
544.315	1	-3
544.485	1	3
544.655	1	-1
544.825	1	0
544.995	1	5
545.165	1	1
545.335	1	-4
545.505	1	4
545.675	1	-8
545.845	1	-5
546.015	1	-1
546.185	1	-2
546.355	1	-4
546.525	1	-6
546.695	1	-2
546.865	1	1
547.035	1	-6
547.205	1	13
547.375	1	-4
547.545	1	-10
547.715	1	3
547.885	1	-8
548.055	1	-2
548.225	1	3
548.395	1	-8
548.565	1	9
548.735	1	-5
548.905	1	4
549.075	1	6
549.245	1	5
549.415	1	-2
549.585	1	2
549.755	1	11
549.925	1	-5
550.095	1	-2
550.265	1	11
550.435	1	-1
550.605	1	9
550.775	1	5
550.945	1	5
551.115	1	10
551.285	1	10
551.455	1	1
551.625	1	-7
551.795	1	-11
551.965	1	-4
552.135	1	4
552.305	1	1
552.475	1	0
552.645	1	-3
552.815	1	6
552.985	1	0
553.155	1	9
553.325	1	-2
553.495	1	1
553.665	1	-1
553.835	1	1
554.004	1	6
554.174	1	-6
554.344	1	5
554.514	1	-2
554.684	1	-7
554.854	1	-3
555.024	1	3
555.194	1	2
555.364	1	-2
555.534	1	-5
555.704	1	5
555.874	1	-9
556.044	1	5
556.214	1	8
556.384	1	7
556.554	1	0
556.724	1	-1
556.894	1	-3
557.064	1	10
557.234	1	-6
557.404	1	-2
557.573	1	-5
557.743	1	-1
557.913	1	8
558.083	1	-2
558.253	1	-6
558.423	1	1
558.593	1	-6
558.763	1	11
558.933	1	1
559.103	1	2
559.273	1	-5
559.443	1	1
559.613	1	0
559.783	1	-7
559.953	1	-1
560.122	1	0
560.292	1	10
560.462	1	-3
560.632	1	5
560.802	1	1
560.972	1	0
561.142	1	-3
561.312	1	-3
561.482	1	-5
561.652	1	-3
561.822	1	0
561.992	1	-2
562.162	1	2
562.331	1	-3
562.501	1	-5
562.671	1	8
562.841	1	-13
563.011	1	10
563.181	1	7
563.351	1	-6
563.521	1	2
563.691	1	-2
563.861	1	1
564.031	1	-4
564.201	1	8
564.370	1	0
564.540	1	2
564.710	1	-1
564.880	1	3
565.050	1	8
565.220	1	-7
565.390	1	-2
565.560	1	13
565.730	1	-2
565.900	1	4
566.069	1	5
566.239	1	12
566.409	1	-18
566.579	1	2
566.749	1	-6
566.919	1	-6
567.089	1	-2
567.259	1	1
567.429	1	-1
567.599	1	7
567.768	1	1
567.938	1	-1
568.108	1	3
568.278	1	3
568.448	1	0
568.618	1	4
568.788	1	1
568.958	1	-3
569.128	1	4
569.297	1	-3
569.467	1	0
569.637	1	0
569.807	1	-4
569.977	1	0
570.147	1	0
570.317	1	-8
570.487	1	-7
570.656	1	-7
570.826	1	1
570.996	1	-1
571.166	1	6
571.336	1	-6
571.506	1	1
571.676	1	16
571.846	1	0
572.015	1	-4
572.185	1	1
572.355	1	-2
572.525	1	-7
572.695	1	1
572.865	1	-15
573.035	1	11
573.205	1	7
573.374	1	0
573.544	1	-1
573.714	1	-6
573.884	1	-1
574.054	1	3
574.224	1	-1
574.394	1	5
574.563	1	-4
574.733	1	1
574.903	1	6
575.073	1	1
575.243	1	0
575.413	1	-9
575.583	1	-4
575.752	1	-7
575.922	1	-2
576.092	1	-7
576.262	1	-1
576.432	1	2
576.602	1	-11
576.772	1	14
576.941	1	-3
577.111	1	-3
577.281	1	-5
577.451	1	-14
577.621	1	2
577.791	1	-3
577.960	1	3
578.130	1	-5
578.300	1	-6
578.470	1	-5
578.640	1	12
578.810	1	-1
578.979	1	-3
579.149	1	-1
579.319	1	-3
579.489	1	-9
579.659	1	-1
579.829	1	2
579.998	1	-1
580.168	1	-1
580.338	1	2
580.508	1	4
580.678	1	-1
580.848	1	-1
581.017	1	20
581.187	1	1
581.357	1	-7
581.527	1	1
581.697	1	0
581.867	1	3
582.036	1	-5
582.206	1	2
582.376	1	-5
582.546	1	-7
582.716	1	-6
582.885	1	-13
583.055	1	7
583.225	1	-7
583.395	1	18
583.565	1	2
583.735	1	3
583.904	1	-1
584.074	1	-4
584.244	1	-11
584.414	1	-1
584.584	1	-4
584.753	1	4
584.923	1	-1
585.093	1	4
585.263	1	-4
585.433	1	-3
585.602	1	5
585.772	1	-5
585.942	1	1
586.112	1	-3
586.282	1	-1
586.451	1	14
586.621	1	11
586.791	1	-1
586.961	1	-9
587.131	1	-5
587.300	1	2
587.470	1	-5
587.640	1	8
587.810	1	15
587.980	1	0
588.149	1	-6
588.319	1	5
588.489	1	-1
588.659	1	-7
588.829	1	-3
588.998	1	0
589.168	1	9
589.338	1	6
589.508	1	1
589.677	1	3
589.847	1	12
590.017	1	-8
590.187	1	10
590.357	1	0
590.526	1	-1
590.696	1	-5
590.866	1	-1
591.036	1	10
591.205	1	10
591.375	1	1
591.545	1	5
591.715	1	-7
591.885	1	1
592.054	1	0
592.224	1	-4
592.394	1	-2
592.564	1	2
592.733	1	-16
592.903	1	1
593.073	1	4
593.243	1	12
593.412	1	7
593.582	1	10
593.752	1	1
593.922	1	-10
594.091	1	1
594.261	1	-3
594.431	1	12
594.601	1	-2
594.771	1	8
594.940	1	10
595.110	1	-3
595.280	1	-4
595.450	1	8
595.619	1	3
595.789	1	1
595.959	1	0
596.129	1	5
596.298	1	9
596.468	1	0
596.638	1	-3
596.808	1	4
596.977	1	4
597.147	1	-14
597.317	1	-15
597.487	1	11
597.656	1	-6
597.826	1	6
597.996	1	11
598.166	1	8
598.335	1	8
598.505	1	5
598.675	1	-4
598.844	1	1
599.014	1	7
599.184	1	1
599.354	1	-4
599.523	1	-4
599.693	1	13
599.863	1	-1
600.033	1	-6
600.202	1	10
600.372	1	1
600.542	1	-1
600.712	1	2
600.881	1	-6
601.051	1	-2
601.221	1	6
601.390	1	-14
601.560	1	11
601.730	1	11
601.900	1	9
602.069	1	3
602.239	1	2
602.409	1	2
602.578	1	-4
602.748	1	1
602.918	1	-4
603.088	1	3
603.257	1	9
603.427	1	0
603.597	1	4
603.767	1	-1
603.936	1	-2
604.106	1	0
604.276	1	13
604.445	1	11
604.615	1	2
604.785	1	4
604.954	1	8
605.124	1	4
605.294	1	8
605.464	1	-3
605.633	1	-3
605.803	1	5
605.973	1	6
606.142	1	-3
606.312	1	-5
606.482	1	9
606.652	1	-7
606.821	1	2
606.991	1	-3
607.161	1	-6
607.330	1	-6
607.500	1	11
607.670	1	8
607.839	1	11
608.009	1	4
608.179	1	4
608.348	1	2
608.518	1	-8
608.688	1	1
608.858	1	6
609.027	1	5
609.197	1	-4
609.367	1	14
609.536	1	4
609.706	1	-4
609.876	1	17
610.045	1	4
610.215	1	-1
610.385	1	-9
610.554	1	5
610.724	1	-7
610.894	1	10
611.063	1	-2
611.233	1	7
611.403	1	-1
611.572	1	2
611.742	1	4
611.912	1	9
612.081	1	-5
612.251	1	11
612.421	1	9
612.590	1	2
612.760	1	6
612.930	1	-5
613.099	1	2
613.269	1	1
613.439	1	-4
613.608	1	9
613.778	1	-3
613.948	1	1
614.117	1	4
614.287	1	5
614.457	1	-9
614.626	1	9
614.796	1	-3
614.966	1	8
615.135	1	13
615.305	1	1
615.475	1	-2
615.644	1	4
615.814	1	1
615.984	1	3
616.153	1	7
616.323	1	9
616.493	1	16
616.662	1	2
616.832	1	8
617.002	1	-1
617.171	1	-7
617.341	1	-6
617.511	1	-2
617.680	1	9
617.850	1	14
618.019	1	0
618.189	1	7
618.359	1	4
618.528	1	-3
618.698	1	4
618.868	1	-4
619.037	1	5
619.207	1	-1
619.377	1	-4
619.546	1	5
619.716	1	9
619.885	1	7
620.055	1	7
620.225	1	13
620.394	1	7
620.564	1	5
620.734	1	-5
620.903	1	0
621.073	1	1
621.242	1	4
621.412	1	2
621.582	1	1
621.751	1	4
621.921	1	4
622.091	1	3
622.260	1	-6
622.430	1	0
622.599	1	-7
622.769	1	10
622.939	1	0
623.108	1	7
623.278	1	-2
623.448	1	6
623.617	1	-1
623.787	1	-3
623.956	1	6
624.126	1	16
624.296	1	2
624.465	1	6
624.635	1	6
624.804	1	-3
624.974	1	13
625.144	1	-5
625.313	1	-13
625.483	1	18
625.652	1	13
625.822	1	-10
625.992	1	4
626.161	1	14
626.331	1	-5
626.501	1	0
626.670	1	7
626.840	1	3
627.009	1	8
627.179	1	7
627.348	1	4
627.518	1	6
627.688	1	3
627.857	1	7
628.027	1	-9
628.196	1	-2
628.366	1	-2
628.536	1	3
628.705	1	-6
628.875	1	19
629.044	1	9
629.214	1	6
629.384	1	3
629.553	1	11
629.723	1	0
629.892	1	25
630.062	1	7
630.232	1	6
630.401	1	6
630.571	1	10
630.740	1	7
630.910	1	12
631.079	1	-10
631.249	1	6
631.419	1	-2
631.588	1	1
631.758	1	12
631.927	1	1
632.097	1	-3
632.266	1	0
632.436	1	4
632.606	1	-1
632.775	1	14
632.945	1	7
633.114	1	-2
633.284	1	-2
633.453	1	3
633.623	1	8
633.793	1	2
633.962	1	8
634.132	1	2
634.301	1	3
634.471	1	1
634.640	1	-5
634.810	1	5
634.979	1	3
635.149	1	10
635.319	1	4
635.488	1	6
635.658	1	-2
635.827	1	4
635.997	1	5
636.166	1	2
636.336	1	-3
636.505	1	0
636.675	1	10
636.845	1	11
637.014	1	0
637.184	1	-2
637.353	1	1
637.523	1	10
637.692	1	4
637.862	1	8
638.031	1	7
638.201	1	9
638.370	1	0
638.540	1	3
638.710	1	15
638.879	1	-9
639.049	1	8
639.218	1	3
639.388	1	8
639.557	1	3
639.727	1	8
639.896	1	-2
640.066	1	8
640.235	1	7
640.405	1	0
640.574	1	6
640.744	1	16
640.914	1	6
641.083	1	12
641.253	1	18
641.422	1	10
641.592	1	1
641.761	1	10
641.931	1	-8
642.100	1	0
642.270	1	3
642.439	1	8
642.609	1	8
642.778	1	-5
642.948	1	-4
643.117	1	16
643.287	1	0
643.456	1	3
643.626	1	6
643.795	1	2
643.965	1	11
644.134	1	6
644.304	1	5
644.473	1	8
644.643	1	4
644.812	1	14
644.982	1	6
645.151	1	15
645.321	1	7
645.490	1	0
645.660	1	6
645.829	1	2
645.999	1	9
646.168	1	9
646.338	1	-2
646.507	1	11
646.677	1	5
646.846	1	5
647.016	1	12
647.185	1	-4
647.355	1	3
647.524	1	12
647.694	1	3
647.863	1	-3
648.033	1	0
648.202	1	11
648.372	1	9
648.541	1	6
648.711	1	4
648.880	1	3
649.050	1	5
649.219	1	-3
649.389	1	10
649.558	1	-6
649.728	1	-3
649.897	1	4
650.067	1	1
650.236	1	19
650.406	1	1
650.575	1	1
650.745	1	5
650.914	1	5
651.084	1	-4
651.253	1	9
651.423	1	5
651.592	1	8
651.762	1	19
651.931	1	4
652.101	1	-1
652.270	1	8
652.440	1	4
652.609	1	6
652.778	1	-5
652.948	1	2
653.117	1	0
653.287	1	12
653.456	1	10
653.626	1	2
653.795	1	7
653.965	1	1
654.134	1	8
654.304	1	11
654.473	1	3
654.643	1	3
654.812	1	5
654.982	1	1
655.151	1	-2
655.320	1	7
655.490	1	2
655.659	1	5
655.829	1	5
655.998	1	-8
656.168	1	-1
656.337	1	11
656.507	1	5
656.676	1	9
656.846	1	3
657.015	1	-6
657.184	1	-2
657.354	1	7
657.523	1	1
657.693	1	3
657.862	1	3
658.032	1	9
658.201	1	1
658.371	1	-2
658.540	1	3
658.709	1	-7
658.879	1	-14
659.048	1	3
659.218	1	6
659.387	1	-2
659.557	1	6
659.726	1	7
659.895	1	6
660.065	1	-11
660.234	1	-3
660.404	1	7
660.573	1	10
660.743	1	5
660.912	1	10
661.081	1	17
661.251	1	7
661.420	1	4
661.590	1	-6
661.759	1	-4
661.929	1	4
662.098	1	-6
662.267	1	-8
662.437	1	6
662.606	1	16
662.776	1	2
662.945	1	-7
663.115	1	0
663.284	1	5
663.453	1	3
663.623	1	1
663.792	1	3
663.962	1	-1
664.131	1	1
664.300	1	5
664.470	1	15
664.639	1	8
664.809	1	0
664.978	1	-7
665.148	1	6
665.317	1	2
665.486	1	10
665.656	1	0
665.825	1	3
665.995	1	2
666.164	1	2
666.333	1	12
666.503	1	4
666.672	1	8
666.842	1	0
667.011	1	5
667.180	1	7
667.350	1	4
667.519	1	1
667.689	1	2
667.858	1	8
668.027	1	16
668.197	1	0
668.366	1	4
668.536	1	9
668.705	1	5
668.874	1	4
669.044	1	3
669.213	1	4
669.382	1	1
669.552	1	10
669.721	1	15
669.891	1	8
670.060	1	14
670.229	1	3
670.399	1	5
670.568	1	0
670.738	1	0
670.907	1	8
671.076	1	3
671.246	1	16
671.415	1	5
671.584	1	-4
671.754	1	8
671.923	1	7
672.093	1	11
672.262	1	11
672.431	1	-6
672.601	1	6
672.770	1	-3
672.939	1	-5
673.109	1	3
673.278	1	18
673.448	1	-5
673.617	1	0
673.786	1	10
