325.333	1	17
325.504	1	6
325.675	1	2
325.846	1	8
326.017	1	14
326.188	1	16
326.359	1	2
326.531	1	2
326.702	1	1
326.873	1	4
327.044	1	4
327.215	1	8
327.386	1	5
327.557	1	10
327.728	1	6
327.899	1	20
328.070	1	19
328.241	1	6
328.412	1	16
328.583	1	5
328.754	1	-1
328.926	1	2
329.097	1	-8
329.268	1	1
329.439	1	2
329.610	1	14
329.781	1	9
329.952	1	15
330.123	1	10
330.294	1	-5
330.465	1	4
330.636	1	10
330.807	1	1
330.978	1	3
331.149	1	14
331.320	1	13
331.492	1	15
331.663	1	9
331.834	1	13
332.005	1	4
332.176	1	4
332.347	1	14
332.518	1	5
332.689	1	7
332.860	1	0
333.031	1	8
333.202	1	1
333.373	1	8
333.544	1	7
333.715	1	17
333.886	1	-2
334.057	1	9
334.228	1	4
334.399	1	19
334.570	1	-1
334.741	1	12
334.912	1	9
335.084	1	5
335.255	1	5
335.426	1	-2
335.597	1	14
335.768	1	20
335.939	1	6
336.110	1	9
336.281	1	12
336.452	1	16
336.623	1	19
336.794	1	12
336.965	1	8
337.136	1	10
337.307	1	9
337.478	1	10
337.649	1	10
337.820	1	9
337.991	1	1
338.162	1	8
338.333	1	3
338.504	1	-4
338.675	1	10
338.846	1	13
339.017	1	14
339.188	1	5
339.359	1	10
339.530	1	16
339.701	1	0
339.872	1	8
340.043	1	-1
340.214	1	0
340.385	1	4
340.556	1	15
340.727	1	10
340.898	1	14
341.069	1	5
341.240	1	19
341.411	1	0
341.582	1	11
341.753	1	5
341.924	1	2
342.095	1	13
342.266	1	11
342.437	1	11
342.608	1	20
342.779	1	10
342.950	1	8
343.121	1	13
343.292	1	5
343.463	1	7
343.634	1	9
343.805	1	6
343.976	1	5
344.147	1	7
344.318	1	2
344.489	1	10
344.660	1	7
344.831	1	15
345.002	1	7
345.173	1	6
345.344	1	11
345.515	1	5
345.686	1	21
345.857	1	2
346.028	1	6
346.199	1	2
346.370	1	16
346.541	1	-7
346.712	1	2
346.883	1	2
347.054	1	8
347.225	1	11
347.396	1	-4
347.567	1	20
347.738	1	0
347.909	1	-4
348.080	1	7
348.251	1	5
348.422	1	-1
348.593	1	2
348.764	1	4
348.935	1	6
349.106	1	9
349.277	1	7
349.448	1	16
349.619	1	-1
349.790	1	9
349.961	1	7
350.132	1	14
350.303	1	9
350.474	1	4
350.645	1	-1
350.816	1	5
350.987	1	3
351.157	1	12
351.328	1	15
351.499	1	5
351.670	1	6
351.841	1	10
352.012	1	12
352.183	1	-1
352.354	1	3
352.525	1	10
352.696	1	16
352.867	1	9
353.038	1	6
353.209	1	5
353.380	1	5
353.551	1	-5
353.722	1	3
353.893	1	4
354.064	1	4
354.235	1	10
354.406	1	18
354.576	1	11
354.747	1	6
354.918	1	7
355.089	1	14
355.260	1	21
355.431	1	5
355.602	1	5
355.773	1	7
355.944	1	-4
356.115	1	17
356.286	1	10
356.457	1	12
356.628	1	6
356.799	1	2
356.970	1	17
357.141	1	1
357.311	1	7
357.482	1	3
357.653	1	16
357.824	1	12
357.995	1	3
358.166	1	5
358.337	1	8
358.508	1	9
358.679	1	17
358.850	1	2
359.021	1	11
359.192	1	18
359.363	1	7
359.533	1	-5
359.704	1	12
359.875	1	15
360.046	1	14
360.217	1	6
360.388	1	5
360.559	1	8
360.730	1	10
360.901	1	3
361.072	1	7
361.243	1	5
361.414	1	10
361.584	1	2
361.755	1	8
361.926	1	15
362.097	1	0
362.268	1	5
362.439	1	6
362.610	1	18
362.781	1	7
362.952	1	12
363.123	1	11
363.293	1	-3
363.464	1	12
363.635	1	13
363.806	1	8
363.977	1	5
364.148	1	2
364.319	1	9
364.490	1	7
364.661	1	13
364.832	1	14
365.002	1	20
365.173	1	5
365.344	1	7
365.515	1	-6
365.686	1	2
365.857	1	10
366.028	1	10
366.199	1	6
366.370	1	5
366.540	1	2
366.711	1	4
366.882	1	-5
367.053	1	-2
367.224	1	6
367.395	1	0
367.566	1	-1
367.737	1	-1
367.908	1	8
368.078	1	17
368.249	1	17
368.420	1	5
368.591	1	16
368.762	1	6
368.933	1	1
369.104	1	16
369.274	1	-3
369.445	1	3
369.616	1	3
369.787	1	18
369.958	1	10
370.129	1	-4
370.300	1	7
370.471	1	2
370.641	1	7
370.812	1	-1
370.983	1	1
371.154	1	5
371.325	1	0
371.496	1	15
371.667	1	6
371.837	1	7
372.008	1	-11
372.179	1	1
372.350	1	1
372.521	1	10
372.692	1	6
372.863	1	2
373.033	1	12
373.204	1	-2
373.375	1	14
373.546	1	16
373.717	1	3
373.888	1	11
374.059	1	8
374.229	1	1
374.400	1	1
374.571	1	9
374.742	1	10
374.913	1	5
375.084	1	10
375.254	1	8
375.425	1	12
375.596	1	15
375.767	1	0
375.938	1	10
376.109	1	7
376.279	1	-2
376.450	1	14
376.621	1	5
376.792	1	3
376.963	1	-4
377.134	1	15
377.304	1	10
377.475	1	11
377.646	1	1
377.817	1	-3
377.988	1	-2
378.159	1	14
378.329	1	5
378.500	1	18
378.671	1	7
378.842	1	4
379.013	1	9
379.184	1	4
379.354	1	-2
379.525	1	5
379.696	1	10
379.867	1	7
380.038	1	15
380.209	1	9
380.379	1	7
380.550	1	10
380.721	1	6
380.892	1	13
381.063	1	4
381.233	1	3
381.404	1	12
381.575	1	12
381.746	1	16
381.917	1	7
382.087	1	14
382.258	1	20
382.429	1	2
382.600	1	15
382.771	1	5
382.941	1	15
383.112	1	6
383.283	1	9
383.454	1	4
383.625	1	-3
383.795	1	8
383.966	1	-5
384.137	1	11
384.308	1	3
384.479	1	3
384.649	1	6
384.820	1	23
384.991	1	-5
385.162	1	16
385.333	1	10
385.503	1	12
385.674	1	-1
385.845	1	13
386.016	1	15
386.187	1	10
386.357	1	15
386.528	1	6
386.699	1	15
386.870	1	5
387.041	1	24
387.211	1	5
387.382	1	4
387.553	1	13
387.724	1	19
387.894	1	16
388.065	1	6
388.236	1	14
388.407	1	14
388.578	1	5
388.748	1	-2
388.919	1	2
389.090	1	15
389.261	1	9
389.431	1	11
389.602	1	18
389.773	1	18
389.944	1	14
390.114	1	17
390.285	1	-1
390.456	1	3
390.627	1	9
390.798	1	7
390.968	1	13
391.139	1	0
391.310	1	10
391.481	1	21
391.651	1	15
391.822	1	6
391.993	1	13
392.164	1	14
392.334	1	1
392.505	1	12
392.676	1	14
392.847	1	12
393.017	1	2
393.188	1	22
393.359	1	11
393.530	1	9
393.700	1	7
393.871	1	20
394.042	1	5
394.213	1	-6
394.383	1	7
394.554	1	13
394.725	1	15
394.896	1	11
395.066	1	16
395.237	1	9
395.408	1	25
395.579	1	11
395.749	1	12
395.920	1	6
396.091	1	19
396.262	1	12
396.432	1	13
396.603	1	5
396.774	1	18
396.945	1	18
397.115	1	9
397.286	1	6
397.457	1	9
397.627	1	7
397.798	1	11
397.969	1	18
398.140	1	1
398.310	1	11
398.481	1	7
398.652	1	3
398.823	1	19
398.993	1	17
399.164	1	18
399.335	1	12
399.505	1	1
399.676	1	6
399.847	1	12
400.018	1	10
400.188	1	7
400.359	1	10
400.530	1	19
400.700	1	12
400.871	1	3
401.042	1	19
401.213	1	13
401.383	1	13
401.554	1	5
401.725	1	7
401.895	1	11
402.066	1	11
402.237	1	12
402.408	1	7
402.578	1	7
402.749	1	10
402.920	1	15
403.090	1	0
403.261	1	21
403.432	1	16
403.603	1	15
403.773	1	17
403.944	1	7
404.115	1	1
404.285	1	9
404.456	1	12
404.627	1	11
404.797	1	2
404.968	1	17
405.139	1	20
405.310	1	18
405.480	1	10
405.651	1	2
405.822	1	11
405.992	1	12
406.163	1	19
406.334	1	14
406.504	1	20
406.675	1	21
406.846	1	18
407.016	1	18
407.187	1	8
407.358	1	18
407.528	1	7
407.699	1	1
407.870	1	21
408.041	1	27
408.211	1	19
408.382	1	16
408.553	1	15
408.723	1	17
408.894	1	9
409.065	1	5
409.235	1	17
409.406	1	7
409.577	1	9
409.747	1	14
409.918	1	10
410.089	1	23
410.259	1	13
410.430	1	13
410.601	1	13
410.771	1	14
410.942	1	15
411.113	1	11
411.283	1	22
411.454	1	22
411.625	1	6
411.795	1	-1
411.966	1	20
412.137	1	18
412.307	1	14
412.478	1	16
412.649	1	15
412.819	1	16
412.990	1	18
413.161	1	20
413.331	1	10
413.502	1	17
413.672	1	16
413.843	1	14
414.014	1	19
414.184	1	22
414.355	1	18
414.526	1	12
414.696	1	15
414.867	1	8
415.038	1	16
415.208	1	17
415.379	1	18
415.550	1	22
415.720	1	0
415.891	1	26
416.062	1	27
416.232	1	7
416.403	1	14
416.573	1	22
416.744	1	13
416.915	1	27
417.085	1	15
417.256	1	11
417.427	1	15
417.597	1	19
417.768	1	22
417.939	1	16
418.109	1	10
418.280	1	9
418.450	1	17
418.621	1	6
418.792	1	19
418.962	1	2
419.133	1	5
419.304	1	10
419.474	1	16
419.645	1	16
419.815	1	20
419.986	1	19
420.157	1	12
420.327	1	7
420.498	1	8
420.669	1	24
420.839	1	5
421.010	1	12
421.180	1	18
421.351	1	20
421.522	1	18
421.692	1	29
421.863	1	11
422.033	1	8
422.204	1	20
422.375	1	12
422.545	1	15
422.716	1	15
422.886	1	10
423.057	1	16
423.228	1	14
423.398	1	23
423.569	1	9
423.740	1	15
423.910	1	16
424.081	1	1
424.251	1	8
424.422	1	14
424.593	1	13
424.763	1	23
424.934	1	26
425.104	1	16
425.275	1	27
425.445	1	10
425.616	1	19
425.787	1	12
425.957	1	12
426.128	1	21
426.298	1	21
426.469	1	13
426.640	1	13
426.810	1	30
426.981	1	13
427.151	1	9
427.322	1	12
427.493	1	26
427.663	1	19
427.834	1	24
428.004	1	5
428.175	1	28
428.345	1	14
428.516	1	16
428.687	1	25
428.857	1	0
429.028	1	20
429.198	1	22
429.369	1	20
429.540	1	9
429.710	1	19
429.881	1	10
430.051	1	20
430.222	1	15
430.392	1	13
430.563	1	15
430.734	1	16
430.904	1	7
431.075	1	12
431.245	1	17
431.416	1	16
431.586	1	10
431.757	1	22
431.927	1	25
432.098	1	12
432.269	1	4
432.439	1	14
432.610	1	24
432.780	1	8
432.951	1	20
433.121	1	19
433.292	1	9
433.462	1	17
433.633	1	-2
433.804	1	17
433.974	1	17
434.145	1	6
434.315	1	15
434.486	1	29
434.656	1	17
434.827	1	14
434.997	1	15
435.168	1	22
435.339	1	12
435.509	1	8
435.680	1	24
435.850	1	13
436.021	1	20
436.191	1	17
436.362	1	8
436.532	1	12
436.703	1	11
436.873	1	13
437.044	1	-1
437.214	1	8
437.385	1	20
437.556	1	13
437.726	1	24
437.897	1	15
438.067	1	5
438.238	1	5
438.408	1	16
438.579	1	21
438.749	1	10
438.920	1	4
439.090	1	12
439.261	1	13
439.431	1	6
439.602	1	14
439.772	1	20
439.943	1	13
440.113	1	19
440.284	1	7
440.455	1	17
440.625	1	24
440.796	1	19
440.966	1	11
441.137	1	8
441.307	1	16
441.478	1	22
441.648	1	7
441.819	1	11
441.989	1	19
442.160	1	4
442.330	1	14
442.501	1	21
442.671	1	13
442.842	1	16
443.012	1	12
443.183	1	10
443.353	1	15
443.524	1	2
443.694	1	3
443.865	1	16
444.035	1	14
444.206	1	10
444.376	1	10
444.547	1	27
444.717	1	6
444.888	1	21
445.058	1	17
445.229	1	-7
445.399	1	7
445.570	1	7
445.740	1	13
445.911	1	13
446.081	1	24
446.252	1	19
446.422	1	10
446.593	1	16
446.763	1	3
446.934	1	8
447.104	1	6
447.275	1	13
447.445	1	14
447.616	1	18
447.786	1	12
447.957	1	22
448.127	1	16
448.298	1	6
448.468	1	8
448.639	1	14
448.809	1	16
448.979	1	2
449.150	1	9
449.320	1	18
449.491	1	18
449.661	1	25
449.832	1	8
450.002	1	11
450.173	1	5
450.343	1	13
450.514	1	13
450.684	1	8
450.855	1	11
451.025	1	3
451.196	1	7
451.366	1	14
451.537	1	14
451.707	1	20
451.878	1	1
452.048	1	3
452.218	1	24
452.389	1	16
452.559	1	6
452.730	1	15
452.900	1	8
453.071	1	14
453.241	1	17
453.412	1	16
453.582	1	16
453.753	1	7
453.923	1	13
454.093	1	24
454.264	1	16
454.434	1	9
454.605	1	23
454.775	1	17
454.946	1	19
455.116	1	17
455.287	1	12
455.457	1	15
455.628	1	16
455.798	1	11
455.968	1	14
456.139	1	0
456.309	1	12
456.480	1	11
456.650	1	16
456.821	1	25
456.991	1	9
457.161	1	15
457.332	1	17
457.502	1	12
457.673	1	3
457.843	1	13
458.014	1	12
458.184	1	11
458.355	1	11
458.525	1	1
458.695	1	6
458.866	1	13
459.036	1	13
459.207	1	12
459.377	1	26
459.548	1	9
459.718	1	16
459.888	1	18
460.059	1	5
460.229	1	12
460.400	1	24
460.570	1	20
460.740	1	10
460.911	1	7
461.081	1	7
461.252	1	22
461.422	1	6
461.593	1	-1
461.763	1	24
461.933	1	9
462.104	1	14
462.274	1	12
462.445	1	4
462.615	1	3
462.785	1	5
462.956	1	5
463.126	1	11
463.297	1	8
463.467	1	23
463.638	1	9
463.808	1	5
463.978	1	8
464.149	1	19
464.319	1	1
464.490	1	15
464.660	1	5
464.830	1	1
465.001	1	21
465.171	1	8
465.342	1	15
465.512	1	13
465.682	1	3
465.853	1	12
466.023	1	14
466.194	1	15
466.364	1	12
466.534	1	14
466.705	1	13
466.875	1	8
467.045	1	2
467.216	1	7
467.386	1	10
467.557	1	1
467.727	1	6
467.897	1	-7
468.068	1	21
468.238	1	8
468.409	1	5
468.579	1	7
468.749	1	9
468.920	1	4
469.090	1	5
469.260	1	5
469.431	1	7
469.601	1	9
469.772	1	13
469.942	1	16
470.112	1	16
470.283	1	18
470.453	1	7
470.623	1	13
470.794	1	6
470.964	1	2
471.135	1	3
471.305	1	4
471.475	1	11
471.646	1	4
471.816	1	7
471.986	1	17
472.157	1	12
472.327	1	2
472.497	1	-5
472.668	1	7
472.838	1	3
473.009	1	23
473.179	1	8
473.349	1	5
473.520	1	1
473.690	1	13
473.860	1	10
474.031	1	12
474.201	1	4
474.371	1	6
474.542	1	10
474.712	1	6
474.882	1	11
475.053	1	17
475.223	1	14
475.394	1	10
475.564	1	8
475.734	1	1
475.905	1	7
476.075	1	8
476.245	1	13
476.416	1	7
476.586	1	12
476.756	1	16
476.927	1	9
477.097	1	7
477.267	1	15
477.438	1	0
477.608	1	5
477.778	1	12
477.949	1	14
478.119	1	12
478.289	1	29
478.460	1	17
478.630	1	5
478.800	1	1
478.971	1	12
479.141	1	1
479.311	1	-2
479.482	1	4
479.652	1	5
479.822	1	5
479.993	1	8
480.163	1	4
480.333	1	10
480.504	1	3
480.674	1	8
480.844	1	5
481.015	1	4
481.185	1	12
481.355	1	1
481.525	1	4
481.696	1	10
481.866	1	1
482.036	1	7
482.207	1	3
482.377	1	-1
482.547	1	12
482.718	1	5
482.888	1	5
483.058	1	5
483.229	1	8
483.399	1	12
483.569	1	8
483.740	1	5
483.910	1	-2
484.080	1	7
484.250	1	6
484.421	1	9
484.591	1	3
484.761	1	17
484.932	1	11
485.102	1	10
485.272	1	9
485.443	1	-2
485.613	1	15
485.783	1	-5
485.953	1	0
486.124	1	-7
486.294	1	10
486.464	1	4
486.635	1	1
486.805	1	-5
486.975	1	5
487.146	1	2
487.316	1	11
487.486	1	-1
487.656	1	1
487.827	1	2
487.997	1	4
488.167	1	4
488.338	1	-3
488.508	1	1
488.678	1	16
488.848	1	16
489.019	1	9
489.189	1	6
489.359	1	5
489.529	1	4
489.700	1	3
489.870	1	7
490.040	1	-5
490.211	1	5
490.381	1	-4
490.551	1	-2
490.721	1	9
490.892	1	18
491.062	1	5
491.232	1	3
491.402	1	11
491.573	1	1
491.743	1	2
491.913	1	-6
492.084	1	6
492.254	1	15
492.424	1	0
492.594	1	17
492.765	1	8
492.935	1	4
493.105	1	0
493.275	1	-1
493.446	1	9
493.616	1	12
493.786	1	9
493.956	1	1
494.127	1	1
494.297	1	13
494.467	1	9
494.637	1	7
494.808	1	1
494.978	1	-2
495.148	1	11
495.318	1	-6
495.489	1	7
495.659	1	16
495.829	1	13
495.999	1	10
496.170	1	4
496.340	1	16
496.510	1	8
496.680	1	1
496.851	1	-7
497.021	1	-12
497.191	1	2
497.361	1	8
497.532	1	-4
497.702	1	10
497.872	1	1
498.042	1	3
498.213	1	4
498.383	1	7
498.553	1	4
498.723	1	-1
498.894	1	14
499.064	1	3
499.234	1	-6
499.404	1	5
499.574	1	8
499.745	1	5
499.915	1	-3
500.085	1	-1
500.255	1	8
500.426	1	-6
500.596	1	16
500.766	1	5
500.936	1	5
501.106	1	-1
501.277	1	10
501.447	1	-3
501.617	1	3
501.787	1	-2
501.958	1	12
502.128	1	21
502.298	1	16
502.468	1	6
502.638	1	-12
502.809	1	2
502.979	1	-5
503.149	1	13
503.319	1	3
503.489	1	3
503.660	1	3
503.830	1	3
504.000	1	-1
504.170	1	5
504.340	1	6
504.511	1	15
504.681	1	8
504.851	1	10
505.021	1	-1
505.192	1	-2
505.362	1	-1
505.532	1	5
505.702	1	-2
505.872	1	16
506.043	1	-4
506.213	1	7
506.383	1	13
506.553	1	2
506.723	1	5
506.893	1	-1
507.064	1	6
507.234	1	3
507.404	1	10
507.574	1	0
507.744	1	15
507.915	1	-3
508.085	1	-11
508.255	1	2
508.425	1	7
508.595	1	1
508.766	1	-7
508.936	1	15
509.106	1	1
509.276	1	16
509.446	1	9
509.616	1	13
509.787	1	7
509.957	1	6
510.127	1	-4
510.297	1	1
510.467	1	-5
510.638	1	6
510.808	1	1
510.978	1	7
511.148	1	16
511.318	1	6
511.488	1	11
511.659	1	4
511.829	1	3
511.999	1	9
512.169	1	-3
512.339	1	1
512.509	1	-2
512.680	1	8
512.850	1	4
513.020	1	8
513.190	1	8
513.360	1	5
513.530	1	3
513.700	1	1
513.871	1	4
514.041	1	0
514.211	1	2
514.381	1	6
514.551	1	1
514.721	1	0
514.892	1	9
515.062	1	6
515.232	1	15
515.402	1	6
515.572	1	4
515.742	1	8
515.912	1	3
516.083	1	4
516.253	1	14
516.423	1	0
516.593	1	4
516.763	1	9
516.933	1	16
517.104	1	-4
517.274	1	5
517.444	1	-1
517.614	1	8
517.784	1	0
517.954	1	6
518.124	1	1
518.294	1	1
518.465	1	8
518.635	1	6
518.805	1	-1
518.975	1	5
519.145	1	0
519.315	1	-2
519.485	1	1
519.656	1	-1
519.826	1	0
519.996	1	12
520.166	1	-3
520.336	1	-12
520.506	1	4
520.676	1	19
520.846	1	4
521.017	1	11
521.187	1	3
521.357	1	4
521.527	1	-4
521.697	1	7
521.867	1	-4
522.037	1	10
522.207	1	3
522.377	1	15
522.548	1	4
522.718	1	0
522.888	1	8
523.058	1	5
523.228	1	-3
523.398	1	6
523.568	1	5
523.738	1	-3
523.909	1	10
524.079	1	3
524.249	1	2
524.419	1	3
524.589	1	4
524.759	1	13
524.929	1	1
525.099	1	-8
525.269	1	-5
525.439	1	16
525.610	1	-4
525.780	1	2
525.950	1	7
526.120	1	6
526.290	1	-7
526.460	1	8
526.630	1	6
526.800	1	-1
526.970	1	3
527.140	1	9
527.311	1	9
527.481	1	-10
527.651	1	3
527.821	1	0
527.991	1	0
528.161	1	-2
528.331	1	6
528.501	1	7
528.671	1	12
528.841	1	16
529.011	1	-4
529.181	1	6
529.352	1	0
529.522	1	-1
529.692	1	-6
529.862	1	4
530.032	1	4
530.202	1	6
530.372	1	10
530.542	1	-3
530.712	1	23
530.882	1	9
531.052	1	-6
531.222	1	4
531.392	1	4
531.563	1	0
531.733	1	-1
531.903	1	7
532.073	1	5
532.243	1	11
532.413	1	-9
532.583	1	2
532.753	1	4
532.923	1	-6
533.093	1	9
533.263	1	5
533.433	1	1
533.603	1	-4
533.773	1	4
533.943	1	1
534.113	1	10
534.284	1	-11
534.454	1	4
534.624	1	9
534.794	1	14
534.964	1	1
535.134	1	12
535.304	1	8
535.474	1	1
535.644	1	10
535.814	1	7
535.984	1	-3
536.154	1	-7
536.324	1	-2
536.494	1	-2
536.664	1	2
536.834	1	16
537.004	1	7
537.174	1	2
537.344	1	-5
537.514	1	3
537.685	1	6
537.855	1	-5
538.025	1	7
538.195	1	3
538.365	1	12
538.535	1	-2
538.705	1	-1
538.875	1	8
539.045	1	7
539.215	1	6
539.385	1	-9
539.555	1	-1
539.725	1	-4
539.895	1	6
540.065	1	-4
540.235	1	1
540.405	1	-4
540.575	1	0
540.745	1	2
540.915	1	3
541.085	1	0
541.255	1	5
541.425	1	-13
541.595	1	12
541.765	1	8
541.935	1	1
542.105	1	1
542.275	1	4
542.445	1	2
542.615	1	-5
542.785	1	0
542.955	1	-6
543.125	1	-11
543.295	1	7
543.465	1	4
543.635	1	-2
543.805	1	6
543.975	1	-3
544.145	1	14
544.315	1	-3
544.485	1	4
544.655	1	-4
544.825	1	6
544.995	1	5
545.165	1	4
545.335	1	-10
545.505	1	3
545.675	1	-8
545.845	1	12
546.015	1	8
546.185	1	-4
546.355	1	9
546.525	1	-6
546.695	1	4
546.865	1	12
547.035	1	1
547.205	1	11
547.375	1	1
547.545	1	-2
547.715	1	-1
547.885	1	-3
548.055	1	-6
548.225	1	11
548.395	1	10
548.565	1	15
548.735	1	0
548.905	1	15
549.075	1	10
549.245	1	1
549.415	1	-4
549.585	1	-2
549.755	1	11
549.925	1	-4
550.095	1	5
550.265	1	6
550.435	1	8
550.605	1	-2
550.775	1	7
550.945	1	4
551.115	1	4
551.285	1	-1
551.455	1	0
551.625	1	-3
551.795	1	4
551.965	1	5
552.135	1	7
552.305	1	8
552.475	1	3
552.645	1	3
552.815	1	6
552.985	1	-11
553.155	1	8
553.325	1	-11
553.495	1	0
553.665	1	1
553.835	1	6
554.004	1	7
554.174	1	4
554.344	1	-1
554.514	1	4
554.684	1	-9
554.854	1	-10
555.024	1	7
555.194	1	-5
555.364	1	15
555.534	1	-8
555.704	1	12
555.874	1	-2
556.044	1	-1
556.214	1	1
556.384	1	9
556.554	1	2
556.724	1	7
556.894	1	-7
557.064	1	3
557.234	1	0
557.404	1	-3
557.573	1	-5
557.743	1	2
557.913	1	9
558.083	1	-1
558.253	1	5
558.423	1	3
558.593	1	-4
558.763	1	2
558.933	1	0
559.103	1	5
559.273	1	-2
559.443	1	2
559.613	1	-5
559.783	1	-2
559.953	1	-2
560.122	1	1
560.292	1	14
560.462	1	2
560.632	1	-1
560.802	1	8
560.972	1	-10
561.142	1	4
561.312	1	-2
561.482	1	-5
561.652	1	5
561.822	1	1
561.992	1	4
562.162	1	8
562.331	1	2
562.501	1	-1
562.671	1	3
562.841	1	-2
563.011	1	0
563.181	1	7
563.351	1	7
563.521	1	1
563.691	1	-2
563.861	1	4
564.031	1	5
564.201	1	2
564.370	1	-3
564.540	1	4
564.710	1	3
564.880	1	-2
565.050	1	10
565.220	1	-10
565.390	1	5
565.560	1	-3
565.730	1	-3
565.900	1	2
566.069	1	2
566.239	1	4
566.409	1	-9
566.579	1	13
566.749	1	-2
566.919	1	0
567.089	1	3
567.259	1	3
567.429	1	6
567.599	1	11
567.768	1	3
567.938	1	-3
568.108	1	8
568.278	1	7
568.448	1	1
568.618	1	3
568.788	1	3
568.958	1	-1
569.128	1	11
569.297	1	0
569.467	1	1
569.637	1	1
569.807	1	6
569.977	1	-3
570.147	1	8
570.317	1	-3
570.487	1	-6
570.656	1	-14
570.826	1	-6
570.996	1	-8
571.166	1	6
571.336	1	-4
571.506	1	5
571.676	1	10
571.846	1	3
572.015	1	0
572.185	1	3
572.355	1	-4
572.525	1	-5
572.695	1	6
572.865	1	0
573.035	1	14
573.205	1	6
573.374	1	1
573.544	1	-1
573.714	1	-9
573.884	1	9
574.054	1	-3
574.224	1	-7
574.394	1	-4
574.563	1	11
574.733	1	3
574.903	1	2
575.073	1	6
575.243	1	5
575.413	1	2
575.583	1	6
575.752	1	-6
575.922	1	-6
576.092	1	-9
576.262	1	3
576.432	1	2
576.602	1	-2
576.772	1	10
576.941	1	2
577.111	1	-5
577.281	1	1
577.451	1	-5
577.621	1	3
577.791	1	-5
577.960	1	0
578.130	1	2
578.300	1	-6
578.470	1	-3
578.640	1	-2
578.810	1	-2
578.979	1	-2
579.149	1	-7
579.319	1	4
579.489	1	-7
579.659	1	-4
579.829	1	9
579.998	1	8
580.168	1	5
580.338	1	7
580.508	1	9
580.678	1	6
580.848	1	-2
581.017	1	11
581.187	1	3
581.357	1	-1
581.527	1	-4
581.697	1	1
581.867	1	4
582.036	1	3
582.206	1	4
582.376	1	3
582.546	1	-7
582.716	1	-4
582.885	1	-8
583.055	1	-1
583.225	1	-3
583.395	1	7
583.565	1	0
583.735	1	4
583.904	1	-2
584.074	1	-7
584.244	1	-18
584.414	1	9
584.584	1	3
584.753	1	9
584.923	1	-1
585.093	1	1
585.263	1	11
585.433	1	8
585.602	1	1
585.772	1	-12
585.942	1	3
586.112	1	-4
586.282	1	-3
586.451	1	6
586.621	1	11
586.791	1	-1
586.961	1	8
587.131	1	1
587.300	1	-8
587.470	1	-4
587.640	1	-1
587.810	1	3
587.980	1	-1
588.149	1	1
588.319	1	5
588.489	1	6
588.659	1	-3
588.829	1	7
588.998	1	5
589.168	1	4
589.338	1	5
589.508	1	1
589.677	1	6
589.847	1	14
590.017	1	-15
590.187	1	11
590.357	1	5
590.526	1	-4
590.696	1	-3
590.866	1	-3
591.036	1	7
591.205	1	6
591.375	1	5
591.545	1	-3
591.715	1	4
591.885	1	-1
592.054	1	0
592.224	1	3
592.394	1	-1
592.564	1	2
592.733	1	-8
592.903	1	-1
593.073	1	0
593.243	1	2
593.412	1	2
593.582	1	6
593.752	1	-2
593.922	1	-2
594.091	1	-6
594.261	1	-2
594.431	1	15
594.601	1	3
594.771	1	9
594.940	1	5
595.110	1	-4
595.280	1	-3
595.450	1	1
595.619	1	4
595.789	1	4
595.959	1	14
596.129	1	3
596.298	1	6
596.468	1	-3
596.638	1	-7
596.808	1	9
596.977	1	10
597.147	1	-3
597.317	1	-5
597.487	1	-2
597.656	1	-6
597.826	1	7
597.996	1	6
598.166	1	13
598.335	1	12
598.505	1	8
598.675	1	-7
598.844	1	-6
599.014	1	8
599.184	1	1
599.354	1	0
599.523	1	-6
599.693	1	9
599.863	1	11
600.033	1	-2
600.202	1	10
600.372	1	2
600.542	1	3
600.712	1	2
600.881	1	-14
601.051	1	3
601.221	1	4
601.390	1	-5
601.560	1	15
601.730	1	7
601.900	1	5
602.069	1	3
602.239	1	-1
602.409	1	-4
602.578	1	-4
602.748	1	-1
602.918	1	-7
603.088	1	10
603.257	1	6
603.427	1	-1
603.597	1	2
603.767	1	4
603.936	1	0
604.106	1	4
604.276	1	12
604.445	1	-6
604.615	1	2
604.785	1	3
604.954	1	11
605.124	1	3
605.294	1	7
605.464	1	5
605.633	1	-5
605.803	1	5
605.973	1	3
606.142	1	3
606.312	1	4
606.482	1	7
606.652	1	-2
606.821	1	10
606.991	1	2
607.161	1	-2
607.330	1	-9
607.500	1	9
607.670	1	12
607.839	1	4
608.009	1	1
608.179	1	2
608.348	1	-7
608.518	1	10
608.688	1	-9
608.858	1	14
609.027	1	2
609.197	1	-11
609.367	1	14
609.536	1	6
609.706	1	7
609.876	1	12
610.045	1	4
610.215	1	0
610.385	1	-6
610.554	1	-1
610.724	1	-5
610.894	1	13
611.063	1	-4
611.233	1	5
611.403	1	2
611.572	1	13
611.742	1	9
611.912	1	6
612.081	1	-6
612.251	1	5
612.421	1	5
612.590	1	-1
612.760	1	7
612.930	1	-3
613.099	1	-1
613.269	1	-3
613.439	1	-3
613.608	1	-1
613.778	1	-5
613.948	1	2
614.117	1	10
614.287	1	1
614.457	1	-15
614.626	1	14
614.796	1	7
614.966	1	10
615.135	1	9
615.305	1	12
615.475	1	2
615.644	1	8
615.814	1	-1
615.984	1	0
616.153	1	1
616.323	1	6
616.493	1	22
616.662	1	6
616.832	1	11
617.002	1	2
617.171	1	-8
617.341	1	-11
617.511	1	-6
617.680	1	7
617.850	1	7
618.019	1	-3
618.189	1	10
618.359	1	1
618.528	1	1
618.698	1	16
618.868	1	-2
619.037	1	-5
619.207	1	4
619.377	1	0
619.546	1	3
619.716	1	5
619.885	1	-8
620.055	1	8
620.225	1	9
620.394	1	-3
620.564	1	1
620.734	1	13
620.903	1	8
621.073	1	0
621.242	1	-2
621.412	1	7
621.582	1	2
621.751	1	11
621.921	1	7
622.091	1	2
622.260	1	-5
622.430	1	4
622.599	1	4
622.769	1	7
622.939	1	5
623.108	1	13
623.278	1	6
623.448	1	3
623.617	1	-1
623.787	1	8
623.956	1	8
624.126	1	13
624.296	1	3
624.465	1	4
624.635	1	8
624.804	1	3
624.974	1	4
625.144	1	11
625.313	1	-9
625.483	1	21
625.652	1	6
625.822	1	4
625.992	1	6
626.161	1	15
626.331	1	-9
626.501	1	7
626.670	1	2
626.840	1	9
627.009	1	9
627.179	1	9
627.348	1	5
627.518	1	4
627.688	1	4
627.857	1	8
628.027	1	-6
628.196	1	-7
628.366	1	3
628.536	1	2
628.705	1	1
628.875	1	9
629.044	1	12
629.214	1	0
629.384	1	6
629.553	1	11
629.723	1	1
629.892	1	16
630.062	1	5
630.232	1	1
630.401	1	3
630.571	1	1
630.740	1	7
630.910	1	8
631.079	1	-2
631.249	1	5
631.419	1	0
631.588	1	-2
631.758	1	18
631.927	1	2
632.097	1	5
632.266	1	-1
632.436	1	7
632.606	1	4
632.775	1	16
632.945	1	10
633.114	1	-10
633.284	1	-5
633.453	1	2
633.623	1	5
633.793	1	1
633.962	1	6
634.132	1	-2
634.301	1	7
634.471	1	-4
634.640	1	8
634.810	1	7
634.979	1	6
635.149	1	2
635.319	1	9
635.488	1	18
635.658	1	7
635.827	1	9
635.997	1	-3
636.166	1	9
636.336	1	1
636.505	1	1
636.675	1	14
636.845	1	3
637.014	1	4
637.184	1	5
637.353	1	-1
637.523	1	6
637.692	1	8
637.862	1	10
638.031	1	15
638.201	1	3
638.370	1	4
638.540	1	4
638.710	1	12
638.879	1	4
639.049	1	-4
639.218	1	9
639.388	1	10
639.557	1	11
639.727	1	7
639.896	1	2
640.066	1	14
640.235	1	2
640.405	1	0
640.574	1	13
640.744	1	15
640.914	1	8
641.083	1	10
641.253	1	21
641.422	1	0
641.592	1	1
641.761	1	12
641.931	1	8
642.100	1	-4
642.270	1	-5
642.439	1	6
642.609	1	4
642.778	1	0
642.948	1	5
643.117	1	14
643.287	1	-3
643.456	1	13
643.626	1	18
643.795	1	1
643.965	1	13
644.134	1	-2
644.304	1	10
644.473	1	5
644.643	1	2
644.812	1	8
644.982	1	15
645.151	1	13
645.321	1	12
645.490	1	3
645.660	1	5
645.829	1	5
645.999	1	12
646.168	1	-12
646.338	1	2
646.507	1	8
646.677	1	6
646.846	1	-2
647.016	1	7
647.185	1	7
647.355	1	10
647.524	1	0
647.694	1	-1
647.863	1	-3
648.033	1	7
648.202	1	8
648.372	1	13
648.541	1	-5
648.711	1	8
648.880	1	18
649.050	1	-9
649.219	1	-3
649.389	1	8
649.558	1	-1
649.728	1	5
649.897	1	0
650.067	1	1
650.236	1	8
650.406	1	3
650.575	1	4
650.745	1	5
650.914	1	2
651.084	1	1
651.253	1	14
651.423	1	7
651.592	1	2
651.762	1	9
651.931	1	0
652.101	1	10
652.270	1	10
652.440	1	1
652.609	1	4
652.778	1	0
652.948	1	2
653.117	1	-6
653.287	1	8
653.456	1	14
653.626	1	3
653.795	1	5
653.965	1	1
654.134	1	3
654.304	1	13
654.473	1	0
654.643	1	6
654.812	1	1
654.982	1	4
655.151	1	2
655.320	1	8
655.490	1	0
655.659	1	2
655.829	1	16
655.998	1	5
656.168	1	12
656.337	1	16
656.507	1	-1
656.676	1	4
656.846	1	-4
657.015	1	-4
657.184	1	10
657.354	1	7
657.523	1	0
657.693	1	3
657.862	1	10
658.032	1	5
658.201	1	8
658.371	1	-4
658.540	1	1
658.709	1	-1
658.879	1	-8
659.048	1	5
659.218	1	5
659.387	1	8
659.557	1	4
659.726	1	7
659.895	1	1
660.065	1	-8
660.234	1	11
660.404	1	7
660.573	1	7
660.743	1	6
660.912	1	8
661.081	1	20
661.251	1	3
661.420	1	1
661.590	1	4
661.759	1	1
661.929	1	7
662.098	1	-13
662.267	1	0
662.437	1	0
662.606	1	14
662.776	1	-4
662.945	1	2
663.115	1	6
663.284	1	4
663.453	1	0
663.623	1	7
663.792	1	8
663.962	1	1
664.131	1	9
664.300	1	3
664.470	1	16
664.639	1	3
664.809	1	2
664.978	1	5
665.148	1	2
665.317	1	2
665.486	1	-4
665.656	1	2
665.825	1	10
665.995	1	5
666.164	1	2
666.333	1	7
666.503	1	9
666.672	1	7
666.842	1	1
667.011	1	2
667.180	1	2
667.350	1	8
667.519	1	12
667.689	1	2
667.858	1	4
668.027	1	10
668.197	1	6
668.366	1	1
668.536	1	4
668.705	1	0
668.874	1	1
669.044	1	-2
669.213	1	5
669.382	1	6
669.552	1	6
669.721	1	13
669.891	1	-2
670.060	1	21
670.229	1	4
670.399	1	7
670.568	1	1
670.738	1	1
670.907	1	2
671.076	1	5
671.246	1	5
671.415	1	6
671.584	1	1
671.754	1	7
671.923	1	13
672.093	1	19
672.262	1	15
672.431	1	-9
672.601	1	1
672.770	1	4
672.939	1	1
673.109	1	1
673.278	1	9
673.448	1	1
673.617	1	-12
673.786	1	9
