325.333	1	13
325.504	1	11
325.675	1	-4
325.846	1	7
326.017	1	16
326.188	1	10
326.359	1	0
326.531	1	3
326.702	1	10
326.873	1	9
327.044	1	7
327.215	1	7
327.386	1	7
327.557	1	6
327.728	1	5
327.899	1	8
328.070	1	10
328.241	1	7
328.412	1	11
328.583	1	6
328.754	1	-2
328.926	1	-2
329.097	1	2
329.268	1	7
329.439	1	11
329.610	1	8
329.781	1	1
329.952	1	17
330.123	1	5
330.294	1	-11
330.465	1	8
330.636	1	15
330.807	1	10
330.978	1	8
331.149	1	16
331.320	1	18
331.492	1	12
331.663	1	6
331.834	1	6
332.005	1	15
332.176	1	9
332.347	1	15
332.518	1	11
332.689	1	7
332.860	1	15
333.031	1	4
333.202	1	-8
333.373	1	7
333.544	1	17
333.715	1	21
333.886	1	5
334.057	1	8
334.228	1	5
334.399	1	19
334.570	1	2
334.741	1	13
334.912	1	17
335.084	1	6
335.255	1	7
335.426	1	1
335.597	1	15
335.768	1	7
335.939	1	4
336.110	1	14
336.281	1	9
336.452	1	15
336.623	1	5
336.794	1	7
336.965	1	11
337.136	1	3
337.307	1	10
337.478	1	12
337.649	1	12
337.820	1	11
337.991	1	12
338.162	1	14
338.333	1	7
338.504	1	6
338.675	1	10
338.846	1	2
339.017	1	13
339.188	1	8
339.359	1	16
339.530	1	17
339.701	1	4
339.872	1	7
340.043	1	0
340.214	1	6
340.385	1	11
340.556	1	7
340.727	1	7
340.898	1	21
341.069	1	20
341.240	1	7
341.411	1	6
341.582	1	20
341.753	1	10
341.924	1	3
342.095	1	13
342.266	1	18
342.437	1	19
342.608	1	16
342.779	1	19
342.950	1	11
343.121	1	11
343.292	1	13
343.463	1	8
343.634	1	-1
343.805	1	4
343.976	1	8
344.147	1	13
344.318	1	2
344.489	1	8
344.660	1	14
344.831	1	16
345.002	1	11
345.173	1	-2
345.344	1	8
345.515	1	4
345.686	1	17
345.857	1	2
346.028	1	13
346.199	1	6
346.370	1	13
346.541	1	5
346.712	1	12
346.883	1	8
347.054	1	16
347.225	1	16
347.396	1	8
347.567	1	20
347.738	1	9
347.909	1	4
348.080	1	10
348.251	1	14
348.422	1	7
348.593	1	6
348.764	1	9
348.935	1	4
349.106	1	15
349.277	1	7
349.448	1	16
349.619	1	8
349.790	1	14
349.961	1	12
350.132	1	22
350.303	1	13
350.474	1	-7
350.645	1	8
350.816	1	2
350.987	1	15
351.157	1	12
351.328	1	21
351.499	1	20
351.670	1	10
351.841	1	17
352.012	1	19
352.183	1	2
352.354	1	-4
352.525	1	8
352.696	1	17
352.867	1	2
353.038	1	5
353.209	1	12
353.380	1	4
353.551	1	1
353.722	1	15
353.893	1	-5
354.064	1	6
354.235	1	14
354.406	1	14
354.576	1	14
354.747	1	10
354.918	1	15
355.089	1	8
355.260	1	20
355.431	1	11
355.602	1	9
355.773	1	3
355.944	1	14
356.115	1	19
356.286	1	17
356.457	1	4
356.628	1	9
356.799	1	13
356.970	1	16
357.141	1	5
357.311	1	9
357.482	1	10
357.653	1	10
357.824	1	8
357.995	1	4
358.166	1	10
358.337	1	10
358.508	1	17
358.679	1	12
358.850	1	5
359.021	1	13
359.192	1	20
359.363	1	7
359.533	1	-1
359.704	1	8
359.875	1	13
360.046	1	9
360.217	1	11
360.388	1	11
360.559	1	19
360.730	1	12
360.901	1	8
361.072	1	13
361.243	1	16
361.414	1	-3
361.584	1	5
361.755	1	7
361.926	1	14
362.097	1	6
362.268	1	9
362.439	1	16
362.610	1	12
362.781	1	0
362.952	1	13
363.123	1	14
363.293	1	4
363.464	1	1
363.635	1	5
363.806	1	9
363.977	1	13
364.148	1	1
364.319	1	-3
364.490	1	9
364.661	1	6
364.832	1	17
365.002	1	16
365.173	1	7
365.344	1	4
365.515	1	-2
365.686	1	2
365.857	1	7
366.028	1	5
366.199	1	9
366.370	1	14
366.540	1	20
366.711	1	-1
366.882	1	-5
367.053	1	10
367.224	1	11
367.395	1	9
367.566	1	8
367.737	1	1
367.908	1	6
368.078	1	17
368.249	1	3
368.420	1	10
368.591	1	12
368.762	1	-2
368.933	1	-4
369.104	1	16
369.274	1	9
369.445	1	11
369.616	1	5
369.787	1	11
369.958	1	3
370.129	1	-1
370.300	1	1
370.471	1	5
370.641	1	17
370.812	1	11
370.983	1	8
371.154	1	6
371.325	1	3
371.496	1	12
371.667	1	8
371.837	1	11
372.008	1	-9
372.179	1	5
372.350	1	-1
372.521	1	4
372.692	1	-1
372.863	1	10
373.033	1	19
373.204	1	1
373.375	1	13
373.546	1	20
373.717	1	2
373.888	1	15
374.059	1	11
374.229	1	-2
374.400	1	-1
374.571	1	3
374.742	1	7
374.913	1	8
375.084	1	15
375.254	1	9
375.425	1	-1
375.596	1	22
375.767	1	2
375.938	1	-1
376.109	1	13
376.279	1	0
376.450	1	10
376.621	1	12
376.792	1	12
376.963	1	5
377.134	1	14
377.304	1	11
377.475	1	10
377.646	1	5
377.817	1	-1
377.988	1	10
378.159	1	16
378.329	1	7
378.500	1	20
378.671	1	10
378.842	1	3
379.013	1	12
379.184	1	2
379.354	1	11
379.525	1	0
379.696	1	11
379.867	1	10
380.038	1	12
380.209	1	8
380.379	1	7
380.550	1	9
380.721	1	9
380.892	1	11
381.063	1	17
381.233	1	17
381.404	1	16
381.575	1	19
381.746	1	16
381.917	1	4
382.087	1	22
382.258	1	15
382.429	1	6
382.600	1	15
382.771	1	11
382.941	1	18
383.112	1	10
383.283	1	25
383.454	1	-1
383.625	1	-2
383.795	1	5
383.966	1	2
384.137	1	13
384.308	1	9
384.479	1	8
384.649	1	7
384.820	1	18
384.991	1	14
385.162	1	5
385.333	1	20
385.503	1	6
385.674	1	-2
385.845	1	10
386.016	1	17
386.187	1	14
386.357	1	16
386.528	1	13
386.699	1	14
386.870	1	13
387.041	1	22
387.211	1	13
387.382	1	11
387.553	1	11
387.724	1	27
387.894	1	3
388.065	1	10
388.236	1	16
388.407	1	17
388.578	1	10
388.748	1	12
388.919	1	8
389.090	1	23
389.261	1	4
389.431	1	10
389.602	1	21
389.773	1	11
389.944	1	13
390.114	1	27
390.285	1	13
390.456	1	6
390.627	1	11
390.798	1	8
390.968	1	24
391.139	1	17
391.310	1	18
391.481	1	19
391.651	1	20
391.822	1	13
391.993	1	15
392.164	1	10
392.334	1	2
392.505	1	18
392.676	1	14
392.847	1	19
393.017	1	12
393.188	1	22
393.359	1	13
393.530	1	25
393.700	1	3
393.871	1	9
394.042	1	18
394.213	1	12
394.383	1	17
394.554	1	25
394.725	1	14
394.896	1	6
395.066	1	11
395.237	1	22
395.408	1	21
395.579	1	9
395.749	1	12
395.920	1	9
396.091	1	18
396.262	1	1
396.432	1	19
396.603	1	17
396.774	1	16
396.945	1	24
397.115	1	13
397.286	1	16
397.457	1	7
397.627	1	3
397.798	1	12
397.969	1	15
398.140	1	15
398.310	1	14
398.481	1	11
398.652	1	12
398.823	1	18
398.993	1	20
399.164	1	13
399.335	1	18
399.505	1	6
399.676	1	14
399.847	1	10
400.018	1	28
400.188	1	12
400.359	1	17
400.530	1	15
400.700	1	18
400.871	1	11
401.042	1	24
401.213	1	13
401.383	1	9
401.554	1	5
401.725	1	20
401.895	1	9
402.066	1	15
402.237	1	16
402.408	1	15
402.578	1	6
402.749	1	8
402.920	1	22
403.090	1	13
403.261	1	30
403.432	1	21
403.603	1	17
403.773	1	14
403.944	1	18
404.115	1	16
404.285	1	20
404.456	1	17
404.627	1	19
404.797	1	14
404.968	1	19
405.139	1	13
405.310	1	17
405.480	1	18
405.651	1	11
405.822	1	25
405.992	1	15
406.163	1	24
406.334	1	24
406.504	1	23
406.675	1	42
406.846	1	18
407.016	1	24
407.187	1	22
407.358	1	17
407.528	1	20
407.699	1	7
407.870	1	28
408.041	1	16
408.211	1	21
408.382	1	24
408.553	1	20
408.723	1	12
408.894	1	19
409.065	1	12
409.235	1	22
409.406	1	7
409.577	1	16
409.747	1	24
409.918	1	12
410.089	1	19
410.259	1	9
410.430	1	26
410.601	1	28
410.771	1	22
410.942	1	10
411.113	1	22
411.283	1	16
411.454	1	14
411.625	1	17
411.795	1	11
411.966	1	29
412.137	1	11
412.307	1	22
412.478	1	26
412.649	1	17
412.819	1	24
412.990	1	23
413.161	1	23
413.331	1	14
413.502	1	18
413.672	1	17
413.843	1	16
414.014	1	22
414.184	1	20
414.355	1	24
414.526	1	22
414.696	1	30
414.867	1	21
415.038	1	17
415.208	1	33
415.379	1	21
415.550	1	23
415.720	1	25
415.891	1	32
416.062	1	27
416.232	1	8
416.403	1	28
416.573	1	14
416.744	1	19
416.915	1	29
417.085	1	26
417.256	1	12
417.427	1	17
417.597	1	19
417.768	1	23
417.939	1	16
418.109	1	19
418.280	1	14
418.450	1	14
418.621	1	25
418.792	1	14
418.962	1	9
419.133	1	21
419.304	1	19
419.474	1	18
419.645	1	17
419.815	1	13
419.986	1	12
420.157	1	21
420.327	1	21
420.498	1	20
420.669	1	22
420.839	1	13
421.010	1	18
421.180	1	20
421.351	1	14
421.522	1	17
421.692	1	26
421.863	1	20
422.033	1	15
422.204	1	30
422.375	1	16
422.545	1	19
422.716	1	11
422.886	1	21
423.057	1	20
423.228	1	23
423.398	1	14
423.569	1	13
423.740	1	19
423.910	1	29
424.081	1	16
424.251	1	13
424.422	1	18
424.593	1	28
424.763	1	18
424.934	1	15
425.104	1	23
425.275	1	19
425.445	1	10
425.616	1	25
425.787	1	24
425.957	1	22
426.128	1	25
426.298	1	27
426.469	1	15
426.640	1	11
426.810	1	39
426.981	1	20
427.151	1	24
427.322	1	29
427.493	1	17
427.663	1	26
427.834	1	16
428.004	1	14
428.175	1	32
428.345	1	25
428.516	1	23
428.687	1	29
428.857	1	12
429.028	1	19
429.198	1	31
429.369	1	22
429.540	1	15
429.710	1	15
429.881	1	10
430.051	1	22
430.222	1	19
430.392	1	19
430.563	1	26
430.734	1	26
430.904	1	20
431.075	1	25
431.245	1	6
431.416	1	23
431.586	1	2
431.757	1	19
431.927	1	31
432.098	1	8
432.269	1	22
432.439	1	25
432.610	1	23
432.780	1	19
432.951	1	19
433.121	1	20
433.292	1	9
433.462	1	16
433.633	1	9
433.804	1	16
433.974	1	17
434.145	1	22
434.315	1	11
434.486	1	25
434.656	1	30
434.827	1	20
434.997	1	19
435.168	1	18
435.339	1	17
435.509	1	15
435.680	1	23
435.850	1	17
436.021	1	23
436.191	1	26
436.362	1	24
436.532	1	29
436.703	1	25
436.873	1	12
437.044	1	13
437.214	1	10
437.385	1	27
437.556	1	15
437.726	1	27
437.897	1	10
438.067	1	11
438.238	1	7
438.408	1	11
438.579	1	14
438.749	1	24
438.920	1	26
439.090	1	20
439.261	1	24
439.431	1	15
439.602	1	21
439.772	1	22
439.943	1	21
440.113	1	22
440.284	1	18
440.455	1	11
440.625	1	34
440.796	1	23
440.966	1	16
441.137	1	12
441.307	1	8
441.478	1	21
441.648	1	19
441.819	1	9
441.989	1	26
442.160	1	16
442.330	1	10
442.501	1	14
442.671	1	12
442.842	1	31
443.012	1	24
443.183	1	19
443.353	1	24
443.524	1	11
443.694	1	14
443.865	1	25
444.035	1	12
444.206	1	10
444.376	1	20
444.547	1	25
444.717	1	14
444.888	1	21
445.058	1	22
445.229	1	12
445.399	1	12
445.570	1	10
445.740	1	10
445.911	1	21
446.081	1	35
446.252	1	25
446.422	1	15
446.593	1	17
446.763	1	13
446.934	1	14
447.104	1	12
447.275	1	23
447.445	1	20
447.616	1	18
447.786	1	14
447.957	1	11
448.127	1	21
448.298	1	21
448.468	1	14
448.639	1	13
448.809	1	21
448.979	1	2
449.150	1	18
449.320	1	21
449.491	1	13
449.661	1	32
449.832	1	20
450.002	1	22
450.173	1	16
450.343	1	24
450.514	1	14
450.684	1	13
450.855	1	19
451.025	1	9
451.196	1	12
451.366	1	18
451.537	1	17
451.707	1	21
451.878	1	10
452.048	1	15
452.218	1	18
452.389	1	15
452.559	1	11
452.730	1	9
452.900	1	13
453.071	1	12
453.241	1	26
453.412	1	20
453.582	1	12
453.753	1	7
453.923	1	26
454.093	1	21
454.264	1	30
454.434	1	24
454.605	1	15
454.775	1	19
454.946	1	30
455.116	1	18
455.287	1	11
455.457	1	14
455.628	1	14
455.798	1	25
455.968	1	16
456.139	1	18
456.309	1	10
456.480	1	20
456.650	1	24
456.821	1	22
456.991	1	18
457.161	1	21
457.332	1	18
457.502	1	12
457.673	1	12
457.843	1	21
458.014	1	12
458.184	1	11
458.355	1	15
458.525	1	10
458.695	1	21
458.866	1	18
459.036	1	19
459.207	1	10
459.377	1	22
459.548	1	10
459.718	1	9
459.888	1	17
460.059	1	13
460.229	1	9
460.400	1	16
460.570	1	21
460.740	1	10
460.911	1	10
461.081	1	7
461.252	1	17
461.422	1	9
461.593	1	7
461.763	1	22
461.933	1	6
462.104	1	15
462.274	1	17
462.445	1	12
462.615	1	4
462.785	1	19
462.956	1	7
463.126	1	2
463.297	1	12
463.467	1	26
463.638	1	3
463.808	1	2
463.978	1	8
464.149	1	16
464.319	1	7
464.490	1	13
464.660	1	15
464.830	1	-2
465.001	1	21
465.171	1	7
465.342	1	14
465.512	1	12
465.682	1	16
465.853	1	14
466.023	1	17
466.194	1	19
466.364	1	19
466.534	1	12
466.705	1	17
466.875	1	13
467.045	1	4
467.216	1	16
467.386	1	7
467.557	1	5
467.727	1	8
467.897	1	5
468.068	1	14
468.238	1	7
468.409	1	13
468.579	1	12
468.749	1	4
468.920	1	9
469.090	1	22
469.260	1	2
469.431	1	11
469.601	1	9
469.772	1	5
469.942	1	23
470.112	1	26
470.283	1	19
470.453	1	21
470.623	1	8
470.794	1	17
470.964	1	0
471.135	1	11
471.305	1	10
471.475	1	2
471.646	1	6
471.816	1	10
471.986	1	14
472.157	1	14
472.327	1	15
472.497	1	7
472.668	1	9
472.838	1	2
473.009	1	25
473.179	1	17
473.349	1	5
473.520	1	3
473.690	1	15
473.860	1	10
474.031	1	9
474.201	1	22
474.371	1	7
474.542	1	21
474.712	1	6
474.882	1	11
475.053	1	18
475.223	1	21
475.394	1	10
475.564	1	5
475.734	1	-3
475.905	1	1
476.075	1	1
476.245	1	15
476.416	1	23
476.586	1	16
476.756	1	11
476.927	1	12
477.097	1	22
477.267	1	12
477.438	1	-2
477.608	1	8
477.778	1	18
477.949	1	12
478.119	1	15
478.289	1	15
478.460	1	21
478.630	1	8
478.800	1	4
478.971	1	11
479.141	1	8
479.311	1	9
479.482	1	11
479.652	1	8
479.822	1	12
479.993	1	21
480.163	1	12
480.333	1	19
480.504	1	8
480.674	1	12
480.844	1	10
481.015	1	1
481.185	1	19
481.355	1	-6
481.525	1	19
481.696	1	16
481.866	1	4
482.036	1	7
482.207	1	4
482.377	1	2
482.547	1	13
482.718	1	4
482.888	1	2
483.058	1	3
483.229	1	1
483.399	1	17
483.569	1	10
483.740	1	11
483.910	1	3
484.080	1	9
484.250	1	10
484.421	1	21
484.591	1	-1
484.761	1	10
484.932	1	12
485.102	1	8
485.272	1	0
485.443	1	5
485.613	1	9
485.783	1	9
485.953	1	2
486.124	1	2
486.294	1	15
486.464	1	6
486.635	1	8
486.805	1	9
486.975	1	4
487.146	1	-1
487.316	1	10
487.486	1	13
487.656	1	3
487.827	1	14
487.997	1	-2
488.167	1	11
488.338	1	-3
488.508	1	-1
488.678	1	7
488.848	1	8
489.019	1	19
489.189	1	12
489.359	1	9
489.529	1	-5
489.700	1	5
489.870	1	-1
490.040	1	-3
490.211	1	9
490.381	1	4
490.551	1	1
490.721	1	20
490.892	1	18
491.062	1	4
491.232	1	-7
491.402	1	9
491.573	1	1
491.743	1	4
491.913	1	13
492.084	1	7
492.254	1	14
492.424	1	5
492.594	1	13
492.765	1	4
492.935	1	14
493.105	1	10
493.275	1	-6
493.446	1	1
493.616	1	3
493.786	1	13
493.956	1	-6
494.127	1	-3
494.297	1	8
494.467	1	14
494.637	1	16
494.808	1	0
494.978	1	1
495.148	1	8
495.318	1	-4
495.489	1	6
495.659	1	13
495.829	1	12
495.999	1	5
496.170	1	5
496.340	1	7
496.510	1	2
496.680	1	8
496.851	1	-5
497.021	1	-3
497.191	1	3
497.361	1	4
497.532	1	11
497.702	1	10
497.872	1	10
498.042	1	14
498.213	1	11
498.383	1	13
498.553	1	0
498.723	1	-7
498.894	1	6
499.064	1	6
499.234	1	3
499.404	1	5
499.574	1	4
499.745	1	4
499.915	1	-8
500.085	1	9
500.255	1	9
500.426	1	10
500.596	1	8
500.766	1	6
500.936	1	-1
501.106	1	15
501.277	1	16
501.447	1	8
501.617	1	13
501.787	1	7
501.958	1	9
502.128	1	14
502.298	1	8
502.468	1	9
502.638	1	-2
502.809	1	0
502.979	1	-1
503.149	1	6
503.319	1	6
503.489	1	1
503.660	1	3
503.830	1	-2
504.000	1	1
504.170	1	2
504.340	1	5
504.511	1	5
504.681	1	14
504.851	1	19
505.021	1	8
505.192	1	-9
505.362	1	0
505.532	1	-4
505.702	1	-4
505.872	1	12
506.043	1	11
506.213	1	10
506.383	1	9
506.553	1	-2
506.723	1	11
506.893	1	5
507.064	1	0
507.234	1	0
507.404	1	15
507.574	1	8
507.744	1	4
507.915	1	9
508.085	1	-8
508.255	1	8
508.425	1	4
508.595	1	0
508.766	1	-5
508.936	1	13
509.106	1	7
509.276	1	7
509.446	1	7
509.616	1	1
509.787	1	9
509.957	1	4
510.127	1	-1
510.297	1	4
510.467	1	-6
510.638	1	0
510.808	1	4
510.978	1	10
511.148	1	14
511.318	1	5
511.488	1	16
511.659	1	9
511.829	1	2
511.999	1	-9
512.169	1	4
512.339	1	0
512.509	1	-1
512.680	1	-4
512.850	1	8
513.020	1	12
513.190	1	9
513.360	1	0
513.530	1	0
513.700	1	2
513.871	1	9
514.041	1	6
514.211	1	-1
514.381	1	13
514.551	1	2
514.721	1	4
514.892	1	8
515.062	1	3
515.232	1	11
515.402	1	10
515.572	1	2
515.742	1	7
515.912	1	4
516.083	1	7
516.253	1	7
516.423	1	-2
516.593	1	-3
516.763	1	6
516.933	1	7
517.104	1	1
517.274	1	3
517.444	1	2
517.614	1	8
517.784	1	-3
517.954	1	4
518.124	1	1
518.294	1	4
518.465	1	9
518.635	1	2
518.805	1	11
518.975	1	-4
519.145	1	7
519.315	1	2
519.485	1	2
519.656	1	7
519.826	1	2
519.996	1	1
520.166	1	1
520.336	1	-7
520.506	1	10
520.676	1	11
520.846	1	-2
521.017	1	6
521.187	1	7
521.357	1	6
521.527	1	2
521.697	1	-5
521.867	1	7
522.037	1	2
522.207	1	15
522.377	1	4
522.548	1	16
522.718	1	1
522.888	1	17
523.058	1	0
523.228	1	-2
523.398	1	1
523.568	1	-2
523.738	1	-1
523.909	1	16
524.079	1	4
524.249	1	-1
524.419	1	6
524.589	1	6
524.759	1	10
524.929	1	-4
525.099	1	-2
525.269	1	-11
525.439	1	11
525.610	1	-7
525.780	1	9
525.950	1	14
526.120	1	3
526.290	1	5
526.460	1	15
526.630	1	12
526.800	1	0
526.970	1	6
527.140	1	12
527.311	1	5
527.481	1	-2
527.651	1	1
527.821	1	-3
527.991	1	-7
528.161	1	-1
528.331	1	13
528.501	1	10
528.671	1	7
528.841	1	8
529.011	1	-5
529.181	1	3
529.352	1	5
529.522	1	6
529.692	1	-8
529.862	1	3
530.032	1	-1
530.202	1	12
530.372	1	16
530.542	1	-7
530.712	1	15
530.882	1	7
531.052	1	2
531.222	1	5
531.392	1	-3
531.563	1	-4
531.733	1	0
531.903	1	5
532.073	1	12
532.243	1	13
532.413	1	-1
532.583	1	3
532.753	1	6
532.923	1	-1
533.093	1	4
533.263	1	-5
533.433	1	-2
533.603	1	-3
533.773	1	5
533.943	1	9
534.113	1	7
534.284	1	-6
534.454	1	2
534.624	1	7
534.794	1	16
534.964	1	3
535.134	1	14
535.304	1	9
535.474	1	3
535.644	1	5
535.814	1	7
535.984	1	4
536.154	1	9
536.324	1	5
536.494	1	6
536.664	1	4
536.834	1	7
537.004	1	12
537.174	1	7
537.344	1	8
537.514	1	6
537.685	1	-1
537.855	1	0
538.025	1	8
538.195	1	3
538.365	1	5
538.535	1	-8
538.705	1	2
538.875	1	6
539.045	1	4
539.215	1	5
539.385	1	2
539.555	1	4
539.725	1	-1
539.895	1	7
540.065	1	0
540.235	1	6
540.405	1	5
540.575	1	-3
540.745	1	7
540.915	1	-1
541.085	1	-1
541.255	1	8
541.425	1	-3
541.595	1	6
541.765	1	7
541.935	1	0
542.105	1	-3
542.275	1	9
542.445	1	5
542.615	1	5
542.785	1	-6
542.955	1	0
543.125	1	6
543.295	1	14
543.465	1	-4
543.635	1	-1
543.805	1	3
543.975	1	2
544.145	1	16
544.315	1	-10
544.485	1	6
544.655	1	-8
544.825	1	4
544.995	1	11
545.165	1	-1
545.335	1	-5
545.505	1	2
545.675	1	-16
545.845	1	11
546.015	1	5
546.185	1	-2
546.355	1	4
546.525	1	5
546.695	1	-1
546.865	1	2
547.035	1	-12
547.205	1	9
547.375	1	7
547.545	1	0
547.715	1	5
547.885	1	-3
548.055	1	5
548.225	1	1
548.395	1	1
548.565	1	9
548.735	1	10
548.905	1	5
549.075	1	0
549.245	1	18
549.415	1	-4
549.585	1	2
549.755	1	11
549.925	1	4
550.095	1	10
550.265	1	15
550.435	1	-3
550.605	1	1
550.775	1	10
550.945	1	0
551.115	1	7
551.285	1	-1
551.455	1	6
551.625	1	0
551.795	1	-6
551.965	1	2
552.135	1	5
552.305	1	-2
552.475	1	4
552.645	1	4
552.815	1	0
552.985	1	-4
553.155	1	9
553.325	1	-4
553.495	1	7
553.665	1	-4
553.835	1	7
554.004	1	8
554.174	1	7
554.344	1	4
554.514	1	2
554.684	1	-6
554.854	1	0
555.024	1	-1
555.194	1	-1
555.364	1	7
555.534	1	-4
555.704	1	12
555.874	1	-11
556.044	1	-1
556.214	1	-5
556.384	1	3
556.554	1	-3
556.724	1	-8
556.894	1	-6
557.064	1	7
557.234	1	0
557.404	1	5
557.573	1	1
557.743	1	-4
557.913	1	6
558.083	1	2
558.253	1	-12
558.423	1	8
558.593	1	-2
558.763	1	3
558.933	1	1
559.103	1	9
559.273	1	6
559.443	1	2
559.613	1	-11
559.783	1	-8
559.953	1	4
560.122	1	4
560.292	1	4
560.462	1	4
560.632	1	0
560.802	1	-2
560.972	1	-3
561.142	1	2
561.312	1	-2
561.482	1	-2
561.652	1	-1
561.822	1	-6
561.992	1	-2
562.162	1	7
562.331	1	8
562.501	1	-4
562.671	1	4
562.841	1	2
563.011	1	15
563.181	1	7
563.351	1	2
563.521	1	3
563.691	1	-9
563.861	1	11
564.031	1	-3
564.201	1	10
564.370	1	2
564.540	1	5
564.710	1	0
564.880	1	1
565.050	1	17
565.220	1	-2
565.390	1	3
565.560	1	8
565.730	1	1
565.900	1	2
566.069	1	5
566.239	1	-2
566.409	1	-16
566.579	1	3
566.749	1	-8
566.919	1	-2
567.089	1	3
567.259	1	11
567.429	1	4
567.599	1	6
567.768	1	0
567.938	1	-3
568.108	1	10
568.278	1	4
568.448	1	-1
568.618	1	-2
568.788	1	10
568.958	1	-3
569.128	1	2
569.297	1	-6
569.467	1	-3
569.637	1	5
569.807	1	4
569.977	1	-6
570.147	1	8
570.317	1	2
570.487	1	0
570.656	1	-8
570.826	1	4
570.996	1	-6
571.166	1	6
571.336	1	5
571.506	1	7
571.676	1	12
571.846	1	4
572.015	1	-7
572.185	1	9
572.355	1	2
572.525	1	2
572.695	1	3
572.865	1	-2
573.035	1	7
573.205	1	9
573.374	1	-4
573.544	1	10
573.714	1	-3
573.884	1	-4
574.054	1	3
574.224	1	-1
574.394	1	-10
574.563	1	6
574.733	1	0
574.903	1	0
575.073	1	7
575.243	1	9
575.413	1	5
575.583	1	6
575.752	1	6
575.922	1	-1
576.092	1	-11
576.262	1	-3
576.432	1	-1
576.602	1	-5
576.772	1	8
576.941	1	11
577.111	1	-1
577.281	1	2
577.451	1	4
577.621	1	2
577.791	1	3
577.960	1	-10
578.130	1	-3
578.300	1	-4
578.470	1	-6
578.640	1	9
578.810	1	-4
578.979	1	8
579.149	1	-5
579.319	1	2
579.489	1	7
579.659	1	3
579.829	1	5
579.998	1	-7
580.168	1	-1
580.338	1	-3
580.508	1	3
580.678	1	-3
580.848	1	3
581.017	1	5
581.187	1	16
581.357	1	-3
581.527	1	3
581.697	1	0
581.867	1	2
582.036	1	-5
582.206	1	5
582.376	1	4
582.546	1	-10
582.716	1	-7
582.885	1	-8
583.055	1	4
583.225	1	4
583.395	1	3
583.565	1	1
583.735	1	2
583.904	1	-7
584.074	1	-7
584.244	1	-7
584.414	1	3
584.584	1	-1
584.753	1	0
584.923	1	0
585.093	1	10
585.263	1	-7
585.433	1	-2
585.602	1	7
585.772	1	-8
585.942	1	13
586.112	1	2
586.282	1	4
586.451	1	0
586.621	1	5
586.791	1	0
586.961	1	-3
587.131	1	-5
587.300	1	4
587.470	1	-2
587.640	1	6
587.810	1	4
587.980	1	-4
588.149	1	1
588.319	1	-4
588.489	1	3
588.659	1	1
588.829	1	-4
588.998	1	-2
589.168	1	10
589.338	1	2
589.508	1	3
589.677	1	13
589.847	1	1
590.017	1	-3
590.187	1	7
590.357	1	0
590.526	1	-10
590.696	1	-11
590.866	1	1
591.036	1	6
591.205	1	4
591.375	1	-2
591.545	1	2
591.715	1	0
591.885	1	2
592.054	1	1
592.224	1	6
592.394	1	-6
592.564	1	-7
592.733	1	-6
592.903	1	0
593.073	1	4
593.243	1	6
593.412	1	6
593.582	1	14
593.752	1	-3
593.922	1	-9
594.091	1	-15
594.261	1	5
594.431	1	13
594.601	1	-3
594.771	1	13
594.940	1	3
595.110	1	4
595.280	1	-3
595.450	1	7
595.619	1	6
595.789	1	2
595.959	1	8
596.129	1	-9
596.298	1	19
596.468	1	5
596.638	1	-2
596.808	1	14
596.977	1	-3
597.147	1	-22
597.317	1	-9
597.487	1	6
597.656	1	-5
597.826	1	13
597.996	1	3
598.166	1	16
598.335	1	-1
598.505	1	7
598.675	1	-7
598.844	1	-12
599.014	1	3
599.184	1	2
599.354	1	2
599.523	1	8
599.693	1	13
599.863	1	11
600.033	1	1
600.202	1	10
600.372	1	-3
600.542	1	2
600.712	1	2
600.881	1	-3
601.051	1	-8
601.221	1	11
601.390	1	-7
601.560	1	5
601.730	1	11
601.900	1	3
602.069	1	4
602.239	1	10
602.409	1	3
602.578	1	-6
602.748	1	1
602.918	1	0
603.088	1	9
603.257	1	7
603.427	1	6
603.597	1	-2
603.767	1	-5
603.936	1	-4
604.106	1	4
604.276	1	11
604.445	1	10
604.615	1	6
604.785	1	13
604.954	1	10
605.124	1	-6
605.294	1	-4
605.464	1	-1
605.633	1	1
605.803	1	1
605.973	1	5
606.142	1	0
606.312	1	0
606.482	1	5
606.652	1	2
606.821	1	2
606.991	1	-2
607.161	1	1
607.330	1	-8
607.500	1	10
607.670	1	1
607.839	1	16
608.009	1	8
608.179	1	5
608.348	1	0
608.518	1	-1
608.688	1	2
608.858	1	5
609.027	1	9
609.197	1	-2
609.367	1	11
609.536	1	7
609.706	1	1
609.876	1	14
610.045	1	0
610.215	1	0
610.385	1	-14
610.554	1	-5
610.724	1	-2
610.894	1	7
611.063	1	-3
611.233	1	8
611.403	1	0
611.572	1	3
611.742	1	4
611.912	1	-2
612.081	1	7
612.251	1	5
612.421	1	8
612.590	1	-3
612.760	1	11
612.930	1	-2
613.099	1	7
613.269	1	1
613.439	1	1
613.608	1	2
613.778	1	6
613.948	1	1
614.117	1	9
614.287	1	7
614.457	1	-8
614.626	1	3
614.796	1	8
614.966	1	6
615.135	1	11
615.305	1	1
615.475	1	5
615.644	1	8
615.814	1	3
615.984	1	-3
616.153	1	5
616.323	1	0
616.493	1	20
616.662	1	4
616.832	1	14
617.002	1	-3
617.171	1	8
617.341	1	-1
617.511	1	8
617.680	1	0
617.850	1	1
618.019	1	2
618.189	1	-2
618.359	1	-3
618.528	1	7
618.698	1	14
618.868	1	-1
619.037	1	6
619.207	1	-1
619.377	1	0
619.546	1	-10
619.716	1	7
619.885	1	9
620.055	1	7
620.225	1	14
620.394	1	-1
620.564	1	13
620.734	1	13
620.903	1	5
621.073	1	-3
621.242	1	1
621.412	1	7
621.582	1	10
621.751	1	10
621.921	1	8
622.091	1	7
622.260	1	-2
622.430	1	1
622.599	1	-8
622.769	1	11
622.939	1	3
623.108	1	4
623.278	1	8
623.448	1	4
623.617	1	5
623.787	1	12
623.956	1	5
624.126	1	15
624.296	1	5
624.465	1	5
624.635	1	6
624.804	1	5
624.974	1	7
625.144	1	-1
625.313	1	2
625.483	1	24
625.652	1	7
625.822	1	-3
625.992	1	11
626.161	1	4
626.331	1	5
626.501	1	-2
626.670	1	12
626.840	1	7
627.009	1	5
627.179	1	5
627.348	1	10
627.518	1	3
627.688	1	5
627.857	1	16
628.027	1	-4
628.196	1	5
628.366	1	-3
628.536	1	0
628.705	1	11
628.875	1	12
629.044	1	10
629.214	1	6
629.384	1	8
629.553	1	4
629.723	1	-6
629.892	1	17
630.062	1	-8
630.232	1	4
630.401	1	13
630.571	1	13
630.740	1	11
630.910	1	15
631.079	1	-2
631.249	1	6
631.419	1	-6
631.588	1	4
631.758	1	13
631.927	1	3
632.097	1	7
632.266	1	1
632.436	1	3
632.606	1	5
632.775	1	21
632.945	1	21
633.114	1	2
633.284	1	-1
633.453	1	-1
633.623	1	10
633.793	1	-1
633.962	1	-2
634.132	1	2
634.301	1	5
634.471	1	1
634.640	1	2
634.810	1	10
634.979	1	3
635.149	1	6
635.319	1	9
635.488	1	14
635.658	1	6
635.827	1	6
635.997	1	6
636.166	1	1
636.336	1	-6
636.505	1	11
636.675	1	17
636.845	1	3
637.014	1	9
637.184	1	11
637.353	1	12
637.523	1	-3
637.692	1	16
637.862	1	6
638.031	1	10
638.201	1	3
638.370	1	10
638.540	1	-3
638.710	1	12
638.879	1	-4
639.049	1	5
639.218	1	5
639.388	1	-4
639.557	1	11
639.727	1	9
639.896	1	17
640.066	1	17
640.235	1	12
640.405	1	17
640.574	1	4
640.744	1	12
640.914	1	9
641.083	1	6
641.253	1	20
641.422	1	4
641.592	1	5
641.761	1	8
641.931	1	-1
642.100	1	5
642.270	1	6
642.439	1	3
642.609	1	5
642.778	1	-7
642.948	1	11
643.117	1	10
643.287	1	6
643.456	1	7
643.626	1	10
643.795	1	9
643.965	1	10
644.134	1	14
644.304	1	7
644.473	1	11
644.643	1	0
644.812	1	13
644.982	1	8
645.151	1	19
645.321	1	-1
645.490	1	0
645.660	1	4
645.829	1	6
645.999	1	1
646.168	1	7
646.338	1	1
646.507	1	9
646.677	1	1
646.846	1	3
647.016	1	18
647.185	1	-1
647.355	1	9
647.524	1	1
647.694	1	11
647.863	1	6
648.033	1	5
648.202	1	7
648.372	1	7
648.541	1	3
648.711	1	16
648.880	1	9
649.050	1	2
649.219	1	-2
649.389	1	3
649.558	1	0
649.728	1	1
649.897	1	12
650.067	1	13
650.236	1	14
650.406	1	6
650.575	1	19
650.745	1	3
650.914	1	5
651.084	1	-1
651.253	1	1
651.423	1	3
651.592	1	8
651.762	1	15
651.931	1	2
652.101	1	10
652.270	1	1
652.440	1	5
652.609	1	4
652.778	1	0
652.948	1	3
653.117	1	-5
653.287	1	18
653.456	1	15
653.626	1	5
653.795	1	7
653.965	1	9
654.134	1	10
654.304	1	12
654.473	1	6
654.643	1	3
654.812	1	3
654.982	1	3
655.151	1	2
655.320	1	-3
655.490	1	5
655.659	1	6
655.829	1	11
655.998	1	9
656.168	1	1
656.337	1	5
656.507	1	1
656.676	1	14
656.846	1	-5
657.015	1	-2
657.184	1	-3
657.354	1	4
657.523	1	6
657.693	1	10
657.862	1	6
658.032	1	1
658.201	1	10
658.371	1	-5
658.540	1	1
658.709	1	-4
658.879	1	-9
659.048	1	7
659.218	1	16
659.387	1	-4
659.557	1	9
659.726	1	8
659.895	1	3
660.065	1	-5
660.234	1	0
660.404	1	5
660.573	1	11
660.743	1	11
660.912	1	7
661.081	1	18
661.251	1	10
661.420	1	2
661.590	1	0
661.759	1	11
661.929	1	4
662.098	1	1
662.267	1	6
662.437	1	5
662.606	1	19
662.776	1	3
662.945	1	-1
663.115	1	16
663.284	1	8
663.453	1	3
663.623	1	6
663.792	1	9
663.962	1	1
664.131	1	5
664.300	1	13
664.470	1	7
664.639	1	2
664.809	1	-4
664.978	1	-7
665.148	1	8
665.317	1	4
665.486	1	6
665.656	1	3
665.825	1	8
665.995	1	10
666.164	1	-1
666.333	1	2
666.503	1	3
666.672	1	2
666.842	1	6
667.011	1	4
667.180	1	6
667.350	1	14
667.519	1	10
667.689	1	1
667.858	1	4
668.027	1	11
668.197	1	13
668.366	1	7
668.536	1	11
668.705	1	5
668.874	1	14
669.044	1	6
669.213	1	-1
669.382	1	-1
669.552	1	11
669.721	1	14
669.891	1	15
670.060	1	14
670.229	1	-1
670.399	1	14
670.568	1	-8
670.738	1	-4
670.907	1	0
671.076	1	15
671.246	1	6
671.415	1	6
671.584	1	-1
671.754	1	14
671.923	1	9
672.093	1	8
672.262	1	10
672.431	1	1
672.601	1	6
672.770	1	7
672.939	1	9
673.109	1	2
673.278	1	8
673.448	1	6
673.617	1	-2
673.786	1	8
