325.333	1	19
325.504	1	3
325.675	1	8
325.846	1	10
326.017	1	6
326.188	1	22
326.359	1	5
326.531	1	1
326.702	1	18
326.873	1	10
327.044	1	11
327.215	1	8
327.386	1	6
327.557	1	14
327.728	1	8
327.899	1	19
328.070	1	13
328.241	1	12
328.412	1	7
328.583	1	15
328.754	1	13
328.926	1	1
329.097	1	5
329.268	1	7
329.439	1	9
329.610	1	19
329.781	1	4
329.952	1	11
330.123	1	10
330.294	1	2
330.465	1	7
330.636	1	7
330.807	1	11
330.978	1	8
331.149	1	21
331.320	1	8
331.492	1	23
331.663	1	12
331.834	1	15
332.005	1	18
332.176	1	16
332.347	1	22
332.518	1	19
332.689	1	7
332.860	1	17
333.031	1	11
333.202	1	7
333.373	1	17
333.544	1	9
333.715	1	16
333.886	1	3
334.057	1	14
334.228	1	14
334.399	1	17
334.570	1	13
334.741	1	17
334.912	1	10
335.084	1	8
335.255	1	15
335.426	1	10
335.597	1	18
335.768	1	18
335.939	1	16
336.110	1	14
336.281	1	20
336.452	1	27
336.623	1	15
336.794	1	18
336.965	1	8
337.136	1	5
337.307	1	9
337.478	1	4
337.649	1	20
337.820	1	19
337.991	1	14
338.162	1	20
338.333	1	10
338.504	1	17
338.675	1	9
338.846	1	12
339.017	1	26
339.188	1	9
339.359	1	22
339.530	1	21
339.701	1	14
339.872	1	19
340.043	1	4
340.214	1	9
340.385	1	7
340.556	1	16
340.727	1	14
340.898	1	18
341.069	1	24
341.240	1	20
341.411	1	17
341.582	1	28
341.753	1	14
341.924	1	20
342.095	1	15
342.266	1	17
342.437	1	18
342.608	1	21
342.779	1	20
342.950	1	12
343.121	1	21
343.292	1	13
343.463	1	20
343.634	1	11
343.805	1	7
343.976	1	11
344.147	1	14
344.318	1	20
344.489	1	25
344.660	1	22
344.831	1	24
345.002	1	19
345.173	1	4
345.344	1	21
345.515	1	3
345.686	1	30
345.857	1	12
346.028	1	22
346.199	1	15
346.370	1	21
346.541	1	12
346.712	1	18
346.883	1	22
347.054	1	8
347.225	1	15
347.396	1	4
347.567	1	27
347.738	1	21
347.909	1	17
348.080	1	15
348.251	1	32
348.422	1	26
348.593	1	21
348.764	1	22
348.935	1	21
349.106	1	12
349.277	1	17
349.448	1	29
349.619	1	18
349.790	1	26
349.961	1	35
350.132	1	26
350.303	1	20
350.474	1	20
350.645	1	23
350.816	1	23
350.987	1	21
351.157	1	23
351.328	1	36
351.499	1	19
351.670	1	14
351.841	1	31
352.012	1	25
352.183	1	25
352.354	1	11
352.525	1	22
352.696	1	35
352.867	1	17
353.038	1	11
353.209	1	15
353.380	1	20
353.551	1	13
353.722	1	29
353.893	1	34
354.064	1	23
354.235	1	36
354.406	1	33
354.576	1	30
354.747	1	21
354.918	1	31
355.089	1	26
355.260	1	36
355.431	1	13
355.602	1	17
355.773	1	20
355.944	1	19
356.115	1	42
356.286	1	27
356.457	1	22
356.628	1	26
356.799	1	23
356.970	1	41
357.141	1	11
357.311	1	26
357.482	1	38
357.653	1	28
357.824	1	28
357.995	1	27
358.166	1	19
358.337	1	25
358.508	1	36
358.679	1	30
358.850	1	17
359.021	1	33
359.192	1	26
359.363	1	22
359.533	1	15
359.704	1	28
359.875	1	35
360.046	1	35
360.217	1	25
360.388	1	26
360.559	1	32
360.730	1	24
360.901	1	30
361.072	1	38
361.243	1	26
361.414	1	24
361.584	1	27
361.755	1	18
361.926	1	29
362.097	1	28
362.268	1	24
362.439	1	27
362.610	1	28
362.781	1	22
362.952	1	40
363.123	1	33
363.293	1	13
363.464	1	31
363.635	1	44
363.806	1	24
363.977	1	25
364.148	1	16
364.319	1	25
364.490	1	29
364.661	1	20
364.832	1	28
365.002	1	40
365.173	1	31
365.344	1	37
365.515	1	25
365.686	1	27
365.857	1	29
366.028	1	25
366.199	1	37
366.370	1	22
366.540	1	31
366.711	1	26
366.882	1	19
367.053	1	31
367.224	1	40
367.395	1	24
367.566	1	21
367.737	1	35
367.908	1	25
368.078	1	26
368.249	1	39
368.420	1	25
368.591	1	30
368.762	1	18
368.933	1	32
369.104	1	43
369.274	1	20
369.445	1	37
369.616	1	28
369.787	1	32
369.958	1	30
370.129	1	23
370.300	1	27
370.471	1	34
370.641	1	38
370.812	1	26
370.983	1	24
371.154	1	31
371.325	1	31
371.496	1	28
371.667	1	39
371.837	1	37
372.008	1	23
372.179	1	30
372.350	1	28
372.521	1	33
372.692	1	26
372.863	1	21
373.033	1	34
373.204	1	33
373.375	1	26
373.546	1	45
373.717	1	29
373.888	1	38
374.059	1	45
374.229	1	25
374.400	1	22
374.571	1	27
374.742	1	43
374.913	1	22
375.084	1	42
375.254	1	40
375.425	1	19
375.596	1	36
375.767	1	35
375.938	1	24
376.109	1	38
376.279	1	31
376.450	1	31
376.621	1	31
376.792	1	33
376.963	1	41
377.134	1	38
377.304	1	41
377.475	1	32
377.646	1	29
377.817	1	22
377.988	1	28
378.159	1	35
378.329	1	28
378.500	1	45
378.671	1	26
378.842	1	31
379.013	1	39
379.184	1	23
379.354	1	29
379.525	1	34
379.696	1	44
379.867	1	38
380.038	1	45
380.209	1	29
380.379	1	29
380.550	1	45
380.721	1	33
380.892	1	38
381.063	1	36
381.233	1	33
381.404	1	36
381.575	1	38
381.746	1	44
381.917	1	41
382.087	1	43
382.258	1	58
382.429	1	35
382.600	1	47
382.771	1	30
382.941	1	52
383.112	1	39
383.283	1	45
383.454	1	33
383.625	1	31
383.795	1	34
383.966	1	35
384.137	1	35
384.308	1	37
384.479	1	24
384.649	1	33
384.820	1	45
384.991	1	34
385.162	1	38
385.333	1	44
385.503	1	31
385.674	1	39
385.845	1	46
386.016	1	44
386.187	1	37
386.357	1	43
386.528	1	37
386.699	1	37
386.870	1	40
387.041	1	55
387.211	1	39
387.382	1	32
387.553	1	39
387.724	1	48
387.894	1	35
388.065	1	37
388.236	1	46
388.407	1	40
388.578	1	32
388.748	1	43
388.919	1	51
389.090	1	52
389.261	1	38
389.431	1	39
389.602	1	53
389.773	1	47
389.944	1	55
390.114	1	57
390.285	1	43
390.456	1	41
390.627	1	50
390.798	1	45
390.968	1	34
391.139	1	35
391.310	1	46
391.481	1	36
391.651	1	46
391.822	1	49
391.993	1	36
392.164	1	47
392.334	1	44
392.505	1	51
392.676	1	57
392.847	1	58
393.017	1	54
393.188	1	38
393.359	1	38
393.530	1	45
393.700	1	36
393.871	1	52
394.042	1	35
394.213	1	52
394.383	1	39
394.554	1	48
394.725	1	42
394.896	1	39
395.066	1	47
395.237	1	36
395.408	1	38
395.579	1	41
395.749	1	37
395.920	1	34
396.091	1	44
396.262	1	47
396.432	1	42
396.603	1	35
396.774	1	45
396.945	1	44
397.115	1	40
397.286	1	38
397.457	1	41
397.627	1	39
397.798	1	48
397.969	1	57
398.140	1	41
398.310	1	45
398.481	1	37
398.652	1	40
398.823	1	46
398.993	1	43
399.164	1	51
399.335	1	47
399.505	1	34
399.676	1	44
399.847	1	50
400.018	1	53
400.188	1	45
400.359	1	44
400.530	1	54
400.700	1	56
400.871	1	46
401.042	1	54
401.213	1	40
401.383	1	47
401.554	1	46
401.725	1	57
401.895	1	53
402.066	1	50
402.237	1	47
402.408	1	54
402.578	1	39
402.749	1	40
402.920	1	53
403.090	1	41
403.261	1	41
403.432	1	41
403.603	1	55
403.773	1	61
403.944	1	37
404.115	1	51
404.285	1	52
404.456	1	44
404.627	1	46
404.797	1	40
404.968	1	56
405.139	1	48
405.310	1	57
405.480	1	51
405.651	1	48
405.822	1	47
405.992	1	52
406.163	1	59
406.334	1	50
406.504	1	47
406.675	1	62
406.846	1	54
407.016	1	53
407.187	1	49
407.358	1	53
407.528	1	50
407.699	1	50
407.870	1	53
408.041	1	50
408.211	1	48
408.382	1	48
408.553	1	57
408.723	1	56
408.894	1	42
409.065	1	48
409.235	1	49
409.406	1	53
409.577	1	50
409.747	1	47
409.918	1	43
410.089	1	54
410.259	1	48
410.430	1	67
410.601	1	55
410.771	1	39
410.942	1	50
411.113	1	52
411.283	1	61
411.454	1	58
411.625	1	63
411.795	1	42
411.966	1	66
412.137	1	64
412.307	1	54
412.478	1	57
412.649	1	60
412.819	1	55
412.990	1	61
413.161	1	62
413.331	1	49
413.502	1	64
413.672	1	57
413.843	1	51
414.014	1	63
414.184	1	59
414.355	1	57
414.526	1	46
414.696	1	58
414.867	1	52
415.038	1	53
415.208	1	56
415.379	1	67
415.550	1	54
415.720	1	44
415.891	1	71
416.062	1	53
416.232	1	53
416.403	1	59
416.573	1	55
416.744	1	53
416.915	1	52
417.085	1	53
417.256	1	49
417.427	1	49
417.597	1	54
417.768	1	61
417.939	1	56
418.109	1	62
418.280	1	44
418.450	1	48
418.621	1	57
418.792	1	52
418.962	1	55
419.133	1	55
419.304	1	56
419.474	1	49
419.645	1	55
419.815	1	46
419.986	1	56
420.157	1	44
420.327	1	52
420.498	1	53
420.669	1	47
420.839	1	43
421.010	1	60
421.180	1	55
421.351	1	55
421.522	1	47
421.692	1	56
421.863	1	57
422.033	1	48
422.204	1	53
422.375	1	49
422.545	1	52
422.716	1	50
422.886	1	46
423.057	1	49
423.228	1	54
423.398	1	56
423.569	1	63
423.740	1	59
423.910	1	60
424.081	1	51
424.251	1	47
424.422	1	46
424.593	1	52
424.763	1	63
424.934	1	57
425.104	1	52
425.275	1	71
425.445	1	37
425.616	1	43
425.787	1	60
425.957	1	56
426.128	1	60
426.298	1	67
426.469	1	56
426.640	1	51
426.810	1	58
426.981	1	64
427.151	1	52
427.322	1	59
427.493	1	59
427.663	1	56
427.834	1	60
428.004	1	47
428.175	1	64
428.345	1	52
428.516	1	67
428.687	1	58
428.857	1	58
429.028	1	65
429.198	1	58
429.369	1	61
429.540	1	53
429.710	1	56
429.881	1	40
430.051	1	58
430.222	1	54
430.392	1	53
430.563	1	53
430.734	1	67
430.904	1	42
431.075	1	57
431.245	1	51
431.416	1	58
431.586	1	43
431.757	1	41
431.927	1	64
432.098	1	40
432.269	1	50
432.439	1	62
432.610	1	61
432.780	1	52
432.951	1	50
433.121	1	56
433.292	1	57
433.462	1	45
433.633	1	54
433.804	1	46
433.974	1	51
434.145	1	49
434.315	1	53
434.486	1	63
434.656	1	57
434.827	1	52
434.997	1	57
435.168	1	50
435.339	1	53
435.509	1	38
435.680	1	52
435.850	1	46
436.021	1	65
436.191	1	52
436.362	1	58
436.532	1	62
436.703	1	50
436.873	1	51
437.044	1	52
437.214	1	52
437.385	1	64
437.556	1	57
437.726	1	57
437.897	1	59
438.067	1	49
438.238	1	54
438.408	1	47
438.579	1	60
438.749	1	46
438.920	1	59
439.090	1	43
439.261	1	55
439.431	1	51
439.602	1	46
439.772	1	60
439.943	1	54
440.113	1	55
440.284	1	44
440.455	1	47
440.625	1	68
440.796	1	65
440.966	1	42
441.137	1	51
441.307	1	55
441.478	1	69
441.648	1	42
441.819	1	56
441.989	1	59
442.160	1	53
442.330	1	59
442.501	1	39
442.671	1	48
442.842	1	57
443.012	1	52
443.183	1	51
443.353	1	55
443.524	1	52
443.694	1	50
443.865	1	56
444.035	1	53
444.206	1	51
444.376	1	54
444.547	1	65
444.717	1	41
444.888	1	49
445.058	1	39
445.229	1	49
445.399	1	49
445.570	1	46
445.740	1	47
445.911	1	56
446.081	1	64
446.252	1	54
446.422	1	53
446.593	1	40
446.763	1	44
446.934	1	55
447.104	1	52
447.275	1	61
447.445	1	61
447.616	1	56
447.786	1	55
447.957	1	48
448.127	1	51
448.298	1	45
448.468	1	51
448.639	1	47
448.809	1	51
448.979	1	39
449.150	1	52
449.320	1	48
449.491	1	53
449.661	1	61
449.832	1	62
450.002	1	49
450.173	1	48
450.343	1	56
450.514	1	66
450.684	1	51
450.855	1	53
451.025	1	47
451.196	1	45
451.366	1	51
451.537	1	47
451.707	1	57
451.878	1	45
452.048	1	51
452.218	1	52
452.389	1	50
452.559	1	48
452.730	1	56
452.900	1	52
453.071	1	50
453.241	1	52
453.412	1	51
453.582	1	42
453.753	1	44
453.923	1	54
454.093	1	58
454.264	1	63
454.434	1	57
454.605	1	68
454.775	1	49
454.946	1	58
455.116	1	47
455.287	1	50
455.457	1	47
455.628	1	54
455.798	1	46
455.968	1	59
456.139	1	43
456.309	1	52
456.480	1	46
456.650	1	57
456.821	1	54
456.991	1	51
457.161	1	59
457.332	1	43
457.502	1	49
457.673	1	46
457.843	1	50
458.014	1	46
458.184	1	50
458.355	1	49
458.525	1	50
458.695	1	46
458.866	1	48
459.036	1	46
459.207	1	47
459.377	1	50
459.548	1	47
459.718	1	51
459.888	1	50
460.059	1	46
460.229	1	47
460.400	1	50
460.570	1	50
460.740	1	49
460.911	1	47
461.081	1	36
461.252	1	59
461.422	1	47
461.593	1	41
461.763	1	54
461.933	1	50
462.104	1	55
462.274	1	52
462.445	1	44
462.615	1	44
462.785	1	44
462.956	1	38
463.126	1	41
463.297	1	47
463.467	1	56
463.638	1	45
463.808	1	47
463.978	1	38
464.149	1	58
464.319	1	36
464.490	1	47
464.660	1	40
464.830	1	44
465.001	1	60
465.171	1	48
465.342	1	54
465.512	1	49
465.682	1	56
465.853	1	51
466.023	1	45
466.194	1	48
466.364	1	55
466.534	1	60
466.705	1	52
466.875	1	52
467.045	1	39
467.216	1	49
467.386	1	37
467.557	1	48
467.727	1	35
467.897	1	46
468.068	1	49
468.238	1	43
468.409	1	39
468.579	1	51
468.749	1	40
468.920	1	36
469.090	1	54
469.260	1	39
469.431	1	46
469.601	1	44
469.772	1	40
469.942	1	55
470.112	1	43
470.283	1	60
470.453	1	47
470.623	1	51
470.794	1	45
470.964	1	35
471.135	1	47
471.305	1	46
471.475	1	38
471.646	1	47
471.816	1	40
471.986	1	44
472.157	1	50
472.327	1	42
472.497	1	45
472.668	1	41
472.838	1	41
473.009	1	59
473.179	1	42
473.349	1	42
473.520	1	39
473.690	1	44
473.860	1	48
474.031	1	41
474.201	1	51
474.371	1	36
474.542	1	48
474.712	1	38
474.882	1	62
475.053	1	48
475.223	1	58
475.394	1	44
475.564	1	39
475.734	1	39
475.905	1	40
476.075	1	45
476.245	1	51
476.416	1	36
476.586	1	43
476.756	1	53
476.927	1	49
477.097	1	46
477.267	1	50
477.438	1	37
477.608	1	39
477.778	1	50
477.949	1	36
478.119	1	46
478.289	1	39
478.460	1	49
478.630	1	46
478.800	1	48
478.971	1	49
479.141	1	44
479.311	1	40
479.482	1	40
479.652	1	40
479.822	1	45
479.993	1	43
480.163	1	51
480.333	1	46
480.504	1	48
480.674	1	49
480.844	1	38
481.015	1	43
481.185	1	49
481.355	1	39
481.525	1	46
481.696	1	51
481.866	1	39
482.036	1	39
482.207	1	38
482.377	1	49
482.547	1	55
482.718	1	30
482.888	1	46
483.058	1	53
483.229	1	48
483.399	1	42
483.569	1	39
483.740	1	35
483.910	1	34
484.080	1	45
484.250	1	50
484.421	1	39
484.591	1	49
484.761	1	50
484.932	1	49
485.102	1	36
485.272	1	40
485.443	1	41
485.613	1	39
485.783	1	40
485.953	1	35
486.124	1	41
486.294	1	37
486.464	1	43
486.635	1	42
486.805	1	46
486.975	1	34
487.146	1	34
487.316	1	46
487.486	1	43
487.656	1	32
487.827	1	36
487.997	1	39
488.167	1	38
488.338	1	32
488.508	1	39
488.678	1	43
488.848	1	38
489.019	1	49
489.189	1	43
489.359	1	39
489.529	1	31
489.700	1	34
489.870	1	30
490.040	1	34
490.211	1	41
490.381	1	37
490.551	1	26
490.721	1	41
490.892	1	48
491.062	1	35
491.232	1	28
491.402	1	39
491.573	1	38
491.743	1	37
491.913	1	32
492.084	1	38
492.254	1	47
492.424	1	36
492.594	1	50
492.765	1	42
492.935	1	51
493.105	1	37
493.275	1	26
493.446	1	39
493.616	1	39
493.786	1	37
493.956	1	38
494.127	1	32
494.297	1	36
494.467	1	43
494.637	1	36
494.808	1	35
494.978	1	27
495.148	1	35
495.318	1	26
495.489	1	47
495.659	1	50
495.829	1	37
495.999	1	40
496.170	1	43
496.340	1	50
496.510	1	32
496.680	1	45
496.851	1	33
497.021	1	30
497.191	1	39
497.361	1	29
497.532	1	39
497.702	1	50
497.872	1	28
498.042	1	26
498.213	1	45
498.383	1	43
498.553	1	26
498.723	1	31
498.894	1	42
499.064	1	43
499.234	1	28
499.404	1	27
499.574	1	37
499.745	1	33
499.915	1	29
500.085	1	32
500.255	1	38
500.426	1	28
500.596	1	42
500.766	1	33
500.936	1	41
501.106	1	40
501.277	1	42
501.447	1	29
501.617	1	38
501.787	1	37
501.958	1	42
502.128	1	37
502.298	1	42
502.468	1	33
502.638	1	28
502.809	1	28
502.979	1	22
503.149	1	41
503.319	1	33
503.489	1	30
503.660	1	38
503.830	1	34
504.000	1	28
504.170	1	24
504.340	1	32
504.511	1	35
504.681	1	28
504.851	1	43
505.021	1	39
505.192	1	31
505.362	1	33
505.532	1	36
505.702	1	26
505.872	1	42
506.043	1	26
506.213	1	29
506.383	1	32
506.553	1	26
506.723	1	27
506.893	1	33
507.064	1	32
507.234	1	28
507.404	1	38
507.574	1	31
507.744	1	41
507.915	1	26
508.085	1	23
508.255	1	41
508.425	1	30
508.595	1	27
508.766	1	20
508.936	1	44
509.106	1	36
509.276	1	27
509.446	1	26
509.616	1	29
509.787	1	38
509.957	1	31
510.127	1	37
510.297	1	27
510.467	1	32
510.638	1	30
510.808	1	17
510.978	1	39
511.148	1	35
511.318	1	25
511.488	1	37
511.659	1	28
511.829	1	28
511.999	1	30
512.169	1	12
512.339	1	40
512.509	1	25
512.680	1	19
512.850	1	25
513.020	1	24
513.190	1	28
513.360	1	21
513.530	1	27
513.700	1	26
513.871	1	29
514.041	1	21
514.211	1	24
514.381	1	37
514.551	1	22
514.721	1	21
514.892	1	37
515.062	1	42
515.232	1	27
515.402	1	42
515.572	1	24
515.742	1	31
515.912	1	29
516.083	1	21
516.253	1	32
516.423	1	24
516.593	1	27
516.763	1	33
516.933	1	46
517.104	1	27
517.274	1	24
517.444	1	21
517.614	1	39
517.784	1	25
517.954	1	24
518.124	1	28
518.294	1	22
518.465	1	32
518.635	1	24
518.805	1	23
518.975	1	26
519.145	1	15
519.315	1	14
519.485	1	19
519.656	1	23
519.826	1	16
519.996	1	27
520.166	1	22
520.336	1	13
520.506	1	27
520.676	1	26
520.846	1	20
521.017	1	25
521.187	1	26
521.357	1	23
521.527	1	21
521.697	1	18
521.867	1	21
522.037	1	19
522.207	1	29
522.377	1	18
522.548	1	27
522.718	1	23
522.888	1	28
523.058	1	26
523.228	1	17
523.398	1	26
523.568	1	21
523.738	1	23
523.909	1	24
524.079	1	23
524.249	1	23
524.419	1	31
524.589	1	24
524.759	1	26
524.929	1	26
525.099	1	16
525.269	1	9
525.439	1	45
525.610	1	12
525.780	1	31
525.950	1	27
526.120	1	16
526.290	1	32
526.460	1	23
526.630	1	30
526.800	1	30
526.970	1	22
527.140	1	40
527.311	1	39
527.481	1	23
527.651	1	30
527.821	1	21
527.991	1	15
528.161	1	29
528.331	1	30
528.501	1	12
528.671	1	35
528.841	1	35
529.011	1	11
529.181	1	30
529.352	1	26
529.522	1	21
529.692	1	14
529.862	1	21
530.032	1	16
530.202	1	22
530.372	1	19
530.542	1	21
530.712	1	34
530.882	1	24
531.052	1	17
531.222	1	14
531.392	1	26
531.563	1	25
531.733	1	15
531.903	1	33
532.073	1	18
532.243	1	26
532.413	1	32
532.583	1	22
532.753	1	23
532.923	1	30
533.093	1	22
533.263	1	16
533.433	1	33
533.603	1	12
533.773	1	17
533.943	1	26
534.113	1	19
534.284	1	8
534.454	1	18
534.624	1	23
534.794	1	24
534.964	1	22
535.134	1	31
535.304	1	25
535.474	1	18
535.644	1	25
535.814	1	21
535.984	1	19
536.154	1	12
536.324	1	14
536.494	1	22
536.664	1	13
536.834	1	20
537.004	1	13
537.174	1	24
537.344	1	21
537.514	1	24
537.685	1	24
537.855	1	19
538.025	1	12
538.195	1	25
538.365	1	34
538.535	1	13
538.705	1	12
538.875	1	23
539.045	1	19
539.215	1	18
539.385	1	16
539.555	1	24
539.725	1	14
539.895	1	25
540.065	1	7
540.235	1	21
540.405	1	16
540.575	1	26
540.745	1	13
540.915	1	23
541.085	1	20
541.255	1	32
541.425	1	7
541.595	1	21
541.765	1	27
541.935	1	23
542.105	1	13
542.275	1	17
542.445	1	20
542.615	1	19
542.785	1	20
542.955	1	8
543.125	1	18
543.295	1	27
543.465	1	16
543.635	1	17
543.805	1	6
543.975	1	11
544.145	1	33
544.315	1	15
544.485	1	23
544.655	1	18
544.825	1	19
544.995	1	21
545.165	1	22
545.335	1	4
545.505	1	20
545.675	1	5
545.845	1	9
546.015	1	11
546.185	1	22
546.355	1	8
546.525	1	16
546.695	1	16
546.865	1	17
547.035	1	16
547.205	1	22
547.375	1	23
547.545	1	10
547.715	1	21
547.885	1	12
548.055	1	8
548.225	1	18
548.395	1	9
548.565	1	17
548.735	1	17
548.905	1	25
549.075	1	14
549.245	1	18
549.415	1	18
549.585	1	9
549.755	1	27
549.925	1	14
550.095	1	14
550.265	1	25
550.435	1	13
550.605	1	18
550.775	1	25
550.945	1	20
551.115	1	16
551.285	1	18
551.455	1	22
551.625	1	15
551.795	1	20
551.965	1	18
552.135	1	19
552.305	1	11
552.475	1	20
552.645	1	11
552.815	1	10
552.985	1	13
553.155	1	20
553.325	1	0
553.495	1	14
553.665	1	14
553.835	1	22
554.004	1	21
554.174	1	9
554.344	1	9
554.514	1	17
554.684	1	4
554.854	1	7
555.024	1	11
555.194	1	16
555.364	1	26
555.534	1	1
555.704	1	11
555.874	1	15
556.044	1	12
556.214	1	18
556.384	1	26
556.554	1	5
556.724	1	22
556.894	1	11
557.064	1	14
557.234	1	9
557.404	1	18
557.573	1	8
557.743	1	15
557.913	1	22
558.083	1	9
558.253	1	14
558.423	1	21
558.593	1	8
558.763	1	20
558.933	1	13
559.103	1	13
559.273	1	20
559.443	1	15
559.613	1	18
559.783	1	5
559.953	1	18
560.122	1	13
560.292	1	24
560.462	1	15
560.632	1	18
560.802	1	20
560.972	1	13
561.142	1	19
561.312	1	14
561.482	1	12
561.652	1	11
561.822	1	5
561.992	1	12
562.162	1	22
562.331	1	20
562.501	1	19
562.671	1	23
562.841	1	6
563.011	1	19
563.181	1	9
563.351	1	22
563.521	1	11
563.691	1	14
563.861	1	20
564.031	1	10
564.201	1	25
564.370	1	17
564.540	1	23
564.710	1	11
564.880	1	23
565.050	1	19
565.220	1	10
565.390	1	12
565.560	1	21
565.730	1	21
565.900	1	20
566.069	1	10
566.239	1	15
566.409	1	3
566.579	1	19
566.749	1	6
566.919	1	13
567.089	1	10
567.259	1	15
567.429	1	13
567.599	1	22
567.768	1	10
567.938	1	3
568.108	1	15
568.278	1	25
568.448	1	9
568.618	1	5
568.788	1	18
568.958	1	5
569.128	1	15
569.297	1	8
569.467	1	9
569.637	1	16
569.807	1	23
569.977	1	16
570.147	1	13
570.317	1	12
570.487	1	19
570.656	1	2
570.826	1	17
570.996	1	5
571.166	1	23
571.336	1	17
571.506	1	12
571.676	1	16
571.846	1	16
572.015	1	-2
572.185	1	19
572.355	1	17
572.525	1	7
572.695	1	18
572.865	1	5
573.035	1	15
573.205	1	13
573.374	1	15
573.544	1	15
573.714	1	11
573.884	1	11
574.054	1	12
574.224	1	11
574.394	1	19
574.563	1	15
574.733	1	12
574.903	1	14
575.073	1	13
575.243	1	10
575.413	1	12
575.583	1	7
575.752	1	12
575.922	1	10
576.092	1	14
576.262	1	15
576.432	1	14
576.602	1	5
576.772	1	16
576.941	1	11
577.111	1	9
577.281	1	16
577.451	1	13
577.621	1	9
577.791	1	11
577.960	1	17
578.130	1	9
578.300	1	12
578.470	1	14
578.640	1	27
578.810	1	3
578.979	1	17
579.149	1	11
579.319	1	9
579.489	1	6
579.659	1	9
579.829	1	16
579.998	1	4
580.168	1	18
580.338	1	16
580.508	1	24
580.678	1	11
580.848	1	19
581.017	1	21
581.187	1	13
581.357	1	12
581.527	1	15
581.697	1	10
581.867	1	16
582.036	1	11
582.206	1	16
582.376	1	11
582.546	1	2
582.716	1	18
582.885	1	-8
583.055	1	10
583.225	1	12
583.395	1	24
583.565	1	16
583.735	1	12
583.904	1	10
584.074	1	7
584.244	1	8
584.414	1	15
584.584	1	14
584.753	1	14
584.923	1	12
585.093	1	13
585.263	1	18
585.433	1	4
585.602	1	10
585.772	1	13
585.942	1	15
586.112	1	4
586.282	1	10
586.451	1	22
586.621	1	13
586.791	1	17
586.961	1	7
587.131	1	9
587.300	1	-2
587.470	1	6
587.640	1	17
587.810	1	20
587.980	1	10
588.149	1	19
588.319	1	14
588.489	1	16
588.659	1	13
588.829	1	19
588.998	1	18
589.168	1	22
589.338	1	16
589.508	1	15
589.677	1	16
589.847	1	19
590.017	1	17
590.187	1	16
590.357	1	22
590.526	1	11
590.696	1	11
590.866	1	5
591.036	1	25
591.205	1	18
591.375	1	7
591.545	1	14
591.715	1	3
591.885	1	13
592.054	1	8
592.224	1	13
592.394	1	7
592.564	1	15
592.733	1	3
592.903	1	14
593.073	1	7
593.243	1	24
593.412	1	8
593.582	1	21
593.752	1	4
593.922	1	10
594.091	1	10
594.261	1	11
594.431	1	23
594.601	1	8
594.771	1	20
594.940	1	16
595.110	1	10
595.280	1	11
595.450	1	7
595.619	1	18
595.789	1	12
595.959	1	22
596.129	1	10
596.298	1	18
596.468	1	9
596.638	1	9
596.808	1	11
596.977	1	8
597.147	1	6
597.317	1	14
597.487	1	10
597.656	1	14
597.826	1	8
597.996	1	20
598.166	1	18
598.335	1	7
598.505	1	24
598.675	1	15
598.844	1	1
599.014	1	14
599.184	1	8
599.354	1	12
599.523	1	17
599.693	1	14
599.863	1	12
600.033	1	2
600.202	1	18
600.372	1	4
600.542	1	9
600.712	1	14
600.881	1	13
601.051	1	8
601.221	1	8
601.390	1	-3
601.560	1	11
601.730	1	19
601.900	1	14
602.069	1	12
602.239	1	14
602.409	1	10
602.578	1	8
602.748	1	13
602.918	1	9
603.088	1	11
603.257	1	8
603.427	1	4
603.597	1	10
603.767	1	19
603.936	1	11
604.106	1	13
604.276	1	9
604.445	1	25
604.615	1	4
604.785	1	23
604.954	1	20
605.124	1	6
605.294	1	8
605.464	1	11
605.633	1	13
605.803	1	5
605.973	1	14
606.142	1	10
606.312	1	1
606.482	1	17
606.652	1	10
606.821	1	10
606.991	1	6
607.161	1	9
607.330	1	3
607.500	1	23
607.670	1	12
607.839	1	15
608.009	1	9
608.179	1	14
608.348	1	14
608.518	1	14
608.688	1	6
608.858	1	26
609.027	1	9
609.197	1	2
609.367	1	22
609.536	1	8
609.706	1	7
609.876	1	8
610.045	1	4
610.215	1	7
610.385	1	2
610.554	1	7
610.724	1	-1
610.894	1	16
611.063	1	-7
611.233	1	17
611.403	1	10
611.572	1	18
611.742	1	16
611.912	1	14
612.081	1	7
612.251	1	17
612.421	1	12
612.590	1	16
612.760	1	11
612.930	1	2
613.099	1	13
613.269	1	8
613.439	1	9
613.608	1	5
613.778	1	7
613.948	1	12
614.117	1	10
614.287	1	9
614.457	1	-5
614.626	1	25
614.796	1	8
614.966	1	17
615.135	1	20
615.305	1	16
615.475	1	4
615.644	1	14
615.814	1	6
615.984	1	18
616.153	1	7
616.323	1	15
616.493	1	31
616.662	1	13
616.832	1	7
617.002	1	1
617.171	1	11
617.341	1	14
617.511	1	14
617.680	1	21
617.850	1	17
618.019	1	5
618.189	1	27
618.359	1	10
618.528	1	11
618.698	1	9
618.868	1	1
619.037	1	18
619.207	1	10
619.377	1	9
619.546	1	8
619.716	1	6
619.885	1	18
620.055	1	16
620.225	1	21
620.394	1	11
620.564	1	15
620.734	1	13
620.903	1	22
621.073	1	0
621.242	1	1
621.412	1	11
621.582	1	11
621.751	1	15
621.921	1	17
622.091	1	9
622.260	1	8
622.430	1	7
622.599	1	6
622.769	1	19
622.939	1	7
623.108	1	6
623.278	1	14
623.448	1	8
623.617	1	9
623.787	1	21
623.956	1	14
624.126	1	14
624.296	1	8
624.465	1	12
624.635	1	18
624.804	1	0
624.974	1	13
625.144	1	12
625.313	1	6
625.483	1	27
625.652	1	16
625.822	1	8
625.992	1	9
626.161	1	23
626.331	1	16
626.501	1	10
626.670	1	19
626.840	1	16
627.009	1	14
627.179	1	11
627.348	1	15
627.518	1	7
627.688	1	7
627.857	1	17
628.027	1	7
628.196	1	17
628.366	1	11
628.536	1	13
628.705	1	5
628.875	1	23
629.044	1	11
629.214	1	15
629.384	1	9
629.553	1	15
629.723	1	4
629.892	1	22
630.062	1	12
630.232	1	11
630.401	1	24
630.571	1	18
630.740	1	13
630.910	1	17
631.079	1	6
631.249	1	16
631.419	1	4
631.588	1	3
631.758	1	15
631.927	1	14
632.097	1	11
632.266	1	15
632.436	1	13
632.606	1	16
632.775	1	17
632.945	1	23
633.114	1	6
633.284	1	6
633.453	1	7
633.623	1	3
633.793	1	1
633.962	1	16
634.132	1	19
634.301	1	12
634.471	1	10
634.640	1	13
634.810	1	3
634.979	1	19
635.149	1	16
635.319	1	11
635.488	1	15
635.658	1	1
635.827	1	17
635.997	1	23
636.166	1	13
636.336	1	17
636.505	1	16
636.675	1	18
636.845	1	3
637.014	1	8
637.184	1	8
637.353	1	4
637.523	1	11
637.692	1	14
637.862	1	18
638.031	1	15
638.201	1	10
638.370	1	14
638.540	1	9
638.710	1	12
638.879	1	6
639.049	1	10
639.218	1	22
639.388	1	13
639.557	1	14
639.727	1	14
639.896	1	4
640.066	1	10
640.235	1	18
640.405	1	15
640.574	1	15
640.744	1	19
640.914	1	19
641.083	1	8
641.253	1	16
641.422	1	8
641.592	1	8
641.761	1	19
641.931	1	10
642.100	1	9
642.270	1	4
642.439	1	16
642.609	1	20
642.778	1	10
642.948	1	8
643.117	1	24
643.287	1	10
643.456	1	6
643.626	1	17
643.795	1	16
643.965	1	17
644.134	1	13
644.304	1	12
644.473	1	13
644.643	1	8
644.812	1	21
644.982	1	21
645.151	1	16
645.321	1	10
645.490	1	8
645.660	1	1
645.829	1	14
645.999	1	17
646.168	1	5
646.338	1	5
646.507	1	17
646.677	1	9
646.846	1	13
647.016	1	27
647.185	1	2
647.355	1	20
647.524	1	20
647.694	1	14
647.863	1	10
648.033	1	0
648.202	1	8
648.372	1	24
648.541	1	12
648.711	1	18
648.880	1	8
649.050	1	16
649.219	1	7
649.389	1	14
649.558	1	11
649.728	1	16
649.897	1	16
650.067	1	5
650.236	1	15
650.406	1	10
650.575	1	21
650.745	1	15
650.914	1	8
651.084	1	11
651.253	1	20
651.423	1	17
651.592	1	20
651.762	1	12
651.931	1	6
652.101	1	12
652.270	1	11
652.440	1	13
652.609	1	20
652.778	1	0
652.948	1	11
653.117	1	2
653.287	1	22
653.456	1	22
653.626	1	14
653.795	1	12
653.965	1	8
654.134	1	22
654.304	1	10
654.473	1	14
654.643	1	4
654.812	1	2
654.982	1	9
655.151	1	14
655.320	1	8
655.490	1	10
655.659	1	16
655.829	1	22
655.998	1	5
656.168	1	7
656.337	1	28
656.507	1	-1
656.676	1	17
656.846	1	8
657.015	1	2
657.184	1	16
657.354	1	16
657.523	1	17
657.693	1	16
657.862	1	11
658.032	1	9
658.201	1	14
658.371	1	5
658.540	1	4
658.709	1	3
658.879	1	-2
659.048	1	13
659.218	1	13
659.387	1	12
659.557	1	15
659.726	1	14
659.895	1	16
660.065	1	8
660.234	1	13
660.404	1	12
660.573	1	16
660.743	1	19
660.912	1	11
661.081	1	25
661.251	1	14
661.420	1	12
661.590	1	7
661.759	1	10
661.929	1	12
662.098	1	10
662.267	1	13
662.437	1	10
662.606	1	20
662.776	1	7
662.945	1	18
663.115	1	18
663.284	1	15
663.453	1	5
663.623	1	11
663.792	1	13
663.962	1	17
664.131	1	8
664.300	1	16
664.470	1	18
664.639	1	8
664.809	1	3
664.978	1	7
665.148	1	7
665.317	1	14
665.486	1	8
665.656	1	12
665.825	1	5
665.995	1	8
666.164	1	12
666.333	1	16
666.503	1	12
666.672	1	18
666.842	1	4
667.011	1	16
667.180	1	16
667.350	1	14
667.519	1	11
667.689	1	7
667.858	1	22
668.027	1	29
668.197	1	18
668.366	1	18
668.536	1	16
668.705	1	10
668.874	1	12
669.044	1	10
669.213	1	15
669.382	1	14
669.552	1	15
669.721	1	22
669.891	1	18
670.060	1	22
670.229	1	13
670.399	1	14
670.568	1	12
670.738	1	14
670.907	1	13
671.076	1	13
671.246	1	20
671.415	1	14
671.584	1	14
671.754	1	21
671.923	1	15
672.093	1	14
672.262	1	12
672.431	1	2
672.601	1	13
672.770	1	13
672.939	1	16
673.109	1	14
673.278	1	23
673.448	1	4
673.617	1	3
673.786	1	12
