325.333	1	14
325.504	1	10
325.675	1	11
325.846	1	5
326.017	1	10
326.188	1	9
326.359	1	8
326.531	1	1
326.702	1	9
326.873	1	12
327.044	1	10
327.215	1	2
327.386	1	16
327.557	1	10
327.728	1	4
327.899	1	14
328.070	1	19
328.241	1	5
328.412	1	20
328.583	1	10
328.754	1	2
328.926	1	3
329.097	1	7
329.268	1	13
329.439	1	13
329.610	1	18
329.781	1	10
329.952	1	12
330.123	1	13
330.294	1	3
330.465	1	0
330.636	1	5
330.807	1	5
330.978	1	11
331.149	1	15
331.320	1	8
331.492	1	18
331.663	1	13
331.834	1	10
332.005	1	7
332.176	1	10
332.347	1	23
332.518	1	4
332.689	1	12
332.860	1	12
333.031	1	9
333.202	1	7
333.373	1	16
333.544	1	15
333.715	1	16
333.886	1	-1
334.057	1	14
334.228	1	11
334.399	1	23
334.570	1	13
334.741	1	19
334.912	1	18
335.084	1	6
335.255	1	19
335.426	1	4
335.597	1	27
335.768	1	9
335.939	1	11
336.110	1	2
336.281	1	14
336.452	1	17
336.623	1	17
336.794	1	15
336.965	1	5
337.136	1	5
337.307	1	2
337.478	1	13
337.649	1	18
337.820	1	4
337.991	1	19
338.162	1	12
338.333	1	8
338.504	1	14
338.675	1	15
338.846	1	17
339.017	1	19
339.188	1	5
339.359	1	13
339.530	1	23
339.701	1	6
339.872	1	11
340.043	1	-2
340.214	1	7
340.385	1	15
340.556	1	22
340.727	1	23
340.898	1	7
341.069	1	17
341.240	1	21
341.411	1	6
341.582	1	23
341.753	1	2
341.924	1	-1
342.095	1	10
342.266	1	23
342.437	1	23
342.608	1	26
342.779	1	14
342.950	1	9
343.121	1	15
343.292	1	14
343.463	1	6
343.634	1	5
343.805	1	11
343.976	1	10
344.147	1	7
344.318	1	14
344.489	1	17
344.660	1	20
344.831	1	27
345.002	1	18
345.173	1	7
345.344	1	16
345.515	1	8
345.686	1	27
345.857	1	2
346.028	1	12
346.199	1	-1
346.370	1	18
346.541	1	10
346.712	1	12
346.883	1	14
347.054	1	14
347.225	1	21
347.396	1	9
347.567	1	24
347.738	1	3
347.909	1	10
348.080	1	15
348.251	1	22
348.422	1	19
348.593	1	7
348.764	1	12
348.935	1	16
349.106	1	16
349.277	1	14
349.448	1	6
349.619	1	22
349.790	1	24
349.961	1	17
350.132	1	12
350.303	1	13
350.474	1	9
350.645	1	9
350.816	1	9
350.987	1	15
351.157	1	20
351.328	1	24
351.499	1	19
351.670	1	13
351.841	1	13
352.012	1	17
352.183	1	11
352.354	1	10
352.525	1	12
352.696	1	25
352.867	1	17
353.038	1	16
353.209	1	11
353.380	1	2
353.551	1	11
353.722	1	9
353.893	1	16
354.064	1	1
354.235	1	24
354.406	1	18
354.576	1	11
354.747	1	14
354.918	1	24
355.089	1	16
355.260	1	24
355.431	1	21
355.602	1	6
355.773	1	12
355.944	1	11
356.115	1	33
356.286	1	13
356.457	1	13
356.628	1	14
356.799	1	8
356.970	1	17
357.141	1	9
357.311	1	19
357.482	1	10
357.653	1	22
357.824	1	22
357.995	1	14
358.166	1	7
358.337	1	19
358.508	1	12
358.679	1	15
358.850	1	6
359.021	1	16
359.192	1	23
359.363	1	16
359.533	1	0
359.704	1	24
359.875	1	20
360.046	1	14
360.217	1	21
360.388	1	14
360.559	1	8
360.730	1	12
360.901	1	17
361.072	1	17
361.243	1	15
361.414	1	15
361.584	1	5
361.755	1	14
361.926	1	18
362.097	1	9
362.268	1	16
362.439	1	9
362.610	1	6
362.781	1	8
362.952	1	10
363.123	1	10
363.293	1	23
363.464	1	16
363.635	1	18
363.806	1	10
363.977	1	21
364.148	1	11
364.319	1	14
364.490	1	19
364.661	1	15
364.832	1	13
365.002	1	20
365.173	1	8
365.344	1	15
365.515	1	8
365.686	1	7
365.857	1	18
366.028	1	17
366.199	1	8
366.370	1	22
366.540	1	15
366.711	1	21
366.882	1	1
367.053	1	9
367.224	1	8
367.395	1	7
367.566	1	5
367.737	1	18
367.908	1	12
368.078	1	22
368.249	1	22
368.420	1	14
368.591	1	25
368.762	1	9
368.933	1	5
369.104	1	23
369.274	1	0
369.445	1	23
369.616	1	18
369.787	1	25
369.958	1	9
370.129	1	13
370.300	1	14
370.471	1	14
370.641	1	23
370.812	1	17
370.983	1	12
371.154	1	4
371.325	1	13
371.496	1	17
371.667	1	21
371.837	1	8
372.008	1	9
372.179	1	3
372.350	1	5
372.521	1	12
372.692	1	11
372.863	1	21
373.033	1	22
373.204	1	5
373.375	1	16
373.546	1	28
373.717	1	3
373.888	1	21
374.059	1	16
374.229	1	8
374.400	1	7
374.571	1	10
374.742	1	6
374.913	1	22
375.084	1	12
375.254	1	7
375.425	1	10
375.596	1	22
375.767	1	16
375.938	1	13
376.109	1	26
376.279	1	8
376.450	1	14
376.621	1	7
376.792	1	15
376.963	1	10
377.134	1	22
377.304	1	17
377.475	1	17
377.646	1	8
377.817	1	13
377.988	1	14
378.159	1	25
378.329	1	12
378.500	1	14
378.671	1	21
378.842	1	6
379.013	1	20
379.184	1	9
379.354	1	9
379.525	1	9
379.696	1	14
379.867	1	15
380.038	1	20
380.209	1	19
380.379	1	16
380.550	1	24
380.721	1	13
380.892	1	16
381.063	1	28
381.233	1	18
381.404	1	17
381.575	1	15
381.746	1	20
381.917	1	25
382.087	1	31
382.258	1	24
382.429	1	17
382.600	1	16
382.771	1	18
382.941	1	27
383.112	1	15
383.283	1	21
383.454	1	17
383.625	1	14
383.795	1	21
383.966	1	14
384.137	1	16
384.308	1	20
384.479	1	8
384.649	1	11
384.820	1	27
384.991	1	18
385.162	1	22
385.333	1	13
385.503	1	16
385.674	1	10
385.845	1	30
386.016	1	15
386.187	1	27
386.357	1	14
386.528	1	11
386.699	1	22
386.870	1	18
387.041	1	33
387.211	1	7
387.382	1	10
387.553	1	23
387.724	1	31
387.894	1	18
388.065	1	13
388.236	1	22
388.407	1	18
388.578	1	17
388.748	1	21
388.919	1	26
389.090	1	24
389.261	1	13
389.431	1	26
389.602	1	15
389.773	1	28
389.944	1	26
390.114	1	30
390.285	1	14
390.456	1	12
390.627	1	20
390.798	1	17
390.968	1	28
391.139	1	18
391.310	1	28
391.481	1	28
391.651	1	25
391.822	1	16
391.993	1	18
392.164	1	33
392.334	1	6
392.505	1	26
392.676	1	30
392.847	1	27
393.017	1	23
393.188	1	31
393.359	1	30
393.530	1	30
393.700	1	8
393.871	1	22
394.042	1	22
394.213	1	20
394.383	1	19
394.554	1	29
394.725	1	17
394.896	1	19
395.066	1	18
395.237	1	29
395.408	1	22
395.579	1	12
395.749	1	38
395.920	1	25
396.091	1	20
396.262	1	23
396.432	1	27
396.603	1	19
396.774	1	27
396.945	1	24
397.115	1	18
397.286	1	35
397.457	1	24
397.627	1	23
397.798	1	26
397.969	1	31
398.140	1	16
398.310	1	21
398.481	1	14
398.652	1	22
398.823	1	26
398.993	1	27
399.164	1	26
399.335	1	23
399.505	1	14
399.676	1	22
399.847	1	18
400.018	1	29
400.188	1	15
400.359	1	19
400.530	1	20
400.700	1	33
400.871	1	20
401.042	1	19
401.213	1	26
401.383	1	31
401.554	1	19
401.725	1	17
401.895	1	29
402.066	1	17
402.237	1	34
402.408	1	32
402.578	1	22
402.749	1	31
402.920	1	24
403.090	1	27
403.261	1	36
403.432	1	21
403.603	1	34
403.773	1	31
403.944	1	28
404.115	1	17
404.285	1	28
404.456	1	30
404.627	1	25
404.797	1	21
404.968	1	40
405.139	1	33
405.310	1	27
405.480	1	36
405.651	1	16
405.822	1	25
405.992	1	27
406.163	1	29
406.334	1	42
406.504	1	41
406.675	1	32
406.846	1	35
407.016	1	37
407.187	1	32
407.358	1	34
407.528	1	34
407.699	1	26
407.870	1	37
408.041	1	38
408.211	1	29
408.382	1	35
408.553	1	33
408.723	1	32
408.894	1	28
409.065	1	31
409.235	1	42
409.406	1	28
409.577	1	18
409.747	1	24
409.918	1	31
410.089	1	27
410.259	1	35
410.430	1	35
410.601	1	23
410.771	1	38
410.942	1	34
411.113	1	24
411.283	1	37
411.454	1	39
411.625	1	39
411.795	1	23
411.966	1	45
412.137	1	35
412.307	1	41
412.478	1	39
412.649	1	34
412.819	1	27
412.990	1	40
413.161	1	34
413.331	1	25
413.502	1	43
413.672	1	44
413.843	1	35
414.014	1	50
414.184	1	38
414.355	1	40
414.526	1	36
414.696	1	39
414.867	1	37
415.038	1	28
415.208	1	42
415.379	1	43
415.550	1	41
415.720	1	22
415.891	1	44
416.062	1	34
416.232	1	23
416.403	1	31
416.573	1	34
416.744	1	37
416.915	1	38
417.085	1	38
417.256	1	31
417.427	1	37
417.597	1	43
417.768	1	27
417.939	1	38
418.109	1	31
418.280	1	24
418.450	1	31
418.621	1	43
418.792	1	29
418.962	1	22
419.133	1	30
419.304	1	34
419.474	1	32
419.645	1	32
419.815	1	33
419.986	1	42
420.157	1	30
420.327	1	32
420.498	1	35
420.669	1	34
420.839	1	24
421.010	1	41
421.180	1	35
421.351	1	35
421.522	1	26
421.692	1	31
421.863	1	41
422.033	1	29
422.204	1	22
422.375	1	31
422.545	1	46
422.716	1	25
422.886	1	23
423.057	1	29
423.228	1	24
423.398	1	42
423.569	1	20
423.740	1	24
423.910	1	36
424.081	1	28
424.251	1	32
424.422	1	35
424.593	1	32
424.763	1	43
424.934	1	31
425.104	1	27
425.275	1	45
425.445	1	31
425.616	1	37
425.787	1	42
425.957	1	40
426.128	1	24
426.298	1	39
426.469	1	42
426.640	1	34
426.810	1	44
426.981	1	31
427.151	1	36
427.322	1	40
427.493	1	36
427.663	1	44
427.834	1	39
428.004	1	28
428.175	1	43
428.345	1	35
428.516	1	39
428.687	1	45
428.857	1	22
429.028	1	35
429.198	1	42
429.369	1	31
429.540	1	27
429.710	1	33
429.881	1	29
430.051	1	19
430.222	1	33
430.392	1	28
430.563	1	36
430.734	1	39
430.904	1	36
431.075	1	34
431.245	1	29
431.416	1	29
431.586	1	29
431.757	1	36
431.927	1	43
432.098	1	19
432.269	1	30
432.439	1	39
432.610	1	48
432.780	1	23
432.951	1	32
433.121	1	33
433.292	1	20
433.462	1	32
433.633	1	33
433.804	1	24
433.974	1	44
434.145	1	28
434.315	1	25
434.486	1	42
434.656	1	36
434.827	1	26
434.997	1	30
435.168	1	38
435.339	1	32
435.509	1	26
435.680	1	34
435.850	1	30
436.021	1	41
436.191	1	35
436.362	1	39
436.532	1	38
436.703	1	39
436.873	1	31
437.044	1	23
437.214	1	28
437.385	1	31
437.556	1	19
437.726	1	31
437.897	1	32
438.067	1	28
438.238	1	35
438.408	1	49
438.579	1	31
438.749	1	34
438.920	1	29
439.090	1	27
439.261	1	34
439.431	1	25
439.602	1	37
439.772	1	31
439.943	1	26
440.113	1	45
440.284	1	34
440.455	1	29
440.625	1	48
440.796	1	43
440.966	1	29
441.137	1	27
441.307	1	21
441.478	1	38
441.648	1	32
441.819	1	31
441.989	1	34
442.160	1	27
442.330	1	37
442.501	1	26
442.671	1	36
442.842	1	36
443.012	1	41
443.183	1	26
443.353	1	34
443.524	1	19
443.694	1	23
443.865	1	28
444.035	1	20
444.206	1	26
444.376	1	27
444.547	1	34
444.717	1	21
444.888	1	32
445.058	1	25
445.229	1	14
445.399	1	27
445.570	1	21
445.740	1	10
445.911	1	36
446.081	1	39
446.252	1	29
446.422	1	30
446.593	1	25
446.763	1	32
446.934	1	27
447.104	1	19
447.275	1	39
447.445	1	19
447.616	1	32
447.786	1	35
447.957	1	28
448.127	1	33
448.298	1	24
448.468	1	31
448.639	1	35
448.809	1	30
448.979	1	28
449.150	1	11
449.320	1	23
449.491	1	29
449.661	1	37
449.832	1	25
450.002	1	38
450.173	1	10
450.343	1	38
450.514	1	32
450.684	1	23
450.855	1	32
451.025	1	32
451.196	1	22
451.366	1	18
451.537	1	28
451.707	1	30
451.878	1	16
452.048	1	33
452.218	1	23
452.389	1	32
452.559	1	12
452.730	1	28
452.900	1	21
453.071	1	16
453.241	1	38
453.412	1	27
453.582	1	25
453.753	1	34
453.923	1	43
454.093	1	26
454.264	1	33
454.434	1	25
454.605	1	28
454.775	1	38
454.946	1	30
455.116	1	23
455.287	1	27
455.457	1	22
455.628	1	32
455.798	1	32
455.968	1	27
456.139	1	26
456.309	1	25
456.480	1	21
456.650	1	38
456.821	1	27
456.991	1	23
457.161	1	31
457.332	1	24
457.502	1	20
457.673	1	13
457.843	1	27
458.014	1	25
458.184	1	12
458.355	1	16
458.525	1	16
458.695	1	21
458.866	1	27
459.036	1	17
459.207	1	24
459.377	1	22
459.548	1	24
459.718	1	22
459.888	1	27
460.059	1	27
460.229	1	19
460.400	1	30
460.570	1	14
460.740	1	16
460.911	1	23
461.081	1	14
461.252	1	18
461.422	1	22
461.593	1	8
461.763	1	23
461.933	1	15
462.104	1	27
462.274	1	26
462.445	1	19
462.615	1	19
462.785	1	12
462.956	1	19
463.126	1	14
463.297	1	26
463.467	1	39
463.638	1	11
463.808	1	16
463.978	1	31
464.149	1	21
464.319	1	14
464.490	1	19
464.660	1	13
464.830	1	16
465.001	1	16
465.171	1	25
465.342	1	20
465.512	1	28
465.682	1	20
465.853	1	13
466.023	1	23
466.194	1	21
466.364	1	26
466.534	1	17
466.705	1	21
466.875	1	25
467.045	1	9
467.216	1	9
467.386	1	15
467.557	1	23
467.727	1	10
467.897	1	8
468.068	1	26
468.238	1	25
468.409	1	22
468.579	1	11
468.749	1	15
468.920	1	17
469.090	1	24
469.260	1	8
469.431	1	16
469.601	1	11
469.772	1	13
469.942	1	17
470.112	1	24
470.283	1	24
470.453	1	20
470.623	1	27
470.794	1	20
470.964	1	12
471.135	1	21
471.305	1	17
471.475	1	20
471.646	1	14
471.816	1	16
471.986	1	17
472.157	1	22
472.327	1	16
472.497	1	7
472.668	1	17
472.838	1	10
473.009	1	31
473.179	1	18
473.349	1	10
473.520	1	4
473.690	1	23
473.860	1	17
474.031	1	17
474.201	1	10
474.371	1	21
474.542	1	21
474.712	1	8
474.882	1	23
475.053	1	19
475.223	1	17
475.394	1	14
475.564	1	8
475.734	1	19
475.905	1	14
476.075	1	15
476.245	1	20
476.416	1	12
476.586	1	21
476.756	1	22
476.927	1	22
477.097	1	12
477.267	1	20
477.438	1	-4
477.608	1	17
477.778	1	29
477.949	1	11
478.119	1	18
478.289	1	27
478.460	1	19
478.630	1	16
478.800	1	15
478.971	1	14
479.141	1	14
479.311	1	16
479.482	1	7
479.652	1	17
479.822	1	10
479.993	1	15
480.163	1	6
480.333	1	20
480.504	1	18
480.674	1	13
480.844	1	17
481.015	1	13
481.185	1	21
481.355	1	8
481.525	1	11
481.696	1	22
481.866	1	6
482.036	1	12
482.207	1	5
482.377	1	3
482.547	1	20
482.718	1	7
482.888	1	19
483.058	1	10
483.229	1	14
483.399	1	21
483.569	1	13
483.740	1	12
483.910	1	-5
484.080	1	17
484.250	1	13
484.421	1	20
484.591	1	18
484.761	1	17
484.932	1	23
485.102	1	8
485.272	1	10
485.443	1	10
485.613	1	10
485.783	1	24
485.953	1	10
486.124	1	12
486.294	1	7
486.464	1	14
486.635	1	6
486.805	1	3
486.975	1	4
487.146	1	11
487.316	1	18
487.486	1	16
487.656	1	2
487.827	1	13
487.997	1	20
488.167	1	13
488.338	1	1
488.508	1	8
488.678	1	9
488.848	1	8
489.019	1	16
489.189	1	8
489.359	1	15
489.529	1	9
489.700	1	7
489.870	1	9
490.040	1	4
490.211	1	18
490.381	1	17
490.551	1	-1
490.721	1	18
490.892	1	27
491.062	1	12
491.232	1	4
491.402	1	13
491.573	1	6
491.743	1	9
491.913	1	12
492.084	1	4
492.254	1	27
492.424	1	8
492.594	1	20
492.765	1	13
492.935	1	19
493.105	1	21
493.275	1	6
493.446	1	16
493.616	1	8
493.786	1	12
493.956	1	12
494.127	1	6
494.297	1	10
494.467	1	12
494.637	1	23
494.808	1	6
494.978	1	10
495.148	1	14
495.318	1	0
495.489	1	15
495.659	1	17
495.829	1	13
495.999	1	19
496.170	1	9
496.340	1	15
496.510	1	17
496.680	1	7
496.851	1	4
497.021	1	6
497.191	1	4
497.361	1	11
497.532	1	0
497.702	1	14
497.872	1	8
498.042	1	14
498.213	1	11
498.383	1	4
498.553	1	-2
498.723	1	0
498.894	1	15
499.064	1	17
499.234	1	6
499.404	1	10
499.574	1	14
499.745	1	5
499.915	1	-1
500.085	1	11
500.255	1	13
500.426	1	8
500.596	1	22
500.766	1	-2
500.936	1	13
501.106	1	13
501.277	1	17
501.447	1	9
501.617	1	4
501.787	1	15
501.958	1	12
502.128	1	16
502.298	1	20
502.468	1	6
502.638	1	2
502.809	1	2
502.979	1	4
503.149	1	11
503.319	1	2
503.489	1	4
503.660	1	2
503.830	1	11
504.000	1	5
504.170	1	12
504.340	1	10
504.511	1	14
504.681	1	18
504.851	1	16
505.021	1	5
505.192	1	12
505.362	1	-1
505.532	1	2
505.702	1	-2
505.872	1	19
506.043	1	4
506.213	1	13
506.383	1	18
506.553	1	7
506.723	1	24
506.893	1	6
507.064	1	7
507.234	1	5
507.404	1	14
507.574	1	10
507.744	1	9
507.915	1	3
508.085	1	-3
508.255	1	21
508.425	1	8
508.595	1	4
508.766	1	7
508.936	1	11
509.106	1	2
509.276	1	8
509.446	1	12
509.616	1	0
509.787	1	17
509.957	1	-3
510.127	1	7
510.297	1	15
510.467	1	6
510.638	1	7
510.808	1	-1
510.978	1	8
511.148	1	18
511.318	1	4
511.488	1	13
511.659	1	14
511.829	1	8
511.999	1	11
512.169	1	8
512.339	1	-1
512.509	1	-8
512.680	1	-9
512.850	1	4
513.020	1	10
513.190	1	4
513.360	1	7
513.530	1	9
513.700	1	6
513.871	1	4
514.041	1	8
514.211	1	-8
514.381	1	6
514.551	1	1
514.721	1	5
514.892	1	12
515.062	1	9
515.232	1	16
515.402	1	8
515.572	1	5
515.742	1	7
515.912	1	6
516.083	1	10
516.253	1	5
516.423	1	-3
516.593	1	6
516.763	1	13
516.933	1	17
517.104	1	1
517.274	1	13
517.444	1	-5
517.614	1	11
517.784	1	5
517.954	1	18
518.124	1	4
518.294	1	9
518.465	1	14
518.635	1	1
518.805	1	7
518.975	1	-4
519.145	1	8
519.315	1	7
519.485	1	4
519.656	1	10
519.826	1	5
519.996	1	5
520.166	1	1
520.336	1	-2
520.506	1	12
520.676	1	24
520.846	1	1
521.017	1	7
521.187	1	10
521.357	1	9
521.527	1	11
521.697	1	15
521.867	1	1
522.037	1	7
522.207	1	2
522.377	1	4
522.548	1	9
522.718	1	9
522.888	1	10
523.058	1	6
523.228	1	3
523.398	1	12
523.568	1	-2
523.738	1	11
523.909	1	11
524.079	1	5
524.249	1	4
524.419	1	6
524.589	1	6
524.759	1	16
524.929	1	10
525.099	1	4
525.269	1	0
525.439	1	12
525.610	1	5
525.780	1	0
525.950	1	13
526.120	1	-1
526.290	1	2
526.460	1	15
526.630	1	20
526.800	1	3
526.970	1	4
527.140	1	18
527.311	1	20
527.481	1	-4
527.651	1	2
527.821	1	-1
527.991	1	3
528.161	1	-5
528.331	1	14
528.501	1	3
528.671	1	12
528.841	1	20
529.011	1	-8
529.181	1	12
529.352	1	10
529.522	1	4
529.692	1	1
529.862	1	9
530.032	1	4
530.202	1	2
530.372	1	13
530.542	1	3
530.712	1	17
530.882	1	15
531.052	1	7
531.222	1	-5
531.392	1	-1
531.563	1	4
531.733	1	-5
531.903	1	12
532.073	1	10
532.243	1	9
532.413	1	-1
532.583	1	4
532.753	1	13
532.923	1	4
533.093	1	3
533.263	1	-5
533.433	1	5
533.603	1	-1
533.773	1	6
533.943	1	-6
534.113	1	19
534.284	1	-2
534.454	1	13
534.624	1	15
534.794	1	10
534.964	1	-6
535.134	1	17
535.304	1	20
535.474	1	3
535.644	1	9
535.814	1	4
535.984	1	7
536.154	1	3
536.324	1	3
536.494	1	2
536.664	1	-3
536.834	1	10
537.004	1	3
537.174	1	11
537.344	1	7
537.514	1	-1
537.685	1	-1
537.855	1	4
538.025	1	2
538.195	1	12
538.365	1	14
538.535	1	-2
538.705	1	6
538.875	1	8
539.045	1	8
539.215	1	9
539.385	1	6
539.555	1	3
539.725	1	2
539.895	1	6
540.065	1	-1
540.235	1	10
540.405	1	-7
540.575	1	8
540.745	1	3
540.915	1	12
541.085	1	3
541.255	1	11
541.425	1	0
541.595	1	8
541.765	1	17
541.935	1	8
542.105	1	7
542.275	1	12
542.445	1	3
542.615	1	4
542.785	1	-8
542.955	1	4
543.125	1	10
543.295	1	3
543.465	1	-5
543.635	1	8
543.805	1	-2
543.975	1	-9
544.145	1	3
544.315	1	-7
544.485	1	8
544.655	1	3
544.825	1	7
544.995	1	12
545.165	1	4
545.335	1	-4
545.505	1	3
545.675	1	-8
545.845	1	7
546.015	1	1
546.185	1	-1
546.355	1	3
546.525	1	4
546.695	1	6
546.865	1	8
547.035	1	-3
547.205	1	10
547.375	1	4
547.545	1	4
547.715	1	9
547.885	1	-4
548.055	1	5
548.225	1	5
548.395	1	-3
548.565	1	5
548.735	1	1
548.905	1	5
549.075	1	11
549.245	1	9
549.415	1	4
549.585	1	-3
549.755	1	22
549.925	1	-2
550.095	1	3
550.265	1	20
550.435	1	6
550.605	1	5
550.775	1	7
550.945	1	6
551.115	1	11
551.285	1	5
551.455	1	-1
551.625	1	-11
551.795	1	0
551.965	1	7
552.135	1	-1
552.305	1	3
552.475	1	10
552.645	1	6
552.815	1	10
552.985	1	0
553.155	1	13
553.325	1	0
553.495	1	-2
553.665	1	-3
553.835	1	11
554.004	1	11
554.174	1	-1
554.344	1	-7
554.514	1	3
554.684	1	5
554.854	1	-3
555.024	1	5
555.194	1	-3
555.364	1	3
555.534	1	-3
555.704	1	6
555.874	1	5
556.044	1	6
556.214	1	5
556.384	1	8
556.554	1	3
556.724	1	5
556.894	1	5
557.064	1	6
557.234	1	0
557.404	1	4
557.573	1	6
557.743	1	7
557.913	1	9
558.083	1	-4
558.253	1	-3
558.423	1	0
558.593	1	-1
558.763	1	8
558.933	1	-2
559.103	1	11
559.273	1	9
559.443	1	8
559.613	1	1
559.783	1	-8
559.953	1	0
560.122	1	5
560.292	1	17
560.462	1	1
560.632	1	-2
560.802	1	5
560.972	1	-9
561.142	1	3
561.312	1	2
561.482	1	6
561.652	1	-1
561.822	1	-3
561.992	1	-3
562.162	1	12
562.331	1	11
562.501	1	5
562.671	1	6
562.841	1	-10
563.011	1	10
563.181	1	3
563.351	1	5
563.521	1	3
563.691	1	-2
563.861	1	14
564.031	1	7
564.201	1	7
564.370	1	5
564.540	1	15
564.710	1	9
564.880	1	7
565.050	1	9
565.220	1	-4
565.390	1	1
565.560	1	9
565.730	1	7
565.900	1	7
566.069	1	6
566.239	1	9
566.409	1	-5
566.579	1	6
566.749	1	-3
566.919	1	-1
567.089	1	3
567.259	1	-7
567.429	1	0
567.599	1	8
567.768	1	2
567.938	1	0
568.108	1	-1
568.278	1	12
568.448	1	8
568.618	1	-5
568.788	1	5
568.958	1	-6
569.128	1	8
569.297	1	-5
569.467	1	3
569.637	1	9
569.807	1	10
569.977	1	3
570.147	1	12
570.317	1	2
570.487	1	-7
570.656	1	-12
570.826	1	10
570.996	1	-3
571.166	1	13
571.336	1	0
571.506	1	10
571.676	1	14
571.846	1	2
572.015	1	2
572.185	1	21
572.355	1	2
572.525	1	-9
572.695	1	-5
572.865	1	2
573.035	1	6
573.205	1	-4
573.374	1	4
573.544	1	2
573.714	1	1
573.884	1	4
574.054	1	13
574.224	1	9
574.394	1	-1
574.563	1	9
574.733	1	2
574.903	1	9
575.073	1	10
575.243	1	0
575.413	1	-1
575.583	1	10
575.752	1	-3
575.922	1	6
576.092	1	-8
576.262	1	6
576.432	1	1
576.602	1	0
576.772	1	11
576.941	1	3
577.111	1	-3
577.281	1	-2
577.451	1	4
577.621	1	13
577.791	1	13
577.960	1	-6
578.130	1	1
578.300	1	-3
578.470	1	2
578.640	1	18
578.810	1	-3
578.979	1	0
579.149	1	8
579.319	1	-3
579.489	1	-10
579.659	1	3
579.829	1	9
579.998	1	3
580.168	1	-4
580.338	1	11
580.508	1	14
580.678	1	1
580.848	1	-1
581.017	1	12
581.187	1	8
581.357	1	-4
581.527	1	3
581.697	1	-1
581.867	1	-10
582.036	1	1
582.206	1	12
582.376	1	4
582.546	1	-3
582.716	1	-1
582.885	1	-5
583.055	1	7
583.225	1	-2
583.395	1	16
583.565	1	1
583.735	1	8
583.904	1	6
584.074	1	4
584.244	1	-2
584.414	1	4
584.584	1	1
584.753	1	5
584.923	1	10
585.093	1	5
585.263	1	-2
585.433	1	-1
585.602	1	3
585.772	1	-4
585.942	1	11
586.112	1	8
586.282	1	8
586.451	1	10
586.621	1	2
586.791	1	-4
586.961	1	0
587.131	1	4
587.300	1	0
587.470	1	-10
587.640	1	10
587.810	1	11
587.980	1	6
588.149	1	4
588.319	1	8
588.489	1	2
588.659	1	-2
588.829	1	10
588.998	1	7
589.168	1	10
589.338	1	15
589.508	1	5
589.677	1	8
589.847	1	16
590.017	1	-4
590.187	1	3
590.357	1	6
590.526	1	-7
590.696	1	-1
590.866	1	0
591.036	1	16
591.205	1	10
591.375	1	-3
591.545	1	-3
591.715	1	1
591.885	1	11
592.054	1	-1
592.224	1	-2
592.394	1	-6
592.564	1	4
592.733	1	5
592.903	1	-2
593.073	1	1
593.243	1	8
593.412	1	12
593.582	1	7
593.752	1	-2
593.922	1	-3
594.091	1	5
594.261	1	10
594.431	1	15
594.601	1	0
594.771	1	10
594.940	1	13
595.110	1	1
595.280	1	-10
595.450	1	3
595.619	1	11
595.789	1	6
595.959	1	16
596.129	1	3
596.298	1	17
596.468	1	2
596.638	1	-4
596.808	1	8
596.977	1	-3
597.147	1	5
597.317	1	3
597.487	1	4
597.656	1	-1
597.826	1	6
597.996	1	11
598.166	1	14
598.335	1	9
598.505	1	13
598.675	1	-4
598.844	1	-11
599.014	1	13
599.184	1	11
599.354	1	0
599.523	1	8
599.693	1	7
599.863	1	5
600.033	1	1
600.202	1	14
600.372	1	-7
600.542	1	-2
600.712	1	4
600.881	1	4
601.051	1	0
601.221	1	4
601.390	1	-10
601.560	1	9
601.730	1	7
601.900	1	7
602.069	1	10
602.239	1	4
602.409	1	6
602.578	1	0
602.748	1	1
602.918	1	6
603.088	1	7
603.257	1	7
603.427	1	6
603.597	1	-2
603.767	1	-1
603.936	1	3
604.106	1	6
604.276	1	13
604.445	1	11
604.615	1	4
604.785	1	8
604.954	1	10
605.124	1	-2
605.294	1	3
605.464	1	8
605.633	1	2
605.803	1	0
605.973	1	11
606.142	1	8
606.312	1	3
606.482	1	6
606.652	1	16
606.821	1	9
606.991	1	4
607.161	1	-1
607.330	1	-6
607.500	1	9
607.670	1	8
607.839	1	23
608.009	1	8
608.179	1	3
608.348	1	17
608.518	1	12
608.688	1	3
608.858	1	15
609.027	1	9
609.197	1	-3
609.367	1	11
609.536	1	6
609.706	1	8
609.876	1	11
610.045	1	8
610.215	1	7
610.385	1	-3
610.554	1	-3
610.724	1	-7
610.894	1	20
611.063	1	-1
611.233	1	10
611.403	1	-7
611.572	1	7
611.742	1	7
611.912	1	5
612.081	1	-4
612.251	1	11
612.421	1	7
612.590	1	5
612.760	1	11
612.930	1	-1
613.099	1	3
613.269	1	-3
613.439	1	5
613.608	1	10
613.778	1	-1
613.948	1	8
614.117	1	9
614.287	1	9
614.457	1	-1
614.626	1	7
614.796	1	4
614.966	1	9
615.135	1	9
615.305	1	10
615.475	1	1
615.644	1	2
615.814	1	1
615.984	1	5
616.153	1	-3
616.323	1	4
616.493	1	22
616.662	1	12
616.832	1	9
617.002	1	1
617.171	1	-1
617.341	1	-1
617.511	1	8
617.680	1	5
617.850	1	4
618.019	1	3
618.189	1	21
618.359	1	-1
618.528	1	4
618.698	1	17
618.868	1	6
619.037	1	13
619.207	1	4
619.377	1	0
619.546	1	6
619.716	1	4
619.885	1	4
620.055	1	11
620.225	1	17
620.394	1	5
620.564	1	13
620.734	1	13
620.903	1	4
621.073	1	0
621.242	1	6
621.412	1	1
621.582	1	3
621.751	1	22
621.921	1	12
622.091	1	-5
622.260	1	5
622.430	1	13
622.599	1	-3
622.769	1	4
622.939	1	1
623.108	1	10
623.278	1	10
623.448	1	10
623.617	1	11
623.787	1	8
623.956	1	3
624.126	1	17
624.296	1	2
624.465	1	6
624.635	1	9
624.804	1	3
624.974	1	1
625.144	1	4
625.313	1	-2
625.483	1	14
625.652	1	9
625.822	1	7
625.992	1	9
626.161	1	7
626.331	1	10
626.501	1	10
626.670	1	13
626.840	1	14
627.009	1	10
627.179	1	6
627.348	1	17
627.518	1	7
627.688	1	10
627.857	1	17
628.027	1	-2
628.196	1	-3
628.366	1	5
628.536	1	3
628.705	1	5
628.875	1	11
629.044	1	13
629.214	1	7
629.384	1	8
629.553	1	14
629.723	1	-2
629.892	1	16
630.062	1	5
630.232	1	12
630.401	1	14
630.571	1	11
630.740	1	5
630.910	1	20
631.079	1	3
631.249	1	9
631.419	1	-2
631.588	1	1
631.758	1	9
631.927	1	19
632.097	1	6
632.266	1	10
632.436	1	4
632.606	1	0
632.775	1	9
632.945	1	17
633.114	1	4
633.284	1	-2
633.453	1	4
633.623	1	12
633.793	1	-7
633.962	1	12
634.132	1	5
634.301	1	5
634.471	1	1
634.640	1	10
634.810	1	10
634.979	1	9
635.149	1	7
635.319	1	13
635.488	1	12
635.658	1	15
635.827	1	8
635.997	1	16
636.166	1	1
636.336	1	11
636.505	1	2
636.675	1	13
636.845	1	-2
637.014	1	8
637.184	1	18
637.353	1	3
637.523	1	12
637.692	1	8
637.862	1	22
638.031	1	14
638.201	1	15
638.370	1	8
638.540	1	-3
638.710	1	20
638.879	1	5
639.049	1	8
639.218	1	16
639.388	1	8
639.557	1	11
639.727	1	4
639.896	1	12
640.066	1	14
640.235	1	16
640.405	1	2
640.574	1	15
640.744	1	22
640.914	1	12
641.083	1	11
641.253	1	19
641.422	1	7
641.592	1	-1
641.761	1	10
641.931	1	1
642.100	1	-3
642.270	1	6
642.439	1	1
642.609	1	9
642.778	1	6
642.948	1	3
643.117	1	14
643.287	1	1
643.456	1	17
643.626	1	21
643.795	1	12
643.965	1	13
644.134	1	15
644.304	1	14
644.473	1	2
644.643	1	9
644.812	1	22
644.982	1	10
645.151	1	26
645.321	1	11
645.490	1	-3
645.660	1	-1
645.829	1	10
645.999	1	13
646.168	1	5
646.338	1	5
646.507	1	13
646.677	1	4
646.846	1	8
647.016	1	10
647.185	1	7
647.355	1	9
647.524	1	9
647.694	1	1
647.863	1	2
648.033	1	-1
648.202	1	12
648.372	1	9
648.541	1	15
648.711	1	1
648.880	1	17
649.050	1	13
649.219	1	2
649.389	1	6
649.558	1	8
649.728	1	-3
649.897	1	8
650.067	1	10
650.236	1	7
650.406	1	10
650.575	1	6
650.745	1	9
650.914	1	5
651.084	1	0
651.253	1	13
651.423	1	3
651.592	1	11
651.762	1	16
651.931	1	6
652.101	1	12
652.270	1	12
652.440	1	8
652.609	1	5
652.778	1	6
652.948	1	10
653.117	1	3
653.287	1	20
653.456	1	10
653.626	1	0
653.795	1	6
653.965	1	8
654.134	1	17
654.304	1	15
654.473	1	6
654.643	1	19
654.812	1	15
654.982	1	0
655.151	1	-2
655.320	1	14
655.490	1	8
655.659	1	10
655.829	1	17
655.998	1	5
656.168	1	6
656.337	1	13
656.507	1	11
656.676	1	11
656.846	1	5
657.015	1	8
657.184	1	6
657.354	1	1
657.523	1	6
657.693	1	4
657.862	1	6
658.032	1	13
658.201	1	8
658.371	1	6
658.540	1	2
658.709	1	-6
658.879	1	-5
659.048	1	-1
659.218	1	6
659.387	1	6
659.557	1	7
659.726	1	5
659.895	1	4
660.065	1	5
660.234	1	8
660.404	1	5
660.573	1	14
660.743	1	24
660.912	1	15
661.081	1	14
661.251	1	12
661.420	1	12
661.590	1	7
661.759	1	7
661.929	1	7
662.098	1	6
662.267	1	7
662.437	1	13
662.606	1	7
662.776	1	-3
662.945	1	9
663.115	1	20
663.284	1	17
663.453	1	5
663.623	1	15
663.792	1	14
663.962	1	6
664.131	1	1
664.300	1	11
664.470	1	12
664.639	1	8
664.809	1	11
664.978	1	9
665.148	1	9
665.317	1	9
665.486	1	8
665.656	1	7
665.825	1	-3
665.995	1	4
666.164	1	6
666.333	1	12
666.503	1	0
666.672	1	18
666.842	1	12
667.011	1	13
667.180	1	8
667.350	1	7
667.519	1	8
667.689	1	3
667.858	1	8
668.027	1	19
668.197	1	21
668.366	1	8
668.536	1	10
668.705	1	7
668.874	1	12
669.044	1	5
669.213	1	2
669.382	1	7
669.552	1	5
669.721	1	22
669.891	1	8
670.060	1	13
670.229	1	14
670.399	1	11
670.568	1	4
670.738	1	4
670.907	1	2
671.076	1	15
671.246	1	3
671.415	1	15
671.584	1	13
671.754	1	-1
671.923	1	7
672.093	1	18
672.262	1	11
672.431	1	4
672.601	1	1
672.770	1	7
672.939	1	11
673.109	1	3
673.278	1	8
673.448	1	0
673.617	1	0
673.786	1	12
