325.333	1	-2
325.504	1	8
325.675	1	-4
325.846	1	5
326.017	1	7
326.188	1	-2
326.359	1	1
326.531	1	4
326.702	1	7
326.873	1	3
327.044	1	-2
327.215	1	5
327.386	1	5
327.557	1	1
327.728	1	-4
327.899	1	12
328.070	1	12
328.241	1	9
328.412	1	7
328.583	1	3
328.754	1	3
328.926	1	-1
329.097	1	-4
329.268	1	3
329.439	1	7
329.610	1	5
329.781	1	-7
329.952	1	4
330.123	1	15
330.294	1	2
330.465	1	2
330.636	1	0
330.807	1	-2
330.978	1	13
331.149	1	7
331.320	1	0
331.492	1	8
331.663	1	13
331.834	1	5
332.005	1	3
332.176	1	1
332.347	1	9
332.518	1	3
332.689	1	4
332.860	1	15
333.031	1	0
333.202	1	-9
333.373	1	3
333.544	1	2
333.715	1	9
333.886	1	1
334.057	1	10
334.228	1	4
334.399	1	6
334.570	1	5
334.741	1	7
334.912	1	6
335.084	1	-6
335.255	1	8
335.426	1	-5
335.597	1	13
335.768	1	0
335.939	1	2
336.110	1	7
336.281	1	8
336.452	1	8
336.623	1	7
336.794	1	3
336.965	1	3
337.136	1	3
337.307	1	6
337.478	1	-5
337.649	1	8
337.820	1	2
337.991	1	7
338.162	1	-3
338.333	1	10
338.504	1	6
338.675	1	8
338.846	1	6
339.017	1	11
339.188	1	2
339.359	1	10
339.530	1	15
339.701	1	4
339.872	1	0
340.043	1	-19
340.214	1	-4
340.385	1	12
340.556	1	11
340.727	1	7
340.898	1	15
341.069	1	8
341.240	1	11
341.411	1	0
341.582	1	19
341.753	1	-1
341.924	1	1
342.095	1	12
342.266	1	6
342.437	1	12
342.608	1	18
342.779	1	11
342.950	1	-1
343.121	1	6
343.292	1	5
343.463	1	12
343.634	1	-2
343.805	1	3
343.976	1	11
344.147	1	-1
344.318	1	3
344.489	1	14
344.660	1	11
344.831	1	18
345.002	1	6
345.173	1	0
345.344	1	5
345.515	1	-8
345.686	1	22
345.857	1	7
346.028	1	5
346.199	1	1
346.370	1	4
346.541	1	5
346.712	1	10
346.883	1	3
347.054	1	6
347.225	1	8
347.396	1	-7
347.567	1	6
347.738	1	-1
347.909	1	-1
348.080	1	9
348.251	1	10
348.422	1	9
348.593	1	1
348.764	1	4
348.935	1	5
349.106	1	0
349.277	1	8
349.448	1	0
349.619	1	3
349.790	1	11
349.961	1	19
350.132	1	12
350.303	1	16
350.474	1	1
350.645	1	15
350.816	1	1
350.987	1	6
351.157	1	10
351.328	1	10
351.499	1	11
351.670	1	6
351.841	1	10
352.012	1	11
352.183	1	-1
352.354	1	-3
352.525	1	9
352.696	1	12
352.867	1	10
353.038	1	-5
353.209	1	11
353.380	1	0
353.551	1	-1
353.722	1	0
353.893	1	5
354.064	1	0
354.235	1	13
354.406	1	7
354.576	1	4
354.747	1	3
354.918	1	13
355.089	1	-1
355.260	1	25
355.431	1	5
355.602	1	5
355.773	1	1
355.944	1	-1
356.115	1	11
356.286	1	6
356.457	1	7
356.628	1	-1
356.799	1	3
356.970	1	9
357.141	1	0
357.311	1	18
357.482	1	-3
357.653	1	6
357.824	1	4
357.995	1	11
358.166	1	-1
358.337	1	19
358.508	1	7
358.679	1	16
358.850	1	-6
359.021	1	11
359.192	1	6
359.363	1	10
359.533	1	-6
359.704	1	12
359.875	1	12
360.046	1	9
360.217	1	7
360.388	1	6
360.559	1	7
360.730	1	4
360.901	1	-3
361.072	1	7
361.243	1	2
361.414	1	5
361.584	1	5
361.755	1	3
361.926	1	8
362.097	1	2
362.268	1	-1
362.439	1	4
362.610	1	0
362.781	1	-8
362.952	1	10
363.123	1	10
363.293	1	9
363.464	1	2
363.635	1	12
363.806	1	3
363.977	1	5
364.148	1	-1
364.319	1	-5
364.490	1	10
364.661	1	9
364.832	1	7
365.002	1	7
365.173	1	1
365.344	1	6
365.515	1	-5
365.686	1	-6
365.857	1	-4
366.028	1	7
366.199	1	3
366.370	1	-1
366.540	1	6
366.711	1	3
366.882	1	1
367.053	1	3
367.224	1	6
367.395	1	4
367.566	1	-1
367.737	1	5
367.908	1	-2
368.078	1	7
368.249	1	7
368.420	1	17
368.591	1	13
368.762	1	2
368.933	1	-1
369.104	1	19
369.274	1	-4
369.445	1	5
369.616	1	-1
369.787	1	11
369.958	1	10
370.129	1	-3
370.300	1	-4
370.471	1	4
370.641	1	12
370.812	1	1
370.983	1	2
371.154	1	-2
371.325	1	7
371.496	1	6
371.667	1	-3
371.837	1	-4
372.008	1	-13
372.179	1	-7
372.350	1	-6
372.521	1	7
372.692	1	17
372.863	1	4
373.033	1	11
373.204	1	-2
373.375	1	0
373.546	1	11
373.717	1	-7
373.888	1	9
374.059	1	13
374.229	1	5
374.400	1	-8
374.571	1	6
374.742	1	-7
374.913	1	6
375.084	1	12
375.254	1	4
375.425	1	-3
375.596	1	10
375.767	1	6
375.938	1	7
376.109	1	18
376.279	1	3
376.450	1	5
376.621	1	3
376.792	1	-2
376.963	1	-5
377.134	1	8
377.304	1	4
377.475	1	3
377.646	1	7
377.817	1	8
377.988	1	-1
378.159	1	7
378.329	1	4
378.500	1	9
378.671	1	4
378.842	1	-5
379.013	1	4
379.184	1	2
379.354	1	-1
379.525	1	-1
379.696	1	9
379.867	1	5
380.038	1	8
380.209	1	8
380.379	1	5
380.550	1	6
380.721	1	-6
380.892	1	-2
381.063	1	4
381.233	1	6
381.404	1	17
381.575	1	-1
381.746	1	14
381.917	1	9
382.087	1	16
382.258	1	18
382.429	1	10
382.600	1	7
382.771	1	3
382.941	1	16
383.112	1	6
383.283	1	16
383.454	1	1
383.625	1	-3
383.795	1	7
383.966	1	-6
384.137	1	1
384.308	1	4
384.479	1	0
384.649	1	13
384.820	1	14
384.991	1	0
385.162	1	6
385.333	1	1
385.503	1	0
385.674	1	-7
385.845	1	13
386.016	1	6
386.187	1	8
386.357	1	6
386.528	1	8
386.699	1	8
386.870	1	9
387.041	1	15
387.211	1	-1
387.382	1	2
387.553	1	1
387.724	1	22
387.894	1	8
388.065	1	1
388.236	1	1
388.407	1	10
388.578	1	4
388.748	1	9
388.919	1	4
389.090	1	13
389.261	1	1
389.431	1	11
389.602	1	12
389.773	1	13
389.944	1	7
390.114	1	13
390.285	1	-2
390.456	1	-1
390.627	1	9
390.798	1	-3
390.968	1	14
391.139	1	5
391.310	1	10
391.481	1	5
391.651	1	14
391.822	1	12
391.993	1	5
392.164	1	4
392.334	1	-5
392.505	1	8
392.676	1	11
392.847	1	3
393.017	1	4
393.188	1	14
393.359	1	7
393.530	1	6
393.700	1	-6
393.871	1	0
394.042	1	12
394.213	1	-1
394.383	1	3
394.554	1	16
394.725	1	1
394.896	1	16
395.066	1	12
395.237	1	14
395.408	1	5
395.579	1	5
395.749	1	13
395.920	1	1
396.091	1	10
396.262	1	-2
396.432	1	13
396.603	1	3
396.774	1	7
396.945	1	11
397.115	1	0
397.286	1	0
397.457	1	7
397.627	1	8
397.798	1	9
397.969	1	9
398.140	1	3
398.310	1	9
398.481	1	12
398.652	1	-1
398.823	1	8
398.993	1	11
399.164	1	5
399.335	1	5
399.505	1	4
399.676	1	1
399.847	1	15
400.018	1	13
400.188	1	-4
400.359	1	2
400.530	1	15
400.700	1	15
400.871	1	-4
401.042	1	12
401.213	1	5
401.383	1	6
401.554	1	-4
401.725	1	16
401.895	1	7
402.066	1	2
402.237	1	9
402.408	1	12
402.578	1	2
402.749	1	10
402.920	1	10
403.090	1	19
403.261	1	19
403.432	1	6
403.603	1	11
403.773	1	17
403.944	1	2
404.115	1	3
404.285	1	12
404.456	1	9
404.627	1	4
404.797	1	6
404.968	1	19
405.139	1	6
405.310	1	18
405.480	1	11
405.651	1	-1
405.822	1	5
405.992	1	2
406.163	1	24
406.334	1	18
406.504	1	10
406.675	1	23
406.846	1	18
407.016	1	18
407.187	1	15
407.358	1	15
407.528	1	21
407.699	1	-4
407.870	1	6
408.041	1	15
408.211	1	14
408.382	1	13
408.553	1	19
408.723	1	13
408.894	1	2
409.065	1	2
409.235	1	18
409.406	1	1
409.577	1	7
409.747	1	-4
409.918	1	7
410.089	1	5
410.259	1	3
410.430	1	7
410.601	1	15
410.771	1	2
410.942	1	7
411.113	1	18
411.283	1	5
411.454	1	14
411.625	1	12
411.795	1	0
411.966	1	28
412.137	1	14
412.307	1	13
412.478	1	8
412.649	1	9
412.819	1	5
412.990	1	12
413.161	1	16
413.331	1	8
413.502	1	15
413.672	1	6
413.843	1	1
414.014	1	16
414.184	1	11
414.355	1	17
414.526	1	0
414.696	1	3
414.867	1	11
415.038	1	16
415.208	1	20
415.379	1	14
415.550	1	14
415.720	1	8
415.891	1	16
416.062	1	6
416.232	1	10
416.403	1	16
416.573	1	15
416.744	1	9
416.915	1	23
417.085	1	9
417.256	1	5
417.427	1	11
417.597	1	10
417.768	1	12
417.939	1	9
418.109	1	12
418.280	1	10
418.450	1	12
418.621	1	18
418.792	1	13
418.962	1	2
419.133	1	9
419.304	1	13
419.474	1	8
419.645	1	18
419.815	1	4
419.986	1	11
420.157	1	11
420.327	1	7
420.498	1	17
420.669	1	3
420.839	1	-2
421.010	1	12
421.180	1	14
421.351	1	15
421.522	1	12
421.692	1	19
421.863	1	2
422.033	1	8
422.204	1	20
422.375	1	8
422.545	1	20
422.716	1	1
422.886	1	4
423.057	1	8
423.228	1	11
423.398	1	4
423.569	1	14
423.740	1	14
423.910	1	14
424.081	1	13
424.251	1	1
424.422	1	8
424.593	1	11
424.763	1	13
424.934	1	1
425.104	1	8
425.275	1	21
425.445	1	0
425.616	1	19
425.787	1	13
425.957	1	7
426.128	1	14
426.298	1	20
426.469	1	-1
426.640	1	17
426.810	1	16
426.981	1	-1
427.151	1	15
427.322	1	23
427.493	1	16
427.663	1	24
427.834	1	13
428.004	1	6
428.175	1	18
428.345	1	19
428.516	1	7
428.687	1	19
428.857	1	8
429.028	1	11
429.198	1	8
429.369	1	16
429.540	1	6
429.710	1	9
429.881	1	7
430.051	1	14
430.222	1	13
430.392	1	6
430.563	1	9
430.734	1	17
430.904	1	4
431.075	1	14
431.245	1	7
431.416	1	19
431.586	1	3
431.757	1	16
431.927	1	19
432.098	1	-4
432.269	1	4
432.439	1	14
432.610	1	22
432.780	1	9
432.951	1	5
433.121	1	19
433.292	1	13
433.462	1	4
433.633	1	2
433.804	1	2
433.974	1	16
434.145	1	7
434.315	1	2
434.486	1	16
434.656	1	16
434.827	1	10
434.997	1	10
435.168	1	7
435.339	1	2
435.509	1	3
435.680	1	6
435.850	1	8
436.021	1	13
436.191	1	13
436.362	1	16
436.532	1	14
436.703	1	15
436.873	1	-1
437.044	1	6
437.214	1	6
437.385	1	6
437.556	1	8
437.726	1	10
437.897	1	12
438.067	1	1
438.238	1	9
438.408	1	3
438.579	1	21
438.749	1	9
438.920	1	19
439.090	1	6
439.261	1	8
439.431	1	7
439.602	1	8
439.772	1	10
439.943	1	13
440.113	1	17
440.284	1	7
440.455	1	10
440.625	1	28
440.796	1	16
440.966	1	-5
441.137	1	13
441.307	1	13
441.478	1	11
441.648	1	6
441.819	1	8
441.989	1	6
442.160	1	6
442.330	1	13
442.501	1	11
442.671	1	9
442.842	1	13
443.012	1	14
443.183	1	7
443.353	1	16
443.524	1	-1
443.694	1	13
443.865	1	12
444.035	1	8
444.206	1	17
444.376	1	7
444.547	1	14
444.717	1	8
444.888	1	12
445.058	1	10
445.229	1	0
445.399	1	11
445.570	1	-2
445.740	1	11
445.911	1	14
446.081	1	23
446.252	1	7
446.422	1	5
446.593	1	1
446.763	1	6
446.934	1	16
447.104	1	8
447.275	1	14
447.445	1	9
447.616	1	10
447.786	1	7
447.957	1	10
448.127	1	1
448.298	1	6
448.468	1	3
448.639	1	9
448.809	1	14
448.979	1	1
449.150	1	2
449.320	1	6
449.491	1	3
449.661	1	17
449.832	1	8
450.002	1	17
450.173	1	8
450.343	1	15
450.514	1	20
450.684	1	15
450.855	1	19
451.025	1	4
451.196	1	3
451.366	1	8
451.537	1	11
451.707	1	6
451.878	1	4
452.048	1	16
452.218	1	16
452.389	1	14
452.559	1	-7
452.730	1	6
452.900	1	11
453.071	1	3
453.241	1	11
453.412	1	5
453.582	1	16
453.753	1	0
453.923	1	17
454.093	1	14
454.264	1	11
454.434	1	16
454.605	1	14
454.775	1	7
454.946	1	11
455.116	1	8
455.287	1	1
455.457	1	10
455.628	1	15
455.798	1	17
455.968	1	5
456.139	1	0
456.309	1	5
456.480	1	14
456.650	1	20
456.821	1	17
456.991	1	14
457.161	1	12
457.332	1	5
457.502	1	4
457.673	1	9
457.843	1	6
458.014	1	2
458.184	1	0
458.355	1	3
458.525	1	7
458.695	1	4
458.866	1	6
459.036	1	-3
459.207	1	9
459.377	1	15
459.548	1	5
459.718	1	-4
459.888	1	19
460.059	1	5
460.229	1	10
460.400	1	9
460.570	1	11
460.740	1	4
460.911	1	4
461.081	1	7
461.252	1	11
461.422	1	5
461.593	1	-4
461.763	1	12
461.933	1	11
462.104	1	6
462.274	1	12
462.445	1	-3
462.615	1	2
462.785	1	-3
462.956	1	0
463.126	1	3
463.297	1	13
463.467	1	19
463.638	1	5
463.808	1	-1
463.978	1	4
464.149	1	7
464.319	1	-7
464.490	1	11
464.660	1	4
464.830	1	-1
465.001	1	24
465.171	1	2
465.342	1	18
465.512	1	3
465.682	1	7
465.853	1	7
466.023	1	10
466.194	1	6
466.364	1	14
466.534	1	6
466.705	1	10
466.875	1	10
467.045	1	-1
467.216	1	10
467.386	1	1
467.557	1	0
467.727	1	9
467.897	1	5
468.068	1	7
468.238	1	16
468.409	1	4
468.579	1	8
468.749	1	11
468.920	1	2
469.090	1	22
469.260	1	-1
469.431	1	2
469.601	1	6
469.772	1	8
469.942	1	9
470.112	1	12
470.283	1	15
470.453	1	9
470.623	1	6
470.794	1	5
470.964	1	-7
471.135	1	15
471.305	1	0
471.475	1	9
471.646	1	4
471.816	1	7
471.986	1	2
472.157	1	3
472.327	1	-1
472.497	1	0
472.668	1	0
472.838	1	5
473.009	1	17
473.179	1	8
473.349	1	5
473.520	1	13
473.690	1	2
473.860	1	4
474.031	1	9
474.201	1	5
474.371	1	-5
474.542	1	11
474.712	1	-2
474.882	1	16
475.053	1	8
475.223	1	12
475.394	1	3
475.564	1	-2
475.734	1	3
475.905	1	6
476.075	1	2
476.245	1	11
476.416	1	1
476.586	1	-5
476.756	1	19
476.927	1	4
477.097	1	13
477.267	1	3
477.438	1	-14
477.608	1	6
477.778	1	7
477.949	1	9
478.119	1	4
478.289	1	16
478.460	1	11
478.630	1	7
478.800	1	8
478.971	1	9
479.141	1	1
479.311	1	4
479.482	1	-1
479.652	1	11
479.822	1	1
479.993	1	11
480.163	1	2
480.333	1	6
480.504	1	1
480.674	1	4
480.844	1	13
481.015	1	-2
481.185	1	8
481.355	1	-6
481.525	1	11
481.696	1	15
481.866	1	0
482.036	1	6
482.207	1	-6
482.377	1	2
482.547	1	3
482.718	1	9
482.888	1	-3
483.058	1	10
483.229	1	-1
483.399	1	16
483.569	1	8
483.740	1	3
483.910	1	-1
484.080	1	1
484.250	1	4
484.421	1	5
484.591	1	-2
484.761	1	-1
484.932	1	6
485.102	1	-4
485.272	1	0
485.443	1	6
485.613	1	2
485.783	1	-2
485.953	1	-3
486.124	1	-5
486.294	1	17
486.464	1	-3
486.635	1	0
486.805	1	2
486.975	1	-3
487.146	1	-1
487.316	1	7
487.486	1	-3
487.656	1	1
487.827	1	3
487.997	1	-4
488.167	1	8
488.338	1	0
488.508	1	2
488.678	1	3
488.848	1	8
489.019	1	2
489.189	1	13
489.359	1	4
489.529	1	-2
489.700	1	1
489.870	1	1
490.040	1	-3
490.211	1	7
490.381	1	4
490.551	1	-7
490.721	1	12
490.892	1	11
491.062	1	-5
491.232	1	-6
491.402	1	6
491.573	1	-2
491.743	1	4
491.913	1	3
492.084	1	4
492.254	1	10
492.424	1	4
492.594	1	3
492.765	1	8
492.935	1	9
493.105	1	5
493.275	1	3
493.446	1	7
493.616	1	5
493.786	1	14
493.956	1	-4
494.127	1	-3
494.297	1	1
494.467	1	17
494.637	1	9
494.808	1	-11
494.978	1	-2
495.148	1	3
495.318	1	-1
495.489	1	2
495.659	1	9
495.829	1	11
495.999	1	3
496.170	1	-3
496.340	1	8
496.510	1	-9
496.680	1	-1
496.851	1	3
497.021	1	-9
497.191	1	-1
497.361	1	2
497.532	1	-4
497.702	1	11
497.872	1	0
498.042	1	3
498.213	1	-2
498.383	1	1
498.553	1	-1
498.723	1	-2
498.894	1	10
499.064	1	6
499.234	1	3
499.404	1	11
499.574	1	1
499.745	1	2
499.915	1	-8
500.085	1	2
500.255	1	1
500.426	1	6
500.596	1	8
500.766	1	-2
500.936	1	1
501.106	1	1
501.277	1	6
501.447	1	1
501.617	1	4
501.787	1	8
501.958	1	8
502.128	1	15
502.298	1	0
502.468	1	2
502.638	1	-6
502.809	1	0
502.979	1	-12
503.149	1	4
503.319	1	3
503.489	1	-10
503.660	1	-2
503.830	1	3
504.000	1	2
504.170	1	1
504.340	1	0
504.511	1	7
504.681	1	7
504.851	1	5
505.021	1	-5
505.192	1	-2
505.362	1	-3
505.532	1	-1
505.702	1	-5
505.872	1	11
506.043	1	-2
506.213	1	4
506.383	1	9
506.553	1	-3
506.723	1	9
506.893	1	-3
507.064	1	3
507.234	1	3
507.404	1	0
507.574	1	-5
507.744	1	4
507.915	1	-8
508.085	1	-4
508.255	1	3
508.425	1	-6
508.595	1	-2
508.766	1	-7
508.936	1	21
509.106	1	-5
509.276	1	6
509.446	1	3
509.616	1	6
509.787	1	3
509.957	1	4
510.127	1	2
510.297	1	5
510.467	1	0
510.638	1	-6
510.808	1	-5
510.978	1	4
511.148	1	5
511.318	1	6
511.488	1	8
511.659	1	12
511.829	1	-2
511.999	1	5
512.169	1	3
512.339	1	5
512.509	1	-6
512.680	1	-3
512.850	1	-2
513.020	1	7
513.190	1	-1
513.360	1	-5
513.530	1	10
513.700	1	1
513.871	1	3
514.041	1	-4
514.211	1	-5
514.381	1	5
514.551	1	3
514.721	1	0
514.892	1	2
515.062	1	3
515.232	1	7
515.402	1	5
515.572	1	1
515.742	1	5
515.912	1	2
516.083	1	3
516.253	1	3
516.423	1	-9
516.593	1	4
516.763	1	15
516.933	1	8
517.104	1	1
517.274	1	14
517.444	1	-1
517.614	1	0
517.784	1	2
517.954	1	3
518.124	1	-6
518.294	1	6
518.465	1	7
518.635	1	2
518.805	1	-2
518.975	1	-8
519.145	1	4
519.315	1	-12
519.485	1	3
519.656	1	-4
519.826	1	0
519.996	1	8
520.166	1	-3
520.336	1	-1
520.506	1	2
520.676	1	12
520.846	1	-2
521.017	1	6
521.187	1	0
521.357	1	-3
521.527	1	-2
521.697	1	9
521.867	1	0
522.037	1	5
522.207	1	4
522.377	1	2
522.548	1	6
522.718	1	-6
522.888	1	6
523.058	1	0
523.228	1	-5
523.398	1	7
523.568	1	2
523.738	1	-6
523.909	1	8
524.079	1	0
524.249	1	0
524.419	1	-5
524.589	1	-2
524.759	1	10
524.929	1	-1
525.099	1	-4
525.269	1	-10
525.439	1	7
525.610	1	-5
525.780	1	3
525.950	1	12
526.120	1	-8
526.290	1	3
526.460	1	4
526.630	1	3
526.800	1	-3
526.970	1	3
527.140	1	8
527.311	1	18
527.481	1	-1
527.651	1	7
527.821	1	-7
527.991	1	0
528.161	1	-5
528.331	1	9
528.501	1	-2
528.671	1	9
528.841	1	17
529.011	1	8
529.181	1	4
529.352	1	14
529.522	1	0
529.692	1	-5
529.862	1	4
530.032	1	9
530.202	1	11
530.372	1	5
530.542	1	-8
530.712	1	14
530.882	1	12
531.052	1	-10
531.222	1	-3
531.392	1	1
531.563	1	-4
531.733	1	-3
531.903	1	1
532.073	1	3
532.243	1	9
532.413	1	4
532.583	1	5
532.753	1	-3
532.923	1	7
533.093	1	-3
533.263	1	-1
533.433	1	3
533.603	1	-1
533.773	1	-11
533.943	1	-3
534.113	1	-2
534.284	1	-1
534.454	1	5
534.624	1	1
534.794	1	1
534.964	1	2
535.134	1	11
535.304	1	3
535.474	1	0
535.644	1	8
535.814	1	-1
535.984	1	2
536.154	1	6
536.324	1	4
536.494	1	0
536.664	1	-4
536.834	1	1
537.004	1	4
537.174	1	5
537.344	1	17
537.514	1	4
537.685	1	6
537.855	1	-2
538.025	1	7
538.195	1	-3
538.365	1	13
538.535	1	-2
538.705	1	-3
538.875	1	3
539.045	1	-3
539.215	1	6
539.385	1	-6
539.555	1	-12
539.725	1	-3
539.895	1	6
540.065	1	-6
540.235	1	4
540.405	1	-7
540.575	1	-4
540.745	1	6
540.915	1	2
541.085	1	-5
541.255	1	0
541.425	1	-6
541.595	1	13
541.765	1	2
541.935	1	-5
542.105	1	4
542.275	1	0
542.445	1	0
542.615	1	-4
542.785	1	-2
542.955	1	-5
543.125	1	4
543.295	1	4
543.465	1	2
543.635	1	-10
543.805	1	9
543.975	1	-5
544.145	1	13
544.315	1	1
544.485	1	-4
544.655	1	-11
544.825	1	7
544.995	1	9
545.165	1	7
545.335	1	3
545.505	1	-3
545.675	1	-17
545.845	1	0
546.015	1	2
546.185	1	-4
546.355	1	1
546.525	1	1
546.695	1	3
546.865	1	8
547.035	1	-5
547.205	1	7
547.375	1	-3
547.545	1	3
547.715	1	1
547.885	1	-2
548.055	1	-9
548.225	1	1
548.395	1	-4
548.565	1	3
548.735	1	1
548.905	1	5
549.075	1	3
549.245	1	-1
549.415	1	6
549.585	1	2
549.755	1	-9
549.925	1	-8
550.095	1	-5
550.265	1	9
550.435	1	-10
550.605	1	2
550.775	1	3
550.945	1	11
551.115	1	3
551.285	1	-6
551.455	1	3
551.625	1	-1
551.795	1	-13
551.965	1	2
552.135	1	6
552.305	1	-4
552.475	1	6
552.645	1	3
552.815	1	-1
552.985	1	1
553.155	1	2
553.325	1	-5
553.495	1	5
553.665	1	-1
553.835	1	11
554.004	1	24
554.174	1	-4
554.344	1	-4
554.514	1	10
554.684	1	-2
554.854	1	-7
555.024	1	-1
555.194	1	3
555.364	1	-2
555.534	1	-10
555.704	1	1
555.874	1	-5
556.044	1	-6
556.214	1	8
556.384	1	2
556.554	1	-12
556.724	1	-14
556.894	1	-3
557.064	1	2
557.234	1	-8
557.404	1	7
557.573	1	0
557.743	1	5
557.913	1	3
558.083	1	-2
558.253	1	2
558.423	1	-2
558.593	1	-10
558.763	1	5
558.933	1	-2
559.103	1	6
559.273	1	-1
559.443	1	3
559.613	1	-5
559.783	1	-5
559.953	1	-6
560.122	1	0
560.292	1	7
560.462	1	1
560.632	1	1
560.802	1	6
560.972	1	-5
561.142	1	0
561.312	1	2
561.482	1	-8
561.652	1	-1
561.822	1	-8
561.992	1	-3
562.162	1	6
562.331	1	6
562.501	1	-1
562.671	1	0
562.841	1	-7
563.011	1	5
563.181	1	0
563.351	1	-2
563.521	1	2
563.691	1	1
563.861	1	6
564.031	1	2
564.201	1	11
564.370	1	3
564.540	1	8
564.710	1	7
564.880	1	-2
565.050	1	0
565.220	1	-8
565.390	1	-4
565.560	1	5
565.730	1	5
565.900	1	4
566.069	1	6
566.239	1	2
566.409	1	-12
566.579	1	-2
566.749	1	-7
566.919	1	-3
567.089	1	-3
567.259	1	1
567.429	1	-11
567.599	1	8
567.768	1	-2
567.938	1	-4
568.108	1	3
568.278	1	8
568.448	1	2
568.618	1	-7
568.788	1	6
568.958	1	-12
569.128	1	2
569.297	1	3
569.467	1	-9
569.637	1	2
569.807	1	2
569.977	1	-5
570.147	1	-2
570.317	1	-2
570.487	1	3
570.656	1	-8
570.826	1	4
570.996	1	-8
571.166	1	2
571.336	1	-7
571.506	1	0
571.676	1	8
571.846	1	10
572.015	1	0
572.185	1	-3
572.355	1	-2
572.525	1	-6
572.695	1	-2
572.865	1	2
573.035	1	8
573.205	1	16
573.374	1	-5
573.544	1	-1
573.714	1	-7
573.884	1	4
574.054	1	4
574.224	1	-1
574.394	1	-8
574.563	1	5
574.733	1	6
574.903	1	11
575.073	1	6
575.243	1	-5
575.413	1	-2
575.583	1	-1
575.752	1	-4
575.922	1	-12
576.092	1	-1
576.262	1	1
576.432	1	8
576.602	1	0
576.772	1	10
576.941	1	-4
577.111	1	0
577.281	1	-1
577.451	1	1
577.621	1	1
577.791	1	1
577.960	1	2
578.130	1	-8
578.300	1	1
578.470	1	-9
578.640	1	7
578.810	1	-10
578.979	1	-2
579.149	1	1
579.319	1	-2
579.489	1	-8
579.659	1	-4
579.829	1	-2
579.998	1	-2
580.168	1	1
580.338	1	9
580.508	1	12
580.678	1	-1
580.848	1	1
581.017	1	14
581.187	1	4
581.357	1	-7
581.527	1	-2
581.697	1	13
581.867	1	3
582.036	1	3
582.206	1	1
582.376	1	-4
582.546	1	-8
582.716	1	-11
582.885	1	5
583.055	1	4
583.225	1	-9
583.395	1	14
583.565	1	7
583.735	1	4
583.904	1	5
584.074	1	-7
584.244	1	-4
584.414	1	4
584.584	1	-7
584.753	1	16
584.923	1	8
585.093	1	-3
585.263	1	-2
585.433	1	3
585.602	1	-4
585.772	1	-5
585.942	1	5
586.112	1	-10
586.282	1	-2
586.451	1	1
586.621	1	5
586.791	1	2
586.961	1	3
587.131	1	3
587.300	1	1
587.470	1	-3
587.640	1	4
587.810	1	7
587.980	1	-6
588.149	1	-9
588.319	1	3
588.489	1	0
588.659	1	-3
588.829	1	9
588.998	1	-3
589.168	1	4
589.338	1	2
589.508	1	1
589.677	1	3
589.847	1	13
590.017	1	-5
590.187	1	2
590.357	1	5
590.526	1	-3
590.696	1	-9
590.866	1	0
591.036	1	12
591.205	1	4
591.375	1	-4
591.545	1	-11
591.715	1	0
591.885	1	-3
592.054	1	-11
592.224	1	-1
592.394	1	2
592.564	1	-1
592.733	1	-2
592.903	1	7
593.073	1	1
593.243	1	3
593.412	1	1
593.582	1	-3
593.752	1	4
593.922	1	-6
594.091	1	-6
594.261	1	-3
594.431	1	13
594.601	1	-6
594.771	1	8
594.940	1	1
595.110	1	6
595.280	1	-5
595.450	1	9
595.619	1	3
595.789	1	3
595.959	1	4
596.129	1	2
596.298	1	5
596.468	1	-4
596.638	1	2
596.808	1	12
596.977	1	-4
597.147	1	-12
597.317	1	0
597.487	1	5
597.656	1	-3
597.826	1	6
597.996	1	5
598.166	1	6
598.335	1	5
598.505	1	11
598.675	1	-7
598.844	1	-1
599.014	1	11
599.184	1	0
599.354	1	8
599.523	1	2
599.693	1	10
599.863	1	5
600.033	1	1
600.202	1	2
600.372	1	-7
600.542	1	-7
600.712	1	5
600.881	1	-8
601.051	1	1
601.221	1	12
601.390	1	-7
601.560	1	1
601.730	1	2
601.900	1	6
602.069	1	4
602.239	1	5
602.409	1	-4
602.578	1	0
602.748	1	2
602.918	1	-5
603.088	1	1
603.257	1	2
603.427	1	-4
603.597	1	-1
603.767	1	5
603.936	1	-5
604.106	1	0
604.276	1	8
604.445	1	10
604.615	1	-4
604.785	1	5
604.954	1	2
605.124	1	-3
605.294	1	6
605.464	1	-7
605.633	1	3
605.803	1	8
605.973	1	3
606.142	1	2
606.312	1	2
606.482	1	-4
606.652	1	0
606.821	1	2
606.991	1	-4
607.161	1	-5
607.330	1	-12
607.500	1	17
607.670	1	3
607.839	1	11
608.009	1	10
608.179	1	4
608.348	1	7
608.518	1	-6
608.688	1	-8
608.858	1	15
609.027	1	4
609.197	1	-1
609.367	1	9
609.536	1	6
609.706	1	4
609.876	1	16
610.045	1	0
610.215	1	4
610.385	1	-2
610.554	1	-5
610.724	1	-7
610.894	1	2
611.063	1	-13
611.233	1	11
611.403	1	0
611.572	1	4
611.742	1	9
611.912	1	-3
612.081	1	0
612.251	1	6
612.421	1	6
612.590	1	0
612.760	1	6
612.930	1	1
613.099	1	5
613.269	1	-4
613.439	1	-2
613.608	1	6
613.778	1	-5
613.948	1	4
614.117	1	12
614.287	1	0
614.457	1	-8
614.626	1	1
614.796	1	1
614.966	1	2
615.135	1	12
615.305	1	2
615.475	1	-1
615.644	1	7
615.814	1	2
615.984	1	5
616.153	1	6
616.323	1	6
616.493	1	10
616.662	1	3
616.832	1	5
617.002	1	5
617.171	1	4
617.341	1	0
617.511	1	9
617.680	1	8
617.850	1	2
618.019	1	-6
618.189	1	7
618.359	1	-1
618.528	1	6
618.698	1	7
618.868	1	2
619.037	1	0
619.207	1	2
619.377	1	-1
619.546	1	-4
619.716	1	9
619.885	1	2
620.055	1	8
620.225	1	3
620.394	1	0
620.564	1	7
620.734	1	2
620.903	1	10
621.073	1	-3
621.242	1	3
621.412	1	-2
621.582	1	-1
621.751	1	-2
621.921	1	6
622.091	1	0
622.260	1	-9
622.430	1	6
622.599	1	-10
622.769	1	8
622.939	1	-1
623.108	1	0
623.278	1	-3
623.448	1	10
623.617	1	-3
623.787	1	4
623.956	1	14
624.126	1	14
624.296	1	1
624.465	1	7
624.635	1	4
624.804	1	-7
624.974	1	-1
625.144	1	2
625.313	1	-2
625.483	1	15
625.652	1	8
625.822	1	-6
625.992	1	9
626.161	1	10
626.331	1	1
626.501	1	2
626.670	1	1
626.840	1	7
627.009	1	7
627.179	1	6
627.348	1	11
627.518	1	8
627.688	1	5
627.857	1	5
628.027	1	-11
628.196	1	6
628.366	1	1
628.536	1	3
628.705	1	3
628.875	1	12
629.044	1	13
629.214	1	2
629.384	1	6
629.553	1	13
629.723	1	-11
629.892	1	12
630.062	1	-1
630.232	1	2
630.401	1	9
630.571	1	7
630.740	1	6
630.910	1	2
631.079	1	1
631.249	1	1
631.419	1	-5
631.588	1	-3
631.758	1	0
631.927	1	-2
632.097	1	0
632.266	1	4
632.436	1	5
632.606	1	0
632.775	1	8
632.945	1	5
633.114	1	1
633.284	1	3
633.453	1	0
633.623	1	13
633.793	1	4
633.962	1	2
634.132	1	2
634.301	1	0
634.471	1	3
634.640	1	3
634.810	1	8
634.979	1	7
635.149	1	12
635.319	1	6
635.488	1	11
635.658	1	9
635.827	1	0
635.997	1	3
636.166	1	-7
636.336	1	-1
636.505	1	6
636.675	1	12
636.845	1	1
637.014	1	-1
637.184	1	5
637.353	1	1
637.523	1	3
637.692	1	12
637.862	1	2
638.031	1	3
638.201	1	10
638.370	1	1
638.540	1	-3
638.710	1	10
638.879	1	8
639.049	1	9
639.218	1	9
639.388	1	-4
639.557	1	4
639.727	1	2
639.896	1	7
640.066	1	9
640.235	1	6
640.405	1	3
640.574	1	5
640.744	1	8
640.914	1	4
641.083	1	1
641.253	1	14
641.422	1	-6
641.592	1	-7
641.761	1	8
641.931	1	6
642.100	1	5
642.270	1	6
642.439	1	6
642.609	1	5
642.778	1	-3
642.948	1	6
643.117	1	5
643.287	1	3
643.456	1	11
643.626	1	13
643.795	1	7
643.965	1	5
644.134	1	6
644.304	1	3
644.473	1	5
644.643	1	0
644.812	1	11
644.982	1	11
645.151	1	9
645.321	1	5
645.490	1	-4
645.660	1	4
645.829	1	5
645.999	1	7
646.168	1	-4
646.338	1	-3
646.507	1	8
646.677	1	5
646.846	1	5
647.016	1	6
647.185	1	6
647.355	1	4
647.524	1	11
647.694	1	-3
647.863	1	3
648.033	1	1
648.202	1	7
648.372	1	12
648.541	1	-7
648.711	1	-4
648.880	1	4
649.050	1	-1
649.219	1	-2
649.389	1	6
649.558	1	1
649.728	1	-4
649.897	1	5
650.067	1	-2
650.236	1	12
650.406	1	1
650.575	1	7
650.745	1	0
650.914	1	7
651.084	1	-1
651.253	1	6
651.423	1	12
651.592	1	11
651.762	1	8
651.931	1	5
652.101	1	2
652.270	1	7
652.440	1	0
652.609	1	10
652.778	1	-4
652.948	1	10
653.117	1	-6
653.287	1	6
653.456	1	4
653.626	1	4
653.795	1	4
653.965	1	7
654.134	1	3
654.304	1	8
654.473	1	6
654.643	1	5
654.812	1	0
654.982	1	1
655.151	1	-1
655.320	1	-2
655.490	1	1
655.659	1	1
655.829	1	10
655.998	1	6
656.168	1	1
656.337	1	9
656.507	1	-5
656.676	1	10
656.846	1	-3
657.015	1	-5
657.184	1	5
657.354	1	2
657.523	1	1
657.693	1	0
657.862	1	4
658.032	1	4
658.201	1	3
658.371	1	-1
658.540	1	-10
658.709	1	-11
658.879	1	-10
659.048	1	4
659.218	1	0
659.387	1	4
659.557	1	4
659.726	1	2
659.895	1	-6
660.065	1	-5
660.234	1	6
660.404	1	5
660.573	1	10
660.743	1	2
660.912	1	7
661.081	1	17
661.251	1	2
661.420	1	2
661.590	1	1
661.759	1	4
661.929	1	6
662.098	1	-14
662.267	1	4
662.437	1	10
662.606	1	11
662.776	1	0
662.945	1	-6
663.115	1	16
663.284	1	7
663.453	1	-3
663.623	1	7
663.792	1	7
663.962	1	3
664.131	1	-1
664.300	1	10
664.470	1	8
664.639	1	3
664.809	1	-4
664.978	1	3
665.148	1	0
665.317	1	9
665.486	1	4
665.656	1	5
665.825	1	0
665.995	1	-3
666.164	1	-1
666.333	1	10
666.503	1	6
666.672	1	11
666.842	1	-1
667.011	1	14
667.180	1	1
667.350	1	6
667.519	1	3
667.689	1	-9
667.858	1	3
668.027	1	10
668.197	1	2
668.366	1	0
668.536	1	12
668.705	1	11
668.874	1	8
669.044	1	2
669.213	1	11
669.382	1	2
669.552	1	6
669.721	1	10
669.891	1	2
670.060	1	11
670.229	1	-4
670.399	1	5
670.568	1	-6
670.738	1	-3
670.907	1	8
671.076	1	2
671.246	1	11
671.415	1	8
671.584	1	0
671.754	1	1
671.923	1	0
672.093	1	17
672.262	1	8
672.431	1	7
672.601	1	6
672.770	1	6
672.939	1	5
673.109	1	11
673.278	1	6
673.448	1	8
673.617	1	-13
673.786	1	11
