325.333	1	10
325.504	1	-4
325.675	1	-5
325.846	1	4
326.017	1	8
326.188	1	13
326.359	1	5
326.531	1	1
326.702	1	4
326.873	1	9
327.044	1	7
327.215	1	6
327.386	1	6
327.557	1	3
327.728	1	9
327.899	1	17
328.070	1	16
328.241	1	15
328.412	1	7
328.583	1	7
328.754	1	4
328.926	1	1
329.097	1	5
329.268	1	13
329.439	1	10
329.610	1	15
329.781	1	8
329.952	1	21
330.123	1	10
330.294	1	2
330.465	1	3
330.636	1	9
330.807	1	1
330.978	1	6
331.149	1	9
331.320	1	5
331.492	1	7
331.663	1	8
331.834	1	6
332.005	1	4
332.176	1	4
332.347	1	13
332.518	1	2
332.689	1	7
332.860	1	11
333.031	1	11
333.202	1	-2
333.373	1	8
333.544	1	5
333.715	1	2
333.886	1	-4
334.057	1	16
334.228	1	13
334.399	1	13
334.570	1	4
334.741	1	9
334.912	1	19
335.084	1	1
335.255	1	2
335.426	1	2
335.597	1	15
335.768	1	18
335.939	1	10
336.110	1	5
336.281	1	12
336.452	1	13
336.623	1	3
336.794	1	5
336.965	1	0
337.136	1	7
337.307	1	6
337.478	1	9
337.649	1	14
337.820	1	-2
337.991	1	15
338.162	1	13
338.333	1	14
338.504	1	6
338.675	1	7
338.846	1	3
339.017	1	8
339.188	1	4
339.359	1	5
339.530	1	19
339.701	1	4
339.872	1	12
340.043	1	-3
340.214	1	4
340.385	1	8
340.556	1	19
340.727	1	10
340.898	1	20
341.069	1	4
341.240	1	11
341.411	1	7
341.582	1	12
341.753	1	5
341.924	1	12
342.095	1	9
342.266	1	17
342.437	1	15
342.608	1	23
342.779	1	6
342.950	1	5
343.121	1	12
343.292	1	1
343.463	1	8
343.634	1	1
343.805	1	16
343.976	1	20
344.147	1	5
344.318	1	9
344.489	1	16
344.660	1	12
344.831	1	20
345.002	1	16
345.173	1	1
345.344	1	8
345.515	1	4
345.686	1	15
345.857	1	0
346.028	1	6
346.199	1	1
346.370	1	11
346.541	1	1
346.712	1	1
346.883	1	8
347.054	1	14
347.225	1	9
347.396	1	6
347.567	1	19
347.738	1	11
347.909	1	3
348.080	1	6
348.251	1	19
348.422	1	0
348.593	1	-2
348.764	1	13
348.935	1	5
349.106	1	18
349.277	1	12
349.448	1	13
349.619	1	7
349.790	1	16
349.961	1	19
350.132	1	11
350.303	1	8
350.474	1	9
350.645	1	11
350.816	1	5
350.987	1	11
351.157	1	5
351.328	1	12
351.499	1	6
351.670	1	12
351.841	1	9
352.012	1	15
352.183	1	19
352.354	1	3
352.525	1	10
352.696	1	6
352.867	1	22
353.038	1	1
353.209	1	11
353.380	1	-8
353.551	1	-1
353.722	1	2
353.893	1	9
354.064	1	7
354.235	1	8
354.406	1	8
354.576	1	3
354.747	1	1
354.918	1	7
355.089	1	5
355.260	1	14
355.431	1	8
355.602	1	17
355.773	1	3
355.944	1	1
356.115	1	16
356.286	1	14
356.457	1	6
356.628	1	8
356.799	1	1
356.970	1	10
357.141	1	6
357.311	1	17
357.482	1	11
357.653	1	13
357.824	1	16
357.995	1	-1
358.166	1	4
358.337	1	8
358.508	1	5
358.679	1	11
358.850	1	9
359.021	1	11
359.192	1	20
359.363	1	8
359.533	1	0
359.704	1	19
359.875	1	13
360.046	1	18
360.217	1	1
360.388	1	15
360.559	1	12
360.730	1	2
360.901	1	11
361.072	1	18
361.243	1	7
361.414	1	7
361.584	1	0
361.755	1	1
361.926	1	7
362.097	1	11
362.268	1	2
362.439	1	9
362.610	1	12
362.781	1	6
362.952	1	14
363.123	1	18
363.293	1	16
363.464	1	16
363.635	1	4
363.806	1	8
363.977	1	4
364.148	1	-5
364.319	1	4
364.490	1	17
364.661	1	7
364.832	1	11
365.002	1	20
365.173	1	6
365.344	1	9
365.515	1	-5
365.686	1	7
365.857	1	12
366.028	1	3
366.199	1	15
366.370	1	12
366.540	1	6
366.711	1	0
366.882	1	1
367.053	1	7
367.224	1	11
367.395	1	-1
367.566	1	-2
367.737	1	5
367.908	1	5
368.078	1	20
368.249	1	9
368.420	1	8
368.591	1	21
368.762	1	11
368.933	1	-10
369.104	1	16
369.274	1	-3
369.445	1	10
369.616	1	7
369.787	1	18
369.958	1	2
370.129	1	5
370.300	1	9
370.471	1	7
370.641	1	6
370.812	1	1
370.983	1	6
371.154	1	7
371.325	1	11
371.496	1	19
371.667	1	11
371.837	1	7
372.008	1	-7
372.179	1	-4
372.350	1	0
372.521	1	9
372.692	1	13
372.863	1	1
373.033	1	8
373.204	1	-1
373.375	1	4
373.546	1	14
373.717	1	0
373.888	1	13
374.059	1	12
374.229	1	7
374.400	1	6
374.571	1	2
374.742	1	12
374.913	1	9
375.084	1	13
375.254	1	5
375.425	1	6
375.596	1	7
375.767	1	2
375.938	1	-1
376.109	1	7
376.279	1	-1
376.450	1	5
376.621	1	8
376.792	1	14
376.963	1	9
377.134	1	2
377.304	1	8
377.475	1	4
377.646	1	-1
377.817	1	-1
377.988	1	0
378.159	1	9
378.329	1	11
378.500	1	14
378.671	1	19
378.842	1	0
379.013	1	7
379.184	1	3
379.354	1	4
379.525	1	5
379.696	1	15
379.867	1	6
380.038	1	18
380.209	1	0
380.379	1	9
380.550	1	19
380.721	1	-2
380.892	1	6
381.063	1	12
381.233	1	10
381.404	1	13
381.575	1	7
381.746	1	22
381.917	1	16
382.087	1	20
382.258	1	24
382.429	1	1
382.600	1	10
382.771	1	7
382.941	1	12
383.112	1	0
383.283	1	9
383.454	1	7
383.625	1	1
383.795	1	10
383.966	1	7
384.137	1	8
384.308	1	-2
384.479	1	7
384.649	1	13
384.820	1	17
384.991	1	3
385.162	1	17
385.333	1	4
385.503	1	7
385.674	1	-12
385.845	1	16
386.016	1	11
386.187	1	8
386.357	1	15
386.528	1	6
386.699	1	14
386.870	1	3
387.041	1	17
387.211	1	4
387.382	1	12
387.553	1	19
387.724	1	19
387.894	1	16
388.065	1	4
388.236	1	10
388.407	1	4
388.578	1	6
388.748	1	12
388.919	1	9
389.090	1	4
389.261	1	10
389.431	1	8
389.602	1	10
389.773	1	14
389.944	1	14
390.114	1	18
390.285	1	6
390.456	1	8
390.627	1	13
390.798	1	3
390.968	1	21
391.139	1	5
391.310	1	11
391.481	1	10
391.651	1	16
391.822	1	11
391.993	1	9
392.164	1	10
392.334	1	6
392.505	1	10
392.676	1	18
392.847	1	11
393.017	1	10
393.188	1	14
393.359	1	5
393.530	1	10
393.700	1	7
393.871	1	9
394.042	1	12
394.213	1	10
394.383	1	13
394.554	1	19
394.725	1	5
394.896	1	13
395.066	1	16
395.237	1	19
395.408	1	21
395.579	1	14
395.749	1	18
395.920	1	5
396.091	1	18
396.262	1	6
396.432	1	10
396.603	1	13
396.774	1	6
396.945	1	9
397.115	1	9
397.286	1	7
397.457	1	10
397.627	1	6
397.798	1	12
397.969	1	11
398.140	1	5
398.310	1	13
398.481	1	5
398.652	1	-1
398.823	1	9
398.993	1	13
399.164	1	19
399.335	1	7
399.505	1	10
399.676	1	6
399.847	1	15
400.018	1	21
400.188	1	9
400.359	1	8
400.530	1	13
400.700	1	16
400.871	1	11
401.042	1	6
401.213	1	8
401.383	1	29
401.554	1	13
401.725	1	8
401.895	1	17
402.066	1	11
402.237	1	19
402.408	1	13
402.578	1	5
402.749	1	11
402.920	1	11
403.090	1	5
403.261	1	18
403.432	1	12
403.603	1	18
403.773	1	19
403.944	1	16
404.115	1	9
404.285	1	16
404.456	1	16
404.627	1	11
404.797	1	17
404.968	1	20
405.139	1	15
405.310	1	27
405.480	1	16
405.651	1	-1
405.822	1	12
405.992	1	19
406.163	1	25
406.334	1	21
406.504	1	19
406.675	1	27
406.846	1	7
407.016	1	16
407.187	1	25
407.358	1	8
407.528	1	12
407.699	1	6
407.870	1	21
408.041	1	23
408.211	1	15
408.382	1	17
408.553	1	25
408.723	1	11
408.894	1	14
409.065	1	14
409.235	1	17
409.406	1	13
409.577	1	12
409.747	1	17
409.918	1	19
410.089	1	22
410.259	1	10
410.430	1	22
410.601	1	19
410.771	1	6
410.942	1	20
411.113	1	10
411.283	1	21
411.454	1	29
411.625	1	18
411.795	1	13
411.966	1	25
412.137	1	23
412.307	1	24
412.478	1	13
412.649	1	16
412.819	1	11
412.990	1	15
413.161	1	23
413.331	1	14
413.502	1	21
413.672	1	25
413.843	1	15
414.014	1	23
414.184	1	9
414.355	1	21
414.526	1	11
414.696	1	21
414.867	1	13
415.038	1	19
415.208	1	14
415.379	1	26
415.550	1	22
415.720	1	8
415.891	1	23
416.062	1	14
416.232	1	5
416.403	1	22
416.573	1	25
416.744	1	8
416.915	1	26
417.085	1	21
417.256	1	15
417.427	1	5
417.597	1	25
417.768	1	22
417.939	1	12
418.109	1	16
418.280	1	14
418.450	1	12
418.621	1	16
418.792	1	2
418.962	1	10
419.133	1	15
419.304	1	14
419.474	1	22
419.645	1	14
419.815	1	15
419.986	1	26
420.157	1	17
420.327	1	11
420.498	1	16
420.669	1	16
420.839	1	11
421.010	1	19
421.180	1	15
421.351	1	20
421.522	1	16
421.692	1	21
421.863	1	12
422.033	1	8
422.204	1	32
422.375	1	9
422.545	1	20
422.716	1	25
422.886	1	7
423.057	1	20
423.228	1	15
423.398	1	11
423.569	1	11
423.740	1	21
423.910	1	20
424.081	1	11
424.251	1	13
424.422	1	20
424.593	1	20
424.763	1	16
424.934	1	20
425.104	1	12
425.275	1	20
425.445	1	14
425.616	1	22
425.787	1	9
425.957	1	7
426.128	1	13
426.298	1	24
426.469	1	10
426.640	1	20
426.810	1	28
426.981	1	24
427.151	1	17
427.322	1	23
427.493	1	18
427.663	1	29
427.834	1	15
428.004	1	5
428.175	1	29
428.345	1	11
428.516	1	16
428.687	1	21
428.857	1	13
429.028	1	18
429.198	1	22
429.369	1	16
429.540	1	16
429.710	1	15
429.881	1	3
430.051	1	18
430.222	1	14
430.392	1	8
430.563	1	21
430.734	1	20
430.904	1	4
431.075	1	12
431.245	1	14
431.416	1	24
431.586	1	13
431.757	1	18
431.927	1	26
432.098	1	11
432.269	1	14
432.439	1	30
432.610	1	28
432.780	1	12
432.951	1	11
433.121	1	23
433.292	1	19
433.462	1	14
433.633	1	-1
433.804	1	8
433.974	1	30
434.145	1	21
434.315	1	16
434.486	1	21
434.656	1	23
434.827	1	16
434.997	1	17
435.168	1	17
435.339	1	7
435.509	1	9
435.680	1	26
435.850	1	8
436.021	1	24
436.191	1	14
436.362	1	22
436.532	1	7
436.703	1	8
436.873	1	13
437.044	1	14
437.214	1	10
437.385	1	20
437.556	1	10
437.726	1	22
437.897	1	14
438.067	1	14
438.238	1	8
438.408	1	7
438.579	1	12
438.749	1	6
438.920	1	11
439.090	1	12
439.261	1	24
439.431	1	10
439.602	1	13
439.772	1	15
439.943	1	11
440.113	1	27
440.284	1	15
440.455	1	16
440.625	1	21
440.796	1	24
440.966	1	2
441.137	1	4
441.307	1	12
441.478	1	15
441.648	1	4
441.819	1	17
441.989	1	17
442.160	1	5
442.330	1	26
442.501	1	14
442.671	1	17
442.842	1	16
443.012	1	10
443.183	1	13
443.353	1	20
443.524	1	1
443.694	1	16
443.865	1	17
444.035	1	24
444.206	1	14
444.376	1	13
444.547	1	22
444.717	1	14
444.888	1	11
445.058	1	15
445.229	1	8
445.399	1	4
445.570	1	4
445.740	1	9
445.911	1	24
446.081	1	23
446.252	1	21
446.422	1	23
446.593	1	2
446.763	1	9
446.934	1	12
447.104	1	13
447.275	1	20
447.445	1	11
447.616	1	22
447.786	1	6
447.957	1	12
448.127	1	10
448.298	1	20
448.468	1	13
448.639	1	14
448.809	1	12
448.979	1	2
449.150	1	7
449.320	1	18
449.491	1	11
449.661	1	29
449.832	1	16
450.002	1	12
450.173	1	15
450.343	1	24
450.514	1	10
450.684	1	14
450.855	1	16
451.025	1	16
451.196	1	13
451.366	1	15
451.537	1	18
451.707	1	25
451.878	1	12
452.048	1	13
452.218	1	17
452.389	1	15
452.559	1	-1
452.730	1	16
452.900	1	15
453.071	1	12
453.241	1	28
453.412	1	17
453.582	1	15
453.753	1	6
453.923	1	12
454.093	1	22
454.264	1	17
454.434	1	16
454.605	1	14
454.775	1	19
454.946	1	19
455.116	1	20
455.287	1	8
455.457	1	15
455.628	1	13
455.798	1	21
455.968	1	18
456.139	1	2
456.309	1	11
456.480	1	13
456.650	1	27
456.821	1	25
456.991	1	16
457.161	1	12
457.332	1	10
457.502	1	10
457.673	1	4
457.843	1	20
458.014	1	9
458.184	1	4
458.355	1	-1
458.525	1	1
458.695	1	7
458.866	1	17
459.036	1	17
459.207	1	8
459.377	1	18
459.548	1	9
459.718	1	14
459.888	1	11
460.059	1	12
460.229	1	2
460.400	1	17
460.570	1	9
460.740	1	16
460.911	1	6
461.081	1	0
461.252	1	22
461.422	1	14
461.593	1	-2
461.763	1	16
461.933	1	-1
462.104	1	10
462.274	1	22
462.445	1	-1
462.615	1	14
462.785	1	7
462.956	1	14
463.126	1	-2
463.297	1	10
463.467	1	20
463.638	1	4
463.808	1	2
463.978	1	2
464.149	1	20
464.319	1	6
464.490	1	23
464.660	1	18
464.830	1	7
465.001	1	18
465.171	1	9
465.342	1	14
465.512	1	11
465.682	1	3
465.853	1	15
466.023	1	16
466.194	1	18
466.364	1	14
466.534	1	13
466.705	1	12
466.875	1	9
467.045	1	0
467.216	1	7
467.386	1	8
467.557	1	12
467.727	1	9
467.897	1	7
468.068	1	8
468.238	1	12
468.409	1	10
468.579	1	13
468.749	1	17
468.920	1	11
469.090	1	14
469.260	1	4
469.431	1	8
469.601	1	11
469.772	1	13
469.942	1	12
470.112	1	14
470.283	1	20
470.453	1	16
470.623	1	14
470.794	1	13
470.964	1	9
471.135	1	12
471.305	1	7
471.475	1	10
471.646	1	14
471.816	1	3
471.986	1	10
472.157	1	11
472.327	1	7
472.497	1	3
472.668	1	10
472.838	1	10
473.009	1	22
473.179	1	17
473.349	1	8
473.520	1	12
473.690	1	14
473.860	1	10
474.031	1	15
474.201	1	17
474.371	1	2
474.542	1	18
474.712	1	5
474.882	1	19
475.053	1	10
475.223	1	17
475.394	1	9
475.564	1	-3
475.734	1	5
475.905	1	20
476.075	1	2
476.245	1	17
476.416	1	6
476.586	1	6
476.756	1	16
476.927	1	10
477.097	1	12
477.267	1	16
477.438	1	-6
477.608	1	12
477.778	1	26
477.949	1	15
478.119	1	16
478.289	1	12
478.460	1	10
478.630	1	0
478.800	1	6
478.971	1	11
479.141	1	8
479.311	1	9
479.482	1	5
479.652	1	3
479.822	1	0
479.993	1	3
480.163	1	0
480.333	1	12
480.504	1	9
480.674	1	9
480.844	1	10
481.015	1	4
481.185	1	7
481.355	1	3
481.525	1	12
481.696	1	8
481.866	1	7
482.036	1	8
482.207	1	3
482.377	1	2
482.547	1	10
482.718	1	7
482.888	1	7
483.058	1	3
483.229	1	9
483.399	1	-1
483.569	1	13
483.740	1	-5
483.910	1	-2
484.080	1	2
484.250	1	12
484.421	1	14
484.591	1	1
484.761	1	-3
484.932	1	10
485.102	1	0
485.272	1	10
485.443	1	0
485.613	1	10
485.783	1	8
485.953	1	-1
486.124	1	-5
486.294	1	7
486.464	1	3
486.635	1	3
486.805	1	-1
486.975	1	7
487.146	1	4
487.316	1	14
487.486	1	-1
487.656	1	13
487.827	1	8
487.997	1	5
488.167	1	17
488.338	1	-2
488.508	1	1
488.678	1	5
488.848	1	7
489.019	1	19
489.189	1	12
489.359	1	13
489.529	1	4
489.700	1	-4
489.870	1	5
490.040	1	-2
490.211	1	8
490.381	1	0
490.551	1	-2
490.721	1	0
490.892	1	5
491.062	1	4
491.232	1	1
491.402	1	6
491.573	1	13
491.743	1	2
491.913	1	2
492.084	1	2
492.254	1	1
492.424	1	-1
492.594	1	13
492.765	1	2
492.935	1	14
493.105	1	7
493.275	1	1
493.446	1	5
493.616	1	10
493.786	1	9
493.956	1	7
494.127	1	-2
494.297	1	11
494.467	1	16
494.637	1	6
494.808	1	2
494.978	1	4
495.148	1	9
495.318	1	-7
495.489	1	6
495.659	1	8
495.829	1	13
495.999	1	12
496.170	1	3
496.340	1	13
496.510	1	2
496.680	1	8
496.851	1	5
497.021	1	-6
497.191	1	2
497.361	1	9
497.532	1	-8
497.702	1	5
497.872	1	5
498.042	1	-3
498.213	1	9
498.383	1	6
498.553	1	6
498.723	1	2
498.894	1	16
499.064	1	8
499.234	1	5
499.404	1	10
499.574	1	9
499.745	1	4
499.915	1	-1
500.085	1	6
500.255	1	5
500.426	1	4
500.596	1	11
500.766	1	-3
500.936	1	4
501.106	1	9
501.277	1	6
501.447	1	5
501.617	1	2
501.787	1	7
501.958	1	6
502.128	1	10
502.298	1	11
502.468	1	5
502.638	1	2
502.809	1	-1
502.979	1	-6
503.149	1	6
503.319	1	-2
503.489	1	-3
503.660	1	3
503.830	1	-5
504.000	1	9
504.170	1	11
504.340	1	-2
504.511	1	5
504.681	1	15
504.851	1	4
505.021	1	-2
505.192	1	-8
505.362	1	6
505.532	1	-7
505.702	1	7
505.872	1	8
506.043	1	3
506.213	1	10
506.383	1	1
506.553	1	3
506.723	1	12
506.893	1	0
507.064	1	5
507.234	1	4
507.404	1	13
507.574	1	6
507.744	1	10
507.915	1	5
508.085	1	-2
508.255	1	5
508.425	1	0
508.595	1	3
508.766	1	-4
508.936	1	14
509.106	1	2
509.276	1	10
509.446	1	-2
509.616	1	9
509.787	1	-1
509.957	1	4
510.127	1	-3
510.297	1	15
510.467	1	-1
510.638	1	2
510.808	1	-12
510.978	1	5
511.148	1	22
511.318	1	-1
511.488	1	13
511.659	1	12
511.829	1	12
511.999	1	-5
512.169	1	1
512.339	1	-4
512.509	1	5
512.680	1	-4
512.850	1	1
513.020	1	3
513.190	1	5
513.360	1	1
513.530	1	9
513.700	1	-4
513.871	1	3
514.041	1	9
514.211	1	6
514.381	1	8
514.551	1	-12
514.721	1	-1
514.892	1	8
515.062	1	4
515.232	1	16
515.402	1	6
515.572	1	10
515.742	1	11
515.912	1	2
516.083	1	2
516.253	1	10
516.423	1	-2
516.593	1	10
516.763	1	9
516.933	1	4
517.104	1	-2
517.274	1	12
517.444	1	5
517.614	1	3
517.784	1	-3
517.954	1	5
518.124	1	2
518.294	1	3
518.465	1	7
518.635	1	10
518.805	1	9
518.975	1	-2
519.145	1	2
519.315	1	-8
519.485	1	0
519.656	1	1
519.826	1	6
519.996	1	5
520.166	1	-2
520.336	1	-1
520.506	1	-2
520.676	1	17
520.846	1	1
521.017	1	1
521.187	1	6
521.357	1	-1
521.527	1	1
521.697	1	4
521.867	1	9
522.037	1	11
522.207	1	7
522.377	1	4
522.548	1	10
522.718	1	3
522.888	1	12
523.058	1	1
523.228	1	0
523.398	1	-3
523.568	1	0
523.738	1	5
523.909	1	9
524.079	1	3
524.249	1	-4
524.419	1	4
524.589	1	9
524.759	1	7
524.929	1	-6
525.099	1	-8
525.269	1	-11
525.439	1	10
525.610	1	-3
525.780	1	3
525.950	1	9
526.120	1	-7
526.290	1	8
526.460	1	6
526.630	1	-5
526.800	1	-8
526.970	1	9
527.140	1	8
527.311	1	6
527.481	1	-5
527.651	1	10
527.821	1	7
527.991	1	-10
528.161	1	-2
528.331	1	-1
528.501	1	0
528.671	1	-2
528.841	1	15
529.011	1	-4
529.181	1	7
529.352	1	3
529.522	1	4
529.692	1	-7
529.862	1	7
530.032	1	0
530.202	1	5
530.372	1	6
530.542	1	5
530.712	1	10
530.882	1	9
531.052	1	-4
531.222	1	9
531.392	1	8
531.563	1	6
531.733	1	-8
531.903	1	10
532.073	1	6
532.243	1	9
532.413	1	-2
532.583	1	11
532.753	1	4
532.923	1	5
533.093	1	-4
533.263	1	7
533.433	1	4
533.603	1	4
533.773	1	-1
533.943	1	5
534.113	1	3
534.284	1	-9
534.454	1	4
534.624	1	5
534.794	1	10
534.964	1	-1
535.134	1	7
535.304	1	14
535.474	1	-5
535.644	1	7
535.814	1	2
535.984	1	-1
536.154	1	0
536.324	1	-2
536.494	1	-3
536.664	1	-1
536.834	1	7
537.004	1	8
537.174	1	6
537.344	1	8
537.514	1	-3
537.685	1	-7
537.855	1	4
538.025	1	3
538.195	1	3
538.365	1	12
538.535	1	-7
538.705	1	1
538.875	1	4
539.045	1	7
539.215	1	7
539.385	1	0
539.555	1	-2
539.725	1	-6
539.895	1	5
540.065	1	-10
540.235	1	-1
540.405	1	-3
540.575	1	-4
540.745	1	-1
540.915	1	-2
541.085	1	-4
541.255	1	5
541.425	1	-6
541.595	1	12
541.765	1	13
541.935	1	-5
542.105	1	3
542.275	1	8
542.445	1	2
542.615	1	0
542.785	1	-4
542.955	1	5
543.125	1	-1
543.295	1	9
543.465	1	0
543.635	1	-1
543.805	1	-10
543.975	1	-3
544.145	1	12
544.315	1	-9
544.485	1	-5
544.655	1	-3
544.825	1	0
544.995	1	3
545.165	1	7
545.335	1	-5
545.505	1	7
545.675	1	-15
545.845	1	6
546.015	1	-1
546.185	1	11
546.355	1	-1
546.525	1	-7
546.695	1	0
546.865	1	-5
547.035	1	0
547.205	1	14
547.375	1	2
547.545	1	-5
547.715	1	0
547.885	1	-4
548.055	1	6
548.225	1	8
548.395	1	0
548.565	1	13
548.735	1	-6
548.905	1	4
549.075	1	8
549.245	1	6
549.415	1	-4
549.585	1	1
549.755	1	15
549.925	1	1
550.095	1	-1
550.265	1	14
550.435	1	3
550.605	1	0
550.775	1	3
550.945	1	12
551.115	1	1
551.285	1	-1
551.455	1	-1
551.625	1	0
551.795	1	-12
551.965	1	8
552.135	1	2
552.305	1	-5
552.475	1	0
552.645	1	1
552.815	1	7
552.985	1	1
553.155	1	5
553.325	1	-9
553.495	1	-4
553.665	1	-5
553.835	1	6
554.004	1	4
554.174	1	7
554.344	1	2
554.514	1	6
554.684	1	-9
554.854	1	-3
555.024	1	7
555.194	1	-4
555.364	1	2
555.534	1	-9
555.704	1	3
555.874	1	-1
556.044	1	1
556.214	1	9
556.384	1	-1
556.554	1	-1
556.724	1	8
556.894	1	-1
557.064	1	4
557.234	1	1
557.404	1	2
557.573	1	-3
557.743	1	2
557.913	1	8
558.083	1	0
558.253	1	-10
558.423	1	1
558.593	1	5
558.763	1	8
558.933	1	8
559.103	1	7
559.273	1	5
559.443	1	-5
559.613	1	-2
559.783	1	-5
559.953	1	-10
560.122	1	-9
560.292	1	3
560.462	1	4
560.632	1	-5
560.802	1	1
560.972	1	0
561.142	1	-7
561.312	1	-5
561.482	1	1
561.652	1	-2
561.822	1	-11
561.992	1	-1
562.162	1	8
562.331	1	19
562.501	1	-5
562.671	1	-3
562.841	1	-3
563.011	1	9
563.181	1	-11
563.351	1	0
563.521	1	5
563.691	1	0
563.861	1	-1
564.031	1	-7
564.201	1	14
564.370	1	-8
564.540	1	16
564.710	1	6
564.880	1	3
565.050	1	11
565.220	1	-2
565.390	1	3
565.560	1	1
565.730	1	2
565.900	1	0
566.069	1	13
566.239	1	-2
566.409	1	-8
566.579	1	13
566.749	1	-13
566.919	1	4
567.089	1	4
567.259	1	-1
567.429	1	-4
567.599	1	4
567.768	1	3
567.938	1	1
568.108	1	5
568.278	1	16
568.448	1	-3
568.618	1	-6
568.788	1	2
568.958	1	1
569.128	1	-9
569.297	1	1
569.467	1	-5
569.637	1	8
569.807	1	11
569.977	1	-4
570.147	1	-4
570.317	1	-3
570.487	1	3
570.656	1	-10
570.826	1	-3
570.996	1	-10
571.166	1	13
571.336	1	-2
571.506	1	14
571.676	1	9
571.846	1	1
572.015	1	-7
572.185	1	6
572.355	1	4
572.525	1	-3
572.695	1	-3
572.865	1	7
573.035	1	6
573.205	1	8
573.374	1	1
573.544	1	1
573.714	1	-2
573.884	1	-4
574.054	1	9
574.224	1	-4
574.394	1	-7
574.563	1	-1
574.733	1	-2
574.903	1	5
575.073	1	-2
575.243	1	-3
575.413	1	-6
575.583	1	5
575.752	1	5
575.922	1	-3
576.092	1	-8
576.262	1	-3
576.432	1	8
576.602	1	-1
576.772	1	6
576.941	1	4
577.111	1	3
577.281	1	-2
577.451	1	5
577.621	1	-7
577.791	1	2
577.960	1	-2
578.130	1	-4
578.300	1	-4
578.470	1	-1
578.640	1	4
578.810	1	-11
578.979	1	1
579.149	1	8
579.319	1	-3
579.489	1	-18
579.659	1	-7
579.829	1	0
579.998	1	3
580.168	1	5
580.338	1	1
580.508	1	16
580.678	1	-9
580.848	1	12
581.017	1	12
581.187	1	0
581.357	1	-5
581.527	1	1
581.697	1	0
581.867	1	-1
582.036	1	0
582.206	1	7
582.376	1	1
582.546	1	-11
582.716	1	-9
582.885	1	-12
583.055	1	4
583.225	1	-4
583.395	1	13
583.565	1	-2
583.735	1	7
583.904	1	1
584.074	1	-3
584.244	1	-13
584.414	1	-6
584.584	1	-5
584.753	1	10
584.923	1	1
585.093	1	7
585.263	1	3
585.433	1	-6
585.602	1	-3
585.772	1	-3
585.942	1	5
586.112	1	0
586.282	1	-1
586.451	1	7
586.621	1	9
586.791	1	4
586.961	1	-4
587.131	1	-7
587.300	1	5
587.470	1	-6
587.640	1	8
587.810	1	2
587.980	1	3
588.149	1	-1
588.319	1	4
588.489	1	2
588.659	1	3
588.829	1	5
588.998	1	3
589.168	1	5
589.338	1	8
589.508	1	-3
589.677	1	10
589.847	1	4
590.017	1	-10
590.187	1	-1
590.357	1	2
590.526	1	-6
590.696	1	-14
590.866	1	11
591.036	1	9
591.205	1	4
591.375	1	-1
591.545	1	-4
591.715	1	0
591.885	1	-9
592.054	1	-2
592.224	1	-5
592.394	1	-6
592.564	1	4
592.733	1	-4
592.903	1	5
593.073	1	0
593.243	1	8
593.412	1	1
593.582	1	1
593.752	1	-2
593.922	1	-1
594.091	1	2
594.261	1	4
594.431	1	6
594.601	1	-9
594.771	1	11
594.940	1	7
595.110	1	-2
595.280	1	3
595.450	1	6
595.619	1	4
595.789	1	9
595.959	1	2
596.129	1	7
596.298	1	2
596.468	1	2
596.638	1	2
596.808	1	5
596.977	1	0
597.147	1	-11
597.317	1	1
597.487	1	5
597.656	1	3
597.826	1	4
597.996	1	9
598.166	1	7
598.335	1	3
598.505	1	11
598.675	1	-2
598.844	1	-2
599.014	1	6
599.184	1	0
599.354	1	3
599.523	1	4
599.693	1	13
599.863	1	10
600.033	1	1
600.202	1	11
600.372	1	5
600.542	1	1
600.712	1	5
600.881	1	-6
601.051	1	4
601.221	1	7
601.390	1	-13
601.560	1	8
601.730	1	6
601.900	1	2
602.069	1	-2
602.239	1	2
602.409	1	8
602.578	1	-1
602.748	1	0
602.918	1	-6
603.088	1	17
603.257	1	6
603.427	1	0
603.597	1	8
603.767	1	5
603.936	1	0
604.106	1	0
604.276	1	15
604.445	1	3
604.615	1	2
604.785	1	4
604.954	1	9
605.124	1	2
605.294	1	3
605.464	1	3
605.633	1	5
605.803	1	4
605.973	1	5
606.142	1	4
606.312	1	-4
606.482	1	-1
606.652	1	-1
606.821	1	3
606.991	1	3
607.161	1	-1
607.330	1	-5
607.500	1	8
607.670	1	10
607.839	1	15
608.009	1	0
608.179	1	7
608.348	1	11
608.518	1	5
608.688	1	4
608.858	1	13
609.027	1	6
609.197	1	-9
609.367	1	18
609.536	1	6
609.706	1	8
609.876	1	8
610.045	1	1
610.215	1	-2
610.385	1	-8
610.554	1	-2
610.724	1	3
610.894	1	13
611.063	1	-2
611.233	1	1
611.403	1	-3
611.572	1	12
611.742	1	-2
611.912	1	6
612.081	1	-1
612.251	1	7
612.421	1	3
612.590	1	2
612.760	1	12
612.930	1	3
613.099	1	10
613.269	1	-3
613.439	1	-2
613.608	1	3
613.778	1	-5
613.948	1	10
614.117	1	16
614.287	1	2
614.457	1	-4
614.626	1	4
614.796	1	-4
614.966	1	6
615.135	1	15
615.305	1	11
615.475	1	5
615.644	1	-2
615.814	1	-4
615.984	1	5
616.153	1	7
616.323	1	2
616.493	1	21
616.662	1	12
616.832	1	6
617.002	1	-7
617.171	1	-5
617.341	1	4
617.511	1	2
617.680	1	11
617.850	1	-2
618.019	1	8
618.189	1	11
618.359	1	5
618.528	1	5
618.698	1	12
618.868	1	0
619.037	1	2
619.207	1	7
619.377	1	0
619.546	1	7
619.716	1	5
619.885	1	7
620.055	1	6
620.225	1	10
620.394	1	5
620.564	1	17
620.734	1	12
620.903	1	3
621.073	1	-7
621.242	1	3
621.412	1	6
621.582	1	13
621.751	1	8
621.921	1	6
622.091	1	6
622.260	1	1
622.430	1	-2
622.599	1	-3
622.769	1	8
622.939	1	12
623.108	1	5
623.278	1	8
623.448	1	8
623.617	1	3
623.787	1	5
623.956	1	1
624.126	1	17
624.296	1	-2
624.465	1	4
624.635	1	9
624.804	1	3
624.974	1	12
625.144	1	8
625.313	1	-2
625.483	1	15
625.652	1	10
625.822	1	-2
625.992	1	-3
626.161	1	5
626.331	1	-7
626.501	1	10
626.670	1	4
626.840	1	13
627.009	1	14
627.179	1	12
627.348	1	14
627.518	1	8
627.688	1	-3
627.857	1	5
628.027	1	-2
628.196	1	4
628.366	1	-3
628.536	1	5
628.705	1	-1
628.875	1	5
629.044	1	-4
629.214	1	2
629.384	1	9
629.553	1	2
629.723	1	-6
629.892	1	13
630.062	1	5
630.232	1	3
630.401	1	15
630.571	1	10
630.740	1	10
630.910	1	5
631.079	1	7
631.249	1	4
631.419	1	-6
631.588	1	1
631.758	1	6
631.927	1	-1
632.097	1	0
632.266	1	6
632.436	1	5
632.606	1	4
632.775	1	17
632.945	1	18
633.114	1	-1
633.284	1	-1
633.453	1	-2
633.623	1	5
633.793	1	5
633.962	1	6
634.132	1	4
634.301	1	1
634.471	1	4
634.640	1	7
634.810	1	7
634.979	1	3
635.149	1	-2
635.319	1	11
635.488	1	6
635.658	1	8
635.827	1	13
635.997	1	11
636.166	1	-1
636.336	1	2
636.505	1	12
636.675	1	18
636.845	1	1
637.014	1	-7
637.184	1	9
637.353	1	2
637.523	1	5
637.692	1	18
637.862	1	6
638.031	1	4
638.201	1	7
638.370	1	8
638.540	1	3
638.710	1	10
638.879	1	1
639.049	1	11
639.218	1	0
639.388	1	16
639.557	1	17
639.727	1	2
639.896	1	-1
640.066	1	12
640.235	1	8
640.405	1	16
640.574	1	8
640.744	1	9
640.914	1	4
641.083	1	17
641.253	1	11
641.422	1	5
641.592	1	5
641.761	1	4
641.931	1	0
642.100	1	-1
642.270	1	7
642.439	1	-1
642.609	1	5
642.778	1	-2
642.948	1	4
643.117	1	11
643.287	1	5
643.456	1	12
643.626	1	16
643.795	1	-2
643.965	1	6
644.134	1	10
644.304	1	13
644.473	1	6
644.643	1	3
644.812	1	18
644.982	1	12
645.151	1	20
645.321	1	7
645.490	1	-2
645.660	1	0
645.829	1	5
645.999	1	9
646.168	1	-1
646.338	1	-1
646.507	1	6
646.677	1	9
646.846	1	14
647.016	1	9
647.185	1	0
647.355	1	9
647.524	1	9
647.694	1	12
647.863	1	1
648.033	1	-4
648.202	1	1
648.372	1	13
648.541	1	17
648.711	1	11
648.880	1	5
649.050	1	0
649.219	1	-7
649.389	1	4
649.558	1	-3
649.728	1	-1
649.897	1	9
650.067	1	4
650.236	1	17
650.406	1	5
650.575	1	5
650.745	1	8
650.914	1	8
651.084	1	-6
651.253	1	12
651.423	1	1
651.592	1	4
651.762	1	7
651.931	1	6
652.101	1	-1
652.270	1	9
652.440	1	1
652.609	1	3
652.778	1	0
652.948	1	1
653.117	1	-2
653.287	1	10
653.456	1	17
653.626	1	-3
653.795	1	11
653.965	1	7
654.134	1	6
654.304	1	5
654.473	1	-5
654.643	1	9
654.812	1	9
654.982	1	8
655.151	1	5
655.320	1	11
655.490	1	8
655.659	1	0
655.829	1	9
655.998	1	-11
656.168	1	2
656.337	1	15
656.507	1	3
656.676	1	7
656.846	1	5
657.015	1	-7
657.184	1	2
657.354	1	5
657.523	1	7
657.693	1	0
657.862	1	12
658.032	1	-1
658.201	1	3
658.371	1	0
658.540	1	-4
658.709	1	4
658.879	1	-2
659.048	1	-2
659.218	1	9
659.387	1	4
659.557	1	11
659.726	1	2
659.895	1	0
660.065	1	-12
660.234	1	4
660.404	1	11
660.573	1	4
660.743	1	17
660.912	1	10
661.081	1	18
661.251	1	-1
661.420	1	9
661.590	1	-2
661.759	1	5
661.929	1	0
662.098	1	-3
662.267	1	11
662.437	1	10
662.606	1	12
662.776	1	-3
662.945	1	-7
663.115	1	11
663.284	1	9
663.453	1	2
663.623	1	11
663.792	1	20
663.962	1	6
664.131	1	15
664.300	1	11
664.470	1	9
664.639	1	7
664.809	1	2
664.978	1	0
665.148	1	4
665.317	1	3
665.486	1	3
665.656	1	4
665.825	1	13
665.995	1	6
666.164	1	5
666.333	1	15
666.503	1	12
666.672	1	7
666.842	1	-6
667.011	1	3
667.180	1	3
667.350	1	4
667.519	1	7
667.689	1	-4
667.858	1	6
668.027	1	12
668.197	1	8
668.366	1	-2
668.536	1	7
668.705	1	1
668.874	1	12
669.044	1	8
669.213	1	4
669.382	1	-1
669.552	1	13
669.721	1	11
669.891	1	10
670.060	1	13
670.229	1	3
670.399	1	-2
670.568	1	2
670.738	1	-1
670.907	1	3
671.076	1	13
671.246	1	16
671.415	1	12
671.584	1	1
671.754	1	5
671.923	1	7
672.093	1	13
672.262	1	4
672.431	1	-6
672.601	1	1
672.770	1	7
672.939	1	-1
673.109	1	5
673.278	1	8
673.448	1	2
673.617	1	-11
673.786	1	7
