325.333	1	4
325.504	1	5
325.675	1	-3
325.846	1	-6
326.017	1	3
326.188	1	-7
326.359	1	-1
326.531	1	-2
326.702	1	-5
326.873	1	7
327.044	1	2
327.215	1	5
327.386	1	-7
327.557	1	-3
327.728	1	2
327.899	1	6
328.070	1	6
328.241	1	-8
328.412	1	8
328.583	1	3
328.754	1	1
328.926	1	-7
329.097	1	-3
329.268	1	-5
329.439	1	0
329.610	1	6
329.781	1	-10
329.952	1	8
330.123	1	5
330.294	1	-6
330.465	1	-2
330.636	1	4
330.807	1	-3
330.978	1	-1
331.149	1	1
331.320	1	-2
331.492	1	5
331.663	1	3
331.834	1	3
332.005	1	7
332.176	1	-1
332.347	1	12
332.518	1	4
332.689	1	6
332.860	1	2
333.031	1	-7
333.202	1	-12
333.373	1	5
333.544	1	0
333.715	1	1
333.886	1	2
334.057	1	1
334.228	1	0
334.399	1	7
334.570	1	-7
334.741	1	6
334.912	1	4
335.084	1	-10
335.255	1	0
335.426	1	-2
335.597	1	2
335.768	1	5
335.939	1	0
336.110	1	-3
336.281	1	3
336.452	1	9
336.623	1	-2
336.794	1	-1
336.965	1	-5
337.136	1	2
337.307	1	-8
337.478	1	-1
337.649	1	1
337.820	1	-2
337.991	1	5
338.162	1	-5
338.333	1	3
338.504	1	1
338.675	1	5
338.846	1	-5
339.017	1	5
339.188	1	-3
339.359	1	-6
339.530	1	8
339.701	1	-7
339.872	1	5
340.043	1	-9
340.214	1	-8
340.385	1	-12
340.556	1	6
340.727	1	3
340.898	1	9
341.069	1	5
341.240	1	2
341.411	1	-8
341.582	1	10
341.753	1	-8
341.924	1	-5
342.095	1	-1
342.266	1	3
342.437	1	7
342.608	1	5
342.779	1	1
342.950	1	2
343.121	1	6
343.292	1	6
343.463	1	0
343.634	1	-6
343.805	1	1
343.976	1	-2
344.147	1	2
344.318	1	-6
344.489	1	4
344.660	1	-1
344.831	1	12
345.002	1	0
345.173	1	-1
345.344	1	-2
345.515	1	-5
345.686	1	10
345.857	1	-1
346.028	1	0
346.199	1	-8
346.370	1	6
346.541	1	-4
346.712	1	0
346.883	1	-4
347.054	1	-10
347.225	1	10
347.396	1	-11
347.567	1	4
347.738	1	-6
347.909	1	0
348.080	1	10
348.251	1	3
348.422	1	9
348.593	1	-12
348.764	1	1
348.935	1	5
349.106	1	-3
349.277	1	-8
349.448	1	1
349.619	1	0
349.790	1	7
349.961	1	10
350.132	1	2
350.303	1	-1
350.474	1	-8
350.645	1	5
350.816	1	-6
350.987	1	4
351.157	1	1
351.328	1	7
351.499	1	6
351.670	1	-5
351.841	1	12
352.012	1	15
352.183	1	7
352.354	1	-8
352.525	1	3
352.696	1	9
352.867	1	0
353.038	1	-7
353.209	1	3
353.380	1	-2
353.551	1	-8
353.722	1	0
353.893	1	-10
354.064	1	3
354.235	1	0
354.406	1	6
354.576	1	1
354.747	1	-1
354.918	1	2
355.089	1	14
355.260	1	16
355.431	1	7
355.602	1	3
355.773	1	-6
355.944	1	-9
356.115	1	11
356.286	1	3
356.457	1	-2
356.628	1	-3
356.799	1	-3
356.970	1	2
357.141	1	-1
357.311	1	6
357.482	1	2
357.653	1	0
357.824	1	3
357.995	1	0
358.166	1	-5
358.337	1	4
358.508	1	1
358.679	1	7
358.850	1	0
359.021	1	6
359.192	1	4
359.363	1	4
359.533	1	-4
359.704	1	3
359.875	1	6
360.046	1	11
360.217	1	4
360.388	1	0
360.559	1	8
360.730	1	-4
360.901	1	2
361.072	1	4
361.243	1	9
361.414	1	-4
361.584	1	-9
361.755	1	2
361.926	1	2
362.097	1	-5
362.268	1	-4
362.439	1	8
362.610	1	-4
362.781	1	3
362.952	1	6
363.123	1	8
363.293	1	-1
363.464	1	-1
363.635	1	8
363.806	1	-10
363.977	1	0
364.148	1	-4
364.319	1	-1
364.490	1	14
364.661	1	5
364.832	1	7
365.002	1	7
365.173	1	-3
365.344	1	5
365.515	1	-2
365.686	1	-12
365.857	1	7
366.028	1	4
366.199	1	-3
366.370	1	7
366.540	1	-6
366.711	1	1
366.882	1	-10
367.053	1	-13
367.224	1	-2
367.395	1	1
367.566	1	-9
367.737	1	8
367.908	1	-11
368.078	1	12
368.249	1	4
368.420	1	-6
368.591	1	6
368.762	1	-4
368.933	1	-4
369.104	1	8
369.274	1	-11
369.445	1	5
369.616	1	4
369.787	1	13
369.958	1	2
370.129	1	-12
370.300	1	0
370.471	1	-3
370.641	1	-5
370.812	1	1
370.983	1	-2
371.154	1	-8
371.325	1	4
371.496	1	4
371.667	1	6
371.837	1	7
372.008	1	-11
372.179	1	-11
372.350	1	-6
372.521	1	2
372.692	1	-2
372.863	1	-4
373.033	1	6
373.204	1	-12
373.375	1	5
373.546	1	18
373.717	1	-6
373.888	1	11
374.059	1	6
374.229	1	-5
374.400	1	-5
374.571	1	0
374.742	1	-4
374.913	1	3
375.084	1	-2
375.254	1	2
375.425	1	-7
375.596	1	4
375.767	1	12
375.938	1	3
376.109	1	7
376.279	1	0
376.450	1	7
376.621	1	-4
376.792	1	-5
376.963	1	-1
377.134	1	11
377.304	1	3
377.475	1	3
377.646	1	-2
377.817	1	-4
377.988	1	-10
378.159	1	15
378.329	1	3
378.500	1	-5
378.671	1	0
378.842	1	-5
379.013	1	-3
379.184	1	-2
379.354	1	2
379.525	1	0
379.696	1	10
379.867	1	2
380.038	1	9
380.209	1	2
380.379	1	2
380.550	1	8
380.721	1	-6
380.892	1	1
381.063	1	3
381.233	1	0
381.404	1	0
381.575	1	-1
381.746	1	10
381.917	1	4
382.087	1	9
382.258	1	9
382.429	1	6
382.600	1	6
382.771	1	2
382.941	1	6
383.112	1	-3
383.283	1	6
383.454	1	-10
383.625	1	-12
383.795	1	8
383.966	1	-8
384.137	1	-1
384.308	1	3
384.479	1	-1
384.649	1	-4
384.820	1	12
384.991	1	-2
385.162	1	0
385.333	1	-1
385.503	1	-7
385.674	1	-7
385.845	1	4
386.016	1	2
386.187	1	2
386.357	1	1
386.528	1	-1
386.699	1	-2
386.870	1	-1
387.041	1	10
387.211	1	-3
387.382	1	-1
387.553	1	8
387.724	1	6
387.894	1	-2
388.065	1	-3
388.236	1	-6
388.407	1	-2
388.578	1	0
388.748	1	-3
388.919	1	4
389.090	1	1
389.261	1	0
389.431	1	0
389.602	1	10
389.773	1	9
389.944	1	6
390.114	1	8
390.285	1	-15
390.456	1	-8
390.627	1	-8
390.798	1	1
390.968	1	8
391.139	1	-9
391.310	1	-6
391.481	1	4
391.651	1	10
391.822	1	0
391.993	1	3
392.164	1	-4
392.334	1	-1
392.505	1	4
392.676	1	9
392.847	1	1
393.017	1	7
393.188	1	9
393.359	1	4
393.530	1	3
393.700	1	-14
393.871	1	-11
394.042	1	0
394.213	1	-5
394.383	1	1
394.554	1	8
394.725	1	1
394.896	1	7
395.066	1	2
395.237	1	0
395.408	1	3
395.579	1	-9
395.749	1	-4
395.920	1	-11
396.091	1	4
396.262	1	-1
396.432	1	-8
396.603	1	5
396.774	1	-1
396.945	1	9
397.115	1	-8
397.286	1	-5
397.457	1	0
397.627	1	-11
397.798	1	1
397.969	1	8
398.140	1	5
398.310	1	-4
398.481	1	-3
398.652	1	1
398.823	1	-3
398.993	1	1
399.164	1	9
399.335	1	3
399.505	1	4
399.676	1	-6
399.847	1	-6
400.018	1	2
400.188	1	0
400.359	1	-4
400.530	1	1
400.700	1	0
400.871	1	-3
401.042	1	-1
401.213	1	-2
401.383	1	-1
401.554	1	0
401.725	1	1
401.895	1	1
402.066	1	-12
402.237	1	11
402.408	1	-2
402.578	1	-4
402.749	1	-3
402.920	1	5
403.090	1	-9
403.261	1	5
403.432	1	-8
403.603	1	-4
403.773	1	13
403.944	1	-2
404.115	1	-13
404.285	1	-5
404.456	1	1
404.627	1	-2
404.797	1	-3
404.968	1	2
405.139	1	-3
405.310	1	13
405.480	1	9
405.651	1	-1
405.822	1	6
405.992	1	-7
406.163	1	15
406.334	1	2
406.504	1	6
406.675	1	7
406.846	1	12
407.016	1	3
407.187	1	6
407.358	1	7
407.528	1	0
407.699	1	-15
407.870	1	12
408.041	1	3
408.211	1	-1
408.382	1	7
408.553	1	8
408.723	1	7
408.894	1	-9
409.065	1	11
409.235	1	-5
409.406	1	-7
409.577	1	-9
409.747	1	0
409.918	1	0
410.089	1	8
410.259	1	-8
410.430	1	0
410.601	1	8
410.771	1	5
410.942	1	-1
411.113	1	3
411.283	1	0
411.454	1	11
411.625	1	-3
411.795	1	-9
411.966	1	10
412.137	1	5
412.307	1	3
412.478	1	5
412.649	1	5
412.819	1	6
412.990	1	2
413.161	1	9
413.331	1	-2
413.502	1	0
413.672	1	3
413.843	1	-4
414.014	1	10
414.184	1	4
414.355	1	9
414.526	1	-1
414.696	1	4
414.867	1	3
415.038	1	6
415.208	1	3
415.379	1	2
415.550	1	10
415.720	1	-5
415.891	1	8
416.062	1	-3
416.232	1	-1
416.403	1	-5
416.573	1	10
416.744	1	0
416.915	1	14
417.085	1	2
417.256	1	-3
417.427	1	-3
417.597	1	2
417.768	1	1
417.939	1	0
418.109	1	2
418.280	1	-8
418.450	1	6
418.621	1	2
418.792	1	7
418.962	1	-2
419.133	1	1
419.304	1	-7
419.474	1	-10
419.645	1	1
419.815	1	-4
419.986	1	5
420.157	1	2
420.327	1	-5
420.498	1	5
420.669	1	1
420.839	1	-8
421.010	1	4
421.180	1	2
421.351	1	12
421.522	1	1
421.692	1	8
421.863	1	5
422.033	1	-11
422.204	1	1
422.375	1	-4
422.545	1	3
422.716	1	2
422.886	1	-8
423.057	1	4
423.228	1	-1
423.398	1	5
423.569	1	4
423.740	1	10
423.910	1	-4
424.081	1	-5
424.251	1	-9
424.422	1	-2
424.593	1	-1
424.763	1	10
424.934	1	0
425.104	1	-6
425.275	1	10
425.445	1	-5
425.616	1	13
425.787	1	4
425.957	1	5
426.128	1	-2
426.298	1	10
426.469	1	-4
426.640	1	-3
426.810	1	14
426.981	1	-3
427.151	1	2
427.322	1	0
427.493	1	5
427.663	1	5
427.834	1	0
428.004	1	-7
428.175	1	13
428.345	1	-5
428.516	1	7
428.687	1	10
428.857	1	-5
429.028	1	5
429.198	1	3
429.369	1	-1
429.540	1	-3
429.710	1	7
429.881	1	-2
430.051	1	2
430.222	1	-9
430.392	1	-7
430.563	1	3
430.734	1	4
430.904	1	-1
431.075	1	7
431.245	1	0
431.416	1	8
431.586	1	1
431.757	1	-8
431.927	1	14
432.098	1	-15
432.269	1	2
432.439	1	9
432.610	1	13
432.780	1	0
432.951	1	1
433.121	1	9
433.292	1	-6
433.462	1	-6
433.633	1	-6
433.804	1	-9
433.974	1	9
434.145	1	-12
434.315	1	-1
434.486	1	11
434.656	1	9
434.827	1	-1
434.997	1	-4
435.168	1	0
435.339	1	-1
435.509	1	-5
435.680	1	2
435.850	1	-6
436.021	1	11
436.191	1	5
436.362	1	0
436.532	1	3
436.703	1	0
436.873	1	3
437.044	1	-5
437.214	1	-6
437.385	1	-8
437.556	1	2
437.726	1	5
437.897	1	-1
438.067	1	7
438.238	1	-3
438.408	1	-10
438.579	1	-7
438.749	1	-4
438.920	1	7
439.090	1	-2
439.261	1	2
439.431	1	2
439.602	1	-2
439.772	1	-6
439.943	1	-1
440.113	1	2
440.284	1	-5
440.455	1	-4
440.625	1	16
440.796	1	-1
440.966	1	-12
441.137	1	1
441.307	1	-5
441.478	1	0
441.648	1	-12
441.819	1	3
441.989	1	0
442.160	1	-6
442.330	1	-2
442.501	1	1
442.671	1	-3
442.842	1	10
443.012	1	2
443.183	1	-4
443.353	1	5
443.524	1	-7
443.694	1	3
443.865	1	11
444.035	1	-3
444.206	1	0
444.376	1	-3
444.547	1	7
444.717	1	-9
444.888	1	7
445.058	1	-3
445.229	1	0
445.399	1	-14
445.570	1	-3
445.740	1	-1
445.911	1	9
446.081	1	10
446.252	1	-3
446.422	1	1
446.593	1	-6
446.763	1	2
446.934	1	6
447.104	1	4
447.275	1	6
447.445	1	-4
447.616	1	5
447.786	1	4
447.957	1	-8
448.127	1	7
448.298	1	-4
448.468	1	-7
448.639	1	-3
448.809	1	4
448.979	1	-8
449.150	1	-2
449.320	1	0
449.491	1	5
449.661	1	10
449.832	1	-2
450.002	1	1
450.173	1	-8
450.343	1	4
450.514	1	-3
450.684	1	0
450.855	1	9
451.025	1	0
451.196	1	-3
451.366	1	5
451.537	1	7
451.707	1	11
451.878	1	-11
452.048	1	-3
452.218	1	-1
452.389	1	-5
452.559	1	-10
452.730	1	-4
452.900	1	-8
453.071	1	1
453.241	1	8
453.412	1	-8
453.582	1	1
453.753	1	-11
453.923	1	3
454.093	1	0
454.264	1	7
454.434	1	4
454.605	1	8
454.775	1	0
454.946	1	10
455.116	1	4
455.287	1	1
455.457	1	0
455.628	1	-13
455.798	1	1
455.968	1	-1
456.139	1	-6
456.309	1	7
456.480	1	4
456.650	1	11
456.821	1	7
456.991	1	-1
457.161	1	-2
457.332	1	-1
457.502	1	-10
457.673	1	1
457.843	1	1
458.014	1	-1
458.184	1	-4
458.355	1	-4
458.525	1	3
458.695	1	3
458.866	1	3
459.036	1	-3
459.207	1	5
459.377	1	6
459.548	1	-4
459.718	1	0
459.888	1	6
460.059	1	3
460.229	1	-8
460.400	1	7
460.570	1	4
460.740	1	-12
460.911	1	3
461.081	1	-7
461.252	1	1
461.422	1	0
461.593	1	-4
461.763	1	10
461.933	1	2
462.104	1	5
462.274	1	-3
462.445	1	-7
462.615	1	-1
462.785	1	-10
462.956	1	1
463.126	1	-4
463.297	1	2
463.467	1	11
463.638	1	-1
463.808	1	-8
463.978	1	6
464.149	1	-2
464.319	1	-6
464.490	1	1
464.660	1	-6
464.830	1	-6
465.001	1	18
465.171	1	-4
465.342	1	1
465.512	1	7
465.682	1	11
465.853	1	2
466.023	1	3
466.194	1	-5
466.364	1	11
466.534	1	0
466.705	1	-1
466.875	1	-1
467.045	1	1
467.216	1	4
467.386	1	5
467.557	1	-12
467.727	1	-4
467.897	1	-4
468.068	1	6
468.238	1	9
468.409	1	-1
468.579	1	-8
468.749	1	0
468.920	1	-15
469.090	1	-4
469.260	1	-9
469.431	1	-9
469.601	1	-6
469.772	1	1
469.942	1	7
470.112	1	4
470.283	1	1
470.453	1	7
470.623	1	3
470.794	1	-4
470.964	1	-13
471.135	1	-3
471.305	1	0
471.475	1	1
471.646	1	1
471.816	1	5
471.986	1	0
472.157	1	-4
472.327	1	2
472.497	1	-6
472.668	1	-5
472.838	1	-7
473.009	1	9
473.179	1	2
473.349	1	0
473.520	1	5
473.690	1	6
473.860	1	2
474.031	1	4
474.201	1	4
474.371	1	-3
474.542	1	7
474.712	1	-6
474.882	1	5
475.053	1	1
475.223	1	9
475.394	1	7
475.564	1	0
475.734	1	-6
475.905	1	10
476.075	1	-2
476.245	1	3
476.416	1	-7
476.586	1	7
476.756	1	11
476.927	1	2
477.097	1	5
477.267	1	0
477.438	1	-14
477.608	1	-4
477.778	1	11
477.949	1	-5
478.119	1	0
478.289	1	3
478.460	1	6
478.630	1	-5
478.800	1	0
478.971	1	9
479.141	1	-6
479.311	1	3
479.482	1	1
479.652	1	-2
479.822	1	-2
479.993	1	-5
480.163	1	3
480.333	1	4
480.504	1	12
480.674	1	-10
480.844	1	7
481.015	1	0
481.185	1	0
481.355	1	2
481.525	1	1
481.696	1	4
481.866	1	-1
482.036	1	0
482.207	1	-1
482.377	1	6
482.547	1	-2
482.718	1	0
482.888	1	-5
483.058	1	3
483.229	1	4
483.399	1	8
483.569	1	3
483.740	1	-2
483.910	1	-6
484.080	1	5
484.250	1	-3
484.421	1	4
484.591	1	-7
484.761	1	-3
484.932	1	6
485.102	1	-3
485.272	1	-1
485.443	1	-5
485.613	1	-3
485.783	1	-8
485.953	1	-7
486.124	1	-14
486.294	1	0
486.464	1	1
486.635	1	-3
486.805	1	-5
486.975	1	3
487.146	1	-10
487.316	1	6
487.486	1	1
487.656	1	-5
487.827	1	5
487.997	1	-7
488.167	1	9
488.338	1	-12
488.508	1	1
488.678	1	-3
488.848	1	4
489.019	1	7
489.189	1	10
489.359	1	-1
489.529	1	-4
489.700	1	-3
489.870	1	-8
490.040	1	-8
490.211	1	-1
490.381	1	5
490.551	1	-11
490.721	1	5
490.892	1	5
491.062	1	8
491.232	1	-6
491.402	1	-2
491.573	1	5
491.743	1	2
491.913	1	-3
492.084	1	6
492.254	1	11
492.424	1	6
492.594	1	8
492.765	1	-2
492.935	1	4
493.105	1	1
493.275	1	2
493.446	1	6
493.616	1	-6
493.786	1	8
493.956	1	-1
494.127	1	-9
494.297	1	8
494.467	1	-1
494.637	1	8
494.808	1	-9
494.978	1	-8
495.148	1	-5
495.318	1	0
495.489	1	8
495.659	1	9
495.829	1	2
495.999	1	3
496.170	1	-1
496.340	1	15
496.510	1	-10
496.680	1	-6
496.851	1	-13
497.021	1	-10
497.191	1	-5
497.361	1	-2
497.532	1	-1
497.702	1	9
497.872	1	2
498.042	1	1
498.213	1	-3
498.383	1	8
498.553	1	-1
498.723	1	-6
498.894	1	4
499.064	1	5
499.234	1	-7
499.404	1	10
499.574	1	-1
499.745	1	-3
499.915	1	-5
500.085	1	-1
500.255	1	10
500.426	1	0
500.596	1	4
500.766	1	-2
500.936	1	4
501.106	1	5
501.277	1	8
501.447	1	0
501.617	1	-5
501.787	1	1
501.958	1	3
502.128	1	10
502.298	1	0
502.468	1	7
502.638	1	2
502.809	1	-7
502.979	1	-10
503.149	1	14
503.319	1	-1
503.489	1	-3
503.660	1	-6
503.830	1	-4
504.000	1	3
504.170	1	5
504.340	1	-2
504.511	1	7
504.681	1	5
504.851	1	1
505.021	1	-4
505.192	1	-4
505.362	1	0
505.532	1	-2
505.702	1	-2
505.872	1	6
506.043	1	-12
506.213	1	-2
506.383	1	9
506.553	1	-9
506.723	1	6
506.893	1	4
507.064	1	3
507.234	1	-4
507.404	1	9
507.574	1	-1
507.744	1	6
507.915	1	-5
508.085	1	-13
508.255	1	-1
508.425	1	-5
508.595	1	2
508.766	1	-9
508.936	1	17
509.106	1	0
509.276	1	10
509.446	1	-1
509.616	1	-2
509.787	1	4
509.957	1	1
510.127	1	-2
510.297	1	10
510.467	1	-1
510.638	1	-2
510.808	1	-10
510.978	1	11
511.148	1	13
511.318	1	0
511.488	1	6
511.659	1	6
511.829	1	3
511.999	1	-5
512.169	1	-5
512.339	1	-9
512.509	1	4
512.680	1	-6
512.850	1	2
513.020	1	3
513.190	1	4
513.360	1	-7
513.530	1	2
513.700	1	-5
513.871	1	2
514.041	1	1
514.211	1	-2
514.381	1	4
514.551	1	-10
514.721	1	-3
514.892	1	-2
515.062	1	14
515.232	1	3
515.402	1	12
515.572	1	-1
515.742	1	8
515.912	1	2
516.083	1	2
516.253	1	-2
516.423	1	-12
516.593	1	0
516.763	1	1
516.933	1	5
517.104	1	-8
517.274	1	6
517.444	1	1
517.614	1	-4
517.784	1	-7
517.954	1	3
518.124	1	-3
518.294	1	1
518.465	1	9
518.635	1	4
518.805	1	-6
518.975	1	-1
519.145	1	3
519.315	1	-7
519.485	1	9
519.656	1	-4
519.826	1	-6
519.996	1	5
520.166	1	4
520.336	1	-3
520.506	1	0
520.676	1	8
520.846	1	-5
521.017	1	3
521.187	1	-3
521.357	1	5
521.527	1	-6
521.697	1	-1
521.867	1	-4
522.037	1	2
522.207	1	8
522.377	1	1
522.548	1	6
522.718	1	5
522.888	1	-1
523.058	1	3
523.228	1	-6
523.398	1	2
523.568	1	-5
523.738	1	-2
523.909	1	9
524.079	1	-3
524.249	1	0
524.419	1	2
524.589	1	3
524.759	1	0
524.929	1	-1
525.099	1	-16
525.269	1	-5
525.439	1	7
525.610	1	-8
525.780	1	6
525.950	1	11
526.120	1	0
526.290	1	0
526.460	1	6
526.630	1	4
526.800	1	1
526.970	1	9
527.140	1	8
527.311	1	7
527.481	1	-8
527.651	1	5
527.821	1	4
527.991	1	0
528.161	1	-6
528.331	1	4
528.501	1	-7
528.671	1	3
528.841	1	14
529.011	1	-6
529.181	1	4
529.352	1	5
529.522	1	8
529.692	1	-2
529.862	1	-4
530.032	1	1
530.202	1	6
530.372	1	10
530.542	1	-9
530.712	1	6
530.882	1	3
531.052	1	-2
531.222	1	-8
531.392	1	2
531.563	1	-3
531.733	1	5
531.903	1	8
532.073	1	7
532.243	1	6
532.413	1	-2
532.583	1	5
532.753	1	4
532.923	1	3
533.093	1	8
533.263	1	0
533.433	1	3
533.603	1	-6
533.773	1	11
533.943	1	2
534.113	1	4
534.284	1	-4
534.454	1	0
534.624	1	9
534.794	1	1
534.964	1	-4
535.134	1	8
535.304	1	6
535.474	1	7
535.644	1	9
535.814	1	1
535.984	1	10
536.154	1	7
536.324	1	-5
536.494	1	-8
536.664	1	3
536.834	1	6
537.004	1	2
537.174	1	2
537.344	1	6
537.514	1	-5
537.685	1	4
537.855	1	-1
538.025	1	-3
538.195	1	2
538.365	1	6
538.535	1	-4
538.705	1	-6
538.875	1	-4
539.045	1	3
539.215	1	4
539.385	1	-7
539.555	1	-6
539.725	1	-4
539.895	1	4
540.065	1	1
540.235	1	8
540.405	1	-5
540.575	1	-1
540.745	1	1
540.915	1	2
541.085	1	-2
541.255	1	3
541.425	1	-4
541.595	1	9
541.765	1	14
541.935	1	-1
542.105	1	5
542.275	1	14
542.445	1	1
542.615	1	2
542.785	1	-4
542.955	1	-11
543.125	1	1
543.295	1	13
543.465	1	-8
543.635	1	-5
543.805	1	2
543.975	1	-7
544.145	1	7
544.315	1	-11
544.485	1	1
544.655	1	-5
544.825	1	-9
544.995	1	10
545.165	1	7
545.335	1	-11
545.505	1	3
545.675	1	-13
545.845	1	10
546.015	1	6
546.185	1	-4
546.355	1	1
546.525	1	-2
546.695	1	2
546.865	1	12
547.035	1	-4
547.205	1	7
547.375	1	-3
547.545	1	-5
547.715	1	8
547.885	1	7
548.055	1	1
548.225	1	1
548.395	1	-6
548.565	1	2
548.735	1	-7
548.905	1	1
549.075	1	7
549.245	1	-4
549.415	1	-5
549.585	1	0
549.755	1	8
549.925	1	2
550.095	1	-5
550.265	1	9
550.435	1	-2
550.605	1	11
550.775	1	1
550.945	1	-5
551.115	1	-3
551.285	1	4
551.455	1	-11
551.625	1	-10
551.795	1	-7
551.965	1	0
552.135	1	-1
552.305	1	-1
552.475	1	-2
552.645	1	-6
552.815	1	11
552.985	1	0
553.155	1	2
553.325	1	-17
553.495	1	2
553.665	1	-4
553.835	1	-4
554.004	1	13
554.174	1	2
554.344	1	-2
554.514	1	4
554.684	1	-3
554.854	1	-7
555.024	1	2
555.194	1	-2
555.364	1	7
555.534	1	-6
555.704	1	4
555.874	1	-1
556.044	1	1
556.214	1	6
556.384	1	-1
556.554	1	-4
556.724	1	2
556.894	1	-6
557.064	1	4
557.234	1	-9
557.404	1	-5
557.573	1	-3
557.743	1	-9
557.913	1	7
558.083	1	-5
558.253	1	-5
558.423	1	8
558.593	1	-2
558.763	1	10
558.933	1	-8
559.103	1	14
559.273	1	-1
559.443	1	-5
559.613	1	0
559.783	1	-1
559.953	1	-2
560.122	1	4
560.292	1	5
560.462	1	-2
560.632	1	1
560.802	1	4
560.972	1	-4
561.142	1	1
561.312	1	3
561.482	1	0
561.652	1	-2
561.822	1	-6
561.992	1	1
562.162	1	4
562.331	1	5
562.501	1	-2
562.671	1	3
562.841	1	-9
563.011	1	9
563.181	1	6
563.351	1	7
563.521	1	0
563.691	1	7
563.861	1	1
564.031	1	-11
564.201	1	3
564.370	1	0
564.540	1	-2
564.710	1	14
564.880	1	4
565.050	1	10
565.220	1	-2
565.390	1	4
565.560	1	11
565.730	1	2
565.900	1	8
566.069	1	-2
566.239	1	-10
566.409	1	-17
566.579	1	-2
566.749	1	-4
566.919	1	-4
567.089	1	-2
567.259	1	0
567.429	1	-3
567.599	1	7
567.768	1	2
567.938	1	-14
568.108	1	-1
568.278	1	5
568.448	1	4
568.618	1	5
568.788	1	-1
568.958	1	-7
569.128	1	1
569.297	1	-1
569.467	1	-1
569.637	1	-2
569.807	1	-4
569.977	1	0
570.147	1	3
570.317	1	-9
570.487	1	-4
570.656	1	-12
570.826	1	-1
570.996	1	-3
571.166	1	7
571.336	1	-10
571.506	1	2
571.676	1	6
571.846	1	4
572.015	1	1
572.185	1	2
572.355	1	-6
572.525	1	-7
572.695	1	0
572.865	1	-10
573.035	1	4
573.205	1	9
573.374	1	4
573.544	1	4
573.714	1	-9
573.884	1	0
574.054	1	5
574.224	1	1
574.394	1	-4
574.563	1	8
574.733	1	2
574.903	1	9
575.073	1	9
575.243	1	2
575.413	1	-3
575.583	1	-1
575.752	1	0
575.922	1	-5
576.092	1	-2
576.262	1	3
576.432	1	1
576.602	1	6
576.772	1	0
576.941	1	9
577.111	1	-1
577.281	1	5
577.451	1	3
577.621	1	-7
577.791	1	0
577.960	1	-4
578.130	1	-7
578.300	1	-4
578.470	1	-5
578.640	1	5
578.810	1	6
578.979	1	7
579.149	1	5
579.319	1	0
579.489	1	-11
579.659	1	-6
579.829	1	6
579.998	1	-8
580.168	1	5
580.338	1	6
580.508	1	3
580.678	1	5
580.848	1	11
581.017	1	2
581.187	1	9
581.357	1	-1
581.527	1	3
581.697	1	-4
581.867	1	9
582.036	1	-10
582.206	1	4
582.376	1	-1
582.546	1	-12
582.716	1	-9
582.885	1	-9
583.055	1	-2
583.225	1	-1
583.395	1	5
583.565	1	10
583.735	1	1
583.904	1	9
584.074	1	-13
584.244	1	-3
584.414	1	-1
584.584	1	-4
584.753	1	3
584.923	1	-1
585.093	1	2
585.263	1	-1
585.433	1	1
585.602	1	-2
585.772	1	-5
585.942	1	7
586.112	1	-1
586.282	1	5
586.451	1	4
586.621	1	9
586.791	1	0
586.961	1	0
587.131	1	-11
587.300	1	-2
587.470	1	0
587.640	1	10
587.810	1	10
587.980	1	-2
588.149	1	1
588.319	1	-2
588.489	1	5
588.659	1	6
588.829	1	0
588.998	1	1
589.168	1	2
589.338	1	8
589.508	1	6
589.677	1	2
589.847	1	10
590.017	1	1
590.187	1	6
590.357	1	6
590.526	1	4
590.696	1	-6
590.866	1	7
591.036	1	2
591.205	1	4
591.375	1	-8
591.545	1	0
591.715	1	-2
591.885	1	1
592.054	1	-1
592.224	1	3
592.394	1	-2
592.564	1	-5
592.733	1	-9
592.903	1	1
593.073	1	-7
593.243	1	13
593.412	1	6
593.582	1	-1
593.752	1	9
593.922	1	-5
594.091	1	-6
594.261	1	-5
594.431	1	14
594.601	1	-3
594.771	1	11
594.940	1	6
595.110	1	0
595.280	1	-6
595.450	1	8
595.619	1	-6
595.789	1	1
595.959	1	9
596.129	1	-15
596.298	1	9
596.468	1	2
596.638	1	4
596.808	1	5
596.977	1	4
597.147	1	-10
597.317	1	-1
597.487	1	2
597.656	1	5
597.826	1	5
597.996	1	9
598.166	1	5
598.335	1	6
598.505	1	3
598.675	1	-8
598.844	1	-1
599.014	1	6
599.184	1	0
599.354	1	1
599.523	1	7
599.693	1	1
599.863	1	5
600.033	1	4
600.202	1	6
600.372	1	-5
600.542	1	-3
600.712	1	6
600.881	1	-11
601.051	1	-3
601.221	1	8
601.390	1	-14
601.560	1	13
601.730	1	9
601.900	1	3
602.069	1	0
602.239	1	4
602.409	1	7
602.578	1	2
602.748	1	-3
602.918	1	6
603.088	1	7
603.257	1	6
603.427	1	-1
603.597	1	5
603.767	1	6
603.936	1	-8
604.106	1	-3
604.276	1	2
604.445	1	6
604.615	1	15
604.785	1	11
604.954	1	5
605.124	1	-6
605.294	1	4
605.464	1	7
605.633	1	0
605.803	1	4
605.973	1	-1
606.142	1	-5
606.312	1	1
606.482	1	-3
606.652	1	-3
606.821	1	-3
606.991	1	-9
607.161	1	-4
607.330	1	-8
607.500	1	2
607.670	1	6
607.839	1	18
608.009	1	0
608.179	1	3
608.348	1	2
608.518	1	1
608.688	1	-8
608.858	1	6
609.027	1	-3
609.197	1	-2
609.367	1	8
609.536	1	7
609.706	1	-4
609.876	1	5
610.045	1	4
610.215	1	-6
610.385	1	1
610.554	1	-5
610.724	1	-6
610.894	1	6
611.063	1	-7
611.233	1	9
611.403	1	0
611.572	1	5
611.742	1	0
611.912	1	4
612.081	1	-7
612.251	1	0
612.421	1	-6
612.590	1	7
612.760	1	1
612.930	1	-7
613.099	1	1
613.269	1	2
613.439	1	7
613.608	1	5
613.778	1	-8
613.948	1	-3
614.117	1	5
614.287	1	6
614.457	1	-10
614.626	1	3
614.796	1	1
614.966	1	11
615.135	1	3
615.305	1	0
615.475	1	-1
615.644	1	-3
615.814	1	-7
615.984	1	6
616.153	1	-2
616.323	1	4
616.493	1	3
616.662	1	7
616.832	1	-1
617.002	1	-1
617.171	1	-4
617.341	1	1
617.511	1	4
617.680	1	6
617.850	1	-7
618.019	1	0
618.189	1	5
618.359	1	-10
618.528	1	1
618.698	1	0
618.868	1	2
619.037	1	7
619.207	1	-5
619.377	1	-6
619.546	1	-1
619.716	1	-2
619.885	1	0
620.055	1	7
620.225	1	11
620.394	1	-1
620.564	1	5
620.734	1	11
620.903	1	-3
621.073	1	-7
621.242	1	0
621.412	1	4
621.582	1	-4
621.751	1	1
621.921	1	5
622.091	1	7
622.260	1	-1
622.430	1	-2
622.599	1	-7
622.769	1	-1
622.939	1	-1
623.108	1	-1
623.278	1	3
623.448	1	2
623.617	1	-1
623.787	1	2
623.956	1	10
624.126	1	14
624.296	1	-3
624.465	1	0
624.635	1	8
624.804	1	-8
624.974	1	7
625.144	1	3
625.313	1	-3
625.483	1	14
625.652	1	9
625.822	1	-5
625.992	1	1
626.161	1	7
626.331	1	-5
626.501	1	-4
626.670	1	3
626.840	1	-1
627.009	1	0
627.179	1	4
627.348	1	5
627.518	1	10
627.688	1	4
627.857	1	3
628.027	1	-11
628.196	1	-9
628.366	1	-14
628.536	1	-1
628.705	1	-8
628.875	1	6
629.044	1	3
629.214	1	-2
629.384	1	8
629.553	1	2
629.723	1	-8
629.892	1	8
630.062	1	-4
630.232	1	-2
630.401	1	7
630.571	1	11
630.740	1	1
630.910	1	7
631.079	1	-2
631.249	1	3
631.419	1	-2
631.588	1	-2
631.758	1	9
631.927	1	1
632.097	1	0
632.266	1	0
632.436	1	3
632.606	1	-2
632.775	1	8
632.945	1	-1
633.114	1	-5
633.284	1	1
633.453	1	-3
633.623	1	12
633.793	1	-2
633.962	1	3
634.132	1	-1
634.301	1	-1
634.471	1	-8
634.640	1	-1
634.810	1	6
634.979	1	3
635.149	1	-2
635.319	1	-5
635.488	1	0
635.658	1	1
635.827	1	-4
635.997	1	1
636.166	1	3
636.336	1	3
636.505	1	-9
636.675	1	6
636.845	1	2
637.014	1	-1
637.184	1	6
637.353	1	-4
637.523	1	6
637.692	1	17
637.862	1	4
638.031	1	5
638.201	1	6
638.370	1	-9
638.540	1	-3
638.710	1	7
638.879	1	-1
639.049	1	7
639.218	1	11
639.388	1	0
639.557	1	12
639.727	1	-1
639.896	1	3
640.066	1	3
640.235	1	-3
640.405	1	-3
640.574	1	8
640.744	1	1
640.914	1	2
641.083	1	-9
641.253	1	19
641.422	1	0
641.592	1	-6
641.761	1	0
641.931	1	-5
642.100	1	-10
642.270	1	-13
642.439	1	-11
642.609	1	3
642.778	1	-8
642.948	1	-2
643.117	1	8
643.287	1	1
643.456	1	4
643.626	1	13
643.795	1	4
643.965	1	6
644.134	1	1
644.304	1	5
644.473	1	2
644.643	1	-1
644.812	1	3
644.982	1	4
645.151	1	7
645.321	1	-9
645.490	1	-6
645.660	1	5
645.829	1	6
645.999	1	-3
646.168	1	-6
646.338	1	-1
646.507	1	4
646.677	1	-5
646.846	1	10
647.016	1	3
647.185	1	-1
647.355	1	0
647.524	1	8
647.694	1	1
647.863	1	-1
648.033	1	1
648.202	1	6
648.372	1	6
648.541	1	-4
648.711	1	7
648.880	1	1
649.050	1	2
649.219	1	-6
649.389	1	10
649.558	1	0
649.728	1	-7
649.897	1	10
650.067	1	-1
650.236	1	4
650.406	1	5
650.575	1	2
650.745	1	2
650.914	1	-5
651.084	1	3
651.253	1	9
651.423	1	6
651.592	1	7
651.762	1	6
651.931	1	-5
652.101	1	-1
652.270	1	3
652.440	1	-1
652.609	1	1
652.778	1	-10
652.948	1	2
653.117	1	-2
653.287	1	14
653.456	1	2
653.626	1	-4
653.795	1	5
653.965	1	2
654.134	1	1
654.304	1	12
654.473	1	-3
654.643	1	3
654.812	1	-4
654.982	1	2
655.151	1	6
655.320	1	0
655.490	1	-2
655.659	1	-6
655.829	1	11
655.998	1	-3
656.168	1	4
656.337	1	7
656.507	1	-4
656.676	1	5
656.846	1	-1
657.015	1	-4
657.184	1	-8
657.354	1	2
657.523	1	-5
657.693	1	1
657.862	1	-1
658.032	1	-6
658.201	1	3
658.371	1	5
658.540	1	-11
658.709	1	3
658.879	1	-17
659.048	1	3
659.218	1	-1
659.387	1	1
659.557	1	4
659.726	1	7
659.895	1	3
660.065	1	-16
660.234	1	6
660.404	1	12
660.573	1	1
660.743	1	2
660.912	1	-3
661.081	1	17
661.251	1	-6
661.420	1	-4
661.590	1	-8
661.759	1	-7
661.929	1	6
662.098	1	-4
662.267	1	2
662.437	1	1
662.606	1	13
662.776	1	-7
662.945	1	9
663.115	1	0
663.284	1	-1
663.453	1	-6
663.623	1	3
663.792	1	4
663.962	1	1
664.131	1	-3
664.300	1	-2
664.470	1	8
664.639	1	4
664.809	1	-4
664.978	1	-8
665.148	1	5
665.317	1	6
665.486	1	1
665.656	1	-7
665.825	1	-2
665.995	1	-2
666.164	1	7
666.333	1	5
666.503	1	4
666.672	1	-2
666.842	1	3
667.011	1	4
667.180	1	-3
667.350	1	-2
667.519	1	4
667.689	1	-1
667.858	1	7
668.027	1	10
668.197	1	7
668.366	1	11
668.536	1	10
668.705	1	5
668.874	1	0
669.044	1	-4
669.213	1	9
669.382	1	6
669.552	1	5
669.721	1	11
669.891	1	2
670.060	1	7
670.229	1	3
670.399	1	8
670.568	1	-4
670.738	1	-10
670.907	1	1
671.076	1	5
671.246	1	4
671.415	1	5
671.584	1	4
671.754	1	4
671.923	1	7
672.093	1	5
672.262	1	-3
672.431	1	-10
672.601	1	3
672.770	1	-2
672.939	1	6
673.109	1	0
673.278	1	-2
673.448	1	0
673.617	1	-11
673.786	1	-3
