325.333	1	14
325.504	1	8
325.675	1	4
325.846	1	3
326.017	1	1
326.188	1	8
326.359	1	2
326.531	1	-2
326.702	1	9
326.873	1	3
327.044	1	13
327.215	1	4
327.386	1	5
327.557	1	12
327.728	1	9
327.899	1	14
328.070	1	16
328.241	1	7
328.412	1	14
328.583	1	6
328.754	1	0
328.926	1	8
329.097	1	5
329.268	1	5
329.439	1	8
329.610	1	19
329.781	1	-6
329.952	1	21
330.123	1	8
330.294	1	-1
330.465	1	10
330.636	1	2
330.807	1	-4
330.978	1	10
331.149	1	21
331.320	1	11
331.492	1	7
331.663	1	15
331.834	1	9
332.005	1	17
332.176	1	-2
332.347	1	22
332.518	1	8
332.689	1	2
332.860	1	12
333.031	1	5
333.202	1	0
333.373	1	9
333.544	1	8
333.715	1	18
333.886	1	3
334.057	1	11
334.228	1	10
334.399	1	10
334.570	1	10
334.741	1	13
334.912	1	14
335.084	1	7
335.255	1	7
335.426	1	19
335.597	1	21
335.768	1	11
335.939	1	14
336.110	1	16
336.281	1	15
336.452	1	20
336.623	1	7
336.794	1	1
336.965	1	2
337.136	1	9
337.307	1	11
337.478	1	7
337.649	1	16
337.820	1	14
337.991	1	13
338.162	1	17
338.333	1	7
338.504	1	12
338.675	1	15
338.846	1	7
339.017	1	24
339.188	1	5
339.359	1	17
339.530	1	21
339.701	1	9
339.872	1	14
340.043	1	1
340.214	1	11
340.385	1	6
340.556	1	17
340.727	1	23
340.898	1	17
341.069	1	21
341.240	1	15
341.411	1	8
341.582	1	20
341.753	1	7
341.924	1	3
342.095	1	14
342.266	1	22
342.437	1	27
342.608	1	21
342.779	1	9
342.950	1	6
343.121	1	14
343.292	1	4
343.463	1	5
343.634	1	5
343.805	1	12
343.976	1	13
344.147	1	13
344.318	1	3
344.489	1	22
344.660	1	14
344.831	1	19
345.002	1	17
345.173	1	7
345.344	1	16
345.515	1	0
345.686	1	17
345.857	1	7
346.028	1	10
346.199	1	9
346.370	1	15
346.541	1	2
346.712	1	0
346.883	1	16
347.054	1	8
347.225	1	18
347.396	1	-1
347.567	1	17
347.738	1	2
347.909	1	12
348.080	1	13
348.251	1	17
348.422	1	14
348.593	1	12
348.764	1	10
348.935	1	14
349.106	1	8
349.277	1	3
349.448	1	9
349.619	1	15
349.790	1	14
349.961	1	15
350.132	1	14
350.303	1	11
350.474	1	-5
350.645	1	20
350.816	1	8
350.987	1	19
351.157	1	9
351.328	1	19
351.499	1	8
351.670	1	9
351.841	1	15
352.012	1	16
352.183	1	-1
352.354	1	-1
352.525	1	14
352.696	1	31
352.867	1	10
353.038	1	6
353.209	1	9
353.380	1	0
353.551	1	-5
353.722	1	14
353.893	1	14
354.064	1	7
354.235	1	16
354.406	1	19
354.576	1	26
354.747	1	9
354.918	1	22
355.089	1	14
355.260	1	25
355.431	1	13
355.602	1	15
355.773	1	11
355.944	1	11
356.115	1	21
356.286	1	16
356.457	1	10
356.628	1	11
356.799	1	12
356.970	1	10
357.141	1	13
357.311	1	14
357.482	1	10
357.653	1	15
357.824	1	9
357.995	1	11
358.166	1	6
358.337	1	7
358.508	1	19
358.679	1	21
358.850	1	10
359.021	1	7
359.192	1	13
359.363	1	16
359.533	1	7
359.704	1	13
359.875	1	15
360.046	1	16
360.217	1	12
360.388	1	14
360.559	1	8
360.730	1	13
360.901	1	12
361.072	1	17
361.243	1	13
361.414	1	8
361.584	1	13
361.755	1	7
361.926	1	4
362.097	1	8
362.268	1	13
362.439	1	1
362.610	1	5
362.781	1	14
362.952	1	11
363.123	1	10
363.293	1	16
363.464	1	12
363.635	1	10
363.806	1	9
363.977	1	11
364.148	1	8
364.319	1	8
364.490	1	16
364.661	1	14
364.832	1	11
365.002	1	3
365.173	1	8
365.344	1	16
365.515	1	9
365.686	1	-4
365.857	1	6
366.028	1	19
366.199	1	6
366.370	1	13
366.540	1	6
366.711	1	9
366.882	1	5
367.053	1	6
367.224	1	11
367.395	1	7
367.566	1	7
367.737	1	18
367.908	1	10
368.078	1	24
368.249	1	5
368.420	1	13
368.591	1	14
368.762	1	7
368.933	1	11
369.104	1	19
369.274	1	5
369.445	1	18
369.616	1	8
369.787	1	18
369.958	1	10
370.129	1	8
370.300	1	7
370.471	1	10
370.641	1	6
370.812	1	15
370.983	1	3
371.154	1	14
371.325	1	9
371.496	1	12
371.667	1	-3
371.837	1	13
372.008	1	-5
372.179	1	5
372.350	1	5
372.521	1	4
372.692	1	9
372.863	1	8
373.033	1	14
373.204	1	2
373.375	1	12
373.546	1	20
373.717	1	10
373.888	1	12
374.059	1	12
374.229	1	-1
374.400	1	-1
374.571	1	10
374.742	1	18
374.913	1	7
375.084	1	17
375.254	1	12
375.425	1	14
375.596	1	21
375.767	1	11
375.938	1	5
376.109	1	7
376.279	1	-2
376.450	1	12
376.621	1	10
376.792	1	8
376.963	1	15
377.134	1	14
377.304	1	10
377.475	1	11
377.646	1	2
377.817	1	7
377.988	1	4
378.159	1	17
378.329	1	14
378.500	1	15
378.671	1	8
378.842	1	10
379.013	1	8
379.184	1	6
379.354	1	13
379.525	1	11
379.696	1	22
379.867	1	12
380.038	1	17
380.209	1	10
380.379	1	13
380.550	1	15
380.721	1	7
380.892	1	16
381.063	1	11
381.233	1	28
381.404	1	11
381.575	1	15
381.746	1	14
381.917	1	8
382.087	1	17
382.258	1	24
382.429	1	13
382.600	1	12
382.771	1	7
382.941	1	14
383.112	1	10
383.283	1	18
383.454	1	15
383.625	1	1
383.795	1	14
383.966	1	5
384.137	1	8
384.308	1	16
384.479	1	6
384.649	1	17
384.820	1	21
384.991	1	15
385.162	1	18
385.333	1	14
385.503	1	12
385.674	1	1
385.845	1	14
386.016	1	16
386.187	1	11
386.357	1	22
386.528	1	7
386.699	1	10
386.870	1	5
387.041	1	26
387.211	1	10
387.382	1	8
387.553	1	9
387.724	1	25
387.894	1	12
388.065	1	16
388.236	1	14
388.407	1	13
388.578	1	8
388.748	1	13
388.919	1	9
389.090	1	21
389.261	1	15
389.431	1	24
389.602	1	24
389.773	1	22
389.944	1	11
390.114	1	28
390.285	1	16
390.456	1	17
390.627	1	12
390.798	1	7
390.968	1	19
391.139	1	9
391.310	1	14
391.481	1	25
391.651	1	23
391.822	1	21
391.993	1	16
392.164	1	16
392.334	1	12
392.505	1	16
392.676	1	23
392.847	1	16
393.017	1	19
393.188	1	20
393.359	1	22
393.530	1	23
393.700	1	2
393.871	1	10
394.042	1	11
394.213	1	6
394.383	1	12
394.554	1	30
394.725	1	14
394.896	1	17
395.066	1	14
395.237	1	24
395.408	1	20
395.579	1	7
395.749	1	11
395.920	1	14
396.091	1	28
396.262	1	4
396.432	1	26
396.603	1	21
396.774	1	14
396.945	1	22
397.115	1	5
397.286	1	14
397.457	1	20
397.627	1	20
397.798	1	15
397.969	1	15
398.140	1	16
398.310	1	19
398.481	1	5
398.652	1	9
398.823	1	26
398.993	1	18
399.164	1	15
399.335	1	14
399.505	1	13
399.676	1	13
399.847	1	16
400.018	1	18
400.188	1	16
400.359	1	14
400.530	1	19
400.700	1	17
400.871	1	16
401.042	1	24
401.213	1	9
401.383	1	19
401.554	1	15
401.725	1	21
401.895	1	13
402.066	1	15
402.237	1	23
402.408	1	21
402.578	1	15
402.749	1	24
402.920	1	18
403.090	1	20
403.261	1	26
403.432	1	8
403.603	1	12
403.773	1	18
403.944	1	17
404.115	1	15
404.285	1	23
404.456	1	13
404.627	1	18
404.797	1	19
404.968	1	20
405.139	1	24
405.310	1	21
405.480	1	27
405.651	1	14
405.822	1	22
405.992	1	9
406.163	1	24
406.334	1	27
406.504	1	24
406.675	1	35
406.846	1	23
407.016	1	23
407.187	1	22
407.358	1	24
407.528	1	16
407.699	1	7
407.870	1	33
408.041	1	28
408.211	1	19
408.382	1	32
408.553	1	22
408.723	1	12
408.894	1	19
409.065	1	16
409.235	1	23
409.406	1	19
409.577	1	13
409.747	1	12
409.918	1	10
410.089	1	29
410.259	1	23
410.430	1	22
410.601	1	21
410.771	1	26
410.942	1	21
411.113	1	25
411.283	1	19
411.454	1	22
411.625	1	13
411.795	1	3
411.966	1	28
412.137	1	22
412.307	1	22
412.478	1	35
412.649	1	27
412.819	1	18
412.990	1	34
413.161	1	32
413.331	1	24
413.502	1	35
413.672	1	23
413.843	1	18
414.014	1	28
414.184	1	19
414.355	1	24
414.526	1	23
414.696	1	22
414.867	1	27
415.038	1	23
415.208	1	24
415.379	1	16
415.550	1	26
415.720	1	14
415.891	1	38
416.062	1	21
416.232	1	21
416.403	1	29
416.573	1	32
416.744	1	27
416.915	1	38
417.085	1	27
417.256	1	27
417.427	1	18
417.597	1	25
417.768	1	32
417.939	1	29
418.109	1	24
418.280	1	19
418.450	1	18
418.621	1	25
418.792	1	26
418.962	1	16
419.133	1	23
419.304	1	17
419.474	1	18
419.645	1	27
419.815	1	16
419.986	1	23
420.157	1	22
420.327	1	18
420.498	1	26
420.669	1	21
420.839	1	19
421.010	1	21
421.180	1	13
421.351	1	21
421.522	1	21
421.692	1	34
421.863	1	26
422.033	1	12
422.204	1	31
422.375	1	14
422.545	1	18
422.716	1	28
422.886	1	14
423.057	1	22
423.228	1	24
423.398	1	25
423.569	1	30
423.740	1	22
423.910	1	32
424.081	1	27
424.251	1	4
424.422	1	29
424.593	1	25
424.763	1	20
424.934	1	27
425.104	1	20
425.275	1	28
425.445	1	19
425.616	1	20
425.787	1	21
425.957	1	22
426.128	1	16
426.298	1	29
426.469	1	21
426.640	1	18
426.810	1	31
426.981	1	22
427.151	1	28
427.322	1	31
427.493	1	33
427.663	1	30
427.834	1	12
428.004	1	16
428.175	1	30
428.345	1	22
428.516	1	33
428.687	1	23
428.857	1	17
429.028	1	25
429.198	1	33
429.369	1	27
429.540	1	21
429.710	1	20
429.881	1	20
430.051	1	28
430.222	1	27
430.392	1	19
430.563	1	28
430.734	1	22
430.904	1	21
431.075	1	27
431.245	1	10
431.416	1	31
431.586	1	22
431.757	1	17
431.927	1	28
432.098	1	21
432.269	1	20
432.439	1	26
432.610	1	36
432.780	1	15
432.951	1	19
433.121	1	16
433.292	1	16
433.462	1	15
433.633	1	19
433.804	1	13
433.974	1	21
434.145	1	29
434.315	1	20
434.486	1	32
434.656	1	33
434.827	1	20
434.997	1	22
435.168	1	20
435.339	1	17
435.509	1	20
435.680	1	30
435.850	1	15
436.021	1	33
436.191	1	31
436.362	1	21
436.532	1	16
436.703	1	29
436.873	1	15
437.044	1	18
437.214	1	22
437.385	1	25
437.556	1	21
437.726	1	24
437.897	1	26
438.067	1	16
438.238	1	21
438.408	1	9
438.579	1	20
438.749	1	18
438.920	1	20
439.090	1	21
439.261	1	22
439.431	1	22
439.602	1	14
439.772	1	29
439.943	1	14
440.113	1	29
440.284	1	32
440.455	1	26
440.625	1	35
440.796	1	36
440.966	1	16
441.137	1	11
441.307	1	20
441.478	1	23
441.648	1	20
441.819	1	15
441.989	1	26
442.160	1	9
442.330	1	27
442.501	1	19
442.671	1	26
442.842	1	26
443.012	1	19
443.183	1	29
443.353	1	26
443.524	1	11
443.694	1	31
443.865	1	21
444.035	1	12
444.206	1	31
444.376	1	12
444.547	1	26
444.717	1	16
444.888	1	20
445.058	1	10
445.229	1	17
445.399	1	18
445.570	1	6
445.740	1	7
445.911	1	25
446.081	1	27
446.252	1	19
446.422	1	13
446.593	1	17
446.763	1	14
446.934	1	19
447.104	1	18
447.275	1	15
447.445	1	20
447.616	1	28
447.786	1	16
447.957	1	21
448.127	1	29
448.298	1	20
448.468	1	14
448.639	1	14
448.809	1	27
448.979	1	4
449.150	1	10
449.320	1	24
449.491	1	20
449.661	1	19
449.832	1	30
450.002	1	10
450.173	1	17
450.343	1	27
450.514	1	25
450.684	1	20
450.855	1	21
451.025	1	15
451.196	1	13
451.366	1	21
451.537	1	12
451.707	1	28
451.878	1	3
452.048	1	16
452.218	1	11
452.389	1	23
452.559	1	14
452.730	1	22
452.900	1	12
453.071	1	17
453.241	1	20
453.412	1	22
453.582	1	23
453.753	1	20
453.923	1	22
454.093	1	30
454.264	1	23
454.434	1	24
454.605	1	23
454.775	1	19
454.946	1	17
455.116	1	25
455.287	1	5
455.457	1	20
455.628	1	19
455.798	1	20
455.968	1	16
456.139	1	11
456.309	1	20
456.480	1	23
456.650	1	23
456.821	1	16
456.991	1	21
457.161	1	10
457.332	1	22
457.502	1	16
457.673	1	27
457.843	1	18
458.014	1	15
458.184	1	16
458.355	1	12
458.525	1	20
458.695	1	11
458.866	1	18
459.036	1	10
459.207	1	27
459.377	1	28
459.548	1	20
459.718	1	12
459.888	1	21
460.059	1	25
460.229	1	9
460.400	1	33
460.570	1	17
460.740	1	22
460.911	1	15
461.081	1	4
461.252	1	28
461.422	1	22
461.593	1	2
461.763	1	15
461.933	1	11
462.104	1	17
462.274	1	19
462.445	1	8
462.615	1	13
462.785	1	17
462.956	1	17
463.126	1	10
463.297	1	21
463.467	1	17
463.638	1	7
463.808	1	18
463.978	1	13
464.149	1	22
464.319	1	7
464.490	1	17
464.660	1	18
464.830	1	9
465.001	1	21
465.171	1	13
465.342	1	19
465.512	1	16
465.682	1	22
465.853	1	16
466.023	1	25
466.194	1	24
466.364	1	21
466.534	1	11
466.705	1	18
466.875	1	21
467.045	1	6
467.216	1	0
467.386	1	1
467.557	1	6
467.727	1	14
467.897	1	11
468.068	1	22
468.238	1	14
468.409	1	18
468.579	1	10
468.749	1	6
468.920	1	12
469.090	1	16
469.260	1	11
469.431	1	10
469.601	1	17
469.772	1	10
469.942	1	24
470.112	1	26
470.283	1	14
470.453	1	19
470.623	1	19
470.794	1	8
470.964	1	6
471.135	1	11
471.305	1	17
471.475	1	11
471.646	1	7
471.816	1	21
471.986	1	14
472.157	1	11
472.327	1	3
472.497	1	9
472.668	1	12
472.838	1	3
473.009	1	23
473.179	1	12
473.349	1	11
473.520	1	14
473.690	1	13
473.860	1	18
474.031	1	10
474.201	1	20
474.371	1	11
474.542	1	12
474.712	1	10
474.882	1	26
475.053	1	17
475.223	1	24
475.394	1	10
475.564	1	12
475.734	1	9
475.905	1	7
476.075	1	11
476.245	1	22
476.416	1	6
476.586	1	13
476.756	1	16
476.927	1	16
477.097	1	10
477.267	1	18
477.438	1	9
477.608	1	8
477.778	1	21
477.949	1	11
478.119	1	8
478.289	1	18
478.460	1	13
478.630	1	11
478.800	1	10
478.971	1	15
479.141	1	12
479.311	1	17
479.482	1	5
479.652	1	14
479.822	1	8
479.993	1	10
480.163	1	17
480.333	1	9
480.504	1	15
480.674	1	16
480.844	1	20
481.015	1	4
481.185	1	14
481.355	1	5
481.525	1	11
481.696	1	13
481.866	1	7
482.036	1	1
482.207	1	9
482.377	1	17
482.547	1	15
482.718	1	10
482.888	1	7
483.058	1	13
483.229	1	7
483.399	1	10
483.569	1	14
483.740	1	-2
483.910	1	-7
484.080	1	4
484.250	1	14
484.421	1	12
484.591	1	13
484.761	1	10
484.932	1	11
485.102	1	10
485.272	1	10
485.443	1	14
485.613	1	5
485.783	1	14
485.953	1	1
486.124	1	-1
486.294	1	13
486.464	1	10
486.635	1	4
486.805	1	-3
486.975	1	13
487.146	1	9
487.316	1	13
487.486	1	4
487.656	1	10
487.827	1	7
487.997	1	6
488.167	1	11
488.338	1	2
488.508	1	3
488.678	1	9
488.848	1	10
489.019	1	18
489.189	1	9
489.359	1	15
489.529	1	4
489.700	1	6
489.870	1	4
490.040	1	0
490.211	1	6
490.381	1	5
490.551	1	-5
490.721	1	4
490.892	1	28
491.062	1	11
491.232	1	12
491.402	1	10
491.573	1	6
491.743	1	2
491.913	1	-3
492.084	1	11
492.254	1	19
492.424	1	14
492.594	1	15
492.765	1	20
492.935	1	22
493.105	1	6
493.275	1	0
493.446	1	4
493.616	1	6
493.786	1	0
493.956	1	-2
494.127	1	1
494.297	1	11
494.467	1	20
494.637	1	20
494.808	1	-1
494.978	1	9
495.148	1	11
495.318	1	-2
495.489	1	4
495.659	1	12
495.829	1	7
495.999	1	13
496.170	1	9
496.340	1	17
496.510	1	7
496.680	1	4
496.851	1	1
497.021	1	-6
497.191	1	8
497.361	1	4
497.532	1	0
497.702	1	14
497.872	1	7
498.042	1	10
498.213	1	11
498.383	1	19
498.553	1	3
498.723	1	0
498.894	1	7
499.064	1	15
499.234	1	-3
499.404	1	7
499.574	1	10
499.745	1	-6
499.915	1	4
500.085	1	4
500.255	1	8
500.426	1	2
500.596	1	9
500.766	1	-1
500.936	1	15
501.106	1	11
501.277	1	7
501.447	1	6
501.617	1	7
501.787	1	15
501.958	1	3
502.128	1	15
502.298	1	10
502.468	1	8
502.638	1	5
502.809	1	8
502.979	1	-2
503.149	1	6
503.319	1	-1
503.489	1	-2
503.660	1	1
503.830	1	2
504.000	1	8
504.170	1	7
504.340	1	10
504.511	1	15
504.681	1	15
504.851	1	12
505.021	1	1
505.192	1	2
505.362	1	1
505.532	1	4
505.702	1	-2
505.872	1	9
506.043	1	-1
506.213	1	8
506.383	1	5
506.553	1	0
506.723	1	18
506.893	1	9
507.064	1	-1
507.234	1	3
507.404	1	8
507.574	1	6
507.744	1	9
507.915	1	13
508.085	1	-2
508.255	1	6
508.425	1	6
508.595	1	3
508.766	1	-6
508.936	1	19
509.106	1	4
509.276	1	8
509.446	1	3
509.616	1	4
509.787	1	11
509.957	1	6
510.127	1	0
510.297	1	8
510.467	1	0
510.638	1	2
510.808	1	-2
510.978	1	7
511.148	1	8
511.318	1	5
511.488	1	17
511.659	1	11
511.829	1	6
511.999	1	-3
512.169	1	3
512.339	1	4
512.509	1	2
512.680	1	-10
512.850	1	0
513.020	1	8
513.190	1	11
513.360	1	7
513.530	1	9
513.700	1	3
513.871	1	10
514.041	1	0
514.211	1	2
514.381	1	-3
514.551	1	2
514.721	1	5
514.892	1	11
515.062	1	12
515.232	1	7
515.402	1	1
515.572	1	12
515.742	1	11
515.912	1	-1
516.083	1	-4
516.253	1	8
516.423	1	-1
516.593	1	3
516.763	1	12
516.933	1	10
517.104	1	2
517.274	1	6
517.444	1	6
517.614	1	4
517.784	1	7
517.954	1	-1
518.124	1	13
518.294	1	0
518.465	1	10
518.635	1	13
518.805	1	4
518.975	1	-4
519.145	1	14
519.315	1	4
519.485	1	7
519.656	1	2
519.826	1	4
519.996	1	9
520.166	1	8
520.336	1	-7
520.506	1	3
520.676	1	14
520.846	1	2
521.017	1	-9
521.187	1	3
521.357	1	8
521.527	1	0
521.697	1	11
521.867	1	6
522.037	1	12
522.207	1	14
522.377	1	2
522.548	1	5
522.718	1	1
522.888	1	9
523.058	1	0
523.228	1	2
523.398	1	15
523.568	1	3
523.738	1	1
523.909	1	5
524.079	1	7
524.249	1	8
524.419	1	17
524.589	1	0
524.759	1	5
524.929	1	2
525.099	1	-1
525.269	1	-6
525.439	1	9
525.610	1	-7
525.780	1	16
525.950	1	11
526.120	1	-5
526.290	1	-2
526.460	1	4
526.630	1	12
526.800	1	-4
526.970	1	10
527.140	1	15
527.311	1	9
527.481	1	1
527.651	1	13
527.821	1	-4
527.991	1	1
528.161	1	-4
528.331	1	6
528.501	1	-2
528.671	1	7
528.841	1	12
529.011	1	-2
529.181	1	20
529.352	1	15
529.522	1	18
529.692	1	-3
529.862	1	0
530.032	1	-3
530.202	1	17
530.372	1	15
530.542	1	6
530.712	1	20
530.882	1	5
531.052	1	-1
531.222	1	4
531.392	1	2
531.563	1	4
531.733	1	-2
531.903	1	4
532.073	1	4
532.243	1	7
532.413	1	-1
532.583	1	15
532.753	1	12
532.923	1	3
533.093	1	0
533.263	1	0
533.433	1	1
533.603	1	-5
533.773	1	0
533.943	1	4
534.113	1	17
534.284	1	1
534.454	1	12
534.624	1	9
534.794	1	13
534.964	1	-1
535.134	1	8
535.304	1	27
535.474	1	8
535.644	1	0
535.814	1	3
535.984	1	4
536.154	1	14
536.324	1	4
536.494	1	-3
536.664	1	1
536.834	1	5
537.004	1	5
537.174	1	8
537.344	1	11
537.514	1	3
537.685	1	13
537.855	1	-3
538.025	1	-2
538.195	1	7
538.365	1	6
538.535	1	-1
538.705	1	-3
538.875	1	3
539.045	1	12
539.215	1	4
539.385	1	-5
539.555	1	-1
539.725	1	0
539.895	1	8
540.065	1	1
540.235	1	15
540.405	1	-6
540.575	1	8
540.745	1	-4
540.915	1	6
541.085	1	0
541.255	1	9
541.425	1	0
541.595	1	8
541.765	1	7
541.935	1	6
542.105	1	5
542.275	1	8
542.445	1	5
542.615	1	5
542.785	1	-4
542.955	1	-7
543.125	1	0
543.295	1	6
543.465	1	8
543.635	1	-3
543.805	1	-7
543.975	1	-4
544.145	1	15
544.315	1	0
544.485	1	3
544.655	1	3
544.825	1	7
544.995	1	13
545.165	1	6
545.335	1	5
545.505	1	-4
545.675	1	-9
545.845	1	5
546.015	1	4
546.185	1	9
546.355	1	-6
546.525	1	2
546.695	1	-2
546.865	1	12
547.035	1	-2
547.205	1	5
547.375	1	1
547.545	1	6
547.715	1	7
547.885	1	2
548.055	1	2
548.225	1	12
548.395	1	-2
548.565	1	11
548.735	1	-4
548.905	1	6
549.075	1	0
549.245	1	13
549.415	1	-3
549.585	1	8
549.755	1	10
549.925	1	1
550.095	1	-4
550.265	1	9
550.435	1	3
550.605	1	4
550.775	1	2
550.945	1	10
551.115	1	9
551.285	1	-1
551.455	1	-6
551.625	1	0
551.795	1	3
551.965	1	1
552.135	1	8
552.305	1	0
552.475	1	-1
552.645	1	1
552.815	1	9
552.985	1	10
553.155	1	-4
553.325	1	0
553.495	1	6
553.665	1	-3
553.835	1	16
554.004	1	4
554.174	1	3
554.344	1	2
554.514	1	6
554.684	1	-2
554.854	1	-6
555.024	1	9
555.194	1	1
555.364	1	1
555.534	1	-6
555.704	1	9
555.874	1	1
556.044	1	10
556.214	1	4
556.384	1	5
556.554	1	-1
556.724	1	3
556.894	1	9
557.064	1	9
557.234	1	0
557.404	1	5
557.573	1	2
557.743	1	8
557.913	1	11
558.083	1	0
558.253	1	-4
558.423	1	0
558.593	1	-5
558.763	1	13
558.933	1	-1
559.103	1	12
559.273	1	4
559.443	1	-2
559.613	1	-4
559.783	1	5
559.953	1	-1
560.122	1	11
560.292	1	6
560.462	1	-2
560.632	1	-5
560.802	1	10
560.972	1	-6
561.142	1	-1
561.312	1	-2
561.482	1	-8
561.652	1	5
561.822	1	-3
561.992	1	0
562.162	1	7
562.331	1	6
562.501	1	2
562.671	1	11
562.841	1	-5
563.011	1	14
563.181	1	3
563.351	1	2
563.521	1	-1
563.691	1	-2
563.861	1	10
564.031	1	-4
564.201	1	5
564.370	1	1
564.540	1	8
564.710	1	1
564.880	1	0
565.050	1	4
565.220	1	-7
565.390	1	1
565.560	1	11
565.730	1	10
565.900	1	3
566.069	1	10
566.239	1	-2
566.409	1	-10
566.579	1	3
566.749	1	-3
566.919	1	-3
567.089	1	8
567.259	1	4
567.429	1	2
567.599	1	0
567.768	1	4
567.938	1	-8
568.108	1	-2
568.278	1	10
568.448	1	1
568.618	1	4
568.788	1	1
568.958	1	-8
569.128	1	9
569.297	1	-7
569.467	1	-11
569.637	1	0
569.807	1	17
569.977	1	-3
570.147	1	1
570.317	1	2
570.487	1	2
570.656	1	-8
570.826	1	-7
570.996	1	-5
571.166	1	14
571.336	1	-5
571.506	1	5
571.676	1	14
571.846	1	-1
572.015	1	-1
572.185	1	7
572.355	1	1
572.525	1	-1
572.695	1	9
572.865	1	-6
573.035	1	23
573.205	1	-3
573.374	1	6
573.544	1	7
573.714	1	-2
573.884	1	6
574.054	1	7
574.224	1	2
574.394	1	-4
574.563	1	0
574.733	1	1
574.903	1	4
575.073	1	7
575.243	1	-1
575.413	1	-2
575.583	1	3
575.752	1	6
575.922	1	0
576.092	1	-2
576.262	1	-7
576.432	1	3
576.602	1	4
576.772	1	4
576.941	1	8
577.111	1	1
577.281	1	-7
577.451	1	1
577.621	1	10
577.791	1	-3
577.960	1	4
578.130	1	1
578.300	1	-2
578.470	1	-4
578.640	1	5
578.810	1	8
578.979	1	-2
579.149	1	5
579.319	1	-7
579.489	1	-4
579.659	1	-4
579.829	1	-5
579.998	1	1
580.168	1	9
580.338	1	7
580.508	1	10
580.678	1	9
580.848	1	-2
581.017	1	11
581.187	1	3
581.357	1	-9
581.527	1	5
581.697	1	4
581.867	1	8
582.036	1	2
582.206	1	7
582.376	1	0
582.546	1	-6
582.716	1	0
582.885	1	-7
583.055	1	6
583.225	1	-2
583.395	1	11
583.565	1	8
583.735	1	3
583.904	1	1
584.074	1	-5
584.244	1	-8
584.414	1	-2
584.584	1	-3
584.753	1	-3
584.923	1	3
585.093	1	3
585.263	1	1
585.433	1	0
585.602	1	-7
585.772	1	-5
585.942	1	-1
586.112	1	-7
586.282	1	7
586.451	1	6
586.621	1	8
586.791	1	8
586.961	1	2
587.131	1	2
587.300	1	-4
587.470	1	-3
587.640	1	11
587.810	1	8
587.980	1	1
588.149	1	1
588.319	1	8
588.489	1	1
588.659	1	6
588.829	1	7
588.998	1	10
589.168	1	11
589.338	1	-9
589.508	1	12
589.677	1	7
589.847	1	5
590.017	1	-2
590.187	1	10
590.357	1	15
590.526	1	2
590.696	1	-4
590.866	1	7
591.036	1	7
591.205	1	7
591.375	1	-1
591.545	1	-2
591.715	1	8
591.885	1	9
592.054	1	-1
592.224	1	1
592.394	1	-5
592.564	1	6
592.733	1	-9
592.903	1	7
593.073	1	2
593.243	1	12
593.412	1	-1
593.582	1	9
593.752	1	3
593.922	1	-2
594.091	1	-1
594.261	1	-1
594.431	1	13
594.601	1	-10
594.771	1	13
594.940	1	13
595.110	1	6
595.280	1	0
595.450	1	12
595.619	1	5
595.789	1	8
595.959	1	7
596.129	1	-1
596.298	1	0
596.468	1	0
596.638	1	1
596.808	1	9
596.977	1	-3
597.147	1	-8
597.317	1	-7
597.487	1	2
597.656	1	2
597.826	1	8
597.996	1	10
598.166	1	6
598.335	1	3
598.505	1	13
598.675	1	0
598.844	1	-4
599.014	1	9
599.184	1	3
599.354	1	11
599.523	1	8
599.693	1	11
599.863	1	4
600.033	1	4
600.202	1	14
600.372	1	0
600.542	1	-4
600.712	1	1
600.881	1	-1
601.051	1	-2
601.221	1	0
601.390	1	-7
601.560	1	5
601.730	1	1
601.900	1	5
602.069	1	11
602.239	1	1
602.409	1	2
602.578	1	-3
602.748	1	10
602.918	1	3
603.088	1	18
603.257	1	4
603.427	1	5
603.597	1	-2
603.767	1	1
603.936	1	1
604.106	1	8
604.276	1	10
604.445	1	1
604.615	1	-1
604.785	1	-2
604.954	1	17
605.124	1	10
605.294	1	8
605.464	1	-5
605.633	1	1
605.803	1	7
605.973	1	1
606.142	1	8
606.312	1	-2
606.482	1	11
606.652	1	2
606.821	1	7
606.991	1	4
607.161	1	3
607.330	1	-3
607.500	1	6
607.670	1	17
607.839	1	11
608.009	1	11
608.179	1	-2
608.348	1	13
608.518	1	6
608.688	1	1
608.858	1	7
609.027	1	3
609.197	1	-5
609.367	1	8
609.536	1	3
609.706	1	3
609.876	1	7
610.045	1	5
610.215	1	4
610.385	1	-3
610.554	1	0
610.724	1	0
610.894	1	5
611.063	1	4
611.233	1	2
611.403	1	-2
611.572	1	-1
611.742	1	0
611.912	1	10
612.081	1	-3
612.251	1	6
612.421	1	-3
612.590	1	8
612.760	1	7
612.930	1	-3
613.099	1	2
613.269	1	2
613.439	1	0
613.608	1	10
613.778	1	-2
613.948	1	10
614.117	1	8
614.287	1	2
614.457	1	-7
614.626	1	16
614.796	1	2
614.966	1	3
615.135	1	4
615.305	1	15
615.475	1	4
615.644	1	-1
615.814	1	-9
615.984	1	4
616.153	1	5
616.323	1	3
616.493	1	15
616.662	1	5
616.832	1	5
617.002	1	-1
617.171	1	0
617.341	1	7
617.511	1	9
617.680	1	5
617.850	1	3
618.019	1	-1
618.189	1	2
618.359	1	1
618.528	1	2
618.698	1	10
618.868	1	-4
619.037	1	-6
619.207	1	19
619.377	1	9
619.546	1	0
619.716	1	4
619.885	1	5
620.055	1	10
620.225	1	12
620.394	1	6
620.564	1	16
620.734	1	6
620.903	1	2
621.073	1	-3
621.242	1	5
621.412	1	4
621.582	1	4
621.751	1	14
621.921	1	9
622.091	1	6
622.260	1	-1
622.430	1	3
622.599	1	-7
622.769	1	13
622.939	1	6
623.108	1	2
623.278	1	9
623.448	1	5
623.617	1	14
623.787	1	3
623.956	1	13
624.126	1	14
624.296	1	9
624.465	1	3
624.635	1	6
624.804	1	-2
624.974	1	7
625.144	1	4
625.313	1	-3
625.483	1	22
625.652	1	8
625.822	1	-1
625.992	1	0
626.161	1	15
626.331	1	8
626.501	1	8
626.670	1	6
626.840	1	8
627.009	1	7
627.179	1	8
627.348	1	11
627.518	1	7
627.688	1	7
627.857	1	12
628.027	1	-2
628.196	1	11
628.366	1	-8
628.536	1	2
628.705	1	7
628.875	1	16
629.044	1	11
629.214	1	6
629.384	1	8
629.553	1	7
629.723	1	0
629.892	1	17
630.062	1	11
630.232	1	-1
630.401	1	19
630.571	1	12
630.740	1	9
630.910	1	11
631.079	1	7
631.249	1	10
631.419	1	-6
631.588	1	7
631.758	1	13
631.927	1	13
632.097	1	6
632.266	1	5
632.436	1	8
632.606	1	9
632.775	1	18
632.945	1	16
633.114	1	-3
633.284	1	-3
633.453	1	1
633.623	1	15
633.793	1	-3
633.962	1	6
634.132	1	16
634.301	1	18
634.471	1	3
634.640	1	5
634.810	1	10
634.979	1	1
635.149	1	12
635.319	1	23
635.488	1	13
635.658	1	5
635.827	1	15
635.997	1	16
636.166	1	3
636.336	1	11
636.505	1	10
636.675	1	15
636.845	1	10
637.014	1	4
637.184	1	8
637.353	1	11
637.523	1	10
637.692	1	3
637.862	1	16
638.031	1	2
638.201	1	14
638.370	1	10
638.540	1	6
638.710	1	15
638.879	1	-4
639.049	1	9
639.218	1	11
639.388	1	14
639.557	1	18
639.727	1	-7
639.896	1	9
640.066	1	13
640.235	1	5
640.405	1	5
640.574	1	3
640.744	1	15
640.914	1	8
641.083	1	13
641.253	1	24
641.422	1	5
641.592	1	-2
641.761	1	15
641.931	1	0
642.100	1	10
642.270	1	7
642.439	1	8
642.609	1	15
642.778	1	12
642.948	1	4
643.117	1	23
643.287	1	4
643.456	1	8
643.626	1	9
643.795	1	9
643.965	1	7
644.134	1	5
644.304	1	5
644.473	1	19
644.643	1	4
644.812	1	8
644.982	1	15
645.151	1	18
645.321	1	4
645.490	1	5
645.660	1	2
645.829	1	12
645.999	1	4
646.168	1	1
646.338	1	-5
646.507	1	4
646.677	1	13
646.846	1	10
647.016	1	17
647.185	1	3
647.355	1	-1
647.524	1	12
647.694	1	5
647.863	1	-1
648.033	1	-1
648.202	1	7
648.372	1	15
648.541	1	3
648.711	1	15
648.880	1	10
649.050	1	0
649.219	1	1
649.389	1	3
649.558	1	-1
649.728	1	-2
649.897	1	4
650.067	1	2
650.236	1	10
650.406	1	7
650.575	1	4
650.745	1	10
650.914	1	-5
651.084	1	4
651.253	1	22
651.423	1	16
651.592	1	14
651.762	1	11
651.931	1	16
652.101	1	6
652.270	1	16
652.440	1	2
652.609	1	11
652.778	1	-3
652.948	1	13
653.117	1	8
653.287	1	10
653.456	1	7
653.626	1	-1
653.795	1	6
653.965	1	5
654.134	1	10
654.304	1	14
654.473	1	7
654.643	1	5
654.812	1	3
654.982	1	-1
655.151	1	5
655.320	1	11
655.490	1	3
655.659	1	3
655.829	1	10
655.998	1	6
656.168	1	5
656.337	1	14
656.507	1	-3
656.676	1	10
656.846	1	3
657.015	1	4
657.184	1	6
657.354	1	10
657.523	1	13
657.693	1	2
657.862	1	2
658.032	1	10
658.201	1	6
658.371	1	-1
658.540	1	3
658.709	1	5
658.879	1	-7
659.048	1	6
659.218	1	6
659.387	1	-1
659.557	1	16
659.726	1	9
659.895	1	8
660.065	1	-1
660.234	1	2
660.404	1	5
660.573	1	14
660.743	1	15
660.912	1	12
661.081	1	21
661.251	1	9
661.420	1	2
661.590	1	0
661.759	1	5
661.929	1	2
662.098	1	7
662.267	1	5
662.437	1	19
662.606	1	12
662.776	1	3
662.945	1	4
663.115	1	15
663.284	1	7
663.453	1	-3
663.623	1	11
663.792	1	8
663.962	1	5
664.131	1	11
664.300	1	10
664.470	1	14
664.639	1	12
664.809	1	-3
664.978	1	-3
665.148	1	4
665.317	1	4
665.486	1	8
665.656	1	0
665.825	1	10
665.995	1	5
666.164	1	4
666.333	1	11
666.503	1	15
666.672	1	10
666.842	1	-5
667.011	1	6
667.180	1	13
667.350	1	7
667.519	1	19
667.689	1	3
667.858	1	19
668.027	1	11
668.197	1	15
668.366	1	10
668.536	1	5
668.705	1	8
668.874	1	2
669.044	1	4
669.213	1	5
669.382	1	14
669.552	1	13
669.721	1	19
669.891	1	11
670.060	1	10
670.229	1	4
670.399	1	14
670.568	1	5
670.738	1	1
670.907	1	-1
671.076	1	3
671.246	1	9
671.415	1	7
671.584	1	-3
671.754	1	6
671.923	1	9
672.093	1	13
672.262	1	4
672.431	1	-5
672.601	1	6
672.770	1	2
672.939	1	12
673.109	1	4
673.278	1	16
673.448	1	0
673.617	1	-6
673.786	1	5
