325.333	1	5
325.504	1	0
325.675	1	-7
325.846	1	1
326.017	1	6
326.188	1	5
326.359	1	0
326.531	1	-3
326.702	1	1
326.873	1	-1
327.044	1	-5
327.215	1	12
327.386	1	0
327.557	1	-1
327.728	1	11
327.899	1	22
328.070	1	8
328.241	1	3
328.412	1	6
328.583	1	4
328.754	1	0
328.926	1	-5
329.097	1	5
329.268	1	6
329.439	1	3
329.610	1	14
329.781	1	6
329.952	1	15
330.123	1	6
330.294	1	-9
330.465	1	4
330.636	1	10
330.807	1	1
330.978	1	-1
331.149	1	20
331.320	1	11
331.492	1	12
331.663	1	0
331.834	1	12
332.005	1	12
332.176	1	5
332.347	1	21
332.518	1	7
332.689	1	6
332.860	1	3
333.031	1	1
333.202	1	-9
333.373	1	5
333.544	1	-2
333.715	1	10
333.886	1	3
334.057	1	12
334.228	1	8
334.399	1	11
334.570	1	-3
334.741	1	11
334.912	1	13
335.084	1	8
335.255	1	5
335.426	1	-6
335.597	1	9
335.768	1	11
335.939	1	2
336.110	1	0
336.281	1	4
336.452	1	14
336.623	1	8
336.794	1	4
336.965	1	0
337.136	1	1
337.307	1	5
337.478	1	7
337.649	1	15
337.820	1	-1
337.991	1	15
338.162	1	4
338.333	1	-1
338.504	1	1
338.675	1	8
338.846	1	5
339.017	1	17
339.188	1	-6
339.359	1	13
339.530	1	8
339.701	1	-1
339.872	1	7
340.043	1	-7
340.214	1	10
340.385	1	-1
340.556	1	6
340.727	1	14
340.898	1	3
341.069	1	9
341.240	1	12
341.411	1	2
341.582	1	6
341.753	1	-10
341.924	1	3
342.095	1	10
342.266	1	18
342.437	1	3
342.608	1	17
342.779	1	9
342.950	1	3
343.121	1	5
343.292	1	3
343.463	1	12
343.634	1	2
343.805	1	10
343.976	1	10
344.147	1	9
344.318	1	5
344.489	1	9
344.660	1	11
344.831	1	16
345.002	1	14
345.173	1	9
345.344	1	5
345.515	1	-2
345.686	1	19
345.857	1	3
346.028	1	2
346.199	1	1
346.370	1	14
346.541	1	-5
346.712	1	9
346.883	1	10
347.054	1	17
347.225	1	-3
347.396	1	-10
347.567	1	16
347.738	1	2
347.909	1	2
348.080	1	7
348.251	1	10
348.422	1	9
348.593	1	-5
348.764	1	5
348.935	1	8
349.106	1	6
349.277	1	1
349.448	1	3
349.619	1	1
349.790	1	4
349.961	1	15
350.132	1	6
350.303	1	5
350.474	1	-5
350.645	1	6
350.816	1	7
350.987	1	11
351.157	1	2
351.328	1	19
351.499	1	0
351.670	1	5
351.841	1	4
352.012	1	4
352.183	1	8
352.354	1	-3
352.525	1	9
352.696	1	7
352.867	1	9
353.038	1	-2
353.209	1	5
353.380	1	8
353.551	1	-1
353.722	1	-4
353.893	1	3
354.064	1	6
354.235	1	-2
354.406	1	5
354.576	1	14
354.747	1	6
354.918	1	11
355.089	1	-4
355.260	1	12
355.431	1	6
355.602	1	-5
355.773	1	3
355.944	1	1
356.115	1	9
356.286	1	14
356.457	1	-2
356.628	1	6
356.799	1	1
356.970	1	15
357.141	1	-8
357.311	1	10
357.482	1	7
357.653	1	8
357.824	1	3
357.995	1	-5
358.166	1	-4
358.337	1	18
358.508	1	4
358.679	1	15
358.850	1	-1
359.021	1	9
359.192	1	8
359.363	1	11
359.533	1	-2
359.704	1	10
359.875	1	15
360.046	1	6
360.217	1	7
360.388	1	6
360.559	1	8
360.730	1	5
360.901	1	0
361.072	1	5
361.243	1	11
361.414	1	3
361.584	1	2
361.755	1	-1
361.926	1	13
362.097	1	1
362.268	1	3
362.439	1	5
362.610	1	-1
362.781	1	-2
362.952	1	6
363.123	1	10
363.293	1	-2
363.464	1	2
363.635	1	9
363.806	1	2
363.977	1	2
364.148	1	-6
364.319	1	7
364.490	1	6
364.661	1	4
364.832	1	12
365.002	1	14
365.173	1	7
365.344	1	6
365.515	1	-7
365.686	1	-5
365.857	1	1
366.028	1	-1
366.199	1	3
366.370	1	14
366.540	1	6
366.711	1	2
366.882	1	-6
367.053	1	-1
367.224	1	10
367.395	1	1
367.566	1	-3
367.737	1	8
367.908	1	-3
368.078	1	10
368.249	1	9
368.420	1	-2
368.591	1	5
368.762	1	-2
368.933	1	-5
369.104	1	8
369.274	1	-4
369.445	1	7
369.616	1	2
369.787	1	7
369.958	1	8
370.129	1	-6
370.300	1	3
370.471	1	8
370.641	1	6
370.812	1	5
370.983	1	-5
371.154	1	2
371.325	1	4
371.496	1	4
371.667	1	3
371.837	1	3
372.008	1	-1
372.179	1	-9
372.350	1	-1
372.521	1	2
372.692	1	5
372.863	1	-6
373.033	1	17
373.204	1	-3
373.375	1	-1
373.546	1	13
373.717	1	-7
373.888	1	6
374.059	1	6
374.229	1	-6
374.400	1	-3
374.571	1	3
374.742	1	2
374.913	1	8
375.084	1	17
375.254	1	4
375.425	1	4
375.596	1	15
375.767	1	1
375.938	1	10
376.109	1	-1
376.279	1	5
376.450	1	7
376.621	1	0
376.792	1	3
376.963	1	10
377.134	1	10
377.304	1	7
377.475	1	5
377.646	1	1
377.817	1	-7
377.988	1	-3
378.159	1	14
378.329	1	0
378.500	1	8
378.671	1	-1
378.842	1	3
379.013	1	3
379.184	1	-3
379.354	1	-1
379.525	1	2
379.696	1	5
379.867	1	2
380.038	1	9
380.209	1	9
380.379	1	0
380.550	1	14
380.721	1	0
380.892	1	7
381.063	1	7
381.233	1	14
381.404	1	5
381.575	1	9
381.746	1	8
381.917	1	3
382.087	1	10
382.258	1	15
382.429	1	5
382.600	1	8
382.771	1	1
382.941	1	18
383.112	1	-1
383.283	1	10
383.454	1	4
383.625	1	-5
383.795	1	5
383.966	1	-6
384.137	1	13
384.308	1	-2
384.479	1	-3
384.649	1	10
384.820	1	23
384.991	1	0
385.162	1	7
385.333	1	0
385.503	1	2
385.674	1	-8
385.845	1	8
386.016	1	7
386.187	1	7
386.357	1	2
386.528	1	-4
386.699	1	4
386.870	1	2
387.041	1	22
387.211	1	3
387.382	1	1
387.553	1	4
387.724	1	18
387.894	1	3
388.065	1	5
388.236	1	4
388.407	1	11
388.578	1	6
388.748	1	5
388.919	1	-1
389.090	1	14
389.261	1	0
389.431	1	5
389.602	1	14
389.773	1	17
389.944	1	10
390.114	1	14
390.285	1	-2
390.456	1	4
390.627	1	-3
390.798	1	-5
390.968	1	8
391.139	1	8
391.310	1	0
391.481	1	8
391.651	1	6
391.822	1	9
391.993	1	3
392.164	1	7
392.334	1	-5
392.505	1	18
392.676	1	21
392.847	1	11
393.017	1	10
393.188	1	12
393.359	1	3
393.530	1	11
393.700	1	-8
393.871	1	5
394.042	1	4
394.213	1	1
394.383	1	6
394.554	1	15
394.725	1	12
394.896	1	10
395.066	1	5
395.237	1	8
395.408	1	11
395.579	1	-3
395.749	1	4
395.920	1	3
396.091	1	7
396.262	1	8
396.432	1	12
396.603	1	4
396.774	1	10
396.945	1	2
397.115	1	9
397.286	1	2
397.457	1	0
397.627	1	8
397.798	1	10
397.969	1	16
398.140	1	15
398.310	1	7
398.481	1	12
398.652	1	-5
398.823	1	14
398.993	1	-3
399.164	1	11
399.335	1	6
399.505	1	10
399.676	1	-3
399.847	1	12
400.018	1	17
400.188	1	12
400.359	1	12
400.530	1	-1
400.700	1	-8
400.871	1	2
401.042	1	13
401.213	1	4
401.383	1	8
401.554	1	2
401.725	1	9
401.895	1	11
402.066	1	3
402.237	1	10
402.408	1	4
402.578	1	1
402.749	1	6
402.920	1	11
403.090	1	3
403.261	1	8
403.432	1	9
403.603	1	10
403.773	1	14
403.944	1	9
404.115	1	-7
404.285	1	7
404.456	1	10
404.627	1	10
404.797	1	7
404.968	1	16
405.139	1	6
405.310	1	10
405.480	1	11
405.651	1	0
405.822	1	2
405.992	1	4
406.163	1	12
406.334	1	11
406.504	1	11
406.675	1	24
406.846	1	10
407.016	1	11
407.187	1	6
407.358	1	19
407.528	1	7
407.699	1	1
407.870	1	20
408.041	1	11
408.211	1	10
408.382	1	15
408.553	1	14
408.723	1	3
408.894	1	2
409.065	1	1
409.235	1	14
409.406	1	6
409.577	1	6
409.747	1	7
409.918	1	7
410.089	1	11
410.259	1	-1
410.430	1	13
410.601	1	20
410.771	1	10
410.942	1	11
411.113	1	20
411.283	1	13
411.454	1	14
411.625	1	12
411.795	1	-7
411.966	1	15
412.137	1	11
412.307	1	13
412.478	1	18
412.649	1	9
412.819	1	14
412.990	1	15
413.161	1	8
413.331	1	16
413.502	1	15
413.672	1	14
413.843	1	13
414.014	1	23
414.184	1	5
414.355	1	13
414.526	1	6
414.696	1	13
414.867	1	2
415.038	1	16
415.208	1	13
415.379	1	19
415.550	1	13
415.720	1	-7
415.891	1	30
416.062	1	10
416.232	1	2
416.403	1	9
416.573	1	20
416.744	1	12
416.915	1	12
417.085	1	9
417.256	1	6
417.427	1	3
417.597	1	20
417.768	1	15
417.939	1	9
418.109	1	12
418.280	1	9
418.450	1	15
418.621	1	15
418.792	1	8
418.962	1	5
419.133	1	2
419.304	1	7
419.474	1	12
419.645	1	6
419.815	1	9
419.986	1	14
420.157	1	15
420.327	1	2
420.498	1	11
420.669	1	11
420.839	1	7
421.010	1	4
421.180	1	8
421.351	1	20
421.522	1	15
421.692	1	21
421.863	1	5
422.033	1	13
422.204	1	10
422.375	1	10
422.545	1	17
422.716	1	6
422.886	1	1
423.057	1	11
423.228	1	9
423.398	1	17
423.569	1	10
423.740	1	8
423.910	1	8
424.081	1	12
424.251	1	8
424.422	1	11
424.593	1	11
424.763	1	16
424.934	1	4
425.104	1	-3
425.275	1	18
425.445	1	-4
425.616	1	15
425.787	1	8
425.957	1	1
426.128	1	21
426.298	1	23
426.469	1	8
426.640	1	13
426.810	1	24
426.981	1	15
427.151	1	6
427.322	1	12
427.493	1	13
427.663	1	23
427.834	1	21
428.004	1	-2
428.175	1	21
428.345	1	11
428.516	1	9
428.687	1	13
428.857	1	7
429.028	1	5
429.198	1	19
429.369	1	14
429.540	1	9
429.710	1	15
429.881	1	-4
430.051	1	9
430.222	1	11
430.392	1	11
430.563	1	15
430.734	1	14
430.904	1	14
431.075	1	12
431.245	1	3
431.416	1	12
431.586	1	9
431.757	1	9
431.927	1	16
432.098	1	1
432.269	1	14
432.439	1	19
432.610	1	14
432.780	1	5
432.951	1	7
433.121	1	14
433.292	1	14
433.462	1	9
433.633	1	-3
433.804	1	3
433.974	1	12
434.145	1	4
434.315	1	9
434.486	1	16
434.656	1	19
434.827	1	8
434.997	1	20
435.168	1	10
435.339	1	3
435.509	1	13
435.680	1	10
435.850	1	8
436.021	1	21
436.191	1	16
436.362	1	11
436.532	1	15
436.703	1	15
436.873	1	1
437.044	1	5
437.214	1	5
437.385	1	11
437.556	1	4
437.726	1	9
437.897	1	6
438.067	1	16
438.238	1	3
438.408	1	13
438.579	1	5
438.749	1	-1
438.920	1	14
439.090	1	13
439.261	1	6
439.431	1	5
439.602	1	9
439.772	1	13
439.943	1	9
440.113	1	10
440.284	1	16
440.455	1	14
440.625	1	17
440.796	1	16
440.966	1	6
441.137	1	1
441.307	1	13
441.478	1	19
441.648	1	4
441.819	1	12
441.989	1	12
442.160	1	-1
442.330	1	9
442.501	1	12
442.671	1	8
442.842	1	19
443.012	1	11
443.183	1	5
443.353	1	22
443.524	1	4
443.694	1	10
443.865	1	8
444.035	1	5
444.206	1	12
444.376	1	15
444.547	1	24
444.717	1	2
444.888	1	15
445.058	1	6
445.229	1	6
445.399	1	8
445.570	1	-3
445.740	1	6
445.911	1	19
446.081	1	20
446.252	1	8
446.422	1	14
446.593	1	10
446.763	1	8
446.934	1	12
447.104	1	7
447.275	1	20
447.445	1	2
447.616	1	15
447.786	1	5
447.957	1	21
448.127	1	10
448.298	1	16
448.468	1	1
448.639	1	4
448.809	1	21
448.979	1	1
449.150	1	9
449.320	1	14
449.491	1	2
449.661	1	18
449.832	1	4
450.002	1	12
450.173	1	-1
450.343	1	5
450.514	1	9
450.684	1	16
450.855	1	21
451.025	1	15
451.196	1	9
451.366	1	17
451.537	1	7
451.707	1	13
451.878	1	9
452.048	1	5
452.218	1	6
452.389	1	7
452.559	1	0
452.730	1	9
452.900	1	7
453.071	1	4
453.241	1	12
453.412	1	14
453.582	1	9
453.753	1	6
453.923	1	8
454.093	1	8
454.264	1	11
454.434	1	17
454.605	1	10
454.775	1	4
454.946	1	21
455.116	1	12
455.287	1	4
455.457	1	17
455.628	1	9
455.798	1	8
455.968	1	22
456.139	1	0
456.309	1	8
456.480	1	5
456.650	1	22
456.821	1	17
456.991	1	4
457.161	1	8
457.332	1	9
457.502	1	-4
457.673	1	0
457.843	1	10
458.014	1	13
458.184	1	5
458.355	1	-2
458.525	1	0
458.695	1	6
458.866	1	12
459.036	1	-1
459.207	1	11
459.377	1	16
459.548	1	11
459.718	1	3
459.888	1	15
460.059	1	10
460.229	1	0
460.400	1	19
460.570	1	13
460.740	1	-3
460.911	1	6
461.081	1	7
461.252	1	18
461.422	1	0
461.593	1	-1
461.763	1	11
461.933	1	5
462.104	1	4
462.274	1	16
462.445	1	-3
462.615	1	-5
462.785	1	7
462.956	1	7
463.126	1	7
463.297	1	9
463.467	1	17
463.638	1	1
463.808	1	-5
463.978	1	1
464.149	1	13
464.319	1	-5
464.490	1	4
464.660	1	3
464.830	1	-4
465.001	1	11
465.171	1	6
465.342	1	12
465.512	1	15
465.682	1	0
465.853	1	14
466.023	1	10
466.194	1	7
466.364	1	13
466.534	1	5
466.705	1	12
466.875	1	6
467.045	1	4
467.216	1	5
467.386	1	7
467.557	1	0
467.727	1	3
467.897	1	-6
468.068	1	10
468.238	1	2
468.409	1	4
468.579	1	0
468.749	1	9
468.920	1	-1
469.090	1	10
469.260	1	-1
469.431	1	10
469.601	1	6
469.772	1	4
469.942	1	18
470.112	1	7
470.283	1	15
470.453	1	5
470.623	1	10
470.794	1	4
470.964	1	-1
471.135	1	2
471.305	1	9
471.475	1	3
471.646	1	2
471.816	1	6
471.986	1	8
472.157	1	1
472.327	1	0
472.497	1	-7
472.668	1	6
472.838	1	-7
473.009	1	18
473.179	1	9
473.349	1	10
473.520	1	10
473.690	1	15
473.860	1	-5
474.031	1	3
474.201	1	9
474.371	1	2
474.542	1	11
474.712	1	-5
474.882	1	13
475.053	1	17
475.223	1	12
475.394	1	6
475.564	1	5
475.734	1	3
475.905	1	3
476.075	1	-6
476.245	1	14
476.416	1	-3
476.586	1	2
476.756	1	11
476.927	1	13
477.097	1	8
477.267	1	9
477.438	1	-10
477.608	1	3
477.778	1	17
477.949	1	8
478.119	1	6
478.289	1	18
478.460	1	5
478.630	1	2
478.800	1	10
478.971	1	7
479.141	1	1
479.311	1	11
479.482	1	3
479.652	1	7
479.822	1	-6
479.993	1	10
480.163	1	-2
480.333	1	12
480.504	1	12
480.674	1	9
480.844	1	8
481.015	1	-1
481.185	1	1
481.355	1	-4
481.525	1	10
481.696	1	12
481.866	1	-5
482.036	1	-2
482.207	1	-4
482.377	1	3
482.547	1	-1
482.718	1	0
482.888	1	8
483.058	1	4
483.229	1	1
483.399	1	10
483.569	1	11
483.740	1	9
483.910	1	-12
484.080	1	8
484.250	1	10
484.421	1	12
484.591	1	0
484.761	1	2
484.932	1	7
485.102	1	4
485.272	1	7
485.443	1	-2
485.613	1	6
485.783	1	-10
485.953	1	-3
486.124	1	-6
486.294	1	-5
486.464	1	0
486.635	1	-4
486.805	1	-7
486.975	1	8
487.146	1	2
487.316	1	6
487.486	1	10
487.656	1	-3
487.827	1	5
487.997	1	-6
488.167	1	10
488.338	1	-7
488.508	1	-3
488.678	1	-2
488.848	1	4
489.019	1	13
489.189	1	10
489.359	1	2
489.529	1	-8
489.700	1	-2
489.870	1	-3
490.040	1	-1
490.211	1	3
490.381	1	5
490.551	1	0
490.721	1	2
490.892	1	13
491.062	1	0
491.232	1	-8
491.402	1	-1
491.573	1	-1
491.743	1	6
491.913	1	2
492.084	1	7
492.254	1	12
492.424	1	1
492.594	1	10
492.765	1	5
492.935	1	11
493.105	1	9
493.275	1	-3
493.446	1	10
493.616	1	1
493.786	1	7
493.956	1	-1
494.127	1	-4
494.297	1	10
494.467	1	-1
494.637	1	13
494.808	1	-5
494.978	1	-6
495.148	1	9
495.318	1	-14
495.489	1	-2
495.659	1	14
495.829	1	11
495.999	1	6
496.170	1	-2
496.340	1	19
496.510	1	-2
496.680	1	-3
496.851	1	-7
497.021	1	4
497.191	1	-6
497.361	1	-2
497.532	1	-4
497.702	1	5
497.872	1	-2
498.042	1	8
498.213	1	14
498.383	1	7
498.553	1	0
498.723	1	-2
498.894	1	9
499.064	1	-3
499.234	1	-5
499.404	1	0
499.574	1	7
499.745	1	6
499.915	1	0
500.085	1	4
500.255	1	9
500.426	1	-2
500.596	1	8
500.766	1	-6
500.936	1	7
501.106	1	1
501.277	1	1
501.447	1	-5
501.617	1	-4
501.787	1	14
501.958	1	2
502.128	1	12
502.298	1	4
502.468	1	4
502.638	1	4
502.809	1	6
502.979	1	-9
503.149	1	2
503.319	1	-9
503.489	1	-3
503.660	1	0
503.830	1	3
504.000	1	6
504.170	1	-2
504.340	1	-10
504.511	1	12
504.681	1	7
504.851	1	9
505.021	1	5
505.192	1	5
505.362	1	6
505.532	1	-9
505.702	1	-7
505.872	1	2
506.043	1	4
506.213	1	2
506.383	1	11
506.553	1	-5
506.723	1	11
506.893	1	-1
507.064	1	1
507.234	1	2
507.404	1	11
507.574	1	7
507.744	1	2
507.915	1	-1
508.085	1	-8
508.255	1	5
508.425	1	-1
508.595	1	9
508.766	1	-6
508.936	1	14
509.106	1	-9
509.276	1	8
509.446	1	5
509.616	1	-5
509.787	1	8
509.957	1	-7
510.127	1	0
510.297	1	1
510.467	1	-4
510.638	1	5
510.808	1	-8
510.978	1	1
511.148	1	15
511.318	1	-7
511.488	1	6
511.659	1	4
511.829	1	3
511.999	1	-11
512.169	1	2
512.339	1	-4
512.509	1	-4
512.680	1	-11
512.850	1	-6
513.020	1	-4
513.190	1	-3
513.360	1	0
513.530	1	-3
513.700	1	-5
513.871	1	9
514.041	1	1
514.211	1	-5
514.381	1	9
514.551	1	-9
514.721	1	-6
514.892	1	5
515.062	1	6
515.232	1	9
515.402	1	6
515.572	1	1
515.742	1	11
515.912	1	2
516.083	1	-6
516.253	1	0
516.423	1	-4
516.593	1	-2
516.763	1	3
516.933	1	9
517.104	1	-5
517.274	1	8
517.444	1	0
517.614	1	12
517.784	1	-6
517.954	1	3
518.124	1	-5
518.294	1	0
518.465	1	3
518.635	1	7
518.805	1	0
518.975	1	-5
519.145	1	6
519.315	1	-4
519.485	1	6
519.656	1	-10
519.826	1	5
519.996	1	-3
520.166	1	-9
520.336	1	-1
520.506	1	2
520.676	1	18
520.846	1	2
521.017	1	4
521.187	1	2
521.357	1	0
521.527	1	-6
521.697	1	5
521.867	1	-4
522.037	1	-7
522.207	1	1
522.377	1	10
522.548	1	17
522.718	1	5
522.888	1	3
523.058	1	2
523.228	1	-10
523.398	1	4
523.568	1	2
523.738	1	-2
523.909	1	1
524.079	1	-3
524.249	1	7
524.419	1	9
524.589	1	3
524.759	1	3
524.929	1	-9
525.099	1	-11
525.269	1	-5
525.439	1	1
525.610	1	-12
525.780	1	4
525.950	1	11
526.120	1	7
526.290	1	-2
526.460	1	3
526.630	1	2
526.800	1	-5
526.970	1	5
527.140	1	13
527.311	1	20
527.481	1	-10
527.651	1	2
527.821	1	-1
527.991	1	-1
528.161	1	1
528.331	1	2
528.501	1	2
528.671	1	4
528.841	1	18
529.011	1	0
529.181	1	2
529.352	1	5
529.522	1	9
529.692	1	-1
529.862	1	0
530.032	1	-3
530.202	1	12
530.372	1	14
530.542	1	-2
530.712	1	15
530.882	1	10
531.052	1	-6
531.222	1	4
531.392	1	5
531.563	1	3
531.733	1	-4
531.903	1	1
532.073	1	7
532.243	1	7
532.413	1	-1
532.583	1	4
532.753	1	14
532.923	1	1
533.093	1	-6
533.263	1	-4
533.433	1	4
533.603	1	-7
533.773	1	1
533.943	1	7
534.113	1	2
534.284	1	-12
534.454	1	8
534.624	1	11
534.794	1	4
534.964	1	0
535.134	1	9
535.304	1	8
535.474	1	-2
535.644	1	1
535.814	1	5
535.984	1	-4
536.154	1	1
536.324	1	-15
536.494	1	9
536.664	1	-2
536.834	1	6
537.004	1	5
537.174	1	7
537.344	1	6
537.514	1	-4
537.685	1	-2
537.855	1	0
538.025	1	0
538.195	1	12
538.365	1	9
538.535	1	-8
538.705	1	-6
538.875	1	3
539.045	1	13
539.215	1	-4
539.385	1	2
539.555	1	-6
539.725	1	-6
539.895	1	-4
540.065	1	0
540.235	1	3
540.405	1	-8
540.575	1	4
540.745	1	1
540.915	1	-4
541.085	1	-4
541.255	1	3
541.425	1	-8
541.595	1	5
541.765	1	11
541.935	1	4
542.105	1	3
542.275	1	6
542.445	1	7
542.615	1	5
542.785	1	-1
542.955	1	0
543.125	1	-5
543.295	1	3
543.465	1	3
543.635	1	4
543.805	1	5
543.975	1	-3
544.145	1	5
544.315	1	1
544.485	1	-3
544.655	1	2
544.825	1	1
544.995	1	15
545.165	1	-1
545.335	1	-8
545.505	1	-4
545.675	1	-6
545.845	1	5
546.015	1	3
546.185	1	5
546.355	1	-5
546.525	1	-1
546.695	1	6
546.865	1	10
547.035	1	-3
547.205	1	5
547.375	1	-2
547.545	1	-8
547.715	1	4
547.885	1	-8
548.055	1	4
548.225	1	11
548.395	1	-5
548.565	1	7
548.735	1	1
548.905	1	4
549.075	1	2
549.245	1	-4
549.415	1	-1
549.585	1	4
549.755	1	3
549.925	1	-6
550.095	1	-4
550.265	1	10
550.435	1	2
550.605	1	1
550.775	1	16
550.945	1	1
551.115	1	7
551.285	1	-1
551.455	1	5
551.625	1	5
551.795	1	-8
551.965	1	-4
552.135	1	3
552.305	1	6
552.475	1	0
552.645	1	-2
552.815	1	8
552.985	1	-4
553.155	1	2
553.325	1	-8
553.495	1	2
553.665	1	-3
553.835	1	1
554.004	1	8
554.174	1	-1
554.344	1	-3
554.514	1	5
554.684	1	-2
554.854	1	-3
555.024	1	-4
555.194	1	-9
555.364	1	4
555.534	1	-5
555.704	1	6
555.874	1	6
556.044	1	-3
556.214	1	6
556.384	1	1
556.554	1	-4
556.724	1	1
556.894	1	-1
557.064	1	2
557.234	1	-3
557.404	1	2
557.573	1	1
557.743	1	1
557.913	1	-4
558.083	1	-3
558.253	1	-1
558.423	1	-3
558.593	1	-12
558.763	1	8
558.933	1	1
559.103	1	8
559.273	1	0
559.443	1	1
559.613	1	-4
559.783	1	-12
559.953	1	-1
560.122	1	3
560.292	1	8
560.462	1	-5
560.632	1	-2
560.802	1	8
560.972	1	-10
561.142	1	0
561.312	1	-5
561.482	1	-6
561.652	1	-1
561.822	1	-7
561.992	1	-3
562.162	1	7
562.331	1	11
562.501	1	-3
562.671	1	-3
562.841	1	-9
563.011	1	5
563.181	1	-2
563.351	1	2
563.521	1	0
563.691	1	-9
563.861	1	7
564.031	1	7
564.201	1	4
564.370	1	1
564.540	1	-1
564.710	1	-5
564.880	1	0
565.050	1	0
565.220	1	0
565.390	1	-3
565.560	1	5
565.730	1	8
565.900	1	2
566.069	1	3
566.239	1	-4
566.409	1	-11
566.579	1	9
566.749	1	1
566.919	1	-2
567.089	1	8
567.259	1	1
567.429	1	-1
567.599	1	3
567.768	1	1
567.938	1	-13
568.108	1	11
568.278	1	-1
568.448	1	-2
568.618	1	-1
568.788	1	-3
568.958	1	1
569.128	1	15
569.297	1	2
569.467	1	-3
569.637	1	-2
569.807	1	6
569.977	1	4
570.147	1	-5
570.317	1	-7
570.487	1	-3
570.656	1	-14
570.826	1	-1
570.996	1	-3
571.166	1	-1
571.336	1	-4
571.506	1	5
571.676	1	5
571.846	1	7
572.015	1	-2
572.185	1	-1
572.355	1	-1
572.525	1	-13
572.695	1	-4
572.865	1	-17
573.035	1	8
573.205	1	0
573.374	1	1
573.544	1	6
573.714	1	-10
573.884	1	5
574.054	1	0
574.224	1	-6
574.394	1	2
574.563	1	4
574.733	1	0
574.903	1	-1
575.073	1	14
575.243	1	4
575.413	1	-6
575.583	1	4
575.752	1	-5
575.922	1	2
576.092	1	-5
576.262	1	4
576.432	1	4
576.602	1	-2
576.772	1	13
576.941	1	2
577.111	1	2
577.281	1	-8
577.451	1	3
577.621	1	2
577.791	1	1
577.960	1	3
578.130	1	-2
578.300	1	-5
578.470	1	0
578.640	1	3
578.810	1	-6
578.979	1	-2
579.149	1	-1
579.319	1	4
579.489	1	-6
579.659	1	-3
579.829	1	1
579.998	1	-4
580.168	1	3
580.338	1	7
580.508	1	11
580.678	1	2
580.848	1	4
581.017	1	12
581.187	1	3
581.357	1	-3
581.527	1	-8
581.697	1	1
581.867	1	4
582.036	1	-1
582.206	1	7
582.376	1	2
582.546	1	-9
582.716	1	-5
582.885	1	-14
583.055	1	-2
583.225	1	-2
583.395	1	5
583.565	1	9
583.735	1	6
583.904	1	4
584.074	1	-11
584.244	1	-7
584.414	1	-5
584.584	1	5
584.753	1	11
584.923	1	-5
585.093	1	5
585.263	1	3
585.433	1	-5
585.602	1	2
585.772	1	-12
585.942	1	11
586.112	1	-5
586.282	1	-3
586.451	1	6
586.621	1	9
586.791	1	3
586.961	1	-9
587.131	1	-5
587.300	1	1
587.470	1	-4
587.640	1	4
587.810	1	8
587.980	1	-8
588.149	1	2
588.319	1	2
588.489	1	-3
588.659	1	-6
588.829	1	1
588.998	1	6
589.168	1	1
589.338	1	4
589.508	1	1
589.677	1	-3
589.847	1	-2
590.017	1	-6
590.187	1	3
590.357	1	3
590.526	1	-6
590.696	1	-8
590.866	1	-7
591.036	1	3
591.205	1	4
591.375	1	-10
591.545	1	1
591.715	1	-6
591.885	1	5
592.054	1	-5
592.224	1	9
592.394	1	-3
592.564	1	4
592.733	1	-6
592.903	1	4
593.073	1	-2
593.243	1	5
593.412	1	5
593.582	1	1
593.752	1	-2
593.922	1	-9
594.091	1	0
594.261	1	-6
594.431	1	9
594.601	1	-6
594.771	1	11
594.940	1	8
595.110	1	12
595.280	1	-9
595.450	1	5
595.619	1	-3
595.789	1	-7
595.959	1	6
596.129	1	-7
596.298	1	5
596.468	1	2
596.638	1	-5
596.808	1	-4
596.977	1	-1
597.147	1	-6
597.317	1	-4
597.487	1	-1
597.656	1	-1
597.826	1	11
597.996	1	7
598.166	1	6
598.335	1	3
598.505	1	4
598.675	1	-8
598.844	1	-1
599.014	1	8
599.184	1	-1
599.354	1	12
599.523	1	-4
599.693	1	7
599.863	1	5
600.033	1	-14
600.202	1	15
600.372	1	-5
600.542	1	7
600.712	1	-3
600.881	1	-10
601.051	1	0
601.221	1	11
601.390	1	-8
601.560	1	3
601.730	1	6
601.900	1	-3
602.069	1	3
602.239	1	9
602.409	1	2
602.578	1	-1
602.748	1	5
602.918	1	-3
603.088	1	8
603.257	1	1
603.427	1	6
603.597	1	2
603.767	1	-2
603.936	1	1
604.106	1	11
604.276	1	6
604.445	1	5
604.615	1	-9
604.785	1	15
604.954	1	7
605.124	1	-11
605.294	1	-2
605.464	1	-2
605.633	1	0
605.803	1	4
605.973	1	17
606.142	1	5
606.312	1	-10
606.482	1	-1
606.652	1	-9
606.821	1	-3
606.991	1	3
607.161	1	4
607.330	1	1
607.500	1	4
607.670	1	8
607.839	1	9
608.009	1	7
608.179	1	-7
608.348	1	2
608.518	1	-2
608.688	1	-7
608.858	1	12
609.027	1	8
609.197	1	-2
609.367	1	11
609.536	1	-3
609.706	1	2
609.876	1	0
610.045	1	6
610.215	1	-1
610.385	1	-9
610.554	1	-1
610.724	1	-5
610.894	1	6
611.063	1	-10
611.233	1	10
611.403	1	-1
611.572	1	11
611.742	1	6
611.912	1	11
612.081	1	-2
612.251	1	12
612.421	1	5
612.590	1	-2
612.760	1	8
612.930	1	-7
613.099	1	2
613.269	1	-3
613.439	1	-10
613.608	1	6
613.778	1	-6
613.948	1	6
614.117	1	12
614.287	1	4
614.457	1	-5
614.626	1	9
614.796	1	-4
614.966	1	6
615.135	1	9
615.305	1	8
615.475	1	-1
615.644	1	6
615.814	1	-4
615.984	1	10
616.153	1	3
616.323	1	5
616.493	1	11
616.662	1	5
616.832	1	3
617.002	1	-7
617.171	1	-2
617.341	1	0
617.511	1	12
617.680	1	13
617.850	1	2
618.019	1	8
618.189	1	6
618.359	1	-1
618.528	1	-8
618.698	1	11
618.868	1	-15
619.037	1	5
619.207	1	-2
619.377	1	0
619.546	1	5
619.716	1	10
619.885	1	10
620.055	1	1
620.225	1	11
620.394	1	-3
620.564	1	3
620.734	1	4
620.903	1	11
621.073	1	-1
621.242	1	-6
621.412	1	-2
621.582	1	6
621.751	1	8
621.921	1	8
622.091	1	2
622.260	1	-7
622.430	1	4
622.599	1	-3
622.769	1	-2
622.939	1	3
623.108	1	-3
623.278	1	-1
623.448	1	6
623.617	1	3
623.787	1	11
623.956	1	2
624.126	1	15
624.296	1	6
624.465	1	-3
624.635	1	7
624.804	1	-1
624.974	1	8
625.144	1	-1
625.313	1	-1
625.483	1	21
625.652	1	4
625.822	1	0
625.992	1	3
626.161	1	16
626.331	1	5
626.501	1	8
626.670	1	10
626.840	1	4
627.009	1	8
627.179	1	4
627.348	1	16
627.518	1	9
627.688	1	8
627.857	1	5
628.027	1	-9
628.196	1	-5
628.366	1	-8
628.536	1	-5
628.705	1	3
628.875	1	18
629.044	1	10
629.214	1	4
629.384	1	-1
629.553	1	4
629.723	1	-5
629.892	1	9
630.062	1	0
630.232	1	8
630.401	1	20
630.571	1	6
630.740	1	8
630.910	1	2
631.079	1	2
631.249	1	2
631.419	1	-5
631.588	1	-7
631.758	1	4
631.927	1	7
632.097	1	6
632.266	1	0
632.436	1	9
632.606	1	0
632.775	1	12
632.945	1	20
633.114	1	0
633.284	1	3
633.453	1	2
633.623	1	10
633.793	1	-1
633.962	1	9
634.132	1	4
634.301	1	2
634.471	1	-4
634.640	1	8
634.810	1	3
634.979	1	-1
635.149	1	7
635.319	1	10
635.488	1	5
635.658	1	5
635.827	1	2
635.997	1	7
636.166	1	-9
636.336	1	1
636.505	1	2
636.675	1	5
636.845	1	4
637.014	1	0
637.184	1	4
637.353	1	0
637.523	1	5
637.692	1	11
637.862	1	5
638.031	1	-4
638.201	1	7
638.370	1	10
638.540	1	-8
638.710	1	12
638.879	1	-2
639.049	1	9
639.218	1	3
639.388	1	3
639.557	1	9
639.727	1	6
639.896	1	0
640.066	1	24
640.235	1	9
640.405	1	7
640.574	1	0
640.744	1	9
640.914	1	0
641.083	1	9
641.253	1	9
641.422	1	3
641.592	1	1
641.761	1	5
641.931	1	5
642.100	1	-4
642.270	1	-7
642.439	1	-6
642.609	1	2
642.778	1	2
642.948	1	4
643.117	1	17
643.287	1	6
643.456	1	4
643.626	1	11
643.795	1	4
643.965	1	13
644.134	1	-5
644.304	1	3
644.473	1	3
644.643	1	-3
644.812	1	11
644.982	1	18
645.151	1	17
645.321	1	3
645.490	1	-1
645.660	1	0
645.829	1	3
645.999	1	9
646.168	1	-5
646.338	1	7
646.507	1	10
646.677	1	3
646.846	1	2
647.016	1	6
647.185	1	5
647.355	1	1
647.524	1	6
647.694	1	-2
647.863	1	-2
648.033	1	7
648.202	1	-3
648.372	1	9
648.541	1	6
648.711	1	2
648.880	1	3
649.050	1	0
649.219	1	-3
649.389	1	3
649.558	1	-13
649.728	1	3
649.897	1	1
650.067	1	2
650.236	1	3
650.406	1	-8
650.575	1	8
650.745	1	10
650.914	1	-1
651.084	1	-7
651.253	1	2
651.423	1	1
651.592	1	8
651.762	1	13
651.931	1	0
652.101	1	4
652.270	1	15
652.440	1	6
652.609	1	0
652.778	1	-11
652.948	1	1
653.117	1	4
653.287	1	7
653.456	1	3
653.626	1	2
653.795	1	4
653.965	1	-1
654.134	1	4
654.304	1	9
654.473	1	9
654.643	1	-1
654.812	1	6
654.982	1	-6
655.151	1	5
655.320	1	-5
655.490	1	10
655.659	1	-2
655.829	1	11
655.998	1	4
656.168	1	10
656.337	1	11
656.507	1	4
656.676	1	8
656.846	1	-2
657.015	1	-4
657.184	1	3
657.354	1	-1
657.523	1	-1
657.693	1	8
657.862	1	2
658.032	1	-2
658.201	1	0
658.371	1	1
658.540	1	-5
658.709	1	-4
658.879	1	-13
659.048	1	-3
659.218	1	0
659.387	1	-4
659.557	1	6
659.726	1	9
659.895	1	7
660.065	1	-10
660.234	1	9
660.404	1	8
660.573	1	5
660.743	1	4
660.912	1	10
661.081	1	16
661.251	1	3
661.420	1	-4
661.590	1	2
661.759	1	-2
661.929	1	-1
662.098	1	0
662.267	1	3
662.437	1	4
662.606	1	10
662.776	1	5
662.945	1	0
663.115	1	11
663.284	1	6
663.453	1	-7
663.623	1	10
663.792	1	1
663.962	1	-1
664.131	1	-1
664.300	1	-2
664.470	1	3
664.639	1	-6
664.809	1	5
664.978	1	6
665.148	1	12
665.317	1	-2
665.486	1	0
665.656	1	-12
665.825	1	0
665.995	1	-3
666.164	1	5
666.333	1	8
666.503	1	7
666.672	1	3
666.842	1	4
667.011	1	2
667.180	1	-5
667.350	1	3
667.519	1	6
667.689	1	-6
667.858	1	10
668.027	1	21
668.197	1	13
668.366	1	1
668.536	1	5
668.705	1	-1
668.874	1	5
669.044	1	-2
669.213	1	1
669.382	1	2
669.552	1	14
669.721	1	9
669.891	1	4
670.060	1	11
670.229	1	4
670.399	1	12
670.568	1	-5
670.738	1	4
670.907	1	7
671.076	1	13
671.246	1	8
671.415	1	15
671.584	1	8
671.754	1	1
671.923	1	0
672.093	1	15
672.262	1	5
672.431	1	-2
672.601	1	0
672.770	1	0
672.939	1	2
673.109	1	-5
673.278	1	15
673.448	1	-6
673.617	1	-5
673.786	1	2
