325.333	1	2
325.504	1	1
325.675	1	0
325.846	1	10
326.017	1	17
326.188	1	9
326.359	1	7
326.531	1	8
326.702	1	4
326.873	1	15
327.044	1	3
327.215	1	9
327.386	1	6
327.557	1	4
327.728	1	14
327.899	1	20
328.070	1	10
328.241	1	-1
328.412	1	17
328.583	1	0
328.754	1	9
328.926	1	6
329.097	1	6
329.268	1	6
329.439	1	10
329.610	1	20
329.781	1	8
329.952	1	19
330.123	1	5
330.294	1	4
330.465	1	2
330.636	1	10
330.807	1	7
330.978	1	8
331.149	1	19
331.320	1	16
331.492	1	12
331.663	1	12
331.834	1	9
332.005	1	17
332.176	1	8
332.347	1	16
332.518	1	14
332.689	1	10
332.860	1	12
333.031	1	5
333.202	1	-2
333.373	1	10
333.544	1	4
333.715	1	13
333.886	1	3
334.057	1	10
334.228	1	7
334.399	1	8
334.570	1	16
334.741	1	13
334.912	1	15
335.084	1	5
335.255	1	10
335.426	1	4
335.597	1	12
335.768	1	19
335.939	1	4
336.110	1	6
336.281	1	2
336.452	1	17
336.623	1	5
336.794	1	13
336.965	1	5
337.136	1	6
337.307	1	7
337.478	1	14
337.649	1	12
337.820	1	2
337.991	1	12
338.162	1	15
338.333	1	11
338.504	1	3
338.675	1	14
338.846	1	11
339.017	1	15
339.188	1	14
339.359	1	13
339.530	1	11
339.701	1	-6
339.872	1	16
340.043	1	-18
340.214	1	3
340.385	1	13
340.556	1	18
340.727	1	20
340.898	1	14
341.069	1	13
341.240	1	1
341.411	1	-1
341.582	1	6
341.753	1	8
341.924	1	3
342.095	1	6
342.266	1	16
342.437	1	12
342.608	1	13
342.779	1	0
342.950	1	10
343.121	1	10
343.292	1	2
343.463	1	13
343.634	1	-3
343.805	1	12
343.976	1	11
344.147	1	10
344.318	1	6
344.489	1	13
344.660	1	3
344.831	1	16
345.002	1	15
345.173	1	9
345.344	1	5
345.515	1	1
345.686	1	19
345.857	1	10
346.028	1	14
346.199	1	-3
346.370	1	20
346.541	1	8
346.712	1	3
346.883	1	9
347.054	1	6
347.225	1	5
347.396	1	1
347.567	1	21
347.738	1	2
347.909	1	10
348.080	1	10
348.251	1	8
348.422	1	14
348.593	1	-7
348.764	1	6
348.935	1	3
349.106	1	8
349.277	1	11
349.448	1	14
349.619	1	5
349.790	1	20
349.961	1	16
350.132	1	19
350.303	1	12
350.474	1	-2
350.645	1	20
350.816	1	6
350.987	1	13
351.157	1	12
351.328	1	14
351.499	1	16
351.670	1	11
351.841	1	11
352.012	1	12
352.183	1	6
352.354	1	4
352.525	1	14
352.696	1	21
352.867	1	7
353.038	1	7
353.209	1	12
353.380	1	2
353.551	1	-3
353.722	1	10
353.893	1	-1
354.064	1	10
354.235	1	7
354.406	1	12
354.576	1	11
354.747	1	17
354.918	1	11
355.089	1	17
355.260	1	29
355.431	1	6
355.602	1	14
355.773	1	8
355.944	1	2
356.115	1	22
356.286	1	20
356.457	1	7
356.628	1	5
356.799	1	7
356.970	1	20
357.141	1	3
357.311	1	12
357.482	1	8
357.653	1	17
357.824	1	9
357.995	1	3
358.166	1	-4
358.337	1	8
358.508	1	13
358.679	1	14
358.850	1	5
359.021	1	7
359.192	1	22
359.363	1	17
359.533	1	2
359.704	1	15
359.875	1	13
360.046	1	8
360.217	1	8
360.388	1	17
360.559	1	17
360.730	1	12
360.901	1	4
361.072	1	14
361.243	1	6
361.414	1	12
361.584	1	-2
361.755	1	12
361.926	1	11
362.097	1	6
362.268	1	11
362.439	1	15
362.610	1	8
362.781	1	16
362.952	1	21
363.123	1	5
363.293	1	5
363.464	1	6
363.635	1	14
363.806	1	9
363.977	1	4
364.148	1	-4
364.319	1	5
364.490	1	8
364.661	1	6
364.832	1	6
365.002	1	7
365.173	1	12
365.344	1	14
365.515	1	3
365.686	1	8
365.857	1	9
366.028	1	3
366.199	1	0
366.370	1	12
366.540	1	10
366.711	1	2
366.882	1	0
367.053	1	7
367.224	1	19
367.395	1	14
367.566	1	-2
367.737	1	12
367.908	1	2
368.078	1	13
368.249	1	3
368.420	1	11
368.591	1	16
368.762	1	4
368.933	1	1
369.104	1	17
369.274	1	-1
369.445	1	20
369.616	1	10
369.787	1	13
369.958	1	6
370.129	1	0
370.300	1	11
370.471	1	8
370.641	1	11
370.812	1	11
370.983	1	-2
371.154	1	11
371.325	1	10
371.496	1	19
371.667	1	11
371.837	1	14
372.008	1	-1
372.179	1	-2
372.350	1	7
372.521	1	4
372.692	1	5
372.863	1	5
373.033	1	19
373.204	1	-4
373.375	1	8
373.546	1	15
373.717	1	5
373.888	1	3
374.059	1	7
374.229	1	0
374.400	1	-1
374.571	1	16
374.742	1	4
374.913	1	7
375.084	1	10
375.254	1	14
375.425	1	8
375.596	1	18
375.767	1	14
375.938	1	12
376.109	1	16
376.279	1	-1
376.450	1	13
376.621	1	11
376.792	1	6
376.963	1	6
377.134	1	11
377.304	1	23
377.475	1	13
377.646	1	5
377.817	1	-6
377.988	1	3
378.159	1	21
378.329	1	13
378.500	1	20
378.671	1	13
378.842	1	3
379.013	1	1
379.184	1	6
379.354	1	4
379.525	1	6
379.696	1	18
379.867	1	17
380.038	1	18
380.209	1	9
380.379	1	7
380.550	1	17
380.721	1	1
380.892	1	10
381.063	1	10
381.233	1	9
381.404	1	12
381.575	1	9
381.746	1	24
381.917	1	9
382.087	1	22
382.258	1	25
382.429	1	13
382.600	1	20
382.771	1	7
382.941	1	25
383.112	1	9
383.283	1	15
383.454	1	1
383.625	1	3
383.795	1	8
383.966	1	7
384.137	1	15
384.308	1	13
384.479	1	-1
384.649	1	4
384.820	1	18
384.991	1	12
385.162	1	18
385.333	1	13
385.503	1	16
385.674	1	-5
385.845	1	18
386.016	1	8
386.187	1	23
386.357	1	15
386.528	1	6
386.699	1	14
386.870	1	6
387.041	1	29
387.211	1	14
387.382	1	7
387.553	1	10
387.724	1	22
387.894	1	17
388.065	1	10
388.236	1	13
388.407	1	18
388.578	1	17
388.748	1	16
388.919	1	13
389.090	1	11
389.261	1	6
389.431	1	7
389.602	1	19
389.773	1	28
389.944	1	24
390.114	1	22
390.285	1	8
390.456	1	8
390.627	1	17
390.798	1	10
390.968	1	29
391.139	1	3
391.310	1	14
391.481	1	15
391.651	1	20
391.822	1	27
391.993	1	11
392.164	1	17
392.334	1	4
392.505	1	23
392.676	1	26
392.847	1	22
393.017	1	20
393.188	1	24
393.359	1	9
393.530	1	18
393.700	1	11
393.871	1	13
394.042	1	11
394.213	1	15
394.383	1	7
394.554	1	17
394.725	1	6
394.896	1	24
395.066	1	13
395.237	1	13
395.408	1	13
395.579	1	11
395.749	1	12
395.920	1	-4
396.091	1	14
396.262	1	21
396.432	1	13
396.603	1	9
396.774	1	16
396.945	1	18
397.115	1	7
397.286	1	18
397.457	1	17
397.627	1	3
397.798	1	16
397.969	1	16
398.140	1	7
398.310	1	7
398.481	1	16
398.652	1	-2
398.823	1	17
398.993	1	14
399.164	1	24
399.335	1	23
399.505	1	10
399.676	1	15
399.847	1	10
400.018	1	22
400.188	1	11
400.359	1	6
400.530	1	25
400.700	1	24
400.871	1	6
401.042	1	13
401.213	1	13
401.383	1	12
401.554	1	18
401.725	1	15
401.895	1	23
402.066	1	16
402.237	1	30
402.408	1	17
402.578	1	15
402.749	1	7
402.920	1	20
403.090	1	12
403.261	1	11
403.432	1	20
403.603	1	16
403.773	1	30
403.944	1	16
404.115	1	12
404.285	1	23
404.456	1	9
404.627	1	13
404.797	1	12
404.968	1	14
405.139	1	14
405.310	1	21
405.480	1	22
405.651	1	11
405.822	1	13
405.992	1	8
406.163	1	19
406.334	1	16
406.504	1	26
406.675	1	29
406.846	1	28
407.016	1	16
407.187	1	24
407.358	1	14
407.528	1	22
407.699	1	1
407.870	1	30
408.041	1	30
408.211	1	23
408.382	1	17
408.553	1	23
408.723	1	15
408.894	1	11
409.065	1	5
409.235	1	15
409.406	1	9
409.577	1	9
409.747	1	18
409.918	1	26
410.089	1	32
410.259	1	0
410.430	1	29
410.601	1	21
410.771	1	21
410.942	1	6
411.113	1	21
411.283	1	17
411.454	1	26
411.625	1	21
411.795	1	4
411.966	1	35
412.137	1	28
412.307	1	15
412.478	1	20
412.649	1	11
412.819	1	20
412.990	1	9
413.161	1	21
413.331	1	25
413.502	1	17
413.672	1	21
413.843	1	18
414.014	1	24
414.184	1	20
414.355	1	22
414.526	1	15
414.696	1	18
414.867	1	14
415.038	1	20
415.208	1	25
415.379	1	29
415.550	1	22
415.720	1	5
415.891	1	20
416.062	1	22
416.232	1	10
416.403	1	16
416.573	1	22
416.744	1	9
416.915	1	30
417.085	1	19
417.256	1	11
417.427	1	22
417.597	1	19
417.768	1	19
417.939	1	21
418.109	1	19
418.280	1	11
418.450	1	22
418.621	1	15
418.792	1	14
418.962	1	8
419.133	1	18
419.304	1	19
419.474	1	23
419.645	1	26
419.815	1	17
419.986	1	21
420.157	1	22
420.327	1	12
420.498	1	20
420.669	1	19
420.839	1	23
421.010	1	23
421.180	1	26
421.351	1	23
421.522	1	18
421.692	1	24
421.863	1	24
422.033	1	10
422.204	1	20
422.375	1	12
422.545	1	19
422.716	1	14
422.886	1	9
423.057	1	24
423.228	1	30
423.398	1	15
423.569	1	17
423.740	1	28
423.910	1	18
424.081	1	21
424.251	1	10
424.422	1	15
424.593	1	16
424.763	1	26
424.934	1	16
425.104	1	23
425.275	1	12
425.445	1	1
425.616	1	20
425.787	1	12
425.957	1	12
426.128	1	14
426.298	1	29
426.469	1	25
426.640	1	16
426.810	1	39
426.981	1	28
427.151	1	16
427.322	1	30
427.493	1	20
427.663	1	28
427.834	1	19
428.004	1	16
428.175	1	31
428.345	1	23
428.516	1	25
428.687	1	29
428.857	1	19
429.028	1	17
429.198	1	24
429.369	1	23
429.540	1	19
429.710	1	28
429.881	1	17
430.051	1	19
430.222	1	29
430.392	1	12
430.563	1	27
430.734	1	26
430.904	1	14
431.075	1	27
431.245	1	17
431.416	1	23
431.586	1	11
431.757	1	11
431.927	1	29
432.098	1	9
432.269	1	17
432.439	1	14
432.610	1	33
432.780	1	14
432.951	1	27
433.121	1	26
433.292	1	24
433.462	1	10
433.633	1	16
433.804	1	6
433.974	1	19
434.145	1	11
434.315	1	15
434.486	1	24
434.656	1	33
434.827	1	19
434.997	1	29
435.168	1	22
435.339	1	14
435.509	1	18
435.680	1	16
435.850	1	18
436.021	1	24
436.191	1	28
436.362	1	24
436.532	1	26
436.703	1	23
436.873	1	22
437.044	1	11
437.214	1	14
437.385	1	16
437.556	1	14
437.726	1	26
437.897	1	24
438.067	1	9
438.238	1	15
438.408	1	18
438.579	1	25
438.749	1	14
438.920	1	24
439.090	1	33
439.261	1	23
439.431	1	17
439.602	1	20
439.772	1	18
439.943	1	18
440.113	1	20
440.284	1	19
440.455	1	25
440.625	1	23
440.796	1	19
440.966	1	16
441.137	1	8
441.307	1	15
441.478	1	20
441.648	1	17
441.819	1	23
441.989	1	21
442.160	1	8
442.330	1	15
442.501	1	14
442.671	1	6
442.842	1	31
443.012	1	16
443.183	1	26
443.353	1	22
443.524	1	16
443.694	1	6
443.865	1	24
444.035	1	14
444.206	1	14
444.376	1	14
444.547	1	27
444.717	1	15
444.888	1	14
445.058	1	12
445.229	1	13
445.399	1	8
445.570	1	9
445.740	1	15
445.911	1	23
446.081	1	22
446.252	1	19
446.422	1	19
446.593	1	2
446.763	1	11
446.934	1	19
447.104	1	22
447.275	1	28
447.445	1	23
447.616	1	15
447.786	1	18
447.957	1	14
448.127	1	21
448.298	1	20
448.468	1	4
448.639	1	11
448.809	1	21
448.979	1	5
449.150	1	17
449.320	1	10
449.491	1	22
449.661	1	23
449.832	1	22
450.002	1	16
450.173	1	22
450.343	1	19
450.514	1	24
450.684	1	11
450.855	1	25
451.025	1	11
451.196	1	7
451.366	1	20
451.537	1	16
451.707	1	17
451.878	1	14
452.048	1	21
452.218	1	23
452.389	1	16
452.559	1	10
452.730	1	17
452.900	1	19
453.071	1	19
453.241	1	22
453.412	1	21
453.582	1	12
453.753	1	2
453.923	1	25
454.093	1	26
454.264	1	21
454.434	1	19
454.605	1	23
454.775	1	25
454.946	1	25
455.116	1	18
455.287	1	7
455.457	1	17
455.628	1	11
455.798	1	22
455.968	1	14
456.139	1	7
456.309	1	4
456.480	1	14
456.650	1	29
456.821	1	21
456.991	1	20
457.161	1	27
457.332	1	17
457.502	1	13
457.673	1	9
457.843	1	19
458.014	1	14
458.184	1	9
458.355	1	9
458.525	1	2
458.695	1	9
458.866	1	14
459.036	1	3
459.207	1	10
459.377	1	26
459.548	1	10
459.718	1	11
459.888	1	20
460.059	1	27
460.229	1	7
460.400	1	17
460.570	1	15
460.740	1	9
460.911	1	14
461.081	1	6
461.252	1	23
461.422	1	12
461.593	1	5
461.763	1	25
461.933	1	15
462.104	1	10
462.274	1	19
462.445	1	4
462.615	1	9
462.785	1	10
462.956	1	11
463.126	1	3
463.297	1	21
463.467	1	18
463.638	1	6
463.808	1	8
463.978	1	3
464.149	1	13
464.319	1	6
464.490	1	10
464.660	1	12
464.830	1	8
465.001	1	27
465.171	1	12
465.342	1	13
465.512	1	6
465.682	1	18
465.853	1	8
466.023	1	21
466.194	1	13
466.364	1	21
466.534	1	11
466.705	1	16
466.875	1	13
467.045	1	14
467.216	1	15
467.386	1	14
467.557	1	0
467.727	1	18
467.897	1	11
468.068	1	14
468.238	1	10
468.409	1	6
468.579	1	0
468.749	1	11
468.920	1	3
469.090	1	16
469.260	1	12
469.431	1	11
469.601	1	15
469.772	1	7
469.942	1	21
470.112	1	9
470.283	1	17
470.453	1	22
470.623	1	9
470.794	1	10
470.964	1	-1
471.135	1	13
471.305	1	16
471.475	1	9
471.646	1	14
471.816	1	11
471.986	1	9
472.157	1	10
472.327	1	8
472.497	1	-1
472.668	1	7
472.838	1	2
473.009	1	18
473.179	1	15
473.349	1	16
473.520	1	5
473.690	1	19
473.860	1	7
474.031	1	7
474.201	1	11
474.371	1	10
474.542	1	24
474.712	1	-1
474.882	1	5
475.053	1	4
475.223	1	13
475.394	1	18
475.564	1	-3
475.734	1	4
475.905	1	19
476.075	1	10
476.245	1	7
476.416	1	6
476.586	1	16
476.756	1	17
476.927	1	10
477.097	1	14
477.267	1	8
477.438	1	2
477.608	1	6
477.778	1	18
477.949	1	18
478.119	1	9
478.289	1	18
478.460	1	8
478.630	1	9
478.800	1	6
478.971	1	19
479.141	1	10
479.311	1	10
479.482	1	12
479.652	1	10
479.822	1	1
479.993	1	12
480.163	1	4
480.333	1	16
480.504	1	23
480.674	1	7
480.844	1	11
481.015	1	5
481.185	1	13
481.355	1	5
481.525	1	18
481.696	1	19
481.866	1	7
482.036	1	12
482.207	1	7
482.377	1	6
482.547	1	10
482.718	1	9
482.888	1	8
483.058	1	11
483.229	1	4
483.399	1	8
483.569	1	-2
483.740	1	8
483.910	1	-1
484.080	1	12
484.250	1	10
484.421	1	5
484.591	1	7
484.761	1	15
484.932	1	13
485.102	1	11
485.272	1	7
485.443	1	5
485.613	1	13
485.783	1	4
485.953	1	5
486.124	1	-4
486.294	1	3
486.464	1	7
486.635	1	5
486.805	1	4
486.975	1	1
487.146	1	0
487.316	1	12
487.486	1	9
487.656	1	9
487.827	1	14
487.997	1	8
488.167	1	14
488.338	1	-1
488.508	1	14
488.678	1	1
488.848	1	8
489.019	1	8
489.189	1	12
489.359	1	8
489.529	1	4
489.700	1	5
489.870	1	-2
490.040	1	-3
490.211	1	6
490.381	1	8
490.551	1	3
490.721	1	8
490.892	1	19
491.062	1	4
491.232	1	-2
491.402	1	2
491.573	1	9
491.743	1	2
491.913	1	3
492.084	1	5
492.254	1	9
492.424	1	2
492.594	1	9
492.765	1	8
492.935	1	11
493.105	1	15
493.275	1	0
493.446	1	9
493.616	1	7
493.786	1	19
493.956	1	5
494.127	1	-5
494.297	1	4
494.467	1	15
494.637	1	12
494.808	1	-3
494.978	1	4
495.148	1	14
495.318	1	9
495.489	1	-2
495.659	1	4
495.829	1	21
495.999	1	9
496.170	1	10
496.340	1	8
496.510	1	9
496.680	1	7
496.851	1	1
497.021	1	-4
497.191	1	8
497.361	1	1
497.532	1	8
497.702	1	5
497.872	1	6
498.042	1	6
498.213	1	6
498.383	1	10
498.553	1	2
498.723	1	-4
498.894	1	17
499.064	1	10
499.234	1	-7
499.404	1	4
499.574	1	-4
499.745	1	11
499.915	1	-2
500.085	1	-1
500.255	1	-6
500.426	1	5
500.596	1	12
500.766	1	7
500.936	1	4
501.106	1	7
501.277	1	17
501.447	1	3
501.617	1	11
501.787	1	11
501.958	1	8
502.128	1	16
502.298	1	4
502.468	1	7
502.638	1	4
502.809	1	9
502.979	1	-1
503.149	1	2
503.319	1	4
503.489	1	2
503.660	1	9
503.830	1	5
504.000	1	3
504.170	1	-6
504.340	1	8
504.511	1	12
504.681	1	10
504.851	1	13
505.021	1	5
505.192	1	0
505.362	1	2
505.532	1	0
505.702	1	-4
505.872	1	13
506.043	1	-3
506.213	1	4
506.383	1	8
506.553	1	0
506.723	1	10
506.893	1	6
507.064	1	2
507.234	1	4
507.404	1	7
507.574	1	3
507.744	1	3
507.915	1	-7
508.085	1	-5
508.255	1	2
508.425	1	4
508.595	1	2
508.766	1	3
508.936	1	15
509.106	1	-2
509.276	1	4
509.446	1	3
509.616	1	4
509.787	1	7
509.957	1	0
510.127	1	6
510.297	1	7
510.467	1	7
510.638	1	7
510.808	1	-12
510.978	1	5
511.148	1	21
511.318	1	0
511.488	1	10
511.659	1	9
511.829	1	9
511.999	1	-1
512.169	1	5
512.339	1	0
512.509	1	11
512.680	1	-2
512.850	1	7
513.020	1	7
513.190	1	5
513.360	1	-1
513.530	1	9
513.700	1	3
513.871	1	9
514.041	1	7
514.211	1	-1
514.381	1	16
514.551	1	7
514.721	1	-3
514.892	1	0
515.062	1	8
515.232	1	14
515.402	1	5
515.572	1	2
515.742	1	6
515.912	1	0
516.083	1	-5
516.253	1	13
516.423	1	-5
516.593	1	-3
516.763	1	10
516.933	1	17
517.104	1	1
517.274	1	13
517.444	1	-8
517.614	1	10
517.784	1	-1
517.954	1	-7
518.124	1	8
518.294	1	12
518.465	1	14
518.635	1	4
518.805	1	3
518.975	1	-1
519.145	1	-1
519.315	1	0
519.485	1	6
519.656	1	9
519.826	1	4
519.996	1	4
520.166	1	-3
520.336	1	1
520.506	1	8
520.676	1	9
520.846	1	0
521.017	1	10
521.187	1	4
521.357	1	10
521.527	1	3
521.697	1	13
521.867	1	-4
522.037	1	7
522.207	1	-3
522.377	1	4
522.548	1	5
522.718	1	4
522.888	1	14
523.058	1	3
523.228	1	-6
523.398	1	7
523.568	1	9
523.738	1	-3
523.909	1	4
524.079	1	3
524.249	1	-1
524.419	1	5
524.589	1	6
524.759	1	6
524.929	1	6
525.099	1	-16
525.269	1	-3
525.439	1	10
525.610	1	-3
525.780	1	2
525.950	1	10
526.120	1	-8
526.290	1	3
526.460	1	0
526.630	1	2
526.800	1	3
526.970	1	-5
527.140	1	20
527.311	1	12
527.481	1	-3
527.651	1	6
527.821	1	-1
527.991	1	-7
528.161	1	5
528.331	1	4
528.501	1	3
528.671	1	8
528.841	1	13
529.011	1	0
529.181	1	6
529.352	1	3
529.522	1	9
529.692	1	0
529.862	1	4
530.032	1	4
530.202	1	9
530.372	1	12
530.542	1	9
530.712	1	13
530.882	1	6
531.052	1	-1
531.222	1	6
531.392	1	0
531.563	1	3
531.733	1	-7
531.903	1	6
532.073	1	-4
532.243	1	9
532.413	1	-2
532.583	1	-4
532.753	1	4
532.923	1	7
533.093	1	4
533.263	1	6
533.433	1	0
533.603	1	-2
533.773	1	2
533.943	1	-4
534.113	1	3
534.284	1	-6
534.454	1	14
534.624	1	8
534.794	1	5
534.964	1	6
535.134	1	7
535.304	1	4
535.474	1	1
535.644	1	7
535.814	1	11
535.984	1	0
536.154	1	5
536.324	1	-5
536.494	1	5
536.664	1	6
536.834	1	9
537.004	1	1
537.174	1	2
537.344	1	13
537.514	1	0
537.685	1	8
537.855	1	-1
538.025	1	-4
538.195	1	2
538.365	1	11
538.535	1	-3
538.705	1	-8
538.875	1	2
539.045	1	6
539.215	1	14
539.385	1	-2
539.555	1	0
539.725	1	-3
539.895	1	13
540.065	1	1
540.235	1	-1
540.405	1	-6
540.575	1	1
540.745	1	-1
540.915	1	8
541.085	1	-3
541.255	1	10
541.425	1	-3
541.595	1	7
541.765	1	4
541.935	1	11
542.105	1	-1
542.275	1	5
542.445	1	-1
542.615	1	11
542.785	1	1
542.955	1	-2
543.125	1	-4
543.295	1	2
543.465	1	-6
543.635	1	-2
543.805	1	-2
543.975	1	-21
544.145	1	1
544.315	1	-4
544.485	1	-1
544.655	1	10
544.825	1	12
544.995	1	7
545.165	1	-4
545.335	1	4
545.505	1	1
545.675	1	-12
545.845	1	0
546.015	1	2
546.185	1	3
546.355	1	6
546.525	1	-2
546.695	1	7
546.865	1	1
547.035	1	4
547.205	1	9
547.375	1	9
547.545	1	-4
547.715	1	7
547.885	1	2
548.055	1	5
548.225	1	10
548.395	1	-6
548.565	1	0
548.735	1	2
548.905	1	1
549.075	1	-2
549.245	1	6
549.415	1	1
549.585	1	-5
549.755	1	1
549.925	1	-15
550.095	1	-5
550.265	1	6
550.435	1	-1
550.605	1	8
550.775	1	11
550.945	1	-6
551.115	1	-2
551.285	1	-3
551.455	1	0
551.625	1	-5
551.795	1	5
551.965	1	5
552.135	1	9
552.305	1	3
552.475	1	12
552.645	1	13
552.815	1	3
552.985	1	0
553.155	1	6
553.325	1	-9
553.495	1	3
553.665	1	4
553.835	1	13
554.004	1	18
554.174	1	-5
554.344	1	4
554.514	1	8
554.684	1	-6
554.854	1	-8
555.024	1	-8
555.194	1	0
555.364	1	4
555.534	1	-15
555.704	1	2
555.874	1	1
556.044	1	0
556.214	1	8
556.384	1	-4
556.554	1	-3
556.724	1	4
556.894	1	-2
557.064	1	4
557.234	1	2
557.404	1	-1
557.573	1	0
557.743	1	4
557.913	1	13
558.083	1	-1
558.253	1	-7
558.423	1	4
558.593	1	-7
558.763	1	-3
558.933	1	10
559.103	1	18
559.273	1	6
559.443	1	1
559.613	1	2
559.783	1	-3
559.953	1	3
560.122	1	5
560.292	1	10
560.462	1	-5
560.632	1	5
560.802	1	8
560.972	1	-15
561.142	1	6
561.312	1	2
561.482	1	-4
561.652	1	0
561.822	1	-9
561.992	1	2
562.162	1	5
562.331	1	7
562.501	1	1
562.671	1	13
562.841	1	-8
563.011	1	5
563.181	1	8
563.351	1	5
563.521	1	9
563.691	1	3
563.861	1	10
564.031	1	0
564.201	1	3
564.370	1	-4
564.540	1	5
564.710	1	8
564.880	1	9
565.050	1	7
565.220	1	-2
565.390	1	-2
565.560	1	7
565.730	1	0
565.900	1	9
566.069	1	4
566.239	1	5
566.409	1	-14
566.579	1	9
566.749	1	-6
566.919	1	6
567.089	1	0
567.259	1	3
567.429	1	7
567.599	1	12
567.768	1	4
567.938	1	-11
568.108	1	8
568.278	1	15
568.448	1	6
568.618	1	0
568.788	1	-1
568.958	1	-6
569.128	1	7
569.297	1	0
569.467	1	1
569.637	1	3
569.807	1	11
569.977	1	-5
570.147	1	6
570.317	1	5
570.487	1	-2
570.656	1	-8
570.826	1	-1
570.996	1	-4
571.166	1	10
571.336	1	2
571.506	1	8
571.676	1	21
571.846	1	2
572.015	1	2
572.185	1	-2
572.355	1	0
572.525	1	0
572.695	1	-4
572.865	1	3
573.035	1	8
573.205	1	7
573.374	1	3
573.544	1	7
573.714	1	0
573.884	1	4
574.054	1	6
574.224	1	5
574.394	1	-6
574.563	1	4
574.733	1	5
574.903	1	9
575.073	1	8
575.243	1	-2
575.413	1	-2
575.583	1	6
575.752	1	-5
575.922	1	-4
576.092	1	-8
576.262	1	3
576.432	1	-2
576.602	1	2
576.772	1	7
576.941	1	-4
577.111	1	1
577.281	1	-4
577.451	1	4
577.621	1	-1
577.791	1	-5
577.960	1	-9
578.130	1	1
578.300	1	-2
578.470	1	-3
578.640	1	-4
578.810	1	-2
578.979	1	-2
579.149	1	-4
579.319	1	6
579.489	1	-5
579.659	1	-4
579.829	1	6
579.998	1	-12
580.168	1	3
580.338	1	6
580.508	1	6
580.678	1	0
580.848	1	3
581.017	1	13
581.187	1	0
581.357	1	-1
581.527	1	7
581.697	1	4
581.867	1	2
582.036	1	3
582.206	1	12
582.376	1	-7
582.546	1	-7
582.716	1	2
582.885	1	-5
583.055	1	-2
583.225	1	2
583.395	1	12
583.565	1	7
583.735	1	4
583.904	1	4
584.074	1	-3
584.244	1	-6
584.414	1	3
584.584	1	-3
584.753	1	6
584.923	1	-2
585.093	1	-1
585.263	1	7
585.433	1	2
585.602	1	-3
585.772	1	-5
585.942	1	6
586.112	1	1
586.282	1	5
586.451	1	10
586.621	1	11
586.791	1	11
586.961	1	-5
587.131	1	0
587.300	1	0
587.470	1	-3
587.640	1	-1
587.810	1	4
587.980	1	3
588.149	1	0
588.319	1	5
588.489	1	1
588.659	1	2
588.829	1	5
588.998	1	-6
589.168	1	9
589.338	1	1
589.508	1	8
589.677	1	4
589.847	1	3
590.017	1	2
590.187	1	6
590.357	1	-1
590.526	1	-6
590.696	1	-11
590.866	1	-2
591.036	1	9
591.205	1	8
591.375	1	-6
591.545	1	2
591.715	1	-1
591.885	1	9
592.054	1	-4
592.224	1	4
592.394	1	-3
592.564	1	3
592.733	1	-12
592.903	1	-5
593.073	1	2
593.243	1	14
593.412	1	6
593.582	1	10
593.752	1	1
593.922	1	-8
594.091	1	-3
594.261	1	-8
594.431	1	6
594.601	1	-2
594.771	1	4
594.940	1	8
595.110	1	7
595.280	1	5
595.450	1	1
595.619	1	6
595.789	1	3
595.959	1	13
596.129	1	-5
596.298	1	5
596.468	1	-5
596.638	1	2
596.808	1	9
596.977	1	2
597.147	1	-10
597.317	1	1
597.487	1	-1
597.656	1	-1
597.826	1	7
597.996	1	8
598.166	1	-2
598.335	1	2
598.505	1	9
598.675	1	0
598.844	1	-6
599.014	1	2
599.184	1	1
599.354	1	7
599.523	1	4
599.693	1	8
599.863	1	4
600.033	1	4
600.202	1	3
600.372	1	3
600.542	1	-5
600.712	1	5
600.881	1	-12
601.051	1	5
601.221	1	9
601.390	1	-4
601.560	1	2
601.730	1	10
601.900	1	-1
602.069	1	8
602.239	1	-2
602.409	1	6
602.578	1	-3
602.748	1	8
602.918	1	-11
603.088	1	9
603.257	1	5
603.427	1	3
603.597	1	-1
603.767	1	6
603.936	1	-2
604.106	1	1
604.276	1	11
604.445	1	-4
604.615	1	4
604.785	1	15
604.954	1	14
605.124	1	3
605.294	1	5
605.464	1	-5
605.633	1	4
605.803	1	-2
605.973	1	-1
606.142	1	1
606.312	1	1
606.482	1	-3
606.652	1	8
606.821	1	1
606.991	1	-5
607.161	1	7
607.330	1	-1
607.500	1	8
607.670	1	8
607.839	1	11
608.009	1	9
608.179	1	0
608.348	1	7
608.518	1	5
608.688	1	-1
608.858	1	6
609.027	1	3
609.197	1	-10
609.367	1	19
609.536	1	1
609.706	1	5
609.876	1	8
610.045	1	5
610.215	1	1
610.385	1	-2
610.554	1	0
610.724	1	-8
610.894	1	1
611.063	1	-5
611.233	1	7
611.403	1	6
611.572	1	11
611.742	1	6
611.912	1	2
612.081	1	-4
612.251	1	6
612.421	1	6
612.590	1	-3
612.760	1	2
612.930	1	-1
613.099	1	14
613.269	1	1
613.439	1	5
613.608	1	7
613.778	1	5
613.948	1	7
614.117	1	8
614.287	1	3
614.457	1	-4
614.626	1	11
614.796	1	5
614.966	1	3
615.135	1	5
615.305	1	-3
615.475	1	7
615.644	1	6
615.814	1	-8
615.984	1	-3
616.153	1	5
616.323	1	11
616.493	1	15
616.662	1	5
616.832	1	3
617.002	1	-1
617.171	1	-2
617.341	1	1
617.511	1	-1
617.680	1	4
617.850	1	-1
618.019	1	7
618.189	1	10
618.359	1	-1
618.528	1	3
618.698	1	15
618.868	1	-6
619.037	1	9
619.207	1	-3
619.377	1	2
619.546	1	0
619.716	1	11
619.885	1	3
620.055	1	7
620.225	1	10
620.394	1	3
620.564	1	7
620.734	1	11
620.903	1	11
621.073	1	3
621.242	1	1
621.412	1	12
621.582	1	5
621.751	1	10
621.921	1	-1
622.091	1	2
622.260	1	-14
622.430	1	5
622.599	1	-5
622.769	1	8
622.939	1	8
623.108	1	8
623.278	1	5
623.448	1	5
623.617	1	1
623.787	1	13
623.956	1	6
624.126	1	10
624.296	1	1
624.465	1	5
624.635	1	0
624.804	1	7
624.974	1	5
625.144	1	14
625.313	1	3
625.483	1	18
625.652	1	10
625.822	1	2
625.992	1	0
626.161	1	21
626.331	1	7
626.501	1	17
626.670	1	7
626.840	1	10
627.009	1	14
627.179	1	6
627.348	1	7
627.518	1	-2
627.688	1	7
627.857	1	-3
628.027	1	-5
628.196	1	6
628.366	1	-3
628.536	1	6
628.705	1	0
628.875	1	16
629.044	1	4
629.214	1	3
629.384	1	2
629.553	1	8
629.723	1	-4
629.892	1	17
630.062	1	6
630.232	1	9
630.401	1	10
630.571	1	8
630.740	1	-1
630.910	1	9
631.079	1	4
631.249	1	6
631.419	1	2
631.588	1	3
631.758	1	10
631.927	1	9
632.097	1	0
632.266	1	5
632.436	1	3
632.606	1	5
632.775	1	15
632.945	1	13
633.114	1	-1
633.284	1	3
633.453	1	8
633.623	1	16
633.793	1	-10
633.962	1	14
634.132	1	-1
634.301	1	13
634.471	1	7
634.640	1	9
634.810	1	7
634.979	1	2
635.149	1	0
635.319	1	4
635.488	1	16
635.658	1	7
635.827	1	6
635.997	1	5
636.166	1	4
636.336	1	-2
636.505	1	0
636.675	1	2
636.845	1	0
637.014	1	1
637.184	1	6
637.353	1	3
637.523	1	15
637.692	1	14
637.862	1	14
638.031	1	12
638.201	1	12
638.370	1	5
638.540	1	-5
638.710	1	14
638.879	1	5
639.049	1	15
639.218	1	7
639.388	1	3
639.557	1	15
639.727	1	11
639.896	1	7
640.066	1	7
640.235	1	0
640.405	1	8
640.574	1	9
640.744	1	14
640.914	1	5
641.083	1	7
641.253	1	15
641.422	1	1
641.592	1	-5
641.761	1	9
641.931	1	7
642.100	1	4
642.270	1	0
642.439	1	1
642.609	1	8
642.778	1	5
642.948	1	-5
643.117	1	14
643.287	1	5
643.456	1	5
643.626	1	14
643.795	1	9
643.965	1	8
644.134	1	8
644.304	1	10
644.473	1	14
644.643	1	-5
644.812	1	15
644.982	1	10
645.151	1	22
645.321	1	11
645.490	1	0
645.660	1	-8
645.829	1	12
645.999	1	6
646.168	1	-5
646.338	1	3
646.507	1	11
646.677	1	4
646.846	1	8
647.016	1	15
647.185	1	-1
647.355	1	4
647.524	1	11
647.694	1	9
647.863	1	5
648.033	1	1
648.202	1	9
648.372	1	11
648.541	1	11
648.711	1	12
648.880	1	10
649.050	1	-1
649.219	1	0
649.389	1	13
649.558	1	0
649.728	1	11
649.897	1	13
650.067	1	0
650.236	1	12
650.406	1	-2
650.575	1	20
650.745	1	3
650.914	1	4
651.084	1	2
651.253	1	5
651.423	1	7
651.592	1	6
651.762	1	14
651.931	1	3
652.101	1	5
652.270	1	8
652.440	1	8
652.609	1	13
652.778	1	0
652.948	1	14
653.117	1	-1
653.287	1	13
653.456	1	13
653.626	1	-4
653.795	1	12
653.965	1	11
654.134	1	11
654.304	1	3
654.473	1	4
654.643	1	9
654.812	1	8
654.982	1	7
655.151	1	0
655.320	1	3
655.490	1	2
655.659	1	3
655.829	1	12
655.998	1	-2
656.168	1	0
656.337	1	18
656.507	1	12
656.676	1	7
656.846	1	-8
657.015	1	3
657.184	1	1
657.354	1	15
657.523	1	-2
657.693	1	14
657.862	1	7
658.032	1	4
658.201	1	7
658.371	1	3
658.540	1	8
658.709	1	-3
658.879	1	-18
659.048	1	8
659.218	1	11
659.387	1	3
659.557	1	14
659.726	1	4
659.895	1	-4
660.065	1	6
660.234	1	6
660.404	1	1
660.573	1	6
660.743	1	8
660.912	1	9
661.081	1	29
661.251	1	3
661.420	1	4
661.590	1	-1
661.759	1	6
661.929	1	2
662.098	1	2
662.267	1	-5
662.437	1	6
662.606	1	13
662.776	1	7
662.945	1	1
663.115	1	4
663.284	1	11
663.453	1	-15
663.623	1	13
663.792	1	10
663.962	1	14
664.131	1	5
664.300	1	9
664.470	1	6
664.639	1	5
664.809	1	-7
664.978	1	8
665.148	1	7
665.317	1	1
665.486	1	0
665.656	1	4
665.825	1	8
665.995	1	5
666.164	1	6
666.333	1	8
666.503	1	2
666.672	1	12
666.842	1	4
667.011	1	2
667.180	1	-1
667.350	1	7
667.519	1	14
667.689	1	-4
667.858	1	1
668.027	1	11
668.197	1	10
668.366	1	7
668.536	1	8
668.705	1	5
668.874	1	10
669.044	1	1
669.213	1	13
669.382	1	4
669.552	1	12
669.721	1	17
669.891	1	11
670.060	1	14
670.229	1	4
670.399	1	9
670.568	1	3
670.738	1	4
670.907	1	6
671.076	1	1
671.246	1	10
671.415	1	10
671.584	1	-5
671.754	1	12
671.923	1	2
672.093	1	23
672.262	1	10
672.431	1	0
672.601	1	2
672.770	1	6
672.939	1	-1
673.109	1	6
673.278	1	12
673.448	1	5
673.617	1	0
673.786	1	3
