325.333	1	10
325.504	1	12
325.675	1	2
325.846	1	11
326.017	1	16
326.188	1	21
326.359	1	1
326.531	1	10
326.702	1	16
326.873	1	7
327.044	1	12
327.215	1	5
327.386	1	11
327.557	1	15
327.728	1	17
327.899	1	15
328.070	1	19
328.241	1	14
328.412	1	11
328.583	1	16
328.754	1	7
328.926	1	15
329.097	1	13
329.268	1	3
329.439	1	19
329.610	1	19
329.781	1	3
329.952	1	21
330.123	1	13
330.294	1	6
330.465	1	16
330.636	1	11
330.807	1	9
330.978	1	13
331.149	1	24
331.320	1	17
331.492	1	19
331.663	1	19
331.834	1	17
332.005	1	22
332.176	1	7
332.347	1	20
332.518	1	12
332.689	1	20
332.860	1	-2
333.031	1	9
333.202	1	8
333.373	1	19
333.544	1	14
333.715	1	11
333.886	1	16
334.057	1	11
334.228	1	10
334.399	1	18
334.570	1	10
334.741	1	10
334.912	1	22
335.084	1	8
335.255	1	6
335.426	1	9
335.597	1	20
335.768	1	25
335.939	1	25
336.110	1	11
336.281	1	18
336.452	1	9
336.623	1	19
336.794	1	16
336.965	1	15
337.136	1	3
337.307	1	10
337.478	1	21
337.649	1	22
337.820	1	15
337.991	1	21
338.162	1	17
338.333	1	3
338.504	1	14
338.675	1	19
338.846	1	10
339.017	1	16
339.188	1	16
339.359	1	28
339.530	1	24
339.701	1	18
339.872	1	15
340.043	1	-5
340.214	1	9
340.385	1	18
340.556	1	19
340.727	1	21
340.898	1	25
341.069	1	23
341.240	1	14
341.411	1	11
341.582	1	19
341.753	1	23
341.924	1	6
342.095	1	19
342.266	1	31
342.437	1	32
342.608	1	27
342.779	1	23
342.950	1	18
343.121	1	13
343.292	1	12
343.463	1	11
343.634	1	11
343.805	1	16
343.976	1	24
344.147	1	14
344.318	1	24
344.489	1	19
344.660	1	27
344.831	1	21
345.002	1	19
345.173	1	9
345.344	1	32
345.515	1	9
345.686	1	28
345.857	1	20
346.028	1	20
346.199	1	20
346.370	1	20
346.541	1	9
346.712	1	16
346.883	1	19
347.054	1	16
347.225	1	26
347.396	1	8
347.567	1	19
347.738	1	14
347.909	1	11
348.080	1	13
348.251	1	26
348.422	1	17
348.593	1	6
348.764	1	13
348.935	1	20
349.106	1	11
349.277	1	11
349.448	1	22
349.619	1	7
349.790	1	22
349.961	1	23
350.132	1	23
350.303	1	23
350.474	1	20
350.645	1	19
350.816	1	13
350.987	1	20
351.157	1	24
351.328	1	30
351.499	1	22
351.670	1	14
351.841	1	19
352.012	1	25
352.183	1	9
352.354	1	6
352.525	1	19
352.696	1	32
352.867	1	13
353.038	1	20
353.209	1	17
353.380	1	10
353.551	1	8
353.722	1	22
353.893	1	20
354.064	1	18
354.235	1	19
354.406	1	23
354.576	1	24
354.747	1	13
354.918	1	25
355.089	1	19
355.260	1	30
355.431	1	8
355.602	1	17
355.773	1	20
355.944	1	16
356.115	1	38
356.286	1	21
356.457	1	19
356.628	1	31
356.799	1	20
356.970	1	28
357.141	1	26
357.311	1	23
357.482	1	22
357.653	1	27
357.824	1	19
357.995	1	19
358.166	1	8
358.337	1	25
358.508	1	10
358.679	1	22
358.850	1	10
359.021	1	27
359.192	1	25
359.363	1	58
359.533	1	237
359.704	1	49
359.875	1	20
360.046	1	28
360.217	1	23
360.388	1	32
360.559	1	21
360.730	1	13
360.901	1	22
361.072	1	17
361.243	1	17
361.414	1	13
361.584	1	22
361.755	1	26
361.926	1	23
362.097	1	14
362.268	1	25
362.439	1	9
362.610	1	20
362.781	1	11
362.952	1	29
363.123	1	19
363.293	1	17
363.464	1	17
363.635	1	28
363.806	1	18
363.977	1	20
364.148	1	13
364.319	1	19
364.490	1	20
364.661	1	16
364.832	1	25
365.002	1	20
365.173	1	17
365.344	1	28
365.515	1	9
365.686	1	13
365.857	1	16
366.028	1	18
366.199	1	18
366.370	1	18
366.540	1	10
366.711	1	21
366.882	1	10
367.053	1	13
367.224	1	24
367.395	1	19
367.566	1	14
367.737	1	21
367.908	1	14
368.078	1	29
368.249	1	24
368.420	1	19
368.591	1	17
368.762	1	14
368.933	1	15
369.104	1	39
369.274	1	10
369.445	1	34
369.616	1	28
369.787	1	35
369.958	1	16
370.129	1	21
370.300	1	17
370.471	1	23
370.641	1	18
370.812	1	20
370.983	1	21
371.154	1	21
371.325	1	11
371.496	1	22
371.667	1	24
371.837	1	20
372.008	1	11
372.179	1	9
372.350	1	23
372.521	1	21
372.692	1	22
372.863	1	27
373.033	1	23
373.204	1	16
373.375	1	18
373.546	1	34
373.717	1	11
373.888	1	29
374.059	1	25
374.229	1	19
374.400	1	7
374.571	1	23
374.742	1	24
374.913	1	26
375.084	1	25
375.254	1	18
375.425	1	18
375.596	1	31
375.767	1	28
375.938	1	18
376.109	1	20
376.279	1	24
376.450	1	21
376.621	1	12
376.792	1	33
376.963	1	14
377.134	1	28
377.304	1	29
377.475	1	25
377.646	1	7
377.817	1	11
377.988	1	11
378.159	1	25
378.329	1	24
378.500	1	31
378.671	1	27
378.842	1	22
379.013	1	20
379.184	1	11
379.354	1	10
379.525	1	22
379.696	1	25
379.867	1	27
380.038	1	26
380.209	1	22
380.379	1	22
380.550	1	31
380.721	1	21
380.892	1	19
381.063	1	18
381.233	1	31
381.404	1	23
381.575	1	31
381.746	1	37
381.917	1	29
382.087	1	37
382.258	1	34
382.429	1	23
382.600	1	31
382.771	1	29
382.941	1	23
383.112	1	34
383.283	1	31
383.454	1	20
383.625	1	18
383.795	1	32
383.966	1	16
384.137	1	29
384.308	1	29
384.479	1	15
384.649	1	25
384.820	1	34
384.991	1	17
385.162	1	21
385.333	1	20
385.503	1	23
385.674	1	10
385.845	1	32
386.016	1	27
386.187	1	33
386.357	1	29
386.528	1	17
386.699	1	35
386.870	1	30
387.041	1	35
387.211	1	31
387.382	1	21
387.553	1	25
387.724	1	42
387.894	1	33
388.065	1	19
388.236	1	31
388.407	1	35
388.578	1	18
388.748	1	29
388.919	1	27
389.090	1	36
389.261	1	25
389.431	1	39
389.602	1	41
389.773	1	26
389.944	1	44
390.114	1	37
390.285	1	23
390.456	1	26
390.627	1	35
390.798	1	44
390.968	1	47
391.139	1	34
391.310	1	34
391.481	1	38
391.651	1	43
391.822	1	46
391.993	1	41
392.164	1	35
392.334	1	21
392.505	1	35
392.676	1	36
392.847	1	40
393.017	1	33
393.188	1	45
393.359	1	34
393.530	1	38
393.700	1	24
393.871	1	23
394.042	1	36
394.213	1	34
394.383	1	32
394.554	1	50
394.725	1	31
394.896	1	36
395.066	1	37
395.237	1	21
395.408	1	37
395.579	1	35
395.749	1	31
395.920	1	35
396.091	1	38
396.262	1	35
396.432	1	32
396.603	1	36
396.774	1	28
396.945	1	36
397.115	1	26
397.286	1	36
397.457	1	23
397.627	1	30
397.798	1	42
397.969	1	36
398.140	1	34
398.310	1	30
398.481	1	36
398.652	1	25
398.823	1	34
398.993	1	33
399.164	1	38
399.335	1	34
399.505	1	36
399.676	1	26
399.847	1	29
400.018	1	52
400.188	1	34
400.359	1	34
400.530	1	33
400.700	1	36
400.871	1	25
401.042	1	39
401.213	1	36
401.383	1	32
401.554	1	42
401.725	1	35
401.895	1	40
402.066	1	34
402.237	1	48
402.408	1	47
402.578	1	34
402.749	1	32
402.920	1	40
403.090	1	33
403.261	1	44
403.432	1	39
403.603	1	40
403.773	1	47
403.944	1	41
404.115	1	36
404.285	1	48
404.456	1	45
404.627	1	31
404.797	1	50
404.968	1	37
405.139	1	46
405.310	1	41
405.480	1	39
405.651	1	30
405.822	1	47
405.992	1	42
406.163	1	49
406.334	1	42
406.504	1	46
406.675	1	43
406.846	1	49
407.016	1	47
407.187	1	40
407.358	1	43
407.528	1	40
407.699	1	34
407.870	1	48
408.041	1	48
408.211	1	39
408.382	1	36
408.553	1	46
408.723	1	47
408.894	1	42
409.065	1	40
409.235	1	39
409.406	1	41
409.577	1	35
409.747	1	36
409.918	1	34
410.089	1	41
410.259	1	40
410.430	1	44
410.601	1	41
410.771	1	41
410.942	1	44
411.113	1	45
411.283	1	45
411.454	1	49
411.625	1	36
411.795	1	37
411.966	1	60
412.137	1	39
412.307	1	48
412.478	1	44
412.649	1	46
412.819	1	42
412.990	1	40
413.161	1	51
413.331	1	42
413.502	1	38
413.672	1	54
413.843	1	43
414.014	1	52
414.184	1	37
414.355	1	55
414.526	1	50
414.696	1	45
414.867	1	46
415.038	1	48
415.208	1	56
415.379	1	48
415.550	1	51
415.720	1	31
415.891	1	61
416.062	1	48
416.232	1	34
416.403	1	47
416.573	1	56
416.744	1	45
416.915	1	56
417.085	1	50
417.256	1	41
417.427	1	37
417.597	1	52
417.768	1	45
417.939	1	40
418.109	1	44
418.280	1	38
418.450	1	37
418.621	1	49
418.792	1	38
418.962	1	31
419.133	1	45
419.304	1	37
419.474	1	48
419.645	1	49
419.815	1	36
419.986	1	51
420.157	1	40
420.327	1	34
420.498	1	38
420.669	1	51
420.839	1	48
421.010	1	41
421.180	1	46
421.351	1	51
421.522	1	39
421.692	1	53
421.863	1	47
422.033	1	33
422.204	1	56
422.375	1	45
422.545	1	38
422.716	1	42
422.886	1	40
423.057	1	42
423.228	1	49
423.398	1	52
423.569	1	34
423.740	1	44
423.910	1	47
424.081	1	51
424.251	1	33
424.422	1	41
424.593	1	44
424.763	1	54
424.934	1	43
425.104	1	44
425.275	1	48
425.445	1	43
425.616	1	45
425.787	1	44
425.957	1	36
426.128	1	46
426.298	1	52
426.469	1	40
426.640	1	50
426.810	1	43
426.981	1	51
427.151	1	42
427.322	1	58
427.493	1	46
427.663	1	56
427.834	1	55
428.004	1	40
428.175	1	50
428.345	1	44
428.516	1	42
428.687	1	50
428.857	1	39
429.028	1	36
429.198	1	52
429.369	1	46
429.540	1	41
429.710	1	46
429.881	1	46
430.051	1	49
430.222	1	41
430.392	1	35
430.563	1	49
430.734	1	52
430.904	1	42
431.075	1	46
431.245	1	41
431.416	1	50
431.586	1	36
431.757	1	45
431.927	1	61
432.098	1	35
432.269	1	41
432.439	1	54
432.610	1	50
432.780	1	42
432.951	1	46
433.121	1	52
433.292	1	46
433.462	1	38
433.633	1	38
433.804	1	43
433.974	1	38
434.145	1	40
434.315	1	47
434.486	1	55
434.656	1	40
434.827	1	40
434.997	1	37
435.168	1	40
435.339	1	31
435.509	1	42
435.680	1	43
435.850	1	37
436.021	1	41
436.191	1	53
436.362	1	46
436.532	1	46
436.703	1	43
436.873	1	35
437.044	1	32
437.214	1	36
437.385	1	49
437.556	1	36
437.726	1	36
437.897	1	49
438.067	1	44
438.238	1	43
438.408	1	41
438.579	1	44
438.749	1	44
438.920	1	38
439.090	1	34
439.261	1	38
439.431	1	38
439.602	1	37
439.772	1	47
439.943	1	43
440.113	1	47
440.284	1	32
440.455	1	48
440.625	1	49
440.796	1	51
440.966	1	33
441.137	1	34
441.307	1	36
441.478	1	35
441.648	1	39
441.819	1	43
441.989	1	44
442.160	1	40
442.330	1	40
442.501	1	38
442.671	1	44
442.842	1	46
443.012	1	31
443.183	1	39
443.353	1	43
443.524	1	26
443.694	1	36
443.865	1	41
444.035	1	37
444.206	1	46
444.376	1	31
444.547	1	44
444.717	1	30
444.888	1	32
445.058	1	38
445.229	1	23
445.399	1	30
445.570	1	32
445.740	1	43
445.911	1	46
446.081	1	35
446.252	1	36
446.422	1	36
446.593	1	39
446.763	1	34
446.934	1	45
447.104	1	39
447.275	1	48
447.445	1	38
447.616	1	36
447.786	1	32
447.957	1	41
448.127	1	42
448.298	1	34
448.468	1	39
448.639	1	39
448.809	1	46
448.979	1	31
449.150	1	38
449.320	1	36
449.491	1	51
449.661	1	47
449.832	1	35
450.002	1	29
450.173	1	37
450.343	1	36
450.514	1	43
450.684	1	35
450.855	1	42
451.025	1	37
451.196	1	37
451.366	1	39
451.537	1	21
451.707	1	48
451.878	1	27
452.048	1	37
452.218	1	37
452.389	1	51
452.559	1	34
452.730	1	41
452.900	1	44
453.071	1	26
453.241	1	30
453.412	1	34
453.582	1	17
453.753	1	21
453.923	1	44
454.093	1	49
454.264	1	37
454.434	1	30
454.605	1	35
454.775	1	41
454.946	1	34
455.116	1	37
455.287	1	37
455.457	1	32
455.628	1	38
455.798	1	41
455.968	1	48
456.139	1	31
456.309	1	41
456.480	1	45
456.650	1	54
456.821	1	37
456.991	1	32
457.161	1	38
457.332	1	36
457.502	1	32
457.673	1	31
457.843	1	35
458.014	1	27
458.184	1	35
458.355	1	21
458.525	1	22
458.695	1	34
458.866	1	27
459.036	1	27
459.207	1	42
459.377	1	31
459.548	1	27
459.718	1	34
459.888	1	30
460.059	1	37
460.229	1	25
460.400	1	38
460.570	1	32
460.740	1	28
460.911	1	26
461.081	1	27
461.252	1	45
461.422	1	30
461.593	1	26
461.763	1	37
461.933	1	29
462.104	1	28
462.274	1	31
462.445	1	30
462.615	1	21
462.785	1	21
462.956	1	34
463.126	1	23
463.297	1	28
463.467	1	32
463.638	1	23
463.808	1	21
463.978	1	25
464.149	1	37
464.319	1	11
464.490	1	25
464.660	1	27
464.830	1	21
465.001	1	35
465.171	1	21
465.342	1	29
465.512	1	38
465.682	1	15
465.853	1	23
466.023	1	31
466.194	1	33
466.364	1	28
466.534	1	29
466.705	1	29
466.875	1	28
467.045	1	21
467.216	1	23
467.386	1	23
467.557	1	16
467.727	1	15
467.897	1	11
468.068	1	38
468.238	1	22
468.409	1	26
468.579	1	21
468.749	1	18
468.920	1	23
469.090	1	39
469.260	1	23
469.431	1	12
469.601	1	30
469.772	1	23
469.942	1	30
470.112	1	32
470.283	1	30
470.453	1	34
470.623	1	27
470.794	1	17
470.964	1	22
471.135	1	20
471.305	1	28
471.475	1	31
471.646	1	32
471.816	1	23
471.986	1	24
472.157	1	18
472.327	1	19
472.497	1	18
472.668	1	17
472.838	1	27
473.009	1	33
473.179	1	22
473.349	1	32
473.520	1	20
473.690	1	27
473.860	1	23
474.031	1	20
474.201	1	24
474.371	1	20
474.542	1	32
474.712	1	18
474.882	1	39
475.053	1	26
475.223	1	32
475.394	1	30
475.564	1	13
475.734	1	14
475.905	1	23
476.075	1	17
476.245	1	25
476.416	1	18
476.586	1	28
476.756	1	25
476.927	1	34
477.097	1	16
477.267	1	18
477.438	1	13
477.608	1	18
477.778	1	24
477.949	1	15
478.119	1	16
478.289	1	25
478.460	1	26
478.630	1	18
478.800	1	20
478.971	1	20
479.141	1	12
479.311	1	16
479.482	1	12
479.652	1	20
479.822	1	22
479.993	1	18
480.163	1	17
480.333	1	22
480.504	1	21
480.674	1	22
480.844	1	13
481.015	1	16
481.185	1	22
481.355	1	20
481.525	1	29
481.696	1	24
481.866	1	15
482.036	1	15
482.207	1	11
482.377	1	20
482.547	1	21
482.718	1	24
482.888	1	15
483.058	1	20
483.229	1	21
483.399	1	26
483.569	1	22
483.740	1	13
483.910	1	11
484.080	1	22
484.250	1	14
484.421	1	24
484.591	1	22
484.761	1	24
484.932	1	18
485.102	1	9
485.272	1	16
485.443	1	15
485.613	1	15
485.783	1	16
485.953	1	9
486.124	1	6
486.294	1	25
486.464	1	19
486.635	1	15
486.805	1	12
486.975	1	7
487.146	1	9
487.316	1	24
487.486	1	13
487.656	1	16
487.827	1	18
487.997	1	13
488.167	1	21
488.338	1	6
488.508	1	19
488.678	1	18
488.848	1	27
489.019	1	21
489.189	1	18
489.359	1	16
489.529	1	8
489.700	1	11
489.870	1	11
490.040	1	9
490.211	1	19
490.381	1	19
490.551	1	9
490.721	1	19
490.892	1	19
491.062	1	19
491.232	1	16
491.402	1	18
491.573	1	11
491.743	1	16
491.913	1	15
492.084	1	12
492.254	1	22
492.424	1	14
492.594	1	20
492.765	1	17
492.935	1	21
493.105	1	20
493.275	1	4
493.446	1	17
493.616	1	21
493.786	1	14
493.956	1	18
494.127	1	14
494.297	1	14
494.467	1	23
494.637	1	16
494.808	1	11
494.978	1	7
495.148	1	16
495.318	1	5
495.489	1	11
495.659	1	20
495.829	1	25
495.999	1	17
496.170	1	15
496.340	1	27
496.510	1	7
496.680	1	8
496.851	1	-2
497.021	1	10
497.191	1	12
497.361	1	14
497.532	1	9
497.702	1	17
497.872	1	7
498.042	1	17
498.213	1	13
498.383	1	15
498.553	1	13
498.723	1	1
498.894	1	16
499.064	1	21
499.234	1	11
499.404	1	23
499.574	1	22
499.745	1	11
499.915	1	5
500.085	1	9
500.255	1	13
500.426	1	4
500.596	1	22
500.766	1	6
500.936	1	14
501.106	1	16
501.277	1	18
501.447	1	17
501.617	1	14
501.787	1	18
501.958	1	8
502.128	1	24
502.298	1	14
502.468	1	10
502.638	1	17
502.809	1	-2
502.979	1	7
503.149	1	5
503.319	1	6
503.489	1	17
503.660	1	7
503.830	1	6
504.000	1	8
504.170	1	13
504.340	1	7
504.511	1	22
504.681	1	22
504.851	1	13
505.021	1	9
505.192	1	6
505.362	1	13
505.532	1	17
505.702	1	2
505.872	1	17
506.043	1	13
506.213	1	18
506.383	1	17
506.553	1	11
506.723	1	19
506.893	1	0
507.064	1	14
507.234	1	6
507.404	1	26
507.574	1	9
507.744	1	3
507.915	1	4
508.085	1	1
508.255	1	16
508.425	1	-2
508.595	1	11
508.766	1	2
508.936	1	26
509.106	1	6
509.276	1	13
509.446	1	13
509.616	1	8
509.787	1	21
509.957	1	8
510.127	1	5
510.297	1	14
510.467	1	10
510.638	1	21
510.808	1	4
510.978	1	21
511.148	1	13
511.318	1	7
511.488	1	14
511.659	1	17
511.829	1	11
511.999	1	7
512.169	1	5
512.339	1	6
512.509	1	8
512.680	1	1
512.850	1	18
513.020	1	14
513.190	1	4
513.360	1	20
513.530	1	15
513.700	1	7
513.871	1	8
514.041	1	21
514.211	1	7
514.381	1	19
514.551	1	8
514.721	1	-1
514.892	1	8
515.062	1	19
515.232	1	17
515.402	1	9
515.572	1	15
515.742	1	17
515.912	1	12
516.083	1	15
516.253	1	10
516.423	1	11
516.593	1	8
516.763	1	12
516.933	1	19
517.104	1	9
517.274	1	16
517.444	1	1
517.614	1	19
517.784	1	2
517.954	1	8
518.124	1	6
518.294	1	2
518.465	1	16
518.635	1	8
518.805	1	5
518.975	1	4
519.145	1	4
519.315	1	9
519.485	1	7
519.656	1	12
519.826	1	7
519.996	1	16
520.166	1	0
520.336	1	4
520.506	1	12
520.676	1	15
520.846	1	10
521.017	1	5
521.187	1	8
521.357	1	13
521.527	1	-1
521.697	1	13
521.867	1	7
522.037	1	8
522.207	1	8
522.377	1	14
522.548	1	10
522.718	1	15
522.888	1	22
523.058	1	12
523.228	1	6
523.398	1	7
523.568	1	7
523.738	1	3
523.909	1	17
524.079	1	10
524.249	1	13
524.419	1	9
524.589	1	4
524.759	1	7
524.929	1	9
525.099	1	-1
525.269	1	-5
525.439	1	9
525.610	1	9
525.780	1	13
525.950	1	14
526.120	1	-4
526.290	1	11
526.460	1	18
526.630	1	19
526.800	1	12
526.970	1	11
527.140	1	8
527.311	1	16
527.481	1	5
527.651	1	12
527.821	1	7
527.991	1	-6
528.161	1	-1
528.331	1	15
528.501	1	3
528.671	1	10
528.841	1	24
529.011	1	-7
529.181	1	19
529.352	1	7
529.522	1	11
529.692	1	-2
529.862	1	14
530.032	1	9
530.202	1	7
530.372	1	11
530.542	1	0
530.712	1	16
530.882	1	6
531.052	1	9
531.222	1	8
531.392	1	10
531.563	1	9
531.733	1	3
531.903	1	15
532.073	1	9
532.243	1	13
532.413	1	-4
532.583	1	9
532.753	1	14
532.923	1	6
533.093	1	9
533.263	1	-2
533.433	1	5
533.603	1	8
533.773	1	6
533.943	1	-2
534.113	1	11
534.284	1	6
534.454	1	15
534.624	1	12
534.794	1	17
534.964	1	3
535.134	1	16
535.304	1	11
535.474	1	4
535.644	1	10
535.814	1	8
535.984	1	4
536.154	1	3
536.324	1	-2
536.494	1	3
536.664	1	2
536.834	1	17
537.004	1	4
537.174	1	11
537.344	1	21
537.514	1	2
537.685	1	10
537.855	1	10
538.025	1	9
538.195	1	13
538.365	1	15
538.535	1	-3
538.705	1	5
538.875	1	5
539.045	1	5
539.215	1	18
539.385	1	4
539.555	1	9
539.725	1	6
539.895	1	11
540.065	1	-10
540.235	1	13
540.405	1	5
540.575	1	5
540.745	1	8
540.915	1	5
541.085	1	3
541.255	1	7
541.425	1	3
541.595	1	9
541.765	1	19
541.935	1	3
542.105	1	5
542.275	1	4
542.445	1	2
542.615	1	16
542.785	1	12
542.955	1	1
543.125	1	11
543.295	1	13
543.465	1	7
543.635	1	2
543.805	1	1
543.975	1	1
544.145	1	15
544.315	1	1
544.485	1	4
544.655	1	7
544.825	1	6
544.995	1	7
545.165	1	7
545.335	1	4
545.505	1	5
545.675	1	0
545.845	1	12
546.015	1	5
546.185	1	-4
546.355	1	6
546.525	1	8
546.695	1	-6
546.865	1	9
547.035	1	13
547.205	1	14
547.375	1	18
547.545	1	2
547.715	1	2
547.885	1	7
548.055	1	1
548.225	1	4
548.395	1	-3
548.565	1	10
548.735	1	-2
548.905	1	5
549.075	1	11
549.245	1	11
549.415	1	-2
549.585	1	8
549.755	1	13
549.925	1	3
550.095	1	12
550.265	1	11
550.435	1	11
550.605	1	10
550.775	1	10
550.945	1	11
551.115	1	5
551.285	1	11
551.455	1	0
551.625	1	-3
551.795	1	-4
551.965	1	8
552.135	1	9
552.305	1	11
552.475	1	7
552.645	1	9
552.815	1	4
552.985	1	7
553.155	1	16
553.325	1	-7
553.495	1	1
553.665	1	2
553.835	1	6
554.004	1	20
554.174	1	-2
554.344	1	5
554.514	1	9
554.684	1	3
554.854	1	3
555.024	1	4
555.194	1	4
555.364	1	7
555.534	1	0
555.704	1	12
555.874	1	5
556.044	1	6
556.214	1	10
556.384	1	8
556.554	1	4
556.724	1	6
556.894	1	-2
557.064	1	9
557.234	1	-5
557.404	1	2
557.573	1	5
557.743	1	3
557.913	1	14
558.083	1	4
558.253	1	1
558.423	1	4
558.593	1	1
558.763	1	7
558.933	1	5
559.103	1	18
559.273	1	-3
559.443	1	0
559.613	1	0
559.783	1	-5
559.953	1	1
560.122	1	13
560.292	1	15
560.462	1	7
560.632	1	1
560.802	1	7
560.972	1	0
561.142	1	-4
561.312	1	13
561.482	1	-2
561.652	1	-1
561.822	1	4
561.992	1	-8
562.162	1	12
562.331	1	1
562.501	1	-2
562.671	1	10
562.841	1	5
563.011	1	6
563.181	1	3
563.351	1	7
563.521	1	5
563.691	1	8
563.861	1	11
564.031	1	-2
564.201	1	7
564.370	1	3
564.540	1	7
564.710	1	4
564.880	1	2
565.050	1	12
565.220	1	7
565.390	1	5
565.560	1	17
565.730	1	-2
565.900	1	10
566.069	1	3
566.239	1	10
566.409	1	2
566.579	1	13
566.749	1	-2
566.919	1	3
567.089	1	14
567.259	1	5
567.429	1	6
567.599	1	16
567.768	1	5
567.938	1	-1
568.108	1	2
568.278	1	15
568.448	1	5
568.618	1	5
568.788	1	8
568.958	1	-1
569.128	1	2
569.297	1	-4
569.467	1	-2
569.637	1	11
569.807	1	10
569.977	1	4
570.147	1	6
570.317	1	2
570.487	1	6
570.656	1	-5
570.826	1	6
570.996	1	-7
571.166	1	21
571.336	1	11
571.506	1	8
571.676	1	17
571.846	1	6
572.015	1	3
572.185	1	7
572.355	1	7
572.525	1	2
572.695	1	1
572.865	1	-11
573.035	1	11
573.205	1	4
573.374	1	11
573.544	1	6
573.714	1	3
573.884	1	7
574.054	1	10
574.224	1	0
574.394	1	10
574.563	1	9
574.733	1	4
574.903	1	6
575.073	1	3
575.243	1	9
575.413	1	-1
575.583	1	10
575.752	1	3
575.922	1	5
576.092	1	1
576.262	1	-1
576.432	1	3
576.602	1	3
576.772	1	8
576.941	1	9
577.111	1	-1
577.281	1	7
577.451	1	-3
577.621	1	4
577.791	1	4
577.960	1	5
578.130	1	4
578.300	1	1
578.470	1	1
578.640	1	5
578.810	1	2
578.979	1	12
579.149	1	-9
579.319	1	4
579.489	1	2
579.659	1	-9
579.829	1	7
579.998	1	8
580.168	1	3
580.338	1	16
580.508	1	12
580.678	1	4
580.848	1	1
581.017	1	14
581.187	1	4
581.357	1	-5
581.527	1	9
581.697	1	3
581.867	1	0
582.036	1	5
582.206	1	9
582.376	1	6
582.546	1	1
582.716	1	4
582.885	1	-4
583.055	1	1
583.225	1	-3
583.395	1	13
583.565	1	5
583.735	1	13
583.904	1	5
584.074	1	3
584.244	1	-7
584.414	1	9
584.584	1	-8
584.753	1	10
584.923	1	4
585.093	1	6
585.263	1	10
585.433	1	2
585.602	1	4
585.772	1	1
585.942	1	9
586.112	1	3
586.282	1	-6
586.451	1	10
586.621	1	12
586.791	1	-5
586.961	1	0
587.131	1	-9
587.300	1	-4
587.470	1	10
587.640	1	9
587.810	1	10
587.980	1	4
588.149	1	10
588.319	1	9
588.489	1	3
588.659	1	4
588.829	1	14
588.998	1	6
589.168	1	14
589.338	1	0
589.508	1	5
589.677	1	17
589.847	1	9
590.017	1	-5
590.187	1	12
590.357	1	17
590.526	1	-1
590.696	1	-1
590.866	1	4
591.036	1	11
591.205	1	10
591.375	1	-4
591.545	1	6
591.715	1	10
591.885	1	8
592.054	1	-7
592.224	1	7
592.394	1	2
592.564	1	1
592.733	1	-5
592.903	1	-4
593.073	1	9
593.243	1	3
593.412	1	10
593.582	1	2
593.752	1	5
593.922	1	6
594.091	1	2
594.261	1	4
594.431	1	15
594.601	1	-7
594.771	1	11
594.940	1	11
595.110	1	10
595.280	1	-1
595.450	1	13
595.619	1	12
595.789	1	8
595.959	1	14
596.129	1	3
596.298	1	11
596.468	1	-10
596.638	1	9
596.808	1	4
596.977	1	-2
597.147	1	-11
597.317	1	6
597.487	1	11
597.656	1	5
597.826	1	3
597.996	1	16
598.166	1	3
598.335	1	7
598.505	1	-3
598.675	1	6
598.844	1	4
599.014	1	18
599.184	1	0
599.354	1	9
599.523	1	14
599.693	1	10
599.863	1	6
600.033	1	-5
600.202	1	10
600.372	1	-6
600.542	1	2
600.712	1	4
600.881	1	1
601.051	1	8
601.221	1	6
601.390	1	-11
601.560	1	2
601.730	1	11
601.900	1	0
602.069	1	6
602.239	1	2
602.409	1	3
602.578	1	8
602.748	1	4
602.918	1	9
603.088	1	22
603.257	1	1
603.427	1	7
603.597	1	3
603.767	1	7
603.936	1	2
604.106	1	6
604.276	1	14
604.445	1	-1
604.615	1	12
604.785	1	5
604.954	1	18
605.124	1	-3
605.294	1	4
605.464	1	5
605.633	1	12
605.803	1	6
605.973	1	10
606.142	1	7
606.312	1	15
606.482	1	11
606.652	1	13
606.821	1	-1
606.991	1	-5
607.161	1	6
607.330	1	-4
607.500	1	9
607.670	1	23
607.839	1	12
608.009	1	2
608.179	1	7
608.348	1	9
608.518	1	5
608.688	1	0
608.858	1	15
609.027	1	9
609.197	1	-2
609.367	1	13
609.536	1	7
609.706	1	7
609.876	1	16
610.045	1	10
610.215	1	4
610.385	1	8
610.554	1	-8
610.724	1	-3
610.894	1	11
611.063	1	-2
611.233	1	11
611.403	1	7
611.572	1	15
611.742	1	10
611.912	1	9
612.081	1	6
612.251	1	7
612.421	1	14
612.590	1	11
612.760	1	9
612.930	1	-1
613.099	1	6
613.269	1	1
613.439	1	7
613.608	1	12
613.778	1	7
613.948	1	1
614.117	1	9
614.287	1	8
614.457	1	1
614.626	1	10
614.796	1	6
614.966	1	4
615.135	1	6
615.305	1	13
615.475	1	4
615.644	1	0
615.814	1	1
615.984	1	19
616.153	1	12
616.323	1	9
616.493	1	16
616.662	1	16
616.832	1	16
617.002	1	6
617.171	1	3
617.341	1	10
617.511	1	5
617.680	1	7
617.850	1	14
618.019	1	10
618.189	1	16
618.359	1	9
618.528	1	15
618.698	1	15
618.868	1	-1
619.037	1	13
619.207	1	2
619.377	1	10
619.546	1	0
619.716	1	3
619.885	1	12
620.055	1	13
620.225	1	11
620.394	1	5
620.564	1	8
620.734	1	11
620.903	1	8
621.073	1	4
621.242	1	4
621.412	1	10
621.582	1	4
621.751	1	17
621.921	1	19
622.091	1	11
622.260	1	0
622.430	1	9
622.599	1	-2
622.769	1	10
622.939	1	16
623.108	1	5
623.278	1	13
623.448	1	19
623.617	1	17
623.787	1	14
623.956	1	18
624.126	1	21
624.296	1	12
624.465	1	10
624.635	1	12
624.804	1	5
624.974	1	12
625.144	1	6
625.313	1	-3
625.483	1	22
625.652	1	17
625.822	1	8
625.992	1	-1
626.161	1	8
626.331	1	10
626.501	1	6
626.670	1	19
626.840	1	9
627.009	1	21
627.179	1	7
627.348	1	21
627.518	1	11
627.688	1	9
627.857	1	9
628.027	1	-11
628.196	1	13
628.366	1	4
628.536	1	7
628.705	1	7
628.875	1	15
629.044	1	7
629.214	1	9
629.384	1	9
629.553	1	16
629.723	1	1
629.892	1	17
630.062	1	1
630.232	1	14
630.401	1	13
630.571	1	13
630.740	1	6
630.910	1	22
631.079	1	5
631.249	1	13
631.419	1	0
631.588	1	15
631.758	1	19
631.927	1	7
632.097	1	11
632.266	1	17
632.436	1	14
632.606	1	7
632.775	1	20
632.945	1	15
633.114	1	-1
633.284	1	5
633.453	1	2
633.623	1	13
633.793	1	-2
633.962	1	0
634.132	1	9
634.301	1	18
634.471	1	10
634.640	1	6
634.810	1	4
634.979	1	13
635.149	1	11
635.319	1	20
635.488	1	18
635.658	1	8
635.827	1	6
635.997	1	6
636.166	1	11
636.336	1	9
636.505	1	15
636.675	1	18
636.845	1	6
637.014	1	14
637.184	1	8
637.353	1	8
637.523	1	12
637.692	1	13
637.862	1	17
638.031	1	12
638.201	1	16
638.370	1	9
638.540	1	1
638.710	1	15
638.879	1	1
639.049	1	8
639.218	1	8
639.388	1	7
639.557	1	13
639.727	1	14
639.896	1	10
640.066	1	19
640.235	1	14
640.405	1	3
640.574	1	11
640.744	1	7
640.914	1	8
641.083	1	2
641.253	1	22
641.422	1	7
641.592	1	4
641.761	1	8
641.931	1	-5
642.100	1	9
642.270	1	17
642.439	1	4
642.609	1	14
642.778	1	3
642.948	1	14
643.117	1	13
643.287	1	15
643.456	1	22
643.626	1	21
643.795	1	8
643.965	1	4
644.134	1	14
644.304	1	6
644.473	1	21
644.643	1	8
644.812	1	22
644.982	1	13
645.151	1	25
645.321	1	13
645.490	1	5
645.660	1	8
645.829	1	6
645.999	1	15
646.168	1	1
646.338	1	10
646.507	1	24
646.677	1	2
646.846	1	5
647.016	1	16
647.185	1	7
647.355	1	10
647.524	1	12
647.694	1	9
647.863	1	-1
648.033	1	2
648.202	1	10
648.372	1	15
648.541	1	8
648.711	1	8
648.880	1	16
649.050	1	9
649.219	1	5
649.389	1	9
649.558	1	16
649.728	1	2
649.897	1	8
650.067	1	6
650.236	1	14
650.406	1	13
650.575	1	17
650.745	1	15
650.914	1	7
651.084	1	8
651.253	1	18
651.423	1	21
651.592	1	14
651.762	1	15
651.931	1	14
652.101	1	7
652.270	1	10
652.440	1	6
652.609	1	16
652.778	1	6
652.948	1	12
653.117	1	6
653.287	1	19
653.456	1	15
653.626	1	5
653.795	1	14
653.965	1	11
654.134	1	7
654.304	1	14
654.473	1	4
654.643	1	11
654.812	1	16
654.982	1	6
655.151	1	6
655.320	1	7
655.490	1	15
655.659	1	10
655.829	1	19
655.998	1	7
656.168	1	7
656.337	1	22
656.507	1	8
656.676	1	11
656.846	1	-6
657.015	1	9
657.184	1	10
657.354	1	10
657.523	1	12
657.693	1	9
657.862	1	8
658.032	1	14
658.201	1	2
658.371	1	3
658.540	1	-2
658.709	1	16
658.879	1	-10
659.048	1	13
659.218	1	20
659.387	1	7
659.557	1	9
659.726	1	8
659.895	1	8
660.065	1	0
660.234	1	2
660.404	1	11
660.573	1	14
660.743	1	15
660.912	1	13
661.081	1	23
661.251	1	11
661.420	1	14
661.590	1	-1
661.759	1	10
661.929	1	14
662.098	1	9
662.267	1	12
662.437	1	11
662.606	1	14
662.776	1	6
662.945	1	7
663.115	1	17
663.284	1	18
663.453	1	-8
663.623	1	16
663.792	1	13
663.962	1	7
664.131	1	6
664.300	1	10
664.470	1	14
664.639	1	10
664.809	1	7
664.978	1	3
665.148	1	19
665.317	1	8
665.486	1	13
665.656	1	1
665.825	1	4
665.995	1	10
666.164	1	12
666.333	1	16
666.503	1	14
666.672	1	15
666.842	1	0
667.011	1	12
667.180	1	11
667.350	1	8
667.519	1	15
667.689	1	8
667.858	1	19
668.027	1	21
668.197	1	4
668.366	1	13
668.536	1	16
668.705	1	13
668.874	1	22
669.044	1	6
669.213	1	2
669.382	1	10
669.552	1	11
669.721	1	20
669.891	1	5
670.060	1	24
670.229	1	5
670.399	1	13
670.568	1	5
670.738	1	-3
670.907	1	11
671.076	1	3
671.246	1	15
671.415	1	14
671.584	1	11
671.754	1	10
671.923	1	19
672.093	1	23
672.262	1	11
672.431	1	4
672.601	1	7
672.770	1	13
672.939	1	6
673.109	1	14
673.278	1	22
673.448	1	7
673.617	1	10
673.786	1	10
