325.333	1	12
325.504	1	10
325.675	1	12
325.846	1	16
326.017	1	10
326.188	1	24
326.359	1	19
326.531	1	13
326.702	1	12
326.873	1	13
327.044	1	14
327.215	1	19
327.386	1	15
327.557	1	10
327.728	1	18
327.899	1	22
328.070	1	24
328.241	1	16
328.412	1	20
328.583	1	13
328.754	1	17
328.926	1	4
329.097	1	12
329.268	1	12
329.439	1	21
329.610	1	20
329.781	1	14
329.952	1	24
330.123	1	15
330.294	1	8
330.465	1	18
330.636	1	16
330.807	1	21
330.978	1	11
331.149	1	30
331.320	1	26
331.492	1	15
331.663	1	13
331.834	1	26
332.005	1	15
332.176	1	5
332.347	1	29
332.518	1	23
332.689	1	21
332.860	1	13
333.031	1	17
333.202	1	7
333.373	1	24
333.544	1	14
333.715	1	24
333.886	1	8
334.057	1	22
334.228	1	16
334.399	1	28
334.570	1	18
334.741	1	21
334.912	1	28
335.084	1	16
335.255	1	16
335.426	1	14
335.597	1	20
335.768	1	25
335.939	1	13
336.110	1	26
336.281	1	24
336.452	1	21
336.623	1	28
336.794	1	16
336.965	1	14
337.136	1	25
337.307	1	10
337.478	1	12
337.649	1	32
337.820	1	17
337.991	1	22
338.162	1	28
338.333	1	16
338.504	1	19
338.675	1	28
338.846	1	26
339.017	1	23
339.188	1	25
339.359	1	33
339.530	1	22
339.701	1	32
339.872	1	34
340.043	1	11
340.214	1	29
340.385	1	23
340.556	1	24
340.727	1	35
340.898	1	28
341.069	1	24
341.240	1	27
341.411	1	13
341.582	1	32
341.753	1	12
341.924	1	16
342.095	1	31
342.266	1	15
342.437	1	25
342.608	1	40
342.779	1	18
342.950	1	28
343.121	1	25
343.292	1	14
343.463	1	27
343.634	1	19
343.805	1	12
343.976	1	20
344.147	1	15
344.318	1	21
344.489	1	30
344.660	1	31
344.831	1	33
345.002	1	26
345.173	1	18
345.344	1	22
345.515	1	14
345.686	1	33
345.857	1	18
346.028	1	24
346.199	1	14
346.370	1	28
346.541	1	24
346.712	1	25
346.883	1	23
347.054	1	28
347.225	1	21
347.396	1	13
347.567	1	34
347.738	1	13
347.909	1	24
348.080	1	22
348.251	1	36
348.422	1	27
348.593	1	15
348.764	1	31
348.935	1	12
349.106	1	30
349.277	1	34
349.448	1	23
349.619	1	28
349.790	1	39
349.961	1	30
350.132	1	37
350.303	1	23
350.474	1	16
350.645	1	35
350.816	1	26
350.987	1	35
351.157	1	36
351.328	1	33
351.499	1	41
351.670	1	30
351.841	1	35
352.012	1	30
352.183	1	29
352.354	1	30
352.525	1	31
352.696	1	39
352.867	1	31
353.038	1	20
353.209	1	33
353.380	1	22
353.551	1	21
353.722	1	31
353.893	1	20
354.064	1	32
354.235	1	30
354.406	1	31
354.576	1	34
354.747	1	28
354.918	1	33
355.089	1	36
355.260	1	51
355.431	1	29
355.602	1	33
355.773	1	26
355.944	1	31
356.115	1	34
356.286	1	35
356.457	1	37
356.628	1	34
356.799	1	29
356.970	1	40
357.141	1	28
357.311	1	31
357.482	1	38
357.653	1	38
357.824	1	29
357.995	1	30
358.166	1	35
358.337	1	25
358.508	1	26
358.679	1	41
358.850	1	23
359.021	1	35
359.192	1	39
359.363	1	32
359.533	1	23
359.704	1	39
359.875	1	31
360.046	1	37
360.217	1	41
360.388	1	36
360.559	1	29
360.730	1	28
360.901	1	28
361.072	1	31
361.243	1	32
361.414	1	26
361.584	1	28
361.755	1	31
361.926	1	41
362.097	1	39
362.268	1	23
362.439	1	26
362.610	1	38
362.781	1	27
362.952	1	29
363.123	1	34
363.293	1	32
363.464	1	32
363.635	1	45
363.806	1	32
363.977	1	38
364.148	1	35
364.319	1	33
364.490	1	42
364.661	1	28
364.832	1	48
365.002	1	43
365.173	1	29
365.344	1	32
365.515	1	36
365.686	1	20
365.857	1	24
366.028	1	36
366.199	1	28
366.370	1	30
366.540	1	23
366.711	1	34
366.882	1	18
367.053	1	26
367.224	1	40
367.395	1	31
367.566	1	28
367.737	1	26
367.908	1	38
368.078	1	39
368.249	1	31
368.420	1	32
368.591	1	53
368.762	1	31
368.933	1	21
369.104	1	43
369.274	1	24
369.445	1	33
369.616	1	38
369.787	1	43
369.958	1	35
370.129	1	36
370.300	1	33
370.471	1	40
370.641	1	40
370.812	1	37
370.983	1	17
371.154	1	31
371.325	1	34
371.496	1	35
371.667	1	39
371.837	1	33
372.008	1	20
372.179	1	23
372.350	1	33
372.521	1	30
372.692	1	36
372.863	1	36
373.033	1	49
373.204	1	33
373.375	1	38
373.546	1	52
373.717	1	30
373.888	1	39
374.059	1	37
374.229	1	26
374.400	1	22
374.571	1	41
374.742	1	27
374.913	1	27
375.084	1	44
375.254	1	42
375.425	1	24
375.596	1	44
375.767	1	40
375.938	1	33
376.109	1	30
376.279	1	27
376.450	1	34
376.621	1	23
376.792	1	40
376.963	1	41
377.134	1	39
377.304	1	41
377.475	1	31
377.646	1	42
377.817	1	32
377.988	1	37
378.159	1	47
378.329	1	40
378.500	1	43
378.671	1	52
378.842	1	33
379.013	1	42
379.184	1	30
379.354	1	43
379.525	1	37
379.696	1	48
379.867	1	42
380.038	1	51
380.209	1	42
380.379	1	37
380.550	1	50
380.721	1	37
380.892	1	42
381.063	1	47
381.233	1	46
381.404	1	41
381.575	1	55
381.746	1	49
381.917	1	40
382.087	1	40
382.258	1	60
382.429	1	38
382.600	1	50
382.771	1	45
382.941	1	49
383.112	1	39
383.283	1	50
383.454	1	37
383.625	1	33
383.795	1	44
383.966	1	45
384.137	1	42
384.308	1	44
384.479	1	30
384.649	1	50
384.820	1	62
384.991	1	45
385.162	1	43
385.333	1	48
385.503	1	39
385.674	1	31
385.845	1	58
386.016	1	49
386.187	1	45
386.357	1	36
386.528	1	37
386.699	1	50
386.870	1	57
387.041	1	54
387.211	1	46
387.382	1	46
387.553	1	43
387.724	1	60
387.894	1	51
388.065	1	52
388.236	1	52
388.407	1	51
388.578	1	43
388.748	1	49
388.919	1	46
389.090	1	59
389.261	1	49
389.431	1	53
389.602	1	65
389.773	1	55
389.944	1	62
390.114	1	66
390.285	1	36
390.456	1	43
390.627	1	55
390.798	1	59
390.968	1	59
391.139	1	43
391.310	1	51
391.481	1	57
391.651	1	62
391.822	1	56
391.993	1	54
392.164	1	58
392.334	1	50
392.505	1	48
392.676	1	58
392.847	1	53
393.017	1	54
393.188	1	59
393.359	1	49
393.530	1	53
393.700	1	46
393.871	1	44
394.042	1	46
394.213	1	45
394.383	1	58
394.554	1	67
394.725	1	52
394.896	1	49
395.066	1	51
395.237	1	59
395.408	1	50
395.579	1	40
395.749	1	49
395.920	1	53
396.091	1	68
396.262	1	50
396.432	1	54
396.603	1	52
396.774	1	54
396.945	1	46
397.115	1	58
397.286	1	43
397.457	1	56
397.627	1	49
397.798	1	56
397.969	1	55
398.140	1	48
398.310	1	49
398.481	1	49
398.652	1	42
398.823	1	51
398.993	1	59
399.164	1	49
399.335	1	62
399.505	1	45
399.676	1	54
399.847	1	57
400.018	1	58
400.188	1	54
400.359	1	58
400.530	1	58
400.700	1	58
400.871	1	56
401.042	1	66
401.213	1	51
401.383	1	60
401.554	1	58
401.725	1	59
401.895	1	67
402.066	1	55
402.237	1	66
402.408	1	63
402.578	1	55
402.749	1	60
402.920	1	62
403.090	1	47
403.261	1	63
403.432	1	51
403.603	1	62
403.773	1	73
403.944	1	62
404.115	1	59
404.285	1	69
404.456	1	62
404.627	1	57
404.797	1	63
404.968	1	62
405.139	1	66
405.310	1	58
405.480	1	58
405.651	1	62
405.822	1	68
405.992	1	60
406.163	1	66
406.334	1	60
406.504	1	72
406.675	1	70
406.846	1	61
407.016	1	58
407.187	1	67
407.358	1	60
407.528	1	58
407.699	1	52
407.870	1	57
408.041	1	62
408.211	1	69
408.382	1	67
408.553	1	60
408.723	1	70
408.894	1	63
409.065	1	54
409.235	1	63
409.406	1	68
409.577	1	59
409.747	1	64
409.918	1	58
410.089	1	64
410.259	1	62
410.430	1	71
410.601	1	64
410.771	1	69
410.942	1	65
411.113	1	70
411.283	1	72
411.454	1	67
411.625	1	71
411.795	1	46
411.966	1	89
412.137	1	65
412.307	1	72
412.478	1	76
412.649	1	72
412.819	1	72
412.990	1	66
413.161	1	78
413.331	1	68
413.502	1	62
413.672	1	74
413.843	1	64
414.014	1	75
414.184	1	61
414.355	1	68
414.526	1	68
414.696	1	71
414.867	1	66
415.038	1	68
415.208	1	73
415.379	1	75
415.550	1	79
415.720	1	64
415.891	1	86
416.062	1	73
416.232	1	70
416.403	1	64
416.573	1	70
416.744	1	69
416.915	1	75
417.085	1	72
417.256	1	64
417.427	1	63
417.597	1	73
417.768	1	79
417.939	1	67
418.109	1	60
418.280	1	66
418.450	1	68
418.621	1	67
418.792	1	61
418.962	1	56
419.133	1	64
419.304	1	70
419.474	1	66
419.645	1	72
419.815	1	70
419.986	1	70
420.157	1	55
420.327	1	64
420.498	1	75
420.669	1	54
420.839	1	61
421.010	1	59
421.180	1	78
421.351	1	60
421.522	1	62
421.692	1	79
421.863	1	71
422.033	1	65
422.204	1	69
422.375	1	63
422.545	1	66
422.716	1	58
422.886	1	56
423.057	1	61
423.228	1	71
423.398	1	64
423.569	1	58
423.740	1	78
423.910	1	68
424.081	1	72
424.251	1	56
424.422	1	65
424.593	1	54
424.763	1	75
424.934	1	67
425.104	1	67
425.275	1	81
425.445	1	56
425.616	1	75
425.787	1	75
425.957	1	66
426.128	1	66
426.298	1	78
426.469	1	73
426.640	1	65
426.810	1	74
426.981	1	70
427.151	1	71
427.322	1	69
427.493	1	74
427.663	1	78
427.834	1	71
428.004	1	65
428.175	1	66
428.345	1	70
428.516	1	66
428.687	1	74
428.857	1	56
429.028	1	64
429.198	1	65
429.369	1	71
429.540	1	73
429.710	1	74
429.881	1	55
430.051	1	69
430.222	1	67
430.392	1	65
430.563	1	68
430.734	1	58
430.904	1	53
431.075	1	73
431.245	1	64
431.416	1	64
431.586	1	57
431.757	1	47
431.927	1	63
432.098	1	56
432.269	1	62
432.439	1	57
432.610	1	70
432.780	1	53
432.951	1	62
433.121	1	67
433.292	1	65
433.462	1	72
433.633	1	50
433.804	1	57
433.974	1	67
434.145	1	67
434.315	1	64
434.486	1	77
434.656	1	75
434.827	1	68
434.997	1	60
435.168	1	73
435.339	1	62
435.509	1	68
435.680	1	58
435.850	1	62
436.021	1	72
436.191	1	66
436.362	1	67
436.532	1	68
436.703	1	63
436.873	1	70
437.044	1	58
437.214	1	59
437.385	1	59
437.556	1	61
437.726	1	65
437.897	1	64
438.067	1	67
438.238	1	72
438.408	1	59
438.579	1	64
438.749	1	60
438.920	1	74
439.090	1	69
439.261	1	66
439.431	1	54
439.602	1	53
439.772	1	63
439.943	1	55
440.113	1	68
440.284	1	58
440.455	1	68
440.625	1	80
440.796	1	72
440.966	1	47
441.137	1	51
441.307	1	68
441.478	1	60
441.648	1	54
441.819	1	69
441.989	1	59
442.160	1	55
442.330	1	56
442.501	1	53
442.671	1	60
442.842	1	55
443.012	1	59
443.183	1	58
443.353	1	66
443.524	1	49
443.694	1	61
443.865	1	71
444.035	1	52
444.206	1	58
444.376	1	48
444.547	1	65
444.717	1	58
444.888	1	54
445.058	1	57
445.229	1	47
445.399	1	56
445.570	1	50
445.740	1	51
445.911	1	68
446.081	1	60
446.252	1	57
446.422	1	59
446.593	1	48
446.763	1	60
446.934	1	56
447.104	1	48
447.275	1	63
447.445	1	52
447.616	1	60
447.786	1	50
447.957	1	61
448.127	1	61
448.298	1	48
448.468	1	64
448.639	1	53
448.809	1	63
448.979	1	49
449.150	1	53
449.320	1	36
449.491	1	49
449.661	1	64
449.832	1	62
450.002	1	57
450.173	1	45
450.343	1	63
450.514	1	61
450.684	1	57
450.855	1	59
451.025	1	55
451.196	1	54
451.366	1	56
451.537	1	43
451.707	1	55
451.878	1	46
452.048	1	59
452.218	1	56
452.389	1	53
452.559	1	54
452.730	1	51
452.900	1	48
453.071	1	41
453.241	1	66
453.412	1	50
453.582	1	53
453.753	1	54
453.923	1	58
454.093	1	55
454.264	1	60
454.434	1	65
454.605	1	49
454.775	1	53
454.946	1	67
455.116	1	53
455.287	1	35
455.457	1	48
455.628	1	58
455.798	1	63
455.968	1	57
456.139	1	41
456.309	1	48
456.480	1	52
456.650	1	56
456.821	1	63
456.991	1	50
457.161	1	45
457.332	1	44
457.502	1	45
457.673	1	54
457.843	1	43
458.014	1	47
458.184	1	47
458.355	1	35
458.525	1	46
458.695	1	46
458.866	1	55
459.036	1	47
459.207	1	39
459.377	1	50
459.548	1	39
459.718	1	37
459.888	1	52
460.059	1	50
460.229	1	36
460.400	1	49
460.570	1	47
460.740	1	47
460.911	1	39
461.081	1	31
461.252	1	55
461.422	1	40
461.593	1	39
461.763	1	48
461.933	1	46
462.104	1	53
462.274	1	45
462.445	1	39
462.615	1	42
462.785	1	38
462.956	1	41
463.126	1	37
463.297	1	48
463.467	1	63
463.638	1	39
463.808	1	35
463.978	1	41
464.149	1	50
464.319	1	40
464.490	1	45
464.660	1	35
464.830	1	41
465.001	1	50
465.171	1	44
465.342	1	42
465.512	1	44
465.682	1	51
465.853	1	35
466.023	1	44
466.194	1	37
466.364	1	47
466.534	1	42
466.705	1	46
466.875	1	38
467.045	1	36
467.216	1	44
467.386	1	41
467.557	1	37
467.727	1	36
467.897	1	31
468.068	1	45
468.238	1	39
468.409	1	36
468.579	1	41
468.749	1	41
468.920	1	41
469.090	1	37
469.260	1	33
469.431	1	36
469.601	1	40
469.772	1	42
469.942	1	44
470.112	1	41
470.283	1	53
470.453	1	45
470.623	1	41
470.794	1	35
470.964	1	29
471.135	1	45
471.305	1	35
471.475	1	38
471.646	1	33
471.816	1	45
471.986	1	33
472.157	1	32
472.327	1	36
472.497	1	25
472.668	1	32
472.838	1	24
473.009	1	44
473.179	1	37
473.349	1	30
473.520	1	38
473.690	1	40
473.860	1	31
474.031	1	34
474.201	1	37
474.371	1	35
474.542	1	33
474.712	1	31
474.882	1	47
475.053	1	29
475.223	1	41
475.394	1	39
475.564	1	20
475.734	1	34
475.905	1	38
476.075	1	19
476.245	1	41
476.416	1	29
476.586	1	30
476.756	1	40
476.927	1	34
477.097	1	41
477.267	1	38
477.438	1	22
477.608	1	29
477.778	1	45
477.949	1	30
478.119	1	32
478.289	1	44
478.460	1	41
478.630	1	34
478.800	1	29
478.971	1	37
479.141	1	35
479.311	1	25
479.482	1	36
479.652	1	38
479.822	1	15
479.993	1	39
480.163	1	34
480.333	1	34
480.504	1	37
480.674	1	35
480.844	1	30
481.015	1	35
481.185	1	37
481.355	1	16
481.525	1	36
481.696	1	45
481.866	1	23
482.036	1	29
482.207	1	33
482.377	1	19
482.547	1	32
482.718	1	30
482.888	1	38
483.058	1	38
483.229	1	30
483.399	1	33
483.569	1	31
483.740	1	34
483.910	1	29
484.080	1	39
484.250	1	36
484.421	1	35
484.591	1	29
484.761	1	29
484.932	1	31
485.102	1	26
485.272	1	32
485.443	1	23
485.613	1	27
485.783	1	25
485.953	1	27
486.124	1	9
486.294	1	32
486.464	1	36
486.635	1	28
486.805	1	26
486.975	1	21
487.146	1	27
487.316	1	36
487.486	1	24
487.656	1	31
487.827	1	27
487.997	1	23
488.167	1	34
488.338	1	27
488.508	1	28
488.678	1	30
488.848	1	36
489.019	1	33
489.189	1	29
489.359	1	32
489.529	1	36
489.700	1	18
489.870	1	24
490.040	1	25
490.211	1	25
490.381	1	35
490.551	1	24
490.721	1	24
490.892	1	32
491.062	1	34
491.232	1	20
491.402	1	22
491.573	1	34
491.743	1	12
491.913	1	18
492.084	1	22
492.254	1	26
492.424	1	16
492.594	1	27
492.765	1	27
492.935	1	27
493.105	1	33
493.275	1	21
493.446	1	27
493.616	1	31
493.786	1	25
493.956	1	16
494.127	1	17
494.297	1	15
494.467	1	28
494.637	1	24
494.808	1	22
494.978	1	19
495.148	1	21
495.318	1	21
495.489	1	21
495.659	1	27
495.829	1	31
495.999	1	15
496.170	1	16
496.340	1	38
496.510	1	20
496.680	1	17
496.851	1	24
497.021	1	22
497.191	1	16
497.361	1	17
497.532	1	16
497.702	1	25
497.872	1	14
498.042	1	26
498.213	1	24
498.383	1	29
498.553	1	20
498.723	1	10
498.894	1	33
499.064	1	24
499.234	1	10
499.404	1	26
499.574	1	15
499.745	1	19
499.915	1	15
500.085	1	27
500.255	1	22
500.426	1	14
500.596	1	30
500.766	1	19
500.936	1	28
501.106	1	34
501.277	1	20
501.447	1	26
501.617	1	23
501.787	1	23
501.958	1	33
502.128	1	25
502.298	1	25
502.468	1	23
502.638	1	15
502.809	1	6
502.979	1	13
503.149	1	24
503.319	1	9
503.489	1	23
503.660	1	12
503.830	1	31
504.000	1	19
504.170	1	20
504.340	1	29
504.511	1	15
504.681	1	30
504.851	1	38
505.021	1	18
505.192	1	3
505.362	1	23
505.532	1	10
505.702	1	12
505.872	1	19
506.043	1	13
506.213	1	10
506.383	1	25
506.553	1	13
506.723	1	20
506.893	1	18
507.064	1	15
507.234	1	22
507.404	1	35
507.574	1	23
507.744	1	16
507.915	1	25
508.085	1	9
508.255	1	12
508.425	1	24
508.595	1	16
508.766	1	17
508.936	1	19
509.106	1	18
509.276	1	19
509.446	1	15
509.616	1	14
509.787	1	23
509.957	1	14
510.127	1	13
510.297	1	18
510.467	1	20
510.638	1	23
510.808	1	14
510.978	1	19
511.148	1	21
511.318	1	14
511.488	1	27
511.659	1	30
511.829	1	18
511.999	1	14
512.169	1	6
512.339	1	10
512.509	1	16
512.680	1	6
512.850	1	23
513.020	1	16
513.190	1	18
513.360	1	14
513.530	1	18
513.700	1	14
513.871	1	19
514.041	1	18
514.211	1	9
514.381	1	17
514.551	1	10
514.721	1	19
514.892	1	16
515.062	1	11
515.232	1	17
515.402	1	20
515.572	1	17
515.742	1	24
515.912	1	13
516.083	1	22
516.253	1	28
516.423	1	6
516.593	1	16
516.763	1	16
516.933	1	17
517.104	1	12
517.274	1	19
517.444	1	17
517.614	1	13
517.784	1	17
517.954	1	16
518.124	1	11
518.294	1	8
518.465	1	20
518.635	1	17
518.805	1	15
518.975	1	12
519.145	1	20
519.315	1	9
519.485	1	20
519.656	1	12
519.826	1	12
519.996	1	13
520.166	1	14
520.336	1	8
520.506	1	15
520.676	1	24
520.846	1	13
521.017	1	17
521.187	1	17
521.357	1	23
521.527	1	10
521.697	1	22
521.867	1	13
522.037	1	9
522.207	1	21
522.377	1	11
522.548	1	17
522.718	1	19
522.888	1	17
523.058	1	10
523.228	1	14
523.398	1	20
523.568	1	10
523.738	1	4
523.909	1	18
524.079	1	14
524.249	1	13
524.419	1	26
524.589	1	13
524.759	1	11
524.929	1	12
525.099	1	4
525.269	1	2
525.439	1	20
525.610	1	11
525.780	1	19
525.950	1	23
526.120	1	10
526.290	1	13
526.460	1	14
526.630	1	16
526.800	1	14
526.970	1	14
527.140	1	26
527.311	1	24
527.481	1	12
527.651	1	13
527.821	1	9
527.991	1	4
528.161	1	6
528.331	1	22
528.501	1	5
528.671	1	20
528.841	1	28
529.011	1	4
529.181	1	10
529.352	1	21
529.522	1	17
529.692	1	12
529.862	1	15
530.032	1	7
530.202	1	18
530.372	1	15
530.542	1	2
530.712	1	26
530.882	1	19
531.052	1	15
531.222	1	9
531.392	1	13
531.563	1	14
531.733	1	8
531.903	1	16
532.073	1	16
532.243	1	27
532.413	1	-1
532.583	1	10
532.753	1	13
532.923	1	18
533.093	1	9
533.263	1	5
533.433	1	10
533.603	1	8
533.773	1	17
533.943	1	6
534.113	1	19
534.284	1	5
534.454	1	8
534.624	1	22
534.794	1	22
534.964	1	12
535.134	1	20
535.304	1	20
535.474	1	19
535.644	1	9
535.814	1	11
535.984	1	5
536.154	1	8
536.324	1	4
536.494	1	14
536.664	1	10
536.834	1	14
537.004	1	17
537.174	1	12
537.344	1	14
537.514	1	14
537.685	1	15
537.855	1	5
538.025	1	10
538.195	1	11
538.365	1	18
538.535	1	7
538.705	1	5
538.875	1	6
539.045	1	17
539.215	1	6
539.385	1	11
539.555	1	12
539.725	1	-1
539.895	1	10
540.065	1	6
540.235	1	22
540.405	1	5
540.575	1	9
540.745	1	17
540.915	1	1
541.085	1	7
541.255	1	15
541.425	1	7
541.595	1	7
541.765	1	24
541.935	1	18
542.105	1	2
542.275	1	12
542.445	1	11
542.615	1	5
542.785	1	-5
542.955	1	2
543.125	1	8
543.295	1	15
543.465	1	10
543.635	1	5
543.805	1	8
543.975	1	8
544.145	1	21
544.315	1	13
544.485	1	12
544.655	1	10
544.825	1	10
544.995	1	16
545.165	1	23
545.335	1	1
545.505	1	6
545.675	1	7
545.845	1	15
546.015	1	5
546.185	1	11
546.355	1	2
546.525	1	14
546.695	1	15
546.865	1	19
547.035	1	12
547.205	1	20
547.375	1	10
547.545	1	3
547.715	1	10
547.885	1	5
548.055	1	0
548.225	1	13
548.395	1	1
548.565	1	17
548.735	1	5
548.905	1	18
549.075	1	13
549.245	1	13
549.415	1	4
549.585	1	7
549.755	1	18
549.925	1	5
550.095	1	10
550.265	1	24
550.435	1	8
550.605	1	11
550.775	1	12
550.945	1	8
551.115	1	9
551.285	1	2
551.455	1	12
551.625	1	6
551.795	1	4
551.965	1	5
552.135	1	11
552.305	1	14
552.475	1	10
552.645	1	6
552.815	1	13
552.985	1	16
553.155	1	7
553.325	1	-6
553.495	1	12
553.665	1	13
553.835	1	19
554.004	1	16
554.174	1	6
554.344	1	4
554.514	1	13
554.684	1	7
554.854	1	6
555.024	1	-3
555.194	1	1
555.364	1	16
555.534	1	-2
555.704	1	11
555.874	1	17
556.044	1	11
556.214	1	14
556.384	1	11
556.554	1	7
556.724	1	13
556.894	1	9
557.064	1	14
557.234	1	13
557.404	1	11
557.573	1	10
557.743	1	1
557.913	1	13
558.083	1	8
558.253	1	8
558.423	1	0
558.593	1	6
558.763	1	6
558.933	1	8
559.103	1	14
559.273	1	6
559.443	1	3
559.613	1	2
559.783	1	-2
559.953	1	2
560.122	1	17
560.292	1	25
560.462	1	6
560.632	1	7
560.802	1	10
560.972	1	7
561.142	1	9
561.312	1	5
561.482	1	4
561.652	1	8
561.822	1	9
561.992	1	-5
562.162	1	15
562.331	1	8
562.501	1	1
562.671	1	16
562.841	1	-2
563.011	1	6
563.181	1	10
563.351	1	8
563.521	1	11
563.691	1	16
563.861	1	13
564.031	1	5
564.201	1	16
564.370	1	7
564.540	1	15
564.710	1	6
564.880	1	11
565.050	1	10
565.220	1	4
565.390	1	4
565.560	1	18
565.730	1	14
565.900	1	12
566.069	1	1
566.239	1	11
566.409	1	-3
566.579	1	14
566.749	1	1
566.919	1	9
567.089	1	3
567.259	1	5
567.429	1	5
567.599	1	10
567.768	1	11
567.938	1	6
568.108	1	5
568.278	1	12
568.448	1	11
568.618	1	6
568.788	1	10
568.958	1	-3
569.128	1	3
569.297	1	5
569.467	1	-1
569.637	1	17
569.807	1	7
569.977	1	-3
570.147	1	22
570.317	1	0
570.487	1	-4
570.656	1	1
570.826	1	3
570.996	1	0
571.166	1	11
571.336	1	-3
571.506	1	11
571.676	1	16
571.846	1	14
572.015	1	-4
572.185	1	9
572.355	1	-5
572.525	1	2
572.695	1	7
572.865	1	-1
573.035	1	14
573.205	1	7
573.374	1	11
573.544	1	13
573.714	1	0
573.884	1	12
574.054	1	10
574.224	1	12
574.394	1	-4
574.563	1	13
574.733	1	3
574.903	1	9
575.073	1	12
575.243	1	4
575.413	1	4
575.583	1	4
575.752	1	11
575.922	1	1
576.092	1	-1
576.262	1	13
576.432	1	12
576.602	1	0
576.772	1	12
576.941	1	8
577.111	1	2
577.281	1	5
577.451	1	2
577.621	1	4
577.791	1	4
577.960	1	7
578.130	1	-1
578.300	1	-1
578.470	1	8
578.640	1	8
578.810	1	4
578.979	1	-4
579.149	1	13
579.319	1	11
579.489	1	-7
579.659	1	3
579.829	1	10
579.998	1	6
580.168	1	10
580.338	1	9
580.508	1	10
580.678	1	4
580.848	1	4
581.017	1	13
581.187	1	13
581.357	1	0
581.527	1	9
581.697	1	10
581.867	1	11
582.036	1	2
582.206	1	10
582.376	1	4
582.546	1	-6
582.716	1	3
582.885	1	-3
583.055	1	6
583.225	1	4
583.395	1	20
583.565	1	9
583.735	1	7
583.904	1	10
584.074	1	-3
584.244	1	0
584.414	1	2
584.584	1	9
584.753	1	8
584.923	1	7
585.093	1	10
585.263	1	8
585.433	1	6
585.602	1	13
585.772	1	2
585.942	1	10
586.112	1	5
586.282	1	-8
586.451	1	12
586.621	1	9
586.791	1	-2
586.961	1	6
587.131	1	4
587.300	1	6
587.470	1	8
587.640	1	12
587.810	1	12
587.980	1	-1
588.149	1	8
588.319	1	9
588.489	1	11
588.659	1	10
588.829	1	10
588.998	1	0
589.168	1	14
589.338	1	4
589.508	1	8
589.677	1	6
589.847	1	14
590.017	1	-3
590.187	1	-1
590.357	1	11
590.526	1	5
590.696	1	-9
590.866	1	8
591.036	1	6
591.205	1	22
591.375	1	-7
591.545	1	6
591.715	1	1
591.885	1	13
592.054	1	1
592.224	1	4
592.394	1	6
592.564	1	3
592.733	1	-1
592.903	1	-1
593.073	1	3
593.243	1	6
593.412	1	13
593.582	1	12
593.752	1	7
593.922	1	-6
594.091	1	-5
594.261	1	-1
594.431	1	20
594.601	1	2
594.771	1	22
594.940	1	5
595.110	1	8
595.280	1	7
595.450	1	13
595.619	1	9
595.789	1	12
595.959	1	19
596.129	1	4
596.298	1	9
596.468	1	2
596.638	1	4
596.808	1	6
596.977	1	7
597.147	1	-7
597.317	1	6
597.487	1	10
597.656	1	6
597.826	1	7
597.996	1	8
598.166	1	6
598.335	1	2
598.505	1	19
598.675	1	4
598.844	1	-2
599.014	1	12
599.184	1	5
599.354	1	15
599.523	1	9
599.693	1	15
599.863	1	1
600.033	1	3
600.202	1	18
600.372	1	-2
600.542	1	7
600.712	1	5
600.881	1	3
601.051	1	7
601.221	1	14
601.390	1	-7
601.560	1	23
601.730	1	4
601.900	1	7
602.069	1	12
602.239	1	7
602.409	1	9
602.578	1	2
602.748	1	9
602.918	1	13
603.088	1	7
603.257	1	4
603.427	1	6
603.597	1	13
603.767	1	13
603.936	1	7
604.106	1	10
604.276	1	17
604.445	1	9
604.615	1	-2
604.785	1	1
604.954	1	9
605.124	1	0
605.294	1	12
605.464	1	3
605.633	1	11
605.803	1	8
605.973	1	9
606.142	1	11
606.312	1	10
606.482	1	9
606.652	1	3
606.821	1	12
606.991	1	7
607.161	1	7
607.330	1	1
607.500	1	12
607.670	1	27
607.839	1	13
608.009	1	10
608.179	1	17
608.348	1	15
608.518	1	3
608.688	1	3
608.858	1	14
609.027	1	12
609.197	1	-4
609.367	1	18
609.536	1	9
609.706	1	12
609.876	1	12
610.045	1	7
610.215	1	6
610.385	1	0
610.554	1	5
610.724	1	0
610.894	1	11
611.063	1	-3
611.233	1	17
611.403	1	9
611.572	1	14
611.742	1	10
611.912	1	12
612.081	1	-4
612.251	1	12
612.421	1	12
612.590	1	19
612.760	1	12
612.930	1	5
613.099	1	15
613.269	1	2
613.439	1	6
613.608	1	13
613.778	1	6
613.948	1	-6
614.117	1	11
614.287	1	10
614.457	1	0
614.626	1	16
614.796	1	5
614.966	1	14
615.135	1	6
615.305	1	16
615.475	1	12
615.644	1	7
615.814	1	4
615.984	1	9
616.153	1	13
616.323	1	4
616.493	1	25
616.662	1	16
616.832	1	16
617.002	1	13
617.171	1	7
617.341	1	9
617.511	1	10
617.680	1	16
617.850	1	12
618.019	1	10
618.189	1	20
618.359	1	4
618.528	1	13
618.698	1	17
618.868	1	10
619.037	1	9
619.207	1	12
619.377	1	1
619.546	1	7
619.716	1	16
619.885	1	8
620.055	1	16
620.225	1	22
620.394	1	6
620.564	1	20
620.734	1	8
620.903	1	7
621.073	1	2
621.242	1	9
621.412	1	11
621.582	1	12
621.751	1	11
621.921	1	18
622.091	1	12
622.260	1	1
622.430	1	7
622.599	1	-5
622.769	1	10
622.939	1	16
623.108	1	11
623.278	1	15
623.448	1	16
623.617	1	16
623.787	1	10
623.956	1	20
624.126	1	22
624.296	1	10
624.465	1	12
624.635	1	21
624.804	1	2
624.974	1	17
625.144	1	19
625.313	1	12
625.483	1	25
625.652	1	16
625.822	1	5
625.992	1	10
626.161	1	19
626.331	1	14
626.501	1	11
626.670	1	10
626.840	1	17
627.009	1	15
627.179	1	11
627.348	1	16
627.518	1	13
627.688	1	14
627.857	1	8
628.027	1	2
628.196	1	18
628.366	1	5
628.536	1	9
628.705	1	11
628.875	1	22
629.044	1	7
629.214	1	13
629.384	1	15
629.553	1	11
629.723	1	5
629.892	1	19
630.062	1	8
630.232	1	10
630.401	1	13
630.571	1	16
630.740	1	18
630.910	1	20
631.079	1	16
631.249	1	24
631.419	1	6
631.588	1	11
631.758	1	11
631.927	1	20
632.097	1	11
632.266	1	25
632.436	1	14
632.606	1	18
632.775	1	18
632.945	1	17
633.114	1	8
633.284	1	-1
633.453	1	7
633.623	1	26
633.793	1	2
633.962	1	2
634.132	1	8
634.301	1	11
634.471	1	11
634.640	1	8
634.810	1	17
634.979	1	11
635.149	1	8
635.319	1	16
635.488	1	9
635.658	1	14
635.827	1	13
635.997	1	19
636.166	1	12
636.336	1	7
636.505	1	7
636.675	1	16
636.845	1	3
637.014	1	18
637.184	1	6
637.353	1	9
637.523	1	8
637.692	1	24
637.862	1	12
638.031	1	20
638.201	1	21
638.370	1	20
638.540	1	17
638.710	1	28
638.879	1	11
639.049	1	22
639.218	1	7
639.388	1	12
639.557	1	19
639.727	1	16
639.896	1	11
640.066	1	22
640.235	1	14
640.405	1	19
640.574	1	21
640.744	1	17
640.914	1	18
641.083	1	10
641.253	1	25
641.422	1	17
641.592	1	6
641.761	1	12
641.931	1	13
642.100	1	22
642.270	1	10
642.439	1	11
642.609	1	7
642.778	1	14
642.948	1	20
643.117	1	15
643.287	1	17
643.456	1	9
643.626	1	21
643.795	1	15
643.965	1	19
644.134	1	16
644.304	1	19
644.473	1	13
644.643	1	12
644.812	1	22
644.982	1	12
645.151	1	26
645.321	1	16
645.490	1	9
645.660	1	8
645.829	1	21
645.999	1	24
646.168	1	6
646.338	1	6
646.507	1	20
646.677	1	15
646.846	1	6
647.016	1	24
647.185	1	15
647.355	1	15
647.524	1	17
647.694	1	2
647.863	1	7
648.033	1	3
648.202	1	8
648.372	1	16
648.541	1	10
648.711	1	18
648.880	1	18
649.050	1	7
649.219	1	10
649.389	1	10
649.558	1	13
649.728	1	7
649.897	1	15
650.067	1	16
650.236	1	24
650.406	1	9
650.575	1	20
650.745	1	12
650.914	1	6
651.084	1	20
651.253	1	25
651.423	1	13
651.592	1	14
651.762	1	13
651.931	1	10
652.101	1	9
652.270	1	22
652.440	1	12
652.609	1	18
652.778	1	11
652.948	1	12
653.117	1	13
653.287	1	17
653.456	1	7
653.626	1	10
653.795	1	26
653.965	1	20
654.134	1	14
654.304	1	28
654.473	1	14
654.643	1	6
654.812	1	14
654.982	1	12
655.151	1	14
655.320	1	12
655.490	1	16
655.659	1	15
655.829	1	25
655.998	1	15
656.168	1	13
656.337	1	12
656.507	1	4
656.676	1	13
656.846	1	14
657.015	1	17
657.184	1	10
657.354	1	14
657.523	1	16
657.693	1	16
657.862	1	14
658.032	1	12
658.201	1	8
658.371	1	7
658.540	1	8
658.709	1	14
658.879	1	1
659.048	1	7
659.218	1	21
659.387	1	6
659.557	1	11
659.726	1	17
659.895	1	9
660.065	1	6
660.234	1	14
660.404	1	19
660.573	1	23
660.743	1	19
660.912	1	17
661.081	1	27
661.251	1	23
661.420	1	16
661.590	1	9
661.759	1	18
661.929	1	14
662.098	1	8
662.267	1	4
662.437	1	18
662.606	1	22
662.776	1	13
662.945	1	11
663.115	1	24
663.284	1	22
663.453	1	1
663.623	1	11
663.792	1	12
663.962	1	16
664.131	1	14
664.300	1	9
664.470	1	28
664.639	1	18
664.809	1	10
664.978	1	10
665.148	1	15
665.317	1	18
665.486	1	23
665.656	1	2
665.825	1	14
665.995	1	20
666.164	1	9
666.333	1	20
666.503	1	9
666.672	1	20
666.842	1	6
667.011	1	5
667.180	1	3
667.350	1	15
667.519	1	16
667.689	1	9
667.858	1	12
668.027	1	18
668.197	1	20
668.366	1	17
668.536	1	22
668.705	1	13
668.874	1	17
669.044	1	12
669.213	1	14
669.382	1	17
669.552	1	25
669.721	1	25
669.891	1	14
670.060	1	23
670.229	1	10
670.399	1	16
670.568	1	16
670.738	1	4
670.907	1	14
671.076	1	14
671.246	1	15
671.415	1	10
671.584	1	7
671.754	1	8
671.923	1	5
672.093	1	16
672.262	1	13
672.431	1	4
672.601	1	9
672.770	1	18
672.939	1	11
673.109	1	20
673.278	1	22
673.448	1	9
673.617	1	5
673.786	1	19
