325.333	1	13
325.504	1	12
325.675	1	4
325.846	1	8
326.017	1	9
326.188	1	13
326.359	1	2
326.531	1	-1
326.702	1	9
326.873	1	4
327.044	1	10
327.215	1	5
327.386	1	4
327.557	1	6
327.728	1	8
327.899	1	20
328.070	1	5
328.241	1	15
328.412	1	11
328.583	1	8
328.754	1	12
328.926	1	6
329.097	1	8
329.268	1	4
329.439	1	9
329.610	1	8
329.781	1	3
329.952	1	7
330.123	1	1
330.294	1	2
330.465	1	7
330.636	1	21
330.807	1	9
330.978	1	13
331.149	1	20
331.320	1	12
331.492	1	11
331.663	1	8
331.834	1	2
332.005	1	9
332.176	1	6
332.347	1	17
332.518	1	11
332.689	1	9
332.860	1	13
333.031	1	10
333.202	1	-1
333.373	1	16
333.544	1	5
333.715	1	20
333.886	1	5
334.057	1	8
334.228	1	9
334.399	1	22
334.570	1	6
334.741	1	17
334.912	1	18
335.084	1	4
335.255	1	7
335.426	1	2
335.597	1	14
335.768	1	14
335.939	1	11
336.110	1	10
336.281	1	12
336.452	1	12
336.623	1	5
336.794	1	15
336.965	1	4
337.136	1	18
337.307	1	11
337.478	1	2
337.649	1	14
337.820	1	10
337.991	1	16
338.162	1	25
338.333	1	10
338.504	1	-1
338.675	1	16
338.846	1	15
339.017	1	16
339.188	1	9
339.359	1	12
339.530	1	18
339.701	1	7
339.872	1	6
340.043	1	-4
340.214	1	6
340.385	1	8
340.556	1	3
340.727	1	11
340.898	1	18
341.069	1	0
341.240	1	18
341.411	1	3
341.582	1	19
341.753	1	2
341.924	1	10
342.095	1	6
342.266	1	16
342.437	1	11
342.608	1	19
342.779	1	13
342.950	1	12
343.121	1	17
343.292	1	19
343.463	1	15
343.634	1	7
343.805	1	15
343.976	1	5
344.147	1	14
344.318	1	10
344.489	1	18
344.660	1	11
344.831	1	23
345.002	1	15
345.173	1	7
345.344	1	14
345.515	1	-2
345.686	1	18
345.857	1	7
346.028	1	13
346.199	1	3
346.370	1	13
346.541	1	5
346.712	1	14
346.883	1	11
347.054	1	18
347.225	1	18
347.396	1	2
347.567	1	23
347.738	1	8
347.909	1	6
348.080	1	10
348.251	1	15
348.422	1	9
348.593	1	8
348.764	1	12
348.935	1	8
349.106	1	10
349.277	1	7
349.448	1	10
349.619	1	5
349.790	1	26
349.961	1	24
350.132	1	14
350.303	1	12
350.474	1	4
350.645	1	10
350.816	1	2
350.987	1	6
351.157	1	8
351.328	1	23
351.499	1	15
351.670	1	14
351.841	1	16
352.012	1	20
352.183	1	5
352.354	1	0
352.525	1	13
352.696	1	13
352.867	1	15
353.038	1	8
353.209	1	15
353.380	1	10
353.551	1	4
353.722	1	9
353.893	1	7
354.064	1	11
354.235	1	13
354.406	1	11
354.576	1	16
354.747	1	5
354.918	1	20
355.089	1	13
355.260	1	22
355.431	1	15
355.602	1	16
355.773	1	8
355.944	1	2
356.115	1	18
356.286	1	11
356.457	1	15
356.628	1	7
356.799	1	19
356.970	1	22
357.141	1	11
357.311	1	13
357.482	1	4
357.653	1	14
357.824	1	10
357.995	1	16
358.166	1	13
358.337	1	5
358.508	1	19
358.679	1	12
358.850	1	9
359.021	1	13
359.192	1	10
359.363	1	12
359.533	1	2
359.704	1	8
359.875	1	12
360.046	1	7
360.217	1	11
360.388	1	14
360.559	1	7
360.730	1	5
360.901	1	6
361.072	1	4
361.243	1	12
361.414	1	8
361.584	1	5
361.755	1	2
361.926	1	9
362.097	1	8
362.268	1	10
362.439	1	11
362.610	1	6
362.781	1	12
362.952	1	13
363.123	1	8
363.293	1	11
363.464	1	8
363.635	1	17
363.806	1	5
363.977	1	11
364.148	1	3
364.319	1	10
364.490	1	10
364.661	1	10
364.832	1	13
365.002	1	24
365.173	1	6
365.344	1	15
365.515	1	1
365.686	1	5
365.857	1	6
366.028	1	11
366.199	1	9
366.370	1	16
366.540	1	12
366.711	1	7
366.882	1	3
367.053	1	11
367.224	1	14
367.395	1	1
367.566	1	3
367.737	1	11
367.908	1	11
368.078	1	27
368.249	1	13
368.420	1	14
368.591	1	22
368.762	1	-1
368.933	1	5
369.104	1	18
369.274	1	4
369.445	1	12
369.616	1	6
369.787	1	16
369.958	1	11
370.129	1	4
370.300	1	12
370.471	1	13
370.641	1	9
370.812	1	-5
370.983	1	11
371.154	1	8
371.325	1	9
371.496	1	23
371.667	1	11
371.837	1	5
372.008	1	-2
372.179	1	5
372.350	1	-1
372.521	1	13
372.692	1	11
372.863	1	10
373.033	1	12
373.204	1	9
373.375	1	-1
373.546	1	27
373.717	1	6
373.888	1	7
374.059	1	13
374.229	1	-2
374.400	1	3
374.571	1	9
374.742	1	1
374.913	1	11
375.084	1	15
375.254	1	7
375.425	1	3
375.596	1	12
375.767	1	11
375.938	1	7
376.109	1	8
376.279	1	-1
376.450	1	10
376.621	1	7
376.792	1	7
376.963	1	8
377.134	1	4
377.304	1	1
377.475	1	11
377.646	1	9
377.817	1	7
377.988	1	10
378.159	1	16
378.329	1	14
378.500	1	16
378.671	1	8
378.842	1	4
379.013	1	11
379.184	1	4
379.354	1	5
379.525	1	8
379.696	1	17
379.867	1	9
380.038	1	18
380.209	1	17
380.379	1	4
380.550	1	18
380.721	1	6
380.892	1	18
381.063	1	12
381.233	1	19
381.404	1	9
381.575	1	12
381.746	1	20
381.917	1	21
382.087	1	20
382.258	1	18
382.429	1	11
382.600	1	10
382.771	1	17
382.941	1	24
383.112	1	8
383.283	1	26
383.454	1	16
383.625	1	3
383.795	1	15
383.966	1	1
384.137	1	11
384.308	1	4
384.479	1	1
384.649	1	13
384.820	1	22
384.991	1	7
385.162	1	16
385.333	1	15
385.503	1	8
385.674	1	5
385.845	1	23
386.016	1	8
386.187	1	8
386.357	1	10
386.528	1	5
386.699	1	16
386.870	1	16
387.041	1	25
387.211	1	9
387.382	1	6
387.553	1	19
387.724	1	27
387.894	1	21
388.065	1	11
388.236	1	12
388.407	1	16
388.578	1	14
388.748	1	7
388.919	1	15
389.090	1	21
389.261	1	11
389.431	1	15
389.602	1	18
389.773	1	30
389.944	1	23
390.114	1	23
390.285	1	14
390.456	1	12
390.627	1	6
390.798	1	15
390.968	1	23
391.139	1	6
391.310	1	20
391.481	1	20
391.651	1	18
391.822	1	21
391.993	1	16
392.164	1	17
392.334	1	5
392.505	1	14
392.676	1	30
392.847	1	20
393.017	1	23
393.188	1	23
393.359	1	3
393.530	1	29
393.700	1	2
393.871	1	21
394.042	1	13
394.213	1	7
394.383	1	18
394.554	1	26
394.725	1	9
394.896	1	20
395.066	1	19
395.237	1	17
395.408	1	16
395.579	1	8
395.749	1	27
395.920	1	11
396.091	1	23
396.262	1	9
396.432	1	20
396.603	1	6
396.774	1	18
396.945	1	11
397.115	1	9
397.286	1	13
397.457	1	16
397.627	1	6
397.798	1	18
397.969	1	26
398.140	1	20
398.310	1	18
398.481	1	15
398.652	1	5
398.823	1	17
398.993	1	25
399.164	1	30
399.335	1	15
399.505	1	11
399.676	1	19
399.847	1	22
400.018	1	14
400.188	1	14
400.359	1	17
400.530	1	20
400.700	1	23
400.871	1	22
401.042	1	15
401.213	1	16
401.383	1	16
401.554	1	16
401.725	1	6
401.895	1	11
402.066	1	10
402.237	1	25
402.408	1	17
402.578	1	11
402.749	1	20
402.920	1	13
403.090	1	4
403.261	1	26
403.432	1	19
403.603	1	14
403.773	1	22
403.944	1	14
404.115	1	16
404.285	1	21
404.456	1	17
404.627	1	17
404.797	1	23
404.968	1	16
405.139	1	21
405.310	1	17
405.480	1	21
405.651	1	7
405.822	1	20
405.992	1	9
406.163	1	35
406.334	1	25
406.504	1	24
406.675	1	28
406.846	1	24
407.016	1	18
407.187	1	21
407.358	1	25
407.528	1	19
407.699	1	13
407.870	1	28
408.041	1	24
408.211	1	17
408.382	1	20
408.553	1	26
408.723	1	14
408.894	1	13
409.065	1	13
409.235	1	27
409.406	1	17
409.577	1	15
409.747	1	18
409.918	1	17
410.089	1	23
410.259	1	7
410.430	1	20
410.601	1	24
410.771	1	26
410.942	1	16
411.113	1	23
411.283	1	29
411.454	1	23
411.625	1	23
411.795	1	3
411.966	1	25
412.137	1	34
412.307	1	20
412.478	1	20
412.649	1	19
412.819	1	20
412.990	1	11
413.161	1	25
413.331	1	27
413.502	1	24
413.672	1	22
413.843	1	20
414.014	1	20
414.184	1	21
414.355	1	28
414.526	1	15
414.696	1	26
414.867	1	19
415.038	1	20
415.208	1	23
415.379	1	27
415.550	1	29
415.720	1	12
415.891	1	36
416.062	1	24
416.232	1	10
416.403	1	12
416.573	1	19
416.744	1	17
416.915	1	25
417.085	1	29
417.256	1	20
417.427	1	16
417.597	1	34
417.768	1	13
417.939	1	21
418.109	1	29
418.280	1	14
418.450	1	20
418.621	1	40
418.792	1	20
418.962	1	21
419.133	1	18
419.304	1	29
419.474	1	23
419.645	1	15
419.815	1	25
419.986	1	32
420.157	1	33
420.327	1	22
420.498	1	23
420.669	1	18
420.839	1	21
421.010	1	26
421.180	1	31
421.351	1	32
421.522	1	13
421.692	1	27
421.863	1	18
422.033	1	14
422.204	1	20
422.375	1	14
422.545	1	25
422.716	1	23
422.886	1	19
423.057	1	30
423.228	1	15
423.398	1	28
423.569	1	32
423.740	1	25
423.910	1	16
424.081	1	19
424.251	1	10
424.422	1	22
424.593	1	22
424.763	1	26
424.934	1	21
425.104	1	8
425.275	1	21
425.445	1	17
425.616	1	25
425.787	1	23
425.957	1	16
426.128	1	22
426.298	1	35
426.469	1	23
426.640	1	24
426.810	1	35
426.981	1	21
427.151	1	15
427.322	1	29
427.493	1	24
427.663	1	35
427.834	1	21
428.004	1	9
428.175	1	32
428.345	1	22
428.516	1	29
428.687	1	29
428.857	1	25
429.028	1	9
429.198	1	31
429.369	1	36
429.540	1	20
429.710	1	13
429.881	1	17
430.051	1	24
430.222	1	26
430.392	1	23
430.563	1	29
430.734	1	19
430.904	1	19
431.075	1	27
431.245	1	21
431.416	1	36
431.586	1	14
431.757	1	15
431.927	1	28
432.098	1	7
432.269	1	22
432.439	1	25
432.610	1	28
432.780	1	17
432.951	1	21
433.121	1	29
433.292	1	21
433.462	1	24
433.633	1	9
433.804	1	17
433.974	1	23
434.145	1	20
434.315	1	14
434.486	1	26
434.656	1	26
434.827	1	24
434.997	1	18
435.168	1	28
435.339	1	21
435.509	1	22
435.680	1	27
435.850	1	18
436.021	1	20
436.191	1	24
436.362	1	20
436.532	1	21
436.703	1	14
436.873	1	20
437.044	1	11
437.214	1	21
437.385	1	21
437.556	1	16
437.726	1	18
437.897	1	23
438.067	1	15
438.238	1	22
438.408	1	21
438.579	1	23
438.749	1	20
438.920	1	21
439.090	1	25
439.261	1	19
439.431	1	27
439.602	1	17
439.772	1	24
439.943	1	26
440.113	1	22
440.284	1	19
440.455	1	26
440.625	1	39
440.796	1	24
440.966	1	16
441.137	1	17
441.307	1	22
441.478	1	24
441.648	1	10
441.819	1	24
441.989	1	26
442.160	1	6
442.330	1	25
442.501	1	26
442.671	1	21
442.842	1	26
443.012	1	27
443.183	1	11
443.353	1	24
443.524	1	10
443.694	1	10
443.865	1	30
444.035	1	21
444.206	1	18
444.376	1	13
444.547	1	34
444.717	1	15
444.888	1	19
445.058	1	15
445.229	1	12
445.399	1	9
445.570	1	13
445.740	1	26
445.911	1	20
446.081	1	26
446.252	1	18
446.422	1	7
446.593	1	14
446.763	1	15
446.934	1	14
447.104	1	21
447.275	1	19
447.445	1	24
447.616	1	23
447.786	1	18
447.957	1	13
448.127	1	29
448.298	1	8
448.468	1	12
448.639	1	13
448.809	1	16
448.979	1	4
449.150	1	14
449.320	1	27
449.491	1	17
449.661	1	28
449.832	1	22
450.002	1	19
450.173	1	6
450.343	1	14
450.514	1	20
450.684	1	19
450.855	1	25
451.025	1	19
451.196	1	15
451.366	1	27
451.537	1	17
451.707	1	33
451.878	1	7
452.048	1	20
452.218	1	30
452.389	1	25
452.559	1	10
452.730	1	17
452.900	1	18
453.071	1	17
453.241	1	20
453.412	1	13
453.582	1	11
453.753	1	15
453.923	1	20
454.093	1	35
454.264	1	23
454.434	1	25
454.605	1	31
454.775	1	18
454.946	1	32
455.116	1	11
455.287	1	7
455.457	1	18
455.628	1	19
455.798	1	22
455.968	1	18
456.139	1	16
456.309	1	18
456.480	1	14
456.650	1	17
456.821	1	19
456.991	1	20
457.161	1	13
457.332	1	16
457.502	1	8
457.673	1	17
457.843	1	18
458.014	1	22
458.184	1	13
458.355	1	9
458.525	1	15
458.695	1	19
458.866	1	14
459.036	1	9
459.207	1	16
459.377	1	22
459.548	1	2
459.718	1	22
459.888	1	25
460.059	1	17
460.229	1	3
460.400	1	24
460.570	1	19
460.740	1	10
460.911	1	17
461.081	1	11
461.252	1	20
461.422	1	15
461.593	1	13
461.763	1	15
461.933	1	6
462.104	1	16
462.274	1	19
462.445	1	15
462.615	1	17
462.785	1	6
462.956	1	12
463.126	1	11
463.297	1	22
463.467	1	20
463.638	1	3
463.808	1	10
463.978	1	21
464.149	1	22
464.319	1	6
464.490	1	17
464.660	1	17
464.830	1	10
465.001	1	23
465.171	1	18
465.342	1	19
465.512	1	19
465.682	1	17
465.853	1	7
466.023	1	9
466.194	1	15
466.364	1	19
466.534	1	14
466.705	1	23
466.875	1	15
467.045	1	8
467.216	1	9
467.386	1	5
467.557	1	9
467.727	1	8
467.897	1	6
468.068	1	10
468.238	1	20
468.409	1	18
468.579	1	9
468.749	1	19
468.920	1	10
469.090	1	23
469.260	1	1
469.431	1	15
469.601	1	7
469.772	1	5
469.942	1	20
470.112	1	21
470.283	1	25
470.453	1	26
470.623	1	16
470.794	1	16
470.964	1	8
471.135	1	13
471.305	1	15
471.475	1	5
471.646	1	13
471.816	1	12
471.986	1	3
472.157	1	18
472.327	1	14
472.497	1	1
472.668	1	9
472.838	1	5
473.009	1	27
473.179	1	11
473.349	1	17
473.520	1	1
473.690	1	10
473.860	1	8
474.031	1	15
474.201	1	14
474.371	1	6
474.542	1	12
474.712	1	9
474.882	1	15
475.053	1	18
475.223	1	14
475.394	1	13
475.564	1	10
475.734	1	5
475.905	1	10
476.075	1	-6
476.245	1	13
476.416	1	3
476.586	1	12
476.756	1	16
476.927	1	18
477.097	1	13
477.267	1	12
477.438	1	8
477.608	1	4
477.778	1	11
477.949	1	18
478.119	1	10
478.289	1	28
478.460	1	23
478.630	1	8
478.800	1	10
478.971	1	13
479.141	1	12
479.311	1	11
479.482	1	6
479.652	1	14
479.822	1	1
479.993	1	21
480.163	1	7
480.333	1	8
480.504	1	23
480.674	1	3
480.844	1	10
481.015	1	2
481.185	1	13
481.355	1	-2
481.525	1	2
481.696	1	12
481.866	1	11
482.036	1	5
482.207	1	4
482.377	1	11
482.547	1	10
482.718	1	10
482.888	1	9
483.058	1	12
483.229	1	8
483.399	1	8
483.569	1	19
483.740	1	11
483.910	1	-11
484.080	1	7
484.250	1	13
484.421	1	18
484.591	1	6
484.761	1	6
484.932	1	17
485.102	1	10
485.272	1	6
485.443	1	16
485.613	1	3
485.783	1	6
485.953	1	-1
486.124	1	0
486.294	1	5
486.464	1	8
486.635	1	3
486.805	1	13
486.975	1	7
487.146	1	-1
487.316	1	20
487.486	1	10
487.656	1	12
487.827	1	8
487.997	1	10
488.167	1	12
488.338	1	-4
488.508	1	4
488.678	1	4
488.848	1	16
489.019	1	14
489.189	1	16
489.359	1	3
489.529	1	11
489.700	1	-2
489.870	1	8
490.040	1	6
490.211	1	13
490.381	1	7
490.551	1	3
490.721	1	8
490.892	1	17
491.062	1	7
491.232	1	6
491.402	1	5
491.573	1	5
491.743	1	7
491.913	1	12
492.084	1	12
492.254	1	14
492.424	1	-2
492.594	1	17
492.765	1	9
492.935	1	15
493.105	1	11
493.275	1	8
493.446	1	7
493.616	1	8
493.786	1	10
493.956	1	7
494.127	1	4
494.297	1	9
494.467	1	8
494.637	1	5
494.808	1	-6
494.978	1	-1
495.148	1	14
495.318	1	3
495.489	1	1
495.659	1	14
495.829	1	6
495.999	1	7
496.170	1	12
496.340	1	17
496.510	1	2
496.680	1	4
496.851	1	5
497.021	1	1
497.191	1	7
497.361	1	8
497.532	1	3
497.702	1	8
497.872	1	1
498.042	1	10
498.213	1	14
498.383	1	8
498.553	1	13
498.723	1	1
498.894	1	12
499.064	1	10
499.234	1	1
499.404	1	1
499.574	1	14
499.745	1	0
499.915	1	-7
500.085	1	10
500.255	1	8
500.426	1	5
500.596	1	14
500.766	1	-4
500.936	1	7
501.106	1	15
501.277	1	5
501.447	1	1
501.617	1	4
501.787	1	16
501.958	1	16
502.128	1	19
502.298	1	9
502.468	1	12
502.638	1	1
502.809	1	4
502.979	1	1
503.149	1	5
503.319	1	7
503.489	1	-1
503.660	1	2
503.830	1	3
504.000	1	11
504.170	1	11
504.340	1	7
504.511	1	24
504.681	1	12
504.851	1	5
505.021	1	9
505.192	1	1
505.362	1	1
505.532	1	-3
505.702	1	1
505.872	1	12
506.043	1	2
506.213	1	6
506.383	1	12
506.553	1	5
506.723	1	12
506.893	1	1
507.064	1	5
507.234	1	4
507.404	1	14
507.574	1	5
507.744	1	8
507.915	1	-3
508.085	1	0
508.255	1	4
508.425	1	2
508.595	1	1
508.766	1	-4
508.936	1	13
509.106	1	4
509.276	1	2
509.446	1	12
509.616	1	-1
509.787	1	8
509.957	1	0
510.127	1	8
510.297	1	8
510.467	1	3
510.638	1	3
510.808	1	-5
510.978	1	12
511.148	1	6
511.318	1	12
511.488	1	10
511.659	1	12
511.829	1	0
511.999	1	0
512.169	1	-7
512.339	1	8
512.509	1	-2
512.680	1	2
512.850	1	6
513.020	1	16
513.190	1	0
513.360	1	6
513.530	1	4
513.700	1	4
513.871	1	6
514.041	1	12
514.211	1	11
514.381	1	1
514.551	1	-1
514.721	1	14
514.892	1	4
515.062	1	17
515.232	1	13
515.402	1	19
515.572	1	1
515.742	1	15
515.912	1	3
516.083	1	12
516.253	1	11
516.423	1	3
516.593	1	8
516.763	1	9
516.933	1	8
517.104	1	-8
517.274	1	10
517.444	1	4
517.614	1	5
517.784	1	7
517.954	1	7
518.124	1	5
518.294	1	-2
518.465	1	0
518.635	1	5
518.805	1	-1
518.975	1	3
519.145	1	8
519.315	1	4
519.485	1	10
519.656	1	4
519.826	1	-2
519.996	1	12
520.166	1	-3
520.336	1	3
520.506	1	3
520.676	1	16
520.846	1	-1
521.017	1	8
521.187	1	1
521.357	1	9
521.527	1	9
521.697	1	4
521.867	1	-3
522.037	1	7
522.207	1	6
522.377	1	-3
522.548	1	12
522.718	1	7
522.888	1	8
523.058	1	6
523.228	1	3
523.398	1	5
523.568	1	1
523.738	1	3
523.909	1	6
524.079	1	8
524.249	1	0
524.419	1	-1
524.589	1	7
524.759	1	11
524.929	1	1
525.099	1	-5
525.269	1	-11
525.439	1	4
525.610	1	-4
525.780	1	9
525.950	1	4
526.120	1	0
526.290	1	6
526.460	1	13
526.630	1	5
526.800	1	2
526.970	1	6
527.140	1	11
527.311	1	12
527.481	1	1
527.651	1	-4
527.821	1	2
527.991	1	-2
528.161	1	-4
528.331	1	13
528.501	1	-3
528.671	1	10
528.841	1	8
529.011	1	4
529.181	1	2
529.352	1	5
529.522	1	4
529.692	1	-3
529.862	1	1
530.032	1	4
530.202	1	14
530.372	1	4
530.542	1	6
530.712	1	16
530.882	1	18
531.052	1	0
531.222	1	0
531.392	1	0
531.563	1	3
531.733	1	-2
531.903	1	7
532.073	1	3
532.243	1	14
532.413	1	3
532.583	1	11
532.753	1	3
532.923	1	-3
533.093	1	5
533.263	1	5
533.433	1	-2
533.603	1	3
533.773	1	0
533.943	1	5
534.113	1	16
534.284	1	-3
534.454	1	3
534.624	1	-3
534.794	1	8
534.964	1	2
535.134	1	8
535.304	1	6
535.474	1	3
535.644	1	4
535.814	1	1
535.984	1	8
536.154	1	4
536.324	1	-9
536.494	1	5
536.664	1	-9
536.834	1	6
537.004	1	-2
537.174	1	7
537.344	1	11
537.514	1	3
537.685	1	1
537.855	1	3
538.025	1	-4
538.195	1	8
538.365	1	13
538.535	1	13
538.705	1	-4
538.875	1	4
539.045	1	10
539.215	1	6
539.385	1	5
539.555	1	-7
539.725	1	-8
539.895	1	1
540.065	1	-3
540.235	1	1
540.405	1	-7
540.575	1	0
540.745	1	0
540.915	1	7
541.085	1	-4
541.255	1	7
541.425	1	-3
541.595	1	3
541.765	1	10
541.935	1	9
542.105	1	8
542.275	1	15
542.445	1	6
542.615	1	1
542.785	1	1
542.955	1	-3
543.125	1	-5
543.295	1	11
543.465	1	-1
543.635	1	3
543.805	1	-1
543.975	1	-1
544.145	1	15
544.315	1	1
544.485	1	4
544.655	1	2
544.825	1	0
544.995	1	3
545.165	1	0
545.335	1	-4
545.505	1	5
545.675	1	-4
545.845	1	10
546.015	1	3
546.185	1	-4
546.355	1	-1
546.525	1	4
546.695	1	-1
546.865	1	19
547.035	1	1
547.205	1	8
547.375	1	6
547.545	1	2
547.715	1	5
547.885	1	2
548.055	1	1
548.225	1	5
548.395	1	-6
548.565	1	10
548.735	1	7
548.905	1	8
549.075	1	5
549.245	1	3
549.415	1	0
549.585	1	-8
549.755	1	12
549.925	1	1
550.095	1	5
550.265	1	13
550.435	1	-1
550.605	1	6
550.775	1	4
550.945	1	5
551.115	1	3
551.285	1	1
551.455	1	-5
551.625	1	4
551.795	1	-5
551.965	1	4
552.135	1	-5
552.305	1	7
552.475	1	8
552.645	1	-2
552.815	1	0
552.985	1	-7
553.155	1	6
553.325	1	-5
553.495	1	0
553.665	1	-2
553.835	1	1
554.004	1	13
554.174	1	4
554.344	1	4
554.514	1	-1
554.684	1	-5
554.854	1	-4
555.024	1	0
555.194	1	-1
555.364	1	8
555.534	1	-4
555.704	1	8
555.874	1	-2
556.044	1	1
556.214	1	7
556.384	1	8
556.554	1	2
556.724	1	7
556.894	1	5
557.064	1	6
557.234	1	-7
557.404	1	4
557.573	1	-8
557.743	1	-1
557.913	1	6
558.083	1	-8
558.253	1	4
558.423	1	0
558.593	1	4
558.763	1	7
558.933	1	0
559.103	1	12
559.273	1	0
559.443	1	-2
559.613	1	-9
559.783	1	0
559.953	1	5
560.122	1	5
560.292	1	18
560.462	1	6
560.632	1	2
560.802	1	5
560.972	1	-6
561.142	1	6
561.312	1	-2
561.482	1	-1
561.652	1	-8
561.822	1	-8
561.992	1	-2
562.162	1	11
562.331	1	9
562.501	1	-4
562.671	1	3
562.841	1	-9
563.011	1	7
563.181	1	1
563.351	1	2
563.521	1	5
563.691	1	-1
563.861	1	4
564.031	1	3
564.201	1	14
564.370	1	1
564.540	1	7
564.710	1	5
564.880	1	0
565.050	1	13
565.220	1	0
565.390	1	0
565.560	1	7
565.730	1	7
565.900	1	3
566.069	1	14
566.239	1	4
566.409	1	-4
566.579	1	3
566.749	1	-5
566.919	1	3
567.089	1	8
567.259	1	5
567.429	1	-7
567.599	1	2
567.768	1	6
567.938	1	-16
568.108	1	10
568.278	1	6
568.448	1	5
568.618	1	-3
568.788	1	6
568.958	1	-2
569.128	1	0
569.297	1	-1
569.467	1	-3
569.637	1	7
569.807	1	4
569.977	1	3
570.147	1	10
570.317	1	4
570.487	1	1
570.656	1	-9
570.826	1	7
570.996	1	-5
571.166	1	10
571.336	1	-5
571.506	1	3
571.676	1	4
571.846	1	19
572.015	1	-2
572.185	1	2
572.355	1	-2
572.525	1	-4
572.695	1	3
572.865	1	-13
573.035	1	13
573.205	1	1
573.374	1	6
573.544	1	7
573.714	1	1
573.884	1	10
574.054	1	-1
574.224	1	-6
574.394	1	-1
574.563	1	7
574.733	1	5
574.903	1	8
575.073	1	7
575.243	1	2
575.413	1	2
575.583	1	4
575.752	1	1
575.922	1	-6
576.092	1	-2
576.262	1	5
576.432	1	6
576.602	1	-1
576.772	1	9
576.941	1	-4
577.111	1	0
577.281	1	-2
577.451	1	-1
577.621	1	1
577.791	1	7
577.960	1	12
578.130	1	0
578.300	1	-8
578.470	1	5
578.640	1	3
578.810	1	-5
578.979	1	-3
579.149	1	-2
579.319	1	1
579.489	1	-7
579.659	1	3
579.829	1	8
579.998	1	8
580.168	1	4
580.338	1	7
580.508	1	3
580.678	1	-1
580.848	1	-5
581.017	1	1
581.187	1	15
581.357	1	-6
581.527	1	8
581.697	1	0
581.867	1	-3
582.036	1	-4
582.206	1	10
582.376	1	4
582.546	1	-3
582.716	1	1
582.885	1	-8
583.055	1	9
583.225	1	-4
583.395	1	24
583.565	1	3
583.735	1	13
583.904	1	3
584.074	1	-7
584.244	1	-9
584.414	1	2
584.584	1	3
584.753	1	6
584.923	1	2
585.093	1	5
585.263	1	11
585.433	1	-2
585.602	1	-2
585.772	1	-12
585.942	1	6
586.112	1	-8
586.282	1	5
586.451	1	11
586.621	1	4
586.791	1	9
586.961	1	-1
587.131	1	-2
587.300	1	-9
587.470	1	-12
587.640	1	8
587.810	1	9
587.980	1	-4
588.149	1	-1
588.319	1	11
588.489	1	-4
588.659	1	-2
588.829	1	4
588.998	1	1
589.168	1	7
589.338	1	3
589.508	1	2
589.677	1	3
589.847	1	4
590.017	1	1
590.187	1	10
590.357	1	3
590.526	1	5
590.696	1	-9
590.866	1	3
591.036	1	8
591.205	1	5
591.375	1	2
591.545	1	-5
591.715	1	3
591.885	1	7
592.054	1	-5
592.224	1	6
592.394	1	-6
592.564	1	3
592.733	1	-5
592.903	1	7
593.073	1	6
593.243	1	15
593.412	1	0
593.582	1	9
593.752	1	-8
593.922	1	-6
594.091	1	-3
594.261	1	-2
594.431	1	16
594.601	1	-2
594.771	1	8
594.940	1	15
595.110	1	2
595.280	1	5
595.450	1	7
595.619	1	12
595.789	1	10
595.959	1	4
596.129	1	1
596.298	1	14
596.468	1	-3
596.638	1	6
596.808	1	0
596.977	1	-2
597.147	1	0
597.317	1	0
597.487	1	4
597.656	1	-3
597.826	1	0
597.996	1	5
598.166	1	9
598.335	1	4
598.505	1	8
598.675	1	-9
598.844	1	3
599.014	1	10
599.184	1	8
599.354	1	4
599.523	1	2
599.693	1	11
599.863	1	7
600.033	1	-5
600.202	1	11
600.372	1	-2
600.542	1	1
600.712	1	2
600.881	1	-9
601.051	1	1
601.221	1	5
601.390	1	-9
601.560	1	0
601.730	1	11
601.900	1	-3
602.069	1	5
602.239	1	3
602.409	1	-2
602.578	1	-1
602.748	1	0
602.918	1	10
603.088	1	7
603.257	1	11
603.427	1	-2
603.597	1	3
603.767	1	-3
603.936	1	-4
604.106	1	7
604.276	1	15
604.445	1	9
604.615	1	6
604.785	1	9
604.954	1	9
605.124	1	-5
605.294	1	3
605.464	1	3
605.633	1	6
605.803	1	10
605.973	1	3
606.142	1	6
606.312	1	3
606.482	1	4
606.652	1	6
606.821	1	10
606.991	1	4
607.161	1	0
607.330	1	-9
607.500	1	7
607.670	1	8
607.839	1	13
608.009	1	7
608.179	1	-1
608.348	1	6
608.518	1	-7
608.688	1	-3
608.858	1	18
609.027	1	5
609.197	1	-10
609.367	1	19
609.536	1	4
609.706	1	0
609.876	1	11
610.045	1	7
610.215	1	0
610.385	1	-11
610.554	1	-10
610.724	1	-6
610.894	1	11
611.063	1	-9
611.233	1	13
611.403	1	0
611.572	1	14
611.742	1	14
611.912	1	5
612.081	1	-11
612.251	1	8
612.421	1	10
612.590	1	6
612.760	1	4
612.930	1	1
613.099	1	2
613.269	1	-3
613.439	1	3
613.608	1	9
613.778	1	-12
613.948	1	-5
614.117	1	9
614.287	1	-1
614.457	1	-3
614.626	1	12
614.796	1	2
614.966	1	8
615.135	1	0
615.305	1	15
615.475	1	4
615.644	1	6
615.814	1	-8
615.984	1	9
616.153	1	4
616.323	1	4
616.493	1	13
616.662	1	0
616.832	1	13
617.002	1	3
617.171	1	1
617.341	1	0
617.511	1	15
617.680	1	2
617.850	1	6
618.019	1	2
618.189	1	13
618.359	1	-6
618.528	1	6
618.698	1	11
618.868	1	1
619.037	1	14
619.207	1	9
619.377	1	-2
619.546	1	-3
619.716	1	4
619.885	1	9
620.055	1	10
620.225	1	6
620.394	1	5
620.564	1	13
620.734	1	8
620.903	1	12
621.073	1	-2
621.242	1	9
621.412	1	7
621.582	1	4
621.751	1	16
621.921	1	5
622.091	1	6
622.260	1	1
622.430	1	6
622.599	1	-2
622.769	1	8
622.939	1	9
623.108	1	1
623.278	1	1
623.448	1	12
623.617	1	7
623.787	1	-2
623.956	1	2
624.126	1	18
624.296	1	3
624.465	1	18
624.635	1	11
624.804	1	4
624.974	1	18
625.144	1	-1
625.313	1	5
625.483	1	19
625.652	1	3
625.822	1	-4
625.992	1	10
626.161	1	16
626.331	1	6
626.501	1	4
626.670	1	12
626.840	1	9
627.009	1	4
627.179	1	10
627.348	1	12
627.518	1	9
627.688	1	7
627.857	1	6
628.027	1	1
628.196	1	3
628.366	1	0
628.536	1	10
628.705	1	2
628.875	1	9
629.044	1	12
629.214	1	4
629.384	1	2
629.553	1	3
629.723	1	1
629.892	1	13
630.062	1	3
630.232	1	1
630.401	1	14
630.571	1	2
630.740	1	1
630.910	1	6
631.079	1	-4
631.249	1	2
631.419	1	7
631.588	1	8
631.758	1	13
631.927	1	3
632.097	1	12
632.266	1	11
632.436	1	12
632.606	1	4
632.775	1	13
632.945	1	11
633.114	1	3
633.284	1	-2
633.453	1	0
633.623	1	16
633.793	1	4
633.962	1	7
634.132	1	3
634.301	1	4
634.471	1	3
634.640	1	6
634.810	1	4
634.979	1	5
635.149	1	4
635.319	1	7
635.488	1	14
635.658	1	7
635.827	1	10
635.997	1	3
636.166	1	4
636.336	1	6
636.505	1	8
636.675	1	9
636.845	1	8
637.014	1	2
637.184	1	11
637.353	1	1
637.523	1	15
637.692	1	6
637.862	1	10
638.031	1	13
638.201	1	11
638.370	1	0
638.540	1	5
638.710	1	19
638.879	1	5
639.049	1	12
639.218	1	2
639.388	1	5
639.557	1	9
639.727	1	8
639.896	1	3
640.066	1	12
640.235	1	12
640.405	1	-1
640.574	1	12
640.744	1	4
640.914	1	6
641.083	1	0
641.253	1	16
641.422	1	10
641.592	1	8
641.761	1	13
641.931	1	-2
642.100	1	9
642.270	1	-4
642.439	1	4
642.609	1	13
642.778	1	4
642.948	1	8
643.117	1	7
643.287	1	7
643.456	1	12
643.626	1	11
643.795	1	2
643.965	1	6
644.134	1	-3
644.304	1	7
644.473	1	-2
644.643	1	8
644.812	1	11
644.982	1	12
645.151	1	24
645.321	1	10
645.490	1	2
645.660	1	-3
645.829	1	9
645.999	1	16
646.168	1	-12
646.338	1	-2
646.507	1	16
646.677	1	13
646.846	1	10
647.016	1	9
647.185	1	7
647.355	1	8
647.524	1	8
647.694	1	9
647.863	1	0
648.033	1	-3
648.202	1	4
648.372	1	15
648.541	1	7
648.711	1	6
648.880	1	10
649.050	1	7
649.219	1	1
649.389	1	6
649.558	1	7
649.728	1	-3
649.897	1	3
650.067	1	6
650.236	1	18
650.406	1	-1
650.575	1	8
650.745	1	13
650.914	1	4
651.084	1	6
651.253	1	14
651.423	1	10
651.592	1	-6
651.762	1	13
651.931	1	0
652.101	1	2
652.270	1	10
652.440	1	3
652.609	1	3
652.778	1	-2
652.948	1	2
653.117	1	-3
653.287	1	9
653.456	1	8
653.626	1	-3
653.795	1	17
653.965	1	7
654.134	1	5
654.304	1	8
654.473	1	9
654.643	1	11
654.812	1	11
654.982	1	1
655.151	1	-4
655.320	1	3
655.490	1	2
655.659	1	4
655.829	1	12
655.998	1	4
656.168	1	2
656.337	1	15
656.507	1	-1
656.676	1	11
656.846	1	3
657.015	1	4
657.184	1	8
657.354	1	8
657.523	1	9
657.693	1	14
657.862	1	10
658.032	1	2
658.201	1	14
658.371	1	-5
658.540	1	-4
658.709	1	2
658.879	1	-9
659.048	1	-3
659.218	1	11
659.387	1	1
659.557	1	11
659.726	1	10
659.895	1	12
660.065	1	-8
660.234	1	8
660.404	1	5
660.573	1	10
660.743	1	2
660.912	1	10
661.081	1	9
661.251	1	9
661.420	1	5
661.590	1	2
661.759	1	2
661.929	1	11
662.098	1	4
662.267	1	6
662.437	1	2
662.606	1	11
662.776	1	3
662.945	1	2
663.115	1	12
663.284	1	25
663.453	1	-1
663.623	1	9
663.792	1	0
663.962	1	12
664.131	1	3
664.300	1	9
664.470	1	4
664.639	1	1
664.809	1	6
664.978	1	3
665.148	1	11
665.317	1	5
665.486	1	-5
665.656	1	1
665.825	1	3
665.995	1	8
666.164	1	7
666.333	1	8
666.503	1	2
666.672	1	11
666.842	1	1
667.011	1	11
667.180	1	3
667.350	1	-1
667.519	1	13
667.689	1	3
667.858	1	8
668.027	1	18
668.197	1	11
668.366	1	1
668.536	1	9
668.705	1	-1
668.874	1	8
669.044	1	2
669.213	1	8
669.382	1	7
669.552	1	15
669.721	1	15
669.891	1	3
670.060	1	13
670.229	1	7
670.399	1	11
670.568	1	2
670.738	1	1
670.907	1	11
671.076	1	6
671.246	1	12
671.415	1	6
671.584	1	4
671.754	1	3
671.923	1	21
672.093	1	12
672.262	1	8
672.431	1	-1
672.601	1	7
672.770	1	5
672.939	1	10
673.109	1	8
673.278	1	11
673.448	1	6
673.617	1	-10
673.786	1	8
