325.333	1	11
325.504	1	3
325.675	1	9
325.846	1	12
326.017	1	10
326.188	1	7
326.359	1	11
326.531	1	-3
326.702	1	4
326.873	1	12
327.044	1	3
327.215	1	10
327.386	1	7
327.557	1	-1
327.728	1	4
327.899	1	20
328.070	1	18
328.241	1	8
328.412	1	7
328.583	1	6
328.754	1	6
328.926	1	-2
329.097	1	3
329.268	1	2
329.439	1	12
329.610	1	7
329.781	1	0
329.952	1	15
330.123	1	17
330.294	1	1
330.465	1	6
330.636	1	21
330.807	1	4
330.978	1	3
331.149	1	11
331.320	1	21
331.492	1	13
331.663	1	10
331.834	1	1
332.005	1	6
332.176	1	5
332.347	1	15
332.518	1	13
332.689	1	14
332.860	1	6
333.031	1	10
333.202	1	0
333.373	1	16
333.544	1	17
333.715	1	19
333.886	1	3
334.057	1	16
334.228	1	9
334.399	1	13
334.570	1	12
334.741	1	17
334.912	1	21
335.084	1	4
335.255	1	9
335.426	1	11
335.597	1	10
335.768	1	21
335.939	1	21
336.110	1	13
336.281	1	3
336.452	1	16
336.623	1	13
336.794	1	3
336.965	1	-1
337.136	1	1
337.307	1	7
337.478	1	2
337.649	1	20
337.820	1	18
337.991	1	9
338.162	1	11
338.333	1	2
338.504	1	7
338.675	1	13
338.846	1	14
339.017	1	12
339.188	1	13
339.359	1	11
339.530	1	12
339.701	1	8
339.872	1	6
340.043	1	-6
340.214	1	12
340.385	1	14
340.556	1	18
340.727	1	21
340.898	1	22
341.069	1	18
341.240	1	11
341.411	1	6
341.582	1	14
341.753	1	13
341.924	1	9
342.095	1	12
342.266	1	15
342.437	1	18
342.608	1	19
342.779	1	15
342.950	1	17
343.121	1	8
343.292	1	16
343.463	1	6
343.634	1	4
343.805	1	9
343.976	1	14
344.147	1	13
344.318	1	8
344.489	1	17
344.660	1	23
344.831	1	19
345.002	1	19
345.173	1	-11
345.344	1	12
345.515	1	7
345.686	1	22
345.857	1	7
346.028	1	15
346.199	1	15
346.370	1	7
346.541	1	7
346.712	1	19
346.883	1	5
347.054	1	15
347.225	1	17
347.396	1	14
347.567	1	23
347.738	1	5
347.909	1	18
348.080	1	9
348.251	1	16
348.422	1	13
348.593	1	8
348.764	1	13
348.935	1	8
349.106	1	16
349.277	1	10
349.448	1	6
349.619	1	16
349.790	1	21
349.961	1	21
350.132	1	15
350.303	1	17
350.474	1	19
350.645	1	23
350.816	1	10
350.987	1	15
351.157	1	22
351.328	1	20
351.499	1	11
351.670	1	11
351.841	1	24
352.012	1	32
352.183	1	14
352.354	1	8
352.525	1	8
352.696	1	32
352.867	1	19
353.038	1	10
353.209	1	13
353.380	1	16
353.551	1	15
353.722	1	20
353.893	1	17
354.064	1	23
354.235	1	20
354.406	1	23
354.576	1	23
354.747	1	24
354.918	1	17
355.089	1	27
355.260	1	26
355.431	1	15
355.602	1	22
355.773	1	20
355.944	1	8
356.115	1	25
356.286	1	25
356.457	1	25
356.628	1	17
356.799	1	21
356.970	1	21
357.141	1	18
357.311	1	29
357.482	1	23
357.653	1	18
357.824	1	20
357.995	1	12
358.166	1	16
358.337	1	22
358.508	1	30
358.679	1	25
358.850	1	16
359.021	1	24
359.192	1	32
359.363	1	27
359.533	1	9
359.704	1	35
359.875	1	18
360.046	1	27
360.217	1	5
360.388	1	16
360.559	1	22
360.730	1	17
360.901	1	17
361.072	1	25
361.243	1	22
361.414	1	16
361.584	1	18
361.755	1	23
361.926	1	23
362.097	1	23
362.268	1	15
362.439	1	17
362.610	1	24
362.781	1	20
362.952	1	27
363.123	1	20
363.293	1	23
363.464	1	14
363.635	1	26
363.806	1	15
363.977	1	7
364.148	1	17
364.319	1	28
364.490	1	29
364.661	1	20
364.832	1	32
365.002	1	27
365.173	1	20
365.344	1	23
365.515	1	13
365.686	1	7
365.857	1	19
366.028	1	29
366.199	1	21
366.370	1	21
366.540	1	22
366.711	1	17
366.882	1	16
367.053	1	19
367.224	1	21
367.395	1	16
367.566	1	12
367.737	1	24
367.908	1	12
368.078	1	29
368.249	1	20
368.420	1	21
368.591	1	22
368.762	1	16
368.933	1	16
369.104	1	30
369.274	1	19
369.445	1	24
369.616	1	29
369.787	1	32
369.958	1	23
370.129	1	22
370.300	1	22
370.471	1	25
370.641	1	21
370.812	1	27
370.983	1	18
371.154	1	14
371.325	1	13
371.496	1	25
371.667	1	26
371.837	1	26
372.008	1	11
372.179	1	19
372.350	1	10
372.521	1	22
372.692	1	19
372.863	1	24
373.033	1	39
373.204	1	26
373.375	1	20
373.546	1	41
373.717	1	28
373.888	1	32
374.059	1	38
374.229	1	26
374.400	1	26
374.571	1	24
374.742	1	21
374.913	1	30
375.084	1	19
375.254	1	27
375.425	1	29
375.596	1	30
375.767	1	25
375.938	1	20
376.109	1	28
376.279	1	20
376.450	1	25
376.621	1	25
376.792	1	21
376.963	1	17
377.134	1	30
377.304	1	36
377.475	1	16
377.646	1	20
377.817	1	33
377.988	1	22
378.159	1	27
378.329	1	31
378.500	1	34
378.671	1	25
378.842	1	28
379.013	1	25
379.184	1	25
379.354	1	21
379.525	1	26
379.696	1	30
379.867	1	26
380.038	1	41
380.209	1	24
380.379	1	24
380.550	1	33
380.721	1	21
380.892	1	21
381.063	1	30
381.233	1	26
381.404	1	32
381.575	1	33
381.746	1	31
381.917	1	40
382.087	1	37
382.258	1	32
382.429	1	30
382.600	1	36
382.771	1	31
382.941	1	36
383.112	1	22
383.283	1	44
383.454	1	31
383.625	1	15
383.795	1	30
383.966	1	25
384.137	1	29
384.308	1	37
384.479	1	16
384.649	1	33
384.820	1	38
384.991	1	31
385.162	1	40
385.333	1	33
385.503	1	37
385.674	1	18
385.845	1	38
386.016	1	31
386.187	1	43
386.357	1	34
386.528	1	27
386.699	1	27
386.870	1	42
387.041	1	47
387.211	1	18
387.382	1	31
387.553	1	36
387.724	1	47
387.894	1	35
388.065	1	33
388.236	1	35
388.407	1	37
388.578	1	32
388.748	1	25
388.919	1	27
389.090	1	40
389.261	1	26
389.431	1	43
389.602	1	37
389.773	1	28
389.944	1	40
390.114	1	51
390.285	1	26
390.456	1	27
390.627	1	37
390.798	1	41
390.968	1	51
391.139	1	23
391.310	1	42
391.481	1	28
391.651	1	44
391.822	1	34
391.993	1	26
392.164	1	39
392.334	1	27
392.505	1	35
392.676	1	43
392.847	1	38
393.017	1	46
393.188	1	42
393.359	1	29
393.530	1	39
393.700	1	26
393.871	1	38
394.042	1	31
394.213	1	30
394.383	1	35
394.554	1	44
394.725	1	31
394.896	1	29
395.066	1	40
395.237	1	34
395.408	1	46
395.579	1	26
395.749	1	40
395.920	1	22
396.091	1	34
396.262	1	33
396.432	1	45
396.603	1	25
396.774	1	25
396.945	1	42
397.115	1	26
397.286	1	18
397.457	1	34
397.627	1	45
397.798	1	40
397.969	1	41
398.140	1	40
398.310	1	34
398.481	1	27
398.652	1	24
398.823	1	36
398.993	1	42
399.164	1	37
399.335	1	31
399.505	1	33
399.676	1	35
399.847	1	37
400.018	1	40
400.188	1	36
400.359	1	36
400.530	1	36
400.700	1	39
400.871	1	43
401.042	1	36
401.213	1	39
401.383	1	41
401.554	1	37
401.725	1	45
401.895	1	39
402.066	1	38
402.237	1	54
402.408	1	43
402.578	1	42
402.749	1	40
402.920	1	42
403.090	1	43
403.261	1	47
403.432	1	38
403.603	1	48
403.773	1	55
403.944	1	47
404.115	1	44
404.285	1	49
404.456	1	45
404.627	1	46
404.797	1	38
404.968	1	42
405.139	1	57
405.310	1	43
405.480	1	33
405.651	1	34
405.822	1	43
405.992	1	38
406.163	1	39
406.334	1	49
406.504	1	50
406.675	1	54
406.846	1	46
407.016	1	46
407.187	1	44
407.358	1	46
407.528	1	40
407.699	1	43
407.870	1	49
408.041	1	47
408.211	1	46
408.382	1	48
408.553	1	49
408.723	1	48
408.894	1	42
409.065	1	31
409.235	1	49
409.406	1	46
409.577	1	36
409.747	1	30
409.918	1	38
410.089	1	35
410.259	1	40
410.430	1	48
410.601	1	50
410.771	1	49
410.942	1	48
411.113	1	46
411.283	1	56
411.454	1	43
411.625	1	44
411.795	1	39
411.966	1	61
412.137	1	51
412.307	1	44
412.478	1	49
412.649	1	46
412.819	1	34
412.990	1	51
413.161	1	48
413.331	1	47
413.502	1	54
413.672	1	41
413.843	1	49
414.014	1	51
414.184	1	38
414.355	1	48
414.526	1	41
414.696	1	53
414.867	1	48
415.038	1	41
415.208	1	37
415.379	1	50
415.550	1	40
415.720	1	40
415.891	1	68
416.062	1	47
416.232	1	40
416.403	1	40
416.573	1	46
416.744	1	56
416.915	1	46
417.085	1	45
417.256	1	42
417.427	1	40
417.597	1	42
417.768	1	47
417.939	1	46
418.109	1	52
418.280	1	39
418.450	1	48
418.621	1	55
418.792	1	40
418.962	1	38
419.133	1	48
419.304	1	43
419.474	1	50
419.645	1	48
419.815	1	42
419.986	1	44
420.157	1	48
420.327	1	34
420.498	1	43
420.669	1	43
420.839	1	36
421.010	1	41
421.180	1	44
421.351	1	53
421.522	1	44
421.692	1	48
421.863	1	48
422.033	1	37
422.204	1	50
422.375	1	39
422.545	1	42
422.716	1	47
422.886	1	27
423.057	1	55
423.228	1	48
423.398	1	51
423.569	1	39
423.740	1	49
423.910	1	48
424.081	1	41
424.251	1	49
424.422	1	41
424.593	1	49
424.763	1	51
424.934	1	45
425.104	1	41
425.275	1	59
425.445	1	38
425.616	1	52
425.787	1	52
425.957	1	51
426.128	1	52
426.298	1	57
426.469	1	38
426.640	1	54
426.810	1	55
426.981	1	51
427.151	1	42
427.322	1	62
427.493	1	45
427.663	1	53
427.834	1	41
428.004	1	36
428.175	1	63
428.345	1	50
428.516	1	49
428.687	1	51
428.857	1	43
429.028	1	41
429.198	1	60
429.369	1	52
429.540	1	40
429.710	1	46
429.881	1	37
430.051	1	43
430.222	1	51
430.392	1	39
430.563	1	57
430.734	1	49
430.904	1	50
431.075	1	45
431.245	1	38
431.416	1	51
431.586	1	41
431.757	1	53
431.927	1	55
432.098	1	32
432.269	1	48
432.439	1	48
432.610	1	51
432.780	1	50
432.951	1	46
433.121	1	61
433.292	1	50
433.462	1	49
433.633	1	39
433.804	1	42
433.974	1	47
434.145	1	49
434.315	1	49
434.486	1	58
434.656	1	55
434.827	1	49
434.997	1	47
435.168	1	51
435.339	1	47
435.509	1	48
435.680	1	44
435.850	1	46
436.021	1	55
436.191	1	47
436.362	1	51
436.532	1	61
436.703	1	53
436.873	1	58
437.044	1	44
437.214	1	44
437.385	1	60
437.556	1	48
437.726	1	46
437.897	1	42
438.067	1	47
438.238	1	51
438.408	1	51
438.579	1	55
438.749	1	50
438.920	1	52
439.090	1	40
439.261	1	47
439.431	1	53
439.602	1	45
439.772	1	51
439.943	1	52
440.113	1	59
440.284	1	53
440.455	1	43
440.625	1	60
440.796	1	48
440.966	1	44
441.137	1	36
441.307	1	50
441.478	1	42
441.648	1	39
441.819	1	55
441.989	1	46
442.160	1	36
442.330	1	47
442.501	1	44
442.671	1	37
442.842	1	47
443.012	1	51
443.183	1	48
443.353	1	53
443.524	1	43
443.694	1	45
443.865	1	51
444.035	1	45
444.206	1	49
444.376	1	49
444.547	1	52
444.717	1	40
444.888	1	41
445.058	1	50
445.229	1	52
445.399	1	41
445.570	1	37
445.740	1	44
445.911	1	52
446.081	1	53
446.252	1	41
446.422	1	45
446.593	1	45
446.763	1	47
446.934	1	49
447.104	1	45
447.275	1	59
447.445	1	48
447.616	1	58
447.786	1	48
447.957	1	45
448.127	1	46
448.298	1	47
448.468	1	44
448.639	1	40
448.809	1	51
448.979	1	39
449.150	1	49
449.320	1	42
449.491	1	52
449.661	1	66
449.832	1	53
450.002	1	41
450.173	1	50
450.343	1	56
450.514	1	53
450.684	1	57
450.855	1	57
451.025	1	46
451.196	1	39
451.366	1	58
451.537	1	34
451.707	1	54
451.878	1	36
452.048	1	51
452.218	1	51
452.389	1	58
452.559	1	43
452.730	1	43
452.900	1	46
453.071	1	51
453.241	1	60
453.412	1	50
453.582	1	40
453.753	1	46
453.923	1	45
454.093	1	54
454.264	1	51
454.434	1	63
454.605	1	59
454.775	1	52
454.946	1	59
455.116	1	58
455.287	1	37
455.457	1	50
455.628	1	53
455.798	1	52
455.968	1	52
456.139	1	42
456.309	1	54
456.480	1	53
456.650	1	60
456.821	1	49
456.991	1	40
457.161	1	45
457.332	1	44
457.502	1	45
457.673	1	44
457.843	1	44
458.014	1	44
458.184	1	42
458.355	1	34
458.525	1	51
458.695	1	42
458.866	1	47
459.036	1	45
459.207	1	48
459.377	1	59
459.548	1	43
459.718	1	46
459.888	1	56
460.059	1	41
460.229	1	35
460.400	1	61
460.570	1	50
460.740	1	46
460.911	1	52
461.081	1	38
461.252	1	50
461.422	1	48
461.593	1	29
461.763	1	61
461.933	1	46
462.104	1	52
462.274	1	54
462.445	1	50
462.615	1	55
462.785	1	47
462.956	1	46
463.126	1	48
463.297	1	49
463.467	1	57
463.638	1	40
463.808	1	39
463.978	1	37
464.149	1	53
464.319	1	37
464.490	1	51
464.660	1	49
464.830	1	46
465.001	1	55
465.171	1	47
465.342	1	50
465.512	1	40
465.682	1	48
465.853	1	58
466.023	1	45
466.194	1	51
466.364	1	55
466.534	1	53
466.705	1	49
466.875	1	47
467.045	1	42
467.216	1	54
467.386	1	42
467.557	1	42
467.727	1	42
467.897	1	49
468.068	1	50
468.238	1	53
468.409	1	37
468.579	1	53
468.749	1	53
468.920	1	37
469.090	1	54
469.260	1	40
469.431	1	41
469.601	1	43
469.772	1	42
469.942	1	51
470.112	1	51
470.283	1	54
470.453	1	58
470.623	1	45
470.794	1	41
470.964	1	44
471.135	1	35
471.305	1	43
471.475	1	45
471.646	1	42
471.816	1	51
471.986	1	44
472.157	1	42
472.327	1	45
472.497	1	40
472.668	1	40
472.838	1	46
473.009	1	54
473.179	1	50
473.349	1	46
473.520	1	45
473.690	1	47
473.860	1	54
474.031	1	50
474.201	1	43
474.371	1	40
474.542	1	50
474.712	1	34
474.882	1	56
475.053	1	48
475.223	1	42
475.394	1	56
475.564	1	48
475.734	1	40
475.905	1	47
476.075	1	40
476.245	1	59
476.416	1	43
476.586	1	48
476.756	1	51
476.927	1	46
477.097	1	55
477.267	1	49
477.438	1	27
477.608	1	51
477.778	1	56
477.949	1	46
478.119	1	44
478.289	1	54
478.460	1	52
478.630	1	47
478.800	1	47
478.971	1	53
479.141	1	40
479.311	1	45
479.482	1	43
479.652	1	41
479.822	1	44
479.993	1	42
480.163	1	46
480.333	1	48
480.504	1	44
480.674	1	38
480.844	1	50
481.015	1	45
481.185	1	52
481.355	1	37
481.525	1	43
481.696	1	52
481.866	1	43
482.036	1	36
482.207	1	37
482.377	1	47
482.547	1	50
482.718	1	47
482.888	1	50
483.058	1	42
483.229	1	49
483.399	1	57
483.569	1	41
483.740	1	46
483.910	1	43
484.080	1	49
484.250	1	47
484.421	1	47
484.591	1	39
484.761	1	48
484.932	1	58
485.102	1	44
485.272	1	40
485.443	1	46
485.613	1	47
485.783	1	46
485.953	1	34
486.124	1	40
486.294	1	52
486.464	1	41
486.635	1	49
486.805	1	42
486.975	1	31
487.146	1	38
487.316	1	52
487.486	1	37
487.656	1	41
487.827	1	44
487.997	1	46
488.167	1	55
488.338	1	28
488.508	1	35
488.678	1	37
488.848	1	42
489.019	1	56
489.189	1	40
489.359	1	45
489.529	1	35
489.700	1	33
489.870	1	34
490.040	1	38
490.211	1	45
490.381	1	37
490.551	1	38
490.721	1	42
490.892	1	51
491.062	1	40
491.232	1	43
491.402	1	31
491.573	1	48
491.743	1	34
491.913	1	41
492.084	1	31
492.254	1	48
492.424	1	33
492.594	1	43
492.765	1	44
492.935	1	47
493.105	1	51
493.275	1	32
493.446	1	47
493.616	1	47
493.786	1	46
493.956	1	37
494.127	1	33
494.297	1	39
494.467	1	44
494.637	1	43
494.808	1	31
494.978	1	38
495.148	1	42
495.318	1	30
495.489	1	35
495.659	1	46
495.829	1	53
495.999	1	37
496.170	1	34
496.340	1	46
496.510	1	37
496.680	1	36
496.851	1	38
497.021	1	31
497.191	1	35
497.361	1	31
497.532	1	31
497.702	1	41
497.872	1	44
498.042	1	37
498.213	1	44
498.383	1	47
498.553	1	34
498.723	1	36
498.894	1	46
499.064	1	40
499.234	1	23
499.404	1	46
499.574	1	33
499.745	1	37
499.915	1	35
500.085	1	34
500.255	1	40
500.426	1	37
500.596	1	46
500.766	1	40
500.936	1	38
501.106	1	35
501.277	1	40
501.447	1	40
501.617	1	26
501.787	1	39
501.958	1	41
502.128	1	57
502.298	1	42
502.468	1	33
502.638	1	33
502.809	1	36
502.979	1	32
503.149	1	34
503.319	1	33
503.489	1	31
503.660	1	31
503.830	1	43
504.000	1	37
504.170	1	29
504.340	1	24
504.511	1	37
504.681	1	46
504.851	1	31
505.021	1	36
505.192	1	36
505.362	1	22
505.532	1	35
505.702	1	31
505.872	1	30
506.043	1	30
506.213	1	38
506.383	1	41
506.553	1	40
506.723	1	45
506.893	1	38
507.064	1	31
507.234	1	35
507.404	1	48
507.574	1	36
507.744	1	28
507.915	1	26
508.085	1	20
508.255	1	32
508.425	1	36
508.595	1	29
508.766	1	26
508.936	1	48
509.106	1	18
509.276	1	33
509.446	1	33
509.616	1	31
509.787	1	32
509.957	1	26
510.127	1	32
510.297	1	42
510.467	1	27
510.638	1	29
510.808	1	33
510.978	1	44
511.148	1	42
511.318	1	30
511.488	1	43
511.659	1	42
511.829	1	33
511.999	1	36
512.169	1	14
512.339	1	26
512.509	1	25
512.680	1	15
512.850	1	44
513.020	1	25
513.190	1	29
513.360	1	32
513.530	1	35
513.700	1	19
513.871	1	37
514.041	1	32
514.211	1	26
514.381	1	39
514.551	1	21
514.721	1	31
514.892	1	39
515.062	1	30
515.232	1	38
515.402	1	34
515.572	1	36
515.742	1	36
515.912	1	27
516.083	1	25
516.253	1	34
516.423	1	20
516.593	1	27
516.763	1	43
516.933	1	31
517.104	1	29
517.274	1	39
517.444	1	19
517.614	1	30
517.784	1	23
517.954	1	32
518.124	1	36
518.294	1	23
518.465	1	37
518.635	1	31
518.805	1	35
518.975	1	21
519.145	1	31
519.315	1	18
519.485	1	23
519.656	1	34
519.826	1	15
519.996	1	32
520.166	1	27
520.336	1	19
520.506	1	36
520.676	1	40
520.846	1	23
521.017	1	31
521.187	1	22
521.357	1	27
521.527	1	28
521.697	1	31
521.867	1	25
522.037	1	31
522.207	1	27
522.377	1	23
522.548	1	33
522.718	1	24
522.888	1	23
523.058	1	30
523.228	1	19
523.398	1	35
523.568	1	32
523.738	1	26
523.909	1	36
524.079	1	25
524.249	1	31
524.419	1	30
524.589	1	21
524.759	1	30
524.929	1	26
525.099	1	15
525.269	1	20
525.439	1	36
525.610	1	19
525.780	1	38
525.950	1	43
526.120	1	12
526.290	1	30
526.460	1	26
526.630	1	25
526.800	1	25
526.970	1	22
527.140	1	29
527.311	1	28
527.481	1	20
527.651	1	33
527.821	1	26
527.991	1	6
528.161	1	25
528.331	1	26
528.501	1	13
528.671	1	36
528.841	1	36
529.011	1	14
529.181	1	32
529.352	1	29
529.522	1	30
529.692	1	19
529.862	1	18
530.032	1	19
530.202	1	22
530.372	1	30
530.542	1	18
530.712	1	30
530.882	1	22
531.052	1	16
531.222	1	23
531.392	1	31
531.563	1	29
531.733	1	15
531.903	1	28
532.073	1	32
532.243	1	20
532.413	1	17
532.583	1	24
532.753	1	26
532.923	1	18
533.093	1	20
533.263	1	28
533.433	1	17
533.603	1	8
533.773	1	26
533.943	1	16
534.113	1	25
534.284	1	22
534.454	1	13
534.624	1	26
534.794	1	31
534.964	1	22
535.134	1	32
535.304	1	24
535.474	1	22
535.644	1	25
535.814	1	16
535.984	1	19
536.154	1	16
536.324	1	26
536.494	1	12
536.664	1	25
536.834	1	23
537.004	1	14
537.174	1	20
537.344	1	21
537.514	1	21
537.685	1	33
537.855	1	15
538.025	1	22
538.195	1	27
538.365	1	29
538.535	1	14
538.705	1	10
538.875	1	14
539.045	1	19
539.215	1	27
539.385	1	23
539.555	1	15
539.725	1	14
539.895	1	26
540.065	1	9
540.235	1	20
540.405	1	16
540.575	1	17
540.745	1	16
540.915	1	17
541.085	1	18
541.255	1	31
541.425	1	19
541.595	1	19
541.765	1	30
541.935	1	16
542.105	1	18
542.275	1	20
542.445	1	29
542.615	1	23
542.785	1	22
542.955	1	15
543.125	1	20
543.295	1	20
543.465	1	15
543.635	1	9
543.805	1	19
543.975	1	10
544.145	1	29
544.315	1	10
544.485	1	16
544.655	1	25
544.825	1	20
544.995	1	34
545.165	1	32
545.335	1	16
545.505	1	16
545.675	1	11
545.845	1	21
546.015	1	22
546.185	1	21
546.355	1	19
546.525	1	16
546.695	1	15
546.865	1	21
547.035	1	17
547.205	1	25
547.375	1	21
547.545	1	18
547.715	1	14
547.885	1	15
548.055	1	18
548.225	1	26
548.395	1	19
548.565	1	27
548.735	1	20
548.905	1	18
549.075	1	17
549.245	1	23
549.415	1	21
549.585	1	14
549.755	1	19
549.925	1	13
550.095	1	18
550.265	1	27
550.435	1	19
550.605	1	15
550.775	1	27
550.945	1	22
551.115	1	25
551.285	1	12
551.455	1	24
551.625	1	13
551.795	1	13
551.965	1	19
552.135	1	15
552.305	1	22
552.475	1	14
552.645	1	17
552.815	1	13
552.985	1	12
553.155	1	19
553.325	1	7
553.495	1	18
553.665	1	15
553.835	1	24
554.004	1	20
554.174	1	10
554.344	1	18
554.514	1	27
554.684	1	19
554.854	1	12
555.024	1	17
555.194	1	15
555.364	1	16
555.534	1	12
555.704	1	28
555.874	1	21
556.044	1	11
556.214	1	25
556.384	1	19
556.554	1	8
556.724	1	20
556.894	1	20
557.064	1	29
557.234	1	20
557.404	1	15
557.573	1	16
557.743	1	24
557.913	1	21
558.083	1	11
558.253	1	14
558.423	1	20
558.593	1	14
558.763	1	24
558.933	1	11
559.103	1	18
559.273	1	9
559.443	1	5
559.613	1	20
559.783	1	6
559.953	1	10
560.122	1	11
560.292	1	26
560.462	1	17
560.632	1	14
560.802	1	19
560.972	1	20
561.142	1	15
561.312	1	13
561.482	1	5
561.652	1	14
561.822	1	8
561.992	1	12
562.162	1	24
562.331	1	14
562.501	1	12
562.671	1	15
562.841	1	5
563.011	1	26
563.181	1	9
563.351	1	21
563.521	1	20
563.691	1	8
563.861	1	20
564.031	1	3
564.201	1	22
564.370	1	17
564.540	1	29
564.710	1	16
564.880	1	16
565.050	1	14
565.220	1	19
565.390	1	9
565.560	1	25
565.730	1	10
565.900	1	19
566.069	1	14
566.239	1	26
566.409	1	4
566.579	1	29
566.749	1	2
566.919	1	11
567.089	1	13
567.259	1	10
567.429	1	12
567.599	1	23
567.768	1	11
567.938	1	10
568.108	1	16
568.278	1	23
568.448	1	20
568.618	1	13
568.788	1	26
568.958	1	18
569.128	1	22
569.297	1	6
569.467	1	11
569.637	1	14
569.807	1	14
569.977	1	24
570.147	1	17
570.317	1	9
570.487	1	11
570.656	1	6
570.826	1	13
570.996	1	10
571.166	1	13
571.336	1	12
571.506	1	20
571.676	1	24
571.846	1	18
572.015	1	11
572.185	1	18
572.355	1	18
572.525	1	-2
572.695	1	14
572.865	1	12
573.035	1	17
573.205	1	13
573.374	1	14
573.544	1	12
573.714	1	10
573.884	1	20
574.054	1	20
574.224	1	13
574.394	1	7
574.563	1	14
574.733	1	19
574.903	1	21
575.073	1	21
575.243	1	16
575.413	1	16
575.583	1	15
575.752	1	4
575.922	1	3
576.092	1	4
576.262	1	9
576.432	1	19
576.602	1	17
576.772	1	13
576.941	1	26
577.111	1	9
577.281	1	5
577.451	1	17
577.621	1	18
577.791	1	9
577.960	1	19
578.130	1	7
578.300	1	10
578.470	1	16
578.640	1	13
578.810	1	19
578.979	1	11
579.149	1	17
579.319	1	12
579.489	1	10
579.659	1	8
579.829	1	22
579.998	1	10
580.168	1	17
580.338	1	14
580.508	1	23
580.678	1	9
580.848	1	7
581.017	1	17
581.187	1	22
581.357	1	13
581.527	1	22
581.697	1	14
581.867	1	13
582.036	1	8
582.206	1	17
582.376	1	7
582.546	1	2
582.716	1	15
582.885	1	0
583.055	1	14
583.225	1	15
583.395	1	27
583.565	1	19
583.735	1	8
583.904	1	12
584.074	1	11
584.244	1	13
584.414	1	5
584.584	1	3
584.753	1	19
584.923	1	18
585.093	1	20
585.263	1	13
585.433	1	6
585.602	1	11
585.772	1	6
585.942	1	9
586.112	1	19
586.282	1	10
586.451	1	27
586.621	1	23
586.791	1	7
586.961	1	18
587.131	1	8
587.300	1	14
587.470	1	10
587.640	1	7
587.810	1	18
587.980	1	3
588.149	1	16
588.319	1	22
588.489	1	16
588.659	1	13
588.829	1	20
588.998	1	14
589.168	1	16
589.338	1	12
589.508	1	17
589.677	1	15
589.847	1	15
590.017	1	10
590.187	1	21
590.357	1	14
590.526	1	12
590.696	1	7
590.866	1	11
591.036	1	19
591.205	1	15
591.375	1	9
591.545	1	17
591.715	1	19
591.885	1	18
592.054	1	12
592.224	1	11
592.394	1	1
592.564	1	10
592.733	1	-1
592.903	1	15
593.073	1	10
593.243	1	17
593.412	1	20
593.582	1	11
593.752	1	6
593.922	1	17
594.091	1	4
594.261	1	13
594.431	1	24
594.601	1	11
594.771	1	18
594.940	1	26
595.110	1	15
595.280	1	5
595.450	1	20
595.619	1	19
595.789	1	22
595.959	1	20
596.129	1	7
596.298	1	13
596.468	1	13
596.638	1	11
596.808	1	17
596.977	1	9
597.147	1	13
597.317	1	5
597.487	1	19
597.656	1	8
597.826	1	15
597.996	1	20
598.166	1	14
598.335	1	21
598.505	1	13
598.675	1	11
598.844	1	2
599.014	1	18
599.184	1	20
599.354	1	17
599.523	1	21
599.693	1	22
599.863	1	15
600.033	1	7
600.202	1	16
600.372	1	7
600.542	1	10
600.712	1	10
600.881	1	14
601.051	1	13
601.221	1	20
601.390	1	5
601.560	1	21
601.730	1	17
601.900	1	3
602.069	1	14
602.239	1	2
602.409	1	25
602.578	1	12
602.748	1	11
602.918	1	15
603.088	1	13
603.257	1	18
603.427	1	14
603.597	1	11
603.767	1	11
603.936	1	7
604.106	1	12
604.276	1	6
604.445	1	21
604.615	1	16
604.785	1	17
604.954	1	16
605.124	1	4
605.294	1	19
605.464	1	17
605.633	1	9
605.803	1	8
605.973	1	12
606.142	1	14
606.312	1	11
606.482	1	15
606.652	1	7
606.821	1	7
606.991	1	6
607.161	1	-1
607.330	1	8
607.500	1	21
607.670	1	20
607.839	1	18
608.009	1	24
608.179	1	12
608.348	1	5
608.518	1	8
608.688	1	0
608.858	1	23
609.027	1	13
609.197	1	1
609.367	1	25
609.536	1	13
609.706	1	16
609.876	1	24
610.045	1	10
610.215	1	3
610.385	1	10
610.554	1	7
610.724	1	6
610.894	1	14
611.063	1	7
611.233	1	24
611.403	1	16
611.572	1	18
611.742	1	16
611.912	1	24
612.081	1	0
612.251	1	15
612.421	1	14
612.590	1	16
612.760	1	11
612.930	1	19
613.099	1	17
613.269	1	4
613.439	1	5
613.608	1	21
613.778	1	10
613.948	1	4
614.117	1	12
614.287	1	17
614.457	1	-3
614.626	1	17
614.796	1	11
614.966	1	16
615.135	1	17
615.305	1	16
615.475	1	15
615.644	1	18
615.814	1	12
615.984	1	10
616.153	1	7
616.323	1	9
616.493	1	17
616.662	1	19
616.832	1	12
617.002	1	10
617.171	1	13
617.341	1	11
617.511	1	12
617.680	1	22
617.850	1	15
618.019	1	4
618.189	1	21
618.359	1	7
618.528	1	17
618.698	1	18
618.868	1	4
619.037	1	17
619.207	1	20
619.377	1	6
619.546	1	11
619.716	1	8
619.885	1	18
620.055	1	15
620.225	1	10
620.394	1	13
620.564	1	26
620.734	1	26
620.903	1	14
621.073	1	9
621.242	1	10
621.412	1	15
621.582	1	10
621.751	1	11
621.921	1	13
622.091	1	14
622.260	1	-1
622.430	1	14
622.599	1	7
622.769	1	15
622.939	1	15
623.108	1	13
623.278	1	8
623.448	1	19
623.617	1	7
623.787	1	16
623.956	1	16
624.126	1	20
624.296	1	9
624.465	1	19
624.635	1	17
624.804	1	5
624.974	1	20
625.144	1	4
625.313	1	1
625.483	1	21
625.652	1	14
625.822	1	14
625.992	1	15
626.161	1	12
626.331	1	6
626.501	1	18
626.670	1	18
626.840	1	7
627.009	1	14
627.179	1	15
627.348	1	16
627.518	1	20
627.688	1	11
627.857	1	8
628.027	1	-1
628.196	1	11
628.366	1	6
628.536	1	6
628.705	1	12
628.875	1	19
629.044	1	17
629.214	1	7
629.384	1	1
629.553	1	19
629.723	1	-6
629.892	1	18
630.062	1	9
630.232	1	6
630.401	1	16
630.571	1	8
630.740	1	15
630.910	1	18
631.079	1	17
631.249	1	2
631.419	1	1
631.588	1	14
631.758	1	9
631.927	1	10
632.097	1	11
632.266	1	11
632.436	1	10
632.606	1	11
632.775	1	20
632.945	1	16
633.114	1	5
633.284	1	9
633.453	1	3
633.623	1	17
633.793	1	5
633.962	1	11
634.132	1	10
634.301	1	18
634.471	1	-3
634.640	1	6
634.810	1	16
634.979	1	12
635.149	1	5
635.319	1	15
635.488	1	24
635.658	1	14
635.827	1	19
635.997	1	14
636.166	1	8
636.336	1	10
636.505	1	15
636.675	1	13
636.845	1	4
637.014	1	12
637.184	1	11
637.353	1	8
637.523	1	17
637.692	1	17
637.862	1	11
638.031	1	14
638.201	1	19
638.370	1	11
638.540	1	11
638.710	1	16
638.879	1	14
639.049	1	14
639.218	1	10
639.388	1	10
639.557	1	11
639.727	1	10
639.896	1	9
640.066	1	18
640.235	1	16
640.405	1	9
640.574	1	15
640.744	1	18
640.914	1	13
641.083	1	16
641.253	1	23
641.422	1	7
641.592	1	11
641.761	1	15
641.931	1	7
642.100	1	4
642.270	1	16
642.439	1	6
642.609	1	16
642.778	1	12
642.948	1	12
643.117	1	16
643.287	1	13
643.456	1	14
643.626	1	15
643.795	1	18
643.965	1	12
644.134	1	9
644.304	1	16
644.473	1	13
644.643	1	9
644.812	1	15
644.982	1	10
645.151	1	26
645.321	1	8
645.490	1	1
645.660	1	1
645.829	1	9
645.999	1	20
646.168	1	4
646.338	1	8
646.507	1	12
646.677	1	5
646.846	1	9
647.016	1	22
647.185	1	11
647.355	1	11
647.524	1	10
647.694	1	8
647.863	1	8
648.033	1	8
648.202	1	10
648.372	1	22
648.541	1	13
648.711	1	6
648.880	1	18
649.050	1	8
649.219	1	1
649.389	1	11
649.558	1	-4
649.728	1	0
649.897	1	4
650.067	1	11
650.236	1	10
650.406	1	5
650.575	1	16
650.745	1	17
650.914	1	6
651.084	1	3
651.253	1	21
651.423	1	11
651.592	1	11
651.762	1	18
651.931	1	10
652.101	1	14
652.270	1	19
652.440	1	15
652.609	1	9
652.778	1	9
652.948	1	4
653.117	1	-1
653.287	1	24
653.456	1	15
653.626	1	10
653.795	1	16
653.965	1	14
654.134	1	17
654.304	1	3
654.473	1	6
654.643	1	5
654.812	1	11
654.982	1	7
655.151	1	5
655.320	1	13
655.490	1	12
655.659	1	9
655.829	1	23
655.998	1	10
656.168	1	0
656.337	1	10
656.507	1	7
656.676	1	9
656.846	1	5
657.015	1	-2
657.184	1	12
657.354	1	11
657.523	1	13
657.693	1	6
657.862	1	19
658.032	1	7
658.201	1	11
658.371	1	15
658.540	1	7
658.709	1	-1
658.879	1	1
659.048	1	13
659.218	1	10
659.387	1	8
659.557	1	14
659.726	1	13
659.895	1	6
660.065	1	8
660.234	1	6
660.404	1	7
660.573	1	17
660.743	1	10
660.912	1	11
661.081	1	17
661.251	1	8
661.420	1	10
661.590	1	9
661.759	1	17
661.929	1	13
662.098	1	4
662.267	1	7
662.437	1	10
662.606	1	19
662.776	1	5
662.945	1	12
663.115	1	13
663.284	1	12
663.453	1	1
663.623	1	17
663.792	1	12
663.962	1	10
664.131	1	12
664.300	1	10
664.470	1	20
664.639	1	9
664.809	1	6
664.978	1	4
665.148	1	10
665.317	1	11
665.486	1	14
665.656	1	11
665.825	1	14
665.995	1	18
666.164	1	6
666.333	1	13
666.503	1	15
666.672	1	12
666.842	1	6
667.011	1	9
667.180	1	10
667.350	1	18
667.519	1	10
667.689	1	11
667.858	1	13
668.027	1	25
668.197	1	9
668.366	1	13
668.536	1	23
668.705	1	12
668.874	1	21
669.044	1	12
669.213	1	5
669.382	1	12
669.552	1	19
669.721	1	21
669.891	1	22
670.060	1	17
670.229	1	4
670.399	1	12
670.568	1	7
670.738	1	7
670.907	1	7
671.076	1	13
671.246	1	27
671.415	1	17
671.584	1	14
671.754	1	10
671.923	1	12
672.093	1	21
672.262	1	11
672.431	1	5
672.601	1	14
672.770	1	10
672.939	1	22
673.109	1	14
673.278	1	15
673.448	1	8
673.617	1	8
673.786	1	-1
