325.333	1	9
325.504	1	5
325.675	1	5
325.846	1	7
326.017	1	21
326.188	1	23
326.359	1	3
326.531	1	14
326.702	1	18
326.873	1	3
327.044	1	18
327.215	1	12
327.386	1	7
327.557	1	7
327.728	1	8
327.899	1	12
328.070	1	19
328.241	1	10
328.412	1	13
328.583	1	12
328.754	1	11
328.926	1	4
329.097	1	11
329.268	1	2
329.439	1	18
329.610	1	15
329.781	1	7
329.952	1	24
330.123	1	16
330.294	1	4
330.465	1	3
330.636	1	15
330.807	1	19
330.978	1	18
331.149	1	23
331.320	1	17
331.492	1	22
331.663	1	15
331.834	1	11
332.005	1	9
332.176	1	8
332.347	1	22
332.518	1	17
332.689	1	22
332.860	1	16
333.031	1	17
333.202	1	5
333.373	1	21
333.544	1	6
333.715	1	13
333.886	1	7
334.057	1	14
334.228	1	16
334.399	1	20
334.570	1	21
334.741	1	27
334.912	1	20
335.084	1	11
335.255	1	24
335.426	1	15
335.597	1	15
335.768	1	13
335.939	1	14
336.110	1	21
336.281	1	20
336.452	1	20
336.623	1	16
336.794	1	11
336.965	1	9
337.136	1	20
337.307	1	5
337.478	1	8
337.649	1	23
337.820	1	8
337.991	1	18
338.162	1	20
338.333	1	14
338.504	1	17
338.675	1	14
338.846	1	10
339.017	1	22
339.188	1	14
339.359	1	27
339.530	1	22
339.701	1	19
339.872	1	26
340.043	1	4
340.214	1	17
340.385	1	18
340.556	1	17
340.727	1	20
340.898	1	21
341.069	1	17
341.240	1	26
341.411	1	21
341.582	1	20
341.753	1	15
341.924	1	9
342.095	1	15
342.266	1	26
342.437	1	29
342.608	1	26
342.779	1	10
342.950	1	19
343.121	1	19
343.292	1	7
343.463	1	31
343.634	1	13
343.805	1	12
343.976	1	20
344.147	1	15
344.318	1	13
344.489	1	22
344.660	1	23
344.831	1	31
345.002	1	29
345.173	1	14
345.344	1	22
345.515	1	10
345.686	1	35
345.857	1	19
346.028	1	14
346.199	1	8
346.370	1	26
346.541	1	10
346.712	1	25
346.883	1	17
347.054	1	19
347.225	1	16
347.396	1	12
347.567	1	21
347.738	1	17
347.909	1	17
348.080	1	17
348.251	1	18
348.422	1	17
348.593	1	11
348.764	1	19
348.935	1	14
349.106	1	18
349.277	1	20
349.448	1	14
349.619	1	18
349.790	1	31
349.961	1	29
350.132	1	27
350.303	1	18
350.474	1	19
350.645	1	14
350.816	1	16
350.987	1	17
351.157	1	31
351.328	1	32
351.499	1	19
351.670	1	12
351.841	1	19
352.012	1	30
352.183	1	17
352.354	1	19
352.525	1	20
352.696	1	29
352.867	1	10
353.038	1	14
353.209	1	17
353.380	1	13
353.551	1	11
353.722	1	16
353.893	1	22
354.064	1	18
354.235	1	19
354.406	1	23
354.576	1	17
354.747	1	15
354.918	1	27
355.089	1	16
355.260	1	25
355.431	1	18
355.602	1	20
355.773	1	18
355.944	1	20
356.115	1	26
356.286	1	21
356.457	1	23
356.628	1	13
356.799	1	16
356.970	1	25
357.141	1	18
357.311	1	26
357.482	1	21
357.653	1	17
357.824	1	28
357.995	1	11
358.166	1	13
358.337	1	22
358.508	1	25
358.679	1	21
358.850	1	18
359.021	1	22
359.192	1	33
359.363	1	27
359.533	1	7
359.704	1	22
359.875	1	18
360.046	1	30
360.217	1	17
360.388	1	23
360.559	1	21
360.730	1	20
360.901	1	13
361.072	1	22
361.243	1	16
361.414	1	12
361.584	1	10
361.755	1	12
361.926	1	25
362.097	1	23
362.268	1	20
362.439	1	20
362.610	1	24
362.781	1	17
362.952	1	29
363.123	1	14
363.293	1	17
363.464	1	16
363.635	1	17
363.806	1	15
363.977	1	29
364.148	1	19
364.319	1	19
364.490	1	22
364.661	1	15
364.832	1	24
365.002	1	23
365.173	1	20
365.344	1	25
365.515	1	10
365.686	1	10
365.857	1	26
366.028	1	21
366.199	1	16
366.370	1	17
366.540	1	18
366.711	1	14
366.882	1	9
367.053	1	7
367.224	1	21
367.395	1	13
367.566	1	13
367.737	1	19
367.908	1	16
368.078	1	27
368.249	1	30
368.420	1	24
368.591	1	23
368.762	1	8
368.933	1	11
369.104	1	21
369.274	1	20
369.445	1	20
369.616	1	20
369.787	1	33
369.958	1	24
370.129	1	21
370.300	1	21
370.471	1	24
370.641	1	23
370.812	1	16
370.983	1	10
371.154	1	11
371.325	1	20
371.496	1	28
371.667	1	21
371.837	1	28
372.008	1	13
372.179	1	12
372.350	1	14
372.521	1	23
372.692	1	22
372.863	1	21
373.033	1	22
373.204	1	19
373.375	1	14
373.546	1	29
373.717	1	15
373.888	1	30
374.059	1	23
374.229	1	17
374.400	1	24
374.571	1	27
374.742	1	20
374.913	1	20
375.084	1	37
375.254	1	24
375.425	1	18
375.596	1	26
375.767	1	21
375.938	1	20
376.109	1	24
376.279	1	13
376.450	1	22
376.621	1	18
376.792	1	27
376.963	1	18
377.134	1	26
377.304	1	27
377.475	1	32
377.646	1	18
377.817	1	15
377.988	1	26
378.159	1	32
378.329	1	24
378.500	1	37
378.671	1	28
378.842	1	19
379.013	1	42
379.184	1	24
379.354	1	22
379.525	1	17
379.696	1	32
379.867	1	22
380.038	1	35
380.209	1	24
380.379	1	21
380.550	1	35
380.721	1	15
380.892	1	28
381.063	1	33
381.233	1	25
381.404	1	29
381.575	1	33
381.746	1	29
381.917	1	46
382.087	1	44
382.258	1	47
382.429	1	26
382.600	1	28
382.771	1	27
382.941	1	39
383.112	1	21
383.283	1	34
383.454	1	25
383.625	1	12
383.795	1	35
383.966	1	26
384.137	1	28
384.308	1	18
384.479	1	20
384.649	1	17
384.820	1	37
384.991	1	32
385.162	1	32
385.333	1	43
385.503	1	27
385.674	1	28
385.845	1	37
386.016	1	44
386.187	1	32
386.357	1	31
386.528	1	24
386.699	1	40
386.870	1	25
387.041	1	39
387.211	1	29
387.382	1	22
387.553	1	31
387.724	1	46
387.894	1	45
388.065	1	36
388.236	1	40
388.407	1	32
388.578	1	32
388.748	1	30
388.919	1	38
389.090	1	43
389.261	1	33
389.431	1	30
389.602	1	40
389.773	1	42
389.944	1	43
390.114	1	34
390.285	1	36
390.456	1	35
390.627	1	34
390.798	1	33
390.968	1	42
391.139	1	34
391.310	1	40
391.481	1	35
391.651	1	48
391.822	1	42
391.993	1	33
392.164	1	38
392.334	1	39
392.505	1	44
392.676	1	38
392.847	1	43
393.017	1	34
393.188	1	39
393.359	1	36
393.530	1	46
393.700	1	24
393.871	1	33
394.042	1	32
394.213	1	24
394.383	1	34
394.554	1	44
394.725	1	32
394.896	1	42
395.066	1	33
395.237	1	32
395.408	1	43
395.579	1	33
395.749	1	37
395.920	1	27
396.091	1	44
396.262	1	36
396.432	1	40
396.603	1	38
396.774	1	36
396.945	1	36
397.115	1	27
397.286	1	38
397.457	1	42
397.627	1	34
397.798	1	23
397.969	1	38
398.140	1	43
398.310	1	24
398.481	1	30
398.652	1	34
398.823	1	29
398.993	1	41
399.164	1	38
399.335	1	53
399.505	1	41
399.676	1	42
399.847	1	40
400.018	1	44
400.188	1	34
400.359	1	44
400.530	1	52
400.700	1	48
400.871	1	42
401.042	1	43
401.213	1	28
401.383	1	41
401.554	1	42
401.725	1	40
401.895	1	32
402.066	1	39
402.237	1	52
402.408	1	44
402.578	1	35
402.749	1	36
402.920	1	47
403.090	1	37
403.261	1	49
403.432	1	49
403.603	1	45
403.773	1	51
403.944	1	39
404.115	1	41
404.285	1	52
404.456	1	32
404.627	1	37
404.797	1	43
404.968	1	46
405.139	1	42
405.310	1	40
405.480	1	39
405.651	1	35
405.822	1	46
405.992	1	41
406.163	1	56
406.334	1	48
406.504	1	47
406.675	1	61
406.846	1	54
407.016	1	52
407.187	1	48
407.358	1	48
407.528	1	49
407.699	1	39
407.870	1	47
408.041	1	52
408.211	1	34
408.382	1	42
408.553	1	51
408.723	1	47
408.894	1	34
409.065	1	44
409.235	1	47
409.406	1	41
409.577	1	48
409.747	1	48
409.918	1	47
410.089	1	57
410.259	1	36
410.430	1	42
410.601	1	42
410.771	1	46
410.942	1	48
411.113	1	50
411.283	1	52
411.454	1	55
411.625	1	53
411.795	1	39
411.966	1	56
412.137	1	58
412.307	1	49
412.478	1	40
412.649	1	47
412.819	1	49
412.990	1	49
413.161	1	53
413.331	1	52
413.502	1	56
413.672	1	55
413.843	1	46
414.014	1	51
414.184	1	55
414.355	1	43
414.526	1	46
414.696	1	39
414.867	1	51
415.038	1	45
415.208	1	50
415.379	1	48
415.550	1	49
415.720	1	37
415.891	1	58
416.062	1	54
416.232	1	37
416.403	1	53
416.573	1	47
416.744	1	43
416.915	1	57
417.085	1	49
417.256	1	46
417.427	1	42
417.597	1	60
417.768	1	51
417.939	1	53
418.109	1	53
418.280	1	43
418.450	1	54
418.621	1	55
418.792	1	47
418.962	1	37
419.133	1	38
419.304	1	41
419.474	1	52
419.645	1	46
419.815	1	41
419.986	1	51
420.157	1	40
420.327	1	49
420.498	1	50
420.669	1	46
420.839	1	40
421.010	1	50
421.180	1	56
421.351	1	58
421.522	1	44
421.692	1	54
421.863	1	51
422.033	1	44
422.204	1	42
422.375	1	39
422.545	1	43
422.716	1	43
422.886	1	46
423.057	1	50
423.228	1	45
423.398	1	47
423.569	1	49
423.740	1	51
423.910	1	54
424.081	1	41
424.251	1	45
424.422	1	36
424.593	1	50
424.763	1	63
424.934	1	50
425.104	1	55
425.275	1	55
425.445	1	46
425.616	1	50
425.787	1	50
425.957	1	46
426.128	1	52
426.298	1	58
426.469	1	34
426.640	1	45
426.810	1	61
426.981	1	53
427.151	1	55
427.322	1	59
427.493	1	47
427.663	1	49
427.834	1	49
428.004	1	35
428.175	1	52
428.345	1	49
428.516	1	65
428.687	1	50
428.857	1	44
429.028	1	51
429.198	1	55
429.369	1	45
429.540	1	42
429.710	1	52
429.881	1	33
430.051	1	55
430.222	1	54
430.392	1	48
430.563	1	52
430.734	1	52
430.904	1	46
431.075	1	50
431.245	1	49
431.416	1	52
431.586	1	37
431.757	1	47
431.927	1	63
432.098	1	26
432.269	1	51
432.439	1	53
432.610	1	56
432.780	1	37
432.951	1	51
433.121	1	41
433.292	1	46
433.462	1	40
433.633	1	41
433.804	1	44
433.974	1	43
434.145	1	51
434.315	1	54
434.486	1	60
434.656	1	54
434.827	1	39
434.997	1	46
435.168	1	42
435.339	1	38
435.509	1	50
435.680	1	39
435.850	1	42
436.021	1	55
436.191	1	43
436.362	1	49
436.532	1	57
436.703	1	43
436.873	1	47
437.044	1	42
437.214	1	42
437.385	1	50
437.556	1	53
437.726	1	54
437.897	1	50
438.067	1	51
438.238	1	42
438.408	1	42
438.579	1	52
438.749	1	46
438.920	1	52
439.090	1	39
439.261	1	50
439.431	1	41
439.602	1	47
439.772	1	55
439.943	1	34
440.113	1	52
440.284	1	44
440.455	1	47
440.625	1	52
440.796	1	51
440.966	1	43
441.137	1	42
441.307	1	40
441.478	1	46
441.648	1	43
441.819	1	41
441.989	1	52
442.160	1	42
442.330	1	47
442.501	1	40
442.671	1	41
442.842	1	51
443.012	1	38
443.183	1	44
443.353	1	55
443.524	1	41
443.694	1	48
443.865	1	47
444.035	1	36
444.206	1	42
444.376	1	25
444.547	1	52
444.717	1	36
444.888	1	35
445.058	1	37
445.229	1	31
445.399	1	37
445.570	1	32
445.740	1	37
445.911	1	49
446.081	1	45
446.252	1	38
446.422	1	37
446.593	1	36
446.763	1	34
446.934	1	37
447.104	1	31
447.275	1	40
447.445	1	45
447.616	1	38
447.786	1	37
447.957	1	31
448.127	1	42
448.298	1	43
448.468	1	34
448.639	1	35
448.809	1	47
448.979	1	34
449.150	1	37
449.320	1	38
449.491	1	51
449.661	1	49
449.832	1	46
450.002	1	45
450.173	1	27
450.343	1	40
450.514	1	42
450.684	1	50
450.855	1	47
451.025	1	46
451.196	1	33
451.366	1	48
451.537	1	38
451.707	1	38
451.878	1	31
452.048	1	42
452.218	1	40
452.389	1	40
452.559	1	34
452.730	1	43
452.900	1	41
453.071	1	37
453.241	1	50
453.412	1	33
453.582	1	40
453.753	1	40
453.923	1	46
454.093	1	41
454.264	1	45
454.434	1	55
454.605	1	44
454.775	1	38
454.946	1	46
455.116	1	41
455.287	1	32
455.457	1	29
455.628	1	29
455.798	1	40
455.968	1	42
456.139	1	21
456.309	1	38
456.480	1	42
456.650	1	46
456.821	1	39
456.991	1	36
457.161	1	35
457.332	1	41
457.502	1	30
457.673	1	37
457.843	1	35
458.014	1	30
458.184	1	29
458.355	1	34
458.525	1	36
458.695	1	32
458.866	1	30
459.036	1	33
459.207	1	30
459.377	1	40
459.548	1	34
459.718	1	34
459.888	1	42
460.059	1	37
460.229	1	28
460.400	1	42
460.570	1	24
460.740	1	30
460.911	1	31
461.081	1	11
461.252	1	44
461.422	1	36
461.593	1	21
461.763	1	39
461.933	1	23
462.104	1	40
462.274	1	28
462.445	1	9
462.615	1	30
462.785	1	20
462.956	1	31
463.126	1	24
463.297	1	28
463.467	1	42
463.638	1	33
463.808	1	10
463.978	1	31
464.149	1	34
464.319	1	24
464.490	1	28
464.660	1	37
464.830	1	36
465.001	1	37
465.171	1	32
465.342	1	27
465.512	1	33
465.682	1	35
465.853	1	21
466.023	1	31
466.194	1	27
466.364	1	38
466.534	1	35
466.705	1	32
466.875	1	35
467.045	1	27
467.216	1	35
467.386	1	36
467.557	1	27
467.727	1	20
467.897	1	22
468.068	1	35
468.238	1	32
468.409	1	33
468.579	1	19
468.749	1	33
468.920	1	25
469.090	1	33
469.260	1	25
469.431	1	32
469.601	1	20
469.772	1	24
469.942	1	37
470.112	1	37
470.283	1	33
470.453	1	39
470.623	1	29
470.794	1	25
470.964	1	17
471.135	1	15
471.305	1	25
471.475	1	26
471.646	1	24
471.816	1	28
471.986	1	41
472.157	1	27
472.327	1	26
472.497	1	20
472.668	1	25
472.838	1	34
473.009	1	43
473.179	1	27
473.349	1	30
473.520	1	41
473.690	1	19
473.860	1	28
474.031	1	28
474.201	1	23
474.371	1	23
474.542	1	29
474.712	1	14
474.882	1	31
475.053	1	33
475.223	1	31
475.394	1	21
475.564	1	21
475.734	1	29
475.905	1	18
476.075	1	9
476.245	1	37
476.416	1	20
476.586	1	23
476.756	1	22
476.927	1	25
477.097	1	29
477.267	1	28
477.438	1	2
477.608	1	15
477.778	1	27
477.949	1	24
478.119	1	27
478.289	1	27
478.460	1	26
478.630	1	13
478.800	1	20
478.971	1	22
479.141	1	19
479.311	1	20
479.482	1	18
479.652	1	29
479.822	1	20
479.993	1	24
480.163	1	23
480.333	1	21
480.504	1	28
480.674	1	14
480.844	1	18
481.015	1	15
481.185	1	29
481.355	1	21
481.525	1	30
481.696	1	31
481.866	1	16
482.036	1	18
482.207	1	17
482.377	1	19
482.547	1	24
482.718	1	24
482.888	1	22
483.058	1	18
483.229	1	19
483.399	1	19
483.569	1	13
483.740	1	16
483.910	1	19
484.080	1	16
484.250	1	12
484.421	1	29
484.591	1	21
484.761	1	20
484.932	1	18
485.102	1	18
485.272	1	19
485.443	1	20
485.613	1	13
485.783	1	12
485.953	1	10
486.124	1	19
486.294	1	24
486.464	1	21
486.635	1	18
486.805	1	2
486.975	1	21
487.146	1	16
487.316	1	20
487.486	1	11
487.656	1	15
487.827	1	32
487.997	1	12
488.167	1	23
488.338	1	13
488.508	1	19
488.678	1	19
488.848	1	15
489.019	1	17
489.189	1	21
489.359	1	20
489.529	1	13
489.700	1	4
489.870	1	8
490.040	1	11
490.211	1	16
490.381	1	8
490.551	1	6
490.721	1	20
490.892	1	23
491.062	1	21
491.232	1	15
491.402	1	23
491.573	1	20
491.743	1	12
491.913	1	11
492.084	1	16
492.254	1	18
492.424	1	9
492.594	1	23
492.765	1	10
492.935	1	22
493.105	1	19
493.275	1	11
493.446	1	13
493.616	1	21
493.786	1	17
493.956	1	10
494.127	1	8
494.297	1	12
494.467	1	27
494.637	1	21
494.808	1	10
494.978	1	0
495.148	1	22
495.318	1	9
495.489	1	8
495.659	1	17
495.829	1	29
495.999	1	17
496.170	1	9
496.340	1	24
496.510	1	17
496.680	1	9
496.851	1	20
497.021	1	9
497.191	1	3
497.361	1	18
497.532	1	17
497.702	1	18
497.872	1	11
498.042	1	22
498.213	1	15
498.383	1	16
498.553	1	5
498.723	1	-3
498.894	1	26
499.064	1	18
499.234	1	9
499.404	1	15
499.574	1	25
499.745	1	19
499.915	1	7
500.085	1	6
500.255	1	9
500.426	1	15
500.596	1	23
500.766	1	9
500.936	1	23
501.106	1	18
501.277	1	17
501.447	1	4
501.617	1	7
501.787	1	16
501.958	1	10
502.128	1	21
502.298	1	8
502.468	1	19
502.638	1	1
502.809	1	5
502.979	1	3
503.149	1	10
503.319	1	11
503.489	1	10
503.660	1	6
503.830	1	14
504.000	1	15
504.170	1	12
504.340	1	19
504.511	1	22
504.681	1	23
504.851	1	15
505.021	1	10
505.192	1	7
505.362	1	13
505.532	1	2
505.702	1	9
505.872	1	14
506.043	1	7
506.213	1	14
506.383	1	22
506.553	1	10
506.723	1	15
506.893	1	5
507.064	1	16
507.234	1	14
507.404	1	20
507.574	1	8
507.744	1	15
507.915	1	14
508.085	1	3
508.255	1	21
508.425	1	11
508.595	1	9
508.766	1	7
508.936	1	23
509.106	1	10
509.276	1	18
509.446	1	17
509.616	1	8
509.787	1	19
509.957	1	21
510.127	1	2
510.297	1	15
510.467	1	4
510.638	1	6
510.808	1	-4
510.978	1	11
511.148	1	15
511.318	1	10
511.488	1	18
511.659	1	13
511.829	1	7
511.999	1	15
512.169	1	9
512.339	1	8
512.509	1	9
512.680	1	11
512.850	1	8
513.020	1	18
513.190	1	11
513.360	1	2
513.530	1	18
513.700	1	5
513.871	1	12
514.041	1	6
514.211	1	14
514.381	1	17
514.551	1	6
514.721	1	6
514.892	1	14
515.062	1	19
515.232	1	15
515.402	1	13
515.572	1	9
515.742	1	15
515.912	1	9
516.083	1	18
516.253	1	16
516.423	1	5
516.593	1	3
516.763	1	13
516.933	1	21
517.104	1	2
517.274	1	19
517.444	1	10
517.614	1	6
517.784	1	8
517.954	1	6
518.124	1	8
518.294	1	9
518.465	1	8
518.635	1	9
518.805	1	6
518.975	1	4
519.145	1	13
519.315	1	7
519.485	1	15
519.656	1	7
519.826	1	7
519.996	1	12
520.166	1	-3
520.336	1	3
520.506	1	10
520.676	1	18
520.846	1	5
521.017	1	8
521.187	1	5
521.357	1	7
521.527	1	6
521.697	1	7
521.867	1	7
522.037	1	4
522.207	1	21
522.377	1	12
522.548	1	12
522.718	1	13
522.888	1	10
523.058	1	3
523.228	1	2
523.398	1	13
523.568	1	10
523.738	1	2
523.909	1	7
524.079	1	11
524.249	1	8
524.419	1	9
524.589	1	11
524.759	1	5
524.929	1	5
525.099	1	-2
525.269	1	1
525.439	1	7
525.610	1	0
525.780	1	15
525.950	1	18
526.120	1	16
526.290	1	11
526.460	1	2
526.630	1	9
526.800	1	0
526.970	1	8
527.140	1	15
527.311	1	22
527.481	1	2
527.651	1	7
527.821	1	5
527.991	1	4
528.161	1	5
528.331	1	6
528.501	1	0
528.671	1	14
528.841	1	19
529.011	1	9
529.181	1	14
529.352	1	12
529.522	1	5
529.692	1	-4
529.862	1	4
530.032	1	11
530.202	1	7
530.372	1	20
530.542	1	7
530.712	1	21
530.882	1	15
531.052	1	4
531.222	1	7
531.392	1	5
531.563	1	16
531.733	1	-1
531.903	1	23
532.073	1	4
532.243	1	6
532.413	1	5
532.583	1	9
532.753	1	15
532.923	1	8
533.093	1	8
533.263	1	0
533.433	1	3
533.603	1	0
533.773	1	13
533.943	1	7
534.113	1	20
534.284	1	5
534.454	1	11
534.624	1	9
534.794	1	9
534.964	1	-3
535.134	1	17
535.304	1	17
535.474	1	2
535.644	1	10
535.814	1	9
535.984	1	8
536.154	1	11
536.324	1	7
536.494	1	6
536.664	1	8
536.834	1	11
537.004	1	-1
537.174	1	10
537.344	1	16
537.514	1	14
537.685	1	15
537.855	1	8
538.025	1	12
538.195	1	10
538.365	1	22
538.535	1	3
538.705	1	-3
538.875	1	6
539.045	1	14
539.215	1	10
539.385	1	-3
539.555	1	10
539.725	1	6
539.895	1	14
540.065	1	0
540.235	1	8
540.405	1	-3
540.575	1	8
540.745	1	11
540.915	1	12
541.085	1	2
541.255	1	16
541.425	1	10
541.595	1	10
541.765	1	6
541.935	1	4
542.105	1	2
542.275	1	14
542.445	1	11
542.615	1	6
542.785	1	11
542.955	1	-3
543.125	1	6
543.295	1	17
543.465	1	6
543.635	1	11
543.805	1	3
543.975	1	4
544.145	1	19
544.315	1	-3
544.485	1	0
544.655	1	7
544.825	1	11
544.995	1	14
545.165	1	9
545.335	1	-5
545.505	1	4
545.675	1	-5
545.845	1	12
546.015	1	6
546.185	1	2
546.355	1	3
546.525	1	9
546.695	1	0
546.865	1	5
547.035	1	2
547.205	1	12
547.375	1	9
547.545	1	0
547.715	1	16
547.885	1	2
548.055	1	2
548.225	1	14
548.395	1	3
548.565	1	23
548.735	1	1
548.905	1	14
549.075	1	13
549.245	1	12
549.415	1	3
549.585	1	9
549.755	1	18
549.925	1	7
550.095	1	7
550.265	1	21
550.435	1	4
550.605	1	12
550.775	1	13
550.945	1	0
551.115	1	-1
551.285	1	-1
551.455	1	1
551.625	1	-4
551.795	1	6
551.965	1	9
552.135	1	1
552.305	1	5
552.475	1	12
552.645	1	4
552.815	1	3
552.985	1	-4
553.155	1	7
553.325	1	-4
553.495	1	15
553.665	1	-2
553.835	1	8
554.004	1	6
554.174	1	-2
554.344	1	9
554.514	1	9
554.684	1	0
554.854	1	-3
555.024	1	7
555.194	1	3
555.364	1	11
555.534	1	-4
555.704	1	15
555.874	1	1
556.044	1	5
556.214	1	9
556.384	1	10
556.554	1	2
556.724	1	-1
556.894	1	11
557.064	1	15
557.234	1	-5
557.404	1	5
557.573	1	-3
557.743	1	8
557.913	1	18
558.083	1	-1
558.253	1	0
558.423	1	9
558.593	1	4
558.763	1	10
558.933	1	12
559.103	1	13
559.273	1	-3
559.443	1	2
559.613	1	-5
559.783	1	2
559.953	1	9
560.122	1	-4
560.292	1	17
560.462	1	-4
560.632	1	4
560.802	1	15
560.972	1	4
561.142	1	9
561.312	1	10
561.482	1	-4
561.652	1	-3
561.822	1	-9
561.992	1	-1
562.162	1	16
562.331	1	13
562.501	1	3
562.671	1	9
562.841	1	-7
563.011	1	16
563.181	1	8
563.351	1	7
563.521	1	5
563.691	1	6
563.861	1	8
564.031	1	2
564.201	1	14
564.370	1	2
564.540	1	18
564.710	1	-1
564.880	1	4
565.050	1	16
565.220	1	4
565.390	1	1
565.560	1	8
565.730	1	8
565.900	1	6
566.069	1	9
566.239	1	5
566.409	1	-5
566.579	1	10
566.749	1	-2
566.919	1	2
567.089	1	1
567.259	1	-1
567.429	1	10
567.599	1	6
567.768	1	0
567.938	1	0
568.108	1	10
568.278	1	14
568.448	1	-3
568.618	1	-4
568.788	1	6
568.958	1	4
569.128	1	6
569.297	1	11
569.467	1	-3
569.637	1	8
569.807	1	14
569.977	1	-2
570.147	1	6
570.317	1	-5
570.487	1	6
570.656	1	-3
570.826	1	9
570.996	1	-5
571.166	1	15
571.336	1	4
571.506	1	11
571.676	1	12
571.846	1	3
572.015	1	-1
572.185	1	14
572.355	1	-1
572.525	1	-4
572.695	1	-2
572.865	1	-12
573.035	1	13
573.205	1	11
573.374	1	6
573.544	1	11
573.714	1	-1
573.884	1	15
574.054	1	3
574.224	1	5
574.394	1	-2
574.563	1	5
574.733	1	-3
574.903	1	12
575.073	1	2
575.243	1	7
575.413	1	4
575.583	1	7
575.752	1	6
575.922	1	-3
576.092	1	2
576.262	1	1
576.432	1	12
576.602	1	-5
576.772	1	2
576.941	1	1
577.111	1	5
577.281	1	10
577.451	1	14
577.621	1	0
577.791	1	12
577.960	1	3
578.130	1	1
578.300	1	-13
578.470	1	-3
578.640	1	8
578.810	1	4
578.979	1	5
579.149	1	11
579.319	1	6
579.489	1	-1
579.659	1	5
579.829	1	9
579.998	1	-3
580.168	1	5
580.338	1	7
580.508	1	16
580.678	1	6
580.848	1	8
581.017	1	7
581.187	1	13
581.357	1	0
581.527	1	2
581.697	1	3
581.867	1	5
582.036	1	-2
582.206	1	4
582.376	1	8
582.546	1	-8
582.716	1	3
582.885	1	-5
583.055	1	1
583.225	1	-5
583.395	1	16
583.565	1	2
583.735	1	15
583.904	1	-2
584.074	1	-4
584.244	1	-5
584.414	1	7
584.584	1	2
584.753	1	-1
584.923	1	9
585.093	1	10
585.263	1	6
585.433	1	2
585.602	1	2
585.772	1	-4
585.942	1	3
586.112	1	4
586.282	1	4
586.451	1	8
586.621	1	11
586.791	1	-2
586.961	1	0
587.131	1	3
587.300	1	7
587.470	1	5
587.640	1	7
587.810	1	12
587.980	1	0
588.149	1	11
588.319	1	8
588.489	1	-2
588.659	1	8
588.829	1	9
588.998	1	6
589.168	1	7
589.338	1	4
589.508	1	6
589.677	1	10
589.847	1	8
590.017	1	1
590.187	1	10
590.357	1	14
590.526	1	3
590.696	1	-5
590.866	1	-2
591.036	1	8
591.205	1	5
591.375	1	4
591.545	1	9
591.715	1	11
591.885	1	5
592.054	1	4
592.224	1	3
592.394	1	-3
592.564	1	7
592.733	1	0
592.903	1	11
593.073	1	4
593.243	1	-2
593.412	1	9
593.582	1	10
593.752	1	15
593.922	1	2
594.091	1	-3
594.261	1	5
594.431	1	17
594.601	1	2
594.771	1	10
594.940	1	8
595.110	1	6
595.280	1	1
595.450	1	9
595.619	1	8
595.789	1	9
595.959	1	9
596.129	1	0
596.298	1	11
596.468	1	5
596.638	1	7
596.808	1	8
596.977	1	6
597.147	1	-1
597.317	1	-3
597.487	1	5
597.656	1	5
597.826	1	7
597.996	1	21
598.166	1	5
598.335	1	7
598.505	1	13
598.675	1	2
598.844	1	2
599.014	1	9
599.184	1	8
599.354	1	10
599.523	1	17
599.693	1	10
599.863	1	3
600.033	1	-2
600.202	1	13
600.372	1	6
600.542	1	3
600.712	1	8
600.881	1	-3
601.051	1	0
601.221	1	11
601.390	1	-4
601.560	1	12
601.730	1	16
601.900	1	5
602.069	1	6
602.239	1	1
602.409	1	9
602.578	1	10
602.748	1	7
602.918	1	6
603.088	1	13
603.257	1	0
603.427	1	5
603.597	1	14
603.767	1	5
603.936	1	-2
604.106	1	8
604.276	1	7
604.445	1	16
604.615	1	7
604.785	1	3
604.954	1	13
605.124	1	-2
605.294	1	17
605.464	1	14
605.633	1	2
605.803	1	3
605.973	1	13
606.142	1	-1
606.312	1	8
606.482	1	15
606.652	1	7
606.821	1	0
606.991	1	3
607.161	1	0
607.330	1	4
607.500	1	8
607.670	1	17
607.839	1	22
608.009	1	3
608.179	1	3
608.348	1	9
608.518	1	10
608.688	1	9
608.858	1	14
609.027	1	10
609.197	1	-9
609.367	1	7
609.536	1	10
609.706	1	7
609.876	1	20
610.045	1	1
610.215	1	13
610.385	1	-8
610.554	1	6
610.724	1	4
610.894	1	16
611.063	1	-4
611.233	1	11
611.403	1	8
611.572	1	4
611.742	1	9
611.912	1	10
612.081	1	-6
612.251	1	5
612.421	1	8
612.590	1	10
612.760	1	12
612.930	1	6
613.099	1	10
613.269	1	10
613.439	1	2
613.608	1	5
613.778	1	-2
613.948	1	12
614.117	1	13
614.287	1	5
614.457	1	-6
614.626	1	15
614.796	1	10
614.966	1	9
615.135	1	10
615.305	1	10
615.475	1	2
615.644	1	5
615.814	1	-4
615.984	1	8
616.153	1	14
616.323	1	6
616.493	1	17
616.662	1	12
616.832	1	9
617.002	1	10
617.171	1	-6
617.341	1	2
617.511	1	-3
617.680	1	22
617.850	1	9
618.019	1	8
618.189	1	12
618.359	1	-1
618.528	1	9
618.698	1	13
618.868	1	-4
619.037	1	8
619.207	1	5
619.377	1	-3
619.546	1	5
619.716	1	12
619.885	1	6
620.055	1	7
620.225	1	12
620.394	1	7
620.564	1	19
620.734	1	11
620.903	1	16
621.073	1	5
621.242	1	4
621.412	1	15
621.582	1	15
621.751	1	19
621.921	1	14
622.091	1	15
622.260	1	-2
622.430	1	12
622.599	1	1
622.769	1	16
622.939	1	6
623.108	1	7
623.278	1	16
623.448	1	13
623.617	1	11
623.787	1	9
623.956	1	8
624.126	1	19
624.296	1	8
624.465	1	14
624.635	1	8
624.804	1	0
624.974	1	13
625.144	1	10
625.313	1	7
625.483	1	20
625.652	1	20
625.822	1	11
625.992	1	6
626.161	1	19
626.331	1	11
626.501	1	12
626.670	1	20
626.840	1	12
627.009	1	11
627.179	1	9
627.348	1	9
627.518	1	12
627.688	1	8
627.857	1	15
628.027	1	3
628.196	1	11
628.366	1	9
628.536	1	5
628.705	1	9
628.875	1	19
629.044	1	11
629.214	1	6
629.384	1	12
629.553	1	13
629.723	1	7
629.892	1	20
630.062	1	17
630.232	1	7
630.401	1	14
630.571	1	16
630.740	1	15
630.910	1	12
631.079	1	1
631.249	1	6
631.419	1	5
631.588	1	12
631.758	1	17
631.927	1	12
632.097	1	7
632.266	1	12
632.436	1	10
632.606	1	9
632.775	1	11
632.945	1	9
633.114	1	4
633.284	1	10
633.453	1	4
633.623	1	20
633.793	1	7
633.962	1	5
634.132	1	9
634.301	1	14
634.471	1	13
634.640	1	5
634.810	1	15
634.979	1	4
635.149	1	5
635.319	1	7
635.488	1	23
635.658	1	19
635.827	1	14
635.997	1	12
636.166	1	6
636.336	1	4
636.505	1	8
636.675	1	14
636.845	1	17
637.014	1	10
637.184	1	6
637.353	1	11
637.523	1	7
637.692	1	16
637.862	1	11
638.031	1	14
638.201	1	12
638.370	1	8
638.540	1	4
638.710	1	22
638.879	1	15
639.049	1	9
639.218	1	13
639.388	1	22
639.557	1	15
639.727	1	7
639.896	1	6
640.066	1	20
640.235	1	12
640.405	1	11
640.574	1	11
640.744	1	19
640.914	1	9
641.083	1	15
641.253	1	17
641.422	1	2
641.592	1	11
641.761	1	14
641.931	1	13
642.100	1	10
642.270	1	15
642.439	1	10
642.609	1	12
642.778	1	-1
642.948	1	19
643.117	1	20
643.287	1	6
643.456	1	17
643.626	1	26
643.795	1	15
643.965	1	12
644.134	1	10
644.304	1	13
644.473	1	12
644.643	1	6
644.812	1	23
644.982	1	9
645.151	1	20
645.321	1	7
645.490	1	5
645.660	1	10
645.829	1	10
645.999	1	15
646.168	1	10
646.338	1	2
646.507	1	21
646.677	1	16
646.846	1	12
647.016	1	11
647.185	1	7
647.355	1	12
647.524	1	17
647.694	1	13
647.863	1	6
648.033	1	13
648.202	1	15
648.372	1	17
648.541	1	6
648.711	1	18
648.880	1	21
649.050	1	14
649.219	1	4
649.389	1	11
649.558	1	14
649.728	1	3
649.897	1	10
650.067	1	13
650.236	1	19
650.406	1	7
650.575	1	4
650.745	1	15
650.914	1	2
651.084	1	6
651.253	1	8
651.423	1	18
651.592	1	13
651.762	1	20
651.931	1	15
652.101	1	12
652.270	1	6
652.440	1	7
652.609	1	15
652.778	1	-1
652.948	1	11
653.117	1	4
653.287	1	22
653.456	1	16
653.626	1	0
653.795	1	18
653.965	1	9
654.134	1	22
654.304	1	9
654.473	1	15
654.643	1	8
654.812	1	16
654.982	1	11
655.151	1	4
655.320	1	26
655.490	1	14
655.659	1	0
655.829	1	17
655.998	1	3
656.168	1	5
656.337	1	18
656.507	1	2
656.676	1	20
656.846	1	15
657.015	1	10
657.184	1	10
657.354	1	4
657.523	1	11
657.693	1	13
657.862	1	6
658.032	1	9
658.201	1	11
658.371	1	9
658.540	1	1
658.709	1	10
658.879	1	3
659.048	1	9
659.218	1	9
659.387	1	4
659.557	1	13
659.726	1	15
659.895	1	4
660.065	1	1
660.234	1	10
660.404	1	15
660.573	1	16
660.743	1	22
660.912	1	18
661.081	1	24
661.251	1	12
661.420	1	2
661.590	1	3
661.759	1	12
661.929	1	5
662.098	1	7
662.267	1	8
662.437	1	14
662.606	1	15
662.776	1	8
662.945	1	5
663.115	1	12
663.284	1	12
663.453	1	5
663.623	1	9
663.792	1	9
663.962	1	15
664.131	1	12
664.300	1	10
664.470	1	11
664.639	1	6
664.809	1	4
664.978	1	10
665.148	1	11
665.317	1	4
665.486	1	12
665.656	1	8
665.825	1	12
665.995	1	1
666.164	1	12
666.333	1	6
666.503	1	13
666.672	1	14
666.842	1	2
667.011	1	8
667.180	1	5
667.350	1	15
667.519	1	14
667.689	1	5
667.858	1	17
668.027	1	20
668.197	1	17
668.366	1	3
668.536	1	10
668.705	1	9
668.874	1	13
669.044	1	4
669.213	1	13
669.382	1	5
669.552	1	16
669.721	1	20
669.891	1	9
670.060	1	18
670.229	1	14
670.399	1	11
670.568	1	3
670.738	1	4
670.907	1	7
671.076	1	8
671.246	1	18
671.415	1	8
671.584	1	11
671.754	1	9
671.923	1	14
672.093	1	17
672.262	1	14
672.431	1	-1
672.601	1	9
672.770	1	9
672.939	1	11
673.109	1	10
673.278	1	16
673.448	1	-2
673.617	1	-2
673.786	1	6
