325.333	1	25
325.504	1	14
325.675	1	12
325.846	1	20
326.017	1	17
326.188	1	13
326.359	1	24
326.531	1	22
326.702	1	14
326.873	1	15
327.044	1	22
327.215	1	16
327.386	1	11
327.557	1	13
327.728	1	13
327.899	1	30
328.070	1	20
328.241	1	16
328.412	1	25
328.583	1	10
328.754	1	16
328.926	1	21
329.097	1	14
329.268	1	11
329.439	1	27
329.610	1	20
329.781	1	6
329.952	1	25
330.123	1	15
330.294	1	11
330.465	1	14
330.636	1	26
330.807	1	12
330.978	1	25
331.149	1	24
331.320	1	25
331.492	1	28
331.663	1	16
331.834	1	16
332.005	1	24
332.176	1	6
332.347	1	27
332.518	1	15
332.689	1	25
332.860	1	10
333.031	1	15
333.202	1	12
333.373	1	27
333.544	1	15
333.715	1	24
333.886	1	23
334.057	1	26
334.228	1	23
334.399	1	27
334.570	1	24
334.741	1	16
334.912	1	30
335.084	1	16
335.255	1	21
335.426	1	19
335.597	1	23
335.768	1	21
335.939	1	17
336.110	1	24
336.281	1	22
336.452	1	19
336.623	1	19
336.794	1	27
336.965	1	12
337.136	1	4
337.307	1	24
337.478	1	17
337.649	1	28
337.820	1	27
337.991	1	21
338.162	1	12
338.333	1	26
338.504	1	19
338.675	1	20
338.846	1	23
339.017	1	32
339.188	1	25
339.359	1	25
339.530	1	39
339.701	1	24
339.872	1	25
340.043	1	17
340.214	1	28
340.385	1	11
340.556	1	30
340.727	1	29
340.898	1	30
341.069	1	35
341.240	1	26
341.411	1	26
341.582	1	29
341.753	1	22
341.924	1	23
342.095	1	13
342.266	1	30
342.437	1	33
342.608	1	37
342.779	1	30
342.950	1	29
343.121	1	28
343.292	1	30
343.463	1	33
343.634	1	18
343.805	1	24
343.976	1	26
344.147	1	22
344.318	1	21
344.489	1	28
344.660	1	26
344.831	1	45
345.002	1	31
345.173	1	24
345.344	1	25
345.515	1	13
345.686	1	40
345.857	1	18
346.028	1	32
346.199	1	29
346.370	1	24
346.541	1	26
346.712	1	41
346.883	1	35
347.054	1	37
347.225	1	34
347.396	1	22
347.567	1	35
347.738	1	21
347.909	1	26
348.080	1	18
348.251	1	38
348.422	1	41
348.593	1	22
348.764	1	29
348.935	1	25
349.106	1	35
349.277	1	34
349.448	1	41
349.619	1	20
349.790	1	35
349.961	1	39
350.132	1	25
350.303	1	33
350.474	1	29
350.645	1	34
350.816	1	30
350.987	1	34
351.157	1	43
351.328	1	37
351.499	1	31
351.670	1	33
351.841	1	36
352.012	1	39
352.183	1	28
352.354	1	26
352.525	1	36
352.696	1	46
352.867	1	34
353.038	1	31
353.209	1	29
353.380	1	22
353.551	1	22
353.722	1	43
353.893	1	27
354.064	1	33
354.235	1	28
354.406	1	40
354.576	1	46
354.747	1	37
354.918	1	36
355.089	1	38
355.260	1	47
355.431	1	34
355.602	1	39
355.773	1	32
355.944	1	31
356.115	1	38
356.286	1	43
356.457	1	42
356.628	1	35
356.799	1	30
356.970	1	36
357.141	1	35
357.311	1	37
357.482	1	43
357.653	1	34
357.824	1	42
357.995	1	30
358.166	1	29
358.337	1	36
358.508	1	47
358.679	1	38
358.850	1	26
359.021	1	34
359.192	1	39
359.363	1	45
359.533	1	22
359.704	1	36
359.875	1	38
360.046	1	51
360.217	1	39
360.388	1	37
360.559	1	34
360.730	1	42
360.901	1	38
361.072	1	46
361.243	1	33
361.414	1	33
361.584	1	30
361.755	1	36
361.926	1	44
362.097	1	32
362.268	1	36
362.439	1	49
362.610	1	38
362.781	1	47
362.952	1	47
363.123	1	43
363.293	1	35
363.464	1	41
363.635	1	48
363.806	1	31
363.977	1	37
364.148	1	37
364.319	1	42
364.490	1	55
364.661	1	42
364.832	1	40
365.002	1	42
365.173	1	28
365.344	1	46
365.515	1	39
365.686	1	32
365.857	1	29
366.028	1	42
366.199	1	39
366.370	1	32
366.540	1	29
366.711	1	46
366.882	1	34
367.053	1	40
367.224	1	42
367.395	1	34
367.566	1	21
367.737	1	44
367.908	1	26
368.078	1	38
368.249	1	39
368.420	1	36
368.591	1	47
368.762	1	42
368.933	1	29
369.104	1	42
369.274	1	27
369.445	1	39
369.616	1	42
369.787	1	48
369.958	1	30
370.129	1	36
370.300	1	46
370.471	1	50
370.641	1	38
370.812	1	44
370.983	1	36
371.154	1	49
371.325	1	42
371.496	1	49
371.667	1	42
371.837	1	53
372.008	1	31
372.179	1	41
372.350	1	32
372.521	1	41
372.692	1	43
372.863	1	33
373.033	1	52
373.204	1	32
373.375	1	35
373.546	1	57
373.717	1	29
373.888	1	54
374.059	1	47
374.229	1	35
374.400	1	32
374.571	1	37
374.742	1	45
374.913	1	40
375.084	1	38
375.254	1	46
375.425	1	38
375.596	1	42
375.767	1	49
375.938	1	39
376.109	1	51
376.279	1	32
376.450	1	43
376.621	1	32
376.792	1	47
376.963	1	40
377.134	1	42
377.304	1	49
377.475	1	39
377.646	1	38
377.817	1	41
377.988	1	36
378.159	1	58
378.329	1	43
378.500	1	58
378.671	1	56
378.842	1	49
379.013	1	50
379.184	1	38
379.354	1	44
379.525	1	43
379.696	1	54
379.867	1	52
380.038	1	56
380.209	1	50
380.379	1	51
380.550	1	47
380.721	1	40
380.892	1	41
381.063	1	42
381.233	1	46
381.404	1	42
381.575	1	53
381.746	1	52
381.917	1	53
382.087	1	52
382.258	1	65
382.429	1	46
382.600	1	58
382.771	1	58
382.941	1	58
383.112	1	42
383.283	1	58
383.454	1	39
383.625	1	43
383.795	1	54
383.966	1	36
384.137	1	49
384.308	1	50
384.479	1	41
384.649	1	51
384.820	1	52
384.991	1	49
385.162	1	42
385.333	1	46
385.503	1	42
385.674	1	28
385.845	1	54
386.016	1	58
386.187	1	41
386.357	1	50
386.528	1	50
386.699	1	55
386.870	1	47
387.041	1	60
387.211	1	50
387.382	1	47
387.553	1	45
387.724	1	62
387.894	1	51
388.065	1	57
388.236	1	59
388.407	1	53
388.578	1	48
388.748	1	54
388.919	1	48
389.090	1	59
389.261	1	48
389.431	1	54
389.602	1	69
389.773	1	63
389.944	1	70
390.114	1	68
390.285	1	51
390.456	1	55
390.627	1	53
390.798	1	58
390.968	1	72
391.139	1	56
391.310	1	60
391.481	1	67
391.651	1	66
391.822	1	61
391.993	1	60
392.164	1	63
392.334	1	61
392.505	1	63
392.676	1	76
392.847	1	59
393.017	1	61
393.188	1	66
393.359	1	56
393.530	1	65
393.700	1	59
393.871	1	66
394.042	1	51
394.213	1	49
394.383	1	62
394.554	1	69
394.725	1	59
394.896	1	54
395.066	1	57
395.237	1	60
395.408	1	61
395.579	1	57
395.749	1	52
395.920	1	52
396.091	1	56
396.262	1	58
396.432	1	57
396.603	1	67
396.774	1	65
396.945	1	68
397.115	1	55
397.286	1	57
397.457	1	53
397.627	1	48
397.798	1	66
397.969	1	63
398.140	1	66
398.310	1	57
398.481	1	55
398.652	1	60
398.823	1	67
398.993	1	67
399.164	1	62
399.335	1	63
399.505	1	59
399.676	1	75
399.847	1	63
400.018	1	63
400.188	1	64
400.359	1	70
400.530	1	68
400.700	1	67
400.871	1	59
401.042	1	67
401.213	1	69
401.383	1	59
401.554	1	72
401.725	1	73
401.895	1	80
402.066	1	62
402.237	1	69
402.408	1	78
402.578	1	63
402.749	1	56
402.920	1	71
403.090	1	59
403.261	1	72
403.432	1	64
403.603	1	75
403.773	1	68
403.944	1	71
404.115	1	71
404.285	1	82
404.456	1	72
404.627	1	70
404.797	1	60
404.968	1	69
405.139	1	65
405.310	1	81
405.480	1	62
405.651	1	58
405.822	1	66
405.992	1	76
406.163	1	76
406.334	1	78
406.504	1	62
406.675	1	78
406.846	1	67
407.016	1	70
407.187	1	70
407.358	1	68
407.528	1	71
407.699	1	62
407.870	1	73
408.041	1	74
408.211	1	77
408.382	1	86
408.553	1	71
408.723	1	72
408.894	1	53
409.065	1	59
409.235	1	69
409.406	1	73
409.577	1	67
409.747	1	73
409.918	1	74
410.089	1	71
410.259	1	77
410.430	1	74
410.601	1	71
410.771	1	72
410.942	1	70
411.113	1	75
411.283	1	91
411.454	1	89
411.625	1	67
411.795	1	59
411.966	1	95
412.137	1	76
412.307	1	82
412.478	1	93
412.649	1	73
412.819	1	74
412.990	1	77
413.161	1	85
413.331	1	74
413.502	1	88
413.672	1	90
413.843	1	69
414.014	1	73
414.184	1	68
414.355	1	83
414.526	1	79
414.696	1	82
414.867	1	82
415.038	1	69
415.208	1	73
415.379	1	79
415.550	1	69
415.720	1	57
415.891	1	85
416.062	1	78
416.232	1	73
416.403	1	85
416.573	1	82
416.744	1	80
416.915	1	79
417.085	1	78
417.256	1	70
417.427	1	69
417.597	1	83
417.768	1	78
417.939	1	74
418.109	1	64
418.280	1	73
418.450	1	64
418.621	1	76
418.792	1	73
418.962	1	68
419.133	1	71
419.304	1	65
419.474	1	71
419.645	1	75
419.815	1	63
419.986	1	68
420.157	1	73
420.327	1	61
420.498	1	76
420.669	1	78
420.839	1	77
421.010	1	66
421.180	1	78
421.351	1	73
421.522	1	70
421.692	1	77
421.863	1	76
422.033	1	68
422.204	1	80
422.375	1	71
422.545	1	79
422.716	1	72
422.886	1	65
423.057	1	74
423.228	1	64
423.398	1	71
423.569	1	79
423.740	1	86
423.910	1	69
424.081	1	73
424.251	1	72
424.422	1	79
424.593	1	70
424.763	1	87
424.934	1	73
425.104	1	78
425.275	1	80
425.445	1	61
425.616	1	76
425.787	1	67
425.957	1	77
426.128	1	82
426.298	1	80
426.469	1	71
426.640	1	78
426.810	1	86
426.981	1	71
427.151	1	84
427.322	1	71
427.493	1	79
427.663	1	82
427.834	1	74
428.004	1	60
428.175	1	84
428.345	1	62
428.516	1	76
428.687	1	76
428.857	1	70
429.028	1	64
429.198	1	87
429.369	1	70
429.540	1	63
429.710	1	70
429.881	1	60
430.051	1	72
430.222	1	79
430.392	1	66
430.563	1	85
430.734	1	74
430.904	1	68
431.075	1	78
431.245	1	72
431.416	1	68
431.586	1	60
431.757	1	59
431.927	1	74
432.098	1	62
432.269	1	72
432.439	1	81
432.610	1	73
432.780	1	73
432.951	1	64
433.121	1	73
433.292	1	75
433.462	1	71
433.633	1	64
433.804	1	71
433.974	1	64
434.145	1	63
434.315	1	65
434.486	1	86
434.656	1	78
434.827	1	67
434.997	1	67
435.168	1	72
435.339	1	68
435.509	1	68
435.680	1	74
435.850	1	66
436.021	1	67
436.191	1	78
436.362	1	77
436.532	1	79
436.703	1	70
436.873	1	75
437.044	1	64
437.214	1	72
437.385	1	74
437.556	1	80
437.726	1	73
437.897	1	73
438.067	1	70
438.238	1	77
438.408	1	57
438.579	1	74
438.749	1	69
438.920	1	82
439.090	1	66
439.261	1	71
439.431	1	70
439.602	1	62
439.772	1	59
439.943	1	59
440.113	1	73
440.284	1	67
440.455	1	62
440.625	1	80
440.796	1	67
440.966	1	59
441.137	1	56
441.307	1	64
441.478	1	60
441.648	1	57
441.819	1	74
441.989	1	68
442.160	1	64
442.330	1	64
442.501	1	61
442.671	1	68
442.842	1	78
443.012	1	67
443.183	1	70
443.353	1	64
443.524	1	48
443.694	1	58
443.865	1	64
444.035	1	55
444.206	1	50
444.376	1	73
444.547	1	68
444.717	1	56
444.888	1	68
445.058	1	55
445.229	1	55
445.399	1	51
445.570	1	52
445.740	1	68
445.911	1	65
446.081	1	73
446.252	1	57
446.422	1	48
446.593	1	59
446.763	1	54
446.934	1	56
447.104	1	62
447.275	1	64
447.445	1	61
447.616	1	67
447.786	1	60
447.957	1	58
448.127	1	65
448.298	1	53
448.468	1	49
448.639	1	61
448.809	1	57
448.979	1	58
449.150	1	54
449.320	1	57
449.491	1	61
449.661	1	78
449.832	1	54
450.002	1	70
450.173	1	41
450.343	1	57
450.514	1	64
450.684	1	50
450.855	1	73
451.025	1	58
451.196	1	52
451.366	1	70
451.537	1	60
451.707	1	61
451.878	1	51
452.048	1	65
452.218	1	59
452.389	1	64
452.559	1	48
452.730	1	56
452.900	1	50
453.071	1	56
453.241	1	77
453.412	1	56
453.582	1	63
453.753	1	43
453.923	1	67
454.093	1	60
454.264	1	73
454.434	1	65
454.605	1	60
454.775	1	54
454.946	1	65
455.116	1	51
455.287	1	54
455.457	1	52
455.628	1	56
455.798	1	61
455.968	1	63
456.139	1	49
456.309	1	48
456.480	1	60
456.650	1	66
456.821	1	69
456.991	1	58
457.161	1	57
457.332	1	63
457.502	1	53
457.673	1	54
457.843	1	52
458.014	1	54
458.184	1	58
458.355	1	49
458.525	1	53
458.695	1	58
458.866	1	36
459.036	1	45
459.207	1	62
459.377	1	52
459.548	1	50
459.718	1	45
459.888	1	63
460.059	1	50
460.229	1	50
460.400	1	54
460.570	1	46
460.740	1	46
460.911	1	44
461.081	1	54
461.252	1	62
461.422	1	53
461.593	1	42
461.763	1	50
461.933	1	46
462.104	1	55
462.274	1	47
462.445	1	39
462.615	1	48
462.785	1	35
462.956	1	52
463.126	1	49
463.297	1	55
463.467	1	61
463.638	1	41
463.808	1	43
463.978	1	47
464.149	1	60
464.319	1	38
464.490	1	48
464.660	1	51
464.830	1	48
465.001	1	63
465.171	1	47
465.342	1	46
465.512	1	54
465.682	1	51
465.853	1	42
466.023	1	48
466.194	1	46
466.364	1	46
466.534	1	51
466.705	1	50
466.875	1	54
467.045	1	39
467.216	1	44
467.386	1	53
467.557	1	38
467.727	1	44
467.897	1	54
468.068	1	53
468.238	1	46
468.409	1	46
468.579	1	39
468.749	1	47
468.920	1	42
469.090	1	44
469.260	1	36
469.431	1	50
469.601	1	50
469.772	1	49
469.942	1	53
470.112	1	42
470.283	1	50
470.453	1	40
470.623	1	48
470.794	1	40
470.964	1	34
471.135	1	39
471.305	1	43
471.475	1	33
471.646	1	37
471.816	1	46
471.986	1	44
472.157	1	36
472.327	1	43
472.497	1	39
472.668	1	43
472.838	1	43
473.009	1	58
473.179	1	39
473.349	1	37
473.520	1	39
473.690	1	44
473.860	1	46
474.031	1	34
474.201	1	48
474.371	1	42
474.542	1	41
474.712	1	36
474.882	1	45
475.053	1	39
475.223	1	36
475.394	1	42
475.564	1	43
475.734	1	42
475.905	1	40
476.075	1	43
476.245	1	52
476.416	1	43
476.586	1	42
476.756	1	43
476.927	1	42
477.097	1	41
477.267	1	47
477.438	1	25
477.608	1	37
477.778	1	35
477.949	1	39
478.119	1	43
478.289	1	54
478.460	1	39
478.630	1	28
478.800	1	45
478.971	1	45
479.141	1	43
479.311	1	37
479.482	1	32
479.652	1	44
479.822	1	33
479.993	1	34
480.163	1	43
480.333	1	41
480.504	1	33
480.674	1	37
480.844	1	44
481.015	1	31
481.185	1	40
481.355	1	34
481.525	1	44
481.696	1	44
481.866	1	34
482.036	1	36
482.207	1	32
482.377	1	38
482.547	1	37
482.718	1	30
482.888	1	38
483.058	1	36
483.229	1	40
483.399	1	40
483.569	1	42
483.740	1	37
483.910	1	34
484.080	1	37
484.250	1	41
484.421	1	40
484.591	1	37
484.761	1	29
484.932	1	37
485.102	1	39
485.272	1	36
485.443	1	40
485.613	1	38
485.783	1	36
485.953	1	26
486.124	1	19
486.294	1	41
486.464	1	35
486.635	1	28
486.805	1	31
486.975	1	29
487.146	1	35
487.316	1	35
487.486	1	29
487.656	1	28
487.827	1	33
487.997	1	30
488.167	1	47
488.338	1	32
488.508	1	36
488.678	1	39
488.848	1	30
489.019	1	37
489.189	1	28
489.359	1	22
489.529	1	22
489.700	1	17
489.870	1	19
490.040	1	25
490.211	1	31
490.381	1	22
490.551	1	25
490.721	1	43
490.892	1	35
491.062	1	31
491.232	1	24
491.402	1	31
491.573	1	33
491.743	1	26
491.913	1	34
492.084	1	24
492.254	1	33
492.424	1	28
492.594	1	35
492.765	1	23
492.935	1	32
493.105	1	34
493.275	1	21
493.446	1	18
493.616	1	35
493.786	1	27
493.956	1	23
494.127	1	20
494.297	1	27
494.467	1	19
494.637	1	29
494.808	1	23
494.978	1	17
495.148	1	29
495.318	1	26
495.489	1	18
495.659	1	37
495.829	1	37
495.999	1	25
496.170	1	26
496.340	1	46
496.510	1	23
496.680	1	26
496.851	1	22
497.021	1	25
497.191	1	21
497.361	1	16
497.532	1	21
497.702	1	28
497.872	1	29
498.042	1	30
498.213	1	21
498.383	1	37
498.553	1	22
498.723	1	26
498.894	1	33
499.064	1	29
499.234	1	28
499.404	1	34
499.574	1	27
499.745	1	32
499.915	1	18
500.085	1	20
500.255	1	34
500.426	1	22
500.596	1	30
500.766	1	24
500.936	1	18
501.106	1	20
501.277	1	30
501.447	1	25
501.617	1	19
501.787	1	25
501.958	1	40
502.128	1	33
502.298	1	24
502.468	1	28
502.638	1	27
502.809	1	23
502.979	1	26
503.149	1	26
503.319	1	16
503.489	1	24
503.660	1	18
503.830	1	17
504.000	1	19
504.170	1	23
504.340	1	28
504.511	1	27
504.681	1	25
504.851	1	38
505.021	1	15
505.192	1	22
505.362	1	25
505.532	1	14
505.702	1	15
505.872	1	33
506.043	1	15
506.213	1	32
506.383	1	28
506.553	1	26
506.723	1	33
506.893	1	21
507.064	1	25
507.234	1	30
507.404	1	23
507.574	1	36
507.744	1	29
507.915	1	21
508.085	1	16
508.255	1	34
508.425	1	21
508.595	1	11
508.766	1	21
508.936	1	23
509.106	1	17
509.276	1	41
509.446	1	28
509.616	1	19
509.787	1	33
509.957	1	21
510.127	1	14
510.297	1	25
510.467	1	13
510.638	1	13
510.808	1	23
510.978	1	29
511.148	1	30
511.318	1	21
511.488	1	14
511.659	1	22
511.829	1	11
511.999	1	14
512.169	1	13
512.339	1	13
512.509	1	11
512.680	1	8
512.850	1	28
513.020	1	20
513.190	1	22
513.360	1	20
513.530	1	13
513.700	1	21
513.871	1	22
514.041	1	24
514.211	1	18
514.381	1	26
514.551	1	14
514.721	1	23
514.892	1	12
515.062	1	20
515.232	1	22
515.402	1	30
515.572	1	24
515.742	1	22
515.912	1	9
516.083	1	17
516.253	1	32
516.423	1	7
516.593	1	15
516.763	1	22
516.933	1	30
517.104	1	16
517.274	1	34
517.444	1	15
517.614	1	21
517.784	1	23
517.954	1	16
518.124	1	18
518.294	1	14
518.465	1	18
518.635	1	24
518.805	1	20
518.975	1	10
519.145	1	17
519.315	1	18
519.485	1	10
519.656	1	27
519.826	1	13
519.996	1	20
520.166	1	9
520.336	1	10
520.506	1	23
520.676	1	25
520.846	1	18
521.017	1	12
521.187	1	18
521.357	1	19
521.527	1	16
521.697	1	15
521.867	1	16
522.037	1	15
522.207	1	19
522.377	1	16
522.548	1	22
522.718	1	14
522.888	1	27
523.058	1	16
523.228	1	9
523.398	1	19
523.568	1	16
523.738	1	12
523.909	1	7
524.079	1	24
524.249	1	15
524.419	1	22
524.589	1	14
524.759	1	21
524.929	1	13
525.099	1	16
525.269	1	8
525.439	1	19
525.610	1	5
525.780	1	13
525.950	1	20
526.120	1	10
526.290	1	28
526.460	1	29
526.630	1	24
526.800	1	20
526.970	1	20
527.140	1	24
527.311	1	26
527.481	1	12
527.651	1	20
527.821	1	19
527.991	1	3
528.161	1	10
528.331	1	9
528.501	1	13
528.671	1	24
528.841	1	20
529.011	1	16
529.181	1	14
529.352	1	24
529.522	1	21
529.692	1	4
529.862	1	18
530.032	1	16
530.202	1	20
530.372	1	18
530.542	1	10
530.712	1	24
530.882	1	19
531.052	1	17
531.222	1	16
531.392	1	7
531.563	1	16
531.733	1	8
531.903	1	21
532.073	1	16
532.243	1	22
532.413	1	11
532.583	1	13
532.753	1	17
532.923	1	14
533.093	1	14
533.263	1	4
533.433	1	17
533.603	1	8
533.773	1	13
533.943	1	16
534.113	1	15
534.284	1	13
534.454	1	15
534.624	1	13
534.794	1	20
534.964	1	22
535.134	1	13
535.304	1	21
535.474	1	7
535.644	1	24
535.814	1	17
535.984	1	18
536.154	1	20
536.324	1	8
536.494	1	12
536.664	1	9
536.834	1	23
537.004	1	33
537.174	1	13
537.344	1	8
537.514	1	12
537.685	1	5
537.855	1	16
538.025	1	17
538.195	1	12
538.365	1	22
538.535	1	18
538.705	1	8
538.875	1	16
539.045	1	12
539.215	1	19
539.385	1	6
539.555	1	7
539.725	1	7
539.895	1	19
540.065	1	4
540.235	1	26
540.405	1	7
540.575	1	15
540.745	1	5
540.915	1	11
541.085	1	13
541.255	1	19
541.425	1	16
541.595	1	25
541.765	1	26
541.935	1	17
542.105	1	17
542.275	1	13
542.445	1	17
542.615	1	12
542.785	1	14
542.955	1	3
543.125	1	16
543.295	1	16
543.465	1	7
543.635	1	4
543.805	1	9
543.975	1	-8
544.145	1	21
544.315	1	6
544.485	1	13
544.655	1	15
544.825	1	12
544.995	1	23
545.165	1	15
545.335	1	6
545.505	1	16
545.675	1	-3
545.845	1	23
546.015	1	9
546.185	1	13
546.355	1	5
546.525	1	7
546.695	1	11
546.865	1	18
547.035	1	4
547.205	1	13
547.375	1	5
547.545	1	6
547.715	1	10
547.885	1	9
548.055	1	11
548.225	1	14
548.395	1	8
548.565	1	13
548.735	1	4
548.905	1	18
549.075	1	11
549.245	1	9
549.415	1	6
549.585	1	14
549.755	1	19
549.925	1	11
550.095	1	6
550.265	1	25
550.435	1	9
550.605	1	12
550.775	1	12
550.945	1	8
551.115	1	11
551.285	1	10
551.455	1	14
551.625	1	8
551.795	1	-1
551.965	1	12
552.135	1	16
552.305	1	14
552.475	1	13
552.645	1	10
552.815	1	13
552.985	1	7
553.155	1	10
553.325	1	4
553.495	1	10
553.665	1	11
553.835	1	10
554.004	1	15
554.174	1	14
554.344	1	5
554.514	1	12
554.684	1	4
554.854	1	1
555.024	1	6
555.194	1	12
555.364	1	9
555.534	1	-1
555.704	1	21
555.874	1	-4
556.044	1	11
556.214	1	13
556.384	1	22
556.554	1	8
556.724	1	15
556.894	1	8
557.064	1	18
557.234	1	4
557.404	1	1
557.573	1	10
557.743	1	10
557.913	1	19
558.083	1	10
558.253	1	3
558.423	1	10
558.593	1	9
558.763	1	15
558.933	1	4
559.103	1	16
559.273	1	-5
559.443	1	16
559.613	1	0
559.783	1	1
559.953	1	7
560.122	1	11
560.292	1	20
560.462	1	9
560.632	1	-1
560.802	1	6
560.972	1	1
561.142	1	8
561.312	1	7
561.482	1	10
561.652	1	4
561.822	1	-1
561.992	1	4
562.162	1	15
562.331	1	21
562.501	1	3
562.671	1	23
562.841	1	0
563.011	1	15
563.181	1	6
563.351	1	14
563.521	1	7
563.691	1	6
563.861	1	22
564.031	1	2
564.201	1	9
564.370	1	11
564.540	1	14
564.710	1	11
564.880	1	6
565.050	1	21
565.220	1	9
565.390	1	9
565.560	1	21
565.730	1	11
565.900	1	10
566.069	1	11
566.239	1	10
566.409	1	5
566.579	1	16
566.749	1	6
566.919	1	14
567.089	1	3
567.259	1	17
567.429	1	10
567.599	1	11
567.768	1	6
567.938	1	4
568.108	1	10
568.278	1	19
568.448	1	16
568.618	1	12
568.788	1	15
568.958	1	6
569.128	1	22
569.297	1	2
569.467	1	-1
569.637	1	7
569.807	1	17
569.977	1	9
570.147	1	8
570.317	1	7
570.487	1	-3
570.656	1	4
570.826	1	6
570.996	1	2
571.166	1	14
571.336	1	4
571.506	1	5
571.676	1	22
571.846	1	8
572.015	1	3
572.185	1	11
572.355	1	3
572.525	1	-10
572.695	1	9
572.865	1	-3
573.035	1	25
573.205	1	14
573.374	1	10
573.544	1	17
573.714	1	6
573.884	1	17
574.054	1	12
574.224	1	4
574.394	1	2
574.563	1	11
574.733	1	8
574.903	1	11
575.073	1	6
575.243	1	10
575.413	1	8
575.583	1	14
575.752	1	2
575.922	1	-1
576.092	1	-4
576.262	1	5
576.432	1	6
576.602	1	6
576.772	1	4
576.941	1	3
577.111	1	16
577.281	1	7
577.451	1	12
577.621	1	9
577.791	1	8
577.960	1	12
578.130	1	-2
578.300	1	-4
578.470	1	8
578.640	1	11
578.810	1	6
578.979	1	8
579.149	1	8
579.319	1	9
579.489	1	-2
579.659	1	4
579.829	1	6
579.998	1	4
580.168	1	6
580.338	1	11
580.508	1	17
580.678	1	16
580.848	1	6
581.017	1	27
581.187	1	16
581.357	1	4
581.527	1	5
581.697	1	8
581.867	1	3
582.036	1	8
582.206	1	10
582.376	1	3
582.546	1	7
582.716	1	-3
582.885	1	-4
583.055	1	5
583.225	1	3
583.395	1	17
583.565	1	5
583.735	1	14
583.904	1	4
584.074	1	6
584.244	1	-5
584.414	1	9
584.584	1	3
584.753	1	14
584.923	1	7
585.093	1	12
585.263	1	4
585.433	1	12
585.602	1	13
585.772	1	1
585.942	1	11
586.112	1	11
586.282	1	4
586.451	1	16
586.621	1	15
586.791	1	4
586.961	1	4
587.131	1	1
587.300	1	16
587.470	1	3
587.640	1	18
587.810	1	15
587.980	1	6
588.149	1	12
588.319	1	10
588.489	1	6
588.659	1	5
588.829	1	17
588.998	1	11
589.168	1	14
589.338	1	4
589.508	1	12
589.677	1	16
589.847	1	5
590.017	1	-2
590.187	1	12
590.357	1	18
590.526	1	17
590.696	1	2
590.866	1	3
591.036	1	13
591.205	1	16
591.375	1	9
591.545	1	14
591.715	1	11
591.885	1	7
592.054	1	7
592.224	1	10
592.394	1	0
592.564	1	14
592.733	1	-3
592.903	1	8
593.073	1	2
593.243	1	16
593.412	1	6
593.582	1	5
593.752	1	5
593.922	1	8
594.091	1	0
594.261	1	8
594.431	1	16
594.601	1	-3
594.771	1	14
594.940	1	18
595.110	1	10
595.280	1	5
595.450	1	18
595.619	1	5
595.789	1	16
595.959	1	13
596.129	1	9
596.298	1	20
596.468	1	-1
596.638	1	13
596.808	1	10
596.977	1	11
597.147	1	5
597.317	1	-1
597.487	1	8
597.656	1	6
597.826	1	13
597.996	1	6
598.166	1	15
598.335	1	6
598.505	1	15
598.675	1	6
598.844	1	1
599.014	1	8
599.184	1	9
599.354	1	9
599.523	1	8
599.693	1	14
599.863	1	13
600.033	1	3
600.202	1	21
600.372	1	1
600.542	1	4
600.712	1	10
600.881	1	6
601.051	1	0
601.221	1	13
601.390	1	-4
601.560	1	18
601.730	1	11
601.900	1	16
602.069	1	11
602.239	1	10
602.409	1	7
602.578	1	0
602.748	1	12
602.918	1	2
603.088	1	19
603.257	1	18
603.427	1	19
603.597	1	16
603.767	1	2
603.936	1	5
604.106	1	8
604.276	1	20
604.445	1	11
604.615	1	10
604.785	1	17
604.954	1	20
605.124	1	1
605.294	1	16
605.464	1	12
605.633	1	9
605.803	1	15
605.973	1	27
606.142	1	4
606.312	1	9
606.482	1	11
606.652	1	7
606.821	1	7
606.991	1	4
607.161	1	3
607.330	1	3
607.500	1	18
607.670	1	19
607.839	1	13
608.009	1	9
608.179	1	13
608.348	1	13
608.518	1	3
608.688	1	11
608.858	1	17
609.027	1	17
609.197	1	-4
609.367	1	11
609.536	1	13
609.706	1	16
609.876	1	21
610.045	1	15
610.215	1	11
610.385	1	13
610.554	1	11
610.724	1	-7
610.894	1	13
611.063	1	-5
611.233	1	14
611.403	1	6
611.572	1	8
611.742	1	10
611.912	1	7
612.081	1	3
612.251	1	20
612.421	1	11
612.590	1	9
612.760	1	15
612.930	1	6
613.099	1	9
613.269	1	8
613.439	1	5
613.608	1	16
613.778	1	6
613.948	1	8
614.117	1	21
614.287	1	13
614.457	1	1
614.626	1	10
614.796	1	6
614.966	1	10
615.135	1	17
615.305	1	17
615.475	1	18
615.644	1	15
615.814	1	3
615.984	1	4
616.153	1	11
616.323	1	12
616.493	1	34
616.662	1	7
616.832	1	20
617.002	1	14
617.171	1	11
617.341	1	1
617.511	1	11
617.680	1	17
617.850	1	9
618.019	1	2
618.189	1	15
618.359	1	-2
618.528	1	13
618.698	1	19
618.868	1	11
619.037	1	24
619.207	1	11
619.377	1	15
619.546	1	9
619.716	1	14
619.885	1	5
620.055	1	8
620.225	1	18
620.394	1	12
620.564	1	10
620.734	1	19
620.903	1	2
621.073	1	7
621.242	1	13
621.412	1	6
621.582	1	16
621.751	1	22
621.921	1	12
622.091	1	13
622.260	1	3
622.430	1	8
622.599	1	0
622.769	1	7
622.939	1	10
623.108	1	14
623.278	1	14
623.448	1	8
623.617	1	18
623.787	1	22
623.956	1	19
624.126	1	12
624.296	1	5
624.465	1	17
624.635	1	21
624.804	1	9
624.974	1	13
625.144	1	8
625.313	1	14
625.483	1	22
625.652	1	12
625.822	1	8
625.992	1	10
626.161	1	18
626.331	1	10
626.501	1	11
626.670	1	7
626.840	1	15
627.009	1	20
627.179	1	20
627.348	1	14
627.518	1	16
627.688	1	16
627.857	1	13
628.027	1	4
628.196	1	5
628.366	1	5
628.536	1	13
628.705	1	16
628.875	1	17
629.044	1	15
629.214	1	7
629.384	1	14
629.553	1	19
629.723	1	1
629.892	1	19
630.062	1	7
630.232	1	24
630.401	1	17
630.571	1	19
630.740	1	11
630.910	1	12
631.079	1	16
631.249	1	17
631.419	1	9
631.588	1	3
631.758	1	20
631.927	1	14
632.097	1	7
632.266	1	5
632.436	1	17
632.606	1	14
632.775	1	26
632.945	1	13
633.114	1	12
633.284	1	9
633.453	1	11
633.623	1	12
633.793	1	5
633.962	1	14
634.132	1	9
634.301	1	26
634.471	1	10
634.640	1	7
634.810	1	14
634.979	1	17
635.149	1	17
635.319	1	22
635.488	1	20
635.658	1	15
635.827	1	20
635.997	1	17
636.166	1	9
636.336	1	18
636.505	1	12
636.675	1	26
636.845	1	10
637.014	1	11
637.184	1	9
637.353	1	14
637.523	1	19
637.692	1	20
637.862	1	14
638.031	1	19
638.201	1	20
638.370	1	12
638.540	1	7
638.710	1	20
638.879	1	10
639.049	1	20
639.218	1	21
639.388	1	20
639.557	1	15
639.727	1	22
639.896	1	12
640.066	1	19
640.235	1	16
640.405	1	11
640.574	1	16
640.744	1	22
640.914	1	17
641.083	1	19
641.253	1	26
641.422	1	10
641.592	1	10
641.761	1	11
641.931	1	7
642.100	1	16
642.270	1	9
642.439	1	5
642.609	1	23
642.778	1	8
642.948	1	10
643.117	1	19
643.287	1	21
643.456	1	16
643.626	1	20
643.795	1	20
643.965	1	13
644.134	1	24
644.304	1	18
644.473	1	19
644.643	1	15
644.812	1	24
644.982	1	20
645.151	1	16
645.321	1	12
645.490	1	13
645.660	1	4
645.829	1	17
645.999	1	21
646.168	1	12
646.338	1	12
646.507	1	17
646.677	1	16
646.846	1	12
647.016	1	24
647.185	1	7
647.355	1	13
647.524	1	22
647.694	1	12
647.863	1	13
648.033	1	9
648.202	1	15
648.372	1	34
648.541	1	12
648.711	1	14
648.880	1	6
649.050	1	14
649.219	1	6
649.389	1	23
649.558	1	8
649.728	1	11
649.897	1	18
650.067	1	21
650.236	1	30
650.406	1	5
650.575	1	19
650.745	1	13
650.914	1	10
651.084	1	9
651.253	1	24
651.423	1	10
651.592	1	15
651.762	1	22
651.931	1	13
652.101	1	15
652.270	1	21
652.440	1	8
652.609	1	17
652.778	1	3
652.948	1	22
653.117	1	6
653.287	1	27
653.456	1	19
653.626	1	4
653.795	1	15
653.965	1	20
654.134	1	18
654.304	1	10
654.473	1	15
654.643	1	15
654.812	1	8
654.982	1	10
655.151	1	10
655.320	1	13
655.490	1	21
655.659	1	13
655.829	1	20
655.998	1	15
656.168	1	8
656.337	1	22
656.507	1	12
656.676	1	15
656.846	1	9
657.015	1	13
657.184	1	26
657.354	1	13
657.523	1	13
657.693	1	16
657.862	1	19
658.032	1	21
658.201	1	17
658.371	1	14
658.540	1	0
658.709	1	18
658.879	1	-8
659.048	1	6
659.218	1	23
659.387	1	8
659.557	1	14
659.726	1	27
659.895	1	10
660.065	1	14
660.234	1	15
660.404	1	19
660.573	1	21
660.743	1	19
660.912	1	10
661.081	1	23
661.251	1	17
661.420	1	20
661.590	1	13
661.759	1	9
661.929	1	11
662.098	1	10
662.267	1	3
662.437	1	13
662.606	1	24
662.776	1	17
662.945	1	11
663.115	1	21
663.284	1	21
663.453	1	5
663.623	1	19
663.792	1	25
663.962	1	14
664.131	1	4
664.300	1	14
664.470	1	24
664.639	1	11
664.809	1	6
664.978	1	17
665.148	1	17
665.317	1	10
665.486	1	12
665.656	1	17
665.825	1	16
665.995	1	13
666.164	1	4
666.333	1	15
666.503	1	7
666.672	1	18
666.842	1	7
667.011	1	21
667.180	1	20
667.350	1	22
667.519	1	19
667.689	1	12
667.858	1	27
668.027	1	26
668.197	1	24
668.366	1	12
668.536	1	17
668.705	1	14
668.874	1	16
669.044	1	28
669.213	1	15
669.382	1	13
669.552	1	30
669.721	1	17
669.891	1	15
670.060	1	16
670.229	1	10
670.399	1	17
670.568	1	5
670.738	1	5
670.907	1	21
671.076	1	15
671.246	1	22
671.415	1	24
671.584	1	7
671.754	1	13
671.923	1	12
672.093	1	23
672.262	1	24
672.431	1	8
672.601	1	14
672.770	1	14
672.939	1	6
673.109	1	21
673.278	1	22
673.448	1	17
673.617	1	8
673.786	1	18
