325.333	1	12
325.504	1	4
325.675	1	4
325.846	1	-4
326.017	1	1
326.188	1	10
326.359	1	10
326.531	1	-3
326.702	1	11
326.873	1	12
327.044	1	3
327.215	1	6
327.386	1	8
327.557	1	-7
327.728	1	8
327.899	1	3
328.070	1	12
328.241	1	1
328.412	1	9
328.583	1	1
328.754	1	-3
328.926	1	-1
329.097	1	0
329.268	1	0
329.439	1	4
329.610	1	4
329.781	1	1
329.952	1	8
330.123	1	-4
330.294	1	-2
330.465	1	6
330.636	1	7
330.807	1	-1
330.978	1	6
331.149	1	13
331.320	1	8
331.492	1	7
331.663	1	8
331.834	1	7
332.005	1	8
332.176	1	14
332.347	1	20
332.518	1	5
332.689	1	0
332.860	1	5
333.031	1	-7
333.202	1	-9
333.373	1	9
333.544	1	5
333.715	1	13
333.886	1	0
334.057	1	8
334.228	1	12
334.399	1	11
334.570	1	3
334.741	1	12
334.912	1	14
335.084	1	2
335.255	1	4
335.426	1	0
335.597	1	12
335.768	1	18
335.939	1	5
336.110	1	8
336.281	1	14
336.452	1	3
336.623	1	9
336.794	1	6
336.965	1	-9
337.136	1	-1
337.307	1	-1
337.478	1	6
337.649	1	4
337.820	1	14
337.991	1	6
338.162	1	0
338.333	1	-3
338.504	1	5
338.675	1	1
338.846	1	1
339.017	1	15
339.188	1	10
339.359	1	14
339.530	1	15
339.701	1	5
339.872	1	17
340.043	1	-9
340.214	1	-1
340.385	1	7
340.556	1	5
340.727	1	8
340.898	1	2
341.069	1	10
341.240	1	7
341.411	1	-2
341.582	1	18
341.753	1	-3
341.924	1	-2
342.095	1	7
342.266	1	11
342.437	1	14
342.608	1	22
342.779	1	5
342.950	1	0
343.121	1	14
343.292	1	0
343.463	1	-1
343.634	1	-3
343.805	1	5
343.976	1	8
344.147	1	7
344.318	1	6
344.489	1	3
344.660	1	7
344.831	1	12
345.002	1	4
345.173	1	1
345.344	1	9
345.515	1	-2
345.686	1	12
345.857	1	1
346.028	1	5
346.199	1	-1
346.370	1	7
346.541	1	2
346.712	1	1
346.883	1	6
347.054	1	7
347.225	1	8
347.396	1	2
347.567	1	15
347.738	1	5
347.909	1	8
348.080	1	-2
348.251	1	13
348.422	1	9
348.593	1	3
348.764	1	-7
348.935	1	4
349.106	1	4
349.277	1	-2
349.448	1	6
349.619	1	2
349.790	1	16
349.961	1	6
350.132	1	11
350.303	1	9
350.474	1	4
350.645	1	12
350.816	1	7
350.987	1	22
351.157	1	16
351.328	1	11
351.499	1	0
351.670	1	2
351.841	1	5
352.012	1	9
352.183	1	2
352.354	1	7
352.525	1	7
352.696	1	22
352.867	1	0
353.038	1	4
353.209	1	-6
353.380	1	-2
353.551	1	-7
353.722	1	8
353.893	1	2
354.064	1	5
354.235	1	4
354.406	1	12
354.576	1	5
354.747	1	8
354.918	1	9
355.089	1	8
355.260	1	15
355.431	1	3
355.602	1	7
355.773	1	3
355.944	1	-6
356.115	1	10
356.286	1	11
356.457	1	6
356.628	1	3
356.799	1	-2
356.970	1	4
357.141	1	-2
357.311	1	7
357.482	1	0
357.653	1	8
357.824	1	11
357.995	1	-5
358.166	1	1
358.337	1	10
358.508	1	9
358.679	1	3
358.850	1	11
359.021	1	7
359.192	1	13
359.363	1	1
359.533	1	-2
359.704	1	8
359.875	1	11
360.046	1	10
360.217	1	10
360.388	1	-2
360.559	1	2
360.730	1	3
360.901	1	6
361.072	1	13
361.243	1	8
361.414	1	1
361.584	1	-1
361.755	1	-1
361.926	1	6
362.097	1	6
362.268	1	0
362.439	1	7
362.610	1	-1
362.781	1	3
362.952	1	14
363.123	1	1
363.293	1	1
363.464	1	7
363.635	1	4
363.806	1	0
363.977	1	11
364.148	1	1
364.319	1	2
364.490	1	11
364.661	1	5
364.832	1	1
365.002	1	6
365.173	1	-2
365.344	1	15
365.515	1	-7
365.686	1	-4
365.857	1	0
366.028	1	8
366.199	1	1
366.370	1	9
366.540	1	4
366.711	1	-5
366.882	1	1
367.053	1	4
367.224	1	6
367.395	1	1
367.566	1	2
367.737	1	8
367.908	1	2
368.078	1	11
368.249	1	10
368.420	1	6
368.591	1	13
368.762	1	-2
368.933	1	0
369.104	1	21
369.274	1	-3
369.445	1	13
369.616	1	8
369.787	1	12
369.958	1	0
370.129	1	-13
370.300	1	4
370.471	1	5
370.641	1	1
370.812	1	-2
370.983	1	4
371.154	1	3
371.325	1	6
371.496	1	0
371.667	1	-5
371.837	1	8
372.008	1	-3
372.179	1	-6
372.350	1	-3
372.521	1	3
372.692	1	5
372.863	1	0
373.033	1	1
373.204	1	-2
373.375	1	2
373.546	1	21
373.717	1	-2
373.888	1	2
374.059	1	9
374.229	1	-4
374.400	1	13
374.571	1	0
374.742	1	9
374.913	1	5
375.084	1	5
375.254	1	-3
375.425	1	-6
375.596	1	4
375.767	1	3
375.938	1	5
376.109	1	4
376.279	1	-7
376.450	1	10
376.621	1	2
376.792	1	2
376.963	1	0
377.134	1	3
377.304	1	11
377.475	1	6
377.646	1	-4
377.817	1	2
377.988	1	4
378.159	1	11
378.329	1	5
378.500	1	9
378.671	1	4
378.842	1	2
379.013	1	4
379.184	1	-5
379.354	1	-7
379.525	1	0
379.696	1	7
379.867	1	8
380.038	1	12
380.209	1	4
380.379	1	3
380.550	1	8
380.721	1	6
380.892	1	-1
381.063	1	10
381.233	1	7
381.404	1	3
381.575	1	5
381.746	1	16
381.917	1	9
382.087	1	14
382.258	1	15
382.429	1	-6
382.600	1	10
382.771	1	-2
382.941	1	13
383.112	1	1
383.283	1	16
383.454	1	8
383.625	1	2
383.795	1	7
383.966	1	-6
384.137	1	10
384.308	1	-7
384.479	1	8
384.649	1	8
384.820	1	13
384.991	1	4
385.162	1	13
385.333	1	3
385.503	1	-2
385.674	1	-8
385.845	1	17
386.016	1	11
386.187	1	3
386.357	1	10
386.528	1	1
386.699	1	10
386.870	1	-3
387.041	1	21
387.211	1	-3
387.382	1	-2
387.553	1	9
387.724	1	17
387.894	1	12
388.065	1	0
388.236	1	7
388.407	1	4
388.578	1	0
388.748	1	-1
388.919	1	5
389.090	1	16
389.261	1	3
389.431	1	3
389.602	1	20
389.773	1	9
389.944	1	14
390.114	1	15
390.285	1	-1
390.456	1	-9
390.627	1	12
390.798	1	4
390.968	1	20
391.139	1	1
391.310	1	5
391.481	1	19
391.651	1	11
391.822	1	9
391.993	1	8
392.164	1	8
392.334	1	-1
392.505	1	17
392.676	1	19
392.847	1	9
393.017	1	8
393.188	1	15
393.359	1	7
393.530	1	9
393.700	1	-6
393.871	1	11
394.042	1	10
394.213	1	-4
394.383	1	6
394.554	1	18
394.725	1	7
394.896	1	2
395.066	1	6
395.237	1	9
395.408	1	6
395.579	1	-1
395.749	1	9
395.920	1	2
396.091	1	16
396.262	1	-6
396.432	1	6
396.603	1	6
396.774	1	4
396.945	1	10
397.115	1	3
397.286	1	-7
397.457	1	11
397.627	1	-5
397.798	1	11
397.969	1	15
398.140	1	11
398.310	1	14
398.481	1	9
398.652	1	-8
398.823	1	8
398.993	1	13
399.164	1	0
399.335	1	1
399.505	1	0
399.676	1	11
399.847	1	15
400.018	1	18
400.188	1	5
400.359	1	5
400.530	1	1
400.700	1	8
400.871	1	-3
401.042	1	13
401.213	1	3
401.383	1	11
401.554	1	16
401.725	1	3
401.895	1	11
402.066	1	-1
402.237	1	18
402.408	1	10
402.578	1	1
402.749	1	6
402.920	1	4
403.090	1	-6
403.261	1	11
403.432	1	14
403.603	1	7
403.773	1	16
403.944	1	24
404.115	1	2
404.285	1	7
404.456	1	3
404.627	1	9
404.797	1	1
404.968	1	9
405.139	1	11
405.310	1	12
405.480	1	10
405.651	1	-8
405.822	1	10
405.992	1	1
406.163	1	25
406.334	1	8
406.504	1	15
406.675	1	26
406.846	1	14
407.016	1	18
407.187	1	1
407.358	1	11
407.528	1	5
407.699	1	1
407.870	1	12
408.041	1	20
408.211	1	10
408.382	1	12
408.553	1	17
408.723	1	9
408.894	1	-4
409.065	1	0
409.235	1	16
409.406	1	1
409.577	1	5
409.747	1	1
409.918	1	3
410.089	1	15
410.259	1	4
410.430	1	15
410.601	1	1
410.771	1	8
410.942	1	4
411.113	1	5
411.283	1	19
411.454	1	9
411.625	1	11
411.795	1	-1
411.966	1	31
412.137	1	11
412.307	1	8
412.478	1	3
412.649	1	3
412.819	1	4
412.990	1	11
413.161	1	18
413.331	1	10
413.502	1	8
413.672	1	19
413.843	1	3
414.014	1	14
414.184	1	17
414.355	1	19
414.526	1	8
414.696	1	13
414.867	1	19
415.038	1	11
415.208	1	16
415.379	1	14
415.550	1	13
415.720	1	2
415.891	1	14
416.062	1	7
416.232	1	5
416.403	1	7
416.573	1	12
416.744	1	3
416.915	1	19
417.085	1	11
417.256	1	10
417.427	1	6
417.597	1	19
417.768	1	18
417.939	1	14
418.109	1	10
418.280	1	-2
418.450	1	14
418.621	1	10
418.792	1	2
418.962	1	10
419.133	1	10
419.304	1	7
419.474	1	5
419.645	1	7
419.815	1	7
419.986	1	16
420.157	1	9
420.327	1	9
420.498	1	10
420.669	1	4
420.839	1	4
421.010	1	9
421.180	1	11
421.351	1	18
421.522	1	-2
421.692	1	18
421.863	1	20
422.033	1	7
422.204	1	6
422.375	1	-1
422.545	1	15
422.716	1	4
422.886	1	2
423.057	1	19
423.228	1	5
423.398	1	13
423.569	1	6
423.740	1	11
423.910	1	11
424.081	1	7
424.251	1	5
424.422	1	6
424.593	1	14
424.763	1	20
424.934	1	13
425.104	1	11
425.275	1	20
425.445	1	-5
425.616	1	15
425.787	1	6
425.957	1	8
426.128	1	8
426.298	1	21
426.469	1	7
426.640	1	8
426.810	1	15
426.981	1	12
427.151	1	14
427.322	1	13
427.493	1	4
427.663	1	14
427.834	1	7
428.004	1	-3
428.175	1	21
428.345	1	16
428.516	1	6
428.687	1	12
428.857	1	1
429.028	1	2
429.198	1	18
429.369	1	20
429.540	1	18
429.710	1	11
429.881	1	6
430.051	1	10
430.222	1	3
430.392	1	7
430.563	1	8
430.734	1	12
430.904	1	11
431.075	1	14
431.245	1	11
431.416	1	20
431.586	1	-3
431.757	1	11
431.927	1	14
432.098	1	0
432.269	1	11
432.439	1	17
432.610	1	20
432.780	1	8
432.951	1	10
433.121	1	18
433.292	1	9
433.462	1	13
433.633	1	4
433.804	1	9
433.974	1	14
434.145	1	0
434.315	1	2
434.486	1	19
434.656	1	15
434.827	1	8
434.997	1	-1
435.168	1	16
435.339	1	3
435.509	1	9
435.680	1	11
435.850	1	7
436.021	1	19
436.191	1	4
436.362	1	11
436.532	1	11
436.703	1	13
436.873	1	11
437.044	1	7
437.214	1	1
437.385	1	20
437.556	1	14
437.726	1	13
437.897	1	7
438.067	1	0
438.238	1	-2
438.408	1	10
438.579	1	15
438.749	1	-1
438.920	1	10
439.090	1	11
439.261	1	13
439.431	1	9
439.602	1	7
439.772	1	15
439.943	1	7
440.113	1	13
440.284	1	8
440.455	1	9
440.625	1	19
440.796	1	22
440.966	1	2
441.137	1	-3
441.307	1	9
441.478	1	9
441.648	1	6
441.819	1	16
441.989	1	15
442.160	1	-7
442.330	1	5
442.501	1	11
442.671	1	5
442.842	1	18
443.012	1	11
443.183	1	5
443.353	1	21
443.524	1	-7
443.694	1	8
443.865	1	7
444.035	1	-3
444.206	1	9
444.376	1	8
444.547	1	26
444.717	1	-2
444.888	1	7
445.058	1	22
445.229	1	0
445.399	1	5
445.570	1	-5
445.740	1	8
445.911	1	13
446.081	1	18
446.252	1	9
446.422	1	14
446.593	1	0
446.763	1	3
446.934	1	8
447.104	1	6
447.275	1	10
447.445	1	12
447.616	1	11
447.786	1	5
447.957	1	7
448.127	1	11
448.298	1	13
448.468	1	0
448.639	1	12
448.809	1	9
448.979	1	-2
449.150	1	5
449.320	1	10
449.491	1	8
449.661	1	18
449.832	1	7
450.002	1	8
450.173	1	5
450.343	1	9
450.514	1	3
450.684	1	2
450.855	1	4
451.025	1	5
451.196	1	5
451.366	1	9
451.537	1	11
451.707	1	16
451.878	1	-3
452.048	1	7
452.218	1	11
452.389	1	6
452.559	1	-1
452.730	1	9
452.900	1	9
453.071	1	9
453.241	1	18
453.412	1	4
453.582	1	7
453.753	1	0
453.923	1	13
454.093	1	14
454.264	1	4
454.434	1	14
454.605	1	13
454.775	1	13
454.946	1	16
455.116	1	10
455.287	1	-4
455.457	1	14
455.628	1	7
455.798	1	13
455.968	1	14
456.139	1	5
456.309	1	3
456.480	1	10
456.650	1	24
456.821	1	19
456.991	1	1
457.161	1	2
457.332	1	11
457.502	1	1
457.673	1	5
457.843	1	-4
458.014	1	15
458.184	1	6
458.355	1	-5
458.525	1	9
458.695	1	6
458.866	1	6
459.036	1	14
459.207	1	6
459.377	1	13
459.548	1	4
459.718	1	12
459.888	1	11
460.059	1	7
460.229	1	-2
460.400	1	14
460.570	1	8
460.740	1	8
460.911	1	3
461.081	1	4
461.252	1	11
461.422	1	1
461.593	1	-9
461.763	1	11
461.933	1	1
462.104	1	9
462.274	1	9
462.445	1	-2
462.615	1	8
462.785	1	-3
462.956	1	2
463.126	1	-3
463.297	1	14
463.467	1	12
463.638	1	-5
463.808	1	1
463.978	1	9
464.149	1	14
464.319	1	-1
464.490	1	9
464.660	1	6
464.830	1	3
465.001	1	10
465.171	1	7
465.342	1	8
465.512	1	14
465.682	1	13
465.853	1	8
466.023	1	6
466.194	1	6
466.364	1	9
466.534	1	9
466.705	1	19
466.875	1	5
467.045	1	0
467.216	1	9
467.386	1	6
467.557	1	4
467.727	1	-1
467.897	1	1
468.068	1	11
468.238	1	0
468.409	1	10
468.579	1	9
468.749	1	16
468.920	1	7
469.090	1	16
469.260	1	2
469.431	1	-3
469.601	1	1
469.772	1	2
469.942	1	11
470.112	1	10
470.283	1	11
470.453	1	16
470.623	1	20
470.794	1	7
470.964	1	-2
471.135	1	4
471.305	1	1
471.475	1	0
471.646	1	5
471.816	1	5
471.986	1	1
472.157	1	13
472.327	1	4
472.497	1	-2
472.668	1	3
472.838	1	-1
473.009	1	14
473.179	1	4
473.349	1	12
473.520	1	5
473.690	1	8
473.860	1	12
474.031	1	3
474.201	1	12
474.371	1	4
474.542	1	18
474.712	1	0
474.882	1	11
475.053	1	18
475.223	1	7
475.394	1	6
475.564	1	-4
475.734	1	3
475.905	1	-5
476.075	1	-5
476.245	1	11
476.416	1	-1
476.586	1	12
476.756	1	10
476.927	1	14
477.097	1	-1
477.267	1	16
477.438	1	-8
477.608	1	6
477.778	1	14
477.949	1	9
478.119	1	6
478.289	1	7
478.460	1	16
478.630	1	-1
478.800	1	-2
478.971	1	7
479.141	1	-1
479.311	1	6
479.482	1	0
479.652	1	7
479.822	1	5
479.993	1	4
480.163	1	-10
480.333	1	12
480.504	1	9
480.674	1	-4
480.844	1	2
481.015	1	-4
481.185	1	3
481.355	1	-3
481.525	1	8
481.696	1	8
481.866	1	6
482.036	1	1
482.207	1	2
482.377	1	4
482.547	1	1
482.718	1	1
482.888	1	3
483.058	1	13
483.229	1	9
483.399	1	4
483.569	1	4
483.740	1	5
483.910	1	5
484.080	1	7
484.250	1	11
484.421	1	-1
484.591	1	-6
484.761	1	5
484.932	1	11
485.102	1	1
485.272	1	4
485.443	1	3
485.613	1	1
485.783	1	-3
485.953	1	-3
486.124	1	-14
486.294	1	13
486.464	1	8
486.635	1	4
486.805	1	-6
486.975	1	-2
487.146	1	-1
487.316	1	11
487.486	1	7
487.656	1	-5
487.827	1	10
487.997	1	5
488.167	1	-1
488.338	1	-8
488.508	1	5
488.678	1	0
488.848	1	6
489.019	1	11
489.189	1	4
489.359	1	6
489.529	1	-10
489.700	1	-1
489.870	1	4
490.040	1	2
490.211	1	3
490.381	1	-5
490.551	1	4
490.721	1	0
490.892	1	12
491.062	1	17
491.232	1	-10
491.402	1	-1
491.573	1	4
491.743	1	-10
491.913	1	14
492.084	1	-9
492.254	1	14
492.424	1	6
492.594	1	6
492.765	1	7
492.935	1	7
493.105	1	8
493.275	1	7
493.446	1	8
493.616	1	-3
493.786	1	3
493.956	1	4
494.127	1	2
494.297	1	4
494.467	1	8
494.637	1	8
494.808	1	-14
494.978	1	3
495.148	1	7
495.318	1	7
495.489	1	-3
495.659	1	7
495.829	1	5
495.999	1	5
496.170	1	0
496.340	1	16
496.510	1	-2
496.680	1	-2
496.851	1	6
497.021	1	-4
497.191	1	0
497.361	1	-2
497.532	1	1
497.702	1	8
497.872	1	4
498.042	1	0
498.213	1	4
498.383	1	7
498.553	1	-7
498.723	1	-6
498.894	1	13
499.064	1	8
499.234	1	-2
499.404	1	-2
499.574	1	2
499.745	1	0
499.915	1	2
500.085	1	3
500.255	1	3
500.426	1	0
500.596	1	11
500.766	1	-6
500.936	1	-1
501.106	1	10
501.277	1	4
501.447	1	-4
501.617	1	-3
501.787	1	4
501.958	1	-2
502.128	1	5
502.298	1	10
502.468	1	8
502.638	1	-6
502.809	1	1
502.979	1	-7
503.149	1	8
503.319	1	6
503.489	1	5
503.660	1	1
503.830	1	0
504.000	1	4
504.170	1	6
504.340	1	12
504.511	1	11
504.681	1	12
504.851	1	1
505.021	1	10
505.192	1	-2
505.362	1	-2
505.532	1	-2
505.702	1	-1
505.872	1	5
506.043	1	-9
506.213	1	10
506.383	1	8
506.553	1	-3
506.723	1	8
506.893	1	-2
507.064	1	0
507.234	1	-9
507.404	1	9
507.574	1	-5
507.744	1	0
507.915	1	1
508.085	1	-1
508.255	1	9
508.425	1	-3
508.595	1	-6
508.766	1	-2
508.936	1	16
509.106	1	-8
509.276	1	2
509.446	1	1
509.616	1	-7
509.787	1	9
509.957	1	-6
510.127	1	2
510.297	1	13
510.467	1	7
510.638	1	-5
510.808	1	-13
510.978	1	6
511.148	1	8
511.318	1	-7
511.488	1	10
511.659	1	15
511.829	1	8
511.999	1	-2
512.169	1	-4
512.339	1	1
512.509	1	-1
512.680	1	-2
512.850	1	5
513.020	1	1
513.190	1	5
513.360	1	-1
513.530	1	10
513.700	1	-2
513.871	1	0
514.041	1	-4
514.211	1	-1
514.381	1	6
514.551	1	-14
514.721	1	-1
514.892	1	-4
515.062	1	3
515.232	1	7
515.402	1	3
515.572	1	4
515.742	1	8
515.912	1	-5
516.083	1	4
516.253	1	9
516.423	1	-6
516.593	1	2
516.763	1	14
516.933	1	7
517.104	1	-6
517.274	1	4
517.444	1	-3
517.614	1	3
517.784	1	-2
517.954	1	-2
518.124	1	2
518.294	1	-3
518.465	1	4
518.635	1	-3
518.805	1	6
518.975	1	-8
519.145	1	0
519.315	1	-11
519.485	1	1
519.656	1	9
519.826	1	-7
519.996	1	7
520.166	1	-1
520.336	1	1
520.506	1	9
520.676	1	16
520.846	1	-3
521.017	1	2
521.187	1	2
521.357	1	6
521.527	1	0
521.697	1	6
521.867	1	-4
522.037	1	4
522.207	1	7
522.377	1	9
522.548	1	1
522.718	1	6
522.888	1	9
523.058	1	4
523.228	1	-1
523.398	1	7
523.568	1	2
523.738	1	1
523.909	1	10
524.079	1	3
524.249	1	2
524.419	1	6
524.589	1	-1
524.759	1	4
524.929	1	-4
525.099	1	-8
525.269	1	-7
525.439	1	12
525.610	1	-11
525.780	1	8
525.950	1	9
526.120	1	-5
526.290	1	-1
526.460	1	8
526.630	1	-4
526.800	1	0
526.970	1	-2
527.140	1	12
527.311	1	5
527.481	1	3
527.651	1	7
527.821	1	-4
527.991	1	-4
528.161	1	-2
528.331	1	1
528.501	1	-8
528.671	1	8
528.841	1	10
529.011	1	2
529.181	1	8
529.352	1	11
529.522	1	-2
529.692	1	-9
529.862	1	-1
530.032	1	-8
530.202	1	12
530.372	1	-3
530.542	1	2
530.712	1	14
530.882	1	6
531.052	1	-6
531.222	1	3
531.392	1	1
531.563	1	-4
531.733	1	-3
531.903	1	10
532.073	1	1
532.243	1	6
532.413	1	-10
532.583	1	6
532.753	1	12
532.923	1	-2
533.093	1	5
533.263	1	3
533.433	1	5
533.603	1	3
533.773	1	7
533.943	1	-3
534.113	1	7
534.284	1	-4
534.454	1	0
534.624	1	4
534.794	1	4
534.964	1	10
535.134	1	2
535.304	1	7
535.474	1	-13
535.644	1	-3
535.814	1	5
535.984	1	3
536.154	1	-3
536.324	1	-8
536.494	1	0
536.664	1	5
536.834	1	5
537.004	1	-4
537.174	1	4
537.344	1	9
537.514	1	-10
537.685	1	8
537.855	1	-4
538.025	1	4
538.195	1	-1
538.365	1	14
538.535	1	-2
538.705	1	-6
538.875	1	0
539.045	1	-3
539.215	1	8
539.385	1	-7
539.555	1	-8
539.725	1	-12
539.895	1	4
540.065	1	-5
540.235	1	9
540.405	1	-2
540.575	1	6
540.745	1	-3
540.915	1	-1
541.085	1	2
541.255	1	7
541.425	1	-16
541.595	1	3
541.765	1	23
541.935	1	1
542.105	1	-4
542.275	1	7
542.445	1	-1
542.615	1	-6
542.785	1	-5
542.955	1	-3
543.125	1	-8
543.295	1	8
543.465	1	3
543.635	1	1
543.805	1	-5
543.975	1	-8
544.145	1	6
544.315	1	-9
544.485	1	12
544.655	1	-2
544.825	1	-2
544.995	1	8
545.165	1	6
545.335	1	1
545.505	1	-4
545.675	1	-5
545.845	1	11
546.015	1	3
546.185	1	10
546.355	1	-16
546.525	1	-7
546.695	1	-9
546.865	1	5
547.035	1	-3
547.205	1	5
547.375	1	3
547.545	1	0
547.715	1	-3
547.885	1	-9
548.055	1	0
548.225	1	3
548.395	1	-5
548.565	1	5
548.735	1	1
548.905	1	8
549.075	1	5
549.245	1	-2
549.415	1	0
549.585	1	4
549.755	1	8
549.925	1	-5
550.095	1	-4
550.265	1	8
550.435	1	2
550.605	1	-1
550.775	1	6
550.945	1	-3
551.115	1	11
551.285	1	-7
551.455	1	-4
551.625	1	-7
551.795	1	-3
551.965	1	2
552.135	1	1
552.305	1	0
552.475	1	0
552.645	1	7
552.815	1	-1
552.985	1	0
553.155	1	-7
553.325	1	-4
553.495	1	5
553.665	1	-4
553.835	1	6
554.004	1	12
554.174	1	-1
554.344	1	6
554.514	1	6
554.684	1	-8
554.854	1	-5
555.024	1	6
555.194	1	-5
555.364	1	11
555.534	1	-5
555.704	1	17
555.874	1	-8
556.044	1	4
556.214	1	3
556.384	1	0
556.554	1	-12
556.724	1	2
556.894	1	-8
557.064	1	12
557.234	1	-5
557.404	1	4
557.573	1	0
557.743	1	-2
557.913	1	4
558.083	1	0
558.253	1	-4
558.423	1	-2
558.593	1	5
558.763	1	0
558.933	1	1
559.103	1	2
559.273	1	3
559.443	1	3
559.613	1	-1
559.783	1	-2
559.953	1	-12
560.122	1	-6
560.292	1	3
560.462	1	2
560.632	1	-9
560.802	1	3
560.972	1	1
561.142	1	-7
561.312	1	-5
561.482	1	-6
561.652	1	-6
561.822	1	-14
561.992	1	-6
562.162	1	6
562.331	1	-1
562.501	1	4
562.671	1	7
562.841	1	-13
563.011	1	5
563.181	1	-1
563.351	1	2
563.521	1	3
563.691	1	-7
563.861	1	4
564.031	1	8
564.201	1	2
564.370	1	3
564.540	1	8
564.710	1	3
564.880	1	0
565.050	1	11
565.220	1	0
565.390	1	3
565.560	1	8
565.730	1	3
565.900	1	2
566.069	1	9
566.239	1	-2
566.409	1	-9
566.579	1	5
566.749	1	-2
566.919	1	-1
567.089	1	1
567.259	1	2
567.429	1	0
567.599	1	8
567.768	1	0
567.938	1	-3
568.108	1	-1
568.278	1	-1
568.448	1	-3
568.618	1	0
568.788	1	-4
568.958	1	0
569.128	1	0
569.297	1	0
569.467	1	-12
569.637	1	8
569.807	1	6
569.977	1	-16
570.147	1	7
570.317	1	0
570.487	1	-6
570.656	1	-9
570.826	1	-1
570.996	1	-8
571.166	1	5
571.336	1	0
571.506	1	7
571.676	1	9
571.846	1	-1
572.015	1	-1
572.185	1	11
572.355	1	-2
572.525	1	-9
572.695	1	-5
572.865	1	-15
573.035	1	15
573.205	1	1
573.374	1	6
573.544	1	1
573.714	1	-6
573.884	1	-1
574.054	1	-7
574.224	1	5
574.394	1	7
574.563	1	5
574.733	1	4
574.903	1	-4
575.073	1	3
575.243	1	4
575.413	1	-1
575.583	1	1
575.752	1	0
575.922	1	-8
576.092	1	-3
576.262	1	-2
576.432	1	-2
576.602	1	-10
576.772	1	11
576.941	1	1
577.111	1	0
577.281	1	-3
577.451	1	-3
577.621	1	-3
577.791	1	0
577.960	1	-2
578.130	1	-4
578.300	1	-11
578.470	1	1
578.640	1	2
578.810	1	-9
578.979	1	-1
579.149	1	3
579.319	1	-8
579.489	1	-12
579.659	1	-8
579.829	1	2
579.998	1	2
580.168	1	3
580.338	1	3
580.508	1	14
580.678	1	-3
580.848	1	2
581.017	1	11
581.187	1	3
581.357	1	-3
581.527	1	3
581.697	1	0
581.867	1	6
582.036	1	-6
582.206	1	5
582.376	1	6
582.546	1	-5
582.716	1	-3
582.885	1	-4
583.055	1	-4
583.225	1	-7
583.395	1	4
583.565	1	-5
583.735	1	4
583.904	1	4
584.074	1	-16
584.244	1	-15
584.414	1	-9
584.584	1	-9
584.753	1	0
584.923	1	2
585.093	1	3
585.263	1	6
585.433	1	1
585.602	1	1
585.772	1	-16
585.942	1	-8
586.112	1	0
586.282	1	0
586.451	1	-1
586.621	1	1
586.791	1	3
586.961	1	-2
587.131	1	-13
587.300	1	1
587.470	1	-5
587.640	1	1
587.810	1	7
587.980	1	4
588.149	1	1
588.319	1	4
588.489	1	2
588.659	1	1
588.829	1	5
588.998	1	-7
589.168	1	10
589.338	1	4
589.508	1	-4
589.677	1	7
589.847	1	9
590.017	1	-8
590.187	1	0
590.357	1	3
590.526	1	1
590.696	1	1
590.866	1	-2
591.036	1	10
591.205	1	3
591.375	1	-11
591.545	1	-2
591.715	1	-2
591.885	1	5
592.054	1	-7
592.224	1	2
592.394	1	-1
592.564	1	-1
592.733	1	-12
592.903	1	3
593.073	1	0
593.243	1	9
593.412	1	5
593.582	1	-4
593.752	1	-3
593.922	1	-9
594.091	1	-4
594.261	1	-1
594.431	1	13
594.601	1	-4
594.771	1	4
594.940	1	4
595.110	1	8
595.280	1	-2
595.450	1	1
595.619	1	-3
595.789	1	0
595.959	1	15
596.129	1	-5
596.298	1	1
596.468	1	-7
596.638	1	-5
596.808	1	0
596.977	1	7
597.147	1	1
597.317	1	-2
597.487	1	0
597.656	1	-7
597.826	1	1
597.996	1	12
598.166	1	-5
598.335	1	5
598.505	1	5
598.675	1	-8
598.844	1	-5
599.014	1	-2
599.184	1	8
599.354	1	2
599.523	1	-5
599.693	1	3
599.863	1	9
600.033	1	-2
600.202	1	-1
600.372	1	-7
600.542	1	2
600.712	1	1
600.881	1	-7
601.051	1	-3
601.221	1	3
601.390	1	-11
601.560	1	-2
601.730	1	5
601.900	1	8
602.069	1	3
602.239	1	4
602.409	1	-2
602.578	1	1
602.748	1	-1
602.918	1	-5
603.088	1	3
603.257	1	0
603.427	1	-5
603.597	1	3
603.767	1	5
603.936	1	-1
604.106	1	4
604.276	1	8
604.445	1	7
604.615	1	1
604.785	1	0
604.954	1	12
605.124	1	-10
605.294	1	-6
605.464	1	5
605.633	1	-5
605.803	1	5
605.973	1	8
606.142	1	5
606.312	1	0
606.482	1	2
606.652	1	-8
606.821	1	3
606.991	1	-1
607.161	1	-2
607.330	1	-11
607.500	1	0
607.670	1	14
607.839	1	17
608.009	1	-5
608.179	1	7
608.348	1	9
608.518	1	-2
608.688	1	-8
608.858	1	12
609.027	1	1
609.197	1	0
609.367	1	5
609.536	1	9
609.706	1	5
609.876	1	13
610.045	1	-10
610.215	1	7
610.385	1	-4
610.554	1	0
610.724	1	-13
610.894	1	6
611.063	1	3
611.233	1	7
611.403	1	5
611.572	1	2
611.742	1	4
611.912	1	5
612.081	1	-1
612.251	1	9
612.421	1	2
612.590	1	1
612.760	1	5
612.930	1	0
613.099	1	2
613.269	1	-8
613.439	1	-8
613.608	1	2
613.778	1	-1
613.948	1	4
614.117	1	16
614.287	1	9
614.457	1	-12
614.626	1	10
614.796	1	3
614.966	1	-1
615.135	1	5
615.305	1	13
615.475	1	-1
615.644	1	-3
615.814	1	-12
615.984	1	0
616.153	1	2
616.323	1	-2
616.493	1	24
616.662	1	-2
616.832	1	-3
617.002	1	0
617.171	1	-8
617.341	1	-4
617.511	1	12
617.680	1	10
617.850	1	2
618.019	1	2
618.189	1	8
618.359	1	4
618.528	1	3
618.698	1	4
618.868	1	-1
619.037	1	3
619.207	1	-2
619.377	1	-1
619.546	1	-2
619.716	1	6
619.885	1	-7
620.055	1	2
620.225	1	11
620.394	1	-3
620.564	1	8
620.734	1	6
620.903	1	5
621.073	1	-4
621.242	1	3
621.412	1	4
621.582	1	9
621.751	1	7
621.921	1	8
622.091	1	3
622.260	1	-1
622.430	1	-3
622.599	1	3
622.769	1	7
622.939	1	5
623.108	1	0
623.278	1	3
623.448	1	10
623.617	1	0
623.787	1	4
623.956	1	5
624.126	1	7
624.296	1	1
624.465	1	-5
624.635	1	5
624.804	1	-2
624.974	1	7
625.144	1	11
625.313	1	-3
625.483	1	11
625.652	1	8
625.822	1	2
625.992	1	0
626.161	1	13
626.331	1	1
626.501	1	8
626.670	1	7
626.840	1	7
627.009	1	6
627.179	1	11
627.348	1	12
627.518	1	8
627.688	1	-7
627.857	1	2
628.027	1	-7
628.196	1	-6
628.366	1	-4
628.536	1	8
628.705	1	5
628.875	1	9
629.044	1	5
629.214	1	7
629.384	1	3
629.553	1	1
629.723	1	-4
629.892	1	9
630.062	1	2
630.232	1	3
630.401	1	8
630.571	1	3
630.740	1	6
630.910	1	9
631.079	1	-3
631.249	1	7
631.419	1	-7
631.588	1	-2
631.758	1	5
631.927	1	9
632.097	1	2
632.266	1	4
632.436	1	8
632.606	1	1
632.775	1	10
632.945	1	9
633.114	1	-2
633.284	1	-6
633.453	1	0
633.623	1	5
633.793	1	-5
633.962	1	9
634.132	1	0
634.301	1	5
634.471	1	1
634.640	1	4
634.810	1	4
634.979	1	6
635.149	1	1
635.319	1	5
635.488	1	16
635.658	1	10
635.827	1	9
635.997	1	4
636.166	1	1
636.336	1	0
636.505	1	4
636.675	1	7
636.845	1	3
637.014	1	-1
637.184	1	2
637.353	1	1
637.523	1	15
637.692	1	17
637.862	1	3
638.031	1	12
638.201	1	9
638.370	1	11
638.540	1	0
638.710	1	12
638.879	1	2
639.049	1	9
639.218	1	8
639.388	1	6
639.557	1	8
639.727	1	6
639.896	1	4
640.066	1	10
640.235	1	13
640.405	1	-5
640.574	1	0
640.744	1	9
640.914	1	5
641.083	1	5
641.253	1	19
641.422	1	8
641.592	1	-3
641.761	1	10
641.931	1	4
642.100	1	0
642.270	1	3
642.439	1	6
642.609	1	8
642.778	1	-2
642.948	1	7
643.117	1	6
643.287	1	3
643.456	1	0
643.626	1	13
643.795	1	0
643.965	1	0
644.134	1	1
644.304	1	4
644.473	1	13
644.643	1	6
644.812	1	9
644.982	1	9
645.151	1	13
645.321	1	9
645.490	1	5
645.660	1	-4
645.829	1	1
645.999	1	6
646.168	1	1
646.338	1	5
646.507	1	20
646.677	1	1
646.846	1	-2
647.016	1	9
647.185	1	3
647.355	1	10
647.524	1	-4
647.694	1	9
647.863	1	2
648.033	1	3
648.202	1	4
648.372	1	12
648.541	1	-3
648.711	1	1
648.880	1	3
649.050	1	1
649.219	1	1
649.389	1	6
649.558	1	1
649.728	1	1
649.897	1	2
650.067	1	9
650.236	1	9
650.406	1	1
650.575	1	8
650.745	1	-7
650.914	1	4
651.084	1	2
651.253	1	0
651.423	1	7
651.592	1	13
651.762	1	7
651.931	1	1
652.101	1	-1
652.270	1	13
652.440	1	0
652.609	1	8
652.778	1	-10
652.948	1	6
653.117	1	-2
653.287	1	16
653.456	1	6
653.626	1	1
653.795	1	4
653.965	1	1
654.134	1	8
654.304	1	-1
654.473	1	10
654.643	1	0
654.812	1	5
654.982	1	5
655.151	1	5
655.320	1	1
655.490	1	3
655.659	1	3
655.829	1	21
655.998	1	-5
656.168	1	-2
656.337	1	16
656.507	1	0
656.676	1	16
656.846	1	-5
657.015	1	6
657.184	1	2
657.354	1	0
657.523	1	-6
657.693	1	-4
657.862	1	-1
658.032	1	-4
658.201	1	1
658.371	1	-1
658.540	1	0
658.709	1	2
658.879	1	-14
659.048	1	5
659.218	1	-5
659.387	1	-4
659.557	1	11
659.726	1	2
659.895	1	0
660.065	1	-8
660.234	1	-1
660.404	1	2
660.573	1	-5
660.743	1	7
660.912	1	6
661.081	1	14
661.251	1	4
661.420	1	-6
661.590	1	-3
661.759	1	2
661.929	1	5
662.098	1	1
662.267	1	1
662.437	1	0
662.606	1	10
662.776	1	8
662.945	1	0
663.115	1	8
663.284	1	5
663.453	1	-5
663.623	1	12
663.792	1	10
663.962	1	5
664.131	1	12
664.300	1	-9
664.470	1	11
664.639	1	-2
664.809	1	-5
664.978	1	-1
665.148	1	-2
665.317	1	3
665.486	1	5
665.656	1	5
665.825	1	-1
665.995	1	3
666.164	1	-5
666.333	1	13
666.503	1	3
666.672	1	6
666.842	1	-1
667.011	1	7
667.180	1	4
667.350	1	6
667.519	1	-1
667.689	1	-7
667.858	1	6
668.027	1	4
668.197	1	8
668.366	1	-4
668.536	1	5
668.705	1	7
668.874	1	1
669.044	1	10
669.213	1	7
669.382	1	10
669.552	1	12
669.721	1	7
669.891	1	0
670.060	1	11
670.229	1	1
670.399	1	15
670.568	1	-2
670.738	1	-5
670.907	1	1
671.076	1	-7
671.246	1	10
671.415	1	8
671.584	1	-1
671.754	1	2
671.923	1	4
672.093	1	8
672.262	1	8
672.431	1	-5
672.601	1	8
672.770	1	2
672.939	1	8
673.109	1	9
673.278	1	8
673.448	1	0
673.617	1	-3
673.786	1	4
