325.333	1	8
325.504	1	2
325.675	1	-4
325.846	1	7
326.017	1	12
326.188	1	8
326.359	1	9
326.531	1	2
326.702	1	6
326.873	1	4
327.044	1	13
327.215	1	10
327.386	1	5
327.557	1	5
327.728	1	6
327.899	1	20
328.070	1	17
328.241	1	7
328.412	1	11
328.583	1	5
328.754	1	2
328.926	1	7
329.097	1	-2
329.268	1	3
329.439	1	4
329.610	1	9
329.781	1	-5
329.952	1	19
330.123	1	3
330.294	1	10
330.465	1	-1
330.636	1	5
330.807	1	15
330.978	1	10
331.149	1	10
331.320	1	2
331.492	1	10
331.663	1	4
331.834	1	10
332.005	1	8
332.176	1	8
332.347	1	21
332.518	1	7
332.689	1	11
332.860	1	15
333.031	1	2
333.202	1	-7
333.373	1	12
333.544	1	15
333.715	1	12
333.886	1	1
334.057	1	11
334.228	1	4
334.399	1	14
334.570	1	10
334.741	1	8
334.912	1	8
335.084	1	2
335.255	1	2
335.426	1	7
335.597	1	6
335.768	1	16
335.939	1	15
336.110	1	8
336.281	1	10
336.452	1	13
336.623	1	11
336.794	1	12
336.965	1	9
337.136	1	10
337.307	1	13
337.478	1	5
337.649	1	16
337.820	1	12
337.991	1	12
338.162	1	8
338.333	1	9
338.504	1	9
338.675	1	5
338.846	1	2
339.017	1	10
339.188	1	4
339.359	1	18
339.530	1	17
339.701	1	8
339.872	1	11
340.043	1	0
340.214	1	7
340.385	1	0
340.556	1	6
340.727	1	9
340.898	1	13
341.069	1	9
341.240	1	9
341.411	1	4
341.582	1	20
341.753	1	15
341.924	1	4
342.095	1	8
342.266	1	10
342.437	1	12
342.608	1	21
342.779	1	9
342.950	1	15
343.121	1	12
343.292	1	7
343.463	1	11
343.634	1	-2
343.805	1	2
343.976	1	20
344.147	1	6
344.318	1	16
344.489	1	12
344.660	1	18
344.831	1	12
345.002	1	19
345.173	1	4
345.344	1	7
345.515	1	1
345.686	1	13
345.857	1	5
346.028	1	1
346.199	1	7
346.370	1	14
346.541	1	3
346.712	1	9
346.883	1	8
347.054	1	1
347.225	1	12
347.396	1	-2
347.567	1	21
347.738	1	6
347.909	1	19
348.080	1	11
348.251	1	9
348.422	1	5
348.593	1	11
348.764	1	0
348.935	1	12
349.106	1	7
349.277	1	6
349.448	1	6
349.619	1	4
349.790	1	15
349.961	1	12
350.132	1	12
350.303	1	11
350.474	1	7
350.645	1	-3
350.816	1	6
350.987	1	12
351.157	1	13
351.328	1	15
351.499	1	7
351.670	1	4
351.841	1	16
352.012	1	10
352.183	1	14
352.354	1	3
352.525	1	8
352.696	1	16
352.867	1	9
353.038	1	10
353.209	1	8
353.380	1	8
353.551	1	2
353.722	1	11
353.893	1	15
354.064	1	8
354.235	1	14
354.406	1	11
354.576	1	7
354.747	1	6
354.918	1	15
355.089	1	17
355.260	1	14
355.431	1	9
355.602	1	15
355.773	1	9
355.944	1	-1
356.115	1	9
356.286	1	15
356.457	1	6
356.628	1	5
356.799	1	8
356.970	1	13
357.141	1	6
357.311	1	15
357.482	1	5
357.653	1	5
357.824	1	11
357.995	1	9
358.166	1	-3
358.337	1	16
358.508	1	17
358.679	1	7
358.850	1	7
359.021	1	9
359.192	1	13
359.363	1	11
359.533	1	-1
359.704	1	22
359.875	1	11
360.046	1	13
360.217	1	5
360.388	1	11
360.559	1	14
360.730	1	10
360.901	1	7
361.072	1	12
361.243	1	8
361.414	1	9
361.584	1	-1
361.755	1	3
361.926	1	7
362.097	1	14
362.268	1	8
362.439	1	17
362.610	1	4
362.781	1	8
362.952	1	18
363.123	1	5
363.293	1	5
363.464	1	11
363.635	1	9
363.806	1	5
363.977	1	15
364.148	1	4
364.319	1	4
364.490	1	11
364.661	1	11
364.832	1	20
365.002	1	19
365.173	1	1
365.344	1	17
365.515	1	1
365.686	1	-1
365.857	1	16
366.028	1	2
366.199	1	13
366.370	1	12
366.540	1	6
366.711	1	18
366.882	1	5
367.053	1	5
367.224	1	9
367.395	1	-2
367.566	1	2
367.737	1	-2
367.908	1	4
368.078	1	17
368.249	1	6
368.420	1	12
368.591	1	9
368.762	1	-2
368.933	1	4
369.104	1	16
369.274	1	-3
369.445	1	6
369.616	1	4
369.787	1	14
369.958	1	2
370.129	1	3
370.300	1	12
370.471	1	4
370.641	1	9
370.812	1	-1
370.983	1	3
371.154	1	0
371.325	1	4
371.496	1	18
371.667	1	3
371.837	1	13
372.008	1	-4
372.179	1	2
372.350	1	-3
372.521	1	6
372.692	1	5
372.863	1	2
373.033	1	15
373.204	1	1
373.375	1	9
373.546	1	19
373.717	1	2
373.888	1	17
374.059	1	10
374.229	1	-2
374.400	1	5
374.571	1	13
374.742	1	0
374.913	1	14
375.084	1	16
375.254	1	18
375.425	1	5
375.596	1	12
375.767	1	14
375.938	1	6
376.109	1	9
376.279	1	1
376.450	1	13
376.621	1	7
376.792	1	10
376.963	1	4
377.134	1	16
377.304	1	9
377.475	1	10
377.646	1	5
377.817	1	-2
377.988	1	3
378.159	1	18
378.329	1	3
378.500	1	20
378.671	1	4
378.842	1	14
379.013	1	8
379.184	1	-5
379.354	1	7
379.525	1	6
379.696	1	20
379.867	1	-1
380.038	1	14
380.209	1	6
380.379	1	9
380.550	1	9
380.721	1	8
380.892	1	8
381.063	1	12
381.233	1	20
381.404	1	19
381.575	1	6
381.746	1	12
381.917	1	12
382.087	1	12
382.258	1	17
382.429	1	6
382.600	1	1
382.771	1	13
382.941	1	15
383.112	1	11
383.283	1	11
383.454	1	5
383.625	1	4
383.795	1	9
383.966	1	0
384.137	1	13
384.308	1	7
384.479	1	3
384.649	1	12
384.820	1	17
384.991	1	-1
385.162	1	10
385.333	1	17
385.503	1	9
385.674	1	-1
385.845	1	23
386.016	1	19
386.187	1	15
386.357	1	8
386.528	1	6
386.699	1	18
386.870	1	5
387.041	1	16
387.211	1	6
387.382	1	6
387.553	1	10
387.724	1	26
387.894	1	23
388.065	1	4
388.236	1	17
388.407	1	11
388.578	1	13
388.748	1	11
388.919	1	6
389.090	1	16
389.261	1	17
389.431	1	7
389.602	1	14
389.773	1	25
389.944	1	27
390.114	1	19
390.285	1	8
390.456	1	14
390.627	1	13
390.798	1	9
390.968	1	18
391.139	1	7
391.310	1	16
391.481	1	1
391.651	1	22
391.822	1	26
391.993	1	13
392.164	1	8
392.334	1	5
392.505	1	17
392.676	1	20
392.847	1	4
393.017	1	19
393.188	1	10
393.359	1	9
393.530	1	18
393.700	1	12
393.871	1	8
394.042	1	14
394.213	1	5
394.383	1	11
394.554	1	24
394.725	1	12
394.896	1	14
395.066	1	17
395.237	1	13
395.408	1	21
395.579	1	13
395.749	1	26
395.920	1	4
396.091	1	13
396.262	1	11
396.432	1	13
396.603	1	11
396.774	1	9
396.945	1	14
397.115	1	6
397.286	1	5
397.457	1	11
397.627	1	7
397.798	1	10
397.969	1	13
398.140	1	9
398.310	1	14
398.481	1	4
398.652	1	9
398.823	1	13
398.993	1	22
399.164	1	17
399.335	1	21
399.505	1	8
399.676	1	10
399.847	1	9
400.018	1	23
400.188	1	8
400.359	1	11
400.530	1	17
400.700	1	10
400.871	1	10
401.042	1	10
401.213	1	9
401.383	1	16
401.554	1	18
401.725	1	28
401.895	1	12
402.066	1	19
402.237	1	16
402.408	1	16
402.578	1	-1
402.749	1	8
402.920	1	16
403.090	1	14
403.261	1	16
403.432	1	25
403.603	1	9
403.773	1	27
403.944	1	14
404.115	1	13
404.285	1	19
404.456	1	9
404.627	1	5
404.797	1	14
404.968	1	18
405.139	1	11
405.310	1	25
405.480	1	19
405.651	1	6
405.822	1	17
405.992	1	8
406.163	1	14
406.334	1	24
406.504	1	23
406.675	1	24
406.846	1	25
407.016	1	24
407.187	1	17
407.358	1	19
407.528	1	12
407.699	1	1
407.870	1	13
408.041	1	25
408.211	1	17
408.382	1	19
408.553	1	18
408.723	1	15
408.894	1	10
409.065	1	11
409.235	1	17
409.406	1	7
409.577	1	9
409.747	1	7
409.918	1	19
410.089	1	31
410.259	1	11
410.430	1	25
410.601	1	13
410.771	1	24
410.942	1	14
411.113	1	17
411.283	1	22
411.454	1	18
411.625	1	18
411.795	1	9
411.966	1	29
412.137	1	16
412.307	1	22
412.478	1	28
412.649	1	19
412.819	1	13
412.990	1	18
413.161	1	19
413.331	1	14
413.502	1	20
413.672	1	26
413.843	1	11
414.014	1	20
414.184	1	15
414.355	1	21
414.526	1	13
414.696	1	15
414.867	1	12
415.038	1	11
415.208	1	20
415.379	1	32
415.550	1	24
415.720	1	2
415.891	1	25
416.062	1	18
416.232	1	8
416.403	1	9
416.573	1	28
416.744	1	25
416.915	1	27
417.085	1	18
417.256	1	8
417.427	1	9
417.597	1	20
417.768	1	25
417.939	1	17
418.109	1	21
418.280	1	15
418.450	1	20
418.621	1	18
418.792	1	18
418.962	1	15
419.133	1	17
419.304	1	13
419.474	1	12
419.645	1	17
419.815	1	15
419.986	1	16
420.157	1	22
420.327	1	10
420.498	1	25
420.669	1	22
420.839	1	17
421.010	1	13
421.180	1	20
421.351	1	26
421.522	1	20
421.692	1	15
421.863	1	20
422.033	1	7
422.204	1	20
422.375	1	14
422.545	1	19
422.716	1	11
422.886	1	7
423.057	1	21
423.228	1	21
423.398	1	23
423.569	1	12
423.740	1	26
423.910	1	19
424.081	1	15
424.251	1	22
424.422	1	14
424.593	1	13
424.763	1	27
424.934	1	17
425.104	1	21
425.275	1	29
425.445	1	9
425.616	1	21
425.787	1	17
425.957	1	10
426.128	1	15
426.298	1	32
426.469	1	13
426.640	1	25
426.810	1	25
426.981	1	10
427.151	1	23
427.322	1	26
427.493	1	18
427.663	1	25
427.834	1	22
428.004	1	14
428.175	1	23
428.345	1	26
428.516	1	28
428.687	1	21
428.857	1	19
429.028	1	17
429.198	1	30
429.369	1	21
429.540	1	20
429.710	1	9
429.881	1	17
430.051	1	23
430.222	1	18
430.392	1	7
430.563	1	21
430.734	1	15
430.904	1	8
431.075	1	27
431.245	1	18
431.416	1	20
431.586	1	6
431.757	1	14
431.927	1	34
432.098	1	14
432.269	1	18
432.439	1	16
432.610	1	20
432.780	1	11
432.951	1	22
433.121	1	24
433.292	1	21
433.462	1	19
433.633	1	9
433.804	1	8
433.974	1	20
434.145	1	14
434.315	1	11
434.486	1	22
434.656	1	19
434.827	1	11
434.997	1	15
435.168	1	16
435.339	1	13
435.509	1	15
435.680	1	25
435.850	1	16
436.021	1	16
436.191	1	16
436.362	1	18
436.532	1	9
436.703	1	15
436.873	1	14
437.044	1	10
437.214	1	9
437.385	1	21
437.556	1	16
437.726	1	23
437.897	1	19
438.067	1	13
438.238	1	13
438.408	1	16
438.579	1	22
438.749	1	17
438.920	1	19
439.090	1	22
439.261	1	15
439.431	1	24
439.602	1	17
439.772	1	26
439.943	1	11
440.113	1	28
440.284	1	7
440.455	1	11
440.625	1	30
440.796	1	22
440.966	1	8
441.137	1	7
441.307	1	14
441.478	1	17
441.648	1	5
441.819	1	18
441.989	1	16
442.160	1	11
442.330	1	17
442.501	1	22
442.671	1	9
442.842	1	19
443.012	1	20
443.183	1	20
443.353	1	22
443.524	1	7
443.694	1	19
443.865	1	23
444.035	1	11
444.206	1	17
444.376	1	13
444.547	1	30
444.717	1	10
444.888	1	16
445.058	1	19
445.229	1	12
445.399	1	12
445.570	1	10
445.740	1	9
445.911	1	26
446.081	1	26
446.252	1	21
446.422	1	20
446.593	1	3
446.763	1	15
446.934	1	10
447.104	1	13
447.275	1	18
447.445	1	18
447.616	1	16
447.786	1	25
447.957	1	17
448.127	1	13
448.298	1	15
448.468	1	7
448.639	1	6
448.809	1	14
448.979	1	7
449.150	1	-3
449.320	1	14
449.491	1	19
449.661	1	22
449.832	1	28
450.002	1	19
450.173	1	6
450.343	1	22
450.514	1	12
450.684	1	14
450.855	1	19
451.025	1	18
451.196	1	18
451.366	1	28
451.537	1	9
451.707	1	30
451.878	1	2
452.048	1	17
452.218	1	5
452.389	1	18
452.559	1	13
452.730	1	20
452.900	1	15
453.071	1	11
453.241	1	29
453.412	1	10
453.582	1	26
453.753	1	4
453.923	1	22
454.093	1	27
454.264	1	19
454.434	1	15
454.605	1	14
454.775	1	15
454.946	1	26
455.116	1	20
455.287	1	17
455.457	1	11
455.628	1	19
455.798	1	18
455.968	1	13
456.139	1	6
456.309	1	20
456.480	1	22
456.650	1	16
456.821	1	24
456.991	1	26
457.161	1	22
457.332	1	13
457.502	1	9
457.673	1	14
457.843	1	16
458.014	1	15
458.184	1	6
458.355	1	8
458.525	1	8
458.695	1	7
458.866	1	22
459.036	1	12
459.207	1	12
459.377	1	22
459.548	1	13
459.718	1	18
459.888	1	22
460.059	1	9
460.229	1	2
460.400	1	35
460.570	1	20
460.740	1	11
460.911	1	16
461.081	1	6
461.252	1	32
461.422	1	8
461.593	1	-3
461.763	1	22
461.933	1	3
462.104	1	22
462.274	1	17
462.445	1	8
462.615	1	11
462.785	1	12
462.956	1	6
463.126	1	14
463.297	1	11
463.467	1	31
463.638	1	6
463.808	1	6
463.978	1	15
464.149	1	21
464.319	1	10
464.490	1	10
464.660	1	17
464.830	1	0
465.001	1	16
465.171	1	7
465.342	1	18
465.512	1	9
465.682	1	20
465.853	1	13
466.023	1	13
466.194	1	13
466.364	1	15
466.534	1	16
466.705	1	11
466.875	1	6
467.045	1	8
467.216	1	8
467.386	1	17
467.557	1	7
467.727	1	9
467.897	1	1
468.068	1	15
468.238	1	11
468.409	1	1
468.579	1	-4
468.749	1	2
468.920	1	9
469.090	1	16
469.260	1	16
469.431	1	11
469.601	1	17
469.772	1	10
469.942	1	22
470.112	1	18
470.283	1	11
470.453	1	11
470.623	1	15
470.794	1	13
470.964	1	-2
471.135	1	15
471.305	1	5
471.475	1	12
471.646	1	2
471.816	1	12
471.986	1	12
472.157	1	6
472.327	1	19
472.497	1	5
472.668	1	3
472.838	1	10
473.009	1	16
473.179	1	11
473.349	1	8
473.520	1	13
473.690	1	14
473.860	1	11
474.031	1	12
474.201	1	20
474.371	1	13
474.542	1	13
474.712	1	4
474.882	1	19
475.053	1	11
475.223	1	3
475.394	1	12
475.564	1	1
475.734	1	2
475.905	1	5
476.075	1	2
476.245	1	8
476.416	1	4
476.586	1	19
476.756	1	14
476.927	1	14
477.097	1	13
477.267	1	12
477.438	1	-6
477.608	1	7
477.778	1	21
477.949	1	17
478.119	1	9
478.289	1	18
478.460	1	18
478.630	1	1
478.800	1	5
478.971	1	26
479.141	1	7
479.311	1	7
479.482	1	0
479.652	1	12
479.822	1	2
479.993	1	9
480.163	1	3
480.333	1	18
480.504	1	13
480.674	1	13
480.844	1	15
481.015	1	3
481.185	1	10
481.355	1	1
481.525	1	9
481.696	1	16
481.866	1	1
482.036	1	11
482.207	1	10
482.377	1	6
482.547	1	13
482.718	1	3
482.888	1	4
483.058	1	6
483.229	1	7
483.399	1	11
483.569	1	7
483.740	1	2
483.910	1	-5
484.080	1	9
484.250	1	5
484.421	1	16
484.591	1	15
484.761	1	8
484.932	1	12
485.102	1	9
485.272	1	5
485.443	1	4
485.613	1	10
485.783	1	3
485.953	1	6
486.124	1	-6
486.294	1	20
486.464	1	10
486.635	1	7
486.805	1	4
486.975	1	3
487.146	1	2
487.316	1	13
487.486	1	6
487.656	1	4
487.827	1	5
487.997	1	7
488.167	1	10
488.338	1	-3
488.508	1	0
488.678	1	10
488.848	1	7
489.019	1	4
489.189	1	6
489.359	1	12
489.529	1	8
489.700	1	-2
489.870	1	4
490.040	1	1
490.211	1	5
490.381	1	1
490.551	1	-8
490.721	1	14
490.892	1	8
491.062	1	17
491.232	1	8
491.402	1	9
491.573	1	10
491.743	1	0
491.913	1	2
492.084	1	0
492.254	1	16
492.424	1	3
492.594	1	15
492.765	1	12
492.935	1	16
493.105	1	11
493.275	1	1
493.446	1	10
493.616	1	8
493.786	1	12
493.956	1	5
494.127	1	-3
494.297	1	14
494.467	1	17
494.637	1	10
494.808	1	7
494.978	1	-1
495.148	1	8
495.318	1	1
495.489	1	5
495.659	1	13
495.829	1	11
495.999	1	3
496.170	1	4
496.340	1	14
496.510	1	12
496.680	1	3
496.851	1	1
497.021	1	-4
497.191	1	-2
497.361	1	1
497.532	1	-1
497.702	1	9
497.872	1	5
498.042	1	11
498.213	1	6
498.383	1	10
498.553	1	2
498.723	1	-1
498.894	1	16
499.064	1	15
499.234	1	-5
499.404	1	5
499.574	1	12
499.745	1	13
499.915	1	-6
500.085	1	5
500.255	1	6
500.426	1	2
500.596	1	8
500.766	1	5
500.936	1	14
501.106	1	4
501.277	1	6
501.447	1	3
501.617	1	4
501.787	1	9
501.958	1	2
502.128	1	21
502.298	1	15
502.468	1	17
502.638	1	4
502.809	1	2
502.979	1	-7
503.149	1	8
503.319	1	0
503.489	1	4
503.660	1	3
503.830	1	4
504.000	1	3
504.170	1	6
504.340	1	15
504.511	1	16
504.681	1	10
504.851	1	14
505.021	1	0
505.192	1	9
505.362	1	-1
505.532	1	1
505.702	1	-4
505.872	1	18
506.043	1	-4
506.213	1	6
506.383	1	14
506.553	1	-2
506.723	1	8
506.893	1	5
507.064	1	6
507.234	1	-1
507.404	1	8
507.574	1	-6
507.744	1	9
507.915	1	-6
508.085	1	-5
508.255	1	4
508.425	1	6
508.595	1	5
508.766	1	-2
508.936	1	18
509.106	1	-3
509.276	1	8
509.446	1	12
509.616	1	6
509.787	1	11
509.957	1	8
510.127	1	-1
510.297	1	7
510.467	1	-3
510.638	1	2
510.808	1	-2
510.978	1	10
511.148	1	19
511.318	1	4
511.488	1	6
511.659	1	-2
511.829	1	8
511.999	1	0
512.169	1	-3
512.339	1	6
512.509	1	-3
512.680	1	0
512.850	1	-2
513.020	1	8
513.190	1	10
513.360	1	8
513.530	1	6
513.700	1	0
513.871	1	6
514.041	1	5
514.211	1	-9
514.381	1	7
514.551	1	-1
514.721	1	-4
514.892	1	14
515.062	1	9
515.232	1	18
515.402	1	9
515.572	1	4
515.742	1	13
515.912	1	15
516.083	1	4
516.253	1	8
516.423	1	-6
516.593	1	-1
516.763	1	12
516.933	1	12
517.104	1	-1
517.274	1	8
517.444	1	4
517.614	1	2
517.784	1	0
517.954	1	-9
518.124	1	0
518.294	1	4
518.465	1	13
518.635	1	13
518.805	1	4
518.975	1	-5
519.145	1	11
519.315	1	-2
519.485	1	2
519.656	1	2
519.826	1	2
519.996	1	9
520.166	1	-1
520.336	1	0
520.506	1	7
520.676	1	10
520.846	1	2
521.017	1	1
521.187	1	4
521.357	1	6
521.527	1	4
521.697	1	8
521.867	1	-2
522.037	1	0
522.207	1	14
522.377	1	9
522.548	1	5
522.718	1	5
522.888	1	16
523.058	1	5
523.228	1	2
523.398	1	11
523.568	1	14
523.738	1	-3
523.909	1	3
524.079	1	4
524.249	1	4
524.419	1	8
524.589	1	15
524.759	1	7
524.929	1	4
525.099	1	2
525.269	1	-5
525.439	1	10
525.610	1	-4
525.780	1	8
525.950	1	10
526.120	1	0
526.290	1	-3
526.460	1	7
526.630	1	11
526.800	1	1
526.970	1	6
527.140	1	15
527.311	1	9
527.481	1	-8
527.651	1	3
527.821	1	-11
527.991	1	-5
528.161	1	-7
528.331	1	5
528.501	1	1
528.671	1	12
528.841	1	17
529.011	1	5
529.181	1	4
529.352	1	7
529.522	1	7
529.692	1	-6
529.862	1	-3
530.032	1	13
530.202	1	5
530.372	1	8
530.542	1	3
530.712	1	13
530.882	1	14
531.052	1	5
531.222	1	12
531.392	1	-4
531.563	1	4
531.733	1	-5
531.903	1	16
532.073	1	-3
532.243	1	10
532.413	1	-3
532.583	1	7
532.753	1	10
532.923	1	2
533.093	1	-6
533.263	1	1
533.433	1	-4
533.603	1	0
533.773	1	2
533.943	1	2
534.113	1	15
534.284	1	-8
534.454	1	1
534.624	1	12
534.794	1	2
534.964	1	4
535.134	1	3
535.304	1	13
535.474	1	-6
535.644	1	11
535.814	1	-2
535.984	1	-4
536.154	1	-3
536.324	1	5
536.494	1	9
536.664	1	3
536.834	1	3
537.004	1	3
537.174	1	7
537.344	1	19
537.514	1	-1
537.685	1	1
537.855	1	0
538.025	1	2
538.195	1	11
538.365	1	2
538.535	1	1
538.705	1	-9
538.875	1	0
539.045	1	6
539.215	1	14
539.385	1	12
539.555	1	4
539.725	1	-7
539.895	1	6
540.065	1	-4
540.235	1	5
540.405	1	-12
540.575	1	6
540.745	1	3
540.915	1	-1
541.085	1	-3
541.255	1	11
541.425	1	-3
541.595	1	2
541.765	1	8
541.935	1	1
542.105	1	2
542.275	1	6
542.445	1	4
542.615	1	-1
542.785	1	-2
542.955	1	-2
543.125	1	2
543.295	1	7
543.465	1	4
543.635	1	0
543.805	1	1
543.975	1	-1
544.145	1	17
544.315	1	3
544.485	1	-3
544.655	1	8
544.825	1	1
544.995	1	17
545.165	1	4
545.335	1	-2
545.505	1	2
545.675	1	-7
545.845	1	7
546.015	1	-2
546.185	1	8
546.355	1	1
546.525	1	2
546.695	1	-6
546.865	1	12
547.035	1	2
547.205	1	17
547.375	1	3
547.545	1	-5
547.715	1	5
547.885	1	1
548.055	1	5
548.225	1	2
548.395	1	3
548.565	1	0
548.735	1	1
548.905	1	3
549.075	1	5
549.245	1	13
549.415	1	4
549.585	1	-4
549.755	1	3
549.925	1	0
550.095	1	5
550.265	1	11
550.435	1	-2
550.605	1	0
550.775	1	7
550.945	1	2
551.115	1	-3
551.285	1	4
551.455	1	9
551.625	1	-8
551.795	1	-1
551.965	1	7
552.135	1	10
552.305	1	-6
552.475	1	7
552.645	1	4
552.815	1	0
552.985	1	0
553.155	1	7
553.325	1	-8
553.495	1	-7
553.665	1	-4
553.835	1	10
554.004	1	9
554.174	1	-4
554.344	1	-1
554.514	1	12
554.684	1	-1
554.854	1	0
555.024	1	2
555.194	1	-4
555.364	1	0
555.534	1	0
555.704	1	9
555.874	1	1
556.044	1	-7
556.214	1	7
556.384	1	0
556.554	1	-9
556.724	1	4
556.894	1	5
557.064	1	2
557.234	1	5
557.404	1	3
557.573	1	-4
557.743	1	0
557.913	1	10
558.083	1	-3
558.253	1	3
558.423	1	-2
558.593	1	-7
558.763	1	7
558.933	1	-1
559.103	1	8
559.273	1	3
559.443	1	-5
559.613	1	-1
559.783	1	-6
559.953	1	-2
560.122	1	1
560.292	1	13
560.462	1	12
560.632	1	-1
560.802	1	4
560.972	1	1
561.142	1	1
561.312	1	-3
561.482	1	-8
561.652	1	-3
561.822	1	-5
561.992	1	-3
562.162	1	9
562.331	1	9
562.501	1	2
562.671	1	10
562.841	1	-13
563.011	1	8
563.181	1	8
563.351	1	7
563.521	1	6
563.691	1	5
563.861	1	2
564.031	1	3
564.201	1	8
564.370	1	1
564.540	1	8
564.710	1	4
564.880	1	7
565.050	1	12
565.220	1	0
565.390	1	0
565.560	1	5
565.730	1	5
565.900	1	6
566.069	1	5
566.239	1	-5
566.409	1	-9
566.579	1	6
566.749	1	-4
566.919	1	1
567.089	1	6
567.259	1	-8
567.429	1	-3
567.599	1	13
567.768	1	4
567.938	1	-11
568.108	1	-1
568.278	1	8
568.448	1	4
568.618	1	0
568.788	1	4
568.958	1	2
569.128	1	6
569.297	1	-9
569.467	1	1
569.637	1	0
569.807	1	2
569.977	1	-2
570.147	1	8
570.317	1	-3
570.487	1	-2
570.656	1	-8
570.826	1	0
570.996	1	1
571.166	1	17
571.336	1	-2
571.506	1	7
571.676	1	14
571.846	1	-2
572.015	1	-2
572.185	1	7
572.355	1	3
572.525	1	-8
572.695	1	3
572.865	1	-6
573.035	1	4
573.205	1	-1
573.374	1	5
573.544	1	2
573.714	1	-7
573.884	1	5
574.054	1	1
574.224	1	0
574.394	1	1
574.563	1	4
574.733	1	5
574.903	1	8
575.073	1	5
575.243	1	-1
575.413	1	0
575.583	1	3
575.752	1	-4
575.922	1	-13
576.092	1	-5
576.262	1	-3
576.432	1	3
576.602	1	-3
576.772	1	1
576.941	1	7
577.111	1	-8
577.281	1	7
577.451	1	2
577.621	1	2
577.791	1	0
577.960	1	2
578.130	1	2
578.300	1	-2
578.470	1	-6
578.640	1	5
578.810	1	0
578.979	1	2
579.149	1	4
579.319	1	4
579.489	1	-12
579.659	1	-6
579.829	1	5
579.998	1	1
580.168	1	-1
580.338	1	0
580.508	1	13
580.678	1	1
580.848	1	7
581.017	1	12
581.187	1	11
581.357	1	-3
581.527	1	-3
581.697	1	0
581.867	1	3
582.036	1	2
582.206	1	7
582.376	1	-2
582.546	1	-9
582.716	1	1
582.885	1	-8
583.055	1	2
583.225	1	4
583.395	1	11
583.565	1	7
583.735	1	4
583.904	1	4
584.074	1	-8
584.244	1	0
584.414	1	0
584.584	1	-4
584.753	1	4
584.923	1	0
585.093	1	11
585.263	1	-4
585.433	1	0
585.602	1	0
585.772	1	-4
585.942	1	3
586.112	1	2
586.282	1	-1
586.451	1	6
586.621	1	17
586.791	1	1
586.961	1	-3
587.131	1	-8
587.300	1	2
587.470	1	1
587.640	1	2
587.810	1	14
587.980	1	4
588.149	1	3
588.319	1	4
588.489	1	1
588.659	1	-1
588.829	1	4
588.998	1	5
589.168	1	7
589.338	1	-3
589.508	1	6
589.677	1	6
589.847	1	7
590.017	1	-1
590.187	1	4
590.357	1	8
590.526	1	-7
590.696	1	-1
590.866	1	0
591.036	1	8
591.205	1	6
591.375	1	2
591.545	1	5
591.715	1	-9
591.885	1	4
592.054	1	5
592.224	1	5
592.394	1	-4
592.564	1	2
592.733	1	-11
592.903	1	-3
593.073	1	-1
593.243	1	10
593.412	1	7
593.582	1	8
593.752	1	3
593.922	1	-1
594.091	1	-1
594.261	1	-1
594.431	1	17
594.601	1	-7
594.771	1	10
594.940	1	8
595.110	1	7
595.280	1	-5
595.450	1	9
595.619	1	6
595.789	1	9
595.959	1	12
596.129	1	-6
596.298	1	11
596.468	1	1
596.638	1	-1
596.808	1	4
596.977	1	-4
597.147	1	-4
597.317	1	-4
597.487	1	8
597.656	1	-3
597.826	1	8
597.996	1	7
598.166	1	10
598.335	1	6
598.505	1	7
598.675	1	-3
598.844	1	-8
599.014	1	4
599.184	1	-2
599.354	1	18
599.523	1	-2
599.693	1	13
599.863	1	0
600.033	1	5
600.202	1	7
600.372	1	4
600.542	1	1
600.712	1	7
600.881	1	-1
601.051	1	5
601.221	1	14
601.390	1	-9
601.560	1	3
601.730	1	11
601.900	1	4
602.069	1	5
602.239	1	6
602.409	1	8
602.578	1	-4
602.748	1	-3
602.918	1	3
603.088	1	6
603.257	1	7
603.427	1	7
603.597	1	3
603.767	1	3
603.936	1	-5
604.106	1	-3
604.276	1	7
604.445	1	2
604.615	1	5
604.785	1	13
604.954	1	7
605.124	1	1
605.294	1	5
605.464	1	1
605.633	1	-4
605.803	1	1
605.973	1	4
606.142	1	4
606.312	1	-7
606.482	1	2
606.652	1	-2
606.821	1	6
606.991	1	5
607.161	1	6
607.330	1	1
607.500	1	5
607.670	1	8
607.839	1	8
608.009	1	1
608.179	1	-3
608.348	1	1
608.518	1	7
608.688	1	3
608.858	1	12
609.027	1	7
609.197	1	-11
609.367	1	15
609.536	1	0
609.706	1	3
609.876	1	14
610.045	1	2
610.215	1	1
610.385	1	-2
610.554	1	0
610.724	1	-7
610.894	1	14
611.063	1	-3
611.233	1	6
611.403	1	1
611.572	1	5
611.742	1	1
611.912	1	3
612.081	1	3
612.251	1	5
612.421	1	7
612.590	1	1
612.760	1	10
612.930	1	2
613.099	1	4
613.269	1	1
613.439	1	5
613.608	1	0
613.778	1	-7
613.948	1	5
614.117	1	10
614.287	1	6
614.457	1	-15
614.626	1	10
614.796	1	2
614.966	1	13
615.135	1	15
615.305	1	5
615.475	1	-4
615.644	1	-5
615.814	1	2
615.984	1	2
616.153	1	0
616.323	1	11
616.493	1	25
616.662	1	15
616.832	1	0
617.002	1	-1
617.171	1	1
617.341	1	4
617.511	1	1
617.680	1	5
617.850	1	11
618.019	1	6
618.189	1	16
618.359	1	-3
618.528	1	-2
618.698	1	6
618.868	1	2
619.037	1	11
619.207	1	6
619.377	1	-11
619.546	1	-4
619.716	1	6
619.885	1	4
620.055	1	6
620.225	1	6
620.394	1	-2
620.564	1	11
620.734	1	14
620.903	1	4
621.073	1	8
621.242	1	7
621.412	1	7
621.582	1	4
621.751	1	10
621.921	1	0
622.091	1	3
622.260	1	1
622.430	1	4
622.599	1	1
622.769	1	4
622.939	1	15
623.108	1	7
623.278	1	7
623.448	1	7
623.617	1	-3
623.787	1	4
623.956	1	13
624.126	1	13
624.296	1	4
624.465	1	7
624.635	1	15
624.804	1	-9
624.974	1	18
625.144	1	-3
625.313	1	-2
625.483	1	9
625.652	1	8
625.822	1	0
625.992	1	6
626.161	1	20
626.331	1	5
626.501	1	9
626.670	1	8
626.840	1	7
627.009	1	18
627.179	1	11
627.348	1	4
627.518	1	11
627.688	1	2
627.857	1	2
628.027	1	2
628.196	1	0
628.366	1	6
628.536	1	6
628.705	1	-2
628.875	1	17
629.044	1	5
629.214	1	13
629.384	1	-7
629.553	1	11
629.723	1	-2
629.892	1	9
630.062	1	1
630.232	1	5
630.401	1	10
630.571	1	4
630.740	1	9
630.910	1	9
631.079	1	-1
631.249	1	5
631.419	1	-6
631.588	1	6
631.758	1	15
631.927	1	7
632.097	1	3
632.266	1	8
632.436	1	2
632.606	1	7
632.775	1	17
632.945	1	16
633.114	1	-4
633.284	1	4
633.453	1	-2
633.623	1	18
633.793	1	-3
633.962	1	1
634.132	1	7
634.301	1	8
634.471	1	-1
634.640	1	3
634.810	1	6
634.979	1	2
635.149	1	6
635.319	1	6
635.488	1	10
635.658	1	11
635.827	1	8
635.997	1	3
636.166	1	2
636.336	1	2
636.505	1	6
636.675	1	16
636.845	1	5
637.014	1	10
637.184	1	8
637.353	1	2
637.523	1	2
637.692	1	11
637.862	1	10
638.031	1	7
638.201	1	14
638.370	1	11
638.540	1	0
638.710	1	12
638.879	1	6
639.049	1	2
639.218	1	5
639.388	1	5
639.557	1	10
639.727	1	8
639.896	1	10
640.066	1	4
640.235	1	9
640.405	1	5
640.574	1	12
640.744	1	13
640.914	1	4
641.083	1	11
641.253	1	15
641.422	1	5
641.592	1	5
641.761	1	11
641.931	1	6
642.100	1	3
642.270	1	3
642.439	1	3
642.609	1	8
642.778	1	-5
642.948	1	13
643.117	1	7
643.287	1	7
643.456	1	11
643.626	1	11
643.795	1	11
643.965	1	10
644.134	1	5
644.304	1	-3
644.473	1	4
644.643	1	3
644.812	1	21
644.982	1	3
645.151	1	24
645.321	1	-6
645.490	1	3
645.660	1	1
645.829	1	12
645.999	1	4
646.168	1	-3
646.338	1	6
646.507	1	3
646.677	1	2
646.846	1	10
647.016	1	21
647.185	1	2
647.355	1	6
647.524	1	2
647.694	1	9
647.863	1	0
648.033	1	5
648.202	1	3
648.372	1	19
648.541	1	9
648.711	1	5
648.880	1	4
649.050	1	9
649.219	1	-2
649.389	1	1
649.558	1	11
649.728	1	3
649.897	1	2
650.067	1	11
650.236	1	16
650.406	1	3
650.575	1	10
650.745	1	5
650.914	1	11
651.084	1	3
651.253	1	17
651.423	1	16
651.592	1	14
651.762	1	15
651.931	1	7
652.101	1	1
652.270	1	7
652.440	1	0
652.609	1	1
652.778	1	-10
652.948	1	14
653.117	1	-1
653.287	1	15
653.456	1	15
653.626	1	-4
653.795	1	10
653.965	1	11
654.134	1	5
654.304	1	6
654.473	1	4
654.643	1	11
654.812	1	2
654.982	1	3
655.151	1	2
655.320	1	10
655.490	1	2
655.659	1	-1
655.829	1	5
655.998	1	-4
656.168	1	-4
656.337	1	12
656.507	1	7
656.676	1	8
656.846	1	8
657.015	1	2
657.184	1	-2
657.354	1	2
657.523	1	3
657.693	1	5
657.862	1	7
658.032	1	7
658.201	1	11
658.371	1	-5
658.540	1	-1
658.709	1	4
658.879	1	-9
659.048	1	0
659.218	1	8
659.387	1	3
659.557	1	9
659.726	1	4
659.895	1	5
660.065	1	-8
660.234	1	6
660.404	1	13
660.573	1	18
660.743	1	17
660.912	1	3
661.081	1	27
661.251	1	4
661.420	1	8
661.590	1	-9
661.759	1	6
661.929	1	11
662.098	1	4
662.267	1	5
662.437	1	13
662.606	1	14
662.776	1	0
662.945	1	-8
663.115	1	-1
663.284	1	6
663.453	1	-10
663.623	1	1
663.792	1	11
663.962	1	8
664.131	1	-1
664.300	1	5
664.470	1	12
664.639	1	13
664.809	1	0
664.978	1	3
665.148	1	1
665.317	1	-3
665.486	1	9
665.656	1	-3
665.825	1	5
665.995	1	1
666.164	1	5
666.333	1	15
666.503	1	13
666.672	1	5
666.842	1	-6
667.011	1	-2
667.180	1	3
667.350	1	9
667.519	1	8
667.689	1	2
667.858	1	12
668.027	1	15
668.197	1	11
668.366	1	14
668.536	1	7
668.705	1	-2
668.874	1	13
669.044	1	7
669.213	1	7
669.382	1	0
669.552	1	13
669.721	1	14
669.891	1	9
670.060	1	14
670.229	1	3
670.399	1	19
670.568	1	0
670.738	1	-2
670.907	1	4
671.076	1	5
671.246	1	12
671.415	1	5
671.584	1	7
671.754	1	6
671.923	1	12
672.093	1	13
672.262	1	7
672.431	1	-9
672.601	1	16
672.770	1	9
672.939	1	1
673.109	1	6
673.278	1	6
673.448	1	2
673.617	1	3
673.786	1	11
