325.333	1	14
325.504	1	11
325.675	1	7
325.846	1	4
326.017	1	25
326.188	1	17
326.359	1	7
326.531	1	14
326.702	1	7
326.873	1	21
327.044	1	16
327.215	1	18
327.386	1	17
327.557	1	15
327.728	1	11
327.899	1	23
328.070	1	28
328.241	1	10
328.412	1	14
328.583	1	25
328.754	1	15
328.926	1	11
329.097	1	21
329.268	1	12
329.439	1	23
329.610	1	28
329.781	1	10
329.952	1	13
330.123	1	16
330.294	1	9
330.465	1	20
330.636	1	13
330.807	1	8
330.978	1	23
331.149	1	22
331.320	1	25
331.492	1	24
331.663	1	17
331.834	1	17
332.005	1	23
332.176	1	10
332.347	1	31
332.518	1	25
332.689	1	24
332.860	1	11
333.031	1	12
333.202	1	21
333.373	1	21
333.544	1	12
333.715	1	28
333.886	1	15
334.057	1	24
334.228	1	22
334.399	1	24
334.570	1	20
334.741	1	24
334.912	1	24
335.084	1	11
335.255	1	25
335.426	1	4
335.597	1	23
335.768	1	31
335.939	1	19
336.110	1	21
336.281	1	26
336.452	1	21
336.623	1	18
336.794	1	22
336.965	1	21
337.136	1	16
337.307	1	20
337.478	1	19
337.649	1	29
337.820	1	20
337.991	1	26
338.162	1	21
338.333	1	18
338.504	1	21
338.675	1	31
338.846	1	20
339.017	1	23
339.188	1	24
339.359	1	36
339.530	1	22
339.701	1	14
339.872	1	35
340.043	1	17
340.214	1	18
340.385	1	20
340.556	1	32
340.727	1	22
340.898	1	35
341.069	1	38
341.240	1	28
341.411	1	27
341.582	1	34
341.753	1	8
341.924	1	24
342.095	1	14
342.266	1	17
342.437	1	27
342.608	1	28
342.779	1	26
342.950	1	28
343.121	1	28
343.292	1	23
343.463	1	36
343.634	1	9
343.805	1	21
343.976	1	26
344.147	1	29
344.318	1	20
344.489	1	26
344.660	1	41
344.831	1	28
345.002	1	30
345.173	1	25
345.344	1	24
345.515	1	11
345.686	1	40
345.857	1	26
346.028	1	29
346.199	1	30
346.370	1	33
346.541	1	23
346.712	1	29
346.883	1	38
347.054	1	26
347.225	1	31
347.396	1	31
347.567	1	31
347.738	1	27
347.909	1	31
348.080	1	29
348.251	1	30
348.422	1	30
348.593	1	24
348.764	1	32
348.935	1	21
349.106	1	34
349.277	1	30
349.448	1	24
349.619	1	39
349.790	1	41
349.961	1	42
350.132	1	33
350.303	1	34
350.474	1	21
350.645	1	38
350.816	1	22
350.987	1	35
351.157	1	38
351.328	1	32
351.499	1	42
351.670	1	34
351.841	1	26
352.012	1	40
352.183	1	31
352.354	1	14
352.525	1	32
352.696	1	52
352.867	1	34
353.038	1	30
353.209	1	29
353.380	1	31
353.551	1	27
353.722	1	36
353.893	1	31
354.064	1	38
354.235	1	30
354.406	1	34
354.576	1	34
354.747	1	41
354.918	1	34
355.089	1	35
355.260	1	34
355.431	1	33
355.602	1	35
355.773	1	23
355.944	1	31
356.115	1	35
356.286	1	31
356.457	1	29
356.628	1	28
356.799	1	31
356.970	1	43
357.141	1	34
357.311	1	36
357.482	1	37
357.653	1	31
357.824	1	24
357.995	1	35
358.166	1	36
358.337	1	27
358.508	1	30
358.679	1	40
358.850	1	21
359.021	1	35
359.192	1	33
359.363	1	36
359.533	1	27
359.704	1	23
359.875	1	44
360.046	1	37
360.217	1	32
360.388	1	42
360.559	1	33
360.730	1	40
360.901	1	38
361.072	1	37
361.243	1	39
361.414	1	32
361.584	1	34
361.755	1	36
361.926	1	45
362.097	1	34
362.268	1	30
362.439	1	26
362.610	1	46
362.781	1	35
362.952	1	30
363.123	1	35
363.293	1	33
363.464	1	30
363.635	1	38
363.806	1	39
363.977	1	46
364.148	1	37
364.319	1	40
364.490	1	42
364.661	1	37
364.832	1	49
365.002	1	42
365.173	1	29
365.344	1	37
365.515	1	32
365.686	1	25
365.857	1	43
366.028	1	36
366.199	1	40
366.370	1	31
366.540	1	29
366.711	1	33
366.882	1	37
367.053	1	34
367.224	1	29
367.395	1	37
367.566	1	33
367.737	1	28
367.908	1	35
368.078	1	40
368.249	1	48
368.420	1	39
368.591	1	41
368.762	1	31
368.933	1	23
369.104	1	45
369.274	1	29
369.445	1	46
369.616	1	41
369.787	1	49
369.958	1	41
370.129	1	29
370.300	1	36
370.471	1	41
370.641	1	37
370.812	1	40
370.983	1	33
371.154	1	38
371.325	1	39
371.496	1	42
371.667	1	34
371.837	1	35
372.008	1	32
372.179	1	33
372.350	1	35
372.521	1	37
372.692	1	37
372.863	1	41
373.033	1	45
373.204	1	38
373.375	1	36
373.546	1	59
373.717	1	34
373.888	1	39
374.059	1	42
374.229	1	26
374.400	1	27
374.571	1	46
374.742	1	46
374.913	1	45
375.084	1	46
375.254	1	48
375.425	1	40
375.596	1	53
375.767	1	41
375.938	1	41
376.109	1	47
376.279	1	42
376.450	1	48
376.621	1	34
376.792	1	47
376.963	1	37
377.134	1	49
377.304	1	48
377.475	1	42
377.646	1	53
377.817	1	39
377.988	1	37
378.159	1	54
378.329	1	44
378.500	1	47
378.671	1	49
378.842	1	36
379.013	1	43
379.184	1	42
379.354	1	45
379.525	1	46
379.696	1	57
379.867	1	44
380.038	1	48
380.209	1	41
380.379	1	53
380.550	1	46
380.721	1	35
380.892	1	41
381.063	1	46
381.233	1	44
381.404	1	44
381.575	1	58
381.746	1	53
381.917	1	53
382.087	1	50
382.258	1	66
382.429	1	40
382.600	1	55
382.771	1	49
382.941	1	51
383.112	1	41
383.283	1	57
383.454	1	44
383.625	1	32
383.795	1	42
383.966	1	38
384.137	1	54
384.308	1	39
384.479	1	46
384.649	1	58
384.820	1	59
384.991	1	45
385.162	1	45
385.333	1	53
385.503	1	40
385.674	1	31
385.845	1	59
386.016	1	49
386.187	1	52
386.357	1	49
386.528	1	44
386.699	1	52
386.870	1	38
387.041	1	65
387.211	1	51
387.382	1	39
387.553	1	52
387.724	1	64
387.894	1	60
388.065	1	49
388.236	1	56
388.407	1	57
388.578	1	41
388.748	1	60
388.919	1	43
389.090	1	63
389.261	1	49
389.431	1	55
389.602	1	59
389.773	1	58
389.944	1	64
390.114	1	64
390.285	1	55
390.456	1	41
390.627	1	48
390.798	1	64
390.968	1	66
391.139	1	48
391.310	1	60
391.481	1	59
391.651	1	54
391.822	1	61
391.993	1	51
392.164	1	51
392.334	1	45
392.505	1	61
392.676	1	63
392.847	1	69
393.017	1	59
393.188	1	58
393.359	1	60
393.530	1	57
393.700	1	49
393.871	1	60
394.042	1	52
394.213	1	55
394.383	1	58
394.554	1	63
394.725	1	47
394.896	1	46
395.066	1	65
395.237	1	53
395.408	1	56
395.579	1	47
395.749	1	52
395.920	1	57
396.091	1	61
396.262	1	53
396.432	1	62
396.603	1	58
396.774	1	66
396.945	1	63
397.115	1	54
397.286	1	55
397.457	1	53
397.627	1	49
397.798	1	49
397.969	1	62
398.140	1	60
398.310	1	58
398.481	1	52
398.652	1	50
398.823	1	63
398.993	1	61
399.164	1	61
399.335	1	66
399.505	1	59
399.676	1	54
399.847	1	65
400.018	1	74
400.188	1	63
400.359	1	67
400.530	1	71
400.700	1	69
400.871	1	65
401.042	1	72
401.213	1	67
401.383	1	73
401.554	1	66
401.725	1	71
401.895	1	71
402.066	1	64
402.237	1	73
402.408	1	58
402.578	1	64
402.749	1	69
402.920	1	75
403.090	1	73
403.261	1	70
403.432	1	80
403.603	1	64
403.773	1	67
403.944	1	69
404.115	1	65
404.285	1	74
404.456	1	73
404.627	1	57
404.797	1	62
404.968	1	74
405.139	1	74
405.310	1	73
405.480	1	78
405.651	1	55
405.822	1	61
405.992	1	57
406.163	1	81
406.334	1	66
406.504	1	73
406.675	1	81
406.846	1	67
407.016	1	67
407.187	1	64
407.358	1	82
407.528	1	71
407.699	1	58
407.870	1	79
408.041	1	74
408.211	1	79
408.382	1	70
408.553	1	74
408.723	1	70
408.894	1	64
409.065	1	62
409.235	1	71
409.406	1	60
409.577	1	65
409.747	1	66
409.918	1	64
410.089	1	71
410.259	1	71
410.430	1	73
410.601	1	71
410.771	1	78
410.942	1	68
411.113	1	71
411.283	1	78
411.454	1	82
411.625	1	70
411.795	1	67
411.966	1	93
412.137	1	85
412.307	1	76
412.478	1	76
412.649	1	76
412.819	1	73
412.990	1	72
413.161	1	91
413.331	1	75
413.502	1	74
413.672	1	71
413.843	1	73
414.014	1	77
414.184	1	74
414.355	1	64
414.526	1	68
414.696	1	74
414.867	1	74
415.038	1	67
415.208	1	71
415.379	1	79
415.550	1	77
415.720	1	69
415.891	1	83
416.062	1	66
416.232	1	71
416.403	1	73
416.573	1	81
416.744	1	75
416.915	1	83
417.085	1	67
417.256	1	76
417.427	1	62
417.597	1	81
417.768	1	75
417.939	1	74
418.109	1	73
418.280	1	63
418.450	1	68
418.621	1	77
418.792	1	73
418.962	1	67
419.133	1	68
419.304	1	69
419.474	1	71
419.645	1	81
419.815	1	64
419.986	1	80
420.157	1	67
420.327	1	71
420.498	1	73
420.669	1	74
420.839	1	62
421.010	1	70
421.180	1	71
421.351	1	78
421.522	1	72
421.692	1	80
421.863	1	77
422.033	1	67
422.204	1	71
422.375	1	61
422.545	1	82
422.716	1	81
422.886	1	67
423.057	1	78
423.228	1	70
423.398	1	77
423.569	1	73
423.740	1	77
423.910	1	67
424.081	1	63
424.251	1	59
424.422	1	67
424.593	1	74
424.763	1	89
424.934	1	81
425.104	1	61
425.275	1	82
425.445	1	65
425.616	1	77
425.787	1	76
425.957	1	66
426.128	1	68
426.298	1	77
426.469	1	71
426.640	1	76
426.810	1	86
426.981	1	65
427.151	1	67
427.322	1	82
427.493	1	81
427.663	1	74
427.834	1	84
428.004	1	58
428.175	1	86
428.345	1	68
428.516	1	68
428.687	1	79
428.857	1	75
429.028	1	73
429.198	1	76
429.369	1	68
429.540	1	66
429.710	1	59
429.881	1	58
430.051	1	81
430.222	1	69
430.392	1	68
430.563	1	72
430.734	1	73
430.904	1	60
431.075	1	70
431.245	1	69
431.416	1	68
431.586	1	52
431.757	1	71
431.927	1	79
432.098	1	54
432.269	1	66
432.439	1	73
432.610	1	74
432.780	1	64
432.951	1	73
433.121	1	70
433.292	1	67
433.462	1	59
433.633	1	65
433.804	1	63
433.974	1	65
434.145	1	71
434.315	1	72
434.486	1	76
434.656	1	76
434.827	1	71
434.997	1	74
435.168	1	68
435.339	1	56
435.509	1	75
435.680	1	71
435.850	1	59
436.021	1	68
436.191	1	69
436.362	1	69
436.532	1	80
436.703	1	67
436.873	1	72
437.044	1	67
437.214	1	67
437.385	1	67
437.556	1	67
437.726	1	64
437.897	1	62
438.067	1	55
438.238	1	70
438.408	1	66
438.579	1	65
438.749	1	66
438.920	1	70
439.090	1	66
439.261	1	64
439.431	1	63
439.602	1	73
439.772	1	72
439.943	1	68
440.113	1	73
440.284	1	68
440.455	1	76
440.625	1	79
440.796	1	80
440.966	1	62
441.137	1	62
441.307	1	73
441.478	1	75
441.648	1	57
441.819	1	67
441.989	1	64
442.160	1	51
442.330	1	70
442.501	1	60
442.671	1	57
442.842	1	66
443.012	1	65
443.183	1	55
443.353	1	64
443.524	1	51
443.694	1	56
443.865	1	50
444.035	1	48
444.206	1	59
444.376	1	66
444.547	1	68
444.717	1	48
444.888	1	62
445.058	1	57
445.229	1	62
445.399	1	59
445.570	1	52
445.740	1	56
445.911	1	74
446.081	1	70
446.252	1	56
446.422	1	59
446.593	1	51
446.763	1	48
446.934	1	51
447.104	1	52
447.275	1	65
447.445	1	61
447.616	1	67
447.786	1	63
447.957	1	49
448.127	1	66
448.298	1	59
448.468	1	62
448.639	1	59
448.809	1	58
448.979	1	55
449.150	1	57
449.320	1	62
449.491	1	58
449.661	1	67
449.832	1	63
450.002	1	59
450.173	1	57
450.343	1	57
450.514	1	62
450.684	1	70
450.855	1	64
451.025	1	42
451.196	1	63
451.366	1	50
451.537	1	55
451.707	1	74
451.878	1	50
452.048	1	62
452.218	1	64
452.389	1	65
452.559	1	55
452.730	1	60
452.900	1	57
453.071	1	58
453.241	1	74
453.412	1	61
453.582	1	51
453.753	1	53
453.923	1	62
454.093	1	53
454.264	1	53
454.434	1	75
454.605	1	72
454.775	1	59
454.946	1	67
455.116	1	55
455.287	1	49
455.457	1	49
455.628	1	58
455.798	1	56
455.968	1	61
456.139	1	43
456.309	1	62
456.480	1	48
456.650	1	59
456.821	1	63
456.991	1	60
457.161	1	46
457.332	1	43
457.502	1	43
457.673	1	54
457.843	1	48
458.014	1	60
458.184	1	44
458.355	1	43
458.525	1	49
458.695	1	46
458.866	1	54
459.036	1	49
459.207	1	49
459.377	1	62
459.548	1	39
459.718	1	42
459.888	1	54
460.059	1	56
460.229	1	43
460.400	1	54
460.570	1	49
460.740	1	49
460.911	1	47
461.081	1	36
461.252	1	58
461.422	1	52
461.593	1	38
461.763	1	54
461.933	1	44
462.104	1	48
462.274	1	51
462.445	1	39
462.615	1	50
462.785	1	39
462.956	1	44
463.126	1	45
463.297	1	57
463.467	1	62
463.638	1	39
463.808	1	48
463.978	1	40
464.149	1	53
464.319	1	38
464.490	1	47
464.660	1	42
464.830	1	36
465.001	1	65
465.171	1	45
465.342	1	48
465.512	1	43
465.682	1	40
465.853	1	48
466.023	1	42
466.194	1	53
466.364	1	50
466.534	1	48
466.705	1	52
466.875	1	57
467.045	1	46
467.216	1	43
467.386	1	43
467.557	1	36
467.727	1	43
467.897	1	40
468.068	1	52
468.238	1	47
468.409	1	53
468.579	1	50
468.749	1	36
468.920	1	36
469.090	1	44
469.260	1	29
469.431	1	37
469.601	1	44
469.772	1	41
469.942	1	59
470.112	1	53
470.283	1	47
470.453	1	51
470.623	1	40
470.794	1	48
470.964	1	38
471.135	1	38
471.305	1	40
471.475	1	45
471.646	1	49
471.816	1	44
471.986	1	43
472.157	1	36
472.327	1	50
472.497	1	21
472.668	1	42
472.838	1	47
473.009	1	60
473.179	1	46
473.349	1	46
473.520	1	32
473.690	1	48
473.860	1	39
474.031	1	41
474.201	1	43
474.371	1	39
474.542	1	43
474.712	1	29
474.882	1	37
475.053	1	40
475.223	1	35
475.394	1	49
475.564	1	28
475.734	1	35
475.905	1	41
476.075	1	26
476.245	1	49
476.416	1	28
476.586	1	38
476.756	1	35
476.927	1	43
477.097	1	41
477.267	1	49
477.438	1	12
477.608	1	36
477.778	1	46
477.949	1	36
478.119	1	38
478.289	1	52
478.460	1	45
478.630	1	35
478.800	1	38
478.971	1	44
479.141	1	32
479.311	1	30
479.482	1	25
479.652	1	40
479.822	1	31
479.993	1	24
480.163	1	36
480.333	1	45
480.504	1	38
480.674	1	38
480.844	1	38
481.015	1	32
481.185	1	37
481.355	1	33
481.525	1	36
481.696	1	40
481.866	1	30
482.036	1	27
482.207	1	37
482.377	1	32
482.547	1	44
482.718	1	27
482.888	1	33
483.058	1	29
483.229	1	53
483.399	1	38
483.569	1	34
483.740	1	28
483.910	1	24
484.080	1	32
484.250	1	42
484.421	1	41
484.591	1	24
484.761	1	40
484.932	1	43
485.102	1	28
485.272	1	36
485.443	1	31
485.613	1	33
485.783	1	37
485.953	1	30
486.124	1	18
486.294	1	32
486.464	1	40
486.635	1	29
486.805	1	33
486.975	1	27
487.146	1	31
487.316	1	40
487.486	1	32
487.656	1	35
487.827	1	40
487.997	1	35
488.167	1	33
488.338	1	23
488.508	1	29
488.678	1	37
488.848	1	33
489.019	1	36
489.189	1	31
489.359	1	36
489.529	1	23
489.700	1	23
489.870	1	32
490.040	1	24
490.211	1	37
490.381	1	31
490.551	1	26
490.721	1	27
490.892	1	32
491.062	1	36
491.232	1	17
491.402	1	27
491.573	1	28
491.743	1	20
491.913	1	16
492.084	1	17
492.254	1	34
492.424	1	14
492.594	1	29
492.765	1	26
492.935	1	32
493.105	1	27
493.275	1	27
493.446	1	32
493.616	1	27
493.786	1	28
493.956	1	23
494.127	1	18
494.297	1	23
494.467	1	31
494.637	1	36
494.808	1	16
494.978	1	22
495.148	1	24
495.318	1	19
495.489	1	12
495.659	1	21
495.829	1	30
495.999	1	31
496.170	1	19
496.340	1	29
496.510	1	37
496.680	1	26
496.851	1	15
497.021	1	20
497.191	1	14
497.361	1	18
497.532	1	23
497.702	1	25
497.872	1	23
498.042	1	30
498.213	1	27
498.383	1	27
498.553	1	23
498.723	1	16
498.894	1	27
499.064	1	18
499.234	1	14
499.404	1	30
499.574	1	24
499.745	1	19
499.915	1	30
500.085	1	29
500.255	1	23
500.426	1	27
500.596	1	37
500.766	1	25
500.936	1	29
501.106	1	29
501.277	1	34
501.447	1	22
501.617	1	19
501.787	1	27
501.958	1	20
502.128	1	37
502.298	1	24
502.468	1	30
502.638	1	18
502.809	1	16
502.979	1	17
503.149	1	23
503.319	1	20
503.489	1	18
503.660	1	19
503.830	1	13
504.000	1	22
504.170	1	28
504.340	1	27
504.511	1	27
504.681	1	36
504.851	1	22
505.021	1	23
505.192	1	25
505.362	1	11
505.532	1	13
505.702	1	21
505.872	1	26
506.043	1	13
506.213	1	21
506.383	1	19
506.553	1	22
506.723	1	26
506.893	1	23
507.064	1	15
507.234	1	16
507.404	1	26
507.574	1	30
507.744	1	24
507.915	1	15
508.085	1	19
508.255	1	28
508.425	1	16
508.595	1	24
508.766	1	18
508.936	1	22
509.106	1	13
509.276	1	21
509.446	1	18
509.616	1	25
509.787	1	30
509.957	1	21
510.127	1	14
510.297	1	18
510.467	1	13
510.638	1	20
510.808	1	13
510.978	1	25
511.148	1	25
511.318	1	18
511.488	1	28
511.659	1	27
511.829	1	19
511.999	1	16
512.169	1	11
512.339	1	11
512.509	1	18
512.680	1	17
512.850	1	28
513.020	1	20
513.190	1	14
513.360	1	24
513.530	1	21
513.700	1	14
513.871	1	27
514.041	1	18
514.211	1	19
514.381	1	24
514.551	1	11
514.721	1	11
514.892	1	14
515.062	1	22
515.232	1	20
515.402	1	28
515.572	1	21
515.742	1	25
515.912	1	22
516.083	1	21
516.253	1	15
516.423	1	11
516.593	1	12
516.763	1	14
516.933	1	22
517.104	1	13
517.274	1	25
517.444	1	12
517.614	1	21
517.784	1	19
517.954	1	12
518.124	1	25
518.294	1	9
518.465	1	17
518.635	1	27
518.805	1	15
518.975	1	15
519.145	1	11
519.315	1	18
519.485	1	22
519.656	1	7
519.826	1	7
519.996	1	23
520.166	1	15
520.336	1	14
520.506	1	14
520.676	1	31
520.846	1	16
521.017	1	15
521.187	1	9
521.357	1	14
521.527	1	16
521.697	1	16
521.867	1	15
522.037	1	16
522.207	1	20
522.377	1	14
522.548	1	26
522.718	1	16
522.888	1	24
523.058	1	15
523.228	1	12
523.398	1	19
523.568	1	20
523.738	1	5
523.909	1	18
524.079	1	10
524.249	1	11
524.419	1	20
524.589	1	22
524.759	1	18
524.929	1	9
525.099	1	6
525.269	1	2
525.439	1	12
525.610	1	0
525.780	1	10
525.950	1	25
526.120	1	12
526.290	1	7
526.460	1	20
526.630	1	13
526.800	1	11
526.970	1	12
527.140	1	10
527.311	1	29
527.481	1	15
527.651	1	17
527.821	1	5
527.991	1	20
528.161	1	18
528.331	1	17
528.501	1	10
528.671	1	21
528.841	1	17
529.011	1	16
529.181	1	24
529.352	1	19
529.522	1	16
529.692	1	6
529.862	1	12
530.032	1	11
530.202	1	19
530.372	1	25
530.542	1	16
530.712	1	24
530.882	1	28
531.052	1	12
531.222	1	15
531.392	1	15
531.563	1	9
531.733	1	5
531.903	1	11
532.073	1	11
532.243	1	18
532.413	1	8
532.583	1	26
532.753	1	20
532.923	1	18
533.093	1	15
533.263	1	6
533.433	1	5
533.603	1	8
533.773	1	10
533.943	1	14
534.113	1	18
534.284	1	12
534.454	1	16
534.624	1	26
534.794	1	17
534.964	1	21
535.134	1	19
535.304	1	21
535.474	1	5
535.644	1	14
535.814	1	19
535.984	1	9
536.154	1	15
536.324	1	12
536.494	1	11
536.664	1	6
536.834	1	17
537.004	1	3
537.174	1	18
537.344	1	19
537.514	1	12
537.685	1	14
537.855	1	11
538.025	1	13
538.195	1	19
538.365	1	20
538.535	1	11
538.705	1	9
538.875	1	13
539.045	1	15
539.215	1	10
539.385	1	11
539.555	1	12
539.725	1	7
539.895	1	12
540.065	1	11
540.235	1	9
540.405	1	1
540.575	1	15
540.745	1	5
540.915	1	6
541.085	1	11
541.255	1	16
541.425	1	3
541.595	1	15
541.765	1	16
541.935	1	16
542.105	1	10
542.275	1	14
542.445	1	14
542.615	1	8
542.785	1	7
542.955	1	3
543.125	1	10
543.295	1	20
543.465	1	13
543.635	1	14
543.805	1	12
543.975	1	16
544.145	1	16
544.315	1	2
544.485	1	16
544.655	1	6
544.825	1	9
544.995	1	16
545.165	1	7
545.335	1	3
545.505	1	12
545.675	1	-8
545.845	1	15
546.015	1	18
546.185	1	10
546.355	1	-2
546.525	1	11
546.695	1	5
546.865	1	25
547.035	1	10
547.205	1	19
547.375	1	13
547.545	1	10
547.715	1	10
547.885	1	13
548.055	1	12
548.225	1	11
548.395	1	2
548.565	1	24
548.735	1	13
548.905	1	15
549.075	1	13
549.245	1	12
549.415	1	7
549.585	1	5
549.755	1	16
549.925	1	11
550.095	1	7
550.265	1	16
550.435	1	9
550.605	1	10
550.775	1	16
550.945	1	11
551.115	1	10
551.285	1	16
551.455	1	1
551.625	1	8
551.795	1	9
551.965	1	15
552.135	1	23
552.305	1	18
552.475	1	3
552.645	1	9
552.815	1	7
552.985	1	20
553.155	1	16
553.325	1	-1
553.495	1	12
553.665	1	8
553.835	1	14
554.004	1	7
554.174	1	13
554.344	1	8
554.514	1	6
554.684	1	7
554.854	1	5
555.024	1	10
555.194	1	1
555.364	1	13
555.534	1	2
555.704	1	17
555.874	1	9
556.044	1	9
556.214	1	19
556.384	1	17
556.554	1	5
556.724	1	17
556.894	1	6
557.064	1	15
557.234	1	1
557.404	1	10
557.573	1	7
557.743	1	6
557.913	1	13
558.083	1	0
558.253	1	7
558.423	1	14
558.593	1	6
558.763	1	12
558.933	1	22
559.103	1	12
559.273	1	12
559.443	1	3
559.613	1	11
559.783	1	1
559.953	1	3
560.122	1	17
560.292	1	23
560.462	1	8
560.632	1	4
560.802	1	8
560.972	1	5
561.142	1	8
561.312	1	8
561.482	1	3
561.652	1	11
561.822	1	2
561.992	1	0
562.162	1	17
562.331	1	14
562.501	1	9
562.671	1	18
562.841	1	0
563.011	1	11
563.181	1	13
563.351	1	13
563.521	1	8
563.691	1	8
563.861	1	17
564.031	1	12
564.201	1	15
564.370	1	11
564.540	1	12
564.710	1	6
564.880	1	10
565.050	1	22
565.220	1	7
565.390	1	5
565.560	1	17
565.730	1	11
565.900	1	2
566.069	1	7
566.239	1	4
566.409	1	2
566.579	1	8
566.749	1	8
566.919	1	8
567.089	1	4
567.259	1	5
567.429	1	12
567.599	1	7
567.768	1	15
567.938	1	-1
568.108	1	17
568.278	1	18
568.448	1	12
568.618	1	7
568.788	1	7
568.958	1	13
569.128	1	18
569.297	1	8
569.467	1	2
569.637	1	12
569.807	1	9
569.977	1	6
570.147	1	8
570.317	1	5
570.487	1	3
570.656	1	-3
570.826	1	10
570.996	1	1
571.166	1	23
571.336	1	1
571.506	1	16
571.676	1	18
571.846	1	11
572.015	1	2
572.185	1	8
572.355	1	2
572.525	1	-2
572.695	1	14
572.865	1	2
573.035	1	17
573.205	1	16
573.374	1	16
573.544	1	12
573.714	1	12
573.884	1	5
574.054	1	10
574.224	1	6
574.394	1	6
574.563	1	12
574.733	1	5
574.903	1	20
575.073	1	14
575.243	1	9
575.413	1	10
575.583	1	15
575.752	1	-2
575.922	1	0
576.092	1	3
576.262	1	-1
576.432	1	10
576.602	1	3
576.772	1	18
576.941	1	6
577.111	1	3
577.281	1	6
577.451	1	5
577.621	1	7
577.791	1	14
577.960	1	10
578.130	1	5
578.300	1	0
578.470	1	7
578.640	1	10
578.810	1	4
578.979	1	10
579.149	1	7
579.319	1	5
579.489	1	-10
579.659	1	-1
579.829	1	17
579.998	1	10
580.168	1	8
580.338	1	15
580.508	1	19
580.678	1	10
580.848	1	11
581.017	1	15
581.187	1	8
581.357	1	8
581.527	1	7
581.697	1	11
581.867	1	6
582.036	1	6
582.206	1	11
582.376	1	6
582.546	1	-8
582.716	1	-1
582.885	1	-1
583.055	1	9
583.225	1	9
583.395	1	16
583.565	1	12
583.735	1	13
583.904	1	14
584.074	1	-4
584.244	1	-2
584.414	1	6
584.584	1	5
584.753	1	10
584.923	1	14
585.093	1	17
585.263	1	10
585.433	1	10
585.602	1	9
585.772	1	5
585.942	1	15
586.112	1	3
586.282	1	6
586.451	1	17
586.621	1	11
586.791	1	17
586.961	1	4
587.131	1	7
587.300	1	-2
587.470	1	10
587.640	1	10
587.810	1	12
587.980	1	9
588.149	1	21
588.319	1	6
588.489	1	6
588.659	1	8
588.829	1	12
588.998	1	9
589.168	1	9
589.338	1	7
589.508	1	7
589.677	1	17
589.847	1	9
590.017	1	9
590.187	1	12
590.357	1	10
590.526	1	6
590.696	1	1
590.866	1	1
591.036	1	4
591.205	1	14
591.375	1	3
591.545	1	14
591.715	1	6
591.885	1	9
592.054	1	15
592.224	1	14
592.394	1	-3
592.564	1	10
592.733	1	-3
592.903	1	1
593.073	1	5
593.243	1	20
593.412	1	11
593.582	1	8
593.752	1	8
593.922	1	-3
594.091	1	7
594.261	1	9
594.431	1	16
594.601	1	3
594.771	1	25
594.940	1	17
595.110	1	8
595.280	1	8
595.450	1	19
595.619	1	15
595.789	1	10
595.959	1	13
596.129	1	13
596.298	1	16
596.468	1	5
596.638	1	9
596.808	1	8
596.977	1	4
597.147	1	0
597.317	1	9
597.487	1	11
597.656	1	8
597.826	1	9
597.996	1	12
598.166	1	7
598.335	1	10
598.505	1	20
598.675	1	2
598.844	1	5
599.014	1	22
599.184	1	6
599.354	1	7
599.523	1	7
599.693	1	11
599.863	1	10
600.033	1	6
600.202	1	9
600.372	1	10
600.542	1	3
600.712	1	4
600.881	1	7
601.051	1	3
601.221	1	15
601.390	1	1
601.560	1	19
601.730	1	21
601.900	1	13
602.069	1	11
602.239	1	18
602.409	1	6
602.578	1	-1
602.748	1	3
602.918	1	9
603.088	1	17
603.257	1	3
603.427	1	1
603.597	1	10
603.767	1	6
603.936	1	6
604.106	1	12
604.276	1	12
604.445	1	13
604.615	1	4
604.785	1	12
604.954	1	19
605.124	1	6
605.294	1	12
605.464	1	1
605.633	1	6
605.803	1	16
605.973	1	13
606.142	1	12
606.312	1	9
606.482	1	14
606.652	1	5
606.821	1	11
606.991	1	8
607.161	1	5
607.330	1	-6
607.500	1	18
607.670	1	12
607.839	1	23
608.009	1	16
608.179	1	13
608.348	1	18
608.518	1	2
608.688	1	-1
608.858	1	22
609.027	1	10
609.197	1	0
609.367	1	17
609.536	1	13
609.706	1	9
609.876	1	20
610.045	1	8
610.215	1	8
610.385	1	0
610.554	1	9
610.724	1	2
610.894	1	14
611.063	1	5
611.233	1	16
611.403	1	6
611.572	1	12
611.742	1	5
611.912	1	14
612.081	1	-3
612.251	1	12
612.421	1	18
612.590	1	15
612.760	1	16
612.930	1	7
613.099	1	6
613.269	1	4
613.439	1	0
613.608	1	7
613.778	1	13
613.948	1	18
614.117	1	11
614.287	1	11
614.457	1	3
614.626	1	20
614.796	1	7
614.966	1	23
615.135	1	16
615.305	1	16
615.475	1	13
615.644	1	10
615.814	1	2
615.984	1	1
616.153	1	12
616.323	1	5
616.493	1	21
616.662	1	3
616.832	1	11
617.002	1	8
617.171	1	16
617.341	1	14
617.511	1	12
617.680	1	20
617.850	1	17
618.019	1	16
618.189	1	10
618.359	1	8
618.528	1	8
618.698	1	21
618.868	1	8
619.037	1	10
619.207	1	14
619.377	1	17
619.546	1	1
619.716	1	18
619.885	1	12
620.055	1	9
620.225	1	17
620.394	1	5
620.564	1	16
620.734	1	20
620.903	1	15
621.073	1	6
621.242	1	9
621.412	1	17
621.582	1	8
621.751	1	13
621.921	1	5
622.091	1	12
622.260	1	3
622.430	1	13
622.599	1	-2
622.769	1	12
622.939	1	5
623.108	1	6
623.278	1	7
623.448	1	21
623.617	1	13
623.787	1	12
623.956	1	14
624.126	1	21
624.296	1	9
624.465	1	16
624.635	1	20
624.804	1	5
624.974	1	21
625.144	1	19
625.313	1	-5
625.483	1	26
625.652	1	10
625.822	1	5
625.992	1	3
626.161	1	17
626.331	1	19
626.501	1	14
626.670	1	21
626.840	1	10
627.009	1	20
627.179	1	13
627.348	1	17
627.518	1	16
627.688	1	17
627.857	1	19
628.027	1	11
628.196	1	16
628.366	1	13
628.536	1	8
628.705	1	13
628.875	1	12
629.044	1	9
629.214	1	14
629.384	1	24
629.553	1	11
629.723	1	4
629.892	1	23
630.062	1	8
630.232	1	8
630.401	1	16
630.571	1	21
630.740	1	11
630.910	1	14
631.079	1	5
631.249	1	8
631.419	1	-3
631.588	1	9
631.758	1	17
631.927	1	11
632.097	1	13
632.266	1	18
632.436	1	15
632.606	1	14
632.775	1	20
632.945	1	20
633.114	1	10
633.284	1	15
633.453	1	8
633.623	1	11
633.793	1	1
633.962	1	7
634.132	1	18
634.301	1	17
634.471	1	8
634.640	1	8
634.810	1	20
634.979	1	20
635.149	1	10
635.319	1	17
635.488	1	23
635.658	1	10
635.827	1	25
635.997	1	14
636.166	1	11
636.336	1	9
636.505	1	26
636.675	1	9
636.845	1	7
637.014	1	1
637.184	1	14
637.353	1	2
637.523	1	23
637.692	1	25
637.862	1	11
638.031	1	12
638.201	1	12
638.370	1	12
638.540	1	12
638.710	1	17
638.879	1	13
639.049	1	21
639.218	1	18
639.388	1	15
639.557	1	27
639.727	1	23
639.896	1	22
640.066	1	22
640.235	1	24
640.405	1	10
640.574	1	17
640.744	1	22
640.914	1	24
641.083	1	13
641.253	1	34
641.422	1	18
641.592	1	2
641.761	1	9
641.931	1	10
642.100	1	9
642.270	1	12
642.439	1	20
642.609	1	14
642.778	1	19
642.948	1	13
643.117	1	23
643.287	1	7
643.456	1	18
643.626	1	14
643.795	1	13
643.965	1	16
644.134	1	11
644.304	1	17
644.473	1	16
644.643	1	3
644.812	1	29
644.982	1	23
645.151	1	22
645.321	1	11
645.490	1	16
645.660	1	2
645.829	1	7
645.999	1	10
646.168	1	11
646.338	1	14
646.507	1	27
646.677	1	19
646.846	1	17
647.016	1	25
647.185	1	9
647.355	1	21
647.524	1	11
647.694	1	11
647.863	1	20
648.033	1	15
648.202	1	14
648.372	1	16
648.541	1	10
648.711	1	10
648.880	1	15
649.050	1	15
649.219	1	10
649.389	1	21
649.558	1	2
649.728	1	7
649.897	1	25
650.067	1	16
650.236	1	12
650.406	1	7
650.575	1	15
650.745	1	11
650.914	1	13
651.084	1	12
651.253	1	21
651.423	1	18
651.592	1	9
651.762	1	16
651.931	1	7
652.101	1	16
652.270	1	13
652.440	1	10
652.609	1	14
652.778	1	1
652.948	1	20
653.117	1	10
653.287	1	20
653.456	1	13
653.626	1	15
653.795	1	17
653.965	1	27
654.134	1	18
654.304	1	19
654.473	1	16
654.643	1	21
654.812	1	18
654.982	1	11
655.151	1	17
655.320	1	10
655.490	1	18
655.659	1	6
655.829	1	12
655.998	1	13
656.168	1	12
656.337	1	15
656.507	1	4
656.676	1	26
656.846	1	19
657.015	1	8
657.184	1	14
657.354	1	18
657.523	1	16
657.693	1	11
657.862	1	24
658.032	1	18
658.201	1	10
658.371	1	11
658.540	1	7
658.709	1	15
658.879	1	3
659.048	1	20
659.218	1	2
659.387	1	11
659.557	1	12
659.726	1	19
659.895	1	14
660.065	1	6
660.234	1	15
660.404	1	16
660.573	1	16
660.743	1	15
660.912	1	9
661.081	1	24
661.251	1	22
661.420	1	16
661.590	1	10
661.759	1	9
661.929	1	11
662.098	1	4
662.267	1	14
662.437	1	14
662.606	1	21
662.776	1	13
662.945	1	6
663.115	1	16
663.284	1	18
663.453	1	10
663.623	1	21
663.792	1	19
663.962	1	13
664.131	1	13
664.300	1	14
664.470	1	18
664.639	1	16
664.809	1	8
664.978	1	15
665.148	1	19
665.317	1	16
665.486	1	9
665.656	1	7
665.825	1	14
665.995	1	7
666.164	1	9
666.333	1	22
666.503	1	18
666.672	1	18
666.842	1	19
667.011	1	10
667.180	1	21
667.350	1	14
667.519	1	26
667.689	1	9
667.858	1	14
668.027	1	29
668.197	1	27
668.366	1	19
668.536	1	16
668.705	1	4
668.874	1	21
669.044	1	9
669.213	1	11
669.382	1	13
669.552	1	19
669.721	1	21
669.891	1	19
670.060	1	27
670.229	1	11
670.399	1	30
670.568	1	6
670.738	1	-1
670.907	1	9
671.076	1	21
671.246	1	20
671.415	1	22
671.584	1	14
671.754	1	18
671.923	1	16
672.093	1	22
672.262	1	22
672.431	1	2
672.601	1	9
672.770	1	16
672.939	1	25
673.109	1	24
673.278	1	17
673.448	1	13
673.617	1	-1
673.786	1	19
