325.333	1	17
325.504	1	1
325.675	1	9
325.846	1	6
326.017	1	13
326.188	1	11
326.359	1	8
326.531	1	5
326.702	1	7
326.873	1	15
327.044	1	13
327.215	1	10
327.386	1	3
327.557	1	3
327.728	1	9
327.899	1	19
328.070	1	13
328.241	1	12
328.412	1	12
328.583	1	11
328.754	1	7
328.926	1	4
329.097	1	7
329.268	1	4
329.439	1	15
329.610	1	16
329.781	1	9
329.952	1	15
330.123	1	14
330.294	1	5
330.465	1	6
330.636	1	14
330.807	1	1
330.978	1	10
331.149	1	17
331.320	1	17
331.492	1	8
331.663	1	15
331.834	1	15
332.005	1	10
332.176	1	7
332.347	1	9
332.518	1	15
332.689	1	4
332.860	1	10
333.031	1	4
333.202	1	-8
333.373	1	14
333.544	1	6
333.715	1	18
333.886	1	1
334.057	1	19
334.228	1	9
334.399	1	11
334.570	1	15
334.741	1	5
334.912	1	13
335.084	1	6
335.255	1	9
335.426	1	9
335.597	1	24
335.768	1	20
335.939	1	16
336.110	1	8
336.281	1	9
336.452	1	12
336.623	1	4
336.794	1	9
336.965	1	5
337.136	1	7
337.307	1	11
337.478	1	13
337.649	1	12
337.820	1	7
337.991	1	9
338.162	1	3
338.333	1	1
338.504	1	7
338.675	1	10
338.846	1	11
339.017	1	21
339.188	1	22
339.359	1	12
339.530	1	12
339.701	1	11
339.872	1	17
340.043	1	1
340.214	1	18
340.385	1	3
340.556	1	18
340.727	1	10
340.898	1	16
341.069	1	17
341.240	1	7
341.411	1	15
341.582	1	18
341.753	1	4
341.924	1	5
342.095	1	11
342.266	1	9
342.437	1	13
342.608	1	30
342.779	1	14
342.950	1	19
343.121	1	17
343.292	1	13
343.463	1	16
343.634	1	7
343.805	1	14
343.976	1	21
344.147	1	15
344.318	1	3
344.489	1	21
344.660	1	17
344.831	1	20
345.002	1	15
345.173	1	7
345.344	1	12
345.515	1	1
345.686	1	26
345.857	1	10
346.028	1	16
346.199	1	12
346.370	1	23
346.541	1	8
346.712	1	7
346.883	1	9
347.054	1	12
347.225	1	9
347.396	1	1
347.567	1	20
347.738	1	7
347.909	1	15
348.080	1	9
348.251	1	15
348.422	1	10
348.593	1	9
348.764	1	17
348.935	1	7
349.106	1	4
349.277	1	9
349.448	1	22
349.619	1	9
349.790	1	19
349.961	1	22
350.132	1	18
350.303	1	12
350.474	1	3
350.645	1	14
350.816	1	4
350.987	1	14
351.157	1	16
351.328	1	27
351.499	1	10
351.670	1	14
351.841	1	22
352.012	1	17
352.183	1	18
352.354	1	-2
352.525	1	12
352.696	1	22
352.867	1	4
353.038	1	7
353.209	1	23
353.380	1	4
353.551	1	8
353.722	1	12
353.893	1	7
354.064	1	16
354.235	1	7
354.406	1	12
354.576	1	15
354.747	1	10
354.918	1	32
355.089	1	24
355.260	1	26
355.431	1	9
355.602	1	9
355.773	1	6
355.944	1	5
356.115	1	21
356.286	1	22
356.457	1	11
356.628	1	15
356.799	1	8
356.970	1	12
357.141	1	6
357.311	1	15
357.482	1	8
357.653	1	14
357.824	1	24
357.995	1	9
358.166	1	11
358.337	1	14
358.508	1	14
358.679	1	14
358.850	1	-1
359.021	1	17
359.192	1	15
359.363	1	24
359.533	1	-1
359.704	1	24
359.875	1	17
360.046	1	17
360.217	1	8
360.388	1	16
360.559	1	8
360.730	1	11
360.901	1	17
361.072	1	15
361.243	1	11
361.414	1	5
361.584	1	10
361.755	1	11
361.926	1	7
362.097	1	12
362.268	1	6
362.439	1	13
362.610	1	9
362.781	1	15
362.952	1	19
363.123	1	9
363.293	1	10
363.464	1	16
363.635	1	21
363.806	1	1
363.977	1	14
364.148	1	8
364.319	1	8
364.490	1	13
364.661	1	16
364.832	1	20
365.002	1	11
365.173	1	11
365.344	1	19
365.515	1	0
365.686	1	2
365.857	1	19
366.028	1	14
366.199	1	17
366.370	1	20
366.540	1	19
366.711	1	9
366.882	1	1
367.053	1	14
367.224	1	21
367.395	1	13
367.566	1	9
367.737	1	8
367.908	1	9
368.078	1	26
368.249	1	9
368.420	1	8
368.591	1	17
368.762	1	10
368.933	1	2
369.104	1	27
369.274	1	0
369.445	1	7
369.616	1	12
369.787	1	19
369.958	1	14
370.129	1	4
370.300	1	5
370.471	1	16
370.641	1	11
370.812	1	19
370.983	1	5
371.154	1	15
371.325	1	10
371.496	1	12
371.667	1	14
371.837	1	6
372.008	1	1
372.179	1	10
372.350	1	14
372.521	1	17
372.692	1	0
372.863	1	9
373.033	1	17
373.204	1	5
373.375	1	10
373.546	1	30
373.717	1	6
373.888	1	11
374.059	1	14
374.229	1	3
374.400	1	6
374.571	1	19
374.742	1	4
374.913	1	11
375.084	1	23
375.254	1	6
375.425	1	4
375.596	1	15
375.767	1	16
375.938	1	14
376.109	1	10
376.279	1	3
376.450	1	13
376.621	1	16
376.792	1	13
376.963	1	3
377.134	1	20
377.304	1	17
377.475	1	10
377.646	1	12
377.817	1	4
377.988	1	9
378.159	1	27
378.329	1	15
378.500	1	22
378.671	1	15
378.842	1	6
379.013	1	15
379.184	1	7
379.354	1	5
379.525	1	6
379.696	1	20
379.867	1	10
380.038	1	15
380.209	1	12
380.379	1	5
380.550	1	19
380.721	1	19
380.892	1	11
381.063	1	10
381.233	1	23
381.404	1	30
381.575	1	14
381.746	1	21
381.917	1	20
382.087	1	27
382.258	1	31
382.429	1	15
382.600	1	17
382.771	1	14
382.941	1	23
383.112	1	12
383.283	1	30
383.454	1	10
383.625	1	-1
383.795	1	21
383.966	1	18
384.137	1	18
384.308	1	12
384.479	1	12
384.649	1	19
384.820	1	28
384.991	1	15
385.162	1	9
385.333	1	20
385.503	1	11
385.674	1	2
385.845	1	20
386.016	1	17
386.187	1	16
386.357	1	22
386.528	1	7
386.699	1	15
386.870	1	13
387.041	1	32
387.211	1	4
387.382	1	19
387.553	1	11
387.724	1	26
387.894	1	16
388.065	1	16
388.236	1	23
388.407	1	16
388.578	1	12
388.748	1	14
388.919	1	13
389.090	1	28
389.261	1	12
389.431	1	16
389.602	1	20
389.773	1	21
389.944	1	23
390.114	1	26
390.285	1	5
390.456	1	9
390.627	1	15
390.798	1	14
390.968	1	24
391.139	1	10
391.310	1	28
391.481	1	21
391.651	1	17
391.822	1	25
391.993	1	17
392.164	1	17
392.334	1	8
392.505	1	21
392.676	1	27
392.847	1	23
393.017	1	17
393.188	1	25
393.359	1	19
393.530	1	35
393.700	1	9
393.871	1	18
394.042	1	24
394.213	1	14
394.383	1	16
394.554	1	27
394.725	1	21
394.896	1	20
395.066	1	20
395.237	1	26
395.408	1	25
395.579	1	11
395.749	1	17
395.920	1	5
396.091	1	14
396.262	1	14
396.432	1	16
396.603	1	19
396.774	1	29
396.945	1	23
397.115	1	16
397.286	1	26
397.457	1	21
397.627	1	19
397.798	1	18
397.969	1	28
398.140	1	17
398.310	1	8
398.481	1	16
398.652	1	19
398.823	1	9
398.993	1	21
399.164	1	29
399.335	1	24
399.505	1	22
399.676	1	10
399.847	1	16
400.018	1	37
400.188	1	13
400.359	1	14
400.530	1	30
400.700	1	20
400.871	1	22
401.042	1	26
401.213	1	20
401.383	1	16
401.554	1	14
401.725	1	28
401.895	1	21
402.066	1	21
402.237	1	20
402.408	1	27
402.578	1	24
402.749	1	23
402.920	1	19
403.090	1	23
403.261	1	26
403.432	1	21
403.603	1	27
403.773	1	25
403.944	1	20
404.115	1	20
404.285	1	27
404.456	1	33
404.627	1	22
404.797	1	18
404.968	1	30
405.139	1	13
405.310	1	31
405.480	1	34
405.651	1	8
405.822	1	19
405.992	1	31
406.163	1	38
406.334	1	33
406.504	1	21
406.675	1	48
406.846	1	28
407.016	1	24
407.187	1	34
407.358	1	34
407.528	1	28
407.699	1	16
407.870	1	37
408.041	1	32
408.211	1	26
408.382	1	33
408.553	1	28
408.723	1	18
408.894	1	18
409.065	1	25
409.235	1	26
409.406	1	21
409.577	1	19
409.747	1	19
409.918	1	13
410.089	1	32
410.259	1	24
410.430	1	32
410.601	1	23
410.771	1	32
410.942	1	33
411.113	1	16
411.283	1	26
411.454	1	30
411.625	1	28
411.795	1	18
411.966	1	29
412.137	1	25
412.307	1	28
412.478	1	19
412.649	1	25
412.819	1	20
412.990	1	35
413.161	1	31
413.331	1	29
413.502	1	33
413.672	1	24
413.843	1	33
414.014	1	32
414.184	1	22
414.355	1	31
414.526	1	30
414.696	1	22
414.867	1	29
415.038	1	32
415.208	1	24
415.379	1	35
415.550	1	21
415.720	1	17
415.891	1	49
416.062	1	23
416.232	1	22
416.403	1	28
416.573	1	28
416.744	1	39
416.915	1	34
417.085	1	34
417.256	1	25
417.427	1	17
417.597	1	38
417.768	1	29
417.939	1	29
418.109	1	28
418.280	1	14
418.450	1	39
418.621	1	34
418.792	1	25
418.962	1	14
419.133	1	31
419.304	1	22
419.474	1	23
419.645	1	30
419.815	1	21
419.986	1	30
420.157	1	18
420.327	1	17
420.498	1	32
420.669	1	20
420.839	1	23
421.010	1	29
421.180	1	23
421.351	1	28
421.522	1	32
421.692	1	22
421.863	1	24
422.033	1	26
422.204	1	34
422.375	1	20
422.545	1	28
422.716	1	26
422.886	1	12
423.057	1	28
423.228	1	34
423.398	1	30
423.569	1	21
423.740	1	38
423.910	1	20
424.081	1	27
424.251	1	18
424.422	1	26
424.593	1	34
424.763	1	29
424.934	1	44
425.104	1	27
425.275	1	26
425.445	1	22
425.616	1	33
425.787	1	23
425.957	1	28
426.128	1	34
426.298	1	37
426.469	1	33
426.640	1	24
426.810	1	47
426.981	1	23
427.151	1	22
427.322	1	34
427.493	1	32
427.663	1	31
427.834	1	32
428.004	1	29
428.175	1	40
428.345	1	35
428.516	1	22
428.687	1	37
428.857	1	20
429.028	1	23
429.198	1	46
429.369	1	27
429.540	1	25
429.710	1	21
429.881	1	23
430.051	1	30
430.222	1	21
430.392	1	22
430.563	1	38
430.734	1	30
430.904	1	22
431.075	1	33
431.245	1	20
431.416	1	33
431.586	1	29
431.757	1	22
431.927	1	49
432.098	1	18
432.269	1	24
432.439	1	32
432.610	1	26
432.780	1	22
432.951	1	22
433.121	1	26
433.292	1	20
433.462	1	26
433.633	1	9
433.804	1	20
433.974	1	33
434.145	1	16
434.315	1	25
434.486	1	38
434.656	1	27
434.827	1	22
434.997	1	30
435.168	1	38
435.339	1	27
435.509	1	28
435.680	1	27
435.850	1	23
436.021	1	35
436.191	1	29
436.362	1	19
436.532	1	32
436.703	1	25
436.873	1	13
437.044	1	26
437.214	1	20
437.385	1	30
437.556	1	31
437.726	1	27
437.897	1	29
438.067	1	14
438.238	1	13
438.408	1	18
438.579	1	26
438.749	1	19
438.920	1	27
439.090	1	26
439.261	1	19
439.431	1	28
439.602	1	34
439.772	1	23
439.943	1	31
440.113	1	46
440.284	1	32
440.455	1	31
440.625	1	42
440.796	1	34
440.966	1	20
441.137	1	25
441.307	1	32
441.478	1	19
441.648	1	22
441.819	1	30
441.989	1	20
442.160	1	11
442.330	1	22
442.501	1	21
442.671	1	25
442.842	1	28
443.012	1	18
443.183	1	19
443.353	1	30
443.524	1	15
443.694	1	22
443.865	1	27
444.035	1	24
444.206	1	20
444.376	1	22
444.547	1	30
444.717	1	20
444.888	1	24
445.058	1	29
445.229	1	19
445.399	1	23
445.570	1	17
445.740	1	12
445.911	1	25
446.081	1	25
446.252	1	30
446.422	1	25
446.593	1	18
446.763	1	21
446.934	1	19
447.104	1	20
447.275	1	18
447.445	1	19
447.616	1	20
447.786	1	22
447.957	1	18
448.127	1	24
448.298	1	19
448.468	1	20
448.639	1	21
448.809	1	29
448.979	1	18
449.150	1	18
449.320	1	25
449.491	1	17
449.661	1	34
449.832	1	15
450.002	1	24
450.173	1	12
450.343	1	24
450.514	1	18
450.684	1	28
450.855	1	26
451.025	1	18
451.196	1	34
451.366	1	14
451.537	1	23
451.707	1	33
451.878	1	16
452.048	1	16
452.218	1	26
452.389	1	24
452.559	1	13
452.730	1	18
452.900	1	16
453.071	1	24
453.241	1	26
453.412	1	21
453.582	1	25
453.753	1	24
453.923	1	31
454.093	1	29
454.264	1	29
454.434	1	16
454.605	1	24
454.775	1	34
454.946	1	33
455.116	1	22
455.287	1	15
455.457	1	18
455.628	1	36
455.798	1	23
455.968	1	27
456.139	1	24
456.309	1	17
456.480	1	14
456.650	1	34
456.821	1	25
456.991	1	23
457.161	1	22
457.332	1	22
457.502	1	18
457.673	1	20
457.843	1	15
458.014	1	23
458.184	1	17
458.355	1	20
458.525	1	9
458.695	1	18
458.866	1	18
459.036	1	16
459.207	1	25
459.377	1	25
459.548	1	9
459.718	1	15
459.888	1	25
460.059	1	15
460.229	1	14
460.400	1	29
460.570	1	14
460.740	1	21
460.911	1	16
461.081	1	16
461.252	1	25
461.422	1	17
461.593	1	15
461.763	1	29
461.933	1	16
462.104	1	25
462.274	1	21
462.445	1	10
462.615	1	9
462.785	1	15
462.956	1	17
463.126	1	15
463.297	1	22
463.467	1	18
463.638	1	5
463.808	1	3
463.978	1	18
464.149	1	14
464.319	1	10
464.490	1	16
464.660	1	16
464.830	1	8
465.001	1	29
465.171	1	13
465.342	1	30
465.512	1	21
465.682	1	19
465.853	1	14
466.023	1	25
466.194	1	18
466.364	1	25
466.534	1	20
466.705	1	12
466.875	1	4
467.045	1	17
467.216	1	15
467.386	1	20
467.557	1	16
467.727	1	19
467.897	1	10
468.068	1	15
468.238	1	24
468.409	1	16
468.579	1	11
468.749	1	4
468.920	1	21
469.090	1	21
469.260	1	12
469.431	1	4
469.601	1	16
469.772	1	16
469.942	1	16
470.112	1	21
470.283	1	27
470.453	1	9
470.623	1	13
470.794	1	23
470.964	1	9
471.135	1	18
471.305	1	19
471.475	1	20
471.646	1	24
471.816	1	20
471.986	1	14
472.157	1	21
472.327	1	2
472.497	1	-3
472.668	1	14
472.838	1	12
473.009	1	30
473.179	1	20
473.349	1	13
473.520	1	21
473.690	1	10
473.860	1	13
474.031	1	14
474.201	1	27
474.371	1	16
474.542	1	18
474.712	1	4
474.882	1	17
475.053	1	21
475.223	1	10
475.394	1	17
475.564	1	10
475.734	1	10
475.905	1	10
476.075	1	8
476.245	1	19
476.416	1	19
476.586	1	14
476.756	1	20
476.927	1	12
477.097	1	15
477.267	1	13
477.438	1	-4
477.608	1	18
477.778	1	25
477.949	1	17
478.119	1	12
478.289	1	12
478.460	1	14
478.630	1	18
478.800	1	3
478.971	1	15
479.141	1	7
479.311	1	10
479.482	1	16
479.652	1	8
479.822	1	11
479.993	1	11
480.163	1	10
480.333	1	14
480.504	1	9
480.674	1	16
480.844	1	7
481.015	1	15
481.185	1	18
481.355	1	-1
481.525	1	17
481.696	1	22
481.866	1	-1
482.036	1	5
482.207	1	5
482.377	1	10
482.547	1	14
482.718	1	13
482.888	1	5
483.058	1	16
483.229	1	17
483.399	1	12
483.569	1	11
483.740	1	3
483.910	1	4
484.080	1	20
484.250	1	7
484.421	1	9
484.591	1	12
484.761	1	18
484.932	1	15
485.102	1	3
485.272	1	11
485.443	1	7
485.613	1	21
485.783	1	14
485.953	1	2
486.124	1	10
486.294	1	15
486.464	1	17
486.635	1	11
486.805	1	5
486.975	1	6
487.146	1	11
487.316	1	18
487.486	1	7
487.656	1	6
487.827	1	6
487.997	1	12
488.167	1	10
488.338	1	0
488.508	1	10
488.678	1	13
488.848	1	16
489.019	1	6
489.189	1	12
489.359	1	6
489.529	1	6
489.700	1	-1
489.870	1	10
490.040	1	5
490.211	1	15
490.381	1	12
490.551	1	-7
490.721	1	12
490.892	1	21
491.062	1	10
491.232	1	4
491.402	1	8
491.573	1	10
491.743	1	-1
491.913	1	10
492.084	1	6
492.254	1	22
492.424	1	-3
492.594	1	20
492.765	1	12
492.935	1	19
493.105	1	15
493.275	1	6
493.446	1	14
493.616	1	9
493.786	1	14
493.956	1	12
494.127	1	7
494.297	1	7
494.467	1	13
494.637	1	8
494.808	1	-3
494.978	1	-9
495.148	1	7
495.318	1	5
495.489	1	4
495.659	1	21
495.829	1	15
495.999	1	18
496.170	1	13
496.340	1	12
496.510	1	6
496.680	1	12
496.851	1	3
497.021	1	1
497.191	1	8
497.361	1	3
497.532	1	2
497.702	1	7
497.872	1	10
498.042	1	13
498.213	1	6
498.383	1	17
498.553	1	6
498.723	1	-3
498.894	1	12
499.064	1	10
499.234	1	9
499.404	1	1
499.574	1	17
499.745	1	16
499.915	1	6
500.085	1	3
500.255	1	16
500.426	1	9
500.596	1	19
500.766	1	3
500.936	1	15
501.106	1	14
501.277	1	12
501.447	1	9
501.617	1	-1
501.787	1	8
501.958	1	18
502.128	1	11
502.298	1	10
502.468	1	9
502.638	1	5
502.809	1	8
502.979	1	-1
503.149	1	6
503.319	1	-1
503.489	1	6
503.660	1	10
503.830	1	2
504.000	1	11
504.170	1	8
504.340	1	12
504.511	1	19
504.681	1	16
504.851	1	13
505.021	1	7
505.192	1	8
505.362	1	5
505.532	1	-2
505.702	1	5
505.872	1	15
506.043	1	6
506.213	1	12
506.383	1	7
506.553	1	9
506.723	1	12
506.893	1	3
507.064	1	6
507.234	1	-5
507.404	1	11
507.574	1	9
507.744	1	7
507.915	1	12
508.085	1	-4
508.255	1	10
508.425	1	8
508.595	1	15
508.766	1	10
508.936	1	17
509.106	1	5
509.276	1	4
509.446	1	9
509.616	1	3
509.787	1	11
509.957	1	6
510.127	1	15
510.297	1	11
510.467	1	9
510.638	1	2
510.808	1	-5
510.978	1	11
511.148	1	18
511.318	1	-1
511.488	1	11
511.659	1	9
511.829	1	7
511.999	1	3
512.169	1	6
512.339	1	4
512.509	1	10
512.680	1	-12
512.850	1	6
513.020	1	11
513.190	1	6
513.360	1	5
513.530	1	3
513.700	1	2
513.871	1	13
514.041	1	7
514.211	1	10
514.381	1	11
514.551	1	-8
514.721	1	1
514.892	1	9
515.062	1	11
515.232	1	11
515.402	1	14
515.572	1	19
515.742	1	8
515.912	1	3
516.083	1	10
516.253	1	17
516.423	1	-1
516.593	1	0
516.763	1	22
516.933	1	10
517.104	1	-4
517.274	1	5
517.444	1	8
517.614	1	8
517.784	1	9
517.954	1	16
518.124	1	0
518.294	1	1
518.465	1	6
518.635	1	9
518.805	1	-1
518.975	1	-3
519.145	1	10
519.315	1	10
519.485	1	13
519.656	1	6
519.826	1	0
519.996	1	9
520.166	1	-5
520.336	1	-7
520.506	1	-1
520.676	1	19
520.846	1	0
521.017	1	6
521.187	1	1
521.357	1	2
521.527	1	8
521.697	1	13
521.867	1	5
522.037	1	0
522.207	1	6
522.377	1	9
522.548	1	12
522.718	1	12
522.888	1	16
523.058	1	17
523.228	1	-2
523.398	1	5
523.568	1	12
523.738	1	-2
523.909	1	8
524.079	1	-4
524.249	1	9
524.419	1	3
524.589	1	12
524.759	1	5
524.929	1	5
525.099	1	-7
525.269	1	-3
525.439	1	3
525.610	1	-5
525.780	1	3
525.950	1	9
526.120	1	-1
526.290	1	-2
526.460	1	11
526.630	1	12
526.800	1	-2
526.970	1	11
527.140	1	12
527.311	1	15
527.481	1	-13
527.651	1	13
527.821	1	1
527.991	1	-6
528.161	1	-2
528.331	1	9
528.501	1	0
528.671	1	19
528.841	1	14
529.011	1	9
529.181	1	15
529.352	1	7
529.522	1	12
529.692	1	-10
529.862	1	0
530.032	1	-1
530.202	1	14
530.372	1	12
530.542	1	-9
530.712	1	16
530.882	1	3
531.052	1	1
531.222	1	6
531.392	1	2
531.563	1	1
531.733	1	-2
531.903	1	8
532.073	1	7
532.243	1	14
532.413	1	2
532.583	1	13
532.753	1	10
532.923	1	4
533.093	1	3
533.263	1	7
533.433	1	3
533.603	1	3
533.773	1	1
533.943	1	3
534.113	1	26
534.284	1	4
534.454	1	4
534.624	1	7
534.794	1	3
534.964	1	4
535.134	1	9
535.304	1	15
535.474	1	5
535.644	1	9
535.814	1	6
535.984	1	-1
536.154	1	6
536.324	1	8
536.494	1	5
536.664	1	1
536.834	1	3
537.004	1	12
537.174	1	-1
537.344	1	14
537.514	1	-1
537.685	1	3
537.855	1	-7
538.025	1	8
538.195	1	6
538.365	1	9
538.535	1	-2
538.705	1	-1
538.875	1	-5
539.045	1	8
539.215	1	5
539.385	1	3
539.555	1	3
539.725	1	-3
539.895	1	1
540.065	1	0
540.235	1	3
540.405	1	3
540.575	1	4
540.745	1	-2
540.915	1	0
541.085	1	6
541.255	1	5
541.425	1	3
541.595	1	-6
541.765	1	15
541.935	1	6
542.105	1	-1
542.275	1	1
542.445	1	10
542.615	1	1
542.785	1	11
542.955	1	-2
543.125	1	0
543.295	1	15
543.465	1	6
543.635	1	-2
543.805	1	0
543.975	1	2
544.145	1	5
544.315	1	-3
544.485	1	10
544.655	1	-2
544.825	1	9
544.995	1	5
545.165	1	9
545.335	1	-4
545.505	1	6
545.675	1	-12
545.845	1	5
546.015	1	-5
546.185	1	0
546.355	1	3
546.525	1	-10
546.695	1	1
546.865	1	8
547.035	1	-4
547.205	1	12
547.375	1	-2
547.545	1	-3
547.715	1	10
547.885	1	1
548.055	1	-3
548.225	1	7
548.395	1	1
548.565	1	8
548.735	1	0
548.905	1	19
549.075	1	8
549.245	1	1
549.415	1	1
549.585	1	5
549.755	1	9
549.925	1	-10
550.095	1	5
550.265	1	14
550.435	1	4
550.605	1	6
550.775	1	13
550.945	1	4
551.115	1	9
551.285	1	17
551.455	1	-1
551.625	1	-5
551.795	1	-2
551.965	1	2
552.135	1	2
552.305	1	6
552.475	1	0
552.645	1	4
552.815	1	4
552.985	1	-4
553.155	1	2
553.325	1	0
553.495	1	-5
553.665	1	-1
553.835	1	4
554.004	1	4
554.174	1	-8
554.344	1	6
554.514	1	-1
554.684	1	-8
554.854	1	-2
555.024	1	12
555.194	1	5
555.364	1	7
555.534	1	-5
555.704	1	10
555.874	1	-5
556.044	1	5
556.214	1	4
556.384	1	7
556.554	1	6
556.724	1	7
556.894	1	-3
557.064	1	9
557.234	1	0
557.404	1	-2
557.573	1	-5
557.743	1	3
557.913	1	9
558.083	1	-5
558.253	1	7
558.423	1	-6
558.593	1	3
558.763	1	4
558.933	1	6
559.103	1	3
559.273	1	4
559.443	1	-2
559.613	1	0
559.783	1	-4
559.953	1	5
560.122	1	3
560.292	1	15
560.462	1	1
560.632	1	3
560.802	1	5
560.972	1	-3
561.142	1	-3
561.312	1	7
561.482	1	-1
561.652	1	0
561.822	1	-9
561.992	1	-2
562.162	1	5
562.331	1	-1
562.501	1	-5
562.671	1	4
562.841	1	-10
563.011	1	8
563.181	1	6
563.351	1	-1
563.521	1	4
563.691	1	3
563.861	1	3
564.031	1	-11
564.201	1	6
564.370	1	7
564.540	1	7
564.710	1	-3
564.880	1	5
565.050	1	12
565.220	1	4
565.390	1	-3
565.560	1	9
565.730	1	2
565.900	1	8
566.069	1	11
566.239	1	5
566.409	1	-10
566.579	1	7
566.749	1	-1
566.919	1	1
567.089	1	-3
567.259	1	-4
567.429	1	-4
567.599	1	11
567.768	1	11
567.938	1	3
568.108	1	12
568.278	1	7
568.448	1	-6
568.618	1	1
568.788	1	-4
568.958	1	-1
569.128	1	3
569.297	1	-6
569.467	1	-1
569.637	1	4
569.807	1	8
569.977	1	7
570.147	1	10
570.317	1	0
570.487	1	-14
570.656	1	-5
570.826	1	-4
570.996	1	-8
571.166	1	9
571.336	1	3
571.506	1	10
571.676	1	12
571.846	1	11
572.015	1	4
572.185	1	7
572.355	1	-2
572.525	1	-12
572.695	1	9
572.865	1	-4
573.035	1	14
573.205	1	4
573.374	1	1
573.544	1	5
573.714	1	-5
573.884	1	11
574.054	1	3
574.224	1	-6
574.394	1	2
574.563	1	11
574.733	1	4
574.903	1	11
575.073	1	-5
575.243	1	2
575.413	1	-4
575.583	1	-4
575.752	1	4
575.922	1	3
576.092	1	-7
576.262	1	-3
576.432	1	6
576.602	1	-8
576.772	1	12
576.941	1	5
577.111	1	2
577.281	1	1
577.451	1	-2
577.621	1	4
577.791	1	-5
577.960	1	0
578.130	1	-4
578.300	1	2
578.470	1	5
578.640	1	4
578.810	1	2
578.979	1	-1
579.149	1	2
579.319	1	-5
579.489	1	-2
579.659	1	1
579.829	1	4
579.998	1	-1
580.168	1	3
580.338	1	11
580.508	1	3
580.678	1	8
580.848	1	5
581.017	1	1
581.187	1	3
581.357	1	-2
581.527	1	2
581.697	1	7
581.867	1	4
582.036	1	0
582.206	1	11
582.376	1	6
582.546	1	-7
582.716	1	-6
582.885	1	-7
583.055	1	7
583.225	1	-5
583.395	1	10
583.565	1	0
583.735	1	11
583.904	1	12
584.074	1	7
584.244	1	-15
584.414	1	-4
584.584	1	1
584.753	1	10
584.923	1	4
585.093	1	0
585.263	1	7
585.433	1	0
585.602	1	2
585.772	1	-6
585.942	1	1
586.112	1	-1
586.282	1	10
586.451	1	9
586.621	1	17
586.791	1	2
586.961	1	4
587.131	1	-18
587.300	1	6
587.470	1	-2
587.640	1	5
587.810	1	12
587.980	1	4
588.149	1	4
588.319	1	9
588.489	1	3
588.659	1	-1
588.829	1	9
588.998	1	-1
589.168	1	12
589.338	1	10
589.508	1	9
589.677	1	4
589.847	1	4
590.017	1	-6
590.187	1	3
590.357	1	6
590.526	1	6
590.696	1	-10
590.866	1	1
591.036	1	6
591.205	1	6
591.375	1	-6
591.545	1	3
591.715	1	4
591.885	1	5
592.054	1	7
592.224	1	11
592.394	1	-1
592.564	1	-3
592.733	1	-1
592.903	1	-1
593.073	1	-2
593.243	1	13
593.412	1	6
593.582	1	3
593.752	1	4
593.922	1	2
594.091	1	4
594.261	1	-3
594.431	1	10
594.601	1	4
594.771	1	13
594.940	1	9
595.110	1	5
595.280	1	0
595.450	1	3
595.619	1	4
595.789	1	3
595.959	1	4
596.129	1	-1
596.298	1	5
596.468	1	1
596.638	1	1
596.808	1	8
596.977	1	4
597.147	1	-2
597.317	1	3
597.487	1	14
597.656	1	-8
597.826	1	10
597.996	1	12
598.166	1	10
598.335	1	8
598.505	1	7
598.675	1	-3
598.844	1	6
599.014	1	4
599.184	1	5
599.354	1	4
599.523	1	-2
599.693	1	10
599.863	1	11
600.033	1	-1
600.202	1	12
600.372	1	-5
600.542	1	4
600.712	1	7
600.881	1	-9
601.051	1	5
601.221	1	5
601.390	1	-8
601.560	1	1
601.730	1	4
601.900	1	-5
602.069	1	9
602.239	1	5
602.409	1	7
602.578	1	1
602.748	1	2
602.918	1	3
603.088	1	6
603.257	1	3
603.427	1	-7
603.597	1	7
603.767	1	3
603.936	1	2
604.106	1	1
604.276	1	11
604.445	1	2
604.615	1	-4
604.785	1	13
604.954	1	8
605.124	1	-3
605.294	1	0
605.464	1	14
605.633	1	-2
605.803	1	4
605.973	1	10
606.142	1	3
606.312	1	8
606.482	1	7
606.652	1	2
606.821	1	2
606.991	1	2
607.161	1	8
607.330	1	-8
607.500	1	7
607.670	1	12
607.839	1	15
608.009	1	5
608.179	1	4
608.348	1	7
608.518	1	6
608.688	1	2
608.858	1	16
609.027	1	3
609.197	1	0
609.367	1	7
609.536	1	0
609.706	1	5
609.876	1	11
610.045	1	-2
610.215	1	11
610.385	1	-7
610.554	1	1
610.724	1	-6
610.894	1	14
611.063	1	-1
611.233	1	5
611.403	1	-1
611.572	1	4
611.742	1	5
611.912	1	13
612.081	1	6
612.251	1	7
612.421	1	12
612.590	1	6
612.760	1	15
612.930	1	-5
613.099	1	5
613.269	1	1
613.439	1	3
613.608	1	9
613.778	1	0
613.948	1	2
614.117	1	9
614.287	1	4
614.457	1	-5
614.626	1	9
614.796	1	8
614.966	1	14
615.135	1	13
615.305	1	11
615.475	1	7
615.644	1	10
615.814	1	0
615.984	1	1
616.153	1	5
616.323	1	9
616.493	1	15
616.662	1	2
616.832	1	11
617.002	1	5
617.171	1	4
617.341	1	6
617.511	1	12
617.680	1	8
617.850	1	1
618.019	1	12
618.189	1	4
618.359	1	-1
618.528	1	-1
618.698	1	14
618.868	1	-10
619.037	1	18
619.207	1	4
619.377	1	3
619.546	1	3
619.716	1	12
619.885	1	-3
620.055	1	3
620.225	1	6
620.394	1	5
620.564	1	8
620.734	1	-1
620.903	1	7
621.073	1	2
621.242	1	4
621.412	1	0
621.582	1	9
621.751	1	14
621.921	1	8
622.091	1	7
622.260	1	2
622.430	1	-2
622.599	1	-6
622.769	1	15
622.939	1	10
623.108	1	12
623.278	1	10
623.448	1	5
623.617	1	11
623.787	1	8
623.956	1	12
624.126	1	20
624.296	1	1
624.465	1	10
624.635	1	13
624.804	1	1
624.974	1	13
625.144	1	11
625.313	1	5
625.483	1	16
625.652	1	14
625.822	1	0
625.992	1	9
626.161	1	6
626.331	1	11
626.501	1	8
626.670	1	10
626.840	1	2
627.009	1	11
627.179	1	7
627.348	1	3
627.518	1	5
627.688	1	10
627.857	1	8
628.027	1	-5
628.196	1	1
628.366	1	3
628.536	1	8
628.705	1	2
628.875	1	15
629.044	1	12
629.214	1	8
629.384	1	8
629.553	1	-6
629.723	1	4
629.892	1	16
630.062	1	7
630.232	1	7
630.401	1	12
630.571	1	4
630.740	1	10
630.910	1	9
631.079	1	3
631.249	1	9
631.419	1	8
631.588	1	2
631.758	1	14
631.927	1	13
632.097	1	10
632.266	1	7
632.436	1	11
632.606	1	4
632.775	1	14
632.945	1	7
633.114	1	7
633.284	1	-1
633.453	1	7
633.623	1	8
633.793	1	3
633.962	1	0
634.132	1	4
634.301	1	8
634.471	1	2
634.640	1	6
634.810	1	12
634.979	1	9
635.149	1	8
635.319	1	7
635.488	1	7
635.658	1	9
635.827	1	7
635.997	1	6
636.166	1	3
636.336	1	-1
636.505	1	6
636.675	1	15
636.845	1	11
637.014	1	0
637.184	1	10
637.353	1	12
637.523	1	10
637.692	1	18
637.862	1	7
638.031	1	9
638.201	1	15
638.370	1	8
638.540	1	2
638.710	1	2
638.879	1	9
639.049	1	5
639.218	1	2
639.388	1	10
639.557	1	11
639.727	1	6
639.896	1	0
640.066	1	19
640.235	1	15
640.405	1	8
640.574	1	9
640.744	1	13
640.914	1	7
641.083	1	11
641.253	1	21
641.422	1	7
641.592	1	-8
641.761	1	10
641.931	1	3
642.100	1	3
642.270	1	0
642.439	1	13
642.609	1	13
642.778	1	1
642.948	1	3
643.117	1	12
643.287	1	5
643.456	1	10
643.626	1	16
643.795	1	11
643.965	1	15
644.134	1	5
644.304	1	1
644.473	1	9
644.643	1	3
644.812	1	22
644.982	1	16
645.151	1	12
645.321	1	10
645.490	1	-1
645.660	1	4
645.829	1	9
645.999	1	12
646.168	1	7
646.338	1	5
646.507	1	4
646.677	1	11
646.846	1	9
647.016	1	19
647.185	1	0
647.355	1	4
647.524	1	12
647.694	1	6
647.863	1	-3
648.033	1	8
648.202	1	4
648.372	1	14
648.541	1	9
648.711	1	8
648.880	1	11
649.050	1	7
649.219	1	4
649.389	1	6
649.558	1	5
649.728	1	8
649.897	1	0
650.067	1	12
650.236	1	11
650.406	1	6
650.575	1	12
650.745	1	8
650.914	1	7
651.084	1	-2
651.253	1	11
651.423	1	11
651.592	1	10
651.762	1	12
651.931	1	4
652.101	1	5
652.270	1	6
652.440	1	12
652.609	1	16
652.778	1	-2
652.948	1	9
653.117	1	2
653.287	1	21
653.456	1	6
653.626	1	1
653.795	1	19
653.965	1	3
654.134	1	5
654.304	1	4
654.473	1	4
654.643	1	9
654.812	1	1
654.982	1	4
655.151	1	4
655.320	1	17
655.490	1	2
655.659	1	4
655.829	1	8
655.998	1	7
656.168	1	9
656.337	1	15
656.507	1	3
656.676	1	13
656.846	1	-2
657.015	1	1
657.184	1	2
657.354	1	9
657.523	1	1
657.693	1	-1
657.862	1	13
658.032	1	13
658.201	1	13
658.371	1	5
658.540	1	-4
658.709	1	-1
658.879	1	-13
659.048	1	10
659.218	1	6
659.387	1	2
659.557	1	8
659.726	1	16
659.895	1	11
660.065	1	-4
660.234	1	8
660.404	1	3
660.573	1	11
660.743	1	9
660.912	1	10
661.081	1	18
661.251	1	-1
661.420	1	3
661.590	1	4
661.759	1	16
661.929	1	7
662.098	1	-2
662.267	1	3
662.437	1	-1
662.606	1	11
662.776	1	6
662.945	1	1
663.115	1	8
663.284	1	8
663.453	1	-3
663.623	1	11
663.792	1	14
663.962	1	5
664.131	1	10
664.300	1	12
664.470	1	15
664.639	1	4
664.809	1	1
664.978	1	-3
665.148	1	6
665.317	1	3
665.486	1	10
665.656	1	7
665.825	1	13
665.995	1	8
666.164	1	-1
666.333	1	18
666.503	1	7
666.672	1	12
666.842	1	-2
667.011	1	1
667.180	1	5
667.350	1	6
667.519	1	3
667.689	1	1
667.858	1	12
668.027	1	19
668.197	1	7
668.366	1	4
668.536	1	10
668.705	1	1
668.874	1	4
669.044	1	-3
669.213	1	4
669.382	1	4
669.552	1	15
669.721	1	13
669.891	1	10
670.060	1	11
670.229	1	0
670.399	1	7
670.568	1	7
670.738	1	5
670.907	1	7
671.076	1	-1
671.246	1	8
671.415	1	15
671.584	1	4
671.754	1	11
671.923	1	4
672.093	1	23
672.262	1	8
672.431	1	-7
672.601	1	-7
672.770	1	3
672.939	1	7
673.109	1	4
673.278	1	10
673.448	1	-1
673.617	1	-3
673.786	1	14
