325.333	1	19
325.504	1	12
325.675	1	2
325.846	1	5
326.017	1	4
326.188	1	23
326.359	1	4
326.531	1	-2
326.702	1	16
326.873	1	7
327.044	1	12
327.215	1	5
327.386	1	15
327.557	1	-1
327.728	1	11
327.899	1	19
328.070	1	13
328.241	1	6
328.412	1	6
328.583	1	7
328.754	1	4
328.926	1	2
329.097	1	2
329.268	1	11
329.439	1	7
329.610	1	10
329.781	1	1
329.952	1	10
330.123	1	4
330.294	1	2
330.465	1	5
330.636	1	10
330.807	1	6
330.978	1	12
331.149	1	14
331.320	1	12
331.492	1	9
331.663	1	4
331.834	1	10
332.005	1	11
332.176	1	7
332.347	1	23
332.518	1	16
332.689	1	12
332.860	1	10
333.031	1	8
333.202	1	-3
333.373	1	18
333.544	1	11
333.715	1	17
333.886	1	5
334.057	1	12
334.228	1	6
334.399	1	20
334.570	1	4
334.741	1	10
334.912	1	16
335.084	1	9
335.255	1	-1
335.426	1	10
335.597	1	20
335.768	1	14
335.939	1	8
336.110	1	9
336.281	1	7
336.452	1	9
336.623	1	11
336.794	1	12
336.965	1	0
337.136	1	2
337.307	1	10
337.478	1	6
337.649	1	17
337.820	1	15
337.991	1	11
338.162	1	0
338.333	1	3
338.504	1	3
338.675	1	13
338.846	1	4
339.017	1	11
339.188	1	7
339.359	1	14
339.530	1	13
339.701	1	-2
339.872	1	14
340.043	1	-2
340.214	1	11
340.385	1	8
340.556	1	14
340.727	1	16
340.898	1	16
341.069	1	13
341.240	1	13
341.411	1	13
341.582	1	19
341.753	1	4
341.924	1	6
342.095	1	17
342.266	1	19
342.437	1	16
342.608	1	13
342.779	1	12
342.950	1	12
343.121	1	11
343.292	1	4
343.463	1	5
343.634	1	6
343.805	1	3
343.976	1	17
344.147	1	8
344.318	1	10
344.489	1	10
344.660	1	10
344.831	1	23
345.002	1	11
345.173	1	7
345.344	1	18
345.515	1	-4
345.686	1	20
345.857	1	4
346.028	1	11
346.199	1	14
346.370	1	17
346.541	1	-2
346.712	1	17
346.883	1	7
347.054	1	11
347.225	1	11
347.396	1	-6
347.567	1	25
347.738	1	4
347.909	1	11
348.080	1	11
348.251	1	11
348.422	1	18
348.593	1	8
348.764	1	11
348.935	1	15
349.106	1	1
349.277	1	8
349.448	1	4
349.619	1	8
349.790	1	11
349.961	1	14
350.132	1	19
350.303	1	11
350.474	1	7
350.645	1	19
350.816	1	7
350.987	1	6
351.157	1	13
351.328	1	27
351.499	1	9
351.670	1	2
351.841	1	20
352.012	1	20
352.183	1	6
352.354	1	10
352.525	1	21
352.696	1	16
352.867	1	13
353.038	1	5
353.209	1	11
353.380	1	6
353.551	1	-2
353.722	1	9
353.893	1	11
354.064	1	11
354.235	1	19
354.406	1	10
354.576	1	13
354.747	1	12
354.918	1	14
355.089	1	7
355.260	1	25
355.431	1	11
355.602	1	9
355.773	1	10
355.944	1	6
356.115	1	23
356.286	1	17
356.457	1	7
356.628	1	7
356.799	1	9
356.970	1	13
357.141	1	7
357.311	1	7
357.482	1	14
357.653	1	10
357.824	1	19
357.995	1	-3
358.166	1	6
358.337	1	12
358.508	1	16
358.679	1	12
358.850	1	9
359.021	1	16
359.192	1	13
359.363	1	9
359.533	1	2
359.704	1	11
359.875	1	18
360.046	1	5
360.217	1	4
360.388	1	15
360.559	1	11
360.730	1	9
360.901	1	10
361.072	1	2
361.243	1	1
361.414	1	-2
361.584	1	5
361.755	1	8
361.926	1	6
362.097	1	8
362.268	1	1
362.439	1	11
362.610	1	13
362.781	1	4
362.952	1	22
363.123	1	11
363.293	1	10
363.464	1	8
363.635	1	19
363.806	1	6
363.977	1	1
364.148	1	6
364.319	1	13
364.490	1	17
364.661	1	9
364.832	1	15
365.002	1	21
365.173	1	6
365.344	1	12
365.515	1	2
365.686	1	7
365.857	1	13
366.028	1	14
366.199	1	4
366.370	1	12
366.540	1	10
366.711	1	12
366.882	1	-2
367.053	1	0
367.224	1	7
367.395	1	11
367.566	1	0
367.737	1	11
367.908	1	9
368.078	1	22
368.249	1	18
368.420	1	10
368.591	1	14
368.762	1	-5
368.933	1	-1
369.104	1	21
369.274	1	5
369.445	1	11
369.616	1	8
369.787	1	18
369.958	1	6
370.129	1	7
370.300	1	6
370.471	1	7
370.641	1	13
370.812	1	12
370.983	1	5
371.154	1	13
371.325	1	3
371.496	1	15
371.667	1	9
371.837	1	12
372.008	1	-6
372.179	1	0
372.350	1	0
372.521	1	5
372.692	1	6
372.863	1	7
373.033	1	12
373.204	1	1
373.375	1	3
373.546	1	25
373.717	1	4
373.888	1	18
374.059	1	19
374.229	1	-2
374.400	1	5
374.571	1	6
374.742	1	6
374.913	1	10
375.084	1	13
375.254	1	11
375.425	1	5
375.596	1	16
375.767	1	14
375.938	1	12
376.109	1	13
376.279	1	2
376.450	1	9
376.621	1	-3
376.792	1	-2
376.963	1	7
377.134	1	9
377.304	1	19
377.475	1	10
377.646	1	10
377.817	1	7
377.988	1	7
378.159	1	23
378.329	1	17
378.500	1	8
378.671	1	10
378.842	1	0
379.013	1	7
379.184	1	7
379.354	1	7
379.525	1	13
379.696	1	26
379.867	1	9
380.038	1	26
380.209	1	10
380.379	1	16
380.550	1	15
380.721	1	-2
380.892	1	2
381.063	1	16
381.233	1	11
381.404	1	11
381.575	1	9
381.746	1	13
381.917	1	21
382.087	1	14
382.258	1	23
382.429	1	3
382.600	1	12
382.771	1	15
382.941	1	25
383.112	1	12
383.283	1	26
383.454	1	4
383.625	1	2
383.795	1	11
383.966	1	10
384.137	1	18
384.308	1	-3
384.479	1	9
384.649	1	19
384.820	1	27
384.991	1	8
385.162	1	15
385.333	1	22
385.503	1	11
385.674	1	-10
385.845	1	18
386.016	1	13
386.187	1	13
386.357	1	13
386.528	1	2
386.699	1	13
386.870	1	9
387.041	1	28
387.211	1	18
387.382	1	7
387.553	1	10
387.724	1	27
387.894	1	11
388.065	1	5
388.236	1	14
388.407	1	19
388.578	1	13
388.748	1	17
388.919	1	9
389.090	1	20
389.261	1	14
389.431	1	17
389.602	1	24
389.773	1	27
389.944	1	26
390.114	1	22
390.285	1	3
390.456	1	7
390.627	1	13
390.798	1	13
390.968	1	23
391.139	1	8
391.310	1	19
391.481	1	19
391.651	1	16
391.822	1	16
391.993	1	11
392.164	1	15
392.334	1	11
392.505	1	12
392.676	1	25
392.847	1	17
393.017	1	17
393.188	1	28
393.359	1	13
393.530	1	14
393.700	1	2
393.871	1	18
394.042	1	18
394.213	1	11
394.383	1	11
394.554	1	30
394.725	1	14
394.896	1	10
395.066	1	14
395.237	1	14
395.408	1	17
395.579	1	14
395.749	1	19
395.920	1	20
396.091	1	17
396.262	1	8
396.432	1	19
396.603	1	17
396.774	1	16
396.945	1	19
397.115	1	5
397.286	1	9
397.457	1	10
397.627	1	10
397.798	1	19
397.969	1	28
398.140	1	16
398.310	1	19
398.481	1	10
398.652	1	13
398.823	1	20
398.993	1	11
399.164	1	17
399.335	1	9
399.505	1	14
399.676	1	12
399.847	1	12
400.018	1	22
400.188	1	11
400.359	1	19
400.530	1	18
400.700	1	11
400.871	1	10
401.042	1	20
401.213	1	5
401.383	1	20
401.554	1	17
401.725	1	22
401.895	1	13
402.066	1	13
402.237	1	18
402.408	1	18
402.578	1	9
402.749	1	18
402.920	1	24
403.090	1	8
403.261	1	25
403.432	1	22
403.603	1	16
403.773	1	23
403.944	1	19
404.115	1	18
404.285	1	13
404.456	1	12
404.627	1	17
404.797	1	18
404.968	1	18
405.139	1	29
405.310	1	18
405.480	1	22
405.651	1	16
405.822	1	19
405.992	1	19
406.163	1	27
406.334	1	28
406.504	1	20
406.675	1	36
406.846	1	15
407.016	1	25
407.187	1	16
407.358	1	22
407.528	1	17
407.699	1	11
407.870	1	18
408.041	1	23
408.211	1	12
408.382	1	25
408.553	1	27
408.723	1	30
408.894	1	5
409.065	1	9
409.235	1	33
409.406	1	10
409.577	1	12
409.747	1	17
409.918	1	17
410.089	1	17
410.259	1	13
410.430	1	17
410.601	1	17
410.771	1	18
410.942	1	18
411.113	1	28
411.283	1	15
411.454	1	18
411.625	1	22
411.795	1	11
411.966	1	36
412.137	1	20
412.307	1	19
412.478	1	21
412.649	1	21
412.819	1	18
412.990	1	26
413.161	1	23
413.331	1	19
413.502	1	17
413.672	1	23
413.843	1	21
414.014	1	26
414.184	1	14
414.355	1	23
414.526	1	15
414.696	1	22
414.867	1	20
415.038	1	28
415.208	1	22
415.379	1	32
415.550	1	27
415.720	1	0
415.891	1	24
416.062	1	18
416.232	1	11
416.403	1	25
416.573	1	28
416.744	1	27
416.915	1	35
417.085	1	19
417.256	1	21
417.427	1	12
417.597	1	24
417.768	1	17
417.939	1	21
418.109	1	25
418.280	1	18
418.450	1	19
418.621	1	19
418.792	1	23
418.962	1	14
419.133	1	20
419.304	1	19
419.474	1	18
419.645	1	24
419.815	1	20
419.986	1	22
420.157	1	23
420.327	1	19
420.498	1	27
420.669	1	20
420.839	1	19
421.010	1	15
421.180	1	17
421.351	1	27
421.522	1	20
421.692	1	24
421.863	1	20
422.033	1	7
422.204	1	27
422.375	1	8
422.545	1	25
422.716	1	17
422.886	1	17
423.057	1	22
423.228	1	19
423.398	1	29
423.569	1	18
423.740	1	24
423.910	1	18
424.081	1	26
424.251	1	19
424.422	1	17
424.593	1	15
424.763	1	32
424.934	1	20
425.104	1	14
425.275	1	27
425.445	1	18
425.616	1	20
425.787	1	21
425.957	1	12
426.128	1	22
426.298	1	34
426.469	1	13
426.640	1	23
426.810	1	33
426.981	1	22
427.151	1	16
427.322	1	33
427.493	1	19
427.663	1	27
427.834	1	13
428.004	1	8
428.175	1	37
428.345	1	17
428.516	1	21
428.687	1	23
428.857	1	23
429.028	1	18
429.198	1	27
429.369	1	13
429.540	1	20
429.710	1	20
429.881	1	9
430.051	1	25
430.222	1	23
430.392	1	13
430.563	1	21
430.734	1	18
430.904	1	22
431.075	1	26
431.245	1	24
431.416	1	28
431.586	1	10
431.757	1	16
431.927	1	32
432.098	1	10
432.269	1	19
432.439	1	26
432.610	1	32
432.780	1	11
432.951	1	18
433.121	1	27
433.292	1	9
433.462	1	23
433.633	1	11
433.804	1	19
433.974	1	22
434.145	1	20
434.315	1	14
434.486	1	29
434.656	1	22
434.827	1	16
434.997	1	21
435.168	1	23
435.339	1	11
435.509	1	16
435.680	1	21
435.850	1	23
436.021	1	30
436.191	1	30
436.362	1	22
436.532	1	27
436.703	1	15
436.873	1	16
437.044	1	12
437.214	1	9
437.385	1	17
437.556	1	20
437.726	1	19
437.897	1	22
438.067	1	10
438.238	1	14
438.408	1	16
438.579	1	22
438.749	1	14
438.920	1	23
439.090	1	15
439.261	1	23
439.431	1	18
439.602	1	15
439.772	1	25
439.943	1	23
440.113	1	31
440.284	1	13
440.455	1	20
440.625	1	28
440.796	1	21
440.966	1	14
441.137	1	22
441.307	1	23
441.478	1	20
441.648	1	22
441.819	1	22
441.989	1	23
442.160	1	2
442.330	1	22
442.501	1	23
442.671	1	20
442.842	1	30
443.012	1	20
443.183	1	19
443.353	1	20
443.524	1	7
443.694	1	17
443.865	1	22
444.035	1	18
444.206	1	22
444.376	1	12
444.547	1	39
444.717	1	17
444.888	1	24
445.058	1	23
445.229	1	10
445.399	1	16
445.570	1	23
445.740	1	11
445.911	1	28
446.081	1	32
446.252	1	23
446.422	1	16
446.593	1	10
446.763	1	13
446.934	1	26
447.104	1	18
447.275	1	28
447.445	1	21
447.616	1	22
447.786	1	16
447.957	1	21
448.127	1	27
448.298	1	12
448.468	1	13
448.639	1	15
448.809	1	26
448.979	1	11
449.150	1	16
449.320	1	19
449.491	1	21
449.661	1	22
449.832	1	17
450.002	1	19
450.173	1	5
450.343	1	21
450.514	1	15
450.684	1	13
450.855	1	30
451.025	1	17
451.196	1	21
451.366	1	22
451.537	1	17
451.707	1	16
451.878	1	5
452.048	1	14
452.218	1	19
452.389	1	8
452.559	1	9
452.730	1	23
452.900	1	17
453.071	1	16
453.241	1	25
453.412	1	22
453.582	1	21
453.753	1	12
453.923	1	13
454.093	1	23
454.264	1	17
454.434	1	15
454.605	1	22
454.775	1	19
454.946	1	24
455.116	1	17
455.287	1	5
455.457	1	21
455.628	1	17
455.798	1	26
455.968	1	17
456.139	1	2
456.309	1	20
456.480	1	23
456.650	1	26
456.821	1	23
456.991	1	19
457.161	1	30
457.332	1	14
457.502	1	16
457.673	1	13
457.843	1	15
458.014	1	16
458.184	1	12
458.355	1	17
458.525	1	4
458.695	1	14
458.866	1	13
459.036	1	11
459.207	1	12
459.377	1	26
459.548	1	3
459.718	1	4
459.888	1	22
460.059	1	16
460.229	1	9
460.400	1	18
460.570	1	17
460.740	1	12
460.911	1	14
461.081	1	1
461.252	1	21
461.422	1	15
461.593	1	5
461.763	1	24
461.933	1	16
462.104	1	15
462.274	1	18
462.445	1	5
462.615	1	8
462.785	1	9
462.956	1	7
463.126	1	4
463.297	1	19
463.467	1	24
463.638	1	9
463.808	1	7
463.978	1	20
464.149	1	11
464.319	1	10
464.490	1	16
464.660	1	15
464.830	1	15
465.001	1	21
465.171	1	10
465.342	1	24
465.512	1	16
465.682	1	22
465.853	1	16
466.023	1	18
466.194	1	14
466.364	1	28
466.534	1	19
466.705	1	22
466.875	1	12
467.045	1	5
467.216	1	19
467.386	1	9
467.557	1	11
467.727	1	16
467.897	1	13
468.068	1	24
468.238	1	11
468.409	1	12
468.579	1	8
468.749	1	6
468.920	1	7
469.090	1	10
469.260	1	4
469.431	1	9
469.601	1	10
469.772	1	10
469.942	1	21
470.112	1	23
470.283	1	29
470.453	1	13
470.623	1	10
470.794	1	13
470.964	1	3
471.135	1	13
471.305	1	9
471.475	1	12
471.646	1	12
471.816	1	18
471.986	1	15
472.157	1	11
472.327	1	6
472.497	1	5
472.668	1	10
472.838	1	8
473.009	1	23
473.179	1	19
473.349	1	17
473.520	1	8
473.690	1	17
473.860	1	17
474.031	1	17
474.201	1	14
474.371	1	8
474.542	1	27
474.712	1	7
474.882	1	24
475.053	1	23
475.223	1	14
475.394	1	17
475.564	1	7
475.734	1	7
475.905	1	13
476.075	1	11
476.245	1	16
476.416	1	15
476.586	1	17
476.756	1	16
476.927	1	17
477.097	1	12
477.267	1	16
477.438	1	1
477.608	1	6
477.778	1	22
477.949	1	8
478.119	1	18
478.289	1	13
478.460	1	14
478.630	1	7
478.800	1	2
478.971	1	17
479.141	1	2
479.311	1	19
479.482	1	11
479.652	1	10
479.822	1	4
479.993	1	8
480.163	1	7
480.333	1	16
480.504	1	20
480.674	1	8
480.844	1	9
481.015	1	5
481.185	1	26
481.355	1	1
481.525	1	9
481.696	1	5
481.866	1	19
482.036	1	5
482.207	1	5
482.377	1	13
482.547	1	14
482.718	1	3
482.888	1	5
483.058	1	13
483.229	1	7
483.399	1	14
483.569	1	10
483.740	1	-1
483.910	1	-2
484.080	1	1
484.250	1	11
484.421	1	9
484.591	1	5
484.761	1	15
484.932	1	14
485.102	1	13
485.272	1	13
485.443	1	2
485.613	1	7
485.783	1	3
485.953	1	0
486.124	1	0
486.294	1	11
486.464	1	16
486.635	1	10
486.805	1	-1
486.975	1	6
487.146	1	6
487.316	1	18
487.486	1	9
487.656	1	2
487.827	1	16
487.997	1	6
488.167	1	4
488.338	1	2
488.508	1	7
488.678	1	2
488.848	1	1
489.019	1	12
489.189	1	12
489.359	1	14
489.529	1	12
489.700	1	5
489.870	1	0
490.040	1	1
490.211	1	6
490.381	1	7
490.551	1	0
490.721	1	12
490.892	1	17
491.062	1	12
491.232	1	-3
491.402	1	9
491.573	1	14
491.743	1	0
491.913	1	5
492.084	1	10
492.254	1	15
492.424	1	-5
492.594	1	20
492.765	1	10
492.935	1	19
493.105	1	2
493.275	1	11
493.446	1	9
493.616	1	8
493.786	1	12
493.956	1	4
494.127	1	-3
494.297	1	9
494.467	1	8
494.637	1	17
494.808	1	4
494.978	1	-3
495.148	1	8
495.318	1	-1
495.489	1	5
495.659	1	13
495.829	1	16
495.999	1	12
496.170	1	17
496.340	1	12
496.510	1	3
496.680	1	2
496.851	1	1
497.021	1	10
497.191	1	7
497.361	1	9
497.532	1	7
497.702	1	11
497.872	1	2
498.042	1	11
498.213	1	0
498.383	1	14
498.553	1	3
498.723	1	4
498.894	1	10
499.064	1	13
499.234	1	-5
499.404	1	13
499.574	1	8
499.745	1	12
499.915	1	-3
500.085	1	2
500.255	1	16
500.426	1	4
500.596	1	4
500.766	1	9
500.936	1	11
501.106	1	14
501.277	1	18
501.447	1	4
501.617	1	0
501.787	1	20
501.958	1	6
502.128	1	12
502.298	1	11
502.468	1	17
502.638	1	3
502.809	1	-2
502.979	1	-5
503.149	1	5
503.319	1	11
503.489	1	7
503.660	1	7
503.830	1	12
504.000	1	3
504.170	1	3
504.340	1	11
504.511	1	4
504.681	1	11
504.851	1	5
505.021	1	-7
505.192	1	3
505.362	1	7
505.532	1	-2
505.702	1	-5
505.872	1	5
506.043	1	4
506.213	1	9
506.383	1	18
506.553	1	3
506.723	1	11
506.893	1	4
507.064	1	3
507.234	1	-3
507.404	1	8
507.574	1	7
507.744	1	-1
507.915	1	-1
508.085	1	2
508.255	1	4
508.425	1	7
508.595	1	-1
508.766	1	5
508.936	1	5
509.106	1	10
509.276	1	16
509.446	1	5
509.616	1	8
509.787	1	8
509.957	1	0
510.127	1	0
510.297	1	13
510.467	1	4
510.638	1	11
510.808	1	-6
510.978	1	6
511.148	1	1
511.318	1	7
511.488	1	11
511.659	1	3
511.829	1	0
511.999	1	3
512.169	1	2
512.339	1	4
512.509	1	4
512.680	1	-6
512.850	1	4
513.020	1	8
513.190	1	5
513.360	1	5
513.530	1	7
513.700	1	7
513.871	1	0
514.041	1	8
514.211	1	-2
514.381	1	9
514.551	1	3
514.721	1	0
514.892	1	1
515.062	1	10
515.232	1	13
515.402	1	8
515.572	1	1
515.742	1	9
515.912	1	-2
516.083	1	6
516.253	1	1
516.423	1	-2
516.593	1	3
516.763	1	11
516.933	1	8
517.104	1	9
517.274	1	13
517.444	1	8
517.614	1	9
517.784	1	7
517.954	1	2
518.124	1	-4
518.294	1	1
518.465	1	3
518.635	1	6
518.805	1	1
518.975	1	-2
519.145	1	7
519.315	1	4
519.485	1	4
519.656	1	2
519.826	1	-2
519.996	1	5
520.166	1	2
520.336	1	-5
520.506	1	11
520.676	1	16
520.846	1	4
521.017	1	-3
521.187	1	1
521.357	1	6
521.527	1	5
521.697	1	12
521.867	1	3
522.037	1	3
522.207	1	5
522.377	1	10
522.548	1	14
522.718	1	5
522.888	1	5
523.058	1	1
523.228	1	-3
523.398	1	11
523.568	1	3
523.738	1	-4
523.909	1	15
524.079	1	-4
524.249	1	9
524.419	1	-4
524.589	1	10
524.759	1	3
524.929	1	-4
525.099	1	-5
525.269	1	-5
525.439	1	16
525.610	1	-8
525.780	1	6
525.950	1	15
526.120	1	4
526.290	1	4
526.460	1	10
526.630	1	3
526.800	1	11
526.970	1	9
527.140	1	10
527.311	1	15
527.481	1	6
527.651	1	2
527.821	1	0
527.991	1	6
528.161	1	3
528.331	1	4
528.501	1	-6
528.671	1	7
528.841	1	15
529.011	1	9
529.181	1	3
529.352	1	7
529.522	1	2
529.692	1	-4
529.862	1	8
530.032	1	3
530.202	1	3
530.372	1	5
530.542	1	3
530.712	1	20
530.882	1	16
531.052	1	5
531.222	1	2
531.392	1	5
531.563	1	-6
531.733	1	-1
531.903	1	14
532.073	1	5
532.243	1	15
532.413	1	-11
532.583	1	7
532.753	1	11
532.923	1	4
533.093	1	0
533.263	1	1
533.433	1	-1
533.603	1	-1
533.773	1	-7
533.943	1	-3
534.113	1	5
534.284	1	-15
534.454	1	10
534.624	1	3
534.794	1	9
534.964	1	5
535.134	1	14
535.304	1	13
535.474	1	-1
535.644	1	6
535.814	1	-4
535.984	1	1
536.154	1	2
536.324	1	-5
536.494	1	7
536.664	1	-4
536.834	1	10
537.004	1	9
537.174	1	6
537.344	1	11
537.514	1	6
537.685	1	2
537.855	1	-3
538.025	1	-2
538.195	1	0
538.365	1	12
538.535	1	-4
538.705	1	3
538.875	1	2
539.045	1	6
539.215	1	7
539.385	1	-6
539.555	1	6
539.725	1	-1
539.895	1	8
540.065	1	4
540.235	1	4
540.405	1	-2
540.575	1	-2
540.745	1	0
540.915	1	8
541.085	1	6
541.255	1	11
541.425	1	-8
541.595	1	11
541.765	1	18
541.935	1	2
542.105	1	-8
542.275	1	0
542.445	1	9
542.615	1	0
542.785	1	7
542.955	1	-9
543.125	1	11
543.295	1	4
543.465	1	3
543.635	1	3
543.805	1	0
543.975	1	-10
544.145	1	7
544.315	1	-3
544.485	1	6
544.655	1	6
544.825	1	4
544.995	1	6
545.165	1	5
545.335	1	-10
545.505	1	3
545.675	1	-9
545.845	1	9
546.015	1	-3
546.185	1	8
546.355	1	6
546.525	1	5
546.695	1	3
546.865	1	7
547.035	1	-2
547.205	1	3
547.375	1	0
547.545	1	2
547.715	1	7
547.885	1	3
548.055	1	2
548.225	1	9
548.395	1	-5
548.565	1	11
548.735	1	1
548.905	1	10
549.075	1	-3
549.245	1	8
549.415	1	-2
549.585	1	-2
549.755	1	10
549.925	1	2
550.095	1	3
550.265	1	11
550.435	1	7
550.605	1	-1
550.775	1	6
550.945	1	7
551.115	1	9
551.285	1	-4
551.455	1	12
551.625	1	0
551.795	1	5
551.965	1	2
552.135	1	4
552.305	1	12
552.475	1	1
552.645	1	0
552.815	1	8
552.985	1	-1
553.155	1	5
553.325	1	-1
553.495	1	8
553.665	1	4
553.835	1	5
554.004	1	0
554.174	1	1
554.344	1	1
554.514	1	6
554.684	1	-8
554.854	1	0
555.024	1	-1
555.194	1	1
555.364	1	1
555.534	1	-5
555.704	1	4
555.874	1	0
556.044	1	-6
556.214	1	8
556.384	1	13
556.554	1	-3
556.724	1	1
556.894	1	6
557.064	1	1
557.234	1	-1
557.404	1	1
557.573	1	-3
557.743	1	-1
557.913	1	11
558.083	1	-1
558.253	1	1
558.423	1	3
558.593	1	5
558.763	1	9
558.933	1	6
559.103	1	7
559.273	1	0
559.443	1	7
559.613	1	4
559.783	1	0
559.953	1	2
560.122	1	-3
560.292	1	10
560.462	1	-2
560.632	1	-6
560.802	1	5
560.972	1	-3
561.142	1	4
561.312	1	-4
561.482	1	-7
561.652	1	0
561.822	1	-1
561.992	1	-2
562.162	1	7
562.331	1	2
562.501	1	-4
562.671	1	6
562.841	1	-3
563.011	1	8
563.181	1	7
563.351	1	7
563.521	1	-3
563.691	1	1
563.861	1	9
564.031	1	7
564.201	1	8
564.370	1	5
564.540	1	4
564.710	1	-3
564.880	1	-2
565.050	1	12
565.220	1	6
565.390	1	3
565.560	1	1
565.730	1	2
565.900	1	6
566.069	1	-7
566.239	1	-2
566.409	1	1
566.579	1	4
566.749	1	-10
566.919	1	-4
567.089	1	5
567.259	1	8
567.429	1	3
567.599	1	9
567.768	1	2
567.938	1	-4
568.108	1	3
568.278	1	10
568.448	1	-4
568.618	1	0
568.788	1	0
568.958	1	8
569.128	1	5
569.297	1	7
569.467	1	-5
569.637	1	5
569.807	1	1
569.977	1	1
570.147	1	4
570.317	1	-4
570.487	1	-1
570.656	1	-11
570.826	1	2
570.996	1	-9
571.166	1	14
571.336	1	4
571.506	1	8
571.676	1	12
571.846	1	7
572.015	1	2
572.185	1	12
572.355	1	5
572.525	1	-11
572.695	1	1
572.865	1	-10
573.035	1	5
573.205	1	-1
573.374	1	5
573.544	1	11
573.714	1	-6
573.884	1	1
574.054	1	-1
574.224	1	-4
574.394	1	-4
574.563	1	1
574.733	1	6
574.903	1	9
575.073	1	3
575.243	1	4
575.413	1	-4
575.583	1	3
575.752	1	3
575.922	1	-9
576.092	1	0
576.262	1	2
576.432	1	9
576.602	1	-11
576.772	1	10
576.941	1	7
577.111	1	-11
577.281	1	-2
577.451	1	-11
577.621	1	0
577.791	1	1
577.960	1	-1
578.130	1	2
578.300	1	-8
578.470	1	-1
578.640	1	6
578.810	1	-5
578.979	1	2
579.149	1	1
579.319	1	-1
579.489	1	-11
579.659	1	-14
579.829	1	8
579.998	1	5
580.168	1	1
580.338	1	2
580.508	1	5
580.678	1	6
580.848	1	5
581.017	1	7
581.187	1	6
581.357	1	-8
581.527	1	2
581.697	1	4
581.867	1	3
582.036	1	-7
582.206	1	9
582.376	1	0
582.546	1	-5
582.716	1	3
582.885	1	-4
583.055	1	1
583.225	1	-5
583.395	1	14
583.565	1	7
583.735	1	4
583.904	1	-3
584.074	1	-13
584.244	1	-6
584.414	1	6
584.584	1	5
584.753	1	0
584.923	1	8
585.093	1	2
585.263	1	1
585.433	1	-10
585.602	1	-3
585.772	1	0
585.942	1	-1
586.112	1	-3
586.282	1	7
586.451	1	7
586.621	1	11
586.791	1	3
586.961	1	-1
587.131	1	-4
587.300	1	-1
587.470	1	-6
587.640	1	5
587.810	1	9
587.980	1	-4
588.149	1	2
588.319	1	9
588.489	1	1
588.659	1	0
588.829	1	5
588.998	1	1
589.168	1	16
589.338	1	1
589.508	1	4
589.677	1	4
589.847	1	5
590.017	1	4
590.187	1	2
590.357	1	13
590.526	1	-12
590.696	1	0
590.866	1	-1
591.036	1	-2
591.205	1	3
591.375	1	-7
591.545	1	1
591.715	1	1
591.885	1	8
592.054	1	-1
592.224	1	0
592.394	1	-4
592.564	1	4
592.733	1	-8
592.903	1	6
593.073	1	-8
593.243	1	16
593.412	1	8
593.582	1	1
593.752	1	-1
593.922	1	3
594.091	1	2
594.261	1	-3
594.431	1	14
594.601	1	-7
594.771	1	12
594.940	1	14
595.110	1	9
595.280	1	-2
595.450	1	-2
595.619	1	6
595.789	1	3
595.959	1	9
596.129	1	-6
596.298	1	13
596.468	1	1
596.638	1	-1
596.808	1	3
596.977	1	1
597.147	1	-9
597.317	1	-5
597.487	1	1
597.656	1	-5
597.826	1	12
597.996	1	5
598.166	1	10
598.335	1	-7
598.505	1	14
598.675	1	2
598.844	1	-2
599.014	1	4
599.184	1	3
599.354	1	8
599.523	1	6
599.693	1	8
599.863	1	2
600.033	1	8
600.202	1	11
600.372	1	4
600.542	1	4
600.712	1	5
600.881	1	-8
601.051	1	3
601.221	1	6
601.390	1	-8
601.560	1	7
601.730	1	4
601.900	1	14
602.069	1	6
602.239	1	6
602.409	1	-1
602.578	1	0
602.748	1	-3
602.918	1	5
603.088	1	4
603.257	1	-1
603.427	1	-2
603.597	1	3
603.767	1	9
603.936	1	-6
604.106	1	9
604.276	1	10
604.445	1	5
604.615	1	7
604.785	1	1
604.954	1	15
605.124	1	2
605.294	1	2
605.464	1	4
605.633	1	5
605.803	1	10
605.973	1	12
606.142	1	5
606.312	1	2
606.482	1	2
606.652	1	-3
606.821	1	-3
606.991	1	3
607.161	1	1
607.330	1	-1
607.500	1	5
607.670	1	3
607.839	1	12
608.009	1	7
608.179	1	3
608.348	1	-2
608.518	1	0
608.688	1	2
608.858	1	-1
609.027	1	-4
609.197	1	-9
609.367	1	4
609.536	1	1
609.706	1	2
609.876	1	12
610.045	1	8
610.215	1	6
610.385	1	-10
610.554	1	0
610.724	1	-5
610.894	1	7
611.063	1	-3
611.233	1	13
611.403	1	12
611.572	1	7
611.742	1	5
611.912	1	13
612.081	1	7
612.251	1	16
612.421	1	11
612.590	1	-2
612.760	1	10
612.930	1	-3
613.099	1	8
613.269	1	1
613.439	1	0
613.608	1	13
613.778	1	-6
613.948	1	20
614.117	1	5
614.287	1	-2
614.457	1	-13
614.626	1	4
614.796	1	-1
614.966	1	4
615.135	1	2
615.305	1	13
615.475	1	4
615.644	1	7
615.814	1	-6
615.984	1	6
616.153	1	5
616.323	1	9
616.493	1	16
616.662	1	11
616.832	1	3
617.002	1	3
617.171	1	-8
617.341	1	-1
617.511	1	11
617.680	1	12
617.850	1	7
618.019	1	1
618.189	1	8
618.359	1	-1
618.528	1	7
618.698	1	18
618.868	1	-4
619.037	1	8
619.207	1	9
619.377	1	1
619.546	1	2
619.716	1	7
619.885	1	9
620.055	1	8
620.225	1	6
620.394	1	8
620.564	1	7
620.734	1	4
620.903	1	0
621.073	1	4
621.242	1	5
621.412	1	7
621.582	1	1
621.751	1	5
621.921	1	6
622.091	1	6
622.260	1	6
622.430	1	0
622.599	1	-4
622.769	1	12
622.939	1	13
623.108	1	9
623.278	1	6
623.448	1	6
623.617	1	-3
623.787	1	5
623.956	1	0
624.126	1	8
624.296	1	5
624.465	1	4
624.635	1	11
624.804	1	-7
624.974	1	12
625.144	1	3
625.313	1	-2
625.483	1	20
625.652	1	3
625.822	1	-3
625.992	1	10
626.161	1	11
626.331	1	5
626.501	1	2
626.670	1	19
626.840	1	16
627.009	1	8
627.179	1	15
627.348	1	20
627.518	1	16
627.688	1	10
627.857	1	19
628.027	1	6
628.196	1	0
628.366	1	3
628.536	1	9
628.705	1	4
628.875	1	15
629.044	1	-3
629.214	1	11
629.384	1	0
629.553	1	4
629.723	1	-6
629.892	1	13
630.062	1	4
630.232	1	9
630.401	1	19
630.571	1	4
630.740	1	8
630.910	1	19
631.079	1	2
631.249	1	2
631.419	1	-6
631.588	1	5
631.758	1	9
631.927	1	11
632.097	1	6
632.266	1	9
632.436	1	9
632.606	1	4
632.775	1	10
632.945	1	9
633.114	1	5
633.284	1	-11
633.453	1	2
633.623	1	6
633.793	1	-3
633.962	1	8
634.132	1	6
634.301	1	15
634.471	1	-4
634.640	1	-3
634.810	1	-3
634.979	1	8
635.149	1	4
635.319	1	15
635.488	1	15
635.658	1	9
635.827	1	4
635.997	1	6
636.166	1	3
636.336	1	-1
636.505	1	10
636.675	1	11
636.845	1	3
637.014	1	1
637.184	1	6
637.353	1	6
637.523	1	6
637.692	1	15
637.862	1	4
638.031	1	5
638.201	1	8
638.370	1	5
638.540	1	4
638.710	1	16
638.879	1	15
639.049	1	10
639.218	1	-2
639.388	1	14
639.557	1	12
639.727	1	6
639.896	1	7
640.066	1	13
640.235	1	16
640.405	1	-1
640.574	1	11
640.744	1	18
640.914	1	9
641.083	1	4
641.253	1	13
641.422	1	8
641.592	1	-2
641.761	1	9
641.931	1	5
642.100	1	3
642.270	1	3
642.439	1	8
642.609	1	13
642.778	1	4
642.948	1	3
643.117	1	11
643.287	1	11
643.456	1	9
643.626	1	17
643.795	1	5
643.965	1	5
644.134	1	8
644.304	1	5
644.473	1	8
644.643	1	7
644.812	1	20
644.982	1	7
645.151	1	11
645.321	1	-5
645.490	1	1
645.660	1	-1
645.829	1	10
645.999	1	9
646.168	1	2
646.338	1	3
646.507	1	12
646.677	1	13
646.846	1	2
647.016	1	16
647.185	1	-2
647.355	1	11
647.524	1	8
647.694	1	5
647.863	1	-1
648.033	1	-1
648.202	1	14
648.372	1	15
648.541	1	8
648.711	1	11
648.880	1	4
649.050	1	9
649.219	1	-5
649.389	1	10
649.558	1	10
649.728	1	6
649.897	1	7
650.067	1	17
650.236	1	13
650.406	1	3
650.575	1	0
650.745	1	5
650.914	1	4
651.084	1	2
651.253	1	12
651.423	1	16
651.592	1	12
651.762	1	10
651.931	1	8
652.101	1	6
652.270	1	13
652.440	1	3
652.609	1	15
652.778	1	3
652.948	1	3
653.117	1	-5
653.287	1	11
653.456	1	5
653.626	1	-2
653.795	1	13
653.965	1	10
654.134	1	14
654.304	1	8
654.473	1	5
654.643	1	5
654.812	1	6
654.982	1	6
655.151	1	2
655.320	1	1
655.490	1	7
655.659	1	6
655.829	1	12
655.998	1	0
656.168	1	11
656.337	1	10
656.507	1	3
656.676	1	13
656.846	1	3
657.015	1	-1
657.184	1	4
657.354	1	8
657.523	1	5
657.693	1	8
657.862	1	-1
658.032	1	-2
658.201	1	1
658.371	1	2
658.540	1	-11
658.709	1	-2
658.879	1	-17
659.048	1	15
659.218	1	11
659.387	1	0
659.557	1	7
659.726	1	13
659.895	1	11
660.065	1	1
660.234	1	11
660.404	1	16
660.573	1	13
660.743	1	15
660.912	1	8
661.081	1	19
661.251	1	5
661.420	1	7
661.590	1	-2
661.759	1	10
661.929	1	4
662.098	1	-10
662.267	1	-5
662.437	1	11
662.606	1	9
662.776	1	14
662.945	1	7
663.115	1	14
663.284	1	6
663.453	1	0
663.623	1	5
663.792	1	5
663.962	1	4
664.131	1	6
664.300	1	8
664.470	1	5
664.639	1	0
664.809	1	4
664.978	1	3
665.148	1	2
665.317	1	2
665.486	1	0
665.656	1	8
665.825	1	4
665.995	1	6
666.164	1	1
666.333	1	8
666.503	1	6
666.672	1	7
666.842	1	-1
667.011	1	8
667.180	1	6
667.350	1	16
667.519	1	12
667.689	1	3
667.858	1	14
668.027	1	22
668.197	1	7
668.366	1	14
668.536	1	9
668.705	1	7
668.874	1	7
669.044	1	12
669.213	1	3
669.382	1	11
669.552	1	13
669.721	1	20
669.891	1	2
670.060	1	13
670.229	1	6
670.399	1	3
670.568	1	-3
670.738	1	-1
670.907	1	10
671.076	1	10
671.246	1	10
671.415	1	8
671.584	1	2
671.754	1	8
671.923	1	3
672.093	1	3
672.262	1	14
672.431	1	-8
672.601	1	4
672.770	1	3
672.939	1	8
673.109	1	8
673.278	1	12
673.448	1	0
673.617	1	-2
673.786	1	2
