325.333	1	8
325.504	1	8
325.675	1	1
325.846	1	1
326.017	1	11
326.188	1	5
326.359	1	-1
326.531	1	0
326.702	1	6
326.873	1	12
327.044	1	16
327.215	1	2
327.386	1	15
327.557	1	7
327.728	1	12
327.899	1	12
328.070	1	11
328.241	1	7
328.412	1	5
328.583	1	5
328.754	1	-5
328.926	1	12
329.097	1	13
329.268	1	8
329.439	1	12
329.610	1	18
329.781	1	2
329.952	1	11
330.123	1	6
330.294	1	-8
330.465	1	-4
330.636	1	5
330.807	1	13
330.978	1	9
331.149	1	8
331.320	1	10
331.492	1	17
331.663	1	4
331.834	1	6
332.005	1	9
332.176	1	6
332.347	1	16
332.518	1	8
332.689	1	8
332.860	1	4
333.031	1	4
333.202	1	4
333.373	1	3
333.544	1	1
333.715	1	4
333.886	1	4
334.057	1	-2
334.228	1	15
334.399	1	16
334.570	1	13
334.741	1	6
334.912	1	3
335.084	1	7
335.255	1	4
335.426	1	2
335.597	1	11
335.768	1	11
335.939	1	5
336.110	1	0
336.281	1	3
336.452	1	-1
336.623	1	11
336.794	1	9
336.965	1	8
337.136	1	10
337.307	1	6
337.478	1	10
337.649	1	10
337.820	1	3
337.991	1	11
338.162	1	11
338.333	1	10
338.504	1	6
338.675	1	3
338.846	1	11
339.017	1	3
339.188	1	0
339.359	1	12
339.530	1	8
339.701	1	11
339.872	1	6
340.043	1	-6
340.214	1	3
340.385	1	5
340.556	1	8
340.727	1	9
340.898	1	14
341.069	1	11
341.240	1	2
341.411	1	6
341.582	1	8
341.753	1	0
341.924	1	-4
342.095	1	18
342.266	1	13
342.437	1	12
342.608	1	13
342.779	1	5
342.950	1	7
343.121	1	10
343.292	1	14
343.463	1	6
343.634	1	2
343.805	1	7
343.976	1	4
344.147	1	1
344.318	1	8
344.489	1	17
344.660	1	12
344.831	1	10
345.002	1	8
345.173	1	-2
345.344	1	8
345.515	1	-3
345.686	1	17
345.857	1	1
346.028	1	5
346.199	1	6
346.370	1	11
346.541	1	-4
346.712	1	12
346.883	1	7
347.054	1	9
347.225	1	8
347.396	1	-5
347.567	1	22
347.738	1	-2
347.909	1	13
348.080	1	9
348.251	1	11
348.422	1	5
348.593	1	-8
348.764	1	-3
348.935	1	7
349.106	1	13
349.277	1	10
349.448	1	1
349.619	1	6
349.790	1	4
349.961	1	15
350.132	1	13
350.303	1	7
350.474	1	-4
350.645	1	11
350.816	1	-3
350.987	1	9
351.157	1	8
351.328	1	13
351.499	1	11
351.670	1	11
351.841	1	5
352.012	1	1
352.183	1	9
352.354	1	8
352.525	1	16
352.696	1	14
352.867	1	8
353.038	1	-1
353.209	1	11
353.380	1	-2
353.551	1	-2
353.722	1	5
353.893	1	4
354.064	1	13
354.235	1	12
354.406	1	11
354.576	1	10
354.747	1	6
354.918	1	3
355.089	1	-3
355.260	1	11
355.431	1	9
355.602	1	8
355.773	1	4
355.944	1	0
356.115	1	13
356.286	1	4
356.457	1	5
356.628	1	1
356.799	1	9
356.970	1	15
357.141	1	6
357.311	1	12
357.482	1	-4
357.653	1	6
357.824	1	3
357.995	1	5
358.166	1	3
358.337	1	12
358.508	1	12
358.679	1	13
358.850	1	2
359.021	1	5
359.192	1	9
359.363	1	18
359.533	1	-9
359.704	1	20
359.875	1	10
360.046	1	2
360.217	1	8
360.388	1	7
360.559	1	12
360.730	1	9
360.901	1	3
361.072	1	7
361.243	1	8
361.414	1	7
361.584	1	6
361.755	1	3
361.926	1	3
362.097	1	3
362.268	1	3
362.439	1	10
362.610	1	4
362.781	1	9
362.952	1	15
363.123	1	10
363.293	1	2
363.464	1	7
363.635	1	7
363.806	1	0
363.977	1	7
364.148	1	6
364.319	1	7
364.490	1	6
364.661	1	0
364.832	1	15
365.002	1	2
365.173	1	-1
365.344	1	12
365.515	1	5
365.686	1	-1
365.857	1	12
366.028	1	7
366.199	1	10
366.370	1	11
366.540	1	4
366.711	1	5
366.882	1	-3
367.053	1	-3
367.224	1	1
367.395	1	0
367.566	1	1
367.737	1	9
367.908	1	9
368.078	1	6
368.249	1	4
368.420	1	-4
368.591	1	6
368.762	1	-6
368.933	1	-8
369.104	1	18
369.274	1	-4
369.445	1	10
369.616	1	3
369.787	1	14
369.958	1	5
370.129	1	-3
370.300	1	7
370.471	1	2
370.641	1	11
370.812	1	7
370.983	1	2
371.154	1	0
371.325	1	4
371.496	1	2
371.667	1	7
371.837	1	0
372.008	1	-4
372.179	1	-2
372.350	1	4
372.521	1	8
372.692	1	11
372.863	1	-1
373.033	1	7
373.204	1	-3
373.375	1	5
373.546	1	10
373.717	1	-5
373.888	1	11
374.059	1	9
374.229	1	-2
374.400	1	-4
374.571	1	9
374.742	1	2
374.913	1	2
375.084	1	12
375.254	1	15
375.425	1	-2
375.596	1	5
375.767	1	8
375.938	1	4
376.109	1	5
376.279	1	4
376.450	1	12
376.621	1	-3
376.792	1	2
376.963	1	-1
377.134	1	13
377.304	1	8
377.475	1	0
377.646	1	6
377.817	1	-2
377.988	1	8
378.159	1	9
378.329	1	10
378.500	1	4
378.671	1	10
378.842	1	-3
379.013	1	12
379.184	1	5
379.354	1	7
379.525	1	4
379.696	1	2
379.867	1	3
380.038	1	13
380.209	1	5
380.379	1	1
380.550	1	7
380.721	1	1
380.892	1	5
381.063	1	16
381.233	1	6
381.404	1	5
381.575	1	-2
381.746	1	22
381.917	1	9
382.087	1	13
382.258	1	18
382.429	1	-1
382.600	1	3
382.771	1	4
382.941	1	13
383.112	1	-4
383.283	1	12
383.454	1	8
383.625	1	-4
383.795	1	7
383.966	1	-6
384.137	1	11
384.308	1	2
384.479	1	0
384.649	1	-3
384.820	1	15
384.991	1	2
385.162	1	9
385.333	1	7
385.503	1	3
385.674	1	-5
385.845	1	14
386.016	1	13
386.187	1	6
386.357	1	6
386.528	1	-5
386.699	1	10
386.870	1	3
387.041	1	24
387.211	1	2
387.382	1	9
387.553	1	16
387.724	1	8
387.894	1	6
388.065	1	8
388.236	1	6
388.407	1	6
388.578	1	3
388.748	1	6
388.919	1	2
389.090	1	21
389.261	1	10
389.431	1	8
389.602	1	9
389.773	1	15
389.944	1	12
390.114	1	22
390.285	1	4
390.456	1	3
390.627	1	6
390.798	1	-3
390.968	1	15
391.139	1	11
391.310	1	15
391.481	1	14
391.651	1	12
391.822	1	17
391.993	1	2
392.164	1	12
392.334	1	10
392.505	1	12
392.676	1	15
392.847	1	19
393.017	1	15
393.188	1	12
393.359	1	11
393.530	1	17
393.700	1	-2
393.871	1	13
394.042	1	4
394.213	1	11
394.383	1	8
394.554	1	22
394.725	1	4
394.896	1	5
395.066	1	12
395.237	1	6
395.408	1	16
395.579	1	3
395.749	1	1
395.920	1	7
396.091	1	10
396.262	1	-1
396.432	1	15
396.603	1	7
396.774	1	6
396.945	1	14
397.115	1	3
397.286	1	12
397.457	1	4
397.627	1	0
397.798	1	6
397.969	1	10
398.140	1	9
398.310	1	6
398.481	1	13
398.652	1	-5
398.823	1	10
398.993	1	4
399.164	1	16
399.335	1	7
399.505	1	1
399.676	1	10
399.847	1	8
400.018	1	19
400.188	1	11
400.359	1	13
400.530	1	14
400.700	1	11
400.871	1	4
401.042	1	13
401.213	1	6
401.383	1	14
401.554	1	10
401.725	1	10
401.895	1	6
402.066	1	18
402.237	1	12
402.408	1	17
402.578	1	5
402.749	1	4
402.920	1	7
403.090	1	-1
403.261	1	15
403.432	1	11
403.603	1	13
403.773	1	15
403.944	1	12
404.115	1	7
404.285	1	1
404.456	1	19
404.627	1	5
404.797	1	5
404.968	1	15
405.139	1	21
405.310	1	24
405.480	1	17
405.651	1	-5
405.822	1	8
405.992	1	8
406.163	1	17
406.334	1	13
406.504	1	17
406.675	1	25
406.846	1	16
407.016	1	21
407.187	1	7
407.358	1	17
407.528	1	8
407.699	1	-7
407.870	1	13
408.041	1	18
408.211	1	13
408.382	1	15
408.553	1	22
408.723	1	5
408.894	1	4
409.065	1	9
409.235	1	18
409.406	1	4
409.577	1	10
409.747	1	-5
409.918	1	3
410.089	1	9
410.259	1	11
410.430	1	15
410.601	1	11
410.771	1	20
410.942	1	3
411.113	1	10
411.283	1	17
411.454	1	15
411.625	1	16
411.795	1	3
411.966	1	26
412.137	1	14
412.307	1	12
412.478	1	9
412.649	1	7
412.819	1	16
412.990	1	7
413.161	1	17
413.331	1	14
413.502	1	15
413.672	1	17
413.843	1	12
414.014	1	23
414.184	1	12
414.355	1	15
414.526	1	1
414.696	1	10
414.867	1	16
415.038	1	7
415.208	1	11
415.379	1	21
415.550	1	24
415.720	1	-1
415.891	1	16
416.062	1	13
416.232	1	7
416.403	1	22
416.573	1	17
416.744	1	11
416.915	1	21
417.085	1	14
417.256	1	12
417.427	1	15
417.597	1	15
417.768	1	17
417.939	1	9
418.109	1	5
418.280	1	8
418.450	1	12
418.621	1	15
418.792	1	19
418.962	1	5
419.133	1	4
419.304	1	5
419.474	1	21
419.645	1	15
419.815	1	13
419.986	1	14
420.157	1	19
420.327	1	10
420.498	1	11
420.669	1	13
420.839	1	16
421.010	1	6
421.180	1	9
421.351	1	19
421.522	1	9
421.692	1	13
421.863	1	11
422.033	1	3
422.204	1	15
422.375	1	6
422.545	1	11
422.716	1	14
422.886	1	6
423.057	1	16
423.228	1	9
423.398	1	13
423.569	1	10
423.740	1	20
423.910	1	15
424.081	1	7
424.251	1	-1
424.422	1	6
424.593	1	4
424.763	1	17
424.934	1	23
425.104	1	17
425.275	1	14
425.445	1	9
425.616	1	9
425.787	1	17
425.957	1	0
426.128	1	12
426.298	1	23
426.469	1	5
426.640	1	13
426.810	1	24
426.981	1	16
427.151	1	15
427.322	1	20
427.493	1	16
427.663	1	14
427.834	1	11
428.004	1	11
428.175	1	24
428.345	1	11
428.516	1	16
428.687	1	24
428.857	1	11
429.028	1	15
429.198	1	14
429.369	1	16
429.540	1	6
429.710	1	10
429.881	1	2
430.051	1	16
430.222	1	4
430.392	1	4
430.563	1	17
430.734	1	20
430.904	1	5
431.075	1	13
431.245	1	14
431.416	1	22
431.586	1	-1
431.757	1	17
431.927	1	30
432.098	1	-1
432.269	1	15
432.439	1	21
432.610	1	21
432.780	1	6
432.951	1	11
433.121	1	13
433.292	1	17
433.462	1	10
433.633	1	7
433.804	1	7
433.974	1	11
434.145	1	17
434.315	1	16
434.486	1	12
434.656	1	17
434.827	1	7
434.997	1	11
435.168	1	13
435.339	1	4
435.509	1	6
435.680	1	6
435.850	1	4
436.021	1	17
436.191	1	11
436.362	1	16
436.532	1	13
436.703	1	14
436.873	1	6
437.044	1	6
437.214	1	7
437.385	1	9
437.556	1	-2
437.726	1	7
437.897	1	18
438.067	1	13
438.238	1	2
438.408	1	4
438.579	1	16
438.749	1	15
438.920	1	10
439.090	1	18
439.261	1	8
439.431	1	-1
439.602	1	5
439.772	1	4
439.943	1	10
440.113	1	9
440.284	1	11
440.455	1	15
440.625	1	27
440.796	1	17
440.966	1	-2
441.137	1	2
441.307	1	7
441.478	1	19
441.648	1	-2
441.819	1	12
441.989	1	18
442.160	1	1
442.330	1	17
442.501	1	9
442.671	1	11
442.842	1	15
443.012	1	12
443.183	1	18
443.353	1	13
443.524	1	1
443.694	1	13
443.865	1	19
444.035	1	11
444.206	1	11
444.376	1	11
444.547	1	19
444.717	1	7
444.888	1	15
445.058	1	5
445.229	1	13
445.399	1	2
445.570	1	5
445.740	1	15
445.911	1	15
446.081	1	9
446.252	1	9
446.422	1	9
446.593	1	12
446.763	1	0
446.934	1	9
447.104	1	6
447.275	1	14
447.445	1	19
447.616	1	16
447.786	1	11
447.957	1	0
448.127	1	9
448.298	1	6
448.468	1	-4
448.639	1	10
448.809	1	21
448.979	1	2
449.150	1	1
449.320	1	9
449.491	1	23
449.661	1	31
449.832	1	7
450.002	1	13
450.173	1	8
450.343	1	6
450.514	1	16
450.684	1	15
450.855	1	14
451.025	1	11
451.196	1	8
451.366	1	9
451.537	1	7
451.707	1	12
451.878	1	2
452.048	1	1
452.218	1	6
452.389	1	2
452.559	1	6
452.730	1	7
452.900	1	6
453.071	1	22
453.241	1	24
453.412	1	9
453.582	1	4
453.753	1	7
453.923	1	12
454.093	1	7
454.264	1	16
454.434	1	9
454.605	1	12
454.775	1	10
454.946	1	18
455.116	1	10
455.287	1	1
455.457	1	6
455.628	1	17
455.798	1	16
455.968	1	16
456.139	1	-2
456.309	1	5
456.480	1	11
456.650	1	20
456.821	1	18
456.991	1	10
457.161	1	9
457.332	1	7
457.502	1	7
457.673	1	16
457.843	1	2
458.014	1	16
458.184	1	3
458.355	1	6
458.525	1	4
458.695	1	2
458.866	1	15
459.036	1	4
459.207	1	13
459.377	1	7
459.548	1	8
459.718	1	21
459.888	1	16
460.059	1	10
460.229	1	10
460.400	1	20
460.570	1	13
460.740	1	7
460.911	1	5
461.081	1	-5
461.252	1	20
461.422	1	1
461.593	1	0
461.763	1	9
461.933	1	13
462.104	1	16
462.274	1	9
462.445	1	-4
462.615	1	15
462.785	1	-1
462.956	1	4
463.126	1	-2
463.297	1	15
463.467	1	23
463.638	1	0
463.808	1	7
463.978	1	4
464.149	1	9
464.319	1	2
464.490	1	18
464.660	1	8
464.830	1	7
465.001	1	14
465.171	1	6
465.342	1	17
465.512	1	10
465.682	1	6
465.853	1	10
466.023	1	12
466.194	1	15
466.364	1	13
466.534	1	12
466.705	1	11
466.875	1	14
467.045	1	6
467.216	1	10
467.386	1	11
467.557	1	-1
467.727	1	-3
467.897	1	-6
468.068	1	12
468.238	1	8
468.409	1	9
468.579	1	3
468.749	1	1
468.920	1	1
469.090	1	16
469.260	1	-11
469.431	1	7
469.601	1	4
469.772	1	11
469.942	1	17
470.112	1	10
470.283	1	18
470.453	1	9
470.623	1	9
470.794	1	11
470.964	1	-7
471.135	1	9
471.305	1	11
471.475	1	2
471.646	1	6
471.816	1	8
471.986	1	6
472.157	1	0
472.327	1	15
472.497	1	-11
472.668	1	6
472.838	1	2
473.009	1	19
473.179	1	10
473.349	1	4
473.520	1	4
473.690	1	9
473.860	1	6
474.031	1	8
474.201	1	8
474.371	1	13
474.542	1	9
474.712	1	-1
474.882	1	11
475.053	1	12
475.223	1	8
475.394	1	6
475.564	1	2
475.734	1	7
475.905	1	1
476.075	1	1
476.245	1	10
476.416	1	7
476.586	1	6
476.756	1	10
476.927	1	8
477.097	1	9
477.267	1	10
477.438	1	-5
477.608	1	5
477.778	1	7
477.949	1	8
478.119	1	6
478.289	1	17
478.460	1	11
478.630	1	9
478.800	1	1
478.971	1	17
479.141	1	3
479.311	1	-1
479.482	1	2
479.652	1	5
479.822	1	-2
479.993	1	6
480.163	1	0
480.333	1	13
480.504	1	13
480.674	1	4
480.844	1	12
481.015	1	1
481.185	1	8
481.355	1	-6
481.525	1	9
481.696	1	10
481.866	1	3
482.036	1	5
482.207	1	3
482.377	1	0
482.547	1	13
482.718	1	9
482.888	1	7
483.058	1	4
483.229	1	6
483.399	1	-4
483.569	1	3
483.740	1	2
483.910	1	-5
484.080	1	11
484.250	1	7
484.421	1	9
484.591	1	0
484.761	1	-2
484.932	1	10
485.102	1	1
485.272	1	6
485.443	1	4
485.613	1	5
485.783	1	2
485.953	1	-7
486.124	1	-4
486.294	1	9
486.464	1	3
486.635	1	12
486.805	1	1
486.975	1	3
487.146	1	-7
487.316	1	1
487.486	1	1
487.656	1	4
487.827	1	11
487.997	1	4
488.167	1	-2
488.338	1	-8
488.508	1	7
488.678	1	-2
488.848	1	10
489.019	1	5
489.189	1	9
489.359	1	5
489.529	1	0
489.700	1	-1
489.870	1	1
490.040	1	0
490.211	1	6
490.381	1	0
490.551	1	-6
490.721	1	9
490.892	1	6
491.062	1	4
491.232	1	0
491.402	1	5
491.573	1	4
491.743	1	-4
491.913	1	3
492.084	1	7
492.254	1	16
492.424	1	6
492.594	1	10
492.765	1	4
492.935	1	3
493.105	1	2
493.275	1	-2
493.446	1	4
493.616	1	3
493.786	1	11
493.956	1	4
494.127	1	-7
494.297	1	4
494.467	1	9
494.637	1	11
494.808	1	-9
494.978	1	-6
495.148	1	4
495.318	1	-5
495.489	1	1
495.659	1	10
495.829	1	12
495.999	1	4
496.170	1	12
496.340	1	11
496.510	1	4
496.680	1	0
496.851	1	-5
497.021	1	-9
497.191	1	-3
497.361	1	3
497.532	1	-3
497.702	1	3
497.872	1	-2
498.042	1	7
498.213	1	0
498.383	1	-2
498.553	1	5
498.723	1	-4
498.894	1	7
499.064	1	5
499.234	1	0
499.404	1	2
499.574	1	-1
499.745	1	13
499.915	1	2
500.085	1	5
500.255	1	-1
500.426	1	3
500.596	1	4
500.766	1	5
500.936	1	1
501.106	1	4
501.277	1	8
501.447	1	3
501.617	1	-2
501.787	1	9
501.958	1	4
502.128	1	12
502.298	1	9
502.468	1	0
502.638	1	2
502.809	1	-11
502.979	1	2
503.149	1	5
503.319	1	2
503.489	1	-5
503.660	1	4
503.830	1	7
504.000	1	4
504.170	1	5
504.340	1	2
504.511	1	15
504.681	1	10
504.851	1	5
505.021	1	-6
505.192	1	3
505.362	1	0
505.532	1	-12
505.702	1	-6
505.872	1	12
506.043	1	-2
506.213	1	7
506.383	1	10
506.553	1	-3
506.723	1	8
506.893	1	0
507.064	1	0
507.234	1	7
507.404	1	6
507.574	1	11
507.744	1	5
507.915	1	6
508.085	1	-5
508.255	1	5
508.425	1	-4
508.595	1	-3
508.766	1	-2
508.936	1	10
509.106	1	3
509.276	1	5
509.446	1	4
509.616	1	3
509.787	1	5
509.957	1	-6
510.127	1	7
510.297	1	0
510.467	1	3
510.638	1	4
510.808	1	-4
510.978	1	11
511.148	1	15
511.318	1	-1
511.488	1	9
511.659	1	7
511.829	1	-1
511.999	1	-2
512.169	1	-6
512.339	1	-10
512.509	1	-7
512.680	1	-1
512.850	1	3
513.020	1	7
513.190	1	-1
513.360	1	-2
513.530	1	2
513.700	1	-7
513.871	1	1
514.041	1	5
514.211	1	0
514.381	1	15
514.551	1	-8
514.721	1	9
514.892	1	10
515.062	1	15
515.232	1	13
515.402	1	-2
515.572	1	1
515.742	1	5
515.912	1	-1
516.083	1	6
516.253	1	10
516.423	1	-2
516.593	1	-1
516.763	1	4
516.933	1	8
517.104	1	1
517.274	1	7
517.444	1	-6
517.614	1	6
517.784	1	4
517.954	1	2
518.124	1	0
518.294	1	3
518.465	1	5
518.635	1	10
518.805	1	2
518.975	1	-6
519.145	1	2
519.315	1	-1
519.485	1	4
519.656	1	-2
519.826	1	2
519.996	1	5
520.166	1	0
520.336	1	-4
520.506	1	1
520.676	1	14
520.846	1	7
521.017	1	0
521.187	1	5
521.357	1	3
521.527	1	6
521.697	1	3
521.867	1	0
522.037	1	2
522.207	1	3
522.377	1	-3
522.548	1	13
522.718	1	9
522.888	1	2
523.058	1	0
523.228	1	6
523.398	1	1
523.568	1	5
523.738	1	-3
523.909	1	4
524.079	1	-5
524.249	1	-7
524.419	1	0
524.589	1	9
524.759	1	-2
524.929	1	-1
525.099	1	-8
525.269	1	6
525.439	1	9
525.610	1	-10
525.780	1	-2
525.950	1	6
526.120	1	-3
526.290	1	2
526.460	1	12
526.630	1	-7
526.800	1	-1
526.970	1	3
527.140	1	9
527.311	1	10
527.481	1	-5
527.651	1	1
527.821	1	-2
527.991	1	-3
528.161	1	-4
528.331	1	4
528.501	1	-5
528.671	1	0
528.841	1	7
529.011	1	-4
529.181	1	10
529.352	1	0
529.522	1	6
529.692	1	-9
529.862	1	-5
530.032	1	-3
530.202	1	8
530.372	1	11
530.542	1	-1
530.712	1	9
530.882	1	6
531.052	1	1
531.222	1	-5
531.392	1	-2
531.563	1	3
531.733	1	-10
531.903	1	6
532.073	1	12
532.243	1	7
532.413	1	-4
532.583	1	-1
532.753	1	5
532.923	1	8
533.093	1	2
533.263	1	1
533.433	1	3
533.603	1	-4
533.773	1	-3
533.943	1	-3
534.113	1	5
534.284	1	-12
534.454	1	2
534.624	1	2
534.794	1	9
534.964	1	3
535.134	1	12
535.304	1	5
535.474	1	-4
535.644	1	4
535.814	1	10
535.984	1	3
536.154	1	1
536.324	1	-3
536.494	1	-3
536.664	1	3
536.834	1	7
537.004	1	6
537.174	1	6
537.344	1	-1
537.514	1	7
537.685	1	4
537.855	1	-3
538.025	1	0
538.195	1	7
538.365	1	6
538.535	1	-10
538.705	1	0
538.875	1	6
539.045	1	-5
539.215	1	1
539.385	1	-4
539.555	1	-2
539.725	1	-1
539.895	1	8
540.065	1	-5
540.235	1	-2
540.405	1	-12
540.575	1	2
540.745	1	7
540.915	1	-3
541.085	1	-1
541.255	1	18
541.425	1	-2
541.595	1	6
541.765	1	9
541.935	1	-3
542.105	1	-4
542.275	1	-5
542.445	1	2
542.615	1	4
542.785	1	0
542.955	1	-7
543.125	1	-2
543.295	1	9
543.465	1	0
543.635	1	-7
543.805	1	-10
543.975	1	0
544.145	1	18
544.315	1	2
544.485	1	5
544.655	1	2
544.825	1	4
544.995	1	9
545.165	1	3
545.335	1	-4
545.505	1	-2
545.675	1	-8
545.845	1	2
546.015	1	-1
546.185	1	-1
546.355	1	0
546.525	1	-5
546.695	1	-5
546.865	1	1
547.035	1	-5
547.205	1	1
547.375	1	6
547.545	1	2
547.715	1	6
547.885	1	-1
548.055	1	0
548.225	1	1
548.395	1	-6
548.565	1	6
548.735	1	4
548.905	1	-2
549.075	1	10
549.245	1	11
549.415	1	-10
549.585	1	4
549.755	1	3
549.925	1	0
550.095	1	-4
550.265	1	15
550.435	1	-2
550.605	1	-2
550.775	1	1
550.945	1	-3
551.115	1	3
551.285	1	-2
551.455	1	1
551.625	1	-4
551.795	1	-6
551.965	1	-4
552.135	1	0
552.305	1	-2
552.475	1	-1
552.645	1	6
552.815	1	4
552.985	1	0
553.155	1	2
553.325	1	-3
553.495	1	4
553.665	1	-4
553.835	1	6
554.004	1	11
554.174	1	-3
554.344	1	-3
554.514	1	0
554.684	1	-2
554.854	1	-10
555.024	1	8
555.194	1	-9
555.364	1	9
555.534	1	-9
555.704	1	2
555.874	1	-9
556.044	1	-1
556.214	1	3
556.384	1	10
556.554	1	-6
556.724	1	0
556.894	1	6
557.064	1	5
557.234	1	2
557.404	1	2
557.573	1	-3
557.743	1	3
557.913	1	6
558.083	1	6
558.253	1	-6
558.423	1	3
558.593	1	-5
558.763	1	14
558.933	1	2
559.103	1	1
559.273	1	-2
559.443	1	7
559.613	1	-10
559.783	1	-2
559.953	1	-1
560.122	1	5
560.292	1	17
560.462	1	5
560.632	1	-11
560.802	1	-1
560.972	1	-11
561.142	1	1
561.312	1	3
561.482	1	-2
561.652	1	-4
561.822	1	-6
561.992	1	-5
562.162	1	0
562.331	1	-2
562.501	1	3
562.671	1	-1
562.841	1	-2
563.011	1	12
563.181	1	-9
563.351	1	2
563.521	1	-2
563.691	1	-8
563.861	1	-2
564.031	1	1
564.201	1	4
564.370	1	-2
564.540	1	8
564.710	1	7
564.880	1	10
565.050	1	9
565.220	1	4
565.390	1	6
565.560	1	3
565.730	1	1
565.900	1	-6
566.069	1	5
566.239	1	-2
566.409	1	-7
566.579	1	3
566.749	1	-8
566.919	1	-3
567.089	1	1
567.259	1	2
567.429	1	-4
567.599	1	7
567.768	1	3
567.938	1	-8
568.108	1	9
568.278	1	10
568.448	1	7
568.618	1	-1
568.788	1	-1
568.958	1	-2
569.128	1	6
569.297	1	-9
569.467	1	-10
569.637	1	3
569.807	1	2
569.977	1	2
570.147	1	7
570.317	1	-7
570.487	1	-2
570.656	1	-10
570.826	1	-10
570.996	1	-2
571.166	1	8
571.336	1	-5
571.506	1	5
571.676	1	11
571.846	1	3
572.015	1	-6
572.185	1	4
572.355	1	2
572.525	1	-12
572.695	1	-5
572.865	1	1
573.035	1	16
573.205	1	-4
573.374	1	-8
573.544	1	4
573.714	1	-2
573.884	1	2
574.054	1	8
574.224	1	-6
574.394	1	-1
574.563	1	1
574.733	1	3
574.903	1	6
575.073	1	9
575.243	1	-2
575.413	1	-9
575.583	1	0
575.752	1	-3
575.922	1	-10
576.092	1	-5
576.262	1	-6
576.432	1	-8
576.602	1	-6
576.772	1	6
576.941	1	4
577.111	1	-6
577.281	1	4
577.451	1	0
577.621	1	5
577.791	1	-3
577.960	1	0
578.130	1	5
578.300	1	6
578.470	1	5
578.640	1	10
578.810	1	-3
578.979	1	-3
579.149	1	-7
579.319	1	6
579.489	1	-7
579.659	1	-11
579.829	1	5
579.998	1	0
580.168	1	1
580.338	1	0
580.508	1	9
580.678	1	6
580.848	1	8
581.017	1	10
581.187	1	7
581.357	1	0
581.527	1	1
581.697	1	-6
581.867	1	-3
582.036	1	-5
582.206	1	3
582.376	1	3
582.546	1	-7
582.716	1	-5
582.885	1	-17
583.055	1	7
583.225	1	-1
583.395	1	3
583.565	1	5
583.735	1	-1
583.904	1	-8
584.074	1	-14
584.244	1	-10
584.414	1	-1
584.584	1	-2
584.753	1	6
584.923	1	5
585.093	1	11
585.263	1	7
585.433	1	-2
585.602	1	-4
585.772	1	-10
585.942	1	3
586.112	1	-1
586.282	1	2
586.451	1	13
586.621	1	5
586.791	1	3
586.961	1	-2
587.131	1	-2
587.300	1	-7
587.470	1	-1
587.640	1	6
587.810	1	17
587.980	1	-9
588.149	1	2
588.319	1	6
588.489	1	0
588.659	1	-8
588.829	1	7
588.998	1	3
589.168	1	8
589.338	1	-7
589.508	1	3
589.677	1	0
589.847	1	12
590.017	1	-5
590.187	1	0
590.357	1	7
590.526	1	-1
590.696	1	0
590.866	1	-4
591.036	1	0
591.205	1	2
591.375	1	-8
591.545	1	-1
591.715	1	-4
591.885	1	5
592.054	1	-3
592.224	1	8
592.394	1	-9
592.564	1	2
592.733	1	-15
592.903	1	12
593.073	1	1
593.243	1	4
593.412	1	9
593.582	1	3
593.752	1	-4
593.922	1	-3
594.091	1	-4
594.261	1	-1
594.431	1	8
594.601	1	-3
594.771	1	11
594.940	1	3
595.110	1	0
595.280	1	-5
595.450	1	9
595.619	1	2
595.789	1	3
595.959	1	13
596.129	1	8
596.298	1	8
596.468	1	0
596.638	1	1
596.808	1	6
596.977	1	-4
597.147	1	-8
597.317	1	-6
597.487	1	1
597.656	1	0
597.826	1	6
597.996	1	4
598.166	1	8
598.335	1	-1
598.505	1	4
598.675	1	3
598.844	1	-10
599.014	1	6
599.184	1	-3
599.354	1	3
599.523	1	0
599.693	1	13
599.863	1	0
600.033	1	-2
600.202	1	2
600.372	1	-1
600.542	1	-2
600.712	1	-6
600.881	1	-10
601.051	1	-7
601.221	1	10
601.390	1	-1
601.560	1	1
601.730	1	4
601.900	1	2
602.069	1	13
602.239	1	3
602.409	1	0
602.578	1	-13
602.748	1	0
602.918	1	-2
603.088	1	7
603.257	1	-3
603.427	1	2
603.597	1	5
603.767	1	-1
603.936	1	-8
604.106	1	11
604.276	1	4
604.445	1	3
604.615	1	-4
604.785	1	14
604.954	1	11
605.124	1	2
605.294	1	4
605.464	1	4
605.633	1	-3
605.803	1	7
605.973	1	6
606.142	1	6
606.312	1	-4
606.482	1	-5
606.652	1	-2
606.821	1	3
606.991	1	-6
607.161	1	6
607.330	1	-11
607.500	1	11
607.670	1	3
607.839	1	9
608.009	1	4
608.179	1	1
608.348	1	3
608.518	1	-5
608.688	1	0
608.858	1	11
609.027	1	9
609.197	1	-7
609.367	1	13
609.536	1	1
609.706	1	1
609.876	1	16
610.045	1	3
610.215	1	1
610.385	1	-9
610.554	1	5
610.724	1	-4
610.894	1	8
611.063	1	-1
611.233	1	10
611.403	1	5
611.572	1	5
611.742	1	6
611.912	1	3
612.081	1	-7
612.251	1	7
612.421	1	5
612.590	1	1
612.760	1	4
612.930	1	-5
613.099	1	8
613.269	1	0
613.439	1	-3
613.608	1	6
613.778	1	-2
613.948	1	5
614.117	1	10
614.287	1	3
614.457	1	-9
614.626	1	-1
614.796	1	2
614.966	1	3
615.135	1	2
615.305	1	9
615.475	1	5
615.644	1	6
615.814	1	1
615.984	1	8
616.153	1	8
616.323	1	11
616.493	1	13
616.662	1	3
616.832	1	8
617.002	1	7
617.171	1	-4
617.341	1	3
617.511	1	3
617.680	1	8
617.850	1	-2
618.019	1	-3
618.189	1	2
618.359	1	0
618.528	1	7
618.698	1	16
618.868	1	1
619.037	1	5
619.207	1	0
619.377	1	3
619.546	1	0
619.716	1	-2
619.885	1	-5
620.055	1	8
620.225	1	2
620.394	1	2
620.564	1	8
620.734	1	7
620.903	1	2
621.073	1	-13
621.242	1	9
621.412	1	2
621.582	1	3
621.751	1	-2
621.921	1	10
622.091	1	5
622.260	1	-2
622.430	1	-5
622.599	1	-12
622.769	1	4
622.939	1	-4
623.108	1	8
623.278	1	4
623.448	1	2
623.617	1	4
623.787	1	9
623.956	1	10
624.126	1	9
624.296	1	6
624.465	1	10
624.635	1	3
624.804	1	0
624.974	1	9
625.144	1	-3
625.313	1	1
625.483	1	12
625.652	1	5
625.822	1	-3
625.992	1	4
626.161	1	12
626.331	1	7
626.501	1	2
626.670	1	4
626.840	1	7
627.009	1	12
627.179	1	0
627.348	1	3
627.518	1	5
627.688	1	9
627.857	1	4
628.027	1	-7
628.196	1	2
628.366	1	-2
628.536	1	6
628.705	1	2
628.875	1	7
629.044	1	3
629.214	1	-1
629.384	1	-1
629.553	1	9
629.723	1	-8
629.892	1	10
630.062	1	-2
630.232	1	10
630.401	1	20
630.571	1	7
630.740	1	4
630.910	1	8
631.079	1	-7
631.249	1	-7
631.419	1	-2
631.588	1	6
631.758	1	9
631.927	1	6
632.097	1	4
632.266	1	10
632.436	1	4
632.606	1	16
632.775	1	19
632.945	1	6
633.114	1	-5
633.284	1	0
633.453	1	1
633.623	1	4
633.793	1	-4
633.962	1	4
634.132	1	-1
634.301	1	6
634.471	1	7
634.640	1	8
634.810	1	5
634.979	1	5
635.149	1	10
635.319	1	9
635.488	1	19
635.658	1	8
635.827	1	9
635.997	1	2
636.166	1	4
636.336	1	4
636.505	1	13
636.675	1	2
636.845	1	-5
637.014	1	6
637.184	1	9
637.353	1	4
637.523	1	4
637.692	1	15
637.862	1	7
638.031	1	3
638.201	1	6
638.370	1	5
638.540	1	6
638.710	1	10
638.879	1	-2
639.049	1	8
639.218	1	3
639.388	1	0
639.557	1	6
639.727	1	1
639.896	1	4
640.066	1	6
640.235	1	8
640.405	1	5
640.574	1	12
640.744	1	13
640.914	1	1
641.083	1	0
641.253	1	12
641.422	1	-6
641.592	1	6
641.761	1	7
641.931	1	7
642.100	1	2
642.270	1	8
642.439	1	-5
642.609	1	10
642.778	1	2
642.948	1	-2
643.117	1	17
643.287	1	0
643.456	1	11
643.626	1	14
643.795	1	8
643.965	1	9
644.134	1	1
644.304	1	10
644.473	1	10
644.643	1	-6
644.812	1	6
644.982	1	1
645.151	1	17
645.321	1	2
645.490	1	-1
645.660	1	-1
645.829	1	0
645.999	1	-1
646.168	1	-4
646.338	1	4
646.507	1	13
646.677	1	8
646.846	1	6
647.016	1	14
647.185	1	-7
647.355	1	8
647.524	1	8
647.694	1	4
647.863	1	0
648.033	1	4
648.202	1	10
648.372	1	11
648.541	1	7
648.711	1	6
648.880	1	5
649.050	1	3
649.219	1	-8
649.389	1	3
649.558	1	-1
649.728	1	8
649.897	1	1
650.067	1	4
650.236	1	14
650.406	1	-3
650.575	1	9
650.745	1	1
650.914	1	2
651.084	1	-2
651.253	1	8
651.423	1	2
651.592	1	6
651.762	1	8
651.931	1	-2
652.101	1	7
652.270	1	11
652.440	1	-1
652.609	1	7
652.778	1	-6
652.948	1	9
653.117	1	1
653.287	1	12
653.456	1	-2
653.626	1	-7
653.795	1	8
653.965	1	2
654.134	1	12
654.304	1	4
654.473	1	6
654.643	1	5
654.812	1	-4
654.982	1	1
655.151	1	1
655.320	1	4
655.490	1	3
655.659	1	3
655.829	1	11
655.998	1	-3
656.168	1	-4
656.337	1	14
656.507	1	3
656.676	1	11
656.846	1	4
657.015	1	1
657.184	1	-7
657.354	1	5
657.523	1	0
657.693	1	4
657.862	1	7
658.032	1	3
658.201	1	3
658.371	1	1
658.540	1	0
658.709	1	-3
658.879	1	-1
659.048	1	7
659.218	1	-2
659.387	1	2
659.557	1	-2
659.726	1	8
659.895	1	5
660.065	1	-1
660.234	1	3
660.404	1	7
660.573	1	9
660.743	1	21
660.912	1	7
661.081	1	10
661.251	1	8
661.420	1	0
661.590	1	-9
661.759	1	0
661.929	1	8
662.098	1	4
662.267	1	6
662.437	1	6
662.606	1	16
662.776	1	9
662.945	1	0
663.115	1	-3
663.284	1	3
663.453	1	-5
663.623	1	5
663.792	1	14
663.962	1	1
664.131	1	6
664.300	1	0
664.470	1	4
664.639	1	-3
664.809	1	-3
664.978	1	0
665.148	1	-2
665.317	1	-1
665.486	1	12
665.656	1	3
665.825	1	8
665.995	1	-3
666.164	1	-2
666.333	1	-2
666.503	1	6
666.672	1	4
666.842	1	-3
667.011	1	13
667.180	1	5
667.350	1	8
667.519	1	8
667.689	1	0
667.858	1	5
668.027	1	16
668.197	1	7
668.366	1	3
668.536	1	8
668.705	1	3
668.874	1	10
669.044	1	7
669.213	1	0
669.382	1	-5
669.552	1	9
669.721	1	8
669.891	1	3
670.060	1	14
670.229	1	7
670.399	1	9
670.568	1	4
670.738	1	0
670.907	1	11
671.076	1	9
671.246	1	8
671.415	1	12
671.584	1	-2
671.754	1	5
671.923	1	0
672.093	1	15
672.262	1	10
672.431	1	0
672.601	1	3
672.770	1	4
672.939	1	6
673.109	1	2
673.278	1	7
673.448	1	6
673.617	1	6
673.786	1	5
