325.333	1	9
325.504	1	3
325.675	1	2
325.846	1	7
326.017	1	7
326.188	1	19
326.359	1	0
326.531	1	1
326.702	1	14
326.873	1	7
327.044	1	3
327.215	1	1
327.386	1	-1
327.557	1	7
327.728	1	10
327.899	1	16
328.070	1	5
328.241	1	1
328.412	1	10
328.583	1	9
328.754	1	-4
328.926	1	-6
329.097	1	-8
329.268	1	0
329.439	1	9
329.610	1	10
329.781	1	6
329.952	1	8
330.123	1	10
330.294	1	-4
330.465	1	0
330.636	1	12
330.807	1	0
330.978	1	-4
331.149	1	10
331.320	1	12
331.492	1	8
331.663	1	8
331.834	1	14
332.005	1	6
332.176	1	6
332.347	1	13
332.518	1	5
332.689	1	11
332.860	1	6
333.031	1	3
333.202	1	-2
333.373	1	10
333.544	1	4
333.715	1	8
333.886	1	-3
334.057	1	7
334.228	1	-1
334.399	1	14
334.570	1	1
334.741	1	8
334.912	1	7
335.084	1	6
335.255	1	7
335.426	1	1
335.597	1	5
335.768	1	9
335.939	1	1
336.110	1	9
336.281	1	13
336.452	1	11
336.623	1	10
336.794	1	-1
336.965	1	3
337.136	1	5
337.307	1	3
337.478	1	-2
337.649	1	2
337.820	1	10
337.991	1	10
338.162	1	4
338.333	1	10
338.504	1	3
338.675	1	8
338.846	1	2
339.017	1	11
339.188	1	1
339.359	1	10
339.530	1	15
339.701	1	1
339.872	1	4
340.043	1	-9
340.214	1	0
340.385	1	1
340.556	1	8
340.727	1	10
340.898	1	11
341.069	1	17
341.240	1	9
341.411	1	1
341.582	1	15
341.753	1	-9
341.924	1	7
342.095	1	4
342.266	1	12
342.437	1	6
342.608	1	15
342.779	1	1
342.950	1	2
343.121	1	8
343.292	1	2
343.463	1	13
343.634	1	-9
343.805	1	8
343.976	1	7
344.147	1	1
344.318	1	2
344.489	1	9
344.660	1	5
344.831	1	15
345.002	1	7
345.173	1	-1
345.344	1	2
345.515	1	-9
345.686	1	15
345.857	1	2
346.028	1	10
346.199	1	-3
346.370	1	12
346.541	1	4
346.712	1	10
346.883	1	4
347.054	1	8
347.225	1	6
347.396	1	-5
347.567	1	13
347.738	1	4
347.909	1	7
348.080	1	2
348.251	1	-3
348.422	1	11
348.593	1	0
348.764	1	-6
348.935	1	9
349.106	1	4
349.277	1	11
349.448	1	9
349.619	1	3
349.790	1	10
349.961	1	18
350.132	1	1
350.303	1	3
350.474	1	1
350.645	1	8
350.816	1	-4
350.987	1	3
351.157	1	11
351.328	1	17
351.499	1	12
351.670	1	6
351.841	1	9
352.012	1	7
352.183	1	6
352.354	1	-8
352.525	1	15
352.696	1	13
352.867	1	2
353.038	1	-1
353.209	1	-1
353.380	1	3
353.551	1	-4
353.722	1	5
353.893	1	7
354.064	1	8
354.235	1	-4
354.406	1	2
354.576	1	3
354.747	1	8
354.918	1	9
355.089	1	14
355.260	1	9
355.431	1	-1
355.602	1	4
355.773	1	7
355.944	1	-11
356.115	1	11
356.286	1	8
356.457	1	4
356.628	1	3
356.799	1	5
356.970	1	13
357.141	1	4
357.311	1	11
357.482	1	4
357.653	1	9
357.824	1	2
357.995	1	3
358.166	1	-3
358.337	1	5
358.508	1	9
358.679	1	7
358.850	1	6
359.021	1	6
359.192	1	11
359.363	1	4
359.533	1	-15
359.704	1	7
359.875	1	4
360.046	1	10
360.217	1	4
360.388	1	6
360.559	1	5
360.730	1	11
360.901	1	8
361.072	1	9
361.243	1	7
361.414	1	1
361.584	1	-8
361.755	1	-3
361.926	1	3
362.097	1	4
362.268	1	-1
362.439	1	5
362.610	1	10
362.781	1	5
362.952	1	7
363.123	1	0
363.293	1	-5
363.464	1	1
363.635	1	12
363.806	1	5
363.977	1	9
364.148	1	-2
364.319	1	2
364.490	1	10
364.661	1	6
364.832	1	4
365.002	1	4
365.173	1	-5
365.344	1	3
365.515	1	-5
365.686	1	-3
365.857	1	8
366.028	1	7
366.199	1	2
366.370	1	7
366.540	1	6
366.711	1	5
366.882	1	-1
367.053	1	4
367.224	1	-4
367.395	1	-6
367.566	1	-2
367.737	1	-6
367.908	1	-2
368.078	1	17
368.249	1	7
368.420	1	9
368.591	1	2
368.762	1	7
368.933	1	-5
369.104	1	17
369.274	1	-2
369.445	1	5
369.616	1	2
369.787	1	13
369.958	1	2
370.129	1	-12
370.300	1	12
370.471	1	1
370.641	1	9
370.812	1	4
370.983	1	-3
371.154	1	-3
371.325	1	0
371.496	1	4
371.667	1	4
371.837	1	2
372.008	1	-8
372.179	1	-7
372.350	1	3
372.521	1	8
372.692	1	1
372.863	1	4
373.033	1	10
373.204	1	-4
373.375	1	2
373.546	1	22
373.717	1	-1
373.888	1	-1
374.059	1	6
374.229	1	2
374.400	1	-13
374.571	1	7
374.742	1	-6
374.913	1	8
375.084	1	4
375.254	1	11
375.425	1	1
375.596	1	14
375.767	1	-4
375.938	1	2
376.109	1	3
376.279	1	6
376.450	1	3
376.621	1	8
376.792	1	-3
376.963	1	5
377.134	1	-5
377.304	1	11
377.475	1	-2
377.646	1	-4
377.817	1	-4
377.988	1	5
378.159	1	17
378.329	1	8
378.500	1	10
378.671	1	0
378.842	1	0
379.013	1	3
379.184	1	6
379.354	1	1
379.525	1	2
379.696	1	15
379.867	1	0
380.038	1	9
380.209	1	4
380.379	1	0
380.550	1	4
380.721	1	-8
380.892	1	-3
381.063	1	8
381.233	1	8
381.404	1	5
381.575	1	14
381.746	1	15
381.917	1	12
382.087	1	9
382.258	1	15
382.429	1	3
382.600	1	2
382.771	1	6
382.941	1	10
383.112	1	8
383.283	1	15
383.454	1	7
383.625	1	-3
383.795	1	6
383.966	1	3
384.137	1	7
384.308	1	0
384.479	1	-4
384.649	1	1
384.820	1	10
384.991	1	6
385.162	1	7
385.333	1	5
385.503	1	10
385.674	1	-10
385.845	1	16
386.016	1	5
386.187	1	6
386.357	1	5
386.528	1	-8
386.699	1	4
386.870	1	7
387.041	1	20
387.211	1	2
387.382	1	-3
387.553	1	2
387.724	1	16
387.894	1	14
388.065	1	-1
388.236	1	9
388.407	1	-1
388.578	1	-1
388.748	1	9
388.919	1	3
389.090	1	8
389.261	1	1
389.431	1	7
389.602	1	11
389.773	1	15
389.944	1	12
390.114	1	11
390.285	1	-1
390.456	1	1
390.627	1	11
390.798	1	11
390.968	1	9
391.139	1	0
391.310	1	7
391.481	1	10
391.651	1	7
391.822	1	15
391.993	1	6
392.164	1	9
392.334	1	-7
392.505	1	15
392.676	1	13
392.847	1	6
393.017	1	12
393.188	1	0
393.359	1	3
393.530	1	8
393.700	1	-5
393.871	1	12
394.042	1	2
394.213	1	11
394.383	1	4
394.554	1	18
394.725	1	2
394.896	1	7
395.066	1	3
395.237	1	9
395.408	1	4
395.579	1	6
395.749	1	9
395.920	1	-3
396.091	1	14
396.262	1	3
396.432	1	7
396.603	1	-3
396.774	1	6
396.945	1	10
397.115	1	4
397.286	1	5
397.457	1	2
397.627	1	-1
397.798	1	-1
397.969	1	13
398.140	1	-3
398.310	1	9
398.481	1	-5
398.652	1	-4
398.823	1	10
398.993	1	6
399.164	1	5
399.335	1	7
399.505	1	6
399.676	1	-3
399.847	1	13
400.018	1	9
400.188	1	7
400.359	1	-1
400.530	1	10
400.700	1	5
400.871	1	9
401.042	1	3
401.213	1	4
401.383	1	11
401.554	1	13
401.725	1	11
401.895	1	13
402.066	1	-1
402.237	1	10
402.408	1	8
402.578	1	-8
402.749	1	4
402.920	1	10
403.090	1	7
403.261	1	4
403.432	1	1
403.603	1	11
403.773	1	20
403.944	1	15
404.115	1	6
404.285	1	11
404.456	1	7
404.627	1	9
404.797	1	6
404.968	1	11
405.139	1	10
405.310	1	18
405.480	1	14
405.651	1	0
405.822	1	13
405.992	1	7
406.163	1	21
406.334	1	12
406.504	1	2
406.675	1	22
406.846	1	11
407.016	1	10
407.187	1	9
407.358	1	6
407.528	1	0
407.699	1	2
407.870	1	15
408.041	1	7
408.211	1	1
408.382	1	8
408.553	1	9
408.723	1	10
408.894	1	3
409.065	1	3
409.235	1	15
409.406	1	0
409.577	1	2
409.747	1	8
409.918	1	6
410.089	1	15
410.259	1	11
410.430	1	13
410.601	1	10
410.771	1	5
410.942	1	6
411.113	1	7
411.283	1	10
411.454	1	15
411.625	1	10
411.795	1	10
411.966	1	21
412.137	1	16
412.307	1	-1
412.478	1	12
412.649	1	13
412.819	1	13
412.990	1	12
413.161	1	18
413.331	1	8
413.502	1	2
413.672	1	19
413.843	1	2
414.014	1	9
414.184	1	7
414.355	1	6
414.526	1	7
414.696	1	9
414.867	1	8
415.038	1	11
415.208	1	5
415.379	1	11
415.550	1	12
415.720	1	2
415.891	1	17
416.062	1	8
416.232	1	2
416.403	1	4
416.573	1	16
416.744	1	5
416.915	1	12
417.085	1	8
417.256	1	7
417.427	1	7
417.597	1	7
417.768	1	8
417.939	1	15
418.109	1	5
418.280	1	9
418.450	1	14
418.621	1	9
418.792	1	12
418.962	1	12
419.133	1	6
419.304	1	4
419.474	1	2
419.645	1	5
419.815	1	8
419.986	1	18
420.157	1	4
420.327	1	-6
420.498	1	13
420.669	1	13
420.839	1	6
421.010	1	5
421.180	1	4
421.351	1	21
421.522	1	13
421.692	1	8
421.863	1	4
422.033	1	7
422.204	1	7
422.375	1	2
422.545	1	20
422.716	1	1
422.886	1	0
423.057	1	9
423.228	1	10
423.398	1	11
423.569	1	7
423.740	1	11
423.910	1	11
424.081	1	6
424.251	1	-3
424.422	1	4
424.593	1	13
424.763	1	18
424.934	1	11
425.104	1	5
425.275	1	14
425.445	1	4
425.616	1	1
425.787	1	15
425.957	1	12
426.128	1	14
426.298	1	17
426.469	1	4
426.640	1	6
426.810	1	14
426.981	1	15
427.151	1	18
427.322	1	16
427.493	1	13
427.663	1	10
427.834	1	9
428.004	1	-2
428.175	1	13
428.345	1	9
428.516	1	15
428.687	1	16
428.857	1	2
429.028	1	2
429.198	1	14
429.369	1	9
429.540	1	8
429.710	1	6
429.881	1	3
430.051	1	15
430.222	1	9
430.392	1	-2
430.563	1	13
430.734	1	15
430.904	1	6
431.075	1	15
431.245	1	6
431.416	1	11
431.586	1	3
431.757	1	2
431.927	1	18
432.098	1	-3
432.269	1	9
432.439	1	14
432.610	1	21
432.780	1	0
432.951	1	13
433.121	1	13
433.292	1	8
433.462	1	6
433.633	1	-1
433.804	1	1
433.974	1	12
434.145	1	5
434.315	1	16
434.486	1	13
434.656	1	15
434.827	1	11
434.997	1	12
435.168	1	10
435.339	1	13
435.509	1	2
435.680	1	12
435.850	1	4
436.021	1	13
436.191	1	13
436.362	1	13
436.532	1	10
436.703	1	10
436.873	1	1
437.044	1	3
437.214	1	4
437.385	1	9
437.556	1	1
437.726	1	15
437.897	1	15
438.067	1	7
438.238	1	8
438.408	1	11
438.579	1	9
438.749	1	-3
438.920	1	12
439.090	1	8
439.261	1	10
439.431	1	2
439.602	1	11
439.772	1	7
439.943	1	14
440.113	1	15
440.284	1	8
440.455	1	9
440.625	1	22
440.796	1	10
440.966	1	6
441.137	1	-2
441.307	1	2
441.478	1	14
441.648	1	9
441.819	1	13
441.989	1	11
442.160	1	4
442.330	1	12
442.501	1	9
442.671	1	5
442.842	1	13
443.012	1	8
443.183	1	8
443.353	1	16
443.524	1	3
443.694	1	11
443.865	1	9
444.035	1	2
444.206	1	13
444.376	1	8
444.547	1	19
444.717	1	-2
444.888	1	8
445.058	1	11
445.229	1	4
445.399	1	-1
445.570	1	5
445.740	1	8
445.911	1	10
446.081	1	22
446.252	1	2
446.422	1	13
446.593	1	6
446.763	1	8
446.934	1	9
447.104	1	12
447.275	1	14
447.445	1	10
447.616	1	16
447.786	1	6
447.957	1	9
448.127	1	18
448.298	1	6
448.468	1	4
448.639	1	-2
448.809	1	10
448.979	1	0
449.150	1	2
449.320	1	8
449.491	1	10
449.661	1	19
449.832	1	5
450.002	1	12
450.173	1	1
450.343	1	19
450.514	1	13
450.684	1	6
450.855	1	6
451.025	1	-5
451.196	1	-2
451.366	1	13
451.537	1	7
451.707	1	22
451.878	1	-5
452.048	1	2
452.218	1	9
452.389	1	16
452.559	1	-1
452.730	1	6
452.900	1	6
453.071	1	6
453.241	1	15
453.412	1	5
453.582	1	4
453.753	1	-6
453.923	1	11
454.093	1	17
454.264	1	17
454.434	1	17
454.605	1	18
454.775	1	17
454.946	1	25
455.116	1	10
455.287	1	3
455.457	1	5
455.628	1	12
455.798	1	10
455.968	1	17
456.139	1	-2
456.309	1	14
456.480	1	5
456.650	1	18
456.821	1	12
456.991	1	4
457.161	1	12
457.332	1	7
457.502	1	-2
457.673	1	8
457.843	1	8
458.014	1	2
458.184	1	-1
458.355	1	3
458.525	1	1
458.695	1	3
458.866	1	13
459.036	1	5
459.207	1	0
459.377	1	14
459.548	1	6
459.718	1	11
459.888	1	11
460.059	1	4
460.229	1	8
460.400	1	18
460.570	1	11
460.740	1	0
460.911	1	1
461.081	1	3
461.252	1	18
461.422	1	5
461.593	1	-3
461.763	1	18
461.933	1	9
462.104	1	14
462.274	1	7
462.445	1	-5
462.615	1	3
462.785	1	0
462.956	1	3
463.126	1	3
463.297	1	17
463.467	1	18
463.638	1	1
463.808	1	-1
463.978	1	2
464.149	1	10
464.319	1	-10
464.490	1	10
464.660	1	-3
464.830	1	6
465.001	1	12
465.171	1	-1
465.342	1	1
465.512	1	10
465.682	1	14
465.853	1	8
466.023	1	3
466.194	1	4
466.364	1	15
466.534	1	11
466.705	1	9
466.875	1	10
467.045	1	4
467.216	1	2
467.386	1	10
467.557	1	-1
467.727	1	11
467.897	1	-3
468.068	1	13
468.238	1	1
468.409	1	8
468.579	1	2
468.749	1	-1
468.920	1	4
469.090	1	4
469.260	1	-2
469.431	1	-1
469.601	1	0
469.772	1	3
469.942	1	14
470.112	1	11
470.283	1	16
470.453	1	16
470.623	1	3
470.794	1	2
470.964	1	-6
471.135	1	10
471.305	1	8
471.475	1	-5
471.646	1	-2
471.816	1	11
471.986	1	9
472.157	1	-3
472.327	1	-1
472.497	1	-12
472.668	1	6
472.838	1	5
473.009	1	24
473.179	1	6
473.349	1	3
473.520	1	2
473.690	1	10
473.860	1	6
474.031	1	0
474.201	1	4
474.371	1	11
474.542	1	14
474.712	1	1
474.882	1	12
475.053	1	6
475.223	1	9
475.394	1	14
475.564	1	-1
475.734	1	1
475.905	1	-2
476.075	1	5
476.245	1	10
476.416	1	8
476.586	1	6
476.756	1	12
476.927	1	9
477.097	1	3
477.267	1	7
477.438	1	-13
477.608	1	13
477.778	1	9
477.949	1	9
478.119	1	7
478.289	1	13
478.460	1	7
478.630	1	3
478.800	1	6
478.971	1	2
479.141	1	-2
479.311	1	8
479.482	1	1
479.652	1	2
479.822	1	5
479.993	1	7
480.163	1	8
480.333	1	4
480.504	1	6
480.674	1	4
480.844	1	9
481.015	1	0
481.185	1	0
481.355	1	-7
481.525	1	1
481.696	1	0
481.866	1	5
482.036	1	-3
482.207	1	-5
482.377	1	5
482.547	1	13
482.718	1	10
482.888	1	6
483.058	1	5
483.229	1	3
483.399	1	4
483.569	1	4
483.740	1	3
483.910	1	-3
484.080	1	5
484.250	1	10
484.421	1	5
484.591	1	2
484.761	1	2
484.932	1	2
485.102	1	-1
485.272	1	9
485.443	1	6
485.613	1	10
485.783	1	-8
485.953	1	-8
486.124	1	-13
486.294	1	2
486.464	1	5
486.635	1	2
486.805	1	-3
486.975	1	-4
487.146	1	-1
487.316	1	7
487.486	1	7
487.656	1	-6
487.827	1	9
487.997	1	1
488.167	1	8
488.338	1	-2
488.508	1	4
488.678	1	3
488.848	1	3
489.019	1	8
489.189	1	10
489.359	1	2
489.529	1	1
489.700	1	0
489.870	1	-6
490.040	1	2
490.211	1	1
490.381	1	0
490.551	1	-7
490.721	1	6
490.892	1	19
491.062	1	5
491.232	1	0
491.402	1	7
491.573	1	8
491.743	1	1
491.913	1	-8
492.084	1	-4
492.254	1	5
492.424	1	0
492.594	1	13
492.765	1	7
492.935	1	14
493.105	1	0
493.275	1	-3
493.446	1	4
493.616	1	0
493.786	1	5
493.956	1	5
494.127	1	0
494.297	1	11
494.467	1	10
494.637	1	3
494.808	1	-7
494.978	1	-3
495.148	1	10
495.318	1	-8
495.489	1	0
495.659	1	3
495.829	1	6
495.999	1	5
496.170	1	3
496.340	1	13
496.510	1	5
496.680	1	1
496.851	1	-5
497.021	1	-3
497.191	1	1
497.361	1	-1
497.532	1	4
497.702	1	5
497.872	1	-1
498.042	1	-2
498.213	1	11
498.383	1	7
498.553	1	-7
498.723	1	-4
498.894	1	12
499.064	1	9
499.234	1	-4
499.404	1	3
499.574	1	0
499.745	1	0
499.915	1	-2
500.085	1	0
500.255	1	2
500.426	1	1
500.596	1	11
500.766	1	4
500.936	1	8
501.106	1	0
501.277	1	10
501.447	1	-3
501.617	1	3
501.787	1	7
501.958	1	6
502.128	1	13
502.298	1	14
502.468	1	-1
502.638	1	-4
502.809	1	-9
502.979	1	4
503.149	1	0
503.319	1	2
503.489	1	1
503.660	1	-1
503.830	1	2
504.000	1	-1
504.170	1	-4
504.340	1	0
504.511	1	7
504.681	1	10
504.851	1	4
505.021	1	3
505.192	1	-1
505.362	1	-7
505.532	1	8
505.702	1	1
505.872	1	11
506.043	1	2
506.213	1	4
506.383	1	10
506.553	1	-2
506.723	1	3
506.893	1	0
507.064	1	-2
507.234	1	5
507.404	1	7
507.574	1	3
507.744	1	0
507.915	1	-2
508.085	1	-10
508.255	1	7
508.425	1	-8
508.595	1	4
508.766	1	-4
508.936	1	10
509.106	1	-2
509.276	1	0
509.446	1	7
509.616	1	1
509.787	1	2
509.957	1	-1
510.127	1	3
510.297	1	1
510.467	1	2
510.638	1	1
510.808	1	-6
510.978	1	-1
511.148	1	17
511.318	1	6
511.488	1	9
511.659	1	5
511.829	1	5
511.999	1	-8
512.169	1	-3
512.339	1	-8
512.509	1	-8
512.680	1	-9
512.850	1	0
513.020	1	4
513.190	1	9
513.360	1	3
513.530	1	2
513.700	1	1
513.871	1	2
514.041	1	0
514.211	1	-6
514.381	1	10
514.551	1	-8
514.721	1	-3
514.892	1	1
515.062	1	15
515.232	1	12
515.402	1	-7
515.572	1	6
515.742	1	5
515.912	1	-2
516.083	1	1
516.253	1	8
516.423	1	-3
516.593	1	-6
516.763	1	6
516.933	1	12
517.104	1	-2
517.274	1	8
517.444	1	2
517.614	1	-3
517.784	1	1
517.954	1	1
518.124	1	6
518.294	1	-5
518.465	1	3
518.635	1	2
518.805	1	6
518.975	1	-1
519.145	1	5
519.315	1	-6
519.485	1	3
519.656	1	5
519.826	1	-5
519.996	1	4
520.166	1	3
520.336	1	-4
520.506	1	0
520.676	1	6
520.846	1	-4
521.017	1	7
521.187	1	5
521.357	1	3
521.527	1	-5
521.697	1	0
521.867	1	-7
522.037	1	-8
522.207	1	4
522.377	1	-8
522.548	1	2
522.718	1	8
522.888	1	6
523.058	1	3
523.228	1	0
523.398	1	9
523.568	1	-1
523.738	1	-2
523.909	1	6
524.079	1	-1
524.249	1	6
524.419	1	2
524.589	1	1
524.759	1	4
524.929	1	5
525.099	1	-9
525.269	1	-10
525.439	1	3
525.610	1	-13
525.780	1	7
525.950	1	16
526.120	1	-5
526.290	1	0
526.460	1	9
526.630	1	1
526.800	1	-8
526.970	1	1
527.140	1	7
527.311	1	7
527.481	1	-5
527.651	1	-3
527.821	1	3
527.991	1	0
528.161	1	-11
528.331	1	2
528.501	1	0
528.671	1	3
528.841	1	14
529.011	1	-2
529.181	1	7
529.352	1	8
529.522	1	-2
529.692	1	-8
529.862	1	11
530.032	1	-2
530.202	1	10
530.372	1	16
530.542	1	-1
530.712	1	11
530.882	1	7
531.052	1	6
531.222	1	-1
531.392	1	-6
531.563	1	3
531.733	1	4
531.903	1	4
532.073	1	8
532.243	1	10
532.413	1	-3
532.583	1	2
532.753	1	11
532.923	1	0
533.093	1	-8
533.263	1	1
533.433	1	4
533.603	1	-5
533.773	1	-1
533.943	1	-6
534.113	1	13
534.284	1	-1
534.454	1	3
534.624	1	12
534.794	1	8
534.964	1	-9
535.134	1	4
535.304	1	9
535.474	1	-2
535.644	1	8
535.814	1	3
535.984	1	3
536.154	1	-1
536.324	1	-7
536.494	1	0
536.664	1	-1
536.834	1	10
537.004	1	3
537.174	1	2
537.344	1	-5
537.514	1	4
537.685	1	-1
537.855	1	-8
538.025	1	-8
538.195	1	0
538.365	1	9
538.535	1	-15
538.705	1	-1
538.875	1	-4
539.045	1	2
539.215	1	9
539.385	1	4
539.555	1	2
539.725	1	-5
539.895	1	1
540.065	1	-3
540.235	1	3
540.405	1	3
540.575	1	5
540.745	1	2
540.915	1	-6
541.085	1	-9
541.255	1	9
541.425	1	-7
541.595	1	-5
541.765	1	10
541.935	1	4
542.105	1	8
542.275	1	-3
542.445	1	2
542.615	1	-3
542.785	1	-8
542.955	1	-2
543.125	1	1
543.295	1	1
543.465	1	-2
543.635	1	-8
543.805	1	-1
543.975	1	-5
544.145	1	5
544.315	1	3
544.485	1	6
544.655	1	-3
544.825	1	3
544.995	1	12
545.165	1	5
545.335	1	-7
545.505	1	0
545.675	1	-5
545.845	1	5
546.015	1	3
546.185	1	-3
546.355	1	-4
546.525	1	-7
546.695	1	0
546.865	1	1
547.035	1	3
547.205	1	5
547.375	1	-2
547.545	1	-7
547.715	1	-3
547.885	1	-4
548.055	1	-2
548.225	1	2
548.395	1	-7
548.565	1	10
548.735	1	2
548.905	1	1
549.075	1	6
549.245	1	16
549.415	1	-3
549.585	1	0
549.755	1	5
549.925	1	-4
550.095	1	0
550.265	1	11
550.435	1	6
550.605	1	-4
550.775	1	0
550.945	1	-6
551.115	1	-5
551.285	1	0
551.455	1	-2
551.625	1	-3
551.795	1	-11
551.965	1	-6
552.135	1	4
552.305	1	12
552.475	1	-3
552.645	1	4
552.815	1	3
552.985	1	3
553.155	1	-5
553.325	1	-7
553.495	1	8
553.665	1	-6
553.835	1	10
554.004	1	8
554.174	1	7
554.344	1	2
554.514	1	10
554.684	1	-1
554.854	1	-9
555.024	1	-6
555.194	1	-4
555.364	1	6
555.534	1	-11
555.704	1	8
555.874	1	-3
556.044	1	8
556.214	1	-1
556.384	1	0
556.554	1	-6
556.724	1	-4
556.894	1	5
557.064	1	0
557.234	1	6
557.404	1	-2
557.573	1	-7
557.743	1	-4
557.913	1	8
558.083	1	6
558.253	1	-9
558.423	1	-3
558.593	1	5
558.763	1	1
558.933	1	1
559.103	1	10
559.273	1	-3
559.443	1	0
559.613	1	-2
559.783	1	-11
559.953	1	-4
560.122	1	-4
560.292	1	12
560.462	1	3
560.632	1	-15
560.802	1	-7
560.972	1	-6
561.142	1	-8
561.312	1	1
561.482	1	-6
561.652	1	-1
561.822	1	-12
561.992	1	-6
562.162	1	9
562.331	1	2
562.501	1	-1
562.671	1	8
562.841	1	-15
563.011	1	-3
563.181	1	3
563.351	1	4
563.521	1	-5
563.691	1	1
563.861	1	-1
564.031	1	-7
564.201	1	1
564.370	1	-4
564.540	1	6
564.710	1	-4
564.880	1	9
565.050	1	11
565.220	1	-10
565.390	1	-1
565.560	1	10
565.730	1	3
565.900	1	3
566.069	1	4
566.239	1	1
566.409	1	-15
566.579	1	2
566.749	1	-3
566.919	1	-1
567.089	1	-3
567.259	1	1
567.429	1	-3
567.599	1	11
567.768	1	0
567.938	1	-9
568.108	1	5
568.278	1	7
568.448	1	2
568.618	1	-1
568.788	1	1
568.958	1	-1
569.128	1	10
569.297	1	-5
569.467	1	-2
569.637	1	3
569.807	1	0
569.977	1	5
570.147	1	0
570.317	1	1
570.487	1	-7
570.656	1	-1
570.826	1	-3
570.996	1	-4
571.166	1	8
571.336	1	-9
571.506	1	2
571.676	1	4
571.846	1	-2
572.015	1	3
572.185	1	-3
572.355	1	-5
572.525	1	-10
572.695	1	-5
572.865	1	-5
573.035	1	13
573.205	1	-3
573.374	1	-3
573.544	1	11
573.714	1	-6
573.884	1	-7
574.054	1	-2
574.224	1	0
574.394	1	-17
574.563	1	1
574.733	1	2
574.903	1	0
575.073	1	-3
575.243	1	-1
575.413	1	3
575.583	1	0
575.752	1	2
575.922	1	-11
576.092	1	3
576.262	1	2
576.432	1	4
576.602	1	-19
576.772	1	7
576.941	1	5
577.111	1	-10
577.281	1	-9
577.451	1	-4
577.621	1	6
577.791	1	-5
577.960	1	-13
578.130	1	-4
578.300	1	-1
578.470	1	5
578.640	1	1
578.810	1	3
578.979	1	3
579.149	1	0
579.319	1	-7
579.489	1	-6
579.659	1	-8
579.829	1	-4
579.998	1	1
580.168	1	3
580.338	1	3
580.508	1	10
580.678	1	-1
580.848	1	6
581.017	1	6
581.187	1	2
581.357	1	-5
581.527	1	2
581.697	1	0
581.867	1	-2
582.036	1	0
582.206	1	1
582.376	1	3
582.546	1	-6
582.716	1	-2
582.885	1	-9
583.055	1	-2
583.225	1	1
583.395	1	9
583.565	1	3
583.735	1	3
583.904	1	3
584.074	1	2
584.244	1	-12
584.414	1	0
584.584	1	-7
584.753	1	13
584.923	1	-3
585.093	1	-5
585.263	1	-1
585.433	1	-1
585.602	1	0
585.772	1	-6
585.942	1	2
586.112	1	3
586.282	1	3
586.451	1	6
586.621	1	2
586.791	1	1
586.961	1	-2
587.131	1	-1
587.300	1	-8
587.470	1	-6
587.640	1	6
587.810	1	10
587.980	1	0
588.149	1	1
588.319	1	14
588.489	1	2
588.659	1	-4
588.829	1	0
588.998	1	3
589.168	1	11
589.338	1	-2
589.508	1	11
589.677	1	1
589.847	1	12
590.017	1	-5
590.187	1	8
590.357	1	-2
590.526	1	-4
590.696	1	2
590.866	1	6
591.036	1	3
591.205	1	1
591.375	1	-14
591.545	1	0
591.715	1	3
591.885	1	-4
592.054	1	3
592.224	1	2
592.394	1	-9
592.564	1	8
592.733	1	-5
592.903	1	7
593.073	1	-4
593.243	1	9
593.412	1	-4
593.582	1	2
593.752	1	0
593.922	1	-7
594.091	1	-7
594.261	1	-4
594.431	1	18
594.601	1	-8
594.771	1	9
594.940	1	8
595.110	1	-8
595.280	1	-2
595.450	1	4
595.619	1	3
595.789	1	-3
595.959	1	6
596.129	1	-2
596.298	1	3
596.468	1	-1
596.638	1	0
596.808	1	1
596.977	1	-9
597.147	1	-4
597.317	1	-3
597.487	1	-2
597.656	1	6
597.826	1	8
597.996	1	-1
598.166	1	3
598.335	1	1
598.505	1	8
598.675	1	-5
598.844	1	-14
599.014	1	7
599.184	1	3
599.354	1	3
599.523	1	-1
599.693	1	12
599.863	1	4
600.033	1	1
600.202	1	14
600.372	1	1
600.542	1	-4
600.712	1	3
600.881	1	-11
601.051	1	2
601.221	1	9
601.390	1	-9
601.560	1	3
601.730	1	16
601.900	1	0
602.069	1	7
602.239	1	0
602.409	1	5
602.578	1	-4
602.748	1	-11
602.918	1	0
603.088	1	4
603.257	1	2
603.427	1	0
603.597	1	4
603.767	1	5
603.936	1	-3
604.106	1	8
604.276	1	10
604.445	1	4
604.615	1	-8
604.785	1	3
604.954	1	10
605.124	1	-5
605.294	1	9
605.464	1	-4
605.633	1	7
605.803	1	1
605.973	1	4
606.142	1	8
606.312	1	-5
606.482	1	5
606.652	1	-6
606.821	1	-1
606.991	1	0
607.161	1	7
607.330	1	-10
607.500	1	7
607.670	1	3
607.839	1	14
608.009	1	0
608.179	1	-3
608.348	1	4
608.518	1	8
608.688	1	-1
608.858	1	7
609.027	1	7
609.197	1	-14
609.367	1	12
609.536	1	3
609.706	1	-7
609.876	1	12
610.045	1	6
610.215	1	3
610.385	1	-13
610.554	1	-6
610.724	1	1
610.894	1	5
611.063	1	3
611.233	1	6
611.403	1	6
611.572	1	8
611.742	1	2
611.912	1	4
612.081	1	-3
612.251	1	15
612.421	1	3
612.590	1	6
612.760	1	4
612.930	1	-9
613.099	1	6
613.269	1	0
613.439	1	-1
613.608	1	-1
613.778	1	-8
613.948	1	1
614.117	1	1
614.287	1	2
614.457	1	-13
614.626	1	5
614.796	1	-5
614.966	1	6
615.135	1	4
615.305	1	4
615.475	1	-6
615.644	1	3
615.814	1	-4
615.984	1	3
616.153	1	2
616.323	1	7
616.493	1	16
616.662	1	8
616.832	1	3
617.002	1	-7
617.171	1	3
617.341	1	1
617.511	1	0
617.680	1	3
617.850	1	3
618.019	1	1
618.189	1	11
618.359	1	4
618.528	1	1
618.698	1	6
618.868	1	-8
619.037	1	6
619.207	1	7
619.377	1	3
619.546	1	4
619.716	1	4
619.885	1	3
620.055	1	5
620.225	1	11
620.394	1	1
620.564	1	10
620.734	1	10
620.903	1	-1
621.073	1	-4
621.242	1	2
621.412	1	5
621.582	1	3
621.751	1	14
621.921	1	4
622.091	1	6
622.260	1	-4
622.430	1	-2
622.599	1	-4
622.769	1	2
622.939	1	6
623.108	1	8
623.278	1	8
623.448	1	15
623.617	1	6
623.787	1	0
623.956	1	15
624.126	1	13
624.296	1	6
624.465	1	-3
624.635	1	12
624.804	1	-5
624.974	1	3
625.144	1	5
625.313	1	-5
625.483	1	15
625.652	1	9
625.822	1	-3
625.992	1	3
626.161	1	4
626.331	1	7
626.501	1	7
626.670	1	7
626.840	1	8
627.009	1	8
627.179	1	8
627.348	1	5
627.518	1	12
627.688	1	7
627.857	1	10
628.027	1	-1
628.196	1	10
628.366	1	-8
628.536	1	6
628.705	1	-4
628.875	1	16
629.044	1	4
629.214	1	4
629.384	1	3
629.553	1	5
629.723	1	-5
629.892	1	12
630.062	1	0
630.232	1	4
630.401	1	10
630.571	1	5
630.740	1	2
630.910	1	4
631.079	1	-4
631.249	1	-6
631.419	1	-5
631.588	1	12
631.758	1	0
631.927	1	10
632.097	1	2
632.266	1	9
632.436	1	-3
632.606	1	2
632.775	1	11
632.945	1	13
633.114	1	-8
633.284	1	2
633.453	1	2
633.623	1	12
633.793	1	-10
633.962	1	5
634.132	1	2
634.301	1	15
634.471	1	-2
634.640	1	1
634.810	1	5
634.979	1	-3
635.149	1	6
635.319	1	3
635.488	1	13
635.658	1	12
635.827	1	5
635.997	1	15
636.166	1	0
636.336	1	10
636.505	1	13
636.675	1	3
636.845	1	2
637.014	1	-1
637.184	1	6
637.353	1	9
637.523	1	8
637.692	1	6
637.862	1	1
638.031	1	11
638.201	1	13
638.370	1	-4
638.540	1	-3
638.710	1	7
638.879	1	10
639.049	1	5
639.218	1	6
639.388	1	11
639.557	1	9
639.727	1	4
639.896	1	-2
640.066	1	9
640.235	1	3
640.405	1	-2
640.574	1	2
640.744	1	11
640.914	1	12
641.083	1	4
641.253	1	20
641.422	1	10
641.592	1	1
641.761	1	3
641.931	1	-7
642.100	1	10
642.270	1	-3
642.439	1	-3
642.609	1	6
642.778	1	-2
642.948	1	-2
643.117	1	11
643.287	1	-2
643.456	1	9
643.626	1	13
643.795	1	8
643.965	1	5
644.134	1	1
644.304	1	8
644.473	1	6
644.643	1	1
644.812	1	8
644.982	1	6
645.151	1	15
645.321	1	-1
645.490	1	2
645.660	1	-1
645.829	1	5
645.999	1	3
646.168	1	1
646.338	1	2
646.507	1	10
646.677	1	-4
646.846	1	12
647.016	1	6
647.185	1	2
647.355	1	0
647.524	1	-4
647.694	1	-4
647.863	1	-10
648.033	1	5
648.202	1	9
648.372	1	10
648.541	1	5
648.711	1	4
648.880	1	7
649.050	1	4
649.219	1	-6
649.389	1	9
649.558	1	-5
649.728	1	-5
649.897	1	2
650.067	1	-3
650.236	1	10
650.406	1	3
650.575	1	7
650.745	1	4
650.914	1	0
651.084	1	-3
651.253	1	7
651.423	1	4
651.592	1	10
651.762	1	7
651.931	1	7
652.101	1	1
652.270	1	6
652.440	1	-3
652.609	1	4
652.778	1	2
652.948	1	5
653.117	1	-1
653.287	1	7
653.456	1	14
653.626	1	7
653.795	1	3
653.965	1	6
654.134	1	1
654.304	1	9
654.473	1	3
654.643	1	6
654.812	1	2
654.982	1	-5
655.151	1	-1
655.320	1	-3
655.490	1	11
655.659	1	4
655.829	1	15
655.998	1	-7
656.168	1	2
656.337	1	5
656.507	1	7
656.676	1	6
656.846	1	-6
657.015	1	-8
657.184	1	1
657.354	1	10
657.523	1	5
657.693	1	2
657.862	1	1
658.032	1	1
658.201	1	-2
658.371	1	2
658.540	1	-14
658.709	1	0
658.879	1	-14
659.048	1	-1
659.218	1	3
659.387	1	7
659.557	1	10
659.726	1	8
659.895	1	2
660.065	1	-10
660.234	1	0
660.404	1	1
660.573	1	6
660.743	1	11
660.912	1	3
661.081	1	10
661.251	1	8
661.420	1	-2
661.590	1	-5
661.759	1	8
661.929	1	4
662.098	1	-1
662.267	1	-1
662.437	1	7
662.606	1	12
662.776	1	2
662.945	1	5
663.115	1	2
663.284	1	8
663.453	1	-6
663.623	1	10
663.792	1	2
663.962	1	3
664.131	1	11
664.300	1	-4
664.470	1	9
664.639	1	6
664.809	1	-2
664.978	1	5
665.148	1	1
665.317	1	1
665.486	1	0
665.656	1	-3
665.825	1	1
665.995	1	6
666.164	1	-4
666.333	1	10
666.503	1	15
666.672	1	3
666.842	1	-6
667.011	1	6
667.180	1	5
667.350	1	10
667.519	1	14
667.689	1	-4
667.858	1	3
668.027	1	17
668.197	1	12
668.366	1	1
668.536	1	6
668.705	1	-1
668.874	1	5
669.044	1	4
669.213	1	4
669.382	1	4
669.552	1	8
669.721	1	14
669.891	1	1
670.060	1	5
670.229	1	2
670.399	1	12
670.568	1	-3
670.738	1	-1
670.907	1	-6
671.076	1	0
671.246	1	16
671.415	1	8
671.584	1	0
671.754	1	4
671.923	1	6
672.093	1	6
672.262	1	6
672.431	1	-9
672.601	1	5
672.770	1	3
672.939	1	6
673.109	1	0
673.278	1	13
673.448	1	-6
673.617	1	-2
673.786	1	8
