325.333	1	6
325.504	1	9
325.675	1	6
325.846	1	11
326.017	1	18
326.188	1	17
326.359	1	4
326.531	1	4
326.702	1	7
326.873	1	12
327.044	1	9
327.215	1	6
327.386	1	12
327.557	1	6
327.728	1	13
327.899	1	23
328.070	1	21
328.241	1	14
328.412	1	10
328.583	1	6
328.754	1	7
328.926	1	5
329.097	1	8
329.268	1	6
329.439	1	9
329.610	1	16
329.781	1	7
329.952	1	17
330.123	1	12
330.294	1	12
330.465	1	6
330.636	1	13
330.807	1	0
330.978	1	7
331.149	1	14
331.320	1	12
331.492	1	16
331.663	1	9
331.834	1	11
332.005	1	13
332.176	1	13
332.347	1	23
332.518	1	13
332.689	1	4
332.860	1	12
333.031	1	10
333.202	1	7
333.373	1	17
333.544	1	9
333.715	1	17
333.886	1	10
334.057	1	22
334.228	1	14
334.399	1	10
334.570	1	15
334.741	1	8
334.912	1	16
335.084	1	6
335.255	1	13
335.426	1	7
335.597	1	17
335.768	1	22
335.939	1	14
336.110	1	18
336.281	1	10
336.452	1	18
336.623	1	12
336.794	1	14
336.965	1	13
337.136	1	11
337.307	1	9
337.478	1	20
337.649	1	16
337.820	1	18
337.991	1	12
338.162	1	15
338.333	1	10
338.504	1	14
338.675	1	15
338.846	1	18
339.017	1	8
339.188	1	12
339.359	1	19
339.530	1	19
339.701	1	12
339.872	1	18
340.043	1	4
340.214	1	6
340.385	1	9
340.556	1	13
340.727	1	11
340.898	1	28
341.069	1	22
341.240	1	16
341.411	1	6
341.582	1	15
341.753	1	7
341.924	1	1
342.095	1	8
342.266	1	12
342.437	1	14
342.608	1	22
342.779	1	13
342.950	1	11
343.121	1	20
343.292	1	17
343.463	1	14
343.634	1	3
343.805	1	11
343.976	1	18
344.147	1	9
344.318	1	10
344.489	1	26
344.660	1	12
344.831	1	26
345.002	1	19
345.173	1	12
345.344	1	13
345.515	1	4
345.686	1	25
345.857	1	24
346.028	1	11
346.199	1	11
346.370	1	24
346.541	1	8
346.712	1	13
346.883	1	20
347.054	1	7
347.225	1	23
347.396	1	6
347.567	1	20
347.738	1	11
347.909	1	20
348.080	1	18
348.251	1	16
348.422	1	19
348.593	1	14
348.764	1	12
348.935	1	10
349.106	1	16
349.277	1	10
349.448	1	21
349.619	1	15
349.790	1	30
349.961	1	23
350.132	1	30
350.303	1	16
350.474	1	12
350.645	1	14
350.816	1	10
350.987	1	22
351.157	1	17
351.328	1	16
351.499	1	18
351.670	1	14
351.841	1	27
352.012	1	17
352.183	1	18
352.354	1	9
352.525	1	20
352.696	1	28
352.867	1	18
353.038	1	9
353.209	1	19
353.380	1	14
353.551	1	3
353.722	1	14
353.893	1	19
354.064	1	14
354.235	1	19
354.406	1	11
354.576	1	16
354.747	1	13
354.918	1	22
355.089	1	22
355.260	1	29
355.431	1	11
355.602	1	19
355.773	1	11
355.944	1	9
356.115	1	24
356.286	1	21
356.457	1	19
356.628	1	11
356.799	1	19
356.970	1	27
357.141	1	6
357.311	1	20
357.482	1	14
357.653	1	6
357.824	1	17
357.995	1	11
358.166	1	11
358.337	1	24
358.508	1	12
358.679	1	16
358.850	1	9
359.021	1	19
359.192	1	21
359.363	1	13
359.533	1	11
359.704	1	20
359.875	1	29
360.046	1	26
360.217	1	22
360.388	1	10
360.559	1	17
360.730	1	17
360.901	1	19
361.072	1	20
361.243	1	20
361.414	1	13
361.584	1	12
361.755	1	11
361.926	1	21
362.097	1	16
362.268	1	9
362.439	1	14
362.610	1	21
362.781	1	19
362.952	1	20
363.123	1	20
363.293	1	18
363.464	1	14
363.635	1	16
363.806	1	21
363.977	1	22
364.148	1	9
364.319	1	15
364.490	1	18
364.661	1	12
364.832	1	18
365.002	1	23
365.173	1	19
365.344	1	14
365.515	1	8
365.686	1	11
365.857	1	14
366.028	1	25
366.199	1	13
366.370	1	27
366.540	1	6
366.711	1	12
366.882	1	7
367.053	1	24
367.224	1	14
367.395	1	18
367.566	1	11
367.737	1	22
367.908	1	14
368.078	1	23
368.249	1	26
368.420	1	12
368.591	1	14
368.762	1	4
368.933	1	12
369.104	1	22
369.274	1	9
369.445	1	19
369.616	1	15
369.787	1	33
369.958	1	11
370.129	1	10
370.300	1	16
370.471	1	22
370.641	1	19
370.812	1	23
370.983	1	17
371.154	1	21
371.325	1	23
371.496	1	21
371.667	1	16
371.837	1	20
372.008	1	3
372.179	1	8
372.350	1	10
372.521	1	22
372.692	1	15
372.863	1	12
373.033	1	22
373.204	1	12
373.375	1	16
373.546	1	21
373.717	1	13
373.888	1	21
374.059	1	16
374.229	1	9
374.400	1	12
374.571	1	20
374.742	1	20
374.913	1	16
375.084	1	20
375.254	1	18
375.425	1	17
375.596	1	25
375.767	1	23
375.938	1	22
376.109	1	23
376.279	1	3
376.450	1	15
376.621	1	10
376.792	1	15
376.963	1	20
377.134	1	19
377.304	1	20
377.475	1	21
377.646	1	19
377.817	1	12
377.988	1	8
378.159	1	21
378.329	1	11
378.500	1	10
378.671	1	25
378.842	1	8
379.013	1	25
379.184	1	7
379.354	1	13
379.525	1	17
379.696	1	28
379.867	1	21
380.038	1	25
380.209	1	8
380.379	1	20
380.550	1	20
380.721	1	10
380.892	1	10
381.063	1	16
381.233	1	15
381.404	1	27
381.575	1	15
381.746	1	17
381.917	1	22
382.087	1	26
382.258	1	33
382.429	1	17
382.600	1	26
382.771	1	21
382.941	1	27
383.112	1	16
383.283	1	28
383.454	1	22
383.625	1	15
383.795	1	19
383.966	1	15
384.137	1	22
384.308	1	19
384.479	1	15
384.649	1	29
384.820	1	34
384.991	1	12
385.162	1	29
385.333	1	22
385.503	1	11
385.674	1	1
385.845	1	23
386.016	1	23
386.187	1	23
386.357	1	26
386.528	1	14
386.699	1	18
386.870	1	14
387.041	1	37
387.211	1	19
387.382	1	10
387.553	1	22
387.724	1	29
387.894	1	28
388.065	1	14
388.236	1	27
388.407	1	29
388.578	1	27
388.748	1	22
388.919	1	20
389.090	1	36
389.261	1	23
389.431	1	22
389.602	1	35
389.773	1	20
389.944	1	27
390.114	1	35
390.285	1	23
390.456	1	20
390.627	1	34
390.798	1	33
390.968	1	35
391.139	1	13
391.310	1	25
391.481	1	31
391.651	1	28
391.822	1	32
391.993	1	33
392.164	1	24
392.334	1	25
392.505	1	36
392.676	1	30
392.847	1	28
393.017	1	34
393.188	1	36
393.359	1	30
393.530	1	32
393.700	1	29
393.871	1	24
394.042	1	32
394.213	1	26
394.383	1	25
394.554	1	43
394.725	1	21
394.896	1	32
395.066	1	27
395.237	1	24
395.408	1	31
395.579	1	13
395.749	1	29
395.920	1	14
396.091	1	26
396.262	1	27
396.432	1	27
396.603	1	20
396.774	1	30
396.945	1	19
397.115	1	17
397.286	1	29
397.457	1	23
397.627	1	15
397.798	1	29
397.969	1	26
398.140	1	20
398.310	1	30
398.481	1	23
398.652	1	25
398.823	1	30
398.993	1	34
399.164	1	32
399.335	1	33
399.505	1	30
399.676	1	33
399.847	1	39
400.018	1	42
400.188	1	21
400.359	1	33
400.530	1	36
400.700	1	32
400.871	1	30
401.042	1	41
401.213	1	24
401.383	1	40
401.554	1	31
401.725	1	39
401.895	1	24
402.066	1	32
402.237	1	26
402.408	1	27
402.578	1	40
402.749	1	24
402.920	1	27
403.090	1	32
403.261	1	32
403.432	1	32
403.603	1	30
403.773	1	45
403.944	1	33
404.115	1	29
404.285	1	40
404.456	1	34
404.627	1	28
404.797	1	27
404.968	1	43
405.139	1	33
405.310	1	40
405.480	1	30
405.651	1	24
405.822	1	39
405.992	1	41
406.163	1	51
406.334	1	26
406.504	1	35
406.675	1	46
406.846	1	29
407.016	1	39
407.187	1	41
407.358	1	42
407.528	1	34
407.699	1	30
407.870	1	44
408.041	1	39
408.211	1	34
408.382	1	37
408.553	1	43
408.723	1	31
408.894	1	29
409.065	1	37
409.235	1	53
409.406	1	28
409.577	1	30
409.747	1	28
409.918	1	31
410.089	1	42
410.259	1	27
410.430	1	45
410.601	1	42
410.771	1	46
410.942	1	35
411.113	1	38
411.283	1	41
411.454	1	39
411.625	1	40
411.795	1	29
411.966	1	50
412.137	1	39
412.307	1	43
412.478	1	41
412.649	1	34
412.819	1	28
412.990	1	45
413.161	1	42
413.331	1	44
413.502	1	40
413.672	1	42
413.843	1	40
414.014	1	40
414.184	1	35
414.355	1	36
414.526	1	38
414.696	1	35
414.867	1	40
415.038	1	39
415.208	1	45
415.379	1	36
415.550	1	48
415.720	1	27
415.891	1	53
416.062	1	36
416.232	1	43
416.403	1	52
416.573	1	47
416.744	1	38
416.915	1	52
417.085	1	33
417.256	1	27
417.427	1	30
417.597	1	44
417.768	1	40
417.939	1	32
418.109	1	34
418.280	1	39
418.450	1	43
418.621	1	41
418.792	1	38
418.962	1	26
419.133	1	36
419.304	1	36
419.474	1	40
419.645	1	41
419.815	1	40
419.986	1	42
420.157	1	27
420.327	1	38
420.498	1	45
420.669	1	28
420.839	1	27
421.010	1	41
421.180	1	36
421.351	1	37
421.522	1	37
421.692	1	39
421.863	1	40
422.033	1	27
422.204	1	38
422.375	1	30
422.545	1	42
422.716	1	38
422.886	1	29
423.057	1	34
423.228	1	34
423.398	1	38
423.569	1	39
423.740	1	34
423.910	1	36
424.081	1	29
424.251	1	40
424.422	1	28
424.593	1	44
424.763	1	43
424.934	1	37
425.104	1	42
425.275	1	44
425.445	1	28
425.616	1	38
425.787	1	36
425.957	1	28
426.128	1	39
426.298	1	40
426.469	1	32
426.640	1	42
426.810	1	50
426.981	1	47
427.151	1	42
427.322	1	41
427.493	1	38
427.663	1	37
427.834	1	39
428.004	1	31
428.175	1	51
428.345	1	30
428.516	1	43
428.687	1	45
428.857	1	36
429.028	1	38
429.198	1	43
429.369	1	38
429.540	1	33
429.710	1	46
429.881	1	28
430.051	1	44
430.222	1	36
430.392	1	38
430.563	1	41
430.734	1	37
430.904	1	33
431.075	1	40
431.245	1	33
431.416	1	47
431.586	1	21
431.757	1	43
431.927	1	41
432.098	1	29
432.269	1	43
432.439	1	48
432.610	1	42
432.780	1	24
432.951	1	40
433.121	1	34
433.292	1	20
433.462	1	38
433.633	1	35
433.804	1	32
433.974	1	41
434.145	1	34
434.315	1	32
434.486	1	43
434.656	1	37
434.827	1	30
434.997	1	30
435.168	1	44
435.339	1	30
435.509	1	31
435.680	1	42
435.850	1	35
436.021	1	49
436.191	1	34
436.362	1	39
436.532	1	33
436.703	1	34
436.873	1	28
437.044	1	33
437.214	1	33
437.385	1	47
437.556	1	40
437.726	1	32
437.897	1	39
438.067	1	25
438.238	1	39
438.408	1	35
438.579	1	42
438.749	1	25
438.920	1	39
439.090	1	33
439.261	1	47
439.431	1	34
439.602	1	36
439.772	1	44
439.943	1	31
440.113	1	44
440.284	1	28
440.455	1	30
440.625	1	41
440.796	1	42
440.966	1	29
441.137	1	40
441.307	1	32
441.478	1	39
441.648	1	29
441.819	1	36
441.989	1	43
442.160	1	28
442.330	1	40
442.501	1	43
442.671	1	25
442.842	1	45
443.012	1	41
443.183	1	33
443.353	1	42
443.524	1	36
443.694	1	31
443.865	1	33
444.035	1	28
444.206	1	39
444.376	1	32
444.547	1	40
444.717	1	27
444.888	1	28
445.058	1	33
445.229	1	29
445.399	1	34
445.570	1	23
445.740	1	21
445.911	1	36
446.081	1	44
446.252	1	33
446.422	1	29
446.593	1	35
446.763	1	31
446.934	1	38
447.104	1	25
447.275	1	34
447.445	1	30
447.616	1	27
447.786	1	35
447.957	1	40
448.127	1	40
448.298	1	38
448.468	1	22
448.639	1	32
448.809	1	33
448.979	1	14
449.150	1	26
449.320	1	34
449.491	1	29
449.661	1	38
449.832	1	28
450.002	1	39
450.173	1	21
450.343	1	42
450.514	1	32
450.684	1	28
450.855	1	31
451.025	1	28
451.196	1	33
451.366	1	29
451.537	1	33
451.707	1	38
451.878	1	19
452.048	1	28
452.218	1	45
452.389	1	31
452.559	1	17
452.730	1	31
452.900	1	34
453.071	1	23
453.241	1	45
453.412	1	30
453.582	1	32
453.753	1	34
453.923	1	29
454.093	1	42
454.264	1	31
454.434	1	31
454.605	1	39
454.775	1	31
454.946	1	30
455.116	1	38
455.287	1	22
455.457	1	25
455.628	1	28
455.798	1	22
455.968	1	27
456.139	1	15
456.309	1	25
456.480	1	30
456.650	1	43
456.821	1	32
456.991	1	36
457.161	1	28
457.332	1	32
457.502	1	32
457.673	1	17
457.843	1	39
458.014	1	25
458.184	1	28
458.355	1	27
458.525	1	12
458.695	1	24
458.866	1	27
459.036	1	23
459.207	1	23
459.377	1	26
459.548	1	31
459.718	1	22
459.888	1	28
460.059	1	31
460.229	1	20
460.400	1	27
460.570	1	31
460.740	1	21
460.911	1	26
461.081	1	21
461.252	1	28
461.422	1	21
461.593	1	9
461.763	1	37
461.933	1	22
462.104	1	34
462.274	1	35
462.445	1	15
462.615	1	19
462.785	1	22
462.956	1	24
463.126	1	21
463.297	1	27
463.467	1	31
463.638	1	12
463.808	1	17
463.978	1	24
464.149	1	18
464.319	1	18
464.490	1	29
464.660	1	20
464.830	1	20
465.001	1	42
465.171	1	14
465.342	1	22
465.512	1	28
465.682	1	23
465.853	1	21
466.023	1	21
466.194	1	23
466.364	1	25
466.534	1	23
466.705	1	24
466.875	1	25
467.045	1	12
467.216	1	26
467.386	1	28
467.557	1	18
467.727	1	14
467.897	1	21
468.068	1	23
468.238	1	23
468.409	1	16
468.579	1	14
468.749	1	21
468.920	1	28
469.090	1	26
469.260	1	13
469.431	1	15
469.601	1	19
469.772	1	16
469.942	1	25
470.112	1	25
470.283	1	27
470.453	1	22
470.623	1	19
470.794	1	26
470.964	1	11
471.135	1	19
471.305	1	23
471.475	1	23
471.646	1	21
471.816	1	11
471.986	1	18
472.157	1	23
472.327	1	19
472.497	1	7
472.668	1	18
472.838	1	19
473.009	1	32
473.179	1	18
473.349	1	9
473.520	1	19
473.690	1	21
473.860	1	23
474.031	1	20
474.201	1	22
474.371	1	17
474.542	1	25
474.712	1	10
474.882	1	25
475.053	1	26
475.223	1	27
475.394	1	29
475.564	1	13
475.734	1	8
475.905	1	21
476.075	1	9
476.245	1	23
476.416	1	15
476.586	1	22
476.756	1	34
476.927	1	23
477.097	1	13
477.267	1	22
477.438	1	0
477.608	1	16
477.778	1	19
477.949	1	12
478.119	1	16
478.289	1	25
478.460	1	23
478.630	1	7
478.800	1	16
478.971	1	17
479.141	1	8
479.311	1	15
479.482	1	19
479.652	1	13
479.822	1	19
479.993	1	12
480.163	1	4
480.333	1	14
480.504	1	20
480.674	1	21
480.844	1	23
481.015	1	5
481.185	1	26
481.355	1	15
481.525	1	13
481.696	1	20
481.866	1	13
482.036	1	16
482.207	1	12
482.377	1	14
482.547	1	12
482.718	1	21
482.888	1	7
483.058	1	14
483.229	1	12
483.399	1	21
483.569	1	18
483.740	1	21
483.910	1	7
484.080	1	20
484.250	1	22
484.421	1	14
484.591	1	15
484.761	1	17
484.932	1	12
485.102	1	28
485.272	1	22
485.443	1	10
485.613	1	23
485.783	1	7
485.953	1	3
486.124	1	10
486.294	1	17
486.464	1	10
486.635	1	21
486.805	1	6
486.975	1	16
487.146	1	6
487.316	1	21
487.486	1	16
487.656	1	10
487.827	1	13
487.997	1	14
488.167	1	20
488.338	1	-4
488.508	1	13
488.678	1	15
488.848	1	15
489.019	1	14
489.189	1	18
489.359	1	13
489.529	1	9
489.700	1	13
489.870	1	11
490.040	1	2
490.211	1	12
490.381	1	10
490.551	1	6
490.721	1	17
490.892	1	29
491.062	1	11
491.232	1	7
491.402	1	10
491.573	1	19
491.743	1	-2
491.913	1	12
492.084	1	10
492.254	1	17
492.424	1	12
492.594	1	19
492.765	1	11
492.935	1	20
493.105	1	24
493.275	1	10
493.446	1	18
493.616	1	12
493.786	1	18
493.956	1	1
494.127	1	12
494.297	1	12
494.467	1	18
494.637	1	16
494.808	1	3
494.978	1	20
495.148	1	10
495.318	1	-3
495.489	1	6
495.659	1	20
495.829	1	21
495.999	1	16
496.170	1	9
496.340	1	23
496.510	1	8
496.680	1	6
496.851	1	12
497.021	1	4
497.191	1	11
497.361	1	6
497.532	1	1
497.702	1	14
497.872	1	12
498.042	1	14
498.213	1	1
498.383	1	16
498.553	1	8
498.723	1	6
498.894	1	18
499.064	1	16
499.234	1	1
499.404	1	12
499.574	1	15
499.745	1	12
499.915	1	1
500.085	1	14
500.255	1	2
500.426	1	2
500.596	1	16
500.766	1	14
500.936	1	6
501.106	1	18
501.277	1	19
501.447	1	9
501.617	1	8
501.787	1	17
501.958	1	8
502.128	1	22
502.298	1	19
502.468	1	12
502.638	1	8
502.809	1	11
502.979	1	10
503.149	1	9
503.319	1	9
503.489	1	3
503.660	1	9
503.830	1	12
504.000	1	17
504.170	1	11
504.340	1	17
504.511	1	17
504.681	1	16
504.851	1	19
505.021	1	9
505.192	1	-3
505.362	1	10
505.532	1	4
505.702	1	8
505.872	1	18
506.043	1	8
506.213	1	11
506.383	1	24
506.553	1	10
506.723	1	14
506.893	1	2
507.064	1	12
507.234	1	-2
507.404	1	22
507.574	1	17
507.744	1	7
507.915	1	6
508.085	1	0
508.255	1	8
508.425	1	11
508.595	1	11
508.766	1	9
508.936	1	20
509.106	1	15
509.276	1	16
509.446	1	10
509.616	1	4
509.787	1	13
509.957	1	7
510.127	1	11
510.297	1	14
510.467	1	0
510.638	1	15
510.808	1	3
510.978	1	3
511.148	1	17
511.318	1	6
511.488	1	19
511.659	1	2
511.829	1	14
511.999	1	10
512.169	1	2
512.339	1	-4
512.509	1	9
512.680	1	6
512.850	1	8
513.020	1	10
513.190	1	19
513.360	1	2
513.530	1	12
513.700	1	4
513.871	1	20
514.041	1	-2
514.211	1	11
514.381	1	14
514.551	1	2
514.721	1	11
514.892	1	13
515.062	1	3
515.232	1	12
515.402	1	14
515.572	1	11
515.742	1	12
515.912	1	6
516.083	1	8
516.253	1	11
516.423	1	3
516.593	1	0
516.763	1	14
516.933	1	10
517.104	1	1
517.274	1	11
517.444	1	1
517.614	1	10
517.784	1	1
517.954	1	12
518.124	1	10
518.294	1	2
518.465	1	18
518.635	1	11
518.805	1	8
518.975	1	6
519.145	1	12
519.315	1	14
519.485	1	7
519.656	1	12
519.826	1	-4
519.996	1	8
520.166	1	4
520.336	1	10
520.506	1	4
520.676	1	20
520.846	1	13
521.017	1	12
521.187	1	18
521.357	1	-2
521.527	1	10
521.697	1	4
521.867	1	4
522.037	1	8
522.207	1	6
522.377	1	9
522.548	1	5
522.718	1	11
522.888	1	19
523.058	1	7
523.228	1	-4
523.398	1	15
523.568	1	10
523.738	1	6
523.909	1	2
524.079	1	5
524.249	1	-5
524.419	1	6
524.589	1	14
524.759	1	17
524.929	1	12
525.099	1	6
525.269	1	2
525.439	1	19
525.610	1	-8
525.780	1	1
525.950	1	15
526.120	1	1
526.290	1	4
526.460	1	10
526.630	1	7
526.800	1	7
526.970	1	5
527.140	1	20
527.311	1	23
527.481	1	-11
527.651	1	12
527.821	1	-1
527.991	1	5
528.161	1	0
528.331	1	7
528.501	1	-1
528.671	1	19
528.841	1	19
529.011	1	1
529.181	1	9
529.352	1	5
529.522	1	5
529.692	1	2
529.862	1	5
530.032	1	5
530.202	1	1
530.372	1	14
530.542	1	2
530.712	1	13
530.882	1	6
531.052	1	13
531.222	1	1
531.392	1	17
531.563	1	1
531.733	1	-12
531.903	1	7
532.073	1	5
532.243	1	13
532.413	1	8
532.583	1	13
532.753	1	12
532.923	1	5
533.093	1	-3
533.263	1	12
533.433	1	3
533.603	1	8
533.773	1	10
533.943	1	8
534.113	1	5
534.284	1	0
534.454	1	13
534.624	1	5
534.794	1	7
534.964	1	3
535.134	1	7
535.304	1	19
535.474	1	-4
535.644	1	15
535.814	1	6
535.984	1	8
536.154	1	-5
536.324	1	0
536.494	1	1
536.664	1	6
536.834	1	-2
537.004	1	11
537.174	1	4
537.344	1	17
537.514	1	-3
537.685	1	10
537.855	1	2
538.025	1	6
538.195	1	-1
538.365	1	19
538.535	1	-5
538.705	1	6
538.875	1	11
539.045	1	9
539.215	1	7
539.385	1	-9
539.555	1	-3
539.725	1	0
539.895	1	4
540.065	1	8
540.235	1	9
540.405	1	-1
540.575	1	5
540.745	1	8
540.915	1	1
541.085	1	8
541.255	1	5
541.425	1	-3
541.595	1	7
541.765	1	19
541.935	1	13
542.105	1	2
542.275	1	7
542.445	1	10
542.615	1	-1
542.785	1	15
542.955	1	1
543.125	1	1
543.295	1	12
543.465	1	1
543.635	1	5
543.805	1	8
543.975	1	-2
544.145	1	11
544.315	1	9
544.485	1	6
544.655	1	1
544.825	1	11
544.995	1	17
545.165	1	7
545.335	1	-4
545.505	1	3
545.675	1	-12
545.845	1	7
546.015	1	6
546.185	1	6
546.355	1	0
546.525	1	6
546.695	1	-1
546.865	1	6
547.035	1	-5
547.205	1	10
547.375	1	5
547.545	1	-3
547.715	1	7
547.885	1	8
548.055	1	-2
548.225	1	13
548.395	1	0
548.565	1	16
548.735	1	7
548.905	1	14
549.075	1	-6
549.245	1	8
549.415	1	1
549.585	1	1
549.755	1	10
549.925	1	3
550.095	1	13
550.265	1	16
550.435	1	5
550.605	1	10
550.775	1	8
550.945	1	4
551.115	1	7
551.285	1	5
551.455	1	3
551.625	1	2
551.795	1	-8
551.965	1	1
552.135	1	-1
552.305	1	4
552.475	1	-2
552.645	1	5
552.815	1	5
552.985	1	-2
553.155	1	11
553.325	1	-5
553.495	1	11
553.665	1	-8
553.835	1	7
554.004	1	13
554.174	1	7
554.344	1	0
554.514	1	2
554.684	1	-12
554.854	1	5
555.024	1	9
555.194	1	2
555.364	1	3
555.534	1	-1
555.704	1	11
555.874	1	-2
556.044	1	1
556.214	1	10
556.384	1	12
556.554	1	2
556.724	1	9
556.894	1	9
557.064	1	14
557.234	1	-6
557.404	1	13
557.573	1	-5
557.743	1	2
557.913	1	17
558.083	1	3
558.253	1	0
558.423	1	0
558.593	1	5
558.763	1	9
558.933	1	14
559.103	1	16
559.273	1	-5
559.443	1	11
559.613	1	1
559.783	1	8
559.953	1	-4
560.122	1	6
560.292	1	13
560.462	1	11
560.632	1	3
560.802	1	13
560.972	1	-6
561.142	1	0
561.312	1	-1
561.482	1	-6
561.652	1	5
561.822	1	0
561.992	1	2
562.162	1	12
562.331	1	16
562.501	1	-1
562.671	1	6
562.841	1	1
563.011	1	11
563.181	1	15
563.351	1	-6
563.521	1	3
563.691	1	-7
563.861	1	9
564.031	1	3
564.201	1	11
564.370	1	5
564.540	1	9
564.710	1	8
564.880	1	11
565.050	1	5
565.220	1	-1
565.390	1	3
565.560	1	10
565.730	1	4
565.900	1	6
566.069	1	7
566.239	1	2
566.409	1	-9
566.579	1	12
566.749	1	1
566.919	1	1
567.089	1	-6
567.259	1	7
567.429	1	2
567.599	1	5
567.768	1	4
567.938	1	-4
568.108	1	5
568.278	1	10
568.448	1	0
568.618	1	1
568.788	1	1
568.958	1	0
569.128	1	7
569.297	1	3
569.467	1	-10
569.637	1	15
569.807	1	2
569.977	1	3
570.147	1	3
570.317	1	4
570.487	1	3
570.656	1	-9
570.826	1	2
570.996	1	-4
571.166	1	17
571.336	1	-3
571.506	1	10
571.676	1	4
571.846	1	5
572.015	1	-2
572.185	1	11
572.355	1	-2
572.525	1	-7
572.695	1	6
572.865	1	-2
573.035	1	13
573.205	1	9
573.374	1	1
573.544	1	12
573.714	1	3
573.884	1	7
574.054	1	3
574.224	1	1
574.394	1	-4
574.563	1	8
574.733	1	-2
574.903	1	7
575.073	1	10
575.243	1	-2
575.413	1	-12
575.583	1	5
575.752	1	4
575.922	1	-4
576.092	1	-2
576.262	1	6
576.432	1	3
576.602	1	-1
576.772	1	2
576.941	1	8
577.111	1	-3
577.281	1	7
577.451	1	2
577.621	1	4
577.791	1	-2
577.960	1	13
578.130	1	0
578.300	1	-4
578.470	1	-1
578.640	1	6
578.810	1	-2
578.979	1	10
579.149	1	5
579.319	1	6
579.489	1	-6
579.659	1	0
579.829	1	13
579.998	1	8
580.168	1	2
580.338	1	1
580.508	1	15
580.678	1	10
580.848	1	5
581.017	1	12
581.187	1	3
581.357	1	0
581.527	1	4
581.697	1	6
581.867	1	1
582.036	1	-2
582.206	1	1
582.376	1	9
582.546	1	-2
582.716	1	-1
582.885	1	-5
583.055	1	7
583.225	1	-1
583.395	1	17
583.565	1	4
583.735	1	9
583.904	1	3
584.074	1	0
584.244	1	-8
584.414	1	4
584.584	1	-3
584.753	1	16
584.923	1	5
585.093	1	9
585.263	1	-6
585.433	1	1
585.602	1	2
585.772	1	-10
585.942	1	3
586.112	1	2
586.282	1	-1
586.451	1	9
586.621	1	8
586.791	1	9
586.961	1	0
587.131	1	2
587.300	1	5
587.470	1	-1
587.640	1	7
587.810	1	12
587.980	1	5
588.149	1	0
588.319	1	5
588.489	1	11
588.659	1	8
588.829	1	12
588.998	1	4
589.168	1	14
589.338	1	15
589.508	1	1
589.677	1	11
589.847	1	7
590.017	1	-13
590.187	1	14
590.357	1	5
590.526	1	2
590.696	1	-9
590.866	1	-4
591.036	1	11
591.205	1	11
591.375	1	-3
591.545	1	5
591.715	1	1
591.885	1	-1
592.054	1	2
592.224	1	5
592.394	1	-4
592.564	1	-3
592.733	1	-1
592.903	1	6
593.073	1	8
593.243	1	7
593.412	1	0
593.582	1	2
593.752	1	6
593.922	1	2
594.091	1	3
594.261	1	6
594.431	1	16
594.601	1	-9
594.771	1	7
594.940	1	11
595.110	1	-1
595.280	1	-1
595.450	1	6
595.619	1	10
595.789	1	12
595.959	1	9
596.129	1	3
596.298	1	12
596.468	1	-1
596.638	1	-2
596.808	1	14
596.977	1	5
597.147	1	-8
597.317	1	0
597.487	1	5
597.656	1	6
597.826	1	7
597.996	1	7
598.166	1	4
598.335	1	8
598.505	1	10
598.675	1	-4
598.844	1	-4
599.014	1	15
599.184	1	8
599.354	1	9
599.523	1	4
599.693	1	5
599.863	1	15
600.033	1	4
600.202	1	11
600.372	1	-2
600.542	1	5
600.712	1	3
600.881	1	2
601.051	1	5
601.221	1	5
601.390	1	2
601.560	1	12
601.730	1	12
601.900	1	4
602.069	1	11
602.239	1	11
602.409	1	7
602.578	1	-3
602.748	1	6
602.918	1	7
603.088	1	18
603.257	1	6
603.427	1	-2
603.597	1	4
603.767	1	13
603.936	1	5
604.106	1	-2
604.276	1	18
604.445	1	6
604.615	1	2
604.785	1	8
604.954	1	12
605.124	1	0
605.294	1	4
605.464	1	8
605.633	1	13
605.803	1	7
605.973	1	16
606.142	1	8
606.312	1	5
606.482	1	7
606.652	1	-9
606.821	1	4
606.991	1	4
607.161	1	2
607.330	1	-4
607.500	1	10
607.670	1	8
607.839	1	10
608.009	1	7
608.179	1	11
608.348	1	6
608.518	1	7
608.688	1	2
608.858	1	8
609.027	1	7
609.197	1	-4
609.367	1	11
609.536	1	16
609.706	1	12
609.876	1	11
610.045	1	4
610.215	1	3
610.385	1	-1
610.554	1	4
610.724	1	-6
610.894	1	8
611.063	1	-3
611.233	1	11
611.403	1	4
611.572	1	10
611.742	1	5
611.912	1	11
612.081	1	-7
612.251	1	18
612.421	1	6
612.590	1	6
612.760	1	8
612.930	1	4
613.099	1	5
613.269	1	4
613.439	1	5
613.608	1	10
613.778	1	-2
613.948	1	8
614.117	1	13
614.287	1	-4
614.457	1	-1
614.626	1	12
614.796	1	12
614.966	1	3
615.135	1	9
615.305	1	6
615.475	1	6
615.644	1	6
615.814	1	-12
615.984	1	13
616.153	1	9
616.323	1	0
616.493	1	16
616.662	1	3
616.832	1	14
617.002	1	9
617.171	1	6
617.341	1	1
617.511	1	4
617.680	1	13
617.850	1	7
618.019	1	8
618.189	1	15
618.359	1	2
618.528	1	6
618.698	1	11
618.868	1	4
619.037	1	10
619.207	1	10
619.377	1	1
619.546	1	16
619.716	1	0
619.885	1	8
620.055	1	1
620.225	1	6
620.394	1	8
620.564	1	18
620.734	1	15
620.903	1	-2
621.073	1	8
621.242	1	5
621.412	1	8
621.582	1	5
621.751	1	14
621.921	1	6
622.091	1	5
622.260	1	7
622.430	1	14
622.599	1	0
622.769	1	13
622.939	1	15
623.108	1	6
623.278	1	3
623.448	1	11
623.617	1	8
623.787	1	-6
623.956	1	16
624.126	1	17
624.296	1	2
624.465	1	12
624.635	1	4
624.804	1	-5
624.974	1	12
625.144	1	8
625.313	1	1
625.483	1	23
625.652	1	9
625.822	1	1
625.992	1	7
626.161	1	22
626.331	1	15
626.501	1	14
626.670	1	13
626.840	1	12
627.009	1	10
627.179	1	12
627.348	1	11
627.518	1	16
627.688	1	5
627.857	1	9
628.027	1	-2
628.196	1	3
628.366	1	-2
628.536	1	6
628.705	1	7
628.875	1	21
629.044	1	16
629.214	1	16
629.384	1	10
629.553	1	14
629.723	1	-4
629.892	1	13
630.062	1	3
630.232	1	11
630.401	1	11
630.571	1	15
630.740	1	13
630.910	1	14
631.079	1	11
631.249	1	-1
631.419	1	3
631.588	1	6
631.758	1	10
631.927	1	5
632.097	1	9
632.266	1	0
632.436	1	8
632.606	1	-5
632.775	1	18
632.945	1	14
633.114	1	12
633.284	1	-2
633.453	1	3
633.623	1	14
633.793	1	-3
633.962	1	9
634.132	1	9
634.301	1	11
634.471	1	-2
634.640	1	9
634.810	1	12
634.979	1	9
635.149	1	12
635.319	1	13
635.488	1	15
635.658	1	9
635.827	1	18
635.997	1	5
636.166	1	6
636.336	1	4
636.505	1	8
636.675	1	11
636.845	1	3
637.014	1	-1
637.184	1	11
637.353	1	6
637.523	1	11
637.692	1	20
637.862	1	8
638.031	1	12
638.201	1	21
638.370	1	13
638.540	1	-1
638.710	1	20
638.879	1	2
639.049	1	18
639.218	1	5
639.388	1	20
639.557	1	10
639.727	1	5
639.896	1	11
640.066	1	19
640.235	1	13
640.405	1	9
640.574	1	12
640.744	1	11
640.914	1	19
641.083	1	6
641.253	1	22
641.422	1	9
641.592	1	11
641.761	1	14
641.931	1	3
642.100	1	10
642.270	1	9
642.439	1	3
642.609	1	8
642.778	1	8
642.948	1	7
643.117	1	14
643.287	1	14
643.456	1	11
643.626	1	24
643.795	1	9
643.965	1	6
644.134	1	10
644.304	1	5
644.473	1	11
644.643	1	5
644.812	1	18
644.982	1	17
645.151	1	15
645.321	1	5
645.490	1	7
645.660	1	6
645.829	1	1
645.999	1	5
646.168	1	9
646.338	1	-1
646.507	1	13
646.677	1	7
646.846	1	15
647.016	1	12
647.185	1	5
647.355	1	15
647.524	1	11
647.694	1	7
647.863	1	9
648.033	1	6
648.202	1	9
648.372	1	15
648.541	1	10
648.711	1	9
648.880	1	12
649.050	1	4
649.219	1	4
649.389	1	7
649.558	1	-2
649.728	1	4
649.897	1	9
650.067	1	5
650.236	1	11
650.406	1	-1
650.575	1	15
650.745	1	11
650.914	1	12
651.084	1	7
651.253	1	-1
651.423	1	17
651.592	1	17
651.762	1	7
651.931	1	5
652.101	1	7
652.270	1	16
652.440	1	7
652.609	1	8
652.778	1	11
652.948	1	6
653.117	1	8
653.287	1	17
653.456	1	13
653.626	1	10
653.795	1	17
653.965	1	9
654.134	1	2
654.304	1	10
654.473	1	4
654.643	1	5
654.812	1	-1
654.982	1	7
655.151	1	5
655.320	1	7
655.490	1	15
655.659	1	7
655.829	1	9
655.998	1	-1
656.168	1	4
656.337	1	17
656.507	1	7
656.676	1	9
656.846	1	5
657.015	1	7
657.184	1	8
657.354	1	8
657.523	1	14
657.693	1	1
657.862	1	12
658.032	1	6
658.201	1	5
658.371	1	7
658.540	1	3
658.709	1	9
658.879	1	-8
659.048	1	11
659.218	1	12
659.387	1	5
659.557	1	0
659.726	1	8
659.895	1	17
660.065	1	7
660.234	1	7
660.404	1	11
660.573	1	10
660.743	1	10
660.912	1	15
661.081	1	22
661.251	1	12
661.420	1	7
661.590	1	3
661.759	1	9
661.929	1	4
662.098	1	8
662.267	1	19
662.437	1	11
662.606	1	6
662.776	1	10
662.945	1	3
663.115	1	23
663.284	1	14
663.453	1	-1
663.623	1	3
663.792	1	6
663.962	1	12
664.131	1	14
664.300	1	1
664.470	1	18
664.639	1	10
664.809	1	3
664.978	1	4
665.148	1	13
665.317	1	6
665.486	1	8
665.656	1	2
665.825	1	3
665.995	1	5
666.164	1	4
666.333	1	7
666.503	1	7
666.672	1	18
666.842	1	-5
667.011	1	22
667.180	1	3
667.350	1	9
667.519	1	19
667.689	1	10
667.858	1	6
668.027	1	22
668.197	1	18
668.366	1	7
668.536	1	7
668.705	1	2
668.874	1	17
669.044	1	5
669.213	1	15
669.382	1	10
669.552	1	14
669.721	1	23
669.891	1	5
670.060	1	11
670.229	1	11
670.399	1	6
670.568	1	2
670.738	1	-1
670.907	1	6
671.076	1	5
671.246	1	12
671.415	1	17
671.584	1	6
671.754	1	5
671.923	1	8
672.093	1	14
672.262	1	5
672.431	1	2
672.601	1	9
672.770	1	13
672.939	1	0
673.109	1	2
673.278	1	24
673.448	1	10
673.617	1	7
673.786	1	12
