325.333	1	14
325.504	1	11
325.675	1	1
325.846	1	14
326.017	1	16
326.188	1	20
326.359	1	19
326.531	1	3
326.702	1	20
326.873	1	29
327.044	1	17
327.215	1	18
327.386	1	13
327.557	1	10
327.728	1	19
327.899	1	23
328.070	1	23
328.241	1	23
328.412	1	10
328.583	1	16
328.754	1	8
328.926	1	12
329.097	1	8
329.268	1	13
329.439	1	21
329.610	1	22
329.781	1	3
329.952	1	19
330.123	1	19
330.294	1	8
330.465	1	14
330.636	1	17
330.807	1	12
330.978	1	19
331.149	1	24
331.320	1	25
331.492	1	20
331.663	1	12
331.834	1	14
332.005	1	26
332.176	1	12
332.347	1	26
332.518	1	20
332.689	1	15
332.860	1	19
333.031	1	10
333.202	1	7
333.373	1	25
333.544	1	23
333.715	1	25
333.886	1	12
334.057	1	28
334.228	1	19
334.399	1	24
334.570	1	28
334.741	1	18
334.912	1	17
335.084	1	11
335.255	1	19
335.426	1	18
335.597	1	15
335.768	1	26
335.939	1	16
336.110	1	21
336.281	1	23
336.452	1	30
336.623	1	23
336.794	1	16
336.965	1	23
337.136	1	10
337.307	1	15
337.478	1	25
337.649	1	21
337.820	1	30
337.991	1	27
338.162	1	20
338.333	1	31
338.504	1	12
338.675	1	22
338.846	1	23
339.017	1	28
339.188	1	16
339.359	1	17
339.530	1	33
339.701	1	20
339.872	1	27
340.043	1	15
340.214	1	13
340.385	1	16
340.556	1	29
340.727	1	24
340.898	1	27
341.069	1	40
341.240	1	24
341.411	1	11
341.582	1	26
341.753	1	19
341.924	1	18
342.095	1	25
342.266	1	28
342.437	1	28
342.608	1	33
342.779	1	28
342.950	1	24
343.121	1	27
343.292	1	20
343.463	1	18
343.634	1	16
343.805	1	21
343.976	1	33
344.147	1	19
344.318	1	22
344.489	1	49
344.660	1	22
344.831	1	30
345.002	1	40
345.173	1	14
345.344	1	22
345.515	1	24
345.686	1	36
345.857	1	21
346.028	1	30
346.199	1	23
346.370	1	31
346.541	1	29
346.712	1	26
346.883	1	39
347.054	1	25
347.225	1	21
347.396	1	23
347.567	1	36
347.738	1	19
347.909	1	25
348.080	1	30
348.251	1	29
348.422	1	35
348.593	1	27
348.764	1	21
348.935	1	37
349.106	1	26
349.277	1	22
349.448	1	40
349.619	1	22
349.790	1	33
349.961	1	42
350.132	1	32
350.303	1	31
350.474	1	31
350.645	1	36
350.816	1	27
350.987	1	32
351.157	1	43
351.328	1	34
351.499	1	35
351.670	1	35
351.841	1	36
352.012	1	42
352.183	1	33
352.354	1	30
352.525	1	40
352.696	1	50
352.867	1	30
353.038	1	28
353.209	1	38
353.380	1	30
353.551	1	31
353.722	1	35
353.893	1	32
354.064	1	30
354.235	1	33
354.406	1	38
354.576	1	35
354.747	1	32
354.918	1	38
355.089	1	52
355.260	1	48
355.431	1	43
355.602	1	44
355.773	1	34
355.944	1	32
356.115	1	48
356.286	1	46
356.457	1	45
356.628	1	33
356.799	1	34
356.970	1	45
357.141	1	39
357.311	1	44
357.482	1	39
357.653	1	35
357.824	1	33
357.995	1	31
358.166	1	33
358.337	1	38
358.508	1	40
358.679	1	41
358.850	1	35
359.021	1	47
359.192	1	49
359.363	1	49
359.533	1	32
359.704	1	39
359.875	1	50
360.046	1	42
360.217	1	41
360.388	1	42
360.559	1	42
360.730	1	33
360.901	1	37
361.072	1	37
361.243	1	49
361.414	1	37
361.584	1	37
361.755	1	38
361.926	1	34
362.097	1	43
362.268	1	35
362.439	1	46
362.610	1	36
362.781	1	44
362.952	1	47
363.123	1	44
363.293	1	38
363.464	1	47
363.635	1	43
363.806	1	36
363.977	1	41
364.148	1	28
364.319	1	31
364.490	1	45
364.661	1	43
364.832	1	43
365.002	1	47
365.173	1	33
365.344	1	47
365.515	1	30
365.686	1	29
365.857	1	48
366.028	1	35
366.199	1	48
366.370	1	51
366.540	1	32
366.711	1	38
366.882	1	35
367.053	1	38
367.224	1	45
367.395	1	34
367.566	1	30
367.737	1	33
367.908	1	31
368.078	1	46
368.249	1	44
368.420	1	41
368.591	1	42
368.762	1	37
368.933	1	22
369.104	1	41
369.274	1	32
369.445	1	55
369.616	1	35
369.787	1	46
369.958	1	39
370.129	1	24
370.300	1	45
370.471	1	44
370.641	1	41
370.812	1	37
370.983	1	36
371.154	1	45
371.325	1	45
371.496	1	45
371.667	1	48
371.837	1	42
372.008	1	30
372.179	1	38
372.350	1	38
372.521	1	46
372.692	1	45
372.863	1	46
373.033	1	51
373.204	1	36
373.375	1	43
373.546	1	64
373.717	1	38
373.888	1	50
374.059	1	50
374.229	1	34
374.400	1	40
374.571	1	46
374.742	1	38
374.913	1	46
375.084	1	43
375.254	1	57
375.425	1	41
375.596	1	44
375.767	1	33
375.938	1	47
376.109	1	46
376.279	1	31
376.450	1	34
376.621	1	40
376.792	1	47
376.963	1	40
377.134	1	43
377.304	1	54
377.475	1	53
377.646	1	37
377.817	1	33
377.988	1	42
378.159	1	48
378.329	1	54
378.500	1	49
378.671	1	47
378.842	1	43
379.013	1	53
379.184	1	37
379.354	1	47
379.525	1	39
379.696	1	49
379.867	1	41
380.038	1	52
380.209	1	46
380.379	1	45
380.550	1	58
380.721	1	41
380.892	1	63
381.063	1	49
381.233	1	51
381.404	1	49
381.575	1	52
381.746	1	61
381.917	1	56
382.087	1	56
382.258	1	59
382.429	1	54
382.600	1	46
382.771	1	56
382.941	1	55
383.112	1	44
383.283	1	56
383.454	1	41
383.625	1	38
383.795	1	48
383.966	1	46
384.137	1	52
384.308	1	47
384.479	1	48
384.649	1	48
384.820	1	53
384.991	1	45
385.162	1	50
385.333	1	51
385.503	1	45
385.674	1	42
385.845	1	54
386.016	1	54
386.187	1	50
386.357	1	45
386.528	1	56
386.699	1	51
386.870	1	41
387.041	1	72
387.211	1	48
387.382	1	54
387.553	1	47
387.724	1	68
387.894	1	56
388.065	1	53
388.236	1	59
388.407	1	55
388.578	1	56
388.748	1	55
388.919	1	52
389.090	1	56
389.261	1	54
389.431	1	54
389.602	1	68
389.773	1	62
389.944	1	62
390.114	1	62
390.285	1	55
390.456	1	53
390.627	1	65
390.798	1	56
390.968	1	62
391.139	1	55
391.310	1	71
391.481	1	58
391.651	1	72
391.822	1	66
391.993	1	60
392.164	1	69
392.334	1	42
392.505	1	68
392.676	1	74
392.847	1	61
393.017	1	60
393.188	1	65
393.359	1	61
393.530	1	65
393.700	1	56
393.871	1	63
394.042	1	55
394.213	1	65
394.383	1	47
394.554	1	63
394.725	1	56
394.896	1	51
395.066	1	68
395.237	1	62
395.408	1	62
395.579	1	61
395.749	1	59
395.920	1	47
396.091	1	63
396.262	1	50
396.432	1	59
396.603	1	54
396.774	1	55
396.945	1	70
397.115	1	50
397.286	1	59
397.457	1	66
397.627	1	50
397.798	1	56
397.969	1	62
398.140	1	61
398.310	1	58
398.481	1	57
398.652	1	56
398.823	1	74
398.993	1	63
399.164	1	69
399.335	1	66
399.505	1	58
399.676	1	62
399.847	1	61
400.018	1	78
400.188	1	62
400.359	1	63
400.530	1	75
400.700	1	67
400.871	1	67
401.042	1	58
401.213	1	55
401.383	1	71
401.554	1	63
401.725	1	78
401.895	1	63
402.066	1	67
402.237	1	77
402.408	1	69
402.578	1	56
402.749	1	66
402.920	1	66
403.090	1	69
403.261	1	83
403.432	1	64
403.603	1	73
403.773	1	75
403.944	1	78
404.115	1	65
404.285	1	72
404.456	1	76
404.627	1	68
404.797	1	65
404.968	1	74
405.139	1	67
405.310	1	84
405.480	1	71
405.651	1	56
405.822	1	65
405.992	1	65
406.163	1	86
406.334	1	77
406.504	1	86
406.675	1	83
406.846	1	67
407.016	1	59
407.187	1	77
407.358	1	78
407.528	1	68
407.699	1	63
407.870	1	83
408.041	1	70
408.211	1	74
408.382	1	81
408.553	1	74
408.723	1	64
408.894	1	62
409.065	1	69
409.235	1	74
409.406	1	71
409.577	1	63
409.747	1	64
409.918	1	65
410.089	1	78
410.259	1	67
410.430	1	79
410.601	1	69
410.771	1	73
410.942	1	88
411.113	1	61
411.283	1	76
411.454	1	87
411.625	1	77
411.795	1	64
411.966	1	89
412.137	1	87
412.307	1	78
412.478	1	74
412.649	1	76
412.819	1	88
412.990	1	62
413.161	1	82
413.331	1	70
413.502	1	89
413.672	1	86
413.843	1	86
414.014	1	76
414.184	1	76
414.355	1	78
414.526	1	72
414.696	1	78
414.867	1	73
415.038	1	69
415.208	1	83
415.379	1	90
415.550	1	79
415.720	1	58
415.891	1	87
416.062	1	76
416.232	1	79
416.403	1	77
416.573	1	89
416.744	1	75
416.915	1	95
417.085	1	73
417.256	1	67
417.427	1	66
417.597	1	78
417.768	1	86
417.939	1	87
418.109	1	80
418.280	1	70
418.450	1	77
418.621	1	79
418.792	1	59
418.962	1	66
419.133	1	71
419.304	1	77
419.474	1	71
419.645	1	74
419.815	1	70
419.986	1	90
420.157	1	73
420.327	1	74
420.498	1	70
420.669	1	67
420.839	1	79
421.010	1	73
421.180	1	76
421.351	1	75
421.522	1	71
421.692	1	67
421.863	1	75
422.033	1	67
422.204	1	85
422.375	1	83
422.545	1	81
422.716	1	63
422.886	1	66
423.057	1	82
423.228	1	72
423.398	1	72
423.569	1	72
423.740	1	69
423.910	1	82
424.081	1	70
424.251	1	61
424.422	1	79
424.593	1	76
424.763	1	86
424.934	1	83
425.104	1	68
425.275	1	76
425.445	1	67
425.616	1	77
425.787	1	72
425.957	1	74
426.128	1	75
426.298	1	85
426.469	1	72
426.640	1	68
426.810	1	84
426.981	1	71
427.151	1	81
427.322	1	82
427.493	1	84
427.663	1	80
427.834	1	70
428.004	1	64
428.175	1	82
428.345	1	74
428.516	1	82
428.687	1	81
428.857	1	65
429.028	1	75
429.198	1	77
429.369	1	77
429.540	1	76
429.710	1	72
429.881	1	65
430.051	1	78
430.222	1	67
430.392	1	71
430.563	1	74
430.734	1	70
430.904	1	63
431.075	1	81
431.245	1	66
431.416	1	76
431.586	1	56
431.757	1	72
431.927	1	78
432.098	1	56
432.269	1	71
432.439	1	85
432.610	1	87
432.780	1	67
432.951	1	76
433.121	1	88
433.292	1	64
433.462	1	80
433.633	1	60
433.804	1	66
433.974	1	67
434.145	1	65
434.315	1	71
434.486	1	83
434.656	1	89
434.827	1	67
434.997	1	70
435.168	1	65
435.339	1	75
435.509	1	66
435.680	1	70
435.850	1	58
436.021	1	77
436.191	1	73
436.362	1	79
436.532	1	78
436.703	1	71
436.873	1	78
437.044	1	58
437.214	1	67
437.385	1	71
437.556	1	65
437.726	1	69
437.897	1	74
438.067	1	60
438.238	1	66
438.408	1	62
438.579	1	77
438.749	1	65
438.920	1	66
439.090	1	75
439.261	1	62
439.431	1	75
439.602	1	66
439.772	1	76
439.943	1	77
440.113	1	76
440.284	1	63
440.455	1	70
440.625	1	82
440.796	1	73
440.966	1	69
441.137	1	54
441.307	1	61
441.478	1	72
441.648	1	55
441.819	1	67
441.989	1	65
442.160	1	61
442.330	1	72
442.501	1	62
442.671	1	60
442.842	1	63
443.012	1	65
443.183	1	68
443.353	1	77
443.524	1	55
443.694	1	68
443.865	1	66
444.035	1	61
444.206	1	61
444.376	1	59
444.547	1	73
444.717	1	57
444.888	1	62
445.058	1	63
445.229	1	58
445.399	1	57
445.570	1	48
445.740	1	58
445.911	1	74
446.081	1	65
446.252	1	62
446.422	1	66
446.593	1	51
446.763	1	54
446.934	1	73
447.104	1	54
447.275	1	60
447.445	1	65
447.616	1	64
447.786	1	60
447.957	1	51
448.127	1	75
448.298	1	58
448.468	1	52
448.639	1	60
448.809	1	76
448.979	1	52
449.150	1	55
449.320	1	59
449.491	1	59
449.661	1	79
449.832	1	68
450.002	1	62
450.173	1	62
450.343	1	60
450.514	1	63
450.684	1	58
450.855	1	62
451.025	1	56
451.196	1	56
451.366	1	63
451.537	1	63
451.707	1	71
451.878	1	56
452.048	1	70
452.218	1	72
452.389	1	64
452.559	1	56
452.730	1	64
452.900	1	65
453.071	1	62
453.241	1	60
453.412	1	66
453.582	1	66
453.753	1	56
453.923	1	60
454.093	1	66
454.264	1	66
454.434	1	69
454.605	1	72
454.775	1	64
454.946	1	68
455.116	1	63
455.287	1	50
455.457	1	60
455.628	1	68
455.798	1	59
455.968	1	77
456.139	1	58
456.309	1	56
456.480	1	53
456.650	1	67
456.821	1	66
456.991	1	60
457.161	1	57
457.332	1	51
457.502	1	47
457.673	1	57
457.843	1	52
458.014	1	61
458.184	1	53
458.355	1	40
458.525	1	48
458.695	1	52
458.866	1	49
459.036	1	51
459.207	1	56
459.377	1	70
459.548	1	49
459.718	1	55
459.888	1	63
460.059	1	51
460.229	1	51
460.400	1	61
460.570	1	52
460.740	1	51
460.911	1	49
461.081	1	44
461.252	1	56
461.422	1	57
461.593	1	37
461.763	1	57
461.933	1	48
462.104	1	67
462.274	1	59
462.445	1	39
462.615	1	44
462.785	1	42
462.956	1	48
463.126	1	47
463.297	1	57
463.467	1	53
463.638	1	52
463.808	1	42
463.978	1	55
464.149	1	50
464.319	1	42
464.490	1	46
464.660	1	46
464.830	1	43
465.001	1	54
465.171	1	45
465.342	1	43
465.512	1	58
465.682	1	55
465.853	1	50
466.023	1	52
466.194	1	43
466.364	1	54
466.534	1	45
466.705	1	42
466.875	1	40
467.045	1	47
467.216	1	46
467.386	1	51
467.557	1	48
467.727	1	48
467.897	1	39
468.068	1	50
468.238	1	43
468.409	1	44
468.579	1	41
468.749	1	41
468.920	1	43
469.090	1	58
469.260	1	29
469.431	1	42
469.601	1	50
469.772	1	51
469.942	1	56
470.112	1	53
470.283	1	48
470.453	1	53
470.623	1	50
470.794	1	53
470.964	1	26
471.135	1	54
471.305	1	44
471.475	1	36
471.646	1	50
471.816	1	35
471.986	1	46
472.157	1	43
472.327	1	46
472.497	1	33
472.668	1	51
472.838	1	34
473.009	1	56
473.179	1	50
473.349	1	35
473.520	1	47
473.690	1	42
473.860	1	45
474.031	1	46
474.201	1	47
474.371	1	46
474.542	1	40
474.712	1	29
474.882	1	33
475.053	1	50
475.223	1	60
475.394	1	47
475.564	1	36
475.734	1	34
475.905	1	44
476.075	1	30
476.245	1	46
476.416	1	37
476.586	1	44
476.756	1	41
476.927	1	50
477.097	1	48
477.267	1	42
477.438	1	29
477.608	1	38
477.778	1	43
477.949	1	38
478.119	1	34
478.289	1	50
478.460	1	44
478.630	1	40
478.800	1	40
478.971	1	38
479.141	1	40
479.311	1	31
479.482	1	36
479.652	1	38
479.822	1	36
479.993	1	35
480.163	1	41
480.333	1	48
480.504	1	41
480.674	1	26
480.844	1	43
481.015	1	31
481.185	1	32
481.355	1	31
481.525	1	49
481.696	1	40
481.866	1	38
482.036	1	36
482.207	1	30
482.377	1	31
482.547	1	42
482.718	1	52
482.888	1	40
483.058	1	39
483.229	1	35
483.399	1	36
483.569	1	29
483.740	1	30
483.910	1	35
484.080	1	40
484.250	1	34
484.421	1	44
484.591	1	36
484.761	1	32
484.932	1	43
485.102	1	40
485.272	1	43
485.443	1	30
485.613	1	34
485.783	1	38
485.953	1	31
486.124	1	37
486.294	1	34
486.464	1	40
486.635	1	25
486.805	1	33
486.975	1	28
487.146	1	26
487.316	1	38
487.486	1	36
487.656	1	30
487.827	1	45
487.997	1	39
488.167	1	28
488.338	1	21
488.508	1	32
488.678	1	18
488.848	1	38
489.019	1	43
489.189	1	21
489.359	1	33
489.529	1	26
489.700	1	21
489.870	1	34
490.040	1	23
490.211	1	24
490.381	1	24
490.551	1	23
490.721	1	27
490.892	1	33
491.062	1	30
491.232	1	18
491.402	1	31
491.573	1	34
491.743	1	28
491.913	1	34
492.084	1	23
492.254	1	46
492.424	1	32
492.594	1	31
492.765	1	37
492.935	1	49
493.105	1	30
493.275	1	33
493.446	1	34
493.616	1	22
493.786	1	35
493.956	1	29
494.127	1	18
494.297	1	35
494.467	1	36
494.637	1	31
494.808	1	26
494.978	1	27
495.148	1	31
495.318	1	23
495.489	1	27
495.659	1	34
495.829	1	37
495.999	1	22
496.170	1	22
496.340	1	48
496.510	1	24
496.680	1	30
496.851	1	25
497.021	1	28
497.191	1	22
497.361	1	28
497.532	1	23
497.702	1	20
497.872	1	35
498.042	1	25
498.213	1	23
498.383	1	42
498.553	1	21
498.723	1	19
498.894	1	39
499.064	1	31
499.234	1	18
499.404	1	35
499.574	1	29
499.745	1	23
499.915	1	14
500.085	1	22
500.255	1	24
500.426	1	28
500.596	1	26
500.766	1	22
500.936	1	37
501.106	1	30
501.277	1	24
501.447	1	20
501.617	1	20
501.787	1	29
501.958	1	21
502.128	1	33
502.298	1	26
502.468	1	24
502.638	1	22
502.809	1	17
502.979	1	15
503.149	1	27
503.319	1	22
503.489	1	32
503.660	1	23
503.830	1	15
504.000	1	25
504.170	1	12
504.340	1	21
504.511	1	18
504.681	1	30
504.851	1	20
505.021	1	19
505.192	1	26
505.362	1	13
505.532	1	18
505.702	1	24
505.872	1	28
506.043	1	16
506.213	1	36
506.383	1	29
506.553	1	29
506.723	1	39
506.893	1	15
507.064	1	27
507.234	1	21
507.404	1	30
507.574	1	27
507.744	1	17
507.915	1	11
508.085	1	-3
508.255	1	28
508.425	1	27
508.595	1	21
508.766	1	16
508.936	1	41
509.106	1	17
509.276	1	17
509.446	1	27
509.616	1	27
509.787	1	34
509.957	1	20
510.127	1	34
510.297	1	30
510.467	1	15
510.638	1	23
510.808	1	16
510.978	1	21
511.148	1	26
511.318	1	10
511.488	1	27
511.659	1	25
511.829	1	27
511.999	1	14
512.169	1	17
512.339	1	12
512.509	1	19
512.680	1	19
512.850	1	24
513.020	1	28
513.190	1	16
513.360	1	23
513.530	1	19
513.700	1	23
513.871	1	15
514.041	1	16
514.211	1	10
514.381	1	23
514.551	1	15
514.721	1	27
514.892	1	20
515.062	1	24
515.232	1	24
515.402	1	20
515.572	1	27
515.742	1	23
515.912	1	15
516.083	1	21
516.253	1	24
516.423	1	9
516.593	1	24
516.763	1	19
516.933	1	30
517.104	1	13
517.274	1	17
517.444	1	21
517.614	1	11
517.784	1	21
517.954	1	18
518.124	1	15
518.294	1	23
518.465	1	24
518.635	1	24
518.805	1	12
518.975	1	11
519.145	1	12
519.315	1	18
519.485	1	17
519.656	1	18
519.826	1	14
519.996	1	20
520.166	1	12
520.336	1	14
520.506	1	19
520.676	1	25
520.846	1	11
521.017	1	20
521.187	1	19
521.357	1	25
521.527	1	14
521.697	1	22
521.867	1	16
522.037	1	26
522.207	1	20
522.377	1	9
522.548	1	13
522.718	1	22
522.888	1	19
523.058	1	17
523.228	1	18
523.398	1	31
523.568	1	19
523.738	1	12
523.909	1	22
524.079	1	20
524.249	1	13
524.419	1	20
524.589	1	22
524.759	1	22
524.929	1	14
525.099	1	8
525.269	1	12
525.439	1	22
525.610	1	15
525.780	1	18
525.950	1	26
526.120	1	9
526.290	1	8
526.460	1	21
526.630	1	17
526.800	1	19
526.970	1	29
527.140	1	21
527.311	1	32
527.481	1	4
527.651	1	17
527.821	1	12
527.991	1	1
528.161	1	7
528.331	1	21
528.501	1	9
528.671	1	23
528.841	1	21
529.011	1	18
529.181	1	21
529.352	1	16
529.522	1	18
529.692	1	7
529.862	1	9
530.032	1	9
530.202	1	19
530.372	1	21
530.542	1	8
530.712	1	30
530.882	1	25
531.052	1	12
531.222	1	8
531.392	1	8
531.563	1	17
531.733	1	9
531.903	1	23
532.073	1	12
532.243	1	20
532.413	1	1
532.583	1	20
532.753	1	24
532.923	1	6
533.093	1	14
533.263	1	17
533.433	1	18
533.603	1	6
533.773	1	8
533.943	1	12
534.113	1	18
534.284	1	13
534.454	1	19
534.624	1	19
534.794	1	23
534.964	1	15
535.134	1	19
535.304	1	18
535.474	1	10
535.644	1	16
535.814	1	14
535.984	1	14
536.154	1	22
536.324	1	15
536.494	1	14
536.664	1	16
536.834	1	18
537.004	1	12
537.174	1	19
537.344	1	24
537.514	1	15
537.685	1	9
537.855	1	17
538.025	1	9
538.195	1	11
538.365	1	17
538.535	1	7
538.705	1	8
538.875	1	13
539.045	1	22
539.215	1	17
539.385	1	11
539.555	1	12
539.725	1	3
539.895	1	11
540.065	1	4
540.235	1	12
540.405	1	13
540.575	1	7
540.745	1	15
540.915	1	16
541.085	1	14
541.255	1	23
541.425	1	13
541.595	1	21
541.765	1	22
541.935	1	19
542.105	1	3
542.275	1	13
542.445	1	7
542.615	1	19
542.785	1	9
542.955	1	11
543.125	1	4
543.295	1	13
543.465	1	15
543.635	1	9
543.805	1	8
543.975	1	7
544.145	1	28
544.315	1	4
544.485	1	10
544.655	1	12
544.825	1	11
544.995	1	14
545.165	1	12
545.335	1	-3
545.505	1	10
545.675	1	5
545.845	1	19
546.015	1	7
546.185	1	14
546.355	1	5
546.525	1	9
546.695	1	13
546.865	1	15
547.035	1	11
547.205	1	24
547.375	1	7
547.545	1	10
547.715	1	17
547.885	1	7
548.055	1	10
548.225	1	18
548.395	1	5
548.565	1	29
548.735	1	13
548.905	1	12
549.075	1	13
549.245	1	22
549.415	1	18
549.585	1	2
549.755	1	15
549.925	1	11
550.095	1	10
550.265	1	11
550.435	1	16
550.605	1	6
550.775	1	11
550.945	1	14
551.115	1	23
551.285	1	12
551.455	1	15
551.625	1	5
551.795	1	8
551.965	1	10
552.135	1	14
552.305	1	15
552.475	1	8
552.645	1	11
552.815	1	13
552.985	1	9
553.155	1	15
553.325	1	4
553.495	1	14
553.665	1	7
553.835	1	9
554.004	1	28
554.174	1	5
554.344	1	11
554.514	1	11
554.684	1	10
554.854	1	1
555.024	1	9
555.194	1	6
555.364	1	10
555.534	1	9
555.704	1	10
555.874	1	10
556.044	1	5
556.214	1	24
556.384	1	15
556.554	1	6
556.724	1	8
556.894	1	7
557.064	1	11
557.234	1	11
557.404	1	15
557.573	1	15
557.743	1	23
557.913	1	13
558.083	1	6
558.253	1	5
558.423	1	4
558.593	1	10
558.763	1	9
558.933	1	14
559.103	1	14
559.273	1	10
559.443	1	9
559.613	1	2
559.783	1	4
559.953	1	9
560.122	1	17
560.292	1	18
560.462	1	8
560.632	1	1
560.802	1	8
560.972	1	8
561.142	1	7
561.312	1	12
561.482	1	4
561.652	1	8
561.822	1	9
561.992	1	-3
562.162	1	14
562.331	1	6
562.501	1	0
562.671	1	14
562.841	1	8
563.011	1	21
563.181	1	14
563.351	1	10
563.521	1	10
563.691	1	17
563.861	1	17
564.031	1	-3
564.201	1	11
564.370	1	9
564.540	1	10
564.710	1	11
564.880	1	8
565.050	1	21
565.220	1	4
565.390	1	5
565.560	1	24
565.730	1	9
565.900	1	5
566.069	1	10
566.239	1	14
566.409	1	-7
566.579	1	19
566.749	1	8
566.919	1	13
567.089	1	10
567.259	1	12
567.429	1	-1
567.599	1	9
567.768	1	20
567.938	1	6
568.108	1	13
568.278	1	5
568.448	1	15
568.618	1	13
568.788	1	17
568.958	1	6
569.128	1	13
569.297	1	10
569.467	1	4
569.637	1	6
569.807	1	11
569.977	1	16
570.147	1	11
570.317	1	12
570.487	1	6
570.656	1	-3
570.826	1	5
570.996	1	-1
571.166	1	13
571.336	1	6
571.506	1	21
571.676	1	25
571.846	1	16
572.015	1	20
572.185	1	11
572.355	1	0
572.525	1	-8
572.695	1	10
572.865	1	1
573.035	1	16
573.205	1	12
573.374	1	14
573.544	1	8
573.714	1	9
573.884	1	10
574.054	1	11
574.224	1	16
574.394	1	3
574.563	1	7
574.733	1	6
574.903	1	14
575.073	1	18
575.243	1	10
575.413	1	3
575.583	1	20
575.752	1	6
575.922	1	8
576.092	1	1
576.262	1	3
576.432	1	11
576.602	1	-4
576.772	1	12
576.941	1	7
577.111	1	5
577.281	1	9
577.451	1	8
577.621	1	4
577.791	1	-5
577.960	1	2
578.130	1	3
578.300	1	4
578.470	1	6
578.640	1	16
578.810	1	-5
578.979	1	10
579.149	1	4
579.319	1	12
579.489	1	-4
579.659	1	-2
579.829	1	18
579.998	1	8
580.168	1	13
580.338	1	11
580.508	1	15
580.678	1	6
580.848	1	10
581.017	1	17
581.187	1	3
581.357	1	3
581.527	1	9
581.697	1	2
581.867	1	6
582.036	1	7
582.206	1	8
582.376	1	6
582.546	1	-3
582.716	1	0
582.885	1	4
583.055	1	8
583.225	1	4
583.395	1	23
583.565	1	14
583.735	1	14
583.904	1	15
584.074	1	12
584.244	1	0
584.414	1	7
584.584	1	1
584.753	1	19
584.923	1	6
585.093	1	3
585.263	1	12
585.433	1	6
585.602	1	-2
585.772	1	-5
585.942	1	11
586.112	1	7
586.282	1	1
586.451	1	8
586.621	1	15
586.791	1	6
586.961	1	1
587.131	1	2
587.300	1	8
587.470	1	3
587.640	1	23
587.810	1	18
587.980	1	1
588.149	1	4
588.319	1	11
588.489	1	8
588.659	1	4
588.829	1	12
588.998	1	10
589.168	1	18
589.338	1	15
589.508	1	14
589.677	1	18
589.847	1	25
590.017	1	3
590.187	1	12
590.357	1	11
590.526	1	3
590.696	1	3
590.866	1	0
591.036	1	17
591.205	1	14
591.375	1	2
591.545	1	9
591.715	1	11
591.885	1	4
592.054	1	8
592.224	1	12
592.394	1	11
592.564	1	4
592.733	1	-9
592.903	1	12
593.073	1	8
593.243	1	15
593.412	1	17
593.582	1	2
593.752	1	2
593.922	1	9
594.091	1	4
594.261	1	10
594.431	1	13
594.601	1	10
594.771	1	17
594.940	1	18
595.110	1	10
595.280	1	1
595.450	1	12
595.619	1	8
595.789	1	6
595.959	1	8
596.129	1	8
596.298	1	18
596.468	1	2
596.638	1	1
596.808	1	5
596.977	1	6
597.147	1	-10
597.317	1	5
597.487	1	13
597.656	1	14
597.826	1	10
597.996	1	15
598.166	1	9
598.335	1	11
598.505	1	11
598.675	1	6
598.844	1	-7
599.014	1	15
599.184	1	12
599.354	1	24
599.523	1	5
599.693	1	18
599.863	1	16
600.033	1	5
600.202	1	6
600.372	1	2
600.542	1	3
600.712	1	8
600.881	1	0
601.051	1	13
601.221	1	10
601.390	1	-5
601.560	1	17
601.730	1	16
601.900	1	13
602.069	1	13
602.239	1	4
602.409	1	7
602.578	1	-4
602.748	1	1
602.918	1	12
603.088	1	15
603.257	1	6
603.427	1	6
603.597	1	14
603.767	1	9
603.936	1	4
604.106	1	6
604.276	1	11
604.445	1	18
604.615	1	11
604.785	1	16
604.954	1	19
605.124	1	7
605.294	1	9
605.464	1	14
605.633	1	14
605.803	1	1
605.973	1	22
606.142	1	7
606.312	1	4
606.482	1	15
606.652	1	4
606.821	1	6
606.991	1	7
607.161	1	14
607.330	1	0
607.500	1	12
607.670	1	16
607.839	1	20
608.009	1	18
608.179	1	11
608.348	1	10
608.518	1	9
608.688	1	6
608.858	1	17
609.027	1	6
609.197	1	-4
609.367	1	9
609.536	1	9
609.706	1	22
609.876	1	22
610.045	1	6
610.215	1	15
610.385	1	4
610.554	1	1
610.724	1	-2
610.894	1	17
611.063	1	15
611.233	1	11
611.403	1	12
611.572	1	13
611.742	1	3
611.912	1	14
612.081	1	2
612.251	1	17
612.421	1	9
612.590	1	1
612.760	1	19
612.930	1	3
613.099	1	9
613.269	1	5
613.439	1	5
613.608	1	9
613.778	1	3
613.948	1	19
614.117	1	10
614.287	1	6
614.457	1	-2
614.626	1	19
614.796	1	12
614.966	1	12
615.135	1	19
615.305	1	16
615.475	1	17
615.644	1	9
615.814	1	6
615.984	1	4
616.153	1	9
616.323	1	17
616.493	1	32
616.662	1	18
616.832	1	19
617.002	1	14
617.171	1	5
617.341	1	8
617.511	1	6
617.680	1	18
617.850	1	13
618.019	1	7
618.189	1	22
618.359	1	13
618.528	1	11
618.698	1	19
618.868	1	7
619.037	1	19
619.207	1	12
619.377	1	15
619.546	1	11
619.716	1	15
619.885	1	19
620.055	1	17
620.225	1	22
620.394	1	6
620.564	1	17
620.734	1	18
620.903	1	9
621.073	1	7
621.242	1	16
621.412	1	16
621.582	1	18
621.751	1	15
621.921	1	13
622.091	1	8
622.260	1	-4
622.430	1	8
622.599	1	-2
622.769	1	19
622.939	1	13
623.108	1	15
623.278	1	13
623.448	1	15
623.617	1	13
623.787	1	17
623.956	1	11
624.126	1	19
624.296	1	13
624.465	1	12
624.635	1	16
624.804	1	6
624.974	1	19
625.144	1	10
625.313	1	8
625.483	1	29
625.652	1	17
625.822	1	8
625.992	1	17
626.161	1	23
626.331	1	16
626.501	1	21
626.670	1	21
626.840	1	17
627.009	1	20
627.179	1	11
627.348	1	24
627.518	1	23
627.688	1	5
627.857	1	16
628.027	1	-1
628.196	1	14
628.366	1	6
628.536	1	5
628.705	1	9
628.875	1	19
629.044	1	20
629.214	1	14
629.384	1	13
629.553	1	16
629.723	1	12
629.892	1	22
630.062	1	6
630.232	1	11
630.401	1	22
630.571	1	19
630.740	1	21
630.910	1	13
631.079	1	20
631.249	1	5
631.419	1	11
631.588	1	8
631.758	1	13
631.927	1	8
632.097	1	16
632.266	1	10
632.436	1	19
632.606	1	7
632.775	1	18
632.945	1	21
633.114	1	9
633.284	1	4
633.453	1	15
633.623	1	14
633.793	1	7
633.962	1	18
634.132	1	10
634.301	1	17
634.471	1	17
634.640	1	14
634.810	1	13
634.979	1	11
635.149	1	12
635.319	1	23
635.488	1	16
635.658	1	8
635.827	1	13
635.997	1	9
636.166	1	21
636.336	1	17
636.505	1	9
636.675	1	22
636.845	1	13
637.014	1	15
637.184	1	17
637.353	1	15
637.523	1	21
637.692	1	17
637.862	1	20
638.031	1	14
638.201	1	23
638.370	1	19
638.540	1	5
638.710	1	22
638.879	1	10
639.049	1	13
639.218	1	18
639.388	1	14
639.557	1	13
639.727	1	15
639.896	1	18
640.066	1	15
640.235	1	17
640.405	1	12
640.574	1	16
640.744	1	19
640.914	1	14
641.083	1	20
641.253	1	29
641.422	1	10
641.592	1	9
641.761	1	14
641.931	1	16
642.100	1	9
642.270	1	15
642.439	1	16
642.609	1	14
642.778	1	3
642.948	1	9
643.117	1	24
643.287	1	13
643.456	1	16
643.626	1	16
643.795	1	18
643.965	1	20
644.134	1	20
644.304	1	19
644.473	1	11
644.643	1	14
644.812	1	29
644.982	1	10
645.151	1	27
645.321	1	9
645.490	1	13
645.660	1	12
645.829	1	8
645.999	1	22
646.168	1	10
646.338	1	14
646.507	1	11
646.677	1	19
646.846	1	19
647.016	1	22
647.185	1	7
647.355	1	13
647.524	1	16
647.694	1	9
647.863	1	17
648.033	1	13
648.202	1	18
648.372	1	26
648.541	1	17
648.711	1	17
648.880	1	5
649.050	1	12
649.219	1	13
649.389	1	9
649.558	1	8
649.728	1	13
649.897	1	24
650.067	1	5
650.236	1	23
650.406	1	7
650.575	1	20
650.745	1	10
650.914	1	11
651.084	1	7
651.253	1	15
651.423	1	20
651.592	1	16
651.762	1	19
651.931	1	17
652.101	1	11
652.270	1	12
652.440	1	8
652.609	1	15
652.778	1	9
652.948	1	23
653.117	1	3
653.287	1	20
653.456	1	18
653.626	1	7
653.795	1	20
653.965	1	15
654.134	1	16
654.304	1	21
654.473	1	17
654.643	1	21
654.812	1	13
654.982	1	11
655.151	1	12
655.320	1	15
655.490	1	18
655.659	1	13
655.829	1	16
655.998	1	7
656.168	1	14
656.337	1	17
656.507	1	13
656.676	1	22
656.846	1	16
657.015	1	5
657.184	1	15
657.354	1	7
657.523	1	13
657.693	1	20
657.862	1	15
658.032	1	15
658.201	1	23
658.371	1	18
658.540	1	14
658.709	1	7
658.879	1	-6
659.048	1	16
659.218	1	17
659.387	1	13
659.557	1	25
659.726	1	26
659.895	1	20
660.065	1	5
660.234	1	18
660.404	1	14
660.573	1	20
660.743	1	20
660.912	1	18
661.081	1	25
661.251	1	21
661.420	1	16
661.590	1	5
661.759	1	22
661.929	1	17
662.098	1	5
662.267	1	12
662.437	1	20
662.606	1	22
662.776	1	17
662.945	1	8
663.115	1	20
663.284	1	20
663.453	1	7
663.623	1	19
663.792	1	14
663.962	1	14
664.131	1	19
664.300	1	7
664.470	1	23
664.639	1	24
664.809	1	13
664.978	1	17
665.148	1	20
665.317	1	2
665.486	1	11
665.656	1	6
665.825	1	21
665.995	1	20
666.164	1	12
666.333	1	20
666.503	1	19
666.672	1	30
666.842	1	15
667.011	1	18
667.180	1	12
667.350	1	22
667.519	1	22
667.689	1	7
667.858	1	19
668.027	1	28
668.197	1	19
668.366	1	12
668.536	1	19
668.705	1	18
668.874	1	14
669.044	1	16
669.213	1	13
669.382	1	14
669.552	1	23
669.721	1	32
669.891	1	24
670.060	1	23
670.229	1	12
670.399	1	22
670.568	1	19
670.738	1	5
670.907	1	17
671.076	1	8
671.246	1	19
671.415	1	18
671.584	1	19
671.754	1	16
671.923	1	19
672.093	1	24
672.262	1	14
672.431	1	5
672.601	1	10
672.770	1	16
672.939	1	28
673.109	1	5
673.278	1	17
673.448	1	12
673.617	1	4
673.786	1	19
