325.333	1	19
325.504	1	5
325.675	1	-2
325.846	1	2
326.017	1	15
326.188	1	6
326.359	1	6
326.531	1	-5
326.702	1	8
326.873	1	4
327.044	1	7
327.215	1	3
327.386	1	5
327.557	1	3
327.728	1	-2
327.899	1	10
328.070	1	3
328.241	1	1
328.412	1	7
328.583	1	13
328.754	1	10
328.926	1	-3
329.097	1	9
329.268	1	1
329.439	1	10
329.610	1	18
329.781	1	-8
329.952	1	14
330.123	1	11
330.294	1	-2
330.465	1	2
330.636	1	11
330.807	1	8
330.978	1	10
331.149	1	18
331.320	1	6
331.492	1	8
331.663	1	9
331.834	1	10
332.005	1	15
332.176	1	2
332.347	1	7
332.518	1	18
332.689	1	2
332.860	1	1
333.031	1	4
333.202	1	-5
333.373	1	12
333.544	1	13
333.715	1	15
333.886	1	9
334.057	1	15
334.228	1	15
334.399	1	17
334.570	1	9
334.741	1	8
334.912	1	16
335.084	1	12
335.255	1	10
335.426	1	-1
335.597	1	13
335.768	1	11
335.939	1	10
336.110	1	17
336.281	1	0
336.452	1	10
336.623	1	12
336.794	1	12
336.965	1	5
337.136	1	3
337.307	1	9
337.478	1	8
337.649	1	14
337.820	1	14
337.991	1	16
338.162	1	8
338.333	1	9
338.504	1	5
338.675	1	7
338.846	1	12
339.017	1	21
339.188	1	-1
339.359	1	11
339.530	1	17
339.701	1	9
339.872	1	19
340.043	1	1
340.214	1	9
340.385	1	8
340.556	1	11
340.727	1	11
340.898	1	15
341.069	1	12
341.240	1	9
341.411	1	6
341.582	1	14
341.753	1	-5
341.924	1	0
342.095	1	5
342.266	1	14
342.437	1	7
342.608	1	28
342.779	1	19
342.950	1	7
343.121	1	10
343.292	1	4
343.463	1	7
343.634	1	5
343.805	1	5
343.976	1	13
344.147	1	7
344.318	1	11
344.489	1	15
344.660	1	12
344.831	1	21
345.002	1	15
345.173	1	0
345.344	1	8
345.515	1	-1
345.686	1	14
345.857	1	2
346.028	1	6
346.199	1	4
346.370	1	13
346.541	1	4
346.712	1	6
346.883	1	2
347.054	1	-1
347.225	1	11
347.396	1	-9
347.567	1	14
347.738	1	2
347.909	1	7
348.080	1	13
348.251	1	9
348.422	1	12
348.593	1	2
348.764	1	13
348.935	1	3
349.106	1	14
349.277	1	2
349.448	1	9
349.619	1	16
349.790	1	10
349.961	1	14
350.132	1	2
350.303	1	18
350.474	1	3
350.645	1	14
350.816	1	3
350.987	1	1
351.157	1	7
351.328	1	17
351.499	1	13
351.670	1	-2
351.841	1	12
352.012	1	17
352.183	1	5
352.354	1	-4
352.525	1	19
352.696	1	18
352.867	1	8
353.038	1	1
353.209	1	9
353.380	1	-3
353.551	1	8
353.722	1	15
353.893	1	11
354.064	1	10
354.235	1	6
354.406	1	14
354.576	1	1
354.747	1	6
354.918	1	10
355.089	1	14
355.260	1	17
355.431	1	12
355.602	1	6
355.773	1	0
355.944	1	3
356.115	1	18
356.286	1	0
356.457	1	5
356.628	1	11
356.799	1	7
356.970	1	19
357.141	1	4
357.311	1	14
357.482	1	9
357.653	1	11
357.824	1	13
357.995	1	4
358.166	1	4
358.337	1	5
358.508	1	9
358.679	1	10
358.850	1	2
359.021	1	13
359.192	1	12
359.363	1	11
359.533	1	-7
359.704	1	16
359.875	1	21
360.046	1	11
360.217	1	14
360.388	1	14
360.559	1	10
360.730	1	9
360.901	1	10
361.072	1	0
361.243	1	11
361.414	1	-1
361.584	1	5
361.755	1	6
361.926	1	10
362.097	1	6
362.268	1	10
362.439	1	5
362.610	1	-1
362.781	1	5
362.952	1	15
363.123	1	15
363.293	1	13
363.464	1	5
363.635	1	17
363.806	1	8
363.977	1	2
364.148	1	9
364.319	1	2
364.490	1	14
364.661	1	15
364.832	1	9
365.002	1	17
365.173	1	6
365.344	1	16
365.515	1	-5
365.686	1	8
365.857	1	2
366.028	1	5
366.199	1	5
366.370	1	14
366.540	1	5
366.711	1	-1
366.882	1	-1
367.053	1	-1
367.224	1	5
367.395	1	6
367.566	1	-4
367.737	1	-1
367.908	1	9
368.078	1	23
368.249	1	15
368.420	1	10
368.591	1	5
368.762	1	8
368.933	1	-3
369.104	1	25
369.274	1	-1
369.445	1	13
369.616	1	6
369.787	1	15
369.958	1	3
370.129	1	3
370.300	1	6
370.471	1	8
370.641	1	5
370.812	1	8
370.983	1	0
371.154	1	1
371.325	1	3
371.496	1	12
371.667	1	7
371.837	1	6
372.008	1	-6
372.179	1	-1
372.350	1	5
372.521	1	12
372.692	1	2
372.863	1	8
373.033	1	20
373.204	1	5
373.375	1	5
373.546	1	27
373.717	1	3
373.888	1	1
374.059	1	13
374.229	1	10
374.400	1	3
374.571	1	8
374.742	1	11
374.913	1	13
375.084	1	12
375.254	1	12
375.425	1	2
375.596	1	11
375.767	1	7
375.938	1	4
376.109	1	15
376.279	1	-1
376.450	1	9
376.621	1	3
376.792	1	10
376.963	1	7
377.134	1	12
377.304	1	11
377.475	1	15
377.646	1	3
377.817	1	4
377.988	1	10
378.159	1	21
378.329	1	9
378.500	1	16
378.671	1	10
378.842	1	4
379.013	1	1
379.184	1	2
379.354	1	5
379.525	1	4
379.696	1	14
379.867	1	3
380.038	1	19
380.209	1	8
380.379	1	13
380.550	1	21
380.721	1	9
380.892	1	5
381.063	1	16
381.233	1	9
381.404	1	1
381.575	1	16
381.746	1	15
381.917	1	21
382.087	1	9
382.258	1	21
382.429	1	1
382.600	1	4
382.771	1	0
382.941	1	18
383.112	1	-8
383.283	1	20
383.454	1	1
383.625	1	6
383.795	1	15
383.966	1	-1
384.137	1	19
384.308	1	10
384.479	1	2
384.649	1	8
384.820	1	19
384.991	1	-1
385.162	1	7
385.333	1	8
385.503	1	13
385.674	1	-13
385.845	1	11
386.016	1	20
386.187	1	12
386.357	1	8
386.528	1	-4
386.699	1	6
386.870	1	6
387.041	1	21
387.211	1	13
387.382	1	0
387.553	1	12
387.724	1	20
387.894	1	12
388.065	1	12
388.236	1	15
388.407	1	11
388.578	1	11
388.748	1	8
388.919	1	9
389.090	1	18
389.261	1	10
389.431	1	14
389.602	1	7
389.773	1	15
389.944	1	17
390.114	1	18
390.285	1	3
390.456	1	4
390.627	1	13
390.798	1	12
390.968	1	15
391.139	1	3
391.310	1	9
391.481	1	12
391.651	1	17
391.822	1	22
391.993	1	9
392.164	1	22
392.334	1	0
392.505	1	20
392.676	1	13
392.847	1	18
393.017	1	9
393.188	1	19
393.359	1	7
393.530	1	16
393.700	1	4
393.871	1	12
394.042	1	10
394.213	1	10
394.383	1	8
394.554	1	21
394.725	1	5
394.896	1	14
395.066	1	10
395.237	1	13
395.408	1	18
395.579	1	10
395.749	1	23
395.920	1	8
396.091	1	16
396.262	1	-5
396.432	1	14
396.603	1	14
396.774	1	12
396.945	1	23
397.115	1	3
397.286	1	7
397.457	1	13
397.627	1	11
397.798	1	9
397.969	1	16
398.140	1	20
398.310	1	9
398.481	1	7
398.652	1	-4
398.823	1	17
398.993	1	23
399.164	1	13
399.335	1	6
399.505	1	4
399.676	1	9
399.847	1	13
400.018	1	23
400.188	1	-1
400.359	1	17
400.530	1	15
400.700	1	13
400.871	1	13
401.042	1	14
401.213	1	9
401.383	1	15
401.554	1	9
401.725	1	17
401.895	1	13
402.066	1	9
402.237	1	14
402.408	1	17
402.578	1	13
402.749	1	11
402.920	1	12
403.090	1	9
403.261	1	26
403.432	1	13
403.603	1	15
403.773	1	17
403.944	1	14
404.115	1	11
404.285	1	23
404.456	1	13
404.627	1	6
404.797	1	17
404.968	1	9
405.139	1	20
405.310	1	23
405.480	1	9
405.651	1	-1
405.822	1	1
405.992	1	8
406.163	1	30
406.334	1	19
406.504	1	16
406.675	1	31
406.846	1	23
407.016	1	21
407.187	1	9
407.358	1	26
407.528	1	17
407.699	1	6
407.870	1	21
408.041	1	31
408.211	1	21
408.382	1	18
408.553	1	22
408.723	1	19
408.894	1	9
409.065	1	11
409.235	1	20
409.406	1	8
409.577	1	9
409.747	1	6
409.918	1	14
410.089	1	19
410.259	1	14
410.430	1	23
410.601	1	16
410.771	1	15
410.942	1	17
411.113	1	18
411.283	1	22
411.454	1	22
411.625	1	21
411.795	1	19
411.966	1	33
412.137	1	13
412.307	1	13
412.478	1	12
412.649	1	16
412.819	1	16
412.990	1	13
413.161	1	16
413.331	1	18
413.502	1	23
413.672	1	26
413.843	1	17
414.014	1	28
414.184	1	10
414.355	1	18
414.526	1	18
414.696	1	14
414.867	1	13
415.038	1	12
415.208	1	19
415.379	1	18
415.550	1	20
415.720	1	5
415.891	1	31
416.062	1	27
416.232	1	7
416.403	1	15
416.573	1	26
416.744	1	19
416.915	1	21
417.085	1	15
417.256	1	15
417.427	1	13
417.597	1	35
417.768	1	25
417.939	1	21
418.109	1	16
418.280	1	11
418.450	1	16
418.621	1	22
418.792	1	10
418.962	1	20
419.133	1	20
419.304	1	21
419.474	1	10
419.645	1	18
419.815	1	5
419.986	1	14
420.157	1	11
420.327	1	3
420.498	1	20
420.669	1	24
420.839	1	13
421.010	1	16
421.180	1	13
421.351	1	23
421.522	1	11
421.692	1	23
421.863	1	15
422.033	1	5
422.204	1	17
422.375	1	20
422.545	1	18
422.716	1	15
422.886	1	3
423.057	1	18
423.228	1	18
423.398	1	16
423.569	1	14
423.740	1	20
423.910	1	16
424.081	1	24
424.251	1	11
424.422	1	13
424.593	1	18
424.763	1	19
424.934	1	25
425.104	1	11
425.275	1	14
425.445	1	8
425.616	1	16
425.787	1	13
425.957	1	9
426.128	1	10
426.298	1	29
426.469	1	15
426.640	1	15
426.810	1	21
426.981	1	15
427.151	1	15
427.322	1	23
427.493	1	24
427.663	1	37
427.834	1	14
428.004	1	8
428.175	1	33
428.345	1	10
428.516	1	30
428.687	1	14
428.857	1	9
429.028	1	9
429.198	1	30
429.369	1	23
429.540	1	20
429.710	1	12
429.881	1	5
430.051	1	20
430.222	1	21
430.392	1	13
430.563	1	24
430.734	1	21
430.904	1	18
431.075	1	18
431.245	1	17
431.416	1	15
431.586	1	12
431.757	1	17
431.927	1	25
432.098	1	4
432.269	1	12
432.439	1	25
432.610	1	20
432.780	1	12
432.951	1	17
433.121	1	22
433.292	1	18
433.462	1	12
433.633	1	7
433.804	1	9
433.974	1	13
434.145	1	14
434.315	1	13
434.486	1	25
434.656	1	25
434.827	1	16
434.997	1	16
435.168	1	23
435.339	1	15
435.509	1	14
435.680	1	16
435.850	1	4
436.021	1	26
436.191	1	18
436.362	1	20
436.532	1	18
436.703	1	19
436.873	1	17
437.044	1	15
437.214	1	9
437.385	1	22
437.556	1	4
437.726	1	15
437.897	1	18
438.067	1	13
438.238	1	28
438.408	1	17
438.579	1	22
438.749	1	16
438.920	1	11
439.090	1	14
439.261	1	19
439.431	1	15
439.602	1	18
439.772	1	12
439.943	1	28
440.113	1	22
440.284	1	15
440.455	1	25
440.625	1	28
440.796	1	17
440.966	1	12
441.137	1	11
441.307	1	18
441.478	1	13
441.648	1	1
441.819	1	9
441.989	1	5
442.160	1	14
442.330	1	18
442.501	1	21
442.671	1	5
442.842	1	25
443.012	1	12
443.183	1	19
443.353	1	18
443.524	1	9
443.694	1	6
443.865	1	27
444.035	1	19
444.206	1	16
444.376	1	9
444.547	1	26
444.717	1	13
444.888	1	6
445.058	1	21
445.229	1	9
445.399	1	16
445.570	1	4
445.740	1	10
445.911	1	29
446.081	1	19
446.252	1	11
446.422	1	13
446.593	1	3
446.763	1	10
446.934	1	21
447.104	1	22
447.275	1	11
447.445	1	19
447.616	1	21
447.786	1	19
447.957	1	13
448.127	1	20
448.298	1	13
448.468	1	2
448.639	1	7
448.809	1	23
448.979	1	1
449.150	1	15
449.320	1	4
449.491	1	17
449.661	1	23
449.832	1	12
450.002	1	13
450.173	1	13
450.343	1	19
450.514	1	23
450.684	1	16
450.855	1	29
451.025	1	10
451.196	1	16
451.366	1	11
451.537	1	11
451.707	1	8
451.878	1	10
452.048	1	19
452.218	1	16
452.389	1	22
452.559	1	14
452.730	1	18
452.900	1	15
453.071	1	7
453.241	1	18
453.412	1	9
453.582	1	15
453.753	1	11
453.923	1	17
454.093	1	21
454.264	1	18
454.434	1	21
454.605	1	19
454.775	1	22
454.946	1	22
455.116	1	9
455.287	1	8
455.457	1	22
455.628	1	18
455.798	1	21
455.968	1	24
456.139	1	5
456.309	1	10
456.480	1	23
456.650	1	34
456.821	1	21
456.991	1	15
457.161	1	18
457.332	1	15
457.502	1	11
457.673	1	14
457.843	1	22
458.014	1	14
458.184	1	7
458.355	1	12
458.525	1	15
458.695	1	9
458.866	1	9
459.036	1	11
459.207	1	7
459.377	1	23
459.548	1	8
459.718	1	7
459.888	1	24
460.059	1	10
460.229	1	17
460.400	1	15
460.570	1	13
460.740	1	14
460.911	1	9
461.081	1	11
461.252	1	24
461.422	1	0
461.593	1	3
461.763	1	24
461.933	1	9
462.104	1	23
462.274	1	18
462.445	1	0
462.615	1	7
462.785	1	7
462.956	1	10
463.126	1	8
463.297	1	20
463.467	1	18
463.638	1	3
463.808	1	4
463.978	1	12
464.149	1	14
464.319	1	5
464.490	1	11
464.660	1	7
464.830	1	2
465.001	1	13
465.171	1	14
465.342	1	11
465.512	1	13
465.682	1	10
465.853	1	13
466.023	1	7
466.194	1	13
466.364	1	17
466.534	1	12
466.705	1	10
466.875	1	12
467.045	1	7
467.216	1	19
467.386	1	14
467.557	1	10
467.727	1	7
467.897	1	12
468.068	1	17
468.238	1	7
468.409	1	-1
468.579	1	4
468.749	1	8
468.920	1	2
469.090	1	17
469.260	1	-1
469.431	1	6
469.601	1	7
469.772	1	8
469.942	1	19
470.112	1	16
470.283	1	17
470.453	1	8
470.623	1	10
470.794	1	21
470.964	1	1
471.135	1	10
471.305	1	3
471.475	1	8
471.646	1	-5
471.816	1	4
471.986	1	6
472.157	1	3
472.327	1	12
472.497	1	4
472.668	1	16
472.838	1	4
473.009	1	16
473.179	1	16
473.349	1	5
473.520	1	7
473.690	1	5
473.860	1	13
474.031	1	2
474.201	1	8
474.371	1	13
474.542	1	15
474.712	1	8
474.882	1	8
475.053	1	18
475.223	1	20
475.394	1	12
475.564	1	10
475.734	1	6
475.905	1	15
476.075	1	-5
476.245	1	16
476.416	1	5
476.586	1	4
476.756	1	17
476.927	1	4
477.097	1	11
477.267	1	8
477.438	1	-3
477.608	1	8
477.778	1	17
477.949	1	0
478.119	1	7
478.289	1	12
478.460	1	7
478.630	1	1
478.800	1	10
478.971	1	12
479.141	1	12
479.311	1	16
479.482	1	10
479.652	1	9
479.822	1	11
479.993	1	13
480.163	1	2
480.333	1	17
480.504	1	14
480.674	1	11
480.844	1	13
481.015	1	2
481.185	1	14
481.355	1	10
481.525	1	4
481.696	1	9
481.866	1	2
482.036	1	4
482.207	1	6
482.377	1	13
482.547	1	15
482.718	1	-2
482.888	1	-1
483.058	1	17
483.229	1	10
483.399	1	11
483.569	1	5
483.740	1	1
483.910	1	-1
484.080	1	11
484.250	1	10
484.421	1	12
484.591	1	6
484.761	1	2
484.932	1	11
485.102	1	2
485.272	1	7
485.443	1	5
485.613	1	6
485.783	1	4
485.953	1	-2
486.124	1	4
486.294	1	5
486.464	1	15
486.635	1	-3
486.805	1	-7
486.975	1	16
487.146	1	6
487.316	1	8
487.486	1	6
487.656	1	-4
487.827	1	5
487.997	1	4
488.167	1	9
488.338	1	-3
488.508	1	8
488.678	1	2
488.848	1	1
489.019	1	7
489.189	1	9
489.359	1	4
489.529	1	5
489.700	1	10
489.870	1	-3
490.040	1	-5
490.211	1	7
490.381	1	-1
490.551	1	1
490.721	1	4
490.892	1	13
491.062	1	6
491.232	1	6
491.402	1	12
491.573	1	10
491.743	1	1
491.913	1	7
492.084	1	3
492.254	1	15
492.424	1	3
492.594	1	14
492.765	1	6
492.935	1	9
493.105	1	12
493.275	1	17
493.446	1	11
493.616	1	3
493.786	1	8
493.956	1	3
494.127	1	-6
494.297	1	-1
494.467	1	11
494.637	1	2
494.808	1	-3
494.978	1	-2
495.148	1	10
495.318	1	-2
495.489	1	9
495.659	1	14
495.829	1	6
495.999	1	10
496.170	1	4
496.340	1	11
496.510	1	2
496.680	1	2
496.851	1	3
497.021	1	3
497.191	1	-2
497.361	1	8
497.532	1	8
497.702	1	13
497.872	1	-1
498.042	1	5
498.213	1	4
498.383	1	10
498.553	1	1
498.723	1	-10
498.894	1	13
499.064	1	5
499.234	1	6
499.404	1	10
499.574	1	5
499.745	1	-3
499.915	1	1
500.085	1	0
500.255	1	12
500.426	1	-4
500.596	1	11
500.766	1	-6
500.936	1	1
501.106	1	8
501.277	1	17
501.447	1	6
501.617	1	6
501.787	1	13
501.958	1	11
502.128	1	21
502.298	1	7
502.468	1	10
502.638	1	-6
502.809	1	7
502.979	1	-8
503.149	1	9
503.319	1	-5
503.489	1	-2
503.660	1	5
503.830	1	11
504.000	1	11
504.170	1	3
504.340	1	7
504.511	1	7
504.681	1	13
504.851	1	12
505.021	1	6
505.192	1	-6
505.362	1	9
505.532	1	-1
505.702	1	-4
505.872	1	10
506.043	1	5
506.213	1	10
506.383	1	11
506.553	1	-3
506.723	1	11
506.893	1	7
507.064	1	-3
507.234	1	-7
507.404	1	7
507.574	1	0
507.744	1	5
507.915	1	5
508.085	1	-3
508.255	1	5
508.425	1	2
508.595	1	-4
508.766	1	0
508.936	1	12
509.106	1	1
509.276	1	1
509.446	1	10
509.616	1	3
509.787	1	1
509.957	1	3
510.127	1	7
510.297	1	7
510.467	1	0
510.638	1	0
510.808	1	-2
510.978	1	3
511.148	1	11
511.318	1	10
511.488	1	19
511.659	1	6
511.829	1	1
511.999	1	8
512.169	1	2
512.339	1	0
512.509	1	1
512.680	1	1
512.850	1	2
513.020	1	7
513.190	1	5
513.360	1	5
513.530	1	6
513.700	1	1
513.871	1	4
514.041	1	7
514.211	1	1
514.381	1	5
514.551	1	2
514.721	1	5
514.892	1	2
515.062	1	9
515.232	1	8
515.402	1	6
515.572	1	6
515.742	1	13
515.912	1	7
516.083	1	2
516.253	1	9
516.423	1	-6
516.593	1	1
516.763	1	14
516.933	1	4
517.104	1	-7
517.274	1	13
517.444	1	-2
517.614	1	10
517.784	1	6
517.954	1	5
518.124	1	2
518.294	1	4
518.465	1	15
518.635	1	8
518.805	1	4
518.975	1	-3
519.145	1	-1
519.315	1	-8
519.485	1	11
519.656	1	4
519.826	1	1
519.996	1	4
520.166	1	-7
520.336	1	6
520.506	1	1
520.676	1	13
520.846	1	3
521.017	1	2
521.187	1	7
521.357	1	5
521.527	1	1
521.697	1	-3
521.867	1	2
522.037	1	4
522.207	1	9
522.377	1	6
522.548	1	8
522.718	1	10
522.888	1	9
523.058	1	-2
523.228	1	-10
523.398	1	4
523.568	1	9
523.738	1	-4
523.909	1	-1
524.079	1	4
524.249	1	6
524.419	1	0
524.589	1	10
524.759	1	10
524.929	1	-2
525.099	1	-8
525.269	1	-7
525.439	1	11
525.610	1	-5
525.780	1	1
525.950	1	9
526.120	1	-2
526.290	1	-1
526.460	1	9
526.630	1	5
526.800	1	-4
526.970	1	-1
527.140	1	12
527.311	1	15
527.481	1	1
527.651	1	6
527.821	1	2
527.991	1	-3
528.161	1	-1
528.331	1	8
528.501	1	-6
528.671	1	6
528.841	1	11
529.011	1	4
529.181	1	11
529.352	1	2
529.522	1	5
529.692	1	0
529.862	1	8
530.032	1	6
530.202	1	11
530.372	1	9
530.542	1	6
530.712	1	5
530.882	1	13
531.052	1	-3
531.222	1	8
531.392	1	9
531.563	1	4
531.733	1	-11
531.903	1	6
532.073	1	11
532.243	1	7
532.413	1	2
532.583	1	5
532.753	1	4
532.923	1	4
533.093	1	-6
533.263	1	5
533.433	1	4
533.603	1	-7
533.773	1	-2
533.943	1	7
534.113	1	9
534.284	1	-5
534.454	1	10
534.624	1	-2
534.794	1	5
534.964	1	-3
535.134	1	13
535.304	1	13
535.474	1	2
535.644	1	4
535.814	1	10
535.984	1	-1
536.154	1	2
536.324	1	-2
536.494	1	4
536.664	1	-2
536.834	1	11
537.004	1	6
537.174	1	2
537.344	1	8
537.514	1	3
537.685	1	6
537.855	1	2
538.025	1	0
538.195	1	1
538.365	1	19
538.535	1	-13
538.705	1	-4
538.875	1	6
539.045	1	6
539.215	1	8
539.385	1	-5
539.555	1	5
539.725	1	3
539.895	1	0
540.065	1	-3
540.235	1	-4
540.405	1	-6
540.575	1	15
540.745	1	-1
540.915	1	4
541.085	1	-3
541.255	1	10
541.425	1	4
541.595	1	9
541.765	1	14
541.935	1	1
542.105	1	-3
542.275	1	4
542.445	1	3
542.615	1	5
542.785	1	1
542.955	1	-9
543.125	1	1
543.295	1	1
543.465	1	1
543.635	1	-3
543.805	1	-6
543.975	1	-5
544.145	1	16
544.315	1	-6
544.485	1	-5
544.655	1	-12
544.825	1	9
544.995	1	9
545.165	1	3
545.335	1	-4
545.505	1	2
545.675	1	-10
545.845	1	0
546.015	1	4
546.185	1	1
546.355	1	-1
546.525	1	-2
546.695	1	-5
546.865	1	0
547.035	1	0
547.205	1	15
547.375	1	0
547.545	1	-1
547.715	1	2
547.885	1	-3
548.055	1	1
548.225	1	9
548.395	1	-6
548.565	1	4
548.735	1	-4
548.905	1	3
549.075	1	9
549.245	1	6
549.415	1	3
549.585	1	3
549.755	1	6
549.925	1	7
550.095	1	-6
550.265	1	13
550.435	1	0
550.605	1	-2
550.775	1	-1
550.945	1	8
551.115	1	13
551.285	1	8
551.455	1	5
551.625	1	1
551.795	1	-8
551.965	1	5
552.135	1	-1
552.305	1	3
552.475	1	4
552.645	1	-7
552.815	1	10
552.985	1	2
553.155	1	7
553.325	1	-1
553.495	1	7
553.665	1	-5
553.835	1	9
554.004	1	10
554.174	1	-5
554.344	1	1
554.514	1	-8
554.684	1	-4
554.854	1	-2
555.024	1	-6
555.194	1	-1
555.364	1	9
555.534	1	-9
555.704	1	5
555.874	1	4
556.044	1	4
556.214	1	1
556.384	1	0
556.554	1	-7
556.724	1	5
556.894	1	4
557.064	1	6
557.234	1	0
557.404	1	5
557.573	1	7
557.743	1	2
557.913	1	16
558.083	1	3
558.253	1	2
558.423	1	0
558.593	1	-3
558.763	1	12
558.933	1	1
559.103	1	2
559.273	1	2
559.443	1	-2
559.613	1	4
559.783	1	-2
559.953	1	-3
560.122	1	2
560.292	1	13
560.462	1	5
560.632	1	-4
560.802	1	15
560.972	1	-6
561.142	1	5
561.312	1	-4
561.482	1	-4
561.652	1	0
561.822	1	-11
561.992	1	3
562.162	1	5
562.331	1	11
562.501	1	-6
562.671	1	9
562.841	1	-14
563.011	1	6
563.181	1	2
563.351	1	-1
563.521	1	3
563.691	1	7
563.861	1	10
564.031	1	1
564.201	1	1
564.370	1	7
564.540	1	12
564.710	1	-5
564.880	1	0
565.050	1	0
565.220	1	0
565.390	1	-2
565.560	1	11
565.730	1	12
565.900	1	3
566.069	1	-2
566.239	1	-6
566.409	1	-8
566.579	1	2
566.749	1	-8
566.919	1	8
567.089	1	7
567.259	1	-3
567.429	1	-4
567.599	1	7
567.768	1	-2
567.938	1	2
568.108	1	2
568.278	1	7
568.448	1	6
568.618	1	1
568.788	1	2
568.958	1	-6
569.128	1	6
569.297	1	4
569.467	1	-2
569.637	1	9
569.807	1	6
569.977	1	1
570.147	1	9
570.317	1	-6
570.487	1	1
570.656	1	-7
570.826	1	4
570.996	1	-22
571.166	1	5
571.336	1	-3
571.506	1	13
571.676	1	17
571.846	1	12
572.015	1	-10
572.185	1	0
572.355	1	-3
572.525	1	-16
572.695	1	3
572.865	1	1
573.035	1	4
573.205	1	4
573.374	1	3
573.544	1	3
573.714	1	-11
573.884	1	2
574.054	1	9
574.224	1	-6
574.394	1	1
574.563	1	1
574.733	1	3
574.903	1	10
575.073	1	6
575.243	1	-3
575.413	1	-7
575.583	1	6
575.752	1	-3
575.922	1	-6
576.092	1	-11
576.262	1	-4
576.432	1	7
576.602	1	-8
576.772	1	-1
576.941	1	7
577.111	1	-4
577.281	1	1
577.451	1	-2
577.621	1	1
577.791	1	1
577.960	1	-1
578.130	1	-4
578.300	1	-2
578.470	1	-5
578.640	1	4
578.810	1	1
578.979	1	6
579.149	1	-2
579.319	1	-9
579.489	1	-6
579.659	1	-2
579.829	1	5
579.998	1	1
580.168	1	8
580.338	1	6
580.508	1	10
580.678	1	8
580.848	1	4
581.017	1	5
581.187	1	6
581.357	1	2
581.527	1	-1
581.697	1	-7
581.867	1	-1
582.036	1	2
582.206	1	5
582.376	1	-4
582.546	1	-6
582.716	1	-1
582.885	1	-14
583.055	1	7
583.225	1	2
583.395	1	4
583.565	1	-4
583.735	1	-2
583.904	1	12
584.074	1	-9
584.244	1	-9
584.414	1	4
584.584	1	-5
584.753	1	4
584.923	1	-3
585.093	1	19
585.263	1	9
585.433	1	1
585.602	1	-2
585.772	1	1
585.942	1	3
586.112	1	-7
586.282	1	1
586.451	1	5
586.621	1	11
586.791	1	-1
586.961	1	2
587.131	1	3
587.300	1	-1
587.470	1	-10
587.640	1	2
587.810	1	9
587.980	1	-4
588.149	1	1
588.319	1	5
588.489	1	7
588.659	1	-3
588.829	1	6
588.998	1	-3
589.168	1	7
589.338	1	4
589.508	1	-7
589.677	1	3
589.847	1	8
590.017	1	-7
590.187	1	2
590.357	1	-2
590.526	1	-2
590.696	1	1
590.866	1	-4
591.036	1	12
591.205	1	2
591.375	1	-8
591.545	1	5
591.715	1	-1
591.885	1	2
592.054	1	1
592.224	1	13
592.394	1	-8
592.564	1	6
592.733	1	-14
592.903	1	2
593.073	1	1
593.243	1	2
593.412	1	3
593.582	1	5
593.752	1	-6
593.922	1	0
594.091	1	-7
594.261	1	8
594.431	1	6
594.601	1	-1
594.771	1	4
594.940	1	9
595.110	1	-3
595.280	1	0
595.450	1	8
595.619	1	12
595.789	1	-3
595.959	1	7
596.129	1	2
596.298	1	10
596.468	1	0
596.638	1	1
596.808	1	2
596.977	1	-4
597.147	1	-2
597.317	1	-3
597.487	1	8
597.656	1	1
597.826	1	1
597.996	1	2
598.166	1	5
598.335	1	9
598.505	1	11
598.675	1	-6
598.844	1	-7
599.014	1	3
599.184	1	2
599.354	1	4
599.523	1	7
599.693	1	8
599.863	1	9
600.033	1	-2
600.202	1	6
600.372	1	-6
600.542	1	4
600.712	1	8
600.881	1	0
601.051	1	9
601.221	1	1
601.390	1	-15
601.560	1	5
601.730	1	11
601.900	1	0
602.069	1	6
602.239	1	-1
602.409	1	-1
602.578	1	0
602.748	1	0
602.918	1	9
603.088	1	3
603.257	1	10
603.427	1	-5
603.597	1	6
603.767	1	2
603.936	1	7
604.106	1	2
604.276	1	13
604.445	1	11
604.615	1	-8
604.785	1	9
604.954	1	10
605.124	1	-2
605.294	1	2
605.464	1	7
605.633	1	1
605.803	1	9
605.973	1	-2
606.142	1	0
606.312	1	0
606.482	1	6
606.652	1	-4
606.821	1	4
606.991	1	-5
607.161	1	7
607.330	1	-7
607.500	1	8
607.670	1	4
607.839	1	20
608.009	1	7
608.179	1	7
608.348	1	4
608.518	1	11
608.688	1	2
608.858	1	1
609.027	1	0
609.197	1	-7
609.367	1	7
609.536	1	5
609.706	1	6
609.876	1	13
610.045	1	-1
610.215	1	-2
610.385	1	-4
610.554	1	5
610.724	1	-7
610.894	1	6
611.063	1	-7
611.233	1	5
611.403	1	3
611.572	1	7
611.742	1	10
611.912	1	3
612.081	1	-2
612.251	1	12
612.421	1	11
612.590	1	8
612.760	1	2
612.930	1	-5
613.099	1	-1
613.269	1	-1
613.439	1	4
613.608	1	10
613.778	1	-11
613.948	1	5
614.117	1	12
614.287	1	-1
614.457	1	-9
614.626	1	3
614.796	1	-4
614.966	1	9
615.135	1	4
615.305	1	6
615.475	1	-1
615.644	1	11
615.814	1	-6
615.984	1	10
616.153	1	-3
616.323	1	5
616.493	1	11
616.662	1	4
616.832	1	1
617.002	1	0
617.171	1	-6
617.341	1	3
617.511	1	3
617.680	1	15
617.850	1	-2
618.019	1	-1
618.189	1	10
618.359	1	0
618.528	1	3
618.698	1	4
618.868	1	-5
619.037	1	5
619.207	1	9
619.377	1	-4
619.546	1	0
619.716	1	5
619.885	1	9
620.055	1	6
620.225	1	4
620.394	1	5
620.564	1	9
620.734	1	5
620.903	1	4
621.073	1	-1
621.242	1	8
621.412	1	9
621.582	1	5
621.751	1	17
621.921	1	6
622.091	1	8
622.260	1	-8
622.430	1	-4
622.599	1	0
622.769	1	16
622.939	1	5
623.108	1	-4
623.278	1	6
623.448	1	9
623.617	1	-2
623.787	1	6
623.956	1	11
624.126	1	12
624.296	1	3
624.465	1	10
624.635	1	12
624.804	1	1
624.974	1	13
625.144	1	7
625.313	1	1
625.483	1	18
625.652	1	7
625.822	1	0
625.992	1	2
626.161	1	6
626.331	1	6
626.501	1	6
626.670	1	15
626.840	1	7
627.009	1	8
627.179	1	13
627.348	1	7
627.518	1	15
627.688	1	1
627.857	1	8
628.027	1	-11
628.196	1	-3
628.366	1	-2
628.536	1	7
628.705	1	7
628.875	1	13
629.044	1	11
629.214	1	7
629.384	1	10
629.553	1	5
629.723	1	-3
629.892	1	12
630.062	1	2
630.232	1	7
630.401	1	19
630.571	1	12
630.740	1	5
630.910	1	14
631.079	1	1
631.249	1	6
631.419	1	6
631.588	1	6
631.758	1	14
631.927	1	5
632.097	1	4
632.266	1	7
632.436	1	9
632.606	1	7
632.775	1	7
632.945	1	13
633.114	1	1
633.284	1	-8
633.453	1	6
633.623	1	15
633.793	1	8
633.962	1	0
634.132	1	3
634.301	1	2
634.471	1	1
634.640	1	9
634.810	1	11
634.979	1	4
635.149	1	7
635.319	1	14
635.488	1	9
635.658	1	5
635.827	1	2
635.997	1	3
636.166	1	-2
636.336	1	2
636.505	1	10
636.675	1	10
636.845	1	10
637.014	1	1
637.184	1	8
637.353	1	3
637.523	1	1
637.692	1	3
637.862	1	9
638.031	1	10
638.201	1	14
638.370	1	5
638.540	1	10
638.710	1	11
638.879	1	2
639.049	1	1
639.218	1	13
639.388	1	5
639.557	1	17
639.727	1	7
639.896	1	4
640.066	1	14
640.235	1	8
640.405	1	1
640.574	1	17
640.744	1	16
640.914	1	5
641.083	1	6
641.253	1	21
641.422	1	0
641.592	1	9
641.761	1	5
641.931	1	2
642.100	1	8
642.270	1	-1
642.439	1	10
642.609	1	6
642.778	1	-7
642.948	1	7
643.117	1	7
643.287	1	-4
643.456	1	13
643.626	1	15
643.795	1	11
643.965	1	11
644.134	1	-2
644.304	1	6
644.473	1	8
644.643	1	2
644.812	1	15
644.982	1	10
645.151	1	14
645.321	1	-2
645.490	1	-4
645.660	1	3
645.829	1	0
645.999	1	6
646.168	1	4
646.338	1	1
646.507	1	10
646.677	1	-4
646.846	1	6
647.016	1	14
647.185	1	3
647.355	1	6
647.524	1	2
647.694	1	6
647.863	1	3
648.033	1	9
648.202	1	10
648.372	1	16
648.541	1	2
648.711	1	3
648.880	1	3
649.050	1	1
649.219	1	1
649.389	1	10
649.558	1	7
649.728	1	6
649.897	1	9
650.067	1	2
650.236	1	2
650.406	1	-7
650.575	1	10
650.745	1	12
650.914	1	6
651.084	1	-7
651.253	1	19
651.423	1	6
651.592	1	9
651.762	1	12
651.931	1	5
652.101	1	5
652.270	1	18
652.440	1	0
652.609	1	9
652.778	1	5
652.948	1	11
653.117	1	-3
653.287	1	14
653.456	1	7
653.626	1	-2
653.795	1	10
653.965	1	10
654.134	1	3
654.304	1	9
654.473	1	0
654.643	1	1
654.812	1	2
654.982	1	0
655.151	1	-2
655.320	1	3
655.490	1	4
655.659	1	5
655.829	1	2
655.998	1	6
656.168	1	-2
656.337	1	12
656.507	1	-3
656.676	1	5
656.846	1	-1
657.015	1	0
657.184	1	-6
657.354	1	1
657.523	1	8
657.693	1	15
657.862	1	13
658.032	1	0
658.201	1	2
658.371	1	6
658.540	1	-11
658.709	1	-2
658.879	1	-16
659.048	1	9
659.218	1	6
659.387	1	5
659.557	1	10
659.726	1	7
659.895	1	8
660.065	1	2
660.234	1	8
660.404	1	5
660.573	1	16
660.743	1	19
660.912	1	7
661.081	1	14
661.251	1	9
661.420	1	8
661.590	1	4
661.759	1	2
661.929	1	9
662.098	1	-15
662.267	1	1
662.437	1	12
662.606	1	7
662.776	1	7
662.945	1	4
663.115	1	16
663.284	1	4
663.453	1	-4
663.623	1	14
663.792	1	9
663.962	1	2
664.131	1	9
664.300	1	13
664.470	1	3
664.639	1	2
664.809	1	-8
664.978	1	3
665.148	1	9
665.317	1	4
665.486	1	8
665.656	1	1
665.825	1	1
665.995	1	-2
666.164	1	-5
666.333	1	14
666.503	1	5
666.672	1	12
666.842	1	-10
667.011	1	-1
667.180	1	-2
667.350	1	9
667.519	1	9
667.689	1	1
667.858	1	1
668.027	1	20
668.197	1	6
668.366	1	7
668.536	1	7
668.705	1	8
668.874	1	6
669.044	1	6
669.213	1	7
669.382	1	6
669.552	1	10
669.721	1	11
669.891	1	9
670.060	1	14
670.229	1	5
670.399	1	13
670.568	1	-2
670.738	1	4
670.907	1	2
671.076	1	-2
671.246	1	7
671.415	1	2
671.584	1	3
671.754	1	5
671.923	1	6
672.093	1	21
672.262	1	13
672.431	1	0
672.601	1	6
672.770	1	4
672.939	1	4
673.109	1	8
673.278	1	8
673.448	1	-8
673.617	1	-2
673.786	1	1
