325.333	1	5
325.504	1	10
325.675	1	2
325.846	1	4
326.017	1	5
326.188	1	15
326.359	1	-3
326.531	1	0
326.702	1	7
326.873	1	0
327.044	1	6
327.215	1	1
327.386	1	2
327.557	1	4
327.728	1	3
327.899	1	8
328.070	1	3
328.241	1	1
328.412	1	3
328.583	1	-2
328.754	1	2
328.926	1	2
329.097	1	11
329.268	1	-8
329.439	1	-3
329.610	1	12
329.781	1	0
329.952	1	9
330.123	1	3
330.294	1	-6
330.465	1	-4
330.636	1	4
330.807	1	8
330.978	1	1
331.149	1	13
331.320	1	9
331.492	1	6
331.663	1	10
331.834	1	9
332.005	1	1
332.176	1	1
332.347	1	15
332.518	1	11
332.689	1	1
332.860	1	6
333.031	1	4
333.202	1	-4
333.373	1	7
333.544	1	3
333.715	1	5
333.886	1	4
334.057	1	3
334.228	1	9
334.399	1	14
334.570	1	-6
334.741	1	6
334.912	1	10
335.084	1	-1
335.255	1	-2
335.426	1	2
335.597	1	9
335.768	1	9
335.939	1	14
336.110	1	7
336.281	1	6
336.452	1	8
336.623	1	8
336.794	1	4
336.965	1	-2
337.136	1	-7
337.307	1	4
337.478	1	3
337.649	1	16
337.820	1	9
337.991	1	9
338.162	1	10
338.333	1	1
338.504	1	0
338.675	1	12
338.846	1	3
339.017	1	11
339.188	1	-6
339.359	1	8
339.530	1	16
339.701	1	4
339.872	1	4
340.043	1	-6
340.214	1	0
340.385	1	12
340.556	1	4
340.727	1	5
340.898	1	11
341.069	1	14
341.240	1	12
341.411	1	0
341.582	1	10
341.753	1	-8
341.924	1	-6
342.095	1	5
342.266	1	9
342.437	1	8
342.608	1	16
342.779	1	8
342.950	1	-3
343.121	1	11
343.292	1	3
343.463	1	9
343.634	1	-13
343.805	1	8
343.976	1	8
344.147	1	12
344.318	1	4
344.489	1	13
344.660	1	8
344.831	1	9
345.002	1	12
345.173	1	2
345.344	1	11
345.515	1	-2
345.686	1	14
345.857	1	1
346.028	1	5
346.199	1	0
346.370	1	6
346.541	1	-5
346.712	1	0
346.883	1	0
347.054	1	3
347.225	1	3
347.396	1	-1
347.567	1	19
347.738	1	-12
347.909	1	1
348.080	1	-4
348.251	1	10
348.422	1	8
348.593	1	-1
348.764	1	8
348.935	1	5
349.106	1	9
349.277	1	4
349.448	1	4
349.619	1	-10
349.790	1	16
349.961	1	12
350.132	1	17
350.303	1	-2
350.474	1	-3
350.645	1	7
350.816	1	-3
350.987	1	11
351.157	1	9
351.328	1	11
351.499	1	11
351.670	1	1
351.841	1	8
352.012	1	5
352.183	1	6
352.354	1	8
352.525	1	9
352.696	1	10
352.867	1	3
353.038	1	1
353.209	1	6
353.380	1	2
353.551	1	-6
353.722	1	8
353.893	1	7
354.064	1	7
354.235	1	9
354.406	1	12
354.576	1	10
354.747	1	9
354.918	1	14
355.089	1	-5
355.260	1	13
355.431	1	-1
355.602	1	7
355.773	1	-1
355.944	1	-1
356.115	1	11
356.286	1	9
356.457	1	-2
356.628	1	8
356.799	1	2
356.970	1	3
357.141	1	-4
357.311	1	5
357.482	1	-1
357.653	1	10
357.824	1	10
357.995	1	2
358.166	1	1
358.337	1	1
358.508	1	8
358.679	1	2
358.850	1	-4
359.021	1	10
359.192	1	8
359.363	1	4
359.533	1	-6
359.704	1	7
359.875	1	8
360.046	1	13
360.217	1	8
360.388	1	8
360.559	1	2
360.730	1	12
360.901	1	0
361.072	1	10
361.243	1	5
361.414	1	1
361.584	1	-2
361.755	1	9
361.926	1	5
362.097	1	13
362.268	1	-1
362.439	1	10
362.610	1	9
362.781	1	8
362.952	1	8
363.123	1	2
363.293	1	7
363.464	1	11
363.635	1	11
363.806	1	5
363.977	1	4
364.148	1	-6
364.319	1	-4
364.490	1	8
364.661	1	4
364.832	1	12
365.002	1	5
365.173	1	0
365.344	1	6
365.515	1	-8
365.686	1	-1
365.857	1	9
366.028	1	6
366.199	1	-2
366.370	1	7
366.540	1	4
366.711	1	0
366.882	1	1
367.053	1	5
367.224	1	4
367.395	1	2
367.566	1	-9
367.737	1	6
367.908	1	3
368.078	1	10
368.249	1	8
368.420	1	7
368.591	1	1
368.762	1	1
368.933	1	-2
369.104	1	16
369.274	1	-5
369.445	1	14
369.616	1	-3
369.787	1	14
369.958	1	7
370.129	1	-3
370.300	1	7
370.471	1	-2
370.641	1	3
370.812	1	1
370.983	1	-5
371.154	1	0
371.325	1	5
371.496	1	6
371.667	1	2
371.837	1	11
372.008	1	-9
372.179	1	9
372.350	1	-8
372.521	1	4
372.692	1	-2
372.863	1	-4
373.033	1	16
373.204	1	2
373.375	1	4
373.546	1	13
373.717	1	-4
373.888	1	8
374.059	1	9
374.229	1	-12
374.400	1	1
374.571	1	-3
374.742	1	1
374.913	1	6
375.084	1	11
375.254	1	8
375.425	1	0
375.596	1	6
375.767	1	2
375.938	1	-5
376.109	1	13
376.279	1	-3
376.450	1	12
376.621	1	7
376.792	1	4
376.963	1	7
377.134	1	7
377.304	1	13
377.475	1	4
377.646	1	-3
377.817	1	3
377.988	1	5
378.159	1	3
378.329	1	4
378.500	1	11
378.671	1	4
378.842	1	0
379.013	1	6
379.184	1	-7
379.354	1	-2
379.525	1	2
379.696	1	15
379.867	1	-3
380.038	1	4
380.209	1	-4
380.379	1	-1
380.550	1	8
380.721	1	-4
380.892	1	2
381.063	1	8
381.233	1	8
381.404	1	5
381.575	1	5
381.746	1	15
381.917	1	5
382.087	1	8
382.258	1	16
382.429	1	-3
382.600	1	2
382.771	1	5
382.941	1	19
383.112	1	7
383.283	1	8
383.454	1	9
383.625	1	-4
383.795	1	1
383.966	1	3
384.137	1	9
384.308	1	8
384.479	1	-3
384.649	1	4
384.820	1	3
384.991	1	10
385.162	1	8
385.333	1	8
385.503	1	4
385.674	1	-12
385.845	1	5
386.016	1	-2
386.187	1	4
386.357	1	2
386.528	1	8
386.699	1	-2
386.870	1	5
387.041	1	17
387.211	1	3
387.382	1	-11
387.553	1	-3
387.724	1	20
387.894	1	12
388.065	1	3
388.236	1	8
388.407	1	7
388.578	1	-1
388.748	1	-4
388.919	1	2
389.090	1	14
389.261	1	11
389.431	1	-1
389.602	1	8
389.773	1	12
389.944	1	15
390.114	1	6
390.285	1	2
390.456	1	-10
390.627	1	10
390.798	1	2
390.968	1	21
391.139	1	2
391.310	1	6
391.481	1	13
391.651	1	15
391.822	1	12
391.993	1	11
392.164	1	12
392.334	1	-5
392.505	1	8
392.676	1	14
392.847	1	7
393.017	1	5
393.188	1	6
393.359	1	12
393.530	1	15
393.700	1	-3
393.871	1	3
394.042	1	5
394.213	1	3
394.383	1	5
394.554	1	11
394.725	1	6
394.896	1	11
395.066	1	1
395.237	1	7
395.408	1	12
395.579	1	2
395.749	1	5
395.920	1	-5
396.091	1	13
396.262	1	4
396.432	1	9
396.603	1	0
396.774	1	9
396.945	1	5
397.115	1	7
397.286	1	3
397.457	1	3
397.627	1	-1
397.798	1	1
397.969	1	10
398.140	1	0
398.310	1	-4
398.481	1	4
398.652	1	-3
398.823	1	9
398.993	1	1
399.164	1	14
399.335	1	9
399.505	1	12
399.676	1	12
399.847	1	7
400.018	1	8
400.188	1	-6
400.359	1	4
400.530	1	5
400.700	1	5
400.871	1	-1
401.042	1	9
401.213	1	5
401.383	1	4
401.554	1	9
401.725	1	8
401.895	1	5
402.066	1	-1
402.237	1	5
402.408	1	11
402.578	1	-2
402.749	1	6
402.920	1	1
403.090	1	-3
403.261	1	13
403.432	1	12
403.603	1	12
403.773	1	4
403.944	1	8
404.115	1	1
404.285	1	4
404.456	1	7
404.627	1	5
404.797	1	6
404.968	1	2
405.139	1	7
405.310	1	13
405.480	1	12
405.651	1	2
405.822	1	6
405.992	1	-2
406.163	1	12
406.334	1	4
406.504	1	14
406.675	1	28
406.846	1	8
407.016	1	6
407.187	1	9
407.358	1	15
407.528	1	-1
407.699	1	-6
407.870	1	15
408.041	1	21
408.211	1	8
408.382	1	11
408.553	1	14
408.723	1	8
408.894	1	10
409.065	1	5
409.235	1	2
409.406	1	0
409.577	1	2
409.747	1	9
409.918	1	8
410.089	1	14
410.259	1	0
410.430	1	8
410.601	1	5
410.771	1	5
410.942	1	13
411.113	1	3
411.283	1	14
411.454	1	13
411.625	1	-2
411.795	1	2
411.966	1	24
412.137	1	7
412.307	1	5
412.478	1	12
412.649	1	4
412.819	1	14
412.990	1	4
413.161	1	17
413.331	1	9
413.502	1	5
413.672	1	6
413.843	1	1
414.014	1	18
414.184	1	12
414.355	1	15
414.526	1	9
414.696	1	14
414.867	1	11
415.038	1	11
415.208	1	12
415.379	1	17
415.550	1	20
415.720	1	3
415.891	1	27
416.062	1	10
416.232	1	3
416.403	1	16
416.573	1	12
416.744	1	9
416.915	1	18
417.085	1	14
417.256	1	2
417.427	1	12
417.597	1	12
417.768	1	15
417.939	1	9
418.109	1	6
418.280	1	5
418.450	1	11
418.621	1	10
418.792	1	5
418.962	1	-5
419.133	1	5
419.304	1	7
419.474	1	8
419.645	1	10
419.815	1	5
419.986	1	6
420.157	1	11
420.327	1	8
420.498	1	16
420.669	1	6
420.839	1	13
421.010	1	11
421.180	1	6
421.351	1	10
421.522	1	4
421.692	1	14
421.863	1	12
422.033	1	11
422.204	1	8
422.375	1	6
422.545	1	16
422.716	1	8
422.886	1	8
423.057	1	3
423.228	1	2
423.398	1	12
423.569	1	2
423.740	1	14
423.910	1	9
424.081	1	8
424.251	1	-1
424.422	1	2
424.593	1	19
424.763	1	24
424.934	1	7
425.104	1	3
425.275	1	20
425.445	1	7
425.616	1	7
425.787	1	13
425.957	1	2
426.128	1	8
426.298	1	12
426.469	1	2
426.640	1	3
426.810	1	18
426.981	1	10
427.151	1	18
427.322	1	29
427.493	1	6
427.663	1	15
427.834	1	9
428.004	1	0
428.175	1	14
428.345	1	2
428.516	1	10
428.687	1	21
428.857	1	-1
429.028	1	15
429.198	1	16
429.369	1	12
429.540	1	11
429.710	1	-1
429.881	1	-4
430.051	1	14
430.222	1	8
430.392	1	3
430.563	1	16
430.734	1	14
430.904	1	11
431.075	1	10
431.245	1	-1
431.416	1	15
431.586	1	-2
431.757	1	10
431.927	1	20
432.098	1	-7
432.269	1	3
432.439	1	15
432.610	1	13
432.780	1	3
432.951	1	11
433.121	1	19
433.292	1	8
433.462	1	5
433.633	1	5
433.804	1	5
433.974	1	3
434.145	1	8
434.315	1	10
434.486	1	11
434.656	1	8
434.827	1	10
434.997	1	5
435.168	1	7
435.339	1	11
435.509	1	0
435.680	1	12
435.850	1	6
436.021	1	19
436.191	1	16
436.362	1	8
436.532	1	11
436.703	1	-1
436.873	1	7
437.044	1	2
437.214	1	1
437.385	1	10
437.556	1	2
437.726	1	13
437.897	1	12
438.067	1	2
438.238	1	3
438.408	1	6
438.579	1	4
438.749	1	1
438.920	1	14
439.090	1	-1
439.261	1	14
439.431	1	11
439.602	1	8
439.772	1	17
439.943	1	4
440.113	1	8
440.284	1	13
440.455	1	7
440.625	1	24
440.796	1	17
440.966	1	-1
441.137	1	0
441.307	1	3
441.478	1	9
441.648	1	-1
441.819	1	1
441.989	1	5
442.160	1	9
442.330	1	5
442.501	1	-6
442.671	1	12
442.842	1	6
443.012	1	10
443.183	1	9
443.353	1	14
443.524	1	-5
443.694	1	2
443.865	1	7
444.035	1	14
444.206	1	3
444.376	1	-6
444.547	1	17
444.717	1	8
444.888	1	12
445.058	1	10
445.229	1	1
445.399	1	7
445.570	1	-5
445.740	1	1
445.911	1	15
446.081	1	18
446.252	1	17
446.422	1	0
446.593	1	-2
446.763	1	2
446.934	1	12
447.104	1	21
447.275	1	11
447.445	1	1
447.616	1	4
447.786	1	6
447.957	1	8
448.127	1	17
448.298	1	9
448.468	1	-1
448.639	1	7
448.809	1	10
448.979	1	4
449.150	1	6
449.320	1	3
449.491	1	-8
449.661	1	15
449.832	1	3
450.002	1	4
450.173	1	-2
450.343	1	6
450.514	1	14
450.684	1	-3
450.855	1	16
451.025	1	7
451.196	1	6
451.366	1	3
451.537	1	5
451.707	1	6
451.878	1	-1
452.048	1	5
452.218	1	14
452.389	1	13
452.559	1	-2
452.730	1	15
452.900	1	3
453.071	1	2
453.241	1	16
453.412	1	3
453.582	1	-2
453.753	1	8
453.923	1	13
454.093	1	16
454.264	1	16
454.434	1	5
454.605	1	14
454.775	1	2
454.946	1	16
455.116	1	9
455.287	1	-5
455.457	1	7
455.628	1	9
455.798	1	15
455.968	1	10
456.139	1	1
456.309	1	-3
456.480	1	6
456.650	1	14
456.821	1	15
456.991	1	14
457.161	1	8
457.332	1	15
457.502	1	-3
457.673	1	6
457.843	1	9
458.014	1	17
458.184	1	6
458.355	1	-2
458.525	1	4
458.695	1	6
458.866	1	6
459.036	1	1
459.207	1	6
459.377	1	16
459.548	1	3
459.718	1	11
459.888	1	7
460.059	1	5
460.229	1	12
460.400	1	11
460.570	1	10
460.740	1	4
460.911	1	8
461.081	1	1
461.252	1	10
461.422	1	10
461.593	1	-6
461.763	1	16
461.933	1	-3
462.104	1	11
462.274	1	13
462.445	1	-7
462.615	1	-1
462.785	1	0
462.956	1	7
463.126	1	-3
463.297	1	11
463.467	1	14
463.638	1	-5
463.808	1	-3
463.978	1	8
464.149	1	5
464.319	1	-9
464.490	1	0
464.660	1	9
464.830	1	4
465.001	1	12
465.171	1	4
465.342	1	8
465.512	1	8
465.682	1	5
465.853	1	12
466.023	1	5
466.194	1	7
466.364	1	8
466.534	1	9
466.705	1	10
466.875	1	3
467.045	1	-2
467.216	1	-1
467.386	1	-5
467.557	1	-12
467.727	1	1
467.897	1	-8
468.068	1	8
468.238	1	7
468.409	1	0
468.579	1	13
468.749	1	-2
468.920	1	-2
469.090	1	6
469.260	1	-5
469.431	1	5
469.601	1	10
469.772	1	-1
469.942	1	15
470.112	1	17
470.283	1	9
470.453	1	7
470.623	1	10
470.794	1	5
470.964	1	-5
471.135	1	7
471.305	1	1
471.475	1	9
471.646	1	3
471.816	1	8
471.986	1	1
472.157	1	5
472.327	1	-4
472.497	1	-4
472.668	1	4
472.838	1	-3
473.009	1	20
473.179	1	15
473.349	1	6
473.520	1	3
473.690	1	10
473.860	1	2
474.031	1	12
474.201	1	13
474.371	1	1
474.542	1	6
474.712	1	-5
474.882	1	15
475.053	1	14
475.223	1	7
475.394	1	1
475.564	1	-9
475.734	1	0
475.905	1	7
476.075	1	-2
476.245	1	11
476.416	1	-1
476.586	1	8
476.756	1	13
476.927	1	17
477.097	1	6
477.267	1	4
477.438	1	-4
477.608	1	-1
477.778	1	15
477.949	1	2
478.119	1	6
478.289	1	5
478.460	1	3
478.630	1	-7
478.800	1	10
478.971	1	9
479.141	1	3
479.311	1	13
479.482	1	3
479.652	1	3
479.822	1	-4
479.993	1	1
480.163	1	3
480.333	1	6
480.504	1	11
480.674	1	3
480.844	1	9
481.015	1	1
481.185	1	14
481.355	1	0
481.525	1	7
481.696	1	12
481.866	1	1
482.036	1	0
482.207	1	-6
482.377	1	4
482.547	1	9
482.718	1	5
482.888	1	-5
483.058	1	2
483.229	1	7
483.399	1	5
483.569	1	1
483.740	1	-2
483.910	1	-10
484.080	1	-1
484.250	1	2
484.421	1	8
484.591	1	-3
484.761	1	4
484.932	1	7
485.102	1	3
485.272	1	5
485.443	1	1
485.613	1	4
485.783	1	0
485.953	1	-1
486.124	1	-2
486.294	1	5
486.464	1	3
486.635	1	8
486.805	1	-3
486.975	1	3
487.146	1	2
487.316	1	9
487.486	1	2
487.656	1	-3
487.827	1	9
487.997	1	8
488.167	1	7
488.338	1	0
488.508	1	2
488.678	1	1
488.848	1	1
489.019	1	2
489.189	1	-3
489.359	1	6
489.529	1	-2
489.700	1	-9
489.870	1	3
490.040	1	-8
490.211	1	8
490.381	1	-6
490.551	1	-15
490.721	1	0
490.892	1	9
491.062	1	-4
491.232	1	3
491.402	1	3
491.573	1	0
491.743	1	-3
491.913	1	6
492.084	1	-5
492.254	1	14
492.424	1	2
492.594	1	14
492.765	1	1
492.935	1	11
493.105	1	14
493.275	1	3
493.446	1	2
493.616	1	5
493.786	1	3
493.956	1	2
494.127	1	-12
494.297	1	4
494.467	1	9
494.637	1	0
494.808	1	-3
494.978	1	-2
495.148	1	3
495.318	1	-4
495.489	1	0
495.659	1	6
495.829	1	8
495.999	1	6
496.170	1	13
496.340	1	12
496.510	1	-5
496.680	1	7
496.851	1	4
497.021	1	-4
497.191	1	0
497.361	1	3
497.532	1	-2
497.702	1	3
497.872	1	3
498.042	1	-4
498.213	1	-1
498.383	1	7
498.553	1	-4
498.723	1	-8
498.894	1	6
499.064	1	0
499.234	1	-2
499.404	1	7
499.574	1	11
499.745	1	3
499.915	1	-2
500.085	1	-7
500.255	1	8
500.426	1	0
500.596	1	6
500.766	1	-3
500.936	1	7
501.106	1	6
501.277	1	3
501.447	1	7
501.617	1	-1
501.787	1	9
501.958	1	3
502.128	1	10
502.298	1	6
502.468	1	1
502.638	1	1
502.809	1	-5
502.979	1	2
503.149	1	0
503.319	1	-1
503.489	1	-8
503.660	1	1
503.830	1	3
504.000	1	-1
504.170	1	7
504.340	1	4
504.511	1	2
504.681	1	5
504.851	1	15
505.021	1	1
505.192	1	-2
505.362	1	-6
505.532	1	-5
505.702	1	1
505.872	1	8
506.043	1	1
506.213	1	2
506.383	1	9
506.553	1	-3
506.723	1	13
506.893	1	3
507.064	1	-4
507.234	1	-3
507.404	1	13
507.574	1	0
507.744	1	9
507.915	1	-3
508.085	1	-10
508.255	1	2
508.425	1	-4
508.595	1	8
508.766	1	2
508.936	1	13
509.106	1	-6
509.276	1	7
509.446	1	5
509.616	1	4
509.787	1	10
509.957	1	4
510.127	1	1
510.297	1	17
510.467	1	4
510.638	1	1
510.808	1	-8
510.978	1	2
511.148	1	6
511.318	1	-4
511.488	1	6
511.659	1	1
511.829	1	-4
511.999	1	-3
512.169	1	2
512.339	1	8
512.509	1	4
512.680	1	-6
512.850	1	6
513.020	1	0
513.190	1	6
513.360	1	-2
513.530	1	1
513.700	1	-1
513.871	1	15
514.041	1	-2
514.211	1	-4
514.381	1	8
514.551	1	-9
514.721	1	0
514.892	1	2
515.062	1	12
515.232	1	0
515.402	1	11
515.572	1	-2
515.742	1	10
515.912	1	2
516.083	1	2
516.253	1	15
516.423	1	-7
516.593	1	1
516.763	1	-7
516.933	1	4
517.104	1	-8
517.274	1	3
517.444	1	-2
517.614	1	0
517.784	1	3
517.954	1	-2
518.124	1	2
518.294	1	0
518.465	1	8
518.635	1	-5
518.805	1	0
518.975	1	-14
519.145	1	-1
519.315	1	-9
519.485	1	1
519.656	1	9
519.826	1	-10
519.996	1	11
520.166	1	-4
520.336	1	-13
520.506	1	5
520.676	1	4
520.846	1	-8
521.017	1	0
521.187	1	6
521.357	1	16
521.527	1	7
521.697	1	-5
521.867	1	-7
522.037	1	-4
522.207	1	-1
522.377	1	2
522.548	1	-5
522.718	1	-1
522.888	1	13
523.058	1	1
523.228	1	-2
523.398	1	8
523.568	1	10
523.738	1	-1
523.909	1	-2
524.079	1	-4
524.249	1	-7
524.419	1	-3
524.589	1	5
524.759	1	-2
524.929	1	1
525.099	1	-6
525.269	1	-11
525.439	1	5
525.610	1	1
525.780	1	-4
525.950	1	4
526.120	1	-2
526.290	1	-5
526.460	1	-4
526.630	1	5
526.800	1	2
526.970	1	3
527.140	1	12
527.311	1	14
527.481	1	-10
527.651	1	5
527.821	1	-9
527.991	1	-1
528.161	1	-13
528.331	1	-3
528.501	1	-2
528.671	1	3
528.841	1	12
529.011	1	-7
529.181	1	9
529.352	1	10
529.522	1	-2
529.692	1	1
529.862	1	-3
530.032	1	-9
530.202	1	8
530.372	1	16
530.542	1	-4
530.712	1	14
530.882	1	1
531.052	1	2
531.222	1	-8
531.392	1	-6
531.563	1	-3
531.733	1	0
531.903	1	4
532.073	1	-3
532.243	1	5
532.413	1	-1
532.583	1	6
532.753	1	9
532.923	1	-1
533.093	1	-6
533.263	1	-9
533.433	1	5
533.603	1	-9
533.773	1	-5
533.943	1	-2
534.113	1	9
534.284	1	-18
534.454	1	1
534.624	1	1
534.794	1	12
534.964	1	-3
535.134	1	4
535.304	1	13
535.474	1	-4
535.644	1	-4
535.814	1	8
535.984	1	4
536.154	1	2
536.324	1	-3
536.494	1	5
536.664	1	3
536.834	1	9
537.004	1	1
537.174	1	2
537.344	1	7
537.514	1	1
537.685	1	8
537.855	1	-4
538.025	1	0
538.195	1	2
538.365	1	11
538.535	1	-12
538.705	1	-7
538.875	1	-2
539.045	1	1
539.215	1	7
539.385	1	2
539.555	1	-2
539.725	1	-6
539.895	1	6
540.065	1	-1
540.235	1	7
540.405	1	-7
540.575	1	3
540.745	1	-1
540.915	1	3
541.085	1	-2
541.255	1	13
541.425	1	-2
541.595	1	-1
541.765	1	6
541.935	1	-1
542.105	1	0
542.275	1	-2
542.445	1	0
542.615	1	-1
542.785	1	-5
542.955	1	-9
543.125	1	-5
543.295	1	13
543.465	1	2
543.635	1	-6
543.805	1	-3
543.975	1	-7
544.145	1	24
544.315	1	-2
544.485	1	4
544.655	1	-7
544.825	1	0
544.995	1	5
545.165	1	10
545.335	1	0
545.505	1	-4
545.675	1	-2
545.845	1	8
546.015	1	-2
546.185	1	-1
546.355	1	-3
546.525	1	4
546.695	1	-6
546.865	1	12
547.035	1	2
547.205	1	8
547.375	1	0
547.545	1	2
547.715	1	5
547.885	1	-1
548.055	1	-1
548.225	1	0
548.395	1	-1
548.565	1	8
548.735	1	-13
548.905	1	2
549.075	1	4
549.245	1	9
549.415	1	-3
549.585	1	2
549.755	1	10
549.925	1	-11
550.095	1	-8
550.265	1	8
550.435	1	1
550.605	1	-4
550.775	1	2
550.945	1	-4
551.115	1	2
551.285	1	4
551.455	1	6
551.625	1	-2
551.795	1	-7
551.965	1	-2
552.135	1	-3
552.305	1	4
552.475	1	2
552.645	1	-6
552.815	1	-1
552.985	1	5
553.155	1	5
553.325	1	-1
553.495	1	-1
553.665	1	-5
553.835	1	12
554.004	1	3
554.174	1	-4
554.344	1	3
554.514	1	4
554.684	1	-4
554.854	1	-1
555.024	1	11
555.194	1	1
555.364	1	0
555.534	1	-7
555.704	1	1
555.874	1	11
556.044	1	1
556.214	1	10
556.384	1	11
556.554	1	-4
556.724	1	-3
556.894	1	-5
557.064	1	9
557.234	1	-6
557.404	1	-2
557.573	1	-3
557.743	1	1
557.913	1	6
558.083	1	0
558.253	1	-2
558.423	1	6
558.593	1	-1
558.763	1	1
558.933	1	0
559.103	1	-1
559.273	1	-3
559.443	1	-2
559.613	1	1
559.783	1	-11
559.953	1	10
560.122	1	1
560.292	1	13
560.462	1	3
560.632	1	-1
560.802	1	7
560.972	1	-10
561.142	1	-5
561.312	1	-2
561.482	1	-16
561.652	1	1
561.822	1	-5
561.992	1	-3
562.162	1	8
562.331	1	-1
562.501	1	3
562.671	1	6
562.841	1	-9
563.011	1	3
563.181	1	0
563.351	1	-1
563.521	1	5
563.691	1	1
563.861	1	0
564.031	1	-4
564.201	1	6
564.370	1	-9
564.540	1	7
564.710	1	1
564.880	1	1
565.050	1	8
565.220	1	-2
565.390	1	-1
565.560	1	10
565.730	1	6
565.900	1	-2
566.069	1	2
566.239	1	0
566.409	1	-7
566.579	1	9
566.749	1	-9
566.919	1	-2
567.089	1	7
567.259	1	-1
567.429	1	-5
567.599	1	7
567.768	1	7
567.938	1	-2
568.108	1	-3
568.278	1	6
568.448	1	-2
568.618	1	-6
568.788	1	6
568.958	1	-2
569.128	1	0
569.297	1	-10
569.467	1	-2
569.637	1	2
569.807	1	2
569.977	1	3
570.147	1	5
570.317	1	-7
570.487	1	-14
570.656	1	-14
570.826	1	-5
570.996	1	-13
571.166	1	6
571.336	1	-9
571.506	1	2
571.676	1	6
571.846	1	2
572.015	1	-2
572.185	1	3
572.355	1	-10
572.525	1	-5
572.695	1	3
572.865	1	-9
573.035	1	16
573.205	1	2
573.374	1	-3
573.544	1	-2
573.714	1	4
573.884	1	-3
574.054	1	0
574.224	1	-6
574.394	1	4
574.563	1	2
574.733	1	8
574.903	1	9
575.073	1	4
575.243	1	-7
575.413	1	-9
575.583	1	-3
575.752	1	-5
575.922	1	-10
576.092	1	-14
576.262	1	7
576.432	1	3
576.602	1	-5
576.772	1	-2
576.941	1	-2
577.111	1	3
577.281	1	-1
577.451	1	5
577.621	1	-2
577.791	1	1
577.960	1	-3
578.130	1	-2
578.300	1	-4
578.470	1	3
578.640	1	2
578.810	1	-1
578.979	1	-1
579.149	1	3
579.319	1	-4
579.489	1	-8
579.659	1	-2
579.829	1	4
579.998	1	2
580.168	1	-1
580.338	1	1
580.508	1	6
580.678	1	-5
580.848	1	0
581.017	1	11
581.187	1	2
581.357	1	-8
581.527	1	-5
581.697	1	1
581.867	1	-3
582.036	1	-5
582.206	1	2
582.376	1	-1
582.546	1	-12
582.716	1	-7
582.885	1	-13
583.055	1	-10
583.225	1	2
583.395	1	8
583.565	1	6
583.735	1	1
583.904	1	4
584.074	1	-17
584.244	1	-4
584.414	1	0
584.584	1	-6
584.753	1	10
584.923	1	-3
585.093	1	3
585.263	1	0
585.433	1	-5
585.602	1	-6
585.772	1	-13
585.942	1	2
586.112	1	-17
586.282	1	3
586.451	1	4
586.621	1	1
586.791	1	-3
586.961	1	-1
587.131	1	-11
587.300	1	6
587.470	1	-9
587.640	1	1
587.810	1	2
587.980	1	1
588.149	1	2
588.319	1	5
588.489	1	-7
588.659	1	-3
588.829	1	2
588.998	1	1
589.168	1	7
589.338	1	4
589.508	1	-10
589.677	1	7
589.847	1	5
590.017	1	2
590.187	1	-1
590.357	1	1
590.526	1	-1
590.696	1	-5
590.866	1	1
591.036	1	7
591.205	1	11
591.375	1	-10
591.545	1	2
591.715	1	0
591.885	1	-5
592.054	1	-5
592.224	1	4
592.394	1	-7
592.564	1	4
592.733	1	-11
592.903	1	4
593.073	1	-10
593.243	1	5
593.412	1	2
593.582	1	-1
593.752	1	0
593.922	1	-6
594.091	1	-1
594.261	1	-5
594.431	1	11
594.601	1	-12
594.771	1	17
594.940	1	4
595.110	1	-1
595.280	1	-10
595.450	1	1
595.619	1	-1
595.789	1	-3
595.959	1	11
596.129	1	-4
596.298	1	3
596.468	1	-6
596.638	1	0
596.808	1	7
596.977	1	2
597.147	1	-14
597.317	1	0
597.487	1	2
597.656	1	-4
597.826	1	8
597.996	1	3
598.166	1	2
598.335	1	3
598.505	1	13
598.675	1	-1
598.844	1	2
599.014	1	5
599.184	1	1
599.354	1	10
599.523	1	8
599.693	1	10
599.863	1	-3
600.033	1	-5
600.202	1	7
600.372	1	-6
600.542	1	-5
600.712	1	9
600.881	1	2
601.051	1	-2
601.221	1	7
601.390	1	-9
601.560	1	5
601.730	1	6
601.900	1	4
602.069	1	9
602.239	1	4
602.409	1	7
602.578	1	-4
602.748	1	-2
602.918	1	-1
603.088	1	7
603.257	1	13
603.427	1	1
603.597	1	5
603.767	1	-3
603.936	1	-2
604.106	1	5
604.276	1	1
604.445	1	2
604.615	1	4
604.785	1	7
604.954	1	11
605.124	1	-3
605.294	1	-1
605.464	1	-3
605.633	1	6
605.803	1	5
605.973	1	3
606.142	1	-7
606.312	1	-5
606.482	1	7
606.652	1	-3
606.821	1	-5
606.991	1	-3
607.161	1	2
607.330	1	-8
607.500	1	6
607.670	1	17
607.839	1	13
608.009	1	11
608.179	1	3
608.348	1	5
608.518	1	3
608.688	1	-4
608.858	1	8
609.027	1	8
609.197	1	-6
609.367	1	9
609.536	1	2
609.706	1	0
609.876	1	16
610.045	1	2
610.215	1	-1
610.385	1	-5
610.554	1	-2
610.724	1	-9
610.894	1	0
611.063	1	-13
611.233	1	10
611.403	1	5
611.572	1	11
611.742	1	3
611.912	1	4
612.081	1	-9
612.251	1	11
612.421	1	-3
612.590	1	-3
612.760	1	8
612.930	1	-6
613.099	1	4
613.269	1	-4
613.439	1	5
613.608	1	5
613.778	1	-3
613.948	1	-6
614.117	1	7
614.287	1	-6
614.457	1	-9
614.626	1	10
614.796	1	-9
614.966	1	4
615.135	1	8
615.305	1	1
615.475	1	2
615.644	1	-3
615.814	1	-4
615.984	1	9
616.153	1	4
616.323	1	7
616.493	1	8
616.662	1	4
616.832	1	5
617.002	1	10
617.171	1	-11
617.341	1	-2
617.511	1	-7
617.680	1	6
617.850	1	0
618.019	1	-1
618.189	1	11
618.359	1	-1
618.528	1	-1
618.698	1	4
618.868	1	-2
619.037	1	3
619.207	1	-2
619.377	1	-9
619.546	1	9
619.716	1	4
619.885	1	-2
620.055	1	3
620.225	1	11
620.394	1	6
620.564	1	7
620.734	1	8
620.903	1	1
621.073	1	2
621.242	1	3
621.412	1	9
621.582	1	-2
621.751	1	6
621.921	1	4
622.091	1	2
622.260	1	-6
622.430	1	1
622.599	1	-2
622.769	1	9
622.939	1	2
623.108	1	0
623.278	1	3
623.448	1	0
623.617	1	2
623.787	1	4
623.956	1	12
624.126	1	9
624.296	1	-8
624.465	1	6
624.635	1	10
624.804	1	-12
624.974	1	10
625.144	1	-1
625.313	1	-16
625.483	1	15
625.652	1	13
625.822	1	-10
625.992	1	-3
626.161	1	6
626.331	1	-4
626.501	1	10
626.670	1	4
626.840	1	15
627.009	1	3
627.179	1	14
627.348	1	9
627.518	1	0
627.688	1	-3
627.857	1	2
628.027	1	2
628.196	1	-2
628.366	1	-7
628.536	1	-2
628.705	1	3
628.875	1	11
629.044	1	1
629.214	1	7
629.384	1	2
629.553	1	3
629.723	1	-8
629.892	1	19
630.062	1	-3
630.232	1	9
630.401	1	5
630.571	1	8
630.740	1	7
630.910	1	0
631.079	1	-5
631.249	1	-3
631.419	1	-7
631.588	1	-4
631.758	1	11
631.927	1	5
632.097	1	5
632.266	1	9
632.436	1	-1
632.606	1	5
632.775	1	6
632.945	1	9
633.114	1	7
633.284	1	-4
633.453	1	2
633.623	1	4
633.793	1	-6
633.962	1	0
634.132	1	1
634.301	1	3
634.471	1	-4
634.640	1	3
634.810	1	3
634.979	1	0
635.149	1	8
635.319	1	5
635.488	1	16
635.658	1	9
635.827	1	8
635.997	1	1
636.166	1	0
636.336	1	2
636.505	1	5
636.675	1	13
636.845	1	2
637.014	1	6
637.184	1	0
637.353	1	1
637.523	1	6
637.692	1	12
637.862	1	2
638.031	1	7
638.201	1	13
638.370	1	5
638.540	1	3
638.710	1	15
638.879	1	-5
639.049	1	8
639.218	1	6
639.388	1	4
639.557	1	9
639.727	1	3
639.896	1	8
640.066	1	16
640.235	1	5
640.405	1	-2
640.574	1	-2
640.744	1	17
640.914	1	5
641.083	1	6
641.253	1	19
641.422	1	0
641.592	1	1
641.761	1	5
641.931	1	2
642.100	1	2
642.270	1	-6
642.439	1	0
642.609	1	0
642.778	1	2
642.948	1	-1
643.117	1	14
643.287	1	1
643.456	1	3
643.626	1	12
643.795	1	5
643.965	1	17
644.134	1	7
644.304	1	5
644.473	1	4
644.643	1	-2
644.812	1	12
644.982	1	-2
645.151	1	11
645.321	1	1
645.490	1	-12
645.660	1	5
645.829	1	7
645.999	1	8
646.168	1	-7
646.338	1	-2
646.507	1	-6
646.677	1	6
646.846	1	7
647.016	1	16
647.185	1	-1
647.355	1	11
647.524	1	9
647.694	1	0
647.863	1	0
648.033	1	2
648.202	1	-1
648.372	1	13
648.541	1	6
648.711	1	10
648.880	1	7
649.050	1	-5
649.219	1	-2
649.389	1	13
649.558	1	-1
649.728	1	-3
649.897	1	9
650.067	1	9
650.236	1	4
650.406	1	0
650.575	1	5
650.745	1	4
650.914	1	2
651.084	1	-2
651.253	1	7
651.423	1	3
651.592	1	9
651.762	1	7
651.931	1	4
652.101	1	9
652.270	1	9
652.440	1	-2
652.609	1	1
652.778	1	-6
652.948	1	3
653.117	1	-8
653.287	1	11
653.456	1	6
653.626	1	1
653.795	1	6
653.965	1	4
654.134	1	10
654.304	1	10
654.473	1	-4
654.643	1	-5
654.812	1	2
654.982	1	-6
655.151	1	-3
655.320	1	-1
655.490	1	-1
655.659	1	-2
655.829	1	2
655.998	1	-5
656.168	1	-1
656.337	1	12
656.507	1	5
656.676	1	7
656.846	1	2
657.015	1	-3
657.184	1	7
657.354	1	8
657.523	1	0
657.693	1	10
657.862	1	1
658.032	1	7
658.201	1	-4
658.371	1	3
658.540	1	-2
658.709	1	4
658.879	1	-13
659.048	1	-2
659.218	1	4
659.387	1	2
659.557	1	9
659.726	1	5
659.895	1	1
660.065	1	1
660.234	1	-4
660.404	1	9
660.573	1	8
660.743	1	10
660.912	1	3
661.081	1	22
661.251	1	0
661.420	1	0
661.590	1	-7
661.759	1	0
661.929	1	1
662.098	1	-2
662.267	1	1
662.437	1	4
662.606	1	9
662.776	1	0
662.945	1	-1
663.115	1	7
663.284	1	6
663.453	1	-12
663.623	1	4
663.792	1	14
663.962	1	-6
664.131	1	10
664.300	1	2
664.470	1	1
664.639	1	3
664.809	1	2
664.978	1	2
665.148	1	3
665.317	1	0
665.486	1	2
665.656	1	2
665.825	1	6
665.995	1	7
666.164	1	-3
666.333	1	9
666.503	1	0
666.672	1	7
666.842	1	-9
667.011	1	12
667.180	1	6
667.350	1	12
667.519	1	6
667.689	1	-1
667.858	1	5
668.027	1	10
668.197	1	-2
668.366	1	-8
668.536	1	6
668.705	1	3
668.874	1	-4
669.044	1	8
669.213	1	5
669.382	1	-3
669.552	1	5
669.721	1	13
669.891	1	4
670.060	1	12
670.229	1	1
670.399	1	4
670.568	1	-2
670.738	1	-3
670.907	1	2
671.076	1	0
671.246	1	5
671.415	1	4
671.584	1	2
671.754	1	5
671.923	1	-1
672.093	1	7
672.262	1	8
672.431	1	-6
672.601	1	1
672.770	1	0
672.939	1	6
673.109	1	-5
673.278	1	3
673.448	1	3
673.617	1	-8
673.786	1	2
