325.333	1	7
325.504	1	9
325.675	1	3
325.846	1	10
326.017	1	20
326.188	1	20
326.359	1	4
326.531	1	14
326.702	1	20
326.873	1	-1
327.044	1	21
327.215	1	15
327.386	1	5
327.557	1	19
327.728	1	3
327.899	1	22
328.070	1	13
328.241	1	7
328.412	1	20
328.583	1	11
328.754	1	4
328.926	1	-3
329.097	1	8
329.268	1	4
329.439	1	10
329.610	1	10
329.781	1	0
329.952	1	24
330.123	1	8
330.294	1	3
330.465	1	18
330.636	1	11
330.807	1	0
330.978	1	7
331.149	1	16
331.320	1	15
331.492	1	15
331.663	1	22
331.834	1	7
332.005	1	12
332.176	1	3
332.347	1	17
332.518	1	16
332.689	1	16
332.860	1	16
333.031	1	4
333.202	1	5
333.373	1	6
333.544	1	19
333.715	1	5
333.886	1	9
334.057	1	6
334.228	1	12
334.399	1	22
334.570	1	7
334.741	1	21
334.912	1	14
335.084	1	4
335.255	1	8
335.426	1	8
335.597	1	18
335.768	1	9
335.939	1	10
336.110	1	12
336.281	1	11
336.452	1	13
336.623	1	14
336.794	1	16
336.965	1	6
337.136	1	6
337.307	1	17
337.478	1	11
337.649	1	15
337.820	1	18
337.991	1	19
338.162	1	14
338.333	1	7
338.504	1	8
338.675	1	17
338.846	1	6
339.017	1	19
339.188	1	12
339.359	1	16
339.530	1	19
339.701	1	9
339.872	1	13
340.043	1	-7
340.214	1	8
340.385	1	6
340.556	1	17
340.727	1	22
340.898	1	14
341.069	1	16
341.240	1	23
341.411	1	7
341.582	1	16
341.753	1	-3
341.924	1	11
342.095	1	8
342.266	1	12
342.437	1	18
342.608	1	23
342.779	1	3
342.950	1	16
343.121	1	8
343.292	1	16
343.463	1	8
343.634	1	8
343.805	1	5
343.976	1	9
344.147	1	8
344.318	1	5
344.489	1	21
344.660	1	11
344.831	1	20
345.002	1	14
345.173	1	5
345.344	1	0
345.515	1	6
345.686	1	18
345.857	1	13
346.028	1	18
346.199	1	12
346.370	1	14
346.541	1	12
346.712	1	8
346.883	1	16
347.054	1	7
347.225	1	15
347.396	1	4
347.567	1	23
347.738	1	6
347.909	1	8
348.080	1	7
348.251	1	22
348.422	1	9
348.593	1	8
348.764	1	7
348.935	1	10
349.106	1	9
349.277	1	12
349.448	1	20
349.619	1	5
349.790	1	26
349.961	1	16
350.132	1	11
350.303	1	18
350.474	1	10
350.645	1	10
350.816	1	5
350.987	1	21
351.157	1	15
351.328	1	27
351.499	1	12
351.670	1	13
351.841	1	19
352.012	1	20
352.183	1	18
352.354	1	-1
352.525	1	15
352.696	1	17
352.867	1	13
353.038	1	18
353.209	1	14
353.380	1	11
353.551	1	5
353.722	1	18
353.893	1	4
354.064	1	12
354.235	1	18
354.406	1	23
354.576	1	20
354.747	1	1
354.918	1	15
355.089	1	22
355.260	1	21
355.431	1	8
355.602	1	10
355.773	1	12
355.944	1	11
356.115	1	23
356.286	1	15
356.457	1	10
356.628	1	14
356.799	1	18
356.970	1	16
357.141	1	14
357.311	1	14
357.482	1	21
357.653	1	11
357.824	1	17
357.995	1	7
358.166	1	5
358.337	1	14
358.508	1	16
358.679	1	17
358.850	1	16
359.021	1	15
359.192	1	27
359.363	1	15
359.533	1	3
359.704	1	16
359.875	1	15
360.046	1	19
360.217	1	16
360.388	1	20
360.559	1	15
360.730	1	17
360.901	1	15
361.072	1	11
361.243	1	18
361.414	1	18
361.584	1	13
361.755	1	14
361.926	1	14
362.097	1	17
362.268	1	15
362.439	1	13
362.610	1	13
362.781	1	15
362.952	1	19
363.123	1	16
363.293	1	14
363.464	1	13
363.635	1	22
363.806	1	9
363.977	1	11
364.148	1	1
364.319	1	7
364.490	1	24
364.661	1	14
364.832	1	11
365.002	1	19
365.173	1	10
365.344	1	20
365.515	1	8
365.686	1	13
365.857	1	14
366.028	1	22
366.199	1	8
366.370	1	19
366.540	1	14
366.711	1	7
366.882	1	6
367.053	1	9
367.224	1	13
367.395	1	19
367.566	1	2
367.737	1	9
367.908	1	14
368.078	1	20
368.249	1	13
368.420	1	13
368.591	1	26
368.762	1	13
368.933	1	9
369.104	1	23
369.274	1	2
369.445	1	16
369.616	1	19
369.787	1	13
369.958	1	16
370.129	1	4
370.300	1	17
370.471	1	21
370.641	1	10
370.812	1	16
370.983	1	13
371.154	1	13
371.325	1	9
371.496	1	14
371.667	1	11
371.837	1	12
372.008	1	4
372.179	1	4
372.350	1	1
372.521	1	7
372.692	1	6
372.863	1	18
373.033	1	18
373.204	1	11
373.375	1	11
373.546	1	27
373.717	1	21
373.888	1	18
374.059	1	20
374.229	1	6
374.400	1	10
374.571	1	11
374.742	1	11
374.913	1	7
375.084	1	19
375.254	1	14
375.425	1	11
375.596	1	11
375.767	1	17
375.938	1	14
376.109	1	19
376.279	1	16
376.450	1	20
376.621	1	8
376.792	1	15
376.963	1	18
377.134	1	17
377.304	1	21
377.475	1	21
377.646	1	15
377.817	1	11
377.988	1	3
378.159	1	20
378.329	1	14
378.500	1	14
378.671	1	20
378.842	1	19
379.013	1	16
379.184	1	8
379.354	1	16
379.525	1	9
379.696	1	21
379.867	1	14
380.038	1	31
380.209	1	19
380.379	1	15
380.550	1	15
380.721	1	12
380.892	1	17
381.063	1	9
381.233	1	21
381.404	1	20
381.575	1	21
381.746	1	16
381.917	1	22
382.087	1	26
382.258	1	29
382.429	1	13
382.600	1	26
382.771	1	22
382.941	1	28
383.112	1	14
383.283	1	26
383.454	1	10
383.625	1	10
383.795	1	20
383.966	1	15
384.137	1	23
384.308	1	14
384.479	1	11
384.649	1	21
384.820	1	16
384.991	1	13
385.162	1	19
385.333	1	18
385.503	1	13
385.674	1	-2
385.845	1	25
386.016	1	17
386.187	1	12
386.357	1	19
386.528	1	9
386.699	1	12
386.870	1	8
387.041	1	30
387.211	1	10
387.382	1	8
387.553	1	15
387.724	1	30
387.894	1	29
388.065	1	11
388.236	1	18
388.407	1	20
388.578	1	9
388.748	1	14
388.919	1	19
389.090	1	27
389.261	1	16
389.431	1	23
389.602	1	33
389.773	1	23
389.944	1	36
390.114	1	36
390.285	1	11
390.456	1	22
390.627	1	23
390.798	1	20
390.968	1	39
391.139	1	11
391.310	1	26
391.481	1	28
391.651	1	19
391.822	1	24
391.993	1	19
392.164	1	22
392.334	1	21
392.505	1	15
392.676	1	29
392.847	1	30
393.017	1	23
393.188	1	28
393.359	1	22
393.530	1	20
393.700	1	15
393.871	1	12
394.042	1	17
394.213	1	17
394.383	1	27
394.554	1	34
394.725	1	16
394.896	1	26
395.066	1	21
395.237	1	25
395.408	1	30
395.579	1	18
395.749	1	20
395.920	1	11
396.091	1	29
396.262	1	14
396.432	1	27
396.603	1	18
396.774	1	19
396.945	1	21
397.115	1	20
397.286	1	25
397.457	1	7
397.627	1	22
397.798	1	26
397.969	1	26
398.140	1	24
398.310	1	21
398.481	1	16
398.652	1	16
398.823	1	18
398.993	1	20
399.164	1	19
399.335	1	24
399.505	1	14
399.676	1	19
399.847	1	17
400.018	1	34
400.188	1	22
400.359	1	24
400.530	1	22
400.700	1	25
400.871	1	23
401.042	1	23
401.213	1	26
401.383	1	17
401.554	1	20
401.725	1	32
401.895	1	20
402.066	1	24
402.237	1	40
402.408	1	30
402.578	1	31
402.749	1	24
402.920	1	32
403.090	1	25
403.261	1	22
403.432	1	32
403.603	1	29
403.773	1	27
403.944	1	22
404.115	1	22
404.285	1	36
404.456	1	24
404.627	1	31
404.797	1	27
404.968	1	24
405.139	1	34
405.310	1	47
405.480	1	21
405.651	1	20
405.822	1	21
405.992	1	19
406.163	1	38
406.334	1	29
406.504	1	27
406.675	1	41
406.846	1	24
407.016	1	29
407.187	1	31
407.358	1	33
407.528	1	18
407.699	1	23
407.870	1	44
408.041	1	40
408.211	1	32
408.382	1	27
408.553	1	30
408.723	1	33
408.894	1	22
409.065	1	17
409.235	1	30
409.406	1	25
409.577	1	31
409.747	1	17
409.918	1	29
410.089	1	37
410.259	1	11
410.430	1	38
410.601	1	30
410.771	1	29
410.942	1	34
411.113	1	32
411.283	1	34
411.454	1	40
411.625	1	34
411.795	1	27
411.966	1	36
412.137	1	30
412.307	1	35
412.478	1	20
412.649	1	29
412.819	1	36
412.990	1	32
413.161	1	37
413.331	1	30
413.502	1	30
413.672	1	40
413.843	1	34
414.014	1	36
414.184	1	43
414.355	1	39
414.526	1	38
414.696	1	30
414.867	1	37
415.038	1	26
415.208	1	33
415.379	1	32
415.550	1	27
415.720	1	27
415.891	1	31
416.062	1	29
416.232	1	36
416.403	1	33
416.573	1	43
416.744	1	22
416.915	1	44
417.085	1	30
417.256	1	26
417.427	1	27
417.597	1	41
417.768	1	32
417.939	1	31
418.109	1	34
418.280	1	34
418.450	1	33
418.621	1	31
418.792	1	36
418.962	1	32
419.133	1	24
419.304	1	30
419.474	1	29
419.645	1	29
419.815	1	26
419.986	1	51
420.157	1	15
420.327	1	41
420.498	1	36
420.669	1	29
420.839	1	24
421.010	1	31
421.180	1	20
421.351	1	39
421.522	1	28
421.692	1	33
421.863	1	34
422.033	1	26
422.204	1	41
422.375	1	27
422.545	1	35
422.716	1	23
422.886	1	31
423.057	1	32
423.228	1	21
423.398	1	42
423.569	1	34
423.740	1	37
423.910	1	36
424.081	1	29
424.251	1	26
424.422	1	35
424.593	1	35
424.763	1	48
424.934	1	39
425.104	1	21
425.275	1	41
425.445	1	21
425.616	1	26
425.787	1	41
425.957	1	34
426.128	1	23
426.298	1	41
426.469	1	34
426.640	1	30
426.810	1	46
426.981	1	41
427.151	1	32
427.322	1	40
427.493	1	35
427.663	1	44
427.834	1	32
428.004	1	22
428.175	1	40
428.345	1	34
428.516	1	41
428.687	1	47
428.857	1	26
429.028	1	33
429.198	1	42
429.369	1	33
429.540	1	26
429.710	1	38
429.881	1	25
430.051	1	30
430.222	1	39
430.392	1	30
430.563	1	39
430.734	1	36
430.904	1	29
431.075	1	40
431.245	1	34
431.416	1	36
431.586	1	23
431.757	1	34
431.927	1	44
432.098	1	26
432.269	1	33
432.439	1	44
432.610	1	49
432.780	1	26
432.951	1	34
433.121	1	35
433.292	1	33
433.462	1	24
433.633	1	25
433.804	1	32
433.974	1	27
434.145	1	32
434.315	1	25
434.486	1	39
434.656	1	49
434.827	1	23
434.997	1	28
435.168	1	37
435.339	1	22
435.509	1	28
435.680	1	35
435.850	1	26
436.021	1	42
436.191	1	27
436.362	1	33
436.532	1	38
436.703	1	23
436.873	1	30
437.044	1	26
437.214	1	12
437.385	1	39
437.556	1	33
437.726	1	33
437.897	1	36
438.067	1	20
438.238	1	34
438.408	1	34
438.579	1	22
438.749	1	27
438.920	1	30
439.090	1	30
439.261	1	44
439.431	1	23
439.602	1	33
439.772	1	35
439.943	1	22
440.113	1	46
440.284	1	32
440.455	1	25
440.625	1	48
440.796	1	34
440.966	1	20
441.137	1	30
441.307	1	38
441.478	1	26
441.648	1	27
441.819	1	23
441.989	1	28
442.160	1	19
442.330	1	21
442.501	1	21
442.671	1	26
442.842	1	27
443.012	1	24
443.183	1	35
443.353	1	32
443.524	1	25
443.694	1	36
443.865	1	31
444.035	1	32
444.206	1	34
444.376	1	20
444.547	1	35
444.717	1	19
444.888	1	26
445.058	1	20
445.229	1	17
445.399	1	22
445.570	1	15
445.740	1	26
445.911	1	31
446.081	1	34
446.252	1	23
446.422	1	22
446.593	1	15
446.763	1	22
446.934	1	26
447.104	1	27
447.275	1	23
447.445	1	33
447.616	1	29
447.786	1	31
447.957	1	32
448.127	1	23
448.298	1	31
448.468	1	20
448.639	1	26
448.809	1	36
448.979	1	19
449.150	1	21
449.320	1	29
449.491	1	22
449.661	1	35
449.832	1	33
450.002	1	23
450.173	1	19
450.343	1	28
450.514	1	32
450.684	1	26
450.855	1	24
451.025	1	29
451.196	1	16
451.366	1	25
451.537	1	30
451.707	1	27
451.878	1	18
452.048	1	22
452.218	1	26
452.389	1	23
452.559	1	16
452.730	1	30
452.900	1	26
453.071	1	20
453.241	1	28
453.412	1	21
453.582	1	30
453.753	1	13
453.923	1	23
454.093	1	31
454.264	1	31
454.434	1	22
454.605	1	25
454.775	1	20
454.946	1	35
455.116	1	25
455.287	1	11
455.457	1	12
455.628	1	17
455.798	1	26
455.968	1	28
456.139	1	19
456.309	1	19
456.480	1	28
456.650	1	31
456.821	1	28
456.991	1	25
457.161	1	23
457.332	1	16
457.502	1	14
457.673	1	17
457.843	1	25
458.014	1	13
458.184	1	17
458.355	1	19
458.525	1	27
458.695	1	20
458.866	1	20
459.036	1	29
459.207	1	23
459.377	1	24
459.548	1	24
459.718	1	15
459.888	1	32
460.059	1	18
460.229	1	21
460.400	1	23
460.570	1	23
460.740	1	16
460.911	1	23
461.081	1	13
461.252	1	27
461.422	1	20
461.593	1	4
461.763	1	19
461.933	1	16
462.104	1	27
462.274	1	34
462.445	1	18
462.615	1	20
462.785	1	26
462.956	1	18
463.126	1	7
463.297	1	29
463.467	1	26
463.638	1	14
463.808	1	16
463.978	1	14
464.149	1	20
464.319	1	17
464.490	1	21
464.660	1	17
464.830	1	9
465.001	1	29
465.171	1	11
465.342	1	17
465.512	1	20
465.682	1	20
465.853	1	26
466.023	1	31
466.194	1	16
466.364	1	29
466.534	1	28
466.705	1	19
466.875	1	15
467.045	1	19
467.216	1	22
467.386	1	20
467.557	1	17
467.727	1	12
467.897	1	13
468.068	1	28
468.238	1	15
468.409	1	12
468.579	1	16
468.749	1	15
468.920	1	16
469.090	1	23
469.260	1	13
469.431	1	16
469.601	1	17
469.772	1	10
469.942	1	23
470.112	1	25
470.283	1	23
470.453	1	14
470.623	1	26
470.794	1	25
470.964	1	3
471.135	1	8
471.305	1	18
471.475	1	26
471.646	1	13
471.816	1	9
471.986	1	24
472.157	1	9
472.327	1	2
472.497	1	8
472.668	1	16
472.838	1	14
473.009	1	31
473.179	1	16
473.349	1	11
473.520	1	18
473.690	1	19
473.860	1	22
474.031	1	20
474.201	1	21
474.371	1	17
474.542	1	22
474.712	1	14
474.882	1	16
475.053	1	19
475.223	1	15
475.394	1	13
475.564	1	13
475.734	1	17
475.905	1	10
476.075	1	4
476.245	1	27
476.416	1	10
476.586	1	20
476.756	1	23
476.927	1	24
477.097	1	19
477.267	1	13
477.438	1	1
477.608	1	15
477.778	1	20
477.949	1	12
478.119	1	19
478.289	1	28
478.460	1	19
478.630	1	14
478.800	1	8
478.971	1	19
479.141	1	12
479.311	1	10
479.482	1	12
479.652	1	11
479.822	1	11
479.993	1	5
480.163	1	6
480.333	1	22
480.504	1	16
480.674	1	20
480.844	1	16
481.015	1	16
481.185	1	17
481.355	1	9
481.525	1	17
481.696	1	25
481.866	1	10
482.036	1	6
482.207	1	9
482.377	1	16
482.547	1	11
482.718	1	17
482.888	1	12
483.058	1	9
483.229	1	10
483.399	1	23
483.569	1	16
483.740	1	12
483.910	1	3
484.080	1	5
484.250	1	20
484.421	1	11
484.591	1	12
484.761	1	19
484.932	1	16
485.102	1	18
485.272	1	9
485.443	1	20
485.613	1	0
485.783	1	11
485.953	1	7
486.124	1	3
486.294	1	17
486.464	1	23
486.635	1	17
486.805	1	3
486.975	1	12
487.146	1	3
487.316	1	12
487.486	1	17
487.656	1	18
487.827	1	14
487.997	1	14
488.167	1	16
488.338	1	-2
488.508	1	15
488.678	1	19
488.848	1	14
489.019	1	19
489.189	1	11
489.359	1	3
489.529	1	10
489.700	1	1
489.870	1	6
490.040	1	4
490.211	1	8
490.381	1	5
490.551	1	4
490.721	1	9
490.892	1	23
491.062	1	9
491.232	1	5
491.402	1	9
491.573	1	4
491.743	1	15
491.913	1	12
492.084	1	11
492.254	1	19
492.424	1	6
492.594	1	19
492.765	1	14
492.935	1	21
493.105	1	20
493.275	1	10
493.446	1	7
493.616	1	7
493.786	1	13
493.956	1	7
494.127	1	5
494.297	1	10
494.467	1	17
494.637	1	18
494.808	1	4
494.978	1	5
495.148	1	12
495.318	1	6
495.489	1	9
495.659	1	18
495.829	1	11
495.999	1	14
496.170	1	9
496.340	1	21
496.510	1	4
496.680	1	2
496.851	1	-2
497.021	1	3
497.191	1	9
497.361	1	9
497.532	1	7
497.702	1	10
497.872	1	2
498.042	1	10
498.213	1	6
498.383	1	9
498.553	1	6
498.723	1	1
498.894	1	18
499.064	1	13
499.234	1	1
499.404	1	14
499.574	1	13
499.745	1	7
499.915	1	3
500.085	1	7
500.255	1	16
500.426	1	4
500.596	1	7
500.766	1	5
500.936	1	9
501.106	1	12
501.277	1	16
501.447	1	7
501.617	1	0
501.787	1	12
501.958	1	12
502.128	1	14
502.298	1	12
502.468	1	4
502.638	1	14
502.809	1	7
502.979	1	9
503.149	1	10
503.319	1	5
503.489	1	5
503.660	1	13
503.830	1	7
504.000	1	9
504.170	1	3
504.340	1	9
504.511	1	13
504.681	1	16
504.851	1	16
505.021	1	5
505.192	1	17
505.362	1	2
505.532	1	3
505.702	1	5
505.872	1	18
506.043	1	6
506.213	1	12
506.383	1	16
506.553	1	4
506.723	1	9
506.893	1	9
507.064	1	3
507.234	1	8
507.404	1	4
507.574	1	8
507.744	1	11
507.915	1	4
508.085	1	-13
508.255	1	8
508.425	1	3
508.595	1	7
508.766	1	-4
508.936	1	18
509.106	1	1
509.276	1	0
509.446	1	9
509.616	1	11
509.787	1	11
509.957	1	5
510.127	1	7
510.297	1	14
510.467	1	2
510.638	1	5
510.808	1	1
510.978	1	8
511.148	1	29
511.318	1	6
511.488	1	9
511.659	1	16
511.829	1	-3
511.999	1	5
512.169	1	2
512.339	1	10
512.509	1	-5
512.680	1	-6
512.850	1	10
513.020	1	15
513.190	1	10
513.360	1	9
513.530	1	7
513.700	1	5
513.871	1	4
514.041	1	8
514.211	1	3
514.381	1	20
514.551	1	2
514.721	1	12
514.892	1	8
515.062	1	12
515.232	1	17
515.402	1	5
515.572	1	11
515.742	1	12
515.912	1	5
516.083	1	2
516.253	1	5
516.423	1	2
516.593	1	3
516.763	1	16
516.933	1	16
517.104	1	9
517.274	1	9
517.444	1	5
517.614	1	12
517.784	1	4
517.954	1	8
518.124	1	1
518.294	1	3
518.465	1	11
518.635	1	3
518.805	1	2
518.975	1	1
519.145	1	8
519.315	1	-4
519.485	1	9
519.656	1	4
519.826	1	6
519.996	1	11
520.166	1	3
520.336	1	7
520.506	1	12
520.676	1	16
520.846	1	3
521.017	1	10
521.187	1	10
521.357	1	6
521.527	1	10
521.697	1	6
521.867	1	3
522.037	1	7
522.207	1	12
522.377	1	4
522.548	1	10
522.718	1	7
522.888	1	21
523.058	1	5
523.228	1	2
523.398	1	11
523.568	1	8
523.738	1	5
523.909	1	12
524.079	1	6
524.249	1	10
524.419	1	1
524.589	1	8
524.759	1	9
524.929	1	2
525.099	1	-9
525.269	1	-6
525.439	1	11
525.610	1	-9
525.780	1	2
525.950	1	10
526.120	1	4
526.290	1	1
526.460	1	6
526.630	1	10
526.800	1	4
526.970	1	5
527.140	1	17
527.311	1	17
527.481	1	0
527.651	1	8
527.821	1	7
527.991	1	7
528.161	1	-2
528.331	1	7
528.501	1	6
528.671	1	12
528.841	1	16
529.011	1	1
529.181	1	16
529.352	1	12
529.522	1	8
529.692	1	5
529.862	1	0
530.032	1	11
530.202	1	9
530.372	1	4
530.542	1	2
530.712	1	20
530.882	1	7
531.052	1	8
531.222	1	-2
531.392	1	8
531.563	1	4
531.733	1	2
531.903	1	6
532.073	1	7
532.243	1	16
532.413	1	1
532.583	1	10
532.753	1	5
532.923	1	4
533.093	1	2
533.263	1	0
533.433	1	-3
533.603	1	0
533.773	1	4
533.943	1	4
534.113	1	14
534.284	1	0
534.454	1	9
534.624	1	5
534.794	1	10
534.964	1	-1
535.134	1	12
535.304	1	16
535.474	1	3
535.644	1	10
535.814	1	4
535.984	1	12
536.154	1	8
536.324	1	0
536.494	1	4
536.664	1	2
536.834	1	7
537.004	1	14
537.174	1	-4
537.344	1	13
537.514	1	6
537.685	1	5
537.855	1	9
538.025	1	11
538.195	1	7
538.365	1	8
538.535	1	-1
538.705	1	4
538.875	1	3
539.045	1	-1
539.215	1	5
539.385	1	-2
539.555	1	6
539.725	1	-5
539.895	1	4
540.065	1	0
540.235	1	0
540.405	1	0
540.575	1	11
540.745	1	5
540.915	1	5
541.085	1	2
541.255	1	14
541.425	1	0
541.595	1	14
541.765	1	16
541.935	1	3
542.105	1	6
542.275	1	2
542.445	1	5
542.615	1	-2
542.785	1	1
542.955	1	4
543.125	1	3
543.295	1	15
543.465	1	2
543.635	1	6
543.805	1	2
543.975	1	4
544.145	1	15
544.315	1	1
544.485	1	4
544.655	1	2
544.825	1	0
544.995	1	9
545.165	1	2
545.335	1	-5
545.505	1	4
545.675	1	-1
545.845	1	13
546.015	1	5
546.185	1	1
546.355	1	-8
546.525	1	-4
546.695	1	-2
546.865	1	6
547.035	1	3
547.205	1	17
547.375	1	11
547.545	1	-3
547.715	1	5
547.885	1	6
548.055	1	6
548.225	1	9
548.395	1	-3
548.565	1	7
548.735	1	5
548.905	1	6
549.075	1	9
549.245	1	10
549.415	1	2
549.585	1	-5
549.755	1	10
549.925	1	-1
550.095	1	6
550.265	1	11
550.435	1	0
550.605	1	6
550.775	1	10
550.945	1	9
551.115	1	1
551.285	1	-7
551.455	1	-3
551.625	1	-2
551.795	1	-6
551.965	1	6
552.135	1	6
552.305	1	10
552.475	1	6
552.645	1	3
552.815	1	11
552.985	1	-5
553.155	1	9
553.325	1	2
553.495	1	13
553.665	1	-8
553.835	1	4
554.004	1	17
554.174	1	4
554.344	1	4
554.514	1	5
554.684	1	5
554.854	1	-9
555.024	1	5
555.194	1	5
555.364	1	6
555.534	1	-5
555.704	1	0
555.874	1	3
556.044	1	6
556.214	1	2
556.384	1	8
556.554	1	2
556.724	1	6
556.894	1	-1
557.064	1	15
557.234	1	3
557.404	1	15
557.573	1	0
557.743	1	7
557.913	1	14
558.083	1	-5
558.253	1	1
558.423	1	-3
558.593	1	11
558.763	1	5
558.933	1	12
559.103	1	6
559.273	1	9
559.443	1	8
559.613	1	6
559.783	1	-6
559.953	1	-3
560.122	1	-3
560.292	1	13
560.462	1	2
560.632	1	-3
560.802	1	7
560.972	1	3
561.142	1	1
561.312	1	6
561.482	1	-1
561.652	1	0
561.822	1	1
561.992	1	0
562.162	1	7
562.331	1	3
562.501	1	5
562.671	1	8
562.841	1	-6
563.011	1	6
563.181	1	3
563.351	1	2
563.521	1	6
563.691	1	-1
563.861	1	16
564.031	1	1
564.201	1	14
564.370	1	-2
564.540	1	19
564.710	1	6
564.880	1	13
565.050	1	8
565.220	1	-10
565.390	1	0
565.560	1	11
565.730	1	3
565.900	1	6
566.069	1	13
566.239	1	0
566.409	1	-8
566.579	1	9
566.749	1	-1
566.919	1	-4
567.089	1	-4
567.259	1	1
567.429	1	8
567.599	1	13
567.768	1	8
567.938	1	3
568.108	1	9
568.278	1	9
568.448	1	0
568.618	1	-1
568.788	1	3
568.958	1	3
569.128	1	3
569.297	1	-1
569.467	1	-3
569.637	1	6
569.807	1	10
569.977	1	4
570.147	1	2
570.317	1	-3
570.487	1	-6
570.656	1	-8
570.826	1	-1
570.996	1	2
571.166	1	11
571.336	1	-4
571.506	1	9
571.676	1	7
571.846	1	4
572.015	1	5
572.185	1	13
572.355	1	-6
572.525	1	-5
572.695	1	8
572.865	1	-14
573.035	1	13
573.205	1	4
573.374	1	5
573.544	1	-1
573.714	1	-9
573.884	1	-1
574.054	1	5
574.224	1	-1
574.394	1	-9
574.563	1	5
574.733	1	4
574.903	1	4
575.073	1	8
575.243	1	7
575.413	1	4
575.583	1	-2
575.752	1	0
575.922	1	-6
576.092	1	-11
576.262	1	-2
576.432	1	4
576.602	1	-10
576.772	1	1
576.941	1	1
577.111	1	-1
577.281	1	-1
577.451	1	2
577.621	1	6
577.791	1	0
577.960	1	10
578.130	1	0
578.300	1	-3
578.470	1	2
578.640	1	3
578.810	1	-4
578.979	1	4
579.149	1	0
579.319	1	4
579.489	1	-8
579.659	1	0
579.829	1	7
579.998	1	1
580.168	1	3
580.338	1	7
580.508	1	7
580.678	1	8
580.848	1	-1
581.017	1	13
581.187	1	2
581.357	1	3
581.527	1	-2
581.697	1	-6
581.867	1	-4
582.036	1	-1
582.206	1	2
582.376	1	7
582.546	1	-12
582.716	1	-8
582.885	1	-11
583.055	1	1
583.225	1	-2
583.395	1	18
583.565	1	1
583.735	1	7
583.904	1	0
584.074	1	-6
584.244	1	-8
584.414	1	6
584.584	1	4
584.753	1	13
584.923	1	-1
585.093	1	8
585.263	1	1
585.433	1	5
585.602	1	3
585.772	1	-12
585.942	1	5
586.112	1	1
586.282	1	2
586.451	1	9
586.621	1	9
586.791	1	-3
586.961	1	1
587.131	1	1
587.300	1	5
587.470	1	-7
587.640	1	7
587.810	1	8
587.980	1	-1
588.149	1	2
588.319	1	1
588.489	1	2
588.659	1	-2
588.829	1	7
588.998	1	10
589.168	1	10
589.338	1	6
589.508	1	14
589.677	1	8
589.847	1	3
590.017	1	-1
590.187	1	3
590.357	1	8
590.526	1	0
590.696	1	-6
590.866	1	5
591.036	1	6
591.205	1	9
591.375	1	-3
591.545	1	11
591.715	1	1
591.885	1	6
592.054	1	-2
592.224	1	-3
592.394	1	-2
592.564	1	5
592.733	1	-7
592.903	1	5
593.073	1	-3
593.243	1	3
593.412	1	5
593.582	1	11
593.752	1	0
593.922	1	-6
594.091	1	-1
594.261	1	4
594.431	1	11
594.601	1	-4
594.771	1	9
594.940	1	15
595.110	1	9
595.280	1	1
595.450	1	12
595.619	1	4
595.789	1	7
595.959	1	17
596.129	1	-3
596.298	1	7
596.468	1	-4
596.638	1	9
596.808	1	7
596.977	1	9
597.147	1	-8
597.317	1	3
597.487	1	8
597.656	1	6
597.826	1	1
597.996	1	8
598.166	1	8
598.335	1	10
598.505	1	8
598.675	1	7
598.844	1	2
599.014	1	11
599.184	1	5
599.354	1	12
599.523	1	11
599.693	1	12
599.863	1	11
600.033	1	1
600.202	1	8
600.372	1	-4
600.542	1	5
600.712	1	6
600.881	1	-10
601.051	1	3
601.221	1	3
601.390	1	-2
601.560	1	6
601.730	1	8
601.900	1	-1
602.069	1	2
602.239	1	9
602.409	1	-1
602.578	1	0
602.748	1	5
602.918	1	4
603.088	1	2
603.257	1	5
603.427	1	1
603.597	1	-2
603.767	1	0
603.936	1	2
604.106	1	9
604.276	1	17
604.445	1	8
604.615	1	7
604.785	1	3
604.954	1	11
605.124	1	-1
605.294	1	24
605.464	1	1
605.633	1	-2
605.803	1	11
605.973	1	12
606.142	1	6
606.312	1	-1
606.482	1	5
606.652	1	5
606.821	1	0
606.991	1	-1
607.161	1	5
607.330	1	-1
607.500	1	9
607.670	1	8
607.839	1	7
608.009	1	6
608.179	1	7
608.348	1	8
608.518	1	5
608.688	1	6
608.858	1	14
609.027	1	11
609.197	1	-12
609.367	1	17
609.536	1	10
609.706	1	12
609.876	1	13
610.045	1	4
610.215	1	3
610.385	1	-4
610.554	1	-5
610.724	1	-5
610.894	1	10
611.063	1	2
611.233	1	13
611.403	1	6
611.572	1	2
611.742	1	8
611.912	1	7
612.081	1	-7
612.251	1	9
612.421	1	6
612.590	1	10
612.760	1	9
612.930	1	0
613.099	1	4
613.269	1	11
613.439	1	4
613.608	1	-2
613.778	1	-4
613.948	1	5
614.117	1	15
614.287	1	7
614.457	1	-10
614.626	1	5
614.796	1	6
614.966	1	6
615.135	1	13
615.305	1	-2
615.475	1	6
615.644	1	0
615.814	1	-1
615.984	1	7
616.153	1	3
616.323	1	13
616.493	1	14
616.662	1	4
616.832	1	7
617.002	1	1
617.171	1	2
617.341	1	-4
617.511	1	-6
617.680	1	6
617.850	1	3
618.019	1	4
618.189	1	18
618.359	1	3
618.528	1	5
618.698	1	10
618.868	1	-3
619.037	1	14
619.207	1	13
619.377	1	2
619.546	1	-2
619.716	1	8
619.885	1	2
620.055	1	9
620.225	1	8
620.394	1	6
620.564	1	3
620.734	1	11
620.903	1	6
621.073	1	8
621.242	1	2
621.412	1	10
621.582	1	9
621.751	1	13
621.921	1	8
622.091	1	3
622.260	1	2
622.430	1	11
622.599	1	-3
622.769	1	14
622.939	1	9
623.108	1	3
623.278	1	10
623.448	1	15
623.617	1	7
623.787	1	8
623.956	1	11
624.126	1	9
624.296	1	1
624.465	1	4
624.635	1	4
624.804	1	-2
624.974	1	14
625.144	1	-2
625.313	1	2
625.483	1	21
625.652	1	10
625.822	1	-4
625.992	1	-1
626.161	1	11
626.331	1	18
626.501	1	5
626.670	1	8
626.840	1	13
627.009	1	9
627.179	1	7
627.348	1	11
627.518	1	11
627.688	1	6
627.857	1	19
628.027	1	-4
628.196	1	0
628.366	1	2
628.536	1	6
628.705	1	18
628.875	1	12
629.044	1	11
629.214	1	15
629.384	1	6
629.553	1	6
629.723	1	-3
629.892	1	15
630.062	1	12
630.232	1	14
630.401	1	15
630.571	1	6
630.740	1	14
630.910	1	18
631.079	1	-4
631.249	1	16
631.419	1	2
631.588	1	4
631.758	1	13
631.927	1	6
632.097	1	8
632.266	1	4
632.436	1	6
632.606	1	8
632.775	1	19
632.945	1	25
633.114	1	3
633.284	1	2
633.453	1	5
633.623	1	6
633.793	1	6
633.962	1	3
634.132	1	8
634.301	1	13
634.471	1	-1
634.640	1	8
634.810	1	8
634.979	1	9
635.149	1	11
635.319	1	14
635.488	1	16
635.658	1	6
635.827	1	7
635.997	1	8
636.166	1	13
636.336	1	2
636.505	1	8
636.675	1	18
636.845	1	3
637.014	1	5
637.184	1	3
637.353	1	10
637.523	1	9
637.692	1	17
637.862	1	18
638.031	1	15
638.201	1	10
638.370	1	7
638.540	1	7
638.710	1	22
638.879	1	8
639.049	1	16
639.218	1	7
639.388	1	7
639.557	1	15
639.727	1	14
639.896	1	-1
640.066	1	16
640.235	1	16
640.405	1	-1
640.574	1	6
640.744	1	28
640.914	1	13
641.083	1	11
641.253	1	17
641.422	1	0
641.592	1	2
641.761	1	13
641.931	1	9
642.100	1	-1
642.270	1	0
642.439	1	11
642.609	1	14
642.778	1	6
642.948	1	2
643.117	1	17
643.287	1	0
643.456	1	15
643.626	1	13
643.795	1	13
643.965	1	4
644.134	1	12
644.304	1	11
644.473	1	10
644.643	1	11
644.812	1	18
644.982	1	12
645.151	1	16
645.321	1	9
645.490	1	1
645.660	1	1
645.829	1	6
645.999	1	16
646.168	1	0
646.338	1	0
646.507	1	16
646.677	1	13
646.846	1	3
647.016	1	7
647.185	1	0
647.355	1	8
647.524	1	14
647.694	1	4
647.863	1	2
648.033	1	9
648.202	1	9
648.372	1	20
648.541	1	11
648.711	1	12
648.880	1	10
649.050	1	9
649.219	1	3
649.389	1	5
649.558	1	-3
649.728	1	-1
649.897	1	10
650.067	1	10
650.236	1	18
650.406	1	7
650.575	1	5
650.745	1	10
650.914	1	4
651.084	1	-5
651.253	1	16
651.423	1	17
651.592	1	13
651.762	1	8
651.931	1	10
652.101	1	5
652.270	1	14
652.440	1	10
652.609	1	0
652.778	1	3
652.948	1	17
653.117	1	4
653.287	1	18
653.456	1	15
653.626	1	4
653.795	1	16
653.965	1	6
654.134	1	10
654.304	1	5
654.473	1	7
654.643	1	11
654.812	1	6
654.982	1	7
655.151	1	2
655.320	1	2
655.490	1	14
655.659	1	2
655.829	1	15
655.998	1	2
656.168	1	7
656.337	1	7
656.507	1	-2
656.676	1	0
656.846	1	6
657.015	1	6
657.184	1	11
657.354	1	-4
657.523	1	2
657.693	1	10
657.862	1	4
658.032	1	14
658.201	1	9
658.371	1	5
658.540	1	3
658.709	1	1
658.879	1	-3
659.048	1	4
659.218	1	12
659.387	1	4
659.557	1	11
659.726	1	13
659.895	1	5
660.065	1	0
660.234	1	8
660.404	1	7
660.573	1	12
660.743	1	12
660.912	1	16
661.081	1	16
661.251	1	2
661.420	1	6
661.590	1	5
661.759	1	12
661.929	1	1
662.098	1	2
662.267	1	-3
662.437	1	8
662.606	1	22
662.776	1	4
662.945	1	2
663.115	1	17
663.284	1	14
663.453	1	-2
663.623	1	15
663.792	1	7
663.962	1	10
664.131	1	7
664.300	1	11
664.470	1	3
664.639	1	5
664.809	1	6
664.978	1	3
665.148	1	7
665.317	1	5
665.486	1	3
665.656	1	1
665.825	1	3
665.995	1	8
666.164	1	3
666.333	1	10
666.503	1	7
666.672	1	8
666.842	1	-3
667.011	1	9
667.180	1	9
667.350	1	7
667.519	1	8
667.689	1	4
667.858	1	5
668.027	1	12
668.197	1	13
668.366	1	9
668.536	1	10
668.705	1	7
668.874	1	14
669.044	1	7
669.213	1	0
669.382	1	3
669.552	1	10
669.721	1	17
669.891	1	9
670.060	1	15
670.229	1	7
670.399	1	10
670.568	1	6
670.738	1	-4
670.907	1	6
671.076	1	9
671.246	1	21
671.415	1	10
671.584	1	10
671.754	1	9
671.923	1	8
672.093	1	14
672.262	1	14
672.431	1	10
672.601	1	5
672.770	1	5
672.939	1	9
673.109	1	10
673.278	1	17
673.448	1	-2
673.617	1	-3
673.786	1	13
