325.333	1	9
325.504	1	5
325.675	1	4
325.846	1	7
326.017	1	21
326.188	1	18
326.359	1	5
326.531	1	4
326.702	1	23
326.873	1	7
327.044	1	1
327.215	1	18
327.386	1	11
327.557	1	11
327.728	1	3
327.899	1	14
328.070	1	16
328.241	1	12
328.412	1	17
328.583	1	10
328.754	1	11
328.926	1	8
329.097	1	4
329.268	1	0
329.439	1	15
329.610	1	17
329.781	1	4
329.952	1	22
330.123	1	23
330.294	1	-6
330.465	1	7
330.636	1	15
330.807	1	13
330.978	1	2
331.149	1	17
331.320	1	13
331.492	1	17
331.663	1	14
331.834	1	10
332.005	1	13
332.176	1	3
332.347	1	19
332.518	1	13
332.689	1	13
332.860	1	10
333.031	1	17
333.202	1	3
333.373	1	14
333.544	1	8
333.715	1	27
333.886	1	7
334.057	1	22
334.228	1	9
334.399	1	18
334.570	1	4
334.741	1	8
334.912	1	16
335.084	1	11
335.255	1	9
335.426	1	9
335.597	1	11
335.768	1	21
335.939	1	11
336.110	1	19
336.281	1	10
336.452	1	15
336.623	1	18
336.794	1	18
336.965	1	9
337.136	1	5
337.307	1	13
337.478	1	7
337.649	1	11
337.820	1	4
337.991	1	18
338.162	1	8
338.333	1	15
338.504	1	11
338.675	1	15
338.846	1	12
339.017	1	23
339.188	1	5
339.359	1	15
339.530	1	18
339.701	1	6
339.872	1	21
340.043	1	0
340.214	1	12
340.385	1	7
340.556	1	12
340.727	1	17
340.898	1	9
341.069	1	14
341.240	1	20
341.411	1	7
341.582	1	8
341.753	1	8
341.924	1	17
342.095	1	17
342.266	1	20
342.437	1	15
342.608	1	15
342.779	1	14
342.950	1	7
343.121	1	4
343.292	1	10
343.463	1	13
343.634	1	3
343.805	1	18
343.976	1	20
344.147	1	12
344.318	1	7
344.489	1	14
344.660	1	21
344.831	1	19
345.002	1	15
345.173	1	5
345.344	1	10
345.515	1	3
345.686	1	19
345.857	1	17
346.028	1	22
346.199	1	7
346.370	1	9
346.541	1	3
346.712	1	12
346.883	1	10
347.054	1	9
347.225	1	22
347.396	1	3
347.567	1	30
347.738	1	15
347.909	1	18
348.080	1	13
348.251	1	15
348.422	1	17
348.593	1	7
348.764	1	17
348.935	1	12
349.106	1	17
349.277	1	13
349.448	1	14
349.619	1	9
349.790	1	21
349.961	1	17
350.132	1	21
350.303	1	16
350.474	1	7
350.645	1	12
350.816	1	10
350.987	1	22
351.157	1	18
351.328	1	18
351.499	1	16
351.670	1	10
351.841	1	18
352.012	1	25
352.183	1	3
352.354	1	8
352.525	1	15
352.696	1	14
352.867	1	12
353.038	1	-1
353.209	1	15
353.380	1	14
353.551	1	13
353.722	1	14
353.893	1	9
354.064	1	6
354.235	1	9
354.406	1	14
354.576	1	13
354.747	1	13
354.918	1	18
355.089	1	20
355.260	1	26
355.431	1	19
355.602	1	12
355.773	1	16
355.944	1	2
356.115	1	18
356.286	1	21
356.457	1	12
356.628	1	13
356.799	1	13
356.970	1	29
357.141	1	16
357.311	1	18
357.482	1	16
357.653	1	15
357.824	1	13
357.995	1	12
358.166	1	9
358.337	1	9
358.508	1	16
358.679	1	20
358.850	1	9
359.021	1	12
359.192	1	15
359.363	1	19
359.533	1	6
359.704	1	23
359.875	1	23
360.046	1	18
360.217	1	13
360.388	1	13
360.559	1	11
360.730	1	8
360.901	1	6
361.072	1	12
361.243	1	9
361.414	1	13
361.584	1	5
361.755	1	18
361.926	1	17
362.097	1	8
362.268	1	13
362.439	1	11
362.610	1	16
362.781	1	10
362.952	1	23
363.123	1	16
363.293	1	17
363.464	1	18
363.635	1	21
363.806	1	4
363.977	1	16
364.148	1	14
364.319	1	13
364.490	1	14
364.661	1	19
364.832	1	7
365.002	1	16
365.173	1	10
365.344	1	22
365.515	1	0
365.686	1	11
365.857	1	12
366.028	1	13
366.199	1	13
366.370	1	16
366.540	1	13
366.711	1	16
366.882	1	1
367.053	1	13
367.224	1	7
367.395	1	9
367.566	1	3
367.737	1	9
367.908	1	20
368.078	1	18
368.249	1	21
368.420	1	16
368.591	1	22
368.762	1	11
368.933	1	9
369.104	1	26
369.274	1	6
369.445	1	11
369.616	1	20
369.787	1	28
369.958	1	10
370.129	1	6
370.300	1	15
370.471	1	13
370.641	1	14
370.812	1	11
370.983	1	8
371.154	1	8
371.325	1	15
371.496	1	15
371.667	1	16
371.837	1	14
372.008	1	4
372.179	1	10
372.350	1	5
372.521	1	24
372.692	1	8
372.863	1	15
373.033	1	16
373.204	1	11
373.375	1	14
373.546	1	29
373.717	1	15
373.888	1	10
374.059	1	28
374.229	1	10
374.400	1	3
374.571	1	14
374.742	1	12
374.913	1	13
375.084	1	17
375.254	1	12
375.425	1	13
375.596	1	8
375.767	1	15
375.938	1	19
376.109	1	20
376.279	1	5
376.450	1	13
376.621	1	13
376.792	1	10
376.963	1	12
377.134	1	18
377.304	1	14
377.475	1	13
377.646	1	14
377.817	1	3
377.988	1	11
378.159	1	22
378.329	1	22
378.500	1	15
378.671	1	14
378.842	1	10
379.013	1	13
379.184	1	8
379.354	1	14
379.525	1	16
379.696	1	21
379.867	1	15
380.038	1	22
380.209	1	15
380.379	1	14
380.550	1	20
380.721	1	8
380.892	1	16
381.063	1	21
381.233	1	20
381.404	1	19
381.575	1	22
381.746	1	24
381.917	1	29
382.087	1	28
382.258	1	29
382.429	1	14
382.600	1	22
382.771	1	13
382.941	1	18
383.112	1	21
383.283	1	35
383.454	1	7
383.625	1	4
383.795	1	19
383.966	1	0
384.137	1	17
384.308	1	11
384.479	1	12
384.649	1	17
384.820	1	30
384.991	1	12
385.162	1	17
385.333	1	15
385.503	1	18
385.674	1	2
385.845	1	17
386.016	1	17
386.187	1	25
386.357	1	18
386.528	1	15
386.699	1	16
386.870	1	13
387.041	1	22
387.211	1	8
387.382	1	10
387.553	1	20
387.724	1	26
387.894	1	27
388.065	1	19
388.236	1	15
388.407	1	15
388.578	1	2
388.748	1	8
388.919	1	14
389.090	1	26
389.261	1	15
389.431	1	13
389.602	1	24
389.773	1	26
389.944	1	32
390.114	1	27
390.285	1	11
390.456	1	11
390.627	1	19
390.798	1	18
390.968	1	23
391.139	1	12
391.310	1	24
391.481	1	20
391.651	1	32
391.822	1	24
391.993	1	15
392.164	1	22
392.334	1	15
392.505	1	28
392.676	1	25
392.847	1	28
393.017	1	24
393.188	1	27
393.359	1	19
393.530	1	22
393.700	1	20
393.871	1	13
394.042	1	24
394.213	1	17
394.383	1	12
394.554	1	28
394.725	1	27
394.896	1	23
395.066	1	17
395.237	1	22
395.408	1	20
395.579	1	14
395.749	1	27
395.920	1	19
396.091	1	24
396.262	1	17
396.432	1	26
396.603	1	22
396.774	1	18
396.945	1	28
397.115	1	19
397.286	1	14
397.457	1	15
397.627	1	14
397.798	1	21
397.969	1	27
398.140	1	27
398.310	1	27
398.481	1	18
398.652	1	12
398.823	1	27
398.993	1	24
399.164	1	24
399.335	1	20
399.505	1	17
399.676	1	23
399.847	1	26
400.018	1	36
400.188	1	22
400.359	1	12
400.530	1	34
400.700	1	23
400.871	1	24
401.042	1	33
401.213	1	22
401.383	1	35
401.554	1	36
401.725	1	15
401.895	1	28
402.066	1	34
402.237	1	21
402.408	1	34
402.578	1	17
402.749	1	25
402.920	1	29
403.090	1	18
403.261	1	41
403.432	1	35
403.603	1	22
403.773	1	40
403.944	1	31
404.115	1	24
404.285	1	24
404.456	1	27
404.627	1	20
404.797	1	23
404.968	1	31
405.139	1	28
405.310	1	34
405.480	1	32
405.651	1	29
405.822	1	27
405.992	1	21
406.163	1	42
406.334	1	33
406.504	1	28
406.675	1	37
406.846	1	33
407.016	1	30
407.187	1	24
407.358	1	39
407.528	1	25
407.699	1	25
407.870	1	34
408.041	1	28
408.211	1	34
408.382	1	33
408.553	1	26
408.723	1	38
408.894	1	22
409.065	1	22
409.235	1	33
409.406	1	25
409.577	1	22
409.747	1	26
409.918	1	19
410.089	1	31
410.259	1	25
410.430	1	33
410.601	1	25
410.771	1	37
410.942	1	31
411.113	1	30
411.283	1	39
411.454	1	38
411.625	1	35
411.795	1	21
411.966	1	39
412.137	1	28
412.307	1	30
412.478	1	38
412.649	1	33
412.819	1	46
412.990	1	34
413.161	1	36
413.331	1	40
413.502	1	33
413.672	1	38
413.843	1	29
414.014	1	38
414.184	1	33
414.355	1	36
414.526	1	29
414.696	1	24
414.867	1	29
415.038	1	29
415.208	1	27
415.379	1	42
415.550	1	37
415.720	1	21
415.891	1	47
416.062	1	35
416.232	1	24
416.403	1	55
416.573	1	40
416.744	1	32
416.915	1	39
417.085	1	38
417.256	1	27
417.427	1	36
417.597	1	40
417.768	1	51
417.939	1	32
418.109	1	26
418.280	1	24
418.450	1	27
418.621	1	24
418.792	1	29
418.962	1	12
419.133	1	32
419.304	1	32
419.474	1	34
419.645	1	33
419.815	1	26
419.986	1	35
420.157	1	42
420.327	1	27
420.498	1	36
420.669	1	31
420.839	1	26
421.010	1	35
421.180	1	31
421.351	1	51
421.522	1	22
421.692	1	35
421.863	1	32
422.033	1	20
422.204	1	37
422.375	1	31
422.545	1	24
422.716	1	26
422.886	1	23
423.057	1	33
423.228	1	31
423.398	1	31
423.569	1	29
423.740	1	43
423.910	1	41
424.081	1	34
424.251	1	28
424.422	1	25
424.593	1	27
424.763	1	39
424.934	1	28
425.104	1	17
425.275	1	39
425.445	1	28
425.616	1	28
425.787	1	39
425.957	1	26
426.128	1	24
426.298	1	39
426.469	1	29
426.640	1	15
426.810	1	42
426.981	1	35
427.151	1	32
427.322	1	27
427.493	1	33
427.663	1	43
427.834	1	25
428.004	1	19
428.175	1	47
428.345	1	30
428.516	1	38
428.687	1	47
428.857	1	37
429.028	1	37
429.198	1	37
429.369	1	38
429.540	1	25
429.710	1	35
429.881	1	17
430.051	1	22
430.222	1	39
430.392	1	33
430.563	1	30
430.734	1	35
430.904	1	29
431.075	1	24
431.245	1	28
431.416	1	39
431.586	1	22
431.757	1	31
431.927	1	42
432.098	1	22
432.269	1	25
432.439	1	41
432.610	1	37
432.780	1	23
432.951	1	45
433.121	1	19
433.292	1	18
433.462	1	21
433.633	1	23
433.804	1	24
433.974	1	23
434.145	1	35
434.315	1	16
434.486	1	35
434.656	1	36
434.827	1	16
434.997	1	23
435.168	1	39
435.339	1	29
435.509	1	17
435.680	1	37
435.850	1	31
436.021	1	34
436.191	1	43
436.362	1	28
436.532	1	19
436.703	1	32
436.873	1	29
437.044	1	14
437.214	1	29
437.385	1	34
437.556	1	24
437.726	1	32
437.897	1	34
438.067	1	25
438.238	1	27
438.408	1	37
438.579	1	36
438.749	1	23
438.920	1	33
439.090	1	31
439.261	1	37
439.431	1	35
439.602	1	21
439.772	1	36
439.943	1	26
440.113	1	33
440.284	1	26
440.455	1	27
440.625	1	53
440.796	1	36
440.966	1	17
441.137	1	22
441.307	1	40
441.478	1	19
441.648	1	30
441.819	1	29
441.989	1	30
442.160	1	27
442.330	1	28
442.501	1	20
442.671	1	24
442.842	1	33
443.012	1	32
443.183	1	24
443.353	1	37
443.524	1	29
443.694	1	31
443.865	1	33
444.035	1	31
444.206	1	28
444.376	1	24
444.547	1	41
444.717	1	17
444.888	1	20
445.058	1	35
445.229	1	16
445.399	1	23
445.570	1	23
445.740	1	23
445.911	1	37
446.081	1	44
446.252	1	26
446.422	1	26
446.593	1	26
446.763	1	19
446.934	1	26
447.104	1	33
447.275	1	17
447.445	1	36
447.616	1	32
447.786	1	25
447.957	1	27
448.127	1	34
448.298	1	24
448.468	1	21
448.639	1	25
448.809	1	23
448.979	1	15
449.150	1	27
449.320	1	16
449.491	1	37
449.661	1	43
449.832	1	24
450.002	1	34
450.173	1	27
450.343	1	24
450.514	1	24
450.684	1	26
450.855	1	31
451.025	1	19
451.196	1	21
451.366	1	28
451.537	1	20
451.707	1	29
451.878	1	17
452.048	1	31
452.218	1	36
452.389	1	33
452.559	1	31
452.730	1	23
452.900	1	33
453.071	1	23
453.241	1	30
453.412	1	32
453.582	1	26
453.753	1	18
453.923	1	30
454.093	1	37
454.264	1	17
454.434	1	25
454.605	1	38
454.775	1	23
454.946	1	38
455.116	1	26
455.287	1	21
455.457	1	36
455.628	1	22
455.798	1	25
455.968	1	30
456.139	1	20
456.309	1	19
456.480	1	17
456.650	1	30
456.821	1	23
456.991	1	30
457.161	1	26
457.332	1	23
457.502	1	30
457.673	1	22
457.843	1	18
458.014	1	23
458.184	1	20
458.355	1	12
458.525	1	24
458.695	1	16
458.866	1	20
459.036	1	15
459.207	1	21
459.377	1	25
459.548	1	21
459.718	1	16
459.888	1	34
460.059	1	25
460.229	1	19
460.400	1	21
460.570	1	17
460.740	1	18
460.911	1	26
461.081	1	21
461.252	1	30
461.422	1	23
461.593	1	12
461.763	1	28
461.933	1	18
462.104	1	33
462.274	1	24
462.445	1	25
462.615	1	21
462.785	1	16
462.956	1	18
463.126	1	15
463.297	1	19
463.467	1	28
463.638	1	14
463.808	1	11
463.978	1	18
464.149	1	22
464.319	1	17
464.490	1	22
464.660	1	14
464.830	1	11
465.001	1	25
465.171	1	15
465.342	1	27
465.512	1	19
465.682	1	19
465.853	1	22
466.023	1	24
466.194	1	26
466.364	1	21
466.534	1	22
466.705	1	20
466.875	1	22
467.045	1	3
467.216	1	14
467.386	1	23
467.557	1	7
467.727	1	25
467.897	1	8
468.068	1	29
468.238	1	28
468.409	1	17
468.579	1	14
468.749	1	14
468.920	1	8
469.090	1	15
469.260	1	14
469.431	1	17
469.601	1	9
469.772	1	12
469.942	1	28
470.112	1	25
470.283	1	23
470.453	1	20
470.623	1	16
470.794	1	20
470.964	1	14
471.135	1	15
471.305	1	20
471.475	1	12
471.646	1	15
471.816	1	25
471.986	1	20
472.157	1	12
472.327	1	13
472.497	1	10
472.668	1	1
472.838	1	19
473.009	1	26
473.179	1	12
473.349	1	9
473.520	1	17
473.690	1	12
473.860	1	18
474.031	1	17
474.201	1	19
474.371	1	19
474.542	1	22
474.712	1	12
474.882	1	21
475.053	1	25
475.223	1	18
475.394	1	22
475.564	1	5
475.734	1	12
475.905	1	23
476.075	1	17
476.245	1	16
476.416	1	5
476.586	1	18
476.756	1	19
476.927	1	22
477.097	1	8
477.267	1	18
477.438	1	2
477.608	1	21
477.778	1	20
477.949	1	4
478.119	1	18
478.289	1	16
478.460	1	21
478.630	1	5
478.800	1	14
478.971	1	30
479.141	1	-2
479.311	1	11
479.482	1	11
479.652	1	10
479.822	1	7
479.993	1	6
480.163	1	8
480.333	1	21
480.504	1	18
480.674	1	9
480.844	1	20
481.015	1	12
481.185	1	18
481.355	1	6
481.525	1	12
481.696	1	21
481.866	1	9
482.036	1	14
482.207	1	10
482.377	1	17
482.547	1	22
482.718	1	13
482.888	1	19
483.058	1	11
483.229	1	13
483.399	1	17
483.569	1	13
483.740	1	7
483.910	1	4
484.080	1	17
484.250	1	16
484.421	1	12
484.591	1	13
484.761	1	11
484.932	1	11
485.102	1	9
485.272	1	7
485.443	1	14
485.613	1	13
485.783	1	12
485.953	1	-1
486.124	1	3
486.294	1	11
486.464	1	9
486.635	1	15
486.805	1	-2
486.975	1	4
487.146	1	12
487.316	1	18
487.486	1	17
487.656	1	4
487.827	1	12
487.997	1	5
488.167	1	17
488.338	1	7
488.508	1	11
488.678	1	16
488.848	1	8
489.019	1	16
489.189	1	20
489.359	1	11
489.529	1	3
489.700	1	4
489.870	1	10
490.040	1	6
490.211	1	7
490.381	1	6
490.551	1	3
490.721	1	13
490.892	1	25
491.062	1	14
491.232	1	18
491.402	1	8
491.573	1	17
491.743	1	4
491.913	1	4
492.084	1	15
492.254	1	19
492.424	1	12
492.594	1	15
492.765	1	15
492.935	1	15
493.105	1	14
493.275	1	6
493.446	1	10
493.616	1	9
493.786	1	11
493.956	1	5
494.127	1	6
494.297	1	21
494.467	1	16
494.637	1	22
494.808	1	5
494.978	1	7
495.148	1	9
495.318	1	6
495.489	1	2
495.659	1	19
495.829	1	16
495.999	1	16
496.170	1	-1
496.340	1	20
496.510	1	9
496.680	1	12
496.851	1	10
497.021	1	6
497.191	1	3
497.361	1	14
497.532	1	3
497.702	1	10
497.872	1	11
498.042	1	17
498.213	1	7
498.383	1	19
498.553	1	-2
498.723	1	-2
498.894	1	15
499.064	1	17
499.234	1	8
499.404	1	13
499.574	1	2
499.745	1	17
499.915	1	-2
500.085	1	9
500.255	1	11
500.426	1	4
500.596	1	7
500.766	1	3
500.936	1	10
501.106	1	8
501.277	1	17
501.447	1	10
501.617	1	7
501.787	1	11
501.958	1	12
502.128	1	20
502.298	1	24
502.468	1	7
502.638	1	4
502.809	1	1
502.979	1	6
503.149	1	8
503.319	1	-2
503.489	1	11
503.660	1	0
503.830	1	7
504.000	1	7
504.170	1	9
504.340	1	13
504.511	1	13
504.681	1	9
504.851	1	22
505.021	1	3
505.192	1	-1
505.362	1	0
505.532	1	3
505.702	1	-4
505.872	1	11
506.043	1	14
506.213	1	13
506.383	1	19
506.553	1	4
506.723	1	7
506.893	1	5
507.064	1	4
507.234	1	2
507.404	1	9
507.574	1	10
507.744	1	13
507.915	1	-1
508.085	1	-3
508.255	1	6
508.425	1	8
508.595	1	-8
508.766	1	-3
508.936	1	14
509.106	1	1
509.276	1	3
509.446	1	8
509.616	1	6
509.787	1	12
509.957	1	5
510.127	1	7
510.297	1	14
510.467	1	5
510.638	1	9
510.808	1	-2
510.978	1	13
511.148	1	18
511.318	1	10
511.488	1	13
511.659	1	4
511.829	1	7
511.999	1	1
512.169	1	0
512.339	1	5
512.509	1	2
512.680	1	4
512.850	1	10
513.020	1	18
513.190	1	1
513.360	1	0
513.530	1	12
513.700	1	7
513.871	1	2
514.041	1	5
514.211	1	4
514.381	1	16
514.551	1	5
514.721	1	6
514.892	1	18
515.062	1	19
515.232	1	13
515.402	1	14
515.572	1	9
515.742	1	22
515.912	1	3
516.083	1	6
516.253	1	14
516.423	1	-5
516.593	1	2
516.763	1	7
516.933	1	20
517.104	1	2
517.274	1	13
517.444	1	14
517.614	1	13
517.784	1	3
517.954	1	3
518.124	1	11
518.294	1	8
518.465	1	8
518.635	1	5
518.805	1	8
518.975	1	7
519.145	1	11
519.315	1	-2
519.485	1	9
519.656	1	3
519.826	1	-4
519.996	1	4
520.166	1	5
520.336	1	9
520.506	1	-2
520.676	1	12
520.846	1	3
521.017	1	4
521.187	1	11
521.357	1	8
521.527	1	6
521.697	1	-3
521.867	1	0
522.037	1	5
522.207	1	6
522.377	1	5
522.548	1	5
522.718	1	10
522.888	1	11
523.058	1	6
523.228	1	-1
523.398	1	12
523.568	1	1
523.738	1	6
523.909	1	17
524.079	1	3
524.249	1	-2
524.419	1	3
524.589	1	13
524.759	1	8
524.929	1	8
525.099	1	-10
525.269	1	8
525.439	1	8
525.610	1	4
525.780	1	3
525.950	1	14
526.120	1	9
526.290	1	4
526.460	1	4
526.630	1	7
526.800	1	4
526.970	1	9
527.140	1	14
527.311	1	9
527.481	1	3
527.651	1	8
527.821	1	11
527.991	1	3
528.161	1	-4
528.331	1	11
528.501	1	-2
528.671	1	17
528.841	1	17
529.011	1	11
529.181	1	6
529.352	1	9
529.522	1	10
529.692	1	1
529.862	1	4
530.032	1	5
530.202	1	13
530.372	1	6
530.542	1	12
530.712	1	22
530.882	1	20
531.052	1	0
531.222	1	1
531.392	1	9
531.563	1	7
531.733	1	0
531.903	1	7
532.073	1	5
532.243	1	10
532.413	1	-4
532.583	1	15
532.753	1	15
532.923	1	7
533.093	1	5
533.263	1	3
533.433	1	5
533.603	1	-1
533.773	1	6
533.943	1	4
534.113	1	14
534.284	1	2
534.454	1	7
534.624	1	12
534.794	1	3
534.964	1	0
535.134	1	9
535.304	1	13
535.474	1	6
535.644	1	5
535.814	1	3
535.984	1	7
536.154	1	8
536.324	1	2
536.494	1	0
536.664	1	14
536.834	1	10
537.004	1	2
537.174	1	2
537.344	1	3
537.514	1	-3
537.685	1	7
537.855	1	3
538.025	1	9
538.195	1	7
538.365	1	9
538.535	1	0
538.705	1	0
538.875	1	10
539.045	1	2
539.215	1	5
539.385	1	-2
539.555	1	0
539.725	1	8
539.895	1	8
540.065	1	0
540.235	1	2
540.405	1	1
540.575	1	8
540.745	1	11
540.915	1	2
541.085	1	0
541.255	1	8
541.425	1	4
541.595	1	8
541.765	1	9
541.935	1	0
542.105	1	4
542.275	1	11
542.445	1	15
542.615	1	7
542.785	1	4
542.955	1	5
543.125	1	6
543.295	1	10
543.465	1	-1
543.635	1	0
543.805	1	-4
543.975	1	-7
544.145	1	10
544.315	1	4
544.485	1	2
544.655	1	4
544.825	1	1
544.995	1	12
545.165	1	3
545.335	1	-3
545.505	1	-3
545.675	1	-8
545.845	1	5
546.015	1	7
546.185	1	2
546.355	1	0
546.525	1	3
546.695	1	2
546.865	1	6
547.035	1	3
547.205	1	10
547.375	1	9
547.545	1	-9
547.715	1	8
547.885	1	1
548.055	1	-7
548.225	1	11
548.395	1	-2
548.565	1	7
548.735	1	5
548.905	1	5
549.075	1	1
549.245	1	3
549.415	1	0
549.585	1	-3
549.755	1	7
549.925	1	-9
550.095	1	1
550.265	1	7
550.435	1	2
550.605	1	15
550.775	1	8
550.945	1	0
551.115	1	10
551.285	1	6
551.455	1	-4
551.625	1	1
551.795	1	-6
551.965	1	5
552.135	1	-3
552.305	1	6
552.475	1	3
552.645	1	8
552.815	1	10
552.985	1	-1
553.155	1	10
553.325	1	-9
553.495	1	0
553.665	1	1
553.835	1	1
554.004	1	17
554.174	1	2
554.344	1	5
554.514	1	7
554.684	1	3
554.854	1	2
555.024	1	2
555.194	1	3
555.364	1	5
555.534	1	-3
555.704	1	6
555.874	1	7
556.044	1	3
556.214	1	4
556.384	1	8
556.554	1	-1
556.724	1	-5
556.894	1	4
557.064	1	1
557.234	1	-2
557.404	1	7
557.573	1	1
557.743	1	4
557.913	1	9
558.083	1	-4
558.253	1	0
558.423	1	-6
558.593	1	-5
558.763	1	4
558.933	1	-2
559.103	1	16
559.273	1	5
559.443	1	5
559.613	1	-5
559.783	1	-8
559.953	1	9
560.122	1	1
560.292	1	14
560.462	1	2
560.632	1	-2
560.802	1	6
560.972	1	-7
561.142	1	8
561.312	1	-1
561.482	1	1
561.652	1	3
561.822	1	0
561.992	1	6
562.162	1	4
562.331	1	8
562.501	1	2
562.671	1	5
562.841	1	-7
563.011	1	4
563.181	1	5
563.351	1	4
563.521	1	7
563.691	1	7
563.861	1	3
564.031	1	5
564.201	1	15
564.370	1	3
564.540	1	7
564.710	1	5
564.880	1	4
565.050	1	8
565.220	1	0
565.390	1	-2
565.560	1	14
565.730	1	13
565.900	1	8
566.069	1	4
566.239	1	9
566.409	1	-12
566.579	1	1
566.749	1	-2
566.919	1	1
567.089	1	12
567.259	1	6
567.429	1	-6
567.599	1	-1
567.768	1	1
567.938	1	4
568.108	1	6
568.278	1	4
568.448	1	7
568.618	1	4
568.788	1	11
568.958	1	-3
569.128	1	5
569.297	1	-10
569.467	1	-10
569.637	1	3
569.807	1	6
569.977	1	0
570.147	1	-2
570.317	1	8
570.487	1	0
570.656	1	1
570.826	1	-3
570.996	1	-4
571.166	1	2
571.336	1	1
571.506	1	5
571.676	1	4
571.846	1	9
572.015	1	-1
572.185	1	2
572.355	1	-1
572.525	1	-4
572.695	1	8
572.865	1	-14
573.035	1	19
573.205	1	4
573.374	1	4
573.544	1	11
573.714	1	-8
573.884	1	1
574.054	1	-1
574.224	1	12
574.394	1	2
574.563	1	4
574.733	1	3
574.903	1	1
575.073	1	1
575.243	1	10
575.413	1	1
575.583	1	10
575.752	1	3
575.922	1	2
576.092	1	-6
576.262	1	-5
576.432	1	5
576.602	1	-4
576.772	1	12
576.941	1	10
577.111	1	2
577.281	1	1
577.451	1	13
577.621	1	-4
577.791	1	-10
577.960	1	-4
578.130	1	-4
578.300	1	-4
578.470	1	1
578.640	1	9
578.810	1	2
578.979	1	1
579.149	1	2
579.319	1	-2
579.489	1	-9
579.659	1	2
579.829	1	4
579.998	1	-3
580.168	1	5
580.338	1	1
580.508	1	13
580.678	1	4
580.848	1	8
581.017	1	9
581.187	1	8
581.357	1	-2
581.527	1	2
581.697	1	6
581.867	1	1
582.036	1	2
582.206	1	8
582.376	1	2
582.546	1	-12
582.716	1	0
582.885	1	-7
583.055	1	8
583.225	1	-4
583.395	1	9
583.565	1	9
583.735	1	10
583.904	1	2
584.074	1	-12
584.244	1	-9
584.414	1	5
584.584	1	5
584.753	1	10
584.923	1	4
585.093	1	-2
585.263	1	6
585.433	1	-6
585.602	1	-5
585.772	1	1
585.942	1	2
586.112	1	2
586.282	1	-2
586.451	1	14
586.621	1	5
586.791	1	4
586.961	1	2
587.131	1	2
587.300	1	2
587.470	1	-1
587.640	1	6
587.810	1	12
587.980	1	-1
588.149	1	0
588.319	1	9
588.489	1	6
588.659	1	7
588.829	1	5
588.998	1	5
589.168	1	13
589.338	1	6
589.508	1	-3
589.677	1	7
589.847	1	6
590.017	1	-2
590.187	1	10
590.357	1	1
590.526	1	2
590.696	1	0
590.866	1	-2
591.036	1	2
591.205	1	15
591.375	1	1
591.545	1	9
591.715	1	-7
591.885	1	3
592.054	1	1
592.224	1	4
592.394	1	7
592.564	1	3
592.733	1	-12
592.903	1	3
593.073	1	5
593.243	1	13
593.412	1	-3
593.582	1	9
593.752	1	-7
593.922	1	-4
594.091	1	-4
594.261	1	-4
594.431	1	16
594.601	1	2
594.771	1	11
594.940	1	4
595.110	1	5
595.280	1	-1
595.450	1	8
595.619	1	7
595.789	1	3
595.959	1	-1
596.129	1	2
596.298	1	15
596.468	1	0
596.638	1	8
596.808	1	6
596.977	1	1
597.147	1	-3
597.317	1	-4
597.487	1	7
597.656	1	12
597.826	1	7
597.996	1	12
598.166	1	14
598.335	1	4
598.505	1	-3
598.675	1	-8
598.844	1	0
599.014	1	12
599.184	1	5
599.354	1	16
599.523	1	0
599.693	1	13
599.863	1	12
600.033	1	2
600.202	1	12
600.372	1	-2
600.542	1	7
600.712	1	1
600.881	1	-6
601.051	1	0
601.221	1	8
601.390	1	-11
601.560	1	1
601.730	1	15
601.900	1	6
602.069	1	9
602.239	1	4
602.409	1	11
602.578	1	-1
602.748	1	1
602.918	1	3
603.088	1	4
603.257	1	8
603.427	1	0
603.597	1	6
603.767	1	8
603.936	1	-4
604.106	1	6
604.276	1	12
604.445	1	1
604.615	1	3
604.785	1	8
604.954	1	14
605.124	1	-5
605.294	1	3
605.464	1	0
605.633	1	10
605.803	1	7
605.973	1	9
606.142	1	4
606.312	1	-1
606.482	1	8
606.652	1	6
606.821	1	1
606.991	1	8
607.161	1	-2
607.330	1	1
607.500	1	12
607.670	1	8
607.839	1	12
608.009	1	9
608.179	1	-3
608.348	1	1
608.518	1	7
608.688	1	4
608.858	1	2
609.027	1	-3
609.197	1	-9
609.367	1	15
609.536	1	13
609.706	1	2
609.876	1	15
610.045	1	7
610.215	1	-3
610.385	1	-2
610.554	1	1
610.724	1	-5
610.894	1	7
611.063	1	-1
611.233	1	9
611.403	1	3
611.572	1	10
611.742	1	15
611.912	1	13
612.081	1	-3
612.251	1	5
612.421	1	16
612.590	1	-2
612.760	1	8
612.930	1	-3
613.099	1	7
613.269	1	10
613.439	1	8
613.608	1	7
613.778	1	2
613.948	1	-5
614.117	1	9
614.287	1	9
614.457	1	-1
614.626	1	9
614.796	1	0
614.966	1	12
615.135	1	17
615.305	1	16
615.475	1	12
615.644	1	10
615.814	1	0
615.984	1	7
616.153	1	4
616.323	1	5
616.493	1	15
616.662	1	16
616.832	1	3
617.002	1	2
617.171	1	-4
617.341	1	2
617.511	1	9
617.680	1	8
617.850	1	4
618.019	1	0
618.189	1	7
618.359	1	-3
618.528	1	-1
618.698	1	16
618.868	1	1
619.037	1	14
619.207	1	7
619.377	1	4
619.546	1	-2
619.716	1	2
619.885	1	-2
620.055	1	11
620.225	1	21
620.394	1	7
620.564	1	10
620.734	1	9
620.903	1	4
621.073	1	9
621.242	1	0
621.412	1	1
621.582	1	9
621.751	1	17
621.921	1	3
622.091	1	6
622.260	1	12
622.430	1	11
622.599	1	-5
622.769	1	9
622.939	1	17
623.108	1	13
623.278	1	15
623.448	1	10
623.617	1	8
623.787	1	7
623.956	1	5
624.126	1	14
624.296	1	-1
624.465	1	10
624.635	1	7
624.804	1	2
624.974	1	13
625.144	1	11
625.313	1	3
625.483	1	14
625.652	1	11
625.822	1	11
625.992	1	0
626.161	1	14
626.331	1	10
626.501	1	0
626.670	1	5
626.840	1	7
627.009	1	7
627.179	1	12
627.348	1	9
627.518	1	14
627.688	1	12
627.857	1	13
628.027	1	-5
628.196	1	8
628.366	1	5
628.536	1	1
628.705	1	6
628.875	1	12
629.044	1	9
629.214	1	7
629.384	1	9
629.553	1	8
629.723	1	0
629.892	1	20
630.062	1	3
630.232	1	-3
630.401	1	15
630.571	1	13
630.740	1	12
630.910	1	7
631.079	1	16
631.249	1	14
631.419	1	-1
631.588	1	-3
631.758	1	9
631.927	1	13
632.097	1	10
632.266	1	7
632.436	1	9
632.606	1	1
632.775	1	13
632.945	1	15
633.114	1	-2
633.284	1	1
633.453	1	7
633.623	1	7
633.793	1	0
633.962	1	3
634.132	1	11
634.301	1	6
634.471	1	1
634.640	1	5
634.810	1	7
634.979	1	6
635.149	1	8
635.319	1	16
635.488	1	19
635.658	1	11
635.827	1	8
635.997	1	6
636.166	1	5
636.336	1	5
636.505	1	7
636.675	1	14
636.845	1	7
637.014	1	-3
637.184	1	5
637.353	1	4
637.523	1	22
637.692	1	15
637.862	1	17
638.031	1	13
638.201	1	10
638.370	1	5
638.540	1	9
638.710	1	5
638.879	1	4
639.049	1	9
639.218	1	8
639.388	1	9
639.557	1	13
639.727	1	11
639.896	1	11
640.066	1	16
640.235	1	4
640.405	1	11
640.574	1	5
640.744	1	12
640.914	1	8
641.083	1	10
641.253	1	29
641.422	1	10
641.592	1	8
641.761	1	7
641.931	1	4
642.100	1	7
642.270	1	6
642.439	1	7
642.609	1	7
642.778	1	3
642.948	1	10
643.117	1	7
643.287	1	13
643.456	1	11
643.626	1	15
643.795	1	11
643.965	1	12
644.134	1	6
644.304	1	10
644.473	1	12
644.643	1	8
644.812	1	7
644.982	1	8
645.151	1	28
645.321	1	11
645.490	1	-1
645.660	1	6
645.829	1	6
645.999	1	5
646.168	1	4
646.338	1	4
646.507	1	10
646.677	1	13
646.846	1	3
647.016	1	15
647.185	1	6
647.355	1	6
647.524	1	15
647.694	1	12
647.863	1	-1
648.033	1	1
648.202	1	15
648.372	1	15
648.541	1	15
648.711	1	14
648.880	1	13
649.050	1	6
649.219	1	6
649.389	1	10
649.558	1	7
649.728	1	1
649.897	1	14
650.067	1	7
650.236	1	16
650.406	1	5
650.575	1	16
650.745	1	8
650.914	1	12
651.084	1	6
651.253	1	22
651.423	1	10
651.592	1	7
651.762	1	13
651.931	1	9
652.101	1	5
652.270	1	11
652.440	1	-1
652.609	1	11
652.778	1	0
652.948	1	14
653.117	1	1
653.287	1	16
653.456	1	12
653.626	1	-7
653.795	1	20
653.965	1	5
654.134	1	21
654.304	1	7
654.473	1	7
654.643	1	4
654.812	1	6
654.982	1	6
655.151	1	1
655.320	1	8
655.490	1	17
655.659	1	2
655.829	1	18
655.998	1	2
656.168	1	2
656.337	1	15
656.507	1	5
656.676	1	5
656.846	1	0
657.015	1	5
657.184	1	4
657.354	1	15
657.523	1	3
657.693	1	12
657.862	1	5
658.032	1	-1
658.201	1	4
658.371	1	4
658.540	1	2
658.709	1	4
658.879	1	-3
659.048	1	7
659.218	1	8
659.387	1	6
659.557	1	9
659.726	1	3
659.895	1	-1
660.065	1	-3
660.234	1	3
660.404	1	14
660.573	1	20
660.743	1	21
660.912	1	10
661.081	1	15
661.251	1	16
661.420	1	9
661.590	1	-2
661.759	1	6
661.929	1	7
662.098	1	5
662.267	1	11
662.437	1	13
662.606	1	9
662.776	1	7
662.945	1	-5
663.115	1	13
663.284	1	9
663.453	1	2
663.623	1	14
663.792	1	9
663.962	1	5
664.131	1	8
664.300	1	16
664.470	1	17
664.639	1	-1
664.809	1	-1
664.978	1	2
665.148	1	4
665.317	1	0
665.486	1	18
665.656	1	0
665.825	1	8
665.995	1	5
666.164	1	10
666.333	1	6
666.503	1	9
666.672	1	13
666.842	1	9
667.011	1	10
667.180	1	17
667.350	1	13
667.519	1	11
667.689	1	6
667.858	1	7
668.027	1	23
668.197	1	4
668.366	1	4
668.536	1	3
668.705	1	13
668.874	1	5
669.044	1	10
669.213	1	6
669.382	1	9
669.552	1	12
669.721	1	14
669.891	1	15
670.060	1	20
670.229	1	0
670.399	1	11
670.568	1	7
670.738	1	-2
670.907	1	9
671.076	1	3
671.246	1	25
671.415	1	17
671.584	1	0
671.754	1	8
671.923	1	12
672.093	1	10
672.262	1	8
672.431	1	4
672.601	1	5
672.770	1	12
672.939	1	6
673.109	1	15
673.278	1	7
673.448	1	5
673.617	1	-3
673.786	1	8
