325.333	1	13
325.504	1	4
325.675	1	7
325.846	1	2
326.017	1	8
326.188	1	22
326.359	1	13
326.531	1	12
326.702	1	21
326.873	1	4
327.044	1	15
327.215	1	21
327.386	1	14
327.557	1	8
327.728	1	17
327.899	1	25
328.070	1	24
328.241	1	16
328.412	1	20
328.583	1	15
328.754	1	9
328.926	1	3
329.097	1	2
329.268	1	6
329.439	1	20
329.610	1	17
329.781	1	6
329.952	1	20
330.123	1	18
330.294	1	8
330.465	1	10
330.636	1	16
330.807	1	11
330.978	1	13
331.149	1	17
331.320	1	16
331.492	1	19
331.663	1	15
331.834	1	12
332.005	1	12
332.176	1	3
332.347	1	24
332.518	1	26
332.689	1	22
332.860	1	22
333.031	1	18
333.202	1	2
333.373	1	16
333.544	1	18
333.715	1	18
333.886	1	16
334.057	1	21
334.228	1	23
334.399	1	15
334.570	1	18
334.741	1	14
334.912	1	20
335.084	1	12
335.255	1	20
335.426	1	17
335.597	1	26
335.768	1	18
335.939	1	12
336.110	1	17
336.281	1	19
336.452	1	16
336.623	1	18
336.794	1	19
336.965	1	11
337.136	1	9
337.307	1	16
337.478	1	6
337.649	1	20
337.820	1	16
337.991	1	20
338.162	1	19
338.333	1	17
338.504	1	12
338.675	1	18
338.846	1	17
339.017	1	23
339.188	1	12
339.359	1	22
339.530	1	27
339.701	1	5
339.872	1	19
340.043	1	2
340.214	1	24
340.385	1	13
340.556	1	22
340.727	1	36
340.898	1	27
341.069	1	23
341.240	1	26
341.411	1	15
341.582	1	23
341.753	1	10
341.924	1	19
342.095	1	14
342.266	1	23
342.437	1	26
342.608	1	19
342.779	1	19
342.950	1	21
343.121	1	26
343.292	1	15
343.463	1	19
343.634	1	10
343.805	1	24
343.976	1	25
344.147	1	23
344.318	1	21
344.489	1	36
344.660	1	24
344.831	1	38
345.002	1	30
345.173	1	10
345.344	1	27
345.515	1	6
345.686	1	31
345.857	1	14
346.028	1	19
346.199	1	12
346.370	1	25
346.541	1	10
346.712	1	25
346.883	1	20
347.054	1	14
347.225	1	15
347.396	1	13
347.567	1	28
347.738	1	18
347.909	1	26
348.080	1	27
348.251	1	19
348.422	1	23
348.593	1	18
348.764	1	20
348.935	1	19
349.106	1	22
349.277	1	24
349.448	1	24
349.619	1	18
349.790	1	30
349.961	1	30
350.132	1	30
350.303	1	24
350.474	1	10
350.645	1	15
350.816	1	12
350.987	1	33
351.157	1	38
351.328	1	23
351.499	1	27
351.670	1	26
351.841	1	33
352.012	1	22
352.183	1	24
352.354	1	21
352.525	1	24
352.696	1	30
352.867	1	29
353.038	1	16
353.209	1	16
353.380	1	16
353.551	1	19
353.722	1	23
353.893	1	24
354.064	1	20
354.235	1	21
354.406	1	25
354.576	1	23
354.747	1	21
354.918	1	36
355.089	1	25
355.260	1	40
355.431	1	34
355.602	1	21
355.773	1	26
355.944	1	14
356.115	1	35
356.286	1	34
356.457	1	21
356.628	1	18
356.799	1	27
356.970	1	28
357.141	1	15
357.311	1	39
357.482	1	20
357.653	1	17
357.824	1	36
357.995	1	31
358.166	1	13
358.337	1	29
358.508	1	21
358.679	1	28
358.850	1	8
359.021	1	20
359.192	1	26
359.363	1	31
359.533	1	20
359.704	1	34
359.875	1	32
360.046	1	37
360.217	1	21
360.388	1	21
360.559	1	26
360.730	1	31
360.901	1	20
361.072	1	33
361.243	1	31
361.414	1	17
361.584	1	26
361.755	1	25
361.926	1	26
362.097	1	33
362.268	1	23
362.439	1	22
362.610	1	21
362.781	1	21
362.952	1	25
363.123	1	28
363.293	1	26
363.464	1	21
363.635	1	29
363.806	1	19
363.977	1	30
364.148	1	25
364.319	1	26
364.490	1	33
364.661	1	29
364.832	1	31
365.002	1	42
365.173	1	28
365.344	1	22
365.515	1	21
365.686	1	20
365.857	1	16
366.028	1	31
366.199	1	19
366.370	1	25
366.540	1	24
366.711	1	22
366.882	1	18
367.053	1	22
367.224	1	29
367.395	1	23
367.566	1	17
367.737	1	18
367.908	1	19
368.078	1	20
368.249	1	20
368.420	1	29
368.591	1	26
368.762	1	17
368.933	1	33
369.104	1	43
369.274	1	15
369.445	1	29
369.616	1	32
369.787	1	33
369.958	1	28
370.129	1	20
370.300	1	28
370.471	1	27
370.641	1	23
370.812	1	26
370.983	1	17
371.154	1	17
371.325	1	26
371.496	1	34
371.667	1	23
371.837	1	21
372.008	1	28
372.179	1	12
372.350	1	14
372.521	1	31
372.692	1	34
372.863	1	17
373.033	1	36
373.204	1	18
373.375	1	23
373.546	1	38
373.717	1	23
373.888	1	31
374.059	1	27
374.229	1	33
374.400	1	14
374.571	1	21
374.742	1	22
374.913	1	28
375.084	1	22
375.254	1	26
375.425	1	28
375.596	1	23
375.767	1	26
375.938	1	39
376.109	1	32
376.279	1	24
376.450	1	33
376.621	1	30
376.792	1	32
376.963	1	22
377.134	1	25
377.304	1	30
377.475	1	29
377.646	1	28
377.817	1	19
377.988	1	29
378.159	1	37
378.329	1	29
378.500	1	41
378.671	1	42
378.842	1	27
379.013	1	30
379.184	1	22
379.354	1	28
379.525	1	24
379.696	1	32
379.867	1	40
380.038	1	33
380.209	1	20
380.379	1	22
380.550	1	30
380.721	1	29
380.892	1	27
381.063	1	42
381.233	1	29
381.404	1	29
381.575	1	35
381.746	1	36
381.917	1	36
382.087	1	35
382.258	1	37
382.429	1	32
382.600	1	44
382.771	1	35
382.941	1	38
383.112	1	21
383.283	1	43
383.454	1	31
383.625	1	22
383.795	1	34
383.966	1	26
384.137	1	32
384.308	1	29
384.479	1	27
384.649	1	34
384.820	1	44
384.991	1	27
385.162	1	38
385.333	1	38
385.503	1	39
385.674	1	29
385.845	1	45
386.016	1	36
386.187	1	45
386.357	1	37
386.528	1	27
386.699	1	42
386.870	1	33
387.041	1	50
387.211	1	27
387.382	1	35
387.553	1	34
387.724	1	47
387.894	1	36
388.065	1	44
388.236	1	39
388.407	1	39
388.578	1	35
388.748	1	43
388.919	1	37
389.090	1	47
389.261	1	43
389.431	1	31
389.602	1	46
389.773	1	52
389.944	1	46
390.114	1	46
390.285	1	34
390.456	1	24
390.627	1	49
390.798	1	40
390.968	1	54
391.139	1	35
391.310	1	40
391.481	1	41
391.651	1	47
391.822	1	40
391.993	1	45
392.164	1	37
392.334	1	31
392.505	1	50
392.676	1	54
392.847	1	44
393.017	1	48
393.188	1	52
393.359	1	33
393.530	1	42
393.700	1	33
393.871	1	45
394.042	1	39
394.213	1	41
394.383	1	34
394.554	1	52
394.725	1	47
394.896	1	39
395.066	1	44
395.237	1	46
395.408	1	38
395.579	1	30
395.749	1	45
395.920	1	30
396.091	1	50
396.262	1	30
396.432	1	39
396.603	1	41
396.774	1	42
396.945	1	56
397.115	1	31
397.286	1	42
397.457	1	40
397.627	1	31
397.798	1	42
397.969	1	42
398.140	1	43
398.310	1	39
398.481	1	37
398.652	1	46
398.823	1	40
398.993	1	41
399.164	1	46
399.335	1	48
399.505	1	34
399.676	1	55
399.847	1	52
400.018	1	48
400.188	1	38
400.359	1	50
400.530	1	47
400.700	1	49
400.871	1	47
401.042	1	55
401.213	1	45
401.383	1	45
401.554	1	51
401.725	1	49
401.895	1	53
402.066	1	43
402.237	1	51
402.408	1	51
402.578	1	38
402.749	1	51
402.920	1	51
403.090	1	45
403.261	1	58
403.432	1	51
403.603	1	49
403.773	1	58
403.944	1	52
404.115	1	48
404.285	1	52
404.456	1	48
404.627	1	49
404.797	1	47
404.968	1	54
405.139	1	49
405.310	1	50
405.480	1	58
405.651	1	40
405.822	1	50
405.992	1	40
406.163	1	59
406.334	1	42
406.504	1	54
406.675	1	71
406.846	1	59
407.016	1	54
407.187	1	39
407.358	1	56
407.528	1	50
407.699	1	47
407.870	1	64
408.041	1	60
408.211	1	52
408.382	1	55
408.553	1	61
408.723	1	56
408.894	1	53
409.065	1	49
409.235	1	46
409.406	1	49
409.577	1	45
409.747	1	49
409.918	1	57
410.089	1	56
410.259	1	57
410.430	1	64
410.601	1	42
410.771	1	63
410.942	1	55
411.113	1	53
411.283	1	50
411.454	1	60
411.625	1	61
411.795	1	51
411.966	1	66
412.137	1	67
412.307	1	49
412.478	1	61
412.649	1	59
412.819	1	60
412.990	1	53
413.161	1	54
413.331	1	48
413.502	1	58
413.672	1	52
413.843	1	46
414.014	1	45
414.184	1	57
414.355	1	60
414.526	1	50
414.696	1	57
414.867	1	59
415.038	1	50
415.208	1	62
415.379	1	61
415.550	1	60
415.720	1	51
415.891	1	72
416.062	1	54
416.232	1	53
416.403	1	59
416.573	1	62
416.744	1	53
416.915	1	64
417.085	1	56
417.256	1	49
417.427	1	54
417.597	1	56
417.768	1	48
417.939	1	53
418.109	1	64
418.280	1	47
418.450	1	55
418.621	1	65
418.792	1	54
418.962	1	43
419.133	1	57
419.304	1	50
419.474	1	54
419.645	1	54
419.815	1	46
419.986	1	61
420.157	1	55
420.327	1	57
420.498	1	41
420.669	1	51
420.839	1	47
421.010	1	51
421.180	1	58
421.351	1	55
421.522	1	42
421.692	1	59
421.863	1	44
422.033	1	58
422.204	1	49
422.375	1	53
422.545	1	59
422.716	1	56
422.886	1	43
423.057	1	53
423.228	1	48
423.398	1	55
423.569	1	51
423.740	1	64
423.910	1	57
424.081	1	51
424.251	1	53
424.422	1	37
424.593	1	67
424.763	1	59
424.934	1	50
425.104	1	48
425.275	1	71
425.445	1	46
425.616	1	59
425.787	1	51
425.957	1	48
426.128	1	60
426.298	1	63
426.469	1	43
426.640	1	43
426.810	1	73
426.981	1	55
427.151	1	65
427.322	1	63
427.493	1	69
427.663	1	64
427.834	1	42
428.004	1	44
428.175	1	68
428.345	1	52
428.516	1	56
428.687	1	63
428.857	1	52
429.028	1	53
429.198	1	54
429.369	1	55
429.540	1	53
429.710	1	51
429.881	1	54
430.051	1	53
430.222	1	49
430.392	1	47
430.563	1	60
430.734	1	53
430.904	1	51
431.075	1	56
431.245	1	40
431.416	1	60
431.586	1	49
431.757	1	40
431.927	1	67
432.098	1	45
432.269	1	50
432.439	1	58
432.610	1	50
432.780	1	51
432.951	1	56
433.121	1	56
433.292	1	41
433.462	1	45
433.633	1	41
433.804	1	45
433.974	1	51
434.145	1	50
434.315	1	54
434.486	1	55
434.656	1	63
434.827	1	49
434.997	1	44
435.168	1	54
435.339	1	43
435.509	1	52
435.680	1	55
435.850	1	49
436.021	1	55
436.191	1	52
436.362	1	63
436.532	1	66
436.703	1	52
436.873	1	47
437.044	1	46
437.214	1	43
437.385	1	44
437.556	1	51
437.726	1	52
437.897	1	47
438.067	1	47
438.238	1	62
438.408	1	52
438.579	1	49
438.749	1	45
438.920	1	51
439.090	1	48
439.261	1	49
439.431	1	52
439.602	1	45
439.772	1	57
439.943	1	50
440.113	1	56
440.284	1	45
440.455	1	56
440.625	1	68
440.796	1	63
440.966	1	42
441.137	1	43
441.307	1	35
441.478	1	52
441.648	1	44
441.819	1	68
441.989	1	56
442.160	1	44
442.330	1	50
442.501	1	40
442.671	1	40
442.842	1	51
443.012	1	45
443.183	1	56
443.353	1	57
443.524	1	45
443.694	1	48
443.865	1	43
444.035	1	49
444.206	1	44
444.376	1	44
444.547	1	64
444.717	1	48
444.888	1	47
445.058	1	43
445.229	1	45
445.399	1	46
445.570	1	41
445.740	1	47
445.911	1	47
446.081	1	43
446.252	1	40
446.422	1	49
446.593	1	46
446.763	1	38
446.934	1	52
447.104	1	44
447.275	1	49
447.445	1	37
447.616	1	50
447.786	1	51
447.957	1	45
448.127	1	42
448.298	1	42
448.468	1	44
448.639	1	38
448.809	1	44
448.979	1	34
449.150	1	44
449.320	1	52
449.491	1	51
449.661	1	49
449.832	1	46
450.002	1	45
450.173	1	45
450.343	1	45
450.514	1	58
450.684	1	42
450.855	1	56
451.025	1	37
451.196	1	44
451.366	1	46
451.537	1	51
451.707	1	46
451.878	1	35
452.048	1	45
452.218	1	46
452.389	1	47
452.559	1	41
452.730	1	44
452.900	1	51
453.071	1	43
453.241	1	42
453.412	1	51
453.582	1	47
453.753	1	43
453.923	1	44
454.093	1	50
454.264	1	53
454.434	1	53
454.605	1	50
454.775	1	48
454.946	1	55
455.116	1	47
455.287	1	40
455.457	1	50
455.628	1	50
455.798	1	42
455.968	1	48
456.139	1	41
456.309	1	38
456.480	1	46
456.650	1	48
456.821	1	53
456.991	1	40
457.161	1	39
457.332	1	45
457.502	1	32
457.673	1	37
457.843	1	47
458.014	1	39
458.184	1	40
458.355	1	29
458.525	1	34
458.695	1	42
458.866	1	38
459.036	1	39
459.207	1	37
459.377	1	43
459.548	1	42
459.718	1	36
459.888	1	53
460.059	1	46
460.229	1	37
460.400	1	39
460.570	1	39
460.740	1	43
460.911	1	42
461.081	1	26
461.252	1	46
461.422	1	34
461.593	1	27
461.763	1	40
461.933	1	35
462.104	1	43
462.274	1	41
462.445	1	32
462.615	1	45
462.785	1	33
462.956	1	35
463.126	1	30
463.297	1	35
463.467	1	48
463.638	1	22
463.808	1	31
463.978	1	31
464.149	1	44
464.319	1	28
464.490	1	37
464.660	1	38
464.830	1	31
465.001	1	48
465.171	1	33
465.342	1	44
465.512	1	33
465.682	1	28
465.853	1	29
466.023	1	39
466.194	1	31
466.364	1	37
466.534	1	38
466.705	1	46
466.875	1	31
467.045	1	22
467.216	1	33
467.386	1	41
467.557	1	16
467.727	1	40
467.897	1	25
468.068	1	34
468.238	1	30
468.409	1	30
468.579	1	25
468.749	1	29
468.920	1	31
469.090	1	40
469.260	1	22
469.431	1	30
469.601	1	37
469.772	1	40
469.942	1	39
470.112	1	45
470.283	1	38
470.453	1	29
470.623	1	28
470.794	1	38
470.964	1	15
471.135	1	19
471.305	1	38
471.475	1	23
471.646	1	21
471.816	1	34
471.986	1	26
472.157	1	29
472.327	1	31
472.497	1	27
472.668	1	26
472.838	1	23
473.009	1	41
473.179	1	37
473.349	1	21
473.520	1	25
473.690	1	32
473.860	1	21
474.031	1	22
474.201	1	36
474.371	1	25
474.542	1	33
474.712	1	25
474.882	1	36
475.053	1	30
475.223	1	38
475.394	1	28
475.564	1	19
475.734	1	21
475.905	1	28
476.075	1	14
476.245	1	33
476.416	1	27
476.586	1	20
476.756	1	29
476.927	1	34
477.097	1	26
477.267	1	31
477.438	1	27
477.608	1	5
477.778	1	34
477.949	1	35
478.119	1	25
478.289	1	23
478.460	1	26
478.630	1	26
478.800	1	26
478.971	1	37
479.141	1	32
479.311	1	36
479.482	1	29
479.652	1	33
479.822	1	33
479.993	1	27
480.163	1	28
480.333	1	32
480.504	1	21
480.674	1	27
480.844	1	28
481.015	1	10
481.185	1	21
481.355	1	10
481.525	1	23
481.696	1	35
481.866	1	23
482.036	1	17
482.207	1	27
482.377	1	25
482.547	1	25
482.718	1	31
482.888	1	17
483.058	1	19
483.229	1	41
483.399	1	27
483.569	1	22
483.740	1	19
483.910	1	15
484.080	1	23
484.250	1	23
484.421	1	26
484.591	1	18
484.761	1	25
484.932	1	27
485.102	1	27
485.272	1	18
485.443	1	25
485.613	1	32
485.783	1	12
485.953	1	16
486.124	1	23
486.294	1	23
486.464	1	22
486.635	1	25
486.805	1	17
486.975	1	12
487.146	1	15
487.316	1	25
487.486	1	23
487.656	1	21
487.827	1	22
487.997	1	13
488.167	1	26
488.338	1	11
488.508	1	27
488.678	1	15
488.848	1	32
489.019	1	39
489.189	1	25
489.359	1	29
489.529	1	17
489.700	1	14
489.870	1	19
490.040	1	12
490.211	1	16
490.381	1	19
490.551	1	5
490.721	1	20
490.892	1	30
491.062	1	18
491.232	1	16
491.402	1	22
491.573	1	17
491.743	1	20
491.913	1	20
492.084	1	27
492.254	1	15
492.424	1	13
492.594	1	33
492.765	1	19
492.935	1	29
493.105	1	18
493.275	1	9
493.446	1	25
493.616	1	23
493.786	1	26
493.956	1	18
494.127	1	5
494.297	1	14
494.467	1	29
494.637	1	26
494.808	1	5
494.978	1	7
495.148	1	12
495.318	1	5
495.489	1	7
495.659	1	24
495.829	1	28
495.999	1	23
496.170	1	15
496.340	1	24
496.510	1	18
496.680	1	25
496.851	1	16
497.021	1	9
497.191	1	10
497.361	1	17
497.532	1	12
497.702	1	19
497.872	1	10
498.042	1	18
498.213	1	16
498.383	1	21
498.553	1	12
498.723	1	15
498.894	1	33
499.064	1	23
499.234	1	8
499.404	1	25
499.574	1	13
499.745	1	20
499.915	1	22
500.085	1	4
500.255	1	29
500.426	1	19
500.596	1	25
500.766	1	1
500.936	1	13
501.106	1	15
501.277	1	30
501.447	1	18
501.617	1	16
501.787	1	19
501.958	1	13
502.128	1	24
502.298	1	21
502.468	1	14
502.638	1	15
502.809	1	6
502.979	1	9
503.149	1	19
503.319	1	9
503.489	1	13
503.660	1	17
503.830	1	19
504.000	1	11
504.170	1	11
504.340	1	9
504.511	1	24
504.681	1	29
504.851	1	23
505.021	1	3
505.192	1	8
505.362	1	12
505.532	1	10
505.702	1	14
505.872	1	21
506.043	1	9
506.213	1	13
506.383	1	26
506.553	1	13
506.723	1	21
506.893	1	6
507.064	1	18
507.234	1	18
507.404	1	24
507.574	1	15
507.744	1	22
507.915	1	11
508.085	1	5
508.255	1	6
508.425	1	6
508.595	1	17
508.766	1	12
508.936	1	18
509.106	1	20
509.276	1	14
509.446	1	17
509.616	1	14
509.787	1	10
509.957	1	10
510.127	1	10
510.297	1	21
510.467	1	16
510.638	1	7
510.808	1	5
510.978	1	20
511.148	1	17
511.318	1	21
511.488	1	23
511.659	1	15
511.829	1	13
511.999	1	5
512.169	1	7
512.339	1	8
512.509	1	7
512.680	1	6
512.850	1	9
513.020	1	17
513.190	1	18
513.360	1	9
513.530	1	18
513.700	1	7
513.871	1	3
514.041	1	18
514.211	1	9
514.381	1	24
514.551	1	-6
514.721	1	8
514.892	1	13
515.062	1	28
515.232	1	22
515.402	1	23
515.572	1	13
515.742	1	17
515.912	1	6
516.083	1	12
516.253	1	13
516.423	1	2
516.593	1	7
516.763	1	22
516.933	1	12
517.104	1	4
517.274	1	10
517.444	1	13
517.614	1	7
517.784	1	11
517.954	1	10
518.124	1	14
518.294	1	14
518.465	1	9
518.635	1	22
518.805	1	14
518.975	1	12
519.145	1	12
519.315	1	14
519.485	1	13
519.656	1	10
519.826	1	7
519.996	1	18
520.166	1	11
520.336	1	2
520.506	1	0
520.676	1	15
520.846	1	5
521.017	1	11
521.187	1	7
521.357	1	12
521.527	1	6
521.697	1	1
521.867	1	6
522.037	1	12
522.207	1	15
522.377	1	5
522.548	1	9
522.718	1	18
522.888	1	23
523.058	1	15
523.228	1	3
523.398	1	19
523.568	1	4
523.738	1	3
523.909	1	17
524.079	1	1
524.249	1	9
524.419	1	17
524.589	1	16
524.759	1	17
524.929	1	3
525.099	1	4
525.269	1	-1
525.439	1	13
525.610	1	4
525.780	1	15
525.950	1	14
526.120	1	12
526.290	1	3
526.460	1	13
526.630	1	16
526.800	1	8
526.970	1	10
527.140	1	19
527.311	1	14
527.481	1	8
527.651	1	12
527.821	1	5
527.991	1	8
528.161	1	0
528.331	1	11
528.501	1	13
528.671	1	14
528.841	1	20
529.011	1	3
529.181	1	15
529.352	1	17
529.522	1	16
529.692	1	0
529.862	1	12
530.032	1	9
530.202	1	10
530.372	1	16
530.542	1	4
530.712	1	16
530.882	1	14
531.052	1	15
531.222	1	11
531.392	1	10
531.563	1	14
531.733	1	-3
531.903	1	11
532.073	1	3
532.243	1	11
532.413	1	-3
532.583	1	17
532.753	1	11
532.923	1	7
533.093	1	9
533.263	1	5
533.433	1	8
533.603	1	3
533.773	1	4
533.943	1	8
534.113	1	14
534.284	1	-1
534.454	1	12
534.624	1	20
534.794	1	18
534.964	1	8
535.134	1	16
535.304	1	22
535.474	1	8
535.644	1	7
535.814	1	1
535.984	1	6
536.154	1	8
536.324	1	5
536.494	1	11
536.664	1	17
536.834	1	16
537.004	1	12
537.174	1	3
537.344	1	4
537.514	1	6
537.685	1	12
537.855	1	10
538.025	1	8
538.195	1	8
538.365	1	10
538.535	1	3
538.705	1	-2
538.875	1	7
539.045	1	7
539.215	1	18
539.385	1	-4
539.555	1	13
539.725	1	8
539.895	1	21
540.065	1	10
540.235	1	8
540.405	1	7
540.575	1	12
540.745	1	8
540.915	1	7
541.085	1	7
541.255	1	16
541.425	1	6
541.595	1	12
541.765	1	14
541.935	1	4
542.105	1	1
542.275	1	4
542.445	1	1
542.615	1	8
542.785	1	0
542.955	1	7
543.125	1	3
543.295	1	18
543.465	1	9
543.635	1	9
543.805	1	2
543.975	1	-2
544.145	1	19
544.315	1	0
544.485	1	12
544.655	1	6
544.825	1	12
544.995	1	16
545.165	1	14
545.335	1	3
545.505	1	5
545.675	1	-2
545.845	1	8
546.015	1	9
546.185	1	5
546.355	1	6
546.525	1	-2
546.695	1	11
546.865	1	10
547.035	1	7
547.205	1	15
547.375	1	-7
547.545	1	-7
547.715	1	3
547.885	1	4
548.055	1	16
548.225	1	18
548.395	1	2
548.565	1	11
548.735	1	4
548.905	1	6
549.075	1	11
549.245	1	16
549.415	1	2
549.585	1	13
549.755	1	14
549.925	1	4
550.095	1	8
550.265	1	12
550.435	1	0
550.605	1	4
550.775	1	7
550.945	1	4
551.115	1	-4
551.285	1	9
551.455	1	6
551.625	1	2
551.795	1	-8
551.965	1	9
552.135	1	5
552.305	1	7
552.475	1	4
552.645	1	8
552.815	1	4
552.985	1	2
553.155	1	12
553.325	1	3
553.495	1	15
553.665	1	2
553.835	1	8
554.004	1	17
554.174	1	0
554.344	1	10
554.514	1	3
554.684	1	1
554.854	1	0
555.024	1	4
555.194	1	3
555.364	1	21
555.534	1	-3
555.704	1	6
555.874	1	9
556.044	1	15
556.214	1	9
556.384	1	6
556.554	1	7
556.724	1	10
556.894	1	3
557.064	1	6
557.234	1	7
557.404	1	5
557.573	1	7
557.743	1	8
557.913	1	18
558.083	1	9
558.253	1	9
558.423	1	8
558.593	1	7
558.763	1	6
558.933	1	1
559.103	1	11
559.273	1	6
559.443	1	6
559.613	1	3
559.783	1	0
559.953	1	10
560.122	1	2
560.292	1	18
560.462	1	8
560.632	1	1
560.802	1	11
560.972	1	0
561.142	1	10
561.312	1	5
561.482	1	-4
561.652	1	0
561.822	1	-1
561.992	1	4
562.162	1	17
562.331	1	11
562.501	1	7
562.671	1	16
562.841	1	4
563.011	1	6
563.181	1	12
563.351	1	9
563.521	1	16
563.691	1	4
563.861	1	16
564.031	1	10
564.201	1	14
564.370	1	-3
564.540	1	14
564.710	1	8
564.880	1	3
565.050	1	12
565.220	1	6
565.390	1	7
565.560	1	7
565.730	1	10
565.900	1	6
566.069	1	18
566.239	1	1
566.409	1	-4
566.579	1	13
566.749	1	0
566.919	1	-1
567.089	1	2
567.259	1	5
567.429	1	4
567.599	1	9
567.768	1	9
567.938	1	5
568.108	1	11
568.278	1	9
568.448	1	10
568.618	1	5
568.788	1	1
568.958	1	6
569.128	1	10
569.297	1	-2
569.467	1	-6
569.637	1	9
569.807	1	4
569.977	1	6
570.147	1	11
570.317	1	8
570.487	1	6
570.656	1	1
570.826	1	0
570.996	1	0
571.166	1	15
571.336	1	7
571.506	1	5
571.676	1	16
571.846	1	5
572.015	1	-4
572.185	1	8
572.355	1	3
572.525	1	-2
572.695	1	7
572.865	1	-4
573.035	1	12
573.205	1	4
573.374	1	11
573.544	1	-3
573.714	1	-1
573.884	1	2
574.054	1	5
574.224	1	-3
574.394	1	-7
574.563	1	6
574.733	1	1
574.903	1	18
575.073	1	11
575.243	1	8
575.413	1	-2
575.583	1	0
575.752	1	9
575.922	1	4
576.092	1	2
576.262	1	1
576.432	1	4
576.602	1	-3
576.772	1	1
576.941	1	8
577.111	1	9
577.281	1	6
577.451	1	6
577.621	1	10
577.791	1	7
577.960	1	5
578.130	1	9
578.300	1	-2
578.470	1	4
578.640	1	9
578.810	1	8
578.979	1	-5
579.149	1	5
579.319	1	0
579.489	1	-3
579.659	1	-10
579.829	1	11
579.998	1	3
580.168	1	0
580.338	1	12
580.508	1	18
580.678	1	9
580.848	1	2
581.017	1	10
581.187	1	9
581.357	1	3
581.527	1	8
581.697	1	5
581.867	1	10
582.036	1	-6
582.206	1	11
582.376	1	6
582.546	1	-7
582.716	1	3
582.885	1	-8
583.055	1	5
583.225	1	-1
583.395	1	10
583.565	1	10
583.735	1	8
583.904	1	16
584.074	1	0
584.244	1	0
584.414	1	-2
584.584	1	1
584.753	1	5
584.923	1	11
585.093	1	10
585.263	1	11
585.433	1	6
585.602	1	2
585.772	1	5
585.942	1	8
586.112	1	-5
586.282	1	5
586.451	1	13
586.621	1	7
586.791	1	9
586.961	1	1
587.131	1	3
587.300	1	0
587.470	1	-5
587.640	1	22
587.810	1	11
587.980	1	4
588.149	1	7
588.319	1	13
588.489	1	11
588.659	1	2
588.829	1	5
588.998	1	9
589.168	1	8
589.338	1	1
589.508	1	6
589.677	1	17
589.847	1	16
590.017	1	-7
590.187	1	8
590.357	1	1
590.526	1	2
590.696	1	1
590.866	1	15
591.036	1	9
591.205	1	10
591.375	1	4
591.545	1	0
591.715	1	3
591.885	1	4
592.054	1	6
592.224	1	7
592.394	1	-11
592.564	1	4
592.733	1	-9
592.903	1	6
593.073	1	10
593.243	1	11
593.412	1	10
593.582	1	7
593.752	1	2
593.922	1	5
594.091	1	5
594.261	1	10
594.431	1	13
594.601	1	-1
594.771	1	8
594.940	1	10
595.110	1	12
595.280	1	4
595.450	1	10
595.619	1	3
595.789	1	6
595.959	1	10
596.129	1	8
596.298	1	13
596.468	1	11
596.638	1	2
596.808	1	3
596.977	1	12
597.147	1	1
597.317	1	-4
597.487	1	15
597.656	1	6
597.826	1	15
597.996	1	11
598.166	1	16
598.335	1	7
598.505	1	15
598.675	1	9
598.844	1	-5
599.014	1	14
599.184	1	8
599.354	1	15
599.523	1	8
599.693	1	11
599.863	1	-4
600.033	1	-2
600.202	1	6
600.372	1	4
600.542	1	5
600.712	1	10
600.881	1	5
601.051	1	8
601.221	1	8
601.390	1	-6
601.560	1	3
601.730	1	8
601.900	1	16
602.069	1	7
602.239	1	-1
602.409	1	7
602.578	1	-4
602.748	1	13
602.918	1	3
603.088	1	7
603.257	1	7
603.427	1	1
603.597	1	7
603.767	1	6
603.936	1	2
604.106	1	10
604.276	1	8
604.445	1	14
604.615	1	5
604.785	1	10
604.954	1	19
605.124	1	2
605.294	1	4
605.464	1	1
605.633	1	2
605.803	1	4
605.973	1	13
606.142	1	9
606.312	1	11
606.482	1	5
606.652	1	4
606.821	1	9
606.991	1	5
607.161	1	-5
607.330	1	0
607.500	1	5
607.670	1	9
607.839	1	18
608.009	1	14
608.179	1	6
608.348	1	10
608.518	1	4
608.688	1	3
608.858	1	10
609.027	1	9
609.197	1	2
609.367	1	17
609.536	1	10
609.706	1	10
609.876	1	13
610.045	1	7
610.215	1	3
610.385	1	-3
610.554	1	-1
610.724	1	-4
610.894	1	9
611.063	1	0
611.233	1	12
611.403	1	-6
611.572	1	13
611.742	1	10
611.912	1	5
612.081	1	3
612.251	1	8
612.421	1	14
612.590	1	2
612.760	1	13
612.930	1	11
613.099	1	9
613.269	1	-2
613.439	1	6
613.608	1	10
613.778	1	-1
613.948	1	12
614.117	1	19
614.287	1	10
614.457	1	5
614.626	1	12
614.796	1	7
614.966	1	13
615.135	1	14
615.305	1	15
615.475	1	4
615.644	1	9
615.814	1	-4
615.984	1	6
616.153	1	7
616.323	1	5
616.493	1	18
616.662	1	11
616.832	1	10
617.002	1	9
617.171	1	8
617.341	1	4
617.511	1	9
617.680	1	15
617.850	1	9
618.019	1	4
618.189	1	17
618.359	1	5
618.528	1	10
618.698	1	5
618.868	1	1
619.037	1	9
619.207	1	8
619.377	1	4
619.546	1	1
619.716	1	9
619.885	1	12
620.055	1	9
620.225	1	14
620.394	1	8
620.564	1	20
620.734	1	16
620.903	1	10
621.073	1	-3
621.242	1	12
621.412	1	7
621.582	1	8
621.751	1	24
621.921	1	14
622.091	1	14
622.260	1	5
622.430	1	6
622.599	1	5
622.769	1	13
622.939	1	9
623.108	1	13
623.278	1	12
623.448	1	14
623.617	1	10
623.787	1	6
623.956	1	12
624.126	1	19
624.296	1	11
624.465	1	15
624.635	1	8
624.804	1	3
624.974	1	15
625.144	1	7
625.313	1	-1
625.483	1	20
625.652	1	16
625.822	1	12
625.992	1	13
626.161	1	29
626.331	1	12
626.501	1	12
626.670	1	16
626.840	1	19
627.009	1	16
627.179	1	22
627.348	1	11
627.518	1	20
627.688	1	7
627.857	1	16
628.027	1	-1
628.196	1	13
628.366	1	6
628.536	1	13
628.705	1	8
628.875	1	27
629.044	1	13
629.214	1	11
629.384	1	4
629.553	1	12
629.723	1	0
629.892	1	21
630.062	1	6
630.232	1	6
630.401	1	29
630.571	1	12
630.740	1	14
630.910	1	17
631.079	1	1
631.249	1	7
631.419	1	7
631.588	1	6
631.758	1	12
631.927	1	15
632.097	1	7
632.266	1	8
632.436	1	7
632.606	1	12
632.775	1	21
632.945	1	24
633.114	1	9
633.284	1	2
633.453	1	10
633.623	1	10
633.793	1	4
633.962	1	16
634.132	1	11
634.301	1	16
634.471	1	9
634.640	1	13
634.810	1	15
634.979	1	18
635.149	1	11
635.319	1	16
635.488	1	18
635.658	1	6
635.827	1	15
635.997	1	15
636.166	1	21
636.336	1	17
636.505	1	13
636.675	1	13
636.845	1	12
637.014	1	14
637.184	1	17
637.353	1	9
637.523	1	14
637.692	1	21
637.862	1	4
638.031	1	20
638.201	1	12
638.370	1	14
638.540	1	2
638.710	1	15
638.879	1	7
639.049	1	13
639.218	1	11
639.388	1	14
639.557	1	10
639.727	1	8
639.896	1	7
640.066	1	22
640.235	1	16
640.405	1	9
640.574	1	15
640.744	1	22
640.914	1	10
641.083	1	20
641.253	1	25
641.422	1	7
641.592	1	2
641.761	1	7
641.931	1	6
642.100	1	2
642.270	1	9
642.439	1	12
642.609	1	16
642.778	1	12
642.948	1	11
643.117	1	19
643.287	1	20
643.456	1	22
643.626	1	15
643.795	1	13
643.965	1	23
644.134	1	7
644.304	1	12
644.473	1	13
644.643	1	6
644.812	1	25
644.982	1	14
645.151	1	23
645.321	1	5
645.490	1	5
645.660	1	11
645.829	1	-1
645.999	1	16
646.168	1	10
646.338	1	12
646.507	1	17
646.677	1	9
646.846	1	10
647.016	1	25
647.185	1	3
647.355	1	7
647.524	1	11
647.694	1	8
647.863	1	5
648.033	1	1
648.202	1	7
648.372	1	17
648.541	1	-1
648.711	1	14
648.880	1	20
649.050	1	12
649.219	1	-1
649.389	1	11
649.558	1	9
649.728	1	15
649.897	1	11
650.067	1	18
650.236	1	13
650.406	1	0
650.575	1	4
650.745	1	12
650.914	1	17
651.084	1	4
651.253	1	18
651.423	1	13
651.592	1	10
651.762	1	22
651.931	1	12
652.101	1	6
652.270	1	11
652.440	1	7
652.609	1	5
652.778	1	2
652.948	1	13
653.117	1	3
653.287	1	19
653.456	1	10
653.626	1	2
653.795	1	20
653.965	1	10
654.134	1	15
654.304	1	13
654.473	1	12
654.643	1	15
654.812	1	12
654.982	1	10
655.151	1	5
655.320	1	13
655.490	1	14
655.659	1	1
655.829	1	14
655.998	1	11
656.168	1	5
656.337	1	17
656.507	1	5
656.676	1	21
656.846	1	1
657.015	1	4
657.184	1	10
657.354	1	17
657.523	1	13
657.693	1	14
657.862	1	12
658.032	1	14
658.201	1	8
658.371	1	13
658.540	1	-1
658.709	1	10
658.879	1	-9
659.048	1	15
659.218	1	17
659.387	1	15
659.557	1	16
659.726	1	17
659.895	1	10
660.065	1	5
660.234	1	16
660.404	1	14
660.573	1	31
660.743	1	19
660.912	1	9
661.081	1	25
661.251	1	13
661.420	1	3
661.590	1	2
661.759	1	13
661.929	1	11
662.098	1	-2
662.267	1	15
662.437	1	15
662.606	1	15
662.776	1	12
662.945	1	11
663.115	1	12
663.284	1	17
663.453	1	-2
663.623	1	13
663.792	1	22
663.962	1	18
664.131	1	17
664.300	1	5
664.470	1	13
664.639	1	15
664.809	1	11
664.978	1	15
665.148	1	11
665.317	1	8
665.486	1	11
665.656	1	10
665.825	1	13
665.995	1	0
666.164	1	17
666.333	1	18
666.503	1	7
666.672	1	16
666.842	1	8
667.011	1	8
667.180	1	5
667.350	1	19
667.519	1	25
667.689	1	13
667.858	1	16
668.027	1	32
668.197	1	23
668.366	1	13
668.536	1	19
668.705	1	6
668.874	1	11
669.044	1	12
669.213	1	13
669.382	1	10
669.552	1	17
669.721	1	18
669.891	1	20
670.060	1	19
670.229	1	10
670.399	1	12
670.568	1	-4
670.738	1	-5
670.907	1	5
671.076	1	17
671.246	1	16
671.415	1	14
671.584	1	8
671.754	1	10
671.923	1	12
672.093	1	11
672.262	1	14
672.431	1	-2
672.601	1	13
672.770	1	2
672.939	1	13
673.109	1	9
673.278	1	21
673.448	1	6
673.617	1	4
673.786	1	10
