325.333	1	11
325.504	1	14
325.675	1	-5
325.846	1	-3
326.017	1	11
326.188	1	1
326.359	1	12
326.531	1	-5
326.702	1	4
326.873	1	-3
327.044	1	3
327.215	1	10
327.386	1	3
327.557	1	-1
327.728	1	3
327.899	1	11
328.070	1	7
328.241	1	10
328.412	1	3
328.583	1	1
328.754	1	7
328.926	1	-2
329.097	1	-2
329.268	1	-4
329.439	1	6
329.610	1	8
329.781	1	5
329.952	1	15
330.123	1	1
330.294	1	-8
330.465	1	6
330.636	1	14
330.807	1	0
330.978	1	2
331.149	1	15
331.320	1	4
331.492	1	2
331.663	1	7
331.834	1	14
332.005	1	5
332.176	1	-12
332.347	1	18
332.518	1	14
332.689	1	5
332.860	1	-4
333.031	1	8
333.202	1	-3
333.373	1	10
333.544	1	13
333.715	1	13
333.886	1	-6
334.057	1	3
334.228	1	2
334.399	1	10
334.570	1	6
334.741	1	8
334.912	1	13
335.084	1	-5
335.255	1	8
335.426	1	6
335.597	1	8
335.768	1	11
335.939	1	8
336.110	1	5
336.281	1	8
336.452	1	11
336.623	1	6
336.794	1	3
336.965	1	-1
337.136	1	6
337.307	1	1
337.478	1	4
337.649	1	10
337.820	1	10
337.991	1	5
338.162	1	3
338.333	1	2
338.504	1	11
338.675	1	6
338.846	1	4
339.017	1	16
339.188	1	2
339.359	1	5
339.530	1	15
339.701	1	12
339.872	1	6
340.043	1	-8
340.214	1	1
340.385	1	6
340.556	1	7
340.727	1	10
340.898	1	7
341.069	1	17
341.240	1	3
341.411	1	-1
341.582	1	12
341.753	1	-4
341.924	1	2
342.095	1	14
342.266	1	9
342.437	1	10
342.608	1	16
342.779	1	0
342.950	1	7
343.121	1	9
343.292	1	2
343.463	1	0
343.634	1	-1
343.805	1	2
343.976	1	8
344.147	1	7
344.318	1	-5
344.489	1	7
344.660	1	13
344.831	1	14
345.002	1	9
345.173	1	-1
345.344	1	4
345.515	1	-5
345.686	1	12
345.857	1	6
346.028	1	10
346.199	1	1
346.370	1	11
346.541	1	0
346.712	1	4
346.883	1	1
347.054	1	6
347.225	1	13
347.396	1	-7
347.567	1	12
347.738	1	1
347.909	1	2
348.080	1	11
348.251	1	9
348.422	1	0
348.593	1	0
348.764	1	6
348.935	1	3
349.106	1	2
349.277	1	9
349.448	1	10
349.619	1	2
349.790	1	7
349.961	1	7
350.132	1	15
350.303	1	9
350.474	1	0
350.645	1	1
350.816	1	3
350.987	1	18
351.157	1	11
351.328	1	10
351.499	1	15
351.670	1	-2
351.841	1	8
352.012	1	9
352.183	1	6
352.354	1	0
352.525	1	11
352.696	1	22
352.867	1	4
353.038	1	-3
353.209	1	6
353.380	1	-3
353.551	1	-10
353.722	1	-1
353.893	1	4
354.064	1	15
354.235	1	6
354.406	1	5
354.576	1	13
354.747	1	1
354.918	1	17
355.089	1	0
355.260	1	13
355.431	1	5
355.602	1	3
355.773	1	4
355.944	1	1
356.115	1	3
356.286	1	11
356.457	1	6
356.628	1	-6
356.799	1	3
356.970	1	8
357.141	1	-12
357.311	1	7
357.482	1	1
357.653	1	8
357.824	1	13
357.995	1	-2
358.166	1	-4
358.337	1	17
358.508	1	9
358.679	1	2
358.850	1	-3
359.021	1	1
359.192	1	12
359.363	1	8
359.533	1	0
359.704	1	12
359.875	1	14
360.046	1	9
360.217	1	10
360.388	1	3
360.559	1	3
360.730	1	-2
360.901	1	2
361.072	1	6
361.243	1	7
361.414	1	-4
361.584	1	3
361.755	1	0
361.926	1	8
362.097	1	-1
362.268	1	6
362.439	1	3
362.610	1	12
362.781	1	1
362.952	1	18
363.123	1	6
363.293	1	3
363.464	1	9
363.635	1	6
363.806	1	-7
363.977	1	-1
364.148	1	0
364.319	1	-7
364.490	1	4
364.661	1	4
364.832	1	8
365.002	1	4
365.173	1	-1
365.344	1	10
365.515	1	1
365.686	1	-4
365.857	1	1
366.028	1	9
366.199	1	3
366.370	1	11
366.540	1	12
366.711	1	1
366.882	1	-5
367.053	1	7
367.224	1	9
367.395	1	2
367.566	1	-7
367.737	1	-3
367.908	1	-12
368.078	1	8
368.249	1	16
368.420	1	8
368.591	1	10
368.762	1	2
368.933	1	-2
369.104	1	16
369.274	1	-1
369.445	1	4
369.616	1	7
369.787	1	13
369.958	1	3
370.129	1	-7
370.300	1	3
370.471	1	1
370.641	1	8
370.812	1	4
370.983	1	8
371.154	1	1
371.325	1	0
371.496	1	7
371.667	1	1
371.837	1	5
372.008	1	-12
372.179	1	-2
372.350	1	-10
372.521	1	-8
372.692	1	4
372.863	1	5
373.033	1	5
373.204	1	6
373.375	1	-1
373.546	1	24
373.717	1	-1
373.888	1	12
374.059	1	-6
374.229	1	-2
374.400	1	-13
374.571	1	2
374.742	1	-3
374.913	1	6
375.084	1	11
375.254	1	1
375.425	1	8
375.596	1	3
375.767	1	0
375.938	1	3
376.109	1	9
376.279	1	-4
376.450	1	2
376.621	1	4
376.792	1	12
376.963	1	-2
377.134	1	5
377.304	1	-2
377.475	1	14
377.646	1	-4
377.817	1	-1
377.988	1	-1
378.159	1	19
378.329	1	7
378.500	1	10
378.671	1	8
378.842	1	1
379.013	1	10
379.184	1	-1
379.354	1	6
379.525	1	-5
379.696	1	5
379.867	1	1
380.038	1	8
380.209	1	9
380.379	1	9
380.550	1	8
380.721	1	-4
380.892	1	5
381.063	1	8
381.233	1	8
381.404	1	4
381.575	1	5
381.746	1	18
381.917	1	10
382.087	1	14
382.258	1	10
382.429	1	4
382.600	1	-1
382.771	1	-6
382.941	1	8
383.112	1	3
383.283	1	20
383.454	1	3
383.625	1	-11
383.795	1	8
383.966	1	4
384.137	1	7
384.308	1	-3
384.479	1	-3
384.649	1	-1
384.820	1	22
384.991	1	7
385.162	1	14
385.333	1	5
385.503	1	-2
385.674	1	-12
385.845	1	12
386.016	1	13
386.187	1	4
386.357	1	12
386.528	1	0
386.699	1	6
386.870	1	7
387.041	1	17
387.211	1	6
387.382	1	-6
387.553	1	5
387.724	1	13
387.894	1	15
388.065	1	8
388.236	1	11
388.407	1	8
388.578	1	14
388.748	1	3
388.919	1	8
389.090	1	7
389.261	1	8
389.431	1	-5
389.602	1	16
389.773	1	13
389.944	1	14
390.114	1	10
390.285	1	1
390.456	1	-1
390.627	1	-3
390.798	1	9
390.968	1	12
391.139	1	-4
391.310	1	10
391.481	1	20
391.651	1	19
391.822	1	13
391.993	1	-2
392.164	1	14
392.334	1	-5
392.505	1	13
392.676	1	8
392.847	1	15
393.017	1	10
393.188	1	13
393.359	1	16
393.530	1	14
393.700	1	-6
393.871	1	-4
394.042	1	3
394.213	1	-9
394.383	1	7
394.554	1	10
394.725	1	5
394.896	1	6
395.066	1	12
395.237	1	13
395.408	1	10
395.579	1	14
395.749	1	8
395.920	1	1
396.091	1	16
396.262	1	8
396.432	1	10
396.603	1	10
396.774	1	6
396.945	1	8
397.115	1	2
397.286	1	4
397.457	1	2
397.627	1	5
397.798	1	2
397.969	1	10
398.140	1	7
398.310	1	-5
398.481	1	5
398.652	1	-7
398.823	1	8
398.993	1	2
399.164	1	8
399.335	1	6
399.505	1	-1
399.676	1	10
399.847	1	2
400.018	1	17
400.188	1	8
400.359	1	4
400.530	1	11
400.700	1	3
400.871	1	1
401.042	1	10
401.213	1	-1
401.383	1	11
401.554	1	3
401.725	1	12
401.895	1	7
402.066	1	0
402.237	1	9
402.408	1	18
402.578	1	11
402.749	1	11
402.920	1	4
403.090	1	0
403.261	1	12
403.432	1	5
403.603	1	16
403.773	1	6
403.944	1	6
404.115	1	-6
404.285	1	7
404.456	1	3
404.627	1	4
404.797	1	1
404.968	1	4
405.139	1	11
405.310	1	13
405.480	1	11
405.651	1	-3
405.822	1	10
405.992	1	3
406.163	1	17
406.334	1	11
406.504	1	4
406.675	1	10
406.846	1	6
407.016	1	10
407.187	1	7
407.358	1	11
407.528	1	10
407.699	1	-1
407.870	1	9
408.041	1	11
408.211	1	5
408.382	1	16
408.553	1	5
408.723	1	10
408.894	1	5
409.065	1	5
409.235	1	13
409.406	1	8
409.577	1	0
409.747	1	4
409.918	1	5
410.089	1	15
410.259	1	0
410.430	1	6
410.601	1	-1
410.771	1	4
410.942	1	3
411.113	1	5
411.283	1	13
411.454	1	20
411.625	1	6
411.795	1	-2
411.966	1	11
412.137	1	17
412.307	1	9
412.478	1	12
412.649	1	10
412.819	1	2
412.990	1	9
413.161	1	11
413.331	1	10
413.502	1	20
413.672	1	12
413.843	1	5
414.014	1	8
414.184	1	10
414.355	1	22
414.526	1	18
414.696	1	9
414.867	1	10
415.038	1	5
415.208	1	14
415.379	1	18
415.550	1	11
415.720	1	1
415.891	1	17
416.062	1	10
416.232	1	4
416.403	1	10
416.573	1	14
416.744	1	6
416.915	1	14
417.085	1	14
417.256	1	-1
417.427	1	15
417.597	1	14
417.768	1	7
417.939	1	12
418.109	1	5
418.280	1	-3
418.450	1	15
418.621	1	13
418.792	1	8
418.962	1	-9
419.133	1	12
419.304	1	4
419.474	1	9
419.645	1	12
419.815	1	7
419.986	1	9
420.157	1	13
420.327	1	1
420.498	1	8
420.669	1	13
420.839	1	3
421.010	1	9
421.180	1	8
421.351	1	21
421.522	1	6
421.692	1	13
421.863	1	1
422.033	1	4
422.204	1	24
422.375	1	6
422.545	1	7
422.716	1	4
422.886	1	0
423.057	1	13
423.228	1	10
423.398	1	13
423.569	1	1
423.740	1	6
423.910	1	17
424.081	1	8
424.251	1	0
424.422	1	7
424.593	1	6
424.763	1	13
424.934	1	3
425.104	1	3
425.275	1	16
425.445	1	9
425.616	1	20
425.787	1	10
425.957	1	-1
426.128	1	3
426.298	1	24
426.469	1	10
426.640	1	10
426.810	1	26
426.981	1	18
427.151	1	7
427.322	1	13
427.493	1	6
427.663	1	20
427.834	1	3
428.004	1	-1
428.175	1	19
428.345	1	14
428.516	1	13
428.687	1	22
428.857	1	5
429.028	1	-1
429.198	1	13
429.369	1	6
429.540	1	13
429.710	1	8
429.881	1	3
430.051	1	16
430.222	1	11
430.392	1	8
430.563	1	16
430.734	1	15
430.904	1	6
431.075	1	17
431.245	1	7
431.416	1	9
431.586	1	6
431.757	1	7
431.927	1	27
432.098	1	-10
432.269	1	8
432.439	1	15
432.610	1	18
432.780	1	7
432.951	1	16
433.121	1	16
433.292	1	-3
433.462	1	11
433.633	1	4
433.804	1	4
433.974	1	15
434.145	1	8
434.315	1	6
434.486	1	12
434.656	1	15
434.827	1	8
434.997	1	12
435.168	1	2
435.339	1	7
435.509	1	8
435.680	1	12
435.850	1	-1
436.021	1	21
436.191	1	13
436.362	1	6
436.532	1	13
436.703	1	9
436.873	1	2
437.044	1	-1
437.214	1	0
437.385	1	13
437.556	1	9
437.726	1	14
437.897	1	8
438.067	1	-2
438.238	1	13
438.408	1	6
438.579	1	2
438.749	1	-6
438.920	1	8
439.090	1	7
439.261	1	10
439.431	1	8
439.602	1	7
439.772	1	8
439.943	1	9
440.113	1	6
440.284	1	7
440.455	1	-4
440.625	1	18
440.796	1	16
440.966	1	9
441.137	1	-1
441.307	1	9
441.478	1	10
441.648	1	9
441.819	1	12
441.989	1	13
442.160	1	6
442.330	1	3
442.501	1	5
442.671	1	14
442.842	1	7
443.012	1	6
443.183	1	6
443.353	1	18
443.524	1	1
443.694	1	10
443.865	1	17
444.035	1	6
444.206	1	8
444.376	1	2
444.547	1	17
444.717	1	1
444.888	1	10
445.058	1	26
445.229	1	6
445.399	1	4
445.570	1	-1
445.740	1	7
445.911	1	12
446.081	1	17
446.252	1	8
446.422	1	5
446.593	1	-4
446.763	1	1
446.934	1	13
447.104	1	2
447.275	1	10
447.445	1	9
447.616	1	5
447.786	1	4
447.957	1	10
448.127	1	13
448.298	1	-5
448.468	1	-6
448.639	1	5
448.809	1	11
448.979	1	1
449.150	1	-1
449.320	1	-3
449.491	1	2
449.661	1	17
449.832	1	11
450.002	1	5
450.173	1	3
450.343	1	14
450.514	1	14
450.684	1	3
450.855	1	15
451.025	1	11
451.196	1	-5
451.366	1	8
451.537	1	14
451.707	1	14
451.878	1	1
452.048	1	7
452.218	1	1
452.389	1	10
452.559	1	3
452.730	1	5
452.900	1	5
453.071	1	5
453.241	1	11
453.412	1	11
453.582	1	9
453.753	1	-1
453.923	1	18
454.093	1	12
454.264	1	11
454.434	1	11
454.605	1	14
454.775	1	11
454.946	1	13
455.116	1	3
455.287	1	-1
455.457	1	12
455.628	1	4
455.798	1	7
455.968	1	12
456.139	1	3
456.309	1	3
456.480	1	3
456.650	1	19
456.821	1	25
456.991	1	8
457.161	1	4
457.332	1	7
457.502	1	6
457.673	1	9
457.843	1	9
458.014	1	3
458.184	1	3
458.355	1	4
458.525	1	0
458.695	1	6
458.866	1	7
459.036	1	2
459.207	1	8
459.377	1	7
459.548	1	5
459.718	1	2
459.888	1	18
460.059	1	7
460.229	1	7
460.400	1	15
460.570	1	7
460.740	1	3
460.911	1	2
461.081	1	-2
461.252	1	10
461.422	1	1
461.593	1	-6
461.763	1	11
461.933	1	8
462.104	1	6
462.274	1	15
462.445	1	2
462.615	1	7
462.785	1	0
462.956	1	1
463.126	1	-1
463.297	1	6
463.467	1	14
463.638	1	-1
463.808	1	1
463.978	1	2
464.149	1	14
464.319	1	-4
464.490	1	18
464.660	1	-1
464.830	1	-4
465.001	1	12
465.171	1	10
465.342	1	11
465.512	1	2
465.682	1	19
465.853	1	7
466.023	1	13
466.194	1	2
466.364	1	6
466.534	1	2
466.705	1	4
466.875	1	8
467.045	1	9
467.216	1	14
467.386	1	10
467.557	1	1
467.727	1	2
467.897	1	-7
468.068	1	4
468.238	1	7
468.409	1	-1
468.579	1	4
468.749	1	4
468.920	1	6
469.090	1	9
469.260	1	-4
469.431	1	6
469.601	1	0
469.772	1	-6
469.942	1	17
470.112	1	6
470.283	1	16
470.453	1	11
470.623	1	10
470.794	1	9
470.964	1	-4
471.135	1	6
471.305	1	5
471.475	1	4
471.646	1	-1
471.816	1	7
471.986	1	4
472.157	1	8
472.327	1	5
472.497	1	-3
472.668	1	-6
472.838	1	5
473.009	1	8
473.179	1	10
473.349	1	7
473.520	1	8
473.690	1	0
473.860	1	2
474.031	1	10
474.201	1	4
474.371	1	2
474.542	1	3
474.712	1	3
474.882	1	5
475.053	1	10
475.223	1	8
475.394	1	18
475.564	1	-3
475.734	1	4
475.905	1	-6
476.075	1	6
476.245	1	6
476.416	1	-1
476.586	1	7
476.756	1	6
476.927	1	8
477.097	1	12
477.267	1	12
477.438	1	-13
477.608	1	-7
477.778	1	12
477.949	1	11
478.119	1	4
478.289	1	15
478.460	1	9
478.630	1	3
478.800	1	-4
478.971	1	6
479.141	1	-5
479.311	1	1
479.482	1	3
479.652	1	5
479.822	1	2
479.993	1	0
480.163	1	1
480.333	1	10
480.504	1	12
480.674	1	-2
480.844	1	-3
481.015	1	-3
481.185	1	5
481.355	1	-8
481.525	1	14
481.696	1	21
481.866	1	7
482.036	1	2
482.207	1	1
482.377	1	2
482.547	1	-6
482.718	1	3
482.888	1	3
483.058	1	2
483.229	1	5
483.399	1	13
483.569	1	5
483.740	1	5
483.910	1	-11
484.080	1	5
484.250	1	4
484.421	1	4
484.591	1	1
484.761	1	-3
484.932	1	1
485.102	1	3
485.272	1	7
485.443	1	6
485.613	1	1
485.783	1	-4
485.953	1	-10
486.124	1	-10
486.294	1	10
486.464	1	14
486.635	1	-1
486.805	1	-7
486.975	1	6
487.146	1	0
487.316	1	6
487.486	1	5
487.656	1	2
487.827	1	3
487.997	1	1
488.167	1	10
488.338	1	-4
488.508	1	0
488.678	1	0
488.848	1	11
489.019	1	8
489.189	1	7
489.359	1	11
489.529	1	-2
489.700	1	-2
489.870	1	-12
490.040	1	1
490.211	1	2
490.381	1	-5
490.551	1	-11
490.721	1	5
490.892	1	17
491.062	1	12
491.232	1	-1
491.402	1	4
491.573	1	-4
491.743	1	-7
491.913	1	-1
492.084	1	1
492.254	1	15
492.424	1	5
492.594	1	15
492.765	1	12
492.935	1	11
493.105	1	8
493.275	1	-1
493.446	1	8
493.616	1	-5
493.786	1	15
493.956	1	6
494.127	1	-8
494.297	1	6
494.467	1	13
494.637	1	6
494.808	1	-2
494.978	1	1
495.148	1	3
495.318	1	-5
495.489	1	-4
495.659	1	6
495.829	1	-2
495.999	1	4
496.170	1	0
496.340	1	13
496.510	1	6
496.680	1	4
496.851	1	-1
497.021	1	-9
497.191	1	1
497.361	1	1
497.532	1	-2
497.702	1	0
497.872	1	4
498.042	1	1
498.213	1	9
498.383	1	7
498.553	1	-1
498.723	1	-7
498.894	1	11
499.064	1	5
499.234	1	-2
499.404	1	4
499.574	1	5
499.745	1	4
499.915	1	-1
500.085	1	-4
500.255	1	19
500.426	1	5
500.596	1	14
500.766	1	-2
500.936	1	3
501.106	1	-2
501.277	1	5
501.447	1	0
501.617	1	0
501.787	1	11
501.958	1	5
502.128	1	4
502.298	1	10
502.468	1	-4
502.638	1	-5
502.809	1	-4
502.979	1	6
503.149	1	-1
503.319	1	1
503.489	1	9
503.660	1	-2
503.830	1	3
504.000	1	0
504.170	1	3
504.340	1	-3
504.511	1	5
504.681	1	6
504.851	1	11
505.021	1	-8
505.192	1	1
505.362	1	8
505.532	1	-3
505.702	1	2
505.872	1	10
506.043	1	0
506.213	1	4
506.383	1	2
506.553	1	5
506.723	1	12
506.893	1	-8
507.064	1	-3
507.234	1	2
507.404	1	9
507.574	1	7
507.744	1	2
507.915	1	-2
508.085	1	-9
508.255	1	9
508.425	1	4
508.595	1	-3
508.766	1	-6
508.936	1	11
509.106	1	3
509.276	1	-3
509.446	1	7
509.616	1	-2
509.787	1	9
509.957	1	-4
510.127	1	-8
510.297	1	1
510.467	1	-1
510.638	1	-1
510.808	1	0
510.978	1	5
511.148	1	19
511.318	1	6
511.488	1	7
511.659	1	7
511.829	1	12
511.999	1	-4
512.169	1	-6
512.339	1	4
512.509	1	3
512.680	1	2
512.850	1	-2
513.020	1	3
513.190	1	6
513.360	1	-7
513.530	1	-3
513.700	1	-3
513.871	1	-4
514.041	1	7
514.211	1	-1
514.381	1	8
514.551	1	-12
514.721	1	0
514.892	1	-1
515.062	1	-1
515.232	1	2
515.402	1	0
515.572	1	-2
515.742	1	7
515.912	1	6
516.083	1	-1
516.253	1	4
516.423	1	-9
516.593	1	-2
516.763	1	5
516.933	1	15
517.104	1	-4
517.274	1	7
517.444	1	-9
517.614	1	1
517.784	1	0
517.954	1	-1
518.124	1	2
518.294	1	4
518.465	1	11
518.635	1	2
518.805	1	2
518.975	1	-4
519.145	1	1
519.315	1	-9
519.485	1	-3
519.656	1	6
519.826	1	-8
519.996	1	4
520.166	1	0
520.336	1	-7
520.506	1	13
520.676	1	10
520.846	1	2
521.017	1	-7
521.187	1	2
521.357	1	3
521.527	1	4
521.697	1	-3
521.867	1	-2
522.037	1	3
522.207	1	0
522.377	1	11
522.548	1	-4
522.718	1	4
522.888	1	3
523.058	1	8
523.228	1	-9
523.398	1	14
523.568	1	6
523.738	1	5
523.909	1	2
524.079	1	-6
524.249	1	4
524.419	1	0
524.589	1	-1
524.759	1	5
524.929	1	-2
525.099	1	-16
525.269	1	-4
525.439	1	9
525.610	1	-10
525.780	1	2
525.950	1	4
526.120	1	0
526.290	1	3
526.460	1	7
526.630	1	13
526.800	1	2
526.970	1	-5
527.140	1	3
527.311	1	10
527.481	1	-5
527.651	1	-4
527.821	1	-2
527.991	1	-4
528.161	1	-3
528.331	1	-3
528.501	1	-10
528.671	1	7
528.841	1	7
529.011	1	-4
529.181	1	5
529.352	1	0
529.522	1	10
529.692	1	1
529.862	1	-3
530.032	1	5
530.202	1	4
530.372	1	11
530.542	1	1
530.712	1	14
530.882	1	14
531.052	1	-6
531.222	1	2
531.392	1	-4
531.563	1	1
531.733	1	4
531.903	1	5
532.073	1	-2
532.243	1	10
532.413	1	1
532.583	1	8
532.753	1	5
532.923	1	8
533.093	1	2
533.263	1	2
533.433	1	2
533.603	1	-5
533.773	1	-4
533.943	1	-2
534.113	1	10
534.284	1	-2
534.454	1	5
534.624	1	6
534.794	1	13
534.964	1	4
535.134	1	9
535.304	1	-4
535.474	1	-7
535.644	1	-2
535.814	1	8
535.984	1	-6
536.154	1	2
536.324	1	-3
536.494	1	1
536.664	1	4
536.834	1	5
537.004	1	2
537.174	1	-1
537.344	1	8
537.514	1	1
537.685	1	-1
537.855	1	2
538.025	1	-4
538.195	1	-1
538.365	1	8
538.535	1	7
538.705	1	3
538.875	1	1
539.045	1	4
539.215	1	2
539.385	1	-4
539.555	1	-2
539.725	1	-6
539.895	1	0
540.065	1	-1
540.235	1	-2
540.405	1	-1
540.575	1	3
540.745	1	0
540.915	1	0
541.085	1	-4
541.255	1	6
541.425	1	-1
541.595	1	7
541.765	1	0
541.935	1	-2
542.105	1	-5
542.275	1	4
542.445	1	3
542.615	1	5
542.785	1	-1
542.955	1	-5
543.125	1	-1
543.295	1	3
543.465	1	-4
543.635	1	-4
543.805	1	1
543.975	1	0
544.145	1	5
544.315	1	-2
544.485	1	11
544.655	1	1
544.825	1	5
544.995	1	8
545.165	1	4
545.335	1	-14
545.505	1	3
545.675	1	-12
545.845	1	0
546.015	1	12
546.185	1	-3
546.355	1	-3
546.525	1	-5
546.695	1	-3
546.865	1	6
547.035	1	2
547.205	1	11
547.375	1	0
547.545	1	0
547.715	1	0
547.885	1	-1
548.055	1	1
548.225	1	2
548.395	1	-1
548.565	1	3
548.735	1	-1
548.905	1	6
549.075	1	1
549.245	1	5
549.415	1	2
549.585	1	7
549.755	1	9
549.925	1	0
550.095	1	-5
550.265	1	7
550.435	1	-2
550.605	1	5
550.775	1	4
550.945	1	6
551.115	1	0
551.285	1	-7
551.455	1	-4
551.625	1	-12
551.795	1	-13
551.965	1	4
552.135	1	5
552.305	1	1
552.475	1	7
552.645	1	-1
552.815	1	2
552.985	1	-2
553.155	1	1
553.325	1	-5
553.495	1	1
553.665	1	-6
553.835	1	3
554.004	1	12
554.174	1	1
554.344	1	-1
554.514	1	-1
554.684	1	-3
554.854	1	-12
555.024	1	-8
555.194	1	-2
555.364	1	4
555.534	1	-9
555.704	1	11
555.874	1	3
556.044	1	3
556.214	1	11
556.384	1	-4
556.554	1	-11
556.724	1	4
556.894	1	0
557.064	1	-1
557.234	1	-6
557.404	1	-1
557.573	1	-5
557.743	1	2
557.913	1	14
558.083	1	2
558.253	1	-2
558.423	1	-5
558.593	1	-1
558.763	1	12
558.933	1	0
559.103	1	4
559.273	1	1
559.443	1	4
559.613	1	-4
559.783	1	-2
559.953	1	1
560.122	1	0
560.292	1	16
560.462	1	-3
560.632	1	2
560.802	1	0
560.972	1	-8
561.142	1	-5
561.312	1	-1
561.482	1	-1
561.652	1	-2
561.822	1	-2
561.992	1	3
562.162	1	5
562.331	1	2
562.501	1	-7
562.671	1	14
562.841	1	-6
563.011	1	2
563.181	1	-1
563.351	1	4
563.521	1	7
563.691	1	0
563.861	1	4
564.031	1	0
564.201	1	6
564.370	1	-4
564.540	1	2
564.710	1	0
564.880	1	-3
565.050	1	8
565.220	1	5
565.390	1	8
565.560	1	2
565.730	1	-1
565.900	1	0
566.069	1	-1
566.239	1	-2
566.409	1	-6
566.579	1	6
566.749	1	-6
566.919	1	-3
567.089	1	3
567.259	1	-1
567.429	1	-5
567.599	1	6
567.768	1	-2
567.938	1	-11
568.108	1	4
568.278	1	17
568.448	1	-7
568.618	1	3
568.788	1	-1
568.958	1	-1
569.128	1	0
569.297	1	-4
569.467	1	-6
569.637	1	6
569.807	1	1
569.977	1	0
570.147	1	0
570.317	1	2
570.487	1	-7
570.656	1	-8
570.826	1	2
570.996	1	-7
571.166	1	4
571.336	1	-9
571.506	1	5
571.676	1	18
571.846	1	-6
572.015	1	1
572.185	1	0
572.355	1	-9
572.525	1	-8
572.695	1	-1
572.865	1	-9
573.035	1	11
573.205	1	7
573.374	1	4
573.544	1	12
573.714	1	-3
573.884	1	-3
574.054	1	6
574.224	1	2
574.394	1	0
574.563	1	11
574.733	1	-1
574.903	1	1
575.073	1	3
575.243	1	1
575.413	1	-2
575.583	1	10
575.752	1	-2
575.922	1	-5
576.092	1	-7
576.262	1	0
576.432	1	-4
576.602	1	-6
576.772	1	5
576.941	1	5
577.111	1	-5
577.281	1	-1
577.451	1	-2
577.621	1	14
577.791	1	-4
577.960	1	-14
578.130	1	6
578.300	1	-12
578.470	1	-5
578.640	1	-1
578.810	1	6
578.979	1	0
579.149	1	-3
579.319	1	-3
579.489	1	-6
579.659	1	-4
579.829	1	7
579.998	1	-7
580.168	1	3
580.338	1	7
580.508	1	7
580.678	1	3
580.848	1	-5
581.017	1	6
581.187	1	10
581.357	1	-11
581.527	1	9
581.697	1	-3
581.867	1	-1
582.036	1	-1
582.206	1	13
582.376	1	-3
582.546	1	-8
582.716	1	2
582.885	1	-10
583.055	1	-7
583.225	1	-6
583.395	1	9
583.565	1	0
583.735	1	7
583.904	1	2
584.074	1	-2
584.244	1	-14
584.414	1	-1
584.584	1	-3
584.753	1	3
584.923	1	2
585.093	1	1
585.263	1	7
585.433	1	-3
585.602	1	-6
585.772	1	-2
585.942	1	1
586.112	1	-4
586.282	1	7
586.451	1	8
586.621	1	4
586.791	1	-6
586.961	1	0
587.131	1	1
587.300	1	4
587.470	1	5
587.640	1	10
587.810	1	12
587.980	1	-3
588.149	1	0
588.319	1	1
588.489	1	1
588.659	1	1
588.829	1	3
588.998	1	1
589.168	1	13
589.338	1	-3
589.508	1	-1
589.677	1	6
589.847	1	12
590.017	1	-10
590.187	1	-2
590.357	1	-2
590.526	1	-2
590.696	1	2
590.866	1	-6
591.036	1	3
591.205	1	2
591.375	1	-10
591.545	1	3
591.715	1	-2
591.885	1	0
592.054	1	4
592.224	1	4
592.394	1	-1
592.564	1	1
592.733	1	-8
592.903	1	3
593.073	1	-7
593.243	1	-2
593.412	1	-3
593.582	1	-1
593.752	1	-11
593.922	1	-2
594.091	1	5
594.261	1	-9
594.431	1	11
594.601	1	-2
594.771	1	11
594.940	1	3
595.110	1	2
595.280	1	-2
595.450	1	-2
595.619	1	6
595.789	1	4
595.959	1	8
596.129	1	1
596.298	1	7
596.468	1	-2
596.638	1	3
596.808	1	1
596.977	1	-12
597.147	1	-6
597.317	1	-6
597.487	1	13
597.656	1	-4
597.826	1	2
597.996	1	-2
598.166	1	11
598.335	1	10
598.505	1	-3
598.675	1	-10
598.844	1	-9
599.014	1	8
599.184	1	-6
599.354	1	6
599.523	1	5
599.693	1	9
599.863	1	6
600.033	1	-7
600.202	1	1
600.372	1	-2
600.542	1	1
600.712	1	-2
600.881	1	-7
601.051	1	-4
601.221	1	7
601.390	1	-11
601.560	1	16
601.730	1	5
601.900	1	4
602.069	1	-2
602.239	1	7
602.409	1	6
602.578	1	1
602.748	1	3
602.918	1	3
603.088	1	2
603.257	1	0
603.427	1	-6
603.597	1	3
603.767	1	7
603.936	1	-5
604.106	1	1
604.276	1	13
604.445	1	7
604.615	1	-5
604.785	1	-3
604.954	1	14
605.124	1	-5
605.294	1	1
605.464	1	1
605.633	1	2
605.803	1	3
605.973	1	7
606.142	1	-1
606.312	1	-7
606.482	1	-2
606.652	1	-5
606.821	1	3
606.991	1	2
607.161	1	-6
607.330	1	-12
607.500	1	4
607.670	1	12
607.839	1	3
608.009	1	4
608.179	1	0
608.348	1	0
608.518	1	0
608.688	1	-6
608.858	1	8
609.027	1	0
609.197	1	-5
609.367	1	-2
609.536	1	5
609.706	1	9
609.876	1	9
610.045	1	-7
610.215	1	5
610.385	1	-1
610.554	1	-11
610.724	1	1
610.894	1	5
611.063	1	-3
611.233	1	-1
611.403	1	-5
611.572	1	8
611.742	1	5
611.912	1	6
612.081	1	-6
612.251	1	12
612.421	1	4
612.590	1	3
612.760	1	2
612.930	1	-7
613.099	1	-1
613.269	1	-5
613.439	1	0
613.608	1	5
613.778	1	-8
613.948	1	9
614.117	1	14
614.287	1	8
614.457	1	-7
614.626	1	7
614.796	1	-3
614.966	1	6
615.135	1	5
615.305	1	11
615.475	1	4
615.644	1	1
615.814	1	-2
615.984	1	-2
616.153	1	5
616.323	1	5
616.493	1	10
616.662	1	-1
616.832	1	8
617.002	1	0
617.171	1	-2
617.341	1	-3
617.511	1	-7
617.680	1	11
617.850	1	2
618.019	1	-5
618.189	1	6
618.359	1	1
618.528	1	-1
618.698	1	18
618.868	1	-4
619.037	1	1
619.207	1	8
619.377	1	-6
619.546	1	-1
619.716	1	3
619.885	1	2
620.055	1	9
620.225	1	7
620.394	1	-2
620.564	1	5
620.734	1	14
620.903	1	8
621.073	1	2
621.242	1	7
621.412	1	-4
621.582	1	3
621.751	1	5
621.921	1	5
622.091	1	4
622.260	1	-2
622.430	1	5
622.599	1	-7
622.769	1	8
622.939	1	5
623.108	1	2
623.278	1	4
623.448	1	14
623.617	1	-4
623.787	1	2
623.956	1	4
624.126	1	16
624.296	1	4
624.465	1	6
624.635	1	3
624.804	1	-1
624.974	1	9
625.144	1	-1
625.313	1	-6
625.483	1	15
625.652	1	13
625.822	1	-8
625.992	1	-6
626.161	1	10
626.331	1	3
626.501	1	0
626.670	1	6
626.840	1	12
627.009	1	10
627.179	1	0
627.348	1	6
627.518	1	10
627.688	1	0
627.857	1	6
628.027	1	-8
628.196	1	-2
628.366	1	-1
628.536	1	7
628.705	1	1
628.875	1	11
629.044	1	2
629.214	1	-3
629.384	1	1
629.553	1	6
629.723	1	-1
629.892	1	18
630.062	1	-3
630.232	1	2
630.401	1	11
630.571	1	3
630.740	1	7
630.910	1	6
631.079	1	-6
631.249	1	-13
631.419	1	-3
631.588	1	9
631.758	1	9
631.927	1	4
632.097	1	-1
632.266	1	-10
632.436	1	-3
632.606	1	4
632.775	1	12
632.945	1	11
633.114	1	-8
633.284	1	-8
633.453	1	3
633.623	1	12
633.793	1	-2
633.962	1	8
634.132	1	3
634.301	1	6
634.471	1	5
634.640	1	8
634.810	1	-2
634.979	1	2
635.149	1	4
635.319	1	8
635.488	1	14
635.658	1	8
635.827	1	9
635.997	1	4
636.166	1	0
636.336	1	6
636.505	1	6
636.675	1	10
636.845	1	10
637.014	1	-4
637.184	1	-3
637.353	1	3
637.523	1	9
637.692	1	9
637.862	1	5
638.031	1	6
638.201	1	13
638.370	1	-3
638.540	1	-7
638.710	1	15
638.879	1	1
639.049	1	2
639.218	1	5
639.388	1	6
639.557	1	4
639.727	1	5
639.896	1	-8
640.066	1	7
640.235	1	5
640.405	1	-7
640.574	1	2
640.744	1	11
640.914	1	6
641.083	1	7
641.253	1	17
641.422	1	6
641.592	1	-9
641.761	1	5
641.931	1	-5
642.100	1	-5
642.270	1	-8
642.439	1	-2
642.609	1	11
642.778	1	1
642.948	1	6
643.117	1	2
643.287	1	8
643.456	1	11
643.626	1	12
643.795	1	7
643.965	1	9
644.134	1	6
644.304	1	1
644.473	1	10
644.643	1	3
644.812	1	12
644.982	1	12
645.151	1	17
645.321	1	5
645.490	1	-6
645.660	1	1
645.829	1	4
645.999	1	8
646.168	1	-7
646.338	1	-2
646.507	1	5
646.677	1	3
646.846	1	2
647.016	1	9
647.185	1	-4
647.355	1	2
647.524	1	10
647.694	1	9
647.863	1	3
648.033	1	0
648.202	1	-2
648.372	1	11
648.541	1	3
648.711	1	3
648.880	1	5
649.050	1	-1
649.219	1	-7
649.389	1	2
649.558	1	2
649.728	1	2
649.897	1	4
650.067	1	3
650.236	1	11
650.406	1	0
650.575	1	2
650.745	1	15
650.914	1	0
651.084	1	4
651.253	1	8
651.423	1	12
651.592	1	7
651.762	1	4
651.931	1	-2
652.101	1	7
652.270	1	-3
652.440	1	0
652.609	1	3
652.778	1	-2
652.948	1	12
653.117	1	-2
653.287	1	8
653.456	1	11
653.626	1	-5
653.795	1	5
653.965	1	9
654.134	1	11
654.304	1	3
654.473	1	-4
654.643	1	10
654.812	1	3
654.982	1	-6
655.151	1	-3
655.320	1	13
655.490	1	12
655.659	1	-7
655.829	1	10
655.998	1	-10
656.168	1	-9
656.337	1	14
656.507	1	3
656.676	1	3
656.846	1	-8
657.015	1	-6
657.184	1	1
657.354	1	9
657.523	1	6
657.693	1	8
657.862	1	-2
658.032	1	2
658.201	1	0
658.371	1	4
658.540	1	-13
658.709	1	2
658.879	1	-14
659.048	1	-1
659.218	1	6
659.387	1	0
659.557	1	1
659.726	1	7
659.895	1	-1
660.065	1	-4
660.234	1	1
660.404	1	8
660.573	1	3
660.743	1	9
660.912	1	5
661.081	1	7
661.251	1	-2
661.420	1	3
661.590	1	-2
661.759	1	6
661.929	1	7
662.098	1	-2
662.267	1	1
662.437	1	5
662.606	1	8
662.776	1	6
662.945	1	3
663.115	1	10
663.284	1	3
663.453	1	5
663.623	1	10
663.792	1	-3
663.962	1	2
664.131	1	13
664.300	1	2
664.470	1	3
664.639	1	2
664.809	1	-1
664.978	1	-9
665.148	1	7
665.317	1	4
665.486	1	2
665.656	1	-2
665.825	1	13
665.995	1	5
666.164	1	-6
666.333	1	7
666.503	1	3
666.672	1	11
666.842	1	-8
667.011	1	0
667.180	1	6
667.350	1	3
667.519	1	6
667.689	1	-7
667.858	1	3
668.027	1	8
668.197	1	8
668.366	1	1
668.536	1	13
668.705	1	2
668.874	1	3
669.044	1	-3
669.213	1	-1
669.382	1	3
669.552	1	11
669.721	1	21
669.891	1	-2
670.060	1	13
670.229	1	1
670.399	1	0
670.568	1	0
670.738	1	-4
670.907	1	-1
671.076	1	6
671.246	1	5
671.415	1	6
671.584	1	4
671.754	1	14
671.923	1	9
672.093	1	13
672.262	1	4
672.431	1	-8
672.601	1	-2
672.770	1	2
672.939	1	-9
673.109	1	6
673.278	1	3
673.448	1	1
673.617	1	-6
673.786	1	0
