325.333	1	11
325.504	1	6
325.675	1	12
325.846	1	-2
326.017	1	15
326.188	1	5
326.359	1	1
326.531	1	7
326.702	1	4
326.873	1	5
327.044	1	8
327.215	1	9
327.386	1	10
327.557	1	10
327.728	1	14
327.899	1	10
328.070	1	7
328.241	1	6
328.412	1	7
328.583	1	8
328.754	1	4
328.926	1	-2
329.097	1	2
329.268	1	15
329.439	1	14
329.610	1	13
329.781	1	11
329.952	1	12
330.123	1	8
330.294	1	-1
330.465	1	6
330.636	1	14
330.807	1	4
330.978	1	1
331.149	1	14
331.320	1	22
331.492	1	10
331.663	1	9
331.834	1	5
332.005	1	5
332.176	1	-2
332.347	1	21
332.518	1	12
332.689	1	13
332.860	1	13
333.031	1	7
333.202	1	-6
333.373	1	13
333.544	1	10
333.715	1	19
333.886	1	11
334.057	1	15
334.228	1	10
334.399	1	14
334.570	1	8
334.741	1	14
334.912	1	9
335.084	1	5
335.255	1	9
335.426	1	6
335.597	1	20
335.768	1	18
335.939	1	14
336.110	1	8
336.281	1	14
336.452	1	15
336.623	1	6
336.794	1	3
336.965	1	5
337.136	1	5
337.307	1	8
337.478	1	18
337.649	1	27
337.820	1	12
337.991	1	14
338.162	1	10
338.333	1	13
338.504	1	12
338.675	1	8
338.846	1	0
339.017	1	11
339.188	1	10
339.359	1	18
339.530	1	10
339.701	1	3
339.872	1	6
340.043	1	1
340.214	1	8
340.385	1	14
340.556	1	15
340.727	1	7
340.898	1	16
341.069	1	8
341.240	1	7
341.411	1	4
341.582	1	13
341.753	1	9
341.924	1	7
342.095	1	3
342.266	1	18
342.437	1	19
342.608	1	14
342.779	1	12
342.950	1	6
343.121	1	9
343.292	1	10
343.463	1	13
343.634	1	6
343.805	1	9
343.976	1	15
344.147	1	16
344.318	1	6
344.489	1	16
344.660	1	8
344.831	1	14
345.002	1	13
345.173	1	4
345.344	1	8
345.515	1	-4
345.686	1	18
345.857	1	5
346.028	1	10
346.199	1	-1
346.370	1	15
346.541	1	6
346.712	1	7
346.883	1	12
347.054	1	14
347.225	1	9
347.396	1	-4
347.567	1	22
347.738	1	9
347.909	1	10
348.080	1	11
348.251	1	11
348.422	1	8
348.593	1	4
348.764	1	3
348.935	1	9
349.106	1	10
349.277	1	6
349.448	1	17
349.619	1	11
349.790	1	17
349.961	1	18
350.132	1	15
350.303	1	12
350.474	1	9
350.645	1	20
350.816	1	3
350.987	1	16
351.157	1	15
351.328	1	21
351.499	1	12
351.670	1	3
351.841	1	20
352.012	1	15
352.183	1	0
352.354	1	7
352.525	1	16
352.696	1	23
352.867	1	10
353.038	1	1
353.209	1	15
353.380	1	2
353.551	1	1
353.722	1	18
353.893	1	11
354.064	1	7
354.235	1	11
354.406	1	21
354.576	1	1
354.747	1	18
354.918	1	20
355.089	1	14
355.260	1	20
355.431	1	6
355.602	1	15
355.773	1	12
355.944	1	2
356.115	1	16
356.286	1	18
356.457	1	9
356.628	1	12
356.799	1	13
356.970	1	21
357.141	1	12
357.311	1	18
357.482	1	11
357.653	1	15
357.824	1	13
357.995	1	-3
358.166	1	9
358.337	1	11
358.508	1	13
358.679	1	23
358.850	1	13
359.021	1	4
359.192	1	14
359.363	1	14
359.533	1	0
359.704	1	13
359.875	1	16
360.046	1	11
360.217	1	12
360.388	1	25
360.559	1	16
360.730	1	7
360.901	1	8
361.072	1	20
361.243	1	17
361.414	1	13
361.584	1	6
361.755	1	17
361.926	1	14
362.097	1	4
362.268	1	14
362.439	1	10
362.610	1	17
362.781	1	11
362.952	1	17
363.123	1	7
363.293	1	9
363.464	1	-1
363.635	1	16
363.806	1	6
363.977	1	15
364.148	1	-5
364.319	1	13
364.490	1	14
364.661	1	11
364.832	1	17
365.002	1	26
365.173	1	11
365.344	1	20
365.515	1	6
365.686	1	16
365.857	1	13
366.028	1	15
366.199	1	8
366.370	1	8
366.540	1	14
366.711	1	14
366.882	1	0
367.053	1	13
367.224	1	14
367.395	1	10
367.566	1	6
367.737	1	15
367.908	1	6
368.078	1	23
368.249	1	8
368.420	1	14
368.591	1	19
368.762	1	7
368.933	1	-1
369.104	1	31
369.274	1	7
369.445	1	16
369.616	1	16
369.787	1	12
369.958	1	5
370.129	1	4
370.300	1	12
370.471	1	12
370.641	1	14
370.812	1	10
370.983	1	-7
371.154	1	9
371.325	1	13
371.496	1	15
371.667	1	9
371.837	1	16
372.008	1	-3
372.179	1	6
372.350	1	9
372.521	1	4
372.692	1	6
372.863	1	8
373.033	1	14
373.204	1	-3
373.375	1	10
373.546	1	19
373.717	1	7
373.888	1	9
374.059	1	14
374.229	1	10
374.400	1	8
374.571	1	12
374.742	1	7
374.913	1	10
375.084	1	12
375.254	1	21
375.425	1	5
375.596	1	15
375.767	1	8
375.938	1	13
376.109	1	16
376.279	1	2
376.450	1	14
376.621	1	2
376.792	1	7
376.963	1	2
377.134	1	24
377.304	1	12
377.475	1	15
377.646	1	13
377.817	1	12
377.988	1	4
378.159	1	21
378.329	1	14
378.500	1	9
378.671	1	14
378.842	1	4
379.013	1	24
379.184	1	-6
379.354	1	10
379.525	1	10
379.696	1	20
379.867	1	8
380.038	1	16
380.209	1	7
380.379	1	12
380.550	1	17
380.721	1	11
380.892	1	18
381.063	1	17
381.233	1	10
381.404	1	17
381.575	1	9
381.746	1	21
381.917	1	14
382.087	1	19
382.258	1	28
382.429	1	9
382.600	1	20
382.771	1	8
382.941	1	24
383.112	1	5
383.283	1	22
383.454	1	14
383.625	1	7
383.795	1	20
383.966	1	8
384.137	1	10
384.308	1	11
384.479	1	7
384.649	1	13
384.820	1	19
384.991	1	10
385.162	1	9
385.333	1	14
385.503	1	10
385.674	1	-2
385.845	1	21
386.016	1	19
386.187	1	16
386.357	1	11
386.528	1	8
386.699	1	12
386.870	1	11
387.041	1	36
387.211	1	6
387.382	1	12
387.553	1	8
387.724	1	31
387.894	1	10
388.065	1	17
388.236	1	9
388.407	1	15
388.578	1	5
388.748	1	15
388.919	1	13
389.090	1	25
389.261	1	13
389.431	1	21
389.602	1	29
389.773	1	29
389.944	1	30
390.114	1	20
390.285	1	4
390.456	1	8
390.627	1	9
390.798	1	10
390.968	1	24
391.139	1	9
391.310	1	18
391.481	1	15
391.651	1	18
391.822	1	17
391.993	1	10
392.164	1	19
392.334	1	9
392.505	1	14
392.676	1	14
392.847	1	18
393.017	1	16
393.188	1	30
393.359	1	28
393.530	1	23
393.700	1	7
393.871	1	17
394.042	1	13
394.213	1	18
394.383	1	13
394.554	1	22
394.725	1	16
394.896	1	12
395.066	1	24
395.237	1	21
395.408	1	23
395.579	1	15
395.749	1	30
395.920	1	3
396.091	1	14
396.262	1	23
396.432	1	23
396.603	1	16
396.774	1	7
396.945	1	18
397.115	1	13
397.286	1	13
397.457	1	14
397.627	1	23
397.798	1	14
397.969	1	22
398.140	1	10
398.310	1	18
398.481	1	9
398.652	1	9
398.823	1	17
398.993	1	24
399.164	1	23
399.335	1	18
399.505	1	18
399.676	1	24
399.847	1	13
400.018	1	25
400.188	1	23
400.359	1	10
400.530	1	23
400.700	1	22
400.871	1	15
401.042	1	27
401.213	1	17
401.383	1	16
401.554	1	22
401.725	1	16
401.895	1	17
402.066	1	11
402.237	1	24
402.408	1	20
402.578	1	18
402.749	1	12
402.920	1	23
403.090	1	20
403.261	1	25
403.432	1	17
403.603	1	16
403.773	1	20
403.944	1	21
404.115	1	12
404.285	1	19
404.456	1	15
404.627	1	22
404.797	1	31
404.968	1	16
405.139	1	13
405.310	1	31
405.480	1	20
405.651	1	9
405.822	1	23
405.992	1	18
406.163	1	26
406.334	1	17
406.504	1	22
406.675	1	28
406.846	1	24
407.016	1	17
407.187	1	19
407.358	1	30
407.528	1	26
407.699	1	4
407.870	1	23
408.041	1	24
408.211	1	26
408.382	1	22
408.553	1	26
408.723	1	24
408.894	1	18
409.065	1	14
409.235	1	21
409.406	1	12
409.577	1	22
409.747	1	22
409.918	1	19
410.089	1	18
410.259	1	12
410.430	1	24
410.601	1	25
410.771	1	23
410.942	1	15
411.113	1	22
411.283	1	26
411.454	1	33
411.625	1	19
411.795	1	17
411.966	1	44
412.137	1	24
412.307	1	17
412.478	1	15
412.649	1	25
412.819	1	26
412.990	1	16
413.161	1	25
413.331	1	15
413.502	1	21
413.672	1	29
413.843	1	26
414.014	1	28
414.184	1	20
414.355	1	31
414.526	1	26
414.696	1	26
414.867	1	31
415.038	1	12
415.208	1	27
415.379	1	36
415.550	1	28
415.720	1	12
415.891	1	44
416.062	1	24
416.232	1	23
416.403	1	28
416.573	1	22
416.744	1	19
416.915	1	35
417.085	1	21
417.256	1	18
417.427	1	17
417.597	1	34
417.768	1	29
417.939	1	25
418.109	1	22
418.280	1	17
418.450	1	23
418.621	1	28
418.792	1	20
418.962	1	14
419.133	1	28
419.304	1	23
419.474	1	20
419.645	1	31
419.815	1	18
419.986	1	29
420.157	1	24
420.327	1	22
420.498	1	24
420.669	1	31
420.839	1	12
421.010	1	19
421.180	1	35
421.351	1	33
421.522	1	18
421.692	1	35
421.863	1	12
422.033	1	23
422.204	1	29
422.375	1	23
422.545	1	41
422.716	1	11
422.886	1	18
423.057	1	26
423.228	1	24
423.398	1	24
423.569	1	23
423.740	1	22
423.910	1	31
424.081	1	27
424.251	1	15
424.422	1	16
424.593	1	29
424.763	1	38
424.934	1	24
425.104	1	38
425.275	1	37
425.445	1	19
425.616	1	22
425.787	1	32
425.957	1	14
426.128	1	35
426.298	1	35
426.469	1	22
426.640	1	26
426.810	1	34
426.981	1	25
427.151	1	21
427.322	1	29
427.493	1	30
427.663	1	26
427.834	1	26
428.004	1	12
428.175	1	33
428.345	1	21
428.516	1	31
428.687	1	31
428.857	1	24
429.028	1	18
429.198	1	32
429.369	1	23
429.540	1	28
429.710	1	19
429.881	1	18
430.051	1	36
430.222	1	24
430.392	1	15
430.563	1	32
430.734	1	31
430.904	1	26
431.075	1	27
431.245	1	29
431.416	1	29
431.586	1	13
431.757	1	36
431.927	1	35
432.098	1	12
432.269	1	27
432.439	1	29
432.610	1	33
432.780	1	14
432.951	1	20
433.121	1	18
433.292	1	25
433.462	1	20
433.633	1	11
433.804	1	21
433.974	1	30
434.145	1	19
434.315	1	16
434.486	1	35
434.656	1	21
434.827	1	16
434.997	1	20
435.168	1	30
435.339	1	20
435.509	1	23
435.680	1	38
435.850	1	20
436.021	1	25
436.191	1	28
436.362	1	19
436.532	1	23
436.703	1	13
436.873	1	25
437.044	1	15
437.214	1	21
437.385	1	31
437.556	1	23
437.726	1	23
437.897	1	29
438.067	1	10
438.238	1	18
438.408	1	20
438.579	1	28
438.749	1	19
438.920	1	26
439.090	1	20
439.261	1	22
439.431	1	18
439.602	1	21
439.772	1	28
439.943	1	16
440.113	1	27
440.284	1	13
440.455	1	23
440.625	1	35
440.796	1	22
440.966	1	19
441.137	1	20
441.307	1	9
441.478	1	29
441.648	1	9
441.819	1	28
441.989	1	16
442.160	1	21
442.330	1	18
442.501	1	24
442.671	1	16
442.842	1	32
443.012	1	26
443.183	1	25
443.353	1	20
443.524	1	14
443.694	1	16
443.865	1	31
444.035	1	6
444.206	1	24
444.376	1	21
444.547	1	30
444.717	1	14
444.888	1	18
445.058	1	23
445.229	1	9
445.399	1	16
445.570	1	14
445.740	1	28
445.911	1	30
446.081	1	34
446.252	1	28
446.422	1	19
446.593	1	13
446.763	1	15
446.934	1	18
447.104	1	17
447.275	1	32
447.445	1	26
447.616	1	16
447.786	1	16
447.957	1	15
448.127	1	29
448.298	1	14
448.468	1	11
448.639	1	20
448.809	1	21
448.979	1	12
449.150	1	13
449.320	1	24
449.491	1	22
449.661	1	21
449.832	1	28
450.002	1	26
450.173	1	25
450.343	1	27
450.514	1	30
450.684	1	29
450.855	1	20
451.025	1	19
451.196	1	21
451.366	1	20
451.537	1	20
451.707	1	32
451.878	1	6
452.048	1	20
452.218	1	17
452.389	1	22
452.559	1	15
452.730	1	10
452.900	1	14
453.071	1	19
453.241	1	21
453.412	1	15
453.582	1	19
453.753	1	3
453.923	1	34
454.093	1	24
454.264	1	24
454.434	1	25
454.605	1	26
454.775	1	21
454.946	1	32
455.116	1	27
455.287	1	19
455.457	1	16
455.628	1	20
455.798	1	18
455.968	1	20
456.139	1	9
456.309	1	25
456.480	1	22
456.650	1	34
456.821	1	21
456.991	1	15
457.161	1	17
457.332	1	25
457.502	1	22
457.673	1	26
457.843	1	20
458.014	1	12
458.184	1	8
458.355	1	14
458.525	1	16
458.695	1	18
458.866	1	14
459.036	1	9
459.207	1	17
459.377	1	28
459.548	1	20
459.718	1	16
459.888	1	16
460.059	1	18
460.229	1	7
460.400	1	29
460.570	1	19
460.740	1	16
460.911	1	20
461.081	1	16
461.252	1	20
461.422	1	20
461.593	1	7
461.763	1	27
461.933	1	12
462.104	1	25
462.274	1	26
462.445	1	5
462.615	1	16
462.785	1	11
462.956	1	16
463.126	1	15
463.297	1	21
463.467	1	21
463.638	1	9
463.808	1	18
463.978	1	13
464.149	1	18
464.319	1	6
464.490	1	17
464.660	1	8
464.830	1	12
465.001	1	32
465.171	1	12
465.342	1	14
465.512	1	18
465.682	1	24
465.853	1	9
466.023	1	21
466.194	1	23
466.364	1	20
466.534	1	15
466.705	1	14
466.875	1	17
467.045	1	9
467.216	1	17
467.386	1	14
467.557	1	15
467.727	1	11
467.897	1	7
468.068	1	12
468.238	1	14
468.409	1	12
468.579	1	10
468.749	1	15
468.920	1	10
469.090	1	23
469.260	1	7
469.431	1	17
469.601	1	9
469.772	1	7
469.942	1	26
470.112	1	24
470.283	1	25
470.453	1	20
470.623	1	15
470.794	1	15
470.964	1	9
471.135	1	13
471.305	1	19
471.475	1	11
471.646	1	17
471.816	1	16
471.986	1	17
472.157	1	5
472.327	1	13
472.497	1	5
472.668	1	14
472.838	1	13
473.009	1	18
473.179	1	10
473.349	1	15
473.520	1	19
473.690	1	15
473.860	1	14
474.031	1	24
474.201	1	12
474.371	1	6
474.542	1	14
474.712	1	6
474.882	1	21
475.053	1	17
475.223	1	21
475.394	1	12
475.564	1	12
475.734	1	9
475.905	1	18
476.075	1	7
476.245	1	22
476.416	1	11
476.586	1	5
476.756	1	17
476.927	1	15
477.097	1	13
477.267	1	9
477.438	1	-5
477.608	1	16
477.778	1	17
477.949	1	12
478.119	1	11
478.289	1	12
478.460	1	16
478.630	1	8
478.800	1	12
478.971	1	16
479.141	1	13
479.311	1	9
479.482	1	3
479.652	1	19
479.822	1	3
479.993	1	6
480.163	1	-1
480.333	1	13
480.504	1	18
480.674	1	12
480.844	1	17
481.015	1	8
481.185	1	29
481.355	1	8
481.525	1	8
481.696	1	12
481.866	1	11
482.036	1	12
482.207	1	9
482.377	1	11
482.547	1	8
482.718	1	17
482.888	1	9
483.058	1	12
483.229	1	13
483.399	1	9
483.569	1	11
483.740	1	8
483.910	1	1
484.080	1	15
484.250	1	9
484.421	1	16
484.591	1	6
484.761	1	6
484.932	1	7
485.102	1	10
485.272	1	7
485.443	1	9
485.613	1	2
485.783	1	7
485.953	1	6
486.124	1	-4
486.294	1	15
486.464	1	10
486.635	1	2
486.805	1	3
486.975	1	2
487.146	1	1
487.316	1	15
487.486	1	11
487.656	1	15
487.827	1	19
487.997	1	14
488.167	1	4
488.338	1	6
488.508	1	9
488.678	1	14
488.848	1	8
489.019	1	11
489.189	1	7
489.359	1	11
489.529	1	4
489.700	1	3
489.870	1	-1
490.040	1	3
490.211	1	14
490.381	1	1
490.551	1	0
490.721	1	18
490.892	1	23
491.062	1	9
491.232	1	4
491.402	1	16
491.573	1	5
491.743	1	10
491.913	1	5
492.084	1	11
492.254	1	20
492.424	1	14
492.594	1	11
492.765	1	14
492.935	1	18
493.105	1	17
493.275	1	8
493.446	1	19
493.616	1	4
493.786	1	15
493.956	1	7
494.127	1	-3
494.297	1	16
494.467	1	13
494.637	1	10
494.808	1	4
494.978	1	4
495.148	1	11
495.318	1	-1
495.489	1	11
495.659	1	16
495.829	1	21
495.999	1	16
496.170	1	2
496.340	1	15
496.510	1	17
496.680	1	6
496.851	1	2
497.021	1	7
497.191	1	1
497.361	1	15
497.532	1	1
497.702	1	13
497.872	1	8
498.042	1	14
498.213	1	3
498.383	1	8
498.553	1	9
498.723	1	-2
498.894	1	16
499.064	1	20
499.234	1	3
499.404	1	7
499.574	1	14
499.745	1	8
499.915	1	-1
500.085	1	13
500.255	1	17
500.426	1	3
500.596	1	14
500.766	1	2
500.936	1	5
501.106	1	21
501.277	1	18
501.447	1	0
501.617	1	8
501.787	1	14
501.958	1	12
502.128	1	12
502.298	1	15
502.468	1	5
502.638	1	10
502.809	1	8
502.979	1	-1
503.149	1	19
503.319	1	6
503.489	1	4
503.660	1	0
503.830	1	12
504.000	1	6
504.170	1	9
504.340	1	12
504.511	1	6
504.681	1	4
504.851	1	14
505.021	1	2
505.192	1	4
505.362	1	-2
505.532	1	8
505.702	1	0
505.872	1	11
506.043	1	5
506.213	1	15
506.383	1	14
506.553	1	4
506.723	1	11
506.893	1	12
507.064	1	3
507.234	1	5
507.404	1	13
507.574	1	8
507.744	1	6
507.915	1	1
508.085	1	-4
508.255	1	14
508.425	1	3
508.595	1	15
508.766	1	-8
508.936	1	21
509.106	1	5
509.276	1	14
509.446	1	11
509.616	1	9
509.787	1	8
509.957	1	1
510.127	1	4
510.297	1	9
510.467	1	-6
510.638	1	8
510.808	1	-2
510.978	1	12
511.148	1	17
511.318	1	4
511.488	1	13
511.659	1	12
511.829	1	8
511.999	1	-4
512.169	1	-4
512.339	1	7
512.509	1	12
512.680	1	-3
512.850	1	7
513.020	1	4
513.190	1	6
513.360	1	1
513.530	1	7
513.700	1	12
513.871	1	8
514.041	1	8
514.211	1	4
514.381	1	10
514.551	1	-7
514.721	1	7
514.892	1	3
515.062	1	15
515.232	1	4
515.402	1	12
515.572	1	11
515.742	1	10
515.912	1	-3
516.083	1	-5
516.253	1	11
516.423	1	2
516.593	1	0
516.763	1	4
516.933	1	7
517.104	1	-2
517.274	1	5
517.444	1	1
517.614	1	8
517.784	1	9
517.954	1	1
518.124	1	9
518.294	1	6
518.465	1	5
518.635	1	7
518.805	1	-6
518.975	1	3
519.145	1	2
519.315	1	-8
519.485	1	15
519.656	1	7
519.826	1	3
519.996	1	2
520.166	1	3
520.336	1	-3
520.506	1	10
520.676	1	9
520.846	1	9
521.017	1	6
521.187	1	5
521.357	1	2
521.527	1	3
521.697	1	10
521.867	1	-1
522.037	1	1
522.207	1	0
522.377	1	10
522.548	1	16
522.718	1	14
522.888	1	6
523.058	1	10
523.228	1	8
523.398	1	12
523.568	1	2
523.738	1	3
523.909	1	4
524.079	1	6
524.249	1	7
524.419	1	3
524.589	1	1
524.759	1	15
524.929	1	-4
525.099	1	1
525.269	1	-3
525.439	1	6
525.610	1	-8
525.780	1	-2
525.950	1	14
526.120	1	6
526.290	1	10
526.460	1	5
526.630	1	15
526.800	1	0
526.970	1	3
527.140	1	12
527.311	1	5
527.481	1	3
527.651	1	9
527.821	1	0
527.991	1	0
528.161	1	-7
528.331	1	7
528.501	1	3
528.671	1	10
528.841	1	15
529.011	1	10
529.181	1	10
529.352	1	18
529.522	1	9
529.692	1	3
529.862	1	6
530.032	1	11
530.202	1	9
530.372	1	5
530.542	1	-6
530.712	1	20
530.882	1	20
531.052	1	7
531.222	1	1
531.392	1	11
531.563	1	-1
531.733	1	-5
531.903	1	1
532.073	1	4
532.243	1	11
532.413	1	-1
532.583	1	6
532.753	1	13
532.923	1	4
533.093	1	5
533.263	1	6
533.433	1	1
533.603	1	4
533.773	1	-3
533.943	1	4
534.113	1	3
534.284	1	4
534.454	1	4
534.624	1	13
534.794	1	2
534.964	1	1
535.134	1	8
535.304	1	20
535.474	1	2
535.644	1	6
535.814	1	13
535.984	1	8
536.154	1	14
536.324	1	-7
536.494	1	-1
536.664	1	-3
536.834	1	8
537.004	1	5
537.174	1	-2
537.344	1	9
537.514	1	9
537.685	1	9
537.855	1	-2
538.025	1	-2
538.195	1	5
538.365	1	8
538.535	1	5
538.705	1	5
538.875	1	1
539.045	1	0
539.215	1	9
539.385	1	-4
539.555	1	7
539.725	1	1
539.895	1	1
540.065	1	-10
540.235	1	4
540.405	1	3
540.575	1	5
540.745	1	6
540.915	1	4
541.085	1	-5
541.255	1	11
541.425	1	1
541.595	1	7
541.765	1	11
541.935	1	0
542.105	1	-5
542.275	1	5
542.445	1	2
542.615	1	2
542.785	1	7
542.955	1	-1
543.125	1	6
543.295	1	4
543.465	1	-3
543.635	1	1
543.805	1	3
543.975	1	-2
544.145	1	14
544.315	1	-1
544.485	1	10
544.655	1	2
544.825	1	-3
544.995	1	11
545.165	1	7
545.335	1	-8
545.505	1	7
545.675	1	-11
545.845	1	1
546.015	1	6
546.185	1	1
546.355	1	4
546.525	1	-6
546.695	1	-4
546.865	1	-2
547.035	1	3
547.205	1	11
547.375	1	7
547.545	1	4
547.715	1	4
547.885	1	-5
548.055	1	0
548.225	1	7
548.395	1	-3
548.565	1	10
548.735	1	3
548.905	1	2
549.075	1	10
549.245	1	5
549.415	1	6
549.585	1	-2
549.755	1	10
549.925	1	-3
550.095	1	-1
550.265	1	10
550.435	1	3
550.605	1	6
550.775	1	2
550.945	1	14
551.115	1	5
551.285	1	9
551.455	1	-6
551.625	1	1
551.795	1	-7
551.965	1	-1
552.135	1	2
552.305	1	11
552.475	1	5
552.645	1	0
552.815	1	0
552.985	1	3
553.155	1	4
553.325	1	-7
553.495	1	2
553.665	1	-1
553.835	1	3
554.004	1	14
554.174	1	5
554.344	1	4
554.514	1	3
554.684	1	-2
554.854	1	1
555.024	1	-2
555.194	1	-3
555.364	1	5
555.534	1	-8
555.704	1	7
555.874	1	1
556.044	1	7
556.214	1	9
556.384	1	3
556.554	1	4
556.724	1	2
556.894	1	1
557.064	1	7
557.234	1	-7
557.404	1	3
557.573	1	-1
557.743	1	3
557.913	1	5
558.083	1	-2
558.253	1	9
558.423	1	1
558.593	1	-6
558.763	1	2
558.933	1	10
559.103	1	8
559.273	1	7
559.443	1	-1
559.613	1	0
559.783	1	5
559.953	1	-1
560.122	1	11
560.292	1	0
560.462	1	3
560.632	1	-7
560.802	1	4
560.972	1	0
561.142	1	11
561.312	1	6
561.482	1	-6
561.652	1	-4
561.822	1	-8
561.992	1	-11
562.162	1	4
562.331	1	-1
562.501	1	0
562.671	1	3
562.841	1	-14
563.011	1	10
563.181	1	8
563.351	1	1
563.521	1	-7
563.691	1	5
563.861	1	11
564.031	1	-6
564.201	1	1
564.370	1	1
564.540	1	7
564.710	1	7
564.880	1	11
565.050	1	10
565.220	1	0
565.390	1	9
565.560	1	10
565.730	1	-1
565.900	1	-2
566.069	1	5
566.239	1	2
566.409	1	-4
566.579	1	8
566.749	1	-7
566.919	1	5
567.089	1	2
567.259	1	-3
567.429	1	-3
567.599	1	11
567.768	1	3
567.938	1	-6
568.108	1	9
568.278	1	2
568.448	1	7
568.618	1	2
568.788	1	7
568.958	1	-1
569.128	1	3
569.297	1	-4
569.467	1	-9
569.637	1	10
569.807	1	10
569.977	1	1
570.147	1	11
570.317	1	-3
570.487	1	2
570.656	1	-2
570.826	1	5
570.996	1	-6
571.166	1	7
571.336	1	-10
571.506	1	14
571.676	1	15
571.846	1	1
572.015	1	-4
572.185	1	7
572.355	1	0
572.525	1	-13
572.695	1	3
572.865	1	-7
573.035	1	8
573.205	1	-1
573.374	1	2
573.544	1	-1
573.714	1	-3
573.884	1	5
574.054	1	-1
574.224	1	6
574.394	1	1
574.563	1	9
574.733	1	4
574.903	1	10
575.073	1	-2
575.243	1	-1
575.413	1	-4
575.583	1	2
575.752	1	8
575.922	1	0
576.092	1	-4
576.262	1	6
576.432	1	-1
576.602	1	2
576.772	1	7
576.941	1	6
577.111	1	-1
577.281	1	6
577.451	1	8
577.621	1	11
577.791	1	3
577.960	1	-4
578.130	1	-7
578.300	1	-5
578.470	1	0
578.640	1	8
578.810	1	-8
578.979	1	2
579.149	1	3
579.319	1	-1
579.489	1	3
579.659	1	-2
579.829	1	7
579.998	1	-1
580.168	1	8
580.338	1	5
580.508	1	10
580.678	1	3
580.848	1	12
581.017	1	12
581.187	1	10
581.357	1	-12
581.527	1	2
581.697	1	-6
581.867	1	-2
582.036	1	-1
582.206	1	-4
582.376	1	5
582.546	1	-7
582.716	1	6
582.885	1	-8
583.055	1	0
583.225	1	-10
583.395	1	8
583.565	1	0
583.735	1	9
583.904	1	10
584.074	1	-7
584.244	1	-8
584.414	1	-1
584.584	1	0
584.753	1	8
584.923	1	4
585.093	1	8
585.263	1	-3
585.433	1	-1
585.602	1	13
585.772	1	-2
585.942	1	-4
586.112	1	-5
586.282	1	0
586.451	1	7
586.621	1	13
586.791	1	0
586.961	1	-1
587.131	1	-5
587.300	1	2
587.470	1	1
587.640	1	9
587.810	1	6
587.980	1	0
588.149	1	3
588.319	1	1
588.489	1	-5
588.659	1	-6
588.829	1	12
588.998	1	-1
589.168	1	8
589.338	1	5
589.508	1	7
589.677	1	7
589.847	1	1
590.017	1	0
590.187	1	7
590.357	1	15
590.526	1	2
590.696	1	-1
590.866	1	2
591.036	1	9
591.205	1	1
591.375	1	-5
591.545	1	2
591.715	1	-2
591.885	1	1
592.054	1	-6
592.224	1	5
592.394	1	1
592.564	1	-6
592.733	1	-11
592.903	1	2
593.073	1	1
593.243	1	15
593.412	1	5
593.582	1	2
593.752	1	6
593.922	1	-5
594.091	1	-2
594.261	1	-6
594.431	1	16
594.601	1	-4
594.771	1	13
594.940	1	6
595.110	1	15
595.280	1	2
595.450	1	11
595.619	1	4
595.789	1	-1
595.959	1	13
596.129	1	1
596.298	1	8
596.468	1	-3
596.638	1	2
596.808	1	5
596.977	1	9
597.147	1	-13
597.317	1	5
597.487	1	3
597.656	1	-6
597.826	1	8
597.996	1	12
598.166	1	10
598.335	1	1
598.505	1	4
598.675	1	-2
598.844	1	-3
599.014	1	11
599.184	1	3
599.354	1	7
599.523	1	2
599.693	1	10
599.863	1	5
600.033	1	6
600.202	1	12
600.372	1	-6
600.542	1	-1
600.712	1	7
600.881	1	-10
601.051	1	3
601.221	1	-1
601.390	1	-7
601.560	1	13
601.730	1	7
601.900	1	8
602.069	1	2
602.239	1	9
602.409	1	1
602.578	1	0
602.748	1	2
602.918	1	3
603.088	1	8
603.257	1	4
603.427	1	-3
603.597	1	5
603.767	1	5
603.936	1	1
604.106	1	4
604.276	1	10
604.445	1	3
604.615	1	4
604.785	1	6
604.954	1	15
605.124	1	-1
605.294	1	16
605.464	1	3
605.633	1	-1
605.803	1	8
605.973	1	5
606.142	1	0
606.312	1	-5
606.482	1	9
606.652	1	1
606.821	1	12
606.991	1	-2
607.161	1	4
607.330	1	-7
607.500	1	6
607.670	1	8
607.839	1	11
608.009	1	5
608.179	1	5
608.348	1	5
608.518	1	1
608.688	1	-2
608.858	1	11
609.027	1	6
609.197	1	-9
609.367	1	10
609.536	1	10
609.706	1	4
609.876	1	5
610.045	1	1
610.215	1	3
610.385	1	5
610.554	1	0
610.724	1	-7
610.894	1	5
611.063	1	1
611.233	1	9
611.403	1	1
611.572	1	3
611.742	1	11
611.912	1	0
612.081	1	-1
612.251	1	11
612.421	1	7
612.590	1	7
612.760	1	4
612.930	1	-2
613.099	1	6
613.269	1	0
613.439	1	3
613.608	1	12
613.778	1	-1
613.948	1	4
614.117	1	14
614.287	1	3
614.457	1	-13
614.626	1	9
614.796	1	0
614.966	1	14
615.135	1	11
615.305	1	18
615.475	1	11
615.644	1	3
615.814	1	-7
615.984	1	-4
616.153	1	2
616.323	1	6
616.493	1	21
616.662	1	4
616.832	1	7
617.002	1	5
617.171	1	5
617.341	1	7
617.511	1	6
617.680	1	6
617.850	1	4
618.019	1	7
618.189	1	13
618.359	1	2
618.528	1	12
618.698	1	7
618.868	1	0
619.037	1	10
619.207	1	9
619.377	1	4
619.546	1	4
619.716	1	11
619.885	1	8
620.055	1	16
620.225	1	11
620.394	1	-3
620.564	1	18
620.734	1	4
620.903	1	9
621.073	1	8
621.242	1	13
621.412	1	5
621.582	1	7
621.751	1	12
621.921	1	9
622.091	1	4
622.260	1	-3
622.430	1	6
622.599	1	-6
622.769	1	8
622.939	1	9
623.108	1	6
623.278	1	9
623.448	1	16
623.617	1	11
623.787	1	3
623.956	1	10
624.126	1	16
624.296	1	-2
624.465	1	5
624.635	1	7
624.804	1	2
624.974	1	-4
625.144	1	13
625.313	1	-3
625.483	1	17
625.652	1	13
625.822	1	2
625.992	1	2
626.161	1	10
626.331	1	8
626.501	1	9
626.670	1	3
626.840	1	11
627.009	1	17
627.179	1	12
627.348	1	11
627.518	1	7
627.688	1	6
627.857	1	8
628.027	1	-4
628.196	1	8
628.366	1	8
628.536	1	2
628.705	1	3
628.875	1	11
629.044	1	6
629.214	1	-1
629.384	1	2
629.553	1	13
629.723	1	-1
629.892	1	12
630.062	1	0
630.232	1	10
630.401	1	5
630.571	1	9
630.740	1	7
630.910	1	9
631.079	1	1
631.249	1	6
631.419	1	1
631.588	1	-3
631.758	1	10
631.927	1	12
632.097	1	7
632.266	1	8
632.436	1	5
632.606	1	4
632.775	1	15
632.945	1	8
633.114	1	6
633.284	1	4
633.453	1	5
633.623	1	5
633.793	1	1
633.962	1	-2
634.132	1	8
634.301	1	6
634.471	1	2
634.640	1	7
634.810	1	6
634.979	1	12
635.149	1	9
635.319	1	15
635.488	1	16
635.658	1	11
635.827	1	8
635.997	1	5
636.166	1	4
636.336	1	4
636.505	1	7
636.675	1	14
636.845	1	12
637.014	1	8
637.184	1	11
637.353	1	9
637.523	1	6
637.692	1	9
637.862	1	8
638.031	1	17
638.201	1	12
638.370	1	5
638.540	1	4
638.710	1	8
638.879	1	10
639.049	1	8
639.218	1	7
639.388	1	14
639.557	1	21
639.727	1	15
639.896	1	14
640.066	1	3
640.235	1	7
640.405	1	6
640.574	1	10
640.744	1	17
640.914	1	10
641.083	1	13
641.253	1	21
641.422	1	9
641.592	1	0
641.761	1	12
641.931	1	4
642.100	1	4
642.270	1	-5
642.439	1	8
642.609	1	12
642.778	1	4
642.948	1	-2
643.117	1	6
643.287	1	10
643.456	1	17
643.626	1	18
643.795	1	12
643.965	1	16
644.134	1	2
644.304	1	5
644.473	1	20
644.643	1	-1
644.812	1	15
644.982	1	-2
645.151	1	21
645.321	1	12
645.490	1	3
645.660	1	7
645.829	1	7
645.999	1	1
646.168	1	-1
646.338	1	6
646.507	1	-1
646.677	1	4
646.846	1	7
647.016	1	13
647.185	1	9
647.355	1	11
647.524	1	8
647.694	1	1
647.863	1	-1
648.033	1	2
648.202	1	2
648.372	1	15
648.541	1	6
648.711	1	14
648.880	1	9
649.050	1	4
649.219	1	5
649.389	1	4
649.558	1	6
649.728	1	5
649.897	1	15
650.067	1	-1
650.236	1	14
650.406	1	2
650.575	1	10
650.745	1	2
650.914	1	17
651.084	1	5
651.253	1	3
651.423	1	7
651.592	1	17
651.762	1	9
651.931	1	4
652.101	1	2
652.270	1	15
652.440	1	-4
652.609	1	8
652.778	1	-4
652.948	1	9
653.117	1	-1
653.287	1	9
653.456	1	15
653.626	1	2
653.795	1	16
653.965	1	12
654.134	1	11
654.304	1	4
654.473	1	1
654.643	1	7
654.812	1	12
654.982	1	4
655.151	1	-1
655.320	1	9
655.490	1	7
655.659	1	9
655.829	1	4
655.998	1	1
656.168	1	2
656.337	1	17
656.507	1	8
656.676	1	5
656.846	1	0
657.015	1	3
657.184	1	6
657.354	1	6
657.523	1	4
657.693	1	10
657.862	1	7
658.032	1	11
658.201	1	0
658.371	1	4
658.540	1	-4
658.709	1	-1
658.879	1	-9
659.048	1	0
659.218	1	9
659.387	1	7
659.557	1	16
659.726	1	13
659.895	1	11
660.065	1	6
660.234	1	10
660.404	1	10
660.573	1	23
660.743	1	13
660.912	1	4
661.081	1	15
661.251	1	9
661.420	1	8
661.590	1	-1
661.759	1	4
661.929	1	4
662.098	1	10
662.267	1	2
662.437	1	14
662.606	1	17
662.776	1	-3
662.945	1	-2
663.115	1	9
663.284	1	14
663.453	1	-10
663.623	1	14
663.792	1	9
663.962	1	7
664.131	1	7
664.300	1	13
664.470	1	2
664.639	1	-4
664.809	1	-10
664.978	1	7
665.148	1	14
665.317	1	4
665.486	1	-1
665.656	1	0
665.825	1	3
665.995	1	7
666.164	1	3
666.333	1	12
666.503	1	3
666.672	1	6
666.842	1	3
667.011	1	7
667.180	1	7
667.350	1	11
667.519	1	12
667.689	1	-4
667.858	1	10
668.027	1	14
668.197	1	9
668.366	1	8
668.536	1	14
668.705	1	11
668.874	1	5
669.044	1	3
669.213	1	6
669.382	1	2
669.552	1	8
669.721	1	10
669.891	1	8
670.060	1	19
670.229	1	8
670.399	1	27
670.568	1	-2
670.738	1	-7
670.907	1	1
671.076	1	13
671.246	1	6
671.415	1	14
671.584	1	10
671.754	1	9
671.923	1	4
672.093	1	17
672.262	1	7
672.431	1	4
672.601	1	2
672.770	1	10
672.939	1	-1
673.109	1	1
673.278	1	12
673.448	1	14
673.617	1	3
673.786	1	14
