325.333	1	19
325.504	1	13
325.675	1	10
325.846	1	11
326.017	1	19
326.188	1	16
326.359	1	6
326.531	1	19
326.702	1	7
326.873	1	18
327.044	1	20
327.215	1	14
327.386	1	12
327.557	1	26
327.728	1	17
327.899	1	20
328.070	1	20
328.241	1	14
328.412	1	22
328.583	1	20
328.754	1	15
328.926	1	13
329.097	1	10
329.268	1	10
329.439	1	18
329.610	1	20
329.781	1	13
329.952	1	23
330.123	1	11
330.294	1	8
330.465	1	11
330.636	1	10
330.807	1	29
330.978	1	21
331.149	1	31
331.320	1	16
331.492	1	12
331.663	1	24
331.834	1	14
332.005	1	18
332.176	1	17
332.347	1	25
332.518	1	10
332.689	1	17
332.860	1	18
333.031	1	22
333.202	1	2
333.373	1	17
333.544	1	24
333.715	1	24
333.886	1	12
334.057	1	29
334.228	1	17
334.399	1	26
334.570	1	21
334.741	1	21
334.912	1	21
335.084	1	23
335.255	1	25
335.426	1	18
335.597	1	25
335.768	1	26
335.939	1	21
336.110	1	15
336.281	1	17
336.452	1	21
336.623	1	22
336.794	1	22
336.965	1	19
337.136	1	15
337.307	1	22
337.478	1	18
337.649	1	25
337.820	1	24
337.991	1	19
338.162	1	19
338.333	1	13
338.504	1	11
338.675	1	31
338.846	1	19
339.017	1	26
339.188	1	30
339.359	1	31
339.530	1	25
339.701	1	19
339.872	1	33
340.043	1	10
340.214	1	15
340.385	1	38
340.556	1	17
340.727	1	26
340.898	1	30
341.069	1	15
341.240	1	25
341.411	1	19
341.582	1	26
341.753	1	10
341.924	1	13
342.095	1	21
342.266	1	21
342.437	1	32
342.608	1	35
342.779	1	26
342.950	1	38
343.121	1	25
343.292	1	22
343.463	1	32
343.634	1	16
343.805	1	20
343.976	1	31
344.147	1	21
344.318	1	22
344.489	1	35
344.660	1	32
344.831	1	42
345.002	1	35
345.173	1	31
345.344	1	27
345.515	1	19
345.686	1	40
345.857	1	17
346.028	1	28
346.199	1	32
346.370	1	29
346.541	1	31
346.712	1	38
346.883	1	21
347.054	1	34
347.225	1	32
347.396	1	16
347.567	1	32
347.738	1	27
347.909	1	28
348.080	1	24
348.251	1	33
348.422	1	36
348.593	1	19
348.764	1	23
348.935	1	21
349.106	1	23
349.277	1	30
349.448	1	25
349.619	1	21
349.790	1	48
349.961	1	34
350.132	1	30
350.303	1	30
350.474	1	33
350.645	1	30
350.816	1	26
350.987	1	29
351.157	1	31
351.328	1	31
351.499	1	25
351.670	1	18
351.841	1	31
352.012	1	36
352.183	1	13
352.354	1	16
352.525	1	30
352.696	1	40
352.867	1	41
353.038	1	18
353.209	1	42
353.380	1	29
353.551	1	24
353.722	1	36
353.893	1	31
354.064	1	35
354.235	1	32
354.406	1	47
354.576	1	31
354.747	1	40
354.918	1	40
355.089	1	31
355.260	1	46
355.431	1	37
355.602	1	32
355.773	1	26
355.944	1	28
356.115	1	41
356.286	1	36
356.457	1	40
356.628	1	31
356.799	1	36
356.970	1	39
357.141	1	28
357.311	1	37
357.482	1	33
357.653	1	46
357.824	1	42
357.995	1	31
358.166	1	39
358.337	1	37
358.508	1	41
358.679	1	42
358.850	1	31
359.021	1	38
359.192	1	35
359.363	1	40
359.533	1	28
359.704	1	52
359.875	1	43
360.046	1	41
360.217	1	45
360.388	1	31
360.559	1	38
360.730	1	35
360.901	1	35
361.072	1	39
361.243	1	49
361.414	1	37
361.584	1	22
361.755	1	34
361.926	1	44
362.097	1	26
362.268	1	41
362.439	1	28
362.610	1	33
362.781	1	30
362.952	1	43
363.123	1	39
363.293	1	38
363.464	1	39
363.635	1	41
363.806	1	33
363.977	1	32
364.148	1	30
364.319	1	39
364.490	1	43
364.661	1	37
364.832	1	48
365.002	1	36
365.173	1	39
365.344	1	45
365.515	1	31
365.686	1	31
365.857	1	47
366.028	1	38
366.199	1	41
366.370	1	44
366.540	1	37
366.711	1	35
366.882	1	31
367.053	1	38
367.224	1	40
367.395	1	40
367.566	1	34
367.737	1	40
367.908	1	33
368.078	1	45
368.249	1	42
368.420	1	39
368.591	1	42
368.762	1	31
368.933	1	37
369.104	1	42
369.274	1	34
369.445	1	36
369.616	1	35
369.787	1	44
369.958	1	46
370.129	1	20
370.300	1	42
370.471	1	44
370.641	1	32
370.812	1	41
370.983	1	33
371.154	1	39
371.325	1	41
371.496	1	39
371.667	1	36
371.837	1	46
372.008	1	29
372.179	1	38
372.350	1	43
372.521	1	32
372.692	1	36
372.863	1	32
373.033	1	43
373.204	1	40
373.375	1	40
373.546	1	63
373.717	1	34
373.888	1	44
374.059	1	43
374.229	1	35
374.400	1	36
374.571	1	37
374.742	1	43
374.913	1	42
375.084	1	43
375.254	1	32
375.425	1	36
375.596	1	43
375.767	1	45
375.938	1	42
376.109	1	47
376.279	1	40
376.450	1	43
376.621	1	33
376.792	1	39
376.963	1	38
377.134	1	46
377.304	1	38
377.475	1	40
377.646	1	38
377.817	1	40
377.988	1	42
378.159	1	48
378.329	1	41
378.500	1	43
378.671	1	40
378.842	1	42
379.013	1	42
379.184	1	42
379.354	1	46
379.525	1	37
379.696	1	52
379.867	1	47
380.038	1	57
380.209	1	42
380.379	1	53
380.550	1	54
380.721	1	45
380.892	1	43
381.063	1	44
381.233	1	52
381.404	1	45
381.575	1	47
381.746	1	54
381.917	1	48
382.087	1	56
382.258	1	59
382.429	1	53
382.600	1	48
382.771	1	43
382.941	1	56
383.112	1	43
383.283	1	52
383.454	1	36
383.625	1	33
383.795	1	53
383.966	1	36
384.137	1	44
384.308	1	47
384.479	1	42
384.649	1	45
384.820	1	58
384.991	1	49
385.162	1	56
385.333	1	48
385.503	1	45
385.674	1	36
385.845	1	46
386.016	1	57
386.187	1	49
386.357	1	41
386.528	1	38
386.699	1	55
386.870	1	51
387.041	1	71
387.211	1	45
387.382	1	41
387.553	1	58
387.724	1	59
387.894	1	48
388.065	1	38
388.236	1	50
388.407	1	59
388.578	1	45
388.748	1	58
388.919	1	52
389.090	1	62
389.261	1	53
389.431	1	47
389.602	1	73
389.773	1	61
389.944	1	72
390.114	1	68
390.285	1	55
390.456	1	46
390.627	1	65
390.798	1	57
390.968	1	65
391.139	1	49
391.310	1	71
391.481	1	62
391.651	1	69
391.822	1	69
391.993	1	55
392.164	1	61
392.334	1	44
392.505	1	66
392.676	1	60
392.847	1	66
393.017	1	55
393.188	1	65
393.359	1	53
393.530	1	63
393.700	1	51
393.871	1	55
394.042	1	46
394.213	1	53
394.383	1	48
394.554	1	66
394.725	1	56
394.896	1	64
395.066	1	47
395.237	1	54
395.408	1	56
395.579	1	53
395.749	1	58
395.920	1	50
396.091	1	63
396.262	1	50
396.432	1	56
396.603	1	60
396.774	1	53
396.945	1	52
397.115	1	57
397.286	1	49
397.457	1	49
397.627	1	58
397.798	1	59
397.969	1	63
398.140	1	61
398.310	1	62
398.481	1	50
398.652	1	52
398.823	1	59
398.993	1	64
399.164	1	64
399.335	1	60
399.505	1	61
399.676	1	57
399.847	1	53
400.018	1	74
400.188	1	53
400.359	1	63
400.530	1	64
400.700	1	70
400.871	1	68
401.042	1	75
401.213	1	73
401.383	1	66
401.554	1	62
401.725	1	58
401.895	1	67
402.066	1	67
402.237	1	73
402.408	1	66
402.578	1	60
402.749	1	64
402.920	1	62
403.090	1	72
403.261	1	74
403.432	1	66
403.603	1	66
403.773	1	71
403.944	1	69
404.115	1	59
404.285	1	73
404.456	1	72
404.627	1	60
404.797	1	66
404.968	1	68
405.139	1	78
405.310	1	66
405.480	1	60
405.651	1	56
405.822	1	66
405.992	1	66
406.163	1	76
406.334	1	78
406.504	1	65
406.675	1	81
406.846	1	74
407.016	1	76
407.187	1	66
407.358	1	75
407.528	1	78
407.699	1	60
407.870	1	64
408.041	1	66
408.211	1	73
408.382	1	72
408.553	1	71
408.723	1	64
408.894	1	64
409.065	1	62
409.235	1	72
409.406	1	72
409.577	1	68
409.747	1	65
409.918	1	70
410.089	1	72
410.259	1	60
410.430	1	82
410.601	1	71
410.771	1	72
410.942	1	65
411.113	1	67
411.283	1	71
411.454	1	78
411.625	1	78
411.795	1	57
411.966	1	81
412.137	1	74
412.307	1	76
412.478	1	84
412.649	1	73
412.819	1	66
412.990	1	62
413.161	1	87
413.331	1	74
413.502	1	78
413.672	1	76
413.843	1	78
414.014	1	73
414.184	1	66
414.355	1	75
414.526	1	70
414.696	1	82
414.867	1	77
415.038	1	72
415.208	1	75
415.379	1	78
415.550	1	75
415.720	1	70
415.891	1	80
416.062	1	64
416.232	1	62
416.403	1	69
416.573	1	72
416.744	1	77
416.915	1	82
417.085	1	74
417.256	1	84
417.427	1	66
417.597	1	73
417.768	1	75
417.939	1	70
418.109	1	81
418.280	1	71
418.450	1	75
418.621	1	81
418.792	1	76
418.962	1	59
419.133	1	67
419.304	1	65
419.474	1	70
419.645	1	70
419.815	1	65
419.986	1	74
420.157	1	65
420.327	1	61
420.498	1	78
420.669	1	74
420.839	1	65
421.010	1	76
421.180	1	67
421.351	1	79
421.522	1	63
421.692	1	75
421.863	1	75
422.033	1	62
422.204	1	85
422.375	1	65
422.545	1	82
422.716	1	72
422.886	1	65
423.057	1	76
423.228	1	74
423.398	1	79
423.569	1	69
423.740	1	68
423.910	1	72
424.081	1	67
424.251	1	64
424.422	1	73
424.593	1	72
424.763	1	77
424.934	1	76
425.104	1	72
425.275	1	75
425.445	1	69
425.616	1	70
425.787	1	64
425.957	1	69
426.128	1	72
426.298	1	79
426.469	1	73
426.640	1	74
426.810	1	85
426.981	1	82
427.151	1	69
427.322	1	86
427.493	1	79
427.663	1	79
427.834	1	73
428.004	1	66
428.175	1	84
428.345	1	71
428.516	1	75
428.687	1	70
428.857	1	61
429.028	1	66
429.198	1	79
429.369	1	80
429.540	1	65
429.710	1	71
429.881	1	66
430.051	1	68
430.222	1	71
430.392	1	67
430.563	1	88
430.734	1	73
430.904	1	65
431.075	1	74
431.245	1	61
431.416	1	91
431.586	1	66
431.757	1	60
431.927	1	79
432.098	1	53
432.269	1	75
432.439	1	71
432.610	1	75
432.780	1	62
432.951	1	71
433.121	1	72
433.292	1	77
433.462	1	68
433.633	1	62
433.804	1	72
433.974	1	61
434.145	1	61
434.315	1	67
434.486	1	79
434.656	1	78
434.827	1	67
434.997	1	70
435.168	1	74
435.339	1	64
435.509	1	63
435.680	1	68
435.850	1	67
436.021	1	73
436.191	1	75
436.362	1	68
436.532	1	72
436.703	1	75
436.873	1	63
437.044	1	68
437.214	1	65
437.385	1	66
437.556	1	68
437.726	1	71
437.897	1	73
438.067	1	62
438.238	1	61
438.408	1	69
438.579	1	69
438.749	1	68
438.920	1	68
439.090	1	75
439.261	1	59
439.431	1	63
439.602	1	61
439.772	1	60
439.943	1	73
440.113	1	76
440.284	1	63
440.455	1	67
440.625	1	78
440.796	1	71
440.966	1	68
441.137	1	64
441.307	1	61
441.478	1	62
441.648	1	59
441.819	1	65
441.989	1	78
442.160	1	58
442.330	1	62
442.501	1	62
442.671	1	67
442.842	1	78
443.012	1	61
443.183	1	56
443.353	1	64
443.524	1	55
443.694	1	64
443.865	1	72
444.035	1	64
444.206	1	56
444.376	1	73
444.547	1	70
444.717	1	49
444.888	1	57
445.058	1	62
445.229	1	54
445.399	1	63
445.570	1	57
445.740	1	57
445.911	1	67
446.081	1	73
446.252	1	65
446.422	1	60
446.593	1	53
446.763	1	56
446.934	1	72
447.104	1	57
447.275	1	70
447.445	1	62
447.616	1	58
447.786	1	63
447.957	1	57
448.127	1	58
448.298	1	59
448.468	1	54
448.639	1	57
448.809	1	61
448.979	1	61
449.150	1	52
449.320	1	54
449.491	1	55
449.661	1	74
449.832	1	67
450.002	1	61
450.173	1	47
450.343	1	67
450.514	1	75
450.684	1	55
450.855	1	69
451.025	1	62
451.196	1	60
451.366	1	61
451.537	1	61
451.707	1	64
451.878	1	42
452.048	1	59
452.218	1	56
452.389	1	53
452.559	1	55
452.730	1	53
452.900	1	59
453.071	1	65
453.241	1	64
453.412	1	55
453.582	1	55
453.753	1	55
453.923	1	63
454.093	1	64
454.264	1	63
454.434	1	60
454.605	1	61
454.775	1	53
454.946	1	66
455.116	1	55
455.287	1	48
455.457	1	53
455.628	1	56
455.798	1	57
455.968	1	68
456.139	1	45
456.309	1	48
456.480	1	57
456.650	1	62
456.821	1	64
456.991	1	53
457.161	1	56
457.332	1	55
457.502	1	41
457.673	1	57
457.843	1	56
458.014	1	52
458.184	1	46
458.355	1	35
458.525	1	51
458.695	1	50
458.866	1	56
459.036	1	42
459.207	1	54
459.377	1	54
459.548	1	52
459.718	1	47
459.888	1	54
460.059	1	42
460.229	1	51
460.400	1	55
460.570	1	51
460.740	1	49
460.911	1	48
461.081	1	40
461.252	1	63
461.422	1	42
461.593	1	45
461.763	1	42
461.933	1	52
462.104	1	63
462.274	1	48
462.445	1	45
462.615	1	48
462.785	1	51
462.956	1	46
463.126	1	32
463.297	1	45
463.467	1	49
463.638	1	44
463.808	1	40
463.978	1	51
464.149	1	49
464.319	1	39
464.490	1	40
464.660	1	49
464.830	1	42
465.001	1	51
465.171	1	44
465.342	1	42
465.512	1	45
465.682	1	41
465.853	1	42
466.023	1	51
466.194	1	47
466.364	1	51
466.534	1	52
466.705	1	47
466.875	1	37
467.045	1	47
467.216	1	40
467.386	1	48
467.557	1	33
467.727	1	35
467.897	1	45
468.068	1	52
468.238	1	46
468.409	1	39
468.579	1	43
468.749	1	48
468.920	1	40
469.090	1	61
469.260	1	33
469.431	1	47
469.601	1	41
469.772	1	36
469.942	1	43
470.112	1	53
470.283	1	50
470.453	1	42
470.623	1	46
470.794	1	40
470.964	1	35
471.135	1	49
471.305	1	40
471.475	1	48
471.646	1	33
471.816	1	31
471.986	1	40
472.157	1	39
472.327	1	37
472.497	1	35
472.668	1	45
472.838	1	39
473.009	1	59
473.179	1	37
473.349	1	46
473.520	1	38
473.690	1	42
473.860	1	42
474.031	1	37
474.201	1	43
474.371	1	38
474.542	1	45
474.712	1	32
474.882	1	41
475.053	1	37
475.223	1	38
475.394	1	38
475.564	1	36
475.734	1	36
475.905	1	31
476.075	1	36
476.245	1	48
476.416	1	44
476.586	1	38
476.756	1	43
476.927	1	39
477.097	1	35
477.267	1	35
477.438	1	21
477.608	1	33
477.778	1	41
477.949	1	36
478.119	1	32
478.289	1	44
478.460	1	46
478.630	1	36
478.800	1	41
478.971	1	33
479.141	1	35
479.311	1	29
479.482	1	41
479.652	1	34
479.822	1	45
479.993	1	30
480.163	1	34
480.333	1	42
480.504	1	43
480.674	1	40
480.844	1	35
481.015	1	30
481.185	1	36
481.355	1	33
481.525	1	35
481.696	1	42
481.866	1	43
482.036	1	35
482.207	1	36
482.377	1	37
482.547	1	49
482.718	1	28
482.888	1	45
483.058	1	36
483.229	1	42
483.399	1	45
483.569	1	35
483.740	1	36
483.910	1	25
484.080	1	39
484.250	1	35
484.421	1	37
484.591	1	27
484.761	1	37
484.932	1	37
485.102	1	39
485.272	1	29
485.443	1	41
485.613	1	36
485.783	1	31
485.953	1	25
486.124	1	26
486.294	1	35
486.464	1	30
486.635	1	39
486.805	1	23
486.975	1	29
487.146	1	26
487.316	1	45
487.486	1	36
487.656	1	31
487.827	1	34
487.997	1	37
488.167	1	44
488.338	1	31
488.508	1	34
488.678	1	29
488.848	1	37
489.019	1	45
489.189	1	44
489.359	1	36
489.529	1	25
489.700	1	19
489.870	1	29
490.040	1	27
490.211	1	31
490.381	1	33
490.551	1	16
490.721	1	34
490.892	1	40
491.062	1	29
491.232	1	31
491.402	1	33
491.573	1	43
491.743	1	31
491.913	1	28
492.084	1	22
492.254	1	45
492.424	1	30
492.594	1	31
492.765	1	29
492.935	1	39
493.105	1	27
493.275	1	13
493.446	1	39
493.616	1	21
493.786	1	28
493.956	1	29
494.127	1	22
494.297	1	27
494.467	1	36
494.637	1	27
494.808	1	17
494.978	1	27
495.148	1	35
495.318	1	17
495.489	1	29
495.659	1	36
495.829	1	29
495.999	1	33
496.170	1	32
496.340	1	34
496.510	1	29
496.680	1	28
496.851	1	13
497.021	1	21
497.191	1	26
497.361	1	24
497.532	1	14
497.702	1	25
497.872	1	17
498.042	1	23
498.213	1	28
498.383	1	26
498.553	1	22
498.723	1	25
498.894	1	30
499.064	1	19
499.234	1	19
499.404	1	26
499.574	1	28
499.745	1	25
499.915	1	22
500.085	1	21
500.255	1	25
500.426	1	23
500.596	1	27
500.766	1	21
500.936	1	23
501.106	1	28
501.277	1	30
501.447	1	23
501.617	1	19
501.787	1	24
501.958	1	21
502.128	1	37
502.298	1	31
502.468	1	24
502.638	1	13
502.809	1	25
502.979	1	15
503.149	1	20
503.319	1	20
503.489	1	15
503.660	1	19
503.830	1	22
504.000	1	19
504.170	1	16
504.340	1	18
504.511	1	24
504.681	1	22
504.851	1	28
505.021	1	16
505.192	1	21
505.362	1	20
505.532	1	7
505.702	1	9
505.872	1	24
506.043	1	23
506.213	1	27
506.383	1	22
506.553	1	11
506.723	1	26
506.893	1	19
507.064	1	23
507.234	1	19
507.404	1	25
507.574	1	20
507.744	1	18
507.915	1	22
508.085	1	10
508.255	1	21
508.425	1	17
508.595	1	20
508.766	1	12
508.936	1	30
509.106	1	7
509.276	1	21
509.446	1	30
509.616	1	14
509.787	1	21
509.957	1	23
510.127	1	18
510.297	1	24
510.467	1	16
510.638	1	18
510.808	1	13
510.978	1	22
511.148	1	30
511.318	1	16
511.488	1	23
511.659	1	19
511.829	1	24
511.999	1	17
512.169	1	9
512.339	1	18
512.509	1	26
512.680	1	17
512.850	1	15
513.020	1	34
513.190	1	14
513.360	1	7
513.530	1	29
513.700	1	20
513.871	1	14
514.041	1	18
514.211	1	22
514.381	1	35
514.551	1	6
514.721	1	17
514.892	1	24
515.062	1	20
515.232	1	29
515.402	1	20
515.572	1	18
515.742	1	17
515.912	1	12
516.083	1	16
516.253	1	25
516.423	1	12
516.593	1	13
516.763	1	19
516.933	1	23
517.104	1	12
517.274	1	24
517.444	1	16
517.614	1	27
517.784	1	8
517.954	1	11
518.124	1	16
518.294	1	14
518.465	1	18
518.635	1	20
518.805	1	14
518.975	1	13
519.145	1	10
519.315	1	18
519.485	1	16
519.656	1	16
519.826	1	8
519.996	1	20
520.166	1	14
520.336	1	10
520.506	1	25
520.676	1	23
520.846	1	24
521.017	1	7
521.187	1	16
521.357	1	15
521.527	1	13
521.697	1	19
521.867	1	13
522.037	1	12
522.207	1	21
522.377	1	14
522.548	1	14
522.718	1	27
522.888	1	18
523.058	1	15
523.228	1	1
523.398	1	18
523.568	1	14
523.738	1	16
523.909	1	24
524.079	1	13
524.249	1	8
524.419	1	15
524.589	1	22
524.759	1	22
524.929	1	18
525.099	1	3
525.269	1	3
525.439	1	22
525.610	1	13
525.780	1	15
525.950	1	14
526.120	1	11
526.290	1	18
526.460	1	16
526.630	1	15
526.800	1	16
526.970	1	14
527.140	1	28
527.311	1	23
527.481	1	11
527.651	1	19
527.821	1	16
527.991	1	18
528.161	1	3
528.331	1	17
528.501	1	11
528.671	1	19
528.841	1	20
529.011	1	9
529.181	1	14
529.352	1	26
529.522	1	22
529.692	1	10
529.862	1	16
530.032	1	9
530.202	1	24
530.372	1	16
530.542	1	3
530.712	1	19
530.882	1	22
531.052	1	12
531.222	1	14
531.392	1	23
531.563	1	14
531.733	1	13
531.903	1	16
532.073	1	10
532.243	1	22
532.413	1	13
532.583	1	16
532.753	1	24
532.923	1	20
533.093	1	19
533.263	1	17
533.433	1	16
533.603	1	7
533.773	1	16
533.943	1	14
534.113	1	12
534.284	1	4
534.454	1	12
534.624	1	19
534.794	1	11
534.964	1	10
535.134	1	20
535.304	1	16
535.474	1	14
535.644	1	27
535.814	1	13
535.984	1	11
536.154	1	13
536.324	1	5
536.494	1	13
536.664	1	17
536.834	1	16
537.004	1	16
537.174	1	6
537.344	1	15
537.514	1	19
537.685	1	18
537.855	1	8
538.025	1	13
538.195	1	15
538.365	1	21
538.535	1	9
538.705	1	5
538.875	1	15
539.045	1	15
539.215	1	14
539.385	1	8
539.555	1	13
539.725	1	12
539.895	1	16
540.065	1	12
540.235	1	15
540.405	1	11
540.575	1	18
540.745	1	14
540.915	1	5
541.085	1	8
541.255	1	16
541.425	1	2
541.595	1	20
541.765	1	21
541.935	1	6
542.105	1	19
542.275	1	15
542.445	1	14
542.615	1	19
542.785	1	14
542.955	1	13
543.125	1	8
543.295	1	20
543.465	1	16
543.635	1	4
543.805	1	8
543.975	1	8
544.145	1	15
544.315	1	9
544.485	1	15
544.655	1	20
544.825	1	8
544.995	1	22
545.165	1	14
545.335	1	0
545.505	1	10
545.675	1	-2
545.845	1	13
546.015	1	6
546.185	1	12
546.355	1	16
546.525	1	5
546.695	1	1
546.865	1	17
547.035	1	8
547.205	1	22
547.375	1	14
547.545	1	4
547.715	1	14
547.885	1	5
548.055	1	15
548.225	1	21
548.395	1	17
548.565	1	23
548.735	1	12
548.905	1	4
549.075	1	8
549.245	1	15
549.415	1	15
549.585	1	12
549.755	1	16
549.925	1	6
550.095	1	13
550.265	1	22
550.435	1	9
550.605	1	14
550.775	1	21
550.945	1	7
551.115	1	11
551.285	1	8
551.455	1	14
551.625	1	12
551.795	1	1
551.965	1	2
552.135	1	17
552.305	1	6
552.475	1	17
552.645	1	9
552.815	1	6
552.985	1	10
553.155	1	11
553.325	1	3
553.495	1	18
553.665	1	1
553.835	1	12
554.004	1	16
554.174	1	12
554.344	1	10
554.514	1	9
554.684	1	6
554.854	1	-2
555.024	1	-1
555.194	1	2
555.364	1	10
555.534	1	3
555.704	1	22
555.874	1	6
556.044	1	11
556.214	1	18
556.384	1	17
556.554	1	9
556.724	1	13
556.894	1	1
557.064	1	9
557.234	1	4
557.404	1	11
557.573	1	9
557.743	1	16
557.913	1	18
558.083	1	6
558.253	1	6
558.423	1	10
558.593	1	3
558.763	1	12
558.933	1	7
559.103	1	19
559.273	1	8
559.443	1	10
559.613	1	5
559.783	1	6
559.953	1	5
560.122	1	11
560.292	1	30
560.462	1	13
560.632	1	3
560.802	1	20
560.972	1	3
561.142	1	3
561.312	1	9
561.482	1	5
561.652	1	7
561.822	1	-1
561.992	1	10
562.162	1	7
562.331	1	4
562.501	1	3
562.671	1	8
562.841	1	5
563.011	1	15
563.181	1	9
563.351	1	13
563.521	1	7
563.691	1	15
563.861	1	15
564.031	1	1
564.201	1	23
564.370	1	6
564.540	1	17
564.710	1	14
564.880	1	16
565.050	1	8
565.220	1	12
565.390	1	16
565.560	1	16
565.730	1	10
565.900	1	17
566.069	1	9
566.239	1	13
566.409	1	-6
566.579	1	8
566.749	1	9
566.919	1	8
567.089	1	11
567.259	1	15
567.429	1	4
567.599	1	13
567.768	1	8
567.938	1	3
568.108	1	14
568.278	1	13
568.448	1	14
568.618	1	4
568.788	1	9
568.958	1	2
569.128	1	12
569.297	1	2
569.467	1	2
569.637	1	9
569.807	1	16
569.977	1	10
570.147	1	11
570.317	1	3
570.487	1	4
570.656	1	-1
570.826	1	8
570.996	1	0
571.166	1	19
571.336	1	0
571.506	1	15
571.676	1	16
571.846	1	9
572.015	1	3
572.185	1	11
572.355	1	6
572.525	1	4
572.695	1	5
572.865	1	-1
573.035	1	16
573.205	1	12
573.374	1	8
573.544	1	11
573.714	1	7
573.884	1	14
574.054	1	9
574.224	1	5
574.394	1	12
574.563	1	12
574.733	1	8
574.903	1	15
575.073	1	8
575.243	1	12
575.413	1	-1
575.583	1	16
575.752	1	21
575.922	1	5
576.092	1	5
576.262	1	-2
576.432	1	11
576.602	1	4
576.772	1	21
576.941	1	5
577.111	1	6
577.281	1	8
577.451	1	10
577.621	1	6
577.791	1	10
577.960	1	6
578.130	1	3
578.300	1	2
578.470	1	5
578.640	1	9
578.810	1	0
578.979	1	9
579.149	1	10
579.319	1	1
579.489	1	-4
579.659	1	5
579.829	1	1
579.998	1	10
580.168	1	8
580.338	1	12
580.508	1	22
580.678	1	12
580.848	1	7
581.017	1	16
581.187	1	6
581.357	1	2
581.527	1	5
581.697	1	2
581.867	1	11
582.036	1	4
582.206	1	19
582.376	1	9
582.546	1	4
582.716	1	-5
582.885	1	-3
583.055	1	10
583.225	1	11
583.395	1	21
583.565	1	7
583.735	1	16
583.904	1	13
584.074	1	-1
584.244	1	0
584.414	1	7
584.584	1	1
584.753	1	17
584.923	1	4
585.093	1	11
585.263	1	13
585.433	1	4
585.602	1	3
585.772	1	-3
585.942	1	6
586.112	1	5
586.282	1	8
586.451	1	20
586.621	1	15
586.791	1	6
586.961	1	12
587.131	1	3
587.300	1	4
587.470	1	9
587.640	1	12
587.810	1	16
587.980	1	14
588.149	1	10
588.319	1	11
588.489	1	9
588.659	1	10
588.829	1	13
588.998	1	10
589.168	1	10
589.338	1	4
589.508	1	12
589.677	1	11
589.847	1	17
590.017	1	8
590.187	1	10
590.357	1	14
590.526	1	10
590.696	1	0
590.866	1	-1
591.036	1	15
591.205	1	7
591.375	1	14
591.545	1	6
591.715	1	7
591.885	1	9
592.054	1	3
592.224	1	14
592.394	1	1
592.564	1	11
592.733	1	2
592.903	1	10
593.073	1	5
593.243	1	19
593.412	1	7
593.582	1	11
593.752	1	5
593.922	1	10
594.091	1	7
594.261	1	1
594.431	1	19
594.601	1	2
594.771	1	11
594.940	1	18
595.110	1	12
595.280	1	0
595.450	1	12
595.619	1	8
595.789	1	12
595.959	1	15
596.129	1	1
596.298	1	12
596.468	1	6
596.638	1	10
596.808	1	13
596.977	1	8
597.147	1	1
597.317	1	1
597.487	1	16
597.656	1	5
597.826	1	13
597.996	1	19
598.166	1	10
598.335	1	16
598.505	1	11
598.675	1	3
598.844	1	1
599.014	1	16
599.184	1	10
599.354	1	16
599.523	1	15
599.693	1	9
599.863	1	11
600.033	1	3
600.202	1	12
600.372	1	12
600.542	1	8
600.712	1	6
600.881	1	0
601.051	1	5
601.221	1	14
601.390	1	-3
601.560	1	22
601.730	1	15
601.900	1	9
602.069	1	15
602.239	1	12
602.409	1	14
602.578	1	11
602.748	1	8
602.918	1	10
603.088	1	13
603.257	1	10
603.427	1	1
603.597	1	10
603.767	1	16
603.936	1	7
604.106	1	4
604.276	1	22
604.445	1	11
604.615	1	11
604.785	1	14
604.954	1	14
605.124	1	-4
605.294	1	7
605.464	1	3
605.633	1	12
605.803	1	8
605.973	1	16
606.142	1	10
606.312	1	4
606.482	1	4
606.652	1	10
606.821	1	1
606.991	1	11
607.161	1	11
607.330	1	-1
607.500	1	5
607.670	1	22
607.839	1	13
608.009	1	13
608.179	1	5
608.348	1	12
608.518	1	6
608.688	1	6
608.858	1	10
609.027	1	9
609.197	1	5
609.367	1	15
609.536	1	13
609.706	1	8
609.876	1	18
610.045	1	9
610.215	1	10
610.385	1	6
610.554	1	5
610.724	1	8
610.894	1	10
611.063	1	6
611.233	1	14
611.403	1	7
611.572	1	20
611.742	1	10
611.912	1	14
612.081	1	3
612.251	1	14
612.421	1	17
612.590	1	3
612.760	1	15
612.930	1	8
613.099	1	7
613.269	1	10
613.439	1	10
613.608	1	12
613.778	1	1
613.948	1	18
614.117	1	18
614.287	1	7
614.457	1	4
614.626	1	28
614.796	1	9
614.966	1	12
615.135	1	6
615.305	1	6
615.475	1	5
615.644	1	6
615.814	1	1
615.984	1	13
616.153	1	10
616.323	1	22
616.493	1	25
616.662	1	10
616.832	1	14
617.002	1	14
617.171	1	6
617.341	1	19
617.511	1	5
617.680	1	36
617.850	1	17
618.019	1	8
618.189	1	25
618.359	1	13
618.528	1	-2
618.698	1	12
618.868	1	4
619.037	1	8
619.207	1	11
619.377	1	8
619.546	1	16
619.716	1	5
619.885	1	14
620.055	1	13
620.225	1	13
620.394	1	6
620.564	1	18
620.734	1	15
620.903	1	12
621.073	1	14
621.242	1	13
621.412	1	20
621.582	1	7
621.751	1	20
621.921	1	7
622.091	1	7
622.260	1	1
622.430	1	8
622.599	1	10
622.769	1	10
622.939	1	12
623.108	1	10
623.278	1	9
623.448	1	13
623.617	1	11
623.787	1	9
623.956	1	18
624.126	1	26
624.296	1	10
624.465	1	11
624.635	1	19
624.804	1	6
624.974	1	12
625.144	1	0
625.313	1	8
625.483	1	21
625.652	1	16
625.822	1	11
625.992	1	23
626.161	1	26
626.331	1	15
626.501	1	11
626.670	1	9
626.840	1	22
627.009	1	10
627.179	1	15
627.348	1	15
627.518	1	21
627.688	1	20
627.857	1	16
628.027	1	-2
628.196	1	10
628.366	1	6
628.536	1	3
628.705	1	4
628.875	1	27
629.044	1	18
629.214	1	19
629.384	1	15
629.553	1	16
629.723	1	4
629.892	1	16
630.062	1	10
630.232	1	13
630.401	1	25
630.571	1	17
630.740	1	12
630.910	1	13
631.079	1	14
631.249	1	17
631.419	1	3
631.588	1	11
631.758	1	17
631.927	1	13
632.097	1	13
632.266	1	13
632.436	1	18
632.606	1	12
632.775	1	26
632.945	1	14
633.114	1	12
633.284	1	-4
633.453	1	6
633.623	1	10
633.793	1	5
633.962	1	12
634.132	1	9
634.301	1	13
634.471	1	10
634.640	1	7
634.810	1	22
634.979	1	12
635.149	1	13
635.319	1	23
635.488	1	28
635.658	1	19
635.827	1	16
635.997	1	14
636.166	1	4
636.336	1	12
636.505	1	27
636.675	1	18
636.845	1	17
637.014	1	15
637.184	1	16
637.353	1	11
637.523	1	6
637.692	1	9
637.862	1	20
638.031	1	20
638.201	1	19
638.370	1	14
638.540	1	12
638.710	1	26
638.879	1	12
639.049	1	26
639.218	1	14
639.388	1	20
639.557	1	18
639.727	1	13
639.896	1	8
640.066	1	30
640.235	1	20
640.405	1	10
640.574	1	15
640.744	1	18
640.914	1	29
641.083	1	24
641.253	1	26
641.422	1	10
641.592	1	6
641.761	1	13
641.931	1	9
642.100	1	5
642.270	1	12
642.439	1	12
642.609	1	15
642.778	1	11
642.948	1	11
643.117	1	22
643.287	1	8
643.456	1	18
643.626	1	19
643.795	1	11
643.965	1	19
644.134	1	20
644.304	1	8
644.473	1	15
644.643	1	11
644.812	1	19
644.982	1	21
645.151	1	27
645.321	1	13
645.490	1	15
645.660	1	7
645.829	1	9
645.999	1	17
646.168	1	11
646.338	1	7
646.507	1	13
646.677	1	10
646.846	1	17
647.016	1	19
647.185	1	12
647.355	1	7
647.524	1	13
647.694	1	10
647.863	1	11
648.033	1	-2
648.202	1	13
648.372	1	30
648.541	1	15
648.711	1	16
648.880	1	21
649.050	1	3
649.219	1	2
649.389	1	12
649.558	1	12
649.728	1	7
649.897	1	20
650.067	1	17
650.236	1	18
650.406	1	17
650.575	1	16
650.745	1	11
650.914	1	19
651.084	1	10
651.253	1	19
651.423	1	19
651.592	1	17
651.762	1	15
651.931	1	14
652.101	1	19
652.270	1	24
652.440	1	9
652.609	1	18
652.778	1	7
652.948	1	22
653.117	1	5
653.287	1	22
653.456	1	18
653.626	1	8
653.795	1	21
653.965	1	10
654.134	1	21
654.304	1	17
654.473	1	16
654.643	1	17
654.812	1	12
654.982	1	14
655.151	1	12
655.320	1	14
655.490	1	17
655.659	1	2
655.829	1	18
655.998	1	11
656.168	1	15
656.337	1	22
656.507	1	14
656.676	1	18
656.846	1	10
657.015	1	19
657.184	1	19
657.354	1	16
657.523	1	8
657.693	1	19
657.862	1	14
658.032	1	12
658.201	1	11
658.371	1	16
658.540	1	9
658.709	1	8
658.879	1	9
659.048	1	17
659.218	1	21
659.387	1	4
659.557	1	8
659.726	1	13
659.895	1	11
660.065	1	7
660.234	1	15
660.404	1	14
660.573	1	17
660.743	1	20
660.912	1	13
661.081	1	34
661.251	1	21
661.420	1	18
661.590	1	9
661.759	1	9
661.929	1	14
662.098	1	14
662.267	1	11
662.437	1	30
662.606	1	27
662.776	1	11
662.945	1	-1
663.115	1	22
663.284	1	18
663.453	1	10
663.623	1	25
663.792	1	16
663.962	1	15
664.131	1	11
664.300	1	20
664.470	1	19
664.639	1	6
664.809	1	3
664.978	1	13
665.148	1	11
665.317	1	11
665.486	1	30
665.656	1	12
665.825	1	18
665.995	1	17
666.164	1	16
666.333	1	12
666.503	1	16
666.672	1	17
666.842	1	9
667.011	1	14
667.180	1	15
667.350	1	28
667.519	1	26
667.689	1	9
667.858	1	17
668.027	1	20
668.197	1	16
668.366	1	21
668.536	1	23
668.705	1	11
668.874	1	17
669.044	1	9
669.213	1	19
669.382	1	10
669.552	1	16
669.721	1	21
669.891	1	21
670.060	1	25
670.229	1	10
670.399	1	25
670.568	1	7
670.738	1	8
670.907	1	14
671.076	1	12
671.246	1	20
671.415	1	23
671.584	1	6
671.754	1	27
671.923	1	15
672.093	1	31
672.262	1	19
672.431	1	9
672.601	1	8
672.770	1	20
672.939	1	12
673.109	1	23
673.278	1	15
673.448	1	9
673.617	1	4
673.786	1	13
