325.333	1	18
325.504	1	17
325.675	1	17
325.846	1	7
326.017	1	20
326.188	1	25
326.359	1	12
326.531	1	16
326.702	1	18
326.873	1	15
327.044	1	17
327.215	1	11
327.386	1	7
327.557	1	13
327.728	1	14
327.899	1	19
328.070	1	24
328.241	1	24
328.412	1	13
328.583	1	11
328.754	1	21
328.926	1	15
329.097	1	11
329.268	1	20
329.439	1	14
329.610	1	24
329.781	1	13
329.952	1	23
330.123	1	16
330.294	1	7
330.465	1	11
330.636	1	15
330.807	1	7
330.978	1	16
331.149	1	23
331.320	1	19
331.492	1	14
331.663	1	22
331.834	1	15
332.005	1	23
332.176	1	8
332.347	1	24
332.518	1	20
332.689	1	19
332.860	1	25
333.031	1	14
333.202	1	2
333.373	1	32
333.544	1	22
333.715	1	27
333.886	1	22
334.057	1	29
334.228	1	13
334.399	1	32
334.570	1	23
334.741	1	29
334.912	1	34
335.084	1	17
335.255	1	24
335.426	1	13
335.597	1	29
335.768	1	18
335.939	1	20
336.110	1	34
336.281	1	16
336.452	1	20
336.623	1	22
336.794	1	34
336.965	1	12
337.136	1	14
337.307	1	22
337.478	1	12
337.649	1	37
337.820	1	14
337.991	1	24
338.162	1	19
338.333	1	19
338.504	1	14
338.675	1	16
338.846	1	14
339.017	1	30
339.188	1	8
339.359	1	18
339.530	1	17
339.701	1	16
339.872	1	28
340.043	1	17
340.214	1	19
340.385	1	21
340.556	1	25
340.727	1	17
340.898	1	23
341.069	1	25
341.240	1	30
341.411	1	14
341.582	1	30
341.753	1	27
341.924	1	16
342.095	1	23
342.266	1	39
342.437	1	28
342.608	1	31
342.779	1	31
342.950	1	20
343.121	1	29
343.292	1	27
343.463	1	23
343.634	1	26
343.805	1	25
343.976	1	24
344.147	1	30
344.318	1	19
344.489	1	29
344.660	1	32
344.831	1	33
345.002	1	27
345.173	1	28
345.344	1	30
345.515	1	19
345.686	1	32
345.857	1	31
346.028	1	30
346.199	1	25
346.370	1	40
346.541	1	26
346.712	1	29
346.883	1	27
347.054	1	24
347.225	1	32
347.396	1	12
347.567	1	35
347.738	1	24
347.909	1	23
348.080	1	26
348.251	1	33
348.422	1	32
348.593	1	25
348.764	1	32
348.935	1	32
349.106	1	32
349.277	1	27
349.448	1	39
349.619	1	37
349.790	1	33
349.961	1	44
350.132	1	36
350.303	1	27
350.474	1	30
350.645	1	24
350.816	1	21
350.987	1	38
351.157	1	35
351.328	1	41
351.499	1	36
351.670	1	28
351.841	1	38
352.012	1	37
352.183	1	33
352.354	1	30
352.525	1	40
352.696	1	40
352.867	1	37
353.038	1	39
353.209	1	37
353.380	1	29
353.551	1	24
353.722	1	43
353.893	1	29
354.064	1	34
354.235	1	33
354.406	1	46
354.576	1	34
354.747	1	38
354.918	1	43
355.089	1	36
355.260	1	45
355.431	1	38
355.602	1	40
355.773	1	21
355.944	1	31
356.115	1	41
356.286	1	27
356.457	1	40
356.628	1	34
356.799	1	35
356.970	1	43
357.141	1	37
357.311	1	47
357.482	1	30
357.653	1	33
357.824	1	32
357.995	1	30
358.166	1	26
358.337	1	43
358.508	1	36
358.679	1	38
358.850	1	27
359.021	1	37
359.192	1	47
359.363	1	44
359.533	1	32
359.704	1	45
359.875	1	45
360.046	1	41
360.217	1	30
360.388	1	50
360.559	1	31
360.730	1	42
360.901	1	34
361.072	1	38
361.243	1	40
361.414	1	38
361.584	1	35
361.755	1	34
361.926	1	47
362.097	1	38
362.268	1	45
362.439	1	43
362.610	1	35
362.781	1	31
362.952	1	44
363.123	1	44
363.293	1	39
363.464	1	47
363.635	1	45
363.806	1	34
363.977	1	47
364.148	1	43
364.319	1	37
364.490	1	40
364.661	1	40
364.832	1	47
365.002	1	40
365.173	1	45
365.344	1	46
365.515	1	35
365.686	1	29
365.857	1	37
366.028	1	40
366.199	1	50
366.370	1	38
366.540	1	34
366.711	1	34
366.882	1	34
367.053	1	36
367.224	1	44
367.395	1	33
367.566	1	34
367.737	1	35
367.908	1	33
368.078	1	31
368.249	1	40
368.420	1	41
368.591	1	35
368.762	1	43
368.933	1	34
369.104	1	61
369.274	1	33
369.445	1	46
369.616	1	41
369.787	1	48
369.958	1	41
370.129	1	28
370.300	1	45
370.471	1	38
370.641	1	43
370.812	1	44
370.983	1	45
371.154	1	40
371.325	1	37
371.496	1	41
371.667	1	49
371.837	1	48
372.008	1	32
372.179	1	39
372.350	1	47
372.521	1	46
372.692	1	42
372.863	1	39
373.033	1	48
373.204	1	38
373.375	1	43
373.546	1	50
373.717	1	34
373.888	1	49
374.059	1	58
374.229	1	38
374.400	1	35
374.571	1	44
374.742	1	43
374.913	1	32
375.084	1	44
375.254	1	47
375.425	1	43
375.596	1	51
375.767	1	43
375.938	1	44
376.109	1	52
376.279	1	30
376.450	1	51
376.621	1	47
376.792	1	44
376.963	1	45
377.134	1	49
377.304	1	50
377.475	1	47
377.646	1	46
377.817	1	35
377.988	1	35
378.159	1	55
378.329	1	51
378.500	1	44
378.671	1	41
378.842	1	42
379.013	1	49
379.184	1	43
379.354	1	48
379.525	1	45
379.696	1	57
379.867	1	52
380.038	1	57
380.209	1	55
380.379	1	45
380.550	1	57
380.721	1	47
380.892	1	40
381.063	1	45
381.233	1	54
381.404	1	53
381.575	1	54
381.746	1	63
381.917	1	55
382.087	1	48
382.258	1	56
382.429	1	49
382.600	1	58
382.771	1	41
382.941	1	62
383.112	1	46
383.283	1	59
383.454	1	56
383.625	1	46
383.795	1	55
383.966	1	40
384.137	1	54
384.308	1	49
384.479	1	40
384.649	1	50
384.820	1	63
384.991	1	44
385.162	1	51
385.333	1	51
385.503	1	46
385.674	1	36
385.845	1	53
386.016	1	56
386.187	1	50
386.357	1	53
386.528	1	45
386.699	1	54
386.870	1	60
387.041	1	57
387.211	1	56
387.382	1	42
387.553	1	53
387.724	1	70
387.894	1	57
388.065	1	48
388.236	1	52
388.407	1	55
388.578	1	55
388.748	1	46
388.919	1	52
389.090	1	58
389.261	1	65
389.431	1	48
389.602	1	72
389.773	1	72
389.944	1	64
390.114	1	62
390.285	1	55
390.456	1	45
390.627	1	56
390.798	1	54
390.968	1	72
391.139	1	39
391.310	1	60
391.481	1	63
391.651	1	67
391.822	1	58
391.993	1	57
392.164	1	70
392.334	1	56
392.505	1	64
392.676	1	69
392.847	1	60
393.017	1	69
393.188	1	70
393.359	1	56
393.530	1	66
393.700	1	57
393.871	1	51
394.042	1	59
394.213	1	54
394.383	1	60
394.554	1	74
394.725	1	59
394.896	1	67
395.066	1	58
395.237	1	59
395.408	1	75
395.579	1	62
395.749	1	62
395.920	1	48
396.091	1	73
396.262	1	52
396.432	1	57
396.603	1	55
396.774	1	60
396.945	1	60
397.115	1	61
397.286	1	71
397.457	1	62
397.627	1	49
397.798	1	62
397.969	1	77
398.140	1	52
398.310	1	58
398.481	1	61
398.652	1	57
398.823	1	66
398.993	1	55
399.164	1	72
399.335	1	59
399.505	1	77
399.676	1	57
399.847	1	58
400.018	1	83
400.188	1	61
400.359	1	69
400.530	1	87
400.700	1	80
400.871	1	69
401.042	1	67
401.213	1	79
401.383	1	61
401.554	1	65
401.725	1	65
401.895	1	69
402.066	1	66
402.237	1	74
402.408	1	66
402.578	1	67
402.749	1	58
402.920	1	66
403.090	1	63
403.261	1	76
403.432	1	60
403.603	1	70
403.773	1	69
403.944	1	72
404.115	1	68
404.285	1	72
404.456	1	67
404.627	1	63
404.797	1	68
404.968	1	73
405.139	1	73
405.310	1	70
405.480	1	74
405.651	1	63
405.822	1	66
405.992	1	57
406.163	1	82
406.334	1	81
406.504	1	72
406.675	1	72
406.846	1	73
407.016	1	76
407.187	1	67
407.358	1	78
407.528	1	68
407.699	1	70
407.870	1	72
408.041	1	82
408.211	1	69
408.382	1	68
408.553	1	79
408.723	1	71
408.894	1	69
409.065	1	51
409.235	1	85
409.406	1	54
409.577	1	64
409.747	1	71
409.918	1	67
410.089	1	77
410.259	1	73
410.430	1	74
410.601	1	65
410.771	1	76
410.942	1	71
411.113	1	78
411.283	1	89
411.454	1	83
411.625	1	78
411.795	1	64
411.966	1	90
412.137	1	73
412.307	1	71
412.478	1	83
412.649	1	83
412.819	1	80
412.990	1	77
413.161	1	86
413.331	1	82
413.502	1	74
413.672	1	84
413.843	1	75
414.014	1	83
414.184	1	83
414.355	1	69
414.526	1	73
414.696	1	87
414.867	1	80
415.038	1	75
415.208	1	74
415.379	1	74
415.550	1	82
415.720	1	69
415.891	1	92
416.062	1	78
416.232	1	64
416.403	1	76
416.573	1	86
416.744	1	74
416.915	1	77
417.085	1	68
417.256	1	70
417.427	1	67
417.597	1	81
417.768	1	76
417.939	1	76
418.109	1	78
418.280	1	72
418.450	1	77
418.621	1	74
418.792	1	60
418.962	1	68
419.133	1	59
419.304	1	66
419.474	1	66
419.645	1	77
419.815	1	73
419.986	1	72
420.157	1	68
420.327	1	72
420.498	1	75
420.669	1	74
420.839	1	68
421.010	1	76
421.180	1	74
421.351	1	77
421.522	1	66
421.692	1	79
421.863	1	73
422.033	1	76
422.204	1	72
422.375	1	72
422.545	1	77
422.716	1	68
422.886	1	77
423.057	1	71
423.228	1	75
423.398	1	72
423.569	1	71
423.740	1	78
423.910	1	72
424.081	1	68
424.251	1	68
424.422	1	68
424.593	1	82
424.763	1	87
424.934	1	80
425.104	1	71
425.275	1	83
425.445	1	70
425.616	1	75
425.787	1	77
425.957	1	74
426.128	1	83
426.298	1	96
426.469	1	85
426.640	1	79
426.810	1	85
426.981	1	77
427.151	1	78
427.322	1	85
427.493	1	87
427.663	1	88
427.834	1	75
428.004	1	65
428.175	1	82
428.345	1	69
428.516	1	88
428.687	1	83
428.857	1	59
429.028	1	70
429.198	1	91
429.369	1	71
429.540	1	71
429.710	1	72
429.881	1	63
430.051	1	70
430.222	1	76
430.392	1	70
430.563	1	77
430.734	1	71
430.904	1	70
431.075	1	65
431.245	1	67
431.416	1	73
431.586	1	75
431.757	1	67
431.927	1	85
432.098	1	58
432.269	1	74
432.439	1	82
432.610	1	88
432.780	1	60
432.951	1	64
433.121	1	82
433.292	1	52
433.462	1	61
433.633	1	56
433.804	1	59
433.974	1	62
434.145	1	70
434.315	1	74
434.486	1	86
434.656	1	83
434.827	1	76
434.997	1	73
435.168	1	70
435.339	1	66
435.509	1	63
435.680	1	76
435.850	1	74
436.021	1	77
436.191	1	68
436.362	1	70
436.532	1	72
436.703	1	65
436.873	1	66
437.044	1	66
437.214	1	61
437.385	1	71
437.556	1	70
437.726	1	80
437.897	1	79
438.067	1	58
438.238	1	76
438.408	1	75
438.579	1	73
438.749	1	55
438.920	1	73
439.090	1	69
439.261	1	69
439.431	1	62
439.602	1	69
439.772	1	76
439.943	1	62
440.113	1	79
440.284	1	62
440.455	1	66
440.625	1	75
440.796	1	68
440.966	1	53
441.137	1	61
441.307	1	67
441.478	1	75
441.648	1	72
441.819	1	73
441.989	1	72
442.160	1	60
442.330	1	55
442.501	1	57
442.671	1	65
442.842	1	68
443.012	1	54
443.183	1	64
443.353	1	62
443.524	1	61
443.694	1	64
443.865	1	65
444.035	1	58
444.206	1	59
444.376	1	55
444.547	1	66
444.717	1	52
444.888	1	63
445.058	1	70
445.229	1	52
445.399	1	51
445.570	1	60
445.740	1	45
445.911	1	63
446.081	1	68
446.252	1	57
446.422	1	68
446.593	1	58
446.763	1	57
446.934	1	57
447.104	1	66
447.275	1	78
447.445	1	57
447.616	1	66
447.786	1	57
447.957	1	57
448.127	1	59
448.298	1	60
448.468	1	70
448.639	1	58
448.809	1	71
448.979	1	49
449.150	1	56
449.320	1	64
449.491	1	59
449.661	1	79
449.832	1	55
450.002	1	63
450.173	1	52
450.343	1	66
450.514	1	71
450.684	1	67
450.855	1	67
451.025	1	63
451.196	1	65
451.366	1	63
451.537	1	55
451.707	1	67
451.878	1	49
452.048	1	53
452.218	1	60
452.389	1	67
452.559	1	58
452.730	1	65
452.900	1	56
453.071	1	62
453.241	1	68
453.412	1	61
453.582	1	55
453.753	1	61
453.923	1	73
454.093	1	64
454.264	1	63
454.434	1	60
454.605	1	57
454.775	1	47
454.946	1	58
455.116	1	64
455.287	1	52
455.457	1	61
455.628	1	58
455.798	1	55
455.968	1	68
456.139	1	53
456.309	1	51
456.480	1	50
456.650	1	64
456.821	1	57
456.991	1	55
457.161	1	59
457.332	1	61
457.502	1	61
457.673	1	52
457.843	1	64
458.014	1	50
458.184	1	43
458.355	1	46
458.525	1	54
458.695	1	51
458.866	1	54
459.036	1	52
459.207	1	52
459.377	1	61
459.548	1	51
459.718	1	46
459.888	1	56
460.059	1	53
460.229	1	46
460.400	1	62
460.570	1	55
460.740	1	48
460.911	1	46
461.081	1	51
461.252	1	62
461.422	1	44
461.593	1	46
461.763	1	49
461.933	1	61
462.104	1	50
462.274	1	56
462.445	1	44
462.615	1	50
462.785	1	46
462.956	1	50
463.126	1	46
463.297	1	53
463.467	1	50
463.638	1	47
463.808	1	49
463.978	1	40
464.149	1	48
464.319	1	37
464.490	1	49
464.660	1	53
464.830	1	43
465.001	1	63
465.171	1	47
465.342	1	52
465.512	1	48
465.682	1	45
465.853	1	47
466.023	1	47
466.194	1	46
466.364	1	50
466.534	1	53
466.705	1	54
466.875	1	45
467.045	1	43
467.216	1	61
467.386	1	44
467.557	1	47
467.727	1	50
467.897	1	46
468.068	1	46
468.238	1	47
468.409	1	41
468.579	1	49
468.749	1	51
468.920	1	45
469.090	1	60
469.260	1	39
469.431	1	43
469.601	1	54
469.772	1	48
469.942	1	66
470.112	1	45
470.283	1	58
470.453	1	47
470.623	1	44
470.794	1	42
470.964	1	39
471.135	1	48
471.305	1	40
471.475	1	44
471.646	1	47
471.816	1	47
471.986	1	45
472.157	1	41
472.327	1	37
472.497	1	31
472.668	1	42
472.838	1	49
473.009	1	49
473.179	1	49
473.349	1	46
473.520	1	40
473.690	1	46
473.860	1	43
474.031	1	39
474.201	1	56
474.371	1	42
474.542	1	39
474.712	1	32
474.882	1	41
475.053	1	42
475.223	1	45
475.394	1	47
475.564	1	39
475.734	1	40
475.905	1	48
476.075	1	35
476.245	1	42
476.416	1	48
476.586	1	41
476.756	1	40
476.927	1	46
477.097	1	48
477.267	1	36
477.438	1	29
477.608	1	42
477.778	1	56
477.949	1	37
478.119	1	36
478.289	1	42
478.460	1	41
478.630	1	33
478.800	1	30
478.971	1	40
479.141	1	32
479.311	1	48
479.482	1	37
479.652	1	48
479.822	1	37
479.993	1	36
480.163	1	39
480.333	1	34
480.504	1	51
480.674	1	39
480.844	1	50
481.015	1	32
481.185	1	35
481.355	1	44
481.525	1	36
481.696	1	46
481.866	1	32
482.036	1	35
482.207	1	39
482.377	1	39
482.547	1	39
482.718	1	40
482.888	1	47
483.058	1	38
483.229	1	38
483.399	1	47
483.569	1	40
483.740	1	29
483.910	1	36
484.080	1	31
484.250	1	45
484.421	1	45
484.591	1	38
484.761	1	41
484.932	1	50
485.102	1	38
485.272	1	39
485.443	1	39
485.613	1	39
485.783	1	32
485.953	1	38
486.124	1	24
486.294	1	46
486.464	1	30
486.635	1	34
486.805	1	26
486.975	1	23
487.146	1	38
487.316	1	42
487.486	1	35
487.656	1	28
487.827	1	40
487.997	1	37
488.167	1	45
488.338	1	25
488.508	1	32
488.678	1	37
488.848	1	42
489.019	1	41
489.189	1	42
489.359	1	39
489.529	1	27
489.700	1	33
489.870	1	26
490.040	1	29
490.211	1	41
490.381	1	36
490.551	1	22
490.721	1	41
490.892	1	46
491.062	1	37
491.232	1	30
491.402	1	35
491.573	1	33
491.743	1	25
491.913	1	29
492.084	1	35
492.254	1	41
492.424	1	28
492.594	1	41
492.765	1	34
492.935	1	37
493.105	1	41
493.275	1	31
493.446	1	37
493.616	1	30
493.786	1	31
493.956	1	28
494.127	1	27
494.297	1	38
494.467	1	39
494.637	1	37
494.808	1	28
494.978	1	24
495.148	1	33
495.318	1	29
495.489	1	24
495.659	1	47
495.829	1	38
495.999	1	32
496.170	1	23
496.340	1	43
496.510	1	34
496.680	1	17
496.851	1	28
497.021	1	31
497.191	1	18
497.361	1	32
497.532	1	23
497.702	1	29
497.872	1	28
498.042	1	28
498.213	1	31
498.383	1	35
498.553	1	16
498.723	1	24
498.894	1	34
499.064	1	22
499.234	1	16
499.404	1	44
499.574	1	26
499.745	1	25
499.915	1	17
500.085	1	23
500.255	1	26
500.426	1	18
500.596	1	25
500.766	1	18
500.936	1	25
501.106	1	30
501.277	1	29
501.447	1	19
501.617	1	25
501.787	1	35
501.958	1	27
502.128	1	49
502.298	1	31
502.468	1	22
502.638	1	26
502.809	1	28
502.979	1	14
503.149	1	30
503.319	1	31
503.489	1	15
503.660	1	22
503.830	1	24
504.000	1	24
504.170	1	23
504.340	1	34
504.511	1	26
504.681	1	27
504.851	1	29
505.021	1	23
505.192	1	19
505.362	1	19
505.532	1	19
505.702	1	16
505.872	1	32
506.043	1	19
506.213	1	19
506.383	1	26
506.553	1	9
506.723	1	39
506.893	1	20
507.064	1	29
507.234	1	24
507.404	1	37
507.574	1	27
507.744	1	18
507.915	1	18
508.085	1	12
508.255	1	22
508.425	1	16
508.595	1	22
508.766	1	15
508.936	1	32
509.106	1	17
509.276	1	29
509.446	1	18
509.616	1	18
509.787	1	21
509.957	1	19
510.127	1	12
510.297	1	21
510.467	1	24
510.638	1	27
510.808	1	20
510.978	1	18
511.148	1	28
511.318	1	13
511.488	1	20
511.659	1	21
511.829	1	19
511.999	1	22
512.169	1	26
512.339	1	19
512.509	1	16
512.680	1	22
512.850	1	14
513.020	1	24
513.190	1	31
513.360	1	18
513.530	1	19
513.700	1	24
513.871	1	25
514.041	1	20
514.211	1	29
514.381	1	27
514.551	1	16
514.721	1	23
514.892	1	19
515.062	1	23
515.232	1	32
515.402	1	26
515.572	1	25
515.742	1	19
515.912	1	20
516.083	1	19
516.253	1	26
516.423	1	12
516.593	1	19
516.763	1	31
516.933	1	27
517.104	1	18
517.274	1	25
517.444	1	17
517.614	1	33
517.784	1	21
517.954	1	22
518.124	1	16
518.294	1	10
518.465	1	28
518.635	1	23
518.805	1	13
518.975	1	17
519.145	1	24
519.315	1	11
519.485	1	23
519.656	1	24
519.826	1	17
519.996	1	27
520.166	1	11
520.336	1	16
520.506	1	19
520.676	1	30
520.846	1	21
521.017	1	16
521.187	1	15
521.357	1	14
521.527	1	18
521.697	1	25
521.867	1	13
522.037	1	12
522.207	1	20
522.377	1	14
522.548	1	20
522.718	1	21
522.888	1	24
523.058	1	19
523.228	1	10
523.398	1	19
523.568	1	17
523.738	1	15
523.909	1	18
524.079	1	19
524.249	1	17
524.419	1	25
524.589	1	16
524.759	1	20
524.929	1	12
525.099	1	10
525.269	1	9
525.439	1	20
525.610	1	7
525.780	1	15
525.950	1	26
526.120	1	18
526.290	1	20
526.460	1	20
526.630	1	17
526.800	1	14
526.970	1	19
527.140	1	28
527.311	1	26
527.481	1	11
527.651	1	20
527.821	1	17
527.991	1	6
528.161	1	12
528.331	1	18
528.501	1	13
528.671	1	21
528.841	1	29
529.011	1	18
529.181	1	19
529.352	1	26
529.522	1	16
529.692	1	19
529.862	1	22
530.032	1	20
530.202	1	12
530.372	1	21
530.542	1	15
530.712	1	25
530.882	1	33
531.052	1	9
531.222	1	16
531.392	1	3
531.563	1	19
531.733	1	20
531.903	1	20
532.073	1	24
532.243	1	25
532.413	1	11
532.583	1	24
532.753	1	22
532.923	1	13
533.093	1	16
533.263	1	10
533.433	1	22
533.603	1	14
533.773	1	15
533.943	1	19
534.113	1	21
534.284	1	12
534.454	1	11
534.624	1	25
534.794	1	22
534.964	1	7
535.134	1	20
535.304	1	26
535.474	1	15
535.644	1	21
535.814	1	10
535.984	1	19
536.154	1	14
536.324	1	15
536.494	1	11
536.664	1	18
536.834	1	17
537.004	1	14
537.174	1	7
537.344	1	25
537.514	1	19
537.685	1	13
537.855	1	8
538.025	1	8
538.195	1	20
538.365	1	27
538.535	1	8
538.705	1	5
538.875	1	14
539.045	1	20
539.215	1	14
539.385	1	4
539.555	1	16
539.725	1	11
539.895	1	16
540.065	1	11
540.235	1	22
540.405	1	7
540.575	1	22
540.745	1	11
540.915	1	16
541.085	1	8
541.255	1	23
541.425	1	9
541.595	1	24
541.765	1	27
541.935	1	13
542.105	1	11
542.275	1	16
542.445	1	17
542.615	1	11
542.785	1	11
542.955	1	10
543.125	1	9
543.295	1	24
543.465	1	18
543.635	1	10
543.805	1	11
543.975	1	7
544.145	1	15
544.315	1	10
544.485	1	16
544.655	1	8
544.825	1	13
544.995	1	18
545.165	1	15
545.335	1	12
545.505	1	11
545.675	1	1
545.845	1	16
546.015	1	12
546.185	1	18
546.355	1	8
546.525	1	13
546.695	1	5
546.865	1	15
547.035	1	17
547.205	1	16
547.375	1	9
547.545	1	11
547.715	1	10
547.885	1	5
548.055	1	5
548.225	1	13
548.395	1	4
548.565	1	23
548.735	1	14
548.905	1	8
549.075	1	14
549.245	1	15
549.415	1	10
549.585	1	10
549.755	1	14
549.925	1	9
550.095	1	5
550.265	1	18
550.435	1	11
550.605	1	14
550.775	1	13
550.945	1	11
551.115	1	22
551.285	1	15
551.455	1	-3
551.625	1	4
551.795	1	5
551.965	1	9
552.135	1	1
552.305	1	15
552.475	1	16
552.645	1	17
552.815	1	14
552.985	1	9
553.155	1	20
553.325	1	-5
553.495	1	5
553.665	1	7
553.835	1	17
554.004	1	19
554.174	1	17
554.344	1	14
554.514	1	12
554.684	1	2
554.854	1	11
555.024	1	4
555.194	1	15
555.364	1	5
555.534	1	-1
555.704	1	18
555.874	1	7
556.044	1	16
556.214	1	9
556.384	1	13
556.554	1	2
556.724	1	19
556.894	1	8
557.064	1	17
557.234	1	4
557.404	1	13
557.573	1	10
557.743	1	13
557.913	1	21
558.083	1	11
558.253	1	8
558.423	1	0
558.593	1	3
558.763	1	10
558.933	1	7
559.103	1	14
559.273	1	12
559.443	1	12
559.613	1	9
559.783	1	11
559.953	1	15
560.122	1	11
560.292	1	19
560.462	1	6
560.632	1	8
560.802	1	13
560.972	1	7
561.142	1	9
561.312	1	6
561.482	1	6
561.652	1	10
561.822	1	4
561.992	1	7
562.162	1	9
562.331	1	11
562.501	1	11
562.671	1	16
562.841	1	1
563.011	1	14
563.181	1	8
563.351	1	13
563.521	1	9
563.691	1	10
563.861	1	14
564.031	1	7
564.201	1	12
564.370	1	4
564.540	1	13
564.710	1	12
564.880	1	21
565.050	1	25
565.220	1	2
565.390	1	4
565.560	1	22
565.730	1	10
565.900	1	15
566.069	1	8
566.239	1	-3
566.409	1	-1
566.579	1	11
566.749	1	3
566.919	1	11
567.089	1	15
567.259	1	6
567.429	1	6
567.599	1	16
567.768	1	2
567.938	1	7
568.108	1	15
568.278	1	18
568.448	1	14
568.618	1	3
568.788	1	10
568.958	1	10
569.128	1	12
569.297	1	6
569.467	1	1
569.637	1	13
569.807	1	12
569.977	1	4
570.147	1	10
570.317	1	8
570.487	1	7
570.656	1	6
570.826	1	5
570.996	1	-5
571.166	1	18
571.336	1	14
571.506	1	12
571.676	1	16
571.846	1	17
572.015	1	9
572.185	1	5
572.355	1	1
572.525	1	5
572.695	1	8
572.865	1	-6
573.035	1	17
573.205	1	7
573.374	1	9
573.544	1	20
573.714	1	10
573.884	1	12
574.054	1	7
574.224	1	15
574.394	1	-1
574.563	1	11
574.733	1	8
574.903	1	12
575.073	1	1
575.243	1	9
575.413	1	3
575.583	1	18
575.752	1	-1
575.922	1	13
576.092	1	4
576.262	1	6
576.432	1	11
576.602	1	-1
576.772	1	11
576.941	1	7
577.111	1	9
577.281	1	5
577.451	1	11
577.621	1	13
577.791	1	12
577.960	1	10
578.130	1	8
578.300	1	8
578.470	1	1
578.640	1	7
578.810	1	6
578.979	1	9
579.149	1	15
579.319	1	8
579.489	1	4
579.659	1	-7
579.829	1	7
579.998	1	9
580.168	1	6
580.338	1	19
580.508	1	13
580.678	1	12
580.848	1	8
581.017	1	14
581.187	1	16
581.357	1	1
581.527	1	-1
581.697	1	9
581.867	1	11
582.036	1	5
582.206	1	18
582.376	1	5
582.546	1	2
582.716	1	8
582.885	1	-1
583.055	1	2
583.225	1	3
583.395	1	20
583.565	1	16
583.735	1	13
583.904	1	4
584.074	1	1
584.244	1	-3
584.414	1	6
584.584	1	-1
584.753	1	14
584.923	1	9
585.093	1	13
585.263	1	12
585.433	1	16
585.602	1	8
585.772	1	5
585.942	1	19
586.112	1	0
586.282	1	11
586.451	1	14
586.621	1	16
586.791	1	10
586.961	1	7
587.131	1	2
587.300	1	19
587.470	1	-2
587.640	1	15
587.810	1	20
587.980	1	5
588.149	1	9
588.319	1	18
588.489	1	10
588.659	1	6
588.829	1	9
588.998	1	11
589.168	1	14
589.338	1	9
589.508	1	18
589.677	1	15
589.847	1	17
590.017	1	14
590.187	1	12
590.357	1	13
590.526	1	7
590.696	1	7
590.866	1	1
591.036	1	7
591.205	1	7
591.375	1	4
591.545	1	17
591.715	1	7
591.885	1	10
592.054	1	4
592.224	1	11
592.394	1	10
592.564	1	10
592.733	1	-10
592.903	1	5
593.073	1	9
593.243	1	11
593.412	1	12
593.582	1	9
593.752	1	15
593.922	1	4
594.091	1	1
594.261	1	4
594.431	1	12
594.601	1	8
594.771	1	17
594.940	1	20
595.110	1	14
595.280	1	11
595.450	1	21
595.619	1	13
595.789	1	11
595.959	1	19
596.129	1	9
596.298	1	14
596.468	1	7
596.638	1	10
596.808	1	10
596.977	1	6
597.147	1	-5
597.317	1	3
597.487	1	18
597.656	1	9
597.826	1	9
597.996	1	4
598.166	1	17
598.335	1	10
598.505	1	13
598.675	1	-2
598.844	1	9
599.014	1	18
599.184	1	10
599.354	1	12
599.523	1	16
599.693	1	18
599.863	1	8
600.033	1	6
600.202	1	10
600.372	1	6
600.542	1	13
600.712	1	8
600.881	1	-9
601.051	1	10
601.221	1	8
601.390	1	0
601.560	1	14
601.730	1	13
601.900	1	11
602.069	1	6
602.239	1	7
602.409	1	16
602.578	1	4
602.748	1	7
602.918	1	4
603.088	1	15
603.257	1	11
603.427	1	15
603.597	1	5
603.767	1	10
603.936	1	3
604.106	1	14
604.276	1	6
604.445	1	8
604.615	1	7
604.785	1	18
604.954	1	19
605.124	1	4
605.294	1	14
605.464	1	6
605.633	1	9
605.803	1	15
605.973	1	9
606.142	1	10
606.312	1	9
606.482	1	9
606.652	1	9
606.821	1	5
606.991	1	7
607.161	1	10
607.330	1	6
607.500	1	17
607.670	1	14
607.839	1	11
608.009	1	12
608.179	1	14
608.348	1	11
608.518	1	19
608.688	1	14
608.858	1	16
609.027	1	9
609.197	1	-4
609.367	1	14
609.536	1	11
609.706	1	7
609.876	1	20
610.045	1	13
610.215	1	13
610.385	1	0
610.554	1	7
610.724	1	-1
610.894	1	20
611.063	1	-4
611.233	1	9
611.403	1	14
611.572	1	4
611.742	1	7
611.912	1	15
612.081	1	-1
612.251	1	20
612.421	1	9
612.590	1	5
612.760	1	16
612.930	1	6
613.099	1	12
613.269	1	11
613.439	1	15
613.608	1	18
613.778	1	3
613.948	1	7
614.117	1	21
614.287	1	8
614.457	1	-7
614.626	1	13
614.796	1	10
614.966	1	13
615.135	1	21
615.305	1	21
615.475	1	12
615.644	1	12
615.814	1	7
615.984	1	13
616.153	1	11
616.323	1	10
616.493	1	27
616.662	1	12
616.832	1	21
617.002	1	6
617.171	1	-4
617.341	1	8
617.511	1	18
617.680	1	10
617.850	1	13
618.019	1	7
618.189	1	17
618.359	1	2
618.528	1	11
618.698	1	10
618.868	1	10
619.037	1	21
619.207	1	12
619.377	1	5
619.546	1	9
619.716	1	20
619.885	1	13
620.055	1	9
620.225	1	13
620.394	1	18
620.564	1	28
620.734	1	16
620.903	1	11
621.073	1	9
621.242	1	18
621.412	1	11
621.582	1	22
621.751	1	27
621.921	1	6
622.091	1	10
622.260	1	-1
622.430	1	14
622.599	1	3
622.769	1	16
622.939	1	14
623.108	1	20
623.278	1	15
623.448	1	11
623.617	1	10
623.787	1	11
623.956	1	15
624.126	1	11
624.296	1	11
624.465	1	17
624.635	1	13
624.804	1	12
624.974	1	24
625.144	1	12
625.313	1	2
625.483	1	20
625.652	1	10
625.822	1	2
625.992	1	16
626.161	1	14
626.331	1	13
626.501	1	13
626.670	1	12
626.840	1	21
627.009	1	23
627.179	1	11
627.348	1	6
627.518	1	15
627.688	1	9
627.857	1	24
628.027	1	2
628.196	1	17
628.366	1	-5
628.536	1	17
628.705	1	9
628.875	1	18
629.044	1	7
629.214	1	3
629.384	1	20
629.553	1	14
629.723	1	9
629.892	1	30
630.062	1	7
630.232	1	18
630.401	1	23
630.571	1	12
630.740	1	15
630.910	1	12
631.079	1	2
631.249	1	18
631.419	1	4
631.588	1	-2
631.758	1	14
631.927	1	4
632.097	1	14
632.266	1	7
632.436	1	9
632.606	1	5
632.775	1	30
632.945	1	23
633.114	1	-2
633.284	1	9
633.453	1	6
633.623	1	16
633.793	1	7
633.962	1	9
634.132	1	16
634.301	1	25
634.471	1	9
634.640	1	17
634.810	1	11
634.979	1	11
635.149	1	12
635.319	1	21
635.488	1	20
635.658	1	14
635.827	1	22
635.997	1	12
636.166	1	20
636.336	1	1
636.505	1	12
636.675	1	11
636.845	1	7
637.014	1	5
637.184	1	15
637.353	1	12
637.523	1	15
637.692	1	27
637.862	1	13
638.031	1	19
638.201	1	19
638.370	1	5
638.540	1	16
638.710	1	22
638.879	1	22
639.049	1	20
639.218	1	6
639.388	1	12
639.557	1	10
639.727	1	15
639.896	1	17
640.066	1	23
640.235	1	17
640.405	1	14
640.574	1	15
640.744	1	24
640.914	1	17
641.083	1	19
641.253	1	27
641.422	1	16
641.592	1	11
641.761	1	20
641.931	1	11
642.100	1	9
642.270	1	9
642.439	1	15
642.609	1	18
642.778	1	16
642.948	1	12
643.117	1	20
643.287	1	8
643.456	1	15
643.626	1	25
643.795	1	17
643.965	1	21
644.134	1	22
644.304	1	16
644.473	1	14
644.643	1	7
644.812	1	20
644.982	1	18
645.151	1	21
645.321	1	14
645.490	1	13
645.660	1	7
645.829	1	22
645.999	1	24
646.168	1	4
646.338	1	11
646.507	1	17
646.677	1	12
646.846	1	17
647.016	1	21
647.185	1	15
647.355	1	14
647.524	1	23
647.694	1	6
647.863	1	11
648.033	1	9
648.202	1	10
648.372	1	22
648.541	1	15
648.711	1	19
648.880	1	20
649.050	1	16
649.219	1	5
649.389	1	17
649.558	1	1
649.728	1	14
649.897	1	11
650.067	1	11
650.236	1	19
650.406	1	2
650.575	1	10
650.745	1	22
650.914	1	12
651.084	1	11
651.253	1	21
651.423	1	17
651.592	1	23
651.762	1	26
651.931	1	12
652.101	1	22
652.270	1	13
652.440	1	11
652.609	1	21
652.778	1	5
652.948	1	21
653.117	1	8
653.287	1	25
653.456	1	12
653.626	1	7
653.795	1	15
653.965	1	13
654.134	1	10
654.304	1	11
654.473	1	9
654.643	1	21
654.812	1	14
654.982	1	16
655.151	1	11
655.320	1	19
655.490	1	20
655.659	1	11
655.829	1	19
655.998	1	7
656.168	1	11
656.337	1	23
656.507	1	5
656.676	1	19
656.846	1	13
657.015	1	8
657.184	1	15
657.354	1	22
657.523	1	13
657.693	1	14
657.862	1	17
658.032	1	14
658.201	1	21
658.371	1	14
658.540	1	12
658.709	1	9
658.879	1	-2
659.048	1	6
659.218	1	17
659.387	1	12
659.557	1	18
659.726	1	15
659.895	1	14
660.065	1	6
660.234	1	3
660.404	1	22
660.573	1	26
660.743	1	20
660.912	1	11
661.081	1	32
661.251	1	18
661.420	1	14
661.590	1	11
661.759	1	13
661.929	1	23
662.098	1	16
662.267	1	14
662.437	1	13
662.606	1	23
662.776	1	14
662.945	1	20
663.115	1	19
663.284	1	21
663.453	1	6
663.623	1	21
663.792	1	13
663.962	1	16
664.131	1	7
664.300	1	8
664.470	1	12
664.639	1	17
664.809	1	4
664.978	1	6
665.148	1	16
665.317	1	14
665.486	1	21
665.656	1	11
665.825	1	16
665.995	1	15
666.164	1	3
666.333	1	12
666.503	1	19
666.672	1	32
666.842	1	13
667.011	1	14
667.180	1	19
667.350	1	19
667.519	1	23
667.689	1	11
667.858	1	15
668.027	1	20
668.197	1	10
668.366	1	8
668.536	1	19
668.705	1	17
668.874	1	25
669.044	1	20
669.213	1	19
669.382	1	11
669.552	1	16
669.721	1	33
669.891	1	17
670.060	1	24
670.229	1	17
670.399	1	23
670.568	1	15
670.738	1	4
670.907	1	16
671.076	1	10
671.246	1	17
671.415	1	20
671.584	1	13
671.754	1	15
671.923	1	22
672.093	1	27
672.262	1	23
672.431	1	1
672.601	1	12
672.770	1	15
672.939	1	20
673.109	1	21
673.278	1	23
673.448	1	10
673.617	1	4
673.786	1	13
