325.333	1	15
325.504	1	15
325.675	1	9
325.846	1	19
326.017	1	13
326.188	1	17
326.359	1	16
326.531	1	6
326.702	1	4
326.873	1	19
327.044	1	13
327.215	1	18
327.386	1	11
327.557	1	11
327.728	1	20
327.899	1	19
328.070	1	19
328.241	1	19
328.412	1	21
328.583	1	15
328.754	1	8
328.926	1	4
329.097	1	3
329.268	1	9
329.439	1	20
329.610	1	19
329.781	1	9
329.952	1	13
330.123	1	19
330.294	1	1
330.465	1	19
330.636	1	17
330.807	1	15
330.978	1	14
331.149	1	23
331.320	1	15
331.492	1	3
331.663	1	21
331.834	1	17
332.005	1	25
332.176	1	6
332.347	1	24
332.518	1	24
332.689	1	6
332.860	1	12
333.031	1	14
333.202	1	2
333.373	1	8
333.544	1	16
333.715	1	23
333.886	1	10
334.057	1	23
334.228	1	16
334.399	1	22
334.570	1	14
334.741	1	23
334.912	1	25
335.084	1	7
335.255	1	13
335.426	1	5
335.597	1	16
335.768	1	26
335.939	1	19
336.110	1	16
336.281	1	17
336.452	1	20
336.623	1	14
336.794	1	19
336.965	1	0
337.136	1	12
337.307	1	16
337.478	1	8
337.649	1	30
337.820	1	15
337.991	1	30
338.162	1	33
338.333	1	15
338.504	1	21
338.675	1	22
338.846	1	19
339.017	1	16
339.188	1	15
339.359	1	15
339.530	1	27
339.701	1	17
339.872	1	29
340.043	1	-6
340.214	1	15
340.385	1	23
340.556	1	19
340.727	1	16
340.898	1	21
341.069	1	20
341.240	1	22
341.411	1	14
341.582	1	19
341.753	1	12
341.924	1	9
342.095	1	11
342.266	1	25
342.437	1	27
342.608	1	29
342.779	1	17
342.950	1	17
343.121	1	24
343.292	1	24
343.463	1	13
343.634	1	18
343.805	1	14
343.976	1	14
344.147	1	20
344.318	1	20
344.489	1	24
344.660	1	21
344.831	1	27
345.002	1	28
345.173	1	19
345.344	1	21
345.515	1	14
345.686	1	22
345.857	1	30
346.028	1	14
346.199	1	10
346.370	1	20
346.541	1	15
346.712	1	21
346.883	1	16
347.054	1	24
347.225	1	19
347.396	1	10
347.567	1	28
347.738	1	11
347.909	1	20
348.080	1	23
348.251	1	32
348.422	1	19
348.593	1	14
348.764	1	26
348.935	1	5
349.106	1	21
349.277	1	18
349.448	1	30
349.619	1	14
349.790	1	25
349.961	1	24
350.132	1	19
350.303	1	21
350.474	1	8
350.645	1	35
350.816	1	14
350.987	1	25
351.157	1	29
351.328	1	23
351.499	1	20
351.670	1	17
351.841	1	31
352.012	1	24
352.183	1	4
352.354	1	13
352.525	1	31
352.696	1	31
352.867	1	21
353.038	1	23
353.209	1	19
353.380	1	16
353.551	1	3
353.722	1	20
353.893	1	18
354.064	1	15
354.235	1	16
354.406	1	26
354.576	1	24
354.747	1	30
354.918	1	25
355.089	1	24
355.260	1	37
355.431	1	22
355.602	1	23
355.773	1	15
355.944	1	28
356.115	1	24
356.286	1	29
356.457	1	16
356.628	1	31
356.799	1	31
356.970	1	33
357.141	1	21
357.311	1	37
357.482	1	18
357.653	1	14
357.824	1	21
357.995	1	9
358.166	1	19
358.337	1	25
358.508	1	18
358.679	1	27
358.850	1	19
359.021	1	27
359.192	1	29
359.363	1	26
359.533	1	4
359.704	1	26
359.875	1	25
360.046	1	33
360.217	1	21
360.388	1	26
360.559	1	24
360.730	1	16
360.901	1	17
361.072	1	22
361.243	1	17
361.414	1	21
361.584	1	15
361.755	1	16
361.926	1	27
362.097	1	14
362.268	1	20
362.439	1	23
362.610	1	24
362.781	1	18
362.952	1	31
363.123	1	26
363.293	1	26
363.464	1	25
363.635	1	30
363.806	1	17
363.977	1	18
364.148	1	14
364.319	1	17
364.490	1	41
364.661	1	19
364.832	1	31
365.002	1	35
365.173	1	12
365.344	1	28
365.515	1	27
365.686	1	14
365.857	1	34
366.028	1	33
366.199	1	28
366.370	1	31
366.540	1	28
366.711	1	19
366.882	1	20
367.053	1	32
367.224	1	27
367.395	1	14
367.566	1	18
367.737	1	14
367.908	1	18
368.078	1	33
368.249	1	25
368.420	1	22
368.591	1	24
368.762	1	18
368.933	1	18
369.104	1	32
369.274	1	14
369.445	1	24
369.616	1	21
369.787	1	32
369.958	1	20
370.129	1	16
370.300	1	24
370.471	1	18
370.641	1	20
370.812	1	19
370.983	1	20
371.154	1	19
371.325	1	20
371.496	1	23
371.667	1	21
371.837	1	28
372.008	1	6
372.179	1	13
372.350	1	17
372.521	1	27
372.692	1	27
372.863	1	26
373.033	1	27
373.204	1	21
373.375	1	28
373.546	1	35
373.717	1	21
373.888	1	34
374.059	1	22
374.229	1	21
374.400	1	29
374.571	1	21
374.742	1	20
374.913	1	20
375.084	1	25
375.254	1	22
375.425	1	17
375.596	1	34
375.767	1	29
375.938	1	26
376.109	1	38
376.279	1	23
376.450	1	29
376.621	1	26
376.792	1	28
376.963	1	15
377.134	1	40
377.304	1	32
377.475	1	32
377.646	1	28
377.817	1	30
377.988	1	28
378.159	1	38
378.329	1	26
378.500	1	42
378.671	1	27
378.842	1	23
379.013	1	33
379.184	1	16
379.354	1	15
379.525	1	32
379.696	1	33
379.867	1	29
380.038	1	34
380.209	1	29
380.379	1	31
380.550	1	47
380.721	1	29
380.892	1	25
381.063	1	34
381.233	1	32
381.404	1	23
381.575	1	41
381.746	1	35
381.917	1	32
382.087	1	43
382.258	1	52
382.429	1	29
382.600	1	35
382.771	1	38
382.941	1	44
383.112	1	31
383.283	1	46
383.454	1	34
383.625	1	28
383.795	1	36
383.966	1	33
384.137	1	33
384.308	1	37
384.479	1	25
384.649	1	36
384.820	1	42
384.991	1	34
385.162	1	45
385.333	1	38
385.503	1	29
385.674	1	14
385.845	1	41
386.016	1	32
386.187	1	43
386.357	1	46
386.528	1	34
386.699	1	31
386.870	1	36
387.041	1	48
387.211	1	29
387.382	1	32
387.553	1	43
387.724	1	49
387.894	1	42
388.065	1	32
388.236	1	38
388.407	1	37
388.578	1	34
388.748	1	38
388.919	1	35
389.090	1	41
389.261	1	34
389.431	1	40
389.602	1	52
389.773	1	38
389.944	1	56
390.114	1	42
390.285	1	35
390.456	1	30
390.627	1	34
390.798	1	45
390.968	1	47
391.139	1	38
391.310	1	40
391.481	1	41
391.651	1	49
391.822	1	41
391.993	1	43
392.164	1	51
392.334	1	37
392.505	1	46
392.676	1	52
392.847	1	39
393.017	1	32
393.188	1	52
393.359	1	45
393.530	1	50
393.700	1	32
393.871	1	52
394.042	1	36
394.213	1	24
394.383	1	38
394.554	1	53
394.725	1	41
394.896	1	34
395.066	1	35
395.237	1	44
395.408	1	49
395.579	1	36
395.749	1	43
395.920	1	39
396.091	1	45
396.262	1	43
396.432	1	45
396.603	1	28
396.774	1	40
396.945	1	39
397.115	1	35
397.286	1	41
397.457	1	45
397.627	1	41
397.798	1	44
397.969	1	39
398.140	1	48
398.310	1	48
398.481	1	43
398.652	1	44
398.823	1	37
398.993	1	49
399.164	1	48
399.335	1	47
399.505	1	37
399.676	1	41
399.847	1	32
400.018	1	50
400.188	1	47
400.359	1	48
400.530	1	54
400.700	1	52
400.871	1	48
401.042	1	47
401.213	1	46
401.383	1	45
401.554	1	51
401.725	1	42
401.895	1	49
402.066	1	50
402.237	1	54
402.408	1	54
402.578	1	48
402.749	1	49
402.920	1	46
403.090	1	39
403.261	1	49
403.432	1	47
403.603	1	48
403.773	1	59
403.944	1	40
404.115	1	41
404.285	1	54
404.456	1	50
404.627	1	44
404.797	1	37
404.968	1	46
405.139	1	47
405.310	1	53
405.480	1	56
405.651	1	37
405.822	1	50
405.992	1	42
406.163	1	56
406.334	1	52
406.504	1	48
406.675	1	62
406.846	1	53
407.016	1	51
407.187	1	56
407.358	1	55
407.528	1	51
407.699	1	41
407.870	1	57
408.041	1	52
408.211	1	53
408.382	1	53
408.553	1	54
408.723	1	46
408.894	1	43
409.065	1	42
409.235	1	58
409.406	1	50
409.577	1	46
409.747	1	35
409.918	1	53
410.089	1	51
410.259	1	43
410.430	1	51
410.601	1	56
410.771	1	54
410.942	1	52
411.113	1	57
411.283	1	62
411.454	1	61
411.625	1	53
411.795	1	55
411.966	1	59
412.137	1	62
412.307	1	61
412.478	1	64
412.649	1	57
412.819	1	61
412.990	1	56
413.161	1	54
413.331	1	48
413.502	1	51
413.672	1	56
413.843	1	51
414.014	1	57
414.184	1	56
414.355	1	55
414.526	1	53
414.696	1	55
414.867	1	52
415.038	1	51
415.208	1	57
415.379	1	61
415.550	1	60
415.720	1	45
415.891	1	66
416.062	1	52
416.232	1	43
416.403	1	59
416.573	1	73
416.744	1	54
416.915	1	65
417.085	1	55
417.256	1	46
417.427	1	60
417.597	1	56
417.768	1	48
417.939	1	49
418.109	1	56
418.280	1	44
418.450	1	54
418.621	1	56
418.792	1	47
418.962	1	40
419.133	1	47
419.304	1	48
419.474	1	45
419.645	1	55
419.815	1	40
419.986	1	64
420.157	1	46
420.327	1	52
420.498	1	49
420.669	1	54
420.839	1	55
421.010	1	58
421.180	1	55
421.351	1	46
421.522	1	50
421.692	1	54
421.863	1	54
422.033	1	45
422.204	1	62
422.375	1	48
422.545	1	56
422.716	1	56
422.886	1	47
423.057	1	49
423.228	1	44
423.398	1	46
423.569	1	55
423.740	1	53
423.910	1	52
424.081	1	39
424.251	1	39
424.422	1	53
424.593	1	52
424.763	1	65
424.934	1	55
425.104	1	60
425.275	1	63
425.445	1	50
425.616	1	60
425.787	1	48
425.957	1	40
426.128	1	38
426.298	1	66
426.469	1	58
426.640	1	49
426.810	1	64
426.981	1	47
427.151	1	57
427.322	1	55
427.493	1	59
427.663	1	58
427.834	1	59
428.004	1	38
428.175	1	68
428.345	1	56
428.516	1	59
428.687	1	59
428.857	1	50
429.028	1	55
429.198	1	67
429.369	1	54
429.540	1	49
429.710	1	49
429.881	1	34
430.051	1	53
430.222	1	47
430.392	1	57
430.563	1	49
430.734	1	53
430.904	1	53
431.075	1	53
431.245	1	41
431.416	1	60
431.586	1	40
431.757	1	60
431.927	1	54
432.098	1	39
432.269	1	45
432.439	1	61
432.610	1	58
432.780	1	57
432.951	1	64
433.121	1	58
433.292	1	56
433.462	1	49
433.633	1	41
433.804	1	44
433.974	1	52
434.145	1	53
434.315	1	50
434.486	1	63
434.656	1	43
434.827	1	46
434.997	1	47
435.168	1	56
435.339	1	50
435.509	1	48
435.680	1	51
435.850	1	45
436.021	1	53
436.191	1	55
436.362	1	54
436.532	1	50
436.703	1	52
436.873	1	44
437.044	1	43
437.214	1	49
437.385	1	63
437.556	1	48
437.726	1	54
437.897	1	47
438.067	1	34
438.238	1	45
438.408	1	55
438.579	1	53
438.749	1	44
438.920	1	56
439.090	1	61
439.261	1	41
439.431	1	44
439.602	1	47
439.772	1	55
439.943	1	61
440.113	1	55
440.284	1	48
440.455	1	55
440.625	1	66
440.796	1	62
440.966	1	39
441.137	1	45
441.307	1	37
441.478	1	46
441.648	1	45
441.819	1	53
441.989	1	55
442.160	1	43
442.330	1	55
442.501	1	56
442.671	1	49
442.842	1	58
443.012	1	42
443.183	1	47
443.353	1	52
443.524	1	36
443.694	1	40
443.865	1	46
444.035	1	50
444.206	1	45
444.376	1	45
444.547	1	53
444.717	1	36
444.888	1	39
445.058	1	47
445.229	1	33
445.399	1	39
445.570	1	44
445.740	1	39
445.911	1	44
446.081	1	54
446.252	1	48
446.422	1	50
446.593	1	38
446.763	1	41
446.934	1	38
447.104	1	46
447.275	1	48
447.445	1	39
447.616	1	50
447.786	1	37
447.957	1	52
448.127	1	43
448.298	1	40
448.468	1	43
448.639	1	36
448.809	1	52
448.979	1	33
449.150	1	35
449.320	1	48
449.491	1	43
449.661	1	55
449.832	1	43
450.002	1	47
450.173	1	39
450.343	1	42
450.514	1	45
450.684	1	52
450.855	1	53
451.025	1	36
451.196	1	38
451.366	1	48
451.537	1	40
451.707	1	43
451.878	1	38
452.048	1	41
452.218	1	47
452.389	1	49
452.559	1	30
452.730	1	41
452.900	1	44
453.071	1	42
453.241	1	45
453.412	1	47
453.582	1	43
453.753	1	35
453.923	1	46
454.093	1	44
454.264	1	38
454.434	1	45
454.605	1	42
454.775	1	42
454.946	1	45
455.116	1	43
455.287	1	34
455.457	1	35
455.628	1	41
455.798	1	49
455.968	1	44
456.139	1	34
456.309	1	36
456.480	1	36
456.650	1	49
456.821	1	52
456.991	1	44
457.161	1	41
457.332	1	36
457.502	1	32
457.673	1	43
457.843	1	38
458.014	1	40
458.184	1	44
458.355	1	31
458.525	1	29
458.695	1	37
458.866	1	37
459.036	1	30
459.207	1	36
459.377	1	43
459.548	1	39
459.718	1	38
459.888	1	44
460.059	1	25
460.229	1	31
460.400	1	40
460.570	1	34
460.740	1	41
460.911	1	33
461.081	1	27
461.252	1	48
461.422	1	40
461.593	1	27
461.763	1	41
461.933	1	37
462.104	1	37
462.274	1	34
462.445	1	27
462.615	1	33
462.785	1	25
462.956	1	41
463.126	1	24
463.297	1	44
463.467	1	39
463.638	1	32
463.808	1	23
463.978	1	32
464.149	1	44
464.319	1	31
464.490	1	32
464.660	1	33
464.830	1	28
465.001	1	45
465.171	1	28
465.342	1	41
465.512	1	38
465.682	1	40
465.853	1	30
466.023	1	36
466.194	1	35
466.364	1	47
466.534	1	44
466.705	1	36
466.875	1	29
467.045	1	22
467.216	1	34
467.386	1	25
467.557	1	23
467.727	1	31
467.897	1	28
468.068	1	41
468.238	1	33
468.409	1	26
468.579	1	35
468.749	1	19
468.920	1	32
469.090	1	48
469.260	1	26
469.431	1	34
469.601	1	33
469.772	1	28
469.942	1	46
470.112	1	41
470.283	1	38
470.453	1	37
470.623	1	33
470.794	1	32
470.964	1	21
471.135	1	34
471.305	1	35
471.475	1	28
471.646	1	26
471.816	1	35
471.986	1	32
472.157	1	19
472.327	1	20
472.497	1	22
472.668	1	29
472.838	1	18
473.009	1	47
473.179	1	29
473.349	1	34
473.520	1	27
473.690	1	36
473.860	1	26
474.031	1	32
474.201	1	33
474.371	1	26
474.542	1	38
474.712	1	25
474.882	1	24
475.053	1	38
475.223	1	35
475.394	1	29
475.564	1	19
475.734	1	27
475.905	1	24
476.075	1	26
476.245	1	39
476.416	1	21
476.586	1	23
476.756	1	40
476.927	1	26
477.097	1	24
477.267	1	37
477.438	1	12
477.608	1	31
477.778	1	47
477.949	1	32
478.119	1	30
478.289	1	39
478.460	1	35
478.630	1	17
478.800	1	27
478.971	1	33
479.141	1	16
479.311	1	24
479.482	1	19
479.652	1	24
479.822	1	20
479.993	1	28
480.163	1	20
480.333	1	19
480.504	1	30
480.674	1	21
480.844	1	34
481.015	1	13
481.185	1	29
481.355	1	22
481.525	1	27
481.696	1	30
481.866	1	18
482.036	1	29
482.207	1	13
482.377	1	19
482.547	1	31
482.718	1	20
482.888	1	21
483.058	1	28
483.229	1	24
483.399	1	29
483.569	1	28
483.740	1	9
483.910	1	12
484.080	1	34
484.250	1	27
484.421	1	31
484.591	1	27
484.761	1	19
484.932	1	30
485.102	1	39
485.272	1	19
485.443	1	16
485.613	1	36
485.783	1	24
485.953	1	25
486.124	1	13
486.294	1	13
486.464	1	21
486.635	1	18
486.805	1	14
486.975	1	24
487.146	1	17
487.316	1	23
487.486	1	26
487.656	1	14
487.827	1	19
487.997	1	31
488.167	1	21
488.338	1	14
488.508	1	24
488.678	1	18
488.848	1	20
489.019	1	19
489.189	1	20
489.359	1	24
489.529	1	10
489.700	1	9
489.870	1	17
490.040	1	10
490.211	1	22
490.381	1	15
490.551	1	6
490.721	1	13
490.892	1	26
491.062	1	24
491.232	1	17
491.402	1	23
491.573	1	20
491.743	1	14
491.913	1	22
492.084	1	8
492.254	1	18
492.424	1	3
492.594	1	29
492.765	1	12
492.935	1	27
493.105	1	20
493.275	1	13
493.446	1	19
493.616	1	15
493.786	1	22
493.956	1	23
494.127	1	14
494.297	1	19
494.467	1	27
494.637	1	10
494.808	1	4
494.978	1	16
495.148	1	20
495.318	1	14
495.489	1	16
495.659	1	27
495.829	1	23
495.999	1	24
496.170	1	16
496.340	1	19
496.510	1	19
496.680	1	15
496.851	1	7
497.021	1	16
497.191	1	10
497.361	1	9
497.532	1	15
497.702	1	23
497.872	1	7
498.042	1	21
498.213	1	12
498.383	1	19
498.553	1	16
498.723	1	10
498.894	1	19
499.064	1	18
499.234	1	13
499.404	1	23
499.574	1	17
499.745	1	11
499.915	1	13
500.085	1	18
500.255	1	13
500.426	1	15
500.596	1	10
500.766	1	9
500.936	1	13
501.106	1	18
501.277	1	23
501.447	1	14
501.617	1	14
501.787	1	19
501.958	1	23
502.128	1	26
502.298	1	20
502.468	1	18
502.638	1	18
502.809	1	21
502.979	1	-1
503.149	1	18
503.319	1	14
503.489	1	17
503.660	1	16
503.830	1	16
504.000	1	16
504.170	1	17
504.340	1	19
504.511	1	18
504.681	1	17
504.851	1	18
505.021	1	15
505.192	1	3
505.362	1	13
505.532	1	5
505.702	1	7
505.872	1	21
506.043	1	9
506.213	1	27
506.383	1	27
506.553	1	5
506.723	1	22
506.893	1	8
507.064	1	9
507.234	1	3
507.404	1	24
507.574	1	20
507.744	1	21
507.915	1	8
508.085	1	4
508.255	1	21
508.425	1	1
508.595	1	17
508.766	1	6
508.936	1	36
509.106	1	7
509.276	1	20
509.446	1	14
509.616	1	5
509.787	1	10
509.957	1	4
510.127	1	11
510.297	1	17
510.467	1	14
510.638	1	17
510.808	1	7
510.978	1	25
511.148	1	21
511.318	1	4
511.488	1	22
511.659	1	21
511.829	1	10
511.999	1	6
512.169	1	3
512.339	1	16
512.509	1	11
512.680	1	-2
512.850	1	4
513.020	1	21
513.190	1	15
513.360	1	-2
513.530	1	13
513.700	1	3
513.871	1	8
514.041	1	9
514.211	1	9
514.381	1	22
514.551	1	-3
514.721	1	18
514.892	1	9
515.062	1	28
515.232	1	12
515.402	1	16
515.572	1	17
515.742	1	21
515.912	1	19
516.083	1	17
516.253	1	15
516.423	1	9
516.593	1	9
516.763	1	19
516.933	1	18
517.104	1	2
517.274	1	18
517.444	1	5
517.614	1	2
517.784	1	1
517.954	1	10
518.124	1	11
518.294	1	8
518.465	1	11
518.635	1	19
518.805	1	11
518.975	1	9
519.145	1	11
519.315	1	7
519.485	1	13
519.656	1	17
519.826	1	5
519.996	1	15
520.166	1	6
520.336	1	5
520.506	1	20
520.676	1	12
520.846	1	12
521.017	1	8
521.187	1	18
521.357	1	10
521.527	1	8
521.697	1	16
521.867	1	9
522.037	1	15
522.207	1	15
522.377	1	5
522.548	1	17
522.718	1	5
522.888	1	9
523.058	1	12
523.228	1	8
523.398	1	17
523.568	1	7
523.738	1	11
523.909	1	18
524.079	1	10
524.249	1	15
524.419	1	16
524.589	1	8
524.759	1	8
524.929	1	5
525.099	1	7
525.269	1	10
525.439	1	15
525.610	1	2
525.780	1	-2
525.950	1	18
526.120	1	3
526.290	1	5
526.460	1	12
526.630	1	8
526.800	1	8
526.970	1	12
527.140	1	14
527.311	1	26
527.481	1	6
527.651	1	12
527.821	1	10
527.991	1	14
528.161	1	1
528.331	1	14
528.501	1	-1
528.671	1	22
528.841	1	18
529.011	1	7
529.181	1	18
529.352	1	22
529.522	1	14
529.692	1	4
529.862	1	11
530.032	1	4
530.202	1	2
530.372	1	15
530.542	1	8
530.712	1	22
530.882	1	13
531.052	1	10
531.222	1	7
531.392	1	15
531.563	1	3
531.733	1	8
531.903	1	12
532.073	1	3
532.243	1	19
532.413	1	5
532.583	1	10
532.753	1	19
532.923	1	7
533.093	1	0
533.263	1	5
533.433	1	14
533.603	1	11
533.773	1	5
533.943	1	10
534.113	1	5
534.284	1	0
534.454	1	9
534.624	1	10
534.794	1	16
534.964	1	4
535.134	1	15
535.304	1	22
535.474	1	10
535.644	1	14
535.814	1	8
535.984	1	4
536.154	1	8
536.324	1	7
536.494	1	7
536.664	1	5
536.834	1	13
537.004	1	3
537.174	1	11
537.344	1	17
537.514	1	7
537.685	1	9
537.855	1	3
538.025	1	3
538.195	1	13
538.365	1	17
538.535	1	6
538.705	1	2
538.875	1	3
539.045	1	10
539.215	1	11
539.385	1	0
539.555	1	4
539.725	1	3
539.895	1	16
540.065	1	9
540.235	1	3
540.405	1	6
540.575	1	5
540.745	1	6
540.915	1	0
541.085	1	1
541.255	1	17
541.425	1	9
541.595	1	15
541.765	1	22
541.935	1	13
542.105	1	3
542.275	1	10
542.445	1	13
542.615	1	8
542.785	1	-1
542.955	1	4
543.125	1	10
543.295	1	13
543.465	1	5
543.635	1	9
543.805	1	4
543.975	1	-2
544.145	1	26
544.315	1	6
544.485	1	15
544.655	1	-1
544.825	1	4
544.995	1	12
545.165	1	13
545.335	1	6
545.505	1	1
545.675	1	-7
545.845	1	10
546.015	1	13
546.185	1	11
546.355	1	5
546.525	1	0
546.695	1	6
546.865	1	16
547.035	1	6
547.205	1	15
547.375	1	7
547.545	1	-3
547.715	1	13
547.885	1	6
548.055	1	5
548.225	1	9
548.395	1	-1
548.565	1	8
548.735	1	15
548.905	1	12
549.075	1	9
549.245	1	16
549.415	1	5
549.585	1	12
549.755	1	4
549.925	1	0
550.095	1	6
550.265	1	19
550.435	1	9
550.605	1	5
550.775	1	13
550.945	1	7
551.115	1	8
551.285	1	5
551.455	1	12
551.625	1	7
551.795	1	2
551.965	1	7
552.135	1	-3
552.305	1	4
552.475	1	6
552.645	1	8
552.815	1	10
552.985	1	5
553.155	1	10
553.325	1	-8
553.495	1	6
553.665	1	-1
553.835	1	4
554.004	1	21
554.174	1	3
554.344	1	15
554.514	1	12
554.684	1	4
554.854	1	1
555.024	1	10
555.194	1	1
555.364	1	16
555.534	1	-3
555.704	1	9
555.874	1	7
556.044	1	5
556.214	1	17
556.384	1	10
556.554	1	8
556.724	1	11
556.894	1	1
557.064	1	9
557.234	1	-2
557.404	1	8
557.573	1	1
557.743	1	9
557.913	1	6
558.083	1	1
558.253	1	2
558.423	1	8
558.593	1	2
558.763	1	9
558.933	1	4
559.103	1	6
559.273	1	5
559.443	1	12
559.613	1	4
559.783	1	-7
559.953	1	6
560.122	1	10
560.292	1	12
560.462	1	6
560.632	1	-2
560.802	1	13
560.972	1	1
561.142	1	8
561.312	1	7
561.482	1	3
561.652	1	2
561.822	1	2
561.992	1	3
562.162	1	5
562.331	1	4
562.501	1	0
562.671	1	17
562.841	1	2
563.011	1	15
563.181	1	10
563.351	1	1
563.521	1	1
563.691	1	10
563.861	1	10
564.031	1	2
564.201	1	16
564.370	1	6
564.540	1	10
564.710	1	7
564.880	1	14
565.050	1	13
565.220	1	-3
565.390	1	15
565.560	1	12
565.730	1	-2
565.900	1	2
566.069	1	7
566.239	1	1
566.409	1	-5
566.579	1	9
566.749	1	-4
566.919	1	3
567.089	1	7
567.259	1	6
567.429	1	13
567.599	1	10
567.768	1	12
567.938	1	-1
568.108	1	5
568.278	1	11
568.448	1	7
568.618	1	7
568.788	1	14
568.958	1	1
569.128	1	11
569.297	1	1
569.467	1	-7
569.637	1	12
569.807	1	10
569.977	1	9
570.147	1	-2
570.317	1	6
570.487	1	-2
570.656	1	-5
570.826	1	-1
570.996	1	0
571.166	1	14
571.336	1	8
571.506	1	5
571.676	1	15
571.846	1	14
572.015	1	7
572.185	1	11
572.355	1	-7
572.525	1	-7
572.695	1	3
572.865	1	-4
573.035	1	10
573.205	1	9
573.374	1	4
573.544	1	8
573.714	1	-3
573.884	1	7
574.054	1	15
574.224	1	4
574.394	1	8
574.563	1	10
574.733	1	12
574.903	1	8
575.073	1	3
575.243	1	10
575.413	1	1
575.583	1	15
575.752	1	-2
575.922	1	0
576.092	1	0
576.262	1	2
576.432	1	8
576.602	1	-2
576.772	1	14
576.941	1	5
577.111	1	3
577.281	1	4
577.451	1	8
577.621	1	10
577.791	1	7
577.960	1	-1
578.130	1	-3
578.300	1	-17
578.470	1	12
578.640	1	15
578.810	1	-3
578.979	1	14
579.149	1	0
579.319	1	11
579.489	1	-3
579.659	1	-3
579.829	1	12
579.998	1	-5
580.168	1	1
580.338	1	9
580.508	1	18
580.678	1	2
580.848	1	5
581.017	1	6
581.187	1	15
581.357	1	-3
581.527	1	4
581.697	1	1
581.867	1	8
582.036	1	-8
582.206	1	9
582.376	1	6
582.546	1	-8
582.716	1	4
582.885	1	-1
583.055	1	11
583.225	1	1
583.395	1	14
583.565	1	6
583.735	1	14
583.904	1	8
584.074	1	3
584.244	1	-8
584.414	1	11
584.584	1	0
584.753	1	11
584.923	1	8
585.093	1	12
585.263	1	7
585.433	1	3
585.602	1	9
585.772	1	-6
585.942	1	3
586.112	1	2
586.282	1	8
586.451	1	14
586.621	1	12
586.791	1	-1
586.961	1	0
587.131	1	-8
587.300	1	3
587.470	1	6
587.640	1	-7
587.810	1	17
587.980	1	5
588.149	1	9
588.319	1	3
588.489	1	7
588.659	1	6
588.829	1	13
588.998	1	5
589.168	1	17
589.338	1	10
589.508	1	14
589.677	1	7
589.847	1	6
590.017	1	1
590.187	1	6
590.357	1	3
590.526	1	2
590.696	1	2
590.866	1	4
591.036	1	17
591.205	1	17
591.375	1	-3
591.545	1	7
591.715	1	2
591.885	1	3
592.054	1	7
592.224	1	14
592.394	1	0
592.564	1	8
592.733	1	-1
592.903	1	6
593.073	1	6
593.243	1	12
593.412	1	7
593.582	1	8
593.752	1	-3
593.922	1	1
594.091	1	11
594.261	1	5
594.431	1	10
594.601	1	-3
594.771	1	12
594.940	1	9
595.110	1	6
595.280	1	7
595.450	1	4
595.619	1	6
595.789	1	7
595.959	1	9
596.129	1	-2
596.298	1	13
596.468	1	0
596.638	1	2
596.808	1	8
596.977	1	5
597.147	1	-8
597.317	1	2
597.487	1	13
597.656	1	6
597.826	1	11
597.996	1	20
598.166	1	14
598.335	1	13
598.505	1	13
598.675	1	2
598.844	1	3
599.014	1	8
599.184	1	6
599.354	1	4
599.523	1	3
599.693	1	11
599.863	1	11
600.033	1	8
600.202	1	4
600.372	1	0
600.542	1	9
600.712	1	10
600.881	1	-3
601.051	1	5
601.221	1	1
601.390	1	0
601.560	1	7
601.730	1	8
601.900	1	6
602.069	1	6
602.239	1	10
602.409	1	-1
602.578	1	5
602.748	1	9
602.918	1	12
603.088	1	17
603.257	1	3
603.427	1	3
603.597	1	8
603.767	1	6
603.936	1	7
604.106	1	5
604.276	1	16
604.445	1	10
604.615	1	10
604.785	1	7
604.954	1	12
605.124	1	-2
605.294	1	4
605.464	1	7
605.633	1	4
605.803	1	9
605.973	1	11
606.142	1	3
606.312	1	1
606.482	1	6
606.652	1	8
606.821	1	10
606.991	1	7
607.161	1	-1
607.330	1	-1
607.500	1	11
607.670	1	12
607.839	1	18
608.009	1	16
608.179	1	19
608.348	1	10
608.518	1	9
608.688	1	-6
608.858	1	12
609.027	1	11
609.197	1	1
609.367	1	19
609.536	1	6
609.706	1	8
609.876	1	19
610.045	1	9
610.215	1	12
610.385	1	-3
610.554	1	5
610.724	1	1
610.894	1	7
611.063	1	0
611.233	1	11
611.403	1	0
611.572	1	5
611.742	1	11
611.912	1	12
612.081	1	0
612.251	1	10
612.421	1	8
612.590	1	16
612.760	1	6
612.930	1	3
613.099	1	6
613.269	1	-2
613.439	1	8
613.608	1	8
613.778	1	-1
613.948	1	11
614.117	1	15
614.287	1	12
614.457	1	-6
614.626	1	10
614.796	1	11
614.966	1	18
615.135	1	13
615.305	1	17
615.475	1	9
615.644	1	11
615.814	1	8
615.984	1	11
616.153	1	11
616.323	1	19
616.493	1	25
616.662	1	7
616.832	1	10
617.002	1	6
617.171	1	5
617.341	1	7
617.511	1	0
617.680	1	19
617.850	1	15
618.019	1	9
618.189	1	11
618.359	1	-3
618.528	1	3
618.698	1	14
618.868	1	14
619.037	1	12
619.207	1	2
619.377	1	2
619.546	1	6
619.716	1	13
619.885	1	9
620.055	1	11
620.225	1	22
620.394	1	16
620.564	1	13
620.734	1	8
620.903	1	9
621.073	1	6
621.242	1	10
621.412	1	14
621.582	1	-2
621.751	1	19
621.921	1	14
622.091	1	8
622.260	1	0
622.430	1	8
622.599	1	4
622.769	1	15
622.939	1	12
623.108	1	16
623.278	1	12
623.448	1	4
623.617	1	9
623.787	1	8
623.956	1	16
624.126	1	12
624.296	1	10
624.465	1	9
624.635	1	11
624.804	1	0
624.974	1	17
625.144	1	9
625.313	1	1
625.483	1	18
625.652	1	9
625.822	1	9
625.992	1	15
626.161	1	20
626.331	1	13
626.501	1	7
626.670	1	8
626.840	1	8
627.009	1	5
627.179	1	13
627.348	1	19
627.518	1	14
627.688	1	-1
627.857	1	14
628.027	1	-3
628.196	1	9
628.366	1	1
628.536	1	8
628.705	1	5
628.875	1	8
629.044	1	8
629.214	1	11
629.384	1	15
629.553	1	11
629.723	1	2
629.892	1	26
630.062	1	11
630.232	1	10
630.401	1	22
630.571	1	21
630.740	1	10
630.910	1	19
631.079	1	0
631.249	1	16
631.419	1	2
631.588	1	4
631.758	1	13
631.927	1	8
632.097	1	16
632.266	1	8
632.436	1	10
632.606	1	11
632.775	1	15
632.945	1	25
633.114	1	7
633.284	1	10
633.453	1	9
633.623	1	18
633.793	1	2
633.962	1	6
634.132	1	18
634.301	1	8
634.471	1	9
634.640	1	9
634.810	1	10
634.979	1	5
635.149	1	8
635.319	1	13
635.488	1	18
635.658	1	12
635.827	1	6
635.997	1	16
636.166	1	10
636.336	1	6
636.505	1	11
636.675	1	17
636.845	1	5
637.014	1	14
637.184	1	7
637.353	1	11
637.523	1	6
637.692	1	22
637.862	1	16
638.031	1	15
638.201	1	15
638.370	1	11
638.540	1	12
638.710	1	13
638.879	1	17
639.049	1	20
639.218	1	13
639.388	1	4
639.557	1	19
639.727	1	12
639.896	1	11
640.066	1	24
640.235	1	17
640.405	1	13
640.574	1	9
640.744	1	19
640.914	1	9
641.083	1	12
641.253	1	25
641.422	1	13
641.592	1	3
641.761	1	13
641.931	1	9
642.100	1	6
642.270	1	5
642.439	1	6
642.609	1	15
642.778	1	6
642.948	1	7
643.117	1	22
643.287	1	10
643.456	1	17
643.626	1	23
643.795	1	9
643.965	1	14
644.134	1	10
644.304	1	23
644.473	1	15
644.643	1	-2
644.812	1	19
644.982	1	14
645.151	1	19
645.321	1	5
645.490	1	7
645.660	1	6
645.829	1	8
645.999	1	21
646.168	1	11
646.338	1	5
646.507	1	24
646.677	1	9
646.846	1	14
647.016	1	10
647.185	1	-1
647.355	1	13
647.524	1	14
647.694	1	14
647.863	1	12
648.033	1	0
648.202	1	7
648.372	1	24
648.541	1	21
648.711	1	15
648.880	1	15
649.050	1	10
649.219	1	9
649.389	1	20
649.558	1	13
649.728	1	11
649.897	1	17
650.067	1	10
650.236	1	17
650.406	1	5
650.575	1	17
650.745	1	5
650.914	1	5
651.084	1	9
651.253	1	15
651.423	1	11
651.592	1	15
651.762	1	20
651.931	1	4
652.101	1	25
652.270	1	14
652.440	1	4
652.609	1	20
652.778	1	2
652.948	1	16
653.117	1	7
653.287	1	19
653.456	1	22
653.626	1	7
653.795	1	6
653.965	1	3
654.134	1	12
654.304	1	7
654.473	1	14
654.643	1	8
654.812	1	12
654.982	1	13
655.151	1	3
655.320	1	12
655.490	1	4
655.659	1	8
655.829	1	15
655.998	1	6
656.168	1	13
656.337	1	16
656.507	1	5
656.676	1	22
656.846	1	6
657.015	1	5
657.184	1	4
657.354	1	11
657.523	1	9
657.693	1	15
657.862	1	7
658.032	1	11
658.201	1	15
658.371	1	5
658.540	1	4
658.709	1	6
658.879	1	1
659.048	1	11
659.218	1	12
659.387	1	13
659.557	1	18
659.726	1	14
659.895	1	16
660.065	1	2
660.234	1	8
660.404	1	16
660.573	1	19
660.743	1	17
660.912	1	21
661.081	1	25
661.251	1	7
661.420	1	5
661.590	1	1
661.759	1	11
661.929	1	19
662.098	1	12
662.267	1	16
662.437	1	13
662.606	1	17
662.776	1	6
662.945	1	8
663.115	1	11
663.284	1	18
663.453	1	-5
663.623	1	13
663.792	1	18
663.962	1	9
664.131	1	15
664.300	1	11
664.470	1	13
664.639	1	4
664.809	1	2
664.978	1	4
665.148	1	17
665.317	1	4
665.486	1	12
665.656	1	7
665.825	1	17
665.995	1	11
666.164	1	-1
666.333	1	17
666.503	1	19
666.672	1	15
666.842	1	13
667.011	1	12
667.180	1	12
667.350	1	13
667.519	1	12
667.689	1	7
667.858	1	12
668.027	1	28
668.197	1	15
668.366	1	17
668.536	1	15
668.705	1	5
668.874	1	10
669.044	1	5
669.213	1	11
669.382	1	5
669.552	1	16
669.721	1	13
669.891	1	14
670.060	1	20
670.229	1	9
670.399	1	8
670.568	1	9
670.738	1	5
670.907	1	17
671.076	1	11
671.246	1	20
671.415	1	14
671.584	1	9
671.754	1	22
671.923	1	14
672.093	1	25
672.262	1	23
672.431	1	-3
672.601	1	6
672.770	1	11
672.939	1	19
673.109	1	4
673.278	1	13
673.448	1	11
673.617	1	-4
673.786	1	17
