325.333	1	12
325.504	1	18
325.675	1	15
325.846	1	17
326.017	1	20
326.188	1	23
326.359	1	22
326.531	1	12
326.702	1	19
326.873	1	23
327.044	1	3
327.215	1	23
327.386	1	14
327.557	1	7
327.728	1	18
327.899	1	16
328.070	1	23
328.241	1	15
328.412	1	20
328.583	1	5
328.754	1	9
328.926	1	14
329.097	1	6
329.268	1	8
329.439	1	20
329.610	1	20
329.781	1	21
329.952	1	22
330.123	1	17
330.294	1	13
330.465	1	16
330.636	1	18
330.807	1	6
330.978	1	8
331.149	1	28
331.320	1	16
331.492	1	19
331.663	1	14
331.834	1	18
332.005	1	14
332.176	1	10
332.347	1	25
332.518	1	17
332.689	1	19
332.860	1	19
333.031	1	11
333.202	1	2
333.373	1	13
333.544	1	17
333.715	1	26
333.886	1	19
334.057	1	22
334.228	1	18
334.399	1	19
334.570	1	14
334.741	1	18
334.912	1	23
335.084	1	17
335.255	1	23
335.426	1	21
335.597	1	26
335.768	1	33
335.939	1	31
336.110	1	15
336.281	1	39
336.452	1	27
336.623	1	11
336.794	1	26
336.965	1	10
337.136	1	25
337.307	1	32
337.478	1	21
337.649	1	41
337.820	1	23
337.991	1	16
338.162	1	19
338.333	1	19
338.504	1	23
338.675	1	18
338.846	1	18
339.017	1	31
339.188	1	19
339.359	1	27
339.530	1	34
339.701	1	14
339.872	1	27
340.043	1	19
340.214	1	20
340.385	1	32
340.556	1	33
340.727	1	31
340.898	1	40
341.069	1	32
341.240	1	27
341.411	1	25
341.582	1	29
341.753	1	17
341.924	1	28
342.095	1	21
342.266	1	29
342.437	1	32
342.608	1	41
342.779	1	15
342.950	1	29
343.121	1	32
343.292	1	24
343.463	1	31
343.634	1	28
343.805	1	13
343.976	1	38
344.147	1	27
344.318	1	24
344.489	1	37
344.660	1	32
344.831	1	36
345.002	1	41
345.173	1	20
345.344	1	22
345.515	1	17
345.686	1	38
345.857	1	17
346.028	1	19
346.199	1	31
346.370	1	30
346.541	1	16
346.712	1	32
346.883	1	31
347.054	1	23
347.225	1	34
347.396	1	26
347.567	1	42
347.738	1	24
347.909	1	32
348.080	1	33
348.251	1	33
348.422	1	31
348.593	1	30
348.764	1	23
348.935	1	29
349.106	1	29
349.277	1	28
349.448	1	30
349.619	1	32
349.790	1	43
349.961	1	45
350.132	1	43
350.303	1	36
350.474	1	29
350.645	1	38
350.816	1	36
350.987	1	43
351.157	1	32
351.328	1	42
351.499	1	27
351.670	1	33
351.841	1	35
352.012	1	33
352.183	1	32
352.354	1	23
352.525	1	35
352.696	1	35
352.867	1	30
353.038	1	32
353.209	1	28
353.380	1	33
353.551	1	24
353.722	1	44
353.893	1	36
354.064	1	38
354.235	1	24
354.406	1	50
354.576	1	36
354.747	1	33
354.918	1	36
355.089	1	34
355.260	1	47
355.431	1	35
355.602	1	41
355.773	1	39
355.944	1	28
356.115	1	35
356.286	1	35
356.457	1	30
356.628	1	23
356.799	1	39
356.970	1	39
357.141	1	30
357.311	1	46
357.482	1	37
357.653	1	40
357.824	1	33
357.995	1	31
358.166	1	35
358.337	1	35
358.508	1	31
358.679	1	47
358.850	1	33
359.021	1	40
359.192	1	39
359.363	1	38
359.533	1	29
359.704	1	46
359.875	1	59
360.046	1	42
360.217	1	39
360.388	1	32
360.559	1	43
360.730	1	35
360.901	1	34
361.072	1	36
361.243	1	46
361.414	1	37
361.584	1	35
361.755	1	37
361.926	1	41
362.097	1	35
362.268	1	42
362.439	1	40
362.610	1	35
362.781	1	47
362.952	1	46
363.123	1	40
363.293	1	40
363.464	1	49
363.635	1	45
363.806	1	35
363.977	1	37
364.148	1	35
364.319	1	29
364.490	1	50
364.661	1	37
364.832	1	41
365.002	1	44
365.173	1	38
365.344	1	35
365.515	1	29
365.686	1	31
365.857	1	35
366.028	1	38
366.199	1	43
366.370	1	42
366.540	1	38
366.711	1	40
366.882	1	24
367.053	1	28
367.224	1	41
367.395	1	43
367.566	1	28
367.737	1	38
367.908	1	41
368.078	1	42
368.249	1	40
368.420	1	36
368.591	1	43
368.762	1	38
368.933	1	27
369.104	1	61
369.274	1	35
369.445	1	49
369.616	1	48
369.787	1	43
369.958	1	44
370.129	1	36
370.300	1	49
370.471	1	41
370.641	1	49
370.812	1	38
370.983	1	35
371.154	1	39
371.325	1	43
371.496	1	41
371.667	1	47
371.837	1	42
372.008	1	34
372.179	1	36
372.350	1	33
372.521	1	46
372.692	1	27
372.863	1	45
373.033	1	48
373.204	1	36
373.375	1	42
373.546	1	57
373.717	1	38
373.888	1	41
374.059	1	51
374.229	1	36
374.400	1	41
374.571	1	34
374.742	1	40
374.913	1	40
375.084	1	46
375.254	1	43
375.425	1	32
375.596	1	50
375.767	1	47
375.938	1	45
376.109	1	41
376.279	1	29
376.450	1	48
376.621	1	49
376.792	1	47
376.963	1	39
377.134	1	38
377.304	1	39
377.475	1	45
377.646	1	44
377.817	1	39
377.988	1	45
378.159	1	52
378.329	1	49
378.500	1	60
378.671	1	63
378.842	1	51
379.013	1	41
379.184	1	49
379.354	1	41
379.525	1	49
379.696	1	51
379.867	1	47
380.038	1	47
380.209	1	46
380.379	1	54
380.550	1	59
380.721	1	43
380.892	1	48
381.063	1	49
381.233	1	62
381.404	1	51
381.575	1	57
381.746	1	66
381.917	1	58
382.087	1	50
382.258	1	54
382.429	1	57
382.600	1	54
382.771	1	40
382.941	1	67
383.112	1	45
383.283	1	55
383.454	1	55
383.625	1	39
383.795	1	37
383.966	1	51
384.137	1	57
384.308	1	48
384.479	1	37
384.649	1	48
384.820	1	56
384.991	1	49
385.162	1	58
385.333	1	50
385.503	1	49
385.674	1	34
385.845	1	52
386.016	1	59
386.187	1	52
386.357	1	53
386.528	1	45
386.699	1	61
386.870	1	50
387.041	1	61
387.211	1	50
387.382	1	44
387.553	1	48
387.724	1	63
387.894	1	65
388.065	1	54
388.236	1	54
388.407	1	67
388.578	1	49
388.748	1	46
388.919	1	55
389.090	1	66
389.261	1	58
389.431	1	56
389.602	1	69
389.773	1	67
389.944	1	63
390.114	1	74
390.285	1	52
390.456	1	58
390.627	1	57
390.798	1	51
390.968	1	66
391.139	1	50
391.310	1	59
391.481	1	56
391.651	1	72
391.822	1	59
391.993	1	59
392.164	1	60
392.334	1	44
392.505	1	73
392.676	1	69
392.847	1	63
393.017	1	73
393.188	1	61
393.359	1	54
393.530	1	64
393.700	1	48
393.871	1	52
394.042	1	64
394.213	1	47
394.383	1	52
394.554	1	73
394.725	1	57
394.896	1	59
395.066	1	62
395.237	1	64
395.408	1	76
395.579	1	55
395.749	1	59
395.920	1	49
396.091	1	59
396.262	1	61
396.432	1	58
396.603	1	63
396.774	1	56
396.945	1	68
397.115	1	57
397.286	1	56
397.457	1	56
397.627	1	54
397.798	1	64
397.969	1	60
398.140	1	53
398.310	1	57
398.481	1	59
398.652	1	57
398.823	1	68
398.993	1	63
399.164	1	71
399.335	1	63
399.505	1	64
399.676	1	64
399.847	1	71
400.018	1	75
400.188	1	62
400.359	1	63
400.530	1	65
400.700	1	70
400.871	1	65
401.042	1	73
401.213	1	67
401.383	1	63
401.554	1	71
401.725	1	75
401.895	1	64
402.066	1	67
402.237	1	74
402.408	1	71
402.578	1	67
402.749	1	66
402.920	1	77
403.090	1	70
403.261	1	80
403.432	1	67
403.603	1	67
403.773	1	67
403.944	1	73
404.115	1	75
404.285	1	84
404.456	1	64
404.627	1	70
404.797	1	77
404.968	1	73
405.139	1	68
405.310	1	81
405.480	1	64
405.651	1	67
405.822	1	72
405.992	1	70
406.163	1	84
406.334	1	68
406.504	1	61
406.675	1	83
406.846	1	74
407.016	1	78
407.187	1	66
407.358	1	76
407.528	1	77
407.699	1	68
407.870	1	71
408.041	1	80
408.211	1	74
408.382	1	75
408.553	1	76
408.723	1	64
408.894	1	75
409.065	1	67
409.235	1	77
409.406	1	64
409.577	1	71
409.747	1	67
409.918	1	69
410.089	1	70
410.259	1	66
410.430	1	76
410.601	1	80
410.771	1	74
410.942	1	75
411.113	1	79
411.283	1	79
411.454	1	94
411.625	1	81
411.795	1	66
411.966	1	85
412.137	1	86
412.307	1	86
412.478	1	81
412.649	1	71
412.819	1	79
412.990	1	75
413.161	1	73
413.331	1	77
413.502	1	87
413.672	1	87
413.843	1	73
414.014	1	91
414.184	1	75
414.355	1	78
414.526	1	88
414.696	1	74
414.867	1	75
415.038	1	71
415.208	1	78
415.379	1	80
415.550	1	77
415.720	1	71
415.891	1	96
416.062	1	75
416.232	1	67
416.403	1	89
416.573	1	76
416.744	1	65
416.915	1	82
417.085	1	80
417.256	1	75
417.427	1	74
417.597	1	81
417.768	1	76
417.939	1	81
418.109	1	83
418.280	1	66
418.450	1	75
418.621	1	82
418.792	1	67
418.962	1	56
419.133	1	70
419.304	1	76
419.474	1	68
419.645	1	73
419.815	1	69
419.986	1	75
420.157	1	65
420.327	1	64
420.498	1	81
420.669	1	80
420.839	1	64
421.010	1	77
421.180	1	77
421.351	1	71
421.522	1	64
421.692	1	82
421.863	1	76
422.033	1	68
422.204	1	71
422.375	1	65
422.545	1	72
422.716	1	72
422.886	1	76
423.057	1	72
423.228	1	65
423.398	1	70
423.569	1	69
423.740	1	70
423.910	1	81
424.081	1	67
424.251	1	70
424.422	1	68
424.593	1	81
424.763	1	84
424.934	1	81
425.104	1	84
425.275	1	81
425.445	1	70
425.616	1	72
425.787	1	72
425.957	1	66
426.128	1	84
426.298	1	79
426.469	1	72
426.640	1	73
426.810	1	82
426.981	1	86
427.151	1	81
427.322	1	77
427.493	1	71
427.663	1	79
427.834	1	74
428.004	1	69
428.175	1	79
428.345	1	80
428.516	1	85
428.687	1	79
428.857	1	71
429.028	1	66
429.198	1	90
429.369	1	79
429.540	1	68
429.710	1	69
429.881	1	64
430.051	1	79
430.222	1	62
430.392	1	77
430.563	1	67
430.734	1	76
430.904	1	64
431.075	1	77
431.245	1	67
431.416	1	67
431.586	1	57
431.757	1	72
431.927	1	77
432.098	1	64
432.269	1	72
432.439	1	70
432.610	1	71
432.780	1	66
432.951	1	74
433.121	1	75
433.292	1	68
433.462	1	61
433.633	1	71
433.804	1	74
433.974	1	73
434.145	1	68
434.315	1	72
434.486	1	72
434.656	1	80
434.827	1	61
434.997	1	68
435.168	1	74
435.339	1	61
435.509	1	74
435.680	1	73
435.850	1	71
436.021	1	83
436.191	1	69
436.362	1	79
436.532	1	79
436.703	1	66
436.873	1	71
437.044	1	57
437.214	1	69
437.385	1	71
437.556	1	76
437.726	1	67
437.897	1	69
438.067	1	67
438.238	1	75
438.408	1	60
438.579	1	69
438.749	1	55
438.920	1	67
439.090	1	73
439.261	1	64
439.431	1	69
439.602	1	65
439.772	1	74
439.943	1	66
440.113	1	75
440.284	1	71
440.455	1	78
440.625	1	76
440.796	1	69
440.966	1	57
441.137	1	58
441.307	1	64
441.478	1	70
441.648	1	63
441.819	1	66
441.989	1	73
442.160	1	61
442.330	1	65
442.501	1	68
442.671	1	63
442.842	1	75
443.012	1	55
443.183	1	73
443.353	1	79
443.524	1	45
443.694	1	64
443.865	1	64
444.035	1	65
444.206	1	58
444.376	1	59
444.547	1	72
444.717	1	61
444.888	1	57
445.058	1	59
445.229	1	58
445.399	1	53
445.570	1	57
445.740	1	60
445.911	1	62
446.081	1	74
446.252	1	62
446.422	1	59
446.593	1	45
446.763	1	53
446.934	1	48
447.104	1	55
447.275	1	62
447.445	1	61
447.616	1	57
447.786	1	66
447.957	1	54
448.127	1	59
448.298	1	66
448.468	1	51
448.639	1	67
448.809	1	64
448.979	1	64
449.150	1	54
449.320	1	62
449.491	1	68
449.661	1	66
449.832	1	70
450.002	1	60
450.173	1	49
450.343	1	60
450.514	1	55
450.684	1	65
450.855	1	64
451.025	1	59
451.196	1	65
451.366	1	65
451.537	1	60
451.707	1	74
451.878	1	57
452.048	1	65
452.218	1	68
452.389	1	54
452.559	1	45
452.730	1	52
452.900	1	57
453.071	1	54
453.241	1	70
453.412	1	54
453.582	1	65
453.753	1	56
453.923	1	60
454.093	1	66
454.264	1	62
454.434	1	63
454.605	1	64
454.775	1	52
454.946	1	68
455.116	1	60
455.287	1	53
455.457	1	57
455.628	1	60
455.798	1	59
455.968	1	61
456.139	1	43
456.309	1	48
456.480	1	58
456.650	1	59
456.821	1	61
456.991	1	60
457.161	1	64
457.332	1	55
457.502	1	50
457.673	1	54
457.843	1	58
458.014	1	49
458.184	1	56
458.355	1	48
458.525	1	48
458.695	1	40
458.866	1	50
459.036	1	44
459.207	1	48
459.377	1	60
459.548	1	61
459.718	1	59
459.888	1	58
460.059	1	50
460.229	1	51
460.400	1	61
460.570	1	51
460.740	1	43
460.911	1	53
461.081	1	53
461.252	1	64
461.422	1	57
461.593	1	39
461.763	1	58
461.933	1	44
462.104	1	52
462.274	1	59
462.445	1	42
462.615	1	46
462.785	1	46
462.956	1	44
463.126	1	43
463.297	1	45
463.467	1	59
463.638	1	32
463.808	1	41
463.978	1	46
464.149	1	51
464.319	1	40
464.490	1	56
464.660	1	53
464.830	1	47
465.001	1	57
465.171	1	48
465.342	1	51
465.512	1	47
465.682	1	58
465.853	1	47
466.023	1	50
466.194	1	46
466.364	1	55
466.534	1	50
466.705	1	52
466.875	1	51
467.045	1	36
467.216	1	37
467.386	1	44
467.557	1	39
467.727	1	51
467.897	1	40
468.068	1	54
468.238	1	42
468.409	1	41
468.579	1	36
468.749	1	50
468.920	1	43
469.090	1	48
469.260	1	43
469.431	1	55
469.601	1	44
469.772	1	45
469.942	1	52
470.112	1	48
470.283	1	53
470.453	1	47
470.623	1	46
470.794	1	48
470.964	1	29
471.135	1	46
471.305	1	46
471.475	1	47
471.646	1	50
471.816	1	46
471.986	1	44
472.157	1	36
472.327	1	40
472.497	1	36
472.668	1	50
472.838	1	35
473.009	1	57
473.179	1	44
473.349	1	44
473.520	1	35
473.690	1	45
473.860	1	45
474.031	1	40
474.201	1	48
474.371	1	34
474.542	1	48
474.712	1	45
474.882	1	52
475.053	1	47
475.223	1	42
475.394	1	44
475.564	1	35
475.734	1	31
475.905	1	34
476.075	1	35
476.245	1	47
476.416	1	35
476.586	1	44
476.756	1	54
476.927	1	42
477.097	1	44
477.267	1	45
477.438	1	25
477.608	1	31
477.778	1	42
477.949	1	32
478.119	1	41
478.289	1	50
478.460	1	48
478.630	1	31
478.800	1	39
478.971	1	42
479.141	1	35
479.311	1	41
479.482	1	37
479.652	1	45
479.822	1	44
479.993	1	44
480.163	1	42
480.333	1	39
480.504	1	49
480.674	1	30
480.844	1	46
481.015	1	31
481.185	1	46
481.355	1	30
481.525	1	48
481.696	1	46
481.866	1	35
482.036	1	42
482.207	1	37
482.377	1	33
482.547	1	38
482.718	1	41
482.888	1	38
483.058	1	43
483.229	1	34
483.399	1	46
483.569	1	37
483.740	1	32
483.910	1	25
484.080	1	38
484.250	1	39
484.421	1	43
484.591	1	40
484.761	1	47
484.932	1	34
485.102	1	39
485.272	1	36
485.443	1	38
485.613	1	39
485.783	1	33
485.953	1	24
486.124	1	25
486.294	1	35
486.464	1	40
486.635	1	27
486.805	1	30
486.975	1	34
487.146	1	27
487.316	1	49
487.486	1	36
487.656	1	33
487.827	1	31
487.997	1	32
488.167	1	35
488.338	1	29
488.508	1	31
488.678	1	38
488.848	1	37
489.019	1	36
489.189	1	31
489.359	1	39
489.529	1	23
489.700	1	34
489.870	1	30
490.040	1	28
490.211	1	30
490.381	1	23
490.551	1	25
490.721	1	34
490.892	1	31
491.062	1	31
491.232	1	35
491.402	1	33
491.573	1	35
491.743	1	33
491.913	1	28
492.084	1	32
492.254	1	42
492.424	1	21
492.594	1	35
492.765	1	35
492.935	1	39
493.105	1	38
493.275	1	31
493.446	1	35
493.616	1	28
493.786	1	40
493.956	1	29
494.127	1	26
494.297	1	33
494.467	1	36
494.637	1	34
494.808	1	30
494.978	1	37
495.148	1	48
495.318	1	25
495.489	1	28
495.659	1	35
495.829	1	39
495.999	1	39
496.170	1	16
496.340	1	46
496.510	1	32
496.680	1	26
496.851	1	26
497.021	1	15
497.191	1	25
497.361	1	33
497.532	1	17
497.702	1	37
497.872	1	37
498.042	1	26
498.213	1	26
498.383	1	33
498.553	1	22
498.723	1	23
498.894	1	35
499.064	1	36
499.234	1	32
499.404	1	35
499.574	1	30
499.745	1	30
499.915	1	19
500.085	1	29
500.255	1	35
500.426	1	22
500.596	1	38
500.766	1	27
500.936	1	23
501.106	1	35
501.277	1	37
501.447	1	27
501.617	1	30
501.787	1	39
501.958	1	31
502.128	1	37
502.298	1	33
502.468	1	29
502.638	1	27
502.809	1	33
502.979	1	22
503.149	1	31
503.319	1	19
503.489	1	29
503.660	1	24
503.830	1	19
504.000	1	26
504.170	1	19
504.340	1	28
504.511	1	34
504.681	1	29
504.851	1	32
505.021	1	26
505.192	1	18
505.362	1	19
505.532	1	18
505.702	1	19
505.872	1	25
506.043	1	29
506.213	1	33
506.383	1	26
506.553	1	32
506.723	1	34
506.893	1	21
507.064	1	15
507.234	1	19
507.404	1	26
507.574	1	23
507.744	1	19
507.915	1	16
508.085	1	13
508.255	1	25
508.425	1	22
508.595	1	22
508.766	1	19
508.936	1	37
509.106	1	16
509.276	1	26
509.446	1	26
509.616	1	19
509.787	1	24
509.957	1	25
510.127	1	27
510.297	1	24
510.467	1	11
510.638	1	29
510.808	1	13
510.978	1	33
511.148	1	36
511.318	1	27
511.488	1	40
511.659	1	32
511.829	1	16
511.999	1	23
512.169	1	12
512.339	1	25
512.509	1	22
512.680	1	11
512.850	1	28
513.020	1	25
513.190	1	17
513.360	1	34
513.530	1	16
513.700	1	21
513.871	1	30
514.041	1	20
514.211	1	14
514.381	1	34
514.551	1	13
514.721	1	19
514.892	1	16
515.062	1	20
515.232	1	24
515.402	1	15
515.572	1	18
515.742	1	23
515.912	1	15
516.083	1	26
516.253	1	21
516.423	1	8
516.593	1	18
516.763	1	29
516.933	1	27
517.104	1	8
517.274	1	22
517.444	1	11
517.614	1	22
517.784	1	25
517.954	1	20
518.124	1	13
518.294	1	17
518.465	1	26
518.635	1	22
518.805	1	15
518.975	1	19
519.145	1	23
519.315	1	14
519.485	1	20
519.656	1	18
519.826	1	23
519.996	1	13
520.166	1	17
520.336	1	13
520.506	1	17
520.676	1	32
520.846	1	8
521.017	1	13
521.187	1	14
521.357	1	13
521.527	1	21
521.697	1	15
521.867	1	18
522.037	1	15
522.207	1	21
522.377	1	27
522.548	1	27
522.718	1	19
522.888	1	26
523.058	1	17
523.228	1	18
523.398	1	17
523.568	1	17
523.738	1	6
523.909	1	22
524.079	1	15
524.249	1	20
524.419	1	15
524.589	1	16
524.759	1	18
524.929	1	12
525.099	1	18
525.269	1	13
525.439	1	19
525.610	1	11
525.780	1	21
525.950	1	26
526.120	1	7
526.290	1	14
526.460	1	18
526.630	1	24
526.800	1	14
526.970	1	13
527.140	1	27
527.311	1	29
527.481	1	8
527.651	1	31
527.821	1	6
527.991	1	6
528.161	1	13
528.331	1	15
528.501	1	13
528.671	1	18
528.841	1	29
529.011	1	20
529.181	1	21
529.352	1	15
529.522	1	25
529.692	1	9
529.862	1	11
530.032	1	17
530.202	1	20
530.372	1	19
530.542	1	18
530.712	1	23
530.882	1	24
531.052	1	11
531.222	1	20
531.392	1	12
531.563	1	13
531.733	1	12
531.903	1	21
532.073	1	22
532.243	1	23
532.413	1	8
532.583	1	30
532.753	1	18
532.923	1	19
533.093	1	10
533.263	1	9
533.433	1	10
533.603	1	6
533.773	1	8
533.943	1	13
534.113	1	15
534.284	1	1
534.454	1	17
534.624	1	13
534.794	1	23
534.964	1	10
535.134	1	19
535.304	1	14
535.474	1	7
535.644	1	29
535.814	1	20
535.984	1	25
536.154	1	13
536.324	1	9
536.494	1	6
536.664	1	14
536.834	1	12
537.004	1	23
537.174	1	7
537.344	1	9
537.514	1	12
537.685	1	27
537.855	1	11
538.025	1	20
538.195	1	21
538.365	1	18
538.535	1	8
538.705	1	5
538.875	1	9
539.045	1	15
539.215	1	14
539.385	1	17
539.555	1	17
539.725	1	8
539.895	1	13
540.065	1	7
540.235	1	12
540.405	1	5
540.575	1	21
540.745	1	6
540.915	1	13
541.085	1	4
541.255	1	22
541.425	1	10
541.595	1	16
541.765	1	25
541.935	1	8
542.105	1	11
542.275	1	10
542.445	1	16
542.615	1	16
542.785	1	20
542.955	1	7
543.125	1	10
543.295	1	16
543.465	1	19
543.635	1	8
543.805	1	16
543.975	1	5
544.145	1	25
544.315	1	17
544.485	1	13
544.655	1	9
544.825	1	15
544.995	1	21
545.165	1	12
545.335	1	3
545.505	1	4
545.675	1	8
545.845	1	14
546.015	1	15
546.185	1	8
546.355	1	2
546.525	1	11
546.695	1	5
546.865	1	23
547.035	1	8
547.205	1	9
547.375	1	16
547.545	1	10
547.715	1	20
547.885	1	4
548.055	1	4
548.225	1	22
548.395	1	6
548.565	1	17
548.735	1	10
548.905	1	11
549.075	1	12
549.245	1	16
549.415	1	15
549.585	1	15
549.755	1	10
549.925	1	6
550.095	1	13
550.265	1	24
550.435	1	8
550.605	1	14
550.775	1	17
550.945	1	13
551.115	1	19
551.285	1	13
551.455	1	6
551.625	1	9
551.795	1	6
551.965	1	5
552.135	1	9
552.305	1	12
552.475	1	12
552.645	1	13
552.815	1	18
552.985	1	3
553.155	1	15
553.325	1	1
553.495	1	12
553.665	1	5
553.835	1	9
554.004	1	15
554.174	1	9
554.344	1	14
554.514	1	10
554.684	1	2
554.854	1	10
555.024	1	0
555.194	1	-1
555.364	1	14
555.534	1	1
555.704	1	17
555.874	1	11
556.044	1	16
556.214	1	21
556.384	1	9
556.554	1	3
556.724	1	15
556.894	1	12
557.064	1	15
557.234	1	9
557.404	1	14
557.573	1	-5
557.743	1	15
557.913	1	24
558.083	1	7
558.253	1	7
558.423	1	7
558.593	1	8
558.763	1	11
558.933	1	11
559.103	1	15
559.273	1	15
559.443	1	2
559.613	1	14
559.783	1	4
559.953	1	9
560.122	1	14
560.292	1	16
560.462	1	2
560.632	1	7
560.802	1	15
560.972	1	8
561.142	1	9
561.312	1	10
561.482	1	4
561.652	1	3
561.822	1	-1
561.992	1	0
562.162	1	13
562.331	1	7
562.501	1	15
562.671	1	17
562.841	1	0
563.011	1	10
563.181	1	8
563.351	1	9
563.521	1	11
563.691	1	10
563.861	1	15
564.031	1	6
564.201	1	19
564.370	1	13
564.540	1	11
564.710	1	11
564.880	1	15
565.050	1	8
565.220	1	1
565.390	1	11
565.560	1	19
565.730	1	8
565.900	1	14
566.069	1	22
566.239	1	8
566.409	1	1
566.579	1	11
566.749	1	0
566.919	1	10
567.089	1	7
567.259	1	9
567.429	1	17
567.599	1	19
567.768	1	11
567.938	1	11
568.108	1	6
568.278	1	13
568.448	1	17
568.618	1	10
568.788	1	12
568.958	1	6
569.128	1	4
569.297	1	-2
569.467	1	-3
569.637	1	9
569.807	1	16
569.977	1	4
570.147	1	10
570.317	1	10
570.487	1	9
570.656	1	-1
570.826	1	8
570.996	1	10
571.166	1	16
571.336	1	5
571.506	1	11
571.676	1	14
571.846	1	16
572.015	1	0
572.185	1	15
572.355	1	10
572.525	1	-3
572.695	1	15
572.865	1	-2
573.035	1	16
573.205	1	12
573.374	1	8
573.544	1	10
573.714	1	3
573.884	1	14
574.054	1	10
574.224	1	4
574.394	1	-2
574.563	1	12
574.733	1	8
574.903	1	16
575.073	1	11
575.243	1	12
575.413	1	7
575.583	1	18
575.752	1	9
575.922	1	1
576.092	1	-1
576.262	1	5
576.432	1	15
576.602	1	-2
576.772	1	6
576.941	1	13
577.111	1	10
577.281	1	4
577.451	1	5
577.621	1	13
577.791	1	4
577.960	1	10
578.130	1	0
578.300	1	2
578.470	1	1
578.640	1	12
578.810	1	8
578.979	1	20
579.149	1	7
579.319	1	2
579.489	1	-5
579.659	1	-5
579.829	1	4
579.998	1	2
580.168	1	12
580.338	1	9
580.508	1	29
580.678	1	15
580.848	1	10
581.017	1	13
581.187	1	14
581.357	1	10
581.527	1	1
581.697	1	8
581.867	1	9
582.036	1	0
582.206	1	8
582.376	1	2
582.546	1	3
582.716	1	13
582.885	1	-6
583.055	1	16
583.225	1	4
583.395	1	18
583.565	1	11
583.735	1	13
583.904	1	14
584.074	1	-7
584.244	1	2
584.414	1	8
584.584	1	1
584.753	1	10
584.923	1	10
585.093	1	14
585.263	1	7
585.433	1	3
585.602	1	10
585.772	1	3
585.942	1	13
586.112	1	1
586.282	1	9
586.451	1	10
586.621	1	15
586.791	1	8
586.961	1	5
587.131	1	6
587.300	1	-5
587.470	1	-2
587.640	1	6
587.810	1	17
587.980	1	7
588.149	1	10
588.319	1	19
588.489	1	7
588.659	1	5
588.829	1	18
588.998	1	11
589.168	1	16
589.338	1	19
589.508	1	14
589.677	1	16
589.847	1	8
590.017	1	6
590.187	1	5
590.357	1	11
590.526	1	1
590.696	1	2
590.866	1	0
591.036	1	22
591.205	1	19
591.375	1	7
591.545	1	12
591.715	1	11
591.885	1	10
592.054	1	5
592.224	1	11
592.394	1	11
592.564	1	9
592.733	1	3
592.903	1	14
593.073	1	7
593.243	1	15
593.412	1	6
593.582	1	5
593.752	1	5
593.922	1	0
594.091	1	-1
594.261	1	4
594.431	1	26
594.601	1	3
594.771	1	14
594.940	1	20
595.110	1	9
595.280	1	6
595.450	1	14
595.619	1	11
595.789	1	8
595.959	1	10
596.129	1	12
596.298	1	18
596.468	1	11
596.638	1	4
596.808	1	13
596.977	1	10
597.147	1	4
597.317	1	-7
597.487	1	8
597.656	1	11
597.826	1	11
597.996	1	18
598.166	1	14
598.335	1	21
598.505	1	16
598.675	1	4
598.844	1	6
599.014	1	13
599.184	1	13
599.354	1	14
599.523	1	13
599.693	1	19
599.863	1	14
600.033	1	2
600.202	1	17
600.372	1	11
600.542	1	3
600.712	1	9
600.881	1	5
601.051	1	10
601.221	1	10
601.390	1	-1
601.560	1	13
601.730	1	9
601.900	1	1
602.069	1	17
602.239	1	8
602.409	1	21
602.578	1	6
602.748	1	12
602.918	1	7
603.088	1	9
603.257	1	12
603.427	1	9
603.597	1	9
603.767	1	4
603.936	1	3
604.106	1	4
604.276	1	4
604.445	1	15
604.615	1	17
604.785	1	12
604.954	1	16
605.124	1	8
605.294	1	6
605.464	1	7
605.633	1	12
605.803	1	9
605.973	1	15
606.142	1	11
606.312	1	11
606.482	1	5
606.652	1	7
606.821	1	13
606.991	1	9
607.161	1	11
607.330	1	0
607.500	1	13
607.670	1	21
607.839	1	17
608.009	1	9
608.179	1	1
608.348	1	15
608.518	1	14
608.688	1	14
608.858	1	16
609.027	1	9
609.197	1	5
609.367	1	25
609.536	1	16
609.706	1	17
609.876	1	16
610.045	1	4
610.215	1	11
610.385	1	5
610.554	1	3
610.724	1	-6
610.894	1	22
611.063	1	6
611.233	1	15
611.403	1	7
611.572	1	18
611.742	1	2
611.912	1	14
612.081	1	3
612.251	1	13
612.421	1	12
612.590	1	9
612.760	1	11
612.930	1	-4
613.099	1	3
613.269	1	3
613.439	1	5
613.608	1	16
613.778	1	3
613.948	1	14
614.117	1	20
614.287	1	15
614.457	1	-13
614.626	1	20
614.796	1	5
614.966	1	20
615.135	1	11
615.305	1	9
615.475	1	13
615.644	1	14
615.814	1	12
615.984	1	12
616.153	1	18
616.323	1	20
616.493	1	20
616.662	1	13
616.832	1	12
617.002	1	11
617.171	1	-2
617.341	1	10
617.511	1	13
617.680	1	13
617.850	1	10
618.019	1	9
618.189	1	24
618.359	1	2
618.528	1	5
618.698	1	20
618.868	1	7
619.037	1	17
619.207	1	10
619.377	1	2
619.546	1	11
619.716	1	9
619.885	1	13
620.055	1	14
620.225	1	14
620.394	1	8
620.564	1	31
620.734	1	15
620.903	1	11
621.073	1	5
621.242	1	16
621.412	1	12
621.582	1	14
621.751	1	17
621.921	1	7
622.091	1	5
622.260	1	11
622.430	1	19
622.599	1	6
622.769	1	19
622.939	1	15
623.108	1	14
623.278	1	12
623.448	1	16
623.617	1	21
623.787	1	15
623.956	1	17
624.126	1	21
624.296	1	14
624.465	1	14
624.635	1	12
624.804	1	6
624.974	1	18
625.144	1	-4
625.313	1	15
625.483	1	29
625.652	1	13
625.822	1	11
625.992	1	8
626.161	1	24
626.331	1	12
626.501	1	15
626.670	1	14
626.840	1	19
627.009	1	12
627.179	1	12
627.348	1	18
627.518	1	18
627.688	1	14
627.857	1	16
628.027	1	0
628.196	1	8
628.366	1	3
628.536	1	12
628.705	1	7
628.875	1	24
629.044	1	12
629.214	1	11
629.384	1	6
629.553	1	14
629.723	1	1
629.892	1	25
630.062	1	22
630.232	1	15
630.401	1	26
630.571	1	16
630.740	1	22
630.910	1	18
631.079	1	8
631.249	1	8
631.419	1	7
631.588	1	19
631.758	1	16
631.927	1	16
632.097	1	11
632.266	1	26
632.436	1	12
632.606	1	14
632.775	1	19
632.945	1	23
633.114	1	4
633.284	1	14
633.453	1	10
633.623	1	10
633.793	1	-1
633.962	1	12
634.132	1	14
634.301	1	24
634.471	1	18
634.640	1	13
634.810	1	15
634.979	1	12
635.149	1	21
635.319	1	21
635.488	1	18
635.658	1	16
635.827	1	16
635.997	1	17
636.166	1	11
636.336	1	12
636.505	1	18
636.675	1	14
636.845	1	6
637.014	1	13
637.184	1	14
637.353	1	8
637.523	1	11
637.692	1	13
637.862	1	23
638.031	1	12
638.201	1	18
638.370	1	9
638.540	1	5
638.710	1	27
638.879	1	5
639.049	1	15
639.218	1	21
639.388	1	19
639.557	1	27
639.727	1	16
639.896	1	8
640.066	1	17
640.235	1	18
640.405	1	6
640.574	1	15
640.744	1	17
640.914	1	12
641.083	1	23
641.253	1	22
641.422	1	25
641.592	1	11
641.761	1	19
641.931	1	9
642.100	1	18
642.270	1	13
642.439	1	17
642.609	1	21
642.778	1	8
642.948	1	11
643.117	1	19
643.287	1	13
643.456	1	17
643.626	1	22
643.795	1	7
643.965	1	23
644.134	1	10
644.304	1	7
644.473	1	19
644.643	1	11
644.812	1	30
644.982	1	21
645.151	1	23
645.321	1	13
645.490	1	10
645.660	1	7
645.829	1	16
645.999	1	25
646.168	1	10
646.338	1	7
646.507	1	15
646.677	1	15
646.846	1	14
647.016	1	19
647.185	1	5
647.355	1	12
647.524	1	11
647.694	1	17
647.863	1	1
648.033	1	9
648.202	1	18
648.372	1	37
648.541	1	15
648.711	1	15
648.880	1	30
649.050	1	6
649.219	1	10
649.389	1	6
649.558	1	10
649.728	1	18
649.897	1	14
650.067	1	9
650.236	1	16
650.406	1	4
650.575	1	10
650.745	1	10
650.914	1	11
651.084	1	4
651.253	1	21
651.423	1	18
651.592	1	23
651.762	1	21
651.931	1	10
652.101	1	9
652.270	1	17
652.440	1	11
652.609	1	13
652.778	1	6
652.948	1	13
653.117	1	10
653.287	1	30
653.456	1	16
653.626	1	13
653.795	1	18
653.965	1	9
654.134	1	24
654.304	1	23
654.473	1	16
654.643	1	16
654.812	1	12
654.982	1	15
655.151	1	14
655.320	1	23
655.490	1	15
655.659	1	24
655.829	1	22
655.998	1	12
656.168	1	5
656.337	1	21
656.507	1	10
656.676	1	18
656.846	1	13
657.015	1	16
657.184	1	11
657.354	1	10
657.523	1	12
657.693	1	23
657.862	1	9
658.032	1	16
658.201	1	19
658.371	1	3
658.540	1	12
658.709	1	5
658.879	1	4
659.048	1	18
659.218	1	13
659.387	1	7
659.557	1	13
659.726	1	29
659.895	1	10
660.065	1	-1
660.234	1	11
660.404	1	17
660.573	1	24
660.743	1	34
660.912	1	15
661.081	1	14
661.251	1	7
661.420	1	15
661.590	1	1
661.759	1	11
661.929	1	15
662.098	1	9
662.267	1	15
662.437	1	17
662.606	1	24
662.776	1	17
662.945	1	12
663.115	1	27
663.284	1	20
663.453	1	9
663.623	1	22
663.792	1	23
663.962	1	16
664.131	1	23
664.300	1	20
664.470	1	17
664.639	1	15
664.809	1	16
664.978	1	4
665.148	1	21
665.317	1	25
665.486	1	26
665.656	1	2
665.825	1	6
665.995	1	8
666.164	1	11
666.333	1	27
666.503	1	14
666.672	1	27
666.842	1	7
667.011	1	16
667.180	1	9
667.350	1	10
667.519	1	21
667.689	1	4
667.858	1	20
668.027	1	24
668.197	1	19
668.366	1	20
668.536	1	20
668.705	1	13
668.874	1	14
669.044	1	12
669.213	1	24
669.382	1	15
669.552	1	25
669.721	1	25
669.891	1	21
670.060	1	22
670.229	1	11
670.399	1	22
670.568	1	14
670.738	1	10
670.907	1	14
671.076	1	13
671.246	1	24
671.415	1	18
671.584	1	26
671.754	1	16
671.923	1	18
672.093	1	20
672.262	1	17
672.431	1	13
672.601	1	14
672.770	1	18
672.939	1	14
673.109	1	19
673.278	1	17
673.448	1	18
673.617	1	3
673.786	1	12
