325.333	1	16
325.504	1	8
325.675	1	-2
325.846	1	8
326.017	1	9
326.188	1	2
326.359	1	3
326.531	1	0
326.702	1	18
326.873	1	14
327.044	1	12
327.215	1	6
327.386	1	7
327.557	1	14
327.728	1	6
327.899	1	11
328.070	1	10
328.241	1	5
328.412	1	11
328.583	1	3
328.754	1	3
328.926	1	-4
329.097	1	2
329.268	1	7
329.439	1	12
329.610	1	10
329.781	1	11
329.952	1	10
330.123	1	11
330.294	1	-1
330.465	1	-1
330.636	1	13
330.807	1	2
330.978	1	14
331.149	1	15
331.320	1	12
331.492	1	8
331.663	1	21
331.834	1	10
332.005	1	7
332.176	1	1
332.347	1	15
332.518	1	15
332.689	1	6
332.860	1	9
333.031	1	17
333.202	1	11
333.373	1	12
333.544	1	4
333.715	1	13
333.886	1	-6
334.057	1	9
334.228	1	13
334.399	1	15
334.570	1	0
334.741	1	10
334.912	1	19
335.084	1	4
335.255	1	2
335.426	1	10
335.597	1	14
335.768	1	21
335.939	1	4
336.110	1	16
336.281	1	11
336.452	1	10
336.623	1	7
336.794	1	12
336.965	1	-7
337.136	1	5
337.307	1	14
337.478	1	9
337.649	1	19
337.820	1	12
337.991	1	14
338.162	1	3
338.333	1	-1
338.504	1	10
338.675	1	10
338.846	1	3
339.017	1	8
339.188	1	7
339.359	1	6
339.530	1	21
339.701	1	8
339.872	1	16
340.043	1	-7
340.214	1	8
340.385	1	8
340.556	1	9
340.727	1	12
340.898	1	15
341.069	1	10
341.240	1	13
341.411	1	3
341.582	1	13
341.753	1	2
341.924	1	3
342.095	1	14
342.266	1	19
342.437	1	13
342.608	1	13
342.779	1	16
342.950	1	11
343.121	1	7
343.292	1	7
343.463	1	14
343.634	1	-3
343.805	1	10
343.976	1	14
344.147	1	9
344.318	1	11
344.489	1	6
344.660	1	13
344.831	1	29
345.002	1	12
345.173	1	9
345.344	1	8
345.515	1	-4
345.686	1	16
345.857	1	9
346.028	1	19
346.199	1	0
346.370	1	15
346.541	1	-5
346.712	1	13
346.883	1	12
347.054	1	12
347.225	1	12
347.396	1	0
347.567	1	24
347.738	1	3
347.909	1	1
348.080	1	13
348.251	1	3
348.422	1	13
348.593	1	4
348.764	1	5
348.935	1	8
349.106	1	10
349.277	1	10
349.448	1	6
349.619	1	3
349.790	1	15
349.961	1	13
350.132	1	9
350.303	1	8
350.474	1	4
350.645	1	9
350.816	1	6
350.987	1	10
351.157	1	6
351.328	1	12
351.499	1	12
351.670	1	12
351.841	1	18
352.012	1	10
352.183	1	20
352.354	1	2
352.525	1	15
352.696	1	9
352.867	1	12
353.038	1	5
353.209	1	12
353.380	1	1
353.551	1	-1
353.722	1	14
353.893	1	8
354.064	1	10
354.235	1	11
354.406	1	5
354.576	1	3
354.747	1	7
354.918	1	14
355.089	1	7
355.260	1	19
355.431	1	9
355.602	1	9
355.773	1	0
355.944	1	-1
356.115	1	10
356.286	1	12
356.457	1	10
356.628	1	9
356.799	1	-1
356.970	1	20
357.141	1	6
357.311	1	13
357.482	1	12
357.653	1	7
357.824	1	14
357.995	1	3
358.166	1	3
358.337	1	14
358.508	1	17
358.679	1	22
358.850	1	-1
359.021	1	10
359.192	1	12
359.363	1	5
359.533	1	-11
359.704	1	19
359.875	1	15
360.046	1	17
360.217	1	6
360.388	1	9
360.559	1	16
360.730	1	9
360.901	1	1
361.072	1	17
361.243	1	11
361.414	1	8
361.584	1	6
361.755	1	5
361.926	1	14
362.097	1	8
362.268	1	6
362.439	1	12
362.610	1	10
362.781	1	3
362.952	1	16
363.123	1	-6
363.293	1	5
363.464	1	9
363.635	1	13
363.806	1	11
363.977	1	7
364.148	1	3
364.319	1	15
364.490	1	5
364.661	1	0
364.832	1	11
365.002	1	18
365.173	1	8
365.344	1	22
365.515	1	-4
365.686	1	8
365.857	1	9
366.028	1	8
366.199	1	10
366.370	1	9
366.540	1	13
366.711	1	0
366.882	1	4
367.053	1	4
367.224	1	12
367.395	1	4
367.566	1	2
367.737	1	8
367.908	1	10
368.078	1	17
368.249	1	9
368.420	1	8
368.591	1	17
368.762	1	-1
368.933	1	0
369.104	1	22
369.274	1	-5
369.445	1	18
369.616	1	3
369.787	1	21
369.958	1	12
370.129	1	-2
370.300	1	8
370.471	1	12
370.641	1	7
370.812	1	7
370.983	1	-1
371.154	1	1
371.325	1	13
371.496	1	15
371.667	1	5
371.837	1	12
372.008	1	-6
372.179	1	-6
372.350	1	5
372.521	1	6
372.692	1	-6
372.863	1	1
373.033	1	3
373.204	1	6
373.375	1	6
373.546	1	10
373.717	1	-1
373.888	1	12
374.059	1	13
374.229	1	8
374.400	1	6
374.571	1	3
374.742	1	-1
374.913	1	7
375.084	1	14
375.254	1	8
375.425	1	8
375.596	1	21
375.767	1	9
375.938	1	15
376.109	1	5
376.279	1	2
376.450	1	11
376.621	1	0
376.792	1	8
376.963	1	4
377.134	1	13
377.304	1	15
377.475	1	14
377.646	1	10
377.817	1	2
377.988	1	0
378.159	1	16
378.329	1	7
378.500	1	8
378.671	1	10
378.842	1	0
379.013	1	5
379.184	1	12
379.354	1	-1
379.525	1	9
379.696	1	20
379.867	1	3
380.038	1	22
380.209	1	1
380.379	1	2
380.550	1	12
380.721	1	6
380.892	1	14
381.063	1	16
381.233	1	4
381.404	1	22
381.575	1	10
381.746	1	17
381.917	1	10
382.087	1	19
382.258	1	16
382.429	1	8
382.600	1	16
382.771	1	14
382.941	1	15
383.112	1	3
383.283	1	23
383.454	1	1
383.625	1	5
383.795	1	8
383.966	1	3
384.137	1	8
384.308	1	9
384.479	1	-5
384.649	1	9
384.820	1	26
384.991	1	1
385.162	1	9
385.333	1	10
385.503	1	11
385.674	1	-11
385.845	1	16
386.016	1	19
386.187	1	23
386.357	1	4
386.528	1	13
386.699	1	15
386.870	1	5
387.041	1	18
387.211	1	6
387.382	1	5
387.553	1	10
387.724	1	19
387.894	1	12
388.065	1	10
388.236	1	14
388.407	1	13
388.578	1	10
388.748	1	4
388.919	1	10
389.090	1	19
389.261	1	8
389.431	1	17
389.602	1	18
389.773	1	11
389.944	1	15
390.114	1	22
390.285	1	-1
390.456	1	6
390.627	1	11
390.798	1	7
390.968	1	13
391.139	1	10
391.310	1	17
391.481	1	6
391.651	1	13
391.822	1	17
391.993	1	6
392.164	1	14
392.334	1	2
392.505	1	15
392.676	1	11
392.847	1	16
393.017	1	19
393.188	1	18
393.359	1	13
393.530	1	21
393.700	1	3
393.871	1	8
394.042	1	11
394.213	1	7
394.383	1	13
394.554	1	14
394.725	1	3
394.896	1	19
395.066	1	11
395.237	1	16
395.408	1	20
395.579	1	6
395.749	1	12
395.920	1	2
396.091	1	25
396.262	1	13
396.432	1	21
396.603	1	12
396.774	1	18
396.945	1	17
397.115	1	12
397.286	1	13
397.457	1	16
397.627	1	17
397.798	1	12
397.969	1	21
398.140	1	11
398.310	1	24
398.481	1	10
398.652	1	4
398.823	1	15
398.993	1	18
399.164	1	24
399.335	1	15
399.505	1	0
399.676	1	11
399.847	1	9
400.018	1	24
400.188	1	16
400.359	1	14
400.530	1	18
400.700	1	11
400.871	1	12
401.042	1	14
401.213	1	-3
401.383	1	18
401.554	1	16
401.725	1	25
401.895	1	9
402.066	1	14
402.237	1	17
402.408	1	16
402.578	1	8
402.749	1	14
402.920	1	10
403.090	1	12
403.261	1	16
403.432	1	11
403.603	1	20
403.773	1	24
403.944	1	15
404.115	1	18
404.285	1	12
404.456	1	19
404.627	1	6
404.797	1	14
404.968	1	16
405.139	1	16
405.310	1	9
405.480	1	18
405.651	1	13
405.822	1	15
405.992	1	14
406.163	1	32
406.334	1	27
406.504	1	12
406.675	1	31
406.846	1	18
407.016	1	18
407.187	1	15
407.358	1	26
407.528	1	13
407.699	1	9
407.870	1	19
408.041	1	31
408.211	1	18
408.382	1	16
408.553	1	18
408.723	1	16
408.894	1	10
409.065	1	13
409.235	1	19
409.406	1	19
409.577	1	17
409.747	1	19
409.918	1	14
410.089	1	18
410.259	1	13
410.430	1	18
410.601	1	15
410.771	1	15
410.942	1	12
411.113	1	18
411.283	1	13
411.454	1	24
411.625	1	16
411.795	1	0
411.966	1	23
412.137	1	19
412.307	1	8
412.478	1	20
412.649	1	20
412.819	1	19
412.990	1	9
413.161	1	27
413.331	1	7
413.502	1	31
413.672	1	23
413.843	1	14
414.014	1	23
414.184	1	11
414.355	1	19
414.526	1	8
414.696	1	21
414.867	1	22
415.038	1	17
415.208	1	17
415.379	1	14
415.550	1	19
415.720	1	11
415.891	1	23
416.062	1	24
416.232	1	12
416.403	1	22
416.573	1	13
416.744	1	16
416.915	1	25
417.085	1	17
417.256	1	5
417.427	1	17
417.597	1	21
417.768	1	19
417.939	1	25
418.109	1	20
418.280	1	19
418.450	1	26
418.621	1	20
418.792	1	17
418.962	1	0
419.133	1	12
419.304	1	18
419.474	1	18
419.645	1	17
419.815	1	10
419.986	1	15
420.157	1	22
420.327	1	14
420.498	1	17
420.669	1	20
420.839	1	2
421.010	1	22
421.180	1	13
421.351	1	15
421.522	1	16
421.692	1	27
421.863	1	17
422.033	1	14
422.204	1	19
422.375	1	12
422.545	1	16
422.716	1	9
422.886	1	8
423.057	1	15
423.228	1	6
423.398	1	15
423.569	1	16
423.740	1	18
423.910	1	22
424.081	1	13
424.251	1	11
424.422	1	11
424.593	1	10
424.763	1	17
424.934	1	17
425.104	1	11
425.275	1	23
425.445	1	15
425.616	1	22
425.787	1	18
425.957	1	7
426.128	1	17
426.298	1	22
426.469	1	8
426.640	1	16
426.810	1	24
426.981	1	17
427.151	1	14
427.322	1	19
427.493	1	21
427.663	1	30
427.834	1	25
428.004	1	11
428.175	1	27
428.345	1	20
428.516	1	24
428.687	1	11
428.857	1	10
429.028	1	20
429.198	1	27
429.369	1	23
429.540	1	12
429.710	1	16
429.881	1	12
430.051	1	23
430.222	1	19
430.392	1	17
430.563	1	28
430.734	1	24
430.904	1	12
431.075	1	19
431.245	1	16
431.416	1	24
431.586	1	9
431.757	1	13
431.927	1	28
432.098	1	13
432.269	1	18
432.439	1	28
432.610	1	26
432.780	1	12
432.951	1	14
433.121	1	24
433.292	1	13
433.462	1	25
433.633	1	3
433.804	1	12
433.974	1	13
434.145	1	14
434.315	1	8
434.486	1	19
434.656	1	18
434.827	1	12
434.997	1	9
435.168	1	24
435.339	1	15
435.509	1	11
435.680	1	15
435.850	1	11
436.021	1	23
436.191	1	19
436.362	1	19
436.532	1	23
436.703	1	15
436.873	1	21
437.044	1	12
437.214	1	0
437.385	1	16
437.556	1	10
437.726	1	16
437.897	1	20
438.067	1	8
438.238	1	25
438.408	1	20
438.579	1	14
438.749	1	11
438.920	1	21
439.090	1	7
439.261	1	29
439.431	1	10
439.602	1	11
439.772	1	19
439.943	1	0
440.113	1	27
440.284	1	11
440.455	1	25
440.625	1	28
440.796	1	24
440.966	1	5
441.137	1	12
441.307	1	10
441.478	1	22
441.648	1	9
441.819	1	23
441.989	1	21
442.160	1	6
442.330	1	18
442.501	1	12
442.671	1	17
442.842	1	18
443.012	1	16
443.183	1	10
443.353	1	27
443.524	1	11
443.694	1	10
443.865	1	26
444.035	1	6
444.206	1	16
444.376	1	8
444.547	1	33
444.717	1	16
444.888	1	10
445.058	1	17
445.229	1	6
445.399	1	7
445.570	1	5
445.740	1	9
445.911	1	20
446.081	1	23
446.252	1	17
446.422	1	19
446.593	1	5
446.763	1	4
446.934	1	15
447.104	1	21
447.275	1	15
447.445	1	17
447.616	1	19
447.786	1	23
447.957	1	15
448.127	1	21
448.298	1	24
448.468	1	7
448.639	1	11
448.809	1	17
448.979	1	12
449.150	1	10
449.320	1	13
449.491	1	11
449.661	1	27
449.832	1	12
450.002	1	15
450.173	1	11
450.343	1	10
450.514	1	9
450.684	1	16
450.855	1	18
451.025	1	12
451.196	1	8
451.366	1	24
451.537	1	14
451.707	1	16
451.878	1	6
452.048	1	18
452.218	1	9
452.389	1	18
452.559	1	4
452.730	1	17
452.900	1	9
453.071	1	11
453.241	1	28
453.412	1	7
453.582	1	21
453.753	1	7
453.923	1	17
454.093	1	13
454.264	1	16
454.434	1	19
454.605	1	21
454.775	1	13
454.946	1	29
455.116	1	12
455.287	1	8
455.457	1	17
455.628	1	10
455.798	1	14
455.968	1	17
456.139	1	9
456.309	1	16
456.480	1	20
456.650	1	28
456.821	1	20
456.991	1	15
457.161	1	20
457.332	1	9
457.502	1	10
457.673	1	13
457.843	1	20
458.014	1	15
458.184	1	15
458.355	1	3
458.525	1	8
458.695	1	10
458.866	1	12
459.036	1	6
459.207	1	21
459.377	1	13
459.548	1	2
459.718	1	16
459.888	1	24
460.059	1	19
460.229	1	12
460.400	1	9
460.570	1	23
460.740	1	12
460.911	1	3
461.081	1	7
461.252	1	22
461.422	1	15
461.593	1	9
461.763	1	23
461.933	1	18
462.104	1	11
462.274	1	15
462.445	1	7
462.615	1	3
462.785	1	3
462.956	1	10
463.126	1	12
463.297	1	15
463.467	1	14
463.638	1	10
463.808	1	7
463.978	1	7
464.149	1	11
464.319	1	1
464.490	1	4
464.660	1	12
464.830	1	1
465.001	1	13
465.171	1	9
465.342	1	26
465.512	1	20
465.682	1	8
465.853	1	7
466.023	1	19
466.194	1	8
466.364	1	5
466.534	1	13
466.705	1	11
466.875	1	20
467.045	1	5
467.216	1	6
467.386	1	12
467.557	1	5
467.727	1	2
467.897	1	8
468.068	1	5
468.238	1	12
468.409	1	8
468.579	1	9
468.749	1	12
468.920	1	6
469.090	1	19
469.260	1	13
469.431	1	8
469.601	1	6
469.772	1	2
469.942	1	18
470.112	1	6
470.283	1	15
470.453	1	7
470.623	1	10
470.794	1	9
470.964	1	10
471.135	1	14
471.305	1	15
471.475	1	6
471.646	1	9
471.816	1	11
471.986	1	9
472.157	1	11
472.327	1	8
472.497	1	-2
472.668	1	2
472.838	1	1
473.009	1	10
473.179	1	17
473.349	1	9
473.520	1	7
473.690	1	11
473.860	1	1
474.031	1	7
474.201	1	13
474.371	1	5
474.542	1	17
474.712	1	-1
474.882	1	20
475.053	1	9
475.223	1	13
475.394	1	12
475.564	1	5
475.734	1	3
475.905	1	8
476.075	1	7
476.245	1	15
476.416	1	3
476.586	1	17
476.756	1	9
476.927	1	15
477.097	1	14
477.267	1	15
477.438	1	-6
477.608	1	7
477.778	1	23
477.949	1	5
478.119	1	10
478.289	1	21
478.460	1	17
478.630	1	0
478.800	1	8
478.971	1	13
479.141	1	9
479.311	1	-5
479.482	1	-1
479.652	1	14
479.822	1	2
479.993	1	7
480.163	1	5
480.333	1	10
480.504	1	12
480.674	1	11
480.844	1	13
481.015	1	-1
481.185	1	8
481.355	1	2
481.525	1	13
481.696	1	11
481.866	1	8
482.036	1	4
482.207	1	5
482.377	1	-1
482.547	1	12
482.718	1	10
482.888	1	6
483.058	1	10
483.229	1	5
483.399	1	5
483.569	1	6
483.740	1	7
483.910	1	-1
484.080	1	4
484.250	1	4
484.421	1	6
484.591	1	7
484.761	1	2
484.932	1	17
485.102	1	5
485.272	1	-4
485.443	1	11
485.613	1	11
485.783	1	6
485.953	1	-4
486.124	1	-5
486.294	1	9
486.464	1	13
486.635	1	3
486.805	1	6
486.975	1	7
487.146	1	-1
487.316	1	15
487.486	1	3
487.656	1	2
487.827	1	9
487.997	1	9
488.167	1	8
488.338	1	-5
488.508	1	1
488.678	1	7
488.848	1	15
489.019	1	11
489.189	1	16
489.359	1	7
489.529	1	3
489.700	1	-6
489.870	1	5
490.040	1	0
490.211	1	-3
490.381	1	7
490.551	1	2
490.721	1	3
490.892	1	14
491.062	1	6
491.232	1	1
491.402	1	12
491.573	1	7
491.743	1	0
491.913	1	5
492.084	1	8
492.254	1	14
492.424	1	0
492.594	1	7
492.765	1	12
492.935	1	1
493.105	1	-1
493.275	1	5
493.446	1	3
493.616	1	8
493.786	1	8
493.956	1	6
494.127	1	1
494.297	1	3
494.467	1	18
494.637	1	8
494.808	1	-11
494.978	1	2
495.148	1	9
495.318	1	-5
495.489	1	3
495.659	1	16
495.829	1	7
495.999	1	9
496.170	1	5
496.340	1	11
496.510	1	7
496.680	1	3
496.851	1	6
497.021	1	3
497.191	1	-3
497.361	1	9
497.532	1	-2
497.702	1	10
497.872	1	-4
498.042	1	10
498.213	1	-2
498.383	1	11
498.553	1	0
498.723	1	0
498.894	1	18
499.064	1	14
499.234	1	5
499.404	1	9
499.574	1	3
499.745	1	6
499.915	1	-2
500.085	1	2
500.255	1	12
500.426	1	6
500.596	1	20
500.766	1	0
500.936	1	10
501.106	1	15
501.277	1	14
501.447	1	0
501.617	1	0
501.787	1	11
501.958	1	6
502.128	1	15
502.298	1	6
502.468	1	6
502.638	1	-3
502.809	1	0
502.979	1	-6
503.149	1	11
503.319	1	2
503.489	1	8
503.660	1	-2
503.830	1	7
504.000	1	8
504.170	1	0
504.340	1	7
504.511	1	10
504.681	1	7
504.851	1	8
505.021	1	-1
505.192	1	0
505.362	1	1
505.532	1	-2
505.702	1	0
505.872	1	12
506.043	1	-4
506.213	1	7
506.383	1	5
506.553	1	6
506.723	1	14
506.893	1	7
507.064	1	11
507.234	1	-6
507.404	1	1
507.574	1	7
507.744	1	10
507.915	1	-7
508.085	1	-7
508.255	1	12
508.425	1	4
508.595	1	5
508.766	1	-2
508.936	1	10
509.106	1	9
509.276	1	9
509.446	1	6
509.616	1	2
509.787	1	9
509.957	1	1
510.127	1	6
510.297	1	6
510.467	1	-5
510.638	1	6
510.808	1	5
510.978	1	11
511.148	1	20
511.318	1	6
511.488	1	6
511.659	1	7
511.829	1	3
511.999	1	1
512.169	1	0
512.339	1	-1
512.509	1	9
512.680	1	2
512.850	1	1
513.020	1	6
513.190	1	7
513.360	1	-5
513.530	1	6
513.700	1	-7
513.871	1	12
514.041	1	10
514.211	1	5
514.381	1	1
514.551	1	-3
514.721	1	2
514.892	1	4
515.062	1	6
515.232	1	11
515.402	1	10
515.572	1	11
515.742	1	2
515.912	1	-3
516.083	1	-5
516.253	1	8
516.423	1	-5
516.593	1	-3
516.763	1	6
516.933	1	14
517.104	1	-3
517.274	1	9
517.444	1	5
517.614	1	2
517.784	1	2
517.954	1	1
518.124	1	8
518.294	1	7
518.465	1	5
518.635	1	4
518.805	1	8
518.975	1	-2
519.145	1	3
519.315	1	-1
519.485	1	-2
519.656	1	3
519.826	1	1
519.996	1	10
520.166	1	-4
520.336	1	2
520.506	1	10
520.676	1	8
520.846	1	8
521.017	1	7
521.187	1	3
521.357	1	4
521.527	1	7
521.697	1	3
521.867	1	1
522.037	1	9
522.207	1	15
522.377	1	3
522.548	1	2
522.718	1	7
522.888	1	11
523.058	1	4
523.228	1	-1
523.398	1	15
523.568	1	1
523.738	1	-4
523.909	1	8
524.079	1	0
524.249	1	2
524.419	1	3
524.589	1	5
524.759	1	12
524.929	1	2
525.099	1	-14
525.269	1	-5
525.439	1	18
525.610	1	-11
525.780	1	8
525.950	1	7
526.120	1	2
526.290	1	-3
526.460	1	7
526.630	1	11
526.800	1	2
526.970	1	10
527.140	1	12
527.311	1	17
527.481	1	-3
527.651	1	10
527.821	1	-1
527.991	1	-10
528.161	1	2
528.331	1	-4
528.501	1	-5
528.671	1	11
528.841	1	14
529.011	1	-2
529.181	1	5
529.352	1	5
529.522	1	5
529.692	1	0
529.862	1	5
530.032	1	4
530.202	1	3
530.372	1	8
530.542	1	1
530.712	1	19
530.882	1	11
531.052	1	-4
531.222	1	6
531.392	1	5
531.563	1	-5
531.733	1	7
531.903	1	5
532.073	1	6
532.243	1	8
532.413	1	-1
532.583	1	14
532.753	1	8
532.923	1	-5
533.093	1	-3
533.263	1	10
533.433	1	-1
533.603	1	4
533.773	1	-10
533.943	1	7
534.113	1	6
534.284	1	-5
534.454	1	0
534.624	1	4
534.794	1	11
534.964	1	-1
535.134	1	16
535.304	1	3
535.474	1	-4
535.644	1	9
535.814	1	5
535.984	1	1
536.154	1	0
536.324	1	-3
536.494	1	5
536.664	1	7
536.834	1	7
537.004	1	2
537.174	1	-5
537.344	1	7
537.514	1	1
537.685	1	-7
537.855	1	9
538.025	1	6
538.195	1	0
538.365	1	5
538.535	1	-1
538.705	1	2
538.875	1	10
539.045	1	-2
539.215	1	5
539.385	1	-9
539.555	1	4
539.725	1	-2
539.895	1	3
540.065	1	-4
540.235	1	7
540.405	1	1
540.575	1	6
540.745	1	6
540.915	1	3
541.085	1	-3
541.255	1	9
541.425	1	-7
541.595	1	5
541.765	1	17
541.935	1	2
542.105	1	-2
542.275	1	1
542.445	1	7
542.615	1	-1
542.785	1	1
542.955	1	-3
543.125	1	-7
543.295	1	5
543.465	1	-1
543.635	1	-5
543.805	1	2
543.975	1	-8
544.145	1	13
544.315	1	0
544.485	1	5
544.655	1	3
544.825	1	-1
544.995	1	10
545.165	1	4
545.335	1	-6
545.505	1	6
545.675	1	-15
545.845	1	2
546.015	1	-2
546.185	1	9
546.355	1	-3
546.525	1	3
546.695	1	1
546.865	1	4
547.035	1	-7
547.205	1	11
547.375	1	8
547.545	1	7
547.715	1	7
547.885	1	-3
548.055	1	4
548.225	1	5
548.395	1	-9
548.565	1	3
548.735	1	4
548.905	1	5
549.075	1	1
549.245	1	12
549.415	1	-2
549.585	1	8
549.755	1	2
549.925	1	-10
550.095	1	-3
550.265	1	16
550.435	1	0
550.605	1	8
550.775	1	4
550.945	1	-3
551.115	1	9
551.285	1	1
551.455	1	-5
551.625	1	-5
551.795	1	0
551.965	1	7
552.135	1	6
552.305	1	7
552.475	1	8
552.645	1	5
552.815	1	6
552.985	1	3
553.155	1	4
553.325	1	-5
553.495	1	3
553.665	1	3
553.835	1	2
554.004	1	11
554.174	1	4
554.344	1	6
554.514	1	-5
554.684	1	-4
554.854	1	-3
555.024	1	1
555.194	1	8
555.364	1	11
555.534	1	-7
555.704	1	7
555.874	1	-2
556.044	1	0
556.214	1	4
556.384	1	12
556.554	1	6
556.724	1	4
556.894	1	7
557.064	1	3
557.234	1	4
557.404	1	2
557.573	1	-2
557.743	1	11
557.913	1	12
558.083	1	-2
558.253	1	-1
558.423	1	6
558.593	1	5
558.763	1	-2
558.933	1	1
559.103	1	12
559.273	1	-2
559.443	1	8
559.613	1	-8
559.783	1	-4
559.953	1	9
560.122	1	7
560.292	1	7
560.462	1	-1
560.632	1	-1
560.802	1	2
560.972	1	1
561.142	1	3
561.312	1	-4
561.482	1	-6
561.652	1	4
561.822	1	-5
561.992	1	-1
562.162	1	2
562.331	1	4
562.501	1	-6
562.671	1	14
562.841	1	1
563.011	1	0
563.181	1	1
563.351	1	4
563.521	1	3
563.691	1	-3
563.861	1	3
564.031	1	-4
564.201	1	5
564.370	1	8
564.540	1	8
564.710	1	7
564.880	1	4
565.050	1	3
565.220	1	-8
565.390	1	0
565.560	1	12
565.730	1	1
565.900	1	1
566.069	1	5
566.239	1	10
566.409	1	-13
566.579	1	4
566.749	1	-8
566.919	1	4
567.089	1	9
567.259	1	-4
567.429	1	-3
567.599	1	4
567.768	1	1
567.938	1	-13
568.108	1	7
568.278	1	21
568.448	1	2
568.618	1	-1
568.788	1	4
568.958	1	-2
569.128	1	5
569.297	1	-4
569.467	1	-7
569.637	1	6
569.807	1	2
569.977	1	0
570.147	1	5
570.317	1	3
570.487	1	-3
570.656	1	-10
570.826	1	5
570.996	1	-6
571.166	1	4
571.336	1	-6
571.506	1	6
571.676	1	9
571.846	1	-3
572.015	1	8
572.185	1	1
572.355	1	-8
572.525	1	-16
572.695	1	-3
572.865	1	-6
573.035	1	-3
573.205	1	3
573.374	1	9
573.544	1	7
573.714	1	-3
573.884	1	-4
574.054	1	-3
574.224	1	1
574.394	1	-13
574.563	1	8
574.733	1	-8
574.903	1	7
575.073	1	0
575.243	1	2
575.413	1	0
575.583	1	3
575.752	1	-2
575.922	1	-9
576.092	1	0
576.262	1	3
576.432	1	3
576.602	1	-13
576.772	1	7
576.941	1	13
577.111	1	-5
577.281	1	-2
577.451	1	-6
577.621	1	3
577.791	1	6
577.960	1	-1
578.130	1	-7
578.300	1	-10
578.470	1	-4
578.640	1	5
578.810	1	0
578.979	1	-4
579.149	1	-2
579.319	1	-4
579.489	1	0
579.659	1	-3
579.829	1	4
579.998	1	-2
580.168	1	2
580.338	1	7
580.508	1	7
580.678	1	3
580.848	1	0
581.017	1	10
581.187	1	6
581.357	1	-7
581.527	1	1
581.697	1	3
581.867	1	3
582.036	1	-12
582.206	1	5
582.376	1	7
582.546	1	-4
582.716	1	-4
582.885	1	-11
583.055	1	1
583.225	1	-7
583.395	1	8
583.565	1	0
583.735	1	16
583.904	1	0
584.074	1	1
584.244	1	-4
584.414	1	6
584.584	1	7
584.753	1	17
584.923	1	3
585.093	1	3
585.263	1	5
585.433	1	-1
585.602	1	8
585.772	1	-3
585.942	1	0
586.112	1	-9
586.282	1	-1
586.451	1	7
586.621	1	8
586.791	1	5
586.961	1	-1
587.131	1	-6
587.300	1	-3
587.470	1	0
587.640	1	6
587.810	1	12
587.980	1	2
588.149	1	6
588.319	1	2
588.489	1	7
588.659	1	0
588.829	1	12
588.998	1	2
589.168	1	8
589.338	1	0
589.508	1	1
589.677	1	5
589.847	1	2
590.017	1	-1
590.187	1	12
590.357	1	10
590.526	1	-7
590.696	1	-4
590.866	1	-1
591.036	1	15
591.205	1	2
591.375	1	-2
591.545	1	-1
591.715	1	2
591.885	1	-1
592.054	1	9
592.224	1	6
592.394	1	-4
592.564	1	0
592.733	1	-9
592.903	1	0
593.073	1	-1
593.243	1	3
593.412	1	6
593.582	1	1
593.752	1	9
593.922	1	-3
594.091	1	-3
594.261	1	-10
594.431	1	16
594.601	1	2
594.771	1	1
594.940	1	15
595.110	1	4
595.280	1	-1
595.450	1	4
595.619	1	-3
595.789	1	1
595.959	1	9
596.129	1	-1
596.298	1	9
596.468	1	-6
596.638	1	3
596.808	1	-4
596.977	1	6
597.147	1	-8
597.317	1	-2
597.487	1	4
597.656	1	6
597.826	1	4
597.996	1	10
598.166	1	9
598.335	1	7
598.505	1	12
598.675	1	4
598.844	1	-10
599.014	1	7
599.184	1	0
599.354	1	8
599.523	1	4
599.693	1	10
599.863	1	10
600.033	1	-4
600.202	1	6
600.372	1	-1
600.542	1	-2
600.712	1	0
600.881	1	-10
601.051	1	4
601.221	1	10
601.390	1	-5
601.560	1	2
601.730	1	16
601.900	1	7
602.069	1	5
602.239	1	1
602.409	1	9
602.578	1	0
602.748	1	7
602.918	1	1
603.088	1	9
603.257	1	6
603.427	1	-9
603.597	1	10
603.767	1	-4
603.936	1	-3
604.106	1	0
604.276	1	5
604.445	1	9
604.615	1	-4
604.785	1	7
604.954	1	11
605.124	1	8
605.294	1	11
605.464	1	5
605.633	1	-5
605.803	1	-3
605.973	1	11
606.142	1	9
606.312	1	-11
606.482	1	0
606.652	1	6
606.821	1	-3
606.991	1	8
607.161	1	6
607.330	1	-1
607.500	1	5
607.670	1	13
607.839	1	3
608.009	1	3
608.179	1	0
608.348	1	0
608.518	1	-1
608.688	1	-6
608.858	1	12
609.027	1	8
609.197	1	-9
609.367	1	9
609.536	1	2
609.706	1	0
609.876	1	7
610.045	1	1
610.215	1	0
610.385	1	-6
610.554	1	0
610.724	1	-1
610.894	1	2
611.063	1	-3
611.233	1	5
611.403	1	0
611.572	1	-3
611.742	1	7
611.912	1	6
612.081	1	-7
612.251	1	10
612.421	1	4
612.590	1	3
612.760	1	3
612.930	1	-4
613.099	1	9
613.269	1	-4
613.439	1	-7
613.608	1	6
613.778	1	2
613.948	1	5
614.117	1	20
614.287	1	-3
614.457	1	-3
614.626	1	1
614.796	1	5
614.966	1	11
615.135	1	6
615.305	1	5
615.475	1	7
615.644	1	8
615.814	1	-6
615.984	1	0
616.153	1	6
616.323	1	13
616.493	1	8
616.662	1	9
616.832	1	4
617.002	1	4
617.171	1	-5
617.341	1	5
617.511	1	2
617.680	1	12
617.850	1	6
618.019	1	4
618.189	1	13
618.359	1	0
618.528	1	3
618.698	1	12
618.868	1	-7
619.037	1	12
619.207	1	2
619.377	1	2
619.546	1	-6
619.716	1	0
619.885	1	3
620.055	1	10
620.225	1	9
620.394	1	5
620.564	1	17
620.734	1	-1
620.903	1	6
621.073	1	-2
621.242	1	7
621.412	1	6
621.582	1	1
621.751	1	10
621.921	1	4
622.091	1	10
622.260	1	-8
622.430	1	6
622.599	1	-5
622.769	1	11
622.939	1	11
623.108	1	9
623.278	1	-2
623.448	1	4
623.617	1	5
623.787	1	5
623.956	1	10
624.126	1	13
624.296	1	8
624.465	1	2
624.635	1	1
624.804	1	-1
624.974	1	15
625.144	1	6
625.313	1	3
625.483	1	13
625.652	1	14
625.822	1	6
625.992	1	12
626.161	1	8
626.331	1	11
626.501	1	15
626.670	1	16
626.840	1	12
627.009	1	15
627.179	1	8
627.348	1	12
627.518	1	4
627.688	1	6
627.857	1	5
628.027	1	2
628.196	1	7
628.366	1	-13
628.536	1	6
628.705	1	5
628.875	1	13
629.044	1	10
629.214	1	7
629.384	1	1
629.553	1	6
629.723	1	-3
629.892	1	11
630.062	1	2
630.232	1	6
630.401	1	8
630.571	1	12
630.740	1	7
630.910	1	10
631.079	1	5
631.249	1	3
631.419	1	4
631.588	1	0
631.758	1	15
631.927	1	-3
632.097	1	11
632.266	1	9
632.436	1	15
632.606	1	9
632.775	1	10
632.945	1	15
633.114	1	-8
633.284	1	-2
633.453	1	4
633.623	1	11
633.793	1	-8
633.962	1	12
634.132	1	8
634.301	1	10
634.471	1	13
634.640	1	9
634.810	1	7
634.979	1	2
635.149	1	4
635.319	1	8
635.488	1	17
635.658	1	3
635.827	1	9
635.997	1	11
636.166	1	8
636.336	1	2
636.505	1	-2
636.675	1	12
636.845	1	-1
637.014	1	-1
637.184	1	5
637.353	1	4
637.523	1	22
637.692	1	9
637.862	1	6
638.031	1	9
638.201	1	8
638.370	1	11
638.540	1	0
638.710	1	10
638.879	1	2
639.049	1	3
639.218	1	-2
639.388	1	8
639.557	1	16
639.727	1	8
639.896	1	6
640.066	1	8
640.235	1	12
640.405	1	2
640.574	1	6
640.744	1	7
640.914	1	5
641.083	1	14
641.253	1	18
641.422	1	0
641.592	1	7
641.761	1	8
641.931	1	-7
642.100	1	1
642.270	1	6
642.439	1	7
642.609	1	6
642.778	1	4
642.948	1	3
643.117	1	6
643.287	1	4
643.456	1	6
643.626	1	13
643.795	1	0
643.965	1	11
644.134	1	2
644.304	1	7
644.473	1	6
644.643	1	10
644.812	1	18
644.982	1	3
645.151	1	21
645.321	1	0
645.490	1	0
645.660	1	1
645.829	1	5
645.999	1	13
646.168	1	-3
646.338	1	0
646.507	1	14
646.677	1	9
646.846	1	10
647.016	1	14
647.185	1	0
647.355	1	5
647.524	1	6
647.694	1	15
647.863	1	9
648.033	1	3
648.202	1	10
648.372	1	18
648.541	1	2
648.711	1	5
648.880	1	0
649.050	1	7
649.219	1	-1
649.389	1	11
649.558	1	0
649.728	1	2
649.897	1	7
650.067	1	5
650.236	1	0
650.406	1	-1
650.575	1	10
650.745	1	5
650.914	1	7
651.084	1	7
651.253	1	12
651.423	1	11
651.592	1	16
651.762	1	11
651.931	1	2
652.101	1	7
652.270	1	12
652.440	1	-3
652.609	1	9
652.778	1	1
652.948	1	5
653.117	1	4
653.287	1	18
653.456	1	1
653.626	1	-3
653.795	1	4
653.965	1	11
654.134	1	14
654.304	1	9
654.473	1	-1
654.643	1	0
654.812	1	1
654.982	1	5
655.151	1	8
655.320	1	5
655.490	1	14
655.659	1	5
655.829	1	15
655.998	1	1
656.168	1	-6
656.337	1	13
656.507	1	5
656.676	1	14
656.846	1	3
657.015	1	-8
657.184	1	3
657.354	1	-3
657.523	1	4
657.693	1	8
657.862	1	11
658.032	1	2
658.201	1	7
658.371	1	8
658.540	1	-1
658.709	1	1
658.879	1	-3
659.048	1	5
659.218	1	4
659.387	1	1
659.557	1	8
659.726	1	8
659.895	1	3
660.065	1	-3
660.234	1	6
660.404	1	10
660.573	1	13
660.743	1	14
660.912	1	0
661.081	1	15
661.251	1	5
661.420	1	1
661.590	1	-7
661.759	1	12
661.929	1	4
662.098	1	5
662.267	1	-6
662.437	1	9
662.606	1	8
662.776	1	-6
662.945	1	1
663.115	1	12
663.284	1	11
663.453	1	-8
663.623	1	6
663.792	1	4
663.962	1	6
664.131	1	11
664.300	1	3
664.470	1	-3
664.639	1	4
664.809	1	0
664.978	1	-3
665.148	1	10
665.317	1	-1
665.486	1	2
665.656	1	-4
665.825	1	3
665.995	1	7
666.164	1	-2
666.333	1	2
666.503	1	8
666.672	1	11
666.842	1	-6
667.011	1	13
667.180	1	12
667.350	1	9
667.519	1	0
667.689	1	2
667.858	1	8
668.027	1	9
668.197	1	5
668.366	1	9
668.536	1	15
668.705	1	6
668.874	1	11
669.044	1	0
669.213	1	6
669.382	1	9
669.552	1	12
669.721	1	2
669.891	1	3
670.060	1	13
670.229	1	5
670.399	1	11
670.568	1	4
670.738	1	-3
670.907	1	3
671.076	1	6
671.246	1	11
671.415	1	13
671.584	1	1
671.754	1	8
671.923	1	11
672.093	1	5
672.262	1	3
672.431	1	-4
672.601	1	4
672.770	1	1
672.939	1	9
673.109	1	2
673.278	1	8
673.448	1	0
673.617	1	0
673.786	1	9
