325.333	1	17
325.504	1	9
325.675	1	3
325.846	1	3
326.017	1	21
326.188	1	12
326.359	1	11
326.531	1	13
326.702	1	3
326.873	1	7
327.044	1	10
327.215	1	4
327.386	1	16
327.557	1	13
327.728	1	20
327.899	1	28
328.070	1	12
328.241	1	13
328.412	1	14
328.583	1	14
328.754	1	5
328.926	1	12
329.097	1	15
329.268	1	6
329.439	1	10
329.610	1	17
329.781	1	11
329.952	1	12
330.123	1	9
330.294	1	-3
330.465	1	7
330.636	1	20
330.807	1	9
330.978	1	14
331.149	1	19
331.320	1	19
331.492	1	17
331.663	1	19
331.834	1	25
332.005	1	9
332.176	1	6
332.347	1	32
332.518	1	14
332.689	1	15
332.860	1	16
333.031	1	17
333.202	1	-1
333.373	1	17
333.544	1	10
333.715	1	22
333.886	1	14
334.057	1	15
334.228	1	16
334.399	1	22
334.570	1	16
334.741	1	9
334.912	1	11
335.084	1	7
335.255	1	13
335.426	1	8
335.597	1	18
335.768	1	16
335.939	1	18
336.110	1	19
336.281	1	22
336.452	1	14
336.623	1	11
336.794	1	11
336.965	1	13
337.136	1	12
337.307	1	16
337.478	1	13
337.649	1	19
337.820	1	27
337.991	1	13
338.162	1	7
338.333	1	9
338.504	1	9
338.675	1	15
338.846	1	17
339.017	1	26
339.188	1	14
339.359	1	13
339.530	1	20
339.701	1	8
339.872	1	22
340.043	1	-3
340.214	1	15
340.385	1	17
340.556	1	16
340.727	1	24
340.898	1	22
341.069	1	21
341.240	1	20
341.411	1	9
341.582	1	23
341.753	1	16
341.924	1	17
342.095	1	18
342.266	1	15
342.437	1	10
342.608	1	24
342.779	1	22
342.950	1	15
343.121	1	16
343.292	1	12
343.463	1	14
343.634	1	8
343.805	1	12
343.976	1	22
344.147	1	10
344.318	1	14
344.489	1	27
344.660	1	22
344.831	1	21
345.002	1	14
345.173	1	7
345.344	1	16
345.515	1	8
345.686	1	27
345.857	1	15
346.028	1	15
346.199	1	15
346.370	1	19
346.541	1	11
346.712	1	7
346.883	1	13
347.054	1	20
347.225	1	10
347.396	1	3
347.567	1	20
347.738	1	11
347.909	1	11
348.080	1	14
348.251	1	24
348.422	1	21
348.593	1	11
348.764	1	8
348.935	1	19
349.106	1	16
349.277	1	7
349.448	1	26
349.619	1	17
349.790	1	29
349.961	1	22
350.132	1	18
350.303	1	18
350.474	1	8
350.645	1	21
350.816	1	13
350.987	1	17
351.157	1	23
351.328	1	23
351.499	1	21
351.670	1	19
351.841	1	12
352.012	1	27
352.183	1	20
352.354	1	10
352.525	1	19
352.696	1	20
352.867	1	14
353.038	1	10
353.209	1	22
353.380	1	19
353.551	1	12
353.722	1	18
353.893	1	16
354.064	1	16
354.235	1	12
354.406	1	21
354.576	1	19
354.747	1	14
354.918	1	21
355.089	1	18
355.260	1	34
355.431	1	18
355.602	1	14
355.773	1	13
355.944	1	8
356.115	1	25
356.286	1	27
356.457	1	23
356.628	1	13
356.799	1	16
356.970	1	20
357.141	1	13
357.311	1	19
357.482	1	19
357.653	1	19
357.824	1	21
357.995	1	6
358.166	1	15
358.337	1	27
358.508	1	13
358.679	1	32
358.850	1	9
359.021	1	19
359.192	1	23
359.363	1	17
359.533	1	16
359.704	1	26
359.875	1	30
360.046	1	18
360.217	1	28
360.388	1	12
360.559	1	17
360.730	1	20
360.901	1	12
361.072	1	16
361.243	1	22
361.414	1	16
361.584	1	14
361.755	1	15
361.926	1	28
362.097	1	9
362.268	1	17
362.439	1	15
362.610	1	16
362.781	1	14
362.952	1	27
363.123	1	15
363.293	1	21
363.464	1	9
363.635	1	20
363.806	1	16
363.977	1	11
364.148	1	5
364.319	1	9
364.490	1	19
364.661	1	10
364.832	1	26
365.002	1	23
365.173	1	16
365.344	1	25
365.515	1	15
365.686	1	15
365.857	1	24
366.028	1	9
366.199	1	17
366.370	1	25
366.540	1	11
366.711	1	11
366.882	1	12
367.053	1	16
367.224	1	25
367.395	1	6
367.566	1	4
367.737	1	11
367.908	1	15
368.078	1	23
368.249	1	25
368.420	1	13
368.591	1	18
368.762	1	7
368.933	1	15
369.104	1	27
369.274	1	6
369.445	1	22
369.616	1	12
369.787	1	27
369.958	1	16
370.129	1	19
370.300	1	20
370.471	1	26
370.641	1	12
370.812	1	22
370.983	1	7
371.154	1	18
371.325	1	17
371.496	1	19
371.667	1	12
371.837	1	29
372.008	1	10
372.179	1	12
372.350	1	7
372.521	1	25
372.692	1	11
372.863	1	20
373.033	1	23
373.204	1	19
373.375	1	19
373.546	1	31
373.717	1	7
373.888	1	27
374.059	1	21
374.229	1	8
374.400	1	8
374.571	1	16
374.742	1	24
374.913	1	22
375.084	1	24
375.254	1	19
375.425	1	13
375.596	1	33
375.767	1	18
375.938	1	13
376.109	1	25
376.279	1	8
376.450	1	21
376.621	1	22
376.792	1	21
376.963	1	18
377.134	1	26
377.304	1	20
377.475	1	17
377.646	1	17
377.817	1	15
377.988	1	10
378.159	1	29
378.329	1	23
378.500	1	31
378.671	1	21
378.842	1	18
379.013	1	18
379.184	1	10
379.354	1	15
379.525	1	22
379.696	1	34
379.867	1	17
380.038	1	29
380.209	1	22
380.379	1	15
380.550	1	18
380.721	1	24
380.892	1	23
381.063	1	22
381.233	1	24
381.404	1	29
381.575	1	26
381.746	1	21
381.917	1	30
382.087	1	32
382.258	1	39
382.429	1	10
382.600	1	15
382.771	1	31
382.941	1	32
383.112	1	19
383.283	1	38
383.454	1	19
383.625	1	6
383.795	1	34
383.966	1	14
384.137	1	21
384.308	1	14
384.479	1	14
384.649	1	20
384.820	1	38
384.991	1	20
385.162	1	17
385.333	1	28
385.503	1	18
385.674	1	8
385.845	1	31
386.016	1	23
386.187	1	28
386.357	1	25
386.528	1	18
386.699	1	22
386.870	1	20
387.041	1	35
387.211	1	25
387.382	1	9
387.553	1	29
387.724	1	42
387.894	1	23
388.065	1	35
388.236	1	32
388.407	1	32
388.578	1	38
388.748	1	24
388.919	1	27
389.090	1	38
389.261	1	22
389.431	1	32
389.602	1	29
389.773	1	23
389.944	1	36
390.114	1	38
390.285	1	25
390.456	1	28
390.627	1	27
390.798	1	28
390.968	1	36
391.139	1	28
391.310	1	33
391.481	1	28
391.651	1	28
391.822	1	43
391.993	1	19
392.164	1	24
392.334	1	15
392.505	1	29
392.676	1	27
392.847	1	33
393.017	1	28
393.188	1	39
393.359	1	34
393.530	1	27
393.700	1	28
393.871	1	29
394.042	1	27
394.213	1	26
394.383	1	25
394.554	1	38
394.725	1	25
394.896	1	31
395.066	1	38
395.237	1	31
395.408	1	34
395.579	1	31
395.749	1	35
395.920	1	28
396.091	1	34
396.262	1	27
396.432	1	32
396.603	1	29
396.774	1	27
396.945	1	40
397.115	1	33
397.286	1	34
397.457	1	25
397.627	1	30
397.798	1	34
397.969	1	42
398.140	1	34
398.310	1	29
398.481	1	29
398.652	1	24
398.823	1	35
398.993	1	37
399.164	1	29
399.335	1	39
399.505	1	26
399.676	1	26
399.847	1	37
400.018	1	42
400.188	1	40
400.359	1	31
400.530	1	30
400.700	1	39
400.871	1	31
401.042	1	42
401.213	1	30
401.383	1	36
401.554	1	31
401.725	1	36
401.895	1	35
402.066	1	28
402.237	1	37
402.408	1	36
402.578	1	35
402.749	1	26
402.920	1	42
403.090	1	28
403.261	1	45
403.432	1	33
403.603	1	31
403.773	1	43
403.944	1	31
404.115	1	37
404.285	1	40
404.456	1	31
404.627	1	32
404.797	1	30
404.968	1	44
405.139	1	34
405.310	1	46
405.480	1	32
405.651	1	33
405.822	1	33
405.992	1	32
406.163	1	41
406.334	1	49
406.504	1	48
406.675	1	51
406.846	1	38
407.016	1	47
407.187	1	38
407.358	1	39
407.528	1	37
407.699	1	31
407.870	1	49
408.041	1	43
408.211	1	35
408.382	1	44
408.553	1	41
408.723	1	33
408.894	1	38
409.065	1	31
409.235	1	42
409.406	1	34
409.577	1	27
409.747	1	35
409.918	1	35
410.089	1	45
410.259	1	39
410.430	1	42
410.601	1	43
410.771	1	33
410.942	1	38
411.113	1	38
411.283	1	41
411.454	1	54
411.625	1	47
411.795	1	34
411.966	1	48
412.137	1	46
412.307	1	47
412.478	1	45
412.649	1	38
412.819	1	50
412.990	1	45
413.161	1	47
413.331	1	40
413.502	1	59
413.672	1	39
413.843	1	40
414.014	1	49
414.184	1	41
414.355	1	36
414.526	1	33
414.696	1	40
414.867	1	44
415.038	1	37
415.208	1	44
415.379	1	48
415.550	1	37
415.720	1	24
415.891	1	46
416.062	1	42
416.232	1	35
416.403	1	45
416.573	1	49
416.744	1	37
416.915	1	50
417.085	1	44
417.256	1	39
417.427	1	28
417.597	1	40
417.768	1	47
417.939	1	48
418.109	1	42
418.280	1	35
418.450	1	44
418.621	1	40
418.792	1	36
418.962	1	34
419.133	1	37
419.304	1	38
419.474	1	37
419.645	1	40
419.815	1	43
419.986	1	51
420.157	1	36
420.327	1	37
420.498	1	43
420.669	1	47
420.839	1	32
421.010	1	40
421.180	1	43
421.351	1	49
421.522	1	34
421.692	1	41
421.863	1	35
422.033	1	39
422.204	1	43
422.375	1	42
422.545	1	44
422.716	1	38
422.886	1	34
423.057	1	44
423.228	1	41
423.398	1	35
423.569	1	46
423.740	1	34
423.910	1	43
424.081	1	37
424.251	1	30
424.422	1	31
424.593	1	56
424.763	1	54
424.934	1	43
425.104	1	34
425.275	1	49
425.445	1	31
425.616	1	38
425.787	1	36
425.957	1	28
426.128	1	39
426.298	1	46
426.469	1	37
426.640	1	42
426.810	1	59
426.981	1	40
427.151	1	49
427.322	1	50
427.493	1	43
427.663	1	54
427.834	1	38
428.004	1	32
428.175	1	53
428.345	1	48
428.516	1	42
428.687	1	42
428.857	1	45
429.028	1	43
429.198	1	42
429.369	1	46
429.540	1	42
429.710	1	41
429.881	1	31
430.051	1	55
430.222	1	42
430.392	1	38
430.563	1	39
430.734	1	41
430.904	1	35
431.075	1	44
431.245	1	26
431.416	1	46
431.586	1	32
431.757	1	40
431.927	1	56
432.098	1	29
432.269	1	51
432.439	1	40
432.610	1	49
432.780	1	39
432.951	1	43
433.121	1	44
433.292	1	35
433.462	1	39
433.633	1	29
433.804	1	37
433.974	1	34
434.145	1	34
434.315	1	32
434.486	1	44
434.656	1	44
434.827	1	37
434.997	1	47
435.168	1	40
435.339	1	34
435.509	1	41
435.680	1	42
435.850	1	36
436.021	1	49
436.191	1	36
436.362	1	43
436.532	1	44
436.703	1	37
436.873	1	37
437.044	1	31
437.214	1	40
437.385	1	38
437.556	1	37
437.726	1	42
437.897	1	49
438.067	1	37
438.238	1	40
438.408	1	34
438.579	1	44
438.749	1	27
438.920	1	40
439.090	1	33
439.261	1	39
439.431	1	42
439.602	1	52
439.772	1	41
439.943	1	34
440.113	1	41
440.284	1	38
440.455	1	39
440.625	1	53
440.796	1	47
440.966	1	28
441.137	1	32
441.307	1	27
441.478	1	48
441.648	1	33
441.819	1	40
441.989	1	41
442.160	1	35
442.330	1	38
442.501	1	41
442.671	1	38
442.842	1	56
443.012	1	28
443.183	1	31
443.353	1	39
443.524	1	35
443.694	1	26
443.865	1	51
444.035	1	40
444.206	1	39
444.376	1	31
444.547	1	46
444.717	1	32
444.888	1	44
445.058	1	34
445.229	1	27
445.399	1	42
445.570	1	29
445.740	1	24
445.911	1	39
446.081	1	49
446.252	1	24
446.422	1	27
446.593	1	25
446.763	1	23
446.934	1	29
447.104	1	37
447.275	1	39
447.445	1	48
447.616	1	35
447.786	1	37
447.957	1	35
448.127	1	37
448.298	1	40
448.468	1	28
448.639	1	29
448.809	1	32
448.979	1	28
449.150	1	33
449.320	1	39
449.491	1	36
449.661	1	49
449.832	1	39
450.002	1	36
450.173	1	27
450.343	1	28
450.514	1	35
450.684	1	34
450.855	1	27
451.025	1	34
451.196	1	27
451.366	1	28
451.537	1	40
451.707	1	44
451.878	1	18
452.048	1	32
452.218	1	33
452.389	1	30
452.559	1	30
452.730	1	33
452.900	1	38
453.071	1	27
453.241	1	39
453.412	1	36
453.582	1	32
453.753	1	20
453.923	1	42
454.093	1	41
454.264	1	25
454.434	1	33
454.605	1	46
454.775	1	34
454.946	1	52
455.116	1	38
455.287	1	33
455.457	1	29
455.628	1	42
455.798	1	31
455.968	1	43
456.139	1	30
456.309	1	22
456.480	1	36
456.650	1	42
456.821	1	40
456.991	1	38
457.161	1	37
457.332	1	26
457.502	1	24
457.673	1	26
457.843	1	30
458.014	1	38
458.184	1	21
458.355	1	31
458.525	1	25
458.695	1	18
458.866	1	39
459.036	1	25
459.207	1	24
459.377	1	37
459.548	1	16
459.718	1	25
459.888	1	41
460.059	1	17
460.229	1	24
460.400	1	37
460.570	1	24
460.740	1	13
460.911	1	28
461.081	1	24
461.252	1	40
461.422	1	29
461.593	1	26
461.763	1	36
461.933	1	24
462.104	1	36
462.274	1	34
462.445	1	18
462.615	1	29
462.785	1	25
462.956	1	16
463.126	1	23
463.297	1	31
463.467	1	34
463.638	1	17
463.808	1	30
463.978	1	19
464.149	1	23
464.319	1	19
464.490	1	17
464.660	1	21
464.830	1	15
465.001	1	34
465.171	1	19
465.342	1	34
465.512	1	19
465.682	1	24
465.853	1	34
466.023	1	26
466.194	1	16
466.364	1	29
466.534	1	40
466.705	1	23
466.875	1	21
467.045	1	25
467.216	1	27
467.386	1	25
467.557	1	23
467.727	1	20
467.897	1	16
468.068	1	28
468.238	1	18
468.409	1	21
468.579	1	11
468.749	1	24
468.920	1	13
469.090	1	31
469.260	1	7
469.431	1	12
469.601	1	18
469.772	1	29
469.942	1	27
470.112	1	23
470.283	1	39
470.453	1	24
470.623	1	19
470.794	1	26
470.964	1	11
471.135	1	27
471.305	1	17
471.475	1	26
471.646	1	19
471.816	1	22
471.986	1	30
472.157	1	15
472.327	1	13
472.497	1	19
472.668	1	21
472.838	1	15
473.009	1	38
473.179	1	23
473.349	1	13
473.520	1	16
473.690	1	22
473.860	1	16
474.031	1	18
474.201	1	26
474.371	1	22
474.542	1	30
474.712	1	11
474.882	1	24
475.053	1	24
475.223	1	24
475.394	1	22
475.564	1	11
475.734	1	16
475.905	1	18
476.075	1	25
476.245	1	21
476.416	1	7
476.586	1	26
476.756	1	22
476.927	1	26
477.097	1	17
477.267	1	25
477.438	1	-1
477.608	1	20
477.778	1	20
477.949	1	22
478.119	1	13
478.289	1	19
478.460	1	20
478.630	1	8
478.800	1	26
478.971	1	21
479.141	1	21
479.311	1	27
479.482	1	19
479.652	1	18
479.822	1	21
479.993	1	16
480.163	1	20
480.333	1	19
480.504	1	20
480.674	1	20
480.844	1	23
481.015	1	22
481.185	1	22
481.355	1	17
481.525	1	11
481.696	1	24
481.866	1	16
482.036	1	20
482.207	1	7
482.377	1	10
482.547	1	18
482.718	1	21
482.888	1	18
483.058	1	26
483.229	1	23
483.399	1	12
483.569	1	14
483.740	1	3
483.910	1	1
484.080	1	16
484.250	1	11
484.421	1	16
484.591	1	18
484.761	1	23
484.932	1	29
485.102	1	22
485.272	1	17
485.443	1	21
485.613	1	12
485.783	1	5
485.953	1	6
486.124	1	12
486.294	1	22
486.464	1	21
486.635	1	13
486.805	1	9
486.975	1	10
487.146	1	5
487.316	1	15
487.486	1	16
487.656	1	6
487.827	1	20
487.997	1	10
488.167	1	15
488.338	1	8
488.508	1	9
488.678	1	24
488.848	1	13
489.019	1	14
489.189	1	14
489.359	1	15
489.529	1	8
489.700	1	16
489.870	1	17
490.040	1	18
490.211	1	17
490.381	1	16
490.551	1	3
490.721	1	14
490.892	1	28
491.062	1	13
491.232	1	16
491.402	1	20
491.573	1	21
491.743	1	17
491.913	1	10
492.084	1	12
492.254	1	34
492.424	1	7
492.594	1	21
492.765	1	6
492.935	1	22
493.105	1	20
493.275	1	21
493.446	1	27
493.616	1	11
493.786	1	11
493.956	1	5
494.127	1	6
494.297	1	24
494.467	1	18
494.637	1	23
494.808	1	5
494.978	1	13
495.148	1	20
495.318	1	4
495.489	1	8
495.659	1	21
495.829	1	19
495.999	1	14
496.170	1	19
496.340	1	20
496.510	1	9
496.680	1	9
496.851	1	13
497.021	1	2
497.191	1	9
497.361	1	9
497.532	1	9
497.702	1	16
497.872	1	2
498.042	1	18
498.213	1	9
498.383	1	18
498.553	1	10
498.723	1	11
498.894	1	19
499.064	1	18
499.234	1	8
499.404	1	23
499.574	1	16
499.745	1	10
499.915	1	12
500.085	1	14
500.255	1	8
500.426	1	10
500.596	1	11
500.766	1	2
500.936	1	15
501.106	1	20
501.277	1	15
501.447	1	5
501.617	1	8
501.787	1	17
501.958	1	13
502.128	1	17
502.298	1	21
502.468	1	7
502.638	1	8
502.809	1	1
502.979	1	2
503.149	1	17
503.319	1	6
503.489	1	5
503.660	1	17
503.830	1	13
504.000	1	1
504.170	1	10
504.340	1	14
504.511	1	17
504.681	1	28
504.851	1	18
505.021	1	20
505.192	1	7
505.362	1	8
505.532	1	13
505.702	1	0
505.872	1	10
506.043	1	9
506.213	1	13
506.383	1	23
506.553	1	10
506.723	1	11
506.893	1	14
507.064	1	10
507.234	1	3
507.404	1	19
507.574	1	12
507.744	1	9
507.915	1	14
508.085	1	-4
508.255	1	11
508.425	1	6
508.595	1	5
508.766	1	-5
508.936	1	18
509.106	1	0
509.276	1	7
509.446	1	4
509.616	1	7
509.787	1	20
509.957	1	10
510.127	1	10
510.297	1	16
510.467	1	13
510.638	1	5
510.808	1	2
510.978	1	15
511.148	1	16
511.318	1	9
511.488	1	8
511.659	1	21
511.829	1	15
511.999	1	-6
512.169	1	6
512.339	1	7
512.509	1	11
512.680	1	-4
512.850	1	16
513.020	1	8
513.190	1	13
513.360	1	13
513.530	1	13
513.700	1	0
513.871	1	1
514.041	1	6
514.211	1	11
514.381	1	21
514.551	1	-7
514.721	1	10
514.892	1	14
515.062	1	16
515.232	1	8
515.402	1	9
515.572	1	8
515.742	1	15
515.912	1	5
516.083	1	13
516.253	1	13
516.423	1	8
516.593	1	8
516.763	1	25
516.933	1	17
517.104	1	-2
517.274	1	15
517.444	1	6
517.614	1	13
517.784	1	12
517.954	1	13
518.124	1	7
518.294	1	9
518.465	1	15
518.635	1	12
518.805	1	4
518.975	1	1
519.145	1	9
519.315	1	7
519.485	1	13
519.656	1	6
519.826	1	7
519.996	1	17
520.166	1	8
520.336	1	2
520.506	1	20
520.676	1	11
520.846	1	5
521.017	1	3
521.187	1	4
521.357	1	2
521.527	1	7
521.697	1	11
521.867	1	-1
522.037	1	18
522.207	1	6
522.377	1	11
522.548	1	7
522.718	1	9
522.888	1	15
523.058	1	13
523.228	1	-7
523.398	1	19
523.568	1	7
523.738	1	14
523.909	1	14
524.079	1	6
524.249	1	4
524.419	1	9
524.589	1	7
524.759	1	10
524.929	1	9
525.099	1	0
525.269	1	-2
525.439	1	2
525.610	1	-1
525.780	1	9
525.950	1	15
526.120	1	4
526.290	1	5
526.460	1	14
526.630	1	2
526.800	1	3
526.970	1	9
527.140	1	19
527.311	1	22
527.481	1	0
527.651	1	3
527.821	1	7
527.991	1	2
528.161	1	6
528.331	1	13
528.501	1	2
528.671	1	11
528.841	1	15
529.011	1	5
529.181	1	14
529.352	1	16
529.522	1	4
529.692	1	10
529.862	1	8
530.032	1	11
530.202	1	6
530.372	1	11
530.542	1	0
530.712	1	19
530.882	1	8
531.052	1	10
531.222	1	4
531.392	1	10
531.563	1	0
531.733	1	7
531.903	1	16
532.073	1	12
532.243	1	14
532.413	1	5
532.583	1	11
532.753	1	9
532.923	1	-1
533.093	1	4
533.263	1	4
533.433	1	10
533.603	1	-2
533.773	1	4
533.943	1	4
534.113	1	14
534.284	1	-4
534.454	1	10
534.624	1	11
534.794	1	14
534.964	1	0
535.134	1	14
535.304	1	17
535.474	1	17
535.644	1	7
535.814	1	0
535.984	1	-6
536.154	1	1
536.324	1	1
536.494	1	10
536.664	1	4
536.834	1	15
537.004	1	6
537.174	1	10
537.344	1	6
537.514	1	12
537.685	1	8
537.855	1	-3
538.025	1	6
538.195	1	10
538.365	1	7
538.535	1	3
538.705	1	0
538.875	1	7
539.045	1	9
539.215	1	9
539.385	1	9
539.555	1	-6
539.725	1	1
539.895	1	9
540.065	1	7
540.235	1	9
540.405	1	0
540.575	1	15
540.745	1	8
540.915	1	9
541.085	1	13
541.255	1	8
541.425	1	1
541.595	1	10
541.765	1	12
541.935	1	1
542.105	1	-3
542.275	1	8
542.445	1	6
542.615	1	2
542.785	1	8
542.955	1	-5
543.125	1	2
543.295	1	8
543.465	1	4
543.635	1	5
543.805	1	-1
543.975	1	6
544.145	1	12
544.315	1	0
544.485	1	10
544.655	1	-4
544.825	1	4
544.995	1	12
545.165	1	11
545.335	1	2
545.505	1	-1
545.675	1	-7
545.845	1	13
546.015	1	7
546.185	1	5
546.355	1	-1
546.525	1	-2
546.695	1	4
546.865	1	16
547.035	1	-2
547.205	1	13
547.375	1	7
547.545	1	6
547.715	1	6
547.885	1	-5
548.055	1	3
548.225	1	15
548.395	1	-12
548.565	1	13
548.735	1	-7
548.905	1	4
549.075	1	1
549.245	1	12
549.415	1	-3
549.585	1	11
549.755	1	11
549.925	1	-3
550.095	1	1
550.265	1	14
550.435	1	8
550.605	1	6
550.775	1	8
550.945	1	3
551.115	1	12
551.285	1	-3
551.455	1	10
551.625	1	1
551.795	1	2
551.965	1	-2
552.135	1	-3
552.305	1	2
552.475	1	17
552.645	1	-1
552.815	1	7
552.985	1	5
553.155	1	8
553.325	1	3
553.495	1	5
553.665	1	0
553.835	1	2
554.004	1	16
554.174	1	7
554.344	1	10
554.514	1	5
554.684	1	4
554.854	1	1
555.024	1	6
555.194	1	3
555.364	1	8
555.534	1	-4
555.704	1	11
555.874	1	10
556.044	1	2
556.214	1	16
556.384	1	13
556.554	1	3
556.724	1	12
556.894	1	12
557.064	1	3
557.234	1	7
557.404	1	2
557.573	1	7
557.743	1	4
557.913	1	16
558.083	1	3
558.253	1	1
558.423	1	2
558.593	1	-4
558.763	1	4
558.933	1	2
559.103	1	8
559.273	1	5
559.443	1	6
559.613	1	2
559.783	1	6
559.953	1	0
560.122	1	8
560.292	1	14
560.462	1	2
560.632	1	-1
560.802	1	10
560.972	1	4
561.142	1	-2
561.312	1	7
561.482	1	-5
561.652	1	0
561.822	1	-3
561.992	1	6
562.162	1	9
562.331	1	10
562.501	1	0
562.671	1	14
562.841	1	-3
563.011	1	5
563.181	1	5
563.351	1	4
563.521	1	8
563.691	1	-1
563.861	1	12
564.031	1	1
564.201	1	10
564.370	1	2
564.540	1	11
564.710	1	4
564.880	1	3
565.050	1	9
565.220	1	0
565.390	1	1
565.560	1	8
565.730	1	14
565.900	1	-3
566.069	1	4
566.239	1	10
566.409	1	-10
566.579	1	8
566.749	1	-9
566.919	1	-2
567.089	1	-1
567.259	1	7
567.429	1	1
567.599	1	13
567.768	1	0
567.938	1	-3
568.108	1	8
568.278	1	11
568.448	1	-9
568.618	1	13
568.788	1	4
568.958	1	-1
569.128	1	7
569.297	1	3
569.467	1	1
569.637	1	9
569.807	1	7
569.977	1	-6
570.147	1	4
570.317	1	8
570.487	1	6
570.656	1	-7
570.826	1	5
570.996	1	-3
571.166	1	10
571.336	1	-4
571.506	1	-3
571.676	1	11
571.846	1	1
572.015	1	-9
572.185	1	6
572.355	1	5
572.525	1	-4
572.695	1	4
572.865	1	0
573.035	1	17
573.205	1	6
573.374	1	-3
573.544	1	17
573.714	1	3
573.884	1	4
574.054	1	14
574.224	1	4
574.394	1	4
574.563	1	14
574.733	1	10
574.903	1	6
575.073	1	5
575.243	1	-2
575.413	1	9
575.583	1	5
575.752	1	3
575.922	1	-2
576.092	1	-9
576.262	1	7
576.432	1	6
576.602	1	1
576.772	1	6
576.941	1	-7
577.111	1	4
577.281	1	4
577.451	1	10
577.621	1	5
577.791	1	4
577.960	1	0
578.130	1	9
578.300	1	2
578.470	1	-2
578.640	1	5
578.810	1	3
578.979	1	11
579.149	1	0
579.319	1	6
579.489	1	2
579.659	1	-2
579.829	1	-1
579.998	1	0
580.168	1	9
580.338	1	7
580.508	1	5
580.678	1	9
580.848	1	10
581.017	1	11
581.187	1	8
581.357	1	-1
581.527	1	0
581.697	1	1
581.867	1	4
582.036	1	1
582.206	1	12
582.376	1	3
582.546	1	-3
582.716	1	-1
582.885	1	0
583.055	1	-1
583.225	1	-2
583.395	1	7
583.565	1	4
583.735	1	-5
583.904	1	-2
584.074	1	3
584.244	1	-4
584.414	1	3
584.584	1	-1
584.753	1	12
584.923	1	0
585.093	1	11
585.263	1	4
585.433	1	-2
585.602	1	-3
585.772	1	-1
585.942	1	5
586.112	1	6
586.282	1	14
586.451	1	10
586.621	1	16
586.791	1	3
586.961	1	-1
587.131	1	-8
587.300	1	-3
587.470	1	-3
587.640	1	4
587.810	1	12
587.980	1	-1
588.149	1	7
588.319	1	-7
588.489	1	1
588.659	1	-4
588.829	1	5
588.998	1	6
589.168	1	16
589.338	1	2
589.508	1	3
589.677	1	8
589.847	1	15
590.017	1	-5
590.187	1	3
590.357	1	2
590.526	1	-1
590.696	1	-3
590.866	1	8
591.036	1	10
591.205	1	6
591.375	1	-4
591.545	1	10
591.715	1	3
591.885	1	5
592.054	1	-5
592.224	1	5
592.394	1	-2
592.564	1	9
592.733	1	-4
592.903	1	6
593.073	1	7
593.243	1	7
593.412	1	10
593.582	1	9
593.752	1	8
593.922	1	-1
594.091	1	-2
594.261	1	-3
594.431	1	15
594.601	1	1
594.771	1	13
594.940	1	8
595.110	1	-1
595.280	1	-1
595.450	1	12
595.619	1	4
595.789	1	7
595.959	1	18
596.129	1	3
596.298	1	21
596.468	1	3
596.638	1	5
596.808	1	18
596.977	1	-1
597.147	1	1
597.317	1	1
597.487	1	4
597.656	1	-1
597.826	1	9
597.996	1	12
598.166	1	10
598.335	1	10
598.505	1	14
598.675	1	-4
598.844	1	-8
599.014	1	5
599.184	1	6
599.354	1	11
599.523	1	8
599.693	1	7
599.863	1	-1
600.033	1	6
600.202	1	8
600.372	1	-4
600.542	1	5
600.712	1	6
600.881	1	3
601.051	1	7
601.221	1	2
601.390	1	-8
601.560	1	6
601.730	1	10
601.900	1	4
602.069	1	8
602.239	1	7
602.409	1	4
602.578	1	0
602.748	1	9
602.918	1	9
603.088	1	1
603.257	1	9
603.427	1	-1
603.597	1	8
603.767	1	2
603.936	1	2
604.106	1	1
604.276	1	9
604.445	1	15
604.615	1	2
604.785	1	1
604.954	1	10
605.124	1	-12
605.294	1	7
605.464	1	3
605.633	1	0
605.803	1	12
605.973	1	6
606.142	1	4
606.312	1	-4
606.482	1	3
606.652	1	5
606.821	1	6
606.991	1	2
607.161	1	0
607.330	1	-6
607.500	1	11
607.670	1	9
607.839	1	13
608.009	1	10
608.179	1	3
608.348	1	3
608.518	1	6
608.688	1	3
608.858	1	22
609.027	1	4
609.197	1	-4
609.367	1	9
609.536	1	-1
609.706	1	2
609.876	1	20
610.045	1	0
610.215	1	6
610.385	1	-3
610.554	1	0
610.724	1	6
610.894	1	14
611.063	1	-1
611.233	1	14
611.403	1	5
611.572	1	18
611.742	1	8
611.912	1	7
612.081	1	-6
612.251	1	16
612.421	1	4
612.590	1	2
612.760	1	4
612.930	1	1
613.099	1	3
613.269	1	4
613.439	1	4
613.608	1	9
613.778	1	0
613.948	1	-3
614.117	1	8
614.287	1	4
614.457	1	-9
614.626	1	6
614.796	1	3
614.966	1	4
615.135	1	10
615.305	1	15
615.475	1	7
615.644	1	12
615.814	1	0
615.984	1	9
616.153	1	20
616.323	1	8
616.493	1	20
616.662	1	13
616.832	1	11
617.002	1	4
617.171	1	-1
617.341	1	8
617.511	1	-4
617.680	1	10
617.850	1	12
618.019	1	7
618.189	1	14
618.359	1	-1
618.528	1	9
618.698	1	14
618.868	1	-5
619.037	1	8
619.207	1	6
619.377	1	4
619.546	1	9
619.716	1	5
619.885	1	5
620.055	1	6
620.225	1	22
620.394	1	5
620.564	1	19
620.734	1	2
620.903	1	11
621.073	1	0
621.242	1	9
621.412	1	12
621.582	1	6
621.751	1	7
621.921	1	12
622.091	1	7
622.260	1	0
622.430	1	9
622.599	1	1
622.769	1	9
622.939	1	9
623.108	1	1
623.278	1	11
623.448	1	14
623.617	1	9
623.787	1	8
623.956	1	15
624.126	1	17
624.296	1	2
624.465	1	14
624.635	1	12
624.804	1	-1
624.974	1	14
625.144	1	10
625.313	1	4
625.483	1	17
625.652	1	14
625.822	1	-2
625.992	1	7
626.161	1	17
626.331	1	3
626.501	1	4
626.670	1	4
626.840	1	11
627.009	1	13
627.179	1	16
627.348	1	18
627.518	1	10
627.688	1	8
627.857	1	14
628.027	1	-6
628.196	1	9
628.366	1	-3
628.536	1	9
628.705	1	5
628.875	1	17
629.044	1	11
629.214	1	7
629.384	1	15
629.553	1	2
629.723	1	3
629.892	1	15
630.062	1	13
630.232	1	5
630.401	1	14
630.571	1	19
630.740	1	6
630.910	1	14
631.079	1	4
631.249	1	14
631.419	1	-4
631.588	1	1
631.758	1	14
631.927	1	7
632.097	1	10
632.266	1	8
632.436	1	14
632.606	1	5
632.775	1	6
632.945	1	18
633.114	1	9
633.284	1	5
633.453	1	3
633.623	1	16
633.793	1	3
633.962	1	7
634.132	1	5
634.301	1	6
634.471	1	3
634.640	1	10
634.810	1	9
634.979	1	6
635.149	1	5
635.319	1	14
635.488	1	19
635.658	1	15
635.827	1	6
635.997	1	6
636.166	1	3
636.336	1	0
636.505	1	13
636.675	1	16
636.845	1	6
637.014	1	9
637.184	1	11
637.353	1	4
637.523	1	16
637.692	1	15
637.862	1	10
638.031	1	10
638.201	1	18
638.370	1	8
638.540	1	5
638.710	1	16
638.879	1	12
639.049	1	15
639.218	1	-1
639.388	1	15
639.557	1	22
639.727	1	7
639.896	1	5
640.066	1	15
640.235	1	14
640.405	1	3
640.574	1	9
640.744	1	5
640.914	1	9
641.083	1	-2
641.253	1	16
641.422	1	9
641.592	1	6
641.761	1	20
641.931	1	11
642.100	1	0
642.270	1	8
642.439	1	17
642.609	1	21
642.778	1	0
642.948	1	5
643.117	1	14
643.287	1	15
643.456	1	19
643.626	1	13
643.795	1	13
643.965	1	11
644.134	1	5
644.304	1	14
644.473	1	19
644.643	1	9
644.812	1	26
644.982	1	7
645.151	1	27
645.321	1	8
645.490	1	11
645.660	1	9
645.829	1	0
645.999	1	18
646.168	1	8
646.338	1	8
646.507	1	12
646.677	1	27
646.846	1	3
647.016	1	20
647.185	1	7
647.355	1	7
647.524	1	10
647.694	1	4
647.863	1	11
648.033	1	5
648.202	1	17
648.372	1	17
648.541	1	4
648.711	1	10
648.880	1	11
649.050	1	14
649.219	1	-5
649.389	1	9
649.558	1	0
649.728	1	14
649.897	1	12
650.067	1	14
650.236	1	16
650.406	1	10
650.575	1	10
650.745	1	14
650.914	1	6
651.084	1	10
651.253	1	14
651.423	1	11
651.592	1	12
651.762	1	6
651.931	1	9
652.101	1	10
652.270	1	13
652.440	1	4
652.609	1	3
652.778	1	3
652.948	1	8
653.117	1	7
653.287	1	22
653.456	1	12
653.626	1	8
653.795	1	18
653.965	1	13
654.134	1	17
654.304	1	12
654.473	1	6
654.643	1	21
654.812	1	5
654.982	1	2
655.151	1	4
655.320	1	8
655.490	1	14
655.659	1	16
655.829	1	16
655.998	1	9
656.168	1	5
656.337	1	20
656.507	1	7
656.676	1	11
656.846	1	1
657.015	1	7
657.184	1	11
657.354	1	19
657.523	1	7
657.693	1	21
657.862	1	13
658.032	1	8
658.201	1	7
658.371	1	6
658.540	1	-1
658.709	1	1
658.879	1	-10
659.048	1	10
659.218	1	10
659.387	1	12
659.557	1	2
659.726	1	17
659.895	1	12
660.065	1	2
660.234	1	14
660.404	1	12
660.573	1	8
660.743	1	11
660.912	1	12
661.081	1	26
661.251	1	13
661.420	1	2
661.590	1	1
661.759	1	7
661.929	1	14
662.098	1	0
662.267	1	8
662.437	1	25
662.606	1	22
662.776	1	-1
662.945	1	10
663.115	1	17
663.284	1	19
663.453	1	5
663.623	1	10
663.792	1	8
663.962	1	11
664.131	1	11
664.300	1	14
664.470	1	9
664.639	1	-1
664.809	1	7
664.978	1	12
665.148	1	11
665.317	1	9
665.486	1	9
665.656	1	4
665.825	1	13
665.995	1	14
666.164	1	11
666.333	1	18
666.503	1	5
666.672	1	17
666.842	1	7
667.011	1	2
667.180	1	5
667.350	1	13
667.519	1	18
667.689	1	-2
667.858	1	5
668.027	1	18
668.197	1	19
668.366	1	5
668.536	1	13
668.705	1	-3
668.874	1	17
669.044	1	9
669.213	1	6
669.382	1	3
669.552	1	8
669.721	1	19
669.891	1	11
670.060	1	16
670.229	1	-2
670.399	1	20
670.568	1	5
670.738	1	4
670.907	1	3
671.076	1	13
671.246	1	22
671.415	1	11
671.584	1	17
671.754	1	13
671.923	1	13
672.093	1	8
672.262	1	11
672.431	1	0
672.601	1	11
672.770	1	15
672.939	1	12
673.109	1	0
673.278	1	13
673.448	1	1
673.617	1	5
673.786	1	10
