325.333	1	14
325.504	1	17
325.675	1	-2
325.846	1	2
326.017	1	15
326.188	1	14
326.359	1	3
326.531	1	2
326.702	1	9
326.873	1	10
327.044	1	11
327.215	1	1
327.386	1	7
327.557	1	5
327.728	1	16
327.899	1	19
328.070	1	13
328.241	1	13
328.412	1	17
328.583	1	7
328.754	1	1
328.926	1	6
329.097	1	-3
329.268	1	5
329.439	1	16
329.610	1	24
329.781	1	12
329.952	1	17
330.123	1	11
330.294	1	5
330.465	1	13
330.636	1	8
330.807	1	1
330.978	1	13
331.149	1	18
331.320	1	10
331.492	1	16
331.663	1	12
331.834	1	17
332.005	1	11
332.176	1	12
332.347	1	19
332.518	1	17
332.689	1	8
332.860	1	8
333.031	1	13
333.202	1	9
333.373	1	9
333.544	1	13
333.715	1	17
333.886	1	7
334.057	1	12
334.228	1	14
334.399	1	22
334.570	1	7
334.741	1	11
334.912	1	10
335.084	1	8
335.255	1	17
335.426	1	7
335.597	1	20
335.768	1	23
335.939	1	16
336.110	1	12
336.281	1	7
336.452	1	24
336.623	1	14
336.794	1	5
336.965	1	5
337.136	1	18
337.307	1	7
337.478	1	10
337.649	1	16
337.820	1	27
337.991	1	18
338.162	1	11
338.333	1	25
338.504	1	9
338.675	1	13
338.846	1	22
339.017	1	13
339.188	1	7
339.359	1	13
339.530	1	25
339.701	1	9
339.872	1	18
340.043	1	2
340.214	1	12
340.385	1	16
340.556	1	14
340.727	1	11
340.898	1	19
341.069	1	20
341.240	1	11
341.411	1	16
341.582	1	24
341.753	1	8
341.924	1	13
342.095	1	5
342.266	1	17
342.437	1	18
342.608	1	24
342.779	1	10
342.950	1	19
343.121	1	16
343.292	1	11
343.463	1	16
343.634	1	1
343.805	1	15
343.976	1	15
344.147	1	11
344.318	1	10
344.489	1	13
344.660	1	17
344.831	1	24
345.002	1	16
345.173	1	0
345.344	1	15
345.515	1	14
345.686	1	27
345.857	1	10
346.028	1	12
346.199	1	11
346.370	1	17
346.541	1	10
346.712	1	15
346.883	1	14
347.054	1	12
347.225	1	13
347.396	1	9
347.567	1	26
347.738	1	11
347.909	1	12
348.080	1	20
348.251	1	14
348.422	1	8
348.593	1	16
348.764	1	23
348.935	1	1
349.106	1	10
349.277	1	7
349.448	1	28
349.619	1	5
349.790	1	15
349.961	1	7
350.132	1	12
350.303	1	22
350.474	1	15
350.645	1	18
350.816	1	10
350.987	1	23
351.157	1	15
351.328	1	19
351.499	1	27
351.670	1	4
351.841	1	18
352.012	1	17
352.183	1	13
352.354	1	7
352.525	1	21
352.696	1	31
352.867	1	14
353.038	1	4
353.209	1	12
353.380	1	8
353.551	1	2
353.722	1	19
353.893	1	4
354.064	1	12
354.235	1	9
354.406	1	26
354.576	1	21
354.747	1	15
354.918	1	26
355.089	1	21
355.260	1	29
355.431	1	15
355.602	1	8
355.773	1	1
355.944	1	14
356.115	1	17
356.286	1	19
356.457	1	16
356.628	1	17
356.799	1	18
356.970	1	21
357.141	1	10
357.311	1	13
357.482	1	6
357.653	1	18
357.824	1	20
357.995	1	21
358.166	1	8
358.337	1	22
358.508	1	21
358.679	1	19
358.850	1	14
359.021	1	11
359.192	1	20
359.363	1	16
359.533	1	6
359.704	1	21
359.875	1	21
360.046	1	23
360.217	1	19
360.388	1	15
360.559	1	17
360.730	1	14
360.901	1	14
361.072	1	17
361.243	1	19
361.414	1	19
361.584	1	13
361.755	1	5
361.926	1	19
362.097	1	19
362.268	1	16
362.439	1	10
362.610	1	18
362.781	1	17
362.952	1	22
363.123	1	16
363.293	1	13
363.464	1	16
363.635	1	21
363.806	1	19
363.977	1	22
364.148	1	12
364.319	1	10
364.490	1	24
364.661	1	17
364.832	1	21
365.002	1	16
365.173	1	16
365.344	1	21
365.515	1	2
365.686	1	1
365.857	1	16
366.028	1	18
366.199	1	14
366.370	1	25
366.540	1	12
366.711	1	12
366.882	1	7
367.053	1	15
367.224	1	9
367.395	1	9
367.566	1	6
367.737	1	11
367.908	1	3
368.078	1	21
368.249	1	18
368.420	1	15
368.591	1	25
368.762	1	12
368.933	1	12
369.104	1	26
369.274	1	4
369.445	1	17
369.616	1	16
369.787	1	24
369.958	1	10
370.129	1	14
370.300	1	17
370.471	1	14
370.641	1	14
370.812	1	15
370.983	1	13
371.154	1	15
371.325	1	9
371.496	1	18
371.667	1	12
371.837	1	13
372.008	1	2
372.179	1	13
372.350	1	6
372.521	1	24
372.692	1	26
372.863	1	19
373.033	1	18
373.204	1	14
373.375	1	16
373.546	1	26
373.717	1	14
373.888	1	21
374.059	1	16
374.229	1	12
374.400	1	10
374.571	1	15
374.742	1	22
374.913	1	15
375.084	1	23
375.254	1	14
375.425	1	18
375.596	1	15
375.767	1	21
375.938	1	11
376.109	1	15
376.279	1	12
376.450	1	16
376.621	1	16
376.792	1	24
376.963	1	8
377.134	1	23
377.304	1	14
377.475	1	12
377.646	1	4
377.817	1	14
377.988	1	11
378.159	1	33
378.329	1	16
378.500	1	22
378.671	1	14
378.842	1	16
379.013	1	17
379.184	1	6
379.354	1	14
379.525	1	8
379.696	1	24
379.867	1	18
380.038	1	23
380.209	1	21
380.379	1	11
380.550	1	22
380.721	1	9
380.892	1	16
381.063	1	14
381.233	1	20
381.404	1	25
381.575	1	26
381.746	1	26
381.917	1	33
382.087	1	27
382.258	1	28
382.429	1	21
382.600	1	19
382.771	1	17
382.941	1	21
383.112	1	14
383.283	1	24
383.454	1	14
383.625	1	9
383.795	1	9
383.966	1	9
384.137	1	16
384.308	1	17
384.479	1	11
384.649	1	24
384.820	1	37
384.991	1	9
385.162	1	26
385.333	1	24
385.503	1	14
385.674	1	7
385.845	1	27
386.016	1	23
386.187	1	14
386.357	1	22
386.528	1	10
386.699	1	20
386.870	1	14
387.041	1	32
387.211	1	14
387.382	1	14
387.553	1	22
387.724	1	27
387.894	1	24
388.065	1	18
388.236	1	30
388.407	1	17
388.578	1	22
388.748	1	28
388.919	1	17
389.090	1	33
389.261	1	26
389.431	1	24
389.602	1	36
389.773	1	31
389.944	1	28
390.114	1	38
390.285	1	16
390.456	1	24
390.627	1	32
390.798	1	20
390.968	1	38
391.139	1	16
391.310	1	18
391.481	1	28
391.651	1	30
391.822	1	29
391.993	1	25
392.164	1	21
392.334	1	18
392.505	1	25
392.676	1	20
392.847	1	20
393.017	1	37
393.188	1	34
393.359	1	27
393.530	1	33
393.700	1	24
393.871	1	23
394.042	1	26
394.213	1	27
394.383	1	20
394.554	1	34
394.725	1	28
394.896	1	19
395.066	1	19
395.237	1	28
395.408	1	34
395.579	1	12
395.749	1	19
395.920	1	23
396.091	1	28
396.262	1	14
396.432	1	22
396.603	1	18
396.774	1	22
396.945	1	18
397.115	1	14
397.286	1	22
397.457	1	17
397.627	1	13
397.798	1	25
397.969	1	37
398.140	1	27
398.310	1	25
398.481	1	24
398.652	1	15
398.823	1	38
398.993	1	36
399.164	1	29
399.335	1	31
399.505	1	19
399.676	1	13
399.847	1	32
400.018	1	33
400.188	1	26
400.359	1	33
400.530	1	30
400.700	1	37
400.871	1	28
401.042	1	30
401.213	1	26
401.383	1	33
401.554	1	37
401.725	1	40
401.895	1	27
402.066	1	31
402.237	1	40
402.408	1	39
402.578	1	28
402.749	1	33
402.920	1	26
403.090	1	34
403.261	1	42
403.432	1	18
403.603	1	28
403.773	1	33
403.944	1	38
404.115	1	29
404.285	1	32
404.456	1	25
404.627	1	27
404.797	1	34
404.968	1	31
405.139	1	40
405.310	1	35
405.480	1	34
405.651	1	15
405.822	1	32
405.992	1	27
406.163	1	43
406.334	1	32
406.504	1	29
406.675	1	41
406.846	1	35
407.016	1	27
407.187	1	43
407.358	1	38
407.528	1	17
407.699	1	16
407.870	1	38
408.041	1	32
408.211	1	24
408.382	1	46
408.553	1	31
408.723	1	31
408.894	1	36
409.065	1	18
409.235	1	39
409.406	1	22
409.577	1	32
409.747	1	43
409.918	1	20
410.089	1	41
410.259	1	30
410.430	1	30
410.601	1	36
410.771	1	34
410.942	1	24
411.113	1	30
411.283	1	33
411.454	1	39
411.625	1	47
411.795	1	34
411.966	1	55
412.137	1	42
412.307	1	34
412.478	1	41
412.649	1	34
412.819	1	32
412.990	1	35
413.161	1	55
413.331	1	49
413.502	1	42
413.672	1	34
413.843	1	30
414.014	1	40
414.184	1	43
414.355	1	41
414.526	1	35
414.696	1	30
414.867	1	36
415.038	1	41
415.208	1	25
415.379	1	41
415.550	1	43
415.720	1	19
415.891	1	46
416.062	1	32
416.232	1	35
416.403	1	33
416.573	1	41
416.744	1	29
416.915	1	45
417.085	1	40
417.256	1	31
417.427	1	38
417.597	1	39
417.768	1	36
417.939	1	41
418.109	1	40
418.280	1	21
418.450	1	46
418.621	1	36
418.792	1	24
418.962	1	27
419.133	1	37
419.304	1	28
419.474	1	31
419.645	1	33
419.815	1	43
419.986	1	49
420.157	1	34
420.327	1	26
420.498	1	27
420.669	1	36
420.839	1	31
421.010	1	29
421.180	1	44
421.351	1	42
421.522	1	34
421.692	1	40
421.863	1	40
422.033	1	36
422.204	1	37
422.375	1	34
422.545	1	37
422.716	1	37
422.886	1	29
423.057	1	31
423.228	1	35
423.398	1	37
423.569	1	36
423.740	1	40
423.910	1	44
424.081	1	41
424.251	1	39
424.422	1	33
424.593	1	36
424.763	1	43
424.934	1	31
425.104	1	37
425.275	1	51
425.445	1	27
425.616	1	34
425.787	1	41
425.957	1	27
426.128	1	37
426.298	1	42
426.469	1	23
426.640	1	35
426.810	1	50
426.981	1	28
427.151	1	43
427.322	1	43
427.493	1	35
427.663	1	40
427.834	1	35
428.004	1	25
428.175	1	56
428.345	1	38
428.516	1	42
428.687	1	37
428.857	1	24
429.028	1	34
429.198	1	45
429.369	1	46
429.540	1	27
429.710	1	35
429.881	1	23
430.051	1	26
430.222	1	39
430.392	1	29
430.563	1	30
430.734	1	34
430.904	1	38
431.075	1	35
431.245	1	31
431.416	1	42
431.586	1	28
431.757	1	40
431.927	1	39
432.098	1	29
432.269	1	38
432.439	1	37
432.610	1	44
432.780	1	33
432.951	1	44
433.121	1	30
433.292	1	30
433.462	1	31
433.633	1	11
433.804	1	31
433.974	1	32
434.145	1	33
434.315	1	38
434.486	1	39
434.656	1	39
434.827	1	27
434.997	1	36
435.168	1	32
435.339	1	24
435.509	1	22
435.680	1	37
435.850	1	28
436.021	1	34
436.191	1	44
436.362	1	43
436.532	1	30
436.703	1	42
436.873	1	32
437.044	1	22
437.214	1	29
437.385	1	34
437.556	1	40
437.726	1	34
437.897	1	42
438.067	1	34
438.238	1	36
438.408	1	34
438.579	1	26
438.749	1	30
438.920	1	39
439.090	1	25
439.261	1	32
439.431	1	30
439.602	1	29
439.772	1	42
439.943	1	38
440.113	1	53
440.284	1	36
440.455	1	25
440.625	1	49
440.796	1	41
440.966	1	18
441.137	1	29
441.307	1	29
441.478	1	24
441.648	1	41
441.819	1	43
441.989	1	36
442.160	1	32
442.330	1	31
442.501	1	23
442.671	1	30
442.842	1	44
443.012	1	27
443.183	1	50
443.353	1	38
443.524	1	21
443.694	1	29
443.865	1	36
444.035	1	36
444.206	1	25
444.376	1	26
444.547	1	36
444.717	1	16
444.888	1	39
445.058	1	24
445.229	1	26
445.399	1	30
445.570	1	19
445.740	1	25
445.911	1	44
446.081	1	36
446.252	1	35
446.422	1	25
446.593	1	21
446.763	1	24
446.934	1	30
447.104	1	21
447.275	1	39
447.445	1	34
447.616	1	31
447.786	1	29
447.957	1	30
448.127	1	40
448.298	1	32
448.468	1	23
448.639	1	31
448.809	1	39
448.979	1	24
449.150	1	35
449.320	1	24
449.491	1	30
449.661	1	39
449.832	1	27
450.002	1	31
450.173	1	31
450.343	1	27
450.514	1	37
450.684	1	32
450.855	1	34
451.025	1	23
451.196	1	29
451.366	1	34
451.537	1	26
451.707	1	37
451.878	1	21
452.048	1	36
452.218	1	26
452.389	1	37
452.559	1	19
452.730	1	32
452.900	1	37
453.071	1	35
453.241	1	34
453.412	1	27
453.582	1	29
453.753	1	34
453.923	1	31
454.093	1	29
454.264	1	40
454.434	1	23
454.605	1	32
454.775	1	23
454.946	1	33
455.116	1	17
455.287	1	15
455.457	1	30
455.628	1	31
455.798	1	32
455.968	1	36
456.139	1	25
456.309	1	31
456.480	1	26
456.650	1	39
456.821	1	35
456.991	1	22
457.161	1	25
457.332	1	39
457.502	1	17
457.673	1	22
457.843	1	32
458.014	1	23
458.184	1	13
458.355	1	23
458.525	1	16
458.695	1	19
458.866	1	35
459.036	1	18
459.207	1	23
459.377	1	32
459.548	1	22
459.718	1	19
459.888	1	27
460.059	1	25
460.229	1	27
460.400	1	21
460.570	1	22
460.740	1	28
460.911	1	19
461.081	1	13
461.252	1	34
461.422	1	25
461.593	1	8
461.763	1	21
461.933	1	14
462.104	1	23
462.274	1	29
462.445	1	17
462.615	1	10
462.785	1	18
462.956	1	14
463.126	1	16
463.297	1	19
463.467	1	26
463.638	1	19
463.808	1	14
463.978	1	23
464.149	1	28
464.319	1	9
464.490	1	11
464.660	1	17
464.830	1	22
465.001	1	24
465.171	1	23
465.342	1	14
465.512	1	24
465.682	1	19
465.853	1	20
466.023	1	28
466.194	1	18
466.364	1	26
466.534	1	22
466.705	1	22
466.875	1	20
467.045	1	5
467.216	1	21
467.386	1	19
467.557	1	6
467.727	1	20
467.897	1	11
468.068	1	39
468.238	1	17
468.409	1	17
468.579	1	18
468.749	1	16
468.920	1	15
469.090	1	25
469.260	1	8
469.431	1	12
469.601	1	8
469.772	1	15
469.942	1	24
470.112	1	13
470.283	1	27
470.453	1	21
470.623	1	22
470.794	1	21
470.964	1	9
471.135	1	20
471.305	1	23
471.475	1	8
471.646	1	26
471.816	1	16
471.986	1	16
472.157	1	13
472.327	1	18
472.497	1	2
472.668	1	17
472.838	1	17
473.009	1	26
473.179	1	18
473.349	1	15
473.520	1	22
473.690	1	17
473.860	1	20
474.031	1	16
474.201	1	13
474.371	1	12
474.542	1	27
474.712	1	6
474.882	1	28
475.053	1	23
475.223	1	23
475.394	1	19
475.564	1	13
475.734	1	8
475.905	1	25
476.075	1	19
476.245	1	14
476.416	1	9
476.586	1	23
476.756	1	32
476.927	1	21
477.097	1	16
477.267	1	22
477.438	1	5
477.608	1	8
477.778	1	16
477.949	1	11
478.119	1	14
478.289	1	20
478.460	1	21
478.630	1	16
478.800	1	22
478.971	1	25
479.141	1	15
479.311	1	16
479.482	1	11
479.652	1	16
479.822	1	19
479.993	1	27
480.163	1	14
480.333	1	23
480.504	1	20
480.674	1	16
480.844	1	15
481.015	1	12
481.185	1	19
481.355	1	6
481.525	1	9
481.696	1	20
481.866	1	13
482.036	1	16
482.207	1	15
482.377	1	17
482.547	1	18
482.718	1	11
482.888	1	18
483.058	1	14
483.229	1	15
483.399	1	22
483.569	1	8
483.740	1	12
483.910	1	5
484.080	1	18
484.250	1	18
484.421	1	22
484.591	1	14
484.761	1	12
484.932	1	13
485.102	1	2
485.272	1	19
485.443	1	15
485.613	1	7
485.783	1	3
485.953	1	9
486.124	1	4
486.294	1	5
486.464	1	20
486.635	1	14
486.805	1	-1
486.975	1	3
487.146	1	12
487.316	1	14
487.486	1	7
487.656	1	17
487.827	1	15
487.997	1	9
488.167	1	23
488.338	1	-4
488.508	1	11
488.678	1	18
488.848	1	22
489.019	1	26
489.189	1	16
489.359	1	14
489.529	1	7
489.700	1	9
489.870	1	6
490.040	1	10
490.211	1	10
490.381	1	13
490.551	1	11
490.721	1	10
490.892	1	22
491.062	1	20
491.232	1	9
491.402	1	14
491.573	1	5
491.743	1	13
491.913	1	9
492.084	1	16
492.254	1	21
492.424	1	8
492.594	1	22
492.765	1	13
492.935	1	18
493.105	1	15
493.275	1	6
493.446	1	16
493.616	1	15
493.786	1	14
493.956	1	15
494.127	1	3
494.297	1	7
494.467	1	14
494.637	1	13
494.808	1	-3
494.978	1	14
495.148	1	25
495.318	1	8
495.489	1	6
495.659	1	20
495.829	1	13
495.999	1	7
496.170	1	4
496.340	1	20
496.510	1	7
496.680	1	15
496.851	1	3
497.021	1	4
497.191	1	-3
497.361	1	10
497.532	1	8
497.702	1	23
497.872	1	11
498.042	1	10
498.213	1	11
498.383	1	16
498.553	1	3
498.723	1	-2
498.894	1	14
499.064	1	12
499.234	1	-2
499.404	1	10
499.574	1	10
499.745	1	8
499.915	1	3
500.085	1	14
500.255	1	7
500.426	1	11
500.596	1	2
500.766	1	8
500.936	1	13
501.106	1	14
501.277	1	16
501.447	1	8
501.617	1	4
501.787	1	10
501.958	1	5
502.128	1	21
502.298	1	17
502.468	1	10
502.638	1	1
502.809	1	10
502.979	1	6
503.149	1	8
503.319	1	-1
503.489	1	9
503.660	1	3
503.830	1	9
504.000	1	10
504.170	1	8
504.340	1	11
504.511	1	11
504.681	1	12
504.851	1	8
505.021	1	8
505.192	1	2
505.362	1	2
505.532	1	6
505.702	1	3
505.872	1	22
506.043	1	4
506.213	1	19
506.383	1	18
506.553	1	8
506.723	1	9
506.893	1	5
507.064	1	6
507.234	1	8
507.404	1	14
507.574	1	10
507.744	1	15
507.915	1	0
508.085	1	2
508.255	1	14
508.425	1	4
508.595	1	5
508.766	1	-3
508.936	1	16
509.106	1	10
509.276	1	20
509.446	1	9
509.616	1	14
509.787	1	9
509.957	1	10
510.127	1	7
510.297	1	12
510.467	1	4
510.638	1	1
510.808	1	0
510.978	1	8
511.148	1	19
511.318	1	11
511.488	1	12
511.659	1	3
511.829	1	1
511.999	1	11
512.169	1	8
512.339	1	3
512.509	1	12
512.680	1	5
512.850	1	9
513.020	1	14
513.190	1	10
513.360	1	8
513.530	1	7
513.700	1	-2
513.871	1	8
514.041	1	7
514.211	1	-3
514.381	1	13
514.551	1	-2
514.721	1	1
514.892	1	5
515.062	1	8
515.232	1	8
515.402	1	10
515.572	1	10
515.742	1	13
515.912	1	8
516.083	1	4
516.253	1	12
516.423	1	3
516.593	1	0
516.763	1	12
516.933	1	16
517.104	1	-7
517.274	1	18
517.444	1	3
517.614	1	11
517.784	1	5
517.954	1	2
518.124	1	3
518.294	1	4
518.465	1	9
518.635	1	7
518.805	1	14
518.975	1	2
519.145	1	11
519.315	1	-4
519.485	1	9
519.656	1	12
519.826	1	2
519.996	1	8
520.166	1	0
520.336	1	8
520.506	1	11
520.676	1	14
520.846	1	10
521.017	1	11
521.187	1	5
521.357	1	6
521.527	1	13
521.697	1	15
521.867	1	4
522.037	1	4
522.207	1	22
522.377	1	11
522.548	1	7
522.718	1	9
522.888	1	12
523.058	1	9
523.228	1	-2
523.398	1	11
523.568	1	16
523.738	1	2
523.909	1	16
524.079	1	2
524.249	1	11
524.419	1	9
524.589	1	1
524.759	1	11
524.929	1	3
525.099	1	-3
525.269	1	0
525.439	1	15
525.610	1	-2
525.780	1	3
525.950	1	14
526.120	1	10
526.290	1	10
526.460	1	18
526.630	1	10
526.800	1	1
526.970	1	6
527.140	1	8
527.311	1	8
527.481	1	5
527.651	1	12
527.821	1	5
527.991	1	11
528.161	1	0
528.331	1	8
528.501	1	3
528.671	1	11
528.841	1	13
529.011	1	1
529.181	1	10
529.352	1	11
529.522	1	14
529.692	1	1
529.862	1	7
530.032	1	9
530.202	1	10
530.372	1	17
530.542	1	-5
530.712	1	6
530.882	1	27
531.052	1	6
531.222	1	4
531.392	1	7
531.563	1	5
531.733	1	0
531.903	1	3
532.073	1	13
532.243	1	14
532.413	1	-1
532.583	1	11
532.753	1	10
532.923	1	5
533.093	1	13
533.263	1	8
533.433	1	6
533.603	1	3
533.773	1	-3
533.943	1	6
534.113	1	14
534.284	1	4
534.454	1	3
534.624	1	12
534.794	1	10
534.964	1	6
535.134	1	18
535.304	1	10
535.474	1	6
535.644	1	2
535.814	1	4
535.984	1	-2
536.154	1	8
536.324	1	9
536.494	1	13
536.664	1	7
536.834	1	19
537.004	1	-1
537.174	1	6
537.344	1	17
537.514	1	0
537.685	1	3
537.855	1	4
538.025	1	5
538.195	1	7
538.365	1	16
538.535	1	9
538.705	1	7
538.875	1	4
539.045	1	12
539.215	1	6
539.385	1	-7
539.555	1	0
539.725	1	4
539.895	1	7
540.065	1	-2
540.235	1	9
540.405	1	8
540.575	1	4
540.745	1	2
540.915	1	5
541.085	1	3
541.255	1	7
541.425	1	-3
541.595	1	8
541.765	1	20
541.935	1	3
542.105	1	7
542.275	1	4
542.445	1	7
542.615	1	16
542.785	1	-4
542.955	1	1
543.125	1	6
543.295	1	9
543.465	1	14
543.635	1	11
543.805	1	0
543.975	1	3
544.145	1	3
544.315	1	-3
544.485	1	8
544.655	1	-5
544.825	1	2
544.995	1	11
545.165	1	10
545.335	1	3
545.505	1	7
545.675	1	-5
545.845	1	5
546.015	1	4
546.185	1	2
546.355	1	2
546.525	1	4
546.695	1	1
546.865	1	11
547.035	1	2
547.205	1	10
547.375	1	4
547.545	1	-2
547.715	1	7
547.885	1	-1
548.055	1	6
548.225	1	3
548.395	1	-2
548.565	1	14
548.735	1	6
548.905	1	3
549.075	1	4
549.245	1	17
549.415	1	-2
549.585	1	-6
549.755	1	7
549.925	1	7
550.095	1	6
550.265	1	15
550.435	1	-5
550.605	1	5
550.775	1	5
550.945	1	0
551.115	1	6
551.285	1	14
551.455	1	12
551.625	1	-7
551.795	1	-1
551.965	1	9
552.135	1	3
552.305	1	9
552.475	1	1
552.645	1	6
552.815	1	5
552.985	1	0
553.155	1	16
553.325	1	-10
553.495	1	9
553.665	1	-2
553.835	1	5
554.004	1	6
554.174	1	3
554.344	1	-3
554.514	1	2
554.684	1	1
554.854	1	3
555.024	1	7
555.194	1	2
555.364	1	14
555.534	1	-2
555.704	1	5
555.874	1	-3
556.044	1	1
556.214	1	14
556.384	1	9
556.554	1	0
556.724	1	1
556.894	1	5
557.064	1	8
557.234	1	-3
557.404	1	2
557.573	1	2
557.743	1	3
557.913	1	15
558.083	1	2
558.253	1	6
558.423	1	3
558.593	1	5
558.763	1	12
558.933	1	5
559.103	1	4
559.273	1	4
559.443	1	8
559.613	1	-5
559.783	1	-3
559.953	1	4
560.122	1	-2
560.292	1	11
560.462	1	1
560.632	1	-2
560.802	1	4
560.972	1	-7
561.142	1	-2
561.312	1	8
561.482	1	3
561.652	1	4
561.822	1	-3
561.992	1	-2
562.162	1	9
562.331	1	14
562.501	1	-1
562.671	1	5
562.841	1	-4
563.011	1	5
563.181	1	13
563.351	1	7
563.521	1	6
563.691	1	2
563.861	1	4
564.031	1	-1
564.201	1	8
564.370	1	-2
564.540	1	6
564.710	1	10
564.880	1	6
565.050	1	16
565.220	1	-5
565.390	1	11
565.560	1	10
565.730	1	2
565.900	1	7
566.069	1	7
566.239	1	0
566.409	1	-13
566.579	1	4
566.749	1	-6
566.919	1	-2
567.089	1	8
567.259	1	-1
567.429	1	8
567.599	1	13
567.768	1	9
567.938	1	-3
568.108	1	11
568.278	1	8
568.448	1	2
568.618	1	-4
568.788	1	2
568.958	1	2
569.128	1	9
569.297	1	0
569.467	1	-6
569.637	1	10
569.807	1	8
569.977	1	5
570.147	1	-1
570.317	1	7
570.487	1	-1
570.656	1	-8
570.826	1	-2
570.996	1	-3
571.166	1	9
571.336	1	-6
571.506	1	9
571.676	1	12
571.846	1	0
572.015	1	-4
572.185	1	11
572.355	1	8
572.525	1	-6
572.695	1	-1
572.865	1	11
573.035	1	4
573.205	1	8
573.374	1	0
573.544	1	1
573.714	1	5
573.884	1	6
574.054	1	7
574.224	1	4
574.394	1	5
574.563	1	7
574.733	1	2
574.903	1	7
575.073	1	8
575.243	1	1
575.413	1	-4
575.583	1	2
575.752	1	2
575.922	1	1
576.092	1	-1
576.262	1	-4
576.432	1	7
576.602	1	-6
576.772	1	7
576.941	1	4
577.111	1	-8
577.281	1	3
577.451	1	-2
577.621	1	7
577.791	1	8
577.960	1	6
578.130	1	-1
578.300	1	3
578.470	1	1
578.640	1	6
578.810	1	-3
578.979	1	3
579.149	1	5
579.319	1	4
579.489	1	-5
579.659	1	-2
579.829	1	5
579.998	1	4
580.168	1	7
580.338	1	3
580.508	1	10
580.678	1	2
580.848	1	2
581.017	1	14
581.187	1	7
581.357	1	7
581.527	1	5
581.697	1	2
581.867	1	3
582.036	1	1
582.206	1	10
582.376	1	-3
582.546	1	0
582.716	1	0
582.885	1	1
583.055	1	5
583.225	1	-5
583.395	1	14
583.565	1	2
583.735	1	0
583.904	1	2
584.074	1	0
584.244	1	-4
584.414	1	4
584.584	1	6
584.753	1	7
584.923	1	0
585.093	1	2
585.263	1	10
585.433	1	3
585.602	1	5
585.772	1	-11
585.942	1	5
586.112	1	-1
586.282	1	-2
586.451	1	14
586.621	1	13
586.791	1	6
586.961	1	-6
587.131	1	1
587.300	1	-5
587.470	1	-6
587.640	1	8
587.810	1	15
587.980	1	3
588.149	1	-5
588.319	1	7
588.489	1	2
588.659	1	-3
588.829	1	4
588.998	1	-4
589.168	1	13
589.338	1	0
589.508	1	-3
589.677	1	10
589.847	1	8
590.017	1	-4
590.187	1	10
590.357	1	2
590.526	1	7
590.696	1	-3
590.866	1	1
591.036	1	5
591.205	1	4
591.375	1	3
591.545	1	10
591.715	1	4
591.885	1	3
592.054	1	3
592.224	1	4
592.394	1	-6
592.564	1	2
592.733	1	-6
592.903	1	3
593.073	1	0
593.243	1	4
593.412	1	14
593.582	1	11
593.752	1	5
593.922	1	9
594.091	1	-3
594.261	1	-1
594.431	1	8
594.601	1	9
594.771	1	12
594.940	1	5
595.110	1	7
595.280	1	0
595.450	1	11
595.619	1	12
595.789	1	-1
595.959	1	5
596.129	1	0
596.298	1	14
596.468	1	-4
596.638	1	-2
596.808	1	12
596.977	1	-1
597.147	1	-8
597.317	1	-3
597.487	1	6
597.656	1	6
597.826	1	9
597.996	1	0
598.166	1	10
598.335	1	6
598.505	1	8
598.675	1	2
598.844	1	-12
599.014	1	6
599.184	1	4
599.354	1	9
599.523	1	11
599.693	1	13
599.863	1	-3
600.033	1	3
600.202	1	15
600.372	1	-6
600.542	1	-1
600.712	1	3
600.881	1	-3
601.051	1	8
601.221	1	3
601.390	1	-6
601.560	1	4
601.730	1	17
601.900	1	7
602.069	1	4
602.239	1	4
602.409	1	3
602.578	1	-2
602.748	1	10
602.918	1	3
603.088	1	8
603.257	1	3
603.427	1	2
603.597	1	4
603.767	1	9
603.936	1	1
604.106	1	1
604.276	1	17
604.445	1	5
604.615	1	12
604.785	1	9
604.954	1	9
605.124	1	-2
605.294	1	9
605.464	1	6
605.633	1	-1
605.803	1	7
605.973	1	3
606.142	1	6
606.312	1	-1
606.482	1	8
606.652	1	1
606.821	1	9
606.991	1	2
607.161	1	-2
607.330	1	2
607.500	1	3
607.670	1	8
607.839	1	10
608.009	1	5
608.179	1	0
608.348	1	3
608.518	1	12
608.688	1	1
608.858	1	10
609.027	1	3
609.197	1	1
609.367	1	18
609.536	1	12
609.706	1	4
609.876	1	20
610.045	1	2
610.215	1	-3
610.385	1	-5
610.554	1	3
610.724	1	3
610.894	1	7
611.063	1	2
611.233	1	14
611.403	1	4
611.572	1	9
611.742	1	10
611.912	1	9
612.081	1	-5
612.251	1	12
612.421	1	14
612.590	1	3
612.760	1	9
612.930	1	-3
613.099	1	8
613.269	1	-3
613.439	1	-3
613.608	1	17
613.778	1	11
613.948	1	-7
614.117	1	11
614.287	1	3
614.457	1	-6
614.626	1	7
614.796	1	6
614.966	1	9
615.135	1	10
615.305	1	5
615.475	1	1
615.644	1	10
615.814	1	-3
615.984	1	10
616.153	1	5
616.323	1	1
616.493	1	13
616.662	1	10
616.832	1	9
617.002	1	2
617.171	1	-2
617.341	1	3
617.511	1	4
617.680	1	12
617.850	1	1
618.019	1	2
618.189	1	3
618.359	1	3
618.528	1	15
618.698	1	14
618.868	1	0
619.037	1	12
619.207	1	9
619.377	1	11
619.546	1	3
619.716	1	10
619.885	1	5
620.055	1	6
620.225	1	9
620.394	1	11
620.564	1	16
620.734	1	8
620.903	1	11
621.073	1	1
621.242	1	12
621.412	1	6
621.582	1	5
621.751	1	8
621.921	1	7
622.091	1	7
622.260	1	6
622.430	1	3
622.599	1	-3
622.769	1	15
622.939	1	6
623.108	1	7
623.278	1	13
623.448	1	17
623.617	1	3
623.787	1	5
623.956	1	13
624.126	1	20
624.296	1	9
624.465	1	11
624.635	1	17
624.804	1	-3
624.974	1	21
625.144	1	10
625.313	1	3
625.483	1	20
625.652	1	10
625.822	1	1
625.992	1	5
626.161	1	15
626.331	1	4
626.501	1	7
626.670	1	14
626.840	1	11
627.009	1	6
627.179	1	5
627.348	1	10
627.518	1	6
627.688	1	9
627.857	1	12
628.027	1	-5
628.196	1	12
628.366	1	-1
628.536	1	0
628.705	1	5
628.875	1	11
629.044	1	5
629.214	1	7
629.384	1	3
629.553	1	16
629.723	1	-3
629.892	1	17
630.062	1	10
630.232	1	10
630.401	1	17
630.571	1	9
630.740	1	8
630.910	1	3
631.079	1	-10
631.249	1	10
631.419	1	1
631.588	1	0
631.758	1	11
631.927	1	8
632.097	1	9
632.266	1	7
632.436	1	7
632.606	1	7
632.775	1	24
632.945	1	11
633.114	1	-2
633.284	1	9
633.453	1	13
633.623	1	18
633.793	1	5
633.962	1	8
634.132	1	10
634.301	1	12
634.471	1	6
634.640	1	4
634.810	1	10
634.979	1	2
635.149	1	6
635.319	1	14
635.488	1	15
635.658	1	8
635.827	1	7
635.997	1	15
636.166	1	5
636.336	1	5
636.505	1	13
636.675	1	17
636.845	1	1
637.014	1	18
637.184	1	13
637.353	1	8
637.523	1	8
637.692	1	17
637.862	1	8
638.031	1	17
638.201	1	14
638.370	1	8
638.540	1	3
638.710	1	16
638.879	1	9
639.049	1	12
639.218	1	5
639.388	1	-1
639.557	1	15
639.727	1	13
639.896	1	5
640.066	1	12
640.235	1	10
640.405	1	8
640.574	1	14
640.744	1	8
640.914	1	5
641.083	1	13
641.253	1	18
641.422	1	-1
641.592	1	4
641.761	1	10
641.931	1	1
642.100	1	13
642.270	1	3
642.439	1	1
642.609	1	7
642.778	1	7
642.948	1	11
643.117	1	9
643.287	1	8
643.456	1	19
643.626	1	18
643.795	1	-1
643.965	1	11
644.134	1	6
644.304	1	6
644.473	1	13
644.643	1	7
644.812	1	16
644.982	1	8
645.151	1	24
645.321	1	11
645.490	1	0
645.660	1	-1
645.829	1	10
645.999	1	6
646.168	1	1
646.338	1	-3
646.507	1	12
646.677	1	3
646.846	1	9
647.016	1	9
647.185	1	8
647.355	1	8
647.524	1	17
647.694	1	8
647.863	1	2
648.033	1	3
648.202	1	6
648.372	1	13
648.541	1	10
648.711	1	13
648.880	1	16
649.050	1	10
649.219	1	-1
649.389	1	11
649.558	1	7
649.728	1	5
649.897	1	12
650.067	1	4
650.236	1	20
650.406	1	-6
650.575	1	14
650.745	1	10
650.914	1	8
651.084	1	5
651.253	1	8
651.423	1	11
651.592	1	19
651.762	1	8
651.931	1	2
652.101	1	13
652.270	1	16
652.440	1	3
652.609	1	-4
652.778	1	5
652.948	1	10
653.117	1	8
653.287	1	12
653.456	1	13
653.626	1	5
653.795	1	8
653.965	1	6
654.134	1	15
654.304	1	7
654.473	1	5
654.643	1	13
654.812	1	8
654.982	1	1
655.151	1	5
655.320	1	10
655.490	1	10
655.659	1	-5
655.829	1	15
655.998	1	2
656.168	1	9
656.337	1	10
656.507	1	0
656.676	1	16
656.846	1	-5
657.015	1	10
657.184	1	5
657.354	1	9
657.523	1	12
657.693	1	17
657.862	1	2
658.032	1	14
658.201	1	10
658.371	1	7
658.540	1	2
658.709	1	9
658.879	1	-7
659.048	1	5
659.218	1	10
659.387	1	4
659.557	1	11
659.726	1	10
659.895	1	7
660.065	1	-5
660.234	1	8
660.404	1	7
660.573	1	14
660.743	1	9
660.912	1	6
661.081	1	11
661.251	1	11
661.420	1	8
661.590	1	4
661.759	1	5
661.929	1	7
662.098	1	6
662.267	1	12
662.437	1	14
662.606	1	13
662.776	1	6
662.945	1	3
663.115	1	5
663.284	1	15
663.453	1	0
663.623	1	12
663.792	1	8
663.962	1	11
664.131	1	14
664.300	1	3
664.470	1	15
664.639	1	11
664.809	1	9
664.978	1	4
665.148	1	9
665.317	1	5
665.486	1	11
665.656	1	3
665.825	1	7
665.995	1	2
666.164	1	-4
666.333	1	8
666.503	1	14
666.672	1	13
666.842	1	-1
667.011	1	7
667.180	1	12
667.350	1	16
667.519	1	11
667.689	1	0
667.858	1	9
668.027	1	19
668.197	1	12
668.366	1	7
668.536	1	12
668.705	1	8
668.874	1	10
669.044	1	-5
669.213	1	6
669.382	1	16
669.552	1	11
669.721	1	23
669.891	1	16
670.060	1	14
670.229	1	2
670.399	1	15
670.568	1	6
670.738	1	6
670.907	1	6
671.076	1	5
671.246	1	22
671.415	1	10
671.584	1	1
671.754	1	9
671.923	1	7
672.093	1	20
672.262	1	17
672.431	1	3
672.601	1	5
672.770	1	10
672.939	1	8
673.109	1	16
673.278	1	2
673.448	1	2
673.617	1	-3
673.786	1	12
