325.333	1	6
325.504	1	-2
325.675	1	-8
325.846	1	1
326.017	1	1
326.188	1	1
326.359	1	-13
326.531	1	2
326.702	1	-8
326.873	1	-2
327.044	1	2
327.215	1	-5
327.386	1	-6
327.557	1	-6
327.728	1	0
327.899	1	9
328.070	1	-3
328.241	1	-3
328.412	1	-6
328.583	1	-6
328.754	1	-12
328.926	1	-5
329.097	1	-5
329.268	1	-6
329.439	1	2
329.610	1	15
329.781	1	-13
329.952	1	-1
330.123	1	4
330.294	1	-7
330.465	1	0
330.636	1	-9
330.807	1	-5
330.978	1	-7
331.149	1	3
331.320	1	-6
331.492	1	12
331.663	1	0
331.834	1	6
332.005	1	0
332.176	1	-5
332.347	1	6
332.518	1	-9
332.689	1	2
332.860	1	-7
333.031	1	-14
333.202	1	-6
333.373	1	2
333.544	1	-6
333.715	1	3
333.886	1	-12
334.057	1	4
334.228	1	-3
334.399	1	7
334.570	1	-6
334.741	1	5
334.912	1	6
335.084	1	-5
335.255	1	-3
335.426	1	-11
335.597	1	-5
335.768	1	12
335.939	1	-2
336.110	1	-2
336.281	1	-1
336.452	1	9
336.623	1	-8
336.794	1	-2
336.965	1	-3
337.136	1	-10
337.307	1	-5
337.478	1	-8
337.649	1	13
337.820	1	3
337.991	1	-2
338.162	1	0
338.333	1	-2
338.504	1	-7
338.675	1	-10
338.846	1	2
339.017	1	11
339.188	1	-11
339.359	1	2
339.530	1	0
339.701	1	-3
339.872	1	2
340.043	1	-11
340.214	1	-10
340.385	1	4
340.556	1	-1
340.727	1	-4
340.898	1	1
341.069	1	-1
341.240	1	-1
341.411	1	-8
341.582	1	8
341.753	1	-12
341.924	1	-5
342.095	1	4
342.266	1	-4
342.437	1	-4
342.608	1	3
342.779	1	8
342.950	1	-5
343.121	1	-7
343.292	1	-2
343.463	1	-4
343.634	1	-12
343.805	1	-7
343.976	1	-2
344.147	1	-4
344.318	1	-13
344.489	1	1
344.660	1	-2
344.831	1	11
345.002	1	11
345.173	1	-14
345.344	1	-2
345.515	1	-13
345.686	1	3
345.857	1	-4
346.028	1	1
346.199	1	-18
346.370	1	-3
346.541	1	-8
346.712	1	-3
346.883	1	-8
347.054	1	-4
347.225	1	-2
347.396	1	-7
347.567	1	10
347.738	1	-11
347.909	1	0
348.080	1	-3
348.251	1	4
348.422	1	-13
348.593	1	4
348.764	1	-2
348.935	1	-4
349.106	1	-1
349.277	1	4
349.448	1	-1
349.619	1	-11
349.790	1	8
349.961	1	0
350.132	1	7
350.303	1	3
350.474	1	-6
350.645	1	-4
350.816	1	-10
350.987	1	8
351.157	1	1
351.328	1	5
351.499	1	0
351.670	1	-4
351.841	1	-1
352.012	1	-2
352.183	1	0
352.354	1	-12
352.525	1	0
352.696	1	8
352.867	1	4
353.038	1	-5
353.209	1	-4
353.380	1	-10
353.551	1	-7
353.722	1	-5
353.893	1	-6
354.064	1	-1
354.235	1	-1
354.406	1	-4
354.576	1	8
354.747	1	-2
354.918	1	-6
355.089	1	-3
355.260	1	5
355.431	1	-4
355.602	1	3
355.773	1	-9
355.944	1	0
356.115	1	1
356.286	1	4
356.457	1	-3
356.628	1	-4
356.799	1	-5
356.970	1	0
357.141	1	-8
357.311	1	9
357.482	1	-3
357.653	1	8
357.824	1	7
357.995	1	-3
358.166	1	-2
358.337	1	9
358.508	1	6
358.679	1	0
358.850	1	-7
359.021	1	-3
359.192	1	-1
359.363	1	-6
359.533	1	-17
359.704	1	1
359.875	1	-1
360.046	1	2
360.217	1	-3
360.388	1	-7
360.559	1	-3
360.730	1	-12
360.901	1	-5
361.072	1	-6
361.243	1	-2
361.414	1	-3
361.584	1	-10
361.755	1	-9
361.926	1	1
362.097	1	-10
362.268	1	-9
362.439	1	-2
362.610	1	-14
362.781	1	-5
362.952	1	4
363.123	1	-4
363.293	1	5
363.464	1	3
363.635	1	-9
363.806	1	-10
363.977	1	-8
364.148	1	-7
364.319	1	-4
364.490	1	12
364.661	1	-2
364.832	1	2
365.002	1	0
365.173	1	0
365.344	1	5
365.515	1	-18
365.686	1	-13
365.857	1	-1
366.028	1	8
366.199	1	-3
366.370	1	3
366.540	1	-7
366.711	1	-8
366.882	1	-6
367.053	1	-7
367.224	1	3
367.395	1	-1
367.566	1	-12
367.737	1	-8
367.908	1	-2
368.078	1	5
368.249	1	-8
368.420	1	5
368.591	1	7
368.762	1	-1
368.933	1	-16
369.104	1	8
369.274	1	-6
369.445	1	6
369.616	1	-6
369.787	1	0
369.958	1	-3
370.129	1	-11
370.300	1	1
370.471	1	-5
370.641	1	-9
370.812	1	-8
370.983	1	-11
371.154	1	-7
371.325	1	5
371.496	1	-3
371.667	1	-8
371.837	1	-2
372.008	1	-19
372.179	1	-9
372.350	1	-9
372.521	1	0
372.692	1	-2
372.863	1	4
373.033	1	-4
373.204	1	-6
373.375	1	-2
373.546	1	5
373.717	1	-15
373.888	1	-5
374.059	1	3
374.229	1	-9
374.400	1	-11
374.571	1	-11
374.742	1	4
374.913	1	-2
375.084	1	3
375.254	1	-4
375.425	1	-10
375.596	1	-4
375.767	1	-5
375.938	1	-3
376.109	1	4
376.279	1	-15
376.450	1	4
376.621	1	-9
376.792	1	-5
376.963	1	-13
377.134	1	0
377.304	1	-1
377.475	1	-1
377.646	1	-2
377.817	1	-15
377.988	1	-6
378.159	1	7
378.329	1	-3
378.500	1	6
378.671	1	-4
378.842	1	-8
379.013	1	-5
379.184	1	-16
379.354	1	-15
379.525	1	-9
379.696	1	3
379.867	1	0
380.038	1	6
380.209	1	-2
380.379	1	-10
380.550	1	-4
380.721	1	-11
380.892	1	0
381.063	1	-1
381.233	1	0
381.404	1	6
381.575	1	-1
381.746	1	11
381.917	1	6
382.087	1	3
382.258	1	4
382.429	1	-12
382.600	1	-5
382.771	1	0
382.941	1	0
383.112	1	-7
383.283	1	2
383.454	1	3
383.625	1	-11
383.795	1	-4
383.966	1	-11
384.137	1	-6
384.308	1	4
384.479	1	-15
384.649	1	-4
384.820	1	1
384.991	1	-12
385.162	1	11
385.333	1	-4
385.503	1	-11
385.674	1	-10
385.845	1	4
386.016	1	-3
386.187	1	1
386.357	1	-6
386.528	1	-8
386.699	1	-4
386.870	1	-6
387.041	1	11
387.211	1	-11
387.382	1	-8
387.553	1	-1
387.724	1	14
387.894	1	6
388.065	1	-5
388.236	1	2
388.407	1	0
388.578	1	-4
388.748	1	-8
388.919	1	-6
389.090	1	-3
389.261	1	-11
389.431	1	-8
389.602	1	5
389.773	1	7
389.944	1	1
390.114	1	1
390.285	1	-10
390.456	1	-1
390.627	1	-5
390.798	1	-9
390.968	1	3
391.139	1	-10
391.310	1	-1
391.481	1	4
391.651	1	1
391.822	1	4
391.993	1	-6
392.164	1	8
392.334	1	-13
392.505	1	-4
392.676	1	2
392.847	1	-18
393.017	1	-3
393.188	1	11
393.359	1	-9
393.530	1	4
393.700	1	-19
393.871	1	-7
394.042	1	4
394.213	1	-3
394.383	1	1
394.554	1	6
394.725	1	-14
394.896	1	4
395.066	1	2
395.237	1	-13
395.408	1	1
395.579	1	-11
395.749	1	-9
395.920	1	-5
396.091	1	-7
396.262	1	-9
396.432	1	3
396.603	1	-8
396.774	1	-7
396.945	1	8
397.115	1	-11
397.286	1	-11
397.457	1	-7
397.627	1	-14
397.798	1	-10
397.969	1	0
398.140	1	-3
398.310	1	-10
398.481	1	-6
398.652	1	-5
398.823	1	5
398.993	1	-3
399.164	1	-4
399.335	1	-5
399.505	1	-9
399.676	1	-3
399.847	1	-2
400.018	1	3
400.188	1	-9
400.359	1	-7
400.530	1	2
400.700	1	-17
400.871	1	-15
401.042	1	-3
401.213	1	-10
401.383	1	1
401.554	1	4
401.725	1	-7
401.895	1	-5
402.066	1	-10
402.237	1	-2
402.408	1	-1
402.578	1	-9
402.749	1	-17
402.920	1	1
403.090	1	-12
403.261	1	3
403.432	1	-8
403.603	1	-1
403.773	1	-2
403.944	1	-6
404.115	1	-10
404.285	1	-8
404.456	1	-11
404.627	1	2
404.797	1	-6
404.968	1	-6
405.139	1	1
405.310	1	8
405.480	1	0
405.651	1	-17
405.822	1	-7
405.992	1	-4
406.163	1	8
406.334	1	5
406.504	1	4
406.675	1	19
406.846	1	1
407.016	1	6
407.187	1	-6
407.358	1	-1
407.528	1	-5
407.699	1	-12
407.870	1	4
408.041	1	0
408.211	1	-5
408.382	1	0
408.553	1	7
408.723	1	-8
408.894	1	-7
409.065	1	-6
409.235	1	-5
409.406	1	-15
409.577	1	-10
409.747	1	-7
409.918	1	-4
410.089	1	-1
410.259	1	-3
410.430	1	-7
410.601	1	1
410.771	1	2
410.942	1	-4
411.113	1	0
411.283	1	-6
411.454	1	1
411.625	1	-5
411.795	1	-9
411.966	1	8
412.137	1	-4
412.307	1	7
412.478	1	0
412.649	1	-1
412.819	1	-8
412.990	1	-7
413.161	1	5
413.331	1	3
413.502	1	-3
413.672	1	0
413.843	1	-2
414.014	1	-4
414.184	1	5
414.355	1	2
414.526	1	-5
414.696	1	-2
414.867	1	-12
415.038	1	-2
415.208	1	2
415.379	1	3
415.550	1	0
415.720	1	-8
415.891	1	10
416.062	1	3
416.232	1	-8
416.403	1	-9
416.573	1	2
416.744	1	-4
416.915	1	1
417.085	1	5
417.256	1	-10
417.427	1	-10
417.597	1	8
417.768	1	4
417.939	1	-1
418.109	1	3
418.280	1	-10
418.450	1	1
418.621	1	9
418.792	1	-15
418.962	1	-18
419.133	1	-7
419.304	1	-10
419.474	1	1
419.645	1	-5
419.815	1	-3
419.986	1	5
420.157	1	-7
420.327	1	-11
420.498	1	-1
420.669	1	-6
420.839	1	-12
421.010	1	-1
421.180	1	-4
421.351	1	-3
421.522	1	0
421.692	1	3
421.863	1	-2
422.033	1	-5
422.204	1	-1
422.375	1	-12
422.545	1	3
422.716	1	-6
422.886	1	-12
423.057	1	3
423.228	1	2
423.398	1	-5
423.569	1	-3
423.740	1	2
423.910	1	2
424.081	1	-7
424.251	1	-8
424.422	1	1
424.593	1	-2
424.763	1	9
424.934	1	8
425.104	1	-11
425.275	1	0
425.445	1	-12
425.616	1	-1
425.787	1	-9
425.957	1	-7
426.128	1	0
426.298	1	7
426.469	1	2
426.640	1	-9
426.810	1	-2
426.981	1	-6
427.151	1	-7
427.322	1	2
427.493	1	-1
427.663	1	8
427.834	1	2
428.004	1	-23
428.175	1	8
428.345	1	1
428.516	1	-3
428.687	1	3
428.857	1	-1
429.028	1	-4
429.198	1	8
429.369	1	-3
429.540	1	-1
429.710	1	-12
429.881	1	-9
430.051	1	-3
430.222	1	1
430.392	1	-13
430.563	1	0
430.734	1	6
430.904	1	-7
431.075	1	3
431.245	1	-11
431.416	1	7
431.586	1	-8
431.757	1	6
431.927	1	12
432.098	1	0
432.269	1	1
432.439	1	7
432.610	1	5
432.780	1	-12
432.951	1	3
433.121	1	-6
433.292	1	-2
433.462	1	-5
433.633	1	-14
433.804	1	-4
433.974	1	-7
434.145	1	-7
434.315	1	-4
434.486	1	4
434.656	1	11
434.827	1	-4
434.997	1	-3
435.168	1	-7
435.339	1	3
435.509	1	-1
435.680	1	-5
435.850	1	-9
436.021	1	9
436.191	1	-3
436.362	1	-4
436.532	1	5
436.703	1	-2
436.873	1	-7
437.044	1	-6
437.214	1	-8
437.385	1	-1
437.556	1	-1
437.726	1	-8
437.897	1	-3
438.067	1	-6
438.238	1	-9
438.408	1	-4
438.579	1	2
438.749	1	-13
438.920	1	7
439.090	1	0
439.261	1	-1
439.431	1	1
439.602	1	-14
439.772	1	-1
439.943	1	-3
440.113	1	-6
440.284	1	-6
440.455	1	4
440.625	1	0
440.796	1	8
440.966	1	-12
441.137	1	-10
441.307	1	1
441.478	1	-1
441.648	1	-14
441.819	1	1
441.989	1	-1
442.160	1	-7
442.330	1	-2
442.501	1	3
442.671	1	-1
442.842	1	4
443.012	1	-7
443.183	1	-1
443.353	1	5
443.524	1	-12
443.694	1	-15
443.865	1	4
444.035	1	-9
444.206	1	-3
444.376	1	2
444.547	1	3
444.717	1	-2
444.888	1	-1
445.058	1	-2
445.229	1	-1
445.399	1	-11
445.570	1	-6
445.740	1	-7
445.911	1	2
446.081	1	9
446.252	1	-1
446.422	1	1
446.593	1	-11
446.763	1	-9
446.934	1	-2
447.104	1	-10
447.275	1	-1
447.445	1	3
447.616	1	4
447.786	1	-10
447.957	1	-3
448.127	1	-2
448.298	1	3
448.468	1	0
448.639	1	-8
448.809	1	-5
448.979	1	-6
449.150	1	-4
449.320	1	-4
449.491	1	-3
449.661	1	1
449.832	1	-2
450.002	1	2
450.173	1	-7
450.343	1	-7
450.514	1	3
450.684	1	2
450.855	1	-1
451.025	1	-9
451.196	1	-8
451.366	1	2
451.537	1	-7
451.707	1	2
451.878	1	-9
452.048	1	-4
452.218	1	2
452.389	1	-4
452.559	1	-6
452.730	1	-6
452.900	1	-8
453.071	1	-6
453.241	1	-8
453.412	1	0
453.582	1	-8
453.753	1	-9
453.923	1	-3
454.093	1	2
454.264	1	2
454.434	1	-5
454.605	1	5
454.775	1	-2
454.946	1	8
455.116	1	4
455.287	1	-3
455.457	1	-1
455.628	1	-8
455.798	1	7
455.968	1	-7
456.139	1	-8
456.309	1	-8
456.480	1	6
456.650	1	3
456.821	1	8
456.991	1	3
457.161	1	-1
457.332	1	-12
457.502	1	-16
457.673	1	-6
457.843	1	4
458.014	1	-1
458.184	1	-14
458.355	1	-8
458.525	1	-2
458.695	1	-8
458.866	1	-8
459.036	1	-6
459.207	1	-7
459.377	1	-1
459.548	1	1
459.718	1	-9
459.888	1	0
460.059	1	-8
460.229	1	-9
460.400	1	-5
460.570	1	3
460.740	1	-5
460.911	1	-5
461.081	1	-12
461.252	1	15
461.422	1	-1
461.593	1	-8
461.763	1	3
461.933	1	-7
462.104	1	-5
462.274	1	4
462.445	1	-16
462.615	1	-7
462.785	1	-4
462.956	1	-3
463.126	1	-17
463.297	1	5
463.467	1	11
463.638	1	-6
463.808	1	-8
463.978	1	-5
464.149	1	1
464.319	1	-13
464.490	1	7
464.660	1	7
464.830	1	-14
465.001	1	12
465.171	1	-3
465.342	1	-2
465.512	1	-2
465.682	1	-3
465.853	1	-8
466.023	1	-6
466.194	1	5
466.364	1	-8
466.534	1	0
466.705	1	-9
466.875	1	-1
467.045	1	-3
467.216	1	-6
467.386	1	0
467.557	1	-12
467.727	1	-2
467.897	1	0
468.068	1	11
468.238	1	-6
468.409	1	-9
468.579	1	-8
468.749	1	-4
468.920	1	-15
469.090	1	2
469.260	1	-3
469.431	1	-4
469.601	1	-7
469.772	1	3
469.942	1	9
470.112	1	7
470.283	1	5
470.453	1	4
470.623	1	-7
470.794	1	0
470.964	1	-15
471.135	1	-2
471.305	1	3
471.475	1	-10
471.646	1	0
471.816	1	-6
471.986	1	-4
472.157	1	-10
472.327	1	-8
472.497	1	-2
472.668	1	-10
472.838	1	-5
473.009	1	4
473.179	1	3
473.349	1	-5
473.520	1	-8
473.690	1	-1
473.860	1	0
474.031	1	1
474.201	1	0
474.371	1	-5
474.542	1	2
474.712	1	-4
474.882	1	7
475.053	1	2
475.223	1	-2
475.394	1	2
475.564	1	-5
475.734	1	-12
475.905	1	-1
476.075	1	-7
476.245	1	6
476.416	1	-5
476.586	1	-7
476.756	1	8
476.927	1	6
477.097	1	-8
477.267	1	3
477.438	1	-11
477.608	1	-8
477.778	1	9
477.949	1	4
478.119	1	0
478.289	1	4
478.460	1	0
478.630	1	1
478.800	1	-4
478.971	1	0
479.141	1	-8
479.311	1	-4
479.482	1	-7
479.652	1	-4
479.822	1	-2
479.993	1	-8
480.163	1	-13
480.333	1	-2
480.504	1	-1
480.674	1	-1
480.844	1	-8
481.015	1	-15
481.185	1	-1
481.355	1	-11
481.525	1	3
481.696	1	-3
481.866	1	-4
482.036	1	-7
482.207	1	-3
482.377	1	-5
482.547	1	-12
482.718	1	-4
482.888	1	4
483.058	1	-2
483.229	1	2
483.399	1	4
483.569	1	1
483.740	1	-4
483.910	1	-12
484.080	1	-6
484.250	1	-2
484.421	1	-1
484.591	1	-3
484.761	1	-1
484.932	1	6
485.102	1	-8
485.272	1	-2
485.443	1	-1
485.613	1	-10
485.783	1	-4
485.953	1	-2
486.124	1	-16
486.294	1	1
486.464	1	-4
486.635	1	-9
486.805	1	-5
486.975	1	-8
487.146	1	2
487.316	1	-3
487.486	1	7
487.656	1	-9
487.827	1	-3
487.997	1	-9
488.167	1	-5
488.338	1	-20
488.508	1	-6
488.678	1	4
488.848	1	5
489.019	1	-6
489.189	1	-4
489.359	1	0
489.529	1	-5
489.700	1	-13
489.870	1	-3
490.040	1	-5
490.211	1	2
490.381	1	-12
490.551	1	-14
490.721	1	-3
490.892	1	8
491.062	1	-2
491.232	1	-17
491.402	1	1
491.573	1	-3
491.743	1	-9
491.913	1	-2
492.084	1	-1
492.254	1	6
492.424	1	-1
492.594	1	2
492.765	1	2
492.935	1	3
493.105	1	-1
493.275	1	-1
493.446	1	3
493.616	1	-2
493.786	1	10
493.956	1	-2
494.127	1	-6
494.297	1	-3
494.467	1	0
494.637	1	-1
494.808	1	-12
494.978	1	-16
495.148	1	2
495.318	1	-9
495.489	1	4
495.659	1	5
495.829	1	0
495.999	1	-2
496.170	1	-10
496.340	1	0
496.510	1	-3
496.680	1	-2
496.851	1	-4
497.021	1	-8
497.191	1	-10
497.361	1	4
497.532	1	3
497.702	1	0
497.872	1	-2
498.042	1	1
498.213	1	3
498.383	1	6
498.553	1	-10
498.723	1	-14
498.894	1	6
499.064	1	-9
499.234	1	-2
499.404	1	-2
499.574	1	-3
499.745	1	3
499.915	1	-10
500.085	1	-6
500.255	1	-1
500.426	1	-1
500.596	1	4
500.766	1	-3
500.936	1	4
501.106	1	-5
501.277	1	1
501.447	1	-1
501.617	1	-13
501.787	1	3
501.958	1	-5
502.128	1	8
502.298	1	-5
502.468	1	0
502.638	1	-15
502.809	1	-4
502.979	1	-13
503.149	1	3
503.319	1	-4
503.489	1	-6
503.660	1	-6
503.830	1	0
504.000	1	-6
504.170	1	-7
504.340	1	-2
504.511	1	-2
504.681	1	1
504.851	1	4
505.021	1	-5
505.192	1	-7
505.362	1	-6
505.532	1	-6
505.702	1	-3
505.872	1	-1
506.043	1	-7
506.213	1	-3
506.383	1	5
506.553	1	-6
506.723	1	-2
506.893	1	-4
507.064	1	5
507.234	1	-4
507.404	1	5
507.574	1	-6
507.744	1	-2
507.915	1	-7
508.085	1	-24
508.255	1	-4
508.425	1	-5
508.595	1	-10
508.766	1	-4
508.936	1	17
509.106	1	-5
509.276	1	-2
509.446	1	-4
509.616	1	2
509.787	1	-3
509.957	1	-7
510.127	1	-11
510.297	1	-5
510.467	1	-9
510.638	1	1
510.808	1	-22
510.978	1	6
511.148	1	9
511.318	1	0
511.488	1	10
511.659	1	-2
511.829	1	-3
511.999	1	-13
512.169	1	-8
512.339	1	3
512.509	1	0
512.680	1	-6
512.850	1	-1
513.020	1	0
513.190	1	0
513.360	1	-7
513.530	1	-5
513.700	1	-3
513.871	1	1
514.041	1	-6
514.211	1	-3
514.381	1	5
514.551	1	-21
514.721	1	-2
514.892	1	1
515.062	1	9
515.232	1	3
515.402	1	0
515.572	1	-5
515.742	1	1
515.912	1	-4
516.083	1	-6
516.253	1	1
516.423	1	-8
516.593	1	2
516.763	1	1
516.933	1	9
517.104	1	-15
517.274	1	-3
517.444	1	-1
517.614	1	-5
517.784	1	-5
517.954	1	-8
518.124	1	-4
518.294	1	-3
518.465	1	4
518.635	1	-11
518.805	1	5
518.975	1	-5
519.145	1	8
519.315	1	-1
519.485	1	-3
519.656	1	6
519.826	1	-12
519.996	1	6
520.166	1	-8
520.336	1	-8
520.506	1	-3
520.676	1	4
520.846	1	3
521.017	1	-9
521.187	1	0
521.357	1	-3
521.527	1	-5
521.697	1	-6
521.867	1	1
522.037	1	4
522.207	1	-3
522.377	1	0
522.548	1	5
522.718	1	-4
522.888	1	-2
523.058	1	-4
523.228	1	-7
523.398	1	2
523.568	1	-3
523.738	1	-6
523.909	1	-2
524.079	1	-1
524.249	1	1
524.419	1	-7
524.589	1	5
524.759	1	0
524.929	1	-1
525.099	1	-18
525.269	1	-3
525.439	1	-1
525.610	1	-10
525.780	1	7
525.950	1	8
526.120	1	-7
526.290	1	-7
526.460	1	5
526.630	1	-6
526.800	1	-6
526.970	1	7
527.140	1	4
527.311	1	12
527.481	1	-12
527.651	1	8
527.821	1	-12
527.991	1	-13
528.161	1	-11
528.331	1	-3
528.501	1	-5
528.671	1	1
528.841	1	8
529.011	1	-4
529.181	1	-1
529.352	1	9
529.522	1	-9
529.692	1	-16
529.862	1	-7
530.032	1	-9
530.202	1	-1
530.372	1	-2
530.542	1	-5
530.712	1	3
530.882	1	5
531.052	1	-3
531.222	1	-2
531.392	1	-1
531.563	1	-2
531.733	1	-3
531.903	1	3
532.073	1	-3
532.243	1	3
532.413	1	4
532.583	1	4
532.753	1	3
532.923	1	-6
533.093	1	-1
533.263	1	2
533.433	1	-10
533.603	1	-4
533.773	1	-10
533.943	1	2
534.113	1	0
534.284	1	-12
534.454	1	-4
534.624	1	0
534.794	1	-4
534.964	1	0
535.134	1	7
535.304	1	10
535.474	1	1
535.644	1	7
535.814	1	-6
535.984	1	-3
536.154	1	-5
536.324	1	-4
536.494	1	-2
536.664	1	-7
536.834	1	-7
537.004	1	0
537.174	1	-8
537.344	1	9
537.514	1	-5
537.685	1	-1
537.855	1	-3
538.025	1	0
538.195	1	1
538.365	1	-2
538.535	1	-4
538.705	1	-13
538.875	1	-10
539.045	1	3
539.215	1	5
539.385	1	-4
539.555	1	-8
539.725	1	-5
539.895	1	4
540.065	1	-12
540.235	1	5
540.405	1	-9
540.575	1	6
540.745	1	-7
540.915	1	-3
541.085	1	-6
541.255	1	5
541.425	1	-9
541.595	1	-2
541.765	1	13
541.935	1	8
542.105	1	-10
542.275	1	-2
542.445	1	6
542.615	1	-10
542.785	1	-14
542.955	1	-6
543.125	1	-5
543.295	1	6
543.465	1	-1
543.635	1	-1
543.805	1	0
543.975	1	-8
544.145	1	3
544.315	1	-4
544.485	1	-3
544.655	1	-12
544.825	1	-9
544.995	1	4
545.165	1	-3
545.335	1	-19
545.505	1	4
545.675	1	-19
545.845	1	10
546.015	1	-3
546.185	1	0
546.355	1	-2
546.525	1	-6
546.695	1	-7
546.865	1	0
547.035	1	-12
547.205	1	2
547.375	1	-1
547.545	1	-16
547.715	1	-8
547.885	1	-4
548.055	1	-8
548.225	1	-2
548.395	1	0
548.565	1	9
548.735	1	-3
548.905	1	7
549.075	1	-4
549.245	1	1
549.415	1	-7
549.585	1	-4
549.755	1	0
549.925	1	-9
550.095	1	-2
550.265	1	3
550.435	1	-2
550.605	1	2
550.775	1	6
550.945	1	2
551.115	1	-1
551.285	1	-12
551.455	1	-4
551.625	1	-14
551.795	1	-3
551.965	1	-5
552.135	1	7
552.305	1	2
552.475	1	-3
552.645	1	5
552.815	1	-2
552.985	1	-2
553.155	1	-3
553.325	1	-15
553.495	1	1
553.665	1	-13
553.835	1	2
554.004	1	11
554.174	1	0
554.344	1	-9
554.514	1	-7
554.684	1	-1
554.854	1	-18
555.024	1	-10
555.194	1	-4
555.364	1	7
555.534	1	-8
555.704	1	1
555.874	1	-11
556.044	1	-4
556.214	1	7
556.384	1	-1
556.554	1	-8
556.724	1	-1
556.894	1	-12
557.064	1	0
557.234	1	-10
557.404	1	-5
557.573	1	-3
557.743	1	-4
557.913	1	-1
558.083	1	-1
558.253	1	-9
558.423	1	-8
558.593	1	-9
558.763	1	6
558.933	1	-6
559.103	1	-5
559.273	1	-2
559.443	1	-2
559.613	1	-6
559.783	1	-18
559.953	1	0
560.122	1	-6
560.292	1	2
560.462	1	-4
560.632	1	-7
560.802	1	-3
560.972	1	-9
561.142	1	1
561.312	1	-10
561.482	1	-5
561.652	1	-2
561.822	1	-12
561.992	1	-6
562.162	1	6
562.331	1	-6
562.501	1	-7
562.671	1	3
562.841	1	-11
563.011	1	-9
563.181	1	8
563.351	1	0
563.521	1	-8
563.691	1	3
563.861	1	0
564.031	1	-8
564.201	1	8
564.370	1	-8
564.540	1	-7
564.710	1	4
564.880	1	-4
565.050	1	5
565.220	1	-9
565.390	1	-7
565.560	1	9
565.730	1	-11
565.900	1	2
566.069	1	-1
566.239	1	-5
566.409	1	-6
566.579	1	13
566.749	1	-7
566.919	1	-1
567.089	1	1
567.259	1	-5
567.429	1	-5
567.599	1	2
567.768	1	-1
567.938	1	-7
568.108	1	-5
568.278	1	0
568.448	1	3
568.618	1	-10
568.788	1	-2
568.958	1	-5
569.128	1	-4
569.297	1	-5
569.467	1	-9
569.637	1	5
569.807	1	-1
569.977	1	-3
570.147	1	9
570.317	1	3
570.487	1	-8
570.656	1	-13
570.826	1	-2
570.996	1	-11
571.166	1	1
571.336	1	-8
571.506	1	1
571.676	1	-3
571.846	1	-11
572.015	1	2
572.185	1	4
572.355	1	-8
572.525	1	-14
572.695	1	-4
572.865	1	-14
573.035	1	-1
573.205	1	5
573.374	1	5
573.544	1	4
573.714	1	3
573.884	1	-2
574.054	1	3
574.224	1	-11
574.394	1	-14
574.563	1	0
574.733	1	-5
574.903	1	-5
575.073	1	5
575.243	1	-11
575.413	1	-6
575.583	1	-6
575.752	1	-3
575.922	1	-3
576.092	1	-17
576.262	1	-4
576.432	1	4
576.602	1	-3
576.772	1	-5
576.941	1	-2
577.111	1	-4
577.281	1	-3
577.451	1	2
577.621	1	-5
577.791	1	-5
577.960	1	-7
578.130	1	-8
578.300	1	-4
578.470	1	-6
578.640	1	-1
578.810	1	0
578.979	1	-7
579.149	1	-3
579.319	1	-9
579.489	1	-18
579.659	1	-10
579.829	1	0
579.998	1	-8
580.168	1	-2
580.338	1	6
580.508	1	5
580.678	1	8
580.848	1	-1
581.017	1	8
581.187	1	-7
581.357	1	-11
581.527	1	-3
581.697	1	-1
581.867	1	-7
582.036	1	-9
582.206	1	4
582.376	1	-4
582.546	1	-10
582.716	1	3
582.885	1	-11
583.055	1	-7
583.225	1	-9
583.395	1	4
583.565	1	1
583.735	1	5
583.904	1	11
584.074	1	-11
584.244	1	-18
584.414	1	-4
584.584	1	-8
584.753	1	-1
584.923	1	-2
585.093	1	-3
585.263	1	1
585.433	1	-6
585.602	1	-8
585.772	1	-6
585.942	1	7
586.112	1	-4
586.282	1	0
586.451	1	5
586.621	1	5
586.791	1	-7
586.961	1	-6
587.131	1	-8
587.300	1	-3
587.470	1	-8
587.640	1	-9
587.810	1	5
587.980	1	0
588.149	1	-11
588.319	1	5
588.489	1	-1
588.659	1	-9
588.829	1	5
588.998	1	-1
589.168	1	4
589.338	1	-4
589.508	1	5
589.677	1	4
589.847	1	-6
590.017	1	-2
590.187	1	-1
590.357	1	-6
590.526	1	-1
590.696	1	-16
590.866	1	-4
591.036	1	-1
591.205	1	6
591.375	1	-13
591.545	1	-3
591.715	1	-2
591.885	1	0
592.054	1	-4
592.224	1	-5
592.394	1	-4
592.564	1	3
592.733	1	-14
592.903	1	5
593.073	1	4
593.243	1	-1
593.412	1	-3
593.582	1	-1
593.752	1	-2
593.922	1	-2
594.091	1	-8
594.261	1	-5
594.431	1	-1
594.601	1	0
594.771	1	-3
594.940	1	0
595.110	1	1
595.280	1	-16
595.450	1	0
595.619	1	4
595.789	1	0
595.959	1	2
596.129	1	-9
596.298	1	9
596.468	1	3
596.638	1	-10
596.808	1	1
596.977	1	-14
597.147	1	-20
597.317	1	-7
597.487	1	0
597.656	1	-8
597.826	1	8
597.996	1	-2
598.166	1	6
598.335	1	-1
598.505	1	0
598.675	1	-8
598.844	1	-10
599.014	1	-9
599.184	1	6
599.354	1	7
599.523	1	-8
599.693	1	9
599.863	1	-4
600.033	1	-9
600.202	1	1
600.372	1	-13
600.542	1	-3
600.712	1	-10
600.881	1	-10
601.051	1	-6
601.221	1	7
601.390	1	-7
601.560	1	1
601.730	1	4
601.900	1	0
602.069	1	-8
602.239	1	-5
602.409	1	-5
602.578	1	-6
602.748	1	-1
602.918	1	-4
603.088	1	6
603.257	1	1
603.427	1	2
603.597	1	-6
603.767	1	-3
603.936	1	-9
604.106	1	1
604.276	1	5
604.445	1	-1
604.615	1	0
604.785	1	-1
604.954	1	13
605.124	1	-4
605.294	1	-19
605.464	1	-3
605.633	1	2
605.803	1	-8
605.973	1	7
606.142	1	-4
606.312	1	-4
606.482	1	-1
606.652	1	-8
606.821	1	-3
606.991	1	-1
607.161	1	3
607.330	1	-8
607.500	1	3
607.670	1	6
607.839	1	6
608.009	1	1
608.179	1	-7
608.348	1	-1
608.518	1	-4
608.688	1	-3
608.858	1	4
609.027	1	-3
609.197	1	-17
609.367	1	10
609.536	1	3
609.706	1	-2
609.876	1	5
610.045	1	-8
610.215	1	-1
610.385	1	-8
610.554	1	-12
610.724	1	-10
610.894	1	0
611.063	1	-3
611.233	1	7
611.403	1	-2
611.572	1	-4
611.742	1	-10
611.912	1	-4
612.081	1	-15
612.251	1	4
612.421	1	-6
612.590	1	0
612.760	1	3
612.930	1	-15
613.099	1	1
613.269	1	-11
613.439	1	-6
613.608	1	-1
613.778	1	-7
613.948	1	-1
614.117	1	6
614.287	1	-7
614.457	1	-12
614.626	1	6
614.796	1	-9
614.966	1	2
615.135	1	0
615.305	1	0
615.475	1	-2
615.644	1	4
615.814	1	-4
615.984	1	3
616.153	1	-3
616.323	1	2
616.493	1	6
616.662	1	5
616.832	1	1
617.002	1	-6
617.171	1	-6
617.341	1	-8
617.511	1	-2
617.680	1	3
617.850	1	-5
618.019	1	-7
618.189	1	2
618.359	1	-11
618.528	1	-5
618.698	1	15
618.868	1	-7
619.037	1	4
619.207	1	-3
619.377	1	-9
619.546	1	3
619.716	1	2
619.885	1	-5
620.055	1	-1
620.225	1	1
620.394	1	-6
620.564	1	5
620.734	1	4
620.903	1	-12
621.073	1	-5
621.242	1	0
621.412	1	-5
621.582	1	-9
621.751	1	-1
621.921	1	-1
622.091	1	3
622.260	1	-13
622.430	1	-4
622.599	1	-7
622.769	1	-4
622.939	1	-4
623.108	1	-10
623.278	1	-7
623.448	1	-3
623.617	1	-8
623.787	1	-1
623.956	1	3
624.126	1	-1
624.296	1	-2
624.465	1	-4
624.635	1	1
624.804	1	-14
624.974	1	-2
625.144	1	-4
625.313	1	-4
625.483	1	6
625.652	1	4
625.822	1	-10
625.992	1	0
626.161	1	7
626.331	1	-7
626.501	1	-2
626.670	1	0
626.840	1	0
627.009	1	11
627.179	1	-5
627.348	1	2
627.518	1	-5
627.688	1	2
627.857	1	-2
628.027	1	-11
628.196	1	-6
628.366	1	-14
628.536	1	7
628.705	1	-13
628.875	1	10
629.044	1	7
629.214	1	3
629.384	1	-2
629.553	1	2
629.723	1	-14
629.892	1	11
630.062	1	1
630.232	1	-5
630.401	1	7
630.571	1	-1
630.740	1	-3
630.910	1	2
631.079	1	-8
631.249	1	-2
631.419	1	-4
631.588	1	-5
631.758	1	-2
631.927	1	-7
632.097	1	-1
632.266	1	-9
632.436	1	-4
632.606	1	-8
632.775	1	4
632.945	1	10
633.114	1	-6
633.284	1	-7
633.453	1	-16
633.623	1	-6
633.793	1	-3
633.962	1	-6
634.132	1	1
634.301	1	-1
634.471	1	-7
634.640	1	-3
634.810	1	3
634.979	1	-2
635.149	1	-1
635.319	1	2
635.488	1	8
635.658	1	4
635.827	1	1
635.997	1	-3
636.166	1	-4
636.336	1	0
636.505	1	3
636.675	1	4
636.845	1	-8
637.014	1	-8
637.184	1	-3
637.353	1	-9
637.523	1	0
637.692	1	12
637.862	1	-3
638.031	1	-1
638.201	1	1
638.370	1	-3
638.540	1	-5
638.710	1	3
638.879	1	-4
639.049	1	-1
639.218	1	-1
639.388	1	0
639.557	1	5
639.727	1	-5
639.896	1	-2
640.066	1	1
640.235	1	-10
640.405	1	-4
640.574	1	-5
640.744	1	3
640.914	1	0
641.083	1	-4
641.253	1	9
641.422	1	-3
641.592	1	-16
641.761	1	0
641.931	1	-7
642.100	1	-9
642.270	1	-7
642.439	1	3
642.609	1	-3
642.778	1	-12
642.948	1	-7
643.117	1	4
643.287	1	-7
643.456	1	8
643.626	1	9
643.795	1	-6
643.965	1	1
644.134	1	-4
644.304	1	-4
644.473	1	-2
644.643	1	-2
644.812	1	10
644.982	1	-7
645.151	1	6
645.321	1	3
645.490	1	-9
645.660	1	-9
645.829	1	-7
645.999	1	3
646.168	1	-12
646.338	1	-11
646.507	1	-1
646.677	1	0
646.846	1	-4
647.016	1	3
647.185	1	0
647.355	1	-1
647.524	1	-2
647.694	1	4
647.863	1	-3
648.033	1	-12
648.202	1	3
648.372	1	12
648.541	1	-7
648.711	1	-2
648.880	1	-6
649.050	1	-9
649.219	1	-18
649.389	1	-5
649.558	1	-9
649.728	1	-2
649.897	1	-12
650.067	1	-1
650.236	1	1
650.406	1	-1
650.575	1	4
650.745	1	-5
650.914	1	-5
651.084	1	-9
651.253	1	0
651.423	1	4
651.592	1	-1
651.762	1	-2
651.931	1	1
652.101	1	1
652.270	1	-5
652.440	1	-8
652.609	1	1
652.778	1	-19
652.948	1	3
653.117	1	-10
653.287	1	17
653.456	1	8
653.626	1	-2
653.795	1	-2
653.965	1	-8
654.134	1	0
654.304	1	-5
654.473	1	-5
654.643	1	0
654.812	1	-9
654.982	1	-13
655.151	1	-2
655.320	1	-1
655.490	1	-7
655.659	1	-7
655.829	1	1
655.998	1	-6
656.168	1	-3
656.337	1	5
656.507	1	-6
656.676	1	-2
656.846	1	-3
657.015	1	-13
657.184	1	-12
657.354	1	-5
657.523	1	-3
657.693	1	2
657.862	1	-14
658.032	1	-5
658.201	1	3
658.371	1	-18
658.540	1	-8
658.709	1	-6
658.879	1	-21
659.048	1	-6
659.218	1	8
659.387	1	-12
659.557	1	-4
659.726	1	-5
659.895	1	-1
660.065	1	-17
660.234	1	3
660.404	1	1
660.573	1	-2
660.743	1	0
660.912	1	2
661.081	1	3
661.251	1	-3
661.420	1	-10
661.590	1	-6
661.759	1	1
661.929	1	-3
662.098	1	-6
662.267	1	-9
662.437	1	-5
662.606	1	6
662.776	1	-3
662.945	1	-8
663.115	1	-1
663.284	1	1
663.453	1	-14
663.623	1	2
663.792	1	-4
663.962	1	-11
664.131	1	-7
664.300	1	-1
664.470	1	-3
664.639	1	-8
664.809	1	-2
664.978	1	-7
665.148	1	-5
665.317	1	-10
665.486	1	-7
665.656	1	-9
665.825	1	-10
665.995	1	2
666.164	1	-4
666.333	1	-3
666.503	1	-2
666.672	1	4
666.842	1	-7
667.011	1	3
667.180	1	8
667.350	1	1
667.519	1	7
667.689	1	-7
667.858	1	3
668.027	1	15
668.197	1	6
668.366	1	4
668.536	1	-4
668.705	1	0
668.874	1	6
669.044	1	-11
669.213	1	-5
669.382	1	-7
669.552	1	4
669.721	1	1
669.891	1	-1
670.060	1	7
670.229	1	0
670.399	1	7
670.568	1	-7
670.738	1	-8
670.907	1	0
671.076	1	-4
671.246	1	-1
671.415	1	2
671.584	1	-15
671.754	1	-7
671.923	1	1
672.093	1	0
672.262	1	2
672.431	1	-7
672.601	1	-5
672.770	1	-3
672.939	1	2
673.109	1	-3
673.278	1	9
673.448	1	2
673.617	1	-12
673.786	1	1
