325.333	1	12
325.504	1	12
325.675	1	6
325.846	1	8
326.017	1	14
326.188	1	16
326.359	1	4
326.531	1	6
326.702	1	2
326.873	1	12
327.044	1	12
327.215	1	2
327.386	1	10
327.557	1	8
327.728	1	12
327.899	1	16
328.070	1	15
328.241	1	16
328.412	1	12
328.583	1	15
328.754	1	6
328.926	1	9
329.097	1	6
329.268	1	8
329.439	1	13
329.610	1	17
329.781	1	11
329.952	1	20
330.123	1	12
330.294	1	4
330.465	1	9
330.636	1	17
330.807	1	3
330.978	1	16
331.149	1	10
331.320	1	9
331.492	1	13
331.663	1	17
331.834	1	17
332.005	1	13
332.176	1	14
332.347	1	28
332.518	1	9
332.689	1	14
332.860	1	15
333.031	1	7
333.202	1	3
333.373	1	16
333.544	1	9
333.715	1	14
333.886	1	6
334.057	1	18
334.228	1	19
334.399	1	23
334.570	1	9
334.741	1	12
334.912	1	12
335.084	1	9
335.255	1	10
335.426	1	9
335.597	1	21
335.768	1	24
335.939	1	19
336.110	1	22
336.281	1	8
336.452	1	20
336.623	1	7
336.794	1	16
336.965	1	12
337.136	1	12
337.307	1	11
337.478	1	14
337.649	1	19
337.820	1	16
337.991	1	27
338.162	1	11
338.333	1	9
338.504	1	5
338.675	1	16
338.846	1	8
339.017	1	17
339.188	1	17
339.359	1	12
339.530	1	15
339.701	1	14
339.872	1	21
340.043	1	-1
340.214	1	15
340.385	1	8
340.556	1	15
340.727	1	8
340.898	1	18
341.069	1	15
341.240	1	23
341.411	1	8
341.582	1	18
341.753	1	11
341.924	1	12
342.095	1	10
342.266	1	20
342.437	1	23
342.608	1	17
342.779	1	19
342.950	1	13
343.121	1	16
343.292	1	15
343.463	1	9
343.634	1	3
343.805	1	22
343.976	1	20
344.147	1	25
344.318	1	7
344.489	1	22
344.660	1	20
344.831	1	25
345.002	1	15
345.173	1	17
345.344	1	18
345.515	1	6
345.686	1	25
345.857	1	12
346.028	1	22
346.199	1	12
346.370	1	18
346.541	1	5
346.712	1	21
346.883	1	18
347.054	1	26
347.225	1	18
347.396	1	-3
347.567	1	23
347.738	1	11
347.909	1	18
348.080	1	14
348.251	1	21
348.422	1	16
348.593	1	17
348.764	1	10
348.935	1	16
349.106	1	23
349.277	1	17
349.448	1	14
349.619	1	16
349.790	1	23
349.961	1	25
350.132	1	33
350.303	1	13
350.474	1	12
350.645	1	33
350.816	1	8
350.987	1	17
351.157	1	29
351.328	1	26
351.499	1	20
351.670	1	7
351.841	1	14
352.012	1	22
352.183	1	12
352.354	1	4
352.525	1	22
352.696	1	23
352.867	1	13
353.038	1	7
353.209	1	18
353.380	1	10
353.551	1	4
353.722	1	10
353.893	1	16
354.064	1	22
354.235	1	7
354.406	1	31
354.576	1	8
354.747	1	17
354.918	1	24
355.089	1	24
355.260	1	26
355.431	1	14
355.602	1	16
355.773	1	17
355.944	1	11
356.115	1	22
356.286	1	18
356.457	1	15
356.628	1	15
356.799	1	7
356.970	1	24
357.141	1	16
357.311	1	22
357.482	1	7
357.653	1	18
357.824	1	18
357.995	1	18
358.166	1	8
358.337	1	23
358.508	1	18
358.679	1	25
358.850	1	7
359.021	1	21
359.192	1	24
359.363	1	22
359.533	1	1
359.704	1	25
359.875	1	22
360.046	1	24
360.217	1	16
360.388	1	21
360.559	1	19
360.730	1	19
360.901	1	7
361.072	1	21
361.243	1	14
361.414	1	18
361.584	1	3
361.755	1	23
361.926	1	17
362.097	1	21
362.268	1	18
362.439	1	15
362.610	1	19
362.781	1	10
362.952	1	32
363.123	1	17
363.293	1	15
363.464	1	19
363.635	1	31
363.806	1	17
363.977	1	15
364.148	1	8
364.319	1	12
364.490	1	12
364.661	1	18
364.832	1	18
365.002	1	21
365.173	1	17
365.344	1	21
365.515	1	7
365.686	1	11
365.857	1	25
366.028	1	15
366.199	1	23
366.370	1	17
366.540	1	16
366.711	1	14
366.882	1	15
367.053	1	16
367.224	1	25
367.395	1	20
367.566	1	19
367.737	1	14
367.908	1	15
368.078	1	20
368.249	1	7
368.420	1	23
368.591	1	21
368.762	1	14
368.933	1	9
369.104	1	31
369.274	1	8
369.445	1	14
369.616	1	18
369.787	1	35
369.958	1	11
370.129	1	17
370.300	1	8
370.471	1	17
370.641	1	25
370.812	1	21
370.983	1	11
371.154	1	14
371.325	1	19
371.496	1	26
371.667	1	15
371.837	1	11
372.008	1	6
372.179	1	8
372.350	1	5
372.521	1	23
372.692	1	8
372.863	1	23
373.033	1	30
373.204	1	9
373.375	1	14
373.546	1	29
373.717	1	7
373.888	1	28
374.059	1	19
374.229	1	15
374.400	1	15
374.571	1	15
374.742	1	15
374.913	1	18
375.084	1	24
375.254	1	21
375.425	1	23
375.596	1	32
375.767	1	18
375.938	1	13
376.109	1	18
376.279	1	12
376.450	1	17
376.621	1	14
376.792	1	24
376.963	1	10
377.134	1	21
377.304	1	20
377.475	1	26
377.646	1	17
377.817	1	18
377.988	1	11
378.159	1	27
378.329	1	13
378.500	1	19
378.671	1	16
378.842	1	16
379.013	1	25
379.184	1	13
379.354	1	15
379.525	1	12
379.696	1	20
379.867	1	21
380.038	1	21
380.209	1	25
380.379	1	18
380.550	1	24
380.721	1	16
380.892	1	22
381.063	1	23
381.233	1	21
381.404	1	16
381.575	1	37
381.746	1	30
381.917	1	27
382.087	1	34
382.258	1	27
382.429	1	20
382.600	1	28
382.771	1	20
382.941	1	24
383.112	1	20
383.283	1	38
383.454	1	27
383.625	1	14
383.795	1	33
383.966	1	26
384.137	1	30
384.308	1	29
384.479	1	17
384.649	1	17
384.820	1	33
384.991	1	14
385.162	1	23
385.333	1	22
385.503	1	28
385.674	1	8
385.845	1	34
386.016	1	23
386.187	1	19
386.357	1	24
386.528	1	14
386.699	1	24
386.870	1	30
387.041	1	36
387.211	1	15
387.382	1	21
387.553	1	23
387.724	1	34
387.894	1	37
388.065	1	17
388.236	1	17
388.407	1	27
388.578	1	19
388.748	1	24
388.919	1	20
389.090	1	31
389.261	1	29
389.431	1	25
389.602	1	27
389.773	1	40
389.944	1	39
390.114	1	34
390.285	1	20
390.456	1	34
390.627	1	21
390.798	1	24
390.968	1	38
391.139	1	23
391.310	1	27
391.481	1	32
391.651	1	38
391.822	1	33
391.993	1	30
392.164	1	37
392.334	1	19
392.505	1	39
392.676	1	33
392.847	1	23
393.017	1	34
393.188	1	28
393.359	1	30
393.530	1	16
393.700	1	19
393.871	1	34
394.042	1	28
394.213	1	41
394.383	1	28
394.554	1	51
394.725	1	29
394.896	1	32
395.066	1	33
395.237	1	30
395.408	1	37
395.579	1	19
395.749	1	29
395.920	1	29
396.091	1	39
396.262	1	22
396.432	1	33
396.603	1	34
396.774	1	35
396.945	1	41
397.115	1	32
397.286	1	22
397.457	1	32
397.627	1	30
397.798	1	17
397.969	1	43
398.140	1	33
398.310	1	25
398.481	1	30
398.652	1	25
398.823	1	31
398.993	1	40
399.164	1	34
399.335	1	44
399.505	1	26
399.676	1	39
399.847	1	30
400.018	1	48
400.188	1	29
400.359	1	31
400.530	1	46
400.700	1	46
400.871	1	35
401.042	1	36
401.213	1	30
401.383	1	28
401.554	1	38
401.725	1	36
401.895	1	30
402.066	1	30
402.237	1	31
402.408	1	33
402.578	1	35
402.749	1	31
402.920	1	32
403.090	1	22
403.261	1	46
403.432	1	28
403.603	1	29
403.773	1	38
403.944	1	42
404.115	1	31
404.285	1	41
404.456	1	43
404.627	1	39
404.797	1	35
404.968	1	41
405.139	1	36
405.310	1	40
405.480	1	37
405.651	1	34
405.822	1	34
405.992	1	35
406.163	1	34
406.334	1	34
406.504	1	41
406.675	1	46
406.846	1	46
407.016	1	39
407.187	1	38
407.358	1	47
407.528	1	37
407.699	1	27
407.870	1	46
408.041	1	40
408.211	1	32
408.382	1	41
408.553	1	47
408.723	1	38
408.894	1	27
409.065	1	35
409.235	1	44
409.406	1	38
409.577	1	32
409.747	1	25
409.918	1	31
410.089	1	43
410.259	1	34
410.430	1	41
410.601	1	38
410.771	1	37
410.942	1	44
411.113	1	41
411.283	1	45
411.454	1	47
411.625	1	47
411.795	1	22
411.966	1	54
412.137	1	44
412.307	1	43
412.478	1	37
412.649	1	43
412.819	1	44
412.990	1	45
413.161	1	46
413.331	1	42
413.502	1	42
413.672	1	52
413.843	1	42
414.014	1	43
414.184	1	43
414.355	1	41
414.526	1	38
414.696	1	44
414.867	1	45
415.038	1	38
415.208	1	42
415.379	1	48
415.550	1	39
415.720	1	36
415.891	1	54
416.062	1	46
416.232	1	40
416.403	1	36
416.573	1	45
416.744	1	37
416.915	1	52
417.085	1	43
417.256	1	41
417.427	1	36
417.597	1	44
417.768	1	39
417.939	1	38
418.109	1	44
418.280	1	38
418.450	1	42
418.621	1	40
418.792	1	32
418.962	1	30
419.133	1	35
419.304	1	45
419.474	1	38
419.645	1	42
419.815	1	40
419.986	1	42
420.157	1	46
420.327	1	38
420.498	1	47
420.669	1	46
420.839	1	37
421.010	1	47
421.180	1	51
421.351	1	39
421.522	1	45
421.692	1	45
421.863	1	39
422.033	1	29
422.204	1	44
422.375	1	44
422.545	1	44
422.716	1	35
422.886	1	31
423.057	1	36
423.228	1	47
423.398	1	42
423.569	1	38
423.740	1	49
423.910	1	47
424.081	1	41
424.251	1	39
424.422	1	35
424.593	1	43
424.763	1	46
424.934	1	47
425.104	1	38
425.275	1	46
425.445	1	31
425.616	1	48
425.787	1	41
425.957	1	36
426.128	1	44
426.298	1	52
426.469	1	36
426.640	1	35
426.810	1	45
426.981	1	45
427.151	1	43
427.322	1	50
427.493	1	48
427.663	1	46
427.834	1	44
428.004	1	38
428.175	1	42
428.345	1	42
428.516	1	45
428.687	1	57
428.857	1	37
429.028	1	37
429.198	1	41
429.369	1	48
429.540	1	38
429.710	1	33
429.881	1	36
430.051	1	43
430.222	1	47
430.392	1	29
430.563	1	43
430.734	1	49
430.904	1	42
431.075	1	44
431.245	1	38
431.416	1	47
431.586	1	36
431.757	1	43
431.927	1	48
432.098	1	36
432.269	1	40
432.439	1	45
432.610	1	51
432.780	1	33
432.951	1	42
433.121	1	42
433.292	1	39
433.462	1	32
433.633	1	29
433.804	1	35
433.974	1	41
434.145	1	39
434.315	1	29
434.486	1	41
434.656	1	47
434.827	1	32
434.997	1	41
435.168	1	40
435.339	1	35
435.509	1	34
435.680	1	49
435.850	1	34
436.021	1	58
436.191	1	44
436.362	1	40
436.532	1	42
436.703	1	39
436.873	1	39
437.044	1	36
437.214	1	25
437.385	1	42
437.556	1	37
437.726	1	40
437.897	1	46
438.067	1	36
438.238	1	39
438.408	1	47
438.579	1	42
438.749	1	24
438.920	1	36
439.090	1	37
439.261	1	40
439.431	1	41
439.602	1	34
439.772	1	45
439.943	1	30
440.113	1	53
440.284	1	39
440.455	1	37
440.625	1	49
440.796	1	46
440.966	1	28
441.137	1	27
441.307	1	32
441.478	1	49
441.648	1	30
441.819	1	43
441.989	1	46
442.160	1	33
442.330	1	41
442.501	1	31
442.671	1	38
442.842	1	51
443.012	1	47
443.183	1	40
443.353	1	42
443.524	1	32
443.694	1	46
443.865	1	41
444.035	1	29
444.206	1	35
444.376	1	35
444.547	1	39
444.717	1	25
444.888	1	36
445.058	1	41
445.229	1	38
445.399	1	49
445.570	1	24
445.740	1	29
445.911	1	37
446.081	1	51
446.252	1	32
446.422	1	32
446.593	1	39
446.763	1	30
446.934	1	34
447.104	1	39
447.275	1	45
447.445	1	31
447.616	1	33
447.786	1	41
447.957	1	30
448.127	1	38
448.298	1	33
448.468	1	27
448.639	1	33
448.809	1	38
448.979	1	27
449.150	1	29
449.320	1	35
449.491	1	41
449.661	1	45
449.832	1	29
450.002	1	43
450.173	1	34
450.343	1	39
450.514	1	34
450.684	1	30
450.855	1	44
451.025	1	33
451.196	1	33
451.366	1	36
451.537	1	38
451.707	1	40
451.878	1	24
452.048	1	37
452.218	1	23
452.389	1	23
452.559	1	31
452.730	1	24
452.900	1	29
453.071	1	37
453.241	1	27
453.412	1	35
453.582	1	21
453.753	1	23
453.923	1	46
454.093	1	35
454.264	1	46
454.434	1	39
454.605	1	42
454.775	1	36
454.946	1	43
455.116	1	32
455.287	1	33
455.457	1	42
455.628	1	38
455.798	1	38
455.968	1	38
456.139	1	31
456.309	1	34
456.480	1	35
456.650	1	44
456.821	1	33
456.991	1	40
457.161	1	35
457.332	1	24
457.502	1	27
457.673	1	31
457.843	1	30
458.014	1	34
458.184	1	19
458.355	1	30
458.525	1	30
458.695	1	24
458.866	1	30
459.036	1	38
459.207	1	28
459.377	1	37
459.548	1	30
459.718	1	32
459.888	1	49
460.059	1	36
460.229	1	27
460.400	1	40
460.570	1	26
460.740	1	40
460.911	1	21
461.081	1	19
461.252	1	40
461.422	1	23
461.593	1	28
461.763	1	37
461.933	1	17
462.104	1	39
462.274	1	30
462.445	1	16
462.615	1	24
462.785	1	9
462.956	1	22
463.126	1	17
463.297	1	26
463.467	1	33
463.638	1	28
463.808	1	14
463.978	1	23
464.149	1	38
464.319	1	9
464.490	1	19
464.660	1	26
464.830	1	18
465.001	1	27
465.171	1	23
465.342	1	25
465.512	1	25
465.682	1	28
465.853	1	29
466.023	1	27
466.194	1	27
466.364	1	32
466.534	1	26
466.705	1	27
466.875	1	29
467.045	1	9
467.216	1	26
467.386	1	20
467.557	1	20
467.727	1	19
467.897	1	30
468.068	1	29
468.238	1	25
468.409	1	21
468.579	1	15
468.749	1	19
468.920	1	16
469.090	1	35
469.260	1	9
469.431	1	10
469.601	1	17
469.772	1	20
469.942	1	29
470.112	1	26
470.283	1	15
470.453	1	34
470.623	1	18
470.794	1	19
470.964	1	16
471.135	1	26
471.305	1	24
471.475	1	22
471.646	1	19
471.816	1	23
471.986	1	23
472.157	1	24
472.327	1	15
472.497	1	0
472.668	1	15
472.838	1	19
473.009	1	39
473.179	1	24
473.349	1	22
473.520	1	11
473.690	1	33
473.860	1	23
474.031	1	22
474.201	1	29
474.371	1	12
474.542	1	22
474.712	1	8
474.882	1	25
475.053	1	25
475.223	1	28
475.394	1	26
475.564	1	21
475.734	1	10
475.905	1	12
476.075	1	16
476.245	1	27
476.416	1	22
476.586	1	17
476.756	1	30
476.927	1	12
477.097	1	23
477.267	1	23
477.438	1	2
477.608	1	20
477.778	1	19
477.949	1	20
478.119	1	13
478.289	1	27
478.460	1	22
478.630	1	10
478.800	1	18
478.971	1	26
479.141	1	18
479.311	1	22
479.482	1	15
479.652	1	24
479.822	1	17
479.993	1	12
480.163	1	16
480.333	1	24
480.504	1	26
480.674	1	17
480.844	1	19
481.015	1	1
481.185	1	22
481.355	1	15
481.525	1	24
481.696	1	28
481.866	1	15
482.036	1	19
482.207	1	8
482.377	1	17
482.547	1	19
482.718	1	13
482.888	1	19
483.058	1	15
483.229	1	17
483.399	1	16
483.569	1	17
483.740	1	17
483.910	1	10
484.080	1	19
484.250	1	17
484.421	1	19
484.591	1	12
484.761	1	7
484.932	1	18
485.102	1	15
485.272	1	15
485.443	1	17
485.613	1	20
485.783	1	6
485.953	1	15
486.124	1	7
486.294	1	18
486.464	1	15
486.635	1	14
486.805	1	7
486.975	1	10
487.146	1	13
487.316	1	24
487.486	1	16
487.656	1	8
487.827	1	23
487.997	1	21
488.167	1	19
488.338	1	7
488.508	1	11
488.678	1	13
488.848	1	19
489.019	1	22
489.189	1	12
489.359	1	15
489.529	1	3
489.700	1	10
489.870	1	20
490.040	1	8
490.211	1	10
490.381	1	10
490.551	1	13
490.721	1	8
490.892	1	29
491.062	1	15
491.232	1	9
491.402	1	9
491.573	1	24
491.743	1	12
491.913	1	9
492.084	1	15
492.254	1	17
492.424	1	11
492.594	1	20
492.765	1	19
492.935	1	23
493.105	1	20
493.275	1	13
493.446	1	15
493.616	1	24
493.786	1	15
493.956	1	15
494.127	1	9
494.297	1	17
494.467	1	14
494.637	1	25
494.808	1	8
494.978	1	21
495.148	1	21
495.318	1	5
495.489	1	7
495.659	1	23
495.829	1	19
495.999	1	16
496.170	1	11
496.340	1	28
496.510	1	12
496.680	1	15
496.851	1	8
497.021	1	5
497.191	1	7
497.361	1	18
497.532	1	9
497.702	1	18
497.872	1	1
498.042	1	16
498.213	1	10
498.383	1	19
498.553	1	4
498.723	1	9
498.894	1	25
499.064	1	11
499.234	1	12
499.404	1	15
499.574	1	9
499.745	1	11
499.915	1	4
500.085	1	12
500.255	1	21
500.426	1	3
500.596	1	21
500.766	1	-3
500.936	1	11
501.106	1	15
501.277	1	20
501.447	1	-4
501.617	1	6
501.787	1	10
501.958	1	17
502.128	1	22
502.298	1	9
502.468	1	6
502.638	1	10
502.809	1	15
502.979	1	3
503.149	1	14
503.319	1	2
503.489	1	10
503.660	1	4
503.830	1	5
504.000	1	19
504.170	1	13
504.340	1	17
504.511	1	10
504.681	1	12
504.851	1	23
505.021	1	4
505.192	1	9
505.362	1	1
505.532	1	3
505.702	1	5
505.872	1	21
506.043	1	10
506.213	1	21
506.383	1	22
506.553	1	0
506.723	1	16
506.893	1	1
507.064	1	4
507.234	1	0
507.404	1	20
507.574	1	7
507.744	1	13
507.915	1	7
508.085	1	-1
508.255	1	19
508.425	1	3
508.595	1	14
508.766	1	6
508.936	1	17
509.106	1	9
509.276	1	12
509.446	1	15
509.616	1	11
509.787	1	8
509.957	1	13
510.127	1	16
510.297	1	8
510.467	1	11
510.638	1	14
510.808	1	13
510.978	1	18
511.148	1	19
511.318	1	16
511.488	1	18
511.659	1	18
511.829	1	8
511.999	1	3
512.169	1	4
512.339	1	7
512.509	1	0
512.680	1	1
512.850	1	6
513.020	1	10
513.190	1	5
513.360	1	2
513.530	1	4
513.700	1	3
513.871	1	6
514.041	1	11
514.211	1	-5
514.381	1	23
514.551	1	-9
514.721	1	13
514.892	1	13
515.062	1	12
515.232	1	11
515.402	1	25
515.572	1	4
515.742	1	8
515.912	1	7
516.083	1	7
516.253	1	19
516.423	1	3
516.593	1	7
516.763	1	20
516.933	1	19
517.104	1	7
517.274	1	20
517.444	1	7
517.614	1	7
517.784	1	2
517.954	1	13
518.124	1	10
518.294	1	8
518.465	1	14
518.635	1	2
518.805	1	0
518.975	1	7
519.145	1	6
519.315	1	4
519.485	1	11
519.656	1	9
519.826	1	8
519.996	1	10
520.166	1	6
520.336	1	4
520.506	1	8
520.676	1	7
520.846	1	8
521.017	1	8
521.187	1	12
521.357	1	12
521.527	1	9
521.697	1	13
521.867	1	4
522.037	1	8
522.207	1	7
522.377	1	15
522.548	1	6
522.718	1	10
522.888	1	19
523.058	1	12
523.228	1	-7
523.398	1	19
523.568	1	1
523.738	1	6
523.909	1	12
524.079	1	2
524.249	1	2
524.419	1	8
524.589	1	13
524.759	1	10
524.929	1	7
525.099	1	0
525.269	1	6
525.439	1	3
525.610	1	2
525.780	1	10
525.950	1	14
526.120	1	6
526.290	1	3
526.460	1	16
526.630	1	12
526.800	1	9
526.970	1	13
527.140	1	19
527.311	1	2
527.481	1	1
527.651	1	5
527.821	1	1
527.991	1	-4
528.161	1	-6
528.331	1	4
528.501	1	3
528.671	1	23
528.841	1	21
529.011	1	9
529.181	1	13
529.352	1	12
529.522	1	13
529.692	1	-9
529.862	1	9
530.032	1	10
530.202	1	12
530.372	1	18
530.542	1	0
530.712	1	12
530.882	1	19
531.052	1	-5
531.222	1	4
531.392	1	4
531.563	1	-1
531.733	1	4
531.903	1	11
532.073	1	8
532.243	1	11
532.413	1	3
532.583	1	3
532.753	1	16
532.923	1	7
533.093	1	4
533.263	1	4
533.433	1	9
533.603	1	-2
533.773	1	7
533.943	1	9
534.113	1	12
534.284	1	-7
534.454	1	11
534.624	1	18
534.794	1	15
534.964	1	6
535.134	1	17
535.304	1	21
535.474	1	10
535.644	1	-2
535.814	1	9
535.984	1	4
536.154	1	3
536.324	1	3
536.494	1	2
536.664	1	12
536.834	1	8
537.004	1	5
537.174	1	3
537.344	1	4
537.514	1	6
537.685	1	5
537.855	1	6
538.025	1	1
538.195	1	12
538.365	1	16
538.535	1	1
538.705	1	4
538.875	1	11
539.045	1	4
539.215	1	19
539.385	1	6
539.555	1	9
539.725	1	-4
539.895	1	13
540.065	1	-1
540.235	1	14
540.405	1	7
540.575	1	7
540.745	1	7
540.915	1	11
541.085	1	-1
541.255	1	11
541.425	1	-4
541.595	1	11
541.765	1	18
541.935	1	5
542.105	1	12
542.275	1	8
542.445	1	0
542.615	1	5
542.785	1	1
542.955	1	10
543.125	1	7
543.295	1	6
543.465	1	5
543.635	1	4
543.805	1	4
543.975	1	0
544.145	1	22
544.315	1	2
544.485	1	7
544.655	1	5
544.825	1	3
544.995	1	13
545.165	1	6
545.335	1	6
545.505	1	10
545.675	1	-7
545.845	1	17
546.015	1	-8
546.185	1	0
546.355	1	1
546.525	1	0
546.695	1	-6
546.865	1	9
547.035	1	1
547.205	1	17
547.375	1	0
547.545	1	0
547.715	1	5
547.885	1	2
548.055	1	10
548.225	1	10
548.395	1	-1
548.565	1	18
548.735	1	5
548.905	1	12
549.075	1	11
549.245	1	11
549.415	1	0
549.585	1	4
549.755	1	6
549.925	1	-1
550.095	1	5
550.265	1	17
550.435	1	-4
550.605	1	7
550.775	1	8
550.945	1	7
551.115	1	2
551.285	1	-1
551.455	1	5
551.625	1	-3
551.795	1	-7
551.965	1	13
552.135	1	3
552.305	1	4
552.475	1	8
552.645	1	9
552.815	1	3
552.985	1	7
553.155	1	10
553.325	1	-3
553.495	1	6
553.665	1	2
553.835	1	7
554.004	1	7
554.174	1	16
554.344	1	1
554.514	1	7
554.684	1	-9
554.854	1	-2
555.024	1	-2
555.194	1	-1
555.364	1	18
555.534	1	-3
555.704	1	9
555.874	1	5
556.044	1	4
556.214	1	17
556.384	1	2
556.554	1	4
556.724	1	10
556.894	1	3
557.064	1	11
557.234	1	-2
557.404	1	7
557.573	1	-5
557.743	1	5
557.913	1	13
558.083	1	2
558.253	1	-1
558.423	1	-8
558.593	1	0
558.763	1	6
558.933	1	5
559.103	1	10
559.273	1	6
559.443	1	4
559.613	1	4
559.783	1	-4
559.953	1	5
560.122	1	11
560.292	1	9
560.462	1	8
560.632	1	-8
560.802	1	3
560.972	1	-1
561.142	1	6
561.312	1	1
561.482	1	1
561.652	1	-8
561.822	1	-1
561.992	1	-2
562.162	1	3
562.331	1	5
562.501	1	12
562.671	1	17
562.841	1	-1
563.011	1	7
563.181	1	11
563.351	1	4
563.521	1	7
563.691	1	-4
563.861	1	4
564.031	1	2
564.201	1	9
564.370	1	2
564.540	1	9
564.710	1	5
564.880	1	8
565.050	1	6
565.220	1	2
565.390	1	9
565.560	1	11
565.730	1	-2
565.900	1	4
566.069	1	12
566.239	1	2
566.409	1	-4
566.579	1	8
566.749	1	0
566.919	1	-7
567.089	1	-3
567.259	1	12
567.429	1	-4
567.599	1	13
567.768	1	6
567.938	1	3
568.108	1	2
568.278	1	7
568.448	1	5
568.618	1	16
568.788	1	11
568.958	1	-3
569.128	1	12
569.297	1	-4
569.467	1	-2
569.637	1	7
569.807	1	15
569.977	1	3
570.147	1	10
570.317	1	3
570.487	1	-7
570.656	1	-12
570.826	1	2
570.996	1	-2
571.166	1	16
571.336	1	-5
571.506	1	4
571.676	1	13
571.846	1	11
572.015	1	-7
572.185	1	7
572.355	1	5
572.525	1	-1
572.695	1	11
572.865	1	0
573.035	1	13
573.205	1	6
573.374	1	-6
573.544	1	6
573.714	1	6
573.884	1	4
574.054	1	1
574.224	1	8
574.394	1	-3
574.563	1	15
574.733	1	0
574.903	1	12
575.073	1	4
575.243	1	5
575.413	1	1
575.583	1	12
575.752	1	-3
575.922	1	-3
576.092	1	-2
576.262	1	-2
576.432	1	1
576.602	1	1
576.772	1	12
576.941	1	9
577.111	1	2
577.281	1	2
577.451	1	1
577.621	1	13
577.791	1	6
577.960	1	4
578.130	1	-6
578.300	1	1
578.470	1	0
578.640	1	11
578.810	1	-7
578.979	1	0
579.149	1	1
579.319	1	14
579.489	1	-3
579.659	1	-5
579.829	1	8
579.998	1	8
580.168	1	3
580.338	1	4
580.508	1	9
580.678	1	7
580.848	1	2
581.017	1	11
581.187	1	7
581.357	1	-5
581.527	1	0
581.697	1	5
581.867	1	9
582.036	1	-4
582.206	1	11
582.376	1	7
582.546	1	2
582.716	1	-8
582.885	1	-6
583.055	1	3
583.225	1	3
583.395	1	8
583.565	1	3
583.735	1	10
583.904	1	1
584.074	1	-3
584.244	1	-1
584.414	1	10
584.584	1	4
584.753	1	8
584.923	1	5
585.093	1	3
585.263	1	5
585.433	1	1
585.602	1	4
585.772	1	1
585.942	1	9
586.112	1	0
586.282	1	6
586.451	1	5
586.621	1	-2
586.791	1	1
586.961	1	10
587.131	1	2
587.300	1	12
587.470	1	-3
587.640	1	14
587.810	1	14
587.980	1	4
588.149	1	2
588.319	1	7
588.489	1	5
588.659	1	8
588.829	1	7
588.998	1	8
589.168	1	10
589.338	1	5
589.508	1	5
589.677	1	6
589.847	1	7
590.017	1	-4
590.187	1	3
590.357	1	7
590.526	1	-5
590.696	1	-4
590.866	1	-6
591.036	1	7
591.205	1	8
591.375	1	-8
591.545	1	6
591.715	1	8
591.885	1	13
592.054	1	-1
592.224	1	8
592.394	1	2
592.564	1	13
592.733	1	0
592.903	1	0
593.073	1	12
593.243	1	12
593.412	1	3
593.582	1	12
593.752	1	4
593.922	1	6
594.091	1	-6
594.261	1	6
594.431	1	9
594.601	1	-2
594.771	1	14
594.940	1	10
595.110	1	-1
595.280	1	1
595.450	1	12
595.619	1	12
595.789	1	5
595.959	1	10
596.129	1	0
596.298	1	14
596.468	1	2
596.638	1	0
596.808	1	5
596.977	1	6
597.147	1	-1
597.317	1	-5
597.487	1	5
597.656	1	5
597.826	1	10
597.996	1	11
598.166	1	8
598.335	1	11
598.505	1	12
598.675	1	0
598.844	1	-6
599.014	1	7
599.184	1	0
599.354	1	18
599.523	1	6
599.693	1	13
599.863	1	9
600.033	1	5
600.202	1	12
600.372	1	0
600.542	1	3
600.712	1	8
600.881	1	1
601.051	1	1
601.221	1	3
601.390	1	1
601.560	1	10
601.730	1	18
601.900	1	5
602.069	1	10
602.239	1	13
602.409	1	8
602.578	1	-1
602.748	1	5
602.918	1	0
603.088	1	14
603.257	1	10
603.427	1	3
603.597	1	3
603.767	1	5
603.936	1	4
604.106	1	9
604.276	1	15
604.445	1	12
604.615	1	1
604.785	1	5
604.954	1	16
605.124	1	-2
605.294	1	10
605.464	1	4
605.633	1	7
605.803	1	7
605.973	1	15
606.142	1	9
606.312	1	-4
606.482	1	0
606.652	1	0
606.821	1	11
606.991	1	-3
607.161	1	4
607.330	1	-6
607.500	1	8
607.670	1	8
607.839	1	14
608.009	1	5
608.179	1	0
608.348	1	-2
608.518	1	2
608.688	1	0
608.858	1	4
609.027	1	6
609.197	1	-9
609.367	1	14
609.536	1	6
609.706	1	12
609.876	1	18
610.045	1	9
610.215	1	-1
610.385	1	7
610.554	1	3
610.724	1	3
610.894	1	6
611.063	1	1
611.233	1	13
611.403	1	5
611.572	1	19
611.742	1	11
611.912	1	10
612.081	1	0
612.251	1	8
612.421	1	5
612.590	1	5
612.760	1	10
612.930	1	1
613.099	1	15
613.269	1	-5
613.439	1	7
613.608	1	12
613.778	1	-4
613.948	1	6
614.117	1	12
614.287	1	0
614.457	1	-3
614.626	1	4
614.796	1	6
614.966	1	6
615.135	1	15
615.305	1	20
615.475	1	6
615.644	1	13
615.814	1	-2
615.984	1	2
616.153	1	11
616.323	1	7
616.493	1	18
616.662	1	7
616.832	1	5
617.002	1	5
617.171	1	5
617.341	1	8
617.511	1	9
617.680	1	10
617.850	1	10
618.019	1	3
618.189	1	10
618.359	1	3
618.528	1	10
618.698	1	19
618.868	1	2
619.037	1	17
619.207	1	9
619.377	1	1
619.546	1	4
619.716	1	10
619.885	1	8
620.055	1	12
620.225	1	18
620.394	1	9
620.564	1	16
620.734	1	12
620.903	1	14
621.073	1	1
621.242	1	-4
621.412	1	12
621.582	1	1
621.751	1	10
621.921	1	6
622.091	1	10
622.260	1	6
622.430	1	9
622.599	1	-4
622.769	1	19
622.939	1	7
623.108	1	15
623.278	1	14
623.448	1	14
623.617	1	11
623.787	1	6
623.956	1	15
624.126	1	23
624.296	1	7
624.465	1	3
624.635	1	23
624.804	1	4
624.974	1	20
625.144	1	7
625.313	1	4
625.483	1	16
625.652	1	13
625.822	1	-4
625.992	1	10
626.161	1	17
626.331	1	6
626.501	1	4
626.670	1	4
626.840	1	6
627.009	1	7
627.179	1	11
627.348	1	9
627.518	1	9
627.688	1	6
627.857	1	6
628.027	1	-2
628.196	1	7
628.366	1	-1
628.536	1	8
628.705	1	7
628.875	1	15
629.044	1	5
629.214	1	7
629.384	1	10
629.553	1	4
629.723	1	-5
629.892	1	18
630.062	1	8
630.232	1	9
630.401	1	11
630.571	1	10
630.740	1	5
630.910	1	17
631.079	1	-2
631.249	1	15
631.419	1	3
631.588	1	4
631.758	1	8
631.927	1	7
632.097	1	5
632.266	1	4
632.436	1	13
632.606	1	8
632.775	1	8
632.945	1	20
633.114	1	6
633.284	1	6
633.453	1	4
633.623	1	11
633.793	1	-1
633.962	1	9
634.132	1	17
634.301	1	14
634.471	1	6
634.640	1	1
634.810	1	6
634.979	1	0
635.149	1	9
635.319	1	15
635.488	1	20
635.658	1	11
635.827	1	9
635.997	1	14
636.166	1	6
636.336	1	3
636.505	1	8
636.675	1	19
636.845	1	12
637.014	1	7
637.184	1	4
637.353	1	5
637.523	1	17
637.692	1	17
637.862	1	13
638.031	1	14
638.201	1	13
638.370	1	2
638.540	1	0
638.710	1	12
638.879	1	6
639.049	1	17
639.218	1	12
639.388	1	6
639.557	1	16
639.727	1	5
639.896	1	16
640.066	1	4
640.235	1	11
640.405	1	17
640.574	1	11
640.744	1	16
640.914	1	4
641.083	1	16
641.253	1	12
641.422	1	5
641.592	1	6
641.761	1	10
641.931	1	9
642.100	1	11
642.270	1	10
642.439	1	2
642.609	1	11
642.778	1	11
642.948	1	14
643.117	1	5
643.287	1	7
643.456	1	18
643.626	1	15
643.795	1	11
643.965	1	21
644.134	1	2
644.304	1	11
644.473	1	23
644.643	1	10
644.812	1	23
644.982	1	11
645.151	1	19
645.321	1	4
645.490	1	3
645.660	1	-3
645.829	1	12
645.999	1	5
646.168	1	7
646.338	1	11
646.507	1	6
646.677	1	10
646.846	1	9
647.016	1	16
647.185	1	5
647.355	1	6
647.524	1	11
647.694	1	11
647.863	1	10
648.033	1	0
648.202	1	10
648.372	1	22
648.541	1	8
648.711	1	10
648.880	1	16
649.050	1	7
649.219	1	4
649.389	1	7
649.558	1	8
649.728	1	4
649.897	1	12
650.067	1	12
650.236	1	3
650.406	1	7
650.575	1	9
650.745	1	10
650.914	1	3
651.084	1	9
651.253	1	21
651.423	1	13
651.592	1	11
651.762	1	13
651.931	1	7
652.101	1	11
652.270	1	11
652.440	1	2
652.609	1	10
652.778	1	5
652.948	1	20
653.117	1	1
653.287	1	14
653.456	1	11
653.626	1	9
653.795	1	12
653.965	1	7
654.134	1	11
654.304	1	15
654.473	1	11
654.643	1	3
654.812	1	9
654.982	1	0
655.151	1	7
655.320	1	4
655.490	1	6
655.659	1	0
655.829	1	20
655.998	1	6
656.168	1	7
656.337	1	15
656.507	1	9
656.676	1	13
656.846	1	11
657.015	1	6
657.184	1	10
657.354	1	11
657.523	1	11
657.693	1	9
657.862	1	12
658.032	1	-1
658.201	1	16
658.371	1	5
658.540	1	1
658.709	1	2
658.879	1	1
659.048	1	5
659.218	1	14
659.387	1	4
659.557	1	10
659.726	1	9
659.895	1	7
660.065	1	6
660.234	1	11
660.404	1	11
660.573	1	15
660.743	1	22
660.912	1	9
661.081	1	8
661.251	1	7
661.420	1	10
661.590	1	7
661.759	1	8
661.929	1	6
662.098	1	8
662.267	1	9
662.437	1	12
662.606	1	27
662.776	1	3
662.945	1	-3
663.115	1	15
663.284	1	5
663.453	1	3
663.623	1	8
663.792	1	11
663.962	1	5
664.131	1	4
664.300	1	6
664.470	1	23
664.639	1	3
664.809	1	7
664.978	1	2
665.148	1	12
665.317	1	-7
665.486	1	13
665.656	1	3
665.825	1	12
665.995	1	18
666.164	1	-7
666.333	1	8
666.503	1	7
666.672	1	12
666.842	1	1
667.011	1	12
667.180	1	13
667.350	1	9
667.519	1	12
667.689	1	7
667.858	1	12
668.027	1	13
668.197	1	8
668.366	1	14
668.536	1	5
668.705	1	10
668.874	1	10
669.044	1	11
669.213	1	10
669.382	1	9
669.552	1	9
669.721	1	13
669.891	1	14
670.060	1	14
670.229	1	10
670.399	1	13
670.568	1	2
670.738	1	-1
670.907	1	11
671.076	1	14
671.246	1	15
671.415	1	9
671.584	1	7
671.754	1	13
671.923	1	4
672.093	1	12
672.262	1	15
672.431	1	-1
672.601	1	1
672.770	1	3
672.939	1	13
673.109	1	20
673.278	1	14
673.448	1	7
673.617	1	1
673.786	1	2
