325.333	1	9
325.504	1	15
325.675	1	13
325.846	1	10
326.017	1	16
326.188	1	14
326.359	1	2
326.531	1	6
326.702	1	5
326.873	1	14
327.044	1	18
327.215	1	12
327.386	1	6
327.557	1	8
327.728	1	13
327.899	1	32
328.070	1	20
328.241	1	14
328.412	1	17
328.583	1	11
328.754	1	6
328.926	1	16
329.097	1	1
329.268	1	12
329.439	1	11
329.610	1	24
329.781	1	13
329.952	1	22
330.123	1	9
330.294	1	-3
330.465	1	15
330.636	1	19
330.807	1	0
330.978	1	16
331.149	1	35
331.320	1	16
331.492	1	17
331.663	1	23
331.834	1	11
332.005	1	7
332.176	1	-3
332.347	1	21
332.518	1	14
332.689	1	9
332.860	1	7
333.031	1	18
333.202	1	6
333.373	1	13
333.544	1	14
333.715	1	12
333.886	1	19
334.057	1	12
334.228	1	16
334.399	1	21
334.570	1	14
334.741	1	12
334.912	1	18
335.084	1	14
335.255	1	13
335.426	1	6
335.597	1	24
335.768	1	22
335.939	1	18
336.110	1	19
336.281	1	15
336.452	1	14
336.623	1	19
336.794	1	15
336.965	1	5
337.136	1	8
337.307	1	15
337.478	1	14
337.649	1	10
337.820	1	19
337.991	1	19
338.162	1	10
338.333	1	12
338.504	1	11
338.675	1	11
338.846	1	18
339.017	1	20
339.188	1	8
339.359	1	22
339.530	1	17
339.701	1	21
339.872	1	27
340.043	1	3
340.214	1	13
340.385	1	18
340.556	1	20
340.727	1	26
340.898	1	18
341.069	1	20
341.240	1	20
341.411	1	16
341.582	1	31
341.753	1	22
341.924	1	13
342.095	1	10
342.266	1	27
342.437	1	16
342.608	1	22
342.779	1	12
342.950	1	19
343.121	1	15
343.292	1	14
343.463	1	15
343.634	1	10
343.805	1	22
343.976	1	15
344.147	1	25
344.318	1	6
344.489	1	19
344.660	1	27
344.831	1	16
345.002	1	17
345.173	1	13
345.344	1	23
345.515	1	5
345.686	1	19
345.857	1	18
346.028	1	16
346.199	1	14
346.370	1	11
346.541	1	15
346.712	1	29
346.883	1	17
347.054	1	35
347.225	1	32
347.396	1	12
347.567	1	24
347.738	1	8
347.909	1	11
348.080	1	26
348.251	1	22
348.422	1	24
348.593	1	8
348.764	1	29
348.935	1	8
349.106	1	13
349.277	1	19
349.448	1	13
349.619	1	17
349.790	1	24
349.961	1	19
350.132	1	24
350.303	1	26
350.474	1	9
350.645	1	26
350.816	1	12
350.987	1	17
351.157	1	26
351.328	1	32
351.499	1	27
351.670	1	22
351.841	1	26
352.012	1	32
352.183	1	15
352.354	1	17
352.525	1	18
352.696	1	29
352.867	1	15
353.038	1	5
353.209	1	13
353.380	1	14
353.551	1	8
353.722	1	23
353.893	1	22
354.064	1	24
354.235	1	25
354.406	1	16
354.576	1	22
354.747	1	22
354.918	1	22
355.089	1	20
355.260	1	22
355.431	1	26
355.602	1	22
355.773	1	32
355.944	1	14
356.115	1	35
356.286	1	28
356.457	1	20
356.628	1	20
356.799	1	25
356.970	1	25
357.141	1	15
357.311	1	22
357.482	1	29
357.653	1	21
357.824	1	17
357.995	1	27
358.166	1	11
358.337	1	22
358.508	1	18
358.679	1	28
358.850	1	21
359.021	1	15
359.192	1	25
359.363	1	28
359.533	1	20
359.704	1	35
359.875	1	22
360.046	1	36
360.217	1	15
360.388	1	21
360.559	1	24
360.730	1	25
360.901	1	10
361.072	1	16
361.243	1	21
361.414	1	18
361.584	1	18
361.755	1	15
361.926	1	28
362.097	1	20
362.268	1	21
362.439	1	17
362.610	1	20
362.781	1	17
362.952	1	24
363.123	1	27
363.293	1	16
363.464	1	26
363.635	1	25
363.806	1	22
363.977	1	15
364.148	1	22
364.319	1	19
364.490	1	31
364.661	1	19
364.832	1	36
365.002	1	33
365.173	1	13
365.344	1	27
365.515	1	5
365.686	1	17
365.857	1	16
366.028	1	27
366.199	1	25
366.370	1	28
366.540	1	21
366.711	1	8
366.882	1	12
367.053	1	21
367.224	1	18
367.395	1	22
367.566	1	8
367.737	1	25
367.908	1	20
368.078	1	35
368.249	1	28
368.420	1	24
368.591	1	29
368.762	1	13
368.933	1	6
369.104	1	29
369.274	1	6
369.445	1	19
369.616	1	24
369.787	1	27
369.958	1	27
370.129	1	18
370.300	1	18
370.471	1	22
370.641	1	27
370.812	1	22
370.983	1	17
371.154	1	18
371.325	1	23
371.496	1	13
371.667	1	24
371.837	1	27
372.008	1	9
372.179	1	14
372.350	1	16
372.521	1	28
372.692	1	11
372.863	1	18
373.033	1	28
373.204	1	19
373.375	1	26
373.546	1	40
373.717	1	21
373.888	1	21
374.059	1	22
374.229	1	17
374.400	1	18
374.571	1	15
374.742	1	24
374.913	1	18
375.084	1	29
375.254	1	23
375.425	1	25
375.596	1	28
375.767	1	32
375.938	1	27
376.109	1	22
376.279	1	22
376.450	1	25
376.621	1	22
376.792	1	16
376.963	1	21
377.134	1	30
377.304	1	31
377.475	1	31
377.646	1	19
377.817	1	15
377.988	1	29
378.159	1	24
378.329	1	31
378.500	1	41
378.671	1	25
378.842	1	28
379.013	1	43
379.184	1	18
379.354	1	21
379.525	1	21
379.696	1	31
379.867	1	22
380.038	1	33
380.209	1	24
380.379	1	39
380.550	1	27
380.721	1	17
380.892	1	30
381.063	1	22
381.233	1	30
381.404	1	36
381.575	1	22
381.746	1	39
381.917	1	36
382.087	1	39
382.258	1	51
382.429	1	23
382.600	1	37
382.771	1	38
382.941	1	27
383.112	1	20
383.283	1	40
383.454	1	30
383.625	1	15
383.795	1	32
383.966	1	31
384.137	1	32
384.308	1	36
384.479	1	39
384.649	1	31
384.820	1	28
384.991	1	26
385.162	1	33
385.333	1	37
385.503	1	34
385.674	1	16
385.845	1	43
386.016	1	34
386.187	1	36
386.357	1	32
386.528	1	25
386.699	1	36
386.870	1	33
387.041	1	43
387.211	1	31
387.382	1	28
387.553	1	31
387.724	1	40
387.894	1	37
388.065	1	27
388.236	1	37
388.407	1	27
388.578	1	34
388.748	1	33
388.919	1	34
389.090	1	42
389.261	1	39
389.431	1	36
389.602	1	38
389.773	1	55
389.944	1	47
390.114	1	55
390.285	1	28
390.456	1	35
390.627	1	40
390.798	1	35
390.968	1	40
391.139	1	31
391.310	1	38
391.481	1	48
391.651	1	44
391.822	1	45
391.993	1	31
392.164	1	43
392.334	1	27
392.505	1	42
392.676	1	45
392.847	1	46
393.017	1	36
393.188	1	43
393.359	1	39
393.530	1	33
393.700	1	31
393.871	1	37
394.042	1	40
394.213	1	30
394.383	1	39
394.554	1	43
394.725	1	46
394.896	1	34
395.066	1	47
395.237	1	41
395.408	1	40
395.579	1	24
395.749	1	26
395.920	1	34
396.091	1	46
396.262	1	24
396.432	1	49
396.603	1	42
396.774	1	42
396.945	1	32
397.115	1	34
397.286	1	35
397.457	1	40
397.627	1	30
397.798	1	35
397.969	1	38
398.140	1	45
398.310	1	43
398.481	1	37
398.652	1	28
398.823	1	35
398.993	1	47
399.164	1	42
399.335	1	45
399.505	1	32
399.676	1	45
399.847	1	45
400.018	1	58
400.188	1	40
400.359	1	42
400.530	1	38
400.700	1	39
400.871	1	35
401.042	1	42
401.213	1	37
401.383	1	40
401.554	1	38
401.725	1	47
401.895	1	45
402.066	1	33
402.237	1	50
402.408	1	49
402.578	1	41
402.749	1	45
402.920	1	37
403.090	1	47
403.261	1	58
403.432	1	41
403.603	1	44
403.773	1	47
403.944	1	39
404.115	1	39
404.285	1	48
404.456	1	37
404.627	1	48
404.797	1	44
404.968	1	53
405.139	1	44
405.310	1	52
405.480	1	45
405.651	1	37
405.822	1	44
405.992	1	33
406.163	1	48
406.334	1	57
406.504	1	45
406.675	1	65
406.846	1	48
407.016	1	55
407.187	1	46
407.358	1	39
407.528	1	37
407.699	1	32
407.870	1	59
408.041	1	43
408.211	1	38
408.382	1	48
408.553	1	55
408.723	1	46
408.894	1	43
409.065	1	36
409.235	1	53
409.406	1	43
409.577	1	41
409.747	1	43
409.918	1	50
410.089	1	55
410.259	1	43
410.430	1	49
410.601	1	52
410.771	1	52
410.942	1	45
411.113	1	47
411.283	1	47
411.454	1	62
411.625	1	51
411.795	1	41
411.966	1	70
412.137	1	59
412.307	1	41
412.478	1	43
412.649	1	54
412.819	1	44
412.990	1	49
413.161	1	58
413.331	1	52
413.502	1	60
413.672	1	53
413.843	1	45
414.014	1	58
414.184	1	54
414.355	1	54
414.526	1	55
414.696	1	55
414.867	1	52
415.038	1	59
415.208	1	45
415.379	1	61
415.550	1	62
415.720	1	42
415.891	1	61
416.062	1	40
416.232	1	43
416.403	1	56
416.573	1	55
416.744	1	56
416.915	1	57
417.085	1	50
417.256	1	38
417.427	1	49
417.597	1	50
417.768	1	58
417.939	1	49
418.109	1	58
418.280	1	46
418.450	1	66
418.621	1	42
418.792	1	49
418.962	1	45
419.133	1	49
419.304	1	38
419.474	1	45
419.645	1	52
419.815	1	47
419.986	1	50
420.157	1	48
420.327	1	40
420.498	1	49
420.669	1	52
420.839	1	47
421.010	1	48
421.180	1	42
421.351	1	53
421.522	1	47
421.692	1	49
421.863	1	54
422.033	1	47
422.204	1	47
422.375	1	41
422.545	1	50
422.716	1	50
422.886	1	38
423.057	1	44
423.228	1	55
423.398	1	60
423.569	1	44
423.740	1	55
423.910	1	50
424.081	1	54
424.251	1	44
424.422	1	49
424.593	1	38
424.763	1	53
424.934	1	48
425.104	1	49
425.275	1	61
425.445	1	45
425.616	1	51
425.787	1	45
425.957	1	42
426.128	1	47
426.298	1	63
426.469	1	48
426.640	1	60
426.810	1	64
426.981	1	45
427.151	1	54
427.322	1	53
427.493	1	57
427.663	1	64
427.834	1	52
428.004	1	37
428.175	1	56
428.345	1	36
428.516	1	49
428.687	1	51
428.857	1	49
429.028	1	51
429.198	1	64
429.369	1	53
429.540	1	49
429.710	1	45
429.881	1	45
430.051	1	54
430.222	1	40
430.392	1	35
430.563	1	49
430.734	1	52
430.904	1	54
431.075	1	52
431.245	1	51
431.416	1	45
431.586	1	42
431.757	1	42
431.927	1	59
432.098	1	40
432.269	1	42
432.439	1	52
432.610	1	65
432.780	1	45
432.951	1	52
433.121	1	40
433.292	1	40
433.462	1	40
433.633	1	41
433.804	1	41
433.974	1	42
434.145	1	47
434.315	1	39
434.486	1	48
434.656	1	47
434.827	1	34
434.997	1	41
435.168	1	50
435.339	1	50
435.509	1	43
435.680	1	48
435.850	1	47
436.021	1	55
436.191	1	46
436.362	1	51
436.532	1	53
436.703	1	47
436.873	1	49
437.044	1	37
437.214	1	46
437.385	1	60
437.556	1	39
437.726	1	43
437.897	1	35
438.067	1	39
438.238	1	35
438.408	1	52
438.579	1	51
438.749	1	40
438.920	1	59
439.090	1	54
439.261	1	54
439.431	1	47
439.602	1	36
439.772	1	47
439.943	1	49
440.113	1	48
440.284	1	46
440.455	1	35
440.625	1	65
440.796	1	54
440.966	1	39
441.137	1	41
441.307	1	44
441.478	1	50
441.648	1	44
441.819	1	55
441.989	1	52
442.160	1	42
442.330	1	46
442.501	1	40
442.671	1	42
442.842	1	49
443.012	1	39
443.183	1	51
443.353	1	52
443.524	1	32
443.694	1	44
443.865	1	52
444.035	1	36
444.206	1	53
444.376	1	40
444.547	1	52
444.717	1	35
444.888	1	41
445.058	1	45
445.229	1	45
445.399	1	38
445.570	1	32
445.740	1	39
445.911	1	46
446.081	1	46
446.252	1	50
446.422	1	36
446.593	1	36
446.763	1	31
446.934	1	43
447.104	1	51
447.275	1	45
447.445	1	38
447.616	1	49
447.786	1	40
447.957	1	40
448.127	1	39
448.298	1	43
448.468	1	39
448.639	1	38
448.809	1	47
448.979	1	33
449.150	1	32
449.320	1	41
449.491	1	45
449.661	1	53
449.832	1	29
450.002	1	47
450.173	1	36
450.343	1	43
450.514	1	47
450.684	1	40
450.855	1	42
451.025	1	35
451.196	1	45
451.366	1	42
451.537	1	36
451.707	1	43
451.878	1	28
452.048	1	44
452.218	1	35
452.389	1	44
452.559	1	41
452.730	1	31
452.900	1	27
453.071	1	41
453.241	1	54
453.412	1	45
453.582	1	40
453.753	1	36
453.923	1	54
454.093	1	45
454.264	1	43
454.434	1	50
454.605	1	46
454.775	1	51
454.946	1	51
455.116	1	39
455.287	1	32
455.457	1	41
455.628	1	41
455.798	1	37
455.968	1	43
456.139	1	27
456.309	1	26
456.480	1	36
456.650	1	41
456.821	1	54
456.991	1	30
457.161	1	45
457.332	1	35
457.502	1	37
457.673	1	28
457.843	1	44
458.014	1	38
458.184	1	28
458.355	1	23
458.525	1	32
458.695	1	40
458.866	1	31
459.036	1	27
459.207	1	29
459.377	1	43
459.548	1	32
459.718	1	42
459.888	1	51
460.059	1	39
460.229	1	30
460.400	1	40
460.570	1	32
460.740	1	28
460.911	1	30
461.081	1	33
461.252	1	47
461.422	1	37
461.593	1	25
461.763	1	37
461.933	1	37
462.104	1	39
462.274	1	42
462.445	1	18
462.615	1	30
462.785	1	26
462.956	1	36
463.126	1	28
463.297	1	37
463.467	1	51
463.638	1	25
463.808	1	28
463.978	1	38
464.149	1	33
464.319	1	24
464.490	1	40
464.660	1	30
464.830	1	23
465.001	1	38
465.171	1	36
465.342	1	35
465.512	1	30
465.682	1	37
465.853	1	37
466.023	1	34
466.194	1	33
466.364	1	43
466.534	1	38
466.705	1	42
466.875	1	39
467.045	1	19
467.216	1	27
467.386	1	29
467.557	1	18
467.727	1	22
467.897	1	28
468.068	1	28
468.238	1	34
468.409	1	31
468.579	1	21
468.749	1	32
468.920	1	26
469.090	1	32
469.260	1	24
469.431	1	32
469.601	1	31
469.772	1	33
469.942	1	41
470.112	1	37
470.283	1	26
470.453	1	30
470.623	1	31
470.794	1	28
470.964	1	14
471.135	1	37
471.305	1	27
471.475	1	17
471.646	1	34
471.816	1	29
471.986	1	15
472.157	1	25
472.327	1	34
472.497	1	19
472.668	1	17
472.838	1	26
473.009	1	41
473.179	1	13
473.349	1	39
473.520	1	32
473.690	1	29
473.860	1	35
474.031	1	25
474.201	1	24
474.371	1	28
474.542	1	28
474.712	1	22
474.882	1	41
475.053	1	24
475.223	1	37
475.394	1	26
475.564	1	10
475.734	1	28
475.905	1	24
476.075	1	17
476.245	1	35
476.416	1	18
476.586	1	27
476.756	1	31
476.927	1	31
477.097	1	32
477.267	1	27
477.438	1	7
477.608	1	25
477.778	1	22
477.949	1	18
478.119	1	22
478.289	1	29
478.460	1	25
478.630	1	19
478.800	1	17
478.971	1	21
479.141	1	15
479.311	1	14
479.482	1	22
479.652	1	9
479.822	1	20
479.993	1	19
480.163	1	12
480.333	1	30
480.504	1	24
480.674	1	19
480.844	1	24
481.015	1	24
481.185	1	29
481.355	1	22
481.525	1	21
481.696	1	26
481.866	1	17
482.036	1	13
482.207	1	28
482.377	1	25
482.547	1	31
482.718	1	22
482.888	1	21
483.058	1	26
483.229	1	17
483.399	1	26
483.569	1	21
483.740	1	21
483.910	1	20
484.080	1	26
484.250	1	22
484.421	1	25
484.591	1	23
484.761	1	14
484.932	1	35
485.102	1	19
485.272	1	24
485.443	1	33
485.613	1	24
485.783	1	10
485.953	1	20
486.124	1	5
486.294	1	24
486.464	1	15
486.635	1	14
486.805	1	10
486.975	1	20
487.146	1	19
487.316	1	24
487.486	1	14
487.656	1	13
487.827	1	25
487.997	1	19
488.167	1	22
488.338	1	8
488.508	1	9
488.678	1	21
488.848	1	19
489.019	1	21
489.189	1	14
489.359	1	7
489.529	1	18
489.700	1	15
489.870	1	4
490.040	1	17
490.211	1	26
490.381	1	14
490.551	1	1
490.721	1	17
490.892	1	31
491.062	1	14
491.232	1	12
491.402	1	22
491.573	1	18
491.743	1	15
491.913	1	9
492.084	1	11
492.254	1	26
492.424	1	10
492.594	1	23
492.765	1	13
492.935	1	23
493.105	1	28
493.275	1	7
493.446	1	15
493.616	1	11
493.786	1	16
493.956	1	21
494.127	1	7
494.297	1	18
494.467	1	24
494.637	1	18
494.808	1	-1
494.978	1	13
495.148	1	27
495.318	1	9
495.489	1	13
495.659	1	25
495.829	1	14
495.999	1	13
496.170	1	18
496.340	1	27
496.510	1	10
496.680	1	21
496.851	1	5
497.021	1	7
497.191	1	19
497.361	1	17
497.532	1	7
497.702	1	18
497.872	1	11
498.042	1	19
498.213	1	8
498.383	1	17
498.553	1	23
498.723	1	1
498.894	1	26
499.064	1	9
499.234	1	17
499.404	1	21
499.574	1	13
499.745	1	17
499.915	1	6
500.085	1	8
500.255	1	16
500.426	1	12
500.596	1	19
500.766	1	8
500.936	1	15
501.106	1	22
501.277	1	15
501.447	1	9
501.617	1	10
501.787	1	14
501.958	1	14
502.128	1	26
502.298	1	14
502.468	1	16
502.638	1	13
502.809	1	8
502.979	1	5
503.149	1	5
503.319	1	15
503.489	1	20
503.660	1	23
503.830	1	20
504.000	1	10
504.170	1	5
504.340	1	18
504.511	1	13
504.681	1	23
504.851	1	22
505.021	1	16
505.192	1	7
505.362	1	11
505.532	1	12
505.702	1	7
505.872	1	12
506.043	1	9
506.213	1	25
506.383	1	25
506.553	1	20
506.723	1	18
506.893	1	7
507.064	1	15
507.234	1	6
507.404	1	26
507.574	1	12
507.744	1	11
507.915	1	8
508.085	1	-3
508.255	1	8
508.425	1	1
508.595	1	14
508.766	1	13
508.936	1	29
509.106	1	8
509.276	1	14
509.446	1	12
509.616	1	7
509.787	1	7
509.957	1	6
510.127	1	14
510.297	1	12
510.467	1	6
510.638	1	10
510.808	1	8
510.978	1	13
511.148	1	17
511.318	1	13
511.488	1	14
511.659	1	22
511.829	1	20
511.999	1	10
512.169	1	3
512.339	1	13
512.509	1	10
512.680	1	2
512.850	1	14
513.020	1	15
513.190	1	15
513.360	1	10
513.530	1	9
513.700	1	9
513.871	1	15
514.041	1	12
514.211	1	8
514.381	1	19
514.551	1	0
514.721	1	5
514.892	1	19
515.062	1	15
515.232	1	17
515.402	1	12
515.572	1	13
515.742	1	15
515.912	1	8
516.083	1	12
516.253	1	13
516.423	1	6
516.593	1	6
516.763	1	15
516.933	1	14
517.104	1	16
517.274	1	18
517.444	1	11
517.614	1	7
517.784	1	16
517.954	1	10
518.124	1	9
518.294	1	12
518.465	1	9
518.635	1	8
518.805	1	14
518.975	1	1
519.145	1	12
519.315	1	7
519.485	1	5
519.656	1	2
519.826	1	5
519.996	1	12
520.166	1	9
520.336	1	3
520.506	1	14
520.676	1	26
520.846	1	8
521.017	1	7
521.187	1	5
521.357	1	8
521.527	1	4
521.697	1	8
521.867	1	6
522.037	1	10
522.207	1	13
522.377	1	11
522.548	1	6
522.718	1	8
522.888	1	16
523.058	1	15
523.228	1	11
523.398	1	8
523.568	1	14
523.738	1	12
523.909	1	6
524.079	1	5
524.249	1	5
524.419	1	13
524.589	1	10
524.759	1	7
524.929	1	2
525.099	1	5
525.269	1	-5
525.439	1	18
525.610	1	2
525.780	1	6
525.950	1	23
526.120	1	4
526.290	1	4
526.460	1	16
526.630	1	10
526.800	1	12
526.970	1	22
527.140	1	17
527.311	1	26
527.481	1	-3
527.651	1	11
527.821	1	2
527.991	1	-2
528.161	1	5
528.331	1	11
528.501	1	2
528.671	1	11
528.841	1	18
529.011	1	13
529.181	1	6
529.352	1	13
529.522	1	16
529.692	1	2
529.862	1	12
530.032	1	5
530.202	1	17
530.372	1	14
530.542	1	2
530.712	1	31
530.882	1	11
531.052	1	4
531.222	1	16
531.392	1	8
531.563	1	1
531.733	1	4
531.903	1	20
532.073	1	9
532.243	1	13
532.413	1	1
532.583	1	14
532.753	1	12
532.923	1	6
533.093	1	12
533.263	1	5
533.433	1	7
533.603	1	7
533.773	1	9
533.943	1	14
534.113	1	14
534.284	1	-5
534.454	1	10
534.624	1	17
534.794	1	17
534.964	1	4
535.134	1	9
535.304	1	16
535.474	1	10
535.644	1	12
535.814	1	9
535.984	1	14
536.154	1	2
536.324	1	7
536.494	1	6
536.664	1	5
536.834	1	7
537.004	1	10
537.174	1	6
537.344	1	12
537.514	1	13
537.685	1	7
537.855	1	9
538.025	1	6
538.195	1	15
538.365	1	17
538.535	1	2
538.705	1	4
538.875	1	8
539.045	1	1
539.215	1	16
539.385	1	6
539.555	1	10
539.725	1	13
539.895	1	5
540.065	1	11
540.235	1	13
540.405	1	-5
540.575	1	12
540.745	1	7
540.915	1	10
541.085	1	-1
541.255	1	23
541.425	1	1
541.595	1	10
541.765	1	9
541.935	1	5
542.105	1	-1
542.275	1	7
542.445	1	1
542.615	1	15
542.785	1	8
542.955	1	6
543.125	1	7
543.295	1	16
543.465	1	2
543.635	1	4
543.805	1	1
543.975	1	0
544.145	1	9
544.315	1	-5
544.485	1	13
544.655	1	6
544.825	1	12
544.995	1	13
545.165	1	5
545.335	1	1
545.505	1	1
545.675	1	-9
545.845	1	13
546.015	1	1
546.185	1	9
546.355	1	0
546.525	1	-1
546.695	1	1
546.865	1	16
547.035	1	-2
547.205	1	14
547.375	1	-5
547.545	1	-2
547.715	1	8
547.885	1	-3
548.055	1	8
548.225	1	21
548.395	1	10
548.565	1	7
548.735	1	2
548.905	1	2
549.075	1	4
549.245	1	17
549.415	1	1
549.585	1	5
549.755	1	14
549.925	1	-2
550.095	1	4
550.265	1	11
550.435	1	8
550.605	1	7
550.775	1	9
550.945	1	3
551.115	1	16
551.285	1	0
551.455	1	9
551.625	1	8
551.795	1	-1
551.965	1	5
552.135	1	8
552.305	1	9
552.475	1	5
552.645	1	5
552.815	1	6
552.985	1	13
553.155	1	14
553.325	1	1
553.495	1	3
553.665	1	9
553.835	1	10
554.004	1	13
554.174	1	10
554.344	1	15
554.514	1	7
554.684	1	6
554.854	1	8
555.024	1	0
555.194	1	1
555.364	1	11
555.534	1	0
555.704	1	6
555.874	1	9
556.044	1	6
556.214	1	18
556.384	1	11
556.554	1	3
556.724	1	7
556.894	1	10
557.064	1	5
557.234	1	-1
557.404	1	11
557.573	1	-2
557.743	1	4
557.913	1	12
558.083	1	4
558.253	1	5
558.423	1	4
558.593	1	7
558.763	1	8
558.933	1	8
559.103	1	13
559.273	1	8
559.443	1	11
559.613	1	3
559.783	1	2
559.953	1	0
560.122	1	3
560.292	1	12
560.462	1	6
560.632	1	3
560.802	1	12
560.972	1	-3
561.142	1	2
561.312	1	10
561.482	1	7
561.652	1	7
561.822	1	-1
561.992	1	1
562.162	1	9
562.331	1	5
562.501	1	4
562.671	1	15
562.841	1	-4
563.011	1	7
563.181	1	8
563.351	1	10
563.521	1	1
563.691	1	2
563.861	1	3
564.031	1	2
564.201	1	8
564.370	1	6
564.540	1	17
564.710	1	5
564.880	1	7
565.050	1	13
565.220	1	9
565.390	1	1
565.560	1	13
565.730	1	9
565.900	1	3
566.069	1	9
566.239	1	4
566.409	1	-5
566.579	1	3
566.749	1	3
566.919	1	1
567.089	1	6
567.259	1	-2
567.429	1	4
567.599	1	10
567.768	1	10
567.938	1	2
568.108	1	9
568.278	1	11
568.448	1	3
568.618	1	3
568.788	1	11
568.958	1	1
569.128	1	5
569.297	1	-3
569.467	1	1
569.637	1	8
569.807	1	7
569.977	1	1
570.147	1	2
570.317	1	1
570.487	1	1
570.656	1	0
570.826	1	1
570.996	1	-3
571.166	1	6
571.336	1	0
571.506	1	1
571.676	1	12
571.846	1	8
572.015	1	3
572.185	1	14
572.355	1	5
572.525	1	-6
572.695	1	-9
572.865	1	-1
573.035	1	6
573.205	1	10
573.374	1	4
573.544	1	9
573.714	1	-3
573.884	1	11
574.054	1	9
574.224	1	12
574.394	1	-3
574.563	1	13
574.733	1	1
574.903	1	10
575.073	1	3
575.243	1	2
575.413	1	0
575.583	1	11
575.752	1	-2
575.922	1	-4
576.092	1	-1
576.262	1	3
576.432	1	6
576.602	1	-7
576.772	1	12
576.941	1	12
577.111	1	5
577.281	1	3
577.451	1	3
577.621	1	6
577.791	1	1
577.960	1	0
578.130	1	0
578.300	1	-4
578.470	1	-4
578.640	1	13
578.810	1	2
578.979	1	1
579.149	1	2
579.319	1	0
579.489	1	-6
579.659	1	-2
579.829	1	11
579.998	1	5
580.168	1	4
580.338	1	11
580.508	1	13
580.678	1	8
580.848	1	11
581.017	1	13
581.187	1	10
581.357	1	-6
581.527	1	0
581.697	1	3
581.867	1	6
582.036	1	-3
582.206	1	15
582.376	1	2
582.546	1	1
582.716	1	0
582.885	1	-3
583.055	1	-2
583.225	1	2
583.395	1	7
583.565	1	5
583.735	1	12
583.904	1	6
584.074	1	-11
584.244	1	-1
584.414	1	7
584.584	1	6
584.753	1	3
584.923	1	6
585.093	1	4
585.263	1	6
585.433	1	2
585.602	1	3
585.772	1	5
585.942	1	20
586.112	1	0
586.282	1	9
586.451	1	10
586.621	1	3
586.791	1	8
586.961	1	0
587.131	1	6
587.300	1	-2
587.470	1	3
587.640	1	13
587.810	1	18
587.980	1	-1
588.149	1	4
588.319	1	5
588.489	1	-3
588.659	1	5
588.829	1	12
588.998	1	9
589.168	1	7
589.338	1	10
589.508	1	6
589.677	1	13
589.847	1	14
590.017	1	4
590.187	1	11
590.357	1	10
590.526	1	5
590.696	1	-10
590.866	1	1
591.036	1	13
591.205	1	13
591.375	1	1
591.545	1	12
591.715	1	2
591.885	1	1
592.054	1	6
592.224	1	0
592.394	1	0
592.564	1	0
592.733	1	-1
592.903	1	6
593.073	1	8
593.243	1	16
593.412	1	6
593.582	1	6
593.752	1	4
593.922	1	-1
594.091	1	0
594.261	1	1
594.431	1	1
594.601	1	0
594.771	1	11
594.940	1	11
595.110	1	10
595.280	1	3
595.450	1	9
595.619	1	12
595.789	1	4
595.959	1	17
596.129	1	6
596.298	1	12
596.468	1	2
596.638	1	5
596.808	1	8
596.977	1	9
597.147	1	-1
597.317	1	-4
597.487	1	2
597.656	1	3
597.826	1	11
597.996	1	4
598.166	1	1
598.335	1	5
598.505	1	9
598.675	1	5
598.844	1	0
599.014	1	13
599.184	1	5
599.354	1	8
599.523	1	10
599.693	1	9
599.863	1	8
600.033	1	11
600.202	1	17
600.372	1	2
600.542	1	1
600.712	1	-2
600.881	1	-1
601.051	1	12
601.221	1	16
601.390	1	-3
601.560	1	11
601.730	1	8
601.900	1	9
602.069	1	5
602.239	1	4
602.409	1	7
602.578	1	2
602.748	1	5
602.918	1	3
603.088	1	10
603.257	1	10
603.427	1	7
603.597	1	7
603.767	1	6
603.936	1	6
604.106	1	6
604.276	1	20
604.445	1	14
604.615	1	9
604.785	1	11
604.954	1	9
605.124	1	1
605.294	1	5
605.464	1	8
605.633	1	9
605.803	1	3
605.973	1	3
606.142	1	3
606.312	1	5
606.482	1	10
606.652	1	11
606.821	1	-1
606.991	1	0
607.161	1	-2
607.330	1	1
607.500	1	14
607.670	1	16
607.839	1	14
608.009	1	6
608.179	1	8
608.348	1	10
608.518	1	10
608.688	1	9
608.858	1	21
609.027	1	11
609.197	1	-4
609.367	1	14
609.536	1	4
609.706	1	2
609.876	1	13
610.045	1	0
610.215	1	11
610.385	1	-2
610.554	1	6
610.724	1	0
610.894	1	16
611.063	1	7
611.233	1	11
611.403	1	7
611.572	1	5
611.742	1	5
611.912	1	8
612.081	1	0
612.251	1	16
612.421	1	6
612.590	1	11
612.760	1	15
612.930	1	-1
613.099	1	13
613.269	1	-3
613.439	1	2
613.608	1	18
613.778	1	4
613.948	1	6
614.117	1	18
614.287	1	5
614.457	1	3
614.626	1	13
614.796	1	11
614.966	1	9
615.135	1	15
615.305	1	18
615.475	1	5
615.644	1	12
615.814	1	3
615.984	1	2
616.153	1	15
616.323	1	11
616.493	1	18
616.662	1	6
616.832	1	6
617.002	1	11
617.171	1	8
617.341	1	7
617.511	1	6
617.680	1	11
617.850	1	13
618.019	1	4
618.189	1	10
618.359	1	7
618.528	1	15
618.698	1	18
618.868	1	5
619.037	1	16
619.207	1	7
619.377	1	6
619.546	1	1
619.716	1	3
619.885	1	5
620.055	1	12
620.225	1	12
620.394	1	19
620.564	1	18
620.734	1	14
620.903	1	8
621.073	1	5
621.242	1	11
621.412	1	13
621.582	1	12
621.751	1	8
621.921	1	1
622.091	1	8
622.260	1	5
622.430	1	1
622.599	1	-7
622.769	1	6
622.939	1	9
623.108	1	12
623.278	1	19
623.448	1	19
623.617	1	7
623.787	1	9
623.956	1	15
624.126	1	13
624.296	1	1
624.465	1	9
624.635	1	10
624.804	1	1
624.974	1	12
625.144	1	10
625.313	1	-2
625.483	1	21
625.652	1	5
625.822	1	-3
625.992	1	10
626.161	1	21
626.331	1	0
626.501	1	13
626.670	1	15
626.840	1	14
627.009	1	18
627.179	1	13
627.348	1	14
627.518	1	12
627.688	1	2
627.857	1	11
628.027	1	0
628.196	1	14
628.366	1	15
628.536	1	5
628.705	1	13
628.875	1	25
629.044	1	16
629.214	1	11
629.384	1	9
629.553	1	14
629.723	1	-1
629.892	1	28
630.062	1	13
630.232	1	3
630.401	1	14
630.571	1	13
630.740	1	16
630.910	1	16
631.079	1	4
631.249	1	13
631.419	1	6
631.588	1	5
631.758	1	8
631.927	1	8
632.097	1	10
632.266	1	11
632.436	1	15
632.606	1	6
632.775	1	21
632.945	1	17
633.114	1	2
633.284	1	-3
633.453	1	11
633.623	1	13
633.793	1	4
633.962	1	5
634.132	1	8
634.301	1	5
634.471	1	8
634.640	1	4
634.810	1	15
634.979	1	16
635.149	1	13
635.319	1	16
635.488	1	15
635.658	1	22
635.827	1	12
635.997	1	11
636.166	1	7
636.336	1	4
636.505	1	11
636.675	1	14
636.845	1	13
637.014	1	13
637.184	1	9
637.353	1	8
637.523	1	16
637.692	1	9
637.862	1	10
638.031	1	22
638.201	1	14
638.370	1	13
638.540	1	3
638.710	1	19
638.879	1	12
639.049	1	14
639.218	1	22
639.388	1	9
639.557	1	15
639.727	1	14
639.896	1	15
640.066	1	16
640.235	1	22
640.405	1	12
640.574	1	7
640.744	1	12
640.914	1	16
641.083	1	14
641.253	1	27
641.422	1	5
641.592	1	13
641.761	1	12
641.931	1	8
642.100	1	4
642.270	1	11
642.439	1	5
642.609	1	20
642.778	1	10
642.948	1	11
643.117	1	27
643.287	1	16
643.456	1	11
643.626	1	17
643.795	1	11
643.965	1	15
644.134	1	5
644.304	1	12
644.473	1	17
644.643	1	15
644.812	1	16
644.982	1	18
645.151	1	16
645.321	1	16
645.490	1	7
645.660	1	7
645.829	1	13
645.999	1	10
646.168	1	7
646.338	1	12
646.507	1	14
646.677	1	16
646.846	1	13
647.016	1	17
647.185	1	10
647.355	1	9
647.524	1	13
647.694	1	10
647.863	1	2
648.033	1	5
648.202	1	9
648.372	1	15
648.541	1	10
648.711	1	21
648.880	1	11
649.050	1	6
649.219	1	12
649.389	1	14
649.558	1	4
649.728	1	11
649.897	1	11
650.067	1	9
650.236	1	18
650.406	1	-1
650.575	1	17
650.745	1	13
650.914	1	12
651.084	1	11
651.253	1	25
651.423	1	14
651.592	1	9
651.762	1	16
651.931	1	6
652.101	1	8
652.270	1	11
652.440	1	4
652.609	1	6
652.778	1	3
652.948	1	8
653.117	1	14
653.287	1	26
653.456	1	20
653.626	1	12
653.795	1	16
653.965	1	5
654.134	1	10
654.304	1	2
654.473	1	21
654.643	1	13
654.812	1	15
654.982	1	7
655.151	1	4
655.320	1	16
655.490	1	13
655.659	1	1
655.829	1	16
655.998	1	9
656.168	1	2
656.337	1	19
656.507	1	6
656.676	1	16
656.846	1	0
657.015	1	4
657.184	1	13
657.354	1	13
657.523	1	11
657.693	1	15
657.862	1	12
658.032	1	6
658.201	1	6
658.371	1	11
658.540	1	8
658.709	1	14
658.879	1	-7
659.048	1	14
659.218	1	15
659.387	1	6
659.557	1	14
659.726	1	19
659.895	1	8
660.065	1	3
660.234	1	7
660.404	1	11
660.573	1	12
660.743	1	13
660.912	1	11
661.081	1	22
661.251	1	10
661.420	1	6
661.590	1	3
661.759	1	11
661.929	1	8
662.098	1	6
662.267	1	9
662.437	1	11
662.606	1	11
662.776	1	6
662.945	1	7
663.115	1	20
663.284	1	18
663.453	1	-4
663.623	1	13
663.792	1	12
663.962	1	9
664.131	1	10
664.300	1	13
664.470	1	10
664.639	1	7
664.809	1	-1
664.978	1	12
665.148	1	11
665.317	1	2
665.486	1	13
665.656	1	6
665.825	1	15
665.995	1	0
666.164	1	6
666.333	1	14
666.503	1	11
666.672	1	13
666.842	1	-2
667.011	1	5
667.180	1	-1
667.350	1	19
667.519	1	15
667.689	1	2
667.858	1	12
668.027	1	19
668.197	1	14
668.366	1	7
668.536	1	9
668.705	1	10
668.874	1	14
669.044	1	12
669.213	1	12
669.382	1	7
669.552	1	24
669.721	1	17
669.891	1	10
670.060	1	21
670.229	1	11
670.399	1	15
670.568	1	11
670.738	1	3
670.907	1	7
671.076	1	8
671.246	1	26
671.415	1	10
671.584	1	5
671.754	1	10
671.923	1	13
672.093	1	22
672.262	1	20
672.431	1	0
672.601	1	16
672.770	1	14
672.939	1	6
673.109	1	12
673.278	1	11
673.448	1	5
673.617	1	0
673.786	1	13
