325.333	1	17
325.504	1	9
325.675	1	5
325.846	1	-5
326.017	1	13
326.188	1	10
326.359	1	-6
326.531	1	3
326.702	1	6
326.873	1	8
327.044	1	0
327.215	1	-4
327.386	1	-1
327.557	1	8
327.728	1	13
327.899	1	12
328.070	1	4
328.241	1	3
328.412	1	11
328.583	1	8
328.754	1	4
328.926	1	-3
329.097	1	4
329.268	1	6
329.439	1	5
329.610	1	14
329.781	1	0
329.952	1	16
330.123	1	5
330.294	1	-10
330.465	1	7
330.636	1	-3
330.807	1	6
330.978	1	4
331.149	1	12
331.320	1	12
331.492	1	7
331.663	1	0
331.834	1	3
332.005	1	6
332.176	1	1
332.347	1	18
332.518	1	-1
332.689	1	2
332.860	1	7
333.031	1	6
333.202	1	0
333.373	1	12
333.544	1	5
333.715	1	19
333.886	1	6
334.057	1	10
334.228	1	8
334.399	1	23
334.570	1	4
334.741	1	7
334.912	1	16
335.084	1	6
335.255	1	2
335.426	1	3
335.597	1	14
335.768	1	17
335.939	1	2
336.110	1	16
336.281	1	13
336.452	1	15
336.623	1	7
336.794	1	-2
336.965	1	9
337.136	1	0
337.307	1	4
337.478	1	3
337.649	1	17
337.820	1	13
337.991	1	9
338.162	1	5
338.333	1	0
338.504	1	5
338.675	1	3
338.846	1	6
339.017	1	9
339.188	1	-1
339.359	1	10
339.530	1	10
339.701	1	2
339.872	1	5
340.043	1	-8
340.214	1	5
340.385	1	7
340.556	1	11
340.727	1	7
340.898	1	18
341.069	1	15
341.240	1	3
341.411	1	6
341.582	1	11
341.753	1	-1
341.924	1	-5
342.095	1	4
342.266	1	12
342.437	1	10
342.608	1	23
342.779	1	6
342.950	1	12
343.121	1	5
343.292	1	2
343.463	1	3
343.634	1	-3
343.805	1	5
343.976	1	10
344.147	1	2
344.318	1	8
344.489	1	11
344.660	1	-2
344.831	1	13
345.002	1	8
345.173	1	-4
345.344	1	2
345.515	1	-6
345.686	1	18
345.857	1	4
346.028	1	3
346.199	1	6
346.370	1	5
346.541	1	5
346.712	1	7
346.883	1	6
347.054	1	8
347.225	1	10
347.396	1	-1
347.567	1	8
347.738	1	-3
347.909	1	10
348.080	1	11
348.251	1	10
348.422	1	10
348.593	1	0
348.764	1	5
348.935	1	6
349.106	1	5
349.277	1	8
349.448	1	5
349.619	1	1
349.790	1	19
349.961	1	26
350.132	1	10
350.303	1	12
350.474	1	0
350.645	1	10
350.816	1	-3
350.987	1	9
351.157	1	8
351.328	1	11
351.499	1	6
351.670	1	2
351.841	1	16
352.012	1	14
352.183	1	3
352.354	1	-2
352.525	1	15
352.696	1	14
352.867	1	8
353.038	1	4
353.209	1	3
353.380	1	5
353.551	1	-5
353.722	1	4
353.893	1	8
354.064	1	-1
354.235	1	2
354.406	1	11
354.576	1	8
354.747	1	5
354.918	1	14
355.089	1	9
355.260	1	20
355.431	1	-3
355.602	1	2
355.773	1	7
355.944	1	3
356.115	1	8
356.286	1	6
356.457	1	3
356.628	1	8
356.799	1	-1
356.970	1	15
357.141	1	2
357.311	1	15
357.482	1	5
357.653	1	5
357.824	1	6
357.995	1	7
358.166	1	-5
358.337	1	6
358.508	1	8
358.679	1	11
358.850	1	4
359.021	1	10
359.192	1	7
359.363	1	6
359.533	1	-5
359.704	1	5
359.875	1	17
360.046	1	6
360.217	1	3
360.388	1	4
360.559	1	4
360.730	1	1
360.901	1	0
361.072	1	7
361.243	1	-3
361.414	1	1
361.584	1	0
361.755	1	2
361.926	1	4
362.097	1	2
362.268	1	0
362.439	1	3
362.610	1	5
362.781	1	8
362.952	1	11
363.123	1	10
363.293	1	4
363.464	1	4
363.635	1	7
363.806	1	6
363.977	1	1
364.148	1	-4
364.319	1	3
364.490	1	13
364.661	1	9
364.832	1	7
365.002	1	8
365.173	1	-6
365.344	1	13
365.515	1	-4
365.686	1	1
365.857	1	13
366.028	1	-1
366.199	1	9
366.370	1	7
366.540	1	1
366.711	1	5
366.882	1	0
367.053	1	12
367.224	1	3
367.395	1	5
367.566	1	3
367.737	1	-2
367.908	1	4
368.078	1	9
368.249	1	17
368.420	1	3
368.591	1	8
368.762	1	-1
368.933	1	-10
369.104	1	12
369.274	1	-7
369.445	1	15
369.616	1	-7
369.787	1	13
369.958	1	0
370.129	1	-3
370.300	1	5
370.471	1	11
370.641	1	-5
370.812	1	4
370.983	1	-6
371.154	1	-9
371.325	1	5
371.496	1	11
371.667	1	5
371.837	1	7
372.008	1	-7
372.179	1	-4
372.350	1	-15
372.521	1	6
372.692	1	0
372.863	1	1
373.033	1	8
373.204	1	-9
373.375	1	8
373.546	1	14
373.717	1	11
373.888	1	4
374.059	1	2
374.229	1	-3
374.400	1	1
374.571	1	3
374.742	1	5
374.913	1	2
375.084	1	7
375.254	1	6
375.425	1	6
375.596	1	10
375.767	1	-1
375.938	1	5
376.109	1	15
376.279	1	-3
376.450	1	7
376.621	1	-4
376.792	1	10
376.963	1	1
377.134	1	9
377.304	1	10
377.475	1	4
377.646	1	5
377.817	1	0
377.988	1	3
378.159	1	9
378.329	1	15
378.500	1	9
378.671	1	9
378.842	1	4
379.013	1	2
379.184	1	3
379.354	1	-8
379.525	1	1
379.696	1	11
379.867	1	7
380.038	1	18
380.209	1	8
380.379	1	0
380.550	1	16
380.721	1	0
380.892	1	8
381.063	1	11
381.233	1	9
381.404	1	1
381.575	1	3
381.746	1	2
381.917	1	5
382.087	1	8
382.258	1	13
382.429	1	-7
382.600	1	7
382.771	1	3
382.941	1	16
383.112	1	9
383.283	1	14
383.454	1	-6
383.625	1	-6
383.795	1	7
383.966	1	10
384.137	1	13
384.308	1	2
384.479	1	3
384.649	1	18
384.820	1	12
384.991	1	1
385.162	1	2
385.333	1	11
385.503	1	7
385.674	1	-7
385.845	1	15
386.016	1	12
386.187	1	6
386.357	1	7
386.528	1	4
386.699	1	4
386.870	1	-4
387.041	1	17
387.211	1	4
387.382	1	-12
387.553	1	4
387.724	1	15
387.894	1	14
388.065	1	-2
388.236	1	12
388.407	1	3
388.578	1	1
388.748	1	4
388.919	1	9
389.090	1	11
389.261	1	1
389.431	1	6
389.602	1	16
389.773	1	4
389.944	1	10
390.114	1	3
390.285	1	7
390.456	1	1
390.627	1	8
390.798	1	2
390.968	1	7
391.139	1	6
391.310	1	8
391.481	1	9
391.651	1	15
391.822	1	13
391.993	1	10
392.164	1	4
392.334	1	-7
392.505	1	6
392.676	1	16
392.847	1	-1
393.017	1	9
393.188	1	13
393.359	1	4
393.530	1	16
393.700	1	-4
393.871	1	3
394.042	1	10
394.213	1	9
394.383	1	7
394.554	1	21
394.725	1	2
394.896	1	4
395.066	1	10
395.237	1	21
395.408	1	17
395.579	1	0
395.749	1	16
395.920	1	5
396.091	1	16
396.262	1	3
396.432	1	5
396.603	1	3
396.774	1	4
396.945	1	7
397.115	1	10
397.286	1	1
397.457	1	5
397.627	1	10
397.798	1	5
397.969	1	12
398.140	1	9
398.310	1	6
398.481	1	5
398.652	1	-2
398.823	1	5
398.993	1	11
399.164	1	9
399.335	1	12
399.505	1	-6
399.676	1	6
399.847	1	7
400.018	1	18
400.188	1	11
400.359	1	11
400.530	1	18
400.700	1	10
400.871	1	10
401.042	1	8
401.213	1	4
401.383	1	7
401.554	1	0
401.725	1	6
401.895	1	7
402.066	1	5
402.237	1	17
402.408	1	6
402.578	1	4
402.749	1	11
402.920	1	8
403.090	1	-1
403.261	1	14
403.432	1	11
403.603	1	9
403.773	1	7
403.944	1	8
404.115	1	3
404.285	1	18
404.456	1	7
404.627	1	6
404.797	1	8
404.968	1	11
405.139	1	13
405.310	1	16
405.480	1	5
405.651	1	-5
405.822	1	1
405.992	1	7
406.163	1	17
406.334	1	17
406.504	1	17
406.675	1	28
406.846	1	13
407.016	1	22
407.187	1	-2
407.358	1	18
407.528	1	5
407.699	1	3
407.870	1	13
408.041	1	22
408.211	1	10
408.382	1	20
408.553	1	11
408.723	1	10
408.894	1	-3
409.065	1	0
409.235	1	11
409.406	1	6
409.577	1	2
409.747	1	-1
409.918	1	6
410.089	1	16
410.259	1	3
410.430	1	9
410.601	1	9
410.771	1	12
410.942	1	9
411.113	1	10
411.283	1	21
411.454	1	11
411.625	1	10
411.795	1	-2
411.966	1	21
412.137	1	7
412.307	1	14
412.478	1	4
412.649	1	9
412.819	1	15
412.990	1	15
413.161	1	22
413.331	1	11
413.502	1	23
413.672	1	15
413.843	1	7
414.014	1	8
414.184	1	2
414.355	1	11
414.526	1	11
414.696	1	8
414.867	1	13
415.038	1	9
415.208	1	4
415.379	1	8
415.550	1	14
415.720	1	3
415.891	1	16
416.062	1	7
416.232	1	9
416.403	1	6
416.573	1	12
416.744	1	9
416.915	1	25
417.085	1	9
417.256	1	6
417.427	1	3
417.597	1	14
417.768	1	19
417.939	1	11
418.109	1	7
418.280	1	2
418.450	1	6
418.621	1	19
418.792	1	6
418.962	1	12
419.133	1	12
419.304	1	4
419.474	1	14
419.645	1	12
419.815	1	8
419.986	1	21
420.157	1	6
420.327	1	-3
420.498	1	11
420.669	1	9
420.839	1	2
421.010	1	6
421.180	1	14
421.351	1	14
421.522	1	1
421.692	1	23
421.863	1	12
422.033	1	6
422.204	1	13
422.375	1	10
422.545	1	9
422.716	1	6
422.886	1	-2
423.057	1	12
423.228	1	8
423.398	1	15
423.569	1	5
423.740	1	9
423.910	1	19
424.081	1	6
424.251	1	9
424.422	1	6
424.593	1	13
424.763	1	23
424.934	1	9
425.104	1	8
425.275	1	13
425.445	1	1
425.616	1	7
425.787	1	12
425.957	1	13
426.128	1	18
426.298	1	14
426.469	1	8
426.640	1	13
426.810	1	22
426.981	1	10
427.151	1	7
427.322	1	17
427.493	1	14
427.663	1	16
427.834	1	10
428.004	1	6
428.175	1	21
428.345	1	9
428.516	1	11
428.687	1	15
428.857	1	1
429.028	1	11
429.198	1	17
429.369	1	15
429.540	1	7
429.710	1	9
429.881	1	6
430.051	1	14
430.222	1	11
430.392	1	19
430.563	1	16
430.734	1	7
430.904	1	13
431.075	1	16
431.245	1	7
431.416	1	20
431.586	1	5
431.757	1	9
431.927	1	19
432.098	1	-9
432.269	1	10
432.439	1	12
432.610	1	18
432.780	1	15
432.951	1	18
433.121	1	16
433.292	1	5
433.462	1	14
433.633	1	8
433.804	1	11
433.974	1	2
434.145	1	3
434.315	1	9
434.486	1	8
434.656	1	13
434.827	1	5
434.997	1	10
435.168	1	23
435.339	1	8
435.509	1	6
435.680	1	12
435.850	1	3
436.021	1	10
436.191	1	6
436.362	1	17
436.532	1	13
436.703	1	10
436.873	1	8
437.044	1	0
437.214	1	7
437.385	1	5
437.556	1	12
437.726	1	15
437.897	1	8
438.067	1	11
438.238	1	14
438.408	1	4
438.579	1	6
438.749	1	1
438.920	1	10
439.090	1	8
439.261	1	8
439.431	1	8
439.602	1	11
439.772	1	14
439.943	1	5
440.113	1	12
440.284	1	7
440.455	1	5
440.625	1	20
440.796	1	10
440.966	1	6
441.137	1	-3
441.307	1	4
441.478	1	13
441.648	1	11
441.819	1	9
441.989	1	14
442.160	1	9
442.330	1	13
442.501	1	0
442.671	1	8
442.842	1	13
443.012	1	12
443.183	1	1
443.353	1	26
443.524	1	1
443.694	1	16
443.865	1	13
444.035	1	21
444.206	1	4
444.376	1	9
444.547	1	23
444.717	1	5
444.888	1	15
445.058	1	15
445.229	1	3
445.399	1	11
445.570	1	4
445.740	1	5
445.911	1	18
446.081	1	18
446.252	1	12
446.422	1	9
446.593	1	-4
446.763	1	-5
446.934	1	5
447.104	1	14
447.275	1	15
447.445	1	12
447.616	1	6
447.786	1	6
447.957	1	7
448.127	1	14
448.298	1	10
448.468	1	5
448.639	1	7
448.809	1	8
448.979	1	0
449.150	1	5
449.320	1	14
449.491	1	14
449.661	1	18
449.832	1	3
450.002	1	4
450.173	1	1
450.343	1	8
450.514	1	13
450.684	1	16
450.855	1	19
451.025	1	5
451.196	1	9
451.366	1	16
451.537	1	8
451.707	1	11
451.878	1	-2
452.048	1	10
452.218	1	10
452.389	1	13
452.559	1	-9
452.730	1	16
452.900	1	14
453.071	1	14
453.241	1	6
453.412	1	11
453.582	1	8
453.753	1	7
453.923	1	18
454.093	1	12
454.264	1	22
454.434	1	14
454.605	1	14
454.775	1	9
454.946	1	21
455.116	1	9
455.287	1	8
455.457	1	4
455.628	1	15
455.798	1	21
455.968	1	15
456.139	1	0
456.309	1	3
456.480	1	13
456.650	1	18
456.821	1	17
456.991	1	7
457.161	1	20
457.332	1	10
457.502	1	2
457.673	1	6
457.843	1	12
458.014	1	1
458.184	1	-4
458.355	1	6
458.525	1	13
458.695	1	8
458.866	1	10
459.036	1	9
459.207	1	-1
459.377	1	17
459.548	1	-2
459.718	1	6
459.888	1	12
460.059	1	0
460.229	1	5
460.400	1	15
460.570	1	6
460.740	1	2
460.911	1	9
461.081	1	4
461.252	1	16
461.422	1	1
461.593	1	-2
461.763	1	24
461.933	1	8
462.104	1	12
462.274	1	12
462.445	1	2
462.615	1	2
462.785	1	4
462.956	1	10
463.126	1	5
463.297	1	9
463.467	1	13
463.638	1	4
463.808	1	-2
463.978	1	9
464.149	1	0
464.319	1	3
464.490	1	13
464.660	1	14
464.830	1	-1
465.001	1	20
465.171	1	3
465.342	1	13
465.512	1	6
465.682	1	13
465.853	1	8
466.023	1	10
466.194	1	4
466.364	1	18
466.534	1	9
466.705	1	13
466.875	1	10
467.045	1	-4
467.216	1	0
467.386	1	11
467.557	1	1
467.727	1	3
467.897	1	-3
468.068	1	7
468.238	1	10
468.409	1	4
468.579	1	-10
468.749	1	9
468.920	1	0
469.090	1	2
469.260	1	-4
469.431	1	9
469.601	1	1
469.772	1	7
469.942	1	15
470.112	1	12
470.283	1	12
470.453	1	-2
470.623	1	8
470.794	1	10
470.964	1	3
471.135	1	3
471.305	1	2
471.475	1	6
471.646	1	-1
471.816	1	6
471.986	1	8
472.157	1	9
472.327	1	1
472.497	1	-9
472.668	1	7
472.838	1	6
473.009	1	26
473.179	1	10
473.349	1	7
473.520	1	5
473.690	1	2
473.860	1	2
474.031	1	6
474.201	1	6
474.371	1	14
474.542	1	8
474.712	1	-2
474.882	1	13
475.053	1	6
475.223	1	5
475.394	1	4
475.564	1	-3
475.734	1	8
475.905	1	6
476.075	1	4
476.245	1	6
476.416	1	7
476.586	1	7
476.756	1	18
476.927	1	9
477.097	1	8
477.267	1	5
477.438	1	-19
477.608	1	0
477.778	1	12
477.949	1	9
478.119	1	8
478.289	1	20
478.460	1	16
478.630	1	2
478.800	1	10
478.971	1	0
479.141	1	-1
479.311	1	12
479.482	1	1
479.652	1	8
479.822	1	6
479.993	1	4
480.163	1	-1
480.333	1	9
480.504	1	9
480.674	1	5
480.844	1	5
481.015	1	0
481.185	1	7
481.355	1	-2
481.525	1	7
481.696	1	13
481.866	1	4
482.036	1	1
482.207	1	-6
482.377	1	-2
482.547	1	4
482.718	1	7
482.888	1	2
483.058	1	0
483.229	1	0
483.399	1	12
483.569	1	2
483.740	1	-3
483.910	1	-9
484.080	1	2
484.250	1	7
484.421	1	4
484.591	1	8
484.761	1	5
484.932	1	3
485.102	1	6
485.272	1	0
485.443	1	0
485.613	1	0
485.783	1	2
485.953	1	-4
486.124	1	-6
486.294	1	7
486.464	1	3
486.635	1	-2
486.805	1	6
486.975	1	-1
487.146	1	0
487.316	1	4
487.486	1	1
487.656	1	2
487.827	1	4
487.997	1	2
488.167	1	6
488.338	1	-1
488.508	1	0
488.678	1	4
488.848	1	5
489.019	1	7
489.189	1	4
489.359	1	3
489.529	1	-3
489.700	1	1
489.870	1	2
490.040	1	-3
490.211	1	-2
490.381	1	1
490.551	1	-5
490.721	1	5
490.892	1	7
491.062	1	6
491.232	1	1
491.402	1	7
491.573	1	-5
491.743	1	-1
491.913	1	7
492.084	1	0
492.254	1	14
492.424	1	-2
492.594	1	5
492.765	1	1
492.935	1	11
493.105	1	3
493.275	1	2
493.446	1	9
493.616	1	4
493.786	1	12
493.956	1	0
494.127	1	-10
494.297	1	4
494.467	1	1
494.637	1	3
494.808	1	-6
494.978	1	-6
495.148	1	16
495.318	1	-5
495.489	1	4
495.659	1	15
495.829	1	14
495.999	1	5
496.170	1	3
496.340	1	2
496.510	1	-4
496.680	1	5
496.851	1	0
497.021	1	0
497.191	1	2
497.361	1	1
497.532	1	7
497.702	1	0
497.872	1	0
498.042	1	2
498.213	1	6
498.383	1	5
498.553	1	-2
498.723	1	-8
498.894	1	4
499.064	1	10
499.234	1	-4
499.404	1	-2
499.574	1	5
499.745	1	4
499.915	1	-2
500.085	1	-2
500.255	1	3
500.426	1	-3
500.596	1	8
500.766	1	-10
500.936	1	-1
501.106	1	3
501.277	1	-1
501.447	1	-5
501.617	1	4
501.787	1	-1
501.958	1	12
502.128	1	5
502.298	1	5
502.468	1	-2
502.638	1	5
502.809	1	-2
502.979	1	-8
503.149	1	1
503.319	1	1
503.489	1	-6
503.660	1	6
503.830	1	2
504.000	1	6
504.170	1	5
504.340	1	7
504.511	1	11
504.681	1	6
504.851	1	6
505.021	1	4
505.192	1	3
505.362	1	-3
505.532	1	3
505.702	1	-7
505.872	1	3
506.043	1	-4
506.213	1	5
506.383	1	7
506.553	1	3
506.723	1	8
506.893	1	6
507.064	1	-1
507.234	1	2
507.404	1	1
507.574	1	4
507.744	1	4
507.915	1	3
508.085	1	-2
508.255	1	11
508.425	1	-3
508.595	1	4
508.766	1	-6
508.936	1	22
509.106	1	-2
509.276	1	3
509.446	1	4
509.616	1	4
509.787	1	13
509.957	1	-2
510.127	1	3
510.297	1	4
510.467	1	8
510.638	1	-2
510.808	1	1
510.978	1	8
511.148	1	9
511.318	1	-3
511.488	1	9
511.659	1	-3
511.829	1	0
511.999	1	0
512.169	1	3
512.339	1	-1
512.509	1	-3
512.680	1	-10
512.850	1	0
513.020	1	4
513.190	1	8
513.360	1	0
513.530	1	4
513.700	1	-3
513.871	1	7
514.041	1	-1
514.211	1	-4
514.381	1	18
514.551	1	-16
514.721	1	3
514.892	1	-3
515.062	1	4
515.232	1	3
515.402	1	15
515.572	1	4
515.742	1	11
515.912	1	-5
516.083	1	4
516.253	1	12
516.423	1	-1
516.593	1	0
516.763	1	10
516.933	1	11
517.104	1	-3
517.274	1	14
517.444	1	-10
517.614	1	-3
517.784	1	4
517.954	1	-1
518.124	1	-2
518.294	1	4
518.465	1	5
518.635	1	12
518.805	1	-5
518.975	1	-1
519.145	1	3
519.315	1	-2
519.485	1	5
519.656	1	4
519.826	1	4
519.996	1	7
520.166	1	-4
520.336	1	-5
520.506	1	9
520.676	1	5
520.846	1	-1
521.017	1	4
521.187	1	2
521.357	1	-3
521.527	1	-2
521.697	1	3
521.867	1	1
522.037	1	5
522.207	1	5
522.377	1	-3
522.548	1	9
522.718	1	-3
522.888	1	2
523.058	1	3
523.228	1	-6
523.398	1	7
523.568	1	3
523.738	1	-7
523.909	1	4
524.079	1	-3
524.249	1	-1
524.419	1	4
524.589	1	-2
524.759	1	11
524.929	1	-3
525.099	1	-7
525.269	1	-8
525.439	1	11
525.610	1	-6
525.780	1	7
525.950	1	8
526.120	1	7
526.290	1	0
526.460	1	7
526.630	1	-1
526.800	1	6
526.970	1	1
527.140	1	8
527.311	1	5
527.481	1	-5
527.651	1	9
527.821	1	-3
527.991	1	-8
528.161	1	-5
528.331	1	2
528.501	1	2
528.671	1	-6
528.841	1	18
529.011	1	-4
529.181	1	5
529.352	1	0
529.522	1	9
529.692	1	-3
529.862	1	-7
530.032	1	-10
530.202	1	9
530.372	1	-2
530.542	1	-6
530.712	1	16
530.882	1	6
531.052	1	6
531.222	1	-3
531.392	1	3
531.563	1	-5
531.733	1	2
531.903	1	1
532.073	1	9
532.243	1	4
532.413	1	6
532.583	1	9
532.753	1	6
532.923	1	5
533.093	1	-2
533.263	1	-2
533.433	1	-4
533.603	1	-5
533.773	1	0
533.943	1	6
534.113	1	4
534.284	1	-7
534.454	1	3
534.624	1	9
534.794	1	17
534.964	1	3
535.134	1	5
535.304	1	11
535.474	1	-1
535.644	1	1
535.814	1	-1
535.984	1	0
536.154	1	-1
536.324	1	1
536.494	1	7
536.664	1	4
536.834	1	9
537.004	1	-1
537.174	1	-1
537.344	1	8
537.514	1	6
537.685	1	-5
537.855	1	0
538.025	1	3
538.195	1	0
538.365	1	7
538.535	1	-7
538.705	1	0
538.875	1	-2
539.045	1	6
539.215	1	10
539.385	1	4
539.555	1	-3
539.725	1	-8
539.895	1	1
540.065	1	-8
540.235	1	-2
540.405	1	-4
540.575	1	8
540.745	1	-2
540.915	1	1
541.085	1	-1
541.255	1	10
541.425	1	1
541.595	1	4
541.765	1	8
541.935	1	7
542.105	1	0
542.275	1	2
542.445	1	-1
542.615	1	-8
542.785	1	-2
542.955	1	-8
543.125	1	-4
543.295	1	7
543.465	1	-8
543.635	1	-3
543.805	1	4
543.975	1	-11
544.145	1	7
544.315	1	-1
544.485	1	3
544.655	1	0
544.825	1	-3
544.995	1	11
545.165	1	2
545.335	1	-6
545.505	1	-1
545.675	1	-4
545.845	1	-1
546.015	1	6
546.185	1	-2
546.355	1	0
546.525	1	-4
546.695	1	-3
546.865	1	11
547.035	1	3
547.205	1	15
547.375	1	1
547.545	1	1
547.715	1	-5
547.885	1	-5
548.055	1	1
548.225	1	2
548.395	1	-4
548.565	1	4
548.735	1	5
548.905	1	-4
549.075	1	3
549.245	1	1
549.415	1	-8
549.585	1	2
549.755	1	11
549.925	1	-9
550.095	1	0
550.265	1	8
550.435	1	-2
550.605	1	6
550.775	1	-1
550.945	1	-1
551.115	1	2
551.285	1	0
551.455	1	4
551.625	1	-6
551.795	1	1
551.965	1	3
552.135	1	-1
552.305	1	3
552.475	1	2
552.645	1	-3
552.815	1	2
552.985	1	-2
553.155	1	6
553.325	1	0
553.495	1	-2
553.665	1	-4
553.835	1	4
554.004	1	9
554.174	1	-1
554.344	1	-1
554.514	1	1
554.684	1	-3
554.854	1	2
555.024	1	-1
555.194	1	-6
555.364	1	7
555.534	1	-6
555.704	1	14
555.874	1	-4
556.044	1	2
556.214	1	0
556.384	1	10
556.554	1	-2
556.724	1	1
556.894	1	-7
557.064	1	10
557.234	1	-4
557.404	1	4
557.573	1	-2
557.743	1	1
557.913	1	-2
558.083	1	-3
558.253	1	2
558.423	1	1
558.593	1	1
558.763	1	8
558.933	1	2
559.103	1	7
559.273	1	7
559.443	1	-1
559.613	1	-3
559.783	1	-10
559.953	1	2
560.122	1	0
560.292	1	15
560.462	1	-1
560.632	1	-1
560.802	1	1
560.972	1	-7
561.142	1	-7
561.312	1	6
561.482	1	-5
561.652	1	-2
561.822	1	-3
561.992	1	-8
562.162	1	2
562.331	1	6
562.501	1	2
562.671	1	6
562.841	1	-6
563.011	1	3
563.181	1	1
563.351	1	1
563.521	1	0
563.691	1	3
563.861	1	5
564.031	1	-5
564.201	1	4
564.370	1	2
564.540	1	4
564.710	1	2
564.880	1	2
565.050	1	8
565.220	1	-7
565.390	1	7
565.560	1	7
565.730	1	12
565.900	1	-1
566.069	1	7
566.239	1	-4
566.409	1	-8
566.579	1	13
566.749	1	-3
566.919	1	-5
567.089	1	0
567.259	1	8
567.429	1	-1
567.599	1	7
567.768	1	5
567.938	1	-4
568.108	1	4
568.278	1	6
568.448	1	5
568.618	1	8
568.788	1	7
568.958	1	-6
569.128	1	-1
569.297	1	-2
569.467	1	-12
569.637	1	4
569.807	1	-3
569.977	1	-8
570.147	1	7
570.317	1	-6
570.487	1	-1
570.656	1	-1
570.826	1	6
570.996	1	-7
571.166	1	7
571.336	1	-4
571.506	1	11
571.676	1	12
571.846	1	3
572.015	1	-4
572.185	1	3
572.355	1	0
572.525	1	-9
572.695	1	-5
572.865	1	-7
573.035	1	2
573.205	1	5
573.374	1	5
573.544	1	7
573.714	1	-11
573.884	1	-5
574.054	1	-5
574.224	1	-2
574.394	1	-10
574.563	1	2
574.733	1	4
574.903	1	-3
575.073	1	7
575.243	1	-8
575.413	1	0
575.583	1	3
575.752	1	3
575.922	1	-10
576.092	1	-4
576.262	1	2
576.432	1	-3
576.602	1	-11
576.772	1	5
576.941	1	-3
577.111	1	-5
577.281	1	1
577.451	1	0
577.621	1	0
577.791	1	1
577.960	1	3
578.130	1	-7
578.300	1	-6
578.470	1	8
578.640	1	9
578.810	1	-4
578.979	1	0
579.149	1	2
579.319	1	1
579.489	1	-12
579.659	1	-3
579.829	1	10
579.998	1	-2
580.168	1	-4
580.338	1	0
580.508	1	10
580.678	1	-1
580.848	1	2
581.017	1	10
581.187	1	4
581.357	1	-1
581.527	1	1
581.697	1	2
581.867	1	-1
582.036	1	-9
582.206	1	0
582.376	1	1
582.546	1	-11
582.716	1	2
582.885	1	-9
583.055	1	5
583.225	1	-12
583.395	1	2
583.565	1	2
583.735	1	-3
583.904	1	-3
584.074	1	-4
584.244	1	-13
584.414	1	1
584.584	1	4
584.753	1	7
584.923	1	2
585.093	1	8
585.263	1	6
585.433	1	-5
585.602	1	-1
585.772	1	-6
585.942	1	9
586.112	1	0
586.282	1	7
586.451	1	0
586.621	1	2
586.791	1	-2
586.961	1	0
587.131	1	-3
587.300	1	3
587.470	1	-5
587.640	1	2
587.810	1	5
587.980	1	-6
588.149	1	4
588.319	1	7
588.489	1	2
588.659	1	-9
588.829	1	0
588.998	1	6
589.168	1	3
589.338	1	1
589.508	1	4
589.677	1	9
589.847	1	2
590.017	1	-8
590.187	1	0
590.357	1	7
590.526	1	-6
590.696	1	-3
590.866	1	-9
591.036	1	5
591.205	1	4
591.375	1	4
591.545	1	6
591.715	1	3
591.885	1	2
592.054	1	2
592.224	1	4
592.394	1	-7
592.564	1	-1
592.733	1	-11
592.903	1	-1
593.073	1	-3
593.243	1	-1
593.412	1	5
593.582	1	3
593.752	1	-1
593.922	1	1
594.091	1	1
594.261	1	-6
594.431	1	8
594.601	1	-8
594.771	1	4
594.940	1	3
595.110	1	-1
595.280	1	-1
595.450	1	3
595.619	1	1
595.789	1	6
595.959	1	9
596.129	1	0
596.298	1	-2
596.468	1	-1
596.638	1	2
596.808	1	2
596.977	1	0
597.147	1	-6
597.317	1	-3
597.487	1	9
597.656	1	0
597.826	1	0
597.996	1	-1
598.166	1	2
598.335	1	-2
598.505	1	7
598.675	1	-4
598.844	1	-5
599.014	1	14
599.184	1	7
599.354	1	10
599.523	1	3
599.693	1	1
599.863	1	4
600.033	1	-4
600.202	1	1
600.372	1	-5
600.542	1	-4
600.712	1	-1
600.881	1	-7
601.051	1	-9
601.221	1	12
601.390	1	-9
601.560	1	6
601.730	1	6
601.900	1	-2
602.069	1	3
602.239	1	-7
602.409	1	-4
602.578	1	-4
602.748	1	-2
602.918	1	-9
603.088	1	8
603.257	1	4
603.427	1	0
603.597	1	-1
603.767	1	-4
603.936	1	0
604.106	1	1
604.276	1	15
604.445	1	8
604.615	1	2
604.785	1	6
604.954	1	5
605.124	1	-4
605.294	1	2
605.464	1	-6
605.633	1	5
605.803	1	6
605.973	1	7
606.142	1	-2
606.312	1	-4
606.482	1	1
606.652	1	4
606.821	1	1
606.991	1	-5
607.161	1	-2
607.330	1	-1
607.500	1	9
607.670	1	9
607.839	1	8
608.009	1	12
608.179	1	-1
608.348	1	6
608.518	1	0
608.688	1	-8
608.858	1	9
609.027	1	6
609.197	1	-1
609.367	1	6
609.536	1	2
609.706	1	1
609.876	1	11
610.045	1	-2
610.215	1	2
610.385	1	-7
610.554	1	0
610.724	1	0
610.894	1	4
611.063	1	-5
611.233	1	8
611.403	1	6
611.572	1	3
611.742	1	1
611.912	1	5
612.081	1	-9
612.251	1	9
612.421	1	8
612.590	1	-2
612.760	1	10
612.930	1	0
613.099	1	0
613.269	1	3
613.439	1	0
613.608	1	3
613.778	1	-8
613.948	1	1
614.117	1	4
614.287	1	-4
614.457	1	-9
614.626	1	0
614.796	1	2
614.966	1	-1
615.135	1	-1
615.305	1	7
615.475	1	7
615.644	1	0
615.814	1	-10
615.984	1	-1
616.153	1	13
616.323	1	6
616.493	1	18
616.662	1	3
616.832	1	3
617.002	1	-4
617.171	1	-1
617.341	1	3
617.511	1	6
617.680	1	7
617.850	1	-2
618.019	1	12
618.189	1	10
618.359	1	-5
618.528	1	-3
618.698	1	13
618.868	1	-3
619.037	1	14
619.207	1	3
619.377	1	0
619.546	1	1
619.716	1	7
619.885	1	8
620.055	1	-4
620.225	1	6
620.394	1	-3
620.564	1	14
620.734	1	6
620.903	1	9
621.073	1	0
621.242	1	-1
621.412	1	-3
621.582	1	-9
621.751	1	4
621.921	1	-4
622.091	1	0
622.260	1	2
622.430	1	-2
622.599	1	-2
622.769	1	4
622.939	1	16
623.108	1	8
623.278	1	1
623.448	1	7
623.617	1	-3
623.787	1	2
623.956	1	7
624.126	1	12
624.296	1	7
624.465	1	6
624.635	1	10
624.804	1	-6
624.974	1	14
625.144	1	4
625.313	1	-3
625.483	1	12
625.652	1	1
625.822	1	-1
625.992	1	6
626.161	1	13
626.331	1	-1
626.501	1	3
626.670	1	0
626.840	1	10
627.009	1	2
627.179	1	7
627.348	1	0
627.518	1	6
627.688	1	-6
627.857	1	6
628.027	1	-3
628.196	1	5
628.366	1	-6
628.536	1	-3
628.705	1	0
628.875	1	14
629.044	1	9
629.214	1	10
629.384	1	0
629.553	1	5
629.723	1	1
629.892	1	11
630.062	1	-3
630.232	1	10
630.401	1	16
630.571	1	7
630.740	1	4
630.910	1	5
631.079	1	-5
631.249	1	3
631.419	1	-5
631.588	1	-5
631.758	1	9
631.927	1	0
632.097	1	-3
632.266	1	6
632.436	1	7
632.606	1	2
632.775	1	10
632.945	1	15
633.114	1	-2
633.284	1	-3
633.453	1	-4
633.623	1	9
633.793	1	2
633.962	1	0
634.132	1	-1
634.301	1	0
634.471	1	0
634.640	1	-2
634.810	1	5
634.979	1	5
635.149	1	6
635.319	1	9
635.488	1	5
635.658	1	7
635.827	1	4
635.997	1	5
636.166	1	3
636.336	1	5
636.505	1	-1
636.675	1	14
636.845	1	-1
637.014	1	6
637.184	1	-2
637.353	1	0
637.523	1	2
637.692	1	11
637.862	1	1
638.031	1	7
638.201	1	6
638.370	1	8
638.540	1	-4
638.710	1	15
638.879	1	-6
639.049	1	5
639.218	1	9
639.388	1	8
639.557	1	9
639.727	1	3
639.896	1	5
640.066	1	17
640.235	1	8
640.405	1	-1
640.574	1	-1
640.744	1	11
640.914	1	6
641.083	1	9
641.253	1	12
641.422	1	7
641.592	1	-5
641.761	1	10
641.931	1	2
642.100	1	1
642.270	1	-4
642.439	1	-1
642.609	1	2
642.778	1	4
642.948	1	5
643.117	1	10
643.287	1	2
643.456	1	9
643.626	1	16
643.795	1	3
643.965	1	6
644.134	1	3
644.304	1	7
644.473	1	2
644.643	1	-3
644.812	1	4
644.982	1	5
645.151	1	22
645.321	1	1
645.490	1	-1
645.660	1	-5
645.829	1	8
645.999	1	4
646.168	1	3
646.338	1	0
646.507	1	1
646.677	1	-4
646.846	1	6
647.016	1	13
647.185	1	-5
647.355	1	5
647.524	1	-1
647.694	1	-1
647.863	1	-2
648.033	1	5
648.202	1	7
648.372	1	17
648.541	1	0
648.711	1	2
648.880	1	12
649.050	1	7
649.219	1	-6
649.389	1	3
649.558	1	-5
649.728	1	1
649.897	1	7
650.067	1	0
650.236	1	16
650.406	1	1
650.575	1	3
650.745	1	10
650.914	1	3
651.084	1	0
651.253	1	9
651.423	1	12
651.592	1	11
651.762	1	8
651.931	1	0
652.101	1	8
652.270	1	10
652.440	1	5
652.609	1	4
652.778	1	-2
652.948	1	-1
653.117	1	-4
653.287	1	12
653.456	1	5
653.626	1	-1
653.795	1	2
653.965	1	6
654.134	1	10
654.304	1	8
654.473	1	-4
654.643	1	2
654.812	1	-3
654.982	1	1
655.151	1	-8
655.320	1	6
655.490	1	7
655.659	1	3
655.829	1	10
655.998	1	-3
656.168	1	6
656.337	1	11
656.507	1	-6
656.676	1	6
656.846	1	6
657.015	1	1
657.184	1	-2
657.354	1	2
657.523	1	2
657.693	1	3
657.862	1	1
658.032	1	3
658.201	1	4
658.371	1	-1
658.540	1	0
658.709	1	-1
658.879	1	-17
659.048	1	4
659.218	1	3
659.387	1	6
659.557	1	6
659.726	1	10
659.895	1	-8
660.065	1	-10
660.234	1	-6
660.404	1	10
660.573	1	6
660.743	1	6
660.912	1	1
661.081	1	20
661.251	1	5
661.420	1	0
661.590	1	1
661.759	1	15
661.929	1	4
662.098	1	-5
662.267	1	0
662.437	1	5
662.606	1	13
662.776	1	-7
662.945	1	-3
663.115	1	9
663.284	1	3
663.453	1	-2
663.623	1	10
663.792	1	4
663.962	1	3
664.131	1	5
664.300	1	5
664.470	1	9
664.639	1	6
664.809	1	-8
664.978	1	-2
665.148	1	1
665.317	1	6
665.486	1	4
665.656	1	4
665.825	1	-2
665.995	1	0
666.164	1	-3
666.333	1	12
666.503	1	3
666.672	1	14
666.842	1	-3
667.011	1	9
667.180	1	0
667.350	1	4
667.519	1	10
667.689	1	-8
667.858	1	9
668.027	1	21
668.197	1	9
668.366	1	3
668.536	1	8
668.705	1	1
668.874	1	10
669.044	1	3
669.213	1	3
669.382	1	-2
669.552	1	5
669.721	1	7
669.891	1	7
670.060	1	8
670.229	1	5
670.399	1	8
670.568	1	-3
670.738	1	-4
670.907	1	4
671.076	1	2
671.246	1	8
671.415	1	7
671.584	1	0
671.754	1	8
671.923	1	4
672.093	1	17
672.262	1	5
672.431	1	-2
672.601	1	-4
672.770	1	5
672.939	1	3
673.109	1	12
673.278	1	21
673.448	1	3
673.617	1	-15
673.786	1	3
