325.333	1	21
325.504	1	12
325.675	1	7
325.846	1	13
326.017	1	16
326.188	1	17
326.359	1	14
326.531	1	5
326.702	1	15
326.873	1	25
327.044	1	14
327.215	1	15
327.386	1	20
327.557	1	11
327.728	1	14
327.899	1	32
328.070	1	18
328.241	1	23
328.412	1	21
328.583	1	15
328.754	1	7
328.926	1	17
329.097	1	6
329.268	1	12
329.439	1	15
329.610	1	22
329.781	1	9
329.952	1	21
330.123	1	15
330.294	1	5
330.465	1	21
330.636	1	20
330.807	1	11
330.978	1	19
331.149	1	19
331.320	1	18
331.492	1	21
331.663	1	30
331.834	1	24
332.005	1	18
332.176	1	14
332.347	1	27
332.518	1	17
332.689	1	18
332.860	1	13
333.031	1	20
333.202	1	6
333.373	1	24
333.544	1	18
333.715	1	22
333.886	1	11
334.057	1	18
334.228	1	21
334.399	1	25
334.570	1	26
334.741	1	19
334.912	1	25
335.084	1	23
335.255	1	17
335.426	1	19
335.597	1	23
335.768	1	18
335.939	1	19
336.110	1	24
336.281	1	23
336.452	1	24
336.623	1	19
336.794	1	24
336.965	1	5
337.136	1	20
337.307	1	12
337.478	1	14
337.649	1	21
337.820	1	24
337.991	1	22
338.162	1	22
338.333	1	23
338.504	1	14
338.675	1	16
338.846	1	21
339.017	1	26
339.188	1	17
339.359	1	25
339.530	1	27
339.701	1	22
339.872	1	28
340.043	1	14
340.214	1	10
340.385	1	19
340.556	1	24
340.727	1	27
340.898	1	28
341.069	1	28
341.240	1	27
341.411	1	23
341.582	1	20
341.753	1	16
341.924	1	21
342.095	1	20
342.266	1	26
342.437	1	24
342.608	1	39
342.779	1	24
342.950	1	29
343.121	1	30
343.292	1	19
343.463	1	21
343.634	1	25
343.805	1	29
343.976	1	21
344.147	1	23
344.318	1	30
344.489	1	37
344.660	1	26
344.831	1	42
345.002	1	36
345.173	1	19
345.344	1	31
345.515	1	28
345.686	1	34
345.857	1	23
346.028	1	23
346.199	1	23
346.370	1	33
346.541	1	16
346.712	1	33
346.883	1	37
347.054	1	17
347.225	1	29
347.396	1	16
347.567	1	31
347.738	1	23
347.909	1	19
348.080	1	24
348.251	1	39
348.422	1	27
348.593	1	14
348.764	1	29
348.935	1	15
349.106	1	23
349.277	1	39
349.448	1	28
349.619	1	16
349.790	1	37
349.961	1	35
350.132	1	39
350.303	1	36
350.474	1	24
350.645	1	34
350.816	1	23
350.987	1	34
351.157	1	31
351.328	1	43
351.499	1	30
351.670	1	12
351.841	1	35
352.012	1	36
352.183	1	19
352.354	1	25
352.525	1	30
352.696	1	27
352.867	1	44
353.038	1	27
353.209	1	26
353.380	1	26
353.551	1	29
353.722	1	24
353.893	1	28
354.064	1	30
354.235	1	20
354.406	1	50
354.576	1	38
354.747	1	39
354.918	1	42
355.089	1	28
355.260	1	42
355.431	1	31
355.602	1	24
355.773	1	29
355.944	1	12
356.115	1	39
356.286	1	43
356.457	1	25
356.628	1	32
356.799	1	39
356.970	1	32
357.141	1	25
357.311	1	44
357.482	1	31
357.653	1	35
357.824	1	29
357.995	1	32
358.166	1	25
358.337	1	33
358.508	1	40
358.679	1	35
358.850	1	30
359.021	1	31
359.192	1	44
359.363	1	41
359.533	1	21
359.704	1	45
359.875	1	40
360.046	1	40
360.217	1	36
360.388	1	33
360.559	1	39
360.730	1	30
360.901	1	41
361.072	1	44
361.243	1	34
361.414	1	39
361.584	1	31
361.755	1	38
361.926	1	44
362.097	1	36
362.268	1	36
362.439	1	33
362.610	1	39
362.781	1	34
362.952	1	34
363.123	1	32
363.293	1	35
363.464	1	39
363.635	1	40
363.806	1	32
363.977	1	36
364.148	1	29
364.319	1	42
364.490	1	38
364.661	1	39
364.832	1	36
365.002	1	43
365.173	1	32
365.344	1	47
365.515	1	23
365.686	1	30
365.857	1	35
366.028	1	37
366.199	1	30
366.370	1	34
366.540	1	34
366.711	1	38
366.882	1	24
367.053	1	40
367.224	1	31
367.395	1	37
367.566	1	34
367.737	1	34
367.908	1	27
368.078	1	46
368.249	1	33
368.420	1	32
368.591	1	39
368.762	1	27
368.933	1	40
369.104	1	40
369.274	1	28
369.445	1	45
369.616	1	35
369.787	1	46
369.958	1	42
370.129	1	32
370.300	1	42
370.471	1	36
370.641	1	46
370.812	1	38
370.983	1	36
371.154	1	31
371.325	1	35
371.496	1	36
371.667	1	42
371.837	1	40
372.008	1	30
372.179	1	38
372.350	1	35
372.521	1	42
372.692	1	42
372.863	1	36
373.033	1	43
373.204	1	38
373.375	1	40
373.546	1	44
373.717	1	32
373.888	1	45
374.059	1	36
374.229	1	29
374.400	1	37
374.571	1	32
374.742	1	42
374.913	1	39
375.084	1	55
375.254	1	37
375.425	1	25
375.596	1	40
375.767	1	43
375.938	1	36
376.109	1	39
376.279	1	30
376.450	1	45
376.621	1	34
376.792	1	39
376.963	1	35
377.134	1	49
377.304	1	47
377.475	1	38
377.646	1	40
377.817	1	30
377.988	1	31
378.159	1	44
378.329	1	41
378.500	1	45
378.671	1	48
378.842	1	35
379.013	1	46
379.184	1	33
379.354	1	42
379.525	1	42
379.696	1	43
379.867	1	39
380.038	1	53
380.209	1	40
380.379	1	48
380.550	1	50
380.721	1	34
380.892	1	38
381.063	1	44
381.233	1	45
381.404	1	55
381.575	1	47
381.746	1	47
381.917	1	53
382.087	1	55
382.258	1	56
382.429	1	38
382.600	1	48
382.771	1	45
382.941	1	51
383.112	1	37
383.283	1	56
383.454	1	45
383.625	1	40
383.795	1	52
383.966	1	41
384.137	1	53
384.308	1	43
384.479	1	35
384.649	1	44
384.820	1	61
384.991	1	43
385.162	1	47
385.333	1	46
385.503	1	51
385.674	1	33
385.845	1	53
386.016	1	51
386.187	1	50
386.357	1	40
386.528	1	43
386.699	1	49
386.870	1	40
387.041	1	56
387.211	1	51
387.382	1	31
387.553	1	55
387.724	1	67
387.894	1	57
388.065	1	41
388.236	1	44
388.407	1	48
388.578	1	40
388.748	1	56
388.919	1	50
389.090	1	62
389.261	1	51
389.431	1	52
389.602	1	57
389.773	1	59
389.944	1	57
390.114	1	49
390.285	1	55
390.456	1	51
390.627	1	52
390.798	1	55
390.968	1	54
391.139	1	51
391.310	1	52
391.481	1	59
391.651	1	58
391.822	1	46
391.993	1	59
392.164	1	61
392.334	1	47
392.505	1	62
392.676	1	61
392.847	1	46
393.017	1	52
393.188	1	62
393.359	1	61
393.530	1	56
393.700	1	43
393.871	1	58
394.042	1	59
394.213	1	55
394.383	1	60
394.554	1	67
394.725	1	47
394.896	1	56
395.066	1	59
395.237	1	62
395.408	1	60
395.579	1	47
395.749	1	59
395.920	1	47
396.091	1	60
396.262	1	55
396.432	1	58
396.603	1	53
396.774	1	52
396.945	1	53
397.115	1	56
397.286	1	48
397.457	1	48
397.627	1	63
397.798	1	51
397.969	1	61
398.140	1	59
398.310	1	56
398.481	1	50
398.652	1	57
398.823	1	57
398.993	1	63
399.164	1	60
399.335	1	65
399.505	1	60
399.676	1	45
399.847	1	65
400.018	1	60
400.188	1	66
400.359	1	58
400.530	1	68
400.700	1	66
400.871	1	56
401.042	1	66
401.213	1	60
401.383	1	56
401.554	1	61
401.725	1	66
401.895	1	61
402.066	1	59
402.237	1	70
402.408	1	65
402.578	1	68
402.749	1	62
402.920	1	65
403.090	1	59
403.261	1	64
403.432	1	62
403.603	1	63
403.773	1	83
403.944	1	62
404.115	1	66
404.285	1	73
404.456	1	60
404.627	1	61
404.797	1	60
404.968	1	65
405.139	1	67
405.310	1	67
405.480	1	60
405.651	1	56
405.822	1	69
405.992	1	56
406.163	1	77
406.334	1	63
406.504	1	65
406.675	1	80
406.846	1	77
407.016	1	79
407.187	1	64
407.358	1	66
407.528	1	55
407.699	1	63
407.870	1	69
408.041	1	66
408.211	1	67
408.382	1	71
408.553	1	78
408.723	1	60
408.894	1	65
409.065	1	62
409.235	1	65
409.406	1	66
409.577	1	63
409.747	1	68
409.918	1	64
410.089	1	72
410.259	1	60
410.430	1	72
410.601	1	70
410.771	1	73
410.942	1	58
411.113	1	71
411.283	1	71
411.454	1	66
411.625	1	66
411.795	1	69
411.966	1	80
412.137	1	82
412.307	1	79
412.478	1	75
412.649	1	78
412.819	1	79
412.990	1	73
413.161	1	89
413.331	1	62
413.502	1	86
413.672	1	76
413.843	1	68
414.014	1	76
414.184	1	78
414.355	1	67
414.526	1	77
414.696	1	68
414.867	1	69
415.038	1	67
415.208	1	83
415.379	1	75
415.550	1	86
415.720	1	62
415.891	1	86
416.062	1	77
416.232	1	75
416.403	1	73
416.573	1	79
416.744	1	67
416.915	1	82
417.085	1	77
417.256	1	74
417.427	1	60
417.597	1	79
417.768	1	72
417.939	1	76
418.109	1	58
418.280	1	68
418.450	1	68
418.621	1	81
418.792	1	69
418.962	1	59
419.133	1	69
419.304	1	72
419.474	1	67
419.645	1	74
419.815	1	60
419.986	1	71
420.157	1	78
420.327	1	65
420.498	1	69
420.669	1	74
420.839	1	63
421.010	1	55
421.180	1	68
421.351	1	71
421.522	1	64
421.692	1	69
421.863	1	77
422.033	1	61
422.204	1	73
422.375	1	62
422.545	1	69
422.716	1	75
422.886	1	64
423.057	1	79
423.228	1	70
423.398	1	78
423.569	1	73
423.740	1	64
423.910	1	83
424.081	1	65
424.251	1	65
424.422	1	66
424.593	1	66
424.763	1	72
424.934	1	72
425.104	1	71
425.275	1	81
425.445	1	64
425.616	1	66
425.787	1	65
425.957	1	60
426.128	1	75
426.298	1	82
426.469	1	63
426.640	1	56
426.810	1	85
426.981	1	60
427.151	1	65
427.322	1	76
427.493	1	71
427.663	1	70
427.834	1	64
428.004	1	60
428.175	1	79
428.345	1	62
428.516	1	72
428.687	1	70
428.857	1	62
429.028	1	57
429.198	1	78
429.369	1	76
429.540	1	66
429.710	1	67
429.881	1	63
430.051	1	68
430.222	1	72
430.392	1	64
430.563	1	67
430.734	1	56
430.904	1	64
431.075	1	77
431.245	1	69
431.416	1	75
431.586	1	53
431.757	1	70
431.927	1	73
432.098	1	57
432.269	1	60
432.439	1	68
432.610	1	85
432.780	1	63
432.951	1	67
433.121	1	71
433.292	1	67
433.462	1	60
433.633	1	54
433.804	1	55
433.974	1	61
434.145	1	67
434.315	1	61
434.486	1	74
434.656	1	71
434.827	1	70
434.997	1	57
435.168	1	76
435.339	1	58
435.509	1	64
435.680	1	67
435.850	1	62
436.021	1	75
436.191	1	71
436.362	1	72
436.532	1	71
436.703	1	69
436.873	1	66
437.044	1	58
437.214	1	58
437.385	1	62
437.556	1	65
437.726	1	73
437.897	1	66
438.067	1	57
438.238	1	71
438.408	1	67
438.579	1	70
438.749	1	59
438.920	1	73
439.090	1	66
439.261	1	69
439.431	1	62
439.602	1	65
439.772	1	71
439.943	1	73
440.113	1	73
440.284	1	66
440.455	1	56
440.625	1	71
440.796	1	67
440.966	1	57
441.137	1	53
441.307	1	64
441.478	1	65
441.648	1	65
441.819	1	58
441.989	1	68
442.160	1	60
442.330	1	62
442.501	1	57
442.671	1	58
442.842	1	77
443.012	1	51
443.183	1	65
443.353	1	59
443.524	1	52
443.694	1	66
443.865	1	69
444.035	1	50
444.206	1	58
444.376	1	54
444.547	1	70
444.717	1	47
444.888	1	62
445.058	1	56
445.229	1	67
445.399	1	56
445.570	1	41
445.740	1	57
445.911	1	69
446.081	1	69
446.252	1	66
446.422	1	55
446.593	1	52
446.763	1	58
446.934	1	53
447.104	1	55
447.275	1	57
447.445	1	62
447.616	1	51
447.786	1	45
447.957	1	59
448.127	1	62
448.298	1	60
448.468	1	61
448.639	1	51
448.809	1	66
448.979	1	44
449.150	1	50
449.320	1	54
449.491	1	53
449.661	1	65
449.832	1	48
450.002	1	54
450.173	1	49
450.343	1	49
450.514	1	58
450.684	1	58
450.855	1	61
451.025	1	52
451.196	1	58
451.366	1	58
451.537	1	56
451.707	1	58
451.878	1	36
452.048	1	52
452.218	1	52
452.389	1	57
452.559	1	44
452.730	1	52
452.900	1	58
453.071	1	62
453.241	1	48
453.412	1	51
453.582	1	46
453.753	1	55
453.923	1	66
454.093	1	59
454.264	1	66
454.434	1	63
454.605	1	67
454.775	1	68
454.946	1	56
455.116	1	56
455.287	1	44
455.457	1	49
455.628	1	48
455.798	1	49
455.968	1	54
456.139	1	44
456.309	1	47
456.480	1	57
456.650	1	57
456.821	1	55
456.991	1	53
457.161	1	53
457.332	1	48
457.502	1	41
457.673	1	44
457.843	1	57
458.014	1	46
458.184	1	40
458.355	1	49
458.525	1	40
458.695	1	44
458.866	1	53
459.036	1	43
459.207	1	47
459.377	1	53
459.548	1	36
459.718	1	43
459.888	1	64
460.059	1	46
460.229	1	49
460.400	1	60
460.570	1	50
460.740	1	47
460.911	1	37
461.081	1	39
461.252	1	54
461.422	1	52
461.593	1	41
461.763	1	58
461.933	1	44
462.104	1	46
462.274	1	49
462.445	1	51
462.615	1	47
462.785	1	42
462.956	1	49
463.126	1	32
463.297	1	48
463.467	1	60
463.638	1	47
463.808	1	38
463.978	1	39
464.149	1	47
464.319	1	43
464.490	1	41
464.660	1	39
464.830	1	29
465.001	1	47
465.171	1	43
465.342	1	58
465.512	1	45
465.682	1	43
465.853	1	40
466.023	1	51
466.194	1	39
466.364	1	50
466.534	1	48
466.705	1	44
466.875	1	52
467.045	1	39
467.216	1	50
467.386	1	51
467.557	1	44
467.727	1	34
467.897	1	33
468.068	1	51
468.238	1	47
468.409	1	33
468.579	1	40
468.749	1	42
468.920	1	40
469.090	1	38
469.260	1	37
469.431	1	47
469.601	1	37
469.772	1	36
469.942	1	42
470.112	1	36
470.283	1	48
470.453	1	48
470.623	1	51
470.794	1	40
470.964	1	26
471.135	1	35
471.305	1	37
471.475	1	27
471.646	1	36
471.816	1	41
471.986	1	46
472.157	1	37
472.327	1	26
472.497	1	24
472.668	1	41
472.838	1	39
473.009	1	50
473.179	1	43
473.349	1	35
473.520	1	44
473.690	1	41
473.860	1	42
474.031	1	37
474.201	1	47
474.371	1	31
474.542	1	43
474.712	1	20
474.882	1	42
475.053	1	45
475.223	1	36
475.394	1	46
475.564	1	37
475.734	1	30
475.905	1	28
476.075	1	34
476.245	1	47
476.416	1	37
476.586	1	32
476.756	1	41
476.927	1	44
477.097	1	40
477.267	1	44
477.438	1	30
477.608	1	28
477.778	1	49
477.949	1	41
478.119	1	36
478.289	1	41
478.460	1	40
478.630	1	31
478.800	1	30
478.971	1	45
479.141	1	30
479.311	1	40
479.482	1	33
479.652	1	36
479.822	1	31
479.993	1	31
480.163	1	34
480.333	1	35
480.504	1	39
480.674	1	36
480.844	1	44
481.015	1	38
481.185	1	41
481.355	1	21
481.525	1	37
481.696	1	35
481.866	1	33
482.036	1	33
482.207	1	33
482.377	1	36
482.547	1	31
482.718	1	42
482.888	1	33
483.058	1	30
483.229	1	33
483.399	1	36
483.569	1	36
483.740	1	27
483.910	1	25
484.080	1	28
484.250	1	34
484.421	1	41
484.591	1	42
484.761	1	34
484.932	1	35
485.102	1	39
485.272	1	29
485.443	1	22
485.613	1	33
485.783	1	30
485.953	1	29
486.124	1	19
486.294	1	36
486.464	1	30
486.635	1	30
486.805	1	23
486.975	1	21
487.146	1	32
487.316	1	36
487.486	1	29
487.656	1	24
487.827	1	34
487.997	1	31
488.167	1	23
488.338	1	23
488.508	1	28
488.678	1	29
488.848	1	34
489.019	1	35
489.189	1	37
489.359	1	32
489.529	1	28
489.700	1	27
489.870	1	26
490.040	1	26
490.211	1	37
490.381	1	25
490.551	1	17
490.721	1	31
490.892	1	39
491.062	1	20
491.232	1	17
491.402	1	35
491.573	1	24
491.743	1	26
491.913	1	24
492.084	1	17
492.254	1	44
492.424	1	23
492.594	1	26
492.765	1	37
492.935	1	28
493.105	1	22
493.275	1	27
493.446	1	30
493.616	1	24
493.786	1	32
493.956	1	19
494.127	1	14
494.297	1	33
494.467	1	24
494.637	1	32
494.808	1	20
494.978	1	20
495.148	1	26
495.318	1	15
495.489	1	22
495.659	1	39
495.829	1	32
495.999	1	27
496.170	1	26
496.340	1	22
496.510	1	23
496.680	1	30
496.851	1	15
497.021	1	22
497.191	1	26
497.361	1	29
497.532	1	23
497.702	1	32
497.872	1	27
498.042	1	20
498.213	1	34
498.383	1	26
498.553	1	16
498.723	1	25
498.894	1	29
499.064	1	18
499.234	1	26
499.404	1	22
499.574	1	23
499.745	1	28
499.915	1	19
500.085	1	18
500.255	1	33
500.426	1	13
500.596	1	24
500.766	1	23
500.936	1	24
501.106	1	28
501.277	1	26
501.447	1	20
501.617	1	17
501.787	1	26
501.958	1	19
502.128	1	32
502.298	1	22
502.468	1	23
502.638	1	15
502.809	1	13
502.979	1	5
503.149	1	21
503.319	1	28
503.489	1	26
503.660	1	22
503.830	1	31
504.000	1	36
504.170	1	22
504.340	1	14
504.511	1	29
504.681	1	27
504.851	1	39
505.021	1	25
505.192	1	22
505.362	1	17
505.532	1	10
505.702	1	13
505.872	1	33
506.043	1	14
506.213	1	15
506.383	1	28
506.553	1	17
506.723	1	26
506.893	1	14
507.064	1	24
507.234	1	17
507.404	1	33
507.574	1	24
507.744	1	23
507.915	1	17
508.085	1	7
508.255	1	19
508.425	1	19
508.595	1	9
508.766	1	16
508.936	1	37
509.106	1	17
509.276	1	15
509.446	1	16
509.616	1	19
509.787	1	25
509.957	1	10
510.127	1	20
510.297	1	21
510.467	1	16
510.638	1	13
510.808	1	12
510.978	1	21
511.148	1	24
511.318	1	14
511.488	1	20
511.659	1	23
511.829	1	18
511.999	1	16
512.169	1	4
512.339	1	15
512.509	1	6
512.680	1	19
512.850	1	7
513.020	1	26
513.190	1	20
513.360	1	15
513.530	1	14
513.700	1	16
513.871	1	14
514.041	1	13
514.211	1	24
514.381	1	28
514.551	1	8
514.721	1	12
514.892	1	19
515.062	1	16
515.232	1	15
515.402	1	25
515.572	1	20
515.742	1	21
515.912	1	17
516.083	1	16
516.253	1	27
516.423	1	10
516.593	1	12
516.763	1	22
516.933	1	21
517.104	1	9
517.274	1	18
517.444	1	14
517.614	1	15
517.784	1	16
517.954	1	12
518.124	1	20
518.294	1	10
518.465	1	24
518.635	1	23
518.805	1	10
518.975	1	12
519.145	1	15
519.315	1	12
519.485	1	15
519.656	1	22
519.826	1	9
519.996	1	20
520.166	1	9
520.336	1	11
520.506	1	21
520.676	1	24
520.846	1	8
521.017	1	13
521.187	1	19
521.357	1	12
521.527	1	16
521.697	1	17
521.867	1	10
522.037	1	17
522.207	1	19
522.377	1	18
522.548	1	18
522.718	1	21
522.888	1	23
523.058	1	6
523.228	1	11
523.398	1	22
523.568	1	13
523.738	1	14
523.909	1	16
524.079	1	17
524.249	1	11
524.419	1	18
524.589	1	20
524.759	1	18
524.929	1	10
525.099	1	4
525.269	1	1
525.439	1	22
525.610	1	5
525.780	1	13
525.950	1	25
526.120	1	7
526.290	1	17
526.460	1	22
526.630	1	13
526.800	1	9
526.970	1	16
527.140	1	19
527.311	1	22
527.481	1	3
527.651	1	13
527.821	1	11
527.991	1	7
528.161	1	9
528.331	1	17
528.501	1	10
528.671	1	20
528.841	1	27
529.011	1	16
529.181	1	18
529.352	1	16
529.522	1	26
529.692	1	8
529.862	1	12
530.032	1	4
530.202	1	16
530.372	1	17
530.542	1	11
530.712	1	22
530.882	1	21
531.052	1	16
531.222	1	8
531.392	1	15
531.563	1	11
531.733	1	3
531.903	1	13
532.073	1	19
532.243	1	13
532.413	1	7
532.583	1	16
532.753	1	16
532.923	1	7
533.093	1	16
533.263	1	14
533.433	1	18
533.603	1	7
533.773	1	9
533.943	1	11
534.113	1	13
534.284	1	5
534.454	1	16
534.624	1	11
534.794	1	18
534.964	1	10
535.134	1	21
535.304	1	25
535.474	1	9
535.644	1	14
535.814	1	16
535.984	1	18
536.154	1	11
536.324	1	8
536.494	1	18
536.664	1	17
536.834	1	14
537.004	1	13
537.174	1	10
537.344	1	15
537.514	1	20
537.685	1	6
537.855	1	8
538.025	1	22
538.195	1	13
538.365	1	11
538.535	1	10
538.705	1	12
538.875	1	14
539.045	1	12
539.215	1	17
539.385	1	8
539.555	1	10
539.725	1	1
539.895	1	26
540.065	1	9
540.235	1	17
540.405	1	13
540.575	1	12
540.745	1	9
540.915	1	10
541.085	1	4
541.255	1	20
541.425	1	10
541.595	1	18
541.765	1	19
541.935	1	4
542.105	1	13
542.275	1	11
542.445	1	17
542.615	1	12
542.785	1	10
542.955	1	3
543.125	1	12
543.295	1	21
543.465	1	5
543.635	1	12
543.805	1	7
543.975	1	1
544.145	1	15
544.315	1	0
544.485	1	16
544.655	1	8
544.825	1	3
544.995	1	16
545.165	1	8
545.335	1	4
545.505	1	5
545.675	1	-3
545.845	1	13
546.015	1	5
546.185	1	5
546.355	1	10
546.525	1	7
546.695	1	9
546.865	1	11
547.035	1	4
547.205	1	23
547.375	1	15
547.545	1	0
547.715	1	12
547.885	1	9
548.055	1	9
548.225	1	16
548.395	1	11
548.565	1	13
548.735	1	4
548.905	1	8
549.075	1	13
549.245	1	19
549.415	1	10
549.585	1	7
549.755	1	15
549.925	1	13
550.095	1	1
550.265	1	18
550.435	1	10
550.605	1	10
550.775	1	18
550.945	1	13
551.115	1	16
551.285	1	8
551.455	1	6
551.625	1	8
551.795	1	4
551.965	1	10
552.135	1	8
552.305	1	0
552.475	1	3
552.645	1	12
552.815	1	13
552.985	1	3
553.155	1	16
553.325	1	0
553.495	1	17
553.665	1	-4
553.835	1	21
554.004	1	15
554.174	1	17
554.344	1	5
554.514	1	5
554.684	1	0
554.854	1	7
555.024	1	9
555.194	1	15
555.364	1	23
555.534	1	-4
555.704	1	18
555.874	1	6
556.044	1	17
556.214	1	15
556.384	1	10
556.554	1	3
556.724	1	0
556.894	1	-1
557.064	1	2
557.234	1	3
557.404	1	8
557.573	1	6
557.743	1	14
557.913	1	20
558.083	1	1
558.253	1	14
558.423	1	5
558.593	1	1
558.763	1	14
558.933	1	6
559.103	1	15
559.273	1	6
559.443	1	10
559.613	1	0
559.783	1	3
559.953	1	8
560.122	1	7
560.292	1	16
560.462	1	13
560.632	1	3
560.802	1	9
560.972	1	3
561.142	1	7
561.312	1	9
561.482	1	3
561.652	1	5
561.822	1	3
561.992	1	-2
562.162	1	18
562.331	1	4
562.501	1	15
562.671	1	20
562.841	1	2
563.011	1	12
563.181	1	13
563.351	1	5
563.521	1	10
563.691	1	8
563.861	1	13
564.031	1	8
564.201	1	16
564.370	1	16
564.540	1	5
564.710	1	3
564.880	1	12
565.050	1	3
565.220	1	5
565.390	1	10
565.560	1	20
565.730	1	15
565.900	1	14
566.069	1	20
566.239	1	10
566.409	1	-6
566.579	1	8
566.749	1	6
566.919	1	8
567.089	1	8
567.259	1	7
567.429	1	3
567.599	1	19
567.768	1	7
567.938	1	-1
568.108	1	10
568.278	1	14
568.448	1	13
568.618	1	4
568.788	1	6
568.958	1	9
569.128	1	24
569.297	1	10
569.467	1	9
569.637	1	11
569.807	1	11
569.977	1	6
570.147	1	3
570.317	1	3
570.487	1	2
570.656	1	-5
570.826	1	10
570.996	1	0
571.166	1	18
571.336	1	-2
571.506	1	13
571.676	1	20
571.846	1	7
572.015	1	3
572.185	1	6
572.355	1	5
572.525	1	5
572.695	1	5
572.865	1	7
573.035	1	17
573.205	1	7
573.374	1	13
573.544	1	12
573.714	1	3
573.884	1	6
574.054	1	12
574.224	1	5
574.394	1	7
574.563	1	14
574.733	1	6
574.903	1	13
575.073	1	10
575.243	1	-1
575.413	1	-1
575.583	1	10
575.752	1	9
575.922	1	5
576.092	1	0
576.262	1	0
576.432	1	8
576.602	1	6
576.772	1	13
576.941	1	13
577.111	1	5
577.281	1	5
577.451	1	9
577.621	1	11
577.791	1	3
577.960	1	14
578.130	1	9
578.300	1	-1
578.470	1	0
578.640	1	12
578.810	1	-1
578.979	1	5
579.149	1	8
579.319	1	4
579.489	1	0
579.659	1	-1
579.829	1	11
579.998	1	12
580.168	1	2
580.338	1	9
580.508	1	15
580.678	1	1
580.848	1	6
581.017	1	16
581.187	1	13
581.357	1	3
581.527	1	2
581.697	1	11
581.867	1	11
582.036	1	2
582.206	1	1
582.376	1	5
582.546	1	-4
582.716	1	5
582.885	1	-5
583.055	1	10
583.225	1	12
583.395	1	22
583.565	1	7
583.735	1	8
583.904	1	14
584.074	1	-4
584.244	1	5
584.414	1	10
584.584	1	8
584.753	1	16
584.923	1	7
585.093	1	16
585.263	1	11
585.433	1	-1
585.602	1	10
585.772	1	-3
585.942	1	16
586.112	1	7
586.282	1	15
586.451	1	21
586.621	1	10
586.791	1	16
586.961	1	1
587.131	1	6
587.300	1	-1
587.470	1	-9
587.640	1	7
587.810	1	10
587.980	1	17
588.149	1	9
588.319	1	14
588.489	1	7
588.659	1	10
588.829	1	14
588.998	1	11
589.168	1	11
589.338	1	10
589.508	1	11
589.677	1	19
589.847	1	9
590.017	1	1
590.187	1	7
590.357	1	14
590.526	1	-2
590.696	1	2
590.866	1	11
591.036	1	14
591.205	1	14
591.375	1	14
591.545	1	9
591.715	1	8
591.885	1	5
592.054	1	5
592.224	1	8
592.394	1	9
592.564	1	5
592.733	1	-14
592.903	1	7
593.073	1	8
593.243	1	13
593.412	1	10
593.582	1	9
593.752	1	1
593.922	1	7
594.091	1	4
594.261	1	-3
594.431	1	19
594.601	1	4
594.771	1	17
594.940	1	8
595.110	1	6
595.280	1	4
595.450	1	12
595.619	1	11
595.789	1	7
595.959	1	19
596.129	1	-4
596.298	1	20
596.468	1	2
596.638	1	7
596.808	1	19
596.977	1	0
597.147	1	-1
597.317	1	6
597.487	1	9
597.656	1	8
597.826	1	8
597.996	1	18
598.166	1	15
598.335	1	17
598.505	1	16
598.675	1	-3
598.844	1	2
599.014	1	14
599.184	1	7
599.354	1	9
599.523	1	11
599.693	1	15
599.863	1	10
600.033	1	7
600.202	1	18
600.372	1	13
600.542	1	1
600.712	1	16
600.881	1	2
601.051	1	15
601.221	1	12
601.390	1	-11
601.560	1	16
601.730	1	14
601.900	1	6
602.069	1	5
602.239	1	15
602.409	1	4
602.578	1	6
602.748	1	7
602.918	1	12
603.088	1	12
603.257	1	14
603.427	1	13
603.597	1	6
603.767	1	8
603.936	1	13
604.106	1	10
604.276	1	14
604.445	1	17
604.615	1	3
604.785	1	14
604.954	1	13
605.124	1	3
605.294	1	13
605.464	1	14
605.633	1	6
605.803	1	-4
605.973	1	15
606.142	1	16
606.312	1	3
606.482	1	10
606.652	1	10
606.821	1	-4
606.991	1	7
607.161	1	11
607.330	1	5
607.500	1	11
607.670	1	12
607.839	1	15
608.009	1	12
608.179	1	8
608.348	1	20
608.518	1	-1
608.688	1	6
608.858	1	20
609.027	1	15
609.197	1	2
609.367	1	14
609.536	1	8
609.706	1	0
609.876	1	22
610.045	1	-3
610.215	1	12
610.385	1	4
610.554	1	10
610.724	1	8
610.894	1	21
611.063	1	7
611.233	1	12
611.403	1	10
611.572	1	7
611.742	1	-2
611.912	1	6
612.081	1	5
612.251	1	19
612.421	1	6
612.590	1	8
612.760	1	12
612.930	1	9
613.099	1	10
613.269	1	4
613.439	1	8
613.608	1	12
613.778	1	6
613.948	1	8
614.117	1	12
614.287	1	10
614.457	1	-6
614.626	1	17
614.796	1	5
614.966	1	10
615.135	1	12
615.305	1	19
615.475	1	17
615.644	1	7
615.814	1	1
615.984	1	11
616.153	1	9
616.323	1	12
616.493	1	19
616.662	1	10
616.832	1	12
617.002	1	6
617.171	1	8
617.341	1	9
617.511	1	9
617.680	1	19
617.850	1	13
618.019	1	4
618.189	1	18
618.359	1	6
618.528	1	10
618.698	1	23
618.868	1	9
619.037	1	7
619.207	1	6
619.377	1	6
619.546	1	7
619.716	1	10
619.885	1	13
620.055	1	7
620.225	1	16
620.394	1	11
620.564	1	20
620.734	1	6
620.903	1	17
621.073	1	4
621.242	1	15
621.412	1	23
621.582	1	2
621.751	1	15
621.921	1	8
622.091	1	24
622.260	1	5
622.430	1	4
622.599	1	9
622.769	1	6
622.939	1	16
623.108	1	17
623.278	1	11
623.448	1	15
623.617	1	16
623.787	1	11
623.956	1	21
624.126	1	11
624.296	1	12
624.465	1	16
624.635	1	9
624.804	1	2
624.974	1	17
625.144	1	17
625.313	1	-2
625.483	1	29
625.652	1	12
625.822	1	2
625.992	1	17
626.161	1	29
626.331	1	14
626.501	1	10
626.670	1	12
626.840	1	21
627.009	1	17
627.179	1	6
627.348	1	21
627.518	1	19
627.688	1	15
627.857	1	16
628.027	1	1
628.196	1	10
628.366	1	4
628.536	1	12
628.705	1	5
628.875	1	17
629.044	1	17
629.214	1	16
629.384	1	14
629.553	1	24
629.723	1	1
629.892	1	16
630.062	1	11
630.232	1	14
630.401	1	23
630.571	1	20
630.740	1	11
630.910	1	15
631.079	1	16
631.249	1	13
631.419	1	5
631.588	1	6
631.758	1	13
631.927	1	9
632.097	1	11
632.266	1	16
632.436	1	14
632.606	1	15
632.775	1	14
632.945	1	18
633.114	1	4
633.284	1	6
633.453	1	0
633.623	1	11
633.793	1	7
633.962	1	14
634.132	1	14
634.301	1	22
634.471	1	5
634.640	1	18
634.810	1	14
634.979	1	14
635.149	1	14
635.319	1	24
635.488	1	27
635.658	1	15
635.827	1	7
635.997	1	13
636.166	1	12
636.336	1	14
636.505	1	16
636.675	1	14
636.845	1	16
637.014	1	13
637.184	1	18
637.353	1	8
637.523	1	19
637.692	1	16
637.862	1	21
638.031	1	14
638.201	1	23
638.370	1	8
638.540	1	10
638.710	1	24
638.879	1	13
639.049	1	12
639.218	1	11
639.388	1	10
639.557	1	14
639.727	1	12
639.896	1	12
640.066	1	25
640.235	1	22
640.405	1	7
640.574	1	14
640.744	1	15
640.914	1	14
641.083	1	24
641.253	1	19
641.422	1	17
641.592	1	0
641.761	1	18
641.931	1	8
642.100	1	16
642.270	1	10
642.439	1	17
642.609	1	9
642.778	1	11
642.948	1	5
643.117	1	22
643.287	1	13
643.456	1	12
643.626	1	22
643.795	1	22
643.965	1	13
644.134	1	13
644.304	1	19
644.473	1	18
644.643	1	14
644.812	1	25
644.982	1	15
645.151	1	23
645.321	1	7
645.490	1	18
645.660	1	5
645.829	1	6
645.999	1	13
646.168	1	4
646.338	1	20
646.507	1	16
646.677	1	16
646.846	1	18
647.016	1	23
647.185	1	7
647.355	1	13
647.524	1	11
647.694	1	3
647.863	1	11
648.033	1	2
648.202	1	20
648.372	1	22
648.541	1	13
648.711	1	22
648.880	1	17
649.050	1	5
649.219	1	1
649.389	1	5
649.558	1	15
649.728	1	11
649.897	1	11
650.067	1	15
650.236	1	18
650.406	1	6
650.575	1	16
650.745	1	12
650.914	1	8
651.084	1	1
651.253	1	16
651.423	1	11
651.592	1	20
651.762	1	15
651.931	1	14
652.101	1	20
652.270	1	23
652.440	1	10
652.609	1	3
652.778	1	-2
652.948	1	14
653.117	1	1
653.287	1	25
653.456	1	19
653.626	1	5
653.795	1	24
653.965	1	12
654.134	1	12
654.304	1	16
654.473	1	8
654.643	1	12
654.812	1	5
654.982	1	12
655.151	1	17
655.320	1	16
655.490	1	20
655.659	1	7
655.829	1	23
655.998	1	9
656.168	1	10
656.337	1	19
656.507	1	14
656.676	1	27
656.846	1	18
657.015	1	12
657.184	1	19
657.354	1	18
657.523	1	11
657.693	1	14
657.862	1	3
658.032	1	9
658.201	1	17
658.371	1	7
658.540	1	2
658.709	1	3
658.879	1	2
659.048	1	11
659.218	1	19
659.387	1	8
659.557	1	12
659.726	1	20
659.895	1	13
660.065	1	10
660.234	1	18
660.404	1	22
660.573	1	17
660.743	1	21
660.912	1	9
661.081	1	25
661.251	1	18
661.420	1	16
661.590	1	10
661.759	1	10
661.929	1	12
662.098	1	8
662.267	1	-1
662.437	1	14
662.606	1	17
662.776	1	17
662.945	1	11
663.115	1	19
663.284	1	16
663.453	1	12
663.623	1	27
663.792	1	9
663.962	1	6
664.131	1	13
664.300	1	15
664.470	1	18
664.639	1	12
664.809	1	17
664.978	1	4
665.148	1	9
665.317	1	11
665.486	1	22
665.656	1	9
665.825	1	10
665.995	1	11
666.164	1	17
666.333	1	18
666.503	1	17
666.672	1	22
666.842	1	11
667.011	1	22
667.180	1	16
667.350	1	15
667.519	1	20
667.689	1	6
667.858	1	18
668.027	1	31
668.197	1	9
668.366	1	14
668.536	1	20
668.705	1	15
668.874	1	21
669.044	1	15
669.213	1	14
669.382	1	8
669.552	1	18
669.721	1	34
669.891	1	19
670.060	1	19
670.229	1	11
670.399	1	20
670.568	1	5
670.738	1	3
670.907	1	11
671.076	1	10
671.246	1	23
671.415	1	22
671.584	1	11
671.754	1	15
671.923	1	21
672.093	1	21
672.262	1	13
672.431	1	4
672.601	1	12
672.770	1	13
672.939	1	12
673.109	1	19
673.278	1	30
673.448	1	13
673.617	1	0
673.786	1	8
