325.333	1	10
325.504	1	-6
325.675	1	-2
325.846	1	-10
326.017	1	2
326.188	1	-4
326.359	1	-5
326.531	1	-16
326.702	1	0
326.873	1	6
327.044	1	0
327.215	1	-12
327.386	1	-9
327.557	1	-4
327.728	1	7
327.899	1	-3
328.070	1	-1
328.241	1	-4
328.412	1	-6
328.583	1	4
328.754	1	-7
328.926	1	-4
329.097	1	-9
329.268	1	-6
329.439	1	-5
329.610	1	3
329.781	1	-11
329.952	1	9
330.123	1	-4
330.294	1	-12
330.465	1	-9
330.636	1	3
330.807	1	-6
330.978	1	-4
331.149	1	4
331.320	1	1
331.492	1	-9
331.663	1	-4
331.834	1	-3
332.005	1	-3
332.176	1	-4
332.347	1	10
332.518	1	6
332.689	1	0
332.860	1	-6
333.031	1	-1
333.202	1	-17
333.373	1	15
333.544	1	-10
333.715	1	10
333.886	1	-12
334.057	1	1
334.228	1	0
334.399	1	3
334.570	1	-7
334.741	1	4
334.912	1	5
335.084	1	-6
335.255	1	-8
335.426	1	-8
335.597	1	1
335.768	1	0
335.939	1	2
336.110	1	7
336.281	1	1
336.452	1	4
336.623	1	0
336.794	1	-14
336.965	1	-12
337.136	1	-9
337.307	1	4
337.478	1	-9
337.649	1	0
337.820	1	-11
337.991	1	5
338.162	1	-7
338.333	1	-10
338.504	1	-9
338.675	1	-1
338.846	1	-7
339.017	1	8
339.188	1	-5
339.359	1	-1
339.530	1	11
339.701	1	-6
339.872	1	4
340.043	1	-21
340.214	1	-13
340.385	1	-8
340.556	1	-8
340.727	1	2
340.898	1	6
341.069	1	5
341.240	1	-4
341.411	1	-9
341.582	1	6
341.753	1	-7
341.924	1	-7
342.095	1	-6
342.266	1	-8
342.437	1	-5
342.608	1	-3
342.779	1	-14
342.950	1	-7
343.121	1	-3
343.292	1	-10
343.463	1	-5
343.634	1	-6
343.805	1	-10
343.976	1	-1
344.147	1	-9
344.318	1	-4
344.489	1	3
344.660	1	-5
344.831	1	3
345.002	1	8
345.173	1	-10
345.344	1	-1
345.515	1	-8
345.686	1	10
345.857	1	-6
346.028	1	-3
346.199	1	-12
346.370	1	6
346.541	1	-5
346.712	1	-15
346.883	1	0
347.054	1	-1
347.225	1	-2
347.396	1	-18
347.567	1	4
347.738	1	-14
347.909	1	-10
348.080	1	-1
348.251	1	-4
348.422	1	-2
348.593	1	-7
348.764	1	-7
348.935	1	-9
349.106	1	-4
349.277	1	-6
349.448	1	-9
349.619	1	-5
349.790	1	-4
349.961	1	0
350.132	1	7
350.303	1	-4
350.474	1	-13
350.645	1	-7
350.816	1	-10
350.987	1	-1
351.157	1	-6
351.328	1	-9
351.499	1	3
351.670	1	-5
351.841	1	-1
352.012	1	7
352.183	1	7
352.354	1	-13
352.525	1	-6
352.696	1	9
352.867	1	-8
353.038	1	-15
353.209	1	0
353.380	1	-13
353.551	1	-15
353.722	1	-2
353.893	1	-3
354.064	1	-3
354.235	1	0
354.406	1	4
354.576	1	-1
354.747	1	-6
354.918	1	12
355.089	1	1
355.260	1	6
355.431	1	-5
355.602	1	-2
355.773	1	-7
355.944	1	-14
356.115	1	13
356.286	1	-3
356.457	1	-4
356.628	1	-8
356.799	1	-4
356.970	1	-2
357.141	1	-13
357.311	1	7
357.482	1	-3
357.653	1	-9
357.824	1	-3
357.995	1	-1
358.166	1	-2
358.337	1	2
358.508	1	-2
358.679	1	-5
358.850	1	0
359.021	1	-1
359.192	1	3
359.363	1	-9
359.533	1	-12
359.704	1	6
359.875	1	1
360.046	1	5
360.217	1	8
360.388	1	-3
360.559	1	1
360.730	1	-4
360.901	1	-11
361.072	1	3
361.243	1	-3
361.414	1	3
361.584	1	-5
361.755	1	-2
361.926	1	2
362.097	1	3
362.268	1	0
362.439	1	-8
362.610	1	-13
362.781	1	-10
362.952	1	-8
363.123	1	-4
363.293	1	-14
363.464	1	-7
363.635	1	-1
363.806	1	-1
363.977	1	8
364.148	1	-2
364.319	1	-5
364.490	1	2
364.661	1	-8
364.832	1	8
365.002	1	-1
365.173	1	-2
365.344	1	0
365.515	1	-9
365.686	1	-4
365.857	1	2
366.028	1	0
366.199	1	-3
366.370	1	7
366.540	1	-2
366.711	1	-7
366.882	1	-11
367.053	1	-6
367.224	1	-9
367.395	1	-2
367.566	1	-9
367.737	1	-5
367.908	1	-7
368.078	1	4
368.249	1	0
368.420	1	-12
368.591	1	6
368.762	1	-10
368.933	1	-14
369.104	1	8
369.274	1	-9
369.445	1	2
369.616	1	0
369.787	1	-1
369.958	1	-5
370.129	1	-7
370.300	1	-5
370.471	1	-6
370.641	1	-1
370.812	1	0
370.983	1	-8
371.154	1	-7
371.325	1	-7
371.496	1	0
371.667	1	5
371.837	1	1
372.008	1	-9
372.179	1	-7
372.350	1	-5
372.521	1	-1
372.692	1	-6
372.863	1	-6
373.033	1	-3
373.204	1	-9
373.375	1	-3
373.546	1	14
373.717	1	-9
373.888	1	9
374.059	1	0
374.229	1	2
374.400	1	-12
374.571	1	-8
374.742	1	-1
374.913	1	-3
375.084	1	6
375.254	1	3
375.425	1	-8
375.596	1	5
375.767	1	5
375.938	1	-4
376.109	1	-3
376.279	1	-8
376.450	1	0
376.621	1	-11
376.792	1	3
376.963	1	-2
377.134	1	3
377.304	1	-5
377.475	1	-3
377.646	1	-3
377.817	1	-10
377.988	1	-3
378.159	1	7
378.329	1	-14
378.500	1	2
378.671	1	2
378.842	1	-9
379.013	1	3
379.184	1	-13
379.354	1	-6
379.525	1	-5
379.696	1	2
379.867	1	2
380.038	1	1
380.209	1	-3
380.379	1	1
380.550	1	-4
380.721	1	-12
380.892	1	-7
381.063	1	-5
381.233	1	1
381.404	1	-7
381.575	1	-4
381.746	1	14
381.917	1	0
382.087	1	4
382.258	1	8
382.429	1	-9
382.600	1	-3
382.771	1	-4
382.941	1	3
383.112	1	5
383.283	1	7
383.454	1	-6
383.625	1	-11
383.795	1	0
383.966	1	-12
384.137	1	0
384.308	1	0
384.479	1	-11
384.649	1	-5
384.820	1	8
384.991	1	-4
385.162	1	-9
385.333	1	-3
385.503	1	-14
385.674	1	-17
385.845	1	4
386.016	1	-2
386.187	1	-1
386.357	1	0
386.528	1	-3
386.699	1	-3
386.870	1	-12
387.041	1	2
387.211	1	-6
387.382	1	-18
387.553	1	1
387.724	1	11
387.894	1	3
388.065	1	-9
388.236	1	0
388.407	1	-6
388.578	1	-10
388.748	1	-10
388.919	1	-2
389.090	1	-1
389.261	1	-1
389.431	1	-5
389.602	1	-1
389.773	1	4
389.944	1	2
390.114	1	3
390.285	1	-6
390.456	1	-19
390.627	1	-5
390.798	1	-6
390.968	1	-3
391.139	1	-11
391.310	1	-6
391.481	1	-6
391.651	1	-1
391.822	1	3
391.993	1	-6
392.164	1	-4
392.334	1	-1
392.505	1	0
392.676	1	2
392.847	1	-7
393.017	1	2
393.188	1	3
393.359	1	-6
393.530	1	4
393.700	1	-10
393.871	1	-12
394.042	1	-2
394.213	1	1
394.383	1	-7
394.554	1	-1
394.725	1	0
394.896	1	-7
395.066	1	-5
395.237	1	-3
395.408	1	1
395.579	1	-21
395.749	1	3
395.920	1	-5
396.091	1	1
396.262	1	3
396.432	1	-2
396.603	1	-1
396.774	1	-11
396.945	1	3
397.115	1	-8
397.286	1	-8
397.457	1	-5
397.627	1	-2
397.798	1	-1
397.969	1	-3
398.140	1	-4
398.310	1	2
398.481	1	-10
398.652	1	-11
398.823	1	-2
398.993	1	-1
399.164	1	-6
399.335	1	2
399.505	1	-5
399.676	1	-3
399.847	1	1
400.018	1	9
400.188	1	0
400.359	1	-1
400.530	1	-2
400.700	1	-12
400.871	1	-7
401.042	1	-1
401.213	1	-9
401.383	1	-8
401.554	1	-8
401.725	1	4
401.895	1	-11
402.066	1	0
402.237	1	3
402.408	1	0
402.578	1	-4
402.749	1	0
402.920	1	-7
403.090	1	-1
403.261	1	1
403.432	1	-14
403.603	1	-5
403.773	1	0
403.944	1	5
404.115	1	-10
404.285	1	-2
404.456	1	-5
404.627	1	2
404.797	1	-10
404.968	1	3
405.139	1	-2
405.310	1	-4
405.480	1	0
405.651	1	-7
405.822	1	-11
405.992	1	-3
406.163	1	2
406.334	1	1
406.504	1	0
406.675	1	6
406.846	1	4
407.016	1	1
407.187	1	-5
407.358	1	5
407.528	1	-9
407.699	1	-19
407.870	1	1
408.041	1	1
408.211	1	-2
408.382	1	-1
408.553	1	0
408.723	1	2
408.894	1	-10
409.065	1	5
409.235	1	-5
409.406	1	-6
409.577	1	-10
409.747	1	-15
409.918	1	-8
410.089	1	-4
410.259	1	-10
410.430	1	-2
410.601	1	-3
410.771	1	-10
410.942	1	-3
411.113	1	-3
411.283	1	-14
411.454	1	-1
411.625	1	-2
411.795	1	-10
411.966	1	9
412.137	1	4
412.307	1	1
412.478	1	7
412.649	1	-2
412.819	1	-4
412.990	1	-4
413.161	1	9
413.331	1	-3
413.502	1	4
413.672	1	-2
413.843	1	-7
414.014	1	0
414.184	1	-2
414.355	1	-4
414.526	1	4
414.696	1	-3
414.867	1	-4
415.038	1	-9
415.208	1	2
415.379	1	7
415.550	1	-4
415.720	1	-15
415.891	1	8
416.062	1	-4
416.232	1	-7
416.403	1	2
416.573	1	3
416.744	1	-4
416.915	1	5
417.085	1	1
417.256	1	-6
417.427	1	-8
417.597	1	5
417.768	1	-4
417.939	1	-10
418.109	1	-4
418.280	1	-5
418.450	1	0
418.621	1	2
418.792	1	-5
418.962	1	0
419.133	1	-10
419.304	1	-5
419.474	1	-4
419.645	1	-1
419.815	1	-4
419.986	1	6
420.157	1	-1
420.327	1	-4
420.498	1	1
420.669	1	-5
420.839	1	2
421.010	1	2
421.180	1	-7
421.351	1	-3
421.522	1	-3
421.692	1	-2
421.863	1	1
422.033	1	-7
422.204	1	9
422.375	1	-9
422.545	1	-4
422.716	1	-9
422.886	1	-15
423.057	1	-8
423.228	1	-2
423.398	1	-5
423.569	1	-8
423.740	1	-6
423.910	1	0
424.081	1	-7
424.251	1	-11
424.422	1	-3
424.593	1	-3
424.763	1	2
424.934	1	-4
425.104	1	-13
425.275	1	0
425.445	1	-5
425.616	1	6
425.787	1	6
425.957	1	-2
426.128	1	5
426.298	1	11
426.469	1	-4
426.640	1	-9
426.810	1	7
426.981	1	3
427.151	1	-2
427.322	1	8
427.493	1	-6
427.663	1	16
427.834	1	4
428.004	1	-9
428.175	1	3
428.345	1	-4
428.516	1	5
428.687	1	5
428.857	1	-3
429.028	1	-8
429.198	1	1
429.369	1	2
429.540	1	-6
429.710	1	2
429.881	1	-14
430.051	1	2
430.222	1	0
430.392	1	-10
430.563	1	-1
430.734	1	-4
430.904	1	0
431.075	1	-3
431.245	1	-4
431.416	1	4
431.586	1	-16
431.757	1	5
431.927	1	14
432.098	1	-18
432.269	1	-7
432.439	1	8
432.610	1	5
432.780	1	-4
432.951	1	-6
433.121	1	-2
433.292	1	-5
433.462	1	-2
433.633	1	-16
433.804	1	-3
433.974	1	6
434.145	1	-2
434.315	1	-1
434.486	1	18
434.656	1	9
434.827	1	-13
434.997	1	-11
435.168	1	-5
435.339	1	-6
435.509	1	-7
435.680	1	0
435.850	1	-9
436.021	1	4
436.191	1	4
436.362	1	-3
436.532	1	4
436.703	1	-7
436.873	1	-11
437.044	1	-8
437.214	1	-11
437.385	1	2
437.556	1	2
437.726	1	-5
437.897	1	3
438.067	1	-7
438.238	1	-5
438.408	1	-5
438.579	1	0
438.749	1	-5
438.920	1	-3
439.090	1	-7
439.261	1	5
439.431	1	-1
439.602	1	-10
439.772	1	-2
439.943	1	0
440.113	1	-11
440.284	1	-9
440.455	1	-3
440.625	1	8
440.796	1	0
440.966	1	-7
441.137	1	-5
441.307	1	-1
441.478	1	2
441.648	1	-12
441.819	1	-10
441.989	1	-4
442.160	1	-13
442.330	1	0
442.501	1	-5
442.671	1	-1
442.842	1	6
443.012	1	4
443.183	1	-3
443.353	1	5
443.524	1	-6
443.694	1	0
443.865	1	-1
444.035	1	1
444.206	1	-2
444.376	1	-6
444.547	1	4
444.717	1	-3
444.888	1	-11
445.058	1	-11
445.229	1	-8
445.399	1	-4
445.570	1	-9
445.740	1	-1
445.911	1	2
446.081	1	-3
446.252	1	-7
446.422	1	0
446.593	1	-9
446.763	1	-14
446.934	1	-3
447.104	1	1
447.275	1	-4
447.445	1	5
447.616	1	-7
447.786	1	4
447.957	1	-3
448.127	1	-1
448.298	1	-13
448.468	1	-6
448.639	1	-2
448.809	1	-3
448.979	1	-9
449.150	1	-9
449.320	1	-10
449.491	1	-1
449.661	1	15
449.832	1	0
450.002	1	-1
450.173	1	-2
450.343	1	1
450.514	1	4
450.684	1	-5
450.855	1	9
451.025	1	-7
451.196	1	-5
451.366	1	5
451.537	1	-7
451.707	1	4
451.878	1	-13
452.048	1	-7
452.218	1	-3
452.389	1	4
452.559	1	-14
452.730	1	-2
452.900	1	-10
453.071	1	-6
453.241	1	-1
453.412	1	-5
453.582	1	-9
453.753	1	-11
453.923	1	1
454.093	1	-7
454.264	1	0
454.434	1	3
454.605	1	-2
454.775	1	-1
454.946	1	2
455.116	1	-2
455.287	1	-6
455.457	1	0
455.628	1	1
455.798	1	-4
455.968	1	-4
456.139	1	-12
456.309	1	-12
456.480	1	0
456.650	1	6
456.821	1	-2
456.991	1	0
457.161	1	3
457.332	1	-6
457.502	1	-6
457.673	1	-5
457.843	1	-3
458.014	1	-2
458.184	1	-2
458.355	1	-2
458.525	1	0
458.695	1	-5
458.866	1	-4
459.036	1	-9
459.207	1	-4
459.377	1	-7
459.548	1	-6
459.718	1	-5
459.888	1	5
460.059	1	1
460.229	1	0
460.400	1	4
460.570	1	-2
460.740	1	-4
460.911	1	0
461.081	1	-5
461.252	1	1
461.422	1	-3
461.593	1	-12
461.763	1	-1
461.933	1	-4
462.104	1	4
462.274	1	-1
462.445	1	-7
462.615	1	-6
462.785	1	-12
462.956	1	-2
463.126	1	-12
463.297	1	1
463.467	1	9
463.638	1	-12
463.808	1	-8
463.978	1	-5
464.149	1	-1
464.319	1	-6
464.490	1	-3
464.660	1	-4
464.830	1	-4
465.001	1	10
465.171	1	-1
465.342	1	4
465.512	1	-2
465.682	1	-2
465.853	1	-15
466.023	1	7
466.194	1	-1
466.364	1	-3
466.534	1	-1
466.705	1	-2
466.875	1	-2
467.045	1	-4
467.216	1	-6
467.386	1	-5
467.557	1	-17
467.727	1	-7
467.897	1	-9
468.068	1	5
468.238	1	7
468.409	1	-9
468.579	1	-5
468.749	1	-10
468.920	1	2
469.090	1	2
469.260	1	-17
469.431	1	-11
469.601	1	5
469.772	1	-9
469.942	1	9
470.112	1	3
470.283	1	9
470.453	1	1
470.623	1	-3
470.794	1	-3
470.964	1	-11
471.135	1	-14
471.305	1	-4
471.475	1	-11
471.646	1	-7
471.816	1	-7
471.986	1	5
472.157	1	-2
472.327	1	-7
472.497	1	-16
472.668	1	-6
472.838	1	-1
473.009	1	3
473.179	1	-4
473.349	1	-3
473.520	1	-13
473.690	1	-3
473.860	1	-1
474.031	1	4
474.201	1	-1
474.371	1	-1
474.542	1	-3
474.712	1	-13
474.882	1	-2
475.053	1	3
475.223	1	-1
475.394	1	0
475.564	1	-8
475.734	1	-3
475.905	1	5
476.075	1	-1
476.245	1	5
476.416	1	-6
476.586	1	4
476.756	1	6
476.927	1	1
477.097	1	-5
477.267	1	2
477.438	1	-21
477.608	1	-1
477.778	1	6
477.949	1	8
478.119	1	0
478.289	1	-4
478.460	1	9
478.630	1	-5
478.800	1	-8
478.971	1	7
479.141	1	-8
479.311	1	-7
479.482	1	-6
479.652	1	-5
479.822	1	-5
479.993	1	-1
480.163	1	-10
480.333	1	-8
480.504	1	1
480.674	1	-1
480.844	1	1
481.015	1	-7
481.185	1	-6
481.355	1	-9
481.525	1	-4
481.696	1	3
481.866	1	-4
482.036	1	-4
482.207	1	-9
482.377	1	0
482.547	1	-1
482.718	1	-4
482.888	1	2
483.058	1	8
483.229	1	-1
483.399	1	1
483.569	1	-10
483.740	1	-11
483.910	1	-16
484.080	1	-6
484.250	1	-4
484.421	1	0
484.591	1	-2
484.761	1	-6
484.932	1	0
485.102	1	-3
485.272	1	-12
485.443	1	-4
485.613	1	-8
485.783	1	-4
485.953	1	0
486.124	1	-13
486.294	1	0
486.464	1	-6
486.635	1	-6
486.805	1	-8
486.975	1	-9
487.146	1	-4
487.316	1	0
487.486	1	-9
487.656	1	-11
487.827	1	9
487.997	1	-5
488.167	1	3
488.338	1	-12
488.508	1	-1
488.678	1	-3
488.848	1	-1
489.019	1	0
489.189	1	5
489.359	1	2
489.529	1	-9
489.700	1	-14
489.870	1	-5
490.040	1	-9
490.211	1	-8
490.381	1	-2
490.551	1	-16
490.721	1	-7
490.892	1	1
491.062	1	-7
491.232	1	-6
491.402	1	-4
491.573	1	-1
491.743	1	1
491.913	1	-6
492.084	1	-8
492.254	1	10
492.424	1	-12
492.594	1	3
492.765	1	-6
492.935	1	-1
493.105	1	-3
493.275	1	-4
493.446	1	-2
493.616	1	-3
493.786	1	2
493.956	1	-3
494.127	1	-7
494.297	1	-6
494.467	1	8
494.637	1	1
494.808	1	-12
494.978	1	-9
495.148	1	6
495.318	1	-1
495.489	1	-9
495.659	1	6
495.829	1	-1
495.999	1	1
496.170	1	-3
496.340	1	3
496.510	1	0
496.680	1	-1
496.851	1	-19
497.021	1	0
497.191	1	0
497.361	1	-2
497.532	1	-9
497.702	1	5
497.872	1	-12
498.042	1	-8
498.213	1	-2
498.383	1	4
498.553	1	-2
498.723	1	-11
498.894	1	8
499.064	1	-4
499.234	1	-5
499.404	1	-6
499.574	1	-7
499.745	1	3
499.915	1	-10
500.085	1	-4
500.255	1	-1
500.426	1	-2
500.596	1	7
500.766	1	2
500.936	1	-4
501.106	1	-9
501.277	1	5
501.447	1	3
501.617	1	-3
501.787	1	7
501.958	1	-4
502.128	1	14
502.298	1	6
502.468	1	-2
502.638	1	-6
502.809	1	-10
502.979	1	-11
503.149	1	7
503.319	1	-8
503.489	1	3
503.660	1	2
503.830	1	-13
504.000	1	-6
504.170	1	-2
504.340	1	-3
504.511	1	3
504.681	1	9
504.851	1	4
505.021	1	2
505.192	1	-10
505.362	1	-5
505.532	1	-9
505.702	1	-1
505.872	1	-2
506.043	1	-10
506.213	1	-5
506.383	1	-6
506.553	1	-14
506.723	1	4
506.893	1	-1
507.064	1	-3
507.234	1	-7
507.404	1	2
507.574	1	-3
507.744	1	-6
507.915	1	-10
508.085	1	-11
508.255	1	1
508.425	1	-1
508.595	1	-7
508.766	1	-17
508.936	1	14
509.106	1	-4
509.276	1	-4
509.446	1	-3
509.616	1	0
509.787	1	5
509.957	1	-4
510.127	1	1
510.297	1	-5
510.467	1	-6
510.638	1	-2
510.808	1	-14
510.978	1	1
511.148	1	7
511.318	1	1
511.488	1	9
511.659	1	6
511.829	1	3
511.999	1	-12
512.169	1	1
512.339	1	-1
512.509	1	-7
512.680	1	-10
512.850	1	1
513.020	1	0
513.190	1	4
513.360	1	-1
513.530	1	1
513.700	1	-6
513.871	1	-8
514.041	1	-3
514.211	1	-5
514.381	1	-2
514.551	1	-9
514.721	1	0
514.892	1	-3
515.062	1	5
515.232	1	5
515.402	1	8
515.572	1	-2
515.742	1	8
515.912	1	-1
516.083	1	-2
516.253	1	0
516.423	1	-4
516.593	1	-6
516.763	1	-7
516.933	1	8
517.104	1	-8
517.274	1	4
517.444	1	-5
517.614	1	-1
517.784	1	-5
517.954	1	-6
518.124	1	-2
518.294	1	-3
518.465	1	2
518.635	1	-6
518.805	1	-1
518.975	1	-8
519.145	1	3
519.315	1	-4
519.485	1	-6
519.656	1	5
519.826	1	-9
519.996	1	-5
520.166	1	-5
520.336	1	-10
520.506	1	0
520.676	1	11
520.846	1	5
521.017	1	0
521.187	1	-1
521.357	1	-10
521.527	1	-5
521.697	1	-5
521.867	1	-6
522.037	1	10
522.207	1	3
522.377	1	2
522.548	1	-11
522.718	1	-2
522.888	1	4
523.058	1	1
523.228	1	-10
523.398	1	5
523.568	1	-8
523.738	1	-9
523.909	1	2
524.079	1	-11
524.249	1	-4
524.419	1	7
524.589	1	-9
524.759	1	4
524.929	1	-16
525.099	1	-8
525.269	1	-13
525.439	1	6
525.610	1	-8
525.780	1	-9
525.950	1	10
526.120	1	-8
526.290	1	-12
526.460	1	-3
526.630	1	6
526.800	1	-4
526.970	1	8
527.140	1	8
527.311	1	6
527.481	1	-15
527.651	1	1
527.821	1	1
527.991	1	-7
528.161	1	-11
528.331	1	-2
528.501	1	-2
528.671	1	5
528.841	1	12
529.011	1	-8
529.181	1	-2
529.352	1	-1
529.522	1	-8
529.692	1	-8
529.862	1	-9
530.032	1	-3
530.202	1	0
530.372	1	0
530.542	1	-7
530.712	1	-4
530.882	1	5
531.052	1	-3
531.222	1	-12
531.392	1	-1
531.563	1	-3
531.733	1	-10
531.903	1	2
532.073	1	7
532.243	1	-3
532.413	1	-6
532.583	1	2
532.753	1	6
532.923	1	0
533.093	1	-2
533.263	1	-5
533.433	1	1
533.603	1	-13
533.773	1	-4
533.943	1	-2
534.113	1	1
534.284	1	-13
534.454	1	-4
534.624	1	7
534.794	1	3
534.964	1	-5
535.134	1	7
535.304	1	2
535.474	1	-7
535.644	1	5
535.814	1	-5
535.984	1	-2
536.154	1	-7
536.324	1	-12
536.494	1	-4
536.664	1	-1
536.834	1	2
537.004	1	0
537.174	1	-3
537.344	1	5
537.514	1	-9
537.685	1	0
537.855	1	-17
538.025	1	-6
538.195	1	-2
538.365	1	2
538.535	1	-4
538.705	1	-14
538.875	1	-5
539.045	1	-2
539.215	1	6
539.385	1	-5
539.555	1	-5
539.725	1	-8
539.895	1	4
540.065	1	-6
540.235	1	2
540.405	1	-10
540.575	1	4
540.745	1	-3
540.915	1	-7
541.085	1	-14
541.255	1	2
541.425	1	-14
541.595	1	1
541.765	1	7
541.935	1	-9
542.105	1	2
542.275	1	4
542.445	1	2
542.615	1	-5
542.785	1	-6
542.955	1	-9
543.125	1	-13
543.295	1	6
543.465	1	0
543.635	1	-7
543.805	1	-6
543.975	1	-3
544.145	1	4
544.315	1	2
544.485	1	-2
544.655	1	-13
544.825	1	-11
544.995	1	3
545.165	1	7
545.335	1	-13
545.505	1	-2
545.675	1	-22
545.845	1	0
546.015	1	-5
546.185	1	2
546.355	1	-6
546.525	1	-10
546.695	1	-10
546.865	1	6
547.035	1	-1
547.205	1	3
547.375	1	2
547.545	1	-2
547.715	1	-7
547.885	1	-7
548.055	1	0
548.225	1	-6
548.395	1	-7
548.565	1	-3
548.735	1	-6
548.905	1	-2
549.075	1	-6
549.245	1	7
549.415	1	-13
549.585	1	-9
549.755	1	6
549.925	1	-2
550.095	1	-4
550.265	1	6
550.435	1	-6
550.605	1	4
550.775	1	1
550.945	1	-6
551.115	1	0
551.285	1	-2
551.455	1	-7
551.625	1	-8
551.795	1	2
551.965	1	-9
552.135	1	-7
552.305	1	-7
552.475	1	-7
552.645	1	-2
552.815	1	1
552.985	1	-3
553.155	1	3
553.325	1	-3
553.495	1	-5
553.665	1	-10
553.835	1	-3
554.004	1	2
554.174	1	-9
554.344	1	-8
554.514	1	2
554.684	1	-7
554.854	1	-9
555.024	1	0
555.194	1	-5
555.364	1	-4
555.534	1	-14
555.704	1	-2
555.874	1	-2
556.044	1	-16
556.214	1	0
556.384	1	3
556.554	1	-4
556.724	1	-3
556.894	1	-10
557.064	1	5
557.234	1	-8
557.404	1	-4
557.573	1	-10
557.743	1	2
557.913	1	4
558.083	1	-20
558.253	1	-1
558.423	1	-5
558.593	1	-13
558.763	1	-6
558.933	1	-2
559.103	1	4
559.273	1	-3
559.443	1	-4
559.613	1	-9
559.783	1	-6
559.953	1	2
560.122	1	-9
560.292	1	3
560.462	1	-3
560.632	1	-10
560.802	1	-2
560.972	1	-9
561.142	1	-16
561.312	1	-6
561.482	1	-8
561.652	1	-3
561.822	1	-14
561.992	1	-4
562.162	1	-3
562.331	1	-8
562.501	1	-2
562.671	1	6
562.841	1	-6
563.011	1	-2
563.181	1	-1
563.351	1	-2
563.521	1	-2
563.691	1	-2
563.861	1	2
564.031	1	-1
564.201	1	7
564.370	1	1
564.540	1	-3
564.710	1	0
564.880	1	4
565.050	1	7
565.220	1	-13
565.390	1	3
565.560	1	-2
565.730	1	-4
565.900	1	-3
566.069	1	-4
566.239	1	-6
566.409	1	-19
566.579	1	-8
566.749	1	-16
566.919	1	-5
567.089	1	0
567.259	1	-10
567.429	1	5
567.599	1	6
567.768	1	-3
567.938	1	-16
568.108	1	3
568.278	1	8
568.448	1	-1
568.618	1	-8
568.788	1	3
568.958	1	-7
569.128	1	4
569.297	1	-9
569.467	1	1
569.637	1	-5
569.807	1	-1
569.977	1	-7
570.147	1	-5
570.317	1	-3
570.487	1	-6
570.656	1	-12
570.826	1	-4
570.996	1	-4
571.166	1	8
571.336	1	4
571.506	1	1
571.676	1	10
571.846	1	0
572.015	1	-3
572.185	1	-1
572.355	1	-6
572.525	1	-17
572.695	1	7
572.865	1	-9
573.035	1	10
573.205	1	-2
573.374	1	-5
573.544	1	3
573.714	1	-4
573.884	1	-10
574.054	1	1
574.224	1	-3
574.394	1	-5
574.563	1	1
574.733	1	-2
574.903	1	2
575.073	1	-5
575.243	1	1
575.413	1	-5
575.583	1	-2
575.752	1	-9
575.922	1	-10
576.092	1	-15
576.262	1	-8
576.432	1	-2
576.602	1	-8
576.772	1	7
576.941	1	-6
577.111	1	0
577.281	1	-12
577.451	1	-9
577.621	1	0
577.791	1	-1
577.960	1	-8
578.130	1	-7
578.300	1	-4
578.470	1	-9
578.640	1	-6
578.810	1	-6
578.979	1	-4
579.149	1	-9
579.319	1	-9
579.489	1	-14
579.659	1	-13
579.829	1	-4
579.998	1	-15
580.168	1	1
580.338	1	6
580.508	1	3
580.678	1	-4
580.848	1	0
581.017	1	5
581.187	1	-1
581.357	1	-10
581.527	1	5
581.697	1	-4
581.867	1	-6
582.036	1	-3
582.206	1	10
582.376	1	-2
582.546	1	-12
582.716	1	-13
582.885	1	-7
583.055	1	-9
583.225	1	-3
583.395	1	9
583.565	1	1
583.735	1	6
583.904	1	5
584.074	1	-8
584.244	1	-12
584.414	1	-7
584.584	1	-6
584.753	1	-4
584.923	1	-4
585.093	1	-2
585.263	1	-2
585.433	1	-5
585.602	1	-9
585.772	1	-9
585.942	1	4
586.112	1	1
586.282	1	-12
586.451	1	1
586.621	1	4
586.791	1	-2
586.961	1	-8
587.131	1	-2
587.300	1	-5
587.470	1	-4
587.640	1	3
587.810	1	6
587.980	1	-7
588.149	1	-2
588.319	1	11
588.489	1	-4
588.659	1	-1
588.829	1	4
588.998	1	-1
589.168	1	5
589.338	1	2
589.508	1	-2
589.677	1	4
589.847	1	-2
590.017	1	0
590.187	1	-4
590.357	1	-6
590.526	1	-1
590.696	1	-5
590.866	1	-10
591.036	1	-4
591.205	1	2
591.375	1	-4
591.545	1	2
591.715	1	-2
591.885	1	0
592.054	1	-10
592.224	1	1
592.394	1	-13
592.564	1	-5
592.733	1	-18
592.903	1	-5
593.073	1	-7
593.243	1	2
593.412	1	-6
593.582	1	-6
593.752	1	-7
593.922	1	-6
594.091	1	-16
594.261	1	-11
594.431	1	9
594.601	1	-9
594.771	1	-4
594.940	1	-1
595.110	1	-4
595.280	1	-2
595.450	1	0
595.619	1	3
595.789	1	7
595.959	1	-1
596.129	1	-2
596.298	1	3
596.468	1	-13
596.638	1	-4
596.808	1	1
596.977	1	-7
597.147	1	-2
597.317	1	-6
597.487	1	-2
597.656	1	-2
597.826	1	-2
597.996	1	-9
598.166	1	2
598.335	1	-5
598.505	1	13
598.675	1	-6
598.844	1	-17
599.014	1	1
599.184	1	-6
599.354	1	0
599.523	1	5
599.693	1	-6
599.863	1	1
600.033	1	-7
600.202	1	2
600.372	1	-8
600.542	1	-2
600.712	1	-2
600.881	1	0
601.051	1	-9
601.221	1	6
601.390	1	-14
601.560	1	1
601.730	1	-2
601.900	1	9
602.069	1	6
602.239	1	5
602.409	1	-15
602.578	1	-4
602.748	1	-1
602.918	1	-6
603.088	1	1
603.257	1	8
603.427	1	-5
603.597	1	-1
603.767	1	2
603.936	1	-7
604.106	1	1
604.276	1	6
604.445	1	2
604.615	1	-5
604.785	1	-2
604.954	1	-2
605.124	1	-10
605.294	1	-3
605.464	1	-6
605.633	1	-6
605.803	1	-1
605.973	1	5
606.142	1	-5
606.312	1	2
606.482	1	-3
606.652	1	-8
606.821	1	-2
606.991	1	-13
607.161	1	-10
607.330	1	-5
607.500	1	1
607.670	1	4
607.839	1	5
608.009	1	3
608.179	1	2
608.348	1	0
608.518	1	-12
608.688	1	-12
608.858	1	7
609.027	1	-2
609.197	1	-8
609.367	1	8
609.536	1	-6
609.706	1	0
609.876	1	5
610.045	1	-2
610.215	1	-1
610.385	1	-3
610.554	1	-8
610.724	1	-16
610.894	1	-7
611.063	1	-4
611.233	1	-1
611.403	1	-8
611.572	1	3
611.742	1	-7
611.912	1	-5
612.081	1	-7
612.251	1	-3
612.421	1	4
612.590	1	-6
612.760	1	-1
612.930	1	-12
613.099	1	1
613.269	1	-8
613.439	1	-17
613.608	1	9
613.778	1	5
613.948	1	-9
614.117	1	7
614.287	1	-11
614.457	1	-19
614.626	1	1
614.796	1	-4
614.966	1	-1
615.135	1	13
615.305	1	-4
615.475	1	-3
615.644	1	-6
615.814	1	-17
615.984	1	-1
616.153	1	-10
616.323	1	1
616.493	1	14
616.662	1	0
616.832	1	1
617.002	1	-3
617.171	1	-2
617.341	1	1
617.511	1	-4
617.680	1	-6
617.850	1	-7
618.019	1	-1
618.189	1	4
618.359	1	-15
618.528	1	-12
618.698	1	6
618.868	1	-11
619.037	1	1
619.207	1	2
619.377	1	-5
619.546	1	2
619.716	1	0
619.885	1	-9
620.055	1	1
620.225	1	5
620.394	1	-4
620.564	1	4
620.734	1	-5
620.903	1	-8
621.073	1	-5
621.242	1	-8
621.412	1	-1
621.582	1	-9
621.751	1	1
621.921	1	-4
622.091	1	-3
622.260	1	-11
622.430	1	-8
622.599	1	-13
622.769	1	-4
622.939	1	-8
623.108	1	-8
623.278	1	-4
623.448	1	-2
623.617	1	-8
623.787	1	6
623.956	1	-1
624.126	1	2
624.296	1	-3
624.465	1	-4
624.635	1	-10
624.804	1	-5
624.974	1	4
625.144	1	-8
625.313	1	-7
625.483	1	16
625.652	1	-2
625.822	1	0
625.992	1	-1
626.161	1	1
626.331	1	-11
626.501	1	2
626.670	1	-2
626.840	1	-1
627.009	1	-2
627.179	1	2
627.348	1	5
627.518	1	4
627.688	1	-3
627.857	1	-2
628.027	1	-8
628.196	1	-6
628.366	1	-11
628.536	1	2
628.705	1	-3
628.875	1	-2
629.044	1	-3
629.214	1	-1
629.384	1	6
629.553	1	-4
629.723	1	-9
629.892	1	2
630.062	1	-17
630.232	1	-9
630.401	1	1
630.571	1	-5
630.740	1	-6
630.910	1	5
631.079	1	-13
631.249	1	0
631.419	1	-7
631.588	1	-10
631.758	1	4
631.927	1	-4
632.097	1	-4
632.266	1	3
632.436	1	-12
632.606	1	-2
632.775	1	-4
632.945	1	-1
633.114	1	-9
633.284	1	-5
633.453	1	-4
633.623	1	-2
633.793	1	-9
633.962	1	-2
634.132	1	-11
634.301	1	-1
634.471	1	-7
634.640	1	-7
634.810	1	1
634.979	1	-2
635.149	1	-8
635.319	1	-1
635.488	1	10
635.658	1	0
635.827	1	-8
635.997	1	-3
636.166	1	-6
636.336	1	-4
636.505	1	-3
636.675	1	2
636.845	1	-8
637.014	1	-2
637.184	1	-7
637.353	1	-13
637.523	1	1
637.692	1	0
637.862	1	4
638.031	1	0
638.201	1	6
638.370	1	-7
638.540	1	-6
638.710	1	4
638.879	1	-9
639.049	1	-3
639.218	1	-1
639.388	1	-5
639.557	1	5
639.727	1	0
639.896	1	-6
640.066	1	9
640.235	1	1
640.405	1	-16
640.574	1	-5
640.744	1	-7
640.914	1	-3
641.083	1	-4
641.253	1	12
641.422	1	-5
641.592	1	-10
641.761	1	2
641.931	1	-15
642.100	1	-5
642.270	1	-5
642.439	1	-9
642.609	1	-6
642.778	1	-10
642.948	1	-3
643.117	1	-3
643.287	1	-8
643.456	1	5
643.626	1	4
643.795	1	-5
643.965	1	6
644.134	1	1
644.304	1	-5
644.473	1	-4
644.643	1	-10
644.812	1	0
644.982	1	-10
645.151	1	7
645.321	1	-6
645.490	1	-3
645.660	1	-11
645.829	1	-3
645.999	1	7
646.168	1	-12
646.338	1	-5
646.507	1	-4
646.677	1	-5
646.846	1	5
647.016	1	-1
647.185	1	-13
647.355	1	4
647.524	1	10
647.694	1	-3
647.863	1	-13
648.033	1	-9
648.202	1	-3
648.372	1	-4
648.541	1	-6
648.711	1	2
648.880	1	-1
649.050	1	-7
649.219	1	-12
649.389	1	-4
649.558	1	-2
649.728	1	-9
649.897	1	8
650.067	1	-5
650.236	1	2
650.406	1	-5
650.575	1	-6
650.745	1	2
650.914	1	-11
651.084	1	-7
651.253	1	-2
651.423	1	4
651.592	1	4
651.762	1	5
651.931	1	0
652.101	1	2
652.270	1	14
652.440	1	-6
652.609	1	-4
652.778	1	-12
652.948	1	-2
653.117	1	-6
653.287	1	8
653.456	1	7
653.626	1	-1
653.795	1	-2
653.965	1	-2
654.134	1	-5
654.304	1	-12
654.473	1	-3
654.643	1	4
654.812	1	-6
654.982	1	-4
655.151	1	-1
655.320	1	-6
655.490	1	0
655.659	1	-7
655.829	1	-2
655.998	1	-15
656.168	1	-12
656.337	1	9
656.507	1	-7
656.676	1	-6
656.846	1	-10
657.015	1	-11
657.184	1	-3
657.354	1	-11
657.523	1	-3
657.693	1	4
657.862	1	5
658.032	1	-6
658.201	1	-4
658.371	1	-7
658.540	1	-20
658.709	1	-10
658.879	1	-19
659.048	1	-5
659.218	1	-5
659.387	1	-11
659.557	1	-8
659.726	1	4
659.895	1	-9
660.065	1	-16
660.234	1	-4
660.404	1	-6
660.573	1	-3
660.743	1	10
660.912	1	1
661.081	1	7
661.251	1	-7
661.420	1	-5
661.590	1	-19
661.759	1	-8
661.929	1	5
662.098	1	-5
662.267	1	-7
662.437	1	-6
662.606	1	12
662.776	1	-5
662.945	1	-12
663.115	1	-1
663.284	1	-4
663.453	1	-11
663.623	1	-3
663.792	1	5
663.962	1	9
664.131	1	-6
664.300	1	-3
664.470	1	2
664.639	1	-3
664.809	1	-15
664.978	1	-6
665.148	1	-4
665.317	1	-1
665.486	1	-2
665.656	1	-7
665.825	1	1
665.995	1	-4
666.164	1	-3
666.333	1	-1
666.503	1	-2
666.672	1	-3
666.842	1	-14
667.011	1	3
667.180	1	-5
667.350	1	0
667.519	1	-1
667.689	1	3
667.858	1	9
668.027	1	6
668.197	1	-2
668.366	1	3
668.536	1	0
668.705	1	-2
668.874	1	-3
669.044	1	-10
669.213	1	-4
669.382	1	-5
669.552	1	13
669.721	1	7
669.891	1	-2
670.060	1	0
670.229	1	-3
670.399	1	-2
670.568	1	-11
670.738	1	-9
670.907	1	-8
671.076	1	-7
671.246	1	5
671.415	1	-2
671.584	1	0
671.754	1	3
671.923	1	-1
672.093	1	8
672.262	1	-5
672.431	1	-16
672.601	1	-5
672.770	1	-3
672.939	1	-3
673.109	1	1
673.278	1	-4
673.448	1	-15
673.617	1	-24
673.786	1	-7
