325.333	1	18
325.504	1	3
325.675	1	2
325.846	1	-1
326.017	1	-3
326.188	1	11
326.359	1	-1
326.531	1	-6
326.702	1	6
326.873	1	1
327.044	1	2
327.215	1	4
327.386	1	-7
327.557	1	8
327.728	1	12
327.899	1	11
328.070	1	7
328.241	1	3
328.412	1	6
328.583	1	9
328.754	1	-4
328.926	1	2
329.097	1	-1
329.268	1	3
329.439	1	2
329.610	1	8
329.781	1	1
329.952	1	12
330.123	1	11
330.294	1	-3
330.465	1	0
330.636	1	5
330.807	1	-2
330.978	1	9
331.149	1	20
331.320	1	-1
331.492	1	9
331.663	1	2
331.834	1	6
332.005	1	-5
332.176	1	1
332.347	1	10
332.518	1	7
332.689	1	4
332.860	1	3
333.031	1	-1
333.202	1	-6
333.373	1	13
333.544	1	11
333.715	1	3
333.886	1	6
334.057	1	9
334.228	1	0
334.399	1	19
334.570	1	0
334.741	1	16
334.912	1	10
335.084	1	-1
335.255	1	8
335.426	1	4
335.597	1	7
335.768	1	9
335.939	1	6
336.110	1	8
336.281	1	6
336.452	1	7
336.623	1	10
336.794	1	7
336.965	1	4
337.136	1	-3
337.307	1	0
337.478	1	3
337.649	1	16
337.820	1	2
337.991	1	0
338.162	1	13
338.333	1	1
338.504	1	11
338.675	1	8
338.846	1	6
339.017	1	9
339.188	1	0
339.359	1	5
339.530	1	16
339.701	1	10
339.872	1	16
340.043	1	-10
340.214	1	-3
340.385	1	3
340.556	1	14
340.727	1	7
340.898	1	7
341.069	1	8
341.240	1	13
341.411	1	4
341.582	1	6
341.753	1	-1
341.924	1	-5
342.095	1	4
342.266	1	6
342.437	1	6
342.608	1	17
342.779	1	13
342.950	1	8
343.121	1	0
343.292	1	7
343.463	1	3
343.634	1	5
343.805	1	8
343.976	1	6
344.147	1	5
344.318	1	4
344.489	1	8
344.660	1	15
344.831	1	12
345.002	1	7
345.173	1	0
345.344	1	9
345.515	1	-17
345.686	1	14
345.857	1	3
346.028	1	7
346.199	1	0
346.370	1	11
346.541	1	-3
346.712	1	8
346.883	1	14
347.054	1	2
347.225	1	3
347.396	1	-8
347.567	1	6
347.738	1	-14
347.909	1	1
348.080	1	15
348.251	1	5
348.422	1	9
348.593	1	6
348.764	1	0
348.935	1	4
349.106	1	7
349.277	1	0
349.448	1	7
349.619	1	1
349.790	1	16
349.961	1	10
350.132	1	12
350.303	1	12
350.474	1	1
350.645	1	8
350.816	1	-2
350.987	1	9
351.157	1	10
351.328	1	12
351.499	1	7
351.670	1	4
351.841	1	4
352.012	1	16
352.183	1	2
352.354	1	-5
352.525	1	3
352.696	1	15
352.867	1	11
353.038	1	-4
353.209	1	4
353.380	1	6
353.551	1	0
353.722	1	9
353.893	1	-2
354.064	1	8
354.235	1	5
354.406	1	9
354.576	1	6
354.747	1	3
354.918	1	20
355.089	1	-1
355.260	1	20
355.431	1	-1
355.602	1	6
355.773	1	-2
355.944	1	1
356.115	1	15
356.286	1	8
356.457	1	5
356.628	1	9
356.799	1	4
356.970	1	6
357.141	1	-3
357.311	1	12
357.482	1	2
357.653	1	7
357.824	1	8
357.995	1	4
358.166	1	-7
358.337	1	10
358.508	1	2
358.679	1	12
358.850	1	1
359.021	1	11
359.192	1	15
359.363	1	6
359.533	1	-12
359.704	1	16
359.875	1	13
360.046	1	12
360.217	1	5
360.388	1	4
360.559	1	4
360.730	1	3
360.901	1	7
361.072	1	11
361.243	1	8
361.414	1	4
361.584	1	-4
361.755	1	-3
361.926	1	3
362.097	1	3
362.268	1	3
362.439	1	0
362.610	1	-1
362.781	1	6
362.952	1	14
363.123	1	4
363.293	1	3
363.464	1	3
363.635	1	7
363.806	1	1
363.977	1	3
364.148	1	-1
364.319	1	1
364.490	1	5
364.661	1	13
364.832	1	3
365.002	1	15
365.173	1	4
365.344	1	13
365.515	1	-6
365.686	1	-9
365.857	1	-1
366.028	1	14
366.199	1	-1
366.370	1	4
366.540	1	4
366.711	1	4
366.882	1	-12
367.053	1	3
367.224	1	5
367.395	1	2
367.566	1	-5
367.737	1	6
367.908	1	5
368.078	1	2
368.249	1	8
368.420	1	3
368.591	1	3
368.762	1	-3
368.933	1	-3
369.104	1	20
369.274	1	-1
369.445	1	3
369.616	1	2
369.787	1	14
369.958	1	7
370.129	1	3
370.300	1	5
370.471	1	3
370.641	1	12
370.812	1	7
370.983	1	2
371.154	1	-1
371.325	1	-3
371.496	1	7
371.667	1	8
371.837	1	8
372.008	1	-19
372.179	1	1
372.350	1	-7
372.521	1	1
372.692	1	1
372.863	1	2
373.033	1	-5
373.204	1	-2
373.375	1	4
373.546	1	16
373.717	1	-3
373.888	1	8
374.059	1	4
374.229	1	6
374.400	1	1
374.571	1	1
374.742	1	8
374.913	1	11
375.084	1	12
375.254	1	11
375.425	1	-3
375.596	1	12
375.767	1	1
375.938	1	7
376.109	1	1
376.279	1	-5
376.450	1	2
376.621	1	3
376.792	1	8
376.963	1	-1
377.134	1	-2
377.304	1	10
377.475	1	6
377.646	1	1
377.817	1	4
377.988	1	-3
378.159	1	11
378.329	1	8
378.500	1	11
378.671	1	9
378.842	1	-5
379.013	1	3
379.184	1	-4
379.354	1	0
379.525	1	6
379.696	1	9
379.867	1	8
380.038	1	17
380.209	1	6
380.379	1	8
380.550	1	7
380.721	1	1
380.892	1	-1
381.063	1	4
381.233	1	9
381.404	1	9
381.575	1	5
381.746	1	5
381.917	1	9
382.087	1	9
382.258	1	18
382.429	1	1
382.600	1	9
382.771	1	4
382.941	1	11
383.112	1	-3
383.283	1	12
383.454	1	2
383.625	1	-7
383.795	1	13
383.966	1	3
384.137	1	13
384.308	1	10
384.479	1	-4
384.649	1	10
384.820	1	13
384.991	1	9
385.162	1	5
385.333	1	9
385.503	1	7
385.674	1	-13
385.845	1	11
386.016	1	12
386.187	1	-1
386.357	1	4
386.528	1	-5
386.699	1	1
386.870	1	3
387.041	1	14
387.211	1	5
387.382	1	-5
387.553	1	5
387.724	1	13
387.894	1	9
388.065	1	9
388.236	1	3
388.407	1	4
388.578	1	6
388.748	1	4
388.919	1	2
389.090	1	10
389.261	1	3
389.431	1	8
389.602	1	16
389.773	1	4
389.944	1	14
390.114	1	20
390.285	1	3
390.456	1	-2
390.627	1	7
390.798	1	4
390.968	1	20
391.139	1	1
391.310	1	8
391.481	1	4
391.651	1	8
391.822	1	1
391.993	1	1
392.164	1	14
392.334	1	-3
392.505	1	12
392.676	1	8
392.847	1	9
393.017	1	9
393.188	1	14
393.359	1	10
393.530	1	15
393.700	1	1
393.871	1	6
394.042	1	2
394.213	1	3
394.383	1	-3
394.554	1	27
394.725	1	-4
394.896	1	1
395.066	1	0
395.237	1	6
395.408	1	12
395.579	1	-6
395.749	1	7
395.920	1	1
396.091	1	12
396.262	1	0
396.432	1	5
396.603	1	3
396.774	1	7
396.945	1	14
397.115	1	6
397.286	1	2
397.457	1	11
397.627	1	0
397.798	1	7
397.969	1	7
398.140	1	5
398.310	1	6
398.481	1	-1
398.652	1	3
398.823	1	4
398.993	1	10
399.164	1	21
399.335	1	6
399.505	1	2
399.676	1	1
399.847	1	10
400.018	1	20
400.188	1	1
400.359	1	-2
400.530	1	6
400.700	1	9
400.871	1	2
401.042	1	14
401.213	1	-1
401.383	1	13
401.554	1	2
401.725	1	9
401.895	1	6
402.066	1	8
402.237	1	9
402.408	1	11
402.578	1	5
402.749	1	1
402.920	1	3
403.090	1	9
403.261	1	15
403.432	1	5
403.603	1	6
403.773	1	20
403.944	1	12
404.115	1	-1
404.285	1	17
404.456	1	11
404.627	1	12
404.797	1	11
404.968	1	7
405.139	1	4
405.310	1	13
405.480	1	14
405.651	1	4
405.822	1	9
405.992	1	8
406.163	1	16
406.334	1	14
406.504	1	12
406.675	1	23
406.846	1	14
407.016	1	19
407.187	1	16
407.358	1	15
407.528	1	2
407.699	1	-2
407.870	1	19
408.041	1	8
408.211	1	6
408.382	1	14
408.553	1	16
408.723	1	5
408.894	1	10
409.065	1	1
409.235	1	11
409.406	1	3
409.577	1	4
409.747	1	1
409.918	1	9
410.089	1	12
410.259	1	-5
410.430	1	11
410.601	1	13
410.771	1	10
410.942	1	4
411.113	1	13
411.283	1	13
411.454	1	9
411.625	1	5
411.795	1	0
411.966	1	25
412.137	1	6
412.307	1	15
412.478	1	12
412.649	1	13
412.819	1	7
412.990	1	11
413.161	1	11
413.331	1	7
413.502	1	4
413.672	1	18
413.843	1	7
414.014	1	10
414.184	1	13
414.355	1	6
414.526	1	4
414.696	1	14
414.867	1	5
415.038	1	8
415.208	1	6
415.379	1	10
415.550	1	9
415.720	1	4
415.891	1	20
416.062	1	8
416.232	1	3
416.403	1	5
416.573	1	20
416.744	1	3
416.915	1	17
417.085	1	7
417.256	1	11
417.427	1	9
417.597	1	14
417.768	1	16
417.939	1	12
418.109	1	6
418.280	1	8
418.450	1	9
418.621	1	17
418.792	1	13
418.962	1	2
419.133	1	10
419.304	1	13
419.474	1	8
419.645	1	13
419.815	1	1
419.986	1	14
420.157	1	8
420.327	1	-4
420.498	1	17
420.669	1	12
420.839	1	9
421.010	1	9
421.180	1	-1
421.351	1	14
421.522	1	10
421.692	1	17
421.863	1	13
422.033	1	6
422.204	1	11
422.375	1	4
422.545	1	12
422.716	1	9
422.886	1	1
423.057	1	10
423.228	1	-2
423.398	1	10
423.569	1	10
423.740	1	14
423.910	1	7
424.081	1	10
424.251	1	-1
424.422	1	4
424.593	1	14
424.763	1	18
424.934	1	14
425.104	1	6
425.275	1	12
425.445	1	2
425.616	1	13
425.787	1	9
425.957	1	13
426.128	1	8
426.298	1	18
426.469	1	8
426.640	1	3
426.810	1	14
426.981	1	14
427.151	1	12
427.322	1	9
427.493	1	19
427.663	1	11
427.834	1	11
428.004	1	-2
428.175	1	20
428.345	1	12
428.516	1	14
428.687	1	17
428.857	1	8
429.028	1	4
429.198	1	10
429.369	1	19
429.540	1	10
429.710	1	4
429.881	1	7
430.051	1	7
430.222	1	13
430.392	1	2
430.563	1	13
430.734	1	17
430.904	1	2
431.075	1	10
431.245	1	12
431.416	1	15
431.586	1	-4
431.757	1	3
431.927	1	32
432.098	1	-1
432.269	1	12
432.439	1	19
432.610	1	13
432.780	1	1
432.951	1	13
433.121	1	1
433.292	1	12
433.462	1	7
433.633	1	0
433.804	1	6
433.974	1	6
434.145	1	6
434.315	1	4
434.486	1	11
434.656	1	17
434.827	1	14
434.997	1	1
435.168	1	14
435.339	1	7
435.509	1	6
435.680	1	13
435.850	1	-6
436.021	1	18
436.191	1	10
436.362	1	10
436.532	1	8
436.703	1	6
436.873	1	-6
437.044	1	9
437.214	1	6
437.385	1	20
437.556	1	13
437.726	1	13
437.897	1	16
438.067	1	7
438.238	1	1
438.408	1	8
438.579	1	10
438.749	1	0
438.920	1	10
439.090	1	6
439.261	1	7
439.431	1	6
439.602	1	8
439.772	1	8
439.943	1	14
440.113	1	11
440.284	1	2
440.455	1	13
440.625	1	21
440.796	1	14
440.966	1	7
441.137	1	3
441.307	1	0
441.478	1	15
441.648	1	-2
441.819	1	11
441.989	1	16
442.160	1	1
442.330	1	7
442.501	1	-2
442.671	1	0
442.842	1	19
443.012	1	6
443.183	1	7
443.353	1	15
443.524	1	-1
443.694	1	6
443.865	1	4
444.035	1	9
444.206	1	5
444.376	1	8
444.547	1	23
444.717	1	8
444.888	1	3
445.058	1	16
445.229	1	2
445.399	1	7
445.570	1	-1
445.740	1	5
445.911	1	7
446.081	1	16
446.252	1	2
446.422	1	12
446.593	1	6
446.763	1	8
446.934	1	9
447.104	1	3
447.275	1	8
447.445	1	5
447.616	1	13
447.786	1	14
447.957	1	13
448.127	1	11
448.298	1	8
448.468	1	7
448.639	1	8
448.809	1	8
448.979	1	1
449.150	1	-3
449.320	1	14
449.491	1	9
449.661	1	14
449.832	1	4
450.002	1	16
450.173	1	6
450.343	1	11
450.514	1	12
450.684	1	7
450.855	1	11
451.025	1	1
451.196	1	4
451.366	1	12
451.537	1	6
451.707	1	13
451.878	1	7
452.048	1	14
452.218	1	14
452.389	1	6
452.559	1	-3
452.730	1	7
452.900	1	5
453.071	1	3
453.241	1	15
453.412	1	12
453.582	1	9
453.753	1	3
453.923	1	9
454.093	1	7
454.264	1	18
454.434	1	14
454.605	1	15
454.775	1	5
454.946	1	18
455.116	1	9
455.287	1	-2
455.457	1	5
455.628	1	1
455.798	1	4
455.968	1	7
456.139	1	0
456.309	1	10
456.480	1	7
456.650	1	17
456.821	1	18
456.991	1	11
457.161	1	19
457.332	1	7
457.502	1	-6
457.673	1	4
457.843	1	11
458.014	1	10
458.184	1	3
458.355	1	1
458.525	1	-3
458.695	1	4
458.866	1	7
459.036	1	6
459.207	1	5
459.377	1	15
459.548	1	7
459.718	1	9
459.888	1	21
460.059	1	11
460.229	1	9
460.400	1	18
460.570	1	4
460.740	1	6
460.911	1	1
461.081	1	4
461.252	1	9
461.422	1	6
461.593	1	-5
461.763	1	18
461.933	1	14
462.104	1	19
462.274	1	6
462.445	1	1
462.615	1	6
462.785	1	-1
462.956	1	-3
463.126	1	-1
463.297	1	17
463.467	1	11
463.638	1	5
463.808	1	5
463.978	1	4
464.149	1	10
464.319	1	-6
464.490	1	8
464.660	1	6
464.830	1	0
465.001	1	7
465.171	1	-2
465.342	1	11
465.512	1	4
465.682	1	13
465.853	1	6
466.023	1	0
466.194	1	8
466.364	1	11
466.534	1	13
466.705	1	5
466.875	1	9
467.045	1	-3
467.216	1	11
467.386	1	3
467.557	1	5
467.727	1	-3
467.897	1	-1
468.068	1	9
468.238	1	10
468.409	1	5
468.579	1	5
468.749	1	-5
468.920	1	1
469.090	1	11
469.260	1	-5
469.431	1	-1
469.601	1	1
469.772	1	-5
469.942	1	17
470.112	1	14
470.283	1	10
470.453	1	12
470.623	1	10
470.794	1	9
470.964	1	2
471.135	1	2
471.305	1	1
471.475	1	6
471.646	1	8
471.816	1	1
471.986	1	5
472.157	1	4
472.327	1	5
472.497	1	-6
472.668	1	1
472.838	1	-3
473.009	1	20
473.179	1	4
473.349	1	1
473.520	1	14
473.690	1	12
473.860	1	6
474.031	1	-1
474.201	1	14
474.371	1	0
474.542	1	16
474.712	1	-8
474.882	1	8
475.053	1	3
475.223	1	13
475.394	1	7
475.564	1	8
475.734	1	3
475.905	1	9
476.075	1	3
476.245	1	20
476.416	1	7
476.586	1	7
476.756	1	8
476.927	1	9
477.097	1	7
477.267	1	6
477.438	1	-7
477.608	1	-4
477.778	1	10
477.949	1	13
478.119	1	4
478.289	1	8
478.460	1	17
478.630	1	-1
478.800	1	4
478.971	1	7
479.141	1	0
479.311	1	-1
479.482	1	5
479.652	1	0
479.822	1	4
479.993	1	12
480.163	1	8
480.333	1	5
480.504	1	10
480.674	1	8
480.844	1	10
481.015	1	-3
481.185	1	10
481.355	1	1
481.525	1	8
481.696	1	14
481.866	1	2
482.036	1	3
482.207	1	-1
482.377	1	0
482.547	1	13
482.718	1	4
482.888	1	-5
483.058	1	7
483.229	1	1
483.399	1	4
483.569	1	3
483.740	1	-1
483.910	1	-12
484.080	1	-2
484.250	1	-1
484.421	1	3
484.591	1	-1
484.761	1	15
484.932	1	11
485.102	1	1
485.272	1	-2
485.443	1	4
485.613	1	3
485.783	1	1
485.953	1	1
486.124	1	-9
486.294	1	14
486.464	1	3
486.635	1	2
486.805	1	0
486.975	1	4
487.146	1	4
487.316	1	3
487.486	1	2
487.656	1	1
487.827	1	14
487.997	1	3
488.167	1	2
488.338	1	-2
488.508	1	1
488.678	1	9
488.848	1	7
489.019	1	2
489.189	1	-2
489.359	1	1
489.529	1	2
489.700	1	5
489.870	1	-7
490.040	1	5
490.211	1	4
490.381	1	0
490.551	1	-13
490.721	1	11
490.892	1	18
491.062	1	2
491.232	1	-8
491.402	1	7
491.573	1	6
491.743	1	1
491.913	1	4
492.084	1	5
492.254	1	8
492.424	1	-7
492.594	1	10
492.765	1	7
492.935	1	9
493.105	1	10
493.275	1	-2
493.446	1	3
493.616	1	-4
493.786	1	11
493.956	1	7
494.127	1	0
494.297	1	8
494.467	1	9
494.637	1	3
494.808	1	-2
494.978	1	-10
495.148	1	5
495.318	1	1
495.489	1	-2
495.659	1	8
495.829	1	13
495.999	1	14
496.170	1	3
496.340	1	13
496.510	1	-5
496.680	1	3
496.851	1	-9
497.021	1	4
497.191	1	-6
497.361	1	2
497.532	1	-6
497.702	1	1
497.872	1	2
498.042	1	4
498.213	1	5
498.383	1	7
498.553	1	-2
498.723	1	-6
498.894	1	9
499.064	1	14
499.234	1	7
499.404	1	8
499.574	1	1
499.745	1	2
499.915	1	-8
500.085	1	1
500.255	1	3
500.426	1	0
500.596	1	-2
500.766	1	-8
500.936	1	-2
501.106	1	8
501.277	1	6
501.447	1	-2
501.617	1	2
501.787	1	12
501.958	1	3
502.128	1	8
502.298	1	4
502.468	1	-3
502.638	1	3
502.809	1	12
502.979	1	-3
503.149	1	6
503.319	1	0
503.489	1	4
503.660	1	0
503.830	1	4
504.000	1	-4
504.170	1	-5
504.340	1	11
504.511	1	15
504.681	1	17
504.851	1	-5
505.021	1	-2
505.192	1	0
505.362	1	-10
505.532	1	-8
505.702	1	-2
505.872	1	3
506.043	1	-4
506.213	1	3
506.383	1	14
506.553	1	-3
506.723	1	8
506.893	1	-6
507.064	1	-7
507.234	1	-11
507.404	1	8
507.574	1	7
507.744	1	-6
507.915	1	4
508.085	1	-12
508.255	1	4
508.425	1	-5
508.595	1	2
508.766	1	-1
508.936	1	11
509.106	1	-9
509.276	1	4
509.446	1	7
509.616	1	-3
509.787	1	4
509.957	1	0
510.127	1	4
510.297	1	11
510.467	1	-3
510.638	1	-2
510.808	1	-9
510.978	1	14
511.148	1	9
511.318	1	0
511.488	1	5
511.659	1	8
511.829	1	4
511.999	1	5
512.169	1	-10
512.339	1	-1
512.509	1	3
512.680	1	-8
512.850	1	4
513.020	1	7
513.190	1	2
513.360	1	-2
513.530	1	5
513.700	1	-6
513.871	1	6
514.041	1	1
514.211	1	3
514.381	1	12
514.551	1	-8
514.721	1	-3
514.892	1	4
515.062	1	8
515.232	1	9
515.402	1	1
515.572	1	2
515.742	1	3
515.912	1	6
516.083	1	2
516.253	1	3
516.423	1	-11
516.593	1	1
516.763	1	15
516.933	1	15
517.104	1	-2
517.274	1	3
517.444	1	-3
517.614	1	-2
517.784	1	4
517.954	1	0
518.124	1	8
518.294	1	3
518.465	1	4
518.635	1	-4
518.805	1	0
518.975	1	-4
519.145	1	0
519.315	1	-8
519.485	1	2
519.656	1	-4
519.826	1	4
519.996	1	-3
520.166	1	0
520.336	1	-10
520.506	1	0
520.676	1	6
520.846	1	2
521.017	1	-3
521.187	1	3
521.357	1	8
521.527	1	1
521.697	1	-1
521.867	1	1
522.037	1	5
522.207	1	5
522.377	1	-1
522.548	1	9
522.718	1	3
522.888	1	5
523.058	1	1
523.228	1	-2
523.398	1	11
523.568	1	1
523.738	1	-5
523.909	1	4
524.079	1	1
524.249	1	6
524.419	1	6
524.589	1	10
524.759	1	5
524.929	1	-5
525.099	1	-10
525.269	1	-8
525.439	1	15
525.610	1	-4
525.780	1	10
525.950	1	3
526.120	1	4
526.290	1	0
526.460	1	5
526.630	1	7
526.800	1	-8
526.970	1	2
527.140	1	16
527.311	1	12
527.481	1	-2
527.651	1	5
527.821	1	-8
527.991	1	-9
528.161	1	-5
528.331	1	0
528.501	1	3
528.671	1	3
528.841	1	19
529.011	1	-7
529.181	1	4
529.352	1	-1
529.522	1	0
529.692	1	1
529.862	1	3
530.032	1	3
530.202	1	-2
530.372	1	5
530.542	1	1
530.712	1	15
530.882	1	9
531.052	1	-2
531.222	1	0
531.392	1	1
531.563	1	0
531.733	1	-1
531.903	1	7
532.073	1	6
532.243	1	11
532.413	1	-5
532.583	1	6
532.753	1	10
532.923	1	5
533.093	1	-3
533.263	1	2
533.433	1	4
533.603	1	-1
533.773	1	-4
533.943	1	2
534.113	1	13
534.284	1	-7
534.454	1	4
534.624	1	2
534.794	1	10
534.964	1	0
535.134	1	7
535.304	1	12
535.474	1	2
535.644	1	9
535.814	1	-1
535.984	1	-1
536.154	1	-5
536.324	1	5
536.494	1	-2
536.664	1	-4
536.834	1	4
537.004	1	3
537.174	1	8
537.344	1	3
537.514	1	1
537.685	1	5
537.855	1	0
538.025	1	3
538.195	1	3
538.365	1	10
538.535	1	-7
538.705	1	-3
538.875	1	-5
539.045	1	3
539.215	1	1
539.385	1	-8
539.555	1	-8
539.725	1	0
539.895	1	11
540.065	1	-12
540.235	1	1
540.405	1	-2
540.575	1	-4
540.745	1	2
540.915	1	-12
541.085	1	-7
541.255	1	7
541.425	1	0
541.595	1	10
541.765	1	21
541.935	1	-7
542.105	1	-4
542.275	1	9
542.445	1	-5
542.615	1	5
542.785	1	-2
542.955	1	-3
543.125	1	-6
543.295	1	4
543.465	1	3
543.635	1	1
543.805	1	-5
543.975	1	-9
544.145	1	16
544.315	1	-6
544.485	1	-1
544.655	1	-4
544.825	1	-6
544.995	1	6
545.165	1	-4
545.335	1	-8
545.505	1	0
545.675	1	-15
545.845	1	10
546.015	1	-2
546.185	1	5
546.355	1	-6
546.525	1	-9
546.695	1	-2
546.865	1	3
547.035	1	-3
547.205	1	5
547.375	1	5
547.545	1	-5
547.715	1	-2
547.885	1	4
548.055	1	-8
548.225	1	1
548.395	1	-3
548.565	1	6
548.735	1	-2
548.905	1	-3
549.075	1	2
549.245	1	10
549.415	1	-5
549.585	1	-3
549.755	1	4
549.925	1	-9
550.095	1	3
550.265	1	4
550.435	1	3
550.605	1	3
550.775	1	6
550.945	1	1
551.115	1	4
551.285	1	10
551.455	1	-1
551.625	1	-6
551.795	1	-10
551.965	1	-2
552.135	1	1
552.305	1	-1
552.475	1	1
552.645	1	-5
552.815	1	9
552.985	1	-5
553.155	1	4
553.325	1	-5
553.495	1	7
553.665	1	-13
553.835	1	1
554.004	1	11
554.174	1	-8
554.344	1	2
554.514	1	0
554.684	1	-6
554.854	1	-6
555.024	1	0
555.194	1	-7
555.364	1	0
555.534	1	-6
555.704	1	-1
555.874	1	0
556.044	1	5
556.214	1	4
556.384	1	0
556.554	1	-2
556.724	1	3
556.894	1	1
557.064	1	4
557.234	1	-11
557.404	1	1
557.573	1	3
557.743	1	-1
557.913	1	14
558.083	1	-7
558.253	1	-5
558.423	1	-5
558.593	1	2
558.763	1	8
558.933	1	-1
559.103	1	7
559.273	1	-2
559.443	1	1
559.613	1	-5
559.783	1	-8
559.953	1	-1
560.122	1	-1
560.292	1	4
560.462	1	5
560.632	1	-9
560.802	1	-2
560.972	1	-3
561.142	1	-3
561.312	1	-1
561.482	1	1
561.652	1	-6
561.822	1	-10
561.992	1	-5
562.162	1	-3
562.331	1	9
562.501	1	-4
562.671	1	8
562.841	1	-5
563.011	1	12
563.181	1	1
563.351	1	-4
563.521	1	3
563.691	1	8
563.861	1	-3
564.031	1	-10
564.201	1	2
564.370	1	5
564.540	1	5
564.710	1	4
564.880	1	7
565.050	1	6
565.220	1	-12
565.390	1	7
565.560	1	7
565.730	1	-5
565.900	1	0
566.069	1	5
566.239	1	-5
566.409	1	-8
566.579	1	4
566.749	1	-3
566.919	1	-10
567.089	1	-1
567.259	1	0
567.429	1	-5
567.599	1	9
567.768	1	1
567.938	1	-8
568.108	1	4
568.278	1	9
568.448	1	1
568.618	1	1
568.788	1	3
568.958	1	-5
569.128	1	-1
569.297	1	5
569.467	1	0
569.637	1	2
569.807	1	-3
569.977	1	0
570.147	1	9
570.317	1	-4
570.487	1	-3
570.656	1	-6
570.826	1	2
570.996	1	-4
571.166	1	1
571.336	1	-12
571.506	1	8
571.676	1	16
571.846	1	-6
572.015	1	-4
572.185	1	2
572.355	1	-3
572.525	1	-6
572.695	1	-3
572.865	1	-14
573.035	1	4
573.205	1	0
573.374	1	9
573.544	1	5
573.714	1	5
573.884	1	-4
574.054	1	10
574.224	1	0
574.394	1	-15
574.563	1	8
574.733	1	2
574.903	1	8
575.073	1	3
575.243	1	-6
575.413	1	-3
575.583	1	11
575.752	1	-8
575.922	1	-8
576.092	1	-2
576.262	1	-3
576.432	1	-2
576.602	1	-5
576.772	1	0
576.941	1	0
577.111	1	-9
577.281	1	1
577.451	1	2
577.621	1	0
577.791	1	-6
577.960	1	-6
578.130	1	5
578.300	1	-9
578.470	1	-4
578.640	1	-2
578.810	1	-7
578.979	1	-4
579.149	1	-2
579.319	1	5
579.489	1	-7
579.659	1	-3
579.829	1	5
579.998	1	1
580.168	1	-4
580.338	1	0
580.508	1	8
580.678	1	3
580.848	1	4
581.017	1	8
581.187	1	6
581.357	1	4
581.527	1	0
581.697	1	1
581.867	1	-5
582.036	1	-2
582.206	1	6
582.376	1	-7
582.546	1	4
582.716	1	-3
582.885	1	-12
583.055	1	6
583.225	1	-4
583.395	1	9
583.565	1	4
583.735	1	0
583.904	1	1
584.074	1	-5
584.244	1	-7
584.414	1	-4
584.584	1	-5
584.753	1	6
584.923	1	4
585.093	1	4
585.263	1	8
585.433	1	-1
585.602	1	-5
585.772	1	-10
585.942	1	3
586.112	1	4
586.282	1	12
586.451	1	11
586.621	1	3
586.791	1	-1
586.961	1	-2
587.131	1	4
587.300	1	4
587.470	1	-6
587.640	1	7
587.810	1	6
587.980	1	-3
588.149	1	5
588.319	1	3
588.489	1	3
588.659	1	-3
588.829	1	6
588.998	1	4
589.168	1	8
589.338	1	-6
589.508	1	-3
589.677	1	11
589.847	1	7
590.017	1	-2
590.187	1	4
590.357	1	4
590.526	1	1
590.696	1	-5
590.866	1	-4
591.036	1	7
591.205	1	0
591.375	1	-4
591.545	1	0
591.715	1	6
591.885	1	9
592.054	1	4
592.224	1	-4
592.394	1	-2
592.564	1	4
592.733	1	-13
592.903	1	-1
593.073	1	-5
593.243	1	5
593.412	1	3
593.582	1	8
593.752	1	-11
593.922	1	1
594.091	1	-1
594.261	1	-9
594.431	1	15
594.601	1	-5
594.771	1	9
594.940	1	6
595.110	1	4
595.280	1	0
595.450	1	7
595.619	1	4
595.789	1	6
595.959	1	10
596.129	1	-5
596.298	1	3
596.468	1	-6
596.638	1	-2
596.808	1	4
596.977	1	10
597.147	1	-2
597.317	1	-6
597.487	1	-1
597.656	1	-7
597.826	1	3
597.996	1	6
598.166	1	2
598.335	1	13
598.505	1	5
598.675	1	-1
598.844	1	-6
599.014	1	10
599.184	1	-3
599.354	1	4
599.523	1	0
599.693	1	14
599.863	1	1
600.033	1	1
600.202	1	6
600.372	1	-5
600.542	1	-6
600.712	1	5
600.881	1	-10
601.051	1	-4
601.221	1	5
601.390	1	-7
601.560	1	4
601.730	1	14
601.900	1	8
602.069	1	5
602.239	1	9
602.409	1	1
602.578	1	0
602.748	1	-2
602.918	1	5
603.088	1	0
603.257	1	9
603.427	1	5
603.597	1	-9
603.767	1	-2
603.936	1	-1
604.106	1	-5
604.276	1	5
604.445	1	2
604.615	1	-5
604.785	1	6
604.954	1	8
605.124	1	-7
605.294	1	0
605.464	1	5
605.633	1	5
605.803	1	-4
605.973	1	12
606.142	1	8
606.312	1	-4
606.482	1	7
606.652	1	0
606.821	1	2
606.991	1	-5
607.161	1	-5
607.330	1	-10
607.500	1	5
607.670	1	12
607.839	1	13
608.009	1	8
608.179	1	3
608.348	1	14
608.518	1	5
608.688	1	-6
608.858	1	-1
609.027	1	4
609.197	1	-6
609.367	1	3
609.536	1	2
609.706	1	3
609.876	1	16
610.045	1	5
610.215	1	3
610.385	1	-5
610.554	1	-5
610.724	1	-10
610.894	1	1
611.063	1	-7
611.233	1	16
611.403	1	-6
611.572	1	-2
611.742	1	-3
611.912	1	1
612.081	1	-4
612.251	1	4
612.421	1	11
612.590	1	2
612.760	1	4
612.930	1	1
613.099	1	3
613.269	1	-1
613.439	1	-9
613.608	1	6
613.778	1	-6
613.948	1	-5
614.117	1	11
614.287	1	5
614.457	1	-12
614.626	1	7
614.796	1	-2
614.966	1	3
615.135	1	7
615.305	1	6
615.475	1	6
615.644	1	1
615.814	1	-3
615.984	1	2
616.153	1	5
616.323	1	15
616.493	1	16
616.662	1	10
616.832	1	-4
617.002	1	0
617.171	1	3
617.341	1	3
617.511	1	-1
617.680	1	14
617.850	1	4
618.019	1	-9
618.189	1	4
618.359	1	-6
618.528	1	-4
618.698	1	14
618.868	1	-2
619.037	1	5
619.207	1	-2
619.377	1	-1
619.546	1	-2
619.716	1	8
619.885	1	4
620.055	1	7
620.225	1	6
620.394	1	3
620.564	1	8
620.734	1	3
620.903	1	1
621.073	1	-3
621.242	1	9
621.412	1	5
621.582	1	2
621.751	1	10
621.921	1	13
622.091	1	2
622.260	1	-6
622.430	1	9
622.599	1	-1
622.769	1	8
622.939	1	3
623.108	1	9
623.278	1	-2
623.448	1	6
623.617	1	5
623.787	1	8
623.956	1	2
624.126	1	6
624.296	1	1
624.465	1	6
624.635	1	-1
624.804	1	-3
624.974	1	-1
625.144	1	-1
625.313	1	-10
625.483	1	12
625.652	1	13
625.822	1	1
625.992	1	1
626.161	1	5
626.331	1	-2
626.501	1	10
626.670	1	6
626.840	1	8
627.009	1	2
627.179	1	5
627.348	1	13
627.518	1	14
627.688	1	9
627.857	1	9
628.027	1	-13
628.196	1	-3
628.366	1	2
628.536	1	6
628.705	1	1
628.875	1	15
629.044	1	8
629.214	1	7
629.384	1	0
629.553	1	9
629.723	1	-11
629.892	1	22
630.062	1	-5
630.232	1	3
630.401	1	14
630.571	1	9
630.740	1	6
630.910	1	0
631.079	1	-3
631.249	1	9
631.419	1	-4
631.588	1	3
631.758	1	7
631.927	1	1
632.097	1	1
632.266	1	-2
632.436	1	10
632.606	1	9
632.775	1	8
632.945	1	5
633.114	1	7
633.284	1	1
633.453	1	4
633.623	1	10
633.793	1	2
633.962	1	5
634.132	1	2
634.301	1	5
634.471	1	-6
634.640	1	-1
634.810	1	6
634.979	1	3
635.149	1	5
635.319	1	12
635.488	1	14
635.658	1	8
635.827	1	4
635.997	1	10
636.166	1	4
636.336	1	-6
636.505	1	7
636.675	1	7
636.845	1	0
637.014	1	5
637.184	1	5
637.353	1	7
637.523	1	4
637.692	1	14
637.862	1	6
638.031	1	8
638.201	1	7
638.370	1	1
638.540	1	-2
638.710	1	9
638.879	1	0
639.049	1	3
639.218	1	3
639.388	1	-2
639.557	1	16
639.727	1	4
639.896	1	3
640.066	1	9
640.235	1	12
640.405	1	3
640.574	1	0
640.744	1	3
640.914	1	2
641.083	1	8
641.253	1	13
641.422	1	6
641.592	1	-6
641.761	1	8
641.931	1	4
642.100	1	-5
642.270	1	-2
642.439	1	6
642.609	1	5
642.778	1	2
642.948	1	8
643.117	1	7
643.287	1	4
643.456	1	2
643.626	1	12
643.795	1	9
643.965	1	8
644.134	1	10
644.304	1	3
644.473	1	7
644.643	1	0
644.812	1	15
644.982	1	9
645.151	1	9
645.321	1	2
645.490	1	4
645.660	1	-5
645.829	1	5
645.999	1	8
646.168	1	-12
646.338	1	5
646.507	1	9
646.677	1	4
646.846	1	3
647.016	1	7
647.185	1	-6
647.355	1	-2
647.524	1	9
647.694	1	3
647.863	1	-2
648.033	1	-1
648.202	1	14
648.372	1	3
648.541	1	-2
648.711	1	10
648.880	1	6
649.050	1	-5
649.219	1	-11
649.389	1	-1
649.558	1	-6
649.728	1	-3
649.897	1	6
650.067	1	5
650.236	1	2
650.406	1	8
650.575	1	8
650.745	1	8
650.914	1	10
651.084	1	6
651.253	1	6
651.423	1	1
651.592	1	3
651.762	1	16
651.931	1	0
652.101	1	-2
652.270	1	5
652.440	1	-1
652.609	1	1
652.778	1	-3
652.948	1	6
653.117	1	-3
653.287	1	17
653.456	1	4
653.626	1	-5
653.795	1	16
653.965	1	5
654.134	1	13
654.304	1	3
654.473	1	6
654.643	1	3
654.812	1	-2
654.982	1	0
655.151	1	-2
655.320	1	3
655.490	1	0
655.659	1	-1
655.829	1	0
655.998	1	4
656.168	1	-2
656.337	1	0
656.507	1	-6
656.676	1	8
656.846	1	-2
657.015	1	5
657.184	1	4
657.354	1	4
657.523	1	1
657.693	1	-1
657.862	1	0
658.032	1	-1
658.201	1	8
658.371	1	-7
658.540	1	-9
658.709	1	-5
658.879	1	-16
659.048	1	7
659.218	1	1
659.387	1	-7
659.557	1	-3
659.726	1	5
659.895	1	4
660.065	1	-10
660.234	1	1
660.404	1	-2
660.573	1	8
660.743	1	5
660.912	1	-3
661.081	1	3
661.251	1	9
661.420	1	4
661.590	1	-6
661.759	1	-2
661.929	1	7
662.098	1	-6
662.267	1	6
662.437	1	2
662.606	1	13
662.776	1	2
662.945	1	-4
663.115	1	6
663.284	1	10
663.453	1	-1
663.623	1	8
663.792	1	10
663.962	1	1
664.131	1	5
664.300	1	-6
664.470	1	12
664.639	1	-1
664.809	1	-6
664.978	1	3
665.148	1	-1
665.317	1	4
665.486	1	-2
665.656	1	5
665.825	1	2
665.995	1	9
666.164	1	-4
666.333	1	8
666.503	1	2
666.672	1	11
666.842	1	-4
667.011	1	-3
667.180	1	3
667.350	1	6
667.519	1	-1
667.689	1	-4
667.858	1	8
668.027	1	11
668.197	1	-1
668.366	1	4
668.536	1	11
668.705	1	-3
668.874	1	3
669.044	1	3
669.213	1	3
669.382	1	5
669.552	1	10
669.721	1	10
669.891	1	0
670.060	1	5
670.229	1	1
670.399	1	20
670.568	1	-6
670.738	1	-5
670.907	1	-2
671.076	1	10
671.246	1	16
671.415	1	10
671.584	1	-4
671.754	1	-2
671.923	1	5
672.093	1	11
672.262	1	12
672.431	1	-3
672.601	1	7
672.770	1	-4
672.939	1	3
673.109	1	5
673.278	1	4
673.448	1	-4
673.617	1	-8
673.786	1	9
