325.333	1	7
325.504	1	1
325.675	1	-1
325.846	1	9
326.017	1	15
326.188	1	-3
326.359	1	-1
326.531	1	6
326.702	1	8
326.873	1	9
327.044	1	5
327.215	1	5
327.386	1	1
327.557	1	3
327.728	1	7
327.899	1	14
328.070	1	6
328.241	1	9
328.412	1	15
328.583	1	7
328.754	1	2
328.926	1	2
329.097	1	-10
329.268	1	3
329.439	1	9
329.610	1	13
329.781	1	-2
329.952	1	10
330.123	1	12
330.294	1	-8
330.465	1	-1
330.636	1	19
330.807	1	1
330.978	1	5
331.149	1	20
331.320	1	6
331.492	1	21
331.663	1	3
331.834	1	11
332.005	1	8
332.176	1	-7
332.347	1	20
332.518	1	8
332.689	1	11
332.860	1	7
333.031	1	3
333.202	1	-1
333.373	1	5
333.544	1	5
333.715	1	11
333.886	1	2
334.057	1	7
334.228	1	-1
334.399	1	23
334.570	1	0
334.741	1	9
334.912	1	8
335.084	1	8
335.255	1	14
335.426	1	2
335.597	1	19
335.768	1	11
335.939	1	7
336.110	1	9
336.281	1	10
336.452	1	0
336.623	1	17
336.794	1	16
336.965	1	6
337.136	1	6
337.307	1	10
337.478	1	8
337.649	1	17
337.820	1	6
337.991	1	16
338.162	1	10
338.333	1	3
338.504	1	9
338.675	1	15
338.846	1	5
339.017	1	7
339.188	1	4
339.359	1	10
339.530	1	22
339.701	1	4
339.872	1	12
340.043	1	-8
340.214	1	1
340.385	1	4
340.556	1	6
340.727	1	7
340.898	1	10
341.069	1	19
341.240	1	10
341.411	1	3
341.582	1	20
341.753	1	4
341.924	1	3
342.095	1	9
342.266	1	5
342.437	1	6
342.608	1	23
342.779	1	8
342.950	1	11
343.121	1	14
343.292	1	5
343.463	1	9
343.634	1	-3
343.805	1	12
343.976	1	10
344.147	1	2
344.318	1	12
344.489	1	14
344.660	1	11
344.831	1	17
345.002	1	7
345.173	1	4
345.344	1	16
345.515	1	-3
345.686	1	15
345.857	1	1
346.028	1	8
346.199	1	7
346.370	1	6
346.541	1	5
346.712	1	8
346.883	1	5
347.054	1	8
347.225	1	15
347.396	1	3
347.567	1	11
347.738	1	2
347.909	1	11
348.080	1	10
348.251	1	8
348.422	1	17
348.593	1	-3
348.764	1	10
348.935	1	10
349.106	1	1
349.277	1	11
349.448	1	3
349.619	1	5
349.790	1	9
349.961	1	16
350.132	1	15
350.303	1	-2
350.474	1	-2
350.645	1	12
350.816	1	10
350.987	1	12
351.157	1	3
351.328	1	15
351.499	1	12
351.670	1	5
351.841	1	9
352.012	1	5
352.183	1	6
352.354	1	-4
352.525	1	10
352.696	1	18
352.867	1	8
353.038	1	3
353.209	1	10
353.380	1	-4
353.551	1	-4
353.722	1	3
353.893	1	5
354.064	1	10
354.235	1	12
354.406	1	14
354.576	1	8
354.747	1	5
354.918	1	12
355.089	1	10
355.260	1	17
355.431	1	13
355.602	1	3
355.773	1	9
355.944	1	6
356.115	1	13
356.286	1	11
356.457	1	9
356.628	1	7
356.799	1	5
356.970	1	15
357.141	1	0
357.311	1	10
357.482	1	8
357.653	1	4
357.824	1	3
357.995	1	2
358.166	1	2
358.337	1	6
358.508	1	8
358.679	1	12
358.850	1	5
359.021	1	4
359.192	1	10
359.363	1	9
359.533	1	-1
359.704	1	18
359.875	1	22
360.046	1	22
360.217	1	2
360.388	1	14
360.559	1	8
360.730	1	7
360.901	1	1
361.072	1	11
361.243	1	9
361.414	1	10
361.584	1	2
361.755	1	9
361.926	1	10
362.097	1	1
362.268	1	6
362.439	1	1
362.610	1	6
362.781	1	6
362.952	1	9
363.123	1	6
363.293	1	1
363.464	1	-2
363.635	1	10
363.806	1	-5
363.977	1	5
364.148	1	4
364.319	1	6
364.490	1	13
364.661	1	5
364.832	1	2
365.002	1	18
365.173	1	0
365.344	1	10
365.515	1	10
365.686	1	0
365.857	1	8
366.028	1	2
366.199	1	9
366.370	1	13
366.540	1	6
366.711	1	2
366.882	1	4
367.053	1	0
367.224	1	14
367.395	1	2
367.566	1	-5
367.737	1	5
367.908	1	-1
368.078	1	17
368.249	1	5
368.420	1	13
368.591	1	9
368.762	1	-3
368.933	1	6
369.104	1	18
369.274	1	-9
369.445	1	7
369.616	1	8
369.787	1	18
369.958	1	9
370.129	1	-4
370.300	1	-2
370.471	1	2
370.641	1	13
370.812	1	14
370.983	1	-6
371.154	1	-4
371.325	1	15
371.496	1	11
371.667	1	8
371.837	1	6
372.008	1	3
372.179	1	4
372.350	1	1
372.521	1	0
372.692	1	9
372.863	1	4
373.033	1	12
373.204	1	0
373.375	1	8
373.546	1	19
373.717	1	-3
373.888	1	8
374.059	1	10
374.229	1	1
374.400	1	4
374.571	1	0
374.742	1	3
374.913	1	7
375.084	1	12
375.254	1	9
375.425	1	4
375.596	1	16
375.767	1	1
375.938	1	11
376.109	1	11
376.279	1	1
376.450	1	8
376.621	1	-1
376.792	1	14
376.963	1	6
377.134	1	10
377.304	1	13
377.475	1	7
377.646	1	-2
377.817	1	2
377.988	1	5
378.159	1	21
378.329	1	6
378.500	1	17
378.671	1	7
378.842	1	4
379.013	1	10
379.184	1	-3
379.354	1	3
379.525	1	0
379.696	1	4
379.867	1	0
380.038	1	12
380.209	1	9
380.379	1	13
380.550	1	15
380.721	1	4
380.892	1	7
381.063	1	4
381.233	1	17
381.404	1	8
381.575	1	9
381.746	1	17
381.917	1	7
382.087	1	23
382.258	1	22
382.429	1	6
382.600	1	7
382.771	1	6
382.941	1	14
383.112	1	4
383.283	1	14
383.454	1	0
383.625	1	-6
383.795	1	13
383.966	1	-1
384.137	1	8
384.308	1	7
384.479	1	-3
384.649	1	9
384.820	1	18
384.991	1	5
385.162	1	11
385.333	1	9
385.503	1	9
385.674	1	-5
385.845	1	20
386.016	1	19
386.187	1	9
386.357	1	18
386.528	1	2
386.699	1	7
386.870	1	14
387.041	1	20
387.211	1	7
387.382	1	2
387.553	1	5
387.724	1	12
387.894	1	7
388.065	1	5
388.236	1	15
388.407	1	18
388.578	1	9
388.748	1	13
388.919	1	8
389.090	1	13
389.261	1	7
389.431	1	5
389.602	1	22
389.773	1	17
389.944	1	15
390.114	1	13
390.285	1	4
390.456	1	8
390.627	1	9
390.798	1	8
390.968	1	24
391.139	1	-3
391.310	1	8
391.481	1	6
391.651	1	23
391.822	1	16
391.993	1	12
392.164	1	15
392.334	1	1
392.505	1	20
392.676	1	13
392.847	1	17
393.017	1	17
393.188	1	17
393.359	1	11
393.530	1	21
393.700	1	8
393.871	1	13
394.042	1	10
394.213	1	8
394.383	1	1
394.554	1	17
394.725	1	5
394.896	1	13
395.066	1	10
395.237	1	16
395.408	1	12
395.579	1	6
395.749	1	9
395.920	1	9
396.091	1	17
396.262	1	6
396.432	1	5
396.603	1	7
396.774	1	0
396.945	1	10
397.115	1	10
397.286	1	13
397.457	1	6
397.627	1	8
397.798	1	12
397.969	1	15
398.140	1	16
398.310	1	18
398.481	1	5
398.652	1	10
398.823	1	10
398.993	1	19
399.164	1	12
399.335	1	8
399.505	1	14
399.676	1	-4
399.847	1	8
400.018	1	19
400.188	1	11
400.359	1	14
400.530	1	15
400.700	1	15
400.871	1	13
401.042	1	13
401.213	1	7
401.383	1	10
401.554	1	11
401.725	1	9
401.895	1	13
402.066	1	20
402.237	1	9
402.408	1	13
402.578	1	17
402.749	1	11
402.920	1	7
403.090	1	4
403.261	1	13
403.432	1	12
403.603	1	14
403.773	1	18
403.944	1	4
404.115	1	5
404.285	1	21
404.456	1	12
404.627	1	10
404.797	1	7
404.968	1	12
405.139	1	11
405.310	1	21
405.480	1	14
405.651	1	1
405.822	1	5
405.992	1	1
406.163	1	19
406.334	1	16
406.504	1	17
406.675	1	27
406.846	1	17
407.016	1	19
407.187	1	18
407.358	1	20
407.528	1	7
407.699	1	5
407.870	1	13
408.041	1	20
408.211	1	20
408.382	1	19
408.553	1	20
408.723	1	13
408.894	1	11
409.065	1	7
409.235	1	14
409.406	1	11
409.577	1	1
409.747	1	8
409.918	1	11
410.089	1	20
410.259	1	19
410.430	1	23
410.601	1	5
410.771	1	14
410.942	1	8
411.113	1	6
411.283	1	16
411.454	1	17
411.625	1	20
411.795	1	4
411.966	1	33
412.137	1	17
412.307	1	8
412.478	1	20
412.649	1	12
412.819	1	16
412.990	1	19
413.161	1	29
413.331	1	11
413.502	1	20
413.672	1	21
413.843	1	23
414.014	1	14
414.184	1	18
414.355	1	14
414.526	1	10
414.696	1	10
414.867	1	9
415.038	1	7
415.208	1	19
415.379	1	18
415.550	1	27
415.720	1	-2
415.891	1	30
416.062	1	12
416.232	1	14
416.403	1	11
416.573	1	26
416.744	1	17
416.915	1	27
417.085	1	20
417.256	1	8
417.427	1	17
417.597	1	13
417.768	1	19
417.939	1	13
418.109	1	21
418.280	1	7
418.450	1	19
418.621	1	17
418.792	1	19
418.962	1	0
419.133	1	10
419.304	1	10
419.474	1	10
419.645	1	10
419.815	1	13
419.986	1	22
420.157	1	14
420.327	1	17
420.498	1	11
420.669	1	13
420.839	1	7
421.010	1	12
421.180	1	16
421.351	1	20
421.522	1	16
421.692	1	24
421.863	1	20
422.033	1	12
422.204	1	15
422.375	1	11
422.545	1	11
422.716	1	21
422.886	1	6
423.057	1	25
423.228	1	12
423.398	1	21
423.569	1	12
423.740	1	13
423.910	1	24
424.081	1	13
424.251	1	8
424.422	1	14
424.593	1	12
424.763	1	20
424.934	1	18
425.104	1	14
425.275	1	28
425.445	1	6
425.616	1	14
425.787	1	10
425.957	1	4
426.128	1	18
426.298	1	28
426.469	1	11
426.640	1	16
426.810	1	26
426.981	1	16
427.151	1	15
427.322	1	15
427.493	1	17
427.663	1	21
427.834	1	15
428.004	1	8
428.175	1	21
428.345	1	10
428.516	1	15
428.687	1	13
428.857	1	11
429.028	1	13
429.198	1	22
429.369	1	22
429.540	1	22
429.710	1	21
429.881	1	0
430.051	1	19
430.222	1	18
430.392	1	6
430.563	1	19
430.734	1	18
430.904	1	11
431.075	1	17
431.245	1	11
431.416	1	24
431.586	1	21
431.757	1	12
431.927	1	14
432.098	1	0
432.269	1	15
432.439	1	14
432.610	1	19
432.780	1	13
432.951	1	28
433.121	1	25
433.292	1	12
433.462	1	10
433.633	1	9
433.804	1	15
433.974	1	21
434.145	1	15
434.315	1	21
434.486	1	18
434.656	1	23
434.827	1	11
434.997	1	13
435.168	1	18
435.339	1	8
435.509	1	17
435.680	1	19
435.850	1	10
436.021	1	29
436.191	1	23
436.362	1	16
436.532	1	19
436.703	1	18
436.873	1	14
437.044	1	3
437.214	1	4
437.385	1	15
437.556	1	9
437.726	1	19
437.897	1	20
438.067	1	7
438.238	1	18
438.408	1	14
438.579	1	13
438.749	1	12
438.920	1	25
439.090	1	18
439.261	1	13
439.431	1	15
439.602	1	10
439.772	1	23
439.943	1	17
440.113	1	13
440.284	1	14
440.455	1	16
440.625	1	23
440.796	1	29
440.966	1	15
441.137	1	3
441.307	1	0
441.478	1	24
441.648	1	8
441.819	1	21
441.989	1	20
442.160	1	3
442.330	1	10
442.501	1	12
442.671	1	14
442.842	1	19
443.012	1	11
443.183	1	19
443.353	1	21
443.524	1	11
443.694	1	1
443.865	1	13
444.035	1	9
444.206	1	11
444.376	1	8
444.547	1	26
444.717	1	6
444.888	1	17
445.058	1	6
445.229	1	4
445.399	1	-1
445.570	1	1
445.740	1	14
445.911	1	24
446.081	1	22
446.252	1	19
446.422	1	15
446.593	1	13
446.763	1	8
446.934	1	19
447.104	1	8
447.275	1	18
447.445	1	17
447.616	1	24
447.786	1	13
447.957	1	7
448.127	1	13
448.298	1	8
448.468	1	18
448.639	1	9
448.809	1	13
448.979	1	-2
449.150	1	10
449.320	1	9
449.491	1	19
449.661	1	23
449.832	1	14
450.002	1	15
450.173	1	5
450.343	1	14
450.514	1	16
450.684	1	13
450.855	1	32
451.025	1	14
451.196	1	8
451.366	1	20
451.537	1	6
451.707	1	9
451.878	1	6
452.048	1	0
452.218	1	21
452.389	1	10
452.559	1	-2
452.730	1	16
452.900	1	17
453.071	1	15
453.241	1	18
453.412	1	8
453.582	1	16
453.753	1	12
453.923	1	18
454.093	1	18
454.264	1	17
454.434	1	21
454.605	1	17
454.775	1	19
454.946	1	25
455.116	1	8
455.287	1	7
455.457	1	12
455.628	1	12
455.798	1	25
455.968	1	14
456.139	1	12
456.309	1	8
456.480	1	7
456.650	1	11
456.821	1	24
456.991	1	8
457.161	1	8
457.332	1	8
457.502	1	13
457.673	1	14
457.843	1	11
458.014	1	11
458.184	1	5
458.355	1	10
458.525	1	3
458.695	1	13
458.866	1	13
459.036	1	10
459.207	1	4
459.377	1	22
459.548	1	11
459.718	1	12
459.888	1	26
460.059	1	13
460.229	1	7
460.400	1	18
460.570	1	10
460.740	1	4
460.911	1	12
461.081	1	0
461.252	1	3
461.422	1	11
461.593	1	3
461.763	1	10
461.933	1	9
462.104	1	17
462.274	1	6
462.445	1	8
462.615	1	13
462.785	1	7
462.956	1	5
463.126	1	1
463.297	1	13
463.467	1	8
463.638	1	8
463.808	1	5
463.978	1	9
464.149	1	12
464.319	1	6
464.490	1	13
464.660	1	14
464.830	1	7
465.001	1	10
465.171	1	3
465.342	1	16
465.512	1	5
465.682	1	14
465.853	1	10
466.023	1	16
466.194	1	15
466.364	1	8
466.534	1	12
466.705	1	12
466.875	1	10
467.045	1	10
467.216	1	8
467.386	1	6
467.557	1	8
467.727	1	6
467.897	1	4
468.068	1	19
468.238	1	9
468.409	1	4
468.579	1	7
468.749	1	10
468.920	1	10
469.090	1	8
469.260	1	10
469.431	1	7
469.601	1	4
469.772	1	-2
469.942	1	14
470.112	1	12
470.283	1	14
470.453	1	16
470.623	1	15
470.794	1	11
470.964	1	4
471.135	1	9
471.305	1	2
471.475	1	12
471.646	1	2
471.816	1	17
471.986	1	11
472.157	1	6
472.327	1	8
472.497	1	-6
472.668	1	6
472.838	1	2
473.009	1	24
473.179	1	10
473.349	1	8
473.520	1	15
473.690	1	10
473.860	1	11
474.031	1	16
474.201	1	12
474.371	1	4
474.542	1	22
474.712	1	1
474.882	1	15
475.053	1	14
475.223	1	11
475.394	1	14
475.564	1	1
475.734	1	6
475.905	1	11
476.075	1	7
476.245	1	13
476.416	1	-2
476.586	1	14
476.756	1	12
476.927	1	15
477.097	1	14
477.267	1	12
477.438	1	-6
477.608	1	13
477.778	1	15
477.949	1	10
478.119	1	15
478.289	1	18
478.460	1	8
478.630	1	5
478.800	1	4
478.971	1	9
479.141	1	2
479.311	1	3
479.482	1	9
479.652	1	5
479.822	1	2
479.993	1	-8
480.163	1	3
480.333	1	16
480.504	1	6
480.674	1	5
480.844	1	14
481.015	1	3
481.185	1	13
481.355	1	-2
481.525	1	6
481.696	1	11
481.866	1	7
482.036	1	1
482.207	1	8
482.377	1	3
482.547	1	18
482.718	1	10
482.888	1	7
483.058	1	9
483.229	1	-5
483.399	1	4
483.569	1	3
483.740	1	3
483.910	1	0
484.080	1	9
484.250	1	4
484.421	1	11
484.591	1	4
484.761	1	5
484.932	1	14
485.102	1	7
485.272	1	-3
485.443	1	-3
485.613	1	9
485.783	1	-3
485.953	1	-9
486.124	1	-10
486.294	1	10
486.464	1	3
486.635	1	11
486.805	1	0
486.975	1	-2
487.146	1	2
487.316	1	12
487.486	1	-1
487.656	1	2
487.827	1	5
487.997	1	4
488.167	1	3
488.338	1	-8
488.508	1	5
488.678	1	7
488.848	1	13
489.019	1	10
489.189	1	6
489.359	1	0
489.529	1	-1
489.700	1	8
489.870	1	4
490.040	1	0
490.211	1	1
490.381	1	7
490.551	1	-5
490.721	1	5
490.892	1	18
491.062	1	6
491.232	1	2
491.402	1	6
491.573	1	1
491.743	1	4
491.913	1	4
492.084	1	6
492.254	1	6
492.424	1	2
492.594	1	17
492.765	1	13
492.935	1	12
493.105	1	4
493.275	1	1
493.446	1	9
493.616	1	-1
493.786	1	7
493.956	1	7
494.127	1	-5
494.297	1	8
494.467	1	10
494.637	1	3
494.808	1	5
494.978	1	-1
495.148	1	8
495.318	1	-1
495.489	1	8
495.659	1	17
495.829	1	13
495.999	1	5
496.170	1	-3
496.340	1	12
496.510	1	-1
496.680	1	1
496.851	1	-9
497.021	1	6
497.191	1	-5
497.361	1	3
497.532	1	-4
497.702	1	12
497.872	1	2
498.042	1	4
498.213	1	7
498.383	1	17
498.553	1	2
498.723	1	-3
498.894	1	5
499.064	1	13
499.234	1	1
499.404	1	5
499.574	1	4
499.745	1	16
499.915	1	-9
500.085	1	2
500.255	1	17
500.426	1	4
500.596	1	6
500.766	1	1
500.936	1	-3
501.106	1	13
501.277	1	14
501.447	1	7
501.617	1	1
501.787	1	11
501.958	1	4
502.128	1	13
502.298	1	9
502.468	1	3
502.638	1	1
502.809	1	-2
502.979	1	-6
503.149	1	-8
503.319	1	0
503.489	1	2
503.660	1	-2
503.830	1	0
504.000	1	9
504.170	1	4
504.340	1	-3
504.511	1	9
504.681	1	14
504.851	1	11
505.021	1	10
505.192	1	-6
505.362	1	3
505.532	1	3
505.702	1	-10
505.872	1	9
506.043	1	-4
506.213	1	1
506.383	1	6
506.553	1	5
506.723	1	16
506.893	1	4
507.064	1	6
507.234	1	-4
507.404	1	17
507.574	1	2
507.744	1	12
507.915	1	1
508.085	1	-3
508.255	1	13
508.425	1	-5
508.595	1	7
508.766	1	-4
508.936	1	11
509.106	1	3
509.276	1	1
509.446	1	9
509.616	1	-6
509.787	1	10
509.957	1	-3
510.127	1	-5
510.297	1	0
510.467	1	-3
510.638	1	6
510.808	1	-4
510.978	1	14
511.148	1	10
511.318	1	5
511.488	1	1
511.659	1	7
511.829	1	13
511.999	1	-1
512.169	1	4
512.339	1	-6
512.509	1	-1
512.680	1	-8
512.850	1	5
513.020	1	12
513.190	1	11
513.360	1	-3
513.530	1	0
513.700	1	-1
513.871	1	1
514.041	1	1
514.211	1	-4
514.381	1	0
514.551	1	-5
514.721	1	4
514.892	1	-1
515.062	1	5
515.232	1	8
515.402	1	6
515.572	1	3
515.742	1	2
515.912	1	3
516.083	1	8
516.253	1	8
516.423	1	2
516.593	1	3
516.763	1	10
516.933	1	15
517.104	1	0
517.274	1	3
517.444	1	-1
517.614	1	3
517.784	1	2
517.954	1	3
518.124	1	1
518.294	1	4
518.465	1	8
518.635	1	8
518.805	1	8
518.975	1	-5
519.145	1	2
519.315	1	-1
519.485	1	5
519.656	1	3
519.826	1	-4
519.996	1	8
520.166	1	-9
520.336	1	-9
520.506	1	0
520.676	1	-2
520.846	1	-7
521.017	1	6
521.187	1	10
521.357	1	1
521.527	1	-3
521.697	1	9
521.867	1	8
522.037	1	-1
522.207	1	7
522.377	1	-1
522.548	1	4
522.718	1	3
522.888	1	6
523.058	1	3
523.228	1	-6
523.398	1	15
523.568	1	6
523.738	1	5
523.909	1	-3
524.079	1	0
524.249	1	7
524.419	1	-9
524.589	1	-3
524.759	1	9
524.929	1	-6
525.099	1	-14
525.269	1	-5
525.439	1	6
525.610	1	-5
525.780	1	4
525.950	1	13
526.120	1	3
526.290	1	-2
526.460	1	7
526.630	1	6
526.800	1	2
526.970	1	8
527.140	1	13
527.311	1	13
527.481	1	1
527.651	1	6
527.821	1	-4
527.991	1	-4
528.161	1	3
528.331	1	7
528.501	1	-1
528.671	1	4
528.841	1	21
529.011	1	1
529.181	1	5
529.352	1	2
529.522	1	7
529.692	1	-3
529.862	1	-3
530.032	1	4
530.202	1	5
530.372	1	5
530.542	1	4
530.712	1	10
530.882	1	11
531.052	1	-4
531.222	1	-1
531.392	1	4
531.563	1	-1
531.733	1	-10
531.903	1	7
532.073	1	-2
532.243	1	11
532.413	1	5
532.583	1	11
532.753	1	9
532.923	1	9
533.093	1	-1
533.263	1	2
533.433	1	-2
533.603	1	-2
533.773	1	4
533.943	1	4
534.113	1	0
534.284	1	-5
534.454	1	7
534.624	1	8
534.794	1	1
534.964	1	-3
535.134	1	11
535.304	1	9
535.474	1	-4
535.644	1	8
535.814	1	8
535.984	1	-2
536.154	1	4
536.324	1	-1
536.494	1	2
536.664	1	3
536.834	1	6
537.004	1	8
537.174	1	9
537.344	1	0
537.514	1	1
537.685	1	7
537.855	1	4
538.025	1	-3
538.195	1	0
538.365	1	12
538.535	1	2
538.705	1	2
538.875	1	6
539.045	1	10
539.215	1	1
539.385	1	-1
539.555	1	-10
539.725	1	-4
539.895	1	4
540.065	1	-2
540.235	1	-3
540.405	1	-4
540.575	1	2
540.745	1	5
540.915	1	7
541.085	1	-3
541.255	1	8
541.425	1	-6
541.595	1	4
541.765	1	3
541.935	1	-4
542.105	1	7
542.275	1	8
542.445	1	8
542.615	1	1
542.785	1	-2
542.955	1	2
543.125	1	-4
543.295	1	17
543.465	1	-1
543.635	1	-4
543.805	1	-9
543.975	1	2
544.145	1	11
544.315	1	-7
544.485	1	9
544.655	1	0
544.825	1	-4
544.995	1	9
545.165	1	2
545.335	1	2
545.505	1	-1
545.675	1	-6
545.845	1	-3
546.015	1	4
546.185	1	7
546.355	1	-1
546.525	1	1
546.695	1	-4
546.865	1	13
547.035	1	1
547.205	1	5
547.375	1	6
547.545	1	-4
547.715	1	3
547.885	1	-11
548.055	1	-4
548.225	1	4
548.395	1	-1
548.565	1	10
548.735	1	-7
548.905	1	2
549.075	1	9
549.245	1	6
549.415	1	-3
549.585	1	4
549.755	1	7
549.925	1	1
550.095	1	0
550.265	1	11
550.435	1	1
550.605	1	9
550.775	1	7
550.945	1	-4
551.115	1	2
551.285	1	5
551.455	1	5
551.625	1	-4
551.795	1	-8
551.965	1	2
552.135	1	3
552.305	1	1
552.475	1	-1
552.645	1	0
552.815	1	5
552.985	1	-7
553.155	1	0
553.325	1	0
553.495	1	0
553.665	1	6
553.835	1	8
554.004	1	10
554.174	1	-1
554.344	1	1
554.514	1	5
554.684	1	-4
554.854	1	-12
555.024	1	-5
555.194	1	2
555.364	1	-2
555.534	1	3
555.704	1	0
555.874	1	3
556.044	1	0
556.214	1	0
556.384	1	6
556.554	1	-7
556.724	1	5
556.894	1	-3
557.064	1	7
557.234	1	-6
557.404	1	-1
557.573	1	-7
557.743	1	3
557.913	1	8
558.083	1	-9
558.253	1	-4
558.423	1	-1
558.593	1	0
558.763	1	13
558.933	1	6
559.103	1	5
559.273	1	4
559.443	1	-4
559.613	1	-13
559.783	1	-10
559.953	1	5
560.122	1	-5
560.292	1	19
560.462	1	-6
560.632	1	0
560.802	1	0
560.972	1	-13
561.142	1	-2
561.312	1	-10
561.482	1	-3
561.652	1	-5
561.822	1	-7
561.992	1	-9
562.162	1	11
562.331	1	11
562.501	1	-11
562.671	1	7
562.841	1	-13
563.011	1	6
563.181	1	3
563.351	1	-3
563.521	1	-5
563.691	1	-1
563.861	1	4
564.031	1	1
564.201	1	10
564.370	1	-4
564.540	1	3
564.710	1	-3
564.880	1	5
565.050	1	-1
565.220	1	-5
565.390	1	-5
565.560	1	11
565.730	1	-5
565.900	1	4
566.069	1	14
566.239	1	-8
566.409	1	-13
566.579	1	7
566.749	1	-8
566.919	1	-1
567.089	1	3
567.259	1	6
567.429	1	-7
567.599	1	2
567.768	1	2
567.938	1	-10
568.108	1	13
568.278	1	2
568.448	1	1
568.618	1	-4
568.788	1	5
568.958	1	2
569.128	1	5
569.297	1	-5
569.467	1	-6
569.637	1	7
569.807	1	-2
569.977	1	-2
570.147	1	8
570.317	1	-4
570.487	1	0
570.656	1	-10
570.826	1	3
570.996	1	3
571.166	1	9
571.336	1	-14
571.506	1	0
571.676	1	15
571.846	1	6
572.015	1	5
572.185	1	2
572.355	1	1
572.525	1	-10
572.695	1	3
572.865	1	-6
573.035	1	12
573.205	1	9
573.374	1	-2
573.544	1	5
573.714	1	-3
573.884	1	-4
574.054	1	-2
574.224	1	-2
574.394	1	-6
574.563	1	4
574.733	1	14
574.903	1	12
575.073	1	6
575.243	1	4
575.413	1	-4
575.583	1	11
575.752	1	-7
575.922	1	-3
576.092	1	0
576.262	1	-3
576.432	1	3
576.602	1	-9
576.772	1	8
576.941	1	9
577.111	1	-6
577.281	1	3
577.451	1	-9
577.621	1	-1
577.791	1	4
577.960	1	-5
578.130	1	-2
578.300	1	-11
578.470	1	2
578.640	1	9
578.810	1	-10
578.979	1	3
579.149	1	2
579.319	1	-3
579.489	1	1
579.659	1	-1
579.829	1	6
579.998	1	-1
580.168	1	7
580.338	1	6
580.508	1	10
580.678	1	-3
580.848	1	-4
581.017	1	13
581.187	1	5
581.357	1	-13
581.527	1	6
581.697	1	3
581.867	1	2
582.036	1	-10
582.206	1	10
582.376	1	0
582.546	1	-13
582.716	1	-6
582.885	1	-12
583.055	1	-6
583.225	1	-6
583.395	1	15
583.565	1	0
583.735	1	9
583.904	1	1
584.074	1	-3
584.244	1	-15
584.414	1	4
584.584	1	-3
584.753	1	1
584.923	1	6
585.093	1	9
585.263	1	12
585.433	1	0
585.602	1	3
585.772	1	-8
585.942	1	3
586.112	1	-4
586.282	1	2
586.451	1	8
586.621	1	8
586.791	1	4
586.961	1	-3
587.131	1	1
587.300	1	-3
587.470	1	-11
587.640	1	8
587.810	1	10
587.980	1	-4
588.149	1	2
588.319	1	10
588.489	1	2
588.659	1	2
588.829	1	14
588.998	1	2
589.168	1	0
589.338	1	-7
589.508	1	5
589.677	1	7
589.847	1	10
590.017	1	-2
590.187	1	5
590.357	1	8
590.526	1	-7
590.696	1	-1
590.866	1	-3
591.036	1	7
591.205	1	9
591.375	1	-3
591.545	1	11
591.715	1	0
591.885	1	4
592.054	1	-1
592.224	1	5
592.394	1	-8
592.564	1	5
592.733	1	-16
592.903	1	1
593.073	1	-1
593.243	1	4
593.412	1	-1
593.582	1	2
593.752	1	0
593.922	1	0
594.091	1	-13
594.261	1	1
594.431	1	13
594.601	1	-3
594.771	1	8
594.940	1	-2
595.110	1	-4
595.280	1	-7
595.450	1	1
595.619	1	0
595.789	1	3
595.959	1	7
596.129	1	1
596.298	1	7
596.468	1	-2
596.638	1	-1
596.808	1	3
596.977	1	-4
597.147	1	-3
597.317	1	-6
597.487	1	8
597.656	1	3
597.826	1	15
597.996	1	9
598.166	1	9
598.335	1	-2
598.505	1	9
598.675	1	-9
598.844	1	-9
599.014	1	-1
599.184	1	9
599.354	1	6
599.523	1	1
599.693	1	11
599.863	1	1
600.033	1	-7
600.202	1	2
600.372	1	1
600.542	1	10
600.712	1	3
600.881	1	-2
601.051	1	0
601.221	1	7
601.390	1	-5
601.560	1	3
601.730	1	16
601.900	1	7
602.069	1	2
602.239	1	-3
602.409	1	2
602.578	1	3
602.748	1	1
602.918	1	6
603.088	1	7
603.257	1	5
603.427	1	-3
603.597	1	1
603.767	1	8
603.936	1	-1
604.106	1	5
604.276	1	4
604.445	1	10
604.615	1	7
604.785	1	9
604.954	1	6
605.124	1	-5
605.294	1	9
605.464	1	5
605.633	1	2
605.803	1	0
605.973	1	5
606.142	1	-2
606.312	1	-2
606.482	1	-3
606.652	1	4
606.821	1	-2
606.991	1	-5
607.161	1	-1
607.330	1	-2
607.500	1	7
607.670	1	13
607.839	1	16
608.009	1	0
608.179	1	0
608.348	1	2
608.518	1	4
608.688	1	-3
608.858	1	6
609.027	1	0
609.197	1	-4
609.367	1	16
609.536	1	3
609.706	1	3
609.876	1	9
610.045	1	8
610.215	1	0
610.385	1	-7
610.554	1	2
610.724	1	7
610.894	1	6
611.063	1	-12
611.233	1	10
611.403	1	0
611.572	1	0
611.742	1	-2
611.912	1	5
612.081	1	-2
612.251	1	11
612.421	1	6
612.590	1	3
612.760	1	1
612.930	1	-6
613.099	1	4
613.269	1	1
613.439	1	-3
613.608	1	6
613.778	1	-3
613.948	1	7
614.117	1	14
614.287	1	-6
614.457	1	-5
614.626	1	10
614.796	1	1
614.966	1	7
615.135	1	3
615.305	1	8
615.475	1	4
615.644	1	1
615.814	1	-3
615.984	1	6
616.153	1	1
616.323	1	17
616.493	1	24
616.662	1	5
616.832	1	3
617.002	1	2
617.171	1	-13
617.341	1	0
617.511	1	5
617.680	1	9
617.850	1	14
618.019	1	1
618.189	1	2
618.359	1	1
618.528	1	-6
618.698	1	9
618.868	1	-3
619.037	1	1
619.207	1	0
619.377	1	6
619.546	1	2
619.716	1	5
619.885	1	-1
620.055	1	-5
620.225	1	17
620.394	1	5
620.564	1	6
620.734	1	10
620.903	1	3
621.073	1	-2
621.242	1	5
621.412	1	4
621.582	1	8
621.751	1	8
621.921	1	-2
622.091	1	5
622.260	1	5
622.430	1	0
622.599	1	-11
622.769	1	7
622.939	1	15
623.108	1	4
623.278	1	-4
623.448	1	16
623.617	1	-8
623.787	1	11
623.956	1	15
624.126	1	6
624.296	1	6
624.465	1	4
624.635	1	8
624.804	1	0
624.974	1	10
625.144	1	11
625.313	1	-6
625.483	1	15
625.652	1	6
625.822	1	6
625.992	1	0
626.161	1	11
626.331	1	-7
626.501	1	4
626.670	1	12
626.840	1	10
627.009	1	12
627.179	1	3
627.348	1	3
627.518	1	8
627.688	1	6
627.857	1	10
628.027	1	-5
628.196	1	5
628.366	1	3
628.536	1	5
628.705	1	9
628.875	1	11
629.044	1	0
629.214	1	5
629.384	1	5
629.553	1	9
629.723	1	-1
629.892	1	15
630.062	1	-4
630.232	1	8
630.401	1	15
630.571	1	8
630.740	1	6
630.910	1	7
631.079	1	-4
631.249	1	4
631.419	1	0
631.588	1	-5
631.758	1	4
631.927	1	2
632.097	1	6
632.266	1	-2
632.436	1	7
632.606	1	2
632.775	1	9
632.945	1	15
633.114	1	6
633.284	1	-6
633.453	1	7
633.623	1	1
633.793	1	2
633.962	1	6
634.132	1	8
634.301	1	3
634.471	1	-1
634.640	1	1
634.810	1	10
634.979	1	13
635.149	1	1
635.319	1	4
635.488	1	8
635.658	1	15
635.827	1	2
635.997	1	15
636.166	1	2
636.336	1	6
636.505	1	2
636.675	1	9
636.845	1	8
637.014	1	3
637.184	1	10
637.353	1	5
637.523	1	4
637.692	1	12
637.862	1	3
638.031	1	11
638.201	1	10
638.370	1	1
638.540	1	2
638.710	1	22
638.879	1	7
639.049	1	8
639.218	1	10
639.388	1	7
639.557	1	9
639.727	1	5
639.896	1	5
640.066	1	4
640.235	1	17
640.405	1	3
640.574	1	1
640.744	1	11
640.914	1	16
641.083	1	3
641.253	1	11
641.422	1	9
641.592	1	1
641.761	1	5
641.931	1	-4
642.100	1	-3
642.270	1	-4
642.439	1	2
642.609	1	5
642.778	1	3
642.948	1	0
643.117	1	3
643.287	1	0
643.456	1	5
643.626	1	15
643.795	1	1
643.965	1	12
644.134	1	-4
644.304	1	2
644.473	1	3
644.643	1	4
644.812	1	18
644.982	1	11
645.151	1	17
645.321	1	1
645.490	1	-5
645.660	1	-3
645.829	1	1
645.999	1	9
646.168	1	-2
646.338	1	6
646.507	1	10
646.677	1	6
646.846	1	11
647.016	1	9
647.185	1	-3
647.355	1	2
647.524	1	19
647.694	1	1
647.863	1	2
648.033	1	0
648.202	1	3
648.372	1	16
648.541	1	8
648.711	1	6
648.880	1	10
649.050	1	3
649.219	1	-1
649.389	1	8
649.558	1	5
649.728	1	5
649.897	1	20
650.067	1	7
650.236	1	13
650.406	1	4
650.575	1	3
650.745	1	-4
650.914	1	5
651.084	1	6
651.253	1	13
651.423	1	9
651.592	1	1
651.762	1	11
651.931	1	1
652.101	1	4
652.270	1	8
652.440	1	0
652.609	1	5
652.778	1	-6
652.948	1	12
653.117	1	-6
653.287	1	16
653.456	1	10
653.626	1	-2
653.795	1	-1
653.965	1	3
654.134	1	9
654.304	1	1
654.473	1	4
654.643	1	8
654.812	1	5
654.982	1	0
655.151	1	3
655.320	1	3
655.490	1	11
655.659	1	0
655.829	1	4
655.998	1	-1
656.168	1	4
656.337	1	15
656.507	1	-2
656.676	1	7
656.846	1	1
657.015	1	5
657.184	1	8
657.354	1	11
657.523	1	1
657.693	1	3
657.862	1	4
658.032	1	1
658.201	1	5
658.371	1	-3
658.540	1	6
658.709	1	1
658.879	1	-9
659.048	1	8
659.218	1	2
659.387	1	8
659.557	1	0
659.726	1	12
659.895	1	2
660.065	1	2
660.234	1	0
660.404	1	10
660.573	1	9
660.743	1	6
660.912	1	-1
661.081	1	26
661.251	1	3
661.420	1	0
661.590	1	-2
661.759	1	1
661.929	1	8
662.098	1	4
662.267	1	-1
662.437	1	2
662.606	1	7
662.776	1	9
662.945	1	-4
663.115	1	11
663.284	1	6
663.453	1	2
663.623	1	11
663.792	1	3
663.962	1	3
664.131	1	2
664.300	1	5
664.470	1	5
664.639	1	3
664.809	1	-6
664.978	1	2
665.148	1	4
665.317	1	5
665.486	1	5
665.656	1	8
665.825	1	12
665.995	1	-1
666.164	1	5
666.333	1	2
666.503	1	4
666.672	1	-2
666.842	1	-5
667.011	1	1
667.180	1	9
667.350	1	5
667.519	1	5
667.689	1	-2
667.858	1	4
668.027	1	17
668.197	1	1
668.366	1	4
668.536	1	14
668.705	1	5
668.874	1	-3
669.044	1	8
669.213	1	7
669.382	1	-3
669.552	1	13
669.721	1	7
669.891	1	8
670.060	1	8
670.229	1	8
670.399	1	8
670.568	1	4
670.738	1	-9
670.907	1	4
671.076	1	6
671.246	1	18
671.415	1	7
671.584	1	1
671.754	1	-3
671.923	1	8
672.093	1	16
672.262	1	12
672.431	1	-5
672.601	1	7
672.770	1	-3
672.939	1	6
673.109	1	2
673.278	1	8
673.448	1	2
673.617	1	-1
673.786	1	6
