325.333	1	14
325.504	1	3
325.675	1	0
325.846	1	8
326.017	1	2
326.188	1	-1
326.359	1	4
326.531	1	5
326.702	1	-1
326.873	1	-1
327.044	1	3
327.215	1	11
327.386	1	-1
327.557	1	4
327.728	1	7
327.899	1	9
328.070	1	8
328.241	1	5
328.412	1	2
328.583	1	11
328.754	1	5
328.926	1	-2
329.097	1	1
329.268	1	3
329.439	1	12
329.610	1	8
329.781	1	-2
329.952	1	11
330.123	1	4
330.294	1	0
330.465	1	6
330.636	1	6
330.807	1	11
330.978	1	4
331.149	1	5
331.320	1	4
331.492	1	9
331.663	1	12
331.834	1	8
332.005	1	0
332.176	1	4
332.347	1	11
332.518	1	12
332.689	1	8
332.860	1	-2
333.031	1	10
333.202	1	-3
333.373	1	15
333.544	1	6
333.715	1	14
333.886	1	0
334.057	1	8
334.228	1	-2
334.399	1	15
334.570	1	2
334.741	1	16
334.912	1	6
335.084	1	0
335.255	1	5
335.426	1	5
335.597	1	8
335.768	1	16
335.939	1	13
336.110	1	1
336.281	1	13
336.452	1	6
336.623	1	16
336.794	1	-7
336.965	1	1
337.136	1	9
337.307	1	1
337.478	1	2
337.649	1	12
337.820	1	6
337.991	1	5
338.162	1	1
338.333	1	2
338.504	1	3
338.675	1	7
338.846	1	9
339.017	1	19
339.188	1	9
339.359	1	13
339.530	1	9
339.701	1	4
339.872	1	14
340.043	1	-8
340.214	1	3
340.385	1	4
340.556	1	9
340.727	1	13
340.898	1	14
341.069	1	11
341.240	1	6
341.411	1	0
341.582	1	6
341.753	1	-2
341.924	1	6
342.095	1	5
342.266	1	10
342.437	1	7
342.608	1	14
342.779	1	8
342.950	1	6
343.121	1	10
343.292	1	0
343.463	1	5
343.634	1	1
343.805	1	-3
343.976	1	8
344.147	1	-1
344.318	1	9
344.489	1	16
344.660	1	18
344.831	1	19
345.002	1	1
345.173	1	0
345.344	1	2
345.515	1	-11
345.686	1	16
345.857	1	-4
346.028	1	5
346.199	1	1
346.370	1	0
346.541	1	7
346.712	1	-2
346.883	1	0
347.054	1	-1
347.225	1	6
347.396	1	-5
347.567	1	7
347.738	1	0
347.909	1	5
348.080	1	8
348.251	1	7
348.422	1	8
348.593	1	3
348.764	1	5
348.935	1	1
349.106	1	11
349.277	1	-1
349.448	1	7
349.619	1	-3
349.790	1	9
349.961	1	2
350.132	1	15
350.303	1	8
350.474	1	13
350.645	1	2
350.816	1	4
350.987	1	3
351.157	1	8
351.328	1	14
351.499	1	7
351.670	1	5
351.841	1	11
352.012	1	4
352.183	1	2
352.354	1	-2
352.525	1	9
352.696	1	11
352.867	1	6
353.038	1	1
353.209	1	6
353.380	1	-5
353.551	1	-3
353.722	1	5
353.893	1	9
354.064	1	14
354.235	1	7
354.406	1	13
354.576	1	11
354.747	1	-5
354.918	1	12
355.089	1	3
355.260	1	10
355.431	1	-5
355.602	1	4
355.773	1	5
355.944	1	-1
356.115	1	14
356.286	1	-1
356.457	1	0
356.628	1	-3
356.799	1	3
356.970	1	14
357.141	1	-4
357.311	1	6
357.482	1	9
357.653	1	9
357.824	1	1
357.995	1	-6
358.166	1	-1
358.337	1	9
358.508	1	6
358.679	1	11
358.850	1	6
359.021	1	11
359.192	1	13
359.363	1	16
359.533	1	0
359.704	1	13
359.875	1	9
360.046	1	14
360.217	1	2
360.388	1	10
360.559	1	4
360.730	1	13
360.901	1	-6
361.072	1	14
361.243	1	6
361.414	1	-8
361.584	1	1
361.755	1	-1
361.926	1	13
362.097	1	4
362.268	1	5
362.439	1	1
362.610	1	14
362.781	1	-7
362.952	1	16
363.123	1	8
363.293	1	10
363.464	1	4
363.635	1	4
363.806	1	0
363.977	1	7
364.148	1	-4
364.319	1	5
364.490	1	6
364.661	1	4
364.832	1	10
365.002	1	16
365.173	1	3
365.344	1	14
365.515	1	-7
365.686	1	-5
365.857	1	4
366.028	1	4
366.199	1	1
366.370	1	14
366.540	1	-4
366.711	1	3
366.882	1	-4
367.053	1	2
367.224	1	3
367.395	1	0
367.566	1	3
367.737	1	-1
367.908	1	0
368.078	1	9
368.249	1	4
368.420	1	3
368.591	1	8
368.762	1	2
368.933	1	-3
369.104	1	18
369.274	1	-11
369.445	1	4
369.616	1	6
369.787	1	17
369.958	1	1
370.129	1	-7
370.300	1	3
370.471	1	7
370.641	1	11
370.812	1	4
370.983	1	-9
371.154	1	-8
371.325	1	0
371.496	1	6
371.667	1	8
371.837	1	9
372.008	1	-8
372.179	1	-5
372.350	1	-5
372.521	1	12
372.692	1	2
372.863	1	2
373.033	1	9
373.204	1	-3
373.375	1	7
373.546	1	22
373.717	1	0
373.888	1	6
374.059	1	7
374.229	1	-1
374.400	1	0
374.571	1	6
374.742	1	6
374.913	1	1
375.084	1	11
375.254	1	-3
375.425	1	-2
375.596	1	7
375.767	1	0
375.938	1	0
376.109	1	8
376.279	1	-2
376.450	1	8
376.621	1	2
376.792	1	8
376.963	1	2
377.134	1	3
377.304	1	6
377.475	1	2
377.646	1	-1
377.817	1	-5
377.988	1	1
378.159	1	13
378.329	1	9
378.500	1	5
378.671	1	7
378.842	1	-1
379.013	1	7
379.184	1	-4
379.354	1	-1
379.525	1	-2
379.696	1	5
379.867	1	3
380.038	1	11
380.209	1	4
380.379	1	1
380.550	1	7
380.721	1	2
380.892	1	5
381.063	1	10
381.233	1	4
381.404	1	8
381.575	1	9
381.746	1	9
381.917	1	12
382.087	1	14
382.258	1	17
382.429	1	4
382.600	1	7
382.771	1	4
382.941	1	7
383.112	1	-2
383.283	1	14
383.454	1	9
383.625	1	-11
383.795	1	6
383.966	1	8
384.137	1	10
384.308	1	-3
384.479	1	-1
384.649	1	8
384.820	1	20
384.991	1	-1
385.162	1	5
385.333	1	11
385.503	1	4
385.674	1	-7
385.845	1	13
386.016	1	2
386.187	1	5
386.357	1	3
386.528	1	-5
386.699	1	2
386.870	1	-3
387.041	1	14
387.211	1	1
387.382	1	-5
387.553	1	0
387.724	1	24
387.894	1	1
388.065	1	12
388.236	1	1
388.407	1	0
388.578	1	-1
388.748	1	3
388.919	1	9
389.090	1	9
389.261	1	16
389.431	1	1
389.602	1	10
389.773	1	15
389.944	1	16
390.114	1	10
390.285	1	-4
390.456	1	-2
390.627	1	6
390.798	1	6
390.968	1	13
391.139	1	8
391.310	1	3
391.481	1	5
391.651	1	10
391.822	1	11
391.993	1	9
392.164	1	9
392.334	1	-3
392.505	1	13
392.676	1	19
392.847	1	3
393.017	1	8
393.188	1	14
393.359	1	11
393.530	1	6
393.700	1	-4
393.871	1	3
394.042	1	8
394.213	1	7
394.383	1	1
394.554	1	18
394.725	1	1
394.896	1	11
395.066	1	6
395.237	1	9
395.408	1	15
395.579	1	1
395.749	1	2
395.920	1	0
396.091	1	15
396.262	1	-2
396.432	1	16
396.603	1	5
396.774	1	7
396.945	1	3
397.115	1	0
397.286	1	0
397.457	1	-6
397.627	1	4
397.798	1	6
397.969	1	15
398.140	1	6
398.310	1	0
398.481	1	0
398.652	1	-8
398.823	1	9
398.993	1	12
399.164	1	11
399.335	1	10
399.505	1	-5
399.676	1	8
399.847	1	7
400.018	1	10
400.188	1	1
400.359	1	4
400.530	1	4
400.700	1	3
400.871	1	8
401.042	1	16
401.213	1	8
401.383	1	14
401.554	1	8
401.725	1	15
401.895	1	0
402.066	1	4
402.237	1	7
402.408	1	8
402.578	1	3
402.749	1	0
402.920	1	14
403.090	1	0
403.261	1	14
403.432	1	7
403.603	1	6
403.773	1	11
403.944	1	11
404.115	1	2
404.285	1	16
404.456	1	8
404.627	1	11
404.797	1	1
404.968	1	10
405.139	1	6
405.310	1	15
405.480	1	10
405.651	1	-7
405.822	1	11
405.992	1	10
406.163	1	13
406.334	1	17
406.504	1	22
406.675	1	20
406.846	1	17
407.016	1	11
407.187	1	-1
407.358	1	19
407.528	1	3
407.699	1	2
407.870	1	17
408.041	1	16
408.211	1	4
408.382	1	8
408.553	1	14
408.723	1	19
408.894	1	0
409.065	1	-2
409.235	1	10
409.406	1	2
409.577	1	3
409.747	1	2
409.918	1	10
410.089	1	13
410.259	1	5
410.430	1	13
410.601	1	7
410.771	1	3
410.942	1	9
411.113	1	10
411.283	1	13
411.454	1	16
411.625	1	11
411.795	1	-9
411.966	1	19
412.137	1	8
412.307	1	11
412.478	1	15
412.649	1	14
412.819	1	8
412.990	1	10
413.161	1	9
413.331	1	5
413.502	1	13
413.672	1	5
413.843	1	9
414.014	1	12
414.184	1	7
414.355	1	8
414.526	1	9
414.696	1	9
414.867	1	8
415.038	1	6
415.208	1	12
415.379	1	13
415.550	1	7
415.720	1	-1
415.891	1	27
416.062	1	10
416.232	1	8
416.403	1	9
416.573	1	13
416.744	1	9
416.915	1	20
417.085	1	9
417.256	1	8
417.427	1	-6
417.597	1	10
417.768	1	10
417.939	1	14
418.109	1	7
418.280	1	-5
418.450	1	7
418.621	1	12
418.792	1	5
418.962	1	6
419.133	1	8
419.304	1	8
419.474	1	5
419.645	1	10
419.815	1	5
419.986	1	21
420.157	1	10
420.327	1	9
420.498	1	17
420.669	1	7
420.839	1	-1
421.010	1	14
421.180	1	10
421.351	1	12
421.522	1	11
421.692	1	16
421.863	1	13
422.033	1	8
422.204	1	8
422.375	1	5
422.545	1	7
422.716	1	11
422.886	1	7
423.057	1	12
423.228	1	11
423.398	1	9
423.569	1	-6
423.740	1	12
423.910	1	11
424.081	1	15
424.251	1	3
424.422	1	16
424.593	1	8
424.763	1	19
424.934	1	13
425.104	1	12
425.275	1	13
425.445	1	5
425.616	1	16
425.787	1	12
425.957	1	-4
426.128	1	14
426.298	1	20
426.469	1	9
426.640	1	9
426.810	1	13
426.981	1	15
427.151	1	2
427.322	1	15
427.493	1	13
427.663	1	19
427.834	1	18
428.004	1	-2
428.175	1	19
428.345	1	15
428.516	1	8
428.687	1	18
428.857	1	2
429.028	1	7
429.198	1	13
429.369	1	16
429.540	1	15
429.710	1	6
429.881	1	-1
430.051	1	8
430.222	1	16
430.392	1	4
430.563	1	18
430.734	1	11
430.904	1	17
431.075	1	16
431.245	1	4
431.416	1	14
431.586	1	6
431.757	1	5
431.927	1	16
432.098	1	-11
432.269	1	6
432.439	1	17
432.610	1	16
432.780	1	1
432.951	1	9
433.121	1	15
433.292	1	4
433.462	1	0
433.633	1	5
433.804	1	12
433.974	1	12
434.145	1	11
434.315	1	10
434.486	1	14
434.656	1	7
434.827	1	9
434.997	1	5
435.168	1	19
435.339	1	9
435.509	1	13
435.680	1	13
435.850	1	0
436.021	1	19
436.191	1	10
436.362	1	15
436.532	1	16
436.703	1	13
436.873	1	18
437.044	1	3
437.214	1	8
437.385	1	11
437.556	1	11
437.726	1	13
437.897	1	11
438.067	1	2
438.238	1	0
438.408	1	0
438.579	1	8
438.749	1	2
438.920	1	9
439.090	1	-1
439.261	1	16
439.431	1	14
439.602	1	10
439.772	1	5
439.943	1	9
440.113	1	16
440.284	1	5
440.455	1	15
440.625	1	25
440.796	1	14
440.966	1	-3
441.137	1	13
441.307	1	12
441.478	1	20
441.648	1	2
441.819	1	10
441.989	1	11
442.160	1	1
442.330	1	13
442.501	1	9
442.671	1	7
442.842	1	16
443.012	1	5
443.183	1	14
443.353	1	11
443.524	1	6
443.694	1	17
443.865	1	14
444.035	1	5
444.206	1	12
444.376	1	6
444.547	1	22
444.717	1	9
444.888	1	8
445.058	1	11
445.229	1	0
445.399	1	6
445.570	1	-1
445.740	1	5
445.911	1	10
446.081	1	15
446.252	1	3
446.422	1	5
446.593	1	7
446.763	1	3
446.934	1	5
447.104	1	14
447.275	1	20
447.445	1	17
447.616	1	9
447.786	1	10
447.957	1	11
448.127	1	8
448.298	1	13
448.468	1	4
448.639	1	12
448.809	1	5
448.979	1	-1
449.150	1	8
449.320	1	11
449.491	1	8
449.661	1	29
449.832	1	14
450.002	1	8
450.173	1	9
450.343	1	7
450.514	1	17
450.684	1	5
450.855	1	7
451.025	1	7
451.196	1	9
451.366	1	12
451.537	1	8
451.707	1	20
451.878	1	-2
452.048	1	4
452.218	1	8
452.389	1	7
452.559	1	-6
452.730	1	1
452.900	1	12
453.071	1	6
453.241	1	14
453.412	1	10
453.582	1	1
453.753	1	8
453.923	1	7
454.093	1	12
454.264	1	14
454.434	1	17
454.605	1	13
454.775	1	8
454.946	1	14
455.116	1	11
455.287	1	-7
455.457	1	6
455.628	1	10
455.798	1	7
455.968	1	7
456.139	1	2
456.309	1	4
456.480	1	14
456.650	1	17
456.821	1	16
456.991	1	20
457.161	1	14
457.332	1	11
457.502	1	2
457.673	1	7
457.843	1	8
458.014	1	8
458.184	1	9
458.355	1	4
458.525	1	10
458.695	1	4
458.866	1	6
459.036	1	10
459.207	1	3
459.377	1	18
459.548	1	5
459.718	1	13
459.888	1	14
460.059	1	9
460.229	1	10
460.400	1	9
460.570	1	8
460.740	1	7
460.911	1	4
461.081	1	1
461.252	1	12
461.422	1	2
461.593	1	-6
461.763	1	9
461.933	1	0
462.104	1	5
462.274	1	13
462.445	1	-3
462.615	1	3
462.785	1	-1
462.956	1	7
463.126	1	11
463.297	1	10
463.467	1	22
463.638	1	4
463.808	1	-3
463.978	1	1
464.149	1	14
464.319	1	-4
464.490	1	6
464.660	1	2
464.830	1	5
465.001	1	13
465.171	1	6
465.342	1	4
465.512	1	11
465.682	1	3
465.853	1	7
466.023	1	8
466.194	1	5
466.364	1	5
466.534	1	3
466.705	1	2
466.875	1	12
467.045	1	3
467.216	1	9
467.386	1	8
467.557	1	-1
467.727	1	2
467.897	1	-1
468.068	1	16
468.238	1	6
468.409	1	1
468.579	1	16
468.749	1	5
468.920	1	3
469.090	1	7
469.260	1	-3
469.431	1	8
469.601	1	4
469.772	1	3
469.942	1	15
470.112	1	16
470.283	1	11
470.453	1	8
470.623	1	16
470.794	1	7
470.964	1	-2
471.135	1	11
471.305	1	5
471.475	1	1
471.646	1	-4
471.816	1	3
471.986	1	7
472.157	1	13
472.327	1	-3
472.497	1	-4
472.668	1	3
472.838	1	8
473.009	1	17
473.179	1	3
473.349	1	2
473.520	1	5
473.690	1	5
473.860	1	5
474.031	1	1
474.201	1	8
474.371	1	7
474.542	1	6
474.712	1	-3
474.882	1	13
475.053	1	8
475.223	1	12
475.394	1	7
475.564	1	-1
475.734	1	1
475.905	1	2
476.075	1	-1
476.245	1	10
476.416	1	-3
476.586	1	4
476.756	1	5
476.927	1	11
477.097	1	7
477.267	1	5
477.438	1	-11
477.608	1	-2
477.778	1	11
477.949	1	6
478.119	1	-2
478.289	1	19
478.460	1	11
478.630	1	0
478.800	1	3
478.971	1	8
479.141	1	7
479.311	1	-7
479.482	1	-6
479.652	1	2
479.822	1	2
479.993	1	11
480.163	1	18
480.333	1	13
480.504	1	1
480.674	1	5
480.844	1	0
481.015	1	-6
481.185	1	11
481.355	1	2
481.525	1	7
481.696	1	14
481.866	1	1
482.036	1	4
482.207	1	0
482.377	1	4
482.547	1	9
482.718	1	-1
482.888	1	-1
483.058	1	13
483.229	1	1
483.399	1	8
483.569	1	13
483.740	1	0
483.910	1	-5
484.080	1	12
484.250	1	-2
484.421	1	12
484.591	1	12
484.761	1	7
484.932	1	7
485.102	1	5
485.272	1	2
485.443	1	2
485.613	1	4
485.783	1	7
485.953	1	-6
486.124	1	4
486.294	1	3
486.464	1	3
486.635	1	-2
486.805	1	10
486.975	1	2
487.146	1	-3
487.316	1	3
487.486	1	8
487.656	1	3
487.827	1	10
487.997	1	3
488.167	1	6
488.338	1	-5
488.508	1	1
488.678	1	-1
488.848	1	11
489.019	1	7
489.189	1	1
489.359	1	13
489.529	1	-5
489.700	1	0
489.870	1	-5
490.040	1	-3
490.211	1	4
490.381	1	4
490.551	1	-9
490.721	1	2
490.892	1	18
491.062	1	3
491.232	1	3
491.402	1	3
491.573	1	6
491.743	1	5
491.913	1	9
492.084	1	-2
492.254	1	14
492.424	1	-2
492.594	1	21
492.765	1	2
492.935	1	12
493.105	1	4
493.275	1	3
493.446	1	4
493.616	1	12
493.786	1	3
493.956	1	-3
494.127	1	-6
494.297	1	-3
494.467	1	3
494.637	1	2
494.808	1	-4
494.978	1	2
495.148	1	7
495.318	1	-1
495.489	1	5
495.659	1	10
495.829	1	10
495.999	1	13
496.170	1	-5
496.340	1	14
496.510	1	-4
496.680	1	5
496.851	1	-3
497.021	1	1
497.191	1	-5
497.361	1	-4
497.532	1	-3
497.702	1	3
497.872	1	0
498.042	1	3
498.213	1	4
498.383	1	13
498.553	1	-4
498.723	1	6
498.894	1	4
499.064	1	10
499.234	1	-6
499.404	1	3
499.574	1	7
499.745	1	7
499.915	1	1
500.085	1	-3
500.255	1	2
500.426	1	-9
500.596	1	20
500.766	1	-11
500.936	1	3
501.106	1	2
501.277	1	6
501.447	1	2
501.617	1	-3
501.787	1	9
501.958	1	1
502.128	1	14
502.298	1	17
502.468	1	-5
502.638	1	9
502.809	1	6
502.979	1	-3
503.149	1	0
503.319	1	0
503.489	1	-6
503.660	1	-1
503.830	1	5
504.000	1	0
504.170	1	1
504.340	1	11
504.511	1	9
504.681	1	7
504.851	1	8
505.021	1	5
505.192	1	1
505.362	1	-2
505.532	1	-5
505.702	1	-5
505.872	1	9
506.043	1	0
506.213	1	5
506.383	1	4
506.553	1	5
506.723	1	-1
506.893	1	8
507.064	1	-4
507.234	1	-5
507.404	1	2
507.574	1	-3
507.744	1	1
507.915	1	0
508.085	1	6
508.255	1	10
508.425	1	-1
508.595	1	1
508.766	1	-6
508.936	1	10
509.106	1	-2
509.276	1	-2
509.446	1	12
509.616	1	-3
509.787	1	0
509.957	1	-4
510.127	1	3
510.297	1	12
510.467	1	-7
510.638	1	7
510.808	1	-16
510.978	1	5
511.148	1	15
511.318	1	3
511.488	1	6
511.659	1	8
511.829	1	3
511.999	1	0
512.169	1	-4
512.339	1	-1
512.509	1	-5
512.680	1	-4
512.850	1	-5
513.020	1	13
513.190	1	6
513.360	1	-8
513.530	1	-2
513.700	1	-3
513.871	1	-3
514.041	1	-3
514.211	1	-2
514.381	1	4
514.551	1	-4
514.721	1	3
514.892	1	8
515.062	1	14
515.232	1	11
515.402	1	-5
515.572	1	-2
515.742	1	6
515.912	1	-6
516.083	1	2
516.253	1	3
516.423	1	-6
516.593	1	6
516.763	1	7
516.933	1	4
517.104	1	-2
517.274	1	6
517.444	1	-3
517.614	1	-7
517.784	1	-1
517.954	1	2
518.124	1	-2
518.294	1	1
518.465	1	8
518.635	1	11
518.805	1	2
518.975	1	-2
519.145	1	0
519.315	1	4
519.485	1	5
519.656	1	6
519.826	1	-10
519.996	1	9
520.166	1	-3
520.336	1	-7
520.506	1	-2
520.676	1	13
520.846	1	-6
521.017	1	7
521.187	1	0
521.357	1	5
521.527	1	-3
521.697	1	-3
521.867	1	-2
522.037	1	9
522.207	1	-3
522.377	1	2
522.548	1	2
522.718	1	7
522.888	1	17
523.058	1	-9
523.228	1	-5
523.398	1	7
523.568	1	1
523.738	1	-1
523.909	1	2
524.079	1	8
524.249	1	-4
524.419	1	10
524.589	1	8
524.759	1	7
524.929	1	6
525.099	1	-9
525.269	1	-9
525.439	1	11
525.610	1	-6
525.780	1	8
525.950	1	9
526.120	1	1
526.290	1	5
526.460	1	7
526.630	1	-3
526.800	1	-1
526.970	1	0
527.140	1	2
527.311	1	0
527.481	1	-4
527.651	1	-1
527.821	1	4
527.991	1	-4
528.161	1	0
528.331	1	-4
528.501	1	-14
528.671	1	12
528.841	1	12
529.011	1	-6
529.181	1	2
529.352	1	11
529.522	1	4
529.692	1	-9
529.862	1	0
530.032	1	7
530.202	1	8
530.372	1	0
530.542	1	-9
530.712	1	10
530.882	1	-1
531.052	1	0
531.222	1	1
531.392	1	-2
531.563	1	6
531.733	1	-5
531.903	1	12
532.073	1	-2
532.243	1	5
532.413	1	-6
532.583	1	-1
532.753	1	2
532.923	1	4
533.093	1	-5
533.263	1	2
533.433	1	5
533.603	1	2
533.773	1	-6
533.943	1	4
534.113	1	11
534.284	1	-3
534.454	1	0
534.624	1	7
534.794	1	9
534.964	1	-2
535.134	1	8
535.304	1	1
535.474	1	-1
535.644	1	6
535.814	1	6
535.984	1	2
536.154	1	-4
536.324	1	1
536.494	1	-1
536.664	1	-4
536.834	1	1
537.004	1	12
537.174	1	3
537.344	1	8
537.514	1	-4
537.685	1	1
537.855	1	-2
538.025	1	-3
538.195	1	3
538.365	1	18
538.535	1	-6
538.705	1	-5
538.875	1	-4
539.045	1	5
539.215	1	2
539.385	1	2
539.555	1	-6
539.725	1	0
539.895	1	0
540.065	1	-6
540.235	1	3
540.405	1	-5
540.575	1	0
540.745	1	-1
540.915	1	-6
541.085	1	-1
541.255	1	7
541.425	1	-7
541.595	1	-2
541.765	1	12
541.935	1	3
542.105	1	-4
542.275	1	9
542.445	1	2
542.615	1	-1
542.785	1	-3
542.955	1	-8
543.125	1	1
543.295	1	3
543.465	1	4
543.635	1	-9
543.805	1	0
543.975	1	-3
544.145	1	11
544.315	1	7
544.485	1	1
544.655	1	-3
544.825	1	-2
544.995	1	12
545.165	1	6
545.335	1	-6
545.505	1	1
545.675	1	-4
545.845	1	7
546.015	1	0
546.185	1	-7
546.355	1	-6
546.525	1	1
546.695	1	-1
546.865	1	13
547.035	1	-1
547.205	1	11
547.375	1	0
547.545	1	-5
547.715	1	2
547.885	1	-14
548.055	1	-2
548.225	1	2
548.395	1	-10
548.565	1	11
548.735	1	4
548.905	1	-4
549.075	1	5
549.245	1	5
549.415	1	-4
549.585	1	-3
549.755	1	4
549.925	1	0
550.095	1	6
550.265	1	8
550.435	1	0
550.605	1	-1
550.775	1	1
550.945	1	-4
551.115	1	3
551.285	1	1
551.455	1	4
551.625	1	-9
551.795	1	2
551.965	1	4
552.135	1	-5
552.305	1	3
552.475	1	5
552.645	1	-6
552.815	1	2
552.985	1	10
553.155	1	1
553.325	1	-5
553.495	1	8
553.665	1	-7
553.835	1	11
554.004	1	14
554.174	1	-1
554.344	1	-6
554.514	1	2
554.684	1	-7
554.854	1	-13
555.024	1	-2
555.194	1	-1
555.364	1	6
555.534	1	-10
555.704	1	2
555.874	1	7
556.044	1	8
556.214	1	4
556.384	1	4
556.554	1	-9
556.724	1	-3
556.894	1	-3
557.064	1	-12
557.234	1	2
557.404	1	9
557.573	1	-10
557.743	1	4
557.913	1	-1
558.083	1	-10
558.253	1	-11
558.423	1	-15
558.593	1	-5
558.763	1	2
558.933	1	-4
559.103	1	17
559.273	1	-2
559.443	1	9
559.613	1	-9
559.783	1	-3
559.953	1	-2
560.122	1	-6
560.292	1	8
560.462	1	-1
560.632	1	-1
560.802	1	0
560.972	1	-5
561.142	1	-6
561.312	1	1
561.482	1	2
561.652	1	-9
561.822	1	-4
561.992	1	-8
562.162	1	1
562.331	1	1
562.501	1	7
562.671	1	6
562.841	1	-11
563.011	1	-5
563.181	1	4
563.351	1	2
563.521	1	-1
563.691	1	-7
563.861	1	-2
564.031	1	0
564.201	1	-1
564.370	1	-6
564.540	1	-3
564.710	1	-3
564.880	1	0
565.050	1	5
565.220	1	-1
565.390	1	0
565.560	1	9
565.730	1	2
565.900	1	6
566.069	1	10
566.239	1	0
566.409	1	-6
566.579	1	0
566.749	1	-9
566.919	1	-6
567.089	1	1
567.259	1	-6
567.429	1	-2
567.599	1	7
567.768	1	-2
567.938	1	-16
568.108	1	-3
568.278	1	3
568.448	1	-5
568.618	1	-3
568.788	1	8
568.958	1	4
569.128	1	5
569.297	1	-6
569.467	1	-6
569.637	1	0
569.807	1	-2
569.977	1	-4
570.147	1	1
570.317	1	-2
570.487	1	3
570.656	1	-9
570.826	1	12
570.996	1	0
571.166	1	11
571.336	1	-7
571.506	1	3
571.676	1	7
571.846	1	7
572.015	1	-3
572.185	1	3
572.355	1	-5
572.525	1	-16
572.695	1	5
572.865	1	-10
573.035	1	10
573.205	1	11
573.374	1	2
573.544	1	0
573.714	1	-4
573.884	1	-3
574.054	1	2
574.224	1	4
574.394	1	2
574.563	1	6
574.733	1	-7
574.903	1	13
575.073	1	-2
575.243	1	-5
575.413	1	-9
575.583	1	12
575.752	1	9
575.922	1	-11
576.092	1	-6
576.262	1	-8
576.432	1	-4
576.602	1	-3
576.772	1	2
576.941	1	-3
577.111	1	-4
577.281	1	-2
577.451	1	3
577.621	1	9
577.791	1	3
577.960	1	-4
578.130	1	-6
578.300	1	-15
578.470	1	-10
578.640	1	-1
578.810	1	-9
578.979	1	-4
579.149	1	-6
579.319	1	5
579.489	1	-1
579.659	1	0
579.829	1	0
579.998	1	-8
580.168	1	-4
580.338	1	1
580.508	1	9
580.678	1	7
580.848	1	-2
581.017	1	5
581.187	1	9
581.357	1	-5
581.527	1	-5
581.697	1	-2
581.867	1	6
582.036	1	-5
582.206	1	3
582.376	1	-1
582.546	1	-5
582.716	1	-6
582.885	1	-13
583.055	1	0
583.225	1	3
583.395	1	0
583.565	1	2
583.735	1	5
583.904	1	-6
584.074	1	-3
584.244	1	-10
584.414	1	4
584.584	1	0
584.753	1	2
584.923	1	7
585.093	1	0
585.263	1	5
585.433	1	-8
585.602	1	1
585.772	1	-4
585.942	1	7
586.112	1	-12
586.282	1	8
586.451	1	10
586.621	1	0
586.791	1	0
586.961	1	-4
587.131	1	-12
587.300	1	-8
587.470	1	-3
587.640	1	0
587.810	1	0
587.980	1	-2
588.149	1	-8
588.319	1	5
588.489	1	6
588.659	1	-7
588.829	1	-4
588.998	1	7
589.168	1	10
589.338	1	-1
589.508	1	3
589.677	1	7
589.847	1	6
590.017	1	-2
590.187	1	6
590.357	1	11
590.526	1	-4
590.696	1	-6
590.866	1	-8
591.036	1	-1
591.205	1	2
591.375	1	-3
591.545	1	4
591.715	1	0
591.885	1	0
592.054	1	2
592.224	1	5
592.394	1	-12
592.564	1	-2
592.733	1	-12
592.903	1	3
593.073	1	4
593.243	1	9
593.412	1	-4
593.582	1	7
593.752	1	-2
593.922	1	-6
594.091	1	-3
594.261	1	-11
594.431	1	14
594.601	1	-2
594.771	1	15
594.940	1	14
595.110	1	0
595.280	1	-8
595.450	1	1
595.619	1	6
595.789	1	-3
595.959	1	12
596.129	1	-6
596.298	1	8
596.468	1	0
596.638	1	3
596.808	1	2
596.977	1	0
597.147	1	-5
597.317	1	-9
597.487	1	2
597.656	1	-1
597.826	1	0
597.996	1	9
598.166	1	0
598.335	1	5
598.505	1	5
598.675	1	1
598.844	1	-6
599.014	1	8
599.184	1	1
599.354	1	11
599.523	1	0
599.693	1	4
599.863	1	-8
600.033	1	4
600.202	1	9
600.372	1	0
600.542	1	4
600.712	1	-2
600.881	1	-7
601.051	1	-3
601.221	1	-1
601.390	1	-13
601.560	1	13
601.730	1	-2
601.900	1	3
602.069	1	-1
602.239	1	-1
602.409	1	2
602.578	1	-3
602.748	1	-2
602.918	1	7
603.088	1	6
603.257	1	4
603.427	1	-14
603.597	1	8
603.767	1	3
603.936	1	-2
604.106	1	1
604.276	1	3
604.445	1	11
604.615	1	-4
604.785	1	6
604.954	1	15
605.124	1	-8
605.294	1	4
605.464	1	-5
605.633	1	4
605.803	1	4
605.973	1	-1
606.142	1	8
606.312	1	-2
606.482	1	3
606.652	1	-6
606.821	1	0
606.991	1	-6
607.161	1	-1
607.330	1	-12
607.500	1	6
607.670	1	3
607.839	1	17
608.009	1	-1
608.179	1	1
608.348	1	2
608.518	1	0
608.688	1	0
608.858	1	10
609.027	1	-4
609.197	1	-3
609.367	1	13
609.536	1	-9
609.706	1	7
609.876	1	11
610.045	1	-4
610.215	1	10
610.385	1	-15
610.554	1	5
610.724	1	-10
610.894	1	13
611.063	1	3
611.233	1	16
611.403	1	-6
611.572	1	5
611.742	1	4
611.912	1	2
612.081	1	-19
612.251	1	12
612.421	1	3
612.590	1	-4
612.760	1	7
612.930	1	-3
613.099	1	-1
613.269	1	-6
613.439	1	-12
613.608	1	15
613.778	1	5
613.948	1	-1
614.117	1	7
614.287	1	1
614.457	1	0
614.626	1	6
614.796	1	1
614.966	1	2
615.135	1	13
615.305	1	4
615.475	1	0
615.644	1	-1
615.814	1	-6
615.984	1	2
616.153	1	12
616.323	1	8
616.493	1	16
616.662	1	-3
616.832	1	11
617.002	1	1
617.171	1	-13
617.341	1	0
617.511	1	-2
617.680	1	12
617.850	1	0
618.019	1	4
618.189	1	0
618.359	1	-4
618.528	1	-1
618.698	1	7
618.868	1	-7
619.037	1	-3
619.207	1	8
619.377	1	-5
619.546	1	-3
619.716	1	4
619.885	1	1
620.055	1	10
620.225	1	12
620.394	1	7
620.564	1	9
620.734	1	4
620.903	1	8
621.073	1	-7
621.242	1	10
621.412	1	3
621.582	1	10
621.751	1	7
621.921	1	8
622.091	1	7
622.260	1	-1
622.430	1	10
622.599	1	-6
622.769	1	0
622.939	1	2
623.108	1	3
623.278	1	13
623.448	1	10
623.617	1	1
623.787	1	2
623.956	1	1
624.126	1	13
624.296	1	8
624.465	1	5
624.635	1	5
624.804	1	-3
624.974	1	5
625.144	1	-3
625.313	1	-2
625.483	1	21
625.652	1	5
625.822	1	-8
625.992	1	-2
626.161	1	5
626.331	1	3
626.501	1	14
626.670	1	9
626.840	1	2
627.009	1	11
627.179	1	6
627.348	1	9
627.518	1	5
627.688	1	3
627.857	1	1
628.027	1	-3
628.196	1	-7
628.366	1	-3
628.536	1	7
628.705	1	1
628.875	1	16
629.044	1	-1
629.214	1	5
629.384	1	6
629.553	1	3
629.723	1	-5
629.892	1	14
630.062	1	5
630.232	1	-1
630.401	1	9
630.571	1	-5
630.740	1	3
630.910	1	8
631.079	1	-2
631.249	1	7
631.419	1	-1
631.588	1	2
631.758	1	8
631.927	1	2
632.097	1	2
632.266	1	4
632.436	1	8
632.606	1	-1
632.775	1	9
632.945	1	5
633.114	1	7
633.284	1	1
633.453	1	3
633.623	1	15
633.793	1	-9
633.962	1	-1
634.132	1	5
634.301	1	1
634.471	1	1
634.640	1	6
634.810	1	5
634.979	1	-8
635.149	1	-1
635.319	1	9
635.488	1	10
635.658	1	5
635.827	1	-1
635.997	1	10
636.166	1	-3
636.336	1	6
636.505	1	10
636.675	1	12
636.845	1	-9
637.014	1	-1
637.184	1	6
637.353	1	-4
637.523	1	8
637.692	1	8
637.862	1	-1
638.031	1	13
638.201	1	8
638.370	1	9
638.540	1	-1
638.710	1	5
638.879	1	-3
639.049	1	14
639.218	1	9
639.388	1	0
639.557	1	5
639.727	1	-2
639.896	1	7
640.066	1	16
640.235	1	2
640.405	1	-1
640.574	1	2
640.744	1	8
640.914	1	1
641.083	1	11
641.253	1	14
641.422	1	10
641.592	1	0
641.761	1	9
641.931	1	1
642.100	1	0
642.270	1	-8
642.439	1	-1
642.609	1	7
642.778	1	-2
642.948	1	7
643.117	1	22
643.287	1	2
643.456	1	6
643.626	1	16
643.795	1	-6
643.965	1	0
644.134	1	2
644.304	1	-1
644.473	1	8
644.643	1	2
644.812	1	17
644.982	1	12
645.151	1	15
645.321	1	4
645.490	1	1
645.660	1	-3
645.829	1	4
645.999	1	10
646.168	1	-5
646.338	1	3
646.507	1	3
646.677	1	6
646.846	1	-1
647.016	1	8
647.185	1	-3
647.355	1	3
647.524	1	7
647.694	1	5
647.863	1	-3
648.033	1	0
648.202	1	3
648.372	1	9
648.541	1	0
648.711	1	9
648.880	1	10
649.050	1	-2
649.219	1	-7
649.389	1	1
649.558	1	-3
649.728	1	-3
649.897	1	11
650.067	1	6
650.236	1	13
650.406	1	-6
650.575	1	5
650.745	1	1
650.914	1	6
651.084	1	-6
651.253	1	7
651.423	1	6
651.592	1	5
651.762	1	11
651.931	1	9
652.101	1	13
652.270	1	7
652.440	1	-5
652.609	1	3
652.778	1	-8
652.948	1	12
653.117	1	-4
653.287	1	15
653.456	1	1
653.626	1	-2
653.795	1	9
653.965	1	4
654.134	1	9
654.304	1	0
654.473	1	-5
654.643	1	6
654.812	1	1
654.982	1	2
655.151	1	2
655.320	1	5
655.490	1	2
655.659	1	5
655.829	1	0
655.998	1	0
656.168	1	0
656.337	1	7
656.507	1	-6
656.676	1	8
656.846	1	3
657.015	1	-7
657.184	1	6
657.354	1	-4
657.523	1	0
657.693	1	-4
657.862	1	5
658.032	1	1
658.201	1	-7
658.371	1	-7
658.540	1	2
658.709	1	-1
658.879	1	-10
659.048	1	2
659.218	1	3
659.387	1	-4
659.557	1	4
659.726	1	3
659.895	1	4
660.065	1	-2
660.234	1	3
660.404	1	0
660.573	1	4
660.743	1	12
660.912	1	6
661.081	1	11
661.251	1	8
661.420	1	2
661.590	1	-5
661.759	1	5
661.929	1	5
662.098	1	4
662.267	1	2
662.437	1	0
662.606	1	15
662.776	1	-3
662.945	1	-2
663.115	1	7
663.284	1	13
663.453	1	-7
663.623	1	7
663.792	1	9
663.962	1	11
664.131	1	-3
664.300	1	-2
664.470	1	6
664.639	1	11
664.809	1	-1
664.978	1	1
665.148	1	3
665.317	1	-1
665.486	1	3
665.656	1	-1
665.825	1	4
665.995	1	-2
666.164	1	0
666.333	1	12
666.503	1	7
666.672	1	7
666.842	1	-4
667.011	1	8
667.180	1	-2
667.350	1	5
667.519	1	13
667.689	1	-4
667.858	1	6
668.027	1	16
668.197	1	18
668.366	1	3
668.536	1	6
668.705	1	-1
668.874	1	10
669.044	1	5
669.213	1	3
669.382	1	5
669.552	1	10
669.721	1	11
669.891	1	6
670.060	1	9
670.229	1	7
670.399	1	9
670.568	1	-8
670.738	1	-2
670.907	1	2
671.076	1	10
671.246	1	13
671.415	1	4
671.584	1	3
671.754	1	4
671.923	1	6
672.093	1	11
672.262	1	5
672.431	1	-8
672.601	1	3
672.770	1	3
672.939	1	2
673.109	1	0
673.278	1	4
673.448	1	-5
673.617	1	-6
673.786	1	6
