325.333	1	13
325.504	1	15
325.675	1	4
325.846	1	13
326.017	1	14
326.188	1	16
326.359	1	14
326.531	1	2
326.702	1	6
326.873	1	18
327.044	1	16
327.215	1	12
327.386	1	12
327.557	1	8
327.728	1	14
327.899	1	11
328.070	1	15
328.241	1	20
328.412	1	17
328.583	1	14
328.754	1	10
328.926	1	12
329.097	1	2
329.268	1	11
329.439	1	12
329.610	1	14
329.781	1	8
329.952	1	25
330.123	1	20
330.294	1	-1
330.465	1	10
330.636	1	18
330.807	1	4
330.978	1	14
331.149	1	13
331.320	1	21
331.492	1	14
331.663	1	6
331.834	1	6
332.005	1	22
332.176	1	8
332.347	1	23
332.518	1	16
332.689	1	9
332.860	1	15
333.031	1	9
333.202	1	6
333.373	1	16
333.544	1	7
333.715	1	19
333.886	1	13
334.057	1	25
334.228	1	13
334.399	1	19
334.570	1	6
334.741	1	17
334.912	1	19
335.084	1	6
335.255	1	21
335.426	1	13
335.597	1	18
335.768	1	23
335.939	1	18
336.110	1	9
336.281	1	5
336.452	1	23
336.623	1	11
336.794	1	12
336.965	1	6
337.136	1	9
337.307	1	14
337.478	1	7
337.649	1	10
337.820	1	11
337.991	1	18
338.162	1	12
338.333	1	9
338.504	1	7
338.675	1	15
338.846	1	22
339.017	1	19
339.188	1	15
339.359	1	18
339.530	1	16
339.701	1	16
339.872	1	14
340.043	1	3
340.214	1	16
340.385	1	14
340.556	1	20
340.727	1	22
340.898	1	12
341.069	1	24
341.240	1	21
341.411	1	23
341.582	1	22
341.753	1	11
341.924	1	26
342.095	1	17
342.266	1	15
342.437	1	27
342.608	1	19
342.779	1	16
342.950	1	14
343.121	1	12
343.292	1	19
343.463	1	24
343.634	1	12
343.805	1	7
343.976	1	12
344.147	1	13
344.318	1	7
344.489	1	21
344.660	1	21
344.831	1	26
345.002	1	23
345.173	1	10
345.344	1	21
345.515	1	7
345.686	1	26
345.857	1	10
346.028	1	15
346.199	1	6
346.370	1	17
346.541	1	9
346.712	1	15
346.883	1	22
347.054	1	24
347.225	1	12
347.396	1	10
347.567	1	22
347.738	1	9
347.909	1	15
348.080	1	18
348.251	1	28
348.422	1	17
348.593	1	12
348.764	1	16
348.935	1	15
349.106	1	13
349.277	1	20
349.448	1	8
349.619	1	11
349.790	1	24
349.961	1	19
350.132	1	24
350.303	1	18
350.474	1	11
350.645	1	19
350.816	1	17
350.987	1	12
351.157	1	25
351.328	1	19
351.499	1	19
351.670	1	19
351.841	1	16
352.012	1	19
352.183	1	13
352.354	1	10
352.525	1	15
352.696	1	24
352.867	1	3
353.038	1	15
353.209	1	17
353.380	1	15
353.551	1	8
353.722	1	26
353.893	1	26
354.064	1	10
354.235	1	20
354.406	1	23
354.576	1	22
354.747	1	14
354.918	1	20
355.089	1	9
355.260	1	20
355.431	1	17
355.602	1	27
355.773	1	15
355.944	1	5
356.115	1	22
356.286	1	16
356.457	1	8
356.628	1	14
356.799	1	16
356.970	1	20
357.141	1	15
357.311	1	25
357.482	1	23
357.653	1	15
357.824	1	20
357.995	1	13
358.166	1	18
358.337	1	19
358.508	1	20
358.679	1	21
358.850	1	12
359.021	1	17
359.192	1	28
359.363	1	23
359.533	1	8
359.704	1	27
359.875	1	29
360.046	1	24
360.217	1	14
360.388	1	20
360.559	1	13
360.730	1	18
360.901	1	11
361.072	1	17
361.243	1	15
361.414	1	16
361.584	1	9
361.755	1	21
361.926	1	27
362.097	1	25
362.268	1	1
362.439	1	13
362.610	1	19
362.781	1	15
362.952	1	21
363.123	1	23
363.293	1	17
363.464	1	22
363.635	1	20
363.806	1	7
363.977	1	14
364.148	1	10
364.319	1	15
364.490	1	22
364.661	1	11
364.832	1	24
365.002	1	31
365.173	1	12
365.344	1	17
365.515	1	6
365.686	1	14
365.857	1	16
366.028	1	16
366.199	1	16
366.370	1	26
366.540	1	23
366.711	1	13
366.882	1	16
367.053	1	14
367.224	1	11
367.395	1	19
367.566	1	15
367.737	1	15
367.908	1	19
368.078	1	23
368.249	1	21
368.420	1	15
368.591	1	20
368.762	1	8
368.933	1	11
369.104	1	27
369.274	1	17
369.445	1	22
369.616	1	14
369.787	1	21
369.958	1	14
370.129	1	13
370.300	1	11
370.471	1	8
370.641	1	17
370.812	1	10
370.983	1	15
371.154	1	9
371.325	1	29
371.496	1	19
371.667	1	21
371.837	1	24
372.008	1	0
372.179	1	16
372.350	1	7
372.521	1	25
372.692	1	17
372.863	1	22
373.033	1	23
373.204	1	8
373.375	1	15
373.546	1	27
373.717	1	18
373.888	1	21
374.059	1	23
374.229	1	9
374.400	1	13
374.571	1	15
374.742	1	19
374.913	1	27
375.084	1	25
375.254	1	15
375.425	1	7
375.596	1	23
375.767	1	12
375.938	1	18
376.109	1	30
376.279	1	19
376.450	1	18
376.621	1	22
376.792	1	13
376.963	1	15
377.134	1	15
377.304	1	23
377.475	1	17
377.646	1	12
377.817	1	6
377.988	1	23
378.159	1	25
378.329	1	16
378.500	1	20
378.671	1	22
378.842	1	18
379.013	1	24
379.184	1	14
379.354	1	20
379.525	1	21
379.696	1	23
379.867	1	14
380.038	1	24
380.209	1	18
380.379	1	15
380.550	1	22
380.721	1	16
380.892	1	12
381.063	1	15
381.233	1	19
381.404	1	28
381.575	1	26
381.746	1	24
381.917	1	18
382.087	1	29
382.258	1	28
382.429	1	16
382.600	1	23
382.771	1	31
382.941	1	25
383.112	1	15
383.283	1	26
383.454	1	11
383.625	1	12
383.795	1	27
383.966	1	22
384.137	1	21
384.308	1	22
384.479	1	20
384.649	1	19
384.820	1	25
384.991	1	30
385.162	1	17
385.333	1	24
385.503	1	29
385.674	1	7
385.845	1	28
386.016	1	37
386.187	1	29
386.357	1	26
386.528	1	25
386.699	1	27
386.870	1	16
387.041	1	39
387.211	1	16
387.382	1	22
387.553	1	37
387.724	1	29
387.894	1	41
388.065	1	24
388.236	1	38
388.407	1	34
388.578	1	30
388.748	1	27
388.919	1	30
389.090	1	27
389.261	1	32
389.431	1	25
389.602	1	37
389.773	1	41
389.944	1	24
390.114	1	41
390.285	1	25
390.456	1	23
390.627	1	22
390.798	1	35
390.968	1	45
391.139	1	12
391.310	1	34
391.481	1	31
391.651	1	28
391.822	1	38
391.993	1	31
392.164	1	30
392.334	1	20
392.505	1	38
392.676	1	36
392.847	1	46
393.017	1	34
393.188	1	42
393.359	1	30
393.530	1	40
393.700	1	15
393.871	1	24
394.042	1	36
394.213	1	21
394.383	1	36
394.554	1	49
394.725	1	16
394.896	1	27
395.066	1	27
395.237	1	19
395.408	1	40
395.579	1	17
395.749	1	27
395.920	1	31
396.091	1	37
396.262	1	28
396.432	1	35
396.603	1	21
396.774	1	39
396.945	1	37
397.115	1	19
397.286	1	25
397.457	1	28
397.627	1	19
397.798	1	32
397.969	1	40
398.140	1	30
398.310	1	22
398.481	1	23
398.652	1	28
398.823	1	29
398.993	1	37
399.164	1	36
399.335	1	36
399.505	1	28
399.676	1	22
399.847	1	27
400.018	1	46
400.188	1	26
400.359	1	24
400.530	1	39
400.700	1	38
400.871	1	27
401.042	1	36
401.213	1	34
401.383	1	39
401.554	1	34
401.725	1	38
401.895	1	37
402.066	1	36
402.237	1	41
402.408	1	37
402.578	1	29
402.749	1	36
402.920	1	41
403.090	1	33
403.261	1	41
403.432	1	29
403.603	1	27
403.773	1	40
403.944	1	32
404.115	1	37
404.285	1	39
404.456	1	36
404.627	1	21
404.797	1	38
404.968	1	30
405.139	1	42
405.310	1	47
405.480	1	49
405.651	1	27
405.822	1	36
405.992	1	28
406.163	1	46
406.334	1	36
406.504	1	39
406.675	1	58
406.846	1	43
407.016	1	47
407.187	1	36
407.358	1	52
407.528	1	32
407.699	1	27
407.870	1	34
408.041	1	39
408.211	1	37
408.382	1	35
408.553	1	38
408.723	1	36
408.894	1	31
409.065	1	34
409.235	1	39
409.406	1	33
409.577	1	26
409.747	1	33
409.918	1	36
410.089	1	47
410.259	1	35
410.430	1	35
410.601	1	35
410.771	1	37
410.942	1	37
411.113	1	37
411.283	1	38
411.454	1	41
411.625	1	49
411.795	1	38
411.966	1	58
412.137	1	46
412.307	1	36
412.478	1	35
412.649	1	40
412.819	1	39
412.990	1	44
413.161	1	46
413.331	1	34
413.502	1	36
413.672	1	46
413.843	1	34
414.014	1	45
414.184	1	41
414.355	1	52
414.526	1	43
414.696	1	44
414.867	1	35
415.038	1	40
415.208	1	44
415.379	1	44
415.550	1	45
415.720	1	32
415.891	1	47
416.062	1	42
416.232	1	39
416.403	1	49
416.573	1	46
416.744	1	43
416.915	1	48
417.085	1	44
417.256	1	37
417.427	1	35
417.597	1	41
417.768	1	44
417.939	1	45
418.109	1	45
418.280	1	30
418.450	1	49
418.621	1	54
418.792	1	39
418.962	1	28
419.133	1	32
419.304	1	30
419.474	1	40
419.645	1	42
419.815	1	49
419.986	1	38
420.157	1	42
420.327	1	36
420.498	1	38
420.669	1	42
420.839	1	42
421.010	1	36
421.180	1	39
421.351	1	44
421.522	1	46
421.692	1	48
421.863	1	50
422.033	1	38
422.204	1	42
422.375	1	30
422.545	1	51
422.716	1	34
422.886	1	34
423.057	1	37
423.228	1	38
423.398	1	43
423.569	1	42
423.740	1	45
423.910	1	43
424.081	1	34
424.251	1	39
424.422	1	37
424.593	1	32
424.763	1	42
424.934	1	34
425.104	1	41
425.275	1	38
425.445	1	39
425.616	1	37
425.787	1	45
425.957	1	38
426.128	1	48
426.298	1	57
426.469	1	41
426.640	1	40
426.810	1	49
426.981	1	38
427.151	1	42
427.322	1	48
427.493	1	50
427.663	1	52
427.834	1	40
428.004	1	26
428.175	1	57
428.345	1	40
428.516	1	44
428.687	1	45
428.857	1	40
429.028	1	33
429.198	1	63
429.369	1	47
429.540	1	40
429.710	1	40
429.881	1	42
430.051	1	40
430.222	1	34
430.392	1	28
430.563	1	47
430.734	1	40
430.904	1	38
431.075	1	32
431.245	1	38
431.416	1	35
431.586	1	39
431.757	1	38
431.927	1	55
432.098	1	27
432.269	1	33
432.439	1	38
432.610	1	48
432.780	1	46
432.951	1	39
433.121	1	46
433.292	1	39
433.462	1	33
433.633	1	32
433.804	1	25
433.974	1	35
434.145	1	30
434.315	1	39
434.486	1	41
434.656	1	37
434.827	1	38
434.997	1	41
435.168	1	36
435.339	1	29
435.509	1	38
435.680	1	41
435.850	1	38
436.021	1	35
436.191	1	44
436.362	1	42
436.532	1	47
436.703	1	39
436.873	1	43
437.044	1	35
437.214	1	34
437.385	1	44
437.556	1	30
437.726	1	36
437.897	1	41
438.067	1	37
438.238	1	42
438.408	1	32
438.579	1	45
438.749	1	40
438.920	1	46
439.090	1	41
439.261	1	41
439.431	1	31
439.602	1	33
439.772	1	35
439.943	1	42
440.113	1	44
440.284	1	39
440.455	1	41
440.625	1	53
440.796	1	36
440.966	1	32
441.137	1	28
441.307	1	36
441.478	1	36
441.648	1	34
441.819	1	40
441.989	1	45
442.160	1	38
442.330	1	46
442.501	1	34
442.671	1	41
442.842	1	38
443.012	1	39
443.183	1	30
443.353	1	45
443.524	1	23
443.694	1	35
443.865	1	36
444.035	1	33
444.206	1	40
444.376	1	34
444.547	1	46
444.717	1	28
444.888	1	42
445.058	1	36
445.229	1	39
445.399	1	22
445.570	1	24
445.740	1	36
445.911	1	32
446.081	1	33
446.252	1	41
446.422	1	20
446.593	1	11
446.763	1	33
446.934	1	32
447.104	1	26
447.275	1	33
447.445	1	37
447.616	1	31
447.786	1	40
447.957	1	25
448.127	1	38
448.298	1	24
448.468	1	26
448.639	1	32
448.809	1	37
448.979	1	30
449.150	1	37
449.320	1	35
449.491	1	36
449.661	1	37
449.832	1	37
450.002	1	28
450.173	1	20
450.343	1	40
450.514	1	36
450.684	1	40
450.855	1	45
451.025	1	25
451.196	1	36
451.366	1	37
451.537	1	29
451.707	1	37
451.878	1	34
452.048	1	37
452.218	1	32
452.389	1	38
452.559	1	27
452.730	1	34
452.900	1	30
453.071	1	35
453.241	1	29
453.412	1	39
453.582	1	40
453.753	1	27
453.923	1	43
454.093	1	41
454.264	1	39
454.434	1	35
454.605	1	42
454.775	1	41
454.946	1	45
455.116	1	32
455.287	1	29
455.457	1	27
455.628	1	38
455.798	1	38
455.968	1	27
456.139	1	26
456.309	1	24
456.480	1	35
456.650	1	47
456.821	1	31
456.991	1	30
457.161	1	34
457.332	1	31
457.502	1	22
457.673	1	41
457.843	1	34
458.014	1	15
458.184	1	28
458.355	1	29
458.525	1	23
458.695	1	35
458.866	1	32
459.036	1	24
459.207	1	28
459.377	1	39
459.548	1	24
459.718	1	27
459.888	1	37
460.059	1	18
460.229	1	27
460.400	1	44
460.570	1	24
460.740	1	31
460.911	1	23
461.081	1	16
461.252	1	38
461.422	1	16
461.593	1	15
461.763	1	31
461.933	1	22
462.104	1	22
462.274	1	30
462.445	1	25
462.615	1	19
462.785	1	19
462.956	1	21
463.126	1	16
463.297	1	27
463.467	1	34
463.638	1	20
463.808	1	17
463.978	1	23
464.149	1	31
464.319	1	16
464.490	1	12
464.660	1	30
464.830	1	16
465.001	1	20
465.171	1	23
465.342	1	26
465.512	1	20
465.682	1	27
465.853	1	19
466.023	1	25
466.194	1	30
466.364	1	29
466.534	1	22
466.705	1	31
466.875	1	20
467.045	1	16
467.216	1	24
467.386	1	21
467.557	1	21
467.727	1	29
467.897	1	20
468.068	1	21
468.238	1	29
468.409	1	17
468.579	1	20
468.749	1	22
468.920	1	7
469.090	1	30
469.260	1	11
469.431	1	18
469.601	1	18
469.772	1	19
469.942	1	32
470.112	1	30
470.283	1	30
470.453	1	16
470.623	1	20
470.794	1	21
470.964	1	4
471.135	1	27
471.305	1	25
471.475	1	26
471.646	1	15
471.816	1	26
471.986	1	35
472.157	1	18
472.327	1	15
472.497	1	29
472.668	1	14
472.838	1	21
473.009	1	32
473.179	1	27
473.349	1	15
473.520	1	26
473.690	1	20
473.860	1	28
474.031	1	19
474.201	1	27
474.371	1	13
474.542	1	24
474.712	1	3
474.882	1	25
475.053	1	31
475.223	1	23
475.394	1	20
475.564	1	15
475.734	1	14
475.905	1	20
476.075	1	17
476.245	1	23
476.416	1	19
476.586	1	22
476.756	1	22
476.927	1	23
477.097	1	25
477.267	1	24
477.438	1	-4
477.608	1	12
477.778	1	34
477.949	1	24
478.119	1	21
478.289	1	16
478.460	1	19
478.630	1	13
478.800	1	16
478.971	1	28
479.141	1	18
479.311	1	15
479.482	1	10
479.652	1	20
479.822	1	16
479.993	1	24
480.163	1	18
480.333	1	24
480.504	1	29
480.674	1	25
480.844	1	13
481.015	1	8
481.185	1	13
481.355	1	11
481.525	1	22
481.696	1	17
481.866	1	18
482.036	1	23
482.207	1	12
482.377	1	24
482.547	1	18
482.718	1	21
482.888	1	14
483.058	1	17
483.229	1	20
483.399	1	22
483.569	1	13
483.740	1	18
483.910	1	12
484.080	1	17
484.250	1	21
484.421	1	25
484.591	1	23
484.761	1	14
484.932	1	28
485.102	1	22
485.272	1	8
485.443	1	21
485.613	1	21
485.783	1	14
485.953	1	8
486.124	1	6
486.294	1	18
486.464	1	15
486.635	1	11
486.805	1	13
486.975	1	28
487.146	1	8
487.316	1	19
487.486	1	26
487.656	1	2
487.827	1	18
487.997	1	21
488.167	1	15
488.338	1	4
488.508	1	17
488.678	1	18
488.848	1	15
489.019	1	14
489.189	1	17
489.359	1	24
489.529	1	12
489.700	1	10
489.870	1	6
490.040	1	5
490.211	1	5
490.381	1	7
490.551	1	8
490.721	1	21
490.892	1	25
491.062	1	17
491.232	1	7
491.402	1	11
491.573	1	21
491.743	1	4
491.913	1	17
492.084	1	20
492.254	1	22
492.424	1	11
492.594	1	19
492.765	1	16
492.935	1	19
493.105	1	13
493.275	1	3
493.446	1	16
493.616	1	8
493.786	1	9
493.956	1	16
494.127	1	12
494.297	1	18
494.467	1	16
494.637	1	8
494.808	1	6
494.978	1	6
495.148	1	14
495.318	1	2
495.489	1	11
495.659	1	25
495.829	1	20
495.999	1	12
496.170	1	19
496.340	1	14
496.510	1	1
496.680	1	15
496.851	1	17
497.021	1	15
497.191	1	-3
497.361	1	2
497.532	1	3
497.702	1	18
497.872	1	7
498.042	1	14
498.213	1	13
498.383	1	6
498.553	1	1
498.723	1	13
498.894	1	21
499.064	1	16
499.234	1	1
499.404	1	13
499.574	1	13
499.745	1	7
499.915	1	7
500.085	1	7
500.255	1	14
500.426	1	16
500.596	1	19
500.766	1	24
500.936	1	5
501.106	1	15
501.277	1	10
501.447	1	17
501.617	1	14
501.787	1	23
501.958	1	7
502.128	1	21
502.298	1	15
502.468	1	9
502.638	1	3
502.809	1	15
502.979	1	3
503.149	1	14
503.319	1	3
503.489	1	7
503.660	1	18
503.830	1	15
504.000	1	15
504.170	1	8
504.340	1	15
504.511	1	16
504.681	1	17
504.851	1	17
505.021	1	7
505.192	1	7
505.362	1	5
505.532	1	9
505.702	1	3
505.872	1	15
506.043	1	3
506.213	1	14
506.383	1	23
506.553	1	8
506.723	1	15
506.893	1	4
507.064	1	3
507.234	1	2
507.404	1	11
507.574	1	5
507.744	1	21
507.915	1	9
508.085	1	-2
508.255	1	13
508.425	1	12
508.595	1	12
508.766	1	-1
508.936	1	22
509.106	1	10
509.276	1	16
509.446	1	8
509.616	1	13
509.787	1	15
509.957	1	11
510.127	1	11
510.297	1	13
510.467	1	7
510.638	1	8
510.808	1	3
510.978	1	10
511.148	1	19
511.318	1	7
511.488	1	18
511.659	1	11
511.829	1	11
511.999	1	-2
512.169	1	3
512.339	1	2
512.509	1	7
512.680	1	6
512.850	1	5
513.020	1	6
513.190	1	16
513.360	1	6
513.530	1	10
513.700	1	1
513.871	1	14
514.041	1	9
514.211	1	4
514.381	1	20
514.551	1	6
514.721	1	9
514.892	1	4
515.062	1	14
515.232	1	9
515.402	1	12
515.572	1	4
515.742	1	10
515.912	1	13
516.083	1	8
516.253	1	15
516.423	1	5
516.593	1	3
516.763	1	15
516.933	1	15
517.104	1	15
517.274	1	5
517.444	1	0
517.614	1	17
517.784	1	3
517.954	1	7
518.124	1	16
518.294	1	14
518.465	1	10
518.635	1	9
518.805	1	5
518.975	1	8
519.145	1	13
519.315	1	7
519.485	1	13
519.656	1	3
519.826	1	1
519.996	1	13
520.166	1	3
520.336	1	5
520.506	1	9
520.676	1	19
520.846	1	5
521.017	1	3
521.187	1	12
521.357	1	12
521.527	1	2
521.697	1	14
521.867	1	5
522.037	1	16
522.207	1	15
522.377	1	8
522.548	1	7
522.718	1	7
522.888	1	9
523.058	1	3
523.228	1	5
523.398	1	7
523.568	1	9
523.738	1	5
523.909	1	10
524.079	1	6
524.249	1	6
524.419	1	20
524.589	1	2
524.759	1	8
524.929	1	-6
525.099	1	-1
525.269	1	0
525.439	1	15
525.610	1	2
525.780	1	21
525.950	1	8
526.120	1	8
526.290	1	7
526.460	1	10
526.630	1	2
526.800	1	0
526.970	1	13
527.140	1	15
527.311	1	20
527.481	1	-2
527.651	1	5
527.821	1	5
527.991	1	5
528.161	1	5
528.331	1	7
528.501	1	3
528.671	1	13
528.841	1	15
529.011	1	5
529.181	1	7
529.352	1	19
529.522	1	5
529.692	1	8
529.862	1	7
530.032	1	7
530.202	1	16
530.372	1	12
530.542	1	7
530.712	1	18
530.882	1	12
531.052	1	9
531.222	1	-5
531.392	1	6
531.563	1	4
531.733	1	-2
531.903	1	14
532.073	1	3
532.243	1	9
532.413	1	6
532.583	1	9
532.753	1	9
532.923	1	2
533.093	1	15
533.263	1	7
533.433	1	3
533.603	1	-6
533.773	1	2
533.943	1	4
534.113	1	11
534.284	1	1
534.454	1	9
534.624	1	9
534.794	1	13
534.964	1	-1
535.134	1	14
535.304	1	13
535.474	1	-2
535.644	1	18
535.814	1	5
535.984	1	3
536.154	1	4
536.324	1	5
536.494	1	4
536.664	1	-2
536.834	1	9
537.004	1	13
537.174	1	7
537.344	1	18
537.514	1	11
537.685	1	3
537.855	1	4
538.025	1	1
538.195	1	4
538.365	1	11
538.535	1	4
538.705	1	2
538.875	1	11
539.045	1	7
539.215	1	6
539.385	1	-1
539.555	1	2
539.725	1	5
539.895	1	6
540.065	1	-7
540.235	1	8
540.405	1	-5
540.575	1	17
540.745	1	-4
540.915	1	10
541.085	1	6
541.255	1	11
541.425	1	-6
541.595	1	10
541.765	1	22
541.935	1	5
542.105	1	16
542.275	1	12
542.445	1	8
542.615	1	9
542.785	1	-7
542.955	1	-3
543.125	1	3
543.295	1	13
543.465	1	9
543.635	1	4
543.805	1	-5
543.975	1	0
544.145	1	17
544.315	1	6
544.485	1	15
544.655	1	4
544.825	1	1
544.995	1	17
545.165	1	8
545.335	1	-8
545.505	1	2
545.675	1	-10
545.845	1	-7
546.015	1	9
546.185	1	5
546.355	1	7
546.525	1	-6
546.695	1	7
546.865	1	15
547.035	1	4
547.205	1	15
547.375	1	0
547.545	1	-1
547.715	1	3
547.885	1	3
548.055	1	7
548.225	1	5
548.395	1	5
548.565	1	8
548.735	1	5
548.905	1	8
549.075	1	11
549.245	1	9
549.415	1	4
549.585	1	2
549.755	1	11
549.925	1	-9
550.095	1	2
550.265	1	14
550.435	1	-6
550.605	1	0
550.775	1	17
550.945	1	-3
551.115	1	2
551.285	1	9
551.455	1	2
551.625	1	-6
551.795	1	-6
551.965	1	7
552.135	1	4
552.305	1	7
552.475	1	12
552.645	1	9
552.815	1	13
552.985	1	2
553.155	1	9
553.325	1	-3
553.495	1	4
553.665	1	-4
553.835	1	15
554.004	1	10
554.174	1	8
554.344	1	5
554.514	1	7
554.684	1	-10
554.854	1	7
555.024	1	-2
555.194	1	-4
555.364	1	4
555.534	1	-5
555.704	1	17
555.874	1	7
556.044	1	-1
556.214	1	11
556.384	1	11
556.554	1	0
556.724	1	2
556.894	1	4
557.064	1	6
557.234	1	0
557.404	1	0
557.573	1	12
557.743	1	9
557.913	1	12
558.083	1	5
558.253	1	3
558.423	1	3
558.593	1	-3
558.763	1	1
558.933	1	9
559.103	1	8
559.273	1	5
559.443	1	-3
559.613	1	4
559.783	1	-7
559.953	1	-2
560.122	1	11
560.292	1	19
560.462	1	8
560.632	1	3
560.802	1	11
560.972	1	-8
561.142	1	0
561.312	1	5
561.482	1	-6
561.652	1	2
561.822	1	-3
561.992	1	6
562.162	1	11
562.331	1	8
562.501	1	7
562.671	1	11
562.841	1	-4
563.011	1	10
563.181	1	3
563.351	1	9
563.521	1	2
563.691	1	4
563.861	1	8
564.031	1	-5
564.201	1	12
564.370	1	9
564.540	1	15
564.710	1	5
564.880	1	0
565.050	1	1
565.220	1	0
565.390	1	3
565.560	1	4
565.730	1	9
565.900	1	10
566.069	1	12
566.239	1	4
566.409	1	-7
566.579	1	7
566.749	1	0
566.919	1	7
567.089	1	2
567.259	1	2
567.429	1	5
567.599	1	12
567.768	1	-1
567.938	1	-4
568.108	1	0
568.278	1	13
568.448	1	4
568.618	1	5
568.788	1	7
568.958	1	1
569.128	1	7
569.297	1	-2
569.467	1	2
569.637	1	10
569.807	1	4
569.977	1	-10
570.147	1	6
570.317	1	5
570.487	1	0
570.656	1	0
570.826	1	-1
570.996	1	-2
571.166	1	13
571.336	1	-1
571.506	1	7
571.676	1	7
571.846	1	5
572.015	1	-2
572.185	1	7
572.355	1	0
572.525	1	0
572.695	1	7
572.865	1	4
573.035	1	13
573.205	1	5
573.374	1	10
573.544	1	8
573.714	1	-3
573.884	1	7
574.054	1	6
574.224	1	5
574.394	1	-2
574.563	1	12
574.733	1	4
574.903	1	7
575.073	1	11
575.243	1	-6
575.413	1	1
575.583	1	14
575.752	1	6
575.922	1	5
576.092	1	-10
576.262	1	-2
576.432	1	6
576.602	1	5
576.772	1	1
576.941	1	3
577.111	1	-2
577.281	1	-2
577.451	1	6
577.621	1	16
577.791	1	6
577.960	1	5
578.130	1	6
578.300	1	-5
578.470	1	0
578.640	1	6
578.810	1	0
578.979	1	-1
579.149	1	-4
579.319	1	-7
579.489	1	-5
579.659	1	-6
579.829	1	7
579.998	1	6
580.168	1	3
580.338	1	13
580.508	1	19
580.678	1	-4
580.848	1	0
581.017	1	14
581.187	1	2
581.357	1	4
581.527	1	1
581.697	1	4
581.867	1	-4
582.036	1	0
582.206	1	10
582.376	1	4
582.546	1	-9
582.716	1	-6
582.885	1	-7
583.055	1	5
583.225	1	3
583.395	1	6
583.565	1	10
583.735	1	8
583.904	1	8
584.074	1	-6
584.244	1	-5
584.414	1	-1
584.584	1	0
584.753	1	1
584.923	1	5
585.093	1	16
585.263	1	3
585.433	1	5
585.602	1	7
585.772	1	6
585.942	1	0
586.112	1	-5
586.282	1	9
586.451	1	6
586.621	1	13
586.791	1	8
586.961	1	1
587.131	1	-1
587.300	1	7
587.470	1	-4
587.640	1	16
587.810	1	16
587.980	1	7
588.149	1	0
588.319	1	4
588.489	1	2
588.659	1	3
588.829	1	1
588.998	1	6
589.168	1	9
589.338	1	3
589.508	1	9
589.677	1	6
589.847	1	13
590.017	1	3
590.187	1	11
590.357	1	8
590.526	1	-4
590.696	1	7
590.866	1	11
591.036	1	8
591.205	1	10
591.375	1	6
591.545	1	1
591.715	1	4
591.885	1	3
592.054	1	5
592.224	1	10
592.394	1	-4
592.564	1	7
592.733	1	9
592.903	1	-3
593.073	1	1
593.243	1	13
593.412	1	9
593.582	1	6
593.752	1	3
593.922	1	-4
594.091	1	6
594.261	1	4
594.431	1	19
594.601	1	-3
594.771	1	10
594.940	1	17
595.110	1	10
595.280	1	3
595.450	1	6
595.619	1	10
595.789	1	12
595.959	1	10
596.129	1	3
596.298	1	11
596.468	1	-2
596.638	1	6
596.808	1	13
596.977	1	2
597.147	1	-13
597.317	1	-3
597.487	1	8
597.656	1	-11
597.826	1	17
597.996	1	14
598.166	1	13
598.335	1	11
598.505	1	10
598.675	1	-2
598.844	1	2
599.014	1	6
599.184	1	0
599.354	1	2
599.523	1	9
599.693	1	16
599.863	1	11
600.033	1	3
600.202	1	12
600.372	1	-8
600.542	1	-4
600.712	1	6
600.881	1	-11
601.051	1	6
601.221	1	10
601.390	1	-8
601.560	1	6
601.730	1	15
601.900	1	1
602.069	1	4
602.239	1	4
602.409	1	-1
602.578	1	1
602.748	1	-5
602.918	1	9
603.088	1	15
603.257	1	4
603.427	1	2
603.597	1	4
603.767	1	6
603.936	1	0
604.106	1	3
604.276	1	19
604.445	1	10
604.615	1	11
604.785	1	4
604.954	1	10
605.124	1	-3
605.294	1	10
605.464	1	9
605.633	1	7
605.803	1	3
605.973	1	8
606.142	1	6
606.312	1	-5
606.482	1	-5
606.652	1	13
606.821	1	8
606.991	1	-8
607.161	1	0
607.330	1	-2
607.500	1	12
607.670	1	16
607.839	1	15
608.009	1	-2
608.179	1	1
608.348	1	14
608.518	1	3
608.688	1	4
608.858	1	11
609.027	1	10
609.197	1	1
609.367	1	16
609.536	1	-3
609.706	1	6
609.876	1	9
610.045	1	3
610.215	1	5
610.385	1	-2
610.554	1	1
610.724	1	-7
610.894	1	17
611.063	1	-6
611.233	1	14
611.403	1	4
611.572	1	12
611.742	1	8
611.912	1	4
612.081	1	5
612.251	1	10
612.421	1	2
612.590	1	3
612.760	1	14
612.930	1	-1
613.099	1	5
613.269	1	4
613.439	1	6
613.608	1	10
613.778	1	3
613.948	1	2
614.117	1	18
614.287	1	0
614.457	1	-7
614.626	1	18
614.796	1	7
614.966	1	5
615.135	1	15
615.305	1	18
615.475	1	15
615.644	1	8
615.814	1	-2
615.984	1	0
616.153	1	3
616.323	1	12
616.493	1	16
616.662	1	9
616.832	1	12
617.002	1	4
617.171	1	2
617.341	1	2
617.511	1	5
617.680	1	10
617.850	1	20
618.019	1	0
618.189	1	18
618.359	1	-3
618.528	1	3
618.698	1	14
618.868	1	0
619.037	1	11
619.207	1	5
619.377	1	14
619.546	1	6
619.716	1	5
619.885	1	8
620.055	1	10
620.225	1	14
620.394	1	4
620.564	1	15
620.734	1	13
620.903	1	9
621.073	1	1
621.242	1	5
621.412	1	12
621.582	1	6
621.751	1	13
621.921	1	1
622.091	1	11
622.260	1	5
622.430	1	9
622.599	1	1
622.769	1	9
622.939	1	7
623.108	1	6
623.278	1	9
623.448	1	9
623.617	1	15
623.787	1	11
623.956	1	17
624.126	1	25
624.296	1	13
624.465	1	14
624.635	1	8
624.804	1	6
624.974	1	19
625.144	1	4
625.313	1	7
625.483	1	19
625.652	1	5
625.822	1	8
625.992	1	11
626.161	1	16
626.331	1	7
626.501	1	12
626.670	1	11
626.840	1	10
627.009	1	14
627.179	1	8
627.348	1	1
627.518	1	7
627.688	1	11
627.857	1	14
628.027	1	-4
628.196	1	2
628.366	1	0
628.536	1	9
628.705	1	6
628.875	1	24
629.044	1	12
629.214	1	13
629.384	1	8
629.553	1	6
629.723	1	3
629.892	1	16
630.062	1	10
630.232	1	1
630.401	1	9
630.571	1	14
630.740	1	15
630.910	1	11
631.079	1	11
631.249	1	9
631.419	1	1
631.588	1	-1
631.758	1	9
631.927	1	9
632.097	1	15
632.266	1	12
632.436	1	12
632.606	1	11
632.775	1	13
632.945	1	17
633.114	1	1
633.284	1	5
633.453	1	1
633.623	1	22
633.793	1	5
633.962	1	6
634.132	1	11
634.301	1	4
634.471	1	7
634.640	1	7
634.810	1	6
634.979	1	15
635.149	1	6
635.319	1	13
635.488	1	22
635.658	1	11
635.827	1	13
635.997	1	8
636.166	1	11
636.336	1	9
636.505	1	5
636.675	1	11
636.845	1	11
637.014	1	4
637.184	1	8
637.353	1	9
637.523	1	11
637.692	1	8
637.862	1	9
638.031	1	11
638.201	1	17
638.370	1	6
638.540	1	2
638.710	1	23
638.879	1	3
639.049	1	7
639.218	1	11
639.388	1	13
639.557	1	20
639.727	1	6
639.896	1	2
640.066	1	4
640.235	1	9
640.405	1	8
640.574	1	17
640.744	1	24
640.914	1	10
641.083	1	17
641.253	1	17
641.422	1	14
641.592	1	8
641.761	1	10
641.931	1	9
642.100	1	13
642.270	1	4
642.439	1	9
642.609	1	9
642.778	1	10
642.948	1	13
643.117	1	14
643.287	1	9
643.456	1	14
643.626	1	19
643.795	1	1
643.965	1	15
644.134	1	8
644.304	1	20
644.473	1	21
644.643	1	7
644.812	1	17
644.982	1	13
645.151	1	20
645.321	1	7
645.490	1	3
645.660	1	3
645.829	1	10
645.999	1	12
646.168	1	9
646.338	1	8
646.507	1	20
646.677	1	16
646.846	1	10
647.016	1	12
647.185	1	5
647.355	1	-1
647.524	1	12
647.694	1	6
647.863	1	3
648.033	1	5
648.202	1	17
648.372	1	10
648.541	1	4
648.711	1	13
648.880	1	12
649.050	1	6
649.219	1	4
649.389	1	11
649.558	1	2
649.728	1	6
649.897	1	13
650.067	1	12
650.236	1	12
650.406	1	13
650.575	1	13
650.745	1	10
650.914	1	12
651.084	1	1
651.253	1	22
651.423	1	14
651.592	1	15
651.762	1	19
651.931	1	2
652.101	1	12
652.270	1	14
652.440	1	8
652.609	1	1
652.778	1	4
652.948	1	12
653.117	1	12
653.287	1	17
653.456	1	13
653.626	1	6
653.795	1	9
653.965	1	15
654.134	1	5
654.304	1	8
654.473	1	11
654.643	1	6
654.812	1	2
654.982	1	8
655.151	1	11
655.320	1	4
655.490	1	11
655.659	1	0
655.829	1	16
655.998	1	-2
656.168	1	5
656.337	1	10
656.507	1	9
656.676	1	18
656.846	1	-2
657.015	1	7
657.184	1	10
657.354	1	6
657.523	1	11
657.693	1	10
657.862	1	5
658.032	1	8
658.201	1	14
658.371	1	5
658.540	1	-4
658.709	1	4
658.879	1	-12
659.048	1	5
659.218	1	11
659.387	1	2
659.557	1	11
659.726	1	8
659.895	1	10
660.065	1	3
660.234	1	4
660.404	1	12
660.573	1	16
660.743	1	17
660.912	1	7
661.081	1	27
661.251	1	13
661.420	1	14
661.590	1	0
661.759	1	13
661.929	1	16
662.098	1	-4
662.267	1	13
662.437	1	18
662.606	1	17
662.776	1	17
662.945	1	3
663.115	1	12
663.284	1	12
663.453	1	6
663.623	1	16
663.792	1	3
663.962	1	13
664.131	1	11
664.300	1	6
664.470	1	18
664.639	1	9
664.809	1	6
664.978	1	11
665.148	1	6
665.317	1	8
665.486	1	10
665.656	1	-1
665.825	1	10
665.995	1	16
666.164	1	10
666.333	1	12
666.503	1	9
666.672	1	12
666.842	1	6
667.011	1	3
667.180	1	13
667.350	1	16
667.519	1	9
667.689	1	4
667.858	1	14
668.027	1	33
668.197	1	17
668.366	1	15
668.536	1	16
668.705	1	10
668.874	1	13
669.044	1	6
669.213	1	10
669.382	1	7
669.552	1	22
669.721	1	15
669.891	1	15
670.060	1	14
670.229	1	8
670.399	1	9
670.568	1	11
670.738	1	8
670.907	1	15
671.076	1	15
671.246	1	18
671.415	1	14
671.584	1	8
671.754	1	11
671.923	1	21
672.093	1	14
672.262	1	13
672.431	1	-6
672.601	1	9
672.770	1	7
672.939	1	4
673.109	1	1
673.278	1	18
673.448	1	-7
673.617	1	-7
673.786	1	13
