325.333	1	13
325.504	1	10
325.675	1	3
325.846	1	5
326.017	1	16
326.188	1	8
326.359	1	10
326.531	1	-5
326.702	1	0
326.873	1	9
327.044	1	3
327.215	1	7
327.386	1	7
327.557	1	7
327.728	1	6
327.899	1	12
328.070	1	15
328.241	1	7
328.412	1	13
328.583	1	10
328.754	1	5
328.926	1	0
329.097	1	7
329.268	1	2
329.439	1	5
329.610	1	14
329.781	1	7
329.952	1	13
330.123	1	9
330.294	1	2
330.465	1	5
330.636	1	11
330.807	1	2
330.978	1	11
331.149	1	11
331.320	1	7
331.492	1	13
331.663	1	10
331.834	1	3
332.005	1	15
332.176	1	3
332.347	1	16
332.518	1	10
332.689	1	12
332.860	1	10
333.031	1	11
333.202	1	2
333.373	1	13
333.544	1	10
333.715	1	16
333.886	1	13
334.057	1	10
334.228	1	7
334.399	1	15
334.570	1	4
334.741	1	8
334.912	1	21
335.084	1	10
335.255	1	9
335.426	1	1
335.597	1	13
335.768	1	20
335.939	1	9
336.110	1	12
336.281	1	15
336.452	1	7
336.623	1	12
336.794	1	15
336.965	1	4
337.136	1	7
337.307	1	10
337.478	1	9
337.649	1	14
337.820	1	2
337.991	1	10
338.162	1	10
338.333	1	3
338.504	1	3
338.675	1	1
338.846	1	10
339.017	1	15
339.188	1	3
339.359	1	15
339.530	1	19
339.701	1	-4
339.872	1	6
340.043	1	-1
340.214	1	5
340.385	1	7
340.556	1	17
340.727	1	18
340.898	1	9
341.069	1	14
341.240	1	14
341.411	1	9
341.582	1	12
341.753	1	14
341.924	1	11
342.095	1	12
342.266	1	20
342.437	1	16
342.608	1	27
342.779	1	4
342.950	1	8
343.121	1	6
343.292	1	16
343.463	1	2
343.634	1	6
343.805	1	5
343.976	1	8
344.147	1	7
344.318	1	0
344.489	1	13
344.660	1	21
344.831	1	15
345.002	1	13
345.173	1	2
345.344	1	9
345.515	1	0
345.686	1	23
345.857	1	-1
346.028	1	2
346.199	1	2
346.370	1	11
346.541	1	0
346.712	1	9
346.883	1	11
347.054	1	6
347.225	1	6
347.396	1	-1
347.567	1	14
347.738	1	-3
347.909	1	1
348.080	1	5
348.251	1	15
348.422	1	15
348.593	1	5
348.764	1	8
348.935	1	4
349.106	1	8
349.277	1	9
349.448	1	10
349.619	1	11
349.790	1	19
349.961	1	18
350.132	1	14
350.303	1	12
350.474	1	11
350.645	1	18
350.816	1	9
350.987	1	10
351.157	1	11
351.328	1	19
351.499	1	11
351.670	1	-1
351.841	1	9
352.012	1	17
352.183	1	4
352.354	1	0
352.525	1	8
352.696	1	15
352.867	1	4
353.038	1	1
353.209	1	16
353.380	1	-3
353.551	1	-5
353.722	1	10
353.893	1	13
354.064	1	0
354.235	1	9
354.406	1	15
354.576	1	7
354.747	1	5
354.918	1	13
355.089	1	14
355.260	1	25
355.431	1	7
355.602	1	13
355.773	1	9
355.944	1	-6
356.115	1	11
356.286	1	8
356.457	1	10
356.628	1	4
356.799	1	19
356.970	1	12
357.141	1	8
357.311	1	18
357.482	1	10
357.653	1	4
357.824	1	9
357.995	1	-1
358.166	1	6
358.337	1	7
358.508	1	12
358.679	1	12
358.850	1	5
359.021	1	13
359.192	1	17
359.363	1	14
359.533	1	4
359.704	1	23
359.875	1	14
360.046	1	11
360.217	1	8
360.388	1	15
360.559	1	6
360.730	1	11
360.901	1	13
361.072	1	14
361.243	1	14
361.414	1	2
361.584	1	-1
361.755	1	5
361.926	1	20
362.097	1	8
362.268	1	3
362.439	1	6
362.610	1	4
362.781	1	-1
362.952	1	9
363.123	1	17
363.293	1	9
363.464	1	12
363.635	1	21
363.806	1	3
363.977	1	7
364.148	1	1
364.319	1	6
364.490	1	12
364.661	1	10
364.832	1	16
365.002	1	16
365.173	1	6
365.344	1	21
365.515	1	-4
365.686	1	1
365.857	1	13
366.028	1	14
366.199	1	-2
366.370	1	11
366.540	1	5
366.711	1	7
366.882	1	9
367.053	1	6
367.224	1	10
367.395	1	7
367.566	1	7
367.737	1	6
367.908	1	8
368.078	1	18
368.249	1	6
368.420	1	10
368.591	1	7
368.762	1	-1
368.933	1	-1
369.104	1	21
369.274	1	0
369.445	1	6
369.616	1	7
369.787	1	13
369.958	1	11
370.129	1	3
370.300	1	12
370.471	1	7
370.641	1	8
370.812	1	3
370.983	1	6
371.154	1	0
371.325	1	14
371.496	1	13
371.667	1	8
371.837	1	4
372.008	1	1
372.179	1	1
372.350	1	1
372.521	1	19
372.692	1	4
372.863	1	8
373.033	1	13
373.204	1	-2
373.375	1	9
373.546	1	24
373.717	1	3
373.888	1	10
374.059	1	10
374.229	1	-4
374.400	1	-7
374.571	1	12
374.742	1	5
374.913	1	10
375.084	1	19
375.254	1	4
375.425	1	2
375.596	1	10
375.767	1	7
375.938	1	11
376.109	1	8
376.279	1	7
376.450	1	6
376.621	1	13
376.792	1	7
376.963	1	0
377.134	1	10
377.304	1	12
377.475	1	13
377.646	1	9
377.817	1	-7
377.988	1	6
378.159	1	13
378.329	1	11
378.500	1	13
378.671	1	13
378.842	1	4
379.013	1	5
379.184	1	3
379.354	1	-2
379.525	1	10
379.696	1	10
379.867	1	12
380.038	1	11
380.209	1	6
380.379	1	10
380.550	1	19
380.721	1	6
380.892	1	10
381.063	1	4
381.233	1	7
381.404	1	13
381.575	1	7
381.746	1	15
381.917	1	14
382.087	1	18
382.258	1	20
382.429	1	7
382.600	1	16
382.771	1	6
382.941	1	16
383.112	1	8
383.283	1	18
383.454	1	14
383.625	1	1
383.795	1	13
383.966	1	5
384.137	1	4
384.308	1	1
384.479	1	-4
384.649	1	4
384.820	1	23
384.991	1	8
385.162	1	16
385.333	1	5
385.503	1	8
385.674	1	1
385.845	1	23
386.016	1	9
386.187	1	13
386.357	1	8
386.528	1	3
386.699	1	11
386.870	1	11
387.041	1	15
387.211	1	4
387.382	1	5
387.553	1	11
387.724	1	30
387.894	1	13
388.065	1	17
388.236	1	17
388.407	1	16
388.578	1	10
388.748	1	6
388.919	1	15
389.090	1	23
389.261	1	12
389.431	1	7
389.602	1	21
389.773	1	23
389.944	1	13
390.114	1	28
390.285	1	4
390.456	1	4
390.627	1	10
390.798	1	6
390.968	1	16
391.139	1	1
391.310	1	12
391.481	1	13
391.651	1	20
391.822	1	15
391.993	1	17
392.164	1	15
392.334	1	4
392.505	1	18
392.676	1	25
392.847	1	8
393.017	1	19
393.188	1	12
393.359	1	17
393.530	1	20
393.700	1	7
393.871	1	15
394.042	1	13
394.213	1	7
394.383	1	7
394.554	1	22
394.725	1	5
394.896	1	9
395.066	1	18
395.237	1	15
395.408	1	13
395.579	1	11
395.749	1	14
395.920	1	11
396.091	1	18
396.262	1	14
396.432	1	14
396.603	1	12
396.774	1	7
396.945	1	20
397.115	1	5
397.286	1	3
397.457	1	6
397.627	1	8
397.798	1	19
397.969	1	13
398.140	1	9
398.310	1	14
398.481	1	14
398.652	1	5
398.823	1	16
398.993	1	8
399.164	1	19
399.335	1	13
399.505	1	8
399.676	1	9
399.847	1	13
400.018	1	15
400.188	1	5
400.359	1	16
400.530	1	9
400.700	1	15
400.871	1	9
401.042	1	12
401.213	1	6
401.383	1	9
401.554	1	10
401.725	1	15
401.895	1	5
402.066	1	9
402.237	1	22
402.408	1	17
402.578	1	18
402.749	1	7
402.920	1	19
403.090	1	19
403.261	1	12
403.432	1	12
403.603	1	23
403.773	1	21
403.944	1	11
404.115	1	8
404.285	1	21
404.456	1	10
404.627	1	9
404.797	1	10
404.968	1	18
405.139	1	25
405.310	1	18
405.480	1	25
405.651	1	1
405.822	1	18
405.992	1	13
406.163	1	31
406.334	1	20
406.504	1	15
406.675	1	23
406.846	1	23
407.016	1	20
407.187	1	16
407.358	1	15
407.528	1	18
407.699	1	6
407.870	1	18
408.041	1	26
408.211	1	23
408.382	1	16
408.553	1	18
408.723	1	13
408.894	1	16
409.065	1	23
409.235	1	30
409.406	1	16
409.577	1	6
409.747	1	9
409.918	1	12
410.089	1	16
410.259	1	16
410.430	1	23
410.601	1	10
410.771	1	7
410.942	1	24
411.113	1	14
411.283	1	12
411.454	1	16
411.625	1	22
411.795	1	12
411.966	1	23
412.137	1	21
412.307	1	16
412.478	1	12
412.649	1	14
412.819	1	15
412.990	1	24
413.161	1	23
413.331	1	6
413.502	1	30
413.672	1	24
413.843	1	12
414.014	1	17
414.184	1	15
414.355	1	29
414.526	1	21
414.696	1	23
414.867	1	20
415.038	1	15
415.208	1	16
415.379	1	20
415.550	1	18
415.720	1	3
415.891	1	24
416.062	1	13
416.232	1	11
416.403	1	18
416.573	1	20
416.744	1	9
416.915	1	32
417.085	1	11
417.256	1	7
417.427	1	16
417.597	1	22
417.768	1	20
417.939	1	9
418.109	1	5
418.280	1	18
418.450	1	25
418.621	1	17
418.792	1	16
418.962	1	12
419.133	1	12
419.304	1	21
419.474	1	15
419.645	1	11
419.815	1	11
419.986	1	29
420.157	1	11
420.327	1	15
420.498	1	20
420.669	1	9
420.839	1	14
421.010	1	16
421.180	1	11
421.351	1	27
421.522	1	17
421.692	1	25
421.863	1	20
422.033	1	11
422.204	1	22
422.375	1	12
422.545	1	23
422.716	1	12
422.886	1	12
423.057	1	23
423.228	1	11
423.398	1	15
423.569	1	15
423.740	1	30
423.910	1	22
424.081	1	21
424.251	1	11
424.422	1	13
424.593	1	17
424.763	1	19
424.934	1	24
425.104	1	6
425.275	1	27
425.445	1	9
425.616	1	17
425.787	1	19
425.957	1	23
426.128	1	19
426.298	1	29
426.469	1	10
426.640	1	22
426.810	1	31
426.981	1	18
427.151	1	21
427.322	1	29
427.493	1	24
427.663	1	21
427.834	1	13
428.004	1	6
428.175	1	31
428.345	1	17
428.516	1	18
428.687	1	20
428.857	1	8
429.028	1	10
429.198	1	26
429.369	1	18
429.540	1	15
429.710	1	15
429.881	1	16
430.051	1	26
430.222	1	14
430.392	1	21
430.563	1	30
430.734	1	15
430.904	1	14
431.075	1	22
431.245	1	22
431.416	1	22
431.586	1	6
431.757	1	14
431.927	1	32
432.098	1	7
432.269	1	21
432.439	1	26
432.610	1	25
432.780	1	17
432.951	1	22
433.121	1	26
433.292	1	15
433.462	1	11
433.633	1	4
433.804	1	13
433.974	1	18
434.145	1	7
434.315	1	14
434.486	1	22
434.656	1	24
434.827	1	10
434.997	1	14
435.168	1	20
435.339	1	16
435.509	1	10
435.680	1	17
435.850	1	12
436.021	1	26
436.191	1	26
436.362	1	28
436.532	1	19
436.703	1	17
436.873	1	7
437.044	1	10
437.214	1	18
437.385	1	23
437.556	1	16
437.726	1	22
437.897	1	17
438.067	1	6
438.238	1	17
438.408	1	16
438.579	1	19
438.749	1	10
438.920	1	22
439.090	1	19
439.261	1	9
439.431	1	9
439.602	1	11
439.772	1	27
439.943	1	14
440.113	1	24
440.284	1	17
440.455	1	23
440.625	1	35
440.796	1	14
440.966	1	6
441.137	1	7
441.307	1	14
441.478	1	17
441.648	1	9
441.819	1	20
441.989	1	16
442.160	1	15
442.330	1	21
442.501	1	13
442.671	1	7
442.842	1	17
443.012	1	11
443.183	1	18
443.353	1	28
443.524	1	7
443.694	1	18
443.865	1	13
444.035	1	19
444.206	1	15
444.376	1	9
444.547	1	22
444.717	1	8
444.888	1	16
445.058	1	18
445.229	1	16
445.399	1	9
445.570	1	10
445.740	1	15
445.911	1	21
446.081	1	22
446.252	1	15
446.422	1	5
446.593	1	16
446.763	1	12
446.934	1	13
447.104	1	12
447.275	1	25
447.445	1	9
447.616	1	11
447.786	1	21
447.957	1	17
448.127	1	24
448.298	1	12
448.468	1	10
448.639	1	22
448.809	1	19
448.979	1	2
449.150	1	6
449.320	1	21
449.491	1	14
449.661	1	25
449.832	1	14
450.002	1	14
450.173	1	10
450.343	1	18
450.514	1	32
450.684	1	14
450.855	1	17
451.025	1	23
451.196	1	12
451.366	1	21
451.537	1	2
451.707	1	17
451.878	1	-9
452.048	1	15
452.218	1	18
452.389	1	14
452.559	1	-5
452.730	1	12
452.900	1	23
453.071	1	17
453.241	1	21
453.412	1	17
453.582	1	11
453.753	1	9
453.923	1	19
454.093	1	14
454.264	1	21
454.434	1	15
454.605	1	13
454.775	1	18
454.946	1	22
455.116	1	16
455.287	1	14
455.457	1	19
455.628	1	13
455.798	1	15
455.968	1	25
456.139	1	10
456.309	1	16
456.480	1	20
456.650	1	20
456.821	1	20
456.991	1	12
457.161	1	11
457.332	1	13
457.502	1	1
457.673	1	12
457.843	1	12
458.014	1	10
458.184	1	10
458.355	1	10
458.525	1	9
458.695	1	16
458.866	1	11
459.036	1	16
459.207	1	8
459.377	1	19
459.548	1	14
459.718	1	14
459.888	1	25
460.059	1	18
460.229	1	5
460.400	1	23
460.570	1	13
460.740	1	2
460.911	1	13
461.081	1	-1
461.252	1	17
461.422	1	18
461.593	1	3
461.763	1	21
461.933	1	6
462.104	1	22
462.274	1	12
462.445	1	8
462.615	1	13
462.785	1	2
462.956	1	0
463.126	1	7
463.297	1	11
463.467	1	16
463.638	1	4
463.808	1	8
463.978	1	14
464.149	1	6
464.319	1	-5
464.490	1	12
464.660	1	17
464.830	1	2
465.001	1	18
465.171	1	9
465.342	1	12
465.512	1	15
465.682	1	13
465.853	1	9
466.023	1	18
466.194	1	17
466.364	1	10
466.534	1	11
466.705	1	9
466.875	1	14
467.045	1	6
467.216	1	10
467.386	1	18
467.557	1	8
467.727	1	10
467.897	1	1
468.068	1	24
468.238	1	3
468.409	1	2
468.579	1	10
468.749	1	6
468.920	1	8
469.090	1	14
469.260	1	5
469.431	1	14
469.601	1	5
469.772	1	12
469.942	1	15
470.112	1	10
470.283	1	16
470.453	1	12
470.623	1	15
470.794	1	17
470.964	1	4
471.135	1	4
471.305	1	6
471.475	1	10
471.646	1	10
471.816	1	14
471.986	1	15
472.157	1	4
472.327	1	7
472.497	1	1
472.668	1	3
472.838	1	6
473.009	1	10
473.179	1	9
473.349	1	6
473.520	1	9
473.690	1	6
473.860	1	16
474.031	1	13
474.201	1	19
474.371	1	1
474.542	1	21
474.712	1	-4
474.882	1	16
475.053	1	5
475.223	1	12
475.394	1	15
475.564	1	-1
475.734	1	5
475.905	1	8
476.075	1	6
476.245	1	13
476.416	1	7
476.586	1	9
476.756	1	28
476.927	1	4
477.097	1	10
477.267	1	12
477.438	1	3
477.608	1	-1
477.778	1	12
477.949	1	12
478.119	1	7
478.289	1	5
478.460	1	12
478.630	1	7
478.800	1	9
478.971	1	16
479.141	1	2
479.311	1	7
479.482	1	3
479.652	1	9
479.822	1	6
479.993	1	8
480.163	1	2
480.333	1	14
480.504	1	15
480.674	1	13
480.844	1	8
481.015	1	-3
481.185	1	18
481.355	1	8
481.525	1	18
481.696	1	16
481.866	1	-3
482.036	1	0
482.207	1	1
482.377	1	11
482.547	1	5
482.718	1	14
482.888	1	5
483.058	1	5
483.229	1	13
483.399	1	14
483.569	1	9
483.740	1	11
483.910	1	-8
484.080	1	7
484.250	1	11
484.421	1	13
484.591	1	12
484.761	1	10
484.932	1	10
485.102	1	8
485.272	1	11
485.443	1	11
485.613	1	2
485.783	1	7
485.953	1	2
486.124	1	-6
486.294	1	7
486.464	1	9
486.635	1	15
486.805	1	6
486.975	1	-2
487.146	1	9
487.316	1	18
487.486	1	3
487.656	1	12
487.827	1	6
487.997	1	11
488.167	1	13
488.338	1	-2
488.508	1	14
488.678	1	1
488.848	1	11
489.019	1	12
489.189	1	5
489.359	1	9
489.529	1	-2
489.700	1	-1
489.870	1	3
490.040	1	6
490.211	1	9
490.381	1	2
490.551	1	0
490.721	1	12
490.892	1	12
491.062	1	12
491.232	1	-3
491.402	1	12
491.573	1	-4
491.743	1	5
491.913	1	5
492.084	1	6
492.254	1	21
492.424	1	3
492.594	1	16
492.765	1	7
492.935	1	22
493.105	1	8
493.275	1	6
493.446	1	9
493.616	1	7
493.786	1	9
493.956	1	8
494.127	1	-2
494.297	1	16
494.467	1	15
494.637	1	12
494.808	1	5
494.978	1	1
495.148	1	16
495.318	1	2
495.489	1	6
495.659	1	3
495.829	1	10
495.999	1	10
496.170	1	3
496.340	1	19
496.510	1	-2
496.680	1	15
496.851	1	-4
497.021	1	1
497.191	1	-2
497.361	1	5
497.532	1	5
497.702	1	9
497.872	1	1
498.042	1	8
498.213	1	8
498.383	1	7
498.553	1	0
498.723	1	0
498.894	1	14
499.064	1	5
499.234	1	-8
499.404	1	6
499.574	1	14
499.745	1	6
499.915	1	1
500.085	1	2
500.255	1	8
500.426	1	8
500.596	1	11
500.766	1	3
500.936	1	4
501.106	1	13
501.277	1	5
501.447	1	-4
501.617	1	10
501.787	1	17
501.958	1	5
502.128	1	8
502.298	1	4
502.468	1	5
502.638	1	13
502.809	1	3
502.979	1	-2
503.149	1	12
503.319	1	6
503.489	1	6
503.660	1	1
503.830	1	5
504.000	1	5
504.170	1	-3
504.340	1	9
504.511	1	20
504.681	1	14
504.851	1	14
505.021	1	9
505.192	1	-2
505.362	1	1
505.532	1	-4
505.702	1	-2
505.872	1	8
506.043	1	2
506.213	1	7
506.383	1	11
506.553	1	3
506.723	1	11
506.893	1	10
507.064	1	3
507.234	1	4
507.404	1	11
507.574	1	2
507.744	1	5
507.915	1	-1
508.085	1	-2
508.255	1	10
508.425	1	5
508.595	1	0
508.766	1	-3
508.936	1	11
509.106	1	1
509.276	1	7
509.446	1	9
509.616	1	6
509.787	1	14
509.957	1	-2
510.127	1	-1
510.297	1	6
510.467	1	3
510.638	1	2
510.808	1	-3
510.978	1	6
511.148	1	9
511.318	1	11
511.488	1	12
511.659	1	9
511.829	1	-2
511.999	1	6
512.169	1	0
512.339	1	3
512.509	1	-4
512.680	1	-2
512.850	1	7
513.020	1	12
513.190	1	12
513.360	1	9
513.530	1	3
513.700	1	-5
513.871	1	-2
514.041	1	7
514.211	1	0
514.381	1	10
514.551	1	-6
514.721	1	3
514.892	1	-5
515.062	1	8
515.232	1	9
515.402	1	9
515.572	1	8
515.742	1	13
515.912	1	2
516.083	1	4
516.253	1	6
516.423	1	1
516.593	1	4
516.763	1	17
516.933	1	7
517.104	1	3
517.274	1	13
517.444	1	1
517.614	1	2
517.784	1	9
517.954	1	4
518.124	1	2
518.294	1	-4
518.465	1	12
518.635	1	0
518.805	1	4
518.975	1	-5
519.145	1	4
519.315	1	-5
519.485	1	5
519.656	1	0
519.826	1	2
519.996	1	7
520.166	1	3
520.336	1	-11
520.506	1	6
520.676	1	9
520.846	1	-7
521.017	1	7
521.187	1	0
521.357	1	4
521.527	1	-1
521.697	1	1
521.867	1	0
522.037	1	8
522.207	1	11
522.377	1	5
522.548	1	3
522.718	1	9
522.888	1	12
523.058	1	5
523.228	1	-3
523.398	1	5
523.568	1	12
523.738	1	3
523.909	1	10
524.079	1	2
524.249	1	1
524.419	1	-1
524.589	1	9
524.759	1	-2
524.929	1	4
525.099	1	-9
525.269	1	-1
525.439	1	12
525.610	1	-4
525.780	1	1
525.950	1	18
526.120	1	2
526.290	1	-1
526.460	1	3
526.630	1	2
526.800	1	7
526.970	1	-1
527.140	1	9
527.311	1	15
527.481	1	0
527.651	1	6
527.821	1	-1
527.991	1	-7
528.161	1	-4
528.331	1	9
528.501	1	-1
528.671	1	10
528.841	1	9
529.011	1	1
529.181	1	8
529.352	1	8
529.522	1	-1
529.692	1	2
529.862	1	4
530.032	1	11
530.202	1	2
530.372	1	7
530.542	1	2
530.712	1	13
530.882	1	9
531.052	1	-5
531.222	1	9
531.392	1	-1
531.563	1	5
531.733	1	-7
531.903	1	8
532.073	1	1
532.243	1	6
532.413	1	2
532.583	1	4
532.753	1	7
532.923	1	4
533.093	1	6
533.263	1	1
533.433	1	-13
533.603	1	4
533.773	1	5
533.943	1	2
534.113	1	7
534.284	1	-11
534.454	1	4
534.624	1	15
534.794	1	6
534.964	1	5
535.134	1	8
535.304	1	11
535.474	1	-7
535.644	1	10
535.814	1	3
535.984	1	7
536.154	1	3
536.324	1	2
536.494	1	3
536.664	1	-2
536.834	1	10
537.004	1	-1
537.174	1	2
537.344	1	1
537.514	1	-4
537.685	1	3
537.855	1	0
538.025	1	4
538.195	1	8
538.365	1	13
538.535	1	1
538.705	1	-10
538.875	1	-1
539.045	1	3
539.215	1	11
539.385	1	-10
539.555	1	-6
539.725	1	-9
539.895	1	0
540.065	1	5
540.235	1	3
540.405	1	-4
540.575	1	2
540.745	1	1
540.915	1	-6
541.085	1	3
541.255	1	4
541.425	1	-3
541.595	1	6
541.765	1	11
541.935	1	1
542.105	1	2
542.275	1	2
542.445	1	3
542.615	1	-5
542.785	1	-1
542.955	1	-7
543.125	1	-8
543.295	1	6
543.465	1	1
543.635	1	-1
543.805	1	-7
543.975	1	-3
544.145	1	5
544.315	1	-3
544.485	1	1
544.655	1	-1
544.825	1	-2
544.995	1	20
545.165	1	4
545.335	1	-4
545.505	1	4
545.675	1	-6
545.845	1	7
546.015	1	-1
546.185	1	7
546.355	1	4
546.525	1	-6
546.695	1	-3
546.865	1	13
547.035	1	0
547.205	1	15
547.375	1	7
547.545	1	-4
547.715	1	-4
547.885	1	-11
548.055	1	2
548.225	1	-4
548.395	1	-5
548.565	1	19
548.735	1	-1
548.905	1	7
549.075	1	11
549.245	1	1
549.415	1	4
549.585	1	-5
549.755	1	8
549.925	1	10
550.095	1	-14
550.265	1	9
550.435	1	-1
550.605	1	4
550.775	1	7
550.945	1	2
551.115	1	4
551.285	1	-4
551.455	1	4
551.625	1	3
551.795	1	1
551.965	1	0
552.135	1	3
552.305	1	5
552.475	1	-2
552.645	1	2
552.815	1	10
552.985	1	-1
553.155	1	2
553.325	1	-8
553.495	1	1
553.665	1	-7
553.835	1	5
554.004	1	3
554.174	1	4
554.344	1	7
554.514	1	2
554.684	1	-4
554.854	1	-4
555.024	1	2
555.194	1	4
555.364	1	12
555.534	1	-9
555.704	1	8
555.874	1	-5
556.044	1	7
556.214	1	12
556.384	1	8
556.554	1	-4
556.724	1	2
556.894	1	-2
557.064	1	11
557.234	1	-2
557.404	1	-1
557.573	1	1
557.743	1	7
557.913	1	14
558.083	1	2
558.253	1	0
558.423	1	2
558.593	1	-7
558.763	1	7
558.933	1	-5
559.103	1	10
559.273	1	-5
559.443	1	-4
559.613	1	-4
559.783	1	0
559.953	1	9
560.122	1	7
560.292	1	7
560.462	1	-2
560.632	1	-3
560.802	1	-1
560.972	1	-5
561.142	1	-5
561.312	1	-2
561.482	1	-3
561.652	1	-2
561.822	1	-2
561.992	1	-7
562.162	1	10
562.331	1	11
562.501	1	-3
562.671	1	2
562.841	1	-12
563.011	1	2
563.181	1	3
563.351	1	4
563.521	1	3
563.691	1	6
563.861	1	0
564.031	1	-9
564.201	1	11
564.370	1	-7
564.540	1	-3
564.710	1	7
564.880	1	-2
565.050	1	3
565.220	1	-6
565.390	1	6
565.560	1	4
565.730	1	-1
565.900	1	5
566.069	1	2
566.239	1	1
566.409	1	-12
566.579	1	11
566.749	1	-7
566.919	1	-2
567.089	1	2
567.259	1	3
567.429	1	0
567.599	1	11
567.768	1	-3
567.938	1	-15
568.108	1	-2
568.278	1	10
568.448	1	3
568.618	1	-4
568.788	1	5
568.958	1	-7
569.128	1	2
569.297	1	-10
569.467	1	-1
569.637	1	1
569.807	1	3
569.977	1	-11
570.147	1	2
570.317	1	-2
570.487	1	-2
570.656	1	-9
570.826	1	2
570.996	1	-11
571.166	1	14
571.336	1	-5
571.506	1	4
571.676	1	16
571.846	1	8
572.015	1	-4
572.185	1	8
572.355	1	2
572.525	1	-6
572.695	1	2
572.865	1	-6
573.035	1	11
573.205	1	6
573.374	1	3
573.544	1	5
573.714	1	-1
573.884	1	7
574.054	1	-1
574.224	1	-2
574.394	1	-2
574.563	1	6
574.733	1	1
574.903	1	11
575.073	1	5
575.243	1	-6
575.413	1	-6
575.583	1	8
575.752	1	-9
575.922	1	6
576.092	1	-2
576.262	1	5
576.432	1	6
576.602	1	-6
576.772	1	-5
576.941	1	-9
577.111	1	-9
577.281	1	-3
577.451	1	4
577.621	1	4
577.791	1	4
577.960	1	-9
578.130	1	-8
578.300	1	-15
578.470	1	-1
578.640	1	0
578.810	1	-5
578.979	1	-5
579.149	1	5
579.319	1	-1
579.489	1	-10
579.659	1	-8
579.829	1	1
579.998	1	0
580.168	1	7
580.338	1	7
580.508	1	8
580.678	1	0
580.848	1	-3
581.017	1	5
581.187	1	5
581.357	1	-1
581.527	1	2
581.697	1	-2
581.867	1	-3
582.036	1	-9
582.206	1	12
582.376	1	12
582.546	1	-7
582.716	1	-2
582.885	1	-9
583.055	1	2
583.225	1	-8
583.395	1	12
583.565	1	8
583.735	1	0
583.904	1	0
584.074	1	-11
584.244	1	-4
584.414	1	0
584.584	1	-2
584.753	1	8
584.923	1	5
585.093	1	8
585.263	1	-2
585.433	1	2
585.602	1	5
585.772	1	3
585.942	1	5
586.112	1	-5
586.282	1	5
586.451	1	6
586.621	1	11
586.791	1	3
586.961	1	-1
587.131	1	3
587.300	1	5
587.470	1	-4
587.640	1	5
587.810	1	16
587.980	1	2
588.149	1	9
588.319	1	11
588.489	1	9
588.659	1	-6
588.829	1	8
588.998	1	4
589.168	1	2
589.338	1	4
589.508	1	7
589.677	1	4
589.847	1	0
590.017	1	4
590.187	1	9
590.357	1	4
590.526	1	1
590.696	1	-4
590.866	1	5
591.036	1	14
591.205	1	2
591.375	1	0
591.545	1	6
591.715	1	-4
591.885	1	1
592.054	1	-2
592.224	1	0
592.394	1	-1
592.564	1	1
592.733	1	-5
592.903	1	1
593.073	1	-1
593.243	1	8
593.412	1	-1
593.582	1	2
593.752	1	-1
593.922	1	7
594.091	1	-8
594.261	1	-14
594.431	1	5
594.601	1	3
594.771	1	9
594.940	1	1
595.110	1	9
595.280	1	-6
595.450	1	7
595.619	1	5
595.789	1	7
595.959	1	3
596.129	1	-1
596.298	1	5
596.468	1	-4
596.638	1	3
596.808	1	7
596.977	1	1
597.147	1	-6
597.317	1	-2
597.487	1	-4
597.656	1	0
597.826	1	5
597.996	1	0
598.166	1	16
598.335	1	6
598.505	1	-2
598.675	1	-6
598.844	1	1
599.014	1	8
599.184	1	-8
599.354	1	12
599.523	1	1
599.693	1	15
599.863	1	4
600.033	1	1
600.202	1	0
600.372	1	-7
600.542	1	-6
600.712	1	2
600.881	1	-4
601.051	1	-1
601.221	1	3
601.390	1	-10
601.560	1	-1
601.730	1	2
601.900	1	10
602.069	1	2
602.239	1	8
602.409	1	-1
602.578	1	2
602.748	1	2
602.918	1	6
603.088	1	14
603.257	1	4
603.427	1	0
603.597	1	4
603.767	1	2
603.936	1	-3
604.106	1	2
604.276	1	13
604.445	1	5
604.615	1	0
604.785	1	9
604.954	1	14
605.124	1	4
605.294	1	7
605.464	1	6
605.633	1	5
605.803	1	5
605.973	1	10
606.142	1	15
606.312	1	-12
606.482	1	10
606.652	1	2
606.821	1	0
606.991	1	2
607.161	1	4
607.330	1	-3
607.500	1	12
607.670	1	6
607.839	1	7
608.009	1	-6
608.179	1	5
608.348	1	10
608.518	1	-3
608.688	1	9
608.858	1	4
609.027	1	7
609.197	1	-5
609.367	1	13
609.536	1	3
609.706	1	9
609.876	1	6
610.045	1	3
610.215	1	8
610.385	1	0
610.554	1	0
610.724	1	-6
610.894	1	6
611.063	1	3
611.233	1	6
611.403	1	5
611.572	1	5
611.742	1	7
611.912	1	2
612.081	1	5
612.251	1	12
612.421	1	10
612.590	1	0
612.760	1	7
612.930	1	-4
613.099	1	6
613.269	1	-6
613.439	1	1
613.608	1	7
613.778	1	3
613.948	1	8
614.117	1	18
614.287	1	-2
614.457	1	-9
614.626	1	7
614.796	1	-1
614.966	1	2
615.135	1	-2
615.305	1	12
615.475	1	2
615.644	1	2
615.814	1	-4
615.984	1	1
616.153	1	1
616.323	1	8
616.493	1	12
616.662	1	5
616.832	1	4
617.002	1	1
617.171	1	-14
617.341	1	4
617.511	1	8
617.680	1	8
617.850	1	3
618.019	1	-4
618.189	1	5
618.359	1	-2
618.528	1	8
618.698	1	14
618.868	1	-1
619.037	1	13
619.207	1	8
619.377	1	8
619.546	1	-4
619.716	1	14
619.885	1	5
620.055	1	4
620.225	1	17
620.394	1	5
620.564	1	14
620.734	1	10
620.903	1	5
621.073	1	-11
621.242	1	7
621.412	1	5
621.582	1	1
621.751	1	10
621.921	1	7
622.091	1	5
622.260	1	-1
622.430	1	0
622.599	1	0
622.769	1	6
622.939	1	8
623.108	1	6
623.278	1	13
623.448	1	2
623.617	1	1
623.787	1	8
623.956	1	5
624.126	1	17
624.296	1	4
624.465	1	10
624.635	1	3
624.804	1	-8
624.974	1	9
625.144	1	3
625.313	1	1
625.483	1	15
625.652	1	10
625.822	1	-1
625.992	1	9
626.161	1	9
626.331	1	4
626.501	1	2
626.670	1	10
626.840	1	14
627.009	1	6
627.179	1	7
627.348	1	14
627.518	1	16
627.688	1	8
627.857	1	12
628.027	1	1
628.196	1	9
628.366	1	3
628.536	1	4
628.705	1	-3
628.875	1	14
629.044	1	9
629.214	1	2
629.384	1	8
629.553	1	13
629.723	1	-5
629.892	1	19
630.062	1	4
630.232	1	10
630.401	1	16
630.571	1	6
630.740	1	12
630.910	1	3
631.079	1	-3
631.249	1	-2
631.419	1	3
631.588	1	6
631.758	1	14
631.927	1	9
632.097	1	6
632.266	1	15
632.436	1	1
632.606	1	1
632.775	1	16
632.945	1	13
633.114	1	1
633.284	1	3
633.453	1	1
633.623	1	10
633.793	1	-2
633.962	1	5
634.132	1	5
634.301	1	11
634.471	1	0
634.640	1	4
634.810	1	7
634.979	1	3
635.149	1	8
635.319	1	1
635.488	1	10
635.658	1	4
635.827	1	9
635.997	1	11
636.166	1	2
636.336	1	15
636.505	1	9
636.675	1	10
636.845	1	8
637.014	1	7
637.184	1	7
637.353	1	8
637.523	1	7
637.692	1	9
637.862	1	2
638.031	1	12
638.201	1	9
638.370	1	-1
638.540	1	-2
638.710	1	12
638.879	1	3
639.049	1	5
639.218	1	2
639.388	1	8
639.557	1	-1
639.727	1	8
639.896	1	3
640.066	1	8
640.235	1	10
640.405	1	3
640.574	1	9
640.744	1	12
640.914	1	8
641.083	1	9
641.253	1	20
641.422	1	10
641.592	1	-2
641.761	1	9
641.931	1	3
642.100	1	8
642.270	1	-3
642.439	1	5
642.609	1	13
642.778	1	5
642.948	1	5
643.117	1	19
643.287	1	7
643.456	1	9
643.626	1	17
643.795	1	2
643.965	1	11
644.134	1	3
644.304	1	9
644.473	1	10
644.643	1	-4
644.812	1	13
644.982	1	4
645.151	1	11
645.321	1	1
645.490	1	8
645.660	1	0
645.829	1	6
645.999	1	10
646.168	1	3
646.338	1	5
646.507	1	18
646.677	1	8
646.846	1	12
647.016	1	9
647.185	1	-1
647.355	1	12
647.524	1	6
647.694	1	3
647.863	1	-2
648.033	1	3
648.202	1	3
648.372	1	14
648.541	1	5
648.711	1	7
648.880	1	12
649.050	1	3
649.219	1	0
649.389	1	8
649.558	1	4
649.728	1	2
649.897	1	9
650.067	1	5
650.236	1	7
650.406	1	1
650.575	1	8
650.745	1	9
650.914	1	5
651.084	1	1
651.253	1	12
651.423	1	8
651.592	1	9
651.762	1	10
651.931	1	14
652.101	1	3
652.270	1	16
652.440	1	5
652.609	1	8
652.778	1	2
652.948	1	7
653.117	1	-1
653.287	1	13
653.456	1	7
653.626	1	-2
653.795	1	18
653.965	1	2
654.134	1	3
654.304	1	10
654.473	1	6
654.643	1	7
654.812	1	-1
654.982	1	1
655.151	1	6
655.320	1	5
655.490	1	2
655.659	1	-4
655.829	1	12
655.998	1	-3
656.168	1	7
656.337	1	11
656.507	1	4
656.676	1	9
656.846	1	8
657.015	1	-1
657.184	1	3
657.354	1	12
657.523	1	6
657.693	1	5
657.862	1	5
658.032	1	9
658.201	1	6
658.371	1	2
658.540	1	0
658.709	1	4
658.879	1	-10
659.048	1	-1
659.218	1	-4
659.387	1	5
659.557	1	7
659.726	1	3
659.895	1	9
660.065	1	-1
660.234	1	4
660.404	1	11
660.573	1	9
660.743	1	9
660.912	1	9
661.081	1	22
661.251	1	2
661.420	1	4
661.590	1	-4
661.759	1	1
661.929	1	0
662.098	1	6
662.267	1	9
662.437	1	7
662.606	1	7
662.776	1	3
662.945	1	0
663.115	1	15
663.284	1	9
663.453	1	-2
663.623	1	15
663.792	1	7
663.962	1	9
664.131	1	3
664.300	1	11
664.470	1	5
664.639	1	3
664.809	1	2
664.978	1	9
665.148	1	14
665.317	1	5
665.486	1	6
665.656	1	3
665.825	1	11
665.995	1	8
666.164	1	-2
666.333	1	9
666.503	1	8
666.672	1	10
666.842	1	6
667.011	1	10
667.180	1	7
667.350	1	7
667.519	1	10
667.689	1	-5
667.858	1	5
668.027	1	16
668.197	1	0
668.366	1	3
668.536	1	12
668.705	1	1
668.874	1	9
669.044	1	-2
669.213	1	4
669.382	1	6
669.552	1	9
669.721	1	6
669.891	1	1
670.060	1	18
670.229	1	3
670.399	1	5
670.568	1	-3
670.738	1	-6
670.907	1	7
671.076	1	3
671.246	1	18
671.415	1	5
671.584	1	-4
671.754	1	-4
671.923	1	8
672.093	1	12
672.262	1	4
672.431	1	-1
672.601	1	11
672.770	1	3
672.939	1	3
673.109	1	-1
673.278	1	19
673.448	1	-11
673.617	1	-11
673.786	1	5
