325.333	1	13
325.504	1	12
325.675	1	12
325.846	1	22
326.017	1	19
326.188	1	15
326.359	1	7
326.531	1	16
326.702	1	3
326.873	1	8
327.044	1	16
327.215	1	11
327.386	1	9
327.557	1	10
327.728	1	7
327.899	1	19
328.070	1	12
328.241	1	23
328.412	1	11
328.583	1	13
328.754	1	7
328.926	1	16
329.097	1	5
329.268	1	6
329.439	1	13
329.610	1	17
329.781	1	9
329.952	1	19
330.123	1	17
330.294	1	1
330.465	1	12
330.636	1	16
330.807	1	10
330.978	1	4
331.149	1	13
331.320	1	15
331.492	1	13
331.663	1	15
331.834	1	10
332.005	1	15
332.176	1	-3
332.347	1	19
332.518	1	6
332.689	1	8
332.860	1	11
333.031	1	4
333.202	1	2
333.373	1	15
333.544	1	8
333.715	1	16
333.886	1	4
334.057	1	14
334.228	1	14
334.399	1	17
334.570	1	15
334.741	1	11
334.912	1	19
335.084	1	4
335.255	1	17
335.426	1	5
335.597	1	14
335.768	1	15
335.939	1	11
336.110	1	13
336.281	1	17
336.452	1	21
336.623	1	10
336.794	1	19
336.965	1	12
337.136	1	9
337.307	1	12
337.478	1	14
337.649	1	20
337.820	1	11
337.991	1	13
338.162	1	19
338.333	1	12
338.504	1	24
338.675	1	20
338.846	1	12
339.017	1	18
339.188	1	14
339.359	1	18
339.530	1	22
339.701	1	7
339.872	1	18
340.043	1	9
340.214	1	10
340.385	1	12
340.556	1	15
340.727	1	13
340.898	1	24
341.069	1	18
341.240	1	13
341.411	1	11
341.582	1	15
341.753	1	1
341.924	1	5
342.095	1	14
342.266	1	17
342.437	1	16
342.608	1	24
342.779	1	7
342.950	1	11
343.121	1	12
343.292	1	8
343.463	1	12
343.634	1	10
343.805	1	8
343.976	1	13
344.147	1	14
344.318	1	10
344.489	1	22
344.660	1	16
344.831	1	19
345.002	1	13
345.173	1	3
345.344	1	13
345.515	1	9
345.686	1	24
345.857	1	14
346.028	1	17
346.199	1	13
346.370	1	7
346.541	1	6
346.712	1	10
346.883	1	17
347.054	1	9
347.225	1	15
347.396	1	0
347.567	1	26
347.738	1	14
347.909	1	13
348.080	1	8
348.251	1	13
348.422	1	9
348.593	1	7
348.764	1	10
348.935	1	13
349.106	1	18
349.277	1	9
349.448	1	12
349.619	1	12
349.790	1	27
349.961	1	11
350.132	1	24
350.303	1	12
350.474	1	9
350.645	1	12
350.816	1	6
350.987	1	16
351.157	1	18
351.328	1	17
351.499	1	12
351.670	1	18
351.841	1	22
352.012	1	11
352.183	1	0
352.354	1	8
352.525	1	13
352.696	1	26
352.867	1	17
353.038	1	13
353.209	1	17
353.380	1	6
353.551	1	4
353.722	1	16
353.893	1	-2
354.064	1	13
354.235	1	17
354.406	1	28
354.576	1	15
354.747	1	14
354.918	1	21
355.089	1	21
355.260	1	25
355.431	1	8
355.602	1	25
355.773	1	10
355.944	1	7
356.115	1	21
356.286	1	18
356.457	1	11
356.628	1	8
356.799	1	5
356.970	1	19
357.141	1	9
357.311	1	14
357.482	1	15
357.653	1	18
357.824	1	12
357.995	1	6
358.166	1	10
358.337	1	14
358.508	1	15
358.679	1	18
358.850	1	10
359.021	1	20
359.192	1	23
359.363	1	24
359.533	1	7
359.704	1	21
359.875	1	18
360.046	1	14
360.217	1	23
360.388	1	11
360.559	1	10
360.730	1	12
360.901	1	6
361.072	1	16
361.243	1	12
361.414	1	13
361.584	1	8
361.755	1	5
361.926	1	10
362.097	1	16
362.268	1	12
362.439	1	14
362.610	1	13
362.781	1	13
362.952	1	16
363.123	1	21
363.293	1	10
363.464	1	13
363.635	1	25
363.806	1	9
363.977	1	15
364.148	1	14
364.319	1	13
364.490	1	9
364.661	1	16
364.832	1	16
365.002	1	24
365.173	1	5
365.344	1	12
365.515	1	4
365.686	1	2
365.857	1	11
366.028	1	13
366.199	1	7
366.370	1	19
366.540	1	14
366.711	1	10
366.882	1	6
367.053	1	7
367.224	1	23
367.395	1	12
367.566	1	10
367.737	1	17
367.908	1	13
368.078	1	24
368.249	1	14
368.420	1	13
368.591	1	10
368.762	1	7
368.933	1	5
369.104	1	24
369.274	1	5
369.445	1	19
369.616	1	25
369.787	1	25
369.958	1	7
370.129	1	3
370.300	1	20
370.471	1	12
370.641	1	6
370.812	1	15
370.983	1	1
371.154	1	20
371.325	1	12
371.496	1	12
371.667	1	11
371.837	1	28
372.008	1	5
372.179	1	10
372.350	1	1
372.521	1	15
372.692	1	15
372.863	1	14
373.033	1	16
373.204	1	7
373.375	1	14
373.546	1	17
373.717	1	16
373.888	1	14
374.059	1	15
374.229	1	7
374.400	1	10
374.571	1	11
374.742	1	22
374.913	1	13
375.084	1	27
375.254	1	13
375.425	1	17
375.596	1	11
375.767	1	14
375.938	1	11
376.109	1	23
376.279	1	5
376.450	1	13
376.621	1	4
376.792	1	14
376.963	1	14
377.134	1	10
377.304	1	18
377.475	1	12
377.646	1	22
377.817	1	6
377.988	1	20
378.159	1	19
378.329	1	14
378.500	1	13
378.671	1	19
378.842	1	7
379.013	1	18
379.184	1	9
379.354	1	9
379.525	1	7
379.696	1	20
379.867	1	14
380.038	1	18
380.209	1	23
380.379	1	18
380.550	1	26
380.721	1	4
380.892	1	12
381.063	1	15
381.233	1	12
381.404	1	16
381.575	1	19
381.746	1	32
381.917	1	16
382.087	1	26
382.258	1	32
382.429	1	15
382.600	1	14
382.771	1	11
382.941	1	27
383.112	1	13
383.283	1	22
383.454	1	14
383.625	1	2
383.795	1	20
383.966	1	12
384.137	1	23
384.308	1	22
384.479	1	1
384.649	1	17
384.820	1	19
384.991	1	8
385.162	1	18
385.333	1	17
385.503	1	8
385.674	1	1
385.845	1	24
386.016	1	24
386.187	1	22
386.357	1	14
386.528	1	10
386.699	1	24
386.870	1	5
387.041	1	28
387.211	1	7
387.382	1	11
387.553	1	19
387.724	1	33
387.894	1	16
388.065	1	24
388.236	1	22
388.407	1	22
388.578	1	27
388.748	1	9
388.919	1	9
389.090	1	39
389.261	1	21
389.431	1	23
389.602	1	21
389.773	1	19
389.944	1	24
390.114	1	25
390.285	1	11
390.456	1	5
390.627	1	17
390.798	1	17
390.968	1	26
391.139	1	24
391.310	1	30
391.481	1	16
391.651	1	30
391.822	1	29
391.993	1	20
392.164	1	26
392.334	1	2
392.505	1	24
392.676	1	31
392.847	1	27
393.017	1	31
393.188	1	23
393.359	1	15
393.530	1	34
393.700	1	3
393.871	1	16
394.042	1	28
394.213	1	20
394.383	1	9
394.554	1	33
394.725	1	26
394.896	1	27
395.066	1	25
395.237	1	23
395.408	1	29
395.579	1	17
395.749	1	18
395.920	1	18
396.091	1	27
396.262	1	15
396.432	1	27
396.603	1	25
396.774	1	12
396.945	1	26
397.115	1	18
397.286	1	22
397.457	1	21
397.627	1	16
397.798	1	18
397.969	1	30
398.140	1	19
398.310	1	11
398.481	1	23
398.652	1	13
398.823	1	33
398.993	1	31
399.164	1	22
399.335	1	37
399.505	1	27
399.676	1	11
399.847	1	32
400.018	1	32
400.188	1	16
400.359	1	21
400.530	1	15
400.700	1	22
400.871	1	12
401.042	1	23
401.213	1	15
401.383	1	18
401.554	1	26
401.725	1	28
401.895	1	18
402.066	1	20
402.237	1	32
402.408	1	33
402.578	1	27
402.749	1	15
402.920	1	21
403.090	1	20
403.261	1	23
403.432	1	29
403.603	1	19
403.773	1	25
403.944	1	29
404.115	1	20
404.285	1	26
404.456	1	25
404.627	1	20
404.797	1	19
404.968	1	34
405.139	1	22
405.310	1	30
405.480	1	37
405.651	1	15
405.822	1	23
405.992	1	18
406.163	1	36
406.334	1	28
406.504	1	31
406.675	1	50
406.846	1	26
407.016	1	39
407.187	1	34
407.358	1	28
407.528	1	31
407.699	1	19
407.870	1	25
408.041	1	35
408.211	1	15
408.382	1	31
408.553	1	35
408.723	1	35
408.894	1	20
409.065	1	17
409.235	1	36
409.406	1	20
409.577	1	19
409.747	1	28
409.918	1	22
410.089	1	30
410.259	1	30
410.430	1	22
410.601	1	25
410.771	1	30
410.942	1	29
411.113	1	22
411.283	1	31
411.454	1	43
411.625	1	26
411.795	1	32
411.966	1	42
412.137	1	25
412.307	1	32
412.478	1	26
412.649	1	25
412.819	1	31
412.990	1	18
413.161	1	38
413.331	1	37
413.502	1	32
413.672	1	32
413.843	1	29
414.014	1	36
414.184	1	39
414.355	1	41
414.526	1	34
414.696	1	30
414.867	1	32
415.038	1	21
415.208	1	38
415.379	1	36
415.550	1	40
415.720	1	25
415.891	1	41
416.062	1	30
416.232	1	23
416.403	1	33
416.573	1	36
416.744	1	34
416.915	1	48
417.085	1	38
417.256	1	31
417.427	1	25
417.597	1	39
417.768	1	34
417.939	1	35
418.109	1	23
418.280	1	22
418.450	1	30
418.621	1	27
418.792	1	32
418.962	1	25
419.133	1	27
419.304	1	36
419.474	1	36
419.645	1	34
419.815	1	26
419.986	1	37
420.157	1	32
420.327	1	28
420.498	1	25
420.669	1	35
420.839	1	28
421.010	1	21
421.180	1	34
421.351	1	34
421.522	1	19
421.692	1	35
421.863	1	35
422.033	1	18
422.204	1	37
422.375	1	21
422.545	1	34
422.716	1	33
422.886	1	12
423.057	1	34
423.228	1	19
423.398	1	30
423.569	1	30
423.740	1	27
423.910	1	23
424.081	1	33
424.251	1	22
424.422	1	23
424.593	1	36
424.763	1	36
424.934	1	35
425.104	1	43
425.275	1	39
425.445	1	26
425.616	1	35
425.787	1	32
425.957	1	26
426.128	1	40
426.298	1	46
426.469	1	28
426.640	1	25
426.810	1	48
426.981	1	38
427.151	1	26
427.322	1	34
427.493	1	40
427.663	1	33
427.834	1	29
428.004	1	27
428.175	1	27
428.345	1	32
428.516	1	30
428.687	1	26
428.857	1	34
429.028	1	25
429.198	1	30
429.369	1	25
429.540	1	28
429.710	1	24
429.881	1	26
430.051	1	45
430.222	1	32
430.392	1	26
430.563	1	39
430.734	1	35
430.904	1	28
431.075	1	31
431.245	1	38
431.416	1	35
431.586	1	24
431.757	1	28
431.927	1	45
432.098	1	23
432.269	1	36
432.439	1	34
432.610	1	35
432.780	1	30
432.951	1	30
433.121	1	30
433.292	1	27
433.462	1	31
433.633	1	13
433.804	1	28
433.974	1	30
434.145	1	24
434.315	1	33
434.486	1	45
434.656	1	34
434.827	1	24
434.997	1	19
435.168	1	22
435.339	1	24
435.509	1	23
435.680	1	20
435.850	1	29
436.021	1	42
436.191	1	24
436.362	1	37
436.532	1	30
436.703	1	25
436.873	1	25
437.044	1	17
437.214	1	27
437.385	1	35
437.556	1	28
437.726	1	31
437.897	1	28
438.067	1	26
438.238	1	29
438.408	1	27
438.579	1	37
438.749	1	28
438.920	1	35
439.090	1	29
439.261	1	35
439.431	1	34
439.602	1	30
439.772	1	33
439.943	1	32
440.113	1	44
440.284	1	28
440.455	1	29
440.625	1	37
440.796	1	34
440.966	1	34
441.137	1	13
441.307	1	30
441.478	1	36
441.648	1	17
441.819	1	28
441.989	1	27
442.160	1	14
442.330	1	34
442.501	1	25
442.671	1	24
442.842	1	32
443.012	1	16
443.183	1	18
443.353	1	22
443.524	1	8
443.694	1	26
443.865	1	29
444.035	1	24
444.206	1	24
444.376	1	20
444.547	1	31
444.717	1	18
444.888	1	27
445.058	1	29
445.229	1	20
445.399	1	26
445.570	1	22
445.740	1	17
445.911	1	41
446.081	1	31
446.252	1	24
446.422	1	24
446.593	1	14
446.763	1	14
446.934	1	28
447.104	1	29
447.275	1	25
447.445	1	17
447.616	1	40
447.786	1	28
447.957	1	20
448.127	1	29
448.298	1	23
448.468	1	19
448.639	1	27
448.809	1	30
448.979	1	23
449.150	1	24
449.320	1	22
449.491	1	28
449.661	1	29
449.832	1	26
450.002	1	25
450.173	1	24
450.343	1	27
450.514	1	29
450.684	1	41
450.855	1	33
451.025	1	16
451.196	1	26
451.366	1	43
451.537	1	23
451.707	1	36
451.878	1	22
452.048	1	16
452.218	1	21
452.389	1	27
452.559	1	14
452.730	1	16
452.900	1	28
453.071	1	22
453.241	1	27
453.412	1	32
453.582	1	13
453.753	1	21
453.923	1	26
454.093	1	26
454.264	1	21
454.434	1	23
454.605	1	35
454.775	1	26
454.946	1	32
455.116	1	26
455.287	1	21
455.457	1	21
455.628	1	24
455.798	1	20
455.968	1	28
456.139	1	9
456.309	1	17
456.480	1	26
456.650	1	45
456.821	1	25
456.991	1	20
457.161	1	31
457.332	1	22
457.502	1	21
457.673	1	13
457.843	1	20
458.014	1	17
458.184	1	19
458.355	1	15
458.525	1	22
458.695	1	14
458.866	1	26
459.036	1	17
459.207	1	20
459.377	1	29
459.548	1	17
459.718	1	18
459.888	1	35
460.059	1	17
460.229	1	14
460.400	1	25
460.570	1	30
460.740	1	15
460.911	1	17
461.081	1	22
461.252	1	33
461.422	1	17
461.593	1	3
461.763	1	24
461.933	1	20
462.104	1	18
462.274	1	22
462.445	1	9
462.615	1	20
462.785	1	7
462.956	1	27
463.126	1	8
463.297	1	32
463.467	1	29
463.638	1	14
463.808	1	19
463.978	1	17
464.149	1	28
464.319	1	11
464.490	1	15
464.660	1	12
464.830	1	10
465.001	1	36
465.171	1	16
465.342	1	19
465.512	1	27
465.682	1	20
465.853	1	16
466.023	1	22
466.194	1	22
466.364	1	22
466.534	1	11
466.705	1	24
466.875	1	18
467.045	1	12
467.216	1	14
467.386	1	16
467.557	1	12
467.727	1	18
467.897	1	9
468.068	1	14
468.238	1	15
468.409	1	11
468.579	1	13
468.749	1	23
468.920	1	18
469.090	1	24
469.260	1	7
469.431	1	15
469.601	1	19
469.772	1	7
469.942	1	21
470.112	1	25
470.283	1	26
470.453	1	21
470.623	1	22
470.794	1	16
470.964	1	8
471.135	1	18
471.305	1	27
471.475	1	12
471.646	1	13
471.816	1	11
471.986	1	22
472.157	1	15
472.327	1	12
472.497	1	5
472.668	1	10
472.838	1	20
473.009	1	40
473.179	1	19
473.349	1	19
473.520	1	15
473.690	1	13
473.860	1	12
474.031	1	17
474.201	1	8
474.371	1	16
474.542	1	20
474.712	1	13
474.882	1	20
475.053	1	23
475.223	1	15
475.394	1	19
475.564	1	14
475.734	1	10
475.905	1	14
476.075	1	11
476.245	1	21
476.416	1	13
476.586	1	22
476.756	1	22
476.927	1	15
477.097	1	12
477.267	1	17
477.438	1	3
477.608	1	8
477.778	1	16
477.949	1	18
478.119	1	22
478.289	1	22
478.460	1	18
478.630	1	13
478.800	1	5
478.971	1	20
479.141	1	11
479.311	1	21
479.482	1	11
479.652	1	9
479.822	1	7
479.993	1	17
480.163	1	7
480.333	1	18
480.504	1	12
480.674	1	13
480.844	1	13
481.015	1	9
481.185	1	14
481.355	1	10
481.525	1	13
481.696	1	16
481.866	1	9
482.036	1	7
482.207	1	13
482.377	1	8
482.547	1	8
482.718	1	17
482.888	1	5
483.058	1	18
483.229	1	11
483.399	1	10
483.569	1	9
483.740	1	10
483.910	1	9
484.080	1	11
484.250	1	19
484.421	1	21
484.591	1	13
484.761	1	16
484.932	1	17
485.102	1	16
485.272	1	18
485.443	1	16
485.613	1	17
485.783	1	15
485.953	1	2
486.124	1	-1
486.294	1	24
486.464	1	11
486.635	1	11
486.805	1	8
486.975	1	7
487.146	1	12
487.316	1	23
487.486	1	5
487.656	1	7
487.827	1	17
487.997	1	8
488.167	1	13
488.338	1	12
488.508	1	11
488.678	1	12
488.848	1	11
489.019	1	8
489.189	1	14
489.359	1	5
489.529	1	7
489.700	1	15
489.870	1	14
490.040	1	6
490.211	1	16
490.381	1	8
490.551	1	5
490.721	1	4
490.892	1	18
491.062	1	15
491.232	1	3
491.402	1	12
491.573	1	18
491.743	1	6
491.913	1	7
492.084	1	5
492.254	1	12
492.424	1	6
492.594	1	5
492.765	1	13
492.935	1	20
493.105	1	6
493.275	1	2
493.446	1	16
493.616	1	5
493.786	1	13
493.956	1	4
494.127	1	9
494.297	1	6
494.467	1	18
494.637	1	18
494.808	1	10
494.978	1	10
495.148	1	14
495.318	1	0
495.489	1	5
495.659	1	20
495.829	1	15
495.999	1	8
496.170	1	2
496.340	1	18
496.510	1	4
496.680	1	11
496.851	1	6
497.021	1	10
497.191	1	5
497.361	1	10
497.532	1	1
497.702	1	9
497.872	1	-1
498.042	1	20
498.213	1	5
498.383	1	15
498.553	1	4
498.723	1	1
498.894	1	5
499.064	1	15
499.234	1	1
499.404	1	8
499.574	1	13
499.745	1	10
499.915	1	7
500.085	1	5
500.255	1	13
500.426	1	12
500.596	1	12
500.766	1	9
500.936	1	13
501.106	1	12
501.277	1	21
501.447	1	17
501.617	1	10
501.787	1	14
501.958	1	14
502.128	1	23
502.298	1	14
502.468	1	8
502.638	1	10
502.809	1	11
502.979	1	5
503.149	1	17
503.319	1	-2
503.489	1	3
503.660	1	4
503.830	1	9
504.000	1	9
504.170	1	1
504.340	1	1
504.511	1	8
504.681	1	19
504.851	1	17
505.021	1	12
505.192	1	4
505.362	1	4
505.532	1	-1
505.702	1	0
505.872	1	11
506.043	1	11
506.213	1	13
506.383	1	13
506.553	1	10
506.723	1	8
506.893	1	9
507.064	1	5
507.234	1	7
507.404	1	11
507.574	1	8
507.744	1	1
507.915	1	7
508.085	1	-5
508.255	1	16
508.425	1	3
508.595	1	2
508.766	1	1
508.936	1	10
509.106	1	-1
509.276	1	11
509.446	1	10
509.616	1	1
509.787	1	7
509.957	1	9
510.127	1	9
510.297	1	11
510.467	1	8
510.638	1	7
510.808	1	2
510.978	1	11
511.148	1	8
511.318	1	9
511.488	1	16
511.659	1	21
511.829	1	12
511.999	1	6
512.169	1	2
512.339	1	4
512.509	1	0
512.680	1	2
512.850	1	-1
513.020	1	13
513.190	1	9
513.360	1	-2
513.530	1	10
513.700	1	0
513.871	1	14
514.041	1	9
514.211	1	5
514.381	1	15
514.551	1	0
514.721	1	14
514.892	1	9
515.062	1	19
515.232	1	12
515.402	1	12
515.572	1	13
515.742	1	12
515.912	1	7
516.083	1	3
516.253	1	14
516.423	1	2
516.593	1	5
516.763	1	17
516.933	1	16
517.104	1	4
517.274	1	1
517.444	1	4
517.614	1	8
517.784	1	0
517.954	1	13
518.124	1	11
518.294	1	11
518.465	1	18
518.635	1	9
518.805	1	4
518.975	1	0
519.145	1	8
519.315	1	9
519.485	1	5
519.656	1	5
519.826	1	7
519.996	1	9
520.166	1	6
520.336	1	3
520.506	1	12
520.676	1	15
520.846	1	-2
521.017	1	5
521.187	1	7
521.357	1	11
521.527	1	6
521.697	1	14
521.867	1	4
522.037	1	1
522.207	1	10
522.377	1	19
522.548	1	7
522.718	1	5
522.888	1	15
523.058	1	2
523.228	1	-2
523.398	1	13
523.568	1	5
523.738	1	0
523.909	1	10
524.079	1	8
524.249	1	-5
524.419	1	3
524.589	1	5
524.759	1	12
524.929	1	8
525.099	1	-12
525.269	1	-5
525.439	1	6
525.610	1	-3
525.780	1	-1
525.950	1	7
526.120	1	2
526.290	1	7
526.460	1	10
526.630	1	11
526.800	1	9
526.970	1	9
527.140	1	18
527.311	1	18
527.481	1	5
527.651	1	1
527.821	1	-1
527.991	1	-6
528.161	1	1
528.331	1	5
528.501	1	-3
528.671	1	9
528.841	1	12
529.011	1	2
529.181	1	15
529.352	1	10
529.522	1	7
529.692	1	-5
529.862	1	4
530.032	1	11
530.202	1	12
530.372	1	13
530.542	1	-3
530.712	1	21
530.882	1	9
531.052	1	5
531.222	1	0
531.392	1	6
531.563	1	0
531.733	1	1
531.903	1	12
532.073	1	7
532.243	1	11
532.413	1	-2
532.583	1	7
532.753	1	13
532.923	1	7
533.093	1	-5
533.263	1	0
533.433	1	4
533.603	1	-5
533.773	1	-1
533.943	1	5
534.113	1	14
534.284	1	-2
534.454	1	6
534.624	1	13
534.794	1	6
534.964	1	9
535.134	1	9
535.304	1	26
535.474	1	-8
535.644	1	1
535.814	1	7
535.984	1	7
536.154	1	-1
536.324	1	-1
536.494	1	4
536.664	1	4
536.834	1	8
537.004	1	8
537.174	1	11
537.344	1	-1
537.514	1	7
537.685	1	7
537.855	1	-3
538.025	1	0
538.195	1	8
538.365	1	16
538.535	1	2
538.705	1	-2
538.875	1	6
539.045	1	9
539.215	1	8
539.385	1	-6
539.555	1	-5
539.725	1	3
539.895	1	10
540.065	1	-7
540.235	1	10
540.405	1	3
540.575	1	8
540.745	1	-1
540.915	1	7
541.085	1	-6
541.255	1	15
541.425	1	-1
541.595	1	13
541.765	1	19
541.935	1	11
542.105	1	5
542.275	1	10
542.445	1	7
542.615	1	8
542.785	1	2
542.955	1	0
543.125	1	6
543.295	1	10
543.465	1	10
543.635	1	-5
543.805	1	7
543.975	1	0
544.145	1	12
544.315	1	-7
544.485	1	5
544.655	1	5
544.825	1	6
544.995	1	17
545.165	1	10
545.335	1	1
545.505	1	4
545.675	1	-2
545.845	1	8
546.015	1	2
546.185	1	-2
546.355	1	1
546.525	1	-3
546.695	1	0
546.865	1	0
547.035	1	1
547.205	1	11
547.375	1	-7
547.545	1	1
547.715	1	0
547.885	1	0
548.055	1	1
548.225	1	12
548.395	1	-4
548.565	1	9
548.735	1	-4
548.905	1	11
549.075	1	8
549.245	1	13
549.415	1	7
549.585	1	5
549.755	1	7
549.925	1	-4
550.095	1	6
550.265	1	13
550.435	1	1
550.605	1	2
550.775	1	7
550.945	1	7
551.115	1	8
551.285	1	7
551.455	1	0
551.625	1	-1
551.795	1	-4
551.965	1	9
552.135	1	7
552.305	1	8
552.475	1	5
552.645	1	7
552.815	1	0
552.985	1	4
553.155	1	3
553.325	1	0
553.495	1	2
553.665	1	-6
553.835	1	5
554.004	1	13
554.174	1	5
554.344	1	-4
554.514	1	8
554.684	1	1
554.854	1	-7
555.024	1	6
555.194	1	2
555.364	1	8
555.534	1	-5
555.704	1	4
555.874	1	7
556.044	1	4
556.214	1	8
556.384	1	4
556.554	1	1
556.724	1	1
556.894	1	-6
557.064	1	-2
557.234	1	3
557.404	1	1
557.573	1	-7
557.743	1	-1
557.913	1	16
558.083	1	14
558.253	1	8
558.423	1	-1
558.593	1	2
558.763	1	5
558.933	1	4
559.103	1	11
559.273	1	0
559.443	1	10
559.613	1	-1
559.783	1	-6
559.953	1	6
560.122	1	5
560.292	1	13
560.462	1	-1
560.632	1	-2
560.802	1	3
560.972	1	-7
561.142	1	-3
561.312	1	5
561.482	1	1
561.652	1	4
561.822	1	1
561.992	1	-1
562.162	1	0
562.331	1	11
562.501	1	-5
562.671	1	-1
562.841	1	-4
563.011	1	7
563.181	1	5
563.351	1	3
563.521	1	4
563.691	1	-2
563.861	1	12
564.031	1	-4
564.201	1	13
564.370	1	-1
564.540	1	1
564.710	1	7
564.880	1	2
565.050	1	13
565.220	1	-2
565.390	1	9
565.560	1	12
565.730	1	0
565.900	1	0
566.069	1	2
566.239	1	-3
566.409	1	-12
566.579	1	3
566.749	1	-12
566.919	1	1
567.089	1	5
567.259	1	4
567.429	1	-3
567.599	1	10
567.768	1	10
567.938	1	-2
568.108	1	3
568.278	1	12
568.448	1	9
568.618	1	3
568.788	1	4
568.958	1	3
569.128	1	8
569.297	1	0
569.467	1	-3
569.637	1	5
569.807	1	7
569.977	1	-9
570.147	1	6
570.317	1	1
570.487	1	-4
570.656	1	-11
570.826	1	-6
570.996	1	-5
571.166	1	12
571.336	1	-6
571.506	1	4
571.676	1	12
571.846	1	-1
572.015	1	0
572.185	1	17
572.355	1	1
572.525	1	-2
572.695	1	2
572.865	1	-7
573.035	1	16
573.205	1	10
573.374	1	11
573.544	1	3
573.714	1	-3
573.884	1	-1
574.054	1	4
574.224	1	8
574.394	1	2
574.563	1	5
574.733	1	9
574.903	1	7
575.073	1	-1
575.243	1	8
575.413	1	0
575.583	1	8
575.752	1	0
575.922	1	-2
576.092	1	0
576.262	1	8
576.432	1	9
576.602	1	-8
576.772	1	-1
576.941	1	7
577.111	1	2
577.281	1	-4
577.451	1	5
577.621	1	2
577.791	1	6
577.960	1	0
578.130	1	1
578.300	1	-15
578.470	1	4
578.640	1	19
578.810	1	-3
578.979	1	3
579.149	1	-3
579.319	1	5
579.489	1	3
579.659	1	-11
579.829	1	4
579.998	1	-1
580.168	1	6
580.338	1	5
580.508	1	13
580.678	1	6
580.848	1	3
581.017	1	14
581.187	1	3
581.357	1	-7
581.527	1	-1
581.697	1	4
581.867	1	2
582.036	1	-8
582.206	1	7
582.376	1	6
582.546	1	0
582.716	1	-10
582.885	1	-9
583.055	1	7
583.225	1	-6
583.395	1	12
583.565	1	6
583.735	1	16
583.904	1	8
584.074	1	-1
584.244	1	-12
584.414	1	6
584.584	1	-12
584.753	1	10
584.923	1	0
585.093	1	5
585.263	1	4
585.433	1	11
585.602	1	10
585.772	1	-4
585.942	1	16
586.112	1	-6
586.282	1	4
586.451	1	10
586.621	1	-4
586.791	1	0
586.961	1	0
587.131	1	-1
587.300	1	2
587.470	1	-1
587.640	1	13
587.810	1	13
587.980	1	5
588.149	1	-5
588.319	1	4
588.489	1	2
588.659	1	-9
588.829	1	13
588.998	1	8
589.168	1	8
589.338	1	3
589.508	1	2
589.677	1	0
589.847	1	8
590.017	1	-2
590.187	1	5
590.357	1	7
590.526	1	2
590.696	1	-5
590.866	1	12
591.036	1	17
591.205	1	14
591.375	1	2
591.545	1	-2
591.715	1	5
591.885	1	8
592.054	1	-3
592.224	1	-3
592.394	1	1
592.564	1	1
592.733	1	-8
592.903	1	10
593.073	1	10
593.243	1	10
593.412	1	8
593.582	1	6
593.752	1	0
593.922	1	-5
594.091	1	-5
594.261	1	8
594.431	1	14
594.601	1	1
594.771	1	11
594.940	1	6
595.110	1	6
595.280	1	-7
595.450	1	7
595.619	1	5
595.789	1	7
595.959	1	9
596.129	1	6
596.298	1	4
596.468	1	-2
596.638	1	7
596.808	1	15
596.977	1	0
597.147	1	-12
597.317	1	-4
597.487	1	16
597.656	1	8
597.826	1	13
597.996	1	6
598.166	1	0
598.335	1	11
598.505	1	7
598.675	1	1
598.844	1	-16
599.014	1	10
599.184	1	0
599.354	1	11
599.523	1	10
599.693	1	5
599.863	1	2
600.033	1	0
600.202	1	7
600.372	1	-3
600.542	1	8
600.712	1	5
600.881	1	-4
601.051	1	2
601.221	1	11
601.390	1	-8
601.560	1	-7
601.730	1	15
601.900	1	10
602.069	1	9
602.239	1	-2
602.409	1	1
602.578	1	-10
602.748	1	3
602.918	1	0
603.088	1	6
603.257	1	1
603.427	1	7
603.597	1	11
603.767	1	4
603.936	1	3
604.106	1	-2
604.276	1	7
604.445	1	4
604.615	1	7
604.785	1	7
604.954	1	12
605.124	1	-2
605.294	1	6
605.464	1	4
605.633	1	1
605.803	1	10
605.973	1	16
606.142	1	9
606.312	1	-4
606.482	1	7
606.652	1	4
606.821	1	11
606.991	1	-1
607.161	1	-4
607.330	1	-10
607.500	1	14
607.670	1	18
607.839	1	12
608.009	1	7
608.179	1	5
608.348	1	8
608.518	1	10
608.688	1	2
608.858	1	10
609.027	1	-6
609.197	1	-6
609.367	1	25
609.536	1	7
609.706	1	6
609.876	1	7
610.045	1	5
610.215	1	4
610.385	1	-2
610.554	1	-4
610.724	1	4
610.894	1	5
611.063	1	-8
611.233	1	10
611.403	1	5
611.572	1	9
611.742	1	6
611.912	1	5
612.081	1	3
612.251	1	7
612.421	1	9
612.590	1	-2
612.760	1	13
612.930	1	0
613.099	1	16
613.269	1	-2
613.439	1	3
613.608	1	6
613.778	1	-3
613.948	1	8
614.117	1	16
614.287	1	9
614.457	1	-3
614.626	1	10
614.796	1	3
614.966	1	6
615.135	1	11
615.305	1	2
615.475	1	12
615.644	1	1
615.814	1	-11
615.984	1	10
616.153	1	6
616.323	1	9
616.493	1	13
616.662	1	8
616.832	1	10
617.002	1	6
617.171	1	2
617.341	1	4
617.511	1	11
617.680	1	15
617.850	1	10
618.019	1	1
618.189	1	7
618.359	1	2
618.528	1	6
618.698	1	18
618.868	1	0
619.037	1	14
619.207	1	14
619.377	1	2
619.546	1	4
619.716	1	12
619.885	1	6
620.055	1	7
620.225	1	17
620.394	1	8
620.564	1	15
620.734	1	12
620.903	1	2
621.073	1	-2
621.242	1	13
621.412	1	11
621.582	1	7
621.751	1	6
621.921	1	11
622.091	1	6
622.260	1	-3
622.430	1	2
622.599	1	-3
622.769	1	11
622.939	1	8
623.108	1	6
623.278	1	-2
623.448	1	12
623.617	1	6
623.787	1	10
623.956	1	11
624.126	1	13
624.296	1	5
624.465	1	11
624.635	1	8
624.804	1	8
624.974	1	13
625.144	1	7
625.313	1	9
625.483	1	21
625.652	1	11
625.822	1	0
625.992	1	14
626.161	1	13
626.331	1	7
626.501	1	12
626.670	1	10
626.840	1	12
627.009	1	8
627.179	1	10
627.348	1	18
627.518	1	17
627.688	1	1
627.857	1	11
628.027	1	-16
628.196	1	7
628.366	1	1
628.536	1	5
628.705	1	6
628.875	1	10
629.044	1	18
629.214	1	4
629.384	1	7
629.553	1	10
629.723	1	2
629.892	1	17
630.062	1	6
630.232	1	4
630.401	1	15
630.571	1	15
630.740	1	10
630.910	1	13
631.079	1	5
631.249	1	4
631.419	1	-4
631.588	1	7
631.758	1	8
631.927	1	0
632.097	1	-2
632.266	1	11
632.436	1	7
632.606	1	8
632.775	1	11
632.945	1	17
633.114	1	2
633.284	1	2
633.453	1	7
633.623	1	12
633.793	1	4
633.962	1	12
634.132	1	5
634.301	1	6
634.471	1	5
634.640	1	7
634.810	1	8
634.979	1	0
635.149	1	6
635.319	1	10
635.488	1	23
635.658	1	7
635.827	1	1
635.997	1	7
636.166	1	3
636.336	1	6
636.505	1	13
636.675	1	14
636.845	1	6
637.014	1	6
637.184	1	12
637.353	1	1
637.523	1	4
637.692	1	6
637.862	1	1
638.031	1	13
638.201	1	17
638.370	1	5
638.540	1	7
638.710	1	20
638.879	1	3
639.049	1	10
639.218	1	7
639.388	1	10
639.557	1	13
639.727	1	10
639.896	1	1
640.066	1	15
640.235	1	14
640.405	1	12
640.574	1	10
640.744	1	14
640.914	1	14
641.083	1	8
641.253	1	22
641.422	1	6
641.592	1	2
641.761	1	5
641.931	1	10
642.100	1	5
642.270	1	-3
642.439	1	3
642.609	1	5
642.778	1	3
642.948	1	11
643.117	1	10
643.287	1	1
643.456	1	15
643.626	1	11
643.795	1	6
643.965	1	8
644.134	1	2
644.304	1	6
644.473	1	8
644.643	1	-1
644.812	1	19
644.982	1	6
645.151	1	17
645.321	1	2
645.490	1	3
645.660	1	-1
645.829	1	11
645.999	1	12
646.168	1	4
646.338	1	8
646.507	1	7
646.677	1	3
646.846	1	13
647.016	1	21
647.185	1	-3
647.355	1	8
647.524	1	8
647.694	1	10
647.863	1	-3
648.033	1	5
648.202	1	3
648.372	1	17
648.541	1	1
648.711	1	12
648.880	1	8
649.050	1	4
649.219	1	-8
649.389	1	15
649.558	1	6
649.728	1	9
649.897	1	8
650.067	1	9
650.236	1	14
650.406	1	2
650.575	1	3
650.745	1	2
650.914	1	17
651.084	1	0
651.253	1	7
651.423	1	12
651.592	1	13
651.762	1	9
651.931	1	7
652.101	1	17
652.270	1	15
652.440	1	4
652.609	1	14
652.778	1	2
652.948	1	10
653.117	1	1
653.287	1	11
653.456	1	4
653.626	1	-1
653.795	1	18
653.965	1	13
654.134	1	13
654.304	1	10
654.473	1	10
654.643	1	3
654.812	1	5
654.982	1	-1
655.151	1	14
655.320	1	15
655.490	1	3
655.659	1	2
655.829	1	14
655.998	1	7
656.168	1	-5
656.337	1	16
656.507	1	2
656.676	1	21
656.846	1	0
657.015	1	6
657.184	1	4
657.354	1	11
657.523	1	-2
657.693	1	5
657.862	1	7
658.032	1	11
658.201	1	8
658.371	1	3
658.540	1	1
658.709	1	7
658.879	1	-9
659.048	1	2
659.218	1	9
659.387	1	10
659.557	1	10
659.726	1	14
659.895	1	8
660.065	1	11
660.234	1	11
660.404	1	6
660.573	1	10
660.743	1	24
660.912	1	14
661.081	1	16
661.251	1	6
661.420	1	12
661.590	1	-1
661.759	1	4
661.929	1	12
662.098	1	3
662.267	1	4
662.437	1	6
662.606	1	13
662.776	1	9
662.945	1	6
663.115	1	12
663.284	1	-3
663.453	1	15
663.623	1	18
663.792	1	9
663.962	1	10
664.131	1	10
664.300	1	0
664.470	1	8
664.639	1	11
664.809	1	2
664.978	1	7
665.148	1	10
665.317	1	7
665.486	1	6
665.656	1	1
665.825	1	9
665.995	1	5
666.164	1	5
666.333	1	8
666.503	1	3
666.672	1	8
666.842	1	2
667.011	1	11
667.180	1	6
667.350	1	9
667.519	1	11
667.689	1	-3
667.858	1	12
668.027	1	15
668.197	1	6
668.366	1	5
668.536	1	16
668.705	1	1
668.874	1	14
669.044	1	-3
669.213	1	11
669.382	1	1
669.552	1	12
669.721	1	12
669.891	1	11
670.060	1	8
670.229	1	10
670.399	1	6
670.568	1	10
670.738	1	0
670.907	1	1
671.076	1	8
671.246	1	12
671.415	1	9
671.584	1	8
671.754	1	8
671.923	1	10
672.093	1	7
672.262	1	3
672.431	1	2
672.601	1	6
672.770	1	11
672.939	1	8
673.109	1	2
673.278	1	9
673.448	1	-2
673.617	1	-2
673.786	1	4
