325.333	1	25
325.504	1	8
325.675	1	5
325.846	1	11
326.017	1	10
326.188	1	14
326.359	1	6
326.531	1	8
326.702	1	10
326.873	1	19
327.044	1	11
327.215	1	8
327.386	1	8
327.557	1	5
327.728	1	3
327.899	1	27
328.070	1	22
328.241	1	16
328.412	1	7
328.583	1	4
328.754	1	10
328.926	1	3
329.097	1	1
329.268	1	8
329.439	1	9
329.610	1	21
329.781	1	2
329.952	1	8
330.123	1	16
330.294	1	6
330.465	1	7
330.636	1	15
330.807	1	12
330.978	1	13
331.149	1	14
331.320	1	12
331.492	1	9
331.663	1	9
331.834	1	10
332.005	1	7
332.176	1	4
332.347	1	32
332.518	1	9
332.689	1	19
332.860	1	12
333.031	1	6
333.202	1	-4
333.373	1	13
333.544	1	10
333.715	1	10
333.886	1	11
334.057	1	10
334.228	1	12
334.399	1	15
334.570	1	13
334.741	1	25
334.912	1	20
335.084	1	7
335.255	1	9
335.426	1	9
335.597	1	20
335.768	1	24
335.939	1	19
336.110	1	11
336.281	1	22
336.452	1	19
336.623	1	8
336.794	1	13
336.965	1	10
337.136	1	5
337.307	1	14
337.478	1	10
337.649	1	23
337.820	1	17
337.991	1	21
338.162	1	13
338.333	1	18
338.504	1	3
338.675	1	17
338.846	1	12
339.017	1	5
339.188	1	3
339.359	1	18
339.530	1	19
339.701	1	-1
339.872	1	26
340.043	1	2
340.214	1	13
340.385	1	12
340.556	1	15
340.727	1	15
340.898	1	21
341.069	1	14
341.240	1	31
341.411	1	14
341.582	1	22
341.753	1	10
341.924	1	13
342.095	1	10
342.266	1	20
342.437	1	19
342.608	1	12
342.779	1	14
342.950	1	8
343.121	1	18
343.292	1	21
343.463	1	15
343.634	1	8
343.805	1	0
343.976	1	17
344.147	1	14
344.318	1	11
344.489	1	20
344.660	1	17
344.831	1	20
345.002	1	19
345.173	1	11
345.344	1	13
345.515	1	7
345.686	1	22
345.857	1	16
346.028	1	17
346.199	1	9
346.370	1	18
346.541	1	15
346.712	1	16
346.883	1	18
347.054	1	13
347.225	1	20
347.396	1	4
347.567	1	21
347.738	1	10
347.909	1	12
348.080	1	6
348.251	1	16
348.422	1	11
348.593	1	6
348.764	1	18
348.935	1	13
349.106	1	21
349.277	1	22
349.448	1	23
349.619	1	18
349.790	1	23
349.961	1	22
350.132	1	16
350.303	1	25
350.474	1	10
350.645	1	22
350.816	1	11
350.987	1	18
351.157	1	12
351.328	1	26
351.499	1	15
351.670	1	19
351.841	1	18
352.012	1	17
352.183	1	21
352.354	1	12
352.525	1	25
352.696	1	26
352.867	1	10
353.038	1	16
353.209	1	12
353.380	1	8
353.551	1	0
353.722	1	29
353.893	1	13
354.064	1	11
354.235	1	28
354.406	1	20
354.576	1	19
354.747	1	19
354.918	1	24
355.089	1	20
355.260	1	32
355.431	1	17
355.602	1	12
355.773	1	11
355.944	1	15
356.115	1	22
356.286	1	21
356.457	1	19
356.628	1	20
356.799	1	17
356.970	1	17
357.141	1	7
357.311	1	11
357.482	1	7
357.653	1	18
357.824	1	12
357.995	1	9
358.166	1	13
358.337	1	20
358.508	1	28
358.679	1	28
358.850	1	6
359.021	1	22
359.192	1	17
359.363	1	19
359.533	1	3
359.704	1	22
359.875	1	22
360.046	1	26
360.217	1	24
360.388	1	17
360.559	1	18
360.730	1	10
360.901	1	18
361.072	1	14
361.243	1	20
361.414	1	13
361.584	1	5
361.755	1	9
361.926	1	31
362.097	1	10
362.268	1	9
362.439	1	15
362.610	1	1
362.781	1	10
362.952	1	19
363.123	1	13
363.293	1	18
363.464	1	14
363.635	1	16
363.806	1	10
363.977	1	24
364.148	1	5
364.319	1	9
364.490	1	23
364.661	1	10
364.832	1	15
365.002	1	26
365.173	1	8
365.344	1	10
365.515	1	8
365.686	1	16
365.857	1	17
366.028	1	16
366.199	1	20
366.370	1	25
366.540	1	19
366.711	1	11
366.882	1	-1
367.053	1	16
367.224	1	22
367.395	1	16
367.566	1	4
367.737	1	15
367.908	1	5
368.078	1	21
368.249	1	21
368.420	1	17
368.591	1	21
368.762	1	6
368.933	1	4
369.104	1	28
369.274	1	8
369.445	1	9
369.616	1	13
369.787	1	32
369.958	1	20
370.129	1	19
370.300	1	16
370.471	1	25
370.641	1	21
370.812	1	15
370.983	1	9
371.154	1	1
371.325	1	19
371.496	1	16
371.667	1	17
371.837	1	16
372.008	1	6
372.179	1	7
372.350	1	10
372.521	1	18
372.692	1	13
372.863	1	18
373.033	1	21
373.204	1	10
373.375	1	18
373.546	1	31
373.717	1	6
373.888	1	16
374.059	1	17
374.229	1	6
374.400	1	11
374.571	1	11
374.742	1	14
374.913	1	19
375.084	1	18
375.254	1	28
375.425	1	10
375.596	1	28
375.767	1	11
375.938	1	21
376.109	1	26
376.279	1	7
376.450	1	18
376.621	1	11
376.792	1	20
376.963	1	9
377.134	1	20
377.304	1	24
377.475	1	14
377.646	1	16
377.817	1	12
377.988	1	24
378.159	1	22
378.329	1	13
378.500	1	22
378.671	1	16
378.842	1	23
379.013	1	21
379.184	1	11
379.354	1	7
379.525	1	19
379.696	1	25
379.867	1	18
380.038	1	24
380.209	1	12
380.379	1	19
380.550	1	22
380.721	1	17
380.892	1	12
381.063	1	24
381.233	1	22
381.404	1	10
381.575	1	19
381.746	1	30
381.917	1	20
382.087	1	28
382.258	1	35
382.429	1	18
382.600	1	20
382.771	1	27
382.941	1	26
383.112	1	21
383.283	1	33
383.454	1	17
383.625	1	17
383.795	1	20
383.966	1	17
384.137	1	12
384.308	1	14
384.479	1	5
384.649	1	21
384.820	1	27
384.991	1	22
385.162	1	33
385.333	1	23
385.503	1	26
385.674	1	12
385.845	1	26
386.016	1	23
386.187	1	10
386.357	1	20
386.528	1	14
386.699	1	19
386.870	1	21
387.041	1	26
387.211	1	8
387.382	1	17
387.553	1	22
387.724	1	30
387.894	1	26
388.065	1	11
388.236	1	19
388.407	1	24
388.578	1	14
388.748	1	25
388.919	1	33
389.090	1	35
389.261	1	17
389.431	1	26
389.602	1	31
389.773	1	31
389.944	1	31
390.114	1	30
390.285	1	15
390.456	1	17
390.627	1	19
390.798	1	29
390.968	1	33
391.139	1	14
391.310	1	31
391.481	1	23
391.651	1	24
391.822	1	28
391.993	1	24
392.164	1	24
392.334	1	19
392.505	1	27
392.676	1	33
392.847	1	26
393.017	1	24
393.188	1	24
393.359	1	28
393.530	1	17
393.700	1	15
393.871	1	27
394.042	1	32
394.213	1	26
394.383	1	21
394.554	1	37
394.725	1	26
394.896	1	30
395.066	1	27
395.237	1	31
395.408	1	32
395.579	1	16
395.749	1	37
395.920	1	21
396.091	1	31
396.262	1	20
396.432	1	29
396.603	1	12
396.774	1	22
396.945	1	27
397.115	1	20
397.286	1	28
397.457	1	23
397.627	1	17
397.798	1	37
397.969	1	26
398.140	1	19
398.310	1	25
398.481	1	21
398.652	1	18
398.823	1	43
398.993	1	28
399.164	1	29
399.335	1	27
399.505	1	19
399.676	1	18
399.847	1	26
400.018	1	28
400.188	1	26
400.359	1	30
400.530	1	29
400.700	1	36
400.871	1	32
401.042	1	29
401.213	1	23
401.383	1	30
401.554	1	33
401.725	1	34
401.895	1	30
402.066	1	27
402.237	1	36
402.408	1	29
402.578	1	27
402.749	1	23
402.920	1	27
403.090	1	38
403.261	1	20
403.432	1	43
403.603	1	32
403.773	1	38
403.944	1	34
404.115	1	40
404.285	1	43
404.456	1	19
404.627	1	28
404.797	1	32
404.968	1	28
405.139	1	31
405.310	1	37
405.480	1	34
405.651	1	30
405.822	1	41
405.992	1	31
406.163	1	37
406.334	1	45
406.504	1	36
406.675	1	46
406.846	1	38
407.016	1	31
407.187	1	27
407.358	1	41
407.528	1	27
407.699	1	22
407.870	1	45
408.041	1	57
408.211	1	42
408.382	1	29
408.553	1	35
408.723	1	31
408.894	1	28
409.065	1	30
409.235	1	35
409.406	1	33
409.577	1	31
409.747	1	41
409.918	1	30
410.089	1	34
410.259	1	33
410.430	1	35
410.601	1	35
410.771	1	43
410.942	1	37
411.113	1	25
411.283	1	38
411.454	1	41
411.625	1	38
411.795	1	28
411.966	1	48
412.137	1	35
412.307	1	31
412.478	1	27
412.649	1	40
412.819	1	46
412.990	1	23
413.161	1	48
413.331	1	43
413.502	1	41
413.672	1	43
413.843	1	33
414.014	1	48
414.184	1	37
414.355	1	34
414.526	1	45
414.696	1	44
414.867	1	27
415.038	1	48
415.208	1	45
415.379	1	42
415.550	1	50
415.720	1	30
415.891	1	43
416.062	1	39
416.232	1	27
416.403	1	43
416.573	1	46
416.744	1	35
416.915	1	44
417.085	1	48
417.256	1	33
417.427	1	29
417.597	1	39
417.768	1	40
417.939	1	39
418.109	1	37
418.280	1	36
418.450	1	48
418.621	1	44
418.792	1	33
418.962	1	31
419.133	1	32
419.304	1	37
419.474	1	33
419.645	1	39
419.815	1	27
419.986	1	47
420.157	1	39
420.327	1	30
420.498	1	27
420.669	1	37
420.839	1	26
421.010	1	27
421.180	1	36
421.351	1	40
421.522	1	25
421.692	1	45
421.863	1	41
422.033	1	21
422.204	1	30
422.375	1	32
422.545	1	34
422.716	1	30
422.886	1	38
423.057	1	41
423.228	1	36
423.398	1	38
423.569	1	37
423.740	1	34
423.910	1	37
424.081	1	39
424.251	1	41
424.422	1	32
424.593	1	35
424.763	1	43
424.934	1	43
425.104	1	39
425.275	1	41
425.445	1	26
425.616	1	34
425.787	1	30
425.957	1	33
426.128	1	41
426.298	1	49
426.469	1	33
426.640	1	33
426.810	1	55
426.981	1	36
427.151	1	41
427.322	1	35
427.493	1	42
427.663	1	41
427.834	1	48
428.004	1	34
428.175	1	50
428.345	1	35
428.516	1	37
428.687	1	47
428.857	1	26
429.028	1	38
429.198	1	33
429.369	1	37
429.540	1	39
429.710	1	42
429.881	1	31
430.051	1	35
430.222	1	43
430.392	1	33
430.563	1	39
430.734	1	27
430.904	1	38
431.075	1	40
431.245	1	26
431.416	1	40
431.586	1	39
431.757	1	27
431.927	1	53
432.098	1	33
432.269	1	37
432.439	1	36
432.610	1	46
432.780	1	29
432.951	1	37
433.121	1	34
433.292	1	40
433.462	1	35
433.633	1	32
433.804	1	30
433.974	1	39
434.145	1	27
434.315	1	29
434.486	1	41
434.656	1	47
434.827	1	23
434.997	1	35
435.168	1	35
435.339	1	29
435.509	1	38
435.680	1	31
435.850	1	39
436.021	1	41
436.191	1	39
436.362	1	42
436.532	1	43
436.703	1	28
436.873	1	25
437.044	1	34
437.214	1	30
437.385	1	38
437.556	1	40
437.726	1	53
437.897	1	36
438.067	1	19
438.238	1	25
438.408	1	36
438.579	1	29
438.749	1	25
438.920	1	49
439.090	1	41
439.261	1	35
439.431	1	42
439.602	1	35
439.772	1	30
439.943	1	37
440.113	1	43
440.284	1	36
440.455	1	48
440.625	1	40
440.796	1	38
440.966	1	28
441.137	1	22
441.307	1	31
441.478	1	34
441.648	1	32
441.819	1	33
441.989	1	52
442.160	1	22
442.330	1	36
442.501	1	35
442.671	1	34
442.842	1	36
443.012	1	31
443.183	1	38
443.353	1	47
443.524	1	31
443.694	1	32
443.865	1	34
444.035	1	32
444.206	1	29
444.376	1	32
444.547	1	36
444.717	1	28
444.888	1	33
445.058	1	29
445.229	1	30
445.399	1	31
445.570	1	30
445.740	1	18
445.911	1	34
446.081	1	36
446.252	1	29
446.422	1	36
446.593	1	33
446.763	1	31
446.934	1	38
447.104	1	23
447.275	1	41
447.445	1	26
447.616	1	23
447.786	1	30
447.957	1	26
448.127	1	32
448.298	1	39
448.468	1	17
448.639	1	32
448.809	1	41
448.979	1	22
449.150	1	30
449.320	1	25
449.491	1	28
449.661	1	43
449.832	1	25
450.002	1	30
450.173	1	34
450.343	1	24
450.514	1	45
450.684	1	31
450.855	1	37
451.025	1	25
451.196	1	31
451.366	1	33
451.537	1	24
451.707	1	31
451.878	1	22
452.048	1	18
452.218	1	28
452.389	1	31
452.559	1	14
452.730	1	27
452.900	1	37
453.071	1	16
453.241	1	40
453.412	1	24
453.582	1	25
453.753	1	26
453.923	1	26
454.093	1	32
454.264	1	49
454.434	1	32
454.605	1	26
454.775	1	43
454.946	1	35
455.116	1	27
455.287	1	25
455.457	1	23
455.628	1	24
455.798	1	39
455.968	1	31
456.139	1	15
456.309	1	29
456.480	1	31
456.650	1	28
456.821	1	36
456.991	1	33
457.161	1	30
457.332	1	30
457.502	1	28
457.673	1	22
457.843	1	38
458.014	1	36
458.184	1	23
458.355	1	32
458.525	1	18
458.695	1	21
458.866	1	26
459.036	1	22
459.207	1	27
459.377	1	27
459.548	1	35
459.718	1	23
459.888	1	29
460.059	1	32
460.229	1	13
460.400	1	22
460.570	1	26
460.740	1	24
460.911	1	14
461.081	1	12
461.252	1	34
461.422	1	26
461.593	1	12
461.763	1	22
461.933	1	15
462.104	1	29
462.274	1	28
462.445	1	20
462.615	1	18
462.785	1	12
462.956	1	26
463.126	1	10
463.297	1	28
463.467	1	24
463.638	1	12
463.808	1	20
463.978	1	28
464.149	1	27
464.319	1	15
464.490	1	27
464.660	1	16
464.830	1	7
465.001	1	28
465.171	1	16
465.342	1	30
465.512	1	30
465.682	1	18
465.853	1	20
466.023	1	29
466.194	1	19
466.364	1	26
466.534	1	21
466.705	1	25
466.875	1	27
467.045	1	16
467.216	1	17
467.386	1	21
467.557	1	13
467.727	1	21
467.897	1	12
468.068	1	28
468.238	1	19
468.409	1	10
468.579	1	20
468.749	1	12
468.920	1	20
469.090	1	26
469.260	1	6
469.431	1	19
469.601	1	11
469.772	1	18
469.942	1	31
470.112	1	22
470.283	1	25
470.453	1	28
470.623	1	22
470.794	1	27
470.964	1	9
471.135	1	22
471.305	1	20
471.475	1	15
471.646	1	14
471.816	1	17
471.986	1	17
472.157	1	24
472.327	1	15
472.497	1	11
472.668	1	18
472.838	1	10
473.009	1	39
473.179	1	22
473.349	1	23
473.520	1	9
473.690	1	15
473.860	1	18
474.031	1	23
474.201	1	21
474.371	1	14
474.542	1	17
474.712	1	11
474.882	1	24
475.053	1	25
475.223	1	16
475.394	1	25
475.564	1	9
475.734	1	12
475.905	1	16
476.075	1	16
476.245	1	15
476.416	1	11
476.586	1	22
476.756	1	29
476.927	1	22
477.097	1	20
477.267	1	14
477.438	1	11
477.608	1	15
477.778	1	24
477.949	1	23
478.119	1	22
478.289	1	19
478.460	1	17
478.630	1	12
478.800	1	20
478.971	1	11
479.141	1	12
479.311	1	10
479.482	1	9
479.652	1	9
479.822	1	19
479.993	1	17
480.163	1	20
480.333	1	19
480.504	1	13
480.674	1	15
480.844	1	15
481.015	1	13
481.185	1	24
481.355	1	16
481.525	1	18
481.696	1	14
481.866	1	4
482.036	1	15
482.207	1	8
482.377	1	21
482.547	1	18
482.718	1	13
482.888	1	12
483.058	1	15
483.229	1	16
483.399	1	18
483.569	1	16
483.740	1	8
483.910	1	11
484.080	1	17
484.250	1	21
484.421	1	15
484.591	1	9
484.761	1	11
484.932	1	21
485.102	1	11
485.272	1	-1
485.443	1	5
485.613	1	26
485.783	1	13
485.953	1	11
486.124	1	7
486.294	1	21
486.464	1	11
486.635	1	19
486.805	1	11
486.975	1	9
487.146	1	13
487.316	1	20
487.486	1	11
487.656	1	7
487.827	1	22
487.997	1	14
488.167	1	14
488.338	1	-1
488.508	1	18
488.678	1	24
488.848	1	23
489.019	1	11
489.189	1	14
489.359	1	19
489.529	1	1
489.700	1	7
489.870	1	10
490.040	1	9
490.211	1	27
490.381	1	14
490.551	1	12
490.721	1	11
490.892	1	19
491.062	1	6
491.232	1	11
491.402	1	10
491.573	1	13
491.743	1	3
491.913	1	13
492.084	1	6
492.254	1	19
492.424	1	4
492.594	1	17
492.765	1	13
492.935	1	19
493.105	1	11
493.275	1	12
493.446	1	13
493.616	1	13
493.786	1	16
493.956	1	4
494.127	1	6
494.297	1	16
494.467	1	14
494.637	1	20
494.808	1	7
494.978	1	7
495.148	1	18
495.318	1	4
495.489	1	10
495.659	1	16
495.829	1	10
495.999	1	17
496.170	1	17
496.340	1	23
496.510	1	14
496.680	1	9
496.851	1	11
497.021	1	8
497.191	1	5
497.361	1	16
497.532	1	5
497.702	1	10
497.872	1	14
498.042	1	19
498.213	1	14
498.383	1	16
498.553	1	12
498.723	1	0
498.894	1	16
499.064	1	17
499.234	1	7
499.404	1	9
499.574	1	15
499.745	1	12
499.915	1	10
500.085	1	9
500.255	1	17
500.426	1	14
500.596	1	14
500.766	1	12
500.936	1	9
501.106	1	13
501.277	1	7
501.447	1	-1
501.617	1	5
501.787	1	10
501.958	1	12
502.128	1	12
502.298	1	13
502.468	1	5
502.638	1	4
502.809	1	5
502.979	1	12
503.149	1	16
503.319	1	7
503.489	1	7
503.660	1	14
503.830	1	10
504.000	1	4
504.170	1	9
504.340	1	7
504.511	1	24
504.681	1	11
504.851	1	15
505.021	1	6
505.192	1	8
505.362	1	7
505.532	1	3
505.702	1	9
505.872	1	20
506.043	1	-1
506.213	1	13
506.383	1	13
506.553	1	14
506.723	1	11
506.893	1	11
507.064	1	8
507.234	1	2
507.404	1	22
507.574	1	9
507.744	1	19
507.915	1	14
508.085	1	-5
508.255	1	11
508.425	1	11
508.595	1	10
508.766	1	0
508.936	1	16
509.106	1	4
509.276	1	13
509.446	1	8
509.616	1	5
509.787	1	11
509.957	1	3
510.127	1	14
510.297	1	9
510.467	1	15
510.638	1	10
510.808	1	6
510.978	1	14
511.148	1	6
511.318	1	3
511.488	1	14
511.659	1	10
511.829	1	5
511.999	1	0
512.169	1	11
512.339	1	6
512.509	1	16
512.680	1	2
512.850	1	5
513.020	1	7
513.190	1	6
513.360	1	2
513.530	1	5
513.700	1	6
513.871	1	16
514.041	1	14
514.211	1	6
514.381	1	10
514.551	1	1
514.721	1	-1
514.892	1	-1
515.062	1	14
515.232	1	17
515.402	1	14
515.572	1	9
515.742	1	12
515.912	1	16
516.083	1	5
516.253	1	10
516.423	1	1
516.593	1	7
516.763	1	13
516.933	1	18
517.104	1	5
517.274	1	13
517.444	1	10
517.614	1	16
517.784	1	5
517.954	1	5
518.124	1	1
518.294	1	7
518.465	1	7
518.635	1	8
518.805	1	15
518.975	1	-2
519.145	1	16
519.315	1	16
519.485	1	8
519.656	1	10
519.826	1	0
519.996	1	4
520.166	1	7
520.336	1	4
520.506	1	11
520.676	1	13
520.846	1	16
521.017	1	8
521.187	1	7
521.357	1	8
521.527	1	11
521.697	1	4
521.867	1	9
522.037	1	6
522.207	1	14
522.377	1	4
522.548	1	9
522.718	1	5
522.888	1	17
523.058	1	2
523.228	1	-2
523.398	1	13
523.568	1	7
523.738	1	0
523.909	1	16
524.079	1	4
524.249	1	7
524.419	1	9
524.589	1	10
524.759	1	7
524.929	1	9
525.099	1	2
525.269	1	-6
525.439	1	5
525.610	1	-5
525.780	1	9
525.950	1	16
526.120	1	6
526.290	1	2
526.460	1	20
526.630	1	12
526.800	1	3
526.970	1	13
527.140	1	22
527.311	1	11
527.481	1	3
527.651	1	2
527.821	1	0
527.991	1	0
528.161	1	10
528.331	1	7
528.501	1	4
528.671	1	20
528.841	1	22
529.011	1	6
529.181	1	4
529.352	1	7
529.522	1	12
529.692	1	1
529.862	1	-1
530.032	1	4
530.202	1	8
530.372	1	13
530.542	1	13
530.712	1	10
530.882	1	15
531.052	1	3
531.222	1	7
531.392	1	0
531.563	1	6
531.733	1	-3
531.903	1	16
532.073	1	10
532.243	1	13
532.413	1	1
532.583	1	9
532.753	1	2
532.923	1	-1
533.093	1	4
533.263	1	6
533.433	1	9
533.603	1	0
533.773	1	10
533.943	1	7
534.113	1	14
534.284	1	9
534.454	1	6
534.624	1	7
534.794	1	14
534.964	1	10
535.134	1	13
535.304	1	14
535.474	1	4
535.644	1	22
535.814	1	13
535.984	1	2
536.154	1	8
536.324	1	7
536.494	1	1
536.664	1	-1
536.834	1	14
537.004	1	6
537.174	1	2
537.344	1	12
537.514	1	5
537.685	1	6
537.855	1	2
538.025	1	1
538.195	1	2
538.365	1	16
538.535	1	-6
538.705	1	-2
538.875	1	11
539.045	1	7
539.215	1	4
539.385	1	-4
539.555	1	1
539.725	1	2
539.895	1	10
540.065	1	2
540.235	1	6
540.405	1	-5
540.575	1	10
540.745	1	9
540.915	1	10
541.085	1	3
541.255	1	13
541.425	1	-3
541.595	1	2
541.765	1	11
541.935	1	8
542.105	1	16
542.275	1	5
542.445	1	10
542.615	1	6
542.785	1	-4
542.955	1	6
543.125	1	6
543.295	1	11
543.465	1	4
543.635	1	-1
543.805	1	-4
543.975	1	-4
544.145	1	13
544.315	1	-4
544.485	1	8
544.655	1	8
544.825	1	6
544.995	1	9
545.165	1	3
545.335	1	-3
545.505	1	11
545.675	1	-6
545.845	1	6
546.015	1	2
546.185	1	-7
546.355	1	0
546.525	1	1
546.695	1	8
546.865	1	4
547.035	1	-3
547.205	1	12
547.375	1	-1
547.545	1	12
547.715	1	13
547.885	1	-2
548.055	1	0
548.225	1	6
548.395	1	0
548.565	1	6
548.735	1	-2
548.905	1	13
549.075	1	6
549.245	1	8
549.415	1	5
549.585	1	3
549.755	1	3
549.925	1	4
550.095	1	1
550.265	1	18
550.435	1	-4
550.605	1	3
550.775	1	9
550.945	1	5
551.115	1	12
551.285	1	2
551.455	1	4
551.625	1	2
551.795	1	3
551.965	1	8
552.135	1	9
552.305	1	7
552.475	1	5
552.645	1	4
552.815	1	4
552.985	1	4
553.155	1	6
553.325	1	-8
553.495	1	9
553.665	1	5
553.835	1	14
554.004	1	16
554.174	1	4
554.344	1	1
554.514	1	10
554.684	1	-2
554.854	1	-4
555.024	1	5
555.194	1	9
555.364	1	9
555.534	1	0
555.704	1	6
555.874	1	7
556.044	1	-1
556.214	1	13
556.384	1	5
556.554	1	-11
556.724	1	9
556.894	1	3
557.064	1	15
557.234	1	-5
557.404	1	3
557.573	1	-1
557.743	1	7
557.913	1	17
558.083	1	-1
558.253	1	2
558.423	1	1
558.593	1	-1
558.763	1	3
558.933	1	8
559.103	1	8
559.273	1	3
559.443	1	6
559.613	1	-3
559.783	1	-7
559.953	1	3
560.122	1	-2
560.292	1	6
560.462	1	-2
560.632	1	-6
560.802	1	7
560.972	1	10
561.142	1	2
561.312	1	10
561.482	1	-9
561.652	1	5
561.822	1	-3
561.992	1	0
562.162	1	14
562.331	1	8
562.501	1	-3
562.671	1	5
562.841	1	-7
563.011	1	10
563.181	1	5
563.351	1	-5
563.521	1	3
563.691	1	7
563.861	1	3
564.031	1	-2
564.201	1	8
564.370	1	11
564.540	1	10
564.710	1	2
564.880	1	8
565.050	1	17
565.220	1	0
565.390	1	-2
565.560	1	6
565.730	1	10
565.900	1	7
566.069	1	11
566.239	1	-8
566.409	1	-6
566.579	1	13
566.749	1	0
566.919	1	2
567.089	1	6
567.259	1	3
567.429	1	11
567.599	1	7
567.768	1	1
567.938	1	-6
568.108	1	9
568.278	1	15
568.448	1	2
568.618	1	-4
568.788	1	9
568.958	1	6
569.128	1	-2
569.297	1	-8
569.467	1	-3
569.637	1	9
569.807	1	8
569.977	1	-2
570.147	1	7
570.317	1	1
570.487	1	3
570.656	1	-7
570.826	1	6
570.996	1	-10
571.166	1	11
571.336	1	-1
571.506	1	9
571.676	1	12
571.846	1	7
572.015	1	1
572.185	1	9
572.355	1	-1
572.525	1	-7
572.695	1	0
572.865	1	-9
573.035	1	4
573.205	1	7
573.374	1	6
573.544	1	11
573.714	1	-4
573.884	1	8
574.054	1	-1
574.224	1	-3
574.394	1	-8
574.563	1	13
574.733	1	-6
574.903	1	11
575.073	1	-1
575.243	1	7
575.413	1	3
575.583	1	6
575.752	1	7
575.922	1	2
576.092	1	-1
576.262	1	2
576.432	1	7
576.602	1	0
576.772	1	2
576.941	1	16
577.111	1	-3
577.281	1	3
577.451	1	4
577.621	1	5
577.791	1	1
577.960	1	3
578.130	1	4
578.300	1	-5
578.470	1	1
578.640	1	3
578.810	1	5
578.979	1	10
579.149	1	0
579.319	1	9
579.489	1	-12
579.659	1	-2
579.829	1	9
579.998	1	3
580.168	1	6
580.338	1	-2
580.508	1	17
580.678	1	12
580.848	1	-2
581.017	1	16
581.187	1	3
581.357	1	1
581.527	1	-4
581.697	1	5
581.867	1	2
582.036	1	2
582.206	1	3
582.376	1	2
582.546	1	-4
582.716	1	0
582.885	1	-10
583.055	1	1
583.225	1	-2
583.395	1	15
583.565	1	7
583.735	1	8
583.904	1	9
584.074	1	-12
584.244	1	-1
584.414	1	5
584.584	1	1
584.753	1	1
584.923	1	2
585.093	1	4
585.263	1	4
585.433	1	0
585.602	1	12
585.772	1	0
585.942	1	8
586.112	1	-4
586.282	1	6
586.451	1	6
586.621	1	4
586.791	1	8
586.961	1	5
587.131	1	0
587.300	1	4
587.470	1	-4
587.640	1	9
587.810	1	11
587.980	1	3
588.149	1	11
588.319	1	15
588.489	1	11
588.659	1	0
588.829	1	9
588.998	1	-1
589.168	1	14
589.338	1	-3
589.508	1	8
589.677	1	7
589.847	1	10
590.017	1	-2
590.187	1	5
590.357	1	-1
590.526	1	-4
590.696	1	0
590.866	1	-2
591.036	1	13
591.205	1	13
591.375	1	3
591.545	1	2
591.715	1	-2
591.885	1	9
592.054	1	3
592.224	1	9
592.394	1	-7
592.564	1	14
592.733	1	-17
592.903	1	5
593.073	1	6
593.243	1	12
593.412	1	5
593.582	1	6
593.752	1	1
593.922	1	-7
594.091	1	-7
594.261	1	-3
594.431	1	20
594.601	1	0
594.771	1	12
594.940	1	1
595.110	1	10
595.280	1	1
595.450	1	11
595.619	1	3
595.789	1	13
595.959	1	2
596.129	1	3
596.298	1	12
596.468	1	8
596.638	1	1
596.808	1	4
596.977	1	0
597.147	1	0
597.317	1	4
597.487	1	12
597.656	1	-2
597.826	1	17
597.996	1	10
598.166	1	9
598.335	1	9
598.505	1	0
598.675	1	0
598.844	1	1
599.014	1	-3
599.184	1	3
599.354	1	6
599.523	1	8
599.693	1	18
599.863	1	6
600.033	1	4
600.202	1	11
600.372	1	4
600.542	1	4
600.712	1	1
600.881	1	1
601.051	1	2
601.221	1	7
601.390	1	-7
601.560	1	20
601.730	1	5
601.900	1	-1
602.069	1	2
602.239	1	4
602.409	1	1
602.578	1	-2
602.748	1	2
602.918	1	3
603.088	1	7
603.257	1	5
603.427	1	3
603.597	1	7
603.767	1	2
603.936	1	7
604.106	1	2
604.276	1	12
604.445	1	6
604.615	1	12
604.785	1	10
604.954	1	9
605.124	1	0
605.294	1	4
605.464	1	-7
605.633	1	-6
605.803	1	5
605.973	1	7
606.142	1	5
606.312	1	7
606.482	1	3
606.652	1	5
606.821	1	5
606.991	1	-2
607.161	1	-1
607.330	1	-2
607.500	1	14
607.670	1	6
607.839	1	12
608.009	1	5
608.179	1	16
608.348	1	3
608.518	1	1
608.688	1	-4
608.858	1	5
609.027	1	9
609.197	1	1
609.367	1	15
609.536	1	10
609.706	1	1
609.876	1	20
610.045	1	9
610.215	1	7
610.385	1	-8
610.554	1	-2
610.724	1	-10
610.894	1	16
611.063	1	0
611.233	1	14
611.403	1	6
611.572	1	5
611.742	1	10
611.912	1	3
612.081	1	-6
612.251	1	8
612.421	1	9
612.590	1	1
612.760	1	9
612.930	1	-9
613.099	1	2
613.269	1	-6
613.439	1	4
613.608	1	4
613.778	1	-5
613.948	1	8
614.117	1	17
614.287	1	5
614.457	1	2
614.626	1	13
614.796	1	8
614.966	1	10
615.135	1	12
615.305	1	5
615.475	1	4
615.644	1	9
615.814	1	-5
615.984	1	11
616.153	1	13
616.323	1	16
616.493	1	10
616.662	1	13
616.832	1	9
617.002	1	5
617.171	1	1
617.341	1	-3
617.511	1	10
617.680	1	7
617.850	1	15
618.019	1	8
618.189	1	13
618.359	1	3
618.528	1	2
618.698	1	8
618.868	1	-2
619.037	1	6
619.207	1	3
619.377	1	3
619.546	1	2
619.716	1	15
619.885	1	3
620.055	1	9
620.225	1	10
620.394	1	9
620.564	1	13
620.734	1	9
620.903	1	3
621.073	1	0
621.242	1	6
621.412	1	4
621.582	1	13
621.751	1	13
621.921	1	11
622.091	1	5
622.260	1	5
622.430	1	2
622.599	1	-5
622.769	1	8
622.939	1	12
623.108	1	10
623.278	1	6
623.448	1	5
623.617	1	9
623.787	1	17
623.956	1	11
624.126	1	15
624.296	1	12
624.465	1	6
624.635	1	11
624.804	1	0
624.974	1	8
625.144	1	5
625.313	1	0
625.483	1	22
625.652	1	7
625.822	1	-2
625.992	1	13
626.161	1	9
626.331	1	7
626.501	1	3
626.670	1	17
626.840	1	15
627.009	1	9
627.179	1	7
627.348	1	6
627.518	1	18
627.688	1	2
627.857	1	17
628.027	1	-5
628.196	1	3
628.366	1	-2
628.536	1	6
628.705	1	6
628.875	1	21
629.044	1	12
629.214	1	18
629.384	1	9
629.553	1	9
629.723	1	-2
629.892	1	21
630.062	1	1
630.232	1	6
630.401	1	13
630.571	1	15
630.740	1	10
630.910	1	9
631.079	1	7
631.249	1	11
631.419	1	6
631.588	1	17
631.758	1	11
631.927	1	6
632.097	1	3
632.266	1	11
632.436	1	4
632.606	1	11
632.775	1	21
632.945	1	9
633.114	1	9
633.284	1	4
633.453	1	-6
633.623	1	13
633.793	1	2
633.962	1	11
634.132	1	5
634.301	1	13
634.471	1	5
634.640	1	5
634.810	1	9
634.979	1	14
635.149	1	12
635.319	1	16
635.488	1	30
635.658	1	13
635.827	1	1
635.997	1	8
636.166	1	-3
636.336	1	3
636.505	1	7
636.675	1	16
636.845	1	14
637.014	1	13
637.184	1	12
637.353	1	7
637.523	1	14
637.692	1	10
637.862	1	7
638.031	1	12
638.201	1	16
638.370	1	8
638.540	1	-1
638.710	1	18
638.879	1	7
639.049	1	13
639.218	1	10
639.388	1	5
639.557	1	7
639.727	1	9
639.896	1	7
640.066	1	6
640.235	1	19
640.405	1	9
640.574	1	11
640.744	1	14
640.914	1	8
641.083	1	11
641.253	1	20
641.422	1	15
641.592	1	4
641.761	1	12
641.931	1	6
642.100	1	13
642.270	1	6
642.439	1	0
642.609	1	14
642.778	1	4
642.948	1	11
643.117	1	7
643.287	1	7
643.456	1	23
643.626	1	25
643.795	1	-2
643.965	1	15
644.134	1	9
644.304	1	3
644.473	1	15
644.643	1	10
644.812	1	17
644.982	1	13
645.151	1	15
645.321	1	10
645.490	1	4
645.660	1	14
645.829	1	13
645.999	1	13
646.168	1	3
646.338	1	8
646.507	1	13
646.677	1	13
646.846	1	1
647.016	1	18
647.185	1	9
647.355	1	10
647.524	1	10
647.694	1	6
647.863	1	0
648.033	1	2
648.202	1	11
648.372	1	17
648.541	1	7
648.711	1	8
648.880	1	16
649.050	1	-2
649.219	1	1
649.389	1	8
649.558	1	1
649.728	1	6
649.897	1	6
650.067	1	2
650.236	1	15
650.406	1	8
650.575	1	10
650.745	1	3
650.914	1	16
651.084	1	1
651.253	1	10
651.423	1	19
651.592	1	15
651.762	1	11
651.931	1	1
652.101	1	5
652.270	1	18
652.440	1	2
652.609	1	8
652.778	1	7
652.948	1	11
653.117	1	5
653.287	1	14
653.456	1	10
653.626	1	3
653.795	1	19
653.965	1	14
654.134	1	11
654.304	1	11
654.473	1	0
654.643	1	20
654.812	1	5
654.982	1	9
655.151	1	6
655.320	1	4
655.490	1	6
655.659	1	17
655.829	1	10
655.998	1	-4
656.168	1	7
656.337	1	15
656.507	1	17
656.676	1	13
656.846	1	11
657.015	1	3
657.184	1	10
657.354	1	14
657.523	1	2
657.693	1	10
657.862	1	20
658.032	1	11
658.201	1	8
658.371	1	8
658.540	1	14
658.709	1	8
658.879	1	-8
659.048	1	3
659.218	1	9
659.387	1	3
659.557	1	5
659.726	1	12
659.895	1	10
660.065	1	13
660.234	1	13
660.404	1	7
660.573	1	17
660.743	1	18
660.912	1	11
661.081	1	16
661.251	1	6
661.420	1	5
661.590	1	2
661.759	1	11
661.929	1	9
662.098	1	1
662.267	1	4
662.437	1	1
662.606	1	20
662.776	1	0
662.945	1	6
663.115	1	15
663.284	1	15
663.453	1	-8
663.623	1	17
663.792	1	16
663.962	1	10
664.131	1	3
664.300	1	7
664.470	1	12
664.639	1	9
664.809	1	2
664.978	1	13
665.148	1	13
665.317	1	8
665.486	1	8
665.656	1	-7
665.825	1	6
665.995	1	6
666.164	1	3
666.333	1	4
666.503	1	12
666.672	1	11
666.842	1	3
667.011	1	9
667.180	1	8
667.350	1	9
667.519	1	8
667.689	1	1
667.858	1	7
668.027	1	17
668.197	1	10
668.366	1	4
668.536	1	13
668.705	1	14
668.874	1	14
669.044	1	13
669.213	1	17
669.382	1	10
669.552	1	10
669.721	1	19
669.891	1	11
670.060	1	13
670.229	1	8
670.399	1	17
670.568	1	5
670.738	1	0
670.907	1	15
671.076	1	6
671.246	1	22
671.415	1	10
671.584	1	10
671.754	1	7
671.923	1	8
672.093	1	14
672.262	1	7
672.431	1	0
672.601	1	9
672.770	1	10
672.939	1	9
673.109	1	5
673.278	1	7
673.448	1	1
673.617	1	-7
673.786	1	11
