325.333	1	20
325.504	1	11
325.675	1	7
325.846	1	11
326.017	1	16
326.188	1	18
326.359	1	8
326.531	1	7
326.702	1	20
326.873	1	16
327.044	1	13
327.215	1	18
327.386	1	13
327.557	1	19
327.728	1	18
327.899	1	25
328.070	1	26
328.241	1	14
328.412	1	16
328.583	1	16
328.754	1	11
328.926	1	16
329.097	1	15
329.268	1	8
329.439	1	14
329.610	1	25
329.781	1	12
329.952	1	25
330.123	1	23
330.294	1	6
330.465	1	16
330.636	1	17
330.807	1	14
330.978	1	20
331.149	1	25
331.320	1	22
331.492	1	18
331.663	1	21
331.834	1	25
332.005	1	18
332.176	1	10
332.347	1	32
332.518	1	14
332.689	1	24
332.860	1	26
333.031	1	12
333.202	1	8
333.373	1	24
333.544	1	13
333.715	1	12
333.886	1	10
334.057	1	23
334.228	1	20
334.399	1	15
334.570	1	22
334.741	1	15
334.912	1	29
335.084	1	14
335.255	1	22
335.426	1	13
335.597	1	27
335.768	1	20
335.939	1	24
336.110	1	18
336.281	1	27
336.452	1	27
336.623	1	18
336.794	1	27
336.965	1	14
337.136	1	20
337.307	1	15
337.478	1	16
337.649	1	13
337.820	1	28
337.991	1	25
338.162	1	17
338.333	1	19
338.504	1	15
338.675	1	21
338.846	1	14
339.017	1	31
339.188	1	11
339.359	1	18
339.530	1	32
339.701	1	21
339.872	1	31
340.043	1	17
340.214	1	18
340.385	1	32
340.556	1	36
340.727	1	16
340.898	1	28
341.069	1	35
341.240	1	30
341.411	1	20
341.582	1	38
341.753	1	25
341.924	1	19
342.095	1	27
342.266	1	28
342.437	1	21
342.608	1	30
342.779	1	12
342.950	1	17
343.121	1	27
343.292	1	27
343.463	1	32
343.634	1	9
343.805	1	28
343.976	1	30
344.147	1	24
344.318	1	20
344.489	1	30
344.660	1	23
344.831	1	27
345.002	1	25
345.173	1	17
345.344	1	37
345.515	1	15
345.686	1	33
345.857	1	26
346.028	1	22
346.199	1	9
346.370	1	27
346.541	1	19
346.712	1	30
346.883	1	20
347.054	1	22
347.225	1	35
347.396	1	15
347.567	1	43
347.738	1	24
347.909	1	21
348.080	1	24
348.251	1	26
348.422	1	29
348.593	1	18
348.764	1	23
348.935	1	28
349.106	1	30
349.277	1	22
349.448	1	32
349.619	1	36
349.790	1	34
349.961	1	26
350.132	1	34
350.303	1	21
350.474	1	16
350.645	1	31
350.816	1	31
350.987	1	34
351.157	1	41
351.328	1	39
351.499	1	28
351.670	1	32
351.841	1	37
352.012	1	19
352.183	1	29
352.354	1	26
352.525	1	32
352.696	1	42
352.867	1	34
353.038	1	33
353.209	1	33
353.380	1	23
353.551	1	22
353.722	1	38
353.893	1	40
354.064	1	32
354.235	1	32
354.406	1	36
354.576	1	40
354.747	1	34
354.918	1	36
355.089	1	35
355.260	1	37
355.431	1	43
355.602	1	33
355.773	1	16
355.944	1	25
356.115	1	40
356.286	1	27
356.457	1	34
356.628	1	36
356.799	1	26
356.970	1	38
357.141	1	24
357.311	1	24
357.482	1	33
357.653	1	36
357.824	1	32
357.995	1	22
358.166	1	31
358.337	1	40
358.508	1	35
358.679	1	42
358.850	1	35
359.021	1	42
359.192	1	39
359.363	1	34
359.533	1	23
359.704	1	46
359.875	1	39
360.046	1	43
360.217	1	41
360.388	1	38
360.559	1	39
360.730	1	34
360.901	1	32
361.072	1	42
361.243	1	26
361.414	1	31
361.584	1	27
361.755	1	27
361.926	1	39
362.097	1	32
362.268	1	30
362.439	1	33
362.610	1	35
362.781	1	33
362.952	1	37
363.123	1	35
363.293	1	35
363.464	1	37
363.635	1	51
363.806	1	33
363.977	1	28
364.148	1	35
364.319	1	37
364.490	1	44
364.661	1	35
364.832	1	46
365.002	1	41
365.173	1	35
365.344	1	28
365.515	1	26
365.686	1	25
365.857	1	26
366.028	1	29
366.199	1	43
366.370	1	29
366.540	1	35
366.711	1	28
366.882	1	26
367.053	1	29
367.224	1	27
367.395	1	39
367.566	1	34
367.737	1	27
367.908	1	30
368.078	1	40
368.249	1	43
368.420	1	37
368.591	1	43
368.762	1	36
368.933	1	27
369.104	1	43
369.274	1	33
369.445	1	42
369.616	1	34
369.787	1	41
369.958	1	37
370.129	1	34
370.300	1	35
370.471	1	38
370.641	1	44
370.812	1	43
370.983	1	28
371.154	1	28
371.325	1	38
371.496	1	41
371.667	1	43
371.837	1	34
372.008	1	21
372.179	1	26
372.350	1	33
372.521	1	32
372.692	1	32
372.863	1	34
373.033	1	31
373.204	1	38
373.375	1	39
373.546	1	43
373.717	1	28
373.888	1	40
374.059	1	38
374.229	1	27
374.400	1	33
374.571	1	42
374.742	1	39
374.913	1	31
375.084	1	47
375.254	1	42
375.425	1	27
375.596	1	40
375.767	1	38
375.938	1	30
376.109	1	40
376.279	1	37
376.450	1	42
376.621	1	38
376.792	1	39
376.963	1	32
377.134	1	40
377.304	1	42
377.475	1	31
377.646	1	39
377.817	1	38
377.988	1	38
378.159	1	40
378.329	1	41
378.500	1	36
378.671	1	37
378.842	1	38
379.013	1	44
379.184	1	35
379.354	1	33
379.525	1	36
379.696	1	45
379.867	1	33
380.038	1	41
380.209	1	42
380.379	1	37
380.550	1	43
380.721	1	32
380.892	1	38
381.063	1	35
381.233	1	48
381.404	1	44
381.575	1	52
381.746	1	55
381.917	1	54
382.087	1	57
382.258	1	45
382.429	1	42
382.600	1	34
382.771	1	46
382.941	1	53
383.112	1	40
383.283	1	48
383.454	1	47
383.625	1	36
383.795	1	48
383.966	1	34
384.137	1	43
384.308	1	42
384.479	1	30
384.649	1	43
384.820	1	60
384.991	1	46
385.162	1	46
385.333	1	49
385.503	1	41
385.674	1	30
385.845	1	53
386.016	1	48
386.187	1	46
386.357	1	49
386.528	1	45
386.699	1	44
386.870	1	47
387.041	1	51
387.211	1	46
387.382	1	36
387.553	1	43
387.724	1	61
387.894	1	48
388.065	1	45
388.236	1	47
388.407	1	48
388.578	1	45
388.748	1	43
388.919	1	44
389.090	1	50
389.261	1	44
389.431	1	43
389.602	1	59
389.773	1	60
389.944	1	61
390.114	1	60
390.285	1	56
390.456	1	43
390.627	1	51
390.798	1	56
390.968	1	62
391.139	1	47
391.310	1	53
391.481	1	58
391.651	1	61
391.822	1	50
391.993	1	48
392.164	1	60
392.334	1	49
392.505	1	54
392.676	1	56
392.847	1	47
393.017	1	50
393.188	1	58
393.359	1	55
393.530	1	54
393.700	1	39
393.871	1	55
394.042	1	47
394.213	1	59
394.383	1	48
394.554	1	64
394.725	1	54
394.896	1	48
395.066	1	49
395.237	1	48
395.408	1	44
395.579	1	46
395.749	1	54
395.920	1	42
396.091	1	58
396.262	1	48
396.432	1	64
396.603	1	59
396.774	1	59
396.945	1	60
397.115	1	51
397.286	1	45
397.457	1	46
397.627	1	49
397.798	1	58
397.969	1	61
398.140	1	60
398.310	1	50
398.481	1	49
398.652	1	47
398.823	1	55
398.993	1	59
399.164	1	58
399.335	1	59
399.505	1	55
399.676	1	65
399.847	1	54
400.018	1	59
400.188	1	50
400.359	1	64
400.530	1	58
400.700	1	60
400.871	1	58
401.042	1	63
401.213	1	57
401.383	1	60
401.554	1	54
401.725	1	73
401.895	1	61
402.066	1	57
402.237	1	63
402.408	1	64
402.578	1	58
402.749	1	59
402.920	1	69
403.090	1	74
403.261	1	77
403.432	1	55
403.603	1	71
403.773	1	59
403.944	1	51
404.115	1	50
404.285	1	69
404.456	1	54
404.627	1	52
404.797	1	58
404.968	1	53
405.139	1	56
405.310	1	71
405.480	1	61
405.651	1	50
405.822	1	57
405.992	1	62
406.163	1	76
406.334	1	75
406.504	1	66
406.675	1	86
406.846	1	66
407.016	1	63
407.187	1	55
407.358	1	71
407.528	1	62
407.699	1	51
407.870	1	70
408.041	1	66
408.211	1	63
408.382	1	69
408.553	1	72
408.723	1	65
408.894	1	61
409.065	1	56
409.235	1	65
409.406	1	60
409.577	1	64
409.747	1	62
409.918	1	61
410.089	1	72
410.259	1	69
410.430	1	82
410.601	1	65
410.771	1	68
410.942	1	72
411.113	1	63
411.283	1	73
411.454	1	71
411.625	1	77
411.795	1	58
411.966	1	81
412.137	1	83
412.307	1	72
412.478	1	77
412.649	1	64
412.819	1	68
412.990	1	74
413.161	1	86
413.331	1	70
413.502	1	62
413.672	1	79
413.843	1	67
414.014	1	72
414.184	1	70
414.355	1	82
414.526	1	64
414.696	1	74
414.867	1	68
415.038	1	75
415.208	1	73
415.379	1	76
415.550	1	72
415.720	1	62
415.891	1	82
416.062	1	62
416.232	1	62
416.403	1	70
416.573	1	76
416.744	1	71
416.915	1	79
417.085	1	66
417.256	1	60
417.427	1	65
417.597	1	71
417.768	1	71
417.939	1	75
418.109	1	71
418.280	1	56
418.450	1	67
418.621	1	71
418.792	1	71
418.962	1	48
419.133	1	67
419.304	1	64
419.474	1	58
419.645	1	73
419.815	1	65
419.986	1	66
420.157	1	65
420.327	1	53
420.498	1	67
420.669	1	76
420.839	1	63
421.010	1	60
421.180	1	73
421.351	1	79
421.522	1	61
421.692	1	74
421.863	1	64
422.033	1	64
422.204	1	61
422.375	1	65
422.545	1	77
422.716	1	67
422.886	1	71
423.057	1	71
423.228	1	69
423.398	1	67
423.569	1	71
423.740	1	70
423.910	1	72
424.081	1	62
424.251	1	59
424.422	1	60
424.593	1	71
424.763	1	82
424.934	1	64
425.104	1	64
425.275	1	65
425.445	1	66
425.616	1	73
425.787	1	68
425.957	1	49
426.128	1	74
426.298	1	82
426.469	1	67
426.640	1	55
426.810	1	77
426.981	1	62
427.151	1	71
427.322	1	74
427.493	1	86
427.663	1	78
427.834	1	72
428.004	1	58
428.175	1	84
428.345	1	67
428.516	1	70
428.687	1	72
428.857	1	62
429.028	1	65
429.198	1	84
429.369	1	74
429.540	1	60
429.710	1	68
429.881	1	47
430.051	1	72
430.222	1	61
430.392	1	54
430.563	1	73
430.734	1	70
430.904	1	63
431.075	1	71
431.245	1	54
431.416	1	71
431.586	1	59
431.757	1	60
431.927	1	77
432.098	1	62
432.269	1	67
432.439	1	68
432.610	1	72
432.780	1	62
432.951	1	66
433.121	1	65
433.292	1	57
433.462	1	64
433.633	1	50
433.804	1	62
433.974	1	73
434.145	1	62
434.315	1	66
434.486	1	80
434.656	1	69
434.827	1	60
434.997	1	71
435.168	1	67
435.339	1	66
435.509	1	69
435.680	1	73
435.850	1	56
436.021	1	68
436.191	1	73
436.362	1	74
436.532	1	73
436.703	1	69
436.873	1	62
437.044	1	62
437.214	1	62
437.385	1	63
437.556	1	68
437.726	1	64
437.897	1	58
438.067	1	57
438.238	1	62
438.408	1	58
438.579	1	64
438.749	1	68
438.920	1	80
439.090	1	63
439.261	1	63
439.431	1	62
439.602	1	59
439.772	1	65
439.943	1	63
440.113	1	66
440.284	1	57
440.455	1	67
440.625	1	80
440.796	1	65
440.966	1	51
441.137	1	56
441.307	1	62
441.478	1	66
441.648	1	55
441.819	1	61
441.989	1	70
442.160	1	54
442.330	1	53
442.501	1	65
442.671	1	58
442.842	1	66
443.012	1	64
443.183	1	61
443.353	1	62
443.524	1	53
443.694	1	61
443.865	1	66
444.035	1	56
444.206	1	58
444.376	1	66
444.547	1	69
444.717	1	47
444.888	1	66
445.058	1	59
445.229	1	53
445.399	1	48
445.570	1	55
445.740	1	44
445.911	1	58
446.081	1	68
446.252	1	56
446.422	1	54
446.593	1	49
446.763	1	46
446.934	1	64
447.104	1	48
447.275	1	62
447.445	1	57
447.616	1	60
447.786	1	56
447.957	1	61
448.127	1	64
448.298	1	43
448.468	1	51
448.639	1	56
448.809	1	66
448.979	1	56
449.150	1	47
449.320	1	54
449.491	1	54
449.661	1	70
449.832	1	54
450.002	1	59
450.173	1	51
450.343	1	55
450.514	1	59
450.684	1	57
450.855	1	58
451.025	1	54
451.196	1	54
451.366	1	59
451.537	1	46
451.707	1	59
451.878	1	49
452.048	1	60
452.218	1	55
452.389	1	60
452.559	1	46
452.730	1	58
452.900	1	57
453.071	1	63
453.241	1	61
453.412	1	50
453.582	1	53
453.753	1	44
453.923	1	50
454.093	1	55
454.264	1	63
454.434	1	66
454.605	1	62
454.775	1	52
454.946	1	63
455.116	1	51
455.287	1	53
455.457	1	46
455.628	1	64
455.798	1	59
455.968	1	67
456.139	1	48
456.309	1	42
456.480	1	48
456.650	1	54
456.821	1	54
456.991	1	47
457.161	1	55
457.332	1	38
457.502	1	42
457.673	1	37
457.843	1	47
458.014	1	52
458.184	1	50
458.355	1	49
458.525	1	38
458.695	1	45
458.866	1	49
459.036	1	47
459.207	1	47
459.377	1	55
459.548	1	42
459.718	1	44
459.888	1	54
460.059	1	54
460.229	1	46
460.400	1	54
460.570	1	44
460.740	1	45
460.911	1	44
461.081	1	46
461.252	1	57
461.422	1	43
461.593	1	34
461.763	1	53
461.933	1	41
462.104	1	45
462.274	1	46
462.445	1	25
462.615	1	45
462.785	1	38
462.956	1	42
463.126	1	50
463.297	1	50
463.467	1	51
463.638	1	43
463.808	1	35
463.978	1	36
464.149	1	45
464.319	1	34
464.490	1	42
464.660	1	43
464.830	1	32
465.001	1	59
465.171	1	43
465.342	1	46
465.512	1	46
465.682	1	50
465.853	1	49
466.023	1	46
466.194	1	39
466.364	1	40
466.534	1	48
466.705	1	43
466.875	1	44
467.045	1	41
467.216	1	41
467.386	1	40
467.557	1	27
467.727	1	35
467.897	1	35
468.068	1	56
468.238	1	38
468.409	1	39
468.579	1	48
468.749	1	40
468.920	1	37
469.090	1	42
469.260	1	39
469.431	1	34
469.601	1	36
469.772	1	35
469.942	1	48
470.112	1	40
470.283	1	46
470.453	1	38
470.623	1	37
470.794	1	45
470.964	1	33
471.135	1	24
471.305	1	43
471.475	1	31
471.646	1	43
471.816	1	48
471.986	1	40
472.157	1	35
472.327	1	35
472.497	1	32
472.668	1	44
472.838	1	25
473.009	1	37
473.179	1	40
473.349	1	41
473.520	1	33
473.690	1	30
473.860	1	41
474.031	1	38
474.201	1	42
474.371	1	28
474.542	1	50
474.712	1	23
474.882	1	51
475.053	1	46
475.223	1	47
475.394	1	42
475.564	1	34
475.734	1	39
475.905	1	31
476.075	1	29
476.245	1	43
476.416	1	33
476.586	1	35
476.756	1	40
476.927	1	46
477.097	1	41
477.267	1	44
477.438	1	25
477.608	1	34
477.778	1	42
477.949	1	27
478.119	1	27
478.289	1	40
478.460	1	42
478.630	1	23
478.800	1	34
478.971	1	40
479.141	1	18
479.311	1	29
479.482	1	35
479.652	1	32
479.822	1	29
479.993	1	36
480.163	1	34
480.333	1	47
480.504	1	39
480.674	1	42
480.844	1	44
481.015	1	27
481.185	1	33
481.355	1	28
481.525	1	38
481.696	1	39
481.866	1	32
482.036	1	40
482.207	1	27
482.377	1	36
482.547	1	36
482.718	1	34
482.888	1	28
483.058	1	31
483.229	1	28
483.399	1	41
483.569	1	31
483.740	1	40
483.910	1	33
484.080	1	32
484.250	1	30
484.421	1	39
484.591	1	32
484.761	1	32
484.932	1	38
485.102	1	30
485.272	1	46
485.443	1	34
485.613	1	35
485.783	1	22
485.953	1	20
486.124	1	23
486.294	1	33
486.464	1	29
486.635	1	29
486.805	1	19
486.975	1	27
487.146	1	28
487.316	1	29
487.486	1	37
487.656	1	36
487.827	1	31
487.997	1	27
488.167	1	28
488.338	1	23
488.508	1	31
488.678	1	17
488.848	1	39
489.019	1	37
489.189	1	24
489.359	1	37
489.529	1	28
489.700	1	13
489.870	1	26
490.040	1	16
490.211	1	19
490.381	1	26
490.551	1	17
490.721	1	27
490.892	1	38
491.062	1	20
491.232	1	29
491.402	1	36
491.573	1	25
491.743	1	25
491.913	1	20
492.084	1	26
492.254	1	42
492.424	1	17
492.594	1	34
492.765	1	25
492.935	1	32
493.105	1	24
493.275	1	19
493.446	1	21
493.616	1	24
493.786	1	24
493.956	1	14
494.127	1	14
494.297	1	25
494.467	1	31
494.637	1	30
494.808	1	16
494.978	1	21
495.148	1	27
495.318	1	9
495.489	1	14
495.659	1	30
495.829	1	26
495.999	1	31
496.170	1	26
496.340	1	37
496.510	1	23
496.680	1	27
496.851	1	17
497.021	1	14
497.191	1	21
497.361	1	19
497.532	1	22
497.702	1	29
497.872	1	22
498.042	1	19
498.213	1	16
498.383	1	30
498.553	1	14
498.723	1	19
498.894	1	23
499.064	1	23
499.234	1	18
499.404	1	23
499.574	1	22
499.745	1	19
499.915	1	13
500.085	1	29
500.255	1	21
500.426	1	19
500.596	1	32
500.766	1	19
500.936	1	21
501.106	1	15
501.277	1	23
501.447	1	21
501.617	1	18
501.787	1	20
501.958	1	25
502.128	1	27
502.298	1	24
502.468	1	23
502.638	1	19
502.809	1	13
502.979	1	14
503.149	1	13
503.319	1	18
503.489	1	19
503.660	1	23
503.830	1	22
504.000	1	18
504.170	1	24
504.340	1	27
504.511	1	32
504.681	1	26
504.851	1	17
505.021	1	15
505.192	1	26
505.362	1	20
505.532	1	16
505.702	1	13
505.872	1	25
506.043	1	13
506.213	1	16
506.383	1	24
506.553	1	5
506.723	1	17
506.893	1	14
507.064	1	14
507.234	1	17
507.404	1	28
507.574	1	18
507.744	1	17
507.915	1	19
508.085	1	10
508.255	1	22
508.425	1	10
508.595	1	15
508.766	1	4
508.936	1	32
509.106	1	14
509.276	1	14
509.446	1	19
509.616	1	16
509.787	1	21
509.957	1	17
510.127	1	14
510.297	1	18
510.467	1	18
510.638	1	16
510.808	1	12
510.978	1	11
511.148	1	29
511.318	1	10
511.488	1	29
511.659	1	20
511.829	1	18
511.999	1	8
512.169	1	6
512.339	1	12
512.509	1	14
512.680	1	15
512.850	1	21
513.020	1	16
513.190	1	17
513.360	1	14
513.530	1	11
513.700	1	11
513.871	1	23
514.041	1	6
514.211	1	20
514.381	1	23
514.551	1	8
514.721	1	11
514.892	1	14
515.062	1	32
515.232	1	21
515.402	1	18
515.572	1	21
515.742	1	26
515.912	1	11
516.083	1	24
516.253	1	25
516.423	1	8
516.593	1	10
516.763	1	18
516.933	1	19
517.104	1	14
517.274	1	20
517.444	1	8
517.614	1	13
517.784	1	16
517.954	1	18
518.124	1	26
518.294	1	19
518.465	1	23
518.635	1	20
518.805	1	11
518.975	1	7
519.145	1	16
519.315	1	7
519.485	1	13
519.656	1	9
519.826	1	7
519.996	1	19
520.166	1	14
520.336	1	15
520.506	1	26
520.676	1	21
520.846	1	16
521.017	1	8
521.187	1	14
521.357	1	17
521.527	1	8
521.697	1	12
521.867	1	11
522.037	1	19
522.207	1	18
522.377	1	16
522.548	1	31
522.718	1	16
522.888	1	23
523.058	1	23
523.228	1	5
523.398	1	21
523.568	1	14
523.738	1	8
523.909	1	20
524.079	1	14
524.249	1	13
524.419	1	6
524.589	1	26
524.759	1	17
524.929	1	3
525.099	1	11
525.269	1	6
525.439	1	25
525.610	1	1
525.780	1	24
525.950	1	19
526.120	1	13
526.290	1	9
526.460	1	18
526.630	1	15
526.800	1	7
526.970	1	13
527.140	1	22
527.311	1	24
527.481	1	7
527.651	1	10
527.821	1	10
527.991	1	17
528.161	1	12
528.331	1	16
528.501	1	9
528.671	1	23
528.841	1	34
529.011	1	16
529.181	1	18
529.352	1	18
529.522	1	19
529.692	1	5
529.862	1	12
530.032	1	13
530.202	1	9
530.372	1	27
530.542	1	10
530.712	1	23
530.882	1	15
531.052	1	11
531.222	1	19
531.392	1	14
531.563	1	7
531.733	1	5
531.903	1	17
532.073	1	14
532.243	1	14
532.413	1	16
532.583	1	14
532.753	1	17
532.923	1	14
533.093	1	15
533.263	1	14
533.433	1	12
533.603	1	4
533.773	1	8
533.943	1	9
534.113	1	21
534.284	1	9
534.454	1	20
534.624	1	20
534.794	1	15
534.964	1	8
535.134	1	14
535.304	1	17
535.474	1	8
535.644	1	17
535.814	1	16
535.984	1	15
536.154	1	13
536.324	1	9
536.494	1	10
536.664	1	14
536.834	1	17
537.004	1	9
537.174	1	13
537.344	1	16
537.514	1	12
537.685	1	14
537.855	1	14
538.025	1	11
538.195	1	14
538.365	1	23
538.535	1	6
538.705	1	-2
538.875	1	14
539.045	1	5
539.215	1	16
539.385	1	11
539.555	1	8
539.725	1	9
539.895	1	9
540.065	1	6
540.235	1	12
540.405	1	2
540.575	1	3
540.745	1	11
540.915	1	10
541.085	1	9
541.255	1	24
541.425	1	4
541.595	1	13
541.765	1	14
541.935	1	11
542.105	1	6
542.275	1	15
542.445	1	18
542.615	1	9
542.785	1	14
542.955	1	12
543.125	1	10
543.295	1	24
543.465	1	8
543.635	1	9
543.805	1	7
543.975	1	4
544.145	1	26
544.315	1	2
544.485	1	13
544.655	1	3
544.825	1	13
544.995	1	20
545.165	1	17
545.335	1	5
545.505	1	7
545.675	1	-2
545.845	1	18
546.015	1	11
546.185	1	9
546.355	1	8
546.525	1	5
546.695	1	15
546.865	1	11
547.035	1	5
547.205	1	16
547.375	1	12
547.545	1	13
547.715	1	13
547.885	1	3
548.055	1	9
548.225	1	10
548.395	1	3
548.565	1	16
548.735	1	5
548.905	1	9
549.075	1	12
549.245	1	15
549.415	1	7
549.585	1	10
549.755	1	9
549.925	1	-4
550.095	1	3
550.265	1	14
550.435	1	5
550.605	1	7
550.775	1	6
550.945	1	9
551.115	1	19
551.285	1	8
551.455	1	19
551.625	1	1
551.795	1	6
551.965	1	8
552.135	1	12
552.305	1	8
552.475	1	5
552.645	1	9
552.815	1	14
552.985	1	13
553.155	1	4
553.325	1	-3
553.495	1	11
553.665	1	3
553.835	1	11
554.004	1	7
554.174	1	6
554.344	1	9
554.514	1	9
554.684	1	3
554.854	1	2
555.024	1	12
555.194	1	2
555.364	1	12
555.534	1	1
555.704	1	24
555.874	1	5
556.044	1	3
556.214	1	8
556.384	1	14
556.554	1	0
556.724	1	11
556.894	1	15
557.064	1	19
557.234	1	0
557.404	1	11
557.573	1	8
557.743	1	7
557.913	1	9
558.083	1	7
558.253	1	5
558.423	1	0
558.593	1	7
558.763	1	15
558.933	1	13
559.103	1	11
559.273	1	3
559.443	1	10
559.613	1	5
559.783	1	0
559.953	1	6
560.122	1	3
560.292	1	23
560.462	1	10
560.632	1	4
560.802	1	13
560.972	1	13
561.142	1	7
561.312	1	-1
561.482	1	10
561.652	1	8
561.822	1	-2
561.992	1	0
562.162	1	17
562.331	1	9
562.501	1	4
562.671	1	11
562.841	1	4
563.011	1	11
563.181	1	13
563.351	1	10
563.521	1	12
563.691	1	13
563.861	1	4
564.031	1	4
564.201	1	18
564.370	1	1
564.540	1	11
564.710	1	7
564.880	1	7
565.050	1	18
565.220	1	7
565.390	1	7
565.560	1	8
565.730	1	5
565.900	1	5
566.069	1	15
566.239	1	8
566.409	1	-5
566.579	1	13
566.749	1	1
566.919	1	4
567.089	1	14
567.259	1	8
567.429	1	10
567.599	1	7
567.768	1	10
567.938	1	7
568.108	1	13
568.278	1	12
568.448	1	20
568.618	1	4
568.788	1	11
568.958	1	6
569.128	1	8
569.297	1	-8
569.467	1	-4
569.637	1	14
569.807	1	12
569.977	1	10
570.147	1	5
570.317	1	4
570.487	1	-2
570.656	1	-7
570.826	1	15
570.996	1	1
571.166	1	13
571.336	1	0
571.506	1	16
571.676	1	15
571.846	1	1
572.015	1	9
572.185	1	15
572.355	1	3
572.525	1	3
572.695	1	14
572.865	1	-3
573.035	1	25
573.205	1	6
573.374	1	12
573.544	1	6
573.714	1	2
573.884	1	6
574.054	1	5
574.224	1	7
574.394	1	2
574.563	1	13
574.733	1	14
574.903	1	7
575.073	1	10
575.243	1	7
575.413	1	-7
575.583	1	6
575.752	1	13
575.922	1	1
576.092	1	-3
576.262	1	5
576.432	1	12
576.602	1	3
576.772	1	5
576.941	1	3
577.111	1	-2
577.281	1	7
577.451	1	9
577.621	1	9
577.791	1	3
577.960	1	0
578.130	1	-1
578.300	1	4
578.470	1	-1
578.640	1	9
578.810	1	3
578.979	1	14
579.149	1	11
579.319	1	7
579.489	1	-2
579.659	1	2
579.829	1	7
579.998	1	9
580.168	1	13
580.338	1	7
580.508	1	10
580.678	1	1
580.848	1	14
581.017	1	15
581.187	1	11
581.357	1	5
581.527	1	-2
581.697	1	2
581.867	1	4
582.036	1	3
582.206	1	11
582.376	1	8
582.546	1	-9
582.716	1	10
582.885	1	-1
583.055	1	12
583.225	1	7
583.395	1	8
583.565	1	5
583.735	1	18
583.904	1	1
584.074	1	3
584.244	1	-1
584.414	1	7
584.584	1	-4
584.753	1	9
584.923	1	5
585.093	1	10
585.263	1	5
585.433	1	4
585.602	1	10
585.772	1	1
585.942	1	16
586.112	1	5
586.282	1	1
586.451	1	12
586.621	1	7
586.791	1	14
586.961	1	5
587.131	1	5
587.300	1	3
587.470	1	-3
587.640	1	14
587.810	1	12
587.980	1	3
588.149	1	10
588.319	1	6
588.489	1	10
588.659	1	3
588.829	1	7
588.998	1	8
589.168	1	21
589.338	1	2
589.508	1	14
589.677	1	7
589.847	1	9
590.017	1	3
590.187	1	9
590.357	1	13
590.526	1	3
590.696	1	1
590.866	1	14
591.036	1	14
591.205	1	-1
591.375	1	0
591.545	1	15
591.715	1	6
591.885	1	11
592.054	1	12
592.224	1	3
592.394	1	9
592.564	1	14
592.733	1	0
592.903	1	4
593.073	1	16
593.243	1	14
593.412	1	10
593.582	1	10
593.752	1	11
593.922	1	4
594.091	1	3
594.261	1	4
594.431	1	27
594.601	1	-1
594.771	1	10
594.940	1	19
595.110	1	5
595.280	1	3
595.450	1	12
595.619	1	10
595.789	1	15
595.959	1	8
596.129	1	-8
596.298	1	17
596.468	1	-3
596.638	1	2
596.808	1	17
596.977	1	18
597.147	1	-4
597.317	1	-1
597.487	1	18
597.656	1	20
597.826	1	9
597.996	1	-1
598.166	1	8
598.335	1	17
598.505	1	1
598.675	1	4
598.844	1	-2
599.014	1	7
599.184	1	8
599.354	1	18
599.523	1	12
599.693	1	11
599.863	1	12
600.033	1	6
600.202	1	17
600.372	1	5
600.542	1	8
600.712	1	4
600.881	1	-3
601.051	1	5
601.221	1	19
601.390	1	-8
601.560	1	13
601.730	1	14
601.900	1	10
602.069	1	5
602.239	1	15
602.409	1	11
602.578	1	4
602.748	1	13
602.918	1	9
603.088	1	11
603.257	1	10
603.427	1	3
603.597	1	6
603.767	1	8
603.936	1	6
604.106	1	5
604.276	1	14
604.445	1	11
604.615	1	7
604.785	1	10
604.954	1	14
605.124	1	-5
605.294	1	6
605.464	1	11
605.633	1	6
605.803	1	11
605.973	1	7
606.142	1	11
606.312	1	2
606.482	1	13
606.652	1	18
606.821	1	16
606.991	1	1
607.161	1	7
607.330	1	1
607.500	1	6
607.670	1	15
607.839	1	6
608.009	1	15
608.179	1	4
608.348	1	10
608.518	1	10
608.688	1	7
608.858	1	14
609.027	1	12
609.197	1	-5
609.367	1	22
609.536	1	9
609.706	1	15
609.876	1	9
610.045	1	11
610.215	1	8
610.385	1	7
610.554	1	4
610.724	1	8
610.894	1	20
611.063	1	6
611.233	1	16
611.403	1	15
611.572	1	11
611.742	1	2
611.912	1	12
612.081	1	7
612.251	1	11
612.421	1	20
612.590	1	7
612.760	1	18
612.930	1	8
613.099	1	10
613.269	1	1
613.439	1	3
613.608	1	12
613.778	1	4
613.948	1	4
614.117	1	11
614.287	1	18
614.457	1	-3
614.626	1	12
614.796	1	14
614.966	1	10
615.135	1	16
615.305	1	11
615.475	1	16
615.644	1	16
615.814	1	7
615.984	1	10
616.153	1	18
616.323	1	10
616.493	1	12
616.662	1	4
616.832	1	12
617.002	1	9
617.171	1	5
617.341	1	7
617.511	1	11
617.680	1	11
617.850	1	5
618.019	1	8
618.189	1	18
618.359	1	10
618.528	1	8
618.698	1	15
618.868	1	8
619.037	1	19
619.207	1	6
619.377	1	22
619.546	1	11
619.716	1	10
619.885	1	4
620.055	1	11
620.225	1	14
620.394	1	11
620.564	1	17
620.734	1	14
620.903	1	16
621.073	1	11
621.242	1	10
621.412	1	13
621.582	1	5
621.751	1	9
621.921	1	12
622.091	1	15
622.260	1	0
622.430	1	13
622.599	1	5
622.769	1	15
622.939	1	9
623.108	1	15
623.278	1	14
623.448	1	10
623.617	1	7
623.787	1	23
623.956	1	11
624.126	1	20
624.296	1	12
624.465	1	16
624.635	1	26
624.804	1	1
624.974	1	16
625.144	1	13
625.313	1	6
625.483	1	29
625.652	1	22
625.822	1	7
625.992	1	22
626.161	1	24
626.331	1	10
626.501	1	13
626.670	1	11
626.840	1	14
627.009	1	16
627.179	1	18
627.348	1	16
627.518	1	19
627.688	1	15
627.857	1	16
628.027	1	-3
628.196	1	7
628.366	1	6
628.536	1	12
628.705	1	13
628.875	1	16
629.044	1	18
629.214	1	6
629.384	1	12
629.553	1	9
629.723	1	5
629.892	1	19
630.062	1	3
630.232	1	15
630.401	1	18
630.571	1	12
630.740	1	17
630.910	1	21
631.079	1	5
631.249	1	5
631.419	1	10
631.588	1	1
631.758	1	18
631.927	1	17
632.097	1	15
632.266	1	8
632.436	1	21
632.606	1	13
632.775	1	16
632.945	1	18
633.114	1	8
633.284	1	14
633.453	1	3
633.623	1	17
633.793	1	8
633.962	1	13
634.132	1	6
634.301	1	12
634.471	1	8
634.640	1	6
634.810	1	14
634.979	1	3
635.149	1	14
635.319	1	21
635.488	1	24
635.658	1	13
635.827	1	18
635.997	1	15
636.166	1	3
636.336	1	12
636.505	1	16
636.675	1	23
636.845	1	18
637.014	1	9
637.184	1	18
637.353	1	10
637.523	1	10
637.692	1	22
637.862	1	27
638.031	1	14
638.201	1	22
638.370	1	17
638.540	1	9
638.710	1	20
638.879	1	13
639.049	1	16
639.218	1	15
639.388	1	16
639.557	1	25
639.727	1	10
639.896	1	13
640.066	1	23
640.235	1	14
640.405	1	14
640.574	1	16
640.744	1	18
640.914	1	16
641.083	1	17
641.253	1	32
641.422	1	18
641.592	1	7
641.761	1	14
641.931	1	15
642.100	1	16
642.270	1	13
642.439	1	9
642.609	1	23
642.778	1	7
642.948	1	12
643.117	1	24
643.287	1	7
643.456	1	18
643.626	1	14
643.795	1	9
643.965	1	26
644.134	1	14
644.304	1	19
644.473	1	15
644.643	1	17
644.812	1	21
644.982	1	14
645.151	1	28
645.321	1	3
645.490	1	11
645.660	1	8
645.829	1	19
645.999	1	22
646.168	1	9
646.338	1	14
646.507	1	29
646.677	1	13
646.846	1	6
647.016	1	7
647.185	1	9
647.355	1	16
647.524	1	12
647.694	1	16
647.863	1	18
648.033	1	4
648.202	1	15
648.372	1	19
648.541	1	11
648.711	1	23
648.880	1	18
649.050	1	2
649.219	1	14
649.389	1	9
649.558	1	11
649.728	1	10
649.897	1	16
650.067	1	14
650.236	1	18
650.406	1	14
650.575	1	16
650.745	1	13
650.914	1	12
651.084	1	8
651.253	1	21
651.423	1	14
651.592	1	22
651.762	1	19
651.931	1	16
652.101	1	10
652.270	1	19
652.440	1	4
652.609	1	21
652.778	1	10
652.948	1	20
653.117	1	5
653.287	1	17
653.456	1	24
653.626	1	5
653.795	1	14
653.965	1	13
654.134	1	15
654.304	1	17
654.473	1	17
654.643	1	18
654.812	1	7
654.982	1	9
655.151	1	6
655.320	1	16
655.490	1	10
655.659	1	6
655.829	1	21
655.998	1	12
656.168	1	13
656.337	1	17
656.507	1	12
656.676	1	21
656.846	1	12
657.015	1	5
657.184	1	16
657.354	1	17
657.523	1	6
657.693	1	19
657.862	1	13
658.032	1	4
658.201	1	8
658.371	1	7
658.540	1	16
658.709	1	8
658.879	1	-7
659.048	1	15
659.218	1	17
659.387	1	11
659.557	1	4
659.726	1	15
659.895	1	20
660.065	1	3
660.234	1	5
660.404	1	16
660.573	1	19
660.743	1	21
660.912	1	7
661.081	1	21
661.251	1	14
661.420	1	14
661.590	1	4
661.759	1	21
661.929	1	16
662.098	1	3
662.267	1	12
662.437	1	17
662.606	1	20
662.776	1	9
662.945	1	20
663.115	1	17
663.284	1	20
663.453	1	11
663.623	1	29
663.792	1	21
663.962	1	12
664.131	1	9
664.300	1	12
664.470	1	15
664.639	1	8
664.809	1	3
664.978	1	9
665.148	1	13
665.317	1	10
665.486	1	13
665.656	1	6
665.825	1	11
665.995	1	4
666.164	1	8
666.333	1	11
666.503	1	22
666.672	1	13
666.842	1	4
667.011	1	22
667.180	1	20
667.350	1	14
667.519	1	14
667.689	1	8
667.858	1	19
668.027	1	22
668.197	1	13
668.366	1	9
668.536	1	19
668.705	1	18
668.874	1	18
669.044	1	15
669.213	1	11
669.382	1	11
669.552	1	22
669.721	1	26
669.891	1	8
670.060	1	22
670.229	1	13
670.399	1	18
670.568	1	13
670.738	1	7
670.907	1	15
671.076	1	4
671.246	1	19
671.415	1	15
671.584	1	8
671.754	1	12
671.923	1	23
672.093	1	17
672.262	1	15
672.431	1	3
672.601	1	18
672.770	1	15
672.939	1	8
673.109	1	17
673.278	1	26
673.448	1	4
673.617	1	1
673.786	1	15
