325.333	1	10
325.504	1	6
325.675	1	9
325.846	1	13
326.017	1	13
326.188	1	26
326.359	1	5
326.531	1	0
326.702	1	14
326.873	1	14
327.044	1	13
327.215	1	8
327.386	1	6
327.557	1	4
327.728	1	9
327.899	1	23
328.070	1	15
328.241	1	20
328.412	1	9
328.583	1	9
328.754	1	4
328.926	1	10
329.097	1	5
329.268	1	7
329.439	1	10
329.610	1	16
329.781	1	0
329.952	1	16
330.123	1	15
330.294	1	-10
330.465	1	4
330.636	1	9
330.807	1	9
330.978	1	7
331.149	1	11
331.320	1	10
331.492	1	19
331.663	1	9
331.834	1	11
332.005	1	14
332.176	1	4
332.347	1	13
332.518	1	11
332.689	1	8
332.860	1	4
333.031	1	10
333.202	1	4
333.373	1	14
333.544	1	6
333.715	1	10
333.886	1	6
334.057	1	7
334.228	1	11
334.399	1	21
334.570	1	9
334.741	1	13
334.912	1	15
335.084	1	4
335.255	1	12
335.426	1	-2
335.597	1	11
335.768	1	9
335.939	1	13
336.110	1	14
336.281	1	17
336.452	1	14
336.623	1	13
336.794	1	6
336.965	1	5
337.136	1	11
337.307	1	3
337.478	1	12
337.649	1	17
337.820	1	19
337.991	1	13
338.162	1	10
338.333	1	12
338.504	1	1
338.675	1	4
338.846	1	13
339.017	1	13
339.188	1	5
339.359	1	11
339.530	1	11
339.701	1	9
339.872	1	12
340.043	1	6
340.214	1	-4
340.385	1	11
340.556	1	4
340.727	1	16
340.898	1	15
341.069	1	17
341.240	1	20
341.411	1	-4
341.582	1	16
341.753	1	-1
341.924	1	8
342.095	1	20
342.266	1	21
342.437	1	25
342.608	1	16
342.779	1	6
342.950	1	8
343.121	1	12
343.292	1	1
343.463	1	8
343.634	1	0
343.805	1	3
343.976	1	7
344.147	1	22
344.318	1	13
344.489	1	14
344.660	1	19
344.831	1	16
345.002	1	16
345.173	1	10
345.344	1	18
345.515	1	0
345.686	1	22
345.857	1	8
346.028	1	16
346.199	1	12
346.370	1	4
346.541	1	4
346.712	1	11
346.883	1	15
347.054	1	8
347.225	1	5
347.396	1	1
347.567	1	24
347.738	1	3
347.909	1	9
348.080	1	11
348.251	1	11
348.422	1	15
348.593	1	4
348.764	1	15
348.935	1	6
349.106	1	11
349.277	1	11
349.448	1	12
349.619	1	1
349.790	1	17
349.961	1	15
350.132	1	12
350.303	1	13
350.474	1	-1
350.645	1	12
350.816	1	10
350.987	1	9
351.157	1	13
351.328	1	19
351.499	1	13
351.670	1	10
351.841	1	20
352.012	1	15
352.183	1	6
352.354	1	4
352.525	1	6
352.696	1	19
352.867	1	8
353.038	1	6
353.209	1	9
353.380	1	1
353.551	1	1
353.722	1	11
353.893	1	0
354.064	1	7
354.235	1	5
354.406	1	19
354.576	1	14
354.747	1	12
354.918	1	15
355.089	1	12
355.260	1	15
355.431	1	14
355.602	1	16
355.773	1	3
355.944	1	5
356.115	1	12
356.286	1	18
356.457	1	11
356.628	1	14
356.799	1	11
356.970	1	18
357.141	1	6
357.311	1	15
357.482	1	20
357.653	1	15
357.824	1	6
357.995	1	8
358.166	1	11
358.337	1	12
358.508	1	5
358.679	1	17
358.850	1	7
359.021	1	18
359.192	1	19
359.363	1	15
359.533	1	2
359.704	1	18
359.875	1	11
360.046	1	4
360.217	1	9
360.388	1	5
360.559	1	13
360.730	1	11
360.901	1	5
361.072	1	7
361.243	1	7
361.414	1	1
361.584	1	-3
361.755	1	7
361.926	1	1
362.097	1	15
362.268	1	10
362.439	1	13
362.610	1	11
362.781	1	17
362.952	1	18
363.123	1	15
363.293	1	-1
363.464	1	17
363.635	1	14
363.806	1	1
363.977	1	16
364.148	1	3
364.319	1	11
364.490	1	19
364.661	1	10
364.832	1	14
365.002	1	12
365.173	1	-3
365.344	1	9
365.515	1	2
365.686	1	4
365.857	1	16
366.028	1	6
366.199	1	5
366.370	1	16
366.540	1	4
366.711	1	0
366.882	1	4
367.053	1	6
367.224	1	13
367.395	1	7
367.566	1	5
367.737	1	-4
367.908	1	3
368.078	1	17
368.249	1	22
368.420	1	15
368.591	1	7
368.762	1	-2
368.933	1	-1
369.104	1	17
369.274	1	-6
369.445	1	12
369.616	1	0
369.787	1	18
369.958	1	12
370.129	1	4
370.300	1	8
370.471	1	17
370.641	1	4
370.812	1	8
370.983	1	1
371.154	1	13
371.325	1	0
371.496	1	12
371.667	1	11
371.837	1	14
372.008	1	-2
372.179	1	4
372.350	1	2
372.521	1	9
372.692	1	3
372.863	1	0
373.033	1	11
373.204	1	5
373.375	1	9
373.546	1	21
373.717	1	4
373.888	1	13
374.059	1	14
374.229	1	8
374.400	1	9
374.571	1	10
374.742	1	9
374.913	1	14
375.084	1	15
375.254	1	8
375.425	1	6
375.596	1	8
375.767	1	2
375.938	1	1
376.109	1	16
376.279	1	10
376.450	1	14
376.621	1	14
376.792	1	11
376.963	1	4
377.134	1	17
377.304	1	19
377.475	1	13
377.646	1	12
377.817	1	8
377.988	1	10
378.159	1	21
378.329	1	6
378.500	1	21
378.671	1	14
378.842	1	5
379.013	1	7
379.184	1	-5
379.354	1	7
379.525	1	9
379.696	1	19
379.867	1	9
380.038	1	22
380.209	1	4
380.379	1	19
380.550	1	13
380.721	1	5
380.892	1	2
381.063	1	10
381.233	1	11
381.404	1	19
381.575	1	7
381.746	1	23
381.917	1	6
382.087	1	15
382.258	1	25
382.429	1	11
382.600	1	7
382.771	1	12
382.941	1	21
383.112	1	11
383.283	1	20
383.454	1	9
383.625	1	-5
383.795	1	18
383.966	1	8
384.137	1	13
384.308	1	7
384.479	1	6
384.649	1	16
384.820	1	11
384.991	1	12
385.162	1	18
385.333	1	18
385.503	1	8
385.674	1	3
385.845	1	23
386.016	1	9
386.187	1	15
386.357	1	11
386.528	1	0
386.699	1	21
386.870	1	17
387.041	1	31
387.211	1	12
387.382	1	10
387.553	1	19
387.724	1	18
387.894	1	17
388.065	1	21
388.236	1	7
388.407	1	23
388.578	1	15
388.748	1	22
388.919	1	5
389.090	1	19
389.261	1	14
389.431	1	21
389.602	1	17
389.773	1	17
389.944	1	28
390.114	1	23
390.285	1	7
390.456	1	8
390.627	1	9
390.798	1	14
390.968	1	21
391.139	1	5
391.310	1	18
391.481	1	12
391.651	1	20
391.822	1	23
391.993	1	13
392.164	1	19
392.334	1	-5
392.505	1	19
392.676	1	26
392.847	1	16
393.017	1	26
393.188	1	19
393.359	1	17
393.530	1	12
393.700	1	2
393.871	1	2
394.042	1	24
394.213	1	11
394.383	1	19
394.554	1	23
394.725	1	13
394.896	1	18
395.066	1	12
395.237	1	15
395.408	1	16
395.579	1	12
395.749	1	12
395.920	1	9
396.091	1	20
396.262	1	10
396.432	1	17
396.603	1	18
396.774	1	15
396.945	1	16
397.115	1	10
397.286	1	13
397.457	1	16
397.627	1	11
397.798	1	11
397.969	1	25
398.140	1	14
398.310	1	15
398.481	1	11
398.652	1	14
398.823	1	15
398.993	1	23
399.164	1	18
399.335	1	30
399.505	1	14
399.676	1	16
399.847	1	27
400.018	1	27
400.188	1	17
400.359	1	12
400.530	1	28
400.700	1	19
400.871	1	18
401.042	1	13
401.213	1	18
401.383	1	12
401.554	1	16
401.725	1	16
401.895	1	11
402.066	1	17
402.237	1	16
402.408	1	27
402.578	1	25
402.749	1	10
402.920	1	13
403.090	1	26
403.261	1	26
403.432	1	15
403.603	1	24
403.773	1	17
403.944	1	28
404.115	1	13
404.285	1	16
404.456	1	30
404.627	1	20
404.797	1	27
404.968	1	25
405.139	1	22
405.310	1	29
405.480	1	13
405.651	1	4
405.822	1	22
405.992	1	15
406.163	1	29
406.334	1	17
406.504	1	18
406.675	1	35
406.846	1	25
407.016	1	23
407.187	1	14
407.358	1	22
407.528	1	15
407.699	1	16
407.870	1	19
408.041	1	24
408.211	1	22
408.382	1	19
408.553	1	24
408.723	1	18
408.894	1	20
409.065	1	16
409.235	1	25
409.406	1	9
409.577	1	20
409.747	1	13
409.918	1	6
410.089	1	18
410.259	1	21
410.430	1	20
410.601	1	24
410.771	1	21
410.942	1	27
411.113	1	29
411.283	1	29
411.454	1	30
411.625	1	26
411.795	1	10
411.966	1	33
412.137	1	22
412.307	1	18
412.478	1	20
412.649	1	19
412.819	1	29
412.990	1	30
413.161	1	28
413.331	1	29
413.502	1	38
413.672	1	22
413.843	1	25
414.014	1	26
414.184	1	14
414.355	1	20
414.526	1	20
414.696	1	16
414.867	1	9
415.038	1	19
415.208	1	26
415.379	1	30
415.550	1	28
415.720	1	15
415.891	1	35
416.062	1	19
416.232	1	7
416.403	1	29
416.573	1	28
416.744	1	21
416.915	1	35
417.085	1	12
417.256	1	17
417.427	1	19
417.597	1	24
417.768	1	18
417.939	1	23
418.109	1	18
418.280	1	16
418.450	1	29
418.621	1	25
418.792	1	28
418.962	1	16
419.133	1	20
419.304	1	21
419.474	1	21
419.645	1	19
419.815	1	10
419.986	1	25
420.157	1	21
420.327	1	15
420.498	1	30
420.669	1	31
420.839	1	8
421.010	1	20
421.180	1	23
421.351	1	21
421.522	1	21
421.692	1	27
421.863	1	26
422.033	1	16
422.204	1	19
422.375	1	15
422.545	1	17
422.716	1	21
422.886	1	18
423.057	1	15
423.228	1	23
423.398	1	29
423.569	1	21
423.740	1	19
423.910	1	22
424.081	1	14
424.251	1	19
424.422	1	15
424.593	1	18
424.763	1	14
424.934	1	23
425.104	1	14
425.275	1	33
425.445	1	19
425.616	1	17
425.787	1	18
425.957	1	17
426.128	1	19
426.298	1	26
426.469	1	14
426.640	1	13
426.810	1	33
426.981	1	22
427.151	1	34
427.322	1	28
427.493	1	26
427.663	1	34
427.834	1	20
428.004	1	12
428.175	1	24
428.345	1	17
428.516	1	28
428.687	1	25
428.857	1	13
429.028	1	22
429.198	1	25
429.369	1	26
429.540	1	21
429.710	1	17
429.881	1	9
430.051	1	24
430.222	1	21
430.392	1	12
430.563	1	30
430.734	1	28
430.904	1	18
431.075	1	27
431.245	1	26
431.416	1	27
431.586	1	17
431.757	1	18
431.927	1	38
432.098	1	5
432.269	1	20
432.439	1	29
432.610	1	32
432.780	1	15
432.951	1	26
433.121	1	35
433.292	1	10
433.462	1	22
433.633	1	10
433.804	1	17
433.974	1	28
434.145	1	8
434.315	1	29
434.486	1	28
434.656	1	28
434.827	1	28
434.997	1	24
435.168	1	19
435.339	1	27
435.509	1	19
435.680	1	24
435.850	1	15
436.021	1	20
436.191	1	19
436.362	1	17
436.532	1	29
436.703	1	20
436.873	1	14
437.044	1	3
437.214	1	5
437.385	1	26
437.556	1	15
437.726	1	34
437.897	1	30
438.067	1	19
438.238	1	24
438.408	1	21
438.579	1	17
438.749	1	12
438.920	1	26
439.090	1	8
439.261	1	16
439.431	1	15
439.602	1	19
439.772	1	28
439.943	1	28
440.113	1	24
440.284	1	10
440.455	1	33
440.625	1	29
440.796	1	22
440.966	1	18
441.137	1	15
441.307	1	17
441.478	1	14
441.648	1	18
441.819	1	23
441.989	1	22
442.160	1	17
442.330	1	25
442.501	1	14
442.671	1	19
442.842	1	15
443.012	1	20
443.183	1	16
443.353	1	34
443.524	1	9
443.694	1	19
443.865	1	38
444.035	1	21
444.206	1	18
444.376	1	31
444.547	1	26
444.717	1	19
444.888	1	29
445.058	1	24
445.229	1	11
445.399	1	17
445.570	1	2
445.740	1	15
445.911	1	24
446.081	1	24
446.252	1	21
446.422	1	21
446.593	1	7
446.763	1	15
446.934	1	11
447.104	1	15
447.275	1	21
447.445	1	18
447.616	1	8
447.786	1	18
447.957	1	26
448.127	1	22
448.298	1	19
448.468	1	17
448.639	1	9
448.809	1	25
448.979	1	8
449.150	1	15
449.320	1	11
449.491	1	20
449.661	1	32
449.832	1	25
450.002	1	20
450.173	1	18
450.343	1	20
450.514	1	18
450.684	1	22
450.855	1	22
451.025	1	23
451.196	1	16
451.366	1	18
451.537	1	13
451.707	1	20
451.878	1	6
452.048	1	17
452.218	1	29
452.389	1	15
452.559	1	6
452.730	1	21
452.900	1	12
453.071	1	14
453.241	1	22
453.412	1	22
453.582	1	19
453.753	1	12
453.923	1	16
454.093	1	31
454.264	1	21
454.434	1	34
454.605	1	22
454.775	1	14
454.946	1	28
455.116	1	20
455.287	1	17
455.457	1	13
455.628	1	14
455.798	1	18
455.968	1	23
456.139	1	8
456.309	1	22
456.480	1	28
456.650	1	31
456.821	1	23
456.991	1	22
457.161	1	21
457.332	1	16
457.502	1	10
457.673	1	3
457.843	1	19
458.014	1	8
458.184	1	17
458.355	1	5
458.525	1	10
458.695	1	9
458.866	1	15
459.036	1	20
459.207	1	4
459.377	1	27
459.548	1	12
459.718	1	16
459.888	1	22
460.059	1	14
460.229	1	16
460.400	1	23
460.570	1	19
460.740	1	15
460.911	1	18
461.081	1	-4
461.252	1	25
461.422	1	10
461.593	1	10
461.763	1	18
461.933	1	14
462.104	1	17
462.274	1	25
462.445	1	11
462.615	1	13
462.785	1	14
462.956	1	15
463.126	1	13
463.297	1	13
463.467	1	24
463.638	1	2
463.808	1	6
463.978	1	15
464.149	1	20
464.319	1	6
464.490	1	11
464.660	1	21
464.830	1	14
465.001	1	26
465.171	1	7
465.342	1	26
465.512	1	17
465.682	1	19
465.853	1	7
466.023	1	11
466.194	1	22
466.364	1	9
466.534	1	18
466.705	1	7
466.875	1	15
467.045	1	9
467.216	1	14
467.386	1	11
467.557	1	12
467.727	1	10
467.897	1	-2
468.068	1	18
468.238	1	11
468.409	1	12
468.579	1	10
468.749	1	4
468.920	1	6
469.090	1	17
469.260	1	1
469.431	1	3
469.601	1	13
469.772	1	2
469.942	1	24
470.112	1	22
470.283	1	19
470.453	1	19
470.623	1	8
470.794	1	11
470.964	1	0
471.135	1	18
471.305	1	9
471.475	1	11
471.646	1	13
471.816	1	15
471.986	1	15
472.157	1	5
472.327	1	4
472.497	1	5
472.668	1	9
472.838	1	12
473.009	1	24
473.179	1	8
473.349	1	8
473.520	1	16
473.690	1	4
473.860	1	18
474.031	1	9
474.201	1	9
474.371	1	7
474.542	1	16
474.712	1	3
474.882	1	21
475.053	1	13
475.223	1	21
475.394	1	14
475.564	1	10
475.734	1	5
475.905	1	8
476.075	1	8
476.245	1	21
476.416	1	8
476.586	1	10
476.756	1	19
476.927	1	12
477.097	1	21
477.267	1	10
477.438	1	-7
477.608	1	17
477.778	1	12
477.949	1	5
478.119	1	12
478.289	1	21
478.460	1	21
478.630	1	5
478.800	1	10
478.971	1	20
479.141	1	10
479.311	1	15
479.482	1	9
479.652	1	15
479.822	1	9
479.993	1	10
480.163	1	5
480.333	1	14
480.504	1	5
480.674	1	1
480.844	1	9
481.015	1	8
481.185	1	12
481.355	1	6
481.525	1	19
481.696	1	24
481.866	1	0
482.036	1	9
482.207	1	4
482.377	1	6
482.547	1	6
482.718	1	14
482.888	1	10
483.058	1	15
483.229	1	10
483.399	1	9
483.569	1	7
483.740	1	0
483.910	1	1
484.080	1	12
484.250	1	9
484.421	1	6
484.591	1	18
484.761	1	7
484.932	1	12
485.102	1	7
485.272	1	8
485.443	1	11
485.613	1	14
485.783	1	7
485.953	1	6
486.124	1	-2
486.294	1	14
486.464	1	10
486.635	1	11
486.805	1	5
486.975	1	7
487.146	1	6
487.316	1	8
487.486	1	6
487.656	1	5
487.827	1	11
487.997	1	6
488.167	1	12
488.338	1	-5
488.508	1	9
488.678	1	5
488.848	1	10
489.019	1	13
489.189	1	11
489.359	1	7
489.529	1	-8
489.700	1	-3
489.870	1	7
490.040	1	-1
490.211	1	14
490.381	1	-2
490.551	1	-3
490.721	1	7
490.892	1	19
491.062	1	8
491.232	1	9
491.402	1	9
491.573	1	4
491.743	1	4
491.913	1	15
492.084	1	-3
492.254	1	13
492.424	1	0
492.594	1	15
492.765	1	4
492.935	1	15
493.105	1	12
493.275	1	2
493.446	1	10
493.616	1	2
493.786	1	10
493.956	1	3
494.127	1	10
494.297	1	2
494.467	1	7
494.637	1	9
494.808	1	9
494.978	1	8
495.148	1	6
495.318	1	-6
495.489	1	4
495.659	1	8
495.829	1	12
495.999	1	6
496.170	1	14
496.340	1	15
496.510	1	6
496.680	1	6
496.851	1	5
497.021	1	-7
497.191	1	3
497.361	1	0
497.532	1	4
497.702	1	12
497.872	1	6
498.042	1	6
498.213	1	4
498.383	1	13
498.553	1	-1
498.723	1	-2
498.894	1	15
499.064	1	13
499.234	1	-6
499.404	1	7
499.574	1	19
499.745	1	8
499.915	1	1
500.085	1	1
500.255	1	17
500.426	1	2
500.596	1	10
500.766	1	11
500.936	1	9
501.106	1	17
501.277	1	11
501.447	1	1
501.617	1	-3
501.787	1	14
501.958	1	9
502.128	1	17
502.298	1	1
502.468	1	10
502.638	1	0
502.809	1	8
502.979	1	-1
503.149	1	-1
503.319	1	4
503.489	1	11
503.660	1	0
503.830	1	9
504.000	1	18
504.170	1	5
504.340	1	9
504.511	1	5
504.681	1	13
504.851	1	9
505.021	1	3
505.192	1	-1
505.362	1	3
505.532	1	1
505.702	1	0
505.872	1	14
506.043	1	0
506.213	1	4
506.383	1	15
506.553	1	3
506.723	1	12
506.893	1	3
507.064	1	5
507.234	1	4
507.404	1	14
507.574	1	7
507.744	1	2
507.915	1	-4
508.085	1	-4
508.255	1	10
508.425	1	-1
508.595	1	4
508.766	1	-2
508.936	1	16
509.106	1	-5
509.276	1	6
509.446	1	6
509.616	1	3
509.787	1	14
509.957	1	8
510.127	1	6
510.297	1	2
510.467	1	5
510.638	1	2
510.808	1	-6
510.978	1	3
511.148	1	12
511.318	1	2
511.488	1	15
511.659	1	8
511.829	1	12
511.999	1	-5
512.169	1	6
512.339	1	-1
512.509	1	12
512.680	1	-4
512.850	1	2
513.020	1	14
513.190	1	6
513.360	1	4
513.530	1	0
513.700	1	1
513.871	1	0
514.041	1	-2
514.211	1	6
514.381	1	5
514.551	1	6
514.721	1	-9
514.892	1	5
515.062	1	17
515.232	1	7
515.402	1	11
515.572	1	2
515.742	1	9
515.912	1	0
516.083	1	7
516.253	1	9
516.423	1	-9
516.593	1	4
516.763	1	12
516.933	1	11
517.104	1	2
517.274	1	11
517.444	1	1
517.614	1	16
517.784	1	0
517.954	1	8
518.124	1	4
518.294	1	10
518.465	1	4
518.635	1	0
518.805	1	-1
518.975	1	4
519.145	1	0
519.315	1	5
519.485	1	7
519.656	1	2
519.826	1	-7
519.996	1	6
520.166	1	-7
520.336	1	-5
520.506	1	4
520.676	1	12
520.846	1	-4
521.017	1	-2
521.187	1	5
521.357	1	10
521.527	1	1
521.697	1	2
521.867	1	-2
522.037	1	0
522.207	1	12
522.377	1	3
522.548	1	1
522.718	1	8
522.888	1	13
523.058	1	11
523.228	1	4
523.398	1	5
523.568	1	4
523.738	1	-3
523.909	1	4
524.079	1	-6
524.249	1	-2
524.419	1	11
524.589	1	6
524.759	1	15
524.929	1	-1
525.099	1	-1
525.269	1	-11
525.439	1	8
525.610	1	-13
525.780	1	3
525.950	1	16
526.120	1	-13
526.290	1	8
526.460	1	8
526.630	1	4
526.800	1	5
526.970	1	5
527.140	1	15
527.311	1	11
527.481	1	-5
527.651	1	-2
527.821	1	-3
527.991	1	-9
528.161	1	-3
528.331	1	8
528.501	1	0
528.671	1	3
528.841	1	20
529.011	1	0
529.181	1	2
529.352	1	10
529.522	1	-1
529.692	1	-5
529.862	1	5
530.032	1	5
530.202	1	12
530.372	1	6
530.542	1	1
530.712	1	15
530.882	1	11
531.052	1	-7
531.222	1	2
531.392	1	4
531.563	1	-3
531.733	1	3
531.903	1	7
532.073	1	6
532.243	1	11
532.413	1	-3
532.583	1	6
532.753	1	7
532.923	1	2
533.093	1	0
533.263	1	3
533.433	1	5
533.603	1	7
533.773	1	7
533.943	1	3
534.113	1	7
534.284	1	-11
534.454	1	-8
534.624	1	16
534.794	1	11
534.964	1	6
535.134	1	13
535.304	1	12
535.474	1	1
535.644	1	1
535.814	1	9
535.984	1	-4
536.154	1	4
536.324	1	-2
536.494	1	5
536.664	1	4
536.834	1	4
537.004	1	10
537.174	1	-1
537.344	1	1
537.514	1	1
537.685	1	-3
537.855	1	-2
538.025	1	4
538.195	1	9
538.365	1	13
538.535	1	2
538.705	1	2
538.875	1	0
539.045	1	10
539.215	1	5
539.385	1	0
539.555	1	0
539.725	1	-4
539.895	1	6
540.065	1	4
540.235	1	1
540.405	1	-1
540.575	1	-1
540.745	1	-7
540.915	1	11
541.085	1	-4
541.255	1	4
541.425	1	-3
541.595	1	5
541.765	1	18
541.935	1	7
542.105	1	-2
542.275	1	1
542.445	1	6
542.615	1	-2
542.785	1	-3
542.955	1	-3
543.125	1	4
543.295	1	9
543.465	1	1
543.635	1	4
543.805	1	-5
543.975	1	-2
544.145	1	12
544.315	1	-9
544.485	1	4
544.655	1	4
544.825	1	2
544.995	1	1
545.165	1	-2
545.335	1	-9
545.505	1	4
545.675	1	-12
545.845	1	6
546.015	1	3
546.185	1	-9
546.355	1	-9
546.525	1	-2
546.695	1	-4
546.865	1	11
547.035	1	3
547.205	1	11
547.375	1	9
547.545	1	0
547.715	1	0
547.885	1	1
548.055	1	10
548.225	1	10
548.395	1	0
548.565	1	16
548.735	1	1
548.905	1	10
549.075	1	6
549.245	1	4
549.415	1	-4
549.585	1	-7
549.755	1	12
549.925	1	0
550.095	1	2
550.265	1	13
550.435	1	-6
550.605	1	5
550.775	1	10
550.945	1	-9
551.115	1	12
551.285	1	3
551.455	1	-3
551.625	1	-8
551.795	1	-2
551.965	1	-4
552.135	1	1
552.305	1	-1
552.475	1	5
552.645	1	1
552.815	1	3
552.985	1	-14
553.155	1	2
553.325	1	-3
553.495	1	0
553.665	1	4
553.835	1	12
554.004	1	9
554.174	1	-4
554.344	1	4
554.514	1	7
554.684	1	-4
554.854	1	2
555.024	1	3
555.194	1	10
555.364	1	9
555.534	1	-1
555.704	1	4
555.874	1	-4
556.044	1	5
556.214	1	13
556.384	1	8
556.554	1	2
556.724	1	12
556.894	1	9
557.064	1	12
557.234	1	1
557.404	1	8
557.573	1	-5
557.743	1	-5
557.913	1	12
558.083	1	2
558.253	1	2
558.423	1	-2
558.593	1	3
558.763	1	15
558.933	1	0
559.103	1	6
559.273	1	-9
559.443	1	11
559.613	1	-2
559.783	1	-2
559.953	1	4
560.122	1	4
560.292	1	17
560.462	1	2
560.632	1	3
560.802	1	1
560.972	1	-3
561.142	1	-7
561.312	1	6
561.482	1	-10
561.652	1	4
561.822	1	-1
561.992	1	-14
562.162	1	2
562.331	1	11
562.501	1	-10
562.671	1	5
562.841	1	-7
563.011	1	6
563.181	1	11
563.351	1	2
563.521	1	-7
563.691	1	4
563.861	1	1
564.031	1	-1
564.201	1	6
564.370	1	7
564.540	1	0
564.710	1	1
564.880	1	-1
565.050	1	13
565.220	1	1
565.390	1	8
565.560	1	6
565.730	1	1
565.900	1	11
566.069	1	0
566.239	1	2
566.409	1	-12
566.579	1	10
566.749	1	-6
566.919	1	4
567.089	1	8
567.259	1	2
567.429	1	5
567.599	1	4
567.768	1	8
567.938	1	-4
568.108	1	5
568.278	1	8
568.448	1	8
568.618	1	-6
568.788	1	0
568.958	1	3
569.128	1	-2
569.297	1	-2
569.467	1	-6
569.637	1	0
569.807	1	8
569.977	1	1
570.147	1	4
570.317	1	8
570.487	1	-1
570.656	1	-9
570.826	1	-2
570.996	1	-11
571.166	1	6
571.336	1	1
571.506	1	4
571.676	1	12
571.846	1	5
572.015	1	-4
572.185	1	5
572.355	1	3
572.525	1	-10
572.695	1	4
572.865	1	-14
573.035	1	12
573.205	1	9
573.374	1	9
573.544	1	11
573.714	1	-2
573.884	1	5
574.054	1	2
574.224	1	-6
574.394	1	-4
574.563	1	-9
574.733	1	4
574.903	1	9
575.073	1	-5
575.243	1	-3
575.413	1	-6
575.583	1	5
575.752	1	4
575.922	1	2
576.092	1	-4
576.262	1	5
576.432	1	-3
576.602	1	-9
576.772	1	8
576.941	1	-8
577.111	1	7
577.281	1	-4
577.451	1	8
577.621	1	-2
577.791	1	15
577.960	1	2
578.130	1	-1
578.300	1	-5
578.470	1	-5
578.640	1	3
578.810	1	-1
578.979	1	9
579.149	1	1
579.319	1	5
579.489	1	-10
579.659	1	-2
579.829	1	-2
579.998	1	-4
580.168	1	9
580.338	1	4
580.508	1	16
580.678	1	1
580.848	1	5
581.017	1	16
581.187	1	2
581.357	1	-4
581.527	1	-2
581.697	1	4
581.867	1	1
582.036	1	-9
582.206	1	8
582.376	1	5
582.546	1	-8
582.716	1	0
582.885	1	-9
583.055	1	14
583.225	1	-7
583.395	1	18
583.565	1	4
583.735	1	14
583.904	1	-1
584.074	1	-6
584.244	1	-7
584.414	1	5
584.584	1	-1
584.753	1	16
584.923	1	5
585.093	1	13
585.263	1	-5
585.433	1	3
585.602	1	-4
585.772	1	-11
585.942	1	1
586.112	1	-2
586.282	1	2
586.451	1	12
586.621	1	14
586.791	1	8
586.961	1	-1
587.131	1	-3
587.300	1	0
587.470	1	-8
587.640	1	10
587.810	1	10
587.980	1	8
588.149	1	4
588.319	1	7
588.489	1	-7
588.659	1	4
588.829	1	3
588.998	1	4
589.168	1	10
589.338	1	10
589.508	1	1
589.677	1	4
589.847	1	8
590.017	1	1
590.187	1	4
590.357	1	8
590.526	1	-6
590.696	1	2
590.866	1	8
591.036	1	12
591.205	1	6
591.375	1	-7
591.545	1	9
591.715	1	2
591.885	1	2
592.054	1	-4
592.224	1	4
592.394	1	-3
592.564	1	3
592.733	1	-5
592.903	1	-2
593.073	1	0
593.243	1	10
593.412	1	4
593.582	1	8
593.752	1	-3
593.922	1	2
594.091	1	2
594.261	1	-1
594.431	1	15
594.601	1	-6
594.771	1	15
594.940	1	11
595.110	1	3
595.280	1	2
595.450	1	6
595.619	1	6
595.789	1	5
595.959	1	8
596.129	1	-2
596.298	1	6
596.468	1	-7
596.638	1	4
596.808	1	9
596.977	1	0
597.147	1	-1
597.317	1	-4
597.487	1	10
597.656	1	-3
597.826	1	4
597.996	1	3
598.166	1	5
598.335	1	7
598.505	1	7
598.675	1	0
598.844	1	8
599.014	1	9
599.184	1	11
599.354	1	10
599.523	1	3
599.693	1	5
599.863	1	2
600.033	1	1
600.202	1	9
600.372	1	7
600.542	1	16
600.712	1	9
600.881	1	-13
601.051	1	-2
601.221	1	-1
601.390	1	-4
601.560	1	8
601.730	1	5
601.900	1	5
602.069	1	5
602.239	1	10
602.409	1	3
602.578	1	1
602.748	1	6
602.918	1	12
603.088	1	12
603.257	1	-2
603.427	1	5
603.597	1	-2
603.767	1	5
603.936	1	4
604.106	1	0
604.276	1	10
604.445	1	-6
604.615	1	6
604.785	1	4
604.954	1	7
605.124	1	3
605.294	1	4
605.464	1	1
605.633	1	5
605.803	1	7
605.973	1	4
606.142	1	7
606.312	1	-1
606.482	1	8
606.652	1	1
606.821	1	6
606.991	1	-4
607.161	1	6
607.330	1	-1
607.500	1	11
607.670	1	8
607.839	1	22
608.009	1	11
608.179	1	1
608.348	1	2
608.518	1	0
608.688	1	-2
608.858	1	7
609.027	1	7
609.197	1	2
609.367	1	11
609.536	1	3
609.706	1	1
609.876	1	12
610.045	1	2
610.215	1	12
610.385	1	-2
610.554	1	-4
610.724	1	7
610.894	1	9
611.063	1	-1
611.233	1	4
611.403	1	0
611.572	1	1
611.742	1	7
611.912	1	1
612.081	1	-3
612.251	1	0
612.421	1	5
612.590	1	6
612.760	1	7
612.930	1	-7
613.099	1	2
613.269	1	-6
613.439	1	-5
613.608	1	8
613.778	1	-1
613.948	1	5
614.117	1	10
614.287	1	5
614.457	1	-6
614.626	1	7
614.796	1	-2
614.966	1	10
615.135	1	8
615.305	1	11
615.475	1	3
615.644	1	8
615.814	1	-4
615.984	1	11
616.153	1	8
616.323	1	10
616.493	1	13
616.662	1	16
616.832	1	9
617.002	1	-1
617.171	1	0
617.341	1	1
617.511	1	7
617.680	1	8
617.850	1	1
618.019	1	-4
618.189	1	18
618.359	1	1
618.528	1	10
618.698	1	19
618.868	1	0
619.037	1	7
619.207	1	3
619.377	1	-5
619.546	1	7
619.716	1	10
619.885	1	8
620.055	1	10
620.225	1	13
620.394	1	4
620.564	1	10
620.734	1	-1
620.903	1	16
621.073	1	4
621.242	1	2
621.412	1	4
621.582	1	2
621.751	1	7
621.921	1	11
622.091	1	5
622.260	1	1
622.430	1	-3
622.599	1	0
622.769	1	2
622.939	1	7
623.108	1	9
623.278	1	9
623.448	1	10
623.617	1	5
623.787	1	3
623.956	1	5
624.126	1	16
624.296	1	8
624.465	1	1
624.635	1	13
624.804	1	-1
624.974	1	9
625.144	1	5
625.313	1	0
625.483	1	23
625.652	1	0
625.822	1	7
625.992	1	-2
626.161	1	15
626.331	1	9
626.501	1	6
626.670	1	5
626.840	1	11
627.009	1	14
627.179	1	10
627.348	1	12
627.518	1	8
627.688	1	12
627.857	1	7
628.027	1	-5
628.196	1	5
628.366	1	0
628.536	1	6
628.705	1	-1
628.875	1	13
629.044	1	0
629.214	1	-2
629.384	1	8
629.553	1	5
629.723	1	8
629.892	1	21
630.062	1	2
630.232	1	7
630.401	1	19
630.571	1	19
630.740	1	-1
630.910	1	18
631.079	1	4
631.249	1	5
631.419	1	-1
631.588	1	-3
631.758	1	11
631.927	1	17
632.097	1	3
632.266	1	12
632.436	1	8
632.606	1	-1
632.775	1	12
632.945	1	13
633.114	1	0
633.284	1	1
633.453	1	2
633.623	1	10
633.793	1	1
633.962	1	12
634.132	1	4
634.301	1	8
634.471	1	6
634.640	1	5
634.810	1	11
634.979	1	-1
635.149	1	4
635.319	1	6
635.488	1	11
635.658	1	13
635.827	1	5
635.997	1	6
636.166	1	-2
636.336	1	11
636.505	1	8
636.675	1	14
636.845	1	12
637.014	1	1
637.184	1	1
637.353	1	6
637.523	1	12
637.692	1	14
637.862	1	4
638.031	1	8
638.201	1	9
638.370	1	6
638.540	1	-2
638.710	1	15
638.879	1	2
639.049	1	2
639.218	1	13
639.388	1	13
639.557	1	11
639.727	1	10
639.896	1	11
640.066	1	11
640.235	1	0
640.405	1	2
640.574	1	15
640.744	1	10
640.914	1	9
641.083	1	7
641.253	1	16
641.422	1	9
641.592	1	3
641.761	1	12
641.931	1	3
642.100	1	4
642.270	1	8
642.439	1	5
642.609	1	4
642.778	1	2
642.948	1	-3
643.117	1	16
643.287	1	-2
643.456	1	11
643.626	1	16
643.795	1	4
643.965	1	-2
644.134	1	-3
644.304	1	15
644.473	1	7
644.643	1	1
644.812	1	18
644.982	1	5
645.151	1	19
645.321	1	2
645.490	1	4
645.660	1	5
645.829	1	0
645.999	1	9
646.168	1	-4
646.338	1	-3
646.507	1	6
646.677	1	9
646.846	1	11
647.016	1	11
647.185	1	0
647.355	1	12
647.524	1	8
647.694	1	4
647.863	1	-8
648.033	1	9
648.202	1	1
648.372	1	19
648.541	1	7
648.711	1	11
648.880	1	8
649.050	1	-2
649.219	1	3
649.389	1	-2
649.558	1	7
649.728	1	5
649.897	1	11
650.067	1	0
650.236	1	12
650.406	1	-2
650.575	1	15
650.745	1	3
650.914	1	6
651.084	1	6
651.253	1	13
651.423	1	5
651.592	1	11
651.762	1	14
651.931	1	11
652.101	1	3
652.270	1	8
652.440	1	0
652.609	1	12
652.778	1	1
652.948	1	6
653.117	1	10
653.287	1	17
653.456	1	11
653.626	1	1
653.795	1	13
653.965	1	10
654.134	1	10
654.304	1	2
654.473	1	4
654.643	1	3
654.812	1	6
654.982	1	7
655.151	1	8
655.320	1	12
655.490	1	11
655.659	1	6
655.829	1	14
655.998	1	1
656.168	1	1
656.337	1	9
656.507	1	5
656.676	1	17
656.846	1	6
657.015	1	1
657.184	1	4
657.354	1	0
657.523	1	4
657.693	1	10
657.862	1	5
658.032	1	3
658.201	1	5
658.371	1	6
658.540	1	7
658.709	1	-4
658.879	1	-17
659.048	1	3
659.218	1	12
659.387	1	-3
659.557	1	2
659.726	1	11
659.895	1	3
660.065	1	-1
660.234	1	-4
660.404	1	8
660.573	1	17
660.743	1	16
660.912	1	7
661.081	1	25
661.251	1	5
661.420	1	2
661.590	1	-3
661.759	1	11
661.929	1	1
662.098	1	4
662.267	1	3
662.437	1	13
662.606	1	10
662.776	1	-1
662.945	1	-2
663.115	1	9
663.284	1	9
663.453	1	-4
663.623	1	18
663.792	1	7
663.962	1	3
664.131	1	5
664.300	1	12
664.470	1	12
664.639	1	2
664.809	1	-2
664.978	1	0
665.148	1	3
665.317	1	7
665.486	1	10
665.656	1	2
665.825	1	7
665.995	1	-11
666.164	1	4
666.333	1	5
666.503	1	9
666.672	1	6
666.842	1	-11
667.011	1	3
667.180	1	10
667.350	1	6
667.519	1	6
667.689	1	7
667.858	1	8
668.027	1	19
668.197	1	13
668.366	1	10
668.536	1	3
668.705	1	5
668.874	1	8
669.044	1	4
669.213	1	-1
669.382	1	5
669.552	1	18
669.721	1	17
669.891	1	9
670.060	1	17
670.229	1	1
670.399	1	9
670.568	1	1
670.738	1	-3
670.907	1	0
671.076	1	6
671.246	1	8
671.415	1	12
671.584	1	-1
671.754	1	5
671.923	1	17
672.093	1	20
672.262	1	6
672.431	1	-5
672.601	1	2
672.770	1	-2
672.939	1	5
673.109	1	11
673.278	1	14
673.448	1	3
673.617	1	-13
673.786	1	-3
