325.333	1	10
325.504	1	8
325.675	1	-1
325.846	1	5
326.017	1	13
326.188	1	9
326.359	1	4
326.531	1	16
326.702	1	12
326.873	1	2
327.044	1	16
327.215	1	2
327.386	1	6
327.557	1	13
327.728	1	9
327.899	1	23
328.070	1	11
328.241	1	10
328.412	1	6
328.583	1	9
328.754	1	-3
328.926	1	5
329.097	1	3
329.268	1	5
329.439	1	18
329.610	1	18
329.781	1	5
329.952	1	18
330.123	1	14
330.294	1	4
330.465	1	1
330.636	1	16
330.807	1	3
330.978	1	6
331.149	1	19
331.320	1	8
331.492	1	16
331.663	1	19
331.834	1	11
332.005	1	13
332.176	1	10
332.347	1	17
332.518	1	14
332.689	1	10
332.860	1	6
333.031	1	12
333.202	1	1
333.373	1	15
333.544	1	8
333.715	1	18
333.886	1	11
334.057	1	12
334.228	1	15
334.399	1	12
334.570	1	9
334.741	1	6
334.912	1	12
335.084	1	11
335.255	1	13
335.426	1	6
335.597	1	19
335.768	1	18
335.939	1	8
336.110	1	11
336.281	1	11
336.452	1	12
336.623	1	16
336.794	1	15
336.965	1	-4
337.136	1	14
337.307	1	11
337.478	1	5
337.649	1	11
337.820	1	19
337.991	1	11
338.162	1	14
338.333	1	12
338.504	1	12
338.675	1	8
338.846	1	18
339.017	1	24
339.188	1	11
339.359	1	17
339.530	1	12
339.701	1	7
339.872	1	16
340.043	1	-2
340.214	1	7
340.385	1	7
340.556	1	14
340.727	1	13
340.898	1	18
341.069	1	23
341.240	1	10
341.411	1	5
341.582	1	25
341.753	1	6
341.924	1	14
342.095	1	14
342.266	1	16
342.437	1	15
342.608	1	20
342.779	1	12
342.950	1	10
343.121	1	24
343.292	1	10
343.463	1	12
343.634	1	7
343.805	1	11
343.976	1	20
344.147	1	13
344.318	1	14
344.489	1	2
344.660	1	20
344.831	1	18
345.002	1	12
345.173	1	11
345.344	1	14
345.515	1	5
345.686	1	16
345.857	1	8
346.028	1	18
346.199	1	4
346.370	1	18
346.541	1	12
346.712	1	18
346.883	1	21
347.054	1	11
347.225	1	13
347.396	1	0
347.567	1	17
347.738	1	3
347.909	1	14
348.080	1	14
348.251	1	17
348.422	1	25
348.593	1	7
348.764	1	11
348.935	1	11
349.106	1	9
349.277	1	13
349.448	1	9
349.619	1	7
349.790	1	21
349.961	1	18
350.132	1	17
350.303	1	23
350.474	1	7
350.645	1	19
350.816	1	4
350.987	1	14
351.157	1	10
351.328	1	20
351.499	1	6
351.670	1	3
351.841	1	17
352.012	1	21
352.183	1	18
352.354	1	11
352.525	1	19
352.696	1	25
352.867	1	7
353.038	1	10
353.209	1	8
353.380	1	5
353.551	1	2
353.722	1	18
353.893	1	19
354.064	1	14
354.235	1	19
354.406	1	15
354.576	1	13
354.747	1	11
354.918	1	24
355.089	1	8
355.260	1	22
355.431	1	9
355.602	1	9
355.773	1	11
355.944	1	-2
356.115	1	15
356.286	1	20
356.457	1	20
356.628	1	14
356.799	1	9
356.970	1	21
357.141	1	3
357.311	1	14
357.482	1	9
357.653	1	11
357.824	1	11
357.995	1	5
358.166	1	4
358.337	1	20
358.508	1	17
358.679	1	22
358.850	1	7
359.021	1	18
359.192	1	19
359.363	1	16
359.533	1	0
359.704	1	24
359.875	1	11
360.046	1	9
360.217	1	22
360.388	1	13
360.559	1	15
360.730	1	5
360.901	1	3
361.072	1	19
361.243	1	14
361.414	1	3
361.584	1	8
361.755	1	10
361.926	1	13
362.097	1	13
362.268	1	17
362.439	1	-1
362.610	1	15
362.781	1	4
362.952	1	25
363.123	1	25
363.293	1	11
363.464	1	21
363.635	1	10
363.806	1	2
363.977	1	16
364.148	1	5
364.319	1	21
364.490	1	21
364.661	1	17
364.832	1	20
365.002	1	24
365.173	1	10
365.344	1	21
365.515	1	3
365.686	1	9
365.857	1	14
366.028	1	12
366.199	1	18
366.370	1	20
366.540	1	9
366.711	1	8
366.882	1	3
367.053	1	2
367.224	1	11
367.395	1	8
367.566	1	1
367.737	1	3
367.908	1	9
368.078	1	16
368.249	1	18
368.420	1	9
368.591	1	16
368.762	1	12
368.933	1	5
369.104	1	17
369.274	1	6
369.445	1	5
369.616	1	13
369.787	1	21
369.958	1	21
370.129	1	12
370.300	1	16
370.471	1	7
370.641	1	20
370.812	1	11
370.983	1	15
371.154	1	4
371.325	1	15
371.496	1	19
371.667	1	17
371.837	1	18
372.008	1	5
372.179	1	4
372.350	1	12
372.521	1	10
372.692	1	20
372.863	1	6
373.033	1	16
373.204	1	-3
373.375	1	11
373.546	1	19
373.717	1	10
373.888	1	18
374.059	1	16
374.229	1	12
374.400	1	8
374.571	1	11
374.742	1	19
374.913	1	14
375.084	1	16
375.254	1	12
375.425	1	9
375.596	1	16
375.767	1	15
375.938	1	18
376.109	1	15
376.279	1	10
376.450	1	18
376.621	1	3
376.792	1	16
376.963	1	16
377.134	1	22
377.304	1	17
377.475	1	4
377.646	1	16
377.817	1	0
377.988	1	16
378.159	1	27
378.329	1	16
378.500	1	14
378.671	1	17
378.842	1	8
379.013	1	14
379.184	1	16
379.354	1	2
379.525	1	11
379.696	1	23
379.867	1	15
380.038	1	18
380.209	1	12
380.379	1	11
380.550	1	22
380.721	1	6
380.892	1	8
381.063	1	15
381.233	1	12
381.404	1	18
381.575	1	19
381.746	1	20
381.917	1	18
382.087	1	19
382.258	1	22
382.429	1	18
382.600	1	23
382.771	1	11
382.941	1	17
383.112	1	14
383.283	1	25
383.454	1	13
383.625	1	6
383.795	1	7
383.966	1	15
384.137	1	20
384.308	1	6
384.479	1	5
384.649	1	12
384.820	1	26
384.991	1	10
385.162	1	18
385.333	1	11
385.503	1	19
385.674	1	6
385.845	1	21
386.016	1	20
386.187	1	14
386.357	1	15
386.528	1	13
386.699	1	20
386.870	1	18
387.041	1	29
387.211	1	16
387.382	1	18
387.553	1	14
387.724	1	29
387.894	1	23
388.065	1	12
388.236	1	16
388.407	1	23
388.578	1	11
388.748	1	15
388.919	1	13
389.090	1	20
389.261	1	14
389.431	1	23
389.602	1	20
389.773	1	16
389.944	1	20
390.114	1	23
390.285	1	16
390.456	1	6
390.627	1	20
390.798	1	9
390.968	1	36
391.139	1	9
391.310	1	28
391.481	1	24
391.651	1	25
391.822	1	15
391.993	1	15
392.164	1	33
392.334	1	6
392.505	1	22
392.676	1	29
392.847	1	26
393.017	1	18
393.188	1	24
393.359	1	15
393.530	1	17
393.700	1	13
393.871	1	18
394.042	1	24
394.213	1	10
394.383	1	14
394.554	1	17
394.725	1	15
394.896	1	21
395.066	1	12
395.237	1	21
395.408	1	21
395.579	1	19
395.749	1	17
395.920	1	13
396.091	1	24
396.262	1	11
396.432	1	13
396.603	1	18
396.774	1	15
396.945	1	20
397.115	1	12
397.286	1	17
397.457	1	23
397.627	1	16
397.798	1	15
397.969	1	24
398.140	1	29
398.310	1	19
398.481	1	20
398.652	1	15
398.823	1	19
398.993	1	21
399.164	1	23
399.335	1	19
399.505	1	17
399.676	1	14
399.847	1	25
400.018	1	25
400.188	1	21
400.359	1	19
400.530	1	27
400.700	1	28
400.871	1	12
401.042	1	17
401.213	1	30
401.383	1	17
401.554	1	17
401.725	1	28
401.895	1	19
402.066	1	17
402.237	1	26
402.408	1	22
402.578	1	16
402.749	1	27
402.920	1	29
403.090	1	17
403.261	1	28
403.432	1	23
403.603	1	28
403.773	1	33
403.944	1	20
404.115	1	23
404.285	1	25
404.456	1	25
404.627	1	28
404.797	1	19
404.968	1	31
405.139	1	26
405.310	1	25
405.480	1	28
405.651	1	8
405.822	1	21
405.992	1	22
406.163	1	37
406.334	1	15
406.504	1	27
406.675	1	35
406.846	1	37
407.016	1	31
407.187	1	25
407.358	1	30
407.528	1	22
407.699	1	17
407.870	1	23
408.041	1	25
408.211	1	33
408.382	1	25
408.553	1	27
408.723	1	30
408.894	1	19
409.065	1	16
409.235	1	40
409.406	1	14
409.577	1	25
409.747	1	22
409.918	1	24
410.089	1	34
410.259	1	22
410.430	1	29
410.601	1	26
410.771	1	19
410.942	1	29
411.113	1	23
411.283	1	21
411.454	1	33
411.625	1	21
411.795	1	22
411.966	1	46
412.137	1	27
412.307	1	30
412.478	1	32
412.649	1	31
412.819	1	32
412.990	1	29
413.161	1	38
413.331	1	30
413.502	1	28
413.672	1	44
413.843	1	32
414.014	1	34
414.184	1	33
414.355	1	35
414.526	1	29
414.696	1	24
414.867	1	40
415.038	1	23
415.208	1	25
415.379	1	38
415.550	1	34
415.720	1	15
415.891	1	35
416.062	1	35
416.232	1	26
416.403	1	31
416.573	1	40
416.744	1	33
416.915	1	27
417.085	1	23
417.256	1	22
417.427	1	21
417.597	1	27
417.768	1	32
417.939	1	25
418.109	1	26
418.280	1	38
418.450	1	26
418.621	1	29
418.792	1	25
418.962	1	14
419.133	1	23
419.304	1	30
419.474	1	20
419.645	1	33
419.815	1	32
419.986	1	28
420.157	1	31
420.327	1	20
420.498	1	30
420.669	1	23
420.839	1	22
421.010	1	27
421.180	1	22
421.351	1	37
421.522	1	19
421.692	1	32
421.863	1	35
422.033	1	20
422.204	1	27
422.375	1	36
422.545	1	23
422.716	1	26
422.886	1	17
423.057	1	25
423.228	1	34
423.398	1	31
423.569	1	19
423.740	1	35
423.910	1	35
424.081	1	29
424.251	1	28
424.422	1	25
424.593	1	33
424.763	1	34
424.934	1	36
425.104	1	20
425.275	1	37
425.445	1	23
425.616	1	28
425.787	1	28
425.957	1	27
426.128	1	18
426.298	1	34
426.469	1	30
426.640	1	16
426.810	1	44
426.981	1	32
427.151	1	19
427.322	1	28
427.493	1	30
427.663	1	25
427.834	1	24
428.004	1	25
428.175	1	41
428.345	1	22
428.516	1	40
428.687	1	38
428.857	1	26
429.028	1	31
429.198	1	34
429.369	1	31
429.540	1	24
429.710	1	21
429.881	1	25
430.051	1	31
430.222	1	31
430.392	1	37
430.563	1	30
430.734	1	38
430.904	1	35
431.075	1	21
431.245	1	23
431.416	1	37
431.586	1	21
431.757	1	23
431.927	1	48
432.098	1	15
432.269	1	20
432.439	1	41
432.610	1	29
432.780	1	27
432.951	1	24
433.121	1	22
433.292	1	28
433.462	1	33
433.633	1	12
433.804	1	24
433.974	1	22
434.145	1	20
434.315	1	20
434.486	1	34
434.656	1	30
434.827	1	25
434.997	1	21
435.168	1	37
435.339	1	14
435.509	1	24
435.680	1	24
435.850	1	15
436.021	1	29
436.191	1	35
436.362	1	22
436.532	1	22
436.703	1	31
436.873	1	15
437.044	1	15
437.214	1	14
437.385	1	33
437.556	1	22
437.726	1	25
437.897	1	39
438.067	1	20
438.238	1	22
438.408	1	26
438.579	1	29
438.749	1	25
438.920	1	36
439.090	1	29
439.261	1	24
439.431	1	30
439.602	1	21
439.772	1	22
439.943	1	37
440.113	1	24
440.284	1	24
440.455	1	27
440.625	1	36
440.796	1	25
440.966	1	18
441.137	1	25
441.307	1	27
441.478	1	24
441.648	1	37
441.819	1	35
441.989	1	29
442.160	1	15
442.330	1	28
442.501	1	16
442.671	1	21
442.842	1	27
443.012	1	31
443.183	1	30
443.353	1	27
443.524	1	22
443.694	1	28
443.865	1	23
444.035	1	28
444.206	1	29
444.376	1	17
444.547	1	30
444.717	1	23
444.888	1	9
445.058	1	20
445.229	1	29
445.399	1	14
445.570	1	13
445.740	1	16
445.911	1	30
446.081	1	35
446.252	1	26
446.422	1	21
446.593	1	22
446.763	1	17
446.934	1	23
447.104	1	28
447.275	1	21
447.445	1	24
447.616	1	32
447.786	1	23
447.957	1	24
448.127	1	40
448.298	1	28
448.468	1	16
448.639	1	26
448.809	1	39
448.979	1	9
449.150	1	21
449.320	1	20
449.491	1	24
449.661	1	30
449.832	1	28
450.002	1	20
450.173	1	13
450.343	1	32
450.514	1	28
450.684	1	14
450.855	1	31
451.025	1	18
451.196	1	19
451.366	1	25
451.537	1	19
451.707	1	24
451.878	1	11
452.048	1	21
452.218	1	24
452.389	1	24
452.559	1	9
452.730	1	20
452.900	1	24
453.071	1	21
453.241	1	26
453.412	1	24
453.582	1	25
453.753	1	14
453.923	1	20
454.093	1	26
454.264	1	28
454.434	1	32
454.605	1	33
454.775	1	21
454.946	1	36
455.116	1	32
455.287	1	12
455.457	1	26
455.628	1	30
455.798	1	18
455.968	1	12
456.139	1	21
456.309	1	18
456.480	1	18
456.650	1	34
456.821	1	24
456.991	1	28
457.161	1	23
457.332	1	25
457.502	1	7
457.673	1	15
457.843	1	24
458.014	1	27
458.184	1	23
458.355	1	10
458.525	1	15
458.695	1	9
458.866	1	19
459.036	1	17
459.207	1	19
459.377	1	34
459.548	1	24
459.718	1	9
459.888	1	16
460.059	1	22
460.229	1	16
460.400	1	28
460.570	1	25
460.740	1	18
460.911	1	26
461.081	1	7
461.252	1	25
461.422	1	13
461.593	1	15
461.763	1	26
461.933	1	28
462.104	1	20
462.274	1	26
462.445	1	24
462.615	1	14
462.785	1	18
462.956	1	22
463.126	1	21
463.297	1	22
463.467	1	21
463.638	1	12
463.808	1	8
463.978	1	24
464.149	1	21
464.319	1	4
464.490	1	15
464.660	1	8
464.830	1	16
465.001	1	26
465.171	1	20
465.342	1	21
465.512	1	22
465.682	1	15
465.853	1	17
466.023	1	18
466.194	1	18
466.364	1	25
466.534	1	12
466.705	1	21
466.875	1	14
467.045	1	6
467.216	1	5
467.386	1	12
467.557	1	4
467.727	1	16
467.897	1	12
468.068	1	24
468.238	1	20
468.409	1	4
468.579	1	17
468.749	1	17
468.920	1	16
469.090	1	21
469.260	1	7
469.431	1	26
469.601	1	15
469.772	1	16
469.942	1	27
470.112	1	11
470.283	1	27
470.453	1	24
470.623	1	22
470.794	1	25
470.964	1	11
471.135	1	14
471.305	1	7
471.475	1	19
471.646	1	13
471.816	1	9
471.986	1	11
472.157	1	12
472.327	1	12
472.497	1	4
472.668	1	9
472.838	1	16
473.009	1	29
473.179	1	11
473.349	1	13
473.520	1	12
473.690	1	9
473.860	1	13
474.031	1	23
474.201	1	11
474.371	1	20
474.542	1	20
474.712	1	13
474.882	1	19
475.053	1	21
475.223	1	22
475.394	1	31
475.564	1	4
475.734	1	9
475.905	1	26
476.075	1	5
476.245	1	20
476.416	1	3
476.586	1	15
476.756	1	29
476.927	1	27
477.097	1	13
477.267	1	13
477.438	1	-17
477.608	1	11
477.778	1	25
477.949	1	10
478.119	1	15
478.289	1	22
478.460	1	21
478.630	1	8
478.800	1	8
478.971	1	11
479.141	1	22
479.311	1	14
479.482	1	3
479.652	1	10
479.822	1	17
479.993	1	5
480.163	1	7
480.333	1	27
480.504	1	18
480.674	1	8
480.844	1	20
481.015	1	6
481.185	1	18
481.355	1	10
481.525	1	16
481.696	1	25
481.866	1	6
482.036	1	11
482.207	1	18
482.377	1	13
482.547	1	21
482.718	1	4
482.888	1	11
483.058	1	8
483.229	1	13
483.399	1	23
483.569	1	8
483.740	1	11
483.910	1	2
484.080	1	21
484.250	1	14
484.421	1	10
484.591	1	10
484.761	1	12
484.932	1	16
485.102	1	6
485.272	1	6
485.443	1	11
485.613	1	13
485.783	1	12
485.953	1	8
486.124	1	9
486.294	1	14
486.464	1	14
486.635	1	8
486.805	1	7
486.975	1	7
487.146	1	5
487.316	1	20
487.486	1	10
487.656	1	5
487.827	1	9
487.997	1	11
488.167	1	18
488.338	1	7
488.508	1	9
488.678	1	14
488.848	1	11
489.019	1	12
489.189	1	4
489.359	1	25
489.529	1	7
489.700	1	2
489.870	1	5
490.040	1	9
490.211	1	14
490.381	1	6
490.551	1	6
490.721	1	11
490.892	1	15
491.062	1	16
491.232	1	10
491.402	1	12
491.573	1	7
491.743	1	6
491.913	1	8
492.084	1	19
492.254	1	18
492.424	1	4
492.594	1	20
492.765	1	9
492.935	1	12
493.105	1	13
493.275	1	7
493.446	1	14
493.616	1	6
493.786	1	10
493.956	1	-2
494.127	1	4
494.297	1	5
494.467	1	15
494.637	1	17
494.808	1	4
494.978	1	0
495.148	1	18
495.318	1	3
495.489	1	11
495.659	1	22
495.829	1	17
495.999	1	11
496.170	1	9
496.340	1	12
496.510	1	6
496.680	1	1
496.851	1	2
497.021	1	8
497.191	1	5
497.361	1	12
497.532	1	6
497.702	1	8
497.872	1	2
498.042	1	11
498.213	1	13
498.383	1	9
498.553	1	4
498.723	1	12
498.894	1	17
499.064	1	12
499.234	1	4
499.404	1	15
499.574	1	5
499.745	1	5
499.915	1	4
500.085	1	6
500.255	1	11
500.426	1	0
500.596	1	17
500.766	1	6
500.936	1	1
501.106	1	10
501.277	1	18
501.447	1	3
501.617	1	13
501.787	1	13
501.958	1	10
502.128	1	22
502.298	1	17
502.468	1	13
502.638	1	11
502.809	1	1
502.979	1	-3
503.149	1	9
503.319	1	3
503.489	1	14
503.660	1	9
503.830	1	7
504.000	1	3
504.170	1	2
504.340	1	9
504.511	1	9
504.681	1	17
504.851	1	9
505.021	1	12
505.192	1	0
505.362	1	6
505.532	1	4
505.702	1	5
505.872	1	0
506.043	1	1
506.213	1	7
506.383	1	14
506.553	1	5
506.723	1	10
506.893	1	6
507.064	1	7
507.234	1	8
507.404	1	8
507.574	1	4
507.744	1	6
507.915	1	0
508.085	1	0
508.255	1	10
508.425	1	5
508.595	1	6
508.766	1	4
508.936	1	17
509.106	1	11
509.276	1	9
509.446	1	10
509.616	1	9
509.787	1	12
509.957	1	6
510.127	1	8
510.297	1	6
510.467	1	4
510.638	1	1
510.808	1	-5
510.978	1	-1
511.148	1	17
511.318	1	4
511.488	1	16
511.659	1	4
511.829	1	6
511.999	1	-1
512.169	1	1
512.339	1	2
512.509	1	2
512.680	1	4
512.850	1	4
513.020	1	11
513.190	1	10
513.360	1	-2
513.530	1	6
513.700	1	10
513.871	1	9
514.041	1	7
514.211	1	-1
514.381	1	21
514.551	1	-4
514.721	1	7
514.892	1	9
515.062	1	10
515.232	1	6
515.402	1	6
515.572	1	6
515.742	1	9
515.912	1	8
516.083	1	6
516.253	1	4
516.423	1	-5
516.593	1	2
516.763	1	13
516.933	1	11
517.104	1	1
517.274	1	1
517.444	1	9
517.614	1	15
517.784	1	6
517.954	1	5
518.124	1	3
518.294	1	5
518.465	1	8
518.635	1	7
518.805	1	8
518.975	1	3
519.145	1	3
519.315	1	2
519.485	1	10
519.656	1	7
519.826	1	-5
519.996	1	6
520.166	1	0
520.336	1	1
520.506	1	5
520.676	1	4
520.846	1	4
521.017	1	3
521.187	1	16
521.357	1	0
521.527	1	9
521.697	1	2
521.867	1	-4
522.037	1	0
522.207	1	15
522.377	1	5
522.548	1	7
522.718	1	6
522.888	1	14
523.058	1	6
523.228	1	-3
523.398	1	11
523.568	1	11
523.738	1	3
523.909	1	11
524.079	1	4
524.249	1	5
524.419	1	11
524.589	1	2
524.759	1	10
524.929	1	16
525.099	1	-6
525.269	1	-6
525.439	1	7
525.610	1	-4
525.780	1	5
525.950	1	7
526.120	1	2
526.290	1	12
526.460	1	13
526.630	1	10
526.800	1	3
526.970	1	2
527.140	1	16
527.311	1	13
527.481	1	-6
527.651	1	9
527.821	1	3
527.991	1	1
528.161	1	0
528.331	1	10
528.501	1	7
528.671	1	11
528.841	1	13
529.011	1	-1
529.181	1	14
529.352	1	7
529.522	1	8
529.692	1	0
529.862	1	7
530.032	1	3
530.202	1	8
530.372	1	8
530.542	1	8
530.712	1	19
530.882	1	8
531.052	1	-4
531.222	1	2
531.392	1	2
531.563	1	1
531.733	1	10
531.903	1	6
532.073	1	9
532.243	1	5
532.413	1	1
532.583	1	14
532.753	1	7
532.923	1	0
533.093	1	0
533.263	1	3
533.433	1	7
533.603	1	5
533.773	1	6
533.943	1	1
534.113	1	19
534.284	1	-2
534.454	1	4
534.624	1	9
534.794	1	9
534.964	1	5
535.134	1	7
535.304	1	9
535.474	1	-5
535.644	1	7
535.814	1	7
535.984	1	11
536.154	1	5
536.324	1	-4
536.494	1	-2
536.664	1	8
536.834	1	1
537.004	1	1
537.174	1	-1
537.344	1	9
537.514	1	3
537.685	1	6
537.855	1	6
538.025	1	2
538.195	1	4
538.365	1	16
538.535	1	-2
538.705	1	0
538.875	1	-3
539.045	1	6
539.215	1	3
539.385	1	4
539.555	1	5
539.725	1	-1
539.895	1	8
540.065	1	2
540.235	1	5
540.405	1	1
540.575	1	11
540.745	1	7
540.915	1	7
541.085	1	-5
541.255	1	17
541.425	1	-7
541.595	1	10
541.765	1	9
541.935	1	7
542.105	1	8
542.275	1	5
542.445	1	4
542.615	1	5
542.785	1	2
542.955	1	2
543.125	1	-4
543.295	1	18
543.465	1	-5
543.635	1	1
543.805	1	-3
543.975	1	-3
544.145	1	13
544.315	1	1
544.485	1	3
544.655	1	-2
544.825	1	4
544.995	1	9
545.165	1	4
545.335	1	-1
545.505	1	0
545.675	1	-8
545.845	1	9
546.015	1	6
546.185	1	-2
546.355	1	1
546.525	1	-7
546.695	1	-1
546.865	1	10
547.035	1	3
547.205	1	9
547.375	1	3
547.545	1	7
547.715	1	5
547.885	1	0
548.055	1	-10
548.225	1	4
548.395	1	-6
548.565	1	6
548.735	1	-8
548.905	1	10
549.075	1	8
549.245	1	9
549.415	1	4
549.585	1	-1
549.755	1	7
549.925	1	-3
550.095	1	6
550.265	1	16
550.435	1	10
550.605	1	0
550.775	1	5
550.945	1	3
551.115	1	2
551.285	1	4
551.455	1	6
551.625	1	1
551.795	1	-1
551.965	1	7
552.135	1	-2
552.305	1	3
552.475	1	3
552.645	1	3
552.815	1	0
552.985	1	0
553.155	1	4
553.325	1	-7
553.495	1	-2
553.665	1	1
553.835	1	-1
554.004	1	6
554.174	1	3
554.344	1	-8
554.514	1	10
554.684	1	-4
554.854	1	-4
555.024	1	4
555.194	1	2
555.364	1	5
555.534	1	-9
555.704	1	10
555.874	1	1
556.044	1	15
556.214	1	8
556.384	1	9
556.554	1	5
556.724	1	6
556.894	1	2
557.064	1	10
557.234	1	-3
557.404	1	6
557.573	1	1
557.743	1	4
557.913	1	14
558.083	1	11
558.253	1	-9
558.423	1	8
558.593	1	-1
558.763	1	3
558.933	1	5
559.103	1	4
559.273	1	6
559.443	1	0
559.613	1	1
559.783	1	-3
559.953	1	6
560.122	1	6
560.292	1	9
560.462	1	6
560.632	1	-1
560.802	1	8
560.972	1	-4
561.142	1	-4
561.312	1	-1
561.482	1	-2
561.652	1	5
561.822	1	-6
561.992	1	-2
562.162	1	8
562.331	1	4
562.501	1	-1
562.671	1	14
562.841	1	6
563.011	1	4
563.181	1	2
563.351	1	6
563.521	1	-1
563.691	1	-2
563.861	1	4
564.031	1	4
564.201	1	7
564.370	1	8
564.540	1	11
564.710	1	7
564.880	1	3
565.050	1	10
565.220	1	-3
565.390	1	5
565.560	1	8
565.730	1	2
565.900	1	6
566.069	1	5
566.239	1	2
566.409	1	1
566.579	1	15
566.749	1	-4
566.919	1	-1
567.089	1	3
567.259	1	1
567.429	1	-1
567.599	1	9
567.768	1	8
567.938	1	-10
568.108	1	14
568.278	1	13
568.448	1	0
568.618	1	-5
568.788	1	5
568.958	1	-2
569.128	1	4
569.297	1	-3
569.467	1	-6
569.637	1	2
569.807	1	7
569.977	1	-3
570.147	1	7
570.317	1	1
570.487	1	-3
570.656	1	-6
570.826	1	5
570.996	1	-5
571.166	1	5
571.336	1	4
571.506	1	5
571.676	1	14
571.846	1	0
572.015	1	-2
572.185	1	5
572.355	1	-5
572.525	1	0
572.695	1	5
572.865	1	-9
573.035	1	14
573.205	1	8
573.374	1	4
573.544	1	4
573.714	1	3
573.884	1	9
574.054	1	9
574.224	1	-2
574.394	1	2
574.563	1	9
574.733	1	5
574.903	1	0
575.073	1	9
575.243	1	2
575.413	1	-7
575.583	1	3
575.752	1	-6
575.922	1	1
576.092	1	-2
576.262	1	3
576.432	1	5
576.602	1	-3
576.772	1	6
576.941	1	8
577.111	1	4
577.281	1	10
577.451	1	2
577.621	1	10
577.791	1	-2
577.960	1	0
578.130	1	-5
578.300	1	-10
578.470	1	-6
578.640	1	4
578.810	1	3
578.979	1	-1
579.149	1	2
579.319	1	-2
579.489	1	-8
579.659	1	2
579.829	1	-1
579.998	1	-1
580.168	1	9
580.338	1	6
580.508	1	8
580.678	1	1
580.848	1	5
581.017	1	18
581.187	1	13
581.357	1	-8
581.527	1	-4
581.697	1	3
581.867	1	-3
582.036	1	-11
582.206	1	8
582.376	1	11
582.546	1	0
582.716	1	1
582.885	1	-14
583.055	1	0
583.225	1	0
583.395	1	6
583.565	1	6
583.735	1	7
583.904	1	12
584.074	1	5
584.244	1	-3
584.414	1	1
584.584	1	7
584.753	1	8
584.923	1	0
585.093	1	13
585.263	1	11
585.433	1	-3
585.602	1	5
585.772	1	6
585.942	1	10
586.112	1	3
586.282	1	3
586.451	1	5
586.621	1	4
586.791	1	5
586.961	1	-1
587.131	1	3
587.300	1	1
587.470	1	-1
587.640	1	0
587.810	1	9
587.980	1	1
588.149	1	-2
588.319	1	8
588.489	1	4
588.659	1	-3
588.829	1	-1
588.998	1	8
589.168	1	19
589.338	1	3
589.508	1	-2
589.677	1	2
589.847	1	7
590.017	1	3
590.187	1	14
590.357	1	9
590.526	1	2
590.696	1	-8
590.866	1	0
591.036	1	3
591.205	1	5
591.375	1	-3
591.545	1	11
591.715	1	-2
591.885	1	3
592.054	1	9
592.224	1	7
592.394	1	-3
592.564	1	2
592.733	1	-10
592.903	1	2
593.073	1	2
593.243	1	12
593.412	1	13
593.582	1	6
593.752	1	5
593.922	1	-7
594.091	1	3
594.261	1	-6
594.431	1	7
594.601	1	0
594.771	1	13
594.940	1	1
595.110	1	7
595.280	1	-11
595.450	1	9
595.619	1	6
595.789	1	0
595.959	1	13
596.129	1	-6
596.298	1	13
596.468	1	4
596.638	1	0
596.808	1	11
596.977	1	0
597.147	1	-9
597.317	1	-1
597.487	1	-1
597.656	1	7
597.826	1	9
597.996	1	12
598.166	1	6
598.335	1	9
598.505	1	10
598.675	1	1
598.844	1	-5
599.014	1	-1
599.184	1	8
599.354	1	6
599.523	1	1
599.693	1	3
599.863	1	6
600.033	1	1
600.202	1	6
600.372	1	9
600.542	1	0
600.712	1	17
600.881	1	-6
601.051	1	0
601.221	1	8
601.390	1	-3
601.560	1	3
601.730	1	7
601.900	1	8
602.069	1	5
602.239	1	9
602.409	1	2
602.578	1	-3
602.748	1	10
602.918	1	7
603.088	1	2
603.257	1	1
603.427	1	-2
603.597	1	2
603.767	1	7
603.936	1	3
604.106	1	15
604.276	1	7
604.445	1	12
604.615	1	13
604.785	1	8
604.954	1	11
605.124	1	-5
605.294	1	7
605.464	1	-5
605.633	1	13
605.803	1	4
605.973	1	8
606.142	1	8
606.312	1	0
606.482	1	8
606.652	1	5
606.821	1	3
606.991	1	4
607.161	1	3
607.330	1	-1
607.500	1	13
607.670	1	12
607.839	1	17
608.009	1	16
608.179	1	-2
608.348	1	8
608.518	1	3
608.688	1	-1
608.858	1	18
609.027	1	13
609.197	1	-11
609.367	1	11
609.536	1	11
609.706	1	6
609.876	1	10
610.045	1	0
610.215	1	-1
610.385	1	-2
610.554	1	-5
610.724	1	5
610.894	1	11
611.063	1	-7
611.233	1	6
611.403	1	4
611.572	1	11
611.742	1	-1
611.912	1	2
612.081	1	-2
612.251	1	10
612.421	1	10
612.590	1	3
612.760	1	4
612.930	1	-8
613.099	1	13
613.269	1	6
613.439	1	1
613.608	1	10
613.778	1	-1
613.948	1	11
614.117	1	9
614.287	1	8
614.457	1	-7
614.626	1	4
614.796	1	11
614.966	1	9
615.135	1	13
615.305	1	11
615.475	1	5
615.644	1	1
615.814	1	-5
615.984	1	5
616.153	1	7
616.323	1	6
616.493	1	24
616.662	1	13
616.832	1	13
617.002	1	6
617.171	1	-3
617.341	1	-1
617.511	1	6
617.680	1	13
617.850	1	2
618.019	1	1
618.189	1	18
618.359	1	0
618.528	1	0
618.698	1	19
618.868	1	0
619.037	1	2
619.207	1	5
619.377	1	2
619.546	1	8
619.716	1	7
619.885	1	18
620.055	1	7
620.225	1	8
620.394	1	5
620.564	1	18
620.734	1	7
620.903	1	6
621.073	1	5
621.242	1	7
621.412	1	15
621.582	1	2
621.751	1	13
621.921	1	7
622.091	1	5
622.260	1	-7
622.430	1	6
622.599	1	-7
622.769	1	11
622.939	1	2
623.108	1	11
623.278	1	10
623.448	1	8
623.617	1	5
623.787	1	9
623.956	1	21
624.126	1	14
624.296	1	7
624.465	1	1
624.635	1	10
624.804	1	-11
624.974	1	13
625.144	1	-3
625.313	1	-5
625.483	1	10
625.652	1	7
625.822	1	0
625.992	1	8
626.161	1	16
626.331	1	9
626.501	1	-5
626.670	1	20
626.840	1	10
627.009	1	7
627.179	1	12
627.348	1	9
627.518	1	9
627.688	1	2
627.857	1	16
628.027	1	0
628.196	1	2
628.366	1	1
628.536	1	7
628.705	1	6
628.875	1	15
629.044	1	14
629.214	1	17
629.384	1	7
629.553	1	9
629.723	1	-7
629.892	1	9
630.062	1	2
630.232	1	6
630.401	1	18
630.571	1	11
630.740	1	7
630.910	1	12
631.079	1	11
631.249	1	9
631.419	1	2
631.588	1	2
631.758	1	7
631.927	1	8
632.097	1	5
632.266	1	11
632.436	1	3
632.606	1	1
632.775	1	11
632.945	1	9
633.114	1	2
633.284	1	3
633.453	1	-1
633.623	1	7
633.793	1	-3
633.962	1	4
634.132	1	15
634.301	1	16
634.471	1	3
634.640	1	7
634.810	1	10
634.979	1	6
635.149	1	0
635.319	1	13
635.488	1	13
635.658	1	3
635.827	1	10
635.997	1	5
636.166	1	6
636.336	1	6
636.505	1	5
636.675	1	8
636.845	1	4
637.014	1	12
637.184	1	1
637.353	1	6
637.523	1	11
637.692	1	13
637.862	1	15
638.031	1	9
638.201	1	14
638.370	1	6
638.540	1	3
638.710	1	18
638.879	1	5
639.049	1	10
639.218	1	8
639.388	1	6
639.557	1	9
639.727	1	0
639.896	1	10
640.066	1	12
640.235	1	11
640.405	1	-6
640.574	1	11
640.744	1	21
640.914	1	17
641.083	1	13
641.253	1	21
641.422	1	5
641.592	1	6
641.761	1	5
641.931	1	2
642.100	1	5
642.270	1	3
642.439	1	4
642.609	1	-1
642.778	1	12
642.948	1	11
643.117	1	17
643.287	1	10
643.456	1	14
643.626	1	13
643.795	1	10
643.965	1	9
644.134	1	9
644.304	1	4
644.473	1	1
644.643	1	3
644.812	1	14
644.982	1	15
645.151	1	13
645.321	1	4
645.490	1	9
645.660	1	-4
645.829	1	1
645.999	1	18
646.168	1	1
646.338	1	0
646.507	1	16
646.677	1	3
646.846	1	12
647.016	1	4
647.185	1	5
647.355	1	8
647.524	1	12
647.694	1	1
647.863	1	4
648.033	1	7
648.202	1	9
648.372	1	15
648.541	1	-5
648.711	1	9
648.880	1	12
649.050	1	-5
649.219	1	-2
649.389	1	7
649.558	1	8
649.728	1	13
649.897	1	6
650.067	1	7
650.236	1	18
650.406	1	6
650.575	1	11
650.745	1	3
650.914	1	7
651.084	1	0
651.253	1	15
651.423	1	17
651.592	1	10
651.762	1	18
651.931	1	9
652.101	1	2
652.270	1	20
652.440	1	1
652.609	1	4
652.778	1	-1
652.948	1	17
653.117	1	6
653.287	1	18
653.456	1	7
653.626	1	12
653.795	1	10
653.965	1	9
654.134	1	13
654.304	1	5
654.473	1	-2
654.643	1	4
654.812	1	10
654.982	1	-1
655.151	1	14
655.320	1	5
655.490	1	17
655.659	1	1
655.829	1	13
655.998	1	15
656.168	1	4
656.337	1	11
656.507	1	8
656.676	1	5
656.846	1	12
657.015	1	2
657.184	1	4
657.354	1	11
657.523	1	9
657.693	1	3
657.862	1	-1
658.032	1	5
658.201	1	11
658.371	1	5
658.540	1	3
658.709	1	3
658.879	1	-3
659.048	1	3
659.218	1	15
659.387	1	3
659.557	1	6
659.726	1	10
659.895	1	13
660.065	1	-3
660.234	1	12
660.404	1	14
660.573	1	11
660.743	1	11
660.912	1	2
661.081	1	19
661.251	1	6
661.420	1	5
661.590	1	-2
661.759	1	7
661.929	1	6
662.098	1	3
662.267	1	0
662.437	1	11
662.606	1	5
662.776	1	2
662.945	1	8
663.115	1	11
663.284	1	10
663.453	1	-4
663.623	1	10
663.792	1	7
663.962	1	6
664.131	1	15
664.300	1	9
664.470	1	16
664.639	1	2
664.809	1	-1
664.978	1	3
665.148	1	13
665.317	1	-4
665.486	1	1
665.656	1	4
665.825	1	10
665.995	1	4
666.164	1	4
666.333	1	6
666.503	1	14
666.672	1	17
666.842	1	-6
667.011	1	5
667.180	1	14
667.350	1	10
667.519	1	11
667.689	1	5
667.858	1	10
668.027	1	16
668.197	1	5
668.366	1	11
668.536	1	14
668.705	1	4
668.874	1	5
669.044	1	3
669.213	1	14
669.382	1	1
669.552	1	17
669.721	1	11
669.891	1	12
670.060	1	10
670.229	1	4
670.399	1	5
670.568	1	6
670.738	1	0
670.907	1	10
671.076	1	2
671.246	1	14
671.415	1	13
671.584	1	2
671.754	1	7
671.923	1	14
672.093	1	16
672.262	1	18
672.431	1	1
672.601	1	0
672.770	1	6
672.939	1	7
673.109	1	13
673.278	1	8
673.448	1	-1
673.617	1	-5
673.786	1	11
