325.333	1	21
325.504	1	11
325.675	1	5
325.846	1	13
326.017	1	12
326.188	1	12
326.359	1	20
326.531	1	-7
326.702	1	8
326.873	1	14
327.044	1	6
327.215	1	9
327.386	1	11
327.557	1	17
327.728	1	20
327.899	1	16
328.070	1	12
328.241	1	19
328.412	1	18
328.583	1	17
328.754	1	7
328.926	1	9
329.097	1	7
329.268	1	7
329.439	1	14
329.610	1	22
329.781	1	10
329.952	1	30
330.123	1	7
330.294	1	8
330.465	1	15
330.636	1	15
330.807	1	11
330.978	1	11
331.149	1	20
331.320	1	20
331.492	1	22
331.663	1	14
331.834	1	15
332.005	1	17
332.176	1	2
332.347	1	23
332.518	1	21
332.689	1	8
332.860	1	16
333.031	1	10
333.202	1	7
333.373	1	21
333.544	1	14
333.715	1	34
333.886	1	16
334.057	1	15
334.228	1	22
334.399	1	29
334.570	1	17
334.741	1	11
334.912	1	20
335.084	1	19
335.255	1	19
335.426	1	11
335.597	1	21
335.768	1	31
335.939	1	11
336.110	1	14
336.281	1	18
336.452	1	27
336.623	1	11
336.794	1	26
336.965	1	7
337.136	1	10
337.307	1	19
337.478	1	21
337.649	1	21
337.820	1	15
337.991	1	21
338.162	1	15
338.333	1	16
338.504	1	18
338.675	1	28
338.846	1	23
339.017	1	18
339.188	1	25
339.359	1	20
339.530	1	27
339.701	1	17
339.872	1	27
340.043	1	2
340.214	1	12
340.385	1	19
340.556	1	20
340.727	1	27
340.898	1	22
341.069	1	33
341.240	1	23
341.411	1	7
341.582	1	25
341.753	1	11
341.924	1	17
342.095	1	19
342.266	1	24
342.437	1	24
342.608	1	31
342.779	1	25
342.950	1	21
343.121	1	17
343.292	1	16
343.463	1	19
343.634	1	20
343.805	1	7
343.976	1	22
344.147	1	23
344.318	1	7
344.489	1	21
344.660	1	29
344.831	1	25
345.002	1	25
345.173	1	12
345.344	1	24
345.515	1	12
345.686	1	28
345.857	1	16
346.028	1	22
346.199	1	14
346.370	1	20
346.541	1	9
346.712	1	25
346.883	1	21
347.054	1	18
347.225	1	19
347.396	1	10
347.567	1	30
347.738	1	15
347.909	1	13
348.080	1	17
348.251	1	21
348.422	1	26
348.593	1	12
348.764	1	19
348.935	1	18
349.106	1	29
349.277	1	29
349.448	1	20
349.619	1	26
349.790	1	38
349.961	1	20
350.132	1	31
350.303	1	31
350.474	1	19
350.645	1	27
350.816	1	23
350.987	1	15
351.157	1	30
351.328	1	32
351.499	1	27
351.670	1	21
351.841	1	25
352.012	1	19
352.183	1	20
352.354	1	23
352.525	1	31
352.696	1	33
352.867	1	31
353.038	1	20
353.209	1	20
353.380	1	27
353.551	1	19
353.722	1	28
353.893	1	29
354.064	1	14
354.235	1	20
354.406	1	31
354.576	1	31
354.747	1	29
354.918	1	29
355.089	1	33
355.260	1	32
355.431	1	20
355.602	1	30
355.773	1	17
355.944	1	24
356.115	1	34
356.286	1	19
356.457	1	29
356.628	1	14
356.799	1	26
356.970	1	34
357.141	1	21
357.311	1	12
357.482	1	39
357.653	1	27
357.824	1	28
357.995	1	17
358.166	1	21
358.337	1	32
358.508	1	34
358.679	1	28
358.850	1	32
359.021	1	30
359.192	1	23
359.363	1	31
359.533	1	14
359.704	1	31
359.875	1	26
360.046	1	21
360.217	1	23
360.388	1	27
360.559	1	26
360.730	1	20
360.901	1	22
361.072	1	24
361.243	1	25
361.414	1	24
361.584	1	17
361.755	1	17
361.926	1	27
362.097	1	29
362.268	1	22
362.439	1	22
362.610	1	28
362.781	1	27
362.952	1	24
363.123	1	37
363.293	1	29
363.464	1	26
363.635	1	27
363.806	1	29
363.977	1	26
364.148	1	17
364.319	1	30
364.490	1	28
364.661	1	33
364.832	1	30
365.002	1	28
365.173	1	27
365.344	1	29
365.515	1	14
365.686	1	24
365.857	1	24
366.028	1	24
366.199	1	31
366.370	1	24
366.540	1	22
366.711	1	25
366.882	1	19
367.053	1	20
367.224	1	34
367.395	1	27
367.566	1	15
367.737	1	29
367.908	1	21
368.078	1	31
368.249	1	39
368.420	1	17
368.591	1	29
368.762	1	27
368.933	1	26
369.104	1	30
369.274	1	15
369.445	1	33
369.616	1	31
369.787	1	28
369.958	1	32
370.129	1	25
370.300	1	25
370.471	1	36
370.641	1	31
370.812	1	22
370.983	1	34
371.154	1	28
371.325	1	25
371.496	1	48
371.667	1	32
371.837	1	22
372.008	1	25
372.179	1	21
372.350	1	16
372.521	1	35
372.692	1	41
372.863	1	23
373.033	1	35
373.204	1	22
373.375	1	14
373.546	1	38
373.717	1	23
373.888	1	26
374.059	1	29
374.229	1	34
374.400	1	20
374.571	1	28
374.742	1	30
374.913	1	18
375.084	1	38
375.254	1	27
375.425	1	18
375.596	1	39
375.767	1	18
375.938	1	30
376.109	1	39
376.279	1	18
376.450	1	36
376.621	1	31
376.792	1	25
376.963	1	30
377.134	1	30
377.304	1	35
377.475	1	33
377.646	1	26
377.817	1	26
377.988	1	32
378.159	1	42
378.329	1	27
378.500	1	34
378.671	1	35
378.842	1	19
379.013	1	40
379.184	1	28
379.354	1	19
379.525	1	24
379.696	1	36
379.867	1	25
380.038	1	36
380.209	1	34
380.379	1	30
380.550	1	41
380.721	1	19
380.892	1	43
381.063	1	35
381.233	1	27
381.404	1	43
381.575	1	35
381.746	1	31
381.917	1	37
382.087	1	45
382.258	1	39
382.429	1	32
382.600	1	22
382.771	1	46
382.941	1	41
383.112	1	32
383.283	1	38
383.454	1	39
383.625	1	35
383.795	1	28
383.966	1	24
384.137	1	37
384.308	1	38
384.479	1	29
384.649	1	35
384.820	1	36
384.991	1	29
385.162	1	34
385.333	1	40
385.503	1	38
385.674	1	27
385.845	1	41
386.016	1	39
386.187	1	38
386.357	1	39
386.528	1	19
386.699	1	40
386.870	1	34
387.041	1	46
387.211	1	40
387.382	1	32
387.553	1	41
387.724	1	40
387.894	1	36
388.065	1	26
388.236	1	47
388.407	1	32
388.578	1	42
388.748	1	45
388.919	1	48
389.090	1	48
389.261	1	36
389.431	1	40
389.602	1	37
389.773	1	47
389.944	1	46
390.114	1	49
390.285	1	38
390.456	1	38
390.627	1	38
390.798	1	40
390.968	1	60
391.139	1	37
391.310	1	40
391.481	1	47
391.651	1	52
391.822	1	48
391.993	1	41
392.164	1	46
392.334	1	43
392.505	1	53
392.676	1	53
392.847	1	46
393.017	1	40
393.188	1	39
393.359	1	37
393.530	1	55
393.700	1	33
393.871	1	38
394.042	1	39
394.213	1	41
394.383	1	43
394.554	1	58
394.725	1	42
394.896	1	41
395.066	1	43
395.237	1	48
395.408	1	56
395.579	1	36
395.749	1	44
395.920	1	44
396.091	1	40
396.262	1	50
396.432	1	49
396.603	1	48
396.774	1	47
396.945	1	45
397.115	1	42
397.286	1	37
397.457	1	34
397.627	1	45
397.798	1	42
397.969	1	50
398.140	1	42
398.310	1	39
398.481	1	45
398.652	1	41
398.823	1	49
398.993	1	49
399.164	1	58
399.335	1	54
399.505	1	45
399.676	1	45
399.847	1	51
400.018	1	49
400.188	1	40
400.359	1	44
400.530	1	60
400.700	1	47
400.871	1	48
401.042	1	53
401.213	1	43
401.383	1	57
401.554	1	60
401.725	1	54
401.895	1	40
402.066	1	51
402.237	1	55
402.408	1	46
402.578	1	47
402.749	1	53
402.920	1	56
403.090	1	50
403.261	1	52
403.432	1	44
403.603	1	47
403.773	1	61
403.944	1	55
404.115	1	41
404.285	1	56
404.456	1	48
404.627	1	53
404.797	1	42
404.968	1	55
405.139	1	55
405.310	1	56
405.480	1	58
405.651	1	38
405.822	1	35
405.992	1	51
406.163	1	57
406.334	1	55
406.504	1	51
406.675	1	61
406.846	1	52
407.016	1	64
407.187	1	49
407.358	1	62
407.528	1	52
407.699	1	46
407.870	1	50
408.041	1	63
408.211	1	58
408.382	1	55
408.553	1	55
408.723	1	59
408.894	1	55
409.065	1	45
409.235	1	56
409.406	1	64
409.577	1	53
409.747	1	50
409.918	1	53
410.089	1	59
410.259	1	45
410.430	1	47
410.601	1	61
410.771	1	61
410.942	1	54
411.113	1	59
411.283	1	57
411.454	1	60
411.625	1	52
411.795	1	52
411.966	1	57
412.137	1	57
412.307	1	64
412.478	1	55
412.649	1	53
412.819	1	57
412.990	1	60
413.161	1	58
413.331	1	54
413.502	1	60
413.672	1	66
413.843	1	54
414.014	1	63
414.184	1	68
414.355	1	62
414.526	1	43
414.696	1	63
414.867	1	57
415.038	1	58
415.208	1	62
415.379	1	61
415.550	1	60
415.720	1	56
415.891	1	61
416.062	1	55
416.232	1	50
416.403	1	55
416.573	1	70
416.744	1	51
416.915	1	77
417.085	1	63
417.256	1	57
417.427	1	59
417.597	1	63
417.768	1	62
417.939	1	58
418.109	1	46
418.280	1	46
418.450	1	54
418.621	1	65
418.792	1	54
418.962	1	43
419.133	1	60
419.304	1	51
419.474	1	55
419.645	1	63
419.815	1	52
419.986	1	66
420.157	1	54
420.327	1	55
420.498	1	59
420.669	1	59
420.839	1	43
421.010	1	63
421.180	1	60
421.351	1	61
421.522	1	56
421.692	1	57
421.863	1	60
422.033	1	43
422.204	1	65
422.375	1	49
422.545	1	62
422.716	1	64
422.886	1	51
423.057	1	60
423.228	1	58
423.398	1	47
423.569	1	43
423.740	1	61
423.910	1	63
424.081	1	61
424.251	1	55
424.422	1	43
424.593	1	59
424.763	1	60
424.934	1	54
425.104	1	46
425.275	1	65
425.445	1	54
425.616	1	60
425.787	1	49
425.957	1	59
426.128	1	58
426.298	1	62
426.469	1	53
426.640	1	58
426.810	1	65
426.981	1	60
427.151	1	50
427.322	1	61
427.493	1	59
427.663	1	63
427.834	1	56
428.004	1	51
428.175	1	59
428.345	1	53
428.516	1	69
428.687	1	63
428.857	1	46
429.028	1	49
429.198	1	54
429.369	1	61
429.540	1	63
429.710	1	63
429.881	1	54
430.051	1	58
430.222	1	52
430.392	1	52
430.563	1	57
430.734	1	57
430.904	1	45
431.075	1	56
431.245	1	44
431.416	1	59
431.586	1	49
431.757	1	49
431.927	1	71
432.098	1	44
432.269	1	48
432.439	1	41
432.610	1	66
432.780	1	51
432.951	1	60
433.121	1	55
433.292	1	51
433.462	1	57
433.633	1	43
433.804	1	49
433.974	1	47
434.145	1	51
434.315	1	52
434.486	1	57
434.656	1	58
434.827	1	40
434.997	1	65
435.168	1	49
435.339	1	49
435.509	1	49
435.680	1	47
435.850	1	54
436.021	1	65
436.191	1	63
436.362	1	50
436.532	1	54
436.703	1	63
436.873	1	51
437.044	1	51
437.214	1	47
437.385	1	57
437.556	1	48
437.726	1	60
437.897	1	45
438.067	1	53
438.238	1	49
438.408	1	53
438.579	1	64
438.749	1	43
438.920	1	55
439.090	1	58
439.261	1	51
439.431	1	57
439.602	1	51
439.772	1	60
439.943	1	64
440.113	1	60
440.284	1	45
440.455	1	57
440.625	1	62
440.796	1	57
440.966	1	41
441.137	1	46
441.307	1	34
441.478	1	46
441.648	1	42
441.819	1	48
441.989	1	50
442.160	1	51
442.330	1	57
442.501	1	56
442.671	1	41
442.842	1	56
443.012	1	47
443.183	1	49
443.353	1	46
443.524	1	52
443.694	1	51
443.865	1	51
444.035	1	43
444.206	1	47
444.376	1	49
444.547	1	58
444.717	1	46
444.888	1	49
445.058	1	46
445.229	1	36
445.399	1	46
445.570	1	40
445.740	1	44
445.911	1	53
446.081	1	56
446.252	1	45
446.422	1	47
446.593	1	43
446.763	1	36
446.934	1	41
447.104	1	44
447.275	1	50
447.445	1	55
447.616	1	53
447.786	1	44
447.957	1	31
448.127	1	50
448.298	1	38
448.468	1	45
448.639	1	43
448.809	1	51
448.979	1	39
449.150	1	44
449.320	1	38
449.491	1	53
449.661	1	57
449.832	1	39
450.002	1	43
450.173	1	41
450.343	1	45
450.514	1	51
450.684	1	43
450.855	1	55
451.025	1	43
451.196	1	51
451.366	1	47
451.537	1	59
451.707	1	46
451.878	1	40
452.048	1	52
452.218	1	47
452.389	1	43
452.559	1	39
452.730	1	50
452.900	1	44
453.071	1	52
453.241	1	47
453.412	1	50
453.582	1	38
453.753	1	35
453.923	1	55
454.093	1	52
454.264	1	56
454.434	1	55
454.605	1	50
454.775	1	48
454.946	1	52
455.116	1	54
455.287	1	41
455.457	1	43
455.628	1	40
455.798	1	50
455.968	1	39
456.139	1	41
456.309	1	44
456.480	1	46
456.650	1	51
456.821	1	52
456.991	1	51
457.161	1	43
457.332	1	47
457.502	1	40
457.673	1	33
457.843	1	45
458.014	1	47
458.184	1	41
458.355	1	39
458.525	1	33
458.695	1	43
458.866	1	35
459.036	1	39
459.207	1	37
459.377	1	42
459.548	1	39
459.718	1	28
459.888	1	55
460.059	1	36
460.229	1	41
460.400	1	40
460.570	1	44
460.740	1	39
460.911	1	38
461.081	1	29
461.252	1	46
461.422	1	41
461.593	1	32
461.763	1	44
461.933	1	35
462.104	1	35
462.274	1	46
462.445	1	30
462.615	1	44
462.785	1	34
462.956	1	32
463.126	1	38
463.297	1	41
463.467	1	52
463.638	1	25
463.808	1	35
463.978	1	28
464.149	1	39
464.319	1	23
464.490	1	43
464.660	1	35
464.830	1	32
465.001	1	45
465.171	1	34
465.342	1	43
465.512	1	40
465.682	1	43
465.853	1	37
466.023	1	35
466.194	1	33
466.364	1	48
466.534	1	35
466.705	1	35
466.875	1	44
467.045	1	26
467.216	1	29
467.386	1	32
467.557	1	32
467.727	1	42
467.897	1	24
468.068	1	37
468.238	1	40
468.409	1	32
468.579	1	32
468.749	1	34
468.920	1	29
469.090	1	37
469.260	1	28
469.431	1	28
469.601	1	24
469.772	1	35
469.942	1	43
470.112	1	23
470.283	1	41
470.453	1	37
470.623	1	31
470.794	1	32
470.964	1	31
471.135	1	31
471.305	1	39
471.475	1	29
471.646	1	36
471.816	1	37
471.986	1	36
472.157	1	33
472.327	1	26
472.497	1	28
472.668	1	39
472.838	1	29
473.009	1	39
473.179	1	27
473.349	1	32
473.520	1	24
473.690	1	27
473.860	1	29
474.031	1	32
474.201	1	26
474.371	1	29
474.542	1	34
474.712	1	22
474.882	1	40
475.053	1	31
475.223	1	38
475.394	1	39
475.564	1	17
475.734	1	17
475.905	1	42
476.075	1	17
476.245	1	35
476.416	1	19
476.586	1	28
476.756	1	46
476.927	1	20
477.097	1	32
477.267	1	41
477.438	1	10
477.608	1	33
477.778	1	40
477.949	1	24
478.119	1	27
478.289	1	28
478.460	1	28
478.630	1	13
478.800	1	16
478.971	1	20
479.141	1	22
479.311	1	22
479.482	1	18
479.652	1	26
479.822	1	21
479.993	1	19
480.163	1	15
480.333	1	34
480.504	1	37
480.674	1	18
480.844	1	34
481.015	1	28
481.185	1	31
481.355	1	30
481.525	1	34
481.696	1	21
481.866	1	34
482.036	1	33
482.207	1	18
482.377	1	25
482.547	1	27
482.718	1	24
482.888	1	16
483.058	1	29
483.229	1	26
483.399	1	32
483.569	1	25
483.740	1	16
483.910	1	18
484.080	1	22
484.250	1	26
484.421	1	46
484.591	1	20
484.761	1	23
484.932	1	37
485.102	1	27
485.272	1	20
485.443	1	27
485.613	1	37
485.783	1	20
485.953	1	19
486.124	1	18
486.294	1	18
486.464	1	21
486.635	1	20
486.805	1	8
486.975	1	21
487.146	1	16
487.316	1	21
487.486	1	16
487.656	1	23
487.827	1	19
487.997	1	20
488.167	1	26
488.338	1	15
488.508	1	25
488.678	1	21
488.848	1	17
489.019	1	31
489.189	1	21
489.359	1	25
489.529	1	9
489.700	1	17
489.870	1	23
490.040	1	17
490.211	1	17
490.381	1	16
490.551	1	12
490.721	1	24
490.892	1	18
491.062	1	27
491.232	1	12
491.402	1	25
491.573	1	18
491.743	1	15
491.913	1	15
492.084	1	16
492.254	1	22
492.424	1	16
492.594	1	17
492.765	1	19
492.935	1	25
493.105	1	22
493.275	1	23
493.446	1	23
493.616	1	18
493.786	1	25
493.956	1	19
494.127	1	6
494.297	1	15
494.467	1	21
494.637	1	28
494.808	1	9
494.978	1	15
495.148	1	15
495.318	1	4
495.489	1	15
495.659	1	24
495.829	1	11
495.999	1	18
496.170	1	17
496.340	1	28
496.510	1	15
496.680	1	20
496.851	1	16
497.021	1	7
497.191	1	18
497.361	1	16
497.532	1	15
497.702	1	20
497.872	1	9
498.042	1	12
498.213	1	15
498.383	1	17
498.553	1	11
498.723	1	13
498.894	1	26
499.064	1	22
499.234	1	11
499.404	1	20
499.574	1	17
499.745	1	16
499.915	1	9
500.085	1	14
500.255	1	15
500.426	1	14
500.596	1	23
500.766	1	17
500.936	1	14
501.106	1	19
501.277	1	19
501.447	1	11
501.617	1	14
501.787	1	24
501.958	1	24
502.128	1	25
502.298	1	19
502.468	1	14
502.638	1	22
502.809	1	7
502.979	1	2
503.149	1	15
503.319	1	7
503.489	1	11
503.660	1	6
503.830	1	8
504.000	1	22
504.170	1	20
504.340	1	22
504.511	1	11
504.681	1	22
504.851	1	25
505.021	1	8
505.192	1	18
505.362	1	6
505.532	1	14
505.702	1	12
505.872	1	16
506.043	1	19
506.213	1	22
506.383	1	29
506.553	1	4
506.723	1	17
506.893	1	16
507.064	1	10
507.234	1	16
507.404	1	20
507.574	1	18
507.744	1	20
507.915	1	11
508.085	1	4
508.255	1	18
508.425	1	8
508.595	1	12
508.766	1	12
508.936	1	21
509.106	1	11
509.276	1	19
509.446	1	22
509.616	1	5
509.787	1	20
509.957	1	12
510.127	1	14
510.297	1	16
510.467	1	8
510.638	1	14
510.808	1	11
510.978	1	15
511.148	1	18
511.318	1	16
511.488	1	11
511.659	1	16
511.829	1	16
511.999	1	7
512.169	1	-4
512.339	1	10
512.509	1	6
512.680	1	9
512.850	1	10
513.020	1	20
513.190	1	12
513.360	1	10
513.530	1	6
513.700	1	7
513.871	1	20
514.041	1	12
514.211	1	12
514.381	1	13
514.551	1	10
514.721	1	16
514.892	1	19
515.062	1	19
515.232	1	19
515.402	1	14
515.572	1	21
515.742	1	21
515.912	1	-1
516.083	1	10
516.253	1	19
516.423	1	9
516.593	1	14
516.763	1	21
516.933	1	23
517.104	1	7
517.274	1	7
517.444	1	5
517.614	1	8
517.784	1	7
517.954	1	9
518.124	1	8
518.294	1	12
518.465	1	16
518.635	1	6
518.805	1	13
518.975	1	15
519.145	1	14
519.315	1	7
519.485	1	13
519.656	1	8
519.826	1	7
519.996	1	13
520.166	1	2
520.336	1	9
520.506	1	15
520.676	1	18
520.846	1	7
521.017	1	14
521.187	1	-6
521.357	1	12
521.527	1	13
521.697	1	9
521.867	1	0
522.037	1	12
522.207	1	19
522.377	1	17
522.548	1	8
522.718	1	17
522.888	1	18
523.058	1	12
523.228	1	7
523.398	1	19
523.568	1	5
523.738	1	12
523.909	1	18
524.079	1	11
524.249	1	-1
524.419	1	10
524.589	1	20
524.759	1	9
524.929	1	0
525.099	1	2
525.269	1	2
525.439	1	15
525.610	1	-3
525.780	1	18
525.950	1	19
526.120	1	12
526.290	1	10
526.460	1	10
526.630	1	17
526.800	1	4
526.970	1	17
527.140	1	17
527.311	1	16
527.481	1	-2
527.651	1	7
527.821	1	9
527.991	1	2
528.161	1	9
528.331	1	8
528.501	1	2
528.671	1	17
528.841	1	26
529.011	1	4
529.181	1	7
529.352	1	12
529.522	1	10
529.692	1	3
529.862	1	0
530.032	1	10
530.202	1	22
530.372	1	10
530.542	1	9
530.712	1	21
530.882	1	13
531.052	1	9
531.222	1	2
531.392	1	8
531.563	1	2
531.733	1	-2
531.903	1	18
532.073	1	14
532.243	1	21
532.413	1	6
532.583	1	18
532.753	1	17
532.923	1	7
533.093	1	11
533.263	1	10
533.433	1	9
533.603	1	-4
533.773	1	8
533.943	1	11
534.113	1	22
534.284	1	1
534.454	1	5
534.624	1	6
534.794	1	12
534.964	1	16
535.134	1	14
535.304	1	19
535.474	1	13
535.644	1	10
535.814	1	14
535.984	1	7
536.154	1	16
536.324	1	8
536.494	1	1
536.664	1	17
536.834	1	16
537.004	1	10
537.174	1	11
537.344	1	2
537.514	1	4
537.685	1	10
537.855	1	10
538.025	1	18
538.195	1	2
538.365	1	22
538.535	1	1
538.705	1	2
538.875	1	0
539.045	1	5
539.215	1	11
539.385	1	7
539.555	1	3
539.725	1	4
539.895	1	7
540.065	1	-4
540.235	1	10
540.405	1	11
540.575	1	7
540.745	1	8
540.915	1	11
541.085	1	5
541.255	1	14
541.425	1	5
541.595	1	14
541.765	1	18
541.935	1	8
542.105	1	7
542.275	1	6
542.445	1	10
542.615	1	-4
542.785	1	4
542.955	1	8
543.125	1	14
543.295	1	24
543.465	1	14
543.635	1	7
543.805	1	-4
543.975	1	2
544.145	1	15
544.315	1	5
544.485	1	9
544.655	1	1
544.825	1	12
544.995	1	17
545.165	1	16
545.335	1	2
545.505	1	-2
545.675	1	4
545.845	1	9
546.015	1	6
546.185	1	1
546.355	1	1
546.525	1	1
546.695	1	12
546.865	1	11
547.035	1	-1
547.205	1	6
547.375	1	7
547.545	1	3
547.715	1	14
547.885	1	1
548.055	1	1
548.225	1	16
548.395	1	3
548.565	1	18
548.735	1	5
548.905	1	9
549.075	1	15
549.245	1	11
549.415	1	2
549.585	1	6
549.755	1	15
549.925	1	13
550.095	1	12
550.265	1	21
550.435	1	6
550.605	1	7
550.775	1	11
550.945	1	6
551.115	1	5
551.285	1	6
551.455	1	8
551.625	1	2
551.795	1	5
551.965	1	6
552.135	1	15
552.305	1	11
552.475	1	10
552.645	1	6
552.815	1	13
552.985	1	10
553.155	1	17
553.325	1	-6
553.495	1	15
553.665	1	6
553.835	1	13
554.004	1	13
554.174	1	4
554.344	1	11
554.514	1	5
554.684	1	-6
554.854	1	-6
555.024	1	1
555.194	1	0
555.364	1	13
555.534	1	-1
555.704	1	15
555.874	1	2
556.044	1	4
556.214	1	7
556.384	1	17
556.554	1	2
556.724	1	2
556.894	1	1
557.064	1	18
557.234	1	-2
557.404	1	13
557.573	1	4
557.743	1	8
557.913	1	15
558.083	1	-2
558.253	1	2
558.423	1	4
558.593	1	12
558.763	1	9
558.933	1	7
559.103	1	6
559.273	1	-4
559.443	1	2
559.613	1	-2
559.783	1	2
559.953	1	10
560.122	1	12
560.292	1	21
560.462	1	8
560.632	1	-2
560.802	1	12
560.972	1	0
561.142	1	-1
561.312	1	5
561.482	1	2
561.652	1	4
561.822	1	-4
561.992	1	3
562.162	1	12
562.331	1	11
562.501	1	0
562.671	1	6
562.841	1	2
563.011	1	12
563.181	1	20
563.351	1	9
563.521	1	4
563.691	1	8
563.861	1	8
564.031	1	-2
564.201	1	17
564.370	1	-1
564.540	1	16
564.710	1	6
564.880	1	3
565.050	1	20
565.220	1	5
565.390	1	9
565.560	1	13
565.730	1	5
565.900	1	5
566.069	1	10
566.239	1	9
566.409	1	-9
566.579	1	7
566.749	1	-5
566.919	1	8
567.089	1	3
567.259	1	8
567.429	1	5
567.599	1	10
567.768	1	13
567.938	1	-5
568.108	1	3
568.278	1	16
568.448	1	7
568.618	1	0
568.788	1	12
568.958	1	0
569.128	1	7
569.297	1	-3
569.467	1	1
569.637	1	12
569.807	1	13
569.977	1	2
570.147	1	15
570.317	1	9
570.487	1	5
570.656	1	-2
570.826	1	-3
570.996	1	-11
571.166	1	12
571.336	1	15
571.506	1	13
571.676	1	20
571.846	1	8
572.015	1	4
572.185	1	7
572.355	1	3
572.525	1	1
572.695	1	7
572.865	1	-10
573.035	1	9
573.205	1	8
573.374	1	7
573.544	1	12
573.714	1	7
573.884	1	8
574.054	1	11
574.224	1	2
574.394	1	10
574.563	1	11
574.733	1	5
574.903	1	9
575.073	1	6
575.243	1	8
575.413	1	0
575.583	1	17
575.752	1	-2
575.922	1	-3
576.092	1	3
576.262	1	2
576.432	1	10
576.602	1	-5
576.772	1	2
576.941	1	-4
577.111	1	-1
577.281	1	6
577.451	1	6
577.621	1	6
577.791	1	1
577.960	1	3
578.130	1	10
578.300	1	-5
578.470	1	2
578.640	1	14
578.810	1	9
578.979	1	6
579.149	1	4
579.319	1	10
579.489	1	-9
579.659	1	2
579.829	1	-6
579.998	1	9
580.168	1	14
580.338	1	6
580.508	1	18
580.678	1	9
580.848	1	7
581.017	1	6
581.187	1	4
581.357	1	-1
581.527	1	8
581.697	1	1
581.867	1	7
582.036	1	1
582.206	1	11
582.376	1	9
582.546	1	-9
582.716	1	-1
582.885	1	-8
583.055	1	7
583.225	1	-1
583.395	1	16
583.565	1	13
583.735	1	11
583.904	1	3
584.074	1	-3
584.244	1	-7
584.414	1	11
584.584	1	6
584.753	1	12
584.923	1	-6
585.093	1	10
585.263	1	9
585.433	1	7
585.602	1	0
585.772	1	-1
585.942	1	1
586.112	1	0
586.282	1	5
586.451	1	8
586.621	1	4
586.791	1	8
586.961	1	2
587.131	1	12
587.300	1	-7
587.470	1	2
587.640	1	1
587.810	1	15
587.980	1	-3
588.149	1	12
588.319	1	5
588.489	1	11
588.659	1	3
588.829	1	9
588.998	1	6
589.168	1	18
589.338	1	11
589.508	1	10
589.677	1	4
589.847	1	9
590.017	1	2
590.187	1	9
590.357	1	13
590.526	1	0
590.696	1	1
590.866	1	6
591.036	1	11
591.205	1	8
591.375	1	4
591.545	1	12
591.715	1	4
591.885	1	6
592.054	1	2
592.224	1	8
592.394	1	0
592.564	1	8
592.733	1	-8
592.903	1	10
593.073	1	-3
593.243	1	17
593.412	1	11
593.582	1	11
593.752	1	-2
593.922	1	3
594.091	1	3
594.261	1	3
594.431	1	17
594.601	1	0
594.771	1	23
594.940	1	1
595.110	1	9
595.280	1	4
595.450	1	20
595.619	1	12
595.789	1	8
595.959	1	11
596.129	1	-3
596.298	1	14
596.468	1	-6
596.638	1	2
596.808	1	-1
596.977	1	13
597.147	1	-5
597.317	1	5
597.487	1	14
597.656	1	4
597.826	1	19
597.996	1	14
598.166	1	8
598.335	1	6
598.505	1	14
598.675	1	5
598.844	1	-4
599.014	1	5
599.184	1	7
599.354	1	19
599.523	1	17
599.693	1	8
599.863	1	5
600.033	1	1
600.202	1	9
600.372	1	-3
600.542	1	1
600.712	1	1
600.881	1	3
601.051	1	1
601.221	1	11
601.390	1	-3
601.560	1	5
601.730	1	5
601.900	1	9
602.069	1	1
602.239	1	11
602.409	1	8
602.578	1	-2
602.748	1	-7
602.918	1	10
603.088	1	18
603.257	1	6
603.427	1	7
603.597	1	7
603.767	1	5
603.936	1	8
604.106	1	9
604.276	1	12
604.445	1	13
604.615	1	4
604.785	1	13
604.954	1	8
605.124	1	0
605.294	1	5
605.464	1	11
605.633	1	10
605.803	1	4
605.973	1	14
606.142	1	4
606.312	1	7
606.482	1	6
606.652	1	14
606.821	1	12
606.991	1	3
607.161	1	4
607.330	1	1
607.500	1	8
607.670	1	9
607.839	1	13
608.009	1	6
608.179	1	7
608.348	1	12
608.518	1	8
608.688	1	11
608.858	1	8
609.027	1	8
609.197	1	-2
609.367	1	12
609.536	1	0
609.706	1	9
609.876	1	26
610.045	1	3
610.215	1	10
610.385	1	3
610.554	1	9
610.724	1	4
610.894	1	6
611.063	1	-5
611.233	1	12
611.403	1	4
611.572	1	6
611.742	1	7
611.912	1	17
612.081	1	3
612.251	1	19
612.421	1	9
612.590	1	4
612.760	1	8
612.930	1	2
613.099	1	8
613.269	1	9
613.439	1	4
613.608	1	9
613.778	1	2
613.948	1	8
614.117	1	10
614.287	1	8
614.457	1	-1
614.626	1	12
614.796	1	6
614.966	1	14
615.135	1	8
615.305	1	9
615.475	1	9
615.644	1	2
615.814	1	9
615.984	1	9
616.153	1	8
616.323	1	4
616.493	1	17
616.662	1	6
616.832	1	20
617.002	1	7
617.171	1	2
617.341	1	10
617.511	1	16
617.680	1	10
617.850	1	19
618.019	1	9
618.189	1	18
618.359	1	2
618.528	1	2
618.698	1	28
618.868	1	2
619.037	1	9
619.207	1	10
619.377	1	2
619.546	1	6
619.716	1	9
619.885	1	7
620.055	1	10
620.225	1	15
620.394	1	8
620.564	1	13
620.734	1	3
620.903	1	11
621.073	1	9
621.242	1	8
621.412	1	12
621.582	1	23
621.751	1	4
621.921	1	12
622.091	1	13
622.260	1	6
622.430	1	12
622.599	1	4
622.769	1	6
622.939	1	18
623.108	1	16
623.278	1	17
623.448	1	12
623.617	1	12
623.787	1	5
623.956	1	16
624.126	1	21
624.296	1	6
624.465	1	5
624.635	1	9
624.804	1	-6
624.974	1	14
625.144	1	6
625.313	1	2
625.483	1	24
625.652	1	20
625.822	1	-1
625.992	1	17
626.161	1	22
626.331	1	11
626.501	1	15
626.670	1	10
626.840	1	10
627.009	1	9
627.179	1	9
627.348	1	18
627.518	1	7
627.688	1	12
627.857	1	8
628.027	1	-12
628.196	1	12
628.366	1	7
628.536	1	12
628.705	1	15
628.875	1	14
629.044	1	13
629.214	1	14
629.384	1	14
629.553	1	7
629.723	1	2
629.892	1	17
630.062	1	8
630.232	1	10
630.401	1	23
630.571	1	10
630.740	1	15
630.910	1	16
631.079	1	-2
631.249	1	12
631.419	1	10
631.588	1	10
631.758	1	18
631.927	1	9
632.097	1	11
632.266	1	13
632.436	1	4
632.606	1	21
632.775	1	23
632.945	1	20
633.114	1	3
633.284	1	10
633.453	1	6
633.623	1	21
633.793	1	9
633.962	1	13
634.132	1	7
634.301	1	17
634.471	1	5
634.640	1	11
634.810	1	16
634.979	1	13
635.149	1	18
635.319	1	16
635.488	1	15
635.658	1	11
635.827	1	7
635.997	1	13
636.166	1	9
636.336	1	17
636.505	1	15
636.675	1	26
636.845	1	12
637.014	1	4
637.184	1	7
637.353	1	10
637.523	1	9
637.692	1	17
637.862	1	25
638.031	1	15
638.201	1	17
638.370	1	15
638.540	1	16
638.710	1	20
638.879	1	2
639.049	1	12
639.218	1	23
639.388	1	18
639.557	1	9
639.727	1	14
639.896	1	6
640.066	1	18
640.235	1	17
640.405	1	14
640.574	1	19
640.744	1	26
640.914	1	12
641.083	1	11
641.253	1	23
641.422	1	14
641.592	1	6
641.761	1	12
641.931	1	14
642.100	1	16
642.270	1	8
642.439	1	11
642.609	1	8
642.778	1	9
642.948	1	8
643.117	1	21
643.287	1	19
643.456	1	17
643.626	1	19
643.795	1	10
643.965	1	15
644.134	1	8
644.304	1	6
644.473	1	18
644.643	1	16
644.812	1	24
644.982	1	14
645.151	1	28
645.321	1	12
645.490	1	8
645.660	1	8
645.829	1	21
645.999	1	14
646.168	1	14
646.338	1	4
646.507	1	21
646.677	1	15
646.846	1	7
647.016	1	23
647.185	1	19
647.355	1	6
647.524	1	19
647.694	1	11
647.863	1	14
648.033	1	8
648.202	1	23
648.372	1	23
648.541	1	22
648.711	1	16
648.880	1	17
649.050	1	2
649.219	1	-1
649.389	1	9
649.558	1	10
649.728	1	5
649.897	1	16
650.067	1	15
650.236	1	17
650.406	1	11
650.575	1	13
650.745	1	12
650.914	1	12
651.084	1	5
651.253	1	21
651.423	1	6
651.592	1	13
651.762	1	18
651.931	1	8
652.101	1	6
652.270	1	19
652.440	1	13
652.609	1	12
652.778	1	6
652.948	1	10
653.117	1	12
653.287	1	28
653.456	1	21
653.626	1	5
653.795	1	24
653.965	1	18
654.134	1	17
654.304	1	9
654.473	1	17
654.643	1	13
654.812	1	3
654.982	1	7
655.151	1	13
655.320	1	22
655.490	1	10
655.659	1	13
655.829	1	24
655.998	1	10
656.168	1	9
656.337	1	16
656.507	1	10
656.676	1	12
656.846	1	12
657.015	1	11
657.184	1	12
657.354	1	12
657.523	1	9
657.693	1	20
657.862	1	3
658.032	1	8
658.201	1	9
658.371	1	3
658.540	1	2
658.709	1	4
658.879	1	-5
659.048	1	3
659.218	1	16
659.387	1	14
659.557	1	15
659.726	1	18
659.895	1	14
660.065	1	-2
660.234	1	9
660.404	1	15
660.573	1	20
660.743	1	18
660.912	1	24
661.081	1	23
661.251	1	9
661.420	1	8
661.590	1	7
661.759	1	18
661.929	1	17
662.098	1	14
662.267	1	12
662.437	1	16
662.606	1	21
662.776	1	3
662.945	1	9
663.115	1	20
663.284	1	17
663.453	1	3
663.623	1	21
663.792	1	14
663.962	1	13
664.131	1	15
664.300	1	7
664.470	1	20
664.639	1	8
664.809	1	8
664.978	1	17
665.148	1	18
665.317	1	14
665.486	1	17
665.656	1	19
665.825	1	13
665.995	1	-1
666.164	1	0
666.333	1	23
666.503	1	11
666.672	1	15
666.842	1	0
667.011	1	13
667.180	1	13
667.350	1	12
667.519	1	18
667.689	1	21
667.858	1	11
668.027	1	20
668.197	1	16
668.366	1	13
668.536	1	20
668.705	1	4
668.874	1	19
669.044	1	7
669.213	1	7
669.382	1	6
669.552	1	19
669.721	1	17
669.891	1	7
670.060	1	21
670.229	1	12
670.399	1	19
670.568	1	2
670.738	1	11
670.907	1	12
671.076	1	13
671.246	1	9
671.415	1	18
671.584	1	10
671.754	1	2
671.923	1	16
672.093	1	24
672.262	1	15
672.431	1	6
672.601	1	17
672.770	1	7
672.939	1	10
673.109	1	17
673.278	1	23
673.448	1	1
673.617	1	-1
673.786	1	18
