325.333	1	16
325.504	1	3
325.675	1	2
325.846	1	7
326.017	1	14
326.188	1	11
326.359	1	-1
326.531	1	11
326.702	1	12
326.873	1	8
327.044	1	3
327.215	1	3
327.386	1	-3
327.557	1	9
327.728	1	6
327.899	1	7
328.070	1	10
328.241	1	14
328.412	1	9
328.583	1	3
328.754	1	0
328.926	1	10
329.097	1	5
329.268	1	9
329.439	1	9
329.610	1	16
329.781	1	9
329.952	1	10
330.123	1	10
330.294	1	3
330.465	1	1
330.636	1	10
330.807	1	-4
330.978	1	6
331.149	1	11
331.320	1	15
331.492	1	5
331.663	1	11
331.834	1	11
332.005	1	8
332.176	1	7
332.347	1	17
332.518	1	0
332.689	1	9
332.860	1	8
333.031	1	5
333.202	1	-4
333.373	1	4
333.544	1	5
333.715	1	14
333.886	1	2
334.057	1	4
334.228	1	10
334.399	1	19
334.570	1	7
334.741	1	11
334.912	1	13
335.084	1	7
335.255	1	5
335.426	1	10
335.597	1	16
335.768	1	19
335.939	1	7
336.110	1	1
336.281	1	21
336.452	1	12
336.623	1	0
336.794	1	-1
336.965	1	3
337.136	1	7
337.307	1	11
337.478	1	8
337.649	1	17
337.820	1	5
337.991	1	8
338.162	1	6
338.333	1	14
338.504	1	9
338.675	1	8
338.846	1	9
339.017	1	13
339.188	1	8
339.359	1	4
339.530	1	25
339.701	1	3
339.872	1	13
340.043	1	-13
340.214	1	9
340.385	1	6
340.556	1	15
340.727	1	15
340.898	1	20
341.069	1	15
341.240	1	14
341.411	1	2
341.582	1	14
341.753	1	10
341.924	1	6
342.095	1	-3
342.266	1	12
342.437	1	18
342.608	1	17
342.779	1	3
342.950	1	14
343.121	1	7
343.292	1	13
343.463	1	4
343.634	1	4
343.805	1	1
343.976	1	12
344.147	1	12
344.318	1	3
344.489	1	12
344.660	1	12
344.831	1	24
345.002	1	13
345.173	1	3
345.344	1	10
345.515	1	-4
345.686	1	18
345.857	1	7
346.028	1	10
346.199	1	-9
346.370	1	21
346.541	1	0
346.712	1	11
346.883	1	5
347.054	1	-2
347.225	1	8
347.396	1	-4
347.567	1	17
347.738	1	4
347.909	1	8
348.080	1	4
348.251	1	13
348.422	1	16
348.593	1	11
348.764	1	-2
348.935	1	-1
349.106	1	9
349.277	1	13
349.448	1	10
349.619	1	1
349.790	1	13
349.961	1	5
350.132	1	16
350.303	1	11
350.474	1	11
350.645	1	13
350.816	1	2
350.987	1	12
351.157	1	10
351.328	1	12
351.499	1	7
351.670	1	1
351.841	1	21
352.012	1	14
352.183	1	7
352.354	1	1
352.525	1	11
352.696	1	16
352.867	1	8
353.038	1	2
353.209	1	6
353.380	1	-3
353.551	1	0
353.722	1	11
353.893	1	7
354.064	1	7
354.235	1	4
354.406	1	6
354.576	1	12
354.747	1	18
354.918	1	13
355.089	1	9
355.260	1	17
355.431	1	1
355.602	1	11
355.773	1	5
355.944	1	10
356.115	1	5
356.286	1	10
356.457	1	5
356.628	1	10
356.799	1	7
356.970	1	23
357.141	1	1
357.311	1	7
357.482	1	8
357.653	1	7
357.824	1	3
357.995	1	4
358.166	1	1
358.337	1	15
358.508	1	6
358.679	1	15
358.850	1	10
359.021	1	13
359.192	1	16
359.363	1	14
359.533	1	-2
359.704	1	13
359.875	1	17
360.046	1	16
360.217	1	9
360.388	1	8
360.559	1	12
360.730	1	7
360.901	1	2
361.072	1	14
361.243	1	14
361.414	1	3
361.584	1	4
361.755	1	7
361.926	1	7
362.097	1	5
362.268	1	13
362.439	1	7
362.610	1	4
362.781	1	5
362.952	1	10
363.123	1	5
363.293	1	-2
363.464	1	9
363.635	1	15
363.806	1	6
363.977	1	7
364.148	1	8
364.319	1	4
364.490	1	10
364.661	1	9
364.832	1	9
365.002	1	7
365.173	1	2
365.344	1	18
365.515	1	-7
365.686	1	-9
365.857	1	4
366.028	1	8
366.199	1	14
366.370	1	-1
366.540	1	-5
366.711	1	8
366.882	1	3
367.053	1	10
367.224	1	3
367.395	1	5
367.566	1	0
367.737	1	4
367.908	1	4
368.078	1	11
368.249	1	13
368.420	1	6
368.591	1	17
368.762	1	-3
368.933	1	-2
369.104	1	16
369.274	1	5
369.445	1	18
369.616	1	9
369.787	1	14
369.958	1	6
370.129	1	0
370.300	1	6
370.471	1	9
370.641	1	9
370.812	1	16
370.983	1	1
371.154	1	-3
371.325	1	5
371.496	1	19
371.667	1	13
371.837	1	9
372.008	1	2
372.179	1	4
372.350	1	-3
372.521	1	8
372.692	1	-1
372.863	1	7
373.033	1	8
373.204	1	4
373.375	1	15
373.546	1	20
373.717	1	4
373.888	1	17
374.059	1	9
374.229	1	5
374.400	1	0
374.571	1	5
374.742	1	8
374.913	1	-2
375.084	1	17
375.254	1	-5
375.425	1	5
375.596	1	10
375.767	1	9
375.938	1	3
376.109	1	12
376.279	1	1
376.450	1	15
376.621	1	5
376.792	1	4
376.963	1	5
377.134	1	16
377.304	1	13
377.475	1	5
377.646	1	11
377.817	1	-2
377.988	1	8
378.159	1	14
378.329	1	8
378.500	1	10
378.671	1	13
378.842	1	4
379.013	1	16
379.184	1	5
379.354	1	2
379.525	1	8
379.696	1	17
379.867	1	13
380.038	1	-6
380.209	1	10
380.379	1	11
380.550	1	17
380.721	1	-5
380.892	1	8
381.063	1	6
381.233	1	3
381.404	1	6
381.575	1	14
381.746	1	9
381.917	1	10
382.087	1	21
382.258	1	24
382.429	1	3
382.600	1	11
382.771	1	6
382.941	1	16
383.112	1	9
383.283	1	24
383.454	1	10
383.625	1	-3
383.795	1	16
383.966	1	4
384.137	1	13
384.308	1	-1
384.479	1	-3
384.649	1	4
384.820	1	9
384.991	1	9
385.162	1	6
385.333	1	15
385.503	1	14
385.674	1	0
385.845	1	15
386.016	1	19
386.187	1	7
386.357	1	8
386.528	1	-5
386.699	1	10
386.870	1	2
387.041	1	15
387.211	1	13
387.382	1	2
387.553	1	12
387.724	1	26
387.894	1	17
388.065	1	5
388.236	1	15
388.407	1	17
388.578	1	7
388.748	1	4
388.919	1	1
389.090	1	19
389.261	1	16
389.431	1	13
389.602	1	25
389.773	1	16
389.944	1	20
390.114	1	26
390.285	1	6
390.456	1	0
390.627	1	-4
390.798	1	8
390.968	1	18
391.139	1	5
391.310	1	7
391.481	1	15
391.651	1	17
391.822	1	10
391.993	1	6
392.164	1	9
392.334	1	2
392.505	1	9
392.676	1	16
392.847	1	14
393.017	1	16
393.188	1	16
393.359	1	10
393.530	1	21
393.700	1	7
393.871	1	4
394.042	1	9
394.213	1	9
394.383	1	12
394.554	1	12
394.725	1	11
394.896	1	11
395.066	1	8
395.237	1	10
395.408	1	19
395.579	1	4
395.749	1	11
395.920	1	12
396.091	1	17
396.262	1	5
396.432	1	17
396.603	1	8
396.774	1	6
396.945	1	11
397.115	1	6
397.286	1	14
397.457	1	11
397.627	1	-1
397.798	1	9
397.969	1	17
398.140	1	17
398.310	1	10
398.481	1	5
398.652	1	4
398.823	1	15
398.993	1	13
399.164	1	18
399.335	1	20
399.505	1	12
399.676	1	8
399.847	1	12
400.018	1	23
400.188	1	9
400.359	1	17
400.530	1	18
400.700	1	18
400.871	1	11
401.042	1	23
401.213	1	9
401.383	1	15
401.554	1	13
401.725	1	15
401.895	1	15
402.066	1	12
402.237	1	17
402.408	1	9
402.578	1	15
402.749	1	14
402.920	1	6
403.090	1	9
403.261	1	16
403.432	1	4
403.603	1	13
403.773	1	20
403.944	1	17
404.115	1	9
404.285	1	19
404.456	1	10
404.627	1	3
404.797	1	8
404.968	1	11
405.139	1	14
405.310	1	17
405.480	1	15
405.651	1	3
405.822	1	15
405.992	1	10
406.163	1	26
406.334	1	21
406.504	1	23
406.675	1	31
406.846	1	25
407.016	1	10
407.187	1	11
407.358	1	12
407.528	1	12
407.699	1	9
407.870	1	15
408.041	1	20
408.211	1	19
408.382	1	7
408.553	1	22
408.723	1	10
408.894	1	4
409.065	1	13
409.235	1	16
409.406	1	11
409.577	1	2
409.747	1	9
409.918	1	19
410.089	1	22
410.259	1	1
410.430	1	17
410.601	1	15
410.771	1	11
410.942	1	6
411.113	1	18
411.283	1	18
411.454	1	27
411.625	1	18
411.795	1	12
411.966	1	21
412.137	1	19
412.307	1	14
412.478	1	11
412.649	1	10
412.819	1	14
412.990	1	20
413.161	1	26
413.331	1	20
413.502	1	17
413.672	1	22
413.843	1	16
414.014	1	18
414.184	1	19
414.355	1	18
414.526	1	15
414.696	1	17
414.867	1	20
415.038	1	23
415.208	1	15
415.379	1	20
415.550	1	19
415.720	1	18
415.891	1	29
416.062	1	16
416.232	1	27
416.403	1	12
416.573	1	27
416.744	1	17
416.915	1	22
417.085	1	21
417.256	1	18
417.427	1	21
417.597	1	16
417.768	1	14
417.939	1	9
418.109	1	14
418.280	1	11
418.450	1	6
418.621	1	18
418.792	1	17
418.962	1	3
419.133	1	23
419.304	1	13
419.474	1	13
419.645	1	16
419.815	1	11
419.986	1	22
420.157	1	19
420.327	1	16
420.498	1	17
420.669	1	20
420.839	1	14
421.010	1	16
421.180	1	11
421.351	1	15
421.522	1	10
421.692	1	19
421.863	1	16
422.033	1	11
422.204	1	28
422.375	1	6
422.545	1	17
422.716	1	4
422.886	1	10
423.057	1	15
423.228	1	22
423.398	1	27
423.569	1	13
423.740	1	24
423.910	1	22
424.081	1	12
424.251	1	11
424.422	1	16
424.593	1	21
424.763	1	17
424.934	1	10
425.104	1	9
425.275	1	28
425.445	1	12
425.616	1	14
425.787	1	24
425.957	1	7
426.128	1	19
426.298	1	25
426.469	1	7
426.640	1	12
426.810	1	29
426.981	1	15
427.151	1	21
427.322	1	23
427.493	1	20
427.663	1	22
427.834	1	13
428.004	1	0
428.175	1	22
428.345	1	12
428.516	1	23
428.687	1	29
428.857	1	18
429.028	1	16
429.198	1	35
429.369	1	13
429.540	1	23
429.710	1	19
429.881	1	0
430.051	1	18
430.222	1	21
430.392	1	4
430.563	1	28
430.734	1	32
430.904	1	8
431.075	1	20
431.245	1	15
431.416	1	15
431.586	1	8
431.757	1	20
431.927	1	18
432.098	1	13
432.269	1	10
432.439	1	31
432.610	1	28
432.780	1	4
432.951	1	14
433.121	1	23
433.292	1	14
433.462	1	24
433.633	1	5
433.804	1	19
433.974	1	8
434.145	1	13
434.315	1	18
434.486	1	17
434.656	1	26
434.827	1	2
434.997	1	17
435.168	1	15
435.339	1	6
435.509	1	12
435.680	1	20
435.850	1	9
436.021	1	17
436.191	1	18
436.362	1	22
436.532	1	14
436.703	1	15
436.873	1	12
437.044	1	8
437.214	1	6
437.385	1	17
437.556	1	18
437.726	1	21
437.897	1	20
438.067	1	13
438.238	1	11
438.408	1	20
438.579	1	21
438.749	1	7
438.920	1	14
439.090	1	17
439.261	1	17
439.431	1	13
439.602	1	16
439.772	1	19
439.943	1	17
440.113	1	22
440.284	1	11
440.455	1	15
440.625	1	21
440.796	1	19
440.966	1	9
441.137	1	10
441.307	1	12
441.478	1	20
441.648	1	12
441.819	1	14
441.989	1	29
442.160	1	14
442.330	1	20
442.501	1	7
442.671	1	14
442.842	1	17
443.012	1	17
443.183	1	22
443.353	1	33
443.524	1	5
443.694	1	4
443.865	1	20
444.035	1	20
444.206	1	14
444.376	1	8
444.547	1	24
444.717	1	1
444.888	1	12
445.058	1	14
445.229	1	17
445.399	1	12
445.570	1	12
445.740	1	12
445.911	1	23
446.081	1	14
446.252	1	13
446.422	1	18
446.593	1	10
446.763	1	17
446.934	1	12
447.104	1	21
447.275	1	20
447.445	1	15
447.616	1	18
447.786	1	8
447.957	1	18
448.127	1	14
448.298	1	11
448.468	1	6
448.639	1	2
448.809	1	19
448.979	1	11
449.150	1	-2
449.320	1	10
449.491	1	14
449.661	1	20
449.832	1	8
450.002	1	18
450.173	1	10
450.343	1	13
450.514	1	18
450.684	1	15
450.855	1	21
451.025	1	-2
451.196	1	5
451.366	1	16
451.537	1	8
451.707	1	14
451.878	1	5
452.048	1	18
452.218	1	20
452.389	1	18
452.559	1	4
452.730	1	13
452.900	1	10
453.071	1	11
453.241	1	13
453.412	1	15
453.582	1	12
453.753	1	10
453.923	1	26
454.093	1	18
454.264	1	19
454.434	1	20
454.605	1	21
454.775	1	12
454.946	1	21
455.116	1	10
455.287	1	5
455.457	1	12
455.628	1	12
455.798	1	19
455.968	1	16
456.139	1	2
456.309	1	0
456.480	1	11
456.650	1	26
456.821	1	22
456.991	1	21
457.161	1	24
457.332	1	9
457.502	1	2
457.673	1	10
457.843	1	18
458.014	1	6
458.184	1	11
458.355	1	4
458.525	1	7
458.695	1	15
458.866	1	13
459.036	1	17
459.207	1	4
459.377	1	23
459.548	1	9
459.718	1	18
459.888	1	15
460.059	1	4
460.229	1	4
460.400	1	9
460.570	1	18
460.740	1	9
460.911	1	13
461.081	1	7
461.252	1	19
461.422	1	19
461.593	1	-4
461.763	1	14
461.933	1	15
462.104	1	19
462.274	1	14
462.445	1	11
462.615	1	11
462.785	1	11
462.956	1	16
463.126	1	5
463.297	1	12
463.467	1	19
463.638	1	6
463.808	1	1
463.978	1	14
464.149	1	19
464.319	1	3
464.490	1	15
464.660	1	8
464.830	1	12
465.001	1	16
465.171	1	6
465.342	1	9
465.512	1	15
465.682	1	11
465.853	1	14
466.023	1	8
466.194	1	5
466.364	1	11
466.534	1	7
466.705	1	10
466.875	1	18
467.045	1	2
467.216	1	17
467.386	1	16
467.557	1	3
467.727	1	12
467.897	1	9
468.068	1	14
468.238	1	16
468.409	1	0
468.579	1	10
468.749	1	11
468.920	1	6
469.090	1	22
469.260	1	2
469.431	1	3
469.601	1	6
469.772	1	1
469.942	1	11
470.112	1	12
470.283	1	17
470.453	1	21
470.623	1	15
470.794	1	20
470.964	1	2
471.135	1	8
471.305	1	9
471.475	1	5
471.646	1	14
471.816	1	16
471.986	1	7
472.157	1	11
472.327	1	1
472.497	1	-5
472.668	1	9
472.838	1	6
473.009	1	15
473.179	1	1
473.349	1	7
473.520	1	12
473.690	1	10
473.860	1	5
474.031	1	14
474.201	1	8
474.371	1	9
474.542	1	17
474.712	1	4
474.882	1	9
475.053	1	13
475.223	1	8
475.394	1	17
475.564	1	6
475.734	1	1
475.905	1	6
476.075	1	-10
476.245	1	16
476.416	1	9
476.586	1	6
476.756	1	19
476.927	1	9
477.097	1	13
477.267	1	19
477.438	1	-6
477.608	1	-7
477.778	1	13
477.949	1	6
478.119	1	2
478.289	1	12
478.460	1	16
478.630	1	6
478.800	1	13
478.971	1	12
479.141	1	5
479.311	1	9
479.482	1	-1
479.652	1	12
479.822	1	10
479.993	1	2
480.163	1	8
480.333	1	16
480.504	1	14
480.674	1	5
480.844	1	9
481.015	1	-12
481.185	1	21
481.355	1	3
481.525	1	6
481.696	1	17
481.866	1	4
482.036	1	9
482.207	1	15
482.377	1	2
482.547	1	-1
482.718	1	13
482.888	1	1
483.058	1	5
483.229	1	3
483.399	1	15
483.569	1	7
483.740	1	3
483.910	1	5
484.080	1	12
484.250	1	13
484.421	1	9
484.591	1	3
484.761	1	-1
484.932	1	17
485.102	1	7
485.272	1	13
485.443	1	11
485.613	1	3
485.783	1	4
485.953	1	6
486.124	1	-2
486.294	1	7
486.464	1	9
486.635	1	5
486.805	1	1
486.975	1	6
487.146	1	5
487.316	1	16
487.486	1	8
487.656	1	3
487.827	1	11
487.997	1	0
488.167	1	7
488.338	1	3
488.508	1	0
488.678	1	14
488.848	1	5
489.019	1	9
489.189	1	3
489.359	1	8
489.529	1	1
489.700	1	4
489.870	1	-3
490.040	1	0
490.211	1	4
490.381	1	6
490.551	1	5
490.721	1	11
490.892	1	9
491.062	1	9
491.232	1	1
491.402	1	7
491.573	1	15
491.743	1	4
491.913	1	2
492.084	1	8
492.254	1	4
492.424	1	2
492.594	1	23
492.765	1	6
492.935	1	9
493.105	1	-1
493.275	1	5
493.446	1	-1
493.616	1	10
493.786	1	5
493.956	1	13
494.127	1	-8
494.297	1	12
494.467	1	7
494.637	1	7
494.808	1	-2
494.978	1	2
495.148	1	15
495.318	1	1
495.489	1	1
495.659	1	13
495.829	1	8
495.999	1	3
496.170	1	9
496.340	1	8
496.510	1	4
496.680	1	-3
496.851	1	2
497.021	1	5
497.191	1	-6
497.361	1	2
497.532	1	6
497.702	1	11
497.872	1	-8
498.042	1	8
498.213	1	6
498.383	1	8
498.553	1	5
498.723	1	-4
498.894	1	11
499.064	1	11
499.234	1	-3
499.404	1	7
499.574	1	9
499.745	1	6
499.915	1	-1
500.085	1	-3
500.255	1	5
500.426	1	3
500.596	1	8
500.766	1	2
500.936	1	5
501.106	1	1
501.277	1	10
501.447	1	8
501.617	1	0
501.787	1	13
501.958	1	3
502.128	1	14
502.298	1	8
502.468	1	9
502.638	1	6
502.809	1	-6
502.979	1	-6
503.149	1	1
503.319	1	-1
503.489	1	3
503.660	1	6
503.830	1	3
504.000	1	5
504.170	1	2
504.340	1	3
504.511	1	11
504.681	1	7
504.851	1	1
505.021	1	5
505.192	1	8
505.362	1	7
505.532	1	1
505.702	1	0
505.872	1	2
506.043	1	4
506.213	1	8
506.383	1	20
506.553	1	-3
506.723	1	10
506.893	1	6
507.064	1	-4
507.234	1	5
507.404	1	7
507.574	1	11
507.744	1	-6
507.915	1	4
508.085	1	-9
508.255	1	9
508.425	1	1
508.595	1	5
508.766	1	-8
508.936	1	22
509.106	1	0
509.276	1	13
509.446	1	-7
509.616	1	9
509.787	1	4
509.957	1	-1
510.127	1	-2
510.297	1	3
510.467	1	-1
510.638	1	3
510.808	1	-10
510.978	1	3
511.148	1	12
511.318	1	1
511.488	1	9
511.659	1	2
511.829	1	4
511.999	1	-1
512.169	1	-2
512.339	1	5
512.509	1	-5
512.680	1	-12
512.850	1	-3
513.020	1	9
513.190	1	6
513.360	1	1
513.530	1	8
513.700	1	6
513.871	1	-4
514.041	1	3
514.211	1	3
514.381	1	11
514.551	1	-5
514.721	1	8
514.892	1	6
515.062	1	9
515.232	1	9
515.402	1	12
515.572	1	8
515.742	1	11
515.912	1	8
516.083	1	1
516.253	1	14
516.423	1	3
516.593	1	-2
516.763	1	9
516.933	1	14
517.104	1	0
517.274	1	7
517.444	1	-8
517.614	1	9
517.784	1	1
517.954	1	1
518.124	1	7
518.294	1	7
518.465	1	9
518.635	1	2
518.805	1	-6
518.975	1	-7
519.145	1	4
519.315	1	-5
519.485	1	0
519.656	1	2
519.826	1	-2
519.996	1	6
520.166	1	4
520.336	1	3
520.506	1	3
520.676	1	8
520.846	1	-2
521.017	1	2
521.187	1	1
521.357	1	7
521.527	1	-2
521.697	1	0
521.867	1	12
522.037	1	2
522.207	1	4
522.377	1	3
522.548	1	4
522.718	1	13
522.888	1	14
523.058	1	6
523.228	1	2
523.398	1	5
523.568	1	3
523.738	1	-4
523.909	1	14
524.079	1	-5
524.249	1	2
524.419	1	2
524.589	1	10
524.759	1	10
524.929	1	1
525.099	1	4
525.269	1	-3
525.439	1	-1
525.610	1	-4
525.780	1	5
525.950	1	4
526.120	1	-2
526.290	1	1
526.460	1	7
526.630	1	0
526.800	1	-6
526.970	1	10
527.140	1	11
527.311	1	12
527.481	1	-1
527.651	1	5
527.821	1	-4
527.991	1	-7
528.161	1	-5
528.331	1	-5
528.501	1	6
528.671	1	10
528.841	1	19
529.011	1	1
529.181	1	7
529.352	1	6
529.522	1	3
529.692	1	-1
529.862	1	-3
530.032	1	3
530.202	1	0
530.372	1	8
530.542	1	-1
530.712	1	15
530.882	1	10
531.052	1	-1
531.222	1	5
531.392	1	-9
531.563	1	-5
531.733	1	-5
531.903	1	4
532.073	1	7
532.243	1	16
532.413	1	-1
532.583	1	2
532.753	1	11
532.923	1	-4
533.093	1	8
533.263	1	-4
533.433	1	-13
533.603	1	-1
533.773	1	4
533.943	1	-3
534.113	1	6
534.284	1	-7
534.454	1	11
534.624	1	4
534.794	1	8
534.964	1	3
535.134	1	12
535.304	1	13
535.474	1	-8
535.644	1	11
535.814	1	-2
535.984	1	-3
536.154	1	4
536.324	1	2
536.494	1	1
536.664	1	-6
536.834	1	8
537.004	1	-5
537.174	1	-1
537.344	1	7
537.514	1	-3
537.685	1	6
537.855	1	0
538.025	1	1
538.195	1	3
538.365	1	10
538.535	1	1
538.705	1	-1
538.875	1	-1
539.045	1	0
539.215	1	11
539.385	1	-5
539.555	1	-3
539.725	1	3
539.895	1	8
540.065	1	-10
540.235	1	4
540.405	1	-9
540.575	1	4
540.745	1	-1
540.915	1	6
541.085	1	-6
541.255	1	8
541.425	1	-8
541.595	1	1
541.765	1	10
541.935	1	2
542.105	1	-3
542.275	1	4
542.445	1	4
542.615	1	4
542.785	1	-3
542.955	1	-1
543.125	1	0
543.295	1	10
543.465	1	-2
543.635	1	1
543.805	1	-6
543.975	1	-2
544.145	1	8
544.315	1	-3
544.485	1	4
544.655	1	-2
544.825	1	-9
544.995	1	2
545.165	1	14
545.335	1	-11
545.505	1	-8
545.675	1	-11
545.845	1	16
546.015	1	-5
546.185	1	3
546.355	1	9
546.525	1	0
546.695	1	1
546.865	1	11
547.035	1	-2
547.205	1	11
547.375	1	-2
547.545	1	3
547.715	1	-1
547.885	1	2
548.055	1	-4
548.225	1	7
548.395	1	-7
548.565	1	5
548.735	1	-8
548.905	1	3
549.075	1	3
549.245	1	0
549.415	1	-1
549.585	1	8
549.755	1	2
549.925	1	-6
550.095	1	-5
550.265	1	11
550.435	1	-5
550.605	1	9
550.775	1	14
550.945	1	9
551.115	1	11
551.285	1	5
551.455	1	-6
551.625	1	-4
551.795	1	-2
551.965	1	-7
552.135	1	-1
552.305	1	5
552.475	1	6
552.645	1	-2
552.815	1	3
552.985	1	-2
553.155	1	-3
553.325	1	-5
553.495	1	-2
553.665	1	1
553.835	1	10
554.004	1	14
554.174	1	1
554.344	1	1
554.514	1	3
554.684	1	5
554.854	1	-7
555.024	1	-7
555.194	1	-6
555.364	1	3
555.534	1	-8
555.704	1	14
555.874	1	5
556.044	1	8
556.214	1	0
556.384	1	6
556.554	1	-3
556.724	1	-5
556.894	1	-1
557.064	1	3
557.234	1	-5
557.404	1	5
557.573	1	-5
557.743	1	-4
557.913	1	8
558.083	1	0
558.253	1	-3
558.423	1	1
558.593	1	6
558.763	1	9
558.933	1	-2
559.103	1	14
559.273	1	-9
559.443	1	-2
559.613	1	-3
559.783	1	-9
559.953	1	-4
560.122	1	5
560.292	1	6
560.462	1	6
560.632	1	-3
560.802	1	3
560.972	1	1
561.142	1	2
561.312	1	1
561.482	1	-10
561.652	1	-6
561.822	1	-5
561.992	1	-13
562.162	1	11
562.331	1	2
562.501	1	0
562.671	1	9
562.841	1	-2
563.011	1	4
563.181	1	5
563.351	1	-4
563.521	1	8
563.691	1	-1
563.861	1	-1
564.031	1	-4
564.201	1	13
564.370	1	-4
564.540	1	14
564.710	1	5
564.880	1	2
565.050	1	5
565.220	1	0
565.390	1	2
565.560	1	5
565.730	1	-1
565.900	1	0
566.069	1	5
566.239	1	13
566.409	1	-6
566.579	1	3
566.749	1	-10
566.919	1	-1
567.089	1	2
567.259	1	3
567.429	1	-1
567.599	1	12
567.768	1	5
567.938	1	-6
568.108	1	4
568.278	1	18
568.448	1	-1
568.618	1	-1
568.788	1	2
568.958	1	-7
569.128	1	10
569.297	1	5
569.467	1	-5
569.637	1	10
569.807	1	1
569.977	1	6
570.147	1	3
570.317	1	-1
570.487	1	-8
570.656	1	-10
570.826	1	5
570.996	1	5
571.166	1	15
571.336	1	-2
571.506	1	12
571.676	1	4
571.846	1	3
572.015	1	-4
572.185	1	5
572.355	1	-5
572.525	1	-10
572.695	1	8
572.865	1	-3
573.035	1	12
573.205	1	0
573.374	1	3
573.544	1	6
573.714	1	2
573.884	1	1
574.054	1	-2
574.224	1	-4
574.394	1	-1
574.563	1	8
574.733	1	3
574.903	1	15
575.073	1	2
575.243	1	-3
575.413	1	-3
575.583	1	7
575.752	1	3
575.922	1	-5
576.092	1	-4
576.262	1	-6
576.432	1	-10
576.602	1	-12
576.772	1	6
576.941	1	-11
577.111	1	-8
577.281	1	-4
577.451	1	1
577.621	1	-6
577.791	1	2
577.960	1	-4
578.130	1	-1
578.300	1	-4
578.470	1	-2
578.640	1	2
578.810	1	6
578.979	1	1
579.149	1	-10
579.319	1	2
579.489	1	-7
579.659	1	-3
579.829	1	3
579.998	1	-2
580.168	1	3
580.338	1	-5
580.508	1	12
580.678	1	7
580.848	1	0
581.017	1	6
581.187	1	8
581.357	1	3
581.527	1	-7
581.697	1	-5
581.867	1	-4
582.036	1	-4
582.206	1	7
582.376	1	4
582.546	1	-12
582.716	1	-2
582.885	1	-3
583.055	1	2
583.225	1	-4
583.395	1	2
583.565	1	11
583.735	1	8
583.904	1	3
584.074	1	-7
584.244	1	-4
584.414	1	6
584.584	1	-8
584.753	1	17
584.923	1	2
585.093	1	-3
585.263	1	1
585.433	1	2
585.602	1	-2
585.772	1	-9
585.942	1	2
586.112	1	-7
586.282	1	5
586.451	1	8
586.621	1	16
586.791	1	3
586.961	1	2
587.131	1	-5
587.300	1	-5
587.470	1	-4
587.640	1	4
587.810	1	5
587.980	1	-7
588.149	1	0
588.319	1	5
588.489	1	0
588.659	1	-1
588.829	1	6
588.998	1	1
589.168	1	5
589.338	1	6
589.508	1	2
589.677	1	10
589.847	1	9
590.017	1	6
590.187	1	6
590.357	1	18
590.526	1	-12
590.696	1	-5
590.866	1	-3
591.036	1	9
591.205	1	3
591.375	1	0
591.545	1	0
591.715	1	0
591.885	1	5
592.054	1	9
592.224	1	5
592.394	1	-4
592.564	1	-4
592.733	1	-8
592.903	1	3
593.073	1	-4
593.243	1	2
593.412	1	4
593.582	1	6
593.752	1	-5
593.922	1	3
594.091	1	0
594.261	1	3
594.431	1	9
594.601	1	-5
594.771	1	5
594.940	1	5
595.110	1	5
595.280	1	-3
595.450	1	15
595.619	1	-1
595.789	1	4
595.959	1	15
596.129	1	7
596.298	1	0
596.468	1	-2
596.638	1	-8
596.808	1	2
596.977	1	-2
597.147	1	-13
597.317	1	-1
597.487	1	10
597.656	1	-5
597.826	1	11
597.996	1	1
598.166	1	8
598.335	1	5
598.505	1	9
598.675	1	-1
598.844	1	-2
599.014	1	0
599.184	1	10
599.354	1	7
599.523	1	-7
599.693	1	0
599.863	1	3
600.033	1	-4
600.202	1	10
600.372	1	-8
600.542	1	3
600.712	1	-1
600.881	1	-2
601.051	1	0
601.221	1	1
601.390	1	-16
601.560	1	7
601.730	1	7
601.900	1	2
602.069	1	8
602.239	1	12
602.409	1	5
602.578	1	-2
602.748	1	-4
602.918	1	-1
603.088	1	0
603.257	1	5
603.427	1	-2
603.597	1	1
603.767	1	-1
603.936	1	3
604.106	1	10
604.276	1	14
604.445	1	14
604.615	1	11
604.785	1	4
604.954	1	11
605.124	1	9
605.294	1	8
605.464	1	-2
605.633	1	3
605.803	1	17
605.973	1	15
606.142	1	5
606.312	1	2
606.482	1	5
606.652	1	-6
606.821	1	-3
606.991	1	6
607.161	1	7
607.330	1	-1
607.500	1	11
607.670	1	6
607.839	1	6
608.009	1	6
608.179	1	7
608.348	1	4
608.518	1	-2
608.688	1	-13
608.858	1	3
609.027	1	3
609.197	1	-12
609.367	1	17
609.536	1	-3
609.706	1	4
609.876	1	23
610.045	1	2
610.215	1	2
610.385	1	2
610.554	1	-5
610.724	1	-5
610.894	1	6
611.063	1	-5
611.233	1	-2
611.403	1	-3
611.572	1	8
611.742	1	1
611.912	1	0
612.081	1	-6
612.251	1	17
612.421	1	13
612.590	1	-3
612.760	1	4
612.930	1	-2
613.099	1	6
613.269	1	0
613.439	1	-4
613.608	1	11
613.778	1	-3
613.948	1	9
614.117	1	12
614.287	1	1
614.457	1	-10
614.626	1	15
614.796	1	-1
614.966	1	9
615.135	1	7
615.305	1	9
615.475	1	8
615.644	1	-3
615.814	1	-1
615.984	1	3
616.153	1	7
616.323	1	2
616.493	1	14
616.662	1	9
616.832	1	8
617.002	1	8
617.171	1	3
617.341	1	3
617.511	1	0
617.680	1	15
617.850	1	-1
618.019	1	10
618.189	1	3
618.359	1	0
618.528	1	2
618.698	1	10
618.868	1	-5
619.037	1	1
619.207	1	9
619.377	1	3
619.546	1	1
619.716	1	8
619.885	1	6
620.055	1	5
620.225	1	12
620.394	1	3
620.564	1	4
620.734	1	5
620.903	1	5
621.073	1	-4
621.242	1	-2
621.412	1	9
621.582	1	6
621.751	1	9
621.921	1	10
622.091	1	9
622.260	1	-4
622.430	1	-5
622.599	1	-10
622.769	1	5
622.939	1	8
623.108	1	4
623.278	1	1
623.448	1	4
623.617	1	2
623.787	1	5
623.956	1	14
624.126	1	0
624.296	1	12
624.465	1	2
624.635	1	6
624.804	1	3
624.974	1	8
625.144	1	4
625.313	1	-3
625.483	1	23
625.652	1	8
625.822	1	-2
625.992	1	-1
626.161	1	26
626.331	1	-4
626.501	1	0
626.670	1	1
626.840	1	14
627.009	1	3
627.179	1	12
627.348	1	9
627.518	1	21
627.688	1	0
627.857	1	5
628.027	1	-9
628.196	1	4
628.366	1	5
628.536	1	-1
628.705	1	3
628.875	1	6
629.044	1	11
629.214	1	5
629.384	1	7
629.553	1	5
629.723	1	6
629.892	1	4
630.062	1	1
630.232	1	3
630.401	1	2
630.571	1	8
630.740	1	8
630.910	1	-4
631.079	1	-5
631.249	1	10
631.419	1	3
631.588	1	7
631.758	1	5
631.927	1	5
632.097	1	3
632.266	1	14
632.436	1	8
632.606	1	7
632.775	1	9
632.945	1	10
633.114	1	2
633.284	1	-6
633.453	1	-3
633.623	1	10
633.793	1	-3
633.962	1	10
634.132	1	6
634.301	1	15
634.471	1	-12
634.640	1	2
634.810	1	6
634.979	1	2
635.149	1	6
635.319	1	11
635.488	1	16
635.658	1	9
635.827	1	7
635.997	1	19
636.166	1	1
636.336	1	11
636.505	1	3
636.675	1	14
636.845	1	7
637.014	1	9
637.184	1	12
637.353	1	1
637.523	1	1
637.692	1	12
637.862	1	6
638.031	1	10
638.201	1	4
638.370	1	3
638.540	1	1
638.710	1	16
638.879	1	9
639.049	1	3
639.218	1	12
639.388	1	8
639.557	1	9
639.727	1	-6
639.896	1	2
640.066	1	14
640.235	1	4
640.405	1	0
640.574	1	11
640.744	1	16
640.914	1	13
641.083	1	8
641.253	1	15
641.422	1	6
641.592	1	7
641.761	1	2
641.931	1	7
642.100	1	-1
642.270	1	6
642.439	1	-4
642.609	1	15
642.778	1	-8
642.948	1	1
643.117	1	17
643.287	1	5
643.456	1	4
643.626	1	17
643.795	1	5
643.965	1	17
644.134	1	6
644.304	1	11
644.473	1	9
644.643	1	-1
644.812	1	16
644.982	1	13
645.151	1	22
645.321	1	6
645.490	1	0
645.660	1	-5
645.829	1	8
645.999	1	12
646.168	1	-4
646.338	1	4
646.507	1	7
646.677	1	3
646.846	1	3
647.016	1	10
647.185	1	-3
647.355	1	11
647.524	1	9
647.694	1	-3
647.863	1	-2
648.033	1	-2
648.202	1	6
648.372	1	18
648.541	1	1
648.711	1	15
648.880	1	10
649.050	1	-2
649.219	1	-6
649.389	1	6
649.558	1	-8
649.728	1	9
649.897	1	11
650.067	1	7
650.236	1	9
650.406	1	-1
650.575	1	4
650.745	1	8
650.914	1	10
651.084	1	0
651.253	1	9
651.423	1	10
651.592	1	7
651.762	1	12
651.931	1	1
652.101	1	8
652.270	1	7
652.440	1	9
652.609	1	8
652.778	1	-1
652.948	1	3
653.117	1	1
653.287	1	2
653.456	1	7
653.626	1	-11
653.795	1	13
653.965	1	9
654.134	1	6
654.304	1	5
654.473	1	16
654.643	1	0
654.812	1	1
654.982	1	-4
655.151	1	4
655.320	1	9
655.490	1	7
655.659	1	3
655.829	1	14
655.998	1	1
656.168	1	6
656.337	1	16
656.507	1	-3
656.676	1	8
656.846	1	-7
657.015	1	11
657.184	1	6
657.354	1	7
657.523	1	6
657.693	1	3
657.862	1	10
658.032	1	3
658.201	1	11
658.371	1	-7
658.540	1	-2
658.709	1	-5
658.879	1	-11
659.048	1	-4
659.218	1	5
659.387	1	-1
659.557	1	12
659.726	1	11
659.895	1	-6
660.065	1	1
660.234	1	7
660.404	1	10
660.573	1	8
660.743	1	16
660.912	1	-1
661.081	1	14
661.251	1	-2
661.420	1	15
661.590	1	-7
661.759	1	5
661.929	1	-2
662.098	1	-7
662.267	1	10
662.437	1	6
662.606	1	9
662.776	1	6
662.945	1	9
663.115	1	9
663.284	1	13
663.453	1	-3
663.623	1	12
663.792	1	1
663.962	1	6
664.131	1	0
664.300	1	9
664.470	1	16
664.639	1	0
664.809	1	-7
664.978	1	3
665.148	1	5
665.317	1	5
665.486	1	2
665.656	1	0
665.825	1	8
665.995	1	9
666.164	1	8
666.333	1	10
666.503	1	0
666.672	1	8
666.842	1	-4
667.011	1	-9
667.180	1	3
667.350	1	5
667.519	1	11
667.689	1	-2
667.858	1	13
668.027	1	15
668.197	1	6
668.366	1	5
668.536	1	11
668.705	1	3
668.874	1	4
669.044	1	3
669.213	1	9
669.382	1	4
669.552	1	9
669.721	1	17
669.891	1	2
670.060	1	2
670.229	1	-12
670.399	1	9
670.568	1	-3
670.738	1	-2
670.907	1	6
671.076	1	2
671.246	1	15
671.415	1	7
671.584	1	3
671.754	1	3
671.923	1	0
672.093	1	10
672.262	1	11
672.431	1	-5
672.601	1	-5
672.770	1	5
672.939	1	7
673.109	1	3
673.278	1	21
673.448	1	0
673.617	1	-5
673.786	1	4
