325.333	1	7
325.504	1	-4
325.675	1	-3
325.846	1	2
326.017	1	10
326.188	1	9
326.359	1	2
326.531	1	-3
326.702	1	1
326.873	1	10
327.044	1	5
327.215	1	-3
327.386	1	7
327.557	1	3
327.728	1	7
327.899	1	20
328.070	1	7
328.241	1	3
328.412	1	4
328.583	1	1
328.754	1	2
328.926	1	-2
329.097	1	5
329.268	1	-4
329.439	1	9
329.610	1	2
329.781	1	4
329.952	1	12
330.123	1	8
330.294	1	4
330.465	1	2
330.636	1	4
330.807	1	6
330.978	1	1
331.149	1	12
331.320	1	12
331.492	1	8
331.663	1	5
331.834	1	9
332.005	1	1
332.176	1	-5
332.347	1	14
332.518	1	8
332.689	1	9
332.860	1	-2
333.031	1	1
333.202	1	-3
333.373	1	10
333.544	1	7
333.715	1	18
333.886	1	6
334.057	1	13
334.228	1	10
334.399	1	11
334.570	1	10
334.741	1	6
334.912	1	11
335.084	1	6
335.255	1	4
335.426	1	3
335.597	1	8
335.768	1	13
335.939	1	2
336.110	1	1
336.281	1	8
336.452	1	21
336.623	1	6
336.794	1	8
336.965	1	1
337.136	1	2
337.307	1	-2
337.478	1	1
337.649	1	10
337.820	1	5
337.991	1	9
338.162	1	6
338.333	1	-1
338.504	1	15
338.675	1	9
338.846	1	8
339.017	1	14
339.188	1	-1
339.359	1	8
339.530	1	9
339.701	1	4
339.872	1	13
340.043	1	-9
340.214	1	-5
340.385	1	14
340.556	1	6
340.727	1	9
340.898	1	11
341.069	1	5
341.240	1	14
341.411	1	6
341.582	1	14
341.753	1	16
341.924	1	-7
342.095	1	14
342.266	1	12
342.437	1	14
342.608	1	19
342.779	1	7
342.950	1	3
343.121	1	2
343.292	1	11
343.463	1	11
343.634	1	-1
343.805	1	-3
343.976	1	8
344.147	1	5
344.318	1	11
344.489	1	10
344.660	1	4
344.831	1	8
345.002	1	17
345.173	1	8
345.344	1	10
345.515	1	-4
345.686	1	20
345.857	1	3
346.028	1	6
346.199	1	2
346.370	1	8
346.541	1	-4
346.712	1	8
346.883	1	11
347.054	1	10
347.225	1	5
347.396	1	-4
347.567	1	16
347.738	1	2
347.909	1	4
348.080	1	16
348.251	1	8
348.422	1	3
348.593	1	0
348.764	1	15
348.935	1	1
349.106	1	6
349.277	1	6
349.448	1	16
349.619	1	4
349.790	1	17
349.961	1	14
350.132	1	22
350.303	1	7
350.474	1	9
350.645	1	5
350.816	1	-2
350.987	1	11
351.157	1	15
351.328	1	15
351.499	1	5
351.670	1	3
351.841	1	16
352.012	1	15
352.183	1	3
352.354	1	3
352.525	1	14
352.696	1	17
352.867	1	7
353.038	1	3
353.209	1	5
353.380	1	4
353.551	1	-7
353.722	1	7
353.893	1	0
354.064	1	4
354.235	1	6
354.406	1	20
354.576	1	9
354.747	1	2
354.918	1	13
355.089	1	15
355.260	1	15
355.431	1	-2
355.602	1	6
355.773	1	1
355.944	1	-2
356.115	1	9
356.286	1	12
356.457	1	5
356.628	1	4
356.799	1	6
356.970	1	14
357.141	1	-2
357.311	1	11
357.482	1	9
357.653	1	5
357.824	1	10
357.995	1	-3
358.166	1	0
358.337	1	6
358.508	1	15
358.679	1	8
358.850	1	7
359.021	1	13
359.192	1	7
359.363	1	9
359.533	1	-6
359.704	1	22
359.875	1	13
360.046	1	11
360.217	1	9
360.388	1	6
360.559	1	5
360.730	1	5
360.901	1	10
361.072	1	7
361.243	1	6
361.414	1	-5
361.584	1	0
361.755	1	1
361.926	1	11
362.097	1	11
362.268	1	-2
362.439	1	-2
362.610	1	2
362.781	1	4
362.952	1	13
363.123	1	2
363.293	1	7
363.464	1	3
363.635	1	15
363.806	1	1
363.977	1	6
364.148	1	-2
364.319	1	9
364.490	1	11
364.661	1	4
364.832	1	1
365.002	1	17
365.173	1	2
365.344	1	12
365.515	1	-6
365.686	1	-1
365.857	1	10
366.028	1	16
366.199	1	3
366.370	1	4
366.540	1	8
366.711	1	5
366.882	1	-4
367.053	1	-3
367.224	1	11
367.395	1	4
367.566	1	-1
367.737	1	0
367.908	1	4
368.078	1	11
368.249	1	9
368.420	1	0
368.591	1	12
368.762	1	1
368.933	1	-1
369.104	1	16
369.274	1	0
369.445	1	15
369.616	1	3
369.787	1	14
369.958	1	-6
370.129	1	7
370.300	1	6
370.471	1	4
370.641	1	13
370.812	1	3
370.983	1	0
371.154	1	0
371.325	1	8
371.496	1	6
371.667	1	0
371.837	1	3
372.008	1	-7
372.179	1	4
372.350	1	-4
372.521	1	3
372.692	1	-13
372.863	1	4
373.033	1	5
373.204	1	9
373.375	1	6
373.546	1	14
373.717	1	-3
373.888	1	10
374.059	1	11
374.229	1	7
374.400	1	1
374.571	1	5
374.742	1	9
374.913	1	8
375.084	1	0
375.254	1	5
375.425	1	-4
375.596	1	15
375.767	1	12
375.938	1	12
376.109	1	5
376.279	1	-2
376.450	1	14
376.621	1	2
376.792	1	4
376.963	1	-4
377.134	1	13
377.304	1	7
377.475	1	3
377.646	1	7
377.817	1	3
377.988	1	2
378.159	1	14
378.329	1	6
378.500	1	13
378.671	1	8
378.842	1	2
379.013	1	11
379.184	1	1
379.354	1	-2
379.525	1	5
379.696	1	10
379.867	1	12
380.038	1	11
380.209	1	6
380.379	1	7
380.550	1	15
380.721	1	0
380.892	1	0
381.063	1	1
381.233	1	8
381.404	1	8
381.575	1	20
381.746	1	18
381.917	1	5
382.087	1	16
382.258	1	17
382.429	1	-8
382.600	1	1
382.771	1	5
382.941	1	23
383.112	1	3
383.283	1	18
383.454	1	3
383.625	1	1
383.795	1	16
383.966	1	1
384.137	1	15
384.308	1	8
384.479	1	0
384.649	1	12
384.820	1	10
384.991	1	7
385.162	1	3
385.333	1	14
385.503	1	8
385.674	1	-11
385.845	1	13
386.016	1	8
386.187	1	17
386.357	1	8
386.528	1	-3
386.699	1	4
386.870	1	7
387.041	1	21
387.211	1	3
387.382	1	-2
387.553	1	5
387.724	1	20
387.894	1	13
388.065	1	11
388.236	1	2
388.407	1	8
388.578	1	1
388.748	1	-5
388.919	1	1
389.090	1	14
389.261	1	12
389.431	1	6
389.602	1	17
389.773	1	23
389.944	1	16
390.114	1	19
390.285	1	6
390.456	1	3
390.627	1	8
390.798	1	2
390.968	1	18
391.139	1	5
391.310	1	4
391.481	1	0
391.651	1	17
391.822	1	13
391.993	1	13
392.164	1	12
392.334	1	-3
392.505	1	9
392.676	1	5
392.847	1	5
393.017	1	6
393.188	1	7
393.359	1	8
393.530	1	9
393.700	1	-15
393.871	1	12
394.042	1	4
394.213	1	7
394.383	1	4
394.554	1	15
394.725	1	7
394.896	1	11
395.066	1	12
395.237	1	13
395.408	1	19
395.579	1	7
395.749	1	11
395.920	1	4
396.091	1	16
396.262	1	-1
396.432	1	16
396.603	1	15
396.774	1	10
396.945	1	16
397.115	1	9
397.286	1	5
397.457	1	9
397.627	1	13
397.798	1	6
397.969	1	11
398.140	1	5
398.310	1	11
398.481	1	3
398.652	1	1
398.823	1	14
398.993	1	14
399.164	1	5
399.335	1	9
399.505	1	3
399.676	1	11
399.847	1	3
400.018	1	10
400.188	1	17
400.359	1	2
400.530	1	12
400.700	1	12
400.871	1	5
401.042	1	9
401.213	1	12
401.383	1	10
401.554	1	11
401.725	1	13
401.895	1	-3
402.066	1	12
402.237	1	20
402.408	1	10
402.578	1	6
402.749	1	10
402.920	1	9
403.090	1	2
403.261	1	13
403.432	1	13
403.603	1	6
403.773	1	1
403.944	1	14
404.115	1	3
404.285	1	19
404.456	1	12
404.627	1	11
404.797	1	10
404.968	1	15
405.139	1	4
405.310	1	18
405.480	1	13
405.651	1	6
405.822	1	10
405.992	1	-4
406.163	1	21
406.334	1	12
406.504	1	17
406.675	1	21
406.846	1	18
407.016	1	15
407.187	1	12
407.358	1	15
407.528	1	4
407.699	1	10
407.870	1	5
408.041	1	21
408.211	1	20
408.382	1	9
408.553	1	13
408.723	1	20
408.894	1	3
409.065	1	3
409.235	1	2
409.406	1	8
409.577	1	8
409.747	1	10
409.918	1	7
410.089	1	10
410.259	1	3
410.430	1	14
410.601	1	11
410.771	1	9
410.942	1	9
411.113	1	3
411.283	1	7
411.454	1	17
411.625	1	12
411.795	1	-1
411.966	1	21
412.137	1	11
412.307	1	9
412.478	1	12
412.649	1	12
412.819	1	19
412.990	1	10
413.161	1	11
413.331	1	9
413.502	1	20
413.672	1	12
413.843	1	6
414.014	1	10
414.184	1	8
414.355	1	13
414.526	1	11
414.696	1	20
414.867	1	7
415.038	1	18
415.208	1	16
415.379	1	9
415.550	1	20
415.720	1	-1
415.891	1	23
416.062	1	9
416.232	1	8
416.403	1	15
416.573	1	16
416.744	1	15
416.915	1	17
417.085	1	15
417.256	1	6
417.427	1	14
417.597	1	17
417.768	1	14
417.939	1	11
418.109	1	17
418.280	1	13
418.450	1	13
418.621	1	8
418.792	1	18
418.962	1	4
419.133	1	8
419.304	1	6
419.474	1	9
419.645	1	16
419.815	1	3
419.986	1	14
420.157	1	13
420.327	1	11
420.498	1	11
420.669	1	12
420.839	1	12
421.010	1	-4
421.180	1	15
421.351	1	20
421.522	1	13
421.692	1	16
421.863	1	8
422.033	1	-3
422.204	1	13
422.375	1	9
422.545	1	17
422.716	1	11
422.886	1	12
423.057	1	25
423.228	1	7
423.398	1	9
423.569	1	14
423.740	1	15
423.910	1	16
424.081	1	8
424.251	1	11
424.422	1	17
424.593	1	4
424.763	1	13
424.934	1	14
425.104	1	6
425.275	1	20
425.445	1	6
425.616	1	15
425.787	1	12
425.957	1	9
426.128	1	21
426.298	1	22
426.469	1	15
426.640	1	17
426.810	1	28
426.981	1	14
427.151	1	11
427.322	1	19
427.493	1	25
427.663	1	8
427.834	1	15
428.004	1	-1
428.175	1	19
428.345	1	11
428.516	1	15
428.687	1	18
428.857	1	5
429.028	1	4
429.198	1	16
429.369	1	12
429.540	1	19
429.710	1	8
429.881	1	6
430.051	1	5
430.222	1	10
430.392	1	13
430.563	1	10
430.734	1	15
430.904	1	14
431.075	1	15
431.245	1	3
431.416	1	19
431.586	1	9
431.757	1	10
431.927	1	24
432.098	1	3
432.269	1	7
432.439	1	22
432.610	1	26
432.780	1	10
432.951	1	16
433.121	1	15
433.292	1	3
433.462	1	7
433.633	1	-3
433.804	1	12
433.974	1	23
434.145	1	10
434.315	1	7
434.486	1	25
434.656	1	17
434.827	1	-1
434.997	1	11
435.168	1	20
435.339	1	13
435.509	1	5
435.680	1	12
435.850	1	7
436.021	1	23
436.191	1	13
436.362	1	7
436.532	1	15
436.703	1	8
436.873	1	16
437.044	1	2
437.214	1	7
437.385	1	14
437.556	1	18
437.726	1	19
437.897	1	17
438.067	1	-2
438.238	1	0
438.408	1	-1
438.579	1	16
438.749	1	4
438.920	1	19
439.090	1	12
439.261	1	7
439.431	1	11
439.602	1	16
439.772	1	2
439.943	1	13
440.113	1	13
440.284	1	17
440.455	1	18
440.625	1	28
440.796	1	18
440.966	1	4
441.137	1	6
441.307	1	10
441.478	1	7
441.648	1	10
441.819	1	18
441.989	1	23
442.160	1	1
442.330	1	15
442.501	1	9
442.671	1	10
442.842	1	20
443.012	1	9
443.183	1	17
443.353	1	2
443.524	1	3
443.694	1	9
443.865	1	15
444.035	1	8
444.206	1	9
444.376	1	11
444.547	1	15
444.717	1	4
444.888	1	8
445.058	1	12
445.229	1	5
445.399	1	11
445.570	1	-3
445.740	1	6
445.911	1	19
446.081	1	23
446.252	1	11
446.422	1	10
446.593	1	8
446.763	1	-4
446.934	1	5
447.104	1	4
447.275	1	11
447.445	1	9
447.616	1	21
447.786	1	15
447.957	1	8
448.127	1	19
448.298	1	7
448.468	1	0
448.639	1	11
448.809	1	8
448.979	1	3
449.150	1	8
449.320	1	13
449.491	1	12
449.661	1	29
449.832	1	12
450.002	1	10
450.173	1	13
450.343	1	12
450.514	1	2
450.684	1	11
450.855	1	13
451.025	1	12
451.196	1	4
451.366	1	27
451.537	1	14
451.707	1	7
451.878	1	1
452.048	1	15
452.218	1	14
452.389	1	2
452.559	1	-2
452.730	1	16
452.900	1	6
453.071	1	14
453.241	1	20
453.412	1	7
453.582	1	7
453.753	1	11
453.923	1	13
454.093	1	17
454.264	1	23
454.434	1	17
454.605	1	4
454.775	1	10
454.946	1	24
455.116	1	22
455.287	1	7
455.457	1	7
455.628	1	15
455.798	1	21
455.968	1	11
456.139	1	4
456.309	1	2
456.480	1	13
456.650	1	13
456.821	1	24
456.991	1	13
457.161	1	15
457.332	1	7
457.502	1	3
457.673	1	7
457.843	1	11
458.014	1	8
458.184	1	7
458.355	1	3
458.525	1	8
458.695	1	2
458.866	1	12
459.036	1	3
459.207	1	15
459.377	1	10
459.548	1	7
459.718	1	1
459.888	1	14
460.059	1	10
460.229	1	16
460.400	1	16
460.570	1	10
460.740	1	-1
460.911	1	4
461.081	1	2
461.252	1	21
461.422	1	12
461.593	1	6
461.763	1	23
461.933	1	8
462.104	1	17
462.274	1	19
462.445	1	4
462.615	1	11
462.785	1	8
462.956	1	3
463.126	1	6
463.297	1	20
463.467	1	19
463.638	1	1
463.808	1	8
463.978	1	-2
464.149	1	15
464.319	1	-5
464.490	1	13
464.660	1	6
464.830	1	-1
465.001	1	15
465.171	1	1
465.342	1	16
465.512	1	2
465.682	1	11
465.853	1	5
466.023	1	7
466.194	1	12
466.364	1	11
466.534	1	12
466.705	1	4
466.875	1	6
467.045	1	7
467.216	1	12
467.386	1	14
467.557	1	5
467.727	1	5
467.897	1	2
468.068	1	10
468.238	1	7
468.409	1	3
468.579	1	14
468.749	1	-1
468.920	1	11
469.090	1	9
469.260	1	-6
469.431	1	7
469.601	1	5
469.772	1	8
469.942	1	9
470.112	1	7
470.283	1	10
470.453	1	10
470.623	1	11
470.794	1	9
470.964	1	-1
471.135	1	8
471.305	1	5
471.475	1	-1
471.646	1	12
471.816	1	17
471.986	1	5
472.157	1	8
472.327	1	-2
472.497	1	3
472.668	1	9
472.838	1	0
473.009	1	17
473.179	1	9
473.349	1	2
473.520	1	4
473.690	1	17
473.860	1	13
474.031	1	16
474.201	1	11
474.371	1	13
474.542	1	17
474.712	1	-5
474.882	1	13
475.053	1	4
475.223	1	2
475.394	1	2
475.564	1	1
475.734	1	10
475.905	1	4
476.075	1	6
476.245	1	17
476.416	1	8
476.586	1	3
476.756	1	10
476.927	1	3
477.097	1	9
477.267	1	8
477.438	1	-10
477.608	1	5
477.778	1	6
477.949	1	7
478.119	1	0
478.289	1	10
478.460	1	8
478.630	1	4
478.800	1	-2
478.971	1	12
479.141	1	9
479.311	1	8
479.482	1	7
479.652	1	11
479.822	1	6
479.993	1	8
480.163	1	0
480.333	1	7
480.504	1	9
480.674	1	7
480.844	1	7
481.015	1	1
481.185	1	3
481.355	1	7
481.525	1	-1
481.696	1	13
481.866	1	-6
482.036	1	6
482.207	1	9
482.377	1	10
482.547	1	4
482.718	1	17
482.888	1	-8
483.058	1	6
483.229	1	6
483.399	1	11
483.569	1	6
483.740	1	4
483.910	1	-11
484.080	1	2
484.250	1	14
484.421	1	-1
484.591	1	6
484.761	1	3
484.932	1	12
485.102	1	4
485.272	1	0
485.443	1	9
485.613	1	-1
485.783	1	2
485.953	1	-3
486.124	1	-8
486.294	1	10
486.464	1	-4
486.635	1	-2
486.805	1	-6
486.975	1	2
487.146	1	5
487.316	1	15
487.486	1	-9
487.656	1	2
487.827	1	8
487.997	1	0
488.167	1	5
488.338	1	-5
488.508	1	2
488.678	1	-2
488.848	1	17
489.019	1	8
489.189	1	0
489.359	1	9
489.529	1	-5
489.700	1	0
489.870	1	4
490.040	1	4
490.211	1	0
490.381	1	-1
490.551	1	-13
490.721	1	11
490.892	1	13
491.062	1	2
491.232	1	3
491.402	1	4
491.573	1	-2
491.743	1	-2
491.913	1	3
492.084	1	6
492.254	1	8
492.424	1	3
492.594	1	11
492.765	1	0
492.935	1	4
493.105	1	8
493.275	1	3
493.446	1	14
493.616	1	13
493.786	1	8
493.956	1	-1
494.127	1	-5
494.297	1	7
494.467	1	10
494.637	1	7
494.808	1	-7
494.978	1	2
495.148	1	13
495.318	1	3
495.489	1	4
495.659	1	11
495.829	1	20
495.999	1	10
496.170	1	-4
496.340	1	14
496.510	1	1
496.680	1	-4
496.851	1	-3
497.021	1	-4
497.191	1	8
497.361	1	12
497.532	1	5
497.702	1	1
497.872	1	2
498.042	1	6
498.213	1	10
498.383	1	13
498.553	1	-4
498.723	1	-6
498.894	1	10
499.064	1	6
499.234	1	3
499.404	1	6
499.574	1	2
499.745	1	5
499.915	1	-2
500.085	1	6
500.255	1	8
500.426	1	4
500.596	1	4
500.766	1	2
500.936	1	-2
501.106	1	11
501.277	1	10
501.447	1	-3
501.617	1	-4
501.787	1	7
501.958	1	14
502.128	1	14
502.298	1	5
502.468	1	3
502.638	1	3
502.809	1	-6
502.979	1	-10
503.149	1	-1
503.319	1	5
503.489	1	5
503.660	1	8
503.830	1	4
504.000	1	-1
504.170	1	-1
504.340	1	8
504.511	1	13
504.681	1	5
504.851	1	9
505.021	1	3
505.192	1	-5
505.362	1	5
505.532	1	0
505.702	1	-4
505.872	1	5
506.043	1	3
506.213	1	8
506.383	1	7
506.553	1	2
506.723	1	5
506.893	1	0
507.064	1	-5
507.234	1	9
507.404	1	6
507.574	1	6
507.744	1	4
507.915	1	0
508.085	1	-6
508.255	1	4
508.425	1	0
508.595	1	7
508.766	1	-6
508.936	1	10
509.106	1	8
509.276	1	4
509.446	1	5
509.616	1	0
509.787	1	15
509.957	1	1
510.127	1	-4
510.297	1	10
510.467	1	3
510.638	1	1
510.808	1	-1
510.978	1	4
511.148	1	6
511.318	1	-1
511.488	1	11
511.659	1	10
511.829	1	4
511.999	1	-2
512.169	1	-3
512.339	1	-7
512.509	1	1
512.680	1	-11
512.850	1	7
513.020	1	7
513.190	1	7
513.360	1	-1
513.530	1	0
513.700	1	1
513.871	1	4
514.041	1	1
514.211	1	-2
514.381	1	4
514.551	1	0
514.721	1	4
514.892	1	3
515.062	1	7
515.232	1	9
515.402	1	13
515.572	1	9
515.742	1	13
515.912	1	-5
516.083	1	5
516.253	1	7
516.423	1	-4
516.593	1	6
516.763	1	8
516.933	1	17
517.104	1	2
517.274	1	9
517.444	1	-2
517.614	1	-1
517.784	1	-4
517.954	1	-1
518.124	1	12
518.294	1	11
518.465	1	5
518.635	1	-3
518.805	1	7
518.975	1	-2
519.145	1	15
519.315	1	-3
519.485	1	2
519.656	1	1
519.826	1	0
519.996	1	4
520.166	1	-6
520.336	1	0
520.506	1	1
520.676	1	20
520.846	1	0
521.017	1	5
521.187	1	3
521.357	1	-4
521.527	1	-3
521.697	1	4
521.867	1	-7
522.037	1	-3
522.207	1	1
522.377	1	1
522.548	1	4
522.718	1	5
522.888	1	8
523.058	1	4
523.228	1	-2
523.398	1	8
523.568	1	-1
523.738	1	-11
523.909	1	-3
524.079	1	-7
524.249	1	2
524.419	1	3
524.589	1	-3
524.759	1	1
524.929	1	1
525.099	1	-11
525.269	1	-3
525.439	1	5
525.610	1	-4
525.780	1	9
525.950	1	12
526.120	1	-1
526.290	1	5
526.460	1	5
526.630	1	4
526.800	1	-2
526.970	1	2
527.140	1	9
527.311	1	13
527.481	1	-3
527.651	1	3
527.821	1	-2
527.991	1	-5
528.161	1	1
528.331	1	5
528.501	1	0
528.671	1	0
528.841	1	18
529.011	1	-4
529.181	1	-3
529.352	1	6
529.522	1	5
529.692	1	-5
529.862	1	5
530.032	1	6
530.202	1	1
530.372	1	6
530.542	1	-10
530.712	1	15
530.882	1	10
531.052	1	-1
531.222	1	5
531.392	1	7
531.563	1	4
531.733	1	0
531.903	1	5
532.073	1	3
532.243	1	5
532.413	1	-4
532.583	1	-1
532.753	1	4
532.923	1	-2
533.093	1	6
533.263	1	3
533.433	1	10
533.603	1	-5
533.773	1	5
533.943	1	1
534.113	1	10
534.284	1	-9
534.454	1	5
534.624	1	0
534.794	1	7
534.964	1	-3
535.134	1	9
535.304	1	17
535.474	1	-1
535.644	1	-1
535.814	1	3
535.984	1	8
536.154	1	-5
536.324	1	7
536.494	1	0
536.664	1	-5
536.834	1	11
537.004	1	1
537.174	1	7
537.344	1	3
537.514	1	-5
537.685	1	1
537.855	1	-9
538.025	1	-1
538.195	1	10
538.365	1	6
538.535	1	-3
538.705	1	-5
538.875	1	6
539.045	1	4
539.215	1	-5
539.385	1	-2
539.555	1	3
539.725	1	-14
539.895	1	-1
540.065	1	-6
540.235	1	2
540.405	1	-7
540.575	1	3
540.745	1	-4
540.915	1	-1
541.085	1	-5
541.255	1	9
541.425	1	-2
541.595	1	11
541.765	1	13
541.935	1	1
542.105	1	-8
542.275	1	6
542.445	1	14
542.615	1	0
542.785	1	-3
542.955	1	2
543.125	1	3
543.295	1	3
543.465	1	-1
543.635	1	-5
543.805	1	-1
543.975	1	-10
544.145	1	7
544.315	1	-5
544.485	1	4
544.655	1	-5
544.825	1	-2
544.995	1	7
545.165	1	11
545.335	1	-5
545.505	1	1
545.675	1	-8
545.845	1	10
546.015	1	4
546.185	1	-5
546.355	1	2
546.525	1	-2
546.695	1	-1
546.865	1	5
547.035	1	1
547.205	1	1
547.375	1	-5
547.545	1	1
547.715	1	4
547.885	1	-3
548.055	1	-8
548.225	1	6
548.395	1	-5
548.565	1	7
548.735	1	1
548.905	1	2
549.075	1	3
549.245	1	3
549.415	1	-2
549.585	1	1
549.755	1	8
549.925	1	-3
550.095	1	-6
550.265	1	6
550.435	1	0
550.605	1	-9
550.775	1	8
550.945	1	-10
551.115	1	-2
551.285	1	6
551.455	1	1
551.625	1	-5
551.795	1	-9
551.965	1	3
552.135	1	-1
552.305	1	1
552.475	1	2
552.645	1	-3
552.815	1	3
552.985	1	2
553.155	1	5
553.325	1	-3
553.495	1	9
553.665	1	-5
553.835	1	-3
554.004	1	9
554.174	1	-4
554.344	1	-3
554.514	1	0
554.684	1	-9
554.854	1	-4
555.024	1	1
555.194	1	-1
555.364	1	1
555.534	1	-5
555.704	1	3
555.874	1	-11
556.044	1	0
556.214	1	1
556.384	1	-3
556.554	1	-1
556.724	1	-3
556.894	1	-1
557.064	1	1
557.234	1	0
557.404	1	-7
557.573	1	-2
557.743	1	-3
557.913	1	2
558.083	1	-4
558.253	1	7
558.423	1	-1
558.593	1	-12
558.763	1	11
558.933	1	1
559.103	1	-3
559.273	1	2
559.443	1	4
559.613	1	-7
559.783	1	-10
559.953	1	0
560.122	1	-2
560.292	1	8
560.462	1	-5
560.632	1	-3
560.802	1	-2
560.972	1	-11
561.142	1	7
561.312	1	-2
561.482	1	1
561.652	1	-4
561.822	1	-1
561.992	1	-2
562.162	1	8
562.331	1	7
562.501	1	-3
562.671	1	5
562.841	1	-12
563.011	1	5
563.181	1	6
563.351	1	0
563.521	1	2
563.691	1	-5
563.861	1	8
564.031	1	-3
564.201	1	20
564.370	1	-1
564.540	1	16
564.710	1	-1
564.880	1	-2
565.050	1	8
565.220	1	-1
565.390	1	2
565.560	1	6
565.730	1	0
565.900	1	-1
566.069	1	6
566.239	1	-6
566.409	1	-10
566.579	1	2
566.749	1	-2
566.919	1	0
567.089	1	1
567.259	1	2
567.429	1	0
567.599	1	0
567.768	1	7
567.938	1	-1
568.108	1	8
568.278	1	7
568.448	1	-4
568.618	1	4
568.788	1	-3
568.958	1	0
569.128	1	2
569.297	1	-10
569.467	1	-6
569.637	1	7
569.807	1	2
569.977	1	-8
570.147	1	7
570.317	1	-8
570.487	1	-8
570.656	1	-6
570.826	1	-5
570.996	1	-2
571.166	1	14
571.336	1	-3
571.506	1	6
571.676	1	16
571.846	1	3
572.015	1	-3
572.185	1	4
572.355	1	-7
572.525	1	-7
572.695	1	-2
572.865	1	-8
573.035	1	7
573.205	1	7
573.374	1	3
573.544	1	4
573.714	1	-3
573.884	1	1
574.054	1	4
574.224	1	-9
574.394	1	-4
574.563	1	8
574.733	1	-2
574.903	1	3
575.073	1	0
575.243	1	3
575.413	1	-5
575.583	1	10
575.752	1	-2
575.922	1	-2
576.092	1	-9
576.262	1	1
576.432	1	4
576.602	1	4
576.772	1	0
576.941	1	7
577.111	1	-5
577.281	1	-2
577.451	1	2
577.621	1	3
577.791	1	2
577.960	1	7
578.130	1	0
578.300	1	-8
578.470	1	-4
578.640	1	-6
578.810	1	-2
578.979	1	-5
579.149	1	3
579.319	1	4
579.489	1	0
579.659	1	-9
579.829	1	-1
579.998	1	3
580.168	1	-3
580.338	1	5
580.508	1	9
580.678	1	-5
580.848	1	7
581.017	1	6
581.187	1	0
581.357	1	-5
581.527	1	0
581.697	1	6
581.867	1	3
582.036	1	2
582.206	1	2
582.376	1	-3
582.546	1	-13
582.716	1	-7
582.885	1	-6
583.055	1	-4
583.225	1	2
583.395	1	13
583.565	1	5
583.735	1	6
583.904	1	3
584.074	1	-7
584.244	1	-6
584.414	1	-3
584.584	1	-5
584.753	1	2
584.923	1	-2
585.093	1	6
585.263	1	4
585.433	1	3
585.602	1	4
585.772	1	-6
585.942	1	-1
586.112	1	-3
586.282	1	0
586.451	1	7
586.621	1	10
586.791	1	6
586.961	1	1
587.131	1	-8
587.300	1	1
587.470	1	-11
587.640	1	-3
587.810	1	10
587.980	1	-8
588.149	1	-6
588.319	1	2
588.489	1	-2
588.659	1	-8
588.829	1	8
588.998	1	10
589.168	1	5
589.338	1	7
589.508	1	-3
589.677	1	7
589.847	1	6
590.017	1	-6
590.187	1	-3
590.357	1	5
590.526	1	0
590.696	1	-4
590.866	1	-6
591.036	1	5
591.205	1	9
591.375	1	-14
591.545	1	2
591.715	1	-7
591.885	1	3
592.054	1	2
592.224	1	5
592.394	1	4
592.564	1	-2
592.733	1	-9
592.903	1	-1
593.073	1	2
593.243	1	4
593.412	1	1
593.582	1	-1
593.752	1	-1
593.922	1	-12
594.091	1	3
594.261	1	-1
594.431	1	21
594.601	1	-7
594.771	1	14
594.940	1	-1
595.110	1	-2
595.280	1	4
595.450	1	1
595.619	1	10
595.789	1	2
595.959	1	11
596.129	1	-6
596.298	1	11
596.468	1	-8
596.638	1	-2
596.808	1	-3
596.977	1	4
597.147	1	-5
597.317	1	-12
597.487	1	7
597.656	1	0
597.826	1	7
597.996	1	6
598.166	1	5
598.335	1	8
598.505	1	4
598.675	1	-5
598.844	1	-6
599.014	1	3
599.184	1	-5
599.354	1	4
599.523	1	6
599.693	1	5
599.863	1	-2
600.033	1	-5
600.202	1	11
600.372	1	-3
600.542	1	0
600.712	1	7
600.881	1	-9
601.051	1	-2
601.221	1	10
601.390	1	-7
601.560	1	6
601.730	1	3
601.900	1	4
602.069	1	3
602.239	1	-1
602.409	1	1
602.578	1	-4
602.748	1	2
602.918	1	13
603.088	1	4
603.257	1	-12
603.427	1	-1
603.597	1	-6
603.767	1	9
603.936	1	-8
604.106	1	-2
604.276	1	16
604.445	1	6
604.615	1	2
604.785	1	4
604.954	1	9
605.124	1	-3
605.294	1	2
605.464	1	-1
605.633	1	0
605.803	1	-3
605.973	1	2
606.142	1	12
606.312	1	-7
606.482	1	5
606.652	1	-2
606.821	1	7
606.991	1	-11
607.161	1	0
607.330	1	-14
607.500	1	0
607.670	1	11
607.839	1	7
608.009	1	-3
608.179	1	3
608.348	1	10
608.518	1	3
608.688	1	0
608.858	1	6
609.027	1	-4
609.197	1	-7
609.367	1	16
609.536	1	-2
609.706	1	7
609.876	1	9
610.045	1	5
610.215	1	3
610.385	1	-9
610.554	1	-6
610.724	1	-10
610.894	1	6
611.063	1	-6
611.233	1	13
611.403	1	8
611.572	1	6
611.742	1	-4
611.912	1	6
612.081	1	-12
612.251	1	20
612.421	1	-2
612.590	1	5
612.760	1	1
612.930	1	1
613.099	1	5
613.269	1	3
613.439	1	0
613.608	1	-3
613.778	1	-11
613.948	1	8
614.117	1	5
614.287	1	-14
614.457	1	-4
614.626	1	9
614.796	1	-4
614.966	1	4
615.135	1	5
615.305	1	9
615.475	1	-3
615.644	1	-2
615.814	1	0
615.984	1	3
616.153	1	7
616.323	1	6
616.493	1	14
616.662	1	11
616.832	1	10
617.002	1	3
617.171	1	-1
617.341	1	2
617.511	1	-2
617.680	1	4
617.850	1	5
618.019	1	14
618.189	1	14
618.359	1	-8
618.528	1	1
618.698	1	15
618.868	1	-4
619.037	1	4
619.207	1	-10
619.377	1	3
619.546	1	2
619.716	1	2
619.885	1	-1
620.055	1	8
620.225	1	8
620.394	1	-2
620.564	1	17
620.734	1	1
620.903	1	5
621.073	1	-2
621.242	1	8
621.412	1	7
621.582	1	-6
621.751	1	0
621.921	1	3
622.091	1	9
622.260	1	-5
622.430	1	6
622.599	1	-7
622.769	1	7
622.939	1	9
623.108	1	7
623.278	1	-6
623.448	1	3
623.617	1	-3
623.787	1	2
623.956	1	8
624.126	1	18
624.296	1	5
624.465	1	1
624.635	1	12
624.804	1	2
624.974	1	9
625.144	1	0
625.313	1	4
625.483	1	16
625.652	1	1
625.822	1	0
625.992	1	5
626.161	1	15
626.331	1	4
626.501	1	10
626.670	1	7
626.840	1	11
627.009	1	8
627.179	1	7
627.348	1	6
627.518	1	10
627.688	1	4
627.857	1	4
628.027	1	-8
628.196	1	4
628.366	1	1
628.536	1	2
628.705	1	4
628.875	1	9
629.044	1	5
629.214	1	1
629.384	1	7
629.553	1	20
629.723	1	-5
629.892	1	10
630.062	1	0
630.232	1	5
630.401	1	15
630.571	1	0
630.740	1	4
630.910	1	12
631.079	1	0
631.249	1	10
631.419	1	-6
631.588	1	-5
631.758	1	12
631.927	1	0
632.097	1	4
632.266	1	10
632.436	1	6
632.606	1	-1
632.775	1	9
632.945	1	12
633.114	1	1
633.284	1	4
633.453	1	-2
633.623	1	8
633.793	1	-9
633.962	1	3
634.132	1	4
634.301	1	11
634.471	1	-2
634.640	1	7
634.810	1	12
634.979	1	3
635.149	1	8
635.319	1	8
635.488	1	15
635.658	1	-1
635.827	1	13
635.997	1	2
636.166	1	5
636.336	1	2
636.505	1	4
636.675	1	6
636.845	1	4
637.014	1	-3
637.184	1	5
637.353	1	-4
637.523	1	9
637.692	1	20
637.862	1	10
638.031	1	4
638.201	1	10
638.370	1	12
638.540	1	-2
638.710	1	20
638.879	1	4
639.049	1	3
639.218	1	-3
639.388	1	4
639.557	1	10
639.727	1	-1
639.896	1	1
640.066	1	12
640.235	1	6
640.405	1	2
640.574	1	8
640.744	1	6
640.914	1	12
641.083	1	6
641.253	1	29
641.422	1	8
641.592	1	6
641.761	1	8
641.931	1	-1
642.100	1	-13
642.270	1	6
642.439	1	3
642.609	1	5
642.778	1	2
642.948	1	1
643.117	1	9
643.287	1	8
643.456	1	4
643.626	1	11
643.795	1	0
643.965	1	1
644.134	1	1
644.304	1	9
644.473	1	7
644.643	1	1
644.812	1	18
644.982	1	2
645.151	1	23
645.321	1	-1
645.490	1	6
645.660	1	4
645.829	1	3
645.999	1	9
646.168	1	4
646.338	1	8
646.507	1	8
646.677	1	2
646.846	1	6
647.016	1	13
647.185	1	6
647.355	1	11
647.524	1	8
647.694	1	3
647.863	1	-1
648.033	1	4
648.202	1	15
648.372	1	6
648.541	1	9
648.711	1	-2
648.880	1	15
649.050	1	0
649.219	1	-10
649.389	1	4
649.558	1	3
649.728	1	10
649.897	1	10
650.067	1	7
650.236	1	6
650.406	1	-3
650.575	1	-2
650.745	1	4
650.914	1	-4
651.084	1	3
651.253	1	6
651.423	1	1
651.592	1	11
651.762	1	4
651.931	1	0
652.101	1	5
652.270	1	9
652.440	1	4
652.609	1	5
652.778	1	3
652.948	1	11
653.117	1	2
653.287	1	15
653.456	1	5
653.626	1	2
653.795	1	0
653.965	1	-2
654.134	1	9
654.304	1	0
654.473	1	8
654.643	1	5
654.812	1	4
654.982	1	0
655.151	1	2
655.320	1	2
655.490	1	-3
655.659	1	5
655.829	1	6
655.998	1	0
656.168	1	-3
656.337	1	11
656.507	1	5
656.676	1	7
656.846	1	-9
657.015	1	-2
657.184	1	3
657.354	1	-1
657.523	1	0
657.693	1	6
657.862	1	3
658.032	1	-1
658.201	1	5
658.371	1	-3
658.540	1	-8
658.709	1	-7
658.879	1	-8
659.048	1	-4
659.218	1	6
659.387	1	-1
659.557	1	3
659.726	1	6
659.895	1	-4
660.065	1	3
660.234	1	8
660.404	1	3
660.573	1	6
660.743	1	9
660.912	1	10
661.081	1	16
661.251	1	3
661.420	1	1
661.590	1	-6
661.759	1	-2
661.929	1	6
662.098	1	8
662.267	1	-3
662.437	1	10
662.606	1	6
662.776	1	0
662.945	1	3
663.115	1	7
663.284	1	14
663.453	1	-5
663.623	1	7
663.792	1	4
663.962	1	-1
664.131	1	4
664.300	1	4
664.470	1	14
664.639	1	6
664.809	1	1
664.978	1	5
665.148	1	1
665.317	1	4
665.486	1	2
665.656	1	2
665.825	1	3
665.995	1	-3
666.164	1	1
666.333	1	10
666.503	1	8
666.672	1	11
666.842	1	7
667.011	1	12
667.180	1	10
667.350	1	7
667.519	1	9
667.689	1	-9
667.858	1	7
668.027	1	15
668.197	1	0
668.366	1	4
668.536	1	12
668.705	1	3
668.874	1	9
669.044	1	2
669.213	1	4
669.382	1	8
669.552	1	8
669.721	1	9
669.891	1	1
670.060	1	6
670.229	1	1
670.399	1	3
670.568	1	3
670.738	1	-5
670.907	1	3
671.076	1	2
671.246	1	10
671.415	1	5
671.584	1	4
671.754	1	0
671.923	1	12
672.093	1	14
672.262	1	6
672.431	1	-7
672.601	1	6
672.770	1	1
672.939	1	2
673.109	1	1
673.278	1	7
673.448	1	1
673.617	1	-5
673.786	1	6
