325.333	1	2
325.504	1	10
325.675	1	1
325.846	1	5
326.017	1	13
326.188	1	7
326.359	1	12
326.531	1	1
326.702	1	8
326.873	1	5
327.044	1	12
327.215	1	9
327.386	1	8
327.557	1	8
327.728	1	8
327.899	1	10
328.070	1	6
328.241	1	11
328.412	1	8
328.583	1	4
328.754	1	4
328.926	1	-3
329.097	1	14
329.268	1	4
329.439	1	13
329.610	1	12
329.781	1	5
329.952	1	17
330.123	1	2
330.294	1	-5
330.465	1	4
330.636	1	8
330.807	1	-4
330.978	1	1
331.149	1	10
331.320	1	7
331.492	1	14
331.663	1	14
331.834	1	12
332.005	1	4
332.176	1	0
332.347	1	17
332.518	1	7
332.689	1	3
332.860	1	13
333.031	1	9
333.202	1	2
333.373	1	19
333.544	1	14
333.715	1	12
333.886	1	2
334.057	1	5
334.228	1	8
334.399	1	22
334.570	1	11
334.741	1	14
334.912	1	10
335.084	1	12
335.255	1	16
335.426	1	4
335.597	1	20
335.768	1	10
335.939	1	18
336.110	1	8
336.281	1	11
336.452	1	27
336.623	1	15
336.794	1	15
336.965	1	7
337.136	1	11
337.307	1	7
337.478	1	8
337.649	1	15
337.820	1	10
337.991	1	9
338.162	1	11
338.333	1	5
338.504	1	2
338.675	1	13
338.846	1	-3
339.017	1	13
339.188	1	5
339.359	1	7
339.530	1	15
339.701	1	3
339.872	1	23
340.043	1	-9
340.214	1	11
340.385	1	10
340.556	1	12
340.727	1	21
340.898	1	15
341.069	1	23
341.240	1	12
341.411	1	8
341.582	1	6
341.753	1	8
341.924	1	3
342.095	1	16
342.266	1	15
342.437	1	18
342.608	1	24
342.779	1	7
342.950	1	11
343.121	1	12
343.292	1	-3
343.463	1	11
343.634	1	-2
343.805	1	5
343.976	1	23
344.147	1	13
344.318	1	10
344.489	1	19
344.660	1	12
344.831	1	26
345.002	1	20
345.173	1	2
345.344	1	7
345.515	1	0
345.686	1	17
345.857	1	0
346.028	1	12
346.199	1	-5
346.370	1	11
346.541	1	7
346.712	1	7
346.883	1	3
347.054	1	6
347.225	1	10
347.396	1	-7
347.567	1	19
347.738	1	2
347.909	1	16
348.080	1	2
348.251	1	8
348.422	1	5
348.593	1	1
348.764	1	12
348.935	1	18
349.106	1	15
349.277	1	10
349.448	1	15
349.619	1	6
349.790	1	13
349.961	1	10
350.132	1	10
350.303	1	13
350.474	1	12
350.645	1	13
350.816	1	11
350.987	1	13
351.157	1	7
351.328	1	18
351.499	1	10
351.670	1	1
351.841	1	6
352.012	1	12
352.183	1	-2
352.354	1	1
352.525	1	7
352.696	1	24
352.867	1	-1
353.038	1	8
353.209	1	13
353.380	1	4
353.551	1	0
353.722	1	8
353.893	1	11
354.064	1	9
354.235	1	7
354.406	1	7
354.576	1	14
354.747	1	4
354.918	1	17
355.089	1	7
355.260	1	15
355.431	1	10
355.602	1	11
355.773	1	4
355.944	1	4
356.115	1	14
356.286	1	11
356.457	1	3
356.628	1	7
356.799	1	9
356.970	1	24
357.141	1	3
357.311	1	17
357.482	1	6
357.653	1	9
357.824	1	8
357.995	1	6
358.166	1	-3
358.337	1	18
358.508	1	7
358.679	1	14
358.850	1	6
359.021	1	3
359.192	1	14
359.363	1	10
359.533	1	0
359.704	1	22
359.875	1	23
360.046	1	9
360.217	1	13
360.388	1	11
360.559	1	6
360.730	1	4
360.901	1	5
361.072	1	14
361.243	1	1
361.414	1	6
361.584	1	3
361.755	1	15
361.926	1	9
362.097	1	7
362.268	1	6
362.439	1	7
362.610	1	3
362.781	1	0
362.952	1	12
363.123	1	14
363.293	1	5
363.464	1	13
363.635	1	17
363.806	1	4
363.977	1	6
364.148	1	5
364.319	1	7
364.490	1	16
364.661	1	7
364.832	1	12
365.002	1	22
365.173	1	9
365.344	1	12
365.515	1	4
365.686	1	-2
365.857	1	8
366.028	1	12
366.199	1	4
366.370	1	12
366.540	1	0
366.711	1	4
366.882	1	-1
367.053	1	8
367.224	1	5
367.395	1	5
367.566	1	-1
367.737	1	-2
367.908	1	4
368.078	1	15
368.249	1	7
368.420	1	7
368.591	1	12
368.762	1	1
368.933	1	8
369.104	1	17
369.274	1	-6
369.445	1	4
369.616	1	-1
369.787	1	9
369.958	1	13
370.129	1	-1
370.300	1	11
370.471	1	8
370.641	1	12
370.812	1	4
370.983	1	-2
371.154	1	0
371.325	1	4
371.496	1	15
371.667	1	6
371.837	1	18
372.008	1	-2
372.179	1	4
372.350	1	0
372.521	1	4
372.692	1	8
372.863	1	2
373.033	1	19
373.204	1	-2
373.375	1	11
373.546	1	24
373.717	1	11
373.888	1	11
374.059	1	8
374.229	1	4
374.400	1	-3
374.571	1	9
374.742	1	10
374.913	1	14
375.084	1	8
375.254	1	14
375.425	1	2
375.596	1	7
375.767	1	5
375.938	1	6
376.109	1	19
376.279	1	-3
376.450	1	7
376.621	1	5
376.792	1	9
376.963	1	8
377.134	1	22
377.304	1	18
377.475	1	4
377.646	1	4
377.817	1	10
377.988	1	8
378.159	1	16
378.329	1	1
378.500	1	13
378.671	1	14
378.842	1	6
379.013	1	11
379.184	1	6
379.354	1	9
379.525	1	6
379.696	1	20
379.867	1	6
380.038	1	16
380.209	1	10
380.379	1	13
380.550	1	8
380.721	1	-1
380.892	1	16
381.063	1	13
381.233	1	12
381.404	1	2
381.575	1	20
381.746	1	13
381.917	1	13
382.087	1	13
382.258	1	22
382.429	1	4
382.600	1	13
382.771	1	6
382.941	1	21
383.112	1	7
383.283	1	19
383.454	1	6
383.625	1	6
383.795	1	12
383.966	1	10
384.137	1	13
384.308	1	9
384.479	1	1
384.649	1	12
384.820	1	19
384.991	1	16
385.162	1	17
385.333	1	14
385.503	1	9
385.674	1	4
385.845	1	19
386.016	1	13
386.187	1	8
386.357	1	18
386.528	1	2
386.699	1	6
386.870	1	7
387.041	1	20
387.211	1	12
387.382	1	1
387.553	1	7
387.724	1	21
387.894	1	14
388.065	1	10
388.236	1	9
388.407	1	15
388.578	1	11
388.748	1	14
388.919	1	10
389.090	1	15
389.261	1	12
389.431	1	4
389.602	1	18
389.773	1	14
389.944	1	26
390.114	1	31
390.285	1	8
390.456	1	6
390.627	1	4
390.798	1	7
390.968	1	18
391.139	1	-5
391.310	1	13
391.481	1	10
391.651	1	17
391.822	1	30
391.993	1	5
392.164	1	22
392.334	1	0
392.505	1	20
392.676	1	20
392.847	1	8
393.017	1	19
393.188	1	23
393.359	1	24
393.530	1	18
393.700	1	6
393.871	1	3
394.042	1	17
394.213	1	10
394.383	1	18
394.554	1	19
394.725	1	18
394.896	1	14
395.066	1	6
395.237	1	8
395.408	1	25
395.579	1	13
395.749	1	8
395.920	1	8
396.091	1	11
396.262	1	4
396.432	1	19
396.603	1	10
396.774	1	12
396.945	1	14
397.115	1	7
397.286	1	9
397.457	1	12
397.627	1	7
397.798	1	10
397.969	1	11
398.140	1	10
398.310	1	13
398.481	1	8
398.652	1	10
398.823	1	16
398.993	1	20
399.164	1	21
399.335	1	13
399.505	1	6
399.676	1	11
399.847	1	18
400.018	1	29
400.188	1	12
400.359	1	16
400.530	1	25
400.700	1	25
400.871	1	11
401.042	1	13
401.213	1	8
401.383	1	18
401.554	1	15
401.725	1	14
401.895	1	17
402.066	1	9
402.237	1	22
402.408	1	19
402.578	1	14
402.749	1	10
402.920	1	2
403.090	1	11
403.261	1	22
403.432	1	15
403.603	1	12
403.773	1	28
403.944	1	20
404.115	1	17
404.285	1	12
404.456	1	18
404.627	1	20
404.797	1	20
404.968	1	19
405.139	1	11
405.310	1	14
405.480	1	23
405.651	1	5
405.822	1	14
405.992	1	11
406.163	1	19
406.334	1	19
406.504	1	18
406.675	1	27
406.846	1	18
407.016	1	17
407.187	1	15
407.358	1	23
407.528	1	17
407.699	1	6
407.870	1	21
408.041	1	19
408.211	1	18
408.382	1	18
408.553	1	21
408.723	1	18
408.894	1	11
409.065	1	2
409.235	1	21
409.406	1	13
409.577	1	8
409.747	1	16
409.918	1	9
410.089	1	26
410.259	1	17
410.430	1	22
410.601	1	29
410.771	1	16
410.942	1	16
411.113	1	27
411.283	1	20
411.454	1	9
411.625	1	20
411.795	1	10
411.966	1	29
412.137	1	18
412.307	1	24
412.478	1	19
412.649	1	18
412.819	1	18
412.990	1	20
413.161	1	23
413.331	1	12
413.502	1	18
413.672	1	26
413.843	1	20
414.014	1	21
414.184	1	20
414.355	1	25
414.526	1	22
414.696	1	14
414.867	1	17
415.038	1	13
415.208	1	27
415.379	1	31
415.550	1	29
415.720	1	10
415.891	1	25
416.062	1	21
416.232	1	14
416.403	1	13
416.573	1	28
416.744	1	21
416.915	1	25
417.085	1	14
417.256	1	14
417.427	1	22
417.597	1	24
417.768	1	9
417.939	1	20
418.109	1	18
418.280	1	13
418.450	1	17
418.621	1	21
418.792	1	16
418.962	1	9
419.133	1	15
419.304	1	15
419.474	1	21
419.645	1	20
419.815	1	8
419.986	1	26
420.157	1	26
420.327	1	8
420.498	1	20
420.669	1	11
420.839	1	16
421.010	1	18
421.180	1	24
421.351	1	20
421.522	1	8
421.692	1	21
421.863	1	26
422.033	1	6
422.204	1	27
422.375	1	12
422.545	1	17
422.716	1	17
422.886	1	8
423.057	1	16
423.228	1	17
423.398	1	21
423.569	1	24
423.740	1	20
423.910	1	18
424.081	1	13
424.251	1	18
424.422	1	10
424.593	1	20
424.763	1	16
424.934	1	20
425.104	1	22
425.275	1	32
425.445	1	9
425.616	1	24
425.787	1	20
425.957	1	11
426.128	1	14
426.298	1	33
426.469	1	11
426.640	1	14
426.810	1	34
426.981	1	24
427.151	1	22
427.322	1	25
427.493	1	24
427.663	1	22
427.834	1	17
428.004	1	14
428.175	1	34
428.345	1	21
428.516	1	26
428.687	1	30
428.857	1	15
429.028	1	17
429.198	1	25
429.369	1	18
429.540	1	13
429.710	1	18
429.881	1	5
430.051	1	21
430.222	1	10
430.392	1	6
430.563	1	26
430.734	1	22
430.904	1	15
431.075	1	14
431.245	1	17
431.416	1	20
431.586	1	5
431.757	1	13
431.927	1	27
432.098	1	10
432.269	1	18
432.439	1	30
432.610	1	25
432.780	1	8
432.951	1	19
433.121	1	24
433.292	1	23
433.462	1	8
433.633	1	5
433.804	1	13
433.974	1	18
434.145	1	13
434.315	1	22
434.486	1	30
434.656	1	31
434.827	1	15
434.997	1	21
435.168	1	20
435.339	1	16
435.509	1	15
435.680	1	12
435.850	1	18
436.021	1	33
436.191	1	16
436.362	1	15
436.532	1	20
436.703	1	19
436.873	1	20
437.044	1	7
437.214	1	9
437.385	1	14
437.556	1	28
437.726	1	14
437.897	1	25
438.067	1	17
438.238	1	26
438.408	1	21
438.579	1	25
438.749	1	24
438.920	1	4
439.090	1	21
439.261	1	20
439.431	1	21
439.602	1	11
439.772	1	22
439.943	1	25
440.113	1	26
440.284	1	20
440.455	1	15
440.625	1	29
440.796	1	27
440.966	1	11
441.137	1	14
441.307	1	12
441.478	1	18
441.648	1	13
441.819	1	12
441.989	1	28
442.160	1	4
442.330	1	16
442.501	1	10
442.671	1	20
442.842	1	23
443.012	1	14
443.183	1	24
443.353	1	28
443.524	1	14
443.694	1	16
443.865	1	20
444.035	1	13
444.206	1	19
444.376	1	21
444.547	1	26
444.717	1	15
444.888	1	18
445.058	1	11
445.229	1	11
445.399	1	14
445.570	1	3
445.740	1	13
445.911	1	24
446.081	1	16
446.252	1	19
446.422	1	16
446.593	1	9
446.763	1	9
446.934	1	20
447.104	1	10
447.275	1	16
447.445	1	27
447.616	1	16
447.786	1	18
447.957	1	6
448.127	1	18
448.298	1	20
448.468	1	11
448.639	1	24
448.809	1	27
448.979	1	10
449.150	1	7
449.320	1	19
449.491	1	15
449.661	1	31
449.832	1	20
450.002	1	13
450.173	1	16
450.343	1	16
450.514	1	28
450.684	1	19
450.855	1	25
451.025	1	11
451.196	1	7
451.366	1	18
451.537	1	12
451.707	1	15
451.878	1	1
452.048	1	20
452.218	1	12
452.389	1	11
452.559	1	8
452.730	1	3
452.900	1	17
453.071	1	16
453.241	1	25
453.412	1	22
453.582	1	12
453.753	1	10
453.923	1	16
454.093	1	29
454.264	1	31
454.434	1	21
454.605	1	15
454.775	1	12
454.946	1	21
455.116	1	10
455.287	1	15
455.457	1	9
455.628	1	15
455.798	1	28
455.968	1	16
456.139	1	12
456.309	1	15
456.480	1	16
456.650	1	25
456.821	1	19
456.991	1	17
457.161	1	32
457.332	1	13
457.502	1	6
457.673	1	18
457.843	1	17
458.014	1	8
458.184	1	5
458.355	1	11
458.525	1	13
458.695	1	11
458.866	1	9
459.036	1	18
459.207	1	8
459.377	1	25
459.548	1	14
459.718	1	16
459.888	1	23
460.059	1	16
460.229	1	7
460.400	1	13
460.570	1	23
460.740	1	10
460.911	1	11
461.081	1	7
461.252	1	24
461.422	1	16
461.593	1	-1
461.763	1	18
461.933	1	15
462.104	1	12
462.274	1	16
462.445	1	6
462.615	1	9
462.785	1	8
462.956	1	12
463.126	1	2
463.297	1	20
463.467	1	24
463.638	1	1
463.808	1	-1
463.978	1	11
464.149	1	19
464.319	1	5
464.490	1	22
464.660	1	4
464.830	1	12
465.001	1	16
465.171	1	10
465.342	1	9
465.512	1	8
465.682	1	24
465.853	1	14
466.023	1	16
466.194	1	10
466.364	1	21
466.534	1	16
466.705	1	14
466.875	1	17
467.045	1	17
467.216	1	13
467.386	1	18
467.557	1	4
467.727	1	13
467.897	1	7
468.068	1	8
468.238	1	8
468.409	1	17
468.579	1	16
468.749	1	8
468.920	1	10
469.090	1	17
469.260	1	1
469.431	1	13
469.601	1	5
469.772	1	11
469.942	1	18
470.112	1	15
470.283	1	20
470.453	1	16
470.623	1	10
470.794	1	15
470.964	1	4
471.135	1	14
471.305	1	20
471.475	1	13
471.646	1	5
471.816	1	4
471.986	1	14
472.157	1	9
472.327	1	12
472.497	1	1
472.668	1	8
472.838	1	15
473.009	1	20
473.179	1	14
473.349	1	6
473.520	1	5
473.690	1	4
473.860	1	8
474.031	1	11
474.201	1	13
474.371	1	17
474.542	1	22
474.712	1	-5
474.882	1	17
475.053	1	20
475.223	1	15
475.394	1	11
475.564	1	-3
475.734	1	7
475.905	1	8
476.075	1	10
476.245	1	20
476.416	1	7
476.586	1	9
476.756	1	13
476.927	1	14
477.097	1	4
477.267	1	14
477.438	1	2
477.608	1	9
477.778	1	21
477.949	1	21
478.119	1	17
478.289	1	17
478.460	1	17
478.630	1	11
478.800	1	3
478.971	1	8
479.141	1	1
479.311	1	6
479.482	1	4
479.652	1	18
479.822	1	9
479.993	1	12
480.163	1	13
480.333	1	8
480.504	1	20
480.674	1	8
480.844	1	13
481.015	1	6
481.185	1	13
481.355	1	-1
481.525	1	8
481.696	1	17
481.866	1	15
482.036	1	6
482.207	1	0
482.377	1	11
482.547	1	8
482.718	1	8
482.888	1	18
483.058	1	7
483.229	1	17
483.399	1	8
483.569	1	15
483.740	1	5
483.910	1	-1
484.080	1	13
484.250	1	20
484.421	1	5
484.591	1	7
484.761	1	10
484.932	1	15
485.102	1	7
485.272	1	6
485.443	1	8
485.613	1	9
485.783	1	14
485.953	1	-1
486.124	1	-7
486.294	1	7
486.464	1	7
486.635	1	11
486.805	1	2
486.975	1	5
487.146	1	9
487.316	1	10
487.486	1	2
487.656	1	6
487.827	1	8
487.997	1	7
488.167	1	10
488.338	1	-2
488.508	1	7
488.678	1	5
488.848	1	-1
489.019	1	10
489.189	1	6
489.359	1	4
489.529	1	-7
489.700	1	4
489.870	1	10
490.040	1	1
490.211	1	3
490.381	1	1
490.551	1	-15
490.721	1	4
490.892	1	19
491.062	1	7
491.232	1	1
491.402	1	4
491.573	1	13
491.743	1	6
491.913	1	3
492.084	1	4
492.254	1	16
492.424	1	4
492.594	1	19
492.765	1	2
492.935	1	9
493.105	1	13
493.275	1	6
493.446	1	10
493.616	1	6
493.786	1	13
493.956	1	3
494.127	1	11
494.297	1	6
494.467	1	16
494.637	1	5
494.808	1	-5
494.978	1	-2
495.148	1	8
495.318	1	-6
495.489	1	9
495.659	1	9
495.829	1	16
495.999	1	0
496.170	1	8
496.340	1	13
496.510	1	4
496.680	1	-1
496.851	1	0
497.021	1	-4
497.191	1	1
497.361	1	6
497.532	1	10
497.702	1	16
497.872	1	0
498.042	1	0
498.213	1	5
498.383	1	11
498.553	1	5
498.723	1	-1
498.894	1	10
499.064	1	8
499.234	1	4
499.404	1	1
499.574	1	1
499.745	1	2
499.915	1	-9
500.085	1	3
500.255	1	8
500.426	1	10
500.596	1	20
500.766	1	9
500.936	1	4
501.106	1	11
501.277	1	13
501.447	1	6
501.617	1	2
501.787	1	14
501.958	1	13
502.128	1	12
502.298	1	5
502.468	1	-10
502.638	1	7
502.809	1	0
502.979	1	1
503.149	1	5
503.319	1	6
503.489	1	9
503.660	1	9
503.830	1	8
504.000	1	-3
504.170	1	-2
504.340	1	7
504.511	1	14
504.681	1	7
504.851	1	7
505.021	1	5
505.192	1	7
505.362	1	5
505.532	1	-4
505.702	1	-6
505.872	1	6
506.043	1	0
506.213	1	14
506.383	1	13
506.553	1	2
506.723	1	22
506.893	1	4
507.064	1	10
507.234	1	2
507.404	1	18
507.574	1	2
507.744	1	0
507.915	1	-6
508.085	1	-9
508.255	1	15
508.425	1	1
508.595	1	12
508.766	1	3
508.936	1	20
509.106	1	6
509.276	1	4
509.446	1	3
509.616	1	-3
509.787	1	6
509.957	1	-1
510.127	1	9
510.297	1	8
510.467	1	-5
510.638	1	12
510.808	1	0
510.978	1	19
511.148	1	6
511.318	1	8
511.488	1	3
511.659	1	7
511.829	1	4
511.999	1	3
512.169	1	-2
512.339	1	1
512.509	1	-1
512.680	1	-5
512.850	1	9
513.020	1	13
513.190	1	7
513.360	1	-3
513.530	1	5
513.700	1	5
513.871	1	15
514.041	1	6
514.211	1	12
514.381	1	11
514.551	1	5
514.721	1	9
514.892	1	9
515.062	1	9
515.232	1	1
515.402	1	11
515.572	1	8
515.742	1	14
515.912	1	11
516.083	1	8
516.253	1	13
516.423	1	0
516.593	1	4
516.763	1	9
516.933	1	5
517.104	1	-3
517.274	1	-2
517.444	1	2
517.614	1	5
517.784	1	-2
517.954	1	9
518.124	1	-1
518.294	1	-3
518.465	1	9
518.635	1	12
518.805	1	6
518.975	1	-1
519.145	1	3
519.315	1	3
519.485	1	3
519.656	1	3
519.826	1	-13
519.996	1	4
520.166	1	-7
520.336	1	-2
520.506	1	7
520.676	1	13
520.846	1	10
521.017	1	7
521.187	1	8
521.357	1	2
521.527	1	0
521.697	1	1
521.867	1	-3
522.037	1	0
522.207	1	3
522.377	1	4
522.548	1	12
522.718	1	2
522.888	1	20
523.058	1	4
523.228	1	-7
523.398	1	16
523.568	1	2
523.738	1	1
523.909	1	1
524.079	1	2
524.249	1	1
524.419	1	10
524.589	1	8
524.759	1	6
524.929	1	7
525.099	1	-5
525.269	1	-7
525.439	1	8
525.610	1	1
525.780	1	6
525.950	1	16
526.120	1	-3
526.290	1	-1
526.460	1	14
526.630	1	9
526.800	1	0
526.970	1	2
527.140	1	12
527.311	1	12
527.481	1	-2
527.651	1	8
527.821	1	-3
527.991	1	2
528.161	1	2
528.331	1	6
528.501	1	0
528.671	1	7
528.841	1	10
529.011	1	2
529.181	1	11
529.352	1	9
529.522	1	7
529.692	1	1
529.862	1	7
530.032	1	10
530.202	1	7
530.372	1	10
530.542	1	0
530.712	1	13
530.882	1	11
531.052	1	5
531.222	1	1
531.392	1	3
531.563	1	3
531.733	1	-4
531.903	1	6
532.073	1	3
532.243	1	16
532.413	1	1
532.583	1	6
532.753	1	5
532.923	1	5
533.093	1	-5
533.263	1	-2
533.433	1	2
533.603	1	-15
533.773	1	0
533.943	1	0
534.113	1	12
534.284	1	-5
534.454	1	7
534.624	1	3
534.794	1	6
534.964	1	3
535.134	1	8
535.304	1	7
535.474	1	0
535.644	1	3
535.814	1	5
535.984	1	9
536.154	1	-2
536.324	1	-9
536.494	1	4
536.664	1	7
536.834	1	4
537.004	1	2
537.174	1	-1
537.344	1	6
537.514	1	6
537.685	1	-1
537.855	1	-5
538.025	1	3
538.195	1	7
538.365	1	3
538.535	1	-7
538.705	1	-2
538.875	1	7
539.045	1	14
539.215	1	10
539.385	1	-3
539.555	1	-1
539.725	1	-9
539.895	1	6
540.065	1	-4
540.235	1	3
540.405	1	-2
540.575	1	13
540.745	1	3
540.915	1	0
541.085	1	-7
541.255	1	7
541.425	1	-3
541.595	1	11
541.765	1	13
541.935	1	0
542.105	1	5
542.275	1	8
542.445	1	0
542.615	1	-4
542.785	1	4
542.955	1	-2
543.125	1	2
543.295	1	8
543.465	1	-4
543.635	1	1
543.805	1	-4
543.975	1	-1
544.145	1	9
544.315	1	-2
544.485	1	0
544.655	1	-1
544.825	1	4
544.995	1	6
545.165	1	-2
545.335	1	-4
545.505	1	-2
545.675	1	-7
545.845	1	5
546.015	1	5
546.185	1	1
546.355	1	-2
546.525	1	3
546.695	1	2
546.865	1	8
547.035	1	5
547.205	1	13
547.375	1	11
547.545	1	2
547.715	1	10
547.885	1	-1
548.055	1	0
548.225	1	8
548.395	1	-6
548.565	1	6
548.735	1	-5
548.905	1	7
549.075	1	12
549.245	1	14
549.415	1	0
549.585	1	0
549.755	1	7
549.925	1	-5
550.095	1	-5
550.265	1	6
550.435	1	3
550.605	1	8
550.775	1	8
550.945	1	5
551.115	1	3
551.285	1	8
551.455	1	2
551.625	1	-3
551.795	1	-7
551.965	1	-3
552.135	1	-3
552.305	1	6
552.475	1	4
552.645	1	1
552.815	1	8
552.985	1	-2
553.155	1	7
553.325	1	0
553.495	1	4
553.665	1	-3
553.835	1	2
554.004	1	7
554.174	1	1
554.344	1	2
554.514	1	-1
554.684	1	-5
554.854	1	-5
555.024	1	-2
555.194	1	-7
555.364	1	9
555.534	1	-11
555.704	1	-5
555.874	1	-1
556.044	1	11
556.214	1	0
556.384	1	7
556.554	1	-6
556.724	1	5
556.894	1	-3
557.064	1	5
557.234	1	-8
557.404	1	7
557.573	1	-7
557.743	1	16
557.913	1	1
558.083	1	-2
558.253	1	3
558.423	1	-6
558.593	1	5
558.763	1	10
558.933	1	0
559.103	1	7
559.273	1	-3
559.443	1	-2
559.613	1	-10
559.783	1	-13
559.953	1	1
560.122	1	3
560.292	1	8
560.462	1	2
560.632	1	-10
560.802	1	0
560.972	1	-3
561.142	1	-5
561.312	1	0
561.482	1	-4
561.652	1	4
561.822	1	-12
561.992	1	0
562.162	1	-2
562.331	1	1
562.501	1	1
562.671	1	-3
562.841	1	-10
563.011	1	5
563.181	1	-5
563.351	1	4
563.521	1	4
563.691	1	3
563.861	1	3
564.031	1	-8
564.201	1	10
564.370	1	1
564.540	1	4
564.710	1	3
564.880	1	0
565.050	1	7
565.220	1	-3
565.390	1	-3
565.560	1	12
565.730	1	4
565.900	1	-1
566.069	1	2
566.239	1	-4
566.409	1	-9
566.579	1	3
566.749	1	-12
566.919	1	-1
567.089	1	2
567.259	1	2
567.429	1	3
567.599	1	3
567.768	1	2
567.938	1	-9
568.108	1	7
568.278	1	5
568.448	1	-2
568.618	1	-3
568.788	1	7
568.958	1	-2
569.128	1	4
569.297	1	-2
569.467	1	-2
569.637	1	9
569.807	1	8
569.977	1	2
570.147	1	7
570.317	1	1
570.487	1	2
570.656	1	-5
570.826	1	-1
570.996	1	-8
571.166	1	19
571.336	1	-1
571.506	1	-1
571.676	1	8
571.846	1	6
572.015	1	-9
572.185	1	4
572.355	1	-1
572.525	1	-10
572.695	1	8
572.865	1	-6
573.035	1	14
573.205	1	9
573.374	1	-1
573.544	1	-2
573.714	1	-5
573.884	1	9
574.054	1	-4
574.224	1	-6
574.394	1	-4
574.563	1	1
574.733	1	10
574.903	1	6
575.073	1	4
575.243	1	-1
575.413	1	-7
575.583	1	8
575.752	1	-3
575.922	1	-2
576.092	1	-4
576.262	1	3
576.432	1	6
576.602	1	1
576.772	1	4
576.941	1	-7
577.111	1	-2
577.281	1	8
577.451	1	2
577.621	1	3
577.791	1	1
577.960	1	1
578.130	1	-9
578.300	1	-7
578.470	1	0
578.640	1	4
578.810	1	-7
578.979	1	-1
579.149	1	3
579.319	1	-5
579.489	1	-10
579.659	1	-5
579.829	1	2
579.998	1	-3
580.168	1	-3
580.338	1	8
580.508	1	7
580.678	1	0
580.848	1	-1
581.017	1	8
581.187	1	6
581.357	1	7
581.527	1	5
581.697	1	-6
581.867	1	3
582.036	1	-11
582.206	1	9
582.376	1	0
582.546	1	-6
582.716	1	-3
582.885	1	-2
583.055	1	5
583.225	1	-2
583.395	1	-1
583.565	1	2
583.735	1	11
583.904	1	-1
584.074	1	-2
584.244	1	-3
584.414	1	7
584.584	1	-2
584.753	1	6
584.923	1	5
585.093	1	11
585.263	1	-4
585.433	1	0
585.602	1	-4
585.772	1	3
585.942	1	3
586.112	1	1
586.282	1	-8
586.451	1	9
586.621	1	12
586.791	1	2
586.961	1	7
587.131	1	-2
587.300	1	9
587.470	1	-1
587.640	1	4
587.810	1	17
587.980	1	2
588.149	1	0
588.319	1	12
588.489	1	-1
588.659	1	2
588.829	1	0
588.998	1	0
589.168	1	7
589.338	1	6
589.508	1	4
589.677	1	4
589.847	1	5
590.017	1	-9
590.187	1	13
590.357	1	4
590.526	1	-12
590.696	1	-6
590.866	1	2
591.036	1	5
591.205	1	14
591.375	1	-8
591.545	1	10
591.715	1	0
591.885	1	5
592.054	1	1
592.224	1	1
592.394	1	-4
592.564	1	7
592.733	1	-11
592.903	1	-5
593.073	1	0
593.243	1	12
593.412	1	-9
593.582	1	9
593.752	1	-1
593.922	1	1
594.091	1	-2
594.261	1	-3
594.431	1	12
594.601	1	-3
594.771	1	13
594.940	1	1
595.110	1	4
595.280	1	4
595.450	1	16
595.619	1	4
595.789	1	3
595.959	1	7
596.129	1	6
596.298	1	0
596.468	1	-6
596.638	1	2
596.808	1	5
596.977	1	7
597.147	1	-5
597.317	1	1
597.487	1	4
597.656	1	8
597.826	1	10
597.996	1	4
598.166	1	-2
598.335	1	5
598.505	1	3
598.675	1	-6
598.844	1	-6
599.014	1	13
599.184	1	3
599.354	1	12
599.523	1	6
599.693	1	15
599.863	1	3
600.033	1	1
600.202	1	0
600.372	1	-6
600.542	1	-2
600.712	1	-4
600.881	1	3
601.051	1	3
601.221	1	5
601.390	1	-2
601.560	1	14
601.730	1	5
601.900	1	13
602.069	1	-1
602.239	1	3
602.409	1	4
602.578	1	-2
602.748	1	4
602.918	1	4
603.088	1	9
603.257	1	3
603.427	1	-1
603.597	1	-4
603.767	1	5
603.936	1	13
604.106	1	-1
604.276	1	11
604.445	1	12
604.615	1	-3
604.785	1	6
604.954	1	6
605.124	1	2
605.294	1	8
605.464	1	1
605.633	1	6
605.803	1	4
605.973	1	3
606.142	1	5
606.312	1	-1
606.482	1	2
606.652	1	-2
606.821	1	-1
606.991	1	7
607.161	1	3
607.330	1	-3
607.500	1	5
607.670	1	12
607.839	1	18
608.009	1	8
608.179	1	8
608.348	1	-1
608.518	1	-4
608.688	1	-14
608.858	1	9
609.027	1	2
609.197	1	-6
609.367	1	17
609.536	1	9
609.706	1	10
609.876	1	12
610.045	1	7
610.215	1	-2
610.385	1	-7
610.554	1	-4
610.724	1	-6
610.894	1	-2
611.063	1	0
611.233	1	0
611.403	1	-3
611.572	1	8
611.742	1	1
611.912	1	12
612.081	1	-10
612.251	1	5
612.421	1	2
612.590	1	4
612.760	1	6
612.930	1	3
613.099	1	8
613.269	1	5
613.439	1	0
613.608	1	3
613.778	1	-2
613.948	1	4
614.117	1	11
614.287	1	1
614.457	1	-8
614.626	1	8
614.796	1	2
614.966	1	2
615.135	1	11
615.305	1	8
615.475	1	5
615.644	1	-1
615.814	1	-8
615.984	1	8
616.153	1	1
616.323	1	5
616.493	1	20
616.662	1	12
616.832	1	6
617.002	1	1
617.171	1	-5
617.341	1	6
617.511	1	3
617.680	1	16
617.850	1	13
618.019	1	4
618.189	1	4
618.359	1	3
618.528	1	6
618.698	1	10
618.868	1	-2
619.037	1	9
619.207	1	6
619.377	1	0
619.546	1	0
619.716	1	7
619.885	1	1
620.055	1	8
620.225	1	0
620.394	1	9
620.564	1	9
620.734	1	-3
620.903	1	6
621.073	1	1
621.242	1	9
621.412	1	0
621.582	1	6
621.751	1	9
621.921	1	4
622.091	1	0
622.260	1	-5
622.430	1	0
622.599	1	-7
622.769	1	1
622.939	1	6
623.108	1	10
623.278	1	4
623.448	1	7
623.617	1	4
623.787	1	12
623.956	1	6
624.126	1	11
624.296	1	2
624.465	1	11
624.635	1	3
624.804	1	-3
624.974	1	11
625.144	1	10
625.313	1	-11
625.483	1	20
625.652	1	16
625.822	1	-10
625.992	1	9
626.161	1	16
626.331	1	-4
626.501	1	5
626.670	1	-1
626.840	1	24
627.009	1	16
627.179	1	11
627.348	1	14
627.518	1	11
627.688	1	-8
627.857	1	6
628.027	1	-4
628.196	1	-3
628.366	1	-8
628.536	1	-2
628.705	1	9
628.875	1	17
629.044	1	4
629.214	1	7
629.384	1	-4
629.553	1	4
629.723	1	-4
629.892	1	14
630.062	1	2
630.232	1	5
630.401	1	12
630.571	1	13
630.740	1	12
630.910	1	6
631.079	1	-2
631.249	1	-1
631.419	1	0
631.588	1	-1
631.758	1	10
631.927	1	3
632.097	1	-3
632.266	1	-1
632.436	1	3
632.606	1	7
632.775	1	17
632.945	1	12
633.114	1	6
633.284	1	-3
633.453	1	9
633.623	1	9
633.793	1	-8
633.962	1	8
634.132	1	14
634.301	1	5
634.471	1	3
634.640	1	8
634.810	1	9
634.979	1	7
635.149	1	9
635.319	1	4
635.488	1	2
635.658	1	10
635.827	1	11
635.997	1	15
636.166	1	14
636.336	1	2
636.505	1	4
636.675	1	14
636.845	1	12
637.014	1	1
637.184	1	9
637.353	1	3
637.523	1	13
637.692	1	7
637.862	1	8
638.031	1	6
638.201	1	17
638.370	1	8
638.540	1	0
638.710	1	15
638.879	1	4
639.049	1	12
639.218	1	5
639.388	1	4
639.557	1	7
639.727	1	6
639.896	1	7
640.066	1	9
640.235	1	14
640.405	1	8
640.574	1	6
640.744	1	11
640.914	1	7
641.083	1	7
641.253	1	23
641.422	1	12
641.592	1	3
641.761	1	-1
641.931	1	7
642.100	1	0
642.270	1	12
642.439	1	-2
642.609	1	13
642.778	1	3
642.948	1	-4
643.117	1	17
643.287	1	6
643.456	1	13
643.626	1	4
643.795	1	3
643.965	1	3
644.134	1	13
644.304	1	5
644.473	1	12
644.643	1	14
644.812	1	17
644.982	1	0
645.151	1	15
645.321	1	-3
645.490	1	-4
645.660	1	5
645.829	1	8
645.999	1	11
646.168	1	5
646.338	1	9
646.507	1	6
646.677	1	12
646.846	1	9
647.016	1	9
647.185	1	-3
647.355	1	5
647.524	1	8
647.694	1	0
647.863	1	5
648.033	1	6
648.202	1	17
648.372	1	17
648.541	1	9
648.711	1	15
648.880	1	9
649.050	1	2
649.219	1	6
649.389	1	2
649.558	1	5
649.728	1	10
649.897	1	6
650.067	1	5
650.236	1	12
650.406	1	2
650.575	1	11
650.745	1	6
650.914	1	4
651.084	1	-1
651.253	1	14
651.423	1	16
651.592	1	11
651.762	1	13
651.931	1	7
652.101	1	-1
652.270	1	4
652.440	1	2
652.609	1	0
652.778	1	6
652.948	1	7
653.117	1	1
653.287	1	14
653.456	1	10
653.626	1	-2
653.795	1	11
653.965	1	8
654.134	1	7
654.304	1	12
654.473	1	2
654.643	1	6
654.812	1	0
654.982	1	-2
655.151	1	-3
655.320	1	10
655.490	1	4
655.659	1	3
655.829	1	12
655.998	1	0
656.168	1	4
656.337	1	19
656.507	1	0
656.676	1	5
656.846	1	2
657.015	1	3
657.184	1	2
657.354	1	7
657.523	1	7
657.693	1	7
657.862	1	4
658.032	1	5
658.201	1	3
658.371	1	-4
658.540	1	4
658.709	1	1
658.879	1	-6
659.048	1	8
659.218	1	5
659.387	1	10
659.557	1	-4
659.726	1	13
659.895	1	5
660.065	1	-5
660.234	1	-5
660.404	1	12
660.573	1	9
660.743	1	14
660.912	1	9
661.081	1	19
661.251	1	7
661.420	1	7
661.590	1	3
661.759	1	6
661.929	1	5
662.098	1	2
662.267	1	4
662.437	1	8
662.606	1	21
662.776	1	2
662.945	1	7
663.115	1	15
663.284	1	12
663.453	1	-5
663.623	1	10
663.792	1	15
663.962	1	4
664.131	1	13
664.300	1	2
664.470	1	9
664.639	1	1
664.809	1	-10
664.978	1	4
665.148	1	5
665.317	1	1
665.486	1	5
665.656	1	2
665.825	1	12
665.995	1	-1
666.164	1	6
666.333	1	11
666.503	1	2
666.672	1	3
666.842	1	-11
667.011	1	11
667.180	1	3
667.350	1	4
667.519	1	8
667.689	1	-4
667.858	1	12
668.027	1	8
668.197	1	11
668.366	1	4
668.536	1	7
668.705	1	4
668.874	1	7
669.044	1	7
669.213	1	7
669.382	1	7
669.552	1	11
669.721	1	20
669.891	1	4
670.060	1	17
670.229	1	-5
670.399	1	11
670.568	1	-3
670.738	1	-3
670.907	1	-3
671.076	1	9
671.246	1	20
671.415	1	7
671.584	1	8
671.754	1	6
671.923	1	4
672.093	1	11
672.262	1	3
672.431	1	2
672.601	1	-1
672.770	1	5
672.939	1	4
673.109	1	3
673.278	1	3
673.448	1	-9
673.617	1	-3
673.786	1	8
