325.333	1	16
325.504	1	9
325.675	1	12
325.846	1	11
326.017	1	14
326.188	1	14
326.359	1	3
326.531	1	4
326.702	1	11
326.873	1	15
327.044	1	11
327.215	1	13
327.386	1	4
327.557	1	17
327.728	1	23
327.899	1	11
328.070	1	17
328.241	1	14
328.412	1	13
328.583	1	10
328.754	1	12
328.926	1	14
329.097	1	0
329.268	1	10
329.439	1	10
329.610	1	23
329.781	1	11
329.952	1	18
330.123	1	16
330.294	1	0
330.465	1	14
330.636	1	17
330.807	1	12
330.978	1	9
331.149	1	19
331.320	1	22
331.492	1	25
331.663	1	15
331.834	1	15
332.005	1	10
332.176	1	0
332.347	1	24
332.518	1	23
332.689	1	7
332.860	1	21
333.031	1	10
333.202	1	6
333.373	1	18
333.544	1	15
333.715	1	18
333.886	1	3
334.057	1	15
334.228	1	8
334.399	1	18
334.570	1	17
334.741	1	21
334.912	1	23
335.084	1	10
335.255	1	18
335.426	1	16
335.597	1	15
335.768	1	26
335.939	1	22
336.110	1	19
336.281	1	21
336.452	1	21
336.623	1	23
336.794	1	7
336.965	1	17
337.136	1	19
337.307	1	2
337.478	1	16
337.649	1	16
337.820	1	19
337.991	1	31
338.162	1	17
338.333	1	23
338.504	1	23
338.675	1	26
338.846	1	15
339.017	1	31
339.188	1	17
339.359	1	25
339.530	1	33
339.701	1	20
339.872	1	24
340.043	1	10
340.214	1	12
340.385	1	15
340.556	1	22
340.727	1	19
340.898	1	21
341.069	1	24
341.240	1	25
341.411	1	22
341.582	1	24
341.753	1	16
341.924	1	16
342.095	1	21
342.266	1	14
342.437	1	20
342.608	1	25
342.779	1	26
342.950	1	21
343.121	1	29
343.292	1	16
343.463	1	11
343.634	1	22
343.805	1	15
343.976	1	19
344.147	1	22
344.318	1	7
344.489	1	29
344.660	1	24
344.831	1	30
345.002	1	27
345.173	1	12
345.344	1	18
345.515	1	13
345.686	1	26
345.857	1	17
346.028	1	16
346.199	1	15
346.370	1	23
346.541	1	14
346.712	1	25
346.883	1	26
347.054	1	18
347.225	1	17
347.396	1	18
347.567	1	37
347.738	1	7
347.909	1	23
348.080	1	17
348.251	1	20
348.422	1	23
348.593	1	19
348.764	1	19
348.935	1	20
349.106	1	23
349.277	1	30
349.448	1	21
349.619	1	13
349.790	1	34
349.961	1	27
350.132	1	32
350.303	1	13
350.474	1	20
350.645	1	18
350.816	1	15
350.987	1	29
351.157	1	25
351.328	1	31
351.499	1	19
351.670	1	24
351.841	1	21
352.012	1	26
352.183	1	16
352.354	1	16
352.525	1	21
352.696	1	27
352.867	1	18
353.038	1	10
353.209	1	22
353.380	1	27
353.551	1	19
353.722	1	17
353.893	1	33
354.064	1	21
354.235	1	29
354.406	1	35
354.576	1	27
354.747	1	27
354.918	1	39
355.089	1	31
355.260	1	37
355.431	1	25
355.602	1	28
355.773	1	25
355.944	1	21
356.115	1	31
356.286	1	32
356.457	1	21
356.628	1	19
356.799	1	33
356.970	1	30
357.141	1	25
357.311	1	25
357.482	1	21
357.653	1	35
357.824	1	27
357.995	1	20
358.166	1	27
358.337	1	25
358.508	1	21
358.679	1	38
358.850	1	18
359.021	1	33
359.192	1	37
359.363	1	30
359.533	1	19
359.704	1	30
359.875	1	23
360.046	1	39
360.217	1	22
360.388	1	22
360.559	1	25
360.730	1	25
360.901	1	24
361.072	1	21
361.243	1	17
361.414	1	9
361.584	1	20
361.755	1	22
361.926	1	30
362.097	1	20
362.268	1	16
362.439	1	23
362.610	1	29
362.781	1	24
362.952	1	35
363.123	1	33
363.293	1	25
363.464	1	31
363.635	1	38
363.806	1	14
363.977	1	25
364.148	1	17
364.319	1	25
364.490	1	22
364.661	1	33
364.832	1	31
365.002	1	32
365.173	1	29
365.344	1	27
365.515	1	15
365.686	1	26
365.857	1	27
366.028	1	28
366.199	1	30
366.370	1	32
366.540	1	21
366.711	1	24
366.882	1	20
367.053	1	21
367.224	1	23
367.395	1	21
367.566	1	10
367.737	1	25
367.908	1	20
368.078	1	30
368.249	1	30
368.420	1	28
368.591	1	27
368.762	1	17
368.933	1	17
369.104	1	29
369.274	1	18
369.445	1	23
369.616	1	15
369.787	1	33
369.958	1	28
370.129	1	21
370.300	1	21
370.471	1	24
370.641	1	22
370.812	1	25
370.983	1	10
371.154	1	22
371.325	1	26
371.496	1	27
371.667	1	20
371.837	1	22
372.008	1	17
372.179	1	15
372.350	1	14
372.521	1	33
372.692	1	23
372.863	1	18
373.033	1	27
373.204	1	16
373.375	1	38
373.546	1	36
373.717	1	21
373.888	1	38
374.059	1	26
374.229	1	22
374.400	1	23
374.571	1	23
374.742	1	12
374.913	1	28
375.084	1	36
375.254	1	28
375.425	1	27
375.596	1	33
375.767	1	28
375.938	1	22
376.109	1	26
376.279	1	32
376.450	1	33
376.621	1	20
376.792	1	22
376.963	1	26
377.134	1	24
377.304	1	28
377.475	1	41
377.646	1	31
377.817	1	28
377.988	1	27
378.159	1	40
378.329	1	31
378.500	1	45
378.671	1	40
378.842	1	20
379.013	1	22
379.184	1	17
379.354	1	30
379.525	1	31
379.696	1	30
379.867	1	26
380.038	1	37
380.209	1	25
380.379	1	32
380.550	1	32
380.721	1	19
380.892	1	35
381.063	1	32
381.233	1	32
381.404	1	43
381.575	1	34
381.746	1	45
381.917	1	30
382.087	1	42
382.258	1	50
382.429	1	20
382.600	1	38
382.771	1	30
382.941	1	31
383.112	1	30
383.283	1	43
383.454	1	27
383.625	1	30
383.795	1	37
383.966	1	32
384.137	1	39
384.308	1	36
384.479	1	28
384.649	1	36
384.820	1	39
384.991	1	34
385.162	1	39
385.333	1	36
385.503	1	36
385.674	1	13
385.845	1	39
386.016	1	34
386.187	1	46
386.357	1	37
386.528	1	30
386.699	1	41
386.870	1	33
387.041	1	48
387.211	1	34
387.382	1	32
387.553	1	37
387.724	1	51
387.894	1	35
388.065	1	34
388.236	1	41
388.407	1	42
388.578	1	40
388.748	1	24
388.919	1	39
389.090	1	49
389.261	1	32
389.431	1	38
389.602	1	43
389.773	1	44
389.944	1	47
390.114	1	55
390.285	1	36
390.456	1	34
390.627	1	41
390.798	1	36
390.968	1	50
391.139	1	37
391.310	1	40
391.481	1	49
391.651	1	47
391.822	1	52
391.993	1	35
392.164	1	39
392.334	1	39
392.505	1	49
392.676	1	52
392.847	1	41
393.017	1	48
393.188	1	41
393.359	1	37
393.530	1	48
393.700	1	31
393.871	1	41
394.042	1	54
394.213	1	41
394.383	1	37
394.554	1	49
394.725	1	36
394.896	1	51
395.066	1	36
395.237	1	50
395.408	1	54
395.579	1	39
395.749	1	42
395.920	1	34
396.091	1	53
396.262	1	40
396.432	1	45
396.603	1	42
396.774	1	41
396.945	1	39
397.115	1	46
397.286	1	33
397.457	1	34
397.627	1	40
397.798	1	40
397.969	1	51
398.140	1	39
398.310	1	37
398.481	1	36
398.652	1	43
398.823	1	47
398.993	1	45
399.164	1	52
399.335	1	44
399.505	1	46
399.676	1	42
399.847	1	39
400.018	1	57
400.188	1	48
400.359	1	48
400.530	1	48
400.700	1	46
400.871	1	35
401.042	1	61
401.213	1	45
401.383	1	47
401.554	1	49
401.725	1	46
401.895	1	48
402.066	1	40
402.237	1	50
402.408	1	48
402.578	1	49
402.749	1	59
402.920	1	48
403.090	1	46
403.261	1	52
403.432	1	38
403.603	1	52
403.773	1	57
403.944	1	49
404.115	1	51
404.285	1	52
404.456	1	52
404.627	1	51
404.797	1	51
404.968	1	47
405.139	1	51
405.310	1	49
405.480	1	57
405.651	1	39
405.822	1	56
405.992	1	49
406.163	1	61
406.334	1	42
406.504	1	53
406.675	1	69
406.846	1	55
407.016	1	43
407.187	1	48
407.358	1	50
407.528	1	49
407.699	1	54
407.870	1	54
408.041	1	59
408.211	1	53
408.382	1	50
408.553	1	54
408.723	1	44
408.894	1	43
409.065	1	57
409.235	1	55
409.406	1	46
409.577	1	51
409.747	1	52
409.918	1	53
410.089	1	62
410.259	1	46
410.430	1	60
410.601	1	57
410.771	1	54
410.942	1	58
411.113	1	46
411.283	1	51
411.454	1	44
411.625	1	59
411.795	1	49
411.966	1	63
412.137	1	56
412.307	1	53
412.478	1	58
412.649	1	49
412.819	1	51
412.990	1	58
413.161	1	61
413.331	1	52
413.502	1	62
413.672	1	60
413.843	1	51
414.014	1	59
414.184	1	64
414.355	1	63
414.526	1	53
414.696	1	63
414.867	1	59
415.038	1	50
415.208	1	65
415.379	1	53
415.550	1	57
415.720	1	55
415.891	1	76
416.062	1	56
416.232	1	49
416.403	1	62
416.573	1	56
416.744	1	54
416.915	1	68
417.085	1	55
417.256	1	47
417.427	1	44
417.597	1	56
417.768	1	56
417.939	1	60
418.109	1	50
418.280	1	45
418.450	1	56
418.621	1	56
418.792	1	61
418.962	1	44
419.133	1	50
419.304	1	63
419.474	1	35
419.645	1	55
419.815	1	50
419.986	1	63
420.157	1	51
420.327	1	49
420.498	1	50
420.669	1	46
420.839	1	41
421.010	1	60
421.180	1	52
421.351	1	61
421.522	1	62
421.692	1	50
421.863	1	56
422.033	1	48
422.204	1	50
422.375	1	49
422.545	1	51
422.716	1	53
422.886	1	44
423.057	1	57
423.228	1	49
423.398	1	58
423.569	1	47
423.740	1	61
423.910	1	62
424.081	1	65
424.251	1	46
424.422	1	52
424.593	1	56
424.763	1	55
424.934	1	53
425.104	1	52
425.275	1	62
425.445	1	41
425.616	1	62
425.787	1	53
425.957	1	57
426.128	1	56
426.298	1	64
426.469	1	53
426.640	1	49
426.810	1	60
426.981	1	57
427.151	1	51
427.322	1	58
427.493	1	62
427.663	1	59
427.834	1	62
428.004	1	37
428.175	1	65
428.345	1	52
428.516	1	60
428.687	1	67
428.857	1	47
429.028	1	52
429.198	1	57
429.369	1	57
429.540	1	50
429.710	1	50
429.881	1	48
430.051	1	68
430.222	1	48
430.392	1	47
430.563	1	54
430.734	1	47
430.904	1	44
431.075	1	61
431.245	1	43
431.416	1	49
431.586	1	45
431.757	1	54
431.927	1	61
432.098	1	43
432.269	1	44
432.439	1	53
432.610	1	57
432.780	1	54
432.951	1	64
433.121	1	53
433.292	1	46
433.462	1	50
433.633	1	44
433.804	1	52
433.974	1	53
434.145	1	47
434.315	1	54
434.486	1	66
434.656	1	62
434.827	1	53
434.997	1	44
435.168	1	51
435.339	1	52
435.509	1	50
435.680	1	59
435.850	1	52
436.021	1	59
436.191	1	54
436.362	1	61
436.532	1	53
436.703	1	47
436.873	1	44
437.044	1	49
437.214	1	49
437.385	1	46
437.556	1	53
437.726	1	55
437.897	1	61
438.067	1	48
438.238	1	53
438.408	1	44
438.579	1	53
438.749	1	57
438.920	1	52
439.090	1	55
439.261	1	48
439.431	1	51
439.602	1	48
439.772	1	49
439.943	1	49
440.113	1	60
440.284	1	54
440.455	1	51
440.625	1	65
440.796	1	58
440.966	1	30
441.137	1	54
441.307	1	51
441.478	1	54
441.648	1	47
441.819	1	54
441.989	1	55
442.160	1	49
442.330	1	48
442.501	1	54
442.671	1	45
442.842	1	54
443.012	1	48
443.183	1	55
443.353	1	57
443.524	1	45
443.694	1	36
443.865	1	54
444.035	1	50
444.206	1	48
444.376	1	37
444.547	1	52
444.717	1	49
444.888	1	40
445.058	1	48
445.229	1	36
445.399	1	45
445.570	1	31
445.740	1	41
445.911	1	50
446.081	1	50
446.252	1	44
446.422	1	44
446.593	1	28
446.763	1	34
446.934	1	56
447.104	1	51
447.275	1	53
447.445	1	45
447.616	1	48
447.786	1	49
447.957	1	44
448.127	1	57
448.298	1	50
448.468	1	54
448.639	1	50
448.809	1	53
448.979	1	34
449.150	1	39
449.320	1	43
449.491	1	37
449.661	1	53
449.832	1	46
450.002	1	46
450.173	1	34
450.343	1	47
450.514	1	54
450.684	1	36
450.855	1	45
451.025	1	35
451.196	1	54
451.366	1	44
451.537	1	46
451.707	1	45
451.878	1	40
452.048	1	50
452.218	1	47
452.389	1	56
452.559	1	35
452.730	1	50
452.900	1	44
453.071	1	55
453.241	1	41
453.412	1	38
453.582	1	40
453.753	1	40
453.923	1	50
454.093	1	45
454.264	1	42
454.434	1	52
454.605	1	45
454.775	1	47
454.946	1	50
455.116	1	41
455.287	1	36
455.457	1	45
455.628	1	47
455.798	1	39
455.968	1	43
456.139	1	35
456.309	1	29
456.480	1	47
456.650	1	57
456.821	1	49
456.991	1	47
457.161	1	45
457.332	1	41
457.502	1	39
457.673	1	36
457.843	1	34
458.014	1	46
458.184	1	38
458.355	1	36
458.525	1	26
458.695	1	35
458.866	1	40
459.036	1	44
459.207	1	29
459.377	1	46
459.548	1	36
459.718	1	38
459.888	1	46
460.059	1	33
460.229	1	30
460.400	1	50
460.570	1	36
460.740	1	35
460.911	1	37
461.081	1	38
461.252	1	37
461.422	1	25
461.593	1	28
461.763	1	45
461.933	1	25
462.104	1	45
462.274	1	43
462.445	1	22
462.615	1	32
462.785	1	34
462.956	1	38
463.126	1	37
463.297	1	34
463.467	1	45
463.638	1	38
463.808	1	24
463.978	1	27
464.149	1	40
464.319	1	26
464.490	1	37
464.660	1	36
464.830	1	28
465.001	1	47
465.171	1	37
465.342	1	36
465.512	1	45
465.682	1	37
465.853	1	35
466.023	1	30
466.194	1	42
466.364	1	34
466.534	1	45
466.705	1	33
466.875	1	38
467.045	1	26
467.216	1	27
467.386	1	42
467.557	1	30
467.727	1	36
467.897	1	32
468.068	1	42
468.238	1	35
468.409	1	25
468.579	1	24
468.749	1	33
468.920	1	28
469.090	1	26
469.260	1	24
469.431	1	40
469.601	1	18
469.772	1	29
469.942	1	42
470.112	1	37
470.283	1	36
470.453	1	38
470.623	1	29
470.794	1	40
470.964	1	21
471.135	1	24
471.305	1	25
471.475	1	25
471.646	1	29
471.816	1	37
471.986	1	27
472.157	1	35
472.327	1	33
472.497	1	17
472.668	1	31
472.838	1	32
473.009	1	39
473.179	1	35
473.349	1	24
473.520	1	18
473.690	1	32
473.860	1	21
474.031	1	27
474.201	1	34
474.371	1	25
474.542	1	33
474.712	1	24
474.882	1	31
475.053	1	27
475.223	1	37
475.394	1	33
475.564	1	27
475.734	1	29
475.905	1	36
476.075	1	32
476.245	1	39
476.416	1	25
476.586	1	42
476.756	1	37
476.927	1	19
477.097	1	27
477.267	1	25
477.438	1	7
477.608	1	25
477.778	1	24
477.949	1	21
478.119	1	21
478.289	1	30
478.460	1	35
478.630	1	14
478.800	1	21
478.971	1	31
479.141	1	22
479.311	1	18
479.482	1	21
479.652	1	19
479.822	1	25
479.993	1	22
480.163	1	16
480.333	1	29
480.504	1	32
480.674	1	14
480.844	1	25
481.015	1	22
481.185	1	20
481.355	1	20
481.525	1	26
481.696	1	25
481.866	1	23
482.036	1	25
482.207	1	33
482.377	1	23
482.547	1	17
482.718	1	24
482.888	1	22
483.058	1	26
483.229	1	18
483.399	1	26
483.569	1	35
483.740	1	21
483.910	1	8
484.080	1	31
484.250	1	22
484.421	1	31
484.591	1	29
484.761	1	27
484.932	1	33
485.102	1	25
485.272	1	18
485.443	1	23
485.613	1	23
485.783	1	11
485.953	1	21
486.124	1	8
486.294	1	32
486.464	1	15
486.635	1	14
486.805	1	17
486.975	1	15
487.146	1	22
487.316	1	23
487.486	1	22
487.656	1	19
487.827	1	23
487.997	1	16
488.167	1	26
488.338	1	17
488.508	1	20
488.678	1	19
488.848	1	19
489.019	1	25
489.189	1	19
489.359	1	17
489.529	1	13
489.700	1	11
489.870	1	16
490.040	1	14
490.211	1	25
490.381	1	21
490.551	1	15
490.721	1	22
490.892	1	36
491.062	1	21
491.232	1	14
491.402	1	23
491.573	1	15
491.743	1	23
491.913	1	20
492.084	1	20
492.254	1	24
492.424	1	17
492.594	1	27
492.765	1	19
492.935	1	29
493.105	1	18
493.275	1	8
493.446	1	14
493.616	1	14
493.786	1	20
493.956	1	8
494.127	1	15
494.297	1	24
494.467	1	29
494.637	1	18
494.808	1	3
494.978	1	15
495.148	1	25
495.318	1	6
495.489	1	8
495.659	1	28
495.829	1	23
495.999	1	20
496.170	1	11
496.340	1	29
496.510	1	10
496.680	1	17
496.851	1	11
497.021	1	11
497.191	1	8
497.361	1	7
497.532	1	10
497.702	1	24
497.872	1	20
498.042	1	22
498.213	1	15
498.383	1	21
498.553	1	17
498.723	1	2
498.894	1	24
499.064	1	16
499.234	1	17
499.404	1	11
499.574	1	19
499.745	1	17
499.915	1	7
500.085	1	15
500.255	1	19
500.426	1	15
500.596	1	17
500.766	1	15
500.936	1	4
501.106	1	16
501.277	1	26
501.447	1	13
501.617	1	17
501.787	1	17
501.958	1	28
502.128	1	25
502.298	1	18
502.468	1	16
502.638	1	9
502.809	1	9
502.979	1	4
503.149	1	16
503.319	1	10
503.489	1	10
503.660	1	17
503.830	1	12
504.000	1	17
504.170	1	7
504.340	1	12
504.511	1	21
504.681	1	28
504.851	1	25
505.021	1	18
505.192	1	6
505.362	1	21
505.532	1	8
505.702	1	6
505.872	1	17
506.043	1	14
506.213	1	8
506.383	1	23
506.553	1	15
506.723	1	28
506.893	1	8
507.064	1	8
507.234	1	10
507.404	1	20
507.574	1	11
507.744	1	18
507.915	1	5
508.085	1	-2
508.255	1	11
508.425	1	16
508.595	1	12
508.766	1	9
508.936	1	12
509.106	1	7
509.276	1	15
509.446	1	20
509.616	1	15
509.787	1	16
509.957	1	10
510.127	1	14
510.297	1	14
510.467	1	16
510.638	1	13
510.808	1	5
510.978	1	13
511.148	1	18
511.318	1	12
511.488	1	16
511.659	1	20
511.829	1	10
511.999	1	9
512.169	1	13
512.339	1	10
512.509	1	18
512.680	1	1
512.850	1	18
513.020	1	23
513.190	1	17
513.360	1	15
513.530	1	9
513.700	1	9
513.871	1	13
514.041	1	15
514.211	1	7
514.381	1	18
514.551	1	4
514.721	1	8
514.892	1	7
515.062	1	19
515.232	1	9
515.402	1	17
515.572	1	7
515.742	1	26
515.912	1	11
516.083	1	16
516.253	1	18
516.423	1	6
516.593	1	8
516.763	1	16
516.933	1	14
517.104	1	8
517.274	1	15
517.444	1	12
517.614	1	6
517.784	1	9
517.954	1	10
518.124	1	15
518.294	1	15
518.465	1	9
518.635	1	15
518.805	1	17
518.975	1	5
519.145	1	13
519.315	1	4
519.485	1	11
519.656	1	5
519.826	1	7
519.996	1	7
520.166	1	13
520.336	1	8
520.506	1	12
520.676	1	24
520.846	1	11
521.017	1	5
521.187	1	13
521.357	1	9
521.527	1	13
521.697	1	12
521.867	1	2
522.037	1	17
522.207	1	7
522.377	1	16
522.548	1	15
522.718	1	14
522.888	1	30
523.058	1	16
523.228	1	6
523.398	1	13
523.568	1	9
523.738	1	2
523.909	1	7
524.079	1	6
524.249	1	7
524.419	1	7
524.589	1	8
524.759	1	18
524.929	1	5
525.099	1	-5
525.269	1	-1
525.439	1	18
525.610	1	11
525.780	1	12
525.950	1	22
526.120	1	2
526.290	1	6
526.460	1	12
526.630	1	11
526.800	1	5
526.970	1	13
527.140	1	17
527.311	1	17
527.481	1	-4
527.651	1	10
527.821	1	4
527.991	1	5
528.161	1	4
528.331	1	7
528.501	1	5
528.671	1	10
528.841	1	15
529.011	1	7
529.181	1	15
529.352	1	13
529.522	1	8
529.692	1	-6
529.862	1	4
530.032	1	11
530.202	1	21
530.372	1	14
530.542	1	5
530.712	1	23
530.882	1	15
531.052	1	3
531.222	1	8
531.392	1	13
531.563	1	9
531.733	1	10
531.903	1	14
532.073	1	0
532.243	1	22
532.413	1	4
532.583	1	18
532.753	1	6
532.923	1	10
533.093	1	12
533.263	1	15
533.433	1	3
533.603	1	8
533.773	1	8
533.943	1	4
534.113	1	21
534.284	1	-3
534.454	1	4
534.624	1	11
534.794	1	11
534.964	1	6
535.134	1	17
535.304	1	14
535.474	1	-1
535.644	1	9
535.814	1	13
535.984	1	3
536.154	1	14
536.324	1	2
536.494	1	8
536.664	1	-5
536.834	1	10
537.004	1	12
537.174	1	13
537.344	1	12
537.514	1	7
537.685	1	9
537.855	1	8
538.025	1	2
538.195	1	13
538.365	1	9
538.535	1	6
538.705	1	-1
538.875	1	7
539.045	1	5
539.215	1	18
539.385	1	5
539.555	1	2
539.725	1	4
539.895	1	12
540.065	1	5
540.235	1	4
540.405	1	10
540.575	1	10
540.745	1	5
540.915	1	13
541.085	1	6
541.255	1	11
541.425	1	3
541.595	1	4
541.765	1	18
541.935	1	13
542.105	1	8
542.275	1	11
542.445	1	13
542.615	1	7
542.785	1	5
542.955	1	-2
543.125	1	12
543.295	1	11
543.465	1	3
543.635	1	8
543.805	1	4
543.975	1	2
544.145	1	11
544.315	1	11
544.485	1	11
544.655	1	14
544.825	1	7
544.995	1	15
545.165	1	12
545.335	1	-3
545.505	1	3
545.675	1	-3
545.845	1	10
546.015	1	5
546.185	1	8
546.355	1	2
546.525	1	8
546.695	1	-6
546.865	1	16
547.035	1	9
547.205	1	12
547.375	1	2
547.545	1	6
547.715	1	7
547.885	1	2
548.055	1	-3
548.225	1	19
548.395	1	3
548.565	1	17
548.735	1	8
548.905	1	9
549.075	1	5
549.245	1	9
549.415	1	4
549.585	1	10
549.755	1	9
549.925	1	2
550.095	1	14
550.265	1	16
550.435	1	9
550.605	1	15
550.775	1	13
550.945	1	2
551.115	1	5
551.285	1	9
551.455	1	9
551.625	1	5
551.795	1	-6
551.965	1	5
552.135	1	13
552.305	1	12
552.475	1	3
552.645	1	12
552.815	1	4
552.985	1	9
553.155	1	1
553.325	1	10
553.495	1	1
553.665	1	12
553.835	1	21
554.004	1	19
554.174	1	7
554.344	1	1
554.514	1	12
554.684	1	5
554.854	1	2
555.024	1	0
555.194	1	6
555.364	1	11
555.534	1	-1
555.704	1	13
555.874	1	0
556.044	1	13
556.214	1	9
556.384	1	9
556.554	1	1
556.724	1	3
556.894	1	4
557.064	1	10
557.234	1	-8
557.404	1	3
557.573	1	1
557.743	1	6
557.913	1	3
558.083	1	6
558.253	1	7
558.423	1	9
558.593	1	-4
558.763	1	10
558.933	1	-1
559.103	1	12
559.273	1	2
559.443	1	3
559.613	1	7
559.783	1	-1
559.953	1	-2
560.122	1	5
560.292	1	10
560.462	1	8
560.632	1	2
560.802	1	9
560.972	1	3
561.142	1	7
561.312	1	9
561.482	1	5
561.652	1	2
561.822	1	-5
561.992	1	-8
562.162	1	16
562.331	1	8
562.501	1	0
562.671	1	18
562.841	1	-4
563.011	1	10
563.181	1	6
563.351	1	7
563.521	1	4
563.691	1	6
563.861	1	8
564.031	1	5
564.201	1	10
564.370	1	-4
564.540	1	25
564.710	1	2
564.880	1	13
565.050	1	6
565.220	1	4
565.390	1	6
565.560	1	10
565.730	1	14
565.900	1	9
566.069	1	12
566.239	1	-3
566.409	1	-1
566.579	1	11
566.749	1	-3
566.919	1	5
567.089	1	7
567.259	1	9
567.429	1	5
567.599	1	21
567.768	1	9
567.938	1	2
568.108	1	1
568.278	1	11
568.448	1	1
568.618	1	3
568.788	1	3
568.958	1	-2
569.128	1	8
569.297	1	-3
569.467	1	-9
569.637	1	10
569.807	1	12
569.977	1	11
570.147	1	12
570.317	1	11
570.487	1	2
570.656	1	-5
570.826	1	9
570.996	1	-3
571.166	1	9
571.336	1	5
571.506	1	12
571.676	1	16
571.846	1	8
572.015	1	9
572.185	1	8
572.355	1	-10
572.525	1	-7
572.695	1	9
572.865	1	-6
573.035	1	13
573.205	1	11
573.374	1	8
573.544	1	17
573.714	1	-5
573.884	1	9
574.054	1	7
574.224	1	6
574.394	1	4
574.563	1	12
574.733	1	2
574.903	1	8
575.073	1	9
575.243	1	8
575.413	1	11
575.583	1	9
575.752	1	7
575.922	1	0
576.092	1	1
576.262	1	1
576.432	1	10
576.602	1	0
576.772	1	7
576.941	1	1
577.111	1	-3
577.281	1	11
577.451	1	7
577.621	1	7
577.791	1	7
577.960	1	8
578.130	1	-2
578.300	1	-4
578.470	1	3
578.640	1	12
578.810	1	8
578.979	1	7
579.149	1	11
579.319	1	-5
579.489	1	-3
579.659	1	2
579.829	1	2
579.998	1	6
580.168	1	11
580.338	1	10
580.508	1	17
580.678	1	11
580.848	1	3
581.017	1	12
581.187	1	11
581.357	1	3
581.527	1	4
581.697	1	7
581.867	1	2
582.036	1	-8
582.206	1	12
582.376	1	12
582.546	1	-10
582.716	1	0
582.885	1	1
583.055	1	10
583.225	1	3
583.395	1	16
583.565	1	9
583.735	1	10
583.904	1	4
584.074	1	-3
584.244	1	-6
584.414	1	-4
584.584	1	3
584.753	1	3
584.923	1	8
585.093	1	7
585.263	1	10
585.433	1	1
585.602	1	6
585.772	1	-1
585.942	1	7
586.112	1	2
586.282	1	2
586.451	1	6
586.621	1	11
586.791	1	3
586.961	1	0
587.131	1	4
587.300	1	5
587.470	1	-1
587.640	1	9
587.810	1	15
587.980	1	3
588.149	1	12
588.319	1	14
588.489	1	7
588.659	1	-6
588.829	1	6
588.998	1	3
589.168	1	3
589.338	1	3
589.508	1	5
589.677	1	16
589.847	1	14
590.017	1	3
590.187	1	7
590.357	1	12
590.526	1	5
590.696	1	-6
590.866	1	4
591.036	1	12
591.205	1	10
591.375	1	-5
591.545	1	7
591.715	1	11
591.885	1	6
592.054	1	8
592.224	1	7
592.394	1	-2
592.564	1	6
592.733	1	0
592.903	1	-3
593.073	1	4
593.243	1	7
593.412	1	6
593.582	1	5
593.752	1	8
593.922	1	6
594.091	1	0
594.261	1	1
594.431	1	11
594.601	1	1
594.771	1	15
594.940	1	9
595.110	1	10
595.280	1	3
595.450	1	12
595.619	1	5
595.789	1	14
595.959	1	3
596.129	1	-6
596.298	1	3
596.468	1	2
596.638	1	13
596.808	1	9
596.977	1	8
597.147	1	2
597.317	1	0
597.487	1	9
597.656	1	1
597.826	1	12
597.996	1	14
598.166	1	9
598.335	1	11
598.505	1	17
598.675	1	4
598.844	1	5
599.014	1	1
599.184	1	9
599.354	1	2
599.523	1	14
599.693	1	17
599.863	1	9
600.033	1	8
600.202	1	6
600.372	1	-5
600.542	1	7
600.712	1	8
600.881	1	0
601.051	1	0
601.221	1	10
601.390	1	-4
601.560	1	17
601.730	1	16
601.900	1	15
602.069	1	14
602.239	1	9
602.409	1	7
602.578	1	0
602.748	1	6
602.918	1	9
603.088	1	4
603.257	1	11
603.427	1	7
603.597	1	12
603.767	1	0
603.936	1	11
604.106	1	3
604.276	1	12
604.445	1	8
604.615	1	6
604.785	1	18
604.954	1	16
605.124	1	4
605.294	1	10
605.464	1	15
605.633	1	4
605.803	1	2
605.973	1	12
606.142	1	8
606.312	1	5
606.482	1	6
606.652	1	6
606.821	1	10
606.991	1	0
607.161	1	8
607.330	1	1
607.500	1	22
607.670	1	6
607.839	1	17
608.009	1	7
608.179	1	16
608.348	1	10
608.518	1	11
608.688	1	-3
608.858	1	13
609.027	1	7
609.197	1	-1
609.367	1	17
609.536	1	9
609.706	1	16
609.876	1	22
610.045	1	5
610.215	1	9
610.385	1	-6
610.554	1	10
610.724	1	0
610.894	1	17
611.063	1	3
611.233	1	20
611.403	1	11
611.572	1	8
611.742	1	10
611.912	1	14
612.081	1	0
612.251	1	11
612.421	1	13
612.590	1	6
612.760	1	14
612.930	1	3
613.099	1	14
613.269	1	6
613.439	1	4
613.608	1	14
613.778	1	4
613.948	1	8
614.117	1	20
614.287	1	14
614.457	1	-4
614.626	1	12
614.796	1	11
614.966	1	15
615.135	1	8
615.305	1	12
615.475	1	11
615.644	1	6
615.814	1	-1
615.984	1	-1
616.153	1	11
616.323	1	15
616.493	1	25
616.662	1	10
616.832	1	11
617.002	1	4
617.171	1	6
617.341	1	10
617.511	1	10
617.680	1	9
617.850	1	6
618.019	1	8
618.189	1	17
618.359	1	6
618.528	1	10
618.698	1	14
618.868	1	-2
619.037	1	13
619.207	1	7
619.377	1	8
619.546	1	15
619.716	1	17
619.885	1	12
620.055	1	12
620.225	1	14
620.394	1	1
620.564	1	9
620.734	1	16
620.903	1	7
621.073	1	2
621.242	1	11
621.412	1	21
621.582	1	4
621.751	1	13
621.921	1	9
622.091	1	12
622.260	1	5
622.430	1	8
622.599	1	-3
622.769	1	3
622.939	1	13
623.108	1	12
623.278	1	15
623.448	1	19
623.617	1	1
623.787	1	11
623.956	1	22
624.126	1	17
624.296	1	8
624.465	1	18
624.635	1	12
624.804	1	-1
624.974	1	20
625.144	1	2
625.313	1	-5
625.483	1	20
625.652	1	20
625.822	1	6
625.992	1	12
626.161	1	27
626.331	1	11
626.501	1	12
626.670	1	16
626.840	1	6
627.009	1	11
627.179	1	11
627.348	1	6
627.518	1	8
627.688	1	1
627.857	1	17
628.027	1	5
628.196	1	12
628.366	1	-3
628.536	1	12
628.705	1	12
628.875	1	24
629.044	1	20
629.214	1	19
629.384	1	12
629.553	1	7
629.723	1	-5
629.892	1	27
630.062	1	9
630.232	1	11
630.401	1	20
630.571	1	9
630.740	1	4
630.910	1	26
631.079	1	9
631.249	1	12
631.419	1	-1
631.588	1	6
631.758	1	15
631.927	1	18
632.097	1	8
632.266	1	17
632.436	1	13
632.606	1	6
632.775	1	13
632.945	1	22
633.114	1	0
633.284	1	7
633.453	1	12
633.623	1	12
633.793	1	7
633.962	1	0
634.132	1	9
634.301	1	15
634.471	1	-1
634.640	1	3
634.810	1	16
634.979	1	14
635.149	1	11
635.319	1	10
635.488	1	24
635.658	1	13
635.827	1	12
635.997	1	18
636.166	1	1
636.336	1	5
636.505	1	11
636.675	1	22
636.845	1	13
637.014	1	0
637.184	1	20
637.353	1	13
637.523	1	11
637.692	1	18
637.862	1	9
638.031	1	10
638.201	1	19
638.370	1	10
638.540	1	-1
638.710	1	22
638.879	1	3
639.049	1	21
639.218	1	4
639.388	1	14
639.557	1	17
639.727	1	9
639.896	1	3
640.066	1	16
640.235	1	3
640.405	1	17
640.574	1	7
640.744	1	27
640.914	1	13
641.083	1	20
641.253	1	27
641.422	1	6
641.592	1	2
641.761	1	10
641.931	1	13
642.100	1	11
642.270	1	16
642.439	1	7
642.609	1	16
642.778	1	19
642.948	1	5
643.117	1	28
643.287	1	1
643.456	1	14
643.626	1	18
643.795	1	13
643.965	1	16
644.134	1	10
644.304	1	14
644.473	1	17
644.643	1	7
644.812	1	18
644.982	1	20
645.151	1	23
645.321	1	1
645.490	1	14
645.660	1	12
645.829	1	14
645.999	1	11
646.168	1	10
646.338	1	12
646.507	1	17
646.677	1	11
646.846	1	16
647.016	1	19
647.185	1	6
647.355	1	12
647.524	1	16
647.694	1	5
647.863	1	13
648.033	1	8
648.202	1	20
648.372	1	24
648.541	1	16
648.711	1	12
648.880	1	20
649.050	1	14
649.219	1	2
649.389	1	10
649.558	1	4
649.728	1	9
649.897	1	13
650.067	1	14
650.236	1	20
650.406	1	6
650.575	1	17
650.745	1	18
650.914	1	5
651.084	1	18
651.253	1	22
651.423	1	17
651.592	1	10
651.762	1	1
651.931	1	8
652.101	1	12
652.270	1	20
652.440	1	8
652.609	1	17
652.778	1	12
652.948	1	11
653.117	1	8
653.287	1	20
653.456	1	19
653.626	1	8
653.795	1	12
653.965	1	13
654.134	1	18
654.304	1	2
654.473	1	10
654.643	1	18
654.812	1	7
654.982	1	2
655.151	1	9
655.320	1	9
655.490	1	14
655.659	1	13
655.829	1	23
655.998	1	2
656.168	1	6
656.337	1	20
656.507	1	7
656.676	1	10
656.846	1	8
657.015	1	5
657.184	1	12
657.354	1	11
657.523	1	21
657.693	1	7
657.862	1	4
658.032	1	6
658.201	1	9
658.371	1	8
658.540	1	3
658.709	1	6
658.879	1	6
659.048	1	7
659.218	1	6
659.387	1	14
659.557	1	16
659.726	1	17
659.895	1	8
660.065	1	-1
660.234	1	19
660.404	1	8
660.573	1	12
660.743	1	23
660.912	1	17
661.081	1	22
661.251	1	23
661.420	1	13
661.590	1	2
661.759	1	9
661.929	1	20
662.098	1	4
662.267	1	10
662.437	1	8
662.606	1	19
662.776	1	10
662.945	1	1
663.115	1	21
663.284	1	17
663.453	1	9
663.623	1	22
663.792	1	22
663.962	1	19
664.131	1	9
664.300	1	12
664.470	1	10
664.639	1	8
664.809	1	6
664.978	1	15
665.148	1	9
665.317	1	13
665.486	1	14
665.656	1	11
665.825	1	18
665.995	1	10
666.164	1	-1
666.333	1	10
666.503	1	18
666.672	1	13
666.842	1	0
667.011	1	17
667.180	1	18
667.350	1	12
667.519	1	11
667.689	1	9
667.858	1	15
668.027	1	17
668.197	1	13
668.366	1	5
668.536	1	15
668.705	1	2
668.874	1	22
669.044	1	8
669.213	1	16
669.382	1	8
669.552	1	27
669.721	1	18
669.891	1	14
670.060	1	22
670.229	1	10
670.399	1	11
670.568	1	8
670.738	1	2
670.907	1	20
671.076	1	12
671.246	1	24
671.415	1	10
671.584	1	0
671.754	1	10
671.923	1	6
672.093	1	20
672.262	1	11
672.431	1	-2
672.601	1	8
672.770	1	14
672.939	1	17
673.109	1	11
673.278	1	18
673.448	1	15
673.617	1	-6
673.786	1	18
