325.333	1	12
325.504	1	9
325.675	1	11
325.846	1	10
326.017	1	17
326.188	1	24
326.359	1	14
326.531	1	19
326.702	1	14
326.873	1	23
327.044	1	19
327.215	1	1
327.386	1	18
327.557	1	14
327.728	1	16
327.899	1	12
328.070	1	24
328.241	1	17
328.412	1	16
328.583	1	14
328.754	1	16
328.926	1	3
329.097	1	11
329.268	1	9
329.439	1	17
329.610	1	24
329.781	1	8
329.952	1	18
330.123	1	12
330.294	1	3
330.465	1	17
330.636	1	11
330.807	1	3
330.978	1	7
331.149	1	25
331.320	1	13
331.492	1	20
331.663	1	21
331.834	1	11
332.005	1	7
332.176	1	10
332.347	1	31
332.518	1	13
332.689	1	17
332.860	1	16
333.031	1	17
333.202	1	8
333.373	1	14
333.544	1	26
333.715	1	23
333.886	1	9
334.057	1	23
334.228	1	14
334.399	1	18
334.570	1	14
334.741	1	26
334.912	1	20
335.084	1	11
335.255	1	14
335.426	1	14
335.597	1	19
335.768	1	23
335.939	1	20
336.110	1	20
336.281	1	16
336.452	1	26
336.623	1	21
336.794	1	14
336.965	1	7
337.136	1	17
337.307	1	12
337.478	1	16
337.649	1	20
337.820	1	24
337.991	1	19
338.162	1	18
338.333	1	10
338.504	1	12
338.675	1	20
338.846	1	16
339.017	1	24
339.188	1	10
339.359	1	28
339.530	1	30
339.701	1	22
339.872	1	20
340.043	1	11
340.214	1	18
340.385	1	14
340.556	1	13
340.727	1	27
340.898	1	31
341.069	1	25
341.240	1	21
341.411	1	17
341.582	1	22
341.753	1	8
341.924	1	12
342.095	1	24
342.266	1	30
342.437	1	24
342.608	1	34
342.779	1	26
342.950	1	22
343.121	1	17
343.292	1	21
343.463	1	17
343.634	1	18
343.805	1	18
343.976	1	28
344.147	1	25
344.318	1	14
344.489	1	27
344.660	1	29
344.831	1	35
345.002	1	27
345.173	1	13
345.344	1	22
345.515	1	11
345.686	1	32
345.857	1	20
346.028	1	24
346.199	1	17
346.370	1	16
346.541	1	18
346.712	1	15
346.883	1	10
347.054	1	23
347.225	1	25
347.396	1	11
347.567	1	25
347.738	1	14
347.909	1	19
348.080	1	25
348.251	1	32
348.422	1	27
348.593	1	19
348.764	1	21
348.935	1	16
349.106	1	20
349.277	1	29
349.448	1	22
349.619	1	21
349.790	1	38
349.961	1	29
350.132	1	26
350.303	1	33
350.474	1	18
350.645	1	21
350.816	1	14
350.987	1	23
351.157	1	27
351.328	1	26
351.499	1	20
351.670	1	19
351.841	1	18
352.012	1	37
352.183	1	27
352.354	1	16
352.525	1	33
352.696	1	38
352.867	1	21
353.038	1	24
353.209	1	28
353.380	1	20
353.551	1	25
353.722	1	35
353.893	1	20
354.064	1	25
354.235	1	25
354.406	1	33
354.576	1	29
354.747	1	16
354.918	1	33
355.089	1	28
355.260	1	33
355.431	1	21
355.602	1	20
355.773	1	20
355.944	1	16
356.115	1	32
356.286	1	30
356.457	1	27
356.628	1	34
356.799	1	25
356.970	1	41
357.141	1	27
357.311	1	27
357.482	1	39
357.653	1	30
357.824	1	30
357.995	1	24
358.166	1	32
358.337	1	21
358.508	1	21
358.679	1	36
358.850	1	17
359.021	1	26
359.192	1	31
359.363	1	29
359.533	1	6
359.704	1	37
359.875	1	32
360.046	1	26
360.217	1	34
360.388	1	27
360.559	1	34
360.730	1	30
360.901	1	12
361.072	1	30
361.243	1	25
361.414	1	21
361.584	1	18
361.755	1	24
361.926	1	34
362.097	1	22
362.268	1	26
362.439	1	38
362.610	1	20
362.781	1	25
362.952	1	35
363.123	1	24
363.293	1	32
363.464	1	30
363.635	1	26
363.806	1	30
363.977	1	36
364.148	1	18
364.319	1	30
364.490	1	34
364.661	1	22
364.832	1	31
365.002	1	31
365.173	1	28
365.344	1	23
365.515	1	23
365.686	1	31
365.857	1	29
366.028	1	30
366.199	1	28
366.370	1	32
366.540	1	34
366.711	1	13
366.882	1	23
367.053	1	26
367.224	1	24
367.395	1	30
367.566	1	10
367.737	1	15
367.908	1	26
368.078	1	37
368.249	1	38
368.420	1	36
368.591	1	39
368.762	1	25
368.933	1	18
369.104	1	47
369.274	1	18
369.445	1	23
369.616	1	36
369.787	1	29
369.958	1	24
370.129	1	33
370.300	1	24
370.471	1	29
370.641	1	33
370.812	1	31
370.983	1	20
371.154	1	29
371.325	1	34
371.496	1	26
371.667	1	32
371.837	1	29
372.008	1	23
372.179	1	22
372.350	1	18
372.521	1	27
372.692	1	32
372.863	1	30
373.033	1	25
373.204	1	31
373.375	1	24
373.546	1	39
373.717	1	31
373.888	1	34
374.059	1	25
374.229	1	32
374.400	1	25
374.571	1	22
374.742	1	23
374.913	1	37
375.084	1	30
375.254	1	30
375.425	1	25
375.596	1	31
375.767	1	32
375.938	1	38
376.109	1	27
376.279	1	38
376.450	1	34
376.621	1	26
376.792	1	31
376.963	1	27
377.134	1	39
377.304	1	37
377.475	1	34
377.646	1	23
377.817	1	28
377.988	1	30
378.159	1	44
378.329	1	34
378.500	1	34
378.671	1	41
378.842	1	30
379.013	1	34
379.184	1	25
379.354	1	32
379.525	1	28
379.696	1	35
379.867	1	42
380.038	1	42
380.209	1	36
380.379	1	37
380.550	1	41
380.721	1	37
380.892	1	26
381.063	1	36
381.233	1	29
381.404	1	40
381.575	1	45
381.746	1	48
381.917	1	40
382.087	1	32
382.258	1	42
382.429	1	36
382.600	1	35
382.771	1	34
382.941	1	48
383.112	1	25
383.283	1	45
383.454	1	40
383.625	1	29
383.795	1	44
383.966	1	30
384.137	1	32
384.308	1	41
384.479	1	34
384.649	1	36
384.820	1	57
384.991	1	33
385.162	1	36
385.333	1	39
385.503	1	33
385.674	1	28
385.845	1	56
386.016	1	47
386.187	1	40
386.357	1	29
386.528	1	34
386.699	1	46
386.870	1	36
387.041	1	48
387.211	1	36
387.382	1	32
387.553	1	44
387.724	1	45
387.894	1	40
388.065	1	41
388.236	1	42
388.407	1	50
388.578	1	40
388.748	1	37
388.919	1	40
389.090	1	49
389.261	1	34
389.431	1	40
389.602	1	47
389.773	1	52
389.944	1	45
390.114	1	47
390.285	1	41
390.456	1	47
390.627	1	34
390.798	1	41
390.968	1	45
391.139	1	32
391.310	1	44
391.481	1	51
391.651	1	56
391.822	1	49
391.993	1	44
392.164	1	46
392.334	1	31
392.505	1	45
392.676	1	50
392.847	1	39
393.017	1	43
393.188	1	58
393.359	1	49
393.530	1	50
393.700	1	36
393.871	1	44
394.042	1	46
394.213	1	37
394.383	1	38
394.554	1	61
394.725	1	37
394.896	1	47
395.066	1	51
395.237	1	42
395.408	1	63
395.579	1	41
395.749	1	39
395.920	1	36
396.091	1	60
396.262	1	36
396.432	1	48
396.603	1	39
396.774	1	48
396.945	1	47
397.115	1	41
397.286	1	49
397.457	1	49
397.627	1	46
397.798	1	45
397.969	1	50
398.140	1	38
398.310	1	53
398.481	1	41
398.652	1	36
398.823	1	48
398.993	1	51
399.164	1	58
399.335	1	45
399.505	1	46
399.676	1	50
399.847	1	47
400.018	1	61
400.188	1	59
400.359	1	51
400.530	1	56
400.700	1	53
400.871	1	50
401.042	1	48
401.213	1	43
401.383	1	55
401.554	1	58
401.725	1	54
401.895	1	55
402.066	1	54
402.237	1	65
402.408	1	58
402.578	1	48
402.749	1	61
402.920	1	46
403.090	1	50
403.261	1	62
403.432	1	53
403.603	1	55
403.773	1	53
403.944	1	53
404.115	1	43
404.285	1	59
404.456	1	45
404.627	1	58
404.797	1	53
404.968	1	62
405.139	1	53
405.310	1	55
405.480	1	59
405.651	1	44
405.822	1	52
405.992	1	52
406.163	1	65
406.334	1	50
406.504	1	62
406.675	1	61
406.846	1	61
407.016	1	47
407.187	1	59
407.358	1	56
407.528	1	54
407.699	1	37
407.870	1	66
408.041	1	58
408.211	1	61
408.382	1	55
408.553	1	58
408.723	1	55
408.894	1	59
409.065	1	52
409.235	1	61
409.406	1	54
409.577	1	57
409.747	1	52
409.918	1	56
410.089	1	72
410.259	1	52
410.430	1	52
410.601	1	52
410.771	1	50
410.942	1	60
411.113	1	67
411.283	1	56
411.454	1	72
411.625	1	55
411.795	1	44
411.966	1	65
412.137	1	55
412.307	1	62
412.478	1	57
412.649	1	56
412.819	1	56
412.990	1	68
413.161	1	76
413.331	1	62
413.502	1	55
413.672	1	65
413.843	1	54
414.014	1	61
414.184	1	61
414.355	1	57
414.526	1	60
414.696	1	59
414.867	1	61
415.038	1	65
415.208	1	66
415.379	1	67
415.550	1	65
415.720	1	54
415.891	1	72
416.062	1	64
416.232	1	69
416.403	1	62
416.573	1	79
416.744	1	57
416.915	1	57
417.085	1	58
417.256	1	53
417.427	1	55
417.597	1	71
417.768	1	60
417.939	1	64
418.109	1	59
418.280	1	63
418.450	1	53
418.621	1	61
418.792	1	49
418.962	1	45
419.133	1	48
419.304	1	61
419.474	1	68
419.645	1	58
419.815	1	67
419.986	1	68
420.157	1	52
420.327	1	56
420.498	1	56
420.669	1	62
420.839	1	61
421.010	1	53
421.180	1	61
421.351	1	65
421.522	1	60
421.692	1	77
421.863	1	57
422.033	1	57
422.204	1	56
422.375	1	59
422.545	1	55
422.716	1	50
422.886	1	54
423.057	1	60
423.228	1	53
423.398	1	58
423.569	1	54
423.740	1	63
423.910	1	65
424.081	1	59
424.251	1	54
424.422	1	58
424.593	1	64
424.763	1	55
424.934	1	64
425.104	1	59
425.275	1	71
425.445	1	55
425.616	1	65
425.787	1	58
425.957	1	55
426.128	1	63
426.298	1	60
426.469	1	56
426.640	1	57
426.810	1	71
426.981	1	60
427.151	1	53
427.322	1	71
427.493	1	53
427.663	1	65
427.834	1	57
428.004	1	44
428.175	1	67
428.345	1	56
428.516	1	60
428.687	1	66
428.857	1	50
429.028	1	58
429.198	1	64
429.369	1	66
429.540	1	66
429.710	1	53
429.881	1	46
430.051	1	68
430.222	1	46
430.392	1	53
430.563	1	64
430.734	1	63
430.904	1	54
431.075	1	60
431.245	1	59
431.416	1	63
431.586	1	58
431.757	1	61
431.927	1	64
432.098	1	49
432.269	1	49
432.439	1	67
432.610	1	73
432.780	1	49
432.951	1	61
433.121	1	55
433.292	1	59
433.462	1	50
433.633	1	57
433.804	1	52
433.974	1	54
434.145	1	49
434.315	1	53
434.486	1	62
434.656	1	65
434.827	1	48
434.997	1	54
435.168	1	50
435.339	1	54
435.509	1	49
435.680	1	56
435.850	1	60
436.021	1	69
436.191	1	54
436.362	1	57
436.532	1	62
436.703	1	54
436.873	1	53
437.044	1	48
437.214	1	47
437.385	1	67
437.556	1	48
437.726	1	66
437.897	1	56
438.067	1	48
438.238	1	67
438.408	1	61
438.579	1	49
438.749	1	54
438.920	1	63
439.090	1	51
439.261	1	63
439.431	1	57
439.602	1	54
439.772	1	54
439.943	1	55
440.113	1	63
440.284	1	59
440.455	1	47
440.625	1	70
440.796	1	53
440.966	1	52
441.137	1	32
441.307	1	52
441.478	1	56
441.648	1	48
441.819	1	46
441.989	1	52
442.160	1	50
442.330	1	45
442.501	1	49
442.671	1	55
442.842	1	59
443.012	1	54
443.183	1	54
443.353	1	55
443.524	1	44
443.694	1	44
443.865	1	50
444.035	1	52
444.206	1	47
444.376	1	63
444.547	1	60
444.717	1	46
444.888	1	48
445.058	1	52
445.229	1	39
445.399	1	50
445.570	1	41
445.740	1	48
445.911	1	50
446.081	1	65
446.252	1	48
446.422	1	54
446.593	1	35
446.763	1	44
446.934	1	51
447.104	1	46
447.275	1	55
447.445	1	58
447.616	1	44
447.786	1	46
447.957	1	47
448.127	1	52
448.298	1	57
448.468	1	41
448.639	1	44
448.809	1	61
448.979	1	41
449.150	1	42
449.320	1	42
449.491	1	56
449.661	1	55
449.832	1	46
450.002	1	45
450.173	1	42
450.343	1	53
450.514	1	55
450.684	1	49
450.855	1	52
451.025	1	42
451.196	1	39
451.366	1	54
451.537	1	40
451.707	1	51
451.878	1	35
452.048	1	44
452.218	1	44
452.389	1	54
452.559	1	31
452.730	1	42
452.900	1	46
453.071	1	52
453.241	1	63
453.412	1	42
453.582	1	46
453.753	1	40
453.923	1	43
454.093	1	58
454.264	1	49
454.434	1	42
454.605	1	55
454.775	1	64
454.946	1	56
455.116	1	47
455.287	1	38
455.457	1	55
455.628	1	44
455.798	1	44
455.968	1	45
456.139	1	36
456.309	1	38
456.480	1	41
456.650	1	57
456.821	1	60
456.991	1	42
457.161	1	49
457.332	1	46
457.502	1	41
457.673	1	45
457.843	1	44
458.014	1	39
458.184	1	34
458.355	1	34
458.525	1	34
458.695	1	44
458.866	1	40
459.036	1	38
459.207	1	40
459.377	1	47
459.548	1	37
459.718	1	37
459.888	1	52
460.059	1	34
460.229	1	30
460.400	1	43
460.570	1	43
460.740	1	43
460.911	1	41
461.081	1	28
461.252	1	56
461.422	1	37
461.593	1	37
461.763	1	44
461.933	1	35
462.104	1	48
462.274	1	43
462.445	1	30
462.615	1	41
462.785	1	28
462.956	1	37
463.126	1	27
463.297	1	41
463.467	1	44
463.638	1	31
463.808	1	32
463.978	1	38
464.149	1	40
464.319	1	30
464.490	1	40
464.660	1	40
464.830	1	31
465.001	1	43
465.171	1	36
465.342	1	47
465.512	1	43
465.682	1	37
465.853	1	38
466.023	1	37
466.194	1	40
466.364	1	33
466.534	1	43
466.705	1	35
466.875	1	44
467.045	1	31
467.216	1	38
467.386	1	37
467.557	1	34
467.727	1	28
467.897	1	34
468.068	1	46
468.238	1	29
468.409	1	26
468.579	1	28
468.749	1	35
468.920	1	35
469.090	1	39
469.260	1	25
469.431	1	30
469.601	1	30
469.772	1	31
469.942	1	48
470.112	1	37
470.283	1	39
470.453	1	38
470.623	1	44
470.794	1	43
470.964	1	17
471.135	1	38
471.305	1	33
471.475	1	23
471.646	1	33
471.816	1	33
471.986	1	36
472.157	1	38
472.327	1	30
472.497	1	24
472.668	1	29
472.838	1	38
473.009	1	57
473.179	1	32
473.349	1	32
473.520	1	28
473.690	1	26
473.860	1	35
474.031	1	36
474.201	1	30
474.371	1	31
474.542	1	40
474.712	1	18
474.882	1	41
475.053	1	33
475.223	1	30
475.394	1	33
475.564	1	37
475.734	1	14
475.905	1	36
476.075	1	19
476.245	1	39
476.416	1	35
476.586	1	31
476.756	1	39
476.927	1	33
477.097	1	44
477.267	1	42
477.438	1	11
477.608	1	38
477.778	1	34
477.949	1	27
478.119	1	28
478.289	1	32
478.460	1	40
478.630	1	37
478.800	1	22
478.971	1	46
479.141	1	27
479.311	1	22
479.482	1	22
479.652	1	30
479.822	1	20
479.993	1	31
480.163	1	26
480.333	1	28
480.504	1	39
480.674	1	36
480.844	1	36
481.015	1	24
481.185	1	35
481.355	1	22
481.525	1	33
481.696	1	34
481.866	1	14
482.036	1	30
482.207	1	34
482.377	1	13
482.547	1	29
482.718	1	31
482.888	1	28
483.058	1	13
483.229	1	37
483.399	1	34
483.569	1	24
483.740	1	22
483.910	1	16
484.080	1	15
484.250	1	22
484.421	1	28
484.591	1	20
484.761	1	22
484.932	1	28
485.102	1	28
485.272	1	20
485.443	1	26
485.613	1	28
485.783	1	20
485.953	1	13
486.124	1	14
486.294	1	22
486.464	1	22
486.635	1	24
486.805	1	17
486.975	1	22
487.146	1	18
487.316	1	24
487.486	1	20
487.656	1	17
487.827	1	23
487.997	1	16
488.167	1	33
488.338	1	10
488.508	1	22
488.678	1	33
488.848	1	20
489.019	1	26
489.189	1	38
489.359	1	21
489.529	1	23
489.700	1	27
489.870	1	14
490.040	1	11
490.211	1	20
490.381	1	14
490.551	1	13
490.721	1	20
490.892	1	34
491.062	1	27
491.232	1	23
491.402	1	23
491.573	1	23
491.743	1	19
491.913	1	18
492.084	1	17
492.254	1	28
492.424	1	18
492.594	1	28
492.765	1	22
492.935	1	23
493.105	1	23
493.275	1	16
493.446	1	18
493.616	1	20
493.786	1	16
493.956	1	12
494.127	1	16
494.297	1	24
494.467	1	28
494.637	1	28
494.808	1	9
494.978	1	7
495.148	1	22
495.318	1	17
495.489	1	7
495.659	1	29
495.829	1	23
495.999	1	25
496.170	1	10
496.340	1	26
496.510	1	16
496.680	1	26
496.851	1	13
497.021	1	9
497.191	1	12
497.361	1	18
497.532	1	10
497.702	1	23
497.872	1	17
498.042	1	20
498.213	1	20
498.383	1	24
498.553	1	14
498.723	1	17
498.894	1	30
499.064	1	18
499.234	1	14
499.404	1	26
499.574	1	26
499.745	1	22
499.915	1	12
500.085	1	17
500.255	1	16
500.426	1	20
500.596	1	19
500.766	1	13
500.936	1	12
501.106	1	26
501.277	1	27
501.447	1	14
501.617	1	14
501.787	1	27
501.958	1	22
502.128	1	36
502.298	1	20
502.468	1	16
502.638	1	15
502.809	1	19
502.979	1	10
503.149	1	21
503.319	1	11
503.489	1	18
503.660	1	19
503.830	1	17
504.000	1	13
504.170	1	11
504.340	1	6
504.511	1	23
504.681	1	22
504.851	1	18
505.021	1	15
505.192	1	9
505.362	1	16
505.532	1	12
505.702	1	6
505.872	1	15
506.043	1	14
506.213	1	16
506.383	1	19
506.553	1	19
506.723	1	22
506.893	1	18
507.064	1	17
507.234	1	11
507.404	1	15
507.574	1	19
507.744	1	20
507.915	1	17
508.085	1	8
508.255	1	23
508.425	1	21
508.595	1	15
508.766	1	4
508.936	1	24
509.106	1	16
509.276	1	16
509.446	1	14
509.616	1	10
509.787	1	16
509.957	1	16
510.127	1	14
510.297	1	17
510.467	1	9
510.638	1	16
510.808	1	12
510.978	1	30
511.148	1	12
511.318	1	12
511.488	1	18
511.659	1	24
511.829	1	12
511.999	1	11
512.169	1	15
512.339	1	21
512.509	1	17
512.680	1	11
512.850	1	9
513.020	1	22
513.190	1	19
513.360	1	4
513.530	1	15
513.700	1	8
513.871	1	14
514.041	1	8
514.211	1	13
514.381	1	23
514.551	1	10
514.721	1	16
514.892	1	21
515.062	1	8
515.232	1	23
515.402	1	13
515.572	1	12
515.742	1	16
515.912	1	14
516.083	1	13
516.253	1	14
516.423	1	9
516.593	1	11
516.763	1	15
516.933	1	17
517.104	1	3
517.274	1	18
517.444	1	13
517.614	1	11
517.784	1	21
517.954	1	13
518.124	1	9
518.294	1	13
518.465	1	21
518.635	1	13
518.805	1	7
518.975	1	6
519.145	1	18
519.315	1	8
519.485	1	13
519.656	1	12
519.826	1	13
519.996	1	9
520.166	1	7
520.336	1	8
520.506	1	10
520.676	1	27
520.846	1	8
521.017	1	11
521.187	1	9
521.357	1	13
521.527	1	10
521.697	1	13
521.867	1	14
522.037	1	7
522.207	1	14
522.377	1	14
522.548	1	7
522.718	1	8
522.888	1	27
523.058	1	11
523.228	1	3
523.398	1	15
523.568	1	11
523.738	1	12
523.909	1	9
524.079	1	5
524.249	1	0
524.419	1	8
524.589	1	9
524.759	1	21
524.929	1	11
525.099	1	-1
525.269	1	-5
525.439	1	22
525.610	1	10
525.780	1	5
525.950	1	23
526.120	1	9
526.290	1	8
526.460	1	12
526.630	1	22
526.800	1	10
526.970	1	7
527.140	1	22
527.311	1	24
527.481	1	3
527.651	1	12
527.821	1	7
527.991	1	7
528.161	1	-3
528.331	1	13
528.501	1	2
528.671	1	23
528.841	1	21
529.011	1	19
529.181	1	11
529.352	1	17
529.522	1	14
529.692	1	4
529.862	1	11
530.032	1	1
530.202	1	17
530.372	1	18
530.542	1	0
530.712	1	29
530.882	1	17
531.052	1	12
531.222	1	7
531.392	1	9
531.563	1	10
531.733	1	6
531.903	1	13
532.073	1	10
532.243	1	9
532.413	1	11
532.583	1	8
532.753	1	10
532.923	1	7
533.093	1	3
533.263	1	6
533.433	1	9
533.603	1	6
533.773	1	11
533.943	1	7
534.113	1	16
534.284	1	0
534.454	1	7
534.624	1	16
534.794	1	15
534.964	1	16
535.134	1	12
535.304	1	20
535.474	1	14
535.644	1	22
535.814	1	17
535.984	1	9
536.154	1	11
536.324	1	2
536.494	1	7
536.664	1	9
536.834	1	19
537.004	1	11
537.174	1	3
537.344	1	15
537.514	1	7
537.685	1	15
537.855	1	0
538.025	1	8
538.195	1	10
538.365	1	9
538.535	1	6
538.705	1	4
538.875	1	13
539.045	1	12
539.215	1	12
539.385	1	7
539.555	1	4
539.725	1	-1
539.895	1	12
540.065	1	7
540.235	1	22
540.405	1	4
540.575	1	18
540.745	1	7
540.915	1	5
541.085	1	5
541.255	1	12
541.425	1	1
541.595	1	12
541.765	1	19
541.935	1	4
542.105	1	7
542.275	1	11
542.445	1	15
542.615	1	7
542.785	1	3
542.955	1	5
543.125	1	11
543.295	1	15
543.465	1	12
543.635	1	7
543.805	1	-1
543.975	1	8
544.145	1	14
544.315	1	-2
544.485	1	9
544.655	1	6
544.825	1	6
544.995	1	12
545.165	1	12
545.335	1	-3
545.505	1	9
545.675	1	-2
545.845	1	8
546.015	1	-1
546.185	1	6
546.355	1	8
546.525	1	1
546.695	1	7
546.865	1	8
547.035	1	7
547.205	1	10
547.375	1	4
547.545	1	-2
547.715	1	13
547.885	1	6
548.055	1	16
548.225	1	12
548.395	1	-6
548.565	1	16
548.735	1	6
548.905	1	6
549.075	1	6
549.245	1	14
549.415	1	-6
549.585	1	6
549.755	1	10
549.925	1	4
550.095	1	9
550.265	1	20
550.435	1	6
550.605	1	8
550.775	1	3
550.945	1	3
551.115	1	7
551.285	1	12
551.455	1	0
551.625	1	5
551.795	1	1
551.965	1	5
552.135	1	4
552.305	1	4
552.475	1	5
552.645	1	7
552.815	1	6
552.985	1	9
553.155	1	12
553.325	1	1
553.495	1	1
553.665	1	2
553.835	1	12
554.004	1	17
554.174	1	7
554.344	1	12
554.514	1	4
554.684	1	8
554.854	1	6
555.024	1	1
555.194	1	8
555.364	1	13
555.534	1	1
555.704	1	12
555.874	1	8
556.044	1	12
556.214	1	13
556.384	1	3
556.554	1	4
556.724	1	4
556.894	1	5
557.064	1	9
557.234	1	7
557.404	1	2
557.573	1	3
557.743	1	9
557.913	1	15
558.083	1	7
558.253	1	0
558.423	1	2
558.593	1	-2
558.763	1	15
558.933	1	0
559.103	1	12
559.273	1	1
559.443	1	2
559.613	1	5
559.783	1	8
559.953	1	6
560.122	1	8
560.292	1	16
560.462	1	6
560.632	1	-4
560.802	1	4
560.972	1	3
561.142	1	6
561.312	1	10
561.482	1	13
561.652	1	7
561.822	1	-3
561.992	1	3
562.162	1	9
562.331	1	10
562.501	1	-3
562.671	1	9
562.841	1	-8
563.011	1	14
563.181	1	11
563.351	1	10
563.521	1	5
563.691	1	13
563.861	1	14
564.031	1	6
564.201	1	9
564.370	1	3
564.540	1	8
564.710	1	11
564.880	1	10
565.050	1	13
565.220	1	7
565.390	1	4
565.560	1	20
565.730	1	2
565.900	1	8
566.069	1	7
566.239	1	10
566.409	1	-2
566.579	1	13
566.749	1	-2
566.919	1	5
567.089	1	9
567.259	1	7
567.429	1	4
567.599	1	10
567.768	1	2
567.938	1	2
568.108	1	9
568.278	1	13
568.448	1	9
568.618	1	8
568.788	1	3
568.958	1	0
569.128	1	12
569.297	1	0
569.467	1	-2
569.637	1	16
569.807	1	14
569.977	1	6
570.147	1	9
570.317	1	7
570.487	1	-1
570.656	1	0
570.826	1	11
570.996	1	-5
571.166	1	12
571.336	1	2
571.506	1	10
571.676	1	21
571.846	1	16
572.015	1	6
572.185	1	-1
572.355	1	7
572.525	1	-2
572.695	1	4
572.865	1	-2
573.035	1	16
573.205	1	14
573.374	1	8
573.544	1	16
573.714	1	8
573.884	1	6
574.054	1	8
574.224	1	9
574.394	1	3
574.563	1	9
574.733	1	6
574.903	1	9
575.073	1	1
575.243	1	4
575.413	1	6
575.583	1	7
575.752	1	2
575.922	1	-4
576.092	1	-3
576.262	1	-1
576.432	1	8
576.602	1	-3
576.772	1	8
576.941	1	13
577.111	1	6
577.281	1	5
577.451	1	12
577.621	1	7
577.791	1	3
577.960	1	1
578.130	1	7
578.300	1	6
578.470	1	4
578.640	1	13
578.810	1	12
578.979	1	0
579.149	1	6
579.319	1	7
579.489	1	-2
579.659	1	-1
579.829	1	7
579.998	1	2
580.168	1	6
580.338	1	5
580.508	1	18
580.678	1	7
580.848	1	12
581.017	1	19
581.187	1	1
581.357	1	4
581.527	1	6
581.697	1	8
581.867	1	-1
582.036	1	-3
582.206	1	8
582.376	1	4
582.546	1	3
582.716	1	3
582.885	1	0
583.055	1	8
583.225	1	6
583.395	1	12
583.565	1	15
583.735	1	9
583.904	1	5
584.074	1	-7
584.244	1	-1
584.414	1	3
584.584	1	3
584.753	1	12
584.923	1	10
585.093	1	14
585.263	1	5
585.433	1	8
585.602	1	11
585.772	1	-4
585.942	1	7
586.112	1	6
586.282	1	10
586.451	1	15
586.621	1	13
586.791	1	4
586.961	1	4
587.131	1	-3
587.300	1	0
587.470	1	0
587.640	1	11
587.810	1	18
587.980	1	1
588.149	1	10
588.319	1	12
588.489	1	3
588.659	1	2
588.829	1	12
588.998	1	3
589.168	1	10
589.338	1	5
589.508	1	10
589.677	1	6
589.847	1	13
590.017	1	8
590.187	1	12
590.357	1	11
590.526	1	-1
590.696	1	2
590.866	1	6
591.036	1	14
591.205	1	16
591.375	1	4
591.545	1	19
591.715	1	9
591.885	1	15
592.054	1	7
592.224	1	9
592.394	1	3
592.564	1	5
592.733	1	-7
592.903	1	-2
593.073	1	6
593.243	1	17
593.412	1	6
593.582	1	6
593.752	1	5
593.922	1	3
594.091	1	4
594.261	1	2
594.431	1	14
594.601	1	-1
594.771	1	6
594.940	1	13
595.110	1	8
595.280	1	3
595.450	1	11
595.619	1	0
595.789	1	6
595.959	1	5
596.129	1	5
596.298	1	9
596.468	1	-1
596.638	1	2
596.808	1	7
596.977	1	5
597.147	1	-1
597.317	1	1
597.487	1	10
597.656	1	2
597.826	1	17
597.996	1	3
598.166	1	10
598.335	1	14
598.505	1	12
598.675	1	2
598.844	1	-2
599.014	1	12
599.184	1	8
599.354	1	12
599.523	1	6
599.693	1	16
599.863	1	7
600.033	1	1
600.202	1	8
600.372	1	9
600.542	1	6
600.712	1	13
600.881	1	3
601.051	1	5
601.221	1	18
601.390	1	-12
601.560	1	15
601.730	1	5
601.900	1	5
602.069	1	9
602.239	1	11
602.409	1	5
602.578	1	2
602.748	1	5
602.918	1	7
603.088	1	11
603.257	1	7
603.427	1	3
603.597	1	2
603.767	1	10
603.936	1	4
604.106	1	9
604.276	1	13
604.445	1	11
604.615	1	6
604.785	1	9
604.954	1	16
605.124	1	-1
605.294	1	10
605.464	1	13
605.633	1	9
605.803	1	5
605.973	1	13
606.142	1	13
606.312	1	2
606.482	1	7
606.652	1	3
606.821	1	0
606.991	1	4
607.161	1	-4
607.330	1	5
607.500	1	14
607.670	1	16
607.839	1	17
608.009	1	14
608.179	1	4
608.348	1	7
608.518	1	7
608.688	1	-2
608.858	1	17
609.027	1	16
609.197	1	5
609.367	1	16
609.536	1	6
609.706	1	11
609.876	1	15
610.045	1	6
610.215	1	8
610.385	1	-7
610.554	1	-3
610.724	1	-1
610.894	1	8
611.063	1	0
611.233	1	10
611.403	1	12
611.572	1	12
611.742	1	4
611.912	1	4
612.081	1	-1
612.251	1	13
612.421	1	9
612.590	1	1
612.760	1	19
612.930	1	4
613.099	1	4
613.269	1	3
613.439	1	5
613.608	1	9
613.778	1	1
613.948	1	5
614.117	1	13
614.287	1	14
614.457	1	-1
614.626	1	7
614.796	1	6
614.966	1	9
615.135	1	6
615.305	1	19
615.475	1	5
615.644	1	4
615.814	1	3
615.984	1	13
616.153	1	13
616.323	1	8
616.493	1	21
616.662	1	12
616.832	1	7
617.002	1	5
617.171	1	-3
617.341	1	17
617.511	1	12
617.680	1	15
617.850	1	8
618.019	1	14
618.189	1	14
618.359	1	3
618.528	1	9
618.698	1	12
618.868	1	-2
619.037	1	8
619.207	1	14
619.377	1	4
619.546	1	5
619.716	1	12
619.885	1	15
620.055	1	10
620.225	1	7
620.394	1	4
620.564	1	14
620.734	1	4
620.903	1	14
621.073	1	4
621.242	1	18
621.412	1	9
621.582	1	9
621.751	1	11
621.921	1	4
622.091	1	5
622.260	1	1
622.430	1	9
622.599	1	4
622.769	1	15
622.939	1	13
623.108	1	12
623.278	1	16
623.448	1	19
623.617	1	10
623.787	1	11
623.956	1	18
624.126	1	10
624.296	1	8
624.465	1	14
624.635	1	21
624.804	1	3
624.974	1	23
625.144	1	5
625.313	1	4
625.483	1	24
625.652	1	15
625.822	1	6
625.992	1	23
626.161	1	16
626.331	1	4
626.501	1	16
626.670	1	15
626.840	1	18
627.009	1	16
627.179	1	17
627.348	1	10
627.518	1	12
627.688	1	10
627.857	1	19
628.027	1	0
628.196	1	10
628.366	1	11
628.536	1	7
628.705	1	0
628.875	1	22
629.044	1	2
629.214	1	14
629.384	1	17
629.553	1	11
629.723	1	9
629.892	1	15
630.062	1	7
630.232	1	0
630.401	1	20
630.571	1	3
630.740	1	10
630.910	1	17
631.079	1	9
631.249	1	11
631.419	1	-1
631.588	1	6
631.758	1	17
631.927	1	15
632.097	1	10
632.266	1	14
632.436	1	9
632.606	1	9
632.775	1	13
632.945	1	25
633.114	1	8
633.284	1	11
633.453	1	0
633.623	1	9
633.793	1	3
633.962	1	11
634.132	1	12
634.301	1	6
634.471	1	9
634.640	1	16
634.810	1	20
634.979	1	11
635.149	1	14
635.319	1	12
635.488	1	18
635.658	1	10
635.827	1	15
635.997	1	9
636.166	1	13
636.336	1	13
636.505	1	14
636.675	1	15
636.845	1	8
637.014	1	15
637.184	1	12
637.353	1	12
637.523	1	12
637.692	1	14
637.862	1	17
638.031	1	9
638.201	1	19
638.370	1	3
638.540	1	9
638.710	1	13
638.879	1	7
639.049	1	16
639.218	1	16
639.388	1	7
639.557	1	21
639.727	1	11
639.896	1	14
640.066	1	17
640.235	1	13
640.405	1	10
640.574	1	16
640.744	1	18
640.914	1	13
641.083	1	13
641.253	1	27
641.422	1	7
641.592	1	-1
641.761	1	6
641.931	1	9
642.100	1	10
642.270	1	15
642.439	1	9
642.609	1	12
642.778	1	14
642.948	1	8
643.117	1	24
643.287	1	6
643.456	1	16
643.626	1	22
643.795	1	15
643.965	1	8
644.134	1	20
644.304	1	24
644.473	1	19
644.643	1	17
644.812	1	22
644.982	1	19
645.151	1	20
645.321	1	17
645.490	1	9
645.660	1	-4
645.829	1	13
645.999	1	15
646.168	1	1
646.338	1	19
646.507	1	17
646.677	1	10
646.846	1	11
647.016	1	19
647.185	1	12
647.355	1	-1
647.524	1	21
647.694	1	10
647.863	1	15
648.033	1	7
648.202	1	18
648.372	1	18
648.541	1	11
648.711	1	11
648.880	1	16
649.050	1	7
649.219	1	8
649.389	1	12
649.558	1	5
649.728	1	3
649.897	1	20
650.067	1	14
650.236	1	18
650.406	1	9
650.575	1	20
650.745	1	15
650.914	1	12
651.084	1	10
651.253	1	15
651.423	1	19
651.592	1	4
651.762	1	18
651.931	1	8
652.101	1	17
652.270	1	19
652.440	1	17
652.609	1	16
652.778	1	-3
652.948	1	11
653.117	1	4
653.287	1	19
653.456	1	11
653.626	1	1
653.795	1	13
653.965	1	14
654.134	1	14
654.304	1	13
654.473	1	20
654.643	1	4
654.812	1	11
654.982	1	0
655.151	1	7
655.320	1	17
655.490	1	17
655.659	1	5
655.829	1	15
655.998	1	10
656.168	1	17
656.337	1	16
656.507	1	6
656.676	1	9
656.846	1	-7
657.015	1	16
657.184	1	14
657.354	1	16
657.523	1	13
657.693	1	14
657.862	1	14
658.032	1	11
658.201	1	10
658.371	1	1
658.540	1	2
658.709	1	8
658.879	1	1
659.048	1	14
659.218	1	13
659.387	1	11
659.557	1	13
659.726	1	20
659.895	1	11
660.065	1	3
660.234	1	6
660.404	1	17
660.573	1	15
660.743	1	19
660.912	1	7
661.081	1	17
661.251	1	11
661.420	1	8
661.590	1	10
661.759	1	11
661.929	1	17
662.098	1	6
662.267	1	9
662.437	1	18
662.606	1	16
662.776	1	13
662.945	1	5
663.115	1	16
663.284	1	24
663.453	1	6
663.623	1	15
663.792	1	13
663.962	1	12
664.131	1	11
664.300	1	13
664.470	1	8
664.639	1	6
664.809	1	9
664.978	1	8
665.148	1	18
665.317	1	10
665.486	1	14
665.656	1	9
665.825	1	2
665.995	1	7
666.164	1	8
666.333	1	9
666.503	1	16
666.672	1	19
666.842	1	3
667.011	1	12
667.180	1	14
667.350	1	16
667.519	1	17
667.689	1	5
667.858	1	18
668.027	1	19
668.197	1	17
668.366	1	6
668.536	1	16
668.705	1	20
668.874	1	10
669.044	1	10
669.213	1	18
669.382	1	12
669.552	1	16
669.721	1	22
669.891	1	13
670.060	1	17
670.229	1	12
670.399	1	14
670.568	1	10
670.738	1	12
670.907	1	13
671.076	1	13
671.246	1	21
671.415	1	25
671.584	1	11
671.754	1	14
671.923	1	10
672.093	1	16
672.262	1	6
672.431	1	4
672.601	1	11
672.770	1	19
672.939	1	9
673.109	1	8
673.278	1	17
673.448	1	8
673.617	1	5
673.786	1	11
