325.333	1	8
325.504	1	11
325.675	1	16
325.846	1	15
326.017	1	18
326.188	1	19
326.359	1	17
326.531	1	17
326.702	1	18
326.873	1	22
327.044	1	21
327.215	1	6
327.386	1	16
327.557	1	14
327.728	1	16
327.899	1	21
328.070	1	21
328.241	1	14
328.412	1	12
328.583	1	10
328.754	1	12
328.926	1	8
329.097	1	8
329.268	1	11
329.439	1	17
329.610	1	14
329.781	1	6
329.952	1	14
330.123	1	21
330.294	1	5
330.465	1	8
330.636	1	18
330.807	1	5
330.978	1	-1
331.149	1	25
331.320	1	20
331.492	1	22
331.663	1	9
331.834	1	17
332.005	1	13
332.176	1	14
332.347	1	20
332.518	1	10
332.689	1	13
332.860	1	14
333.031	1	16
333.202	1	14
333.373	1	21
333.544	1	11
333.715	1	23
333.886	1	13
334.057	1	16
334.228	1	15
334.399	1	20
334.570	1	19
334.741	1	10
334.912	1	22
335.084	1	12
335.255	1	17
335.426	1	6
335.597	1	26
335.768	1	26
335.939	1	19
336.110	1	9
336.281	1	19
336.452	1	19
336.623	1	17
336.794	1	22
336.965	1	9
337.136	1	9
337.307	1	14
337.478	1	15
337.649	1	18
337.820	1	13
337.991	1	21
338.162	1	19
338.333	1	11
338.504	1	22
338.675	1	11
338.846	1	22
339.017	1	14
339.188	1	15
339.359	1	19
339.530	1	12
339.701	1	17
339.872	1	18
340.043	1	5
340.214	1	11
340.385	1	22
340.556	1	22
340.727	1	30
340.898	1	19
341.069	1	18
341.240	1	30
341.411	1	15
341.582	1	21
341.753	1	21
341.924	1	12
342.095	1	14
342.266	1	15
342.437	1	29
342.608	1	34
342.779	1	14
342.950	1	18
343.121	1	20
343.292	1	20
343.463	1	17
343.634	1	19
343.805	1	18
343.976	1	22
344.147	1	19
344.318	1	15
344.489	1	31
344.660	1	27
344.831	1	27
345.002	1	38
345.173	1	12
345.344	1	27
345.515	1	14
345.686	1	28
345.857	1	13
346.028	1	27
346.199	1	24
346.370	1	27
346.541	1	6
346.712	1	35
346.883	1	24
347.054	1	26
347.225	1	34
347.396	1	14
347.567	1	24
347.738	1	20
347.909	1	24
348.080	1	20
348.251	1	17
348.422	1	25
348.593	1	8
348.764	1	22
348.935	1	19
349.106	1	27
349.277	1	19
349.448	1	24
349.619	1	10
349.790	1	27
349.961	1	26
350.132	1	29
350.303	1	28
350.474	1	19
350.645	1	25
350.816	1	15
350.987	1	23
351.157	1	27
351.328	1	28
351.499	1	26
351.670	1	19
351.841	1	24
352.012	1	27
352.183	1	19
352.354	1	13
352.525	1	32
352.696	1	36
352.867	1	24
353.038	1	16
353.209	1	20
353.380	1	22
353.551	1	13
353.722	1	24
353.893	1	15
354.064	1	32
354.235	1	24
354.406	1	27
354.576	1	37
354.747	1	30
354.918	1	29
355.089	1	37
355.260	1	38
355.431	1	19
355.602	1	29
355.773	1	26
355.944	1	12
356.115	1	35
356.286	1	32
356.457	1	20
356.628	1	17
356.799	1	32
356.970	1	28
357.141	1	14
357.311	1	37
357.482	1	23
357.653	1	26
357.824	1	33
357.995	1	16
358.166	1	15
358.337	1	19
358.508	1	20
358.679	1	25
358.850	1	26
359.021	1	27
359.192	1	35
359.363	1	35
359.533	1	14
359.704	1	43
359.875	1	39
360.046	1	21
360.217	1	25
360.388	1	26
360.559	1	19
360.730	1	18
360.901	1	28
361.072	1	29
361.243	1	20
361.414	1	29
361.584	1	15
361.755	1	21
361.926	1	27
362.097	1	25
362.268	1	20
362.439	1	21
362.610	1	18
362.781	1	20
362.952	1	29
363.123	1	19
363.293	1	24
363.464	1	36
363.635	1	31
363.806	1	25
363.977	1	27
364.148	1	15
364.319	1	21
364.490	1	24
364.661	1	29
364.832	1	31
365.002	1	31
365.173	1	27
365.344	1	32
365.515	1	11
365.686	1	24
365.857	1	22
366.028	1	23
366.199	1	24
366.370	1	31
366.540	1	15
366.711	1	20
366.882	1	22
367.053	1	25
367.224	1	28
367.395	1	32
367.566	1	18
367.737	1	19
367.908	1	26
368.078	1	27
368.249	1	23
368.420	1	31
368.591	1	29
368.762	1	26
368.933	1	23
369.104	1	36
369.274	1	29
369.445	1	36
369.616	1	24
369.787	1	40
369.958	1	32
370.129	1	13
370.300	1	34
370.471	1	33
370.641	1	24
370.812	1	42
370.983	1	20
371.154	1	15
371.325	1	29
371.496	1	21
371.667	1	31
371.837	1	40
372.008	1	13
372.179	1	22
372.350	1	20
372.521	1	31
372.692	1	38
372.863	1	21
373.033	1	30
373.204	1	24
373.375	1	20
373.546	1	29
373.717	1	20
373.888	1	37
374.059	1	30
374.229	1	18
374.400	1	36
374.571	1	38
374.742	1	27
374.913	1	26
375.084	1	27
375.254	1	32
375.425	1	18
375.596	1	27
375.767	1	23
375.938	1	18
376.109	1	33
376.279	1	24
376.450	1	39
376.621	1	38
376.792	1	29
376.963	1	23
377.134	1	37
377.304	1	35
377.475	1	33
377.646	1	31
377.817	1	27
377.988	1	23
378.159	1	40
378.329	1	39
378.500	1	26
378.671	1	36
378.842	1	34
379.013	1	33
379.184	1	37
379.354	1	27
379.525	1	30
379.696	1	37
379.867	1	39
380.038	1	37
380.209	1	31
380.379	1	37
380.550	1	40
380.721	1	31
380.892	1	28
381.063	1	43
381.233	1	46
381.404	1	41
381.575	1	39
381.746	1	40
381.917	1	37
382.087	1	40
382.258	1	46
382.429	1	37
382.600	1	38
382.771	1	35
382.941	1	47
383.112	1	33
383.283	1	45
383.454	1	33
383.625	1	26
383.795	1	40
383.966	1	39
384.137	1	50
384.308	1	35
384.479	1	31
384.649	1	36
384.820	1	46
384.991	1	22
385.162	1	37
385.333	1	43
385.503	1	31
385.674	1	23
385.845	1	38
386.016	1	41
386.187	1	33
386.357	1	37
386.528	1	29
386.699	1	41
386.870	1	27
387.041	1	47
387.211	1	34
387.382	1	36
387.553	1	45
387.724	1	43
387.894	1	41
388.065	1	37
388.236	1	44
388.407	1	42
388.578	1	35
388.748	1	38
388.919	1	34
389.090	1	41
389.261	1	44
389.431	1	45
389.602	1	61
389.773	1	57
389.944	1	53
390.114	1	41
390.285	1	38
390.456	1	30
390.627	1	44
390.798	1	40
390.968	1	49
391.139	1	39
391.310	1	42
391.481	1	44
391.651	1	63
391.822	1	45
391.993	1	43
392.164	1	41
392.334	1	42
392.505	1	48
392.676	1	47
392.847	1	54
393.017	1	45
393.188	1	53
393.359	1	34
393.530	1	57
393.700	1	30
393.871	1	45
394.042	1	39
394.213	1	40
394.383	1	40
394.554	1	51
394.725	1	43
394.896	1	41
395.066	1	43
395.237	1	49
395.408	1	55
395.579	1	35
395.749	1	48
395.920	1	41
396.091	1	52
396.262	1	39
396.432	1	46
396.603	1	44
396.774	1	48
396.945	1	49
397.115	1	37
397.286	1	42
397.457	1	35
397.627	1	49
397.798	1	51
397.969	1	49
398.140	1	54
398.310	1	39
398.481	1	48
398.652	1	36
398.823	1	51
398.993	1	52
399.164	1	52
399.335	1	48
399.505	1	44
399.676	1	48
399.847	1	53
400.018	1	52
400.188	1	45
400.359	1	57
400.530	1	46
400.700	1	49
400.871	1	46
401.042	1	48
401.213	1	46
401.383	1	47
401.554	1	50
401.725	1	49
401.895	1	50
402.066	1	56
402.237	1	65
402.408	1	54
402.578	1	46
402.749	1	45
402.920	1	53
403.090	1	39
403.261	1	55
403.432	1	43
403.603	1	61
403.773	1	60
403.944	1	50
404.115	1	47
404.285	1	59
404.456	1	42
404.627	1	53
404.797	1	49
404.968	1	60
405.139	1	48
405.310	1	66
405.480	1	54
405.651	1	48
405.822	1	48
405.992	1	44
406.163	1	61
406.334	1	48
406.504	1	58
406.675	1	68
406.846	1	64
407.016	1	51
407.187	1	45
407.358	1	65
407.528	1	46
407.699	1	47
407.870	1	65
408.041	1	64
408.211	1	52
408.382	1	62
408.553	1	59
408.723	1	60
408.894	1	54
409.065	1	53
409.235	1	46
409.406	1	60
409.577	1	51
409.747	1	55
409.918	1	62
410.089	1	64
410.259	1	47
410.430	1	64
410.601	1	50
410.771	1	62
410.942	1	55
411.113	1	54
411.283	1	52
411.454	1	63
411.625	1	66
411.795	1	46
411.966	1	67
412.137	1	60
412.307	1	56
412.478	1	60
412.649	1	58
412.819	1	45
412.990	1	51
413.161	1	61
413.331	1	51
413.502	1	63
413.672	1	61
413.843	1	60
414.014	1	72
414.184	1	54
414.355	1	57
414.526	1	59
414.696	1	64
414.867	1	61
415.038	1	48
415.208	1	64
415.379	1	62
415.550	1	62
415.720	1	49
415.891	1	63
416.062	1	53
416.232	1	44
416.403	1	55
416.573	1	60
416.744	1	59
416.915	1	62
417.085	1	52
417.256	1	56
417.427	1	52
417.597	1	67
417.768	1	63
417.939	1	54
418.109	1	48
418.280	1	54
418.450	1	56
418.621	1	62
418.792	1	49
418.962	1	54
419.133	1	53
419.304	1	53
419.474	1	56
419.645	1	61
419.815	1	47
419.986	1	70
420.157	1	59
420.327	1	54
420.498	1	60
420.669	1	53
420.839	1	52
421.010	1	54
421.180	1	50
421.351	1	68
421.522	1	56
421.692	1	67
421.863	1	54
422.033	1	42
422.204	1	63
422.375	1	50
422.545	1	59
422.716	1	65
422.886	1	42
423.057	1	63
423.228	1	66
423.398	1	64
423.569	1	62
423.740	1	54
423.910	1	71
424.081	1	62
424.251	1	53
424.422	1	55
424.593	1	62
424.763	1	64
424.934	1	63
425.104	1	60
425.275	1	55
425.445	1	56
425.616	1	64
425.787	1	59
425.957	1	63
426.128	1	60
426.298	1	65
426.469	1	57
426.640	1	48
426.810	1	68
426.981	1	73
427.151	1	64
427.322	1	63
427.493	1	62
427.663	1	64
427.834	1	48
428.004	1	41
428.175	1	69
428.345	1	59
428.516	1	56
428.687	1	51
428.857	1	52
429.028	1	56
429.198	1	58
429.369	1	57
429.540	1	47
429.710	1	54
429.881	1	45
430.051	1	65
430.222	1	46
430.392	1	51
430.563	1	62
430.734	1	68
430.904	1	56
431.075	1	52
431.245	1	55
431.416	1	52
431.586	1	48
431.757	1	65
431.927	1	63
432.098	1	48
432.269	1	62
432.439	1	61
432.610	1	55
432.780	1	51
432.951	1	59
433.121	1	56
433.292	1	43
433.462	1	47
433.633	1	54
433.804	1	49
433.974	1	49
434.145	1	44
434.315	1	60
434.486	1	67
434.656	1	66
434.827	1	54
434.997	1	49
435.168	1	61
435.339	1	49
435.509	1	50
435.680	1	55
435.850	1	46
436.021	1	61
436.191	1	59
436.362	1	57
436.532	1	59
436.703	1	49
436.873	1	60
437.044	1	55
437.214	1	44
437.385	1	57
437.556	1	52
437.726	1	60
437.897	1	62
438.067	1	54
438.238	1	43
438.408	1	57
438.579	1	53
438.749	1	57
438.920	1	52
439.090	1	48
439.261	1	58
439.431	1	53
439.602	1	48
439.772	1	52
439.943	1	50
440.113	1	57
440.284	1	46
440.455	1	51
440.625	1	65
440.796	1	63
440.966	1	41
441.137	1	42
441.307	1	46
441.478	1	65
441.648	1	52
441.819	1	66
441.989	1	70
442.160	1	48
442.330	1	54
442.501	1	43
442.671	1	46
442.842	1	62
443.012	1	51
443.183	1	53
443.353	1	58
443.524	1	44
443.694	1	46
443.865	1	65
444.035	1	53
444.206	1	51
444.376	1	52
444.547	1	56
444.717	1	39
444.888	1	44
445.058	1	53
445.229	1	34
445.399	1	45
445.570	1	40
445.740	1	42
445.911	1	57
446.081	1	52
446.252	1	55
446.422	1	43
446.593	1	41
446.763	1	38
446.934	1	54
447.104	1	53
447.275	1	49
447.445	1	50
447.616	1	55
447.786	1	53
447.957	1	49
448.127	1	51
448.298	1	49
448.468	1	42
448.639	1	50
448.809	1	50
448.979	1	39
449.150	1	40
449.320	1	51
449.491	1	49
449.661	1	62
449.832	1	47
450.002	1	54
450.173	1	36
450.343	1	47
450.514	1	50
450.684	1	41
450.855	1	57
451.025	1	48
451.196	1	48
451.366	1	51
451.537	1	49
451.707	1	49
451.878	1	41
452.048	1	41
452.218	1	44
452.389	1	47
452.559	1	47
452.730	1	39
452.900	1	56
453.071	1	43
453.241	1	48
453.412	1	44
453.582	1	43
453.753	1	39
453.923	1	45
454.093	1	51
454.264	1	59
454.434	1	55
454.605	1	55
454.775	1	46
454.946	1	63
455.116	1	53
455.287	1	41
455.457	1	37
455.628	1	45
455.798	1	61
455.968	1	43
456.139	1	34
456.309	1	41
456.480	1	50
456.650	1	50
456.821	1	50
456.991	1	45
457.161	1	45
457.332	1	35
457.502	1	39
457.673	1	39
457.843	1	48
458.014	1	41
458.184	1	39
458.355	1	42
458.525	1	33
458.695	1	37
458.866	1	37
459.036	1	43
459.207	1	43
459.377	1	47
459.548	1	39
459.718	1	32
459.888	1	45
460.059	1	41
460.229	1	34
460.400	1	56
460.570	1	37
460.740	1	41
460.911	1	33
461.081	1	42
461.252	1	51
461.422	1	38
461.593	1	25
461.763	1	33
461.933	1	35
462.104	1	46
462.274	1	37
462.445	1	34
462.615	1	39
462.785	1	27
462.956	1	31
463.126	1	31
463.297	1	37
463.467	1	45
463.638	1	26
463.808	1	27
463.978	1	29
464.149	1	51
464.319	1	35
464.490	1	43
464.660	1	40
464.830	1	33
465.001	1	58
465.171	1	39
465.342	1	45
465.512	1	34
465.682	1	45
465.853	1	34
466.023	1	46
466.194	1	47
466.364	1	51
466.534	1	37
466.705	1	39
466.875	1	32
467.045	1	26
467.216	1	34
467.386	1	38
467.557	1	28
467.727	1	27
467.897	1	28
468.068	1	47
468.238	1	41
468.409	1	38
468.579	1	27
468.749	1	33
468.920	1	24
469.090	1	41
469.260	1	24
469.431	1	33
469.601	1	37
469.772	1	28
469.942	1	47
470.112	1	40
470.283	1	40
470.453	1	32
470.623	1	34
470.794	1	40
470.964	1	27
471.135	1	26
471.305	1	37
471.475	1	28
471.646	1	29
471.816	1	40
471.986	1	30
472.157	1	41
472.327	1	25
472.497	1	25
472.668	1	29
472.838	1	36
473.009	1	39
473.179	1	36
473.349	1	26
473.520	1	35
473.690	1	34
473.860	1	26
474.031	1	35
474.201	1	43
474.371	1	21
474.542	1	38
474.712	1	26
474.882	1	39
475.053	1	32
475.223	1	33
475.394	1	41
475.564	1	16
475.734	1	28
475.905	1	33
476.075	1	31
476.245	1	40
476.416	1	31
476.586	1	30
476.756	1	29
476.927	1	33
477.097	1	35
477.267	1	28
477.438	1	17
477.608	1	39
477.778	1	31
477.949	1	28
478.119	1	26
478.289	1	35
478.460	1	35
478.630	1	17
478.800	1	34
478.971	1	31
479.141	1	22
479.311	1	32
479.482	1	17
479.652	1	17
479.822	1	32
479.993	1	30
480.163	1	31
480.333	1	24
480.504	1	35
480.674	1	33
480.844	1	29
481.015	1	29
481.185	1	34
481.355	1	9
481.525	1	30
481.696	1	32
481.866	1	21
482.036	1	26
482.207	1	19
482.377	1	20
482.547	1	28
482.718	1	12
482.888	1	24
483.058	1	30
483.229	1	18
483.399	1	25
483.569	1	30
483.740	1	24
483.910	1	12
484.080	1	25
484.250	1	26
484.421	1	32
484.591	1	19
484.761	1	21
484.932	1	30
485.102	1	22
485.272	1	16
485.443	1	20
485.613	1	22
485.783	1	18
485.953	1	21
486.124	1	16
486.294	1	26
486.464	1	30
486.635	1	20
486.805	1	10
486.975	1	21
487.146	1	15
487.316	1	21
487.486	1	20
487.656	1	17
487.827	1	29
487.997	1	28
488.167	1	30
488.338	1	13
488.508	1	32
488.678	1	17
488.848	1	27
489.019	1	26
489.189	1	19
489.359	1	21
489.529	1	8
489.700	1	12
489.870	1	13
490.040	1	13
490.211	1	23
490.381	1	18
490.551	1	9
490.721	1	19
490.892	1	28
491.062	1	29
491.232	1	17
491.402	1	21
491.573	1	26
491.743	1	17
491.913	1	17
492.084	1	13
492.254	1	30
492.424	1	9
492.594	1	24
492.765	1	11
492.935	1	26
493.105	1	21
493.275	1	18
493.446	1	22
493.616	1	28
493.786	1	24
493.956	1	16
494.127	1	19
494.297	1	23
494.467	1	26
494.637	1	28
494.808	1	15
494.978	1	16
495.148	1	23
495.318	1	3
495.489	1	18
495.659	1	26
495.829	1	21
495.999	1	25
496.170	1	18
496.340	1	23
496.510	1	9
496.680	1	17
496.851	1	16
497.021	1	11
497.191	1	19
497.361	1	21
497.532	1	7
497.702	1	23
497.872	1	21
498.042	1	19
498.213	1	20
498.383	1	19
498.553	1	8
498.723	1	7
498.894	1	15
499.064	1	19
499.234	1	18
499.404	1	22
499.574	1	25
499.745	1	17
499.915	1	16
500.085	1	17
500.255	1	18
500.426	1	9
500.596	1	30
500.766	1	19
500.936	1	23
501.106	1	20
501.277	1	19
501.447	1	9
501.617	1	12
501.787	1	23
501.958	1	22
502.128	1	19
502.298	1	22
502.468	1	17
502.638	1	9
502.809	1	5
502.979	1	2
503.149	1	14
503.319	1	16
503.489	1	13
503.660	1	19
503.830	1	8
504.000	1	23
504.170	1	12
504.340	1	15
504.511	1	27
504.681	1	35
504.851	1	27
505.021	1	12
505.192	1	21
505.362	1	12
505.532	1	10
505.702	1	7
505.872	1	25
506.043	1	7
506.213	1	20
506.383	1	24
506.553	1	12
506.723	1	22
506.893	1	13
507.064	1	12
507.234	1	21
507.404	1	22
507.574	1	22
507.744	1	10
507.915	1	13
508.085	1	0
508.255	1	19
508.425	1	20
508.595	1	17
508.766	1	2
508.936	1	19
509.106	1	13
509.276	1	10
509.446	1	9
509.616	1	15
509.787	1	17
509.957	1	7
510.127	1	15
510.297	1	17
510.467	1	10
510.638	1	12
510.808	1	13
510.978	1	11
511.148	1	19
511.318	1	16
511.488	1	16
511.659	1	19
511.829	1	14
511.999	1	11
512.169	1	10
512.339	1	19
512.509	1	15
512.680	1	-3
512.850	1	7
513.020	1	21
513.190	1	11
513.360	1	7
513.530	1	17
513.700	1	6
513.871	1	19
514.041	1	10
514.211	1	1
514.381	1	24
514.551	1	-1
514.721	1	13
514.892	1	11
515.062	1	24
515.232	1	15
515.402	1	23
515.572	1	19
515.742	1	21
515.912	1	5
516.083	1	9
516.253	1	14
516.423	1	10
516.593	1	11
516.763	1	23
516.933	1	22
517.104	1	13
517.274	1	21
517.444	1	12
517.614	1	7
517.784	1	11
517.954	1	15
518.124	1	13
518.294	1	5
518.465	1	10
518.635	1	21
518.805	1	4
518.975	1	0
519.145	1	11
519.315	1	3
519.485	1	24
519.656	1	9
519.826	1	15
519.996	1	16
520.166	1	9
520.336	1	-2
520.506	1	17
520.676	1	23
520.846	1	16
521.017	1	9
521.187	1	14
521.357	1	7
521.527	1	9
521.697	1	15
521.867	1	5
522.037	1	15
522.207	1	10
522.377	1	16
522.548	1	17
522.718	1	15
522.888	1	20
523.058	1	14
523.228	1	8
523.398	1	11
523.568	1	11
523.738	1	-1
523.909	1	14
524.079	1	8
524.249	1	9
524.419	1	14
524.589	1	6
524.759	1	11
524.929	1	9
525.099	1	5
525.269	1	-4
525.439	1	11
525.610	1	5
525.780	1	10
525.950	1	18
526.120	1	18
526.290	1	0
526.460	1	11
526.630	1	8
526.800	1	7
526.970	1	13
527.140	1	20
527.311	1	17
527.481	1	4
527.651	1	14
527.821	1	10
527.991	1	14
528.161	1	11
528.331	1	16
528.501	1	4
528.671	1	20
528.841	1	23
529.011	1	2
529.181	1	11
529.352	1	11
529.522	1	14
529.692	1	2
529.862	1	12
530.032	1	1
530.202	1	20
530.372	1	17
530.542	1	12
530.712	1	27
530.882	1	16
531.052	1	8
531.222	1	20
531.392	1	-1
531.563	1	6
531.733	1	3
531.903	1	8
532.073	1	12
532.243	1	14
532.413	1	2
532.583	1	10
532.753	1	16
532.923	1	13
533.093	1	12
533.263	1	9
533.433	1	7
533.603	1	5
533.773	1	4
533.943	1	10
534.113	1	6
534.284	1	1
534.454	1	18
534.624	1	15
534.794	1	22
534.964	1	12
535.134	1	19
535.304	1	18
535.474	1	10
535.644	1	20
535.814	1	9
535.984	1	16
536.154	1	15
536.324	1	1
536.494	1	5
536.664	1	10
536.834	1	24
537.004	1	9
537.174	1	6
537.344	1	8
537.514	1	6
537.685	1	9
537.855	1	3
538.025	1	8
538.195	1	5
538.365	1	17
538.535	1	-3
538.705	1	2
538.875	1	11
539.045	1	6
539.215	1	20
539.385	1	6
539.555	1	1
539.725	1	8
539.895	1	15
540.065	1	1
540.235	1	9
540.405	1	1
540.575	1	16
540.745	1	9
540.915	1	8
541.085	1	6
541.255	1	18
541.425	1	-1
541.595	1	3
541.765	1	17
541.935	1	6
542.105	1	10
542.275	1	10
542.445	1	10
542.615	1	5
542.785	1	7
542.955	1	-1
543.125	1	9
543.295	1	16
543.465	1	16
543.635	1	7
543.805	1	-2
543.975	1	10
544.145	1	9
544.315	1	3
544.485	1	17
544.655	1	8
544.825	1	5
544.995	1	18
545.165	1	9
545.335	1	4
545.505	1	11
545.675	1	-4
545.845	1	9
546.015	1	18
546.185	1	1
546.355	1	6
546.525	1	7
546.695	1	3
546.865	1	11
547.035	1	-1
547.205	1	16
547.375	1	11
547.545	1	-4
547.715	1	7
547.885	1	-1
548.055	1	1
548.225	1	12
548.395	1	8
548.565	1	14
548.735	1	4
548.905	1	11
549.075	1	12
549.245	1	14
549.415	1	10
549.585	1	7
549.755	1	10
549.925	1	5
550.095	1	-2
550.265	1	23
550.435	1	3
550.605	1	4
550.775	1	19
550.945	1	6
551.115	1	7
551.285	1	4
551.455	1	11
551.625	1	1
551.795	1	-6
551.965	1	10
552.135	1	7
552.305	1	16
552.475	1	4
552.645	1	6
552.815	1	13
552.985	1	6
553.155	1	8
553.325	1	6
553.495	1	8
553.665	1	0
553.835	1	16
554.004	1	13
554.174	1	7
554.344	1	6
554.514	1	10
554.684	1	3
554.854	1	2
555.024	1	10
555.194	1	6
555.364	1	15
555.534	1	0
555.704	1	16
555.874	1	0
556.044	1	10
556.214	1	12
556.384	1	10
556.554	1	1
556.724	1	6
556.894	1	6
557.064	1	8
557.234	1	3
557.404	1	7
557.573	1	9
557.743	1	11
557.913	1	13
558.083	1	-2
558.253	1	2
558.423	1	-4
558.593	1	-5
558.763	1	12
558.933	1	4
559.103	1	9
559.273	1	12
559.443	1	8
559.613	1	3
559.783	1	4
559.953	1	3
560.122	1	9
560.292	1	9
560.462	1	13
560.632	1	0
560.802	1	15
560.972	1	-1
561.142	1	2
561.312	1	8
561.482	1	10
561.652	1	-10
561.822	1	-1
561.992	1	4
562.162	1	9
562.331	1	12
562.501	1	1
562.671	1	12
562.841	1	-4
563.011	1	13
563.181	1	13
563.351	1	4
563.521	1	0
563.691	1	3
563.861	1	15
564.031	1	12
564.201	1	17
564.370	1	1
564.540	1	12
564.710	1	3
564.880	1	16
565.050	1	11
565.220	1	9
565.390	1	6
565.560	1	16
565.730	1	3
565.900	1	2
566.069	1	10
566.239	1	1
566.409	1	-4
566.579	1	17
566.749	1	2
566.919	1	5
567.089	1	-3
567.259	1	8
567.429	1	6
567.599	1	16
567.768	1	-2
567.938	1	1
568.108	1	8
568.278	1	14
568.448	1	11
568.618	1	19
568.788	1	13
568.958	1	2
569.128	1	13
569.297	1	-5
569.467	1	-6
569.637	1	5
569.807	1	13
569.977	1	13
570.147	1	13
570.317	1	7
570.487	1	1
570.656	1	-2
570.826	1	6
570.996	1	2
571.166	1	12
571.336	1	10
571.506	1	8
571.676	1	26
571.846	1	12
572.015	1	10
572.185	1	13
572.355	1	3
572.525	1	-7
572.695	1	7
572.865	1	-4
573.035	1	15
573.205	1	9
573.374	1	7
573.544	1	18
573.714	1	2
573.884	1	7
574.054	1	16
574.224	1	2
574.394	1	6
574.563	1	8
574.733	1	6
574.903	1	9
575.073	1	9
575.243	1	12
575.413	1	3
575.583	1	4
575.752	1	3
575.922	1	10
576.092	1	2
576.262	1	10
576.432	1	9
576.602	1	-1
576.772	1	7
576.941	1	12
577.111	1	2
577.281	1	4
577.451	1	3
577.621	1	5
577.791	1	5
577.960	1	8
578.130	1	6
578.300	1	-4
578.470	1	-5
578.640	1	7
578.810	1	-5
578.979	1	10
579.149	1	4
579.319	1	6
579.489	1	-14
579.659	1	-1
579.829	1	4
579.998	1	6
580.168	1	5
580.338	1	2
580.508	1	20
580.678	1	9
580.848	1	6
581.017	1	28
581.187	1	12
581.357	1	6
581.527	1	5
581.697	1	11
581.867	1	0
582.036	1	-2
582.206	1	9
582.376	1	3
582.546	1	-8
582.716	1	7
582.885	1	-8
583.055	1	8
583.225	1	-4
583.395	1	10
583.565	1	4
583.735	1	2
583.904	1	12
584.074	1	-5
584.244	1	-2
584.414	1	7
584.584	1	3
584.753	1	22
584.923	1	1
585.093	1	12
585.263	1	4
585.433	1	2
585.602	1	6
585.772	1	1
585.942	1	14
586.112	1	3
586.282	1	10
586.451	1	15
586.621	1	21
586.791	1	5
586.961	1	6
587.131	1	4
587.300	1	4
587.470	1	2
587.640	1	11
587.810	1	13
587.980	1	2
588.149	1	13
588.319	1	10
588.489	1	10
588.659	1	5
588.829	1	5
588.998	1	12
589.168	1	10
589.338	1	2
589.508	1	4
589.677	1	16
589.847	1	17
590.017	1	1
590.187	1	2
590.357	1	12
590.526	1	1
590.696	1	1
590.866	1	1
591.036	1	14
591.205	1	4
591.375	1	3
591.545	1	6
591.715	1	-3
591.885	1	13
592.054	1	1
592.224	1	4
592.394	1	9
592.564	1	7
592.733	1	-1
592.903	1	-1
593.073	1	6
593.243	1	12
593.412	1	9
593.582	1	6
593.752	1	3
593.922	1	-2
594.091	1	2
594.261	1	5
594.431	1	15
594.601	1	-5
594.771	1	5
594.940	1	11
595.110	1	3
595.280	1	2
595.450	1	16
595.619	1	9
595.789	1	11
595.959	1	4
596.129	1	1
596.298	1	14
596.468	1	1
596.638	1	4
596.808	1	2
596.977	1	10
597.147	1	8
597.317	1	2
597.487	1	13
597.656	1	8
597.826	1	8
597.996	1	11
598.166	1	8
598.335	1	7
598.505	1	15
598.675	1	7
598.844	1	3
599.014	1	5
599.184	1	2
599.354	1	6
599.523	1	12
599.693	1	15
599.863	1	7
600.033	1	-6
600.202	1	13
600.372	1	0
600.542	1	4
600.712	1	3
600.881	1	-1
601.051	1	-1
601.221	1	6
601.390	1	-3
601.560	1	11
601.730	1	17
601.900	1	12
602.069	1	11
602.239	1	7
602.409	1	3
602.578	1	-5
602.748	1	5
602.918	1	1
603.088	1	21
603.257	1	13
603.427	1	2
603.597	1	12
603.767	1	2
603.936	1	9
604.106	1	5
604.276	1	13
604.445	1	7
604.615	1	3
604.785	1	7
604.954	1	16
605.124	1	-1
605.294	1	10
605.464	1	12
605.633	1	4
605.803	1	12
605.973	1	16
606.142	1	13
606.312	1	1
606.482	1	10
606.652	1	2
606.821	1	9
606.991	1	8
607.161	1	7
607.330	1	2
607.500	1	12
607.670	1	15
607.839	1	15
608.009	1	11
608.179	1	3
608.348	1	13
608.518	1	2
608.688	1	5
608.858	1	5
609.027	1	-1
609.197	1	0
609.367	1	7
609.536	1	3
609.706	1	10
609.876	1	17
610.045	1	13
610.215	1	10
610.385	1	-1
610.554	1	11
610.724	1	12
610.894	1	8
611.063	1	-4
611.233	1	7
611.403	1	3
611.572	1	24
611.742	1	5
611.912	1	18
612.081	1	1
612.251	1	17
612.421	1	8
612.590	1	4
612.760	1	11
612.930	1	9
613.099	1	13
613.269	1	-1
613.439	1	3
613.608	1	14
613.778	1	2
613.948	1	9
614.117	1	16
614.287	1	9
614.457	1	-3
614.626	1	4
614.796	1	3
614.966	1	11
615.135	1	13
615.305	1	10
615.475	1	15
615.644	1	10
615.814	1	4
615.984	1	3
616.153	1	5
616.323	1	11
616.493	1	23
616.662	1	15
616.832	1	5
617.002	1	3
617.171	1	13
617.341	1	1
617.511	1	9
617.680	1	18
617.850	1	11
618.019	1	10
618.189	1	13
618.359	1	2
618.528	1	11
618.698	1	14
618.868	1	9
619.037	1	10
619.207	1	7
619.377	1	6
619.546	1	4
619.716	1	10
619.885	1	4
620.055	1	9
620.225	1	16
620.394	1	1
620.564	1	10
620.734	1	7
620.903	1	8
621.073	1	8
621.242	1	10
621.412	1	6
621.582	1	12
621.751	1	10
621.921	1	2
622.091	1	7
622.260	1	7
622.430	1	14
622.599	1	-1
622.769	1	16
622.939	1	8
623.108	1	13
623.278	1	4
623.448	1	13
623.617	1	5
623.787	1	8
623.956	1	11
624.126	1	17
624.296	1	14
624.465	1	10
624.635	1	15
624.804	1	4
624.974	1	15
625.144	1	9
625.313	1	-4
625.483	1	26
625.652	1	16
625.822	1	8
625.992	1	16
626.161	1	21
626.331	1	11
626.501	1	11
626.670	1	13
626.840	1	9
627.009	1	9
627.179	1	11
627.348	1	13
627.518	1	8
627.688	1	10
627.857	1	7
628.027	1	6
628.196	1	6
628.366	1	-2
628.536	1	10
628.705	1	3
628.875	1	17
629.044	1	6
629.214	1	11
629.384	1	8
629.553	1	13
629.723	1	1
629.892	1	25
630.062	1	11
630.232	1	7
630.401	1	21
630.571	1	21
630.740	1	12
630.910	1	13
631.079	1	3
631.249	1	13
631.419	1	5
631.588	1	19
631.758	1	10
631.927	1	15
632.097	1	2
632.266	1	9
632.436	1	19
632.606	1	7
632.775	1	27
632.945	1	19
633.114	1	5
633.284	1	15
633.453	1	17
633.623	1	11
633.793	1	10
633.962	1	19
634.132	1	7
634.301	1	14
634.471	1	9
634.640	1	16
634.810	1	9
634.979	1	5
635.149	1	12
635.319	1	12
635.488	1	22
635.658	1	10
635.827	1	15
635.997	1	9
636.166	1	9
636.336	1	8
636.505	1	5
636.675	1	19
636.845	1	15
637.014	1	9
637.184	1	15
637.353	1	20
637.523	1	15
637.692	1	19
637.862	1	12
638.031	1	10
638.201	1	11
638.370	1	10
638.540	1	5
638.710	1	15
638.879	1	4
639.049	1	14
639.218	1	8
639.388	1	19
639.557	1	24
639.727	1	-4
639.896	1	9
640.066	1	15
640.235	1	17
640.405	1	12
640.574	1	14
640.744	1	19
640.914	1	26
641.083	1	20
641.253	1	23
641.422	1	13
641.592	1	7
641.761	1	6
641.931	1	12
642.100	1	10
642.270	1	14
642.439	1	11
642.609	1	16
642.778	1	15
642.948	1	11
643.117	1	31
643.287	1	10
643.456	1	17
643.626	1	18
643.795	1	16
643.965	1	15
644.134	1	11
644.304	1	20
644.473	1	18
644.643	1	8
644.812	1	25
644.982	1	15
645.151	1	17
645.321	1	3
645.490	1	15
645.660	1	16
645.829	1	17
645.999	1	12
646.168	1	14
646.338	1	15
646.507	1	19
646.677	1	17
646.846	1	16
647.016	1	22
647.185	1	6
647.355	1	13
647.524	1	16
647.694	1	11
647.863	1	12
648.033	1	15
648.202	1	13
648.372	1	20
648.541	1	2
648.711	1	16
648.880	1	2
649.050	1	8
649.219	1	2
649.389	1	9
649.558	1	8
649.728	1	16
649.897	1	11
650.067	1	17
650.236	1	12
650.406	1	10
650.575	1	10
650.745	1	18
650.914	1	17
651.084	1	5
651.253	1	12
651.423	1	17
651.592	1	17
651.762	1	15
651.931	1	6
652.101	1	23
652.270	1	15
652.440	1	7
652.609	1	10
652.778	1	6
652.948	1	16
653.117	1	4
653.287	1	17
653.456	1	17
653.626	1	0
653.795	1	16
653.965	1	8
654.134	1	14
654.304	1	12
654.473	1	14
654.643	1	12
654.812	1	13
654.982	1	18
655.151	1	8
655.320	1	13
655.490	1	9
655.659	1	10
655.829	1	18
655.998	1	5
656.168	1	10
656.337	1	28
656.507	1	5
656.676	1	19
656.846	1	9
657.015	1	10
657.184	1	8
657.354	1	16
657.523	1	15
657.693	1	15
657.862	1	12
658.032	1	4
658.201	1	17
658.371	1	8
658.540	1	10
658.709	1	5
658.879	1	-1
659.048	1	6
659.218	1	9
659.387	1	7
659.557	1	11
659.726	1	17
659.895	1	15
660.065	1	7
660.234	1	10
660.404	1	16
660.573	1	14
660.743	1	18
660.912	1	15
661.081	1	25
661.251	1	9
661.420	1	12
661.590	1	10
661.759	1	12
661.929	1	8
662.098	1	16
662.267	1	9
662.437	1	14
662.606	1	19
662.776	1	5
662.945	1	1
663.115	1	20
663.284	1	18
663.453	1	11
663.623	1	14
663.792	1	10
663.962	1	11
664.131	1	12
664.300	1	11
664.470	1	12
664.639	1	4
664.809	1	14
664.978	1	12
665.148	1	18
665.317	1	13
665.486	1	11
665.656	1	5
665.825	1	13
665.995	1	4
666.164	1	3
666.333	1	16
666.503	1	12
666.672	1	12
666.842	1	9
667.011	1	7
667.180	1	11
667.350	1	14
667.519	1	19
667.689	1	18
667.858	1	12
668.027	1	21
668.197	1	12
668.366	1	10
668.536	1	14
668.705	1	13
668.874	1	11
669.044	1	4
669.213	1	9
669.382	1	15
669.552	1	29
669.721	1	21
669.891	1	11
670.060	1	23
670.229	1	5
670.399	1	18
670.568	1	4
670.738	1	8
670.907	1	14
671.076	1	12
671.246	1	19
671.415	1	17
671.584	1	14
671.754	1	11
671.923	1	10
672.093	1	23
672.262	1	9
672.431	1	6
672.601	1	10
672.770	1	19
672.939	1	17
673.109	1	11
673.278	1	17
673.448	1	17
673.617	1	0
673.786	1	7
