325.333	1	10
325.504	1	3
325.675	1	0
325.846	1	-4
326.017	1	16
326.188	1	10
326.359	1	-12
326.531	1	6
326.702	1	-1
326.873	1	2
327.044	1	-8
327.215	1	2
327.386	1	-4
327.557	1	4
327.728	1	-5
327.899	1	7
328.070	1	-1
328.241	1	15
328.412	1	-2
328.583	1	-10
328.754	1	-2
328.926	1	0
329.097	1	9
329.268	1	-4
329.439	1	10
329.610	1	9
329.781	1	3
329.952	1	-1
330.123	1	-8
330.294	1	3
330.465	1	4
330.636	1	-3
330.807	1	2
330.978	1	0
331.149	1	5
331.320	1	2
331.492	1	15
331.663	1	12
331.834	1	-3
332.005	1	9
332.176	1	13
332.347	1	2
332.518	1	12
332.689	1	1
332.860	1	-2
333.031	1	3
333.202	1	-3
333.373	1	5
333.544	1	5
333.715	1	-2
333.886	1	4
334.057	1	11
334.228	1	2
334.399	1	-11
334.570	1	10
334.741	1	-2
334.912	1	16
335.084	1	-1
335.255	1	13
335.426	1	1
335.597	1	3
335.768	1	12
335.939	1	-1
336.110	1	3
336.281	1	2
336.452	1	14
336.623	1	6
336.794	1	3
336.965	1	12
337.136	1	-1
337.307	1	8
337.478	1	-2
337.649	1	-5
337.820	1	8
337.991	1	4
338.162	1	1
338.333	1	1
338.504	1	13
338.675	1	0
338.846	1	13
339.017	1	-7
339.188	1	7
339.359	1	15
339.530	1	2
339.701	1	-3
339.872	1	3
340.043	1	12
340.214	1	10
340.385	1	-6
340.556	1	9
340.727	1	11
340.898	1	4
341.069	1	0
341.240	1	-8
341.411	1	5
341.582	1	9
341.753	1	10
341.924	1	3
342.095	1	15
342.266	1	-1
342.437	1	13
342.608	1	-11
342.779	1	2
342.950	1	-7
343.121	1	2
343.292	1	12
343.463	1	8
343.634	1	6
343.805	1	0
343.976	1	3
344.147	1	6
344.318	1	8
344.489	1	10
344.660	1	5
344.831	1	5
345.002	1	3
345.173	1	17
345.344	1	2
345.515	1	0
345.686	1	-10
345.857	1	11
346.028	1	18
346.199	1	-3
346.370	1	7
346.541	1	11
346.712	1	18
346.883	1	-3
347.054	1	1
347.225	1	-2
347.396	1	7
347.567	1	10
347.738	1	-1
347.909	1	8
348.080	1	3
348.251	1	6
348.422	1	7
348.593	1	4
348.764	1	9
348.935	1	-4
349.106	1	-8
349.277	1	1
349.448	1	3
349.619	1	-1
349.790	1	-3
349.961	1	3
350.132	1	11
350.303	1	9
350.474	1	15
350.645	1	5
350.816	1	9
350.987	1	4
351.157	1	-1
351.328	1	6
351.499	1	11
351.670	1	11
351.841	1	13
352.012	1	6
352.183	1	12
352.354	1	11
352.525	1	1
352.696	1	6
352.867	1	-4
353.038	1	-4
353.209	1	12
353.380	1	9
353.551	1	5
353.722	1	7
353.893	1	4
354.064	1	13
354.235	1	4
354.406	1	13
354.576	1	2
354.747	1	11
354.918	1	9
355.089	1	16
355.260	1	8
355.431	1	1
355.602	1	5
355.773	1	2
355.944	1	5
356.115	1	1
356.286	1	12
356.457	1	9
356.628	1	10
356.799	1	-8
356.970	1	6
357.141	1	2
357.311	1	0
357.482	1	-1
357.653	1	-5
357.824	1	4
357.995	1	19
358.166	1	12
358.337	1	-1
358.508	1	3
358.679	1	12
358.850	1	8
359.021	1	-4
359.192	1	1
359.363	1	2
359.533	1	5
359.704	1	-8
359.875	1	-2
360.046	1	0
360.217	1	17
360.388	1	5
360.559	1	14
360.730	1	3
360.901	1	3
361.072	1	4
361.243	1	8
361.414	1	-5
361.584	1	-2
361.755	1	-2
361.926	1	7
362.097	1	15
362.268	1	6
362.439	1	6
362.610	1	9
362.781	1	3
362.952	1	2
363.123	1	-2
363.293	1	10
363.464	1	13
363.635	1	13
363.806	1	3
363.977	1	-2
364.148	1	1
364.319	1	13
364.490	1	12
364.661	1	8
364.832	1	-8
365.002	1	8
365.173	1	8
365.344	1	15
365.515	1	10
365.686	1	-2
365.857	1	1
366.028	1	0
366.199	1	8
366.370	1	12
366.540	1	3
366.711	1	14
366.882	1	11
367.053	1	0
367.224	1	2
367.395	1	-1
367.566	1	7
367.737	1	-3
367.908	1	11
368.078	1	1
368.249	1	9
368.420	1	1
368.591	1	-3
368.762	1	3
368.933	1	9
369.104	1	4
369.274	1	6
369.445	1	-4
369.616	1	6
369.787	1	-6
369.958	1	3
370.129	1	9
370.300	1	13
370.471	1	7
370.641	1	7
370.812	1	7
370.983	1	4
371.154	1	12
371.325	1	-8
371.496	1	-6
371.667	1	9
371.837	1	-4
372.008	1	6
372.179	1	1
372.350	1	2
372.521	1	13
372.692	1	8
372.863	1	10
373.033	1	2
373.204	1	-1
373.375	1	-3
373.546	1	5
373.717	1	-1
373.888	1	-3
374.059	1	7
374.229	1	5
374.400	1	13
374.571	1	-13
374.742	1	11
374.913	1	1
375.084	1	9
375.254	1	-2
375.425	1	6
375.596	1	-3
375.767	1	15
375.938	1	8
376.109	1	14
376.279	1	-6
376.450	1	12
376.621	1	9
376.792	1	19
376.963	1	-4
377.134	1	7
377.304	1	9
377.475	1	3
377.646	1	4
377.817	1	-2
377.988	1	10
378.159	1	-1
378.329	1	3
378.500	1	2
378.671	1	15
378.842	1	10
379.013	1	11
379.184	1	2
379.354	1	0
379.525	1	3
379.696	1	12
379.867	1	13
380.038	1	6
380.209	1	3
380.379	1	12
380.550	1	0
380.721	1	12
380.892	1	-6
381.063	1	8
381.233	1	6
381.404	1	6
381.575	1	20
381.746	1	9
381.917	1	-1
382.087	1	14
382.258	1	5
382.429	1	-7
382.600	1	10
382.771	1	5
382.941	1	2
383.112	1	8
383.283	1	9
383.454	1	12
383.625	1	3
383.795	1	11
383.966	1	6
384.137	1	10
384.308	1	13
384.479	1	2
384.649	1	20
384.820	1	9
384.991	1	11
385.162	1	8
385.333	1	10
385.503	1	-7
385.674	1	11
385.845	1	14
386.016	1	6
386.187	1	8
386.357	1	11
386.528	1	-1
386.699	1	10
386.870	1	3
387.041	1	14
387.211	1	10
387.382	1	-2
387.553	1	8
387.724	1	5
387.894	1	11
388.065	1	9
388.236	1	7
388.407	1	2
388.578	1	2
388.748	1	-4
388.919	1	8
389.090	1	15
389.261	1	3
389.431	1	8
389.602	1	1
389.773	1	3
389.944	1	7
390.114	1	7
390.285	1	13
390.456	1	8
390.627	1	19
390.798	1	15
390.968	1	-3
391.139	1	10
391.310	1	6
391.481	1	6
391.651	1	6
391.822	1	11
391.993	1	11
392.164	1	7
392.334	1	-1
392.505	1	2
392.676	1	8
392.847	1	11
393.017	1	9
393.188	1	2
393.359	1	7
393.530	1	10
393.700	1	13
393.871	1	8
394.042	1	4
394.213	1	9
394.383	1	7
394.554	1	13
394.725	1	3
394.896	1	4
395.066	1	15
395.237	1	8
395.408	1	4
395.579	1	0
395.749	1	10
395.920	1	3
396.091	1	-3
396.262	1	10
396.432	1	10
396.603	1	4
396.774	1	-11
396.945	1	11
397.115	1	8
397.286	1	11
397.457	1	10
397.627	1	15
397.798	1	11
397.969	1	4
398.140	1	7
398.310	1	4
398.481	1	16
398.652	1	14
398.823	1	9
398.993	1	0
399.164	1	9
399.335	1	12
399.505	1	5
399.676	1	21
399.847	1	10
400.018	1	12
400.188	1	-3
400.359	1	7
400.530	1	3
400.700	1	8
400.871	1	8
401.042	1	10
401.213	1	5
401.383	1	1
401.554	1	0
401.725	1	2
401.895	1	9
402.066	1	5
402.237	1	9
402.408	1	3
402.578	1	8
402.749	1	3
402.920	1	11
403.090	1	15
403.261	1	14
403.432	1	6
403.603	1	10
403.773	1	10
403.944	1	13
404.115	1	7
404.285	1	-2
404.456	1	-1
404.627	1	20
404.797	1	4
404.968	1	12
405.139	1	8
405.310	1	17
405.480	1	6
405.651	1	-1
405.822	1	13
405.992	1	5
406.163	1	15
406.334	1	19
406.504	1	9
406.675	1	11
406.846	1	18
407.016	1	12
407.187	1	8
407.358	1	18
407.528	1	-1
407.699	1	3
407.870	1	-1
408.041	1	28
408.211	1	11
408.382	1	15
408.553	1	-2
408.723	1	16
408.894	1	5
409.065	1	13
409.235	1	1
409.406	1	5
409.577	1	19
409.747	1	13
409.918	1	17
410.089	1	14
410.259	1	8
410.430	1	10
410.601	1	16
410.771	1	11
410.942	1	13
411.113	1	22
411.283	1	5
411.454	1	25
411.625	1	6
411.795	1	10
411.966	1	23
412.137	1	17
412.307	1	11
412.478	1	5
412.649	1	6
412.819	1	26
412.990	1	7
413.161	1	17
413.331	1	15
413.502	1	15
413.672	1	9
413.843	1	1
414.014	1	19
414.184	1	14
414.355	1	8
414.526	1	0
414.696	1	11
414.867	1	3
415.038	1	16
415.208	1	0
415.379	1	7
415.550	1	16
415.720	1	10
415.891	1	6
416.062	1	15
416.232	1	6
416.403	1	7
416.573	1	10
416.744	1	10
416.915	1	2
417.085	1	8
417.256	1	9
417.427	1	-5
417.597	1	12
417.768	1	18
417.939	1	5
418.109	1	4
418.280	1	8
418.450	1	11
418.621	1	6
418.792	1	3
418.962	1	15
419.133	1	5
419.304	1	16
419.474	1	18
419.645	1	0
419.815	1	9
419.986	1	5
420.157	1	12
420.327	1	7
420.498	1	9
420.669	1	1
420.839	1	7
421.010	1	5
421.180	1	5
421.351	1	19
421.522	1	9
421.692	1	9
421.863	1	9
422.033	1	4
422.204	1	9
422.375	1	4
422.545	1	6
422.716	1	16
422.886	1	8
423.057	1	14
423.228	1	15
423.398	1	17
423.569	1	26
423.740	1	5
423.910	1	14
424.081	1	14
424.251	1	9
424.422	1	3
424.593	1	17
424.763	1	6
424.934	1	8
425.104	1	2
425.275	1	19
425.445	1	7
425.616	1	-1
425.787	1	8
425.957	1	12
426.128	1	8
426.298	1	8
426.469	1	13
426.640	1	-3
426.810	1	8
426.981	1	9
427.151	1	15
427.322	1	12
427.493	1	10
427.663	1	6
427.834	1	9
428.004	1	6
428.175	1	3
428.345	1	17
428.516	1	5
428.687	1	14
428.857	1	13
429.028	1	-4
429.198	1	4
429.369	1	3
429.540	1	1
429.710	1	13
429.881	1	8
430.051	1	5
430.222	1	12
430.392	1	8
430.563	1	19
430.734	1	4
430.904	1	5
431.075	1	7
431.245	1	8
431.416	1	11
431.586	1	11
431.757	1	15
431.927	1	12
432.098	1	21
432.269	1	6
432.439	1	10
432.610	1	-1
432.780	1	-1
432.951	1	20
433.121	1	8
433.292	1	14
433.462	1	2
433.633	1	14
433.804	1	4
433.974	1	14
434.145	1	-3
434.315	1	12
434.486	1	7
434.656	1	10
434.827	1	9
434.997	1	12
435.168	1	9
435.339	1	12
435.509	1	9
435.680	1	13
435.850	1	5
436.021	1	3
436.191	1	6
436.362	1	13
436.532	1	16
436.703	1	8
436.873	1	18
437.044	1	12
437.214	1	4
437.385	1	16
437.556	1	-2
437.726	1	16
437.897	1	4
438.067	1	12
438.238	1	11
438.408	1	7
438.579	1	4
438.749	1	9
438.920	1	3
439.090	1	4
439.261	1	13
439.431	1	15
439.602	1	10
439.772	1	8
439.943	1	5
440.113	1	6
440.284	1	15
440.455	1	12
440.625	1	6
440.796	1	12
440.966	1	5
441.137	1	5
441.307	1	18
441.478	1	14
441.648	1	7
441.819	1	7
441.989	1	8
442.160	1	15
442.330	1	10
442.501	1	9
442.671	1	14
442.842	1	18
443.012	1	6
443.183	1	7
443.353	1	-1
443.524	1	3
443.694	1	9
443.865	1	6
444.035	1	3
444.206	1	12
444.376	1	17
444.547	1	8
444.717	1	15
444.888	1	19
445.058	1	7
445.229	1	9
445.399	1	7
445.570	1	13
445.740	1	12
445.911	1	3
446.081	1	6
446.252	1	14
446.422	1	9
446.593	1	6
446.763	1	18
446.934	1	13
447.104	1	2
447.275	1	10
447.445	1	3
447.616	1	3
447.786	1	5
447.957	1	7
448.127	1	13
448.298	1	2
448.468	1	23
448.639	1	6
448.809	1	0
448.979	1	10
449.150	1	16
449.320	1	7
449.491	1	8
449.661	1	8
449.832	1	15
450.002	1	2
450.173	1	15
450.343	1	8
450.514	1	12
450.684	1	-1
450.855	1	8
451.025	1	6
451.196	1	-1
451.366	1	16
451.537	1	4
451.707	1	16
451.878	1	7
452.048	1	13
452.218	1	12
452.389	1	2
452.559	1	8
452.730	1	16
452.900	1	11
453.071	1	3
453.241	1	11
453.412	1	6
453.582	1	4
453.753	1	11
453.923	1	22
454.093	1	17
454.264	1	7
454.434	1	9
454.605	1	13
454.775	1	-2
454.946	1	5
455.116	1	8
455.287	1	14
455.457	1	11
455.628	1	6
455.798	1	-2
455.968	1	0
456.139	1	-4
456.309	1	17
456.480	1	-4
456.650	1	18
456.821	1	8
456.991	1	11
457.161	1	3
457.332	1	-4
457.502	1	6
457.673	1	3
457.843	1	10
458.014	1	6
458.184	1	17
458.355	1	19
458.525	1	6
458.695	1	3
458.866	1	19
459.036	1	3
459.207	1	2
459.377	1	6
459.548	1	1
459.718	1	8
459.888	1	13
460.059	1	15
460.229	1	6
460.400	1	-4
460.570	1	9
460.740	1	-2
460.911	1	12
461.081	1	-7
461.252	1	13
461.422	1	9
461.593	1	6
461.763	1	15
461.933	1	12
462.104	1	10
462.274	1	-2
462.445	1	2
462.615	1	12
462.785	1	16
462.956	1	4
463.126	1	8
463.297	1	14
463.467	1	9
463.638	1	9
463.808	1	9
463.978	1	3
464.149	1	14
464.319	1	0
464.490	1	-5
464.660	1	19
464.830	1	18
465.001	1	15
465.171	1	12
465.342	1	17
465.512	1	12
465.682	1	-1
465.853	1	16
466.023	1	1
466.194	1	4
466.364	1	-7
466.534	1	8
466.705	1	11
466.875	1	5
467.045	1	11
467.216	1	16
467.386	1	13
467.557	1	8
467.727	1	7
467.897	1	3
468.068	1	13
468.238	1	10
468.409	1	5
468.579	1	12
468.749	1	17
468.920	1	13
469.090	1	1
469.260	1	9
469.431	1	-9
469.601	1	-3
469.772	1	1
469.942	1	13
470.112	1	13
470.283	1	6
470.453	1	8
470.623	1	1
470.794	1	1
470.964	1	13
471.135	1	12
471.305	1	17
471.475	1	6
471.646	1	14
471.816	1	15
471.986	1	6
472.157	1	8
472.327	1	23
472.497	1	8
472.668	1	2
472.838	1	-1
473.009	1	6
473.179	1	3
473.349	1	22
473.520	1	5
473.690	1	4
473.860	1	5
474.031	1	17
474.201	1	4
474.371	1	20
474.542	1	2
474.712	1	11
474.882	1	-2
475.053	1	9
475.223	1	7
475.394	1	12
475.564	1	0
475.734	1	17
475.905	1	4
476.075	1	11
476.245	1	1
476.416	1	12
476.586	1	-3
476.756	1	3
476.927	1	11
477.097	1	10
477.267	1	13
477.438	1	-10
477.608	1	-4
477.778	1	14
477.949	1	9
478.119	1	2
478.289	1	12
478.460	1	3
478.630	1	-1
478.800	1	4
478.971	1	7
479.141	1	5
479.311	1	-7
479.482	1	5
479.652	1	9
479.822	1	2
479.993	1	12
480.163	1	2
480.333	1	5
480.504	1	0
480.674	1	9
480.844	1	5
481.015	1	-3
481.185	1	3
481.355	1	10
481.525	1	13
481.696	1	8
481.866	1	7
482.036	1	5
482.207	1	7
482.377	1	-4
482.547	1	-6
482.718	1	2
482.888	1	7
483.058	1	0
483.229	1	-4
483.399	1	6
483.569	1	3
483.740	1	5
483.910	1	23
484.080	1	20
484.250	1	10
484.421	1	-2
484.591	1	-2
484.761	1	10
484.932	1	18
485.102	1	8
485.272	1	9
485.443	1	5
485.613	1	-4
485.783	1	1
485.953	1	5
486.124	1	21
486.294	1	19
486.464	1	2
486.635	1	8
486.805	1	15
486.975	1	1
487.146	1	4
487.316	1	10
487.486	1	6
487.656	1	7
487.827	1	5
487.997	1	11
488.167	1	-6
488.338	1	15
488.508	1	6
488.678	1	-1
488.848	1	-1
489.019	1	-1
489.189	1	8
489.359	1	10
489.529	1	7
489.700	1	13
489.870	1	8
490.040	1	13
490.211	1	12
490.381	1	0
490.551	1	10
490.721	1	0
490.892	1	5
491.062	1	3
491.232	1	5
491.402	1	18
491.573	1	6
491.743	1	13
491.913	1	18
492.084	1	7
492.254	1	-3
492.424	1	3
492.594	1	7
492.765	1	-3
492.935	1	0
493.105	1	7
493.275	1	3
493.446	1	8
493.616	1	21
493.786	1	-4
493.956	1	2
494.127	1	4
494.297	1	18
494.467	1	-6
494.637	1	-4
494.808	1	4
494.978	1	13
495.148	1	18
495.318	1	-2
495.489	1	7
495.659	1	7
495.829	1	12
495.999	1	-10
496.170	1	-2
496.340	1	1
496.510	1	10
496.680	1	6
496.851	1	12
497.021	1	8
497.191	1	11
497.361	1	3
497.532	1	10
497.702	1	2
497.872	1	1
498.042	1	11
498.213	1	-1
498.383	1	2
498.553	1	11
498.723	1	3
498.894	1	3
499.064	1	4
499.234	1	18
499.404	1	-5
499.574	1	6
499.745	1	11
499.915	1	9
500.085	1	2
500.255	1	2
500.426	1	5
500.596	1	8
500.766	1	16
500.936	1	-4
501.106	1	-5
501.277	1	0
501.447	1	-4
501.617	1	8
501.787	1	4
501.958	1	17
502.128	1	6
502.298	1	6
502.468	1	14
502.638	1	7
502.809	1	3
502.979	1	10
503.149	1	8
503.319	1	1
503.489	1	1
503.660	1	5
503.830	1	11
504.000	1	5
504.170	1	9
504.340	1	6
504.511	1	15
504.681	1	9
504.851	1	2
505.021	1	11
505.192	1	7
505.362	1	-2
505.532	1	-5
505.702	1	4
505.872	1	8
506.043	1	16
506.213	1	6
506.383	1	1
506.553	1	8
506.723	1	-6
506.893	1	-6
507.064	1	5
507.234	1	-3
507.404	1	6
507.574	1	5
507.744	1	10
507.915	1	11
508.085	1	7
508.255	1	15
508.425	1	-2
508.595	1	5
508.766	1	-4
508.936	1	-7
509.106	1	5
509.276	1	7
509.446	1	6
509.616	1	9
509.787	1	3
509.957	1	12
510.127	1	0
510.297	1	7
510.467	1	7
510.638	1	5
510.808	1	-2
510.978	1	11
511.148	1	6
511.318	1	3
511.488	1	12
511.659	1	5
511.829	1	0
511.999	1	9
512.169	1	15
512.339	1	3
512.509	1	4
512.680	1	9
512.850	1	15
513.020	1	11
513.190	1	16
513.360	1	12
513.530	1	11
513.700	1	10
513.871	1	-1
514.041	1	9
514.211	1	7
514.381	1	-7
514.551	1	2
514.721	1	8
514.892	1	12
515.062	1	-1
515.232	1	-15
515.402	1	-4
515.572	1	2
515.742	1	0
515.912	1	-1
516.083	1	-3
516.253	1	7
516.423	1	8
516.593	1	6
516.763	1	-4
516.933	1	3
517.104	1	7
517.274	1	-5
517.444	1	11
517.614	1	0
517.784	1	6
517.954	1	5
518.124	1	-5
518.294	1	16
518.465	1	0
518.635	1	8
518.805	1	-5
518.975	1	1
519.145	1	-2
519.315	1	10
519.485	1	3
519.656	1	18
519.826	1	11
519.996	1	9
520.166	1	1
520.336	1	1
520.506	1	-8
520.676	1	12
520.846	1	4
521.017	1	4
521.187	1	6
521.357	1	-2
521.527	1	7
521.697	1	0
521.867	1	12
522.037	1	4
522.207	1	-6
522.377	1	3
522.548	1	-1
522.718	1	4
522.888	1	-6
523.058	1	7
523.228	1	10
523.398	1	1
523.568	1	-3
523.738	1	8
523.909	1	-4
524.079	1	-10
524.249	1	-2
524.419	1	7
524.589	1	10
524.759	1	1
524.929	1	1
525.099	1	1
525.269	1	6
525.439	1	5
525.610	1	7
525.780	1	12
525.950	1	0
526.120	1	0
526.290	1	3
526.460	1	8
526.630	1	8
526.800	1	5
526.970	1	1
527.140	1	8
527.311	1	6
527.481	1	-4
527.651	1	4
527.821	1	4
527.991	1	6
528.161	1	2
528.331	1	9
528.501	1	8
528.671	1	-5
528.841	1	4
529.011	1	-2
529.181	1	0
529.352	1	17
529.522	1	0
529.692	1	-12
529.862	1	-3
530.032	1	4
530.202	1	-10
530.372	1	7
530.542	1	3
530.712	1	15
530.882	1	2
531.052	1	0
531.222	1	4
531.392	1	7
531.563	1	-6
531.733	1	-17
531.903	1	4
532.073	1	3
532.243	1	12
532.413	1	0
532.583	1	7
532.753	1	8
532.923	1	-2
533.093	1	9
533.263	1	17
533.433	1	-7
533.603	1	9
533.773	1	-5
533.943	1	3
534.113	1	-1
534.284	1	3
534.454	1	4
534.624	1	13
534.794	1	5
534.964	1	5
535.134	1	5
535.304	1	-4
535.474	1	7
535.644	1	16
535.814	1	-3
535.984	1	-4
536.154	1	3
536.324	1	-5
536.494	1	7
536.664	1	-3
536.834	1	-1
537.004	1	4
537.174	1	8
537.344	1	1
537.514	1	0
537.685	1	14
537.855	1	7
538.025	1	0
538.195	1	6
538.365	1	-5
538.535	1	5
538.705	1	-3
538.875	1	10
539.045	1	5
539.215	1	-4
539.385	1	-2
539.555	1	1
539.725	1	2
539.895	1	4
540.065	1	2
540.235	1	1
540.405	1	11
540.575	1	0
540.745	1	7
540.915	1	0
541.085	1	2
541.255	1	-3
541.425	1	-5
541.595	1	7
541.765	1	-2
541.935	1	6
542.105	1	7
542.275	1	12
542.445	1	7
542.615	1	3
542.785	1	-10
542.955	1	1
543.125	1	5
543.295	1	-1
543.465	1	5
543.635	1	-6
543.805	1	-2
543.975	1	5
544.145	1	1
544.315	1	3
544.485	1	-4
544.655	1	2
544.825	1	0
544.995	1	0
545.165	1	8
545.335	1	10
545.505	1	9
545.675	1	2
545.845	1	1
546.015	1	-7
546.185	1	5
546.355	1	1
546.525	1	0
546.695	1	5
546.865	1	-12
547.035	1	12
547.205	1	8
547.375	1	7
547.545	1	6
547.715	1	-8
547.885	1	-1
548.055	1	13
548.225	1	-10
548.395	1	2
548.565	1	-5
548.735	1	12
548.905	1	-3
549.075	1	-11
549.245	1	12
549.415	1	4
549.585	1	0
549.755	1	3
549.925	1	10
550.095	1	6
550.265	1	-1
550.435	1	4
550.605	1	2
550.775	1	10
550.945	1	-1
551.115	1	4
551.285	1	-2
551.455	1	7
551.625	1	2
551.795	1	5
551.965	1	6
552.135	1	23
552.305	1	3
552.475	1	4
552.645	1	6
552.815	1	4
552.985	1	8
553.155	1	-4
553.325	1	6
553.495	1	13
553.665	1	0
553.835	1	2
554.004	1	11
554.174	1	3
554.344	1	-11
554.514	1	-4
554.684	1	6
554.854	1	1
555.024	1	1
555.194	1	14
555.364	1	12
555.534	1	15
555.704	1	6
555.874	1	3
556.044	1	11
556.214	1	-16
556.384	1	2
556.554	1	5
556.724	1	11
556.894	1	9
557.064	1	9
557.234	1	2
557.404	1	6
557.573	1	-7
557.743	1	3
557.913	1	-1
558.083	1	7
558.253	1	2
558.423	1	-5
558.593	1	17
558.763	1	9
558.933	1	5
559.103	1	-6
559.273	1	8
559.443	1	1
559.613	1	5
559.783	1	-3
559.953	1	7
560.122	1	9
560.292	1	-4
560.462	1	0
560.632	1	3
560.802	1	5
560.972	1	-1
561.142	1	3
561.312	1	-1
561.482	1	3
561.652	1	-6
561.822	1	1
561.992	1	1
562.162	1	-7
562.331	1	-4
562.501	1	4
562.671	1	2
562.841	1	-8
563.011	1	0
563.181	1	6
563.351	1	4
563.521	1	6
563.691	1	1
563.861	1	1
564.031	1	5
564.201	1	6
564.370	1	8
564.540	1	13
564.710	1	-3
564.880	1	11
565.050	1	-4
565.220	1	2
565.390	1	-1
565.560	1	-2
565.730	1	0
565.900	1	2
566.069	1	-7
566.239	1	-2
566.409	1	-2
566.579	1	13
566.749	1	3
566.919	1	12
567.089	1	9
567.259	1	-4
567.429	1	-4
567.599	1	11
567.768	1	12
567.938	1	2
568.108	1	1
568.278	1	-2
568.448	1	5
568.618	1	2
568.788	1	7
568.958	1	5
569.128	1	5
569.297	1	-5
569.467	1	4
569.637	1	1
569.807	1	-3
569.977	1	11
570.147	1	14
570.317	1	-8
570.487	1	-2
570.656	1	0
570.826	1	-1
570.996	1	5
571.166	1	2
571.336	1	3
571.506	1	2
571.676	1	7
571.846	1	10
572.015	1	-4
572.185	1	5
572.355	1	2
572.525	1	-2
572.695	1	-9
572.865	1	-7
573.035	1	6
573.205	1	6
573.374	1	10
573.544	1	6
573.714	1	-2
573.884	1	13
574.054	1	2
574.224	1	1
574.394	1	-3
574.563	1	2
574.733	1	-3
574.903	1	-5
575.073	1	2
575.243	1	2
575.413	1	16
575.583	1	7
575.752	1	2
575.922	1	-3
576.092	1	-1
576.262	1	9
576.432	1	-3
576.602	1	-4
576.772	1	-7
576.941	1	7
577.111	1	5
577.281	1	3
577.451	1	-5
577.621	1	-3
577.791	1	1
577.960	1	9
578.130	1	-5
578.300	1	-12
578.470	1	20
578.640	1	-8
578.810	1	-6
578.979	1	5
579.149	1	9
579.319	1	0
579.489	1	4
579.659	1	13
579.829	1	-5
579.998	1	4
580.168	1	2
580.338	1	6
580.508	1	16
580.678	1	10
580.848	1	6
581.017	1	8
581.187	1	-6
581.357	1	-1
581.527	1	2
581.697	1	-7
581.867	1	1
582.036	1	5
582.206	1	1
582.376	1	5
582.546	1	-4
582.716	1	-4
582.885	1	-14
583.055	1	2
583.225	1	6
583.395	1	10
583.565	1	4
583.735	1	13
583.904	1	3
584.074	1	-1
584.244	1	12
584.414	1	-1
584.584	1	8
584.753	1	-5
584.923	1	3
585.093	1	-1
585.263	1	-1
585.433	1	-7
585.602	1	8
585.772	1	0
585.942	1	5
586.112	1	0
586.282	1	8
586.451	1	-7
586.621	1	6
586.791	1	-7
586.961	1	7
587.131	1	0
587.300	1	1
587.470	1	3
587.640	1	-7
587.810	1	-1
587.980	1	-8
588.149	1	4
588.319	1	-7
588.489	1	-4
588.659	1	10
588.829	1	1
588.998	1	15
589.168	1	-1
589.338	1	8
589.508	1	-3
589.677	1	0
589.847	1	-2
590.017	1	12
590.187	1	-3
590.357	1	12
590.526	1	11
590.696	1	7
590.866	1	13
591.036	1	0
591.205	1	-5
591.375	1	3
591.545	1	3
591.715	1	5
591.885	1	0
592.054	1	10
592.224	1	-3
592.394	1	9
592.564	1	8
592.733	1	8
592.903	1	-3
593.073	1	0
593.243	1	1
593.412	1	-12
593.582	1	2
593.752	1	-3
593.922	1	1
594.091	1	3
594.261	1	-4
594.431	1	3
594.601	1	-4
594.771	1	-1
594.940	1	-5
595.110	1	7
595.280	1	-3
595.450	1	1
595.619	1	4
595.789	1	-4
595.959	1	4
596.129	1	-4
596.298	1	-2
596.468	1	0
596.638	1	2
596.808	1	3
596.977	1	9
597.147	1	-2
597.317	1	6
597.487	1	8
597.656	1	4
597.826	1	-1
597.996	1	2
598.166	1	4
598.335	1	-2
598.505	1	6
598.675	1	10
598.844	1	11
599.014	1	10
599.184	1	1
599.354	1	10
599.523	1	10
599.693	1	13
599.863	1	-5
600.033	1	1
600.202	1	6
600.372	1	16
600.542	1	5
600.712	1	2
600.881	1	6
601.051	1	-1
601.221	1	-3
601.390	1	10
601.560	1	15
601.730	1	9
601.900	1	7
602.069	1	-9
602.239	1	8
602.409	1	-2
602.578	1	2
602.748	1	0
602.918	1	4
603.088	1	8
603.257	1	7
603.427	1	5
603.597	1	16
603.767	1	-2
603.936	1	-1
604.106	1	10
604.276	1	3
604.445	1	7
604.615	1	-7
604.785	1	-3
604.954	1	-2
605.124	1	2
605.294	1	12
605.464	1	1
605.633	1	2
605.803	1	8
605.973	1	-5
606.142	1	5
606.312	1	-8
606.482	1	2
606.652	1	-1
606.821	1	3
606.991	1	9
607.161	1	3
607.330	1	4
607.500	1	12
607.670	1	5
607.839	1	-5
608.009	1	11
608.179	1	-2
608.348	1	3
608.518	1	-10
608.688	1	5
608.858	1	4
609.027	1	4
609.197	1	4
609.367	1	-1
609.536	1	0
609.706	1	3
609.876	1	-2
610.045	1	3
610.215	1	-12
610.385	1	0
610.554	1	0
610.724	1	-1
610.894	1	9
611.063	1	6
611.233	1	-6
611.403	1	5
611.572	1	4
611.742	1	-4
611.912	1	3
612.081	1	-2
612.251	1	20
612.421	1	-1
612.590	1	-5
612.760	1	1
612.930	1	-4
613.099	1	8
613.269	1	-7
613.439	1	1
613.608	1	2
613.778	1	4
613.948	1	7
614.117	1	2
614.287	1	9
614.457	1	-5
614.626	1	0
614.796	1	2
614.966	1	4
615.135	1	5
615.305	1	-3
615.475	1	0
615.644	1	-5
615.814	1	-8
615.984	1	4
616.153	1	5
616.323	1	13
616.493	1	-6
616.662	1	12
616.832	1	7
617.002	1	-11
617.171	1	6
617.341	1	1
617.511	1	3
617.680	1	1
617.850	1	12
618.019	1	-1
618.189	1	0
618.359	1	-4
618.528	1	-1
618.698	1	-1
618.868	1	1
619.037	1	-4
619.207	1	5
619.377	1	-2
619.546	1	-1
619.716	1	3
619.885	1	-1
620.055	1	2
620.225	1	3
620.394	1	6
620.564	1	1
620.734	1	4
620.903	1	12
621.073	1	5
621.242	1	-6
621.412	1	20
621.582	1	1
621.751	1	-4
621.921	1	8
622.091	1	6
622.260	1	7
622.430	1	1
622.599	1	9
622.769	1	0
622.939	1	3
623.108	1	-3
623.278	1	10
623.448	1	-6
623.617	1	-1
623.787	1	5
623.956	1	-2
624.126	1	-5
624.296	1	7
624.465	1	14
624.635	1	19
624.804	1	-5
624.974	1	1
625.144	1	5
625.313	1	15
625.483	1	4
625.652	1	-8
625.822	1	-3
625.992	1	13
626.161	1	3
626.331	1	6
626.501	1	7
626.670	1	6
626.840	1	4
627.009	1	8
627.179	1	0
627.348	1	5
627.518	1	3
627.688	1	12
627.857	1	13
628.027	1	4
628.196	1	6
628.366	1	6
628.536	1	2
628.705	1	4
628.875	1	6
629.044	1	-7
629.214	1	0
629.384	1	2
629.553	1	4
629.723	1	-1
629.892	1	6
630.062	1	3
630.232	1	4
630.401	1	3
630.571	1	13
630.740	1	1
630.910	1	-4
631.079	1	-6
631.249	1	-13
631.419	1	8
631.588	1	5
631.758	1	7
631.927	1	-4
632.097	1	-5
632.266	1	2
632.436	1	9
632.606	1	-1
632.775	1	0
632.945	1	-4
633.114	1	-1
633.284	1	-3
633.453	1	4
633.623	1	5
633.793	1	17
633.962	1	1
634.132	1	3
634.301	1	-1
634.471	1	5
634.640	1	4
634.810	1	-4
634.979	1	-6
635.149	1	1
635.319	1	0
635.488	1	6
635.658	1	20
635.827	1	6
635.997	1	6
636.166	1	0
636.336	1	-2
636.505	1	-6
636.675	1	7
636.845	1	-3
637.014	1	24
637.184	1	1
637.353	1	1
637.523	1	0
637.692	1	5
637.862	1	2
638.031	1	-2
638.201	1	7
638.370	1	1
638.540	1	-5
638.710	1	-2
638.879	1	-3
639.049	1	4
639.218	1	3
639.388	1	6
639.557	1	-4
639.727	1	3
639.896	1	0
640.066	1	0
640.235	1	10
640.405	1	7
640.574	1	5
640.744	1	8
640.914	1	-12
641.083	1	15
641.253	1	-5
641.422	1	3
641.592	1	11
641.761	1	-2
641.931	1	4
642.100	1	-1
642.270	1	-6
642.439	1	0
642.609	1	-2
642.778	1	-3
642.948	1	9
643.117	1	11
643.287	1	0
643.456	1	12
643.626	1	4
643.795	1	13
643.965	1	9
644.134	1	0
644.304	1	0
644.473	1	5
644.643	1	7
644.812	1	-3
644.982	1	4
645.151	1	5
645.321	1	4
645.490	1	3
645.660	1	2
645.829	1	-1
645.999	1	1
646.168	1	-1
646.338	1	1
646.507	1	9
646.677	1	1
646.846	1	7
647.016	1	-5
647.185	1	13
647.355	1	7
647.524	1	2
647.694	1	2
647.863	1	-6
648.033	1	0
648.202	1	3
648.372	1	14
648.541	1	2
648.711	1	17
648.880	1	6
649.050	1	1
649.219	1	7
649.389	1	1
649.558	1	-1
649.728	1	4
649.897	1	-7
650.067	1	7
650.236	1	8
650.406	1	9
650.575	1	-9
650.745	1	7
650.914	1	-2
651.084	1	4
651.253	1	9
651.423	1	7
651.592	1	2
651.762	1	-4
651.931	1	8
652.101	1	8
652.270	1	-13
652.440	1	3
652.609	1	2
652.778	1	13
652.948	1	3
653.117	1	10
653.287	1	1
653.456	1	-7
653.626	1	4
653.795	1	-4
653.965	1	6
654.134	1	0
654.304	1	5
654.473	1	-1
654.643	1	-8
654.812	1	7
654.982	1	12
655.151	1	3
655.320	1	0
655.490	1	3
655.659	1	7
655.829	1	-6
655.998	1	-5
656.168	1	-2
656.337	1	5
656.507	1	3
656.676	1	-3
656.846	1	-1
657.015	1	8
657.184	1	3
657.354	1	2
657.523	1	0
657.693	1	-10
657.862	1	1
658.032	1	7
658.201	1	7
658.371	1	9
658.540	1	0
658.709	1	2
658.879	1	8
659.048	1	10
659.218	1	2
659.387	1	-7
659.557	1	-1
659.726	1	7
659.895	1	15
660.065	1	4
660.234	1	7
660.404	1	3
660.573	1	6
660.743	1	-1
660.912	1	-1
661.081	1	10
661.251	1	5
661.420	1	7
661.590	1	-3
661.759	1	-5
661.929	1	0
662.098	1	9
662.267	1	0
662.437	1	9
662.606	1	11
662.776	1	-1
662.945	1	8
663.115	1	-1
663.284	1	8
663.453	1	-2
663.623	1	-3
663.792	1	3
663.962	1	-2
664.131	1	14
664.300	1	5
664.470	1	7
664.639	1	1
664.809	1	2
664.978	1	1
665.148	1	5
665.317	1	2
665.486	1	7
665.656	1	1
665.825	1	-2
665.995	1	-2
666.164	1	3
666.333	1	3
666.503	1	18
666.672	1	5
666.842	1	-5
667.011	1	12
667.180	1	-6
667.350	1	-3
667.519	1	2
667.689	1	11
667.858	1	-5
668.027	1	-14
668.197	1	9
668.366	1	11
668.536	1	2
668.705	1	6
668.874	1	-12
669.044	1	2
669.213	1	9
669.382	1	-5
669.552	1	5
669.721	1	-1
669.891	1	5
670.060	1	5
670.229	1	-2
670.399	1	8
670.568	1	12
670.738	1	9
670.907	1	-3
671.076	1	3
671.246	1	1
671.415	1	-2
671.584	1	4
671.754	1	4
671.923	1	-5
672.093	1	-1
672.262	1	13
672.431	1	6
672.601	1	4
672.770	1	-4
672.939	1	9
673.109	1	0
673.278	1	-1
673.448	1	2
673.617	1	1
673.786	1	8
