325.333	1	20
325.504	1	6
325.675	1	-2
325.846	1	-13
326.017	1	15
326.188	1	2
326.359	1	-7
326.531	1	0
326.702	1	8
326.873	1	3
327.044	1	-8
327.215	1	3
327.386	1	6
327.557	1	0
327.728	1	0
327.899	1	-1
328.070	1	3
328.241	1	9
328.412	1	1
328.583	1	-9
328.754	1	0
328.926	1	0
329.097	1	6
329.268	1	-14
329.439	1	4
329.610	1	8
329.781	1	6
329.952	1	3
330.123	1	-2
330.294	1	5
330.465	1	11
330.636	1	5
330.807	1	-5
330.978	1	14
331.149	1	6
331.320	1	-4
331.492	1	9
331.663	1	10
331.834	1	2
332.005	1	-5
332.176	1	18
332.347	1	-5
332.518	1	16
332.689	1	-8
332.860	1	-3
333.031	1	3
333.202	1	-3
333.373	1	14
333.544	1	6
333.715	1	1
333.886	1	7
334.057	1	1
334.228	1	3
334.399	1	0
334.570	1	8
334.741	1	1
334.912	1	2
335.084	1	9
335.255	1	13
335.426	1	4
335.597	1	-2
335.768	1	9
335.939	1	9
336.110	1	12
336.281	1	-1
336.452	1	10
336.623	1	5
336.794	1	4
336.965	1	8
337.136	1	-10
337.307	1	13
337.478	1	-8
337.649	1	-10
337.820	1	19
337.991	1	2
338.162	1	12
338.333	1	10
338.504	1	15
338.675	1	7
338.846	1	0
339.017	1	-8
339.188	1	10
339.359	1	12
339.530	1	6
339.701	1	-4
339.872	1	-4
340.043	1	13
340.214	1	15
340.385	1	5
340.556	1	3
340.727	1	9
340.898	1	-4
341.069	1	8
341.240	1	-3
341.411	1	6
341.582	1	14
341.753	1	4
341.924	1	8
342.095	1	14
342.266	1	-4
342.437	1	14
342.608	1	-2
342.779	1	2
342.950	1	-7
343.121	1	-5
343.292	1	11
343.463	1	-1
343.634	1	6
343.805	1	-2
343.976	1	19
344.147	1	0
344.318	1	7
344.489	1	-7
344.660	1	3
344.831	1	9
345.002	1	12
345.173	1	5
345.344	1	3
345.515	1	-4
345.686	1	4
345.857	1	17
346.028	1	8
346.199	1	6
346.370	1	8
346.541	1	-5
346.712	1	10
346.883	1	-5
347.054	1	-3
347.225	1	5
347.396	1	13
347.567	1	12
347.738	1	-2
347.909	1	8
348.080	1	4
348.251	1	14
348.422	1	-2
348.593	1	2
348.764	1	7
348.935	1	-2
349.106	1	-8
349.277	1	8
349.448	1	2
349.619	1	1
349.790	1	7
349.961	1	14
350.132	1	7
350.303	1	-2
350.474	1	9
350.645	1	-1
350.816	1	2
350.987	1	6
351.157	1	4
351.328	1	5
351.499	1	0
351.670	1	4
351.841	1	17
352.012	1	4
352.183	1	5
352.354	1	10
352.525	1	4
352.696	1	12
352.867	1	10
353.038	1	6
353.209	1	4
353.380	1	7
353.551	1	12
353.722	1	12
353.893	1	3
354.064	1	18
354.235	1	10
354.406	1	4
354.576	1	-7
354.747	1	16
354.918	1	14
355.089	1	15
355.260	1	-3
355.431	1	5
355.602	1	1
355.773	1	2
355.944	1	11
356.115	1	13
356.286	1	4
356.457	1	11
356.628	1	11
356.799	1	4
356.970	1	3
357.141	1	-1
357.311	1	6
357.482	1	-2
357.653	1	-6
357.824	1	-3
357.995	1	15
358.166	1	10
358.337	1	5
358.508	1	0
358.679	1	-5
358.850	1	11
359.021	1	3
359.192	1	6
359.363	1	0
359.533	1	4
359.704	1	-7
359.875	1	8
360.046	1	-6
360.217	1	16
360.388	1	-1
360.559	1	12
360.730	1	6
360.901	1	7
361.072	1	4
361.243	1	7
361.414	1	-9
361.584	1	2
361.755	1	9
361.926	1	1
362.097	1	12
362.268	1	7
362.439	1	12
362.610	1	-5
362.781	1	-1
362.952	1	-1
363.123	1	-2
363.293	1	12
363.464	1	13
363.635	1	14
363.806	1	4
363.977	1	8
364.148	1	1
364.319	1	3
364.490	1	3
364.661	1	0
364.832	1	-3
365.002	1	-7
365.173	1	3
365.344	1	12
365.515	1	8
365.686	1	-4
365.857	1	1
366.028	1	-4
366.199	1	7
366.370	1	9
366.540	1	4
366.711	1	5
366.882	1	10
367.053	1	8
367.224	1	12
367.395	1	-3
367.566	1	6
367.737	1	-7
367.908	1	18
368.078	1	3
368.249	1	9
368.420	1	18
368.591	1	4
368.762	1	8
368.933	1	7
369.104	1	4
369.274	1	16
369.445	1	13
369.616	1	-3
369.787	1	6
369.958	1	0
370.129	1	7
370.300	1	12
370.471	1	10
370.641	1	5
370.812	1	7
370.983	1	1
371.154	1	3
371.325	1	-8
371.496	1	-3
371.667	1	6
371.837	1	8
372.008	1	10
372.179	1	6
372.350	1	11
372.521	1	10
372.692	1	5
372.863	1	11
373.033	1	2
373.204	1	3
373.375	1	-4
373.546	1	4
373.717	1	-7
373.888	1	9
374.059	1	4
374.229	1	4
374.400	1	6
374.571	1	2
374.742	1	11
374.913	1	-1
375.084	1	10
375.254	1	-1
375.425	1	11
375.596	1	11
375.767	1	11
375.938	1	7
376.109	1	9
376.279	1	-8
376.450	1	18
376.621	1	1
376.792	1	10
376.963	1	2
377.134	1	15
377.304	1	8
377.475	1	7
377.646	1	3
377.817	1	4
377.988	1	13
378.159	1	-2
378.329	1	9
378.500	1	-1
378.671	1	5
378.842	1	8
379.013	1	6
379.184	1	2
379.354	1	8
379.525	1	-1
379.696	1	15
379.867	1	4
380.038	1	14
380.209	1	7
380.379	1	8
380.550	1	-4
380.721	1	5
380.892	1	-4
381.063	1	0
381.233	1	7
381.404	1	7
381.575	1	4
381.746	1	1
381.917	1	-2
382.087	1	15
382.258	1	7
382.429	1	-2
382.600	1	7
382.771	1	1
382.941	1	1
383.112	1	-1
383.283	1	4
383.454	1	6
383.625	1	10
383.795	1	22
383.966	1	6
384.137	1	7
384.308	1	19
384.479	1	4
384.649	1	8
384.820	1	7
384.991	1	10
385.162	1	10
385.333	1	0
385.503	1	-5
385.674	1	9
385.845	1	21
386.016	1	2
386.187	1	5
386.357	1	10
386.528	1	5
386.699	1	22
386.870	1	-8
387.041	1	10
387.211	1	5
387.382	1	2
387.553	1	7
387.724	1	6
387.894	1	11
388.065	1	2
388.236	1	6
388.407	1	6
388.578	1	-6
388.748	1	-1
388.919	1	1
389.090	1	12
389.261	1	5
389.431	1	14
389.602	1	5
389.773	1	9
389.944	1	10
390.114	1	10
390.285	1	12
390.456	1	6
390.627	1	12
390.798	1	6
390.968	1	-6
391.139	1	13
391.310	1	6
391.481	1	8
391.651	1	10
391.822	1	15
391.993	1	1
392.164	1	-2
392.334	1	5
392.505	1	11
392.676	1	11
392.847	1	8
393.017	1	13
393.188	1	11
393.359	1	17
393.530	1	12
393.700	1	14
393.871	1	4
394.042	1	1
394.213	1	2
394.383	1	13
394.554	1	11
394.725	1	0
394.896	1	9
395.066	1	13
395.237	1	17
395.408	1	13
395.579	1	-3
395.749	1	-4
395.920	1	-1
396.091	1	13
396.262	1	13
396.432	1	7
396.603	1	11
396.774	1	-6
396.945	1	6
397.115	1	6
397.286	1	11
397.457	1	9
397.627	1	14
397.798	1	4
397.969	1	3
398.140	1	5
398.310	1	6
398.481	1	8
398.652	1	0
398.823	1	5
398.993	1	-3
399.164	1	16
399.335	1	12
399.505	1	8
399.676	1	15
399.847	1	9
400.018	1	7
400.188	1	12
400.359	1	12
400.530	1	6
400.700	1	5
400.871	1	8
401.042	1	13
401.213	1	16
401.383	1	6
401.554	1	3
401.725	1	3
401.895	1	9
402.066	1	2
402.237	1	5
402.408	1	4
402.578	1	9
402.749	1	3
402.920	1	11
403.090	1	17
403.261	1	19
403.432	1	9
403.603	1	17
403.773	1	6
403.944	1	7
404.115	1	10
404.285	1	8
404.456	1	5
404.627	1	16
404.797	1	13
404.968	1	11
405.139	1	12
405.310	1	10
405.480	1	4
405.651	1	5
405.822	1	-1
405.992	1	18
406.163	1	14
406.334	1	10
406.504	1	4
406.675	1	11
406.846	1	2
407.016	1	4
407.187	1	2
407.358	1	15
407.528	1	4
407.699	1	4
407.870	1	9
408.041	1	22
408.211	1	12
408.382	1	20
408.553	1	1
408.723	1	6
408.894	1	4
409.065	1	4
409.235	1	11
409.406	1	12
409.577	1	16
409.747	1	15
409.918	1	10
410.089	1	8
410.259	1	6
410.430	1	13
410.601	1	5
410.771	1	8
410.942	1	10
411.113	1	17
411.283	1	13
411.454	1	3
411.625	1	1
411.795	1	12
411.966	1	12
412.137	1	20
412.307	1	5
412.478	1	8
412.649	1	1
412.819	1	14
412.990	1	5
413.161	1	14
413.331	1	21
413.502	1	11
413.672	1	8
413.843	1	2
414.014	1	21
414.184	1	10
414.355	1	12
414.526	1	3
414.696	1	17
414.867	1	1
415.038	1	9
415.208	1	6
415.379	1	3
415.550	1	6
415.720	1	-2
415.891	1	6
416.062	1	17
416.232	1	-5
416.403	1	24
416.573	1	8
416.744	1	-2
416.915	1	4
417.085	1	6
417.256	1	6
417.427	1	0
417.597	1	4
417.768	1	13
417.939	1	-1
418.109	1	11
418.280	1	4
418.450	1	13
418.621	1	8
418.792	1	5
418.962	1	3
419.133	1	3
419.304	1	-3
419.474	1	14
419.645	1	10
419.815	1	5
419.986	1	14
420.157	1	11
420.327	1	2
420.498	1	7
420.669	1	11
420.839	1	5
421.010	1	8
421.180	1	2
421.351	1	20
421.522	1	19
421.692	1	1
421.863	1	8
422.033	1	16
422.204	1	14
422.375	1	10
422.545	1	13
422.716	1	10
422.886	1	10
423.057	1	14
423.228	1	13
423.398	1	12
423.569	1	13
423.740	1	12
423.910	1	10
424.081	1	1
424.251	1	14
424.422	1	10
424.593	1	7
424.763	1	13
424.934	1	2
425.104	1	5
425.275	1	12
425.445	1	3
425.616	1	10
425.787	1	5
425.957	1	10
426.128	1	14
426.298	1	1
426.469	1	5
426.640	1	10
426.810	1	7
426.981	1	1
427.151	1	10
427.322	1	6
427.493	1	3
427.663	1	3
427.834	1	7
428.004	1	18
428.175	1	-2
428.345	1	8
428.516	1	2
428.687	1	5
428.857	1	14
429.028	1	4
429.198	1	10
429.369	1	9
429.540	1	9
429.710	1	16
429.881	1	8
430.051	1	4
430.222	1	17
430.392	1	8
430.563	1	20
430.734	1	13
430.904	1	11
431.075	1	7
431.245	1	0
431.416	1	10
431.586	1	13
431.757	1	22
431.927	1	3
432.098	1	12
432.269	1	16
432.439	1	0
432.610	1	8
432.780	1	9
432.951	1	20
433.121	1	6
433.292	1	10
433.462	1	7
433.633	1	13
433.804	1	-3
433.974	1	16
434.145	1	1
434.315	1	13
434.486	1	13
434.656	1	11
434.827	1	4
434.997	1	3
435.168	1	14
435.339	1	5
435.509	1	10
435.680	1	7
435.850	1	15
436.021	1	0
436.191	1	8
436.362	1	17
436.532	1	18
436.703	1	24
436.873	1	3
437.044	1	12
437.214	1	-10
437.385	1	18
437.556	1	4
437.726	1	24
437.897	1	-2
438.067	1	14
438.238	1	11
438.408	1	5
438.579	1	17
438.749	1	2
438.920	1	8
439.090	1	13
439.261	1	3
439.431	1	18
439.602	1	8
439.772	1	17
439.943	1	1
440.113	1	18
440.284	1	22
440.455	1	4
440.625	1	11
440.796	1	10
440.966	1	19
441.137	1	4
441.307	1	15
441.478	1	14
441.648	1	7
441.819	1	2
441.989	1	14
442.160	1	13
442.330	1	1
442.501	1	2
442.671	1	10
442.842	1	10
443.012	1	5
443.183	1	16
443.353	1	10
443.524	1	15
443.694	1	14
443.865	1	6
444.035	1	0
444.206	1	8
444.376	1	8
444.547	1	3
444.717	1	18
444.888	1	18
445.058	1	4
445.229	1	9
445.399	1	6
445.570	1	14
445.740	1	12
445.911	1	3
446.081	1	12
446.252	1	7
446.422	1	3
446.593	1	12
446.763	1	12
446.934	1	20
447.104	1	2
447.275	1	10
447.445	1	13
447.616	1	7
447.786	1	5
447.957	1	4
448.127	1	15
448.298	1	11
448.468	1	19
448.639	1	1
448.809	1	8
448.979	1	9
449.150	1	16
449.320	1	5
449.491	1	-2
449.661	1	10
449.832	1	5
450.002	1	14
450.173	1	16
450.343	1	9
450.514	1	15
450.684	1	-1
450.855	1	-1
451.025	1	14
451.196	1	14
451.366	1	6
451.537	1	3
451.707	1	12
451.878	1	12
452.048	1	10
452.218	1	11
452.389	1	8
452.559	1	5
452.730	1	13
452.900	1	7
453.071	1	3
453.241	1	9
453.412	1	17
453.582	1	9
453.753	1	18
453.923	1	17
454.093	1	16
454.264	1	13
454.434	1	1
454.605	1	5
454.775	1	1
454.946	1	2
455.116	1	2
455.287	1	9
455.457	1	13
455.628	1	4
455.798	1	1
455.968	1	2
456.139	1	6
456.309	1	15
456.480	1	-4
456.650	1	7
456.821	1	1
456.991	1	5
457.161	1	8
457.332	1	8
457.502	1	1
457.673	1	8
457.843	1	5
458.014	1	8
458.184	1	13
458.355	1	20
458.525	1	1
458.695	1	10
458.866	1	12
459.036	1	-1
459.207	1	6
459.377	1	8
459.548	1	3
459.718	1	5
459.888	1	18
460.059	1	19
460.229	1	14
460.400	1	-1
460.570	1	3
460.740	1	-5
460.911	1	0
461.081	1	16
461.252	1	7
461.422	1	26
461.593	1	0
461.763	1	-1
461.933	1	7
462.104	1	5
462.274	1	0
462.445	1	2
462.615	1	13
462.785	1	13
462.956	1	5
463.126	1	8
463.297	1	3
463.467	1	9
463.638	1	6
463.808	1	0
463.978	1	5
464.149	1	9
464.319	1	-1
464.490	1	2
464.660	1	10
464.830	1	22
465.001	1	9
465.171	1	11
465.342	1	13
465.512	1	11
465.682	1	2
465.853	1	9
466.023	1	9
466.194	1	11
466.364	1	-3
466.534	1	6
466.705	1	20
466.875	1	12
467.045	1	11
467.216	1	5
467.386	1	15
467.557	1	7
467.727	1	15
467.897	1	5
468.068	1	14
468.238	1	6
468.409	1	-2
468.579	1	14
468.749	1	5
468.920	1	7
469.090	1	5
469.260	1	10
469.431	1	-6
469.601	1	-2
469.772	1	10
469.942	1	9
470.112	1	3
470.283	1	11
470.453	1	-4
470.623	1	3
470.794	1	4
470.964	1	6
471.135	1	23
471.305	1	13
471.475	1	11
471.646	1	3
471.816	1	7
471.986	1	4
472.157	1	8
472.327	1	14
472.497	1	5
472.668	1	5
472.838	1	3
473.009	1	9
473.179	1	19
473.349	1	3
473.520	1	2
473.690	1	9
473.860	1	11
474.031	1	4
474.201	1	6
474.371	1	11
474.542	1	5
474.712	1	3
474.882	1	-2
475.053	1	7
475.223	1	2
475.394	1	9
475.564	1	13
475.734	1	12
475.905	1	-4
476.075	1	10
476.245	1	8
476.416	1	5
476.586	1	-1
476.756	1	5
476.927	1	3
477.097	1	12
477.267	1	6
477.438	1	8
477.608	1	1
477.778	1	13
477.949	1	3
478.119	1	2
478.289	1	4
478.460	1	3
478.630	1	1
478.800	1	2
478.971	1	6
479.141	1	11
479.311	1	-1
479.482	1	1
479.652	1	13
479.822	1	1
479.993	1	9
480.163	1	8
480.333	1	10
480.504	1	5
480.674	1	8
480.844	1	9
481.015	1	4
481.185	1	3
481.355	1	12
481.525	1	2
481.696	1	9
481.866	1	3
482.036	1	4
482.207	1	9
482.377	1	-5
482.547	1	-3
482.718	1	-1
482.888	1	7
483.058	1	1
483.229	1	-1
483.399	1	-4
483.569	1	7
483.740	1	6
483.910	1	12
484.080	1	9
484.250	1	10
484.421	1	6
484.591	1	2
484.761	1	6
484.932	1	4
485.102	1	6
485.272	1	5
485.443	1	-1
485.613	1	1
485.783	1	6
485.953	1	11
486.124	1	15
486.294	1	20
486.464	1	6
486.635	1	8
486.805	1	10
486.975	1	-6
487.146	1	-3
487.316	1	7
487.486	1	1
487.656	1	8
487.827	1	-2
487.997	1	14
488.167	1	-2
488.338	1	17
488.508	1	5
488.678	1	12
488.848	1	11
489.019	1	4
489.189	1	-2
489.359	1	5
489.529	1	7
489.700	1	13
489.870	1	6
490.040	1	12
490.211	1	12
490.381	1	3
490.551	1	6
490.721	1	4
490.892	1	7
491.062	1	2
491.232	1	3
491.402	1	18
491.573	1	11
491.743	1	3
491.913	1	14
492.084	1	3
492.254	1	-1
492.424	1	5
492.594	1	8
492.765	1	-4
492.935	1	-3
493.105	1	12
493.275	1	6
493.446	1	10
493.616	1	7
493.786	1	7
493.956	1	-2
494.127	1	4
494.297	1	8
494.467	1	2
494.637	1	10
494.808	1	6
494.978	1	6
495.148	1	17
495.318	1	-4
495.489	1	9
495.659	1	13
495.829	1	5
495.999	1	-8
496.170	1	3
496.340	1	4
496.510	1	6
496.680	1	7
496.851	1	10
497.021	1	6
497.191	1	10
497.361	1	5
497.532	1	11
497.702	1	-11
497.872	1	-5
498.042	1	5
498.213	1	9
498.383	1	3
498.553	1	1
498.723	1	5
498.894	1	8
499.064	1	9
499.234	1	13
499.404	1	-8
499.574	1	-6
499.745	1	-2
499.915	1	1
500.085	1	4
500.255	1	3
500.426	1	12
500.596	1	3
500.766	1	18
500.936	1	6
501.106	1	2
501.277	1	6
501.447	1	5
501.617	1	5
501.787	1	-2
501.958	1	7
502.128	1	7
502.298	1	7
502.468	1	12
502.638	1	10
502.809	1	8
502.979	1	3
503.149	1	4
503.319	1	6
503.489	1	8
503.660	1	6
503.830	1	12
504.000	1	11
504.170	1	9
504.340	1	-4
504.511	1	1
504.681	1	10
504.851	1	2
505.021	1	1
505.192	1	4
505.362	1	5
505.532	1	-1
505.702	1	7
505.872	1	8
506.043	1	12
506.213	1	2
506.383	1	-6
506.553	1	6
506.723	1	-8
506.893	1	-7
507.064	1	6
507.234	1	-6
507.404	1	12
507.574	1	20
507.744	1	14
507.915	1	5
508.085	1	14
508.255	1	12
508.425	1	-13
508.595	1	-3
508.766	1	-2
508.936	1	6
509.106	1	8
509.276	1	4
509.446	1	4
509.616	1	6
509.787	1	-7
509.957	1	14
510.127	1	0
510.297	1	0
510.467	1	4
510.638	1	4
510.808	1	-2
510.978	1	10
511.148	1	0
511.318	1	1
511.488	1	3
511.659	1	-1
511.829	1	-15
511.999	1	1
512.169	1	7
512.339	1	2
512.509	1	9
512.680	1	7
512.850	1	8
513.020	1	2
513.190	1	1
513.360	1	2
513.530	1	7
513.700	1	7
513.871	1	-3
514.041	1	6
514.211	1	9
514.381	1	6
514.551	1	16
514.721	1	9
514.892	1	5
515.062	1	-8
515.232	1	-5
515.402	1	-2
515.572	1	4
515.742	1	1
515.912	1	9
516.083	1	7
516.253	1	0
516.423	1	-1
516.593	1	-2
516.763	1	1
516.933	1	-8
517.104	1	3
517.274	1	8
517.444	1	10
517.614	1	9
517.784	1	1
517.954	1	9
518.124	1	-3
518.294	1	12
518.465	1	3
518.635	1	1
518.805	1	1
518.975	1	2
519.145	1	-3
519.315	1	8
519.485	1	-2
519.656	1	10
519.826	1	9
519.996	1	3
520.166	1	-7
520.336	1	6
520.506	1	-8
520.676	1	3
520.846	1	-8
521.017	1	4
521.187	1	9
521.357	1	-9
521.527	1	9
521.697	1	-3
521.867	1	5
522.037	1	7
522.207	1	-1
522.377	1	20
522.548	1	-2
522.718	1	9
522.888	1	-1
523.058	1	2
523.228	1	10
523.398	1	3
523.568	1	8
523.738	1	5
523.909	1	-2
524.079	1	-11
524.249	1	3
524.419	1	5
524.589	1	7
524.759	1	-2
524.929	1	0
525.099	1	-9
525.269	1	13
525.439	1	-3
525.610	1	11
525.780	1	14
525.950	1	-1
526.120	1	1
526.290	1	-7
526.460	1	10
526.630	1	9
526.800	1	6
526.970	1	1
527.140	1	-1
527.311	1	3
527.481	1	-15
527.651	1	0
527.821	1	4
527.991	1	5
528.161	1	2
528.331	1	20
528.501	1	1
528.671	1	3
528.841	1	4
529.011	1	6
529.181	1	-6
529.352	1	16
529.522	1	3
529.692	1	2
529.862	1	-2
530.032	1	8
530.202	1	-11
530.372	1	2
530.542	1	2
530.712	1	17
530.882	1	17
531.052	1	8
531.222	1	-7
531.392	1	-6
531.563	1	-7
531.733	1	-6
531.903	1	8
532.073	1	-1
532.243	1	18
532.413	1	1
532.583	1	1
532.753	1	8
532.923	1	-1
533.093	1	2
533.263	1	17
533.433	1	3
533.603	1	6
533.773	1	-4
533.943	1	-1
534.113	1	-2
534.284	1	-6
534.454	1	0
534.624	1	-6
534.794	1	-2
534.964	1	11
535.134	1	17
535.304	1	5
535.474	1	5
535.644	1	4
535.814	1	3
535.984	1	-2
536.154	1	6
536.324	1	-4
536.494	1	5
536.664	1	2
536.834	1	3
537.004	1	-6
537.174	1	2
537.344	1	1
537.514	1	5
537.685	1	1
537.855	1	14
538.025	1	4
538.195	1	8
538.365	1	-3
538.535	1	7
538.705	1	2
538.875	1	11
539.045	1	15
539.215	1	4
539.385	1	-13
539.555	1	7
539.725	1	2
539.895	1	1
540.065	1	-2
540.235	1	4
540.405	1	1
540.575	1	-8
540.745	1	9
540.915	1	-2
541.085	1	3
541.255	1	-12
541.425	1	-5
541.595	1	14
541.765	1	-5
541.935	1	6
542.105	1	7
542.275	1	6
542.445	1	9
542.615	1	0
542.785	1	-3
542.955	1	2
543.125	1	-7
543.295	1	-10
543.465	1	11
543.635	1	9
543.805	1	-5
543.975	1	7
544.145	1	-5
544.315	1	14
544.485	1	1
544.655	1	1
544.825	1	-2
544.995	1	2
545.165	1	9
545.335	1	5
545.505	1	8
545.675	1	1
545.845	1	-5
546.015	1	-6
546.185	1	-1
546.355	1	2
546.525	1	-2
546.695	1	4
546.865	1	-1
547.035	1	1
547.205	1	7
547.375	1	-4
547.545	1	10
547.715	1	1
547.885	1	-4
548.055	1	8
548.225	1	1
548.395	1	6
548.565	1	-1
548.735	1	7
548.905	1	-5
549.075	1	0
549.245	1	1
549.415	1	-4
549.585	1	-1
549.755	1	13
549.925	1	6
550.095	1	2
550.265	1	-8
550.435	1	-4
550.605	1	0
550.775	1	5
550.945	1	4
551.115	1	11
551.285	1	3
551.455	1	8
551.625	1	-1
551.795	1	3
551.965	1	-1
552.135	1	16
552.305	1	-3
552.475	1	0
552.645	1	11
552.815	1	12
552.985	1	7
553.155	1	4
553.325	1	8
553.495	1	3
553.665	1	-1
553.835	1	2
554.004	1	5
554.174	1	4
554.344	1	-8
554.514	1	2
554.684	1	12
554.854	1	-2
555.024	1	6
555.194	1	8
555.364	1	1
555.534	1	15
555.704	1	3
555.874	1	1
556.044	1	19
556.214	1	-11
556.384	1	3
556.554	1	6
556.724	1	5
556.894	1	2
557.064	1	12
557.234	1	6
557.404	1	-2
557.573	1	-16
557.743	1	5
557.913	1	1
558.083	1	7
558.253	1	10
558.423	1	1
558.593	1	15
558.763	1	13
558.933	1	16
559.103	1	2
559.273	1	9
559.443	1	-3
559.613	1	6
559.783	1	7
559.953	1	5
560.122	1	4
560.292	1	0
560.462	1	6
560.632	1	6
560.802	1	13
560.972	1	-3
561.142	1	-12
561.312	1	-2
561.482	1	9
561.652	1	-3
561.822	1	5
561.992	1	-9
562.162	1	4
562.331	1	1
562.501	1	8
562.671	1	-5
562.841	1	-9
563.011	1	0
563.181	1	10
563.351	1	5
563.521	1	8
563.691	1	1
563.861	1	10
564.031	1	21
564.201	1	18
564.370	1	-4
564.540	1	11
564.710	1	-4
564.880	1	3
565.050	1	-2
565.220	1	-2
565.390	1	4
565.560	1	-4
565.730	1	1
565.900	1	1
566.069	1	-5
566.239	1	3
566.409	1	-2
566.579	1	14
566.749	1	0
566.919	1	12
567.089	1	6
567.259	1	0
567.429	1	-8
567.599	1	2
567.768	1	7
567.938	1	8
568.108	1	-1
568.278	1	-4
568.448	1	0
568.618	1	2
568.788	1	10
568.958	1	4
569.128	1	3
569.297	1	-5
569.467	1	6
569.637	1	6
569.807	1	1
569.977	1	7
570.147	1	9
570.317	1	-8
570.487	1	-5
570.656	1	-4
570.826	1	-4
570.996	1	-4
571.166	1	8
571.336	1	3
571.506	1	6
571.676	1	3
571.846	1	1
572.015	1	0
572.185	1	0
572.355	1	2
572.525	1	-6
572.695	1	4
572.865	1	-6
573.035	1	9
573.205	1	-8
573.374	1	11
573.544	1	7
573.714	1	7
573.884	1	11
574.054	1	8
574.224	1	-4
574.394	1	5
574.563	1	4
574.733	1	-1
574.903	1	8
575.073	1	2
575.243	1	9
575.413	1	3
575.583	1	1
575.752	1	8
575.922	1	4
576.092	1	5
576.262	1	5
576.432	1	-4
576.602	1	-6
576.772	1	-5
576.941	1	-1
577.111	1	10
577.281	1	0
577.451	1	10
577.621	1	7
577.791	1	2
577.960	1	0
578.130	1	-8
578.300	1	-10
578.470	1	3
578.640	1	3
578.810	1	-10
578.979	1	9
579.149	1	-7
579.319	1	17
579.489	1	4
579.659	1	0
579.829	1	-10
579.998	1	7
580.168	1	3
580.338	1	8
580.508	1	16
580.678	1	5
580.848	1	5
581.017	1	4
581.187	1	-5
581.357	1	-2
581.527	1	2
581.697	1	8
581.867	1	-4
582.036	1	2
582.206	1	0
582.376	1	9
582.546	1	8
582.716	1	-4
582.885	1	-2
583.055	1	2
583.225	1	3
583.395	1	3
583.565	1	2
583.735	1	11
583.904	1	9
584.074	1	3
584.244	1	10
584.414	1	-5
584.584	1	3
584.753	1	-7
584.923	1	-8
585.093	1	-5
585.263	1	10
585.433	1	-6
585.602	1	5
585.772	1	1
585.942	1	6
586.112	1	6
586.282	1	10
586.451	1	4
586.621	1	5
586.791	1	1
586.961	1	5
587.131	1	0
587.300	1	-5
587.470	1	2
587.640	1	-5
587.810	1	6
587.980	1	-7
588.149	1	8
588.319	1	-6
588.489	1	1
588.659	1	10
588.829	1	-5
588.998	1	14
589.168	1	5
589.338	1	13
589.508	1	-2
589.677	1	11
589.847	1	-5
590.017	1	14
590.187	1	1
590.357	1	4
590.526	1	1
590.696	1	0
590.866	1	12
591.036	1	-4
591.205	1	3
591.375	1	2
591.545	1	-2
591.715	1	3
591.885	1	0
592.054	1	15
592.224	1	10
592.394	1	7
592.564	1	3
592.733	1	9
592.903	1	-7
593.073	1	8
593.243	1	-9
593.412	1	3
593.582	1	2
593.752	1	12
593.922	1	11
594.091	1	8
594.261	1	5
594.431	1	0
594.601	1	9
594.771	1	4
594.940	1	-6
595.110	1	3
595.280	1	0
595.450	1	1
595.619	1	11
595.789	1	-3
595.959	1	7
596.129	1	2
596.298	1	0
596.468	1	3
596.638	1	-12
596.808	1	7
596.977	1	3
597.147	1	3
597.317	1	-1
597.487	1	4
597.656	1	11
597.826	1	10
597.996	1	-2
598.166	1	5
598.335	1	2
598.505	1	10
598.675	1	11
598.844	1	3
599.014	1	14
599.184	1	3
599.354	1	9
599.523	1	-1
599.693	1	0
599.863	1	-6
600.033	1	4
600.202	1	6
600.372	1	2
600.542	1	3
600.712	1	4
600.881	1	4
601.051	1	2
601.221	1	-4
601.390	1	0
601.560	1	9
601.730	1	-2
601.900	1	6
602.069	1	-4
602.239	1	3
602.409	1	1
602.578	1	7
602.748	1	-1
602.918	1	0
603.088	1	0
603.257	1	0
603.427	1	10
603.597	1	11
603.767	1	-2
603.936	1	12
604.106	1	11
604.276	1	6
604.445	1	9
604.615	1	-11
604.785	1	3
604.954	1	-3
605.124	1	-1
605.294	1	8
605.464	1	12
605.633	1	2
605.803	1	1
605.973	1	-8
606.142	1	4
606.312	1	-2
606.482	1	4
606.652	1	-3
606.821	1	10
606.991	1	11
607.161	1	1
607.330	1	5
607.500	1	13
607.670	1	12
607.839	1	-4
608.009	1	2
608.179	1	5
608.348	1	3
608.518	1	-3
608.688	1	-1
608.858	1	6
609.027	1	-4
609.197	1	1
609.367	1	-2
609.536	1	2
609.706	1	5
609.876	1	-4
610.045	1	4
610.215	1	0
610.385	1	-6
610.554	1	0
610.724	1	-4
610.894	1	14
611.063	1	6
611.233	1	-6
611.403	1	11
611.572	1	3
611.742	1	-4
611.912	1	5
612.081	1	0
612.251	1	17
612.421	1	-2
612.590	1	1
612.760	1	-8
612.930	1	-5
613.099	1	10
613.269	1	2
613.439	1	-2
613.608	1	8
613.778	1	-1
613.948	1	4
614.117	1	4
614.287	1	7
614.457	1	-3
614.626	1	0
614.796	1	6
614.966	1	0
615.135	1	10
615.305	1	-6
615.475	1	2
615.644	1	-5
615.814	1	3
615.984	1	12
616.153	1	6
616.323	1	11
616.493	1	0
616.662	1	10
616.832	1	10
617.002	1	-4
617.171	1	1
617.341	1	4
617.511	1	2
617.680	1	4
617.850	1	1
618.019	1	-1
618.189	1	-4
618.359	1	1
618.528	1	0
618.698	1	6
618.868	1	0
619.037	1	2
619.207	1	-4
619.377	1	-8
619.546	1	7
619.716	1	2
619.885	1	7
620.055	1	-2
620.225	1	10
620.394	1	4
620.564	1	2
620.734	1	-1
620.903	1	15
621.073	1	-4
621.242	1	-4
621.412	1	11
621.582	1	4
621.751	1	-8
621.921	1	5
622.091	1	8
622.260	1	-2
622.430	1	13
622.599	1	7
622.769	1	1
622.939	1	0
623.108	1	-5
623.278	1	4
623.448	1	-1
623.617	1	-7
623.787	1	0
623.956	1	-2
624.126	1	2
624.296	1	5
624.465	1	13
624.635	1	19
624.804	1	-2
624.974	1	1
625.144	1	4
625.313	1	-1
625.483	1	5
625.652	1	-3
625.822	1	0
625.992	1	13
626.161	1	6
626.331	1	2
626.501	1	-3
626.670	1	2
626.840	1	-6
627.009	1	12
627.179	1	-1
627.348	1	12
627.518	1	-1
627.688	1	11
627.857	1	15
628.027	1	6
628.196	1	9
628.366	1	-2
628.536	1	-8
628.705	1	-7
628.875	1	7
629.044	1	-3
629.214	1	-2
629.384	1	4
629.553	1	5
629.723	1	-6
629.892	1	4
630.062	1	3
630.232	1	3
630.401	1	-4
630.571	1	8
630.740	1	-4
630.910	1	4
631.079	1	3
631.249	1	-3
631.419	1	10
631.588	1	-3
631.758	1	13
631.927	1	-2
632.097	1	1
632.266	1	-2
632.436	1	5
632.606	1	-5
632.775	1	-2
632.945	1	1
633.114	1	-6
633.284	1	13
633.453	1	4
633.623	1	0
633.793	1	10
633.962	1	1
634.132	1	12
634.301	1	1
634.471	1	5
634.640	1	7
634.810	1	-1
634.979	1	-4
635.149	1	0
635.319	1	1
635.488	1	9
635.658	1	10
635.827	1	4
635.997	1	10
636.166	1	-3
636.336	1	6
636.505	1	-8
636.675	1	5
636.845	1	-1
637.014	1	13
637.184	1	5
637.353	1	1
637.523	1	9
637.692	1	2
637.862	1	14
638.031	1	-5
638.201	1	4
638.370	1	1
638.540	1	7
638.710	1	2
638.879	1	4
639.049	1	4
639.218	1	-4
639.388	1	4
639.557	1	-6
639.727	1	1
639.896	1	1
640.066	1	3
640.235	1	1
640.405	1	-3
640.574	1	4
640.744	1	11
640.914	1	-2
641.083	1	10
641.253	1	4
641.422	1	4
641.592	1	5
641.761	1	3
641.931	1	8
642.100	1	-13
642.270	1	-2
642.439	1	-4
642.609	1	1
642.778	1	-9
642.948	1	9
643.117	1	7
643.287	1	3
643.456	1	18
643.626	1	2
643.795	1	1
643.965	1	7
644.134	1	-6
644.304	1	-5
644.473	1	2
644.643	1	-2
644.812	1	-1
644.982	1	1
645.151	1	6
645.321	1	-5
645.490	1	14
645.660	1	1
645.829	1	6
645.999	1	9
646.168	1	4
646.338	1	9
646.507	1	-6
646.677	1	3
646.846	1	10
647.016	1	5
647.185	1	15
647.355	1	5
647.524	1	-2
647.694	1	-3
647.863	1	-3
648.033	1	-4
648.202	1	11
648.372	1	12
648.541	1	2
648.711	1	6
648.880	1	10
649.050	1	-3
649.219	1	7
649.389	1	-5
649.558	1	1
649.728	1	3
649.897	1	3
650.067	1	5
650.236	1	15
650.406	1	6
650.575	1	-11
650.745	1	9
650.914	1	-2
651.084	1	8
651.253	1	9
651.423	1	-3
651.592	1	-1
651.762	1	5
651.931	1	9
652.101	1	3
652.270	1	-15
652.440	1	3
652.609	1	-7
652.778	1	8
652.948	1	-1
653.117	1	11
653.287	1	0
653.456	1	-9
653.626	1	6
653.795	1	2
653.965	1	6
654.134	1	0
654.304	1	2
654.473	1	0
654.643	1	-8
654.812	1	13
654.982	1	-1
655.151	1	3
655.320	1	9
655.490	1	2
655.659	1	7
655.829	1	-2
655.998	1	6
656.168	1	-5
656.337	1	2
656.507	1	5
656.676	1	0
656.846	1	4
657.015	1	6
657.184	1	7
657.354	1	4
657.523	1	-6
657.693	1	3
657.862	1	0
658.032	1	6
658.201	1	7
658.371	1	10
658.540	1	-3
658.709	1	-1
658.879	1	10
659.048	1	6
659.218	1	5
659.387	1	-3
659.557	1	7
659.726	1	-3
659.895	1	5
660.065	1	-8
660.234	1	12
660.404	1	1
660.573	1	-3
660.743	1	-1
660.912	1	-4
661.081	1	4
661.251	1	6
661.420	1	12
661.590	1	3
661.759	1	-1
661.929	1	4
662.098	1	5
662.267	1	3
662.437	1	2
662.606	1	2
662.776	1	-1
662.945	1	2
663.115	1	-4
663.284	1	6
663.453	1	7
663.623	1	0
663.792	1	7
663.962	1	-4
664.131	1	9
664.300	1	15
664.470	1	7
664.639	1	6
664.809	1	-2
664.978	1	-2
665.148	1	3
665.317	1	-1
665.486	1	8
665.656	1	-3
665.825	1	0
665.995	1	-8
666.164	1	0
666.333	1	3
666.503	1	15
666.672	1	6
666.842	1	4
667.011	1	6
667.180	1	-2
667.350	1	7
667.519	1	-1
667.689	1	7
667.858	1	-3
668.027	1	-1
668.197	1	5
668.366	1	6
668.536	1	7
668.705	1	2
668.874	1	-2
669.044	1	-6
669.213	1	-2
669.382	1	2
669.552	1	11
669.721	1	5
669.891	1	-2
670.060	1	6
670.229	1	-3
670.399	1	1
670.568	1	6
670.738	1	6
670.907	1	2
671.076	1	2
671.246	1	7
671.415	1	-6
671.584	1	0
671.754	1	4
671.923	1	-6
672.093	1	-3
672.262	1	3
672.431	1	8
672.601	1	3
672.770	1	-1
672.939	1	5
673.109	1	1
673.278	1	9
673.448	1	6
673.617	1	1
673.786	1	8
