325.333	1	12
325.504	1	2
325.675	1	3
325.846	1	-3
326.017	1	17
326.188	1	14
326.359	1	-9
326.531	1	19
326.702	1	14
326.873	1	8
327.044	1	2
327.215	1	4
327.386	1	-1
327.557	1	4
327.728	1	6
327.899	1	4
328.070	1	9
328.241	1	13
328.412	1	-7
328.583	1	-9
328.754	1	3
328.926	1	7
329.097	1	-4
329.268	1	-4
329.439	1	11
329.610	1	9
329.781	1	9
329.952	1	-1
330.123	1	-1
330.294	1	5
330.465	1	4
330.636	1	10
330.807	1	6
330.978	1	8
331.149	1	6
331.320	1	10
331.492	1	11
331.663	1	8
331.834	1	8
332.005	1	7
332.176	1	12
332.347	1	-5
332.518	1	21
332.689	1	4
332.860	1	-7
333.031	1	4
333.202	1	-1
333.373	1	12
333.544	1	3
333.715	1	1
333.886	1	11
334.057	1	14
334.228	1	5
334.399	1	4
334.570	1	11
334.741	1	3
334.912	1	4
335.084	1	15
335.255	1	21
335.426	1	5
335.597	1	4
335.768	1	11
335.939	1	7
336.110	1	13
336.281	1	1
336.452	1	3
336.623	1	13
336.794	1	2
336.965	1	10
337.136	1	-9
337.307	1	4
337.478	1	-3
337.649	1	-6
337.820	1	6
337.991	1	3
338.162	1	0
338.333	1	1
338.504	1	11
338.675	1	-1
338.846	1	13
339.017	1	0
339.188	1	9
339.359	1	21
339.530	1	1
339.701	1	-1
339.872	1	14
340.043	1	-3
340.214	1	6
340.385	1	4
340.556	1	9
340.727	1	16
340.898	1	-1
341.069	1	2
341.240	1	7
341.411	1	9
341.582	1	7
341.753	1	6
341.924	1	3
342.095	1	11
342.266	1	5
342.437	1	15
342.608	1	-3
342.779	1	1
342.950	1	0
343.121	1	7
343.292	1	14
343.463	1	8
343.634	1	12
343.805	1	0
343.976	1	3
344.147	1	8
344.318	1	16
344.489	1	3
344.660	1	15
344.831	1	7
345.002	1	10
345.173	1	7
345.344	1	6
345.515	1	2
345.686	1	3
345.857	1	5
346.028	1	13
346.199	1	-1
346.370	1	2
346.541	1	-1
346.712	1	10
346.883	1	3
347.054	1	10
347.225	1	3
347.396	1	8
347.567	1	4
347.738	1	1
347.909	1	-2
348.080	1	1
348.251	1	6
348.422	1	14
348.593	1	14
348.764	1	2
348.935	1	-4
349.106	1	2
349.277	1	-1
349.448	1	4
349.619	1	0
349.790	1	2
349.961	1	16
350.132	1	3
350.303	1	9
350.474	1	11
350.645	1	8
350.816	1	12
350.987	1	8
351.157	1	2
351.328	1	1
351.499	1	-4
351.670	1	13
351.841	1	16
352.012	1	0
352.183	1	11
352.354	1	9
352.525	1	13
352.696	1	3
352.867	1	2
353.038	1	5
353.209	1	15
353.380	1	9
353.551	1	12
353.722	1	6
353.893	1	2
354.064	1	14
354.235	1	8
354.406	1	14
354.576	1	3
354.747	1	18
354.918	1	9
355.089	1	12
355.260	1	4
355.431	1	2
355.602	1	6
355.773	1	0
355.944	1	2
356.115	1	9
356.286	1	5
356.457	1	12
356.628	1	22
356.799	1	12
356.970	1	8
357.141	1	8
357.311	1	2
357.482	1	-4
357.653	1	1
357.824	1	-4
357.995	1	9
358.166	1	15
358.337	1	7
358.508	1	5
358.679	1	14
358.850	1	11
359.021	1	6
359.192	1	-1
359.363	1	6
359.533	1	12
359.704	1	-1
359.875	1	8
360.046	1	9
360.217	1	15
360.388	1	3
360.559	1	13
360.730	1	14
360.901	1	14
361.072	1	6
361.243	1	7
361.414	1	-1
361.584	1	-1
361.755	1	7
361.926	1	2
362.097	1	15
362.268	1	13
362.439	1	10
362.610	1	6
362.781	1	8
362.952	1	4
363.123	1	6
363.293	1	20
363.464	1	20
363.635	1	20
363.806	1	-6
363.977	1	3
364.148	1	2
364.319	1	15
364.490	1	11
364.661	1	-1
364.832	1	1
365.002	1	0
365.173	1	14
365.344	1	6
365.515	1	10
365.686	1	1
365.857	1	6
366.028	1	8
366.199	1	7
366.370	1	4
366.540	1	8
366.711	1	2
366.882	1	8
367.053	1	-5
367.224	1	11
367.395	1	16
367.566	1	4
367.737	1	5
367.908	1	5
368.078	1	4
368.249	1	12
368.420	1	4
368.591	1	-4
368.762	1	3
368.933	1	9
369.104	1	7
369.274	1	1
369.445	1	8
369.616	1	-5
369.787	1	-1
369.958	1	-4
370.129	1	16
370.300	1	16
370.471	1	2
370.641	1	8
370.812	1	11
370.983	1	10
371.154	1	7
371.325	1	6
371.496	1	-5
371.667	1	1
371.837	1	10
372.008	1	14
372.179	1	4
372.350	1	11
372.521	1	7
372.692	1	5
372.863	1	18
373.033	1	6
373.204	1	-3
373.375	1	-2
373.546	1	-1
373.717	1	1
373.888	1	8
374.059	1	10
374.229	1	2
374.400	1	5
374.571	1	1
374.742	1	11
374.913	1	0
375.084	1	11
375.254	1	-1
375.425	1	9
375.596	1	-2
375.767	1	14
375.938	1	10
376.109	1	16
376.279	1	1
376.450	1	8
376.621	1	10
376.792	1	13
376.963	1	-2
377.134	1	9
377.304	1	13
377.475	1	11
377.646	1	3
377.817	1	9
377.988	1	11
378.159	1	-3
378.329	1	8
378.500	1	16
378.671	1	11
378.842	1	12
379.013	1	6
379.184	1	10
379.354	1	7
379.525	1	5
379.696	1	22
379.867	1	18
380.038	1	12
380.209	1	14
380.379	1	12
380.550	1	4
380.721	1	11
380.892	1	1
381.063	1	5
381.233	1	8
381.404	1	4
381.575	1	18
381.746	1	4
381.917	1	3
382.087	1	20
382.258	1	11
382.429	1	-3
382.600	1	6
382.771	1	4
382.941	1	8
383.112	1	2
383.283	1	9
383.454	1	10
383.625	1	10
383.795	1	15
383.966	1	16
384.137	1	9
384.308	1	13
384.479	1	12
384.649	1	7
384.820	1	16
384.991	1	9
385.162	1	13
385.333	1	4
385.503	1	-3
385.674	1	13
385.845	1	15
386.016	1	15
386.187	1	6
386.357	1	13
386.528	1	14
386.699	1	8
386.870	1	3
387.041	1	17
387.211	1	8
387.382	1	10
387.553	1	10
387.724	1	7
387.894	1	20
388.065	1	8
388.236	1	12
388.407	1	8
388.578	1	14
388.748	1	2
388.919	1	3
389.090	1	11
389.261	1	0
389.431	1	18
389.602	1	11
389.773	1	8
389.944	1	11
390.114	1	20
390.285	1	21
390.456	1	6
390.627	1	16
390.798	1	3
390.968	1	-2
391.139	1	22
391.310	1	12
391.481	1	14
391.651	1	2
391.822	1	23
391.993	1	16
392.164	1	7
392.334	1	9
392.505	1	6
392.676	1	8
392.847	1	13
393.017	1	16
393.188	1	8
393.359	1	4
393.530	1	11
393.700	1	14
393.871	1	12
394.042	1	5
394.213	1	2
394.383	1	14
394.554	1	14
394.725	1	9
394.896	1	17
395.066	1	21
395.237	1	9
395.408	1	3
395.579	1	4
395.749	1	-1
395.920	1	-4
396.091	1	18
396.262	1	10
396.432	1	13
396.603	1	14
396.774	1	-4
396.945	1	6
397.115	1	9
397.286	1	10
397.457	1	12
397.627	1	13
397.798	1	12
397.969	1	11
398.140	1	3
398.310	1	13
398.481	1	16
398.652	1	21
398.823	1	14
398.993	1	8
399.164	1	10
399.335	1	17
399.505	1	20
399.676	1	15
399.847	1	22
400.018	1	20
400.188	1	17
400.359	1	14
400.530	1	12
400.700	1	9
400.871	1	18
401.042	1	13
401.213	1	8
401.383	1	15
401.554	1	7
401.725	1	6
401.895	1	16
402.066	1	11
402.237	1	9
402.408	1	6
402.578	1	12
402.749	1	17
402.920	1	14
403.090	1	15
403.261	1	25
403.432	1	17
403.603	1	14
403.773	1	15
403.944	1	12
404.115	1	10
404.285	1	11
404.456	1	6
404.627	1	18
404.797	1	7
404.968	1	22
405.139	1	6
405.310	1	18
405.480	1	0
405.651	1	3
405.822	1	13
405.992	1	13
406.163	1	11
406.334	1	8
406.504	1	12
406.675	1	11
406.846	1	19
407.016	1	16
407.187	1	4
407.358	1	16
407.528	1	3
407.699	1	-2
407.870	1	17
408.041	1	25
408.211	1	13
408.382	1	29
408.553	1	10
408.723	1	7
408.894	1	16
409.065	1	10
409.235	1	11
409.406	1	15
409.577	1	21
409.747	1	18
409.918	1	15
410.089	1	12
410.259	1	15
410.430	1	9
410.601	1	10
410.771	1	11
410.942	1	12
411.113	1	20
411.283	1	11
411.454	1	12
411.625	1	3
411.795	1	18
411.966	1	18
412.137	1	16
412.307	1	6
412.478	1	3
412.649	1	11
412.819	1	20
412.990	1	9
413.161	1	22
413.331	1	18
413.502	1	22
413.672	1	5
413.843	1	13
414.014	1	16
414.184	1	11
414.355	1	8
414.526	1	2
414.696	1	13
414.867	1	11
415.038	1	14
415.208	1	2
415.379	1	1
415.550	1	11
415.720	1	7
415.891	1	16
416.062	1	13
416.232	1	16
416.403	1	11
416.573	1	20
416.744	1	7
416.915	1	-2
417.085	1	20
417.256	1	10
417.427	1	8
417.597	1	14
417.768	1	21
417.939	1	14
418.109	1	13
418.280	1	13
418.450	1	16
418.621	1	8
418.792	1	11
418.962	1	10
419.133	1	16
419.304	1	13
419.474	1	22
419.645	1	9
419.815	1	6
419.986	1	10
420.157	1	23
420.327	1	8
420.498	1	5
420.669	1	11
420.839	1	13
421.010	1	6
421.180	1	17
421.351	1	29
421.522	1	13
421.692	1	7
421.863	1	18
422.033	1	16
422.204	1	7
422.375	1	6
422.545	1	14
422.716	1	22
422.886	1	17
423.057	1	20
423.228	1	15
423.398	1	16
423.569	1	25
423.740	1	2
423.910	1	10
424.081	1	16
424.251	1	16
424.422	1	12
424.593	1	21
424.763	1	10
424.934	1	5
425.104	1	6
425.275	1	26
425.445	1	4
425.616	1	19
425.787	1	12
425.957	1	3
426.128	1	8
426.298	1	5
426.469	1	15
426.640	1	12
426.810	1	13
426.981	1	7
427.151	1	11
427.322	1	13
427.493	1	9
427.663	1	2
427.834	1	14
428.004	1	17
428.175	1	3
428.345	1	5
428.516	1	16
428.687	1	16
428.857	1	25
429.028	1	7
429.198	1	6
429.369	1	0
429.540	1	10
429.710	1	25
429.881	1	21
430.051	1	9
430.222	1	16
430.392	1	18
430.563	1	16
430.734	1	18
430.904	1	9
431.075	1	11
431.245	1	13
431.416	1	14
431.586	1	6
431.757	1	21
431.927	1	6
432.098	1	17
432.269	1	19
432.439	1	6
432.610	1	9
432.780	1	-2
432.951	1	16
433.121	1	13
433.292	1	21
433.462	1	13
433.633	1	17
433.804	1	5
433.974	1	16
434.145	1	6
434.315	1	11
434.486	1	18
434.656	1	18
434.827	1	5
434.997	1	12
435.168	1	17
435.339	1	8
435.509	1	9
435.680	1	8
435.850	1	10
436.021	1	7
436.191	1	11
436.362	1	20
436.532	1	26
436.703	1	12
436.873	1	8
437.044	1	18
437.214	1	-2
437.385	1	10
437.556	1	3
437.726	1	22
437.897	1	9
438.067	1	21
438.238	1	15
438.408	1	19
438.579	1	26
438.749	1	15
438.920	1	4
439.090	1	8
439.261	1	9
439.431	1	15
439.602	1	22
439.772	1	12
439.943	1	14
440.113	1	20
440.284	1	19
440.455	1	20
440.625	1	12
440.796	1	12
440.966	1	16
441.137	1	9
441.307	1	16
441.478	1	9
441.648	1	13
441.819	1	15
441.989	1	13
442.160	1	20
442.330	1	3
442.501	1	-2
442.671	1	8
442.842	1	10
443.012	1	2
443.183	1	21
443.353	1	6
443.524	1	13
443.694	1	21
443.865	1	12
444.035	1	4
444.206	1	6
444.376	1	23
444.547	1	6
444.717	1	15
444.888	1	10
445.058	1	4
445.229	1	8
445.399	1	14
445.570	1	9
445.740	1	7
445.911	1	4
446.081	1	7
446.252	1	-1
446.422	1	7
446.593	1	20
446.763	1	19
446.934	1	11
447.104	1	-4
447.275	1	17
447.445	1	9
447.616	1	7
447.786	1	11
447.957	1	11
448.127	1	13
448.298	1	22
448.468	1	23
448.639	1	11
448.809	1	5
448.979	1	20
449.150	1	18
449.320	1	16
449.491	1	4
449.661	1	13
449.832	1	9
450.002	1	9
450.173	1	7
450.343	1	13
450.514	1	6
450.684	1	1
450.855	1	2
451.025	1	22
451.196	1	-2
451.366	1	14
451.537	1	8
451.707	1	11
451.878	1	14
452.048	1	16
452.218	1	16
452.389	1	9
452.559	1	16
452.730	1	11
452.900	1	9
453.071	1	2
453.241	1	16
453.412	1	17
453.582	1	11
453.753	1	6
453.923	1	17
454.093	1	18
454.264	1	16
454.434	1	12
454.605	1	-1
454.775	1	-8
454.946	1	5
455.116	1	9
455.287	1	16
455.457	1	8
455.628	1	9
455.798	1	16
455.968	1	0
456.139	1	5
456.309	1	13
456.480	1	3
456.650	1	6
456.821	1	12
456.991	1	23
457.161	1	9
457.332	1	0
457.502	1	8
457.673	1	6
457.843	1	16
458.014	1	11
458.184	1	23
458.355	1	23
458.525	1	2
458.695	1	0
458.866	1	20
459.036	1	3
459.207	1	11
459.377	1	12
459.548	1	8
459.718	1	9
459.888	1	15
460.059	1	14
460.229	1	10
460.400	1	-6
460.570	1	9
460.740	1	-4
460.911	1	5
461.081	1	11
461.252	1	18
461.422	1	28
461.593	1	13
461.763	1	10
461.933	1	9
462.104	1	11
462.274	1	4
462.445	1	10
462.615	1	8
462.785	1	11
462.956	1	3
463.126	1	5
463.297	1	7
463.467	1	18
463.638	1	20
463.808	1	8
463.978	1	16
464.149	1	14
464.319	1	-3
464.490	1	-4
464.660	1	10
464.830	1	8
465.001	1	20
465.171	1	12
465.342	1	21
465.512	1	21
465.682	1	2
465.853	1	12
466.023	1	9
466.194	1	5
466.364	1	0
466.534	1	17
466.705	1	7
466.875	1	14
467.045	1	11
467.216	1	21
467.386	1	15
467.557	1	8
467.727	1	5
467.897	1	2
468.068	1	7
468.238	1	9
468.409	1	13
468.579	1	14
468.749	1	6
468.920	1	9
469.090	1	6
469.260	1	16
469.431	1	-3
469.601	1	9
469.772	1	12
469.942	1	4
470.112	1	9
470.283	1	15
470.453	1	7
470.623	1	1
470.794	1	6
470.964	1	9
471.135	1	19
471.305	1	24
471.475	1	12
471.646	1	14
471.816	1	16
471.986	1	16
472.157	1	11
472.327	1	18
472.497	1	6
472.668	1	13
472.838	1	1
473.009	1	1
473.179	1	8
473.349	1	16
473.520	1	3
473.690	1	9
473.860	1	2
474.031	1	2
474.201	1	0
474.371	1	7
474.542	1	8
474.712	1	20
474.882	1	4
475.053	1	5
475.223	1	11
475.394	1	18
475.564	1	11
475.734	1	14
475.905	1	2
476.075	1	3
476.245	1	1
476.416	1	14
476.586	1	9
476.756	1	-1
476.927	1	6
477.097	1	15
477.267	1	15
477.438	1	2
477.608	1	-2
477.778	1	10
477.949	1	12
478.119	1	-4
478.289	1	13
478.460	1	10
478.630	1	2
478.800	1	1
478.971	1	10
479.141	1	6
479.311	1	5
479.482	1	5
479.652	1	1
479.822	1	4
479.993	1	14
480.163	1	15
480.333	1	-1
480.504	1	3
480.674	1	4
480.844	1	3
481.015	1	1
481.185	1	3
481.355	1	11
481.525	1	3
481.696	1	14
481.866	1	11
482.036	1	20
482.207	1	8
482.377	1	2
482.547	1	-2
482.718	1	7
482.888	1	12
483.058	1	4
483.229	1	7
483.399	1	2
483.569	1	13
483.740	1	14
483.910	1	19
484.080	1	13
484.250	1	10
484.421	1	6
484.591	1	8
484.761	1	16
484.932	1	7
485.102	1	5
485.272	1	11
485.443	1	-1
485.613	1	2
485.783	1	2
485.953	1	4
486.124	1	14
486.294	1	13
486.464	1	4
486.635	1	6
486.805	1	16
486.975	1	5
487.146	1	-7
487.316	1	9
487.486	1	11
487.656	1	6
487.827	1	8
487.997	1	12
488.167	1	-3
488.338	1	14
488.508	1	10
488.678	1	5
488.848	1	-3
489.019	1	-3
489.189	1	13
489.359	1	13
489.529	1	13
489.700	1	7
489.870	1	13
490.040	1	14
490.211	1	1
490.381	1	9
490.551	1	15
490.721	1	2
490.892	1	11
491.062	1	9
491.232	1	3
491.402	1	17
491.573	1	4
491.743	1	2
491.913	1	19
492.084	1	8
492.254	1	-2
492.424	1	-1
492.594	1	10
492.765	1	2
492.935	1	-3
493.105	1	18
493.275	1	4
493.446	1	5
493.616	1	14
493.786	1	-4
493.956	1	-2
494.127	1	11
494.297	1	9
494.467	1	6
494.637	1	11
494.808	1	10
494.978	1	9
495.148	1	15
495.318	1	11
495.489	1	17
495.659	1	8
495.829	1	6
495.999	1	0
496.170	1	5
496.340	1	-1
496.510	1	19
496.680	1	0
496.851	1	10
497.021	1	9
497.191	1	9
497.361	1	8
497.532	1	12
497.702	1	4
497.872	1	5
498.042	1	7
498.213	1	3
498.383	1	-1
498.553	1	6
498.723	1	2
498.894	1	14
499.064	1	8
499.234	1	16
499.404	1	0
499.574	1	-5
499.745	1	16
499.915	1	-1
500.085	1	10
500.255	1	10
500.426	1	2
500.596	1	14
500.766	1	16
500.936	1	10
501.106	1	6
501.277	1	5
501.447	1	4
501.617	1	8
501.787	1	3
501.958	1	15
502.128	1	11
502.298	1	-3
502.468	1	3
502.638	1	9
502.809	1	6
502.979	1	13
503.149	1	9
503.319	1	2
503.489	1	1
503.660	1	-2
503.830	1	20
504.000	1	7
504.170	1	7
504.340	1	-4
504.511	1	8
504.681	1	9
504.851	1	8
505.021	1	11
505.192	1	-3
505.362	1	5
505.532	1	-8
505.702	1	7
505.872	1	6
506.043	1	12
506.213	1	6
506.383	1	5
506.553	1	16
506.723	1	-6
506.893	1	-1
507.064	1	18
507.234	1	-3
507.404	1	3
507.574	1	21
507.744	1	19
507.915	1	-2
508.085	1	5
508.255	1	13
508.425	1	1
508.595	1	-5
508.766	1	-10
508.936	1	5
509.106	1	7
509.276	1	2
509.446	1	10
509.616	1	11
509.787	1	5
509.957	1	12
510.127	1	-7
510.297	1	-2
510.467	1	6
510.638	1	4
510.808	1	-7
510.978	1	10
511.148	1	6
511.318	1	-3
511.488	1	10
511.659	1	7
511.829	1	0
511.999	1	12
512.169	1	11
512.339	1	11
512.509	1	9
512.680	1	-1
512.850	1	5
513.020	1	-3
513.190	1	1
513.360	1	2
513.530	1	20
513.700	1	16
513.871	1	7
514.041	1	7
514.211	1	13
514.381	1	2
514.551	1	1
514.721	1	0
514.892	1	7
515.062	1	2
515.232	1	-8
515.402	1	-9
515.572	1	4
515.742	1	10
515.912	1	12
516.083	1	6
516.253	1	6
516.423	1	0
516.593	1	-9
516.763	1	-10
516.933	1	-10
517.104	1	7
517.274	1	4
517.444	1	7
517.614	1	6
517.784	1	2
517.954	1	6
518.124	1	3
518.294	1	12
518.465	1	9
518.635	1	-3
518.805	1	5
518.975	1	0
519.145	1	-1
519.315	1	5
519.485	1	4
519.656	1	15
519.826	1	14
519.996	1	17
520.166	1	-1
520.336	1	-5
520.506	1	-2
520.676	1	-2
520.846	1	11
521.017	1	7
521.187	1	6
521.357	1	-1
521.527	1	12
521.697	1	-5
521.867	1	6
522.037	1	3
522.207	1	-2
522.377	1	12
522.548	1	2
522.718	1	4
522.888	1	1
523.058	1	5
523.228	1	7
523.398	1	6
523.568	1	4
523.738	1	-1
523.909	1	-4
524.079	1	-11
524.249	1	7
524.419	1	12
524.589	1	8
524.759	1	6
524.929	1	-3
525.099	1	-2
525.269	1	6
525.439	1	12
525.610	1	3
525.780	1	12
525.950	1	-9
526.120	1	-1
526.290	1	-5
526.460	1	14
526.630	1	10
526.800	1	9
526.970	1	9
527.140	1	10
527.311	1	-1
527.481	1	-2
527.651	1	2
527.821	1	3
527.991	1	1
528.161	1	6
528.331	1	16
528.501	1	7
528.671	1	-2
528.841	1	10
529.011	1	3
529.181	1	0
529.352	1	15
529.522	1	-3
529.692	1	0
529.862	1	-9
530.032	1	6
530.202	1	-3
530.372	1	2
530.542	1	4
530.712	1	20
530.882	1	4
531.052	1	6
531.222	1	6
531.392	1	3
531.563	1	0
531.733	1	-2
531.903	1	7
532.073	1	10
532.243	1	16
532.413	1	5
532.583	1	14
532.753	1	11
532.923	1	-9
533.093	1	2
533.263	1	21
533.433	1	4
533.603	1	-4
533.773	1	-3
533.943	1	1
534.113	1	8
534.284	1	4
534.454	1	1
534.624	1	2
534.794	1	3
534.964	1	7
535.134	1	3
535.304	1	5
535.474	1	5
535.644	1	16
535.814	1	-2
535.984	1	-1
536.154	1	7
536.324	1	-1
536.494	1	11
536.664	1	1
536.834	1	-6
537.004	1	-9
537.174	1	12
537.344	1	9
537.514	1	4
537.685	1	9
537.855	1	15
538.025	1	3
538.195	1	10
538.365	1	-6
538.535	1	-1
538.705	1	3
538.875	1	2
539.045	1	12
539.215	1	5
539.385	1	4
539.555	1	4
539.725	1	3
539.895	1	-1
540.065	1	-2
540.235	1	0
540.405	1	7
540.575	1	-7
540.745	1	17
540.915	1	7
541.085	1	6
541.255	1	-1
541.425	1	0
541.595	1	11
541.765	1	-2
541.935	1	6
542.105	1	10
542.275	1	11
542.445	1	2
542.615	1	4
542.785	1	-5
542.955	1	8
543.125	1	1
543.295	1	2
543.465	1	12
543.635	1	3
543.805	1	-5
543.975	1	5
544.145	1	1
544.315	1	9
544.485	1	2
544.655	1	-5
544.825	1	6
544.995	1	-1
545.165	1	9
545.335	1	3
545.505	1	0
545.675	1	6
545.845	1	-1
546.015	1	-5
546.185	1	4
546.355	1	4
546.525	1	5
546.695	1	1
546.865	1	-9
547.035	1	13
547.205	1	5
547.375	1	4
547.545	1	3
547.715	1	0
547.885	1	-3
548.055	1	3
548.225	1	-10
548.395	1	6
548.565	1	8
548.735	1	12
548.905	1	1
549.075	1	6
549.245	1	4
549.415	1	-2
549.585	1	-6
549.755	1	7
549.925	1	10
550.095	1	11
550.265	1	5
550.435	1	7
550.605	1	5
550.775	1	10
550.945	1	-3
551.115	1	14
551.285	1	2
551.455	1	6
551.625	1	11
551.795	1	4
551.965	1	3
552.135	1	11
552.305	1	0
552.475	1	3
552.645	1	8
552.815	1	10
552.985	1	11
553.155	1	-6
553.325	1	13
553.495	1	-5
553.665	1	0
553.835	1	2
554.004	1	7
554.174	1	2
554.344	1	1
554.514	1	-1
554.684	1	1
554.854	1	11
555.024	1	1
555.194	1	9
555.364	1	7
555.534	1	11
555.704	1	-1
555.874	1	9
556.044	1	12
556.214	1	-11
556.384	1	7
556.554	1	5
556.724	1	8
556.894	1	2
557.064	1	11
557.234	1	2
557.404	1	3
557.573	1	-10
557.743	1	-4
557.913	1	-6
558.083	1	-3
558.253	1	-3
558.423	1	2
558.593	1	15
558.763	1	7
558.933	1	10
559.103	1	-8
559.273	1	18
559.443	1	-1
559.613	1	8
559.783	1	8
559.953	1	5
560.122	1	6
560.292	1	1
560.462	1	9
560.632	1	3
560.802	1	3
560.972	1	1
561.142	1	-8
561.312	1	-2
561.482	1	3
561.652	1	-2
561.822	1	11
561.992	1	-6
562.162	1	-1
562.331	1	-5
562.501	1	3
562.671	1	0
562.841	1	-12
563.011	1	-4
563.181	1	10
563.351	1	3
563.521	1	9
563.691	1	-4
563.861	1	3
564.031	1	12
564.201	1	8
564.370	1	-4
564.540	1	4
564.710	1	-5
564.880	1	13
565.050	1	6
565.220	1	0
565.390	1	4
565.560	1	4
565.730	1	2
565.900	1	-2
566.069	1	-4
566.239	1	-11
566.409	1	-2
566.579	1	9
566.749	1	-1
566.919	1	6
567.089	1	6
567.259	1	1
567.429	1	-3
567.599	1	7
567.768	1	7
567.938	1	6
568.108	1	-4
568.278	1	5
568.448	1	3
568.618	1	-4
568.788	1	-3
568.958	1	-1
569.128	1	7
569.297	1	-8
569.467	1	10
569.637	1	-5
569.807	1	9
569.977	1	2
570.147	1	3
570.317	1	-5
570.487	1	-8
570.656	1	0
570.826	1	-7
570.996	1	4
571.166	1	6
571.336	1	4
571.506	1	7
571.676	1	6
571.846	1	14
572.015	1	5
572.185	1	-5
572.355	1	9
572.525	1	-6
572.695	1	1
572.865	1	-4
573.035	1	10
573.205	1	7
573.374	1	22
573.544	1	3
573.714	1	15
573.884	1	6
574.054	1	14
574.224	1	-12
574.394	1	-1
574.563	1	12
574.733	1	5
574.903	1	-4
575.073	1	-10
575.243	1	-4
575.413	1	10
575.583	1	5
575.752	1	9
575.922	1	-5
576.092	1	11
576.262	1	9
576.432	1	-5
576.602	1	0
576.772	1	-3
576.941	1	11
577.111	1	-2
577.281	1	2
577.451	1	5
577.621	1	-4
577.791	1	5
577.960	1	7
578.130	1	2
578.300	1	-6
578.470	1	5
578.640	1	2
578.810	1	-5
578.979	1	5
579.149	1	2
579.319	1	5
579.489	1	5
579.659	1	-4
579.829	1	-11
579.998	1	3
580.168	1	3
580.338	1	12
580.508	1	10
580.678	1	6
580.848	1	2
581.017	1	4
581.187	1	18
581.357	1	5
581.527	1	9
581.697	1	-2
581.867	1	1
582.036	1	-1
582.206	1	-1
582.376	1	6
582.546	1	4
582.716	1	1
582.885	1	-2
583.055	1	10
583.225	1	10
583.395	1	8
583.565	1	1
583.735	1	13
583.904	1	5
584.074	1	-9
584.244	1	0
584.414	1	-2
584.584	1	1
584.753	1	-16
584.923	1	-7
585.093	1	-4
585.263	1	3
585.433	1	-8
585.602	1	14
585.772	1	7
585.942	1	1
586.112	1	4
586.282	1	3
586.451	1	9
586.621	1	16
586.791	1	2
586.961	1	6
587.131	1	9
587.300	1	3
587.470	1	1
587.640	1	-11
587.810	1	0
587.980	1	-13
588.149	1	10
588.319	1	-4
588.489	1	4
588.659	1	3
588.829	1	2
588.998	1	15
589.168	1	-3
589.338	1	2
589.508	1	-2
589.677	1	12
589.847	1	-6
590.017	1	15
590.187	1	7
590.357	1	10
590.526	1	10
590.696	1	4
590.866	1	8
591.036	1	-7
591.205	1	-2
591.375	1	3
591.545	1	10
591.715	1	7
591.885	1	2
592.054	1	10
592.224	1	3
592.394	1	3
592.564	1	5
592.733	1	10
592.903	1	1
593.073	1	2
593.243	1	-6
593.412	1	-2
593.582	1	11
593.752	1	4
593.922	1	7
594.091	1	-1
594.261	1	6
594.431	1	-5
594.601	1	1
594.771	1	6
594.940	1	2
595.110	1	9
595.280	1	1
595.450	1	-8
595.619	1	9
595.789	1	2
595.959	1	3
596.129	1	2
596.298	1	-7
596.468	1	-4
596.638	1	-8
596.808	1	14
596.977	1	5
597.147	1	3
597.317	1	2
597.487	1	9
597.656	1	8
597.826	1	11
597.996	1	6
598.166	1	9
598.335	1	0
598.505	1	0
598.675	1	14
598.844	1	11
599.014	1	9
599.184	1	3
599.354	1	1
599.523	1	8
599.693	1	1
599.863	1	7
600.033	1	3
600.202	1	-2
600.372	1	4
600.542	1	2
600.712	1	10
600.881	1	-2
601.051	1	-7
601.221	1	-3
601.390	1	10
601.560	1	9
601.730	1	1
601.900	1	8
602.069	1	8
602.239	1	5
602.409	1	10
602.578	1	5
602.748	1	-2
602.918	1	1
603.088	1	5
603.257	1	-3
603.427	1	11
603.597	1	11
603.767	1	0
603.936	1	-1
604.106	1	5
604.276	1	5
604.445	1	7
604.615	1	5
604.785	1	-4
604.954	1	3
605.124	1	0
605.294	1	6
605.464	1	9
605.633	1	-1
605.803	1	12
605.973	1	-7
606.142	1	9
606.312	1	0
606.482	1	-1
606.652	1	3
606.821	1	-3
606.991	1	20
607.161	1	-5
607.330	1	3
607.500	1	12
607.670	1	11
607.839	1	-2
608.009	1	3
608.179	1	10
608.348	1	5
608.518	1	-7
608.688	1	2
608.858	1	3
609.027	1	5
609.197	1	5
609.367	1	-3
609.536	1	3
609.706	1	5
609.876	1	-9
610.045	1	1
610.215	1	-5
610.385	1	5
610.554	1	2
610.724	1	2
610.894	1	14
611.063	1	-5
611.233	1	-11
611.403	1	16
611.572	1	7
611.742	1	1
611.912	1	3
612.081	1	-6
612.251	1	11
612.421	1	-3
612.590	1	-8
612.760	1	-5
612.930	1	7
613.099	1	2
613.269	1	2
613.439	1	1
613.608	1	2
613.778	1	3
613.948	1	1
614.117	1	0
614.287	1	7
614.457	1	2
614.626	1	7
614.796	1	5
614.966	1	-3
615.135	1	10
615.305	1	3
615.475	1	-5
615.644	1	-4
615.814	1	6
615.984	1	11
616.153	1	-2
616.323	1	18
616.493	1	0
616.662	1	14
616.832	1	13
617.002	1	2
617.171	1	8
617.341	1	-11
617.511	1	12
617.680	1	1
617.850	1	8
618.019	1	-4
618.189	1	-5
618.359	1	-1
618.528	1	4
618.698	1	13
618.868	1	-5
619.037	1	-5
619.207	1	2
619.377	1	1
619.546	1	4
619.716	1	-1
619.885	1	-3
620.055	1	2
620.225	1	13
620.394	1	10
620.564	1	1
620.734	1	6
620.903	1	12
621.073	1	10
621.242	1	-2
621.412	1	5
621.582	1	-8
621.751	1	-2
621.921	1	7
622.091	1	10
622.260	1	-5
622.430	1	2
622.599	1	0
622.769	1	9
622.939	1	6
623.108	1	1
623.278	1	5
623.448	1	-4
623.617	1	0
623.787	1	0
623.956	1	7
624.126	1	5
624.296	1	3
624.465	1	19
624.635	1	6
624.804	1	1
624.974	1	3
625.144	1	-2
625.313	1	12
625.483	1	5
625.652	1	4
625.822	1	-8
625.992	1	7
626.161	1	9
626.331	1	-1
626.501	1	7
626.670	1	-3
626.840	1	6
627.009	1	14
627.179	1	-9
627.348	1	21
627.518	1	3
627.688	1	15
627.857	1	9
628.027	1	-4
628.196	1	14
628.366	1	-1
628.536	1	2
628.705	1	5
628.875	1	14
629.044	1	-9
629.214	1	-3
629.384	1	7
629.553	1	5
629.723	1	-7
629.892	1	-2
630.062	1	8
630.232	1	10
630.401	1	10
630.571	1	7
630.740	1	2
630.910	1	-2
631.079	1	8
631.249	1	-1
631.419	1	3
631.588	1	3
631.758	1	7
631.927	1	1
632.097	1	-9
632.266	1	10
632.436	1	4
632.606	1	4
632.775	1	3
632.945	1	-5
633.114	1	-11
633.284	1	10
633.453	1	-4
633.623	1	-3
633.793	1	7
633.962	1	4
634.132	1	6
634.301	1	-4
634.471	1	5
634.640	1	7
634.810	1	4
634.979	1	-7
635.149	1	1
635.319	1	8
635.488	1	2
635.658	1	4
635.827	1	-1
635.997	1	10
636.166	1	1
636.336	1	3
636.505	1	-3
636.675	1	10
636.845	1	-5
637.014	1	12
637.184	1	6
637.353	1	3
637.523	1	-2
637.692	1	9
637.862	1	8
638.031	1	4
638.201	1	8
638.370	1	2
638.540	1	2
638.710	1	1
638.879	1	7
639.049	1	-11
639.218	1	-2
639.388	1	2
639.557	1	6
639.727	1	-3
639.896	1	2
640.066	1	6
640.235	1	5
640.405	1	0
640.574	1	8
640.744	1	13
640.914	1	-6
641.083	1	10
641.253	1	0
641.422	1	-4
641.592	1	8
641.761	1	1
641.931	1	9
642.100	1	-6
642.270	1	10
642.439	1	2
642.609	1	7
642.778	1	-2
642.948	1	9
643.117	1	6
643.287	1	2
643.456	1	16
643.626	1	13
643.795	1	10
643.965	1	0
644.134	1	-7
644.304	1	-11
644.473	1	4
644.643	1	0
644.812	1	-1
644.982	1	-8
645.151	1	0
645.321	1	-2
645.490	1	4
645.660	1	-1
645.829	1	0
645.999	1	5
646.168	1	1
646.338	1	11
646.507	1	2
646.677	1	-6
646.846	1	9
647.016	1	9
647.185	1	19
647.355	1	7
647.524	1	13
647.694	1	-4
647.863	1	-3
648.033	1	-2
648.202	1	12
648.372	1	5
648.541	1	-7
648.711	1	7
648.880	1	9
649.050	1	7
649.219	1	6
649.389	1	6
649.558	1	5
649.728	1	4
649.897	1	8
650.067	1	0
650.236	1	14
650.406	1	-2
650.575	1	-9
650.745	1	18
650.914	1	-2
651.084	1	13
651.253	1	3
651.423	1	5
651.592	1	4
651.762	1	5
651.931	1	7
652.101	1	6
652.270	1	-10
652.440	1	3
652.609	1	-2
652.778	1	14
652.948	1	1
653.117	1	9
653.287	1	1
653.456	1	-2
653.626	1	2
653.795	1	-1
653.965	1	3
654.134	1	11
654.304	1	8
654.473	1	13
654.643	1	1
654.812	1	6
654.982	1	18
655.151	1	-1
655.320	1	-1
655.490	1	8
655.659	1	5
655.829	1	2
655.998	1	12
656.168	1	2
656.337	1	8
656.507	1	7
656.676	1	4
656.846	1	11
657.015	1	0
657.184	1	1
657.354	1	-3
657.523	1	-7
657.693	1	-3
657.862	1	-2
658.032	1	7
658.201	1	-1
658.371	1	13
658.540	1	1
658.709	1	8
658.879	1	10
659.048	1	2
659.218	1	2
659.387	1	1
659.557	1	6
659.726	1	3
659.895	1	7
660.065	1	-6
660.234	1	3
660.404	1	5
660.573	1	-3
660.743	1	-4
660.912	1	4
661.081	1	8
661.251	1	-4
661.420	1	12
661.590	1	3
661.759	1	-1
661.929	1	-5
662.098	1	2
662.267	1	-1
662.437	1	5
662.606	1	11
662.776	1	3
662.945	1	-3
663.115	1	-2
663.284	1	5
663.453	1	1
663.623	1	4
663.792	1	-1
663.962	1	1
664.131	1	13
664.300	1	12
664.470	1	7
664.639	1	5
664.809	1	-1
664.978	1	-5
665.148	1	12
665.317	1	3
665.486	1	-1
665.656	1	-7
665.825	1	2
665.995	1	9
666.164	1	12
666.333	1	7
666.503	1	18
666.672	1	-5
666.842	1	-4
667.011	1	14
667.180	1	-1
667.350	1	7
667.519	1	3
667.689	1	16
667.858	1	-3
668.027	1	1
668.197	1	4
668.366	1	13
668.536	1	-1
668.705	1	-6
668.874	1	-10
669.044	1	-1
669.213	1	7
669.382	1	2
669.552	1	11
669.721	1	3
669.891	1	3
670.060	1	1
670.229	1	-1
670.399	1	3
670.568	1	-3
670.738	1	8
670.907	1	-1
671.076	1	9
671.246	1	4
671.415	1	-3
671.584	1	9
671.754	1	-2
671.923	1	-1
672.093	1	5
672.262	1	10
672.431	1	7
672.601	1	-1
672.770	1	7
672.939	1	8
673.109	1	3
673.278	1	0
673.448	1	6
673.617	1	-2
673.786	1	11
