325.333	1	18
325.504	1	5
325.675	1	-1
325.846	1	1
326.017	1	11
326.188	1	8
326.359	1	6
326.531	1	7
326.702	1	1
326.873	1	21
327.044	1	5
327.215	1	10
327.386	1	-3
327.557	1	5
327.728	1	4
327.899	1	0
328.070	1	4
328.241	1	12
328.412	1	5
328.583	1	3
328.754	1	0
328.926	1	7
329.097	1	-2
329.268	1	-8
329.439	1	6
329.610	1	3
329.781	1	8
329.952	1	12
330.123	1	2
330.294	1	10
330.465	1	5
330.636	1	13
330.807	1	6
330.978	1	13
331.149	1	11
331.320	1	4
331.492	1	16
331.663	1	17
331.834	1	15
332.005	1	9
332.176	1	10
332.347	1	-1
332.518	1	18
332.689	1	1
332.860	1	0
333.031	1	7
333.202	1	6
333.373	1	11
333.544	1	16
333.715	1	2
333.886	1	7
334.057	1	11
334.228	1	7
334.399	1	-2
334.570	1	9
334.741	1	3
334.912	1	10
335.084	1	8
335.255	1	14
335.426	1	5
335.597	1	1
335.768	1	4
335.939	1	12
336.110	1	0
336.281	1	4
336.452	1	14
336.623	1	10
336.794	1	1
336.965	1	16
337.136	1	2
337.307	1	13
337.478	1	-2
337.649	1	5
337.820	1	27
337.991	1	8
338.162	1	5
338.333	1	3
338.504	1	9
338.675	1	1
338.846	1	5
339.017	1	-1
339.188	1	5
339.359	1	14
339.530	1	-2
339.701	1	2
339.872	1	11
340.043	1	12
340.214	1	13
340.385	1	12
340.556	1	17
340.727	1	11
340.898	1	10
341.069	1	11
341.240	1	0
341.411	1	10
341.582	1	8
341.753	1	12
341.924	1	6
342.095	1	14
342.266	1	3
342.437	1	13
342.608	1	9
342.779	1	13
342.950	1	5
343.121	1	8
343.292	1	18
343.463	1	4
343.634	1	13
343.805	1	11
343.976	1	6
344.147	1	9
344.318	1	15
344.489	1	3
344.660	1	14
344.831	1	3
345.002	1	13
345.173	1	13
345.344	1	2
345.515	1	4
345.686	1	2
345.857	1	15
346.028	1	12
346.199	1	1
346.370	1	13
346.541	1	11
346.712	1	2
346.883	1	5
347.054	1	-1
347.225	1	2
347.396	1	7
347.567	1	10
347.738	1	6
347.909	1	17
348.080	1	19
348.251	1	13
348.422	1	3
348.593	1	11
348.764	1	3
348.935	1	4
349.106	1	-4
349.277	1	2
349.448	1	12
349.619	1	12
349.790	1	11
349.961	1	22
350.132	1	16
350.303	1	2
350.474	1	11
350.645	1	12
350.816	1	16
350.987	1	13
351.157	1	-1
351.328	1	11
351.499	1	10
351.670	1	4
351.841	1	17
352.012	1	16
352.183	1	10
352.354	1	18
352.525	1	9
352.696	1	-1
352.867	1	3
353.038	1	13
353.209	1	14
353.380	1	22
353.551	1	13
353.722	1	7
353.893	1	6
354.064	1	11
354.235	1	5
354.406	1	16
354.576	1	1
354.747	1	29
354.918	1	14
355.089	1	8
355.260	1	4
355.431	1	5
355.602	1	-4
355.773	1	6
355.944	1	13
356.115	1	21
356.286	1	15
356.457	1	22
356.628	1	22
356.799	1	12
356.970	1	12
357.141	1	4
357.311	1	9
357.482	1	8
357.653	1	4
357.824	1	-1
357.995	1	26
358.166	1	14
358.337	1	12
358.508	1	3
358.679	1	3
358.850	1	15
359.021	1	0
359.192	1	16
359.363	1	5
359.533	1	18
359.704	1	8
359.875	1	13
360.046	1	6
360.217	1	15
360.388	1	9
360.559	1	26
360.730	1	16
360.901	1	23
361.072	1	21
361.243	1	9
361.414	1	1
361.584	1	11
361.755	1	14
361.926	1	13
362.097	1	14
362.268	1	16
362.439	1	15
362.610	1	-2
362.781	1	9
362.952	1	15
363.123	1	10
363.293	1	25
363.464	1	16
363.635	1	18
363.806	1	10
363.977	1	15
364.148	1	3
364.319	1	17
364.490	1	17
364.661	1	13
364.832	1	15
365.002	1	16
365.173	1	9
365.344	1	18
365.515	1	11
365.686	1	8
365.857	1	7
366.028	1	4
366.199	1	9
366.370	1	9
366.540	1	20
366.711	1	16
366.882	1	6
367.053	1	5
367.224	1	15
367.395	1	14
367.566	1	12
367.737	1	3
367.908	1	20
368.078	1	7
368.249	1	13
368.420	1	5
368.591	1	10
368.762	1	15
368.933	1	17
369.104	1	16
369.274	1	11
369.445	1	19
369.616	1	7
369.787	1	6
369.958	1	7
370.129	1	12
370.300	1	9
370.471	1	22
370.641	1	12
370.812	1	16
370.983	1	10
371.154	1	19
371.325	1	-2
371.496	1	6
371.667	1	5
371.837	1	9
372.008	1	14
372.179	1	0
372.350	1	10
372.521	1	18
372.692	1	10
372.863	1	9
373.033	1	6
373.204	1	10
373.375	1	14
373.546	1	14
373.717	1	7
373.888	1	11
374.059	1	9
374.229	1	19
374.400	1	19
374.571	1	1
374.742	1	15
374.913	1	10
375.084	1	17
375.254	1	1
375.425	1	10
375.596	1	17
375.767	1	15
375.938	1	21
376.109	1	18
376.279	1	2
376.450	1	15
376.621	1	17
376.792	1	22
376.963	1	-3
377.134	1	18
377.304	1	8
377.475	1	11
377.646	1	17
377.817	1	15
377.988	1	17
378.159	1	0
378.329	1	11
378.500	1	7
378.671	1	14
378.842	1	18
379.013	1	11
379.184	1	5
379.354	1	4
379.525	1	7
379.696	1	9
379.867	1	14
380.038	1	29
380.209	1	15
380.379	1	15
380.550	1	3
380.721	1	16
380.892	1	7
381.063	1	10
381.233	1	14
381.404	1	14
381.575	1	13
381.746	1	8
381.917	1	4
382.087	1	22
382.258	1	15
382.429	1	3
382.600	1	18
382.771	1	18
382.941	1	11
383.112	1	10
383.283	1	11
383.454	1	18
383.625	1	9
383.795	1	32
383.966	1	13
384.137	1	14
384.308	1	17
384.479	1	14
384.649	1	21
384.820	1	16
384.991	1	12
385.162	1	19
385.333	1	15
385.503	1	20
385.674	1	22
385.845	1	23
386.016	1	18
386.187	1	14
386.357	1	24
386.528	1	18
386.699	1	26
386.870	1	14
387.041	1	17
387.211	1	4
387.382	1	14
387.553	1	14
387.724	1	9
387.894	1	15
388.065	1	14
388.236	1	17
388.407	1	21
388.578	1	17
388.748	1	12
388.919	1	19
389.090	1	18
389.261	1	10
389.431	1	26
389.602	1	10
389.773	1	12
389.944	1	12
390.114	1	18
390.285	1	20
390.456	1	21
390.627	1	18
390.798	1	5
390.968	1	5
391.139	1	20
391.310	1	17
391.481	1	13
391.651	1	6
391.822	1	15
391.993	1	25
392.164	1	8
392.334	1	19
392.505	1	13
392.676	1	16
392.847	1	10
393.017	1	19
393.188	1	22
393.359	1	18
393.530	1	21
393.700	1	17
393.871	1	15
394.042	1	6
394.213	1	15
394.383	1	19
394.554	1	18
394.725	1	12
394.896	1	3
395.066	1	24
395.237	1	18
395.408	1	14
395.579	1	11
395.749	1	11
395.920	1	7
396.091	1	11
396.262	1	12
396.432	1	13
396.603	1	26
396.774	1	3
396.945	1	14
397.115	1	20
397.286	1	10
397.457	1	18
397.627	1	24
397.798	1	25
397.969	1	10
398.140	1	15
398.310	1	14
398.481	1	25
398.652	1	19
398.823	1	14
398.993	1	12
399.164	1	27
399.335	1	22
399.505	1	21
399.676	1	24
399.847	1	16
400.018	1	20
400.188	1	23
400.359	1	13
400.530	1	12
400.700	1	17
400.871	1	17
401.042	1	24
401.213	1	14
401.383	1	14
401.554	1	14
401.725	1	15
401.895	1	18
402.066	1	16
402.237	1	13
402.408	1	25
402.578	1	10
402.749	1	14
402.920	1	27
403.090	1	17
403.261	1	23
403.432	1	15
403.603	1	15
403.773	1	17
403.944	1	18
404.115	1	12
404.285	1	19
404.456	1	10
404.627	1	17
404.797	1	18
404.968	1	29
405.139	1	13
405.310	1	24
405.480	1	9
405.651	1	8
405.822	1	28
405.992	1	21
406.163	1	16
406.334	1	29
406.504	1	13
406.675	1	18
406.846	1	18
407.016	1	14
407.187	1	10
407.358	1	23
407.528	1	16
407.699	1	16
407.870	1	16
408.041	1	22
408.211	1	19
408.382	1	32
408.553	1	13
408.723	1	14
408.894	1	15
409.065	1	19
409.235	1	14
409.406	1	26
409.577	1	33
409.747	1	30
409.918	1	22
410.089	1	24
410.259	1	20
410.430	1	7
410.601	1	15
410.771	1	23
410.942	1	23
411.113	1	35
411.283	1	14
411.454	1	16
411.625	1	21
411.795	1	20
411.966	1	20
412.137	1	35
412.307	1	18
412.478	1	12
412.649	1	18
412.819	1	17
412.990	1	15
413.161	1	28
413.331	1	23
413.502	1	24
413.672	1	10
413.843	1	21
414.014	1	27
414.184	1	6
414.355	1	35
414.526	1	14
414.696	1	21
414.867	1	12
415.038	1	23
415.208	1	21
415.379	1	15
415.550	1	17
415.720	1	27
415.891	1	11
416.062	1	23
416.232	1	16
416.403	1	15
416.573	1	23
416.744	1	13
416.915	1	9
417.085	1	13
417.256	1	18
417.427	1	10
417.597	1	15
417.768	1	16
417.939	1	11
418.109	1	20
418.280	1	19
418.450	1	24
418.621	1	15
418.792	1	16
418.962	1	21
419.133	1	8
419.304	1	13
419.474	1	19
419.645	1	15
419.815	1	12
419.986	1	25
420.157	1	24
420.327	1	7
420.498	1	24
420.669	1	20
420.839	1	22
421.010	1	10
421.180	1	23
421.351	1	18
421.522	1	23
421.692	1	13
421.863	1	26
422.033	1	13
422.204	1	24
422.375	1	17
422.545	1	22
422.716	1	24
422.886	1	22
423.057	1	36
423.228	1	26
423.398	1	13
423.569	1	31
423.740	1	21
423.910	1	25
424.081	1	24
424.251	1	18
424.422	1	17
424.593	1	14
424.763	1	16
424.934	1	12
425.104	1	12
425.275	1	20
425.445	1	12
425.616	1	24
425.787	1	12
425.957	1	18
426.128	1	16
426.298	1	14
426.469	1	18
426.640	1	21
426.810	1	19
426.981	1	11
427.151	1	20
427.322	1	14
427.493	1	6
427.663	1	18
427.834	1	17
428.004	1	18
428.175	1	7
428.345	1	16
428.516	1	19
428.687	1	22
428.857	1	32
429.028	1	14
429.198	1	11
429.369	1	24
429.540	1	16
429.710	1	20
429.881	1	27
430.051	1	17
430.222	1	27
430.392	1	8
430.563	1	21
430.734	1	23
430.904	1	23
431.075	1	14
431.245	1	12
431.416	1	14
431.586	1	16
431.757	1	28
431.927	1	22
432.098	1	16
432.269	1	24
432.439	1	14
432.610	1	24
432.780	1	5
432.951	1	16
433.121	1	17
433.292	1	19
433.462	1	14
433.633	1	20
433.804	1	9
433.974	1	13
434.145	1	16
434.315	1	16
434.486	1	18
434.656	1	20
434.827	1	14
434.997	1	10
435.168	1	27
435.339	1	7
435.509	1	20
435.680	1	20
435.850	1	16
436.021	1	7
436.191	1	28
436.362	1	18
436.532	1	27
436.703	1	27
436.873	1	18
437.044	1	17
437.214	1	10
437.385	1	19
437.556	1	15
437.726	1	26
437.897	1	10
438.067	1	18
438.238	1	23
438.408	1	22
438.579	1	26
438.749	1	15
438.920	1	10
439.090	1	17
439.261	1	15
439.431	1	24
439.602	1	19
439.772	1	22
439.943	1	15
440.113	1	20
440.284	1	24
440.455	1	24
440.625	1	21
440.796	1	26
440.966	1	25
441.137	1	15
441.307	1	29
441.478	1	21
441.648	1	25
441.819	1	13
441.989	1	27
442.160	1	14
442.330	1	15
442.501	1	19
442.671	1	12
442.842	1	28
443.012	1	8
443.183	1	21
443.353	1	21
443.524	1	10
443.694	1	22
443.865	1	15
444.035	1	10
444.206	1	20
444.376	1	26
444.547	1	14
444.717	1	13
444.888	1	29
445.058	1	8
445.229	1	18
445.399	1	29
445.570	1	16
445.740	1	24
445.911	1	22
446.081	1	9
446.252	1	14
446.422	1	13
446.593	1	22
446.763	1	28
446.934	1	22
447.104	1	2
447.275	1	21
447.445	1	17
447.616	1	14
447.786	1	22
447.957	1	19
448.127	1	20
448.298	1	22
448.468	1	33
448.639	1	24
448.809	1	17
448.979	1	20
449.150	1	26
449.320	1	18
449.491	1	12
449.661	1	15
449.832	1	12
450.002	1	21
450.173	1	27
450.343	1	13
450.514	1	12
450.684	1	5
450.855	1	11
451.025	1	13
451.196	1	22
451.366	1	13
451.537	1	17
451.707	1	33
451.878	1	12
452.048	1	21
452.218	1	20
452.389	1	15
452.559	1	13
452.730	1	16
452.900	1	8
453.071	1	9
453.241	1	18
453.412	1	14
453.582	1	18
453.753	1	17
453.923	1	23
454.093	1	22
454.264	1	33
454.434	1	8
454.605	1	5
454.775	1	17
454.946	1	11
455.116	1	13
455.287	1	31
455.457	1	22
455.628	1	17
455.798	1	13
455.968	1	10
456.139	1	11
456.309	1	21
456.480	1	13
456.650	1	10
456.821	1	12
456.991	1	18
457.161	1	12
457.332	1	3
457.502	1	16
457.673	1	11
457.843	1	18
458.014	1	18
458.184	1	20
458.355	1	24
458.525	1	13
458.695	1	18
458.866	1	29
459.036	1	13
459.207	1	1
459.377	1	21
459.548	1	20
459.718	1	8
459.888	1	21
460.059	1	28
460.229	1	19
460.400	1	7
460.570	1	11
460.740	1	12
460.911	1	13
461.081	1	18
461.252	1	20
461.422	1	27
461.593	1	14
461.763	1	12
461.933	1	20
462.104	1	11
462.274	1	19
462.445	1	26
462.615	1	23
462.785	1	16
462.956	1	11
463.126	1	13
463.297	1	8
463.467	1	18
463.638	1	27
463.808	1	12
463.978	1	10
464.149	1	21
464.319	1	1
464.490	1	15
464.660	1	23
464.830	1	19
465.001	1	14
465.171	1	17
465.342	1	22
465.512	1	19
465.682	1	11
465.853	1	16
466.023	1	11
466.194	1	19
466.364	1	10
466.534	1	14
466.705	1	14
466.875	1	16
467.045	1	13
467.216	1	17
467.386	1	21
467.557	1	12
467.727	1	20
467.897	1	13
468.068	1	28
468.238	1	11
468.409	1	20
468.579	1	13
468.749	1	27
468.920	1	13
469.090	1	8
469.260	1	16
469.431	1	8
469.601	1	13
469.772	1	19
469.942	1	25
470.112	1	15
470.283	1	11
470.453	1	20
470.623	1	13
470.794	1	12
470.964	1	13
471.135	1	23
471.305	1	13
471.475	1	25
471.646	1	19
471.816	1	17
471.986	1	21
472.157	1	15
472.327	1	16
472.497	1	6
472.668	1	13
472.838	1	14
473.009	1	12
473.179	1	15
473.349	1	21
473.520	1	6
473.690	1	9
473.860	1	8
474.031	1	18
474.201	1	5
474.371	1	15
474.542	1	15
474.712	1	23
474.882	1	11
475.053	1	17
475.223	1	19
475.394	1	28
475.564	1	16
475.734	1	24
475.905	1	-3
476.075	1	17
476.245	1	6
476.416	1	13
476.586	1	14
476.756	1	11
476.927	1	21
477.097	1	21
477.267	1	24
477.438	1	14
477.608	1	7
477.778	1	12
477.949	1	13
478.119	1	4
478.289	1	17
478.460	1	7
478.630	1	15
478.800	1	16
478.971	1	11
479.141	1	12
479.311	1	4
479.482	1	11
479.652	1	17
479.822	1	14
479.993	1	19
480.163	1	12
480.333	1	15
480.504	1	-6
480.674	1	18
480.844	1	5
481.015	1	10
481.185	1	6
481.355	1	16
481.525	1	13
481.696	1	12
481.866	1	19
482.036	1	22
482.207	1	13
482.377	1	12
482.547	1	10
482.718	1	10
482.888	1	21
483.058	1	4
483.229	1	8
483.399	1	10
483.569	1	14
483.740	1	20
483.910	1	24
484.080	1	21
484.250	1	13
484.421	1	7
484.591	1	10
484.761	1	24
484.932	1	16
485.102	1	17
485.272	1	12
485.443	1	15
485.613	1	6
485.783	1	13
485.953	1	12
486.124	1	18
486.294	1	25
486.464	1	7
486.635	1	10
486.805	1	13
486.975	1	6
487.146	1	5
487.316	1	13
487.486	1	14
487.656	1	8
487.827	1	18
487.997	1	14
488.167	1	4
488.338	1	12
488.508	1	19
488.678	1	14
488.848	1	14
489.019	1	9
489.189	1	9
489.359	1	17
489.529	1	13
489.700	1	12
489.870	1	11
490.040	1	23
490.211	1	19
490.381	1	5
490.551	1	21
490.721	1	15
490.892	1	14
491.062	1	12
491.232	1	11
491.402	1	19
491.573	1	18
491.743	1	17
491.913	1	8
492.084	1	15
492.254	1	10
492.424	1	11
492.594	1	13
492.765	1	6
492.935	1	8
493.105	1	24
493.275	1	12
493.446	1	14
493.616	1	19
493.786	1	8
493.956	1	7
494.127	1	10
494.297	1	11
494.467	1	13
494.637	1	11
494.808	1	20
494.978	1	7
495.148	1	17
495.318	1	8
495.489	1	20
495.659	1	19
495.829	1	11
495.999	1	13
496.170	1	10
496.340	1	14
496.510	1	14
496.680	1	16
496.851	1	12
497.021	1	9
497.191	1	20
497.361	1	12
497.532	1	15
497.702	1	7
497.872	1	18
498.042	1	12
498.213	1	17
498.383	1	7
498.553	1	20
498.723	1	3
498.894	1	12
499.064	1	14
499.234	1	26
499.404	1	-2
499.574	1	6
499.745	1	19
499.915	1	11
500.085	1	11
500.255	1	4
500.426	1	6
500.596	1	21
500.766	1	13
500.936	1	9
501.106	1	9
501.277	1	18
501.447	1	16
501.617	1	13
501.787	1	10
501.958	1	15
502.128	1	23
502.298	1	9
502.468	1	2
502.638	1	8
502.809	1	15
502.979	1	16
503.149	1	10
503.319	1	6
503.489	1	6
503.660	1	2
503.830	1	9
504.000	1	10
504.170	1	17
504.340	1	12
504.511	1	12
504.681	1	20
504.851	1	6
505.021	1	4
505.192	1	12
505.362	1	6
505.532	1	0
505.702	1	9
505.872	1	14
506.043	1	12
506.213	1	13
506.383	1	4
506.553	1	18
506.723	1	-5
506.893	1	14
507.064	1	12
507.234	1	9
507.404	1	6
507.574	1	7
507.744	1	12
507.915	1	18
508.085	1	9
508.255	1	13
508.425	1	4
508.595	1	13
508.766	1	-2
508.936	1	15
509.106	1	16
509.276	1	16
509.446	1	7
509.616	1	17
509.787	1	13
509.957	1	8
510.127	1	-3
510.297	1	7
510.467	1	7
510.638	1	10
510.808	1	12
510.978	1	18
511.148	1	12
511.318	1	7
511.488	1	8
511.659	1	8
511.829	1	10
511.999	1	12
512.169	1	17
512.339	1	9
512.509	1	15
512.680	1	7
512.850	1	15
513.020	1	7
513.190	1	-2
513.360	1	20
513.530	1	21
513.700	1	18
513.871	1	10
514.041	1	10
514.211	1	13
514.381	1	0
514.551	1	14
514.721	1	13
514.892	1	7
515.062	1	2
515.232	1	-2
515.402	1	7
515.572	1	17
515.742	1	15
515.912	1	13
516.083	1	21
516.253	1	8
516.423	1	11
516.593	1	5
516.763	1	-9
516.933	1	-5
517.104	1	3
517.274	1	10
517.444	1	10
517.614	1	14
517.784	1	13
517.954	1	6
518.124	1	9
518.294	1	22
518.465	1	7
518.635	1	0
518.805	1	4
518.975	1	4
519.145	1	12
519.315	1	10
519.485	1	4
519.656	1	20
519.826	1	9
519.996	1	16
520.166	1	1
520.336	1	7
520.506	1	-2
520.676	1	11
520.846	1	7
521.017	1	-3
521.187	1	13
521.357	1	-1
521.527	1	23
521.697	1	-5
521.867	1	21
522.037	1	11
522.207	1	4
522.377	1	17
522.548	1	5
522.718	1	4
522.888	1	3
523.058	1	13
523.228	1	11
523.398	1	10
523.568	1	8
523.738	1	12
523.909	1	8
524.079	1	-5
524.249	1	10
524.419	1	10
524.589	1	10
524.759	1	8
524.929	1	2
525.099	1	9
525.269	1	10
525.439	1	1
525.610	1	9
525.780	1	9
525.950	1	-5
526.120	1	1
526.290	1	-1
526.460	1	15
526.630	1	11
526.800	1	0
526.970	1	3
527.140	1	12
527.311	1	6
527.481	1	-7
527.651	1	8
527.821	1	15
527.991	1	20
528.161	1	5
528.331	1	15
528.501	1	3
528.671	1	1
528.841	1	12
529.011	1	2
529.181	1	4
529.352	1	11
529.522	1	-3
529.692	1	-1
529.862	1	-3
530.032	1	19
530.202	1	1
530.372	1	-1
530.542	1	3
530.712	1	13
530.882	1	7
531.052	1	3
531.222	1	0
531.392	1	-2
531.563	1	8
531.733	1	7
531.903	1	9
532.073	1	12
532.243	1	14
532.413	1	8
532.583	1	1
532.753	1	12
532.923	1	1
533.093	1	14
533.263	1	19
533.433	1	15
533.603	1	2
533.773	1	2
533.943	1	11
534.113	1	0
534.284	1	6
534.454	1	2
534.624	1	9
534.794	1	10
534.964	1	15
535.134	1	12
535.304	1	20
535.474	1	9
535.644	1	13
535.814	1	-1
535.984	1	-1
536.154	1	3
536.324	1	-1
536.494	1	12
536.664	1	-7
536.834	1	6
537.004	1	-7
537.174	1	21
537.344	1	12
537.514	1	10
537.685	1	12
537.855	1	13
538.025	1	10
538.195	1	3
538.365	1	5
538.535	1	3
538.705	1	12
538.875	1	17
539.045	1	13
539.215	1	8
539.385	1	9
539.555	1	11
539.725	1	3
539.895	1	2
540.065	1	6
540.235	1	9
540.405	1	18
540.575	1	0
540.745	1	18
540.915	1	12
541.085	1	4
541.255	1	4
541.425	1	3
541.595	1	8
541.765	1	8
541.935	1	11
542.105	1	12
542.275	1	4
542.445	1	3
542.615	1	3
542.785	1	-8
542.955	1	6
543.125	1	0
543.295	1	4
543.465	1	5
543.635	1	8
543.805	1	9
543.975	1	9
544.145	1	4
544.315	1	11
544.485	1	-4
544.655	1	1
544.825	1	-1
544.995	1	-1
545.165	1	8
545.335	1	2
545.505	1	11
545.675	1	0
545.845	1	6
546.015	1	-4
546.185	1	13
546.355	1	5
546.525	1	5
546.695	1	7
546.865	1	0
547.035	1	12
547.205	1	5
547.375	1	4
547.545	1	10
547.715	1	-1
547.885	1	2
548.055	1	18
548.225	1	-2
548.395	1	8
548.565	1	6
548.735	1	13
548.905	1	3
549.075	1	4
549.245	1	9
549.415	1	-1
549.585	1	-9
549.755	1	6
549.925	1	3
550.095	1	6
550.265	1	-7
550.435	1	10
550.605	1	8
550.775	1	16
550.945	1	5
551.115	1	7
551.285	1	-3
551.455	1	9
551.625	1	7
551.795	1	8
551.965	1	11
552.135	1	19
552.305	1	8
552.475	1	7
552.645	1	7
552.815	1	17
552.985	1	9
553.155	1	0
553.325	1	10
553.495	1	5
553.665	1	2
553.835	1	-1
554.004	1	10
554.174	1	-1
554.344	1	-1
554.514	1	-1
554.684	1	3
554.854	1	9
555.024	1	11
555.194	1	9
555.364	1	9
555.534	1	18
555.704	1	8
555.874	1	1
556.044	1	15
556.214	1	-3
556.384	1	3
556.554	1	3
556.724	1	9
556.894	1	6
557.064	1	11
557.234	1	8
557.404	1	7
557.573	1	-12
557.743	1	0
557.913	1	3
558.083	1	11
558.253	1	8
558.423	1	9
558.593	1	20
558.763	1	6
558.933	1	15
559.103	1	10
559.273	1	6
559.443	1	1
559.613	1	11
559.783	1	11
559.953	1	7
560.122	1	13
560.292	1	2
560.462	1	5
560.632	1	2
560.802	1	11
560.972	1	1
561.142	1	-11
561.312	1	-8
561.482	1	6
561.652	1	-9
561.822	1	5
561.992	1	3
562.162	1	7
562.331	1	7
562.501	1	5
562.671	1	-6
562.841	1	-8
563.011	1	-6
563.181	1	9
563.351	1	3
563.521	1	2
563.691	1	-1
563.861	1	12
564.031	1	14
564.201	1	18
564.370	1	6
564.540	1	10
564.710	1	-8
564.880	1	-1
565.050	1	0
565.220	1	5
565.390	1	7
565.560	1	10
565.730	1	-3
565.900	1	15
566.069	1	6
566.239	1	14
566.409	1	-4
566.579	1	14
566.749	1	5
566.919	1	6
567.089	1	9
567.259	1	3
567.429	1	0
567.599	1	1
567.768	1	8
567.938	1	4
568.108	1	8
568.278	1	3
568.448	1	3
568.618	1	3
568.788	1	6
568.958	1	16
569.128	1	5
569.297	1	-4
569.467	1	13
569.637	1	8
569.807	1	2
569.977	1	-1
570.147	1	8
570.317	1	-9
570.487	1	0
570.656	1	1
570.826	1	10
570.996	1	7
571.166	1	7
571.336	1	10
571.506	1	16
571.676	1	10
571.846	1	10
572.015	1	0
572.185	1	6
572.355	1	1
572.525	1	2
572.695	1	-6
572.865	1	1
573.035	1	6
573.205	1	6
573.374	1	20
573.544	1	4
573.714	1	9
573.884	1	18
574.054	1	3
574.224	1	-6
574.394	1	7
574.563	1	15
574.733	1	6
574.903	1	2
575.073	1	8
575.243	1	0
575.413	1	13
575.583	1	9
575.752	1	4
575.922	1	-2
576.092	1	10
576.262	1	7
576.432	1	-5
576.602	1	5
576.772	1	-5
576.941	1	11
577.111	1	4
577.281	1	6
577.451	1	5
577.621	1	-4
577.791	1	5
577.960	1	5
578.130	1	1
578.300	1	-8
578.470	1	14
578.640	1	8
578.810	1	1
578.979	1	8
579.149	1	-4
579.319	1	3
579.489	1	6
579.659	1	2
579.829	1	-2
579.998	1	14
580.168	1	11
580.338	1	11
580.508	1	23
580.678	1	3
580.848	1	1
581.017	1	4
581.187	1	-1
581.357	1	6
581.527	1	0
581.697	1	6
581.867	1	1
582.036	1	3
582.206	1	11
582.376	1	12
582.546	1	-1
582.716	1	4
582.885	1	-4
583.055	1	6
583.225	1	2
583.395	1	11
583.565	1	4
583.735	1	8
583.904	1	-1
584.074	1	6
584.244	1	1
584.414	1	4
584.584	1	3
584.753	1	2
584.923	1	-7
585.093	1	-2
585.263	1	5
585.433	1	-3
585.602	1	12
585.772	1	12
585.942	1	5
586.112	1	11
586.282	1	7
586.451	1	-3
586.621	1	14
586.791	1	-8
586.961	1	-2
587.131	1	3
587.300	1	3
587.470	1	6
587.640	1	-2
587.810	1	12
587.980	1	-6
588.149	1	17
588.319	1	-2
588.489	1	14
588.659	1	1
588.829	1	2
588.998	1	12
589.168	1	8
589.338	1	9
589.508	1	7
589.677	1	9
589.847	1	-2
590.017	1	3
590.187	1	7
590.357	1	6
590.526	1	15
590.696	1	-4
590.866	1	6
591.036	1	-1
591.205	1	9
591.375	1	2
591.545	1	9
591.715	1	4
591.885	1	6
592.054	1	13
592.224	1	17
592.394	1	10
592.564	1	3
592.733	1	8
592.903	1	-4
593.073	1	-1
593.243	1	-1
593.412	1	8
593.582	1	3
593.752	1	5
593.922	1	13
594.091	1	2
594.261	1	5
594.431	1	-1
594.601	1	3
594.771	1	4
594.940	1	-1
595.110	1	7
595.280	1	7
595.450	1	8
595.619	1	6
595.789	1	1
595.959	1	11
596.129	1	0
596.298	1	-6
596.468	1	3
596.638	1	0
596.808	1	1
596.977	1	8
597.147	1	4
597.317	1	14
597.487	1	10
597.656	1	9
597.826	1	9
597.996	1	6
598.166	1	7
598.335	1	-5
598.505	1	6
598.675	1	12
598.844	1	12
599.014	1	15
599.184	1	2
599.354	1	5
599.523	1	3
599.693	1	12
599.863	1	2
600.033	1	4
600.202	1	12
600.372	1	5
600.542	1	8
600.712	1	4
600.881	1	11
601.051	1	-1
601.221	1	4
601.390	1	15
601.560	1	10
601.730	1	-2
601.900	1	13
602.069	1	3
602.239	1	4
602.409	1	-4
602.578	1	7
602.748	1	3
602.918	1	5
603.088	1	-3
603.257	1	7
603.427	1	13
603.597	1	10
603.767	1	17
603.936	1	2
604.106	1	14
604.276	1	5
604.445	1	2
604.615	1	-1
604.785	1	-1
604.954	1	5
605.124	1	1
605.294	1	4
605.464	1	-10
605.633	1	-2
605.803	1	20
605.973	1	-6
606.142	1	7
606.312	1	0
606.482	1	7
606.652	1	8
606.821	1	3
606.991	1	10
607.161	1	3
607.330	1	1
607.500	1	9
607.670	1	9
607.839	1	6
608.009	1	7
608.179	1	6
608.348	1	13
608.518	1	-16
608.688	1	6
608.858	1	2
609.027	1	2
609.197	1	7
609.367	1	8
609.536	1	0
609.706	1	11
609.876	1	2
610.045	1	13
610.215	1	4
610.385	1	-4
610.554	1	10
610.724	1	7
610.894	1	10
611.063	1	7
611.233	1	-3
611.403	1	14
611.572	1	8
611.742	1	-6
611.912	1	2
612.081	1	-3
612.251	1	7
612.421	1	-5
612.590	1	0
612.760	1	1
612.930	1	1
613.099	1	14
613.269	1	5
613.439	1	-4
613.608	1	6
613.778	1	11
613.948	1	13
614.117	1	3
614.287	1	0
614.457	1	6
614.626	1	1
614.796	1	10
614.966	1	-6
615.135	1	6
615.305	1	-2
615.475	1	1
615.644	1	7
615.814	1	1
615.984	1	11
616.153	1	1
616.323	1	15
616.493	1	-9
616.662	1	13
616.832	1	16
617.002	1	-1
617.171	1	9
617.341	1	5
617.511	1	1
617.680	1	9
617.850	1	10
618.019	1	-3
618.189	1	-7
618.359	1	2
618.528	1	9
618.698	1	15
618.868	1	1
619.037	1	-2
619.207	1	2
619.377	1	1
619.546	1	10
619.716	1	3
619.885	1	2
620.055	1	-5
620.225	1	17
620.394	1	15
620.564	1	-1
620.734	1	6
620.903	1	24
621.073	1	5
621.242	1	-6
621.412	1	6
621.582	1	-2
621.751	1	0
621.921	1	3
622.091	1	10
622.260	1	1
622.430	1	17
622.599	1	1
622.769	1	6
622.939	1	1
623.108	1	0
623.278	1	0
623.448	1	0
623.617	1	2
623.787	1	3
623.956	1	6
624.126	1	0
624.296	1	9
624.465	1	13
624.635	1	11
624.804	1	-1
624.974	1	3
625.144	1	-3
625.313	1	10
625.483	1	10
625.652	1	5
625.822	1	0
625.992	1	10
626.161	1	10
626.331	1	4
626.501	1	9
626.670	1	2
626.840	1	2
627.009	1	13
627.179	1	2
627.348	1	6
627.518	1	-1
627.688	1	13
627.857	1	12
628.027	1	7
628.196	1	10
628.366	1	10
628.536	1	-3
628.705	1	7
628.875	1	8
629.044	1	-1
629.214	1	3
629.384	1	5
629.553	1	3
629.723	1	-9
629.892	1	1
630.062	1	15
630.232	1	7
630.401	1	2
630.571	1	14
630.740	1	-2
630.910	1	1
631.079	1	5
631.249	1	1
631.419	1	11
631.588	1	-3
631.758	1	8
631.927	1	-1
632.097	1	-3
632.266	1	4
632.436	1	3
632.606	1	1
632.775	1	1
632.945	1	2
633.114	1	3
633.284	1	8
633.453	1	-4
633.623	1	10
633.793	1	14
633.962	1	14
634.132	1	7
634.301	1	-4
634.471	1	6
634.640	1	2
634.810	1	0
634.979	1	4
635.149	1	6
635.319	1	9
635.488	1	7
635.658	1	17
635.827	1	3
635.997	1	13
636.166	1	-5
636.336	1	10
636.505	1	-11
636.675	1	0
636.845	1	2
637.014	1	15
637.184	1	7
637.353	1	15
637.523	1	3
637.692	1	11
637.862	1	13
638.031	1	4
638.201	1	6
638.370	1	3
638.540	1	7
638.710	1	8
638.879	1	12
639.049	1	1
639.218	1	1
639.388	1	5
639.557	1	2
639.727	1	11
639.896	1	0
640.066	1	0
640.235	1	6
640.405	1	13
640.574	1	4
640.744	1	9
640.914	1	-4
641.083	1	14
641.253	1	1
641.422	1	6
641.592	1	8
641.761	1	3
641.931	1	13
642.100	1	-2
642.270	1	7
642.439	1	3
642.609	1	0
642.778	1	2
642.948	1	9
643.117	1	10
643.287	1	5
643.456	1	17
643.626	1	9
643.795	1	3
643.965	1	11
644.134	1	0
644.304	1	-3
644.473	1	10
644.643	1	9
644.812	1	0
644.982	1	8
645.151	1	8
645.321	1	1
645.490	1	5
645.660	1	-6
645.829	1	3
645.999	1	4
646.168	1	3
646.338	1	7
646.507	1	4
646.677	1	-2
646.846	1	2
647.016	1	8
647.185	1	16
647.355	1	6
647.524	1	10
647.694	1	7
647.863	1	-2
648.033	1	-2
648.202	1	13
648.372	1	3
648.541	1	-8
648.711	1	9
648.880	1	22
649.050	1	5
649.219	1	10
649.389	1	6
649.558	1	6
649.728	1	-2
649.897	1	7
650.067	1	7
650.236	1	13
650.406	1	18
650.575	1	-7
650.745	1	19
650.914	1	-3
651.084	1	6
651.253	1	12
651.423	1	5
651.592	1	5
651.762	1	16
651.931	1	14
652.101	1	15
652.270	1	-7
652.440	1	13
652.609	1	-3
652.778	1	17
652.948	1	1
653.117	1	5
653.287	1	-5
653.456	1	5
653.626	1	8
653.795	1	13
653.965	1	11
654.134	1	6
654.304	1	5
654.473	1	10
654.643	1	-6
654.812	1	11
654.982	1	2
655.151	1	6
655.320	1	9
655.490	1	2
655.659	1	6
655.829	1	5
655.998	1	5
656.168	1	3
656.337	1	8
656.507	1	-2
656.676	1	-10
656.846	1	12
657.015	1	10
657.184	1	12
657.354	1	5
657.523	1	0
657.693	1	-3
657.862	1	4
658.032	1	-5
658.201	1	0
658.371	1	10
658.540	1	10
658.709	1	7
658.879	1	14
659.048	1	7
659.218	1	4
659.387	1	5
659.557	1	21
659.726	1	2
659.895	1	10
660.065	1	1
660.234	1	9
660.404	1	2
660.573	1	-3
660.743	1	5
660.912	1	5
661.081	1	14
661.251	1	5
661.420	1	21
661.590	1	5
661.759	1	3
661.929	1	-3
662.098	1	4
662.267	1	4
662.437	1	5
662.606	1	12
662.776	1	9
662.945	1	1
663.115	1	6
663.284	1	13
663.453	1	5
663.623	1	0
663.792	1	0
663.962	1	6
664.131	1	6
664.300	1	14
664.470	1	14
664.639	1	6
664.809	1	-9
664.978	1	5
665.148	1	4
665.317	1	10
665.486	1	3
665.656	1	-4
665.825	1	14
665.995	1	0
666.164	1	12
666.333	1	11
666.503	1	9
666.672	1	6
666.842	1	6
667.011	1	15
667.180	1	7
667.350	1	9
667.519	1	-6
667.689	1	12
667.858	1	2
668.027	1	6
668.197	1	2
668.366	1	11
668.536	1	6
668.705	1	6
668.874	1	-8
669.044	1	6
669.213	1	4
669.382	1	3
669.552	1	12
669.721	1	6
669.891	1	-2
670.060	1	17
670.229	1	-6
670.399	1	10
670.568	1	16
670.738	1	7
670.907	1	-4
671.076	1	17
671.246	1	5
671.415	1	2
671.584	1	3
671.754	1	8
671.923	1	4
672.093	1	10
672.262	1	8
672.431	1	2
672.601	1	8
672.770	1	6
672.939	1	8
673.109	1	7
673.278	1	-4
673.448	1	1
673.617	1	1
673.786	1	4
