325.333	1	17
325.504	1	5
325.675	1	-4
325.846	1	-5
326.017	1	0
326.188	1	-4
326.359	1	-9
326.531	1	16
326.702	1	10
326.873	1	6
327.044	1	3
327.215	1	6
327.386	1	-3
327.557	1	5
327.728	1	3
327.899	1	-1
328.070	1	3
328.241	1	10
328.412	1	-5
328.583	1	-2
328.754	1	3
328.926	1	8
329.097	1	0
329.268	1	-8
329.439	1	2
329.610	1	12
329.781	1	3
329.952	1	3
330.123	1	-4
330.294	1	7
330.465	1	9
330.636	1	-2
330.807	1	5
330.978	1	8
331.149	1	14
331.320	1	1
331.492	1	14
331.663	1	5
331.834	1	-1
332.005	1	0
332.176	1	10
332.347	1	2
332.518	1	14
332.689	1	-7
332.860	1	-2
333.031	1	6
333.202	1	0
333.373	1	8
333.544	1	8
333.715	1	2
333.886	1	0
334.057	1	-2
334.228	1	4
334.399	1	-4
334.570	1	4
334.741	1	1
334.912	1	5
335.084	1	4
335.255	1	19
335.426	1	1
335.597	1	0
335.768	1	8
335.939	1	-6
336.110	1	11
336.281	1	-4
336.452	1	5
336.623	1	3
336.794	1	-9
336.965	1	3
337.136	1	-9
337.307	1	14
337.478	1	-5
337.649	1	2
337.820	1	12
337.991	1	6
338.162	1	3
338.333	1	1
338.504	1	16
338.675	1	1
338.846	1	9
339.017	1	1
339.188	1	10
339.359	1	14
339.530	1	-1
339.701	1	1
339.872	1	6
340.043	1	12
340.214	1	-2
340.385	1	3
340.556	1	12
340.727	1	12
340.898	1	-3
341.069	1	6
341.240	1	-5
341.411	1	6
341.582	1	4
341.753	1	2
341.924	1	12
342.095	1	8
342.266	1	3
342.437	1	8
342.608	1	5
342.779	1	8
342.950	1	1
343.121	1	-4
343.292	1	14
343.463	1	-2
343.634	1	21
343.805	1	3
343.976	1	4
344.147	1	-3
344.318	1	17
344.489	1	-6
344.660	1	3
344.831	1	9
345.002	1	8
345.173	1	11
345.344	1	3
345.515	1	5
345.686	1	-6
345.857	1	15
346.028	1	4
346.199	1	6
346.370	1	6
346.541	1	4
346.712	1	6
346.883	1	0
347.054	1	12
347.225	1	-1
347.396	1	3
347.567	1	7
347.738	1	-1
347.909	1	-2
348.080	1	6
348.251	1	5
348.422	1	10
348.593	1	8
348.764	1	8
348.935	1	2
349.106	1	0
349.277	1	0
349.448	1	-2
349.619	1	-5
349.790	1	3
349.961	1	2
350.132	1	15
350.303	1	5
350.474	1	12
350.645	1	11
350.816	1	-6
350.987	1	4
351.157	1	-6
351.328	1	6
351.499	1	8
351.670	1	9
351.841	1	15
352.012	1	12
352.183	1	11
352.354	1	8
352.525	1	13
352.696	1	12
352.867	1	9
353.038	1	1
353.209	1	7
353.380	1	12
353.551	1	7
353.722	1	6
353.893	1	-2
354.064	1	7
354.235	1	3
354.406	1	12
354.576	1	-2
354.747	1	11
354.918	1	-2
355.089	1	16
355.260	1	3
355.431	1	-1
355.602	1	0
355.773	1	-2
355.944	1	7
356.115	1	18
356.286	1	12
356.457	1	15
356.628	1	6
356.799	1	4
356.970	1	7
357.141	1	9
357.311	1	6
357.482	1	-5
357.653	1	3
357.824	1	5
357.995	1	14
358.166	1	11
358.337	1	6
358.508	1	-3
358.679	1	5
358.850	1	12
359.021	1	1
359.192	1	6
359.363	1	-2
359.533	1	5
359.704	1	-7
359.875	1	8
360.046	1	1
360.217	1	18
360.388	1	3
360.559	1	21
360.730	1	7
360.901	1	7
361.072	1	8
361.243	1	15
361.414	1	3
361.584	1	0
361.755	1	12
361.926	1	10
362.097	1	9
362.268	1	15
362.439	1	1
362.610	1	7
362.781	1	10
362.952	1	10
363.123	1	2
363.293	1	24
363.464	1	13
363.635	1	3
363.806	1	6
363.977	1	-6
364.148	1	9
364.319	1	19
364.490	1	16
364.661	1	-4
364.832	1	8
365.002	1	7
365.173	1	5
365.344	1	8
365.515	1	2
365.686	1	2
365.857	1	7
366.028	1	3
366.199	1	5
366.370	1	12
366.540	1	0
366.711	1	5
366.882	1	-2
367.053	1	-6
367.224	1	11
367.395	1	8
367.566	1	4
367.737	1	-5
367.908	1	14
368.078	1	4
368.249	1	11
368.420	1	7
368.591	1	3
368.762	1	-7
368.933	1	12
369.104	1	8
369.274	1	0
369.445	1	7
369.616	1	0
369.787	1	9
369.958	1	2
370.129	1	5
370.300	1	3
370.471	1	6
370.641	1	7
370.812	1	12
370.983	1	0
371.154	1	4
371.325	1	-1
371.496	1	3
371.667	1	0
371.837	1	6
372.008	1	11
372.179	1	6
372.350	1	3
372.521	1	13
372.692	1	2
372.863	1	16
373.033	1	-1
373.204	1	1
373.375	1	1
373.546	1	-6
373.717	1	2
373.888	1	6
374.059	1	11
374.229	1	11
374.400	1	12
374.571	1	-1
374.742	1	13
374.913	1	-10
375.084	1	-3
375.254	1	1
375.425	1	10
375.596	1	3
375.767	1	6
375.938	1	14
376.109	1	-2
376.279	1	-3
376.450	1	11
376.621	1	10
376.792	1	13
376.963	1	-3
377.134	1	6
377.304	1	6
377.475	1	3
377.646	1	3
377.817	1	9
377.988	1	13
378.159	1	2
378.329	1	-6
378.500	1	16
378.671	1	6
378.842	1	7
379.013	1	-10
379.184	1	14
379.354	1	2
379.525	1	-1
379.696	1	14
379.867	1	3
380.038	1	13
380.209	1	17
380.379	1	16
380.550	1	13
380.721	1	14
380.892	1	-2
381.063	1	0
381.233	1	9
381.404	1	11
381.575	1	7
381.746	1	-6
381.917	1	5
382.087	1	12
382.258	1	2
382.429	1	1
382.600	1	11
382.771	1	8
382.941	1	5
383.112	1	9
383.283	1	11
383.454	1	10
383.625	1	1
383.795	1	20
383.966	1	12
384.137	1	6
384.308	1	7
384.479	1	4
384.649	1	11
384.820	1	10
384.991	1	9
385.162	1	3
385.333	1	4
385.503	1	0
385.674	1	16
385.845	1	22
386.016	1	4
386.187	1	-1
386.357	1	21
386.528	1	3
386.699	1	15
386.870	1	0
387.041	1	14
387.211	1	5
387.382	1	9
387.553	1	11
387.724	1	0
387.894	1	10
388.065	1	14
388.236	1	4
388.407	1	10
388.578	1	5
388.748	1	4
388.919	1	2
389.090	1	7
389.261	1	10
389.431	1	17
389.602	1	7
389.773	1	9
389.944	1	6
390.114	1	11
390.285	1	13
390.456	1	15
390.627	1	4
390.798	1	5
390.968	1	-3
391.139	1	15
391.310	1	7
391.481	1	14
391.651	1	5
391.822	1	9
391.993	1	17
392.164	1	7
392.334	1	7
392.505	1	11
392.676	1	8
392.847	1	8
393.017	1	10
393.188	1	9
393.359	1	3
393.530	1	4
393.700	1	17
393.871	1	18
394.042	1	12
394.213	1	20
394.383	1	14
394.554	1	2
394.725	1	-4
394.896	1	7
395.066	1	17
395.237	1	5
395.408	1	7
395.579	1	3
395.749	1	10
395.920	1	11
396.091	1	0
396.262	1	22
396.432	1	8
396.603	1	15
396.774	1	-13
396.945	1	16
397.115	1	15
397.286	1	5
397.457	1	12
397.627	1	17
397.798	1	15
397.969	1	3
398.140	1	-1
398.310	1	17
398.481	1	9
398.652	1	19
398.823	1	12
398.993	1	4
399.164	1	9
399.335	1	16
399.505	1	5
399.676	1	15
399.847	1	3
400.018	1	14
400.188	1	2
400.359	1	14
400.530	1	14
400.700	1	7
400.871	1	15
401.042	1	9
401.213	1	9
401.383	1	0
401.554	1	4
401.725	1	14
401.895	1	14
402.066	1	13
402.237	1	9
402.408	1	13
402.578	1	7
402.749	1	9
402.920	1	18
403.090	1	17
403.261	1	24
403.432	1	8
403.603	1	11
403.773	1	10
403.944	1	19
404.115	1	11
404.285	1	14
404.456	1	1
404.627	1	18
404.797	1	7
404.968	1	19
405.139	1	11
405.310	1	8
405.480	1	8
405.651	1	-1
405.822	1	7
405.992	1	13
406.163	1	5
406.334	1	11
406.504	1	7
406.675	1	9
406.846	1	11
407.016	1	16
407.187	1	0
407.358	1	15
407.528	1	5
407.699	1	10
407.870	1	8
408.041	1	19
408.211	1	13
408.382	1	21
408.553	1	4
408.723	1	11
408.894	1	17
409.065	1	12
409.235	1	6
409.406	1	17
409.577	1	17
409.747	1	15
409.918	1	9
410.089	1	12
410.259	1	7
410.430	1	6
410.601	1	13
410.771	1	10
410.942	1	13
411.113	1	29
411.283	1	13
411.454	1	16
411.625	1	3
411.795	1	10
411.966	1	20
412.137	1	15
412.307	1	11
412.478	1	8
412.649	1	19
412.819	1	13
412.990	1	10
413.161	1	16
413.331	1	4
413.502	1	16
413.672	1	2
413.843	1	7
414.014	1	13
414.184	1	3
414.355	1	24
414.526	1	1
414.696	1	15
414.867	1	5
415.038	1	13
415.208	1	11
415.379	1	11
415.550	1	16
415.720	1	20
415.891	1	10
416.062	1	14
416.232	1	-1
416.403	1	13
416.573	1	14
416.744	1	14
416.915	1	5
417.085	1	20
417.256	1	10
417.427	1	6
417.597	1	16
417.768	1	16
417.939	1	4
418.109	1	13
418.280	1	12
418.450	1	7
418.621	1	7
418.792	1	17
418.962	1	10
419.133	1	13
419.304	1	10
419.474	1	13
419.645	1	13
419.815	1	3
419.986	1	8
420.157	1	22
420.327	1	6
420.498	1	12
420.669	1	11
420.839	1	6
421.010	1	5
421.180	1	6
421.351	1	11
421.522	1	13
421.692	1	11
421.863	1	9
422.033	1	11
422.204	1	12
422.375	1	5
422.545	1	13
422.716	1	16
422.886	1	12
423.057	1	20
423.228	1	9
423.398	1	16
423.569	1	13
423.740	1	9
423.910	1	16
424.081	1	2
424.251	1	13
424.422	1	8
424.593	1	12
424.763	1	15
424.934	1	6
425.104	1	9
425.275	1	17
425.445	1	15
425.616	1	7
425.787	1	10
425.957	1	4
426.128	1	10
426.298	1	8
426.469	1	11
426.640	1	9
426.810	1	16
426.981	1	10
427.151	1	16
427.322	1	1
427.493	1	0
427.663	1	13
427.834	1	12
428.004	1	11
428.175	1	11
428.345	1	6
428.516	1	16
428.687	1	20
428.857	1	9
429.028	1	3
429.198	1	0
429.369	1	8
429.540	1	9
429.710	1	16
429.881	1	11
430.051	1	18
430.222	1	12
430.392	1	18
430.563	1	23
430.734	1	7
430.904	1	12
431.075	1	8
431.245	1	7
431.416	1	12
431.586	1	10
431.757	1	21
431.927	1	7
432.098	1	15
432.269	1	7
432.439	1	6
432.610	1	12
432.780	1	0
432.951	1	25
433.121	1	15
433.292	1	16
433.462	1	4
433.633	1	14
433.804	1	9
433.974	1	8
434.145	1	1
434.315	1	11
434.486	1	7
434.656	1	8
434.827	1	9
434.997	1	10
435.168	1	7
435.339	1	2
435.509	1	12
435.680	1	15
435.850	1	3
436.021	1	0
436.191	1	14
436.362	1	9
436.532	1	17
436.703	1	16
436.873	1	17
437.044	1	16
437.214	1	-1
437.385	1	21
437.556	1	9
437.726	1	20
437.897	1	2
438.067	1	8
438.238	1	16
438.408	1	8
438.579	1	18
438.749	1	0
438.920	1	1
439.090	1	11
439.261	1	14
439.431	1	13
439.602	1	15
439.772	1	8
439.943	1	3
440.113	1	8
440.284	1	12
440.455	1	9
440.625	1	13
440.796	1	15
440.966	1	17
441.137	1	-2
441.307	1	19
441.478	1	18
441.648	1	13
441.819	1	11
441.989	1	5
442.160	1	25
442.330	1	8
442.501	1	11
442.671	1	9
442.842	1	16
443.012	1	8
443.183	1	6
443.353	1	18
443.524	1	11
443.694	1	14
443.865	1	11
444.035	1	9
444.206	1	12
444.376	1	17
444.547	1	13
444.717	1	19
444.888	1	20
445.058	1	6
445.229	1	15
445.399	1	10
445.570	1	12
445.740	1	12
445.911	1	5
446.081	1	15
446.252	1	11
446.422	1	0
446.593	1	4
446.763	1	12
446.934	1	14
447.104	1	7
447.275	1	17
447.445	1	12
447.616	1	10
447.786	1	14
447.957	1	12
448.127	1	7
448.298	1	11
448.468	1	23
448.639	1	4
448.809	1	0
448.979	1	12
449.150	1	19
449.320	1	4
449.491	1	10
449.661	1	9
449.832	1	9
450.002	1	5
450.173	1	17
450.343	1	5
450.514	1	20
450.684	1	8
450.855	1	-3
451.025	1	16
451.196	1	5
451.366	1	8
451.537	1	-3
451.707	1	20
451.878	1	7
452.048	1	11
452.218	1	8
452.389	1	3
452.559	1	-3
452.730	1	9
452.900	1	11
453.071	1	12
453.241	1	9
453.412	1	8
453.582	1	6
453.753	1	15
453.923	1	11
454.093	1	9
454.264	1	7
454.434	1	-2
454.605	1	-2
454.775	1	3
454.946	1	12
455.116	1	2
455.287	1	6
455.457	1	13
455.628	1	5
455.798	1	-1
455.968	1	8
456.139	1	4
456.309	1	17
456.480	1	-1
456.650	1	3
456.821	1	9
456.991	1	11
457.161	1	11
457.332	1	-4
457.502	1	8
457.673	1	8
457.843	1	4
458.014	1	7
458.184	1	23
458.355	1	12
458.525	1	7
458.695	1	14
458.866	1	15
459.036	1	-1
459.207	1	-5
459.377	1	14
459.548	1	-2
459.718	1	10
459.888	1	5
460.059	1	11
460.229	1	7
460.400	1	-2
460.570	1	9
460.740	1	2
460.911	1	3
461.081	1	7
461.252	1	14
461.422	1	19
461.593	1	12
461.763	1	7
461.933	1	15
462.104	1	11
462.274	1	11
462.445	1	8
462.615	1	9
462.785	1	13
462.956	1	3
463.126	1	16
463.297	1	-3
463.467	1	8
463.638	1	16
463.808	1	2
463.978	1	-1
464.149	1	7
464.319	1	-2
464.490	1	5
464.660	1	14
464.830	1	13
465.001	1	11
465.171	1	20
465.342	1	22
465.512	1	12
465.682	1	7
465.853	1	4
466.023	1	10
466.194	1	11
466.364	1	-1
466.534	1	12
466.705	1	20
466.875	1	16
467.045	1	9
467.216	1	9
467.386	1	7
467.557	1	12
467.727	1	-2
467.897	1	-4
468.068	1	19
468.238	1	17
468.409	1	9
468.579	1	16
468.749	1	9
468.920	1	5
469.090	1	-3
469.260	1	13
469.431	1	-4
469.601	1	0
469.772	1	8
469.942	1	12
470.112	1	10
470.283	1	9
470.453	1	14
470.623	1	5
470.794	1	2
470.964	1	6
471.135	1	23
471.305	1	8
471.475	1	8
471.646	1	9
471.816	1	13
471.986	1	6
472.157	1	7
472.327	1	3
472.497	1	12
472.668	1	6
472.838	1	2
473.009	1	3
473.179	1	8
473.349	1	1
473.520	1	1
473.690	1	12
473.860	1	4
474.031	1	13
474.201	1	4
474.371	1	24
474.542	1	0
474.712	1	6
474.882	1	-4
475.053	1	-3
475.223	1	11
475.394	1	10
475.564	1	5
475.734	1	9
475.905	1	6
476.075	1	10
476.245	1	-9
476.416	1	14
476.586	1	2
476.756	1	16
476.927	1	6
477.097	1	15
477.267	1	1
477.438	1	6
477.608	1	4
477.778	1	3
477.949	1	4
478.119	1	3
478.289	1	0
478.460	1	6
478.630	1	5
478.800	1	12
478.971	1	17
479.141	1	11
479.311	1	9
479.482	1	4
479.652	1	5
479.822	1	2
479.993	1	10
480.163	1	17
480.333	1	10
480.504	1	7
480.674	1	16
480.844	1	3
481.015	1	3
481.185	1	-1
481.355	1	8
481.525	1	2
481.696	1	5
481.866	1	16
482.036	1	11
482.207	1	14
482.377	1	1
482.547	1	5
482.718	1	3
482.888	1	14
483.058	1	8
483.229	1	5
483.399	1	-1
483.569	1	6
483.740	1	-2
483.910	1	10
484.080	1	14
484.250	1	14
484.421	1	6
484.591	1	3
484.761	1	11
484.932	1	2
485.102	1	6
485.272	1	-2
485.443	1	3
485.613	1	2
485.783	1	2
485.953	1	3
486.124	1	12
486.294	1	17
486.464	1	8
486.635	1	4
486.805	1	9
486.975	1	1
487.146	1	0
487.316	1	0
487.486	1	8
487.656	1	3
487.827	1	-1
487.997	1	5
488.167	1	3
488.338	1	14
488.508	1	13
488.678	1	6
488.848	1	-4
489.019	1	-4
489.189	1	9
489.359	1	7
489.529	1	3
489.700	1	8
489.870	1	9
490.040	1	17
490.211	1	-1
490.381	1	10
490.551	1	4
490.721	1	-3
490.892	1	5
491.062	1	9
491.232	1	1
491.402	1	19
491.573	1	5
491.743	1	10
491.913	1	9
492.084	1	9
492.254	1	8
492.424	1	0
492.594	1	5
492.765	1	3
492.935	1	-1
493.105	1	15
493.275	1	7
493.446	1	8
493.616	1	6
493.786	1	8
493.956	1	2
494.127	1	16
494.297	1	6
494.467	1	-8
494.637	1	5
494.808	1	6
494.978	1	11
495.148	1	15
495.318	1	-4
495.489	1	14
495.659	1	14
495.829	1	6
495.999	1	-10
496.170	1	1
496.340	1	4
496.510	1	10
496.680	1	7
496.851	1	6
497.021	1	6
497.191	1	20
497.361	1	4
497.532	1	15
497.702	1	-4
497.872	1	4
498.042	1	6
498.213	1	0
498.383	1	4
498.553	1	14
498.723	1	7
498.894	1	2
499.064	1	9
499.234	1	14
499.404	1	-2
499.574	1	-4
499.745	1	12
499.915	1	-3
500.085	1	6
500.255	1	3
500.426	1	4
500.596	1	4
500.766	1	8
500.936	1	-4
501.106	1	3
501.277	1	6
501.447	1	1
501.617	1	-1
501.787	1	6
501.958	1	9
502.128	1	6
502.298	1	3
502.468	1	15
502.638	1	6
502.809	1	6
502.979	1	5
503.149	1	9
503.319	1	4
503.489	1	6
503.660	1	8
503.830	1	6
504.000	1	11
504.170	1	1
504.340	1	6
504.511	1	12
504.681	1	8
504.851	1	2
505.021	1	0
505.192	1	9
505.362	1	-3
505.532	1	-3
505.702	1	4
505.872	1	8
506.043	1	11
506.213	1	6
506.383	1	6
506.553	1	13
506.723	1	-14
506.893	1	3
507.064	1	12
507.234	1	-2
507.404	1	9
507.574	1	13
507.744	1	11
507.915	1	7
508.085	1	14
508.255	1	11
508.425	1	-3
508.595	1	3
508.766	1	-6
508.936	1	2
509.106	1	18
509.276	1	7
509.446	1	8
509.616	1	10
509.787	1	0
509.957	1	-1
510.127	1	-1
510.297	1	-1
510.467	1	9
510.638	1	2
510.808	1	-11
510.978	1	18
511.148	1	2
511.318	1	-3
511.488	1	2
511.659	1	7
511.829	1	7
511.999	1	12
512.169	1	14
512.339	1	1
512.509	1	13
512.680	1	10
512.850	1	-1
513.020	1	4
513.190	1	-7
513.360	1	7
513.530	1	8
513.700	1	16
513.871	1	4
514.041	1	11
514.211	1	2
514.381	1	-1
514.551	1	3
514.721	1	1
514.892	1	5
515.062	1	0
515.232	1	-10
515.402	1	-4
515.572	1	14
515.742	1	14
515.912	1	10
516.083	1	9
516.253	1	-5
516.423	1	0
516.593	1	-4
516.763	1	1
516.933	1	-13
517.104	1	3
517.274	1	1
517.444	1	11
517.614	1	3
517.784	1	-8
517.954	1	6
518.124	1	5
518.294	1	13
518.465	1	0
518.635	1	11
518.805	1	3
518.975	1	-4
519.145	1	5
519.315	1	9
519.485	1	0
519.656	1	1
519.826	1	4
519.996	1	2
520.166	1	3
520.336	1	4
520.506	1	-7
520.676	1	0
520.846	1	3
521.017	1	12
521.187	1	12
521.357	1	4
521.527	1	8
521.697	1	4
521.867	1	4
522.037	1	0
522.207	1	-3
522.377	1	12
522.548	1	-1
522.718	1	6
522.888	1	4
523.058	1	9
523.228	1	6
523.398	1	6
523.568	1	-2
523.738	1	5
523.909	1	-4
524.079	1	-2
524.249	1	1
524.419	1	10
524.589	1	7
524.759	1	9
524.929	1	9
525.099	1	-1
525.269	1	3
525.439	1	6
525.610	1	5
525.780	1	10
525.950	1	-1
526.120	1	1
526.290	1	-9
526.460	1	10
526.630	1	6
526.800	1	9
526.970	1	8
527.140	1	9
527.311	1	4
527.481	1	1
527.651	1	-3
527.821	1	10
527.991	1	4
528.161	1	0
528.331	1	5
528.501	1	4
528.671	1	-1
528.841	1	7
529.011	1	4
529.181	1	4
529.352	1	15
529.522	1	-4
529.692	1	-1
529.862	1	-4
530.032	1	6
530.202	1	-10
530.372	1	0
530.542	1	7
530.712	1	22
530.882	1	6
531.052	1	11
531.222	1	-2
531.392	1	-2
531.563	1	1
531.733	1	1
531.903	1	3
532.073	1	-3
532.243	1	13
532.413	1	14
532.583	1	13
532.753	1	12
532.923	1	-2
533.093	1	2
533.263	1	7
533.433	1	3
533.603	1	3
533.773	1	2
533.943	1	6
534.113	1	4
534.284	1	3
534.454	1	8
534.624	1	-1
534.794	1	-1
534.964	1	-1
535.134	1	-1
535.304	1	1
535.474	1	11
535.644	1	9
535.814	1	3
535.984	1	2
536.154	1	5
536.324	1	-10
536.494	1	9
536.664	1	-3
536.834	1	10
537.004	1	-7
537.174	1	14
537.344	1	5
537.514	1	-2
537.685	1	7
537.855	1	11
538.025	1	5
538.195	1	3
538.365	1	1
538.535	1	-5
538.705	1	-5
538.875	1	5
539.045	1	8
539.215	1	9
539.385	1	-6
539.555	1	6
539.725	1	5
539.895	1	2
540.065	1	1
540.235	1	5
540.405	1	-7
540.575	1	-5
540.745	1	12
540.915	1	3
541.085	1	-7
541.255	1	-2
541.425	1	4
541.595	1	13
541.765	1	-3
541.935	1	12
542.105	1	13
542.275	1	0
542.445	1	17
542.615	1	2
542.785	1	-5
542.955	1	0
543.125	1	8
543.295	1	-1
543.465	1	5
543.635	1	-1
543.805	1	-1
543.975	1	3
544.145	1	7
544.315	1	10
544.485	1	-1
544.655	1	1
544.825	1	4
544.995	1	-1
545.165	1	4
545.335	1	-10
545.505	1	-2
545.675	1	6
545.845	1	-11
546.015	1	-5
546.185	1	-5
546.355	1	8
546.525	1	2
546.695	1	-1
546.865	1	0
547.035	1	6
547.205	1	3
547.375	1	1
547.545	1	-4
547.715	1	-1
547.885	1	4
548.055	1	10
548.225	1	-5
548.395	1	7
548.565	1	7
548.735	1	8
548.905	1	-3
549.075	1	-2
549.245	1	2
549.415	1	-3
549.585	1	-7
549.755	1	7
549.925	1	23
550.095	1	-1
550.265	1	-6
550.435	1	10
550.605	1	-6
550.775	1	11
550.945	1	3
551.115	1	9
551.285	1	-4
551.455	1	-2
551.625	1	7
551.795	1	0
551.965	1	11
552.135	1	20
552.305	1	3
552.475	1	-2
552.645	1	-3
552.815	1	0
552.985	1	8
553.155	1	-8
553.325	1	9
553.495	1	6
553.665	1	2
553.835	1	7
554.004	1	8
554.174	1	1
554.344	1	-7
554.514	1	4
554.684	1	-2
554.854	1	4
555.024	1	7
555.194	1	-4
555.364	1	1
555.534	1	22
555.704	1	5
555.874	1	-3
556.044	1	17
556.214	1	-9
556.384	1	6
556.554	1	0
556.724	1	8
556.894	1	1
557.064	1	9
557.234	1	1
557.404	1	13
557.573	1	-6
557.743	1	1
557.913	1	2
558.083	1	2
558.253	1	-1
558.423	1	4
558.593	1	16
558.763	1	2
558.933	1	5
559.103	1	5
559.273	1	11
559.443	1	4
559.613	1	-6
559.783	1	12
559.953	1	8
560.122	1	2
560.292	1	-10
560.462	1	9
560.632	1	5
560.802	1	11
560.972	1	1
561.142	1	-4
561.312	1	4
561.482	1	5
561.652	1	0
561.822	1	0
561.992	1	-5
562.162	1	1
562.331	1	4
562.501	1	3
562.671	1	1
562.841	1	-12
563.011	1	-1
563.181	1	12
563.351	1	6
563.521	1	10
563.691	1	-10
563.861	1	4
564.031	1	9
564.201	1	11
564.370	1	-5
564.540	1	17
564.710	1	-5
564.880	1	13
565.050	1	7
565.220	1	-2
565.390	1	-2
565.560	1	8
565.730	1	-5
565.900	1	-1
566.069	1	0
566.239	1	-3
566.409	1	-8
566.579	1	7
566.749	1	8
566.919	1	3
567.089	1	7
567.259	1	-12
567.429	1	7
567.599	1	0
567.768	1	9
567.938	1	4
568.108	1	-1
568.278	1	-4
568.448	1	3
568.618	1	-4
568.788	1	8
568.958	1	6
569.128	1	10
569.297	1	-6
569.467	1	5
569.637	1	-1
569.807	1	1
569.977	1	6
570.147	1	-2
570.317	1	-7
570.487	1	-6
570.656	1	-3
570.826	1	-2
570.996	1	-2
571.166	1	10
571.336	1	9
571.506	1	5
571.676	1	0
571.846	1	3
572.015	1	0
572.185	1	7
572.355	1	2
572.525	1	1
572.695	1	-3
572.865	1	1
573.035	1	6
573.205	1	4
573.374	1	13
573.544	1	0
573.714	1	-2
573.884	1	12
574.054	1	6
574.224	1	-3
574.394	1	3
574.563	1	13
574.733	1	5
574.903	1	4
575.073	1	-4
575.243	1	2
575.413	1	8
575.583	1	8
575.752	1	4
575.922	1	-3
576.092	1	1
576.262	1	2
576.432	1	5
576.602	1	-4
576.772	1	-11
576.941	1	9
577.111	1	-1
577.281	1	0
577.451	1	4
577.621	1	-3
577.791	1	6
577.960	1	-2
578.130	1	-4
578.300	1	-6
578.470	1	4
578.640	1	-5
578.810	1	4
578.979	1	4
579.149	1	0
579.319	1	9
579.489	1	5
579.659	1	6
579.829	1	3
579.998	1	6
580.168	1	0
580.338	1	13
580.508	1	13
580.678	1	4
580.848	1	0
581.017	1	-1
581.187	1	5
581.357	1	8
581.527	1	2
581.697	1	4
581.867	1	3
582.036	1	2
582.206	1	-2
582.376	1	9
582.546	1	1
582.716	1	-1
582.885	1	-10
583.055	1	11
583.225	1	11
583.395	1	11
583.565	1	-4
583.735	1	13
583.904	1	-3
584.074	1	0
584.244	1	4
584.414	1	-1
584.584	1	-4
584.753	1	-1
584.923	1	1
585.093	1	-5
585.263	1	0
585.433	1	-5
585.602	1	9
585.772	1	-3
585.942	1	4
586.112	1	6
586.282	1	12
586.451	1	5
586.621	1	8
586.791	1	-6
586.961	1	5
587.131	1	1
587.300	1	-1
587.470	1	2
587.640	1	-3
587.810	1	0
587.980	1	-5
588.149	1	8
588.319	1	-4
588.489	1	1
588.659	1	7
588.829	1	-4
588.998	1	11
589.168	1	0
589.338	1	2
589.508	1	7
589.677	1	16
589.847	1	-6
590.017	1	5
590.187	1	5
590.357	1	3
590.526	1	3
590.696	1	4
590.866	1	14
591.036	1	-6
591.205	1	6
591.375	1	-6
591.545	1	5
591.715	1	1
591.885	1	9
592.054	1	16
592.224	1	12
592.394	1	8
592.564	1	4
592.733	1	5
592.903	1	-2
593.073	1	5
593.243	1	-7
593.412	1	3
593.582	1	3
593.752	1	6
593.922	1	-1
594.091	1	8
594.261	1	2
594.431	1	-3
594.601	1	-10
594.771	1	-4
594.940	1	1
595.110	1	10
595.280	1	2
595.450	1	-9
595.619	1	10
595.789	1	6
595.959	1	4
596.129	1	1
596.298	1	-1
596.468	1	4
596.638	1	-7
596.808	1	1
596.977	1	7
597.147	1	10
597.317	1	0
597.487	1	7
597.656	1	9
597.826	1	4
597.996	1	2
598.166	1	7
598.335	1	-5
598.505	1	4
598.675	1	8
598.844	1	9
599.014	1	15
599.184	1	8
599.354	1	-1
599.523	1	9
599.693	1	6
599.863	1	-7
600.033	1	0
600.202	1	2
600.372	1	9
600.542	1	4
600.712	1	6
600.881	1	4
601.051	1	-1
601.221	1	1
601.390	1	10
601.560	1	6
601.730	1	2
601.900	1	19
602.069	1	-4
602.239	1	7
602.409	1	2
602.578	1	1
602.748	1	-9
602.918	1	-6
603.088	1	2
603.257	1	-1
603.427	1	7
603.597	1	12
603.767	1	9
603.936	1	8
604.106	1	14
604.276	1	-9
604.445	1	1
604.615	1	-3
604.785	1	-5
604.954	1	-3
605.124	1	7
605.294	1	6
605.464	1	-3
605.633	1	4
605.803	1	10
605.973	1	0
606.142	1	-5
606.312	1	-10
606.482	1	1
606.652	1	8
606.821	1	5
606.991	1	14
607.161	1	0
607.330	1	5
607.500	1	7
607.670	1	11
607.839	1	-5
608.009	1	8
608.179	1	2
608.348	1	5
608.518	1	-4
608.688	1	5
608.858	1	4
609.027	1	-2
609.197	1	3
609.367	1	2
609.536	1	-1
609.706	1	6
609.876	1	-2
610.045	1	1
610.215	1	0
610.385	1	-4
610.554	1	-2
610.724	1	-1
610.894	1	10
611.063	1	1
611.233	1	-5
611.403	1	11
611.572	1	9
611.742	1	-12
611.912	1	0
612.081	1	-5
612.251	1	15
612.421	1	3
612.590	1	-1
612.760	1	-1
612.930	1	-7
613.099	1	11
613.269	1	-2
613.439	1	2
613.608	1	5
613.778	1	10
613.948	1	5
614.117	1	2
614.287	1	-4
614.457	1	1
614.626	1	-3
614.796	1	8
614.966	1	-6
615.135	1	8
615.305	1	-6
615.475	1	4
615.644	1	3
615.814	1	-1
615.984	1	13
616.153	1	0
616.323	1	13
616.493	1	-6
616.662	1	11
616.832	1	10
617.002	1	3
617.171	1	7
617.341	1	5
617.511	1	12
617.680	1	3
617.850	1	14
618.019	1	-5
618.189	1	-6
618.359	1	4
618.528	1	4
618.698	1	1
618.868	1	9
619.037	1	6
619.207	1	-1
619.377	1	-2
619.546	1	8
619.716	1	5
619.885	1	-4
620.055	1	-5
620.225	1	2
620.394	1	8
620.564	1	3
620.734	1	5
620.903	1	7
621.073	1	5
621.242	1	-8
621.412	1	10
621.582	1	-7
621.751	1	-8
621.921	1	8
622.091	1	9
622.260	1	3
622.430	1	7
622.599	1	8
622.769	1	11
622.939	1	-4
623.108	1	0
623.278	1	4
623.448	1	-3
623.617	1	-2
623.787	1	2
623.956	1	10
624.126	1	-1
624.296	1	6
624.465	1	9
624.635	1	17
624.804	1	-2
624.974	1	5
625.144	1	7
625.313	1	13
625.483	1	-2
625.652	1	-5
625.822	1	2
625.992	1	11
626.161	1	8
626.331	1	4
626.501	1	11
626.670	1	8
626.840	1	5
627.009	1	9
627.179	1	-1
627.348	1	6
627.518	1	1
627.688	1	9
627.857	1	1
628.027	1	12
628.196	1	6
628.366	1	14
628.536	1	1
628.705	1	7
628.875	1	10
629.044	1	3
629.214	1	-5
629.384	1	3
629.553	1	-2
629.723	1	-1
629.892	1	4
630.062	1	7
630.232	1	2
630.401	1	6
630.571	1	3
630.740	1	7
630.910	1	1
631.079	1	8
631.249	1	-8
631.419	1	9
631.588	1	-2
631.758	1	2
631.927	1	-2
632.097	1	4
632.266	1	4
632.436	1	10
632.606	1	5
632.775	1	3
632.945	1	-6
633.114	1	0
633.284	1	4
633.453	1	1
633.623	1	2
633.793	1	6
633.962	1	6
634.132	1	9
634.301	1	2
634.471	1	15
634.640	1	7
634.810	1	0
634.979	1	-3
635.149	1	-3
635.319	1	8
635.488	1	6
635.658	1	14
635.827	1	-1
635.997	1	12
636.166	1	5
636.336	1	7
636.505	1	-11
636.675	1	5
636.845	1	2
637.014	1	13
637.184	1	4
637.353	1	1
637.523	1	6
637.692	1	17
637.862	1	8
638.031	1	1
638.201	1	8
638.370	1	-1
638.540	1	5
638.710	1	5
638.879	1	11
639.049	1	2
639.218	1	2
639.388	1	-1
639.557	1	0
639.727	1	-4
639.896	1	-3
640.066	1	10
640.235	1	7
640.405	1	-6
640.574	1	-4
640.744	1	9
640.914	1	-5
641.083	1	19
641.253	1	-2
641.422	1	-3
641.592	1	12
641.761	1	6
641.931	1	12
642.100	1	-3
642.270	1	-8
642.439	1	3
642.609	1	-3
642.778	1	-1
642.948	1	3
643.117	1	12
643.287	1	11
643.456	1	14
643.626	1	16
643.795	1	4
643.965	1	5
644.134	1	4
644.304	1	-6
644.473	1	4
644.643	1	3
644.812	1	-4
644.982	1	-2
645.151	1	14
645.321	1	3
645.490	1	5
645.660	1	0
645.829	1	0
645.999	1	3
646.168	1	4
646.338	1	13
646.507	1	7
646.677	1	5
646.846	1	9
647.016	1	-1
647.185	1	-1
647.355	1	-3
647.524	1	0
647.694	1	-4
647.863	1	1
648.033	1	-1
648.202	1	13
648.372	1	4
648.541	1	5
648.711	1	5
648.880	1	12
649.050	1	-4
649.219	1	8
649.389	1	6
649.558	1	10
649.728	1	-4
649.897	1	7
650.067	1	13
650.236	1	14
650.406	1	0
650.575	1	-6
650.745	1	7
650.914	1	-5
651.084	1	5
651.253	1	7
651.423	1	2
651.592	1	1
651.762	1	11
651.931	1	12
652.101	1	9
652.270	1	-5
652.440	1	-3
652.609	1	-2
652.778	1	1
652.948	1	2
653.117	1	10
653.287	1	-4
653.456	1	-4
653.626	1	-5
653.795	1	7
653.965	1	9
654.134	1	10
654.304	1	5
654.473	1	-2
654.643	1	-1
654.812	1	14
654.982	1	12
655.151	1	0
655.320	1	3
655.490	1	-2
655.659	1	4
655.829	1	6
655.998	1	3
656.168	1	-3
656.337	1	-2
656.507	1	-2
656.676	1	2
656.846	1	5
657.015	1	2
657.184	1	2
657.354	1	5
657.523	1	-3
657.693	1	-9
657.862	1	4
658.032	1	7
658.201	1	4
658.371	1	6
658.540	1	-4
658.709	1	4
658.879	1	11
659.048	1	1
659.218	1	1
659.387	1	2
659.557	1	20
659.726	1	10
659.895	1	8
660.065	1	-6
660.234	1	-2
660.404	1	-1
660.573	1	-11
660.743	1	3
660.912	1	7
661.081	1	11
661.251	1	2
661.420	1	10
661.590	1	0
661.759	1	3
661.929	1	-7
662.098	1	-2
662.267	1	1
662.437	1	4
662.606	1	15
662.776	1	6
662.945	1	10
663.115	1	-1
663.284	1	9
663.453	1	3
663.623	1	-3
663.792	1	0
663.962	1	-2
664.131	1	8
664.300	1	10
664.470	1	6
664.639	1	7
664.809	1	-3
664.978	1	-2
665.148	1	-1
665.317	1	-6
665.486	1	7
665.656	1	-7
665.825	1	9
665.995	1	8
666.164	1	4
666.333	1	11
666.503	1	9
666.672	1	-7
666.842	1	0
667.011	1	8
667.180	1	-4
667.350	1	-4
667.519	1	5
667.689	1	14
667.858	1	5
668.027	1	-3
668.197	1	6
668.366	1	14
668.536	1	1
668.705	1	-3
668.874	1	-13
669.044	1	4
669.213	1	4
669.382	1	-3
669.552	1	11
669.721	1	2
669.891	1	3
670.060	1	8
670.229	1	-4
670.399	1	7
670.568	1	9
670.738	1	4
670.907	1	7
671.076	1	5
671.246	1	2
671.415	1	-8
671.584	1	-2
671.754	1	12
671.923	1	1
672.093	1	-1
672.262	1	5
672.431	1	11
672.601	1	-4
672.770	1	-4
672.939	1	7
673.109	1	0
673.278	1	-3
673.448	1	0
673.617	1	-1
673.786	1	3
