325.333	1	13
325.504	1	2
325.675	1	6
325.846	1	0
326.017	1	13
326.188	1	11
326.359	1	6
326.531	1	8
326.702	1	3
326.873	1	15
327.044	1	-9
327.215	1	10
327.386	1	0
327.557	1	-9
327.728	1	14
327.899	1	19
328.070	1	14
328.241	1	13
328.412	1	-5
328.583	1	-5
328.754	1	8
328.926	1	6
329.097	1	9
329.268	1	4
329.439	1	11
329.610	1	9
329.781	1	6
329.952	1	9
330.123	1	4
330.294	1	6
330.465	1	8
330.636	1	4
330.807	1	-3
330.978	1	12
331.149	1	13
331.320	1	7
331.492	1	7
331.663	1	5
331.834	1	3
332.005	1	4
332.176	1	14
332.347	1	1
332.518	1	12
332.689	1	5
332.860	1	5
333.031	1	-5
333.202	1	2
333.373	1	11
333.544	1	9
333.715	1	1
333.886	1	7
334.057	1	11
334.228	1	1
334.399	1	11
334.570	1	12
334.741	1	2
334.912	1	8
335.084	1	5
335.255	1	22
335.426	1	4
335.597	1	11
335.768	1	14
335.939	1	10
336.110	1	11
336.281	1	0
336.452	1	16
336.623	1	10
336.794	1	-2
336.965	1	16
337.136	1	4
337.307	1	15
337.478	1	-8
337.649	1	0
337.820	1	17
337.991	1	11
338.162	1	7
338.333	1	8
338.504	1	11
338.675	1	4
338.846	1	15
339.017	1	-6
339.188	1	10
339.359	1	13
339.530	1	3
339.701	1	8
339.872	1	12
340.043	1	1
340.214	1	6
340.385	1	7
340.556	1	7
340.727	1	10
340.898	1	10
341.069	1	3
341.240	1	5
341.411	1	15
341.582	1	4
341.753	1	10
341.924	1	12
342.095	1	12
342.266	1	4
342.437	1	24
342.608	1	17
342.779	1	25
342.950	1	1
343.121	1	6
343.292	1	9
343.463	1	12
343.634	1	9
343.805	1	12
343.976	1	12
344.147	1	3
344.318	1	18
344.489	1	7
344.660	1	10
344.831	1	9
345.002	1	4
345.173	1	12
345.344	1	6
345.515	1	2
345.686	1	10
345.857	1	13
346.028	1	13
346.199	1	-4
346.370	1	14
346.541	1	15
346.712	1	6
346.883	1	3
347.054	1	6
347.225	1	1
347.396	1	11
347.567	1	12
347.738	1	8
347.909	1	5
348.080	1	7
348.251	1	13
348.422	1	6
348.593	1	15
348.764	1	7
348.935	1	3
349.106	1	1
349.277	1	11
349.448	1	6
349.619	1	8
349.790	1	9
349.961	1	14
350.132	1	13
350.303	1	16
350.474	1	14
350.645	1	9
350.816	1	9
350.987	1	17
351.157	1	-2
351.328	1	10
351.499	1	12
351.670	1	13
351.841	1	18
352.012	1	13
352.183	1	4
352.354	1	12
352.525	1	3
352.696	1	9
352.867	1	-3
353.038	1	4
353.209	1	14
353.380	1	15
353.551	1	7
353.722	1	13
353.893	1	10
354.064	1	21
354.235	1	7
354.406	1	15
354.576	1	0
354.747	1	11
354.918	1	14
355.089	1	8
355.260	1	10
355.431	1	6
355.602	1	7
355.773	1	10
355.944	1	12
356.115	1	8
356.286	1	19
356.457	1	10
356.628	1	12
356.799	1	3
356.970	1	13
357.141	1	2
357.311	1	7
357.482	1	21
357.653	1	-1
357.824	1	9
357.995	1	22
358.166	1	19
358.337	1	15
358.508	1	8
358.679	1	11
358.850	1	21
359.021	1	9
359.192	1	5
359.363	1	5
359.533	1	12
359.704	1	1
359.875	1	6
360.046	1	6
360.217	1	30
360.388	1	5
360.559	1	17
360.730	1	11
360.901	1	7
361.072	1	8
361.243	1	21
361.414	1	3
361.584	1	4
361.755	1	5
361.926	1	13
362.097	1	15
362.268	1	16
362.439	1	2
362.610	1	9
362.781	1	1
362.952	1	11
363.123	1	0
363.293	1	16
363.464	1	25
363.635	1	16
363.806	1	18
363.977	1	5
364.148	1	6
364.319	1	13
364.490	1	16
364.661	1	16
364.832	1	7
365.002	1	15
365.173	1	9
365.344	1	21
365.515	1	8
365.686	1	10
365.857	1	16
366.028	1	4
366.199	1	12
366.370	1	5
366.540	1	21
366.711	1	14
366.882	1	8
367.053	1	7
367.224	1	16
367.395	1	11
367.566	1	2
367.737	1	-1
367.908	1	21
368.078	1	13
368.249	1	16
368.420	1	3
368.591	1	7
368.762	1	6
368.933	1	21
369.104	1	22
369.274	1	18
369.445	1	16
369.616	1	2
369.787	1	10
369.958	1	4
370.129	1	11
370.300	1	19
370.471	1	15
370.641	1	16
370.812	1	16
370.983	1	12
371.154	1	19
371.325	1	-3
371.496	1	3
371.667	1	6
371.837	1	8
372.008	1	14
372.179	1	5
372.350	1	14
372.521	1	17
372.692	1	18
372.863	1	20
373.033	1	8
373.204	1	9
373.375	1	8
373.546	1	5
373.717	1	8
373.888	1	9
374.059	1	14
374.229	1	8
374.400	1	17
374.571	1	4
374.742	1	16
374.913	1	4
375.084	1	8
375.254	1	12
375.425	1	5
375.596	1	14
375.767	1	17
375.938	1	13
376.109	1	20
376.279	1	9
376.450	1	20
376.621	1	16
376.792	1	19
376.963	1	0
377.134	1	16
377.304	1	10
377.475	1	3
377.646	1	14
377.817	1	23
377.988	1	16
378.159	1	13
378.329	1	3
378.500	1	15
378.671	1	15
378.842	1	15
379.013	1	7
379.184	1	12
379.354	1	11
379.525	1	9
379.696	1	14
379.867	1	16
380.038	1	19
380.209	1	12
380.379	1	17
380.550	1	11
380.721	1	26
380.892	1	1
381.063	1	0
381.233	1	12
381.404	1	15
381.575	1	24
381.746	1	11
381.917	1	15
382.087	1	20
382.258	1	11
382.429	1	5
382.600	1	7
382.771	1	16
382.941	1	11
383.112	1	12
383.283	1	11
383.454	1	6
383.625	1	8
383.795	1	23
383.966	1	11
384.137	1	21
384.308	1	22
384.479	1	24
384.649	1	22
384.820	1	18
384.991	1	15
385.162	1	11
385.333	1	12
385.503	1	-2
385.674	1	11
385.845	1	19
386.016	1	10
386.187	1	10
386.357	1	18
386.528	1	14
386.699	1	27
386.870	1	8
387.041	1	20
387.211	1	13
387.382	1	11
387.553	1	13
387.724	1	6
387.894	1	13
388.065	1	21
388.236	1	13
388.407	1	11
388.578	1	8
388.748	1	2
388.919	1	19
389.090	1	9
389.261	1	11
389.431	1	21
389.602	1	12
389.773	1	10
389.944	1	22
390.114	1	11
390.285	1	11
390.456	1	17
390.627	1	11
390.798	1	15
390.968	1	5
391.139	1	17
391.310	1	20
391.481	1	18
391.651	1	15
391.822	1	20
391.993	1	27
392.164	1	3
392.334	1	8
392.505	1	12
392.676	1	17
392.847	1	13
393.017	1	17
393.188	1	14
393.359	1	11
393.530	1	13
393.700	1	17
393.871	1	26
394.042	1	12
394.213	1	16
394.383	1	21
394.554	1	4
394.725	1	10
394.896	1	7
395.066	1	22
395.237	1	15
395.408	1	11
395.579	1	12
395.749	1	7
395.920	1	17
396.091	1	11
396.262	1	15
396.432	1	11
396.603	1	23
396.774	1	13
396.945	1	14
397.115	1	6
397.286	1	16
397.457	1	25
397.627	1	20
397.798	1	12
397.969	1	14
398.140	1	15
398.310	1	26
398.481	1	19
398.652	1	26
398.823	1	10
398.993	1	16
399.164	1	13
399.335	1	13
399.505	1	22
399.676	1	23
399.847	1	25
400.018	1	21
400.188	1	18
400.359	1	22
400.530	1	22
400.700	1	15
400.871	1	23
401.042	1	22
401.213	1	20
401.383	1	17
401.554	1	18
401.725	1	18
401.895	1	14
402.066	1	15
402.237	1	9
402.408	1	19
402.578	1	16
402.749	1	12
402.920	1	20
403.090	1	24
403.261	1	22
403.432	1	13
403.603	1	4
403.773	1	22
403.944	1	17
404.115	1	14
404.285	1	15
404.456	1	4
404.627	1	23
404.797	1	16
404.968	1	28
405.139	1	20
405.310	1	20
405.480	1	20
405.651	1	-1
405.822	1	15
405.992	1	20
406.163	1	15
406.334	1	17
406.504	1	13
406.675	1	13
406.846	1	12
407.016	1	13
407.187	1	13
407.358	1	25
407.528	1	9
407.699	1	15
407.870	1	9
408.041	1	26
408.211	1	7
408.382	1	27
408.553	1	12
408.723	1	15
408.894	1	9
409.065	1	17
409.235	1	8
409.406	1	19
409.577	1	27
409.747	1	28
409.918	1	20
410.089	1	20
410.259	1	14
410.430	1	18
410.601	1	18
410.771	1	15
410.942	1	20
411.113	1	33
411.283	1	16
411.454	1	19
411.625	1	13
411.795	1	23
411.966	1	22
412.137	1	21
412.307	1	10
412.478	1	12
412.649	1	19
412.819	1	19
412.990	1	20
413.161	1	25
413.331	1	25
413.502	1	17
413.672	1	17
413.843	1	10
414.014	1	32
414.184	1	11
414.355	1	18
414.526	1	22
414.696	1	13
414.867	1	12
415.038	1	14
415.208	1	13
415.379	1	23
415.550	1	17
415.720	1	24
415.891	1	12
416.062	1	8
416.232	1	20
416.403	1	20
416.573	1	24
416.744	1	19
416.915	1	9
417.085	1	22
417.256	1	24
417.427	1	14
417.597	1	19
417.768	1	17
417.939	1	18
418.109	1	12
418.280	1	16
418.450	1	18
418.621	1	15
418.792	1	21
418.962	1	25
419.133	1	19
419.304	1	21
419.474	1	15
419.645	1	23
419.815	1	9
419.986	1	19
420.157	1	15
420.327	1	20
420.498	1	18
420.669	1	15
420.839	1	16
421.010	1	20
421.180	1	13
421.351	1	26
421.522	1	21
421.692	1	7
421.863	1	7
422.033	1	14
422.204	1	19
422.375	1	18
422.545	1	15
422.716	1	24
422.886	1	22
423.057	1	32
423.228	1	9
423.398	1	20
423.569	1	13
423.740	1	21
423.910	1	13
424.081	1	17
424.251	1	17
424.422	1	20
424.593	1	23
424.763	1	17
424.934	1	11
425.104	1	9
425.275	1	23
425.445	1	15
425.616	1	22
425.787	1	21
425.957	1	16
426.128	1	16
426.298	1	4
426.469	1	15
426.640	1	10
426.810	1	32
426.981	1	16
427.151	1	21
427.322	1	22
427.493	1	11
427.663	1	16
427.834	1	10
428.004	1	22
428.175	1	1
428.345	1	17
428.516	1	16
428.687	1	25
428.857	1	25
429.028	1	5
429.198	1	6
429.369	1	14
429.540	1	16
429.710	1	26
429.881	1	14
430.051	1	17
430.222	1	21
430.392	1	17
430.563	1	24
430.734	1	13
430.904	1	17
431.075	1	14
431.245	1	6
431.416	1	6
431.586	1	16
431.757	1	26
431.927	1	18
432.098	1	21
432.269	1	22
432.439	1	18
432.610	1	10
432.780	1	2
432.951	1	22
433.121	1	15
433.292	1	21
433.462	1	22
433.633	1	27
433.804	1	9
433.974	1	24
434.145	1	8
434.315	1	14
434.486	1	21
434.656	1	18
434.827	1	21
434.997	1	15
435.168	1	10
435.339	1	11
435.509	1	30
435.680	1	23
435.850	1	16
436.021	1	19
436.191	1	24
436.362	1	22
436.532	1	30
436.703	1	10
436.873	1	14
437.044	1	16
437.214	1	15
437.385	1	25
437.556	1	11
437.726	1	26
437.897	1	0
438.067	1	26
438.238	1	16
438.408	1	24
438.579	1	27
438.749	1	11
438.920	1	3
439.090	1	13
439.261	1	17
439.431	1	24
439.602	1	19
439.772	1	28
439.943	1	8
440.113	1	13
440.284	1	30
440.455	1	25
440.625	1	13
440.796	1	18
440.966	1	15
441.137	1	12
441.307	1	24
441.478	1	21
441.648	1	22
441.819	1	14
441.989	1	21
442.160	1	16
442.330	1	10
442.501	1	13
442.671	1	17
442.842	1	21
443.012	1	21
443.183	1	11
443.353	1	18
443.524	1	17
443.694	1	16
443.865	1	18
444.035	1	4
444.206	1	18
444.376	1	27
444.547	1	12
444.717	1	25
444.888	1	24
445.058	1	12
445.229	1	11
445.399	1	13
445.570	1	17
445.740	1	20
445.911	1	8
446.081	1	13
446.252	1	18
446.422	1	3
446.593	1	26
446.763	1	25
446.934	1	22
447.104	1	11
447.275	1	37
447.445	1	14
447.616	1	14
447.786	1	31
447.957	1	17
448.127	1	21
448.298	1	24
448.468	1	30
448.639	1	10
448.809	1	1
448.979	1	16
449.150	1	31
449.320	1	13
449.491	1	6
449.661	1	27
449.832	1	20
450.002	1	20
450.173	1	22
450.343	1	15
450.514	1	13
450.684	1	3
450.855	1	16
451.025	1	22
451.196	1	8
451.366	1	20
451.537	1	13
451.707	1	23
451.878	1	13
452.048	1	22
452.218	1	19
452.389	1	13
452.559	1	16
452.730	1	16
452.900	1	13
453.071	1	14
453.241	1	17
453.412	1	22
453.582	1	22
453.753	1	12
453.923	1	14
454.093	1	18
454.264	1	20
454.434	1	12
454.605	1	8
454.775	1	6
454.946	1	9
455.116	1	17
455.287	1	17
455.457	1	22
455.628	1	22
455.798	1	7
455.968	1	8
456.139	1	2
456.309	1	25
456.480	1	15
456.650	1	15
456.821	1	16
456.991	1	24
457.161	1	18
457.332	1	6
457.502	1	13
457.673	1	10
457.843	1	17
458.014	1	22
458.184	1	20
458.355	1	27
458.525	1	12
458.695	1	15
458.866	1	35
459.036	1	7
459.207	1	2
459.377	1	24
459.548	1	12
459.718	1	17
459.888	1	26
460.059	1	21
460.229	1	12
460.400	1	9
460.570	1	15
460.740	1	14
460.911	1	14
461.081	1	13
461.252	1	17
461.422	1	22
461.593	1	18
461.763	1	16
461.933	1	17
462.104	1	11
462.274	1	16
462.445	1	9
462.615	1	12
462.785	1	22
462.956	1	18
463.126	1	20
463.297	1	12
463.467	1	20
463.638	1	17
463.808	1	8
463.978	1	9
464.149	1	18
464.319	1	7
464.490	1	3
464.660	1	19
464.830	1	17
465.001	1	22
465.171	1	18
465.342	1	25
465.512	1	23
465.682	1	12
465.853	1	22
466.023	1	9
466.194	1	24
466.364	1	3
466.534	1	28
466.705	1	22
466.875	1	21
467.045	1	14
467.216	1	23
467.386	1	29
467.557	1	17
467.727	1	9
467.897	1	10
468.068	1	26
468.238	1	19
468.409	1	12
468.579	1	20
468.749	1	12
468.920	1	13
469.090	1	20
469.260	1	25
469.431	1	9
469.601	1	18
469.772	1	15
469.942	1	25
470.112	1	15
470.283	1	13
470.453	1	8
470.623	1	2
470.794	1	13
470.964	1	19
471.135	1	20
471.305	1	14
471.475	1	18
471.646	1	18
471.816	1	14
471.986	1	16
472.157	1	16
472.327	1	19
472.497	1	18
472.668	1	4
472.838	1	9
473.009	1	6
473.179	1	16
473.349	1	19
473.520	1	13
473.690	1	12
473.860	1	9
474.031	1	8
474.201	1	5
474.371	1	22
474.542	1	16
474.712	1	19
474.882	1	12
475.053	1	18
475.223	1	4
475.394	1	19
475.564	1	18
475.734	1	23
475.905	1	4
476.075	1	17
476.245	1	15
476.416	1	28
476.586	1	10
476.756	1	9
476.927	1	19
477.097	1	14
477.267	1	18
477.438	1	5
477.608	1	8
477.778	1	22
477.949	1	20
478.119	1	9
478.289	1	14
478.460	1	17
478.630	1	10
478.800	1	15
478.971	1	15
479.141	1	16
479.311	1	3
479.482	1	16
479.652	1	12
479.822	1	10
479.993	1	24
480.163	1	22
480.333	1	18
480.504	1	3
480.674	1	16
480.844	1	15
481.015	1	18
481.185	1	0
481.355	1	23
481.525	1	7
481.696	1	14
481.866	1	22
482.036	1	7
482.207	1	11
482.377	1	9
482.547	1	10
482.718	1	14
482.888	1	17
483.058	1	11
483.229	1	4
483.399	1	6
483.569	1	16
483.740	1	12
483.910	1	29
484.080	1	17
484.250	1	14
484.421	1	7
484.591	1	17
484.761	1	25
484.932	1	10
485.102	1	12
485.272	1	20
485.443	1	10
485.613	1	9
485.783	1	12
485.953	1	4
486.124	1	25
486.294	1	23
486.464	1	18
486.635	1	15
486.805	1	16
486.975	1	5
487.146	1	4
487.316	1	15
487.486	1	19
487.656	1	11
487.827	1	13
487.997	1	20
488.167	1	11
488.338	1	15
488.508	1	16
488.678	1	17
488.848	1	6
489.019	1	5
489.189	1	16
489.359	1	10
489.529	1	18
489.700	1	8
489.870	1	22
490.040	1	12
490.211	1	10
490.381	1	13
490.551	1	3
490.721	1	11
490.892	1	11
491.062	1	22
491.232	1	9
491.402	1	28
491.573	1	14
491.743	1	13
491.913	1	16
492.084	1	11
492.254	1	9
492.424	1	9
492.594	1	12
492.765	1	-1
492.935	1	3
493.105	1	18
493.275	1	13
493.446	1	18
493.616	1	18
493.786	1	15
493.956	1	11
494.127	1	21
494.297	1	12
494.467	1	10
494.637	1	14
494.808	1	19
494.978	1	11
495.148	1	16
495.318	1	2
495.489	1	28
495.659	1	17
495.829	1	6
495.999	1	7
496.170	1	4
496.340	1	5
496.510	1	16
496.680	1	17
496.851	1	6
497.021	1	16
497.191	1	16
497.361	1	18
497.532	1	24
497.702	1	3
497.872	1	8
498.042	1	10
498.213	1	11
498.383	1	12
498.553	1	18
498.723	1	10
498.894	1	12
499.064	1	10
499.234	1	25
499.404	1	9
499.574	1	3
499.745	1	9
499.915	1	9
500.085	1	15
500.255	1	11
500.426	1	7
500.596	1	15
500.766	1	15
500.936	1	-1
501.106	1	15
501.277	1	8
501.447	1	14
501.617	1	13
501.787	1	13
501.958	1	14
502.128	1	12
502.298	1	7
502.468	1	9
502.638	1	5
502.809	1	14
502.979	1	13
503.149	1	13
503.319	1	11
503.489	1	15
503.660	1	9
503.830	1	18
504.000	1	12
504.170	1	14
504.340	1	3
504.511	1	6
504.681	1	10
504.851	1	14
505.021	1	9
505.192	1	17
505.362	1	11
505.532	1	5
505.702	1	13
505.872	1	9
506.043	1	13
506.213	1	9
506.383	1	6
506.553	1	26
506.723	1	-1
506.893	1	6
507.064	1	11
507.234	1	6
507.404	1	7
507.574	1	16
507.744	1	19
507.915	1	14
508.085	1	18
508.255	1	7
508.425	1	12
508.595	1	0
508.766	1	-9
508.936	1	12
509.106	1	13
509.276	1	9
509.446	1	12
509.616	1	7
509.787	1	9
509.957	1	24
510.127	1	6
510.297	1	-3
510.467	1	5
510.638	1	6
510.808	1	5
510.978	1	13
511.148	1	12
511.318	1	13
511.488	1	15
511.659	1	9
511.829	1	6
511.999	1	15
512.169	1	24
512.339	1	14
512.509	1	22
512.680	1	8
512.850	1	6
513.020	1	4
513.190	1	2
513.360	1	11
513.530	1	8
513.700	1	28
513.871	1	15
514.041	1	9
514.211	1	8
514.381	1	5
514.551	1	8
514.721	1	10
514.892	1	6
515.062	1	6
515.232	1	0
515.402	1	3
515.572	1	9
515.742	1	10
515.912	1	13
516.083	1	14
516.253	1	19
516.423	1	8
516.593	1	8
516.763	1	1
516.933	1	-2
517.104	1	12
517.274	1	2
517.444	1	8
517.614	1	0
517.784	1	7
517.954	1	14
518.124	1	12
518.294	1	24
518.465	1	7
518.635	1	13
518.805	1	2
518.975	1	13
519.145	1	0
519.315	1	9
519.485	1	6
519.656	1	12
519.826	1	16
519.996	1	17
520.166	1	2
520.336	1	9
520.506	1	-1
520.676	1	3
520.846	1	13
521.017	1	10
521.187	1	16
521.357	1	2
521.527	1	23
521.697	1	1
521.867	1	9
522.037	1	13
522.207	1	-1
522.377	1	11
522.548	1	8
522.718	1	5
522.888	1	8
523.058	1	9
523.228	1	11
523.398	1	11
523.568	1	4
523.738	1	13
523.909	1	15
524.079	1	1
524.249	1	4
524.419	1	21
524.589	1	11
524.759	1	14
524.929	1	3
525.099	1	-6
525.269	1	14
525.439	1	13
525.610	1	11
525.780	1	25
525.950	1	-1
526.120	1	-5
526.290	1	-1
526.460	1	8
526.630	1	11
526.800	1	7
526.970	1	3
527.140	1	11
527.311	1	11
527.481	1	-2
527.651	1	9
527.821	1	2
527.991	1	8
528.161	1	4
528.331	1	11
528.501	1	8
528.671	1	5
528.841	1	12
529.011	1	14
529.181	1	-1
529.352	1	17
529.522	1	5
529.692	1	-2
529.862	1	4
530.032	1	14
530.202	1	3
530.372	1	9
530.542	1	8
530.712	1	12
530.882	1	5
531.052	1	12
531.222	1	-1
531.392	1	12
531.563	1	-2
531.733	1	4
531.903	1	5
532.073	1	11
532.243	1	11
532.413	1	14
532.583	1	5
532.753	1	22
532.923	1	5
533.093	1	9
533.263	1	15
533.433	1	9
533.603	1	7
533.773	1	3
533.943	1	2
534.113	1	-1
534.284	1	5
534.454	1	14
534.624	1	10
534.794	1	-9
534.964	1	7
535.134	1	7
535.304	1	5
535.474	1	12
535.644	1	17
535.814	1	17
535.984	1	10
536.154	1	13
536.324	1	-3
536.494	1	17
536.664	1	4
536.834	1	4
537.004	1	1
537.174	1	12
537.344	1	4
537.514	1	9
537.685	1	11
537.855	1	13
538.025	1	2
538.195	1	6
538.365	1	8
538.535	1	2
538.705	1	0
538.875	1	15
539.045	1	5
539.215	1	6
539.385	1	-7
539.555	1	2
539.725	1	4
539.895	1	-9
540.065	1	8
540.235	1	6
540.405	1	2
540.575	1	1
540.745	1	6
540.915	1	1
541.085	1	-7
541.255	1	1
541.425	1	1
541.595	1	18
541.765	1	4
541.935	1	4
542.105	1	8
542.275	1	11
542.445	1	15
542.615	1	-1
542.785	1	-6
542.955	1	11
543.125	1	0
543.295	1	1
543.465	1	21
543.635	1	7
543.805	1	5
543.975	1	8
544.145	1	7
544.315	1	9
544.485	1	-2
544.655	1	11
544.825	1	9
544.995	1	4
545.165	1	11
545.335	1	3
545.505	1	10
545.675	1	-3
545.845	1	-1
546.015	1	4
546.185	1	5
546.355	1	0
546.525	1	9
546.695	1	11
546.865	1	-3
547.035	1	9
547.205	1	8
547.375	1	5
547.545	1	5
547.715	1	1
547.885	1	4
548.055	1	8
548.225	1	1
548.395	1	5
548.565	1	9
548.735	1	10
548.905	1	4
549.075	1	-4
549.245	1	9
549.415	1	1
549.585	1	1
549.755	1	20
549.925	1	16
550.095	1	8
550.265	1	2
550.435	1	11
550.605	1	-3
550.775	1	0
550.945	1	8
551.115	1	8
551.285	1	3
551.455	1	10
551.625	1	7
551.795	1	10
551.965	1	8
552.135	1	14
552.305	1	1
552.475	1	14
552.645	1	10
552.815	1	19
552.985	1	14
553.155	1	4
553.325	1	1
553.495	1	-3
553.665	1	6
553.835	1	9
554.004	1	8
554.174	1	9
554.344	1	3
554.514	1	5
554.684	1	7
554.854	1	11
555.024	1	13
555.194	1	3
555.364	1	11
555.534	1	22
555.704	1	6
555.874	1	2
556.044	1	11
556.214	1	-3
556.384	1	4
556.554	1	9
556.724	1	3
556.894	1	10
557.064	1	8
557.234	1	-3
557.404	1	10
557.573	1	-3
557.743	1	4
557.913	1	7
558.083	1	-5
558.253	1	2
558.423	1	11
558.593	1	19
558.763	1	11
558.933	1	18
559.103	1	4
559.273	1	11
559.443	1	9
559.613	1	9
559.783	1	15
559.953	1	6
560.122	1	11
560.292	1	3
560.462	1	9
560.632	1	8
560.802	1	7
560.972	1	6
561.142	1	-5
561.312	1	-1
561.482	1	21
561.652	1	2
561.822	1	7
561.992	1	-2
562.162	1	3
562.331	1	2
562.501	1	4
562.671	1	5
562.841	1	-8
563.011	1	-3
563.181	1	13
563.351	1	13
563.521	1	12
563.691	1	-7
563.861	1	13
564.031	1	9
564.201	1	17
564.370	1	4
564.540	1	14
564.710	1	-7
564.880	1	7
565.050	1	5
565.220	1	4
565.390	1	4
565.560	1	2
565.730	1	-7
565.900	1	6
566.069	1	-4
566.239	1	3
566.409	1	-4
566.579	1	8
566.749	1	2
566.919	1	12
567.089	1	13
567.259	1	3
567.429	1	7
567.599	1	2
567.768	1	14
567.938	1	8
568.108	1	7
568.278	1	1
568.448	1	-2
568.618	1	1
568.788	1	7
568.958	1	12
569.128	1	4
569.297	1	-6
569.467	1	-1
569.637	1	7
569.807	1	1
569.977	1	14
570.147	1	8
570.317	1	-7
570.487	1	2
570.656	1	4
570.826	1	-6
570.996	1	5
571.166	1	21
571.336	1	6
571.506	1	8
571.676	1	9
571.846	1	8
572.015	1	-2
572.185	1	-4
572.355	1	5
572.525	1	-1
572.695	1	5
572.865	1	2
573.035	1	12
573.205	1	5
573.374	1	14
573.544	1	4
573.714	1	5
573.884	1	12
574.054	1	13
574.224	1	1
574.394	1	5
574.563	1	12
574.733	1	5
574.903	1	-1
575.073	1	5
575.243	1	7
575.413	1	9
575.583	1	10
575.752	1	2
575.922	1	5
576.092	1	12
576.262	1	6
576.432	1	1
576.602	1	0
576.772	1	-1
576.941	1	6
577.111	1	-1
577.281	1	8
577.451	1	11
577.621	1	6
577.791	1	5
577.960	1	6
578.130	1	9
578.300	1	-1
578.470	1	10
578.640	1	-2
578.810	1	5
578.979	1	3
579.149	1	-1
579.319	1	6
579.489	1	6
579.659	1	8
579.829	1	-2
579.998	1	8
580.168	1	7
580.338	1	15
580.508	1	15
580.678	1	-1
580.848	1	8
581.017	1	3
581.187	1	7
581.357	1	2
581.527	1	13
581.697	1	4
581.867	1	6
582.036	1	9
582.206	1	6
582.376	1	2
582.546	1	1
582.716	1	5
582.885	1	-9
583.055	1	8
583.225	1	18
583.395	1	4
583.565	1	8
583.735	1	9
583.904	1	8
584.074	1	-6
584.244	1	14
584.414	1	3
584.584	1	5
584.753	1	0
584.923	1	-1
585.093	1	-4
585.263	1	1
585.433	1	-3
585.602	1	16
585.772	1	4
585.942	1	-7
586.112	1	7
586.282	1	8
586.451	1	1
586.621	1	3
586.791	1	1
586.961	1	7
587.131	1	5
587.300	1	4
587.470	1	1
587.640	1	0
587.810	1	-1
587.980	1	4
588.149	1	14
588.319	1	-6
588.489	1	4
588.659	1	11
588.829	1	8
588.998	1	10
589.168	1	8
589.338	1	7
589.508	1	2
589.677	1	5
589.847	1	8
590.017	1	5
590.187	1	10
590.357	1	6
590.526	1	8
590.696	1	9
590.866	1	9
591.036	1	2
591.205	1	6
591.375	1	-3
591.545	1	7
591.715	1	17
591.885	1	14
592.054	1	5
592.224	1	6
592.394	1	6
592.564	1	9
592.733	1	11
592.903	1	-3
593.073	1	9
593.243	1	-2
593.412	1	11
593.582	1	0
593.752	1	6
593.922	1	10
594.091	1	8
594.261	1	13
594.431	1	5
594.601	1	10
594.771	1	3
594.940	1	-4
595.110	1	11
595.280	1	6
595.450	1	-3
595.619	1	7
595.789	1	12
595.959	1	10
596.129	1	1
596.298	1	-8
596.468	1	-1
596.638	1	-8
596.808	1	10
596.977	1	7
597.147	1	9
597.317	1	19
597.487	1	8
597.656	1	10
597.826	1	5
597.996	1	15
598.166	1	4
598.335	1	4
598.505	1	4
598.675	1	18
598.844	1	6
599.014	1	8
599.184	1	8
599.354	1	4
599.523	1	18
599.693	1	6
599.863	1	2
600.033	1	6
600.202	1	4
600.372	1	9
600.542	1	13
600.712	1	8
600.881	1	-2
601.051	1	-6
601.221	1	2
601.390	1	16
601.560	1	13
601.730	1	7
601.900	1	5
602.069	1	-3
602.239	1	4
602.409	1	6
602.578	1	1
602.748	1	0
602.918	1	5
603.088	1	2
603.257	1	-1
603.427	1	14
603.597	1	7
603.767	1	18
603.936	1	11
604.106	1	4
604.276	1	2
604.445	1	10
604.615	1	5
604.785	1	-2
604.954	1	2
605.124	1	11
605.294	1	3
605.464	1	8
605.633	1	-8
605.803	1	7
605.973	1	-3
606.142	1	0
606.312	1	-6
606.482	1	7
606.652	1	9
606.821	1	10
606.991	1	10
607.161	1	-3
607.330	1	-2
607.500	1	21
607.670	1	1
607.839	1	-4
608.009	1	8
608.179	1	8
608.348	1	6
608.518	1	-4
608.688	1	8
608.858	1	3
609.027	1	0
609.197	1	6
609.367	1	13
609.536	1	4
609.706	1	-4
609.876	1	-1
610.045	1	11
610.215	1	8
610.385	1	5
610.554	1	14
610.724	1	1
610.894	1	5
611.063	1	12
611.233	1	0
611.403	1	5
611.572	1	10
611.742	1	3
611.912	1	3
612.081	1	-2
612.251	1	16
612.421	1	-4
612.590	1	-1
612.760	1	-4
612.930	1	5
613.099	1	10
613.269	1	-5
613.439	1	13
613.608	1	1
613.778	1	14
613.948	1	9
614.117	1	5
614.287	1	4
614.457	1	3
614.626	1	-5
614.796	1	9
614.966	1	-5
615.135	1	9
615.305	1	3
615.475	1	-1
615.644	1	-3
615.814	1	2
615.984	1	12
616.153	1	6
616.323	1	12
616.493	1	-2
616.662	1	13
616.832	1	17
617.002	1	4
617.171	1	8
617.341	1	4
617.511	1	10
617.680	1	6
617.850	1	-5
618.019	1	-5
618.189	1	-12
618.359	1	6
618.528	1	9
618.698	1	11
618.868	1	-1
619.037	1	-7
619.207	1	13
619.377	1	-1
619.546	1	13
619.716	1	3
619.885	1	4
620.055	1	9
620.225	1	1
620.394	1	5
620.564	1	-2
620.734	1	15
620.903	1	18
621.073	1	9
621.242	1	-5
621.412	1	16
621.582	1	-6
621.751	1	2
621.921	1	6
622.091	1	13
622.260	1	-6
622.430	1	17
622.599	1	11
622.769	1	18
622.939	1	3
623.108	1	0
623.278	1	6
623.448	1	-1
623.617	1	-7
623.787	1	4
623.956	1	6
624.126	1	10
624.296	1	4
624.465	1	20
624.635	1	16
624.804	1	2
624.974	1	4
625.144	1	4
625.313	1	0
625.483	1	-3
625.652	1	-2
625.822	1	-5
625.992	1	18
626.161	1	11
626.331	1	2
626.501	1	1
626.670	1	14
626.840	1	14
627.009	1	9
627.179	1	-2
627.348	1	7
627.518	1	6
627.688	1	20
627.857	1	20
628.027	1	4
628.196	1	9
628.366	1	8
628.536	1	-5
628.705	1	-1
628.875	1	0
629.044	1	4
629.214	1	3
629.384	1	12
629.553	1	6
629.723	1	5
629.892	1	7
630.062	1	0
630.232	1	8
630.401	1	0
630.571	1	14
630.740	1	2
630.910	1	4
631.079	1	-1
631.249	1	0
631.419	1	9
631.588	1	1
631.758	1	10
631.927	1	-1
632.097	1	0
632.266	1	1
632.436	1	5
632.606	1	-3
632.775	1	-4
632.945	1	-5
633.114	1	2
633.284	1	6
633.453	1	2
633.623	1	7
633.793	1	12
633.962	1	8
634.132	1	11
634.301	1	-2
634.471	1	8
634.640	1	1
634.810	1	-4
634.979	1	5
635.149	1	8
635.319	1	17
635.488	1	2
635.658	1	14
635.827	1	2
635.997	1	12
636.166	1	1
636.336	1	11
636.505	1	1
636.675	1	11
636.845	1	4
637.014	1	11
637.184	1	-4
637.353	1	2
637.523	1	7
637.692	1	17
637.862	1	6
638.031	1	10
638.201	1	5
638.370	1	7
638.540	1	-3
638.710	1	11
638.879	1	0
639.049	1	-3
639.218	1	6
639.388	1	-5
639.557	1	4
639.727	1	-1
639.896	1	7
640.066	1	5
640.235	1	6
640.405	1	0
640.574	1	8
640.744	1	8
640.914	1	1
641.083	1	9
641.253	1	6
641.422	1	7
641.592	1	19
641.761	1	6
641.931	1	8
642.100	1	-2
642.270	1	3
642.439	1	5
642.609	1	-2
642.778	1	1
642.948	1	0
643.117	1	14
643.287	1	3
643.456	1	3
643.626	1	19
643.795	1	11
643.965	1	7
644.134	1	-5
644.304	1	9
644.473	1	9
644.643	1	8
644.812	1	-3
644.982	1	0
645.151	1	9
645.321	1	-6
645.490	1	9
645.660	1	7
645.829	1	9
645.999	1	0
646.168	1	9
646.338	1	16
646.507	1	4
646.677	1	-11
646.846	1	1
647.016	1	6
647.185	1	7
647.355	1	2
647.524	1	5
647.694	1	3
647.863	1	-1
648.033	1	-4
648.202	1	10
648.372	1	3
648.541	1	2
648.711	1	4
648.880	1	13
649.050	1	1
649.219	1	11
649.389	1	8
649.558	1	7
649.728	1	-2
649.897	1	2
650.067	1	-1
650.236	1	22
650.406	1	12
650.575	1	-10
650.745	1	10
650.914	1	2
651.084	1	3
651.253	1	13
651.423	1	10
651.592	1	6
651.762	1	3
651.931	1	3
652.101	1	7
652.270	1	0
652.440	1	1
652.609	1	8
652.778	1	15
652.948	1	2
653.117	1	5
653.287	1	5
653.456	1	-4
653.626	1	6
653.795	1	3
653.965	1	5
654.134	1	4
654.304	1	12
654.473	1	5
654.643	1	4
654.812	1	13
654.982	1	5
655.151	1	8
655.320	1	6
655.490	1	1
655.659	1	1
655.829	1	10
655.998	1	8
656.168	1	6
656.337	1	3
656.507	1	5
656.676	1	-7
656.846	1	-3
657.015	1	6
657.184	1	11
657.354	1	10
657.523	1	-1
657.693	1	5
657.862	1	13
658.032	1	9
658.201	1	3
658.371	1	8
658.540	1	1
658.709	1	4
658.879	1	13
659.048	1	12
659.218	1	10
659.387	1	0
659.557	1	6
659.726	1	15
659.895	1	6
660.065	1	2
660.234	1	7
660.404	1	3
660.573	1	-6
660.743	1	2
660.912	1	12
661.081	1	14
661.251	1	9
661.420	1	13
661.590	1	3
661.759	1	5
661.929	1	5
662.098	1	13
662.267	1	6
662.437	1	3
662.606	1	6
662.776	1	7
662.945	1	4
663.115	1	-2
663.284	1	4
663.453	1	-3
663.623	1	-2
663.792	1	5
663.962	1	-4
664.131	1	8
664.300	1	7
664.470	1	12
664.639	1	2
664.809	1	7
664.978	1	5
665.148	1	12
665.317	1	-4
665.486	1	4
665.656	1	5
665.825	1	5
665.995	1	-3
666.164	1	4
666.333	1	10
666.503	1	13
666.672	1	8
666.842	1	-3
667.011	1	-4
667.180	1	-2
667.350	1	5
667.519	1	0
667.689	1	2
667.858	1	0
668.027	1	3
668.197	1	16
668.366	1	11
668.536	1	7
668.705	1	6
668.874	1	-4
669.044	1	11
669.213	1	7
669.382	1	6
669.552	1	7
669.721	1	14
669.891	1	0
670.060	1	11
670.229	1	-6
670.399	1	14
670.568	1	6
670.738	1	10
670.907	1	4
671.076	1	21
671.246	1	0
671.415	1	-2
671.584	1	7
671.754	1	6
671.923	1	9
672.093	1	2
672.262	1	12
672.431	1	9
672.601	1	5
672.770	1	0
672.939	1	10
673.109	1	10
673.278	1	-1
673.448	1	4
673.617	1	2
673.786	1	10
