325.333	1	19
325.504	1	-3
325.675	1	3
325.846	1	-10
326.017	1	5
326.188	1	10
326.359	1	-6
326.531	1	11
326.702	1	4
326.873	1	20
327.044	1	-6
327.215	1	8
327.386	1	5
327.557	1	5
327.728	1	2
327.899	1	7
328.070	1	5
328.241	1	13
328.412	1	2
328.583	1	-12
328.754	1	8
328.926	1	4
329.097	1	3
329.268	1	-11
329.439	1	10
329.610	1	3
329.781	1	6
329.952	1	2
330.123	1	-4
330.294	1	0
330.465	1	1
330.636	1	4
330.807	1	-3
330.978	1	2
331.149	1	7
331.320	1	8
331.492	1	16
331.663	1	-4
331.834	1	10
332.005	1	5
332.176	1	12
332.347	1	-10
332.518	1	22
332.689	1	5
332.860	1	-7
333.031	1	2
333.202	1	6
333.373	1	5
333.544	1	9
333.715	1	1
333.886	1	10
334.057	1	9
334.228	1	5
334.399	1	-6
334.570	1	9
334.741	1	-5
334.912	1	16
335.084	1	3
335.255	1	19
335.426	1	5
335.597	1	4
335.768	1	10
335.939	1	-3
336.110	1	8
336.281	1	2
336.452	1	11
336.623	1	11
336.794	1	4
336.965	1	10
337.136	1	-4
337.307	1	10
337.478	1	-6
337.649	1	-2
337.820	1	16
337.991	1	4
338.162	1	6
338.333	1	9
338.504	1	13
338.675	1	7
338.846	1	9
339.017	1	-5
339.188	1	9
339.359	1	14
339.530	1	2
339.701	1	9
339.872	1	7
340.043	1	-1
340.214	1	3
340.385	1	1
340.556	1	7
340.727	1	13
340.898	1	4
341.069	1	3
341.240	1	-8
341.411	1	9
341.582	1	13
341.753	1	10
341.924	1	10
342.095	1	13
342.266	1	-7
342.437	1	19
342.608	1	-3
342.779	1	0
342.950	1	1
343.121	1	5
343.292	1	5
343.463	1	3
343.634	1	12
343.805	1	11
343.976	1	0
344.147	1	-1
344.318	1	23
344.489	1	8
344.660	1	13
344.831	1	8
345.002	1	9
345.173	1	16
345.344	1	11
345.515	1	3
345.686	1	-1
345.857	1	12
346.028	1	1
346.199	1	-2
346.370	1	6
346.541	1	8
346.712	1	12
346.883	1	5
347.054	1	6
347.225	1	0
347.396	1	4
347.567	1	3
347.738	1	1
347.909	1	4
348.080	1	4
348.251	1	4
348.422	1	1
348.593	1	11
348.764	1	4
348.935	1	-7
349.106	1	-7
349.277	1	5
349.448	1	2
349.619	1	8
349.790	1	1
349.961	1	10
350.132	1	4
350.303	1	2
350.474	1	7
350.645	1	10
350.816	1	2
350.987	1	7
351.157	1	-6
351.328	1	5
351.499	1	8
351.670	1	10
351.841	1	9
352.012	1	0
352.183	1	1
352.354	1	17
352.525	1	6
352.696	1	7
352.867	1	-11
353.038	1	5
353.209	1	7
353.380	1	13
353.551	1	6
353.722	1	8
353.893	1	7
354.064	1	6
354.235	1	3
354.406	1	5
354.576	1	-9
354.747	1	11
354.918	1	12
355.089	1	14
355.260	1	5
355.431	1	5
355.602	1	0
355.773	1	-5
355.944	1	6
356.115	1	11
356.286	1	3
356.457	1	7
356.628	1	9
356.799	1	11
356.970	1	15
357.141	1	-4
357.311	1	7
357.482	1	9
357.653	1	3
357.824	1	9
357.995	1	13
358.166	1	24
358.337	1	9
358.508	1	-4
358.679	1	10
358.850	1	15
359.021	1	7
359.192	1	8
359.363	1	0
359.533	1	5
359.704	1	-3
359.875	1	-2
360.046	1	-4
360.217	1	20
360.388	1	-1
360.559	1	16
360.730	1	14
360.901	1	8
361.072	1	14
361.243	1	2
361.414	1	1
361.584	1	-6
361.755	1	1
361.926	1	-3
362.097	1	8
362.268	1	10
362.439	1	2
362.610	1	6
362.781	1	5
362.952	1	10
363.123	1	3
363.293	1	15
363.464	1	13
363.635	1	14
363.806	1	2
363.977	1	12
364.148	1	0
364.319	1	15
364.490	1	12
364.661	1	13
364.832	1	7
365.002	1	3
365.173	1	9
365.344	1	3
365.515	1	4
365.686	1	12
365.857	1	10
366.028	1	1
366.199	1	9
366.370	1	13
366.540	1	5
366.711	1	2
366.882	1	14
367.053	1	0
367.224	1	10
367.395	1	7
367.566	1	2
367.737	1	1
367.908	1	11
368.078	1	9
368.249	1	3
368.420	1	5
368.591	1	8
368.762	1	5
368.933	1	4
369.104	1	10
369.274	1	10
369.445	1	15
369.616	1	2
369.787	1	7
369.958	1	-2
370.129	1	13
370.300	1	11
370.471	1	12
370.641	1	7
370.812	1	16
370.983	1	2
371.154	1	16
371.325	1	4
371.496	1	-1
371.667	1	0
371.837	1	7
372.008	1	16
372.179	1	0
372.350	1	-1
372.521	1	13
372.692	1	11
372.863	1	11
373.033	1	0
373.204	1	3
373.375	1	-1
373.546	1	-7
373.717	1	-2
373.888	1	4
374.059	1	10
374.229	1	3
374.400	1	8
374.571	1	4
374.742	1	14
374.913	1	4
375.084	1	8
375.254	1	8
375.425	1	0
375.596	1	1
375.767	1	8
375.938	1	8
376.109	1	14
376.279	1	3
376.450	1	18
376.621	1	3
376.792	1	18
376.963	1	-6
377.134	1	4
377.304	1	13
377.475	1	-1
377.646	1	6
377.817	1	4
377.988	1	12
378.159	1	1
378.329	1	7
378.500	1	4
378.671	1	9
378.842	1	8
379.013	1	8
379.184	1	3
379.354	1	8
379.525	1	2
379.696	1	6
379.867	1	3
380.038	1	13
380.209	1	16
380.379	1	16
380.550	1	4
380.721	1	8
380.892	1	8
381.063	1	3
381.233	1	7
381.404	1	12
381.575	1	20
381.746	1	8
381.917	1	9
382.087	1	11
382.258	1	5
382.429	1	0
382.600	1	6
382.771	1	1
382.941	1	-1
383.112	1	7
383.283	1	13
383.454	1	-4
383.625	1	5
383.795	1	20
383.966	1	3
384.137	1	3
384.308	1	13
384.479	1	6
384.649	1	6
384.820	1	13
384.991	1	13
385.162	1	8
385.333	1	2
385.503	1	4
385.674	1	14
385.845	1	17
386.016	1	6
386.187	1	-1
386.357	1	14
386.528	1	12
386.699	1	19
386.870	1	4
387.041	1	8
387.211	1	9
387.382	1	10
387.553	1	13
387.724	1	4
387.894	1	12
388.065	1	15
388.236	1	8
388.407	1	11
388.578	1	6
388.748	1	3
388.919	1	9
389.090	1	7
389.261	1	8
389.431	1	14
389.602	1	4
389.773	1	6
389.944	1	7
390.114	1	21
390.285	1	12
390.456	1	5
390.627	1	12
390.798	1	11
390.968	1	3
391.139	1	13
391.310	1	18
391.481	1	4
391.651	1	9
391.822	1	15
391.993	1	21
392.164	1	2
392.334	1	10
392.505	1	8
392.676	1	6
392.847	1	8
393.017	1	18
393.188	1	13
393.359	1	2
393.530	1	12
393.700	1	11
393.871	1	14
394.042	1	5
394.213	1	12
394.383	1	15
394.554	1	11
394.725	1	8
394.896	1	6
395.066	1	16
395.237	1	8
395.408	1	9
395.579	1	6
395.749	1	6
395.920	1	5
396.091	1	5
396.262	1	12
396.432	1	14
396.603	1	9
396.774	1	-1
396.945	1	15
397.115	1	11
397.286	1	7
397.457	1	12
397.627	1	14
397.798	1	15
397.969	1	10
398.140	1	5
398.310	1	13
398.481	1	9
398.652	1	22
398.823	1	1
398.993	1	-1
399.164	1	10
399.335	1	23
399.505	1	22
399.676	1	14
399.847	1	7
400.018	1	6
400.188	1	13
400.359	1	9
400.530	1	10
400.700	1	13
400.871	1	14
401.042	1	8
401.213	1	13
401.383	1	2
401.554	1	11
401.725	1	7
401.895	1	17
402.066	1	1
402.237	1	15
402.408	1	6
402.578	1	5
402.749	1	2
402.920	1	12
403.090	1	14
403.261	1	22
403.432	1	9
403.603	1	1
403.773	1	13
403.944	1	4
404.115	1	14
404.285	1	4
404.456	1	6
404.627	1	14
404.797	1	13
404.968	1	24
405.139	1	2
405.310	1	14
405.480	1	15
405.651	1	3
405.822	1	13
405.992	1	20
406.163	1	9
406.334	1	16
406.504	1	14
406.675	1	6
406.846	1	14
407.016	1	17
407.187	1	7
407.358	1	14
407.528	1	-5
407.699	1	9
407.870	1	11
408.041	1	27
408.211	1	16
408.382	1	20
408.553	1	7
408.723	1	10
408.894	1	8
409.065	1	16
409.235	1	2
409.406	1	9
409.577	1	20
409.747	1	16
409.918	1	20
410.089	1	6
410.259	1	11
410.430	1	17
410.601	1	12
410.771	1	11
410.942	1	20
411.113	1	20
411.283	1	11
411.454	1	12
411.625	1	8
411.795	1	12
411.966	1	11
412.137	1	20
412.307	1	6
412.478	1	1
412.649	1	10
412.819	1	20
412.990	1	6
413.161	1	23
413.331	1	12
413.502	1	19
413.672	1	3
413.843	1	1
414.014	1	26
414.184	1	-7
414.355	1	9
414.526	1	1
414.696	1	18
414.867	1	4
415.038	1	19
415.208	1	4
415.379	1	23
415.550	1	11
415.720	1	21
415.891	1	7
416.062	1	15
416.232	1	0
416.403	1	19
416.573	1	12
416.744	1	4
416.915	1	3
417.085	1	14
417.256	1	5
417.427	1	11
417.597	1	2
417.768	1	9
417.939	1	5
418.109	1	10
418.280	1	18
418.450	1	14
418.621	1	2
418.792	1	11
418.962	1	11
419.133	1	7
419.304	1	11
419.474	1	15
419.645	1	9
419.815	1	5
419.986	1	22
420.157	1	24
420.327	1	13
420.498	1	8
420.669	1	8
420.839	1	5
421.010	1	7
421.180	1	11
421.351	1	17
421.522	1	23
421.692	1	15
421.863	1	9
422.033	1	9
422.204	1	6
422.375	1	6
422.545	1	5
422.716	1	16
422.886	1	20
423.057	1	23
423.228	1	15
423.398	1	9
423.569	1	15
423.740	1	10
423.910	1	14
424.081	1	13
424.251	1	19
424.422	1	12
424.593	1	13
424.763	1	10
424.934	1	8
425.104	1	10
425.275	1	18
425.445	1	15
425.616	1	7
425.787	1	14
425.957	1	7
426.128	1	10
426.298	1	4
426.469	1	12
426.640	1	3
426.810	1	16
426.981	1	7
427.151	1	9
427.322	1	12
427.493	1	8
427.663	1	8
427.834	1	7
428.004	1	14
428.175	1	0
428.345	1	7
428.516	1	10
428.687	1	15
428.857	1	16
429.028	1	7
429.198	1	5
429.369	1	8
429.540	1	9
429.710	1	23
429.881	1	18
430.051	1	14
430.222	1	17
430.392	1	9
430.563	1	22
430.734	1	20
430.904	1	11
431.075	1	11
431.245	1	7
431.416	1	10
431.586	1	12
431.757	1	20
431.927	1	20
432.098	1	4
432.269	1	17
432.439	1	4
432.610	1	12
432.780	1	5
432.951	1	25
433.121	1	8
433.292	1	16
433.462	1	7
433.633	1	12
433.804	1	8
433.974	1	16
434.145	1	15
434.315	1	17
434.486	1	17
434.656	1	8
434.827	1	4
434.997	1	8
435.168	1	22
435.339	1	8
435.509	1	11
435.680	1	6
435.850	1	8
436.021	1	14
436.191	1	8
436.362	1	16
436.532	1	20
436.703	1	12
436.873	1	14
437.044	1	10
437.214	1	10
437.385	1	18
437.556	1	-2
437.726	1	28
437.897	1	13
438.067	1	10
438.238	1	14
438.408	1	10
438.579	1	12
438.749	1	5
438.920	1	2
439.090	1	1
439.261	1	16
439.431	1	20
439.602	1	16
439.772	1	20
439.943	1	14
440.113	1	17
440.284	1	22
440.455	1	11
440.625	1	15
440.796	1	15
440.966	1	18
441.137	1	-1
441.307	1	15
441.478	1	9
441.648	1	9
441.819	1	6
441.989	1	15
442.160	1	16
442.330	1	2
442.501	1	6
442.671	1	3
442.842	1	11
443.012	1	8
443.183	1	10
443.353	1	16
443.524	1	16
443.694	1	19
443.865	1	12
444.035	1	9
444.206	1	9
444.376	1	12
444.547	1	12
444.717	1	12
444.888	1	15
445.058	1	8
445.229	1	7
445.399	1	7
445.570	1	12
445.740	1	12
445.911	1	9
446.081	1	7
446.252	1	10
446.422	1	-3
446.593	1	16
446.763	1	17
446.934	1	12
447.104	1	11
447.275	1	23
447.445	1	12
447.616	1	10
447.786	1	8
447.957	1	12
448.127	1	-1
448.298	1	13
448.468	1	24
448.639	1	13
448.809	1	-2
448.979	1	9
449.150	1	13
449.320	1	7
449.491	1	4
449.661	1	6
449.832	1	18
450.002	1	12
450.173	1	6
450.343	1	8
450.514	1	5
450.684	1	7
450.855	1	0
451.025	1	13
451.196	1	4
451.366	1	15
451.537	1	9
451.707	1	13
451.878	1	5
452.048	1	9
452.218	1	9
452.389	1	14
452.559	1	10
452.730	1	15
452.900	1	18
453.071	1	8
453.241	1	15
453.412	1	9
453.582	1	5
453.753	1	16
453.923	1	28
454.093	1	12
454.264	1	8
454.434	1	8
454.605	1	3
454.775	1	-5
454.946	1	6
455.116	1	9
455.287	1	7
455.457	1	19
455.628	1	3
455.798	1	-1
455.968	1	6
456.139	1	5
456.309	1	12
456.480	1	5
456.650	1	7
456.821	1	5
456.991	1	30
457.161	1	0
457.332	1	2
457.502	1	8
457.673	1	11
457.843	1	4
458.014	1	10
458.184	1	23
458.355	1	17
458.525	1	9
458.695	1	7
458.866	1	14
459.036	1	8
459.207	1	-7
459.377	1	17
459.548	1	1
459.718	1	7
459.888	1	18
460.059	1	11
460.229	1	7
460.400	1	4
460.570	1	9
460.740	1	3
460.911	1	9
461.081	1	7
461.252	1	11
461.422	1	15
461.593	1	8
461.763	1	3
461.933	1	4
462.104	1	4
462.274	1	5
462.445	1	4
462.615	1	14
462.785	1	7
462.956	1	6
463.126	1	15
463.297	1	-3
463.467	1	5
463.638	1	7
463.808	1	-1
463.978	1	7
464.149	1	4
464.319	1	-1
464.490	1	11
464.660	1	14
464.830	1	17
465.001	1	16
465.171	1	16
465.342	1	14
465.512	1	18
465.682	1	12
465.853	1	18
466.023	1	-1
466.194	1	6
466.364	1	-2
466.534	1	13
466.705	1	5
466.875	1	8
467.045	1	0
467.216	1	11
467.386	1	16
467.557	1	14
467.727	1	4
467.897	1	5
468.068	1	16
468.238	1	1
468.409	1	5
468.579	1	7
468.749	1	18
468.920	1	16
469.090	1	8
469.260	1	9
469.431	1	-4
469.601	1	5
469.772	1	7
469.942	1	16
470.112	1	9
470.283	1	12
470.453	1	19
470.623	1	5
470.794	1	7
470.964	1	3
471.135	1	24
471.305	1	2
471.475	1	15
471.646	1	12
471.816	1	9
471.986	1	10
472.157	1	17
472.327	1	20
472.497	1	8
472.668	1	4
472.838	1	-1
473.009	1	1
473.179	1	-2
473.349	1	6
473.520	1	3
473.690	1	12
473.860	1	2
474.031	1	-1
474.201	1	9
474.371	1	10
474.542	1	13
474.712	1	4
474.882	1	-1
475.053	1	5
475.223	1	11
475.394	1	9
475.564	1	5
475.734	1	13
475.905	1	5
476.075	1	10
476.245	1	2
476.416	1	5
476.586	1	1
476.756	1	-2
476.927	1	5
477.097	1	6
477.267	1	10
477.438	1	2
477.608	1	3
477.778	1	6
477.949	1	9
478.119	1	-3
478.289	1	16
478.460	1	4
478.630	1	4
478.800	1	9
478.971	1	12
479.141	1	12
479.311	1	-4
479.482	1	12
479.652	1	-1
479.822	1	-1
479.993	1	0
480.163	1	9
480.333	1	5
480.504	1	1
480.674	1	13
480.844	1	9
481.015	1	0
481.185	1	9
481.355	1	17
481.525	1	4
481.696	1	0
481.866	1	10
482.036	1	8
482.207	1	3
482.377	1	2
482.547	1	5
482.718	1	5
482.888	1	10
483.058	1	2
483.229	1	2
483.399	1	-10
483.569	1	6
483.740	1	8
483.910	1	16
484.080	1	9
484.250	1	14
484.421	1	7
484.591	1	-6
484.761	1	6
484.932	1	3
485.102	1	7
485.272	1	7
485.443	1	4
485.613	1	0
485.783	1	4
485.953	1	7
486.124	1	7
486.294	1	15
486.464	1	7
486.635	1	9
486.805	1	12
486.975	1	-4
487.146	1	-2
487.316	1	11
487.486	1	11
487.656	1	2
487.827	1	3
487.997	1	6
488.167	1	9
488.338	1	15
488.508	1	9
488.678	1	12
488.848	1	6
489.019	1	10
489.189	1	4
489.359	1	12
489.529	1	4
489.700	1	-3
489.870	1	12
490.040	1	2
490.211	1	5
490.381	1	10
490.551	1	7
490.721	1	5
490.892	1	7
491.062	1	8
491.232	1	-7
491.402	1	14
491.573	1	4
491.743	1	9
491.913	1	8
492.084	1	6
492.254	1	3
492.424	1	1
492.594	1	6
492.765	1	1
492.935	1	-4
493.105	1	13
493.275	1	6
493.446	1	4
493.616	1	10
493.786	1	8
493.956	1	6
494.127	1	12
494.297	1	14
494.467	1	-7
494.637	1	9
494.808	1	3
494.978	1	9
495.148	1	12
495.318	1	8
495.489	1	9
495.659	1	6
495.829	1	15
495.999	1	1
496.170	1	7
496.340	1	-2
496.510	1	13
496.680	1	11
496.851	1	12
497.021	1	8
497.191	1	8
497.361	1	1
497.532	1	8
497.702	1	-3
497.872	1	6
498.042	1	5
498.213	1	6
498.383	1	-1
498.553	1	11
498.723	1	2
498.894	1	12
499.064	1	7
499.234	1	11
499.404	1	0
499.574	1	8
499.745	1	6
499.915	1	4
500.085	1	3
500.255	1	4
500.426	1	3
500.596	1	9
500.766	1	12
500.936	1	7
501.106	1	2
501.277	1	-4
501.447	1	14
501.617	1	6
501.787	1	8
501.958	1	15
502.128	1	5
502.298	1	5
502.468	1	5
502.638	1	2
502.809	1	5
502.979	1	0
503.149	1	3
503.319	1	6
503.489	1	2
503.660	1	6
503.830	1	11
504.000	1	16
504.170	1	11
504.340	1	-2
504.511	1	6
504.681	1	8
504.851	1	-1
505.021	1	-2
505.192	1	8
505.362	1	2
505.532	1	-2
505.702	1	0
505.872	1	1
506.043	1	9
506.213	1	2
506.383	1	1
506.553	1	20
506.723	1	-13
506.893	1	-1
507.064	1	16
507.234	1	2
507.404	1	0
507.574	1	5
507.744	1	17
507.915	1	9
508.085	1	9
508.255	1	9
508.425	1	9
508.595	1	2
508.766	1	-4
508.936	1	-4
509.106	1	6
509.276	1	11
509.446	1	10
509.616	1	6
509.787	1	9
509.957	1	6
510.127	1	2
510.297	1	-4
510.467	1	4
510.638	1	12
510.808	1	-1
510.978	1	17
511.148	1	9
511.318	1	-1
511.488	1	11
511.659	1	6
511.829	1	-2
511.999	1	5
512.169	1	6
512.339	1	8
512.509	1	12
512.680	1	1
512.850	1	10
513.020	1	-1
513.190	1	4
513.360	1	3
513.530	1	20
513.700	1	10
513.871	1	-1
514.041	1	4
514.211	1	1
514.381	1	1
514.551	1	0
514.721	1	0
514.892	1	1
515.062	1	-4
515.232	1	-4
515.402	1	-5
515.572	1	17
515.742	1	4
515.912	1	9
516.083	1	9
516.253	1	-3
516.423	1	-2
516.593	1	0
516.763	1	0
516.933	1	-12
517.104	1	4
517.274	1	5
517.444	1	4
517.614	1	2
517.784	1	-3
517.954	1	10
518.124	1	-7
518.294	1	14
518.465	1	2
518.635	1	6
518.805	1	6
518.975	1	-3
519.145	1	-3
519.315	1	10
519.485	1	11
519.656	1	6
519.826	1	11
519.996	1	13
520.166	1	1
520.336	1	2
520.506	1	-2
520.676	1	1
520.846	1	5
521.017	1	2
521.187	1	6
521.357	1	4
521.527	1	12
521.697	1	3
521.867	1	8
522.037	1	-5
522.207	1	0
522.377	1	12
522.548	1	2
522.718	1	1
522.888	1	-2
523.058	1	7
523.228	1	7
523.398	1	0
523.568	1	0
523.738	1	3
523.909	1	-1
524.079	1	-5
524.249	1	3
524.419	1	2
524.589	1	-1
524.759	1	7
524.929	1	-2
525.099	1	-3
525.269	1	9
525.439	1	4
525.610	1	2
525.780	1	5
525.950	1	-2
526.120	1	4
526.290	1	6
526.460	1	5
526.630	1	4
526.800	1	8
526.970	1	2
527.140	1	5
527.311	1	4
527.481	1	-1
527.651	1	6
527.821	1	10
527.991	1	-3
528.161	1	7
528.331	1	11
528.501	1	12
528.671	1	-3
528.841	1	3
529.011	1	3
529.181	1	-8
529.352	1	21
529.522	1	0
529.692	1	11
529.862	1	2
530.032	1	2
530.202	1	2
530.372	1	7
530.542	1	-4
530.712	1	9
530.882	1	7
531.052	1	14
531.222	1	0
531.392	1	2
531.563	1	-3
531.733	1	-4
531.903	1	5
532.073	1	8
532.243	1	9
532.413	1	4
532.583	1	1
532.753	1	10
532.923	1	4
533.093	1	6
533.263	1	10
533.433	1	12
533.603	1	3
533.773	1	2
533.943	1	5
534.113	1	3
534.284	1	-7
534.454	1	-1
534.624	1	-1
534.794	1	0
534.964	1	3
535.134	1	3
535.304	1	6
535.474	1	12
535.644	1	12
535.814	1	-5
535.984	1	6
536.154	1	10
536.324	1	-7
536.494	1	8
536.664	1	-6
536.834	1	11
537.004	1	-1
537.174	1	12
537.344	1	4
537.514	1	0
537.685	1	7
537.855	1	8
538.025	1	11
538.195	1	-4
538.365	1	6
538.535	1	-1
538.705	1	-2
538.875	1	3
539.045	1	9
539.215	1	0
539.385	1	-6
539.555	1	5
539.725	1	9
539.895	1	0
540.065	1	0
540.235	1	6
540.405	1	6
540.575	1	1
540.745	1	-5
540.915	1	2
541.085	1	2
541.255	1	-6
541.425	1	1
541.595	1	14
541.765	1	6
541.935	1	8
542.105	1	8
542.275	1	5
542.445	1	5
542.615	1	-8
542.785	1	-11
542.955	1	3
543.125	1	6
543.295	1	-3
543.465	1	2
543.635	1	8
543.805	1	0
543.975	1	-5
544.145	1	-9
544.315	1	8
544.485	1	-1
544.655	1	10
544.825	1	8
544.995	1	-13
545.165	1	10
545.335	1	1
545.505	1	6
545.675	1	5
545.845	1	-1
546.015	1	-10
546.185	1	2
546.355	1	0
546.525	1	2
546.695	1	0
546.865	1	-9
547.035	1	17
547.205	1	9
547.375	1	-7
547.545	1	9
547.715	1	4
547.885	1	6
548.055	1	1
548.225	1	-3
548.395	1	7
548.565	1	-2
548.735	1	9
548.905	1	-5
549.075	1	-3
549.245	1	6
549.415	1	-4
549.585	1	-2
549.755	1	3
549.925	1	15
550.095	1	2
550.265	1	-6
550.435	1	7
550.605	1	6
550.775	1	10
550.945	1	1
551.115	1	6
551.285	1	-3
551.455	1	3
551.625	1	6
551.795	1	1
551.965	1	1
552.135	1	16
552.305	1	1
552.475	1	3
552.645	1	-6
552.815	1	9
552.985	1	5
553.155	1	-4
553.325	1	0
553.495	1	8
553.665	1	2
553.835	1	7
554.004	1	18
554.174	1	0
554.344	1	-4
554.514	1	-3
554.684	1	9
554.854	1	1
555.024	1	9
555.194	1	2
555.364	1	9
555.534	1	22
555.704	1	5
555.874	1	1
556.044	1	19
556.214	1	-9
556.384	1	-1
556.554	1	14
556.724	1	5
556.894	1	11
557.064	1	0
557.234	1	11
557.404	1	7
557.573	1	-8
557.743	1	-5
557.913	1	-4
558.083	1	7
558.253	1	2
558.423	1	4
558.593	1	8
558.763	1	7
558.933	1	5
559.103	1	4
559.273	1	6
559.443	1	4
559.613	1	7
559.783	1	10
559.953	1	4
560.122	1	5
560.292	1	-4
560.462	1	8
560.632	1	3
560.802	1	10
560.972	1	-1
561.142	1	-11
561.312	1	7
561.482	1	7
561.652	1	-5
561.822	1	8
561.992	1	-5
562.162	1	-1
562.331	1	3
562.501	1	3
562.671	1	0
562.841	1	-6
563.011	1	-11
563.181	1	10
563.351	1	-6
563.521	1	9
563.691	1	4
563.861	1	2
564.031	1	9
564.201	1	12
564.370	1	1
564.540	1	14
564.710	1	-7
564.880	1	7
565.050	1	1
565.220	1	4
565.390	1	-5
565.560	1	3
565.730	1	-9
565.900	1	2
566.069	1	4
566.239	1	6
566.409	1	-3
566.579	1	8
566.749	1	1
566.919	1	4
567.089	1	10
567.259	1	-4
567.429	1	-4
567.599	1	5
567.768	1	16
567.938	1	-5
568.108	1	-5
568.278	1	2
568.448	1	1
568.618	1	4
568.788	1	7
568.958	1	5
569.128	1	4
569.297	1	-4
569.467	1	8
569.637	1	5
569.807	1	3
569.977	1	4
570.147	1	10
570.317	1	-11
570.487	1	-4
570.656	1	-11
570.826	1	-1
570.996	1	11
571.166	1	5
571.336	1	8
571.506	1	8
571.676	1	4
571.846	1	8
572.015	1	-1
572.185	1	4
572.355	1	5
572.525	1	4
572.695	1	1
572.865	1	1
573.035	1	12
573.205	1	1
573.374	1	12
573.544	1	5
573.714	1	3
573.884	1	1
574.054	1	7
574.224	1	-6
574.394	1	4
574.563	1	6
574.733	1	3
574.903	1	-5
575.073	1	-3
575.243	1	1
575.413	1	14
575.583	1	10
575.752	1	3
575.922	1	6
576.092	1	-1
576.262	1	3
576.432	1	-8
576.602	1	2
576.772	1	8
576.941	1	8
577.111	1	-2
577.281	1	2
577.451	1	3
577.621	1	-3
577.791	1	10
577.960	1	3
578.130	1	3
578.300	1	-11
578.470	1	13
578.640	1	-10
578.810	1	-3
578.979	1	6
579.149	1	-4
579.319	1	13
579.489	1	0
579.659	1	8
579.829	1	4
579.998	1	12
580.168	1	1
580.338	1	5
580.508	1	-1
580.678	1	6
580.848	1	7
581.017	1	-2
581.187	1	7
581.357	1	6
581.527	1	8
581.697	1	7
581.867	1	7
582.036	1	6
582.206	1	7
582.376	1	-3
582.546	1	1
582.716	1	-1
582.885	1	-1
583.055	1	5
583.225	1	6
583.395	1	3
583.565	1	9
583.735	1	16
583.904	1	8
584.074	1	5
584.244	1	10
584.414	1	-6
584.584	1	-5
584.753	1	7
584.923	1	-3
585.093	1	4
585.263	1	4
585.433	1	-2
585.602	1	5
585.772	1	0
585.942	1	7
586.112	1	8
586.282	1	9
586.451	1	-3
586.621	1	12
586.791	1	-2
586.961	1	4
587.131	1	2
587.300	1	4
587.470	1	-2
587.640	1	-12
587.810	1	2
587.980	1	3
588.149	1	11
588.319	1	-5
588.489	1	6
588.659	1	0
588.829	1	-3
588.998	1	11
589.168	1	1
589.338	1	10
589.508	1	-1
589.677	1	16
589.847	1	3
590.017	1	2
590.187	1	-1
590.357	1	5
590.526	1	13
590.696	1	3
590.866	1	10
591.036	1	-1
591.205	1	3
591.375	1	1
591.545	1	7
591.715	1	1
591.885	1	5
592.054	1	8
592.224	1	2
592.394	1	4
592.564	1	3
592.733	1	9
592.903	1	-2
593.073	1	9
593.243	1	-11
593.412	1	6
593.582	1	-4
593.752	1	11
593.922	1	5
594.091	1	6
594.261	1	5
594.431	1	-9
594.601	1	5
594.771	1	-2
594.940	1	-5
595.110	1	11
595.280	1	0
595.450	1	1
595.619	1	4
595.789	1	-6
595.959	1	2
596.129	1	2
596.298	1	-2
596.468	1	2
596.638	1	-8
596.808	1	2
596.977	1	6
597.147	1	3
597.317	1	-1
597.487	1	8
597.656	1	7
597.826	1	-2
597.996	1	5
598.166	1	2
598.335	1	4
598.505	1	12
598.675	1	10
598.844	1	7
599.014	1	3
599.184	1	4
599.354	1	5
599.523	1	11
599.693	1	-1
599.863	1	-1
600.033	1	-4
600.202	1	2
600.372	1	11
600.542	1	6
600.712	1	3
600.881	1	1
601.051	1	-5
601.221	1	1
601.390	1	17
601.560	1	10
601.730	1	4
601.900	1	19
602.069	1	-2
602.239	1	7
602.409	1	1
602.578	1	5
602.748	1	-10
602.918	1	-6
603.088	1	7
603.257	1	3
603.427	1	13
603.597	1	14
603.767	1	7
603.936	1	12
604.106	1	15
604.276	1	-1
604.445	1	8
604.615	1	-1
604.785	1	-4
604.954	1	-5
605.124	1	1
605.294	1	6
605.464	1	-1
605.633	1	3
605.803	1	5
605.973	1	0
606.142	1	4
606.312	1	0
606.482	1	1
606.652	1	-7
606.821	1	2
606.991	1	16
607.161	1	2
607.330	1	9
607.500	1	10
607.670	1	23
607.839	1	8
608.009	1	6
608.179	1	-3
608.348	1	-2
608.518	1	-6
608.688	1	1
608.858	1	5
609.027	1	4
609.197	1	-5
609.367	1	3
609.536	1	-5
609.706	1	6
609.876	1	-2
610.045	1	1
610.215	1	-4
610.385	1	-3
610.554	1	0
610.724	1	2
610.894	1	17
611.063	1	9
611.233	1	-6
611.403	1	6
611.572	1	1
611.742	1	-3
611.912	1	1
612.081	1	-9
612.251	1	8
612.421	1	2
612.590	1	5
612.760	1	-1
612.930	1	-7
613.099	1	12
613.269	1	-9
613.439	1	0
613.608	1	-2
613.778	1	2
613.948	1	13
614.117	1	5
614.287	1	7
614.457	1	3
614.626	1	-5
614.796	1	6
614.966	1	5
615.135	1	14
615.305	1	-3
615.475	1	0
615.644	1	12
615.814	1	4
615.984	1	7
616.153	1	5
616.323	1	14
616.493	1	-2
616.662	1	5
616.832	1	11
617.002	1	-4
617.171	1	6
617.341	1	-9
617.511	1	6
617.680	1	10
617.850	1	-1
618.019	1	-6
618.189	1	-7
618.359	1	4
618.528	1	-1
618.698	1	7
618.868	1	7
619.037	1	7
619.207	1	2
619.377	1	1
619.546	1	8
619.716	1	1
619.885	1	-2
620.055	1	11
620.225	1	3
620.394	1	12
620.564	1	-3
620.734	1	11
620.903	1	9
621.073	1	5
621.242	1	-3
621.412	1	11
621.582	1	-4
621.751	1	-9
621.921	1	5
622.091	1	16
622.260	1	4
622.430	1	4
622.599	1	6
622.769	1	1
622.939	1	-1
623.108	1	-4
623.278	1	1
623.448	1	3
623.617	1	-3
623.787	1	-4
623.956	1	6
624.126	1	10
624.296	1	11
624.465	1	6
624.635	1	14
624.804	1	0
624.974	1	0
625.144	1	-1
625.313	1	9
625.483	1	5
625.652	1	-5
625.822	1	1
625.992	1	13
626.161	1	2
626.331	1	4
626.501	1	1
626.670	1	7
626.840	1	4
627.009	1	8
627.179	1	-3
627.348	1	4
627.518	1	3
627.688	1	9
627.857	1	6
628.027	1	3
628.196	1	1
628.366	1	4
628.536	1	-12
628.705	1	-1
628.875	1	6
629.044	1	1
629.214	1	6
629.384	1	4
629.553	1	6
629.723	1	0
629.892	1	5
630.062	1	-1
630.232	1	4
630.401	1	-1
630.571	1	15
630.740	1	7
630.910	1	-9
631.079	1	-3
631.249	1	-4
631.419	1	14
631.588	1	-4
631.758	1	6
631.927	1	1
632.097	1	-5
632.266	1	2
632.436	1	5
632.606	1	6
632.775	1	4
632.945	1	5
633.114	1	-7
633.284	1	10
633.453	1	8
633.623	1	2
633.793	1	8
633.962	1	-3
634.132	1	13
634.301	1	4
634.471	1	3
634.640	1	9
634.810	1	1
634.979	1	-3
635.149	1	-4
635.319	1	8
635.488	1	3
635.658	1	11
635.827	1	1
635.997	1	8
636.166	1	-10
636.336	1	7
636.505	1	2
636.675	1	6
636.845	1	-1
637.014	1	5
637.184	1	7
637.353	1	10
637.523	1	12
637.692	1	11
637.862	1	2
638.031	1	7
638.201	1	2
638.370	1	-2
638.540	1	3
638.710	1	8
638.879	1	5
639.049	1	2
639.218	1	1
639.388	1	0
639.557	1	-9
639.727	1	-4
639.896	1	5
640.066	1	1
640.235	1	9
640.405	1	4
640.574	1	6
640.744	1	18
640.914	1	-5
641.083	1	17
641.253	1	6
641.422	1	-6
641.592	1	7
641.761	1	3
641.931	1	9
642.100	1	-2
642.270	1	3
642.439	1	3
642.609	1	-3
642.778	1	-2
642.948	1	10
643.117	1	0
643.287	1	-4
643.456	1	8
643.626	1	14
643.795	1	14
643.965	1	5
644.134	1	-1
644.304	1	-2
644.473	1	4
644.643	1	6
644.812	1	2
644.982	1	-2
645.151	1	15
645.321	1	4
645.490	1	14
645.660	1	2
645.829	1	0
645.999	1	11
646.168	1	12
646.338	1	6
646.507	1	9
646.677	1	3
646.846	1	4
647.016	1	3
647.185	1	7
647.355	1	8
647.524	1	-5
647.694	1	0
647.863	1	-11
648.033	1	1
648.202	1	9
648.372	1	16
648.541	1	3
648.711	1	9
648.880	1	7
649.050	1	-1
649.219	1	8
649.389	1	4
649.558	1	5
649.728	1	3
649.897	1	0
650.067	1	9
650.236	1	14
650.406	1	1
650.575	1	-4
650.745	1	23
650.914	1	-1
651.084	1	2
651.253	1	13
651.423	1	2
651.592	1	8
651.762	1	0
651.931	1	5
652.101	1	7
652.270	1	-7
652.440	1	3
652.609	1	0
652.778	1	11
652.948	1	1
653.117	1	1
653.287	1	-4
653.456	1	4
653.626	1	7
653.795	1	3
653.965	1	9
654.134	1	15
654.304	1	8
654.473	1	2
654.643	1	-14
654.812	1	-1
654.982	1	-2
655.151	1	9
655.320	1	-3
655.490	1	2
655.659	1	2
655.829	1	9
655.998	1	-3
656.168	1	1
656.337	1	1
656.507	1	-2
656.676	1	-2
656.846	1	-1
657.015	1	4
657.184	1	7
657.354	1	2
657.523	1	0
657.693	1	-7
657.862	1	2
658.032	1	13
658.201	1	2
658.371	1	0
658.540	1	5
658.709	1	0
658.879	1	0
659.048	1	-5
659.218	1	1
659.387	1	6
659.557	1	3
659.726	1	12
659.895	1	7
660.065	1	-6
660.234	1	9
660.404	1	4
660.573	1	-5
660.743	1	8
660.912	1	2
661.081	1	9
661.251	1	4
661.420	1	19
661.590	1	1
661.759	1	-6
661.929	1	0
662.098	1	5
662.267	1	-3
662.437	1	2
662.606	1	1
662.776	1	8
662.945	1	7
663.115	1	8
663.284	1	4
663.453	1	-7
663.623	1	-7
663.792	1	-6
663.962	1	1
664.131	1	5
664.300	1	5
664.470	1	8
664.639	1	9
664.809	1	10
664.978	1	3
665.148	1	-5
665.317	1	-1
665.486	1	4
665.656	1	8
665.825	1	7
665.995	1	-6
666.164	1	6
666.333	1	4
666.503	1	20
666.672	1	10
666.842	1	3
667.011	1	7
667.180	1	7
667.350	1	2
667.519	1	-5
667.689	1	5
667.858	1	5
668.027	1	-6
668.197	1	8
668.366	1	15
668.536	1	10
668.705	1	22
668.874	1	-9
669.044	1	5
669.213	1	5
669.382	1	0
669.552	1	5
669.721	1	6
669.891	1	3
670.060	1	10
670.229	1	-6
670.399	1	9
670.568	1	3
670.738	1	3
670.907	1	4
671.076	1	2
671.246	1	-5
671.415	1	1
671.584	1	5
671.754	1	4
671.923	1	-1
672.093	1	5
672.262	1	13
672.431	1	0
672.601	1	6
672.770	1	-1
672.939	1	6
673.109	1	3
673.278	1	7
673.448	1	4
673.617	1	-1
673.786	1	6
