325.333	1	12
325.504	1	1
325.675	1	3
325.846	1	-6
326.017	1	1
326.188	1	12
326.359	1	-1
326.531	1	9
326.702	1	5
326.873	1	4
327.044	1	-5
327.215	1	10
327.386	1	0
327.557	1	9
327.728	1	3
327.899	1	7
328.070	1	3
328.241	1	7
328.412	1	-2
328.583	1	-11
328.754	1	-1
328.926	1	5
329.097	1	4
329.268	1	-5
329.439	1	0
329.610	1	14
329.781	1	3
329.952	1	-3
330.123	1	-8
330.294	1	10
330.465	1	1
330.636	1	2
330.807	1	-2
330.978	1	14
331.149	1	2
331.320	1	-3
331.492	1	7
331.663	1	4
331.834	1	4
332.005	1	4
332.176	1	12
332.347	1	0
332.518	1	7
332.689	1	-10
332.860	1	1
333.031	1	3
333.202	1	-5
333.373	1	11
333.544	1	9
333.715	1	-3
333.886	1	4
334.057	1	12
334.228	1	0
334.399	1	1
334.570	1	6
334.741	1	2
334.912	1	2
335.084	1	-5
335.255	1	15
335.426	1	-1
335.597	1	7
335.768	1	3
335.939	1	9
336.110	1	6
336.281	1	5
336.452	1	8
336.623	1	9
336.794	1	8
336.965	1	6
337.136	1	-8
337.307	1	8
337.478	1	-13
337.649	1	-3
337.820	1	12
337.991	1	4
338.162	1	3
338.333	1	2
338.504	1	5
338.675	1	7
338.846	1	6
339.017	1	-2
339.188	1	5
339.359	1	8
339.530	1	-4
339.701	1	-6
339.872	1	12
340.043	1	-5
340.214	1	6
340.385	1	1
340.556	1	17
340.727	1	4
340.898	1	-3
341.069	1	2
341.240	1	6
341.411	1	0
341.582	1	7
341.753	1	4
341.924	1	0
342.095	1	10
342.266	1	3
342.437	1	15
342.608	1	3
342.779	1	12
342.950	1	-4
343.121	1	0
343.292	1	14
343.463	1	-9
343.634	1	0
343.805	1	-3
343.976	1	-3
344.147	1	8
344.318	1	11
344.489	1	2
344.660	1	-2
344.831	1	1
345.002	1	-5
345.173	1	5
345.344	1	1
345.515	1	5
345.686	1	0
345.857	1	9
346.028	1	8
346.199	1	7
346.370	1	6
346.541	1	11
346.712	1	8
346.883	1	0
347.054	1	4
347.225	1	-5
347.396	1	-3
347.567	1	-1
347.738	1	-3
347.909	1	3
348.080	1	0
348.251	1	4
348.422	1	5
348.593	1	13
348.764	1	-3
348.935	1	-9
349.106	1	-7
349.277	1	6
349.448	1	-4
349.619	1	-3
349.790	1	1
349.961	1	6
350.132	1	9
350.303	1	3
350.474	1	5
350.645	1	6
350.816	1	0
350.987	1	5
351.157	1	-3
351.328	1	10
351.499	1	4
351.670	1	15
351.841	1	15
352.012	1	3
352.183	1	-2
352.354	1	6
352.525	1	1
352.696	1	5
352.867	1	-11
353.038	1	6
353.209	1	8
353.380	1	10
353.551	1	-1
353.722	1	3
353.893	1	5
354.064	1	4
354.235	1	2
354.406	1	6
354.576	1	0
354.747	1	2
354.918	1	9
355.089	1	10
355.260	1	2
355.431	1	-4
355.602	1	-1
355.773	1	-4
355.944	1	6
356.115	1	0
356.286	1	5
356.457	1	5
356.628	1	8
356.799	1	4
356.970	1	2
357.141	1	4
357.311	1	1
357.482	1	4
357.653	1	-2
357.824	1	1
357.995	1	7
358.166	1	13
358.337	1	6
358.508	1	4
358.679	1	0
358.850	1	10
359.021	1	7
359.192	1	2
359.363	1	2
359.533	1	6
359.704	1	-6
359.875	1	-1
360.046	1	5
360.217	1	10
360.388	1	1
360.559	1	20
360.730	1	4
360.901	1	-3
361.072	1	8
361.243	1	3
361.414	1	-5
361.584	1	-2
361.755	1	14
361.926	1	11
362.097	1	11
362.268	1	6
362.439	1	5
362.610	1	-1
362.781	1	8
362.952	1	0
363.123	1	2
363.293	1	14
363.464	1	17
363.635	1	7
363.806	1	3
363.977	1	0
364.148	1	2
364.319	1	5
364.490	1	2
364.661	1	1
364.832	1	-2
365.002	1	8
365.173	1	4
365.344	1	11
365.515	1	6
365.686	1	-7
365.857	1	-2
366.028	1	-2
366.199	1	8
366.370	1	5
366.540	1	5
366.711	1	0
366.882	1	7
367.053	1	-6
367.224	1	7
367.395	1	-1
367.566	1	6
367.737	1	6
367.908	1	8
368.078	1	2
368.249	1	7
368.420	1	4
368.591	1	-2
368.762	1	5
368.933	1	12
369.104	1	3
369.274	1	0
369.445	1	14
369.616	1	2
369.787	1	5
369.958	1	-7
370.129	1	15
370.300	1	6
370.471	1	-8
370.641	1	13
370.812	1	7
370.983	1	-1
371.154	1	10
371.325	1	1
371.496	1	7
371.667	1	-5
371.837	1	7
372.008	1	6
372.179	1	4
372.350	1	3
372.521	1	10
372.692	1	8
372.863	1	19
373.033	1	-5
373.204	1	-4
373.375	1	-4
373.546	1	-2
373.717	1	-4
373.888	1	4
374.059	1	4
374.229	1	3
374.400	1	-1
374.571	1	-8
374.742	1	14
374.913	1	1
375.084	1	7
375.254	1	7
375.425	1	4
375.596	1	-9
375.767	1	10
375.938	1	-6
376.109	1	12
376.279	1	1
376.450	1	1
376.621	1	6
376.792	1	10
376.963	1	-6
377.134	1	9
377.304	1	5
377.475	1	2
377.646	1	6
377.817	1	2
377.988	1	4
378.159	1	-1
378.329	1	-6
378.500	1	5
378.671	1	7
378.842	1	13
379.013	1	6
379.184	1	6
379.354	1	14
379.525	1	0
379.696	1	10
379.867	1	0
380.038	1	17
380.209	1	13
380.379	1	1
380.550	1	10
380.721	1	11
380.892	1	-1
381.063	1	-5
381.233	1	4
381.404	1	9
381.575	1	10
381.746	1	2
381.917	1	8
382.087	1	12
382.258	1	-1
382.429	1	-5
382.600	1	6
382.771	1	7
382.941	1	-1
383.112	1	7
383.283	1	20
383.454	1	9
383.625	1	13
383.795	1	11
383.966	1	5
384.137	1	6
384.308	1	2
384.479	1	8
384.649	1	10
384.820	1	-2
384.991	1	-2
385.162	1	16
385.333	1	2
385.503	1	-4
385.674	1	11
385.845	1	12
386.016	1	2
386.187	1	5
386.357	1	13
386.528	1	10
386.699	1	19
386.870	1	-9
387.041	1	11
387.211	1	0
387.382	1	1
387.553	1	2
387.724	1	10
387.894	1	8
388.065	1	4
388.236	1	-2
388.407	1	3
388.578	1	12
388.748	1	-3
388.919	1	20
389.090	1	0
389.261	1	0
389.431	1	10
389.602	1	2
389.773	1	5
389.944	1	3
390.114	1	13
390.285	1	10
390.456	1	11
390.627	1	10
390.798	1	7
390.968	1	4
391.139	1	6
391.310	1	13
391.481	1	6
391.651	1	11
391.822	1	6
391.993	1	16
392.164	1	10
392.334	1	14
392.505	1	3
392.676	1	3
392.847	1	4
393.017	1	7
393.188	1	7
393.359	1	-5
393.530	1	8
393.700	1	12
393.871	1	7
394.042	1	0
394.213	1	12
394.383	1	14
394.554	1	-2
394.725	1	0
394.896	1	4
395.066	1	11
395.237	1	7
395.408	1	5
395.579	1	1
395.749	1	3
395.920	1	-2
396.091	1	6
396.262	1	3
396.432	1	5
396.603	1	2
396.774	1	-2
396.945	1	1
397.115	1	11
397.286	1	6
397.457	1	10
397.627	1	12
397.798	1	12
397.969	1	5
398.140	1	5
398.310	1	8
398.481	1	12
398.652	1	5
398.823	1	2
398.993	1	-1
399.164	1	4
399.335	1	7
399.505	1	18
399.676	1	12
399.847	1	15
400.018	1	10
400.188	1	9
400.359	1	2
400.530	1	4
400.700	1	7
400.871	1	19
401.042	1	13
401.213	1	15
401.383	1	4
401.554	1	2
401.725	1	9
401.895	1	11
402.066	1	1
402.237	1	2
402.408	1	9
402.578	1	3
402.749	1	6
402.920	1	19
403.090	1	15
403.261	1	11
403.432	1	8
403.603	1	7
403.773	1	5
403.944	1	7
404.115	1	-3
404.285	1	4
404.456	1	9
404.627	1	20
404.797	1	7
404.968	1	17
405.139	1	8
405.310	1	13
405.480	1	7
405.651	1	-4
405.822	1	8
405.992	1	20
406.163	1	6
406.334	1	12
406.504	1	11
406.675	1	-2
406.846	1	11
407.016	1	11
407.187	1	13
407.358	1	9
407.528	1	6
407.699	1	7
407.870	1	5
408.041	1	15
408.211	1	5
408.382	1	21
408.553	1	0
408.723	1	-2
408.894	1	0
409.065	1	7
409.235	1	5
409.406	1	8
409.577	1	11
409.747	1	16
409.918	1	10
410.089	1	11
410.259	1	4
410.430	1	11
410.601	1	11
410.771	1	1
410.942	1	16
411.113	1	19
411.283	1	7
411.454	1	8
411.625	1	4
411.795	1	13
411.966	1	6
412.137	1	8
412.307	1	2
412.478	1	3
412.649	1	6
412.819	1	8
412.990	1	6
413.161	1	12
413.331	1	16
413.502	1	14
413.672	1	-2
413.843	1	13
414.014	1	9
414.184	1	3
414.355	1	14
414.526	1	-2
414.696	1	17
414.867	1	-1
415.038	1	2
415.208	1	8
415.379	1	6
415.550	1	7
415.720	1	10
415.891	1	12
416.062	1	13
416.232	1	7
416.403	1	16
416.573	1	9
416.744	1	-5
416.915	1	3
417.085	1	8
417.256	1	13
417.427	1	14
417.597	1	10
417.768	1	7
417.939	1	10
418.109	1	6
418.280	1	7
418.450	1	8
418.621	1	3
418.792	1	3
418.962	1	10
419.133	1	8
419.304	1	7
419.474	1	12
419.645	1	10
419.815	1	10
419.986	1	13
420.157	1	4
420.327	1	3
420.498	1	9
420.669	1	16
420.839	1	4
421.010	1	12
421.180	1	4
421.351	1	21
421.522	1	19
421.692	1	10
421.863	1	5
422.033	1	10
422.204	1	15
422.375	1	5
422.545	1	4
422.716	1	16
422.886	1	14
423.057	1	20
423.228	1	11
423.398	1	15
423.569	1	16
423.740	1	7
423.910	1	11
424.081	1	13
424.251	1	18
424.422	1	-2
424.593	1	17
424.763	1	3
424.934	1	3
425.104	1	1
425.275	1	13
425.445	1	5
425.616	1	9
425.787	1	9
425.957	1	10
426.128	1	7
426.298	1	-3
426.469	1	12
426.640	1	-1
426.810	1	9
426.981	1	9
427.151	1	11
427.322	1	6
427.493	1	-4
427.663	1	-3
427.834	1	2
428.004	1	4
428.175	1	0
428.345	1	3
428.516	1	11
428.687	1	12
428.857	1	9
429.028	1	8
429.198	1	2
429.369	1	-1
429.540	1	11
429.710	1	15
429.881	1	11
430.051	1	1
430.222	1	22
430.392	1	11
430.563	1	13
430.734	1	12
430.904	1	9
431.075	1	2
431.245	1	8
431.416	1	6
431.586	1	11
431.757	1	17
431.927	1	14
432.098	1	11
432.269	1	16
432.439	1	-4
432.610	1	3
432.780	1	0
432.951	1	17
433.121	1	6
433.292	1	18
433.462	1	10
433.633	1	17
433.804	1	-3
433.974	1	15
434.145	1	3
434.315	1	4
434.486	1	1
434.656	1	6
434.827	1	4
434.997	1	6
435.168	1	11
435.339	1	5
435.509	1	9
435.680	1	4
435.850	1	4
436.021	1	-1
436.191	1	7
436.362	1	8
436.532	1	25
436.703	1	13
436.873	1	6
437.044	1	13
437.214	1	1
437.385	1	11
437.556	1	-3
437.726	1	23
437.897	1	-1
438.067	1	10
438.238	1	8
438.408	1	16
438.579	1	18
438.749	1	-2
438.920	1	6
439.090	1	14
439.261	1	0
439.431	1	11
439.602	1	9
439.772	1	16
439.943	1	-1
440.113	1	8
440.284	1	16
440.455	1	15
440.625	1	23
440.796	1	13
440.966	1	11
441.137	1	6
441.307	1	12
441.478	1	11
441.648	1	11
441.819	1	11
441.989	1	20
442.160	1	14
442.330	1	-3
442.501	1	7
442.671	1	13
442.842	1	7
443.012	1	7
443.183	1	3
443.353	1	9
443.524	1	2
443.694	1	8
443.865	1	13
444.035	1	-3
444.206	1	15
444.376	1	16
444.547	1	10
444.717	1	0
444.888	1	12
445.058	1	-3
445.229	1	8
445.399	1	14
445.570	1	3
445.740	1	1
445.911	1	0
446.081	1	6
446.252	1	5
446.422	1	3
446.593	1	8
446.763	1	10
446.934	1	8
447.104	1	-5
447.275	1	19
447.445	1	5
447.616	1	3
447.786	1	7
447.957	1	6
448.127	1	3
448.298	1	7
448.468	1	15
448.639	1	13
448.809	1	-7
448.979	1	17
449.150	1	11
449.320	1	0
449.491	1	11
449.661	1	4
449.832	1	17
450.002	1	9
450.173	1	11
450.343	1	13
450.514	1	7
450.684	1	5
450.855	1	-4
451.025	1	11
451.196	1	0
451.366	1	11
451.537	1	4
451.707	1	15
451.878	1	9
452.048	1	16
452.218	1	5
452.389	1	-1
452.559	1	3
452.730	1	11
452.900	1	3
453.071	1	0
453.241	1	8
453.412	1	12
453.582	1	11
453.753	1	10
453.923	1	20
454.093	1	17
454.264	1	9
454.434	1	1
454.605	1	4
454.775	1	1
454.946	1	2
455.116	1	-1
455.287	1	22
455.457	1	11
455.628	1	11
455.798	1	1
455.968	1	-5
456.139	1	2
456.309	1	20
456.480	1	-10
456.650	1	2
456.821	1	-2
456.991	1	16
457.161	1	1
457.332	1	-7
457.502	1	9
457.673	1	2
457.843	1	10
458.014	1	4
458.184	1	16
458.355	1	13
458.525	1	6
458.695	1	-1
458.866	1	22
459.036	1	0
459.207	1	-7
459.377	1	8
459.548	1	-2
459.718	1	12
459.888	1	16
460.059	1	17
460.229	1	10
460.400	1	10
460.570	1	0
460.740	1	0
460.911	1	-2
461.081	1	7
461.252	1	9
461.422	1	15
461.593	1	7
461.763	1	3
461.933	1	21
462.104	1	5
462.274	1	0
462.445	1	-1
462.615	1	11
462.785	1	4
462.956	1	11
463.126	1	9
463.297	1	-3
463.467	1	12
463.638	1	13
463.808	1	-1
463.978	1	5
464.149	1	4
464.319	1	0
464.490	1	5
464.660	1	12
464.830	1	16
465.001	1	12
465.171	1	23
465.342	1	6
465.512	1	3
465.682	1	3
465.853	1	10
466.023	1	1
466.194	1	14
466.364	1	-7
466.534	1	15
466.705	1	10
466.875	1	13
467.045	1	7
467.216	1	13
467.386	1	17
467.557	1	1
467.727	1	3
467.897	1	0
468.068	1	22
468.238	1	-1
468.409	1	-1
468.579	1	11
468.749	1	15
468.920	1	3
469.090	1	-2
469.260	1	7
469.431	1	-13
469.601	1	8
469.772	1	8
469.942	1	13
470.112	1	11
470.283	1	5
470.453	1	7
470.623	1	3
470.794	1	-2
470.964	1	4
471.135	1	13
471.305	1	10
471.475	1	12
471.646	1	7
471.816	1	15
471.986	1	16
472.157	1	10
472.327	1	8
472.497	1	4
472.668	1	3
472.838	1	2
473.009	1	6
473.179	1	6
473.349	1	11
473.520	1	2
473.690	1	14
473.860	1	5
474.031	1	13
474.201	1	-8
474.371	1	15
474.542	1	2
474.712	1	8
474.882	1	-6
475.053	1	9
475.223	1	-2
475.394	1	11
475.564	1	3
475.734	1	7
475.905	1	-4
476.075	1	6
476.245	1	-1
476.416	1	9
476.586	1	6
476.756	1	-4
476.927	1	7
477.097	1	18
477.267	1	12
477.438	1	4
477.608	1	-1
477.778	1	9
477.949	1	5
478.119	1	-2
478.289	1	8
478.460	1	6
478.630	1	-2
478.800	1	8
478.971	1	9
479.141	1	3
479.311	1	-9
479.482	1	3
479.652	1	5
479.822	1	8
479.993	1	14
480.163	1	6
480.333	1	7
480.504	1	2
480.674	1	11
480.844	1	5
481.015	1	7
481.185	1	-8
481.355	1	8
481.525	1	2
481.696	1	3
481.866	1	9
482.036	1	3
482.207	1	0
482.377	1	3
482.547	1	4
482.718	1	-1
482.888	1	3
483.058	1	6
483.229	1	3
483.399	1	-8
483.569	1	11
483.740	1	8
483.910	1	12
484.080	1	10
484.250	1	10
484.421	1	1
484.591	1	-3
484.761	1	17
484.932	1	8
485.102	1	4
485.272	1	2
485.443	1	5
485.613	1	5
485.783	1	1
485.953	1	6
486.124	1	13
486.294	1	10
486.464	1	10
486.635	1	4
486.805	1	1
486.975	1	-5
487.146	1	-10
487.316	1	0
487.486	1	13
487.656	1	3
487.827	1	-8
487.997	1	9
488.167	1	4
488.338	1	6
488.508	1	14
488.678	1	6
488.848	1	-2
489.019	1	-5
489.189	1	7
489.359	1	4
489.529	1	1
489.700	1	4
489.870	1	23
490.040	1	12
490.211	1	3
490.381	1	4
490.551	1	4
490.721	1	9
490.892	1	4
491.062	1	10
491.232	1	4
491.402	1	11
491.573	1	13
491.743	1	-5
491.913	1	3
492.084	1	6
492.254	1	-1
492.424	1	0
492.594	1	9
492.765	1	3
492.935	1	3
493.105	1	9
493.275	1	5
493.446	1	10
493.616	1	12
493.786	1	-2
493.956	1	-6
494.127	1	1
494.297	1	5
494.467	1	0
494.637	1	-1
494.808	1	3
494.978	1	9
495.148	1	14
495.318	1	-1
495.489	1	3
495.659	1	10
495.829	1	6
495.999	1	-11
496.170	1	3
496.340	1	-4
496.510	1	11
496.680	1	8
496.851	1	11
497.021	1	3
497.191	1	21
497.361	1	-4
497.532	1	8
497.702	1	-1
497.872	1	-10
498.042	1	7
498.213	1	8
498.383	1	5
498.553	1	12
498.723	1	-1
498.894	1	-4
499.064	1	0
499.234	1	14
499.404	1	-12
499.574	1	1
499.745	1	-1
499.915	1	3
500.085	1	2
500.255	1	6
500.426	1	-7
500.596	1	6
500.766	1	5
500.936	1	-1
501.106	1	5
501.277	1	3
501.447	1	-9
501.617	1	6
501.787	1	5
501.958	1	7
502.128	1	11
502.298	1	-4
502.468	1	2
502.638	1	4
502.809	1	9
502.979	1	7
503.149	1	7
503.319	1	1
503.489	1	-3
503.660	1	-1
503.830	1	17
504.000	1	4
504.170	1	12
504.340	1	5
504.511	1	10
504.681	1	1
504.851	1	-3
505.021	1	-3
505.192	1	4
505.362	1	0
505.532	1	-2
505.702	1	7
505.872	1	4
506.043	1	19
506.213	1	8
506.383	1	7
506.553	1	17
506.723	1	-4
506.893	1	-6
507.064	1	17
507.234	1	-3
507.404	1	1
507.574	1	9
507.744	1	16
507.915	1	5
508.085	1	-1
508.255	1	12
508.425	1	-3
508.595	1	-5
508.766	1	-10
508.936	1	-1
509.106	1	16
509.276	1	3
509.446	1	10
509.616	1	12
509.787	1	4
509.957	1	-2
510.127	1	-10
510.297	1	-5
510.467	1	1
510.638	1	5
510.808	1	-9
510.978	1	9
511.148	1	3
511.318	1	-2
511.488	1	3
511.659	1	6
511.829	1	4
511.999	1	8
512.169	1	11
512.339	1	-2
512.509	1	10
512.680	1	7
512.850	1	6
513.020	1	-1
513.190	1	-7
513.360	1	3
513.530	1	16
513.700	1	8
513.871	1	2
514.041	1	-5
514.211	1	1
514.381	1	8
514.551	1	4
514.721	1	0
514.892	1	5
515.062	1	-2
515.232	1	-6
515.402	1	0
515.572	1	7
515.742	1	8
515.912	1	4
516.083	1	9
516.253	1	15
516.423	1	-1
516.593	1	-5
516.763	1	-5
516.933	1	-13
517.104	1	8
517.274	1	9
517.444	1	10
517.614	1	-1
517.784	1	1
517.954	1	12
518.124	1	3
518.294	1	10
518.465	1	0
518.635	1	2
518.805	1	9
518.975	1	-2
519.145	1	-7
519.315	1	1
519.485	1	2
519.656	1	9
519.826	1	11
519.996	1	0
520.166	1	0
520.336	1	-2
520.506	1	-16
520.676	1	-5
520.846	1	0
521.017	1	6
521.187	1	6
521.357	1	9
521.527	1	23
521.697	1	1
521.867	1	-3
522.037	1	0
522.207	1	-2
522.377	1	9
522.548	1	6
522.718	1	9
522.888	1	3
523.058	1	9
523.228	1	0
523.398	1	16
523.568	1	-1
523.738	1	7
523.909	1	-5
524.079	1	-8
524.249	1	-8
524.419	1	9
524.589	1	2
524.759	1	5
524.929	1	-6
525.099	1	-2
525.269	1	4
525.439	1	1
525.610	1	6
525.780	1	2
525.950	1	-3
526.120	1	-6
526.290	1	-5
526.460	1	6
526.630	1	6
526.800	1	2
526.970	1	3
527.140	1	-3
527.311	1	-5
527.481	1	-3
527.651	1	0
527.821	1	1
527.991	1	5
528.161	1	4
528.331	1	9
528.501	1	6
528.671	1	-5
528.841	1	6
529.011	1	4
529.181	1	-1
529.352	1	11
529.522	1	2
529.692	1	-2
529.862	1	-1
530.032	1	1
530.202	1	1
530.372	1	-4
530.542	1	5
530.712	1	16
530.882	1	7
531.052	1	-6
531.222	1	1
531.392	1	2
531.563	1	6
531.733	1	-10
531.903	1	7
532.073	1	8
532.243	1	14
532.413	1	2
532.583	1	1
532.753	1	3
532.923	1	0
533.093	1	5
533.263	1	7
533.433	1	6
533.603	1	-3
533.773	1	-5
533.943	1	0
534.113	1	7
534.284	1	-4
534.454	1	7
534.624	1	6
534.794	1	2
534.964	1	-5
535.134	1	-3
535.304	1	5
535.474	1	9
535.644	1	10
535.814	1	-3
535.984	1	-5
536.154	1	6
536.324	1	-7
536.494	1	4
536.664	1	-5
536.834	1	-2
537.004	1	-6
537.174	1	15
537.344	1	-6
537.514	1	3
537.685	1	5
537.855	1	15
538.025	1	2
538.195	1	5
538.365	1	3
538.535	1	2
538.705	1	-11
538.875	1	11
539.045	1	10
539.215	1	0
539.385	1	-8
539.555	1	2
539.725	1	14
539.895	1	0
540.065	1	1
540.235	1	0
540.405	1	-7
540.575	1	-3
540.745	1	6
540.915	1	7
541.085	1	2
541.255	1	4
541.425	1	-9
541.595	1	13
541.765	1	6
541.935	1	6
542.105	1	10
542.275	1	4
542.445	1	3
542.615	1	7
542.785	1	-9
542.955	1	1
543.125	1	-4
543.295	1	-8
543.465	1	5
543.635	1	3
543.805	1	6
543.975	1	10
544.145	1	2
544.315	1	9
544.485	1	5
544.655	1	1
544.825	1	-3
544.995	1	-1
545.165	1	3
545.335	1	-7
545.505	1	5
545.675	1	7
545.845	1	6
546.015	1	-5
546.185	1	-1
546.355	1	5
546.525	1	-1
546.695	1	-1
546.865	1	5
547.035	1	12
547.205	1	0
547.375	1	-5
547.545	1	-2
547.715	1	3
547.885	1	0
548.055	1	6
548.225	1	-6
548.395	1	1
548.565	1	2
548.735	1	-4
548.905	1	-7
549.075	1	-9
549.245	1	0
549.415	1	-2
549.585	1	-3
549.755	1	9
549.925	1	6
550.095	1	7
550.265	1	-3
550.435	1	4
550.605	1	4
550.775	1	16
550.945	1	-2
551.115	1	3
551.285	1	-1
551.455	1	7
551.625	1	1
551.795	1	0
551.965	1	2
552.135	1	7
552.305	1	8
552.475	1	0
552.645	1	1
552.815	1	9
552.985	1	3
553.155	1	1
553.325	1	2
553.495	1	5
553.665	1	-6
553.835	1	-2
554.004	1	2
554.174	1	5
554.344	1	-2
554.514	1	-2
554.684	1	11
554.854	1	5
555.024	1	1
555.194	1	5
555.364	1	8
555.534	1	14
555.704	1	1
555.874	1	4
556.044	1	11
556.214	1	-7
556.384	1	-1
556.554	1	3
556.724	1	6
556.894	1	-4
557.064	1	4
557.234	1	2
557.404	1	5
557.573	1	2
557.743	1	1
557.913	1	-6
558.083	1	1
558.253	1	-4
558.423	1	1
558.593	1	8
558.763	1	1
558.933	1	-3
559.103	1	2
559.273	1	6
559.443	1	1
559.613	1	3
559.783	1	5
559.953	1	5
560.122	1	3
560.292	1	4
560.462	1	11
560.632	1	3
560.802	1	3
560.972	1	7
561.142	1	-11
561.312	1	-3
561.482	1	0
561.652	1	-1
561.822	1	8
561.992	1	4
562.162	1	2
562.331	1	1
562.501	1	1
562.671	1	-3
562.841	1	-11
563.011	1	-2
563.181	1	5
563.351	1	5
563.521	1	1
563.691	1	0
563.861	1	14
564.031	1	3
564.201	1	3
564.370	1	-1
564.540	1	16
564.710	1	-5
564.880	1	3
565.050	1	12
565.220	1	4
565.390	1	8
565.560	1	2
565.730	1	4
565.900	1	-4
566.069	1	0
566.239	1	-2
566.409	1	13
566.579	1	3
566.749	1	5
566.919	1	2
567.089	1	8
567.259	1	-3
567.429	1	-10
567.599	1	0
567.768	1	14
567.938	1	7
568.108	1	-8
568.278	1	0
568.448	1	0
568.618	1	2
568.788	1	7
568.958	1	6
569.128	1	9
569.297	1	-11
569.467	1	3
569.637	1	1
569.807	1	-6
569.977	1	2
570.147	1	-2
570.317	1	-6
570.487	1	-2
570.656	1	-1
570.826	1	-10
570.996	1	-1
571.166	1	9
571.336	1	12
571.506	1	1
571.676	1	5
571.846	1	10
572.015	1	6
572.185	1	1
572.355	1	2
572.525	1	2
572.695	1	4
572.865	1	1
573.035	1	0
573.205	1	3
573.374	1	10
573.544	1	13
573.714	1	1
573.884	1	11
574.054	1	12
574.224	1	-7
574.394	1	5
574.563	1	12
574.733	1	6
574.903	1	-2
575.073	1	8
575.243	1	-6
575.413	1	6
575.583	1	4
575.752	1	3
575.922	1	7
576.092	1	-10
576.262	1	-3
576.432	1	-9
576.602	1	-4
576.772	1	8
576.941	1	8
577.111	1	2
577.281	1	7
577.451	1	4
577.621	1	-8
577.791	1	9
577.960	1	1
578.130	1	-3
578.300	1	-11
578.470	1	14
578.640	1	-6
578.810	1	-3
578.979	1	2
579.149	1	-2
579.319	1	10
579.489	1	-7
579.659	1	12
579.829	1	-5
579.998	1	-2
580.168	1	6
580.338	1	9
580.508	1	20
580.678	1	4
580.848	1	0
581.017	1	9
581.187	1	0
581.357	1	1
581.527	1	-1
581.697	1	2
581.867	1	-9
582.036	1	0
582.206	1	2
582.376	1	7
582.546	1	-3
582.716	1	2
582.885	1	4
583.055	1	4
583.225	1	3
583.395	1	9
583.565	1	6
583.735	1	10
583.904	1	7
584.074	1	2
584.244	1	7
584.414	1	0
584.584	1	5
584.753	1	2
584.923	1	-5
585.093	1	-5
585.263	1	3
585.433	1	-1
585.602	1	0
585.772	1	5
585.942	1	7
586.112	1	1
586.282	1	0
586.451	1	6
586.621	1	6
586.791	1	-4
586.961	1	13
587.131	1	1
587.300	1	-5
587.470	1	-6
587.640	1	-13
587.810	1	1
587.980	1	-6
588.149	1	6
588.319	1	-5
588.489	1	5
588.659	1	0
588.829	1	6
588.998	1	8
589.168	1	-4
589.338	1	10
589.508	1	4
589.677	1	11
589.847	1	-4
590.017	1	11
590.187	1	4
590.357	1	-8
590.526	1	9
590.696	1	6
590.866	1	15
591.036	1	-4
591.205	1	-4
591.375	1	-5
591.545	1	3
591.715	1	4
591.885	1	10
592.054	1	16
592.224	1	3
592.394	1	6
592.564	1	7
592.733	1	1
592.903	1	-9
593.073	1	-4
593.243	1	-4
593.412	1	-3
593.582	1	2
593.752	1	5
593.922	1	-5
594.091	1	2
594.261	1	1
594.431	1	-7
594.601	1	-3
594.771	1	9
594.940	1	0
595.110	1	7
595.280	1	-2
595.450	1	1
595.619	1	12
595.789	1	-2
595.959	1	-2
596.129	1	-18
596.298	1	-3
596.468	1	1
596.638	1	7
596.808	1	2
596.977	1	-3
597.147	1	2
597.317	1	11
597.487	1	6
597.656	1	4
597.826	1	10
597.996	1	4
598.166	1	13
598.335	1	-3
598.505	1	4
598.675	1	7
598.844	1	-1
599.014	1	1
599.184	1	0
599.354	1	6
599.523	1	11
599.693	1	17
599.863	1	1
600.033	1	-4
600.202	1	-1
600.372	1	3
600.542	1	2
600.712	1	2
600.881	1	4
601.051	1	-12
601.221	1	9
601.390	1	7
601.560	1	15
601.730	1	5
601.900	1	7
602.069	1	-2
602.239	1	-3
602.409	1	-4
602.578	1	5
602.748	1	-4
602.918	1	0
603.088	1	-2
603.257	1	1
603.427	1	11
603.597	1	16
603.767	1	10
603.936	1	2
604.106	1	2
604.276	1	-1
604.445	1	5
604.615	1	-1
604.785	1	0
604.954	1	-3
605.124	1	2
605.294	1	2
605.464	1	0
605.633	1	-3
605.803	1	7
605.973	1	-8
606.142	1	-3
606.312	1	-7
606.482	1	4
606.652	1	0
606.821	1	4
606.991	1	10
607.161	1	-2
607.330	1	-10
607.500	1	12
607.670	1	11
607.839	1	-3
608.009	1	9
608.179	1	6
608.348	1	-1
608.518	1	-16
608.688	1	1
608.858	1	0
609.027	1	6
609.197	1	-3
609.367	1	6
609.536	1	-9
609.706	1	8
609.876	1	-7
610.045	1	6
610.215	1	-7
610.385	1	-4
610.554	1	6
610.724	1	4
610.894	1	8
611.063	1	-1
611.233	1	-1
611.403	1	16
611.572	1	1
611.742	1	-12
611.912	1	6
612.081	1	-1
612.251	1	16
612.421	1	8
612.590	1	6
612.760	1	-7
612.930	1	5
613.099	1	15
613.269	1	3
613.439	1	2
613.608	1	6
613.778	1	6
613.948	1	5
614.117	1	-3
614.287	1	4
614.457	1	-11
614.626	1	-1
614.796	1	8
614.966	1	-3
615.135	1	7
615.305	1	-14
615.475	1	0
615.644	1	-10
615.814	1	-2
615.984	1	12
616.153	1	-3
616.323	1	14
616.493	1	1
616.662	1	5
616.832	1	5
617.002	1	1
617.171	1	9
617.341	1	-1
617.511	1	4
617.680	1	7
617.850	1	6
618.019	1	-7
618.189	1	-15
618.359	1	2
618.528	1	5
618.698	1	4
618.868	1	-2
619.037	1	-3
619.207	1	1
619.377	1	-1
619.546	1	9
619.716	1	12
619.885	1	-7
620.055	1	-3
620.225	1	-1
620.394	1	4
620.564	1	-5
620.734	1	6
620.903	1	16
621.073	1	9
621.242	1	-5
621.412	1	4
621.582	1	5
621.751	1	-6
621.921	1	3
622.091	1	12
622.260	1	1
622.430	1	3
622.599	1	7
622.769	1	8
622.939	1	3
623.108	1	-3
623.278	1	-1
623.448	1	4
623.617	1	-5
623.787	1	-6
623.956	1	6
624.126	1	6
624.296	1	3
624.465	1	17
624.635	1	14
624.804	1	3
624.974	1	0
625.144	1	7
625.313	1	5
625.483	1	0
625.652	1	-5
625.822	1	-5
625.992	1	10
626.161	1	3
626.331	1	8
626.501	1	6
626.670	1	7
626.840	1	6
627.009	1	15
627.179	1	-14
627.348	1	4
627.518	1	9
627.688	1	21
627.857	1	11
628.027	1	8
628.196	1	2
628.366	1	1
628.536	1	-14
628.705	1	-2
628.875	1	9
629.044	1	2
629.214	1	9
629.384	1	7
629.553	1	-3
629.723	1	-4
629.892	1	2
630.062	1	7
630.232	1	-8
630.401	1	4
630.571	1	3
630.740	1	9
630.910	1	-5
631.079	1	2
631.249	1	-9
631.419	1	22
631.588	1	-1
631.758	1	10
631.927	1	0
632.097	1	-10
632.266	1	-3
632.436	1	4
632.606	1	0
632.775	1	-4
632.945	1	4
633.114	1	5
633.284	1	9
633.453	1	2
633.623	1	3
633.793	1	13
633.962	1	0
634.132	1	8
634.301	1	0
634.471	1	6
634.640	1	3
634.810	1	1
634.979	1	7
635.149	1	-2
635.319	1	6
635.488	1	-4
635.658	1	12
635.827	1	3
635.997	1	8
636.166	1	-3
636.336	1	0
636.505	1	-8
636.675	1	3
636.845	1	-3
637.014	1	13
637.184	1	0
637.353	1	14
637.523	1	7
637.692	1	10
637.862	1	8
638.031	1	0
638.201	1	7
638.370	1	-7
638.540	1	0
638.710	1	5
638.879	1	3
639.049	1	0
639.218	1	6
639.388	1	5
639.557	1	-5
639.727	1	-3
639.896	1	-11
640.066	1	-1
640.235	1	7
640.405	1	-4
640.574	1	-2
640.744	1	13
640.914	1	0
641.083	1	15
641.253	1	2
641.422	1	11
641.592	1	4
641.761	1	-2
641.931	1	-3
642.100	1	-3
642.270	1	0
642.439	1	14
642.609	1	-2
642.778	1	16
642.948	1	2
643.117	1	5
643.287	1	-5
643.456	1	11
643.626	1	4
643.795	1	4
643.965	1	6
644.134	1	3
644.304	1	-6
644.473	1	-1
644.643	1	7
644.812	1	-11
644.982	1	-5
645.151	1	4
645.321	1	-1
645.490	1	4
645.660	1	-9
645.829	1	-3
645.999	1	9
646.168	1	5
646.338	1	4
646.507	1	1
646.677	1	-5
646.846	1	2
647.016	1	6
647.185	1	9
647.355	1	0
647.524	1	-1
647.694	1	-2
647.863	1	-6
648.033	1	0
648.202	1	1
648.372	1	15
648.541	1	-3
648.711	1	2
648.880	1	6
649.050	1	1
649.219	1	8
649.389	1	-6
649.558	1	4
649.728	1	1
649.897	1	9
650.067	1	-3
650.236	1	12
650.406	1	5
650.575	1	-14
650.745	1	3
650.914	1	2
651.084	1	9
651.253	1	16
651.423	1	5
651.592	1	2
651.762	1	5
651.931	1	4
652.101	1	13
652.270	1	-13
652.440	1	6
652.609	1	-10
652.778	1	17
652.948	1	-6
653.117	1	9
653.287	1	6
653.456	1	-5
653.626	1	2
653.795	1	-4
653.965	1	-1
654.134	1	3
654.304	1	8
654.473	1	8
654.643	1	-5
654.812	1	1
654.982	1	-7
655.151	1	-7
655.320	1	8
655.490	1	-2
655.659	1	10
655.829	1	0
655.998	1	2
656.168	1	2
656.337	1	10
656.507	1	-3
656.676	1	-4
656.846	1	4
657.015	1	7
657.184	1	4
657.354	1	1
657.523	1	1
657.693	1	-1
657.862	1	-5
658.032	1	0
658.201	1	-2
658.371	1	3
658.540	1	-2
658.709	1	0
658.879	1	6
659.048	1	8
659.218	1	-8
659.387	1	-1
659.557	1	13
659.726	1	-3
659.895	1	10
660.065	1	-8
660.234	1	4
660.404	1	-2
660.573	1	-9
660.743	1	-1
660.912	1	10
661.081	1	10
661.251	1	0
661.420	1	8
661.590	1	3
661.759	1	3
661.929	1	-1
662.098	1	2
662.267	1	4
662.437	1	-3
662.606	1	4
662.776	1	3
662.945	1	10
663.115	1	5
663.284	1	7
663.453	1	-9
663.623	1	-5
663.792	1	1
663.962	1	-2
664.131	1	6
664.300	1	8
664.470	1	3
664.639	1	4
664.809	1	2
664.978	1	-2
665.148	1	4
665.317	1	1
665.486	1	7
665.656	1	-9
665.825	1	-2
665.995	1	5
666.164	1	8
666.333	1	-5
666.503	1	11
666.672	1	6
666.842	1	-2
667.011	1	11
667.180	1	-5
667.350	1	2
667.519	1	-4
667.689	1	8
667.858	1	0
668.027	1	3
668.197	1	11
668.366	1	9
668.536	1	1
668.705	1	6
668.874	1	-8
669.044	1	4
669.213	1	2
669.382	1	1
669.552	1	7
669.721	1	5
669.891	1	-4
670.060	1	2
670.229	1	-3
670.399	1	4
670.568	1	7
670.738	1	3
670.907	1	1
671.076	1	8
671.246	1	2
671.415	1	-9
671.584	1	1
671.754	1	2
671.923	1	-3
672.093	1	6
672.262	1	6
672.431	1	3
672.601	1	7
672.770	1	-1
672.939	1	1
673.109	1	2
673.278	1	2
673.448	1	-6
673.617	1	-4
673.786	1	2
