325.333	1	19
325.504	1	1
325.675	1	4
325.846	1	1
326.017	1	8
326.188	1	6
326.359	1	2
326.531	1	13
326.702	1	7
326.873	1	4
327.044	1	7
327.215	1	2
327.386	1	2
327.557	1	4
327.728	1	6
327.899	1	5
328.070	1	8
328.241	1	11
328.412	1	-5
328.583	1	-6
328.754	1	5
328.926	1	2
329.097	1	10
329.268	1	-3
329.439	1	4
329.610	1	12
329.781	1	4
329.952	1	-4
330.123	1	-11
330.294	1	8
330.465	1	6
330.636	1	8
330.807	1	6
330.978	1	9
331.149	1	12
331.320	1	8
331.492	1	9
331.663	1	2
331.834	1	7
332.005	1	10
332.176	1	14
332.347	1	9
332.518	1	10
332.689	1	0
332.860	1	0
333.031	1	2
333.202	1	-5
333.373	1	12
333.544	1	11
333.715	1	13
333.886	1	6
334.057	1	13
334.228	1	9
334.399	1	-8
334.570	1	3
334.741	1	-7
334.912	1	9
335.084	1	3
335.255	1	28
335.426	1	2
335.597	1	6
335.768	1	11
335.939	1	0
336.110	1	7
336.281	1	15
336.452	1	10
336.623	1	-4
336.794	1	-5
336.965	1	14
337.136	1	-6
337.307	1	9
337.478	1	7
337.649	1	-6
337.820	1	12
337.991	1	9
338.162	1	3
338.333	1	9
338.504	1	19
338.675	1	1
338.846	1	13
339.017	1	1
339.188	1	6
339.359	1	18
339.530	1	10
339.701	1	2
339.872	1	11
340.043	1	6
340.214	1	16
340.385	1	5
340.556	1	12
340.727	1	17
340.898	1	5
341.069	1	5
341.240	1	5
341.411	1	11
341.582	1	8
341.753	1	4
341.924	1	17
342.095	1	12
342.266	1	3
342.437	1	12
342.608	1	10
342.779	1	6
342.950	1	0
343.121	1	8
343.292	1	12
343.463	1	11
343.634	1	14
343.805	1	10
343.976	1	11
344.147	1	10
344.318	1	21
344.489	1	8
344.660	1	5
344.831	1	22
345.002	1	13
345.173	1	12
345.344	1	-1
345.515	1	-2
345.686	1	9
345.857	1	16
346.028	1	12
346.199	1	8
346.370	1	9
346.541	1	20
346.712	1	16
346.883	1	2
347.054	1	16
347.225	1	6
347.396	1	8
347.567	1	12
347.738	1	9
347.909	1	5
348.080	1	12
348.251	1	11
348.422	1	1
348.593	1	4
348.764	1	9
348.935	1	2
349.106	1	0
349.277	1	9
349.448	1	3
349.619	1	8
349.790	1	7
349.961	1	15
350.132	1	17
350.303	1	2
350.474	1	13
350.645	1	11
350.816	1	6
350.987	1	13
351.157	1	6
351.328	1	-1
351.499	1	7
351.670	1	7
351.841	1	22
352.012	1	11
352.183	1	17
352.354	1	18
352.525	1	14
352.696	1	12
352.867	1	2
353.038	1	2
353.209	1	17
353.380	1	9
353.551	1	6
353.722	1	2
353.893	1	2
354.064	1	14
354.235	1	12
354.406	1	17
354.576	1	7
354.747	1	19
354.918	1	17
355.089	1	20
355.260	1	0
355.431	1	4
355.602	1	8
355.773	1	4
355.944	1	16
356.115	1	21
356.286	1	9
356.457	1	9
356.628	1	16
356.799	1	3
356.970	1	13
357.141	1	2
357.311	1	13
357.482	1	12
357.653	1	5
357.824	1	2
357.995	1	24
358.166	1	19
358.337	1	7
358.508	1	-1
358.679	1	3
358.850	1	16
359.021	1	2
359.192	1	13
359.363	1	4
359.533	1	16
359.704	1	2
359.875	1	4
360.046	1	-2
360.217	1	25
360.388	1	17
360.559	1	20
360.730	1	9
360.901	1	22
361.072	1	17
361.243	1	10
361.414	1	7
361.584	1	13
361.755	1	11
361.926	1	13
362.097	1	18
362.268	1	24
362.439	1	10
362.610	1	9
362.781	1	9
362.952	1	15
363.123	1	10
363.293	1	17
363.464	1	16
363.635	1	22
363.806	1	5
363.977	1	16
364.148	1	-7
364.319	1	15
364.490	1	12
364.661	1	7
364.832	1	3
365.002	1	18
365.173	1	4
365.344	1	12
365.515	1	9
365.686	1	-1
365.857	1	10
366.028	1	13
366.199	1	12
366.370	1	17
366.540	1	13
366.711	1	9
366.882	1	14
367.053	1	5
367.224	1	18
367.395	1	11
367.566	1	21
367.737	1	7
367.908	1	29
368.078	1	15
368.249	1	9
368.420	1	10
368.591	1	15
368.762	1	15
368.933	1	20
369.104	1	14
369.274	1	14
369.445	1	16
369.616	1	5
369.787	1	7
369.958	1	4
370.129	1	24
370.300	1	23
370.471	1	16
370.641	1	15
370.812	1	13
370.983	1	3
371.154	1	19
371.325	1	9
371.496	1	5
371.667	1	6
371.837	1	11
372.008	1	13
372.179	1	13
372.350	1	11
372.521	1	14
372.692	1	16
372.863	1	25
373.033	1	11
373.204	1	9
373.375	1	-2
373.546	1	10
373.717	1	8
373.888	1	17
374.059	1	5
374.229	1	18
374.400	1	8
374.571	1	1
374.742	1	17
374.913	1	-1
375.084	1	5
375.254	1	4
375.425	1	6
375.596	1	8
375.767	1	17
375.938	1	9
376.109	1	19
376.279	1	5
376.450	1	13
376.621	1	14
376.792	1	23
376.963	1	8
377.134	1	15
377.304	1	8
377.475	1	5
377.646	1	9
377.817	1	11
377.988	1	23
378.159	1	9
378.329	1	16
378.500	1	13
378.671	1	16
378.842	1	15
379.013	1	15
379.184	1	8
379.354	1	4
379.525	1	14
379.696	1	22
379.867	1	15
380.038	1	29
380.209	1	17
380.379	1	19
380.550	1	10
380.721	1	18
380.892	1	9
381.063	1	6
381.233	1	10
381.404	1	18
381.575	1	20
381.746	1	21
381.917	1	11
382.087	1	17
382.258	1	27
382.429	1	3
382.600	1	17
382.771	1	14
382.941	1	11
383.112	1	7
383.283	1	17
383.454	1	15
383.625	1	21
383.795	1	28
383.966	1	11
384.137	1	14
384.308	1	9
384.479	1	13
384.649	1	19
384.820	1	21
384.991	1	12
385.162	1	18
385.333	1	8
385.503	1	9
385.674	1	25
385.845	1	15
386.016	1	14
386.187	1	15
386.357	1	26
386.528	1	5
386.699	1	13
386.870	1	9
387.041	1	16
387.211	1	15
387.382	1	19
387.553	1	12
387.724	1	6
387.894	1	19
388.065	1	12
388.236	1	15
388.407	1	3
388.578	1	14
388.748	1	6
388.919	1	25
389.090	1	11
389.261	1	10
389.431	1	18
389.602	1	15
389.773	1	12
389.944	1	15
390.114	1	13
390.285	1	17
390.456	1	13
390.627	1	16
390.798	1	17
390.968	1	6
391.139	1	16
391.310	1	13
391.481	1	18
391.651	1	13
391.822	1	17
391.993	1	27
392.164	1	8
392.334	1	6
392.505	1	17
392.676	1	17
392.847	1	17
393.017	1	19
393.188	1	23
393.359	1	14
393.530	1	17
393.700	1	28
393.871	1	21
394.042	1	6
394.213	1	22
394.383	1	22
394.554	1	14
394.725	1	6
394.896	1	12
395.066	1	23
395.237	1	18
395.408	1	12
395.579	1	16
395.749	1	8
395.920	1	13
396.091	1	22
396.262	1	19
396.432	1	18
396.603	1	13
396.774	1	7
396.945	1	17
397.115	1	23
397.286	1	8
397.457	1	22
397.627	1	14
397.798	1	19
397.969	1	19
398.140	1	21
398.310	1	23
398.481	1	19
398.652	1	12
398.823	1	14
398.993	1	6
399.164	1	19
399.335	1	30
399.505	1	23
399.676	1	26
399.847	1	23
400.018	1	17
400.188	1	11
400.359	1	11
400.530	1	19
400.700	1	12
400.871	1	27
401.042	1	16
401.213	1	25
401.383	1	4
401.554	1	10
401.725	1	11
401.895	1	17
402.066	1	16
402.237	1	18
402.408	1	10
402.578	1	12
402.749	1	16
402.920	1	24
403.090	1	11
403.261	1	23
403.432	1	23
403.603	1	16
403.773	1	14
403.944	1	23
404.115	1	12
404.285	1	17
404.456	1	12
404.627	1	26
404.797	1	25
404.968	1	21
405.139	1	11
405.310	1	30
405.480	1	7
405.651	1	9
405.822	1	28
405.992	1	25
406.163	1	17
406.334	1	23
406.504	1	15
406.675	1	22
406.846	1	14
407.016	1	19
407.187	1	12
407.358	1	15
407.528	1	10
407.699	1	8
407.870	1	12
408.041	1	35
408.211	1	22
408.382	1	19
408.553	1	15
408.723	1	5
408.894	1	19
409.065	1	18
409.235	1	16
409.406	1	19
409.577	1	21
409.747	1	23
409.918	1	27
410.089	1	20
410.259	1	16
410.430	1	22
410.601	1	29
410.771	1	14
410.942	1	22
411.113	1	37
411.283	1	18
411.454	1	10
411.625	1	14
411.795	1	22
411.966	1	30
412.137	1	23
412.307	1	21
412.478	1	19
412.649	1	14
412.819	1	31
412.990	1	22
413.161	1	26
413.331	1	29
413.502	1	16
413.672	1	15
413.843	1	17
414.014	1	21
414.184	1	23
414.355	1	27
414.526	1	0
414.696	1	27
414.867	1	9
415.038	1	24
415.208	1	9
415.379	1	24
415.550	1	17
415.720	1	20
415.891	1	16
416.062	1	13
416.232	1	5
416.403	1	17
416.573	1	17
416.744	1	19
416.915	1	15
417.085	1	18
417.256	1	17
417.427	1	16
417.597	1	27
417.768	1	11
417.939	1	12
418.109	1	12
418.280	1	20
418.450	1	21
418.621	1	10
418.792	1	15
418.962	1	10
419.133	1	23
419.304	1	23
419.474	1	29
419.645	1	25
419.815	1	-2
419.986	1	29
420.157	1	31
420.327	1	19
420.498	1	23
420.669	1	22
420.839	1	14
421.010	1	11
421.180	1	18
421.351	1	25
421.522	1	30
421.692	1	23
421.863	1	27
422.033	1	19
422.204	1	13
422.375	1	18
422.545	1	22
422.716	1	16
422.886	1	12
423.057	1	19
423.228	1	17
423.398	1	19
423.569	1	22
423.740	1	21
423.910	1	20
424.081	1	18
424.251	1	18
424.422	1	15
424.593	1	11
424.763	1	10
424.934	1	21
425.104	1	14
425.275	1	32
425.445	1	16
425.616	1	15
425.787	1	25
425.957	1	10
426.128	1	6
426.298	1	24
426.469	1	25
426.640	1	8
426.810	1	21
426.981	1	12
427.151	1	22
427.322	1	14
427.493	1	8
427.663	1	15
427.834	1	22
428.004	1	15
428.175	1	17
428.345	1	8
428.516	1	33
428.687	1	27
428.857	1	25
429.028	1	14
429.198	1	18
429.369	1	4
429.540	1	19
429.710	1	16
429.881	1	24
430.051	1	16
430.222	1	20
430.392	1	24
430.563	1	22
430.734	1	23
430.904	1	14
431.075	1	12
431.245	1	7
431.416	1	22
431.586	1	32
431.757	1	27
431.927	1	24
432.098	1	18
432.269	1	14
432.439	1	7
432.610	1	14
432.780	1	13
432.951	1	27
433.121	1	19
433.292	1	17
433.462	1	19
433.633	1	21
433.804	1	12
433.974	1	12
434.145	1	16
434.315	1	17
434.486	1	21
434.656	1	20
434.827	1	21
434.997	1	15
435.168	1	23
435.339	1	13
435.509	1	23
435.680	1	15
435.850	1	14
436.021	1	17
436.191	1	22
436.362	1	25
436.532	1	32
436.703	1	20
436.873	1	22
437.044	1	16
437.214	1	11
437.385	1	24
437.556	1	15
437.726	1	31
437.897	1	13
438.067	1	14
438.238	1	20
438.408	1	20
438.579	1	18
438.749	1	8
438.920	1	10
439.090	1	14
439.261	1	14
439.431	1	32
439.602	1	31
439.772	1	23
439.943	1	15
440.113	1	26
440.284	1	20
440.455	1	24
440.625	1	30
440.796	1	30
440.966	1	13
441.137	1	15
441.307	1	34
441.478	1	31
441.648	1	10
441.819	1	24
441.989	1	29
442.160	1	31
442.330	1	19
442.501	1	8
442.671	1	19
442.842	1	23
443.012	1	22
443.183	1	12
443.353	1	17
443.524	1	18
443.694	1	22
443.865	1	17
444.035	1	13
444.206	1	19
444.376	1	18
444.547	1	11
444.717	1	17
444.888	1	18
445.058	1	20
445.229	1	14
445.399	1	19
445.570	1	32
445.740	1	17
445.911	1	4
446.081	1	15
446.252	1	11
446.422	1	17
446.593	1	21
446.763	1	26
446.934	1	27
447.104	1	18
447.275	1	25
447.445	1	18
447.616	1	20
447.786	1	23
447.957	1	14
448.127	1	19
448.298	1	32
448.468	1	26
448.639	1	19
448.809	1	19
448.979	1	23
449.150	1	10
449.320	1	16
449.491	1	16
449.661	1	10
449.832	1	21
450.002	1	19
450.173	1	27
450.343	1	13
450.514	1	19
450.684	1	4
450.855	1	10
451.025	1	22
451.196	1	14
451.366	1	16
451.537	1	13
451.707	1	22
451.878	1	19
452.048	1	21
452.218	1	14
452.389	1	10
452.559	1	5
452.730	1	25
452.900	1	30
453.071	1	3
453.241	1	15
453.412	1	19
453.582	1	25
453.753	1	28
453.923	1	25
454.093	1	30
454.264	1	19
454.434	1	12
454.605	1	5
454.775	1	5
454.946	1	15
455.116	1	19
455.287	1	22
455.457	1	23
455.628	1	23
455.798	1	13
455.968	1	8
456.139	1	5
456.309	1	23
456.480	1	5
456.650	1	3
456.821	1	11
456.991	1	24
457.161	1	11
457.332	1	13
457.502	1	17
457.673	1	17
457.843	1	18
458.014	1	9
458.184	1	21
458.355	1	21
458.525	1	8
458.695	1	9
458.866	1	23
459.036	1	7
459.207	1	12
459.377	1	19
459.548	1	12
459.718	1	14
459.888	1	25
460.059	1	21
460.229	1	16
460.400	1	13
460.570	1	17
460.740	1	12
460.911	1	17
461.081	1	11
461.252	1	16
461.422	1	17
461.593	1	25
461.763	1	12
461.933	1	19
462.104	1	10
462.274	1	16
462.445	1	21
462.615	1	15
462.785	1	16
462.956	1	25
463.126	1	13
463.297	1	11
463.467	1	25
463.638	1	25
463.808	1	6
463.978	1	13
464.149	1	18
464.319	1	15
464.490	1	11
464.660	1	26
464.830	1	20
465.001	1	19
465.171	1	19
465.342	1	20
465.512	1	10
465.682	1	15
465.853	1	19
466.023	1	20
466.194	1	16
466.364	1	3
466.534	1	29
466.705	1	24
466.875	1	13
467.045	1	9
467.216	1	17
467.386	1	22
467.557	1	16
467.727	1	14
467.897	1	10
468.068	1	28
468.238	1	16
468.409	1	17
468.579	1	23
468.749	1	16
468.920	1	13
469.090	1	9
469.260	1	17
469.431	1	1
469.601	1	12
469.772	1	16
469.942	1	10
470.112	1	25
470.283	1	16
470.453	1	14
470.623	1	4
470.794	1	9
470.964	1	13
471.135	1	22
471.305	1	23
471.475	1	17
471.646	1	21
471.816	1	25
471.986	1	14
472.157	1	16
472.327	1	10
472.497	1	9
472.668	1	13
472.838	1	11
473.009	1	18
473.179	1	12
473.349	1	10
473.520	1	7
473.690	1	18
473.860	1	3
474.031	1	16
474.201	1	7
474.371	1	26
474.542	1	14
474.712	1	14
474.882	1	11
475.053	1	13
475.223	1	11
475.394	1	19
475.564	1	10
475.734	1	21
475.905	1	14
476.075	1	8
476.245	1	4
476.416	1	23
476.586	1	5
476.756	1	15
476.927	1	16
477.097	1	20
477.267	1	21
477.438	1	6
477.608	1	9
477.778	1	12
477.949	1	10
478.119	1	7
478.289	1	15
478.460	1	22
478.630	1	15
478.800	1	19
478.971	1	8
479.141	1	10
479.311	1	10
479.482	1	14
479.652	1	14
479.822	1	19
479.993	1	12
480.163	1	21
480.333	1	12
480.504	1	18
480.674	1	17
480.844	1	9
481.015	1	1
481.185	1	3
481.355	1	19
481.525	1	8
481.696	1	8
481.866	1	20
482.036	1	19
482.207	1	15
482.377	1	4
482.547	1	4
482.718	1	15
482.888	1	16
483.058	1	18
483.229	1	12
483.399	1	13
483.569	1	20
483.740	1	18
483.910	1	23
484.080	1	18
484.250	1	20
484.421	1	4
484.591	1	11
484.761	1	18
484.932	1	12
485.102	1	22
485.272	1	18
485.443	1	19
485.613	1	9
485.783	1	7
485.953	1	8
486.124	1	24
486.294	1	24
486.464	1	16
486.635	1	9
486.805	1	9
486.975	1	0
487.146	1	10
487.316	1	5
487.486	1	14
487.656	1	12
487.827	1	3
487.997	1	27
488.167	1	6
488.338	1	24
488.508	1	17
488.678	1	15
488.848	1	9
489.019	1	11
489.189	1	10
489.359	1	20
489.529	1	16
489.700	1	23
489.870	1	19
490.040	1	17
490.211	1	16
490.381	1	5
490.551	1	28
490.721	1	6
490.892	1	10
491.062	1	15
491.232	1	3
491.402	1	23
491.573	1	16
491.743	1	5
491.913	1	14
492.084	1	14
492.254	1	1
492.424	1	14
492.594	1	12
492.765	1	4
492.935	1	2
493.105	1	27
493.275	1	12
493.446	1	16
493.616	1	18
493.786	1	3
493.956	1	13
494.127	1	21
494.297	1	10
494.467	1	12
494.637	1	6
494.808	1	5
494.978	1	13
495.148	1	25
495.318	1	4
495.489	1	17
495.659	1	20
495.829	1	2
495.999	1	3
496.170	1	6
496.340	1	17
496.510	1	21
496.680	1	9
496.851	1	17
497.021	1	10
497.191	1	25
497.361	1	2
497.532	1	19
497.702	1	8
497.872	1	10
498.042	1	21
498.213	1	10
498.383	1	10
498.553	1	18
498.723	1	8
498.894	1	6
499.064	1	6
499.234	1	17
499.404	1	8
499.574	1	2
499.745	1	9
499.915	1	10
500.085	1	14
500.255	1	11
500.426	1	13
500.596	1	15
500.766	1	21
500.936	1	6
501.106	1	10
501.277	1	15
501.447	1	21
501.617	1	12
501.787	1	5
501.958	1	16
502.128	1	21
502.298	1	9
502.468	1	18
502.638	1	18
502.809	1	12
502.979	1	16
503.149	1	9
503.319	1	5
503.489	1	11
503.660	1	6
503.830	1	16
504.000	1	17
504.170	1	20
504.340	1	4
504.511	1	13
504.681	1	10
504.851	1	7
505.021	1	4
505.192	1	5
505.362	1	8
505.532	1	5
505.702	1	13
505.872	1	16
506.043	1	20
506.213	1	6
506.383	1	13
506.553	1	15
506.723	1	-9
506.893	1	3
507.064	1	14
507.234	1	5
507.404	1	11
507.574	1	18
507.744	1	20
507.915	1	10
508.085	1	15
508.255	1	19
508.425	1	4
508.595	1	0
508.766	1	5
508.936	1	3
509.106	1	12
509.276	1	9
509.446	1	14
509.616	1	8
509.787	1	5
509.957	1	9
510.127	1	-1
510.297	1	5
510.467	1	16
510.638	1	6
510.808	1	10
510.978	1	11
511.148	1	5
511.318	1	1
511.488	1	7
511.659	1	5
511.829	1	3
511.999	1	10
512.169	1	9
512.339	1	15
512.509	1	15
512.680	1	8
512.850	1	14
513.020	1	4
513.190	1	10
513.360	1	10
513.530	1	20
513.700	1	16
513.871	1	12
514.041	1	9
514.211	1	15
514.381	1	6
514.551	1	5
514.721	1	10
514.892	1	3
515.062	1	10
515.232	1	-4
515.402	1	4
515.572	1	12
515.742	1	2
515.912	1	14
516.083	1	10
516.253	1	14
516.423	1	13
516.593	1	-4
516.763	1	-3
516.933	1	-3
517.104	1	13
517.274	1	6
517.444	1	12
517.614	1	8
517.784	1	3
517.954	1	12
518.124	1	-1
518.294	1	15
518.465	1	14
518.635	1	8
518.805	1	10
518.975	1	11
519.145	1	-3
519.315	1	20
519.485	1	4
519.656	1	20
519.826	1	14
519.996	1	8
520.166	1	3
520.336	1	4
520.506	1	-3
520.676	1	7
520.846	1	8
521.017	1	4
521.187	1	9
521.357	1	6
521.527	1	11
521.697	1	-2
521.867	1	10
522.037	1	8
522.207	1	5
522.377	1	16
522.548	1	7
522.718	1	6
522.888	1	16
523.058	1	10
523.228	1	5
523.398	1	9
523.568	1	15
523.738	1	10
523.909	1	4
524.079	1	5
524.249	1	13
524.419	1	18
524.589	1	7
524.759	1	12
524.929	1	0
525.099	1	-1
525.269	1	13
525.439	1	1
525.610	1	17
525.780	1	9
525.950	1	4
526.120	1	8
526.290	1	1
526.460	1	13
526.630	1	11
526.800	1	4
526.970	1	1
527.140	1	9
527.311	1	13
527.481	1	-2
527.651	1	0
527.821	1	7
527.991	1	10
528.161	1	9
528.331	1	7
528.501	1	15
528.671	1	4
528.841	1	12
529.011	1	13
529.181	1	-3
529.352	1	14
529.522	1	-5
529.692	1	3
529.862	1	-1
530.032	1	9
530.202	1	-2
530.372	1	5
530.542	1	8
530.712	1	9
530.882	1	8
531.052	1	5
531.222	1	3
531.392	1	2
531.563	1	11
531.733	1	-3
531.903	1	16
532.073	1	7
532.243	1	15
532.413	1	6
532.583	1	2
532.753	1	16
532.923	1	4
533.093	1	12
533.263	1	13
533.433	1	9
533.603	1	8
533.773	1	5
533.943	1	7
534.113	1	7
534.284	1	2
534.454	1	2
534.624	1	6
534.794	1	-3
534.964	1	13
535.134	1	8
535.304	1	5
535.474	1	18
535.644	1	20
535.814	1	10
535.984	1	6
536.154	1	9
536.324	1	1
536.494	1	9
536.664	1	6
536.834	1	12
537.004	1	-1
537.174	1	14
537.344	1	8
537.514	1	10
537.685	1	8
537.855	1	11
538.025	1	2
538.195	1	6
538.365	1	4
538.535	1	5
538.705	1	7
538.875	1	16
539.045	1	9
539.215	1	14
539.385	1	1
539.555	1	9
539.725	1	8
539.895	1	-1
540.065	1	8
540.235	1	0
540.405	1	4
540.575	1	12
540.745	1	12
540.915	1	8
541.085	1	0
541.255	1	0
541.425	1	4
541.595	1	15
541.765	1	-1
541.935	1	18
542.105	1	4
542.275	1	8
542.445	1	10
542.615	1	10
542.785	1	-1
542.955	1	8
543.125	1	1
543.295	1	-3
543.465	1	12
543.635	1	7
543.805	1	3
543.975	1	12
544.145	1	15
544.315	1	7
544.485	1	7
544.655	1	8
544.825	1	8
544.995	1	-3
545.165	1	14
545.335	1	8
545.505	1	2
545.675	1	10
545.845	1	7
546.015	1	-7
546.185	1	6
546.355	1	6
546.525	1	6
546.695	1	16
546.865	1	-1
547.035	1	17
547.205	1	8
547.375	1	-6
547.545	1	9
547.715	1	-1
547.885	1	11
548.055	1	7
548.225	1	4
548.395	1	6
548.565	1	9
548.735	1	7
548.905	1	-7
549.075	1	6
549.245	1	10
549.415	1	1
549.585	1	1
549.755	1	8
549.925	1	12
550.095	1	8
550.265	1	9
550.435	1	6
550.605	1	-2
550.775	1	5
550.945	1	0
551.115	1	12
551.285	1	7
551.455	1	7
551.625	1	5
551.795	1	8
551.965	1	8
552.135	1	19
552.305	1	7
552.475	1	5
552.645	1	3
552.815	1	5
552.985	1	11
553.155	1	-4
553.325	1	9
553.495	1	5
553.665	1	7
553.835	1	9
554.004	1	19
554.174	1	3
554.344	1	-6
554.514	1	4
554.684	1	6
554.854	1	5
555.024	1	11
555.194	1	15
555.364	1	5
555.534	1	23
555.704	1	14
555.874	1	6
556.044	1	11
556.214	1	0
556.384	1	4
556.554	1	5
556.724	1	8
556.894	1	8
557.064	1	12
557.234	1	13
557.404	1	3
557.573	1	-2
557.743	1	-10
557.913	1	3
558.083	1	-4
558.253	1	12
558.423	1	1
558.593	1	19
558.763	1	13
558.933	1	18
559.103	1	-6
559.273	1	0
559.443	1	2
559.613	1	8
559.783	1	10
559.953	1	8
560.122	1	13
560.292	1	4
560.462	1	12
560.632	1	2
560.802	1	13
560.972	1	3
561.142	1	-4
561.312	1	9
561.482	1	3
561.652	1	-2
561.822	1	9
561.992	1	2
562.162	1	5
562.331	1	3
562.501	1	2
562.671	1	-8
562.841	1	-5
563.011	1	-1
563.181	1	5
563.351	1	5
563.521	1	12
563.691	1	2
563.861	1	17
564.031	1	8
564.201	1	13
564.370	1	15
564.540	1	13
564.710	1	-6
564.880	1	18
565.050	1	-3
565.220	1	-2
565.390	1	5
565.560	1	5
565.730	1	6
565.900	1	1
566.069	1	6
566.239	1	7
566.409	1	-2
566.579	1	17
566.749	1	-3
566.919	1	16
567.089	1	11
567.259	1	6
567.429	1	7
567.599	1	1
567.768	1	17
567.938	1	5
568.108	1	1
568.278	1	-1
568.448	1	4
568.618	1	3
568.788	1	7
568.958	1	9
569.128	1	6
569.297	1	-11
569.467	1	6
569.637	1	5
569.807	1	5
569.977	1	3
570.147	1	4
570.317	1	-6
570.487	1	-3
570.656	1	1
570.826	1	-9
570.996	1	16
571.166	1	4
571.336	1	12
571.506	1	13
571.676	1	15
571.846	1	12
572.015	1	-5
572.185	1	8
572.355	1	-1
572.525	1	4
572.695	1	-1
572.865	1	12
573.035	1	4
573.205	1	1
573.374	1	19
573.544	1	7
573.714	1	12
573.884	1	7
574.054	1	12
574.224	1	0
574.394	1	11
574.563	1	9
574.733	1	6
574.903	1	3
575.073	1	-2
575.243	1	5
575.413	1	4
575.583	1	8
575.752	1	9
575.922	1	10
576.092	1	9
576.262	1	10
576.432	1	-2
576.602	1	5
576.772	1	-6
576.941	1	8
577.111	1	-3
577.281	1	3
577.451	1	4
577.621	1	-4
577.791	1	7
577.960	1	13
578.130	1	2
578.300	1	-10
578.470	1	5
578.640	1	5
578.810	1	-4
578.979	1	5
579.149	1	3
579.319	1	9
579.489	1	18
579.659	1	10
579.829	1	-3
579.998	1	6
580.168	1	3
580.338	1	4
580.508	1	17
580.678	1	7
580.848	1	6
581.017	1	4
581.187	1	5
581.357	1	4
581.527	1	6
581.697	1	5
581.867	1	0
582.036	1	4
582.206	1	5
582.376	1	0
582.546	1	-1
582.716	1	7
582.885	1	-12
583.055	1	13
583.225	1	2
583.395	1	6
583.565	1	5
583.735	1	12
583.904	1	7
584.074	1	-6
584.244	1	3
584.414	1	-2
584.584	1	6
584.753	1	-4
584.923	1	-1
585.093	1	-3
585.263	1	7
585.433	1	5
585.602	1	9
585.772	1	-1
585.942	1	8
586.112	1	6
586.282	1	9
586.451	1	-2
586.621	1	13
586.791	1	-2
586.961	1	6
587.131	1	2
587.300	1	8
587.470	1	1
587.640	1	-2
587.810	1	10
587.980	1	-1
588.149	1	4
588.319	1	2
588.489	1	3
588.659	1	7
588.829	1	4
588.998	1	16
589.168	1	-1
589.338	1	9
589.508	1	4
589.677	1	14
589.847	1	-3
590.017	1	5
590.187	1	16
590.357	1	6
590.526	1	10
590.696	1	2
590.866	1	3
591.036	1	-3
591.205	1	1
591.375	1	6
591.545	1	6
591.715	1	2
591.885	1	1
592.054	1	10
592.224	1	5
592.394	1	6
592.564	1	4
592.733	1	4
592.903	1	6
593.073	1	5
593.243	1	7
593.412	1	8
593.582	1	4
593.752	1	17
593.922	1	-3
594.091	1	8
594.261	1	6
594.431	1	-7
594.601	1	0
594.771	1	-2
594.940	1	-3
595.110	1	10
595.280	1	6
595.450	1	-3
595.619	1	0
595.789	1	0
595.959	1	9
596.129	1	-1
596.298	1	5
596.468	1	8
596.638	1	1
596.808	1	4
596.977	1	13
597.147	1	14
597.317	1	4
597.487	1	11
597.656	1	4
597.826	1	6
597.996	1	-1
598.166	1	9
598.335	1	0
598.505	1	11
598.675	1	16
598.844	1	9
599.014	1	6
599.184	1	3
599.354	1	6
599.523	1	5
599.693	1	5
599.863	1	-1
600.033	1	8
600.202	1	5
600.372	1	6
600.542	1	9
600.712	1	1
600.881	1	4
601.051	1	-7
601.221	1	3
601.390	1	7
601.560	1	13
601.730	1	1
601.900	1	14
602.069	1	-4
602.239	1	-1
602.409	1	1
602.578	1	6
602.748	1	-6
602.918	1	0
603.088	1	1
603.257	1	-4
603.427	1	13
603.597	1	13
603.767	1	14
603.936	1	4
604.106	1	1
604.276	1	3
604.445	1	5
604.615	1	-6
604.785	1	0
604.954	1	-5
605.124	1	6
605.294	1	6
605.464	1	4
605.633	1	-6
605.803	1	9
605.973	1	-1
606.142	1	7
606.312	1	-6
606.482	1	12
606.652	1	11
606.821	1	9
606.991	1	8
607.161	1	9
607.330	1	-1
607.500	1	12
607.670	1	11
607.839	1	8
608.009	1	4
608.179	1	4
608.348	1	12
608.518	1	-2
608.688	1	2
608.858	1	8
609.027	1	4
609.197	1	13
609.367	1	3
609.536	1	-1
609.706	1	-2
609.876	1	-2
610.045	1	10
610.215	1	0
610.385	1	9
610.554	1	7
610.724	1	7
610.894	1	12
611.063	1	11
611.233	1	0
611.403	1	15
611.572	1	3
611.742	1	-6
611.912	1	-2
612.081	1	-1
612.251	1	5
612.421	1	5
612.590	1	7
612.760	1	3
612.930	1	8
613.099	1	10
613.269	1	4
613.439	1	2
613.608	1	0
613.778	1	13
613.948	1	7
614.117	1	6
614.287	1	4
614.457	1	3
614.626	1	-5
614.796	1	14
614.966	1	-7
615.135	1	6
615.305	1	-2
615.475	1	-1
615.644	1	3
615.814	1	0
615.984	1	15
616.153	1	6
616.323	1	18
616.493	1	6
616.662	1	9
616.832	1	13
617.002	1	3
617.171	1	5
617.341	1	4
617.511	1	7
617.680	1	7
617.850	1	-2
618.019	1	-2
618.189	1	-1
618.359	1	5
618.528	1	1
618.698	1	10
618.868	1	6
619.037	1	-4
619.207	1	4
619.377	1	-6
619.546	1	5
619.716	1	11
619.885	1	2
620.055	1	3
620.225	1	7
620.394	1	11
620.564	1	7
620.734	1	11
620.903	1	11
621.073	1	4
621.242	1	-4
621.412	1	18
621.582	1	11
621.751	1	8
621.921	1	19
622.091	1	10
622.260	1	1
622.430	1	13
622.599	1	4
622.769	1	-2
622.939	1	1
623.108	1	0
623.278	1	4
623.448	1	4
623.617	1	7
623.787	1	-4
623.956	1	9
624.126	1	3
624.296	1	15
624.465	1	10
624.635	1	4
624.804	1	3
624.974	1	7
625.144	1	-3
625.313	1	7
625.483	1	8
625.652	1	10
625.822	1	-5
625.992	1	5
626.161	1	9
626.331	1	6
626.501	1	9
626.670	1	6
626.840	1	8
627.009	1	6
627.179	1	7
627.348	1	6
627.518	1	16
627.688	1	8
627.857	1	9
628.027	1	4
628.196	1	8
628.366	1	9
628.536	1	-6
628.705	1	1
628.875	1	14
629.044	1	2
629.214	1	4
629.384	1	6
629.553	1	6
629.723	1	8
629.892	1	-1
630.062	1	3
630.232	1	3
630.401	1	0
630.571	1	8
630.740	1	4
630.910	1	7
631.079	1	-1
631.249	1	-5
631.419	1	10
631.588	1	7
631.758	1	17
631.927	1	6
632.097	1	0
632.266	1	8
632.436	1	10
632.606	1	7
632.775	1	9
632.945	1	-10
633.114	1	-3
633.284	1	10
633.453	1	4
633.623	1	1
633.793	1	15
633.962	1	8
634.132	1	6
634.301	1	4
634.471	1	12
634.640	1	3
634.810	1	-4
634.979	1	-7
635.149	1	11
635.319	1	14
635.488	1	7
635.658	1	19
635.827	1	5
635.997	1	9
636.166	1	0
636.336	1	5
636.505	1	7
636.675	1	6
636.845	1	-4
637.014	1	15
637.184	1	0
637.353	1	11
637.523	1	11
637.692	1	10
637.862	1	8
638.031	1	3
638.201	1	1
638.370	1	0
638.540	1	1
638.710	1	4
638.879	1	9
639.049	1	-1
639.218	1	-6
639.388	1	14
639.557	1	3
639.727	1	7
639.896	1	3
640.066	1	6
640.235	1	3
640.405	1	0
640.574	1	-1
640.744	1	18
640.914	1	2
641.083	1	14
641.253	1	2
641.422	1	1
641.592	1	7
641.761	1	7
641.931	1	8
642.100	1	0
642.270	1	3
642.439	1	5
642.609	1	0
642.778	1	1
642.948	1	13
643.117	1	13
643.287	1	6
643.456	1	15
643.626	1	18
643.795	1	7
643.965	1	5
644.134	1	-2
644.304	1	-2
644.473	1	0
644.643	1	5
644.812	1	1
644.982	1	4
645.151	1	6
645.321	1	3
645.490	1	6
645.660	1	-4
645.829	1	4
645.999	1	4
646.168	1	15
646.338	1	12
646.507	1	-3
646.677	1	4
646.846	1	8
647.016	1	6
647.185	1	7
647.355	1	5
647.524	1	-7
647.694	1	6
647.863	1	0
648.033	1	1
648.202	1	6
648.372	1	9
648.541	1	7
648.711	1	8
648.880	1	12
649.050	1	3
649.219	1	8
649.389	1	6
649.558	1	7
649.728	1	6
649.897	1	11
650.067	1	-3
650.236	1	18
650.406	1	9
650.575	1	3
650.745	1	6
650.914	1	4
651.084	1	7
651.253	1	14
651.423	1	3
651.592	1	6
651.762	1	6
651.931	1	11
652.101	1	18
652.270	1	3
652.440	1	-2
652.609	1	-2
652.778	1	12
652.948	1	-4
653.117	1	5
653.287	1	-2
653.456	1	1
653.626	1	2
653.795	1	2
653.965	1	6
654.134	1	11
654.304	1	1
654.473	1	-1
654.643	1	-8
654.812	1	10
654.982	1	6
655.151	1	10
655.320	1	7
655.490	1	4
655.659	1	12
655.829	1	4
655.998	1	8
656.168	1	-2
656.337	1	6
656.507	1	15
656.676	1	0
656.846	1	3
657.015	1	-1
657.184	1	10
657.354	1	3
657.523	1	5
657.693	1	-3
657.862	1	8
658.032	1	5
658.201	1	9
658.371	1	4
658.540	1	7
658.709	1	-5
658.879	1	10
659.048	1	12
659.218	1	5
659.387	1	2
659.557	1	6
659.726	1	1
659.895	1	1
660.065	1	-6
660.234	1	6
660.404	1	-5
660.573	1	-2
660.743	1	9
660.912	1	9
661.081	1	8
661.251	1	2
661.420	1	7
661.590	1	4
661.759	1	2
661.929	1	6
662.098	1	5
662.267	1	8
662.437	1	8
662.606	1	1
662.776	1	20
662.945	1	7
663.115	1	4
663.284	1	0
663.453	1	2
663.623	1	2
663.792	1	-2
663.962	1	6
664.131	1	10
664.300	1	9
664.470	1	19
664.639	1	5
664.809	1	1
664.978	1	1
665.148	1	4
665.317	1	5
665.486	1	11
665.656	1	1
665.825	1	7
665.995	1	9
666.164	1	12
666.333	1	10
666.503	1	14
666.672	1	4
666.842	1	1
667.011	1	18
667.180	1	4
667.350	1	6
667.519	1	-2
667.689	1	-1
667.858	1	4
668.027	1	-1
668.197	1	16
668.366	1	8
668.536	1	7
668.705	1	1
668.874	1	-8
669.044	1	-4
669.213	1	6
669.382	1	7
669.552	1	11
669.721	1	9
669.891	1	9
670.060	1	5
670.229	1	-9
670.399	1	6
670.568	1	7
670.738	1	15
670.907	1	4
671.076	1	12
671.246	1	2
671.415	1	4
671.584	1	1
671.754	1	6
671.923	1	3
672.093	1	10
672.262	1	12
672.431	1	5
672.601	1	5
672.770	1	8
672.939	1	5
673.109	1	7
673.278	1	2
673.448	1	8
673.617	1	-7
673.786	1	16
