325.333	1	14
325.504	1	9
325.675	1	4
325.846	1	3
326.017	1	5
326.188	1	7
326.359	1	3
326.531	1	13
326.702	1	1
326.873	1	3
327.044	1	-2
327.215	1	16
327.386	1	-4
327.557	1	4
327.728	1	3
327.899	1	14
328.070	1	12
328.241	1	7
328.412	1	-4
328.583	1	-1
328.754	1	3
328.926	1	11
329.097	1	-2
329.268	1	-1
329.439	1	10
329.610	1	4
329.781	1	10
329.952	1	3
330.123	1	2
330.294	1	2
330.465	1	16
330.636	1	-2
330.807	1	10
330.978	1	13
331.149	1	4
331.320	1	5
331.492	1	13
331.663	1	6
331.834	1	8
332.005	1	4
332.176	1	15
332.347	1	6
332.518	1	17
332.689	1	-3
332.860	1	5
333.031	1	6
333.202	1	-7
333.373	1	2
333.544	1	11
333.715	1	9
333.886	1	6
334.057	1	16
334.228	1	12
334.399	1	0
334.570	1	11
334.741	1	-6
334.912	1	3
335.084	1	3
335.255	1	11
335.426	1	5
335.597	1	20
335.768	1	11
335.939	1	15
336.110	1	11
336.281	1	12
336.452	1	6
336.623	1	8
336.794	1	6
336.965	1	17
337.136	1	-1
337.307	1	4
337.478	1	-10
337.649	1	8
337.820	1	16
337.991	1	12
338.162	1	11
338.333	1	3
338.504	1	10
338.675	1	3
338.846	1	11
339.017	1	-2
339.188	1	2
339.359	1	15
339.530	1	7
339.701	1	7
339.872	1	2
340.043	1	14
340.214	1	9
340.385	1	1
340.556	1	12
340.727	1	12
340.898	1	2
341.069	1	6
341.240	1	-3
341.411	1	7
341.582	1	7
341.753	1	14
341.924	1	14
342.095	1	14
342.266	1	-7
342.437	1	14
342.608	1	8
342.779	1	6
342.950	1	5
343.121	1	2
343.292	1	16
343.463	1	-3
343.634	1	14
343.805	1	11
343.976	1	7
344.147	1	12
344.318	1	17
344.489	1	2
344.660	1	10
344.831	1	16
345.002	1	3
345.173	1	12
345.344	1	10
345.515	1	8
345.686	1	0
345.857	1	12
346.028	1	20
346.199	1	7
346.370	1	11
346.541	1	18
346.712	1	19
346.883	1	4
347.054	1	-1
347.225	1	-1
347.396	1	11
347.567	1	16
347.738	1	1
347.909	1	6
348.080	1	14
348.251	1	2
348.422	1	14
348.593	1	4
348.764	1	5
348.935	1	-2
349.106	1	2
349.277	1	4
349.448	1	8
349.619	1	11
349.790	1	0
349.961	1	15
350.132	1	12
350.303	1	14
350.474	1	12
350.645	1	6
350.816	1	4
350.987	1	13
351.157	1	-2
351.328	1	14
351.499	1	7
351.670	1	18
351.841	1	21
352.012	1	14
352.183	1	8
352.354	1	16
352.525	1	6
352.696	1	3
352.867	1	5
353.038	1	6
353.209	1	19
353.380	1	20
353.551	1	13
353.722	1	12
353.893	1	12
354.064	1	12
354.235	1	12
354.406	1	13
354.576	1	4
354.747	1	22
354.918	1	22
355.089	1	17
355.260	1	3
355.431	1	5
355.602	1	12
355.773	1	-4
355.944	1	8
356.115	1	12
356.286	1	12
356.457	1	10
356.628	1	15
356.799	1	13
356.970	1	10
357.141	1	9
357.311	1	13
357.482	1	11
357.653	1	8
357.824	1	9
357.995	1	22
358.166	1	16
358.337	1	11
358.508	1	9
358.679	1	12
358.850	1	17
359.021	1	10
359.192	1	6
359.363	1	11
359.533	1	13
359.704	1	2
359.875	1	0
360.046	1	2
360.217	1	14
360.388	1	10
360.559	1	16
360.730	1	12
360.901	1	15
361.072	1	13
361.243	1	20
361.414	1	-5
361.584	1	8
361.755	1	8
361.926	1	13
362.097	1	23
362.268	1	13
362.439	1	11
362.610	1	15
362.781	1	10
362.952	1	15
363.123	1	9
363.293	1	16
363.464	1	19
363.635	1	18
363.806	1	8
363.977	1	9
364.148	1	1
364.319	1	12
364.490	1	17
364.661	1	12
364.832	1	5
365.002	1	5
365.173	1	14
365.344	1	18
365.515	1	0
365.686	1	6
365.857	1	13
366.028	1	10
366.199	1	8
366.370	1	17
366.540	1	7
366.711	1	11
366.882	1	10
367.053	1	8
367.224	1	23
367.395	1	11
367.566	1	11
367.737	1	6
367.908	1	29
368.078	1	10
368.249	1	13
368.420	1	10
368.591	1	4
368.762	1	6
368.933	1	14
369.104	1	14
369.274	1	14
369.445	1	14
369.616	1	1
369.787	1	14
369.958	1	14
370.129	1	14
370.300	1	15
370.471	1	13
370.641	1	23
370.812	1	8
370.983	1	11
371.154	1	7
371.325	1	8
371.496	1	0
371.667	1	4
371.837	1	8
372.008	1	19
372.179	1	4
372.350	1	18
372.521	1	5
372.692	1	10
372.863	1	13
373.033	1	3
373.204	1	18
373.375	1	4
373.546	1	8
373.717	1	0
373.888	1	9
374.059	1	15
374.229	1	11
374.400	1	10
374.571	1	-3
374.742	1	15
374.913	1	19
375.084	1	14
375.254	1	7
375.425	1	16
375.596	1	4
375.767	1	15
375.938	1	10
376.109	1	20
376.279	1	11
376.450	1	17
376.621	1	13
376.792	1	21
376.963	1	-3
377.134	1	24
377.304	1	18
377.475	1	4
377.646	1	9
377.817	1	9
377.988	1	11
378.159	1	6
378.329	1	15
378.500	1	13
378.671	1	10
378.842	1	14
379.013	1	11
379.184	1	14
379.354	1	8
379.525	1	3
379.696	1	22
379.867	1	20
380.038	1	18
380.209	1	9
380.379	1	15
380.550	1	7
380.721	1	21
380.892	1	11
381.063	1	8
381.233	1	16
381.404	1	19
381.575	1	11
381.746	1	0
381.917	1	16
382.087	1	14
382.258	1	20
382.429	1	7
382.600	1	10
382.771	1	8
382.941	1	3
383.112	1	15
383.283	1	14
383.454	1	21
383.625	1	10
383.795	1	21
383.966	1	9
384.137	1	15
384.308	1	20
384.479	1	15
384.649	1	21
384.820	1	13
384.991	1	24
385.162	1	13
385.333	1	4
385.503	1	-3
385.674	1	15
385.845	1	16
386.016	1	7
386.187	1	14
386.357	1	23
386.528	1	12
386.699	1	24
386.870	1	2
387.041	1	11
387.211	1	15
387.382	1	13
387.553	1	8
387.724	1	10
387.894	1	25
388.065	1	10
388.236	1	16
388.407	1	18
388.578	1	19
388.748	1	6
388.919	1	18
389.090	1	15
389.261	1	16
389.431	1	20
389.602	1	7
389.773	1	15
389.944	1	20
390.114	1	26
390.285	1	21
390.456	1	11
390.627	1	10
390.798	1	8
390.968	1	2
391.139	1	23
391.310	1	18
391.481	1	12
391.651	1	6
391.822	1	17
391.993	1	16
392.164	1	4
392.334	1	11
392.505	1	3
392.676	1	16
392.847	1	14
393.017	1	18
393.188	1	17
393.359	1	5
393.530	1	22
393.700	1	23
393.871	1	32
394.042	1	9
394.213	1	8
394.383	1	20
394.554	1	24
394.725	1	13
394.896	1	18
395.066	1	29
395.237	1	17
395.408	1	19
395.579	1	8
395.749	1	12
395.920	1	5
396.091	1	18
396.262	1	17
396.432	1	15
396.603	1	18
396.774	1	10
396.945	1	15
397.115	1	20
397.286	1	11
397.457	1	18
397.627	1	24
397.798	1	22
397.969	1	11
398.140	1	15
398.310	1	16
398.481	1	15
398.652	1	29
398.823	1	11
398.993	1	18
399.164	1	14
399.335	1	20
399.505	1	23
399.676	1	16
399.847	1	20
400.018	1	23
400.188	1	16
400.359	1	17
400.530	1	30
400.700	1	18
400.871	1	30
401.042	1	13
401.213	1	24
401.383	1	7
401.554	1	12
401.725	1	15
401.895	1	17
402.066	1	4
402.237	1	11
402.408	1	9
402.578	1	9
402.749	1	12
402.920	1	21
403.090	1	16
403.261	1	28
403.432	1	21
403.603	1	22
403.773	1	13
403.944	1	13
404.115	1	4
404.285	1	9
404.456	1	5
404.627	1	20
404.797	1	17
404.968	1	23
405.139	1	15
405.310	1	20
405.480	1	16
405.651	1	16
405.822	1	25
405.992	1	19
406.163	1	14
406.334	1	14
406.504	1	19
406.675	1	14
406.846	1	19
407.016	1	14
407.187	1	23
407.358	1	22
407.528	1	13
407.699	1	9
407.870	1	9
408.041	1	12
408.211	1	15
408.382	1	33
408.553	1	19
408.723	1	14
408.894	1	28
409.065	1	22
409.235	1	6
409.406	1	17
409.577	1	23
409.747	1	31
409.918	1	22
410.089	1	19
410.259	1	18
410.430	1	26
410.601	1	17
410.771	1	17
410.942	1	29
411.113	1	26
411.283	1	26
411.454	1	23
411.625	1	18
411.795	1	32
411.966	1	25
412.137	1	23
412.307	1	27
412.478	1	12
412.649	1	14
412.819	1	27
412.990	1	22
413.161	1	24
413.331	1	30
413.502	1	20
413.672	1	21
413.843	1	22
414.014	1	19
414.184	1	25
414.355	1	24
414.526	1	8
414.696	1	27
414.867	1	14
415.038	1	24
415.208	1	6
415.379	1	16
415.550	1	13
415.720	1	19
415.891	1	10
416.062	1	21
416.232	1	16
416.403	1	20
416.573	1	18
416.744	1	15
416.915	1	19
417.085	1	17
417.256	1	18
417.427	1	22
417.597	1	12
417.768	1	9
417.939	1	21
418.109	1	23
418.280	1	16
418.450	1	14
418.621	1	20
418.792	1	14
418.962	1	19
419.133	1	15
419.304	1	16
419.474	1	19
419.645	1	22
419.815	1	18
419.986	1	24
420.157	1	19
420.327	1	17
420.498	1	14
420.669	1	18
420.839	1	10
421.010	1	11
421.180	1	14
421.351	1	29
421.522	1	24
421.692	1	25
421.863	1	8
422.033	1	17
422.204	1	29
422.375	1	16
422.545	1	9
422.716	1	23
422.886	1	17
423.057	1	32
423.228	1	14
423.398	1	26
423.569	1	20
423.740	1	10
423.910	1	21
424.081	1	9
424.251	1	22
424.422	1	12
424.593	1	23
424.763	1	14
424.934	1	11
425.104	1	11
425.275	1	26
425.445	1	17
425.616	1	19
425.787	1	23
425.957	1	14
426.128	1	14
426.298	1	16
426.469	1	20
426.640	1	12
426.810	1	19
426.981	1	17
427.151	1	18
427.322	1	12
427.493	1	13
427.663	1	19
427.834	1	16
428.004	1	21
428.175	1	8
428.345	1	14
428.516	1	25
428.687	1	20
428.857	1	22
429.028	1	9
429.198	1	6
429.369	1	7
429.540	1	17
429.710	1	27
429.881	1	23
430.051	1	19
430.222	1	29
430.392	1	22
430.563	1	25
430.734	1	18
430.904	1	20
431.075	1	14
431.245	1	21
431.416	1	24
431.586	1	12
431.757	1	31
431.927	1	30
432.098	1	22
432.269	1	20
432.439	1	11
432.610	1	11
432.780	1	4
432.951	1	27
433.121	1	19
433.292	1	18
433.462	1	19
433.633	1	19
433.804	1	15
433.974	1	20
434.145	1	18
434.315	1	12
434.486	1	23
434.656	1	21
434.827	1	20
434.997	1	11
435.168	1	20
435.339	1	18
435.509	1	24
435.680	1	17
435.850	1	16
436.021	1	18
436.191	1	27
436.362	1	19
436.532	1	23
436.703	1	24
436.873	1	21
437.044	1	25
437.214	1	13
437.385	1	24
437.556	1	7
437.726	1	19
437.897	1	7
438.067	1	22
438.238	1	25
438.408	1	20
438.579	1	25
438.749	1	11
438.920	1	5
439.090	1	19
439.261	1	21
439.431	1	30
439.602	1	18
439.772	1	28
439.943	1	21
440.113	1	18
440.284	1	36
440.455	1	30
440.625	1	23
440.796	1	31
440.966	1	24
441.137	1	15
441.307	1	30
441.478	1	9
441.648	1	14
441.819	1	14
441.989	1	16
442.160	1	28
442.330	1	15
442.501	1	22
442.671	1	16
442.842	1	30
443.012	1	5
443.183	1	6
443.353	1	19
443.524	1	20
443.694	1	25
443.865	1	20
444.035	1	9
444.206	1	15
444.376	1	25
444.547	1	17
444.717	1	18
444.888	1	17
445.058	1	2
445.229	1	17
445.399	1	16
445.570	1	16
445.740	1	18
445.911	1	11
446.081	1	22
446.252	1	20
446.422	1	2
446.593	1	17
446.763	1	29
446.934	1	31
447.104	1	5
447.275	1	31
447.445	1	12
447.616	1	19
447.786	1	21
447.957	1	20
448.127	1	19
448.298	1	11
448.468	1	29
448.639	1	21
448.809	1	16
448.979	1	21
449.150	1	14
449.320	1	20
449.491	1	16
449.661	1	29
449.832	1	20
450.002	1	22
450.173	1	21
450.343	1	14
450.514	1	16
450.684	1	1
450.855	1	20
451.025	1	8
451.196	1	19
451.366	1	32
451.537	1	10
451.707	1	20
451.878	1	18
452.048	1	23
452.218	1	9
452.389	1	16
452.559	1	16
452.730	1	19
452.900	1	10
453.071	1	4
453.241	1	22
453.412	1	15
453.582	1	18
453.753	1	18
453.923	1	28
454.093	1	29
454.264	1	16
454.434	1	13
454.605	1	7
454.775	1	7
454.946	1	6
455.116	1	12
455.287	1	24
455.457	1	21
455.628	1	21
455.798	1	9
455.968	1	19
456.139	1	12
456.309	1	20
456.480	1	5
456.650	1	25
456.821	1	11
456.991	1	30
457.161	1	14
457.332	1	10
457.502	1	6
457.673	1	13
457.843	1	10
458.014	1	19
458.184	1	24
458.355	1	26
458.525	1	15
458.695	1	20
458.866	1	29
459.036	1	17
459.207	1	13
459.377	1	21
459.548	1	11
459.718	1	13
459.888	1	28
460.059	1	16
460.229	1	16
460.400	1	13
460.570	1	13
460.740	1	8
460.911	1	12
461.081	1	9
461.252	1	15
461.422	1	21
461.593	1	26
461.763	1	11
461.933	1	18
462.104	1	13
462.274	1	5
462.445	1	14
462.615	1	18
462.785	1	22
462.956	1	18
463.126	1	27
463.297	1	14
463.467	1	12
463.638	1	18
463.808	1	14
463.978	1	12
464.149	1	10
464.319	1	4
464.490	1	19
464.660	1	19
464.830	1	20
465.001	1	20
465.171	1	23
465.342	1	26
465.512	1	22
465.682	1	14
465.853	1	22
466.023	1	17
466.194	1	25
466.364	1	5
466.534	1	14
466.705	1	12
466.875	1	15
467.045	1	20
467.216	1	22
467.386	1	27
467.557	1	19
467.727	1	10
467.897	1	14
468.068	1	24
468.238	1	16
468.409	1	15
468.579	1	13
468.749	1	18
468.920	1	15
469.090	1	15
469.260	1	18
469.431	1	0
469.601	1	12
469.772	1	21
469.942	1	18
470.112	1	9
470.283	1	18
470.453	1	23
470.623	1	4
470.794	1	10
470.964	1	16
471.135	1	33
471.305	1	21
471.475	1	14
471.646	1	16
471.816	1	21
471.986	1	17
472.157	1	20
472.327	1	29
472.497	1	22
472.668	1	13
472.838	1	19
473.009	1	11
473.179	1	28
473.349	1	14
473.520	1	10
473.690	1	22
473.860	1	8
474.031	1	7
474.201	1	4
474.371	1	16
474.542	1	6
474.712	1	27
474.882	1	11
475.053	1	10
475.223	1	11
475.394	1	14
475.564	1	17
475.734	1	19
475.905	1	8
476.075	1	21
476.245	1	10
476.416	1	18
476.586	1	10
476.756	1	6
476.927	1	-1
477.097	1	22
477.267	1	21
477.438	1	6
477.608	1	2
477.778	1	10
477.949	1	15
478.119	1	8
478.289	1	13
478.460	1	20
478.630	1	15
478.800	1	14
478.971	1	14
479.141	1	24
479.311	1	10
479.482	1	14
479.652	1	6
479.822	1	13
479.993	1	14
480.163	1	14
480.333	1	11
480.504	1	3
480.674	1	20
480.844	1	23
481.015	1	14
481.185	1	6
481.355	1	26
481.525	1	9
481.696	1	13
481.866	1	10
482.036	1	10
482.207	1	16
482.377	1	8
482.547	1	19
482.718	1	18
482.888	1	19
483.058	1	10
483.229	1	10
483.399	1	7
483.569	1	13
483.740	1	21
483.910	1	20
484.080	1	19
484.250	1	17
484.421	1	12
484.591	1	12
484.761	1	24
484.932	1	7
485.102	1	7
485.272	1	20
485.443	1	10
485.613	1	16
485.783	1	5
485.953	1	13
486.124	1	8
486.294	1	31
486.464	1	13
486.635	1	9
486.805	1	15
486.975	1	2
487.146	1	6
487.316	1	8
487.486	1	18
487.656	1	18
487.827	1	14
487.997	1	23
488.167	1	15
488.338	1	27
488.508	1	18
488.678	1	10
488.848	1	9
489.019	1	5
489.189	1	9
489.359	1	20
489.529	1	14
489.700	1	14
489.870	1	18
490.040	1	19
490.211	1	14
490.381	1	10
490.551	1	10
490.721	1	10
490.892	1	13
491.062	1	10
491.232	1	2
491.402	1	26
491.573	1	20
491.743	1	14
491.913	1	25
492.084	1	7
492.254	1	6
492.424	1	0
492.594	1	3
492.765	1	16
492.935	1	9
493.105	1	30
493.275	1	17
493.446	1	15
493.616	1	16
493.786	1	5
493.956	1	14
494.127	1	11
494.297	1	17
494.467	1	4
494.637	1	15
494.808	1	19
494.978	1	10
495.148	1	19
495.318	1	18
495.489	1	13
495.659	1	18
495.829	1	6
495.999	1	1
496.170	1	17
496.340	1	10
496.510	1	16
496.680	1	14
496.851	1	13
497.021	1	11
497.191	1	18
497.361	1	18
497.532	1	27
497.702	1	5
497.872	1	14
498.042	1	18
498.213	1	5
498.383	1	9
498.553	1	17
498.723	1	11
498.894	1	13
499.064	1	17
499.234	1	18
499.404	1	5
499.574	1	5
499.745	1	14
499.915	1	16
500.085	1	12
500.255	1	19
500.426	1	12
500.596	1	21
500.766	1	18
500.936	1	0
501.106	1	6
501.277	1	7
501.447	1	12
501.617	1	16
501.787	1	15
501.958	1	20
502.128	1	11
502.298	1	12
502.468	1	24
502.638	1	12
502.809	1	12
502.979	1	16
503.149	1	21
503.319	1	-3
503.489	1	17
503.660	1	4
503.830	1	19
504.000	1	14
504.170	1	23
504.340	1	11
504.511	1	10
504.681	1	4
504.851	1	19
505.021	1	4
505.192	1	20
505.362	1	7
505.532	1	7
505.702	1	6
505.872	1	21
506.043	1	17
506.213	1	9
506.383	1	7
506.553	1	22
506.723	1	0
506.893	1	0
507.064	1	12
507.234	1	-2
507.404	1	8
507.574	1	20
507.744	1	23
507.915	1	8
508.085	1	9
508.255	1	10
508.425	1	-1
508.595	1	11
508.766	1	7
508.936	1	2
509.106	1	17
509.276	1	14
509.446	1	9
509.616	1	16
509.787	1	5
509.957	1	16
510.127	1	2
510.297	1	-4
510.467	1	15
510.638	1	13
510.808	1	8
510.978	1	16
511.148	1	14
511.318	1	5
511.488	1	15
511.659	1	3
511.829	1	10
511.999	1	16
512.169	1	16
512.339	1	9
512.509	1	15
512.680	1	7
512.850	1	15
513.020	1	3
513.190	1	5
513.360	1	15
513.530	1	13
513.700	1	11
513.871	1	7
514.041	1	11
514.211	1	5
514.381	1	5
514.551	1	15
514.721	1	12
514.892	1	3
515.062	1	14
515.232	1	-2
515.402	1	-1
515.572	1	16
515.742	1	14
515.912	1	13
516.083	1	14
516.253	1	16
516.423	1	9
516.593	1	10
516.763	1	0
516.933	1	3
517.104	1	14
517.274	1	6
517.444	1	14
517.614	1	13
517.784	1	4
517.954	1	6
518.124	1	4
518.294	1	14
518.465	1	10
518.635	1	16
518.805	1	10
518.975	1	-2
519.145	1	13
519.315	1	8
519.485	1	5
519.656	1	12
519.826	1	12
519.996	1	6
520.166	1	5
520.336	1	10
520.506	1	-1
520.676	1	13
520.846	1	10
521.017	1	9
521.187	1	1
521.357	1	5
521.527	1	22
521.697	1	7
521.867	1	25
522.037	1	10
522.207	1	4
522.377	1	10
522.548	1	-3
522.718	1	5
522.888	1	2
523.058	1	20
523.228	1	10
523.398	1	8
523.568	1	15
523.738	1	11
523.909	1	3
524.079	1	1
524.249	1	4
524.419	1	13
524.589	1	10
524.759	1	14
524.929	1	4
525.099	1	15
525.269	1	18
525.439	1	3
525.610	1	9
525.780	1	11
525.950	1	12
526.120	1	-2
526.290	1	1
526.460	1	17
526.630	1	10
526.800	1	4
526.970	1	6
527.140	1	7
527.311	1	6
527.481	1	-6
527.651	1	5
527.821	1	12
527.991	1	8
528.161	1	4
528.331	1	11
528.501	1	5
528.671	1	4
528.841	1	7
529.011	1	11
529.181	1	8
529.352	1	16
529.522	1	2
529.692	1	-5
529.862	1	-1
530.032	1	13
530.202	1	6
530.372	1	2
530.542	1	13
530.712	1	19
530.882	1	3
531.052	1	8
531.222	1	3
531.392	1	2
531.563	1	1
531.733	1	2
531.903	1	15
532.073	1	3
532.243	1	16
532.413	1	-1
532.583	1	5
532.753	1	12
532.923	1	2
533.093	1	19
533.263	1	10
533.433	1	11
533.603	1	3
533.773	1	4
533.943	1	8
534.113	1	9
534.284	1	-1
534.454	1	-4
534.624	1	9
534.794	1	2
534.964	1	9
535.134	1	12
535.304	1	1
535.474	1	8
535.644	1	14
535.814	1	-1
535.984	1	-3
536.154	1	13
536.324	1	-3
536.494	1	19
536.664	1	8
536.834	1	11
537.004	1	-3
537.174	1	12
537.344	1	12
537.514	1	12
537.685	1	11
537.855	1	18
538.025	1	8
538.195	1	5
538.365	1	9
538.535	1	1
538.705	1	-4
538.875	1	13
539.045	1	21
539.215	1	4
539.385	1	-6
539.555	1	5
539.725	1	10
539.895	1	3
540.065	1	3
540.235	1	9
540.405	1	6
540.575	1	0
540.745	1	13
540.915	1	-4
541.085	1	10
541.255	1	-6
541.425	1	2
541.595	1	18
541.765	1	4
541.935	1	5
542.105	1	14
542.275	1	1
542.445	1	9
542.615	1	12
542.785	1	-3
542.955	1	4
543.125	1	8
543.295	1	3
543.465	1	14
543.635	1	6
543.805	1	1
543.975	1	10
544.145	1	1
544.315	1	7
544.485	1	13
544.655	1	4
544.825	1	4
544.995	1	-1
545.165	1	8
545.335	1	6
545.505	1	5
545.675	1	5
545.845	1	-3
546.015	1	-2
546.185	1	5
546.355	1	11
546.525	1	-5
546.695	1	6
546.865	1	-7
547.035	1	12
547.205	1	11
547.375	1	-3
547.545	1	11
547.715	1	8
547.885	1	7
548.055	1	4
548.225	1	-9
548.395	1	14
548.565	1	6
548.735	1	15
548.905	1	-1
549.075	1	0
549.245	1	8
549.415	1	7
549.585	1	1
549.755	1	4
549.925	1	7
550.095	1	19
550.265	1	4
550.435	1	13
550.605	1	4
550.775	1	16
550.945	1	3
551.115	1	10
551.285	1	10
551.455	1	8
551.625	1	6
551.795	1	6
551.965	1	9
552.135	1	24
552.305	1	-4
552.475	1	10
552.645	1	7
552.815	1	10
552.985	1	7
553.155	1	7
553.325	1	9
553.495	1	6
553.665	1	-3
553.835	1	9
554.004	1	9
554.174	1	5
554.344	1	-2
554.514	1	-6
554.684	1	6
554.854	1	-1
555.024	1	12
555.194	1	7
555.364	1	13
555.534	1	13
555.704	1	6
555.874	1	9
556.044	1	18
556.214	1	-7
556.384	1	8
556.554	1	18
556.724	1	6
556.894	1	1
557.064	1	12
557.234	1	10
557.404	1	12
557.573	1	-3
557.743	1	3
557.913	1	8
558.083	1	-2
558.253	1	6
558.423	1	11
558.593	1	8
558.763	1	10
558.933	1	20
559.103	1	0
559.273	1	12
559.443	1	9
559.613	1	8
559.783	1	4
559.953	1	14
560.122	1	1
560.292	1	2
560.462	1	-1
560.632	1	6
560.802	1	10
560.972	1	-1
561.142	1	-9
561.312	1	0
561.482	1	13
561.652	1	0
561.822	1	7
561.992	1	-3
562.162	1	-1
562.331	1	2
562.501	1	3
562.671	1	2
562.841	1	0
563.011	1	-3
563.181	1	0
563.351	1	3
563.521	1	6
563.691	1	-4
563.861	1	15
564.031	1	15
564.201	1	17
564.370	1	4
564.540	1	6
564.710	1	-5
564.880	1	-1
565.050	1	5
565.220	1	0
565.390	1	10
565.560	1	-1
565.730	1	5
565.900	1	10
566.069	1	2
566.239	1	11
566.409	1	0
566.579	1	12
566.749	1	6
566.919	1	10
567.089	1	14
567.259	1	0
567.429	1	0
567.599	1	7
567.768	1	16
567.938	1	12
568.108	1	4
568.278	1	4
568.448	1	5
568.618	1	-3
568.788	1	5
568.958	1	6
569.128	1	7
569.297	1	-1
569.467	1	7
569.637	1	-6
569.807	1	1
569.977	1	7
570.147	1	7
570.317	1	-6
570.487	1	-2
570.656	1	0
570.826	1	-1
570.996	1	2
571.166	1	11
571.336	1	12
571.506	1	11
571.676	1	-1
571.846	1	13
572.015	1	1
572.185	1	4
572.355	1	-6
572.525	1	2
572.695	1	1
572.865	1	-3
573.035	1	13
573.205	1	7
573.374	1	18
573.544	1	7
573.714	1	13
573.884	1	11
574.054	1	16
574.224	1	-4
574.394	1	11
574.563	1	9
574.733	1	6
574.903	1	3
575.073	1	9
575.243	1	-4
575.413	1	7
575.583	1	4
575.752	1	6
575.922	1	-3
576.092	1	0
576.262	1	4
576.432	1	1
576.602	1	3
576.772	1	0
576.941	1	10
577.111	1	9
577.281	1	1
577.451	1	-1
577.621	1	10
577.791	1	8
577.960	1	11
578.130	1	-3
578.300	1	-10
578.470	1	12
578.640	1	4
578.810	1	4
578.979	1	7
579.149	1	-1
579.319	1	4
579.489	1	8
579.659	1	10
579.829	1	-2
579.998	1	12
580.168	1	9
580.338	1	6
580.508	1	9
580.678	1	11
580.848	1	2
581.017	1	11
581.187	1	1
581.357	1	-5
581.527	1	-2
581.697	1	6
581.867	1	5
582.036	1	2
582.206	1	15
582.376	1	8
582.546	1	4
582.716	1	-4
582.885	1	-7
583.055	1	6
583.225	1	11
583.395	1	8
583.565	1	9
583.735	1	9
583.904	1	7
584.074	1	3
584.244	1	11
584.414	1	-3
584.584	1	3
584.753	1	2
584.923	1	-5
585.093	1	0
585.263	1	9
585.433	1	-3
585.602	1	12
585.772	1	-1
585.942	1	9
586.112	1	6
586.282	1	7
586.451	1	6
586.621	1	5
586.791	1	-1
586.961	1	14
587.131	1	0
587.300	1	0
587.470	1	9
587.640	1	3
587.810	1	3
587.980	1	-4
588.149	1	7
588.319	1	-5
588.489	1	9
588.659	1	2
588.829	1	-4
588.998	1	23
589.168	1	4
589.338	1	6
589.508	1	5
589.677	1	11
589.847	1	2
590.017	1	15
590.187	1	-1
590.357	1	4
590.526	1	16
590.696	1	17
590.866	1	20
591.036	1	-9
591.205	1	-2
591.375	1	2
591.545	1	8
591.715	1	3
591.885	1	8
592.054	1	14
592.224	1	11
592.394	1	5
592.564	1	3
592.733	1	9
592.903	1	-9
593.073	1	2
593.243	1	-2
593.412	1	7
593.582	1	8
593.752	1	3
593.922	1	5
594.091	1	6
594.261	1	5
594.431	1	3
594.601	1	5
594.771	1	4
594.940	1	-2
595.110	1	14
595.280	1	-3
595.450	1	0
595.619	1	6
595.789	1	9
595.959	1	9
596.129	1	3
596.298	1	11
596.468	1	-6
596.638	1	-7
596.808	1	0
596.977	1	-3
597.147	1	2
597.317	1	13
597.487	1	15
597.656	1	10
597.826	1	-5
597.996	1	9
598.166	1	17
598.335	1	-5
598.505	1	4
598.675	1	8
598.844	1	0
599.014	1	14
599.184	1	3
599.354	1	15
599.523	1	11
599.693	1	9
599.863	1	6
600.033	1	12
600.202	1	3
600.372	1	8
600.542	1	-2
600.712	1	4
600.881	1	-5
601.051	1	1
601.221	1	4
601.390	1	19
601.560	1	14
601.730	1	9
601.900	1	22
602.069	1	0
602.239	1	3
602.409	1	3
602.578	1	3
602.748	1	3
602.918	1	-2
603.088	1	8
603.257	1	8
603.427	1	19
603.597	1	14
603.767	1	11
603.936	1	4
604.106	1	15
604.276	1	1
604.445	1	11
604.615	1	0
604.785	1	-6
604.954	1	3
605.124	1	8
605.294	1	9
605.464	1	11
605.633	1	-3
605.803	1	8
605.973	1	-1
606.142	1	-2
606.312	1	0
606.482	1	-1
606.652	1	3
606.821	1	12
606.991	1	17
607.161	1	2
607.330	1	-5
607.500	1	16
607.670	1	12
607.839	1	2
608.009	1	2
608.179	1	5
608.348	1	8
608.518	1	-1
608.688	1	12
608.858	1	2
609.027	1	15
609.197	1	-2
609.367	1	4
609.536	1	-6
609.706	1	5
609.876	1	-1
610.045	1	11
610.215	1	-1
610.385	1	4
610.554	1	4
610.724	1	3
610.894	1	13
611.063	1	4
611.233	1	-1
611.403	1	16
611.572	1	6
611.742	1	2
611.912	1	7
612.081	1	-1
612.251	1	5
612.421	1	9
612.590	1	0
612.760	1	9
612.930	1	6
613.099	1	8
613.269	1	2
613.439	1	2
613.608	1	7
613.778	1	15
613.948	1	-1
614.117	1	2
614.287	1	-2
614.457	1	3
614.626	1	3
614.796	1	10
614.966	1	-2
615.135	1	11
615.305	1	-3
615.475	1	12
615.644	1	0
615.814	1	5
615.984	1	15
616.153	1	5
616.323	1	14
616.493	1	2
616.662	1	11
616.832	1	10
617.002	1	-1
617.171	1	12
617.341	1	-1
617.511	1	3
617.680	1	3
617.850	1	6
618.019	1	-5
618.189	1	2
618.359	1	0
618.528	1	5
618.698	1	9
618.868	1	6
619.037	1	-2
619.207	1	0
619.377	1	-1
619.546	1	4
619.716	1	7
619.885	1	-3
620.055	1	-2
620.225	1	6
620.394	1	8
620.564	1	0
620.734	1	-3
620.903	1	18
621.073	1	10
621.242	1	3
621.412	1	13
621.582	1	-4
621.751	1	-6
621.921	1	4
622.091	1	10
622.260	1	-1
622.430	1	13
622.599	1	14
622.769	1	1
622.939	1	2
623.108	1	5
623.278	1	5
623.448	1	-10
623.617	1	1
623.787	1	-2
623.956	1	11
624.126	1	-5
624.296	1	12
624.465	1	19
624.635	1	15
624.804	1	9
624.974	1	9
625.144	1	3
625.313	1	6
625.483	1	6
625.652	1	3
625.822	1	-1
625.992	1	12
626.161	1	2
626.331	1	0
626.501	1	14
626.670	1	5
626.840	1	1
627.009	1	10
627.179	1	-7
627.348	1	5
627.518	1	-5
627.688	1	12
627.857	1	12
628.027	1	16
628.196	1	11
628.366	1	6
628.536	1	4
628.705	1	-7
628.875	1	9
629.044	1	-1
629.214	1	3
629.384	1	3
629.553	1	6
629.723	1	2
629.892	1	12
630.062	1	-2
630.232	1	2
630.401	1	0
630.571	1	18
630.740	1	2
630.910	1	-1
631.079	1	2
631.249	1	-4
631.419	1	21
631.588	1	2
631.758	1	16
631.927	1	2
632.097	1	-2
632.266	1	4
632.436	1	2
632.606	1	3
632.775	1	0
632.945	1	2
633.114	1	7
633.284	1	-4
633.453	1	5
633.623	1	8
633.793	1	9
633.962	1	-5
634.132	1	6
634.301	1	4
634.471	1	11
634.640	1	12
634.810	1	-10
634.979	1	-1
635.149	1	8
635.319	1	10
635.488	1	5
635.658	1	15
635.827	1	3
635.997	1	19
636.166	1	-6
636.336	1	7
636.505	1	0
636.675	1	7
636.845	1	-2
637.014	1	5
637.184	1	4
637.353	1	9
637.523	1	12
637.692	1	15
637.862	1	7
638.031	1	4
638.201	1	-3
638.370	1	1
638.540	1	-5
638.710	1	6
638.879	1	9
639.049	1	1
639.218	1	3
639.388	1	9
639.557	1	6
639.727	1	7
639.896	1	0
640.066	1	6
640.235	1	2
640.405	1	8
640.574	1	8
640.744	1	13
640.914	1	-3
641.083	1	9
641.253	1	8
641.422	1	-5
641.592	1	14
641.761	1	2
641.931	1	7
642.100	1	1
642.270	1	5
642.439	1	10
642.609	1	-3
642.778	1	1
642.948	1	5
643.117	1	4
643.287	1	-2
643.456	1	15
643.626	1	10
643.795	1	12
643.965	1	9
644.134	1	2
644.304	1	4
644.473	1	11
644.643	1	5
644.812	1	3
644.982	1	-6
645.151	1	13
645.321	1	-3
645.490	1	7
645.660	1	6
645.829	1	-3
645.999	1	5
646.168	1	8
646.338	1	18
646.507	1	0
646.677	1	7
646.846	1	9
647.016	1	11
647.185	1	11
647.355	1	11
647.524	1	2
647.694	1	0
647.863	1	3
648.033	1	-1
648.202	1	12
648.372	1	13
648.541	1	1
648.711	1	8
648.880	1	12
649.050	1	4
649.219	1	14
649.389	1	5
649.558	1	9
649.728	1	5
649.897	1	5
650.067	1	7
650.236	1	10
650.406	1	11
650.575	1	-2
650.745	1	20
650.914	1	3
651.084	1	1
651.253	1	7
651.423	1	7
651.592	1	12
651.762	1	4
651.931	1	9
652.101	1	9
652.270	1	-6
652.440	1	2
652.609	1	-6
652.778	1	13
652.948	1	-3
653.117	1	10
653.287	1	-11
653.456	1	-2
653.626	1	1
653.795	1	6
653.965	1	6
654.134	1	7
654.304	1	10
654.473	1	2
654.643	1	-12
654.812	1	17
654.982	1	9
655.151	1	7
655.320	1	6
655.490	1	-5
655.659	1	9
655.829	1	1
655.998	1	2
656.168	1	7
656.337	1	10
656.507	1	3
656.676	1	2
656.846	1	9
657.015	1	1
657.184	1	-3
657.354	1	4
657.523	1	5
657.693	1	1
657.862	1	0
658.032	1	11
658.201	1	8
658.371	1	11
658.540	1	5
658.709	1	0
658.879	1	10
659.048	1	5
659.218	1	-7
659.387	1	-5
659.557	1	10
659.726	1	1
659.895	1	7
660.065	1	-4
660.234	1	2
660.404	1	5
660.573	1	-3
660.743	1	1
660.912	1	1
661.081	1	13
661.251	1	2
661.420	1	7
661.590	1	6
661.759	1	1
661.929	1	4
662.098	1	0
662.267	1	0
662.437	1	4
662.606	1	1
662.776	1	5
662.945	1	9
663.115	1	2
663.284	1	2
663.453	1	-8
663.623	1	1
663.792	1	3
663.962	1	-3
664.131	1	12
664.300	1	15
664.470	1	20
664.639	1	9
664.809	1	-3
664.978	1	4
665.148	1	0
665.317	1	7
665.486	1	13
665.656	1	-4
665.825	1	5
665.995	1	0
666.164	1	9
666.333	1	8
666.503	1	16
666.672	1	8
666.842	1	7
667.011	1	6
667.180	1	1
667.350	1	15
667.519	1	2
667.689	1	15
667.858	1	4
668.027	1	1
668.197	1	13
668.366	1	15
668.536	1	11
668.705	1	4
668.874	1	-6
669.044	1	4
669.213	1	1
669.382	1	2
669.552	1	4
669.721	1	14
669.891	1	6
670.060	1	12
670.229	1	5
670.399	1	11
670.568	1	4
670.738	1	8
670.907	1	7
671.076	1	4
671.246	1	5
671.415	1	-2
671.584	1	12
671.754	1	6
671.923	1	6
672.093	1	10
672.262	1	1
672.431	1	15
672.601	1	5
672.770	1	5
672.939	1	10
673.109	1	3
673.278	1	2
673.448	1	7
673.617	1	10
673.786	1	10
