325.333	1	7
325.504	1	4
325.675	1	2
325.846	1	-11
326.017	1	14
326.188	1	3
326.359	1	-4
326.531	1	1
326.702	1	9
326.873	1	6
327.044	1	-5
327.215	1	8
327.386	1	-4
327.557	1	-5
327.728	1	-4
327.899	1	0
328.070	1	17
328.241	1	7
328.412	1	-2
328.583	1	-8
328.754	1	2
328.926	1	8
329.097	1	5
329.268	1	-6
329.439	1	4
329.610	1	7
329.781	1	12
329.952	1	-2
330.123	1	-6
330.294	1	6
330.465	1	8
330.636	1	3
330.807	1	1
330.978	1	11
331.149	1	9
331.320	1	-3
331.492	1	16
331.663	1	11
331.834	1	3
332.005	1	16
332.176	1	12
332.347	1	0
332.518	1	16
332.689	1	1
332.860	1	0
333.031	1	7
333.202	1	8
333.373	1	8
333.544	1	6
333.715	1	-1
333.886	1	3
334.057	1	3
334.228	1	9
334.399	1	-8
334.570	1	10
334.741	1	-5
334.912	1	10
335.084	1	-1
335.255	1	19
335.426	1	7
335.597	1	9
335.768	1	12
335.939	1	5
336.110	1	6
336.281	1	5
336.452	1	10
336.623	1	6
336.794	1	5
336.965	1	5
337.136	1	1
337.307	1	7
337.478	1	2
337.649	1	-4
337.820	1	22
337.991	1	13
338.162	1	10
338.333	1	-1
338.504	1	14
338.675	1	9
338.846	1	15
339.017	1	-3
339.188	1	4
339.359	1	7
339.530	1	6
339.701	1	8
339.872	1	5
340.043	1	8
340.214	1	5
340.385	1	1
340.556	1	-3
340.727	1	5
340.898	1	-1
341.069	1	11
341.240	1	3
341.411	1	10
341.582	1	6
341.753	1	7
341.924	1	-1
342.095	1	13
342.266	1	-2
342.437	1	19
342.608	1	8
342.779	1	6
342.950	1	0
343.121	1	6
343.292	1	12
343.463	1	3
343.634	1	15
343.805	1	-4
343.976	1	6
344.147	1	8
344.318	1	12
344.489	1	3
344.660	1	11
344.831	1	16
345.002	1	15
345.173	1	12
345.344	1	5
345.515	1	2
345.686	1	8
345.857	1	17
346.028	1	17
346.199	1	4
346.370	1	17
346.541	1	7
346.712	1	7
346.883	1	3
347.054	1	12
347.225	1	-4
347.396	1	7
347.567	1	9
347.738	1	3
347.909	1	-7
348.080	1	3
348.251	1	9
348.422	1	6
348.593	1	13
348.764	1	6
348.935	1	2
349.106	1	1
349.277	1	0
349.448	1	8
349.619	1	10
349.790	1	2
349.961	1	3
350.132	1	20
350.303	1	-4
350.474	1	10
350.645	1	14
350.816	1	7
350.987	1	4
351.157	1	6
351.328	1	7
351.499	1	10
351.670	1	11
351.841	1	22
352.012	1	8
352.183	1	19
352.354	1	13
352.525	1	11
352.696	1	7
352.867	1	1
353.038	1	8
353.209	1	11
353.380	1	15
353.551	1	11
353.722	1	7
353.893	1	12
354.064	1	18
354.235	1	11
354.406	1	10
354.576	1	4
354.747	1	22
354.918	1	9
355.089	1	12
355.260	1	7
355.431	1	2
355.602	1	11
355.773	1	1
355.944	1	14
356.115	1	21
356.286	1	9
356.457	1	13
356.628	1	14
356.799	1	2
356.970	1	8
357.141	1	10
357.311	1	18
357.482	1	11
357.653	1	5
357.824	1	7
357.995	1	13
358.166	1	10
358.337	1	16
358.508	1	1
358.679	1	10
358.850	1	7
359.021	1	-1
359.192	1	6
359.363	1	2
359.533	1	15
359.704	1	-3
359.875	1	5
360.046	1	5
360.217	1	13
360.388	1	2
360.559	1	30
360.730	1	1
360.901	1	15
361.072	1	11
361.243	1	6
361.414	1	3
361.584	1	-2
361.755	1	12
361.926	1	11
362.097	1	11
362.268	1	7
362.439	1	2
362.610	1	10
362.781	1	8
362.952	1	9
363.123	1	2
363.293	1	17
363.464	1	16
363.635	1	14
363.806	1	7
363.977	1	8
364.148	1	2
364.319	1	21
364.490	1	8
364.661	1	12
364.832	1	9
365.002	1	7
365.173	1	6
365.344	1	15
365.515	1	7
365.686	1	1
365.857	1	9
366.028	1	15
366.199	1	10
366.370	1	10
366.540	1	13
366.711	1	6
366.882	1	15
367.053	1	10
367.224	1	15
367.395	1	11
367.566	1	0
367.737	1	1
367.908	1	17
368.078	1	7
368.249	1	8
368.420	1	8
368.591	1	12
368.762	1	16
368.933	1	6
369.104	1	12
369.274	1	16
369.445	1	11
369.616	1	5
369.787	1	9
369.958	1	1
370.129	1	7
370.300	1	10
370.471	1	8
370.641	1	16
370.812	1	14
370.983	1	11
371.154	1	7
371.325	1	2
371.496	1	-1
371.667	1	2
371.837	1	7
372.008	1	10
372.179	1	5
372.350	1	4
372.521	1	8
372.692	1	15
372.863	1	17
373.033	1	9
373.204	1	-5
373.375	1	5
373.546	1	4
373.717	1	3
373.888	1	12
374.059	1	8
374.229	1	12
374.400	1	10
374.571	1	4
374.742	1	15
374.913	1	1
375.084	1	7
375.254	1	12
375.425	1	5
375.596	1	-6
375.767	1	18
375.938	1	18
376.109	1	19
376.279	1	2
376.450	1	12
376.621	1	19
376.792	1	20
376.963	1	-7
377.134	1	7
377.304	1	13
377.475	1	2
377.646	1	2
377.817	1	9
377.988	1	12
378.159	1	-1
378.329	1	4
378.500	1	14
378.671	1	9
378.842	1	19
379.013	1	8
379.184	1	-2
379.354	1	11
379.525	1	12
379.696	1	22
379.867	1	11
380.038	1	24
380.209	1	8
380.379	1	16
380.550	1	13
380.721	1	19
380.892	1	0
381.063	1	5
381.233	1	12
381.404	1	17
381.575	1	13
381.746	1	11
381.917	1	16
382.087	1	13
382.258	1	11
382.429	1	-5
382.600	1	15
382.771	1	12
382.941	1	14
383.112	1	1
383.283	1	14
383.454	1	11
383.625	1	9
383.795	1	25
383.966	1	15
384.137	1	14
384.308	1	15
384.479	1	15
384.649	1	16
384.820	1	10
384.991	1	17
385.162	1	18
385.333	1	15
385.503	1	-5
385.674	1	13
385.845	1	17
386.016	1	9
386.187	1	11
386.357	1	14
386.528	1	18
386.699	1	18
386.870	1	8
387.041	1	17
387.211	1	16
387.382	1	9
387.553	1	10
387.724	1	2
387.894	1	21
388.065	1	16
388.236	1	20
388.407	1	6
388.578	1	5
388.748	1	6
388.919	1	14
389.090	1	12
389.261	1	12
389.431	1	15
389.602	1	-1
389.773	1	14
389.944	1	21
390.114	1	17
390.285	1	18
390.456	1	12
390.627	1	22
390.798	1	17
390.968	1	4
391.139	1	17
391.310	1	23
391.481	1	12
391.651	1	11
391.822	1	24
391.993	1	22
392.164	1	6
392.334	1	13
392.505	1	10
392.676	1	19
392.847	1	14
393.017	1	15
393.188	1	15
393.359	1	6
393.530	1	22
393.700	1	18
393.871	1	18
394.042	1	3
394.213	1	15
394.383	1	24
394.554	1	12
394.725	1	8
394.896	1	15
395.066	1	23
395.237	1	11
395.408	1	5
395.579	1	12
395.749	1	11
395.920	1	9
396.091	1	12
396.262	1	17
396.432	1	12
396.603	1	11
396.774	1	-4
396.945	1	17
397.115	1	14
397.286	1	17
397.457	1	24
397.627	1	24
397.798	1	15
397.969	1	5
398.140	1	15
398.310	1	20
398.481	1	16
398.652	1	24
398.823	1	12
398.993	1	14
399.164	1	25
399.335	1	31
399.505	1	24
399.676	1	26
399.847	1	15
400.018	1	20
400.188	1	12
400.359	1	15
400.530	1	21
400.700	1	12
400.871	1	22
401.042	1	15
401.213	1	24
401.383	1	8
401.554	1	18
401.725	1	14
401.895	1	20
402.066	1	7
402.237	1	16
402.408	1	9
402.578	1	16
402.749	1	17
402.920	1	14
403.090	1	19
403.261	1	24
403.432	1	20
403.603	1	17
403.773	1	9
403.944	1	18
404.115	1	8
404.285	1	22
404.456	1	9
404.627	1	12
404.797	1	15
404.968	1	22
405.139	1	16
405.310	1	14
405.480	1	10
405.651	1	11
405.822	1	14
405.992	1	14
406.163	1	10
406.334	1	24
406.504	1	3
406.675	1	11
406.846	1	15
407.016	1	20
407.187	1	12
407.358	1	17
407.528	1	3
407.699	1	5
407.870	1	3
408.041	1	26
408.211	1	15
408.382	1	27
408.553	1	9
408.723	1	16
408.894	1	10
409.065	1	15
409.235	1	9
409.406	1	16
409.577	1	25
409.747	1	28
409.918	1	20
410.089	1	11
410.259	1	22
410.430	1	25
410.601	1	17
410.771	1	7
410.942	1	23
411.113	1	34
411.283	1	10
411.454	1	14
411.625	1	17
411.795	1	20
411.966	1	17
412.137	1	17
412.307	1	13
412.478	1	13
412.649	1	13
412.819	1	27
412.990	1	16
413.161	1	18
413.331	1	21
413.502	1	19
413.672	1	12
413.843	1	7
414.014	1	26
414.184	1	20
414.355	1	17
414.526	1	11
414.696	1	16
414.867	1	11
415.038	1	18
415.208	1	11
415.379	1	-1
415.550	1	10
415.720	1	19
415.891	1	15
416.062	1	23
416.232	1	9
416.403	1	20
416.573	1	22
416.744	1	15
416.915	1	12
417.085	1	20
417.256	1	28
417.427	1	13
417.597	1	21
417.768	1	26
417.939	1	15
418.109	1	8
418.280	1	21
418.450	1	16
418.621	1	11
418.792	1	15
418.962	1	11
419.133	1	12
419.304	1	16
419.474	1	20
419.645	1	12
419.815	1	19
419.986	1	12
420.157	1	17
420.327	1	9
420.498	1	11
420.669	1	20
420.839	1	19
421.010	1	15
421.180	1	24
421.351	1	26
421.522	1	16
421.692	1	21
421.863	1	10
422.033	1	18
422.204	1	12
422.375	1	11
422.545	1	6
422.716	1	26
422.886	1	12
423.057	1	24
423.228	1	18
423.398	1	13
423.569	1	14
423.740	1	18
423.910	1	22
424.081	1	22
424.251	1	16
424.422	1	15
424.593	1	20
424.763	1	15
424.934	1	16
425.104	1	11
425.275	1	20
425.445	1	18
425.616	1	23
425.787	1	11
425.957	1	12
426.128	1	12
426.298	1	13
426.469	1	22
426.640	1	4
426.810	1	20
426.981	1	10
427.151	1	21
427.322	1	22
427.493	1	9
427.663	1	13
427.834	1	8
428.004	1	26
428.175	1	4
428.345	1	13
428.516	1	10
428.687	1	22
428.857	1	19
429.028	1	8
429.198	1	7
429.369	1	10
429.540	1	10
429.710	1	19
429.881	1	22
430.051	1	14
430.222	1	18
430.392	1	20
430.563	1	18
430.734	1	21
430.904	1	13
431.075	1	14
431.245	1	5
431.416	1	13
431.586	1	15
431.757	1	27
431.927	1	17
432.098	1	23
432.269	1	18
432.439	1	7
432.610	1	10
432.780	1	10
432.951	1	32
433.121	1	6
433.292	1	13
433.462	1	20
433.633	1	19
433.804	1	16
433.974	1	14
434.145	1	3
434.315	1	10
434.486	1	16
434.656	1	11
434.827	1	13
434.997	1	13
435.168	1	19
435.339	1	18
435.509	1	22
435.680	1	16
435.850	1	14
436.021	1	10
436.191	1	17
436.362	1	16
436.532	1	24
436.703	1	21
436.873	1	19
437.044	1	24
437.214	1	3
437.385	1	20
437.556	1	1
437.726	1	13
437.897	1	4
438.067	1	15
438.238	1	22
438.408	1	15
438.579	1	18
438.749	1	11
438.920	1	13
439.090	1	6
439.261	1	22
439.431	1	11
439.602	1	21
439.772	1	22
439.943	1	7
440.113	1	20
440.284	1	26
440.455	1	24
440.625	1	15
440.796	1	18
440.966	1	20
441.137	1	17
441.307	1	27
441.478	1	15
441.648	1	13
441.819	1	10
441.989	1	24
442.160	1	22
442.330	1	5
442.501	1	15
442.671	1	20
442.842	1	12
443.012	1	8
443.183	1	13
443.353	1	14
443.524	1	23
443.694	1	23
443.865	1	18
444.035	1	7
444.206	1	20
444.376	1	15
444.547	1	15
444.717	1	17
444.888	1	15
445.058	1	8
445.229	1	16
445.399	1	13
445.570	1	17
445.740	1	25
445.911	1	2
446.081	1	12
446.252	1	9
446.422	1	10
446.593	1	18
446.763	1	19
446.934	1	30
447.104	1	8
447.275	1	17
447.445	1	9
447.616	1	14
447.786	1	13
447.957	1	15
448.127	1	17
448.298	1	12
448.468	1	19
448.639	1	9
448.809	1	10
448.979	1	19
449.150	1	27
449.320	1	11
449.491	1	10
449.661	1	17
449.832	1	20
450.002	1	7
450.173	1	17
450.343	1	15
450.514	1	5
450.684	1	6
450.855	1	17
451.025	1	20
451.196	1	14
451.366	1	14
451.537	1	16
451.707	1	20
451.878	1	15
452.048	1	12
452.218	1	10
452.389	1	16
452.559	1	14
452.730	1	15
452.900	1	16
453.071	1	11
453.241	1	11
453.412	1	14
453.582	1	10
453.753	1	13
453.923	1	14
454.093	1	18
454.264	1	29
454.434	1	14
454.605	1	4
454.775	1	11
454.946	1	10
455.116	1	13
455.287	1	26
455.457	1	26
455.628	1	17
455.798	1	10
455.968	1	4
456.139	1	12
456.309	1	22
456.480	1	8
456.650	1	10
456.821	1	15
456.991	1	23
457.161	1	20
457.332	1	7
457.502	1	21
457.673	1	13
457.843	1	8
458.014	1	13
458.184	1	21
458.355	1	31
458.525	1	17
458.695	1	16
458.866	1	27
459.036	1	8
459.207	1	1
459.377	1	8
459.548	1	7
459.718	1	12
459.888	1	16
460.059	1	23
460.229	1	12
460.400	1	10
460.570	1	15
460.740	1	13
460.911	1	9
461.081	1	13
461.252	1	13
461.422	1	25
461.593	1	19
461.763	1	0
461.933	1	15
462.104	1	5
462.274	1	9
462.445	1	15
462.615	1	16
462.785	1	19
462.956	1	11
463.126	1	19
463.297	1	11
463.467	1	18
463.638	1	16
463.808	1	9
463.978	1	5
464.149	1	11
464.319	1	1
464.490	1	9
464.660	1	15
464.830	1	13
465.001	1	17
465.171	1	15
465.342	1	23
465.512	1	6
465.682	1	17
465.853	1	16
466.023	1	17
466.194	1	14
466.364	1	-2
466.534	1	16
466.705	1	13
466.875	1	8
467.045	1	9
467.216	1	20
467.386	1	17
467.557	1	18
467.727	1	14
467.897	1	9
468.068	1	21
468.238	1	14
468.409	1	6
468.579	1	18
468.749	1	17
468.920	1	13
469.090	1	8
469.260	1	13
469.431	1	4
469.601	1	12
469.772	1	12
469.942	1	7
470.112	1	16
470.283	1	13
470.453	1	7
470.623	1	7
470.794	1	9
470.964	1	14
471.135	1	23
471.305	1	28
471.475	1	17
471.646	1	8
471.816	1	17
471.986	1	13
472.157	1	9
472.327	1	14
472.497	1	21
472.668	1	11
472.838	1	7
473.009	1	13
473.179	1	11
473.349	1	21
473.520	1	-1
473.690	1	24
473.860	1	3
474.031	1	9
474.201	1	3
474.371	1	24
474.542	1	14
474.712	1	17
474.882	1	2
475.053	1	10
475.223	1	2
475.394	1	1
475.564	1	14
475.734	1	11
475.905	1	6
476.075	1	14
476.245	1	4
476.416	1	16
476.586	1	0
476.756	1	11
476.927	1	9
477.097	1	12
477.267	1	22
477.438	1	6
477.608	1	10
477.778	1	20
477.949	1	16
478.119	1	4
478.289	1	17
478.460	1	14
478.630	1	3
478.800	1	4
478.971	1	13
479.141	1	6
479.311	1	5
479.482	1	8
479.652	1	13
479.822	1	7
479.993	1	13
480.163	1	16
480.333	1	10
480.504	1	2
480.674	1	17
480.844	1	4
481.015	1	10
481.185	1	3
481.355	1	11
481.525	1	11
481.696	1	16
481.866	1	15
482.036	1	14
482.207	1	13
482.377	1	4
482.547	1	-2
482.718	1	10
482.888	1	17
483.058	1	2
483.229	1	6
483.399	1	8
483.569	1	5
483.740	1	3
483.910	1	17
484.080	1	17
484.250	1	10
484.421	1	2
484.591	1	10
484.761	1	17
484.932	1	5
485.102	1	14
485.272	1	11
485.443	1	4
485.613	1	11
485.783	1	5
485.953	1	5
486.124	1	17
486.294	1	24
486.464	1	7
486.635	1	9
486.805	1	8
486.975	1	-4
487.146	1	-1
487.316	1	6
487.486	1	8
487.656	1	8
487.827	1	11
487.997	1	17
488.167	1	2
488.338	1	14
488.508	1	14
488.678	1	3
488.848	1	6
489.019	1	6
489.189	1	14
489.359	1	16
489.529	1	10
489.700	1	13
489.870	1	9
490.040	1	11
490.211	1	17
490.381	1	8
490.551	1	9
490.721	1	11
490.892	1	3
491.062	1	11
491.232	1	7
491.402	1	20
491.573	1	1
491.743	1	1
491.913	1	12
492.084	1	9
492.254	1	2
492.424	1	4
492.594	1	14
492.765	1	15
492.935	1	0
493.105	1	22
493.275	1	12
493.446	1	17
493.616	1	10
493.786	1	9
493.956	1	4
494.127	1	9
494.297	1	16
494.467	1	1
494.637	1	5
494.808	1	6
494.978	1	14
495.148	1	22
495.318	1	4
495.489	1	18
495.659	1	10
495.829	1	7
495.999	1	15
496.170	1	12
496.340	1	1
496.510	1	20
496.680	1	12
496.851	1	16
497.021	1	10
497.191	1	12
497.361	1	10
497.532	1	17
497.702	1	-3
497.872	1	7
498.042	1	12
498.213	1	1
498.383	1	7
498.553	1	8
498.723	1	7
498.894	1	10
499.064	1	4
499.234	1	15
499.404	1	5
499.574	1	5
499.745	1	7
499.915	1	8
500.085	1	9
500.255	1	-1
500.426	1	5
500.596	1	9
500.766	1	16
500.936	1	6
501.106	1	0
501.277	1	9
501.447	1	12
501.617	1	11
501.787	1	16
501.958	1	19
502.128	1	11
502.298	1	11
502.468	1	17
502.638	1	3
502.809	1	9
502.979	1	8
503.149	1	11
503.319	1	1
503.489	1	4
503.660	1	8
503.830	1	10
504.000	1	17
504.170	1	14
504.340	1	2
504.511	1	14
504.681	1	5
504.851	1	6
505.021	1	9
505.192	1	14
505.362	1	4
505.532	1	1
505.702	1	2
505.872	1	10
506.043	1	13
506.213	1	6
506.383	1	9
506.553	1	16
506.723	1	1
506.893	1	4
507.064	1	10
507.234	1	6
507.404	1	5
507.574	1	8
507.744	1	10
507.915	1	8
508.085	1	10
508.255	1	11
508.425	1	5
508.595	1	8
508.766	1	-3
508.936	1	5
509.106	1	22
509.276	1	2
509.446	1	5
509.616	1	6
509.787	1	-1
509.957	1	9
510.127	1	-1
510.297	1	6
510.467	1	1
510.638	1	6
510.808	1	9
510.978	1	15
511.148	1	2
511.318	1	-1
511.488	1	13
511.659	1	9
511.829	1	2
511.999	1	7
512.169	1	14
512.339	1	2
512.509	1	6
512.680	1	11
512.850	1	9
513.020	1	-7
513.190	1	-1
513.360	1	4
513.530	1	20
513.700	1	23
513.871	1	14
514.041	1	9
514.211	1	3
514.381	1	8
514.551	1	2
514.721	1	2
514.892	1	9
515.062	1	2
515.232	1	-12
515.402	1	8
515.572	1	21
515.742	1	5
515.912	1	7
516.083	1	3
516.253	1	8
516.423	1	8
516.593	1	2
516.763	1	-9
516.933	1	-5
517.104	1	4
517.274	1	7
517.444	1	9
517.614	1	10
517.784	1	1
517.954	1	1
518.124	1	5
518.294	1	10
518.465	1	-5
518.635	1	17
518.805	1	6
518.975	1	2
519.145	1	1
519.315	1	6
519.485	1	-1
519.656	1	10
519.826	1	15
519.996	1	15
520.166	1	-3
520.336	1	6
520.506	1	-4
520.676	1	6
520.846	1	12
521.017	1	9
521.187	1	9
521.357	1	-1
521.527	1	17
521.697	1	-7
521.867	1	9
522.037	1	7
522.207	1	-2
522.377	1	12
522.548	1	13
522.718	1	7
522.888	1	5
523.058	1	13
523.228	1	-5
523.398	1	5
523.568	1	-1
523.738	1	10
523.909	1	0
524.079	1	6
524.249	1	16
524.419	1	9
524.589	1	16
524.759	1	3
524.929	1	-5
525.099	1	-3
525.269	1	7
525.439	1	11
525.610	1	3
525.780	1	14
525.950	1	-7
526.120	1	7
526.290	1	0
526.460	1	10
526.630	1	-2
526.800	1	7
526.970	1	8
527.140	1	9
527.311	1	2
527.481	1	0
527.651	1	1
527.821	1	15
527.991	1	4
528.161	1	6
528.331	1	12
528.501	1	5
528.671	1	4
528.841	1	-1
529.011	1	-2
529.181	1	5
529.352	1	19
529.522	1	4
529.692	1	-2
529.862	1	4
530.032	1	1
530.202	1	-3
530.372	1	4
530.542	1	-1
530.712	1	11
530.882	1	2
531.052	1	10
531.222	1	3
531.392	1	7
531.563	1	-8
531.733	1	-2
531.903	1	10
532.073	1	12
532.243	1	18
532.413	1	14
532.583	1	7
532.753	1	8
532.923	1	-2
533.093	1	12
533.263	1	22
533.433	1	5
533.603	1	2
533.773	1	0
533.943	1	5
534.113	1	5
534.284	1	9
534.454	1	11
534.624	1	6
534.794	1	-3
534.964	1	6
535.134	1	9
535.304	1	5
535.474	1	3
535.644	1	17
535.814	1	3
535.984	1	3
536.154	1	17
536.324	1	2
536.494	1	2
536.664	1	-5
536.834	1	4
537.004	1	1
537.174	1	14
537.344	1	0
537.514	1	7
537.685	1	7
537.855	1	16
538.025	1	4
538.195	1	5
538.365	1	8
538.535	1	4
538.705	1	-9
538.875	1	13
539.045	1	6
539.215	1	6
539.385	1	0
539.555	1	-5
539.725	1	-1
539.895	1	-4
540.065	1	10
540.235	1	2
540.405	1	13
540.575	1	1
540.745	1	15
540.915	1	6
541.085	1	9
541.255	1	-1
541.425	1	0
541.595	1	15
541.765	1	4
541.935	1	4
542.105	1	2
542.275	1	9
542.445	1	14
542.615	1	8
542.785	1	-2
542.955	1	-1
543.125	1	-2
543.295	1	-2
543.465	1	15
543.635	1	5
543.805	1	1
543.975	1	6
544.145	1	-4
544.315	1	11
544.485	1	0
544.655	1	2
544.825	1	6
544.995	1	-1
545.165	1	6
545.335	1	6
545.505	1	5
545.675	1	0
545.845	1	-6
546.015	1	4
546.185	1	3
546.355	1	2
546.525	1	5
546.695	1	0
546.865	1	2
547.035	1	11
547.205	1	0
547.375	1	3
547.545	1	7
547.715	1	2
547.885	1	4
548.055	1	11
548.225	1	1
548.395	1	0
548.565	1	8
548.735	1	6
548.905	1	-7
549.075	1	1
549.245	1	1
549.415	1	-7
549.585	1	-6
549.755	1	9
549.925	1	-2
550.095	1	7
550.265	1	-4
550.435	1	9
550.605	1	8
550.775	1	14
550.945	1	9
551.115	1	13
551.285	1	10
551.455	1	11
551.625	1	15
551.795	1	-1
551.965	1	10
552.135	1	11
552.305	1	1
552.475	1	-4
552.645	1	11
552.815	1	15
552.985	1	10
553.155	1	-3
553.325	1	7
553.495	1	5
553.665	1	-6
553.835	1	1
554.004	1	7
554.174	1	8
554.344	1	-1
554.514	1	2
554.684	1	13
554.854	1	6
555.024	1	5
555.194	1	9
555.364	1	0
555.534	1	24
555.704	1	3
555.874	1	7
556.044	1	12
556.214	1	-9
556.384	1	2
556.554	1	11
556.724	1	10
556.894	1	4
557.064	1	9
557.234	1	7
557.404	1	9
557.573	1	-3
557.743	1	-10
557.913	1	6
558.083	1	0
558.253	1	12
558.423	1	1
558.593	1	7
558.763	1	11
558.933	1	14
559.103	1	4
559.273	1	2
559.443	1	2
559.613	1	2
559.783	1	12
559.953	1	11
560.122	1	10
560.292	1	-4
560.462	1	-2
560.632	1	15
560.802	1	10
560.972	1	-4
561.142	1	-8
561.312	1	2
561.482	1	6
561.652	1	-7
561.822	1	7
561.992	1	2
562.162	1	-3
562.331	1	7
562.501	1	-1
562.671	1	-7
562.841	1	-3
563.011	1	1
563.181	1	8
563.351	1	10
563.521	1	3
563.691	1	-3
563.861	1	7
564.031	1	5
564.201	1	6
564.370	1	2
564.540	1	12
564.710	1	-7
564.880	1	3
565.050	1	5
565.220	1	-2
565.390	1	7
565.560	1	6
565.730	1	-5
565.900	1	1
566.069	1	-3
566.239	1	6
566.409	1	1
566.579	1	18
566.749	1	11
566.919	1	5
567.089	1	12
567.259	1	-8
567.429	1	2
567.599	1	5
567.768	1	8
567.938	1	8
568.108	1	-6
568.278	1	-5
568.448	1	4
568.618	1	5
568.788	1	9
568.958	1	14
569.128	1	8
569.297	1	-3
569.467	1	11
569.637	1	4
569.807	1	-4
569.977	1	-2
570.147	1	1
570.317	1	-10
570.487	1	1
570.656	1	4
570.826	1	-6
570.996	1	6
571.166	1	-4
571.336	1	-1
571.506	1	5
571.676	1	11
571.846	1	5
572.015	1	6
572.185	1	7
572.355	1	-6
572.525	1	-2
572.695	1	-3
572.865	1	2
573.035	1	8
573.205	1	4
573.374	1	12
573.544	1	9
573.714	1	7
573.884	1	12
574.054	1	13
574.224	1	-8
574.394	1	9
574.563	1	6
574.733	1	8
574.903	1	-3
575.073	1	-3
575.243	1	-10
575.413	1	9
575.583	1	8
575.752	1	5
575.922	1	-7
576.092	1	0
576.262	1	6
576.432	1	3
576.602	1	3
576.772	1	-4
576.941	1	6
577.111	1	-6
577.281	1	10
577.451	1	1
577.621	1	-7
577.791	1	8
577.960	1	2
578.130	1	5
578.300	1	-3
578.470	1	13
578.640	1	1
578.810	1	-1
578.979	1	2
579.149	1	2
579.319	1	5
579.489	1	8
579.659	1	6
579.829	1	-5
579.998	1	3
580.168	1	6
580.338	1	13
580.508	1	9
580.678	1	6
580.848	1	1
581.017	1	6
581.187	1	7
581.357	1	3
581.527	1	3
581.697	1	9
581.867	1	-2
582.036	1	5
582.206	1	0
582.376	1	3
582.546	1	-3
582.716	1	-2
582.885	1	-4
583.055	1	3
583.225	1	2
583.395	1	8
583.565	1	-4
583.735	1	10
583.904	1	11
584.074	1	-5
584.244	1	8
584.414	1	-4
584.584	1	-2
584.753	1	-8
584.923	1	0
585.093	1	4
585.263	1	2
585.433	1	0
585.602	1	10
585.772	1	6
585.942	1	4
586.112	1	8
586.282	1	20
586.451	1	10
586.621	1	4
586.791	1	-13
586.961	1	11
587.131	1	-4
587.300	1	-7
587.470	1	3
587.640	1	-6
587.810	1	14
587.980	1	-3
588.149	1	16
588.319	1	0
588.489	1	5
588.659	1	-4
588.829	1	0
588.998	1	19
589.168	1	7
589.338	1	8
589.508	1	-3
589.677	1	10
589.847	1	-2
590.017	1	11
590.187	1	5
590.357	1	5
590.526	1	11
590.696	1	1
590.866	1	8
591.036	1	-3
591.205	1	1
591.375	1	-2
591.545	1	5
591.715	1	7
591.885	1	7
592.054	1	13
592.224	1	12
592.394	1	2
592.564	1	0
592.733	1	-3
592.903	1	1
593.073	1	1
593.243	1	-3
593.412	1	5
593.582	1	2
593.752	1	5
593.922	1	3
594.091	1	9
594.261	1	-1
594.431	1	1
594.601	1	-7
594.771	1	5
594.940	1	-8
595.110	1	10
595.280	1	6
595.450	1	3
595.619	1	1
595.789	1	7
595.959	1	9
596.129	1	4
596.298	1	-8
596.468	1	4
596.638	1	4
596.808	1	4
596.977	1	0
597.147	1	6
597.317	1	12
597.487	1	11
597.656	1	2
597.826	1	-1
597.996	1	3
598.166	1	8
598.335	1	-4
598.505	1	14
598.675	1	12
598.844	1	15
599.014	1	13
599.184	1	-1
599.354	1	9
599.523	1	5
599.693	1	6
599.863	1	2
600.033	1	9
600.202	1	0
600.372	1	5
600.542	1	12
600.712	1	9
600.881	1	-3
601.051	1	-10
601.221	1	6
601.390	1	15
601.560	1	9
601.730	1	4
601.900	1	12
602.069	1	-1
602.239	1	8
602.409	1	-2
602.578	1	9
602.748	1	-1
602.918	1	-1
603.088	1	4
603.257	1	1
603.427	1	15
603.597	1	19
603.767	1	12
603.936	1	-3
604.106	1	14
604.276	1	8
604.445	1	11
604.615	1	2
604.785	1	-3
604.954	1	-5
605.124	1	0
605.294	1	6
605.464	1	3
605.633	1	-1
605.803	1	3
605.973	1	-1
606.142	1	2
606.312	1	-2
606.482	1	6
606.652	1	6
606.821	1	7
606.991	1	17
607.161	1	-6
607.330	1	2
607.500	1	19
607.670	1	16
607.839	1	2
608.009	1	9
608.179	1	9
608.348	1	3
608.518	1	-12
608.688	1	1
608.858	1	-2
609.027	1	-1
609.197	1	3
609.367	1	-1
609.536	1	-1
609.706	1	9
609.876	1	-3
610.045	1	7
610.215	1	1
610.385	1	-2
610.554	1	3
610.724	1	-1
610.894	1	11
611.063	1	10
611.233	1	-1
611.403	1	10
611.572	1	9
611.742	1	-3
611.912	1	-3
612.081	1	-7
612.251	1	19
612.421	1	-9
612.590	1	2
612.760	1	-1
612.930	1	3
613.099	1	15
613.269	1	5
613.439	1	-3
613.608	1	6
613.778	1	8
613.948	1	6
614.117	1	6
614.287	1	-2
614.457	1	9
614.626	1	2
614.796	1	12
614.966	1	-6
615.135	1	8
615.305	1	3
615.475	1	-4
615.644	1	2
615.814	1	-8
615.984	1	17
616.153	1	2
616.323	1	14
616.493	1	2
616.662	1	19
616.832	1	4
617.002	1	5
617.171	1	8
617.341	1	-3
617.511	1	6
617.680	1	5
617.850	1	11
618.019	1	-12
618.189	1	6
618.359	1	8
618.528	1	8
618.698	1	6
618.868	1	-2
619.037	1	10
619.207	1	-1
619.377	1	-2
619.546	1	14
619.716	1	4
619.885	1	0
620.055	1	7
620.225	1	16
620.394	1	14
620.564	1	-2
620.734	1	5
620.903	1	13
621.073	1	2
621.242	1	1
621.412	1	15
621.582	1	5
621.751	1	-6
621.921	1	7
622.091	1	10
622.260	1	-8
622.430	1	5
622.599	1	5
622.769	1	1
622.939	1	4
623.108	1	4
623.278	1	8
623.448	1	5
623.617	1	-4
623.787	1	7
623.956	1	6
624.126	1	7
624.296	1	20
624.465	1	17
624.635	1	13
624.804	1	-1
624.974	1	1
625.144	1	0
625.313	1	8
625.483	1	7
625.652	1	9
625.822	1	-16
625.992	1	6
626.161	1	16
626.331	1	-1
626.501	1	10
626.670	1	0
626.840	1	12
627.009	1	5
627.179	1	-1
627.348	1	9
627.518	1	1
627.688	1	17
627.857	1	6
628.027	1	12
628.196	1	5
628.366	1	3
628.536	1	-6
628.705	1	1
628.875	1	1
629.044	1	5
629.214	1	0
629.384	1	4
629.553	1	7
629.723	1	7
629.892	1	7
630.062	1	7
630.232	1	1
630.401	1	1
630.571	1	8
630.740	1	9
630.910	1	5
631.079	1	6
631.249	1	-5
631.419	1	15
631.588	1	-4
631.758	1	8
631.927	1	-3
632.097	1	-1
632.266	1	3
632.436	1	11
632.606	1	-3
632.775	1	4
632.945	1	-4
633.114	1	-4
633.284	1	1
633.453	1	7
633.623	1	-1
633.793	1	16
633.962	1	-4
634.132	1	7
634.301	1	3
634.471	1	13
634.640	1	6
634.810	1	0
634.979	1	-8
635.149	1	1
635.319	1	2
635.488	1	9
635.658	1	24
635.827	1	-3
635.997	1	16
636.166	1	-4
636.336	1	1
636.505	1	1
636.675	1	12
636.845	1	-4
637.014	1	10
637.184	1	6
637.353	1	2
637.523	1	10
637.692	1	13
637.862	1	6
638.031	1	-15
638.201	1	4
638.370	1	1
638.540	1	-1
638.710	1	-6
638.879	1	5
639.049	1	3
639.218	1	7
639.388	1	4
639.557	1	0
639.727	1	8
639.896	1	0
640.066	1	1
640.235	1	7
640.405	1	-2
640.574	1	8
640.744	1	11
640.914	1	-1
641.083	1	7
641.253	1	13
641.422	1	-1
641.592	1	15
641.761	1	5
641.931	1	8
642.100	1	6
642.270	1	0
642.439	1	7
642.609	1	-8
642.778	1	1
642.948	1	3
643.117	1	12
643.287	1	0
643.456	1	12
643.626	1	16
643.795	1	8
643.965	1	5
644.134	1	-10
644.304	1	0
644.473	1	3
644.643	1	-4
644.812	1	2
644.982	1	2
645.151	1	11
645.321	1	-1
645.490	1	9
645.660	1	-6
645.829	1	-5
645.999	1	1
646.168	1	9
646.338	1	8
646.507	1	7
646.677	1	-2
646.846	1	2
647.016	1	0
647.185	1	4
647.355	1	5
647.524	1	8
647.694	1	0
647.863	1	3
648.033	1	4
648.202	1	13
648.372	1	9
648.541	1	-3
648.711	1	6
648.880	1	11
649.050	1	7
649.219	1	10
649.389	1	6
649.558	1	4
649.728	1	3
649.897	1	5
650.067	1	10
650.236	1	19
650.406	1	9
650.575	1	-11
650.745	1	8
650.914	1	-3
651.084	1	2
651.253	1	12
651.423	1	13
651.592	1	6
651.762	1	1
651.931	1	7
652.101	1	5
652.270	1	-1
652.440	1	3
652.609	1	-4
652.778	1	13
652.948	1	-5
653.117	1	10
653.287	1	-1
653.456	1	-3
653.626	1	0
653.795	1	7
653.965	1	2
654.134	1	9
654.304	1	10
654.473	1	3
654.643	1	-7
654.812	1	18
654.982	1	12
655.151	1	2
655.320	1	12
655.490	1	9
655.659	1	13
655.829	1	-2
655.998	1	-3
656.168	1	9
656.337	1	5
656.507	1	5
656.676	1	0
656.846	1	6
657.015	1	10
657.184	1	-3
657.354	1	1
657.523	1	3
657.693	1	-6
657.862	1	-8
658.032	1	9
658.201	1	0
658.371	1	18
658.540	1	2
658.709	1	9
658.879	1	16
659.048	1	6
659.218	1	-4
659.387	1	6
659.557	1	7
659.726	1	4
659.895	1	3
660.065	1	0
660.234	1	3
660.404	1	6
660.573	1	2
660.743	1	-7
660.912	1	10
661.081	1	14
661.251	1	2
661.420	1	9
661.590	1	4
661.759	1	-1
661.929	1	11
662.098	1	3
662.267	1	5
662.437	1	7
662.606	1	7
662.776	1	-2
662.945	1	1
663.115	1	6
663.284	1	3
663.453	1	0
663.623	1	3
663.792	1	10
663.962	1	-4
664.131	1	5
664.300	1	13
664.470	1	12
664.639	1	-4
664.809	1	-3
664.978	1	5
665.148	1	5
665.317	1	4
665.486	1	12
665.656	1	7
665.825	1	5
665.995	1	1
666.164	1	9
666.333	1	12
666.503	1	17
666.672	1	6
666.842	1	-8
667.011	1	12
667.180	1	4
667.350	1	7
667.519	1	3
667.689	1	8
667.858	1	1
668.027	1	-3
668.197	1	13
668.366	1	9
668.536	1	0
668.705	1	2
668.874	1	-5
669.044	1	-3
669.213	1	2
669.382	1	-4
669.552	1	11
669.721	1	0
669.891	1	-4
670.060	1	3
670.229	1	-2
670.399	1	8
670.568	1	6
670.738	1	11
670.907	1	8
671.076	1	16
671.246	1	7
671.415	1	2
671.584	1	4
671.754	1	3
671.923	1	-1
672.093	1	1
672.262	1	17
672.431	1	8
672.601	1	-4
672.770	1	7
672.939	1	5
673.109	1	8
673.278	1	3
673.448	1	1
673.617	1	-8
673.786	1	0
