325.333	1	12
325.504	1	2
325.675	1	3
325.846	1	-1
326.017	1	19
326.188	1	4
326.359	1	-3
326.531	1	9
326.702	1	10
326.873	1	5
327.044	1	-14
327.215	1	6
327.386	1	1
327.557	1	2
327.728	1	20
327.899	1	13
328.070	1	10
328.241	1	13
328.412	1	2
328.583	1	1
328.754	1	13
328.926	1	4
329.097	1	5
329.268	1	-5
329.439	1	9
329.610	1	15
329.781	1	11
329.952	1	2
330.123	1	2
330.294	1	8
330.465	1	8
330.636	1	6
330.807	1	7
330.978	1	11
331.149	1	9
331.320	1	-4
331.492	1	13
331.663	1	11
331.834	1	11
332.005	1	1
332.176	1	19
332.347	1	-2
332.518	1	18
332.689	1	-2
332.860	1	0
333.031	1	14
333.202	1	-1
333.373	1	8
333.544	1	16
333.715	1	3
333.886	1	4
334.057	1	4
334.228	1	4
334.399	1	2
334.570	1	13
334.741	1	1
334.912	1	17
335.084	1	5
335.255	1	25
335.426	1	4
335.597	1	8
335.768	1	12
335.939	1	8
336.110	1	16
336.281	1	-4
336.452	1	17
336.623	1	13
336.794	1	12
336.965	1	9
337.136	1	0
337.307	1	7
337.478	1	-1
337.649	1	8
337.820	1	19
337.991	1	9
338.162	1	4
338.333	1	8
338.504	1	21
338.675	1	-2
338.846	1	9
339.017	1	-1
339.188	1	5
339.359	1	17
339.530	1	6
339.701	1	4
339.872	1	9
340.043	1	9
340.214	1	17
340.385	1	5
340.556	1	9
340.727	1	14
340.898	1	2
341.069	1	6
341.240	1	7
341.411	1	15
341.582	1	9
341.753	1	18
341.924	1	11
342.095	1	17
342.266	1	2
342.437	1	10
342.608	1	11
342.779	1	11
342.950	1	5
343.121	1	10
343.292	1	13
343.463	1	8
343.634	1	13
343.805	1	15
343.976	1	11
344.147	1	9
344.318	1	16
344.489	1	5
344.660	1	15
344.831	1	17
345.002	1	0
345.173	1	18
345.344	1	1
345.515	1	6
345.686	1	-7
345.857	1	19
346.028	1	16
346.199	1	6
346.370	1	13
346.541	1	16
346.712	1	13
346.883	1	3
347.054	1	5
347.225	1	5
347.396	1	9
347.567	1	14
347.738	1	6
347.909	1	11
348.080	1	5
348.251	1	14
348.422	1	2
348.593	1	9
348.764	1	4
348.935	1	5
349.106	1	-3
349.277	1	8
349.448	1	14
349.619	1	11
349.790	1	4
349.961	1	14
350.132	1	21
350.303	1	5
350.474	1	11
350.645	1	10
350.816	1	6
350.987	1	10
351.157	1	2
351.328	1	8
351.499	1	9
351.670	1	18
351.841	1	13
352.012	1	5
352.183	1	8
352.354	1	21
352.525	1	8
352.696	1	14
352.867	1	0
353.038	1	9
353.209	1	9
353.380	1	20
353.551	1	23
353.722	1	8
353.893	1	3
354.064	1	13
354.235	1	19
354.406	1	10
354.576	1	4
354.747	1	23
354.918	1	16
355.089	1	18
355.260	1	5
355.431	1	0
355.602	1	11
355.773	1	-4
355.944	1	11
356.115	1	9
356.286	1	16
356.457	1	13
356.628	1	12
356.799	1	11
356.970	1	16
357.141	1	7
357.311	1	8
357.482	1	5
357.653	1	0
357.824	1	8
357.995	1	16
358.166	1	11
358.337	1	18
358.508	1	6
358.679	1	6
358.850	1	7
359.021	1	9
359.192	1	3
359.363	1	10
359.533	1	13
359.704	1	9
359.875	1	0
360.046	1	3
360.217	1	22
360.388	1	15
360.559	1	17
360.730	1	8
360.901	1	10
361.072	1	20
361.243	1	5
361.414	1	11
361.584	1	1
361.755	1	6
361.926	1	14
362.097	1	21
362.268	1	19
362.439	1	20
362.610	1	10
362.781	1	13
362.952	1	13
363.123	1	3
363.293	1	17
363.464	1	19
363.635	1	25
363.806	1	8
363.977	1	8
364.148	1	3
364.319	1	18
364.490	1	11
364.661	1	15
364.832	1	11
365.002	1	5
365.173	1	3
365.344	1	12
365.515	1	5
365.686	1	7
365.857	1	7
366.028	1	16
366.199	1	27
366.370	1	10
366.540	1	10
366.711	1	9
366.882	1	16
367.053	1	7
367.224	1	22
367.395	1	11
367.566	1	16
367.737	1	8
367.908	1	14
368.078	1	12
368.249	1	22
368.420	1	16
368.591	1	9
368.762	1	10
368.933	1	16
369.104	1	17
369.274	1	18
369.445	1	12
369.616	1	1
369.787	1	13
369.958	1	14
370.129	1	19
370.300	1	11
370.471	1	13
370.641	1	15
370.812	1	17
370.983	1	11
371.154	1	14
371.325	1	11
371.496	1	6
371.667	1	13
371.837	1	18
372.008	1	16
372.179	1	7
372.350	1	11
372.521	1	15
372.692	1	8
372.863	1	23
373.033	1	10
373.204	1	5
373.375	1	4
373.546	1	4
373.717	1	3
373.888	1	7
374.059	1	7
374.229	1	18
374.400	1	11
374.571	1	-5
374.742	1	15
374.913	1	10
375.084	1	13
375.254	1	9
375.425	1	6
375.596	1	5
375.767	1	18
375.938	1	16
376.109	1	21
376.279	1	5
376.450	1	15
376.621	1	21
376.792	1	15
376.963	1	5
377.134	1	15
377.304	1	15
377.475	1	14
377.646	1	7
377.817	1	11
377.988	1	9
378.159	1	5
378.329	1	16
378.500	1	16
378.671	1	17
378.842	1	15
379.013	1	1
379.184	1	7
379.354	1	14
379.525	1	11
379.696	1	18
379.867	1	23
380.038	1	21
380.209	1	23
380.379	1	15
380.550	1	17
380.721	1	14
380.892	1	11
381.063	1	11
381.233	1	13
381.404	1	17
381.575	1	20
381.746	1	8
381.917	1	11
382.087	1	16
382.258	1	10
382.429	1	-2
382.600	1	14
382.771	1	16
382.941	1	3
383.112	1	9
383.283	1	15
383.454	1	20
383.625	1	12
383.795	1	17
383.966	1	12
384.137	1	20
384.308	1	14
384.479	1	15
384.649	1	24
384.820	1	19
384.991	1	20
385.162	1	12
385.333	1	5
385.503	1	4
385.674	1	29
385.845	1	17
386.016	1	15
386.187	1	21
386.357	1	25
386.528	1	15
386.699	1	24
386.870	1	1
387.041	1	19
387.211	1	13
387.382	1	6
387.553	1	12
387.724	1	9
387.894	1	24
388.065	1	17
388.236	1	13
388.407	1	24
388.578	1	18
388.748	1	8
388.919	1	14
389.090	1	15
389.261	1	12
389.431	1	22
389.602	1	11
389.773	1	13
389.944	1	25
390.114	1	15
390.285	1	23
390.456	1	13
390.627	1	16
390.798	1	15
390.968	1	9
391.139	1	18
391.310	1	18
391.481	1	10
391.651	1	18
391.822	1	25
391.993	1	18
392.164	1	11
392.334	1	7
392.505	1	21
392.676	1	16
392.847	1	17
393.017	1	15
393.188	1	18
393.359	1	15
393.530	1	23
393.700	1	22
393.871	1	21
394.042	1	8
394.213	1	6
394.383	1	15
394.554	1	15
394.725	1	18
394.896	1	18
395.066	1	18
395.237	1	18
395.408	1	16
395.579	1	14
395.749	1	13
395.920	1	10
396.091	1	10
396.262	1	19
396.432	1	26
396.603	1	27
396.774	1	9
396.945	1	24
397.115	1	17
397.286	1	11
397.457	1	17
397.627	1	10
397.798	1	25
397.969	1	9
398.140	1	16
398.310	1	19
398.481	1	17
398.652	1	19
398.823	1	18
398.993	1	14
399.164	1	19
399.335	1	20
399.505	1	15
399.676	1	26
399.847	1	20
400.018	1	22
400.188	1	13
400.359	1	22
400.530	1	19
400.700	1	19
400.871	1	28
401.042	1	22
401.213	1	23
401.383	1	4
401.554	1	13
401.725	1	17
401.895	1	13
402.066	1	15
402.237	1	5
402.408	1	17
402.578	1	15
402.749	1	10
402.920	1	34
403.090	1	26
403.261	1	29
403.432	1	24
403.603	1	11
403.773	1	11
403.944	1	17
404.115	1	12
404.285	1	22
404.456	1	8
404.627	1	22
404.797	1	20
404.968	1	23
405.139	1	13
405.310	1	19
405.480	1	12
405.651	1	17
405.822	1	24
405.992	1	16
406.163	1	30
406.334	1	18
406.504	1	16
406.675	1	22
406.846	1	25
407.016	1	17
407.187	1	16
407.358	1	15
407.528	1	5
407.699	1	15
407.870	1	19
408.041	1	18
408.211	1	14
408.382	1	23
408.553	1	12
408.723	1	24
408.894	1	18
409.065	1	21
409.235	1	20
409.406	1	16
409.577	1	19
409.747	1	35
409.918	1	21
410.089	1	24
410.259	1	24
410.430	1	19
410.601	1	20
410.771	1	16
410.942	1	23
411.113	1	29
411.283	1	25
411.454	1	14
411.625	1	14
411.795	1	30
411.966	1	22
412.137	1	28
412.307	1	20
412.478	1	6
412.649	1	17
412.819	1	22
412.990	1	15
413.161	1	29
413.331	1	24
413.502	1	31
413.672	1	13
413.843	1	6
414.014	1	35
414.184	1	21
414.355	1	28
414.526	1	15
414.696	1	22
414.867	1	4
415.038	1	14
415.208	1	24
415.379	1	23
415.550	1	16
415.720	1	19
415.891	1	15
416.062	1	15
416.232	1	6
416.403	1	16
416.573	1	21
416.744	1	18
416.915	1	15
417.085	1	22
417.256	1	17
417.427	1	8
417.597	1	15
417.768	1	21
417.939	1	13
418.109	1	22
418.280	1	17
418.450	1	17
418.621	1	23
418.792	1	21
418.962	1	18
419.133	1	22
419.304	1	18
419.474	1	22
419.645	1	17
419.815	1	16
419.986	1	13
420.157	1	24
420.327	1	13
420.498	1	21
420.669	1	21
420.839	1	22
421.010	1	23
421.180	1	15
421.351	1	28
421.522	1	41
421.692	1	16
421.863	1	17
422.033	1	22
422.204	1	10
422.375	1	19
422.545	1	11
422.716	1	22
422.886	1	21
423.057	1	32
423.228	1	15
423.398	1	18
423.569	1	20
423.740	1	12
423.910	1	12
424.081	1	25
424.251	1	25
424.422	1	17
424.593	1	17
424.763	1	13
424.934	1	21
425.104	1	6
425.275	1	26
425.445	1	13
425.616	1	26
425.787	1	18
425.957	1	14
426.128	1	24
426.298	1	8
426.469	1	19
426.640	1	15
426.810	1	20
426.981	1	13
427.151	1	19
427.322	1	21
427.493	1	14
427.663	1	17
427.834	1	13
428.004	1	14
428.175	1	8
428.345	1	12
428.516	1	14
428.687	1	20
428.857	1	24
429.028	1	14
429.198	1	6
429.369	1	16
429.540	1	20
429.710	1	21
429.881	1	15
430.051	1	13
430.222	1	28
430.392	1	16
430.563	1	25
430.734	1	17
430.904	1	24
431.075	1	18
431.245	1	12
431.416	1	23
431.586	1	18
431.757	1	25
431.927	1	15
432.098	1	19
432.269	1	25
432.439	1	8
432.610	1	16
432.780	1	10
432.951	1	32
433.121	1	17
433.292	1	21
433.462	1	15
433.633	1	16
433.804	1	11
433.974	1	24
434.145	1	20
434.315	1	16
434.486	1	19
434.656	1	24
434.827	1	23
434.997	1	12
435.168	1	17
435.339	1	22
435.509	1	15
435.680	1	11
435.850	1	21
436.021	1	13
436.191	1	21
436.362	1	33
436.532	1	22
436.703	1	14
436.873	1	24
437.044	1	27
437.214	1	11
437.385	1	23
437.556	1	12
437.726	1	22
437.897	1	6
438.067	1	20
438.238	1	27
438.408	1	21
438.579	1	25
438.749	1	16
438.920	1	5
439.090	1	23
439.261	1	19
439.431	1	22
439.602	1	26
439.772	1	26
439.943	1	13
440.113	1	16
440.284	1	21
440.455	1	22
440.625	1	21
440.796	1	20
440.966	1	16
441.137	1	20
441.307	1	38
441.478	1	18
441.648	1	18
441.819	1	20
441.989	1	25
442.160	1	35
442.330	1	12
442.501	1	15
442.671	1	19
442.842	1	19
443.012	1	21
443.183	1	10
443.353	1	22
443.524	1	21
443.694	1	24
443.865	1	18
444.035	1	12
444.206	1	19
444.376	1	17
444.547	1	11
444.717	1	14
444.888	1	19
445.058	1	10
445.229	1	26
445.399	1	12
445.570	1	13
445.740	1	30
445.911	1	17
446.081	1	21
446.252	1	25
446.422	1	10
446.593	1	16
446.763	1	27
446.934	1	27
447.104	1	13
447.275	1	20
447.445	1	17
447.616	1	12
447.786	1	20
447.957	1	20
448.127	1	20
448.298	1	17
448.468	1	22
448.639	1	14
448.809	1	9
448.979	1	24
449.150	1	25
449.320	1	21
449.491	1	19
449.661	1	21
449.832	1	24
450.002	1	22
450.173	1	27
450.343	1	14
450.514	1	20
450.684	1	13
450.855	1	24
451.025	1	18
451.196	1	10
451.366	1	32
451.537	1	9
451.707	1	30
451.878	1	8
452.048	1	12
452.218	1	10
452.389	1	24
452.559	1	14
452.730	1	19
452.900	1	23
453.071	1	14
453.241	1	17
453.412	1	15
453.582	1	14
453.753	1	14
453.923	1	25
454.093	1	27
454.264	1	19
454.434	1	9
454.605	1	10
454.775	1	3
454.946	1	16
455.116	1	10
455.287	1	28
455.457	1	18
455.628	1	14
455.798	1	9
455.968	1	8
456.139	1	11
456.309	1	20
456.480	1	9
456.650	1	25
456.821	1	9
456.991	1	21
457.161	1	13
457.332	1	21
457.502	1	17
457.673	1	17
457.843	1	15
458.014	1	13
458.184	1	20
458.355	1	29
458.525	1	12
458.695	1	17
458.866	1	26
459.036	1	18
459.207	1	4
459.377	1	18
459.548	1	9
459.718	1	13
459.888	1	22
460.059	1	19
460.229	1	15
460.400	1	2
460.570	1	17
460.740	1	16
460.911	1	16
461.081	1	12
461.252	1	23
461.422	1	26
461.593	1	13
461.763	1	3
461.933	1	18
462.104	1	16
462.274	1	10
462.445	1	6
462.615	1	13
462.785	1	21
462.956	1	14
463.126	1	26
463.297	1	10
463.467	1	21
463.638	1	13
463.808	1	9
463.978	1	16
464.149	1	14
464.319	1	-3
464.490	1	10
464.660	1	29
464.830	1	16
465.001	1	19
465.171	1	25
465.342	1	20
465.512	1	15
465.682	1	15
465.853	1	19
466.023	1	9
466.194	1	21
466.364	1	10
466.534	1	19
466.705	1	20
466.875	1	19
467.045	1	15
467.216	1	13
467.386	1	18
467.557	1	16
467.727	1	9
467.897	1	10
468.068	1	14
468.238	1	10
468.409	1	5
468.579	1	23
468.749	1	28
468.920	1	16
469.090	1	13
469.260	1	27
469.431	1	3
469.601	1	10
469.772	1	23
469.942	1	24
470.112	1	15
470.283	1	24
470.453	1	14
470.623	1	10
470.794	1	12
470.964	1	14
471.135	1	22
471.305	1	19
471.475	1	9
471.646	1	22
471.816	1	17
471.986	1	11
472.157	1	10
472.327	1	14
472.497	1	22
472.668	1	9
472.838	1	10
473.009	1	6
473.179	1	13
473.349	1	21
473.520	1	15
473.690	1	13
473.860	1	14
474.031	1	14
474.201	1	9
474.371	1	13
474.542	1	11
474.712	1	15
474.882	1	14
475.053	1	19
475.223	1	12
475.394	1	13
475.564	1	11
475.734	1	18
475.905	1	1
476.075	1	19
476.245	1	12
476.416	1	13
476.586	1	1
476.756	1	16
476.927	1	15
477.097	1	25
477.267	1	20
477.438	1	10
477.608	1	6
477.778	1	14
477.949	1	19
478.119	1	8
478.289	1	23
478.460	1	19
478.630	1	13
478.800	1	16
478.971	1	23
479.141	1	12
479.311	1	10
479.482	1	10
479.652	1	10
479.822	1	20
479.993	1	23
480.163	1	16
480.333	1	10
480.504	1	4
480.674	1	25
480.844	1	15
481.015	1	10
481.185	1	6
481.355	1	20
481.525	1	9
481.696	1	9
481.866	1	10
482.036	1	9
482.207	1	19
482.377	1	8
482.547	1	11
482.718	1	16
482.888	1	14
483.058	1	10
483.229	1	16
483.399	1	6
483.569	1	13
483.740	1	13
483.910	1	23
484.080	1	14
484.250	1	22
484.421	1	0
484.591	1	10
484.761	1	13
484.932	1	7
485.102	1	14
485.272	1	9
485.443	1	6
485.613	1	7
485.783	1	9
485.953	1	9
486.124	1	11
486.294	1	26
486.464	1	16
486.635	1	13
486.805	1	15
486.975	1	11
487.146	1	-3
487.316	1	11
487.486	1	14
487.656	1	3
487.827	1	13
487.997	1	14
488.167	1	10
488.338	1	21
488.508	1	18
488.678	1	18
488.848	1	7
489.019	1	2
489.189	1	12
489.359	1	10
489.529	1	13
489.700	1	15
489.870	1	15
490.040	1	26
490.211	1	16
490.381	1	9
490.551	1	11
490.721	1	13
490.892	1	10
491.062	1	12
491.232	1	3
491.402	1	23
491.573	1	4
491.743	1	18
491.913	1	16
492.084	1	5
492.254	1	-2
492.424	1	12
492.594	1	10
492.765	1	14
492.935	1	10
493.105	1	28
493.275	1	18
493.446	1	23
493.616	1	10
493.786	1	10
493.956	1	11
494.127	1	14
494.297	1	17
494.467	1	13
494.637	1	0
494.808	1	15
494.978	1	7
495.148	1	13
495.318	1	9
495.489	1	8
495.659	1	21
495.829	1	13
495.999	1	0
496.170	1	13
496.340	1	8
496.510	1	18
496.680	1	15
496.851	1	20
497.021	1	11
497.191	1	20
497.361	1	9
497.532	1	16
497.702	1	6
497.872	1	18
498.042	1	12
498.213	1	9
498.383	1	10
498.553	1	12
498.723	1	5
498.894	1	5
499.064	1	15
499.234	1	24
499.404	1	9
499.574	1	7
499.745	1	9
499.915	1	8
500.085	1	10
500.255	1	8
500.426	1	11
500.596	1	14
500.766	1	27
500.936	1	15
501.106	1	9
501.277	1	2
501.447	1	6
501.617	1	15
501.787	1	10
501.958	1	16
502.128	1	10
502.298	1	14
502.468	1	12
502.638	1	13
502.809	1	12
502.979	1	17
503.149	1	9
503.319	1	7
503.489	1	10
503.660	1	4
503.830	1	11
504.000	1	11
504.170	1	16
504.340	1	2
504.511	1	13
504.681	1	20
504.851	1	10
505.021	1	7
505.192	1	7
505.362	1	8
505.532	1	10
505.702	1	5
505.872	1	8
506.043	1	22
506.213	1	9
506.383	1	10
506.553	1	17
506.723	1	1
506.893	1	2
507.064	1	18
507.234	1	4
507.404	1	10
507.574	1	9
507.744	1	28
507.915	1	12
508.085	1	15
508.255	1	19
508.425	1	2
508.595	1	-4
508.766	1	0
508.936	1	-2
509.106	1	13
509.276	1	5
509.446	1	17
509.616	1	14
509.787	1	11
509.957	1	13
510.127	1	5
510.297	1	2
510.467	1	15
510.638	1	9
510.808	1	-1
510.978	1	16
511.148	1	16
511.318	1	-1
511.488	1	8
511.659	1	8
511.829	1	10
511.999	1	15
512.169	1	10
512.339	1	12
512.509	1	13
512.680	1	8
512.850	1	12
513.020	1	11
513.190	1	4
513.360	1	19
513.530	1	14
513.700	1	19
513.871	1	10
514.041	1	7
514.211	1	4
514.381	1	7
514.551	1	10
514.721	1	5
514.892	1	11
515.062	1	9
515.232	1	-1
515.402	1	-1
515.572	1	14
515.742	1	13
515.912	1	3
516.083	1	6
516.253	1	11
516.423	1	3
516.593	1	0
516.763	1	6
516.933	1	-5
517.104	1	7
517.274	1	13
517.444	1	14
517.614	1	7
517.784	1	10
517.954	1	9
518.124	1	-3
518.294	1	12
518.465	1	8
518.635	1	12
518.805	1	1
518.975	1	3
519.145	1	7
519.315	1	11
519.485	1	7
519.656	1	19
519.826	1	10
519.996	1	20
520.166	1	5
520.336	1	1
520.506	1	2
520.676	1	12
520.846	1	8
521.017	1	11
521.187	1	12
521.357	1	1
521.527	1	14
521.697	1	2
521.867	1	7
522.037	1	0
522.207	1	1
522.377	1	19
522.548	1	13
522.718	1	2
522.888	1	9
523.058	1	12
523.228	1	7
523.398	1	7
523.568	1	16
523.738	1	4
523.909	1	-3
524.079	1	-6
524.249	1	8
524.419	1	9
524.589	1	14
524.759	1	11
524.929	1	7
525.099	1	-6
525.269	1	18
525.439	1	2
525.610	1	5
525.780	1	10
525.950	1	6
526.120	1	4
526.290	1	5
526.460	1	8
526.630	1	11
526.800	1	12
526.970	1	-1
527.140	1	12
527.311	1	5
527.481	1	-2
527.651	1	4
527.821	1	8
527.991	1	2
528.161	1	7
528.331	1	14
528.501	1	14
528.671	1	0
528.841	1	7
529.011	1	10
529.181	1	5
529.352	1	11
529.522	1	5
529.692	1	5
529.862	1	-8
530.032	1	16
530.202	1	9
530.372	1	4
530.542	1	8
530.712	1	20
530.882	1	8
531.052	1	-1
531.222	1	4
531.392	1	4
531.563	1	4
531.733	1	-3
531.903	1	14
532.073	1	3
532.243	1	16
532.413	1	11
532.583	1	14
532.753	1	12
532.923	1	5
533.093	1	7
533.263	1	19
533.433	1	3
533.603	1	4
533.773	1	2
533.943	1	0
534.113	1	8
534.284	1	-1
534.454	1	5
534.624	1	5
534.794	1	2
534.964	1	11
535.134	1	8
535.304	1	8
535.474	1	14
535.644	1	19
535.814	1	-8
535.984	1	5
536.154	1	4
536.324	1	-1
536.494	1	16
536.664	1	6
536.834	1	9
537.004	1	2
537.174	1	12
537.344	1	9
537.514	1	7
537.685	1	14
537.855	1	10
538.025	1	5
538.195	1	6
538.365	1	9
538.535	1	-3
538.705	1	4
538.875	1	14
539.045	1	11
539.215	1	8
539.385	1	-4
539.555	1	9
539.725	1	12
539.895	1	9
540.065	1	9
540.235	1	2
540.405	1	13
540.575	1	1
540.745	1	17
540.915	1	6
541.085	1	0
541.255	1	0
541.425	1	-6
541.595	1	19
541.765	1	10
541.935	1	12
542.105	1	10
542.275	1	5
542.445	1	9
542.615	1	2
542.785	1	-9
542.955	1	4
543.125	1	2
543.295	1	1
543.465	1	11
543.635	1	10
543.805	1	0
543.975	1	10
544.145	1	8
544.315	1	7
544.485	1	5
544.655	1	-1
544.825	1	3
544.995	1	-5
545.165	1	17
545.335	1	5
545.505	1	8
545.675	1	11
545.845	1	-3
546.015	1	3
546.185	1	10
546.355	1	8
546.525	1	1
546.695	1	5
546.865	1	3
547.035	1	11
547.205	1	6
547.375	1	-4
547.545	1	1
547.715	1	3
547.885	1	2
548.055	1	10
548.225	1	-6
548.395	1	5
548.565	1	1
548.735	1	5
548.905	1	1
549.075	1	8
549.245	1	13
549.415	1	-4
549.585	1	4
549.755	1	21
549.925	1	10
550.095	1	12
550.265	1	-5
550.435	1	2
550.605	1	-2
550.775	1	8
550.945	1	11
551.115	1	8
551.285	1	2
551.455	1	7
551.625	1	0
551.795	1	11
551.965	1	6
552.135	1	9
552.305	1	7
552.475	1	-3
552.645	1	7
552.815	1	6
552.985	1	14
553.155	1	-4
553.325	1	10
553.495	1	3
553.665	1	-2
553.835	1	5
554.004	1	15
554.174	1	9
554.344	1	-2
554.514	1	2
554.684	1	4
554.854	1	6
555.024	1	13
555.194	1	3
555.364	1	12
555.534	1	19
555.704	1	2
555.874	1	12
556.044	1	12
556.214	1	-7
556.384	1	1
556.554	1	17
556.724	1	3
556.894	1	1
557.064	1	15
557.234	1	7
557.404	1	13
557.573	1	-4
557.743	1	6
557.913	1	4
558.083	1	0
558.253	1	3
558.423	1	8
558.593	1	15
558.763	1	12
558.933	1	6
559.103	1	4
559.273	1	12
559.443	1	-9
559.613	1	7
559.783	1	9
559.953	1	7
560.122	1	11
560.292	1	6
560.462	1	7
560.632	1	10
560.802	1	11
560.972	1	2
561.142	1	-6
561.312	1	-8
561.482	1	10
561.652	1	-4
561.822	1	14
561.992	1	1
562.162	1	2
562.331	1	-3
562.501	1	5
562.671	1	-1
562.841	1	-14
563.011	1	-6
563.181	1	6
563.351	1	2
563.521	1	4
563.691	1	0
563.861	1	10
564.031	1	10
564.201	1	-2
564.370	1	-2
564.540	1	19
564.710	1	-8
564.880	1	-1
565.050	1	4
565.220	1	3
565.390	1	4
565.560	1	7
565.730	1	0
565.900	1	3
566.069	1	5
566.239	1	3
566.409	1	-8
566.579	1	11
566.749	1	2
566.919	1	13
567.089	1	14
567.259	1	2
567.429	1	8
567.599	1	9
567.768	1	13
567.938	1	6
568.108	1	1
568.278	1	-1
568.448	1	1
568.618	1	4
568.788	1	12
568.958	1	10
569.128	1	1
569.297	1	0
569.467	1	5
569.637	1	2
569.807	1	4
569.977	1	6
570.147	1	0
570.317	1	-5
570.487	1	1
570.656	1	0
570.826	1	0
570.996	1	3
571.166	1	13
571.336	1	3
571.506	1	3
571.676	1	13
571.846	1	6
572.015	1	14
572.185	1	1
572.355	1	6
572.525	1	0
572.695	1	4
572.865	1	-2
573.035	1	6
573.205	1	0
573.374	1	19
573.544	1	4
573.714	1	7
573.884	1	6
574.054	1	2
574.224	1	-2
574.394	1	12
574.563	1	17
574.733	1	0
574.903	1	4
575.073	1	1
575.243	1	-1
575.413	1	10
575.583	1	6
575.752	1	7
575.922	1	5
576.092	1	12
576.262	1	9
576.432	1	-2
576.602	1	2
576.772	1	2
576.941	1	3
577.111	1	3
577.281	1	6
577.451	1	7
577.621	1	-2
577.791	1	4
577.960	1	7
578.130	1	2
578.300	1	-3
578.470	1	9
578.640	1	4
578.810	1	3
578.979	1	13
579.149	1	2
579.319	1	5
579.489	1	10
579.659	1	0
579.829	1	0
579.998	1	-2
580.168	1	9
580.338	1	0
580.508	1	14
580.678	1	3
580.848	1	10
581.017	1	4
581.187	1	0
581.357	1	2
581.527	1	2
581.697	1	8
581.867	1	2
582.036	1	16
582.206	1	5
582.376	1	5
582.546	1	1
582.716	1	4
582.885	1	-3
583.055	1	6
583.225	1	6
583.395	1	8
583.565	1	6
583.735	1	11
583.904	1	0
584.074	1	1
584.244	1	9
584.414	1	1
584.584	1	10
584.753	1	5
584.923	1	5
585.093	1	1
585.263	1	7
585.433	1	2
585.602	1	4
585.772	1	3
585.942	1	1
586.112	1	6
586.282	1	10
586.451	1	1
586.621	1	9
586.791	1	0
586.961	1	7
587.131	1	0
587.300	1	-10
587.470	1	-1
587.640	1	1
587.810	1	10
587.980	1	-7
588.149	1	5
588.319	1	2
588.489	1	7
588.659	1	3
588.829	1	1
588.998	1	14
589.168	1	5
589.338	1	10
589.508	1	7
589.677	1	11
589.847	1	0
590.017	1	7
590.187	1	8
590.357	1	9
590.526	1	11
590.696	1	12
590.866	1	16
591.036	1	-1
591.205	1	0
591.375	1	7
591.545	1	7
591.715	1	5
591.885	1	7
592.054	1	14
592.224	1	6
592.394	1	5
592.564	1	6
592.733	1	6
592.903	1	3
593.073	1	14
593.243	1	2
593.412	1	6
593.582	1	8
593.752	1	15
593.922	1	2
594.091	1	2
594.261	1	7
594.431	1	-4
594.601	1	-4
594.771	1	-2
594.940	1	2
595.110	1	2
595.280	1	0
595.450	1	4
595.619	1	14
595.789	1	1
595.959	1	4
596.129	1	-4
596.298	1	-3
596.468	1	2
596.638	1	0
596.808	1	-2
596.977	1	6
597.147	1	1
597.317	1	1
597.487	1	4
597.656	1	10
597.826	1	5
597.996	1	6
598.166	1	13
598.335	1	0
598.505	1	2
598.675	1	12
598.844	1	7
599.014	1	13
599.184	1	4
599.354	1	10
599.523	1	2
599.693	1	8
599.863	1	2
600.033	1	-4
600.202	1	4
600.372	1	5
600.542	1	13
600.712	1	12
600.881	1	9
601.051	1	-2
601.221	1	7
601.390	1	7
601.560	1	5
601.730	1	-6
601.900	1	18
602.069	1	1
602.239	1	10
602.409	1	2
602.578	1	-1
602.748	1	7
602.918	1	-3
603.088	1	1
603.257	1	9
603.427	1	19
603.597	1	7
603.767	1	11
603.936	1	2
604.106	1	12
604.276	1	0
604.445	1	4
604.615	1	-6
604.785	1	0
604.954	1	3
605.124	1	9
605.294	1	10
605.464	1	4
605.633	1	-3
605.803	1	9
605.973	1	-3
606.142	1	1
606.312	1	0
606.482	1	4
606.652	1	4
606.821	1	8
606.991	1	12
607.161	1	4
607.330	1	5
607.500	1	9
607.670	1	19
607.839	1	-6
608.009	1	4
608.179	1	3
608.348	1	10
608.518	1	1
608.688	1	11
608.858	1	12
609.027	1	-3
609.197	1	6
609.367	1	4
609.536	1	7
609.706	1	11
609.876	1	-5
610.045	1	12
610.215	1	-6
610.385	1	1
610.554	1	2
610.724	1	-1
610.894	1	17
611.063	1	-1
611.233	1	4
611.403	1	14
611.572	1	-1
611.742	1	3
611.912	1	12
612.081	1	2
612.251	1	16
612.421	1	2
612.590	1	0
612.760	1	2
612.930	1	6
613.099	1	8
613.269	1	2
613.439	1	8
613.608	1	4
613.778	1	7
613.948	1	8
614.117	1	4
614.287	1	6
614.457	1	6
614.626	1	-1
614.796	1	8
614.966	1	6
615.135	1	8
615.305	1	-2
615.475	1	12
615.644	1	3
615.814	1	1
615.984	1	12
616.153	1	4
616.323	1	10
616.493	1	-2
616.662	1	12
616.832	1	13
617.002	1	10
617.171	1	12
617.341	1	5
617.511	1	14
617.680	1	3
617.850	1	12
618.019	1	-2
618.189	1	1
618.359	1	2
618.528	1	-2
618.698	1	7
618.868	1	5
619.037	1	2
619.207	1	7
619.377	1	2
619.546	1	13
619.716	1	15
619.885	1	3
620.055	1	0
620.225	1	6
620.394	1	1
620.564	1	-4
620.734	1	2
620.903	1	15
621.073	1	4
621.242	1	-3
621.412	1	16
621.582	1	3
621.751	1	-2
621.921	1	8
622.091	1	10
622.260	1	3
622.430	1	13
622.599	1	2
622.769	1	5
622.939	1	8
623.108	1	5
623.278	1	4
623.448	1	-4
623.617	1	5
623.787	1	1
623.956	1	10
624.126	1	6
624.296	1	5
624.465	1	8
624.635	1	13
624.804	1	3
624.974	1	2
625.144	1	4
625.313	1	0
625.483	1	12
625.652	1	4
625.822	1	1
625.992	1	2
626.161	1	10
626.331	1	8
626.501	1	13
626.670	1	1
626.840	1	8
627.009	1	14
627.179	1	-5
627.348	1	11
627.518	1	2
627.688	1	3
627.857	1	12
628.027	1	-2
628.196	1	2
628.366	1	7
628.536	1	2
628.705	1	3
628.875	1	14
629.044	1	-3
629.214	1	6
629.384	1	3
629.553	1	7
629.723	1	-3
629.892	1	5
630.062	1	5
630.232	1	2
630.401	1	6
630.571	1	11
630.740	1	8
630.910	1	-2
631.079	1	8
631.249	1	0
631.419	1	8
631.588	1	-4
631.758	1	16
631.927	1	-4
632.097	1	4
632.266	1	3
632.436	1	7
632.606	1	3
632.775	1	0
632.945	1	-4
633.114	1	-2
633.284	1	4
633.453	1	5
633.623	1	7
633.793	1	10
633.962	1	6
634.132	1	11
634.301	1	3
634.471	1	16
634.640	1	4
634.810	1	3
634.979	1	2
635.149	1	7
635.319	1	9
635.488	1	2
635.658	1	13
635.827	1	3
635.997	1	17
636.166	1	-3
636.336	1	1
636.505	1	1
636.675	1	8
636.845	1	5
637.014	1	13
637.184	1	3
637.353	1	19
637.523	1	6
637.692	1	13
637.862	1	9
638.031	1	-2
638.201	1	0
638.370	1	2
638.540	1	10
638.710	1	7
638.879	1	3
639.049	1	4
639.218	1	3
639.388	1	8
639.557	1	-4
639.727	1	7
639.896	1	12
640.066	1	12
640.235	1	-1
640.405	1	8
640.574	1	8
640.744	1	11
640.914	1	-1
641.083	1	16
641.253	1	5
641.422	1	0
641.592	1	10
641.761	1	3
641.931	1	7
642.100	1	2
642.270	1	0
642.439	1	3
642.609	1	10
642.778	1	5
642.948	1	3
643.117	1	4
643.287	1	5
643.456	1	13
643.626	1	13
643.795	1	4
643.965	1	7
644.134	1	-4
644.304	1	-3
644.473	1	7
644.643	1	-3
644.812	1	-4
644.982	1	2
645.151	1	8
645.321	1	0
645.490	1	17
645.660	1	-2
645.829	1	0
645.999	1	0
646.168	1	11
646.338	1	11
646.507	1	2
646.677	1	-3
646.846	1	10
647.016	1	-2
647.185	1	4
647.355	1	5
647.524	1	3
647.694	1	-4
647.863	1	3
648.033	1	2
648.202	1	15
648.372	1	3
648.541	1	-4
648.711	1	8
648.880	1	12
649.050	1	-2
649.219	1	5
649.389	1	6
649.558	1	5
649.728	1	9
649.897	1	7
650.067	1	5
650.236	1	21
650.406	1	2
650.575	1	1
650.745	1	15
650.914	1	4
651.084	1	7
651.253	1	12
651.423	1	8
651.592	1	11
651.762	1	7
651.931	1	17
652.101	1	18
652.270	1	-5
652.440	1	6
652.609	1	-3
652.778	1	17
652.948	1	3
653.117	1	15
653.287	1	7
653.456	1	-1
653.626	1	3
653.795	1	1
653.965	1	5
654.134	1	5
654.304	1	4
654.473	1	8
654.643	1	-4
654.812	1	10
654.982	1	3
655.151	1	7
655.320	1	8
655.490	1	-3
655.659	1	10
655.829	1	4
655.998	1	2
656.168	1	6
656.337	1	14
656.507	1	1
656.676	1	-3
656.846	1	7
657.015	1	14
657.184	1	4
657.354	1	-3
657.523	1	6
657.693	1	3
657.862	1	1
658.032	1	2
658.201	1	9
658.371	1	5
658.540	1	0
658.709	1	5
658.879	1	12
659.048	1	5
659.218	1	10
659.387	1	5
659.557	1	11
659.726	1	7
659.895	1	9
660.065	1	-7
660.234	1	4
660.404	1	1
660.573	1	6
660.743	1	2
660.912	1	7
661.081	1	10
661.251	1	5
661.420	1	6
661.590	1	5
661.759	1	5
661.929	1	3
662.098	1	-1
662.267	1	0
662.437	1	9
662.606	1	4
662.776	1	9
662.945	1	9
663.115	1	-1
663.284	1	7
663.453	1	-7
663.623	1	-3
663.792	1	2
663.962	1	-1
664.131	1	15
664.300	1	9
664.470	1	20
664.639	1	5
664.809	1	2
664.978	1	8
665.148	1	10
665.317	1	-1
665.486	1	13
665.656	1	3
665.825	1	6
665.995	1	5
666.164	1	1
666.333	1	0
666.503	1	16
666.672	1	11
666.842	1	3
667.011	1	14
667.180	1	8
667.350	1	9
667.519	1	2
667.689	1	15
667.858	1	-5
668.027	1	9
668.197	1	11
668.366	1	15
668.536	1	7
668.705	1	-1
668.874	1	-11
669.044	1	0
669.213	1	6
669.382	1	3
669.552	1	12
669.721	1	6
669.891	1	-4
670.060	1	17
670.229	1	6
670.399	1	2
670.568	1	3
670.738	1	20
670.907	1	3
671.076	1	13
671.246	1	0
671.415	1	-3
671.584	1	4
671.754	1	10
671.923	1	9
672.093	1	2
672.262	1	9
672.431	1	11
672.601	1	7
672.770	1	5
672.939	1	4
673.109	1	13
673.278	1	-1
673.448	1	7
673.617	1	0
673.786	1	5
