325.333	1	18
325.504	1	9
325.675	1	0
325.846	1	5
326.017	1	9
326.188	1	11
326.359	1	-2
326.531	1	9
326.702	1	3
326.873	1	4
327.044	1	-2
327.215	1	4
327.386	1	4
327.557	1	4
327.728	1	-1
327.899	1	12
328.070	1	7
328.241	1	5
328.412	1	-4
328.583	1	-1
328.754	1	10
328.926	1	1
329.097	1	7
329.268	1	-6
329.439	1	5
329.610	1	10
329.781	1	3
329.952	1	4
330.123	1	-1
330.294	1	6
330.465	1	9
330.636	1	6
330.807	1	8
330.978	1	16
331.149	1	11
331.320	1	4
331.492	1	9
331.663	1	5
331.834	1	6
332.005	1	6
332.176	1	13
332.347	1	2
332.518	1	16
332.689	1	4
332.860	1	5
333.031	1	1
333.202	1	1
333.373	1	13
333.544	1	9
333.715	1	5
333.886	1	4
334.057	1	14
334.228	1	5
334.399	1	-15
334.570	1	16
334.741	1	2
334.912	1	16
335.084	1	10
335.255	1	25
335.426	1	-1
335.597	1	4
335.768	1	15
335.939	1	3
336.110	1	1
336.281	1	11
336.452	1	8
336.623	1	4
336.794	1	5
336.965	1	13
337.136	1	0
337.307	1	14
337.478	1	8
337.649	1	-5
337.820	1	19
337.991	1	0
338.162	1	-2
338.333	1	3
338.504	1	16
338.675	1	2
338.846	1	13
339.017	1	1
339.188	1	9
339.359	1	17
339.530	1	7
339.701	1	-1
339.872	1	4
340.043	1	3
340.214	1	12
340.385	1	5
340.556	1	7
340.727	1	17
340.898	1	6
341.069	1	10
341.240	1	5
341.411	1	10
341.582	1	13
341.753	1	8
341.924	1	4
342.095	1	19
342.266	1	2
342.437	1	19
342.608	1	3
342.779	1	6
342.950	1	0
343.121	1	10
343.292	1	12
343.463	1	4
343.634	1	10
343.805	1	5
343.976	1	2
344.147	1	4
344.318	1	14
344.489	1	4
344.660	1	7
344.831	1	7
345.002	1	12
345.173	1	11
345.344	1	5
345.515	1	0
345.686	1	3
345.857	1	9
346.028	1	8
346.199	1	10
346.370	1	9
346.541	1	9
346.712	1	7
346.883	1	0
347.054	1	13
347.225	1	-3
347.396	1	6
347.567	1	14
347.738	1	-2
347.909	1	3
348.080	1	9
348.251	1	7
348.422	1	4
348.593	1	10
348.764	1	9
348.935	1	6
349.106	1	-1
349.277	1	8
349.448	1	-2
349.619	1	4
349.790	1	4
349.961	1	15
350.132	1	4
350.303	1	8
350.474	1	12
350.645	1	14
350.816	1	15
350.987	1	14
351.157	1	1
351.328	1	3
351.499	1	7
351.670	1	11
351.841	1	13
352.012	1	9
352.183	1	5
352.354	1	15
352.525	1	14
352.696	1	12
352.867	1	10
353.038	1	7
353.209	1	14
353.380	1	18
353.551	1	17
353.722	1	7
353.893	1	3
354.064	1	11
354.235	1	11
354.406	1	7
354.576	1	-5
354.747	1	28
354.918	1	9
355.089	1	18
355.260	1	-2
355.431	1	3
355.602	1	2
355.773	1	1
355.944	1	19
356.115	1	20
356.286	1	5
356.457	1	17
356.628	1	13
356.799	1	5
356.970	1	12
357.141	1	7
357.311	1	12
357.482	1	19
357.653	1	4
357.824	1	5
357.995	1	16
358.166	1	22
358.337	1	6
358.508	1	7
358.679	1	3
358.850	1	22
359.021	1	15
359.192	1	11
359.363	1	11
359.533	1	9
359.704	1	13
359.875	1	3
360.046	1	3
360.217	1	17
360.388	1	11
360.559	1	20
360.730	1	6
360.901	1	11
361.072	1	13
361.243	1	11
361.414	1	2
361.584	1	1
361.755	1	15
361.926	1	12
362.097	1	14
362.268	1	21
362.439	1	17
362.610	1	8
362.781	1	13
362.952	1	10
363.123	1	6
363.293	1	17
363.464	1	20
363.635	1	15
363.806	1	8
363.977	1	7
364.148	1	15
364.319	1	15
364.490	1	14
364.661	1	10
364.832	1	10
365.002	1	10
365.173	1	6
365.344	1	10
365.515	1	12
365.686	1	9
365.857	1	5
366.028	1	5
366.199	1	19
366.370	1	16
366.540	1	13
366.711	1	6
366.882	1	6
367.053	1	6
367.224	1	16
367.395	1	16
367.566	1	21
367.737	1	9
367.908	1	18
368.078	1	14
368.249	1	22
368.420	1	11
368.591	1	-1
368.762	1	8
368.933	1	18
369.104	1	12
369.274	1	18
369.445	1	8
369.616	1	6
369.787	1	4
369.958	1	-2
370.129	1	20
370.300	1	9
370.471	1	8
370.641	1	19
370.812	1	15
370.983	1	7
371.154	1	19
371.325	1	5
371.496	1	16
371.667	1	4
371.837	1	15
372.008	1	23
372.179	1	1
372.350	1	7
372.521	1	13
372.692	1	16
372.863	1	28
373.033	1	3
373.204	1	10
373.375	1	3
373.546	1	5
373.717	1	2
373.888	1	14
374.059	1	15
374.229	1	14
374.400	1	16
374.571	1	2
374.742	1	13
374.913	1	3
375.084	1	12
375.254	1	3
375.425	1	10
375.596	1	14
375.767	1	16
375.938	1	20
376.109	1	18
376.279	1	7
376.450	1	20
376.621	1	18
376.792	1	13
376.963	1	-3
377.134	1	19
377.304	1	23
377.475	1	4
377.646	1	9
377.817	1	10
377.988	1	12
378.159	1	4
378.329	1	14
378.500	1	12
378.671	1	11
378.842	1	16
379.013	1	11
379.184	1	18
379.354	1	14
379.525	1	1
379.696	1	14
379.867	1	12
380.038	1	20
380.209	1	22
380.379	1	16
380.550	1	9
380.721	1	18
380.892	1	9
381.063	1	6
381.233	1	16
381.404	1	17
381.575	1	16
381.746	1	5
381.917	1	8
382.087	1	21
382.258	1	22
382.429	1	3
382.600	1	20
382.771	1	12
382.941	1	11
383.112	1	8
383.283	1	9
383.454	1	24
383.625	1	9
383.795	1	13
383.966	1	14
384.137	1	13
384.308	1	15
384.479	1	10
384.649	1	21
384.820	1	13
384.991	1	20
385.162	1	15
385.333	1	11
385.503	1	5
385.674	1	8
385.845	1	12
386.016	1	13
386.187	1	7
386.357	1	24
386.528	1	9
386.699	1	25
386.870	1	9
387.041	1	15
387.211	1	21
387.382	1	12
387.553	1	16
387.724	1	7
387.894	1	19
388.065	1	11
388.236	1	15
388.407	1	9
388.578	1	22
388.748	1	8
388.919	1	18
389.090	1	21
389.261	1	10
389.431	1	30
389.602	1	7
389.773	1	21
389.944	1	22
390.114	1	15
390.285	1	8
390.456	1	14
390.627	1	13
390.798	1	11
390.968	1	2
391.139	1	17
391.310	1	21
391.481	1	14
391.651	1	12
391.822	1	20
391.993	1	25
392.164	1	20
392.334	1	8
392.505	1	17
392.676	1	13
392.847	1	15
393.017	1	7
393.188	1	24
393.359	1	12
393.530	1	25
393.700	1	18
393.871	1	24
394.042	1	2
394.213	1	8
394.383	1	23
394.554	1	11
394.725	1	12
394.896	1	21
395.066	1	20
395.237	1	10
395.408	1	17
395.579	1	14
395.749	1	16
395.920	1	15
396.091	1	13
396.262	1	21
396.432	1	11
396.603	1	22
396.774	1	4
396.945	1	15
397.115	1	13
397.286	1	8
397.457	1	20
397.627	1	30
397.798	1	17
397.969	1	6
398.140	1	21
398.310	1	22
398.481	1	20
398.652	1	11
398.823	1	19
398.993	1	7
399.164	1	15
399.335	1	22
399.505	1	16
399.676	1	22
399.847	1	15
400.018	1	29
400.188	1	18
400.359	1	22
400.530	1	23
400.700	1	30
400.871	1	26
401.042	1	12
401.213	1	30
401.383	1	7
401.554	1	14
401.725	1	22
401.895	1	22
402.066	1	13
402.237	1	27
402.408	1	10
402.578	1	11
402.749	1	16
402.920	1	16
403.090	1	22
403.261	1	25
403.432	1	20
403.603	1	15
403.773	1	15
403.944	1	19
404.115	1	14
404.285	1	11
404.456	1	8
404.627	1	19
404.797	1	15
404.968	1	19
405.139	1	12
405.310	1	16
405.480	1	15
405.651	1	15
405.822	1	13
405.992	1	20
406.163	1	11
406.334	1	14
406.504	1	12
406.675	1	18
406.846	1	18
407.016	1	10
407.187	1	11
407.358	1	27
407.528	1	18
407.699	1	18
407.870	1	12
408.041	1	37
408.211	1	15
408.382	1	24
408.553	1	16
408.723	1	21
408.894	1	10
409.065	1	21
409.235	1	11
409.406	1	19
409.577	1	22
409.747	1	20
409.918	1	25
410.089	1	16
410.259	1	21
410.430	1	16
410.601	1	28
410.771	1	24
410.942	1	27
411.113	1	34
411.283	1	22
411.454	1	16
411.625	1	5
411.795	1	22
411.966	1	23
412.137	1	29
412.307	1	8
412.478	1	10
412.649	1	16
412.819	1	18
412.990	1	15
413.161	1	21
413.331	1	24
413.502	1	26
413.672	1	11
413.843	1	9
414.014	1	24
414.184	1	17
414.355	1	20
414.526	1	13
414.696	1	21
414.867	1	22
415.038	1	19
415.208	1	11
415.379	1	25
415.550	1	17
415.720	1	20
415.891	1	21
416.062	1	13
416.232	1	8
416.403	1	24
416.573	1	27
416.744	1	26
416.915	1	11
417.085	1	18
417.256	1	26
417.427	1	19
417.597	1	10
417.768	1	25
417.939	1	7
418.109	1	15
418.280	1	18
418.450	1	18
418.621	1	14
418.792	1	13
418.962	1	23
419.133	1	15
419.304	1	18
419.474	1	15
419.645	1	19
419.815	1	12
419.986	1	18
420.157	1	21
420.327	1	19
420.498	1	11
420.669	1	24
420.839	1	13
421.010	1	23
421.180	1	19
421.351	1	23
421.522	1	26
421.692	1	20
421.863	1	17
422.033	1	24
422.204	1	14
422.375	1	16
422.545	1	15
422.716	1	24
422.886	1	22
423.057	1	21
423.228	1	15
423.398	1	16
423.569	1	29
423.740	1	18
423.910	1	22
424.081	1	10
424.251	1	22
424.422	1	25
424.593	1	11
424.763	1	15
424.934	1	9
425.104	1	15
425.275	1	24
425.445	1	11
425.616	1	20
425.787	1	18
425.957	1	13
426.128	1	12
426.298	1	7
426.469	1	15
426.640	1	1
426.810	1	23
426.981	1	11
427.151	1	24
427.322	1	13
427.493	1	18
427.663	1	15
427.834	1	8
428.004	1	23
428.175	1	13
428.345	1	15
428.516	1	11
428.687	1	22
428.857	1	23
429.028	1	10
429.198	1	17
429.369	1	16
429.540	1	15
429.710	1	25
429.881	1	22
430.051	1	13
430.222	1	24
430.392	1	16
430.563	1	28
430.734	1	16
430.904	1	24
431.075	1	13
431.245	1	7
431.416	1	18
431.586	1	21
431.757	1	27
431.927	1	19
432.098	1	20
432.269	1	17
432.439	1	11
432.610	1	13
432.780	1	17
432.951	1	20
433.121	1	15
433.292	1	25
433.462	1	20
433.633	1	18
433.804	1	13
433.974	1	18
434.145	1	16
434.315	1	17
434.486	1	14
434.656	1	26
434.827	1	13
434.997	1	8
435.168	1	16
435.339	1	24
435.509	1	15
435.680	1	24
435.850	1	16
436.021	1	18
436.191	1	15
436.362	1	11
436.532	1	17
436.703	1	20
436.873	1	26
437.044	1	27
437.214	1	11
437.385	1	18
437.556	1	13
437.726	1	23
437.897	1	12
438.067	1	24
438.238	1	18
438.408	1	19
438.579	1	17
438.749	1	16
438.920	1	14
439.090	1	21
439.261	1	14
439.431	1	18
439.602	1	17
439.772	1	25
439.943	1	20
440.113	1	20
440.284	1	19
440.455	1	23
440.625	1	14
440.796	1	12
440.966	1	18
441.137	1	11
441.307	1	26
441.478	1	28
441.648	1	16
441.819	1	13
441.989	1	28
442.160	1	25
442.330	1	8
442.501	1	19
442.671	1	8
442.842	1	24
443.012	1	8
443.183	1	25
443.353	1	25
443.524	1	27
443.694	1	28
443.865	1	13
444.035	1	15
444.206	1	10
444.376	1	20
444.547	1	17
444.717	1	25
444.888	1	18
445.058	1	20
445.229	1	17
445.399	1	13
445.570	1	24
445.740	1	15
445.911	1	16
446.081	1	4
446.252	1	15
446.422	1	7
446.593	1	20
446.763	1	27
446.934	1	24
447.104	1	12
447.275	1	29
447.445	1	22
447.616	1	20
447.786	1	12
447.957	1	5
448.127	1	16
448.298	1	18
448.468	1	34
448.639	1	14
448.809	1	5
448.979	1	29
449.150	1	23
449.320	1	14
449.491	1	13
449.661	1	15
449.832	1	15
450.002	1	18
450.173	1	23
450.343	1	17
450.514	1	15
450.684	1	13
450.855	1	17
451.025	1	28
451.196	1	6
451.366	1	17
451.537	1	9
451.707	1	21
451.878	1	14
452.048	1	17
452.218	1	19
452.389	1	7
452.559	1	13
452.730	1	23
452.900	1	22
453.071	1	2
453.241	1	14
453.412	1	8
453.582	1	23
453.753	1	16
453.923	1	18
454.093	1	21
454.264	1	18
454.434	1	16
454.605	1	13
454.775	1	-2
454.946	1	12
455.116	1	11
455.287	1	25
455.457	1	19
455.628	1	12
455.798	1	11
455.968	1	9
456.139	1	4
456.309	1	16
456.480	1	8
456.650	1	17
456.821	1	12
456.991	1	19
457.161	1	12
457.332	1	2
457.502	1	18
457.673	1	16
457.843	1	14
458.014	1	9
458.184	1	23
458.355	1	19
458.525	1	13
458.695	1	14
458.866	1	29
459.036	1	12
459.207	1	0
459.377	1	12
459.548	1	5
459.718	1	16
459.888	1	16
460.059	1	30
460.229	1	10
460.400	1	5
460.570	1	29
460.740	1	8
460.911	1	9
461.081	1	21
461.252	1	18
461.422	1	28
461.593	1	18
461.763	1	2
461.933	1	17
462.104	1	10
462.274	1	14
462.445	1	8
462.615	1	13
462.785	1	17
462.956	1	18
463.126	1	19
463.297	1	6
463.467	1	14
463.638	1	22
463.808	1	6
463.978	1	19
464.149	1	19
464.319	1	8
464.490	1	0
464.660	1	23
464.830	1	16
465.001	1	17
465.171	1	11
465.342	1	23
465.512	1	19
465.682	1	11
465.853	1	24
466.023	1	14
466.194	1	12
466.364	1	-3
466.534	1	24
466.705	1	12
466.875	1	12
467.045	1	9
467.216	1	17
467.386	1	21
467.557	1	24
467.727	1	13
467.897	1	5
468.068	1	24
468.238	1	13
468.409	1	6
468.579	1	8
468.749	1	9
468.920	1	15
469.090	1	12
469.260	1	16
469.431	1	4
469.601	1	10
469.772	1	13
469.942	1	22
470.112	1	13
470.283	1	17
470.453	1	5
470.623	1	3
470.794	1	9
470.964	1	11
471.135	1	28
471.305	1	23
471.475	1	16
471.646	1	16
471.816	1	18
471.986	1	8
472.157	1	18
472.327	1	17
472.497	1	11
472.668	1	5
472.838	1	8
473.009	1	13
473.179	1	24
473.349	1	20
473.520	1	9
473.690	1	13
473.860	1	12
474.031	1	10
474.201	1	8
474.371	1	17
474.542	1	20
474.712	1	17
474.882	1	5
475.053	1	18
475.223	1	17
475.394	1	12
475.564	1	7
475.734	1	18
475.905	1	7
476.075	1	16
476.245	1	-2
476.416	1	14
476.586	1	10
476.756	1	23
476.927	1	10
477.097	1	18
477.267	1	22
477.438	1	4
477.608	1	6
477.778	1	13
477.949	1	14
478.119	1	16
478.289	1	18
478.460	1	12
478.630	1	9
478.800	1	14
478.971	1	18
479.141	1	8
479.311	1	1
479.482	1	10
479.652	1	12
479.822	1	9
479.993	1	15
480.163	1	10
480.333	1	12
480.504	1	2
480.674	1	19
480.844	1	16
481.015	1	4
481.185	1	4
481.355	1	16
481.525	1	12
481.696	1	9
481.866	1	22
482.036	1	8
482.207	1	15
482.377	1	5
482.547	1	3
482.718	1	10
482.888	1	22
483.058	1	4
483.229	1	8
483.399	1	3
483.569	1	15
483.740	1	19
483.910	1	23
484.080	1	21
484.250	1	11
484.421	1	-1
484.591	1	0
484.761	1	18
484.932	1	16
485.102	1	13
485.272	1	14
485.443	1	8
485.613	1	7
485.783	1	8
485.953	1	13
486.124	1	17
486.294	1	23
486.464	1	10
486.635	1	15
486.805	1	10
486.975	1	9
487.146	1	-4
487.316	1	17
487.486	1	9
487.656	1	8
487.827	1	8
487.997	1	15
488.167	1	4
488.338	1	17
488.508	1	21
488.678	1	20
488.848	1	4
489.019	1	-1
489.189	1	16
489.359	1	12
489.529	1	13
489.700	1	14
489.870	1	10
490.040	1	12
490.211	1	6
490.381	1	7
490.551	1	5
490.721	1	12
490.892	1	4
491.062	1	13
491.232	1	2
491.402	1	21
491.573	1	8
491.743	1	6
491.913	1	20
492.084	1	10
492.254	1	1
492.424	1	11
492.594	1	8
492.765	1	8
492.935	1	3
493.105	1	21
493.275	1	16
493.446	1	13
493.616	1	17
493.786	1	6
493.956	1	7
494.127	1	23
494.297	1	15
494.467	1	6
494.637	1	11
494.808	1	9
494.978	1	10
495.148	1	11
495.318	1	-3
495.489	1	10
495.659	1	10
495.829	1	11
495.999	1	6
496.170	1	12
496.340	1	4
496.510	1	19
496.680	1	7
496.851	1	9
497.021	1	10
497.191	1	18
497.361	1	4
497.532	1	19
497.702	1	5
497.872	1	2
498.042	1	10
498.213	1	6
498.383	1	5
498.553	1	17
498.723	1	10
498.894	1	5
499.064	1	10
499.234	1	20
499.404	1	6
499.574	1	4
499.745	1	10
499.915	1	3
500.085	1	9
500.255	1	11
500.426	1	-3
500.596	1	11
500.766	1	14
500.936	1	15
501.106	1	15
501.277	1	9
501.447	1	13
501.617	1	10
501.787	1	5
501.958	1	15
502.128	1	9
502.298	1	11
502.468	1	17
502.638	1	14
502.809	1	11
502.979	1	7
503.149	1	11
503.319	1	-3
503.489	1	12
503.660	1	7
503.830	1	20
504.000	1	14
504.170	1	19
504.340	1	4
504.511	1	25
504.681	1	10
504.851	1	7
505.021	1	-1
505.192	1	3
505.362	1	2
505.532	1	8
505.702	1	10
505.872	1	8
506.043	1	16
506.213	1	13
506.383	1	4
506.553	1	17
506.723	1	-6
506.893	1	-1
507.064	1	22
507.234	1	1
507.404	1	11
507.574	1	18
507.744	1	18
507.915	1	9
508.085	1	2
508.255	1	10
508.425	1	6
508.595	1	11
508.766	1	2
508.936	1	-1
509.106	1	8
509.276	1	3
509.446	1	11
509.616	1	17
509.787	1	3
509.957	1	8
510.127	1	-2
510.297	1	7
510.467	1	8
510.638	1	7
510.808	1	-5
510.978	1	8
511.148	1	1
511.318	1	-5
511.488	1	10
511.659	1	-10
511.829	1	-3
511.999	1	16
512.169	1	12
512.339	1	12
512.509	1	6
512.680	1	9
512.850	1	9
513.020	1	8
513.190	1	11
513.360	1	13
513.530	1	22
513.700	1	18
513.871	1	8
514.041	1	16
514.211	1	11
514.381	1	3
514.551	1	4
514.721	1	3
514.892	1	5
515.062	1	7
515.232	1	3
515.402	1	5
515.572	1	12
515.742	1	4
515.912	1	11
516.083	1	4
516.253	1	18
516.423	1	4
516.593	1	0
516.763	1	-4
516.933	1	-4
517.104	1	1
517.274	1	7
517.444	1	17
517.614	1	8
517.784	1	3
517.954	1	8
518.124	1	1
518.294	1	14
518.465	1	5
518.635	1	9
518.805	1	4
518.975	1	1
519.145	1	-2
519.315	1	13
519.485	1	6
519.656	1	21
519.826	1	19
519.996	1	8
520.166	1	0
520.336	1	4
520.506	1	-11
520.676	1	2
520.846	1	10
521.017	1	7
521.187	1	4
521.357	1	8
521.527	1	14
521.697	1	0
521.867	1	9
522.037	1	3
522.207	1	0
522.377	1	12
522.548	1	-7
522.718	1	11
522.888	1	-2
523.058	1	11
523.228	1	13
523.398	1	0
523.568	1	2
523.738	1	12
523.909	1	2
524.079	1	-3
524.249	1	7
524.419	1	9
524.589	1	13
524.759	1	8
524.929	1	4
525.099	1	2
525.269	1	5
525.439	1	7
525.610	1	6
525.780	1	6
525.950	1	2
526.120	1	7
526.290	1	-6
526.460	1	8
526.630	1	17
526.800	1	16
526.970	1	2
527.140	1	8
527.311	1	-2
527.481	1	0
527.651	1	-1
527.821	1	8
527.991	1	4
528.161	1	0
528.331	1	14
528.501	1	9
528.671	1	8
528.841	1	4
529.011	1	0
529.181	1	4
529.352	1	8
529.522	1	3
529.692	1	1
529.862	1	2
530.032	1	8
530.202	1	2
530.372	1	-2
530.542	1	2
530.712	1	14
530.882	1	13
531.052	1	5
531.222	1	2
531.392	1	-1
531.563	1	-3
531.733	1	-6
531.903	1	11
532.073	1	13
532.243	1	17
532.413	1	-2
532.583	1	5
532.753	1	24
532.923	1	-2
533.093	1	0
533.263	1	24
533.433	1	5
533.603	1	6
533.773	1	11
533.943	1	8
534.113	1	-2
534.284	1	-1
534.454	1	2
534.624	1	2
534.794	1	4
534.964	1	5
535.134	1	9
535.304	1	3
535.474	1	9
535.644	1	16
535.814	1	-2
535.984	1	-7
536.154	1	2
536.324	1	10
536.494	1	3
536.664	1	0
536.834	1	5
537.004	1	1
537.174	1	10
537.344	1	6
537.514	1	5
537.685	1	10
537.855	1	15
538.025	1	-2
538.195	1	4
538.365	1	3
538.535	1	-2
538.705	1	-1
538.875	1	9
539.045	1	16
539.215	1	6
539.385	1	-11
539.555	1	9
539.725	1	7
539.895	1	-6
540.065	1	7
540.235	1	2
540.405	1	15
540.575	1	7
540.745	1	17
540.915	1	9
541.085	1	5
541.255	1	-12
541.425	1	0
541.595	1	5
541.765	1	3
541.935	1	8
542.105	1	7
542.275	1	-2
542.445	1	14
542.615	1	6
542.785	1	-1
542.955	1	7
543.125	1	5
543.295	1	-2
543.465	1	5
543.635	1	5
543.805	1	-4
543.975	1	3
544.145	1	3
544.315	1	6
544.485	1	11
544.655	1	5
544.825	1	1
544.995	1	-2
545.165	1	12
545.335	1	-2
545.505	1	15
545.675	1	-2
545.845	1	-2
546.015	1	-5
546.185	1	-3
546.355	1	4
546.525	1	0
546.695	1	10
546.865	1	4
547.035	1	11
547.205	1	8
547.375	1	4
547.545	1	7
547.715	1	2
547.885	1	3
548.055	1	1
548.225	1	5
548.395	1	8
548.565	1	7
548.735	1	6
548.905	1	-1
549.075	1	6
549.245	1	9
549.415	1	0
549.585	1	-2
549.755	1	11
549.925	1	4
550.095	1	7
550.265	1	2
550.435	1	4
550.605	1	1
550.775	1	9
550.945	1	-3
551.115	1	3
551.285	1	9
551.455	1	10
551.625	1	8
551.795	1	13
551.965	1	5
552.135	1	13
552.305	1	2
552.475	1	11
552.645	1	9
552.815	1	9
552.985	1	10
553.155	1	-2
553.325	1	5
553.495	1	3
553.665	1	8
553.835	1	4
554.004	1	7
554.174	1	15
554.344	1	-4
554.514	1	-1
554.684	1	-3
554.854	1	3
555.024	1	12
555.194	1	18
555.364	1	11
555.534	1	20
555.704	1	3
555.874	1	1
556.044	1	14
556.214	1	1
556.384	1	3
556.554	1	2
556.724	1	1
556.894	1	9
557.064	1	4
557.234	1	5
557.404	1	17
557.573	1	-4
557.743	1	0
557.913	1	5
558.083	1	10
558.253	1	-3
558.423	1	10
558.593	1	20
558.763	1	12
558.933	1	16
559.103	1	0
559.273	1	14
559.443	1	5
559.613	1	12
559.783	1	12
559.953	1	2
560.122	1	15
560.292	1	-3
560.462	1	5
560.632	1	13
560.802	1	5
560.972	1	5
561.142	1	2
561.312	1	4
561.482	1	11
561.652	1	3
561.822	1	8
561.992	1	2
562.162	1	2
562.331	1	9
562.501	1	0
562.671	1	1
562.841	1	-8
563.011	1	-2
563.181	1	13
563.351	1	14
563.521	1	13
563.691	1	-2
563.861	1	0
564.031	1	18
564.201	1	14
564.370	1	2
564.540	1	8
564.710	1	-9
564.880	1	1
565.050	1	7
565.220	1	2
565.390	1	-1
565.560	1	13
565.730	1	-1
565.900	1	6
566.069	1	-2
566.239	1	-5
566.409	1	1
566.579	1	13
566.749	1	8
566.919	1	6
567.089	1	10
567.259	1	-5
567.429	1	6
567.599	1	3
567.768	1	6
567.938	1	6
568.108	1	-1
568.278	1	9
568.448	1	5
568.618	1	-1
568.788	1	11
568.958	1	8
569.128	1	10
569.297	1	-8
569.467	1	1
569.637	1	1
569.807	1	3
569.977	1	7
570.147	1	8
570.317	1	-5
570.487	1	3
570.656	1	-1
570.826	1	-1
570.996	1	4
571.166	1	9
571.336	1	7
571.506	1	9
571.676	1	-2
571.846	1	8
572.015	1	0
572.185	1	11
572.355	1	1
572.525	1	0
572.695	1	4
572.865	1	-1
573.035	1	10
573.205	1	0
573.374	1	16
573.544	1	-1
573.714	1	13
573.884	1	10
574.054	1	12
574.224	1	7
574.394	1	1
574.563	1	9
574.733	1	15
574.903	1	-9
575.073	1	-1
575.243	1	7
575.413	1	11
575.583	1	9
575.752	1	8
575.922	1	-4
576.092	1	5
576.262	1	-6
576.432	1	-1
576.602	1	-8
576.772	1	-6
576.941	1	8
577.111	1	10
577.281	1	0
577.451	1	4
577.621	1	1
577.791	1	7
577.960	1	9
578.130	1	-5
578.300	1	-3
578.470	1	11
578.640	1	2
578.810	1	-1
578.979	1	10
579.149	1	-1
579.319	1	7
579.489	1	3
579.659	1	6
579.829	1	1
579.998	1	4
580.168	1	4
580.338	1	6
580.508	1	18
580.678	1	8
580.848	1	10
581.017	1	14
581.187	1	8
581.357	1	-1
581.527	1	3
581.697	1	2
581.867	1	2
582.036	1	12
582.206	1	11
582.376	1	9
582.546	1	-1
582.716	1	13
582.885	1	-9
583.055	1	13
583.225	1	11
583.395	1	0
583.565	1	8
583.735	1	18
583.904	1	13
584.074	1	0
584.244	1	8
584.414	1	-6
584.584	1	2
584.753	1	2
584.923	1	-5
585.093	1	8
585.263	1	12
585.433	1	-5
585.602	1	4
585.772	1	6
585.942	1	3
586.112	1	8
586.282	1	8
586.451	1	8
586.621	1	5
586.791	1	-2
586.961	1	9
587.131	1	-2
587.300	1	1
587.470	1	1
587.640	1	-5
587.810	1	8
587.980	1	-1
588.149	1	7
588.319	1	3
588.489	1	5
588.659	1	0
588.829	1	5
588.998	1	12
589.168	1	-1
589.338	1	11
589.508	1	11
589.677	1	6
589.847	1	2
590.017	1	16
590.187	1	8
590.357	1	7
590.526	1	9
590.696	1	5
590.866	1	18
591.036	1	6
591.205	1	-1
591.375	1	0
591.545	1	7
591.715	1	3
591.885	1	4
592.054	1	10
592.224	1	9
592.394	1	3
592.564	1	2
592.733	1	11
592.903	1	-3
593.073	1	7
593.243	1	2
593.412	1	10
593.582	1	0
593.752	1	7
593.922	1	11
594.091	1	8
594.261	1	1
594.431	1	0
594.601	1	1
594.771	1	6
594.940	1	-4
595.110	1	4
595.280	1	0
595.450	1	5
595.619	1	3
595.789	1	3
595.959	1	4
596.129	1	-2
596.298	1	-3
596.468	1	10
596.638	1	0
596.808	1	-1
596.977	1	0
597.147	1	5
597.317	1	7
597.487	1	7
597.656	1	4
597.826	1	0
597.996	1	13
598.166	1	6
598.335	1	8
598.505	1	11
598.675	1	8
598.844	1	8
599.014	1	11
599.184	1	0
599.354	1	6
599.523	1	9
599.693	1	10
599.863	1	1
600.033	1	0
600.202	1	11
600.372	1	1
600.542	1	7
600.712	1	1
600.881	1	5
601.051	1	-5
601.221	1	7
601.390	1	7
601.560	1	6
601.730	1	-1
601.900	1	4
602.069	1	3
602.239	1	8
602.409	1	-2
602.578	1	5
602.748	1	-6
602.918	1	-3
603.088	1	2
603.257	1	2
603.427	1	21
603.597	1	15
603.767	1	9
603.936	1	8
604.106	1	5
604.276	1	0
604.445	1	3
604.615	1	-2
604.785	1	7
604.954	1	-5
605.124	1	3
605.294	1	12
605.464	1	2
605.633	1	-3
605.803	1	12
605.973	1	0
606.142	1	-4
606.312	1	4
606.482	1	0
606.652	1	-3
606.821	1	5
606.991	1	9
607.161	1	4
607.330	1	10
607.500	1	15
607.670	1	11
607.839	1	-1
608.009	1	13
608.179	1	3
608.348	1	10
608.518	1	-2
608.688	1	10
608.858	1	5
609.027	1	4
609.197	1	3
609.367	1	7
609.536	1	3
609.706	1	7
609.876	1	-6
610.045	1	1
610.215	1	2
610.385	1	-7
610.554	1	8
610.724	1	4
610.894	1	15
611.063	1	11
611.233	1	-4
611.403	1	14
611.572	1	8
611.742	1	5
611.912	1	-6
612.081	1	0
612.251	1	14
612.421	1	4
612.590	1	-2
612.760	1	0
612.930	1	0
613.099	1	10
613.269	1	1
613.439	1	15
613.608	1	0
613.778	1	9
613.948	1	4
614.117	1	5
614.287	1	7
614.457	1	3
614.626	1	3
614.796	1	4
614.966	1	-2
615.135	1	5
615.305	1	-8
615.475	1	4
615.644	1	6
615.814	1	-3
615.984	1	10
616.153	1	7
616.323	1	18
616.493	1	-6
616.662	1	12
616.832	1	10
617.002	1	2
617.171	1	6
617.341	1	2
617.511	1	16
617.680	1	8
617.850	1	10
618.019	1	-3
618.189	1	-4
618.359	1	-1
618.528	1	6
618.698	1	10
618.868	1	6
619.037	1	4
619.207	1	-1
619.377	1	6
619.546	1	6
619.716	1	3
619.885	1	-1
620.055	1	4
620.225	1	12
620.394	1	13
620.564	1	5
620.734	1	7
620.903	1	14
621.073	1	15
621.242	1	-2
621.412	1	6
621.582	1	0
621.751	1	-1
621.921	1	3
622.091	1	9
622.260	1	3
622.430	1	6
622.599	1	5
622.769	1	7
622.939	1	3
623.108	1	-1
623.278	1	4
623.448	1	-1
623.617	1	-9
623.787	1	5
623.956	1	17
624.126	1	7
624.296	1	-1
624.465	1	2
624.635	1	10
624.804	1	4
624.974	1	1
625.144	1	2
625.313	1	10
625.483	1	10
625.652	1	10
625.822	1	-4
625.992	1	7
626.161	1	19
626.331	1	-3
626.501	1	0
626.670	1	7
626.840	1	8
627.009	1	18
627.179	1	-8
627.348	1	5
627.518	1	1
627.688	1	12
627.857	1	13
628.027	1	7
628.196	1	6
628.366	1	9
628.536	1	-3
628.705	1	9
628.875	1	14
629.044	1	6
629.214	1	0
629.384	1	11
629.553	1	5
629.723	1	4
629.892	1	3
630.062	1	-2
630.232	1	4
630.401	1	10
630.571	1	13
630.740	1	10
630.910	1	2
631.079	1	-5
631.249	1	-1
631.419	1	5
631.588	1	1
631.758	1	13
631.927	1	3
632.097	1	-11
632.266	1	6
632.436	1	5
632.606	1	8
632.775	1	2
632.945	1	-5
633.114	1	-6
633.284	1	15
633.453	1	0
633.623	1	10
633.793	1	8
633.962	1	3
634.132	1	12
634.301	1	-4
634.471	1	15
634.640	1	8
634.810	1	-1
634.979	1	-1
635.149	1	6
635.319	1	12
635.488	1	-4
635.658	1	10
635.827	1	0
635.997	1	13
636.166	1	-13
636.336	1	13
636.505	1	0
636.675	1	7
636.845	1	3
637.014	1	17
637.184	1	-6
637.353	1	6
637.523	1	9
637.692	1	4
637.862	1	11
638.031	1	7
638.201	1	7
638.370	1	-6
638.540	1	10
638.710	1	5
638.879	1	5
639.049	1	-2
639.218	1	8
639.388	1	6
639.557	1	4
639.727	1	5
639.896	1	4
640.066	1	10
640.235	1	4
640.405	1	7
640.574	1	4
640.744	1	7
640.914	1	-7
641.083	1	13
641.253	1	8
641.422	1	1
641.592	1	19
641.761	1	5
641.931	1	2
642.100	1	-12
642.270	1	-2
642.439	1	3
642.609	1	-1
642.778	1	0
642.948	1	9
643.117	1	12
643.287	1	4
643.456	1	10
643.626	1	7
643.795	1	6
643.965	1	3
644.134	1	-4
644.304	1	1
644.473	1	13
644.643	1	3
644.812	1	1
644.982	1	7
645.151	1	6
645.321	1	-3
645.490	1	18
645.660	1	1
645.829	1	7
645.999	1	3
646.168	1	3
646.338	1	5
646.507	1	11
646.677	1	0
646.846	1	13
647.016	1	11
647.185	1	3
647.355	1	15
647.524	1	3
647.694	1	6
647.863	1	5
648.033	1	2
648.202	1	11
648.372	1	7
648.541	1	-2
648.711	1	9
648.880	1	18
649.050	1	1
649.219	1	6
649.389	1	10
649.558	1	10
649.728	1	5
649.897	1	7
650.067	1	-1
650.236	1	7
650.406	1	10
650.575	1	0
650.745	1	16
650.914	1	1
651.084	1	6
651.253	1	9
651.423	1	7
651.592	1	7
651.762	1	3
651.931	1	7
652.101	1	8
652.270	1	-8
652.440	1	-2
652.609	1	2
652.778	1	11
652.948	1	6
653.117	1	5
653.287	1	-7
653.456	1	7
653.626	1	8
653.795	1	0
653.965	1	6
654.134	1	12
654.304	1	-4
654.473	1	8
654.643	1	-4
654.812	1	14
654.982	1	2
655.151	1	10
655.320	1	10
655.490	1	10
655.659	1	4
655.829	1	0
655.998	1	5
656.168	1	-9
656.337	1	6
656.507	1	-2
656.676	1	-1
656.846	1	4
657.015	1	18
657.184	1	1
657.354	1	8
657.523	1	6
657.693	1	-4
657.862	1	-9
658.032	1	5
658.201	1	2
658.371	1	19
658.540	1	4
658.709	1	11
658.879	1	11
659.048	1	13
659.218	1	5
659.387	1	0
659.557	1	13
659.726	1	11
659.895	1	-2
660.065	1	-8
660.234	1	7
660.404	1	1
660.573	1	-3
660.743	1	6
660.912	1	5
661.081	1	12
661.251	1	-2
661.420	1	15
661.590	1	3
661.759	1	0
661.929	1	1
662.098	1	2
662.267	1	0
662.437	1	9
662.606	1	13
662.776	1	8
662.945	1	8
663.115	1	9
663.284	1	3
663.453	1	1
663.623	1	2
663.792	1	4
663.962	1	0
664.131	1	15
664.300	1	17
664.470	1	13
664.639	1	0
664.809	1	8
664.978	1	-5
665.148	1	5
665.317	1	-5
665.486	1	8
665.656	1	3
665.825	1	10
665.995	1	5
666.164	1	-1
666.333	1	7
666.503	1	11
666.672	1	8
666.842	1	5
667.011	1	14
667.180	1	5
667.350	1	8
667.519	1	2
667.689	1	9
667.858	1	1
668.027	1	-5
668.197	1	15
668.366	1	8
668.536	1	8
668.705	1	13
668.874	1	0
669.044	1	2
669.213	1	3
669.382	1	3
669.552	1	12
669.721	1	10
669.891	1	2
670.060	1	6
670.229	1	-9
670.399	1	7
670.568	1	5
670.738	1	11
670.907	1	-2
671.076	1	18
671.246	1	-1
671.415	1	-4
671.584	1	8
671.754	1	6
671.923	1	9
672.093	1	2
672.262	1	9
672.431	1	1
672.601	1	8
672.770	1	0
672.939	1	8
673.109	1	0
673.278	1	-2
673.448	1	2
673.617	1	3
673.786	1	14
