325.333	1	8
325.504	1	4
325.675	1	-4
325.846	1	0
326.017	1	9
326.188	1	0
326.359	1	5
326.531	1	5
326.702	1	1
326.873	1	-8
327.044	1	1
327.215	1	8
327.386	1	-7
327.557	1	-2
327.728	1	1
327.899	1	-1
328.070	1	-1
328.241	1	12
328.412	1	-7
328.583	1	-6
328.754	1	-3
328.926	1	-3
329.097	1	0
329.268	1	-7
329.439	1	3
329.610	1	2
329.781	1	1
329.952	1	-1
330.123	1	-5
330.294	1	0
330.465	1	6
330.636	1	-2
330.807	1	5
330.978	1	6
331.149	1	4
331.320	1	6
331.492	1	2
331.663	1	-3
331.834	1	-2
332.005	1	-1
332.176	1	8
332.347	1	-6
332.518	1	13
332.689	1	-8
332.860	1	2
333.031	1	1
333.202	1	-8
333.373	1	2
333.544	1	3
333.715	1	-1
333.886	1	-4
334.057	1	10
334.228	1	10
334.399	1	0
334.570	1	12
334.741	1	-8
334.912	1	2
335.084	1	2
335.255	1	17
335.426	1	-3
335.597	1	6
335.768	1	11
335.939	1	4
336.110	1	2
336.281	1	5
336.452	1	2
336.623	1	0
336.794	1	6
336.965	1	2
337.136	1	-10
337.307	1	4
337.478	1	-7
337.649	1	-7
337.820	1	16
337.991	1	6
338.162	1	-6
338.333	1	-6
338.504	1	-1
338.675	1	0
338.846	1	15
339.017	1	-10
339.188	1	3
339.359	1	1
339.530	1	-1
339.701	1	-8
339.872	1	1
340.043	1	6
340.214	1	1
340.385	1	-7
340.556	1	7
340.727	1	5
340.898	1	-1
341.069	1	-3
341.240	1	-1
341.411	1	9
341.582	1	7
341.753	1	-2
341.924	1	6
342.095	1	1
342.266	1	-8
342.437	1	4
342.608	1	4
342.779	1	3
342.950	1	-4
343.121	1	-6
343.292	1	0
343.463	1	0
343.634	1	5
343.805	1	3
343.976	1	2
344.147	1	3
344.318	1	12
344.489	1	-2
344.660	1	3
344.831	1	0
345.002	1	-2
345.173	1	2
345.344	1	-2
345.515	1	2
345.686	1	-6
345.857	1	2
346.028	1	1
346.199	1	-5
346.370	1	6
346.541	1	0
346.712	1	2
346.883	1	-5
347.054	1	5
347.225	1	-5
347.396	1	0
347.567	1	6
347.738	1	-8
347.909	1	0
348.080	1	1
348.251	1	3
348.422	1	1
348.593	1	10
348.764	1	4
348.935	1	-4
349.106	1	-12
349.277	1	-6
349.448	1	8
349.619	1	-5
349.790	1	-8
349.961	1	7
350.132	1	2
350.303	1	5
350.474	1	3
350.645	1	8
350.816	1	-4
350.987	1	4
351.157	1	-10
351.328	1	7
351.499	1	-3
351.670	1	4
351.841	1	3
352.012	1	0
352.183	1	4
352.354	1	10
352.525	1	11
352.696	1	-1
352.867	1	-10
353.038	1	2
353.209	1	3
353.380	1	-1
353.551	1	1
353.722	1	2
353.893	1	0
354.064	1	9
354.235	1	-12
354.406	1	8
354.576	1	-8
354.747	1	5
354.918	1	-1
355.089	1	8
355.260	1	-2
355.431	1	1
355.602	1	-7
355.773	1	-7
355.944	1	1
356.115	1	8
356.286	1	1
356.457	1	3
356.628	1	15
356.799	1	1
356.970	1	8
357.141	1	-5
357.311	1	4
357.482	1	-3
357.653	1	-3
357.824	1	-3
357.995	1	2
358.166	1	9
358.337	1	-2
358.508	1	-12
358.679	1	0
358.850	1	3
359.021	1	0
359.192	1	-7
359.363	1	4
359.533	1	-3
359.704	1	-9
359.875	1	0
360.046	1	-3
360.217	1	4
360.388	1	1
360.559	1	15
360.730	1	2
360.901	1	8
361.072	1	2
361.243	1	7
361.414	1	-9
361.584	1	5
361.755	1	3
361.926	1	-1
362.097	1	7
362.268	1	6
362.439	1	-1
362.610	1	8
362.781	1	-7
362.952	1	2
363.123	1	7
363.293	1	-2
363.464	1	8
363.635	1	6
363.806	1	-6
363.977	1	-1
364.148	1	-14
364.319	1	6
364.490	1	2
364.661	1	-3
364.832	1	-3
365.002	1	-1
365.173	1	-3
365.344	1	5
365.515	1	0
365.686	1	-14
365.857	1	6
366.028	1	-4
366.199	1	8
366.370	1	-4
366.540	1	2
366.711	1	-5
366.882	1	6
367.053	1	-3
367.224	1	3
367.395	1	4
367.566	1	2
367.737	1	-4
367.908	1	11
368.078	1	-1
368.249	1	-6
368.420	1	-4
368.591	1	5
368.762	1	-3
368.933	1	5
369.104	1	0
369.274	1	7
369.445	1	11
369.616	1	-3
369.787	1	-6
369.958	1	0
370.129	1	2
370.300	1	8
370.471	1	6
370.641	1	2
370.812	1	0
370.983	1	-5
371.154	1	1
371.325	1	-5
371.496	1	-10
371.667	1	-3
371.837	1	2
372.008	1	10
372.179	1	-10
372.350	1	12
372.521	1	3
372.692	1	-3
372.863	1	11
373.033	1	-9
373.204	1	-2
373.375	1	-8
373.546	1	-2
373.717	1	-12
373.888	1	1
374.059	1	-3
374.229	1	0
374.400	1	0
374.571	1	-5
374.742	1	-1
374.913	1	-8
375.084	1	6
375.254	1	0
375.425	1	-2
375.596	1	-7
375.767	1	5
375.938	1	8
376.109	1	10
376.279	1	-10
376.450	1	8
376.621	1	4
376.792	1	8
376.963	1	-6
377.134	1	-1
377.304	1	3
377.475	1	2
377.646	1	2
377.817	1	7
377.988	1	-2
378.159	1	-4
378.329	1	3
378.500	1	-7
378.671	1	0
378.842	1	-1
379.013	1	0
379.184	1	-4
379.354	1	1
379.525	1	-6
379.696	1	9
379.867	1	0
380.038	1	1
380.209	1	-3
380.379	1	2
380.550	1	3
380.721	1	4
380.892	1	-3
381.063	1	-13
381.233	1	5
381.404	1	13
381.575	1	14
381.746	1	-7
381.917	1	-2
382.087	1	1
382.258	1	-1
382.429	1	-7
382.600	1	15
382.771	1	6
382.941	1	-8
383.112	1	-5
383.283	1	-1
383.454	1	-3
383.625	1	-5
383.795	1	11
383.966	1	-3
384.137	1	0
384.308	1	-1
384.479	1	4
384.649	1	6
384.820	1	10
384.991	1	-2
385.162	1	7
385.333	1	-10
385.503	1	0
385.674	1	3
385.845	1	11
386.016	1	0
386.187	1	-3
386.357	1	8
386.528	1	-1
386.699	1	7
386.870	1	-8
387.041	1	5
387.211	1	-5
387.382	1	-7
387.553	1	-5
387.724	1	2
387.894	1	9
388.065	1	5
388.236	1	3
388.407	1	5
388.578	1	-2
388.748	1	-3
388.919	1	-1
389.090	1	0
389.261	1	0
389.431	1	4
389.602	1	1
389.773	1	0
389.944	1	4
390.114	1	3
390.285	1	5
390.456	1	8
390.627	1	1
390.798	1	-5
390.968	1	-10
391.139	1	14
391.310	1	10
391.481	1	5
391.651	1	-2
391.822	1	7
391.993	1	9
392.164	1	-4
392.334	1	2
392.505	1	2
392.676	1	2
392.847	1	-3
393.017	1	-1
393.188	1	7
393.359	1	-12
393.530	1	11
393.700	1	-2
393.871	1	8
394.042	1	-18
394.213	1	3
394.383	1	8
394.554	1	-1
394.725	1	0
394.896	1	-2
395.066	1	6
395.237	1	2
395.408	1	1
395.579	1	-8
395.749	1	-11
395.920	1	-1
396.091	1	2
396.262	1	-3
396.432	1	7
396.603	1	1
396.774	1	-9
396.945	1	-5
397.115	1	7
397.286	1	-7
397.457	1	5
397.627	1	12
397.798	1	4
397.969	1	-10
398.140	1	2
398.310	1	-3
398.481	1	7
398.652	1	4
398.823	1	-4
398.993	1	-7
399.164	1	-3
399.335	1	10
399.505	1	4
399.676	1	4
399.847	1	6
400.018	1	4
400.188	1	-2
400.359	1	0
400.530	1	2
400.700	1	1
400.871	1	5
401.042	1	5
401.213	1	5
401.383	1	-6
401.554	1	-4
401.725	1	3
401.895	1	4
402.066	1	-10
402.237	1	-14
402.408	1	-1
402.578	1	-1
402.749	1	0
402.920	1	2
403.090	1	5
403.261	1	7
403.432	1	-1
403.603	1	6
403.773	1	6
403.944	1	6
404.115	1	-8
404.285	1	-3
404.456	1	-3
404.627	1	0
404.797	1	0
404.968	1	14
405.139	1	-2
405.310	1	0
405.480	1	-1
405.651	1	-6
405.822	1	5
405.992	1	4
406.163	1	3
406.334	1	5
406.504	1	-13
406.675	1	4
406.846	1	6
407.016	1	-5
407.187	1	-2
407.358	1	3
407.528	1	1
407.699	1	-1
407.870	1	-9
408.041	1	6
408.211	1	-7
408.382	1	9
408.553	1	2
408.723	1	-3
408.894	1	7
409.065	1	-5
409.235	1	-8
409.406	1	-3
409.577	1	8
409.747	1	3
409.918	1	7
410.089	1	-1
410.259	1	3
410.430	1	0
410.601	1	2
410.771	1	-5
410.942	1	8
411.113	1	7
411.283	1	-4
411.454	1	-11
411.625	1	-4
411.795	1	6
411.966	1	1
412.137	1	5
412.307	1	3
412.478	1	2
412.649	1	-4
412.819	1	9
412.990	1	-4
413.161	1	7
413.331	1	-3
413.502	1	8
413.672	1	-4
413.843	1	-8
414.014	1	1
414.184	1	-4
414.355	1	8
414.526	1	-9
414.696	1	-2
414.867	1	-1
415.038	1	8
415.208	1	-5
415.379	1	-4
415.550	1	-1
415.720	1	2
415.891	1	-9
416.062	1	5
416.232	1	-4
416.403	1	3
416.573	1	3
416.744	1	1
416.915	1	0
417.085	1	-5
417.256	1	1
417.427	1	-10
417.597	1	2
417.768	1	9
417.939	1	0
418.109	1	0
418.280	1	-6
418.450	1	-1
418.621	1	1
418.792	1	8
418.962	1	3
419.133	1	-2
419.304	1	7
419.474	1	1
419.645	1	-8
419.815	1	-7
419.986	1	3
420.157	1	3
420.327	1	3
420.498	1	1
420.669	1	1
420.839	1	3
421.010	1	-4
421.180	1	-1
421.351	1	8
421.522	1	10
421.692	1	-5
421.863	1	2
422.033	1	5
422.204	1	-3
422.375	1	4
422.545	1	7
422.716	1	11
422.886	1	5
423.057	1	13
423.228	1	3
423.398	1	0
423.569	1	9
423.740	1	3
423.910	1	7
424.081	1	-9
424.251	1	-3
424.422	1	-4
424.593	1	4
424.763	1	2
424.934	1	-6
425.104	1	-5
425.275	1	2
425.445	1	-1
425.616	1	10
425.787	1	4
425.957	1	6
426.128	1	-4
426.298	1	-14
426.469	1	1
426.640	1	-6
426.810	1	2
426.981	1	-3
427.151	1	4
427.322	1	12
427.493	1	-2
427.663	1	-5
427.834	1	2
428.004	1	0
428.175	1	-10
428.345	1	-2
428.516	1	-2
428.687	1	2
428.857	1	5
429.028	1	-5
429.198	1	1
429.369	1	-8
429.540	1	1
429.710	1	9
429.881	1	0
430.051	1	-1
430.222	1	-3
430.392	1	6
430.563	1	5
430.734	1	-4
430.904	1	5
431.075	1	4
431.245	1	-1
431.416	1	3
431.586	1	-8
431.757	1	11
431.927	1	-1
432.098	1	-5
432.269	1	6
432.439	1	-11
432.610	1	-7
432.780	1	-12
432.951	1	13
433.121	1	4
433.292	1	-3
433.462	1	-5
433.633	1	6
433.804	1	-9
433.974	1	2
434.145	1	-11
434.315	1	4
434.486	1	8
434.656	1	0
434.827	1	3
434.997	1	-1
435.168	1	5
435.339	1	-3
435.509	1	1
435.680	1	0
435.850	1	0
436.021	1	-10
436.191	1	0
436.362	1	7
436.532	1	3
436.703	1	-2
436.873	1	1
437.044	1	12
437.214	1	0
437.385	1	7
437.556	1	-19
437.726	1	0
437.897	1	-11
438.067	1	-2
438.238	1	-2
438.408	1	-5
438.579	1	5
438.749	1	-7
438.920	1	-10
439.090	1	-1
439.261	1	2
439.431	1	10
439.602	1	6
439.772	1	7
439.943	1	-5
440.113	1	2
440.284	1	8
440.455	1	-6
440.625	1	0
440.796	1	0
440.966	1	1
441.137	1	-1
441.307	1	9
441.478	1	8
441.648	1	-6
441.819	1	-5
441.989	1	-2
442.160	1	14
442.330	1	-6
442.501	1	2
442.671	1	4
442.842	1	4
443.012	1	-4
443.183	1	5
443.353	1	1
443.524	1	-1
443.694	1	7
443.865	1	1
444.035	1	-8
444.206	1	-1
444.376	1	8
444.547	1	-5
444.717	1	3
444.888	1	4
445.058	1	-1
445.229	1	3
445.399	1	-2
445.570	1	0
445.740	1	8
445.911	1	-7
446.081	1	0
446.252	1	-5
446.422	1	0
446.593	1	-5
446.763	1	8
446.934	1	2
447.104	1	-1
447.275	1	4
447.445	1	9
447.616	1	6
447.786	1	4
447.957	1	6
448.127	1	2
448.298	1	6
448.468	1	4
448.639	1	-2
448.809	1	-4
448.979	1	4
449.150	1	4
449.320	1	-5
449.491	1	1
449.661	1	1
449.832	1	2
450.002	1	0
450.173	1	3
450.343	1	-10
450.514	1	-2
450.684	1	-1
450.855	1	3
451.025	1	2
451.196	1	-1
451.366	1	-2
451.537	1	-6
451.707	1	7
451.878	1	2
452.048	1	-1
452.218	1	-2
452.389	1	-9
452.559	1	-7
452.730	1	1
452.900	1	-3
453.071	1	-7
453.241	1	6
453.412	1	4
453.582	1	0
453.753	1	-2
453.923	1	-2
454.093	1	9
454.264	1	3
454.434	1	3
454.605	1	-6
454.775	1	-11
454.946	1	-5
455.116	1	3
455.287	1	-2
455.457	1	9
455.628	1	1
455.798	1	-8
455.968	1	-10
456.139	1	-4
456.309	1	2
456.480	1	-2
456.650	1	0
456.821	1	1
456.991	1	1
457.161	1	4
457.332	1	-4
457.502	1	7
457.673	1	-2
457.843	1	-7
458.014	1	-8
458.184	1	12
458.355	1	20
458.525	1	3
458.695	1	1
458.866	1	4
459.036	1	-8
459.207	1	-5
459.377	1	13
459.548	1	-10
459.718	1	-3
459.888	1	6
460.059	1	1
460.229	1	6
460.400	1	-11
460.570	1	6
460.740	1	-11
460.911	1	-4
461.081	1	3
461.252	1	-1
461.422	1	8
461.593	1	5
461.763	1	-5
461.933	1	4
462.104	1	2
462.274	1	-12
462.445	1	-1
462.615	1	1
462.785	1	-1
462.956	1	-3
463.126	1	11
463.297	1	-9
463.467	1	-1
463.638	1	7
463.808	1	3
463.978	1	-3
464.149	1	4
464.319	1	-6
464.490	1	-7
464.660	1	3
464.830	1	3
465.001	1	11
465.171	1	15
465.342	1	13
465.512	1	5
465.682	1	12
465.853	1	-2
466.023	1	-3
466.194	1	0
466.364	1	-10
466.534	1	9
466.705	1	10
466.875	1	1
467.045	1	0
467.216	1	10
467.386	1	9
467.557	1	-7
467.727	1	-9
467.897	1	0
468.068	1	14
468.238	1	-1
468.409	1	-9
468.579	1	8
468.749	1	5
468.920	1	-3
469.090	1	-6
469.260	1	5
469.431	1	-6
469.601	1	6
469.772	1	1
469.942	1	7
470.112	1	-3
470.283	1	-2
470.453	1	-2
470.623	1	-3
470.794	1	0
470.964	1	-5
471.135	1	15
471.305	1	3
471.475	1	6
471.646	1	10
471.816	1	8
471.986	1	0
472.157	1	-4
472.327	1	1
472.497	1	-2
472.668	1	-11
472.838	1	-5
473.009	1	-1
473.179	1	4
473.349	1	5
473.520	1	-3
473.690	1	5
473.860	1	-5
474.031	1	3
474.201	1	3
474.371	1	5
474.542	1	-9
474.712	1	2
474.882	1	4
475.053	1	5
475.223	1	0
475.394	1	8
475.564	1	-1
475.734	1	1
475.905	1	-10
476.075	1	2
476.245	1	-12
476.416	1	3
476.586	1	-5
476.756	1	1
476.927	1	3
477.097	1	4
477.267	1	1
477.438	1	-14
477.608	1	-13
477.778	1	5
477.949	1	2
478.119	1	-2
478.289	1	6
478.460	1	8
478.630	1	-11
478.800	1	-3
478.971	1	3
479.141	1	4
479.311	1	-6
479.482	1	-1
479.652	1	0
479.822	1	-1
479.993	1	-2
480.163	1	2
480.333	1	4
480.504	1	2
480.674	1	1
480.844	1	-5
481.015	1	-10
481.185	1	-8
481.355	1	-1
481.525	1	8
481.696	1	-3
481.866	1	8
482.036	1	-2
482.207	1	3
482.377	1	-5
482.547	1	-10
482.718	1	-4
482.888	1	-4
483.058	1	-5
483.229	1	-9
483.399	1	-2
483.569	1	1
483.740	1	4
483.910	1	10
484.080	1	3
484.250	1	8
484.421	1	-5
484.591	1	-11
484.761	1	7
484.932	1	-3
485.102	1	-4
485.272	1	5
485.443	1	-2
485.613	1	-3
485.783	1	-2
485.953	1	-2
486.124	1	13
486.294	1	3
486.464	1	-3
486.635	1	-1
486.805	1	8
486.975	1	-10
487.146	1	-9
487.316	1	2
487.486	1	8
487.656	1	-10
487.827	1	-3
487.997	1	8
488.167	1	-1
488.338	1	11
488.508	1	5
488.678	1	1
488.848	1	3
489.019	1	-6
489.189	1	-4
489.359	1	2
489.529	1	7
489.700	1	-1
489.870	1	5
490.040	1	14
490.211	1	3
490.381	1	3
490.551	1	-5
490.721	1	-1
490.892	1	8
491.062	1	2
491.232	1	-1
491.402	1	6
491.573	1	1
491.743	1	-1
491.913	1	2
492.084	1	11
492.254	1	0
492.424	1	-3
492.594	1	1
492.765	1	-3
492.935	1	-13
493.105	1	7
493.275	1	-6
493.446	1	1
493.616	1	3
493.786	1	-1
493.956	1	-2
494.127	1	1
494.297	1	-1
494.467	1	-3
494.637	1	-2
494.808	1	5
494.978	1	1
495.148	1	5
495.318	1	-6
495.489	1	8
495.659	1	1
495.829	1	4
495.999	1	-7
496.170	1	-3
496.340	1	-3
496.510	1	7
496.680	1	-7
496.851	1	4
497.021	1	3
497.191	1	3
497.361	1	-1
497.532	1	15
497.702	1	-8
497.872	1	0
498.042	1	0
498.213	1	-2
498.383	1	4
498.553	1	2
498.723	1	2
498.894	1	-6
499.064	1	7
499.234	1	0
499.404	1	-12
499.574	1	-1
499.745	1	-5
499.915	1	-5
500.085	1	1
500.255	1	3
500.426	1	-2
500.596	1	0
500.766	1	9
500.936	1	0
501.106	1	2
501.277	1	3
501.447	1	1
501.617	1	6
501.787	1	3
501.958	1	12
502.128	1	6
502.298	1	6
502.468	1	8
502.638	1	5
502.809	1	-4
502.979	1	1
503.149	1	2
503.319	1	2
503.489	1	6
503.660	1	2
503.830	1	1
504.000	1	-1
504.170	1	6
504.340	1	4
504.511	1	4
504.681	1	2
504.851	1	0
505.021	1	-1
505.192	1	-2
505.362	1	-9
505.532	1	1
505.702	1	0
505.872	1	6
506.043	1	4
506.213	1	-1
506.383	1	1
506.553	1	7
506.723	1	-6
506.893	1	-8
507.064	1	6
507.234	1	2
507.404	1	-3
507.574	1	13
507.744	1	8
507.915	1	10
508.085	1	-7
508.255	1	16
508.425	1	-7
508.595	1	4
508.766	1	-11
508.936	1	-14
509.106	1	7
509.276	1	4
509.446	1	2
509.616	1	11
509.787	1	-4
509.957	1	5
510.127	1	-4
510.297	1	-8
510.467	1	-3
510.638	1	0
510.808	1	3
510.978	1	13
511.148	1	2
511.318	1	-10
511.488	1	-2
511.659	1	-2
511.829	1	-3
511.999	1	5
512.169	1	7
512.339	1	-1
512.509	1	1
512.680	1	9
512.850	1	10
513.020	1	1
513.190	1	2
513.360	1	-3
513.530	1	10
513.700	1	4
513.871	1	2
514.041	1	1
514.211	1	4
514.381	1	-5
514.551	1	-3
514.721	1	-1
514.892	1	-3
515.062	1	1
515.232	1	-10
515.402	1	-3
515.572	1	-4
515.742	1	-3
515.912	1	1
516.083	1	1
516.253	1	-1
516.423	1	1
516.593	1	-10
516.763	1	-1
516.933	1	-8
517.104	1	-2
517.274	1	-4
517.444	1	6
517.614	1	1
517.784	1	-4
517.954	1	-6
518.124	1	3
518.294	1	5
518.465	1	-2
518.635	1	2
518.805	1	3
518.975	1	0
519.145	1	-3
519.315	1	17
519.485	1	1
519.656	1	4
519.826	1	12
519.996	1	8
520.166	1	-2
520.336	1	-5
520.506	1	-12
520.676	1	-6
520.846	1	8
521.017	1	-2
521.187	1	6
521.357	1	-7
521.527	1	11
521.697	1	-5
521.867	1	2
522.037	1	-3
522.207	1	3
522.377	1	9
522.548	1	-4
522.718	1	-1
522.888	1	-6
523.058	1	-5
523.228	1	-1
523.398	1	4
523.568	1	-2
523.738	1	3
523.909	1	-5
524.079	1	-10
524.249	1	-10
524.419	1	1
524.589	1	8
524.759	1	-1
524.929	1	-1
525.099	1	-4
525.269	1	8
525.439	1	9
525.610	1	1
525.780	1	6
525.950	1	-15
526.120	1	-10
526.290	1	-12
526.460	1	2
526.630	1	6
526.800	1	1
526.970	1	-2
527.140	1	6
527.311	1	1
527.481	1	-9
527.651	1	-7
527.821	1	-1
527.991	1	-2
528.161	1	-6
528.331	1	8
528.501	1	1
528.671	1	-3
528.841	1	2
529.011	1	10
529.181	1	-6
529.352	1	11
529.522	1	3
529.692	1	0
529.862	1	-5
530.032	1	-2
530.202	1	-3
530.372	1	-3
530.542	1	7
530.712	1	15
530.882	1	0
531.052	1	3
531.222	1	-3
531.392	1	-8
531.563	1	-7
531.733	1	-8
531.903	1	1
532.073	1	-4
532.243	1	7
532.413	1	6
532.583	1	-4
532.753	1	11
532.923	1	1
533.093	1	1
533.263	1	13
533.433	1	-4
533.603	1	8
533.773	1	-12
533.943	1	1
534.113	1	0
534.284	1	-1
534.454	1	2
534.624	1	-1
534.794	1	1
534.964	1	2
535.134	1	2
535.304	1	-1
535.474	1	3
535.644	1	1
535.814	1	0
535.984	1	-8
536.154	1	14
536.324	1	-1
536.494	1	-3
536.664	1	-1
536.834	1	-3
537.004	1	-13
537.174	1	11
537.344	1	1
537.514	1	14
537.685	1	0
537.855	1	3
538.025	1	10
538.195	1	0
538.365	1	-3
538.535	1	-7
538.705	1	-7
538.875	1	0
539.045	1	5
539.215	1	3
539.385	1	-2
539.555	1	1
539.725	1	4
539.895	1	-6
540.065	1	-6
540.235	1	-6
540.405	1	-3
540.575	1	-1
540.745	1	12
540.915	1	9
541.085	1	-2
541.255	1	-2
541.425	1	1
541.595	1	9
541.765	1	2
541.935	1	4
542.105	1	8
542.275	1	2
542.445	1	0
542.615	1	-7
542.785	1	-13
542.955	1	-2
543.125	1	-5
543.295	1	-4
543.465	1	5
543.635	1	-1
543.805	1	-1
543.975	1	-1
544.145	1	-9
544.315	1	4
544.485	1	-2
544.655	1	10
544.825	1	-4
544.995	1	-9
545.165	1	7
545.335	1	-3
545.505	1	6
545.675	1	-5
545.845	1	0
546.015	1	0
546.185	1	2
546.355	1	-4
546.525	1	-4
546.695	1	-1
546.865	1	4
547.035	1	4
547.205	1	5
547.375	1	-3
547.545	1	9
547.715	1	2
547.885	1	1
548.055	1	4
548.225	1	-1
548.395	1	1
548.565	1	3
548.735	1	7
548.905	1	-3
549.075	1	-2
549.245	1	3
549.415	1	-11
549.585	1	0
549.755	1	5
549.925	1	11
550.095	1	4
550.265	1	-5
550.435	1	8
550.605	1	-10
550.775	1	10
550.945	1	1
551.115	1	8
551.285	1	-10
551.455	1	1
551.625	1	14
551.795	1	0
551.965	1	1
552.135	1	10
552.305	1	10
552.475	1	6
552.645	1	7
552.815	1	6
552.985	1	6
553.155	1	1
553.325	1	-3
553.495	1	0
553.665	1	-6
553.835	1	-1
554.004	1	9
554.174	1	-1
554.344	1	-7
554.514	1	-2
554.684	1	-6
554.854	1	5
555.024	1	0
555.194	1	1
555.364	1	3
555.534	1	3
555.704	1	-3
555.874	1	-1
556.044	1	10
556.214	1	-10
556.384	1	3
556.554	1	11
556.724	1	7
556.894	1	-5
557.064	1	7
557.234	1	3
557.404	1	7
557.573	1	-21
557.743	1	-5
557.913	1	-2
558.083	1	5
558.253	1	7
558.423	1	6
558.593	1	14
558.763	1	0
558.933	1	5
559.103	1	-6
559.273	1	4
559.443	1	0
559.613	1	3
559.783	1	2
559.953	1	1
560.122	1	9
560.292	1	-4
560.462	1	3
560.632	1	-5
560.802	1	1
560.972	1	-4
561.142	1	-10
561.312	1	-1
561.482	1	6
561.652	1	-6
561.822	1	1
561.992	1	2
562.162	1	-2
562.331	1	5
562.501	1	-10
562.671	1	-4
562.841	1	-19
563.011	1	-9
563.181	1	4
563.351	1	7
563.521	1	3
563.691	1	-4
563.861	1	6
564.031	1	9
564.201	1	8
564.370	1	-8
564.540	1	0
564.710	1	-7
564.880	1	3
565.050	1	1
565.220	1	1
565.390	1	0
565.560	1	3
565.730	1	-2
565.900	1	-1
566.069	1	3
566.239	1	-2
566.409	1	-10
566.579	1	1
566.749	1	2
566.919	1	11
567.089	1	10
567.259	1	-5
567.429	1	4
567.599	1	1
567.768	1	1
567.938	1	0
568.108	1	1
568.278	1	-4
568.448	1	-8
568.618	1	-6
568.788	1	7
568.958	1	1
569.128	1	11
569.297	1	-3
569.467	1	10
569.637	1	-10
569.807	1	-2
569.977	1	10
570.147	1	6
570.317	1	-12
570.487	1	5
570.656	1	4
570.826	1	-3
570.996	1	4
571.166	1	2
571.336	1	2
571.506	1	0
571.676	1	-4
571.846	1	14
572.015	1	-3
572.185	1	9
572.355	1	1
572.525	1	-4
572.695	1	-7
572.865	1	-7
573.035	1	-4
573.205	1	-5
573.374	1	10
573.544	1	5
573.714	1	3
573.884	1	7
574.054	1	11
574.224	1	-2
574.394	1	7
574.563	1	5
574.733	1	2
574.903	1	0
575.073	1	-4
575.243	1	-3
575.413	1	1
575.583	1	2
575.752	1	11
575.922	1	2
576.092	1	4
576.262	1	3
576.432	1	-1
576.602	1	-5
576.772	1	6
576.941	1	10
577.111	1	-6
577.281	1	9
577.451	1	-1
577.621	1	3
577.791	1	6
577.960	1	0
578.130	1	-5
578.300	1	-10
578.470	1	6
578.640	1	-5
578.810	1	-9
578.979	1	-6
579.149	1	-3
579.319	1	13
579.489	1	3
579.659	1	3
579.829	1	-8
579.998	1	3
580.168	1	0
580.338	1	9
580.508	1	5
580.678	1	6
580.848	1	5
581.017	1	14
581.187	1	-4
581.357	1	-6
581.527	1	4
581.697	1	-1
581.867	1	0
582.036	1	7
582.206	1	3
582.376	1	4
582.546	1	1
582.716	1	11
582.885	1	-3
583.055	1	-1
583.225	1	5
583.395	1	12
583.565	1	6
583.735	1	5
583.904	1	8
584.074	1	-2
584.244	1	-5
584.414	1	-3
584.584	1	4
584.753	1	-8
584.923	1	-3
585.093	1	1
585.263	1	11
585.433	1	0
585.602	1	9
585.772	1	2
585.942	1	-1
586.112	1	1
586.282	1	6
586.451	1	3
586.621	1	2
586.791	1	-4
586.961	1	3
587.131	1	0
587.300	1	-3
587.470	1	-8
587.640	1	-3
587.810	1	4
587.980	1	-2
588.149	1	5
588.319	1	-10
588.489	1	4
588.659	1	0
588.829	1	-5
588.998	1	10
589.168	1	2
589.338	1	4
589.508	1	-1
589.677	1	6
589.847	1	-5
590.017	1	6
590.187	1	5
590.357	1	0
590.526	1	-2
590.696	1	2
590.866	1	8
591.036	1	5
591.205	1	2
591.375	1	-1
591.545	1	4
591.715	1	3
591.885	1	5
592.054	1	9
592.224	1	3
592.394	1	-1
592.564	1	1
592.733	1	3
592.903	1	-8
593.073	1	1
593.243	1	-3
593.412	1	-8
593.582	1	6
593.752	1	2
593.922	1	-11
594.091	1	2
594.261	1	4
594.431	1	-3
594.601	1	3
594.771	1	5
594.940	1	-7
595.110	1	1
595.280	1	6
595.450	1	-5
595.619	1	9
595.789	1	0
595.959	1	14
596.129	1	-1
596.298	1	-10
596.468	1	-1
596.638	1	-12
596.808	1	5
596.977	1	-3
597.147	1	12
597.317	1	-4
597.487	1	1
597.656	1	10
597.826	1	3
597.996	1	3
598.166	1	8
598.335	1	-4
598.505	1	1
598.675	1	12
598.844	1	3
599.014	1	4
599.184	1	-2
599.354	1	-1
599.523	1	8
599.693	1	6
599.863	1	-2
600.033	1	-4
600.202	1	-1
600.372	1	-3
600.542	1	6
600.712	1	-10
600.881	1	2
601.051	1	-10
601.221	1	-2
601.390	1	12
601.560	1	3
601.730	1	7
601.900	1	1
602.069	1	-1
602.239	1	-7
602.409	1	4
602.578	1	3
602.748	1	-5
602.918	1	-6
603.088	1	-3
603.257	1	-6
603.427	1	7
603.597	1	6
603.767	1	7
603.936	1	-2
604.106	1	9
604.276	1	-6
604.445	1	14
604.615	1	-11
604.785	1	6
604.954	1	1
605.124	1	-10
605.294	1	3
605.464	1	-4
605.633	1	-10
605.803	1	4
605.973	1	-8
606.142	1	4
606.312	1	-1
606.482	1	1
606.652	1	-2
606.821	1	7
606.991	1	10
607.161	1	-5
607.330	1	-2
607.500	1	14
607.670	1	11
607.839	1	-2
608.009	1	12
608.179	1	-2
608.348	1	3
608.518	1	-10
608.688	1	-1
608.858	1	3
609.027	1	-4
609.197	1	5
609.367	1	0
609.536	1	-2
609.706	1	4
609.876	1	-2
610.045	1	-2
610.215	1	-1
610.385	1	0
610.554	1	1
610.724	1	-4
610.894	1	9
611.063	1	7
611.233	1	-4
611.403	1	1
611.572	1	-10
611.742	1	-2
611.912	1	-2
612.081	1	-3
612.251	1	9
612.421	1	-3
612.590	1	-6
612.760	1	-2
612.930	1	-8
613.099	1	4
613.269	1	-6
613.439	1	-6
613.608	1	-3
613.778	1	6
613.948	1	7
614.117	1	-2
614.287	1	4
614.457	1	-3
614.626	1	-2
614.796	1	7
614.966	1	-6
615.135	1	1
615.305	1	-1
615.475	1	1
615.644	1	-7
615.814	1	-10
615.984	1	12
616.153	1	4
616.323	1	12
616.493	1	-3
616.662	1	-2
616.832	1	5
617.002	1	-5
617.171	1	14
617.341	1	-5
617.511	1	1
617.680	1	12
617.850	1	2
618.019	1	-8
618.189	1	-7
618.359	1	-3
618.528	1	2
618.698	1	7
618.868	1	4
619.037	1	-9
619.207	1	2
619.377	1	2
619.546	1	7
619.716	1	2
619.885	1	-2
620.055	1	-6
620.225	1	3
620.394	1	4
620.564	1	-8
620.734	1	-1
620.903	1	5
621.073	1	9
621.242	1	1
621.412	1	15
621.582	1	-3
621.751	1	-3
621.921	1	1
622.091	1	7
622.260	1	-1
622.430	1	9
622.599	1	10
622.769	1	0
622.939	1	-10
623.108	1	-2
623.278	1	4
623.448	1	-6
623.617	1	-3
623.787	1	-1
623.956	1	5
624.126	1	-4
624.296	1	3
624.465	1	9
624.635	1	14
624.804	1	-4
624.974	1	1
625.144	1	4
625.313	1	9
625.483	1	8
625.652	1	3
625.822	1	-7
625.992	1	6
626.161	1	-3
626.331	1	-9
626.501	1	4
626.670	1	2
626.840	1	-9
627.009	1	11
627.179	1	-4
627.348	1	-3
627.518	1	-6
627.688	1	6
627.857	1	9
628.027	1	3
628.196	1	0
628.366	1	0
628.536	1	-7
628.705	1	1
628.875	1	5
629.044	1	-2
629.214	1	-1
629.384	1	2
629.553	1	-2
629.723	1	-4
629.892	1	3
630.062	1	-1
630.232	1	-4
630.401	1	5
630.571	1	5
630.740	1	0
630.910	1	-4
631.079	1	-1
631.249	1	-6
631.419	1	5
631.588	1	-4
631.758	1	8
631.927	1	0
632.097	1	-4
632.266	1	-3
632.436	1	7
632.606	1	-1
632.775	1	2
632.945	1	1
633.114	1	3
633.284	1	7
633.453	1	3
633.623	1	-3
633.793	1	7
633.962	1	-5
634.132	1	2
634.301	1	-5
634.471	1	4
634.640	1	4
634.810	1	-5
634.979	1	1
635.149	1	3
635.319	1	-2
635.488	1	-1
635.658	1	14
635.827	1	-2
635.997	1	11
636.166	1	-16
636.336	1	4
636.505	1	-9
636.675	1	6
636.845	1	-2
637.014	1	14
637.184	1	-2
637.353	1	7
637.523	1	1
637.692	1	6
637.862	1	2
638.031	1	-6
638.201	1	-2
638.370	1	-4
638.540	1	0
638.710	1	2
638.879	1	4
639.049	1	4
639.218	1	-2
639.388	1	1
639.557	1	-14
639.727	1	8
639.896	1	1
640.066	1	3
640.235	1	3
640.405	1	4
640.574	1	-6
640.744	1	16
640.914	1	-12
641.083	1	15
641.253	1	4
641.422	1	-5
641.592	1	11
641.761	1	-3
641.931	1	2
642.100	1	0
642.270	1	5
642.439	1	-8
642.609	1	-11
642.778	1	-3
642.948	1	3
643.117	1	8
643.287	1	-9
643.456	1	8
643.626	1	12
643.795	1	1
643.965	1	-2
644.134	1	2
644.304	1	-10
644.473	1	-3
644.643	1	-12
644.812	1	3
644.982	1	-10
645.151	1	4
645.321	1	-7
645.490	1	12
645.660	1	-6
645.829	1	0
645.999	1	3
646.168	1	-2
646.338	1	10
646.507	1	-2
646.677	1	-1
646.846	1	-7
647.016	1	-1
647.185	1	-2
647.355	1	6
647.524	1	-5
647.694	1	7
647.863	1	-11
648.033	1	-7
648.202	1	10
648.372	1	0
648.541	1	-5
648.711	1	5
648.880	1	10
649.050	1	1
649.219	1	4
649.389	1	-1
649.558	1	6
649.728	1	3
649.897	1	0
650.067	1	1
650.236	1	12
650.406	1	4
650.575	1	-17
650.745	1	9
650.914	1	-5
651.084	1	7
651.253	1	1
651.423	1	-1
651.592	1	6
651.762	1	-1
651.931	1	3
652.101	1	9
652.270	1	-13
652.440	1	0
652.609	1	-5
652.778	1	11
652.948	1	-3
653.117	1	11
653.287	1	-13
653.456	1	-2
653.626	1	-9
653.795	1	2
653.965	1	1
654.134	1	3
654.304	1	3
654.473	1	2
654.643	1	-10
654.812	1	9
654.982	1	4
655.151	1	3
655.320	1	3
655.490	1	0
655.659	1	4
655.829	1	-2
655.998	1	0
656.168	1	-3
656.337	1	5
656.507	1	6
656.676	1	-4
656.846	1	-6
657.015	1	6
657.184	1	-2
657.354	1	-6
657.523	1	-10
657.693	1	-6
657.862	1	4
658.032	1	-1
658.201	1	0
658.371	1	-1
658.540	1	-1
658.709	1	-2
658.879	1	9
659.048	1	11
659.218	1	-3
659.387	1	-5
659.557	1	7
659.726	1	8
659.895	1	1
660.065	1	-3
660.234	1	1
660.404	1	-10
660.573	1	-4
660.743	1	1
660.912	1	5
661.081	1	3
661.251	1	0
661.420	1	1
661.590	1	6
661.759	1	-3
661.929	1	3
662.098	1	-2
662.267	1	0
662.437	1	-3
662.606	1	6
662.776	1	5
662.945	1	1
663.115	1	2
663.284	1	0
663.453	1	-3
663.623	1	-7
663.792	1	-2
663.962	1	-2
664.131	1	-1
664.300	1	2
664.470	1	13
664.639	1	0
664.809	1	3
664.978	1	-2
665.148	1	4
665.317	1	-9
665.486	1	17
665.656	1	-7
665.825	1	-1
665.995	1	1
666.164	1	11
666.333	1	2
666.503	1	15
666.672	1	0
666.842	1	-2
667.011	1	5
667.180	1	0
667.350	1	-1
667.519	1	5
667.689	1	5
667.858	1	-5
668.027	1	3
668.197	1	8
668.366	1	4
668.536	1	4
668.705	1	-3
668.874	1	-5
669.044	1	-5
669.213	1	2
669.382	1	-8
669.552	1	5
669.721	1	4
669.891	1	-7
670.060	1	7
670.229	1	-5
670.399	1	3
670.568	1	13
670.738	1	13
670.907	1	7
671.076	1	0
671.246	1	-6
671.415	1	-14
671.584	1	4
671.754	1	-1
671.923	1	-4
672.093	1	-6
672.262	1	5
672.431	1	4
672.601	1	2
672.770	1	-3
672.939	1	4
673.109	1	1
673.278	1	-3
673.448	1	-3
673.617	1	-7
673.786	1	4
