325.333	1	17
325.504	1	2
325.675	1	-3
325.846	1	0
326.017	1	10
326.188	1	-5
326.359	1	9
326.531	1	-1
326.702	1	-1
326.873	1	10
327.044	1	-4
327.215	1	6
327.386	1	-1
327.557	1	-6
327.728	1	6
327.899	1	4
328.070	1	6
328.241	1	4
328.412	1	-3
328.583	1	-5
328.754	1	0
328.926	1	-9
329.097	1	0
329.268	1	-11
329.439	1	7
329.610	1	11
329.781	1	11
329.952	1	-3
330.123	1	-5
330.294	1	6
330.465	1	2
330.636	1	-7
330.807	1	5
330.978	1	16
331.149	1	12
331.320	1	-1
331.492	1	12
331.663	1	9
331.834	1	4
332.005	1	2
332.176	1	18
332.347	1	-6
332.518	1	15
332.689	1	3
332.860	1	-2
333.031	1	11
333.202	1	2
333.373	1	7
333.544	1	4
333.715	1	-1
333.886	1	2
334.057	1	5
334.228	1	-3
334.399	1	-6
334.570	1	11
334.741	1	-6
334.912	1	8
335.084	1	4
335.255	1	6
335.426	1	-3
335.597	1	2
335.768	1	11
335.939	1	2
336.110	1	-4
336.281	1	4
336.452	1	-3
336.623	1	7
336.794	1	-13
336.965	1	7
337.136	1	-5
337.307	1	6
337.478	1	-1
337.649	1	-7
337.820	1	11
337.991	1	0
338.162	1	3
338.333	1	0
338.504	1	1
338.675	1	1
338.846	1	10
339.017	1	-5
339.188	1	1
339.359	1	10
339.530	1	8
339.701	1	5
339.872	1	10
340.043	1	9
340.214	1	0
340.385	1	7
340.556	1	6
340.727	1	7
340.898	1	-3
341.069	1	2
341.240	1	0
341.411	1	8
341.582	1	10
341.753	1	2
341.924	1	6
342.095	1	6
342.266	1	-3
342.437	1	14
342.608	1	8
342.779	1	0
342.950	1	-1
343.121	1	-2
343.292	1	3
343.463	1	-1
343.634	1	13
343.805	1	8
343.976	1	0
344.147	1	-6
344.318	1	12
344.489	1	6
344.660	1	8
344.831	1	5
345.002	1	-3
345.173	1	10
345.344	1	8
345.515	1	1
345.686	1	-10
345.857	1	17
346.028	1	7
346.199	1	-1
346.370	1	8
346.541	1	9
346.712	1	12
346.883	1	-4
347.054	1	7
347.225	1	1
347.396	1	6
347.567	1	5
347.738	1	0
347.909	1	5
348.080	1	3
348.251	1	4
348.422	1	-1
348.593	1	5
348.764	1	-5
348.935	1	0
349.106	1	-6
349.277	1	-1
349.448	1	1
349.619	1	-3
349.790	1	-4
349.961	1	9
350.132	1	12
350.303	1	3
350.474	1	9
350.645	1	9
350.816	1	-1
350.987	1	7
351.157	1	-5
351.328	1	6
351.499	1	-1
351.670	1	8
351.841	1	13
352.012	1	-1
352.183	1	8
352.354	1	11
352.525	1	7
352.696	1	-4
352.867	1	-5
353.038	1	6
353.209	1	8
353.380	1	15
353.551	1	9
353.722	1	10
353.893	1	8
354.064	1	9
354.235	1	6
354.406	1	8
354.576	1	-2
354.747	1	12
354.918	1	10
355.089	1	8
355.260	1	3
355.431	1	0
355.602	1	5
355.773	1	-3
355.944	1	-3
356.115	1	1
356.286	1	7
356.457	1	11
356.628	1	23
356.799	1	7
356.970	1	10
357.141	1	4
357.311	1	-4
357.482	1	-1
357.653	1	-3
357.824	1	-2
357.995	1	10
358.166	1	11
358.337	1	-1
358.508	1	-1
358.679	1	-2
358.850	1	12
359.021	1	-2
359.192	1	12
359.363	1	3
359.533	1	4
359.704	1	-5
359.875	1	-1
360.046	1	1
360.217	1	6
360.388	1	7
360.559	1	15
360.730	1	3
360.901	1	9
361.072	1	0
361.243	1	12
361.414	1	5
361.584	1	1
361.755	1	3
361.926	1	4
362.097	1	16
362.268	1	6
362.439	1	5
362.610	1	2
362.781	1	-5
362.952	1	2
363.123	1	-3
363.293	1	18
363.464	1	14
363.635	1	12
363.806	1	2
363.977	1	-9
364.148	1	-4
364.319	1	4
364.490	1	12
364.661	1	7
364.832	1	10
365.002	1	4
365.173	1	4
365.344	1	9
365.515	1	4
365.686	1	-9
365.857	1	3
366.028	1	-6
366.199	1	9
366.370	1	11
366.540	1	11
366.711	1	5
366.882	1	11
367.053	1	2
367.224	1	7
367.395	1	1
367.566	1	4
367.737	1	-1
367.908	1	12
368.078	1	2
368.249	1	15
368.420	1	6
368.591	1	0
368.762	1	5
368.933	1	3
369.104	1	15
369.274	1	4
369.445	1	13
369.616	1	0
369.787	1	-5
369.958	1	6
370.129	1	20
370.300	1	5
370.471	1	11
370.641	1	7
370.812	1	15
370.983	1	4
371.154	1	-3
371.325	1	-2
371.496	1	7
371.667	1	4
371.837	1	0
372.008	1	19
372.179	1	-3
372.350	1	10
372.521	1	8
372.692	1	8
372.863	1	3
373.033	1	3
373.204	1	1
373.375	1	1
373.546	1	-9
373.717	1	2
373.888	1	6
374.059	1	-1
374.229	1	4
374.400	1	0
374.571	1	-11
374.742	1	19
374.913	1	2
375.084	1	6
375.254	1	-1
375.425	1	2
375.596	1	2
375.767	1	1
375.938	1	13
376.109	1	11
376.279	1	-8
376.450	1	16
376.621	1	8
376.792	1	15
376.963	1	-2
377.134	1	4
377.304	1	10
377.475	1	-4
377.646	1	2
377.817	1	11
377.988	1	8
378.159	1	-1
378.329	1	10
378.500	1	6
378.671	1	4
378.842	1	9
379.013	1	0
379.184	1	1
379.354	1	3
379.525	1	1
379.696	1	14
379.867	1	13
380.038	1	12
380.209	1	8
380.379	1	12
380.550	1	1
380.721	1	12
380.892	1	-2
381.063	1	3
381.233	1	8
381.404	1	12
381.575	1	10
381.746	1	0
381.917	1	5
382.087	1	10
382.258	1	2
382.429	1	-6
382.600	1	5
382.771	1	2
382.941	1	6
383.112	1	-4
383.283	1	0
383.454	1	15
383.625	1	0
383.795	1	17
383.966	1	-1
384.137	1	5
384.308	1	6
384.479	1	12
384.649	1	4
384.820	1	14
384.991	1	1
385.162	1	5
385.333	1	2
385.503	1	-8
385.674	1	5
385.845	1	7
386.016	1	2
386.187	1	3
386.357	1	22
386.528	1	10
386.699	1	17
386.870	1	-1
387.041	1	8
387.211	1	9
387.382	1	3
387.553	1	6
387.724	1	-1
387.894	1	14
388.065	1	9
388.236	1	-1
388.407	1	10
388.578	1	9
388.748	1	-9
388.919	1	1
389.090	1	15
389.261	1	3
389.431	1	13
389.602	1	3
389.773	1	2
389.944	1	12
390.114	1	7
390.285	1	13
390.456	1	3
390.627	1	1
390.798	1	8
390.968	1	-13
391.139	1	9
391.310	1	15
391.481	1	9
391.651	1	2
391.822	1	10
391.993	1	15
392.164	1	-9
392.334	1	5
392.505	1	7
392.676	1	10
392.847	1	3
393.017	1	16
393.188	1	4
393.359	1	3
393.530	1	11
393.700	1	14
393.871	1	11
394.042	1	2
394.213	1	6
394.383	1	7
394.554	1	0
394.725	1	-2
394.896	1	3
395.066	1	16
395.237	1	10
395.408	1	5
395.579	1	10
395.749	1	9
395.920	1	3
396.091	1	6
396.262	1	6
396.432	1	3
396.603	1	14
396.774	1	-5
396.945	1	5
397.115	1	6
397.286	1	-2
397.457	1	18
397.627	1	15
397.798	1	14
397.969	1	1
398.140	1	9
398.310	1	11
398.481	1	11
398.652	1	16
398.823	1	3
398.993	1	-1
399.164	1	8
399.335	1	5
399.505	1	13
399.676	1	17
399.847	1	11
400.018	1	10
400.188	1	2
400.359	1	14
400.530	1	4
400.700	1	7
400.871	1	18
401.042	1	9
401.213	1	17
401.383	1	-3
401.554	1	2
401.725	1	-1
401.895	1	18
402.066	1	3
402.237	1	9
402.408	1	6
402.578	1	9
402.749	1	7
402.920	1	11
403.090	1	12
403.261	1	23
403.432	1	8
403.603	1	11
403.773	1	6
403.944	1	13
404.115	1	10
404.285	1	1
404.456	1	0
404.627	1	7
404.797	1	6
404.968	1	19
405.139	1	8
405.310	1	4
405.480	1	0
405.651	1	1
405.822	1	8
405.992	1	14
406.163	1	13
406.334	1	10
406.504	1	5
406.675	1	7
406.846	1	12
407.016	1	12
407.187	1	11
407.358	1	7
407.528	1	-4
407.699	1	10
407.870	1	1
408.041	1	22
408.211	1	8
408.382	1	11
408.553	1	2
408.723	1	7
408.894	1	10
409.065	1	3
409.235	1	9
409.406	1	11
409.577	1	22
409.747	1	16
409.918	1	18
410.089	1	1
410.259	1	11
410.430	1	6
410.601	1	12
410.771	1	8
410.942	1	13
411.113	1	23
411.283	1	13
411.454	1	12
411.625	1	8
411.795	1	5
411.966	1	12
412.137	1	16
412.307	1	7
412.478	1	4
412.649	1	1
412.819	1	6
412.990	1	9
413.161	1	12
413.331	1	10
413.502	1	7
413.672	1	6
413.843	1	4
414.014	1	18
414.184	1	10
414.355	1	13
414.526	1	5
414.696	1	16
414.867	1	1
415.038	1	14
415.208	1	2
415.379	1	9
415.550	1	11
415.720	1	0
415.891	1	15
416.062	1	2
416.232	1	5
416.403	1	17
416.573	1	10
416.744	1	-1
416.915	1	-1
417.085	1	13
417.256	1	8
417.427	1	7
417.597	1	11
417.768	1	9
417.939	1	9
418.109	1	9
418.280	1	10
418.450	1	8
418.621	1	4
418.792	1	0
418.962	1	7
419.133	1	6
419.304	1	12
419.474	1	9
419.645	1	4
419.815	1	13
419.986	1	8
420.157	1	8
420.327	1	-3
420.498	1	10
420.669	1	9
420.839	1	8
421.010	1	-1
421.180	1	8
421.351	1	15
421.522	1	12
421.692	1	0
421.863	1	7
422.033	1	6
422.204	1	10
422.375	1	11
422.545	1	5
422.716	1	4
422.886	1	13
423.057	1	18
423.228	1	3
423.398	1	7
423.569	1	16
423.740	1	5
423.910	1	10
424.081	1	11
424.251	1	14
424.422	1	4
424.593	1	14
424.763	1	12
424.934	1	9
425.104	1	10
425.275	1	11
425.445	1	4
425.616	1	15
425.787	1	1
425.957	1	13
426.128	1	7
426.298	1	10
426.469	1	14
426.640	1	-10
426.810	1	9
426.981	1	10
427.151	1	9
427.322	1	11
427.493	1	0
427.663	1	3
427.834	1	11
428.004	1	10
428.175	1	-3
428.345	1	8
428.516	1	9
428.687	1	5
428.857	1	9
429.028	1	-2
429.198	1	5
429.369	1	-4
429.540	1	10
429.710	1	16
429.881	1	5
430.051	1	11
430.222	1	18
430.392	1	7
430.563	1	12
430.734	1	15
430.904	1	9
431.075	1	10
431.245	1	5
431.416	1	1
431.586	1	13
431.757	1	24
431.927	1	10
432.098	1	11
432.269	1	7
432.439	1	6
432.610	1	3
432.780	1	0
432.951	1	23
433.121	1	9
433.292	1	22
433.462	1	18
433.633	1	8
433.804	1	-2
433.974	1	11
434.145	1	6
434.315	1	9
434.486	1	1
434.656	1	9
434.827	1	10
434.997	1	5
435.168	1	9
435.339	1	1
435.509	1	5
435.680	1	6
435.850	1	0
436.021	1	2
436.191	1	6
436.362	1	16
436.532	1	19
436.703	1	7
436.873	1	14
437.044	1	17
437.214	1	0
437.385	1	19
437.556	1	1
437.726	1	16
437.897	1	-1
438.067	1	9
438.238	1	14
438.408	1	8
438.579	1	20
438.749	1	1
438.920	1	-1
439.090	1	12
439.261	1	7
439.431	1	17
439.602	1	13
439.772	1	12
439.943	1	-1
440.113	1	9
440.284	1	23
440.455	1	13
440.625	1	14
440.796	1	7
440.966	1	15
441.137	1	11
441.307	1	18
441.478	1	10
441.648	1	7
441.819	1	11
441.989	1	14
442.160	1	17
442.330	1	6
442.501	1	13
442.671	1	6
442.842	1	22
443.012	1	1
443.183	1	-2
443.353	1	11
443.524	1	8
443.694	1	15
443.865	1	15
444.035	1	2
444.206	1	11
444.376	1	9
444.547	1	-4
444.717	1	6
444.888	1	7
445.058	1	-1
445.229	1	10
445.399	1	4
445.570	1	-4
445.740	1	17
445.911	1	9
446.081	1	7
446.252	1	5
446.422	1	3
446.593	1	12
446.763	1	14
446.934	1	16
447.104	1	5
447.275	1	15
447.445	1	9
447.616	1	7
447.786	1	21
447.957	1	-1
448.127	1	6
448.298	1	15
448.468	1	15
448.639	1	6
448.809	1	1
448.979	1	10
449.150	1	11
449.320	1	4
449.491	1	5
449.661	1	6
449.832	1	11
450.002	1	13
450.173	1	10
450.343	1	4
450.514	1	7
450.684	1	-3
450.855	1	4
451.025	1	5
451.196	1	7
451.366	1	17
451.537	1	4
451.707	1	18
451.878	1	11
452.048	1	15
452.218	1	2
452.389	1	6
452.559	1	3
452.730	1	1
452.900	1	4
453.071	1	5
453.241	1	14
453.412	1	8
453.582	1	8
453.753	1	5
453.923	1	7
454.093	1	18
454.264	1	14
454.434	1	5
454.605	1	-1
454.775	1	-13
454.946	1	13
455.116	1	2
455.287	1	14
455.457	1	9
455.628	1	0
455.798	1	1
455.968	1	3
456.139	1	4
456.309	1	9
456.480	1	-4
456.650	1	9
456.821	1	14
456.991	1	9
457.161	1	4
457.332	1	4
457.502	1	9
457.673	1	0
457.843	1	4
458.014	1	4
458.184	1	16
458.355	1	12
458.525	1	6
458.695	1	4
458.866	1	15
459.036	1	4
459.207	1	0
459.377	1	12
459.548	1	-2
459.718	1	5
459.888	1	17
460.059	1	8
460.229	1	6
460.400	1	-6
460.570	1	6
460.740	1	-4
460.911	1	0
461.081	1	5
461.252	1	11
461.422	1	14
461.593	1	15
461.763	1	-2
461.933	1	6
462.104	1	3
462.274	1	5
462.445	1	-3
462.615	1	3
462.785	1	5
462.956	1	6
463.126	1	17
463.297	1	-5
463.467	1	8
463.638	1	12
463.808	1	6
463.978	1	10
464.149	1	12
464.319	1	-4
464.490	1	10
464.660	1	8
464.830	1	7
465.001	1	9
465.171	1	10
465.342	1	7
465.512	1	11
465.682	1	9
465.853	1	14
466.023	1	-2
466.194	1	14
466.364	1	-3
466.534	1	17
466.705	1	13
466.875	1	12
467.045	1	-1
467.216	1	11
467.386	1	13
467.557	1	6
467.727	1	-5
467.897	1	5
468.068	1	11
468.238	1	8
468.409	1	4
468.579	1	10
468.749	1	9
468.920	1	8
469.090	1	8
469.260	1	-4
469.431	1	-4
469.601	1	-4
469.772	1	10
469.942	1	7
470.112	1	11
470.283	1	12
470.453	1	1
470.623	1	0
470.794	1	2
470.964	1	12
471.135	1	17
471.305	1	7
471.475	1	11
471.646	1	8
471.816	1	4
471.986	1	11
472.157	1	10
472.327	1	5
472.497	1	13
472.668	1	1
472.838	1	14
473.009	1	9
473.179	1	9
473.349	1	9
473.520	1	-2
473.690	1	11
473.860	1	0
474.031	1	4
474.201	1	-4
474.371	1	3
474.542	1	0
474.712	1	7
474.882	1	6
475.053	1	7
475.223	1	4
475.394	1	11
475.564	1	2
475.734	1	13
475.905	1	3
476.075	1	10
476.245	1	1
476.416	1	11
476.586	1	2
476.756	1	10
476.927	1	6
477.097	1	4
477.267	1	8
477.438	1	4
477.608	1	-2
477.778	1	13
477.949	1	3
478.119	1	-6
478.289	1	9
478.460	1	8
478.630	1	7
478.800	1	-1
478.971	1	16
479.141	1	11
479.311	1	2
479.482	1	3
479.652	1	1
479.822	1	6
479.993	1	7
480.163	1	6
480.333	1	7
480.504	1	-6
480.674	1	12
480.844	1	3
481.015	1	11
481.185	1	-1
481.355	1	13
481.525	1	2
481.696	1	6
481.866	1	8
482.036	1	10
482.207	1	4
482.377	1	-6
482.547	1	-1
482.718	1	3
482.888	1	7
483.058	1	-3
483.229	1	-2
483.399	1	5
483.569	1	11
483.740	1	12
483.910	1	10
484.080	1	14
484.250	1	6
484.421	1	0
484.591	1	8
484.761	1	14
484.932	1	-2
485.102	1	9
485.272	1	9
485.443	1	4
485.613	1	5
485.783	1	0
485.953	1	2
486.124	1	10
486.294	1	8
486.464	1	2
486.635	1	2
486.805	1	14
486.975	1	-5
487.146	1	-2
487.316	1	6
487.486	1	2
487.656	1	2
487.827	1	4
487.997	1	13
488.167	1	-4
488.338	1	4
488.508	1	14
488.678	1	5
488.848	1	-5
489.019	1	-4
489.189	1	7
489.359	1	8
489.529	1	9
489.700	1	7
489.870	1	13
490.040	1	10
490.211	1	6
490.381	1	4
490.551	1	6
490.721	1	4
490.892	1	4
491.062	1	0
491.232	1	-3
491.402	1	12
491.573	1	6
491.743	1	4
491.913	1	19
492.084	1	0
492.254	1	-5
492.424	1	5
492.594	1	7
492.765	1	4
492.935	1	6
493.105	1	19
493.275	1	-1
493.446	1	13
493.616	1	-1
493.786	1	2
493.956	1	-2
494.127	1	13
494.297	1	4
494.467	1	-1
494.637	1	3
494.808	1	8
494.978	1	7
495.148	1	11
495.318	1	1
495.489	1	13
495.659	1	3
495.829	1	1
495.999	1	-7
496.170	1	8
496.340	1	-8
496.510	1	9
496.680	1	-1
496.851	1	12
497.021	1	3
497.191	1	12
497.361	1	12
497.532	1	7
497.702	1	-2
497.872	1	-2
498.042	1	7
498.213	1	1
498.383	1	3
498.553	1	6
498.723	1	5
498.894	1	2
499.064	1	10
499.234	1	21
499.404	1	-8
499.574	1	-4
499.745	1	5
499.915	1	6
500.085	1	8
500.255	1	2
500.426	1	2
500.596	1	6
500.766	1	19
500.936	1	0
501.106	1	-2
501.277	1	6
501.447	1	2
501.617	1	5
501.787	1	-2
501.958	1	17
502.128	1	3
502.298	1	10
502.468	1	-1
502.638	1	0
502.809	1	4
502.979	1	0
503.149	1	14
503.319	1	4
503.489	1	-4
503.660	1	4
503.830	1	5
504.000	1	8
504.170	1	6
504.340	1	3
504.511	1	7
504.681	1	13
504.851	1	-2
505.021	1	5
505.192	1	4
505.362	1	-4
505.532	1	-11
505.702	1	1
505.872	1	8
506.043	1	7
506.213	1	7
506.383	1	0
506.553	1	13
506.723	1	3
506.893	1	-1
507.064	1	9
507.234	1	4
507.404	1	4
507.574	1	10
507.744	1	11
507.915	1	2
508.085	1	6
508.255	1	4
508.425	1	-1
508.595	1	7
508.766	1	-4
508.936	1	-3
509.106	1	2
509.276	1	-3
509.446	1	9
509.616	1	2
509.787	1	0
509.957	1	5
510.127	1	5
510.297	1	-1
510.467	1	4
510.638	1	0
510.808	1	-8
510.978	1	10
511.148	1	-1
511.318	1	1
511.488	1	0
511.659	1	5
511.829	1	-9
511.999	1	8
512.169	1	10
512.339	1	8
512.509	1	7
512.680	1	7
512.850	1	5
513.020	1	-3
513.190	1	2
513.360	1	4
513.530	1	13
513.700	1	16
513.871	1	2
514.041	1	5
514.211	1	3
514.381	1	4
514.551	1	-2
514.721	1	1
514.892	1	-2
515.062	1	6
515.232	1	-11
515.402	1	-3
515.572	1	2
515.742	1	6
515.912	1	4
516.083	1	11
516.253	1	1
516.423	1	2
516.593	1	-2
516.763	1	-3
516.933	1	-4
517.104	1	0
517.274	1	0
517.444	1	5
517.614	1	1
517.784	1	1
517.954	1	8
518.124	1	3
518.294	1	7
518.465	1	3
518.635	1	-3
518.805	1	3
518.975	1	-5
519.145	1	7
519.315	1	10
519.485	1	-1
519.656	1	14
519.826	1	7
519.996	1	8
520.166	1	0
520.336	1	8
520.506	1	-2
520.676	1	5
520.846	1	4
521.017	1	8
521.187	1	9
521.357	1	-2
521.527	1	6
521.697	1	-3
521.867	1	16
522.037	1	3
522.207	1	-1
522.377	1	10
522.548	1	-1
522.718	1	6
522.888	1	-3
523.058	1	10
523.228	1	2
523.398	1	3
523.568	1	6
523.738	1	9
523.909	1	5
524.079	1	-3
524.249	1	3
524.419	1	14
524.589	1	3
524.759	1	8
524.929	1	10
525.099	1	-7
525.269	1	5
525.439	1	1
525.610	1	6
525.780	1	8
525.950	1	0
526.120	1	2
526.290	1	-10
526.460	1	5
526.630	1	11
526.800	1	10
526.970	1	-1
527.140	1	6
527.311	1	1
527.481	1	-3
527.651	1	-1
527.821	1	5
527.991	1	0
528.161	1	2
528.331	1	9
528.501	1	7
528.671	1	1
528.841	1	5
529.011	1	11
529.181	1	-16
529.352	1	16
529.522	1	-1
529.692	1	-3
529.862	1	-3
530.032	1	6
530.202	1	9
530.372	1	-7
530.542	1	-5
530.712	1	12
530.882	1	4
531.052	1	1
531.222	1	1
531.392	1	-3
531.563	1	6
531.733	1	1
531.903	1	4
532.073	1	-1
532.243	1	20
532.413	1	3
532.583	1	7
532.753	1	13
532.923	1	-2
533.093	1	-2
533.263	1	7
533.433	1	12
533.603	1	2
533.773	1	-2
533.943	1	11
534.113	1	-1
534.284	1	-7
534.454	1	0
534.624	1	-1
534.794	1	0
534.964	1	0
535.134	1	-3
535.304	1	5
535.474	1	4
535.644	1	5
535.814	1	3
535.984	1	4
536.154	1	9
536.324	1	-9
536.494	1	-3
536.664	1	-4
536.834	1	3
537.004	1	-8
537.174	1	11
537.344	1	4
537.514	1	-1
537.685	1	5
537.855	1	15
538.025	1	7
538.195	1	11
538.365	1	-5
538.535	1	-4
538.705	1	-10
538.875	1	3
539.045	1	11
539.215	1	-1
539.385	1	5
539.555	1	-3
539.725	1	4
539.895	1	2
540.065	1	3
540.235	1	2
540.405	1	8
540.575	1	-2
540.745	1	13
540.915	1	1
541.085	1	4
541.255	1	0
541.425	1	-3
541.595	1	14
541.765	1	2
541.935	1	7
542.105	1	3
542.275	1	7
542.445	1	0
542.615	1	3
542.785	1	-5
542.955	1	9
543.125	1	-2
543.295	1	-5
543.465	1	5
543.635	1	-4
543.805	1	-3
543.975	1	3
544.145	1	10
544.315	1	8
544.485	1	1
544.655	1	0
544.825	1	2
544.995	1	2
545.165	1	5
545.335	1	-10
545.505	1	8
545.675	1	4
545.845	1	-2
546.015	1	-4
546.185	1	-6
546.355	1	3
546.525	1	2
546.695	1	5
546.865	1	-5
547.035	1	4
547.205	1	14
547.375	1	-7
547.545	1	2
547.715	1	2
547.885	1	6
548.055	1	8
548.225	1	-7
548.395	1	4
548.565	1	4
548.735	1	9
548.905	1	-7
549.075	1	-8
549.245	1	8
549.415	1	-6
549.585	1	-6
549.755	1	13
549.925	1	17
550.095	1	-2
550.265	1	-8
550.435	1	4
550.605	1	3
550.775	1	12
550.945	1	-1
551.115	1	2
551.285	1	-7
551.455	1	14
551.625	1	12
551.795	1	3
551.965	1	4
552.135	1	12
552.305	1	6
552.475	1	1
552.645	1	0
552.815	1	7
552.985	1	7
553.155	1	1
553.325	1	8
553.495	1	-3
553.665	1	-2
553.835	1	4
554.004	1	12
554.174	1	3
554.344	1	-7
554.514	1	-6
554.684	1	11
554.854	1	1
555.024	1	10
555.194	1	6
555.364	1	7
555.534	1	6
555.704	1	4
555.874	1	0
556.044	1	14
556.214	1	-5
556.384	1	-4
556.554	1	1
556.724	1	2
556.894	1	2
557.064	1	8
557.234	1	-1
557.404	1	5
557.573	1	-1
557.743	1	-2
557.913	1	3
558.083	1	-4
558.253	1	2
558.423	1	-1
558.593	1	13
558.763	1	11
558.933	1	7
559.103	1	2
559.273	1	5
559.443	1	12
559.613	1	2
559.783	1	9
559.953	1	5
560.122	1	13
560.292	1	-5
560.462	1	4
560.632	1	2
560.802	1	6
560.972	1	-4
561.142	1	-1
561.312	1	3
561.482	1	0
561.652	1	4
561.822	1	7
561.992	1	1
562.162	1	-2
562.331	1	-1
562.501	1	-7
562.671	1	-5
562.841	1	-12
563.011	1	0
563.181	1	15
563.351	1	3
563.521	1	10
563.691	1	-4
563.861	1	6
564.031	1	1
564.201	1	3
564.370	1	3
564.540	1	4
564.710	1	-7
564.880	1	1
565.050	1	-1
565.220	1	-3
565.390	1	2
565.560	1	5
565.730	1	-3
565.900	1	2
566.069	1	-4
566.239	1	-5
566.409	1	1
566.579	1	2
566.749	1	8
566.919	1	3
567.089	1	11
567.259	1	-7
567.429	1	2
567.599	1	0
567.768	1	15
567.938	1	4
568.108	1	-1
568.278	1	0
568.448	1	-9
568.618	1	-5
568.788	1	13
568.958	1	4
569.128	1	4
569.297	1	-7
569.467	1	-7
569.637	1	3
569.807	1	1
569.977	1	0
570.147	1	8
570.317	1	-11
570.487	1	-3
570.656	1	-3
570.826	1	3
570.996	1	4
571.166	1	7
571.336	1	7
571.506	1	4
571.676	1	8
571.846	1	6
572.015	1	-1
572.185	1	-3
572.355	1	4
572.525	1	0
572.695	1	-7
572.865	1	-14
573.035	1	0
573.205	1	3
573.374	1	11
573.544	1	3
573.714	1	2
573.884	1	10
574.054	1	1
574.224	1	-12
574.394	1	4
574.563	1	3
574.733	1	7
574.903	1	-4
575.073	1	1
575.243	1	-6
575.413	1	13
575.583	1	3
575.752	1	8
575.922	1	-4
576.092	1	-2
576.262	1	0
576.432	1	-10
576.602	1	0
576.772	1	2
576.941	1	2
577.111	1	-2
577.281	1	-1
577.451	1	5
577.621	1	-4
577.791	1	1
577.960	1	2
578.130	1	5
578.300	1	-12
578.470	1	7
578.640	1	-7
578.810	1	-4
578.979	1	6
579.149	1	2
579.319	1	1
579.489	1	0
579.659	1	1
579.829	1	-8
579.998	1	12
580.168	1	2
580.338	1	6
580.508	1	11
580.678	1	2
580.848	1	6
581.017	1	6
581.187	1	7
581.357	1	4
581.527	1	4
581.697	1	7
581.867	1	1
582.036	1	12
582.206	1	-7
582.376	1	9
582.546	1	-4
582.716	1	-5
582.885	1	-8
583.055	1	3
583.225	1	1
583.395	1	13
583.565	1	0
583.735	1	8
583.904	1	7
584.074	1	0
584.244	1	2
584.414	1	0
584.584	1	6
584.753	1	-9
584.923	1	-6
585.093	1	-7
585.263	1	4
585.433	1	-4
585.602	1	-2
585.772	1	3
585.942	1	6
586.112	1	-2
586.282	1	4
586.451	1	1
586.621	1	10
586.791	1	4
586.961	1	12
587.131	1	0
587.300	1	-2
587.470	1	1
587.640	1	0
587.810	1	2
587.980	1	-13
588.149	1	7
588.319	1	-1
588.489	1	1
588.659	1	-3
588.829	1	-6
588.998	1	17
589.168	1	12
589.338	1	-1
589.508	1	-1
589.677	1	11
589.847	1	0
590.017	1	10
590.187	1	4
590.357	1	3
590.526	1	10
590.696	1	-1
590.866	1	12
591.036	1	-1
591.205	1	2
591.375	1	0
591.545	1	9
591.715	1	2
591.885	1	1
592.054	1	9
592.224	1	3
592.394	1	14
592.564	1	8
592.733	1	2
592.903	1	-2
593.073	1	-5
593.243	1	1
593.412	1	2
593.582	1	6
593.752	1	-4
593.922	1	-2
594.091	1	2
594.261	1	7
594.431	1	2
594.601	1	-1
594.771	1	3
594.940	1	-8
595.110	1	3
595.280	1	2
595.450	1	2
595.619	1	2
595.789	1	5
595.959	1	8
596.129	1	1
596.298	1	2
596.468	1	-1
596.638	1	-3
596.808	1	-2
596.977	1	0
597.147	1	2
597.317	1	8
597.487	1	7
597.656	1	11
597.826	1	6
597.996	1	9
598.166	1	0
598.335	1	4
598.505	1	-2
598.675	1	9
598.844	1	8
599.014	1	8
599.184	1	3
599.354	1	12
599.523	1	6
599.693	1	4
599.863	1	-8
600.033	1	3
600.202	1	3
600.372	1	4
600.542	1	-1
600.712	1	6
600.881	1	7
601.051	1	-7
601.221	1	-2
601.390	1	5
601.560	1	10
601.730	1	2
601.900	1	3
602.069	1	-5
602.239	1	1
602.409	1	4
602.578	1	3
602.748	1	3
602.918	1	-5
603.088	1	-8
603.257	1	-2
603.427	1	8
603.597	1	9
603.767	1	-1
603.936	1	15
604.106	1	6
604.276	1	-3
604.445	1	4
604.615	1	4
604.785	1	-1
604.954	1	-3
605.124	1	5
605.294	1	2
605.464	1	-3
605.633	1	-7
605.803	1	8
605.973	1	-6
606.142	1	4
606.312	1	1
606.482	1	0
606.652	1	-3
606.821	1	17
606.991	1	16
607.161	1	-3
607.330	1	5
607.500	1	1
607.670	1	7
607.839	1	0
608.009	1	5
608.179	1	2
608.348	1	-1
608.518	1	-4
608.688	1	8
608.858	1	5
609.027	1	1
609.197	1	3
609.367	1	8
609.536	1	-6
609.706	1	6
609.876	1	5
610.045	1	7
610.215	1	-12
610.385	1	-1
610.554	1	6
610.724	1	-7
610.894	1	8
611.063	1	3
611.233	1	5
611.403	1	-2
611.572	1	-2
611.742	1	-1
611.912	1	-2
612.081	1	-1
612.251	1	14
612.421	1	2
612.590	1	-1
612.760	1	-6
612.930	1	-6
613.099	1	13
613.269	1	-4
613.439	1	2
613.608	1	10
613.778	1	8
613.948	1	7
614.117	1	9
614.287	1	-6
614.457	1	-3
614.626	1	9
614.796	1	16
614.966	1	-9
615.135	1	7
615.305	1	-2
615.475	1	1
615.644	1	1
615.814	1	-1
615.984	1	4
616.153	1	0
616.323	1	9
616.493	1	-2
616.662	1	7
616.832	1	8
617.002	1	3
617.171	1	6
617.341	1	-6
617.511	1	9
617.680	1	6
617.850	1	19
618.019	1	-8
618.189	1	-13
618.359	1	6
618.528	1	11
618.698	1	4
618.868	1	2
619.037	1	0
619.207	1	7
619.377	1	-3
619.546	1	6
619.716	1	0
619.885	1	2
620.055	1	-1
620.225	1	10
620.394	1	3
620.564	1	-2
620.734	1	4
620.903	1	20
621.073	1	9
621.242	1	6
621.412	1	11
621.582	1	2
621.751	1	1
621.921	1	10
622.091	1	6
622.260	1	-6
622.430	1	9
622.599	1	4
622.769	1	0
622.939	1	1
623.108	1	0
623.278	1	-4
623.448	1	-3
623.617	1	-10
623.787	1	-3
623.956	1	0
624.126	1	7
624.296	1	2
624.465	1	8
624.635	1	13
624.804	1	-4
624.974	1	2
625.144	1	2
625.313	1	3
625.483	1	7
625.652	1	-6
625.822	1	0
625.992	1	9
626.161	1	2
626.331	1	0
626.501	1	8
626.670	1	8
626.840	1	5
627.009	1	3
627.179	1	1
627.348	1	4
627.518	1	9
627.688	1	-2
627.857	1	9
628.027	1	5
628.196	1	-4
628.366	1	11
628.536	1	-6
628.705	1	3
628.875	1	9
629.044	1	-2
629.214	1	0
629.384	1	0
629.553	1	9
629.723	1	-2
629.892	1	6
630.062	1	4
630.232	1	16
630.401	1	2
630.571	1	3
630.740	1	9
630.910	1	4
631.079	1	10
631.249	1	-2
631.419	1	8
631.588	1	-6
631.758	1	-1
631.927	1	0
632.097	1	-4
632.266	1	-1
632.436	1	0
632.606	1	0
632.775	1	-2
632.945	1	1
633.114	1	-7
633.284	1	5
633.453	1	0
633.623	1	-7
633.793	1	10
633.962	1	5
634.132	1	15
634.301	1	-3
634.471	1	11
634.640	1	-1
634.810	1	-8
634.979	1	-4
635.149	1	-2
635.319	1	6
635.488	1	4
635.658	1	9
635.827	1	0
635.997	1	9
636.166	1	1
636.336	1	5
636.505	1	-1
636.675	1	1
636.845	1	-12
637.014	1	12
637.184	1	11
637.353	1	4
637.523	1	9
637.692	1	12
637.862	1	5
638.031	1	0
638.201	1	4
638.370	1	-3
638.540	1	3
638.710	1	5
638.879	1	13
639.049	1	-2
639.218	1	-4
639.388	1	8
639.557	1	5
639.727	1	10
639.896	1	0
640.066	1	4
640.235	1	0
640.405	1	8
640.574	1	-5
640.744	1	9
640.914	1	-4
641.083	1	18
641.253	1	0
641.422	1	2
641.592	1	7
641.761	1	0
641.931	1	11
642.100	1	-8
642.270	1	-5
642.439	1	0
642.609	1	-7
642.778	1	8
642.948	1	7
643.117	1	8
643.287	1	-6
643.456	1	7
643.626	1	10
643.795	1	10
643.965	1	7
644.134	1	2
644.304	1	-13
644.473	1	7
644.643	1	-2
644.812	1	-2
644.982	1	-5
645.151	1	-2
645.321	1	-5
645.490	1	7
645.660	1	7
645.829	1	-1
645.999	1	-4
646.168	1	0
646.338	1	2
646.507	1	-3
646.677	1	-2
646.846	1	0
647.016	1	1
647.185	1	13
647.355	1	14
647.524	1	5
647.694	1	0
647.863	1	-2
648.033	1	-6
648.202	1	11
648.372	1	11
648.541	1	7
648.711	1	10
648.880	1	9
649.050	1	-2
649.219	1	1
649.389	1	-1
649.558	1	3
649.728	1	4
649.897	1	-1
650.067	1	-1
650.236	1	10
650.406	1	5
650.575	1	2
650.745	1	15
650.914	1	-1
651.084	1	1
651.253	1	11
651.423	1	-5
651.592	1	6
651.762	1	3
651.931	1	9
652.101	1	12
652.270	1	-3
652.440	1	9
652.609	1	-5
652.778	1	8
652.948	1	0
653.117	1	8
653.287	1	-10
653.456	1	-4
653.626	1	9
653.795	1	-1
653.965	1	6
654.134	1	11
654.304	1	10
654.473	1	1
654.643	1	-14
654.812	1	18
654.982	1	5
655.151	1	8
655.320	1	-4
655.490	1	1
655.659	1	1
655.829	1	2
655.998	1	3
656.168	1	2
656.337	1	4
656.507	1	1
656.676	1	-11
656.846	1	7
657.015	1	11
657.184	1	1
657.354	1	-5
657.523	1	4
657.693	1	-8
657.862	1	2
658.032	1	5
658.201	1	7
658.371	1	6
658.540	1	1
658.709	1	2
658.879	1	9
659.048	1	5
659.218	1	8
659.387	1	-7
659.557	1	4
659.726	1	3
659.895	1	6
660.065	1	-6
660.234	1	5
660.404	1	-3
660.573	1	2
660.743	1	6
660.912	1	-2
661.081	1	5
661.251	1	-1
661.420	1	12
661.590	1	8
661.759	1	-1
661.929	1	-1
662.098	1	-1
662.267	1	0
662.437	1	-4
662.606	1	2
662.776	1	3
662.945	1	8
663.115	1	-7
663.284	1	3
663.453	1	-7
663.623	1	0
663.792	1	8
663.962	1	-1
664.131	1	10
664.300	1	10
664.470	1	4
664.639	1	-1
664.809	1	-1
664.978	1	-9
665.148	1	-1
665.317	1	-2
665.486	1	11
665.656	1	-1
665.825	1	6
665.995	1	-3
666.164	1	5
666.333	1	-1
666.503	1	3
666.672	1	-1
666.842	1	2
667.011	1	13
667.180	1	-2
667.350	1	2
667.519	1	-2
667.689	1	2
667.858	1	-5
668.027	1	-6
668.197	1	9
668.366	1	7
668.536	1	-1
668.705	1	1
668.874	1	-8
669.044	1	-3
669.213	1	8
669.382	1	2
669.552	1	8
669.721	1	-3
669.891	1	2
670.060	1	1
670.229	1	-5
670.399	1	5
670.568	1	8
670.738	1	7
670.907	1	-3
671.076	1	8
671.246	1	-2
671.415	1	-5
671.584	1	7
671.754	1	0
671.923	1	4
672.093	1	-1
672.262	1	6
672.431	1	11
672.601	1	3
672.770	1	4
672.939	1	3
673.109	1	3
673.278	1	-6
673.448	1	-1
673.617	1	-6
673.786	1	5
