325.333	1	12
325.504	1	7
325.675	1	-3
325.846	1	-8
326.017	1	0
326.188	1	2
326.359	1	0
326.531	1	-4
326.702	1	-4
326.873	1	-2
327.044	1	-6
327.215	1	11
327.386	1	9
327.557	1	-1
327.728	1	-4
327.899	1	-3
328.070	1	2
328.241	1	-1
328.412	1	2
328.583	1	-1
328.754	1	9
328.926	1	0
329.097	1	8
329.268	1	-1
329.439	1	1
329.610	1	0
329.781	1	2
329.952	1	2
330.123	1	-6
330.294	1	7
330.465	1	2
330.636	1	3
330.807	1	3
330.978	1	5
331.149	1	6
331.320	1	-5
331.492	1	13
331.663	1	-1
331.834	1	9
332.005	1	8
332.176	1	14
332.347	1	-8
332.518	1	9
332.689	1	1
332.860	1	3
333.031	1	-3
333.202	1	-1
333.373	1	6
333.544	1	4
333.715	1	-3
333.886	1	3
334.057	1	0
334.228	1	0
334.399	1	4
334.570	1	7
334.741	1	-2
334.912	1	11
335.084	1	4
335.255	1	15
335.426	1	-2
335.597	1	-2
335.768	1	9
335.939	1	4
336.110	1	4
336.281	1	2
336.452	1	3
336.623	1	5
336.794	1	5
336.965	1	9
337.136	1	-16
337.307	1	8
337.478	1	-10
337.649	1	-2
337.820	1	5
337.991	1	11
338.162	1	-1
338.333	1	3
338.504	1	13
338.675	1	-6
338.846	1	8
339.017	1	-3
339.188	1	1
339.359	1	6
339.530	1	-6
339.701	1	-3
339.872	1	1
340.043	1	6
340.214	1	7
340.385	1	12
340.556	1	9
340.727	1	10
340.898	1	-2
341.069	1	-2
341.240	1	3
341.411	1	8
341.582	1	12
341.753	1	2
341.924	1	5
342.095	1	4
342.266	1	-6
342.437	1	9
342.608	1	7
342.779	1	2
342.950	1	-7
343.121	1	3
343.292	1	3
343.463	1	1
343.634	1	5
343.805	1	4
343.976	1	5
344.147	1	-10
344.318	1	13
344.489	1	2
344.660	1	1
344.831	1	15
345.002	1	-1
345.173	1	9
345.344	1	3
345.515	1	-7
345.686	1	2
345.857	1	15
346.028	1	2
346.199	1	-5
346.370	1	6
346.541	1	4
346.712	1	1
346.883	1	-1
347.054	1	2
347.225	1	-6
347.396	1	-5
347.567	1	12
347.738	1	-2
347.909	1	-2
348.080	1	1
348.251	1	3
348.422	1	10
348.593	1	9
348.764	1	2
348.935	1	-3
349.106	1	-4
349.277	1	-1
349.448	1	3
349.619	1	-9
349.790	1	0
349.961	1	-4
350.132	1	15
350.303	1	-8
350.474	1	6
350.645	1	4
350.816	1	5
350.987	1	8
351.157	1	-3
351.328	1	5
351.499	1	4
351.670	1	2
351.841	1	9
352.012	1	1
352.183	1	6
352.354	1	7
352.525	1	16
352.696	1	9
352.867	1	0
353.038	1	6
353.209	1	6
353.380	1	5
353.551	1	2
353.722	1	-1
353.893	1	2
354.064	1	0
354.235	1	13
354.406	1	13
354.576	1	-2
354.747	1	8
354.918	1	11
355.089	1	9
355.260	1	-7
355.431	1	-10
355.602	1	-1
355.773	1	-5
355.944	1	5
356.115	1	6
356.286	1	6
356.457	1	8
356.628	1	19
356.799	1	6
356.970	1	5
357.141	1	0
357.311	1	0
357.482	1	-3
357.653	1	1
357.824	1	0
357.995	1	12
358.166	1	13
358.337	1	0
358.508	1	-3
358.679	1	2
358.850	1	14
359.021	1	3
359.192	1	2
359.363	1	-1
359.533	1	0
359.704	1	-9
359.875	1	-4
360.046	1	2
360.217	1	15
360.388	1	-1
360.559	1	10
360.730	1	4
360.901	1	-1
361.072	1	4
361.243	1	10
361.414	1	-4
361.584	1	0
361.755	1	3
361.926	1	9
362.097	1	9
362.268	1	14
362.439	1	7
362.610	1	4
362.781	1	7
362.952	1	5
363.123	1	3
363.293	1	8
363.464	1	8
363.635	1	8
363.806	1	0
363.977	1	3
364.148	1	2
364.319	1	4
364.490	1	7
364.661	1	2
364.832	1	-2
365.002	1	-2
365.173	1	7
365.344	1	13
365.515	1	3
365.686	1	-3
365.857	1	-1
366.028	1	0
366.199	1	5
366.370	1	6
366.540	1	3
366.711	1	2
366.882	1	5
367.053	1	1
367.224	1	2
367.395	1	-2
367.566	1	4
367.737	1	-4
367.908	1	12
368.078	1	0
368.249	1	8
368.420	1	5
368.591	1	2
368.762	1	7
368.933	1	4
369.104	1	2
369.274	1	10
369.445	1	3
369.616	1	-4
369.787	1	-5
369.958	1	2
370.129	1	15
370.300	1	5
370.471	1	5
370.641	1	2
370.812	1	1
370.983	1	-4
371.154	1	11
371.325	1	4
371.496	1	0
371.667	1	-1
371.837	1	4
372.008	1	13
372.179	1	-9
372.350	1	3
372.521	1	4
372.692	1	2
372.863	1	17
373.033	1	-6
373.204	1	-7
373.375	1	3
373.546	1	0
373.717	1	-3
373.888	1	10
374.059	1	4
374.229	1	1
374.400	1	1
374.571	1	-12
374.742	1	4
374.913	1	0
375.084	1	3
375.254	1	-1
375.425	1	6
375.596	1	-2
375.767	1	2
375.938	1	6
376.109	1	9
376.279	1	-9
376.450	1	12
376.621	1	2
376.792	1	17
376.963	1	-5
377.134	1	6
377.304	1	2
377.475	1	-8
377.646	1	-3
377.817	1	10
377.988	1	4
378.159	1	0
378.329	1	1
378.500	1	3
378.671	1	9
378.842	1	1
379.013	1	1
379.184	1	-5
379.354	1	-3
379.525	1	4
379.696	1	10
379.867	1	5
380.038	1	11
380.209	1	-1
380.379	1	12
380.550	1	5
380.721	1	3
380.892	1	-8
381.063	1	-7
381.233	1	9
381.404	1	15
381.575	1	11
381.746	1	-4
381.917	1	-3
382.087	1	9
382.258	1	1
382.429	1	-10
382.600	1	7
382.771	1	3
382.941	1	-4
383.112	1	0
383.283	1	14
383.454	1	7
383.625	1	9
383.795	1	6
383.966	1	0
384.137	1	7
384.308	1	2
384.479	1	7
384.649	1	5
384.820	1	6
384.991	1	3
385.162	1	10
385.333	1	-4
385.503	1	-8
385.674	1	7
385.845	1	7
386.016	1	4
386.187	1	0
386.357	1	13
386.528	1	6
386.699	1	7
386.870	1	-10
387.041	1	4
387.211	1	-1
387.382	1	5
387.553	1	6
387.724	1	7
387.894	1	5
388.065	1	-1
388.236	1	6
388.407	1	8
388.578	1	1
388.748	1	1
388.919	1	10
389.090	1	7
389.261	1	4
389.431	1	13
389.602	1	1
389.773	1	10
389.944	1	9
390.114	1	15
390.285	1	11
390.456	1	0
390.627	1	8
390.798	1	8
390.968	1	-7
391.139	1	15
391.310	1	17
391.481	1	10
391.651	1	10
391.822	1	14
391.993	1	11
392.164	1	-9
392.334	1	3
392.505	1	3
392.676	1	12
392.847	1	3
393.017	1	16
393.188	1	10
393.359	1	1
393.530	1	8
393.700	1	7
393.871	1	8
394.042	1	-2
394.213	1	1
394.383	1	8
394.554	1	0
394.725	1	10
394.896	1	2
395.066	1	18
395.237	1	5
395.408	1	4
395.579	1	-2
395.749	1	-3
395.920	1	-6
396.091	1	0
396.262	1	10
396.432	1	8
396.603	1	1
396.774	1	-14
396.945	1	4
397.115	1	13
397.286	1	2
397.457	1	15
397.627	1	6
397.798	1	13
397.969	1	-4
398.140	1	8
398.310	1	10
398.481	1	8
398.652	1	10
398.823	1	2
398.993	1	8
399.164	1	5
399.335	1	10
399.505	1	8
399.676	1	8
399.847	1	6
400.018	1	10
400.188	1	1
400.359	1	4
400.530	1	7
400.700	1	10
400.871	1	12
401.042	1	10
401.213	1	7
401.383	1	-1
401.554	1	10
401.725	1	7
401.895	1	9
402.066	1	5
402.237	1	-2
402.408	1	7
402.578	1	8
402.749	1	9
402.920	1	2
403.090	1	17
403.261	1	21
403.432	1	6
403.603	1	8
403.773	1	0
403.944	1	1
404.115	1	0
404.285	1	9
404.456	1	0
404.627	1	7
404.797	1	10
404.968	1	10
405.139	1	6
405.310	1	4
405.480	1	2
405.651	1	-7
405.822	1	14
405.992	1	6
406.163	1	4
406.334	1	8
406.504	1	4
406.675	1	2
406.846	1	3
407.016	1	2
407.187	1	4
407.358	1	7
407.528	1	4
407.699	1	-8
407.870	1	4
408.041	1	12
408.211	1	0
408.382	1	15
408.553	1	0
408.723	1	0
408.894	1	11
409.065	1	6
409.235	1	5
409.406	1	10
409.577	1	7
409.747	1	20
409.918	1	14
410.089	1	5
410.259	1	5
410.430	1	8
410.601	1	5
410.771	1	10
410.942	1	11
411.113	1	22
411.283	1	11
411.454	1	-1
411.625	1	7
411.795	1	7
411.966	1	9
412.137	1	12
412.307	1	2
412.478	1	1
412.649	1	1
412.819	1	17
412.990	1	4
413.161	1	17
413.331	1	11
413.502	1	10
413.672	1	-4
413.843	1	0
414.014	1	9
414.184	1	4
414.355	1	9
414.526	1	-1
414.696	1	9
414.867	1	7
415.038	1	13
415.208	1	-1
415.379	1	10
415.550	1	6
415.720	1	-1
415.891	1	4
416.062	1	5
416.232	1	7
416.403	1	4
416.573	1	14
416.744	1	4
416.915	1	-2
417.085	1	0
417.256	1	-3
417.427	1	6
417.597	1	3
417.768	1	10
417.939	1	7
418.109	1	-2
418.280	1	5
418.450	1	9
418.621	1	10
418.792	1	6
418.962	1	6
419.133	1	7
419.304	1	8
419.474	1	10
419.645	1	13
419.815	1	10
419.986	1	3
420.157	1	14
420.327	1	5
420.498	1	10
420.669	1	19
420.839	1	2
421.010	1	-2
421.180	1	6
421.351	1	11
421.522	1	16
421.692	1	5
421.863	1	4
422.033	1	8
422.204	1	4
422.375	1	1
422.545	1	1
422.716	1	9
422.886	1	9
423.057	1	17
423.228	1	3
423.398	1	4
423.569	1	16
423.740	1	-1
423.910	1	10
424.081	1	6
424.251	1	11
424.422	1	7
424.593	1	10
424.763	1	3
424.934	1	6
425.104	1	-14
425.275	1	11
425.445	1	5
425.616	1	7
425.787	1	6
425.957	1	1
426.128	1	6
426.298	1	-5
426.469	1	15
426.640	1	-2
426.810	1	13
426.981	1	0
427.151	1	11
427.322	1	8
427.493	1	1
427.663	1	3
427.834	1	5
428.004	1	7
428.175	1	0
428.345	1	4
428.516	1	8
428.687	1	9
428.857	1	9
429.028	1	-6
429.198	1	3
429.369	1	8
429.540	1	9
429.710	1	4
429.881	1	17
430.051	1	0
430.222	1	13
430.392	1	10
430.563	1	15
430.734	1	3
430.904	1	9
431.075	1	1
431.245	1	6
431.416	1	2
431.586	1	2
431.757	1	8
431.927	1	17
432.098	1	4
432.269	1	9
432.439	1	4
432.610	1	11
432.780	1	2
432.951	1	14
433.121	1	4
433.292	1	12
433.462	1	2
433.633	1	6
433.804	1	3
433.974	1	15
434.145	1	9
434.315	1	4
434.486	1	12
434.656	1	3
434.827	1	8
434.997	1	-4
435.168	1	9
435.339	1	7
435.509	1	12
435.680	1	5
435.850	1	5
436.021	1	0
436.191	1	11
436.362	1	6
436.532	1	14
436.703	1	10
436.873	1	9
437.044	1	5
437.214	1	-8
437.385	1	12
437.556	1	0
437.726	1	11
437.897	1	1
438.067	1	5
438.238	1	6
438.408	1	8
438.579	1	12
438.749	1	1
438.920	1	-4
439.090	1	7
439.261	1	8
439.431	1	21
439.602	1	11
439.772	1	7
439.943	1	0
440.113	1	-4
440.284	1	10
440.455	1	5
440.625	1	7
440.796	1	5
440.966	1	10
441.137	1	-4
441.307	1	18
441.478	1	0
441.648	1	10
441.819	1	9
441.989	1	13
442.160	1	20
442.330	1	-4
442.501	1	6
442.671	1	7
442.842	1	8
443.012	1	-2
443.183	1	7
443.353	1	10
443.524	1	2
443.694	1	17
443.865	1	12
444.035	1	2
444.206	1	-2
444.376	1	18
444.547	1	2
444.717	1	18
444.888	1	10
445.058	1	3
445.229	1	20
445.399	1	-2
445.570	1	13
445.740	1	8
445.911	1	1
446.081	1	-1
446.252	1	-2
446.422	1	6
446.593	1	8
446.763	1	16
446.934	1	19
447.104	1	0
447.275	1	11
447.445	1	3
447.616	1	8
447.786	1	15
447.957	1	9
448.127	1	9
448.298	1	13
448.468	1	13
448.639	1	2
448.809	1	2
448.979	1	12
449.150	1	9
449.320	1	6
449.491	1	5
449.661	1	9
449.832	1	5
450.002	1	7
450.173	1	14
450.343	1	-1
450.514	1	6
450.684	1	-1
450.855	1	3
451.025	1	3
451.196	1	2
451.366	1	7
451.537	1	4
451.707	1	12
451.878	1	4
452.048	1	4
452.218	1	-2
452.389	1	-2
452.559	1	0
452.730	1	17
452.900	1	10
453.071	1	1
453.241	1	5
453.412	1	12
453.582	1	2
453.753	1	7
453.923	1	10
454.093	1	8
454.264	1	3
454.434	1	-3
454.605	1	-5
454.775	1	-9
454.946	1	4
455.116	1	3
455.287	1	18
455.457	1	10
455.628	1	12
455.798	1	3
455.968	1	7
456.139	1	2
456.309	1	12
456.480	1	0
456.650	1	2
456.821	1	9
456.991	1	5
457.161	1	11
457.332	1	3
457.502	1	3
457.673	1	8
457.843	1	4
458.014	1	2
458.184	1	14
458.355	1	17
458.525	1	-4
458.695	1	0
458.866	1	6
459.036	1	2
459.207	1	-3
459.377	1	3
459.548	1	-3
459.718	1	2
459.888	1	9
460.059	1	10
460.229	1	9
460.400	1	-2
460.570	1	-4
460.740	1	-2
460.911	1	-4
461.081	1	8
461.252	1	16
461.422	1	13
461.593	1	10
461.763	1	2
461.933	1	13
462.104	1	-3
462.274	1	5
462.445	1	3
462.615	1	4
462.785	1	3
462.956	1	1
463.126	1	9
463.297	1	2
463.467	1	5
463.638	1	10
463.808	1	-8
463.978	1	-6
464.149	1	9
464.319	1	-6
464.490	1	0
464.660	1	0
464.830	1	10
465.001	1	6
465.171	1	8
465.342	1	10
465.512	1	6
465.682	1	4
465.853	1	13
466.023	1	2
466.194	1	5
466.364	1	-4
466.534	1	5
466.705	1	18
466.875	1	8
467.045	1	7
467.216	1	13
467.386	1	17
467.557	1	8
467.727	1	5
467.897	1	4
468.068	1	11
468.238	1	0
468.409	1	9
468.579	1	0
468.749	1	10
468.920	1	3
469.090	1	5
469.260	1	0
469.431	1	-10
469.601	1	5
469.772	1	-2
469.942	1	13
470.112	1	8
470.283	1	1
470.453	1	12
470.623	1	3
470.794	1	-2
470.964	1	18
471.135	1	21
471.305	1	11
471.475	1	8
471.646	1	7
471.816	1	11
471.986	1	7
472.157	1	3
472.327	1	9
472.497	1	1
472.668	1	-5
472.838	1	9
473.009	1	7
473.179	1	2
473.349	1	4
473.520	1	8
473.690	1	14
473.860	1	2
474.031	1	7
474.201	1	4
474.371	1	13
474.542	1	4
474.712	1	7
474.882	1	-1
475.053	1	-1
475.223	1	-1
475.394	1	14
475.564	1	-1
475.734	1	16
475.905	1	0
476.075	1	10
476.245	1	-6
476.416	1	3
476.586	1	-4
476.756	1	-3
476.927	1	7
477.097	1	7
477.267	1	8
477.438	1	-4
477.608	1	-6
477.778	1	12
477.949	1	2
478.119	1	-7
478.289	1	8
478.460	1	12
478.630	1	-1
478.800	1	-1
478.971	1	3
479.141	1	3
479.311	1	1
479.482	1	5
479.652	1	2
479.822	1	-1
479.993	1	10
480.163	1	8
480.333	1	8
480.504	1	-5
480.674	1	12
480.844	1	-1
481.015	1	4
481.185	1	-6
481.355	1	10
481.525	1	7
481.696	1	4
481.866	1	4
482.036	1	-2
482.207	1	4
482.377	1	-3
482.547	1	-5
482.718	1	-4
482.888	1	9
483.058	1	-4
483.229	1	-1
483.399	1	-1
483.569	1	10
483.740	1	6
483.910	1	9
484.080	1	6
484.250	1	13
484.421	1	-5
484.591	1	1
484.761	1	20
484.932	1	2
485.102	1	3
485.272	1	7
485.443	1	7
485.613	1	1
485.783	1	-1
485.953	1	-4
486.124	1	15
486.294	1	6
486.464	1	-2
486.635	1	3
486.805	1	13
486.975	1	-7
487.146	1	-15
487.316	1	7
487.486	1	3
487.656	1	-3
487.827	1	-1
487.997	1	8
488.167	1	1
488.338	1	12
488.508	1	8
488.678	1	6
488.848	1	0
489.019	1	2
489.189	1	2
489.359	1	14
489.529	1	6
489.700	1	5
489.870	1	5
490.040	1	3
490.211	1	11
490.381	1	1
490.551	1	6
490.721	1	7
490.892	1	3
491.062	1	10
491.232	1	-1
491.402	1	18
491.573	1	15
491.743	1	7
491.913	1	8
492.084	1	-1
492.254	1	2
492.424	1	0
492.594	1	8
492.765	1	0
492.935	1	-4
493.105	1	18
493.275	1	12
493.446	1	6
493.616	1	4
493.786	1	-2
493.956	1	3
494.127	1	11
494.297	1	12
494.467	1	-4
494.637	1	-5
494.808	1	6
494.978	1	5
495.148	1	11
495.318	1	1
495.489	1	8
495.659	1	2
495.829	1	9
495.999	1	-6
496.170	1	4
496.340	1	-2
496.510	1	14
496.680	1	10
496.851	1	17
497.021	1	3
497.191	1	16
497.361	1	0
497.532	1	6
497.702	1	-3
497.872	1	-7
498.042	1	6
498.213	1	3
498.383	1	7
498.553	1	7
498.723	1	4
498.894	1	5
499.064	1	10
499.234	1	5
499.404	1	-2
499.574	1	3
499.745	1	-4
499.915	1	1
500.085	1	13
500.255	1	7
500.426	1	1
500.596	1	7
500.766	1	9
500.936	1	8
501.106	1	1
501.277	1	2
501.447	1	2
501.617	1	0
501.787	1	8
501.958	1	10
502.128	1	9
502.298	1	5
502.468	1	5
502.638	1	2
502.809	1	7
502.979	1	7
503.149	1	8
503.319	1	-2
503.489	1	2
503.660	1	2
503.830	1	1
504.000	1	3
504.170	1	-1
504.340	1	10
504.511	1	-2
504.681	1	11
504.851	1	4
505.021	1	6
505.192	1	5
505.362	1	-3
505.532	1	-2
505.702	1	6
505.872	1	-7
506.043	1	3
506.213	1	-1
506.383	1	-2
506.553	1	11
506.723	1	-7
506.893	1	-3
507.064	1	5
507.234	1	2
507.404	1	-2
507.574	1	9
507.744	1	16
507.915	1	8
508.085	1	1
508.255	1	5
508.425	1	-8
508.595	1	-3
508.766	1	-8
508.936	1	1
509.106	1	6
509.276	1	-2
509.446	1	6
509.616	1	16
509.787	1	2
509.957	1	3
510.127	1	-5
510.297	1	1
510.467	1	-2
510.638	1	-2
510.808	1	-9
510.978	1	12
511.148	1	-2
511.318	1	-10
511.488	1	-1
511.659	1	-2
511.829	1	-2
511.999	1	7
512.169	1	5
512.339	1	4
512.509	1	12
512.680	1	-7
512.850	1	6
513.020	1	4
513.190	1	3
513.360	1	3
513.530	1	3
513.700	1	12
513.871	1	0
514.041	1	7
514.211	1	5
514.381	1	3
514.551	1	4
514.721	1	-3
514.892	1	6
515.062	1	1
515.232	1	-6
515.402	1	-4
515.572	1	3
515.742	1	-5
515.912	1	5
516.083	1	-3
516.253	1	2
516.423	1	1
516.593	1	-6
516.763	1	-9
516.933	1	-8
517.104	1	6
517.274	1	7
517.444	1	3
517.614	1	4
517.784	1	-2
517.954	1	2
518.124	1	-4
518.294	1	9
518.465	1	1
518.635	1	11
518.805	1	-1
518.975	1	1
519.145	1	7
519.315	1	3
519.485	1	-2
519.656	1	8
519.826	1	8
519.996	1	3
520.166	1	-5
520.336	1	3
520.506	1	-3
520.676	1	2
520.846	1	5
521.017	1	6
521.187	1	-4
521.357	1	-4
521.527	1	17
521.697	1	0
521.867	1	5
522.037	1	-2
522.207	1	0
522.377	1	11
522.548	1	-3
522.718	1	5
522.888	1	-2
523.058	1	9
523.228	1	-2
523.398	1	3
523.568	1	7
523.738	1	7
523.909	1	-5
524.079	1	-8
524.249	1	4
524.419	1	4
524.589	1	1
524.759	1	1
524.929	1	-2
525.099	1	-1
525.269	1	-2
525.439	1	3
525.610	1	2
525.780	1	12
525.950	1	3
526.120	1	1
526.290	1	-6
526.460	1	9
526.630	1	11
526.800	1	8
526.970	1	-9
527.140	1	3
527.311	1	-2
527.481	1	-9
527.651	1	4
527.821	1	8
527.991	1	3
528.161	1	1
528.331	1	9
528.501	1	3
528.671	1	-6
528.841	1	4
529.011	1	10
529.181	1	-7
529.352	1	11
529.522	1	-5
529.692	1	-4
529.862	1	-5
530.032	1	7
530.202	1	0
530.372	1	0
530.542	1	0
530.712	1	10
530.882	1	8
531.052	1	0
531.222	1	3
531.392	1	-1
531.563	1	-7
531.733	1	-9
531.903	1	-2
532.073	1	6
532.243	1	11
532.413	1	11
532.583	1	5
532.753	1	15
532.923	1	-1
533.093	1	6
533.263	1	8
533.433	1	8
533.603	1	-3
533.773	1	3
533.943	1	0
534.113	1	-4
534.284	1	-8
534.454	1	4
534.624	1	8
534.794	1	7
534.964	1	6
535.134	1	0
535.304	1	6
535.474	1	10
535.644	1	13
535.814	1	-7
535.984	1	-4
536.154	1	9
536.324	1	-12
536.494	1	-1
536.664	1	-2
536.834	1	4
537.004	1	4
537.174	1	1
537.344	1	2
537.514	1	12
537.685	1	9
537.855	1	7
538.025	1	1
538.195	1	1
538.365	1	-5
538.535	1	1
538.705	1	-11
538.875	1	8
539.045	1	11
539.215	1	10
539.385	1	-5
539.555	1	-1
539.725	1	6
539.895	1	-5
540.065	1	-3
540.235	1	-1
540.405	1	0
540.575	1	3
540.745	1	9
540.915	1	-3
541.085	1	0
541.255	1	-11
541.425	1	-3
541.595	1	13
541.765	1	-4
541.935	1	4
542.105	1	15
542.275	1	9
542.445	1	2
542.615	1	-3
542.785	1	-2
542.955	1	2
543.125	1	1
543.295	1	-4
543.465	1	3
543.635	1	-3
543.805	1	-4
543.975	1	2
544.145	1	3
544.315	1	11
544.485	1	3
544.655	1	7
544.825	1	0
544.995	1	-6
545.165	1	8
545.335	1	0
545.505	1	2
545.675	1	3
545.845	1	7
546.015	1	-13
546.185	1	2
546.355	1	3
546.525	1	-3
546.695	1	4
546.865	1	-2
547.035	1	10
547.205	1	2
547.375	1	-5
547.545	1	0
547.715	1	-4
547.885	1	0
548.055	1	3
548.225	1	-1
548.395	1	9
548.565	1	1
548.735	1	10
548.905	1	-18
549.075	1	4
549.245	1	-1
549.415	1	2
549.585	1	-4
549.755	1	12
549.925	1	8
550.095	1	6
550.265	1	-8
550.435	1	3
550.605	1	0
550.775	1	13
550.945	1	-3
551.115	1	10
551.285	1	0
551.455	1	10
551.625	1	6
551.795	1	-2
551.965	1	0
552.135	1	15
552.305	1	-3
552.475	1	5
552.645	1	5
552.815	1	11
552.985	1	3
553.155	1	-5
553.325	1	3
553.495	1	8
553.665	1	-5
553.835	1	0
554.004	1	9
554.174	1	-6
554.344	1	-7
554.514	1	-6
554.684	1	0
554.854	1	6
555.024	1	-1
555.194	1	1
555.364	1	10
555.534	1	17
555.704	1	7
555.874	1	-1
556.044	1	18
556.214	1	-12
556.384	1	-1
556.554	1	5
556.724	1	2
556.894	1	1
557.064	1	8
557.234	1	6
557.404	1	6
557.573	1	-7
557.743	1	-4
557.913	1	-7
558.083	1	1
558.253	1	-7
558.423	1	4
558.593	1	14
558.763	1	7
558.933	1	10
559.103	1	2
559.273	1	8
559.443	1	0
559.613	1	-3
559.783	1	2
559.953	1	10
560.122	1	1
560.292	1	-1
560.462	1	8
560.632	1	4
560.802	1	10
560.972	1	0
561.142	1	-8
561.312	1	-6
561.482	1	6
561.652	1	-9
561.822	1	10
561.992	1	-8
562.162	1	-5
562.331	1	-10
562.501	1	0
562.671	1	-3
562.841	1	-7
563.011	1	2
563.181	1	3
563.351	1	-1
563.521	1	0
563.691	1	-10
563.861	1	10
564.031	1	9
564.201	1	18
564.370	1	-4
564.540	1	12
564.710	1	-8
564.880	1	4
565.050	1	3
565.220	1	-4
565.390	1	2
565.560	1	-4
565.730	1	-1
565.900	1	6
566.069	1	-2
566.239	1	1
566.409	1	-5
566.579	1	7
566.749	1	-1
566.919	1	2
567.089	1	4
567.259	1	-2
567.429	1	8
567.599	1	2
567.768	1	8
567.938	1	2
568.108	1	-2
568.278	1	-3
568.448	1	-4
568.618	1	1
568.788	1	6
568.958	1	3
569.128	1	4
569.297	1	-8
569.467	1	-4
569.637	1	-3
569.807	1	3
569.977	1	1
570.147	1	5
570.317	1	-10
570.487	1	-3
570.656	1	5
570.826	1	-19
570.996	1	1
571.166	1	-3
571.336	1	8
571.506	1	-1
571.676	1	6
571.846	1	14
572.015	1	-1
572.185	1	-2
572.355	1	0
572.525	1	4
572.695	1	1
572.865	1	5
573.035	1	-2
573.205	1	8
573.374	1	15
573.544	1	-2
573.714	1	10
573.884	1	5
574.054	1	8
574.224	1	1
574.394	1	1
574.563	1	6
574.733	1	3
574.903	1	4
575.073	1	-4
575.243	1	-3
575.413	1	5
575.583	1	8
575.752	1	2
575.922	1	-6
576.092	1	9
576.262	1	7
576.432	1	0
576.602	1	2
576.772	1	-12
576.941	1	9
577.111	1	4
577.281	1	3
577.451	1	1
577.621	1	-6
577.791	1	1
577.960	1	-6
578.130	1	2
578.300	1	-14
578.470	1	10
578.640	1	-6
578.810	1	-5
578.979	1	2
579.149	1	-6
579.319	1	8
579.489	1	5
579.659	1	2
579.829	1	-1
579.998	1	7
580.168	1	2
580.338	1	8
580.508	1	2
580.678	1	-2
580.848	1	3
581.017	1	10
581.187	1	4
581.357	1	4
581.527	1	-3
581.697	1	-2
581.867	1	-2
582.036	1	3
582.206	1	5
582.376	1	0
582.546	1	-1
582.716	1	4
582.885	1	-5
583.055	1	1
583.225	1	7
583.395	1	9
583.565	1	4
583.735	1	8
583.904	1	3
584.074	1	-1
584.244	1	2
584.414	1	-1
584.584	1	2
584.753	1	-2
584.923	1	-3
585.093	1	10
585.263	1	0
585.433	1	-3
585.602	1	-4
585.772	1	6
585.942	1	5
586.112	1	7
586.282	1	2
586.451	1	7
586.621	1	6
586.791	1	-1
586.961	1	7
587.131	1	7
587.300	1	-2
587.470	1	1
587.640	1	-3
587.810	1	4
587.980	1	-5
588.149	1	3
588.319	1	-7
588.489	1	4
588.659	1	2
588.829	1	-2
588.998	1	12
589.168	1	-2
589.338	1	7
589.508	1	1
589.677	1	4
589.847	1	-3
590.017	1	12
590.187	1	6
590.357	1	-1
590.526	1	15
590.696	1	3
590.866	1	6
591.036	1	-6
591.205	1	-1
591.375	1	-5
591.545	1	5
591.715	1	4
591.885	1	7
592.054	1	12
592.224	1	0
592.394	1	0
592.564	1	0
592.733	1	4
592.903	1	-3
593.073	1	1
593.243	1	2
593.412	1	-1
593.582	1	2
593.752	1	0
593.922	1	1
594.091	1	8
594.261	1	12
594.431	1	-5
594.601	1	0
594.771	1	0
594.940	1	-3
595.110	1	2
595.280	1	5
595.450	1	-3
595.619	1	1
595.789	1	-11
595.959	1	4
596.129	1	-4
596.298	1	-12
596.468	1	-2
596.638	1	0
596.808	1	6
596.977	1	0
597.147	1	-4
597.317	1	6
597.487	1	10
597.656	1	11
597.826	1	4
597.996	1	6
598.166	1	2
598.335	1	-5
598.505	1	0
598.675	1	12
598.844	1	-1
599.014	1	4
599.184	1	6
599.354	1	3
599.523	1	4
599.693	1	1
599.863	1	0
600.033	1	2
600.202	1	0
600.372	1	1
600.542	1	-1
600.712	1	9
600.881	1	2
601.051	1	-11
601.221	1	1
601.390	1	5
601.560	1	11
601.730	1	0
601.900	1	8
602.069	1	0
602.239	1	8
602.409	1	-2
602.578	1	6
602.748	1	-6
602.918	1	-9
603.088	1	-6
603.257	1	-2
603.427	1	6
603.597	1	13
603.767	1	1
603.936	1	11
604.106	1	7
604.276	1	-4
604.445	1	4
604.615	1	1
604.785	1	-8
604.954	1	0
605.124	1	0
605.294	1	2
605.464	1	1
605.633	1	-4
605.803	1	4
605.973	1	-6
606.142	1	5
606.312	1	-2
606.482	1	8
606.652	1	-5
606.821	1	8
606.991	1	8
607.161	1	-2
607.330	1	0
607.500	1	7
607.670	1	8
607.839	1	-1
608.009	1	7
608.179	1	-3
608.348	1	8
608.518	1	-13
608.688	1	4
608.858	1	-2
609.027	1	3
609.197	1	4
609.367	1	-3
609.536	1	-8
609.706	1	6
609.876	1	-4
610.045	1	6
610.215	1	0
610.385	1	-6
610.554	1	-6
610.724	1	-5
610.894	1	9
611.063	1	9
611.233	1	1
611.403	1	10
611.572	1	-2
611.742	1	-7
611.912	1	-4
612.081	1	-8
612.251	1	11
612.421	1	-3
612.590	1	-1
612.760	1	-4
612.930	1	-6
613.099	1	2
613.269	1	1
613.439	1	-2
613.608	1	11
613.778	1	4
613.948	1	9
614.117	1	-3
614.287	1	7
614.457	1	2
614.626	1	8
614.796	1	5
614.966	1	-3
615.135	1	7
615.305	1	1
615.475	1	-1
615.644	1	-9
615.814	1	-5
615.984	1	10
616.153	1	1
616.323	1	15
616.493	1	0
616.662	1	7
616.832	1	9
617.002	1	2
617.171	1	7
617.341	1	-5
617.511	1	11
617.680	1	1
617.850	1	1
618.019	1	-5
618.189	1	2
618.359	1	-3
618.528	1	4
618.698	1	0
618.868	1	1
619.037	1	6
619.207	1	3
619.377	1	-1
619.546	1	3
619.716	1	10
619.885	1	1
620.055	1	7
620.225	1	2
620.394	1	4
620.564	1	0
620.734	1	7
620.903	1	8
621.073	1	14
621.242	1	-6
621.412	1	13
621.582	1	-7
621.751	1	0
621.921	1	9
622.091	1	5
622.260	1	3
622.430	1	4
622.599	1	7
622.769	1	2
622.939	1	4
623.108	1	-4
623.278	1	-3
623.448	1	-7
623.617	1	-7
623.787	1	5
623.956	1	4
624.126	1	0
624.296	1	5
624.465	1	11
624.635	1	9
624.804	1	8
624.974	1	10
625.144	1	-3
625.313	1	6
625.483	1	5
625.652	1	4
625.822	1	-6
625.992	1	16
626.161	1	4
626.331	1	5
626.501	1	-2
626.670	1	1
626.840	1	6
627.009	1	8
627.179	1	-4
627.348	1	2
627.518	1	6
627.688	1	6
627.857	1	6
628.027	1	2
628.196	1	0
628.366	1	3
628.536	1	-1
628.705	1	0
628.875	1	4
629.044	1	-3
629.214	1	0
629.384	1	10
629.553	1	4
629.723	1	-5
629.892	1	2
630.062	1	4
630.232	1	-2
630.401	1	9
630.571	1	-3
630.740	1	-4
630.910	1	-4
631.079	1	2
631.249	1	-4
631.419	1	9
631.588	1	-1
631.758	1	2
631.927	1	-1
632.097	1	-10
632.266	1	0
632.436	1	4
632.606	1	4
632.775	1	6
632.945	1	-3
633.114	1	-7
633.284	1	5
633.453	1	1
633.623	1	-1
633.793	1	13
633.962	1	3
634.132	1	10
634.301	1	0
634.471	1	9
634.640	1	0
634.810	1	-3
634.979	1	0
635.149	1	-2
635.319	1	9
635.488	1	7
635.658	1	14
635.827	1	-2
635.997	1	5
636.166	1	-3
636.336	1	4
636.505	1	-8
636.675	1	6
636.845	1	-3
637.014	1	14
637.184	1	0
637.353	1	10
637.523	1	7
637.692	1	6
637.862	1	9
638.031	1	-4
638.201	1	4
638.370	1	-5
638.540	1	-8
638.710	1	-1
638.879	1	2
639.049	1	-3
639.218	1	-5
639.388	1	2
639.557	1	-2
639.727	1	-1
639.896	1	3
640.066	1	3
640.235	1	1
640.405	1	1
640.574	1	-2
640.744	1	14
640.914	1	-3
641.083	1	14
641.253	1	-4
641.422	1	-1
641.592	1	4
641.761	1	9
641.931	1	0
642.100	1	-7
642.270	1	3
642.439	1	4
642.609	1	-5
642.778	1	-2
642.948	1	5
643.117	1	5
643.287	1	4
643.456	1	13
643.626	1	13
643.795	1	3
643.965	1	-10
644.134	1	-3
644.304	1	-4
644.473	1	-5
644.643	1	-6
644.812	1	1
644.982	1	-1
645.151	1	-1
645.321	1	-5
645.490	1	7
645.660	1	1
645.829	1	-10
645.999	1	12
646.168	1	4
646.338	1	-1
646.507	1	1
646.677	1	6
646.846	1	-1
647.016	1	-2
647.185	1	5
647.355	1	5
647.524	1	-5
647.694	1	-2
647.863	1	-7
648.033	1	10
648.202	1	4
648.372	1	10
648.541	1	4
648.711	1	5
648.880	1	5
649.050	1	2
649.219	1	5
649.389	1	2
649.558	1	-5
649.728	1	8
649.897	1	0
650.067	1	11
650.236	1	1
650.406	1	7
650.575	1	-7
650.745	1	19
650.914	1	1
651.084	1	8
651.253	1	9
651.423	1	8
651.592	1	-4
651.762	1	-1
651.931	1	0
652.101	1	16
652.270	1	-7
652.440	1	9
652.609	1	-1
652.778	1	3
652.948	1	-2
653.117	1	5
653.287	1	-5
653.456	1	0
653.626	1	3
653.795	1	-1
653.965	1	6
654.134	1	1
654.304	1	-3
654.473	1	1
654.643	1	-5
654.812	1	8
654.982	1	5
655.151	1	-6
655.320	1	4
655.490	1	-6
655.659	1	0
655.829	1	0
655.998	1	0
656.168	1	-6
656.337	1	2
656.507	1	8
656.676	1	0
656.846	1	2
657.015	1	4
657.184	1	6
657.354	1	0
657.523	1	-6
657.693	1	-7
657.862	1	4
658.032	1	5
658.201	1	1
658.371	1	2
658.540	1	-7
658.709	1	0
658.879	1	1
659.048	1	2
659.218	1	3
659.387	1	-8
659.557	1	5
659.726	1	3
659.895	1	7
660.065	1	0
660.234	1	3
660.404	1	5
660.573	1	-3
660.743	1	6
660.912	1	7
661.081	1	16
661.251	1	-3
661.420	1	3
661.590	1	-1
661.759	1	-5
661.929	1	-1
662.098	1	1
662.267	1	5
662.437	1	1
662.606	1	3
662.776	1	1
662.945	1	7
663.115	1	-1
663.284	1	11
663.453	1	-11
663.623	1	-11
663.792	1	1
663.962	1	-1
664.131	1	12
664.300	1	12
664.470	1	1
664.639	1	7
664.809	1	-3
664.978	1	-3
665.148	1	0
665.317	1	-5
665.486	1	10
665.656	1	0
665.825	1	-3
665.995	1	-2
666.164	1	3
666.333	1	13
666.503	1	7
666.672	1	4
666.842	1	-1
667.011	1	7
667.180	1	-8
667.350	1	2
667.519	1	-4
667.689	1	12
667.858	1	-13
668.027	1	-1
668.197	1	-3
668.366	1	1
668.536	1	-2
668.705	1	3
668.874	1	-12
669.044	1	0
669.213	1	8
669.382	1	-4
669.552	1	5
669.721	1	4
669.891	1	-9
670.060	1	8
670.229	1	-8
670.399	1	6
670.568	1	4
670.738	1	9
670.907	1	0
671.076	1	2
671.246	1	-2
671.415	1	-5
671.584	1	0
671.754	1	13
671.923	1	2
672.093	1	0
672.262	1	4
672.431	1	1
672.601	1	3
672.770	1	5
672.939	1	4
673.109	1	4
673.278	1	-6
673.448	1	2
673.617	1	-5
673.786	1	8
