325.333	1	17
325.504	1	1
325.675	1	8
325.846	1	2
326.017	1	11
326.188	1	11
326.359	1	3
326.531	1	7
326.702	1	7
326.873	1	4
327.044	1	-3
327.215	1	4
327.386	1	1
327.557	1	4
327.728	1	3
327.899	1	6
328.070	1	5
328.241	1	11
328.412	1	3
328.583	1	-11
328.754	1	1
328.926	1	-4
329.097	1	-1
329.268	1	-6
329.439	1	8
329.610	1	16
329.781	1	9
329.952	1	4
330.123	1	-7
330.294	1	17
330.465	1	10
330.636	1	-3
330.807	1	0
330.978	1	6
331.149	1	8
331.320	1	1
331.492	1	16
331.663	1	4
331.834	1	9
332.005	1	-3
332.176	1	15
332.347	1	2
332.518	1	16
332.689	1	-1
332.860	1	3
333.031	1	7
333.202	1	1
333.373	1	15
333.544	1	13
333.715	1	2
333.886	1	13
334.057	1	12
334.228	1	11
334.399	1	-3
334.570	1	18
334.741	1	-1
334.912	1	1
335.084	1	4
335.255	1	3
335.426	1	-2
335.597	1	-1
335.768	1	18
335.939	1	5
336.110	1	2
336.281	1	5
336.452	1	8
336.623	1	3
336.794	1	3
336.965	1	4
337.136	1	-10
337.307	1	13
337.478	1	-4
337.649	1	-8
337.820	1	18
337.991	1	1
338.162	1	14
338.333	1	2
338.504	1	8
338.675	1	7
338.846	1	11
339.017	1	-2
339.188	1	9
339.359	1	14
339.530	1	13
339.701	1	4
339.872	1	7
340.043	1	10
340.214	1	3
340.385	1	1
340.556	1	7
340.727	1	10
340.898	1	10
341.069	1	3
341.240	1	9
341.411	1	7
341.582	1	11
341.753	1	3
341.924	1	9
342.095	1	4
342.266	1	3
342.437	1	8
342.608	1	23
342.779	1	7
342.950	1	0
343.121	1	8
343.292	1	9
343.463	1	5
343.634	1	14
343.805	1	8
343.976	1	3
344.147	1	11
344.318	1	21
344.489	1	3
344.660	1	15
344.831	1	14
345.002	1	12
345.173	1	9
345.344	1	2
345.515	1	3
345.686	1	-9
345.857	1	15
346.028	1	14
346.199	1	2
346.370	1	6
346.541	1	9
346.712	1	9
346.883	1	5
347.054	1	7
347.225	1	5
347.396	1	11
347.567	1	19
347.738	1	7
347.909	1	3
348.080	1	2
348.251	1	5
348.422	1	12
348.593	1	4
348.764	1	2
348.935	1	7
349.106	1	-1
349.277	1	-6
349.448	1	5
349.619	1	0
349.790	1	4
349.961	1	16
350.132	1	12
350.303	1	6
350.474	1	15
350.645	1	8
350.816	1	6
350.987	1	6
351.157	1	-3
351.328	1	12
351.499	1	13
351.670	1	11
351.841	1	13
352.012	1	5
352.183	1	6
352.354	1	14
352.525	1	14
352.696	1	14
352.867	1	-8
353.038	1	6
353.209	1	15
353.380	1	11
353.551	1	10
353.722	1	8
353.893	1	4
354.064	1	7
354.235	1	8
354.406	1	13
354.576	1	3
354.747	1	10
354.918	1	12
355.089	1	20
355.260	1	8
355.431	1	0
355.602	1	3
355.773	1	-3
355.944	1	11
356.115	1	11
356.286	1	8
356.457	1	20
356.628	1	11
356.799	1	8
356.970	1	12
357.141	1	5
357.311	1	0
357.482	1	9
357.653	1	3
357.824	1	7
357.995	1	7
358.166	1	14
358.337	1	0
358.508	1	0
358.679	1	1
358.850	1	17
359.021	1	7
359.192	1	9
359.363	1	14
359.533	1	7
359.704	1	2
359.875	1	6
360.046	1	-1
360.217	1	14
360.388	1	1
360.559	1	20
360.730	1	11
360.901	1	4
361.072	1	11
361.243	1	7
361.414	1	3
361.584	1	8
361.755	1	8
361.926	1	7
362.097	1	18
362.268	1	7
362.439	1	19
362.610	1	3
362.781	1	5
362.952	1	3
363.123	1	4
363.293	1	11
363.464	1	10
363.635	1	9
363.806	1	6
363.977	1	10
364.148	1	3
364.319	1	10
364.490	1	4
364.661	1	5
364.832	1	-2
365.002	1	7
365.173	1	9
365.344	1	12
365.515	1	5
365.686	1	2
365.857	1	4
366.028	1	4
366.199	1	7
366.370	1	8
366.540	1	11
366.711	1	1
366.882	1	5
367.053	1	1
367.224	1	18
367.395	1	10
367.566	1	7
367.737	1	3
367.908	1	21
368.078	1	12
368.249	1	8
368.420	1	6
368.591	1	4
368.762	1	6
368.933	1	9
369.104	1	11
369.274	1	10
369.445	1	6
369.616	1	-1
369.787	1	5
369.958	1	5
370.129	1	19
370.300	1	9
370.471	1	7
370.641	1	9
370.812	1	7
370.983	1	10
371.154	1	10
371.325	1	-4
371.496	1	10
371.667	1	5
371.837	1	10
372.008	1	13
372.179	1	-6
372.350	1	3
372.521	1	19
372.692	1	12
372.863	1	11
373.033	1	-5
373.204	1	8
373.375	1	2
373.546	1	5
373.717	1	10
373.888	1	15
374.059	1	12
374.229	1	6
374.400	1	11
374.571	1	-2
374.742	1	13
374.913	1	13
375.084	1	5
375.254	1	-3
375.425	1	8
375.596	1	6
375.767	1	23
375.938	1	7
376.109	1	17
376.279	1	2
376.450	1	16
376.621	1	10
376.792	1	28
376.963	1	-4
377.134	1	12
377.304	1	10
377.475	1	7
377.646	1	7
377.817	1	11
377.988	1	19
378.159	1	-2
378.329	1	13
378.500	1	12
378.671	1	11
378.842	1	16
379.013	1	5
379.184	1	13
379.354	1	3
379.525	1	11
379.696	1	5
379.867	1	10
380.038	1	21
380.209	1	12
380.379	1	15
380.550	1	3
380.721	1	23
380.892	1	10
381.063	1	7
381.233	1	19
381.404	1	18
381.575	1	19
381.746	1	0
381.917	1	0
382.087	1	22
382.258	1	13
382.429	1	7
382.600	1	10
382.771	1	6
382.941	1	7
383.112	1	8
383.283	1	9
383.454	1	8
383.625	1	9
383.795	1	18
383.966	1	8
384.137	1	11
384.308	1	14
384.479	1	15
384.649	1	19
384.820	1	17
384.991	1	9
385.162	1	17
385.333	1	15
385.503	1	-9
385.674	1	14
385.845	1	23
386.016	1	8
386.187	1	13
386.357	1	8
386.528	1	7
386.699	1	19
386.870	1	1
387.041	1	7
387.211	1	10
387.382	1	6
387.553	1	6
387.724	1	8
387.894	1	16
388.065	1	5
388.236	1	16
388.407	1	21
388.578	1	8
388.748	1	1
388.919	1	15
389.090	1	11
389.261	1	13
389.431	1	14
389.602	1	14
389.773	1	9
389.944	1	12
390.114	1	10
390.285	1	23
390.456	1	20
390.627	1	13
390.798	1	7
390.968	1	2
391.139	1	15
391.310	1	18
391.481	1	16
391.651	1	19
391.822	1	15
391.993	1	13
392.164	1	9
392.334	1	10
392.505	1	2
392.676	1	17
392.847	1	11
393.017	1	20
393.188	1	3
393.359	1	4
393.530	1	14
393.700	1	16
393.871	1	20
394.042	1	9
394.213	1	10
394.383	1	17
394.554	1	14
394.725	1	12
394.896	1	13
395.066	1	13
395.237	1	4
395.408	1	8
395.579	1	2
395.749	1	7
395.920	1	13
396.091	1	16
396.262	1	24
396.432	1	12
396.603	1	16
396.774	1	-12
396.945	1	16
397.115	1	13
397.286	1	12
397.457	1	10
397.627	1	16
397.798	1	14
397.969	1	4
398.140	1	11
398.310	1	11
398.481	1	20
398.652	1	16
398.823	1	7
398.993	1	7
399.164	1	18
399.335	1	19
399.505	1	22
399.676	1	13
399.847	1	18
400.018	1	15
400.188	1	9
400.359	1	22
400.530	1	15
400.700	1	8
400.871	1	21
401.042	1	17
401.213	1	18
401.383	1	5
401.554	1	12
401.725	1	12
401.895	1	20
402.066	1	14
402.237	1	18
402.408	1	17
402.578	1	9
402.749	1	14
402.920	1	15
403.090	1	31
403.261	1	15
403.432	1	22
403.603	1	31
403.773	1	15
403.944	1	9
404.115	1	10
404.285	1	9
404.456	1	2
404.627	1	15
404.797	1	8
404.968	1	26
405.139	1	18
405.310	1	12
405.480	1	10
405.651	1	1
405.822	1	10
405.992	1	15
406.163	1	15
406.334	1	20
406.504	1	9
406.675	1	14
406.846	1	18
407.016	1	15
407.187	1	14
407.358	1	15
407.528	1	6
407.699	1	1
407.870	1	13
408.041	1	19
408.211	1	13
408.382	1	21
408.553	1	12
408.723	1	14
408.894	1	12
409.065	1	9
409.235	1	15
409.406	1	13
409.577	1	22
409.747	1	19
409.918	1	22
410.089	1	10
410.259	1	22
410.430	1	10
410.601	1	17
410.771	1	11
410.942	1	26
411.113	1	28
411.283	1	14
411.454	1	19
411.625	1	15
411.795	1	18
411.966	1	19
412.137	1	33
412.307	1	24
412.478	1	8
412.649	1	20
412.819	1	27
412.990	1	9
413.161	1	19
413.331	1	5
413.502	1	24
413.672	1	5
413.843	1	13
414.014	1	24
414.184	1	6
414.355	1	21
414.526	1	12
414.696	1	27
414.867	1	4
415.038	1	17
415.208	1	9
415.379	1	16
415.550	1	17
415.720	1	19
415.891	1	7
416.062	1	4
416.232	1	5
416.403	1	21
416.573	1	22
416.744	1	16
416.915	1	11
417.085	1	15
417.256	1	18
417.427	1	16
417.597	1	19
417.768	1	12
417.939	1	11
418.109	1	8
418.280	1	18
418.450	1	15
418.621	1	6
418.792	1	18
418.962	1	17
419.133	1	15
419.304	1	10
419.474	1	10
419.645	1	13
419.815	1	8
419.986	1	19
420.157	1	24
420.327	1	15
420.498	1	16
420.669	1	7
420.839	1	16
421.010	1	7
421.180	1	14
421.351	1	27
421.522	1	25
421.692	1	12
421.863	1	14
422.033	1	10
422.204	1	9
422.375	1	11
422.545	1	10
422.716	1	18
422.886	1	23
423.057	1	22
423.228	1	22
423.398	1	23
423.569	1	25
423.740	1	17
423.910	1	17
424.081	1	10
424.251	1	11
424.422	1	16
424.593	1	10
424.763	1	14
424.934	1	17
425.104	1	20
425.275	1	13
425.445	1	8
425.616	1	17
425.787	1	6
425.957	1	20
426.128	1	8
426.298	1	6
426.469	1	18
426.640	1	11
426.810	1	16
426.981	1	18
427.151	1	16
427.322	1	6
427.493	1	9
427.663	1	8
427.834	1	17
428.004	1	21
428.175	1	12
428.345	1	5
428.516	1	10
428.687	1	18
428.857	1	18
429.028	1	10
429.198	1	4
429.369	1	6
429.540	1	14
429.710	1	22
429.881	1	24
430.051	1	13
430.222	1	22
430.392	1	13
430.563	1	23
430.734	1	5
430.904	1	20
431.075	1	15
431.245	1	13
431.416	1	19
431.586	1	20
431.757	1	14
431.927	1	13
432.098	1	16
432.269	1	18
432.439	1	1
432.610	1	16
432.780	1	5
432.951	1	22
433.121	1	13
433.292	1	16
433.462	1	14
433.633	1	22
433.804	1	7
433.974	1	19
434.145	1	16
434.315	1	25
434.486	1	13
434.656	1	19
434.827	1	24
434.997	1	20
435.168	1	15
435.339	1	14
435.509	1	10
435.680	1	14
435.850	1	7
436.021	1	9
436.191	1	18
436.362	1	20
436.532	1	20
436.703	1	17
436.873	1	16
437.044	1	20
437.214	1	5
437.385	1	20
437.556	1	5
437.726	1	23
437.897	1	5
438.067	1	22
438.238	1	19
438.408	1	11
438.579	1	23
438.749	1	2
438.920	1	8
439.090	1	9
439.261	1	12
439.431	1	21
439.602	1	22
439.772	1	26
439.943	1	20
440.113	1	13
440.284	1	18
440.455	1	20
440.625	1	11
440.796	1	12
440.966	1	5
441.137	1	13
441.307	1	16
441.478	1	17
441.648	1	6
441.819	1	5
441.989	1	16
442.160	1	29
442.330	1	1
442.501	1	19
442.671	1	14
442.842	1	25
443.012	1	5
443.183	1	18
443.353	1	18
443.524	1	15
443.694	1	7
443.865	1	14
444.035	1	12
444.206	1	25
444.376	1	20
444.547	1	15
444.717	1	27
444.888	1	15
445.058	1	8
445.229	1	19
445.399	1	12
445.570	1	16
445.740	1	20
445.911	1	6
446.081	1	16
446.252	1	15
446.422	1	9
446.593	1	27
446.763	1	17
446.934	1	18
447.104	1	13
447.275	1	20
447.445	1	9
447.616	1	10
447.786	1	16
447.957	1	22
448.127	1	11
448.298	1	19
448.468	1	18
448.639	1	13
448.809	1	5
448.979	1	21
449.150	1	27
449.320	1	15
449.491	1	15
449.661	1	13
449.832	1	16
450.002	1	21
450.173	1	12
450.343	1	4
450.514	1	9
450.684	1	5
450.855	1	19
451.025	1	17
451.196	1	1
451.366	1	13
451.537	1	12
451.707	1	22
451.878	1	20
452.048	1	15
452.218	1	11
452.389	1	8
452.559	1	11
452.730	1	16
452.900	1	20
453.071	1	0
453.241	1	12
453.412	1	13
453.582	1	11
453.753	1	13
453.923	1	17
454.093	1	22
454.264	1	31
454.434	1	3
454.605	1	9
454.775	1	12
454.946	1	5
455.116	1	1
455.287	1	14
455.457	1	13
455.628	1	19
455.798	1	6
455.968	1	-1
456.139	1	3
456.309	1	19
456.480	1	-5
456.650	1	15
456.821	1	7
456.991	1	24
457.161	1	8
457.332	1	10
457.502	1	11
457.673	1	14
457.843	1	11
458.014	1	10
458.184	1	27
458.355	1	17
458.525	1	9
458.695	1	19
458.866	1	12
459.036	1	7
459.207	1	3
459.377	1	15
459.548	1	10
459.718	1	14
459.888	1	17
460.059	1	13
460.229	1	9
460.400	1	6
460.570	1	9
460.740	1	7
460.911	1	10
461.081	1	8
461.252	1	17
461.422	1	24
461.593	1	13
461.763	1	10
461.933	1	20
462.104	1	9
462.274	1	16
462.445	1	4
462.615	1	18
462.785	1	22
462.956	1	18
463.126	1	13
463.297	1	7
463.467	1	4
463.638	1	17
463.808	1	6
463.978	1	6
464.149	1	16
464.319	1	-3
464.490	1	15
464.660	1	11
464.830	1	13
465.001	1	15
465.171	1	10
465.342	1	27
465.512	1	12
465.682	1	15
465.853	1	20
466.023	1	9
466.194	1	18
466.364	1	6
466.534	1	9
466.705	1	24
466.875	1	13
467.045	1	13
467.216	1	15
467.386	1	26
467.557	1	18
467.727	1	7
467.897	1	6
468.068	1	11
468.238	1	13
468.409	1	6
468.579	1	16
468.749	1	13
468.920	1	17
469.090	1	8
469.260	1	9
469.431	1	5
469.601	1	16
469.772	1	13
469.942	1	17
470.112	1	13
470.283	1	7
470.453	1	11
470.623	1	12
470.794	1	13
470.964	1	18
471.135	1	21
471.305	1	23
471.475	1	15
471.646	1	3
471.816	1	8
471.986	1	13
472.157	1	7
472.327	1	12
472.497	1	19
472.668	1	7
472.838	1	2
473.009	1	11
473.179	1	19
473.349	1	5
473.520	1	5
473.690	1	11
473.860	1	10
474.031	1	1
474.201	1	-3
474.371	1	12
474.542	1	5
474.712	1	12
474.882	1	-3
475.053	1	18
475.223	1	19
475.394	1	18
475.564	1	6
475.734	1	16
475.905	1	2
476.075	1	4
476.245	1	6
476.416	1	20
476.586	1	0
476.756	1	12
476.927	1	13
477.097	1	6
477.267	1	12
477.438	1	20
477.608	1	-1
477.778	1	14
477.949	1	2
478.119	1	-1
478.289	1	17
478.460	1	9
478.630	1	3
478.800	1	11
478.971	1	20
479.141	1	19
479.311	1	9
479.482	1	6
479.652	1	1
479.822	1	3
479.993	1	14
480.163	1	10
480.333	1	9
480.504	1	2
480.674	1	13
480.844	1	11
481.015	1	2
481.185	1	7
481.355	1	14
481.525	1	10
481.696	1	11
481.866	1	14
482.036	1	12
482.207	1	7
482.377	1	2
482.547	1	14
482.718	1	4
482.888	1	13
483.058	1	8
483.229	1	9
483.399	1	7
483.569	1	15
483.740	1	14
483.910	1	13
484.080	1	13
484.250	1	21
484.421	1	2
484.591	1	12
484.761	1	11
484.932	1	8
485.102	1	12
485.272	1	8
485.443	1	9
485.613	1	3
485.783	1	5
485.953	1	9
486.124	1	14
486.294	1	19
486.464	1	5
486.635	1	10
486.805	1	11
486.975	1	2
487.146	1	-5
487.316	1	18
487.486	1	13
487.656	1	8
487.827	1	14
487.997	1	12
488.167	1	6
488.338	1	12
488.508	1	21
488.678	1	8
488.848	1	8
489.019	1	-1
489.189	1	6
489.359	1	10
489.529	1	8
489.700	1	13
489.870	1	14
490.040	1	12
490.211	1	19
490.381	1	1
490.551	1	10
490.721	1	10
490.892	1	6
491.062	1	6
491.232	1	4
491.402	1	20
491.573	1	9
491.743	1	0
491.913	1	11
492.084	1	14
492.254	1	7
492.424	1	8
492.594	1	5
492.765	1	3
492.935	1	8
493.105	1	25
493.275	1	4
493.446	1	4
493.616	1	10
493.786	1	5
493.956	1	7
494.127	1	14
494.297	1	13
494.467	1	8
494.637	1	1
494.808	1	13
494.978	1	10
495.148	1	14
495.318	1	2
495.489	1	10
495.659	1	9
495.829	1	5
495.999	1	-2
496.170	1	10
496.340	1	4
496.510	1	13
496.680	1	10
496.851	1	12
497.021	1	10
497.191	1	19
497.361	1	7
497.532	1	17
497.702	1	3
497.872	1	7
498.042	1	8
498.213	1	13
498.383	1	8
498.553	1	7
498.723	1	4
498.894	1	-2
499.064	1	10
499.234	1	11
499.404	1	7
499.574	1	1
499.745	1	8
499.915	1	8
500.085	1	3
500.255	1	12
500.426	1	13
500.596	1	6
500.766	1	16
500.936	1	-3
501.106	1	-1
501.277	1	8
501.447	1	11
501.617	1	17
501.787	1	4
501.958	1	11
502.128	1	5
502.298	1	6
502.468	1	7
502.638	1	3
502.809	1	15
502.979	1	18
503.149	1	12
503.319	1	-4
503.489	1	6
503.660	1	11
503.830	1	7
504.000	1	4
504.170	1	8
504.340	1	1
504.511	1	8
504.681	1	15
504.851	1	7
505.021	1	1
505.192	1	8
505.362	1	1
505.532	1	0
505.702	1	-1
505.872	1	12
506.043	1	12
506.213	1	10
506.383	1	15
506.553	1	19
506.723	1	-11
506.893	1	-8
507.064	1	9
507.234	1	5
507.404	1	0
507.574	1	11
507.744	1	20
507.915	1	10
508.085	1	15
508.255	1	21
508.425	1	-1
508.595	1	1
508.766	1	-8
508.936	1	0
509.106	1	10
509.276	1	2
509.446	1	8
509.616	1	11
509.787	1	8
509.957	1	10
510.127	1	0
510.297	1	-4
510.467	1	-3
510.638	1	5
510.808	1	3
510.978	1	11
511.148	1	11
511.318	1	-7
511.488	1	12
511.659	1	5
511.829	1	-1
511.999	1	12
512.169	1	9
512.339	1	12
512.509	1	16
512.680	1	3
512.850	1	13
513.020	1	14
513.190	1	0
513.360	1	8
513.530	1	15
513.700	1	18
513.871	1	5
514.041	1	2
514.211	1	13
514.381	1	9
514.551	1	4
514.721	1	5
514.892	1	7
515.062	1	3
515.232	1	-12
515.402	1	-2
515.572	1	12
515.742	1	11
515.912	1	11
516.083	1	4
516.253	1	11
516.423	1	0
516.593	1	-4
516.763	1	1
516.933	1	4
517.104	1	10
517.274	1	18
517.444	1	5
517.614	1	7
517.784	1	4
517.954	1	12
518.124	1	4
518.294	1	13
518.465	1	3
518.635	1	9
518.805	1	4
518.975	1	2
519.145	1	6
519.315	1	6
519.485	1	-4
519.656	1	17
519.826	1	11
519.996	1	7
520.166	1	0
520.336	1	16
520.506	1	-7
520.676	1	0
520.846	1	2
521.017	1	1
521.187	1	4
521.357	1	15
521.527	1	15
521.697	1	2
521.867	1	0
522.037	1	7
522.207	1	5
522.377	1	20
522.548	1	3
522.718	1	1
522.888	1	-1
523.058	1	8
523.228	1	4
523.398	1	6
523.568	1	10
523.738	1	8
523.909	1	-7
524.079	1	-7
524.249	1	4
524.419	1	7
524.589	1	0
524.759	1	5
524.929	1	-3
525.099	1	10
525.269	1	0
525.439	1	11
525.610	1	13
525.780	1	15
525.950	1	5
526.120	1	-3
526.290	1	-7
526.460	1	5
526.630	1	11
526.800	1	5
526.970	1	10
527.140	1	1
527.311	1	9
527.481	1	2
527.651	1	1
527.821	1	7
527.991	1	5
528.161	1	7
528.331	1	10
528.501	1	15
528.671	1	8
528.841	1	0
529.011	1	4
529.181	1	5
529.352	1	8
529.522	1	-1
529.692	1	0
529.862	1	-1
530.032	1	-1
530.202	1	4
530.372	1	-1
530.542	1	9
530.712	1	7
530.882	1	8
531.052	1	2
531.222	1	6
531.392	1	8
531.563	1	5
531.733	1	-2
531.903	1	8
532.073	1	0
532.243	1	16
532.413	1	3
532.583	1	2
532.753	1	17
532.923	1	7
533.093	1	9
533.263	1	15
533.433	1	11
533.603	1	-1
533.773	1	-6
533.943	1	6
534.113	1	4
534.284	1	3
534.454	1	4
534.624	1	6
534.794	1	4
534.964	1	4
535.134	1	2
535.304	1	7
535.474	1	12
535.644	1	14
535.814	1	-3
535.984	1	6
536.154	1	10
536.324	1	0
536.494	1	15
536.664	1	4
536.834	1	2
537.004	1	0
537.174	1	16
537.344	1	0
537.514	1	1
537.685	1	2
537.855	1	7
538.025	1	1
538.195	1	6
538.365	1	3
538.535	1	1
538.705	1	-8
538.875	1	11
539.045	1	11
539.215	1	2
539.385	1	-8
539.555	1	0
539.725	1	10
539.895	1	1
540.065	1	8
540.235	1	6
540.405	1	6
540.575	1	-7
540.745	1	7
540.915	1	11
541.085	1	3
541.255	1	-1
541.425	1	2
541.595	1	16
541.765	1	4
541.935	1	9
542.105	1	9
542.275	1	5
542.445	1	3
542.615	1	-2
542.785	1	-3
542.955	1	4
543.125	1	1
543.295	1	-3
543.465	1	9
543.635	1	4
543.805	1	6
543.975	1	4
544.145	1	2
544.315	1	10
544.485	1	5
544.655	1	-1
544.825	1	0
544.995	1	-2
545.165	1	11
545.335	1	6
545.505	1	10
545.675	1	0
545.845	1	1
546.015	1	0
546.185	1	-3
546.355	1	6
546.525	1	6
546.695	1	8
546.865	1	0
547.035	1	11
547.205	1	-1
547.375	1	1
547.545	1	2
547.715	1	6
547.885	1	-2
548.055	1	10
548.225	1	-4
548.395	1	13
548.565	1	0
548.735	1	8
548.905	1	-4
549.075	1	-5
549.245	1	11
549.415	1	3
549.585	1	0
549.755	1	14
549.925	1	14
550.095	1	18
550.265	1	-9
550.435	1	1
550.605	1	-5
550.775	1	9
550.945	1	-1
551.115	1	8
551.285	1	12
551.455	1	16
551.625	1	6
551.795	1	9
551.965	1	10
552.135	1	20
552.305	1	-1
552.475	1	3
552.645	1	1
552.815	1	8
552.985	1	14
553.155	1	-1
553.325	1	12
553.495	1	2
553.665	1	-6
553.835	1	6
554.004	1	5
554.174	1	7
554.344	1	-3
554.514	1	4
554.684	1	6
554.854	1	4
555.024	1	10
555.194	1	8
555.364	1	9
555.534	1	17
555.704	1	-2
555.874	1	1
556.044	1	10
556.214	1	-1
556.384	1	1
556.554	1	14
556.724	1	9
556.894	1	1
557.064	1	12
557.234	1	0
557.404	1	1
557.573	1	-1
557.743	1	-1
557.913	1	-2
558.083	1	-1
558.253	1	2
558.423	1	4
558.593	1	21
558.763	1	9
558.933	1	12
559.103	1	-5
559.273	1	8
559.443	1	5
559.613	1	6
559.783	1	5
559.953	1	9
560.122	1	10
560.292	1	2
560.462	1	9
560.632	1	11
560.802	1	9
560.972	1	-1
561.142	1	-6
561.312	1	-4
561.482	1	1
561.652	1	1
561.822	1	16
561.992	1	3
562.162	1	5
562.331	1	-12
562.501	1	4
562.671	1	-5
562.841	1	-10
563.011	1	-5
563.181	1	7
563.351	1	4
563.521	1	10
563.691	1	-4
563.861	1	7
564.031	1	20
564.201	1	7
564.370	1	1
564.540	1	17
564.710	1	-6
564.880	1	3
565.050	1	3
565.220	1	-2
565.390	1	7
565.560	1	10
565.730	1	1
565.900	1	8
566.069	1	-8
566.239	1	9
566.409	1	6
566.579	1	12
566.749	1	7
566.919	1	3
567.089	1	12
567.259	1	1
567.429	1	5
567.599	1	5
567.768	1	8
567.938	1	-7
568.108	1	2
568.278	1	4
568.448	1	0
568.618	1	-3
568.788	1	6
568.958	1	9
569.128	1	10
569.297	1	-1
569.467	1	2
569.637	1	1
569.807	1	-2
569.977	1	12
570.147	1	10
570.317	1	-4
570.487	1	-2
570.656	1	-3
570.826	1	-12
570.996	1	4
571.166	1	-1
571.336	1	7
571.506	1	1
571.676	1	9
571.846	1	3
572.015	1	1
572.185	1	8
572.355	1	5
572.525	1	1
572.695	1	3
572.865	1	-3
573.035	1	1
573.205	1	4
573.374	1	18
573.544	1	6
573.714	1	5
573.884	1	3
574.054	1	4
574.224	1	-2
574.394	1	4
574.563	1	13
574.733	1	7
574.903	1	-9
575.073	1	-1
575.243	1	3
575.413	1	-1
575.583	1	11
575.752	1	5
575.922	1	6
576.092	1	-2
576.262	1	17
576.432	1	-5
576.602	1	-4
576.772	1	1
576.941	1	16
577.111	1	1
577.281	1	5
577.451	1	-2
577.621	1	-2
577.791	1	13
577.960	1	1
578.130	1	-6
578.300	1	1
578.470	1	10
578.640	1	7
578.810	1	1
578.979	1	3
579.149	1	1
579.319	1	9
579.489	1	0
579.659	1	3
579.829	1	-11
579.998	1	10
580.168	1	8
580.338	1	7
580.508	1	12
580.678	1	6
580.848	1	5
581.017	1	7
581.187	1	4
581.357	1	-2
581.527	1	5
581.697	1	3
581.867	1	-2
582.036	1	6
582.206	1	7
582.376	1	13
582.546	1	0
582.716	1	8
582.885	1	-3
583.055	1	11
583.225	1	4
583.395	1	7
583.565	1	-1
583.735	1	12
583.904	1	2
584.074	1	8
584.244	1	7
584.414	1	6
584.584	1	-3
584.753	1	6
584.923	1	-3
585.093	1	0
585.263	1	9
585.433	1	-3
585.602	1	6
585.772	1	-2
585.942	1	10
586.112	1	-6
586.282	1	14
586.451	1	7
586.621	1	8
586.791	1	-2
586.961	1	10
587.131	1	5
587.300	1	-5
587.470	1	-8
587.640	1	-4
587.810	1	10
587.980	1	4
588.149	1	5
588.319	1	2
588.489	1	8
588.659	1	-3
588.829	1	-7
588.998	1	9
589.168	1	8
589.338	1	5
589.508	1	11
589.677	1	10
589.847	1	-1
590.017	1	16
590.187	1	1
590.357	1	14
590.526	1	15
590.696	1	-3
590.866	1	6
591.036	1	6
591.205	1	-1
591.375	1	2
591.545	1	13
591.715	1	8
591.885	1	3
592.054	1	15
592.224	1	6
592.394	1	16
592.564	1	5
592.733	1	9
592.903	1	-7
593.073	1	10
593.243	1	-8
593.412	1	2
593.582	1	6
593.752	1	10
593.922	1	9
594.091	1	4
594.261	1	2
594.431	1	0
594.601	1	9
594.771	1	2
594.940	1	-6
595.110	1	4
595.280	1	-2
595.450	1	6
595.619	1	14
595.789	1	1
595.959	1	3
596.129	1	5
596.298	1	1
596.468	1	6
596.638	1	-4
596.808	1	3
596.977	1	2
597.147	1	5
597.317	1	3
597.487	1	6
597.656	1	10
597.826	1	0
597.996	1	10
598.166	1	6
598.335	1	2
598.505	1	11
598.675	1	15
598.844	1	6
599.014	1	16
599.184	1	-3
599.354	1	5
599.523	1	11
599.693	1	3
599.863	1	3
600.033	1	-3
600.202	1	0
600.372	1	3
600.542	1	3
600.712	1	7
600.881	1	5
601.051	1	2
601.221	1	2
601.390	1	11
601.560	1	12
601.730	1	0
601.900	1	15
602.069	1	5
602.239	1	6
602.409	1	5
602.578	1	10
602.748	1	-8
602.918	1	-2
603.088	1	-3
603.257	1	1
603.427	1	12
603.597	1	7
603.767	1	6
603.936	1	0
604.106	1	3
604.276	1	6
604.445	1	10
604.615	1	-3
604.785	1	1
604.954	1	-4
605.124	1	3
605.294	1	10
605.464	1	-3
605.633	1	-8
605.803	1	6
605.973	1	-9
606.142	1	1
606.312	1	-1
606.482	1	1
606.652	1	3
606.821	1	7
606.991	1	13
607.161	1	0
607.330	1	0
607.500	1	12
607.670	1	16
607.839	1	7
608.009	1	10
608.179	1	10
608.348	1	7
608.518	1	-15
608.688	1	7
608.858	1	2
609.027	1	8
609.197	1	-1
609.367	1	1
609.536	1	3
609.706	1	2
609.876	1	-5
610.045	1	-2
610.215	1	-1
610.385	1	3
610.554	1	4
610.724	1	0
610.894	1	17
611.063	1	5
611.233	1	-3
611.403	1	5
611.572	1	3
611.742	1	-4
611.912	1	-4
612.081	1	-5
612.251	1	12
612.421	1	2
612.590	1	5
612.760	1	-10
612.930	1	-2
613.099	1	8
613.269	1	5
613.439	1	9
613.608	1	-4
613.778	1	7
613.948	1	13
614.117	1	-1
614.287	1	10
614.457	1	10
614.626	1	-1
614.796	1	12
614.966	1	-1
615.135	1	1
615.305	1	-9
615.475	1	9
615.644	1	3
615.814	1	-3
615.984	1	16
616.153	1	3
616.323	1	5
616.493	1	4
616.662	1	5
616.832	1	7
617.002	1	1
617.171	1	5
617.341	1	0
617.511	1	9
617.680	1	12
617.850	1	3
618.019	1	-2
618.189	1	-8
618.359	1	12
618.528	1	2
618.698	1	0
618.868	1	-2
619.037	1	-5
619.207	1	3
619.377	1	-4
619.546	1	10
619.716	1	13
619.885	1	-2
620.055	1	-7
620.225	1	12
620.394	1	2
620.564	1	2
620.734	1	9
620.903	1	16
621.073	1	4
621.242	1	0
621.412	1	9
621.582	1	-3
621.751	1	-2
621.921	1	6
622.091	1	17
622.260	1	4
622.430	1	6
622.599	1	10
622.769	1	8
622.939	1	-6
623.108	1	-1
623.278	1	2
623.448	1	0
623.617	1	0
623.787	1	1
623.956	1	7
624.126	1	-5
624.296	1	2
624.465	1	16
624.635	1	20
624.804	1	-1
624.974	1	5
625.144	1	-1
625.313	1	18
625.483	1	-1
625.652	1	-2
625.822	1	-3
625.992	1	14
626.161	1	10
626.331	1	-2
626.501	1	4
626.670	1	-3
626.840	1	-1
627.009	1	15
627.179	1	-4
627.348	1	3
627.518	1	1
627.688	1	13
627.857	1	15
628.027	1	18
628.196	1	3
628.366	1	4
628.536	1	-7
628.705	1	4
628.875	1	6
629.044	1	1
629.214	1	5
629.384	1	2
629.553	1	12
629.723	1	-1
629.892	1	7
630.062	1	4
630.232	1	4
630.401	1	2
630.571	1	14
630.740	1	5
630.910	1	0
631.079	1	-4
631.249	1	-5
631.419	1	7
631.588	1	5
631.758	1	14
631.927	1	-10
632.097	1	-7
632.266	1	-2
632.436	1	14
632.606	1	11
632.775	1	6
632.945	1	5
633.114	1	1
633.284	1	0
633.453	1	0
633.623	1	0
633.793	1	3
633.962	1	6
634.132	1	10
634.301	1	5
634.471	1	8
634.640	1	-1
634.810	1	0
634.979	1	-7
635.149	1	9
635.319	1	7
635.488	1	8
635.658	1	21
635.827	1	0
635.997	1	7
636.166	1	-5
636.336	1	4
636.505	1	-3
636.675	1	6
636.845	1	0
637.014	1	10
637.184	1	9
637.353	1	13
637.523	1	14
637.692	1	16
637.862	1	15
638.031	1	-2
638.201	1	11
638.370	1	1
638.540	1	5
638.710	1	5
638.879	1	12
639.049	1	-1
639.218	1	0
639.388	1	3
639.557	1	4
639.727	1	4
639.896	1	1
640.066	1	13
640.235	1	1
640.405	1	7
640.574	1	5
640.744	1	20
640.914	1	-11
641.083	1	9
641.253	1	8
641.422	1	2
641.592	1	14
641.761	1	3
641.931	1	5
642.100	1	-3
642.270	1	12
642.439	1	5
642.609	1	-1
642.778	1	-1
642.948	1	6
643.117	1	6
643.287	1	5
643.456	1	18
643.626	1	11
643.795	1	5
643.965	1	8
644.134	1	3
644.304	1	-4
644.473	1	4
644.643	1	-5
644.812	1	5
644.982	1	-1
645.151	1	14
645.321	1	7
645.490	1	10
645.660	1	-2
645.829	1	3
645.999	1	11
646.168	1	15
646.338	1	11
646.507	1	5
646.677	1	-2
646.846	1	7
647.016	1	0
647.185	1	12
647.355	1	6
647.524	1	10
647.694	1	7
647.863	1	-2
648.033	1	-1
648.202	1	7
648.372	1	14
648.541	1	1
648.711	1	15
648.880	1	2
649.050	1	4
649.219	1	11
649.389	1	5
649.558	1	1
649.728	1	5
649.897	1	2
650.067	1	15
650.236	1	13
650.406	1	8
650.575	1	2
650.745	1	12
650.914	1	-4
651.084	1	5
651.253	1	19
651.423	1	-1
651.592	1	8
651.762	1	-4
651.931	1	9
652.101	1	9
652.270	1	-2
652.440	1	2
652.609	1	-9
652.778	1	10
652.948	1	-9
653.117	1	19
653.287	1	-4
653.456	1	-1
653.626	1	9
653.795	1	2
653.965	1	9
654.134	1	6
654.304	1	1
654.473	1	8
654.643	1	-2
654.812	1	12
654.982	1	9
655.151	1	3
655.320	1	6
655.490	1	-4
655.659	1	5
655.829	1	8
655.998	1	-1
656.168	1	4
656.337	1	12
656.507	1	7
656.676	1	3
656.846	1	-5
657.015	1	-2
657.184	1	3
657.354	1	5
657.523	1	-3
657.693	1	-1
657.862	1	0
658.032	1	6
658.201	1	13
658.371	1	9
658.540	1	15
658.709	1	1
658.879	1	12
659.048	1	4
659.218	1	-6
659.387	1	0
659.557	1	14
659.726	1	2
659.895	1	10
660.065	1	0
660.234	1	4
660.404	1	-5
660.573	1	-7
660.743	1	-5
660.912	1	2
661.081	1	9
661.251	1	4
661.420	1	5
661.590	1	1
661.759	1	3
661.929	1	-3
662.098	1	6
662.267	1	2
662.437	1	6
662.606	1	6
662.776	1	5
662.945	1	6
663.115	1	7
663.284	1	-2
663.453	1	0
663.623	1	6
663.792	1	0
663.962	1	-1
664.131	1	12
664.300	1	4
664.470	1	10
664.639	1	0
664.809	1	1
664.978	1	12
665.148	1	7
665.317	1	7
665.486	1	12
665.656	1	3
665.825	1	-1
665.995	1	4
666.164	1	10
666.333	1	14
666.503	1	12
666.672	1	8
666.842	1	-1
667.011	1	9
667.180	1	-2
667.350	1	11
667.519	1	-5
667.689	1	8
667.858	1	-3
668.027	1	1
668.197	1	9
668.366	1	6
668.536	1	4
668.705	1	4
668.874	1	-3
669.044	1	6
669.213	1	4
669.382	1	1
669.552	1	11
669.721	1	1
669.891	1	0
670.060	1	8
670.229	1	-2
670.399	1	12
670.568	1	10
670.738	1	8
670.907	1	1
671.076	1	11
671.246	1	-2
671.415	1	-13
671.584	1	1
671.754	1	2
671.923	1	-6
672.093	1	7
672.262	1	10
672.431	1	11
672.601	1	5
672.770	1	-3
672.939	1	6
673.109	1	-2
673.278	1	0
673.448	1	3
673.617	1	1
673.786	1	8
