325.333	1	12
325.504	1	6
325.675	1	4
325.846	1	2
326.017	1	17
326.188	1	4
326.359	1	9
326.531	1	14
326.702	1	4
326.873	1	11
327.044	1	-3
327.215	1	13
327.386	1	-2
327.557	1	1
327.728	1	7
327.899	1	10
328.070	1	14
328.241	1	9
328.412	1	-5
328.583	1	0
328.754	1	3
328.926	1	2
329.097	1	11
329.268	1	-6
329.439	1	3
329.610	1	10
329.781	1	17
329.952	1	-3
330.123	1	2
330.294	1	9
330.465	1	14
330.636	1	-1
330.807	1	4
330.978	1	10
331.149	1	15
331.320	1	9
331.492	1	17
331.663	1	9
331.834	1	-1
332.005	1	3
332.176	1	16
332.347	1	7
332.518	1	18
332.689	1	4
332.860	1	-7
333.031	1	3
333.202	1	7
333.373	1	10
333.544	1	7
333.715	1	1
333.886	1	11
334.057	1	12
334.228	1	4
334.399	1	1
334.570	1	6
334.741	1	-9
334.912	1	12
335.084	1	5
335.255	1	18
335.426	1	3
335.597	1	7
335.768	1	18
335.939	1	4
336.110	1	6
336.281	1	1
336.452	1	15
336.623	1	1
336.794	1	4
336.965	1	8
337.136	1	-7
337.307	1	13
337.478	1	-3
337.649	1	3
337.820	1	14
337.991	1	12
338.162	1	4
338.333	1	4
338.504	1	20
338.675	1	6
338.846	1	13
339.017	1	-2
339.188	1	3
339.359	1	12
339.530	1	-3
339.701	1	2
339.872	1	7
340.043	1	12
340.214	1	5
340.385	1	3
340.556	1	13
340.727	1	1
340.898	1	11
341.069	1	10
341.240	1	-3
341.411	1	11
341.582	1	14
341.753	1	14
341.924	1	9
342.095	1	6
342.266	1	-1
342.437	1	19
342.608	1	11
342.779	1	7
342.950	1	6
343.121	1	1
343.292	1	20
343.463	1	9
343.634	1	8
343.805	1	6
343.976	1	3
344.147	1	3
344.318	1	18
344.489	1	6
344.660	1	9
344.831	1	14
345.002	1	6
345.173	1	14
345.344	1	6
345.515	1	-2
345.686	1	-2
345.857	1	11
346.028	1	14
346.199	1	2
346.370	1	13
346.541	1	13
346.712	1	14
346.883	1	-4
347.054	1	6
347.225	1	5
347.396	1	12
347.567	1	4
347.738	1	9
347.909	1	4
348.080	1	13
348.251	1	13
348.422	1	-1
348.593	1	11
348.764	1	10
348.935	1	7
349.106	1	-7
349.277	1	6
349.448	1	2
349.619	1	8
349.790	1	-2
349.961	1	19
350.132	1	13
350.303	1	8
350.474	1	6
350.645	1	5
350.816	1	8
350.987	1	5
351.157	1	2
351.328	1	7
351.499	1	14
351.670	1	4
351.841	1	18
352.012	1	19
352.183	1	6
352.354	1	13
352.525	1	12
352.696	1	4
352.867	1	2
353.038	1	8
353.209	1	-1
353.380	1	17
353.551	1	19
353.722	1	6
353.893	1	5
354.064	1	6
354.235	1	6
354.406	1	21
354.576	1	-2
354.747	1	7
354.918	1	8
355.089	1	8
355.260	1	8
355.431	1	7
355.602	1	15
355.773	1	7
355.944	1	9
356.115	1	18
356.286	1	5
356.457	1	20
356.628	1	15
356.799	1	10
356.970	1	17
357.141	1	5
357.311	1	16
357.482	1	6
357.653	1	4
357.824	1	6
357.995	1	25
358.166	1	8
358.337	1	7
358.508	1	6
358.679	1	10
358.850	1	13
359.021	1	4
359.192	1	8
359.363	1	-3
359.533	1	13
359.704	1	7
359.875	1	6
360.046	1	9
360.217	1	12
360.388	1	1
360.559	1	15
360.730	1	12
360.901	1	16
361.072	1	11
361.243	1	16
361.414	1	1
361.584	1	10
361.755	1	2
361.926	1	7
362.097	1	23
362.268	1	8
362.439	1	8
362.610	1	7
362.781	1	10
362.952	1	8
363.123	1	2
363.293	1	13
363.464	1	14
363.635	1	24
363.806	1	-2
363.977	1	4
364.148	1	2
364.319	1	15
364.490	1	9
364.661	1	7
364.832	1	10
365.002	1	7
365.173	1	8
365.344	1	10
365.515	1	3
365.686	1	9
365.857	1	13
366.028	1	7
366.199	1	12
366.370	1	6
366.540	1	21
366.711	1	6
366.882	1	11
367.053	1	7
367.224	1	12
367.395	1	-2
367.566	1	8
367.737	1	11
367.908	1	23
368.078	1	12
368.249	1	11
368.420	1	4
368.591	1	5
368.762	1	1
368.933	1	8
369.104	1	10
369.274	1	12
369.445	1	17
369.616	1	-1
369.787	1	6
369.958	1	0
370.129	1	17
370.300	1	6
370.471	1	11
370.641	1	8
370.812	1	12
370.983	1	8
371.154	1	10
371.325	1	4
371.496	1	6
371.667	1	1
371.837	1	-1
372.008	1	21
372.179	1	13
372.350	1	17
372.521	1	13
372.692	1	8
372.863	1	27
373.033	1	-4
373.204	1	5
373.375	1	-7
373.546	1	4
373.717	1	10
373.888	1	11
374.059	1	8
374.229	1	12
374.400	1	15
374.571	1	0
374.742	1	7
374.913	1	3
375.084	1	8
375.254	1	8
375.425	1	9
375.596	1	16
375.767	1	17
375.938	1	18
376.109	1	15
376.279	1	-6
376.450	1	17
376.621	1	19
376.792	1	17
376.963	1	-1
377.134	1	14
377.304	1	17
377.475	1	3
377.646	1	2
377.817	1	5
377.988	1	11
378.159	1	4
378.329	1	14
378.500	1	12
378.671	1	15
378.842	1	24
379.013	1	16
379.184	1	20
379.354	1	12
379.525	1	5
379.696	1	16
379.867	1	10
380.038	1	19
380.209	1	7
380.379	1	22
380.550	1	11
380.721	1	17
380.892	1	3
381.063	1	10
381.233	1	27
381.404	1	18
381.575	1	16
381.746	1	6
381.917	1	10
382.087	1	11
382.258	1	13
382.429	1	7
382.600	1	13
382.771	1	16
382.941	1	15
383.112	1	7
383.283	1	18
383.454	1	16
383.625	1	11
383.795	1	21
383.966	1	19
384.137	1	17
384.308	1	8
384.479	1	19
384.649	1	14
384.820	1	11
384.991	1	13
385.162	1	12
385.333	1	5
385.503	1	4
385.674	1	20
385.845	1	17
386.016	1	11
386.187	1	14
386.357	1	21
386.528	1	17
386.699	1	28
386.870	1	3
387.041	1	11
387.211	1	8
387.382	1	21
387.553	1	11
387.724	1	11
387.894	1	12
388.065	1	14
388.236	1	8
388.407	1	12
388.578	1	15
388.748	1	9
388.919	1	12
389.090	1	10
389.261	1	9
389.431	1	22
389.602	1	7
389.773	1	19
389.944	1	18
390.114	1	11
390.285	1	21
390.456	1	12
390.627	1	16
390.798	1	6
390.968	1	6
391.139	1	22
391.310	1	21
391.481	1	19
391.651	1	5
391.822	1	11
391.993	1	11
392.164	1	4
392.334	1	11
392.505	1	14
392.676	1	18
392.847	1	19
393.017	1	18
393.188	1	15
393.359	1	9
393.530	1	9
393.700	1	21
393.871	1	14
394.042	1	3
394.213	1	16
394.383	1	26
394.554	1	25
394.725	1	-8
394.896	1	7
395.066	1	21
395.237	1	14
395.408	1	10
395.579	1	7
395.749	1	7
395.920	1	16
396.091	1	13
396.262	1	16
396.432	1	22
396.603	1	25
396.774	1	-3
396.945	1	12
397.115	1	17
397.286	1	13
397.457	1	20
397.627	1	25
397.798	1	27
397.969	1	19
398.140	1	14
398.310	1	16
398.481	1	32
398.652	1	23
398.823	1	14
398.993	1	18
399.164	1	13
399.335	1	22
399.505	1	17
399.676	1	25
399.847	1	18
400.018	1	21
400.188	1	14
400.359	1	14
400.530	1	23
400.700	1	18
400.871	1	21
401.042	1	17
401.213	1	18
401.383	1	5
401.554	1	9
401.725	1	15
401.895	1	27
402.066	1	16
402.237	1	17
402.408	1	23
402.578	1	12
402.749	1	20
402.920	1	19
403.090	1	16
403.261	1	23
403.432	1	12
403.603	1	18
403.773	1	15
403.944	1	16
404.115	1	8
404.285	1	10
404.456	1	13
404.627	1	19
404.797	1	13
404.968	1	22
405.139	1	22
405.310	1	20
405.480	1	11
405.651	1	3
405.822	1	20
405.992	1	16
406.163	1	15
406.334	1	17
406.504	1	17
406.675	1	14
406.846	1	31
407.016	1	18
407.187	1	5
407.358	1	21
407.528	1	8
407.699	1	13
407.870	1	8
408.041	1	16
408.211	1	17
408.382	1	30
408.553	1	11
408.723	1	17
408.894	1	13
409.065	1	19
409.235	1	7
409.406	1	14
409.577	1	21
409.747	1	16
409.918	1	18
410.089	1	17
410.259	1	18
410.430	1	13
410.601	1	18
410.771	1	12
410.942	1	20
411.113	1	33
411.283	1	22
411.454	1	18
411.625	1	13
411.795	1	16
411.966	1	19
412.137	1	23
412.307	1	14
412.478	1	15
412.649	1	20
412.819	1	19
412.990	1	13
413.161	1	23
413.331	1	19
413.502	1	20
413.672	1	-2
413.843	1	7
414.014	1	27
414.184	1	18
414.355	1	24
414.526	1	8
414.696	1	16
414.867	1	14
415.038	1	22
415.208	1	9
415.379	1	22
415.550	1	13
415.720	1	16
415.891	1	0
416.062	1	18
416.232	1	16
416.403	1	17
416.573	1	19
416.744	1	18
416.915	1	21
417.085	1	24
417.256	1	16
417.427	1	16
417.597	1	17
417.768	1	20
417.939	1	17
418.109	1	13
418.280	1	22
418.450	1	23
418.621	1	14
418.792	1	17
418.962	1	15
419.133	1	16
419.304	1	14
419.474	1	14
419.645	1	15
419.815	1	9
419.986	1	15
420.157	1	21
420.327	1	10
420.498	1	13
420.669	1	15
420.839	1	19
421.010	1	13
421.180	1	11
421.351	1	26
421.522	1	24
421.692	1	20
421.863	1	21
422.033	1	19
422.204	1	10
422.375	1	12
422.545	1	14
422.716	1	27
422.886	1	18
423.057	1	30
423.228	1	14
423.398	1	15
423.569	1	21
423.740	1	22
423.910	1	21
424.081	1	17
424.251	1	19
424.422	1	13
424.593	1	18
424.763	1	20
424.934	1	3
425.104	1	6
425.275	1	21
425.445	1	13
425.616	1	17
425.787	1	17
425.957	1	14
426.128	1	24
426.298	1	14
426.469	1	18
426.640	1	22
426.810	1	15
426.981	1	20
427.151	1	20
427.322	1	13
427.493	1	6
427.663	1	16
427.834	1	15
428.004	1	16
428.175	1	2
428.345	1	19
428.516	1	18
428.687	1	28
428.857	1	30
429.028	1	12
429.198	1	16
429.369	1	11
429.540	1	17
429.710	1	20
429.881	1	27
430.051	1	14
430.222	1	27
430.392	1	19
430.563	1	25
430.734	1	15
430.904	1	13
431.075	1	18
431.245	1	8
431.416	1	10
431.586	1	21
431.757	1	20
431.927	1	15
432.098	1	12
432.269	1	21
432.439	1	5
432.610	1	18
432.780	1	11
432.951	1	28
433.121	1	16
433.292	1	24
433.462	1	12
433.633	1	31
433.804	1	13
433.974	1	13
434.145	1	14
434.315	1	12
434.486	1	22
434.656	1	23
434.827	1	11
434.997	1	16
435.168	1	23
435.339	1	13
435.509	1	21
435.680	1	17
435.850	1	6
436.021	1	12
436.191	1	20
436.362	1	22
436.532	1	28
436.703	1	26
436.873	1	17
437.044	1	23
437.214	1	18
437.385	1	20
437.556	1	4
437.726	1	29
437.897	1	6
438.067	1	19
438.238	1	18
438.408	1	15
438.579	1	25
438.749	1	13
438.920	1	10
439.090	1	15
439.261	1	14
439.431	1	21
439.602	1	14
439.772	1	20
439.943	1	10
440.113	1	21
440.284	1	17
440.455	1	22
440.625	1	14
440.796	1	26
440.966	1	20
441.137	1	12
441.307	1	19
441.478	1	17
441.648	1	13
441.819	1	12
441.989	1	17
442.160	1	26
442.330	1	12
442.501	1	14
442.671	1	16
442.842	1	24
443.012	1	7
443.183	1	21
443.353	1	13
443.524	1	14
443.694	1	18
443.865	1	20
444.035	1	10
444.206	1	17
444.376	1	15
444.547	1	10
444.717	1	19
444.888	1	27
445.058	1	15
445.229	1	13
445.399	1	11
445.570	1	12
445.740	1	19
445.911	1	17
446.081	1	10
446.252	1	11
446.422	1	9
446.593	1	28
446.763	1	22
446.934	1	29
447.104	1	11
447.275	1	15
447.445	1	18
447.616	1	6
447.786	1	21
447.957	1	12
448.127	1	12
448.298	1	23
448.468	1	24
448.639	1	15
448.809	1	12
448.979	1	25
449.150	1	23
449.320	1	17
449.491	1	8
449.661	1	19
449.832	1	24
450.002	1	18
450.173	1	20
450.343	1	10
450.514	1	17
450.684	1	2
450.855	1	22
451.025	1	18
451.196	1	9
451.366	1	22
451.537	1	14
451.707	1	19
451.878	1	15
452.048	1	17
452.218	1	21
452.389	1	9
452.559	1	9
452.730	1	16
452.900	1	17
453.071	1	11
453.241	1	16
453.412	1	23
453.582	1	10
453.753	1	16
453.923	1	24
454.093	1	19
454.264	1	12
454.434	1	4
454.605	1	18
454.775	1	8
454.946	1	22
455.116	1	8
455.287	1	17
455.457	1	25
455.628	1	3
455.798	1	8
455.968	1	14
456.139	1	6
456.309	1	6
456.480	1	14
456.650	1	16
456.821	1	21
456.991	1	20
457.161	1	10
457.332	1	5
457.502	1	15
457.673	1	7
457.843	1	11
458.014	1	14
458.184	1	21
458.355	1	16
458.525	1	14
458.695	1	15
458.866	1	11
459.036	1	7
459.207	1	13
459.377	1	12
459.548	1	9
459.718	1	10
459.888	1	24
460.059	1	21
460.229	1	13
460.400	1	3
460.570	1	21
460.740	1	4
460.911	1	11
461.081	1	14
461.252	1	21
461.422	1	21
461.593	1	13
461.763	1	5
461.933	1	21
462.104	1	14
462.274	1	12
462.445	1	11
462.615	1	11
462.785	1	13
462.956	1	19
463.126	1	21
463.297	1	7
463.467	1	4
463.638	1	19
463.808	1	4
463.978	1	12
464.149	1	21
464.319	1	2
464.490	1	20
464.660	1	16
464.830	1	20
465.001	1	17
465.171	1	18
465.342	1	13
465.512	1	18
465.682	1	14
465.853	1	15
466.023	1	10
466.194	1	4
466.364	1	8
466.534	1	13
466.705	1	20
466.875	1	17
467.045	1	2
467.216	1	8
467.386	1	19
467.557	1	5
467.727	1	17
467.897	1	17
468.068	1	24
468.238	1	13
468.409	1	1
468.579	1	16
468.749	1	24
468.920	1	12
469.090	1	9
469.260	1	5
469.431	1	7
469.601	1	10
469.772	1	13
469.942	1	19
470.112	1	9
470.283	1	6
470.453	1	8
470.623	1	2
470.794	1	15
470.964	1	17
471.135	1	18
471.305	1	21
471.475	1	10
471.646	1	24
471.816	1	18
471.986	1	16
472.157	1	13
472.327	1	19
472.497	1	11
472.668	1	11
472.838	1	4
473.009	1	10
473.179	1	12
473.349	1	17
473.520	1	14
473.690	1	12
473.860	1	2
474.031	1	10
474.201	1	14
474.371	1	8
474.542	1	6
474.712	1	13
474.882	1	8
475.053	1	10
475.223	1	14
475.394	1	18
475.564	1	17
475.734	1	16
475.905	1	1
476.075	1	22
476.245	1	12
476.416	1	15
476.586	1	7
476.756	1	16
476.927	1	14
477.097	1	11
477.267	1	21
477.438	1	4
477.608	1	8
477.778	1	16
477.949	1	10
478.119	1	6
478.289	1	15
478.460	1	18
478.630	1	6
478.800	1	15
478.971	1	13
479.141	1	11
479.311	1	5
479.482	1	7
479.652	1	9
479.822	1	11
479.993	1	24
480.163	1	19
480.333	1	6
480.504	1	2
480.674	1	16
480.844	1	10
481.015	1	-5
481.185	1	2
481.355	1	9
481.525	1	6
481.696	1	21
481.866	1	17
482.036	1	16
482.207	1	12
482.377	1	9
482.547	1	1
482.718	1	10
482.888	1	16
483.058	1	8
483.229	1	6
483.399	1	4
483.569	1	15
483.740	1	18
483.910	1	23
484.080	1	15
484.250	1	18
484.421	1	1
484.591	1	8
484.761	1	14
484.932	1	1
485.102	1	16
485.272	1	5
485.443	1	4
485.613	1	8
485.783	1	6
485.953	1	12
486.124	1	11
486.294	1	11
486.464	1	0
486.635	1	10
486.805	1	4
486.975	1	2
487.146	1	5
487.316	1	7
487.486	1	15
487.656	1	10
487.827	1	0
487.997	1	17
488.167	1	-2
488.338	1	19
488.508	1	20
488.678	1	6
488.848	1	13
489.019	1	6
489.189	1	7
489.359	1	15
489.529	1	12
489.700	1	17
489.870	1	16
490.040	1	16
490.211	1	8
490.381	1	11
490.551	1	5
490.721	1	9
490.892	1	13
491.062	1	6
491.232	1	10
491.402	1	17
491.573	1	5
491.743	1	5
491.913	1	14
492.084	1	11
492.254	1	0
492.424	1	14
492.594	1	16
492.765	1	14
492.935	1	6
493.105	1	22
493.275	1	6
493.446	1	14
493.616	1	10
493.786	1	0
493.956	1	21
494.127	1	17
494.297	1	6
494.467	1	7
494.637	1	12
494.808	1	4
494.978	1	9
495.148	1	19
495.318	1	8
495.489	1	12
495.659	1	13
495.829	1	12
495.999	1	7
496.170	1	11
496.340	1	7
496.510	1	19
496.680	1	15
496.851	1	12
497.021	1	3
497.191	1	22
497.361	1	6
497.532	1	14
497.702	1	4
497.872	1	4
498.042	1	3
498.213	1	7
498.383	1	6
498.553	1	6
498.723	1	1
498.894	1	-3
499.064	1	15
499.234	1	18
499.404	1	8
499.574	1	3
499.745	1	19
499.915	1	12
500.085	1	2
500.255	1	8
500.426	1	3
500.596	1	5
500.766	1	14
500.936	1	12
501.106	1	10
501.277	1	8
501.447	1	12
501.617	1	7
501.787	1	9
501.958	1	18
502.128	1	6
502.298	1	14
502.468	1	18
502.638	1	7
502.809	1	3
502.979	1	9
503.149	1	12
503.319	1	9
503.489	1	12
503.660	1	9
503.830	1	15
504.000	1	15
504.170	1	13
504.340	1	6
504.511	1	14
504.681	1	10
504.851	1	1
505.021	1	1
505.192	1	8
505.362	1	4
505.532	1	1
505.702	1	5
505.872	1	9
506.043	1	18
506.213	1	9
506.383	1	4
506.553	1	19
506.723	1	4
506.893	1	3
507.064	1	17
507.234	1	4
507.404	1	8
507.574	1	16
507.744	1	24
507.915	1	5
508.085	1	14
508.255	1	19
508.425	1	-2
508.595	1	2
508.766	1	4
508.936	1	2
509.106	1	7
509.276	1	8
509.446	1	8
509.616	1	7
509.787	1	1
509.957	1	6
510.127	1	-1
510.297	1	4
510.467	1	8
510.638	1	1
510.808	1	14
510.978	1	10
511.148	1	12
511.318	1	-3
511.488	1	8
511.659	1	9
511.829	1	1
511.999	1	10
512.169	1	15
512.339	1	2
512.509	1	21
512.680	1	15
512.850	1	11
513.020	1	14
513.190	1	7
513.360	1	16
513.530	1	7
513.700	1	21
513.871	1	7
514.041	1	5
514.211	1	10
514.381	1	14
514.551	1	12
514.721	1	5
514.892	1	3
515.062	1	1
515.232	1	-10
515.402	1	-4
515.572	1	12
515.742	1	9
515.912	1	11
516.083	1	15
516.253	1	11
516.423	1	5
516.593	1	3
516.763	1	3
516.933	1	-9
517.104	1	11
517.274	1	8
517.444	1	13
517.614	1	10
517.784	1	4
517.954	1	6
518.124	1	4
518.294	1	10
518.465	1	2
518.635	1	6
518.805	1	14
518.975	1	0
519.145	1	11
519.315	1	9
519.485	1	3
519.656	1	15
519.826	1	17
519.996	1	6
520.166	1	5
520.336	1	4
520.506	1	2
520.676	1	15
520.846	1	5
521.017	1	11
521.187	1	4
521.357	1	3
521.527	1	14
521.697	1	4
521.867	1	-2
522.037	1	-2
522.207	1	2
522.377	1	11
522.548	1	-4
522.718	1	7
522.888	1	6
523.058	1	13
523.228	1	4
523.398	1	4
523.568	1	7
523.738	1	2
523.909	1	1
524.079	1	-4
524.249	1	5
524.419	1	4
524.589	1	8
524.759	1	7
524.929	1	10
525.099	1	1
525.269	1	1
525.439	1	2
525.610	1	3
525.780	1	17
525.950	1	-1
526.120	1	0
526.290	1	8
526.460	1	12
526.630	1	12
526.800	1	12
526.970	1	5
527.140	1	7
527.311	1	-6
527.481	1	-8
527.651	1	7
527.821	1	15
527.991	1	12
528.161	1	-1
528.331	1	9
528.501	1	6
528.671	1	1
528.841	1	11
529.011	1	0
529.181	1	0
529.352	1	20
529.522	1	1
529.692	1	-1
529.862	1	4
530.032	1	14
530.202	1	3
530.372	1	-5
530.542	1	0
530.712	1	22
530.882	1	7
531.052	1	0
531.222	1	6
531.392	1	4
531.563	1	2
531.733	1	-5
531.903	1	10
532.073	1	4
532.243	1	13
532.413	1	10
532.583	1	-6
532.753	1	16
532.923	1	5
533.093	1	14
533.263	1	11
533.433	1	4
533.603	1	0
533.773	1	5
533.943	1	15
534.113	1	9
534.284	1	4
534.454	1	9
534.624	1	1
534.794	1	-4
534.964	1	7
535.134	1	10
535.304	1	2
535.474	1	9
535.644	1	21
535.814	1	-3
535.984	1	4
536.154	1	11
536.324	1	5
536.494	1	11
536.664	1	-6
536.834	1	3
537.004	1	-3
537.174	1	18
537.344	1	8
537.514	1	3
537.685	1	14
537.855	1	7
538.025	1	10
538.195	1	10
538.365	1	-4
538.535	1	3
538.705	1	7
538.875	1	10
539.045	1	11
539.215	1	7
539.385	1	1
539.555	1	0
539.725	1	4
539.895	1	-1
540.065	1	7
540.235	1	0
540.405	1	6
540.575	1	6
540.745	1	5
540.915	1	4
541.085	1	11
541.255	1	-1
541.425	1	5
541.595	1	16
541.765	1	5
541.935	1	2
542.105	1	15
542.275	1	9
542.445	1	7
542.615	1	1
542.785	1	1
542.955	1	10
543.125	1	-10
543.295	1	-6
543.465	1	8
543.635	1	7
543.805	1	5
543.975	1	9
544.145	1	5
544.315	1	13
544.485	1	8
544.655	1	-1
544.825	1	6
544.995	1	5
545.165	1	10
545.335	1	11
545.505	1	5
545.675	1	5
545.845	1	-2
546.015	1	4
546.185	1	-1
546.355	1	-3
546.525	1	-6
546.695	1	3
546.865	1	5
547.035	1	9
547.205	1	3
547.375	1	2
547.545	1	11
547.715	1	1
547.885	1	-7
548.055	1	13
548.225	1	4
548.395	1	7
548.565	1	1
548.735	1	9
548.905	1	-5
549.075	1	1
549.245	1	20
549.415	1	2
549.585	1	5
549.755	1	15
549.925	1	3
550.095	1	7
550.265	1	-1
550.435	1	8
550.605	1	2
550.775	1	2
550.945	1	-1
551.115	1	7
551.285	1	3
551.455	1	14
551.625	1	12
551.795	1	8
551.965	1	-1
552.135	1	2
552.305	1	0
552.475	1	2
552.645	1	6
552.815	1	8
552.985	1	8
553.155	1	3
553.325	1	16
553.495	1	12
553.665	1	1
553.835	1	0
554.004	1	12
554.174	1	1
554.344	1	-10
554.514	1	-4
554.684	1	7
554.854	1	2
555.024	1	7
555.194	1	3
555.364	1	6
555.534	1	15
555.704	1	1
555.874	1	4
556.044	1	21
556.214	1	-6
556.384	1	5
556.554	1	9
556.724	1	10
556.894	1	-3
557.064	1	2
557.234	1	2
557.404	1	6
557.573	1	-5
557.743	1	1
557.913	1	2
558.083	1	4
558.253	1	5
558.423	1	4
558.593	1	18
558.763	1	18
558.933	1	11
559.103	1	-3
559.273	1	10
559.443	1	4
559.613	1	8
559.783	1	8
559.953	1	10
560.122	1	11
560.292	1	-4
560.462	1	9
560.632	1	6
560.802	1	7
560.972	1	-1
561.142	1	0
561.312	1	2
561.482	1	5
561.652	1	-9
561.822	1	9
561.992	1	0
562.162	1	2
562.331	1	-1
562.501	1	0
562.671	1	-1
562.841	1	-7
563.011	1	-3
563.181	1	7
563.351	1	1
563.521	1	16
563.691	1	-3
563.861	1	14
564.031	1	12
564.201	1	13
564.370	1	2
564.540	1	13
564.710	1	-5
564.880	1	4
565.050	1	4
565.220	1	3
565.390	1	10
565.560	1	6
565.730	1	-1
565.900	1	6
566.069	1	-12
566.239	1	8
566.409	1	2
566.579	1	5
566.749	1	12
566.919	1	6
567.089	1	10
567.259	1	1
567.429	1	7
567.599	1	3
567.768	1	13
567.938	1	6
568.108	1	-1
568.278	1	-1
568.448	1	-4
568.618	1	4
568.788	1	11
568.958	1	15
569.128	1	5
569.297	1	-1
569.467	1	10
569.637	1	1
569.807	1	-8
569.977	1	0
570.147	1	5
570.317	1	2
570.487	1	1
570.656	1	-5
570.826	1	4
570.996	1	-5
571.166	1	11
571.336	1	13
571.506	1	4
571.676	1	0
571.846	1	8
572.015	1	3
572.185	1	7
572.355	1	3
572.525	1	6
572.695	1	-2
572.865	1	-4
573.035	1	6
573.205	1	0
573.374	1	21
573.544	1	-2
573.714	1	2
573.884	1	10
574.054	1	10
574.224	1	3
574.394	1	6
574.563	1	13
574.733	1	1
574.903	1	1
575.073	1	-1
575.243	1	1
575.413	1	5
575.583	1	14
575.752	1	10
575.922	1	10
576.092	1	2
576.262	1	0
576.432	1	-6
576.602	1	1
576.772	1	4
576.941	1	2
577.111	1	3
577.281	1	3
577.451	1	5
577.621	1	-5
577.791	1	9
577.960	1	9
578.130	1	-5
578.300	1	-9
578.470	1	15
578.640	1	-2
578.810	1	-2
578.979	1	1
579.149	1	10
579.319	1	13
579.489	1	14
579.659	1	2
579.829	1	2
579.998	1	4
580.168	1	5
580.338	1	3
580.508	1	17
580.678	1	3
580.848	1	8
581.017	1	5
581.187	1	7
581.357	1	-2
581.527	1	6
581.697	1	2
581.867	1	-7
582.036	1	2
582.206	1	5
582.376	1	9
582.546	1	1
582.716	1	5
582.885	1	-7
583.055	1	13
583.225	1	7
583.395	1	11
583.565	1	-2
583.735	1	9
583.904	1	0
584.074	1	5
584.244	1	14
584.414	1	7
584.584	1	1
584.753	1	-6
584.923	1	-9
585.093	1	2
585.263	1	9
585.433	1	-8
585.602	1	9
585.772	1	0
585.942	1	4
586.112	1	5
586.282	1	10
586.451	1	2
586.621	1	9
586.791	1	4
586.961	1	13
587.131	1	-2
587.300	1	-4
587.470	1	-2
587.640	1	1
587.810	1	14
587.980	1	5
588.149	1	0
588.319	1	-1
588.489	1	2
588.659	1	3
588.829	1	-2
588.998	1	21
589.168	1	1
589.338	1	6
589.508	1	4
589.677	1	4
589.847	1	1
590.017	1	7
590.187	1	17
590.357	1	7
590.526	1	6
590.696	1	2
590.866	1	15
591.036	1	-4
591.205	1	1
591.375	1	-7
591.545	1	3
591.715	1	12
591.885	1	4
592.054	1	16
592.224	1	9
592.394	1	10
592.564	1	2
592.733	1	2
592.903	1	-1
593.073	1	9
593.243	1	0
593.412	1	-6
593.582	1	-2
593.752	1	6
593.922	1	1
594.091	1	10
594.261	1	15
594.431	1	-7
594.601	1	2
594.771	1	-3
594.940	1	-5
595.110	1	2
595.280	1	4
595.450	1	6
595.619	1	3
595.789	1	-4
595.959	1	2
596.129	1	2
596.298	1	3
596.468	1	-3
596.638	1	-8
596.808	1	3
596.977	1	5
597.147	1	1
597.317	1	2
597.487	1	10
597.656	1	10
597.826	1	10
597.996	1	4
598.166	1	10
598.335	1	-12
598.505	1	10
598.675	1	13
598.844	1	11
599.014	1	11
599.184	1	7
599.354	1	9
599.523	1	7
599.693	1	4
599.863	1	6
600.033	1	-2
600.202	1	2
600.372	1	1
600.542	1	6
600.712	1	9
600.881	1	7
601.051	1	2
601.221	1	8
601.390	1	10
601.560	1	12
601.730	1	-1
601.900	1	9
602.069	1	-4
602.239	1	2
602.409	1	1
602.578	1	3
602.748	1	8
602.918	1	-1
603.088	1	-3
603.257	1	-2
603.427	1	12
603.597	1	17
603.767	1	5
603.936	1	7
604.106	1	6
604.276	1	4
604.445	1	5
604.615	1	-1
604.785	1	7
604.954	1	1
605.124	1	5
605.294	1	8
605.464	1	4
605.633	1	1
605.803	1	4
605.973	1	-2
606.142	1	-5
606.312	1	9
606.482	1	-3
606.652	1	4
606.821	1	5
606.991	1	17
607.161	1	4
607.330	1	3
607.500	1	16
607.670	1	6
607.839	1	5
608.009	1	5
608.179	1	8
608.348	1	-1
608.518	1	-11
608.688	1	0
608.858	1	2
609.027	1	3
609.197	1	4
609.367	1	1
609.536	1	-7
609.706	1	9
609.876	1	3
610.045	1	6
610.215	1	-3
610.385	1	5
610.554	1	1
610.724	1	2
610.894	1	21
611.063	1	0
611.233	1	-7
611.403	1	8
611.572	1	6
611.742	1	-3
611.912	1	1
612.081	1	-11
612.251	1	8
612.421	1	-7
612.590	1	-4
612.760	1	2
612.930	1	8
613.099	1	7
613.269	1	6
613.439	1	3
613.608	1	1
613.778	1	13
613.948	1	5
614.117	1	-5
614.287	1	6
614.457	1	-3
614.626	1	2
614.796	1	9
614.966	1	-6
615.135	1	6
615.305	1	0
615.475	1	7
615.644	1	4
615.814	1	-3
615.984	1	16
616.153	1	6
616.323	1	14
616.493	1	-4
616.662	1	6
616.832	1	16
617.002	1	9
617.171	1	12
617.341	1	4
617.511	1	20
617.680	1	-1
617.850	1	7
618.019	1	-6
618.189	1	-1
618.359	1	8
618.528	1	7
618.698	1	10
618.868	1	14
619.037	1	5
619.207	1	2
619.377	1	0
619.546	1	21
619.716	1	3
619.885	1	4
620.055	1	6
620.225	1	6
620.394	1	6
620.564	1	12
620.734	1	11
620.903	1	9
621.073	1	-1
621.242	1	2
621.412	1	22
621.582	1	-7
621.751	1	-7
621.921	1	6
622.091	1	7
622.260	1	3
622.430	1	6
622.599	1	12
622.769	1	7
622.939	1	6
623.108	1	-3
623.278	1	7
623.448	1	-5
623.617	1	-4
623.787	1	-6
623.956	1	6
624.126	1	6
624.296	1	11
624.465	1	17
624.635	1	18
624.804	1	9
624.974	1	8
625.144	1	2
625.313	1	15
625.483	1	7
625.652	1	2
625.822	1	0
625.992	1	10
626.161	1	12
626.331	1	7
626.501	1	3
626.670	1	11
626.840	1	5
627.009	1	7
627.179	1	-4
627.348	1	7
627.518	1	2
627.688	1	10
627.857	1	14
628.027	1	8
628.196	1	15
628.366	1	7
628.536	1	-8
628.705	1	0
628.875	1	10
629.044	1	2
629.214	1	5
629.384	1	-1
629.553	1	4
629.723	1	1
629.892	1	6
630.062	1	5
630.232	1	0
630.401	1	6
630.571	1	11
630.740	1	9
630.910	1	-3
631.079	1	8
631.249	1	-3
631.419	1	14
631.588	1	8
631.758	1	11
631.927	1	2
632.097	1	2
632.266	1	-1
632.436	1	6
632.606	1	-1
632.775	1	3
632.945	1	-2
633.114	1	-5
633.284	1	6
633.453	1	-2
633.623	1	2
633.793	1	3
633.962	1	9
634.132	1	11
634.301	1	4
634.471	1	19
634.640	1	-1
634.810	1	1
634.979	1	-5
635.149	1	3
635.319	1	4
635.488	1	2
635.658	1	21
635.827	1	2
635.997	1	16
636.166	1	2
636.336	1	9
636.505	1	-5
636.675	1	-2
636.845	1	-6
637.014	1	20
637.184	1	5
637.353	1	5
637.523	1	11
637.692	1	10
637.862	1	12
638.031	1	9
638.201	1	8
638.370	1	0
638.540	1	2
638.710	1	0
638.879	1	7
639.049	1	1
639.218	1	7
639.388	1	8
639.557	1	3
639.727	1	10
639.896	1	-1
640.066	1	3
640.235	1	16
640.405	1	2
640.574	1	11
640.744	1	13
640.914	1	-5
641.083	1	10
641.253	1	8
641.422	1	6
641.592	1	8
641.761	1	4
641.931	1	8
642.100	1	-3
642.270	1	1
642.439	1	0
642.609	1	10
642.778	1	11
642.948	1	4
643.117	1	15
643.287	1	-1
643.456	1	6
643.626	1	19
643.795	1	0
643.965	1	5
644.134	1	2
644.304	1	0
644.473	1	7
644.643	1	-3
644.812	1	3
644.982	1	1
645.151	1	6
645.321	1	-8
645.490	1	4
645.660	1	-1
645.829	1	4
645.999	1	7
646.168	1	12
646.338	1	15
646.507	1	6
646.677	1	5
646.846	1	10
647.016	1	5
647.185	1	3
647.355	1	7
647.524	1	-10
647.694	1	2
647.863	1	1
648.033	1	4
648.202	1	13
648.372	1	15
648.541	1	4
648.711	1	7
648.880	1	19
649.050	1	1
649.219	1	3
649.389	1	9
649.558	1	17
649.728	1	10
649.897	1	2
650.067	1	13
650.236	1	11
650.406	1	11
650.575	1	-7
650.745	1	18
650.914	1	0
651.084	1	4
651.253	1	13
651.423	1	4
651.592	1	2
651.762	1	4
651.931	1	9
652.101	1	14
652.270	1	-11
652.440	1	0
652.609	1	7
652.778	1	12
652.948	1	3
653.117	1	6
653.287	1	4
653.456	1	-4
653.626	1	9
653.795	1	-4
653.965	1	6
654.134	1	10
654.304	1	1
654.473	1	6
654.643	1	-5
654.812	1	10
654.982	1	7
655.151	1	0
655.320	1	5
655.490	1	4
655.659	1	14
655.829	1	1
655.998	1	9
656.168	1	12
656.337	1	5
656.507	1	1
656.676	1	0
656.846	1	0
657.015	1	9
657.184	1	2
657.354	1	3
657.523	1	6
657.693	1	8
657.862	1	4
658.032	1	15
658.201	1	-2
658.371	1	6
658.540	1	3
658.709	1	14
658.879	1	11
659.048	1	10
659.218	1	6
659.387	1	1
659.557	1	6
659.726	1	9
659.895	1	6
660.065	1	-10
660.234	1	-3
660.404	1	-7
660.573	1	4
660.743	1	4
660.912	1	3
661.081	1	12
661.251	1	6
661.420	1	9
661.590	1	5
661.759	1	-7
661.929	1	4
662.098	1	9
662.267	1	0
662.437	1	6
662.606	1	5
662.776	1	10
662.945	1	1
663.115	1	-1
663.284	1	1
663.453	1	1
663.623	1	3
663.792	1	4
663.962	1	10
664.131	1	11
664.300	1	10
664.470	1	11
664.639	1	13
664.809	1	-6
664.978	1	-2
665.148	1	0
665.317	1	-3
665.486	1	9
665.656	1	2
665.825	1	6
665.995	1	-9
666.164	1	4
666.333	1	13
666.503	1	15
666.672	1	3
666.842	1	-7
667.011	1	5
667.180	1	-4
667.350	1	12
667.519	1	2
667.689	1	15
667.858	1	6
668.027	1	-2
668.197	1	18
668.366	1	14
668.536	1	2
668.705	1	11
668.874	1	-11
669.044	1	5
669.213	1	6
669.382	1	2
669.552	1	11
669.721	1	13
669.891	1	-6
670.060	1	13
670.229	1	1
670.399	1	6
670.568	1	7
670.738	1	5
670.907	1	1
671.076	1	14
671.246	1	8
671.415	1	-8
671.584	1	3
671.754	1	6
671.923	1	6
672.093	1	2
672.262	1	7
672.431	1	8
672.601	1	-1
672.770	1	-3
672.939	1	3
673.109	1	7
673.278	1	-8
673.448	1	-2
673.617	1	-3
673.786	1	10
