325.333	1	18
325.504	1	-4
325.675	1	-1
325.846	1	-3
326.017	1	7
326.188	1	-2
326.359	1	-9
326.531	1	6
326.702	1	0
326.873	1	6
327.044	1	-2
327.215	1	10
327.386	1	-1
327.557	1	-1
327.728	1	6
327.899	1	0
328.070	1	15
328.241	1	7
328.412	1	-5
328.583	1	-7
328.754	1	6
328.926	1	6
329.097	1	-1
329.268	1	-6
329.439	1	-5
329.610	1	3
329.781	1	-3
329.952	1	1
330.123	1	-1
330.294	1	4
330.465	1	7
330.636	1	4
330.807	1	2
330.978	1	10
331.149	1	4
331.320	1	-6
331.492	1	15
331.663	1	3
331.834	1	8
332.005	1	-2
332.176	1	12
332.347	1	-2
332.518	1	22
332.689	1	-2
332.860	1	0
333.031	1	-2
333.202	1	-7
333.373	1	7
333.544	1	2
333.715	1	2
333.886	1	6
334.057	1	5
334.228	1	7
334.399	1	-3
334.570	1	6
334.741	1	-2
334.912	1	4
335.084	1	2
335.255	1	13
335.426	1	-2
335.597	1	3
335.768	1	0
335.939	1	2
336.110	1	2
336.281	1	1
336.452	1	5
336.623	1	11
336.794	1	-1
336.965	1	4
337.136	1	-6
337.307	1	-5
337.478	1	-9
337.649	1	-2
337.820	1	10
337.991	1	9
338.162	1	-8
338.333	1	2
338.504	1	16
338.675	1	4
338.846	1	5
339.017	1	-2
339.188	1	-6
339.359	1	12
339.530	1	-2
339.701	1	3
339.872	1	10
340.043	1	18
340.214	1	2
340.385	1	3
340.556	1	6
340.727	1	11
340.898	1	-7
341.069	1	6
341.240	1	1
341.411	1	4
341.582	1	13
341.753	1	8
341.924	1	8
342.095	1	7
342.266	1	-10
342.437	1	9
342.608	1	5
342.779	1	5
342.950	1	-3
343.121	1	2
343.292	1	12
343.463	1	-2
343.634	1	5
343.805	1	1
343.976	1	-4
344.147	1	-5
344.318	1	11
344.489	1	2
344.660	1	7
344.831	1	2
345.002	1	8
345.173	1	2
345.344	1	-2
345.515	1	-7
345.686	1	-4
345.857	1	10
346.028	1	12
346.199	1	0
346.370	1	0
346.541	1	5
346.712	1	4
346.883	1	-1
347.054	1	-2
347.225	1	5
347.396	1	1
347.567	1	-4
347.738	1	-5
347.909	1	3
348.080	1	6
348.251	1	1
348.422	1	2
348.593	1	0
348.764	1	-6
348.935	1	-4
349.106	1	-5
349.277	1	3
349.448	1	3
349.619	1	-9
349.790	1	3
349.961	1	12
350.132	1	8
350.303	1	2
350.474	1	3
350.645	1	-1
350.816	1	3
350.987	1	2
351.157	1	-4
351.328	1	0
351.499	1	2
351.670	1	13
351.841	1	8
352.012	1	4
352.183	1	2
352.354	1	6
352.525	1	4
352.696	1	-1
352.867	1	4
353.038	1	2
353.209	1	10
353.380	1	11
353.551	1	-1
353.722	1	5
353.893	1	11
354.064	1	13
354.235	1	12
354.406	1	0
354.576	1	-5
354.747	1	12
354.918	1	12
355.089	1	4
355.260	1	8
355.431	1	-1
355.602	1	1
355.773	1	-1
355.944	1	14
356.115	1	10
356.286	1	9
356.457	1	7
356.628	1	5
356.799	1	5
356.970	1	5
357.141	1	3
357.311	1	-3
357.482	1	-5
357.653	1	-14
357.824	1	4
357.995	1	-4
358.166	1	4
358.337	1	2
358.508	1	-5
358.679	1	0
358.850	1	7
359.021	1	-2
359.192	1	4
359.363	1	-6
359.533	1	6
359.704	1	-4
359.875	1	-4
360.046	1	5
360.217	1	13
360.388	1	2
360.559	1	20
360.730	1	0
360.901	1	4
361.072	1	2
361.243	1	10
361.414	1	-8
361.584	1	-1
361.755	1	1
361.926	1	-3
362.097	1	3
362.268	1	3
362.439	1	2
362.610	1	-3
362.781	1	-4
362.952	1	5
363.123	1	1
363.293	1	12
363.464	1	10
363.635	1	9
363.806	1	2
363.977	1	6
364.148	1	-10
364.319	1	8
364.490	1	14
364.661	1	5
364.832	1	1
365.002	1	4
365.173	1	4
365.344	1	2
365.515	1	1
365.686	1	5
365.857	1	4
366.028	1	-5
366.199	1	12
366.370	1	-4
366.540	1	6
366.711	1	6
366.882	1	5
367.053	1	-8
367.224	1	2
367.395	1	7
367.566	1	1
367.737	1	0
367.908	1	14
368.078	1	1
368.249	1	5
368.420	1	3
368.591	1	-13
368.762	1	7
368.933	1	11
369.104	1	7
369.274	1	5
369.445	1	15
369.616	1	-4
369.787	1	3
369.958	1	-3
370.129	1	5
370.300	1	6
370.471	1	1
370.641	1	2
370.812	1	8
370.983	1	-3
371.154	1	10
371.325	1	-7
371.496	1	-2
371.667	1	3
371.837	1	9
372.008	1	12
372.179	1	0
372.350	1	8
372.521	1	9
372.692	1	1
372.863	1	13
373.033	1	-3
373.204	1	7
373.375	1	-5
373.546	1	-1
373.717	1	-2
373.888	1	5
374.059	1	6
374.229	1	1
374.400	1	-2
374.571	1	-7
374.742	1	5
374.913	1	-1
375.084	1	8
375.254	1	-3
375.425	1	-3
375.596	1	-1
375.767	1	12
375.938	1	1
376.109	1	10
376.279	1	-3
376.450	1	16
376.621	1	5
376.792	1	11
376.963	1	-2
377.134	1	11
377.304	1	-2
377.475	1	1
377.646	1	-5
377.817	1	3
377.988	1	7
378.159	1	-12
378.329	1	6
378.500	1	2
378.671	1	6
378.842	1	10
379.013	1	-2
379.184	1	2
379.354	1	-1
379.525	1	0
379.696	1	8
379.867	1	13
380.038	1	12
380.209	1	6
380.379	1	7
380.550	1	-3
380.721	1	18
380.892	1	-7
381.063	1	-2
381.233	1	5
381.404	1	1
381.575	1	8
381.746	1	-5
381.917	1	0
382.087	1	5
382.258	1	7
382.429	1	-6
382.600	1	2
382.771	1	-1
382.941	1	-1
383.112	1	-1
383.283	1	2
383.454	1	8
383.625	1	4
383.795	1	8
383.966	1	6
384.137	1	10
384.308	1	0
384.479	1	0
384.649	1	6
384.820	1	9
384.991	1	3
385.162	1	6
385.333	1	2
385.503	1	-1
385.674	1	6
385.845	1	8
386.016	1	1
386.187	1	7
386.357	1	13
386.528	1	-2
386.699	1	12
386.870	1	-3
387.041	1	10
387.211	1	5
387.382	1	-1
387.553	1	10
387.724	1	0
387.894	1	13
388.065	1	-5
388.236	1	6
388.407	1	0
388.578	1	4
388.748	1	-2
388.919	1	4
389.090	1	-2
389.261	1	14
389.431	1	5
389.602	1	4
389.773	1	6
389.944	1	2
390.114	1	13
390.285	1	4
390.456	1	5
390.627	1	11
390.798	1	3
390.968	1	-6
391.139	1	10
391.310	1	11
391.481	1	7
391.651	1	4
391.822	1	13
391.993	1	8
392.164	1	-3
392.334	1	10
392.505	1	-3
392.676	1	4
392.847	1	4
393.017	1	7
393.188	1	10
393.359	1	5
393.530	1	8
393.700	1	3
393.871	1	6
394.042	1	5
394.213	1	4
394.383	1	8
394.554	1	1
394.725	1	2
394.896	1	3
395.066	1	12
395.237	1	6
395.408	1	6
395.579	1	0
395.749	1	0
395.920	1	4
396.091	1	3
396.262	1	7
396.432	1	5
396.603	1	7
396.774	1	-4
396.945	1	-2
397.115	1	6
397.286	1	-1
397.457	1	6
397.627	1	9
397.798	1	-1
397.969	1	2
398.140	1	-1
398.310	1	4
398.481	1	14
398.652	1	12
398.823	1	5
398.993	1	2
399.164	1	3
399.335	1	13
399.505	1	7
399.676	1	10
399.847	1	1
400.018	1	11
400.188	1	6
400.359	1	9
400.530	1	3
400.700	1	12
400.871	1	9
401.042	1	13
401.213	1	3
401.383	1	0
401.554	1	8
401.725	1	8
401.895	1	6
402.066	1	0
402.237	1	16
402.408	1	-2
402.578	1	0
402.749	1	9
402.920	1	8
403.090	1	11
403.261	1	15
403.432	1	8
403.603	1	4
403.773	1	3
403.944	1	9
404.115	1	3
404.285	1	8
404.456	1	-5
404.627	1	2
404.797	1	8
404.968	1	10
405.139	1	12
405.310	1	4
405.480	1	3
405.651	1	1
405.822	1	10
405.992	1	10
406.163	1	8
406.334	1	7
406.504	1	1
406.675	1	5
406.846	1	10
407.016	1	8
407.187	1	8
407.358	1	13
407.528	1	-5
407.699	1	1
407.870	1	4
408.041	1	14
408.211	1	-1
408.382	1	9
408.553	1	1
408.723	1	6
408.894	1	5
409.065	1	-5
409.235	1	7
409.406	1	9
409.577	1	18
409.747	1	10
409.918	1	8
410.089	1	9
410.259	1	15
410.430	1	-1
410.601	1	8
410.771	1	14
410.942	1	13
411.113	1	23
411.283	1	1
411.454	1	8
411.625	1	-8
411.795	1	2
411.966	1	13
412.137	1	9
412.307	1	1
412.478	1	9
412.649	1	3
412.819	1	12
412.990	1	-4
413.161	1	12
413.331	1	11
413.502	1	15
413.672	1	4
413.843	1	-3
414.014	1	16
414.184	1	8
414.355	1	14
414.526	1	3
414.696	1	14
414.867	1	-3
415.038	1	5
415.208	1	5
415.379	1	10
415.550	1	0
415.720	1	6
415.891	1	7
416.062	1	16
416.232	1	-7
416.403	1	7
416.573	1	8
416.744	1	6
416.915	1	-2
417.085	1	10
417.256	1	7
417.427	1	2
417.597	1	13
417.768	1	3
417.939	1	-1
418.109	1	1
418.280	1	8
418.450	1	10
418.621	1	0
418.792	1	3
418.962	1	17
419.133	1	4
419.304	1	3
419.474	1	9
419.645	1	8
419.815	1	3
419.986	1	8
420.157	1	6
420.327	1	4
420.498	1	3
420.669	1	10
420.839	1	10
421.010	1	5
421.180	1	4
421.351	1	23
421.522	1	6
421.692	1	4
421.863	1	4
422.033	1	10
422.204	1	4
422.375	1	-3
422.545	1	6
422.716	1	12
422.886	1	11
423.057	1	8
423.228	1	10
423.398	1	13
423.569	1	6
423.740	1	4
423.910	1	18
424.081	1	11
424.251	1	5
424.422	1	5
424.593	1	13
424.763	1	-3
424.934	1	6
425.104	1	3
425.275	1	8
425.445	1	5
425.616	1	7
425.787	1	11
425.957	1	4
426.128	1	8
426.298	1	6
426.469	1	15
426.640	1	-2
426.810	1	12
426.981	1	2
427.151	1	16
427.322	1	1
427.493	1	-4
427.663	1	2
427.834	1	9
428.004	1	5
428.175	1	-7
428.345	1	1
428.516	1	13
428.687	1	14
428.857	1	7
429.028	1	-3
429.198	1	-5
429.369	1	2
429.540	1	-1
429.710	1	15
429.881	1	12
430.051	1	0
430.222	1	18
430.392	1	1
430.563	1	14
430.734	1	4
430.904	1	8
431.075	1	-1
431.245	1	0
431.416	1	8
431.586	1	2
431.757	1	18
431.927	1	13
432.098	1	6
432.269	1	9
432.439	1	1
432.610	1	10
432.780	1	-10
432.951	1	11
433.121	1	10
433.292	1	10
433.462	1	9
433.633	1	16
433.804	1	-2
433.974	1	12
434.145	1	9
434.315	1	6
434.486	1	12
434.656	1	7
434.827	1	6
434.997	1	1
435.168	1	9
435.339	1	2
435.509	1	7
435.680	1	9
435.850	1	5
436.021	1	3
436.191	1	9
436.362	1	9
436.532	1	22
436.703	1	4
436.873	1	2
437.044	1	17
437.214	1	9
437.385	1	19
437.556	1	-7
437.726	1	17
437.897	1	-3
438.067	1	8
438.238	1	11
438.408	1	5
438.579	1	8
438.749	1	-2
438.920	1	-6
439.090	1	6
439.261	1	7
439.431	1	12
439.602	1	11
439.772	1	8
439.943	1	1
440.113	1	4
440.284	1	15
440.455	1	6
440.625	1	7
440.796	1	10
440.966	1	11
441.137	1	-6
441.307	1	13
441.478	1	12
441.648	1	14
441.819	1	7
441.989	1	19
442.160	1	7
442.330	1	3
442.501	1	2
442.671	1	9
442.842	1	12
443.012	1	10
443.183	1	6
443.353	1	1
443.524	1	8
443.694	1	10
443.865	1	15
444.035	1	2
444.206	1	7
444.376	1	12
444.547	1	4
444.717	1	4
444.888	1	9
445.058	1	-5
445.229	1	8
445.399	1	9
445.570	1	13
445.740	1	8
445.911	1	3
446.081	1	10
446.252	1	7
446.422	1	-4
446.593	1	5
446.763	1	26
446.934	1	12
447.104	1	-7
447.275	1	12
447.445	1	9
447.616	1	8
447.786	1	10
447.957	1	5
448.127	1	9
448.298	1	4
448.468	1	10
448.639	1	0
448.809	1	1
448.979	1	3
449.150	1	10
449.320	1	14
449.491	1	2
449.661	1	9
449.832	1	8
450.002	1	4
450.173	1	7
450.343	1	3
450.514	1	4
450.684	1	-1
450.855	1	-8
451.025	1	5
451.196	1	7
451.366	1	16
451.537	1	-7
451.707	1	14
451.878	1	8
452.048	1	-1
452.218	1	-2
452.389	1	1
452.559	1	2
452.730	1	10
452.900	1	3
453.071	1	-2
453.241	1	5
453.412	1	8
453.582	1	9
453.753	1	4
453.923	1	3
454.093	1	13
454.264	1	5
454.434	1	4
454.605	1	5
454.775	1	-3
454.946	1	8
455.116	1	3
455.287	1	6
455.457	1	8
455.628	1	12
455.798	1	0
455.968	1	1
456.139	1	-2
456.309	1	12
456.480	1	0
456.650	1	3
456.821	1	-4
456.991	1	11
457.161	1	3
457.332	1	-2
457.502	1	5
457.673	1	6
457.843	1	4
458.014	1	3
458.184	1	22
458.355	1	15
458.525	1	2
458.695	1	5
458.866	1	6
459.036	1	1
459.207	1	-9
459.377	1	9
459.548	1	-3
459.718	1	0
459.888	1	12
460.059	1	6
460.229	1	6
460.400	1	-2
460.570	1	4
460.740	1	-12
460.911	1	1
461.081	1	0
461.252	1	6
461.422	1	15
461.593	1	8
461.763	1	2
461.933	1	6
462.104	1	3
462.274	1	1
462.445	1	1
462.615	1	4
462.785	1	6
462.956	1	5
463.126	1	6
463.297	1	-3
463.467	1	-2
463.638	1	19
463.808	1	0
463.978	1	6
464.149	1	7
464.319	1	-8
464.490	1	8
464.660	1	13
464.830	1	8
465.001	1	15
465.171	1	2
465.342	1	16
465.512	1	2
465.682	1	8
465.853	1	3
466.023	1	6
466.194	1	4
466.364	1	-9
466.534	1	11
466.705	1	12
466.875	1	9
467.045	1	2
467.216	1	12
467.386	1	12
467.557	1	3
467.727	1	1
467.897	1	1
468.068	1	13
468.238	1	3
468.409	1	6
468.579	1	8
468.749	1	13
468.920	1	7
469.090	1	3
469.260	1	-2
469.431	1	-8
469.601	1	4
469.772	1	10
469.942	1	10
470.112	1	7
470.283	1	6
470.453	1	-1
470.623	1	-3
470.794	1	4
470.964	1	4
471.135	1	11
471.305	1	5
471.475	1	6
471.646	1	17
471.816	1	8
471.986	1	13
472.157	1	0
472.327	1	8
472.497	1	4
472.668	1	2
472.838	1	-3
473.009	1	1
473.179	1	9
473.349	1	5
473.520	1	-1
473.690	1	8
473.860	1	1
474.031	1	7
474.201	1	-5
474.371	1	9
474.542	1	-2
474.712	1	11
474.882	1	10
475.053	1	5
475.223	1	-1
475.394	1	7
475.564	1	-2
475.734	1	6
475.905	1	-5
476.075	1	0
476.245	1	-3
476.416	1	13
476.586	1	2
476.756	1	3
476.927	1	7
477.097	1	7
477.267	1	9
477.438	1	-2
477.608	1	-5
477.778	1	15
477.949	1	6
478.119	1	-6
478.289	1	10
478.460	1	11
478.630	1	6
478.800	1	2
478.971	1	1
479.141	1	9
479.311	1	-7
479.482	1	-8
479.652	1	9
479.822	1	5
479.993	1	7
480.163	1	11
480.333	1	-3
480.504	1	2
480.674	1	10
480.844	1	3
481.015	1	-1
481.185	1	1
481.355	1	13
481.525	1	-3
481.696	1	0
481.866	1	7
482.036	1	5
482.207	1	-3
482.377	1	-5
482.547	1	-2
482.718	1	1
482.888	1	7
483.058	1	-4
483.229	1	2
483.399	1	-2
483.569	1	6
483.740	1	4
483.910	1	9
484.080	1	7
484.250	1	9
484.421	1	6
484.591	1	4
484.761	1	6
484.932	1	1
485.102	1	6
485.272	1	5
485.443	1	4
485.613	1	4
485.783	1	-3
485.953	1	0
486.124	1	8
486.294	1	9
486.464	1	1
486.635	1	5
486.805	1	13
486.975	1	-4
487.146	1	-6
487.316	1	3
487.486	1	1
487.656	1	5
487.827	1	-4
487.997	1	13
488.167	1	1
488.338	1	9
488.508	1	3
488.678	1	7
488.848	1	-5
489.019	1	-1
489.189	1	-6
489.359	1	8
489.529	1	-1
489.700	1	3
489.870	1	9
490.040	1	12
490.211	1	1
490.381	1	3
490.551	1	4
490.721	1	4
490.892	1	5
491.062	1	-3
491.232	1	5
491.402	1	15
491.573	1	-4
491.743	1	7
491.913	1	7
492.084	1	4
492.254	1	0
492.424	1	5
492.594	1	11
492.765	1	2
492.935	1	-6
493.105	1	24
493.275	1	18
493.446	1	12
493.616	1	6
493.786	1	10
493.956	1	4
494.127	1	-1
494.297	1	8
494.467	1	-3
494.637	1	-7
494.808	1	4
494.978	1	7
495.148	1	14
495.318	1	-1
495.489	1	5
495.659	1	6
495.829	1	-6
495.999	1	-7
496.170	1	1
496.340	1	4
496.510	1	13
496.680	1	6
496.851	1	5
497.021	1	10
497.191	1	2
497.361	1	4
497.532	1	14
497.702	1	-8
497.872	1	4
498.042	1	-2
498.213	1	2
498.383	1	3
498.553	1	7
498.723	1	1
498.894	1	1
499.064	1	7
499.234	1	17
499.404	1	-6
499.574	1	-5
499.745	1	2
499.915	1	0
500.085	1	8
500.255	1	3
500.426	1	4
500.596	1	12
500.766	1	12
500.936	1	3
501.106	1	-1
501.277	1	-1
501.447	1	8
501.617	1	6
501.787	1	0
501.958	1	18
502.128	1	6
502.298	1	0
502.468	1	3
502.638	1	10
502.809	1	11
502.979	1	3
503.149	1	7
503.319	1	-7
503.489	1	8
503.660	1	0
503.830	1	12
504.000	1	7
504.170	1	6
504.340	1	-3
504.511	1	5
504.681	1	4
504.851	1	5
505.021	1	-2
505.192	1	2
505.362	1	-1
505.532	1	3
505.702	1	5
505.872	1	4
506.043	1	14
506.213	1	6
506.383	1	1
506.553	1	13
506.723	1	-7
506.893	1	-6
507.064	1	7
507.234	1	-2
507.404	1	7
507.574	1	13
507.744	1	8
507.915	1	6
508.085	1	2
508.255	1	10
508.425	1	-11
508.595	1	-4
508.766	1	-6
508.936	1	-2
509.106	1	10
509.276	1	-4
509.446	1	2
509.616	1	1
509.787	1	5
509.957	1	4
510.127	1	-2
510.297	1	-11
510.467	1	4
510.638	1	2
510.808	1	4
510.978	1	13
511.148	1	6
511.318	1	-1
511.488	1	4
511.659	1	8
511.829	1	4
511.999	1	15
512.169	1	10
512.339	1	6
512.509	1	3
512.680	1	4
512.850	1	1
513.020	1	3
513.190	1	0
513.360	1	8
513.530	1	8
513.700	1	10
513.871	1	2
514.041	1	5
514.211	1	5
514.381	1	0
514.551	1	7
514.721	1	7
514.892	1	0
515.062	1	1
515.232	1	-16
515.402	1	-3
515.572	1	14
515.742	1	4
515.912	1	7
516.083	1	4
516.253	1	3
516.423	1	-2
516.593	1	0
516.763	1	0
516.933	1	-5
517.104	1	2
517.274	1	1
517.444	1	5
517.614	1	0
517.784	1	0
517.954	1	4
518.124	1	-5
518.294	1	7
518.465	1	-1
518.635	1	-4
518.805	1	2
518.975	1	1
519.145	1	6
519.315	1	11
519.485	1	-1
519.656	1	19
519.826	1	2
519.996	1	0
520.166	1	-9
520.336	1	4
520.506	1	0
520.676	1	-1
520.846	1	4
521.017	1	0
521.187	1	1
521.357	1	0
521.527	1	7
521.697	1	2
521.867	1	3
522.037	1	5
522.207	1	4
522.377	1	2
522.548	1	-6
522.718	1	-4
522.888	1	9
523.058	1	2
523.228	1	4
523.398	1	1
523.568	1	7
523.738	1	8
523.909	1	1
524.079	1	-1
524.249	1	3
524.419	1	2
524.589	1	5
524.759	1	7
524.929	1	5
525.099	1	-5
525.269	1	7
525.439	1	7
525.610	1	7
525.780	1	13
525.950	1	5
526.120	1	2
526.290	1	-8
526.460	1	6
526.630	1	6
526.800	1	0
526.970	1	4
527.140	1	5
527.311	1	2
527.481	1	-4
527.651	1	6
527.821	1	7
527.991	1	0
528.161	1	0
528.331	1	3
528.501	1	-1
528.671	1	-5
528.841	1	6
529.011	1	16
529.181	1	2
529.352	1	10
529.522	1	2
529.692	1	-2
529.862	1	-3
530.032	1	-1
530.202	1	-5
530.372	1	2
530.542	1	3
530.712	1	3
530.882	1	1
531.052	1	5
531.222	1	-3
531.392	1	-5
531.563	1	4
531.733	1	-7
531.903	1	0
532.073	1	9
532.243	1	10
532.413	1	9
532.583	1	5
532.753	1	1
532.923	1	6
533.093	1	8
533.263	1	10
533.433	1	1
533.603	1	4
533.773	1	-6
533.943	1	-1
534.113	1	2
534.284	1	1
534.454	1	-3
534.624	1	1
534.794	1	-4
534.964	1	8
535.134	1	13
535.304	1	4
535.474	1	6
535.644	1	9
535.814	1	-15
535.984	1	-7
536.154	1	13
536.324	1	-5
536.494	1	8
536.664	1	-13
536.834	1	-8
537.004	1	-1
537.174	1	12
537.344	1	5
537.514	1	-6
537.685	1	8
537.855	1	6
538.025	1	4
538.195	1	0
538.365	1	8
538.535	1	-1
538.705	1	-5
538.875	1	7
539.045	1	9
539.215	1	1
539.385	1	-16
539.555	1	0
539.725	1	9
539.895	1	-8
540.065	1	1
540.235	1	6
540.405	1	4
540.575	1	1
540.745	1	8
540.915	1	-5
541.085	1	9
541.255	1	-9
541.425	1	-7
541.595	1	19
541.765	1	0
541.935	1	16
542.105	1	3
542.275	1	3
542.445	1	0
542.615	1	1
542.785	1	-4
542.955	1	3
543.125	1	-5
543.295	1	-6
543.465	1	0
543.635	1	3
543.805	1	2
543.975	1	8
544.145	1	-5
544.315	1	7
544.485	1	7
544.655	1	5
544.825	1	2
544.995	1	-5
545.165	1	4
545.335	1	7
545.505	1	11
545.675	1	-5
545.845	1	-10
546.015	1	-5
546.185	1	0
546.355	1	4
546.525	1	-8
546.695	1	-3
546.865	1	0
547.035	1	6
547.205	1	6
547.375	1	-2
547.545	1	1
547.715	1	-5
547.885	1	-1
548.055	1	6
548.225	1	2
548.395	1	0
548.565	1	-1
548.735	1	-3
548.905	1	-7
549.075	1	3
549.245	1	13
549.415	1	-2
549.585	1	-9
549.755	1	13
549.925	1	8
550.095	1	11
550.265	1	-2
550.435	1	7
550.605	1	-1
550.775	1	12
550.945	1	3
551.115	1	13
551.285	1	-5
551.455	1	0
551.625	1	9
551.795	1	10
551.965	1	8
552.135	1	10
552.305	1	-4
552.475	1	9
552.645	1	6
552.815	1	11
552.985	1	18
553.155	1	1
553.325	1	-2
553.495	1	2
553.665	1	-7
553.835	1	-3
554.004	1	8
554.174	1	3
554.344	1	-7
554.514	1	-6
554.684	1	0
554.854	1	9
555.024	1	5
555.194	1	-4
555.364	1	15
555.534	1	15
555.704	1	3
555.874	1	1
556.044	1	5
556.214	1	-8
556.384	1	-6
556.554	1	3
556.724	1	5
556.894	1	9
557.064	1	11
557.234	1	1
557.404	1	7
557.573	1	-5
557.743	1	-8
557.913	1	-6
558.083	1	2
558.253	1	7
558.423	1	4
558.593	1	16
558.763	1	10
558.933	1	12
559.103	1	2
559.273	1	4
559.443	1	-5
559.613	1	5
559.783	1	3
559.953	1	2
560.122	1	10
560.292	1	2
560.462	1	2
560.632	1	3
560.802	1	7
560.972	1	-3
561.142	1	-7
561.312	1	5
561.482	1	8
561.652	1	0
561.822	1	15
561.992	1	-6
562.162	1	-3
562.331	1	-2
562.501	1	-2
562.671	1	1
562.841	1	-8
563.011	1	-9
563.181	1	9
563.351	1	0
563.521	1	4
563.691	1	-4
563.861	1	7
564.031	1	13
564.201	1	12
564.370	1	2
564.540	1	16
564.710	1	-12
564.880	1	6
565.050	1	7
565.220	1	-4
565.390	1	-2
565.560	1	5
565.730	1	-10
565.900	1	-3
566.069	1	-9
566.239	1	1
566.409	1	1
566.579	1	11
566.749	1	0
566.919	1	3
567.089	1	4
567.259	1	-6
567.429	1	-2
567.599	1	3
567.768	1	11
567.938	1	9
568.108	1	-1
568.278	1	-1
568.448	1	1
568.618	1	5
568.788	1	10
568.958	1	2
569.128	1	10
569.297	1	-5
569.467	1	13
569.637	1	-8
569.807	1	-7
569.977	1	-2
570.147	1	8
570.317	1	-6
570.487	1	4
570.656	1	-1
570.826	1	-10
570.996	1	-1
571.166	1	7
571.336	1	-2
571.506	1	6
571.676	1	-7
571.846	1	11
572.015	1	-6
572.185	1	1
572.355	1	3
572.525	1	-11
572.695	1	-5
572.865	1	-2
573.035	1	4
573.205	1	10
573.374	1	13
573.544	1	8
573.714	1	6
573.884	1	15
574.054	1	9
574.224	1	-2
574.394	1	2
574.563	1	4
574.733	1	0
574.903	1	-7
575.073	1	0
575.243	1	-2
575.413	1	1
575.583	1	7
575.752	1	6
575.922	1	1
576.092	1	6
576.262	1	4
576.432	1	1
576.602	1	-9
576.772	1	2
576.941	1	1
577.111	1	2
577.281	1	2
577.451	1	4
577.621	1	-2
577.791	1	4
577.960	1	1
578.130	1	-11
578.300	1	-2
578.470	1	7
578.640	1	8
578.810	1	-1
578.979	1	9
579.149	1	-4
579.319	1	4
579.489	1	12
579.659	1	4
579.829	1	3
579.998	1	-1
580.168	1	7
580.338	1	9
580.508	1	12
580.678	1	1
580.848	1	-2
581.017	1	5
581.187	1	6
581.357	1	-3
581.527	1	1
581.697	1	5
581.867	1	-7
582.036	1	9
582.206	1	5
582.376	1	-5
582.546	1	-4
582.716	1	11
582.885	1	-2
583.055	1	8
583.225	1	6
583.395	1	-1
583.565	1	5
583.735	1	9
583.904	1	12
584.074	1	-4
584.244	1	7
584.414	1	5
584.584	1	-1
584.753	1	-7
584.923	1	-4
585.093	1	-4
585.263	1	6
585.433	1	-10
585.602	1	7
585.772	1	2
585.942	1	1
586.112	1	6
586.282	1	2
586.451	1	4
586.621	1	2
586.791	1	5
586.961	1	6
587.131	1	1
587.300	1	-9
587.470	1	5
587.640	1	-2
587.810	1	5
587.980	1	-5
588.149	1	8
588.319	1	-9
588.489	1	0
588.659	1	-4
588.829	1	-4
588.998	1	11
589.168	1	7
589.338	1	10
589.508	1	5
589.677	1	15
589.847	1	-4
590.017	1	9
590.187	1	4
590.357	1	10
590.526	1	12
590.696	1	2
590.866	1	7
591.036	1	-5
591.205	1	-5
591.375	1	-8
591.545	1	1
591.715	1	4
591.885	1	3
592.054	1	16
592.224	1	-1
592.394	1	7
592.564	1	1
592.733	1	12
592.903	1	2
593.073	1	10
593.243	1	-4
593.412	1	-1
593.582	1	-3
593.752	1	4
593.922	1	2
594.091	1	3
594.261	1	0
594.431	1	-2
594.601	1	-11
594.771	1	1
594.940	1	-9
595.110	1	10
595.280	1	2
595.450	1	4
595.619	1	1
595.789	1	-2
595.959	1	-1
596.129	1	-3
596.298	1	-8
596.468	1	0
596.638	1	-5
596.808	1	1
596.977	1	7
597.147	1	5
597.317	1	3
597.487	1	7
597.656	1	4
597.826	1	5
597.996	1	8
598.166	1	8
598.335	1	-2
598.505	1	5
598.675	1	5
598.844	1	0
599.014	1	1
599.184	1	5
599.354	1	7
599.523	1	1
599.693	1	9
599.863	1	-9
600.033	1	6
600.202	1	0
600.372	1	4
600.542	1	4
600.712	1	6
600.881	1	-2
601.051	1	-9
601.221	1	-2
601.390	1	10
601.560	1	14
601.730	1	3
601.900	1	7
602.069	1	-4
602.239	1	-2
602.409	1	-3
602.578	1	7
602.748	1	-5
602.918	1	-7
603.088	1	-7
603.257	1	6
603.427	1	17
603.597	1	16
603.767	1	4
603.936	1	-2
604.106	1	3
604.276	1	4
604.445	1	-1
604.615	1	-13
604.785	1	-9
604.954	1	-1
605.124	1	6
605.294	1	7
605.464	1	-1
605.633	1	-5
605.803	1	2
605.973	1	-2
606.142	1	-3
606.312	1	-3
606.482	1	0
606.652	1	-5
606.821	1	6
606.991	1	9
607.161	1	5
607.330	1	5
607.500	1	6
607.670	1	1
607.839	1	2
608.009	1	11
608.179	1	2
608.348	1	-1
608.518	1	-16
608.688	1	6
608.858	1	4
609.027	1	-2
609.197	1	6
609.367	1	2
609.536	1	-2
609.706	1	-5
609.876	1	-2
610.045	1	12
610.215	1	-4
610.385	1	-2
610.554	1	-6
610.724	1	4
610.894	1	15
611.063	1	14
611.233	1	-7
611.403	1	11
611.572	1	1
611.742	1	-2
611.912	1	1
612.081	1	-8
612.251	1	4
612.421	1	-7
612.590	1	0
612.760	1	-3
612.930	1	-4
613.099	1	2
613.269	1	8
613.439	1	0
613.608	1	-1
613.778	1	3
613.948	1	-4
614.117	1	-1
614.287	1	0
614.457	1	2
614.626	1	-3
614.796	1	8
614.966	1	1
615.135	1	3
615.305	1	4
615.475	1	-4
615.644	1	2
615.814	1	3
615.984	1	9
616.153	1	-3
616.323	1	9
616.493	1	-5
616.662	1	15
616.832	1	5
617.002	1	0
617.171	1	8
617.341	1	1
617.511	1	8
617.680	1	-1
617.850	1	6
618.019	1	-6
618.189	1	-5
618.359	1	4
618.528	1	4
618.698	1	12
618.868	1	-1
619.037	1	-5
619.207	1	-5
619.377	1	-5
619.546	1	3
619.716	1	6
619.885	1	-4
620.055	1	-10
620.225	1	0
620.394	1	9
620.564	1	-2
620.734	1	0
620.903	1	11
621.073	1	12
621.242	1	-5
621.412	1	10
621.582	1	-4
621.751	1	2
621.921	1	-1
622.091	1	12
622.260	1	-3
622.430	1	-1
622.599	1	4
622.769	1	-5
622.939	1	8
623.108	1	-8
623.278	1	-8
623.448	1	2
623.617	1	-4
623.787	1	3
623.956	1	2
624.126	1	1
624.296	1	14
624.465	1	10
624.635	1	16
624.804	1	-9
624.974	1	-1
625.144	1	0
625.313	1	6
625.483	1	3
625.652	1	0
625.822	1	-6
625.992	1	11
626.161	1	9
626.331	1	4
626.501	1	-2
626.670	1	7
626.840	1	8
627.009	1	6
627.179	1	-10
627.348	1	0
627.518	1	4
627.688	1	7
627.857	1	10
628.027	1	0
628.196	1	11
628.366	1	7
628.536	1	0
628.705	1	1
628.875	1	5
629.044	1	-5
629.214	1	0
629.384	1	3
629.553	1	4
629.723	1	-1
629.892	1	8
630.062	1	3
630.232	1	9
630.401	1	-3
630.571	1	4
630.740	1	1
630.910	1	-3
631.079	1	3
631.249	1	-3
631.419	1	3
631.588	1	-3
631.758	1	7
631.927	1	-1
632.097	1	-7
632.266	1	2
632.436	1	3
632.606	1	-6
632.775	1	1
632.945	1	-10
633.114	1	-5
633.284	1	3
633.453	1	1
633.623	1	-3
633.793	1	4
633.962	1	-2
634.132	1	9
634.301	1	-4
634.471	1	12
634.640	1	9
634.810	1	2
634.979	1	-10
635.149	1	3
635.319	1	-1
635.488	1	4
635.658	1	11
635.827	1	4
635.997	1	9
636.166	1	-12
636.336	1	7
636.505	1	-4
636.675	1	9
636.845	1	-7
637.014	1	9
637.184	1	-4
637.353	1	10
637.523	1	2
637.692	1	12
637.862	1	9
638.031	1	-9
638.201	1	6
638.370	1	-8
638.540	1	1
638.710	1	0
638.879	1	0
639.049	1	-3
639.218	1	-2
639.388	1	7
639.557	1	-3
639.727	1	1
639.896	1	0
640.066	1	6
640.235	1	-2
640.405	1	-4
640.574	1	-4
640.744	1	11
640.914	1	-3
641.083	1	14
641.253	1	6
641.422	1	2
641.592	1	7
641.761	1	4
641.931	1	9
642.100	1	-8
642.270	1	-10
642.439	1	2
642.609	1	-5
642.778	1	-3
642.948	1	-2
643.117	1	1
643.287	1	1
643.456	1	14
643.626	1	14
643.795	1	1
643.965	1	3
644.134	1	-2
644.304	1	-6
644.473	1	3
644.643	1	-1
644.812	1	5
644.982	1	-3
645.151	1	-10
645.321	1	1
645.490	1	4
645.660	1	2
645.829	1	5
645.999	1	3
646.168	1	7
646.338	1	9
646.507	1	1
646.677	1	-7
646.846	1	3
647.016	1	-2
647.185	1	6
647.355	1	-3
647.524	1	-3
647.694	1	-2
647.863	1	-2
648.033	1	-5
648.202	1	8
648.372	1	6
648.541	1	0
648.711	1	6
648.880	1	8
649.050	1	1
649.219	1	9
649.389	1	4
649.558	1	-4
649.728	1	-3
649.897	1	8
650.067	1	0
650.236	1	6
650.406	1	-3
650.575	1	-7
650.745	1	10
650.914	1	3
651.084	1	6
651.253	1	9
651.423	1	2
651.592	1	3
651.762	1	0
651.931	1	6
652.101	1	4
652.270	1	-4
652.440	1	4
652.609	1	-4
652.778	1	9
652.948	1	-10
653.117	1	6
653.287	1	-8
653.456	1	-1
653.626	1	-6
653.795	1	0
653.965	1	1
654.134	1	16
654.304	1	6
654.473	1	7
654.643	1	-3
654.812	1	9
654.982	1	13
655.151	1	0
655.320	1	11
655.490	1	0
655.659	1	3
655.829	1	-1
655.998	1	-4
656.168	1	-3
656.337	1	-2
656.507	1	5
656.676	1	-4
656.846	1	-6
657.015	1	3
657.184	1	6
657.354	1	0
657.523	1	-9
657.693	1	-4
657.862	1	2
658.032	1	9
658.201	1	0
658.371	1	3
658.540	1	-8
658.709	1	-2
658.879	1	10
659.048	1	15
659.218	1	4
659.387	1	-2
659.557	1	13
659.726	1	-4
659.895	1	5
660.065	1	-9
660.234	1	4
660.404	1	2
660.573	1	-6
660.743	1	0
660.912	1	6
661.081	1	10
661.251	1	-8
661.420	1	4
661.590	1	-3
661.759	1	6
661.929	1	-3
662.098	1	6
662.267	1	4
662.437	1	-2
662.606	1	4
662.776	1	-5
662.945	1	-2
663.115	1	1
663.284	1	3
663.453	1	-1
663.623	1	-7
663.792	1	3
663.962	1	-1
664.131	1	7
664.300	1	11
664.470	1	6
664.639	1	0
664.809	1	-6
664.978	1	-1
665.148	1	0
665.317	1	-2
665.486	1	5
665.656	1	-7
665.825	1	6
665.995	1	-4
666.164	1	5
666.333	1	2
666.503	1	11
666.672	1	-1
666.842	1	-4
667.011	1	5
667.180	1	0
667.350	1	7
667.519	1	0
667.689	1	3
667.858	1	-2
668.027	1	2
668.197	1	5
668.366	1	11
668.536	1	6
668.705	1	-3
668.874	1	-7
669.044	1	-1
669.213	1	3
669.382	1	-9
669.552	1	4
669.721	1	6
669.891	1	-2
670.060	1	11
670.229	1	-10
670.399	1	7
670.568	1	4
670.738	1	10
670.907	1	-5
671.076	1	8
671.246	1	-11
671.415	1	1
671.584	1	14
671.754	1	-3
671.923	1	-2
672.093	1	5
672.262	1	3
672.431	1	3
672.601	1	3
672.770	1	0
672.939	1	2
673.109	1	9
673.278	1	-13
673.448	1	10
673.617	1	0
673.786	1	7
