325.333	1	12
325.504	1	0
325.675	1	-3
325.846	1	-3
326.017	1	5
326.188	1	-8
326.359	1	3
326.531	1	9
326.702	1	12
326.873	1	-1
327.044	1	-3
327.215	1	-1
327.386	1	-13
327.557	1	0
327.728	1	6
327.899	1	12
328.070	1	4
328.241	1	21
328.412	1	-3
328.583	1	-8
328.754	1	13
328.926	1	-5
329.097	1	5
329.268	1	-17
329.439	1	4
329.610	1	13
329.781	1	9
329.952	1	-3
330.123	1	2
330.294	1	0
330.465	1	12
330.636	1	1
330.807	1	2
330.978	1	9
331.149	1	6
331.320	1	2
331.492	1	3
331.663	1	6
331.834	1	10
332.005	1	14
332.176	1	18
332.347	1	-1
332.518	1	13
332.689	1	1
332.860	1	1
333.031	1	-2
333.202	1	-3
333.373	1	-1
333.544	1	10
333.715	1	-4
333.886	1	2
334.057	1	2
334.228	1	1
334.399	1	-4
334.570	1	1
334.741	1	-10
334.912	1	5
335.084	1	6
335.255	1	19
335.426	1	10
335.597	1	3
335.768	1	8
335.939	1	2
336.110	1	5
336.281	1	4
336.452	1	8
336.623	1	3
336.794	1	-5
336.965	1	2
337.136	1	-7
337.307	1	7
337.478	1	-7
337.649	1	-5
337.820	1	14
337.991	1	7
338.162	1	4
338.333	1	-4
338.504	1	12
338.675	1	4
338.846	1	12
339.017	1	-4
339.188	1	-5
339.359	1	-1
339.530	1	5
339.701	1	5
339.872	1	14
340.043	1	19
340.214	1	2
340.385	1	-2
340.556	1	10
340.727	1	13
340.898	1	0
341.069	1	13
341.240	1	-1
341.411	1	6
341.582	1	5
341.753	1	1
341.924	1	10
342.095	1	18
342.266	1	2
342.437	1	16
342.608	1	1
342.779	1	12
342.950	1	-5
343.121	1	-6
343.292	1	9
343.463	1	6
343.634	1	4
343.805	1	5
343.976	1	-1
344.147	1	1
344.318	1	10
344.489	1	5
344.660	1	4
344.831	1	6
345.002	1	1
345.173	1	6
345.344	1	8
345.515	1	4
345.686	1	-4
345.857	1	20
346.028	1	6
346.199	1	-7
346.370	1	1
346.541	1	12
346.712	1	4
346.883	1	-5
347.054	1	4
347.225	1	-9
347.396	1	6
347.567	1	5
347.738	1	1
347.909	1	-2
348.080	1	4
348.251	1	8
348.422	1	6
348.593	1	8
348.764	1	3
348.935	1	-1
349.106	1	-1
349.277	1	1
349.448	1	6
349.619	1	6
349.790	1	-5
349.961	1	0
350.132	1	11
350.303	1	1
350.474	1	15
350.645	1	4
350.816	1	5
350.987	1	10
351.157	1	-1
351.328	1	3
351.499	1	2
351.670	1	-1
351.841	1	8
352.012	1	5
352.183	1	13
352.354	1	9
352.525	1	1
352.696	1	6
352.867	1	1
353.038	1	2
353.209	1	6
353.380	1	21
353.551	1	9
353.722	1	0
353.893	1	-1
354.064	1	3
354.235	1	5
354.406	1	5
354.576	1	4
354.747	1	13
354.918	1	11
355.089	1	10
355.260	1	0
355.431	1	1
355.602	1	4
355.773	1	-9
355.944	1	8
356.115	1	9
356.286	1	5
356.457	1	5
356.628	1	14
356.799	1	6
356.970	1	8
357.141	1	-6
357.311	1	5
357.482	1	-1
357.653	1	4
357.824	1	6
357.995	1	13
358.166	1	10
358.337	1	1
358.508	1	4
358.679	1	9
358.850	1	3
359.021	1	4
359.192	1	9
359.363	1	-1
359.533	1	11
359.704	1	-4
359.875	1	2
360.046	1	4
360.217	1	8
360.388	1	2
360.559	1	11
360.730	1	12
360.901	1	2
361.072	1	9
361.243	1	6
361.414	1	-2
361.584	1	0
361.755	1	7
361.926	1	9
362.097	1	10
362.268	1	7
362.439	1	5
362.610	1	-1
362.781	1	3
362.952	1	1
363.123	1	2
363.293	1	15
363.464	1	9
363.635	1	16
363.806	1	-4
363.977	1	-3
364.148	1	-5
364.319	1	7
364.490	1	14
364.661	1	3
364.832	1	15
365.002	1	0
365.173	1	4
365.344	1	6
365.515	1	4
365.686	1	3
365.857	1	13
366.028	1	-3
366.199	1	10
366.370	1	11
366.540	1	7
366.711	1	10
366.882	1	8
367.053	1	-6
367.224	1	14
367.395	1	10
367.566	1	1
367.737	1	-3
367.908	1	14
368.078	1	15
368.249	1	17
368.420	1	-2
368.591	1	7
368.762	1	6
368.933	1	9
369.104	1	11
369.274	1	6
369.445	1	14
369.616	1	-9
369.787	1	-6
369.958	1	11
370.129	1	13
370.300	1	9
370.471	1	8
370.641	1	11
370.812	1	7
370.983	1	5
371.154	1	6
371.325	1	-4
371.496	1	2
371.667	1	-2
371.837	1	6
372.008	1	11
372.179	1	8
372.350	1	12
372.521	1	11
372.692	1	2
372.863	1	9
373.033	1	-5
373.204	1	1
373.375	1	1
373.546	1	1
373.717	1	-1
373.888	1	-2
374.059	1	10
374.229	1	8
374.400	1	-1
374.571	1	-2
374.742	1	14
374.913	1	11
375.084	1	6
375.254	1	3
375.425	1	5
375.596	1	9
375.767	1	11
375.938	1	5
376.109	1	18
376.279	1	-1
376.450	1	12
376.621	1	13
376.792	1	17
376.963	1	-5
377.134	1	11
377.304	1	6
377.475	1	-1
377.646	1	-5
377.817	1	12
377.988	1	6
378.159	1	-6
378.329	1	8
378.500	1	11
378.671	1	4
378.842	1	4
379.013	1	10
379.184	1	8
379.354	1	4
379.525	1	4
379.696	1	15
379.867	1	17
380.038	1	13
380.209	1	10
380.379	1	10
380.550	1	6
380.721	1	14
380.892	1	4
381.063	1	2
381.233	1	1
381.404	1	8
381.575	1	8
381.746	1	5
381.917	1	2
382.087	1	16
382.258	1	3
382.429	1	-8
382.600	1	5
382.771	1	5
382.941	1	5
383.112	1	4
383.283	1	6
383.454	1	10
383.625	1	20
383.795	1	14
383.966	1	7
384.137	1	8
384.308	1	8
384.479	1	7
384.649	1	10
384.820	1	9
384.991	1	8
385.162	1	16
385.333	1	1
385.503	1	-5
385.674	1	14
385.845	1	4
386.016	1	11
386.187	1	12
386.357	1	19
386.528	1	6
386.699	1	15
386.870	1	3
387.041	1	14
387.211	1	1
387.382	1	12
387.553	1	17
387.724	1	0
387.894	1	13
388.065	1	12
388.236	1	6
388.407	1	12
388.578	1	12
388.748	1	-4
388.919	1	14
389.090	1	7
389.261	1	12
389.431	1	8
389.602	1	3
389.773	1	5
389.944	1	5
390.114	1	15
390.285	1	13
390.456	1	5
390.627	1	22
390.798	1	5
390.968	1	-9
391.139	1	13
391.310	1	4
391.481	1	4
391.651	1	9
391.822	1	7
391.993	1	22
392.164	1	6
392.334	1	12
392.505	1	-1
392.676	1	13
392.847	1	3
393.017	1	9
393.188	1	13
393.359	1	1
393.530	1	14
393.700	1	7
393.871	1	14
394.042	1	0
394.213	1	3
394.383	1	17
394.554	1	1
394.725	1	2
394.896	1	4
395.066	1	14
395.237	1	6
395.408	1	10
395.579	1	0
395.749	1	-1
395.920	1	7
396.091	1	9
396.262	1	19
396.432	1	5
396.603	1	13
396.774	1	-2
396.945	1	4
397.115	1	11
397.286	1	3
397.457	1	12
397.627	1	21
397.798	1	9
397.969	1	9
398.140	1	2
398.310	1	17
398.481	1	9
398.652	1	18
398.823	1	3
398.993	1	-1
399.164	1	9
399.335	1	16
399.505	1	16
399.676	1	14
399.847	1	7
400.018	1	14
400.188	1	3
400.359	1	9
400.530	1	6
400.700	1	12
400.871	1	17
401.042	1	7
401.213	1	13
401.383	1	15
401.554	1	-2
401.725	1	18
401.895	1	6
402.066	1	15
402.237	1	5
402.408	1	6
402.578	1	5
402.749	1	7
402.920	1	18
403.090	1	16
403.261	1	21
403.432	1	10
403.603	1	16
403.773	1	13
403.944	1	10
404.115	1	3
404.285	1	6
404.456	1	2
404.627	1	12
404.797	1	12
404.968	1	18
405.139	1	6
405.310	1	7
405.480	1	9
405.651	1	1
405.822	1	16
405.992	1	6
406.163	1	17
406.334	1	11
406.504	1	8
406.675	1	10
406.846	1	8
407.016	1	15
407.187	1	7
407.358	1	12
407.528	1	2
407.699	1	6
407.870	1	8
408.041	1	20
408.211	1	6
408.382	1	15
408.553	1	3
408.723	1	2
408.894	1	12
409.065	1	12
409.235	1	2
409.406	1	15
409.577	1	15
409.747	1	21
409.918	1	15
410.089	1	20
410.259	1	5
410.430	1	10
410.601	1	11
410.771	1	13
410.942	1	12
411.113	1	26
411.283	1	5
411.454	1	2
411.625	1	16
411.795	1	11
411.966	1	5
412.137	1	14
412.307	1	6
412.478	1	11
412.649	1	-1
412.819	1	17
412.990	1	6
413.161	1	22
413.331	1	7
413.502	1	8
413.672	1	0
413.843	1	-5
414.014	1	21
414.184	1	1
414.355	1	15
414.526	1	6
414.696	1	21
414.867	1	9
415.038	1	8
415.208	1	4
415.379	1	9
415.550	1	9
415.720	1	16
415.891	1	5
416.062	1	18
416.232	1	0
416.403	1	5
416.573	1	8
416.744	1	2
416.915	1	13
417.085	1	13
417.256	1	8
417.427	1	8
417.597	1	14
417.768	1	5
417.939	1	10
418.109	1	7
418.280	1	11
418.450	1	11
418.621	1	12
418.792	1	3
418.962	1	16
419.133	1	5
419.304	1	12
419.474	1	14
419.645	1	9
419.815	1	7
419.986	1	4
420.157	1	10
420.327	1	12
420.498	1	11
420.669	1	19
420.839	1	10
421.010	1	4
421.180	1	6
421.351	1	21
421.522	1	11
421.692	1	16
421.863	1	8
422.033	1	5
422.204	1	5
422.375	1	8
422.545	1	6
422.716	1	9
422.886	1	20
423.057	1	23
423.228	1	10
423.398	1	16
423.569	1	16
423.740	1	16
423.910	1	6
424.081	1	12
424.251	1	11
424.422	1	8
424.593	1	13
424.763	1	12
424.934	1	10
425.104	1	6
425.275	1	11
425.445	1	12
425.616	1	14
425.787	1	11
425.957	1	6
426.128	1	13
426.298	1	4
426.469	1	10
426.640	1	1
426.810	1	21
426.981	1	2
427.151	1	20
427.322	1	12
427.493	1	-7
427.663	1	4
427.834	1	9
428.004	1	6
428.175	1	1
428.345	1	7
428.516	1	16
428.687	1	16
428.857	1	20
429.028	1	-2
429.198	1	8
429.369	1	4
429.540	1	8
429.710	1	16
429.881	1	5
430.051	1	11
430.222	1	20
430.392	1	20
430.563	1	16
430.734	1	9
430.904	1	15
431.075	1	12
431.245	1	4
431.416	1	15
431.586	1	15
431.757	1	20
431.927	1	8
432.098	1	6
432.269	1	14
432.439	1	8
432.610	1	-1
432.780	1	0
432.951	1	24
433.121	1	9
433.292	1	16
433.462	1	8
433.633	1	18
433.804	1	14
433.974	1	8
434.145	1	8
434.315	1	5
434.486	1	9
434.656	1	8
434.827	1	5
434.997	1	14
435.168	1	8
435.339	1	8
435.509	1	17
435.680	1	11
435.850	1	1
436.021	1	5
436.191	1	5
436.362	1	7
436.532	1	13
436.703	1	12
436.873	1	20
437.044	1	13
437.214	1	10
437.385	1	12
437.556	1	6
437.726	1	17
437.897	1	-6
438.067	1	11
438.238	1	17
438.408	1	8
438.579	1	20
438.749	1	2
438.920	1	-3
439.090	1	9
439.261	1	11
439.431	1	19
439.602	1	13
439.772	1	13
439.943	1	5
440.113	1	17
440.284	1	21
440.455	1	21
440.625	1	5
440.796	1	8
440.966	1	12
441.137	1	7
441.307	1	18
441.478	1	16
441.648	1	11
441.819	1	9
441.989	1	19
442.160	1	18
442.330	1	3
442.501	1	9
442.671	1	13
442.842	1	15
443.012	1	3
443.183	1	10
443.353	1	13
443.524	1	5
443.694	1	16
443.865	1	12
444.035	1	-4
444.206	1	18
444.376	1	15
444.547	1	11
444.717	1	7
444.888	1	11
445.058	1	10
445.229	1	6
445.399	1	11
445.570	1	10
445.740	1	14
445.911	1	4
446.081	1	8
446.252	1	-1
446.422	1	4
446.593	1	16
446.763	1	16
446.934	1	10
447.104	1	-1
447.275	1	8
447.445	1	3
447.616	1	7
447.786	1	17
447.957	1	13
448.127	1	15
448.298	1	12
448.468	1	18
448.639	1	8
448.809	1	0
448.979	1	12
449.150	1	11
449.320	1	11
449.491	1	3
449.661	1	9
449.832	1	9
450.002	1	3
450.173	1	15
450.343	1	11
450.514	1	11
450.684	1	1
450.855	1	6
451.025	1	11
451.196	1	3
451.366	1	9
451.537	1	-1
451.707	1	16
451.878	1	9
452.048	1	11
452.218	1	4
452.389	1	0
452.559	1	6
452.730	1	13
452.900	1	11
453.071	1	7
453.241	1	13
453.412	1	6
453.582	1	17
453.753	1	2
453.923	1	15
454.093	1	11
454.264	1	9
454.434	1	-1
454.605	1	4
454.775	1	4
454.946	1	9
455.116	1	2
455.287	1	13
455.457	1	11
455.628	1	-3
455.798	1	1
455.968	1	-3
456.139	1	1
456.309	1	16
456.480	1	9
456.650	1	9
456.821	1	4
456.991	1	14
457.161	1	7
457.332	1	-3
457.502	1	2
457.673	1	10
457.843	1	2
458.014	1	4
458.184	1	13
458.355	1	9
458.525	1	2
458.695	1	3
458.866	1	11
459.036	1	5
459.207	1	-1
459.377	1	17
459.548	1	8
459.718	1	0
459.888	1	19
460.059	1	18
460.229	1	5
460.400	1	-4
460.570	1	15
460.740	1	1
460.911	1	9
461.081	1	6
461.252	1	6
461.422	1	23
461.593	1	9
461.763	1	0
461.933	1	12
462.104	1	6
462.274	1	15
462.445	1	10
462.615	1	10
462.785	1	6
462.956	1	9
463.126	1	21
463.297	1	5
463.467	1	7
463.638	1	21
463.808	1	13
463.978	1	1
464.149	1	0
464.319	1	0
464.490	1	5
464.660	1	10
464.830	1	13
465.001	1	7
465.171	1	19
465.342	1	17
465.512	1	10
465.682	1	3
465.853	1	15
466.023	1	0
466.194	1	10
466.364	1	3
466.534	1	6
466.705	1	16
466.875	1	16
467.045	1	11
467.216	1	13
467.386	1	8
467.557	1	6
467.727	1	4
467.897	1	1
468.068	1	15
468.238	1	8
468.409	1	2
468.579	1	19
468.749	1	5
468.920	1	9
469.090	1	3
469.260	1	4
469.431	1	-5
469.601	1	-2
469.772	1	6
469.942	1	1
470.112	1	10
470.283	1	9
470.453	1	7
470.623	1	2
470.794	1	5
470.964	1	8
471.135	1	20
471.305	1	5
471.475	1	8
471.646	1	11
471.816	1	12
471.986	1	6
472.157	1	16
472.327	1	11
472.497	1	5
472.668	1	-1
472.838	1	3
473.009	1	7
473.179	1	17
473.349	1	8
473.520	1	2
473.690	1	9
473.860	1	0
474.031	1	7
474.201	1	3
474.371	1	16
474.542	1	5
474.712	1	12
474.882	1	9
475.053	1	8
475.223	1	9
475.394	1	5
475.564	1	10
475.734	1	13
475.905	1	6
476.075	1	7
476.245	1	-3
476.416	1	9
476.586	1	3
476.756	1	4
476.927	1	11
477.097	1	11
477.267	1	3
477.438	1	0
477.608	1	-3
477.778	1	14
477.949	1	9
478.119	1	3
478.289	1	15
478.460	1	0
478.630	1	2
478.800	1	6
478.971	1	10
479.141	1	0
479.311	1	0
479.482	1	3
479.652	1	3
479.822	1	4
479.993	1	10
480.163	1	8
480.333	1	5
480.504	1	-2
480.674	1	15
480.844	1	5
481.015	1	0
481.185	1	-4
481.355	1	18
481.525	1	7
481.696	1	4
481.866	1	13
482.036	1	8
482.207	1	2
482.377	1	-3
482.547	1	-2
482.718	1	4
482.888	1	1
483.058	1	1
483.229	1	0
483.399	1	-2
483.569	1	19
483.740	1	18
483.910	1	10
484.080	1	14
484.250	1	5
484.421	1	0
484.591	1	4
484.761	1	14
484.932	1	7
485.102	1	14
485.272	1	9
485.443	1	5
485.613	1	5
485.783	1	1
485.953	1	11
486.124	1	17
486.294	1	19
486.464	1	7
486.635	1	9
486.805	1	5
486.975	1	-8
487.146	1	0
487.316	1	0
487.486	1	8
487.656	1	1
487.827	1	-3
487.997	1	14
488.167	1	3
488.338	1	12
488.508	1	7
488.678	1	7
488.848	1	1
489.019	1	-2
489.189	1	4
489.359	1	12
489.529	1	5
489.700	1	6
489.870	1	15
490.040	1	2
490.211	1	10
490.381	1	7
490.551	1	13
490.721	1	3
490.892	1	11
491.062	1	3
491.232	1	2
491.402	1	11
491.573	1	8
491.743	1	5
491.913	1	11
492.084	1	10
492.254	1	1
492.424	1	6
492.594	1	-2
492.765	1	4
492.935	1	0
493.105	1	22
493.275	1	5
493.446	1	10
493.616	1	7
493.786	1	-1
493.956	1	2
494.127	1	9
494.297	1	13
494.467	1	10
494.637	1	11
494.808	1	2
494.978	1	8
495.148	1	17
495.318	1	-1
495.489	1	5
495.659	1	16
495.829	1	0
495.999	1	-9
496.170	1	9
496.340	1	8
496.510	1	9
496.680	1	9
496.851	1	5
497.021	1	7
497.191	1	14
497.361	1	3
497.532	1	7
497.702	1	-3
497.872	1	10
498.042	1	12
498.213	1	2
498.383	1	6
498.553	1	9
498.723	1	2
498.894	1	-1
499.064	1	9
499.234	1	13
499.404	1	4
499.574	1	0
499.745	1	-1
499.915	1	8
500.085	1	12
500.255	1	9
500.426	1	0
500.596	1	6
500.766	1	15
500.936	1	10
501.106	1	0
501.277	1	6
501.447	1	11
501.617	1	13
501.787	1	5
501.958	1	6
502.128	1	7
502.298	1	-3
502.468	1	5
502.638	1	7
502.809	1	3
502.979	1	3
503.149	1	14
503.319	1	-3
503.489	1	8
503.660	1	-3
503.830	1	11
504.000	1	7
504.170	1	6
504.340	1	2
504.511	1	10
504.681	1	6
504.851	1	0
505.021	1	-4
505.192	1	12
505.362	1	3
505.532	1	3
505.702	1	8
505.872	1	7
506.043	1	9
506.213	1	9
506.383	1	2
506.553	1	20
506.723	1	-14
506.893	1	-5
507.064	1	5
507.234	1	3
507.404	1	6
507.574	1	8
507.744	1	18
507.915	1	2
508.085	1	0
508.255	1	5
508.425	1	5
508.595	1	3
508.766	1	-3
508.936	1	5
509.106	1	7
509.276	1	7
509.446	1	8
509.616	1	10
509.787	1	-2
509.957	1	0
510.127	1	-8
510.297	1	-1
510.467	1	5
510.638	1	7
510.808	1	-5
510.978	1	17
511.148	1	6
511.318	1	1
511.488	1	3
511.659	1	-5
511.829	1	-5
511.999	1	6
512.169	1	15
512.339	1	7
512.509	1	16
512.680	1	7
512.850	1	5
513.020	1	13
513.190	1	-5
513.360	1	12
513.530	1	10
513.700	1	9
513.871	1	10
514.041	1	3
514.211	1	5
514.381	1	4
514.551	1	7
514.721	1	10
514.892	1	3
515.062	1	3
515.232	1	-3
515.402	1	3
515.572	1	11
515.742	1	-7
515.912	1	12
516.083	1	2
516.253	1	10
516.423	1	4
516.593	1	-3
516.763	1	-5
516.933	1	-6
517.104	1	5
517.274	1	8
517.444	1	10
517.614	1	14
517.784	1	-6
517.954	1	1
518.124	1	-6
518.294	1	12
518.465	1	-7
518.635	1	1
518.805	1	-1
518.975	1	2
519.145	1	-3
519.315	1	2
519.485	1	-7
519.656	1	12
519.826	1	10
519.996	1	8
520.166	1	1
520.336	1	-5
520.506	1	-4
520.676	1	-1
520.846	1	9
521.017	1	2
521.187	1	4
521.357	1	-10
521.527	1	9
521.697	1	3
521.867	1	5
522.037	1	5
522.207	1	-4
522.377	1	6
522.548	1	-3
522.718	1	2
522.888	1	-1
523.058	1	4
523.228	1	0
523.398	1	8
523.568	1	9
523.738	1	4
523.909	1	2
524.079	1	-7
524.249	1	0
524.419	1	0
524.589	1	2
524.759	1	9
524.929	1	-1
525.099	1	3
525.269	1	6
525.439	1	6
525.610	1	3
525.780	1	5
525.950	1	6
526.120	1	-3
526.290	1	-6
526.460	1	2
526.630	1	8
526.800	1	10
526.970	1	6
527.140	1	6
527.311	1	4
527.481	1	-4
527.651	1	-6
527.821	1	14
527.991	1	7
528.161	1	-3
528.331	1	13
528.501	1	8
528.671	1	-4
528.841	1	6
529.011	1	1
529.181	1	8
529.352	1	9
529.522	1	1
529.692	1	-1
529.862	1	-1
530.032	1	13
530.202	1	-1
530.372	1	4
530.542	1	2
530.712	1	9
530.882	1	13
531.052	1	8
531.222	1	-2
531.392	1	3
531.563	1	4
531.733	1	-8
531.903	1	-1
532.073	1	-3
532.243	1	7
532.413	1	1
532.583	1	8
532.753	1	9
532.923	1	1
533.093	1	11
533.263	1	12
533.433	1	-4
533.603	1	7
533.773	1	-2
533.943	1	10
534.113	1	2
534.284	1	3
534.454	1	7
534.624	1	2
534.794	1	0
534.964	1	-1
535.134	1	0
535.304	1	3
535.474	1	11
535.644	1	9
535.814	1	-4
535.984	1	-6
536.154	1	16
536.324	1	-3
536.494	1	6
536.664	1	-10
536.834	1	3
537.004	1	-1
537.174	1	10
537.344	1	4
537.514	1	6
537.685	1	14
537.855	1	13
538.025	1	0
538.195	1	3
538.365	1	-10
538.535	1	-1
538.705	1	0
538.875	1	7
539.045	1	12
539.215	1	0
539.385	1	-1
539.555	1	3
539.725	1	-6
539.895	1	-11
540.065	1	8
540.235	1	6
540.405	1	6
540.575	1	0
540.745	1	10
540.915	1	-1
541.085	1	-3
541.255	1	0
541.425	1	-3
541.595	1	11
541.765	1	-1
541.935	1	1
542.105	1	5
542.275	1	9
542.445	1	8
542.615	1	6
542.785	1	-7
542.955	1	4
543.125	1	8
543.295	1	-6
543.465	1	0
543.635	1	-3
543.805	1	1
543.975	1	-1
544.145	1	6
544.315	1	4
544.485	1	3
544.655	1	1
544.825	1	2
544.995	1	3
545.165	1	11
545.335	1	-1
545.505	1	2
545.675	1	-1
545.845	1	7
546.015	1	5
546.185	1	5
546.355	1	9
546.525	1	0
546.695	1	1
546.865	1	-6
547.035	1	12
547.205	1	2
547.375	1	0
547.545	1	5
547.715	1	2
547.885	1	7
548.055	1	3
548.225	1	-9
548.395	1	13
548.565	1	-5
548.735	1	7
548.905	1	-2
549.075	1	-3
549.245	1	1
549.415	1	0
549.585	1	1
549.755	1	10
549.925	1	4
550.095	1	2
550.265	1	1
550.435	1	0
550.605	1	-2
550.775	1	1
550.945	1	-2
551.115	1	8
551.285	1	3
551.455	1	6
551.625	1	6
551.795	1	2
551.965	1	4
552.135	1	10
552.305	1	3
552.475	1	-1
552.645	1	8
552.815	1	-1
552.985	1	12
553.155	1	-6
553.325	1	9
553.495	1	-1
553.665	1	2
553.835	1	2
554.004	1	0
554.174	1	4
554.344	1	-7
554.514	1	4
554.684	1	-1
554.854	1	4
555.024	1	8
555.194	1	13
555.364	1	2
555.534	1	18
555.704	1	-6
555.874	1	8
556.044	1	5
556.214	1	1
556.384	1	-3
556.554	1	2
556.724	1	8
556.894	1	4
557.064	1	0
557.234	1	0
557.404	1	-1
557.573	1	-8
557.743	1	-7
557.913	1	1
558.083	1	7
558.253	1	3
558.423	1	7
558.593	1	11
558.763	1	8
558.933	1	6
559.103	1	3
559.273	1	8
559.443	1	-6
559.613	1	3
559.783	1	2
559.953	1	5
560.122	1	14
560.292	1	-6
560.462	1	8
560.632	1	4
560.802	1	-1
560.972	1	-3
561.142	1	-4
561.312	1	-7
561.482	1	4
561.652	1	-8
561.822	1	15
561.992	1	5
562.162	1	2
562.331	1	6
562.501	1	2
562.671	1	-7
562.841	1	-5
563.011	1	-3
563.181	1	15
563.351	1	10
563.521	1	11
563.691	1	1
563.861	1	5
564.031	1	15
564.201	1	4
564.370	1	3
564.540	1	12
564.710	1	-7
564.880	1	-2
565.050	1	-6
565.220	1	1
565.390	1	2
565.560	1	6
565.730	1	3
565.900	1	10
566.069	1	0
566.239	1	0
566.409	1	6
566.579	1	7
566.749	1	-1
566.919	1	7
567.089	1	11
567.259	1	1
567.429	1	8
567.599	1	-1
567.768	1	15
567.938	1	12
568.108	1	-10
568.278	1	0
568.448	1	13
568.618	1	7
568.788	1	8
568.958	1	10
569.128	1	0
569.297	1	-2
569.467	1	4
569.637	1	-1
569.807	1	-2
569.977	1	4
570.147	1	1
570.317	1	-7
570.487	1	-3
570.656	1	-12
570.826	1	0
570.996	1	0
571.166	1	3
571.336	1	5
571.506	1	7
571.676	1	6
571.846	1	3
572.015	1	-1
572.185	1	-1
572.355	1	-1
572.525	1	1
572.695	1	-2
572.865	1	6
573.035	1	-1
573.205	1	8
573.374	1	12
573.544	1	3
573.714	1	3
573.884	1	7
574.054	1	13
574.224	1	-3
574.394	1	8
574.563	1	12
574.733	1	8
574.903	1	-5
575.073	1	2
575.243	1	-1
575.413	1	7
575.583	1	3
575.752	1	7
575.922	1	-3
576.092	1	-4
576.262	1	-9
576.432	1	-9
576.602	1	-4
576.772	1	-3
576.941	1	2
577.111	1	-2
577.281	1	0
577.451	1	5
577.621	1	-6
577.791	1	11
577.960	1	6
578.130	1	-6
578.300	1	-13
578.470	1	17
578.640	1	6
578.810	1	-3
578.979	1	7
579.149	1	-10
579.319	1	-3
579.489	1	6
579.659	1	9
579.829	1	-2
579.998	1	5
580.168	1	-3
580.338	1	8
580.508	1	4
580.678	1	7
580.848	1	9
581.017	1	8
581.187	1	-3
581.357	1	3
581.527	1	4
581.697	1	9
581.867	1	-3
582.036	1	7
582.206	1	8
582.376	1	5
582.546	1	1
582.716	1	-3
582.885	1	-10
583.055	1	0
583.225	1	2
583.395	1	5
583.565	1	8
583.735	1	5
583.904	1	11
584.074	1	-3
584.244	1	7
584.414	1	-2
584.584	1	-5
584.753	1	1
584.923	1	-1
585.093	1	-3
585.263	1	7
585.433	1	-1
585.602	1	-1
585.772	1	-2
585.942	1	11
586.112	1	7
586.282	1	4
586.451	1	7
586.621	1	3
586.791	1	-5
586.961	1	7
587.131	1	-3
587.300	1	-7
587.470	1	3
587.640	1	-6
587.810	1	6
587.980	1	-6
588.149	1	14
588.319	1	-3
588.489	1	2
588.659	1	7
588.829	1	0
588.998	1	12
589.168	1	4
589.338	1	1
589.508	1	3
589.677	1	-2
589.847	1	5
590.017	1	17
590.187	1	5
590.357	1	3
590.526	1	2
590.696	1	0
590.866	1	8
591.036	1	1
591.205	1	3
591.375	1	-3
591.545	1	2
591.715	1	-1
591.885	1	5
592.054	1	5
592.224	1	6
592.394	1	2
592.564	1	2
592.733	1	5
592.903	1	1
593.073	1	4
593.243	1	-4
593.412	1	0
593.582	1	2
593.752	1	9
593.922	1	7
594.091	1	7
594.261	1	5
594.431	1	4
594.601	1	-2
594.771	1	-3
594.940	1	-3
595.110	1	12
595.280	1	5
595.450	1	-2
595.619	1	6
595.789	1	3
595.959	1	3
596.129	1	-2
596.298	1	-4
596.468	1	-1
596.638	1	-8
596.808	1	8
596.977	1	0
597.147	1	10
597.317	1	-3
597.487	1	2
597.656	1	6
597.826	1	-2
597.996	1	5
598.166	1	11
598.335	1	1
598.505	1	10
598.675	1	5
598.844	1	2
599.014	1	13
599.184	1	-2
599.354	1	8
599.523	1	3
599.693	1	4
599.863	1	-7
600.033	1	4
600.202	1	0
600.372	1	4
600.542	1	1
600.712	1	-3
600.881	1	10
601.051	1	-2
601.221	1	-3
601.390	1	13
601.560	1	7
601.730	1	7
601.900	1	10
602.069	1	-2
602.239	1	1
602.409	1	-1
602.578	1	-2
602.748	1	5
602.918	1	3
603.088	1	-5
603.257	1	3
603.427	1	5
603.597	1	9
603.767	1	5
603.936	1	0
604.106	1	18
604.276	1	5
604.445	1	7
604.615	1	0
604.785	1	-6
604.954	1	10
605.124	1	0
605.294	1	1
605.464	1	0
605.633	1	-7
605.803	1	4
605.973	1	-7
606.142	1	-4
606.312	1	-7
606.482	1	-3
606.652	1	1
606.821	1	8
606.991	1	13
607.161	1	2
607.330	1	1
607.500	1	5
607.670	1	9
607.839	1	5
608.009	1	6
608.179	1	4
608.348	1	-4
608.518	1	-5
608.688	1	3
608.858	1	-1
609.027	1	0
609.197	1	6
609.367	1	6
609.536	1	9
609.706	1	0
609.876	1	1
610.045	1	5
610.215	1	-2
610.385	1	-10
610.554	1	1
610.724	1	2
610.894	1	17
611.063	1	-2
611.233	1	2
611.403	1	12
611.572	1	8
611.742	1	-4
611.912	1	7
612.081	1	-1
612.251	1	13
612.421	1	-3
612.590	1	-4
612.760	1	-2
612.930	1	-1
613.099	1	8
613.269	1	5
613.439	1	-1
613.608	1	8
613.778	1	2
613.948	1	7
614.117	1	-3
614.287	1	0
614.457	1	-3
614.626	1	1
614.796	1	13
614.966	1	-3
615.135	1	12
615.305	1	7
615.475	1	-4
615.644	1	2
615.814	1	0
615.984	1	15
616.153	1	-3
616.323	1	9
616.493	1	-4
616.662	1	7
616.832	1	11
617.002	1	0
617.171	1	4
617.341	1	-8
617.511	1	12
617.680	1	5
617.850	1	9
618.019	1	-10
618.189	1	-4
618.359	1	7
618.528	1	5
618.698	1	1
618.868	1	-4
619.037	1	-6
619.207	1	0
619.377	1	-4
619.546	1	6
619.716	1	5
619.885	1	-3
620.055	1	-3
620.225	1	4
620.394	1	6
620.564	1	-7
620.734	1	4
620.903	1	6
621.073	1	3
621.242	1	-3
621.412	1	9
621.582	1	-3
621.751	1	-2
621.921	1	-1
622.091	1	4
622.260	1	-1
622.430	1	7
622.599	1	9
622.769	1	0
622.939	1	10
623.108	1	-4
623.278	1	9
623.448	1	-2
623.617	1	-1
623.787	1	2
623.956	1	-2
624.126	1	11
624.296	1	0
624.465	1	13
624.635	1	17
624.804	1	9
624.974	1	0
625.144	1	-3
625.313	1	12
625.483	1	11
625.652	1	0
625.822	1	-10
625.992	1	14
626.161	1	10
626.331	1	9
626.501	1	4
626.670	1	7
626.840	1	4
627.009	1	7
627.179	1	-15
627.348	1	6
627.518	1	-1
627.688	1	6
627.857	1	8
628.027	1	11
628.196	1	8
628.366	1	6
628.536	1	-6
628.705	1	3
628.875	1	2
629.044	1	-4
629.214	1	2
629.384	1	5
629.553	1	0
629.723	1	-3
629.892	1	6
630.062	1	8
630.232	1	6
630.401	1	-2
630.571	1	6
630.740	1	7
630.910	1	-2
631.079	1	-4
631.249	1	-6
631.419	1	12
631.588	1	5
631.758	1	5
631.927	1	-2
632.097	1	-11
632.266	1	3
632.436	1	12
632.606	1	2
632.775	1	-1
632.945	1	1
633.114	1	-9
633.284	1	-3
633.453	1	6
633.623	1	1
633.793	1	12
633.962	1	3
634.132	1	14
634.301	1	-2
634.471	1	9
634.640	1	4
634.810	1	-5
634.979	1	-5
635.149	1	1
635.319	1	14
635.488	1	0
635.658	1	9
635.827	1	-2
635.997	1	8
636.166	1	-1
636.336	1	3
636.505	1	-6
636.675	1	3
636.845	1	2
637.014	1	15
637.184	1	2
637.353	1	12
637.523	1	5
637.692	1	8
637.862	1	-2
638.031	1	5
638.201	1	3
638.370	1	-1
638.540	1	0
638.710	1	6
638.879	1	12
639.049	1	-9
639.218	1	3
639.388	1	7
639.557	1	-2
639.727	1	9
639.896	1	-1
640.066	1	11
640.235	1	1
640.405	1	4
640.574	1	8
640.744	1	17
640.914	1	-5
641.083	1	-1
641.253	1	0
641.422	1	-2
641.592	1	9
641.761	1	-2
641.931	1	3
642.100	1	-3
642.270	1	-5
642.439	1	8
642.609	1	-10
642.778	1	2
642.948	1	3
643.117	1	6
643.287	1	3
643.456	1	9
643.626	1	12
643.795	1	-2
643.965	1	1
644.134	1	4
644.304	1	-2
644.473	1	4
644.643	1	0
644.812	1	-7
644.982	1	-1
645.151	1	11
645.321	1	9
645.490	1	10
645.660	1	6
645.829	1	-2
645.999	1	1
646.168	1	8
646.338	1	-1
646.507	1	1
646.677	1	1
646.846	1	1
647.016	1	8
647.185	1	6
647.355	1	6
647.524	1	2
647.694	1	-2
647.863	1	-8
648.033	1	-7
648.202	1	10
648.372	1	9
648.541	1	10
648.711	1	3
648.880	1	12
649.050	1	5
649.219	1	9
649.389	1	3
649.558	1	-2
649.728	1	3
649.897	1	0
650.067	1	9
650.236	1	7
650.406	1	5
650.575	1	-9
650.745	1	11
650.914	1	2
651.084	1	4
651.253	1	8
651.423	1	3
651.592	1	3
651.762	1	4
651.931	1	8
652.101	1	4
652.270	1	-7
652.440	1	3
652.609	1	5
652.778	1	6
652.948	1	7
653.117	1	11
653.287	1	-4
653.456	1	-10
653.626	1	2
653.795	1	4
653.965	1	6
654.134	1	3
654.304	1	4
654.473	1	-4
654.643	1	-13
654.812	1	14
654.982	1	7
655.151	1	0
655.320	1	-1
655.490	1	-1
655.659	1	11
655.829	1	2
655.998	1	4
656.168	1	5
656.337	1	-2
656.507	1	1
656.676	1	-7
656.846	1	-6
657.015	1	5
657.184	1	0
657.354	1	-1
657.523	1	5
657.693	1	-2
657.862	1	1
658.032	1	0
658.201	1	1
658.371	1	5
658.540	1	0
658.709	1	6
658.879	1	9
659.048	1	11
659.218	1	9
659.387	1	-2
659.557	1	19
659.726	1	10
659.895	1	-1
660.065	1	0
660.234	1	11
660.404	1	5
660.573	1	1
660.743	1	-1
660.912	1	-1
661.081	1	9
661.251	1	-3
661.420	1	12
661.590	1	5
661.759	1	0
661.929	1	5
662.098	1	1
662.267	1	1
662.437	1	3
662.606	1	4
662.776	1	6
662.945	1	1
663.115	1	4
663.284	1	-4
663.453	1	-2
663.623	1	2
663.792	1	0
663.962	1	-7
664.131	1	12
664.300	1	9
664.470	1	15
664.639	1	6
664.809	1	-4
664.978	1	-3
665.148	1	5
665.317	1	-3
665.486	1	4
665.656	1	-8
665.825	1	4
665.995	1	0
666.164	1	10
666.333	1	6
666.503	1	7
666.672	1	5
666.842	1	-3
667.011	1	14
667.180	1	2
667.350	1	4
667.519	1	-5
667.689	1	4
667.858	1	-2
668.027	1	-2
668.197	1	5
668.366	1	9
668.536	1	7
668.705	1	-1
668.874	1	-3
669.044	1	4
669.213	1	5
669.382	1	2
669.552	1	10
669.721	1	3
669.891	1	-10
670.060	1	7
670.229	1	-3
670.399	1	8
670.568	1	6
670.738	1	9
670.907	1	-5
671.076	1	6
671.246	1	2
671.415	1	-2
671.584	1	9
671.754	1	1
671.923	1	2
672.093	1	7
672.262	1	7
672.431	1	10
672.601	1	-1
672.770	1	1
672.939	1	1
673.109	1	2
673.278	1	7
673.448	1	-2
673.617	1	-1
673.786	1	5
