325.333	1	7
325.504	1	9
325.675	1	0
325.846	1	-8
326.017	1	8
326.188	1	7
326.359	1	-3
326.531	1	9
326.702	1	8
326.873	1	9
327.044	1	-5
327.215	1	8
327.386	1	6
327.557	1	-3
327.728	1	8
327.899	1	12
328.070	1	6
328.241	1	3
328.412	1	-5
328.583	1	-3
328.754	1	12
328.926	1	3
329.097	1	6
329.268	1	-13
329.439	1	14
329.610	1	11
329.781	1	15
329.952	1	5
330.123	1	-7
330.294	1	9
330.465	1	15
330.636	1	-2
330.807	1	6
330.978	1	13
331.149	1	13
331.320	1	9
331.492	1	16
331.663	1	10
331.834	1	2
332.005	1	2
332.176	1	10
332.347	1	4
332.518	1	14
332.689	1	2
332.860	1	8
333.031	1	-8
333.202	1	-5
333.373	1	8
333.544	1	12
333.715	1	-5
333.886	1	4
334.057	1	7
334.228	1	9
334.399	1	8
334.570	1	6
334.741	1	-2
334.912	1	1
335.084	1	1
335.255	1	13
335.426	1	9
335.597	1	9
335.768	1	10
335.939	1	13
336.110	1	7
336.281	1	-7
336.452	1	8
336.623	1	2
336.794	1	8
336.965	1	4
337.136	1	3
337.307	1	3
337.478	1	1
337.649	1	2
337.820	1	16
337.991	1	4
338.162	1	3
338.333	1	8
338.504	1	14
338.675	1	-1
338.846	1	12
339.017	1	-7
339.188	1	0
339.359	1	9
339.530	1	-1
339.701	1	8
339.872	1	6
340.043	1	7
340.214	1	8
340.385	1	10
340.556	1	6
340.727	1	11
340.898	1	2
341.069	1	15
341.240	1	1
341.411	1	8
341.582	1	16
341.753	1	3
341.924	1	12
342.095	1	17
342.266	1	-3
342.437	1	15
342.608	1	0
342.779	1	10
342.950	1	-7
343.121	1	4
343.292	1	9
343.463	1	9
343.634	1	11
343.805	1	11
343.976	1	11
344.147	1	6
344.318	1	15
344.489	1	7
344.660	1	4
344.831	1	6
345.002	1	11
345.173	1	3
345.344	1	0
345.515	1	7
345.686	1	-6
345.857	1	25
346.028	1	12
346.199	1	-2
346.370	1	11
346.541	1	12
346.712	1	14
346.883	1	-6
347.054	1	9
347.225	1	9
347.396	1	7
347.567	1	7
347.738	1	-7
347.909	1	10
348.080	1	3
348.251	1	6
348.422	1	6
348.593	1	11
348.764	1	-1
348.935	1	6
349.106	1	-6
349.277	1	7
349.448	1	4
349.619	1	4
349.790	1	11
349.961	1	14
350.132	1	10
350.303	1	1
350.474	1	19
350.645	1	19
350.816	1	9
350.987	1	6
351.157	1	4
351.328	1	10
351.499	1	6
351.670	1	12
351.841	1	16
352.012	1	11
352.183	1	-4
352.354	1	10
352.525	1	8
352.696	1	13
352.867	1	2
353.038	1	2
353.209	1	13
353.380	1	15
353.551	1	9
353.722	1	7
353.893	1	10
354.064	1	6
354.235	1	7
354.406	1	13
354.576	1	2
354.747	1	17
354.918	1	12
355.089	1	9
355.260	1	0
355.431	1	1
355.602	1	8
355.773	1	-1
355.944	1	6
356.115	1	17
356.286	1	10
356.457	1	12
356.628	1	17
356.799	1	22
356.970	1	10
357.141	1	6
357.311	1	1
357.482	1	2
357.653	1	1
357.824	1	8
357.995	1	10
358.166	1	10
358.337	1	8
358.508	1	-3
358.679	1	2
358.850	1	10
359.021	1	5
359.192	1	6
359.363	1	2
359.533	1	3
359.704	1	-2
359.875	1	6
360.046	1	8
360.217	1	19
360.388	1	9
360.559	1	22
360.730	1	-2
360.901	1	6
361.072	1	3
361.243	1	11
361.414	1	1
361.584	1	10
361.755	1	16
361.926	1	3
362.097	1	13
362.268	1	6
362.439	1	19
362.610	1	3
362.781	1	7
362.952	1	12
363.123	1	7
363.293	1	11
363.464	1	17
363.635	1	18
363.806	1	10
363.977	1	4
364.148	1	-3
364.319	1	7
364.490	1	6
364.661	1	6
364.832	1	-1
365.002	1	10
365.173	1	2
365.344	1	8
365.515	1	15
365.686	1	4
365.857	1	16
366.028	1	8
366.199	1	12
366.370	1	11
366.540	1	10
366.711	1	10
366.882	1	10
367.053	1	7
367.224	1	16
367.395	1	13
367.566	1	14
367.737	1	-1
367.908	1	17
368.078	1	0
368.249	1	11
368.420	1	8
368.591	1	8
368.762	1	3
368.933	1	13
369.104	1	13
369.274	1	12
369.445	1	9
369.616	1	4
369.787	1	17
369.958	1	-4
370.129	1	22
370.300	1	19
370.471	1	12
370.641	1	8
370.812	1	15
370.983	1	5
371.154	1	13
371.325	1	-6
371.496	1	11
371.667	1	0
371.837	1	8
372.008	1	18
372.179	1	8
372.350	1	12
372.521	1	15
372.692	1	5
372.863	1	18
373.033	1	0
373.204	1	9
373.375	1	4
373.546	1	5
373.717	1	-9
373.888	1	15
374.059	1	4
374.229	1	10
374.400	1	13
374.571	1	3
374.742	1	12
374.913	1	7
375.084	1	21
375.254	1	11
375.425	1	19
375.596	1	-1
375.767	1	20
375.938	1	11
376.109	1	14
376.279	1	4
376.450	1	20
376.621	1	8
376.792	1	19
376.963	1	0
377.134	1	13
377.304	1	8
377.475	1	8
377.646	1	7
377.817	1	8
377.988	1	11
378.159	1	5
378.329	1	4
378.500	1	10
378.671	1	2
378.842	1	13
379.013	1	14
379.184	1	2
379.354	1	4
379.525	1	6
379.696	1	15
379.867	1	7
380.038	1	20
380.209	1	15
380.379	1	19
380.550	1	5
380.721	1	20
380.892	1	9
381.063	1	4
381.233	1	10
381.404	1	22
381.575	1	16
381.746	1	3
381.917	1	6
382.087	1	17
382.258	1	9
382.429	1	7
382.600	1	7
382.771	1	13
382.941	1	11
383.112	1	6
383.283	1	8
383.454	1	13
383.625	1	18
383.795	1	19
383.966	1	8
384.137	1	17
384.308	1	14
384.479	1	14
384.649	1	7
384.820	1	17
384.991	1	6
385.162	1	11
385.333	1	5
385.503	1	1
385.674	1	11
385.845	1	20
386.016	1	4
386.187	1	9
386.357	1	27
386.528	1	11
386.699	1	22
386.870	1	5
387.041	1	18
387.211	1	10
387.382	1	14
387.553	1	16
387.724	1	15
387.894	1	20
388.065	1	13
388.236	1	15
388.407	1	18
388.578	1	11
388.748	1	-3
388.919	1	11
389.090	1	9
389.261	1	8
389.431	1	13
389.602	1	11
389.773	1	7
389.944	1	20
390.114	1	11
390.285	1	18
390.456	1	6
390.627	1	7
390.798	1	13
390.968	1	-1
391.139	1	16
391.310	1	16
391.481	1	19
391.651	1	11
391.822	1	14
391.993	1	15
392.164	1	6
392.334	1	16
392.505	1	5
392.676	1	15
392.847	1	14
393.017	1	14
393.188	1	16
393.359	1	6
393.530	1	11
393.700	1	11
393.871	1	14
394.042	1	-2
394.213	1	5
394.383	1	20
394.554	1	10
394.725	1	16
394.896	1	17
395.066	1	21
395.237	1	14
395.408	1	9
395.579	1	-2
395.749	1	14
395.920	1	11
396.091	1	10
396.262	1	17
396.432	1	18
396.603	1	13
396.774	1	-5
396.945	1	9
397.115	1	16
397.286	1	3
397.457	1	19
397.627	1	19
397.798	1	19
397.969	1	3
398.140	1	13
398.310	1	18
398.481	1	18
398.652	1	18
398.823	1	13
398.993	1	9
399.164	1	8
399.335	1	24
399.505	1	17
399.676	1	12
399.847	1	17
400.018	1	22
400.188	1	8
400.359	1	16
400.530	1	9
400.700	1	17
400.871	1	21
401.042	1	14
401.213	1	19
401.383	1	8
401.554	1	10
401.725	1	10
401.895	1	13
402.066	1	9
402.237	1	15
402.408	1	11
402.578	1	15
402.749	1	11
402.920	1	15
403.090	1	16
403.261	1	21
403.432	1	14
403.603	1	20
403.773	1	8
403.944	1	22
404.115	1	10
404.285	1	12
404.456	1	2
404.627	1	17
404.797	1	27
404.968	1	27
405.139	1	16
405.310	1	26
405.480	1	10
405.651	1	9
405.822	1	11
405.992	1	8
406.163	1	11
406.334	1	19
406.504	1	7
406.675	1	11
406.846	1	6
407.016	1	15
407.187	1	18
407.358	1	20
407.528	1	3
407.699	1	2
407.870	1	18
408.041	1	22
408.211	1	14
408.382	1	25
408.553	1	5
408.723	1	3
408.894	1	17
409.065	1	18
409.235	1	10
409.406	1	10
409.577	1	16
409.747	1	20
409.918	1	17
410.089	1	23
410.259	1	14
410.430	1	16
410.601	1	14
410.771	1	16
410.942	1	26
411.113	1	31
411.283	1	10
411.454	1	10
411.625	1	11
411.795	1	13
411.966	1	21
412.137	1	28
412.307	1	15
412.478	1	11
412.649	1	13
412.819	1	28
412.990	1	8
413.161	1	21
413.331	1	19
413.502	1	22
413.672	1	8
413.843	1	8
414.014	1	21
414.184	1	9
414.355	1	12
414.526	1	3
414.696	1	16
414.867	1	8
415.038	1	16
415.208	1	16
415.379	1	20
415.550	1	7
415.720	1	11
415.891	1	13
416.062	1	15
416.232	1	8
416.403	1	23
416.573	1	28
416.744	1	11
416.915	1	1
417.085	1	23
417.256	1	14
417.427	1	7
417.597	1	22
417.768	1	11
417.939	1	11
418.109	1	12
418.280	1	22
418.450	1	11
418.621	1	15
418.792	1	16
418.962	1	14
419.133	1	12
419.304	1	12
419.474	1	22
419.645	1	14
419.815	1	15
419.986	1	12
420.157	1	25
420.327	1	13
420.498	1	20
420.669	1	17
420.839	1	15
421.010	1	7
421.180	1	15
421.351	1	28
421.522	1	19
421.692	1	14
421.863	1	10
422.033	1	24
422.204	1	10
422.375	1	14
422.545	1	21
422.716	1	21
422.886	1	15
423.057	1	16
423.228	1	12
423.398	1	14
423.569	1	15
423.740	1	12
423.910	1	20
424.081	1	13
424.251	1	20
424.422	1	5
424.593	1	20
424.763	1	11
424.934	1	9
425.104	1	5
425.275	1	19
425.445	1	5
425.616	1	22
425.787	1	5
425.957	1	12
426.128	1	11
426.298	1	14
426.469	1	18
426.640	1	2
426.810	1	10
426.981	1	11
427.151	1	17
427.322	1	13
427.493	1	8
427.663	1	12
427.834	1	9
428.004	1	15
428.175	1	9
428.345	1	4
428.516	1	17
428.687	1	17
428.857	1	16
429.028	1	10
429.198	1	3
429.369	1	6
429.540	1	26
429.710	1	11
429.881	1	12
430.051	1	19
430.222	1	24
430.392	1	14
430.563	1	14
430.734	1	16
430.904	1	6
431.075	1	11
431.245	1	15
431.416	1	13
431.586	1	13
431.757	1	17
431.927	1	15
432.098	1	9
432.269	1	19
432.439	1	10
432.610	1	21
432.780	1	7
432.951	1	24
433.121	1	2
433.292	1	21
433.462	1	19
433.633	1	16
433.804	1	15
433.974	1	21
434.145	1	15
434.315	1	7
434.486	1	8
434.656	1	22
434.827	1	13
434.997	1	19
435.168	1	20
435.339	1	12
435.509	1	14
435.680	1	23
435.850	1	8
436.021	1	5
436.191	1	12
436.362	1	22
436.532	1	27
436.703	1	14
436.873	1	16
437.044	1	11
437.214	1	9
437.385	1	12
437.556	1	5
437.726	1	22
437.897	1	4
438.067	1	10
438.238	1	23
438.408	1	14
438.579	1	17
438.749	1	7
438.920	1	10
439.090	1	13
439.261	1	16
439.431	1	21
439.602	1	16
439.772	1	28
439.943	1	11
440.113	1	28
440.284	1	27
440.455	1	15
440.625	1	24
440.796	1	15
440.966	1	16
441.137	1	2
441.307	1	19
441.478	1	17
441.648	1	17
441.819	1	11
441.989	1	25
442.160	1	21
442.330	1	2
442.501	1	8
442.671	1	14
442.842	1	16
443.012	1	7
443.183	1	15
443.353	1	14
443.524	1	17
443.694	1	17
443.865	1	26
444.035	1	16
444.206	1	9
444.376	1	9
444.547	1	11
444.717	1	15
444.888	1	22
445.058	1	11
445.229	1	18
445.399	1	7
445.570	1	13
445.740	1	18
445.911	1	0
446.081	1	13
446.252	1	12
446.422	1	6
446.593	1	22
446.763	1	23
446.934	1	17
447.104	1	9
447.275	1	18
447.445	1	9
447.616	1	15
447.786	1	18
447.957	1	27
448.127	1	14
448.298	1	2
448.468	1	27
448.639	1	13
448.809	1	9
448.979	1	22
449.150	1	16
449.320	1	13
449.491	1	16
449.661	1	17
449.832	1	21
450.002	1	13
450.173	1	24
450.343	1	15
450.514	1	13
450.684	1	0
450.855	1	10
451.025	1	18
451.196	1	24
451.366	1	9
451.537	1	13
451.707	1	27
451.878	1	8
452.048	1	15
452.218	1	15
452.389	1	26
452.559	1	10
452.730	1	21
452.900	1	18
453.071	1	-1
453.241	1	15
453.412	1	20
453.582	1	13
453.753	1	21
453.923	1	11
454.093	1	13
454.264	1	11
454.434	1	17
454.605	1	8
454.775	1	-1
454.946	1	9
455.116	1	11
455.287	1	19
455.457	1	18
455.628	1	10
455.798	1	6
455.968	1	14
456.139	1	0
456.309	1	16
456.480	1	2
456.650	1	4
456.821	1	11
456.991	1	22
457.161	1	18
457.332	1	6
457.502	1	7
457.673	1	9
457.843	1	8
458.014	1	12
458.184	1	19
458.355	1	12
458.525	1	11
458.695	1	21
458.866	1	25
459.036	1	6
459.207	1	6
459.377	1	11
459.548	1	6
459.718	1	11
459.888	1	29
460.059	1	18
460.229	1	16
460.400	1	-2
460.570	1	18
460.740	1	5
460.911	1	5
461.081	1	13
461.252	1	13
461.422	1	11
461.593	1	17
461.763	1	4
461.933	1	9
462.104	1	3
462.274	1	10
462.445	1	6
462.615	1	12
462.785	1	20
462.956	1	12
463.126	1	22
463.297	1	7
463.467	1	19
463.638	1	18
463.808	1	-2
463.978	1	8
464.149	1	11
464.319	1	2
464.490	1	14
464.660	1	19
464.830	1	19
465.001	1	21
465.171	1	14
465.342	1	16
465.512	1	12
465.682	1	5
465.853	1	16
466.023	1	11
466.194	1	11
466.364	1	5
466.534	1	11
466.705	1	18
466.875	1	13
467.045	1	6
467.216	1	20
467.386	1	23
467.557	1	12
467.727	1	12
467.897	1	12
468.068	1	18
468.238	1	16
468.409	1	6
468.579	1	25
468.749	1	13
468.920	1	8
469.090	1	3
469.260	1	5
469.431	1	5
469.601	1	11
469.772	1	12
469.942	1	15
470.112	1	11
470.283	1	13
470.453	1	6
470.623	1	5
470.794	1	1
470.964	1	11
471.135	1	19
471.305	1	14
471.475	1	19
471.646	1	14
471.816	1	13
471.986	1	6
472.157	1	4
472.327	1	15
472.497	1	4
472.668	1	3
472.838	1	6
473.009	1	12
473.179	1	8
473.349	1	16
473.520	1	1
473.690	1	12
473.860	1	0
474.031	1	9
474.201	1	12
474.371	1	14
474.542	1	-3
474.712	1	6
474.882	1	10
475.053	1	11
475.223	1	5
475.394	1	18
475.564	1	7
475.734	1	15
475.905	1	6
476.075	1	21
476.245	1	-2
476.416	1	11
476.586	1	-4
476.756	1	7
476.927	1	14
477.097	1	12
477.267	1	15
477.438	1	-3
477.608	1	-1
477.778	1	12
477.949	1	2
478.119	1	2
478.289	1	19
478.460	1	21
478.630	1	1
478.800	1	4
478.971	1	3
479.141	1	13
479.311	1	0
479.482	1	3
479.652	1	4
479.822	1	6
479.993	1	16
480.163	1	16
480.333	1	9
480.504	1	3
480.674	1	17
480.844	1	6
481.015	1	3
481.185	1	4
481.355	1	14
481.525	1	3
481.696	1	11
481.866	1	15
482.036	1	10
482.207	1	8
482.377	1	5
482.547	1	13
482.718	1	6
482.888	1	15
483.058	1	10
483.229	1	4
483.399	1	-1
483.569	1	5
483.740	1	5
483.910	1	14
484.080	1	13
484.250	1	6
484.421	1	5
484.591	1	3
484.761	1	12
484.932	1	7
485.102	1	12
485.272	1	3
485.443	1	9
485.613	1	9
485.783	1	7
485.953	1	8
486.124	1	23
486.294	1	15
486.464	1	7
486.635	1	13
486.805	1	13
486.975	1	-5
487.146	1	7
487.316	1	3
487.486	1	6
487.656	1	1
487.827	1	1
487.997	1	15
488.167	1	3
488.338	1	15
488.508	1	13
488.678	1	14
488.848	1	8
489.019	1	6
489.189	1	10
489.359	1	12
489.529	1	9
489.700	1	8
489.870	1	14
490.040	1	16
490.211	1	12
490.381	1	10
490.551	1	7
490.721	1	9
490.892	1	8
491.062	1	7
491.232	1	11
491.402	1	13
491.573	1	7
491.743	1	10
491.913	1	6
492.084	1	12
492.254	1	-5
492.424	1	10
492.594	1	5
492.765	1	5
492.935	1	0
493.105	1	14
493.275	1	9
493.446	1	8
493.616	1	14
493.786	1	7
493.956	1	9
494.127	1	14
494.297	1	7
494.467	1	10
494.637	1	11
494.808	1	7
494.978	1	11
495.148	1	25
495.318	1	3
495.489	1	7
495.659	1	11
495.829	1	3
495.999	1	-2
496.170	1	8
496.340	1	2
496.510	1	13
496.680	1	5
496.851	1	12
497.021	1	11
497.191	1	15
497.361	1	3
497.532	1	20
497.702	1	-1
497.872	1	1
498.042	1	8
498.213	1	17
498.383	1	6
498.553	1	13
498.723	1	7
498.894	1	4
499.064	1	17
499.234	1	20
499.404	1	-1
499.574	1	-1
499.745	1	6
499.915	1	4
500.085	1	6
500.255	1	3
500.426	1	4
500.596	1	3
500.766	1	12
500.936	1	9
501.106	1	7
501.277	1	12
501.447	1	8
501.617	1	9
501.787	1	10
501.958	1	10
502.128	1	11
502.298	1	13
502.468	1	12
502.638	1	4
502.809	1	6
502.979	1	23
503.149	1	17
503.319	1	0
503.489	1	7
503.660	1	5
503.830	1	8
504.000	1	9
504.170	1	8
504.340	1	7
504.511	1	11
504.681	1	12
504.851	1	14
505.021	1	10
505.192	1	11
505.362	1	-4
505.532	1	2
505.702	1	0
505.872	1	13
506.043	1	15
506.213	1	7
506.383	1	10
506.553	1	16
506.723	1	-8
506.893	1	3
507.064	1	4
507.234	1	-5
507.404	1	7
507.574	1	17
507.744	1	19
507.915	1	7
508.085	1	2
508.255	1	11
508.425	1	-4
508.595	1	-4
508.766	1	-9
508.936	1	-11
509.106	1	17
509.276	1	1
509.446	1	10
509.616	1	14
509.787	1	4
509.957	1	2
510.127	1	1
510.297	1	-1
510.467	1	6
510.638	1	9
510.808	1	3
510.978	1	10
511.148	1	11
511.318	1	-8
511.488	1	6
511.659	1	10
511.829	1	2
511.999	1	8
512.169	1	7
512.339	1	12
512.509	1	14
512.680	1	6
512.850	1	13
513.020	1	5
513.190	1	-1
513.360	1	6
513.530	1	11
513.700	1	12
513.871	1	4
514.041	1	12
514.211	1	9
514.381	1	0
514.551	1	8
514.721	1	8
514.892	1	1
515.062	1	0
515.232	1	-3
515.402	1	1
515.572	1	10
515.742	1	2
515.912	1	9
516.083	1	8
516.253	1	1
516.423	1	0
516.593	1	-10
516.763	1	6
516.933	1	4
517.104	1	15
517.274	1	10
517.444	1	5
517.614	1	14
517.784	1	-2
517.954	1	8
518.124	1	-2
518.294	1	10
518.465	1	-1
518.635	1	10
518.805	1	10
518.975	1	2
519.145	1	-7
519.315	1	16
519.485	1	-7
519.656	1	7
519.826	1	16
519.996	1	9
520.166	1	3
520.336	1	7
520.506	1	-1
520.676	1	1
520.846	1	12
521.017	1	4
521.187	1	6
521.357	1	-1
521.527	1	8
521.697	1	12
521.867	1	15
522.037	1	10
522.207	1	8
522.377	1	15
522.548	1	-1
522.718	1	7
522.888	1	6
523.058	1	12
523.228	1	11
523.398	1	3
523.568	1	14
523.738	1	2
523.909	1	-2
524.079	1	-1
524.249	1	6
524.419	1	10
524.589	1	3
524.759	1	1
524.929	1	2
525.099	1	-2
525.269	1	7
525.439	1	14
525.610	1	12
525.780	1	3
525.950	1	0
526.120	1	1
526.290	1	3
526.460	1	9
526.630	1	10
526.800	1	10
526.970	1	-1
527.140	1	-2
527.311	1	-3
527.481	1	-4
527.651	1	-2
527.821	1	9
527.991	1	6
528.161	1	-6
528.331	1	8
528.501	1	7
528.671	1	2
528.841	1	7
529.011	1	7
529.181	1	7
529.352	1	17
529.522	1	2
529.692	1	-5
529.862	1	-1
530.032	1	3
530.202	1	-1
530.372	1	5
530.542	1	3
530.712	1	12
530.882	1	8
531.052	1	-2
531.222	1	-1
531.392	1	2
531.563	1	5
531.733	1	0
531.903	1	7
532.073	1	5
532.243	1	17
532.413	1	7
532.583	1	12
532.753	1	20
532.923	1	4
533.093	1	12
533.263	1	9
533.433	1	9
533.603	1	2
533.773	1	1
533.943	1	-3
534.113	1	4
534.284	1	8
534.454	1	3
534.624	1	-2
534.794	1	0
534.964	1	9
535.134	1	-1
535.304	1	8
535.474	1	2
535.644	1	16
535.814	1	-11
535.984	1	0
536.154	1	14
536.324	1	2
536.494	1	7
536.664	1	1
536.834	1	0
537.004	1	2
537.174	1	17
537.344	1	15
537.514	1	11
537.685	1	12
537.855	1	12
538.025	1	-1
538.195	1	2
538.365	1	6
538.535	1	-1
538.705	1	2
538.875	1	6
539.045	1	14
539.215	1	3
539.385	1	-4
539.555	1	-2
539.725	1	12
539.895	1	-1
540.065	1	4
540.235	1	6
540.405	1	9
540.575	1	-6
540.745	1	5
540.915	1	9
541.085	1	-4
541.255	1	0
541.425	1	-1
541.595	1	17
541.765	1	7
541.935	1	8
542.105	1	12
542.275	1	9
542.445	1	14
542.615	1	-2
542.785	1	-10
542.955	1	-1
543.125	1	6
543.295	1	-6
543.465	1	4
543.635	1	4
543.805	1	3
543.975	1	2
544.145	1	2
544.315	1	9
544.485	1	6
544.655	1	1
544.825	1	6
544.995	1	5
545.165	1	6
545.335	1	0
545.505	1	0
545.675	1	3
545.845	1	7
546.015	1	1
546.185	1	0
546.355	1	5
546.525	1	5
546.695	1	5
546.865	1	5
547.035	1	17
547.205	1	2
547.375	1	-3
547.545	1	7
547.715	1	-3
547.885	1	1
548.055	1	10
548.225	1	1
548.395	1	9
548.565	1	0
548.735	1	12
548.905	1	-4
549.075	1	-6
549.245	1	8
549.415	1	-7
549.585	1	-1
549.755	1	7
549.925	1	15
550.095	1	7
550.265	1	-1
550.435	1	4
550.605	1	-4
550.775	1	6
550.945	1	-1
551.115	1	5
551.285	1	-7
551.455	1	7
551.625	1	3
551.795	1	5
551.965	1	2
552.135	1	19
552.305	1	4
552.475	1	3
552.645	1	4
552.815	1	11
552.985	1	12
553.155	1	-2
553.325	1	10
553.495	1	4
553.665	1	2
553.835	1	4
554.004	1	9
554.174	1	5
554.344	1	-2
554.514	1	1
554.684	1	9
554.854	1	5
555.024	1	9
555.194	1	3
555.364	1	9
555.534	1	10
555.704	1	2
555.874	1	9
556.044	1	13
556.214	1	-1
556.384	1	3
556.554	1	-1
556.724	1	15
556.894	1	-6
557.064	1	18
557.234	1	8
557.404	1	3
557.573	1	-1
557.743	1	2
557.913	1	2
558.083	1	0
558.253	1	10
558.423	1	8
558.593	1	11
558.763	1	11
558.933	1	9
559.103	1	1
559.273	1	3
559.443	1	8
559.613	1	11
559.783	1	6
559.953	1	10
560.122	1	12
560.292	1	-1
560.462	1	11
560.632	1	10
560.802	1	0
560.972	1	-4
561.142	1	-8
561.312	1	4
561.482	1	7
561.652	1	-1
561.822	1	5
561.992	1	14
562.162	1	3
562.331	1	-2
562.501	1	9
562.671	1	2
562.841	1	-2
563.011	1	-3
563.181	1	0
563.351	1	12
563.521	1	11
563.691	1	-4
563.861	1	11
564.031	1	16
564.201	1	15
564.370	1	-4
564.540	1	13
564.710	1	-5
564.880	1	11
565.050	1	-2
565.220	1	10
565.390	1	3
565.560	1	1
565.730	1	5
565.900	1	5
566.069	1	-5
566.239	1	0
566.409	1	-2
566.579	1	13
566.749	1	6
566.919	1	6
567.089	1	9
567.259	1	-5
567.429	1	4
567.599	1	8
567.768	1	14
567.938	1	3
568.108	1	-1
568.278	1	-5
568.448	1	8
568.618	1	4
568.788	1	2
568.958	1	7
569.128	1	1
569.297	1	-6
569.467	1	4
569.637	1	-2
569.807	1	-9
569.977	1	2
570.147	1	9
570.317	1	-10
570.487	1	5
570.656	1	-9
570.826	1	-1
570.996	1	3
571.166	1	12
571.336	1	6
571.506	1	9
571.676	1	14
571.846	1	6
572.015	1	0
572.185	1	1
572.355	1	1
572.525	1	1
572.695	1	2
572.865	1	1
573.035	1	6
573.205	1	2
573.374	1	12
573.544	1	4
573.714	1	8
573.884	1	13
574.054	1	1
574.224	1	-2
574.394	1	1
574.563	1	16
574.733	1	-1
574.903	1	-1
575.073	1	10
575.243	1	5
575.413	1	9
575.583	1	2
575.752	1	5
575.922	1	-5
576.092	1	5
576.262	1	13
576.432	1	-1
576.602	1	4
576.772	1	-5
576.941	1	12
577.111	1	1
577.281	1	5
577.451	1	6
577.621	1	1
577.791	1	7
577.960	1	8
578.130	1	-5
578.300	1	-16
578.470	1	18
578.640	1	-1
578.810	1	-1
578.979	1	4
579.149	1	4
579.319	1	7
579.489	1	7
579.659	1	-4
579.829	1	0
579.998	1	8
580.168	1	8
580.338	1	14
580.508	1	13
580.678	1	7
580.848	1	3
581.017	1	5
581.187	1	7
581.357	1	4
581.527	1	9
581.697	1	7
581.867	1	-6
582.036	1	0
582.206	1	7
582.376	1	8
582.546	1	-4
582.716	1	3
582.885	1	-5
583.055	1	7
583.225	1	3
583.395	1	2
583.565	1	-2
583.735	1	7
583.904	1	8
584.074	1	3
584.244	1	6
584.414	1	2
584.584	1	1
584.753	1	11
584.923	1	-7
585.093	1	0
585.263	1	5
585.433	1	-3
585.602	1	11
585.772	1	3
585.942	1	14
586.112	1	2
586.282	1	4
586.451	1	1
586.621	1	8
586.791	1	-1
586.961	1	1
587.131	1	1
587.300	1	1
587.470	1	-4
587.640	1	-4
587.810	1	8
587.980	1	5
588.149	1	4
588.319	1	-1
588.489	1	1
588.659	1	9
588.829	1	-5
588.998	1	16
589.168	1	2
589.338	1	7
589.508	1	-2
589.677	1	24
589.847	1	4
590.017	1	11
590.187	1	3
590.357	1	9
590.526	1	1
590.696	1	4
590.866	1	15
591.036	1	2
591.205	1	8
591.375	1	-1
591.545	1	1
591.715	1	6
591.885	1	10
592.054	1	16
592.224	1	4
592.394	1	11
592.564	1	0
592.733	1	9
592.903	1	-6
593.073	1	2
593.243	1	4
593.412	1	1
593.582	1	2
593.752	1	9
593.922	1	0
594.091	1	6
594.261	1	2
594.431	1	3
594.601	1	0
594.771	1	12
594.940	1	-10
595.110	1	9
595.280	1	7
595.450	1	7
595.619	1	6
595.789	1	2
595.959	1	10
596.129	1	-4
596.298	1	-3
596.468	1	4
596.638	1	3
596.808	1	5
596.977	1	7
597.147	1	14
597.317	1	1
597.487	1	6
597.656	1	8
597.826	1	2
597.996	1	8
598.166	1	6
598.335	1	1
598.505	1	4
598.675	1	13
598.844	1	1
599.014	1	14
599.184	1	3
599.354	1	8
599.523	1	3
599.693	1	12
599.863	1	13
600.033	1	1
600.202	1	2
600.372	1	6
600.542	1	1
600.712	1	1
600.881	1	2
601.051	1	-3
601.221	1	4
601.390	1	17
601.560	1	13
601.730	1	-3
601.900	1	11
602.069	1	0
602.239	1	5
602.409	1	5
602.578	1	7
602.748	1	0
602.918	1	-6
603.088	1	0
603.257	1	-6
603.427	1	14
603.597	1	18
603.767	1	6
603.936	1	0
604.106	1	2
604.276	1	0
604.445	1	6
604.615	1	-3
604.785	1	-2
604.954	1	1
605.124	1	9
605.294	1	6
605.464	1	-4
605.633	1	0
605.803	1	8
605.973	1	0
606.142	1	8
606.312	1	-2
606.482	1	-6
606.652	1	9
606.821	1	6
606.991	1	9
607.161	1	2
607.330	1	-3
607.500	1	16
607.670	1	15
607.839	1	1
608.009	1	12
608.179	1	3
608.348	1	4
608.518	1	-3
608.688	1	1
608.858	1	3
609.027	1	12
609.197	1	3
609.367	1	-4
609.536	1	-2
609.706	1	16
609.876	1	2
610.045	1	9
610.215	1	7
610.385	1	-1
610.554	1	-1
610.724	1	-3
610.894	1	11
611.063	1	9
611.233	1	1
611.403	1	8
611.572	1	5
611.742	1	-1
611.912	1	3
612.081	1	-4
612.251	1	20
612.421	1	-2
612.590	1	-5
612.760	1	-7
612.930	1	2
613.099	1	11
613.269	1	7
613.439	1	-2
613.608	1	16
613.778	1	-1
613.948	1	4
614.117	1	2
614.287	1	-2
614.457	1	0
614.626	1	-2
614.796	1	6
614.966	1	-4
615.135	1	9
615.305	1	0
615.475	1	-2
615.644	1	0
615.814	1	6
615.984	1	9
616.153	1	-3
616.323	1	14
616.493	1	-6
616.662	1	16
616.832	1	1
617.002	1	6
617.171	1	6
617.341	1	-4
617.511	1	15
617.680	1	7
617.850	1	2
618.019	1	-3
618.189	1	-10
618.359	1	5
618.528	1	8
618.698	1	-1
618.868	1	2
619.037	1	5
619.207	1	6
619.377	1	3
619.546	1	12
619.716	1	1
619.885	1	-5
620.055	1	-1
620.225	1	8
620.394	1	11
620.564	1	-6
620.734	1	5
620.903	1	10
621.073	1	11
621.242	1	-7
621.412	1	10
621.582	1	-1
621.751	1	-1
621.921	1	8
622.091	1	4
622.260	1	1
622.430	1	12
622.599	1	16
622.769	1	0
622.939	1	10
623.108	1	-5
623.278	1	1
623.448	1	-10
623.617	1	-2
623.787	1	2
623.956	1	11
624.126	1	8
624.296	1	10
624.465	1	18
624.635	1	11
624.804	1	4
624.974	1	14
625.144	1	3
625.313	1	3
625.483	1	10
625.652	1	9
625.822	1	-3
625.992	1	5
626.161	1	9
626.331	1	14
626.501	1	7
626.670	1	-1
626.840	1	7
627.009	1	5
627.179	1	-3
627.348	1	5
627.518	1	2
627.688	1	9
627.857	1	8
628.027	1	7
628.196	1	11
628.366	1	0
628.536	1	-10
628.705	1	-2
628.875	1	5
629.044	1	-6
629.214	1	2
629.384	1	6
629.553	1	9
629.723	1	0
629.892	1	2
630.062	1	7
630.232	1	0
630.401	1	2
630.571	1	10
630.740	1	1
630.910	1	5
631.079	1	3
631.249	1	1
631.419	1	19
631.588	1	-6
631.758	1	7
631.927	1	0
632.097	1	4
632.266	1	-1
632.436	1	5
632.606	1	10
632.775	1	-4
632.945	1	0
633.114	1	-8
633.284	1	3
633.453	1	5
633.623	1	7
633.793	1	13
633.962	1	-1
634.132	1	2
634.301	1	-10
634.471	1	5
634.640	1	5
634.810	1	-1
634.979	1	-4
635.149	1	0
635.319	1	9
635.488	1	7
635.658	1	10
635.827	1	-1
635.997	1	11
636.166	1	-7
636.336	1	5
636.505	1	-11
636.675	1	15
636.845	1	-2
637.014	1	12
637.184	1	4
637.353	1	18
637.523	1	10
637.692	1	17
637.862	1	13
638.031	1	-8
638.201	1	3
638.370	1	0
638.540	1	4
638.710	1	4
638.879	1	13
639.049	1	0
639.218	1	0
639.388	1	6
639.557	1	0
639.727	1	4
639.896	1	4
640.066	1	0
640.235	1	7
640.405	1	8
640.574	1	-2
640.744	1	16
640.914	1	-5
641.083	1	12
641.253	1	6
641.422	1	6
641.592	1	8
641.761	1	8
641.931	1	6
642.100	1	-4
642.270	1	12
642.439	1	2
642.609	1	-1
642.778	1	0
642.948	1	11
643.117	1	-6
643.287	1	5
643.456	1	14
643.626	1	9
643.795	1	0
643.965	1	1
644.134	1	2
644.304	1	-7
644.473	1	8
644.643	1	-1
644.812	1	4
644.982	1	-9
645.151	1	8
645.321	1	-2
645.490	1	17
645.660	1	-1
645.829	1	10
645.999	1	3
646.168	1	9
646.338	1	10
646.507	1	11
646.677	1	0
646.846	1	4
647.016	1	9
647.185	1	6
647.355	1	10
647.524	1	2
647.694	1	8
647.863	1	5
648.033	1	-4
648.202	1	10
648.372	1	9
648.541	1	-7
648.711	1	4
648.880	1	9
649.050	1	7
649.219	1	11
649.389	1	1
649.558	1	9
649.728	1	8
649.897	1	6
650.067	1	7
650.236	1	12
650.406	1	5
650.575	1	-1
650.745	1	14
650.914	1	-1
651.084	1	3
651.253	1	13
651.423	1	8
651.592	1	19
651.762	1	2
651.931	1	10
652.101	1	2
652.270	1	-9
652.440	1	-1
652.609	1	3
652.778	1	10
652.948	1	-6
653.117	1	12
653.287	1	2
653.456	1	-2
653.626	1	2
653.795	1	1
653.965	1	6
654.134	1	4
654.304	1	11
654.473	1	6
654.643	1	-1
654.812	1	18
654.982	1	12
655.151	1	5
655.320	1	3
655.490	1	4
655.659	1	5
655.829	1	-3
655.998	1	2
656.168	1	2
656.337	1	2
656.507	1	-5
656.676	1	3
656.846	1	-3
657.015	1	6
657.184	1	1
657.354	1	5
657.523	1	4
657.693	1	-11
657.862	1	-2
658.032	1	-2
658.201	1	1
658.371	1	5
658.540	1	3
658.709	1	3
658.879	1	11
659.048	1	5
659.218	1	0
659.387	1	-1
659.557	1	12
659.726	1	3
659.895	1	3
660.065	1	-1
660.234	1	5
660.404	1	2
660.573	1	-1
660.743	1	-2
660.912	1	6
661.081	1	5
661.251	1	2
661.420	1	19
661.590	1	1
661.759	1	3
661.929	1	-2
662.098	1	12
662.267	1	-3
662.437	1	3
662.606	1	7
662.776	1	4
662.945	1	-1
663.115	1	0
663.284	1	11
663.453	1	-2
663.623	1	-12
663.792	1	4
663.962	1	-1
664.131	1	14
664.300	1	6
664.470	1	5
664.639	1	2
664.809	1	-2
664.978	1	4
665.148	1	14
665.317	1	3
665.486	1	14
665.656	1	-7
665.825	1	-1
665.995	1	2
666.164	1	2
666.333	1	14
666.503	1	4
666.672	1	7
666.842	1	-2
667.011	1	17
667.180	1	-2
667.350	1	13
667.519	1	7
667.689	1	8
667.858	1	3
668.027	1	4
668.197	1	1
668.366	1	11
668.536	1	-2
668.705	1	3
668.874	1	-7
669.044	1	9
669.213	1	7
669.382	1	0
669.552	1	5
669.721	1	-5
669.891	1	6
670.060	1	13
670.229	1	-1
670.399	1	7
670.568	1	2
670.738	1	10
670.907	1	-2
671.076	1	13
671.246	1	4
671.415	1	4
671.584	1	3
671.754	1	-1
671.923	1	1
672.093	1	-1
672.262	1	11
672.431	1	4
672.601	1	6
672.770	1	-9
672.939	1	2
673.109	1	2
673.278	1	-10
673.448	1	4
673.617	1	7
673.786	1	9
