325.333	1	18
325.504	1	5
325.675	1	4
325.846	1	-3
326.017	1	15
326.188	1	-1
326.359	1	-7
326.531	1	3
326.702	1	4
326.873	1	1
327.044	1	-3
327.215	1	1
327.386	1	5
327.557	1	1
327.728	1	-1
327.899	1	11
328.070	1	8
328.241	1	5
328.412	1	-8
328.583	1	-11
328.754	1	2
328.926	1	4
329.097	1	4
329.268	1	-3
329.439	1	1
329.610	1	7
329.781	1	5
329.952	1	6
330.123	1	-6
330.294	1	15
330.465	1	7
330.636	1	-1
330.807	1	-6
330.978	1	9
331.149	1	2
331.320	1	3
331.492	1	12
331.663	1	6
331.834	1	8
332.005	1	4
332.176	1	19
332.347	1	5
332.518	1	14
332.689	1	4
332.860	1	2
333.031	1	3
333.202	1	5
333.373	1	9
333.544	1	3
333.715	1	2
333.886	1	5
334.057	1	9
334.228	1	3
334.399	1	-6
334.570	1	4
334.741	1	2
334.912	1	12
335.084	1	4
335.255	1	11
335.426	1	7
335.597	1	-3
335.768	1	12
335.939	1	5
336.110	1	13
336.281	1	8
336.452	1	9
336.623	1	14
336.794	1	6
336.965	1	4
337.136	1	-1
337.307	1	5
337.478	1	-5
337.649	1	-2
337.820	1	20
337.991	1	3
338.162	1	-4
338.333	1	9
338.504	1	14
338.675	1	6
338.846	1	9
339.017	1	-3
339.188	1	-5
339.359	1	8
339.530	1	-2
339.701	1	6
339.872	1	2
340.043	1	1
340.214	1	7
340.385	1	8
340.556	1	4
340.727	1	10
340.898	1	4
341.069	1	3
341.240	1	-2
341.411	1	11
341.582	1	8
341.753	1	5
341.924	1	9
342.095	1	4
342.266	1	-3
342.437	1	5
342.608	1	4
342.779	1	6
342.950	1	-11
343.121	1	-1
343.292	1	15
343.463	1	3
343.634	1	16
343.805	1	8
343.976	1	5
344.147	1	7
344.318	1	18
344.489	1	5
344.660	1	8
344.831	1	6
345.002	1	9
345.173	1	8
345.344	1	-2
345.515	1	7
345.686	1	-9
345.857	1	12
346.028	1	15
346.199	1	11
346.370	1	7
346.541	1	4
346.712	1	9
346.883	1	-1
347.054	1	15
347.225	1	-7
347.396	1	3
347.567	1	7
347.738	1	6
347.909	1	0
348.080	1	9
348.251	1	5
348.422	1	3
348.593	1	9
348.764	1	1
348.935	1	4
349.106	1	-3
349.277	1	6
349.448	1	7
349.619	1	7
349.790	1	2
349.961	1	15
350.132	1	15
350.303	1	-2
350.474	1	8
350.645	1	1
350.816	1	3
350.987	1	10
351.157	1	7
351.328	1	9
351.499	1	4
351.670	1	12
351.841	1	16
352.012	1	8
352.183	1	7
352.354	1	7
352.525	1	6
352.696	1	8
352.867	1	6
353.038	1	1
353.209	1	5
353.380	1	3
353.551	1	20
353.722	1	5
353.893	1	8
354.064	1	2
354.235	1	4
354.406	1	16
354.576	1	-9
354.747	1	7
354.918	1	6
355.089	1	7
355.260	1	7
355.431	1	-5
355.602	1	1
355.773	1	9
355.944	1	10
356.115	1	7
356.286	1	8
356.457	1	2
356.628	1	-1
356.799	1	10
356.970	1	11
357.141	1	-6
357.311	1	4
357.482	1	-1
357.653	1	1
357.824	1	0
357.995	1	12
358.166	1	5
358.337	1	5
358.508	1	5
358.679	1	6
358.850	1	15
359.021	1	11
359.192	1	-1
359.363	1	1
359.533	1	12
359.704	1	1
359.875	1	-2
360.046	1	3
360.217	1	18
360.388	1	-2
360.559	1	12
360.730	1	12
360.901	1	5
361.072	1	9
361.243	1	11
361.414	1	-9
361.584	1	2
361.755	1	3
361.926	1	12
362.097	1	9
362.268	1	13
362.439	1	7
362.610	1	8
362.781	1	6
362.952	1	4
363.123	1	-7
363.293	1	5
363.464	1	9
363.635	1	17
363.806	1	5
363.977	1	4
364.148	1	5
364.319	1	8
364.490	1	5
364.661	1	6
364.832	1	-2
365.002	1	5
365.173	1	8
365.344	1	-2
365.515	1	7
365.686	1	0
365.857	1	1
366.028	1	6
366.199	1	10
366.370	1	11
366.540	1	11
366.711	1	5
366.882	1	10
367.053	1	-5
367.224	1	11
367.395	1	8
367.566	1	12
367.737	1	-4
367.908	1	15
368.078	1	10
368.249	1	1
368.420	1	1
368.591	1	4
368.762	1	6
368.933	1	10
369.104	1	7
369.274	1	10
369.445	1	4
369.616	1	-7
369.787	1	0
369.958	1	12
370.129	1	6
370.300	1	2
370.471	1	9
370.641	1	12
370.812	1	18
370.983	1	6
371.154	1	16
371.325	1	-1
371.496	1	-3
371.667	1	6
371.837	1	12
372.008	1	5
372.179	1	2
372.350	1	4
372.521	1	13
372.692	1	4
372.863	1	12
373.033	1	-1
373.204	1	4
373.375	1	-2
373.546	1	-2
373.717	1	-3
373.888	1	9
374.059	1	4
374.229	1	7
374.400	1	4
374.571	1	6
374.742	1	11
374.913	1	4
375.084	1	9
375.254	1	2
375.425	1	-3
375.596	1	5
375.767	1	17
375.938	1	9
376.109	1	9
376.279	1	-4
376.450	1	10
376.621	1	12
376.792	1	16
376.963	1	4
377.134	1	2
377.304	1	7
377.475	1	-1
377.646	1	1
377.817	1	2
377.988	1	8
378.159	1	1
378.329	1	5
378.500	1	7
378.671	1	2
378.842	1	6
379.013	1	8
379.184	1	5
379.354	1	3
379.525	1	1
379.696	1	6
379.867	1	5
380.038	1	17
380.209	1	9
380.379	1	20
380.550	1	5
380.721	1	15
380.892	1	7
381.063	1	-1
381.233	1	3
381.404	1	12
381.575	1	21
381.746	1	10
381.917	1	12
382.087	1	14
382.258	1	13
382.429	1	-2
382.600	1	12
382.771	1	6
382.941	1	6
383.112	1	1
383.283	1	10
383.454	1	6
383.625	1	6
383.795	1	16
383.966	1	16
384.137	1	6
384.308	1	-4
384.479	1	3
384.649	1	19
384.820	1	13
384.991	1	6
385.162	1	12
385.333	1	2
385.503	1	-2
385.674	1	18
385.845	1	14
386.016	1	4
386.187	1	6
386.357	1	11
386.528	1	3
386.699	1	7
386.870	1	4
387.041	1	7
387.211	1	3
387.382	1	11
387.553	1	13
387.724	1	6
387.894	1	12
388.065	1	5
388.236	1	14
388.407	1	7
388.578	1	4
388.748	1	-5
388.919	1	12
389.090	1	15
389.261	1	2
389.431	1	16
389.602	1	11
389.773	1	10
389.944	1	9
390.114	1	6
390.285	1	12
390.456	1	10
390.627	1	23
390.798	1	13
390.968	1	-2
391.139	1	16
391.310	1	10
391.481	1	7
391.651	1	3
391.822	1	18
391.993	1	17
392.164	1	3
392.334	1	2
392.505	1	9
392.676	1	10
392.847	1	2
393.017	1	16
393.188	1	7
393.359	1	1
393.530	1	8
393.700	1	13
393.871	1	5
394.042	1	3
394.213	1	18
394.383	1	18
394.554	1	12
394.725	1	5
394.896	1	4
395.066	1	12
395.237	1	3
395.408	1	12
395.579	1	6
395.749	1	9
395.920	1	7
396.091	1	10
396.262	1	15
396.432	1	7
396.603	1	15
396.774	1	-5
396.945	1	11
397.115	1	7
397.286	1	2
397.457	1	15
397.627	1	18
397.798	1	15
397.969	1	5
398.140	1	3
398.310	1	15
398.481	1	16
398.652	1	24
398.823	1	-2
398.993	1	10
399.164	1	15
399.335	1	15
399.505	1	12
399.676	1	16
399.847	1	9
400.018	1	15
400.188	1	12
400.359	1	22
400.530	1	10
400.700	1	3
400.871	1	18
401.042	1	14
401.213	1	15
401.383	1	-3
401.554	1	8
401.725	1	7
401.895	1	15
402.066	1	3
402.237	1	12
402.408	1	12
402.578	1	-1
402.749	1	16
402.920	1	18
403.090	1	17
403.261	1	19
403.432	1	11
403.603	1	9
403.773	1	10
403.944	1	17
404.115	1	10
404.285	1	12
404.456	1	2
404.627	1	16
404.797	1	12
404.968	1	16
405.139	1	17
405.310	1	8
405.480	1	13
405.651	1	2
405.822	1	6
405.992	1	20
406.163	1	11
406.334	1	10
406.504	1	-1
406.675	1	6
406.846	1	7
407.016	1	11
407.187	1	11
407.358	1	20
407.528	1	3
407.699	1	4
407.870	1	4
408.041	1	17
408.211	1	8
408.382	1	14
408.553	1	6
408.723	1	6
408.894	1	12
409.065	1	17
409.235	1	8
409.406	1	-1
409.577	1	21
409.747	1	27
409.918	1	18
410.089	1	19
410.259	1	13
410.430	1	9
410.601	1	14
410.771	1	16
410.942	1	16
411.113	1	27
411.283	1	17
411.454	1	12
411.625	1	5
411.795	1	14
411.966	1	21
412.137	1	17
412.307	1	4
412.478	1	4
412.649	1	6
412.819	1	11
412.990	1	13
413.161	1	23
413.331	1	13
413.502	1	15
413.672	1	8
413.843	1	4
414.014	1	24
414.184	1	3
414.355	1	12
414.526	1	5
414.696	1	9
414.867	1	10
415.038	1	17
415.208	1	3
415.379	1	10
415.550	1	10
415.720	1	11
415.891	1	9
416.062	1	10
416.232	1	12
416.403	1	19
416.573	1	13
416.744	1	1
416.915	1	12
417.085	1	12
417.256	1	5
417.427	1	3
417.597	1	21
417.768	1	13
417.939	1	8
418.109	1	12
418.280	1	14
418.450	1	12
418.621	1	12
418.792	1	6
418.962	1	19
419.133	1	12
419.304	1	10
419.474	1	16
419.645	1	21
419.815	1	18
419.986	1	11
420.157	1	14
420.327	1	10
420.498	1	16
420.669	1	14
420.839	1	12
421.010	1	14
421.180	1	14
421.351	1	21
421.522	1	15
421.692	1	2
421.863	1	3
422.033	1	6
422.204	1	4
422.375	1	9
422.545	1	4
422.716	1	19
422.886	1	15
423.057	1	19
423.228	1	4
423.398	1	12
423.569	1	23
423.740	1	9
423.910	1	18
424.081	1	21
424.251	1	13
424.422	1	12
424.593	1	13
424.763	1	11
424.934	1	10
425.104	1	0
425.275	1	21
425.445	1	12
425.616	1	6
425.787	1	13
425.957	1	1
426.128	1	10
426.298	1	-3
426.469	1	22
426.640	1	11
426.810	1	18
426.981	1	2
427.151	1	10
427.322	1	6
427.493	1	3
427.663	1	13
427.834	1	10
428.004	1	14
428.175	1	-1
428.345	1	8
428.516	1	15
428.687	1	14
428.857	1	16
429.028	1	0
429.198	1	8
429.369	1	6
429.540	1	14
429.710	1	19
429.881	1	11
430.051	1	10
430.222	1	31
430.392	1	20
430.563	1	16
430.734	1	16
430.904	1	16
431.075	1	11
431.245	1	2
431.416	1	13
431.586	1	5
431.757	1	16
431.927	1	6
432.098	1	9
432.269	1	14
432.439	1	11
432.610	1	10
432.780	1	1
432.951	1	16
433.121	1	14
433.292	1	14
433.462	1	1
433.633	1	13
433.804	1	9
433.974	1	24
434.145	1	0
434.315	1	9
434.486	1	6
434.656	1	16
434.827	1	18
434.997	1	4
435.168	1	12
435.339	1	7
435.509	1	26
435.680	1	13
435.850	1	8
436.021	1	6
436.191	1	9
436.362	1	15
436.532	1	17
436.703	1	9
436.873	1	23
437.044	1	23
437.214	1	2
437.385	1	18
437.556	1	2
437.726	1	29
437.897	1	-1
438.067	1	9
438.238	1	13
438.408	1	10
438.579	1	23
438.749	1	7
438.920	1	1
439.090	1	9
439.261	1	20
439.431	1	18
439.602	1	15
439.772	1	13
439.943	1	4
440.113	1	11
440.284	1	6
440.455	1	15
440.625	1	2
440.796	1	17
440.966	1	13
441.137	1	6
441.307	1	20
441.478	1	16
441.648	1	22
441.819	1	10
441.989	1	22
442.160	1	23
442.330	1	5
442.501	1	15
442.671	1	11
442.842	1	17
443.012	1	11
443.183	1	18
443.353	1	8
443.524	1	2
443.694	1	16
443.865	1	12
444.035	1	4
444.206	1	16
444.376	1	15
444.547	1	6
444.717	1	13
444.888	1	16
445.058	1	8
445.229	1	12
445.399	1	-1
445.570	1	15
445.740	1	14
445.911	1	8
446.081	1	13
446.252	1	3
446.422	1	6
446.593	1	16
446.763	1	20
446.934	1	17
447.104	1	6
447.275	1	8
447.445	1	8
447.616	1	8
447.786	1	13
447.957	1	22
448.127	1	14
448.298	1	13
448.468	1	14
448.639	1	10
448.809	1	-3
448.979	1	14
449.150	1	17
449.320	1	18
449.491	1	14
449.661	1	9
449.832	1	17
450.002	1	16
450.173	1	13
450.343	1	11
450.514	1	10
450.684	1	3
450.855	1	2
451.025	1	14
451.196	1	3
451.366	1	13
451.537	1	-2
451.707	1	24
451.878	1	12
452.048	1	15
452.218	1	12
452.389	1	13
452.559	1	6
452.730	1	14
452.900	1	9
453.071	1	7
453.241	1	15
453.412	1	16
453.582	1	7
453.753	1	12
453.923	1	17
454.093	1	16
454.264	1	11
454.434	1	6
454.605	1	9
454.775	1	1
454.946	1	10
455.116	1	3
455.287	1	15
455.457	1	8
455.628	1	6
455.798	1	-1
455.968	1	8
456.139	1	-6
456.309	1	12
456.480	1	8
456.650	1	7
456.821	1	9
456.991	1	15
457.161	1	8
457.332	1	4
457.502	1	7
457.673	1	8
457.843	1	8
458.014	1	5
458.184	1	19
458.355	1	17
458.525	1	5
458.695	1	10
458.866	1	26
459.036	1	9
459.207	1	4
459.377	1	6
459.548	1	13
459.718	1	9
459.888	1	21
460.059	1	19
460.229	1	12
460.400	1	2
460.570	1	6
460.740	1	0
460.911	1	9
461.081	1	19
461.252	1	15
461.422	1	13
461.593	1	-1
461.763	1	2
461.933	1	11
462.104	1	5
462.274	1	0
462.445	1	11
462.615	1	15
462.785	1	10
462.956	1	6
463.126	1	18
463.297	1	2
463.467	1	17
463.638	1	10
463.808	1	2
463.978	1	-1
464.149	1	11
464.319	1	-1
464.490	1	9
464.660	1	12
464.830	1	22
465.001	1	20
465.171	1	18
465.342	1	14
465.512	1	12
465.682	1	7
465.853	1	18
466.023	1	8
466.194	1	13
466.364	1	5
466.534	1	13
466.705	1	16
466.875	1	11
467.045	1	11
467.216	1	11
467.386	1	19
467.557	1	10
467.727	1	6
467.897	1	-1
468.068	1	22
468.238	1	5
468.409	1	1
468.579	1	10
468.749	1	12
468.920	1	9
469.090	1	0
469.260	1	10
469.431	1	-4
469.601	1	10
469.772	1	15
469.942	1	7
470.112	1	15
470.283	1	2
470.453	1	1
470.623	1	2
470.794	1	8
470.964	1	7
471.135	1	13
471.305	1	12
471.475	1	8
471.646	1	10
471.816	1	17
471.986	1	9
472.157	1	5
472.327	1	23
472.497	1	16
472.668	1	6
472.838	1	5
473.009	1	6
473.179	1	10
473.349	1	10
473.520	1	6
473.690	1	7
473.860	1	-7
474.031	1	14
474.201	1	-8
474.371	1	14
474.542	1	13
474.712	1	19
474.882	1	3
475.053	1	0
475.223	1	5
475.394	1	14
475.564	1	17
475.734	1	11
475.905	1	6
476.075	1	10
476.245	1	4
476.416	1	13
476.586	1	6
476.756	1	3
476.927	1	8
477.097	1	13
477.267	1	7
477.438	1	4
477.608	1	0
477.778	1	15
477.949	1	6
478.119	1	5
478.289	1	15
478.460	1	7
478.630	1	10
478.800	1	4
478.971	1	7
479.141	1	7
479.311	1	-4
479.482	1	5
479.652	1	1
479.822	1	4
479.993	1	21
480.163	1	14
480.333	1	11
480.504	1	6
480.674	1	18
480.844	1	12
481.015	1	-6
481.185	1	4
481.355	1	11
481.525	1	-1
481.696	1	9
481.866	1	12
482.036	1	2
482.207	1	6
482.377	1	4
482.547	1	6
482.718	1	3
482.888	1	7
483.058	1	7
483.229	1	0
483.399	1	3
483.569	1	10
483.740	1	14
483.910	1	12
484.080	1	7
484.250	1	16
484.421	1	0
484.591	1	-4
484.761	1	15
484.932	1	6
485.102	1	3
485.272	1	0
485.443	1	12
485.613	1	2
485.783	1	4
485.953	1	1
486.124	1	17
486.294	1	15
486.464	1	7
486.635	1	7
486.805	1	2
486.975	1	-6
487.146	1	-7
487.316	1	10
487.486	1	6
487.656	1	11
487.827	1	10
487.997	1	16
488.167	1	-7
488.338	1	12
488.508	1	16
488.678	1	13
488.848	1	4
489.019	1	3
489.189	1	9
489.359	1	6
489.529	1	14
489.700	1	10
489.870	1	5
490.040	1	9
490.211	1	11
490.381	1	10
490.551	1	9
490.721	1	12
490.892	1	4
491.062	1	9
491.232	1	1
491.402	1	14
491.573	1	7
491.743	1	10
491.913	1	9
492.084	1	8
492.254	1	-2
492.424	1	10
492.594	1	8
492.765	1	9
492.935	1	1
493.105	1	17
493.275	1	7
493.446	1	3
493.616	1	15
493.786	1	3
493.956	1	0
494.127	1	16
494.297	1	6
494.467	1	1
494.637	1	7
494.808	1	12
494.978	1	5
495.148	1	14
495.318	1	-1
495.489	1	11
495.659	1	4
495.829	1	10
495.999	1	1
496.170	1	15
496.340	1	10
496.510	1	8
496.680	1	5
496.851	1	4
497.021	1	8
497.191	1	13
497.361	1	6
497.532	1	10
497.702	1	3
497.872	1	3
498.042	1	3
498.213	1	7
498.383	1	0
498.553	1	7
498.723	1	0
498.894	1	4
499.064	1	8
499.234	1	8
499.404	1	0
499.574	1	-2
499.745	1	12
499.915	1	5
500.085	1	12
500.255	1	11
500.426	1	6
500.596	1	7
500.766	1	14
500.936	1	-1
501.106	1	4
501.277	1	5
501.447	1	8
501.617	1	8
501.787	1	8
501.958	1	17
502.128	1	8
502.298	1	0
502.468	1	7
502.638	1	7
502.809	1	11
502.979	1	7
503.149	1	10
503.319	1	3
503.489	1	8
503.660	1	6
503.830	1	11
504.000	1	10
504.170	1	20
504.340	1	5
504.511	1	2
504.681	1	3
504.851	1	6
505.021	1	2
505.192	1	8
505.362	1	1
505.532	1	1
505.702	1	5
505.872	1	12
506.043	1	11
506.213	1	4
506.383	1	7
506.553	1	14
506.723	1	-8
506.893	1	-2
507.064	1	5
507.234	1	-1
507.404	1	-2
507.574	1	10
507.744	1	23
507.915	1	8
508.085	1	9
508.255	1	18
508.425	1	-5
508.595	1	-4
508.766	1	2
508.936	1	2
509.106	1	10
509.276	1	3
509.446	1	0
509.616	1	5
509.787	1	-1
509.957	1	8
510.127	1	-2
510.297	1	0
510.467	1	-4
510.638	1	-3
510.808	1	-4
510.978	1	18
511.148	1	8
511.318	1	2
511.488	1	-1
511.659	1	-4
511.829	1	5
511.999	1	8
512.169	1	15
512.339	1	-3
512.509	1	13
512.680	1	8
512.850	1	6
513.020	1	2
513.190	1	1
513.360	1	19
513.530	1	11
513.700	1	19
513.871	1	2
514.041	1	10
514.211	1	2
514.381	1	1
514.551	1	9
514.721	1	5
514.892	1	2
515.062	1	1
515.232	1	-8
515.402	1	-3
515.572	1	11
515.742	1	1
515.912	1	7
516.083	1	2
516.253	1	14
516.423	1	-2
516.593	1	-2
516.763	1	-7
516.933	1	-8
517.104	1	6
517.274	1	3
517.444	1	11
517.614	1	3
517.784	1	4
517.954	1	1
518.124	1	3
518.294	1	11
518.465	1	-4
518.635	1	1
518.805	1	9
518.975	1	0
519.145	1	4
519.315	1	10
519.485	1	8
519.656	1	5
519.826	1	3
519.996	1	13
520.166	1	2
520.336	1	4
520.506	1	6
520.676	1	11
520.846	1	-4
521.017	1	-1
521.187	1	10
521.357	1	2
521.527	1	14
521.697	1	1
521.867	1	3
522.037	1	5
522.207	1	7
522.377	1	1
522.548	1	6
522.718	1	4
522.888	1	4
523.058	1	7
523.228	1	5
523.398	1	-6
523.568	1	4
523.738	1	4
523.909	1	-2
524.079	1	-2
524.249	1	1
524.419	1	12
524.589	1	5
524.759	1	11
524.929	1	-4
525.099	1	-3
525.269	1	15
525.439	1	10
525.610	1	5
525.780	1	5
525.950	1	9
526.120	1	1
526.290	1	1
526.460	1	18
526.630	1	13
526.800	1	8
526.970	1	1
527.140	1	4
527.311	1	1
527.481	1	-3
527.651	1	-5
527.821	1	6
527.991	1	-2
528.161	1	9
528.331	1	14
528.501	1	6
528.671	1	1
528.841	1	2
529.011	1	2
529.181	1	0
529.352	1	9
529.522	1	7
529.692	1	-7
529.862	1	0
530.032	1	12
530.202	1	-1
530.372	1	0
530.542	1	0
530.712	1	18
530.882	1	-4
531.052	1	6
531.222	1	3
531.392	1	3
531.563	1	-3
531.733	1	-7
531.903	1	2
532.073	1	-1
532.243	1	10
532.413	1	8
532.583	1	2
532.753	1	12
532.923	1	2
533.093	1	14
533.263	1	15
533.433	1	-4
533.603	1	-1
533.773	1	-4
533.943	1	12
534.113	1	3
534.284	1	-7
534.454	1	5
534.624	1	13
534.794	1	6
534.964	1	6
535.134	1	7
535.304	1	9
535.474	1	1
535.644	1	8
535.814	1	2
535.984	1	6
536.154	1	14
536.324	1	2
536.494	1	12
536.664	1	1
536.834	1	6
537.004	1	-5
537.174	1	19
537.344	1	2
537.514	1	5
537.685	1	11
537.855	1	16
538.025	1	2
538.195	1	4
538.365	1	8
538.535	1	1
538.705	1	0
538.875	1	5
539.045	1	2
539.215	1	8
539.385	1	3
539.555	1	0
539.725	1	1
539.895	1	5
540.065	1	0
540.235	1	2
540.405	1	3
540.575	1	-7
540.745	1	5
540.915	1	-5
541.085	1	1
541.255	1	-3
541.425	1	8
541.595	1	17
541.765	1	2
541.935	1	0
542.105	1	11
542.275	1	4
542.445	1	5
542.615	1	2
542.785	1	-1
542.955	1	-1
543.125	1	2
543.295	1	-2
543.465	1	2
543.635	1	7
543.805	1	-2
543.975	1	2
544.145	1	0
544.315	1	4
544.485	1	9
544.655	1	2
544.825	1	-1
544.995	1	0
545.165	1	7
545.335	1	1
545.505	1	7
545.675	1	5
545.845	1	2
546.015	1	-3
546.185	1	6
546.355	1	0
546.525	1	1
546.695	1	9
546.865	1	-6
547.035	1	7
547.205	1	3
547.375	1	-2
547.545	1	0
547.715	1	0
547.885	1	-1
548.055	1	8
548.225	1	-7
548.395	1	13
548.565	1	-5
548.735	1	8
548.905	1	-7
549.075	1	0
549.245	1	6
549.415	1	-11
549.585	1	-5
549.755	1	11
549.925	1	10
550.095	1	15
550.265	1	-3
550.435	1	2
550.605	1	-3
550.775	1	16
550.945	1	-2
551.115	1	7
551.285	1	5
551.455	1	4
551.625	1	-2
551.795	1	2
551.965	1	6
552.135	1	10
552.305	1	-2
552.475	1	1
552.645	1	3
552.815	1	5
552.985	1	13
553.155	1	8
553.325	1	1
553.495	1	-5
553.665	1	1
553.835	1	12
554.004	1	13
554.174	1	-1
554.344	1	-2
554.514	1	-7
554.684	1	8
554.854	1	1
555.024	1	6
555.194	1	8
555.364	1	1
555.534	1	11
555.704	1	2
555.874	1	13
556.044	1	20
556.214	1	-8
556.384	1	5
556.554	1	-3
556.724	1	3
556.894	1	11
557.064	1	11
557.234	1	3
557.404	1	14
557.573	1	-1
557.743	1	-5
557.913	1	5
558.083	1	4
558.253	1	3
558.423	1	-11
558.593	1	14
558.763	1	5
558.933	1	14
559.103	1	6
559.273	1	11
559.443	1	-2
559.613	1	6
559.783	1	6
559.953	1	2
560.122	1	-3
560.292	1	-3
560.462	1	11
560.632	1	0
560.802	1	12
560.972	1	-5
561.142	1	-2
561.312	1	-4
561.482	1	11
561.652	1	-2
561.822	1	10
561.992	1	-7
562.162	1	-2
562.331	1	4
562.501	1	1
562.671	1	2
562.841	1	-6
563.011	1	-6
563.181	1	5
563.351	1	6
563.521	1	5
563.691	1	-4
563.861	1	2
564.031	1	10
564.201	1	16
564.370	1	-1
564.540	1	16
564.710	1	-2
564.880	1	4
565.050	1	2
565.220	1	5
565.390	1	5
565.560	1	12
565.730	1	-6
565.900	1	0
566.069	1	-2
566.239	1	0
566.409	1	3
566.579	1	11
566.749	1	6
566.919	1	9
567.089	1	13
567.259	1	-5
567.429	1	-9
567.599	1	2
567.768	1	15
567.938	1	0
568.108	1	2
568.278	1	-2
568.448	1	2
568.618	1	-4
568.788	1	15
568.958	1	7
569.128	1	13
569.297	1	-12
569.467	1	4
569.637	1	4
569.807	1	-3
569.977	1	6
570.147	1	3
570.317	1	-12
570.487	1	-4
570.656	1	9
570.826	1	-3
570.996	1	9
571.166	1	2
571.336	1	0
571.506	1	-4
571.676	1	5
571.846	1	6
572.015	1	5
572.185	1	9
572.355	1	4
572.525	1	2
572.695	1	4
572.865	1	2
573.035	1	6
573.205	1	-7
573.374	1	14
573.544	1	7
573.714	1	10
573.884	1	6
574.054	1	7
574.224	1	2
574.394	1	5
574.563	1	6
574.733	1	3
574.903	1	2
575.073	1	-9
575.243	1	0
575.413	1	8
575.583	1	10
575.752	1	8
575.922	1	-9
576.092	1	3
576.262	1	4
576.432	1	-5
576.602	1	-8
576.772	1	3
576.941	1	5
577.111	1	4
577.281	1	2
577.451	1	-1
577.621	1	8
577.791	1	4
577.960	1	4
578.130	1	1
578.300	1	-15
578.470	1	8
578.640	1	5
578.810	1	-5
578.979	1	5
579.149	1	12
579.319	1	10
579.489	1	7
579.659	1	1
579.829	1	-6
579.998	1	11
580.168	1	0
580.338	1	7
580.508	1	1
580.678	1	9
580.848	1	6
581.017	1	14
581.187	1	1
581.357	1	-8
581.527	1	5
581.697	1	0
581.867	1	-2
582.036	1	5
582.206	1	2
582.376	1	8
582.546	1	-2
582.716	1	4
582.885	1	-9
583.055	1	11
583.225	1	0
583.395	1	6
583.565	1	5
583.735	1	5
583.904	1	0
584.074	1	0
584.244	1	16
584.414	1	0
584.584	1	3
584.753	1	0
584.923	1	-9
585.093	1	-4
585.263	1	8
585.433	1	0
585.602	1	8
585.772	1	-1
585.942	1	7
586.112	1	-3
586.282	1	7
586.451	1	2
586.621	1	9
586.791	1	2
586.961	1	6
587.131	1	2
587.300	1	12
587.470	1	-1
587.640	1	-2
587.810	1	-4
587.980	1	-5
588.149	1	5
588.319	1	2
588.489	1	0
588.659	1	3
588.829	1	1
588.998	1	11
589.168	1	10
589.338	1	12
589.508	1	2
589.677	1	15
589.847	1	-11
590.017	1	8
590.187	1	2
590.357	1	1
590.526	1	16
590.696	1	-1
590.866	1	9
591.036	1	-9
591.205	1	-1
591.375	1	4
591.545	1	3
591.715	1	9
591.885	1	-7
592.054	1	11
592.224	1	2
592.394	1	6
592.564	1	4
592.733	1	5
592.903	1	-3
593.073	1	4
593.243	1	-1
593.412	1	2
593.582	1	-2
593.752	1	8
593.922	1	9
594.091	1	9
594.261	1	9
594.431	1	0
594.601	1	4
594.771	1	-4
594.940	1	-6
595.110	1	3
595.280	1	2
595.450	1	-1
595.619	1	8
595.789	1	1
595.959	1	6
596.129	1	-5
596.298	1	0
596.468	1	3
596.638	1	-9
596.808	1	6
596.977	1	4
597.147	1	-2
597.317	1	3
597.487	1	1
597.656	1	11
597.826	1	10
597.996	1	4
598.166	1	10
598.335	1	1
598.505	1	7
598.675	1	10
598.844	1	5
599.014	1	11
599.184	1	1
599.354	1	7
599.523	1	8
599.693	1	6
599.863	1	-5
600.033	1	-6
600.202	1	8
600.372	1	8
600.542	1	7
600.712	1	1
600.881	1	1
601.051	1	-6
601.221	1	13
601.390	1	14
601.560	1	7
601.730	1	4
601.900	1	2
602.069	1	-2
602.239	1	3
602.409	1	5
602.578	1	1
602.748	1	-1
602.918	1	-3
603.088	1	-4
603.257	1	2
603.427	1	16
603.597	1	20
603.767	1	-1
603.936	1	8
604.106	1	0
604.276	1	-1
604.445	1	3
604.615	1	-7
604.785	1	-8
604.954	1	-11
605.124	1	1
605.294	1	2
605.464	1	-7
605.633	1	-5
605.803	1	1
605.973	1	4
606.142	1	7
606.312	1	-7
606.482	1	7
606.652	1	5
606.821	1	-2
606.991	1	10
607.161	1	-1
607.330	1	10
607.500	1	10
607.670	1	10
607.839	1	0
608.009	1	4
608.179	1	3
608.348	1	3
608.518	1	-3
608.688	1	-1
608.858	1	3
609.027	1	-7
609.197	1	0
609.367	1	9
609.536	1	2
609.706	1	10
609.876	1	-1
610.045	1	3
610.215	1	1
610.385	1	-9
610.554	1	6
610.724	1	-1
610.894	1	17
611.063	1	-3
611.233	1	-1
611.403	1	8
611.572	1	10
611.742	1	0
611.912	1	-7
612.081	1	-8
612.251	1	12
612.421	1	-7
612.590	1	-5
612.760	1	-2
612.930	1	-4
613.099	1	5
613.269	1	0
613.439	1	2
613.608	1	17
613.778	1	14
613.948	1	5
614.117	1	7
614.287	1	5
614.457	1	5
614.626	1	6
614.796	1	10
614.966	1	10
615.135	1	9
615.305	1	0
615.475	1	-7
615.644	1	0
615.814	1	-5
615.984	1	20
616.153	1	7
616.323	1	14
616.493	1	-8
616.662	1	6
616.832	1	14
617.002	1	5
617.171	1	5
617.341	1	5
617.511	1	6
617.680	1	13
617.850	1	5
618.019	1	-4
618.189	1	-2
618.359	1	6
618.528	1	4
618.698	1	4
618.868	1	-6
619.037	1	0
619.207	1	4
619.377	1	0
619.546	1	6
619.716	1	6
619.885	1	4
620.055	1	0
620.225	1	3
620.394	1	3
620.564	1	1
620.734	1	5
620.903	1	8
621.073	1	10
621.242	1	1
621.412	1	8
621.582	1	0
621.751	1	-9
621.921	1	-1
622.091	1	13
622.260	1	-1
622.430	1	5
622.599	1	9
622.769	1	1
622.939	1	6
623.108	1	-4
623.278	1	6
623.448	1	-6
623.617	1	-5
623.787	1	-2
623.956	1	12
624.126	1	9
624.296	1	12
624.465	1	18
624.635	1	18
624.804	1	4
624.974	1	5
625.144	1	5
625.313	1	0
625.483	1	3
625.652	1	1
625.822	1	-1
625.992	1	9
626.161	1	13
626.331	1	-2
626.501	1	13
626.670	1	0
626.840	1	1
627.009	1	4
627.179	1	-1
627.348	1	-1
627.518	1	5
627.688	1	10
627.857	1	17
628.027	1	9
628.196	1	4
628.366	1	9
628.536	1	-7
628.705	1	3
628.875	1	6
629.044	1	-1
629.214	1	-1
629.384	1	7
629.553	1	-2
629.723	1	-6
629.892	1	0
630.062	1	4
630.232	1	4
630.401	1	6
630.571	1	11
630.740	1	6
630.910	1	0
631.079	1	7
631.249	1	1
631.419	1	7
631.588	1	1
631.758	1	12
631.927	1	-1
632.097	1	2
632.266	1	4
632.436	1	2
632.606	1	-5
632.775	1	11
632.945	1	-8
633.114	1	0
633.284	1	-4
633.453	1	8
633.623	1	-1
633.793	1	15
633.962	1	15
634.132	1	6
634.301	1	0
634.471	1	10
634.640	1	6
634.810	1	1
634.979	1	-8
635.149	1	4
635.319	1	5
635.488	1	2
635.658	1	15
635.827	1	8
635.997	1	14
636.166	1	-3
636.336	1	6
636.505	1	-11
636.675	1	4
636.845	1	0
637.014	1	20
637.184	1	0
637.353	1	7
637.523	1	14
637.692	1	6
637.862	1	8
638.031	1	-1
638.201	1	-1
638.370	1	9
638.540	1	4
638.710	1	-3
638.879	1	9
639.049	1	-4
639.218	1	9
639.388	1	10
639.557	1	-2
639.727	1	4
639.896	1	4
640.066	1	6
640.235	1	10
640.405	1	2
640.574	1	-3
640.744	1	17
640.914	1	-10
641.083	1	21
641.253	1	5
641.422	1	2
641.592	1	3
641.761	1	2
641.931	1	0
642.100	1	-3
642.270	1	1
642.439	1	1
642.609	1	-3
642.778	1	-1
642.948	1	8
643.117	1	2
643.287	1	2
643.456	1	4
643.626	1	16
643.795	1	7
643.965	1	10
644.134	1	4
644.304	1	2
644.473	1	3
644.643	1	1
644.812	1	-2
644.982	1	4
645.151	1	7
645.321	1	0
645.490	1	10
645.660	1	0
645.829	1	-1
645.999	1	7
646.168	1	10
646.338	1	2
646.507	1	4
646.677	1	-2
646.846	1	9
647.016	1	5
647.185	1	6
647.355	1	10
647.524	1	-1
647.694	1	3
647.863	1	1
648.033	1	-1
648.202	1	10
648.372	1	4
648.541	1	-3
648.711	1	5
648.880	1	10
649.050	1	2
649.219	1	2
649.389	1	3
649.558	1	0
649.728	1	12
649.897	1	6
650.067	1	7
650.236	1	5
650.406	1	10
650.575	1	-4
650.745	1	15
650.914	1	-11
651.084	1	7
651.253	1	12
651.423	1	2
651.592	1	1
651.762	1	7
651.931	1	6
652.101	1	-1
652.270	1	-10
652.440	1	1
652.609	1	5
652.778	1	9
652.948	1	-6
653.117	1	10
653.287	1	-5
653.456	1	1
653.626	1	6
653.795	1	3
653.965	1	0
654.134	1	5
654.304	1	0
654.473	1	6
654.643	1	-10
654.812	1	8
654.982	1	3
655.151	1	4
655.320	1	4
655.490	1	-5
655.659	1	11
655.829	1	10
655.998	1	11
656.168	1	4
656.337	1	2
656.507	1	-1
656.676	1	1
656.846	1	5
657.015	1	5
657.184	1	7
657.354	1	7
657.523	1	0
657.693	1	-5
657.862	1	2
658.032	1	12
658.201	1	4
658.371	1	-5
658.540	1	-1
658.709	1	-8
658.879	1	2
659.048	1	13
659.218	1	3
659.387	1	-4
659.557	1	6
659.726	1	8
659.895	1	1
660.065	1	-7
660.234	1	12
660.404	1	0
660.573	1	-8
660.743	1	-2
660.912	1	14
661.081	1	7
661.251	1	-1
661.420	1	12
661.590	1	0
661.759	1	-3
661.929	1	-1
662.098	1	4
662.267	1	0
662.437	1	-6
662.606	1	5
662.776	1	10
662.945	1	3
663.115	1	1
663.284	1	9
663.453	1	0
663.623	1	-8
663.792	1	1
663.962	1	-3
664.131	1	14
664.300	1	9
664.470	1	16
664.639	1	-7
664.809	1	-4
664.978	1	3
665.148	1	3
665.317	1	-8
665.486	1	11
665.656	1	0
665.825	1	8
665.995	1	-1
666.164	1	5
666.333	1	1
666.503	1	7
666.672	1	16
666.842	1	10
667.011	1	9
667.180	1	5
667.350	1	12
667.519	1	1
667.689	1	10
667.858	1	0
668.027	1	-5
668.197	1	5
668.366	1	8
668.536	1	5
668.705	1	5
668.874	1	-4
669.044	1	-2
669.213	1	6
669.382	1	-2
669.552	1	7
669.721	1	5
669.891	1	1
670.060	1	2
670.229	1	-4
670.399	1	-1
670.568	1	11
670.738	1	6
670.907	1	12
671.076	1	2
671.246	1	-2
671.415	1	-3
671.584	1	6
671.754	1	2
671.923	1	1
672.093	1	3
672.262	1	8
672.431	1	6
672.601	1	3
672.770	1	1
672.939	1	7
673.109	1	8
673.278	1	-1
673.448	1	4
673.617	1	-11
673.786	1	5
