325.333	1	8
325.504	1	3
325.675	1	-5
325.846	1	1
326.017	1	10
326.188	1	6
326.359	1	4
326.531	1	11
326.702	1	8
326.873	1	7
327.044	1	-3
327.215	1	8
327.386	1	0
327.557	1	2
327.728	1	2
327.899	1	5
328.070	1	3
328.241	1	12
328.412	1	9
328.583	1	-6
328.754	1	1
328.926	1	4
329.097	1	3
329.268	1	-8
329.439	1	11
329.610	1	1
329.781	1	8
329.952	1	-1
330.123	1	1
330.294	1	12
330.465	1	9
330.636	1	9
330.807	1	8
330.978	1	6
331.149	1	5
331.320	1	1
331.492	1	15
331.663	1	9
331.834	1	7
332.005	1	-1
332.176	1	17
332.347	1	-3
332.518	1	12
332.689	1	5
332.860	1	0
333.031	1	6
333.202	1	-3
333.373	1	10
333.544	1	8
333.715	1	1
333.886	1	12
334.057	1	6
334.228	1	3
334.399	1	-4
334.570	1	15
334.741	1	-12
334.912	1	9
335.084	1	8
335.255	1	18
335.426	1	2
335.597	1	1
335.768	1	5
335.939	1	-3
336.110	1	11
336.281	1	2
336.452	1	8
336.623	1	4
336.794	1	3
336.965	1	4
337.136	1	-2
337.307	1	1
337.478	1	6
337.649	1	-8
337.820	1	9
337.991	1	2
338.162	1	-7
338.333	1	4
338.504	1	17
338.675	1	5
338.846	1	11
339.017	1	1
339.188	1	16
339.359	1	2
339.530	1	3
339.701	1	5
339.872	1	7
340.043	1	2
340.214	1	2
340.385	1	6
340.556	1	12
340.727	1	14
340.898	1	3
341.069	1	12
341.240	1	-1
341.411	1	3
341.582	1	11
341.753	1	1
341.924	1	6
342.095	1	9
342.266	1	2
342.437	1	22
342.608	1	1
342.779	1	2
342.950	1	10
343.121	1	-4
343.292	1	10
343.463	1	4
343.634	1	12
343.805	1	0
343.976	1	2
344.147	1	10
344.318	1	7
344.489	1	4
344.660	1	7
344.831	1	10
345.002	1	4
345.173	1	18
345.344	1	10
345.515	1	1
345.686	1	6
345.857	1	15
346.028	1	11
346.199	1	1
346.370	1	9
346.541	1	14
346.712	1	2
346.883	1	4
347.054	1	10
347.225	1	1
347.396	1	4
347.567	1	7
347.738	1	-10
347.909	1	8
348.080	1	6
348.251	1	7
348.422	1	-2
348.593	1	4
348.764	1	5
348.935	1	-3
349.106	1	-4
349.277	1	4
349.448	1	-1
349.619	1	-3
349.790	1	2
349.961	1	13
350.132	1	9
350.303	1	2
350.474	1	8
350.645	1	7
350.816	1	6
350.987	1	13
351.157	1	-8
351.328	1	4
351.499	1	6
351.670	1	-2
351.841	1	8
352.012	1	3
352.183	1	6
352.354	1	8
352.525	1	10
352.696	1	5
352.867	1	3
353.038	1	1
353.209	1	7
353.380	1	9
353.551	1	7
353.722	1	-2
353.893	1	-3
354.064	1	9
354.235	1	6
354.406	1	13
354.576	1	-1
354.747	1	13
354.918	1	10
355.089	1	8
355.260	1	4
355.431	1	6
355.602	1	3
355.773	1	-7
355.944	1	7
356.115	1	10
356.286	1	-2
356.457	1	12
356.628	1	9
356.799	1	13
356.970	1	4
357.141	1	-1
357.311	1	6
357.482	1	6
357.653	1	-1
357.824	1	0
357.995	1	24
358.166	1	17
358.337	1	8
358.508	1	-5
358.679	1	8
358.850	1	13
359.021	1	4
359.192	1	10
359.363	1	5
359.533	1	7
359.704	1	1
359.875	1	-1
360.046	1	2
360.217	1	12
360.388	1	6
360.559	1	16
360.730	1	10
360.901	1	6
361.072	1	4
361.243	1	11
361.414	1	-4
361.584	1	-1
361.755	1	5
361.926	1	3
362.097	1	16
362.268	1	9
362.439	1	7
362.610	1	4
362.781	1	1
362.952	1	0
363.123	1	-4
363.293	1	15
363.464	1	9
363.635	1	6
363.806	1	7
363.977	1	2
364.148	1	6
364.319	1	22
364.490	1	10
364.661	1	7
364.832	1	-1
365.002	1	2
365.173	1	3
365.344	1	10
365.515	1	4
365.686	1	-1
365.857	1	14
366.028	1	-7
366.199	1	9
366.370	1	10
366.540	1	7
366.711	1	7
366.882	1	7
367.053	1	-2
367.224	1	9
367.395	1	5
367.566	1	1
367.737	1	8
367.908	1	18
368.078	1	-2
368.249	1	13
368.420	1	4
368.591	1	-1
368.762	1	3
368.933	1	5
369.104	1	9
369.274	1	3
369.445	1	16
369.616	1	-2
369.787	1	-12
369.958	1	-1
370.129	1	12
370.300	1	13
370.471	1	-1
370.641	1	0
370.812	1	10
370.983	1	6
371.154	1	13
371.325	1	-8
371.496	1	-4
371.667	1	4
371.837	1	9
372.008	1	15
372.179	1	3
372.350	1	6
372.521	1	3
372.692	1	13
372.863	1	10
373.033	1	-1
373.204	1	3
373.375	1	0
373.546	1	0
373.717	1	-3
373.888	1	9
374.059	1	4
374.229	1	5
374.400	1	10
374.571	1	-4
374.742	1	4
374.913	1	1
375.084	1	1
375.254	1	4
375.425	1	8
375.596	1	-4
375.767	1	10
375.938	1	-1
376.109	1	9
376.279	1	-1
376.450	1	21
376.621	1	9
376.792	1	12
376.963	1	-5
377.134	1	7
377.304	1	7
377.475	1	3
377.646	1	3
377.817	1	6
377.988	1	3
378.159	1	1
378.329	1	9
378.500	1	9
378.671	1	10
378.842	1	12
379.013	1	13
379.184	1	12
379.354	1	3
379.525	1	7
379.696	1	17
379.867	1	8
380.038	1	13
380.209	1	13
380.379	1	0
380.550	1	2
380.721	1	19
380.892	1	0
381.063	1	-4
381.233	1	2
381.404	1	8
381.575	1	6
381.746	1	6
381.917	1	7
382.087	1	13
382.258	1	3
382.429	1	3
382.600	1	14
382.771	1	2
382.941	1	6
383.112	1	4
383.283	1	5
383.454	1	11
383.625	1	13
383.795	1	19
383.966	1	5
384.137	1	8
384.308	1	2
384.479	1	10
384.649	1	-1
384.820	1	6
384.991	1	19
385.162	1	10
385.333	1	4
385.503	1	-3
385.674	1	12
385.845	1	13
386.016	1	14
386.187	1	6
386.357	1	17
386.528	1	6
386.699	1	12
386.870	1	-6
387.041	1	9
387.211	1	5
387.382	1	11
387.553	1	5
387.724	1	0
387.894	1	16
388.065	1	10
388.236	1	5
388.407	1	10
388.578	1	11
388.748	1	4
388.919	1	9
389.090	1	13
389.261	1	5
389.431	1	6
389.602	1	8
389.773	1	6
389.944	1	15
390.114	1	12
390.285	1	9
390.456	1	9
390.627	1	6
390.798	1	-1
390.968	1	-9
391.139	1	15
391.310	1	16
391.481	1	8
391.651	1	2
391.822	1	19
391.993	1	13
392.164	1	1
392.334	1	0
392.505	1	5
392.676	1	6
392.847	1	4
393.017	1	9
393.188	1	4
393.359	1	6
393.530	1	5
393.700	1	6
393.871	1	16
394.042	1	1
394.213	1	9
394.383	1	16
394.554	1	11
394.725	1	8
394.896	1	12
395.066	1	11
395.237	1	7
395.408	1	-1
395.579	1	4
395.749	1	6
395.920	1	6
396.091	1	17
396.262	1	16
396.432	1	6
396.603	1	7
396.774	1	-5
396.945	1	6
397.115	1	13
397.286	1	-1
397.457	1	4
397.627	1	13
397.798	1	17
397.969	1	7
398.140	1	8
398.310	1	20
398.481	1	10
398.652	1	15
398.823	1	6
398.993	1	5
399.164	1	9
399.335	1	20
399.505	1	16
399.676	1	13
399.847	1	15
400.018	1	14
400.188	1	6
400.359	1	11
400.530	1	12
400.700	1	19
400.871	1	13
401.042	1	9
401.213	1	7
401.383	1	-2
401.554	1	6
401.725	1	12
401.895	1	15
402.066	1	8
402.237	1	1
402.408	1	11
402.578	1	8
402.749	1	19
402.920	1	13
403.090	1	20
403.261	1	28
403.432	1	14
403.603	1	7
403.773	1	19
403.944	1	11
404.115	1	5
404.285	1	7
404.456	1	9
404.627	1	12
404.797	1	8
404.968	1	10
405.139	1	10
405.310	1	8
405.480	1	3
405.651	1	-2
405.822	1	12
405.992	1	16
406.163	1	7
406.334	1	14
406.504	1	9
406.675	1	6
406.846	1	5
407.016	1	18
407.187	1	8
407.358	1	13
407.528	1	3
407.699	1	-5
407.870	1	10
408.041	1	20
408.211	1	2
408.382	1	19
408.553	1	11
408.723	1	4
408.894	1	9
409.065	1	5
409.235	1	8
409.406	1	7
409.577	1	16
409.747	1	20
409.918	1	11
410.089	1	14
410.259	1	17
410.430	1	9
410.601	1	7
410.771	1	4
410.942	1	16
411.113	1	21
411.283	1	14
411.454	1	7
411.625	1	5
411.795	1	14
411.966	1	10
412.137	1	19
412.307	1	19
412.478	1	4
412.649	1	10
412.819	1	17
412.990	1	13
413.161	1	17
413.331	1	6
413.502	1	15
413.672	1	7
413.843	1	4
414.014	1	23
414.184	1	6
414.355	1	17
414.526	1	-14
414.696	1	17
414.867	1	1
415.038	1	12
415.208	1	7
415.379	1	8
415.550	1	7
415.720	1	7
415.891	1	-4
416.062	1	12
416.232	1	11
416.403	1	10
416.573	1	10
416.744	1	2
416.915	1	-3
417.085	1	8
417.256	1	9
417.427	1	10
417.597	1	10
417.768	1	15
417.939	1	9
418.109	1	14
418.280	1	9
418.450	1	13
418.621	1	4
418.792	1	7
418.962	1	8
419.133	1	9
419.304	1	6
419.474	1	11
419.645	1	8
419.815	1	5
419.986	1	19
420.157	1	18
420.327	1	13
420.498	1	12
420.669	1	5
420.839	1	12
421.010	1	4
421.180	1	9
421.351	1	16
421.522	1	22
421.692	1	6
421.863	1	2
422.033	1	17
422.204	1	10
422.375	1	13
422.545	1	10
422.716	1	12
422.886	1	6
423.057	1	28
423.228	1	11
423.398	1	3
423.569	1	11
423.740	1	8
423.910	1	12
424.081	1	15
424.251	1	13
424.422	1	9
424.593	1	20
424.763	1	11
424.934	1	11
425.104	1	8
425.275	1	6
425.445	1	9
425.616	1	15
425.787	1	-3
425.957	1	5
426.128	1	10
426.298	1	4
426.469	1	15
426.640	1	4
426.810	1	17
426.981	1	13
427.151	1	9
427.322	1	9
427.493	1	4
427.663	1	4
427.834	1	3
428.004	1	6
428.175	1	-3
428.345	1	6
428.516	1	8
428.687	1	7
428.857	1	21
429.028	1	6
429.198	1	2
429.369	1	-6
429.540	1	8
429.710	1	15
429.881	1	19
430.051	1	9
430.222	1	14
430.392	1	20
430.563	1	13
430.734	1	8
430.904	1	8
431.075	1	3
431.245	1	2
431.416	1	8
431.586	1	10
431.757	1	20
431.927	1	13
432.098	1	12
432.269	1	16
432.439	1	7
432.610	1	10
432.780	1	-10
432.951	1	24
433.121	1	4
433.292	1	18
433.462	1	8
433.633	1	22
433.804	1	-2
433.974	1	3
434.145	1	10
434.315	1	11
434.486	1	6
434.656	1	12
434.827	1	10
434.997	1	7
435.168	1	12
435.339	1	4
435.509	1	5
435.680	1	23
435.850	1	4
436.021	1	2
436.191	1	7
436.362	1	8
436.532	1	16
436.703	1	10
436.873	1	11
437.044	1	10
437.214	1	11
437.385	1	27
437.556	1	3
437.726	1	14
437.897	1	1
438.067	1	17
438.238	1	17
438.408	1	12
438.579	1	24
438.749	1	-1
438.920	1	6
439.090	1	11
439.261	1	10
439.431	1	19
439.602	1	15
439.772	1	16
439.943	1	6
440.113	1	12
440.284	1	18
440.455	1	12
440.625	1	19
440.796	1	19
440.966	1	14
441.137	1	12
441.307	1	18
441.478	1	14
441.648	1	11
441.819	1	5
441.989	1	13
442.160	1	17
442.330	1	3
442.501	1	2
442.671	1	13
442.842	1	20
443.012	1	5
443.183	1	6
443.353	1	14
443.524	1	8
443.694	1	12
443.865	1	7
444.035	1	6
444.206	1	9
444.376	1	11
444.547	1	9
444.717	1	13
444.888	1	17
445.058	1	4
445.229	1	13
445.399	1	12
445.570	1	0
445.740	1	7
445.911	1	3
446.081	1	11
446.252	1	8
446.422	1	9
446.593	1	16
446.763	1	17
446.934	1	11
447.104	1	7
447.275	1	23
447.445	1	12
447.616	1	0
447.786	1	15
447.957	1	10
448.127	1	12
448.298	1	10
448.468	1	11
448.639	1	11
448.809	1	7
448.979	1	16
449.150	1	20
449.320	1	18
449.491	1	4
449.661	1	5
449.832	1	12
450.002	1	17
450.173	1	21
450.343	1	10
450.514	1	12
450.684	1	5
450.855	1	4
451.025	1	10
451.196	1	-5
451.366	1	15
451.537	1	-2
451.707	1	21
451.878	1	6
452.048	1	9
452.218	1	4
452.389	1	5
452.559	1	5
452.730	1	7
452.900	1	7
453.071	1	10
453.241	1	10
453.412	1	11
453.582	1	7
453.753	1	6
453.923	1	12
454.093	1	11
454.264	1	17
454.434	1	5
454.605	1	11
454.775	1	-7
454.946	1	8
455.116	1	3
455.287	1	19
455.457	1	6
455.628	1	3
455.798	1	2
455.968	1	0
456.139	1	6
456.309	1	14
456.480	1	0
456.650	1	9
456.821	1	5
456.991	1	15
457.161	1	5
457.332	1	-3
457.502	1	7
457.673	1	-1
457.843	1	4
458.014	1	2
458.184	1	10
458.355	1	19
458.525	1	6
458.695	1	13
458.866	1	16
459.036	1	0
459.207	1	2
459.377	1	6
459.548	1	2
459.718	1	9
459.888	1	15
460.059	1	18
460.229	1	18
460.400	1	1
460.570	1	10
460.740	1	0
460.911	1	6
461.081	1	4
461.252	1	7
461.422	1	9
461.593	1	4
461.763	1	2
461.933	1	15
462.104	1	7
462.274	1	0
462.445	1	-3
462.615	1	7
462.785	1	9
462.956	1	6
463.126	1	16
463.297	1	6
463.467	1	21
463.638	1	5
463.808	1	6
463.978	1	0
464.149	1	6
464.319	1	-6
464.490	1	6
464.660	1	13
464.830	1	9
465.001	1	14
465.171	1	16
465.342	1	19
465.512	1	10
465.682	1	5
465.853	1	8
466.023	1	1
466.194	1	14
466.364	1	0
466.534	1	10
466.705	1	17
466.875	1	10
467.045	1	6
467.216	1	15
467.386	1	16
467.557	1	3
467.727	1	4
467.897	1	2
468.068	1	16
468.238	1	3
468.409	1	1
468.579	1	16
468.749	1	10
468.920	1	7
469.090	1	11
469.260	1	8
469.431	1	-4
469.601	1	5
469.772	1	13
469.942	1	14
470.112	1	6
470.283	1	7
470.453	1	6
470.623	1	3
470.794	1	4
470.964	1	8
471.135	1	19
471.305	1	5
471.475	1	5
471.646	1	14
471.816	1	7
471.986	1	3
472.157	1	10
472.327	1	7
472.497	1	10
472.668	1	1
472.838	1	0
473.009	1	2
473.179	1	8
473.349	1	8
473.520	1	3
473.690	1	11
473.860	1	4
474.031	1	5
474.201	1	5
474.371	1	15
474.542	1	15
474.712	1	3
474.882	1	-6
475.053	1	5
475.223	1	5
475.394	1	14
475.564	1	-2
475.734	1	8
475.905	1	1
476.075	1	13
476.245	1	6
476.416	1	11
476.586	1	3
476.756	1	4
476.927	1	2
477.097	1	14
477.267	1	8
477.438	1	5
477.608	1	0
477.778	1	14
477.949	1	6
478.119	1	0
478.289	1	13
478.460	1	6
478.630	1	4
478.800	1	6
478.971	1	5
479.141	1	4
479.311	1	-3
479.482	1	5
479.652	1	6
479.822	1	2
479.993	1	11
480.163	1	5
480.333	1	5
480.504	1	-2
480.674	1	17
480.844	1	8
481.015	1	7
481.185	1	0
481.355	1	10
481.525	1	5
481.696	1	0
481.866	1	7
482.036	1	-2
482.207	1	8
482.377	1	-1
482.547	1	4
482.718	1	7
482.888	1	8
483.058	1	2
483.229	1	8
483.399	1	0
483.569	1	11
483.740	1	6
483.910	1	17
484.080	1	17
484.250	1	4
484.421	1	2
484.591	1	9
484.761	1	18
484.932	1	-2
485.102	1	13
485.272	1	7
485.443	1	4
485.613	1	3
485.783	1	10
485.953	1	-3
486.124	1	15
486.294	1	18
486.464	1	11
486.635	1	8
486.805	1	10
486.975	1	-6
487.146	1	-6
487.316	1	11
487.486	1	7
487.656	1	3
487.827	1	6
487.997	1	20
488.167	1	-3
488.338	1	18
488.508	1	8
488.678	1	5
488.848	1	-2
489.019	1	-1
489.189	1	4
489.359	1	2
489.529	1	11
489.700	1	11
489.870	1	10
490.040	1	13
490.211	1	14
490.381	1	-2
490.551	1	9
490.721	1	0
490.892	1	9
491.062	1	6
491.232	1	6
491.402	1	25
491.573	1	7
491.743	1	8
491.913	1	10
492.084	1	9
492.254	1	-4
492.424	1	3
492.594	1	6
492.765	1	-1
492.935	1	3
493.105	1	16
493.275	1	6
493.446	1	16
493.616	1	14
493.786	1	11
493.956	1	6
494.127	1	14
494.297	1	13
494.467	1	-2
494.637	1	4
494.808	1	3
494.978	1	10
495.148	1	7
495.318	1	3
495.489	1	9
495.659	1	6
495.829	1	5
495.999	1	-7
496.170	1	6
496.340	1	1
496.510	1	18
496.680	1	0
496.851	1	15
497.021	1	2
497.191	1	14
497.361	1	9
497.532	1	19
497.702	1	-3
497.872	1	8
498.042	1	3
498.213	1	7
498.383	1	1
498.553	1	8
498.723	1	9
498.894	1	3
499.064	1	7
499.234	1	15
499.404	1	-4
499.574	1	3
499.745	1	4
499.915	1	5
500.085	1	15
500.255	1	3
500.426	1	-8
500.596	1	0
500.766	1	12
500.936	1	3
501.106	1	2
501.277	1	10
501.447	1	11
501.617	1	15
501.787	1	15
501.958	1	16
502.128	1	12
502.298	1	0
502.468	1	11
502.638	1	-2
502.809	1	12
502.979	1	5
503.149	1	-2
503.319	1	2
503.489	1	6
503.660	1	4
503.830	1	6
504.000	1	6
504.170	1	10
504.340	1	4
504.511	1	9
504.681	1	8
504.851	1	-2
505.021	1	2
505.192	1	16
505.362	1	3
505.532	1	-1
505.702	1	6
505.872	1	3
506.043	1	15
506.213	1	0
506.383	1	1
506.553	1	11
506.723	1	-6
506.893	1	-2
507.064	1	7
507.234	1	1
507.404	1	0
507.574	1	13
507.744	1	13
507.915	1	5
508.085	1	-1
508.255	1	5
508.425	1	-5
508.595	1	-3
508.766	1	-4
508.936	1	-5
509.106	1	7
509.276	1	3
509.446	1	12
509.616	1	9
509.787	1	-4
509.957	1	10
510.127	1	-6
510.297	1	4
510.467	1	3
510.638	1	9
510.808	1	-2
510.978	1	7
511.148	1	9
511.318	1	5
511.488	1	11
511.659	1	7
511.829	1	-2
511.999	1	7
512.169	1	14
512.339	1	2
512.509	1	2
512.680	1	4
512.850	1	14
513.020	1	9
513.190	1	-7
513.360	1	11
513.530	1	16
513.700	1	17
513.871	1	1
514.041	1	-2
514.211	1	2
514.381	1	-2
514.551	1	5
514.721	1	5
514.892	1	7
515.062	1	4
515.232	1	1
515.402	1	1
515.572	1	-3
515.742	1	3
515.912	1	8
516.083	1	5
516.253	1	7
516.423	1	7
516.593	1	-3
516.763	1	-3
516.933	1	-7
517.104	1	6
517.274	1	1
517.444	1	13
517.614	1	6
517.784	1	1
517.954	1	8
518.124	1	7
518.294	1	12
518.465	1	-1
518.635	1	6
518.805	1	6
518.975	1	5
519.145	1	1
519.315	1	1
519.485	1	10
519.656	1	6
519.826	1	12
519.996	1	2
520.166	1	-8
520.336	1	-1
520.506	1	4
520.676	1	-8
520.846	1	10
521.017	1	5
521.187	1	3
521.357	1	-1
521.527	1	15
521.697	1	13
521.867	1	0
522.037	1	12
522.207	1	-8
522.377	1	3
522.548	1	5
522.718	1	7
522.888	1	-1
523.058	1	10
523.228	1	1
523.398	1	6
523.568	1	-4
523.738	1	14
523.909	1	3
524.079	1	1
524.249	1	1
524.419	1	4
524.589	1	-3
524.759	1	9
524.929	1	-6
525.099	1	4
525.269	1	8
525.439	1	0
525.610	1	9
525.780	1	8
525.950	1	-3
526.120	1	6
526.290	1	-2
526.460	1	9
526.630	1	6
526.800	1	5
526.970	1	1
527.140	1	7
527.311	1	8
527.481	1	-6
527.651	1	0
527.821	1	10
527.991	1	14
528.161	1	-5
528.331	1	2
528.501	1	8
528.671	1	-3
528.841	1	4
529.011	1	-3
529.181	1	7
529.352	1	9
529.522	1	1
529.692	1	-4
529.862	1	4
530.032	1	10
530.202	1	3
530.372	1	0
530.542	1	-2
530.712	1	11
530.882	1	11
531.052	1	10
531.222	1	9
531.392	1	4
531.563	1	7
531.733	1	-6
531.903	1	4
532.073	1	1
532.243	1	15
532.413	1	7
532.583	1	7
532.753	1	13
532.923	1	-2
533.093	1	5
533.263	1	9
533.433	1	3
533.603	1	5
533.773	1	-6
533.943	1	6
534.113	1	3
534.284	1	-2
534.454	1	3
534.624	1	3
534.794	1	3
534.964	1	7
535.134	1	1
535.304	1	-3
535.474	1	17
535.644	1	8
535.814	1	2
535.984	1	5
536.154	1	4
536.324	1	-2
536.494	1	21
536.664	1	-6
536.834	1	2
537.004	1	-5
537.174	1	15
537.344	1	-1
537.514	1	9
537.685	1	9
537.855	1	14
538.025	1	0
538.195	1	13
538.365	1	0
538.535	1	-1
538.705	1	0
538.875	1	7
539.045	1	6
539.215	1	2
539.385	1	1
539.555	1	-1
539.725	1	12
539.895	1	-5
540.065	1	3
540.235	1	0
540.405	1	9
540.575	1	-3
540.745	1	10
540.915	1	7
541.085	1	1
541.255	1	2
541.425	1	1
541.595	1	6
541.765	1	-7
541.935	1	9
542.105	1	6
542.275	1	5
542.445	1	5
542.615	1	0
542.785	1	-12
542.955	1	-1
543.125	1	5
543.295	1	2
543.465	1	4
543.635	1	-2
543.805	1	-1
543.975	1	6
544.145	1	4
544.315	1	6
544.485	1	6
544.655	1	-6
544.825	1	3
544.995	1	0
545.165	1	6
545.335	1	-3
545.505	1	4
545.675	1	7
545.845	1	0
546.015	1	4
546.185	1	-5
546.355	1	2
546.525	1	8
546.695	1	9
546.865	1	-3
547.035	1	10
547.205	1	3
547.375	1	-11
547.545	1	6
547.715	1	-2
547.885	1	1
548.055	1	8
548.225	1	-1
548.395	1	7
548.565	1	-3
548.735	1	7
548.905	1	-3
549.075	1	-1
549.245	1	9
549.415	1	-7
549.585	1	2
549.755	1	6
549.925	1	9
550.095	1	3
550.265	1	-9
550.435	1	8
550.605	1	-9
550.775	1	9
550.945	1	-2
551.115	1	16
551.285	1	2
551.455	1	9
551.625	1	7
551.795	1	11
551.965	1	8
552.135	1	8
552.305	1	3
552.475	1	-4
552.645	1	6
552.815	1	9
552.985	1	10
553.155	1	-1
553.325	1	5
553.495	1	16
553.665	1	-10
553.835	1	4
554.004	1	6
554.174	1	3
554.344	1	-6
554.514	1	-4
554.684	1	4
554.854	1	2
555.024	1	9
555.194	1	6
555.364	1	7
555.534	1	25
555.704	1	6
555.874	1	-3
556.044	1	14
556.214	1	-3
556.384	1	5
556.554	1	7
556.724	1	10
556.894	1	2
557.064	1	9
557.234	1	8
557.404	1	5
557.573	1	-5
557.743	1	1
557.913	1	0
558.083	1	3
558.253	1	1
558.423	1	-3
558.593	1	14
558.763	1	6
558.933	1	11
559.103	1	5
559.273	1	4
559.443	1	1
559.613	1	2
559.783	1	12
559.953	1	12
560.122	1	7
560.292	1	-3
560.462	1	11
560.632	1	7
560.802	1	7
560.972	1	-4
561.142	1	-6
561.312	1	0
561.482	1	2
561.652	1	-1
561.822	1	6
561.992	1	3
562.162	1	2
562.331	1	0
562.501	1	-5
562.671	1	-12
562.841	1	-8
563.011	1	-5
563.181	1	5
563.351	1	2
563.521	1	11
563.691	1	-8
563.861	1	-7
564.031	1	8
564.201	1	15
564.370	1	-2
564.540	1	10
564.710	1	-5
564.880	1	-4
565.050	1	5
565.220	1	9
565.390	1	8
565.560	1	5
565.730	1	-1
565.900	1	-3
566.069	1	-6
566.239	1	5
566.409	1	2
566.579	1	13
566.749	1	5
566.919	1	8
567.089	1	9
567.259	1	-4
567.429	1	-5
567.599	1	0
567.768	1	11
567.938	1	5
568.108	1	0
568.278	1	-2
568.448	1	7
568.618	1	0
568.788	1	9
568.958	1	3
569.128	1	11
569.297	1	-6
569.467	1	4
569.637	1	-3
569.807	1	-1
569.977	1	3
570.147	1	3
570.317	1	-6
570.487	1	-1
570.656	1	4
570.826	1	-6
570.996	1	7
571.166	1	3
571.336	1	6
571.506	1	-2
571.676	1	8
571.846	1	5
572.015	1	-2
572.185	1	1
572.355	1	-1
572.525	1	0
572.695	1	4
572.865	1	-2
573.035	1	3
573.205	1	-8
573.374	1	17
573.544	1	-2
573.714	1	11
573.884	1	15
574.054	1	10
574.224	1	-1
574.394	1	11
574.563	1	-1
574.733	1	-3
574.903	1	3
575.073	1	-2
575.243	1	3
575.413	1	7
575.583	1	4
575.752	1	3
575.922	1	3
576.092	1	0
576.262	1	1
576.432	1	-12
576.602	1	-1
576.772	1	8
576.941	1	12
577.111	1	-1
577.281	1	3
577.451	1	4
577.621	1	-3
577.791	1	4
577.960	1	3
578.130	1	-1
578.300	1	-5
578.470	1	10
578.640	1	2
578.810	1	-5
578.979	1	7
579.149	1	-5
579.319	1	0
579.489	1	10
579.659	1	3
579.829	1	-9
579.998	1	5
580.168	1	6
580.338	1	6
580.508	1	8
580.678	1	6
580.848	1	6
581.017	1	8
581.187	1	1
581.357	1	7
581.527	1	0
581.697	1	5
581.867	1	-1
582.036	1	2
582.206	1	9
582.376	1	5
582.546	1	2
582.716	1	-2
582.885	1	-2
583.055	1	3
583.225	1	8
583.395	1	8
583.565	1	5
583.735	1	2
583.904	1	8
584.074	1	-2
584.244	1	13
584.414	1	-5
584.584	1	2
584.753	1	-2
584.923	1	-2
585.093	1	-4
585.263	1	6
585.433	1	3
585.602	1	-1
585.772	1	-8
585.942	1	1
586.112	1	5
586.282	1	6
586.451	1	5
586.621	1	8
586.791	1	9
586.961	1	6
587.131	1	2
587.300	1	-8
587.470	1	-5
587.640	1	-1
587.810	1	-4
587.980	1	-10
588.149	1	-1
588.319	1	-7
588.489	1	-1
588.659	1	0
588.829	1	-2
588.998	1	16
589.168	1	-2
589.338	1	3
589.508	1	1
589.677	1	12
589.847	1	7
590.017	1	6
590.187	1	6
590.357	1	10
590.526	1	5
590.696	1	8
590.866	1	11
591.036	1	-2
591.205	1	2
591.375	1	-4
591.545	1	6
591.715	1	5
591.885	1	5
592.054	1	19
592.224	1	4
592.394	1	12
592.564	1	-5
592.733	1	9
592.903	1	-9
593.073	1	7
593.243	1	-5
593.412	1	0
593.582	1	-11
593.752	1	5
593.922	1	-3
594.091	1	0
594.261	1	4
594.431	1	-1
594.601	1	6
594.771	1	12
594.940	1	-12
595.110	1	12
595.280	1	5
595.450	1	6
595.619	1	1
595.789	1	8
595.959	1	-3
596.129	1	1
596.298	1	-4
596.468	1	12
596.638	1	0
596.808	1	8
596.977	1	7
597.147	1	1
597.317	1	3
597.487	1	8
597.656	1	6
597.826	1	1
597.996	1	2
598.166	1	13
598.335	1	3
598.505	1	14
598.675	1	9
598.844	1	7
599.014	1	14
599.184	1	2
599.354	1	1
599.523	1	9
599.693	1	5
599.863	1	0
600.033	1	10
600.202	1	-2
600.372	1	11
600.542	1	9
600.712	1	5
600.881	1	5
601.051	1	-5
601.221	1	5
601.390	1	11
601.560	1	17
601.730	1	7
601.900	1	8
602.069	1	6
602.239	1	2
602.409	1	1
602.578	1	-1
602.748	1	-6
602.918	1	-6
603.088	1	-3
603.257	1	-4
603.427	1	11
603.597	1	11
603.767	1	3
603.936	1	4
604.106	1	4
604.276	1	-6
604.445	1	3
604.615	1	-6
604.785	1	0
604.954	1	2
605.124	1	2
605.294	1	0
605.464	1	9
605.633	1	-5
605.803	1	2
605.973	1	-1
606.142	1	-3
606.312	1	0
606.482	1	8
606.652	1	0
606.821	1	3
606.991	1	8
607.161	1	5
607.330	1	-6
607.500	1	17
607.670	1	3
607.839	1	5
608.009	1	6
608.179	1	11
608.348	1	-1
608.518	1	-10
608.688	1	5
608.858	1	-1
609.027	1	0
609.197	1	3
609.367	1	9
609.536	1	-4
609.706	1	8
609.876	1	1
610.045	1	13
610.215	1	-2
610.385	1	0
610.554	1	6
610.724	1	-4
610.894	1	11
611.063	1	2
611.233	1	-2
611.403	1	4
611.572	1	4
611.742	1	-3
611.912	1	0
612.081	1	-2
612.251	1	15
612.421	1	-5
612.590	1	-12
612.760	1	-1
612.930	1	2
613.099	1	10
613.269	1	1
613.439	1	2
613.608	1	-1
613.778	1	9
613.948	1	1
614.117	1	6
614.287	1	4
614.457	1	-1
614.626	1	0
614.796	1	6
614.966	1	-1
615.135	1	1
615.305	1	-1
615.475	1	-10
615.644	1	-3
615.814	1	-1
615.984	1	1
616.153	1	11
616.323	1	7
616.493	1	5
616.662	1	7
616.832	1	8
617.002	1	4
617.171	1	4
617.341	1	-8
617.511	1	2
617.680	1	1
617.850	1	5
618.019	1	-4
618.189	1	3
618.359	1	4
618.528	1	3
618.698	1	18
618.868	1	-2
619.037	1	-2
619.207	1	-4
619.377	1	-1
619.546	1	-1
619.716	1	0
619.885	1	-3
620.055	1	3
620.225	1	4
620.394	1	12
620.564	1	0
620.734	1	6
620.903	1	13
621.073	1	0
621.242	1	-4
621.412	1	8
621.582	1	-1
621.751	1	1
621.921	1	2
622.091	1	7
622.260	1	-1
622.430	1	13
622.599	1	-3
622.769	1	7
622.939	1	1
623.108	1	-6
623.278	1	5
623.448	1	1
623.617	1	1
623.787	1	5
623.956	1	2
624.126	1	4
624.296	1	-2
624.465	1	8
624.635	1	9
624.804	1	-4
624.974	1	7
625.144	1	3
625.313	1	4
625.483	1	6
625.652	1	-6
625.822	1	-4
625.992	1	18
626.161	1	3
626.331	1	4
626.501	1	3
626.670	1	9
626.840	1	4
627.009	1	8
627.179	1	-1
627.348	1	3
627.518	1	4
627.688	1	14
627.857	1	11
628.027	1	7
628.196	1	4
628.366	1	0
628.536	1	-7
628.705	1	8
628.875	1	0
629.044	1	3
629.214	1	-3
629.384	1	6
629.553	1	2
629.723	1	-1
629.892	1	4
630.062	1	6
630.232	1	1
630.401	1	1
630.571	1	5
630.740	1	2
630.910	1	0
631.079	1	-2
631.249	1	3
631.419	1	0
631.588	1	-5
631.758	1	15
631.927	1	4
632.097	1	-2
632.266	1	-4
632.436	1	9
632.606	1	-6
632.775	1	-2
632.945	1	-11
633.114	1	1
633.284	1	14
633.453	1	6
633.623	1	2
633.793	1	8
633.962	1	7
634.132	1	10
634.301	1	-1
634.471	1	0
634.640	1	7
634.810	1	0
634.979	1	-3
635.149	1	2
635.319	1	1
635.488	1	6
635.658	1	10
635.827	1	0
635.997	1	13
636.166	1	-2
636.336	1	8
636.505	1	-7
636.675	1	5
636.845	1	-8
637.014	1	15
637.184	1	9
637.353	1	3
637.523	1	-3
637.692	1	10
637.862	1	-3
638.031	1	9
638.201	1	-2
638.370	1	-6
638.540	1	10
638.710	1	3
638.879	1	7
639.049	1	-1
639.218	1	3
639.388	1	0
639.557	1	4
639.727	1	-4
639.896	1	4
640.066	1	7
640.235	1	4
640.405	1	-1
640.574	1	4
640.744	1	16
640.914	1	-2
641.083	1	13
641.253	1	-4
641.422	1	-2
641.592	1	8
641.761	1	2
641.931	1	3
642.100	1	-4
642.270	1	2
642.439	1	-5
642.609	1	-3
642.778	1	-3
642.948	1	5
643.117	1	6
643.287	1	0
643.456	1	8
643.626	1	15
643.795	1	6
643.965	1	2
644.134	1	-7
644.304	1	-9
644.473	1	6
644.643	1	3
644.812	1	-9
644.982	1	2
645.151	1	12
645.321	1	5
645.490	1	6
645.660	1	-9
645.829	1	5
645.999	1	3
646.168	1	8
646.338	1	5
646.507	1	9
646.677	1	0
646.846	1	8
647.016	1	-2
647.185	1	5
647.355	1	3
647.524	1	2
647.694	1	3
647.863	1	-2
648.033	1	-3
648.202	1	12
648.372	1	6
648.541	1	-3
648.711	1	5
648.880	1	13
649.050	1	5
649.219	1	9
649.389	1	7
649.558	1	4
649.728	1	3
649.897	1	-3
650.067	1	0
650.236	1	18
650.406	1	13
650.575	1	-7
650.745	1	14
650.914	1	-1
651.084	1	4
651.253	1	7
651.423	1	9
651.592	1	7
651.762	1	4
651.931	1	5
652.101	1	9
652.270	1	-6
652.440	1	2
652.609	1	-4
652.778	1	5
652.948	1	5
653.117	1	13
653.287	1	-6
653.456	1	-3
653.626	1	1
653.795	1	-4
653.965	1	2
654.134	1	13
654.304	1	-3
654.473	1	0
654.643	1	-10
654.812	1	12
654.982	1	11
655.151	1	8
655.320	1	0
655.490	1	-2
655.659	1	0
655.829	1	-1
655.998	1	5
656.168	1	2
656.337	1	4
656.507	1	-2
656.676	1	-3
656.846	1	-1
657.015	1	1
657.184	1	14
657.354	1	-1
657.523	1	2
657.693	1	-2
657.862	1	1
658.032	1	0
658.201	1	4
658.371	1	2
658.540	1	2
658.709	1	1
658.879	1	18
659.048	1	9
659.218	1	2
659.387	1	1
659.557	1	11
659.726	1	3
659.895	1	4
660.065	1	1
660.234	1	-6
660.404	1	-1
660.573	1	-7
660.743	1	6
660.912	1	6
661.081	1	13
661.251	1	-1
661.420	1	9
661.590	1	5
661.759	1	6
661.929	1	12
662.098	1	0
662.267	1	6
662.437	1	0
662.606	1	11
662.776	1	0
662.945	1	2
663.115	1	-2
663.284	1	0
663.453	1	6
663.623	1	-5
663.792	1	0
663.962	1	2
664.131	1	6
664.300	1	14
664.470	1	7
664.639	1	2
664.809	1	0
664.978	1	0
665.148	1	5
665.317	1	-5
665.486	1	9
665.656	1	-3
665.825	1	4
665.995	1	-4
666.164	1	11
666.333	1	18
666.503	1	9
666.672	1	5
666.842	1	1
667.011	1	8
667.180	1	-1
667.350	1	-1
667.519	1	2
667.689	1	8
667.858	1	1
668.027	1	4
668.197	1	5
668.366	1	13
668.536	1	-2
668.705	1	6
668.874	1	-8
669.044	1	-2
669.213	1	6
669.382	1	6
669.552	1	4
669.721	1	-3
669.891	1	-4
670.060	1	4
670.229	1	1
670.399	1	3
670.568	1	13
670.738	1	2
670.907	1	4
671.076	1	7
671.246	1	-3
671.415	1	-5
671.584	1	8
671.754	1	2
671.923	1	7
672.093	1	2
672.262	1	3
672.431	1	-1
672.601	1	7
672.770	1	-3
672.939	1	8
673.109	1	5
673.278	1	-8
673.448	1	-1
673.617	1	-5
673.786	1	15
