325.333	1	16
325.504	1	0
325.675	1	2
325.846	1	-6
326.017	1	2
326.188	1	1
326.359	1	-2
326.531	1	4
326.702	1	7
326.873	1	4
327.044	1	6
327.215	1	12
327.386	1	-9
327.557	1	-1
327.728	1	2
327.899	1	5
328.070	1	5
328.241	1	14
328.412	1	-6
328.583	1	-9
328.754	1	9
328.926	1	2
329.097	1	8
329.268	1	-13
329.439	1	0
329.610	1	15
329.781	1	1
329.952	1	-7
330.123	1	-4
330.294	1	3
330.465	1	10
330.636	1	3
330.807	1	4
330.978	1	10
331.149	1	2
331.320	1	4
331.492	1	11
331.663	1	5
331.834	1	2
332.005	1	10
332.176	1	6
332.347	1	0
332.518	1	10
332.689	1	0
332.860	1	14
333.031	1	4
333.202	1	1
333.373	1	0
333.544	1	8
333.715	1	9
333.886	1	-1
334.057	1	-1
334.228	1	11
334.399	1	4
334.570	1	14
334.741	1	2
334.912	1	12
335.084	1	2
335.255	1	11
335.426	1	3
335.597	1	10
335.768	1	11
335.939	1	-2
336.110	1	11
336.281	1	10
336.452	1	7
336.623	1	-2
336.794	1	9
336.965	1	2
337.136	1	4
337.307	1	1
337.478	1	3
337.649	1	-3
337.820	1	12
337.991	1	3
338.162	1	-6
338.333	1	2
338.504	1	16
338.675	1	-4
338.846	1	8
339.017	1	0
339.188	1	-11
339.359	1	10
339.530	1	9
339.701	1	2
339.872	1	-4
340.043	1	10
340.214	1	4
340.385	1	4
340.556	1	5
340.727	1	14
340.898	1	5
341.069	1	-4
341.240	1	-2
341.411	1	5
341.582	1	18
341.753	1	9
341.924	1	12
342.095	1	1
342.266	1	5
342.437	1	13
342.608	1	4
342.779	1	2
342.950	1	-3
343.121	1	-1
343.292	1	9
343.463	1	-1
343.634	1	13
343.805	1	3
343.976	1	8
344.147	1	0
344.318	1	15
344.489	1	5
344.660	1	4
344.831	1	10
345.002	1	3
345.173	1	10
345.344	1	-4
345.515	1	6
345.686	1	-3
345.857	1	14
346.028	1	10
346.199	1	1
346.370	1	1
346.541	1	6
346.712	1	6
346.883	1	-5
347.054	1	0
347.225	1	-6
347.396	1	8
347.567	1	7
347.738	1	1
347.909	1	-4
348.080	1	3
348.251	1	3
348.422	1	7
348.593	1	2
348.764	1	-1
348.935	1	3
349.106	1	-11
349.277	1	0
349.448	1	-1
349.619	1	-2
349.790	1	3
349.961	1	10
350.132	1	11
350.303	1	10
350.474	1	13
350.645	1	3
350.816	1	7
350.987	1	8
351.157	1	4
351.328	1	-1
351.499	1	7
351.670	1	0
351.841	1	10
352.012	1	0
352.183	1	3
352.354	1	10
352.525	1	6
352.696	1	3
352.867	1	-1
353.038	1	-4
353.209	1	21
353.380	1	16
353.551	1	14
353.722	1	8
353.893	1	4
354.064	1	10
354.235	1	7
354.406	1	14
354.576	1	-5
354.747	1	13
354.918	1	15
355.089	1	11
355.260	1	3
355.431	1	-6
355.602	1	2
355.773	1	-3
355.944	1	11
356.115	1	8
356.286	1	-1
356.457	1	4
356.628	1	7
356.799	1	4
356.970	1	4
357.141	1	7
357.311	1	9
357.482	1	3
357.653	1	-5
357.824	1	6
357.995	1	4
358.166	1	7
358.337	1	-4
358.508	1	3
358.679	1	8
358.850	1	9
359.021	1	4
359.192	1	-4
359.363	1	-10
359.533	1	10
359.704	1	-9
359.875	1	-1
360.046	1	2
360.217	1	11
360.388	1	4
360.559	1	9
360.730	1	3
360.901	1	16
361.072	1	-2
361.243	1	6
361.414	1	-2
361.584	1	-3
361.755	1	3
361.926	1	2
362.097	1	11
362.268	1	9
362.439	1	10
362.610	1	-5
362.781	1	3
362.952	1	10
363.123	1	2
363.293	1	11
363.464	1	13
363.635	1	8
363.806	1	-1
363.977	1	-5
364.148	1	2
364.319	1	12
364.490	1	6
364.661	1	7
364.832	1	-4
365.002	1	9
365.173	1	8
365.344	1	10
365.515	1	6
365.686	1	4
365.857	1	8
366.028	1	-4
366.199	1	18
366.370	1	-3
366.540	1	6
366.711	1	8
366.882	1	-1
367.053	1	1
367.224	1	0
367.395	1	9
367.566	1	6
367.737	1	1
367.908	1	15
368.078	1	7
368.249	1	-1
368.420	1	-2
368.591	1	8
368.762	1	7
368.933	1	7
369.104	1	4
369.274	1	5
369.445	1	14
369.616	1	4
369.787	1	5
369.958	1	5
370.129	1	12
370.300	1	11
370.471	1	4
370.641	1	11
370.812	1	11
370.983	1	-3
371.154	1	2
371.325	1	-2
371.496	1	0
371.667	1	2
371.837	1	6
372.008	1	7
372.179	1	-2
372.350	1	9
372.521	1	10
372.692	1	4
372.863	1	13
373.033	1	5
373.204	1	6
373.375	1	-14
373.546	1	1
373.717	1	0
373.888	1	4
374.059	1	7
374.229	1	11
374.400	1	3
374.571	1	-7
374.742	1	8
374.913	1	1
375.084	1	5
375.254	1	-4
375.425	1	2
375.596	1	-3
375.767	1	10
375.938	1	3
376.109	1	18
376.279	1	-2
376.450	1	12
376.621	1	1
376.792	1	16
376.963	1	-5
377.134	1	11
377.304	1	6
377.475	1	-6
377.646	1	-5
377.817	1	10
377.988	1	4
378.159	1	-1
378.329	1	1
378.500	1	7
378.671	1	4
378.842	1	12
379.013	1	5
379.184	1	4
379.354	1	9
379.525	1	4
379.696	1	4
379.867	1	13
380.038	1	11
380.209	1	5
380.379	1	11
380.550	1	-2
380.721	1	13
380.892	1	0
381.063	1	1
381.233	1	5
381.404	1	15
381.575	1	0
381.746	1	6
381.917	1	-2
382.087	1	7
382.258	1	3
382.429	1	4
382.600	1	2
382.771	1	4
382.941	1	-8
383.112	1	6
383.283	1	6
383.454	1	11
383.625	1	12
383.795	1	17
383.966	1	10
384.137	1	10
384.308	1	5
384.479	1	10
384.649	1	21
384.820	1	9
384.991	1	13
385.162	1	6
385.333	1	1
385.503	1	0
385.674	1	17
385.845	1	27
386.016	1	10
386.187	1	8
386.357	1	3
386.528	1	1
386.699	1	13
386.870	1	-2
387.041	1	15
387.211	1	4
387.382	1	3
387.553	1	4
387.724	1	9
387.894	1	11
388.065	1	6
388.236	1	-2
388.407	1	5
388.578	1	2
388.748	1	0
388.919	1	14
389.090	1	6
389.261	1	5
389.431	1	12
389.602	1	8
389.773	1	3
389.944	1	9
390.114	1	13
390.285	1	8
390.456	1	5
390.627	1	13
390.798	1	9
390.968	1	-3
391.139	1	13
391.310	1	12
391.481	1	4
391.651	1	12
391.822	1	14
391.993	1	13
392.164	1	1
392.334	1	13
392.505	1	3
392.676	1	7
392.847	1	8
393.017	1	9
393.188	1	9
393.359	1	7
393.530	1	6
393.700	1	8
393.871	1	5
394.042	1	-1
394.213	1	10
394.383	1	13
394.554	1	5
394.725	1	5
394.896	1	3
395.066	1	12
395.237	1	8
395.408	1	-3
395.579	1	5
395.749	1	8
395.920	1	0
396.091	1	11
396.262	1	7
396.432	1	12
396.603	1	11
396.774	1	-5
396.945	1	12
397.115	1	4
397.286	1	-4
397.457	1	11
397.627	1	18
397.798	1	3
397.969	1	-4
398.140	1	14
398.310	1	14
398.481	1	15
398.652	1	14
398.823	1	8
398.993	1	2
399.164	1	-1
399.335	1	15
399.505	1	10
399.676	1	13
399.847	1	10
400.018	1	17
400.188	1	13
400.359	1	8
400.530	1	8
400.700	1	13
400.871	1	12
401.042	1	7
401.213	1	14
401.383	1	1
401.554	1	2
401.725	1	11
401.895	1	5
402.066	1	9
402.237	1	8
402.408	1	5
402.578	1	11
402.749	1	10
402.920	1	5
403.090	1	14
403.261	1	17
403.432	1	20
403.603	1	12
403.773	1	9
403.944	1	14
404.115	1	7
404.285	1	4
404.456	1	1
404.627	1	26
404.797	1	8
404.968	1	14
405.139	1	5
405.310	1	7
405.480	1	11
405.651	1	-2
405.822	1	21
405.992	1	12
406.163	1	4
406.334	1	10
406.504	1	8
406.675	1	3
406.846	1	9
407.016	1	15
407.187	1	13
407.358	1	10
407.528	1	-7
407.699	1	6
407.870	1	-3
408.041	1	15
408.211	1	8
408.382	1	13
408.553	1	3
408.723	1	7
408.894	1	11
409.065	1	9
409.235	1	-1
409.406	1	10
409.577	1	13
409.747	1	18
409.918	1	9
410.089	1	14
410.259	1	18
410.430	1	8
410.601	1	8
410.771	1	14
410.942	1	24
411.113	1	18
411.283	1	14
411.454	1	8
411.625	1	11
411.795	1	8
411.966	1	12
412.137	1	18
412.307	1	10
412.478	1	12
412.649	1	5
412.819	1	21
412.990	1	11
413.161	1	13
413.331	1	8
413.502	1	15
413.672	1	-3
413.843	1	2
414.014	1	15
414.184	1	14
414.355	1	8
414.526	1	-1
414.696	1	18
414.867	1	0
415.038	1	7
415.208	1	13
415.379	1	6
415.550	1	1
415.720	1	3
415.891	1	1
416.062	1	6
416.232	1	-2
416.403	1	9
416.573	1	11
416.744	1	3
416.915	1	-1
417.085	1	19
417.256	1	15
417.427	1	-5
417.597	1	13
417.768	1	-1
417.939	1	4
418.109	1	8
418.280	1	13
418.450	1	14
418.621	1	9
418.792	1	15
418.962	1	13
419.133	1	9
419.304	1	4
419.474	1	8
419.645	1	8
419.815	1	13
419.986	1	10
420.157	1	4
420.327	1	10
420.498	1	7
420.669	1	14
420.839	1	7
421.010	1	4
421.180	1	8
421.351	1	18
421.522	1	6
421.692	1	10
421.863	1	6
422.033	1	8
422.204	1	11
422.375	1	-1
422.545	1	5
422.716	1	14
422.886	1	10
423.057	1	22
423.228	1	14
423.398	1	15
423.569	1	10
423.740	1	6
423.910	1	14
424.081	1	16
424.251	1	15
424.422	1	6
424.593	1	13
424.763	1	7
424.934	1	-1
425.104	1	15
425.275	1	18
425.445	1	2
425.616	1	9
425.787	1	17
425.957	1	8
426.128	1	10
426.298	1	3
426.469	1	17
426.640	1	4
426.810	1	15
426.981	1	4
427.151	1	4
427.322	1	4
427.493	1	-6
427.663	1	8
427.834	1	14
428.004	1	11
428.175	1	0
428.345	1	4
428.516	1	6
428.687	1	13
428.857	1	8
429.028	1	2
429.198	1	-1
429.369	1	6
429.540	1	6
429.710	1	18
429.881	1	8
430.051	1	4
430.222	1	14
430.392	1	1
430.563	1	21
430.734	1	11
430.904	1	13
431.075	1	4
431.245	1	6
431.416	1	6
431.586	1	12
431.757	1	12
431.927	1	13
432.098	1	11
432.269	1	16
432.439	1	-3
432.610	1	1
432.780	1	4
432.951	1	16
433.121	1	0
433.292	1	11
433.462	1	7
433.633	1	21
433.804	1	-5
433.974	1	11
434.145	1	-4
434.315	1	10
434.486	1	8
434.656	1	21
434.827	1	5
434.997	1	-2
435.168	1	11
435.339	1	8
435.509	1	11
435.680	1	11
435.850	1	8
436.021	1	-2
436.191	1	13
436.362	1	4
436.532	1	20
436.703	1	16
436.873	1	16
437.044	1	16
437.214	1	-1
437.385	1	13
437.556	1	1
437.726	1	11
437.897	1	-2
438.067	1	10
438.238	1	17
438.408	1	4
438.579	1	20
438.749	1	2
438.920	1	7
439.090	1	2
439.261	1	12
439.431	1	18
439.602	1	12
439.772	1	18
439.943	1	5
440.113	1	9
440.284	1	11
440.455	1	11
440.625	1	1
440.796	1	10
440.966	1	12
441.137	1	8
441.307	1	19
441.478	1	16
441.648	1	19
441.819	1	7
441.989	1	14
442.160	1	20
442.330	1	8
442.501	1	9
442.671	1	6
442.842	1	14
443.012	1	9
443.183	1	10
443.353	1	10
443.524	1	11
443.694	1	14
443.865	1	8
444.035	1	4
444.206	1	11
444.376	1	20
444.547	1	8
444.717	1	5
444.888	1	11
445.058	1	-3
445.229	1	12
445.399	1	4
445.570	1	-1
445.740	1	8
445.911	1	7
446.081	1	7
446.252	1	12
446.422	1	3
446.593	1	13
446.763	1	14
446.934	1	15
447.104	1	0
447.275	1	16
447.445	1	3
447.616	1	15
447.786	1	7
447.957	1	10
448.127	1	9
448.298	1	10
448.468	1	20
448.639	1	3
448.809	1	10
448.979	1	18
449.150	1	10
449.320	1	7
449.491	1	7
449.661	1	10
449.832	1	10
450.002	1	6
450.173	1	11
450.343	1	4
450.514	1	11
450.684	1	1
450.855	1	5
451.025	1	18
451.196	1	10
451.366	1	11
451.537	1	-1
451.707	1	22
451.878	1	14
452.048	1	13
452.218	1	4
452.389	1	9
452.559	1	3
452.730	1	4
452.900	1	10
453.071	1	4
453.241	1	0
453.412	1	8
453.582	1	6
453.753	1	11
453.923	1	10
454.093	1	14
454.264	1	18
454.434	1	2
454.605	1	-9
454.775	1	6
454.946	1	3
455.116	1	-1
455.287	1	4
455.457	1	12
455.628	1	13
455.798	1	-2
455.968	1	8
456.139	1	7
456.309	1	9
456.480	1	3
456.650	1	4
456.821	1	8
456.991	1	15
457.161	1	1
457.332	1	6
457.502	1	9
457.673	1	5
457.843	1	4
458.014	1	3
458.184	1	19
458.355	1	16
458.525	1	4
458.695	1	2
458.866	1	12
459.036	1	5
459.207	1	0
459.377	1	5
459.548	1	4
459.718	1	12
459.888	1	10
460.059	1	8
460.229	1	9
460.400	1	7
460.570	1	11
460.740	1	2
460.911	1	-1
461.081	1	10
461.252	1	11
461.422	1	21
461.593	1	0
461.763	1	4
461.933	1	14
462.104	1	7
462.274	1	6
462.445	1	3
462.615	1	10
462.785	1	16
462.956	1	0
463.126	1	7
463.297	1	2
463.467	1	12
463.638	1	6
463.808	1	4
463.978	1	9
464.149	1	9
464.319	1	0
464.490	1	-1
464.660	1	3
464.830	1	11
465.001	1	9
465.171	1	10
465.342	1	23
465.512	1	6
465.682	1	8
465.853	1	16
466.023	1	5
466.194	1	12
466.364	1	-12
466.534	1	12
466.705	1	8
466.875	1	8
467.045	1	3
467.216	1	10
467.386	1	20
467.557	1	5
467.727	1	2
467.897	1	5
468.068	1	20
468.238	1	7
468.409	1	9
468.579	1	9
468.749	1	9
468.920	1	1
469.090	1	4
469.260	1	16
469.431	1	-6
469.601	1	1
469.772	1	6
469.942	1	10
470.112	1	8
470.283	1	10
470.453	1	11
470.623	1	-6
470.794	1	7
470.964	1	10
471.135	1	22
471.305	1	19
471.475	1	6
471.646	1	16
471.816	1	15
471.986	1	14
472.157	1	17
472.327	1	17
472.497	1	10
472.668	1	2
472.838	1	8
473.009	1	0
473.179	1	2
473.349	1	2
473.520	1	9
473.690	1	7
473.860	1	2
474.031	1	8
474.201	1	3
474.371	1	23
474.542	1	6
474.712	1	11
474.882	1	-2
475.053	1	2
475.223	1	5
475.394	1	18
475.564	1	4
475.734	1	14
475.905	1	2
476.075	1	12
476.245	1	-6
476.416	1	6
476.586	1	-4
476.756	1	3
476.927	1	7
477.097	1	12
477.267	1	10
477.438	1	3
477.608	1	2
477.778	1	4
477.949	1	7
478.119	1	0
478.289	1	9
478.460	1	3
478.630	1	-7
478.800	1	7
478.971	1	16
479.141	1	4
479.311	1	2
479.482	1	2
479.652	1	-3
479.822	1	7
479.993	1	13
480.163	1	13
480.333	1	0
480.504	1	2
480.674	1	10
480.844	1	5
481.015	1	4
481.185	1	-5
481.355	1	8
481.525	1	-2
481.696	1	3
481.866	1	14
482.036	1	7
482.207	1	3
482.377	1	-7
482.547	1	6
482.718	1	8
482.888	1	7
483.058	1	0
483.229	1	6
483.399	1	-6
483.569	1	11
483.740	1	9
483.910	1	13
484.080	1	12
484.250	1	9
484.421	1	-7
484.591	1	3
484.761	1	16
484.932	1	-1
485.102	1	9
485.272	1	11
485.443	1	8
485.613	1	10
485.783	1	-4
485.953	1	-2
486.124	1	16
486.294	1	16
486.464	1	4
486.635	1	6
486.805	1	-3
486.975	1	-2
487.146	1	-1
487.316	1	4
487.486	1	0
487.656	1	-6
487.827	1	7
487.997	1	8
488.167	1	-6
488.338	1	14
488.508	1	8
488.678	1	14
488.848	1	-1
489.019	1	1
489.189	1	9
489.359	1	11
489.529	1	6
489.700	1	8
489.870	1	2
490.040	1	8
490.211	1	12
490.381	1	6
490.551	1	11
490.721	1	7
490.892	1	11
491.062	1	14
491.232	1	-2
491.402	1	17
491.573	1	7
491.743	1	7
491.913	1	1
492.084	1	9
492.254	1	2
492.424	1	8
492.594	1	7
492.765	1	3
492.935	1	-2
493.105	1	9
493.275	1	6
493.446	1	8
493.616	1	9
493.786	1	0
493.956	1	3
494.127	1	13
494.297	1	13
494.467	1	7
494.637	1	4
494.808	1	1
494.978	1	-2
495.148	1	10
495.318	1	-2
495.489	1	14
495.659	1	9
495.829	1	5
495.999	1	-2
496.170	1	6
496.340	1	3
496.510	1	8
496.680	1	-2
496.851	1	-2
497.021	1	13
497.191	1	15
497.361	1	1
497.532	1	14
497.702	1	-4
497.872	1	7
498.042	1	7
498.213	1	8
498.383	1	4
498.553	1	7
498.723	1	0
498.894	1	-4
499.064	1	10
499.234	1	7
499.404	1	-8
499.574	1	-4
499.745	1	8
499.915	1	10
500.085	1	8
500.255	1	-2
500.426	1	4
500.596	1	1
500.766	1	18
500.936	1	-5
501.106	1	0
501.277	1	-1
501.447	1	4
501.617	1	11
501.787	1	5
501.958	1	9
502.128	1	5
502.298	1	-6
502.468	1	-2
502.638	1	2
502.809	1	3
502.979	1	6
503.149	1	-2
503.319	1	-4
503.489	1	3
503.660	1	1
503.830	1	5
504.000	1	9
504.170	1	5
504.340	1	0
504.511	1	10
504.681	1	7
504.851	1	2
505.021	1	-1
505.192	1	4
505.362	1	-6
505.532	1	-2
505.702	1	-7
505.872	1	11
506.043	1	17
506.213	1	5
506.383	1	1
506.553	1	15
506.723	1	-10
506.893	1	2
507.064	1	8
507.234	1	-6
507.404	1	1
507.574	1	20
507.744	1	19
507.915	1	5
508.085	1	6
508.255	1	10
508.425	1	-4
508.595	1	0
508.766	1	-10
508.936	1	-15
509.106	1	9
509.276	1	4
509.446	1	0
509.616	1	8
509.787	1	6
509.957	1	5
510.127	1	-11
510.297	1	0
510.467	1	0
510.638	1	5
510.808	1	-6
510.978	1	10
511.148	1	10
511.318	1	-8
511.488	1	-1
511.659	1	5
511.829	1	4
511.999	1	1
512.169	1	3
512.339	1	-5
512.509	1	-1
512.680	1	0
512.850	1	2
513.020	1	3
513.190	1	-6
513.360	1	7
513.530	1	22
513.700	1	15
513.871	1	-1
514.041	1	17
514.211	1	6
514.381	1	-2
514.551	1	3
514.721	1	5
514.892	1	-2
515.062	1	1
515.232	1	-10
515.402	1	-3
515.572	1	13
515.742	1	6
515.912	1	4
516.083	1	6
516.253	1	4
516.423	1	9
516.593	1	-7
516.763	1	-5
516.933	1	-1
517.104	1	3
517.274	1	11
517.444	1	15
517.614	1	12
517.784	1	-5
517.954	1	0
518.124	1	-4
518.294	1	10
518.465	1	7
518.635	1	10
518.805	1	3
518.975	1	-2
519.145	1	-8
519.315	1	10
519.485	1	0
519.656	1	9
519.826	1	10
519.996	1	9
520.166	1	-2
520.336	1	1
520.506	1	-15
520.676	1	-1
520.846	1	0
521.017	1	7
521.187	1	7
521.357	1	2
521.527	1	11
521.697	1	0
521.867	1	1
522.037	1	13
522.207	1	2
522.377	1	15
522.548	1	-2
522.718	1	-1
522.888	1	2
523.058	1	5
523.228	1	3
523.398	1	-1
523.568	1	-1
523.738	1	4
523.909	1	1
524.079	1	0
524.249	1	0
524.419	1	8
524.589	1	2
524.759	1	4
524.929	1	-3
525.099	1	-4
525.269	1	10
525.439	1	2
525.610	1	4
525.780	1	1
525.950	1	-4
526.120	1	-2
526.290	1	-3
526.460	1	-3
526.630	1	11
526.800	1	5
526.970	1	-5
527.140	1	6
527.311	1	-3
527.481	1	-4
527.651	1	-1
527.821	1	8
527.991	1	1
528.161	1	-3
528.331	1	11
528.501	1	8
528.671	1	-3
528.841	1	11
529.011	1	5
529.181	1	3
529.352	1	10
529.522	1	-1
529.692	1	-2
529.862	1	5
530.032	1	3
530.202	1	2
530.372	1	6
530.542	1	3
530.712	1	4
530.882	1	6
531.052	1	6
531.222	1	2
531.392	1	2
531.563	1	-1
531.733	1	-2
531.903	1	9
532.073	1	7
532.243	1	14
532.413	1	19
532.583	1	2
532.753	1	16
532.923	1	3
533.093	1	6
533.263	1	13
533.433	1	-4
533.603	1	8
533.773	1	-9
533.943	1	-2
534.113	1	3
534.284	1	5
534.454	1	10
534.624	1	6
534.794	1	-10
534.964	1	8
535.134	1	-2
535.304	1	3
535.474	1	-3
535.644	1	12
535.814	1	-5
535.984	1	1
536.154	1	5
536.324	1	7
536.494	1	11
536.664	1	-8
536.834	1	-2
537.004	1	-14
537.174	1	13
537.344	1	2
537.514	1	9
537.685	1	12
537.855	1	5
538.025	1	-3
538.195	1	1
538.365	1	-2
538.535	1	-5
538.705	1	-12
538.875	1	3
539.045	1	7
539.215	1	3
539.385	1	-6
539.555	1	10
539.725	1	0
539.895	1	4
540.065	1	-4
540.235	1	1
540.405	1	7
540.575	1	0
540.745	1	12
540.915	1	6
541.085	1	6
541.255	1	-5
541.425	1	-3
541.595	1	5
541.765	1	1
541.935	1	4
542.105	1	11
542.275	1	-1
542.445	1	1
542.615	1	-7
542.785	1	-7
542.955	1	10
543.125	1	4
543.295	1	-9
543.465	1	3
543.635	1	7
543.805	1	-2
543.975	1	8
544.145	1	-4
544.315	1	20
544.485	1	-2
544.655	1	7
544.825	1	-3
544.995	1	0
545.165	1	3
545.335	1	-6
545.505	1	7
545.675	1	-1
545.845	1	-2
546.015	1	2
546.185	1	4
546.355	1	6
546.525	1	1
546.695	1	1
546.865	1	-3
547.035	1	8
547.205	1	1
547.375	1	-7
547.545	1	12
547.715	1	8
547.885	1	1
548.055	1	9
548.225	1	-4
548.395	1	4
548.565	1	2
548.735	1	6
548.905	1	-5
549.075	1	4
549.245	1	9
549.415	1	2
549.585	1	-12
549.755	1	9
549.925	1	7
550.095	1	12
550.265	1	-7
550.435	1	8
550.605	1	-7
550.775	1	9
550.945	1	4
551.115	1	14
551.285	1	3
551.455	1	-1
551.625	1	8
551.795	1	3
551.965	1	10
552.135	1	11
552.305	1	10
552.475	1	-5
552.645	1	4
552.815	1	3
552.985	1	11
553.155	1	-3
553.325	1	3
553.495	1	-4
553.665	1	-5
553.835	1	-2
554.004	1	8
554.174	1	-4
554.344	1	-9
554.514	1	1
554.684	1	11
554.854	1	5
555.024	1	4
555.194	1	6
555.364	1	6
555.534	1	13
555.704	1	1
555.874	1	4
556.044	1	17
556.214	1	-14
556.384	1	12
556.554	1	8
556.724	1	8
556.894	1	7
557.064	1	6
557.234	1	2
557.404	1	5
557.573	1	-10
557.743	1	-3
557.913	1	-3
558.083	1	-3
558.253	1	4
558.423	1	0
558.593	1	17
558.763	1	6
558.933	1	10
559.103	1	5
559.273	1	4
559.443	1	-1
559.613	1	0
559.783	1	4
559.953	1	12
560.122	1	7
560.292	1	5
560.462	1	11
560.632	1	5
560.802	1	7
560.972	1	-4
561.142	1	-9
561.312	1	-9
561.482	1	4
561.652	1	-5
561.822	1	5
561.992	1	4
562.162	1	9
562.331	1	2
562.501	1	-4
562.671	1	-4
562.841	1	-7
563.011	1	-6
563.181	1	6
563.351	1	6
563.521	1	-1
563.691	1	2
563.861	1	1
564.031	1	11
564.201	1	0
564.370	1	3
564.540	1	11
564.710	1	-7
564.880	1	7
565.050	1	-1
565.220	1	6
565.390	1	4
565.560	1	7
565.730	1	-10
565.900	1	-3
566.069	1	1
566.239	1	-4
566.409	1	-1
566.579	1	6
566.749	1	4
566.919	1	6
567.089	1	5
567.259	1	-2
567.429	1	8
567.599	1	11
567.768	1	12
567.938	1	3
568.108	1	2
568.278	1	-1
568.448	1	4
568.618	1	0
568.788	1	4
568.958	1	-1
569.128	1	10
569.297	1	-4
569.467	1	10
569.637	1	-5
569.807	1	-3
569.977	1	6
570.147	1	2
570.317	1	-18
570.487	1	-4
570.656	1	-1
570.826	1	-4
570.996	1	2
571.166	1	-1
571.336	1	8
571.506	1	9
571.676	1	-1
571.846	1	1
572.015	1	6
572.185	1	7
572.355	1	-2
572.525	1	-3
572.695	1	6
572.865	1	-4
573.035	1	1
573.205	1	-5
573.374	1	20
573.544	1	2
573.714	1	12
573.884	1	12
574.054	1	6
574.224	1	-5
574.394	1	7
574.563	1	8
574.733	1	4
574.903	1	-1
575.073	1	-10
575.243	1	1
575.413	1	3
575.583	1	4
575.752	1	5
575.922	1	5
576.092	1	1
576.262	1	6
576.432	1	-8
576.602	1	-4
576.772	1	-1
576.941	1	4
577.111	1	2
577.281	1	4
577.451	1	10
577.621	1	3
577.791	1	-3
577.960	1	15
578.130	1	-10
578.300	1	-8
578.470	1	2
578.640	1	4
578.810	1	-7
578.979	1	7
579.149	1	3
579.319	1	9
579.489	1	12
579.659	1	1
579.829	1	-8
579.998	1	10
580.168	1	-5
580.338	1	4
580.508	1	4
580.678	1	-3
580.848	1	8
581.017	1	4
581.187	1	2
581.357	1	5
581.527	1	-6
581.697	1	9
581.867	1	-3
582.036	1	4
582.206	1	2
582.376	1	-3
582.546	1	5
582.716	1	3
582.885	1	-10
583.055	1	3
583.225	1	10
583.395	1	5
583.565	1	8
583.735	1	4
583.904	1	3
584.074	1	1
584.244	1	4
584.414	1	1
584.584	1	2
584.753	1	-3
584.923	1	-6
585.093	1	2
585.263	1	6
585.433	1	-8
585.602	1	2
585.772	1	5
585.942	1	14
586.112	1	0
586.282	1	5
586.451	1	4
586.621	1	-4
586.791	1	-5
586.961	1	1
587.131	1	-1
587.300	1	-4
587.470	1	-1
587.640	1	1
587.810	1	1
587.980	1	1
588.149	1	1
588.319	1	-4
588.489	1	3
588.659	1	0
588.829	1	-5
588.998	1	14
589.168	1	6
589.338	1	-1
589.508	1	0
589.677	1	4
589.847	1	0
590.017	1	4
590.187	1	-1
590.357	1	7
590.526	1	12
590.696	1	1
590.866	1	5
591.036	1	-5
591.205	1	4
591.375	1	-5
591.545	1	-2
591.715	1	7
591.885	1	8
592.054	1	6
592.224	1	2
592.394	1	4
592.564	1	1
592.733	1	3
592.903	1	-7
593.073	1	10
593.243	1	-6
593.412	1	6
593.582	1	7
593.752	1	2
593.922	1	1
594.091	1	4
594.261	1	15
594.431	1	-12
594.601	1	1
594.771	1	-4
594.940	1	6
595.110	1	3
595.280	1	6
595.450	1	0
595.619	1	12
595.789	1	11
595.959	1	0
596.129	1	-2
596.298	1	-8
596.468	1	-3
596.638	1	-1
596.808	1	3
596.977	1	11
597.147	1	-2
597.317	1	2
597.487	1	7
597.656	1	17
597.826	1	6
597.996	1	3
598.166	1	6
598.335	1	-2
598.505	1	7
598.675	1	9
598.844	1	7
599.014	1	11
599.184	1	10
599.354	1	4
599.523	1	9
599.693	1	0
599.863	1	-8
600.033	1	7
600.202	1	9
600.372	1	10
600.542	1	6
600.712	1	7
600.881	1	1
601.051	1	-4
601.221	1	0
601.390	1	12
601.560	1	16
601.730	1	2
601.900	1	11
602.069	1	2
602.239	1	-2
602.409	1	-2
602.578	1	-2
602.748	1	-4
602.918	1	2
603.088	1	0
603.257	1	-4
603.427	1	12
603.597	1	15
603.767	1	4
603.936	1	12
604.106	1	11
604.276	1	-2
604.445	1	5
604.615	1	-13
604.785	1	9
604.954	1	-9
605.124	1	5
605.294	1	7
605.464	1	0
605.633	1	3
605.803	1	4
605.973	1	-11
606.142	1	4
606.312	1	-5
606.482	1	3
606.652	1	-7
606.821	1	18
606.991	1	20
607.161	1	2
607.330	1	3
607.500	1	15
607.670	1	8
607.839	1	0
608.009	1	1
608.179	1	3
608.348	1	8
608.518	1	0
608.688	1	1
608.858	1	1
609.027	1	6
609.197	1	7
609.367	1	3
609.536	1	-1
609.706	1	3
609.876	1	-6
610.045	1	4
610.215	1	1
610.385	1	-4
610.554	1	0
610.724	1	-3
610.894	1	4
611.063	1	3
611.233	1	-5
611.403	1	5
611.572	1	0
611.742	1	-8
611.912	1	3
612.081	1	-1
612.251	1	16
612.421	1	-4
612.590	1	-7
612.760	1	-8
612.930	1	0
613.099	1	9
613.269	1	8
613.439	1	2
613.608	1	10
613.778	1	11
613.948	1	6
614.117	1	5
614.287	1	2
614.457	1	-6
614.626	1	-10
614.796	1	3
614.966	1	1
615.135	1	0
615.305	1	-4
615.475	1	-1
615.644	1	8
615.814	1	4
615.984	1	12
616.153	1	4
616.323	1	7
616.493	1	-15
616.662	1	5
616.832	1	8
617.002	1	1
617.171	1	5
617.341	1	1
617.511	1	9
617.680	1	4
617.850	1	-1
618.019	1	-3
618.189	1	2
618.359	1	3
618.528	1	-3
618.698	1	6
618.868	1	-5
619.037	1	-3
619.207	1	8
619.377	1	2
619.546	1	7
619.716	1	-1
619.885	1	-1
620.055	1	-3
620.225	1	3
620.394	1	11
620.564	1	-5
620.734	1	6
620.903	1	10
621.073	1	11
621.242	1	-5
621.412	1	10
621.582	1	0
621.751	1	-4
621.921	1	5
622.091	1	7
622.260	1	6
622.430	1	3
622.599	1	1
622.769	1	2
622.939	1	-5
623.108	1	-4
623.278	1	7
623.448	1	5
623.617	1	-10
623.787	1	-7
623.956	1	8
624.126	1	-1
624.296	1	7
624.465	1	6
624.635	1	12
624.804	1	-6
624.974	1	1
625.144	1	3
625.313	1	3
625.483	1	15
625.652	1	4
625.822	1	-4
625.992	1	9
626.161	1	0
626.331	1	4
626.501	1	3
626.670	1	12
626.840	1	9
627.009	1	4
627.179	1	-4
627.348	1	1
627.518	1	-1
627.688	1	12
627.857	1	6
628.027	1	1
628.196	1	10
628.366	1	5
628.536	1	0
628.705	1	-2
628.875	1	11
629.044	1	-10
629.214	1	12
629.384	1	-5
629.553	1	13
629.723	1	6
629.892	1	2
630.062	1	7
630.232	1	4
630.401	1	6
630.571	1	5
630.740	1	-1
630.910	1	0
631.079	1	4
631.249	1	2
631.419	1	5
631.588	1	-5
631.758	1	5
631.927	1	0
632.097	1	-5
632.266	1	1
632.436	1	3
632.606	1	3
632.775	1	3
632.945	1	5
633.114	1	-5
633.284	1	-5
633.453	1	-1
633.623	1	2
633.793	1	16
633.962	1	4
634.132	1	2
634.301	1	7
634.471	1	16
634.640	1	-3
634.810	1	1
634.979	1	-8
635.149	1	3
635.319	1	2
635.488	1	2
635.658	1	15
635.827	1	-2
635.997	1	6
636.166	1	-1
636.336	1	6
636.505	1	-2
636.675	1	3
636.845	1	5
637.014	1	19
637.184	1	7
637.353	1	12
637.523	1	2
637.692	1	7
637.862	1	7
638.031	1	0
638.201	1	-3
638.370	1	-8
638.540	1	1
638.710	1	12
638.879	1	4
639.049	1	2
639.218	1	-1
639.388	1	-2
639.557	1	-5
639.727	1	4
639.896	1	2
640.066	1	-2
640.235	1	8
640.405	1	1
640.574	1	7
640.744	1	15
640.914	1	-3
641.083	1	11
641.253	1	6
641.422	1	-2
641.592	1	12
641.761	1	-9
641.931	1	1
642.100	1	-1
642.270	1	5
642.439	1	1
642.609	1	-6
642.778	1	-5
642.948	1	-2
643.117	1	9
643.287	1	6
643.456	1	5
643.626	1	4
643.795	1	3
643.965	1	5
644.134	1	-2
644.304	1	0
644.473	1	5
644.643	1	-6
644.812	1	0
644.982	1	-7
645.151	1	13
645.321	1	5
645.490	1	6
645.660	1	-4
645.829	1	9
645.999	1	-3
646.168	1	9
646.338	1	10
646.507	1	3
646.677	1	-4
646.846	1	1
647.016	1	-1
647.185	1	0
647.355	1	0
647.524	1	-5
647.694	1	0
647.863	1	-11
648.033	1	-4
648.202	1	17
648.372	1	9
648.541	1	0
648.711	1	4
648.880	1	8
649.050	1	4
649.219	1	2
649.389	1	9
649.558	1	7
649.728	1	5
649.897	1	-4
650.067	1	0
650.236	1	9
650.406	1	7
650.575	1	-6
650.745	1	13
650.914	1	0
651.084	1	7
651.253	1	13
651.423	1	-6
651.592	1	-2
651.762	1	6
651.931	1	12
652.101	1	3
652.270	1	-7
652.440	1	-5
652.609	1	-4
652.778	1	5
652.948	1	1
653.117	1	6
653.287	1	-1
653.456	1	4
653.626	1	7
653.795	1	-2
653.965	1	10
654.134	1	12
654.304	1	12
654.473	1	14
654.643	1	-4
654.812	1	4
654.982	1	0
655.151	1	-5
655.320	1	4
655.490	1	5
655.659	1	16
655.829	1	4
655.998	1	1
656.168	1	5
656.337	1	-3
656.507	1	3
656.676	1	-9
656.846	1	-4
657.015	1	6
657.184	1	4
657.354	1	5
657.523	1	0
657.693	1	-2
657.862	1	-3
658.032	1	10
658.201	1	4
658.371	1	8
658.540	1	-8
658.709	1	4
658.879	1	5
659.048	1	5
659.218	1	5
659.387	1	-1
659.557	1	5
659.726	1	8
659.895	1	3
660.065	1	3
660.234	1	1
660.404	1	1
660.573	1	-8
660.743	1	8
660.912	1	14
661.081	1	18
661.251	1	5
661.420	1	9
661.590	1	3
661.759	1	-6
661.929	1	4
662.098	1	3
662.267	1	-2
662.437	1	3
662.606	1	-1
662.776	1	-4
662.945	1	5
663.115	1	2
663.284	1	1
663.453	1	-7
663.623	1	-5
663.792	1	-1
663.962	1	3
664.131	1	14
664.300	1	13
664.470	1	11
664.639	1	3
664.809	1	-3
664.978	1	-6
665.148	1	1
665.317	1	-2
665.486	1	9
665.656	1	-8
665.825	1	10
665.995	1	-1
666.164	1	5
666.333	1	-2
666.503	1	14
666.672	1	12
666.842	1	-1
667.011	1	5
667.180	1	0
667.350	1	8
667.519	1	-4
667.689	1	5
667.858	1	-6
668.027	1	2
668.197	1	10
668.366	1	12
668.536	1	4
668.705	1	-2
668.874	1	-10
669.044	1	-6
669.213	1	5
669.382	1	-4
669.552	1	17
669.721	1	5
669.891	1	-5
670.060	1	2
670.229	1	-6
670.399	1	0
670.568	1	6
670.738	1	7
670.907	1	2
671.076	1	11
671.246	1	4
671.415	1	-11
671.584	1	3
671.754	1	1
671.923	1	3
672.093	1	4
672.262	1	3
672.431	1	11
672.601	1	4
672.770	1	0
672.939	1	6
673.109	1	-2
673.278	1	-6
673.448	1	8
673.617	1	5
673.786	1	5
