325.333	1	18
325.504	1	-1
325.675	1	-3
325.846	1	-5
326.017	1	1
326.188	1	-7
326.359	1	-15
326.531	1	14
326.702	1	1
326.873	1	1
327.044	1	-14
327.215	1	7
327.386	1	5
327.557	1	-2
327.728	1	-5
327.899	1	1
328.070	1	-2
328.241	1	15
328.412	1	2
328.583	1	-5
328.754	1	-4
328.926	1	2
329.097	1	7
329.268	1	-13
329.439	1	2
329.610	1	10
329.781	1	6
329.952	1	4
330.123	1	-1
330.294	1	4
330.465	1	6
330.636	1	7
330.807	1	2
330.978	1	0
331.149	1	2
331.320	1	-1
331.492	1	3
331.663	1	0
331.834	1	2
332.005	1	1
332.176	1	11
332.347	1	-5
332.518	1	14
332.689	1	3
332.860	1	-2
333.031	1	6
333.202	1	-1
333.373	1	5
333.544	1	2
333.715	1	-3
333.886	1	13
334.057	1	7
334.228	1	0
334.399	1	-3
334.570	1	9
334.741	1	-5
334.912	1	7
335.084	1	7
335.255	1	14
335.426	1	-4
335.597	1	5
335.768	1	9
335.939	1	0
336.110	1	3
336.281	1	3
336.452	1	1
336.623	1	-2
336.794	1	6
336.965	1	13
337.136	1	-2
337.307	1	1
337.478	1	-9
337.649	1	-14
337.820	1	15
337.991	1	7
338.162	1	-3
338.333	1	7
338.504	1	14
338.675	1	3
338.846	1	11
339.017	1	-3
339.188	1	2
339.359	1	8
339.530	1	4
339.701	1	-2
339.872	1	7
340.043	1	1
340.214	1	11
340.385	1	-9
340.556	1	12
340.727	1	12
340.898	1	5
341.069	1	4
341.240	1	-5
341.411	1	3
341.582	1	5
341.753	1	4
341.924	1	5
342.095	1	14
342.266	1	-11
342.437	1	14
342.608	1	-1
342.779	1	10
342.950	1	0
343.121	1	7
343.292	1	10
343.463	1	4
343.634	1	3
343.805	1	3
343.976	1	6
344.147	1	3
344.318	1	16
344.489	1	2
344.660	1	8
344.831	1	9
345.002	1	-3
345.173	1	-3
345.344	1	-3
345.515	1	-1
345.686	1	-4
345.857	1	15
346.028	1	8
346.199	1	0
346.370	1	7
346.541	1	5
346.712	1	0
346.883	1	-4
347.054	1	8
347.225	1	-10
347.396	1	-5
347.567	1	5
347.738	1	0
347.909	1	10
348.080	1	4
348.251	1	1
348.422	1	2
348.593	1	6
348.764	1	-1
348.935	1	0
349.106	1	-2
349.277	1	2
349.448	1	-4
349.619	1	4
349.790	1	-1
349.961	1	0
350.132	1	3
350.303	1	-6
350.474	1	8
350.645	1	6
350.816	1	6
350.987	1	12
351.157	1	0
351.328	1	3
351.499	1	1
351.670	1	6
351.841	1	6
352.012	1	12
352.183	1	9
352.354	1	10
352.525	1	5
352.696	1	6
352.867	1	-3
353.038	1	1
353.209	1	-5
353.380	1	-7
353.551	1	1
353.722	1	-8
353.893	1	1
354.064	1	3
354.235	1	1
354.406	1	0
354.576	1	-3
354.747	1	17
354.918	1	8
355.089	1	6
355.260	1	12
355.431	1	-10
355.602	1	1
355.773	1	-7
355.944	1	9
356.115	1	21
356.286	1	9
356.457	1	11
356.628	1	12
356.799	1	4
356.970	1	12
357.141	1	1
357.311	1	1
357.482	1	7
357.653	1	-1
357.824	1	5
357.995	1	8
358.166	1	9
358.337	1	10
358.508	1	-3
358.679	1	3
358.850	1	3
359.021	1	-1
359.192	1	-2
359.363	1	2
359.533	1	6
359.704	1	-4
359.875	1	2
360.046	1	1
360.217	1	7
360.388	1	0
360.559	1	15
360.730	1	-3
360.901	1	6
361.072	1	9
361.243	1	12
361.414	1	-1
361.584	1	6
361.755	1	9
361.926	1	3
362.097	1	10
362.268	1	8
362.439	1	1
362.610	1	-1
362.781	1	3
362.952	1	1
363.123	1	-8
363.293	1	14
363.464	1	18
363.635	1	15
363.806	1	0
363.977	1	3
364.148	1	6
364.319	1	5
364.490	1	-1
364.661	1	2
364.832	1	0
365.002	1	1
365.173	1	-2
365.344	1	4
365.515	1	-2
365.686	1	-6
365.857	1	-1
366.028	1	0
366.199	1	4
366.370	1	13
366.540	1	3
366.711	1	10
366.882	1	8
367.053	1	1
367.224	1	7
367.395	1	7
367.566	1	6
367.737	1	3
367.908	1	13
368.078	1	-4
368.249	1	12
368.420	1	0
368.591	1	8
368.762	1	3
368.933	1	-1
369.104	1	5
369.274	1	7
369.445	1	8
369.616	1	-4
369.787	1	-2
369.958	1	5
370.129	1	12
370.300	1	12
370.471	1	-2
370.641	1	9
370.812	1	5
370.983	1	0
371.154	1	7
371.325	1	-8
371.496	1	2
371.667	1	-2
371.837	1	1
372.008	1	11
372.179	1	2
372.350	1	9
372.521	1	9
372.692	1	-5
372.863	1	8
373.033	1	-4
373.204	1	0
373.375	1	-5
373.546	1	-3
373.717	1	-12
373.888	1	10
374.059	1	0
374.229	1	11
374.400	1	8
374.571	1	4
374.742	1	7
374.913	1	-2
375.084	1	5
375.254	1	-6
375.425	1	3
375.596	1	-1
375.767	1	9
375.938	1	5
376.109	1	4
376.279	1	-4
376.450	1	20
376.621	1	7
376.792	1	12
376.963	1	-14
377.134	1	4
377.304	1	5
377.475	1	5
377.646	1	-1
377.817	1	5
377.988	1	13
378.159	1	-6
378.329	1	4
378.500	1	5
378.671	1	7
378.842	1	-3
379.013	1	4
379.184	1	1
379.354	1	8
379.525	1	-4
379.696	1	2
379.867	1	7
380.038	1	10
380.209	1	7
380.379	1	10
380.550	1	2
380.721	1	4
380.892	1	-7
381.063	1	3
381.233	1	7
381.404	1	5
381.575	1	15
381.746	1	-1
381.917	1	0
382.087	1	10
382.258	1	9
382.429	1	-5
382.600	1	9
382.771	1	10
382.941	1	4
383.112	1	-5
383.283	1	4
383.454	1	2
383.625	1	4
383.795	1	16
383.966	1	5
384.137	1	13
384.308	1	4
384.479	1	9
384.649	1	12
384.820	1	10
384.991	1	-3
385.162	1	10
385.333	1	0
385.503	1	-1
385.674	1	3
385.845	1	4
386.016	1	-4
386.187	1	2
386.357	1	21
386.528	1	8
386.699	1	14
386.870	1	-1
387.041	1	5
387.211	1	1
387.382	1	1
387.553	1	9
387.724	1	4
387.894	1	9
388.065	1	10
388.236	1	-1
388.407	1	9
388.578	1	3
388.748	1	-8
388.919	1	9
389.090	1	-1
389.261	1	5
389.431	1	8
389.602	1	-4
389.773	1	0
389.944	1	7
390.114	1	9
390.285	1	13
390.456	1	8
390.627	1	8
390.798	1	6
390.968	1	-4
391.139	1	16
391.310	1	6
391.481	1	4
391.651	1	9
391.822	1	17
391.993	1	17
392.164	1	4
392.334	1	5
392.505	1	9
392.676	1	15
392.847	1	8
393.017	1	6
393.188	1	9
393.359	1	3
393.530	1	6
393.700	1	2
393.871	1	6
394.042	1	-6
394.213	1	10
394.383	1	14
394.554	1	6
394.725	1	-1
394.896	1	5
395.066	1	10
395.237	1	7
395.408	1	4
395.579	1	1
395.749	1	8
395.920	1	6
396.091	1	-2
396.262	1	3
396.432	1	3
396.603	1	9
396.774	1	-4
396.945	1	0
397.115	1	6
397.286	1	6
397.457	1	2
397.627	1	6
397.798	1	10
397.969	1	4
398.140	1	3
398.310	1	10
398.481	1	15
398.652	1	11
398.823	1	1
398.993	1	0
399.164	1	4
399.335	1	14
399.505	1	9
399.676	1	11
399.847	1	3
400.018	1	13
400.188	1	4
400.359	1	9
400.530	1	13
400.700	1	3
400.871	1	6
401.042	1	8
401.213	1	12
401.383	1	1
401.554	1	4
401.725	1	2
401.895	1	-1
402.066	1	2
402.237	1	5
402.408	1	9
402.578	1	-7
402.749	1	4
402.920	1	18
403.090	1	14
403.261	1	13
403.432	1	6
403.603	1	0
403.773	1	8
403.944	1	9
404.115	1	-3
404.285	1	13
404.456	1	-8
404.627	1	13
404.797	1	16
404.968	1	8
405.139	1	3
405.310	1	12
405.480	1	10
405.651	1	-6
405.822	1	5
405.992	1	7
406.163	1	14
406.334	1	6
406.504	1	11
406.675	1	0
406.846	1	3
407.016	1	19
407.187	1	1
407.358	1	16
407.528	1	-2
407.699	1	-3
407.870	1	7
408.041	1	15
408.211	1	11
408.382	1	33
408.553	1	-8
408.723	1	3
408.894	1	20
409.065	1	6
409.235	1	4
409.406	1	1
409.577	1	11
409.747	1	18
409.918	1	2
410.089	1	9
410.259	1	10
410.430	1	6
410.601	1	-1
410.771	1	5
410.942	1	7
411.113	1	17
411.283	1	5
411.454	1	15
411.625	1	8
411.795	1	9
411.966	1	12
412.137	1	18
412.307	1	-2
412.478	1	10
412.649	1	-1
412.819	1	13
412.990	1	3
413.161	1	14
413.331	1	7
413.502	1	11
413.672	1	0
413.843	1	1
414.014	1	6
414.184	1	8
414.355	1	8
414.526	1	-6
414.696	1	10
414.867	1	2
415.038	1	4
415.208	1	-2
415.379	1	8
415.550	1	5
415.720	1	-5
415.891	1	5
416.062	1	1
416.232	1	14
416.403	1	8
416.573	1	13
416.744	1	12
416.915	1	4
417.085	1	9
417.256	1	4
417.427	1	3
417.597	1	12
417.768	1	-4
417.939	1	3
418.109	1	10
418.280	1	8
418.450	1	9
418.621	1	8
418.792	1	2
418.962	1	7
419.133	1	8
419.304	1	9
419.474	1	2
419.645	1	5
419.815	1	2
419.986	1	8
420.157	1	10
420.327	1	0
420.498	1	11
420.669	1	4
420.839	1	1
421.010	1	2
421.180	1	6
421.351	1	21
421.522	1	10
421.692	1	6
421.863	1	7
422.033	1	9
422.204	1	7
422.375	1	5
422.545	1	10
422.716	1	9
422.886	1	6
423.057	1	15
423.228	1	1
423.398	1	10
423.569	1	19
423.740	1	11
423.910	1	3
424.081	1	12
424.251	1	11
424.422	1	7
424.593	1	1
424.763	1	3
424.934	1	2
425.104	1	-1
425.275	1	10
425.445	1	8
425.616	1	3
425.787	1	4
425.957	1	11
426.128	1	14
426.298	1	-3
426.469	1	15
426.640	1	-2
426.810	1	10
426.981	1	0
427.151	1	11
427.322	1	6
427.493	1	3
427.663	1	2
427.834	1	5
428.004	1	16
428.175	1	-6
428.345	1	3
428.516	1	11
428.687	1	15
428.857	1	9
429.028	1	-2
429.198	1	7
429.369	1	-1
429.540	1	4
429.710	1	7
429.881	1	6
430.051	1	0
430.222	1	8
430.392	1	14
430.563	1	13
430.734	1	10
430.904	1	14
431.075	1	-2
431.245	1	4
431.416	1	4
431.586	1	8
431.757	1	16
431.927	1	6
432.098	1	8
432.269	1	13
432.439	1	-4
432.610	1	7
432.780	1	4
432.951	1	19
433.121	1	5
433.292	1	13
433.462	1	7
433.633	1	10
433.804	1	4
433.974	1	11
434.145	1	4
434.315	1	4
434.486	1	1
434.656	1	19
434.827	1	7
434.997	1	3
435.168	1	11
435.339	1	3
435.509	1	5
435.680	1	9
435.850	1	2
436.021	1	-1
436.191	1	8
436.362	1	3
436.532	1	19
436.703	1	7
436.873	1	14
437.044	1	18
437.214	1	-8
437.385	1	16
437.556	1	0
437.726	1	12
437.897	1	-5
438.067	1	8
438.238	1	11
438.408	1	11
438.579	1	18
438.749	1	11
438.920	1	-5
439.090	1	-2
439.261	1	16
439.431	1	5
439.602	1	12
439.772	1	12
439.943	1	0
440.113	1	8
440.284	1	25
440.455	1	15
440.625	1	5
440.796	1	9
440.966	1	9
441.137	1	12
441.307	1	11
441.478	1	5
441.648	1	6
441.819	1	5
441.989	1	12
442.160	1	17
442.330	1	-1
442.501	1	2
442.671	1	6
442.842	1	2
443.012	1	6
443.183	1	4
443.353	1	10
443.524	1	8
443.694	1	13
443.865	1	8
444.035	1	10
444.206	1	3
444.376	1	19
444.547	1	-5
444.717	1	-4
444.888	1	9
445.058	1	-3
445.229	1	12
445.399	1	11
445.570	1	6
445.740	1	7
445.911	1	-3
446.081	1	7
446.252	1	6
446.422	1	-2
446.593	1	7
446.763	1	24
446.934	1	11
447.104	1	3
447.275	1	11
447.445	1	17
447.616	1	-10
447.786	1	4
447.957	1	8
448.127	1	6
448.298	1	13
448.468	1	13
448.639	1	9
448.809	1	1
448.979	1	10
449.150	1	8
449.320	1	12
449.491	1	-2
449.661	1	11
449.832	1	11
450.002	1	9
450.173	1	14
450.343	1	10
450.514	1	0
450.684	1	-1
450.855	1	12
451.025	1	2
451.196	1	1
451.366	1	12
451.537	1	6
451.707	1	10
451.878	1	9
452.048	1	9
452.218	1	3
452.389	1	12
452.559	1	1
452.730	1	7
452.900	1	18
453.071	1	-1
453.241	1	0
453.412	1	11
453.582	1	12
453.753	1	8
453.923	1	10
454.093	1	14
454.264	1	8
454.434	1	2
454.605	1	1
454.775	1	1
454.946	1	6
455.116	1	-1
455.287	1	18
455.457	1	13
455.628	1	-1
455.798	1	-4
455.968	1	7
456.139	1	-7
456.309	1	11
456.480	1	0
456.650	1	-2
456.821	1	-3
456.991	1	8
457.161	1	9
457.332	1	-1
457.502	1	3
457.673	1	4
457.843	1	7
458.014	1	7
458.184	1	14
458.355	1	15
458.525	1	2
458.695	1	12
458.866	1	23
459.036	1	-4
459.207	1	-5
459.377	1	8
459.548	1	-2
459.718	1	4
459.888	1	5
460.059	1	5
460.229	1	7
460.400	1	0
460.570	1	14
460.740	1	-8
460.911	1	10
461.081	1	15
461.252	1	5
461.422	1	11
461.593	1	12
461.763	1	10
461.933	1	10
462.104	1	1
462.274	1	-2
462.445	1	-6
462.615	1	7
462.785	1	7
462.956	1	5
463.126	1	6
463.297	1	5
463.467	1	9
463.638	1	10
463.808	1	8
463.978	1	-2
464.149	1	6
464.319	1	-4
464.490	1	5
464.660	1	5
464.830	1	8
465.001	1	9
465.171	1	9
465.342	1	9
465.512	1	6
465.682	1	3
465.853	1	9
466.023	1	-4
466.194	1	6
466.364	1	-8
466.534	1	9
466.705	1	13
466.875	1	10
467.045	1	7
467.216	1	10
467.386	1	1
467.557	1	2
467.727	1	-5
467.897	1	1
468.068	1	13
468.238	1	9
468.409	1	0
468.579	1	7
468.749	1	-1
468.920	1	-3
469.090	1	-4
469.260	1	11
469.431	1	-6
469.601	1	2
469.772	1	5
469.942	1	11
470.112	1	10
470.283	1	8
470.453	1	1
470.623	1	4
470.794	1	-5
470.964	1	11
471.135	1	21
471.305	1	16
471.475	1	9
471.646	1	1
471.816	1	18
471.986	1	7
472.157	1	6
472.327	1	7
472.497	1	13
472.668	1	-6
472.838	1	1
473.009	1	4
473.179	1	10
473.349	1	11
473.520	1	6
473.690	1	6
473.860	1	4
474.031	1	7
474.201	1	-4
474.371	1	7
474.542	1	2
474.712	1	13
474.882	1	-1
475.053	1	3
475.223	1	3
475.394	1	7
475.564	1	1
475.734	1	10
475.905	1	-1
476.075	1	18
476.245	1	-3
476.416	1	7
476.586	1	6
476.756	1	-2
476.927	1	1
477.097	1	8
477.267	1	8
477.438	1	-4
477.608	1	7
477.778	1	13
477.949	1	6
478.119	1	-6
478.289	1	4
478.460	1	6
478.630	1	-3
478.800	1	4
478.971	1	4
479.141	1	2
479.311	1	-2
479.482	1	1
479.652	1	7
479.822	1	0
479.993	1	6
480.163	1	-3
480.333	1	7
480.504	1	2
480.674	1	12
480.844	1	4
481.015	1	0
481.185	1	-2
481.355	1	16
481.525	1	3
481.696	1	4
481.866	1	19
482.036	1	2
482.207	1	0
482.377	1	-13
482.547	1	-5
482.718	1	4
482.888	1	8
483.058	1	3
483.229	1	6
483.399	1	-2
483.569	1	0
483.740	1	6
483.910	1	7
484.080	1	8
484.250	1	6
484.421	1	-2
484.591	1	2
484.761	1	11
484.932	1	-4
485.102	1	8
485.272	1	8
485.443	1	4
485.613	1	0
485.783	1	0
485.953	1	-4
486.124	1	8
486.294	1	6
486.464	1	3
486.635	1	-2
486.805	1	3
486.975	1	-5
487.146	1	2
487.316	1	5
487.486	1	6
487.656	1	-2
487.827	1	2
487.997	1	5
488.167	1	-2
488.338	1	7
488.508	1	13
488.678	1	11
488.848	1	3
489.019	1	-6
489.189	1	5
489.359	1	8
489.529	1	9
489.700	1	-1
489.870	1	6
490.040	1	20
490.211	1	1
490.381	1	0
490.551	1	5
490.721	1	5
490.892	1	-5
491.062	1	10
491.232	1	2
491.402	1	16
491.573	1	10
491.743	1	-2
491.913	1	9
492.084	1	5
492.254	1	-1
492.424	1	6
492.594	1	2
492.765	1	2
492.935	1	-9
493.105	1	7
493.275	1	5
493.446	1	4
493.616	1	3
493.786	1	-4
493.956	1	10
494.127	1	9
494.297	1	9
494.467	1	-1
494.637	1	1
494.808	1	2
494.978	1	8
495.148	1	6
495.318	1	0
495.489	1	9
495.659	1	12
495.829	1	-6
495.999	1	-2
496.170	1	9
496.340	1	-2
496.510	1	4
496.680	1	1
496.851	1	-3
497.021	1	6
497.191	1	16
497.361	1	6
497.532	1	13
497.702	1	-10
497.872	1	2
498.042	1	7
498.213	1	0
498.383	1	-4
498.553	1	7
498.723	1	0
498.894	1	-2
499.064	1	10
499.234	1	7
499.404	1	-1
499.574	1	2
499.745	1	7
499.915	1	1
500.085	1	6
500.255	1	-1
500.426	1	-1
500.596	1	-3
500.766	1	16
500.936	1	1
501.106	1	-3
501.277	1	3
501.447	1	0
501.617	1	5
501.787	1	-3
501.958	1	18
502.128	1	0
502.298	1	4
502.468	1	0
502.638	1	6
502.809	1	6
502.979	1	9
503.149	1	-1
503.319	1	1
503.489	1	-1
503.660	1	3
503.830	1	1
504.000	1	9
504.170	1	-5
504.340	1	2
504.511	1	5
504.681	1	8
504.851	1	1
505.021	1	2
505.192	1	12
505.362	1	-4
505.532	1	-7
505.702	1	4
505.872	1	-5
506.043	1	7
506.213	1	-4
506.383	1	6
506.553	1	11
506.723	1	-10
506.893	1	-9
507.064	1	17
507.234	1	-5
507.404	1	7
507.574	1	7
507.744	1	17
507.915	1	-3
508.085	1	-2
508.255	1	2
508.425	1	7
508.595	1	1
508.766	1	-6
508.936	1	-6
509.106	1	10
509.276	1	-1
509.446	1	4
509.616	1	4
509.787	1	3
509.957	1	7
510.127	1	-8
510.297	1	-7
510.467	1	9
510.638	1	4
510.808	1	-4
510.978	1	12
511.148	1	8
511.318	1	-3
511.488	1	1
511.659	1	0
511.829	1	-4
511.999	1	1
512.169	1	14
512.339	1	0
512.509	1	7
512.680	1	3
512.850	1	4
513.020	1	4
513.190	1	-2
513.360	1	9
513.530	1	13
513.700	1	14
513.871	1	-2
514.041	1	8
514.211	1	2
514.381	1	0
514.551	1	0
514.721	1	3
514.892	1	1
515.062	1	-5
515.232	1	-10
515.402	1	-1
515.572	1	10
515.742	1	2
515.912	1	9
516.083	1	6
516.253	1	2
516.423	1	0
516.593	1	-6
516.763	1	-8
516.933	1	-7
517.104	1	7
517.274	1	14
517.444	1	3
517.614	1	4
517.784	1	5
517.954	1	-4
518.124	1	-13
518.294	1	11
518.465	1	-5
518.635	1	1
518.805	1	3
518.975	1	1
519.145	1	-2
519.315	1	10
519.485	1	-4
519.656	1	13
519.826	1	11
519.996	1	3
520.166	1	-7
520.336	1	1
520.506	1	-13
520.676	1	-5
520.846	1	10
521.017	1	6
521.187	1	-2
521.357	1	-2
521.527	1	4
521.697	1	2
521.867	1	1
522.037	1	3
522.207	1	5
522.377	1	8
522.548	1	0
522.718	1	-7
522.888	1	11
523.058	1	4
523.228	1	6
523.398	1	2
523.568	1	6
523.738	1	2
523.909	1	-1
524.079	1	-3
524.249	1	2
524.419	1	2
524.589	1	1
524.759	1	-2
524.929	1	-1
525.099	1	-4
525.269	1	6
525.439	1	5
525.610	1	13
525.780	1	15
525.950	1	8
526.120	1	2
526.290	1	-9
526.460	1	9
526.630	1	11
526.800	1	4
526.970	1	-3
527.140	1	-2
527.311	1	0
527.481	1	2
527.651	1	-1
527.821	1	16
527.991	1	1
528.161	1	-6
528.331	1	6
528.501	1	11
528.671	1	-8
528.841	1	-1
529.011	1	6
529.181	1	3
529.352	1	13
529.522	1	5
529.692	1	-2
529.862	1	-8
530.032	1	7
530.202	1	-2
530.372	1	-12
530.542	1	6
530.712	1	13
530.882	1	4
531.052	1	1
531.222	1	-7
531.392	1	0
531.563	1	-4
531.733	1	-17
531.903	1	-5
532.073	1	-1
532.243	1	8
532.413	1	-5
532.583	1	-1
532.753	1	15
532.923	1	8
533.093	1	13
533.263	1	12
533.433	1	5
533.603	1	-1
533.773	1	-13
533.943	1	-1
534.113	1	3
534.284	1	-2
534.454	1	0
534.624	1	3
534.794	1	4
534.964	1	8
535.134	1	2
535.304	1	-2
535.474	1	1
535.644	1	7
535.814	1	2
535.984	1	-4
536.154	1	-1
536.324	1	-10
536.494	1	8
536.664	1	-7
536.834	1	1
537.004	1	-14
537.174	1	5
537.344	1	-4
537.514	1	-3
537.685	1	3
537.855	1	10
538.025	1	5
538.195	1	-2
538.365	1	1
538.535	1	-5
538.705	1	-2
538.875	1	5
539.045	1	4
539.215	1	-4
539.385	1	-5
539.555	1	1
539.725	1	5
539.895	1	0
540.065	1	5
540.235	1	1
540.405	1	3
540.575	1	-4
540.745	1	10
540.915	1	10
541.085	1	6
541.255	1	-2
541.425	1	-2
541.595	1	8
541.765	1	-4
541.935	1	8
542.105	1	2
542.275	1	9
542.445	1	6
542.615	1	-4
542.785	1	-8
542.955	1	0
543.125	1	-5
543.295	1	-6
543.465	1	1
543.635	1	3
543.805	1	3
543.975	1	7
544.145	1	7
544.315	1	5
544.485	1	-2
544.655	1	0
544.825	1	-4
544.995	1	3
545.165	1	3
545.335	1	-7
545.505	1	-1
545.675	1	1
545.845	1	1
546.015	1	-6
546.185	1	2
546.355	1	9
546.525	1	-5
546.695	1	2
546.865	1	-11
547.035	1	8
547.205	1	11
547.375	1	-6
547.545	1	8
547.715	1	-1
547.885	1	3
548.055	1	4
548.225	1	3
548.395	1	6
548.565	1	4
548.735	1	7
548.905	1	-11
549.075	1	-2
549.245	1	10
549.415	1	0
549.585	1	-5
549.755	1	7
549.925	1	15
550.095	1	5
550.265	1	0
550.435	1	3
550.605	1	2
550.775	1	0
550.945	1	2
551.115	1	2
551.285	1	0
551.455	1	2
551.625	1	8
551.795	1	8
551.965	1	4
552.135	1	12
552.305	1	1
552.475	1	12
552.645	1	4
552.815	1	-2
552.985	1	-3
553.155	1	-5
553.325	1	3
553.495	1	-4
553.665	1	-2
553.835	1	10
554.004	1	11
554.174	1	-3
554.344	1	-14
554.514	1	-3
554.684	1	0
554.854	1	5
555.024	1	5
555.194	1	9
555.364	1	3
555.534	1	17
555.704	1	-2
555.874	1	4
556.044	1	10
556.214	1	0
556.384	1	-5
556.554	1	2
556.724	1	10
556.894	1	-2
557.064	1	1
557.234	1	9
557.404	1	11
557.573	1	-3
557.743	1	-8
557.913	1	0
558.083	1	7
558.253	1	-6
558.423	1	3
558.593	1	18
558.763	1	14
558.933	1	3
559.103	1	-1
559.273	1	5
559.443	1	2
559.613	1	1
559.783	1	12
559.953	1	10
560.122	1	2
560.292	1	-5
560.462	1	2
560.632	1	7
560.802	1	11
560.972	1	6
561.142	1	-5
561.312	1	-13
561.482	1	11
561.652	1	0
561.822	1	6
561.992	1	0
562.162	1	-6
562.331	1	-6
562.501	1	-5
562.671	1	-7
562.841	1	-11
563.011	1	-4
563.181	1	0
563.351	1	9
563.521	1	1
563.691	1	-4
563.861	1	8
564.031	1	17
564.201	1	11
564.370	1	-7
564.540	1	13
564.710	1	-10
564.880	1	3
565.050	1	6
565.220	1	1
565.390	1	-2
565.560	1	-5
565.730	1	-7
565.900	1	7
566.069	1	-4
566.239	1	1
566.409	1	-5
566.579	1	8
566.749	1	0
566.919	1	8
567.089	1	4
567.259	1	-9
567.429	1	-6
567.599	1	4
567.768	1	18
567.938	1	1
568.108	1	-2
568.278	1	3
568.448	1	-8
568.618	1	6
568.788	1	10
568.958	1	4
569.128	1	4
569.297	1	-7
569.467	1	-2
569.637	1	-5
569.807	1	-4
569.977	1	4
570.147	1	3
570.317	1	-6
570.487	1	-10
570.656	1	4
570.826	1	-2
570.996	1	4
571.166	1	3
571.336	1	3
571.506	1	8
571.676	1	1
571.846	1	3
572.015	1	-8
572.185	1	-2
572.355	1	-5
572.525	1	-5
572.695	1	-4
572.865	1	-2
573.035	1	-3
573.205	1	4
573.374	1	20
573.544	1	1
573.714	1	5
573.884	1	9
574.054	1	6
574.224	1	-2
574.394	1	0
574.563	1	15
574.733	1	4
574.903	1	-3
575.073	1	7
575.243	1	10
575.413	1	9
575.583	1	11
575.752	1	5
575.922	1	-3
576.092	1	-4
576.262	1	6
576.432	1	-2
576.602	1	-9
576.772	1	-3
576.941	1	5
577.111	1	-1
577.281	1	-5
577.451	1	0
577.621	1	-6
577.791	1	7
577.960	1	-1
578.130	1	-7
578.300	1	-13
578.470	1	8
578.640	1	-7
578.810	1	1
578.979	1	-1
579.149	1	1
579.319	1	8
579.489	1	5
579.659	1	2
579.829	1	0
579.998	1	7
580.168	1	2
580.338	1	2
580.508	1	9
580.678	1	-3
580.848	1	5
581.017	1	11
581.187	1	3
581.357	1	-3
581.527	1	9
581.697	1	8
581.867	1	-7
582.036	1	2
582.206	1	-1
582.376	1	5
582.546	1	-2
582.716	1	1
582.885	1	-11
583.055	1	9
583.225	1	-7
583.395	1	-4
583.565	1	-1
583.735	1	2
583.904	1	2
584.074	1	-5
584.244	1	16
584.414	1	-6
584.584	1	4
584.753	1	-9
584.923	1	1
585.093	1	-1
585.263	1	4
585.433	1	-11
585.602	1	3
585.772	1	-1
585.942	1	4
586.112	1	6
586.282	1	2
586.451	1	-3
586.621	1	-1
586.791	1	-14
586.961	1	6
587.131	1	2
587.300	1	3
587.470	1	-2
587.640	1	1
587.810	1	-2
587.980	1	-2
588.149	1	5
588.319	1	0
588.489	1	5
588.659	1	4
588.829	1	-4
588.998	1	15
589.168	1	-1
589.338	1	4
589.508	1	0
589.677	1	9
589.847	1	-2
590.017	1	3
590.187	1	15
590.357	1	6
590.526	1	3
590.696	1	-3
590.866	1	9
591.036	1	7
591.205	1	-2
591.375	1	-5
591.545	1	7
591.715	1	7
591.885	1	13
592.054	1	2
592.224	1	6
592.394	1	-3
592.564	1	2
592.733	1	6
592.903	1	1
593.073	1	4
593.243	1	-3
593.412	1	2
593.582	1	0
593.752	1	4
593.922	1	-2
594.091	1	3
594.261	1	5
594.431	1	1
594.601	1	-14
594.771	1	-4
594.940	1	-7
595.110	1	6
595.280	1	7
595.450	1	-2
595.619	1	4
595.789	1	1
595.959	1	5
596.129	1	-4
596.298	1	-2
596.468	1	-7
596.638	1	-3
596.808	1	3
596.977	1	-3
597.147	1	3
597.317	1	-8
597.487	1	0
597.656	1	9
597.826	1	5
597.996	1	8
598.166	1	5
598.335	1	0
598.505	1	1
598.675	1	15
598.844	1	4
599.014	1	3
599.184	1	1
599.354	1	9
599.523	1	5
599.693	1	5
599.863	1	-3
600.033	1	1
600.202	1	-1
600.372	1	3
600.542	1	12
600.712	1	1
600.881	1	4
601.051	1	-7
601.221	1	4
601.390	1	7
601.560	1	0
601.730	1	-3
601.900	1	8
602.069	1	6
602.239	1	-1
602.409	1	2
602.578	1	-1
602.748	1	-5
602.918	1	-7
603.088	1	-4
603.257	1	-2
603.427	1	5
603.597	1	7
603.767	1	7
603.936	1	6
604.106	1	7
604.276	1	1
604.445	1	-2
604.615	1	-10
604.785	1	-1
604.954	1	1
605.124	1	3
605.294	1	-1
605.464	1	-8
605.633	1	-2
605.803	1	11
605.973	1	-10
606.142	1	1
606.312	1	-2
606.482	1	9
606.652	1	1
606.821	1	12
606.991	1	7
607.161	1	-5
607.330	1	-5
607.500	1	10
607.670	1	15
607.839	1	-1
608.009	1	8
608.179	1	0
608.348	1	8
608.518	1	-11
608.688	1	1
608.858	1	-6
609.027	1	-2
609.197	1	1
609.367	1	0
609.536	1	-1
609.706	1	4
609.876	1	2
610.045	1	0
610.215	1	2
610.385	1	-6
610.554	1	0
610.724	1	1
610.894	1	18
611.063	1	5
611.233	1	-4
611.403	1	7
611.572	1	0
611.742	1	-4
611.912	1	8
612.081	1	2
612.251	1	6
612.421	1	0
612.590	1	-9
612.760	1	-5
612.930	1	-8
613.099	1	6
613.269	1	-1
613.439	1	-1
613.608	1	7
613.778	1	10
613.948	1	2
614.117	1	-3
614.287	1	6
614.457	1	-3
614.626	1	-11
614.796	1	9
614.966	1	-7
615.135	1	4
615.305	1	-2
615.475	1	0
615.644	1	2
615.814	1	2
615.984	1	14
616.153	1	1
616.323	1	9
616.493	1	-11
616.662	1	7
616.832	1	4
617.002	1	-1
617.171	1	10
617.341	1	-4
617.511	1	11
617.680	1	-2
617.850	1	2
618.019	1	-13
618.189	1	5
618.359	1	0
618.528	1	0
618.698	1	7
618.868	1	7
619.037	1	2
619.207	1	6
619.377	1	-2
619.546	1	8
619.716	1	0
619.885	1	-3
620.055	1	-6
620.225	1	4
620.394	1	7
620.564	1	0
620.734	1	12
620.903	1	5
621.073	1	2
621.242	1	-2
621.412	1	21
621.582	1	-9
621.751	1	-1
621.921	1	4
622.091	1	7
622.260	1	-2
622.430	1	2
622.599	1	-2
622.769	1	4
622.939	1	1
623.108	1	-6
623.278	1	-3
623.448	1	3
623.617	1	-2
623.787	1	-3
623.956	1	3
624.126	1	-2
624.296	1	9
624.465	1	11
624.635	1	8
624.804	1	-3
624.974	1	-4
625.144	1	7
625.313	1	10
625.483	1	16
625.652	1	-9
625.822	1	-1
625.992	1	9
626.161	1	2
626.331	1	4
626.501	1	1
626.670	1	3
626.840	1	-3
627.009	1	9
627.179	1	-4
627.348	1	6
627.518	1	-5
627.688	1	5
627.857	1	4
628.027	1	15
628.196	1	5
628.366	1	5
628.536	1	-13
628.705	1	-1
628.875	1	4
629.044	1	-1
629.214	1	1
629.384	1	8
629.553	1	8
629.723	1	-1
629.892	1	2
630.062	1	4
630.232	1	1
630.401	1	6
630.571	1	7
630.740	1	1
630.910	1	2
631.079	1	-1
631.249	1	-3
631.419	1	5
631.588	1	-2
631.758	1	10
631.927	1	-1
632.097	1	-4
632.266	1	-4
632.436	1	1
632.606	1	-7
632.775	1	3
632.945	1	-1
633.114	1	-7
633.284	1	-2
633.453	1	-3
633.623	1	11
633.793	1	6
633.962	1	-2
634.132	1	5
634.301	1	-10
634.471	1	6
634.640	1	-6
634.810	1	-2
634.979	1	1
635.149	1	6
635.319	1	0
635.488	1	2
635.658	1	16
635.827	1	-10
635.997	1	9
636.166	1	-5
636.336	1	-2
636.505	1	-6
636.675	1	11
636.845	1	-7
637.014	1	22
637.184	1	6
637.353	1	9
637.523	1	9
637.692	1	9
637.862	1	-5
638.031	1	-2
638.201	1	-3
638.370	1	-2
638.540	1	-8
638.710	1	5
638.879	1	12
639.049	1	-3
639.218	1	4
639.388	1	-3
639.557	1	-9
639.727	1	-4
639.896	1	-4
640.066	1	6
640.235	1	5
640.405	1	-2
640.574	1	-4
640.744	1	15
640.914	1	-3
641.083	1	12
641.253	1	9
641.422	1	-6
641.592	1	6
641.761	1	-4
641.931	1	1
642.100	1	-2
642.270	1	-2
642.439	1	1
642.609	1	-4
642.778	1	3
642.948	1	5
643.117	1	18
643.287	1	3
643.456	1	12
643.626	1	2
643.795	1	-6
643.965	1	0
644.134	1	4
644.304	1	-6
644.473	1	3
644.643	1	2
644.812	1	2
644.982	1	-13
645.151	1	-5
645.321	1	-2
645.490	1	7
645.660	1	-1
645.829	1	7
645.999	1	3
646.168	1	3
646.338	1	3
646.507	1	10
646.677	1	0
646.846	1	8
647.016	1	0
647.185	1	-1
647.355	1	3
647.524	1	5
647.694	1	4
647.863	1	-6
648.033	1	2
648.202	1	7
648.372	1	12
648.541	1	0
648.711	1	3
648.880	1	6
649.050	1	-1
649.219	1	4
649.389	1	-1
649.558	1	3
649.728	1	7
649.897	1	6
650.067	1	0
650.236	1	1
650.406	1	6
650.575	1	-9
650.745	1	9
650.914	1	-3
651.084	1	5
651.253	1	7
651.423	1	1
651.592	1	-9
651.762	1	8
651.931	1	2
652.101	1	6
652.270	1	-14
652.440	1	9
652.609	1	1
652.778	1	12
652.948	1	1
653.117	1	11
653.287	1	-12
653.456	1	-3
653.626	1	-1
653.795	1	2
653.965	1	5
654.134	1	8
654.304	1	2
654.473	1	4
654.643	1	-4
654.812	1	10
654.982	1	-2
655.151	1	3
655.320	1	3
655.490	1	-2
655.659	1	8
655.829	1	-2
655.998	1	3
656.168	1	-4
656.337	1	-1
656.507	1	2
656.676	1	4
656.846	1	-1
657.015	1	3
657.184	1	4
657.354	1	7
657.523	1	6
657.693	1	-1
657.862	1	1
658.032	1	-2
658.201	1	-1
658.371	1	4
658.540	1	-2
658.709	1	-5
658.879	1	7
659.048	1	18
659.218	1	3
659.387	1	-3
659.557	1	10
659.726	1	5
659.895	1	-5
660.065	1	-3
660.234	1	4
660.404	1	1
660.573	1	-7
660.743	1	-4
660.912	1	-7
661.081	1	15
661.251	1	-1
661.420	1	5
661.590	1	4
661.759	1	-4
661.929	1	3
662.098	1	3
662.267	1	6
662.437	1	3
662.606	1	1
662.776	1	5
662.945	1	-2
663.115	1	4
663.284	1	-9
663.453	1	-4
663.623	1	-3
663.792	1	1
663.962	1	-3
664.131	1	14
664.300	1	1
664.470	1	4
664.639	1	-3
664.809	1	-5
664.978	1	-5
665.148	1	0
665.317	1	3
665.486	1	6
665.656	1	-3
665.825	1	10
665.995	1	-1
666.164	1	4
666.333	1	12
666.503	1	3
666.672	1	-3
666.842	1	0
667.011	1	15
667.180	1	2
667.350	1	8
667.519	1	1
667.689	1	8
667.858	1	-1
668.027	1	-6
668.197	1	6
668.366	1	12
668.536	1	0
668.705	1	-6
668.874	1	-8
669.044	1	-7
669.213	1	6
669.382	1	2
669.552	1	5
669.721	1	11
669.891	1	-5
670.060	1	10
670.229	1	-5
670.399	1	-2
670.568	1	7
670.738	1	7
670.907	1	5
671.076	1	10
671.246	1	5
671.415	1	-4
671.584	1	-8
671.754	1	-7
671.923	1	-4
672.093	1	-2
672.262	1	3
672.431	1	7
672.601	1	7
672.770	1	-2
672.939	1	-2
673.109	1	6
673.278	1	-9
673.448	1	-4
673.617	1	-5
673.786	1	2
