325.333	1	21
325.504	1	8
325.675	1	2
325.846	1	1
326.017	1	18
326.188	1	3
326.359	1	-4
326.531	1	10
326.702	1	-1
326.873	1	-5
327.044	1	3
327.215	1	14
327.386	1	0
327.557	1	6
327.728	1	9
327.899	1	8
328.070	1	7
328.241	1	17
328.412	1	9
328.583	1	-7
328.754	1	2
328.926	1	-4
329.097	1	-1
329.268	1	-7
329.439	1	16
329.610	1	14
329.781	1	7
329.952	1	1
330.123	1	2
330.294	1	18
330.465	1	5
330.636	1	3
330.807	1	8
330.978	1	11
331.149	1	11
331.320	1	6
331.492	1	17
331.663	1	12
331.834	1	5
332.005	1	-1
332.176	1	8
332.347	1	-3
332.518	1	13
332.689	1	7
332.860	1	4
333.031	1	1
333.202	1	2
333.373	1	14
333.544	1	17
333.715	1	-1
333.886	1	4
334.057	1	10
334.228	1	5
334.399	1	-1
334.570	1	20
334.741	1	-3
334.912	1	11
335.084	1	2
335.255	1	19
335.426	1	3
335.597	1	13
335.768	1	16
335.939	1	0
336.110	1	6
336.281	1	4
336.452	1	14
336.623	1	12
336.794	1	2
336.965	1	16
337.136	1	1
337.307	1	2
337.478	1	-7
337.649	1	1
337.820	1	8
337.991	1	11
338.162	1	16
338.333	1	5
338.504	1	24
338.675	1	5
338.846	1	16
339.017	1	0
339.188	1	8
339.359	1	17
339.530	1	13
339.701	1	0
339.872	1	14
340.043	1	12
340.214	1	15
340.385	1	6
340.556	1	9
340.727	1	7
340.898	1	9
341.069	1	9
341.240	1	1
341.411	1	9
341.582	1	13
341.753	1	13
341.924	1	1
342.095	1	15
342.266	1	3
342.437	1	10
342.608	1	13
342.779	1	6
342.950	1	7
343.121	1	11
343.292	1	17
343.463	1	11
343.634	1	10
343.805	1	17
343.976	1	12
344.147	1	7
344.318	1	18
344.489	1	14
344.660	1	10
344.831	1	8
345.002	1	6
345.173	1	-7
345.344	1	12
345.515	1	6
345.686	1	7
345.857	1	14
346.028	1	18
346.199	1	13
346.370	1	6
346.541	1	16
346.712	1	12
346.883	1	-2
347.054	1	12
347.225	1	-4
347.396	1	4
347.567	1	16
347.738	1	2
347.909	1	12
348.080	1	5
348.251	1	6
348.422	1	5
348.593	1	9
348.764	1	6
348.935	1	4
349.106	1	-5
349.277	1	-5
349.448	1	19
349.619	1	9
349.790	1	3
349.961	1	10
350.132	1	15
350.303	1	6
350.474	1	8
350.645	1	8
350.816	1	6
350.987	1	17
351.157	1	2
351.328	1	9
351.499	1	7
351.670	1	15
351.841	1	19
352.012	1	8
352.183	1	9
352.354	1	13
352.525	1	16
352.696	1	8
352.867	1	5
353.038	1	11
353.209	1	16
353.380	1	19
353.551	1	7
353.722	1	9
353.893	1	6
354.064	1	13
354.235	1	7
354.406	1	8
354.576	1	4
354.747	1	18
354.918	1	10
355.089	1	23
355.260	1	0
355.431	1	3
355.602	1	-1
355.773	1	2
355.944	1	14
356.115	1	15
356.286	1	7
356.457	1	13
356.628	1	12
356.799	1	14
356.970	1	16
357.141	1	9
357.311	1	8
357.482	1	13
357.653	1	4
357.824	1	13
357.995	1	12
358.166	1	14
358.337	1	9
358.508	1	6
358.679	1	1
358.850	1	14
359.021	1	7
359.192	1	10
359.363	1	5
359.533	1	10
359.704	1	2
359.875	1	11
360.046	1	8
360.217	1	19
360.388	1	12
360.559	1	13
360.730	1	13
360.901	1	12
361.072	1	0
361.243	1	12
361.414	1	4
361.584	1	3
361.755	1	7
361.926	1	9
362.097	1	11
362.268	1	11
362.439	1	6
362.610	1	11
362.781	1	12
362.952	1	11
363.123	1	10
363.293	1	14
363.464	1	24
363.635	1	25
363.806	1	3
363.977	1	14
364.148	1	6
364.319	1	10
364.490	1	19
364.661	1	6
364.832	1	1
365.002	1	15
365.173	1	5
365.344	1	14
365.515	1	-4
365.686	1	7
365.857	1	8
366.028	1	5
366.199	1	5
366.370	1	12
366.540	1	17
366.711	1	16
366.882	1	24
367.053	1	5
367.224	1	15
367.395	1	6
367.566	1	12
367.737	1	-4
367.908	1	16
368.078	1	13
368.249	1	19
368.420	1	8
368.591	1	7
368.762	1	1
368.933	1	5
369.104	1	19
369.274	1	15
369.445	1	16
369.616	1	-2
369.787	1	8
369.958	1	7
370.129	1	18
370.300	1	15
370.471	1	8
370.641	1	22
370.812	1	15
370.983	1	6
371.154	1	6
371.325	1	9
371.496	1	1
371.667	1	13
371.837	1	9
372.008	1	16
372.179	1	1
372.350	1	10
372.521	1	19
372.692	1	14
372.863	1	13
373.033	1	6
373.204	1	6
373.375	1	4
373.546	1	8
373.717	1	5
373.888	1	16
374.059	1	5
374.229	1	13
374.400	1	16
374.571	1	4
374.742	1	13
374.913	1	5
375.084	1	13
375.254	1	6
375.425	1	22
375.596	1	-2
375.767	1	20
375.938	1	10
376.109	1	15
376.279	1	5
376.450	1	18
376.621	1	17
376.792	1	23
376.963	1	1
377.134	1	17
377.304	1	15
377.475	1	4
377.646	1	1
377.817	1	12
377.988	1	11
378.159	1	3
378.329	1	9
378.500	1	11
378.671	1	14
378.842	1	7
379.013	1	11
379.184	1	16
379.354	1	4
379.525	1	8
379.696	1	17
379.867	1	9
380.038	1	17
380.209	1	18
380.379	1	15
380.550	1	15
380.721	1	16
380.892	1	14
381.063	1	-1
381.233	1	17
381.404	1	14
381.575	1	18
381.746	1	3
381.917	1	18
382.087	1	16
382.258	1	7
382.429	1	7
382.600	1	7
382.771	1	13
382.941	1	7
383.112	1	10
383.283	1	12
383.454	1	19
383.625	1	8
383.795	1	22
383.966	1	7
384.137	1	10
384.308	1	8
384.479	1	21
384.649	1	22
384.820	1	13
384.991	1	13
385.162	1	14
385.333	1	23
385.503	1	5
385.674	1	19
385.845	1	30
386.016	1	10
386.187	1	3
386.357	1	23
386.528	1	15
386.699	1	20
386.870	1	7
387.041	1	19
387.211	1	17
387.382	1	11
387.553	1	19
387.724	1	9
387.894	1	21
388.065	1	14
388.236	1	6
388.407	1	13
388.578	1	12
388.748	1	5
388.919	1	13
389.090	1	18
389.261	1	12
389.431	1	14
389.602	1	11
389.773	1	10
389.944	1	18
390.114	1	14
390.285	1	17
390.456	1	15
390.627	1	19
390.798	1	10
390.968	1	5
391.139	1	15
391.310	1	14
391.481	1	11
391.651	1	13
391.822	1	19
391.993	1	28
392.164	1	20
392.334	1	12
392.505	1	12
392.676	1	24
392.847	1	9
393.017	1	14
393.188	1	19
393.359	1	9
393.530	1	13
393.700	1	10
393.871	1	19
394.042	1	5
394.213	1	15
394.383	1	20
394.554	1	9
394.725	1	15
394.896	1	20
395.066	1	19
395.237	1	15
395.408	1	10
395.579	1	23
395.749	1	3
395.920	1	9
396.091	1	15
396.262	1	20
396.432	1	18
396.603	1	14
396.774	1	-1
396.945	1	11
397.115	1	22
397.286	1	7
397.457	1	20
397.627	1	18
397.798	1	12
397.969	1	11
398.140	1	14
398.310	1	18
398.481	1	17
398.652	1	28
398.823	1	13
398.993	1	5
399.164	1	15
399.335	1	22
399.505	1	14
399.676	1	21
399.847	1	14
400.018	1	31
400.188	1	6
400.359	1	16
400.530	1	21
400.700	1	19
400.871	1	20
401.042	1	14
401.213	1	21
401.383	1	9
401.554	1	13
401.725	1	16
401.895	1	20
402.066	1	5
402.237	1	9
402.408	1	19
402.578	1	26
402.749	1	8
402.920	1	13
403.090	1	27
403.261	1	25
403.432	1	17
403.603	1	20
403.773	1	15
403.944	1	13
404.115	1	5
404.285	1	19
404.456	1	2
404.627	1	22
404.797	1	11
404.968	1	25
405.139	1	11
405.310	1	17
405.480	1	13
405.651	1	1
405.822	1	17
405.992	1	25
406.163	1	12
406.334	1	17
406.504	1	9
406.675	1	13
406.846	1	22
407.016	1	21
407.187	1	18
407.358	1	15
407.528	1	4
407.699	1	11
407.870	1	18
408.041	1	26
408.211	1	14
408.382	1	29
408.553	1	14
408.723	1	16
408.894	1	21
409.065	1	18
409.235	1	15
409.406	1	16
409.577	1	12
409.747	1	22
409.918	1	13
410.089	1	18
410.259	1	22
410.430	1	17
410.601	1	13
410.771	1	14
410.942	1	26
411.113	1	22
411.283	1	12
411.454	1	20
411.625	1	17
411.795	1	21
411.966	1	31
412.137	1	19
412.307	1	17
412.478	1	20
412.649	1	18
412.819	1	19
412.990	1	23
413.161	1	28
413.331	1	16
413.502	1	27
413.672	1	14
413.843	1	10
414.014	1	19
414.184	1	17
414.355	1	18
414.526	1	6
414.696	1	22
414.867	1	11
415.038	1	16
415.208	1	15
415.379	1	6
415.550	1	14
415.720	1	19
415.891	1	6
416.062	1	20
416.232	1	12
416.403	1	19
416.573	1	24
416.744	1	16
416.915	1	6
417.085	1	15
417.256	1	18
417.427	1	14
417.597	1	17
417.768	1	16
417.939	1	15
418.109	1	18
418.280	1	7
418.450	1	6
418.621	1	10
418.792	1	10
418.962	1	17
419.133	1	17
419.304	1	20
419.474	1	18
419.645	1	13
419.815	1	16
419.986	1	20
420.157	1	20
420.327	1	16
420.498	1	10
420.669	1	6
420.839	1	14
421.010	1	20
421.180	1	20
421.351	1	20
421.522	1	20
421.692	1	18
421.863	1	16
422.033	1	18
422.204	1	9
422.375	1	15
422.545	1	19
422.716	1	22
422.886	1	24
423.057	1	28
423.228	1	14
423.398	1	22
423.569	1	25
423.740	1	15
423.910	1	17
424.081	1	9
424.251	1	20
424.422	1	11
424.593	1	20
424.763	1	17
424.934	1	16
425.104	1	9
425.275	1	15
425.445	1	15
425.616	1	18
425.787	1	14
425.957	1	17
426.128	1	15
426.298	1	9
426.469	1	17
426.640	1	15
426.810	1	25
426.981	1	13
427.151	1	11
427.322	1	15
427.493	1	9
427.663	1	16
427.834	1	8
428.004	1	17
428.175	1	9
428.345	1	11
428.516	1	28
428.687	1	13
428.857	1	21
429.028	1	18
429.198	1	11
429.369	1	0
429.540	1	14
429.710	1	21
429.881	1	22
430.051	1	9
430.222	1	23
430.392	1	23
430.563	1	28
430.734	1	17
430.904	1	24
431.075	1	17
431.245	1	9
431.416	1	14
431.586	1	25
431.757	1	27
431.927	1	12
432.098	1	16
432.269	1	19
432.439	1	10
432.610	1	11
432.780	1	-2
432.951	1	27
433.121	1	20
433.292	1	19
433.462	1	15
433.633	1	21
433.804	1	8
433.974	1	13
434.145	1	18
434.315	1	23
434.486	1	20
434.656	1	13
434.827	1	15
434.997	1	12
435.168	1	20
435.339	1	12
435.509	1	24
435.680	1	18
435.850	1	11
436.021	1	7
436.191	1	11
436.362	1	17
436.532	1	20
436.703	1	21
436.873	1	24
437.044	1	17
437.214	1	7
437.385	1	18
437.556	1	5
437.726	1	23
437.897	1	9
438.067	1	23
438.238	1	15
438.408	1	18
438.579	1	30
438.749	1	9
438.920	1	12
439.090	1	19
439.261	1	16
439.431	1	27
439.602	1	13
439.772	1	17
439.943	1	13
440.113	1	9
440.284	1	22
440.455	1	29
440.625	1	21
440.796	1	19
440.966	1	18
441.137	1	11
441.307	1	31
441.478	1	14
441.648	1	16
441.819	1	10
441.989	1	28
442.160	1	23
442.330	1	14
442.501	1	11
442.671	1	18
442.842	1	18
443.012	1	6
443.183	1	18
443.353	1	22
443.524	1	12
443.694	1	24
443.865	1	13
444.035	1	6
444.206	1	12
444.376	1	25
444.547	1	11
444.717	1	18
444.888	1	13
445.058	1	5
445.229	1	18
445.399	1	19
445.570	1	26
445.740	1	25
445.911	1	17
446.081	1	15
446.252	1	12
446.422	1	5
446.593	1	23
446.763	1	21
446.934	1	24
447.104	1	16
447.275	1	30
447.445	1	13
447.616	1	11
447.786	1	19
447.957	1	26
448.127	1	15
448.298	1	26
448.468	1	20
448.639	1	12
448.809	1	17
448.979	1	16
449.150	1	19
449.320	1	17
449.491	1	12
449.661	1	14
449.832	1	25
450.002	1	23
450.173	1	14
450.343	1	19
450.514	1	13
450.684	1	7
450.855	1	16
451.025	1	24
451.196	1	19
451.366	1	11
451.537	1	11
451.707	1	28
451.878	1	11
452.048	1	10
452.218	1	2
452.389	1	3
452.559	1	7
452.730	1	23
452.900	1	24
453.071	1	17
453.241	1	10
453.412	1	17
453.582	1	10
453.753	1	22
453.923	1	19
454.093	1	27
454.264	1	23
454.434	1	7
454.605	1	8
454.775	1	15
454.946	1	14
455.116	1	10
455.287	1	21
455.457	1	18
455.628	1	13
455.798	1	5
455.968	1	11
456.139	1	9
456.309	1	20
456.480	1	4
456.650	1	12
456.821	1	7
456.991	1	20
457.161	1	9
457.332	1	16
457.502	1	9
457.673	1	9
457.843	1	3
458.014	1	15
458.184	1	27
458.355	1	23
458.525	1	18
458.695	1	16
458.866	1	28
459.036	1	7
459.207	1	4
459.377	1	4
459.548	1	4
459.718	1	9
459.888	1	25
460.059	1	22
460.229	1	13
460.400	1	3
460.570	1	13
460.740	1	10
460.911	1	5
461.081	1	17
461.252	1	13
461.422	1	26
461.593	1	27
461.763	1	15
461.933	1	14
462.104	1	14
462.274	1	12
462.445	1	4
462.615	1	19
462.785	1	5
462.956	1	8
463.126	1	17
463.297	1	11
463.467	1	8
463.638	1	13
463.808	1	9
463.978	1	11
464.149	1	11
464.319	1	0
464.490	1	13
464.660	1	25
464.830	1	20
465.001	1	19
465.171	1	18
465.342	1	23
465.512	1	14
465.682	1	6
465.853	1	22
466.023	1	15
466.194	1	12
466.364	1	-2
466.534	1	16
466.705	1	23
466.875	1	11
467.045	1	17
467.216	1	16
467.386	1	25
467.557	1	9
467.727	1	8
467.897	1	17
468.068	1	24
468.238	1	1
468.409	1	9
468.579	1	23
468.749	1	13
468.920	1	12
469.090	1	14
469.260	1	16
469.431	1	7
469.601	1	22
469.772	1	16
469.942	1	18
470.112	1	10
470.283	1	13
470.453	1	10
470.623	1	6
470.794	1	13
470.964	1	17
471.135	1	22
471.305	1	30
471.475	1	12
471.646	1	17
471.816	1	15
471.986	1	13
472.157	1	13
472.327	1	12
472.497	1	16
472.668	1	7
472.838	1	10
473.009	1	15
473.179	1	11
473.349	1	11
473.520	1	2
473.690	1	14
473.860	1	20
474.031	1	18
474.201	1	7
474.371	1	28
474.542	1	6
474.712	1	18
474.882	1	3
475.053	1	17
475.223	1	10
475.394	1	20
475.564	1	9
475.734	1	11
475.905	1	1
476.075	1	10
476.245	1	9
476.416	1	9
476.586	1	7
476.756	1	9
476.927	1	13
477.097	1	17
477.267	1	16
477.438	1	10
477.608	1	5
477.778	1	14
477.949	1	11
478.119	1	7
478.289	1	13
478.460	1	13
478.630	1	8
478.800	1	10
478.971	1	19
479.141	1	13
479.311	1	0
479.482	1	17
479.652	1	12
479.822	1	0
479.993	1	12
480.163	1	21
480.333	1	11
480.504	1	6
480.674	1	14
480.844	1	13
481.015	1	14
481.185	1	6
481.355	1	12
481.525	1	3
481.696	1	8
481.866	1	11
482.036	1	11
482.207	1	9
482.377	1	2
482.547	1	16
482.718	1	12
482.888	1	15
483.058	1	10
483.229	1	9
483.399	1	6
483.569	1	9
483.740	1	9
483.910	1	17
484.080	1	22
484.250	1	11
484.421	1	8
484.591	1	7
484.761	1	21
484.932	1	7
485.102	1	13
485.272	1	6
485.443	1	6
485.613	1	8
485.783	1	-4
485.953	1	6
486.124	1	20
486.294	1	18
486.464	1	21
486.635	1	11
486.805	1	8
486.975	1	-5
487.146	1	2
487.316	1	11
487.486	1	13
487.656	1	4
487.827	1	9
487.997	1	20
488.167	1	-1
488.338	1	18
488.508	1	19
488.678	1	15
488.848	1	15
489.019	1	-1
489.189	1	10
489.359	1	17
489.529	1	15
489.700	1	5
489.870	1	15
490.040	1	13
490.211	1	19
490.381	1	7
490.551	1	10
490.721	1	14
490.892	1	6
491.062	1	10
491.232	1	4
491.402	1	21
491.573	1	11
491.743	1	-1
491.913	1	17
492.084	1	14
492.254	1	9
492.424	1	6
492.594	1	12
492.765	1	0
492.935	1	-3
493.105	1	15
493.275	1	9
493.446	1	9
493.616	1	12
493.786	1	11
493.956	1	5
494.127	1	6
494.297	1	14
494.467	1	5
494.637	1	-1
494.808	1	6
494.978	1	5
495.148	1	17
495.318	1	7
495.489	1	10
495.659	1	13
495.829	1	8
495.999	1	2
496.170	1	12
496.340	1	11
496.510	1	12
496.680	1	16
496.851	1	12
497.021	1	2
497.191	1	19
497.361	1	5
497.532	1	21
497.702	1	-4
497.872	1	5
498.042	1	11
498.213	1	13
498.383	1	5
498.553	1	11
498.723	1	5
498.894	1	12
499.064	1	12
499.234	1	29
499.404	1	1
499.574	1	2
499.745	1	8
499.915	1	9
500.085	1	8
500.255	1	8
500.426	1	9
500.596	1	6
500.766	1	23
500.936	1	9
501.106	1	7
501.277	1	6
501.447	1	8
501.617	1	8
501.787	1	1
501.958	1	14
502.128	1	4
502.298	1	10
502.468	1	10
502.638	1	10
502.809	1	16
502.979	1	10
503.149	1	20
503.319	1	0
503.489	1	8
503.660	1	5
503.830	1	20
504.000	1	12
504.170	1	14
504.340	1	-3
504.511	1	19
504.681	1	17
504.851	1	4
505.021	1	-1
505.192	1	10
505.362	1	2
505.532	1	-3
505.702	1	-1
505.872	1	17
506.043	1	15
506.213	1	7
506.383	1	5
506.553	1	8
506.723	1	2
506.893	1	-6
507.064	1	11
507.234	1	2
507.404	1	15
507.574	1	21
507.744	1	19
507.915	1	2
508.085	1	8
508.255	1	10
508.425	1	4
508.595	1	2
508.766	1	0
508.936	1	4
509.106	1	11
509.276	1	13
509.446	1	17
509.616	1	9
509.787	1	5
509.957	1	5
510.127	1	-2
510.297	1	-3
510.467	1	8
510.638	1	6
510.808	1	3
510.978	1	9
511.148	1	13
511.318	1	-1
511.488	1	7
511.659	1	-2
511.829	1	1
511.999	1	12
512.169	1	7
512.339	1	13
512.509	1	13
512.680	1	6
512.850	1	15
513.020	1	7
513.190	1	1
513.360	1	9
513.530	1	21
513.700	1	20
513.871	1	11
514.041	1	7
514.211	1	7
514.381	1	9
514.551	1	-1
514.721	1	12
514.892	1	6
515.062	1	-3
515.232	1	1
515.402	1	7
515.572	1	12
515.742	1	11
515.912	1	9
516.083	1	10
516.253	1	11
516.423	1	3
516.593	1	0
516.763	1	3
516.933	1	-3
517.104	1	6
517.274	1	3
517.444	1	14
517.614	1	11
517.784	1	4
517.954	1	18
518.124	1	4
518.294	1	18
518.465	1	-1
518.635	1	12
518.805	1	16
518.975	1	3
519.145	1	5
519.315	1	10
519.485	1	0
519.656	1	2
519.826	1	15
519.996	1	9
520.166	1	2
520.336	1	2
520.506	1	-10
520.676	1	5
520.846	1	7
521.017	1	7
521.187	1	15
521.357	1	-4
521.527	1	12
521.697	1	3
521.867	1	6
522.037	1	16
522.207	1	-8
522.377	1	10
522.548	1	2
522.718	1	10
522.888	1	-2
523.058	1	11
523.228	1	8
523.398	1	2
523.568	1	13
523.738	1	3
523.909	1	-1
524.079	1	-3
524.249	1	-2
524.419	1	6
524.589	1	4
524.759	1	10
524.929	1	-2
525.099	1	4
525.269	1	7
525.439	1	10
525.610	1	13
525.780	1	9
525.950	1	15
526.120	1	2
526.290	1	1
526.460	1	11
526.630	1	11
526.800	1	5
526.970	1	2
527.140	1	2
527.311	1	8
527.481	1	1
527.651	1	2
527.821	1	10
527.991	1	0
528.161	1	5
528.331	1	13
528.501	1	3
528.671	1	3
528.841	1	6
529.011	1	8
529.181	1	-6
529.352	1	10
529.522	1	3
529.692	1	5
529.862	1	-2
530.032	1	6
530.202	1	6
530.372	1	0
530.542	1	5
530.712	1	12
530.882	1	6
531.052	1	4
531.222	1	6
531.392	1	1
531.563	1	1
531.733	1	-5
531.903	1	13
532.073	1	-1
532.243	1	18
532.413	1	2
532.583	1	0
532.753	1	19
532.923	1	1
533.093	1	5
533.263	1	15
533.433	1	-2
533.603	1	7
533.773	1	-1
533.943	1	7
534.113	1	-2
534.284	1	5
534.454	1	10
534.624	1	3
534.794	1	5
534.964	1	14
535.134	1	7
535.304	1	-1
535.474	1	1
535.644	1	17
535.814	1	-3
535.984	1	4
536.154	1	17
536.324	1	13
536.494	1	10
536.664	1	8
536.834	1	3
537.004	1	-4
537.174	1	10
537.344	1	-4
537.514	1	3
537.685	1	5
537.855	1	13
538.025	1	12
538.195	1	9
538.365	1	3
538.535	1	10
538.705	1	-6
538.875	1	4
539.045	1	6
539.215	1	1
539.385	1	0
539.555	1	6
539.725	1	16
539.895	1	-2
540.065	1	2
540.235	1	-1
540.405	1	7
540.575	1	-7
540.745	1	9
540.915	1	8
541.085	1	0
541.255	1	2
541.425	1	5
541.595	1	23
541.765	1	-8
541.935	1	8
542.105	1	9
542.275	1	5
542.445	1	2
542.615	1	0
542.785	1	-2
542.955	1	0
543.125	1	2
543.295	1	1
543.465	1	13
543.635	1	2
543.805	1	0
543.975	1	4
544.145	1	8
544.315	1	1
544.485	1	1
544.655	1	4
544.825	1	10
544.995	1	12
545.165	1	6
545.335	1	6
545.505	1	5
545.675	1	7
545.845	1	6
546.015	1	4
546.185	1	-1
546.355	1	5
546.525	1	1
546.695	1	3
546.865	1	-4
547.035	1	15
547.205	1	11
547.375	1	11
547.545	1	4
547.715	1	5
547.885	1	0
548.055	1	12
548.225	1	-4
548.395	1	13
548.565	1	6
548.735	1	12
548.905	1	11
549.075	1	-2
549.245	1	6
549.415	1	-1
549.585	1	0
549.755	1	17
549.925	1	13
550.095	1	7
550.265	1	0
550.435	1	10
550.605	1	-1
550.775	1	13
550.945	1	2
551.115	1	11
551.285	1	6
551.455	1	6
551.625	1	4
551.795	1	12
551.965	1	8
552.135	1	12
552.305	1	5
552.475	1	7
552.645	1	5
552.815	1	9
552.985	1	15
553.155	1	2
553.325	1	11
553.495	1	1
553.665	1	0
553.835	1	-1
554.004	1	8
554.174	1	7
554.344	1	-2
554.514	1	-1
554.684	1	-1
554.854	1	4
555.024	1	7
555.194	1	16
555.364	1	11
555.534	1	11
555.704	1	-2
555.874	1	1
556.044	1	19
556.214	1	-4
556.384	1	6
556.554	1	6
556.724	1	14
556.894	1	0
557.064	1	13
557.234	1	2
557.404	1	9
557.573	1	-13
557.743	1	8
557.913	1	-8
558.083	1	0
558.253	1	12
558.423	1	7
558.593	1	16
558.763	1	8
558.933	1	7
559.103	1	-1
559.273	1	7
559.443	1	9
559.613	1	9
559.783	1	10
559.953	1	19
560.122	1	9
560.292	1	5
560.462	1	11
560.632	1	8
560.802	1	6
560.972	1	3
561.142	1	-1
561.312	1	2
561.482	1	8
561.652	1	-2
561.822	1	12
561.992	1	-2
562.162	1	-6
562.331	1	-6
562.501	1	1
562.671	1	-4
562.841	1	-2
563.011	1	-3
563.181	1	14
563.351	1	5
563.521	1	11
563.691	1	8
563.861	1	-2
564.031	1	15
564.201	1	7
564.370	1	-2
564.540	1	8
564.710	1	-5
564.880	1	7
565.050	1	11
565.220	1	4
565.390	1	1
565.560	1	1
565.730	1	-4
565.900	1	5
566.069	1	-6
566.239	1	1
566.409	1	7
566.579	1	19
566.749	1	15
566.919	1	4
567.089	1	14
567.259	1	-8
567.429	1	-3
567.599	1	1
567.768	1	10
567.938	1	7
568.108	1	7
568.278	1	0
568.448	1	4
568.618	1	5
568.788	1	6
568.958	1	3
569.128	1	9
569.297	1	-10
569.467	1	0
569.637	1	-6
569.807	1	5
569.977	1	6
570.147	1	9
570.317	1	-11
570.487	1	-3
570.656	1	0
570.826	1	-3
570.996	1	8
571.166	1	3
571.336	1	4
571.506	1	10
571.676	1	7
571.846	1	13
572.015	1	2
572.185	1	8
572.355	1	-1
572.525	1	-3
572.695	1	1
572.865	1	-7
573.035	1	7
573.205	1	9
573.374	1	11
573.544	1	2
573.714	1	5
573.884	1	7
574.054	1	3
574.224	1	-5
574.394	1	4
574.563	1	3
574.733	1	5
574.903	1	-7
575.073	1	3
575.243	1	0
575.413	1	3
575.583	1	6
575.752	1	9
575.922	1	5
576.092	1	7
576.262	1	5
576.432	1	-8
576.602	1	-8
576.772	1	6
576.941	1	6
577.111	1	10
577.281	1	13
577.451	1	1
577.621	1	7
577.791	1	8
577.960	1	-5
578.130	1	0
578.300	1	-8
578.470	1	13
578.640	1	-1
578.810	1	1
578.979	1	9
579.149	1	1
579.319	1	11
579.489	1	18
579.659	1	4
579.829	1	-6
579.998	1	1
580.168	1	3
580.338	1	4
580.508	1	17
580.678	1	7
580.848	1	2
581.017	1	6
581.187	1	5
581.357	1	5
581.527	1	6
581.697	1	-3
581.867	1	-6
582.036	1	6
582.206	1	8
582.376	1	8
582.546	1	5
582.716	1	5
582.885	1	-9
583.055	1	6
583.225	1	5
583.395	1	5
583.565	1	2
583.735	1	9
583.904	1	3
584.074	1	4
584.244	1	11
584.414	1	-2
584.584	1	3
584.753	1	1
584.923	1	-3
585.093	1	-6
585.263	1	9
585.433	1	-1
585.602	1	16
585.772	1	-2
585.942	1	1
586.112	1	8
586.282	1	8
586.451	1	9
586.621	1	4
586.791	1	-7
586.961	1	8
587.131	1	6
587.300	1	1
587.470	1	-6
587.640	1	-9
587.810	1	6
587.980	1	-7
588.149	1	6
588.319	1	-1
588.489	1	-4
588.659	1	3
588.829	1	1
588.998	1	15
589.168	1	1
589.338	1	14
589.508	1	6
589.677	1	18
589.847	1	4
590.017	1	9
590.187	1	10
590.357	1	11
590.526	1	8
590.696	1	5
590.866	1	15
591.036	1	-3
591.205	1	-5
591.375	1	-5
591.545	1	9
591.715	1	11
591.885	1	7
592.054	1	12
592.224	1	17
592.394	1	6
592.564	1	3
592.733	1	7
592.903	1	-5
593.073	1	2
593.243	1	-10
593.412	1	-5
593.582	1	6
593.752	1	6
593.922	1	11
594.091	1	6
594.261	1	9
594.431	1	4
594.601	1	-11
594.771	1	-4
594.940	1	-4
595.110	1	12
595.280	1	7
595.450	1	0
595.619	1	14
595.789	1	1
595.959	1	8
596.129	1	1
596.298	1	-7
596.468	1	6
596.638	1	2
596.808	1	4
596.977	1	10
597.147	1	6
597.317	1	5
597.487	1	5
597.656	1	7
597.826	1	6
597.996	1	6
598.166	1	4
598.335	1	-2
598.505	1	3
598.675	1	18
598.844	1	4
599.014	1	18
599.184	1	3
599.354	1	8
599.523	1	4
599.693	1	2
599.863	1	1
600.033	1	2
600.202	1	5
600.372	1	3
600.542	1	21
600.712	1	6
600.881	1	3
601.051	1	-8
601.221	1	4
601.390	1	12
601.560	1	10
601.730	1	2
601.900	1	9
602.069	1	5
602.239	1	7
602.409	1	2
602.578	1	4
602.748	1	1
602.918	1	-6
603.088	1	10
603.257	1	5
603.427	1	19
603.597	1	16
603.767	1	7
603.936	1	7
604.106	1	2
604.276	1	1
604.445	1	9
604.615	1	-1
604.785	1	-5
604.954	1	3
605.124	1	5
605.294	1	10
605.464	1	-1
605.633	1	-3
605.803	1	0
605.973	1	2
606.142	1	-1
606.312	1	-4
606.482	1	5
606.652	1	0
606.821	1	15
606.991	1	11
607.161	1	0
607.330	1	4
607.500	1	12
607.670	1	9
607.839	1	-3
608.009	1	11
608.179	1	5
608.348	1	2
608.518	1	-13
608.688	1	6
608.858	1	9
609.027	1	10
609.197	1	14
609.367	1	4
609.536	1	4
609.706	1	6
609.876	1	-9
610.045	1	4
610.215	1	-1
610.385	1	-2
610.554	1	-2
610.724	1	-3
610.894	1	23
611.063	1	7
611.233	1	7
611.403	1	13
611.572	1	10
611.742	1	-3
611.912	1	-6
612.081	1	-4
612.251	1	5
612.421	1	8
612.590	1	-1
612.760	1	2
612.930	1	6
613.099	1	8
613.269	1	4
613.439	1	9
613.608	1	6
613.778	1	8
613.948	1	1
614.117	1	7
614.287	1	-6
614.457	1	8
614.626	1	-4
614.796	1	17
614.966	1	6
615.135	1	10
615.305	1	-2
615.475	1	13
615.644	1	0
615.814	1	7
615.984	1	5
616.153	1	10
616.323	1	19
616.493	1	6
616.662	1	10
616.832	1	4
617.002	1	1
617.171	1	7
617.341	1	-2
617.511	1	10
617.680	1	11
617.850	1	0
618.019	1	-7
618.189	1	0
618.359	1	3
618.528	1	0
618.698	1	0
618.868	1	-4
619.037	1	-3
619.207	1	-7
619.377	1	1
619.546	1	11
619.716	1	11
619.885	1	3
620.055	1	4
620.225	1	8
620.394	1	11
620.564	1	2
620.734	1	0
620.903	1	13
621.073	1	11
621.242	1	3
621.412	1	18
621.582	1	-4
621.751	1	8
621.921	1	3
622.091	1	6
622.260	1	2
622.430	1	9
622.599	1	0
622.769	1	-6
622.939	1	2
623.108	1	2
623.278	1	5
623.448	1	-2
623.617	1	-1
623.787	1	-6
623.956	1	-1
624.126	1	8
624.296	1	2
624.465	1	10
624.635	1	2
624.804	1	4
624.974	1	7
625.144	1	12
625.313	1	7
625.483	1	8
625.652	1	0
625.822	1	-4
625.992	1	12
626.161	1	3
626.331	1	-2
626.501	1	9
626.670	1	14
626.840	1	5
627.009	1	3
627.179	1	1
627.348	1	1
627.518	1	3
627.688	1	7
627.857	1	15
628.027	1	3
628.196	1	13
628.366	1	3
628.536	1	-4
628.705	1	0
628.875	1	11
629.044	1	2
629.214	1	-4
629.384	1	2
629.553	1	3
629.723	1	-3
629.892	1	9
630.062	1	2
630.232	1	1
630.401	1	-1
630.571	1	19
630.740	1	7
630.910	1	0
631.079	1	7
631.249	1	-4
631.419	1	13
631.588	1	7
631.758	1	12
631.927	1	0
632.097	1	6
632.266	1	6
632.436	1	10
632.606	1	11
632.775	1	1
632.945	1	-1
633.114	1	3
633.284	1	4
633.453	1	7
633.623	1	-1
633.793	1	7
633.962	1	4
634.132	1	9
634.301	1	8
634.471	1	4
634.640	1	5
634.810	1	-4
634.979	1	6
635.149	1	7
635.319	1	20
635.488	1	1
635.658	1	16
635.827	1	-6
635.997	1	13
636.166	1	0
636.336	1	3
636.505	1	-4
636.675	1	1
636.845	1	-1
637.014	1	17
637.184	1	1
637.353	1	7
637.523	1	5
637.692	1	16
637.862	1	7
638.031	1	6
638.201	1	14
638.370	1	4
638.540	1	-5
638.710	1	7
638.879	1	4
639.049	1	3
639.218	1	6
639.388	1	11
639.557	1	4
639.727	1	-2
639.896	1	4
640.066	1	10
640.235	1	6
640.405	1	7
640.574	1	1
640.744	1	9
640.914	1	-8
641.083	1	16
641.253	1	1
641.422	1	7
641.592	1	17
641.761	1	7
641.931	1	11
642.100	1	-5
642.270	1	1
642.439	1	5
642.609	1	-1
642.778	1	2
642.948	1	3
643.117	1	17
643.287	1	-3
643.456	1	16
643.626	1	7
643.795	1	2
643.965	1	9
644.134	1	-2
644.304	1	-6
644.473	1	6
644.643	1	0
644.812	1	2
644.982	1	5
645.151	1	9
645.321	1	3
645.490	1	18
645.660	1	-5
645.829	1	-4
645.999	1	8
646.168	1	12
646.338	1	8
646.507	1	-1
646.677	1	11
646.846	1	5
647.016	1	3
647.185	1	11
647.355	1	5
647.524	1	-5
647.694	1	1
647.863	1	-2
648.033	1	11
648.202	1	16
648.372	1	14
648.541	1	0
648.711	1	5
648.880	1	-1
649.050	1	-2
649.219	1	9
649.389	1	12
649.558	1	6
649.728	1	11
649.897	1	9
650.067	1	3
650.236	1	16
650.406	1	16
650.575	1	1
650.745	1	7
650.914	1	3
651.084	1	8
651.253	1	8
651.423	1	2
651.592	1	10
651.762	1	3
651.931	1	8
652.101	1	10
652.270	1	-3
652.440	1	-2
652.609	1	7
652.778	1	7
652.948	1	-1
653.117	1	19
653.287	1	2
653.456	1	1
653.626	1	8
653.795	1	5
653.965	1	-2
654.134	1	1
654.304	1	5
654.473	1	9
654.643	1	-2
654.812	1	7
654.982	1	8
655.151	1	9
655.320	1	6
655.490	1	-3
655.659	1	18
655.829	1	7
655.998	1	1
656.168	1	9
656.337	1	3
656.507	1	2
656.676	1	0
656.846	1	4
657.015	1	8
657.184	1	8
657.354	1	3
657.523	1	9
657.693	1	2
657.862	1	5
658.032	1	12
658.201	1	0
658.371	1	11
658.540	1	0
658.709	1	7
658.879	1	1
659.048	1	6
659.218	1	6
659.387	1	1
659.557	1	7
659.726	1	6
659.895	1	6
660.065	1	-6
660.234	1	2
660.404	1	2
660.573	1	0
660.743	1	2
660.912	1	7
661.081	1	8
661.251	1	0
661.420	1	7
661.590	1	-1
661.759	1	2
661.929	1	1
662.098	1	7
662.267	1	-3
662.437	1	6
662.606	1	4
662.776	1	6
662.945	1	4
663.115	1	-3
663.284	1	4
663.453	1	-3
663.623	1	0
663.792	1	-1
663.962	1	3
664.131	1	17
664.300	1	14
664.470	1	6
664.639	1	1
664.809	1	4
664.978	1	3
665.148	1	-3
665.317	1	-3
665.486	1	1
665.656	1	4
665.825	1	8
665.995	1	3
666.164	1	9
666.333	1	10
666.503	1	13
666.672	1	5
666.842	1	5
667.011	1	7
667.180	1	-1
667.350	1	3
667.519	1	3
667.689	1	12
667.858	1	-4
668.027	1	6
668.197	1	13
668.366	1	12
668.536	1	4
668.705	1	1
668.874	1	-4
669.044	1	-2
669.213	1	7
669.382	1	2
669.552	1	10
669.721	1	3
669.891	1	8
670.060	1	7
670.229	1	2
670.399	1	11
670.568	1	7
670.738	1	5
670.907	1	8
671.076	1	13
671.246	1	5
671.415	1	0
671.584	1	11
671.754	1	8
671.923	1	11
672.093	1	5
672.262	1	3
672.431	1	-4
672.601	1	2
672.770	1	-2
672.939	1	12
673.109	1	0
673.278	1	-3
673.448	1	4
673.617	1	6
673.786	1	3
