325.333	1	8
325.504	1	4
325.675	1	6
325.846	1	-11
326.017	1	7
326.188	1	0
326.359	1	-12
326.531	1	4
326.702	1	7
326.873	1	-8
327.044	1	-9
327.215	1	5
327.386	1	-5
327.557	1	0
327.728	1	0
327.899	1	-2
328.070	1	2
328.241	1	0
328.412	1	-7
328.583	1	-12
328.754	1	-7
328.926	1	5
329.097	1	9
329.268	1	-9
329.439	1	2
329.610	1	3
329.781	1	5
329.952	1	-4
330.123	1	-8
330.294	1	-4
330.465	1	2
330.636	1	-4
330.807	1	-2
330.978	1	6
331.149	1	6
331.320	1	-4
331.492	1	5
331.663	1	-2
331.834	1	2
332.005	1	-2
332.176	1	7
332.347	1	-6
332.518	1	11
332.689	1	-8
332.860	1	-7
333.031	1	6
333.202	1	-6
333.373	1	9
333.544	1	6
333.715	1	-6
333.886	1	1
334.057	1	6
334.228	1	6
334.399	1	-11
334.570	1	4
334.741	1	-12
334.912	1	12
335.084	1	2
335.255	1	13
335.426	1	-1
335.597	1	-1
335.768	1	5
335.939	1	0
336.110	1	-7
336.281	1	1
336.452	1	-2
336.623	1	-4
336.794	1	-3
336.965	1	9
337.136	1	-10
337.307	1	6
337.478	1	-8
337.649	1	-6
337.820	1	4
337.991	1	2
338.162	1	4
338.333	1	0
338.504	1	7
338.675	1	-3
338.846	1	13
339.017	1	-4
339.188	1	-1
339.359	1	10
339.530	1	0
339.701	1	-5
339.872	1	5
340.043	1	8
340.214	1	3
340.385	1	-1
340.556	1	-1
340.727	1	3
340.898	1	-7
341.069	1	5
341.240	1	-2
341.411	1	0
341.582	1	7
341.753	1	3
341.924	1	9
342.095	1	6
342.266	1	-4
342.437	1	3
342.608	1	-2
342.779	1	-3
342.950	1	-8
343.121	1	-3
343.292	1	9
343.463	1	-5
343.634	1	2
343.805	1	1
343.976	1	5
344.147	1	-7
344.318	1	6
344.489	1	-3
344.660	1	10
344.831	1	0
345.002	1	7
345.173	1	-6
345.344	1	8
345.515	1	-5
345.686	1	-11
345.857	1	7
346.028	1	8
346.199	1	-7
346.370	1	0
346.541	1	7
346.712	1	10
346.883	1	0
347.054	1	4
347.225	1	-7
347.396	1	-1
347.567	1	-8
347.738	1	-3
347.909	1	-6
348.080	1	0
348.251	1	2
348.422	1	11
348.593	1	3
348.764	1	-6
348.935	1	-1
349.106	1	-18
349.277	1	1
349.448	1	-4
349.619	1	-5
349.790	1	-7
349.961	1	5
350.132	1	9
350.303	1	13
350.474	1	-2
350.645	1	-1
350.816	1	-2
350.987	1	5
351.157	1	1
351.328	1	0
351.499	1	-4
351.670	1	0
351.841	1	6
352.012	1	8
352.183	1	10
352.354	1	5
352.525	1	4
352.696	1	-8
352.867	1	-5
353.038	1	-7
353.209	1	1
353.380	1	5
353.551	1	4
353.722	1	6
353.893	1	-3
354.064	1	3
354.235	1	-5
354.406	1	7
354.576	1	-10
354.747	1	6
354.918	1	2
355.089	1	7
355.260	1	-4
355.431	1	-4
355.602	1	-6
355.773	1	-7
355.944	1	3
356.115	1	5
356.286	1	-1
356.457	1	11
356.628	1	8
356.799	1	-4
356.970	1	8
357.141	1	-2
357.311	1	-2
357.482	1	-4
357.653	1	-11
357.824	1	1
357.995	1	10
358.166	1	5
358.337	1	-5
358.508	1	-5
358.679	1	1
358.850	1	10
359.021	1	4
359.192	1	2
359.363	1	-9
359.533	1	9
359.704	1	-14
359.875	1	-3
360.046	1	-1
360.217	1	19
360.388	1	-5
360.559	1	10
360.730	1	6
360.901	1	-2
361.072	1	5
361.243	1	5
361.414	1	-7
361.584	1	-1
361.755	1	6
361.926	1	-4
362.097	1	5
362.268	1	3
362.439	1	0
362.610	1	2
362.781	1	-8
362.952	1	-8
363.123	1	1
363.293	1	7
363.464	1	2
363.635	1	2
363.806	1	-6
363.977	1	-6
364.148	1	-14
364.319	1	0
364.490	1	0
364.661	1	-3
364.832	1	0
365.002	1	4
365.173	1	-7
365.344	1	8
365.515	1	-8
365.686	1	4
365.857	1	-6
366.028	1	-7
366.199	1	7
366.370	1	3
366.540	1	5
366.711	1	-1
366.882	1	3
367.053	1	-4
367.224	1	10
367.395	1	-3
367.566	1	-8
367.737	1	-7
367.908	1	16
368.078	1	-3
368.249	1	-4
368.420	1	-1
368.591	1	1
368.762	1	2
368.933	1	-10
369.104	1	7
369.274	1	2
369.445	1	0
369.616	1	-13
369.787	1	-3
369.958	1	-3
370.129	1	4
370.300	1	7
370.471	1	4
370.641	1	1
370.812	1	1
370.983	1	-2
371.154	1	4
371.325	1	-3
371.496	1	-5
371.667	1	5
371.837	1	-6
372.008	1	1
372.179	1	-8
372.350	1	4
372.521	1	9
372.692	1	5
372.863	1	13
373.033	1	-5
373.204	1	0
373.375	1	-9
373.546	1	-7
373.717	1	0
373.888	1	-2
374.059	1	4
374.229	1	-10
374.400	1	-2
374.571	1	-5
374.742	1	14
374.913	1	-1
375.084	1	-3
375.254	1	-4
375.425	1	-2
375.596	1	0
375.767	1	6
375.938	1	-1
376.109	1	6
376.279	1	-10
376.450	1	13
376.621	1	4
376.792	1	9
376.963	1	-14
377.134	1	0
377.304	1	9
377.475	1	-2
377.646	1	2
377.817	1	6
377.988	1	5
378.159	1	-4
378.329	1	0
378.500	1	7
378.671	1	0
378.842	1	1
379.013	1	-2
379.184	1	-2
379.354	1	2
379.525	1	-5
379.696	1	7
379.867	1	-1
380.038	1	-1
380.209	1	4
380.379	1	7
380.550	1	2
380.721	1	4
380.892	1	-11
381.063	1	-11
381.233	1	2
381.404	1	9
381.575	1	11
381.746	1	-8
381.917	1	-2
382.087	1	6
382.258	1	0
382.429	1	-7
382.600	1	-1
382.771	1	3
382.941	1	-6
383.112	1	-2
383.283	1	6
383.454	1	-2
383.625	1	-2
383.795	1	9
383.966	1	-7
384.137	1	4
384.308	1	2
384.479	1	7
384.649	1	0
384.820	1	3
384.991	1	0
385.162	1	6
385.333	1	-9
385.503	1	-10
385.674	1	0
385.845	1	18
386.016	1	4
386.187	1	0
386.357	1	10
386.528	1	-3
386.699	1	5
386.870	1	-8
387.041	1	5
387.211	1	-2
387.382	1	-6
387.553	1	-3
387.724	1	-2
387.894	1	1
388.065	1	3
388.236	1	6
388.407	1	3
388.578	1	-6
388.748	1	-6
388.919	1	4
389.090	1	-5
389.261	1	-5
389.431	1	8
389.602	1	-3
389.773	1	2
389.944	1	-6
390.114	1	4
390.285	1	10
390.456	1	6
390.627	1	-2
390.798	1	-3
390.968	1	-20
391.139	1	10
391.310	1	1
391.481	1	3
391.651	1	4
391.822	1	3
391.993	1	4
392.164	1	-4
392.334	1	5
392.505	1	2
392.676	1	-3
392.847	1	1
393.017	1	5
393.188	1	2
393.359	1	-11
393.530	1	3
393.700	1	3
393.871	1	8
394.042	1	-11
394.213	1	-5
394.383	1	3
394.554	1	5
394.725	1	-5
394.896	1	-6
395.066	1	7
395.237	1	1
395.408	1	-3
395.579	1	1
395.749	1	3
395.920	1	-9
396.091	1	-14
396.262	1	0
396.432	1	-3
396.603	1	1
396.774	1	-17
396.945	1	3
397.115	1	-1
397.286	1	-4
397.457	1	5
397.627	1	10
397.798	1	-4
397.969	1	-12
398.140	1	-4
398.310	1	2
398.481	1	4
398.652	1	10
398.823	1	-11
398.993	1	-4
399.164	1	4
399.335	1	2
399.505	1	0
399.676	1	-1
399.847	1	2
400.018	1	5
400.188	1	5
400.359	1	3
400.530	1	4
400.700	1	0
400.871	1	2
401.042	1	6
401.213	1	9
401.383	1	-4
401.554	1	-1
401.725	1	5
401.895	1	2
402.066	1	-5
402.237	1	-6
402.408	1	1
402.578	1	-1
402.749	1	2
402.920	1	1
403.090	1	2
403.261	1	11
403.432	1	4
403.603	1	14
403.773	1	3
403.944	1	3
404.115	1	2
404.285	1	-2
404.456	1	-4
404.627	1	10
404.797	1	1
404.968	1	1
405.139	1	-7
405.310	1	2
405.480	1	5
405.651	1	-1
405.822	1	-6
405.992	1	11
406.163	1	5
406.334	1	-1
406.504	1	-4
406.675	1	-7
406.846	1	9
407.016	1	0
407.187	1	3
407.358	1	5
407.528	1	-12
407.699	1	1
407.870	1	3
408.041	1	11
408.211	1	-6
408.382	1	9
408.553	1	-6
408.723	1	-7
408.894	1	-4
409.065	1	-4
409.235	1	-13
409.406	1	-3
409.577	1	9
409.747	1	11
409.918	1	5
410.089	1	2
410.259	1	2
410.430	1	-1
410.601	1	10
410.771	1	3
410.942	1	2
411.113	1	18
411.283	1	-4
411.454	1	2
411.625	1	-2
411.795	1	0
411.966	1	2
412.137	1	0
412.307	1	-3
412.478	1	-6
412.649	1	1
412.819	1	3
412.990	1	3
413.161	1	2
413.331	1	4
413.502	1	6
413.672	1	-7
413.843	1	-1
414.014	1	6
414.184	1	3
414.355	1	5
414.526	1	-14
414.696	1	-2
414.867	1	-7
415.038	1	3
415.208	1	4
415.379	1	-4
415.550	1	-5
415.720	1	1
415.891	1	2
416.062	1	6
416.232	1	-7
416.403	1	2
416.573	1	7
416.744	1	-3
416.915	1	-7
417.085	1	1
417.256	1	2
417.427	1	-9
417.597	1	3
417.768	1	3
417.939	1	-3
418.109	1	-6
418.280	1	-2
418.450	1	7
418.621	1	-10
418.792	1	5
418.962	1	-1
419.133	1	-3
419.304	1	-1
419.474	1	2
419.645	1	-1
419.815	1	-10
419.986	1	0
420.157	1	5
420.327	1	2
420.498	1	-6
420.669	1	9
420.839	1	-6
421.010	1	0
421.180	1	2
421.351	1	14
421.522	1	3
421.692	1	-4
421.863	1	-3
422.033	1	-7
422.204	1	-1
422.375	1	-3
422.545	1	-4
422.716	1	8
422.886	1	6
423.057	1	14
423.228	1	5
423.398	1	2
423.569	1	6
423.740	1	-1
423.910	1	11
424.081	1	1
424.251	1	6
424.422	1	-3
424.593	1	0
424.763	1	-3
424.934	1	1
425.104	1	-6
425.275	1	15
425.445	1	1
425.616	1	-4
425.787	1	1
425.957	1	-6
426.128	1	10
426.298	1	1
426.469	1	8
426.640	1	-10
426.810	1	5
426.981	1	-7
427.151	1	4
427.322	1	3
427.493	1	-6
427.663	1	1
427.834	1	-5
428.004	1	-8
428.175	1	-9
428.345	1	-5
428.516	1	-1
428.687	1	12
428.857	1	13
429.028	1	0
429.198	1	0
429.369	1	-9
429.540	1	-9
429.710	1	14
429.881	1	2
430.051	1	-2
430.222	1	5
430.392	1	5
430.563	1	10
430.734	1	-1
430.904	1	0
431.075	1	-9
431.245	1	-1
431.416	1	-5
431.586	1	-2
431.757	1	10
431.927	1	5
432.098	1	-2
432.269	1	4
432.439	1	-10
432.610	1	-2
432.780	1	-12
432.951	1	12
433.121	1	-2
433.292	1	11
433.462	1	2
433.633	1	6
433.804	1	-3
433.974	1	-1
434.145	1	-7
434.315	1	-1
434.486	1	6
434.656	1	3
434.827	1	-4
434.997	1	4
435.168	1	-6
435.339	1	-1
435.509	1	5
435.680	1	2
435.850	1	-5
436.021	1	-14
436.191	1	6
436.362	1	-1
436.532	1	4
436.703	1	-2
436.873	1	-4
437.044	1	1
437.214	1	-5
437.385	1	18
437.556	1	-1
437.726	1	13
437.897	1	-13
438.067	1	-2
438.238	1	0
438.408	1	3
438.579	1	18
438.749	1	-3
438.920	1	-5
439.090	1	1
439.261	1	-1
439.431	1	2
439.602	1	2
439.772	1	-1
439.943	1	1
440.113	1	-1
440.284	1	10
440.455	1	10
440.625	1	8
440.796	1	7
440.966	1	7
441.137	1	-6
441.307	1	7
441.478	1	1
441.648	1	4
441.819	1	-5
441.989	1	1
442.160	1	8
442.330	1	-4
442.501	1	-4
442.671	1	-4
442.842	1	11
443.012	1	-9
443.183	1	-2
443.353	1	2
443.524	1	2
443.694	1	15
443.865	1	7
444.035	1	-5
444.206	1	-2
444.376	1	7
444.547	1	-11
444.717	1	5
444.888	1	-3
445.058	1	-3
445.229	1	4
445.399	1	4
445.570	1	0
445.740	1	9
445.911	1	-8
446.081	1	-4
446.252	1	-3
446.422	1	-3
446.593	1	8
446.763	1	7
446.934	1	1
447.104	1	-10
447.275	1	11
447.445	1	-1
447.616	1	-6
447.786	1	-6
447.957	1	9
448.127	1	-6
448.298	1	-2
448.468	1	9
448.639	1	-2
448.809	1	-10
448.979	1	1
449.150	1	4
449.320	1	1
449.491	1	-6
449.661	1	3
449.832	1	-1
450.002	1	1
450.173	1	0
450.343	1	-8
450.514	1	1
450.684	1	-10
450.855	1	-6
451.025	1	-1
451.196	1	-5
451.366	1	-3
451.537	1	-1
451.707	1	0
451.878	1	2
452.048	1	-5
452.218	1	3
452.389	1	-4
452.559	1	-4
452.730	1	4
452.900	1	1
453.071	1	-8
453.241	1	-3
453.412	1	1
453.582	1	1
453.753	1	6
453.923	1	7
454.093	1	2
454.264	1	2
454.434	1	-8
454.605	1	-7
454.775	1	-12
454.946	1	-4
455.116	1	-2
455.287	1	-1
455.457	1	10
455.628	1	-1
455.798	1	-10
455.968	1	-1
456.139	1	-10
456.309	1	4
456.480	1	-13
456.650	1	7
456.821	1	-8
456.991	1	16
457.161	1	-5
457.332	1	5
457.502	1	2
457.673	1	-3
457.843	1	-4
458.014	1	3
458.184	1	4
458.355	1	7
458.525	1	-6
458.695	1	8
458.866	1	10
459.036	1	-6
459.207	1	-14
459.377	1	-3
459.548	1	-1
459.718	1	6
459.888	1	8
460.059	1	7
460.229	1	-6
460.400	1	-1
460.570	1	7
460.740	1	-5
460.911	1	-4
461.081	1	-1
461.252	1	3
461.422	1	4
461.593	1	5
461.763	1	0
461.933	1	2
462.104	1	-3
462.274	1	4
462.445	1	-3
462.615	1	-3
462.785	1	6
462.956	1	0
463.126	1	5
463.297	1	-10
463.467	1	-7
463.638	1	11
463.808	1	-6
463.978	1	-11
464.149	1	-1
464.319	1	-9
464.490	1	-4
464.660	1	-2
464.830	1	8
465.001	1	3
465.171	1	10
465.342	1	7
465.512	1	1
465.682	1	-4
465.853	1	0
466.023	1	0
466.194	1	-1
466.364	1	-12
466.534	1	5
466.705	1	-3
466.875	1	5
467.045	1	-4
467.216	1	4
467.386	1	9
467.557	1	6
467.727	1	-1
467.897	1	-2
468.068	1	7
468.238	1	5
468.409	1	-7
468.579	1	6
468.749	1	7
468.920	1	0
469.090	1	-12
469.260	1	-1
469.431	1	-3
469.601	1	1
469.772	1	4
469.942	1	-2
470.112	1	6
470.283	1	4
470.453	1	1
470.623	1	-6
470.794	1	-2
470.964	1	4
471.135	1	16
471.305	1	6
471.475	1	14
471.646	1	5
471.816	1	6
471.986	1	8
472.157	1	0
472.327	1	9
472.497	1	0
472.668	1	-4
472.838	1	-6
473.009	1	-8
473.179	1	1
473.349	1	7
473.520	1	4
473.690	1	-2
473.860	1	-6
474.031	1	-1
474.201	1	-8
474.371	1	-2
474.542	1	-7
474.712	1	2
474.882	1	-11
475.053	1	4
475.223	1	3
475.394	1	5
475.564	1	-3
475.734	1	8
475.905	1	-3
476.075	1	5
476.245	1	-4
476.416	1	7
476.586	1	-3
476.756	1	-7
476.927	1	-5
477.097	1	2
477.267	1	7
477.438	1	-2
477.608	1	-10
477.778	1	2
477.949	1	1
478.119	1	3
478.289	1	10
478.460	1	-3
478.630	1	-6
478.800	1	-14
478.971	1	3
479.141	1	-4
479.311	1	0
479.482	1	-2
479.652	1	5
479.822	1	-3
479.993	1	3
480.163	1	1
480.333	1	3
480.504	1	-2
480.674	1	3
480.844	1	-9
481.015	1	-8
481.185	1	-6
481.355	1	1
481.525	1	-7
481.696	1	-1
481.866	1	8
482.036	1	0
482.207	1	-3
482.377	1	-5
482.547	1	-9
482.718	1	-2
482.888	1	-4
483.058	1	0
483.229	1	-12
483.399	1	1
483.569	1	2
483.740	1	0
483.910	1	3
484.080	1	-2
484.250	1	8
484.421	1	-6
484.591	1	0
484.761	1	-1
484.932	1	-4
485.102	1	0
485.272	1	-1
485.443	1	2
485.613	1	-5
485.783	1	-1
485.953	1	-2
486.124	1	5
486.294	1	12
486.464	1	4
486.635	1	3
486.805	1	-2
486.975	1	-10
487.146	1	-13
487.316	1	14
487.486	1	8
487.656	1	-3
487.827	1	-3
487.997	1	3
488.167	1	-4
488.338	1	11
488.508	1	7
488.678	1	7
488.848	1	-3
489.019	1	-5
489.189	1	-4
489.359	1	2
489.529	1	2
489.700	1	3
489.870	1	6
490.040	1	5
490.211	1	-1
490.381	1	3
490.551	1	4
490.721	1	-3
490.892	1	1
491.062	1	0
491.232	1	-2
491.402	1	11
491.573	1	6
491.743	1	7
491.913	1	-8
492.084	1	-5
492.254	1	-6
492.424	1	0
492.594	1	5
492.765	1	8
492.935	1	-14
493.105	1	16
493.275	1	8
493.446	1	13
493.616	1	0
493.786	1	-2
493.956	1	-4
494.127	1	1
494.297	1	-4
494.467	1	-4
494.637	1	1
494.808	1	4
494.978	1	5
495.148	1	14
495.318	1	-6
495.489	1	5
495.659	1	10
495.829	1	1
495.999	1	-3
496.170	1	-4
496.340	1	-1
496.510	1	13
496.680	1	-6
496.851	1	-4
497.021	1	0
497.191	1	10
497.361	1	-5
497.532	1	16
497.702	1	0
497.872	1	1
498.042	1	4
498.213	1	-1
498.383	1	1
498.553	1	3
498.723	1	-3
498.894	1	0
499.064	1	3
499.234	1	8
499.404	1	-9
499.574	1	-1
499.745	1	0
499.915	1	7
500.085	1	9
500.255	1	0
500.426	1	-8
500.596	1	-5
500.766	1	4
500.936	1	-4
501.106	1	1
501.277	1	-4
501.447	1	-3
501.617	1	4
501.787	1	6
501.958	1	12
502.128	1	8
502.298	1	-3
502.468	1	5
502.638	1	3
502.809	1	10
502.979	1	6
503.149	1	2
503.319	1	-5
503.489	1	3
503.660	1	1
503.830	1	-1
504.000	1	13
504.170	1	2
504.340	1	-10
504.511	1	4
504.681	1	4
504.851	1	-8
505.021	1	-6
505.192	1	3
505.362	1	5
505.532	1	-11
505.702	1	-1
505.872	1	-2
506.043	1	13
506.213	1	-6
506.383	1	-4
506.553	1	9
506.723	1	-14
506.893	1	1
507.064	1	8
507.234	1	-1
507.404	1	7
507.574	1	13
507.744	1	24
507.915	1	2
508.085	1	-8
508.255	1	1
508.425	1	-6
508.595	1	-1
508.766	1	-5
508.936	1	-12
509.106	1	7
509.276	1	8
509.446	1	0
509.616	1	6
509.787	1	-8
509.957	1	5
510.127	1	-8
510.297	1	-8
510.467	1	0
510.638	1	3
510.808	1	-9
510.978	1	0
511.148	1	5
511.318	1	-5
511.488	1	-3
511.659	1	-3
511.829	1	-3
511.999	1	8
512.169	1	9
512.339	1	0
512.509	1	12
512.680	1	-4
512.850	1	-1
513.020	1	2
513.190	1	-10
513.360	1	6
513.530	1	1
513.700	1	11
513.871	1	1
514.041	1	9
514.211	1	0
514.381	1	0
514.551	1	-1
514.721	1	-3
514.892	1	-2
515.062	1	-2
515.232	1	-8
515.402	1	-12
515.572	1	1
515.742	1	-1
515.912	1	7
516.083	1	3
516.253	1	6
516.423	1	3
516.593	1	-1
516.763	1	-11
516.933	1	-9
517.104	1	-1
517.274	1	1
517.444	1	10
517.614	1	4
517.784	1	5
517.954	1	-8
518.124	1	-11
518.294	1	10
518.465	1	-6
518.635	1	2
518.805	1	0
518.975	1	4
519.145	1	0
519.315	1	0
519.485	1	4
519.656	1	1
519.826	1	4
519.996	1	0
520.166	1	-5
520.336	1	3
520.506	1	-10
520.676	1	-7
520.846	1	12
521.017	1	1
521.187	1	1
521.357	1	-5
521.527	1	12
521.697	1	-1
521.867	1	7
522.037	1	1
522.207	1	-6
522.377	1	12
522.548	1	-4
522.718	1	4
522.888	1	0
523.058	1	4
523.228	1	-1
523.398	1	-8
523.568	1	5
523.738	1	-3
523.909	1	-2
524.079	1	-8
524.249	1	-6
524.419	1	2
524.589	1	-1
524.759	1	-7
524.929	1	-2
525.099	1	-3
525.269	1	-6
525.439	1	-3
525.610	1	15
525.780	1	-2
525.950	1	-2
526.120	1	3
526.290	1	0
526.460	1	4
526.630	1	-3
526.800	1	4
526.970	1	0
527.140	1	8
527.311	1	6
527.481	1	2
527.651	1	-7
527.821	1	0
527.991	1	1
528.161	1	1
528.331	1	2
528.501	1	4
528.671	1	-9
528.841	1	4
529.011	1	1
529.181	1	-7
529.352	1	8
529.522	1	3
529.692	1	0
529.862	1	-8
530.032	1	-5
530.202	1	-7
530.372	1	-5
530.542	1	4
530.712	1	7
530.882	1	-3
531.052	1	1
531.222	1	3
531.392	1	-2
531.563	1	-4
531.733	1	-1
531.903	1	5
532.073	1	-2
532.243	1	5
532.413	1	5
532.583	1	1
532.753	1	14
532.923	1	-1
533.093	1	8
533.263	1	3
533.433	1	1
533.603	1	4
533.773	1	-4
533.943	1	3
534.113	1	1
534.284	1	-8
534.454	1	-7
534.624	1	1
534.794	1	-4
534.964	1	6
535.134	1	4
535.304	1	6
535.474	1	2
535.644	1	12
535.814	1	-8
535.984	1	-1
536.154	1	2
536.324	1	6
536.494	1	2
536.664	1	-6
536.834	1	1
537.004	1	-7
537.174	1	7
537.344	1	-2
537.514	1	-6
537.685	1	7
537.855	1	5
538.025	1	9
538.195	1	-1
538.365	1	-5
538.535	1	0
538.705	1	-7
538.875	1	11
539.045	1	12
539.215	1	4
539.385	1	-8
539.555	1	4
539.725	1	-8
539.895	1	-11
540.065	1	-11
540.235	1	2
540.405	1	2
540.575	1	-4
540.745	1	8
540.915	1	4
541.085	1	3
541.255	1	-4
541.425	1	-13
541.595	1	8
541.765	1	-3
541.935	1	-1
542.105	1	8
542.275	1	9
542.445	1	4
542.615	1	-3
542.785	1	-11
542.955	1	2
543.125	1	-5
543.295	1	-8
543.465	1	0
543.635	1	-3
543.805	1	-4
543.975	1	-3
544.145	1	-6
544.315	1	7
544.485	1	3
544.655	1	-10
544.825	1	0
544.995	1	-7
545.165	1	8
545.335	1	-7
545.505	1	3
545.675	1	7
545.845	1	3
546.015	1	-3
546.185	1	-1
546.355	1	7
546.525	1	-5
546.695	1	4
546.865	1	-12
547.035	1	3
547.205	1	6
547.375	1	1
547.545	1	-3
547.715	1	-3
547.885	1	2
548.055	1	-2
548.225	1	3
548.395	1	3
548.565	1	0
548.735	1	10
548.905	1	-3
549.075	1	-1
549.245	1	4
549.415	1	-1
549.585	1	5
549.755	1	-3
549.925	1	10
550.095	1	4
550.265	1	5
550.435	1	-5
550.605	1	-2
550.775	1	7
550.945	1	0
551.115	1	2
551.285	1	-4
551.455	1	0
551.625	1	8
551.795	1	4
551.965	1	-2
552.135	1	12
552.305	1	-5
552.475	1	-4
552.645	1	3
552.815	1	8
552.985	1	-1
553.155	1	0
553.325	1	4
553.495	1	-11
553.665	1	-6
553.835	1	2
554.004	1	8
554.174	1	-1
554.344	1	-6
554.514	1	-16
554.684	1	9
554.854	1	6
555.024	1	2
555.194	1	7
555.364	1	10
555.534	1	14
555.704	1	6
555.874	1	3
556.044	1	10
556.214	1	-10
556.384	1	5
556.554	1	7
556.724	1	11
556.894	1	-1
557.064	1	4
557.234	1	-10
557.404	1	3
557.573	1	-10
557.743	1	-3
557.913	1	-2
558.083	1	2
558.253	1	2
558.423	1	6
558.593	1	7
558.763	1	5
558.933	1	1
559.103	1	-8
559.273	1	1
559.443	1	-2
559.613	1	6
559.783	1	7
559.953	1	-3
560.122	1	4
560.292	1	-5
560.462	1	5
560.632	1	-4
560.802	1	0
560.972	1	3
561.142	1	0
561.312	1	-11
561.482	1	4
561.652	1	-9
561.822	1	12
561.992	1	-1
562.162	1	-2
562.331	1	-14
562.501	1	4
562.671	1	-4
562.841	1	-14
563.011	1	-6
563.181	1	13
563.351	1	3
563.521	1	3
563.691	1	-15
563.861	1	6
564.031	1	11
564.201	1	3
564.370	1	1
564.540	1	15
564.710	1	-6
564.880	1	-6
565.050	1	2
565.220	1	-3
565.390	1	6
565.560	1	0
565.730	1	6
565.900	1	-5
566.069	1	-8
566.239	1	2
566.409	1	0
566.579	1	7
566.749	1	-1
566.919	1	4
567.089	1	2
567.259	1	-5
567.429	1	-3
567.599	1	-1
567.768	1	5
567.938	1	-1
568.108	1	-1
568.278	1	0
568.448	1	-6
568.618	1	1
568.788	1	13
568.958	1	8
569.128	1	6
569.297	1	-18
569.467	1	-1
569.637	1	-2
569.807	1	-5
569.977	1	1
570.147	1	7
570.317	1	-8
570.487	1	-9
570.656	1	-2
570.826	1	-7
570.996	1	-2
571.166	1	-4
571.336	1	2
571.506	1	5
571.676	1	-2
571.846	1	9
572.015	1	0
572.185	1	6
572.355	1	-7
572.525	1	0
572.695	1	-8
572.865	1	1
573.035	1	0
573.205	1	2
573.374	1	10
573.544	1	0
573.714	1	-2
573.884	1	11
574.054	1	7
574.224	1	-1
574.394	1	5
574.563	1	7
574.733	1	-1
574.903	1	-6
575.073	1	-5
575.243	1	-4
575.413	1	5
575.583	1	7
575.752	1	6
575.922	1	-9
576.092	1	6
576.262	1	8
576.432	1	-8
576.602	1	0
576.772	1	-9
576.941	1	5
577.111	1	3
577.281	1	0
577.451	1	1
577.621	1	-10
577.791	1	13
577.960	1	-3
578.130	1	-8
578.300	1	-5
578.470	1	15
578.640	1	-3
578.810	1	-9
578.979	1	3
579.149	1	-1
579.319	1	4
579.489	1	6
579.659	1	6
579.829	1	-5
579.998	1	1
580.168	1	1
580.338	1	4
580.508	1	9
580.678	1	10
580.848	1	6
581.017	1	8
581.187	1	2
581.357	1	-9
581.527	1	4
581.697	1	-5
581.867	1	-9
582.036	1	10
582.206	1	0
582.376	1	4
582.546	1	8
582.716	1	2
582.885	1	-11
583.055	1	6
583.225	1	4
583.395	1	6
583.565	1	0
583.735	1	9
583.904	1	1
584.074	1	-11
584.244	1	5
584.414	1	-7
584.584	1	-4
584.753	1	2
584.923	1	-7
585.093	1	-2
585.263	1	-7
585.433	1	0
585.602	1	7
585.772	1	2
585.942	1	3
586.112	1	7
586.282	1	7
586.451	1	1
586.621	1	13
586.791	1	0
586.961	1	6
587.131	1	-8
587.300	1	-8
587.470	1	5
587.640	1	-2
587.810	1	4
587.980	1	-10
588.149	1	10
588.319	1	-10
588.489	1	4
588.659	1	7
588.829	1	3
588.998	1	17
589.168	1	4
589.338	1	2
589.508	1	-6
589.677	1	0
589.847	1	-3
590.017	1	1
590.187	1	3
590.357	1	7
590.526	1	7
590.696	1	3
590.866	1	1
591.036	1	-8
591.205	1	-1
591.375	1	-5
591.545	1	1
591.715	1	1
591.885	1	4
592.054	1	5
592.224	1	6
592.394	1	3
592.564	1	4
592.733	1	-1
592.903	1	1
593.073	1	0
593.243	1	-4
593.412	1	8
593.582	1	1
593.752	1	12
593.922	1	-6
594.091	1	2
594.261	1	16
594.431	1	0
594.601	1	-10
594.771	1	2
594.940	1	-7
595.110	1	13
595.280	1	-4
595.450	1	-4
595.619	1	13
595.789	1	-2
595.959	1	4
596.129	1	4
596.298	1	-4
596.468	1	-7
596.638	1	-10
596.808	1	1
596.977	1	4
597.147	1	6
597.317	1	-2
597.487	1	2
597.656	1	6
597.826	1	6
597.996	1	3
598.166	1	7
598.335	1	-7
598.505	1	-2
598.675	1	3
598.844	1	7
599.014	1	2
599.184	1	-1
599.354	1	7
599.523	1	5
599.693	1	4
599.863	1	-1
600.033	1	6
600.202	1	-6
600.372	1	-3
600.542	1	0
600.712	1	-1
600.881	1	-6
601.051	1	-8
601.221	1	4
601.390	1	16
601.560	1	8
601.730	1	6
601.900	1	5
602.069	1	4
602.239	1	-1
602.409	1	-3
602.578	1	-1
602.748	1	-2
602.918	1	1
603.088	1	-7
603.257	1	-13
603.427	1	9
603.597	1	7
603.767	1	5
603.936	1	4
604.106	1	9
604.276	1	1
604.445	1	7
604.615	1	-6
604.785	1	-7
604.954	1	-4
605.124	1	1
605.294	1	7
605.464	1	-7
605.633	1	-4
605.803	1	0
605.973	1	-3
606.142	1	2
606.312	1	-6
606.482	1	3
606.652	1	-2
606.821	1	5
606.991	1	5
607.161	1	-13
607.330	1	-8
607.500	1	8
607.670	1	8
607.839	1	1
608.009	1	2
608.179	1	1
608.348	1	7
608.518	1	-9
608.688	1	-3
608.858	1	-4
609.027	1	6
609.197	1	-2
609.367	1	1
609.536	1	-4
609.706	1	9
609.876	1	-5
610.045	1	3
610.215	1	-8
610.385	1	0
610.554	1	-2
610.724	1	-1
610.894	1	15
611.063	1	-4
611.233	1	-6
611.403	1	1
611.572	1	3
611.742	1	-8
611.912	1	-5
612.081	1	-1
612.251	1	6
612.421	1	-4
612.590	1	-4
612.760	1	-9
612.930	1	-3
613.099	1	6
613.269	1	4
613.439	1	-3
613.608	1	1
613.778	1	7
613.948	1	0
614.117	1	-10
614.287	1	4
614.457	1	5
614.626	1	-10
614.796	1	8
614.966	1	-11
615.135	1	-3
615.305	1	-12
615.475	1	-6
615.644	1	-7
615.814	1	-6
615.984	1	8
616.153	1	-8
616.323	1	15
616.493	1	-6
616.662	1	3
616.832	1	16
617.002	1	-1
617.171	1	5
617.341	1	-3
617.511	1	13
617.680	1	6
617.850	1	4
618.019	1	-14
618.189	1	-8
618.359	1	4
618.528	1	9
618.698	1	-5
618.868	1	6
619.037	1	-5
619.207	1	-3
619.377	1	-11
619.546	1	7
619.716	1	1
619.885	1	-8
620.055	1	-1
620.225	1	6
620.394	1	5
620.564	1	-8
620.734	1	-3
620.903	1	13
621.073	1	-4
621.242	1	-7
621.412	1	4
621.582	1	1
621.751	1	-2
621.921	1	-1
622.091	1	-2
622.260	1	-7
622.430	1	1
622.599	1	3
622.769	1	-2
622.939	1	0
623.108	1	-3
623.278	1	0
623.448	1	-2
623.617	1	-7
623.787	1	-2
623.956	1	13
624.126	1	2
624.296	1	-5
624.465	1	6
624.635	1	14
624.804	1	0
624.974	1	1
625.144	1	1
625.313	1	4
625.483	1	2
625.652	1	-1
625.822	1	-7
625.992	1	1
626.161	1	2
626.331	1	-6
626.501	1	1
626.670	1	0
626.840	1	2
627.009	1	14
627.179	1	-6
627.348	1	0
627.518	1	0
627.688	1	10
627.857	1	6
628.027	1	0
628.196	1	-2
628.366	1	-1
628.536	1	-11
628.705	1	0
628.875	1	3
629.044	1	1
629.214	1	-3
629.384	1	1
629.553	1	-1
629.723	1	-14
629.892	1	-7
630.062	1	6
630.232	1	-3
630.401	1	0
630.571	1	7
630.740	1	10
630.910	1	0
631.079	1	11
631.249	1	0
631.419	1	6
631.588	1	-2
631.758	1	7
631.927	1	-7
632.097	1	-3
632.266	1	4
632.436	1	12
632.606	1	-7
632.775	1	3
632.945	1	-3
633.114	1	-4
633.284	1	-3
633.453	1	-1
633.623	1	0
633.793	1	6
633.962	1	-4
634.132	1	11
634.301	1	1
634.471	1	9
634.640	1	4
634.810	1	2
634.979	1	-3
635.149	1	3
635.319	1	-3
635.488	1	-4
635.658	1	21
635.827	1	3
635.997	1	11
636.166	1	-4
636.336	1	0
636.505	1	-4
636.675	1	1
636.845	1	-5
637.014	1	14
637.184	1	-11
637.353	1	-2
637.523	1	-1
637.692	1	6
637.862	1	6
638.031	1	-2
638.201	1	-7
638.370	1	-7
638.540	1	2
638.710	1	7
638.879	1	5
639.049	1	-4
639.218	1	-10
639.388	1	1
639.557	1	-13
639.727	1	-7
639.896	1	1
640.066	1	9
640.235	1	6
640.405	1	1
640.574	1	-2
640.744	1	7
640.914	1	-12
641.083	1	16
641.253	1	-1
641.422	1	-1
641.592	1	8
641.761	1	0
641.931	1	0
642.100	1	-3
642.270	1	-2
642.439	1	2
642.609	1	-2
642.778	1	-3
642.948	1	6
643.117	1	3
643.287	1	-4
643.456	1	5
643.626	1	4
643.795	1	5
643.965	1	-2
644.134	1	-12
644.304	1	-3
644.473	1	3
644.643	1	-6
644.812	1	0
644.982	1	-6
645.151	1	8
645.321	1	4
645.490	1	3
645.660	1	-11
645.829	1	-4
645.999	1	-1
646.168	1	0
646.338	1	5
646.507	1	11
646.677	1	-1
646.846	1	3
647.016	1	9
647.185	1	2
647.355	1	1
647.524	1	-6
647.694	1	-3
647.863	1	-5
648.033	1	-5
648.202	1	9
648.372	1	6
648.541	1	-5
648.711	1	5
648.880	1	2
649.050	1	-11
649.219	1	7
649.389	1	0
649.558	1	-2
649.728	1	4
649.897	1	3
650.067	1	1
650.236	1	5
650.406	1	6
650.575	1	-7
650.745	1	9
650.914	1	-8
651.084	1	-2
651.253	1	3
651.423	1	3
651.592	1	9
651.762	1	4
651.931	1	-5
652.101	1	2
652.270	1	-14
652.440	1	-5
652.609	1	-2
652.778	1	6
652.948	1	-7
653.117	1	6
653.287	1	1
653.456	1	-3
653.626	1	-4
653.795	1	-8
653.965	1	0
654.134	1	5
654.304	1	1
654.473	1	1
654.643	1	-6
654.812	1	15
654.982	1	6
655.151	1	-2
655.320	1	5
655.490	1	-2
655.659	1	4
655.829	1	1
655.998	1	-2
656.168	1	1
656.337	1	-4
656.507	1	0
656.676	1	1
656.846	1	0
657.015	1	5
657.184	1	1
657.354	1	5
657.523	1	5
657.693	1	-12
657.862	1	-2
658.032	1	-3
658.201	1	0
658.371	1	0
658.540	1	1
658.709	1	0
658.879	1	7
659.048	1	2
659.218	1	4
659.387	1	-7
659.557	1	0
659.726	1	0
659.895	1	-4
660.065	1	-7
660.234	1	-5
660.404	1	-2
660.573	1	-8
660.743	1	4
660.912	1	0
661.081	1	12
661.251	1	-4
661.420	1	2
661.590	1	-3
661.759	1	-2
661.929	1	4
662.098	1	-3
662.267	1	-1
662.437	1	4
662.606	1	1
662.776	1	-4
662.945	1	8
663.115	1	1
663.284	1	-3
663.453	1	0
663.623	1	-7
663.792	1	-3
663.962	1	-3
664.131	1	3
664.300	1	7
664.470	1	2
664.639	1	-2
664.809	1	-4
664.978	1	-4
665.148	1	1
665.317	1	-5
665.486	1	9
665.656	1	1
665.825	1	8
665.995	1	2
666.164	1	-5
666.333	1	10
666.503	1	7
666.672	1	2
666.842	1	-4
667.011	1	7
667.180	1	-8
667.350	1	3
667.519	1	7
667.689	1	7
667.858	1	-10
668.027	1	-5
668.197	1	12
668.366	1	13
668.536	1	-8
668.705	1	-1
668.874	1	-3
669.044	1	-7
669.213	1	0
669.382	1	-8
669.552	1	4
669.721	1	-3
669.891	1	-4
670.060	1	1
670.229	1	-4
670.399	1	2
670.568	1	2
670.738	1	6
670.907	1	2
671.076	1	10
671.246	1	-3
671.415	1	-11
671.584	1	-2
671.754	1	-1
671.923	1	11
672.093	1	-3
672.262	1	10
672.431	1	1
672.601	1	3
672.770	1	-5
672.939	1	-1
673.109	1	-9
673.278	1	3
673.448	1	4
673.617	1	-6
673.786	1	-6
