325.333	1	11
325.504	1	2
325.675	1	8
325.846	1	-13
326.017	1	14
326.188	1	11
326.359	1	-3
326.531	1	8
326.702	1	11
326.873	1	3
327.044	1	-4
327.215	1	2
327.386	1	-3
327.557	1	4
327.728	1	0
327.899	1	11
328.070	1	3
328.241	1	14
328.412	1	-4
328.583	1	0
328.754	1	6
328.926	1	-4
329.097	1	8
329.268	1	-8
329.439	1	13
329.610	1	16
329.781	1	4
329.952	1	8
330.123	1	6
330.294	1	7
330.465	1	8
330.636	1	8
330.807	1	5
330.978	1	10
331.149	1	10
331.320	1	9
331.492	1	14
331.663	1	10
331.834	1	-1
332.005	1	9
332.176	1	21
332.347	1	11
332.518	1	20
332.689	1	-2
332.860	1	-1
333.031	1	6
333.202	1	-1
333.373	1	19
333.544	1	11
333.715	1	-2
333.886	1	1
334.057	1	12
334.228	1	8
334.399	1	0
334.570	1	15
334.741	1	10
334.912	1	8
335.084	1	12
335.255	1	20
335.426	1	4
335.597	1	7
335.768	1	13
335.939	1	12
336.110	1	11
336.281	1	7
336.452	1	9
336.623	1	8
336.794	1	4
336.965	1	13
337.136	1	5
337.307	1	15
337.478	1	-10
337.649	1	-9
337.820	1	11
337.991	1	15
338.162	1	6
338.333	1	11
338.504	1	19
338.675	1	2
338.846	1	14
339.017	1	13
339.188	1	11
339.359	1	13
339.530	1	4
339.701	1	12
339.872	1	12
340.043	1	9
340.214	1	10
340.385	1	10
340.556	1	3
340.727	1	27
340.898	1	10
341.069	1	4
341.240	1	-2
341.411	1	17
341.582	1	19
341.753	1	9
341.924	1	14
342.095	1	9
342.266	1	-5
342.437	1	15
342.608	1	3
342.779	1	12
342.950	1	3
343.121	1	10
343.292	1	13
343.463	1	10
343.634	1	18
343.805	1	13
343.976	1	5
344.147	1	11
344.318	1	19
344.489	1	10
344.660	1	9
344.831	1	11
345.002	1	7
345.173	1	10
345.344	1	4
345.515	1	9
345.686	1	8
345.857	1	7
346.028	1	17
346.199	1	8
346.370	1	17
346.541	1	10
346.712	1	16
346.883	1	3
347.054	1	18
347.225	1	5
347.396	1	14
347.567	1	17
347.738	1	-2
347.909	1	7
348.080	1	14
348.251	1	10
348.422	1	20
348.593	1	8
348.764	1	7
348.935	1	6
349.106	1	-8
349.277	1	9
349.448	1	11
349.619	1	13
349.790	1	6
349.961	1	14
350.132	1	6
350.303	1	10
350.474	1	12
350.645	1	12
350.816	1	13
350.987	1	22
351.157	1	3
351.328	1	10
351.499	1	18
351.670	1	19
351.841	1	20
352.012	1	13
352.183	1	10
352.354	1	13
352.525	1	12
352.696	1	11
352.867	1	0
353.038	1	19
353.209	1	18
353.380	1	6
353.551	1	21
353.722	1	3
353.893	1	20
354.064	1	6
354.235	1	17
354.406	1	13
354.576	1	5
354.747	1	8
354.918	1	19
355.089	1	9
355.260	1	1
355.431	1	3
355.602	1	9
355.773	1	10
355.944	1	25
356.115	1	20
356.286	1	9
356.457	1	18
356.628	1	20
356.799	1	2
356.970	1	13
357.141	1	9
357.311	1	10
357.482	1	7
357.653	1	5
357.824	1	6
357.995	1	23
358.166	1	16
358.337	1	13
358.508	1	3
358.679	1	6
358.850	1	23
359.021	1	4
359.192	1	6
359.363	1	9
359.533	1	13
359.704	1	-8
359.875	1	2
360.046	1	11
360.217	1	20
360.388	1	6
360.559	1	25
360.730	1	18
360.901	1	3
361.072	1	7
361.243	1	19
361.414	1	7
361.584	1	3
361.755	1	5
361.926	1	7
362.097	1	18
362.268	1	14
362.439	1	8
362.610	1	12
362.781	1	4
362.952	1	9
363.123	1	3
363.293	1	22
363.464	1	20
363.635	1	9
363.806	1	10
363.977	1	6
364.148	1	4
364.319	1	12
364.490	1	23
364.661	1	10
364.832	1	3
365.002	1	10
365.173	1	10
365.344	1	12
365.515	1	11
365.686	1	8
365.857	1	9
366.028	1	10
366.199	1	16
366.370	1	19
366.540	1	14
366.711	1	13
366.882	1	20
367.053	1	1
367.224	1	18
367.395	1	16
367.566	1	17
367.737	1	-2
367.908	1	19
368.078	1	12
368.249	1	15
368.420	1	13
368.591	1	10
368.762	1	15
368.933	1	22
369.104	1	20
369.274	1	7
369.445	1	18
369.616	1	4
369.787	1	9
369.958	1	12
370.129	1	20
370.300	1	13
370.471	1	5
370.641	1	23
370.812	1	11
370.983	1	11
371.154	1	16
371.325	1	5
371.496	1	9
371.667	1	19
371.837	1	10
372.008	1	18
372.179	1	-4
372.350	1	18
372.521	1	20
372.692	1	16
372.863	1	18
373.033	1	14
373.204	1	5
373.375	1	3
373.546	1	11
373.717	1	7
373.888	1	6
374.059	1	9
374.229	1	9
374.400	1	7
374.571	1	10
374.742	1	15
374.913	1	11
375.084	1	14
375.254	1	15
375.425	1	12
375.596	1	2
375.767	1	13
375.938	1	12
376.109	1	28
376.279	1	6
376.450	1	21
376.621	1	8
376.792	1	22
376.963	1	3
377.134	1	12
377.304	1	11
377.475	1	4
377.646	1	12
377.817	1	13
377.988	1	16
378.159	1	7
378.329	1	15
378.500	1	15
378.671	1	15
378.842	1	21
379.013	1	7
379.184	1	11
379.354	1	3
379.525	1	12
379.696	1	19
379.867	1	21
380.038	1	25
380.209	1	11
380.379	1	14
380.550	1	14
380.721	1	14
380.892	1	3
381.063	1	9
381.233	1	10
381.404	1	26
381.575	1	17
381.746	1	15
381.917	1	9
382.087	1	23
382.258	1	19
382.429	1	0
382.600	1	13
382.771	1	10
382.941	1	9
383.112	1	4
383.283	1	15
383.454	1	22
383.625	1	21
383.795	1	20
383.966	1	11
384.137	1	10
384.308	1	11
384.479	1	15
384.649	1	23
384.820	1	18
384.991	1	15
385.162	1	18
385.333	1	9
385.503	1	10
385.674	1	19
385.845	1	26
386.016	1	10
386.187	1	8
386.357	1	18
386.528	1	13
386.699	1	14
386.870	1	-1
387.041	1	15
387.211	1	7
387.382	1	9
387.553	1	18
387.724	1	15
387.894	1	18
388.065	1	13
388.236	1	19
388.407	1	17
388.578	1	17
388.748	1	0
388.919	1	15
389.090	1	21
389.261	1	10
389.431	1	26
389.602	1	6
389.773	1	17
389.944	1	24
390.114	1	21
390.285	1	20
390.456	1	11
390.627	1	28
390.798	1	15
390.968	1	10
391.139	1	26
391.310	1	23
391.481	1	18
391.651	1	10
391.822	1	16
391.993	1	23
392.164	1	3
392.334	1	18
392.505	1	20
392.676	1	14
392.847	1	13
393.017	1	15
393.188	1	11
393.359	1	8
393.530	1	27
393.700	1	15
393.871	1	26
394.042	1	11
394.213	1	19
394.383	1	15
394.554	1	16
394.725	1	19
394.896	1	15
395.066	1	32
395.237	1	16
395.408	1	19
395.579	1	17
395.749	1	15
395.920	1	9
396.091	1	19
396.262	1	22
396.432	1	14
396.603	1	12
396.774	1	8
396.945	1	11
397.115	1	20
397.286	1	10
397.457	1	12
397.627	1	21
397.798	1	19
397.969	1	14
398.140	1	20
398.310	1	20
398.481	1	19
398.652	1	26
398.823	1	10
398.993	1	7
399.164	1	14
399.335	1	24
399.505	1	23
399.676	1	20
399.847	1	21
400.018	1	22
400.188	1	12
400.359	1	25
400.530	1	14
400.700	1	15
400.871	1	18
401.042	1	14
401.213	1	28
401.383	1	14
401.554	1	20
401.725	1	14
401.895	1	24
402.066	1	16
402.237	1	27
402.408	1	7
402.578	1	10
402.749	1	25
402.920	1	26
403.090	1	18
403.261	1	30
403.432	1	20
403.603	1	24
403.773	1	12
403.944	1	12
404.115	1	12
404.285	1	25
404.456	1	13
404.627	1	21
404.797	1	23
404.968	1	24
405.139	1	17
405.310	1	17
405.480	1	23
405.651	1	6
405.822	1	29
405.992	1	23
406.163	1	26
406.334	1	19
406.504	1	9
406.675	1	24
406.846	1	11
407.016	1	16
407.187	1	23
407.358	1	29
407.528	1	10
407.699	1	16
407.870	1	19
408.041	1	18
408.211	1	15
408.382	1	22
408.553	1	14
408.723	1	16
408.894	1	14
409.065	1	13
409.235	1	12
409.406	1	25
409.577	1	24
409.747	1	31
409.918	1	28
410.089	1	20
410.259	1	22
410.430	1	30
410.601	1	16
410.771	1	20
410.942	1	30
411.113	1	22
411.283	1	13
411.454	1	28
411.625	1	13
411.795	1	21
411.966	1	24
412.137	1	26
412.307	1	8
412.478	1	17
412.649	1	16
412.819	1	19
412.990	1	15
413.161	1	30
413.331	1	18
413.502	1	28
413.672	1	7
413.843	1	16
414.014	1	24
414.184	1	19
414.355	1	23
414.526	1	17
414.696	1	22
414.867	1	8
415.038	1	33
415.208	1	17
415.379	1	15
415.550	1	21
415.720	1	18
415.891	1	25
416.062	1	19
416.232	1	14
416.403	1	22
416.573	1	21
416.744	1	13
416.915	1	12
417.085	1	22
417.256	1	26
417.427	1	15
417.597	1	14
417.768	1	19
417.939	1	9
418.109	1	20
418.280	1	15
418.450	1	22
418.621	1	17
418.792	1	17
418.962	1	16
419.133	1	18
419.304	1	17
419.474	1	22
419.645	1	21
419.815	1	18
419.986	1	23
420.157	1	17
420.327	1	16
420.498	1	18
420.669	1	19
420.839	1	16
421.010	1	13
421.180	1	25
421.351	1	30
421.522	1	18
421.692	1	25
421.863	1	12
422.033	1	20
422.204	1	29
422.375	1	19
422.545	1	26
422.716	1	30
422.886	1	16
423.057	1	34
423.228	1	35
423.398	1	15
423.569	1	32
423.740	1	19
423.910	1	27
424.081	1	26
424.251	1	21
424.422	1	27
424.593	1	23
424.763	1	16
424.934	1	26
425.104	1	16
425.275	1	18
425.445	1	16
425.616	1	17
425.787	1	24
425.957	1	12
426.128	1	18
426.298	1	14
426.469	1	26
426.640	1	8
426.810	1	18
426.981	1	21
427.151	1	20
427.322	1	18
427.493	1	8
427.663	1	19
427.834	1	16
428.004	1	23
428.175	1	10
428.345	1	14
428.516	1	13
428.687	1	21
428.857	1	24
429.028	1	13
429.198	1	14
429.369	1	6
429.540	1	11
429.710	1	21
429.881	1	29
430.051	1	16
430.222	1	21
430.392	1	23
430.563	1	27
430.734	1	20
430.904	1	26
431.075	1	20
431.245	1	7
431.416	1	11
431.586	1	28
431.757	1	26
431.927	1	16
432.098	1	22
432.269	1	30
432.439	1	12
432.610	1	11
432.780	1	20
432.951	1	34
433.121	1	21
433.292	1	25
433.462	1	10
433.633	1	23
433.804	1	11
433.974	1	24
434.145	1	15
434.315	1	21
434.486	1	14
434.656	1	17
434.827	1	14
434.997	1	13
435.168	1	28
435.339	1	11
435.509	1	17
435.680	1	31
435.850	1	15
436.021	1	11
436.191	1	26
436.362	1	18
436.532	1	29
436.703	1	28
436.873	1	14
437.044	1	25
437.214	1	19
437.385	1	20
437.556	1	13
437.726	1	32
437.897	1	15
438.067	1	22
438.238	1	14
438.408	1	19
438.579	1	19
438.749	1	16
438.920	1	16
439.090	1	20
439.261	1	17
439.431	1	33
439.602	1	19
439.772	1	23
439.943	1	9
440.113	1	15
440.284	1	18
440.455	1	23
440.625	1	18
440.796	1	23
440.966	1	20
441.137	1	18
441.307	1	24
441.478	1	28
441.648	1	20
441.819	1	19
441.989	1	32
442.160	1	27
442.330	1	14
442.501	1	21
442.671	1	21
442.842	1	16
443.012	1	14
443.183	1	10
443.353	1	21
443.524	1	25
443.694	1	22
443.865	1	15
444.035	1	16
444.206	1	7
444.376	1	26
444.547	1	11
444.717	1	27
444.888	1	20
445.058	1	14
445.229	1	32
445.399	1	15
445.570	1	21
445.740	1	21
445.911	1	13
446.081	1	26
446.252	1	17
446.422	1	6
446.593	1	20
446.763	1	22
446.934	1	24
447.104	1	13
447.275	1	18
447.445	1	19
447.616	1	15
447.786	1	23
447.957	1	15
448.127	1	16
448.298	1	23
448.468	1	16
448.639	1	14
448.809	1	-2
448.979	1	20
449.150	1	13
449.320	1	18
449.491	1	12
449.661	1	23
449.832	1	22
450.002	1	18
450.173	1	27
450.343	1	6
450.514	1	18
450.684	1	3
450.855	1	19
451.025	1	19
451.196	1	18
451.366	1	11
451.537	1	20
451.707	1	23
451.878	1	12
452.048	1	23
452.218	1	20
452.389	1	13
452.559	1	22
452.730	1	19
452.900	1	17
453.071	1	19
453.241	1	16
453.412	1	17
453.582	1	24
453.753	1	9
453.923	1	19
454.093	1	33
454.264	1	21
454.434	1	8
454.605	1	21
454.775	1	5
454.946	1	11
455.116	1	12
455.287	1	22
455.457	1	14
455.628	1	12
455.798	1	11
455.968	1	8
456.139	1	9
456.309	1	21
456.480	1	13
456.650	1	16
456.821	1	8
456.991	1	21
457.161	1	19
457.332	1	14
457.502	1	22
457.673	1	9
457.843	1	13
458.014	1	10
458.184	1	25
458.355	1	27
458.525	1	10
458.695	1	10
458.866	1	34
459.036	1	15
459.207	1	4
459.377	1	17
459.548	1	6
459.718	1	12
459.888	1	28
460.059	1	10
460.229	1	12
460.400	1	9
460.570	1	16
460.740	1	4
460.911	1	14
461.081	1	15
461.252	1	20
461.422	1	28
461.593	1	18
461.763	1	13
461.933	1	17
462.104	1	18
462.274	1	23
462.445	1	8
462.615	1	17
462.785	1	20
462.956	1	15
463.126	1	19
463.297	1	12
463.467	1	17
463.638	1	18
463.808	1	8
463.978	1	17
464.149	1	14
464.319	1	1
464.490	1	15
464.660	1	22
464.830	1	23
465.001	1	11
465.171	1	20
465.342	1	20
465.512	1	18
465.682	1	8
465.853	1	15
466.023	1	9
466.194	1	13
466.364	1	12
466.534	1	17
466.705	1	17
466.875	1	15
467.045	1	14
467.216	1	20
467.386	1	30
467.557	1	17
467.727	1	13
467.897	1	-5
468.068	1	24
468.238	1	14
468.409	1	8
468.579	1	16
468.749	1	26
468.920	1	11
469.090	1	11
469.260	1	14
469.431	1	4
469.601	1	8
469.772	1	11
469.942	1	21
470.112	1	18
470.283	1	18
470.453	1	6
470.623	1	1
470.794	1	21
470.964	1	21
471.135	1	33
471.305	1	32
471.475	1	12
471.646	1	21
471.816	1	19
471.986	1	18
472.157	1	10
472.327	1	25
472.497	1	11
472.668	1	2
472.838	1	10
473.009	1	11
473.179	1	20
473.349	1	16
473.520	1	7
473.690	1	13
473.860	1	3
474.031	1	22
474.201	1	1
474.371	1	22
474.542	1	15
474.712	1	21
474.882	1	7
475.053	1	16
475.223	1	15
475.394	1	24
475.564	1	13
475.734	1	17
475.905	1	4
476.075	1	18
476.245	1	9
476.416	1	17
476.586	1	14
476.756	1	7
476.927	1	8
477.097	1	12
477.267	1	25
477.438	1	15
477.608	1	6
477.778	1	23
477.949	1	17
478.119	1	6
478.289	1	15
478.460	1	12
478.630	1	3
478.800	1	9
478.971	1	14
479.141	1	10
479.311	1	6
479.482	1	15
479.652	1	12
479.822	1	9
479.993	1	17
480.163	1	28
480.333	1	15
480.504	1	-2
480.674	1	27
480.844	1	16
481.015	1	17
481.185	1	1
481.355	1	22
481.525	1	7
481.696	1	10
481.866	1	17
482.036	1	14
482.207	1	15
482.377	1	-4
482.547	1	13
482.718	1	10
482.888	1	6
483.058	1	5
483.229	1	19
483.399	1	7
483.569	1	20
483.740	1	16
483.910	1	24
484.080	1	12
484.250	1	19
484.421	1	9
484.591	1	4
484.761	1	12
484.932	1	8
485.102	1	13
485.272	1	15
485.443	1	15
485.613	1	15
485.783	1	7
485.953	1	6
486.124	1	19
486.294	1	23
486.464	1	6
486.635	1	5
486.805	1	15
486.975	1	10
487.146	1	8
487.316	1	14
487.486	1	14
487.656	1	5
487.827	1	11
487.997	1	25
488.167	1	11
488.338	1	9
488.508	1	17
488.678	1	14
488.848	1	7
489.019	1	13
489.189	1	11
489.359	1	10
489.529	1	9
489.700	1	18
489.870	1	15
490.040	1	22
490.211	1	8
490.381	1	15
490.551	1	9
490.721	1	14
490.892	1	17
491.062	1	16
491.232	1	7
491.402	1	33
491.573	1	7
491.743	1	13
491.913	1	12
492.084	1	16
492.254	1	6
492.424	1	2
492.594	1	21
492.765	1	8
492.935	1	10
493.105	1	14
493.275	1	11
493.446	1	14
493.616	1	10
493.786	1	9
493.956	1	15
494.127	1	19
494.297	1	16
494.467	1	4
494.637	1	11
494.808	1	14
494.978	1	8
495.148	1	16
495.318	1	9
495.489	1	14
495.659	1	10
495.829	1	19
495.999	1	7
496.170	1	16
496.340	1	11
496.510	1	29
496.680	1	15
496.851	1	13
497.021	1	1
497.191	1	26
497.361	1	18
497.532	1	18
497.702	1	8
497.872	1	10
498.042	1	14
498.213	1	9
498.383	1	10
498.553	1	13
498.723	1	4
498.894	1	3
499.064	1	13
499.234	1	16
499.404	1	4
499.574	1	5
499.745	1	16
499.915	1	19
500.085	1	15
500.255	1	14
500.426	1	6
500.596	1	1
500.766	1	10
500.936	1	4
501.106	1	12
501.277	1	12
501.447	1	9
501.617	1	16
501.787	1	12
501.958	1	8
502.128	1	10
502.298	1	7
502.468	1	16
502.638	1	7
502.809	1	19
502.979	1	12
503.149	1	14
503.319	1	10
503.489	1	7
503.660	1	5
503.830	1	13
504.000	1	7
504.170	1	6
504.340	1	11
504.511	1	11
504.681	1	17
504.851	1	14
505.021	1	24
505.192	1	7
505.362	1	9
505.532	1	14
505.702	1	7
505.872	1	14
506.043	1	9
506.213	1	14
506.383	1	11
506.553	1	17
506.723	1	-11
506.893	1	0
507.064	1	22
507.234	1	6
507.404	1	1
507.574	1	16
507.744	1	11
507.915	1	10
508.085	1	9
508.255	1	11
508.425	1	8
508.595	1	13
508.766	1	6
508.936	1	8
509.106	1	20
509.276	1	9
509.446	1	7
509.616	1	18
509.787	1	9
509.957	1	19
510.127	1	-3
510.297	1	2
510.467	1	14
510.638	1	7
510.808	1	-2
510.978	1	18
511.148	1	1
511.318	1	-4
511.488	1	8
511.659	1	13
511.829	1	6
511.999	1	14
512.169	1	18
512.339	1	12
512.509	1	12
512.680	1	9
512.850	1	14
513.020	1	7
513.190	1	10
513.360	1	14
513.530	1	15
513.700	1	21
513.871	1	8
514.041	1	12
514.211	1	4
514.381	1	17
514.551	1	3
514.721	1	7
514.892	1	5
515.062	1	14
515.232	1	-5
515.402	1	0
515.572	1	11
515.742	1	10
515.912	1	6
516.083	1	14
516.253	1	16
516.423	1	6
516.593	1	4
516.763	1	4
516.933	1	0
517.104	1	7
517.274	1	7
517.444	1	14
517.614	1	10
517.784	1	2
517.954	1	6
518.124	1	5
518.294	1	13
518.465	1	4
518.635	1	6
518.805	1	4
518.975	1	3
519.145	1	6
519.315	1	16
519.485	1	-1
519.656	1	21
519.826	1	27
519.996	1	2
520.166	1	-1
520.336	1	8
520.506	1	-2
520.676	1	4
520.846	1	7
521.017	1	1
521.187	1	5
521.357	1	-3
521.527	1	24
521.697	1	-8
521.867	1	5
522.037	1	12
522.207	1	-4
522.377	1	12
522.548	1	1
522.718	1	3
522.888	1	2
523.058	1	17
523.228	1	10
523.398	1	5
523.568	1	11
523.738	1	7
523.909	1	-5
524.079	1	2
524.249	1	7
524.419	1	3
524.589	1	10
524.759	1	6
524.929	1	0
525.099	1	12
525.269	1	13
525.439	1	10
525.610	1	10
525.780	1	13
525.950	1	11
526.120	1	3
526.290	1	-2
526.460	1	6
526.630	1	13
526.800	1	10
526.970	1	5
527.140	1	12
527.311	1	-1
527.481	1	-4
527.651	1	8
527.821	1	-2
527.991	1	6
528.161	1	6
528.331	1	19
528.501	1	11
528.671	1	0
528.841	1	8
529.011	1	9
529.181	1	-3
529.352	1	12
529.522	1	-3
529.692	1	6
529.862	1	-1
530.032	1	7
530.202	1	3
530.372	1	2
530.542	1	6
530.712	1	11
530.882	1	8
531.052	1	8
531.222	1	13
531.392	1	8
531.563	1	-2
531.733	1	0
531.903	1	18
532.073	1	9
532.243	1	13
532.413	1	7
532.583	1	7
532.753	1	7
532.923	1	5
533.093	1	16
533.263	1	23
533.433	1	2
533.603	1	9
533.773	1	-1
533.943	1	6
534.113	1	3
534.284	1	7
534.454	1	5
534.624	1	3
534.794	1	3
534.964	1	15
535.134	1	-1
535.304	1	8
535.474	1	16
535.644	1	11
535.814	1	-1
535.984	1	4
536.154	1	15
536.324	1	7
536.494	1	2
536.664	1	4
536.834	1	11
537.004	1	0
537.174	1	12
537.344	1	6
537.514	1	6
537.685	1	13
537.855	1	15
538.025	1	2
538.195	1	8
538.365	1	-4
538.535	1	11
538.705	1	1
538.875	1	1
539.045	1	1
539.215	1	-2
539.385	1	-4
539.555	1	8
539.725	1	4
539.895	1	2
540.065	1	1
540.235	1	4
540.405	1	1
540.575	1	2
540.745	1	16
540.915	1	6
541.085	1	0
541.255	1	0
541.425	1	2
541.595	1	18
541.765	1	7
541.935	1	9
542.105	1	19
542.275	1	9
542.445	1	10
542.615	1	-4
542.785	1	-10
542.955	1	9
543.125	1	-3
543.295	1	8
543.465	1	11
543.635	1	10
543.805	1	1
543.975	1	9
544.145	1	5
544.315	1	5
544.485	1	2
544.655	1	2
544.825	1	-1
544.995	1	4
545.165	1	13
545.335	1	0
545.505	1	-1
545.675	1	-6
545.845	1	2
546.015	1	1
546.185	1	7
546.355	1	3
546.525	1	0
546.695	1	8
546.865	1	-12
547.035	1	5
547.205	1	0
547.375	1	-3
547.545	1	8
547.715	1	6
547.885	1	9
548.055	1	2
548.225	1	5
548.395	1	19
548.565	1	5
548.735	1	12
548.905	1	-8
549.075	1	-7
549.245	1	12
549.415	1	-3
549.585	1	2
549.755	1	12
549.925	1	7
550.095	1	10
550.265	1	3
550.435	1	14
550.605	1	6
550.775	1	12
550.945	1	4
551.115	1	18
551.285	1	-2
551.455	1	3
551.625	1	6
551.795	1	1
551.965	1	4
552.135	1	14
552.305	1	11
552.475	1	9
552.645	1	2
552.815	1	10
552.985	1	13
553.155	1	-6
553.325	1	4
553.495	1	-3
553.665	1	-5
553.835	1	15
554.004	1	10
554.174	1	5
554.344	1	-2
554.514	1	2
554.684	1	10
554.854	1	1
555.024	1	3
555.194	1	6
555.364	1	7
555.534	1	11
555.704	1	11
555.874	1	3
556.044	1	14
556.214	1	1
556.384	1	2
556.554	1	8
556.724	1	4
556.894	1	8
557.064	1	11
557.234	1	9
557.404	1	6
557.573	1	-1
557.743	1	3
557.913	1	3
558.083	1	4
558.253	1	5
558.423	1	2
558.593	1	18
558.763	1	11
558.933	1	10
559.103	1	0
559.273	1	17
559.443	1	1
559.613	1	4
559.783	1	7
559.953	1	7
560.122	1	13
560.292	1	10
560.462	1	3
560.632	1	2
560.802	1	1
560.972	1	3
561.142	1	-2
561.312	1	4
561.482	1	5
561.652	1	-3
561.822	1	8
561.992	1	10
562.162	1	2
562.331	1	0
562.501	1	-1
562.671	1	-1
562.841	1	-9
563.011	1	-4
563.181	1	12
563.351	1	7
563.521	1	17
563.691	1	-4
563.861	1	3
564.031	1	18
564.201	1	15
564.370	1	3
564.540	1	11
564.710	1	-5
564.880	1	7
565.050	1	-2
565.220	1	9
565.390	1	-8
565.560	1	-1
565.730	1	2
565.900	1	-7
566.069	1	6
566.239	1	3
566.409	1	10
566.579	1	9
566.749	1	7
566.919	1	11
567.089	1	16
567.259	1	0
567.429	1	-6
567.599	1	8
567.768	1	15
567.938	1	2
568.108	1	-1
568.278	1	5
568.448	1	8
568.618	1	7
568.788	1	8
568.958	1	4
569.128	1	5
569.297	1	-3
569.467	1	9
569.637	1	-5
569.807	1	3
569.977	1	8
570.147	1	8
570.317	1	2
570.487	1	-9
570.656	1	7
570.826	1	1
570.996	1	9
571.166	1	5
571.336	1	14
571.506	1	3
571.676	1	14
571.846	1	10
572.015	1	-2
572.185	1	7
572.355	1	3
572.525	1	5
572.695	1	5
572.865	1	-1
573.035	1	8
573.205	1	-1
573.374	1	19
573.544	1	4
573.714	1	12
573.884	1	4
574.054	1	7
574.224	1	-2
574.394	1	0
574.563	1	15
574.733	1	5
574.903	1	5
575.073	1	9
575.243	1	-2
575.413	1	12
575.583	1	14
575.752	1	7
575.922	1	0
576.092	1	8
576.262	1	13
576.432	1	0
576.602	1	2
576.772	1	-2
576.941	1	9
577.111	1	12
577.281	1	1
577.451	1	4
577.621	1	-9
577.791	1	0
577.960	1	1
578.130	1	-4
578.300	1	-16
578.470	1	8
578.640	1	-2
578.810	1	4
578.979	1	8
579.149	1	-1
579.319	1	2
579.489	1	8
579.659	1	3
579.829	1	-10
579.998	1	11
580.168	1	0
580.338	1	7
580.508	1	14
580.678	1	6
580.848	1	6
581.017	1	10
581.187	1	13
581.357	1	2
581.527	1	5
581.697	1	7
581.867	1	-7
582.036	1	10
582.206	1	7
582.376	1	5
582.546	1	2
582.716	1	7
582.885	1	-6
583.055	1	14
583.225	1	13
583.395	1	11
583.565	1	19
583.735	1	11
583.904	1	-5
584.074	1	4
584.244	1	5
584.414	1	-2
584.584	1	6
584.753	1	3
584.923	1	8
585.093	1	3
585.263	1	8
585.433	1	5
585.602	1	11
585.772	1	-4
585.942	1	6
586.112	1	12
586.282	1	8
586.451	1	5
586.621	1	8
586.791	1	5
586.961	1	12
587.131	1	5
587.300	1	-10
587.470	1	1
587.640	1	0
587.810	1	4
587.980	1	-16
588.149	1	4
588.319	1	-3
588.489	1	6
588.659	1	8
588.829	1	1
588.998	1	15
589.168	1	-5
589.338	1	5
589.508	1	2
589.677	1	12
589.847	1	2
590.017	1	12
590.187	1	6
590.357	1	2
590.526	1	12
590.696	1	0
590.866	1	9
591.036	1	4
591.205	1	4
591.375	1	3
591.545	1	9
591.715	1	9
591.885	1	2
592.054	1	16
592.224	1	16
592.394	1	4
592.564	1	10
592.733	1	5
592.903	1	11
593.073	1	6
593.243	1	1
593.412	1	2
593.582	1	10
593.752	1	7
593.922	1	11
594.091	1	11
594.261	1	8
594.431	1	5
594.601	1	-1
594.771	1	6
594.940	1	2
595.110	1	11
595.280	1	3
595.450	1	2
595.619	1	-5
595.789	1	-1
595.959	1	3
596.129	1	-2
596.298	1	3
596.468	1	12
596.638	1	-6
596.808	1	-6
596.977	1	7
597.147	1	7
597.317	1	8
597.487	1	9
597.656	1	13
597.826	1	4
597.996	1	5
598.166	1	3
598.335	1	6
598.505	1	-2
598.675	1	8
598.844	1	10
599.014	1	14
599.184	1	5
599.354	1	19
599.523	1	8
599.693	1	1
599.863	1	-6
600.033	1	-3
600.202	1	3
600.372	1	9
600.542	1	10
600.712	1	5
600.881	1	12
601.051	1	-8
601.221	1	1
601.390	1	4
601.560	1	12
601.730	1	-2
601.900	1	20
602.069	1	-2
602.239	1	3
602.409	1	10
602.578	1	1
602.748	1	14
602.918	1	-1
603.088	1	5
603.257	1	5
603.427	1	20
603.597	1	10
603.767	1	3
603.936	1	15
604.106	1	10
604.276	1	3
604.445	1	9
604.615	1	4
604.785	1	-1
604.954	1	2
605.124	1	4
605.294	1	10
605.464	1	0
605.633	1	-6
605.803	1	-2
605.973	1	4
606.142	1	9
606.312	1	1
606.482	1	7
606.652	1	8
606.821	1	9
606.991	1	5
607.161	1	5
607.330	1	6
607.500	1	15
607.670	1	14
607.839	1	3
608.009	1	9
608.179	1	6
608.348	1	4
608.518	1	-7
608.688	1	-3
608.858	1	9
609.027	1	2
609.197	1	9
609.367	1	4
609.536	1	6
609.706	1	8
609.876	1	0
610.045	1	6
610.215	1	-8
610.385	1	0
610.554	1	3
610.724	1	-6
610.894	1	14
611.063	1	11
611.233	1	8
611.403	1	14
611.572	1	7
611.742	1	-1
611.912	1	-3
612.081	1	-9
612.251	1	11
612.421	1	-7
612.590	1	0
612.760	1	1
612.930	1	7
613.099	1	6
613.269	1	8
613.439	1	3
613.608	1	14
613.778	1	6
613.948	1	8
614.117	1	14
614.287	1	1
614.457	1	-1
614.626	1	9
614.796	1	8
614.966	1	-4
615.135	1	8
615.305	1	-3
615.475	1	-5
615.644	1	-2
615.814	1	6
615.984	1	14
616.153	1	11
616.323	1	30
616.493	1	0
616.662	1	15
616.832	1	11
617.002	1	3
617.171	1	8
617.341	1	-4
617.511	1	9
617.680	1	11
617.850	1	12
618.019	1	2
618.189	1	0
618.359	1	2
618.528	1	11
618.698	1	8
618.868	1	5
619.037	1	2
619.207	1	5
619.377	1	0
619.546	1	8
619.716	1	7
619.885	1	6
620.055	1	-1
620.225	1	14
620.394	1	12
620.564	1	-1
620.734	1	-6
620.903	1	13
621.073	1	5
621.242	1	6
621.412	1	11
621.582	1	3
621.751	1	-6
621.921	1	7
622.091	1	0
622.260	1	5
622.430	1	1
622.599	1	19
622.769	1	1
622.939	1	0
623.108	1	3
623.278	1	3
623.448	1	9
623.617	1	-3
623.787	1	-5
623.956	1	-4
624.126	1	9
624.296	1	7
624.465	1	15
624.635	1	12
624.804	1	6
624.974	1	4
625.144	1	5
625.313	1	8
625.483	1	2
625.652	1	-3
625.822	1	-3
625.992	1	9
626.161	1	9
626.331	1	1
626.501	1	13
626.670	1	9
626.840	1	10
627.009	1	2
627.179	1	-3
627.348	1	6
627.518	1	3
627.688	1	5
627.857	1	14
628.027	1	10
628.196	1	16
628.366	1	4
628.536	1	1
628.705	1	10
628.875	1	12
629.044	1	1
629.214	1	6
629.384	1	13
629.553	1	6
629.723	1	0
629.892	1	2
630.062	1	1
630.232	1	3
630.401	1	8
630.571	1	15
630.740	1	4
630.910	1	9
631.079	1	4
631.249	1	7
631.419	1	12
631.588	1	0
631.758	1	8
631.927	1	1
632.097	1	1
632.266	1	2
632.436	1	9
632.606	1	0
632.775	1	6
632.945	1	-2
633.114	1	2
633.284	1	8
633.453	1	3
633.623	1	5
633.793	1	6
633.962	1	-6
634.132	1	9
634.301	1	6
634.471	1	12
634.640	1	12
634.810	1	7
634.979	1	-5
635.149	1	3
635.319	1	9
635.488	1	-2
635.658	1	19
635.827	1	0
635.997	1	14
636.166	1	-5
636.336	1	8
636.505	1	3
636.675	1	9
636.845	1	4
637.014	1	10
637.184	1	1
637.353	1	2
637.523	1	9
637.692	1	21
637.862	1	12
638.031	1	5
638.201	1	5
638.370	1	0
638.540	1	0
638.710	1	11
638.879	1	10
639.049	1	5
639.218	1	9
639.388	1	4
639.557	1	1
639.727	1	3
639.896	1	7
640.066	1	10
640.235	1	6
640.405	1	1
640.574	1	4
640.744	1	11
640.914	1	3
641.083	1	17
641.253	1	1
641.422	1	3
641.592	1	12
641.761	1	9
641.931	1	4
642.100	1	-4
642.270	1	7
642.439	1	6
642.609	1	-2
642.778	1	5
642.948	1	0
643.117	1	12
643.287	1	-4
643.456	1	10
643.626	1	14
643.795	1	2
643.965	1	4
644.134	1	-1
644.304	1	-2
644.473	1	2
644.643	1	-4
644.812	1	0
644.982	1	5
645.151	1	7
645.321	1	1
645.490	1	13
645.660	1	0
645.829	1	4
645.999	1	9
646.168	1	6
646.338	1	5
646.507	1	11
646.677	1	8
646.846	1	14
647.016	1	8
647.185	1	9
647.355	1	5
647.524	1	10
647.694	1	1
647.863	1	-4
648.033	1	-5
648.202	1	17
648.372	1	12
648.541	1	8
648.711	1	2
648.880	1	13
649.050	1	9
649.219	1	4
649.389	1	1
649.558	1	9
649.728	1	3
649.897	1	3
650.067	1	12
650.236	1	11
650.406	1	6
650.575	1	-4
650.745	1	11
650.914	1	3
651.084	1	5
651.253	1	11
651.423	1	8
651.592	1	9
651.762	1	-2
651.931	1	12
652.101	1	11
652.270	1	1
652.440	1	5
652.609	1	-12
652.778	1	12
652.948	1	-5
653.117	1	16
653.287	1	2
653.456	1	3
653.626	1	2
653.795	1	6
653.965	1	9
654.134	1	6
654.304	1	7
654.473	1	4
654.643	1	2
654.812	1	15
654.982	1	11
655.151	1	9
655.320	1	1
655.490	1	-8
655.659	1	13
655.829	1	6
655.998	1	0
656.168	1	4
656.337	1	-8
656.507	1	6
656.676	1	1
656.846	1	7
657.015	1	10
657.184	1	6
657.354	1	7
657.523	1	1
657.693	1	1
657.862	1	2
658.032	1	10
658.201	1	10
658.371	1	15
658.540	1	7
658.709	1	7
658.879	1	13
659.048	1	17
659.218	1	0
659.387	1	2
659.557	1	12
659.726	1	7
659.895	1	10
660.065	1	-2
660.234	1	5
660.404	1	5
660.573	1	6
660.743	1	8
660.912	1	3
661.081	1	12
661.251	1	3
661.420	1	7
661.590	1	7
661.759	1	7
661.929	1	4
662.098	1	4
662.267	1	7
662.437	1	6
662.606	1	8
662.776	1	0
662.945	1	0
663.115	1	3
663.284	1	-2
663.453	1	2
663.623	1	2
663.792	1	6
663.962	1	-3
664.131	1	15
664.300	1	11
664.470	1	8
664.639	1	6
664.809	1	2
664.978	1	1
665.148	1	7
665.317	1	9
665.486	1	11
665.656	1	-2
665.825	1	8
665.995	1	1
666.164	1	18
666.333	1	6
666.503	1	12
666.672	1	8
666.842	1	2
667.011	1	13
667.180	1	2
667.350	1	6
667.519	1	1
667.689	1	8
667.858	1	2
668.027	1	0
668.197	1	17
668.366	1	13
668.536	1	6
668.705	1	7
668.874	1	-5
669.044	1	3
669.213	1	-3
669.382	1	3
669.552	1	11
669.721	1	9
669.891	1	3
670.060	1	-3
670.229	1	-2
670.399	1	9
670.568	1	2
670.738	1	15
670.907	1	1
671.076	1	10
671.246	1	19
671.415	1	-2
671.584	1	3
671.754	1	-1
671.923	1	4
672.093	1	10
672.262	1	8
672.431	1	12
672.601	1	9
672.770	1	-1
672.939	1	9
673.109	1	11
673.278	1	-5
673.448	1	0
673.617	1	-2
673.786	1	1
