325.333	1	2
325.504	1	-1
325.675	1	0
325.846	1	-4
326.017	1	-1
326.188	1	-1
326.359	1	-18
326.531	1	7
326.702	1	4
326.873	1	6
327.044	1	-8
327.215	1	7
327.386	1	3
327.557	1	-4
327.728	1	-2
327.899	1	1
328.070	1	6
328.241	1	7
328.412	1	0
328.583	1	-2
328.754	1	7
328.926	1	-1
329.097	1	1
329.268	1	-7
329.439	1	0
329.610	1	2
329.781	1	10
329.952	1	3
330.123	1	1
330.294	1	9
330.465	1	9
330.636	1	-3
330.807	1	4
330.978	1	4
331.149	1	5
331.320	1	7
331.492	1	8
331.663	1	8
331.834	1	2
332.005	1	-1
332.176	1	12
332.347	1	-1
332.518	1	13
332.689	1	-3
332.860	1	-2
333.031	1	-1
333.202	1	0
333.373	1	4
333.544	1	4
333.715	1	1
333.886	1	9
334.057	1	6
334.228	1	-2
334.399	1	-2
334.570	1	10
334.741	1	-7
334.912	1	11
335.084	1	4
335.255	1	19
335.426	1	-6
335.597	1	0
335.768	1	10
335.939	1	-2
336.110	1	3
336.281	1	-3
336.452	1	13
336.623	1	-3
336.794	1	3
336.965	1	6
337.136	1	-3
337.307	1	7
337.478	1	-3
337.649	1	-2
337.820	1	17
337.991	1	0
338.162	1	0
338.333	1	7
338.504	1	10
338.675	1	-1
338.846	1	6
339.017	1	-2
339.188	1	2
339.359	1	18
339.530	1	-3
339.701	1	9
339.872	1	8
340.043	1	13
340.214	1	2
340.385	1	2
340.556	1	3
340.727	1	9
340.898	1	0
341.069	1	5
341.240	1	-1
341.411	1	6
341.582	1	12
341.753	1	6
341.924	1	9
342.095	1	5
342.266	1	-8
342.437	1	11
342.608	1	-4
342.779	1	0
342.950	1	-5
343.121	1	-2
343.292	1	6
343.463	1	-6
343.634	1	15
343.805	1	8
343.976	1	4
344.147	1	4
344.318	1	5
344.489	1	-1
344.660	1	2
344.831	1	7
345.002	1	11
345.173	1	8
345.344	1	4
345.515	1	4
345.686	1	-4
345.857	1	13
346.028	1	4
346.199	1	-3
346.370	1	2
346.541	1	9
346.712	1	8
346.883	1	-4
347.054	1	6
347.225	1	-8
347.396	1	7
347.567	1	0
347.738	1	3
347.909	1	6
348.080	1	6
348.251	1	-3
348.422	1	16
348.593	1	2
348.764	1	4
348.935	1	-6
349.106	1	-11
349.277	1	-10
349.448	1	0
349.619	1	0
349.790	1	-1
349.961	1	1
350.132	1	5
350.303	1	6
350.474	1	6
350.645	1	5
350.816	1	-1
350.987	1	0
351.157	1	-10
351.328	1	-1
351.499	1	11
351.670	1	3
351.841	1	15
352.012	1	7
352.183	1	6
352.354	1	12
352.525	1	3
352.696	1	3
352.867	1	-8
353.038	1	5
353.209	1	1
353.380	1	9
353.551	1	-4
353.722	1	5
353.893	1	2
354.064	1	15
354.235	1	3
354.406	1	7
354.576	1	-6
354.747	1	9
354.918	1	8
355.089	1	8
355.260	1	0
355.431	1	-5
355.602	1	8
355.773	1	-5
355.944	1	4
356.115	1	10
356.286	1	5
356.457	1	15
356.628	1	16
356.799	1	4
356.970	1	6
357.141	1	14
357.311	1	-8
357.482	1	0
357.653	1	-8
357.824	1	9
357.995	1	8
358.166	1	20
358.337	1	6
358.508	1	-2
358.679	1	0
358.850	1	8
359.021	1	0
359.192	1	0
359.363	1	-5
359.533	1	13
359.704	1	-14
359.875	1	-6
360.046	1	2
360.217	1	13
360.388	1	9
360.559	1	21
360.730	1	4
360.901	1	9
361.072	1	0
361.243	1	1
361.414	1	-6
361.584	1	-7
361.755	1	3
361.926	1	7
362.097	1	15
362.268	1	3
362.439	1	-1
362.610	1	0
362.781	1	1
362.952	1	-3
363.123	1	3
363.293	1	5
363.464	1	13
363.635	1	3
363.806	1	4
363.977	1	3
364.148	1	0
364.319	1	9
364.490	1	-2
364.661	1	-2
364.832	1	-5
365.002	1	8
365.173	1	-7
365.344	1	7
365.515	1	-3
365.686	1	-2
365.857	1	-2
366.028	1	1
366.199	1	7
366.370	1	6
366.540	1	5
366.711	1	2
366.882	1	7
367.053	1	-6
367.224	1	7
367.395	1	-3
367.566	1	3
367.737	1	-2
367.908	1	16
368.078	1	1
368.249	1	7
368.420	1	0
368.591	1	4
368.762	1	-3
368.933	1	8
369.104	1	5
369.274	1	11
369.445	1	5
369.616	1	-2
369.787	1	-7
369.958	1	-6
370.129	1	10
370.300	1	4
370.471	1	0
370.641	1	11
370.812	1	15
370.983	1	7
371.154	1	7
371.325	1	-5
371.496	1	3
371.667	1	-1
371.837	1	1
372.008	1	8
372.179	1	-8
372.350	1	4
372.521	1	10
372.692	1	-1
372.863	1	9
373.033	1	-2
373.204	1	-1
373.375	1	0
373.546	1	0
373.717	1	-5
373.888	1	1
374.059	1	-4
374.229	1	5
374.400	1	0
374.571	1	3
374.742	1	15
374.913	1	0
375.084	1	-5
375.254	1	2
375.425	1	6
375.596	1	-4
375.767	1	10
375.938	1	1
376.109	1	18
376.279	1	-1
376.450	1	19
376.621	1	5
376.792	1	5
376.963	1	-7
377.134	1	13
377.304	1	1
377.475	1	-8
377.646	1	6
377.817	1	-2
377.988	1	10
378.159	1	0
378.329	1	0
378.500	1	2
378.671	1	-3
378.842	1	9
379.013	1	-3
379.184	1	-11
379.354	1	0
379.525	1	2
379.696	1	10
379.867	1	2
380.038	1	14
380.209	1	3
380.379	1	4
380.550	1	-2
380.721	1	12
380.892	1	-6
381.063	1	2
381.233	1	1
381.404	1	8
381.575	1	9
381.746	1	-4
381.917	1	1
382.087	1	9
382.258	1	-10
382.429	1	2
382.600	1	6
382.771	1	2
382.941	1	3
383.112	1	4
383.283	1	0
383.454	1	8
383.625	1	10
383.795	1	14
383.966	1	-4
384.137	1	7
384.308	1	3
384.479	1	0
384.649	1	4
384.820	1	7
384.991	1	7
385.162	1	-2
385.333	1	4
385.503	1	-2
385.674	1	10
385.845	1	9
386.016	1	3
386.187	1	-1
386.357	1	10
386.528	1	7
386.699	1	16
386.870	1	-7
387.041	1	8
387.211	1	6
387.382	1	8
387.553	1	2
387.724	1	2
387.894	1	10
388.065	1	8
388.236	1	0
388.407	1	2
388.578	1	2
388.748	1	-4
388.919	1	6
389.090	1	9
389.261	1	3
389.431	1	4
389.602	1	-4
389.773	1	11
389.944	1	1
390.114	1	9
390.285	1	13
390.456	1	8
390.627	1	11
390.798	1	-1
390.968	1	-9
391.139	1	12
391.310	1	0
391.481	1	7
391.651	1	-1
391.822	1	8
391.993	1	6
392.164	1	0
392.334	1	1
392.505	1	-5
392.676	1	11
392.847	1	6
393.017	1	10
393.188	1	10
393.359	1	0
393.530	1	5
393.700	1	7
393.871	1	10
394.042	1	4
394.213	1	5
394.383	1	8
394.554	1	8
394.725	1	-2
394.896	1	5
395.066	1	12
395.237	1	5
395.408	1	-3
395.579	1	2
395.749	1	-2
395.920	1	-3
396.091	1	4
396.262	1	12
396.432	1	2
396.603	1	9
396.774	1	-6
396.945	1	7
397.115	1	-7
397.286	1	-2
397.457	1	5
397.627	1	15
397.798	1	6
397.969	1	-6
398.140	1	6
398.310	1	15
398.481	1	7
398.652	1	17
398.823	1	7
398.993	1	0
399.164	1	5
399.335	1	13
399.505	1	7
399.676	1	3
399.847	1	16
400.018	1	11
400.188	1	10
400.359	1	8
400.530	1	11
400.700	1	11
400.871	1	13
401.042	1	5
401.213	1	12
401.383	1	-6
401.554	1	5
401.725	1	0
401.895	1	8
402.066	1	6
402.237	1	4
402.408	1	1
402.578	1	8
402.749	1	0
402.920	1	4
403.090	1	13
403.261	1	10
403.432	1	5
403.603	1	0
403.773	1	0
403.944	1	6
404.115	1	8
404.285	1	2
404.456	1	-5
404.627	1	9
404.797	1	6
404.968	1	14
405.139	1	8
405.310	1	18
405.480	1	0
405.651	1	0
405.822	1	7
405.992	1	13
406.163	1	12
406.334	1	10
406.504	1	1
406.675	1	4
406.846	1	4
407.016	1	11
407.187	1	9
407.358	1	2
407.528	1	-4
407.699	1	9
407.870	1	9
408.041	1	20
408.211	1	4
408.382	1	7
408.553	1	-5
408.723	1	-1
408.894	1	13
409.065	1	9
409.235	1	5
409.406	1	12
409.577	1	23
409.747	1	13
409.918	1	7
410.089	1	13
410.259	1	8
410.430	1	7
410.601	1	7
410.771	1	6
410.942	1	4
411.113	1	22
411.283	1	7
411.454	1	6
411.625	1	4
411.795	1	10
411.966	1	4
412.137	1	6
412.307	1	3
412.478	1	-5
412.649	1	1
412.819	1	7
412.990	1	10
413.161	1	8
413.331	1	5
413.502	1	11
413.672	1	6
413.843	1	4
414.014	1	9
414.184	1	3
414.355	1	16
414.526	1	-6
414.696	1	14
414.867	1	6
415.038	1	5
415.208	1	-2
415.379	1	4
415.550	1	3
415.720	1	1
415.891	1	3
416.062	1	10
416.232	1	2
416.403	1	10
416.573	1	0
416.744	1	3
416.915	1	-1
417.085	1	8
417.256	1	6
417.427	1	10
417.597	1	15
417.768	1	4
417.939	1	0
418.109	1	3
418.280	1	13
418.450	1	11
418.621	1	2
418.792	1	9
418.962	1	8
419.133	1	-1
419.304	1	6
419.474	1	9
419.645	1	9
419.815	1	-8
419.986	1	3
420.157	1	7
420.327	1	1
420.498	1	5
420.669	1	17
420.839	1	9
421.010	1	-2
421.180	1	0
421.351	1	22
421.522	1	8
421.692	1	10
421.863	1	1
422.033	1	3
422.204	1	4
422.375	1	0
422.545	1	4
422.716	1	13
422.886	1	9
423.057	1	13
423.228	1	11
423.398	1	4
423.569	1	14
423.740	1	5
423.910	1	10
424.081	1	14
424.251	1	7
424.422	1	11
424.593	1	9
424.763	1	9
424.934	1	10
425.104	1	-1
425.275	1	12
425.445	1	2
425.616	1	6
425.787	1	6
425.957	1	9
426.128	1	-3
426.298	1	-4
426.469	1	8
426.640	1	0
426.810	1	7
426.981	1	2
427.151	1	5
427.322	1	8
427.493	1	-3
427.663	1	3
427.834	1	7
428.004	1	12
428.175	1	-9
428.345	1	1
428.516	1	12
428.687	1	8
428.857	1	9
429.028	1	1
429.198	1	5
429.369	1	1
429.540	1	-2
429.710	1	11
429.881	1	4
430.051	1	-4
430.222	1	12
430.392	1	8
430.563	1	20
430.734	1	8
430.904	1	6
431.075	1	6
431.245	1	-5
431.416	1	0
431.586	1	-5
431.757	1	10
431.927	1	17
432.098	1	1
432.269	1	11
432.439	1	0
432.610	1	6
432.780	1	-3
432.951	1	16
433.121	1	6
433.292	1	2
433.462	1	-5
433.633	1	13
433.804	1	-3
433.974	1	19
434.145	1	-7
434.315	1	8
434.486	1	6
434.656	1	12
434.827	1	4
434.997	1	9
435.168	1	15
435.339	1	2
435.509	1	14
435.680	1	11
435.850	1	0
436.021	1	-4
436.191	1	9
436.362	1	9
436.532	1	19
436.703	1	5
436.873	1	8
437.044	1	10
437.214	1	-9
437.385	1	17
437.556	1	0
437.726	1	13
437.897	1	2
438.067	1	2
438.238	1	2
438.408	1	10
438.579	1	12
438.749	1	-6
438.920	1	1
439.090	1	7
439.261	1	2
439.431	1	12
439.602	1	12
439.772	1	14
439.943	1	5
440.113	1	11
440.284	1	13
440.455	1	9
440.625	1	9
440.796	1	10
440.966	1	9
441.137	1	-2
441.307	1	12
441.478	1	2
441.648	1	7
441.819	1	2
441.989	1	11
442.160	1	11
442.330	1	-5
442.501	1	2
442.671	1	7
442.842	1	12
443.012	1	7
443.183	1	7
443.353	1	5
443.524	1	8
443.694	1	9
443.865	1	4
444.035	1	-1
444.206	1	-6
444.376	1	10
444.547	1	-4
444.717	1	16
444.888	1	2
445.058	1	-3
445.229	1	7
445.399	1	7
445.570	1	6
445.740	1	8
445.911	1	-7
446.081	1	-2
446.252	1	-3
446.422	1	-5
446.593	1	8
446.763	1	13
446.934	1	16
447.104	1	5
447.275	1	8
447.445	1	1
447.616	1	1
447.786	1	-3
447.957	1	10
448.127	1	1
448.298	1	12
448.468	1	13
448.639	1	2
448.809	1	1
448.979	1	6
449.150	1	1
449.320	1	7
449.491	1	6
449.661	1	5
449.832	1	3
450.002	1	8
450.173	1	2
450.343	1	9
450.514	1	6
450.684	1	3
450.855	1	4
451.025	1	7
451.196	1	-4
451.366	1	5
451.537	1	4
451.707	1	10
451.878	1	9
452.048	1	3
452.218	1	-2
452.389	1	8
452.559	1	4
452.730	1	7
452.900	1	5
453.071	1	-8
453.241	1	5
453.412	1	6
453.582	1	10
453.753	1	0
453.923	1	12
454.093	1	13
454.264	1	10
454.434	1	2
454.605	1	-2
454.775	1	-5
454.946	1	0
455.116	1	-4
455.287	1	6
455.457	1	7
455.628	1	13
455.798	1	7
455.968	1	-1
456.139	1	3
456.309	1	14
456.480	1	-7
456.650	1	5
456.821	1	-2
456.991	1	11
457.161	1	7
457.332	1	1
457.502	1	5
457.673	1	0
457.843	1	0
458.014	1	1
458.184	1	12
458.355	1	11
458.525	1	-2
458.695	1	7
458.866	1	14
459.036	1	6
459.207	1	-9
459.377	1	9
459.548	1	-3
459.718	1	3
459.888	1	12
460.059	1	12
460.229	1	8
460.400	1	3
460.570	1	1
460.740	1	-2
460.911	1	4
461.081	1	0
461.252	1	18
461.422	1	13
461.593	1	3
461.763	1	0
461.933	1	4
462.104	1	-5
462.274	1	-1
462.445	1	-2
462.615	1	15
462.785	1	6
462.956	1	4
463.126	1	16
463.297	1	-1
463.467	1	-4
463.638	1	9
463.808	1	-7
463.978	1	8
464.149	1	5
464.319	1	0
464.490	1	2
464.660	1	15
464.830	1	9
465.001	1	5
465.171	1	13
465.342	1	11
465.512	1	11
465.682	1	2
465.853	1	6
466.023	1	5
466.194	1	5
466.364	1	-4
466.534	1	10
466.705	1	3
466.875	1	3
467.045	1	4
467.216	1	12
467.386	1	8
467.557	1	6
467.727	1	4
467.897	1	6
468.068	1	10
468.238	1	9
468.409	1	-1
468.579	1	13
468.749	1	1
468.920	1	11
469.090	1	0
469.260	1	8
469.431	1	-7
469.601	1	4
469.772	1	0
469.942	1	11
470.112	1	4
470.283	1	3
470.453	1	-6
470.623	1	-6
470.794	1	2
470.964	1	8
471.135	1	9
471.305	1	15
471.475	1	5
471.646	1	1
471.816	1	5
471.986	1	7
472.157	1	-2
472.327	1	14
472.497	1	7
472.668	1	1
472.838	1	3
473.009	1	-3
473.179	1	-4
473.349	1	8
473.520	1	-3
473.690	1	12
473.860	1	1
474.031	1	-2
474.201	1	-5
474.371	1	8
474.542	1	0
474.712	1	-5
474.882	1	0
475.053	1	0
475.223	1	-1
475.394	1	4
475.564	1	12
475.734	1	8
475.905	1	1
476.075	1	12
476.245	1	-2
476.416	1	-1
476.586	1	-1
476.756	1	4
476.927	1	11
477.097	1	8
477.267	1	4
477.438	1	4
477.608	1	2
477.778	1	6
477.949	1	6
478.119	1	-4
478.289	1	6
478.460	1	9
478.630	1	2
478.800	1	8
478.971	1	0
479.141	1	2
479.311	1	-3
479.482	1	5
479.652	1	2
479.822	1	3
479.993	1	9
480.163	1	10
480.333	1	-2
480.504	1	-3
480.674	1	3
480.844	1	-3
481.015	1	0
481.185	1	-1
481.355	1	10
481.525	1	-3
481.696	1	7
481.866	1	8
482.036	1	-2
482.207	1	-4
482.377	1	-4
482.547	1	3
482.718	1	7
482.888	1	12
483.058	1	0
483.229	1	0
483.399	1	-2
483.569	1	-2
483.740	1	-4
483.910	1	8
484.080	1	6
484.250	1	10
484.421	1	0
484.591	1	6
484.761	1	8
484.932	1	0
485.102	1	9
485.272	1	-4
485.443	1	3
485.613	1	-2
485.783	1	-2
485.953	1	-5
486.124	1	9
486.294	1	14
486.464	1	6
486.635	1	8
486.805	1	-1
486.975	1	-6
487.146	1	-1
487.316	1	-1
487.486	1	1
487.656	1	1
487.827	1	8
487.997	1	5
488.167	1	2
488.338	1	9
488.508	1	9
488.678	1	-3
488.848	1	4
489.019	1	-11
489.189	1	4
489.359	1	4
489.529	1	14
489.700	1	2
489.870	1	7
490.040	1	5
490.211	1	5
490.381	1	3
490.551	1	6
490.721	1	1
490.892	1	4
491.062	1	7
491.232	1	1
491.402	1	16
491.573	1	2
491.743	1	0
491.913	1	7
492.084	1	6
492.254	1	-4
492.424	1	7
492.594	1	6
492.765	1	0
492.935	1	-7
493.105	1	12
493.275	1	2
493.446	1	2
493.616	1	6
493.786	1	3
493.956	1	4
494.127	1	-2
494.297	1	0
494.467	1	8
494.637	1	0
494.808	1	13
494.978	1	11
495.148	1	14
495.318	1	-1
495.489	1	3
495.659	1	11
495.829	1	7
495.999	1	-5
496.170	1	2
496.340	1	-5
496.510	1	23
496.680	1	-4
496.851	1	7
497.021	1	8
497.191	1	11
497.361	1	2
497.532	1	8
497.702	1	2
497.872	1	3
498.042	1	1
498.213	1	-7
498.383	1	5
498.553	1	12
498.723	1	-5
498.894	1	0
499.064	1	6
499.234	1	17
499.404	1	-2
499.574	1	-1
499.745	1	0
499.915	1	-6
500.085	1	3
500.255	1	0
500.426	1	5
500.596	1	2
500.766	1	6
500.936	1	6
501.106	1	2
501.277	1	4
501.447	1	-3
501.617	1	-2
501.787	1	5
501.958	1	8
502.128	1	2
502.298	1	-3
502.468	1	6
502.638	1	0
502.809	1	5
502.979	1	3
503.149	1	13
503.319	1	1
503.489	1	10
503.660	1	4
503.830	1	7
504.000	1	7
504.170	1	-2
504.340	1	3
504.511	1	5
504.681	1	2
504.851	1	-2
505.021	1	-4
505.192	1	1
505.362	1	0
505.532	1	-9
505.702	1	2
505.872	1	-1
506.043	1	9
506.213	1	-4
506.383	1	-5
506.553	1	12
506.723	1	-15
506.893	1	-7
507.064	1	0
507.234	1	-2
507.404	1	7
507.574	1	8
507.744	1	14
507.915	1	9
508.085	1	2
508.255	1	2
508.425	1	-6
508.595	1	-5
508.766	1	-4
508.936	1	-8
509.106	1	22
509.276	1	-4
509.446	1	-1
509.616	1	13
509.787	1	6
509.957	1	4
510.127	1	1
510.297	1	-7
510.467	1	-4
510.638	1	4
510.808	1	1
510.978	1	10
511.148	1	-4
511.318	1	-6
511.488	1	2
511.659	1	2
511.829	1	0
511.999	1	9
512.169	1	8
512.339	1	5
512.509	1	13
512.680	1	3
512.850	1	7
513.020	1	5
513.190	1	7
513.360	1	-1
513.530	1	11
513.700	1	13
513.871	1	5
514.041	1	4
514.211	1	7
514.381	1	-2
514.551	1	-2
514.721	1	2
514.892	1	-7
515.062	1	-7
515.232	1	-12
515.402	1	-5
515.572	1	10
515.742	1	7
515.912	1	18
516.083	1	-3
516.253	1	8
516.423	1	5
516.593	1	-9
516.763	1	-4
516.933	1	-7
517.104	1	-2
517.274	1	0
517.444	1	12
517.614	1	2
517.784	1	-4
517.954	1	2
518.124	1	6
518.294	1	4
518.465	1	9
518.635	1	7
518.805	1	2
518.975	1	4
519.145	1	-7
519.315	1	-2
519.485	1	2
519.656	1	7
519.826	1	16
519.996	1	6
520.166	1	-3
520.336	1	-1
520.506	1	-10
520.676	1	-2
520.846	1	-1
521.017	1	-4
521.187	1	6
521.357	1	-6
521.527	1	16
521.697	1	-4
521.867	1	3
522.037	1	6
522.207	1	1
522.377	1	9
522.548	1	-2
522.718	1	3
522.888	1	-9
523.058	1	3
523.228	1	7
523.398	1	7
523.568	1	-2
523.738	1	2
523.909	1	-3
524.079	1	-8
524.249	1	4
524.419	1	3
524.589	1	2
524.759	1	4
524.929	1	-6
525.099	1	-1
525.269	1	5
525.439	1	3
525.610	1	-8
525.780	1	4
525.950	1	-4
526.120	1	2
526.290	1	-2
526.460	1	3
526.630	1	1
526.800	1	1
526.970	1	-2
527.140	1	6
527.311	1	-1
527.481	1	-3
527.651	1	5
527.821	1	4
527.991	1	-3
528.161	1	-4
528.331	1	20
528.501	1	-3
528.671	1	-11
528.841	1	5
529.011	1	4
529.181	1	-5
529.352	1	10
529.522	1	1
529.692	1	-11
529.862	1	-5
530.032	1	4
530.202	1	11
530.372	1	-7
530.542	1	0
530.712	1	17
530.882	1	-4
531.052	1	2
531.222	1	-6
531.392	1	0
531.563	1	-2
531.733	1	-6
531.903	1	5
532.073	1	11
532.243	1	10
532.413	1	5
532.583	1	-2
532.753	1	11
532.923	1	-5
533.093	1	8
533.263	1	6
533.433	1	1
533.603	1	-2
533.773	1	0
533.943	1	-2
534.113	1	9
534.284	1	-2
534.454	1	4
534.624	1	5
534.794	1	-4
534.964	1	3
535.134	1	0
535.304	1	-1
535.474	1	6
535.644	1	13
535.814	1	-1
535.984	1	-5
536.154	1	-3
536.324	1	-7
536.494	1	12
536.664	1	6
536.834	1	-2
537.004	1	1
537.174	1	14
537.344	1	3
537.514	1	4
537.685	1	4
537.855	1	8
538.025	1	-2
538.195	1	1
538.365	1	2
538.535	1	4
538.705	1	-5
538.875	1	-2
539.045	1	5
539.215	1	4
539.385	1	-8
539.555	1	1
539.725	1	0
539.895	1	-1
540.065	1	6
540.235	1	0
540.405	1	1
540.575	1	-12
540.745	1	-1
540.915	1	-3
541.085	1	3
541.255	1	-3
541.425	1	-6
541.595	1	12
541.765	1	0
541.935	1	2
542.105	1	8
542.275	1	0
542.445	1	2
542.615	1	3
542.785	1	-13
542.955	1	5
543.125	1	-3
543.295	1	-3
543.465	1	4
543.635	1	6
543.805	1	1
543.975	1	12
544.145	1	7
544.315	1	2
544.485	1	3
544.655	1	3
544.825	1	-3
544.995	1	-2
545.165	1	11
545.335	1	-1
545.505	1	8
545.675	1	2
545.845	1	-2
546.015	1	-5
546.185	1	6
546.355	1	6
546.525	1	-3
546.695	1	6
546.865	1	-5
547.035	1	12
547.205	1	6
547.375	1	-7
547.545	1	4
547.715	1	7
547.885	1	-5
548.055	1	-1
548.225	1	-5
548.395	1	4
548.565	1	-4
548.735	1	2
548.905	1	-1
549.075	1	2
549.245	1	2
549.415	1	-1
549.585	1	-13
549.755	1	9
549.925	1	7
550.095	1	0
550.265	1	7
550.435	1	1
550.605	1	2
550.775	1	17
550.945	1	-2
551.115	1	8
551.285	1	9
551.455	1	1
551.625	1	7
551.795	1	3
551.965	1	0
552.135	1	7
552.305	1	1
552.475	1	11
552.645	1	7
552.815	1	5
552.985	1	7
553.155	1	-8
553.325	1	-3
553.495	1	-3
553.665	1	0
553.835	1	3
554.004	1	9
554.174	1	-3
554.344	1	-5
554.514	1	-4
554.684	1	-1
554.854	1	-1
555.024	1	9
555.194	1	7
555.364	1	3
555.534	1	13
555.704	1	1
555.874	1	4
556.044	1	13
556.214	1	-10
556.384	1	4
556.554	1	-4
556.724	1	4
556.894	1	7
557.064	1	5
557.234	1	3
557.404	1	-7
557.573	1	-11
557.743	1	3
557.913	1	-5
558.083	1	1
558.253	1	2
558.423	1	-2
558.593	1	20
558.763	1	14
558.933	1	8
559.103	1	-1
559.273	1	9
559.443	1	-2
559.613	1	6
559.783	1	9
559.953	1	11
560.122	1	19
560.292	1	-6
560.462	1	10
560.632	1	7
560.802	1	6
560.972	1	-2
561.142	1	-14
561.312	1	-6
561.482	1	13
561.652	1	1
561.822	1	9
561.992	1	4
562.162	1	6
562.331	1	-5
562.501	1	3
562.671	1	-3
562.841	1	-9
563.011	1	-15
563.181	1	3
563.351	1	0
563.521	1	6
563.691	1	-8
563.861	1	4
564.031	1	10
564.201	1	8
564.370	1	-5
564.540	1	9
564.710	1	-5
564.880	1	3
565.050	1	-3
565.220	1	0
565.390	1	-5
565.560	1	4
565.730	1	-3
565.900	1	-2
566.069	1	-3
566.239	1	-2
566.409	1	-2
566.579	1	14
566.749	1	2
566.919	1	16
567.089	1	13
567.259	1	-2
567.429	1	1
567.599	1	2
567.768	1	8
567.938	1	0
568.108	1	0
568.278	1	2
568.448	1	3
568.618	1	-4
568.788	1	12
568.958	1	1
569.128	1	11
569.297	1	-4
569.467	1	2
569.637	1	-8
569.807	1	-3
569.977	1	1
570.147	1	0
570.317	1	-12
570.487	1	0
570.656	1	3
570.826	1	-10
570.996	1	-2
571.166	1	2
571.336	1	1
571.506	1	2
571.676	1	4
571.846	1	12
572.015	1	2
572.185	1	11
572.355	1	-5
572.525	1	-7
572.695	1	-1
572.865	1	4
573.035	1	8
573.205	1	4
573.374	1	20
573.544	1	5
573.714	1	9
573.884	1	3
574.054	1	11
574.224	1	-8
574.394	1	4
574.563	1	4
574.733	1	2
574.903	1	-6
575.073	1	3
575.243	1	6
575.413	1	7
575.583	1	3
575.752	1	3
575.922	1	3
576.092	1	6
576.262	1	5
576.432	1	-4
576.602	1	-2
576.772	1	-5
576.941	1	5
577.111	1	0
577.281	1	-8
577.451	1	2
577.621	1	-1
577.791	1	5
577.960	1	4
578.130	1	-5
578.300	1	-12
578.470	1	4
578.640	1	-7
578.810	1	-5
578.979	1	0
579.149	1	-2
579.319	1	-3
579.489	1	10
579.659	1	1
579.829	1	3
579.998	1	11
580.168	1	3
580.338	1	7
580.508	1	2
580.678	1	-5
580.848	1	4
581.017	1	8
581.187	1	-3
581.357	1	5
581.527	1	9
581.697	1	8
581.867	1	-3
582.036	1	-2
582.206	1	9
582.376	1	4
582.546	1	1
582.716	1	-2
582.885	1	-9
583.055	1	1
583.225	1	8
583.395	1	6
583.565	1	12
583.735	1	8
583.904	1	4
584.074	1	-4
584.244	1	4
584.414	1	-9
584.584	1	5
584.753	1	-5
584.923	1	-2
585.093	1	-6
585.263	1	6
585.433	1	-9
585.602	1	4
585.772	1	6
585.942	1	0
586.112	1	0
586.282	1	7
586.451	1	2
586.621	1	19
586.791	1	1
586.961	1	5
587.131	1	6
587.300	1	-12
587.470	1	-5
587.640	1	-6
587.810	1	2
587.980	1	-9
588.149	1	5
588.319	1	-3
588.489	1	-1
588.659	1	3
588.829	1	-6
588.998	1	15
589.168	1	1
589.338	1	-1
589.508	1	2
589.677	1	21
589.847	1	1
590.017	1	6
590.187	1	10
590.357	1	0
590.526	1	5
590.696	1	-1
590.866	1	7
591.036	1	0
591.205	1	0
591.375	1	-6
591.545	1	-2
591.715	1	2
591.885	1	5
592.054	1	11
592.224	1	-2
592.394	1	5
592.564	1	-2
592.733	1	13
592.903	1	-3
593.073	1	3
593.243	1	-6
593.412	1	2
593.582	1	1
593.752	1	6
593.922	1	5
594.091	1	-5
594.261	1	9
594.431	1	-10
594.601	1	-13
594.771	1	-4
594.940	1	3
595.110	1	-7
595.280	1	0
595.450	1	-2
595.619	1	3
595.789	1	-7
595.959	1	0
596.129	1	-6
596.298	1	-6
596.468	1	4
596.638	1	-2
596.808	1	4
596.977	1	0
597.147	1	5
597.317	1	10
597.487	1	8
597.656	1	3
597.826	1	8
597.996	1	-1
598.166	1	5
598.335	1	0
598.505	1	5
598.675	1	14
598.844	1	0
599.014	1	3
599.184	1	6
599.354	1	8
599.523	1	-3
599.693	1	-1
599.863	1	-1
600.033	1	2
600.202	1	5
600.372	1	4
600.542	1	6
600.712	1	4
600.881	1	0
601.051	1	-7
601.221	1	1
601.390	1	8
601.560	1	5
601.730	1	-1
601.900	1	9
602.069	1	-4
602.239	1	3
602.409	1	1
602.578	1	0
602.748	1	-2
602.918	1	-4
603.088	1	-9
603.257	1	4
603.427	1	10
603.597	1	13
603.767	1	1
603.936	1	1
604.106	1	14
604.276	1	-2
604.445	1	8
604.615	1	-11
604.785	1	5
604.954	1	9
605.124	1	1
605.294	1	5
605.464	1	-1
605.633	1	-8
605.803	1	0
605.973	1	-3
606.142	1	6
606.312	1	-7
606.482	1	0
606.652	1	3
606.821	1	16
606.991	1	14
607.161	1	-4
607.330	1	8
607.500	1	8
607.670	1	8
607.839	1	9
608.009	1	7
608.179	1	-3
608.348	1	0
608.518	1	-11
608.688	1	4
608.858	1	-1
609.027	1	0
609.197	1	-2
609.367	1	0
609.536	1	-2
609.706	1	2
609.876	1	-1
610.045	1	0
610.215	1	-7
610.385	1	-1
610.554	1	2
610.724	1	-2
610.894	1	10
611.063	1	-1
611.233	1	-6
611.403	1	8
611.572	1	5
611.742	1	1
611.912	1	-3
612.081	1	-5
612.251	1	12
612.421	1	-4
612.590	1	-2
612.760	1	-10
612.930	1	-6
613.099	1	4
613.269	1	-4
613.439	1	-5
613.608	1	5
613.778	1	10
613.948	1	1
614.117	1	-4
614.287	1	2
614.457	1	3
614.626	1	-2
614.796	1	8
614.966	1	-8
615.135	1	-10
615.305	1	-12
615.475	1	-4
615.644	1	0
615.814	1	3
615.984	1	1
616.153	1	0
616.323	1	6
616.493	1	6
616.662	1	7
616.832	1	9
617.002	1	-4
617.171	1	10
617.341	1	-4
617.511	1	6
617.680	1	3
617.850	1	-3
618.019	1	-1
618.189	1	-4
618.359	1	6
618.528	1	-2
618.698	1	3
618.868	1	-1
619.037	1	-4
619.207	1	2
619.377	1	1
619.546	1	0
619.716	1	5
619.885	1	-5
620.055	1	-2
620.225	1	8
620.394	1	5
620.564	1	-1
620.734	1	-5
620.903	1	12
621.073	1	6
621.242	1	-6
621.412	1	9
621.582	1	0
621.751	1	-5
621.921	1	3
622.091	1	12
622.260	1	1
622.430	1	-4
622.599	1	-1
622.769	1	1
622.939	1	1
623.108	1	0
623.278	1	-2
623.448	1	-6
623.617	1	-9
623.787	1	-5
623.956	1	5
624.126	1	0
624.296	1	13
624.465	1	11
624.635	1	11
624.804	1	-5
624.974	1	6
625.144	1	5
625.313	1	5
625.483	1	4
625.652	1	-1
625.822	1	-1
625.992	1	6
626.161	1	5
626.331	1	-3
626.501	1	2
626.670	1	5
626.840	1	0
627.009	1	3
627.179	1	-8
627.348	1	0
627.518	1	-4
627.688	1	11
627.857	1	11
628.027	1	7
628.196	1	4
628.366	1	5
628.536	1	-13
628.705	1	4
628.875	1	3
629.044	1	2
629.214	1	-4
629.384	1	0
629.553	1	3
629.723	1	2
629.892	1	-3
630.062	1	3
630.232	1	6
630.401	1	1
630.571	1	13
630.740	1	1
630.910	1	-3
631.079	1	-3
631.249	1	-4
631.419	1	13
631.588	1	-2
631.758	1	8
631.927	1	4
632.097	1	-1
632.266	1	7
632.436	1	12
632.606	1	2
632.775	1	-5
632.945	1	-2
633.114	1	-7
633.284	1	7
633.453	1	-7
633.623	1	-1
633.793	1	5
633.962	1	3
634.132	1	-3
634.301	1	-4
634.471	1	7
634.640	1	5
634.810	1	0
634.979	1	-4
635.149	1	0
635.319	1	6
635.488	1	6
635.658	1	10
635.827	1	-3
635.997	1	-4
636.166	1	-1
636.336	1	7
636.505	1	2
636.675	1	1
636.845	1	-2
637.014	1	13
637.184	1	0
637.353	1	12
637.523	1	1
637.692	1	11
637.862	1	-4
638.031	1	-3
638.201	1	-4
638.370	1	1
638.540	1	5
638.710	1	2
638.879	1	3
639.049	1	-3
639.218	1	1
639.388	1	8
639.557	1	-6
639.727	1	3
639.896	1	1
640.066	1	-1
640.235	1	7
640.405	1	4
640.574	1	0
640.744	1	6
640.914	1	-7
641.083	1	15
641.253	1	-2
641.422	1	0
641.592	1	10
641.761	1	2
641.931	1	11
642.100	1	-4
642.270	1	1
642.439	1	2
642.609	1	-2
642.778	1	2
642.948	1	1
643.117	1	1
643.287	1	-3
643.456	1	13
643.626	1	9
643.795	1	5
643.965	1	3
644.134	1	2
644.304	1	-8
644.473	1	7
644.643	1	-1
644.812	1	-4
644.982	1	-8
645.151	1	3
645.321	1	-1
645.490	1	0
645.660	1	-6
645.829	1	8
645.999	1	6
646.168	1	3
646.338	1	6
646.507	1	3
646.677	1	1
646.846	1	6
647.016	1	2
647.185	1	7
647.355	1	-1
647.524	1	2
647.694	1	1
647.863	1	-2
648.033	1	-6
648.202	1	2
648.372	1	10
648.541	1	-3
648.711	1	11
648.880	1	10
649.050	1	0
649.219	1	8
649.389	1	1
649.558	1	5
649.728	1	-2
649.897	1	0
650.067	1	6
650.236	1	11
650.406	1	9
650.575	1	-11
650.745	1	20
650.914	1	-8
651.084	1	-5
651.253	1	2
651.423	1	3
651.592	1	3
651.762	1	-2
651.931	1	1
652.101	1	13
652.270	1	-15
652.440	1	6
652.609	1	-3
652.778	1	11
652.948	1	0
653.117	1	14
653.287	1	-6
653.456	1	-12
653.626	1	-1
653.795	1	2
653.965	1	9
654.134	1	5
654.304	1	6
654.473	1	3
654.643	1	-15
654.812	1	12
654.982	1	11
655.151	1	2
655.320	1	10
655.490	1	-6
655.659	1	8
655.829	1	-1
655.998	1	4
656.168	1	-4
656.337	1	0
656.507	1	1
656.676	1	5
656.846	1	6
657.015	1	8
657.184	1	2
657.354	1	-4
657.523	1	-6
657.693	1	1
657.862	1	7
658.032	1	10
658.201	1	2
658.371	1	8
658.540	1	-4
658.709	1	5
658.879	1	8
659.048	1	7
659.218	1	7
659.387	1	9
659.557	1	15
659.726	1	0
659.895	1	1
660.065	1	-1
660.234	1	-4
660.404	1	1
660.573	1	-11
660.743	1	3
660.912	1	0
661.081	1	7
661.251	1	-1
661.420	1	6
661.590	1	3
661.759	1	3
661.929	1	7
662.098	1	-2
662.267	1	8
662.437	1	-1
662.606	1	4
662.776	1	8
662.945	1	-4
663.115	1	-4
663.284	1	1
663.453	1	4
663.623	1	-10
663.792	1	2
663.962	1	-1
664.131	1	13
664.300	1	9
664.470	1	4
664.639	1	-2
664.809	1	-6
664.978	1	8
665.148	1	2
665.317	1	-4
665.486	1	2
665.656	1	-2
665.825	1	8
665.995	1	-1
666.164	1	9
666.333	1	-4
666.503	1	6
666.672	1	-3
666.842	1	-6
667.011	1	5
667.180	1	1
667.350	1	10
667.519	1	4
667.689	1	12
667.858	1	-6
668.027	1	-1
668.197	1	-4
668.366	1	0
668.536	1	1
668.705	1	-6
668.874	1	-1
669.044	1	-7
669.213	1	2
669.382	1	2
669.552	1	6
669.721	1	9
669.891	1	0
670.060	1	3
670.229	1	-7
670.399	1	8
670.568	1	0
670.738	1	7
670.907	1	5
671.076	1	10
671.246	1	12
671.415	1	-5
671.584	1	4
671.754	1	2
671.923	1	-3
672.093	1	-5
672.262	1	3
672.431	1	9
672.601	1	-1
672.770	1	-1
672.939	1	-1
673.109	1	0
673.278	1	1
673.448	1	-3
673.617	1	-8
673.786	1	-7
