325.333	1	11
325.504	1	0
325.675	1	4
325.846	1	-4
326.017	1	12
326.188	1	15
326.359	1	1
326.531	1	2
326.702	1	20
326.873	1	3
327.044	1	0
327.215	1	12
327.386	1	-1
327.557	1	11
327.728	1	7
327.899	1	11
328.070	1	4
328.241	1	9
328.412	1	2
328.583	1	-7
328.754	1	4
328.926	1	3
329.097	1	3
329.268	1	-6
329.439	1	10
329.610	1	5
329.781	1	5
329.952	1	5
330.123	1	-1
330.294	1	14
330.465	1	11
330.636	1	1
330.807	1	-4
330.978	1	6
331.149	1	7
331.320	1	4
331.492	1	15
331.663	1	6
331.834	1	8
332.005	1	-1
332.176	1	16
332.347	1	2
332.518	1	16
332.689	1	-8
332.860	1	5
333.031	1	9
333.202	1	2
333.373	1	5
333.544	1	8
333.715	1	-1
333.886	1	2
334.057	1	5
334.228	1	6
334.399	1	4
334.570	1	11
334.741	1	5
334.912	1	11
335.084	1	5
335.255	1	15
335.426	1	8
335.597	1	9
335.768	1	5
335.939	1	6
336.110	1	9
336.281	1	8
336.452	1	21
336.623	1	8
336.794	1	6
336.965	1	6
337.136	1	-1
337.307	1	8
337.478	1	-4
337.649	1	0
337.820	1	11
337.991	1	11
338.162	1	2
338.333	1	1
338.504	1	15
338.675	1	7
338.846	1	12
339.017	1	-3
339.188	1	2
339.359	1	12
339.530	1	8
339.701	1	1
339.872	1	2
340.043	1	1
340.214	1	3
340.385	1	9
340.556	1	6
340.727	1	14
340.898	1	7
341.069	1	4
341.240	1	7
341.411	1	7
341.582	1	21
341.753	1	8
341.924	1	12
342.095	1	7
342.266	1	-8
342.437	1	11
342.608	1	2
342.779	1	10
342.950	1	6
343.121	1	5
343.292	1	16
343.463	1	5
343.634	1	6
343.805	1	3
343.976	1	3
344.147	1	4
344.318	1	13
344.489	1	11
344.660	1	7
344.831	1	11
345.002	1	3
345.173	1	0
345.344	1	3
345.515	1	6
345.686	1	2
345.857	1	13
346.028	1	9
346.199	1	-5
346.370	1	9
346.541	1	6
346.712	1	14
346.883	1	0
347.054	1	12
347.225	1	-7
347.396	1	9
347.567	1	5
347.738	1	-7
347.909	1	11
348.080	1	4
348.251	1	-1
348.422	1	3
348.593	1	7
348.764	1	6
348.935	1	4
349.106	1	-4
349.277	1	2
349.448	1	11
349.619	1	-1
349.790	1	7
349.961	1	12
350.132	1	15
350.303	1	10
350.474	1	8
350.645	1	12
350.816	1	7
350.987	1	13
351.157	1	5
351.328	1	12
351.499	1	7
351.670	1	10
351.841	1	8
352.012	1	-1
352.183	1	12
352.354	1	6
352.525	1	11
352.696	1	10
352.867	1	-2
353.038	1	13
353.209	1	12
353.380	1	14
353.551	1	6
353.722	1	6
353.893	1	5
354.064	1	13
354.235	1	9
354.406	1	13
354.576	1	2
354.747	1	16
354.918	1	10
355.089	1	16
355.260	1	-11
355.431	1	6
355.602	1	8
355.773	1	-4
355.944	1	13
356.115	1	17
356.286	1	17
356.457	1	14
356.628	1	20
356.799	1	4
356.970	1	8
357.141	1	16
357.311	1	4
357.482	1	8
357.653	1	1
357.824	1	6
357.995	1	14
358.166	1	17
358.337	1	7
358.508	1	-2
358.679	1	2
358.850	1	3
359.021	1	7
359.192	1	4
359.363	1	1
359.533	1	8
359.704	1	-3
359.875	1	4
360.046	1	6
360.217	1	16
360.388	1	9
360.559	1	16
360.730	1	13
360.901	1	10
361.072	1	9
361.243	1	11
361.414	1	4
361.584	1	-1
361.755	1	9
361.926	1	5
362.097	1	15
362.268	1	9
362.439	1	0
362.610	1	1
362.781	1	6
362.952	1	3
363.123	1	2
363.293	1	13
363.464	1	10
363.635	1	13
363.806	1	10
363.977	1	11
364.148	1	3
364.319	1	17
364.490	1	18
364.661	1	1
364.832	1	6
365.002	1	10
365.173	1	8
365.344	1	7
365.515	1	7
365.686	1	1
365.857	1	13
366.028	1	4
366.199	1	6
366.370	1	12
366.540	1	7
366.711	1	5
366.882	1	11
367.053	1	8
367.224	1	11
367.395	1	7
367.566	1	9
367.737	1	-1
367.908	1	21
368.078	1	10
368.249	1	8
368.420	1	15
368.591	1	7
368.762	1	6
368.933	1	8
369.104	1	11
369.274	1	9
369.445	1	10
369.616	1	-5
369.787	1	1
369.958	1	7
370.129	1	16
370.300	1	5
370.471	1	10
370.641	1	5
370.812	1	6
370.983	1	6
371.154	1	15
371.325	1	6
371.496	1	1
371.667	1	7
371.837	1	9
372.008	1	19
372.179	1	4
372.350	1	15
372.521	1	12
372.692	1	4
372.863	1	21
373.033	1	4
373.204	1	5
373.375	1	-1
373.546	1	2
373.717	1	2
373.888	1	5
374.059	1	7
374.229	1	14
374.400	1	7
374.571	1	1
374.742	1	15
374.913	1	4
375.084	1	17
375.254	1	7
375.425	1	16
375.596	1	6
375.767	1	10
375.938	1	11
376.109	1	15
376.279	1	4
376.450	1	17
376.621	1	11
376.792	1	12
376.963	1	4
377.134	1	6
377.304	1	10
377.475	1	8
377.646	1	5
377.817	1	4
377.988	1	13
378.159	1	2
378.329	1	-2
378.500	1	10
378.671	1	15
378.842	1	16
379.013	1	5
379.184	1	5
379.354	1	17
379.525	1	8
379.696	1	-1
379.867	1	13
380.038	1	20
380.209	1	16
380.379	1	14
380.550	1	8
380.721	1	13
380.892	1	-1
381.063	1	-3
381.233	1	3
381.404	1	14
381.575	1	6
381.746	1	7
381.917	1	3
382.087	1	19
382.258	1	12
382.429	1	6
382.600	1	15
382.771	1	18
382.941	1	14
383.112	1	12
383.283	1	7
383.454	1	11
383.625	1	13
383.795	1	18
383.966	1	2
384.137	1	5
384.308	1	12
384.479	1	15
384.649	1	7
384.820	1	13
384.991	1	16
385.162	1	12
385.333	1	15
385.503	1	-6
385.674	1	17
385.845	1	17
386.016	1	7
386.187	1	7
386.357	1	21
386.528	1	8
386.699	1	14
386.870	1	5
387.041	1	9
387.211	1	7
387.382	1	8
387.553	1	11
387.724	1	7
387.894	1	16
388.065	1	8
388.236	1	25
388.407	1	14
388.578	1	15
388.748	1	9
388.919	1	11
389.090	1	9
389.261	1	11
389.431	1	19
389.602	1	10
389.773	1	18
389.944	1	15
390.114	1	18
390.285	1	10
390.456	1	11
390.627	1	21
390.798	1	13
390.968	1	7
391.139	1	11
391.310	1	20
391.481	1	14
391.651	1	9
391.822	1	14
391.993	1	14
392.164	1	7
392.334	1	9
392.505	1	4
392.676	1	8
392.847	1	18
393.017	1	10
393.188	1	16
393.359	1	8
393.530	1	16
393.700	1	19
393.871	1	15
394.042	1	7
394.213	1	8
394.383	1	22
394.554	1	13
394.725	1	6
394.896	1	15
395.066	1	23
395.237	1	8
395.408	1	15
395.579	1	-1
395.749	1	3
395.920	1	8
396.091	1	7
396.262	1	13
396.432	1	11
396.603	1	12
396.774	1	5
396.945	1	15
397.115	1	17
397.286	1	-2
397.457	1	11
397.627	1	12
397.798	1	12
397.969	1	3
398.140	1	5
398.310	1	7
398.481	1	13
398.652	1	17
398.823	1	10
398.993	1	18
399.164	1	11
399.335	1	19
399.505	1	8
399.676	1	15
399.847	1	16
400.018	1	18
400.188	1	12
400.359	1	17
400.530	1	17
400.700	1	10
400.871	1	15
401.042	1	16
401.213	1	10
401.383	1	11
401.554	1	3
401.725	1	17
401.895	1	23
402.066	1	14
402.237	1	10
402.408	1	15
402.578	1	11
402.749	1	8
402.920	1	15
403.090	1	23
403.261	1	26
403.432	1	13
403.603	1	12
403.773	1	19
403.944	1	18
404.115	1	11
404.285	1	14
404.456	1	3
404.627	1	22
404.797	1	18
404.968	1	19
405.139	1	7
405.310	1	19
405.480	1	12
405.651	1	1
405.822	1	23
405.992	1	13
406.163	1	4
406.334	1	17
406.504	1	14
406.675	1	8
406.846	1	12
407.016	1	17
407.187	1	20
407.358	1	8
407.528	1	7
407.699	1	5
407.870	1	22
408.041	1	19
408.211	1	9
408.382	1	15
408.553	1	6
408.723	1	17
408.894	1	16
409.065	1	24
409.235	1	5
409.406	1	24
409.577	1	12
409.747	1	17
409.918	1	14
410.089	1	9
410.259	1	14
410.430	1	13
410.601	1	6
410.771	1	9
410.942	1	17
411.113	1	31
411.283	1	16
411.454	1	17
411.625	1	17
411.795	1	16
411.966	1	11
412.137	1	20
412.307	1	13
412.478	1	15
412.649	1	11
412.819	1	22
412.990	1	10
413.161	1	14
413.331	1	20
413.502	1	17
413.672	1	8
413.843	1	7
414.014	1	27
414.184	1	12
414.355	1	25
414.526	1	6
414.696	1	17
414.867	1	3
415.038	1	23
415.208	1	9
415.379	1	17
415.550	1	1
415.720	1	6
415.891	1	10
416.062	1	12
416.232	1	-1
416.403	1	20
416.573	1	17
416.744	1	4
416.915	1	8
417.085	1	23
417.256	1	8
417.427	1	6
417.597	1	19
417.768	1	15
417.939	1	13
418.109	1	6
418.280	1	11
418.450	1	12
418.621	1	11
418.792	1	15
418.962	1	10
419.133	1	5
419.304	1	11
419.474	1	14
419.645	1	18
419.815	1	14
419.986	1	13
420.157	1	16
420.327	1	9
420.498	1	13
420.669	1	15
420.839	1	10
421.010	1	9
421.180	1	17
421.351	1	23
421.522	1	17
421.692	1	14
421.863	1	15
422.033	1	16
422.204	1	12
422.375	1	15
422.545	1	7
422.716	1	21
422.886	1	19
423.057	1	27
423.228	1	20
423.398	1	12
423.569	1	22
423.740	1	12
423.910	1	20
424.081	1	14
424.251	1	14
424.422	1	10
424.593	1	15
424.763	1	11
424.934	1	13
425.104	1	8
425.275	1	17
425.445	1	7
425.616	1	12
425.787	1	8
425.957	1	12
426.128	1	22
426.298	1	12
426.469	1	16
426.640	1	4
426.810	1	23
426.981	1	10
427.151	1	20
427.322	1	14
427.493	1	8
427.663	1	12
427.834	1	16
428.004	1	18
428.175	1	7
428.345	1	10
428.516	1	9
428.687	1	21
428.857	1	18
429.028	1	10
429.198	1	8
429.369	1	7
429.540	1	6
429.710	1	25
429.881	1	19
430.051	1	16
430.222	1	15
430.392	1	16
430.563	1	22
430.734	1	10
430.904	1	12
431.075	1	15
431.245	1	15
431.416	1	13
431.586	1	12
431.757	1	16
431.927	1	13
432.098	1	11
432.269	1	16
432.439	1	-1
432.610	1	6
432.780	1	6
432.951	1	20
433.121	1	12
433.292	1	20
433.462	1	23
433.633	1	19
433.804	1	4
433.974	1	21
434.145	1	2
434.315	1	9
434.486	1	21
434.656	1	13
434.827	1	12
434.997	1	6
435.168	1	19
435.339	1	11
435.509	1	17
435.680	1	15
435.850	1	15
436.021	1	12
436.191	1	17
436.362	1	19
436.532	1	19
436.703	1	9
436.873	1	12
437.044	1	23
437.214	1	0
437.385	1	31
437.556	1	9
437.726	1	26
437.897	1	0
438.067	1	21
438.238	1	16
438.408	1	16
438.579	1	22
438.749	1	8
438.920	1	11
439.090	1	10
439.261	1	14
439.431	1	18
439.602	1	25
439.772	1	21
439.943	1	13
440.113	1	12
440.284	1	19
440.455	1	18
440.625	1	16
440.796	1	19
440.966	1	10
441.137	1	7
441.307	1	26
441.478	1	15
441.648	1	17
441.819	1	13
441.989	1	16
442.160	1	19
442.330	1	2
442.501	1	12
442.671	1	11
442.842	1	13
443.012	1	0
443.183	1	15
443.353	1	15
443.524	1	20
443.694	1	18
443.865	1	13
444.035	1	5
444.206	1	3
444.376	1	18
444.547	1	11
444.717	1	6
444.888	1	24
445.058	1	10
445.229	1	7
445.399	1	4
445.570	1	13
445.740	1	19
445.911	1	4
446.081	1	18
446.252	1	9
446.422	1	5
446.593	1	15
446.763	1	29
446.934	1	21
447.104	1	7
447.275	1	15
447.445	1	17
447.616	1	12
447.786	1	17
447.957	1	15
448.127	1	14
448.298	1	8
448.468	1	24
448.639	1	13
448.809	1	0
448.979	1	25
449.150	1	22
449.320	1	9
449.491	1	12
449.661	1	19
449.832	1	13
450.002	1	13
450.173	1	15
450.343	1	11
450.514	1	15
450.684	1	7
450.855	1	6
451.025	1	11
451.196	1	11
451.366	1	16
451.537	1	14
451.707	1	17
451.878	1	12
452.048	1	12
452.218	1	9
452.389	1	4
452.559	1	8
452.730	1	14
452.900	1	9
453.071	1	9
453.241	1	4
453.412	1	16
453.582	1	13
453.753	1	3
453.923	1	14
454.093	1	23
454.264	1	8
454.434	1	13
454.605	1	11
454.775	1	2
454.946	1	4
455.116	1	4
455.287	1	14
455.457	1	17
455.628	1	8
455.798	1	4
455.968	1	6
456.139	1	12
456.309	1	15
456.480	1	3
456.650	1	13
456.821	1	21
456.991	1	20
457.161	1	16
457.332	1	5
457.502	1	9
457.673	1	6
457.843	1	17
458.014	1	3
458.184	1	18
458.355	1	17
458.525	1	6
458.695	1	17
458.866	1	24
459.036	1	15
459.207	1	-6
459.377	1	11
459.548	1	4
459.718	1	7
459.888	1	15
460.059	1	14
460.229	1	16
460.400	1	-5
460.570	1	18
460.740	1	8
460.911	1	1
461.081	1	12
461.252	1	8
461.422	1	23
461.593	1	5
461.763	1	5
461.933	1	18
462.104	1	8
462.274	1	14
462.445	1	2
462.615	1	10
462.785	1	13
462.956	1	8
463.126	1	18
463.297	1	7
463.467	1	9
463.638	1	12
463.808	1	6
463.978	1	-3
464.149	1	10
464.319	1	-3
464.490	1	7
464.660	1	19
464.830	1	15
465.001	1	20
465.171	1	16
465.342	1	16
465.512	1	11
465.682	1	17
465.853	1	16
466.023	1	5
466.194	1	20
466.364	1	1
466.534	1	14
466.705	1	18
466.875	1	12
467.045	1	17
467.216	1	7
467.386	1	13
467.557	1	11
467.727	1	8
467.897	1	1
468.068	1	16
468.238	1	16
468.409	1	7
468.579	1	13
468.749	1	12
468.920	1	11
469.090	1	12
469.260	1	12
469.431	1	-4
469.601	1	-3
469.772	1	19
469.942	1	12
470.112	1	24
470.283	1	8
470.453	1	15
470.623	1	-3
470.794	1	5
470.964	1	5
471.135	1	22
471.305	1	21
471.475	1	16
471.646	1	14
471.816	1	13
471.986	1	2
472.157	1	20
472.327	1	21
472.497	1	8
472.668	1	11
472.838	1	5
473.009	1	9
473.179	1	11
473.349	1	10
473.520	1	3
473.690	1	21
473.860	1	1
474.031	1	8
474.201	1	0
474.371	1	9
474.542	1	10
474.712	1	12
474.882	1	8
475.053	1	4
475.223	1	16
475.394	1	7
475.564	1	8
475.734	1	11
475.905	1	13
476.075	1	7
476.245	1	-2
476.416	1	19
476.586	1	5
476.756	1	7
476.927	1	6
477.097	1	20
477.267	1	24
477.438	1	-1
477.608	1	6
477.778	1	7
477.949	1	12
478.119	1	7
478.289	1	10
478.460	1	11
478.630	1	12
478.800	1	1
478.971	1	12
479.141	1	4
479.311	1	7
479.482	1	7
479.652	1	9
479.822	1	13
479.993	1	11
480.163	1	14
480.333	1	15
480.504	1	5
480.674	1	13
480.844	1	12
481.015	1	11
481.185	1	5
481.355	1	5
481.525	1	16
481.696	1	7
481.866	1	11
482.036	1	10
482.207	1	11
482.377	1	4
482.547	1	11
482.718	1	6
482.888	1	13
483.058	1	-2
483.229	1	2
483.399	1	6
483.569	1	8
483.740	1	12
483.910	1	18
484.080	1	15
484.250	1	19
484.421	1	8
484.591	1	10
484.761	1	9
484.932	1	7
485.102	1	14
485.272	1	6
485.443	1	0
485.613	1	7
485.783	1	3
485.953	1	11
486.124	1	20
486.294	1	10
486.464	1	4
486.635	1	9
486.805	1	2
486.975	1	-6
487.146	1	5
487.316	1	15
487.486	1	7
487.656	1	3
487.827	1	9
487.997	1	15
488.167	1	0
488.338	1	6
488.508	1	14
488.678	1	13
488.848	1	2
489.019	1	-2
489.189	1	7
489.359	1	10
489.529	1	11
489.700	1	9
489.870	1	9
490.040	1	16
490.211	1	8
490.381	1	4
490.551	1	13
490.721	1	10
490.892	1	9
491.062	1	11
491.232	1	5
491.402	1	25
491.573	1	3
491.743	1	5
491.913	1	14
492.084	1	11
492.254	1	-3
492.424	1	10
492.594	1	6
492.765	1	4
492.935	1	-2
493.105	1	22
493.275	1	15
493.446	1	10
493.616	1	8
493.786	1	7
493.956	1	4
494.127	1	13
494.297	1	9
494.467	1	1
494.637	1	9
494.808	1	10
494.978	1	4
495.148	1	15
495.318	1	8
495.489	1	7
495.659	1	4
495.829	1	12
495.999	1	-4
496.170	1	10
496.340	1	7
496.510	1	16
496.680	1	12
496.851	1	9
497.021	1	10
497.191	1	10
497.361	1	11
497.532	1	17
497.702	1	5
497.872	1	4
498.042	1	10
498.213	1	3
498.383	1	3
498.553	1	9
498.723	1	2
498.894	1	3
499.064	1	11
499.234	1	22
499.404	1	3
499.574	1	7
499.745	1	-2
499.915	1	11
500.085	1	7
500.255	1	11
500.426	1	5
500.596	1	6
500.766	1	7
500.936	1	6
501.106	1	8
501.277	1	14
501.447	1	9
501.617	1	9
501.787	1	3
501.958	1	14
502.128	1	7
502.298	1	8
502.468	1	14
502.638	1	2
502.809	1	10
502.979	1	12
503.149	1	10
503.319	1	7
503.489	1	14
503.660	1	-1
503.830	1	9
504.000	1	12
504.170	1	4
504.340	1	4
504.511	1	7
504.681	1	14
504.851	1	7
505.021	1	14
505.192	1	-2
505.362	1	0
505.532	1	4
505.702	1	4
505.872	1	11
506.043	1	18
506.213	1	3
506.383	1	7
506.553	1	19
506.723	1	2
506.893	1	-7
507.064	1	13
507.234	1	-6
507.404	1	9
507.574	1	4
507.744	1	12
507.915	1	8
508.085	1	10
508.255	1	10
508.425	1	-10
508.595	1	-8
508.766	1	-4
508.936	1	-1
509.106	1	19
509.276	1	-1
509.446	1	6
509.616	1	10
509.787	1	3
509.957	1	11
510.127	1	-11
510.297	1	-3
510.467	1	12
510.638	1	12
510.808	1	-5
510.978	1	11
511.148	1	10
511.318	1	-2
511.488	1	7
511.659	1	5
511.829	1	7
511.999	1	8
512.169	1	8
512.339	1	9
512.509	1	13
512.680	1	8
512.850	1	6
513.020	1	11
513.190	1	-8
513.360	1	2
513.530	1	14
513.700	1	18
513.871	1	0
514.041	1	-3
514.211	1	8
514.381	1	6
514.551	1	4
514.721	1	3
514.892	1	4
515.062	1	5
515.232	1	-8
515.402	1	4
515.572	1	17
515.742	1	1
515.912	1	12
516.083	1	10
516.253	1	13
516.423	1	7
516.593	1	-6
516.763	1	-1
516.933	1	-6
517.104	1	13
517.274	1	-3
517.444	1	3
517.614	1	8
517.784	1	5
517.954	1	8
518.124	1	1
518.294	1	18
518.465	1	0
518.635	1	5
518.805	1	6
518.975	1	-2
519.145	1	6
519.315	1	3
519.485	1	4
519.656	1	18
519.826	1	5
519.996	1	6
520.166	1	1
520.336	1	6
520.506	1	-7
520.676	1	2
520.846	1	4
521.017	1	10
521.187	1	7
521.357	1	6
521.527	1	20
521.697	1	-4
521.867	1	11
522.037	1	14
522.207	1	6
522.377	1	3
522.548	1	5
522.718	1	7
522.888	1	3
523.058	1	5
523.228	1	10
523.398	1	10
523.568	1	9
523.738	1	9
523.909	1	-1
524.079	1	-5
524.249	1	1
524.419	1	10
524.589	1	14
524.759	1	5
524.929	1	3
525.099	1	-4
525.269	1	1
525.439	1	9
525.610	1	5
525.780	1	13
525.950	1	0
526.120	1	5
526.290	1	-15
526.460	1	10
526.630	1	17
526.800	1	13
526.970	1	3
527.140	1	4
527.311	1	11
527.481	1	-7
527.651	1	0
527.821	1	9
527.991	1	5
528.161	1	1
528.331	1	14
528.501	1	16
528.671	1	-3
528.841	1	0
529.011	1	10
529.181	1	-5
529.352	1	11
529.522	1	-9
529.692	1	-5
529.862	1	-6
530.032	1	10
530.202	1	4
530.372	1	-1
530.542	1	15
530.712	1	3
530.882	1	4
531.052	1	8
531.222	1	-2
531.392	1	0
531.563	1	-7
531.733	1	-4
531.903	1	9
532.073	1	8
532.243	1	14
532.413	1	10
532.583	1	-2
532.753	1	11
532.923	1	-5
533.093	1	-2
533.263	1	15
533.433	1	8
533.603	1	1
533.773	1	-8
533.943	1	11
534.113	1	-1
534.284	1	2
534.454	1	5
534.624	1	9
534.794	1	11
534.964	1	4
535.134	1	-1
535.304	1	2
535.474	1	10
535.644	1	10
535.814	1	4
535.984	1	4
536.154	1	13
536.324	1	7
536.494	1	7
536.664	1	-1
536.834	1	-7
537.004	1	-1
537.174	1	4
537.344	1	2
537.514	1	4
537.685	1	16
537.855	1	3
538.025	1	7
538.195	1	7
538.365	1	-1
538.535	1	-8
538.705	1	1
538.875	1	10
539.045	1	6
539.215	1	5
539.385	1	-3
539.555	1	-2
539.725	1	1
539.895	1	5
540.065	1	4
540.235	1	13
540.405	1	2
540.575	1	-7
540.745	1	11
540.915	1	5
541.085	1	3
541.255	1	-8
541.425	1	1
541.595	1	15
541.765	1	-1
541.935	1	3
542.105	1	15
542.275	1	11
542.445	1	7
542.615	1	3
542.785	1	-5
542.955	1	5
543.125	1	-3
543.295	1	-11
543.465	1	7
543.635	1	2
543.805	1	1
543.975	1	11
544.145	1	3
544.315	1	14
544.485	1	-1
544.655	1	-9
544.825	1	-5
544.995	1	-6
545.165	1	1
545.335	1	6
545.505	1	3
545.675	1	11
545.845	1	-6
546.015	1	4
546.185	1	-4
546.355	1	7
546.525	1	0
546.695	1	0
546.865	1	-1
547.035	1	9
547.205	1	5
547.375	1	1
547.545	1	2
547.715	1	1
547.885	1	4
548.055	1	8
548.225	1	2
548.395	1	6
548.565	1	-6
548.735	1	0
548.905	1	-11
549.075	1	4
549.245	1	11
549.415	1	-1
549.585	1	-4
549.755	1	6
549.925	1	4
550.095	1	11
550.265	1	-7
550.435	1	6
550.605	1	-3
550.775	1	17
550.945	1	3
551.115	1	3
551.285	1	4
551.455	1	12
551.625	1	13
551.795	1	2
551.965	1	-1
552.135	1	19
552.305	1	-3
552.475	1	8
552.645	1	3
552.815	1	2
552.985	1	2
553.155	1	-5
553.325	1	10
553.495	1	6
553.665	1	7
553.835	1	6
554.004	1	13
554.174	1	-1
554.344	1	-4
554.514	1	-11
554.684	1	-1
554.854	1	-1
555.024	1	8
555.194	1	9
555.364	1	7
555.534	1	21
555.704	1	12
555.874	1	6
556.044	1	19
556.214	1	-9
556.384	1	7
556.554	1	6
556.724	1	8
556.894	1	3
557.064	1	4
557.234	1	-1
557.404	1	6
557.573	1	-6
557.743	1	2
557.913	1	2
558.083	1	5
558.253	1	6
558.423	1	7
558.593	1	23
558.763	1	15
558.933	1	16
559.103	1	2
559.273	1	13
559.443	1	0
559.613	1	7
559.783	1	10
559.953	1	4
560.122	1	10
560.292	1	1
560.462	1	11
560.632	1	2
560.802	1	-1
560.972	1	2
561.142	1	-8
561.312	1	-9
561.482	1	7
561.652	1	-2
561.822	1	17
561.992	1	1
562.162	1	5
562.331	1	6
562.501	1	11
562.671	1	-5
562.841	1	-10
563.011	1	-1
563.181	1	14
563.351	1	3
563.521	1	2
563.691	1	1
563.861	1	10
564.031	1	8
564.201	1	9
564.370	1	1
564.540	1	6
564.710	1	-7
564.880	1	6
565.050	1	-4
565.220	1	2
565.390	1	9
565.560	1	9
565.730	1	-1
565.900	1	5
566.069	1	-3
566.239	1	0
566.409	1	-3
566.579	1	10
566.749	1	9
566.919	1	7
567.089	1	13
567.259	1	1
567.429	1	3
567.599	1	-1
567.768	1	10
567.938	1	7
568.108	1	-1
568.278	1	-3
568.448	1	7
568.618	1	6
568.788	1	18
568.958	1	3
569.128	1	10
569.297	1	-5
569.467	1	10
569.637	1	-1
569.807	1	-3
569.977	1	0
570.147	1	5
570.317	1	-14
570.487	1	-2
570.656	1	0
570.826	1	-7
570.996	1	5
571.166	1	10
571.336	1	6
571.506	1	6
571.676	1	4
571.846	1	5
572.015	1	0
572.185	1	5
572.355	1	-6
572.525	1	0
572.695	1	-2
572.865	1	1
573.035	1	6
573.205	1	0
573.374	1	13
573.544	1	-8
573.714	1	8
573.884	1	17
574.054	1	2
574.224	1	1
574.394	1	7
574.563	1	15
574.733	1	0
574.903	1	1
575.073	1	11
575.243	1	1
575.413	1	2
575.583	1	10
575.752	1	13
575.922	1	-1
576.092	1	-3
576.262	1	9
576.432	1	-5
576.602	1	4
576.772	1	-5
576.941	1	4
577.111	1	1
577.281	1	6
577.451	1	3
577.621	1	0
577.791	1	-2
577.960	1	2
578.130	1	-7
578.300	1	-9
578.470	1	9
578.640	1	4
578.810	1	1
578.979	1	13
579.149	1	0
579.319	1	8
579.489	1	10
579.659	1	-3
579.829	1	-5
579.998	1	8
580.168	1	-1
580.338	1	5
580.508	1	12
580.678	1	4
580.848	1	3
581.017	1	7
581.187	1	14
581.357	1	-2
581.527	1	12
581.697	1	-4
581.867	1	-5
582.036	1	4
582.206	1	2
582.376	1	4
582.546	1	-1
582.716	1	6
582.885	1	-8
583.055	1	11
583.225	1	1
583.395	1	6
583.565	1	2
583.735	1	16
583.904	1	3
584.074	1	7
584.244	1	4
584.414	1	-5
584.584	1	4
584.753	1	-4
584.923	1	-4
585.093	1	5
585.263	1	12
585.433	1	2
585.602	1	4
585.772	1	3
585.942	1	1
586.112	1	3
586.282	1	4
586.451	1	5
586.621	1	8
586.791	1	0
586.961	1	-1
587.131	1	-2
587.300	1	4
587.470	1	5
587.640	1	-6
587.810	1	1
587.980	1	-7
588.149	1	10
588.319	1	-6
588.489	1	2
588.659	1	2
588.829	1	1
588.998	1	5
589.168	1	9
589.338	1	12
589.508	1	0
589.677	1	13
589.847	1	-11
590.017	1	7
590.187	1	6
590.357	1	2
590.526	1	0
590.696	1	-8
590.866	1	7
591.036	1	-4
591.205	1	-3
591.375	1	0
591.545	1	3
591.715	1	7
591.885	1	-1
592.054	1	16
592.224	1	5
592.394	1	8
592.564	1	1
592.733	1	5
592.903	1	-3
593.073	1	5
593.243	1	-1
593.412	1	4
593.582	1	4
593.752	1	17
593.922	1	3
594.091	1	5
594.261	1	5
594.431	1	-5
594.601	1	-6
594.771	1	3
594.940	1	-6
595.110	1	9
595.280	1	4
595.450	1	3
595.619	1	14
595.789	1	-2
595.959	1	11
596.129	1	-1
596.298	1	-1
596.468	1	7
596.638	1	0
596.808	1	3
596.977	1	2
597.147	1	11
597.317	1	6
597.487	1	4
597.656	1	3
597.826	1	8
597.996	1	5
598.166	1	12
598.335	1	4
598.505	1	8
598.675	1	14
598.844	1	3
599.014	1	10
599.184	1	-5
599.354	1	6
599.523	1	3
599.693	1	2
599.863	1	-2
600.033	1	2
600.202	1	3
600.372	1	3
600.542	1	5
600.712	1	-2
600.881	1	-7
601.051	1	-2
601.221	1	-4
601.390	1	14
601.560	1	12
601.730	1	7
601.900	1	11
602.069	1	6
602.239	1	1
602.409	1	5
602.578	1	-2
602.748	1	-1
602.918	1	-8
603.088	1	-3
603.257	1	2
603.427	1	10
603.597	1	15
603.767	1	7
603.936	1	4
604.106	1	16
604.276	1	-2
604.445	1	1
604.615	1	-4
604.785	1	3
604.954	1	0
605.124	1	6
605.294	1	11
605.464	1	5
605.633	1	-9
605.803	1	12
605.973	1	-3
606.142	1	5
606.312	1	4
606.482	1	2
606.652	1	9
606.821	1	10
606.991	1	14
607.161	1	10
607.330	1	6
607.500	1	4
607.670	1	5
607.839	1	-3
608.009	1	5
608.179	1	1
608.348	1	4
608.518	1	-8
608.688	1	6
608.858	1	2
609.027	1	9
609.197	1	4
609.367	1	5
609.536	1	-3
609.706	1	6
609.876	1	1
610.045	1	0
610.215	1	-3
610.385	1	-1
610.554	1	4
610.724	1	2
610.894	1	17
611.063	1	10
611.233	1	-5
611.403	1	-2
611.572	1	7
611.742	1	10
611.912	1	-8
612.081	1	-1
612.251	1	11
612.421	1	1
612.590	1	4
612.760	1	4
612.930	1	-4
613.099	1	9
613.269	1	0
613.439	1	3
613.608	1	8
613.778	1	9
613.948	1	9
614.117	1	-2
614.287	1	1
614.457	1	3
614.626	1	3
614.796	1	7
614.966	1	1
615.135	1	9
615.305	1	-2
615.475	1	-3
615.644	1	-6
615.814	1	-1
615.984	1	13
616.153	1	0
616.323	1	17
616.493	1	2
616.662	1	12
616.832	1	6
617.002	1	5
617.171	1	9
617.341	1	7
617.511	1	1
617.680	1	4
617.850	1	0
618.019	1	-3
618.189	1	-5
618.359	1	8
618.528	1	3
618.698	1	9
618.868	1	8
619.037	1	-3
619.207	1	5
619.377	1	-5
619.546	1	9
619.716	1	4
619.885	1	-8
620.055	1	2
620.225	1	9
620.394	1	12
620.564	1	9
620.734	1	3
620.903	1	10
621.073	1	9
621.242	1	-8
621.412	1	11
621.582	1	-4
621.751	1	1
621.921	1	16
622.091	1	15
622.260	1	-5
622.430	1	2
622.599	1	4
622.769	1	8
622.939	1	3
623.108	1	2
623.278	1	10
623.448	1	-2
623.617	1	-3
623.787	1	2
623.956	1	9
624.126	1	9
624.296	1	7
624.465	1	18
624.635	1	13
624.804	1	-6
624.974	1	-1
625.144	1	8
625.313	1	2
625.483	1	6
625.652	1	5
625.822	1	-9
625.992	1	10
626.161	1	11
626.331	1	5
626.501	1	10
626.670	1	10
626.840	1	3
627.009	1	8
627.179	1	3
627.348	1	10
627.518	1	5
627.688	1	13
627.857	1	9
628.027	1	4
628.196	1	8
628.366	1	6
628.536	1	-7
628.705	1	4
628.875	1	5
629.044	1	11
629.214	1	5
629.384	1	9
629.553	1	12
629.723	1	7
629.892	1	10
630.062	1	-2
630.232	1	9
630.401	1	3
630.571	1	7
630.740	1	9
630.910	1	0
631.079	1	11
631.249	1	0
631.419	1	6
631.588	1	3
631.758	1	3
631.927	1	1
632.097	1	3
632.266	1	4
632.436	1	3
632.606	1	-1
632.775	1	4
632.945	1	0
633.114	1	6
633.284	1	-4
633.453	1	7
633.623	1	5
633.793	1	9
633.962	1	3
634.132	1	14
634.301	1	-5
634.471	1	14
634.640	1	10
634.810	1	1
634.979	1	-4
635.149	1	5
635.319	1	1
635.488	1	10
635.658	1	18
635.827	1	5
635.997	1	8
636.166	1	-2
636.336	1	-3
636.505	1	-10
636.675	1	6
636.845	1	1
637.014	1	21
637.184	1	3
637.353	1	13
637.523	1	4
637.692	1	13
637.862	1	6
638.031	1	-3
638.201	1	4
638.370	1	5
638.540	1	2
638.710	1	1
638.879	1	9
639.049	1	0
639.218	1	3
639.388	1	0
639.557	1	-5
639.727	1	8
639.896	1	1
640.066	1	1
640.235	1	3
640.405	1	6
640.574	1	5
640.744	1	18
640.914	1	-4
641.083	1	20
641.253	1	7
641.422	1	-5
641.592	1	10
641.761	1	0
641.931	1	8
642.100	1	6
642.270	1	4
642.439	1	4
642.609	1	-4
642.778	1	1
642.948	1	3
643.117	1	10
643.287	1	0
643.456	1	4
643.626	1	6
643.795	1	4
643.965	1	7
644.134	1	-2
644.304	1	-3
644.473	1	1
644.643	1	1
644.812	1	-1
644.982	1	10
645.151	1	8
645.321	1	-6
645.490	1	12
645.660	1	-11
645.829	1	5
645.999	1	-2
646.168	1	17
646.338	1	4
646.507	1	7
646.677	1	-3
646.846	1	5
647.016	1	10
647.185	1	9
647.355	1	8
647.524	1	10
647.694	1	4
647.863	1	-8
648.033	1	0
648.202	1	14
648.372	1	7
648.541	1	0
648.711	1	4
648.880	1	19
649.050	1	2
649.219	1	3
649.389	1	8
649.558	1	3
649.728	1	10
649.897	1	8
650.067	1	-6
650.236	1	11
650.406	1	6
650.575	1	-5
650.745	1	14
650.914	1	1
651.084	1	2
651.253	1	9
651.423	1	5
651.592	1	5
651.762	1	-4
651.931	1	6
652.101	1	14
652.270	1	-4
652.440	1	11
652.609	1	-2
652.778	1	6
652.948	1	3
653.117	1	8
653.287	1	4
653.456	1	-6
653.626	1	5
653.795	1	2
653.965	1	3
654.134	1	7
654.304	1	10
654.473	1	11
654.643	1	-10
654.812	1	11
654.982	1	11
655.151	1	6
655.320	1	5
655.490	1	-6
655.659	1	11
655.829	1	1
655.998	1	-3
656.168	1	4
656.337	1	2
656.507	1	5
656.676	1	9
656.846	1	4
657.015	1	14
657.184	1	5
657.354	1	5
657.523	1	2
657.693	1	2
657.862	1	7
658.032	1	3
658.201	1	5
658.371	1	15
658.540	1	4
658.709	1	-5
658.879	1	13
659.048	1	14
659.218	1	10
659.387	1	-5
659.557	1	4
659.726	1	13
659.895	1	-3
660.065	1	-10
660.234	1	2
660.404	1	7
660.573	1	1
660.743	1	-1
660.912	1	1
661.081	1	12
661.251	1	6
661.420	1	8
661.590	1	6
661.759	1	-7
661.929	1	8
662.098	1	1
662.267	1	0
662.437	1	7
662.606	1	15
662.776	1	5
662.945	1	-4
663.115	1	1
663.284	1	10
663.453	1	-3
663.623	1	-5
663.792	1	4
663.962	1	-4
664.131	1	3
664.300	1	9
664.470	1	11
664.639	1	5
664.809	1	-1
664.978	1	19
665.148	1	-4
665.317	1	-4
665.486	1	3
665.656	1	2
665.825	1	9
665.995	1	2
666.164	1	8
666.333	1	12
666.503	1	14
666.672	1	7
666.842	1	-1
667.011	1	12
667.180	1	-9
667.350	1	2
667.519	1	2
667.689	1	16
667.858	1	-5
668.027	1	8
668.197	1	5
668.366	1	9
668.536	1	0
668.705	1	4
668.874	1	-7
669.044	1	-2
669.213	1	5
669.382	1	2
669.552	1	9
669.721	1	2
669.891	1	-1
670.060	1	14
670.229	1	-6
670.399	1	3
670.568	1	10
670.738	1	13
670.907	1	13
671.076	1	8
671.246	1	-5
671.415	1	0
671.584	1	1
671.754	1	2
671.923	1	3
672.093	1	12
672.262	1	8
672.431	1	-2
672.601	1	10
672.770	1	0
672.939	1	-3
673.109	1	2
673.278	1	0
673.448	1	3
673.617	1	-1
673.786	1	9
