325.333	1	4
325.504	1	9
325.675	1	6
325.846	1	5
326.017	1	3
326.188	1	11
326.359	1	-1
326.531	1	-4
326.702	1	6
326.873	1	5
327.044	1	-5
327.215	1	0
327.386	1	-3
327.557	1	18
327.728	1	-10
327.899	1	-1
328.070	1	-2
328.241	1	4
328.412	1	2
328.583	1	0
328.754	1	-7
328.926	1	4
329.097	1	0
329.268	1	6
329.439	1	3
329.610	1	3
329.781	1	12
329.952	1	4
330.123	1	-4
330.294	1	-3
330.465	1	7
330.636	1	-4
330.807	1	-8
330.978	1	6
331.149	1	-3
331.320	1	-2
331.492	1	17
331.663	1	1
331.834	1	1
332.005	1	-7
332.176	1	2
332.347	1	-1
332.518	1	-6
332.689	1	6
332.860	1	-7
333.031	1	0
333.202	1	11
333.373	1	1
333.544	1	2
333.715	1	-1
333.886	1	1
334.057	1	3
334.228	1	9
334.399	1	-5
334.570	1	12
334.741	1	8
334.912	1	7
335.084	1	-4
335.255	1	-2
335.426	1	-6
335.597	1	1
335.768	1	-7
335.939	1	-3
336.110	1	2
336.281	1	-2
336.452	1	10
336.623	1	6
336.794	1	-2
336.965	1	5
337.136	1	-1
337.307	1	6
337.478	1	1
337.649	1	-7
337.820	1	-3
337.991	1	7
338.162	1	-2
338.333	1	0
338.504	1	-6
338.675	1	2
338.846	1	3
339.017	1	2
339.188	1	5
339.359	1	5
339.530	1	4
339.701	1	2
339.872	1	3
340.043	1	2
340.214	1	1
340.385	1	3
340.556	1	4
340.727	1	-2
340.898	1	-2
341.069	1	4
341.240	1	12
341.411	1	8
341.582	1	-3
341.753	1	-1
341.924	1	5
342.095	1	-5
342.266	1	-7
342.437	1	-1
342.608	1	-5
342.779	1	2
342.950	1	7
343.121	1	9
343.292	1	5
343.463	1	14
343.634	1	8
343.805	1	6
343.976	1	-8
344.147	1	12
344.318	1	0
344.489	1	0
344.660	1	-1
344.831	1	1
345.002	1	5
345.173	1	13
345.344	1	-4
345.515	1	4
345.686	1	4
345.857	1	2
346.028	1	8
346.199	1	-1
346.370	1	-7
346.541	1	12
346.712	1	-3
346.883	1	7
347.054	1	-4
347.225	1	-7
347.396	1	10
347.567	1	8
347.738	1	7
347.909	1	5
348.080	1	0
348.251	1	2
348.422	1	3
348.593	1	4
348.764	1	5
348.935	1	5
349.106	1	-4
349.277	1	9
349.448	1	7
349.619	1	8
349.790	1	10
349.961	1	2
350.132	1	0
350.303	1	18
350.474	1	8
350.645	1	5
350.816	1	14
350.987	1	5
351.157	1	-1
351.328	1	0
351.499	1	0
351.670	1	9
351.841	1	1
352.012	1	4
352.183	1	-9
352.354	1	-2
352.525	1	-3
352.696	1	6
352.867	1	-2
353.038	1	8
353.209	1	9
353.380	1	13
353.551	1	12
353.722	1	-4
353.893	1	8
354.064	1	5
354.235	1	1
354.406	1	6
354.576	1	0
354.747	1	-3
354.918	1	-1
355.089	1	-3
355.260	1	7
355.431	1	1
355.602	1	2
355.773	1	6
355.944	1	10
356.115	1	2
356.286	1	9
356.457	1	3
356.628	1	11
356.799	1	-5
356.970	1	3
357.141	1	10
357.311	1	9
357.482	1	4
357.653	1	-3
357.824	1	13
357.995	1	18
358.166	1	6
358.337	1	-3
358.508	1	3
358.679	1	-3
358.850	1	-2
359.021	1	6
359.192	1	8
359.363	1	13
359.533	1	15
359.704	1	0
359.875	1	3
360.046	1	9
360.217	1	-2
360.388	1	1
360.559	1	8
360.730	1	0
360.901	1	2
361.072	1	5
361.243	1	-2
361.414	1	-5
361.584	1	5
361.755	1	12
361.926	1	2
362.097	1	-1
362.268	1	3
362.439	1	-1
362.610	1	5
362.781	1	0
362.952	1	8
363.123	1	19
363.293	1	-1
363.464	1	-1
363.635	1	-1
363.806	1	5
363.977	1	-6
364.148	1	-5
364.319	1	1
364.490	1	7
364.661	1	8
364.832	1	18
365.002	1	2
365.173	1	13
365.344	1	1
365.515	1	3
365.686	1	3
365.857	1	4
366.028	1	0
366.199	1	5
366.370	1	14
366.540	1	7
366.711	1	2
366.882	1	6
367.053	1	9
367.224	1	-1
367.395	1	11
367.566	1	4
367.737	1	13
367.908	1	3
368.078	1	13
368.249	1	6
368.420	1	4
368.591	1	18
368.762	1	1
368.933	1	-1
369.104	1	8
369.274	1	6
369.445	1	14
369.616	1	12
369.787	1	12
369.958	1	7
370.129	1	2
370.300	1	5
370.471	1	24
370.641	1	8
370.812	1	6
370.983	1	1
371.154	1	12
371.325	1	9
371.496	1	4
371.667	1	18
371.837	1	11
372.008	1	3
372.179	1	-2
372.350	1	5
372.521	1	11
372.692	1	12
372.863	1	10
373.033	1	9
373.204	1	3
373.375	1	11
373.546	1	5
373.717	1	-7
373.888	1	5
374.059	1	21
374.229	1	19
374.400	1	-4
374.571	1	15
374.742	1	8
374.913	1	8
375.084	1	-1
375.254	1	19
375.425	1	6
375.596	1	-1
375.767	1	9
375.938	1	13
376.109	1	-6
376.279	1	2
376.450	1	5
376.621	1	17
376.792	1	8
376.963	1	12
377.134	1	14
377.304	1	2
377.475	1	0
377.646	1	3
377.817	1	-11
377.988	1	3
378.159	1	-2
378.329	1	9
378.500	1	10
378.671	1	16
378.842	1	1
379.013	1	9
379.184	1	5
379.354	1	-7
379.525	1	10
379.696	1	-2
379.867	1	15
380.038	1	-5
380.209	1	8
380.379	1	8
380.550	1	13
380.721	1	7
380.892	1	6
381.063	1	7
381.233	1	1
381.404	1	5
381.575	1	6
381.746	1	13
381.917	1	-6
382.087	1	10
382.258	1	-1
382.429	1	13
382.600	1	5
382.771	1	13
382.941	1	5
383.112	1	6
383.283	1	3
383.454	1	3
383.625	1	-1
383.795	1	10
383.966	1	8
384.137	1	6
384.308	1	8
384.479	1	4
384.649	1	9
384.820	1	1
384.991	1	9
385.162	1	-1
385.333	1	9
385.503	1	4
385.674	1	8
385.845	1	23
386.016	1	10
386.187	1	1
386.357	1	6
386.528	1	2
386.699	1	-1
386.870	1	3
387.041	1	5
387.211	1	-7
387.382	1	8
387.553	1	2
387.724	1	-1
387.894	1	5
388.065	1	10
388.236	1	10
388.407	1	11
388.578	1	-6
388.748	1	13
388.919	1	16
389.090	1	5
389.261	1	4
389.431	1	18
389.602	1	3
389.773	1	14
389.944	1	12
390.114	1	17
390.285	1	-4
390.456	1	-2
390.627	1	9
390.798	1	12
390.968	1	2
391.139	1	6
391.310	1	22
391.481	1	0
391.651	1	11
391.822	1	3
391.993	1	6
392.164	1	-8
392.334	1	17
392.505	1	-3
392.676	1	12
392.847	1	-1
393.017	1	15
393.188	1	7
393.359	1	16
393.530	1	12
393.700	1	2
393.871	1	-4
394.042	1	-4
394.213	1	3
394.383	1	6
394.554	1	4
394.725	1	15
394.896	1	0
395.066	1	9
395.237	1	7
395.408	1	3
395.579	1	8
395.749	1	10
395.920	1	6
396.091	1	-5
396.262	1	8
396.432	1	6
396.603	1	11
396.774	1	3
396.945	1	8
397.115	1	18
397.286	1	17
397.457	1	12
397.627	1	6
397.798	1	6
397.969	1	11
398.140	1	8
398.310	1	13
398.481	1	-2
398.652	1	14
398.823	1	11
398.993	1	7
399.164	1	9
399.335	1	5
399.505	1	13
399.676	1	6
399.847	1	10
400.018	1	4
400.188	1	4
400.359	1	0
400.530	1	18
400.700	1	10
400.871	1	21
401.042	1	8
401.213	1	-4
401.383	1	3
401.554	1	10
401.725	1	6
401.895	1	14
402.066	1	2
402.237	1	13
402.408	1	11
402.578	1	11
402.749	1	4
402.920	1	10
403.090	1	-2
403.261	1	7
403.432	1	3
403.603	1	7
403.773	1	17
403.944	1	7
404.115	1	15
404.285	1	0
404.456	1	11
404.627	1	-4
404.797	1	3
404.968	1	18
405.139	1	9
405.310	1	3
405.480	1	8
405.651	1	19
405.822	1	12
405.992	1	10
406.163	1	8
406.334	1	-1
406.504	1	4
406.675	1	8
406.846	1	6
407.016	1	0
407.187	1	10
407.358	1	14
407.528	1	3
407.699	1	4
407.870	1	-1
408.041	1	13
408.211	1	11
408.382	1	2
408.553	1	6
408.723	1	18
408.894	1	21
409.065	1	12
409.235	1	18
409.406	1	3
409.577	1	6
409.747	1	2
409.918	1	7
410.089	1	23
410.259	1	10
410.430	1	5
410.601	1	10
410.771	1	15
410.942	1	14
411.113	1	-1
411.283	1	5
411.454	1	13
411.625	1	9
411.795	1	12
411.966	1	12
412.137	1	7
412.307	1	9
412.478	1	14
412.649	1	4
412.819	1	2
412.990	1	-1
413.161	1	12
413.331	1	13
413.502	1	14
413.672	1	11
413.843	1	18
414.014	1	15
414.184	1	1
414.355	1	26
414.526	1	10
414.696	1	4
414.867	1	12
415.038	1	3
415.208	1	10
415.379	1	7
415.550	1	30
415.720	1	14
415.891	1	-1
416.062	1	6
416.232	1	4
416.403	1	7
416.573	1	8
416.744	1	8
416.915	1	9
417.085	1	16
417.256	1	10
417.427	1	18
417.597	1	3
417.768	1	6
417.939	1	8
418.109	1	9
418.280	1	2
418.450	1	16
418.621	1	6
418.792	1	3
418.962	1	13
419.133	1	10
419.304	1	8
419.474	1	5
419.645	1	10
419.815	1	12
419.986	1	14
420.157	1	2
420.327	1	16
420.498	1	6
420.669	1	11
420.839	1	13
421.010	1	5
421.180	1	7
421.351	1	19
421.522	1	-2
421.692	1	20
421.863	1	7
422.033	1	6
422.204	1	14
422.375	1	19
422.545	1	16
422.716	1	2
422.886	1	-2
423.057	1	0
423.228	1	4
423.398	1	7
423.569	1	7
423.740	1	2
423.910	1	8
424.081	1	14
424.251	1	6
424.422	1	21
424.593	1	0
424.763	1	5
424.934	1	9
425.104	1	10
425.275	1	7
425.445	1	3
425.616	1	4
425.787	1	0
425.957	1	17
426.128	1	-8
426.298	1	-2
426.469	1	5
426.640	1	21
426.810	1	1
426.981	1	-3
427.151	1	15
427.322	1	20
427.493	1	6
427.663	1	7
427.834	1	3
428.004	1	1
428.175	1	3
428.345	1	-5
428.516	1	14
428.687	1	7
428.857	1	11
429.028	1	5
429.198	1	-4
429.369	1	5
429.540	1	3
429.710	1	-1
429.881	1	4
430.051	1	5
430.222	1	11
430.392	1	7
430.563	1	12
430.734	1	9
430.904	1	3
431.075	1	6
431.245	1	6
431.416	1	9
431.586	1	4
431.757	1	6
431.927	1	11
432.098	1	2
432.269	1	7
432.439	1	17
432.610	1	15
432.780	1	10
432.951	1	0
433.121	1	4
433.292	1	5
433.462	1	7
433.633	1	8
433.804	1	14
433.974	1	6
434.145	1	17
434.315	1	5
434.486	1	-2
434.656	1	8
434.827	1	0
434.997	1	9
435.168	1	4
435.339	1	4
435.509	1	9
435.680	1	5
435.850	1	2
436.021	1	14
436.191	1	-2
436.362	1	-4
436.532	1	20
436.703	1	6
436.873	1	10
437.044	1	6
437.214	1	12
437.385	1	14
437.556	1	5
437.726	1	-1
437.897	1	9
438.067	1	1
438.238	1	-3
438.408	1	3
438.579	1	16
438.749	1	6
438.920	1	11
439.090	1	3
439.261	1	6
439.431	1	6
439.602	1	7
439.772	1	10
439.943	1	8
440.113	1	3
440.284	1	-3
440.455	1	13
440.625	1	19
440.796	1	11
440.966	1	-10
441.137	1	2
441.307	1	8
441.478	1	2
441.648	1	0
441.819	1	9
441.989	1	5
442.160	1	-5
442.330	1	2
442.501	1	12
442.671	1	5
442.842	1	0
443.012	1	4
443.183	1	5
443.353	1	19
443.524	1	11
443.694	1	0
443.865	1	8
444.035	1	-1
444.206	1	6
444.376	1	9
444.547	1	4
444.717	1	9
444.888	1	3
445.058	1	14
445.229	1	3
445.399	1	22
445.570	1	13
445.740	1	8
445.911	1	4
446.081	1	17
446.252	1	5
446.422	1	12
446.593	1	-6
446.763	1	14
446.934	1	-5
447.104	1	8
447.275	1	5
447.445	1	-2
447.616	1	5
447.786	1	3
447.957	1	0
448.127	1	-7
448.298	1	-3
448.468	1	4
448.639	1	16
448.809	1	7
448.979	1	1
449.150	1	9
449.320	1	6
449.491	1	0
449.661	1	7
449.832	1	9
450.002	1	1
450.173	1	3
450.343	1	13
450.514	1	1
450.684	1	6
450.855	1	10
451.025	1	11
451.196	1	-9
451.366	1	1
451.537	1	6
451.707	1	14
451.878	1	0
452.048	1	7
452.218	1	5
452.389	1	8
452.559	1	14
452.730	1	1
452.900	1	6
453.071	1	-1
453.241	1	1
453.412	1	1
453.582	1	10
453.753	1	-6
453.923	1	13
454.093	1	6
454.264	1	11
454.434	1	6
454.605	1	14
454.775	1	-4
454.946	1	2
455.116	1	8
455.287	1	10
455.457	1	13
455.628	1	3
455.798	1	3
455.968	1	15
456.139	1	17
456.309	1	14
456.480	1	9
456.650	1	4
456.821	1	1
456.991	1	-2
457.161	1	0
457.332	1	10
457.502	1	2
457.673	1	4
457.843	1	8
458.014	1	11
458.184	1	8
458.355	1	9
458.525	1	4
458.695	1	11
458.866	1	8
459.036	1	10
459.207	1	17
459.377	1	6
459.548	1	9
459.718	1	-1
459.888	1	14
460.059	1	13
460.229	1	2
460.400	1	5
460.570	1	12
460.740	1	8
460.911	1	8
461.081	1	8
461.252	1	5
461.422	1	-1
461.593	1	-1
461.763	1	5
461.933	1	9
462.104	1	8
462.274	1	2
462.445	1	0
462.615	1	13
462.785	1	4
462.956	1	-2
463.126	1	4
463.297	1	10
463.467	1	7
463.638	1	2
463.808	1	7
463.978	1	9
464.149	1	10
464.319	1	10
464.490	1	8
464.660	1	12
464.830	1	6
465.001	1	-4
465.171	1	-1
465.342	1	2
465.512	1	5
465.682	1	11
465.853	1	12
466.023	1	20
466.194	1	-2
466.364	1	7
466.534	1	-3
466.705	1	14
466.875	1	12
467.045	1	14
467.216	1	7
467.386	1	1
467.557	1	16
467.727	1	14
467.897	1	19
468.068	1	0
468.238	1	3
468.409	1	11
468.579	1	13
468.749	1	8
468.920	1	14
469.090	1	1
469.260	1	16
469.431	1	4
469.601	1	4
469.772	1	2
469.942	1	7
470.112	1	12
470.283	1	-2
470.453	1	4
470.623	1	2
470.794	1	7
470.964	1	5
471.135	1	12
471.305	1	-1
471.475	1	10
471.646	1	8
471.816	1	7
471.986	1	0
472.157	1	0
472.327	1	7
472.497	1	12
472.668	1	-2
472.838	1	9
473.009	1	13
473.179	1	4
473.349	1	2
473.520	1	-4
473.690	1	4
473.860	1	-2
474.031	1	-2
474.201	1	10
474.371	1	12
474.542	1	16
474.712	1	2
474.882	1	9
475.053	1	-1
475.223	1	-8
475.394	1	-4
475.564	1	8
475.734	1	-1
475.905	1	-1
476.075	1	-9
476.245	1	8
476.416	1	9
476.586	1	3
476.756	1	1
476.927	1	9
477.097	1	13
477.267	1	-2
477.438	1	3
477.608	1	10
477.778	1	5
477.949	1	8
478.119	1	-4
478.289	1	-3
478.460	1	7
478.630	1	9
478.800	1	9
478.971	1	10
479.141	1	6
479.311	1	-1
479.482	1	-9
479.652	1	15
479.822	1	-1
479.993	1	10
480.163	1	7
480.333	1	13
480.504	1	2
480.674	1	-4
480.844	1	3
481.015	1	1
481.185	1	9
481.355	1	0
481.525	1	-4
481.696	1	3
481.866	1	7
482.036	1	8
482.207	1	7
482.377	1	4
482.547	1	0
482.718	1	-3
482.888	1	-5
483.058	1	0
483.229	1	11
483.399	1	2
483.569	1	2
483.740	1	0
483.910	1	7
484.080	1	8
484.250	1	0
484.421	1	9
484.591	1	10
484.761	1	0
484.932	1	12
485.102	1	-2
485.272	1	6
485.443	1	6
485.613	1	-3
485.783	1	15
485.953	1	-7
486.124	1	7
486.294	1	-3
486.464	1	6
486.635	1	-7
486.805	1	13
486.975	1	7
487.146	1	1
487.316	1	-3
487.486	1	-3
487.656	1	8
487.827	1	-2
487.997	1	2
488.167	1	10
488.338	1	5
488.508	1	3
488.678	1	11
488.848	1	4
489.019	1	-2
489.189	1	-2
489.359	1	5
489.529	1	-7
489.700	1	3
489.870	1	-5
490.040	1	-10
490.211	1	-3
490.381	1	23
490.551	1	6
490.721	1	6
490.892	1	20
491.062	1	-3
491.232	1	-1
491.402	1	-4
491.573	1	12
491.743	1	9
491.913	1	6
492.084	1	1
492.254	1	19
492.424	1	3
492.594	1	-7
492.765	1	11
492.935	1	1
493.105	1	-1
493.275	1	3
493.446	1	6
493.616	1	-12
493.786	1	5
493.956	1	6
494.127	1	2
494.297	1	15
494.467	1	3
494.637	1	0
494.808	1	5
494.978	1	2
495.148	1	5
495.318	1	5
495.489	1	7
495.659	1	2
495.829	1	9
495.999	1	-4
496.170	1	4
496.340	1	2
496.510	1	10
496.680	1	2
496.851	1	10
497.021	1	11
497.191	1	4
497.361	1	11
497.532	1	3
497.702	1	6
497.872	1	4
498.042	1	14
498.213	1	0
498.383	1	5
498.553	1	10
498.723	1	-9
498.894	1	13
499.064	1	-11
499.234	1	7
499.404	1	12
499.574	1	5
499.745	1	-2
499.915	1	-2
500.085	1	-9
500.255	1	-3
500.426	1	5
500.596	1	11
500.766	1	7
500.936	1	0
501.106	1	2
501.277	1	6
501.447	1	-4
501.617	1	4
501.787	1	5
501.958	1	6
502.128	1	9
502.298	1	11
502.468	1	6
502.638	1	21
502.809	1	6
502.979	1	3
503.149	1	9
503.319	1	13
503.489	1	-3
503.660	1	-1
503.830	1	-5
504.000	1	6
504.170	1	1
504.340	1	-8
504.511	1	10
504.681	1	-4
504.851	1	-5
505.021	1	5
505.192	1	-3
505.362	1	9
505.532	1	4
505.702	1	-2
505.872	1	8
506.043	1	-7
506.213	1	0
506.383	1	2
506.553	1	2
506.723	1	2
506.893	1	6
507.064	1	8
507.234	1	-3
507.404	1	10
507.574	1	-8
507.744	1	-1
507.915	1	8
508.085	1	8
508.255	1	-6
508.425	1	3
508.595	1	-11
508.766	1	0
508.936	1	3
509.106	1	9
509.276	1	-1
509.446	1	-2
509.616	1	11
509.787	1	-3
509.957	1	-5
510.127	1	10
510.297	1	9
510.467	1	4
510.638	1	-6
510.808	1	2
510.978	1	11
511.148	1	3
511.318	1	15
511.488	1	2
511.659	1	1
511.829	1	-2
511.999	1	1
512.169	1	1
512.339	1	5
512.509	1	8
512.680	1	0
512.850	1	2
513.020	1	-3
513.190	1	0
513.360	1	4
513.530	1	8
513.700	1	4
513.871	1	2
514.041	1	6
514.211	1	11
514.381	1	-1
514.551	1	8
514.721	1	6
514.892	1	-4
515.062	1	-1
515.232	1	-8
515.402	1	15
515.572	1	3
515.742	1	-3
515.912	1	12
516.083	1	6
516.253	1	7
516.423	1	-6
516.593	1	3
516.763	1	2
516.933	1	-2
517.104	1	0
517.274	1	7
517.444	1	-2
517.614	1	-6
517.784	1	1
517.954	1	-1
518.124	1	-1
518.294	1	13
518.465	1	8
518.635	1	-3
518.805	1	4
518.975	1	11
519.145	1	1
519.315	1	0
519.485	1	-6
519.656	1	8
519.826	1	2
519.996	1	4
520.166	1	7
520.336	1	11
520.506	1	11
520.676	1	3
520.846	1	7
521.017	1	-13
521.187	1	1
521.357	1	-7
521.527	1	-4
521.697	1	-5
521.867	1	-3
522.037	1	8
522.207	1	8
522.377	1	1
522.548	1	2
522.718	1	7
522.888	1	-6
523.058	1	-10
523.228	1	5
523.398	1	3
523.568	1	-5
523.738	1	4
523.909	1	1
524.079	1	2
524.249	1	-8
524.419	1	6
524.589	1	14
524.759	1	4
524.929	1	-1
525.099	1	7
525.269	1	6
525.439	1	5
525.610	1	7
525.780	1	4
525.950	1	-2
526.120	1	5
526.290	1	12
526.460	1	0
526.630	1	1
526.800	1	-8
526.970	1	4
527.140	1	6
527.311	1	-8
527.481	1	-1
527.651	1	9
527.821	1	9
527.991	1	4
528.161	1	7
528.331	1	-2
528.501	1	-5
528.671	1	7
528.841	1	8
529.011	1	4
529.181	1	2
529.352	1	1
529.522	1	-1
529.692	1	-2
529.862	1	5
530.032	1	-2
530.202	1	4
530.372	1	-3
530.542	1	7
530.712	1	-4
530.882	1	0
531.052	1	3
531.222	1	2
531.392	1	-5
531.563	1	4
531.733	1	9
531.903	1	13
532.073	1	-1
532.243	1	2
532.413	1	0
532.583	1	-2
532.753	1	-1
532.923	1	3
533.093	1	-3
533.263	1	-4
533.433	1	10
533.603	1	2
533.773	1	4
533.943	1	0
534.113	1	10
534.284	1	7
534.454	1	4
534.624	1	-3
534.794	1	1
534.964	1	5
535.134	1	-2
535.304	1	15
535.474	1	-4
535.644	1	6
535.814	1	2
535.984	1	-6
536.154	1	-1
536.324	1	-12
536.494	1	9
536.664	1	-12
536.834	1	3
537.004	1	-5
537.174	1	14
537.344	1	5
537.514	1	-3
537.685	1	2
537.855	1	5
538.025	1	-9
538.195	1	9
538.365	1	1
538.535	1	-1
538.705	1	-7
538.875	1	9
539.045	1	4
539.215	1	7
539.385	1	-6
539.555	1	-10
539.725	1	12
539.895	1	18
540.065	1	-6
540.235	1	2
540.405	1	4
540.575	1	3
540.745	1	0
540.915	1	0
541.085	1	0
541.255	1	2
541.425	1	-2
541.595	1	-10
541.765	1	0
541.935	1	9
542.105	1	-1
542.275	1	5
542.445	1	0
542.615	1	10
542.785	1	6
542.955	1	-5
543.125	1	-8
543.295	1	9
543.465	1	3
543.635	1	-13
543.805	1	1
543.975	1	-8
544.145	1	4
544.315	1	-10
544.485	1	-2
544.655	1	7
544.825	1	1
544.995	1	7
545.165	1	1
545.335	1	-3
545.505	1	-2
545.675	1	3
545.845	1	-5
546.015	1	5
546.185	1	3
546.355	1	-5
546.525	1	3
546.695	1	4
546.865	1	-10
547.035	1	-7
547.205	1	2
547.375	1	8
547.545	1	-4
547.715	1	3
547.885	1	9
548.055	1	6
548.225	1	-9
548.395	1	9
548.565	1	-3
548.735	1	4
548.905	1	6
549.075	1	11
549.245	1	4
549.415	1	5
549.585	1	12
549.755	1	1
549.925	1	-4
550.095	1	-1
550.265	1	-13
550.435	1	3
550.605	1	-2
550.775	1	1
550.945	1	-1
551.115	1	6
551.285	1	1
551.455	1	-6
551.625	1	8
551.795	1	5
551.965	1	5
552.135	1	-10
552.305	1	3
552.475	1	3
552.645	1	19
552.815	1	-2
552.985	1	-9
553.155	1	-5
553.325	1	-9
553.495	1	1
553.665	1	1
553.835	1	-9
554.004	1	-2
554.174	1	6
554.344	1	-3
554.514	1	13
554.684	1	-5
554.854	1	-4
555.024	1	7
555.194	1	7
555.364	1	5
555.534	1	18
555.704	1	-2
555.874	1	13
556.044	1	-1
556.214	1	-10
556.384	1	2
556.554	1	4
556.724	1	-8
556.894	1	1
557.064	1	2
557.234	1	0
557.404	1	8
557.573	1	6
557.743	1	-6
557.913	1	-1
558.083	1	-6
558.253	1	-4
558.423	1	-2
558.593	1	9
558.763	1	9
558.933	1	4
559.103	1	-2
559.273	1	1
559.443	1	-6
559.613	1	-6
559.783	1	9
559.953	1	4
560.122	1	5
560.292	1	-4
560.462	1	4
560.632	1	-2
560.802	1	-3
560.972	1	9
561.142	1	8
561.312	1	8
561.482	1	2
561.652	1	5
561.822	1	-8
561.992	1	-6
562.162	1	-1
562.331	1	-2
562.501	1	-7
562.671	1	3
562.841	1	15
563.011	1	11
563.181	1	14
563.351	1	1
563.521	1	8
563.691	1	0
563.861	1	6
564.031	1	3
564.201	1	-1
564.370	1	9
564.540	1	0
564.710	1	14
564.880	1	2
565.050	1	-5
565.220	1	2
565.390	1	14
565.560	1	3
565.730	1	2
565.900	1	-2
566.069	1	13
566.239	1	-12
566.409	1	3
566.579	1	-2
566.749	1	14
566.919	1	3
567.089	1	-4
567.259	1	9
567.429	1	0
567.599	1	-4
567.768	1	-8
567.938	1	-11
568.108	1	9
568.278	1	0
568.448	1	11
568.618	1	12
568.788	1	5
568.958	1	13
569.128	1	-2
569.297	1	-4
569.467	1	13
569.637	1	-9
569.807	1	4
569.977	1	4
570.147	1	-4
570.317	1	8
570.487	1	7
570.656	1	-7
570.826	1	13
570.996	1	0
571.166	1	-8
571.336	1	0
571.506	1	-2
571.676	1	4
571.846	1	-4
572.015	1	14
572.185	1	-4
572.355	1	-3
572.525	1	9
572.695	1	-3
572.865	1	0
573.035	1	1
573.205	1	-13
573.374	1	-8
573.544	1	3
573.714	1	9
573.884	1	12
574.054	1	2
574.224	1	3
574.394	1	-2
574.563	1	3
574.733	1	-7
574.903	1	6
575.073	1	5
575.243	1	-3
575.413	1	3
575.583	1	-3
575.752	1	-2
575.922	1	3
576.092	1	7
576.262	1	13
576.432	1	0
576.602	1	-5
576.772	1	-9
576.941	1	7
577.111	1	-1
577.281	1	4
577.451	1	1
577.621	1	7
577.791	1	-2
577.960	1	-2
578.130	1	-9
578.300	1	6
578.470	1	6
578.640	1	4
578.810	1	2
578.979	1	-2
579.149	1	-4
579.319	1	0
579.489	1	-3
579.659	1	-3
579.829	1	0
579.998	1	-1
580.168	1	0
580.338	1	1
580.508	1	4
580.678	1	-3
580.848	1	4
581.017	1	6
581.187	1	6
581.357	1	-1
581.527	1	1
581.697	1	0
581.867	1	1
582.036	1	5
582.206	1	5
582.376	1	3
582.546	1	-8
582.716	1	-3
582.885	1	0
583.055	1	0
583.225	1	-5
583.395	1	2
583.565	1	11
583.735	1	1
583.904	1	3
584.074	1	4
584.244	1	9
584.414	1	2
584.584	1	-6
584.753	1	0
584.923	1	4
585.093	1	6
585.263	1	-3
585.433	1	-3
585.602	1	-1
585.772	1	6
585.942	1	-5
586.112	1	-2
586.282	1	2
586.451	1	-15
586.621	1	0
586.791	1	0
586.961	1	11
587.131	1	5
587.300	1	0
587.470	1	-5
587.640	1	-4
587.810	1	0
587.980	1	3
588.149	1	3
588.319	1	-2
588.489	1	10
588.659	1	-8
588.829	1	4
588.998	1	-4
589.168	1	1
589.338	1	3
589.508	1	-2
589.677	1	0
589.847	1	-5
590.017	1	5
590.187	1	-2
590.357	1	-1
590.526	1	10
590.696	1	6
590.866	1	7
591.036	1	2
591.205	1	-4
591.375	1	2
591.545	1	-9
591.715	1	4
591.885	1	0
592.054	1	5
592.224	1	8
592.394	1	-3
592.564	1	-6
592.733	1	15
592.903	1	9
593.073	1	8
593.243	1	0
593.412	1	-1
593.582	1	2
593.752	1	6
593.922	1	-4
594.091	1	6
594.261	1	-5
594.431	1	2
594.601	1	7
594.771	1	1
594.940	1	1
595.110	1	7
595.280	1	3
595.450	1	1
595.619	1	3
595.789	1	0
595.959	1	-7
596.129	1	10
596.298	1	3
596.468	1	-2
596.638	1	12
596.808	1	10
596.977	1	4
597.147	1	4
597.317	1	0
597.487	1	-6
597.656	1	1
597.826	1	-5
597.996	1	9
598.166	1	2
598.335	1	7
598.505	1	4
598.675	1	3
598.844	1	3
599.014	1	-2
599.184	1	8
599.354	1	2
599.523	1	1
599.693	1	1
599.863	1	-1
600.033	1	-6
600.202	1	-8
600.372	1	-2
600.542	1	12
600.712	1	4
600.881	1	6
601.051	1	0
601.221	1	3
601.390	1	1
601.560	1	5
601.730	1	-4
601.900	1	1
602.069	1	0
602.239	1	-18
602.409	1	9
602.578	1	3
602.748	1	6
602.918	1	3
603.088	1	6
603.257	1	12
603.427	1	2
603.597	1	0
603.767	1	-8
603.936	1	4
604.106	1	5
604.276	1	-9
604.445	1	-2
604.615	1	-6
604.785	1	-10
604.954	1	11
605.124	1	-5
605.294	1	-1
605.464	1	5
605.633	1	9
605.803	1	3
605.973	1	3
606.142	1	4
606.312	1	-1
606.482	1	4
606.652	1	13
606.821	1	9
606.991	1	6
607.161	1	10
607.330	1	2
607.500	1	-5
607.670	1	-1
607.839	1	-2
608.009	1	-5
608.179	1	-9
608.348	1	7
608.518	1	-1
608.688	1	3
608.858	1	3
609.027	1	4
609.197	1	13
609.367	1	-4
609.536	1	-5
609.706	1	6
609.876	1	-1
610.045	1	7
610.215	1	-6
610.385	1	11
610.554	1	-4
610.724	1	3
610.894	1	4
611.063	1	-5
611.233	1	5
611.403	1	2
611.572	1	7
611.742	1	-3
611.912	1	-5
612.081	1	4
612.251	1	3
612.421	1	4
612.590	1	-7
612.760	1	10
612.930	1	0
613.099	1	5
613.269	1	1
613.439	1	6
613.608	1	16
613.778	1	-2
613.948	1	9
614.117	1	-2
614.287	1	5
614.457	1	-3
614.626	1	-2
614.796	1	1
614.966	1	-2
615.135	1	1
615.305	1	-3
615.475	1	9
615.644	1	6
615.814	1	4
615.984	1	-10
616.153	1	-1
616.323	1	-7
616.493	1	0
616.662	1	3
616.832	1	9
617.002	1	3
617.171	1	-7
617.341	1	-1
617.511	1	0
617.680	1	0
617.850	1	0
618.019	1	10
618.189	1	3
618.359	1	-8
618.528	1	10
618.698	1	-2
618.868	1	12
619.037	1	2
619.207	1	7
619.377	1	-2
619.546	1	-4
619.716	1	2
619.885	1	14
620.055	1	-4
620.225	1	8
620.394	1	8
620.564	1	6
620.734	1	2
620.903	1	1
621.073	1	7
621.242	1	-5
621.412	1	0
621.582	1	4
621.751	1	0
621.921	1	1
622.091	1	-2
622.260	1	5
622.430	1	6
622.599	1	19
622.769	1	2
622.939	1	3
623.108	1	7
623.278	1	11
623.448	1	7
623.617	1	2
623.787	1	11
623.956	1	4
624.126	1	12
624.296	1	9
624.465	1	-10
624.635	1	-1
624.804	1	8
624.974	1	-1
625.144	1	6
625.313	1	-5
625.483	1	1
625.652	1	-3
625.822	1	1
625.992	1	-1
626.161	1	2
626.331	1	1
626.501	1	7
626.670	1	-3
626.840	1	-3
627.009	1	0
627.179	1	3
627.348	1	-4
627.518	1	13
627.688	1	5
627.857	1	4
628.027	1	10
628.196	1	3
628.366	1	-7
628.536	1	3
628.705	1	-5
628.875	1	-1
629.044	1	-5
629.214	1	1
629.384	1	-2
629.553	1	6
629.723	1	6
629.892	1	6
630.062	1	13
630.232	1	-7
630.401	1	-1
630.571	1	-9
630.740	1	-1
630.910	1	13
631.079	1	2
631.249	1	-4
631.419	1	8
631.588	1	-14
631.758	1	9
631.927	1	2
632.097	1	8
632.266	1	6
632.436	1	-5
632.606	1	6
632.775	1	14
632.945	1	-7
633.114	1	-3
633.284	1	-4
633.453	1	-2
633.623	1	-6
633.793	1	-2
633.962	1	-10
634.132	1	1
634.301	1	11
634.471	1	12
634.640	1	12
634.810	1	8
634.979	1	2
635.149	1	1
635.319	1	6
635.488	1	3
635.658	1	-4
635.827	1	8
635.997	1	-11
636.166	1	8
636.336	1	3
636.505	1	5
636.675	1	-7
636.845	1	3
637.014	1	7
637.184	1	2
637.353	1	2
637.523	1	5
637.692	1	5
637.862	1	-4
638.031	1	-2
638.201	1	3
638.370	1	3
638.540	1	4
638.710	1	8
638.879	1	1
639.049	1	16
639.218	1	2
639.388	1	14
639.557	1	5
639.727	1	-1
639.896	1	-6
640.066	1	-7
640.235	1	8
640.405	1	4
640.574	1	-2
640.744	1	7
640.914	1	1
641.083	1	-6
641.253	1	7
641.422	1	10
641.592	1	3
641.761	1	16
641.931	1	-4
642.100	1	8
642.270	1	-4
642.439	1	-8
642.609	1	-1
642.778	1	1
642.948	1	-13
643.117	1	4
643.287	1	-5
643.456	1	-3
643.626	1	7
643.795	1	6
643.965	1	0
644.134	1	1
644.304	1	5
644.473	1	5
644.643	1	-8
644.812	1	1
644.982	1	3
645.151	1	5
645.321	1	5
645.490	1	14
645.660	1	-2
645.829	1	0
645.999	1	5
646.168	1	4
646.338	1	-3
646.507	1	-11
646.677	1	9
646.846	1	7
647.016	1	9
647.185	1	3
647.355	1	2
647.524	1	-5
647.694	1	-2
647.863	1	0
648.033	1	4
648.202	1	-1
648.372	1	-13
648.541	1	3
648.711	1	9
648.880	1	8
649.050	1	14
649.219	1	-1
649.389	1	8
649.558	1	1
649.728	1	2
649.897	1	2
650.067	1	-4
650.236	1	13
650.406	1	-1
650.575	1	6
650.745	1	2
650.914	1	6
651.084	1	2
651.253	1	5
651.423	1	-2
651.592	1	2
651.762	1	-1
651.931	1	1
652.101	1	2
652.270	1	0
652.440	1	8
652.609	1	7
652.778	1	4
652.948	1	1
653.117	1	12
653.287	1	3
653.456	1	9
653.626	1	6
653.795	1	5
653.965	1	7
654.134	1	-5
654.304	1	8
654.473	1	7
654.643	1	17
654.812	1	7
654.982	1	2
655.151	1	5
655.320	1	0
655.490	1	-10
655.659	1	0
655.829	1	-3
655.998	1	6
656.168	1	2
656.337	1	0
656.507	1	-1
656.676	1	5
656.846	1	-1
657.015	1	11
657.184	1	-8
657.354	1	-4
657.523	1	2
657.693	1	6
657.862	1	4
658.032	1	-8
658.201	1	2
658.371	1	8
658.540	1	9
658.709	1	1
658.879	1	-4
659.048	1	-1
659.218	1	4
659.387	1	7
659.557	1	-3
659.726	1	5
659.895	1	-3
660.065	1	4
660.234	1	1
660.404	1	15
660.573	1	8
660.743	1	10
660.912	1	3
661.081	1	5
661.251	1	-2
661.420	1	9
661.590	1	10
661.759	1	6
661.929	1	12
662.098	1	7
662.267	1	5
662.437	1	6
662.606	1	7
662.776	1	10
662.945	1	10
663.115	1	-11
663.284	1	-4
663.453	1	-7
663.623	1	6
663.792	1	-7
663.962	1	-2
664.131	1	6
664.300	1	3
664.470	1	-3
664.639	1	1
664.809	1	5
664.978	1	3
665.148	1	3
665.317	1	-6
665.486	1	-1
665.656	1	-3
665.825	1	-1
665.995	1	9
666.164	1	6
666.333	1	6
666.503	1	12
666.672	1	10
666.842	1	-6
667.011	1	6
667.180	1	-7
667.350	1	14
667.519	1	9
667.689	1	11
667.858	1	11
668.027	1	-2
668.197	1	10
668.366	1	7
668.536	1	-1
668.705	1	10
668.874	1	10
669.044	1	-2
669.213	1	7
669.382	1	10
669.552	1	-3
669.721	1	-4
669.891	1	6
670.060	1	-2
670.229	1	2
670.399	1	-2
670.568	1	7
670.738	1	0
670.907	1	5
671.076	1	13
671.246	1	-6
671.415	1	1
671.584	1	-5
671.754	1	9
671.923	1	-5
672.093	1	8
672.262	1	8
672.431	1	11
672.601	1	-6
672.770	1	2
672.939	1	-1
673.109	1	3
673.278	1	11
673.448	1	-2
673.617	1	-4
673.786	1	-7
