325.333	1	1
325.504	1	6
325.675	1	2
325.846	1	-3
326.017	1	-1
326.188	1	3
326.359	1	4
326.531	1	-7
326.702	1	9
326.873	1	9
327.044	1	0
327.215	1	-4
327.386	1	-4
327.557	1	1
327.728	1	-5
327.899	1	9
328.070	1	6
328.241	1	5
328.412	1	-5
328.583	1	6
328.754	1	4
328.926	1	5
329.097	1	7
329.268	1	6
329.439	1	-1
329.610	1	3
329.781	1	13
329.952	1	3
330.123	1	-4
330.294	1	0
330.465	1	8
330.636	1	0
330.807	1	3
330.978	1	7
331.149	1	4
331.320	1	3
331.492	1	13
331.663	1	-1
331.834	1	11
332.005	1	3
332.176	1	7
332.347	1	0
332.518	1	-6
332.689	1	15
332.860	1	-1
333.031	1	3
333.202	1	6
333.373	1	10
333.544	1	1
333.715	1	0
333.886	1	3
334.057	1	-1
334.228	1	10
334.399	1	4
334.570	1	10
334.741	1	13
334.912	1	10
335.084	1	3
335.255	1	5
335.426	1	2
335.597	1	14
335.768	1	-4
335.939	1	3
336.110	1	7
336.281	1	14
336.452	1	13
336.623	1	4
336.794	1	1
336.965	1	-2
337.136	1	11
337.307	1	12
337.478	1	9
337.649	1	3
337.820	1	-5
337.991	1	13
338.162	1	4
338.333	1	5
338.504	1	-8
338.675	1	12
338.846	1	8
339.017	1	2
339.188	1	6
339.359	1	12
339.530	1	8
339.701	1	2
339.872	1	2
340.043	1	3
340.214	1	9
340.385	1	15
340.556	1	1
340.727	1	0
340.898	1	5
341.069	1	14
341.240	1	9
341.411	1	6
341.582	1	8
341.753	1	-2
341.924	1	13
342.095	1	-3
342.266	1	-2
342.437	1	9
342.608	1	2
342.779	1	5
342.950	1	9
343.121	1	4
343.292	1	9
343.463	1	5
343.634	1	10
343.805	1	-5
343.976	1	-2
344.147	1	8
344.318	1	2
344.489	1	12
344.660	1	15
344.831	1	11
345.002	1	8
345.173	1	10
345.344	1	-9
345.515	1	4
345.686	1	1
345.857	1	8
346.028	1	8
346.199	1	7
346.370	1	17
346.541	1	16
346.712	1	5
346.883	1	14
347.054	1	3
347.225	1	12
347.396	1	5
347.567	1	7
347.738	1	7
347.909	1	0
348.080	1	-2
348.251	1	5
348.422	1	8
348.593	1	1
348.764	1	-2
348.935	1	7
349.106	1	0
349.277	1	13
349.448	1	13
349.619	1	8
349.790	1	7
349.961	1	1
350.132	1	3
350.303	1	20
350.474	1	3
350.645	1	1
350.816	1	15
350.987	1	7
351.157	1	6
351.328	1	11
351.499	1	8
351.670	1	9
351.841	1	3
352.012	1	10
352.183	1	2
352.354	1	7
352.525	1	3
352.696	1	5
352.867	1	-6
353.038	1	17
353.209	1	13
353.380	1	5
353.551	1	16
353.722	1	9
353.893	1	2
354.064	1	13
354.235	1	4
354.406	1	7
354.576	1	1
354.747	1	13
354.918	1	17
355.089	1	11
355.260	1	16
355.431	1	16
355.602	1	10
355.773	1	9
355.944	1	12
356.115	1	-3
356.286	1	12
356.457	1	11
356.628	1	14
356.799	1	4
356.970	1	7
357.141	1	20
357.311	1	9
357.482	1	0
357.653	1	2
357.824	1	18
357.995	1	22
358.166	1	10
358.337	1	11
358.508	1	8
358.679	1	3
358.850	1	14
359.021	1	13
359.192	1	8
359.363	1	21
359.533	1	11
359.704	1	11
359.875	1	15
360.046	1	8
360.217	1	12
360.388	1	11
360.559	1	12
360.730	1	1
360.901	1	10
361.072	1	6
361.243	1	-1
361.414	1	7
361.584	1	12
361.755	1	20
361.926	1	6
362.097	1	13
362.268	1	16
362.439	1	1
362.610	1	10
362.781	1	5
362.952	1	9
363.123	1	18
363.293	1	6
363.464	1	14
363.635	1	15
363.806	1	19
363.977	1	13
364.148	1	6
364.319	1	7
364.490	1	13
364.661	1	9
364.832	1	13
365.002	1	16
365.173	1	9
365.344	1	16
365.515	1	12
365.686	1	15
365.857	1	5
366.028	1	0
366.199	1	6
366.370	1	17
366.540	1	11
366.711	1	5
366.882	1	9
367.053	1	9
367.224	1	-1
367.395	1	13
367.566	1	12
367.737	1	19
367.908	1	0
368.078	1	20
368.249	1	13
368.420	1	18
368.591	1	13
368.762	1	14
368.933	1	0
369.104	1	18
369.274	1	8
369.445	1	5
369.616	1	11
369.787	1	9
369.958	1	7
370.129	1	18
370.300	1	12
370.471	1	16
370.641	1	17
370.812	1	15
370.983	1	12
371.154	1	17
371.325	1	19
371.496	1	6
371.667	1	16
371.837	1	16
372.008	1	11
372.179	1	9
372.350	1	8
372.521	1	14
372.692	1	16
372.863	1	10
373.033	1	13
373.204	1	16
373.375	1	11
373.546	1	16
373.717	1	9
373.888	1	8
374.059	1	17
374.229	1	15
374.400	1	-1
374.571	1	10
374.742	1	2
374.913	1	4
375.084	1	12
375.254	1	25
375.425	1	-5
375.596	1	7
375.767	1	2
375.938	1	17
376.109	1	4
376.279	1	11
376.450	1	17
376.621	1	14
376.792	1	12
376.963	1	9
377.134	1	20
377.304	1	13
377.475	1	8
377.646	1	6
377.817	1	1
377.988	1	15
378.159	1	4
378.329	1	11
378.500	1	11
378.671	1	18
378.842	1	13
379.013	1	12
379.184	1	21
379.354	1	-2
379.525	1	11
379.696	1	9
379.867	1	12
380.038	1	-7
380.209	1	14
380.379	1	8
380.550	1	12
380.721	1	16
380.892	1	5
381.063	1	19
381.233	1	-1
381.404	1	18
381.575	1	4
381.746	1	16
381.917	1	14
382.087	1	11
382.258	1	17
382.429	1	15
382.600	1	5
382.771	1	23
382.941	1	5
383.112	1	13
383.283	1	10
383.454	1	17
383.625	1	18
383.795	1	20
383.966	1	5
384.137	1	21
384.308	1	8
384.479	1	19
384.649	1	15
384.820	1	8
384.991	1	14
385.162	1	1
385.333	1	23
385.503	1	21
385.674	1	18
385.845	1	20
386.016	1	15
386.187	1	12
386.357	1	17
386.528	1	7
386.699	1	10
386.870	1	16
387.041	1	17
387.211	1	12
387.382	1	10
387.553	1	12
387.724	1	11
387.894	1	4
388.065	1	9
388.236	1	7
388.407	1	18
388.578	1	7
388.748	1	17
388.919	1	23
389.090	1	18
389.261	1	14
389.431	1	19
389.602	1	16
389.773	1	10
389.944	1	10
390.114	1	19
390.285	1	10
390.456	1	14
390.627	1	10
390.798	1	22
390.968	1	14
391.139	1	9
391.310	1	26
391.481	1	1
391.651	1	22
391.822	1	11
391.993	1	17
392.164	1	0
392.334	1	23
392.505	1	0
392.676	1	11
392.847	1	16
393.017	1	12
393.188	1	14
393.359	1	17
393.530	1	22
393.700	1	11
393.871	1	10
394.042	1	5
394.213	1	18
394.383	1	8
394.554	1	8
394.725	1	8
394.896	1	16
395.066	1	14
395.237	1	8
395.408	1	23
395.579	1	7
395.749	1	14
395.920	1	18
396.091	1	12
396.262	1	21
396.432	1	16
396.603	1	8
396.774	1	21
396.945	1	10
397.115	1	14
397.286	1	8
397.457	1	14
397.627	1	18
397.798	1	13
397.969	1	10
398.140	1	16
398.310	1	12
398.481	1	21
398.652	1	28
398.823	1	1
398.993	1	7
399.164	1	11
399.335	1	15
399.505	1	5
399.676	1	12
399.847	1	16
400.018	1	13
400.188	1	12
400.359	1	9
400.530	1	23
400.700	1	20
400.871	1	31
401.042	1	16
401.213	1	9
401.383	1	7
401.554	1	15
401.725	1	21
401.895	1	15
402.066	1	9
402.237	1	24
402.408	1	17
402.578	1	20
402.749	1	16
402.920	1	28
403.090	1	15
403.261	1	18
403.432	1	18
403.603	1	13
403.773	1	22
403.944	1	8
404.115	1	19
404.285	1	8
404.456	1	20
404.627	1	16
404.797	1	10
404.968	1	16
405.139	1	15
405.310	1	20
405.480	1	8
405.651	1	18
405.822	1	21
405.992	1	14
406.163	1	16
406.334	1	8
406.504	1	18
406.675	1	21
406.846	1	17
407.016	1	17
407.187	1	18
407.358	1	20
407.528	1	11
407.699	1	22
407.870	1	6
408.041	1	18
408.211	1	14
408.382	1	13
408.553	1	13
408.723	1	22
408.894	1	12
409.065	1	24
409.235	1	18
409.406	1	6
409.577	1	23
409.747	1	15
409.918	1	1
410.089	1	28
410.259	1	16
410.430	1	20
410.601	1	12
410.771	1	23
410.942	1	26
411.113	1	3
411.283	1	13
411.454	1	17
411.625	1	10
411.795	1	6
411.966	1	18
412.137	1	12
412.307	1	17
412.478	1	24
412.649	1	17
412.819	1	8
412.990	1	14
413.161	1	17
413.331	1	14
413.502	1	19
413.672	1	20
413.843	1	18
414.014	1	19
414.184	1	19
414.355	1	29
414.526	1	26
414.696	1	23
414.867	1	24
415.038	1	2
415.208	1	27
415.379	1	13
415.550	1	27
415.720	1	21
415.891	1	16
416.062	1	13
416.232	1	16
416.403	1	22
416.573	1	15
416.744	1	12
416.915	1	20
417.085	1	18
417.256	1	25
417.427	1	18
417.597	1	4
417.768	1	16
417.939	1	22
418.109	1	12
418.280	1	18
418.450	1	12
418.621	1	19
418.792	1	14
418.962	1	15
419.133	1	17
419.304	1	14
419.474	1	12
419.645	1	14
419.815	1	21
419.986	1	10
420.157	1	6
420.327	1	13
420.498	1	17
420.669	1	23
420.839	1	24
421.010	1	19
421.180	1	17
421.351	1	9
421.522	1	20
421.692	1	25
421.863	1	12
422.033	1	17
422.204	1	16
422.375	1	14
422.545	1	15
422.716	1	11
422.886	1	6
423.057	1	5
423.228	1	4
423.398	1	16
423.569	1	21
423.740	1	6
423.910	1	5
424.081	1	15
424.251	1	8
424.422	1	22
424.593	1	18
424.763	1	14
424.934	1	15
425.104	1	18
425.275	1	12
425.445	1	14
425.616	1	18
425.787	1	12
425.957	1	22
426.128	1	8
426.298	1	12
426.469	1	6
426.640	1	24
426.810	1	7
426.981	1	15
427.151	1	20
427.322	1	13
427.493	1	10
427.663	1	10
427.834	1	16
428.004	1	7
428.175	1	15
428.345	1	11
428.516	1	15
428.687	1	13
428.857	1	11
429.028	1	17
429.198	1	10
429.369	1	10
429.540	1	21
429.710	1	12
429.881	1	10
430.051	1	11
430.222	1	8
430.392	1	16
430.563	1	15
430.734	1	17
430.904	1	20
431.075	1	11
431.245	1	21
431.416	1	17
431.586	1	6
431.757	1	11
431.927	1	12
432.098	1	3
432.269	1	14
432.439	1	13
432.610	1	21
432.780	1	8
432.951	1	11
433.121	1	8
433.292	1	13
433.462	1	11
433.633	1	9
433.804	1	24
433.974	1	0
434.145	1	12
434.315	1	12
434.486	1	18
434.656	1	17
434.827	1	21
434.997	1	21
435.168	1	15
435.339	1	11
435.509	1	14
435.680	1	12
435.850	1	13
436.021	1	15
436.191	1	16
436.362	1	14
436.532	1	28
436.703	1	7
436.873	1	18
437.044	1	11
437.214	1	23
437.385	1	15
437.556	1	15
437.726	1	18
437.897	1	-1
438.067	1	6
438.238	1	3
438.408	1	7
438.579	1	20
438.749	1	14
438.920	1	9
439.090	1	12
439.261	1	4
439.431	1	15
439.602	1	16
439.772	1	11
439.943	1	19
440.113	1	11
440.284	1	9
440.455	1	16
440.625	1	29
440.796	1	10
440.966	1	8
441.137	1	15
441.307	1	15
441.478	1	15
441.648	1	4
441.819	1	20
441.989	1	10
442.160	1	4
442.330	1	14
442.501	1	17
442.671	1	15
442.842	1	5
443.012	1	26
443.183	1	12
443.353	1	12
443.524	1	11
443.694	1	7
443.865	1	18
444.035	1	13
444.206	1	17
444.376	1	11
444.547	1	11
444.717	1	9
444.888	1	12
445.058	1	21
445.229	1	15
445.399	1	23
445.570	1	14
445.740	1	16
445.911	1	-10
446.081	1	13
446.252	1	10
446.422	1	18
446.593	1	5
446.763	1	26
446.934	1	15
447.104	1	9
447.275	1	9
447.445	1	8
447.616	1	10
447.786	1	16
447.957	1	11
448.127	1	4
448.298	1	4
448.468	1	8
448.639	1	12
448.809	1	21
448.979	1	-3
449.150	1	15
449.320	1	9
449.491	1	15
449.661	1	13
449.832	1	6
450.002	1	6
450.173	1	8
450.343	1	29
450.514	1	5
450.684	1	9
450.855	1	20
451.025	1	12
451.196	1	-4
451.366	1	13
451.537	1	12
451.707	1	12
451.878	1	6
452.048	1	19
452.218	1	12
452.389	1	11
452.559	1	15
452.730	1	11
452.900	1	10
453.071	1	0
453.241	1	3
453.412	1	8
453.582	1	19
453.753	1	1
453.923	1	12
454.093	1	16
454.264	1	14
454.434	1	15
454.605	1	10
454.775	1	3
454.946	1	16
455.116	1	5
455.287	1	13
455.457	1	16
455.628	1	13
455.798	1	14
455.968	1	8
456.139	1	12
456.309	1	27
456.480	1	10
456.650	1	7
456.821	1	14
456.991	1	6
457.161	1	9
457.332	1	16
457.502	1	17
457.673	1	20
457.843	1	6
458.014	1	20
458.184	1	17
458.355	1	10
458.525	1	12
458.695	1	4
458.866	1	20
459.036	1	5
459.207	1	8
459.377	1	13
459.548	1	22
459.718	1	5
459.888	1	8
460.059	1	12
460.229	1	12
460.400	1	13
460.570	1	18
460.740	1	15
460.911	1	17
461.081	1	7
461.252	1	0
461.422	1	9
461.593	1	14
461.763	1	14
461.933	1	9
462.104	1	23
462.274	1	8
462.445	1	5
462.615	1	9
462.785	1	14
462.956	1	11
463.126	1	1
463.297	1	17
463.467	1	17
463.638	1	7
463.808	1	12
463.978	1	11
464.149	1	9
464.319	1	1
464.490	1	8
464.660	1	16
464.830	1	6
465.001	1	-2
465.171	1	15
465.342	1	1
465.512	1	18
465.682	1	22
465.853	1	19
466.023	1	26
466.194	1	0
466.364	1	14
466.534	1	7
466.705	1	3
466.875	1	19
467.045	1	17
467.216	1	7
467.386	1	11
467.557	1	15
467.727	1	11
467.897	1	19
468.068	1	7
468.238	1	3
468.409	1	12
468.579	1	12
468.749	1	13
468.920	1	16
469.090	1	4
469.260	1	19
469.431	1	7
469.601	1	14
469.772	1	4
469.942	1	10
470.112	1	7
470.283	1	9
470.453	1	12
470.623	1	21
470.794	1	10
470.964	1	14
471.135	1	11
471.305	1	10
471.475	1	5
471.646	1	16
471.816	1	9
471.986	1	6
472.157	1	3
472.327	1	2
472.497	1	4
472.668	1	14
472.838	1	9
473.009	1	10
473.179	1	12
473.349	1	9
473.520	1	1
473.690	1	10
473.860	1	7
474.031	1	3
474.201	1	8
474.371	1	12
474.542	1	19
474.712	1	1
474.882	1	11
475.053	1	0
475.223	1	4
475.394	1	-8
475.564	1	6
475.734	1	9
475.905	1	8
476.075	1	3
476.245	1	22
476.416	1	-2
476.586	1	6
476.756	1	3
476.927	1	16
477.097	1	14
477.267	1	-1
477.438	1	6
477.608	1	10
477.778	1	15
477.949	1	14
478.119	1	2
478.289	1	6
478.460	1	14
478.630	1	16
478.800	1	20
478.971	1	-1
479.141	1	11
479.311	1	6
479.482	1	-10
479.652	1	16
479.822	1	4
479.993	1	15
480.163	1	11
480.333	1	20
480.504	1	14
480.674	1	1
480.844	1	2
481.015	1	11
481.185	1	9
481.355	1	-2
481.525	1	-6
481.696	1	4
481.866	1	8
482.036	1	5
482.207	1	8
482.377	1	3
482.547	1	6
482.718	1	1
482.888	1	0
483.058	1	19
483.229	1	18
483.399	1	10
483.569	1	0
483.740	1	14
483.910	1	9
484.080	1	18
484.250	1	1
484.421	1	8
484.591	1	3
484.761	1	1
484.932	1	10
485.102	1	4
485.272	1	9
485.443	1	8
485.613	1	14
485.783	1	-1
485.953	1	-3
486.124	1	9
486.294	1	11
486.464	1	4
486.635	1	-4
486.805	1	10
486.975	1	12
487.146	1	9
487.316	1	-2
487.486	1	-3
487.656	1	18
487.827	1	6
487.997	1	16
488.167	1	10
488.338	1	17
488.508	1	8
488.678	1	11
488.848	1	9
489.019	1	-2
489.189	1	-4
489.359	1	0
489.529	1	5
489.700	1	7
489.870	1	8
490.040	1	-13
490.211	1	13
490.381	1	22
490.551	1	0
490.721	1	9
490.892	1	22
491.062	1	2
491.232	1	10
491.402	1	-4
491.573	1	17
491.743	1	-6
491.913	1	9
492.084	1	11
492.254	1	27
492.424	1	-5
492.594	1	-9
492.765	1	6
492.935	1	0
493.105	1	-6
493.275	1	13
493.446	1	8
493.616	1	-2
493.786	1	1
493.956	1	12
494.127	1	9
494.297	1	8
494.467	1	0
494.637	1	10
494.808	1	-2
494.978	1	2
495.148	1	15
495.318	1	16
495.489	1	11
495.659	1	4
495.829	1	13
495.999	1	1
496.170	1	4
496.340	1	2
496.510	1	20
496.680	1	8
496.851	1	12
497.021	1	12
497.191	1	7
497.361	1	14
497.532	1	12
497.702	1	0
497.872	1	9
498.042	1	21
498.213	1	2
498.383	1	5
498.553	1	14
498.723	1	4
498.894	1	15
499.064	1	-5
499.234	1	16
499.404	1	6
499.574	1	13
499.745	1	-1
499.915	1	2
500.085	1	-5
500.255	1	-7
500.426	1	7
500.596	1	12
500.766	1	5
500.936	1	11
501.106	1	9
501.277	1	18
501.447	1	4
501.617	1	14
501.787	1	15
501.958	1	3
502.128	1	5
502.298	1	12
502.468	1	8
502.638	1	19
502.809	1	14
502.979	1	7
503.149	1	7
503.319	1	0
503.489	1	4
503.660	1	6
503.830	1	8
504.000	1	5
504.170	1	-2
504.340	1	-2
504.511	1	10
504.681	1	-7
504.851	1	9
505.021	1	10
505.192	1	11
505.362	1	3
505.532	1	6
505.702	1	11
505.872	1	14
506.043	1	-8
506.213	1	5
506.383	1	-5
506.553	1	11
506.723	1	-2
506.893	1	4
507.064	1	14
507.234	1	1
507.404	1	9
507.574	1	5
507.744	1	-6
507.915	1	6
508.085	1	8
508.255	1	-1
508.425	1	0
508.595	1	-3
508.766	1	6
508.936	1	4
509.106	1	0
509.276	1	11
509.446	1	2
509.616	1	13
509.787	1	-2
509.957	1	2
510.127	1	5
510.297	1	14
510.467	1	6
510.638	1	-1
510.808	1	7
510.978	1	3
511.148	1	4
511.318	1	6
511.488	1	2
511.659	1	-3
511.829	1	-1
511.999	1	3
512.169	1	4
512.339	1	10
512.509	1	8
512.680	1	-1
512.850	1	5
513.020	1	14
513.190	1	1
513.360	1	-2
513.530	1	10
513.700	1	6
513.871	1	6
514.041	1	0
514.211	1	12
514.381	1	-1
514.551	1	-4
514.721	1	9
514.892	1	2
515.062	1	-4
515.232	1	1
515.402	1	16
515.572	1	15
515.742	1	2
515.912	1	7
516.083	1	12
516.253	1	3
516.423	1	1
516.593	1	5
516.763	1	4
516.933	1	10
517.104	1	3
517.274	1	4
517.444	1	1
517.614	1	-1
517.784	1	2
517.954	1	9
518.124	1	-5
518.294	1	11
518.465	1	4
518.635	1	-1
518.805	1	0
518.975	1	13
519.145	1	9
519.315	1	15
519.485	1	-1
519.656	1	11
519.826	1	5
519.996	1	9
520.166	1	10
520.336	1	12
520.506	1	9
520.676	1	0
520.846	1	3
521.017	1	-2
521.187	1	2
521.357	1	1
521.527	1	0
521.697	1	8
521.867	1	2
522.037	1	6
522.207	1	-4
522.377	1	-7
522.548	1	9
522.718	1	9
522.888	1	-10
523.058	1	-1
523.228	1	3
523.398	1	5
523.568	1	-3
523.738	1	1
523.909	1	-4
524.079	1	13
524.249	1	3
524.419	1	-6
524.589	1	13
524.759	1	4
524.929	1	3
525.099	1	7
525.269	1	3
525.439	1	0
525.610	1	2
525.780	1	9
525.950	1	6
526.120	1	7
526.290	1	2
526.460	1	9
526.630	1	1
526.800	1	-3
526.970	1	4
527.140	1	5
527.311	1	9
527.481	1	-4
527.651	1	6
527.821	1	3
527.991	1	10
528.161	1	-2
528.331	1	-2
528.501	1	7
528.671	1	8
528.841	1	12
529.011	1	-2
529.181	1	4
529.352	1	-1
529.522	1	-3
529.692	1	4
529.862	1	8
530.032	1	2
530.202	1	8
530.372	1	11
530.542	1	0
530.712	1	-3
530.882	1	-2
531.052	1	-2
531.222	1	7
531.392	1	4
531.563	1	2
531.733	1	13
531.903	1	1
532.073	1	-3
532.243	1	3
532.413	1	8
532.583	1	7
532.753	1	6
532.923	1	5
533.093	1	-6
533.263	1	2
533.433	1	10
533.603	1	3
533.773	1	9
533.943	1	1
534.113	1	5
534.284	1	5
534.454	1	2
534.624	1	-2
534.794	1	6
534.964	1	11
535.134	1	3
535.304	1	10
535.474	1	-3
535.644	1	11
535.814	1	0
535.984	1	1
536.154	1	11
536.324	1	1
536.494	1	10
536.664	1	-3
536.834	1	6
537.004	1	-12
537.174	1	2
537.344	1	10
537.514	1	-1
537.685	1	10
537.855	1	2
538.025	1	10
538.195	1	-4
538.365	1	9
538.535	1	-1
538.705	1	1
538.875	1	7
539.045	1	0
539.215	1	15
539.385	1	-6
539.555	1	-1
539.725	1	11
539.895	1	12
540.065	1	4
540.235	1	-2
540.405	1	14
540.575	1	4
540.745	1	4
540.915	1	7
541.085	1	8
541.255	1	1
541.425	1	-4
541.595	1	-7
541.765	1	4
541.935	1	-1
542.105	1	-1
542.275	1	4
542.445	1	4
542.615	1	10
542.785	1	15
542.955	1	5
543.125	1	-6
543.295	1	7
543.465	1	0
543.635	1	-8
543.805	1	2
543.975	1	-2
544.145	1	9
544.315	1	-7
544.485	1	6
544.655	1	11
544.825	1	9
544.995	1	10
545.165	1	9
545.335	1	-5
545.505	1	2
545.675	1	-2
545.845	1	-5
546.015	1	9
546.185	1	-10
546.355	1	-1
546.525	1	-2
546.695	1	1
546.865	1	-5
547.035	1	9
547.205	1	7
547.375	1	16
547.545	1	-10
547.715	1	5
547.885	1	0
548.055	1	11
548.225	1	1
548.395	1	12
548.565	1	1
548.735	1	13
548.905	1	0
549.075	1	4
549.245	1	0
549.415	1	-1
549.585	1	8
549.755	1	10
549.925	1	9
550.095	1	2
550.265	1	-6
550.435	1	-6
550.605	1	-1
550.775	1	11
550.945	1	-7
551.115	1	4
551.285	1	-5
551.455	1	1
551.625	1	6
551.795	1	2
551.965	1	-3
552.135	1	-1
552.305	1	6
552.475	1	11
552.645	1	17
552.815	1	8
552.985	1	-4
553.155	1	3
553.325	1	4
553.495	1	6
553.665	1	10
553.835	1	2
554.004	1	-3
554.174	1	-11
554.344	1	2
554.514	1	8
554.684	1	-4
554.854	1	-4
555.024	1	4
555.194	1	8
555.364	1	0
555.534	1	5
555.704	1	3
555.874	1	12
556.044	1	5
556.214	1	-12
556.384	1	6
556.554	1	3
556.724	1	-5
556.894	1	7
557.064	1	1
557.234	1	-2
557.404	1	5
557.573	1	-3
557.743	1	-3
557.913	1	2
558.083	1	-4
558.253	1	5
558.423	1	3
558.593	1	-4
558.763	1	-1
558.933	1	7
559.103	1	-6
559.273	1	7
559.443	1	-1
559.613	1	6
559.783	1	7
559.953	1	0
560.122	1	-3
560.292	1	4
560.462	1	1
560.632	1	4
560.802	1	6
560.972	1	3
561.142	1	3
561.312	1	6
561.482	1	5
561.652	1	8
561.822	1	-1
561.992	1	-3
562.162	1	-7
562.331	1	-13
562.501	1	-6
562.671	1	7
562.841	1	2
563.011	1	17
563.181	1	14
563.351	1	-2
563.521	1	0
563.691	1	-6
563.861	1	14
564.031	1	0
564.201	1	4
564.370	1	9
564.540	1	11
564.710	1	1
564.880	1	7
565.050	1	3
565.220	1	-16
565.390	1	9
565.560	1	9
565.730	1	1
565.900	1	-8
566.069	1	7
566.239	1	-6
566.409	1	-1
566.579	1	11
566.749	1	8
566.919	1	-4
567.089	1	-1
567.259	1	8
567.429	1	-5
567.599	1	-9
567.768	1	-5
567.938	1	-12
568.108	1	6
568.278	1	9
568.448	1	17
568.618	1	8
568.788	1	7
568.958	1	12
569.128	1	2
569.297	1	-4
569.467	1	2
569.637	1	0
569.807	1	6
569.977	1	-3
570.147	1	-3
570.317	1	12
570.487	1	-8
570.656	1	2
570.826	1	13
570.996	1	-5
571.166	1	8
571.336	1	7
571.506	1	5
571.676	1	12
571.846	1	-11
572.015	1	5
572.185	1	4
572.355	1	2
572.525	1	-1
572.695	1	3
572.865	1	-6
573.035	1	0
573.205	1	-7
573.374	1	4
573.544	1	2
573.714	1	5
573.884	1	3
574.054	1	4
574.224	1	8
574.394	1	-11
574.563	1	6
574.733	1	4
574.903	1	2
575.073	1	3
575.243	1	-3
575.413	1	5
575.583	1	-4
575.752	1	-1
575.922	1	-2
576.092	1	5
576.262	1	-1
576.432	1	8
576.602	1	5
576.772	1	-10
576.941	1	10
577.111	1	4
577.281	1	18
577.451	1	11
577.621	1	-1
577.791	1	-9
577.960	1	6
578.130	1	-11
578.300	1	8
578.470	1	0
578.640	1	1
578.810	1	-7
578.979	1	7
579.149	1	1
579.319	1	-7
579.489	1	-3
579.659	1	-8
579.829	1	-9
579.998	1	1
580.168	1	-7
580.338	1	5
580.508	1	1
580.678	1	-5
580.848	1	-3
581.017	1	17
581.187	1	0
581.357	1	-8
581.527	1	1
581.697	1	4
581.867	1	8
582.036	1	-1
582.206	1	7
582.376	1	2
582.546	1	-5
582.716	1	-1
582.885	1	-6
583.055	1	11
583.225	1	-3
583.395	1	6
583.565	1	7
583.735	1	5
583.904	1	-5
584.074	1	7
584.244	1	-5
584.414	1	5
584.584	1	3
584.753	1	7
584.923	1	3
585.093	1	2
585.263	1	11
585.433	1	3
585.602	1	-3
585.772	1	3
585.942	1	-2
586.112	1	5
586.282	1	4
586.451	1	-5
586.621	1	-1
586.791	1	7
586.961	1	8
587.131	1	4
587.300	1	-8
587.470	1	-4
587.640	1	0
587.810	1	-8
587.980	1	6
588.149	1	4
588.319	1	11
588.489	1	13
588.659	1	0
588.829	1	0
588.998	1	5
589.168	1	3
589.338	1	8
589.508	1	8
589.677	1	-6
589.847	1	10
590.017	1	-6
590.187	1	-4
590.357	1	1
590.526	1	12
590.696	1	1
590.866	1	2
591.036	1	1
591.205	1	-6
591.375	1	-1
591.545	1	6
591.715	1	6
591.885	1	7
592.054	1	6
592.224	1	6
592.394	1	4
592.564	1	-6
592.733	1	2
592.903	1	-5
593.073	1	4
593.243	1	12
593.412	1	-17
593.582	1	8
593.752	1	10
593.922	1	-1
594.091	1	9
594.261	1	-2
594.431	1	7
594.601	1	-4
594.771	1	-7
594.940	1	0
595.110	1	6
595.280	1	1
595.450	1	2
595.619	1	1
595.789	1	-3
595.959	1	-2
596.129	1	9
596.298	1	10
596.468	1	11
596.638	1	-1
596.808	1	7
596.977	1	3
597.147	1	13
597.317	1	8
597.487	1	-4
597.656	1	1
597.826	1	2
597.996	1	11
598.166	1	9
598.335	1	10
598.505	1	3
598.675	1	-2
598.844	1	3
599.014	1	0
599.184	1	15
599.354	1	0
599.523	1	2
599.693	1	9
599.863	1	5
600.033	1	-2
600.202	1	-9
600.372	1	-5
600.542	1	0
600.712	1	9
600.881	1	2
601.051	1	-1
601.221	1	6
601.390	1	8
601.560	1	0
601.730	1	7
601.900	1	7
602.069	1	4
602.239	1	-12
602.409	1	10
602.578	1	-4
602.748	1	8
602.918	1	-3
603.088	1	-3
603.257	1	6
603.427	1	-2
603.597	1	-4
603.767	1	0
603.936	1	8
604.106	1	-1
604.276	1	3
604.445	1	-2
604.615	1	-1
604.785	1	-3
604.954	1	9
605.124	1	-5
605.294	1	10
605.464	1	14
605.633	1	13
605.803	1	2
605.973	1	3
606.142	1	12
606.312	1	0
606.482	1	0
606.652	1	11
606.821	1	10
606.991	1	8
607.161	1	18
607.330	1	3
607.500	1	-2
607.670	1	-3
607.839	1	1
608.009	1	-11
608.179	1	-1
608.348	1	15
608.518	1	8
608.688	1	7
608.858	1	-2
609.027	1	7
609.197	1	13
609.367	1	9
609.536	1	-1
609.706	1	-1
609.876	1	-4
610.045	1	2
610.215	1	5
610.385	1	7
610.554	1	1
610.724	1	15
610.894	1	13
611.063	1	-13
611.233	1	8
611.403	1	4
611.572	1	3
611.742	1	-3
611.912	1	2
612.081	1	12
612.251	1	8
612.421	1	6
612.590	1	-4
612.760	1	7
612.930	1	-2
613.099	1	5
613.269	1	9
613.439	1	2
613.608	1	7
613.778	1	0
613.948	1	14
614.117	1	8
614.287	1	6
614.457	1	-3
614.626	1	-3
614.796	1	-5
614.966	1	-2
615.135	1	1
615.305	1	6
615.475	1	3
615.644	1	6
615.814	1	2
615.984	1	2
616.153	1	-6
616.323	1	-5
616.493	1	4
616.662	1	6
616.832	1	1
617.002	1	8
617.171	1	-5
617.341	1	11
617.511	1	8
617.680	1	2
617.850	1	-4
618.019	1	13
618.189	1	9
618.359	1	12
618.528	1	10
618.698	1	-1
618.868	1	15
619.037	1	-8
619.207	1	7
619.377	1	8
619.546	1	-4
619.716	1	4
619.885	1	16
620.055	1	-3
620.225	1	12
620.394	1	-1
620.564	1	9
620.734	1	-1
620.903	1	3
621.073	1	8
621.242	1	0
621.412	1	1
621.582	1	0
621.751	1	-3
621.921	1	10
622.091	1	3
622.260	1	3
622.430	1	7
622.599	1	10
622.769	1	1
622.939	1	11
623.108	1	8
623.278	1	11
623.448	1	-1
623.617	1	7
623.787	1	1
623.956	1	-1
624.126	1	10
624.296	1	-1
624.465	1	-4
624.635	1	6
624.804	1	10
624.974	1	11
625.144	1	7
625.313	1	-4
625.483	1	-1
625.652	1	3
625.822	1	3
625.992	1	2
626.161	1	-6
626.331	1	3
626.501	1	5
626.670	1	8
626.840	1	1
627.009	1	1
627.179	1	2
627.348	1	7
627.518	1	13
627.688	1	1
627.857	1	5
628.027	1	2
628.196	1	2
628.366	1	1
628.536	1	-4
628.705	1	-3
628.875	1	2
629.044	1	1
629.214	1	3
629.384	1	7
629.553	1	4
629.723	1	11
629.892	1	0
630.062	1	1
630.232	1	-3
630.401	1	2
630.571	1	-7
630.740	1	2
630.910	1	1
631.079	1	6
631.249	1	-5
631.419	1	2
631.588	1	-7
631.758	1	3
631.927	1	-1
632.097	1	2
632.266	1	5
632.436	1	-3
632.606	1	7
632.775	1	12
632.945	1	6
633.114	1	-9
633.284	1	-4
633.453	1	1
633.623	1	11
633.793	1	2
633.962	1	1
634.132	1	4
634.301	1	8
634.471	1	6
634.640	1	11
634.810	1	12
634.979	1	11
635.149	1	11
635.319	1	4
635.488	1	-3
635.658	1	-8
635.827	1	4
635.997	1	0
636.166	1	11
636.336	1	0
636.505	1	10
636.675	1	-8
636.845	1	12
637.014	1	2
637.184	1	1
637.353	1	0
637.523	1	9
637.692	1	14
637.862	1	-10
638.031	1	6
638.201	1	5
638.370	1	5
638.540	1	-1
638.710	1	8
638.879	1	-5
639.049	1	7
639.218	1	0
639.388	1	20
639.557	1	3
639.727	1	5
639.896	1	-4
640.066	1	11
640.235	1	-4
640.405	1	7
640.574	1	8
640.744	1	4
640.914	1	5
641.083	1	-5
641.253	1	1
641.422	1	12
641.592	1	0
641.761	1	8
641.931	1	0
642.100	1	15
642.270	1	2
642.439	1	9
642.609	1	2
642.778	1	9
642.948	1	0
643.117	1	7
643.287	1	-5
643.456	1	2
643.626	1	6
643.795	1	4
643.965	1	1
644.134	1	6
644.304	1	6
644.473	1	-8
644.643	1	2
644.812	1	2
644.982	1	2
645.151	1	-2
645.321	1	-5
645.490	1	13
645.660	1	2
645.829	1	1
645.999	1	13
646.168	1	8
646.338	1	-7
646.507	1	-6
646.677	1	11
646.846	1	7
647.016	1	8
647.185	1	9
647.355	1	2
647.524	1	4
647.694	1	4
647.863	1	1
648.033	1	1
648.202	1	-2
648.372	1	5
648.541	1	5
648.711	1	10
648.880	1	1
649.050	1	4
649.219	1	-7
649.389	1	5
649.558	1	2
649.728	1	-2
649.897	1	4
650.067	1	-3
650.236	1	9
650.406	1	-7
650.575	1	-1
650.745	1	3
650.914	1	6
651.084	1	-9
651.253	1	-3
651.423	1	-3
651.592	1	14
651.762	1	7
651.931	1	2
652.101	1	6
652.270	1	-1
652.440	1	4
652.609	1	10
652.778	1	13
652.948	1	3
653.117	1	20
653.287	1	13
653.456	1	5
653.626	1	8
653.795	1	5
653.965	1	8
654.134	1	8
654.304	1	1
654.473	1	14
654.643	1	9
654.812	1	13
654.982	1	4
655.151	1	15
655.320	1	2
655.490	1	2
655.659	1	11
655.829	1	-3
655.998	1	6
656.168	1	-1
656.337	1	5
656.507	1	4
656.676	1	0
656.846	1	-2
657.015	1	9
657.184	1	-6
657.354	1	2
657.523	1	2
657.693	1	1
657.862	1	6
658.032	1	-3
658.201	1	-1
658.371	1	9
658.540	1	18
658.709	1	11
658.879	1	-9
659.048	1	1
659.218	1	-3
659.387	1	5
659.557	1	5
659.726	1	19
659.895	1	0
660.065	1	0
660.234	1	6
660.404	1	16
660.573	1	8
660.743	1	8
660.912	1	9
661.081	1	0
661.251	1	6
661.420	1	7
661.590	1	12
661.759	1	1
661.929	1	14
662.098	1	-1
662.267	1	5
662.437	1	4
662.606	1	-4
662.776	1	15
662.945	1	9
663.115	1	-10
663.284	1	5
663.453	1	9
663.623	1	3
663.792	1	-2
663.962	1	1
664.131	1	2
664.300	1	1
664.470	1	-8
664.639	1	6
664.809	1	8
664.978	1	4
665.148	1	11
665.317	1	9
665.486	1	-1
665.656	1	2
665.825	1	-3
665.995	1	8
666.164	1	19
666.333	1	9
666.503	1	21
666.672	1	6
666.842	1	-6
667.011	1	5
667.180	1	0
667.350	1	18
667.519	1	-10
667.689	1	16
667.858	1	16
668.027	1	9
668.197	1	18
668.366	1	14
668.536	1	0
668.705	1	4
668.874	1	8
669.044	1	1
669.213	1	1
669.382	1	8
669.552	1	3
669.721	1	5
669.891	1	3
670.060	1	5
670.229	1	-7
670.399	1	13
670.568	1	15
670.738	1	3
670.907	1	-1
671.076	1	9
671.246	1	-6
671.415	1	8
671.584	1	0
671.754	1	8
671.923	1	7
672.093	1	4
672.262	1	4
672.431	1	9
672.601	1	-1
672.770	1	-3
672.939	1	0
673.109	1	5
673.278	1	10
673.448	1	3
673.617	1	4
673.786	1	-1
