325.333	1	10
325.504	1	15
325.675	1	4
325.846	1	2
326.017	1	7
326.188	1	-5
326.359	1	5
326.531	1	-5
326.702	1	10
326.873	1	9
327.044	1	5
327.215	1	3
327.386	1	5
327.557	1	14
327.728	1	-7
327.899	1	4
328.070	1	9
328.241	1	20
328.412	1	12
328.583	1	16
328.754	1	1
328.926	1	7
329.097	1	6
329.268	1	-1
329.439	1	8
329.610	1	17
329.781	1	7
329.952	1	13
330.123	1	1
330.294	1	11
330.465	1	21
330.636	1	0
330.807	1	3
330.978	1	13
331.149	1	2
331.320	1	10
331.492	1	19
331.663	1	10
331.834	1	12
332.005	1	3
332.176	1	10
332.347	1	13
332.518	1	4
332.689	1	15
332.860	1	8
333.031	1	13
333.202	1	14
333.373	1	13
333.544	1	9
333.715	1	11
333.886	1	16
334.057	1	4
334.228	1	15
334.399	1	13
334.570	1	16
334.741	1	11
334.912	1	14
335.084	1	12
335.255	1	-3
335.426	1	11
335.597	1	14
335.768	1	5
335.939	1	0
336.110	1	7
336.281	1	3
336.452	1	14
336.623	1	8
336.794	1	-1
336.965	1	9
337.136	1	8
337.307	1	5
337.478	1	11
337.649	1	5
337.820	1	0
337.991	1	17
338.162	1	18
338.333	1	5
338.504	1	2
338.675	1	1
338.846	1	12
339.017	1	13
339.188	1	17
339.359	1	17
339.530	1	8
339.701	1	11
339.872	1	2
340.043	1	20
340.214	1	12
340.385	1	9
340.556	1	8
340.727	1	8
340.898	1	3
341.069	1	17
341.240	1	22
341.411	1	20
341.582	1	17
341.753	1	11
341.924	1	15
342.095	1	12
342.266	1	4
342.437	1	14
342.608	1	6
342.779	1	17
342.950	1	10
343.121	1	16
343.292	1	19
343.463	1	13
343.634	1	14
343.805	1	0
343.976	1	9
344.147	1	16
344.318	1	12
344.489	1	12
344.660	1	18
344.831	1	12
345.002	1	10
345.173	1	11
345.344	1	8
345.515	1	21
345.686	1	3
345.857	1	22
346.028	1	15
346.199	1	19
346.370	1	8
346.541	1	29
346.712	1	4
346.883	1	11
347.054	1	9
347.225	1	6
347.396	1	12
347.567	1	18
347.738	1	13
347.909	1	21
348.080	1	15
348.251	1	15
348.422	1	21
348.593	1	19
348.764	1	2
348.935	1	3
349.106	1	12
349.277	1	19
349.448	1	18
349.619	1	22
349.790	1	18
349.961	1	21
350.132	1	15
350.303	1	24
350.474	1	24
350.645	1	3
350.816	1	19
350.987	1	3
351.157	1	13
351.328	1	18
351.499	1	12
351.670	1	23
351.841	1	0
352.012	1	18
352.183	1	14
352.354	1	24
352.525	1	3
352.696	1	4
352.867	1	5
353.038	1	18
353.209	1	26
353.380	1	27
353.551	1	17
353.722	1	18
353.893	1	12
354.064	1	19
354.235	1	11
354.406	1	8
354.576	1	14
354.747	1	18
354.918	1	17
355.089	1	23
355.260	1	15
355.431	1	20
355.602	1	18
355.773	1	13
355.944	1	14
356.115	1	12
356.286	1	20
356.457	1	12
356.628	1	20
356.799	1	10
356.970	1	12
357.141	1	30
357.311	1	24
357.482	1	29
357.653	1	21
357.824	1	28
357.995	1	25
358.166	1	10
358.337	1	18
358.508	1	11
358.679	1	12
358.850	1	20
359.021	1	12
359.192	1	19
359.363	1	17
359.533	1	20
359.704	1	31
359.875	1	25
360.046	1	15
360.217	1	29
360.388	1	18
360.559	1	18
360.730	1	22
360.901	1	20
361.072	1	24
361.243	1	12
361.414	1	17
361.584	1	20
361.755	1	28
361.926	1	10
362.097	1	19
362.268	1	18
362.439	1	21
362.610	1	22
362.781	1	21
362.952	1	27
363.123	1	24
363.293	1	16
363.464	1	22
363.635	1	27
363.806	1	31
363.977	1	7
364.148	1	4
364.319	1	33
364.490	1	25
364.661	1	22
364.832	1	36
365.002	1	31
365.173	1	30
365.344	1	19
365.515	1	16
365.686	1	25
365.857	1	22
366.028	1	20
366.199	1	22
366.370	1	28
366.540	1	23
366.711	1	20
366.882	1	15
367.053	1	17
367.224	1	22
367.395	1	17
367.566	1	25
367.737	1	25
367.908	1	23
368.078	1	40
368.249	1	15
368.420	1	18
368.591	1	29
368.762	1	21
368.933	1	8
369.104	1	29
369.274	1	14
369.445	1	27
369.616	1	35
369.787	1	21
369.958	1	29
370.129	1	33
370.300	1	25
370.471	1	26
370.641	1	29
370.812	1	19
370.983	1	24
371.154	1	33
371.325	1	25
371.496	1	19
371.667	1	29
371.837	1	25
372.008	1	26
372.179	1	18
372.350	1	27
372.521	1	27
372.692	1	19
372.863	1	23
373.033	1	30
373.204	1	20
373.375	1	18
373.546	1	26
373.717	1	17
373.888	1	15
374.059	1	32
374.229	1	28
374.400	1	15
374.571	1	33
374.742	1	32
374.913	1	12
375.084	1	30
375.254	1	38
375.425	1	20
375.596	1	24
375.767	1	32
375.938	1	21
376.109	1	4
376.279	1	24
376.450	1	24
376.621	1	34
376.792	1	24
376.963	1	31
377.134	1	31
377.304	1	27
377.475	1	32
377.646	1	23
377.817	1	17
377.988	1	27
378.159	1	20
378.329	1	20
378.500	1	29
378.671	1	30
378.842	1	18
379.013	1	34
379.184	1	30
379.354	1	23
379.525	1	30
379.696	1	15
379.867	1	27
380.038	1	16
380.209	1	26
380.379	1	20
380.550	1	31
380.721	1	34
380.892	1	23
381.063	1	31
381.233	1	19
381.404	1	30
381.575	1	31
381.746	1	30
381.917	1	27
382.087	1	25
382.258	1	32
382.429	1	32
382.600	1	18
382.771	1	33
382.941	1	44
383.112	1	23
383.283	1	46
383.454	1	33
383.625	1	31
383.795	1	29
383.966	1	30
384.137	1	33
384.308	1	22
384.479	1	38
384.649	1	36
384.820	1	17
384.991	1	35
385.162	1	28
385.333	1	33
385.503	1	28
385.674	1	13
385.845	1	42
386.016	1	19
386.187	1	20
386.357	1	34
386.528	1	26
386.699	1	20
386.870	1	37
387.041	1	33
387.211	1	30
387.382	1	30
387.553	1	33
387.724	1	24
387.894	1	28
388.065	1	31
388.236	1	28
388.407	1	42
388.578	1	26
388.748	1	30
388.919	1	34
389.090	1	41
389.261	1	45
389.431	1	25
389.602	1	36
389.773	1	42
389.944	1	24
390.114	1	41
390.285	1	31
390.456	1	19
390.627	1	32
390.798	1	40
390.968	1	29
391.139	1	38
391.310	1	32
391.481	1	22
391.651	1	29
391.822	1	34
391.993	1	34
392.164	1	23
392.334	1	32
392.505	1	27
392.676	1	35
392.847	1	25
393.017	1	37
393.188	1	28
393.359	1	32
393.530	1	47
393.700	1	46
393.871	1	34
394.042	1	31
394.213	1	37
394.383	1	35
394.554	1	24
394.725	1	30
394.896	1	29
395.066	1	31
395.237	1	35
395.408	1	33
395.579	1	37
395.749	1	38
395.920	1	32
396.091	1	30
396.262	1	36
396.432	1	23
396.603	1	23
396.774	1	31
396.945	1	34
397.115	1	31
397.286	1	36
397.457	1	35
397.627	1	30
397.798	1	34
397.969	1	36
398.140	1	40
398.310	1	34
398.481	1	27
398.652	1	51
398.823	1	35
398.993	1	42
399.164	1	36
399.335	1	31
399.505	1	36
399.676	1	30
399.847	1	36
400.018	1	28
400.188	1	43
400.359	1	35
400.530	1	35
400.700	1	34
400.871	1	48
401.042	1	34
401.213	1	19
401.383	1	30
401.554	1	38
401.725	1	45
401.895	1	36
402.066	1	31
402.237	1	39
402.408	1	43
402.578	1	33
402.749	1	30
402.920	1	35
403.090	1	38
403.261	1	40
403.432	1	35
403.603	1	37
403.773	1	48
403.944	1	34
404.115	1	41
404.285	1	32
404.456	1	32
404.627	1	29
404.797	1	28
404.968	1	36
405.139	1	41
405.310	1	33
405.480	1	26
405.651	1	50
405.822	1	43
405.992	1	36
406.163	1	38
406.334	1	35
406.504	1	27
406.675	1	38
406.846	1	40
407.016	1	39
407.187	1	46
407.358	1	38
407.528	1	30
407.699	1	37
407.870	1	36
408.041	1	38
408.211	1	26
408.382	1	38
408.553	1	38
408.723	1	43
408.894	1	50
409.065	1	40
409.235	1	40
409.406	1	32
409.577	1	41
409.747	1	38
409.918	1	33
410.089	1	41
410.259	1	47
410.430	1	38
410.601	1	38
410.771	1	36
410.942	1	45
411.113	1	29
411.283	1	40
411.454	1	34
411.625	1	31
411.795	1	30
411.966	1	43
412.137	1	42
412.307	1	40
412.478	1	38
412.649	1	44
412.819	1	36
412.990	1	38
413.161	1	37
413.331	1	38
413.502	1	38
413.672	1	44
413.843	1	34
414.014	1	33
414.184	1	32
414.355	1	51
414.526	1	40
414.696	1	42
414.867	1	41
415.038	1	26
415.208	1	46
415.379	1	35
415.550	1	45
415.720	1	43
415.891	1	31
416.062	1	40
416.232	1	25
416.403	1	38
416.573	1	37
416.744	1	33
416.915	1	39
417.085	1	42
417.256	1	38
417.427	1	46
417.597	1	32
417.768	1	26
417.939	1	41
418.109	1	35
418.280	1	36
418.450	1	46
418.621	1	27
418.792	1	45
418.962	1	39
419.133	1	40
419.304	1	36
419.474	1	37
419.645	1	27
419.815	1	46
419.986	1	38
420.157	1	22
420.327	1	37
420.498	1	40
420.669	1	42
420.839	1	31
421.010	1	32
421.180	1	43
421.351	1	33
421.522	1	30
421.692	1	39
421.863	1	48
422.033	1	48
422.204	1	34
422.375	1	45
422.545	1	43
422.716	1	30
422.886	1	31
423.057	1	28
423.228	1	22
423.398	1	45
423.569	1	35
423.740	1	25
423.910	1	17
424.081	1	33
424.251	1	32
424.422	1	33
424.593	1	26
424.763	1	38
424.934	1	26
425.104	1	40
425.275	1	40
425.445	1	39
425.616	1	24
425.787	1	23
425.957	1	45
426.128	1	19
426.298	1	24
426.469	1	25
426.640	1	43
426.810	1	34
426.981	1	34
427.151	1	44
427.322	1	44
427.493	1	27
427.663	1	29
427.834	1	32
428.004	1	34
428.175	1	40
428.345	1	32
428.516	1	50
428.687	1	42
428.857	1	31
429.028	1	30
429.198	1	28
429.369	1	31
429.540	1	28
429.710	1	36
429.881	1	28
430.051	1	41
430.222	1	26
430.392	1	38
430.563	1	35
430.734	1	35
430.904	1	35
431.075	1	26
431.245	1	25
431.416	1	35
431.586	1	15
431.757	1	32
431.927	1	31
432.098	1	26
432.269	1	32
432.439	1	42
432.610	1	27
432.780	1	35
432.951	1	21
433.121	1	29
433.292	1	23
433.462	1	25
433.633	1	40
433.804	1	38
433.974	1	22
434.145	1	34
434.315	1	32
434.486	1	35
434.656	1	29
434.827	1	28
434.997	1	33
435.168	1	31
435.339	1	33
435.509	1	38
435.680	1	28
435.850	1	26
436.021	1	31
436.191	1	23
436.362	1	26
436.532	1	40
436.703	1	15
436.873	1	42
437.044	1	37
437.214	1	37
437.385	1	42
437.556	1	29
437.726	1	21
437.897	1	29
438.067	1	15
438.238	1	23
438.408	1	25
438.579	1	39
438.749	1	32
438.920	1	19
439.090	1	33
439.261	1	24
439.431	1	27
439.602	1	25
439.772	1	30
439.943	1	31
440.113	1	23
440.284	1	28
440.455	1	38
440.625	1	45
440.796	1	37
440.966	1	35
441.137	1	27
441.307	1	36
441.478	1	35
441.648	1	6
441.819	1	41
441.989	1	29
442.160	1	14
442.330	1	34
442.501	1	35
442.671	1	20
442.842	1	36
443.012	1	38
443.183	1	24
443.353	1	36
443.524	1	22
443.694	1	25
443.865	1	38
444.035	1	18
444.206	1	29
444.376	1	30
444.547	1	23
444.717	1	26
444.888	1	36
445.058	1	37
445.229	1	29
445.399	1	34
445.570	1	35
445.740	1	24
445.911	1	13
446.081	1	22
446.252	1	32
446.422	1	31
446.593	1	25
446.763	1	49
446.934	1	16
447.104	1	36
447.275	1	22
447.445	1	19
447.616	1	27
447.786	1	14
447.957	1	21
448.127	1	32
448.298	1	18
448.468	1	20
448.639	1	31
448.809	1	22
448.979	1	19
449.150	1	21
449.320	1	34
449.491	1	15
449.661	1	28
449.832	1	20
450.002	1	8
450.173	1	38
450.343	1	34
450.514	1	27
450.684	1	30
450.855	1	29
451.025	1	25
451.196	1	11
451.366	1	29
451.537	1	27
451.707	1	25
451.878	1	13
452.048	1	34
452.218	1	27
452.389	1	31
452.559	1	39
452.730	1	7
452.900	1	25
453.071	1	24
453.241	1	17
453.412	1	15
453.582	1	30
453.753	1	20
453.923	1	32
454.093	1	26
454.264	1	20
454.434	1	33
454.605	1	21
454.775	1	21
454.946	1	31
455.116	1	16
455.287	1	23
455.457	1	32
455.628	1	19
455.798	1	28
455.968	1	16
456.139	1	19
456.309	1	38
456.480	1	11
456.650	1	23
456.821	1	37
456.991	1	18
457.161	1	21
457.332	1	40
457.502	1	28
457.673	1	22
457.843	1	23
458.014	1	22
458.184	1	18
458.355	1	15
458.525	1	19
458.695	1	28
458.866	1	23
459.036	1	24
459.207	1	17
459.377	1	11
459.548	1	33
459.718	1	20
459.888	1	21
460.059	1	39
460.229	1	21
460.400	1	17
460.570	1	31
460.740	1	30
460.911	1	25
461.081	1	14
461.252	1	24
461.422	1	3
461.593	1	19
461.763	1	34
461.933	1	26
462.104	1	24
462.274	1	27
462.445	1	15
462.615	1	18
462.785	1	15
462.956	1	13
463.126	1	31
463.297	1	15
463.467	1	21
463.638	1	19
463.808	1	27
463.978	1	19
464.149	1	17
464.319	1	11
464.490	1	23
464.660	1	35
464.830	1	14
465.001	1	15
465.171	1	14
465.342	1	17
465.512	1	25
465.682	1	26
465.853	1	29
466.023	1	32
466.194	1	18
466.364	1	16
466.534	1	14
466.705	1	10
466.875	1	22
467.045	1	19
467.216	1	21
467.386	1	18
467.557	1	34
467.727	1	23
467.897	1	26
468.068	1	16
468.238	1	22
468.409	1	28
468.579	1	16
468.749	1	29
468.920	1	19
469.090	1	15
469.260	1	31
469.431	1	20
469.601	1	17
469.772	1	16
469.942	1	24
470.112	1	20
470.283	1	17
470.453	1	15
470.623	1	21
470.794	1	15
470.964	1	14
471.135	1	36
471.305	1	23
471.475	1	27
471.646	1	20
471.816	1	14
471.986	1	11
472.157	1	12
472.327	1	19
472.497	1	16
472.668	1	19
472.838	1	17
473.009	1	22
473.179	1	24
473.349	1	19
473.520	1	9
473.690	1	21
473.860	1	19
474.031	1	11
474.201	1	16
474.371	1	26
474.542	1	24
474.712	1	18
474.882	1	19
475.053	1	12
475.223	1	18
475.394	1	11
475.564	1	18
475.734	1	15
475.905	1	29
476.075	1	17
476.245	1	26
476.416	1	14
476.586	1	13
476.756	1	17
476.927	1	18
477.097	1	19
477.267	1	17
477.438	1	14
477.608	1	20
477.778	1	17
477.949	1	18
478.119	1	-1
478.289	1	8
478.460	1	14
478.630	1	21
478.800	1	27
478.971	1	9
479.141	1	20
479.311	1	13
479.482	1	-2
479.652	1	30
479.822	1	4
479.993	1	21
480.163	1	18
480.333	1	31
480.504	1	10
480.674	1	4
480.844	1	13
481.015	1	20
481.185	1	18
481.355	1	14
481.525	1	7
481.696	1	12
481.866	1	16
482.036	1	15
482.207	1	15
482.377	1	15
482.547	1	11
482.718	1	8
482.888	1	15
483.058	1	24
483.229	1	19
483.399	1	14
483.569	1	3
483.740	1	19
483.910	1	31
484.080	1	26
484.250	1	22
484.421	1	17
484.591	1	15
484.761	1	11
484.932	1	26
485.102	1	4
485.272	1	3
485.443	1	15
485.613	1	11
485.783	1	17
485.953	1	3
486.124	1	14
486.294	1	14
486.464	1	18
486.635	1	6
486.805	1	18
486.975	1	17
487.146	1	18
487.316	1	1
487.486	1	10
487.656	1	14
487.827	1	13
487.997	1	16
488.167	1	18
488.338	1	10
488.508	1	15
488.678	1	13
488.848	1	19
489.019	1	17
489.189	1	5
489.359	1	20
489.529	1	4
489.700	1	9
489.870	1	9
490.040	1	0
490.211	1	13
490.381	1	21
490.551	1	4
490.721	1	22
490.892	1	32
491.062	1	5
491.232	1	15
491.402	1	5
491.573	1	14
491.743	1	22
491.913	1	16
492.084	1	18
492.254	1	21
492.424	1	8
492.594	1	18
492.765	1	13
492.935	1	13
493.105	1	7
493.275	1	7
493.446	1	17
493.616	1	4
493.786	1	9
493.956	1	16
494.127	1	12
494.297	1	19
494.467	1	12
494.637	1	7
494.808	1	13
494.978	1	0
495.148	1	17
495.318	1	14
495.489	1	20
495.659	1	9
495.829	1	10
495.999	1	9
496.170	1	1
496.340	1	12
496.510	1	22
496.680	1	12
496.851	1	22
497.021	1	31
497.191	1	12
497.361	1	23
497.532	1	22
497.702	1	18
497.872	1	7
498.042	1	27
498.213	1	12
498.383	1	15
498.553	1	8
498.723	1	11
498.894	1	19
499.064	1	4
499.234	1	22
499.404	1	17
499.574	1	13
499.745	1	-1
499.915	1	10
500.085	1	-1
500.255	1	15
500.426	1	7
500.596	1	17
500.766	1	9
500.936	1	10
501.106	1	23
501.277	1	19
501.447	1	5
501.617	1	15
501.787	1	14
501.958	1	-1
502.128	1	15
502.298	1	13
502.468	1	7
502.638	1	22
502.809	1	21
502.979	1	16
503.149	1	9
503.319	1	10
503.489	1	11
503.660	1	18
503.830	1	13
504.000	1	10
504.170	1	9
504.340	1	12
504.511	1	21
504.681	1	2
504.851	1	9
505.021	1	14
505.192	1	7
505.362	1	15
505.532	1	16
505.702	1	15
505.872	1	17
506.043	1	-1
506.213	1	0
506.383	1	3
506.553	1	15
506.723	1	20
506.893	1	11
507.064	1	22
507.234	1	5
507.404	1	11
507.574	1	19
507.744	1	2
507.915	1	12
508.085	1	4
508.255	1	15
508.425	1	9
508.595	1	10
508.766	1	13
508.936	1	16
509.106	1	7
509.276	1	16
509.446	1	4
509.616	1	15
509.787	1	5
509.957	1	15
510.127	1	12
510.297	1	19
510.467	1	22
510.638	1	3
510.808	1	11
510.978	1	9
511.148	1	-5
511.318	1	23
511.488	1	10
511.659	1	2
511.829	1	3
511.999	1	9
512.169	1	1
512.339	1	19
512.509	1	10
512.680	1	8
512.850	1	3
513.020	1	8
513.190	1	13
513.360	1	13
513.530	1	14
513.700	1	22
513.871	1	18
514.041	1	11
514.211	1	19
514.381	1	5
514.551	1	8
514.721	1	7
514.892	1	8
515.062	1	9
515.232	1	-1
515.402	1	19
515.572	1	6
515.742	1	18
515.912	1	17
516.083	1	12
516.253	1	8
516.423	1	5
516.593	1	5
516.763	1	7
516.933	1	2
517.104	1	6
517.274	1	15
517.444	1	8
517.614	1	10
517.784	1	14
517.954	1	15
518.124	1	2
518.294	1	10
518.465	1	6
518.635	1	9
518.805	1	11
518.975	1	15
519.145	1	16
519.315	1	12
519.485	1	-4
519.656	1	12
519.826	1	6
519.996	1	8
520.166	1	14
520.336	1	16
520.506	1	8
520.676	1	2
520.846	1	16
521.017	1	0
521.187	1	5
521.357	1	11
521.527	1	-1
521.697	1	0
521.867	1	-1
522.037	1	15
522.207	1	7
522.377	1	11
522.548	1	12
522.718	1	10
522.888	1	-3
523.058	1	1
523.228	1	9
523.398	1	6
523.568	1	2
523.738	1	9
523.909	1	5
524.079	1	12
524.249	1	-1
524.419	1	0
524.589	1	15
524.759	1	6
524.929	1	18
525.099	1	23
525.269	1	9
525.439	1	9
525.610	1	12
525.780	1	10
525.950	1	6
526.120	1	7
526.290	1	21
526.460	1	4
526.630	1	8
526.800	1	10
526.970	1	7
527.140	1	16
527.311	1	10
527.481	1	5
527.651	1	3
527.821	1	4
527.991	1	6
528.161	1	8
528.331	1	-4
528.501	1	19
528.671	1	11
528.841	1	16
529.011	1	-1
529.181	1	15
529.352	1	-5
529.522	1	0
529.692	1	7
529.862	1	9
530.032	1	1
530.202	1	13
530.372	1	10
530.542	1	14
530.712	1	-1
530.882	1	3
531.052	1	3
531.222	1	-2
531.392	1	4
531.563	1	6
531.733	1	20
531.903	1	13
532.073	1	13
532.243	1	14
532.413	1	13
532.583	1	1
532.753	1	2
532.923	1	22
533.093	1	-5
533.263	1	2
533.433	1	18
533.603	1	6
533.773	1	4
533.943	1	12
534.113	1	13
534.284	1	4
534.454	1	0
534.624	1	-6
534.794	1	8
534.964	1	5
535.134	1	5
535.304	1	11
535.474	1	-4
535.644	1	21
535.814	1	4
535.984	1	-1
536.154	1	12
536.324	1	8
536.494	1	1
536.664	1	0
536.834	1	8
537.004	1	-2
537.174	1	12
537.344	1	13
537.514	1	18
537.685	1	9
537.855	1	7
538.025	1	6
538.195	1	14
538.365	1	9
538.535	1	7
538.705	1	-2
538.875	1	9
539.045	1	5
539.215	1	14
539.385	1	3
539.555	1	-1
539.725	1	9
539.895	1	16
540.065	1	3
540.235	1	0
540.405	1	7
540.575	1	16
540.745	1	8
540.915	1	12
541.085	1	5
541.255	1	7
541.425	1	-4
541.595	1	-9
541.765	1	0
541.935	1	10
542.105	1	5
542.275	1	8
542.445	1	5
542.615	1	22
542.785	1	18
542.955	1	9
543.125	1	5
543.295	1	9
543.465	1	0
543.635	1	-9
543.805	1	17
543.975	1	5
544.145	1	9
544.315	1	0
544.485	1	8
544.655	1	9
544.825	1	15
544.995	1	11
545.165	1	6
545.335	1	-1
545.505	1	5
545.675	1	8
545.845	1	2
546.015	1	11
546.185	1	3
546.355	1	4
546.525	1	0
546.695	1	-1
546.865	1	7
547.035	1	16
547.205	1	11
547.375	1	7
547.545	1	11
547.715	1	9
547.885	1	10
548.055	1	14
548.225	1	7
548.395	1	14
548.565	1	4
548.735	1	11
548.905	1	7
549.075	1	4
549.245	1	7
549.415	1	9
549.585	1	9
549.755	1	5
549.925	1	-1
550.095	1	2
550.265	1	-10
550.435	1	2
550.605	1	6
550.775	1	10
550.945	1	4
551.115	1	-2
551.285	1	2
551.455	1	0
551.625	1	11
551.795	1	18
551.965	1	10
552.135	1	-7
552.305	1	5
552.475	1	17
552.645	1	26
552.815	1	-6
552.985	1	-5
553.155	1	5
553.325	1	0
553.495	1	2
553.665	1	-1
553.835	1	9
554.004	1	9
554.174	1	3
554.344	1	9
554.514	1	7
554.684	1	-5
554.854	1	2
555.024	1	10
555.194	1	8
555.364	1	0
555.534	1	12
555.704	1	4
555.874	1	6
556.044	1	0
556.214	1	-6
556.384	1	-6
556.554	1	-5
556.724	1	-3
556.894	1	5
557.064	1	-1
557.234	1	10
557.404	1	21
557.573	1	11
557.743	1	5
557.913	1	4
558.083	1	-4
558.253	1	3
558.423	1	3
558.593	1	8
558.763	1	5
558.933	1	12
559.103	1	2
559.273	1	6
559.443	1	1
559.613	1	5
559.783	1	-1
559.953	1	2
560.122	1	1
560.292	1	15
560.462	1	2
560.632	1	14
560.802	1	12
560.972	1	5
561.142	1	5
561.312	1	-2
561.482	1	0
561.652	1	8
561.822	1	10
561.992	1	3
562.162	1	-5
562.331	1	-2
562.501	1	9
562.671	1	8
562.841	1	14
563.011	1	14
563.181	1	23
563.351	1	-2
563.521	1	8
563.691	1	1
563.861	1	5
564.031	1	11
564.201	1	9
564.370	1	11
564.540	1	5
564.710	1	18
564.880	1	8
565.050	1	-6
565.220	1	0
565.390	1	16
565.560	1	13
565.730	1	3
565.900	1	3
566.069	1	9
566.239	1	-3
566.409	1	14
566.579	1	7
566.749	1	8
566.919	1	-2
567.089	1	0
567.259	1	8
567.429	1	3
567.599	1	-3
567.768	1	-3
567.938	1	-5
568.108	1	7
568.278	1	8
568.448	1	16
568.618	1	11
568.788	1	7
568.958	1	17
569.128	1	0
569.297	1	7
569.467	1	9
569.637	1	-2
569.807	1	3
569.977	1	2
570.147	1	1
570.317	1	17
570.487	1	3
570.656	1	5
570.826	1	12
570.996	1	-3
571.166	1	0
571.336	1	12
571.506	1	2
571.676	1	19
571.846	1	1
572.015	1	5
572.185	1	-1
572.355	1	10
572.525	1	-7
572.695	1	13
572.865	1	-2
573.035	1	0
573.205	1	-6
573.374	1	9
573.544	1	-7
573.714	1	9
573.884	1	15
574.054	1	6
574.224	1	4
574.394	1	-2
574.563	1	5
574.733	1	10
574.903	1	5
575.073	1	3
575.243	1	-3
575.413	1	3
575.583	1	0
575.752	1	1
575.922	1	3
576.092	1	10
576.262	1	2
576.432	1	3
576.602	1	-1
576.772	1	5
576.941	1	13
577.111	1	4
577.281	1	4
577.451	1	16
577.621	1	5
577.791	1	-5
577.960	1	5
578.130	1	-9
578.300	1	12
578.470	1	11
578.640	1	12
578.810	1	2
578.979	1	1
579.149	1	-3
579.319	1	3
579.489	1	5
579.659	1	-2
579.829	1	8
579.998	1	0
580.168	1	5
580.338	1	8
580.508	1	3
580.678	1	-3
580.848	1	1
581.017	1	13
581.187	1	-1
581.357	1	1
581.527	1	4
581.697	1	13
581.867	1	-4
582.036	1	0
582.206	1	-2
582.376	1	5
582.546	1	-2
582.716	1	-9
582.885	1	5
583.055	1	6
583.225	1	4
583.395	1	8
583.565	1	15
583.735	1	-16
583.904	1	-3
584.074	1	11
584.244	1	6
584.414	1	6
584.584	1	4
584.753	1	11
584.923	1	10
585.093	1	1
585.263	1	14
585.433	1	4
585.602	1	-2
585.772	1	9
585.942	1	-9
586.112	1	2
586.282	1	0
586.451	1	-8
586.621	1	19
586.791	1	6
586.961	1	1
587.131	1	8
587.300	1	-6
587.470	1	10
587.640	1	1
587.810	1	-8
587.980	1	6
588.149	1	13
588.319	1	1
588.489	1	7
588.659	1	2
588.829	1	5
588.998	1	6
589.168	1	-4
589.338	1	9
589.508	1	7
589.677	1	5
589.847	1	-1
590.017	1	8
590.187	1	-1
590.357	1	6
590.526	1	13
590.696	1	5
590.866	1	9
591.036	1	7
591.205	1	0
591.375	1	3
591.545	1	4
591.715	1	10
591.885	1	10
592.054	1	1
592.224	1	6
592.394	1	4
592.564	1	-5
592.733	1	8
592.903	1	2
593.073	1	-6
593.243	1	4
593.412	1	11
593.582	1	2
593.752	1	9
593.922	1	-11
594.091	1	17
594.261	1	1
594.431	1	4
594.601	1	1
594.771	1	-1
594.940	1	7
595.110	1	11
595.280	1	0
595.450	1	7
595.619	1	4
595.789	1	3
595.959	1	-1
596.129	1	3
596.298	1	8
596.468	1	8
596.638	1	14
596.808	1	20
596.977	1	7
597.147	1	10
597.317	1	5
597.487	1	-3
597.656	1	4
597.826	1	-7
597.996	1	9
598.166	1	7
598.335	1	10
598.505	1	9
598.675	1	-7
598.844	1	9
599.014	1	3
599.184	1	19
599.354	1	-7
599.523	1	0
599.693	1	11
599.863	1	7
600.033	1	0
600.202	1	-5
600.372	1	1
600.542	1	16
600.712	1	14
600.881	1	4
601.051	1	-1
601.221	1	-2
601.390	1	9
601.560	1	2
601.730	1	5
601.900	1	6
602.069	1	3
602.239	1	1
602.409	1	15
602.578	1	2
602.748	1	5
602.918	1	6
603.088	1	10
603.257	1	10
603.427	1	-1
603.597	1	-2
603.767	1	9
603.936	1	11
604.106	1	13
604.276	1	2
604.445	1	6
604.615	1	-1
604.785	1	0
604.954	1	4
605.124	1	16
605.294	1	12
605.464	1	18
605.633	1	11
605.803	1	2
605.973	1	0
606.142	1	6
606.312	1	-1
606.482	1	3
606.652	1	12
606.821	1	7
606.991	1	5
607.161	1	23
607.330	1	-12
607.500	1	2
607.670	1	-1
607.839	1	1
608.009	1	-4
608.179	1	-5
608.348	1	15
608.518	1	-3
608.688	1	15
608.858	1	2
609.027	1	3
609.197	1	9
609.367	1	5
609.536	1	-1
609.706	1	8
609.876	1	-4
610.045	1	4
610.215	1	7
610.385	1	15
610.554	1	-7
610.724	1	13
610.894	1	10
611.063	1	-8
611.233	1	10
611.403	1	0
611.572	1	4
611.742	1	0
611.912	1	8
612.081	1	6
612.251	1	14
612.421	1	5
612.590	1	-1
612.760	1	3
612.930	1	6
613.099	1	13
613.269	1	-3
613.439	1	7
613.608	1	12
613.778	1	1
613.948	1	8
614.117	1	7
614.287	1	-4
614.457	1	-2
614.626	1	6
614.796	1	0
614.966	1	7
615.135	1	-4
615.305	1	-3
615.475	1	10
615.644	1	13
615.814	1	3
615.984	1	-1
616.153	1	1
616.323	1	-5
616.493	1	9
616.662	1	5
616.832	1	7
617.002	1	16
617.171	1	-1
617.341	1	11
617.511	1	-2
617.680	1	13
617.850	1	0
618.019	1	10
618.189	1	14
618.359	1	7
618.528	1	12
618.698	1	11
618.868	1	15
619.037	1	9
619.207	1	1
619.377	1	18
619.546	1	11
619.716	1	7
619.885	1	19
620.055	1	8
620.225	1	10
620.394	1	12
620.564	1	11
620.734	1	-4
620.903	1	8
621.073	1	4
621.242	1	-4
621.412	1	8
621.582	1	0
621.751	1	7
621.921	1	7
622.091	1	6
622.260	1	5
622.430	1	-3
622.599	1	10
622.769	1	10
622.939	1	2
623.108	1	13
623.278	1	11
623.448	1	3
623.617	1	4
623.787	1	10
623.956	1	0
624.126	1	16
624.296	1	10
624.465	1	3
624.635	1	1
624.804	1	7
624.974	1	8
625.144	1	16
625.313	1	1
625.483	1	3
625.652	1	1
625.822	1	2
625.992	1	6
626.161	1	-3
626.331	1	4
626.501	1	5
626.670	1	-3
626.840	1	4
627.009	1	2
627.179	1	10
627.348	1	-2
627.518	1	12
627.688	1	-1
627.857	1	1
628.027	1	2
628.196	1	4
628.366	1	6
628.536	1	7
628.705	1	6
628.875	1	9
629.044	1	-2
629.214	1	-3
629.384	1	6
629.553	1	7
629.723	1	6
629.892	1	5
630.062	1	19
630.232	1	-4
630.401	1	-1
630.571	1	5
630.740	1	-2
630.910	1	12
631.079	1	3
631.249	1	-1
631.419	1	5
631.588	1	-4
631.758	1	2
631.927	1	8
632.097	1	11
632.266	1	12
632.436	1	4
632.606	1	10
632.775	1	7
632.945	1	3
633.114	1	2
633.284	1	-1
633.453	1	9
633.623	1	2
633.793	1	11
633.962	1	-1
634.132	1	14
634.301	1	1
634.471	1	18
634.640	1	4
634.810	1	12
634.979	1	3
635.149	1	10
635.319	1	4
635.488	1	7
635.658	1	-5
635.827	1	16
635.997	1	-1
636.166	1	18
636.336	1	6
636.505	1	22
636.675	1	7
636.845	1	12
637.014	1	11
637.184	1	2
637.353	1	4
637.523	1	3
637.692	1	8
637.862	1	-2
638.031	1	8
638.201	1	16
638.370	1	8
638.540	1	10
638.710	1	4
638.879	1	1
639.049	1	11
639.218	1	3
639.388	1	24
639.557	1	3
639.727	1	1
639.896	1	2
640.066	1	9
640.235	1	15
640.405	1	8
640.574	1	11
640.744	1	15
640.914	1	7
641.083	1	10
641.253	1	8
641.422	1	16
641.592	1	7
641.761	1	19
641.931	1	0
642.100	1	6
642.270	1	6
642.439	1	9
642.609	1	0
642.778	1	4
642.948	1	5
643.117	1	7
643.287	1	-1
643.456	1	-3
643.626	1	10
643.795	1	10
643.965	1	0
644.134	1	6
644.304	1	9
644.473	1	9
644.643	1	3
644.812	1	12
644.982	1	0
645.151	1	6
645.321	1	6
645.490	1	16
645.660	1	4
645.829	1	1
645.999	1	9
646.168	1	16
646.338	1	2
646.507	1	-1
646.677	1	10
646.846	1	13
647.016	1	11
647.185	1	6
647.355	1	9
647.524	1	-2
647.694	1	10
647.863	1	7
648.033	1	8
648.202	1	3
648.372	1	13
648.541	1	8
648.711	1	9
648.880	1	12
649.050	1	11
649.219	1	5
649.389	1	2
649.558	1	9
649.728	1	10
649.897	1	5
650.067	1	1
650.236	1	6
650.406	1	-4
650.575	1	10
650.745	1	14
650.914	1	11
651.084	1	2
651.253	1	11
651.423	1	2
651.592	1	8
651.762	1	5
651.931	1	7
652.101	1	5
652.270	1	0
652.440	1	6
652.609	1	10
652.778	1	9
652.948	1	5
653.117	1	15
653.287	1	3
653.456	1	9
653.626	1	-1
653.795	1	10
653.965	1	21
654.134	1	9
654.304	1	5
654.473	1	17
654.643	1	8
654.812	1	10
654.982	1	14
655.151	1	17
655.320	1	5
655.490	1	-11
655.659	1	2
655.829	1	4
655.998	1	-3
656.168	1	0
656.337	1	12
656.507	1	1
656.676	1	1
656.846	1	-2
657.015	1	24
657.184	1	1
657.354	1	-5
657.523	1	2
657.693	1	6
657.862	1	1
658.032	1	3
658.201	1	8
658.371	1	14
658.540	1	25
658.709	1	13
658.879	1	-5
659.048	1	-2
659.218	1	7
659.387	1	9
659.557	1	13
659.726	1	16
659.895	1	10
660.065	1	7
660.234	1	11
660.404	1	12
660.573	1	9
660.743	1	12
660.912	1	13
661.081	1	5
661.251	1	-9
661.420	1	9
661.590	1	12
661.759	1	15
661.929	1	15
662.098	1	6
662.267	1	6
662.437	1	8
662.606	1	5
662.776	1	12
662.945	1	19
663.115	1	-10
663.284	1	8
663.453	1	6
663.623	1	5
663.792	1	6
663.962	1	-6
664.131	1	0
664.300	1	5
664.470	1	-10
664.639	1	12
664.809	1	6
664.978	1	14
665.148	1	13
665.317	1	5
665.486	1	-1
665.656	1	3
665.825	1	3
665.995	1	15
666.164	1	18
666.333	1	7
666.503	1	19
666.672	1	6
666.842	1	5
667.011	1	11
667.180	1	3
667.350	1	15
667.519	1	-1
667.689	1	20
667.858	1	19
668.027	1	1
668.197	1	11
668.366	1	16
668.536	1	5
668.705	1	12
668.874	1	11
669.044	1	6
669.213	1	4
669.382	1	10
669.552	1	7
669.721	1	8
669.891	1	0
670.060	1	3
670.229	1	8
670.399	1	12
670.568	1	15
670.738	1	3
670.907	1	8
671.076	1	6
671.246	1	-6
671.415	1	11
671.584	1	-2
671.754	1	16
671.923	1	-4
672.093	1	21
672.262	1	7
672.431	1	20
672.601	1	3
672.770	1	6
672.939	1	1
673.109	1	11
673.278	1	14
673.448	1	-3
673.617	1	9
673.786	1	9
