325.333	1	2
325.504	1	9
325.675	1	0
325.846	1	-1
326.017	1	-1
326.188	1	2
326.359	1	4
326.531	1	1
326.702	1	5
326.873	1	5
327.044	1	4
327.215	1	-9
327.386	1	-7
327.557	1	11
327.728	1	-13
327.899	1	7
328.070	1	7
328.241	1	9
328.412	1	6
328.583	1	0
328.754	1	0
328.926	1	7
329.097	1	-9
329.268	1	3
329.439	1	-3
329.610	1	8
329.781	1	14
329.952	1	7
330.123	1	-2
330.294	1	-4
330.465	1	4
330.636	1	-4
330.807	1	-3
330.978	1	8
331.149	1	-3
331.320	1	4
331.492	1	8
331.663	1	3
331.834	1	1
332.005	1	4
332.176	1	2
332.347	1	1
332.518	1	-9
332.689	1	12
332.860	1	3
333.031	1	11
333.202	1	13
333.373	1	8
333.544	1	8
333.715	1	-4
333.886	1	1
334.057	1	-4
334.228	1	8
334.399	1	-1
334.570	1	15
334.741	1	4
334.912	1	4
335.084	1	1
335.255	1	-3
335.426	1	-4
335.597	1	7
335.768	1	-8
335.939	1	-4
336.110	1	6
336.281	1	-2
336.452	1	17
336.623	1	9
336.794	1	2
336.965	1	-1
337.136	1	-4
337.307	1	8
337.478	1	4
337.649	1	3
337.820	1	-6
337.991	1	9
338.162	1	1
338.333	1	5
338.504	1	-4
338.675	1	3
338.846	1	12
339.017	1	7
339.188	1	-2
339.359	1	-2
339.530	1	-2
339.701	1	-4
339.872	1	4
340.043	1	10
340.214	1	7
340.385	1	4
340.556	1	2
340.727	1	3
340.898	1	0
341.069	1	11
341.240	1	14
341.411	1	9
341.582	1	9
341.753	1	-1
341.924	1	6
342.095	1	-3
342.266	1	-2
342.437	1	-1
342.608	1	-6
342.779	1	-2
342.950	1	5
343.121	1	2
343.292	1	3
343.463	1	12
343.634	1	13
343.805	1	-3
343.976	1	5
344.147	1	2
344.318	1	5
344.489	1	6
344.660	1	0
344.831	1	-9
345.002	1	3
345.173	1	4
345.344	1	-5
345.515	1	4
345.686	1	0
345.857	1	5
346.028	1	7
346.199	1	-5
346.370	1	4
346.541	1	15
346.712	1	0
346.883	1	2
347.054	1	-5
347.225	1	5
347.396	1	4
347.567	1	10
347.738	1	1
347.909	1	8
348.080	1	2
348.251	1	4
348.422	1	8
348.593	1	4
348.764	1	-1
348.935	1	-4
349.106	1	-3
349.277	1	14
349.448	1	2
349.619	1	4
349.790	1	17
349.961	1	0
350.132	1	1
350.303	1	10
350.474	1	5
350.645	1	-4
350.816	1	7
350.987	1	1
351.157	1	4
351.328	1	12
351.499	1	9
351.670	1	13
351.841	1	-5
352.012	1	10
352.183	1	-6
352.354	1	1
352.525	1	0
352.696	1	-8
352.867	1	-7
353.038	1	8
353.209	1	9
353.380	1	7
353.551	1	7
353.722	1	3
353.893	1	-4
354.064	1	5
354.235	1	4
354.406	1	5
354.576	1	-5
354.747	1	10
354.918	1	6
355.089	1	4
355.260	1	7
355.431	1	6
355.602	1	-2
355.773	1	9
355.944	1	-1
356.115	1	-5
356.286	1	2
356.457	1	8
356.628	1	24
356.799	1	2
356.970	1	3
357.141	1	14
357.311	1	9
357.482	1	14
357.653	1	-5
357.824	1	13
357.995	1	1
358.166	1	2
358.337	1	0
358.508	1	9
358.679	1	3
358.850	1	10
359.021	1	7
359.192	1	6
359.363	1	5
359.533	1	3
359.704	1	3
359.875	1	11
360.046	1	6
360.217	1	7
360.388	1	4
360.559	1	13
360.730	1	6
360.901	1	1
361.072	1	0
361.243	1	7
361.414	1	5
361.584	1	17
361.755	1	18
361.926	1	7
362.097	1	2
362.268	1	5
362.439	1	6
362.610	1	11
362.781	1	-1
362.952	1	12
363.123	1	22
363.293	1	6
363.464	1	5
363.635	1	9
363.806	1	4
363.977	1	1
364.148	1	-1
364.319	1	3
364.490	1	8
364.661	1	9
364.832	1	8
365.002	1	3
365.173	1	11
365.344	1	2
365.515	1	-3
365.686	1	1
365.857	1	15
366.028	1	-1
366.199	1	8
366.370	1	1
366.540	1	10
366.711	1	7
366.882	1	-5
367.053	1	12
367.224	1	3
367.395	1	13
367.566	1	18
367.737	1	10
367.908	1	2
368.078	1	20
368.249	1	11
368.420	1	3
368.591	1	10
368.762	1	6
368.933	1	-5
369.104	1	9
369.274	1	5
369.445	1	6
369.616	1	15
369.787	1	4
369.958	1	7
370.129	1	10
370.300	1	10
370.471	1	12
370.641	1	11
370.812	1	1
370.983	1	8
371.154	1	12
371.325	1	7
371.496	1	0
371.667	1	10
371.837	1	7
372.008	1	7
372.179	1	4
372.350	1	12
372.521	1	9
372.692	1	19
372.863	1	6
373.033	1	16
373.204	1	-3
373.375	1	5
373.546	1	10
373.717	1	9
373.888	1	5
374.059	1	11
374.229	1	9
374.400	1	-12
374.571	1	19
374.742	1	10
374.913	1	8
375.084	1	11
375.254	1	17
375.425	1	-5
375.596	1	2
375.767	1	-1
375.938	1	9
376.109	1	-4
376.279	1	8
376.450	1	10
376.621	1	18
376.792	1	10
376.963	1	7
377.134	1	11
377.304	1	8
377.475	1	4
377.646	1	2
377.817	1	-5
377.988	1	-6
378.159	1	-1
378.329	1	6
378.500	1	5
378.671	1	12
378.842	1	2
379.013	1	11
379.184	1	11
379.354	1	-3
379.525	1	2
379.696	1	-2
379.867	1	10
380.038	1	7
380.209	1	2
380.379	1	7
380.550	1	8
380.721	1	13
380.892	1	4
381.063	1	4
381.233	1	1
381.404	1	10
381.575	1	12
381.746	1	13
381.917	1	-1
382.087	1	10
382.258	1	3
382.429	1	6
382.600	1	4
382.771	1	12
382.941	1	5
383.112	1	2
383.283	1	16
383.454	1	3
383.625	1	16
383.795	1	10
383.966	1	5
384.137	1	12
384.308	1	5
384.479	1	6
384.649	1	10
384.820	1	9
384.991	1	2
385.162	1	7
385.333	1	9
385.503	1	5
385.674	1	6
385.845	1	10
386.016	1	10
386.187	1	-4
386.357	1	15
386.528	1	-2
386.699	1	5
386.870	1	10
387.041	1	7
387.211	1	7
387.382	1	4
387.553	1	9
387.724	1	11
387.894	1	9
388.065	1	1
388.236	1	1
388.407	1	8
388.578	1	-5
388.748	1	6
388.919	1	8
389.090	1	16
389.261	1	19
389.431	1	6
389.602	1	13
389.773	1	10
389.944	1	-1
390.114	1	16
390.285	1	2
390.456	1	5
390.627	1	10
390.798	1	15
390.968	1	1
391.139	1	-1
391.310	1	20
391.481	1	0
391.651	1	9
391.822	1	2
391.993	1	7
392.164	1	-10
392.334	1	15
392.505	1	-6
392.676	1	4
392.847	1	14
393.017	1	19
393.188	1	2
393.359	1	8
393.530	1	17
393.700	1	6
393.871	1	7
394.042	1	1
394.213	1	17
394.383	1	16
394.554	1	12
394.725	1	0
394.896	1	3
395.066	1	1
395.237	1	6
395.408	1	7
395.579	1	8
395.749	1	6
395.920	1	12
396.091	1	3
396.262	1	9
396.432	1	7
396.603	1	1
396.774	1	12
396.945	1	12
397.115	1	13
397.286	1	10
397.457	1	13
397.627	1	12
397.798	1	4
397.969	1	1
398.140	1	6
398.310	1	5
398.481	1	4
398.652	1	25
398.823	1	3
398.993	1	7
399.164	1	7
399.335	1	2
399.505	1	6
399.676	1	13
399.847	1	16
400.018	1	7
400.188	1	8
400.359	1	4
400.530	1	12
400.700	1	11
400.871	1	16
401.042	1	9
401.213	1	-11
401.383	1	-4
401.554	1	12
401.725	1	10
401.895	1	10
402.066	1	2
402.237	1	14
402.408	1	13
402.578	1	3
402.749	1	1
402.920	1	6
403.090	1	9
403.261	1	17
403.432	1	7
403.603	1	5
403.773	1	15
403.944	1	-2
404.115	1	7
404.285	1	3
404.456	1	14
404.627	1	1
404.797	1	4
404.968	1	20
405.139	1	5
405.310	1	10
405.480	1	6
405.651	1	24
405.822	1	13
405.992	1	11
406.163	1	11
406.334	1	7
406.504	1	-4
406.675	1	7
406.846	1	2
407.016	1	10
407.187	1	21
407.358	1	14
407.528	1	-2
407.699	1	15
407.870	1	13
408.041	1	15
408.211	1	8
408.382	1	11
408.553	1	14
408.723	1	18
408.894	1	14
409.065	1	17
409.235	1	21
409.406	1	6
409.577	1	15
409.747	1	8
409.918	1	-3
410.089	1	5
410.259	1	21
410.430	1	3
410.601	1	9
410.771	1	16
410.942	1	13
411.113	1	-3
411.283	1	10
411.454	1	7
411.625	1	8
411.795	1	2
411.966	1	20
412.137	1	6
412.307	1	19
412.478	1	19
412.649	1	2
412.819	1	14
412.990	1	11
413.161	1	10
413.331	1	16
413.502	1	6
413.672	1	7
413.843	1	12
414.014	1	20
414.184	1	4
414.355	1	12
414.526	1	13
414.696	1	6
414.867	1	10
415.038	1	-9
415.208	1	15
415.379	1	12
415.550	1	19
415.720	1	7
415.891	1	2
416.062	1	0
416.232	1	-1
416.403	1	13
416.573	1	19
416.744	1	9
416.915	1	22
417.085	1	16
417.256	1	5
417.427	1	13
417.597	1	2
417.768	1	5
417.939	1	14
418.109	1	16
418.280	1	4
418.450	1	15
418.621	1	6
418.792	1	11
418.962	1	14
419.133	1	13
419.304	1	8
419.474	1	3
419.645	1	2
419.815	1	12
419.986	1	0
420.157	1	-2
420.327	1	9
420.498	1	9
420.669	1	23
420.839	1	12
421.010	1	8
421.180	1	20
421.351	1	8
421.522	1	-1
421.692	1	21
421.863	1	11
422.033	1	17
422.204	1	17
422.375	1	11
422.545	1	6
422.716	1	6
422.886	1	9
423.057	1	3
423.228	1	7
423.398	1	8
423.569	1	6
423.740	1	6
423.910	1	7
424.081	1	10
424.251	1	0
424.422	1	21
424.593	1	11
424.763	1	15
424.934	1	0
425.104	1	11
425.275	1	13
425.445	1	17
425.616	1	3
425.787	1	0
425.957	1	12
426.128	1	2
426.298	1	0
426.469	1	7
426.640	1	18
426.810	1	3
426.981	1	10
427.151	1	7
427.322	1	13
427.493	1	0
427.663	1	9
427.834	1	0
428.004	1	-3
428.175	1	0
428.345	1	-2
428.516	1	16
428.687	1	13
428.857	1	4
429.028	1	12
429.198	1	-3
429.369	1	7
429.540	1	-8
429.710	1	11
429.881	1	3
430.051	1	0
430.222	1	-1
430.392	1	20
430.563	1	16
430.734	1	5
430.904	1	15
431.075	1	13
431.245	1	-2
431.416	1	16
431.586	1	0
431.757	1	3
431.927	1	9
432.098	1	0
432.269	1	5
432.439	1	9
432.610	1	15
432.780	1	9
432.951	1	9
433.121	1	2
433.292	1	5
433.462	1	3
433.633	1	0
433.804	1	18
433.974	1	1
434.145	1	14
434.315	1	5
434.486	1	15
434.656	1	1
434.827	1	11
434.997	1	15
435.168	1	8
435.339	1	5
435.509	1	6
435.680	1	7
435.850	1	1
436.021	1	5
436.191	1	8
436.362	1	10
436.532	1	18
436.703	1	9
436.873	1	16
437.044	1	3
437.214	1	20
437.385	1	8
437.556	1	-1
437.726	1	2
437.897	1	4
438.067	1	9
438.238	1	1
438.408	1	-4
438.579	1	23
438.749	1	10
438.920	1	15
439.090	1	9
439.261	1	11
439.431	1	13
439.602	1	6
439.772	1	19
439.943	1	10
440.113	1	3
440.284	1	8
440.455	1	4
440.625	1	11
440.796	1	4
440.966	1	0
441.137	1	9
441.307	1	8
441.478	1	1
441.648	1	8
441.819	1	15
441.989	1	6
442.160	1	7
442.330	1	1
442.501	1	8
442.671	1	4
442.842	1	10
443.012	1	14
443.183	1	9
443.353	1	11
443.524	1	6
443.694	1	4
443.865	1	10
444.035	1	2
444.206	1	5
444.376	1	2
444.547	1	10
444.717	1	2
444.888	1	11
445.058	1	18
445.229	1	9
445.399	1	15
445.570	1	10
445.740	1	8
445.911	1	-7
446.081	1	8
446.252	1	9
446.422	1	13
446.593	1	1
446.763	1	17
446.934	1	7
447.104	1	10
447.275	1	9
447.445	1	5
447.616	1	10
447.786	1	6
447.957	1	8
448.127	1	2
448.298	1	-7
448.468	1	4
448.639	1	18
448.809	1	16
448.979	1	0
449.150	1	9
449.320	1	1
449.491	1	5
449.661	1	10
449.832	1	4
450.002	1	0
450.173	1	0
450.343	1	19
450.514	1	4
450.684	1	6
450.855	1	11
451.025	1	8
451.196	1	-1
451.366	1	9
451.537	1	11
451.707	1	5
451.878	1	-5
452.048	1	5
452.218	1	8
452.389	1	15
452.559	1	8
452.730	1	7
452.900	1	7
453.071	1	3
453.241	1	-3
453.412	1	5
453.582	1	15
453.753	1	4
453.923	1	-1
454.093	1	12
454.264	1	18
454.434	1	0
454.605	1	9
454.775	1	4
454.946	1	7
455.116	1	-4
455.287	1	8
455.457	1	4
455.628	1	-5
455.798	1	-1
455.968	1	8
456.139	1	12
456.309	1	20
456.480	1	1
456.650	1	2
456.821	1	12
456.991	1	6
457.161	1	2
457.332	1	5
457.502	1	10
457.673	1	10
457.843	1	1
458.014	1	11
458.184	1	3
458.355	1	6
458.525	1	8
458.695	1	0
458.866	1	7
459.036	1	14
459.207	1	16
459.377	1	8
459.548	1	5
459.718	1	7
459.888	1	7
460.059	1	21
460.229	1	6
460.400	1	12
460.570	1	10
460.740	1	5
460.911	1	9
461.081	1	6
461.252	1	-3
461.422	1	4
461.593	1	7
461.763	1	14
461.933	1	10
462.104	1	8
462.274	1	3
462.445	1	4
462.615	1	15
462.785	1	10
462.956	1	1
463.126	1	0
463.297	1	9
463.467	1	1
463.638	1	8
463.808	1	14
463.978	1	1
464.149	1	7
464.319	1	11
464.490	1	7
464.660	1	19
464.830	1	-3
465.001	1	6
465.171	1	5
465.342	1	6
465.512	1	6
465.682	1	10
465.853	1	17
466.023	1	15
466.194	1	0
466.364	1	1
466.534	1	0
466.705	1	7
466.875	1	11
467.045	1	7
467.216	1	5
467.386	1	9
467.557	1	18
467.727	1	5
467.897	1	15
468.068	1	1
468.238	1	3
468.409	1	7
468.579	1	9
468.749	1	9
468.920	1	19
469.090	1	6
469.260	1	19
469.431	1	-4
469.601	1	-3
469.772	1	-2
469.942	1	9
470.112	1	3
470.283	1	8
470.453	1	16
470.623	1	6
470.794	1	-1
470.964	1	9
471.135	1	4
471.305	1	8
471.475	1	8
471.646	1	13
471.816	1	11
471.986	1	2
472.157	1	-2
472.327	1	8
472.497	1	11
472.668	1	3
472.838	1	4
473.009	1	-3
473.179	1	14
473.349	1	1
473.520	1	-2
473.690	1	6
473.860	1	3
474.031	1	3
474.201	1	14
474.371	1	7
474.542	1	13
474.712	1	0
474.882	1	-1
475.053	1	2
475.223	1	-4
475.394	1	3
475.564	1	5
475.734	1	-1
475.905	1	16
476.075	1	6
476.245	1	15
476.416	1	5
476.586	1	-2
476.756	1	1
476.927	1	6
477.097	1	14
477.267	1	11
477.438	1	0
477.608	1	11
477.778	1	12
477.949	1	5
478.119	1	-6
478.289	1	-2
478.460	1	4
478.630	1	9
478.800	1	9
478.971	1	-3
479.141	1	7
479.311	1	13
479.482	1	-4
479.652	1	10
479.822	1	-3
479.993	1	10
480.163	1	-1
480.333	1	21
480.504	1	8
480.674	1	-7
480.844	1	6
481.015	1	-4
481.185	1	11
481.355	1	2
481.525	1	-12
481.696	1	-4
481.866	1	5
482.036	1	8
482.207	1	7
482.377	1	13
482.547	1	0
482.718	1	-7
482.888	1	-2
483.058	1	10
483.229	1	10
483.399	1	4
483.569	1	0
483.740	1	2
483.910	1	0
484.080	1	13
484.250	1	0
484.421	1	6
484.591	1	9
484.761	1	3
484.932	1	10
485.102	1	-1
485.272	1	1
485.443	1	6
485.613	1	-8
485.783	1	-3
485.953	1	3
486.124	1	10
486.294	1	16
486.464	1	5
486.635	1	0
486.805	1	14
486.975	1	6
487.146	1	7
487.316	1	1
487.486	1	4
487.656	1	10
487.827	1	2
487.997	1	7
488.167	1	10
488.338	1	12
488.508	1	-2
488.678	1	-1
488.848	1	3
489.019	1	4
489.189	1	-5
489.359	1	11
489.529	1	-4
489.700	1	12
489.870	1	4
490.040	1	0
490.211	1	-1
490.381	1	11
490.551	1	1
490.721	1	8
490.892	1	14
491.062	1	5
491.232	1	3
491.402	1	-10
491.573	1	5
491.743	1	-1
491.913	1	2
492.084	1	1
492.254	1	18
492.424	1	3
492.594	1	4
492.765	1	5
492.935	1	-3
493.105	1	1
493.275	1	-1
493.446	1	1
493.616	1	-4
493.786	1	10
493.956	1	10
494.127	1	6
494.297	1	6
494.467	1	2
494.637	1	13
494.808	1	4
494.978	1	1
495.148	1	-1
495.318	1	1
495.489	1	0
495.659	1	0
495.829	1	12
495.999	1	6
496.170	1	-1
496.340	1	-2
496.510	1	10
496.680	1	10
496.851	1	10
497.021	1	16
497.191	1	3
497.361	1	7
497.532	1	10
497.702	1	1
497.872	1	8
498.042	1	8
498.213	1	4
498.383	1	9
498.553	1	7
498.723	1	6
498.894	1	17
499.064	1	-9
499.234	1	9
499.404	1	5
499.574	1	8
499.745	1	-7
499.915	1	3
500.085	1	-2
500.255	1	7
500.426	1	1
500.596	1	5
500.766	1	5
500.936	1	2
501.106	1	6
501.277	1	8
501.447	1	-5
501.617	1	-4
501.787	1	12
501.958	1	-2
502.128	1	8
502.298	1	1
502.468	1	3
502.638	1	16
502.809	1	8
502.979	1	-3
503.149	1	10
503.319	1	7
503.489	1	1
503.660	1	0
503.830	1	-1
504.000	1	4
504.170	1	4
504.340	1	-1
504.511	1	2
504.681	1	1
504.851	1	-3
505.021	1	11
505.192	1	6
505.362	1	10
505.532	1	6
505.702	1	-3
505.872	1	4
506.043	1	-15
506.213	1	4
506.383	1	1
506.553	1	-3
506.723	1	9
506.893	1	8
507.064	1	7
507.234	1	-5
507.404	1	14
507.574	1	5
507.744	1	-7
507.915	1	1
508.085	1	4
508.255	1	8
508.425	1	4
508.595	1	-4
508.766	1	7
508.936	1	-6
509.106	1	3
509.276	1	5
509.446	1	-15
509.616	1	12
509.787	1	11
509.957	1	-1
510.127	1	6
510.297	1	2
510.467	1	13
510.638	1	-7
510.808	1	-4
510.978	1	1
511.148	1	1
511.318	1	6
511.488	1	4
511.659	1	-4
511.829	1	-4
511.999	1	-3
512.169	1	3
512.339	1	4
512.509	1	3
512.680	1	6
512.850	1	-2
513.020	1	-3
513.190	1	-1
513.360	1	3
513.530	1	8
513.700	1	7
513.871	1	4
514.041	1	3
514.211	1	14
514.381	1	-1
514.551	1	6
514.721	1	10
514.892	1	2
515.062	1	5
515.232	1	-4
515.402	1	13
515.572	1	-5
515.742	1	-1
515.912	1	7
516.083	1	7
516.253	1	5
516.423	1	2
516.593	1	5
516.763	1	4
516.933	1	-3
517.104	1	-2
517.274	1	6
517.444	1	5
517.614	1	-3
517.784	1	-1
517.954	1	7
518.124	1	-6
518.294	1	7
518.465	1	3
518.635	1	-2
518.805	1	1
518.975	1	1
519.145	1	-1
519.315	1	-1
519.485	1	2
519.656	1	13
519.826	1	7
519.996	1	-2
520.166	1	0
520.336	1	3
520.506	1	1
520.676	1	-2
520.846	1	-1
521.017	1	-1
521.187	1	5
521.357	1	-9
521.527	1	7
521.697	1	-2
521.867	1	-7
522.037	1	-6
522.207	1	11
522.377	1	1
522.548	1	5
522.718	1	11
522.888	1	-9
523.058	1	-2
523.228	1	1
523.398	1	10
523.568	1	-10
523.738	1	5
523.909	1	8
524.079	1	7
524.249	1	3
524.419	1	3
524.589	1	12
524.759	1	7
524.929	1	4
525.099	1	7
525.269	1	8
525.439	1	0
525.610	1	4
525.780	1	6
525.950	1	7
526.120	1	2
526.290	1	7
526.460	1	2
526.630	1	9
526.800	1	-8
526.970	1	8
527.140	1	3
527.311	1	-1
527.481	1	-4
527.651	1	2
527.821	1	-7
527.991	1	11
528.161	1	-4
528.331	1	0
528.501	1	1
528.671	1	0
528.841	1	2
529.011	1	-2
529.181	1	6
529.352	1	0
529.522	1	-11
529.692	1	0
529.862	1	-2
530.032	1	2
530.202	1	7
530.372	1	8
530.542	1	6
530.712	1	-9
530.882	1	-4
531.052	1	7
531.222	1	-6
531.392	1	1
531.563	1	3
531.733	1	10
531.903	1	-3
532.073	1	4
532.243	1	4
532.413	1	1
532.583	1	3
532.753	1	1
532.923	1	16
533.093	1	-10
533.263	1	7
533.433	1	4
533.603	1	10
533.773	1	-6
533.943	1	-4
534.113	1	7
534.284	1	7
534.454	1	2
534.624	1	-1
534.794	1	3
534.964	1	9
535.134	1	4
535.304	1	8
535.474	1	-10
535.644	1	9
535.814	1	-8
535.984	1	-11
536.154	1	6
536.324	1	-9
536.494	1	10
536.664	1	-11
536.834	1	-1
537.004	1	-5
537.174	1	7
537.344	1	12
537.514	1	1
537.685	1	-1
537.855	1	3
538.025	1	-2
538.195	1	5
538.365	1	4
538.535	1	4
538.705	1	6
538.875	1	1
539.045	1	-2
539.215	1	9
539.385	1	0
539.555	1	2
539.725	1	10
539.895	1	2
540.065	1	11
540.235	1	-4
540.405	1	2
540.575	1	8
540.745	1	-1
540.915	1	7
541.085	1	1
541.255	1	2
541.425	1	-11
541.595	1	-7
541.765	1	6
541.935	1	-4
542.105	1	-3
542.275	1	1
542.445	1	8
542.615	1	15
542.785	1	3
542.955	1	5
543.125	1	-3
543.295	1	8
543.465	1	0
543.635	1	-5
543.805	1	-4
543.975	1	0
544.145	1	7
544.315	1	-5
544.485	1	1
544.655	1	8
544.825	1	-1
544.995	1	16
545.165	1	-1
545.335	1	2
545.505	1	-2
545.675	1	-1
545.845	1	-4
546.015	1	7
546.185	1	-2
546.355	1	-15
546.525	1	1
546.695	1	2
546.865	1	0
547.035	1	3
547.205	1	1
547.375	1	5
547.545	1	0
547.715	1	7
547.885	1	0
548.055	1	5
548.225	1	-1
548.395	1	12
548.565	1	-3
548.735	1	-4
548.905	1	1
549.075	1	5
549.245	1	8
549.415	1	19
549.585	1	10
549.755	1	4
549.925	1	-5
550.095	1	0
550.265	1	-11
550.435	1	-2
550.605	1	8
550.775	1	-1
550.945	1	6
551.115	1	-4
551.285	1	-8
551.455	1	-11
551.625	1	0
551.795	1	6
551.965	1	-5
552.135	1	-3
552.305	1	1
552.475	1	2
552.645	1	19
552.815	1	-5
552.985	1	-2
553.155	1	-5
553.325	1	5
553.495	1	-1
553.665	1	9
553.835	1	-7
554.004	1	4
554.174	1	2
554.344	1	-5
554.514	1	1
554.684	1	-1
554.854	1	-8
555.024	1	14
555.194	1	7
555.364	1	16
555.534	1	11
555.704	1	-8
555.874	1	6
556.044	1	5
556.214	1	-9
556.384	1	2
556.554	1	-3
556.724	1	0
556.894	1	5
557.064	1	2
557.234	1	5
557.404	1	0
557.573	1	0
557.743	1	9
557.913	1	3
558.083	1	2
558.253	1	1
558.423	1	-1
558.593	1	-1
558.763	1	-2
558.933	1	1
559.103	1	-6
559.273	1	-3
559.443	1	3
559.613	1	-6
559.783	1	-3
559.953	1	-8
560.122	1	0
560.292	1	-2
560.462	1	-12
560.632	1	0
560.802	1	-3
560.972	1	2
561.142	1	7
561.312	1	9
561.482	1	-2
561.652	1	-2
561.822	1	-2
561.992	1	1
562.162	1	6
562.331	1	-2
562.501	1	-6
562.671	1	10
562.841	1	14
563.011	1	13
563.181	1	17
563.351	1	-3
563.521	1	5
563.691	1	-9
563.861	1	11
564.031	1	-3
564.201	1	-4
564.370	1	0
564.540	1	10
564.710	1	14
564.880	1	7
565.050	1	-7
565.220	1	-1
565.390	1	6
565.560	1	4
565.730	1	8
565.900	1	-1
566.069	1	8
566.239	1	-14
566.409	1	7
566.579	1	3
566.749	1	10
566.919	1	-3
567.089	1	0
567.259	1	0
567.429	1	2
567.599	1	-12
567.768	1	-1
567.938	1	-8
568.108	1	8
568.278	1	4
568.448	1	1
568.618	1	7
568.788	1	-2
568.958	1	9
569.128	1	8
569.297	1	-1
569.467	1	-1
569.637	1	-5
569.807	1	0
569.977	1	6
570.147	1	0
570.317	1	22
570.487	1	7
570.656	1	2
570.826	1	4
570.996	1	-2
571.166	1	6
571.336	1	7
571.506	1	4
571.676	1	9
571.846	1	-7
572.015	1	-1
572.185	1	1
572.355	1	6
572.525	1	3
572.695	1	9
572.865	1	-8
573.035	1	4
573.205	1	-7
573.374	1	-4
573.544	1	4
573.714	1	6
573.884	1	7
574.054	1	1
574.224	1	4
574.394	1	1
574.563	1	2
574.733	1	-4
574.903	1	7
575.073	1	3
575.243	1	5
575.413	1	1
575.583	1	-6
575.752	1	-6
575.922	1	-7
576.092	1	-9
576.262	1	9
576.432	1	1
576.602	1	0
576.772	1	-5
576.941	1	0
577.111	1	6
577.281	1	3
577.451	1	12
577.621	1	4
577.791	1	-11
577.960	1	10
578.130	1	-10
578.300	1	4
578.470	1	1
578.640	1	5
578.810	1	4
578.979	1	0
579.149	1	-12
579.319	1	-4
579.489	1	6
579.659	1	-4
579.829	1	2
579.998	1	4
580.168	1	3
580.338	1	-2
580.508	1	4
580.678	1	0
580.848	1	-7
581.017	1	11
581.187	1	3
581.357	1	-11
581.527	1	8
581.697	1	3
581.867	1	-5
582.036	1	1
582.206	1	7
582.376	1	-4
582.546	1	2
582.716	1	1
582.885	1	5
583.055	1	-2
583.225	1	-1
583.395	1	5
583.565	1	13
583.735	1	-3
583.904	1	-5
584.074	1	8
584.244	1	0
584.414	1	6
584.584	1	-11
584.753	1	1
584.923	1	1
585.093	1	-4
585.263	1	1
585.433	1	2
585.602	1	0
585.772	1	-4
585.942	1	0
586.112	1	0
586.282	1	4
586.451	1	-15
586.621	1	1
586.791	1	6
586.961	1	-3
587.131	1	9
587.300	1	-12
587.470	1	-8
587.640	1	-8
587.810	1	-1
587.980	1	3
588.149	1	6
588.319	1	4
588.489	1	0
588.659	1	0
588.829	1	-2
588.998	1	12
589.168	1	1
589.338	1	6
589.508	1	-1
589.677	1	0
589.847	1	7
590.017	1	8
590.187	1	-3
590.357	1	1
590.526	1	4
590.696	1	8
590.866	1	2
591.036	1	1
591.205	1	-6
591.375	1	0
591.545	1	2
591.715	1	4
591.885	1	6
592.054	1	7
592.224	1	4
592.394	1	0
592.564	1	-3
592.733	1	8
592.903	1	-1
593.073	1	10
593.243	1	-6
593.412	1	4
593.582	1	8
593.752	1	5
593.922	1	-10
594.091	1	9
594.261	1	-8
594.431	1	-4
594.601	1	5
594.771	1	-15
594.940	1	6
595.110	1	0
595.280	1	1
595.450	1	4
595.619	1	2
595.789	1	0
595.959	1	-2
596.129	1	6
596.298	1	-1
596.468	1	4
596.638	1	15
596.808	1	14
596.977	1	7
597.147	1	11
597.317	1	13
597.487	1	-4
597.656	1	-8
597.826	1	3
597.996	1	4
598.166	1	-3
598.335	1	2
598.505	1	11
598.675	1	4
598.844	1	6
599.014	1	-8
599.184	1	8
599.354	1	-6
599.523	1	-2
599.693	1	1
599.863	1	-3
600.033	1	-5
600.202	1	0
600.372	1	3
600.542	1	15
600.712	1	4
600.881	1	6
601.051	1	2
601.221	1	-3
601.390	1	2
601.560	1	-6
601.730	1	13
601.900	1	2
602.069	1	7
602.239	1	-7
602.409	1	19
602.578	1	-5
602.748	1	2
602.918	1	-6
603.088	1	13
603.257	1	9
603.427	1	0
603.597	1	2
603.767	1	5
603.936	1	12
604.106	1	9
604.276	1	1
604.445	1	5
604.615	1	-9
604.785	1	-4
604.954	1	6
605.124	1	0
605.294	1	13
605.464	1	18
605.633	1	1
605.803	1	-12
605.973	1	-2
606.142	1	5
606.312	1	-4
606.482	1	-2
606.652	1	8
606.821	1	8
606.991	1	5
607.161	1	18
607.330	1	-3
607.500	1	2
607.670	1	-7
607.839	1	8
608.009	1	-4
608.179	1	3
608.348	1	8
608.518	1	-4
608.688	1	7
608.858	1	3
609.027	1	1
609.197	1	8
609.367	1	-3
609.536	1	3
609.706	1	0
609.876	1	-11
610.045	1	3
610.215	1	4
610.385	1	8
610.554	1	1
610.724	1	5
610.894	1	11
611.063	1	-11
611.233	1	6
611.403	1	-6
611.572	1	13
611.742	1	4
611.912	1	1
612.081	1	1
612.251	1	7
612.421	1	-4
612.590	1	-3
612.760	1	-1
612.930	1	-1
613.099	1	6
613.269	1	0
613.439	1	-1
613.608	1	19
613.778	1	4
613.948	1	3
614.117	1	4
614.287	1	5
614.457	1	0
614.626	1	-5
614.796	1	3
614.966	1	1
615.135	1	-2
615.305	1	0
615.475	1	6
615.644	1	12
615.814	1	-5
615.984	1	-4
616.153	1	-6
616.323	1	-1
616.493	1	2
616.662	1	7
616.832	1	11
617.002	1	8
617.171	1	-4
617.341	1	-3
617.511	1	-4
617.680	1	2
617.850	1	-5
618.019	1	0
618.189	1	4
618.359	1	5
618.528	1	11
618.698	1	8
618.868	1	10
619.037	1	8
619.207	1	1
619.377	1	5
619.546	1	1
619.716	1	-3
619.885	1	2
620.055	1	5
620.225	1	8
620.394	1	10
620.564	1	4
620.734	1	-1
620.903	1	10
621.073	1	6
621.242	1	-13
621.412	1	-3
621.582	1	-1
621.751	1	4
621.921	1	-3
622.091	1	1
622.260	1	5
622.430	1	2
622.599	1	7
622.769	1	-2
622.939	1	4
623.108	1	3
623.278	1	9
623.448	1	-4
623.617	1	2
623.787	1	7
623.956	1	4
624.126	1	12
624.296	1	18
624.465	1	4
624.635	1	-5
624.804	1	-1
624.974	1	-2
625.144	1	11
625.313	1	3
625.483	1	8
625.652	1	1
625.822	1	1
625.992	1	0
626.161	1	-4
626.331	1	-2
626.501	1	11
626.670	1	-4
626.840	1	-5
627.009	1	-3
627.179	1	3
627.348	1	1
627.518	1	15
627.688	1	4
627.857	1	-3
628.027	1	8
628.196	1	7
628.366	1	-3
628.536	1	-2
628.705	1	-1
628.875	1	1
629.044	1	-3
629.214	1	8
629.384	1	4
629.553	1	4
629.723	1	-4
629.892	1	-1
630.062	1	13
630.232	1	-7
630.401	1	5
630.571	1	0
630.740	1	2
630.910	1	3
631.079	1	-1
631.249	1	-11
631.419	1	12
631.588	1	-1
631.758	1	-1
631.927	1	0
632.097	1	8
632.266	1	-6
632.436	1	-8
632.606	1	6
632.775	1	5
632.945	1	-9
633.114	1	-9
633.284	1	0
633.453	1	-4
633.623	1	0
633.793	1	2
633.962	1	5
634.132	1	8
634.301	1	8
634.471	1	6
634.640	1	8
634.810	1	11
634.979	1	7
635.149	1	0
635.319	1	5
635.488	1	-1
635.658	1	-3
635.827	1	3
635.997	1	-4
636.166	1	4
636.336	1	6
636.505	1	13
636.675	1	1
636.845	1	12
637.014	1	10
637.184	1	1
637.353	1	-2
637.523	1	10
637.692	1	8
637.862	1	-2
638.031	1	4
638.201	1	2
638.370	1	4
638.540	1	7
638.710	1	-2
638.879	1	0
639.049	1	10
639.218	1	1
639.388	1	11
639.557	1	6
639.727	1	5
639.896	1	7
640.066	1	-6
640.235	1	10
640.405	1	-6
640.574	1	-2
640.744	1	10
640.914	1	13
641.083	1	0
641.253	1	0
641.422	1	8
641.592	1	2
641.761	1	8
641.931	1	-4
642.100	1	11
642.270	1	11
642.439	1	-7
642.609	1	12
642.778	1	5
642.948	1	6
643.117	1	-3
643.287	1	-2
643.456	1	-9
643.626	1	1
643.795	1	6
643.965	1	3
644.134	1	3
644.304	1	10
644.473	1	3
644.643	1	-4
644.812	1	1
644.982	1	4
645.151	1	1
645.321	1	-5
645.490	1	11
645.660	1	7
645.829	1	4
645.999	1	11
646.168	1	0
646.338	1	-3
646.507	1	-7
646.677	1	8
646.846	1	4
647.016	1	0
647.185	1	4
647.355	1	1
647.524	1	3
647.694	1	1
647.863	1	12
648.033	1	6
648.202	1	5
648.372	1	-2
648.541	1	-1
648.711	1	-4
648.880	1	12
649.050	1	9
649.219	1	-2
649.389	1	11
649.558	1	-5
649.728	1	3
649.897	1	-2
650.067	1	-8
650.236	1	13
650.406	1	-11
650.575	1	11
650.745	1	0
650.914	1	0
651.084	1	-5
651.253	1	5
651.423	1	2
651.592	1	-1
651.762	1	-7
651.931	1	6
652.101	1	5
652.270	1	2
652.440	1	9
652.609	1	1
652.778	1	3
652.948	1	2
653.117	1	15
653.287	1	1
653.456	1	6
653.626	1	1
653.795	1	9
653.965	1	8
654.134	1	-9
654.304	1	-4
654.473	1	8
654.643	1	9
654.812	1	-7
654.982	1	-2
655.151	1	6
655.320	1	1
655.490	1	0
655.659	1	2
655.829	1	-14
655.998	1	5
656.168	1	-9
656.337	1	-4
656.507	1	0
656.676	1	9
656.846	1	-1
657.015	1	13
657.184	1	-13
657.354	1	-7
657.523	1	1
657.693	1	2
657.862	1	0
658.032	1	-9
658.201	1	-5
658.371	1	8
658.540	1	16
658.709	1	-1
658.879	1	-11
659.048	1	3
659.218	1	1
659.387	1	5
659.557	1	-2
659.726	1	9
659.895	1	-6
660.065	1	2
660.234	1	3
660.404	1	8
660.573	1	-1
660.743	1	8
660.912	1	7
661.081	1	4
661.251	1	-3
661.420	1	2
661.590	1	1
661.759	1	1
661.929	1	15
662.098	1	6
662.267	1	1
662.437	1	8
662.606	1	11
662.776	1	3
662.945	1	6
663.115	1	-13
663.284	1	-2
663.453	1	-7
663.623	1	3
663.792	1	8
663.962	1	-5
664.131	1	-4
664.300	1	2
664.470	1	0
664.639	1	-1
664.809	1	-4
664.978	1	0
665.148	1	10
665.317	1	5
665.486	1	-1
665.656	1	2
665.825	1	4
665.995	1	15
666.164	1	8
666.333	1	2
666.503	1	7
666.672	1	4
666.842	1	-5
667.011	1	-5
667.180	1	1
667.350	1	10
667.519	1	-3
667.689	1	16
667.858	1	14
668.027	1	3
668.197	1	2
668.366	1	8
668.536	1	-4
668.705	1	13
668.874	1	5
669.044	1	14
669.213	1	3
669.382	1	9
669.552	1	-4
669.721	1	2
669.891	1	-7
670.060	1	3
670.229	1	-1
670.399	1	9
670.568	1	7
670.738	1	-2
670.907	1	-1
671.076	1	4
671.246	1	-6
671.415	1	2
671.584	1	-4
671.754	1	6
671.923	1	4
672.093	1	3
672.262	1	8
672.431	1	11
672.601	1	3
672.770	1	-5
672.939	1	0
673.109	1	-4
673.278	1	9
673.448	1	0
673.617	1	-5
673.786	1	-3
