325.333	1	1
325.504	1	17
325.675	1	-3
325.846	1	4
326.017	1	6
326.188	1	-7
326.359	1	9
326.531	1	-7
326.702	1	1
326.873	1	5
327.044	1	3
327.215	1	1
327.386	1	-2
327.557	1	14
327.728	1	-7
327.899	1	-3
328.070	1	-3
328.241	1	7
328.412	1	-3
328.583	1	6
328.754	1	-7
328.926	1	3
329.097	1	3
329.268	1	4
329.439	1	7
329.610	1	0
329.781	1	13
329.952	1	-5
330.123	1	-5
330.294	1	-4
330.465	1	11
330.636	1	-1
330.807	1	2
330.978	1	8
331.149	1	5
331.320	1	-4
331.492	1	9
331.663	1	2
331.834	1	9
332.005	1	-6
332.176	1	1
332.347	1	3
332.518	1	0
332.689	1	8
332.860	1	5
333.031	1	-2
333.202	1	10
333.373	1	4
333.544	1	-5
333.715	1	2
333.886	1	-1
334.057	1	-2
334.228	1	6
334.399	1	7
334.570	1	9
334.741	1	11
334.912	1	6
335.084	1	3
335.255	1	5
335.426	1	1
335.597	1	9
335.768	1	-5
335.939	1	5
336.110	1	1
336.281	1	2
336.452	1	7
336.623	1	4
336.794	1	-3
336.965	1	2
337.136	1	5
337.307	1	7
337.478	1	-1
337.649	1	-5
337.820	1	-2
337.991	1	9
338.162	1	6
338.333	1	3
338.504	1	-10
338.675	1	2
338.846	1	-2
339.017	1	4
339.188	1	-1
339.359	1	7
339.530	1	8
339.701	1	-6
339.872	1	-7
340.043	1	8
340.214	1	13
340.385	1	5
340.556	1	8
340.727	1	-4
340.898	1	5
341.069	1	10
341.240	1	13
341.411	1	7
341.582	1	11
341.753	1	12
341.924	1	-2
342.095	1	-1
342.266	1	-6
342.437	1	1
342.608	1	-9
342.779	1	-2
342.950	1	6
343.121	1	3
343.292	1	4
343.463	1	6
343.634	1	9
343.805	1	2
343.976	1	6
344.147	1	8
344.318	1	-2
344.489	1	-3
344.660	1	-2
344.831	1	-1
345.002	1	10
345.173	1	7
345.344	1	4
345.515	1	7
345.686	1	3
345.857	1	6
346.028	1	5
346.199	1	6
346.370	1	2
346.541	1	7
346.712	1	-5
346.883	1	15
347.054	1	-5
347.225	1	3
347.396	1	12
347.567	1	6
347.738	1	1
347.909	1	1
348.080	1	-6
348.251	1	-1
348.422	1	9
348.593	1	5
348.764	1	3
348.935	1	2
349.106	1	-1
349.277	1	14
349.448	1	6
349.619	1	3
349.790	1	10
349.961	1	4
350.132	1	1
350.303	1	9
350.474	1	2
350.645	1	-5
350.816	1	7
350.987	1	-11
351.157	1	1
351.328	1	5
351.499	1	0
351.670	1	11
351.841	1	-1
352.012	1	2
352.183	1	-4
352.354	1	0
352.525	1	4
352.696	1	3
352.867	1	-5
353.038	1	10
353.209	1	9
353.380	1	3
353.551	1	13
353.722	1	2
353.893	1	-3
354.064	1	5
354.235	1	-3
354.406	1	3
354.576	1	0
354.747	1	16
354.918	1	5
355.089	1	11
355.260	1	7
355.431	1	5
355.602	1	3
355.773	1	4
355.944	1	-5
356.115	1	-1
356.286	1	5
356.457	1	13
356.628	1	14
356.799	1	5
356.970	1	3
357.141	1	18
357.311	1	9
357.482	1	9
357.653	1	-4
357.824	1	12
357.995	1	4
358.166	1	1
358.337	1	3
358.508	1	5
358.679	1	13
358.850	1	9
359.021	1	5
359.192	1	6
359.363	1	1
359.533	1	2
359.704	1	7
359.875	1	19
360.046	1	6
360.217	1	5
360.388	1	-2
360.559	1	7
360.730	1	-5
360.901	1	5
361.072	1	-6
361.243	1	10
361.414	1	4
361.584	1	15
361.755	1	2
361.926	1	3
362.097	1	11
362.268	1	5
362.439	1	3
362.610	1	1
362.781	1	-3
362.952	1	4
363.123	1	5
363.293	1	5
363.464	1	-1
363.635	1	9
363.806	1	15
363.977	1	3
364.148	1	-6
364.319	1	-6
364.490	1	1
364.661	1	0
364.832	1	8
365.002	1	13
365.173	1	7
365.344	1	-9
365.515	1	7
365.686	1	8
365.857	1	11
366.028	1	1
366.199	1	8
366.370	1	8
366.540	1	10
366.711	1	6
366.882	1	1
367.053	1	9
367.224	1	0
367.395	1	6
367.566	1	12
367.737	1	15
367.908	1	1
368.078	1	15
368.249	1	-2
368.420	1	-2
368.591	1	18
368.762	1	12
368.933	1	2
369.104	1	12
369.274	1	7
369.445	1	12
369.616	1	3
369.787	1	3
369.958	1	9
370.129	1	10
370.300	1	0
370.471	1	12
370.641	1	3
370.812	1	2
370.983	1	2
371.154	1	7
371.325	1	8
371.496	1	3
371.667	1	10
371.837	1	1
372.008	1	11
372.179	1	11
372.350	1	6
372.521	1	8
372.692	1	9
372.863	1	6
373.033	1	7
373.204	1	-1
373.375	1	6
373.546	1	13
373.717	1	2
373.888	1	5
374.059	1	22
374.229	1	5
374.400	1	6
374.571	1	2
374.742	1	3
374.913	1	-2
375.084	1	10
375.254	1	19
375.425	1	-2
375.596	1	4
375.767	1	0
375.938	1	11
376.109	1	-4
376.279	1	5
376.450	1	0
376.621	1	7
376.792	1	15
376.963	1	11
377.134	1	7
377.304	1	11
377.475	1	12
377.646	1	5
377.817	1	-6
377.988	1	-4
378.159	1	5
378.329	1	9
378.500	1	3
378.671	1	9
378.842	1	1
379.013	1	7
379.184	1	14
379.354	1	-5
379.525	1	8
379.696	1	6
379.867	1	7
380.038	1	-6
380.209	1	-2
380.379	1	10
380.550	1	6
380.721	1	15
380.892	1	8
381.063	1	2
381.233	1	-4
381.404	1	17
381.575	1	2
381.746	1	4
381.917	1	-6
382.087	1	13
382.258	1	2
382.429	1	10
382.600	1	5
382.771	1	10
382.941	1	4
383.112	1	7
383.283	1	12
383.454	1	7
383.625	1	2
383.795	1	7
383.966	1	-1
384.137	1	12
384.308	1	3
384.479	1	9
384.649	1	9
384.820	1	4
384.991	1	5
385.162	1	5
385.333	1	13
385.503	1	2
385.674	1	1
385.845	1	5
386.016	1	8
386.187	1	4
386.357	1	18
386.528	1	5
386.699	1	2
386.870	1	12
387.041	1	-1
387.211	1	10
387.382	1	5
387.553	1	6
387.724	1	-1
387.894	1	3
388.065	1	4
388.236	1	6
388.407	1	9
388.578	1	-4
388.748	1	8
388.919	1	21
389.090	1	15
389.261	1	12
389.431	1	6
389.602	1	8
389.773	1	4
389.944	1	6
390.114	1	9
390.285	1	2
390.456	1	-6
390.627	1	16
390.798	1	17
390.968	1	4
391.139	1	-6
391.310	1	12
391.481	1	1
391.651	1	13
391.822	1	10
391.993	1	9
392.164	1	-9
392.334	1	12
392.505	1	4
392.676	1	12
392.847	1	5
393.017	1	26
393.188	1	-3
393.359	1	15
393.530	1	11
393.700	1	2
393.871	1	3
394.042	1	-3
394.213	1	11
394.383	1	5
394.554	1	3
394.725	1	7
394.896	1	9
395.066	1	14
395.237	1	0
395.408	1	11
395.579	1	9
395.749	1	15
395.920	1	11
396.091	1	10
396.262	1	12
396.432	1	4
396.603	1	9
396.774	1	10
396.945	1	12
397.115	1	12
397.286	1	2
397.457	1	14
397.627	1	10
397.798	1	4
397.969	1	5
398.140	1	6
398.310	1	7
398.481	1	2
398.652	1	18
398.823	1	8
398.993	1	5
399.164	1	8
399.335	1	3
399.505	1	8
399.676	1	1
399.847	1	5
400.018	1	9
400.188	1	10
400.359	1	8
400.530	1	8
400.700	1	1
400.871	1	17
401.042	1	9
401.213	1	2
401.383	1	4
401.554	1	8
401.725	1	11
401.895	1	15
402.066	1	5
402.237	1	8
402.408	1	8
402.578	1	7
402.749	1	9
402.920	1	3
403.090	1	0
403.261	1	12
403.432	1	9
403.603	1	5
403.773	1	14
403.944	1	11
404.115	1	10
404.285	1	5
404.456	1	15
404.627	1	3
404.797	1	-4
404.968	1	18
405.139	1	3
405.310	1	2
405.480	1	10
405.651	1	17
405.822	1	15
405.992	1	7
406.163	1	6
406.334	1	5
406.504	1	10
406.675	1	2
406.846	1	13
407.016	1	11
407.187	1	17
407.358	1	14
407.528	1	1
407.699	1	6
407.870	1	-6
408.041	1	6
408.211	1	1
408.382	1	13
408.553	1	12
408.723	1	14
408.894	1	3
409.065	1	22
409.235	1	12
409.406	1	11
409.577	1	4
409.747	1	13
409.918	1	4
410.089	1	15
410.259	1	20
410.430	1	10
410.601	1	11
410.771	1	18
410.942	1	9
411.113	1	-4
411.283	1	11
411.454	1	10
411.625	1	14
411.795	1	7
411.966	1	20
412.137	1	8
412.307	1	13
412.478	1	8
412.649	1	-1
412.819	1	11
412.990	1	11
413.161	1	11
413.331	1	10
413.502	1	6
413.672	1	9
413.843	1	15
414.014	1	13
414.184	1	-3
414.355	1	18
414.526	1	13
414.696	1	14
414.867	1	11
415.038	1	-1
415.208	1	14
415.379	1	7
415.550	1	13
415.720	1	10
415.891	1	1
416.062	1	-3
416.232	1	3
416.403	1	8
416.573	1	17
416.744	1	6
416.915	1	19
417.085	1	19
417.256	1	13
417.427	1	11
417.597	1	6
417.768	1	1
417.939	1	10
418.109	1	8
418.280	1	8
418.450	1	9
418.621	1	5
418.792	1	0
418.962	1	11
419.133	1	7
419.304	1	5
419.474	1	3
419.645	1	3
419.815	1	11
419.986	1	3
420.157	1	0
420.327	1	8
420.498	1	2
420.669	1	10
420.839	1	14
421.010	1	22
421.180	1	15
421.351	1	13
421.522	1	-4
421.692	1	18
421.863	1	5
422.033	1	19
422.204	1	12
422.375	1	11
422.545	1	4
422.716	1	7
422.886	1	6
423.057	1	4
423.228	1	1
423.398	1	10
423.569	1	4
423.740	1	-4
423.910	1	3
424.081	1	8
424.251	1	6
424.422	1	12
424.593	1	8
424.763	1	7
424.934	1	10
425.104	1	13
425.275	1	10
425.445	1	14
425.616	1	-1
425.787	1	2
425.957	1	9
426.128	1	-4
426.298	1	0
426.469	1	-2
426.640	1	19
426.810	1	5
426.981	1	11
427.151	1	9
427.322	1	2
427.493	1	5
427.663	1	10
427.834	1	20
428.004	1	-4
428.175	1	1
428.345	1	6
428.516	1	13
428.687	1	6
428.857	1	1
429.028	1	8
429.198	1	3
429.369	1	13
429.540	1	0
429.710	1	2
429.881	1	4
430.051	1	8
430.222	1	8
430.392	1	14
430.563	1	11
430.734	1	22
430.904	1	10
431.075	1	13
431.245	1	19
431.416	1	2
431.586	1	6
431.757	1	13
431.927	1	5
432.098	1	12
432.269	1	10
432.439	1	25
432.610	1	20
432.780	1	11
432.951	1	14
433.121	1	12
433.292	1	1
433.462	1	4
433.633	1	2
433.804	1	17
433.974	1	7
434.145	1	12
434.315	1	6
434.486	1	7
434.656	1	2
434.827	1	8
434.997	1	1
435.168	1	10
435.339	1	4
435.509	1	8
435.680	1	7
435.850	1	-3
436.021	1	4
436.191	1	5
436.362	1	10
436.532	1	15
436.703	1	-1
436.873	1	16
437.044	1	4
437.214	1	13
437.385	1	4
437.556	1	7
437.726	1	0
437.897	1	5
438.067	1	-5
438.238	1	8
438.408	1	0
438.579	1	4
438.749	1	9
438.920	1	4
439.090	1	13
439.261	1	7
439.431	1	11
439.602	1	7
439.772	1	10
439.943	1	2
440.113	1	-4
440.284	1	1
440.455	1	4
440.625	1	14
440.796	1	11
440.966	1	3
441.137	1	14
441.307	1	16
441.478	1	7
441.648	1	0
441.819	1	15
441.989	1	0
442.160	1	0
442.330	1	10
442.501	1	14
442.671	1	3
442.842	1	2
443.012	1	5
443.183	1	14
443.353	1	9
443.524	1	1
443.694	1	2
443.865	1	1
444.035	1	1
444.206	1	8
444.376	1	2
444.547	1	16
444.717	1	14
444.888	1	7
445.058	1	18
445.229	1	7
445.399	1	15
445.570	1	14
445.740	1	14
445.911	1	-6
446.081	1	17
446.252	1	8
446.422	1	3
446.593	1	-6
446.763	1	15
446.934	1	6
447.104	1	9
447.275	1	-4
447.445	1	-1
447.616	1	0
447.786	1	12
447.957	1	7
448.127	1	0
448.298	1	-11
448.468	1	5
448.639	1	7
448.809	1	12
448.979	1	-2
449.150	1	10
449.320	1	4
449.491	1	6
449.661	1	7
449.832	1	7
450.002	1	-13
450.173	1	3
450.343	1	16
450.514	1	4
450.684	1	5
450.855	1	16
451.025	1	2
451.196	1	1
451.366	1	1
451.537	1	5
451.707	1	6
451.878	1	-8
452.048	1	6
452.218	1	10
452.389	1	14
452.559	1	18
452.730	1	-1
452.900	1	6
453.071	1	-3
453.241	1	-2
453.412	1	4
453.582	1	9
453.753	1	-1
453.923	1	5
454.093	1	6
454.264	1	6
454.434	1	5
454.605	1	13
454.775	1	10
454.946	1	6
455.116	1	4
455.287	1	10
455.457	1	5
455.628	1	8
455.798	1	7
455.968	1	7
456.139	1	12
456.309	1	22
456.480	1	3
456.650	1	-6
456.821	1	6
456.991	1	5
457.161	1	0
457.332	1	16
457.502	1	10
457.673	1	11
457.843	1	-3
458.014	1	9
458.184	1	6
458.355	1	11
458.525	1	4
458.695	1	11
458.866	1	8
459.036	1	4
459.207	1	12
459.377	1	9
459.548	1	15
459.718	1	3
459.888	1	6
460.059	1	12
460.229	1	6
460.400	1	6
460.570	1	12
460.740	1	1
460.911	1	3
461.081	1	0
461.252	1	7
461.422	1	-3
461.593	1	3
461.763	1	6
461.933	1	3
462.104	1	8
462.274	1	8
462.445	1	2
462.615	1	8
462.785	1	-1
462.956	1	3
463.126	1	6
463.297	1	17
463.467	1	8
463.638	1	-5
463.808	1	-5
463.978	1	9
464.149	1	10
464.319	1	6
464.490	1	9
464.660	1	27
464.830	1	10
465.001	1	-3
465.171	1	-3
465.342	1	-3
465.512	1	3
465.682	1	9
465.853	1	12
466.023	1	23
466.194	1	-3
466.364	1	2
466.534	1	-4
466.705	1	10
466.875	1	12
467.045	1	7
467.216	1	7
467.386	1	6
467.557	1	22
467.727	1	5
467.897	1	18
468.068	1	-3
468.238	1	-2
468.409	1	7
468.579	1	15
468.749	1	6
468.920	1	8
469.090	1	-4
469.260	1	14
469.431	1	1
469.601	1	3
469.772	1	7
469.942	1	8
470.112	1	-6
470.283	1	3
470.453	1	12
470.623	1	5
470.794	1	2
470.964	1	16
471.135	1	7
471.305	1	2
471.475	1	3
471.646	1	7
471.816	1	7
471.986	1	-6
472.157	1	6
472.327	1	7
472.497	1	6
472.668	1	-2
472.838	1	13
473.009	1	7
473.179	1	6
473.349	1	8
473.520	1	-6
473.690	1	-5
473.860	1	-7
474.031	1	5
474.201	1	7
474.371	1	16
474.542	1	15
474.712	1	-3
474.882	1	11
475.053	1	3
475.223	1	3
475.394	1	-6
475.564	1	1
475.734	1	1
475.905	1	6
476.075	1	2
476.245	1	14
476.416	1	2
476.586	1	10
476.756	1	-3
476.927	1	7
477.097	1	14
477.267	1	0
477.438	1	3
477.608	1	6
477.778	1	12
477.949	1	2
478.119	1	5
478.289	1	2
478.460	1	2
478.630	1	9
478.800	1	7
478.971	1	5
479.141	1	3
479.311	1	6
479.482	1	-14
479.652	1	14
479.822	1	-2
479.993	1	11
480.163	1	-1
480.333	1	19
480.504	1	-3
480.674	1	-1
480.844	1	5
481.015	1	6
481.185	1	3
481.355	1	-2
481.525	1	-1
481.696	1	0
481.866	1	3
482.036	1	3
482.207	1	5
482.377	1	6
482.547	1	-1
482.718	1	1
482.888	1	-10
483.058	1	0
483.229	1	4
483.399	1	8
483.569	1	8
483.740	1	7
483.910	1	15
484.080	1	15
484.250	1	-6
484.421	1	7
484.591	1	3
484.761	1	-3
484.932	1	22
485.102	1	-8
485.272	1	5
485.443	1	16
485.613	1	5
485.783	1	5
485.953	1	-2
486.124	1	-1
486.294	1	5
486.464	1	11
486.635	1	-13
486.805	1	10
486.975	1	1
487.146	1	0
487.316	1	-6
487.486	1	-2
487.656	1	6
487.827	1	5
487.997	1	13
488.167	1	5
488.338	1	6
488.508	1	0
488.678	1	3
488.848	1	3
489.019	1	-1
489.189	1	7
489.359	1	5
489.529	1	1
489.700	1	-6
489.870	1	-1
490.040	1	-10
490.211	1	3
490.381	1	22
490.551	1	1
490.721	1	10
490.892	1	15
491.062	1	-2
491.232	1	7
491.402	1	0
491.573	1	3
491.743	1	-4
491.913	1	5
492.084	1	1
492.254	1	10
492.424	1	4
492.594	1	2
492.765	1	7
492.935	1	2
493.105	1	-2
493.275	1	2
493.446	1	0
493.616	1	-6
493.786	1	8
493.956	1	3
494.127	1	5
494.297	1	13
494.467	1	3
494.637	1	9
494.808	1	2
494.978	1	-11
495.148	1	7
495.318	1	9
495.489	1	5
495.659	1	-3
495.829	1	16
495.999	1	6
496.170	1	1
496.340	1	-1
496.510	1	17
496.680	1	13
496.851	1	20
497.021	1	16
497.191	1	13
497.361	1	7
497.532	1	0
497.702	1	6
497.872	1	2
498.042	1	14
498.213	1	0
498.383	1	6
498.553	1	2
498.723	1	-11
498.894	1	11
499.064	1	-6
499.234	1	5
499.404	1	4
499.574	1	0
499.745	1	2
499.915	1	3
500.085	1	0
500.255	1	1
500.426	1	-2
500.596	1	10
500.766	1	9
500.936	1	-1
501.106	1	3
501.277	1	9
501.447	1	2
501.617	1	0
501.787	1	6
501.958	1	-3
502.128	1	2
502.298	1	12
502.468	1	9
502.638	1	9
502.809	1	3
502.979	1	8
503.149	1	7
503.319	1	1
503.489	1	8
503.660	1	1
503.830	1	1
504.000	1	-3
504.170	1	1
504.340	1	6
504.511	1	10
504.681	1	-2
504.851	1	0
505.021	1	4
505.192	1	-2
505.362	1	8
505.532	1	7
505.702	1	2
505.872	1	11
506.043	1	-10
506.213	1	-4
506.383	1	-1
506.553	1	12
506.723	1	1
506.893	1	-4
507.064	1	7
507.234	1	-1
507.404	1	11
507.574	1	-1
507.744	1	0
507.915	1	8
508.085	1	5
508.255	1	1
508.425	1	8
508.595	1	0
508.766	1	12
508.936	1	-1
509.106	1	3
509.276	1	3
509.446	1	-10
509.616	1	21
509.787	1	10
509.957	1	4
510.127	1	5
510.297	1	7
510.467	1	3
510.638	1	-6
510.808	1	-4
510.978	1	8
511.148	1	3
511.318	1	13
511.488	1	6
511.659	1	-5
511.829	1	3
511.999	1	3
512.169	1	-8
512.339	1	7
512.509	1	4
512.680	1	-5
512.850	1	8
513.020	1	4
513.190	1	9
513.360	1	5
513.530	1	-2
513.700	1	1
513.871	1	7
514.041	1	8
514.211	1	14
514.381	1	-1
514.551	1	-2
514.721	1	7
514.892	1	2
515.062	1	4
515.232	1	-6
515.402	1	10
515.572	1	-2
515.742	1	17
515.912	1	17
516.083	1	4
516.253	1	-1
516.423	1	0
516.593	1	3
516.763	1	0
516.933	1	-6
517.104	1	2
517.274	1	5
517.444	1	-4
517.614	1	-1
517.784	1	3
517.954	1	12
518.124	1	-8
518.294	1	15
518.465	1	4
518.635	1	-6
518.805	1	1
518.975	1	6
519.145	1	2
519.315	1	9
519.485	1	10
519.656	1	8
519.826	1	10
519.996	1	0
520.166	1	4
520.336	1	13
520.506	1	-4
520.676	1	1
520.846	1	14
521.017	1	-3
521.187	1	1
521.357	1	1
521.527	1	-3
521.697	1	0
521.867	1	-3
522.037	1	3
522.207	1	-5
522.377	1	5
522.548	1	-4
522.718	1	6
522.888	1	-2
523.058	1	1
523.228	1	8
523.398	1	-7
523.568	1	2
523.738	1	1
523.909	1	5
524.079	1	22
524.249	1	-2
524.419	1	0
524.589	1	11
524.759	1	-1
524.929	1	0
525.099	1	13
525.269	1	2
525.439	1	-2
525.610	1	-1
525.780	1	7
525.950	1	4
526.120	1	1
526.290	1	1
526.460	1	9
526.630	1	3
526.800	1	13
526.970	1	0
527.140	1	8
527.311	1	-3
527.481	1	-7
527.651	1	-5
527.821	1	-7
527.991	1	0
528.161	1	5
528.331	1	1
528.501	1	-10
528.671	1	12
528.841	1	9
529.011	1	-5
529.181	1	5
529.352	1	7
529.522	1	-9
529.692	1	-2
529.862	1	8
530.032	1	-4
530.202	1	3
530.372	1	0
530.542	1	11
530.712	1	-2
530.882	1	-5
531.052	1	3
531.222	1	-12
531.392	1	1
531.563	1	6
531.733	1	13
531.903	1	5
532.073	1	-1
532.243	1	13
532.413	1	2
532.583	1	-8
532.753	1	3
532.923	1	11
533.093	1	-1
533.263	1	-9
533.433	1	17
533.603	1	0
533.773	1	1
533.943	1	5
534.113	1	4
534.284	1	7
534.454	1	-1
534.624	1	-6
534.794	1	2
534.964	1	13
535.134	1	-1
535.304	1	8
535.474	1	-13
535.644	1	11
535.814	1	-2
535.984	1	-6
536.154	1	-2
536.324	1	0
536.494	1	5
536.664	1	-6
536.834	1	2
537.004	1	-7
537.174	1	0
537.344	1	5
537.514	1	1
537.685	1	6
537.855	1	1
538.025	1	-6
538.195	1	8
538.365	1	3
538.535	1	-4
538.705	1	2
538.875	1	17
539.045	1	2
539.215	1	10
539.385	1	-6
539.555	1	3
539.725	1	2
539.895	1	10
540.065	1	-2
540.235	1	3
540.405	1	10
540.575	1	4
540.745	1	0
540.915	1	9
541.085	1	6
541.255	1	6
541.425	1	2
541.595	1	-6
541.765	1	-1
541.935	1	4
542.105	1	-5
542.275	1	2
542.445	1	3
542.615	1	-1
542.785	1	10
542.955	1	1
543.125	1	-4
543.295	1	8
543.465	1	-6
543.635	1	-16
543.805	1	3
543.975	1	4
544.145	1	3
544.315	1	0
544.485	1	1
544.655	1	9
544.825	1	7
544.995	1	4
545.165	1	9
545.335	1	-5
545.505	1	-1
545.675	1	4
545.845	1	-12
546.015	1	4
546.185	1	2
546.355	1	-7
546.525	1	2
546.695	1	-6
546.865	1	-2
547.035	1	7
547.205	1	0
547.375	1	11
547.545	1	0
547.715	1	11
547.885	1	5
548.055	1	1
548.225	1	-8
548.395	1	19
548.565	1	-3
548.735	1	-3
548.905	1	1
549.075	1	6
549.245	1	-4
549.415	1	1
549.585	1	10
549.755	1	0
549.925	1	4
550.095	1	13
550.265	1	-5
550.435	1	-1
550.605	1	7
550.775	1	13
550.945	1	-1
551.115	1	-5
551.285	1	-8
551.455	1	-6
551.625	1	4
551.795	1	5
551.965	1	-1
552.135	1	-8
552.305	1	3
552.475	1	-4
552.645	1	14
552.815	1	-6
552.985	1	0
553.155	1	-1
553.325	1	-7
553.495	1	4
553.665	1	-2
553.835	1	-11
554.004	1	-1
554.174	1	-6
554.344	1	0
554.514	1	0
554.684	1	7
554.854	1	-2
555.024	1	6
555.194	1	-1
555.364	1	-9
555.534	1	9
555.704	1	-7
555.874	1	4
556.044	1	3
556.214	1	-14
556.384	1	4
556.554	1	-3
556.724	1	-9
556.894	1	-2
557.064	1	-4
557.234	1	1
557.404	1	9
557.573	1	9
557.743	1	5
557.913	1	5
558.083	1	3
558.253	1	7
558.423	1	-1
558.593	1	9
558.763	1	2
558.933	1	1
559.103	1	1
559.273	1	7
559.443	1	-6
559.613	1	-3
559.783	1	2
559.953	1	8
560.122	1	-4
560.292	1	0
560.462	1	-1
560.632	1	11
560.802	1	2
560.972	1	1
561.142	1	2
561.312	1	-3
561.482	1	-8
561.652	1	7
561.822	1	6
561.992	1	2
562.162	1	-8
562.331	1	-10
562.501	1	-4
562.671	1	1
562.841	1	11
563.011	1	4
563.181	1	14
563.351	1	0
563.521	1	7
563.691	1	-7
563.861	1	0
564.031	1	-3
564.201	1	2
564.370	1	1
564.540	1	0
564.710	1	11
564.880	1	3
565.050	1	-5
565.220	1	-3
565.390	1	8
565.560	1	-2
565.730	1	7
565.900	1	-11
566.069	1	7
566.239	1	-10
566.409	1	16
566.579	1	10
566.749	1	6
566.919	1	7
567.089	1	-1
567.259	1	-3
567.429	1	-2
567.599	1	3
567.768	1	-7
567.938	1	-17
568.108	1	9
568.278	1	6
568.448	1	5
568.618	1	11
568.788	1	4
568.958	1	15
569.128	1	4
569.297	1	-2
569.467	1	-6
569.637	1	-6
569.807	1	5
569.977	1	-3
570.147	1	-10
570.317	1	14
570.487	1	6
570.656	1	-10
570.826	1	13
570.996	1	-3
571.166	1	-1
571.336	1	4
571.506	1	-2
571.676	1	9
571.846	1	-16
572.015	1	2
572.185	1	-5
572.355	1	-5
572.525	1	-2
572.695	1	5
572.865	1	-5
573.035	1	-6
573.205	1	-8
573.374	1	-1
573.544	1	-4
573.714	1	11
573.884	1	9
574.054	1	10
574.224	1	2
574.394	1	-10
574.563	1	3
574.733	1	-2
574.903	1	1
575.073	1	0
575.243	1	3
575.413	1	9
575.583	1	2
575.752	1	1
575.922	1	-7
576.092	1	4
576.262	1	6
576.432	1	17
576.602	1	-10
576.772	1	-1
576.941	1	6
577.111	1	3
577.281	1	2
577.451	1	8
577.621	1	1
577.791	1	-7
577.960	1	6
578.130	1	0
578.300	1	7
578.470	1	9
578.640	1	1
578.810	1	6
578.979	1	8
579.149	1	-4
579.319	1	7
579.489	1	3
579.659	1	-6
579.829	1	-2
579.998	1	0
580.168	1	8
580.338	1	3
580.508	1	5
580.678	1	-5
580.848	1	-3
581.017	1	6
581.187	1	1
581.357	1	-14
581.527	1	-7
581.697	1	-1
581.867	1	-3
582.036	1	0
582.206	1	8
582.376	1	6
582.546	1	4
582.716	1	-1
582.885	1	-4
583.055	1	-5
583.225	1	-7
583.395	1	1
583.565	1	12
583.735	1	-1
583.904	1	-4
584.074	1	0
584.244	1	4
584.414	1	12
584.584	1	1
584.753	1	8
584.923	1	3
585.093	1	-2
585.263	1	8
585.433	1	-1
585.602	1	-6
585.772	1	0
585.942	1	-8
586.112	1	-1
586.282	1	4
586.451	1	-3
586.621	1	12
586.791	1	-1
586.961	1	6
587.131	1	7
587.300	1	-13
587.470	1	-3
587.640	1	3
587.810	1	-3
587.980	1	7
588.149	1	7
588.319	1	3
588.489	1	7
588.659	1	-3
588.829	1	4
588.998	1	5
589.168	1	5
589.338	1	2
589.508	1	3
589.677	1	3
589.847	1	-1
590.017	1	6
590.187	1	5
590.357	1	3
590.526	1	4
590.696	1	3
590.866	1	-1
591.036	1	-2
591.205	1	-10
591.375	1	5
591.545	1	-2
591.715	1	5
591.885	1	7
592.054	1	-2
592.224	1	-3
592.394	1	5
592.564	1	-9
592.733	1	16
592.903	1	4
593.073	1	9
593.243	1	1
593.412	1	-5
593.582	1	13
593.752	1	2
593.922	1	-3
594.091	1	7
594.261	1	-2
594.431	1	4
594.601	1	3
594.771	1	-9
594.940	1	8
595.110	1	6
595.280	1	-4
595.450	1	-1
595.619	1	2
595.789	1	3
595.959	1	-4
596.129	1	3
596.298	1	14
596.468	1	6
596.638	1	12
596.808	1	11
596.977	1	-1
597.147	1	-2
597.317	1	-4
597.487	1	3
597.656	1	3
597.826	1	7
597.996	1	0
598.166	1	2
598.335	1	-2
598.505	1	2
598.675	1	-5
598.844	1	-3
599.014	1	-5
599.184	1	16
599.354	1	-1
599.523	1	1
599.693	1	7
599.863	1	-6
600.033	1	2
600.202	1	-1
600.372	1	-9
600.542	1	3
600.712	1	7
600.881	1	-1
601.051	1	2
601.221	1	6
601.390	1	5
601.560	1	1
601.730	1	1
601.900	1	-4
602.069	1	-3
602.239	1	-4
602.409	1	8
602.578	1	-12
602.748	1	9
602.918	1	-3
603.088	1	5
603.257	1	9
603.427	1	0
603.597	1	5
603.767	1	-9
603.936	1	5
604.106	1	7
604.276	1	0
604.445	1	0
604.615	1	-5
604.785	1	-3
604.954	1	7
605.124	1	-8
605.294	1	2
605.464	1	10
605.633	1	5
605.803	1	-4
605.973	1	-8
606.142	1	3
606.312	1	-7
606.482	1	-7
606.652	1	3
606.821	1	8
606.991	1	5
607.161	1	16
607.330	1	-14
607.500	1	1
607.670	1	-10
607.839	1	18
608.009	1	-6
608.179	1	-9
608.348	1	15
608.518	1	-2
608.688	1	11
608.858	1	1
609.027	1	6
609.197	1	11
609.367	1	-1
609.536	1	-8
609.706	1	2
609.876	1	-3
610.045	1	-4
610.215	1	3
610.385	1	15
610.554	1	8
610.724	1	9
610.894	1	4
611.063	1	-6
611.233	1	6
611.403	1	6
611.572	1	4
611.742	1	-6
611.912	1	-5
612.081	1	6
612.251	1	9
612.421	1	1
612.590	1	-7
612.760	1	4
612.930	1	1
613.099	1	5
613.269	1	0
613.439	1	5
613.608	1	17
613.778	1	1
613.948	1	13
614.117	1	1
614.287	1	5
614.457	1	1
614.626	1	0
614.796	1	-1
614.966	1	-3
615.135	1	5
615.305	1	-3
615.475	1	11
615.644	1	8
615.814	1	3
615.984	1	-3
616.153	1	-5
616.323	1	-8
616.493	1	3
616.662	1	3
616.832	1	4
617.002	1	7
617.171	1	-8
617.341	1	7
617.511	1	4
617.680	1	6
617.850	1	-1
618.019	1	8
618.189	1	2
618.359	1	-8
618.528	1	14
618.698	1	9
618.868	1	1
619.037	1	2
619.207	1	0
619.377	1	5
619.546	1	-4
619.716	1	-10
619.885	1	6
620.055	1	3
620.225	1	3
620.394	1	2
620.564	1	4
620.734	1	0
620.903	1	5
621.073	1	10
621.242	1	-16
621.412	1	-8
621.582	1	-3
621.751	1	-9
621.921	1	9
622.091	1	-2
622.260	1	9
622.430	1	2
622.599	1	2
622.769	1	7
622.939	1	7
623.108	1	7
623.278	1	8
623.448	1	7
623.617	1	-7
623.787	1	3
623.956	1	-4
624.126	1	6
624.296	1	1
624.465	1	-6
624.635	1	1
624.804	1	-4
624.974	1	0
625.144	1	14
625.313	1	-6
625.483	1	3
625.652	1	0
625.822	1	4
625.992	1	3
626.161	1	-1
626.331	1	-1
626.501	1	3
626.670	1	6
626.840	1	-15
627.009	1	10
627.179	1	4
627.348	1	4
627.518	1	12
627.688	1	-3
627.857	1	2
628.027	1	5
628.196	1	3
628.366	1	2
628.536	1	3
628.705	1	-4
628.875	1	-2
629.044	1	-7
629.214	1	6
629.384	1	-1
629.553	1	9
629.723	1	2
629.892	1	1
630.062	1	4
630.232	1	-13
630.401	1	1
630.571	1	7
630.740	1	-4
630.910	1	5
631.079	1	-2
631.249	1	-6
631.419	1	10
631.588	1	-8
631.758	1	-2
631.927	1	-1
632.097	1	6
632.266	1	3
632.436	1	-11
632.606	1	4
632.775	1	11
632.945	1	-6
633.114	1	6
633.284	1	-9
633.453	1	4
633.623	1	-4
633.793	1	-6
633.962	1	-1
634.132	1	9
634.301	1	6
634.471	1	12
634.640	1	2
634.810	1	5
634.979	1	15
635.149	1	3
635.319	1	6
635.488	1	2
635.658	1	-14
635.827	1	4
635.997	1	-2
636.166	1	-5
636.336	1	6
636.505	1	16
636.675	1	-5
636.845	1	11
637.014	1	4
637.184	1	3
637.353	1	10
637.523	1	6
637.692	1	10
637.862	1	-8
638.031	1	0
638.201	1	12
638.370	1	2
638.540	1	0
638.710	1	8
638.879	1	-5
639.049	1	10
639.218	1	-2
639.388	1	15
639.557	1	-2
639.727	1	-10
639.896	1	4
640.066	1	-1
640.235	1	6
640.405	1	4
640.574	1	13
640.744	1	5
640.914	1	1
641.083	1	-7
641.253	1	-1
641.422	1	1
641.592	1	8
641.761	1	6
641.931	1	0
642.100	1	13
642.270	1	10
642.439	1	-2
642.609	1	7
642.778	1	4
642.948	1	-8
643.117	1	10
643.287	1	-6
643.456	1	-2
643.626	1	4
643.795	1	10
643.965	1	7
644.134	1	0
644.304	1	13
644.473	1	-3
644.643	1	-5
644.812	1	8
644.982	1	-1
645.151	1	-7
645.321	1	8
645.490	1	18
645.660	1	7
645.829	1	-2
645.999	1	7
646.168	1	12
646.338	1	1
646.507	1	-1
646.677	1	5
646.846	1	-2
647.016	1	1
647.185	1	13
647.355	1	2
647.524	1	-6
647.694	1	5
647.863	1	5
648.033	1	8
648.202	1	-1
648.372	1	-4
648.541	1	12
648.711	1	2
648.880	1	16
649.050	1	3
649.219	1	-6
649.389	1	-1
649.558	1	0
649.728	1	-10
649.897	1	-10
650.067	1	1
650.236	1	6
650.406	1	-7
650.575	1	6
650.745	1	2
650.914	1	4
651.084	1	0
651.253	1	4
651.423	1	2
651.592	1	1
651.762	1	3
651.931	1	8
652.101	1	4
652.270	1	4
652.440	1	10
652.609	1	5
652.778	1	6
652.948	1	2
653.117	1	14
653.287	1	0
653.456	1	5
653.626	1	2
653.795	1	-4
653.965	1	9
654.134	1	5
654.304	1	5
654.473	1	-4
654.643	1	15
654.812	1	3
654.982	1	2
655.151	1	10
655.320	1	0
655.490	1	-9
655.659	1	-4
655.829	1	-7
655.998	1	6
656.168	1	-2
656.337	1	5
656.507	1	-11
656.676	1	5
656.846	1	-5
657.015	1	8
657.184	1	-1
657.354	1	-3
657.523	1	1
657.693	1	-4
657.862	1	6
658.032	1	-3
658.201	1	-5
658.371	1	-1
658.540	1	13
658.709	1	8
658.879	1	-10
659.048	1	-1
659.218	1	-1
659.387	1	5
659.557	1	-1
659.726	1	4
659.895	1	-6
660.065	1	11
660.234	1	0
660.404	1	16
660.573	1	4
660.743	1	0
660.912	1	13
661.081	1	2
661.251	1	-3
661.420	1	4
661.590	1	6
661.759	1	4
661.929	1	15
662.098	1	5
662.267	1	6
662.437	1	3
662.606	1	3
662.776	1	6
662.945	1	7
663.115	1	-12
663.284	1	-8
663.453	1	1
663.623	1	10
663.792	1	3
663.962	1	-1
664.131	1	-6
664.300	1	3
664.470	1	-7
664.639	1	-5
664.809	1	1
664.978	1	8
665.148	1	3
665.317	1	0
665.486	1	1
665.656	1	5
665.825	1	3
665.995	1	11
666.164	1	5
666.333	1	6
666.503	1	6
666.672	1	-1
666.842	1	-8
667.011	1	-2
667.180	1	-1
667.350	1	11
667.519	1	2
667.689	1	13
667.858	1	11
668.027	1	-4
668.197	1	1
668.366	1	6
668.536	1	6
668.705	1	14
668.874	1	2
669.044	1	1
669.213	1	-2
669.382	1	17
669.552	1	3
669.721	1	-3
669.891	1	-6
670.060	1	-7
670.229	1	6
670.399	1	6
670.568	1	14
670.738	1	-5
670.907	1	8
671.076	1	9
671.246	1	-9
671.415	1	2
671.584	1	8
671.754	1	12
671.923	1	3
672.093	1	4
672.262	1	-4
672.431	1	9
672.601	1	-3
672.770	1	-10
672.939	1	7
673.109	1	4
673.278	1	12
673.448	1	5
673.617	1	1
673.786	1	0
