325.333	1	6
325.504	1	21
325.675	1	12
325.846	1	11
326.017	1	18
326.188	1	18
326.359	1	10
326.531	1	10
326.702	1	27
326.873	1	11
327.044	1	6
327.215	1	8
327.386	1	2
327.557	1	23
327.728	1	3
327.899	1	19
328.070	1	12
328.241	1	22
328.412	1	2
328.583	1	15
328.754	1	12
328.926	1	6
329.097	1	13
329.268	1	13
329.439	1	12
329.610	1	13
329.781	1	22
329.952	1	14
330.123	1	7
330.294	1	15
330.465	1	22
330.636	1	5
330.807	1	10
330.978	1	18
331.149	1	24
331.320	1	14
331.492	1	25
331.663	1	21
331.834	1	14
332.005	1	5
332.176	1	17
332.347	1	19
332.518	1	5
332.689	1	23
332.860	1	7
333.031	1	27
333.202	1	23
333.373	1	18
333.544	1	11
333.715	1	16
333.886	1	13
334.057	1	13
334.228	1	24
334.399	1	13
334.570	1	32
334.741	1	10
334.912	1	20
335.084	1	37
335.255	1	13
335.426	1	13
335.597	1	29
335.768	1	4
335.939	1	11
336.110	1	24
336.281	1	20
336.452	1	36
336.623	1	34
336.794	1	19
336.965	1	25
337.136	1	26
337.307	1	22
337.478	1	31
337.649	1	16
337.820	1	7
337.991	1	32
338.162	1	21
338.333	1	19
338.504	1	25
338.675	1	12
338.846	1	28
339.017	1	27
339.188	1	24
339.359	1	28
339.530	1	8
339.701	1	15
339.872	1	22
340.043	1	26
340.214	1	22
340.385	1	33
340.556	1	19
340.727	1	24
340.898	1	16
341.069	1	29
341.240	1	22
341.411	1	25
341.582	1	17
341.753	1	27
341.924	1	26
342.095	1	26
342.266	1	24
342.437	1	21
342.608	1	20
342.779	1	24
342.950	1	32
343.121	1	30
343.292	1	23
343.463	1	30
343.634	1	40
343.805	1	24
343.976	1	21
344.147	1	39
344.318	1	35
344.489	1	15
344.660	1	33
344.831	1	25
345.002	1	15
345.173	1	42
345.344	1	16
345.515	1	33
345.686	1	39
345.857	1	29
346.028	1	39
346.199	1	35
346.370	1	23
346.541	1	47
346.712	1	36
346.883	1	26
347.054	1	24
347.225	1	22
347.396	1	28
347.567	1	29
347.738	1	19
347.909	1	31
348.080	1	24
348.251	1	29
348.422	1	39
348.593	1	38
348.764	1	31
348.935	1	36
349.106	1	27
349.277	1	40
349.448	1	25
349.619	1	41
349.790	1	36
349.961	1	27
350.132	1	32
350.303	1	42
350.474	1	32
350.645	1	33
350.816	1	43
350.987	1	25
351.157	1	36
351.328	1	41
351.499	1	35
351.670	1	31
351.841	1	26
352.012	1	42
352.183	1	39
352.354	1	38
352.525	1	33
352.696	1	36
352.867	1	29
353.038	1	41
353.209	1	38
353.380	1	43
353.551	1	33
353.722	1	37
353.893	1	42
354.064	1	42
354.235	1	41
354.406	1	41
354.576	1	36
354.747	1	34
354.918	1	45
355.089	1	40
355.260	1	35
355.431	1	37
355.602	1	43
355.773	1	43
355.944	1	44
356.115	1	29
356.286	1	36
356.457	1	46
356.628	1	49
356.799	1	31
356.970	1	35
357.141	1	46
357.311	1	53
357.482	1	49
357.653	1	34
357.824	1	52
357.995	1	47
358.166	1	50
358.337	1	42
358.508	1	38
358.679	1	36
358.850	1	43
359.021	1	40
359.192	1	35
359.363	1	47
359.533	1	42
359.704	1	48
359.875	1	64
360.046	1	48
360.217	1	46
360.388	1	43
360.559	1	51
360.730	1	45
360.901	1	39
361.072	1	39
361.243	1	51
361.414	1	45
361.584	1	42
361.755	1	53
361.926	1	50
362.097	1	47
362.268	1	48
362.439	1	45
362.610	1	40
362.781	1	32
362.952	1	54
363.123	1	64
363.293	1	50
363.464	1	42
363.635	1	52
363.806	1	52
363.977	1	35
364.148	1	45
364.319	1	42
364.490	1	47
364.661	1	52
364.832	1	51
365.002	1	58
365.173	1	46
365.344	1	45
365.515	1	55
365.686	1	56
365.857	1	57
366.028	1	42
366.199	1	46
366.370	1	55
366.540	1	52
366.711	1	47
366.882	1	52
367.053	1	49
367.224	1	40
367.395	1	54
367.566	1	46
367.737	1	56
367.908	1	35
368.078	1	63
368.249	1	45
368.420	1	55
368.591	1	58
368.762	1	58
368.933	1	31
369.104	1	47
369.274	1	48
369.445	1	56
369.616	1	45
369.787	1	51
369.958	1	54
370.129	1	56
370.300	1	52
370.471	1	59
370.641	1	55
370.812	1	52
370.983	1	48
371.154	1	56
371.325	1	58
371.496	1	55
371.667	1	57
371.837	1	52
372.008	1	47
372.179	1	56
372.350	1	53
372.521	1	51
372.692	1	65
372.863	1	51
373.033	1	54
373.204	1	45
373.375	1	50
373.546	1	57
373.717	1	36
373.888	1	54
374.059	1	54
374.229	1	59
374.400	1	34
374.571	1	58
374.742	1	53
374.913	1	39
375.084	1	55
375.254	1	61
375.425	1	44
375.596	1	40
375.767	1	52
375.938	1	54
376.109	1	39
376.279	1	43
376.450	1	51
376.621	1	61
376.792	1	53
376.963	1	50
377.134	1	55
377.304	1	63
377.475	1	61
377.646	1	58
377.817	1	50
377.988	1	47
378.159	1	44
378.329	1	51
378.500	1	52
378.671	1	53
378.842	1	53
379.013	1	58
379.184	1	68
379.354	1	42
379.525	1	52
379.696	1	53
379.867	1	59
380.038	1	46
380.209	1	62
380.379	1	52
380.550	1	49
380.721	1	59
380.892	1	57
381.063	1	51
381.233	1	42
381.404	1	58
381.575	1	56
381.746	1	58
381.917	1	43
382.087	1	64
382.258	1	69
382.429	1	60
382.600	1	61
382.771	1	63
382.941	1	67
383.112	1	63
383.283	1	56
383.454	1	53
383.625	1	64
383.795	1	62
383.966	1	52
384.137	1	70
384.308	1	61
384.479	1	67
384.649	1	62
384.820	1	60
384.991	1	52
385.162	1	64
385.333	1	64
385.503	1	63
385.674	1	57
385.845	1	70
386.016	1	60
386.187	1	53
386.357	1	64
386.528	1	56
386.699	1	59
386.870	1	47
387.041	1	55
387.211	1	57
387.382	1	64
387.553	1	68
387.724	1	52
387.894	1	62
388.065	1	70
388.236	1	61
388.407	1	66
388.578	1	69
388.748	1	68
388.919	1	70
389.090	1	71
389.261	1	72
389.431	1	75
389.602	1	63
389.773	1	58
389.944	1	54
390.114	1	86
390.285	1	49
390.456	1	62
390.627	1	58
390.798	1	75
390.968	1	69
391.139	1	72
391.310	1	72
391.481	1	53
391.651	1	62
391.822	1	67
391.993	1	71
392.164	1	59
392.334	1	72
392.505	1	53
392.676	1	73
392.847	1	68
393.017	1	76
393.188	1	69
393.359	1	76
393.530	1	78
393.700	1	72
393.871	1	67
394.042	1	64
394.213	1	67
394.383	1	63
394.554	1	62
394.725	1	61
394.896	1	69
395.066	1	65
395.237	1	70
395.408	1	76
395.579	1	65
395.749	1	71
395.920	1	69
396.091	1	64
396.262	1	67
396.432	1	51
396.603	1	65
396.774	1	72
396.945	1	77
397.115	1	67
397.286	1	58
397.457	1	80
397.627	1	73
397.798	1	56
397.969	1	67
398.140	1	65
398.310	1	75
398.481	1	53
398.652	1	80
398.823	1	76
398.993	1	58
399.164	1	63
399.335	1	67
399.505	1	66
399.676	1	72
399.847	1	66
400.018	1	69
400.188	1	77
400.359	1	66
400.530	1	68
400.700	1	67
400.871	1	85
401.042	1	66
401.213	1	61
401.383	1	70
401.554	1	75
401.725	1	78
401.895	1	71
402.066	1	71
402.237	1	81
402.408	1	81
402.578	1	73
402.749	1	65
402.920	1	76
403.090	1	74
403.261	1	71
403.432	1	80
403.603	1	79
403.773	1	88
403.944	1	68
404.115	1	77
404.285	1	77
404.456	1	77
404.627	1	73
404.797	1	62
404.968	1	81
405.139	1	64
405.310	1	76
405.480	1	70
405.651	1	74
405.822	1	80
405.992	1	78
406.163	1	77
406.334	1	72
406.504	1	72
406.675	1	68
406.846	1	73
407.016	1	70
407.187	1	93
407.358	1	70
407.528	1	51
407.699	1	69
407.870	1	71
408.041	1	76
408.211	1	63
408.382	1	77
408.553	1	63
408.723	1	81
408.894	1	66
409.065	1	74
409.235	1	69
409.406	1	67
409.577	1	72
409.747	1	65
409.918	1	65
410.089	1	77
410.259	1	81
410.430	1	71
410.601	1	71
410.771	1	84
410.942	1	86
411.113	1	68
411.283	1	72
411.454	1	76
411.625	1	71
411.795	1	74
411.966	1	79
412.137	1	69
412.307	1	85
412.478	1	70
412.649	1	73
412.819	1	75
412.990	1	72
413.161	1	65
413.331	1	80
413.502	1	72
413.672	1	78
413.843	1	87
414.014	1	80
414.184	1	78
414.355	1	82
414.526	1	81
414.696	1	87
414.867	1	84
415.038	1	70
415.208	1	84
415.379	1	89
415.550	1	79
415.720	1	71
415.891	1	73
416.062	1	69
416.232	1	63
416.403	1	76
416.573	1	76
416.744	1	67
416.915	1	69
417.085	1	80
417.256	1	80
417.427	1	77
417.597	1	60
417.768	1	68
417.939	1	70
418.109	1	68
418.280	1	65
418.450	1	71
418.621	1	58
418.792	1	70
418.962	1	74
419.133	1	75
419.304	1	71
419.474	1	65
419.645	1	69
419.815	1	77
419.986	1	66
420.157	1	69
420.327	1	72
420.498	1	61
420.669	1	78
420.839	1	73
421.010	1	70
421.180	1	82
421.351	1	69
421.522	1	69
421.692	1	70
421.863	1	66
422.033	1	72
422.204	1	69
422.375	1	69
422.545	1	68
422.716	1	60
422.886	1	66
423.057	1	64
423.228	1	62
423.398	1	76
423.569	1	67
423.740	1	66
423.910	1	68
424.081	1	70
424.251	1	63
424.422	1	73
424.593	1	74
424.763	1	79
424.934	1	65
425.104	1	70
425.275	1	72
425.445	1	68
425.616	1	60
425.787	1	61
425.957	1	78
426.128	1	59
426.298	1	59
426.469	1	63
426.640	1	75
426.810	1	61
426.981	1	71
427.151	1	74
427.322	1	75
427.493	1	65
427.663	1	65
427.834	1	67
428.004	1	65
428.175	1	60
428.345	1	70
428.516	1	70
428.687	1	71
428.857	1	59
429.028	1	68
429.198	1	62
429.369	1	71
429.540	1	65
429.710	1	61
429.881	1	56
430.051	1	64
430.222	1	68
430.392	1	71
430.563	1	72
430.734	1	67
430.904	1	61
431.075	1	67
431.245	1	66
431.416	1	64
431.586	1	60
431.757	1	74
431.927	1	67
432.098	1	65
432.269	1	62
432.439	1	76
432.610	1	55
432.780	1	59
432.951	1	60
433.121	1	56
433.292	1	52
433.462	1	69
433.633	1	63
433.804	1	67
433.974	1	65
434.145	1	61
434.315	1	64
434.486	1	60
434.656	1	60
434.827	1	63
434.997	1	71
435.168	1	78
435.339	1	52
435.509	1	60
435.680	1	68
435.850	1	54
436.021	1	57
436.191	1	63
436.362	1	67
436.532	1	71
436.703	1	59
436.873	1	78
437.044	1	62
437.214	1	79
437.385	1	69
437.556	1	57
437.726	1	59
437.897	1	67
438.067	1	55
438.238	1	59
438.408	1	60
438.579	1	73
438.749	1	62
438.920	1	67
439.090	1	63
439.261	1	51
439.431	1	59
439.602	1	65
439.772	1	70
439.943	1	60
440.113	1	55
440.284	1	57
440.455	1	70
440.625	1	82
440.796	1	65
440.966	1	58
441.137	1	58
441.307	1	62
441.478	1	52
441.648	1	60
441.819	1	60
441.989	1	67
442.160	1	57
442.330	1	57
442.501	1	69
442.671	1	57
442.842	1	53
443.012	1	64
443.183	1	51
443.353	1	52
443.524	1	50
443.694	1	58
443.865	1	55
444.035	1	57
444.206	1	69
444.376	1	64
444.547	1	66
444.717	1	58
444.888	1	54
445.058	1	65
445.229	1	55
445.399	1	67
445.570	1	76
445.740	1	57
445.911	1	47
446.081	1	70
446.252	1	59
446.422	1	66
446.593	1	47
446.763	1	66
446.934	1	44
447.104	1	63
447.275	1	48
447.445	1	45
447.616	1	44
447.786	1	58
447.957	1	56
448.127	1	59
448.298	1	53
448.468	1	64
448.639	1	59
448.809	1	50
448.979	1	46
449.150	1	60
449.320	1	38
449.491	1	46
449.661	1	67
449.832	1	39
450.002	1	47
450.173	1	49
450.343	1	63
450.514	1	50
450.684	1	49
450.855	1	58
451.025	1	53
451.196	1	35
451.366	1	52
451.537	1	45
451.707	1	53
451.878	1	54
452.048	1	43
452.218	1	53
452.389	1	58
452.559	1	62
452.730	1	54
452.900	1	60
453.071	1	62
453.241	1	46
453.412	1	58
453.582	1	55
453.753	1	53
453.923	1	61
454.093	1	53
454.264	1	54
454.434	1	47
454.605	1	55
454.775	1	43
454.946	1	50
455.116	1	48
455.287	1	58
455.457	1	63
455.628	1	48
455.798	1	49
455.968	1	45
456.139	1	54
456.309	1	56
456.480	1	50
456.650	1	49
456.821	1	54
456.991	1	50
457.161	1	57
457.332	1	57
457.502	1	67
457.673	1	52
457.843	1	45
458.014	1	62
458.184	1	50
458.355	1	43
458.525	1	51
458.695	1	51
458.866	1	43
459.036	1	56
459.207	1	45
459.377	1	54
459.548	1	54
459.718	1	40
459.888	1	53
460.059	1	53
460.229	1	47
460.400	1	37
460.570	1	48
460.740	1	56
460.911	1	50
461.081	1	37
461.252	1	42
461.422	1	34
461.593	1	49
461.763	1	47
461.933	1	37
462.104	1	47
462.274	1	50
462.445	1	51
462.615	1	52
462.785	1	47
462.956	1	41
463.126	1	48
463.297	1	53
463.467	1	45
463.638	1	42
463.808	1	43
463.978	1	39
464.149	1	49
464.319	1	44
464.490	1	45
464.660	1	49
464.830	1	52
465.001	1	40
465.171	1	50
465.342	1	42
465.512	1	40
465.682	1	46
465.853	1	55
466.023	1	54
466.194	1	42
466.364	1	51
466.534	1	31
466.705	1	43
466.875	1	48
467.045	1	51
467.216	1	38
467.386	1	34
467.557	1	45
467.727	1	41
467.897	1	61
468.068	1	47
468.238	1	40
468.409	1	53
468.579	1	48
468.749	1	47
468.920	1	53
469.090	1	38
469.260	1	53
469.431	1	33
469.601	1	35
469.772	1	27
469.942	1	39
470.112	1	42
470.283	1	46
470.453	1	33
470.623	1	39
470.794	1	41
470.964	1	42
471.135	1	50
471.305	1	44
471.475	1	45
471.646	1	46
471.816	1	41
471.986	1	36
472.157	1	30
472.327	1	39
472.497	1	48
472.668	1	34
472.838	1	41
473.009	1	39
473.179	1	47
473.349	1	36
473.520	1	29
473.690	1	30
473.860	1	28
474.031	1	38
474.201	1	48
474.371	1	42
474.542	1	49
474.712	1	41
474.882	1	47
475.053	1	36
475.223	1	35
475.394	1	35
475.564	1	34
475.734	1	42
475.905	1	44
476.075	1	43
476.245	1	38
476.416	1	42
476.586	1	44
476.756	1	38
476.927	1	37
477.097	1	37
477.267	1	30
477.438	1	28
477.608	1	33
477.778	1	30
477.949	1	50
478.119	1	22
478.289	1	28
478.460	1	32
478.630	1	39
478.800	1	37
478.971	1	38
479.141	1	31
479.311	1	33
479.482	1	22
479.652	1	49
479.822	1	31
479.993	1	40
480.163	1	35
480.333	1	47
480.504	1	35
480.674	1	17
480.844	1	30
481.015	1	33
481.185	1	32
481.355	1	35
481.525	1	17
481.696	1	34
481.866	1	25
482.036	1	29
482.207	1	35
482.377	1	31
482.547	1	35
482.718	1	30
482.888	1	26
483.058	1	34
483.229	1	31
483.399	1	31
483.569	1	31
483.740	1	33
483.910	1	46
484.080	1	42
484.250	1	26
484.421	1	40
484.591	1	31
484.761	1	18
484.932	1	47
485.102	1	30
485.272	1	23
485.443	1	33
485.613	1	35
485.783	1	25
485.953	1	32
486.124	1	42
486.294	1	38
486.464	1	35
486.635	1	21
486.805	1	36
486.975	1	35
487.146	1	26
487.316	1	31
487.486	1	24
487.656	1	29
487.827	1	41
487.997	1	33
488.167	1	35
488.338	1	33
488.508	1	27
488.678	1	34
488.848	1	33
489.019	1	34
489.189	1	28
489.359	1	26
489.529	1	16
489.700	1	31
489.870	1	21
490.040	1	21
490.211	1	31
490.381	1	36
490.551	1	19
490.721	1	29
490.892	1	40
491.062	1	25
491.232	1	25
491.402	1	15
491.573	1	20
491.743	1	26
491.913	1	22
492.084	1	25
492.254	1	41
492.424	1	20
492.594	1	17
492.765	1	30
492.935	1	18
493.105	1	20
493.275	1	36
493.446	1	28
493.616	1	18
493.786	1	33
493.956	1	20
494.127	1	15
494.297	1	32
494.467	1	16
494.637	1	31
494.808	1	22
494.978	1	17
495.148	1	36
495.318	1	23
495.489	1	27
495.659	1	27
495.829	1	33
495.999	1	19
496.170	1	12
496.340	1	29
496.510	1	35
496.680	1	22
496.851	1	39
497.021	1	27
497.191	1	24
497.361	1	34
497.532	1	25
497.702	1	13
497.872	1	30
498.042	1	32
498.213	1	25
498.383	1	38
498.553	1	34
498.723	1	22
498.894	1	36
499.064	1	20
499.234	1	23
499.404	1	35
499.574	1	28
499.745	1	16
499.915	1	17
500.085	1	9
500.255	1	15
500.426	1	26
500.596	1	32
500.766	1	26
500.936	1	36
501.106	1	20
501.277	1	21
501.447	1	13
501.617	1	23
501.787	1	32
501.958	1	22
502.128	1	34
502.298	1	25
502.468	1	21
502.638	1	42
502.809	1	21
502.979	1	24
503.149	1	21
503.319	1	24
503.489	1	22
503.660	1	22
503.830	1	16
504.000	1	9
504.170	1	20
504.340	1	22
504.511	1	28
504.681	1	17
504.851	1	17
505.021	1	23
505.192	1	19
505.362	1	23
505.532	1	16
505.702	1	26
505.872	1	16
506.043	1	9
506.213	1	19
506.383	1	18
506.553	1	11
506.723	1	24
506.893	1	15
507.064	1	28
507.234	1	24
507.404	1	26
507.574	1	29
507.744	1	20
507.915	1	21
508.085	1	17
508.255	1	15
508.425	1	18
508.595	1	8
508.766	1	18
508.936	1	15
509.106	1	20
509.276	1	23
509.446	1	5
509.616	1	23
509.787	1	21
509.957	1	25
510.127	1	21
510.297	1	21
510.467	1	13
510.638	1	15
510.808	1	7
510.978	1	16
511.148	1	5
511.318	1	27
511.488	1	22
511.659	1	10
511.829	1	18
511.999	1	10
512.169	1	7
512.339	1	24
512.509	1	22
512.680	1	17
512.850	1	20
513.020	1	14
513.190	1	15
513.360	1	20
513.530	1	21
513.700	1	21
513.871	1	16
514.041	1	29
514.211	1	30
514.381	1	3
514.551	1	14
514.721	1	19
514.892	1	13
515.062	1	20
515.232	1	9
515.402	1	11
515.572	1	11
515.742	1	19
515.912	1	27
516.083	1	14
516.253	1	23
516.423	1	19
516.593	1	20
516.763	1	16
516.933	1	16
517.104	1	14
517.274	1	20
517.444	1	10
517.614	1	17
517.784	1	9
517.954	1	14
518.124	1	2
518.294	1	24
518.465	1	22
518.635	1	19
518.805	1	14
518.975	1	28
519.145	1	19
519.315	1	27
519.485	1	10
519.656	1	23
519.826	1	15
519.996	1	9
520.166	1	23
520.336	1	26
520.506	1	15
520.676	1	12
520.846	1	18
521.017	1	14
521.187	1	19
521.357	1	19
521.527	1	18
521.697	1	5
521.867	1	16
522.037	1	8
522.207	1	15
522.377	1	13
522.548	1	9
522.718	1	27
522.888	1	19
523.058	1	9
523.228	1	16
523.398	1	10
523.568	1	22
523.738	1	11
523.909	1	14
524.079	1	23
524.249	1	16
524.419	1	12
524.589	1	18
524.759	1	13
524.929	1	15
525.099	1	16
525.269	1	23
525.439	1	21
525.610	1	22
525.780	1	18
525.950	1	18
526.120	1	16
526.290	1	23
526.460	1	16
526.630	1	9
526.800	1	8
526.970	1	18
527.140	1	13
527.311	1	13
527.481	1	10
527.651	1	12
527.821	1	11
527.991	1	23
528.161	1	19
528.331	1	10
528.501	1	13
528.671	1	12
528.841	1	13
529.011	1	8
529.181	1	20
529.352	1	13
529.522	1	3
529.692	1	14
529.862	1	12
530.032	1	14
530.202	1	14
530.372	1	5
530.542	1	18
530.712	1	3
530.882	1	4
531.052	1	24
531.222	1	7
531.392	1	16
531.563	1	11
531.733	1	25
531.903	1	17
532.073	1	10
532.243	1	14
532.413	1	17
532.583	1	4
532.753	1	17
532.923	1	15
533.093	1	8
533.263	1	1
533.433	1	14
533.603	1	8
533.773	1	15
533.943	1	13
534.113	1	10
534.284	1	21
534.454	1	4
534.624	1	6
534.794	1	9
534.964	1	13
535.134	1	11
535.304	1	10
535.474	1	5
535.644	1	21
535.814	1	9
535.984	1	0
536.154	1	14
536.324	1	9
536.494	1	10
536.664	1	-9
536.834	1	17
537.004	1	4
537.174	1	14
537.344	1	28
537.514	1	14
537.685	1	11
537.855	1	17
538.025	1	11
538.195	1	9
538.365	1	8
538.535	1	12
538.705	1	6
538.875	1	14
539.045	1	11
539.215	1	28
539.385	1	5
539.555	1	3
539.725	1	18
539.895	1	22
540.065	1	5
540.235	1	6
540.405	1	22
540.575	1	12
540.745	1	5
540.915	1	18
541.085	1	17
541.255	1	21
541.425	1	1
541.595	1	0
541.765	1	11
541.935	1	20
542.105	1	9
542.275	1	-1
542.445	1	7
542.615	1	21
542.785	1	21
542.955	1	8
543.125	1	14
543.295	1	17
543.465	1	8
543.635	1	6
543.805	1	17
543.975	1	10
544.145	1	16
544.315	1	7
544.485	1	16
544.655	1	12
544.825	1	10
544.995	1	9
545.165	1	13
545.335	1	-1
545.505	1	18
545.675	1	10
545.845	1	7
546.015	1	14
546.185	1	-2
546.355	1	6
546.525	1	9
546.695	1	16
546.865	1	-2
547.035	1	7
547.205	1	10
547.375	1	24
547.545	1	2
547.715	1	7
547.885	1	17
548.055	1	16
548.225	1	2
548.395	1	27
548.565	1	16
548.735	1	13
548.905	1	14
549.075	1	11
549.245	1	9
549.415	1	12
549.585	1	13
549.755	1	9
549.925	1	9
550.095	1	8
550.265	1	2
550.435	1	3
550.605	1	5
550.775	1	14
550.945	1	5
551.115	1	9
551.285	1	6
551.455	1	5
551.625	1	18
551.795	1	9
551.965	1	5
552.135	1	3
552.305	1	15
552.475	1	12
552.645	1	25
552.815	1	4
552.985	1	11
553.155	1	3
553.325	1	1
553.495	1	10
553.665	1	10
553.835	1	5
554.004	1	-1
554.174	1	9
554.344	1	7
554.514	1	13
554.684	1	2
554.854	1	5
555.024	1	20
555.194	1	28
555.364	1	3
555.534	1	11
555.704	1	1
555.874	1	11
556.044	1	11
556.214	1	-4
556.384	1	13
556.554	1	-2
556.724	1	2
556.894	1	11
557.064	1	3
557.234	1	6
557.404	1	8
557.573	1	1
557.743	1	8
557.913	1	12
558.083	1	4
558.253	1	-2
558.423	1	12
558.593	1	22
558.763	1	23
558.933	1	10
559.103	1	-1
559.273	1	14
559.443	1	1
559.613	1	1
559.783	1	-1
559.953	1	14
560.122	1	-2
560.292	1	10
560.462	1	1
560.632	1	11
560.802	1	5
560.972	1	7
561.142	1	8
561.312	1	4
561.482	1	9
561.652	1	3
561.822	1	6
561.992	1	3
562.162	1	3
562.331	1	2
562.501	1	6
562.671	1	12
562.841	1	18
563.011	1	18
563.181	1	17
563.351	1	1
563.521	1	7
563.691	1	0
563.861	1	17
564.031	1	11
564.201	1	11
564.370	1	8
564.540	1	1
564.710	1	19
564.880	1	10
565.050	1	4
565.220	1	3
565.390	1	20
565.560	1	9
565.730	1	10
565.900	1	4
566.069	1	21
566.239	1	2
566.409	1	11
566.579	1	13
566.749	1	15
566.919	1	3
567.089	1	0
567.259	1	22
567.429	1	9
567.599	1	3
567.768	1	12
567.938	1	4
568.108	1	17
568.278	1	6
568.448	1	19
568.618	1	17
568.788	1	14
568.958	1	10
569.128	1	9
569.297	1	8
569.467	1	1
569.637	1	15
569.807	1	5
569.977	1	19
570.147	1	6
570.317	1	21
570.487	1	15
570.656	1	4
570.826	1	19
570.996	1	4
571.166	1	4
571.336	1	10
571.506	1	10
571.676	1	15
571.846	1	1
572.015	1	8
572.185	1	10
572.355	1	6
572.525	1	2
572.695	1	14
572.865	1	6
573.035	1	8
573.205	1	3
573.374	1	1
573.544	1	9
573.714	1	13
573.884	1	20
574.054	1	19
574.224	1	7
574.394	1	10
574.563	1	13
574.733	1	6
574.903	1	8
575.073	1	4
575.243	1	4
575.413	1	1
575.583	1	7
575.752	1	0
575.922	1	3
576.092	1	6
576.262	1	9
576.432	1	10
576.602	1	3
576.772	1	-5
576.941	1	14
577.111	1	7
577.281	1	14
577.451	1	19
577.621	1	2
577.791	1	-1
577.960	1	12
578.130	1	9
578.300	1	14
578.470	1	7
578.640	1	9
578.810	1	-2
578.979	1	13
579.149	1	-5
579.319	1	11
579.489	1	8
579.659	1	10
579.829	1	14
579.998	1	11
580.168	1	10
580.338	1	11
580.508	1	15
580.678	1	1
580.848	1	12
581.017	1	22
581.187	1	2
581.357	1	-6
581.527	1	9
581.697	1	9
581.867	1	9
582.036	1	5
582.206	1	11
582.376	1	3
582.546	1	-2
582.716	1	5
582.885	1	10
583.055	1	4
583.225	1	3
583.395	1	8
583.565	1	12
583.735	1	-2
583.904	1	6
584.074	1	6
584.244	1	17
584.414	1	6
584.584	1	4
584.753	1	13
584.923	1	4
585.093	1	6
585.263	1	15
585.433	1	5
585.602	1	11
585.772	1	9
585.942	1	-5
586.112	1	10
586.282	1	12
586.451	1	-2
586.621	1	14
586.791	1	5
586.961	1	5
587.131	1	8
587.300	1	-2
587.470	1	6
587.640	1	0
587.810	1	0
587.980	1	22
588.149	1	10
588.319	1	7
588.489	1	11
588.659	1	-6
588.829	1	12
588.998	1	10
589.168	1	3
589.338	1	9
589.508	1	6
589.677	1	10
589.847	1	10
590.017	1	11
590.187	1	7
590.357	1	5
590.526	1	16
590.696	1	6
590.866	1	6
591.036	1	2
591.205	1	4
591.375	1	11
591.545	1	6
591.715	1	20
591.885	1	12
592.054	1	5
592.224	1	6
592.394	1	7
592.564	1	1
592.733	1	11
592.903	1	3
593.073	1	6
593.243	1	16
593.412	1	5
593.582	1	19
593.752	1	11
593.922	1	-2
594.091	1	16
594.261	1	13
594.431	1	4
594.601	1	6
594.771	1	4
594.940	1	12
595.110	1	17
595.280	1	6
595.450	1	11
595.619	1	7
595.789	1	-4
595.959	1	0
596.129	1	10
596.298	1	20
596.468	1	14
596.638	1	17
596.808	1	13
596.977	1	9
597.147	1	11
597.317	1	10
597.487	1	-9
597.656	1	5
597.826	1	1
597.996	1	11
598.166	1	3
598.335	1	15
598.505	1	11
598.675	1	-2
598.844	1	2
599.014	1	8
599.184	1	15
599.354	1	4
599.523	1	0
599.693	1	17
599.863	1	-1
600.033	1	-4
600.202	1	-1
600.372	1	5
600.542	1	23
600.712	1	5
600.881	1	4
601.051	1	9
601.221	1	7
601.390	1	15
601.560	1	10
601.730	1	10
601.900	1	0
602.069	1	0
602.239	1	0
602.409	1	19
602.578	1	0
602.748	1	14
602.918	1	0
603.088	1	9
603.257	1	8
603.427	1	11
603.597	1	12
603.767	1	6
603.936	1	18
604.106	1	7
604.276	1	7
604.445	1	3
604.615	1	7
604.785	1	0
604.954	1	18
605.124	1	5
605.294	1	16
605.464	1	8
605.633	1	20
605.803	1	7
605.973	1	10
606.142	1	11
606.312	1	3
606.482	1	-2
606.652	1	12
606.821	1	10
606.991	1	13
607.161	1	18
607.330	1	0
607.500	1	6
607.670	1	14
607.839	1	16
608.009	1	-4
608.179	1	3
608.348	1	14
608.518	1	10
608.688	1	9
608.858	1	2
609.027	1	7
609.197	1	19
609.367	1	14
609.536	1	4
609.706	1	15
609.876	1	-3
610.045	1	3
610.215	1	9
610.385	1	9
610.554	1	0
610.724	1	11
610.894	1	10
611.063	1	6
611.233	1	9
611.403	1	13
611.572	1	13
611.742	1	2
611.912	1	3
612.081	1	8
612.251	1	7
612.421	1	12
612.590	1	1
612.760	1	9
612.930	1	-4
613.099	1	16
613.269	1	10
613.439	1	11
613.608	1	17
613.778	1	12
613.948	1	20
614.117	1	17
614.287	1	9
614.457	1	3
614.626	1	9
614.796	1	11
614.966	1	5
615.135	1	3
615.305	1	9
615.475	1	14
615.644	1	18
615.814	1	1
615.984	1	3
616.153	1	13
616.323	1	1
616.493	1	6
616.662	1	7
616.832	1	4
617.002	1	15
617.171	1	-6
617.341	1	8
617.511	1	11
617.680	1	11
617.850	1	8
618.019	1	15
618.189	1	4
618.359	1	7
618.528	1	19
618.698	1	6
618.868	1	15
619.037	1	2
619.207	1	7
619.377	1	16
619.546	1	3
619.716	1	6
619.885	1	27
620.055	1	15
620.225	1	0
620.394	1	8
620.564	1	11
620.734	1	1
620.903	1	9
621.073	1	6
621.242	1	-4
621.412	1	13
621.582	1	7
621.751	1	6
621.921	1	5
622.091	1	2
622.260	1	13
622.430	1	9
622.599	1	9
622.769	1	11
622.939	1	9
623.108	1	15
623.278	1	13
623.448	1	8
623.617	1	-3
623.787	1	20
623.956	1	4
624.126	1	26
624.296	1	18
624.465	1	3
624.635	1	5
624.804	1	13
624.974	1	17
625.144	1	17
625.313	1	1
625.483	1	9
625.652	1	10
625.822	1	15
625.992	1	15
626.161	1	7
626.331	1	16
626.501	1	8
626.670	1	8
626.840	1	5
627.009	1	6
627.179	1	11
627.348	1	10
627.518	1	14
627.688	1	12
627.857	1	5
628.027	1	11
628.196	1	20
628.366	1	3
628.536	1	8
628.705	1	16
628.875	1	8
629.044	1	7
629.214	1	15
629.384	1	14
629.553	1	20
629.723	1	11
629.892	1	6
630.062	1	22
630.232	1	2
630.401	1	8
630.571	1	21
630.740	1	9
630.910	1	10
631.079	1	8
631.249	1	14
631.419	1	14
631.588	1	4
631.758	1	2
631.927	1	3
632.097	1	19
632.266	1	10
632.436	1	-1
632.606	1	12
632.775	1	9
632.945	1	8
633.114	1	6
633.284	1	13
633.453	1	15
633.623	1	11
633.793	1	14
633.962	1	8
634.132	1	12
634.301	1	10
634.471	1	18
634.640	1	9
634.810	1	12
634.979	1	8
635.149	1	11
635.319	1	11
635.488	1	13
635.658	1	3
635.827	1	15
635.997	1	11
636.166	1	19
636.336	1	18
636.505	1	23
636.675	1	6
636.845	1	21
637.014	1	23
637.184	1	4
637.353	1	11
637.523	1	8
637.692	1	20
637.862	1	14
638.031	1	13
638.201	1	18
638.370	1	4
638.540	1	13
638.710	1	6
638.879	1	9
639.049	1	11
639.218	1	15
639.388	1	25
639.557	1	12
639.727	1	-1
639.896	1	8
640.066	1	9
640.235	1	21
640.405	1	15
640.574	1	18
640.744	1	14
640.914	1	13
641.083	1	2
641.253	1	2
641.422	1	14
641.592	1	17
641.761	1	23
641.931	1	6
642.100	1	13
642.270	1	17
642.439	1	1
642.609	1	7
642.778	1	16
642.948	1	10
643.117	1	16
643.287	1	9
643.456	1	4
643.626	1	21
643.795	1	10
643.965	1	14
644.134	1	3
644.304	1	22
644.473	1	6
644.643	1	1
644.812	1	12
644.982	1	2
645.151	1	15
645.321	1	12
645.490	1	21
645.660	1	4
645.829	1	17
645.999	1	21
646.168	1	18
646.338	1	7
646.507	1	-10
646.677	1	15
646.846	1	22
647.016	1	12
647.185	1	12
647.355	1	13
647.524	1	15
647.694	1	6
647.863	1	7
648.033	1	16
648.202	1	20
648.372	1	9
648.541	1	12
648.711	1	15
648.880	1	20
649.050	1	21
649.219	1	7
649.389	1	11
649.558	1	14
649.728	1	3
649.897	1	9
650.067	1	12
650.236	1	19
650.406	1	8
650.575	1	10
650.745	1	10
650.914	1	18
651.084	1	0
651.253	1	22
651.423	1	9
651.592	1	14
651.762	1	20
651.931	1	7
652.101	1	19
652.270	1	12
652.440	1	22
652.609	1	13
652.778	1	16
652.948	1	4
653.117	1	23
653.287	1	18
653.456	1	20
653.626	1	15
653.795	1	14
653.965	1	18
654.134	1	13
654.304	1	7
654.473	1	18
654.643	1	24
654.812	1	19
654.982	1	12
655.151	1	19
655.320	1	17
655.490	1	-3
655.659	1	18
655.829	1	14
655.998	1	3
656.168	1	7
656.337	1	15
656.507	1	5
656.676	1	15
656.846	1	8
657.015	1	22
657.184	1	6
657.354	1	11
657.523	1	22
657.693	1	14
657.862	1	12
658.032	1	11
658.201	1	6
658.371	1	15
658.540	1	24
658.709	1	13
658.879	1	-8
659.048	1	5
659.218	1	7
659.387	1	23
659.557	1	19
659.726	1	27
659.895	1	12
660.065	1	15
660.234	1	11
660.404	1	31
660.573	1	17
660.743	1	18
660.912	1	22
661.081	1	7
661.251	1	10
661.420	1	21
661.590	1	17
661.759	1	7
661.929	1	21
662.098	1	20
662.267	1	17
662.437	1	17
662.606	1	8
662.776	1	20
662.945	1	20
663.115	1	-5
663.284	1	8
663.453	1	20
663.623	1	23
663.792	1	9
663.962	1	5
664.131	1	16
664.300	1	7
664.470	1	6
664.639	1	8
664.809	1	24
664.978	1	22
665.148	1	14
665.317	1	13
665.486	1	13
665.656	1	5
665.825	1	15
665.995	1	13
666.164	1	13
666.333	1	12
666.503	1	33
666.672	1	21
666.842	1	5
667.011	1	19
667.180	1	20
667.350	1	21
667.519	1	9
667.689	1	22
667.858	1	20
668.027	1	11
668.197	1	11
668.366	1	21
668.536	1	9
668.705	1	22
668.874	1	19
669.044	1	8
669.213	1	14
669.382	1	18
669.552	1	17
669.721	1	11
669.891	1	6
670.060	1	-1
670.229	1	18
670.399	1	11
670.568	1	26
670.738	1	2
670.907	1	22
671.076	1	26
671.246	1	9
671.415	1	24
671.584	1	12
671.754	1	21
671.923	1	10
672.093	1	20
672.262	1	9
672.431	1	25
672.601	1	7
672.770	1	15
672.939	1	11
673.109	1	13
673.278	1	22
673.448	1	15
673.617	1	17
673.786	1	7
