325.333	1	23
325.504	1	26
325.675	1	40
325.846	1	19
326.017	1	27
326.188	1	27
326.359	1	32
326.531	1	24
326.702	1	35
326.873	1	28
327.044	1	23
327.215	1	23
327.386	1	26
327.557	1	46
327.728	1	11
327.899	1	30
328.070	1	35
328.241	1	40
328.412	1	26
328.583	1	28
328.754	1	26
328.926	1	21
329.097	1	34
329.268	1	33
329.439	1	20
329.610	1	39
329.781	1	34
329.952	1	33
330.123	1	24
330.294	1	34
330.465	1	47
330.636	1	35
330.807	1	31
330.978	1	34
331.149	1	34
331.320	1	42
331.492	1	43
331.663	1	36
331.834	1	36
332.005	1	37
332.176	1	36
332.347	1	40
332.518	1	30
332.689	1	36
332.860	1	33
333.031	1	33
333.202	1	53
333.373	1	41
333.544	1	46
333.715	1	37
333.886	1	47
334.057	1	47
334.228	1	33
334.399	1	45
334.570	1	45
334.741	1	43
334.912	1	56
335.084	1	42
335.255	1	32
335.426	1	36
335.597	1	37
335.768	1	36
335.939	1	35
336.110	1	38
336.281	1	41
336.452	1	55
336.623	1	39
336.794	1	39
336.965	1	39
337.136	1	43
337.307	1	50
337.478	1	41
337.649	1	50
337.820	1	39
337.991	1	60
338.162	1	46
338.333	1	51
338.504	1	32
338.675	1	56
338.846	1	49
339.017	1	54
339.188	1	40
339.359	1	57
339.530	1	41
339.701	1	47
339.872	1	42
340.043	1	65
340.214	1	53
340.385	1	61
340.556	1	62
340.727	1	51
340.898	1	46
341.069	1	60
341.240	1	64
341.411	1	55
341.582	1	59
341.753	1	47
341.924	1	52
342.095	1	48
342.266	1	42
342.437	1	60
342.608	1	48
342.779	1	56
342.950	1	63
343.121	1	58
343.292	1	53
343.463	1	66
343.634	1	65
343.805	1	52
343.976	1	54
344.147	1	59
344.318	1	66
344.489	1	57
344.660	1	68
344.831	1	54
345.002	1	56
345.173	1	62
345.344	1	48
345.515	1	61
345.686	1	56
345.857	1	70
346.028	1	75
346.199	1	72
346.370	1	58
346.541	1	83
346.712	1	63
346.883	1	77
347.054	1	62
347.225	1	70
347.396	1	61
347.567	1	75
347.738	1	79
347.909	1	65
348.080	1	59
348.251	1	63
348.422	1	69
348.593	1	77
348.764	1	56
348.935	1	71
349.106	1	66
349.277	1	81
349.448	1	74
349.619	1	70
349.790	1	82
349.961	1	80
350.132	1	77
350.303	1	77
350.474	1	78
350.645	1	63
350.816	1	77
350.987	1	79
351.157	1	79
351.328	1	80
351.499	1	78
351.670	1	86
351.841	1	75
352.012	1	82
352.183	1	71
352.354	1	92
352.525	1	74
352.696	1	76
352.867	1	60
353.038	1	86
353.209	1	91
353.380	1	88
353.551	1	81
353.722	1	86
353.893	1	79
354.064	1	93
354.235	1	78
354.406	1	80
354.576	1	74
354.747	1	100
354.918	1	87
355.089	1	83
355.260	1	94
355.431	1	87
355.602	1	89
355.773	1	89
355.944	1	85
356.115	1	84
356.286	1	77
356.457	1	94
356.628	1	96
356.799	1	81
356.970	1	83
357.141	1	103
357.311	1	89
357.482	1	94
357.653	1	98
357.824	1	106
357.995	1	95
358.166	1	92
358.337	1	88
358.508	1	88
358.679	1	89
358.850	1	92
359.021	1	88
359.192	1	98
359.363	1	88
359.533	1	99
359.704	1	88
359.875	1	105
360.046	1	88
360.217	1	98
360.388	1	104
360.559	1	98
360.730	1	89
360.901	1	109
361.072	1	109
361.243	1	93
361.414	1	99
361.584	1	105
361.755	1	96
361.926	1	96
362.097	1	110
362.268	1	101
362.439	1	105
362.610	1	106
362.781	1	93
362.952	1	111
363.123	1	98
363.293	1	99
363.464	1	99
363.635	1	112
363.806	1	95
363.977	1	98
364.148	1	100
364.319	1	106
364.490	1	113
364.661	1	96
364.832	1	116
365.002	1	110
365.173	1	98
365.344	1	105
365.515	1	114
365.686	1	110
365.857	1	103
366.028	1	90
366.199	1	112
366.370	1	110
366.540	1	104
366.711	1	117
366.882	1	113
367.053	1	102
367.224	1	94
367.395	1	102
367.566	1	117
367.737	1	111
367.908	1	97
368.078	1	126
368.249	1	108
368.420	1	105
368.591	1	114
368.762	1	125
368.933	1	105
369.104	1	114
369.274	1	101
369.445	1	112
369.616	1	119
369.787	1	110
369.958	1	112
370.129	1	108
370.300	1	107
370.471	1	123
370.641	1	120
370.812	1	110
370.983	1	118
371.154	1	123
371.325	1	113
371.496	1	111
371.667	1	118
371.837	1	138
372.008	1	110
372.179	1	119
372.350	1	120
372.521	1	122
372.692	1	120
372.863	1	115
373.033	1	121
373.204	1	117
373.375	1	111
373.546	1	122
373.717	1	104
373.888	1	106
374.059	1	134
374.229	1	119
374.400	1	120
374.571	1	111
374.742	1	116
374.913	1	112
375.084	1	119
375.254	1	123
375.425	1	104
375.596	1	111
375.767	1	109
375.938	1	119
376.109	1	103
376.279	1	107
376.450	1	120
376.621	1	129
376.792	1	119
376.963	1	124
377.134	1	124
377.304	1	119
377.475	1	123
377.646	1	114
377.817	1	123
377.988	1	125
378.159	1	113
378.329	1	112
378.500	1	126
378.671	1	131
378.842	1	112
379.013	1	119
379.184	1	140
379.354	1	118
379.525	1	123
379.696	1	127
379.867	1	143
380.038	1	117
380.209	1	115
380.379	1	131
380.550	1	135
380.721	1	133
380.892	1	134
381.063	1	135
381.233	1	123
381.404	1	128
381.575	1	131
381.746	1	140
381.917	1	134
382.087	1	129
382.258	1	126
382.429	1	133
382.600	1	133
382.771	1	146
382.941	1	141
383.112	1	139
383.283	1	142
383.454	1	134
383.625	1	140
383.795	1	131
383.966	1	145
384.137	1	136
384.308	1	147
384.479	1	130
384.649	1	146
384.820	1	124
384.991	1	137
385.162	1	137
385.333	1	140
385.503	1	133
385.674	1	134
385.845	1	147
386.016	1	138
386.187	1	128
386.357	1	136
386.528	1	131
386.699	1	135
386.870	1	146
387.041	1	136
387.211	1	133
387.382	1	138
387.553	1	133
387.724	1	124
387.894	1	139
388.065	1	126
388.236	1	138
388.407	1	145
388.578	1	136
388.748	1	149
388.919	1	151
389.090	1	142
389.261	1	146
389.431	1	170
389.602	1	145
389.773	1	154
389.944	1	138
390.114	1	151
390.285	1	138
390.456	1	153
390.627	1	144
390.798	1	153
390.968	1	164
391.139	1	144
391.310	1	169
391.481	1	144
391.651	1	139
391.822	1	143
391.993	1	154
392.164	1	131
392.334	1	156
392.505	1	140
392.676	1	162
392.847	1	157
393.017	1	156
393.188	1	149
393.359	1	167
393.530	1	165
393.700	1	166
393.871	1	146
394.042	1	162
394.213	1	161
394.383	1	151
394.554	1	142
394.725	1	162
394.896	1	147
395.066	1	149
395.237	1	141
395.408	1	146
395.579	1	156
395.749	1	155
395.920	1	163
396.091	1	140
396.262	1	161
396.432	1	164
396.603	1	151
396.774	1	142
396.945	1	151
397.115	1	145
397.286	1	147
397.457	1	154
397.627	1	172
397.798	1	161
397.969	1	153
398.140	1	159
398.310	1	151
398.481	1	154
398.652	1	178
398.823	1	152
398.993	1	165
399.164	1	162
399.335	1	148
399.505	1	163
399.676	1	160
399.847	1	165
400.018	1	148
400.188	1	170
400.359	1	147
400.530	1	155
400.700	1	144
400.871	1	175
401.042	1	158
401.213	1	155
401.383	1	163
401.554	1	163
401.725	1	168
401.895	1	164
402.066	1	168
402.237	1	174
402.408	1	173
402.578	1	156
402.749	1	168
402.920	1	165
403.090	1	166
403.261	1	180
403.432	1	164
403.603	1	169
403.773	1	164
403.944	1	147
404.115	1	173
404.285	1	155
404.456	1	169
404.627	1	154
404.797	1	158
404.968	1	161
405.139	1	158
405.310	1	171
405.480	1	170
405.651	1	165
405.822	1	174
405.992	1	163
406.163	1	177
406.334	1	144
406.504	1	166
406.675	1	171
406.846	1	157
407.016	1	151
407.187	1	187
407.358	1	165
407.528	1	144
407.699	1	172
407.870	1	150
408.041	1	174
408.211	1	150
408.382	1	162
408.553	1	157
408.723	1	158
408.894	1	175
409.065	1	166
409.235	1	166
409.406	1	164
409.577	1	164
409.747	1	160
409.918	1	169
410.089	1	161
410.259	1	174
410.430	1	164
410.601	1	176
410.771	1	182
410.942	1	169
411.113	1	167
411.283	1	160
411.454	1	159
411.625	1	183
411.795	1	165
411.966	1	166
412.137	1	154
412.307	1	173
412.478	1	171
412.649	1	178
412.819	1	164
412.990	1	178
413.161	1	175
413.331	1	157
413.502	1	172
413.672	1	161
413.843	1	173
414.014	1	167
414.184	1	173
414.355	1	186
414.526	1	168
414.696	1	180
414.867	1	172
415.038	1	177
415.208	1	175
415.379	1	171
415.550	1	177
415.720	1	164
415.891	1	164
416.062	1	166
416.232	1	164
416.403	1	172
416.573	1	158
416.744	1	148
416.915	1	160
417.085	1	166
417.256	1	163
417.427	1	158
417.597	1	155
417.768	1	166
417.939	1	168
418.109	1	162
418.280	1	149
418.450	1	166
418.621	1	154
418.792	1	152
418.962	1	174
419.133	1	152
419.304	1	147
419.474	1	157
419.645	1	142
419.815	1	164
419.986	1	163
420.157	1	138
420.327	1	157
420.498	1	151
420.669	1	153
420.839	1	139
421.010	1	149
421.180	1	167
421.351	1	139
421.522	1	146
421.692	1	160
421.863	1	158
422.033	1	155
422.204	1	165
422.375	1	154
422.545	1	143
422.716	1	142
422.886	1	153
423.057	1	161
423.228	1	151
423.398	1	151
423.569	1	161
423.740	1	137
423.910	1	143
424.081	1	157
424.251	1	135
424.422	1	147
424.593	1	144
424.763	1	166
424.934	1	149
425.104	1	153
425.275	1	156
425.445	1	164
425.616	1	160
425.787	1	130
425.957	1	156
426.128	1	138
426.298	1	137
426.469	1	152
426.640	1	157
426.810	1	138
426.981	1	152
427.151	1	163
427.322	1	155
427.493	1	156
427.663	1	150
427.834	1	146
428.004	1	153
428.175	1	148
428.345	1	150
428.516	1	160
428.687	1	139
428.857	1	156
429.028	1	148
429.198	1	141
429.369	1	138
429.540	1	136
429.710	1	141
429.881	1	158
430.051	1	142
430.222	1	155
430.392	1	152
430.563	1	145
430.734	1	145
430.904	1	141
431.075	1	142
431.245	1	141
431.416	1	137
431.586	1	147
431.757	1	140
431.927	1	144
432.098	1	130
432.269	1	157
432.439	1	158
432.610	1	144
432.780	1	140
432.951	1	139
433.121	1	131
433.292	1	147
433.462	1	132
433.633	1	146
433.804	1	149
433.974	1	120
434.145	1	134
434.315	1	137
434.486	1	137
434.656	1	137
434.827	1	134
434.997	1	134
435.168	1	136
435.339	1	129
435.509	1	142
435.680	1	138
435.850	1	128
436.021	1	137
436.191	1	141
436.362	1	140
436.532	1	141
436.703	1	141
436.873	1	144
437.044	1	130
437.214	1	148
437.385	1	132
437.556	1	133
437.726	1	137
437.897	1	128
438.067	1	121
438.238	1	129
438.408	1	128
438.579	1	152
438.749	1	127
438.920	1	122
439.090	1	143
439.261	1	131
439.431	1	130
439.602	1	142
439.772	1	146
439.943	1	132
440.113	1	129
440.284	1	123
440.455	1	137
440.625	1	135
440.796	1	133
440.966	1	124
441.137	1	139
441.307	1	135
441.478	1	126
441.648	1	116
441.819	1	131
441.989	1	130
442.160	1	122
442.330	1	127
442.501	1	124
442.671	1	129
442.842	1	117
443.012	1	121
443.183	1	122
443.353	1	128
443.524	1	132
443.694	1	121
443.865	1	132
444.035	1	119
444.206	1	134
444.376	1	127
444.547	1	130
444.717	1	133
444.888	1	123
445.058	1	137
445.229	1	116
445.399	1	138
445.570	1	123
445.740	1	128
445.911	1	113
446.081	1	120
446.252	1	109
446.422	1	126
446.593	1	107
446.763	1	120
446.934	1	106
447.104	1	124
447.275	1	132
447.445	1	102
447.616	1	106
447.786	1	119
447.957	1	126
448.127	1	113
448.298	1	109
448.468	1	115
448.639	1	117
448.809	1	123
448.979	1	109
449.150	1	113
449.320	1	112
449.491	1	108
449.661	1	114
449.832	1	107
450.002	1	117
450.173	1	114
450.343	1	113
450.514	1	113
450.684	1	115
450.855	1	125
451.025	1	122
451.196	1	103
451.366	1	123
451.537	1	108
451.707	1	128
451.878	1	107
452.048	1	114
452.218	1	111
452.389	1	120
452.559	1	122
452.730	1	105
452.900	1	110
453.071	1	104
453.241	1	109
453.412	1	99
453.582	1	108
453.753	1	108
453.923	1	116
454.093	1	104
454.264	1	121
454.434	1	110
454.605	1	118
454.775	1	95
454.946	1	108
455.116	1	102
455.287	1	108
455.457	1	116
455.628	1	97
455.798	1	105
455.968	1	110
456.139	1	114
456.309	1	123
456.480	1	111
456.650	1	117
456.821	1	112
456.991	1	96
457.161	1	100
457.332	1	110
457.502	1	104
457.673	1	101
457.843	1	103
458.014	1	114
458.184	1	108
458.355	1	98
458.525	1	99
458.695	1	99
458.866	1	99
459.036	1	109
459.207	1	106
459.377	1	98
459.548	1	93
459.718	1	84
459.888	1	102
460.059	1	101
460.229	1	91
460.400	1	94
460.570	1	103
460.740	1	97
460.911	1	99
461.081	1	88
461.252	1	92
461.422	1	93
461.593	1	99
461.763	1	113
461.933	1	96
462.104	1	96
462.274	1	97
462.445	1	88
462.615	1	97
462.785	1	96
462.956	1	89
463.126	1	93
463.297	1	107
463.467	1	84
463.638	1	88
463.808	1	96
463.978	1	85
464.149	1	101
464.319	1	83
464.490	1	80
464.660	1	101
464.830	1	85
465.001	1	95
465.171	1	88
465.342	1	84
465.512	1	97
465.682	1	90
465.853	1	95
466.023	1	107
466.194	1	73
466.364	1	95
466.534	1	76
466.705	1	95
466.875	1	97
467.045	1	90
467.216	1	93
467.386	1	91
467.557	1	88
467.727	1	92
467.897	1	103
468.068	1	77
468.238	1	85
468.409	1	96
468.579	1	101
468.749	1	86
468.920	1	95
469.090	1	87
469.260	1	101
469.431	1	82
469.601	1	84
469.772	1	75
469.942	1	86
470.112	1	79
470.283	1	89
470.453	1	91
470.623	1	82
470.794	1	86
470.964	1	90
471.135	1	82
471.305	1	84
471.475	1	84
471.646	1	94
471.816	1	82
471.986	1	78
472.157	1	67
472.327	1	81
472.497	1	94
472.668	1	70
472.838	1	85
473.009	1	78
473.179	1	81
473.349	1	83
473.520	1	84
473.690	1	71
473.860	1	82
474.031	1	70
474.201	1	74
474.371	1	81
474.542	1	86
474.712	1	74
474.882	1	71
475.053	1	78
475.223	1	77
475.394	1	80
475.564	1	69
475.734	1	77
475.905	1	74
476.075	1	75
476.245	1	95
476.416	1	81
476.586	1	78
476.756	1	72
476.927	1	77
477.097	1	87
477.267	1	69
477.438	1	60
477.608	1	70
477.778	1	78
477.949	1	83
478.119	1	65
478.289	1	62
478.460	1	77
478.630	1	79
478.800	1	77
478.971	1	70
479.141	1	79
479.311	1	70
479.482	1	60
479.652	1	82
479.822	1	65
479.993	1	87
480.163	1	72
480.333	1	91
480.504	1	68
480.674	1	60
480.844	1	64
481.015	1	76
481.185	1	81
481.355	1	76
481.525	1	55
481.696	1	71
481.866	1	81
482.036	1	66
482.207	1	70
482.377	1	67
482.547	1	71
482.718	1	68
482.888	1	64
483.058	1	76
483.229	1	83
483.399	1	61
483.569	1	73
483.740	1	66
483.910	1	78
484.080	1	89
484.250	1	67
484.421	1	73
484.591	1	62
484.761	1	69
484.932	1	78
485.102	1	65
485.272	1	68
485.443	1	63
485.613	1	54
485.783	1	71
485.953	1	59
486.124	1	74
486.294	1	78
486.464	1	71
486.635	1	64
486.805	1	78
486.975	1	72
487.146	1	59
487.316	1	58
487.486	1	62
487.656	1	69
487.827	1	71
487.997	1	75
488.167	1	73
488.338	1	67
488.508	1	58
488.678	1	62
488.848	1	64
489.019	1	63
489.189	1	56
489.359	1	62
489.529	1	58
489.700	1	70
489.870	1	58
490.040	1	48
490.211	1	60
490.381	1	70
490.551	1	60
490.721	1	66
490.892	1	68
491.062	1	48
491.232	1	59
491.402	1	55
491.573	1	61
491.743	1	51
491.913	1	70
492.084	1	59
492.254	1	73
492.424	1	56
492.594	1	51
492.765	1	65
492.935	1	58
493.105	1	53
493.275	1	55
493.446	1	67
493.616	1	53
493.786	1	53
493.956	1	56
494.127	1	62
494.297	1	60
494.467	1	51
494.637	1	62
494.808	1	60
494.978	1	61
495.148	1	61
495.318	1	57
495.489	1	59
495.659	1	52
495.829	1	65
495.999	1	44
496.170	1	55
496.340	1	54
496.510	1	63
496.680	1	58
496.851	1	61
497.021	1	66
497.191	1	54
497.361	1	61
497.532	1	63
497.702	1	50
497.872	1	52
498.042	1	68
498.213	1	55
498.383	1	56
498.553	1	50
498.723	1	47
498.894	1	56
499.064	1	52
499.234	1	61
499.404	1	54
499.574	1	56
499.745	1	51
499.915	1	47
500.085	1	49
500.255	1	47
500.426	1	52
500.596	1	52
500.766	1	51
500.936	1	48
501.106	1	50
501.277	1	51
501.447	1	50
501.617	1	57
501.787	1	58
501.958	1	41
502.128	1	47
502.298	1	59
502.468	1	54
502.638	1	59
502.809	1	65
502.979	1	53
503.149	1	54
503.319	1	50
503.489	1	51
503.660	1	46
503.830	1	46
504.000	1	42
504.170	1	50
504.340	1	48
504.511	1	52
504.681	1	49
504.851	1	51
505.021	1	51
505.192	1	47
505.362	1	63
505.532	1	53
505.702	1	52
505.872	1	55
506.043	1	35
506.213	1	45
506.383	1	43
506.553	1	44
506.723	1	50
506.893	1	41
507.064	1	50
507.234	1	36
507.404	1	53
507.574	1	60
507.744	1	37
507.915	1	49
508.085	1	48
508.255	1	39
508.425	1	39
508.595	1	33
508.766	1	55
508.936	1	50
509.106	1	47
509.276	1	56
509.446	1	42
509.616	1	62
509.787	1	33
509.957	1	46
510.127	1	40
510.297	1	51
510.467	1	47
510.638	1	37
510.808	1	49
510.978	1	49
511.148	1	32
511.318	1	63
511.488	1	36
511.659	1	33
511.829	1	39
511.999	1	45
512.169	1	34
512.339	1	47
512.509	1	49
512.680	1	45
512.850	1	46
513.020	1	40
513.190	1	34
513.360	1	45
513.530	1	41
513.700	1	50
513.871	1	45
514.041	1	39
514.211	1	54
514.381	1	33
514.551	1	43
514.721	1	43
514.892	1	42
515.062	1	35
515.232	1	36
515.402	1	42
515.572	1	38
515.742	1	41
515.912	1	46
516.083	1	38
516.253	1	33
516.423	1	46
516.593	1	40
516.763	1	37
516.933	1	41
517.104	1	42
517.274	1	39
517.444	1	33
517.614	1	39
517.784	1	41
517.954	1	39
518.124	1	29
518.294	1	38
518.465	1	43
518.635	1	37
518.805	1	36
518.975	1	33
519.145	1	36
519.315	1	43
519.485	1	36
519.656	1	48
519.826	1	43
519.996	1	30
520.166	1	40
520.336	1	34
520.506	1	41
520.676	1	33
520.846	1	35
521.017	1	39
521.187	1	36
521.357	1	32
521.527	1	37
521.697	1	33
521.867	1	42
522.037	1	38
522.207	1	38
522.377	1	29
522.548	1	43
522.718	1	38
522.888	1	24
523.058	1	17
523.228	1	41
523.398	1	37
523.568	1	36
523.738	1	38
523.909	1	40
524.079	1	46
524.249	1	30
524.419	1	46
524.589	1	44
524.759	1	40
524.929	1	37
525.099	1	37
525.269	1	30
525.439	1	27
525.610	1	45
525.780	1	33
525.950	1	40
526.120	1	37
526.290	1	33
526.460	1	40
526.630	1	39
526.800	1	40
526.970	1	36
527.140	1	39
527.311	1	27
527.481	1	35
527.651	1	27
527.821	1	25
527.991	1	37
528.161	1	41
528.331	1	29
528.501	1	35
528.671	1	35
528.841	1	36
529.011	1	28
529.181	1	40
529.352	1	26
529.522	1	30
529.692	1	37
529.862	1	21
530.032	1	42
530.202	1	34
530.372	1	22
530.542	1	30
530.712	1	30
530.882	1	25
531.052	1	33
531.222	1	30
531.392	1	38
531.563	1	26
531.733	1	35
531.903	1	26
532.073	1	40
532.243	1	29
532.413	1	35
532.583	1	15
532.753	1	20
532.923	1	42
533.093	1	11
533.263	1	21
533.433	1	33
533.603	1	31
533.773	1	27
533.943	1	29
534.113	1	36
534.284	1	27
534.454	1	18
534.624	1	26
534.794	1	20
534.964	1	34
535.134	1	26
535.304	1	25
535.474	1	21
535.644	1	25
535.814	1	22
535.984	1	27
536.154	1	32
536.324	1	18
536.494	1	35
536.664	1	22
536.834	1	20
537.004	1	30
537.174	1	32
537.344	1	28
537.514	1	33
537.685	1	44
537.855	1	29
538.025	1	26
538.195	1	31
538.365	1	31
538.535	1	23
538.705	1	31
538.875	1	33
539.045	1	16
539.215	1	35
539.385	1	24
539.555	1	19
539.725	1	21
539.895	1	30
540.065	1	25
540.235	1	14
540.405	1	28
540.575	1	33
540.745	1	18
540.915	1	21
541.085	1	20
541.255	1	16
541.425	1	17
541.595	1	11
541.765	1	25
541.935	1	30
542.105	1	17
542.275	1	36
542.445	1	32
542.615	1	24
542.785	1	31
542.955	1	24
543.125	1	21
543.295	1	27
543.465	1	27
543.635	1	10
543.805	1	23
543.975	1	32
544.145	1	22
544.315	1	12
544.485	1	25
544.655	1	19
544.825	1	22
544.995	1	36
545.165	1	29
545.335	1	13
545.505	1	21
545.675	1	21
545.845	1	19
546.015	1	16
546.185	1	19
546.355	1	9
546.525	1	20
546.695	1	20
546.865	1	17
547.035	1	25
547.205	1	28
547.375	1	26
547.545	1	14
547.715	1	28
547.885	1	28
548.055	1	22
548.225	1	20
548.395	1	27
548.565	1	18
548.735	1	17
548.905	1	11
549.075	1	26
549.245	1	19
549.415	1	18
549.585	1	23
549.755	1	25
549.925	1	16
550.095	1	18
550.265	1	12
550.435	1	13
550.605	1	19
550.775	1	23
550.945	1	25
551.115	1	16
551.285	1	14
551.455	1	13
551.625	1	26
551.795	1	25
551.965	1	9
552.135	1	10
552.305	1	17
552.475	1	26
552.645	1	31
552.815	1	19
552.985	1	16
553.155	1	15
553.325	1	27
553.495	1	19
553.665	1	22
553.835	1	22
554.004	1	16
554.174	1	6
554.344	1	12
554.514	1	30
554.684	1	12
554.854	1	23
555.024	1	31
555.194	1	20
555.364	1	13
555.534	1	23
555.704	1	14
555.874	1	24
556.044	1	25
556.214	1	4
556.384	1	11
556.554	1	15
556.724	1	5
556.894	1	21
557.064	1	12
557.234	1	19
557.404	1	19
557.573	1	25
557.743	1	19
557.913	1	16
558.083	1	11
558.253	1	19
558.423	1	11
558.593	1	24
558.763	1	18
558.933	1	25
559.103	1	13
559.273	1	24
559.443	1	10
559.613	1	14
559.783	1	27
559.953	1	14
560.122	1	9
560.292	1	10
560.462	1	13
560.632	1	15
560.802	1	20
560.972	1	20
561.142	1	28
561.312	1	16
561.482	1	13
561.652	1	13
561.822	1	16
561.992	1	20
562.162	1	8
562.331	1	9
562.501	1	13
562.671	1	14
562.841	1	21
563.011	1	27
563.181	1	28
563.351	1	14
563.521	1	10
563.691	1	10
563.861	1	17
564.031	1	10
564.201	1	14
564.370	1	12
564.540	1	15
564.710	1	26
564.880	1	17
565.050	1	14
565.220	1	5
565.390	1	24
565.560	1	26
565.730	1	23
565.900	1	8
566.069	1	25
566.239	1	7
566.409	1	20
566.579	1	23
566.749	1	29
566.919	1	16
567.089	1	20
567.259	1	20
567.429	1	18
567.599	1	3
567.768	1	13
567.938	1	3
568.108	1	20
568.278	1	24
568.448	1	23
568.618	1	22
568.788	1	13
568.958	1	32
569.128	1	19
569.297	1	13
569.467	1	26
569.637	1	14
569.807	1	9
569.977	1	15
570.147	1	12
570.317	1	28
570.487	1	22
570.656	1	14
570.826	1	28
570.996	1	0
571.166	1	25
571.336	1	13
571.506	1	16
571.676	1	19
571.846	1	9
572.015	1	12
572.185	1	10
572.355	1	20
572.525	1	5
572.695	1	18
572.865	1	11
573.035	1	16
573.205	1	9
573.374	1	12
573.544	1	5
573.714	1	19
573.884	1	29
574.054	1	12
574.224	1	16
574.394	1	10
574.563	1	17
574.733	1	10
574.903	1	19
575.073	1	19
575.243	1	19
575.413	1	8
575.583	1	7
575.752	1	20
575.922	1	18
576.092	1	10
576.262	1	18
576.432	1	24
576.602	1	16
576.772	1	10
576.941	1	18
577.111	1	12
577.281	1	22
577.451	1	23
577.621	1	14
577.791	1	10
577.960	1	14
578.130	1	13
578.300	1	13
578.470	1	11
578.640	1	7
578.810	1	23
578.979	1	15
579.149	1	15
579.319	1	17
579.489	1	19
579.659	1	13
579.829	1	12
579.998	1	7
580.168	1	6
580.338	1	14
580.508	1	12
580.678	1	10
580.848	1	18
581.017	1	27
581.187	1	13
581.357	1	6
581.527	1	15
581.697	1	21
581.867	1	12
582.036	1	13
582.206	1	13
582.376	1	13
582.546	1	14
582.716	1	14
582.885	1	13
583.055	1	14
583.225	1	9
583.395	1	11
583.565	1	28
583.735	1	12
583.904	1	15
584.074	1	19
584.244	1	18
584.414	1	17
584.584	1	12
584.753	1	26
584.923	1	14
585.093	1	11
585.263	1	26
585.433	1	11
585.602	1	14
585.772	1	13
585.942	1	14
586.112	1	9
586.282	1	8
586.451	1	0
586.621	1	22
586.791	1	17
586.961	1	21
587.131	1	15
587.300	1	-6
587.470	1	12
587.640	1	12
587.810	1	9
587.980	1	32
588.149	1	22
588.319	1	18
588.489	1	17
588.659	1	10
588.829	1	14
588.998	1	21
589.168	1	13
589.338	1	20
589.508	1	17
589.677	1	12
589.847	1	18
590.017	1	13
590.187	1	13
590.357	1	13
590.526	1	27
590.696	1	25
590.866	1	17
591.036	1	27
591.205	1	-2
591.375	1	19
591.545	1	11
591.715	1	18
591.885	1	16
592.054	1	19
592.224	1	8
592.394	1	15
592.564	1	13
592.733	1	19
592.903	1	19
593.073	1	14
593.243	1	18
593.412	1	9
593.582	1	19
593.752	1	13
593.922	1	9
594.091	1	20
594.261	1	14
594.431	1	16
594.601	1	20
594.771	1	3
594.940	1	15
595.110	1	12
595.280	1	12
595.450	1	24
595.619	1	16
595.789	1	16
595.959	1	18
596.129	1	24
596.298	1	11
596.468	1	20
596.638	1	24
596.808	1	15
596.977	1	6
597.147	1	18
597.317	1	13
597.487	1	10
597.656	1	10
597.826	1	7
597.996	1	18
598.166	1	19
598.335	1	15
598.505	1	21
598.675	1	17
598.844	1	17
599.014	1	13
599.184	1	35
599.354	1	11
599.523	1	12
599.693	1	12
599.863	1	7
600.033	1	20
600.202	1	-1
600.372	1	12
600.542	1	23
600.712	1	22
600.881	1	19
601.051	1	20
601.221	1	20
601.390	1	12
601.560	1	13
601.730	1	24
601.900	1	23
602.069	1	15
602.239	1	4
602.409	1	16
602.578	1	19
602.748	1	19
602.918	1	3
603.088	1	10
603.257	1	21
603.427	1	14
603.597	1	13
603.767	1	15
603.936	1	23
604.106	1	33
604.276	1	12
604.445	1	15
604.615	1	12
604.785	1	13
604.954	1	20
605.124	1	19
605.294	1	17
605.464	1	21
605.633	1	17
605.803	1	8
605.973	1	17
606.142	1	16
606.312	1	11
606.482	1	18
606.652	1	26
606.821	1	26
606.991	1	25
607.161	1	26
607.330	1	5
607.500	1	12
607.670	1	19
607.839	1	16
608.009	1	9
608.179	1	11
608.348	1	24
608.518	1	20
608.688	1	26
608.858	1	14
609.027	1	17
609.197	1	15
609.367	1	18
609.536	1	12
609.706	1	6
609.876	1	3
610.045	1	18
610.215	1	19
610.385	1	27
610.554	1	9
610.724	1	31
610.894	1	13
611.063	1	3
611.233	1	22
611.403	1	14
611.572	1	17
611.742	1	8
611.912	1	19
612.081	1	22
612.251	1	28
612.421	1	18
612.590	1	11
612.760	1	16
612.930	1	10
613.099	1	17
613.269	1	19
613.439	1	23
613.608	1	27
613.778	1	13
613.948	1	22
614.117	1	19
614.287	1	16
614.457	1	19
614.626	1	7
614.796	1	15
614.966	1	15
615.135	1	11
615.305	1	7
615.475	1	19
615.644	1	29
615.814	1	15
615.984	1	18
616.153	1	15
616.323	1	11
616.493	1	23
616.662	1	19
616.832	1	15
617.002	1	32
617.171	1	6
617.341	1	23
617.511	1	28
617.680	1	19
617.850	1	15
618.019	1	15
618.189	1	20
618.359	1	19
618.528	1	29
618.698	1	15
618.868	1	26
619.037	1	9
619.207	1	19
619.377	1	24
619.546	1	20
619.716	1	23
619.885	1	25
620.055	1	15
620.225	1	19
620.394	1	18
620.564	1	25
620.734	1	28
620.903	1	12
621.073	1	23
621.242	1	15
621.412	1	12
621.582	1	6
621.751	1	13
621.921	1	15
622.091	1	17
622.260	1	24
622.430	1	20
622.599	1	21
622.769	1	25
622.939	1	24
623.108	1	28
623.278	1	27
623.448	1	21
623.617	1	14
623.787	1	24
623.956	1	16
624.126	1	24
624.296	1	26
624.465	1	11
624.635	1	16
624.804	1	18
624.974	1	20
625.144	1	19
625.313	1	16
625.483	1	24
625.652	1	17
625.822	1	22
625.992	1	9
626.161	1	16
626.331	1	16
626.501	1	20
626.670	1	18
626.840	1	8
627.009	1	20
627.179	1	12
627.348	1	31
627.518	1	28
627.688	1	19
627.857	1	13
628.027	1	21
628.196	1	18
628.366	1	26
628.536	1	22
628.705	1	18
628.875	1	13
629.044	1	20
629.214	1	8
629.384	1	29
629.553	1	20
629.723	1	20
629.892	1	13
630.062	1	35
630.232	1	11
630.401	1	26
630.571	1	13
630.740	1	20
630.910	1	25
631.079	1	23
631.249	1	16
631.419	1	26
631.588	1	15
631.758	1	19
631.927	1	26
632.097	1	22
632.266	1	20
632.436	1	21
632.606	1	31
632.775	1	23
632.945	1	14
633.114	1	23
633.284	1	15
633.453	1	13
633.623	1	23
633.793	1	19
633.962	1	18
634.132	1	28
634.301	1	23
634.471	1	28
634.640	1	37
634.810	1	25
634.979	1	19
635.149	1	21
635.319	1	23
635.488	1	26
635.658	1	17
635.827	1	23
635.997	1	18
636.166	1	32
636.336	1	22
636.505	1	29
636.675	1	28
636.845	1	24
637.014	1	23
637.184	1	31
637.353	1	20
637.523	1	22
637.692	1	39
637.862	1	15
638.031	1	23
638.201	1	35
638.370	1	25
638.540	1	20
638.710	1	30
638.879	1	18
639.049	1	22
639.218	1	19
639.388	1	29
639.557	1	23
639.727	1	23
639.896	1	24
640.066	1	21
640.235	1	30
640.405	1	29
640.574	1	39
640.744	1	24
640.914	1	25
641.083	1	25
641.253	1	15
641.422	1	30
641.592	1	32
641.761	1	27
641.931	1	18
642.100	1	32
642.270	1	16
642.439	1	15
642.609	1	31
642.778	1	30
642.948	1	14
643.117	1	38
643.287	1	18
643.456	1	14
643.626	1	30
643.795	1	22
643.965	1	23
644.134	1	31
644.304	1	30
644.473	1	23
644.643	1	21
644.812	1	16
644.982	1	28
645.151	1	24
645.321	1	27
645.490	1	33
645.660	1	26
645.829	1	27
645.999	1	27
646.168	1	25
646.338	1	35
646.507	1	18
646.677	1	41
646.846	1	36
647.016	1	23
647.185	1	33
647.355	1	28
647.524	1	17
647.694	1	34
647.863	1	25
648.033	1	23
648.202	1	37
648.372	1	15
648.541	1	28
648.711	1	27
648.880	1	34
649.050	1	22
649.219	1	27
649.389	1	31
649.558	1	23
649.728	1	30
649.897	1	22
650.067	1	19
650.236	1	43
650.406	1	20
650.575	1	22
650.745	1	24
650.914	1	31
651.084	1	22
651.253	1	33
651.423	1	23
651.592	1	29
651.762	1	36
651.931	1	39
652.101	1	28
652.270	1	32
652.440	1	28
652.609	1	32
652.778	1	28
652.948	1	24
653.117	1	47
653.287	1	28
653.456	1	39
653.626	1	24
653.795	1	28
653.965	1	36
654.134	1	27
654.304	1	25
654.473	1	37
654.643	1	39
654.812	1	26
654.982	1	42
655.151	1	38
655.320	1	20
655.490	1	30
655.659	1	31
655.829	1	18
655.998	1	27
656.168	1	29
656.337	1	32
656.507	1	28
656.676	1	27
656.846	1	25
657.015	1	50
657.184	1	23
657.354	1	27
657.523	1	26
657.693	1	30
657.862	1	37
658.032	1	16
658.201	1	40
658.371	1	42
658.540	1	36
658.709	1	29
658.879	1	22
659.048	1	12
659.218	1	31
659.387	1	33
659.557	1	29
659.726	1	41
659.895	1	29
660.065	1	28
660.234	1	36
660.404	1	46
660.573	1	27
660.743	1	32
660.912	1	37
661.081	1	28
661.251	1	31
661.420	1	42
661.590	1	39
661.759	1	29
661.929	1	42
662.098	1	37
662.267	1	44
662.437	1	45
662.606	1	40
662.776	1	30
662.945	1	45
663.115	1	16
663.284	1	21
663.453	1	29
663.623	1	25
663.792	1	24
663.962	1	36
664.131	1	28
664.300	1	18
664.470	1	23
664.639	1	29
664.809	1	26
664.978	1	36
665.148	1	39
665.317	1	31
665.486	1	37
665.656	1	24
665.825	1	32
665.995	1	33
666.164	1	31
666.333	1	34
666.503	1	43
666.672	1	34
666.842	1	23
667.011	1	29
667.180	1	33
667.350	1	38
667.519	1	24
667.689	1	48
667.858	1	41
668.027	1	35
668.197	1	37
668.366	1	47
668.536	1	19
668.705	1	38
668.874	1	40
669.044	1	29
669.213	1	39
669.382	1	41
669.552	1	44
669.721	1	34
669.891	1	34
670.060	1	42
670.229	1	39
670.399	1	43
670.568	1	45
670.738	1	36
670.907	1	36
671.076	1	30
671.246	1	29
671.415	1	31
671.584	1	19
671.754	1	45
671.923	1	24
672.093	1	42
672.262	1	40
672.431	1	43
672.601	1	27
672.770	1	32
672.939	1	32
673.109	1	33
673.278	1	43
673.448	1	31
673.617	1	32
673.786	1	26
