325.333	1	1
325.504	1	10
325.675	1	0
325.846	1	2
326.017	1	6
326.188	1	3
326.359	1	9
326.531	1	1
326.702	1	5
326.873	1	12
327.044	1	4
327.215	1	-5
327.386	1	-1
327.557	1	9
327.728	1	-5
327.899	1	1
328.070	1	10
328.241	1	11
328.412	1	-5
328.583	1	3
328.754	1	-6
328.926	1	5
329.097	1	5
329.268	1	3
329.439	1	0
329.610	1	12
329.781	1	16
329.952	1	11
330.123	1	-4
330.294	1	9
330.465	1	11
330.636	1	5
330.807	1	-5
330.978	1	4
331.149	1	14
331.320	1	6
331.492	1	11
331.663	1	1
331.834	1	1
332.005	1	5
332.176	1	3
332.347	1	2
332.518	1	-5
332.689	1	3
332.860	1	-5
333.031	1	10
333.202	1	8
333.373	1	9
333.544	1	0
333.715	1	-4
333.886	1	1
334.057	1	0
334.228	1	8
334.399	1	-5
334.570	1	13
334.741	1	10
334.912	1	14
335.084	1	0
335.255	1	4
335.426	1	8
335.597	1	6
335.768	1	2
335.939	1	1
336.110	1	3
336.281	1	2
336.452	1	9
336.623	1	7
336.794	1	7
336.965	1	6
337.136	1	3
337.307	1	-2
337.478	1	-7
337.649	1	-8
337.820	1	3
337.991	1	19
338.162	1	6
338.333	1	4
338.504	1	4
338.675	1	0
338.846	1	5
339.017	1	9
339.188	1	3
339.359	1	9
339.530	1	0
339.701	1	1
339.872	1	3
340.043	1	8
340.214	1	3
340.385	1	13
340.556	1	2
340.727	1	0
340.898	1	2
341.069	1	13
341.240	1	17
341.411	1	7
341.582	1	5
341.753	1	-2
341.924	1	12
342.095	1	0
342.266	1	-5
342.437	1	14
342.608	1	-5
342.779	1	-3
342.950	1	8
343.121	1	0
343.292	1	7
343.463	1	7
343.634	1	15
343.805	1	-2
343.976	1	9
344.147	1	5
344.318	1	7
344.489	1	1
344.660	1	4
344.831	1	3
345.002	1	6
345.173	1	2
345.344	1	-9
345.515	1	5
345.686	1	-1
345.857	1	10
346.028	1	13
346.199	1	7
346.370	1	4
346.541	1	17
346.712	1	3
346.883	1	-3
347.054	1	6
347.225	1	0
347.396	1	5
347.567	1	13
347.738	1	5
347.909	1	6
348.080	1	-1
348.251	1	-1
348.422	1	15
348.593	1	8
348.764	1	-1
348.935	1	3
349.106	1	3
349.277	1	22
349.448	1	7
349.619	1	12
349.790	1	11
349.961	1	14
350.132	1	2
350.303	1	8
350.474	1	4
350.645	1	0
350.816	1	17
350.987	1	6
351.157	1	10
351.328	1	11
351.499	1	5
351.670	1	10
351.841	1	-6
352.012	1	9
352.183	1	2
352.354	1	2
352.525	1	-1
352.696	1	8
352.867	1	7
353.038	1	14
353.209	1	10
353.380	1	10
353.551	1	10
353.722	1	10
353.893	1	1
354.064	1	9
354.235	1	7
354.406	1	1
354.576	1	5
354.747	1	7
354.918	1	16
355.089	1	7
355.260	1	13
355.431	1	13
355.602	1	4
355.773	1	-2
355.944	1	23
356.115	1	-11
356.286	1	7
356.457	1	5
356.628	1	21
356.799	1	5
356.970	1	1
357.141	1	14
357.311	1	13
357.482	1	7
357.653	1	-2
357.824	1	12
357.995	1	4
358.166	1	12
358.337	1	9
358.508	1	18
358.679	1	-4
358.850	1	6
359.021	1	18
359.192	1	6
359.363	1	4
359.533	1	12
359.704	1	10
359.875	1	17
360.046	1	8
360.217	1	5
360.388	1	12
360.559	1	19
360.730	1	8
360.901	1	4
361.072	1	11
361.243	1	-1
361.414	1	15
361.584	1	16
361.755	1	13
361.926	1	-3
362.097	1	8
362.268	1	0
362.439	1	13
362.610	1	6
362.781	1	-5
362.952	1	10
363.123	1	20
363.293	1	10
363.464	1	7
363.635	1	9
363.806	1	8
363.977	1	8
364.148	1	-4
364.319	1	3
364.490	1	8
364.661	1	14
364.832	1	25
365.002	1	20
365.173	1	17
365.344	1	3
365.515	1	15
365.686	1	-4
365.857	1	11
366.028	1	7
366.199	1	14
366.370	1	14
366.540	1	10
366.711	1	15
366.882	1	7
367.053	1	11
367.224	1	2
367.395	1	13
367.566	1	5
367.737	1	15
367.908	1	3
368.078	1	16
368.249	1	5
368.420	1	11
368.591	1	17
368.762	1	4
368.933	1	-3
369.104	1	15
369.274	1	11
369.445	1	8
369.616	1	5
369.787	1	22
369.958	1	10
370.129	1	18
370.300	1	2
370.471	1	12
370.641	1	11
370.812	1	15
370.983	1	9
371.154	1	15
371.325	1	17
371.496	1	8
371.667	1	10
371.837	1	13
372.008	1	15
372.179	1	12
372.350	1	7
372.521	1	13
372.692	1	8
372.863	1	15
373.033	1	15
373.204	1	14
373.375	1	18
373.546	1	19
373.717	1	6
373.888	1	7
374.059	1	12
374.229	1	12
374.400	1	-1
374.571	1	14
374.742	1	10
374.913	1	12
375.084	1	8
375.254	1	19
375.425	1	-1
375.596	1	8
375.767	1	1
375.938	1	9
376.109	1	-1
376.279	1	5
376.450	1	14
376.621	1	24
376.792	1	16
376.963	1	20
377.134	1	13
377.304	1	7
377.475	1	20
377.646	1	8
377.817	1	3
377.988	1	7
378.159	1	16
378.329	1	5
378.500	1	4
378.671	1	15
378.842	1	5
379.013	1	13
379.184	1	20
379.354	1	-4
379.525	1	12
379.696	1	7
379.867	1	20
380.038	1	-4
380.209	1	7
380.379	1	7
380.550	1	19
380.721	1	26
380.892	1	21
381.063	1	9
381.233	1	-2
381.404	1	11
381.575	1	18
381.746	1	11
381.917	1	5
382.087	1	21
382.258	1	12
382.429	1	22
382.600	1	7
382.771	1	9
382.941	1	6
383.112	1	16
383.283	1	23
383.454	1	18
383.625	1	16
383.795	1	7
383.966	1	5
384.137	1	19
384.308	1	13
384.479	1	11
384.649	1	24
384.820	1	11
384.991	1	10
385.162	1	23
385.333	1	17
385.503	1	17
385.674	1	13
385.845	1	21
386.016	1	9
386.187	1	5
386.357	1	20
386.528	1	7
386.699	1	8
386.870	1	9
387.041	1	17
387.211	1	17
387.382	1	7
387.553	1	11
387.724	1	7
387.894	1	13
388.065	1	16
388.236	1	9
388.407	1	23
388.578	1	0
388.748	1	11
388.919	1	20
389.090	1	18
389.261	1	12
389.431	1	26
389.602	1	11
389.773	1	11
389.944	1	15
390.114	1	15
390.285	1	4
390.456	1	5
390.627	1	17
390.798	1	12
390.968	1	8
391.139	1	18
391.310	1	19
391.481	1	9
391.651	1	19
391.822	1	10
391.993	1	17
392.164	1	-1
392.334	1	17
392.505	1	4
392.676	1	14
392.847	1	4
393.017	1	26
393.188	1	10
393.359	1	21
393.530	1	16
393.700	1	15
393.871	1	7
394.042	1	7
394.213	1	18
394.383	1	23
394.554	1	12
394.725	1	13
394.896	1	16
395.066	1	12
395.237	1	26
395.408	1	16
395.579	1	5
395.749	1	21
395.920	1	13
396.091	1	10
396.262	1	14
396.432	1	9
396.603	1	12
396.774	1	9
396.945	1	24
397.115	1	25
397.286	1	7
397.457	1	17
397.627	1	11
397.798	1	3
397.969	1	8
398.140	1	13
398.310	1	18
398.481	1	13
398.652	1	22
398.823	1	24
398.993	1	14
399.164	1	17
399.335	1	7
399.505	1	20
399.676	1	14
399.847	1	12
400.018	1	11
400.188	1	19
400.359	1	21
400.530	1	16
400.700	1	8
400.871	1	24
401.042	1	16
401.213	1	5
401.383	1	4
401.554	1	13
401.725	1	18
401.895	1	17
402.066	1	6
402.237	1	30
402.408	1	25
402.578	1	15
402.749	1	5
402.920	1	10
403.090	1	11
403.261	1	24
403.432	1	18
403.603	1	13
403.773	1	23
403.944	1	10
404.115	1	19
404.285	1	10
404.456	1	12
404.627	1	14
404.797	1	3
404.968	1	19
405.139	1	9
405.310	1	6
405.480	1	1
405.651	1	26
405.822	1	15
405.992	1	10
406.163	1	14
406.334	1	3
406.504	1	13
406.675	1	15
406.846	1	10
407.016	1	11
407.187	1	24
407.358	1	16
407.528	1	8
407.699	1	21
407.870	1	10
408.041	1	29
408.211	1	12
408.382	1	14
408.553	1	19
408.723	1	21
408.894	1	20
409.065	1	20
409.235	1	17
409.406	1	11
409.577	1	26
409.747	1	7
409.918	1	20
410.089	1	24
410.259	1	23
410.430	1	16
410.601	1	18
410.771	1	18
410.942	1	26
411.113	1	18
411.283	1	27
411.454	1	14
411.625	1	7
411.795	1	17
411.966	1	21
412.137	1	19
412.307	1	26
412.478	1	16
412.649	1	7
412.819	1	20
412.990	1	10
413.161	1	24
413.331	1	20
413.502	1	20
413.672	1	9
413.843	1	19
414.014	1	19
414.184	1	18
414.355	1	23
414.526	1	22
414.696	1	23
414.867	1	22
415.038	1	10
415.208	1	22
415.379	1	16
415.550	1	28
415.720	1	18
415.891	1	14
416.062	1	10
416.232	1	12
416.403	1	11
416.573	1	21
416.744	1	24
416.915	1	16
417.085	1	21
417.256	1	17
417.427	1	18
417.597	1	10
417.768	1	5
417.939	1	24
418.109	1	19
418.280	1	15
418.450	1	18
418.621	1	7
418.792	1	13
418.962	1	22
419.133	1	6
419.304	1	12
419.474	1	12
419.645	1	11
419.815	1	15
419.986	1	15
420.157	1	9
420.327	1	18
420.498	1	6
420.669	1	16
420.839	1	12
421.010	1	20
421.180	1	14
421.351	1	25
421.522	1	21
421.692	1	17
421.863	1	16
422.033	1	17
422.204	1	13
422.375	1	11
422.545	1	9
422.716	1	9
422.886	1	6
423.057	1	9
423.228	1	8
423.398	1	12
423.569	1	22
423.740	1	11
423.910	1	9
424.081	1	12
424.251	1	6
424.422	1	22
424.593	1	20
424.763	1	14
424.934	1	20
425.104	1	19
425.275	1	23
425.445	1	16
425.616	1	17
425.787	1	5
425.957	1	25
426.128	1	8
426.298	1	7
426.469	1	12
426.640	1	26
426.810	1	15
426.981	1	8
427.151	1	24
427.322	1	18
427.493	1	13
427.663	1	18
427.834	1	16
428.004	1	15
428.175	1	4
428.345	1	12
428.516	1	21
428.687	1	12
428.857	1	8
429.028	1	18
429.198	1	17
429.369	1	14
429.540	1	8
429.710	1	15
429.881	1	9
430.051	1	9
430.222	1	19
430.392	1	21
430.563	1	21
430.734	1	13
430.904	1	23
431.075	1	15
431.245	1	8
431.416	1	9
431.586	1	14
431.757	1	11
431.927	1	9
432.098	1	7
432.269	1	4
432.439	1	20
432.610	1	18
432.780	1	18
432.951	1	9
433.121	1	18
433.292	1	7
433.462	1	21
433.633	1	7
433.804	1	18
433.974	1	5
434.145	1	18
434.315	1	8
434.486	1	14
434.656	1	14
434.827	1	16
434.997	1	13
435.168	1	17
435.339	1	1
435.509	1	11
435.680	1	12
435.850	1	5
436.021	1	17
436.191	1	16
436.362	1	14
436.532	1	21
436.703	1	5
436.873	1	7
437.044	1	15
437.214	1	24
437.385	1	14
437.556	1	10
437.726	1	8
437.897	1	9
438.067	1	2
438.238	1	10
438.408	1	22
438.579	1	14
438.749	1	7
438.920	1	6
439.090	1	23
439.261	1	1
439.431	1	8
439.602	1	15
439.772	1	15
439.943	1	6
440.113	1	6
440.284	1	7
440.455	1	14
440.625	1	25
440.796	1	18
440.966	1	11
441.137	1	13
441.307	1	10
441.478	1	20
441.648	1	7
441.819	1	15
441.989	1	17
442.160	1	1
442.330	1	3
442.501	1	13
442.671	1	10
442.842	1	14
443.012	1	25
443.183	1	14
443.353	1	20
443.524	1	4
443.694	1	13
443.865	1	2
444.035	1	9
444.206	1	9
444.376	1	12
444.547	1	20
444.717	1	6
444.888	1	13
445.058	1	27
445.229	1	14
445.399	1	19
445.570	1	22
445.740	1	20
445.911	1	2
446.081	1	25
446.252	1	15
446.422	1	13
446.593	1	16
446.763	1	32
446.934	1	9
447.104	1	13
447.275	1	10
447.445	1	7
447.616	1	8
447.786	1	29
447.957	1	12
448.127	1	-3
448.298	1	5
448.468	1	11
448.639	1	16
448.809	1	12
448.979	1	7
449.150	1	8
449.320	1	8
449.491	1	6
449.661	1	17
449.832	1	11
450.002	1	1
450.173	1	11
450.343	1	16
450.514	1	14
450.684	1	15
450.855	1	17
451.025	1	19
451.196	1	-4
451.366	1	10
451.537	1	5
451.707	1	13
451.878	1	8
452.048	1	15
452.218	1	8
452.389	1	25
452.559	1	8
452.730	1	1
452.900	1	8
453.071	1	10
453.241	1	7
453.412	1	3
453.582	1	3
453.753	1	12
453.923	1	16
454.093	1	10
454.264	1	14
454.434	1	18
454.605	1	13
454.775	1	2
454.946	1	-1
455.116	1	2
455.287	1	11
455.457	1	12
455.628	1	13
455.798	1	2
455.968	1	13
456.139	1	15
456.309	1	9
456.480	1	2
456.650	1	10
456.821	1	12
456.991	1	9
457.161	1	16
457.332	1	12
457.502	1	18
457.673	1	12
457.843	1	11
458.014	1	11
458.184	1	12
458.355	1	6
458.525	1	7
458.695	1	8
458.866	1	10
459.036	1	23
459.207	1	14
459.377	1	9
459.548	1	14
459.718	1	2
459.888	1	5
460.059	1	11
460.229	1	9
460.400	1	0
460.570	1	11
460.740	1	15
460.911	1	10
461.081	1	-1
461.252	1	3
461.422	1	1
461.593	1	7
461.763	1	15
461.933	1	12
462.104	1	13
462.274	1	3
462.445	1	2
462.615	1	17
462.785	1	7
462.956	1	9
463.126	1	3
463.297	1	8
463.467	1	9
463.638	1	1
463.808	1	9
463.978	1	6
464.149	1	17
464.319	1	13
464.490	1	6
464.660	1	15
464.830	1	10
465.001	1	4
465.171	1	4
465.342	1	10
465.512	1	17
465.682	1	15
465.853	1	18
466.023	1	29
466.194	1	4
466.364	1	4
466.534	1	0
466.705	1	12
466.875	1	12
467.045	1	12
467.216	1	5
467.386	1	9
467.557	1	17
467.727	1	11
467.897	1	25
468.068	1	8
468.238	1	1
468.409	1	12
468.579	1	10
468.749	1	11
468.920	1	22
469.090	1	8
469.260	1	15
469.431	1	4
469.601	1	10
469.772	1	7
469.942	1	11
470.112	1	11
470.283	1	14
470.453	1	17
470.623	1	20
470.794	1	9
470.964	1	17
471.135	1	14
471.305	1	9
471.475	1	12
471.646	1	9
471.816	1	10
471.986	1	4
472.157	1	3
472.327	1	16
472.497	1	16
472.668	1	3
472.838	1	12
473.009	1	9
473.179	1	9
473.349	1	2
473.520	1	-8
473.690	1	14
473.860	1	3
474.031	1	5
474.201	1	17
474.371	1	16
474.542	1	20
474.712	1	15
474.882	1	9
475.053	1	1
475.223	1	-10
475.394	1	-1
475.564	1	7
475.734	1	1
475.905	1	16
476.075	1	12
476.245	1	22
476.416	1	10
476.586	1	12
476.756	1	8
476.927	1	12
477.097	1	14
477.267	1	16
477.438	1	-5
477.608	1	5
477.778	1	4
477.949	1	16
478.119	1	5
478.289	1	6
478.460	1	10
478.630	1	11
478.800	1	18
478.971	1	6
479.141	1	5
479.311	1	10
479.482	1	-10
479.652	1	3
479.822	1	0
479.993	1	14
480.163	1	11
480.333	1	16
480.504	1	13
480.674	1	1
480.844	1	5
481.015	1	13
481.185	1	13
481.355	1	6
481.525	1	2
481.696	1	2
481.866	1	2
482.036	1	-1
482.207	1	1
482.377	1	10
482.547	1	3
482.718	1	0
482.888	1	0
483.058	1	16
483.229	1	-3
483.399	1	11
483.569	1	2
483.740	1	3
483.910	1	16
484.080	1	12
484.250	1	11
484.421	1	9
484.591	1	11
484.761	1	12
484.932	1	13
485.102	1	-4
485.272	1	7
485.443	1	5
485.613	1	-3
485.783	1	-1
485.953	1	4
486.124	1	0
486.294	1	5
486.464	1	5
486.635	1	14
486.805	1	18
486.975	1	17
487.146	1	2
487.316	1	-7
487.486	1	8
487.656	1	14
487.827	1	4
487.997	1	13
488.167	1	8
488.338	1	6
488.508	1	6
488.678	1	8
488.848	1	6
489.019	1	3
489.189	1	4
489.359	1	1
489.529	1	9
489.700	1	-6
489.870	1	-1
490.040	1	-6
490.211	1	5
490.381	1	21
490.551	1	-4
490.721	1	9
490.892	1	20
491.062	1	8
491.232	1	14
491.402	1	-4
491.573	1	2
491.743	1	6
491.913	1	3
492.084	1	10
492.254	1	6
492.424	1	2
492.594	1	6
492.765	1	12
492.935	1	3
493.105	1	1
493.275	1	1
493.446	1	12
493.616	1	-6
493.786	1	1
493.956	1	6
494.127	1	12
494.297	1	13
494.467	1	5
494.637	1	11
494.808	1	8
494.978	1	-3
495.148	1	14
495.318	1	12
495.489	1	8
495.659	1	4
495.829	1	8
495.999	1	1
496.170	1	5
496.340	1	13
496.510	1	9
496.680	1	10
496.851	1	6
497.021	1	14
497.191	1	5
497.361	1	9
497.532	1	18
497.702	1	9
497.872	1	-3
498.042	1	12
498.213	1	4
498.383	1	18
498.553	1	10
498.723	1	5
498.894	1	20
499.064	1	6
499.234	1	8
499.404	1	17
499.574	1	7
499.745	1	2
499.915	1	2
500.085	1	-2
500.255	1	8
500.426	1	2
500.596	1	-3
500.766	1	5
500.936	1	6
501.106	1	5
501.277	1	5
501.447	1	4
501.617	1	4
501.787	1	9
501.958	1	4
502.128	1	11
502.298	1	11
502.468	1	7
502.638	1	18
502.809	1	17
502.979	1	11
503.149	1	13
503.319	1	7
503.489	1	6
503.660	1	9
503.830	1	5
504.000	1	-2
504.170	1	4
504.340	1	3
504.511	1	14
504.681	1	-3
504.851	1	-3
505.021	1	12
505.192	1	16
505.362	1	12
505.532	1	7
505.702	1	12
505.872	1	5
506.043	1	-5
506.213	1	-6
506.383	1	6
506.553	1	11
506.723	1	0
506.893	1	14
507.064	1	9
507.234	1	2
507.404	1	13
507.574	1	-1
507.744	1	-4
507.915	1	5
508.085	1	5
508.255	1	12
508.425	1	1
508.595	1	0
508.766	1	-1
508.936	1	4
509.106	1	0
509.276	1	3
509.446	1	6
509.616	1	11
509.787	1	2
509.957	1	9
510.127	1	16
510.297	1	6
510.467	1	0
510.638	1	-2
510.808	1	11
510.978	1	11
511.148	1	-3
511.318	1	18
511.488	1	-1
511.659	1	-4
511.829	1	4
511.999	1	5
512.169	1	-2
512.339	1	3
512.509	1	7
512.680	1	-1
512.850	1	11
513.020	1	9
513.190	1	-1
513.360	1	0
513.530	1	11
513.700	1	16
513.871	1	12
514.041	1	9
514.211	1	15
514.381	1	-3
514.551	1	5
514.721	1	4
514.892	1	9
515.062	1	-5
515.232	1	-5
515.402	1	7
515.572	1	7
515.742	1	2
515.912	1	15
516.083	1	1
516.253	1	-6
516.423	1	-2
516.593	1	10
516.763	1	6
516.933	1	6
517.104	1	1
517.274	1	1
517.444	1	3
517.614	1	3
517.784	1	6
517.954	1	6
518.124	1	-5
518.294	1	1
518.465	1	7
518.635	1	-1
518.805	1	1
518.975	1	4
519.145	1	4
519.315	1	14
519.485	1	2
519.656	1	11
519.826	1	13
519.996	1	4
520.166	1	1
520.336	1	8
520.506	1	7
520.676	1	5
520.846	1	2
521.017	1	-8
521.187	1	-1
521.357	1	2
521.527	1	11
521.697	1	-1
521.867	1	0
522.037	1	-5
522.207	1	13
522.377	1	-7
522.548	1	3
522.718	1	15
522.888	1	-5
523.058	1	-4
523.228	1	5
523.398	1	-3
523.568	1	-2
523.738	1	0
523.909	1	17
524.079	1	11
524.249	1	1
524.419	1	5
524.589	1	12
524.759	1	2
524.929	1	6
525.099	1	14
525.269	1	8
525.439	1	1
525.610	1	6
525.780	1	7
525.950	1	3
526.120	1	6
526.290	1	10
526.460	1	10
526.630	1	15
526.800	1	3
526.970	1	5
527.140	1	14
527.311	1	-8
527.481	1	5
527.651	1	2
527.821	1	6
527.991	1	11
528.161	1	-6
528.331	1	2
528.501	1	11
528.671	1	11
528.841	1	9
529.011	1	1
529.181	1	8
529.352	1	-4
529.522	1	2
529.692	1	0
529.862	1	-2
530.032	1	-3
530.202	1	11
530.372	1	8
530.542	1	5
530.712	1	-5
530.882	1	-4
531.052	1	3
531.222	1	-3
531.392	1	-3
531.563	1	6
531.733	1	16
531.903	1	3
532.073	1	11
532.243	1	1
532.413	1	2
532.583	1	-2
532.753	1	3
532.923	1	17
533.093	1	5
533.263	1	-6
533.433	1	5
533.603	1	-4
533.773	1	5
533.943	1	9
534.113	1	1
534.284	1	6
534.454	1	2
534.624	1	2
534.794	1	9
534.964	1	4
535.134	1	3
535.304	1	14
535.474	1	2
535.644	1	11
535.814	1	-3
535.984	1	3
536.154	1	7
536.324	1	-4
536.494	1	5
536.664	1	1
536.834	1	8
537.004	1	0
537.174	1	7
537.344	1	2
537.514	1	6
537.685	1	0
537.855	1	2
538.025	1	3
538.195	1	13
538.365	1	5
538.535	1	6
538.705	1	-4
538.875	1	12
539.045	1	3
539.215	1	10
539.385	1	3
539.555	1	2
539.725	1	10
539.895	1	5
540.065	1	10
540.235	1	-6
540.405	1	13
540.575	1	-4
540.745	1	-3
540.915	1	6
541.085	1	4
541.255	1	12
541.425	1	-12
541.595	1	-13
541.765	1	5
541.935	1	6
542.105	1	0
542.275	1	2
542.445	1	9
542.615	1	7
542.785	1	12
542.955	1	5
543.125	1	4
543.295	1	13
543.465	1	7
543.635	1	-5
543.805	1	3
543.975	1	3
544.145	1	9
544.315	1	-2
544.485	1	-1
544.655	1	9
544.825	1	2
544.995	1	8
545.165	1	7
545.335	1	-1
545.505	1	1
545.675	1	10
545.845	1	-1
546.015	1	6
546.185	1	-1
546.355	1	4
546.525	1	0
546.695	1	5
546.865	1	1
547.035	1	8
547.205	1	-4
547.375	1	4
547.545	1	-1
547.715	1	7
547.885	1	5
548.055	1	3
548.225	1	3
548.395	1	8
548.565	1	-3
548.735	1	6
548.905	1	-9
549.075	1	2
549.245	1	-2
549.415	1	9
549.585	1	7
549.755	1	9
549.925	1	3
550.095	1	-4
550.265	1	-10
550.435	1	1
550.605	1	0
550.775	1	7
550.945	1	-3
551.115	1	-4
551.285	1	0
551.455	1	0
551.625	1	6
551.795	1	7
551.965	1	-4
552.135	1	-10
552.305	1	8
552.475	1	14
552.645	1	11
552.815	1	5
552.985	1	-9
553.155	1	0
553.325	1	-1
553.495	1	-7
553.665	1	3
553.835	1	-1
554.004	1	-3
554.174	1	1
554.344	1	-1
554.514	1	2
554.684	1	-1
554.854	1	4
555.024	1	12
555.194	1	11
555.364	1	7
555.534	1	7
555.704	1	-2
555.874	1	4
556.044	1	5
556.214	1	-5
556.384	1	6
556.554	1	-3
556.724	1	-8
556.894	1	0
557.064	1	5
557.234	1	3
557.404	1	9
557.573	1	15
557.743	1	1
557.913	1	-4
558.083	1	1
558.253	1	2
558.423	1	4
558.593	1	6
558.763	1	6
558.933	1	7
559.103	1	1
559.273	1	-1
559.443	1	-5
559.613	1	-5
559.783	1	15
559.953	1	-5
560.122	1	-10
560.292	1	7
560.462	1	9
560.632	1	4
560.802	1	7
560.972	1	2
561.142	1	-2
561.312	1	-2
561.482	1	2
561.652	1	5
561.822	1	3
561.992	1	6
562.162	1	2
562.331	1	-6
562.501	1	2
562.671	1	6
562.841	1	13
563.011	1	11
563.181	1	8
563.351	1	-13
563.521	1	6
563.691	1	-4
563.861	1	9
564.031	1	6
564.201	1	-2
564.370	1	5
564.540	1	11
564.710	1	12
564.880	1	8
565.050	1	-9
565.220	1	1
565.390	1	11
565.560	1	4
565.730	1	0
565.900	1	-6
566.069	1	5
566.239	1	-8
566.409	1	8
566.579	1	3
566.749	1	10
566.919	1	3
567.089	1	-4
567.259	1	-1
567.429	1	2
567.599	1	-8
567.768	1	4
567.938	1	-3
568.108	1	-3
568.278	1	7
568.448	1	1
568.618	1	13
568.788	1	5
568.958	1	15
569.128	1	12
569.297	1	-6
569.467	1	14
569.637	1	-1
569.807	1	-4
569.977	1	8
570.147	1	-4
570.317	1	20
570.487	1	7
570.656	1	3
570.826	1	10
570.996	1	1
571.166	1	-5
571.336	1	6
571.506	1	1
571.676	1	7
571.846	1	2
572.015	1	4
572.185	1	1
572.355	1	-1
572.525	1	-3
572.695	1	9
572.865	1	-3
573.035	1	-1
573.205	1	-7
573.374	1	-1
573.544	1	-8
573.714	1	7
573.884	1	14
574.054	1	1
574.224	1	6
574.394	1	-7
574.563	1	-8
574.733	1	-4
574.903	1	7
575.073	1	-1
575.243	1	-1
575.413	1	5
575.583	1	2
575.752	1	-4
575.922	1	-8
576.092	1	0
576.262	1	1
576.432	1	10
576.602	1	-2
576.772	1	-2
576.941	1	15
577.111	1	5
577.281	1	13
577.451	1	8
577.621	1	-4
577.791	1	-6
577.960	1	9
578.130	1	6
578.300	1	3
578.470	1	14
578.640	1	4
578.810	1	2
578.979	1	7
579.149	1	-1
579.319	1	3
579.489	1	-4
579.659	1	-5
579.829	1	9
579.998	1	4
580.168	1	0
580.338	1	-1
580.508	1	10
580.678	1	-10
580.848	1	7
581.017	1	13
581.187	1	2
581.357	1	-5
581.527	1	0
581.697	1	10
581.867	1	-1
582.036	1	1
582.206	1	3
582.376	1	2
582.546	1	-10
582.716	1	2
582.885	1	3
583.055	1	-9
583.225	1	2
583.395	1	9
583.565	1	11
583.735	1	-10
583.904	1	1
584.074	1	1
584.244	1	-1
584.414	1	4
584.584	1	1
584.753	1	6
584.923	1	2
585.093	1	-4
585.263	1	6
585.433	1	-1
585.602	1	-4
585.772	1	2
585.942	1	-10
586.112	1	0
586.282	1	2
586.451	1	-3
586.621	1	8
586.791	1	8
586.961	1	7
587.131	1	11
587.300	1	-7
587.470	1	0
587.640	1	-10
587.810	1	-8
587.980	1	13
588.149	1	3
588.319	1	2
588.489	1	18
588.659	1	-8
588.829	1	7
588.998	1	5
589.168	1	7
589.338	1	-1
589.508	1	7
589.677	1	-2
589.847	1	-6
590.017	1	8
590.187	1	1
590.357	1	2
590.526	1	15
590.696	1	3
590.866	1	6
591.036	1	3
591.205	1	-7
591.375	1	-2
591.545	1	-11
591.715	1	4
591.885	1	7
592.054	1	5
592.224	1	2
592.394	1	-6
592.564	1	-9
592.733	1	0
592.903	1	-3
593.073	1	0
593.243	1	6
593.412	1	0
593.582	1	10
593.752	1	7
593.922	1	-4
594.091	1	5
594.261	1	7
594.431	1	-1
594.601	1	2
594.771	1	-3
594.940	1	2
595.110	1	1
595.280	1	-6
595.450	1	0
595.619	1	-1
595.789	1	0
595.959	1	-5
596.129	1	8
596.298	1	12
596.468	1	5
596.638	1	11
596.808	1	8
596.977	1	12
597.147	1	11
597.317	1	0
597.487	1	-1
597.656	1	9
597.826	1	7
597.996	1	7
598.166	1	-4
598.335	1	12
598.505	1	8
598.675	1	-7
598.844	1	2
599.014	1	6
599.184	1	20
599.354	1	-1
599.523	1	-5
599.693	1	0
599.863	1	-1
600.033	1	1
600.202	1	-3
600.372	1	1
600.542	1	9
600.712	1	1
600.881	1	3
601.051	1	7
601.221	1	4
601.390	1	9
601.560	1	0
601.730	1	17
601.900	1	1
602.069	1	1
602.239	1	-14
602.409	1	15
602.578	1	-5
602.748	1	3
602.918	1	-4
603.088	1	-1
603.257	1	11
603.427	1	1
603.597	1	4
603.767	1	0
603.936	1	8
604.106	1	0
604.276	1	0
604.445	1	4
604.615	1	-4
604.785	1	-5
604.954	1	5
605.124	1	-1
605.294	1	1
605.464	1	3
605.633	1	2
605.803	1	4
605.973	1	-2
606.142	1	5
606.312	1	-1
606.482	1	-2
606.652	1	-2
606.821	1	10
606.991	1	7
607.161	1	22
607.330	1	-13
607.500	1	6
607.670	1	1
607.839	1	-4
608.009	1	-9
608.179	1	4
608.348	1	-1
608.518	1	13
608.688	1	7
608.858	1	0
609.027	1	-2
609.197	1	4
609.367	1	8
609.536	1	-15
609.706	1	5
609.876	1	-7
610.045	1	4
610.215	1	2
610.385	1	8
610.554	1	3
610.724	1	17
610.894	1	13
611.063	1	-11
611.233	1	9
611.403	1	-3
611.572	1	11
611.742	1	-9
611.912	1	3
612.081	1	7
612.251	1	12
612.421	1	2
612.590	1	7
612.760	1	-5
612.930	1	-1
613.099	1	5
613.269	1	-3
613.439	1	2
613.608	1	13
613.778	1	3
613.948	1	7
614.117	1	-2
614.287	1	10
614.457	1	0
614.626	1	-2
614.796	1	-5
614.966	1	6
615.135	1	0
615.305	1	0
615.475	1	2
615.644	1	-3
615.814	1	7
615.984	1	6
616.153	1	-4
616.323	1	-9
616.493	1	8
616.662	1	4
616.832	1	4
617.002	1	10
617.171	1	0
617.341	1	-6
617.511	1	-1
617.680	1	13
617.850	1	-6
618.019	1	6
618.189	1	6
618.359	1	5
618.528	1	13
618.698	1	3
618.868	1	11
619.037	1	2
619.207	1	0
619.377	1	14
619.546	1	4
619.716	1	1
619.885	1	14
620.055	1	11
620.225	1	8
620.394	1	6
620.564	1	11
620.734	1	3
620.903	1	1
621.073	1	5
621.242	1	-12
621.412	1	8
621.582	1	-7
621.751	1	-1
621.921	1	-2
622.091	1	4
622.260	1	5
622.430	1	14
622.599	1	5
622.769	1	0
622.939	1	15
623.108	1	8
623.278	1	0
623.448	1	-8
623.617	1	-2
623.787	1	0
623.956	1	-5
624.126	1	21
624.296	1	9
624.465	1	2
624.635	1	-2
624.804	1	7
624.974	1	0
625.144	1	12
625.313	1	-6
625.483	1	3
625.652	1	4
625.822	1	4
625.992	1	1
626.161	1	-3
626.331	1	1
626.501	1	13
626.670	1	0
626.840	1	1
627.009	1	2
627.179	1	7
627.348	1	-5
627.518	1	15
627.688	1	4
627.857	1	-1
628.027	1	6
628.196	1	9
628.366	1	-1
628.536	1	4
628.705	1	-4
628.875	1	0
629.044	1	-5
629.214	1	9
629.384	1	11
629.553	1	14
629.723	1	0
629.892	1	2
630.062	1	17
630.232	1	-2
630.401	1	0
630.571	1	9
630.740	1	5
630.910	1	4
631.079	1	4
631.249	1	-2
631.419	1	8
631.588	1	-8
631.758	1	-1
631.927	1	7
632.097	1	11
632.266	1	6
632.436	1	-1
632.606	1	8
632.775	1	10
632.945	1	0
633.114	1	3
633.284	1	0
633.453	1	-1
633.623	1	-5
633.793	1	3
633.962	1	-5
634.132	1	11
634.301	1	6
634.471	1	14
634.640	1	5
634.810	1	9
634.979	1	11
635.149	1	8
635.319	1	3
635.488	1	7
635.658	1	-5
635.827	1	-2
635.997	1	4
636.166	1	10
636.336	1	5
636.505	1	9
636.675	1	0
636.845	1	1
637.014	1	6
637.184	1	2
637.353	1	3
637.523	1	-3
637.692	1	0
637.862	1	-5
638.031	1	7
638.201	1	2
638.370	1	7
638.540	1	2
638.710	1	1
638.879	1	4
639.049	1	5
639.218	1	1
639.388	1	5
639.557	1	-1
639.727	1	-5
639.896	1	8
640.066	1	0
640.235	1	6
640.405	1	1
640.574	1	9
640.744	1	12
640.914	1	3
641.083	1	-1
641.253	1	6
641.422	1	5
641.592	1	-4
641.761	1	11
641.931	1	-7
642.100	1	6
642.270	1	0
642.439	1	-7
642.609	1	3
642.778	1	-2
642.948	1	0
643.117	1	7
643.287	1	-13
643.456	1	-2
643.626	1	6
643.795	1	2
643.965	1	5
644.134	1	-2
644.304	1	17
644.473	1	1
644.643	1	5
644.812	1	1
644.982	1	6
645.151	1	4
645.321	1	-5
645.490	1	5
645.660	1	4
645.829	1	-3
645.999	1	18
646.168	1	8
646.338	1	0
646.507	1	-1
646.677	1	10
646.846	1	6
647.016	1	7
647.185	1	-4
647.355	1	5
647.524	1	-7
647.694	1	-1
647.863	1	4
648.033	1	-1
648.202	1	5
648.372	1	-3
648.541	1	10
648.711	1	6
648.880	1	15
649.050	1	-2
649.219	1	-11
649.389	1	9
649.558	1	-2
649.728	1	-6
649.897	1	-3
650.067	1	0
650.236	1	13
650.406	1	-8
650.575	1	4
650.745	1	2
650.914	1	9
651.084	1	2
651.253	1	3
651.423	1	-12
651.592	1	2
651.762	1	5
651.931	1	1
652.101	1	12
652.270	1	-5
652.440	1	1
652.609	1	5
652.778	1	13
652.948	1	2
653.117	1	23
653.287	1	-1
653.456	1	15
653.626	1	-4
653.795	1	1
653.965	1	10
654.134	1	-1
654.304	1	6
654.473	1	-1
654.643	1	11
654.812	1	-1
654.982	1	12
655.151	1	14
655.320	1	2
655.490	1	-2
655.659	1	0
655.829	1	-5
655.998	1	-2
656.168	1	-4
656.337	1	9
656.507	1	-1
656.676	1	6
656.846	1	-4
657.015	1	12
657.184	1	0
657.354	1	-3
657.523	1	4
657.693	1	1
657.862	1	5
658.032	1	-2
658.201	1	4
658.371	1	3
658.540	1	2
658.709	1	6
658.879	1	-6
659.048	1	0
659.218	1	1
659.387	1	6
659.557	1	2
659.726	1	10
659.895	1	-3
660.065	1	1
660.234	1	2
660.404	1	25
660.573	1	4
660.743	1	9
660.912	1	3
661.081	1	0
661.251	1	-4
661.420	1	11
661.590	1	10
661.759	1	7
661.929	1	7
662.098	1	6
662.267	1	14
662.437	1	6
662.606	1	4
662.776	1	7
662.945	1	9
663.115	1	-18
663.284	1	-4
663.453	1	-1
663.623	1	5
663.792	1	2
663.962	1	2
664.131	1	-4
664.300	1	-4
664.470	1	-4
664.639	1	4
664.809	1	-3
664.978	1	-2
665.148	1	6
665.317	1	-1
665.486	1	3
665.656	1	0
665.825	1	14
665.995	1	6
666.164	1	9
666.333	1	1
666.503	1	16
666.672	1	0
666.842	1	-6
667.011	1	12
667.180	1	10
667.350	1	13
667.519	1	-5
667.689	1	11
667.858	1	18
668.027	1	-7
668.197	1	8
668.366	1	6
668.536	1	4
668.705	1	3
668.874	1	9
669.044	1	3
669.213	1	7
669.382	1	8
669.552	1	6
669.721	1	-5
669.891	1	-2
670.060	1	-8
670.229	1	10
670.399	1	5
670.568	1	18
670.738	1	3
670.907	1	12
671.076	1	11
671.246	1	-4
671.415	1	8
671.584	1	-4
671.754	1	6
671.923	1	-1
672.093	1	11
672.262	1	7
672.431	1	13
672.601	1	-5
672.770	1	1
672.939	1	1
673.109	1	7
673.278	1	16
673.448	1	-2
673.617	1	6
673.786	1	-5
