325.333	1	3
325.504	1	10
325.675	1	2
325.846	1	2
326.017	1	0
326.188	1	7
326.359	1	8
326.531	1	-3
326.702	1	9
326.873	1	9
327.044	1	6
327.215	1	-1
327.386	1	0
327.557	1	13
327.728	1	-6
327.899	1	6
328.070	1	-2
328.241	1	11
328.412	1	-2
328.583	1	7
328.754	1	-2
328.926	1	2
329.097	1	6
329.268	1	7
329.439	1	4
329.610	1	5
329.781	1	15
329.952	1	7
330.123	1	7
330.294	1	10
330.465	1	15
330.636	1	-1
330.807	1	-2
330.978	1	1
331.149	1	11
331.320	1	6
331.492	1	17
331.663	1	10
331.834	1	9
332.005	1	6
332.176	1	7
332.347	1	13
332.518	1	3
332.689	1	6
332.860	1	6
333.031	1	14
333.202	1	18
333.373	1	11
333.544	1	-5
333.715	1	1
333.886	1	4
334.057	1	2
334.228	1	8
334.399	1	8
334.570	1	14
334.741	1	13
334.912	1	15
335.084	1	3
335.255	1	4
335.426	1	-5
335.597	1	9
335.768	1	-2
335.939	1	6
336.110	1	6
336.281	1	9
336.452	1	25
336.623	1	15
336.794	1	-7
336.965	1	2
337.136	1	2
337.307	1	11
337.478	1	1
337.649	1	4
337.820	1	-3
337.991	1	14
338.162	1	12
338.333	1	9
338.504	1	1
338.675	1	14
338.846	1	2
339.017	1	11
339.188	1	4
339.359	1	1
339.530	1	5
339.701	1	10
339.872	1	11
340.043	1	11
340.214	1	5
340.385	1	4
340.556	1	4
340.727	1	0
340.898	1	6
341.069	1	11
341.240	1	17
341.411	1	11
341.582	1	11
341.753	1	5
341.924	1	11
342.095	1	3
342.266	1	-3
342.437	1	3
342.608	1	-4
342.779	1	2
342.950	1	22
343.121	1	10
343.292	1	-3
343.463	1	10
343.634	1	13
343.805	1	3
343.976	1	8
344.147	1	8
344.318	1	7
344.489	1	6
344.660	1	18
344.831	1	3
345.002	1	10
345.173	1	12
345.344	1	3
345.515	1	12
345.686	1	0
345.857	1	10
346.028	1	10
346.199	1	7
346.370	1	0
346.541	1	24
346.712	1	8
346.883	1	5
347.054	1	9
347.225	1	5
347.396	1	13
347.567	1	12
347.738	1	12
347.909	1	11
348.080	1	13
348.251	1	6
348.422	1	9
348.593	1	9
348.764	1	2
348.935	1	4
349.106	1	0
349.277	1	14
349.448	1	12
349.619	1	18
349.790	1	8
349.961	1	7
350.132	1	4
350.303	1	23
350.474	1	2
350.645	1	2
350.816	1	21
350.987	1	10
351.157	1	9
351.328	1	22
351.499	1	2
351.670	1	13
351.841	1	-1
352.012	1	14
352.183	1	-4
352.354	1	6
352.525	1	7
352.696	1	11
352.867	1	4
353.038	1	21
353.209	1	18
353.380	1	11
353.551	1	14
353.722	1	7
353.893	1	8
354.064	1	8
354.235	1	15
354.406	1	11
354.576	1	7
354.747	1	15
354.918	1	16
355.089	1	13
355.260	1	16
355.431	1	19
355.602	1	8
355.773	1	12
355.944	1	10
356.115	1	-2
356.286	1	5
356.457	1	15
356.628	1	25
356.799	1	14
356.970	1	11
357.141	1	19
357.311	1	15
357.482	1	10
357.653	1	12
357.824	1	16
357.995	1	17
358.166	1	16
358.337	1	5
358.508	1	10
358.679	1	6
358.850	1	13
359.021	1	19
359.192	1	14
359.363	1	6
359.533	1	15
359.704	1	20
359.875	1	24
360.046	1	-1
360.217	1	22
360.388	1	17
360.559	1	14
360.730	1	5
360.901	1	10
361.072	1	17
361.243	1	6
361.414	1	18
361.584	1	17
361.755	1	17
361.926	1	8
362.097	1	13
362.268	1	4
362.439	1	9
362.610	1	10
362.781	1	8
362.952	1	7
363.123	1	16
363.293	1	11
363.464	1	10
363.635	1	23
363.806	1	20
363.977	1	5
364.148	1	8
364.319	1	10
364.490	1	6
364.661	1	21
364.832	1	18
365.002	1	16
365.173	1	17
365.344	1	12
365.515	1	21
365.686	1	15
365.857	1	25
366.028	1	10
366.199	1	17
366.370	1	15
366.540	1	18
366.711	1	17
366.882	1	9
367.053	1	24
367.224	1	6
367.395	1	17
367.566	1	20
367.737	1	15
367.908	1	12
368.078	1	26
368.249	1	12
368.420	1	20
368.591	1	18
368.762	1	25
368.933	1	17
369.104	1	10
369.274	1	7
369.445	1	25
369.616	1	15
369.787	1	14
369.958	1	21
370.129	1	24
370.300	1	15
370.471	1	26
370.641	1	7
370.812	1	17
370.983	1	13
371.154	1	20
371.325	1	15
371.496	1	14
371.667	1	19
371.837	1	31
372.008	1	15
372.179	1	10
372.350	1	17
372.521	1	18
372.692	1	19
372.863	1	12
373.033	1	17
373.204	1	18
373.375	1	27
373.546	1	18
373.717	1	10
373.888	1	9
374.059	1	20
374.229	1	13
374.400	1	10
374.571	1	13
374.742	1	21
374.913	1	2
375.084	1	19
375.254	1	22
375.425	1	4
375.596	1	19
375.767	1	23
375.938	1	17
376.109	1	16
376.279	1	20
376.450	1	15
376.621	1	23
376.792	1	10
376.963	1	19
377.134	1	28
377.304	1	11
377.475	1	12
377.646	1	15
377.817	1	6
377.988	1	17
378.159	1	16
378.329	1	22
378.500	1	19
378.671	1	12
378.842	1	7
379.013	1	19
379.184	1	28
379.354	1	5
379.525	1	15
379.696	1	8
379.867	1	14
380.038	1	5
380.209	1	8
380.379	1	17
380.550	1	18
380.721	1	26
380.892	1	21
381.063	1	22
381.233	1	21
381.404	1	15
381.575	1	18
381.746	1	21
381.917	1	14
382.087	1	10
382.258	1	18
382.429	1	21
382.600	1	29
382.771	1	26
382.941	1	9
383.112	1	26
383.283	1	31
383.454	1	15
383.625	1	24
383.795	1	24
383.966	1	16
384.137	1	23
384.308	1	12
384.479	1	22
384.649	1	26
384.820	1	20
384.991	1	19
385.162	1	23
385.333	1	23
385.503	1	24
385.674	1	17
385.845	1	20
386.016	1	22
386.187	1	21
386.357	1	24
386.528	1	15
386.699	1	11
386.870	1	18
387.041	1	14
387.211	1	11
387.382	1	13
387.553	1	10
387.724	1	6
387.894	1	25
388.065	1	13
388.236	1	17
388.407	1	16
388.578	1	9
388.748	1	19
388.919	1	32
389.090	1	16
389.261	1	21
389.431	1	23
389.602	1	20
389.773	1	20
389.944	1	13
390.114	1	19
390.285	1	20
390.456	1	8
390.627	1	19
390.798	1	26
390.968	1	13
391.139	1	19
391.310	1	32
391.481	1	17
391.651	1	28
391.822	1	14
391.993	1	29
392.164	1	8
392.334	1	26
392.505	1	10
392.676	1	24
392.847	1	10
393.017	1	27
393.188	1	24
393.359	1	17
393.530	1	27
393.700	1	21
393.871	1	8
394.042	1	13
394.213	1	22
394.383	1	22
394.554	1	28
394.725	1	20
394.896	1	19
395.066	1	30
395.237	1	19
395.408	1	21
395.579	1	31
395.749	1	21
395.920	1	26
396.091	1	22
396.262	1	24
396.432	1	10
396.603	1	21
396.774	1	22
396.945	1	19
397.115	1	19
397.286	1	15
397.457	1	25
397.627	1	13
397.798	1	14
397.969	1	15
398.140	1	26
398.310	1	22
398.481	1	18
398.652	1	30
398.823	1	23
398.993	1	16
399.164	1	28
399.335	1	11
399.505	1	22
399.676	1	20
399.847	1	23
400.018	1	14
400.188	1	28
400.359	1	21
400.530	1	24
400.700	1	29
400.871	1	23
401.042	1	14
401.213	1	19
401.383	1	13
401.554	1	22
401.725	1	33
401.895	1	23
402.066	1	25
402.237	1	32
402.408	1	21
402.578	1	19
402.749	1	25
402.920	1	12
403.090	1	29
403.261	1	31
403.432	1	20
403.603	1	22
403.773	1	38
403.944	1	18
404.115	1	31
404.285	1	21
404.456	1	20
404.627	1	20
404.797	1	15
404.968	1	33
405.139	1	10
405.310	1	25
405.480	1	23
405.651	1	28
405.822	1	20
405.992	1	18
406.163	1	30
406.334	1	16
406.504	1	24
406.675	1	17
406.846	1	22
407.016	1	19
407.187	1	41
407.358	1	20
407.528	1	12
407.699	1	29
407.870	1	20
408.041	1	32
408.211	1	13
408.382	1	27
408.553	1	27
408.723	1	31
408.894	1	28
409.065	1	34
409.235	1	22
409.406	1	18
409.577	1	16
409.747	1	18
409.918	1	26
410.089	1	18
410.259	1	25
410.430	1	24
410.601	1	22
410.771	1	23
410.942	1	33
411.113	1	23
411.283	1	17
411.454	1	20
411.625	1	28
411.795	1	22
411.966	1	24
412.137	1	32
412.307	1	26
412.478	1	35
412.649	1	22
412.819	1	26
412.990	1	20
413.161	1	22
413.331	1	23
413.502	1	33
413.672	1	22
413.843	1	37
414.014	1	33
414.184	1	23
414.355	1	38
414.526	1	35
414.696	1	9
414.867	1	36
415.038	1	20
415.208	1	26
415.379	1	29
415.550	1	29
415.720	1	25
415.891	1	30
416.062	1	24
416.232	1	19
416.403	1	29
416.573	1	27
416.744	1	25
416.915	1	35
417.085	1	28
417.256	1	28
417.427	1	36
417.597	1	20
417.768	1	16
417.939	1	30
418.109	1	20
418.280	1	17
418.450	1	19
418.621	1	20
418.792	1	23
418.962	1	27
419.133	1	23
419.304	1	18
419.474	1	20
419.645	1	23
419.815	1	30
419.986	1	27
420.157	1	4
420.327	1	22
420.498	1	27
420.669	1	25
420.839	1	9
421.010	1	33
421.180	1	22
421.351	1	29
421.522	1	3
421.692	1	30
421.863	1	25
422.033	1	31
422.204	1	23
422.375	1	22
422.545	1	13
422.716	1	16
422.886	1	15
423.057	1	29
423.228	1	16
423.398	1	17
423.569	1	26
423.740	1	20
423.910	1	12
424.081	1	22
424.251	1	23
424.422	1	27
424.593	1	23
424.763	1	38
424.934	1	15
425.104	1	12
425.275	1	32
425.445	1	26
425.616	1	22
425.787	1	21
425.957	1	31
426.128	1	14
426.298	1	3
426.469	1	11
426.640	1	27
426.810	1	22
426.981	1	23
427.151	1	23
427.322	1	22
427.493	1	21
427.663	1	29
427.834	1	37
428.004	1	12
428.175	1	19
428.345	1	17
428.516	1	30
428.687	1	22
428.857	1	15
429.028	1	19
429.198	1	16
429.369	1	17
429.540	1	21
429.710	1	25
429.881	1	19
430.051	1	18
430.222	1	21
430.392	1	22
430.563	1	16
430.734	1	26
430.904	1	23
431.075	1	19
431.245	1	28
431.416	1	27
431.586	1	15
431.757	1	13
431.927	1	17
432.098	1	9
432.269	1	11
432.439	1	37
432.610	1	31
432.780	1	22
432.951	1	12
433.121	1	12
433.292	1	24
433.462	1	17
433.633	1	14
433.804	1	19
433.974	1	11
434.145	1	21
434.315	1	12
434.486	1	16
434.656	1	19
434.827	1	26
434.997	1	27
435.168	1	21
435.339	1	26
435.509	1	22
435.680	1	11
435.850	1	6
436.021	1	23
436.191	1	23
436.362	1	10
436.532	1	25
436.703	1	12
436.873	1	32
437.044	1	8
437.214	1	27
437.385	1	23
437.556	1	22
437.726	1	10
437.897	1	12
438.067	1	15
438.238	1	13
438.408	1	21
438.579	1	24
438.749	1	28
438.920	1	13
439.090	1	14
439.261	1	14
439.431	1	21
439.602	1	15
439.772	1	28
439.943	1	25
440.113	1	17
440.284	1	21
440.455	1	16
440.625	1	27
440.796	1	17
440.966	1	13
441.137	1	13
441.307	1	25
441.478	1	11
441.648	1	21
441.819	1	14
441.989	1	23
442.160	1	13
442.330	1	17
442.501	1	21
442.671	1	14
442.842	1	10
443.012	1	28
443.183	1	13
443.353	1	20
443.524	1	15
443.694	1	16
443.865	1	24
444.035	1	10
444.206	1	17
444.376	1	12
444.547	1	21
444.717	1	15
444.888	1	15
445.058	1	25
445.229	1	16
445.399	1	30
445.570	1	34
445.740	1	26
445.911	1	-1
446.081	1	19
446.252	1	22
446.422	1	20
446.593	1	3
446.763	1	27
446.934	1	12
447.104	1	18
447.275	1	19
447.445	1	23
447.616	1	19
447.786	1	19
447.957	1	18
448.127	1	4
448.298	1	4
448.468	1	17
448.639	1	16
448.809	1	19
448.979	1	2
449.150	1	18
449.320	1	19
449.491	1	4
449.661	1	10
449.832	1	9
450.002	1	10
450.173	1	24
450.343	1	22
450.514	1	18
450.684	1	12
450.855	1	29
451.025	1	27
451.196	1	10
451.366	1	20
451.537	1	13
451.707	1	16
451.878	1	10
452.048	1	15
452.218	1	19
452.389	1	23
452.559	1	32
452.730	1	13
452.900	1	16
453.071	1	21
453.241	1	7
453.412	1	6
453.582	1	16
453.753	1	19
453.923	1	21
454.093	1	17
454.264	1	11
454.434	1	21
454.605	1	20
454.775	1	12
454.946	1	11
455.116	1	6
455.287	1	19
455.457	1	27
455.628	1	15
455.798	1	7
455.968	1	17
456.139	1	20
456.309	1	27
456.480	1	16
456.650	1	3
456.821	1	18
456.991	1	6
457.161	1	12
457.332	1	25
457.502	1	20
457.673	1	15
457.843	1	11
458.014	1	15
458.184	1	15
458.355	1	11
458.525	1	9
458.695	1	21
458.866	1	19
459.036	1	24
459.207	1	15
459.377	1	16
459.548	1	19
459.718	1	8
459.888	1	17
460.059	1	22
460.229	1	13
460.400	1	16
460.570	1	23
460.740	1	19
460.911	1	22
461.081	1	6
461.252	1	11
461.422	1	4
461.593	1	13
461.763	1	11
461.933	1	12
462.104	1	20
462.274	1	14
462.445	1	10
462.615	1	22
462.785	1	15
462.956	1	5
463.126	1	13
463.297	1	19
463.467	1	14
463.638	1	12
463.808	1	15
463.978	1	17
464.149	1	17
464.319	1	19
464.490	1	9
464.660	1	25
464.830	1	12
465.001	1	12
465.171	1	10
465.342	1	15
465.512	1	12
465.682	1	16
465.853	1	19
466.023	1	27
466.194	1	19
466.364	1	13
466.534	1	7
466.705	1	14
466.875	1	11
467.045	1	17
467.216	1	19
467.386	1	16
467.557	1	24
467.727	1	9
467.897	1	29
468.068	1	13
468.238	1	7
468.409	1	14
468.579	1	23
468.749	1	13
468.920	1	19
469.090	1	-2
469.260	1	26
469.431	1	-5
469.601	1	14
469.772	1	17
469.942	1	19
470.112	1	18
470.283	1	13
470.453	1	12
470.623	1	13
470.794	1	8
470.964	1	19
471.135	1	13
471.305	1	10
471.475	1	13
471.646	1	19
471.816	1	14
471.986	1	19
472.157	1	4
472.327	1	12
472.497	1	15
472.668	1	10
472.838	1	9
473.009	1	8
473.179	1	26
473.349	1	14
473.520	1	8
473.690	1	4
473.860	1	18
474.031	1	3
474.201	1	18
474.371	1	21
474.542	1	22
474.712	1	6
474.882	1	15
475.053	1	4
475.223	1	7
475.394	1	1
475.564	1	8
475.734	1	15
475.905	1	13
476.075	1	10
476.245	1	18
476.416	1	16
476.586	1	15
476.756	1	7
476.927	1	16
477.097	1	17
477.267	1	10
477.438	1	8
477.608	1	23
477.778	1	16
477.949	1	17
478.119	1	3
478.289	1	8
478.460	1	11
478.630	1	22
478.800	1	19
478.971	1	12
479.141	1	7
479.311	1	8
479.482	1	-4
479.652	1	16
479.822	1	1
479.993	1	13
480.163	1	13
480.333	1	21
480.504	1	12
480.674	1	-1
480.844	1	1
481.015	1	21
481.185	1	16
481.355	1	9
481.525	1	0
481.696	1	13
481.866	1	9
482.036	1	15
482.207	1	15
482.377	1	5
482.547	1	14
482.718	1	7
482.888	1	0
483.058	1	15
483.229	1	15
483.399	1	0
483.569	1	-1
483.740	1	16
483.910	1	21
484.080	1	23
484.250	1	7
484.421	1	15
484.591	1	11
484.761	1	8
484.932	1	26
485.102	1	1
485.272	1	6
485.443	1	7
485.613	1	4
485.783	1	20
485.953	1	3
486.124	1	17
486.294	1	17
486.464	1	7
486.635	1	3
486.805	1	15
486.975	1	9
487.146	1	6
487.316	1	-5
487.486	1	9
487.656	1	20
487.827	1	3
487.997	1	15
488.167	1	19
488.338	1	15
488.508	1	11
488.678	1	8
488.848	1	13
489.019	1	3
489.189	1	15
489.359	1	5
489.529	1	12
489.700	1	13
489.870	1	8
490.040	1	-2
490.211	1	5
490.381	1	24
490.551	1	7
490.721	1	18
490.892	1	18
491.062	1	11
491.232	1	11
491.402	1	-2
491.573	1	8
491.743	1	5
491.913	1	10
492.084	1	12
492.254	1	12
492.424	1	3
492.594	1	5
492.765	1	8
492.935	1	7
493.105	1	-7
493.275	1	11
493.446	1	0
493.616	1	4
493.786	1	9
493.956	1	15
494.127	1	12
494.297	1	17
494.467	1	7
494.637	1	12
494.808	1	11
494.978	1	-3
495.148	1	22
495.318	1	5
495.489	1	15
495.659	1	9
495.829	1	6
495.999	1	3
496.170	1	12
496.340	1	2
496.510	1	15
496.680	1	15
496.851	1	9
497.021	1	20
497.191	1	1
497.361	1	12
497.532	1	11
497.702	1	14
497.872	1	5
498.042	1	17
498.213	1	10
498.383	1	13
498.553	1	9
498.723	1	6
498.894	1	25
499.064	1	0
499.234	1	14
499.404	1	11
499.574	1	16
499.745	1	9
499.915	1	3
500.085	1	-2
500.255	1	5
500.426	1	1
500.596	1	9
500.766	1	-2
500.936	1	13
501.106	1	11
501.277	1	12
501.447	1	6
501.617	1	10
501.787	1	13
501.958	1	1
502.128	1	6
502.298	1	21
502.468	1	10
502.638	1	16
502.809	1	14
502.979	1	11
503.149	1	8
503.319	1	12
503.489	1	9
503.660	1	11
503.830	1	12
504.000	1	8
504.170	1	2
504.340	1	0
504.511	1	8
504.681	1	4
504.851	1	-2
505.021	1	11
505.192	1	10
505.362	1	8
505.532	1	1
505.702	1	2
505.872	1	11
506.043	1	3
506.213	1	2
506.383	1	-2
506.553	1	20
506.723	1	6
506.893	1	-2
507.064	1	13
507.234	1	3
507.404	1	5
507.574	1	-3
507.744	1	3
507.915	1	6
508.085	1	10
508.255	1	1
508.425	1	12
508.595	1	-4
508.766	1	10
508.936	1	10
509.106	1	4
509.276	1	6
509.446	1	0
509.616	1	18
509.787	1	7
509.957	1	9
510.127	1	16
510.297	1	9
510.467	1	13
510.638	1	8
510.808	1	4
510.978	1	12
511.148	1	4
511.318	1	21
511.488	1	5
511.659	1	-6
511.829	1	9
511.999	1	5
512.169	1	9
512.339	1	6
512.509	1	14
512.680	1	6
512.850	1	0
513.020	1	-1
513.190	1	3
513.360	1	13
513.530	1	8
513.700	1	11
513.871	1	16
514.041	1	18
514.211	1	9
514.381	1	-2
514.551	1	9
514.721	1	1
514.892	1	8
515.062	1	-8
515.232	1	0
515.402	1	11
515.572	1	6
515.742	1	0
515.912	1	13
516.083	1	12
516.253	1	4
516.423	1	7
516.593	1	3
516.763	1	9
516.933	1	-2
517.104	1	5
517.274	1	6
517.444	1	5
517.614	1	1
517.784	1	7
517.954	1	10
518.124	1	-3
518.294	1	8
518.465	1	10
518.635	1	-3
518.805	1	13
518.975	1	9
519.145	1	13
519.315	1	10
519.485	1	-2
519.656	1	5
519.826	1	18
519.996	1	7
520.166	1	5
520.336	1	14
520.506	1	12
520.676	1	7
520.846	1	4
521.017	1	5
521.187	1	6
521.357	1	11
521.527	1	2
521.697	1	-10
521.867	1	1
522.037	1	18
522.207	1	5
522.377	1	8
522.548	1	5
522.718	1	14
522.888	1	-8
523.058	1	2
523.228	1	4
523.398	1	12
523.568	1	12
523.738	1	10
523.909	1	13
524.079	1	4
524.249	1	-1
524.419	1	1
524.589	1	15
524.759	1	2
524.929	1	10
525.099	1	15
525.269	1	12
525.439	1	-4
525.610	1	7
525.780	1	13
525.950	1	10
526.120	1	10
526.290	1	7
526.460	1	8
526.630	1	5
526.800	1	6
526.970	1	7
527.140	1	10
527.311	1	-2
527.481	1	-4
527.651	1	-5
527.821	1	4
527.991	1	14
528.161	1	5
528.331	1	3
528.501	1	2
528.671	1	11
528.841	1	8
529.011	1	-4
529.181	1	4
529.352	1	-4
529.522	1	1
529.692	1	6
529.862	1	-3
530.032	1	0
530.202	1	7
530.372	1	-2
530.542	1	11
530.712	1	-2
530.882	1	3
531.052	1	5
531.222	1	0
531.392	1	3
531.563	1	-4
531.733	1	14
531.903	1	14
532.073	1	2
532.243	1	7
532.413	1	9
532.583	1	-5
532.753	1	0
532.923	1	9
533.093	1	0
533.263	1	-1
533.433	1	13
533.603	1	9
533.773	1	7
533.943	1	12
534.113	1	15
534.284	1	16
534.454	1	-5
534.624	1	1
534.794	1	-2
534.964	1	5
535.134	1	2
535.304	1	17
535.474	1	-1
535.644	1	17
535.814	1	-3
535.984	1	0
536.154	1	4
536.324	1	4
536.494	1	-1
536.664	1	-6
536.834	1	6
537.004	1	-7
537.174	1	4
537.344	1	13
537.514	1	10
537.685	1	5
537.855	1	14
538.025	1	3
538.195	1	9
538.365	1	8
538.535	1	17
538.705	1	-1
538.875	1	10
539.045	1	19
539.215	1	9
539.385	1	4
539.555	1	2
539.725	1	14
539.895	1	11
540.065	1	3
540.235	1	-10
540.405	1	8
540.575	1	14
540.745	1	-4
540.915	1	9
541.085	1	4
541.255	1	3
541.425	1	1
541.595	1	-7
541.765	1	8
541.935	1	1
542.105	1	1
542.275	1	1
542.445	1	4
542.615	1	16
542.785	1	13
542.955	1	4
543.125	1	2
543.295	1	15
543.465	1	2
543.635	1	-17
543.805	1	2
543.975	1	-2
544.145	1	6
544.315	1	0
544.485	1	3
544.655	1	-4
544.825	1	10
544.995	1	4
545.165	1	16
545.335	1	-2
545.505	1	6
545.675	1	3
545.845	1	-2
546.015	1	3
546.185	1	-1
546.355	1	2
546.525	1	6
546.695	1	5
546.865	1	-3
547.035	1	5
547.205	1	4
547.375	1	7
547.545	1	1
547.715	1	16
547.885	1	17
548.055	1	1
548.225	1	-5
548.395	1	16
548.565	1	1
548.735	1	8
548.905	1	1
549.075	1	8
549.245	1	7
549.415	1	11
549.585	1	10
549.755	1	1
549.925	1	-5
550.095	1	-1
550.265	1	-2
550.435	1	4
550.605	1	12
550.775	1	12
550.945	1	-1
551.115	1	-12
551.285	1	-1
551.455	1	8
551.625	1	-3
551.795	1	10
551.965	1	-3
552.135	1	-7
552.305	1	-3
552.475	1	12
552.645	1	16
552.815	1	-6
552.985	1	6
553.155	1	6
553.325	1	2
553.495	1	3
553.665	1	5
553.835	1	-12
554.004	1	-2
554.174	1	1
554.344	1	8
554.514	1	14
554.684	1	0
554.854	1	-2
555.024	1	14
555.194	1	12
555.364	1	2
555.534	1	15
555.704	1	1
555.874	1	10
556.044	1	0
556.214	1	-10
556.384	1	5
556.554	1	-7
556.724	1	-8
556.894	1	11
557.064	1	-2
557.234	1	6
557.404	1	9
557.573	1	13
557.743	1	1
557.913	1	4
558.083	1	-9
558.253	1	-3
558.423	1	1
558.593	1	12
558.763	1	-3
558.933	1	5
559.103	1	6
559.273	1	2
559.443	1	5
559.613	1	5
559.783	1	4
559.953	1	1
560.122	1	2
560.292	1	4
560.462	1	-1
560.632	1	0
560.802	1	11
560.972	1	6
561.142	1	0
561.312	1	-7
561.482	1	2
561.652	1	12
561.822	1	3
561.992	1	5
562.162	1	-7
562.331	1	-9
562.501	1	-5
562.671	1	15
562.841	1	16
563.011	1	9
563.181	1	5
563.351	1	4
563.521	1	2
563.691	1	-4
563.861	1	1
564.031	1	3
564.201	1	-1
564.370	1	17
564.540	1	2
564.710	1	17
564.880	1	7
565.050	1	6
565.220	1	0
565.390	1	0
565.560	1	6
565.730	1	13
565.900	1	-5
566.069	1	14
566.239	1	-4
566.409	1	5
566.579	1	5
566.749	1	10
566.919	1	1
567.089	1	1
567.259	1	9
567.429	1	-1
567.599	1	-3
567.768	1	1
567.938	1	-9
568.108	1	1
568.278	1	-2
568.448	1	10
568.618	1	15
568.788	1	0
568.958	1	16
569.128	1	8
569.297	1	9
569.467	1	2
569.637	1	0
569.807	1	-1
569.977	1	8
570.147	1	4
570.317	1	22
570.487	1	-1
570.656	1	-1
570.826	1	8
570.996	1	-2
571.166	1	8
571.336	1	9
571.506	1	1
571.676	1	7
571.846	1	-2
572.015	1	4
572.185	1	-3
572.355	1	-6
572.525	1	1
572.695	1	7
572.865	1	-11
573.035	1	-2
573.205	1	-2
573.374	1	1
573.544	1	-5
573.714	1	9
573.884	1	10
574.054	1	11
574.224	1	2
574.394	1	0
574.563	1	3
574.733	1	1
574.903	1	11
575.073	1	10
575.243	1	4
575.413	1	6
575.583	1	1
575.752	1	7
575.922	1	1
576.092	1	6
576.262	1	0
576.432	1	10
576.602	1	-7
576.772	1	-3
576.941	1	13
577.111	1	6
577.281	1	-6
577.451	1	11
577.621	1	-3
577.791	1	-9
577.960	1	7
578.130	1	0
578.300	1	7
578.470	1	7
578.640	1	2
578.810	1	0
578.979	1	8
579.149	1	-5
579.319	1	3
579.489	1	-2
579.659	1	5
579.829	1	4
579.998	1	-1
580.168	1	2
580.338	1	3
580.508	1	1
580.678	1	-12
580.848	1	7
581.017	1	20
581.187	1	2
581.357	1	-4
581.527	1	3
581.697	1	3
581.867	1	-4
582.036	1	3
582.206	1	3
582.376	1	-7
582.546	1	-4
582.716	1	-2
582.885	1	11
583.055	1	-1
583.225	1	4
583.395	1	4
583.565	1	16
583.735	1	0
583.904	1	1
584.074	1	7
584.244	1	11
584.414	1	-1
584.584	1	1
584.753	1	16
584.923	1	7
585.093	1	-4
585.263	1	7
585.433	1	6
585.602	1	6
585.772	1	5
585.942	1	-5
586.112	1	0
586.282	1	8
586.451	1	-3
586.621	1	8
586.791	1	5
586.961	1	3
587.131	1	1
587.300	1	-6
587.470	1	6
587.640	1	-3
587.810	1	-9
587.980	1	12
588.149	1	13
588.319	1	8
588.489	1	12
588.659	1	-4
588.829	1	10
588.998	1	9
589.168	1	1
589.338	1	5
589.508	1	6
589.677	1	0
589.847	1	5
590.017	1	5
590.187	1	7
590.357	1	14
590.526	1	8
590.696	1	10
590.866	1	10
591.036	1	-10
591.205	1	0
591.375	1	-6
591.545	1	2
591.715	1	1
591.885	1	-1
592.054	1	3
592.224	1	-2
592.394	1	6
592.564	1	1
592.733	1	10
592.903	1	-1
593.073	1	10
593.243	1	12
593.412	1	-1
593.582	1	3
593.752	1	7
593.922	1	1
594.091	1	7
594.261	1	1
594.431	1	7
594.601	1	6
594.771	1	1
594.940	1	5
595.110	1	8
595.280	1	-5
595.450	1	1
595.619	1	4
595.789	1	5
595.959	1	-7
596.129	1	6
596.298	1	12
596.468	1	9
596.638	1	7
596.808	1	11
596.977	1	10
597.147	1	16
597.317	1	-5
597.487	1	-3
597.656	1	0
597.826	1	-7
597.996	1	10
598.166	1	4
598.335	1	19
598.505	1	14
598.675	1	2
598.844	1	-2
599.014	1	-4
599.184	1	11
599.354	1	-7
599.523	1	2
599.693	1	2
599.863	1	11
600.033	1	9
600.202	1	4
600.372	1	-1
600.542	1	13
600.712	1	4
600.881	1	1
601.051	1	0
601.221	1	4
601.390	1	6
601.560	1	4
601.730	1	7
601.900	1	2
602.069	1	5
602.239	1	-11
602.409	1	15
602.578	1	-1
602.748	1	8
602.918	1	-7
603.088	1	4
603.257	1	6
603.427	1	-1
603.597	1	-1
603.767	1	1
603.936	1	5
604.106	1	11
604.276	1	-3
604.445	1	6
604.615	1	-3
604.785	1	1
604.954	1	10
605.124	1	-4
605.294	1	3
605.464	1	8
605.633	1	6
605.803	1	-4
605.973	1	4
606.142	1	13
606.312	1	-1
606.482	1	1
606.652	1	5
606.821	1	11
606.991	1	8
607.161	1	14
607.330	1	-5
607.500	1	-7
607.670	1	1
607.839	1	15
608.009	1	-8
608.179	1	0
608.348	1	13
608.518	1	4
608.688	1	11
608.858	1	1
609.027	1	5
609.197	1	10
609.367	1	4
609.536	1	0
609.706	1	4
609.876	1	-2
610.045	1	-2
610.215	1	8
610.385	1	12
610.554	1	1
610.724	1	9
610.894	1	8
611.063	1	-2
611.233	1	11
611.403	1	-1
611.572	1	8
611.742	1	-3
611.912	1	6
612.081	1	13
612.251	1	4
612.421	1	9
612.590	1	-11
612.760	1	9
612.930	1	-5
613.099	1	7
613.269	1	1
613.439	1	5
613.608	1	8
613.778	1	-10
613.948	1	16
614.117	1	12
614.287	1	3
614.457	1	-3
614.626	1	4
614.796	1	4
614.966	1	1
615.135	1	-11
615.305	1	5
615.475	1	3
615.644	1	7
615.814	1	0
615.984	1	-3
616.153	1	2
616.323	1	-5
616.493	1	14
616.662	1	7
616.832	1	9
617.002	1	15
617.171	1	1
617.341	1	2
617.511	1	5
617.680	1	13
617.850	1	3
618.019	1	-4
618.189	1	5
618.359	1	4
618.528	1	8
618.698	1	-4
618.868	1	12
619.037	1	10
619.207	1	2
619.377	1	3
619.546	1	5
619.716	1	-3
619.885	1	15
620.055	1	6
620.225	1	5
620.394	1	4
620.564	1	10
620.734	1	3
620.903	1	1
621.073	1	4
621.242	1	-7
621.412	1	-1
621.582	1	-1
621.751	1	-1
621.921	1	3
622.091	1	6
622.260	1	11
622.430	1	8
622.599	1	4
622.769	1	-7
622.939	1	12
623.108	1	13
623.278	1	9
623.448	1	1
623.617	1	2
623.787	1	17
623.956	1	2
624.126	1	8
624.296	1	2
624.465	1	2
624.635	1	3
624.804	1	2
624.974	1	6
625.144	1	8
625.313	1	0
625.483	1	2
625.652	1	2
625.822	1	9
625.992	1	4
626.161	1	1
626.331	1	2
626.501	1	-6
626.670	1	2
626.840	1	-8
627.009	1	5
627.179	1	0
627.348	1	9
627.518	1	12
627.688	1	5
627.857	1	1
628.027	1	14
628.196	1	4
628.366	1	0
628.536	1	6
628.705	1	4
628.875	1	6
629.044	1	7
629.214	1	4
629.384	1	6
629.553	1	13
629.723	1	4
629.892	1	12
630.062	1	16
630.232	1	4
630.401	1	4
630.571	1	3
630.740	1	-2
630.910	1	11
631.079	1	4
631.249	1	-3
631.419	1	10
631.588	1	-7
631.758	1	-3
631.927	1	3
632.097	1	7
632.266	1	2
632.436	1	3
632.606	1	1
632.775	1	7
632.945	1	3
633.114	1	1
633.284	1	0
633.453	1	-5
633.623	1	0
633.793	1	5
633.962	1	-3
634.132	1	13
634.301	1	7
634.471	1	10
634.640	1	11
634.810	1	17
634.979	1	7
635.149	1	4
635.319	1	-4
635.488	1	3
635.658	1	-4
635.827	1	10
635.997	1	4
636.166	1	6
636.336	1	5
636.505	1	8
636.675	1	-3
636.845	1	3
637.014	1	6
637.184	1	7
637.353	1	16
637.523	1	6
637.692	1	1
637.862	1	-9
638.031	1	6
638.201	1	11
638.370	1	19
638.540	1	4
638.710	1	7
638.879	1	-2
639.049	1	5
639.218	1	4
639.388	1	18
639.557	1	0
639.727	1	-2
639.896	1	7
640.066	1	9
640.235	1	8
640.405	1	5
640.574	1	10
640.744	1	7
640.914	1	-1
641.083	1	10
641.253	1	5
641.422	1	5
641.592	1	5
641.761	1	12
641.931	1	-2
642.100	1	0
642.270	1	11
642.439	1	-3
642.609	1	-3
642.778	1	3
642.948	1	4
643.117	1	13
643.287	1	3
643.456	1	1
643.626	1	5
643.795	1	10
643.965	1	2
644.134	1	6
644.304	1	11
644.473	1	7
644.643	1	10
644.812	1	8
644.982	1	5
645.151	1	0
645.321	1	1
645.490	1	5
645.660	1	8
645.829	1	2
645.999	1	12
646.168	1	13
646.338	1	0
646.507	1	-4
646.677	1	14
646.846	1	5
647.016	1	9
647.185	1	1
647.355	1	6
647.524	1	2
647.694	1	6
647.863	1	7
648.033	1	8
648.202	1	-2
648.372	1	1
648.541	1	4
648.711	1	8
648.880	1	17
649.050	1	2
649.219	1	3
649.389	1	5
649.558	1	11
649.728	1	4
649.897	1	0
650.067	1	-5
650.236	1	14
650.406	1	-6
650.575	1	7
650.745	1	-1
650.914	1	15
651.084	1	-4
651.253	1	8
651.423	1	-7
651.592	1	6
651.762	1	10
651.931	1	10
652.101	1	6
652.270	1	5
652.440	1	5
652.609	1	10
652.778	1	13
652.948	1	-1
653.117	1	15
653.287	1	8
653.456	1	12
653.626	1	6
653.795	1	8
653.965	1	-1
654.134	1	8
654.304	1	6
654.473	1	5
654.643	1	16
654.812	1	-1
654.982	1	9
655.151	1	8
655.320	1	-1
655.490	1	3
655.659	1	3
655.829	1	0
655.998	1	21
656.168	1	6
656.337	1	10
656.507	1	3
656.676	1	8
656.846	1	3
657.015	1	19
657.184	1	6
657.354	1	1
657.523	1	0
657.693	1	5
657.862	1	1
658.032	1	2
658.201	1	6
658.371	1	8
658.540	1	11
658.709	1	12
658.879	1	4
659.048	1	3
659.218	1	8
659.387	1	2
659.557	1	2
659.726	1	8
659.895	1	0
660.065	1	7
660.234	1	2
660.404	1	17
660.573	1	16
660.743	1	19
660.912	1	7
661.081	1	-1
661.251	1	-2
661.420	1	9
661.590	1	12
661.759	1	5
661.929	1	16
662.098	1	10
662.267	1	10
662.437	1	10
662.606	1	8
662.776	1	5
662.945	1	8
663.115	1	-5
663.284	1	2
663.453	1	1
663.623	1	2
663.792	1	-2
663.962	1	4
664.131	1	12
664.300	1	4
664.470	1	-5
664.639	1	0
664.809	1	5
664.978	1	7
665.148	1	8
665.317	1	1
665.486	1	5
665.656	1	0
665.825	1	11
665.995	1	13
666.164	1	3
666.333	1	6
666.503	1	15
666.672	1	2
666.842	1	-11
667.011	1	3
667.180	1	7
667.350	1	21
667.519	1	-1
667.689	1	22
667.858	1	20
668.027	1	3
668.197	1	11
668.366	1	14
668.536	1	1
668.705	1	17
668.874	1	2
669.044	1	-3
669.213	1	11
669.382	1	19
669.552	1	15
669.721	1	-1
669.891	1	8
670.060	1	3
670.229	1	8
670.399	1	13
670.568	1	14
670.738	1	11
670.907	1	3
671.076	1	11
671.246	1	-7
671.415	1	11
671.584	1	1
671.754	1	17
671.923	1	0
672.093	1	11
672.262	1	1
672.431	1	22
672.601	1	-6
672.770	1	-2
672.939	1	2
673.109	1	1
673.278	1	18
673.448	1	4
673.617	1	-1
673.786	1	7
