325.333	1	4
325.504	1	12
325.675	1	18
325.846	1	8
326.017	1	12
326.188	1	23
326.359	1	11
326.531	1	3
326.702	1	21
326.873	1	15
327.044	1	8
327.215	1	0
327.386	1	3
327.557	1	18
327.728	1	-3
327.899	1	6
328.070	1	10
328.241	1	15
328.412	1	-3
328.583	1	17
328.754	1	5
328.926	1	11
329.097	1	17
329.268	1	17
329.439	1	9
329.610	1	9
329.781	1	15
329.952	1	15
330.123	1	13
330.294	1	11
330.465	1	20
330.636	1	16
330.807	1	16
330.978	1	6
331.149	1	12
331.320	1	15
331.492	1	21
331.663	1	15
331.834	1	11
332.005	1	11
332.176	1	14
332.347	1	19
332.518	1	5
332.689	1	15
332.860	1	9
333.031	1	15
333.202	1	20
333.373	1	10
333.544	1	11
333.715	1	10
333.886	1	10
334.057	1	17
334.228	1	20
334.399	1	11
334.570	1	24
334.741	1	22
334.912	1	19
335.084	1	6
335.255	1	10
335.426	1	17
335.597	1	17
335.768	1	13
335.939	1	14
336.110	1	13
336.281	1	13
336.452	1	18
336.623	1	14
336.794	1	20
336.965	1	16
337.136	1	17
337.307	1	24
337.478	1	12
337.649	1	14
337.820	1	4
337.991	1	21
338.162	1	14
338.333	1	9
338.504	1	6
338.675	1	18
338.846	1	19
339.017	1	25
339.188	1	22
339.359	1	13
339.530	1	18
339.701	1	16
339.872	1	14
340.043	1	22
340.214	1	18
340.385	1	23
340.556	1	18
340.727	1	16
340.898	1	16
341.069	1	31
341.240	1	16
341.411	1	21
341.582	1	22
341.753	1	13
341.924	1	12
342.095	1	17
342.266	1	16
342.437	1	26
342.608	1	6
342.779	1	23
342.950	1	13
343.121	1	23
343.292	1	26
343.463	1	26
343.634	1	20
343.805	1	11
343.976	1	11
344.147	1	25
344.318	1	15
344.489	1	27
344.660	1	15
344.831	1	15
345.002	1	21
345.173	1	24
345.344	1	10
345.515	1	21
345.686	1	23
345.857	1	30
346.028	1	29
346.199	1	25
346.370	1	24
346.541	1	31
346.712	1	21
346.883	1	26
347.054	1	18
347.225	1	18
347.396	1	24
347.567	1	25
347.738	1	28
347.909	1	26
348.080	1	21
348.251	1	17
348.422	1	28
348.593	1	16
348.764	1	18
348.935	1	23
349.106	1	17
349.277	1	40
349.448	1	23
349.619	1	32
349.790	1	34
349.961	1	24
350.132	1	31
350.303	1	37
350.474	1	19
350.645	1	28
350.816	1	35
350.987	1	20
351.157	1	29
351.328	1	27
351.499	1	26
351.670	1	33
351.841	1	16
352.012	1	26
352.183	1	31
352.354	1	29
352.525	1	26
352.696	1	33
352.867	1	25
353.038	1	38
353.209	1	38
353.380	1	36
353.551	1	34
353.722	1	29
353.893	1	36
354.064	1	37
354.235	1	31
354.406	1	28
354.576	1	31
354.747	1	37
354.918	1	39
355.089	1	34
355.260	1	25
355.431	1	40
355.602	1	30
355.773	1	27
355.944	1	35
356.115	1	22
356.286	1	29
356.457	1	39
356.628	1	44
356.799	1	29
356.970	1	29
357.141	1	46
357.311	1	48
357.482	1	36
357.653	1	27
357.824	1	49
357.995	1	34
358.166	1	40
358.337	1	24
358.508	1	39
358.679	1	28
358.850	1	38
359.021	1	35
359.192	1	35
359.363	1	34
359.533	1	25
359.704	1	30
359.875	1	44
360.046	1	34
360.217	1	28
360.388	1	41
360.559	1	48
360.730	1	33
360.901	1	43
361.072	1	34
361.243	1	40
361.414	1	46
361.584	1	43
361.755	1	35
361.926	1	31
362.097	1	40
362.268	1	34
362.439	1	40
362.610	1	34
362.781	1	34
362.952	1	40
363.123	1	50
363.293	1	39
363.464	1	33
363.635	1	37
363.806	1	43
363.977	1	40
364.148	1	33
364.319	1	25
364.490	1	44
364.661	1	46
364.832	1	52
365.002	1	31
365.173	1	36
365.344	1	31
365.515	1	36
365.686	1	49
365.857	1	59
366.028	1	34
366.199	1	44
366.370	1	46
366.540	1	45
366.711	1	34
366.882	1	28
367.053	1	39
367.224	1	31
367.395	1	48
367.566	1	46
367.737	1	50
367.908	1	47
368.078	1	55
368.249	1	37
368.420	1	43
368.591	1	40
368.762	1	40
368.933	1	30
369.104	1	66
369.274	1	39
369.445	1	48
369.616	1	53
369.787	1	53
369.958	1	40
370.129	1	47
370.300	1	39
370.471	1	40
370.641	1	40
370.812	1	44
370.983	1	37
371.154	1	39
371.325	1	49
371.496	1	45
371.667	1	49
371.837	1	38
372.008	1	44
372.179	1	40
372.350	1	42
372.521	1	42
372.692	1	44
372.863	1	32
373.033	1	48
373.204	1	39
373.375	1	51
373.546	1	52
373.717	1	41
373.888	1	38
374.059	1	46
374.229	1	43
374.400	1	38
374.571	1	38
374.742	1	37
374.913	1	39
375.084	1	46
375.254	1	48
375.425	1	37
375.596	1	44
375.767	1	42
375.938	1	48
376.109	1	26
376.279	1	37
376.450	1	44
376.621	1	52
376.792	1	47
376.963	1	43
377.134	1	49
377.304	1	48
377.475	1	48
377.646	1	45
377.817	1	36
377.988	1	41
378.159	1	42
378.329	1	47
378.500	1	41
378.671	1	47
378.842	1	42
379.013	1	52
379.184	1	50
379.354	1	35
379.525	1	48
379.696	1	46
379.867	1	47
380.038	1	29
380.209	1	45
380.379	1	50
380.550	1	43
380.721	1	49
380.892	1	46
381.063	1	55
381.233	1	32
381.404	1	57
381.575	1	47
381.746	1	49
381.917	1	38
382.087	1	53
382.258	1	49
382.429	1	46
382.600	1	42
382.771	1	52
382.941	1	49
383.112	1	45
383.283	1	46
383.454	1	38
383.625	1	47
383.795	1	52
383.966	1	49
384.137	1	51
384.308	1	52
384.479	1	45
384.649	1	51
384.820	1	48
384.991	1	47
385.162	1	53
385.333	1	56
385.503	1	53
385.674	1	56
385.845	1	52
386.016	1	44
386.187	1	46
386.357	1	46
386.528	1	40
386.699	1	42
386.870	1	51
387.041	1	58
387.211	1	38
387.382	1	47
387.553	1	40
387.724	1	44
387.894	1	51
388.065	1	54
388.236	1	41
388.407	1	46
388.578	1	33
388.748	1	51
388.919	1	62
389.090	1	50
389.261	1	55
389.431	1	61
389.602	1	44
389.773	1	63
389.944	1	47
390.114	1	57
390.285	1	40
390.456	1	51
390.627	1	55
390.798	1	60
390.968	1	58
391.139	1	64
391.310	1	62
391.481	1	55
391.651	1	44
391.822	1	53
391.993	1	71
392.164	1	40
392.334	1	49
392.505	1	42
392.676	1	56
392.847	1	59
393.017	1	59
393.188	1	51
393.359	1	72
393.530	1	61
393.700	1	60
393.871	1	53
394.042	1	47
394.213	1	61
394.383	1	66
394.554	1	45
394.725	1	45
394.896	1	51
395.066	1	51
395.237	1	64
395.408	1	56
395.579	1	55
395.749	1	61
395.920	1	69
396.091	1	50
396.262	1	50
396.432	1	45
396.603	1	53
396.774	1	52
396.945	1	57
397.115	1	61
397.286	1	58
397.457	1	61
397.627	1	59
397.798	1	51
397.969	1	42
398.140	1	54
398.310	1	55
398.481	1	49
398.652	1	65
398.823	1	51
398.993	1	59
399.164	1	55
399.335	1	60
399.505	1	47
399.676	1	65
399.847	1	56
400.018	1	51
400.188	1	51
400.359	1	45
400.530	1	51
400.700	1	67
400.871	1	75
401.042	1	63
401.213	1	42
401.383	1	61
401.554	1	58
401.725	1	62
401.895	1	68
402.066	1	58
402.237	1	60
402.408	1	63
402.578	1	60
402.749	1	54
402.920	1	54
403.090	1	55
403.261	1	68
403.432	1	72
403.603	1	55
403.773	1	65
403.944	1	49
404.115	1	51
404.285	1	58
404.456	1	63
404.627	1	47
404.797	1	51
404.968	1	68
405.139	1	49
405.310	1	48
405.480	1	52
405.651	1	72
405.822	1	65
405.992	1	72
406.163	1	70
406.334	1	57
406.504	1	52
406.675	1	48
406.846	1	58
407.016	1	57
407.187	1	61
407.358	1	56
407.528	1	49
407.699	1	64
407.870	1	55
408.041	1	70
408.211	1	53
408.382	1	57
408.553	1	57
408.723	1	61
408.894	1	55
409.065	1	64
409.235	1	68
409.406	1	59
409.577	1	54
409.747	1	58
409.918	1	56
410.089	1	66
410.259	1	64
410.430	1	68
410.601	1	61
410.771	1	60
410.942	1	67
411.113	1	53
411.283	1	50
411.454	1	52
411.625	1	63
411.795	1	60
411.966	1	71
412.137	1	63
412.307	1	62
412.478	1	64
412.649	1	62
412.819	1	62
412.990	1	70
413.161	1	61
413.331	1	52
413.502	1	67
413.672	1	54
413.843	1	67
414.014	1	73
414.184	1	57
414.355	1	74
414.526	1	75
414.696	1	69
414.867	1	61
415.038	1	60
415.208	1	70
415.379	1	51
415.550	1	69
415.720	1	63
415.891	1	56
416.062	1	70
416.232	1	55
416.403	1	49
416.573	1	64
416.744	1	61
416.915	1	64
417.085	1	67
417.256	1	72
417.427	1	60
417.597	1	55
417.768	1	59
417.939	1	73
418.109	1	61
418.280	1	51
418.450	1	73
418.621	1	54
418.792	1	65
418.962	1	60
419.133	1	59
419.304	1	58
419.474	1	60
419.645	1	52
419.815	1	66
419.986	1	59
420.157	1	46
420.327	1	56
420.498	1	60
420.669	1	60
420.839	1	62
421.010	1	63
421.180	1	55
421.351	1	68
421.522	1	59
421.692	1	71
421.863	1	54
422.033	1	62
422.204	1	54
422.375	1	48
422.545	1	56
422.716	1	52
422.886	1	47
423.057	1	53
423.228	1	49
423.398	1	65
423.569	1	50
423.740	1	50
423.910	1	45
424.081	1	55
424.251	1	44
424.422	1	50
424.593	1	51
424.763	1	61
424.934	1	63
425.104	1	51
425.275	1	60
425.445	1	64
425.616	1	59
425.787	1	53
425.957	1	53
426.128	1	53
426.298	1	48
426.469	1	64
426.640	1	74
426.810	1	55
426.981	1	52
427.151	1	62
427.322	1	61
427.493	1	60
427.663	1	49
427.834	1	45
428.004	1	52
428.175	1	59
428.345	1	53
428.516	1	62
428.687	1	47
428.857	1	51
429.028	1	59
429.198	1	59
429.369	1	49
429.540	1	48
429.710	1	59
429.881	1	63
430.051	1	47
430.222	1	49
430.392	1	70
430.563	1	57
430.734	1	52
430.904	1	60
431.075	1	63
431.245	1	47
431.416	1	46
431.586	1	52
431.757	1	57
431.927	1	45
432.098	1	40
432.269	1	47
432.439	1	72
432.610	1	55
432.780	1	61
432.951	1	49
433.121	1	46
433.292	1	47
433.462	1	57
433.633	1	51
433.804	1	68
433.974	1	36
434.145	1	56
434.315	1	58
434.486	1	51
434.656	1	54
434.827	1	45
434.997	1	56
435.168	1	53
435.339	1	50
435.509	1	52
435.680	1	53
435.850	1	51
436.021	1	52
436.191	1	65
436.362	1	50
436.532	1	65
436.703	1	50
436.873	1	62
437.044	1	49
437.214	1	59
437.385	1	63
437.556	1	54
437.726	1	51
437.897	1	44
438.067	1	39
438.238	1	38
438.408	1	44
438.579	1	53
438.749	1	50
438.920	1	55
439.090	1	57
439.261	1	50
439.431	1	50
439.602	1	54
439.772	1	63
439.943	1	52
440.113	1	39
440.284	1	58
440.455	1	43
440.625	1	62
440.796	1	60
440.966	1	40
441.137	1	59
441.307	1	56
441.478	1	48
441.648	1	39
441.819	1	54
441.989	1	41
442.160	1	39
442.330	1	48
442.501	1	57
442.671	1	50
442.842	1	38
443.012	1	54
443.183	1	52
443.353	1	52
443.524	1	49
443.694	1	47
443.865	1	47
444.035	1	35
444.206	1	37
444.376	1	54
444.547	1	42
444.717	1	47
444.888	1	48
445.058	1	57
445.229	1	51
445.399	1	57
445.570	1	57
445.740	1	51
445.911	1	31
446.081	1	41
446.252	1	41
446.422	1	40
446.593	1	43
446.763	1	56
446.934	1	36
447.104	1	53
447.275	1	42
447.445	1	33
447.616	1	51
447.786	1	59
447.957	1	55
448.127	1	47
448.298	1	40
448.468	1	45
448.639	1	55
448.809	1	55
448.979	1	40
449.150	1	43
449.320	1	35
449.491	1	38
449.661	1	45
449.832	1	40
450.002	1	35
450.173	1	45
450.343	1	51
450.514	1	49
450.684	1	53
450.855	1	47
451.025	1	42
451.196	1	36
451.366	1	39
451.537	1	42
451.707	1	46
451.878	1	43
452.048	1	40
452.218	1	40
452.389	1	48
452.559	1	47
452.730	1	43
452.900	1	45
453.071	1	43
453.241	1	32
453.412	1	30
453.582	1	48
453.753	1	34
453.923	1	46
454.093	1	50
454.264	1	53
454.434	1	38
454.605	1	45
454.775	1	34
454.946	1	45
455.116	1	32
455.287	1	51
455.457	1	49
455.628	1	31
455.798	1	36
455.968	1	45
456.139	1	41
456.309	1	48
456.480	1	34
456.650	1	33
456.821	1	46
456.991	1	39
457.161	1	36
457.332	1	49
457.502	1	50
457.673	1	43
457.843	1	27
458.014	1	44
458.184	1	42
458.355	1	32
458.525	1	39
458.695	1	41
458.866	1	35
459.036	1	49
459.207	1	42
459.377	1	40
459.548	1	39
459.718	1	31
459.888	1	40
460.059	1	47
460.229	1	29
460.400	1	40
460.570	1	42
460.740	1	44
460.911	1	35
461.081	1	34
461.252	1	37
461.422	1	34
461.593	1	29
461.763	1	34
461.933	1	37
462.104	1	52
462.274	1	41
462.445	1	32
462.615	1	46
462.785	1	33
462.956	1	34
463.126	1	37
463.297	1	41
463.467	1	39
463.638	1	29
463.808	1	42
463.978	1	37
464.149	1	44
464.319	1	42
464.490	1	40
464.660	1	44
464.830	1	29
465.001	1	34
465.171	1	34
465.342	1	28
465.512	1	38
465.682	1	36
465.853	1	41
466.023	1	56
466.194	1	32
466.364	1	37
466.534	1	34
466.705	1	34
466.875	1	46
467.045	1	45
467.216	1	45
467.386	1	36
467.557	1	46
467.727	1	38
467.897	1	46
468.068	1	39
468.238	1	36
468.409	1	44
468.579	1	34
468.749	1	38
468.920	1	38
469.090	1	29
469.260	1	48
469.431	1	29
469.601	1	37
469.772	1	34
469.942	1	41
470.112	1	38
470.283	1	38
470.453	1	30
470.623	1	38
470.794	1	42
470.964	1	29
471.135	1	44
471.305	1	30
471.475	1	38
471.646	1	41
471.816	1	39
471.986	1	28
472.157	1	27
472.327	1	36
472.497	1	30
472.668	1	30
472.838	1	29
473.009	1	26
473.179	1	35
473.349	1	23
473.520	1	25
473.690	1	42
473.860	1	20
474.031	1	29
474.201	1	33
474.371	1	41
474.542	1	39
474.712	1	28
474.882	1	30
475.053	1	27
475.223	1	20
475.394	1	32
475.564	1	41
475.734	1	19
475.905	1	32
476.075	1	30
476.245	1	25
476.416	1	27
476.586	1	39
476.756	1	19
476.927	1	22
477.097	1	38
477.267	1	36
477.438	1	23
477.608	1	29
477.778	1	37
477.949	1	23
478.119	1	14
478.289	1	30
478.460	1	35
478.630	1	40
478.800	1	35
478.971	1	29
479.141	1	25
479.311	1	29
479.482	1	9
479.652	1	24
479.822	1	19
479.993	1	43
480.163	1	36
480.333	1	39
480.504	1	39
480.674	1	33
480.844	1	18
481.015	1	31
481.185	1	33
481.355	1	21
481.525	1	21
481.696	1	25
481.866	1	27
482.036	1	35
482.207	1	28
482.377	1	27
482.547	1	29
482.718	1	15
482.888	1	19
483.058	1	33
483.229	1	24
483.399	1	11
483.569	1	25
483.740	1	33
483.910	1	28
484.080	1	39
484.250	1	31
484.421	1	25
484.591	1	26
484.761	1	28
484.932	1	28
485.102	1	8
485.272	1	25
485.443	1	20
485.613	1	20
485.783	1	26
485.953	1	24
486.124	1	39
486.294	1	19
486.464	1	36
486.635	1	18
486.805	1	37
486.975	1	28
487.146	1	26
487.316	1	12
487.486	1	9
487.656	1	29
487.827	1	22
487.997	1	22
488.167	1	29
488.338	1	23
488.508	1	16
488.678	1	25
488.848	1	23
489.019	1	12
489.189	1	6
489.359	1	31
489.529	1	23
489.700	1	27
489.870	1	25
490.040	1	3
490.211	1	31
490.381	1	36
490.551	1	14
490.721	1	28
490.892	1	35
491.062	1	22
491.232	1	21
491.402	1	19
491.573	1	30
491.743	1	20
491.913	1	24
492.084	1	23
492.254	1	34
492.424	1	14
492.594	1	16
492.765	1	21
492.935	1	15
493.105	1	15
493.275	1	33
493.446	1	22
493.616	1	15
493.786	1	23
493.956	1	13
494.127	1	21
494.297	1	34
494.467	1	16
494.637	1	26
494.808	1	17
494.978	1	17
495.148	1	24
495.318	1	16
495.489	1	29
495.659	1	20
495.829	1	24
495.999	1	15
496.170	1	21
496.340	1	16
496.510	1	26
496.680	1	26
496.851	1	25
497.021	1	28
497.191	1	13
497.361	1	31
497.532	1	27
497.702	1	12
497.872	1	20
498.042	1	31
498.213	1	12
498.383	1	21
498.553	1	21
498.723	1	13
498.894	1	26
499.064	1	18
499.234	1	23
499.404	1	19
499.574	1	17
499.745	1	18
499.915	1	17
500.085	1	3
500.255	1	16
500.426	1	17
500.596	1	29
500.766	1	20
500.936	1	13
501.106	1	13
501.277	1	22
501.447	1	17
501.617	1	16
501.787	1	22
501.958	1	18
502.128	1	26
502.298	1	17
502.468	1	21
502.638	1	32
502.809	1	29
502.979	1	19
503.149	1	8
503.319	1	22
503.489	1	21
503.660	1	13
503.830	1	16
504.000	1	23
504.170	1	22
504.340	1	15
504.511	1	22
504.681	1	9
504.851	1	14
505.021	1	14
505.192	1	21
505.362	1	28
505.532	1	20
505.702	1	15
505.872	1	23
506.043	1	13
506.213	1	6
506.383	1	12
506.553	1	13
506.723	1	14
506.893	1	9
507.064	1	18
507.234	1	8
507.404	1	25
507.574	1	18
507.744	1	16
507.915	1	11
508.085	1	7
508.255	1	17
508.425	1	12
508.595	1	10
508.766	1	22
508.936	1	19
509.106	1	14
509.276	1	26
509.446	1	10
509.616	1	21
509.787	1	19
509.957	1	10
510.127	1	21
510.297	1	14
510.467	1	16
510.638	1	5
510.808	1	13
510.978	1	17
511.148	1	3
511.318	1	23
511.488	1	12
511.659	1	-3
511.829	1	7
511.999	1	17
512.169	1	8
512.339	1	6
512.509	1	18
512.680	1	18
512.850	1	16
513.020	1	19
513.190	1	16
513.360	1	13
513.530	1	13
513.700	1	11
513.871	1	25
514.041	1	26
514.211	1	19
514.381	1	14
514.551	1	13
514.721	1	16
514.892	1	10
515.062	1	6
515.232	1	6
515.402	1	22
515.572	1	14
515.742	1	14
515.912	1	24
516.083	1	12
516.253	1	16
516.423	1	13
516.593	1	13
516.763	1	18
516.933	1	19
517.104	1	10
517.274	1	12
517.444	1	16
517.614	1	2
517.784	1	21
517.954	1	11
518.124	1	13
518.294	1	20
518.465	1	7
518.635	1	17
518.805	1	13
518.975	1	10
519.145	1	3
519.315	1	21
519.485	1	16
519.656	1	15
519.826	1	14
519.996	1	8
520.166	1	13
520.336	1	15
520.506	1	12
520.676	1	6
520.846	1	19
521.017	1	13
521.187	1	28
521.357	1	17
521.527	1	13
521.697	1	10
521.867	1	13
522.037	1	9
522.207	1	7
522.377	1	12
522.548	1	8
522.718	1	21
522.888	1	7
523.058	1	7
523.228	1	6
523.398	1	10
523.568	1	8
523.738	1	15
523.909	1	22
524.079	1	19
524.249	1	6
524.419	1	7
524.589	1	26
524.759	1	9
524.929	1	24
525.099	1	16
525.269	1	14
525.439	1	9
525.610	1	20
525.780	1	20
525.950	1	10
526.120	1	10
526.290	1	20
526.460	1	18
526.630	1	22
526.800	1	5
526.970	1	15
527.140	1	16
527.311	1	0
527.481	1	12
527.651	1	5
527.821	1	7
527.991	1	15
528.161	1	13
528.331	1	1
528.501	1	18
528.671	1	23
528.841	1	23
529.011	1	2
529.181	1	18
529.352	1	12
529.522	1	-1
529.692	1	9
529.862	1	14
530.032	1	10
530.202	1	8
530.372	1	12
530.542	1	12
530.712	1	0
530.882	1	6
531.052	1	11
531.222	1	12
531.392	1	5
531.563	1	-7
531.733	1	21
531.903	1	12
532.073	1	5
532.243	1	13
532.413	1	9
532.583	1	10
532.753	1	11
532.923	1	17
533.093	1	1
533.263	1	1
533.433	1	9
533.603	1	11
533.773	1	11
533.943	1	13
534.113	1	14
534.284	1	12
534.454	1	10
534.624	1	0
534.794	1	12
534.964	1	5
535.134	1	4
535.304	1	19
535.474	1	-4
535.644	1	17
535.814	1	8
535.984	1	9
536.154	1	14
536.324	1	7
536.494	1	16
536.664	1	-4
536.834	1	9
537.004	1	4
537.174	1	19
537.344	1	19
537.514	1	4
537.685	1	9
537.855	1	17
538.025	1	4
538.195	1	21
538.365	1	10
538.535	1	14
538.705	1	10
538.875	1	5
539.045	1	11
539.215	1	23
539.385	1	5
539.555	1	6
539.725	1	16
539.895	1	10
540.065	1	8
540.235	1	2
540.405	1	17
540.575	1	11
540.745	1	10
540.915	1	3
541.085	1	12
541.255	1	10
541.425	1	8
541.595	1	-4
541.765	1	10
541.935	1	20
542.105	1	12
542.275	1	7
542.445	1	7
542.615	1	5
542.785	1	19
542.955	1	12
543.125	1	9
543.295	1	23
543.465	1	8
543.635	1	1
543.805	1	1
543.975	1	-2
544.145	1	12
544.315	1	9
544.485	1	15
544.655	1	10
544.825	1	13
544.995	1	11
545.165	1	13
545.335	1	0
545.505	1	10
545.675	1	9
545.845	1	-1
546.015	1	7
546.185	1	7
546.355	1	1
546.525	1	8
546.695	1	-7
546.865	1	6
547.035	1	6
547.205	1	12
547.375	1	11
547.545	1	13
547.715	1	9
547.885	1	13
548.055	1	12
548.225	1	1
548.395	1	19
548.565	1	0
548.735	1	15
548.905	1	1
549.075	1	13
549.245	1	10
549.415	1	15
549.585	1	20
549.755	1	11
549.925	1	-3
550.095	1	8
550.265	1	6
550.435	1	0
550.605	1	12
550.775	1	8
550.945	1	6
551.115	1	3
551.285	1	0
551.455	1	7
551.625	1	13
551.795	1	-4
551.965	1	1
552.135	1	-5
552.305	1	6
552.475	1	18
552.645	1	10
552.815	1	0
552.985	1	-1
553.155	1	2
553.325	1	15
553.495	1	9
553.665	1	14
553.835	1	4
554.004	1	6
554.174	1	-6
554.344	1	8
554.514	1	14
554.684	1	2
554.854	1	6
555.024	1	17
555.194	1	22
555.364	1	1
555.534	1	13
555.704	1	2
555.874	1	11
556.044	1	3
556.214	1	2
556.384	1	6
556.554	1	6
556.724	1	-2
556.894	1	7
557.064	1	11
557.234	1	4
557.404	1	13
557.573	1	17
557.743	1	-3
557.913	1	3
558.083	1	12
558.253	1	13
558.423	1	1
558.593	1	11
558.763	1	10
558.933	1	6
559.103	1	-4
559.273	1	4
559.443	1	5
559.613	1	2
559.783	1	9
559.953	1	0
560.122	1	-1
560.292	1	6
560.462	1	4
560.632	1	5
560.802	1	14
560.972	1	12
561.142	1	14
561.312	1	4
561.482	1	-1
561.652	1	7
561.822	1	5
561.992	1	9
562.162	1	5
562.331	1	3
562.501	1	-6
562.671	1	11
562.841	1	8
563.011	1	11
563.181	1	17
563.351	1	2
563.521	1	3
563.691	1	7
563.861	1	5
564.031	1	6
564.201	1	7
564.370	1	12
564.540	1	9
564.710	1	9
564.880	1	15
565.050	1	3
565.220	1	2
565.390	1	7
565.560	1	8
565.730	1	12
565.900	1	0
566.069	1	19
566.239	1	-5
566.409	1	8
566.579	1	7
566.749	1	14
566.919	1	12
567.089	1	-5
567.259	1	8
567.429	1	8
567.599	1	7
567.768	1	-3
567.938	1	-7
568.108	1	8
568.278	1	13
568.448	1	22
568.618	1	8
568.788	1	5
568.958	1	18
569.128	1	7
569.297	1	5
569.467	1	5
569.637	1	-2
569.807	1	7
569.977	1	17
570.147	1	4
570.317	1	16
570.487	1	2
570.656	1	4
570.826	1	16
570.996	1	3
571.166	1	11
571.336	1	9
571.506	1	0
571.676	1	2
571.846	1	3
572.015	1	18
572.185	1	10
572.355	1	2
572.525	1	2
572.695	1	9
572.865	1	0
573.035	1	4
573.205	1	-6
573.374	1	8
573.544	1	6
573.714	1	19
573.884	1	11
574.054	1	17
574.224	1	5
574.394	1	-2
574.563	1	3
574.733	1	5
574.903	1	9
575.073	1	2
575.243	1	3
575.413	1	5
575.583	1	9
575.752	1	4
575.922	1	12
576.092	1	3
576.262	1	5
576.432	1	15
576.602	1	1
576.772	1	1
576.941	1	11
577.111	1	10
577.281	1	2
577.451	1	5
577.621	1	5
577.791	1	2
577.960	1	12
578.130	1	-5
578.300	1	8
578.470	1	4
578.640	1	16
578.810	1	-1
578.979	1	0
579.149	1	-4
579.319	1	4
579.489	1	9
579.659	1	-2
579.829	1	0
579.998	1	5
580.168	1	12
580.338	1	17
580.508	1	1
580.678	1	-1
580.848	1	13
581.017	1	23
581.187	1	0
581.357	1	-3
581.527	1	4
581.697	1	11
581.867	1	0
582.036	1	6
582.206	1	6
582.376	1	12
582.546	1	-3
582.716	1	1
582.885	1	12
583.055	1	10
583.225	1	-2
583.395	1	14
583.565	1	9
583.735	1	5
583.904	1	5
584.074	1	6
584.244	1	12
584.414	1	12
584.584	1	-3
584.753	1	8
584.923	1	11
585.093	1	3
585.263	1	16
585.433	1	2
585.602	1	11
585.772	1	6
585.942	1	1
586.112	1	1
586.282	1	2
586.451	1	-4
586.621	1	13
586.791	1	16
586.961	1	8
587.131	1	19
587.300	1	-10
587.470	1	5
587.640	1	2
587.810	1	-2
587.980	1	4
588.149	1	8
588.319	1	4
588.489	1	18
588.659	1	2
588.829	1	6
588.998	1	6
589.168	1	10
589.338	1	13
589.508	1	12
589.677	1	9
589.847	1	3
590.017	1	10
590.187	1	9
590.357	1	2
590.526	1	20
590.696	1	12
590.866	1	10
591.036	1	-5
591.205	1	-9
591.375	1	6
591.545	1	-1
591.715	1	5
591.885	1	16
592.054	1	9
592.224	1	4
592.394	1	-3
592.564	1	-5
592.733	1	14
592.903	1	10
593.073	1	11
593.243	1	10
593.412	1	3
593.582	1	12
593.752	1	12
593.922	1	-3
594.091	1	11
594.261	1	1
594.431	1	-3
594.601	1	-3
594.771	1	2
594.940	1	15
595.110	1	13
595.280	1	12
595.450	1	11
595.619	1	1
595.789	1	1
595.959	1	0
596.129	1	18
596.298	1	1
596.468	1	8
596.638	1	22
596.808	1	7
596.977	1	18
597.147	1	11
597.317	1	3
597.487	1	8
597.656	1	11
597.826	1	4
597.996	1	8
598.166	1	8
598.335	1	8
598.505	1	-1
598.675	1	-1
598.844	1	8
599.014	1	6
599.184	1	21
599.354	1	6
599.523	1	1
599.693	1	14
599.863	1	-2
600.033	1	1
600.202	1	5
600.372	1	5
600.542	1	14
600.712	1	4
600.881	1	4
601.051	1	6
601.221	1	8
601.390	1	14
601.560	1	11
601.730	1	9
601.900	1	9
602.069	1	10
602.239	1	-5
602.409	1	18
602.578	1	3
602.748	1	10
602.918	1	3
603.088	1	8
603.257	1	15
603.427	1	11
603.597	1	9
603.767	1	6
603.936	1	8
604.106	1	11
604.276	1	8
604.445	1	5
604.615	1	6
604.785	1	10
604.954	1	16
605.124	1	6
605.294	1	11
605.464	1	5
605.633	1	11
605.803	1	5
605.973	1	12
606.142	1	13
606.312	1	10
606.482	1	3
606.652	1	10
606.821	1	11
606.991	1	6
607.161	1	20
607.330	1	4
607.500	1	9
607.670	1	7
607.839	1	12
608.009	1	2
608.179	1	3
608.348	1	18
608.518	1	0
608.688	1	10
608.858	1	11
609.027	1	17
609.197	1	12
609.367	1	3
609.536	1	4
609.706	1	7
609.876	1	6
610.045	1	7
610.215	1	4
610.385	1	15
610.554	1	2
610.724	1	23
610.894	1	11
611.063	1	-3
611.233	1	7
611.403	1	4
611.572	1	18
611.742	1	2
611.912	1	12
612.081	1	9
612.251	1	12
612.421	1	6
612.590	1	5
612.760	1	15
612.930	1	-1
613.099	1	9
613.269	1	6
613.439	1	10
613.608	1	14
613.778	1	11
613.948	1	14
614.117	1	9
614.287	1	12
614.457	1	4
614.626	1	-2
614.796	1	8
614.966	1	1
615.135	1	7
615.305	1	-5
615.475	1	14
615.644	1	16
615.814	1	3
615.984	1	1
616.153	1	4
616.323	1	8
616.493	1	15
616.662	1	9
616.832	1	13
617.002	1	15
617.171	1	6
617.341	1	-1
617.511	1	13
617.680	1	14
617.850	1	2
618.019	1	-3
618.189	1	5
618.359	1	13
618.528	1	13
618.698	1	5
618.868	1	24
619.037	1	10
619.207	1	6
619.377	1	1
619.546	1	5
619.716	1	4
619.885	1	17
620.055	1	12
620.225	1	15
620.394	1	17
620.564	1	18
620.734	1	9
620.903	1	13
621.073	1	15
621.242	1	-2
621.412	1	2
621.582	1	4
621.751	1	-7
621.921	1	8
622.091	1	8
622.260	1	12
622.430	1	2
622.599	1	16
622.769	1	9
622.939	1	14
623.108	1	10
623.278	1	13
623.448	1	4
623.617	1	5
623.787	1	10
623.956	1	6
624.126	1	19
624.296	1	18
624.465	1	-2
624.635	1	4
624.804	1	1
624.974	1	4
625.144	1	16
625.313	1	2
625.483	1	-3
625.652	1	7
625.822	1	14
625.992	1	13
626.161	1	-2
626.331	1	12
626.501	1	10
626.670	1	9
626.840	1	6
627.009	1	4
627.179	1	9
627.348	1	13
627.518	1	12
627.688	1	6
627.857	1	6
628.027	1	10
628.196	1	12
628.366	1	-1
628.536	1	8
628.705	1	11
628.875	1	6
629.044	1	6
629.214	1	11
629.384	1	10
629.553	1	12
629.723	1	9
629.892	1	12
630.062	1	18
630.232	1	7
630.401	1	8
630.571	1	6
630.740	1	-1
630.910	1	12
631.079	1	13
631.249	1	6
631.419	1	14
631.588	1	2
631.758	1	3
631.927	1	4
632.097	1	11
632.266	1	15
632.436	1	5
632.606	1	14
632.775	1	21
632.945	1	4
633.114	1	0
633.284	1	-2
633.453	1	5
633.623	1	13
633.793	1	3
633.962	1	-2
634.132	1	20
634.301	1	12
634.471	1	15
634.640	1	25
634.810	1	11
634.979	1	19
635.149	1	6
635.319	1	7
635.488	1	16
635.658	1	1
635.827	1	13
635.997	1	2
636.166	1	13
636.336	1	11
636.505	1	17
636.675	1	2
636.845	1	9
637.014	1	12
637.184	1	4
637.353	1	7
637.523	1	12
637.692	1	8
637.862	1	5
638.031	1	6
638.201	1	16
638.370	1	5
638.540	1	16
638.710	1	9
638.879	1	4
639.049	1	10
639.218	1	6
639.388	1	5
639.557	1	8
639.727	1	1
639.896	1	12
640.066	1	13
640.235	1	9
640.405	1	15
640.574	1	19
640.744	1	15
640.914	1	6
641.083	1	5
641.253	1	7
641.422	1	8
641.592	1	11
641.761	1	25
641.931	1	11
642.100	1	13
642.270	1	10
642.439	1	9
642.609	1	13
642.778	1	8
642.948	1	10
643.117	1	6
643.287	1	3
643.456	1	0
643.626	1	17
643.795	1	4
643.965	1	6
644.134	1	3
644.304	1	20
644.473	1	3
644.643	1	7
644.812	1	13
644.982	1	8
645.151	1	7
645.321	1	2
645.490	1	18
645.660	1	9
645.829	1	5
645.999	1	12
646.168	1	11
646.338	1	4
646.507	1	1
646.677	1	10
646.846	1	7
647.016	1	10
647.185	1	6
647.355	1	12
647.524	1	4
647.694	1	14
647.863	1	5
648.033	1	11
648.202	1	8
648.372	1	10
648.541	1	12
648.711	1	17
648.880	1	16
649.050	1	17
649.219	1	5
649.389	1	14
649.558	1	9
649.728	1	10
649.897	1	5
650.067	1	-3
650.236	1	15
650.406	1	2
650.575	1	5
650.745	1	12
650.914	1	10
651.084	1	-3
651.253	1	13
651.423	1	5
651.592	1	20
651.762	1	13
651.931	1	0
652.101	1	9
652.270	1	14
652.440	1	22
652.609	1	7
652.778	1	15
652.948	1	10
653.117	1	23
653.287	1	10
653.456	1	16
653.626	1	10
653.795	1	3
653.965	1	18
654.134	1	6
654.304	1	17
654.473	1	12
654.643	1	18
654.812	1	11
654.982	1	13
655.151	1	11
655.320	1	14
655.490	1	4
655.659	1	10
655.829	1	10
655.998	1	9
656.168	1	3
656.337	1	16
656.507	1	12
656.676	1	17
656.846	1	9
657.015	1	22
657.184	1	4
657.354	1	6
657.523	1	16
657.693	1	8
657.862	1	17
658.032	1	7
658.201	1	10
658.371	1	18
658.540	1	20
658.709	1	4
658.879	1	-1
659.048	1	2
659.218	1	13
659.387	1	10
659.557	1	17
659.726	1	28
659.895	1	11
660.065	1	13
660.234	1	14
660.404	1	29
660.573	1	9
660.743	1	14
660.912	1	14
661.081	1	13
661.251	1	6
661.420	1	22
661.590	1	19
661.759	1	11
661.929	1	16
662.098	1	11
662.267	1	9
662.437	1	12
662.606	1	12
662.776	1	13
662.945	1	20
663.115	1	-7
663.284	1	-4
663.453	1	6
663.623	1	17
663.792	1	13
663.962	1	11
664.131	1	10
664.300	1	11
664.470	1	4
664.639	1	3
664.809	1	8
664.978	1	8
665.148	1	18
665.317	1	11
665.486	1	7
665.656	1	-3
665.825	1	15
665.995	1	19
666.164	1	16
666.333	1	18
666.503	1	23
666.672	1	16
666.842	1	5
667.011	1	11
667.180	1	17
667.350	1	26
667.519	1	4
667.689	1	23
667.858	1	24
668.027	1	14
668.197	1	10
668.366	1	23
668.536	1	8
668.705	1	13
668.874	1	15
669.044	1	10
669.213	1	11
669.382	1	20
669.552	1	0
669.721	1	12
669.891	1	8
670.060	1	11
670.229	1	15
670.399	1	11
670.568	1	28
670.738	1	9
670.907	1	10
671.076	1	12
671.246	1	2
671.415	1	10
671.584	1	13
671.754	1	20
671.923	1	3
672.093	1	21
672.262	1	14
672.431	1	22
672.601	1	8
672.770	1	11
672.939	1	10
673.109	1	10
673.278	1	15
673.448	1	10
673.617	1	12
673.786	1	12
