325.333	1	28
325.504	1	31
325.675	1	26
325.846	1	19
326.017	1	26
326.188	1	27
326.359	1	37
326.531	1	32
326.702	1	30
326.873	1	27
327.044	1	29
327.215	1	31
327.386	1	21
327.557	1	47
327.728	1	19
327.899	1	32
328.070	1	29
328.241	1	39
328.412	1	23
328.583	1	29
328.754	1	19
328.926	1	34
329.097	1	30
329.268	1	32
329.439	1	29
329.610	1	35
329.781	1	45
329.952	1	37
330.123	1	23
330.294	1	31
330.465	1	50
330.636	1	32
330.807	1	35
330.978	1	36
331.149	1	33
331.320	1	32
331.492	1	48
331.663	1	42
331.834	1	35
332.005	1	27
332.176	1	49
332.347	1	41
332.518	1	30
332.689	1	39
332.860	1	27
333.031	1	44
333.202	1	44
333.373	1	40
333.544	1	33
333.715	1	32
333.886	1	35
334.057	1	46
334.228	1	42
334.399	1	38
334.570	1	45
334.741	1	47
334.912	1	39
335.084	1	45
335.255	1	44
335.426	1	37
335.597	1	47
335.768	1	33
335.939	1	42
336.110	1	35
336.281	1	39
336.452	1	49
336.623	1	44
336.794	1	41
336.965	1	41
337.136	1	49
337.307	1	55
337.478	1	41
337.649	1	46
337.820	1	38
337.991	1	43
338.162	1	42
338.333	1	47
338.504	1	41
338.675	1	47
338.846	1	48
339.017	1	47
339.188	1	46
339.359	1	45
339.530	1	56
339.701	1	54
339.872	1	52
340.043	1	55
340.214	1	47
340.385	1	53
340.556	1	55
340.727	1	47
340.898	1	55
341.069	1	58
341.240	1	66
341.411	1	57
341.582	1	51
341.753	1	59
341.924	1	56
342.095	1	50
342.266	1	44
342.437	1	61
342.608	1	55
342.779	1	61
342.950	1	63
343.121	1	64
343.292	1	63
343.463	1	65
343.634	1	64
343.805	1	56
343.976	1	64
344.147	1	58
344.318	1	66
344.489	1	67
344.660	1	63
344.831	1	53
345.002	1	71
345.173	1	68
345.344	1	45
345.515	1	60
345.686	1	61
345.857	1	64
346.028	1	74
346.199	1	70
346.370	1	66
346.541	1	81
346.712	1	65
346.883	1	71
347.054	1	64
347.225	1	68
347.396	1	64
347.567	1	63
347.738	1	80
347.909	1	71
348.080	1	65
348.251	1	72
348.422	1	81
348.593	1	76
348.764	1	75
348.935	1	63
349.106	1	65
349.277	1	74
349.448	1	74
349.619	1	67
349.790	1	75
349.961	1	76
350.132	1	67
350.303	1	75
350.474	1	75
350.645	1	73
350.816	1	82
350.987	1	63
351.157	1	85
351.328	1	82
351.499	1	70
351.670	1	85
351.841	1	77
352.012	1	81
352.183	1	65
352.354	1	77
352.525	1	64
352.696	1	75
352.867	1	75
353.038	1	85
353.209	1	85
353.380	1	80
353.551	1	79
353.722	1	77
353.893	1	95
354.064	1	82
354.235	1	94
354.406	1	76
354.576	1	83
354.747	1	89
354.918	1	87
355.089	1	90
355.260	1	85
355.431	1	91
355.602	1	97
355.773	1	81
355.944	1	79
356.115	1	97
356.286	1	94
356.457	1	87
356.628	1	94
356.799	1	96
356.970	1	77
357.141	1	101
357.311	1	98
357.482	1	86
357.653	1	91
357.824	1	96
357.995	1	85
358.166	1	84
358.337	1	80
358.508	1	89
358.679	1	85
358.850	1	98
359.021	1	95
359.192	1	90
359.363	1	94
359.533	1	94
359.704	1	91
359.875	1	110
360.046	1	91
360.217	1	85
360.388	1	96
360.559	1	85
360.730	1	92
360.901	1	105
361.072	1	93
361.243	1	94
361.414	1	98
361.584	1	97
361.755	1	111
361.926	1	84
362.097	1	97
362.268	1	100
362.439	1	86
362.610	1	106
362.781	1	97
362.952	1	102
363.123	1	106
363.293	1	112
363.464	1	100
363.635	1	104
363.806	1	109
363.977	1	103
364.148	1	91
364.319	1	101
364.490	1	114
364.661	1	100
364.832	1	106
365.002	1	111
365.173	1	107
365.344	1	101
365.515	1	108
365.686	1	101
365.857	1	106
366.028	1	81
366.199	1	112
366.370	1	109
366.540	1	107
366.711	1	100
366.882	1	101
367.053	1	100
367.224	1	93
367.395	1	105
367.566	1	101
367.737	1	110
367.908	1	105
368.078	1	114
368.249	1	103
368.420	1	117
368.591	1	112
368.762	1	104
368.933	1	83
369.104	1	113
369.274	1	106
369.445	1	108
369.616	1	112
369.787	1	102
369.958	1	107
370.129	1	124
370.300	1	120
370.471	1	127
370.641	1	121
370.812	1	112
370.983	1	104
371.154	1	119
371.325	1	112
371.496	1	113
371.667	1	119
371.837	1	121
372.008	1	123
372.179	1	118
372.350	1	118
372.521	1	104
372.692	1	110
372.863	1	119
373.033	1	111
373.204	1	116
373.375	1	106
373.546	1	128
373.717	1	107
373.888	1	112
374.059	1	123
374.229	1	118
374.400	1	111
374.571	1	123
374.742	1	116
374.913	1	101
375.084	1	113
375.254	1	119
375.425	1	105
375.596	1	118
375.767	1	119
375.938	1	122
376.109	1	115
376.279	1	116
376.450	1	109
376.621	1	123
376.792	1	127
376.963	1	111
377.134	1	116
377.304	1	132
377.475	1	116
377.646	1	124
377.817	1	106
377.988	1	114
378.159	1	124
378.329	1	127
378.500	1	122
378.671	1	131
378.842	1	114
379.013	1	125
379.184	1	141
379.354	1	105
379.525	1	126
379.696	1	122
379.867	1	113
380.038	1	121
380.209	1	117
380.379	1	124
380.550	1	135
380.721	1	131
380.892	1	130
381.063	1	121
381.233	1	113
381.404	1	133
381.575	1	124
381.746	1	134
381.917	1	121
382.087	1	133
382.258	1	131
382.429	1	146
382.600	1	129
382.771	1	151
382.941	1	135
383.112	1	123
383.283	1	146
383.454	1	126
383.625	1	143
383.795	1	136
383.966	1	129
384.137	1	133
384.308	1	143
384.479	1	134
384.649	1	136
384.820	1	135
384.991	1	132
385.162	1	126
385.333	1	131
385.503	1	131
385.674	1	138
385.845	1	135
386.016	1	150
386.187	1	136
386.357	1	133
386.528	1	127
386.699	1	142
386.870	1	134
387.041	1	145
387.211	1	139
387.382	1	136
387.553	1	150
387.724	1	136
387.894	1	124
388.065	1	130
388.236	1	138
388.407	1	143
388.578	1	140
388.748	1	137
388.919	1	153
389.090	1	144
389.261	1	144
389.431	1	154
389.602	1	143
389.773	1	141
389.944	1	139
390.114	1	161
390.285	1	130
390.456	1	141
390.627	1	148
390.798	1	147
390.968	1	143
391.139	1	145
391.310	1	156
391.481	1	147
391.651	1	153
391.822	1	145
391.993	1	142
392.164	1	126
392.334	1	146
392.505	1	137
392.676	1	155
392.847	1	150
393.017	1	144
393.188	1	153
393.359	1	148
393.530	1	153
393.700	1	146
393.871	1	154
394.042	1	146
394.213	1	147
394.383	1	146
394.554	1	146
394.725	1	147
394.896	1	146
395.066	1	132
395.237	1	143
395.408	1	143
395.579	1	145
395.749	1	154
395.920	1	148
396.091	1	138
396.262	1	156
396.432	1	144
396.603	1	155
396.774	1	146
396.945	1	146
397.115	1	151
397.286	1	152
397.457	1	150
397.627	1	159
397.798	1	136
397.969	1	158
398.140	1	154
398.310	1	163
398.481	1	150
398.652	1	148
398.823	1	167
398.993	1	161
399.164	1	159
399.335	1	157
399.505	1	155
399.676	1	163
399.847	1	165
400.018	1	155
400.188	1	156
400.359	1	149
400.530	1	156
400.700	1	186
400.871	1	159
401.042	1	147
401.213	1	137
401.383	1	149
401.554	1	153
401.725	1	157
401.895	1	172
402.066	1	159
402.237	1	181
402.408	1	169
402.578	1	164
402.749	1	156
402.920	1	167
403.090	1	157
403.261	1	177
403.432	1	165
403.603	1	175
403.773	1	172
403.944	1	170
404.115	1	158
404.285	1	163
404.456	1	149
404.627	1	150
404.797	1	163
404.968	1	159
405.139	1	171
405.310	1	160
405.480	1	161
405.651	1	166
405.822	1	168
405.992	1	161
406.163	1	154
406.334	1	155
406.504	1	175
406.675	1	151
406.846	1	168
407.016	1	148
407.187	1	157
407.358	1	148
407.528	1	144
407.699	1	151
407.870	1	145
408.041	1	168
408.211	1	144
408.382	1	172
408.553	1	165
408.723	1	170
408.894	1	154
409.065	1	167
409.235	1	162
409.406	1	160
409.577	1	160
409.747	1	147
409.918	1	156
410.089	1	157
410.259	1	168
410.430	1	157
410.601	1	169
410.771	1	184
410.942	1	168
411.113	1	160
411.283	1	168
411.454	1	168
411.625	1	156
411.795	1	159
411.966	1	180
412.137	1	167
412.307	1	169
412.478	1	159
412.649	1	168
412.819	1	176
412.990	1	164
413.161	1	179
413.331	1	164
413.502	1	178
413.672	1	172
413.843	1	170
414.014	1	176
414.184	1	162
414.355	1	179
414.526	1	169
414.696	1	162
414.867	1	168
415.038	1	160
415.208	1	169
415.379	1	175
415.550	1	188
415.720	1	173
415.891	1	165
416.062	1	164
416.232	1	171
416.403	1	162
416.573	1	168
416.744	1	153
416.915	1	177
417.085	1	159
417.256	1	178
417.427	1	178
417.597	1	153
417.768	1	156
417.939	1	169
418.109	1	163
418.280	1	145
418.450	1	163
418.621	1	166
418.792	1	142
418.962	1	166
419.133	1	161
419.304	1	149
419.474	1	154
419.645	1	151
419.815	1	148
419.986	1	148
420.157	1	138
420.327	1	149
420.498	1	161
420.669	1	148
420.839	1	155
421.010	1	149
421.180	1	148
421.351	1	159
421.522	1	140
421.692	1	165
421.863	1	164
422.033	1	164
422.204	1	153
422.375	1	161
422.545	1	157
422.716	1	142
422.886	1	157
423.057	1	145
423.228	1	144
423.398	1	162
423.569	1	137
423.740	1	139
423.910	1	152
424.081	1	147
424.251	1	154
424.422	1	180
424.593	1	140
424.763	1	153
424.934	1	152
425.104	1	153
425.275	1	154
425.445	1	148
425.616	1	127
425.787	1	134
425.957	1	156
426.128	1	136
426.298	1	141
426.469	1	138
426.640	1	167
426.810	1	153
426.981	1	158
427.151	1	148
427.322	1	151
427.493	1	141
427.663	1	149
427.834	1	133
428.004	1	146
428.175	1	158
428.345	1	138
428.516	1	156
428.687	1	138
428.857	1	134
429.028	1	151
429.198	1	129
429.369	1	138
429.540	1	138
429.710	1	147
429.881	1	136
430.051	1	155
430.222	1	140
430.392	1	139
430.563	1	160
430.734	1	146
430.904	1	137
431.075	1	136
431.245	1	143
431.416	1	129
431.586	1	134
431.757	1	156
431.927	1	142
432.098	1	127
432.269	1	130
432.439	1	146
432.610	1	145
432.780	1	142
432.951	1	133
433.121	1	136
433.292	1	126
433.462	1	132
433.633	1	144
433.804	1	149
433.974	1	131
434.145	1	135
434.315	1	132
434.486	1	132
434.656	1	140
434.827	1	136
434.997	1	143
435.168	1	129
435.339	1	134
435.509	1	132
435.680	1	132
435.850	1	138
436.021	1	132
436.191	1	137
436.362	1	133
436.532	1	153
436.703	1	129
436.873	1	131
437.044	1	137
437.214	1	151
437.385	1	140
437.556	1	137
437.726	1	135
437.897	1	132
438.067	1	127
438.238	1	120
438.408	1	126
438.579	1	139
438.749	1	137
438.920	1	131
439.090	1	133
439.261	1	121
439.431	1	141
439.602	1	146
439.772	1	131
439.943	1	140
440.113	1	123
440.284	1	134
440.455	1	136
440.625	1	146
440.796	1	136
440.966	1	132
441.137	1	134
441.307	1	135
441.478	1	126
441.648	1	126
441.819	1	133
441.989	1	134
442.160	1	114
442.330	1	117
442.501	1	132
442.671	1	133
442.842	1	110
443.012	1	131
443.183	1	137
443.353	1	122
443.524	1	116
443.694	1	121
443.865	1	120
444.035	1	120
444.206	1	119
444.376	1	118
444.547	1	123
444.717	1	125
444.888	1	120
445.058	1	129
445.229	1	122
445.399	1	123
445.570	1	127
445.740	1	117
445.911	1	108
446.081	1	109
446.252	1	109
446.422	1	131
446.593	1	114
446.763	1	137
446.934	1	115
447.104	1	115
447.275	1	128
447.445	1	118
447.616	1	109
447.786	1	121
447.957	1	118
448.127	1	107
448.298	1	114
448.468	1	108
448.639	1	121
448.809	1	123
448.979	1	113
449.150	1	108
449.320	1	103
449.491	1	110
449.661	1	122
449.832	1	116
450.002	1	106
450.173	1	116
450.343	1	124
450.514	1	110
450.684	1	109
450.855	1	113
451.025	1	115
451.196	1	99
451.366	1	110
451.537	1	111
451.707	1	117
451.878	1	106
452.048	1	109
452.218	1	109
452.389	1	119
452.559	1	109
452.730	1	111
452.900	1	118
453.071	1	125
453.241	1	104
453.412	1	118
453.582	1	105
453.753	1	101
453.923	1	108
454.093	1	113
454.264	1	113
454.434	1	116
454.605	1	110
454.775	1	99
454.946	1	107
455.116	1	103
455.287	1	107
455.457	1	119
455.628	1	95
455.798	1	91
455.968	1	95
456.139	1	109
456.309	1	112
456.480	1	109
456.650	1	113
456.821	1	109
456.991	1	103
457.161	1	96
457.332	1	109
457.502	1	102
457.673	1	94
457.843	1	91
458.014	1	110
458.184	1	88
458.355	1	105
458.525	1	99
458.695	1	103
458.866	1	97
459.036	1	105
459.207	1	118
459.377	1	94
459.548	1	104
459.718	1	105
459.888	1	109
460.059	1	96
460.229	1	95
460.400	1	91
460.570	1	97
460.740	1	105
460.911	1	100
461.081	1	86
461.252	1	102
461.422	1	80
461.593	1	93
461.763	1	95
461.933	1	92
462.104	1	99
462.274	1	99
462.445	1	91
462.615	1	98
462.785	1	104
462.956	1	95
463.126	1	100
463.297	1	99
463.467	1	93
463.638	1	93
463.808	1	91
463.978	1	79
464.149	1	91
464.319	1	95
464.490	1	101
464.660	1	100
464.830	1	98
465.001	1	71
465.171	1	83
465.342	1	78
465.512	1	93
465.682	1	96
465.853	1	87
466.023	1	110
466.194	1	83
466.364	1	93
466.534	1	85
466.705	1	85
466.875	1	92
467.045	1	101
467.216	1	89
467.386	1	86
467.557	1	100
467.727	1	90
467.897	1	104
468.068	1	81
468.238	1	91
468.409	1	91
468.579	1	91
468.749	1	98
468.920	1	86
469.090	1	75
469.260	1	90
469.431	1	76
469.601	1	85
469.772	1	85
469.942	1	95
470.112	1	92
470.283	1	84
470.453	1	74
470.623	1	92
470.794	1	80
470.964	1	93
471.135	1	90
471.305	1	80
471.475	1	93
471.646	1	84
471.816	1	83
471.986	1	85
472.157	1	87
472.327	1	85
472.497	1	89
472.668	1	71
472.838	1	72
473.009	1	86
473.179	1	81
473.349	1	79
473.520	1	73
473.690	1	80
473.860	1	74
474.031	1	77
474.201	1	76
474.371	1	93
474.542	1	86
474.712	1	75
474.882	1	75
475.053	1	79
475.223	1	76
475.394	1	76
475.564	1	70
475.734	1	73
475.905	1	79
476.075	1	73
476.245	1	81
476.416	1	74
476.586	1	74
476.756	1	75
476.927	1	72
477.097	1	75
477.267	1	82
477.438	1	68
477.608	1	72
477.778	1	76
477.949	1	76
478.119	1	70
478.289	1	73
478.460	1	77
478.630	1	83
478.800	1	85
478.971	1	74
479.141	1	90
479.311	1	68
479.482	1	57
479.652	1	67
479.822	1	60
479.993	1	79
480.163	1	87
480.333	1	79
480.504	1	73
480.674	1	74
480.844	1	74
481.015	1	69
481.185	1	75
481.355	1	67
481.525	1	55
481.696	1	62
481.866	1	70
482.036	1	69
482.207	1	62
482.377	1	81
482.547	1	70
482.718	1	73
482.888	1	60
483.058	1	73
483.229	1	83
483.399	1	79
483.569	1	48
483.740	1	70
483.910	1	85
484.080	1	76
484.250	1	65
484.421	1	78
484.591	1	81
484.761	1	71
484.932	1	71
485.102	1	58
485.272	1	63
485.443	1	73
485.613	1	68
485.783	1	72
485.953	1	62
486.124	1	66
486.294	1	62
486.464	1	63
486.635	1	56
486.805	1	69
486.975	1	73
487.146	1	65
487.316	1	55
487.486	1	59
487.656	1	69
487.827	1	63
487.997	1	73
488.167	1	78
488.338	1	62
488.508	1	60
488.678	1	62
488.848	1	61
489.019	1	63
489.189	1	53
489.359	1	60
489.529	1	58
489.700	1	55
489.870	1	66
490.040	1	45
490.211	1	60
490.381	1	74
490.551	1	61
490.721	1	70
490.892	1	61
491.062	1	64
491.232	1	61
491.402	1	56
491.573	1	61
491.743	1	52
491.913	1	59
492.084	1	54
492.254	1	65
492.424	1	50
492.594	1	55
492.765	1	62
492.935	1	54
493.105	1	48
493.275	1	64
493.446	1	52
493.616	1	39
493.786	1	61
493.956	1	55
494.127	1	43
494.297	1	55
494.467	1	47
494.637	1	65
494.808	1	49
494.978	1	52
495.148	1	60
495.318	1	58
495.489	1	53
495.659	1	60
495.829	1	61
495.999	1	45
496.170	1	54
496.340	1	55
496.510	1	60
496.680	1	49
496.851	1	58
497.021	1	67
497.191	1	55
497.361	1	63
497.532	1	60
497.702	1	51
497.872	1	46
498.042	1	65
498.213	1	50
498.383	1	62
498.553	1	58
498.723	1	50
498.894	1	60
499.064	1	31
499.234	1	49
499.404	1	56
499.574	1	48
499.745	1	53
499.915	1	50
500.085	1	58
500.255	1	47
500.426	1	54
500.596	1	53
500.766	1	55
500.936	1	53
501.106	1	49
501.277	1	49
501.447	1	45
501.617	1	52
501.787	1	64
501.958	1	43
502.128	1	42
502.298	1	51
502.468	1	57
502.638	1	63
502.809	1	67
502.979	1	58
503.149	1	51
503.319	1	50
503.489	1	50
503.660	1	45
503.830	1	45
504.000	1	54
504.170	1	50
504.340	1	42
504.511	1	49
504.681	1	51
504.851	1	43
505.021	1	48
505.192	1	47
505.362	1	59
505.532	1	50
505.702	1	48
505.872	1	52
506.043	1	33
506.213	1	57
506.383	1	35
506.553	1	52
506.723	1	38
506.893	1	49
507.064	1	50
507.234	1	46
507.404	1	51
507.574	1	51
507.744	1	40
507.915	1	52
508.085	1	42
508.255	1	38
508.425	1	42
508.595	1	36
508.766	1	52
508.936	1	37
509.106	1	40
509.276	1	56
509.446	1	37
509.616	1	46
509.787	1	46
509.957	1	42
510.127	1	59
510.297	1	43
510.467	1	39
510.638	1	27
510.808	1	35
510.978	1	46
511.148	1	38
511.318	1	49
511.488	1	33
511.659	1	34
511.829	1	36
511.999	1	41
512.169	1	33
512.339	1	41
512.509	1	44
512.680	1	47
512.850	1	41
513.020	1	37
513.190	1	37
513.360	1	28
513.530	1	50
513.700	1	35
513.871	1	35
514.041	1	43
514.211	1	50
514.381	1	24
514.551	1	43
514.721	1	41
514.892	1	45
515.062	1	28
515.232	1	38
515.402	1	46
515.572	1	41
515.742	1	37
515.912	1	40
516.083	1	43
516.253	1	39
516.423	1	33
516.593	1	34
516.763	1	44
516.933	1	40
517.104	1	40
517.274	1	31
517.444	1	27
517.614	1	38
517.784	1	39
517.954	1	30
518.124	1	30
518.294	1	36
518.465	1	36
518.635	1	43
518.805	1	39
518.975	1	39
519.145	1	35
519.315	1	37
519.485	1	39
519.656	1	41
519.826	1	44
519.996	1	28
520.166	1	38
520.336	1	47
520.506	1	51
520.676	1	38
520.846	1	43
521.017	1	33
521.187	1	33
521.357	1	38
521.527	1	29
521.697	1	37
521.867	1	26
522.037	1	38
522.207	1	40
522.377	1	29
522.548	1	31
522.718	1	37
522.888	1	27
523.058	1	30
523.228	1	41
523.398	1	37
523.568	1	36
523.738	1	36
523.909	1	34
524.079	1	37
524.249	1	26
524.419	1	27
524.589	1	44
524.759	1	41
524.929	1	28
525.099	1	33
525.269	1	48
525.439	1	26
525.610	1	37
525.780	1	48
525.950	1	40
526.120	1	41
526.290	1	30
526.460	1	42
526.630	1	39
526.800	1	30
526.970	1	32
527.140	1	38
527.311	1	34
527.481	1	30
527.651	1	19
527.821	1	19
527.991	1	33
528.161	1	28
528.331	1	23
528.501	1	34
528.671	1	31
528.841	1	28
529.011	1	31
529.181	1	32
529.352	1	30
529.522	1	12
529.692	1	28
529.862	1	37
530.032	1	27
530.202	1	35
530.372	1	29
530.542	1	27
530.712	1	26
530.882	1	27
531.052	1	28
531.222	1	25
531.392	1	26
531.563	1	23
531.733	1	31
531.903	1	12
532.073	1	28
532.243	1	19
532.413	1	30
532.583	1	21
532.753	1	29
532.923	1	27
533.093	1	26
533.263	1	25
533.433	1	30
533.603	1	30
533.773	1	28
533.943	1	23
534.113	1	30
534.284	1	30
534.454	1	21
534.624	1	22
534.794	1	29
534.964	1	33
535.134	1	24
535.304	1	20
535.474	1	23
535.644	1	28
535.814	1	27
535.984	1	31
536.154	1	29
536.324	1	32
536.494	1	34
536.664	1	3
536.834	1	26
537.004	1	32
537.174	1	14
537.344	1	29
537.514	1	29
537.685	1	30
537.855	1	29
538.025	1	8
538.195	1	33
538.365	1	19
538.535	1	23
538.705	1	23
538.875	1	27
539.045	1	21
539.215	1	36
539.385	1	20
539.555	1	28
539.725	1	22
539.895	1	28
540.065	1	28
540.235	1	11
540.405	1	28
540.575	1	34
540.745	1	25
540.915	1	26
541.085	1	31
541.255	1	21
541.425	1	15
541.595	1	19
541.765	1	27
541.935	1	31
542.105	1	13
542.275	1	23
542.445	1	19
542.615	1	35
542.785	1	24
542.955	1	21
543.125	1	21
543.295	1	23
543.465	1	15
543.635	1	13
543.805	1	23
543.975	1	23
544.145	1	25
544.315	1	16
544.485	1	15
544.655	1	17
544.825	1	18
544.995	1	25
545.165	1	35
545.335	1	19
545.505	1	20
545.675	1	31
545.845	1	13
546.015	1	26
546.185	1	27
546.355	1	15
546.525	1	15
546.695	1	30
546.865	1	10
547.035	1	26
547.205	1	20
547.375	1	32
547.545	1	17
547.715	1	20
547.885	1	26
548.055	1	23
548.225	1	19
548.395	1	30
548.565	1	24
548.735	1	27
548.905	1	21
549.075	1	18
549.245	1	25
549.415	1	22
549.585	1	26
549.755	1	19
549.925	1	14
550.095	1	16
550.265	1	12
550.435	1	21
550.605	1	26
550.775	1	21
550.945	1	7
551.115	1	13
551.285	1	29
551.455	1	18
551.625	1	21
551.795	1	30
551.965	1	22
552.135	1	4
552.305	1	18
552.475	1	25
552.645	1	28
552.815	1	20
552.985	1	12
553.155	1	11
553.325	1	19
553.495	1	22
553.665	1	26
553.835	1	12
554.004	1	20
554.174	1	14
554.344	1	19
554.514	1	20
554.684	1	9
554.854	1	11
555.024	1	25
555.194	1	17
555.364	1	29
555.534	1	29
555.704	1	14
555.874	1	33
556.044	1	15
556.214	1	7
556.384	1	30
556.554	1	9
556.724	1	17
556.894	1	16
557.064	1	26
557.234	1	11
557.404	1	19
557.573	1	22
557.743	1	19
557.913	1	18
558.083	1	9
558.253	1	6
558.423	1	21
558.593	1	19
558.763	1	15
558.933	1	22
559.103	1	9
559.273	1	25
559.443	1	5
559.613	1	12
559.783	1	14
559.953	1	17
560.122	1	11
560.292	1	17
560.462	1	15
560.632	1	19
560.802	1	17
560.972	1	18
561.142	1	20
561.312	1	26
561.482	1	15
561.652	1	18
561.822	1	12
561.992	1	19
562.162	1	12
562.331	1	12
562.501	1	3
562.671	1	23
562.841	1	19
563.011	1	26
563.181	1	34
563.351	1	11
563.521	1	22
563.691	1	9
563.861	1	20
564.031	1	6
564.201	1	20
564.370	1	27
564.540	1	28
564.710	1	33
564.880	1	24
565.050	1	2
565.220	1	7
565.390	1	19
565.560	1	26
565.730	1	18
565.900	1	6
566.069	1	22
566.239	1	10
566.409	1	18
566.579	1	22
566.749	1	26
566.919	1	13
567.089	1	9
567.259	1	13
567.429	1	23
567.599	1	15
567.768	1	18
567.938	1	5
568.108	1	17
568.278	1	24
568.448	1	23
568.618	1	15
568.788	1	11
568.958	1	31
569.128	1	17
569.297	1	8
569.467	1	23
569.637	1	9
569.807	1	12
569.977	1	20
570.147	1	13
570.317	1	31
570.487	1	14
570.656	1	12
570.826	1	29
570.996	1	24
571.166	1	15
571.336	1	12
571.506	1	8
571.676	1	24
571.846	1	9
572.015	1	14
572.185	1	13
572.355	1	15
572.525	1	11
572.695	1	19
572.865	1	15
573.035	1	18
573.205	1	-4
573.374	1	14
573.544	1	10
573.714	1	20
573.884	1	26
574.054	1	20
574.224	1	18
574.394	1	15
574.563	1	18
574.733	1	12
574.903	1	19
575.073	1	15
575.243	1	6
575.413	1	17
575.583	1	14
575.752	1	16
575.922	1	16
576.092	1	19
576.262	1	28
576.432	1	21
576.602	1	0
576.772	1	6
576.941	1	18
577.111	1	20
577.281	1	26
577.451	1	23
577.621	1	15
577.791	1	-1
577.960	1	27
578.130	1	10
578.300	1	18
578.470	1	16
578.640	1	11
578.810	1	17
578.979	1	17
579.149	1	10
579.319	1	15
579.489	1	17
579.659	1	4
579.829	1	12
579.998	1	7
580.168	1	14
580.338	1	14
580.508	1	10
580.678	1	8
580.848	1	5
581.017	1	29
581.187	1	5
581.357	1	14
581.527	1	11
581.697	1	14
581.867	1	0
582.036	1	22
582.206	1	9
582.376	1	21
582.546	1	9
582.716	1	18
582.885	1	15
583.055	1	12
583.225	1	7
583.395	1	18
583.565	1	15
583.735	1	16
583.904	1	6
584.074	1	20
584.244	1	18
584.414	1	18
584.584	1	8
584.753	1	20
584.923	1	15
585.093	1	13
585.263	1	17
585.433	1	17
585.602	1	18
585.772	1	7
585.942	1	9
586.112	1	13
586.282	1	21
586.451	1	12
586.621	1	13
586.791	1	22
586.961	1	7
587.131	1	18
587.300	1	6
587.470	1	11
587.640	1	10
587.810	1	4
587.980	1	19
588.149	1	16
588.319	1	20
588.489	1	24
588.659	1	2
588.829	1	12
588.998	1	24
589.168	1	8
589.338	1	16
589.508	1	16
589.677	1	15
589.847	1	17
590.017	1	13
590.187	1	10
590.357	1	11
590.526	1	22
590.696	1	17
590.866	1	21
591.036	1	13
591.205	1	7
591.375	1	10
591.545	1	18
591.715	1	24
591.885	1	12
592.054	1	15
592.224	1	20
592.394	1	10
592.564	1	13
592.733	1	30
592.903	1	16
593.073	1	12
593.243	1	12
593.412	1	16
593.582	1	21
593.752	1	24
593.922	1	4
594.091	1	23
594.261	1	4
594.431	1	12
594.601	1	5
594.771	1	16
594.940	1	20
595.110	1	23
595.280	1	8
595.450	1	18
595.619	1	11
595.789	1	17
595.959	1	6
596.129	1	12
596.298	1	18
596.468	1	12
596.638	1	28
596.808	1	23
596.977	1	21
597.147	1	16
597.317	1	13
597.487	1	11
597.656	1	6
597.826	1	11
597.996	1	15
598.166	1	6
598.335	1	29
598.505	1	16
598.675	1	3
598.844	1	14
599.014	1	15
599.184	1	23
599.354	1	5
599.523	1	11
599.693	1	15
599.863	1	17
600.033	1	17
600.202	1	7
600.372	1	14
600.542	1	17
600.712	1	23
600.881	1	12
601.051	1	15
601.221	1	11
601.390	1	13
601.560	1	12
601.730	1	18
601.900	1	4
602.069	1	19
602.239	1	0
602.409	1	25
602.578	1	9
602.748	1	18
602.918	1	9
603.088	1	14
603.257	1	22
603.427	1	19
603.597	1	8
603.767	1	17
603.936	1	13
604.106	1	15
604.276	1	18
604.445	1	10
604.615	1	7
604.785	1	8
604.954	1	18
605.124	1	8
605.294	1	10
605.464	1	27
605.633	1	27
605.803	1	13
605.973	1	10
606.142	1	19
606.312	1	10
606.482	1	9
606.652	1	22
606.821	1	18
606.991	1	11
607.161	1	32
607.330	1	13
607.500	1	15
607.670	1	10
607.839	1	15
608.009	1	10
608.179	1	18
608.348	1	28
608.518	1	15
608.688	1	23
608.858	1	6
609.027	1	22
609.197	1	24
609.367	1	17
609.536	1	12
609.706	1	16
609.876	1	10
610.045	1	14
610.215	1	14
610.385	1	33
610.554	1	20
610.724	1	22
610.894	1	25
611.063	1	5
611.233	1	21
611.403	1	19
611.572	1	24
611.742	1	7
611.912	1	12
612.081	1	24
612.251	1	26
612.421	1	19
612.590	1	7
612.760	1	13
612.930	1	8
613.099	1	25
613.269	1	19
613.439	1	31
613.608	1	25
613.778	1	17
613.948	1	17
614.117	1	15
614.287	1	18
614.457	1	11
614.626	1	13
614.796	1	16
614.966	1	16
615.135	1	17
615.305	1	20
615.475	1	18
615.644	1	24
615.814	1	14
615.984	1	7
616.153	1	15
616.323	1	14
616.493	1	16
616.662	1	24
616.832	1	15
617.002	1	25
617.171	1	22
617.341	1	21
617.511	1	18
617.680	1	23
617.850	1	12
618.019	1	19
618.189	1	17
618.359	1	14
618.528	1	26
618.698	1	13
618.868	1	32
619.037	1	16
619.207	1	21
619.377	1	13
619.546	1	11
619.716	1	13
619.885	1	30
620.055	1	25
620.225	1	27
620.394	1	19
620.564	1	29
620.734	1	12
620.903	1	15
621.073	1	17
621.242	1	18
621.412	1	19
621.582	1	16
621.751	1	14
621.921	1	18
622.091	1	23
622.260	1	21
622.430	1	23
622.599	1	22
622.769	1	19
622.939	1	25
623.108	1	23
623.278	1	22
623.448	1	15
623.617	1	19
623.787	1	24
623.956	1	13
624.126	1	30
624.296	1	29
624.465	1	17
624.635	1	24
624.804	1	15
624.974	1	26
625.144	1	19
625.313	1	19
625.483	1	16
625.652	1	24
625.822	1	18
625.992	1	10
626.161	1	10
626.331	1	20
626.501	1	23
626.670	1	18
626.840	1	5
627.009	1	9
627.179	1	23
627.348	1	22
627.518	1	32
627.688	1	18
627.857	1	18
628.027	1	21
628.196	1	21
628.366	1	17
628.536	1	9
628.705	1	20
628.875	1	20
629.044	1	17
629.214	1	14
629.384	1	22
629.553	1	34
629.723	1	35
629.892	1	22
630.062	1	32
630.232	1	18
630.401	1	13
630.571	1	24
630.740	1	15
630.910	1	25
631.079	1	24
631.249	1	21
631.419	1	27
631.588	1	5
631.758	1	8
631.927	1	20
632.097	1	33
632.266	1	19
632.436	1	17
632.606	1	28
632.775	1	22
632.945	1	10
633.114	1	16
633.284	1	16
633.453	1	21
633.623	1	25
633.793	1	17
633.962	1	8
634.132	1	29
634.301	1	26
634.471	1	19
634.640	1	24
634.810	1	28
634.979	1	35
635.149	1	21
635.319	1	26
635.488	1	34
635.658	1	5
635.827	1	27
635.997	1	23
636.166	1	19
636.336	1	16
636.505	1	27
636.675	1	16
636.845	1	29
637.014	1	20
637.184	1	20
637.353	1	28
637.523	1	23
637.692	1	26
637.862	1	3
638.031	1	20
638.201	1	29
638.370	1	29
638.540	1	21
638.710	1	29
638.879	1	19
639.049	1	25
639.218	1	12
639.388	1	33
639.557	1	22
639.727	1	22
639.896	1	22
640.066	1	18
640.235	1	32
640.405	1	28
640.574	1	23
640.744	1	24
640.914	1	37
641.083	1	15
641.253	1	12
641.422	1	26
641.592	1	28
641.761	1	32
641.931	1	25
642.100	1	37
642.270	1	23
642.439	1	20
642.609	1	34
642.778	1	31
642.948	1	16
643.117	1	34
643.287	1	29
643.456	1	16
643.626	1	29
643.795	1	30
643.965	1	35
644.134	1	30
644.304	1	33
644.473	1	19
644.643	1	26
644.812	1	19
644.982	1	21
645.151	1	21
645.321	1	19
645.490	1	20
645.660	1	26
645.829	1	27
645.999	1	45
646.168	1	27
646.338	1	34
646.507	1	16
646.677	1	30
646.846	1	37
647.016	1	24
647.185	1	29
647.355	1	30
647.524	1	24
647.694	1	29
647.863	1	26
648.033	1	18
648.202	1	23
648.372	1	17
648.541	1	27
648.711	1	24
648.880	1	24
649.050	1	30
649.219	1	20
649.389	1	30
649.558	1	27
649.728	1	28
649.897	1	20
650.067	1	18
650.236	1	44
650.406	1	8
650.575	1	20
650.745	1	35
650.914	1	32
651.084	1	29
651.253	1	30
651.423	1	24
651.592	1	26
651.762	1	26
651.931	1	27
652.101	1	24
652.270	1	24
652.440	1	24
652.609	1	32
652.778	1	32
652.948	1	28
653.117	1	52
653.287	1	25
653.456	1	27
653.626	1	31
653.795	1	17
653.965	1	35
654.134	1	38
654.304	1	28
654.473	1	40
654.643	1	39
654.812	1	28
654.982	1	36
655.151	1	32
655.320	1	32
655.490	1	23
655.659	1	22
655.829	1	27
655.998	1	28
656.168	1	21
656.337	1	37
656.507	1	25
656.676	1	32
656.846	1	24
657.015	1	44
657.184	1	28
657.354	1	32
657.523	1	27
657.693	1	25
657.862	1	40
658.032	1	14
658.201	1	20
658.371	1	29
658.540	1	38
658.709	1	35
658.879	1	7
659.048	1	26
659.218	1	22
659.387	1	27
659.557	1	31
659.726	1	34
659.895	1	24
660.065	1	29
660.234	1	34
660.404	1	44
660.573	1	31
660.743	1	32
660.912	1	41
661.081	1	19
661.251	1	30
661.420	1	25
661.590	1	40
661.759	1	32
661.929	1	36
662.098	1	29
662.267	1	33
662.437	1	34
662.606	1	26
662.776	1	27
662.945	1	45
663.115	1	20
663.284	1	20
663.453	1	30
663.623	1	33
663.792	1	21
663.962	1	32
664.131	1	20
664.300	1	29
664.470	1	23
664.639	1	26
664.809	1	35
664.978	1	40
665.148	1	40
665.317	1	25
665.486	1	36
665.656	1	27
665.825	1	24
665.995	1	37
666.164	1	38
666.333	1	30
666.503	1	48
666.672	1	23
666.842	1	11
667.011	1	34
667.180	1	32
667.350	1	41
667.519	1	33
667.689	1	39
667.858	1	48
668.027	1	29
668.197	1	36
668.366	1	37
668.536	1	36
668.705	1	41
668.874	1	39
669.044	1	37
669.213	1	35
669.382	1	44
669.552	1	33
669.721	1	34
669.891	1	24
670.060	1	22
670.229	1	45
670.399	1	37
670.568	1	40
670.738	1	26
670.907	1	37
671.076	1	37
671.246	1	29
671.415	1	32
671.584	1	28
671.754	1	46
671.923	1	24
672.093	1	42
672.262	1	32
672.431	1	35
672.601	1	34
672.770	1	37
672.939	1	33
673.109	1	38
673.278	1	45
673.448	1	30
673.617	1	31
673.786	1	25
