325.333	1	14
325.504	1	16
325.675	1	11
325.846	1	5
326.017	1	17
326.188	1	21
326.359	1	18
326.531	1	10
326.702	1	25
326.873	1	19
327.044	1	15
327.215	1	13
327.386	1	-1
327.557	1	33
327.728	1	6
327.899	1	14
328.070	1	26
328.241	1	20
328.412	1	7
328.583	1	24
328.754	1	6
328.926	1	11
329.097	1	17
329.268	1	19
329.439	1	20
329.610	1	23
329.781	1	23
329.952	1	23
330.123	1	16
330.294	1	20
330.465	1	24
330.636	1	19
330.807	1	11
330.978	1	27
331.149	1	23
331.320	1	19
331.492	1	24
331.663	1	15
331.834	1	22
332.005	1	22
332.176	1	26
332.347	1	24
332.518	1	22
332.689	1	31
332.860	1	9
333.031	1	25
333.202	1	33
333.373	1	23
333.544	1	20
333.715	1	32
333.886	1	17
334.057	1	28
334.228	1	31
334.399	1	20
334.570	1	45
334.741	1	30
334.912	1	33
335.084	1	34
335.255	1	34
335.426	1	18
335.597	1	26
335.768	1	30
335.939	1	19
336.110	1	31
336.281	1	35
336.452	1	28
336.623	1	33
336.794	1	23
336.965	1	22
337.136	1	31
337.307	1	35
337.478	1	23
337.649	1	29
337.820	1	28
337.991	1	27
338.162	1	33
338.333	1	31
338.504	1	25
338.675	1	28
338.846	1	36
339.017	1	30
339.188	1	31
339.359	1	29
339.530	1	28
339.701	1	32
339.872	1	46
340.043	1	42
340.214	1	36
340.385	1	40
340.556	1	32
340.727	1	42
340.898	1	24
341.069	1	41
341.240	1	43
341.411	1	43
341.582	1	40
341.753	1	36
341.924	1	39
342.095	1	30
342.266	1	26
342.437	1	32
342.608	1	28
342.779	1	35
342.950	1	40
343.121	1	42
343.292	1	33
343.463	1	47
343.634	1	42
343.805	1	42
343.976	1	38
344.147	1	37
344.318	1	41
344.489	1	39
344.660	1	49
344.831	1	36
345.002	1	42
345.173	1	41
345.344	1	37
345.515	1	44
345.686	1	36
345.857	1	45
346.028	1	47
346.199	1	41
346.370	1	39
346.541	1	59
346.712	1	36
346.883	1	50
347.054	1	33
347.225	1	37
347.396	1	41
347.567	1	44
347.738	1	49
347.909	1	52
348.080	1	31
348.251	1	35
348.422	1	49
348.593	1	46
348.764	1	49
348.935	1	47
349.106	1	45
349.277	1	54
349.448	1	42
349.619	1	39
349.790	1	53
349.961	1	43
350.132	1	49
350.303	1	54
350.474	1	43
350.645	1	40
350.816	1	61
350.987	1	42
351.157	1	48
351.328	1	51
351.499	1	50
351.670	1	42
351.841	1	48
352.012	1	57
352.183	1	39
352.354	1	50
352.525	1	38
352.696	1	53
352.867	1	52
353.038	1	55
353.209	1	55
353.380	1	49
353.551	1	57
353.722	1	53
353.893	1	47
354.064	1	49
354.235	1	52
354.406	1	53
354.576	1	57
354.747	1	58
354.918	1	58
355.089	1	65
355.260	1	59
355.431	1	63
355.602	1	58
355.773	1	49
355.944	1	55
356.115	1	49
356.286	1	55
356.457	1	56
356.628	1	65
356.799	1	54
356.970	1	39
357.141	1	63
357.311	1	58
357.482	1	49
357.653	1	48
357.824	1	64
357.995	1	61
358.166	1	72
358.337	1	55
358.508	1	53
358.679	1	47
358.850	1	50
359.021	1	69
359.192	1	54
359.363	1	54
359.533	1	59
359.704	1	67
359.875	1	74
360.046	1	42
360.217	1	72
360.388	1	56
360.559	1	55
360.730	1	49
360.901	1	64
361.072	1	59
361.243	1	54
361.414	1	66
361.584	1	70
361.755	1	60
361.926	1	50
362.097	1	62
362.268	1	67
362.439	1	52
362.610	1	47
362.781	1	67
362.952	1	73
363.123	1	80
363.293	1	63
363.464	1	64
363.635	1	74
363.806	1	73
363.977	1	63
364.148	1	56
364.319	1	55
364.490	1	59
364.661	1	72
364.832	1	60
365.002	1	67
365.173	1	64
365.344	1	65
365.515	1	65
365.686	1	62
365.857	1	75
366.028	1	61
366.199	1	66
366.370	1	74
366.540	1	70
366.711	1	68
366.882	1	63
367.053	1	65
367.224	1	59
367.395	1	60
367.566	1	75
367.737	1	76
367.908	1	55
368.078	1	74
368.249	1	75
368.420	1	63
368.591	1	72
368.762	1	68
368.933	1	59
369.104	1	82
369.274	1	64
369.445	1	75
369.616	1	72
369.787	1	70
369.958	1	74
370.129	1	65
370.300	1	71
370.471	1	73
370.641	1	57
370.812	1	63
370.983	1	68
371.154	1	75
371.325	1	72
371.496	1	69
371.667	1	82
371.837	1	74
372.008	1	72
372.179	1	64
372.350	1	71
372.521	1	69
372.692	1	75
372.863	1	79
373.033	1	74
373.204	1	70
373.375	1	77
373.546	1	84
373.717	1	60
373.888	1	64
374.059	1	69
374.229	1	75
374.400	1	70
374.571	1	78
374.742	1	67
374.913	1	55
375.084	1	72
375.254	1	88
375.425	1	69
375.596	1	71
375.767	1	67
375.938	1	74
376.109	1	61
376.279	1	77
376.450	1	75
376.621	1	80
376.792	1	70
376.963	1	73
377.134	1	74
377.304	1	64
377.475	1	69
377.646	1	67
377.817	1	57
377.988	1	71
378.159	1	71
378.329	1	75
378.500	1	73
378.671	1	73
378.842	1	66
379.013	1	71
379.184	1	79
379.354	1	77
379.525	1	78
379.696	1	67
379.867	1	74
380.038	1	75
380.209	1	73
380.379	1	74
380.550	1	74
380.721	1	83
380.892	1	75
381.063	1	73
381.233	1	71
381.404	1	84
381.575	1	79
381.746	1	85
381.917	1	77
382.087	1	79
382.258	1	75
382.429	1	76
382.600	1	82
382.771	1	99
382.941	1	83
383.112	1	74
383.283	1	92
383.454	1	76
383.625	1	83
383.795	1	83
383.966	1	76
384.137	1	95
384.308	1	89
384.479	1	77
384.649	1	86
384.820	1	83
384.991	1	83
385.162	1	84
385.333	1	83
385.503	1	78
385.674	1	82
385.845	1	85
386.016	1	90
386.187	1	81
386.357	1	94
386.528	1	74
386.699	1	82
386.870	1	80
387.041	1	83
387.211	1	87
387.382	1	96
387.553	1	76
387.724	1	69
387.894	1	79
388.065	1	85
388.236	1	88
388.407	1	97
388.578	1	82
388.748	1	101
388.919	1	98
389.090	1	94
389.261	1	88
389.431	1	89
389.602	1	79
389.773	1	90
389.944	1	83
390.114	1	103
390.285	1	91
390.456	1	82
390.627	1	87
390.798	1	99
390.968	1	94
391.139	1	81
391.310	1	108
391.481	1	82
391.651	1	98
391.822	1	95
391.993	1	81
392.164	1	84
392.334	1	84
392.505	1	76
392.676	1	99
392.847	1	82
393.017	1	98
393.188	1	87
393.359	1	88
393.530	1	89
393.700	1	94
393.871	1	87
394.042	1	79
394.213	1	101
394.383	1	95
394.554	1	90
394.725	1	101
394.896	1	103
395.066	1	90
395.237	1	91
395.408	1	94
395.579	1	92
395.749	1	101
395.920	1	97
396.091	1	80
396.262	1	86
396.432	1	87
396.603	1	94
396.774	1	98
396.945	1	96
397.115	1	116
397.286	1	95
397.457	1	100
397.627	1	91
397.798	1	88
397.969	1	93
398.140	1	89
398.310	1	100
398.481	1	86
398.652	1	108
398.823	1	93
398.993	1	85
399.164	1	89
399.335	1	101
399.505	1	92
399.676	1	95
399.847	1	103
400.018	1	95
400.188	1	86
400.359	1	98
400.530	1	101
400.700	1	90
400.871	1	104
401.042	1	95
401.213	1	85
401.383	1	101
401.554	1	86
401.725	1	107
401.895	1	105
402.066	1	100
402.237	1	98
402.408	1	110
402.578	1	105
402.749	1	93
402.920	1	101
403.090	1	92
403.261	1	98
403.432	1	103
403.603	1	99
403.773	1	118
403.944	1	103
404.115	1	99
404.285	1	97
404.456	1	110
404.627	1	90
404.797	1	89
404.968	1	118
405.139	1	92
405.310	1	105
405.480	1	104
405.651	1	101
405.822	1	104
405.992	1	101
406.163	1	99
406.334	1	100
406.504	1	95
406.675	1	99
406.846	1	93
407.016	1	81
407.187	1	106
407.358	1	99
407.528	1	92
407.699	1	107
407.870	1	85
408.041	1	108
408.211	1	90
408.382	1	104
408.553	1	98
408.723	1	104
408.894	1	86
409.065	1	106
409.235	1	104
409.406	1	98
409.577	1	103
409.747	1	104
409.918	1	92
410.089	1	108
410.259	1	109
410.430	1	110
410.601	1	102
410.771	1	108
410.942	1	106
411.113	1	101
411.283	1	112
411.454	1	92
411.625	1	109
411.795	1	99
411.966	1	112
412.137	1	105
412.307	1	106
412.478	1	106
412.649	1	83
412.819	1	102
412.990	1	101
413.161	1	113
413.331	1	111
413.502	1	105
413.672	1	107
413.843	1	113
414.014	1	116
414.184	1	103
414.355	1	113
414.526	1	103
414.696	1	111
414.867	1	114
415.038	1	89
415.208	1	119
415.379	1	105
415.550	1	105
415.720	1	106
415.891	1	88
416.062	1	100
416.232	1	94
416.403	1	95
416.573	1	109
416.744	1	87
416.915	1	109
417.085	1	97
417.256	1	109
417.427	1	113
417.597	1	92
417.768	1	97
417.939	1	105
418.109	1	97
418.280	1	96
418.450	1	99
418.621	1	103
418.792	1	89
418.962	1	92
419.133	1	94
419.304	1	92
419.474	1	88
419.645	1	95
419.815	1	94
419.986	1	97
420.157	1	92
420.327	1	95
420.498	1	93
420.669	1	100
420.839	1	99
421.010	1	95
421.180	1	94
421.351	1	93
421.522	1	84
421.692	1	98
421.863	1	93
422.033	1	103
422.204	1	97
422.375	1	85
422.545	1	106
422.716	1	90
422.886	1	93
423.057	1	84
423.228	1	91
423.398	1	102
423.569	1	94
423.740	1	97
423.910	1	95
424.081	1	97
424.251	1	91
424.422	1	108
424.593	1	86
424.763	1	102
424.934	1	90
425.104	1	97
425.275	1	91
425.445	1	98
425.616	1	100
425.787	1	91
425.957	1	90
426.128	1	88
426.298	1	94
426.469	1	96
426.640	1	105
426.810	1	85
426.981	1	101
427.151	1	102
427.322	1	92
427.493	1	86
427.663	1	82
427.834	1	92
428.004	1	93
428.175	1	82
428.345	1	85
428.516	1	98
428.687	1	98
428.857	1	78
429.028	1	99
429.198	1	90
429.369	1	88
429.540	1	76
429.710	1	96
429.881	1	88
430.051	1	88
430.222	1	86
430.392	1	93
430.563	1	91
430.734	1	85
430.904	1	90
431.075	1	86
431.245	1	86
431.416	1	87
431.586	1	78
431.757	1	95
431.927	1	86
432.098	1	100
432.269	1	88
432.439	1	89
432.610	1	98
432.780	1	87
432.951	1	82
433.121	1	83
433.292	1	78
433.462	1	87
433.633	1	83
433.804	1	93
433.974	1	79
434.145	1	84
434.315	1	74
434.486	1	90
434.656	1	86
434.827	1	80
434.997	1	86
435.168	1	90
435.339	1	83
435.509	1	83
435.680	1	82
435.850	1	80
436.021	1	90
436.191	1	91
436.362	1	90
436.532	1	85
436.703	1	83
436.873	1	95
437.044	1	76
437.214	1	94
437.385	1	91
437.556	1	79
437.726	1	85
437.897	1	76
438.067	1	69
438.238	1	75
438.408	1	88
438.579	1	100
438.749	1	82
438.920	1	89
439.090	1	89
439.261	1	87
439.431	1	83
439.602	1	90
439.772	1	94
439.943	1	80
440.113	1	73
440.284	1	83
440.455	1	91
440.625	1	90
440.796	1	84
440.966	1	69
441.137	1	83
441.307	1	84
441.478	1	77
441.648	1	79
441.819	1	89
441.989	1	83
442.160	1	75
442.330	1	81
442.501	1	79
442.671	1	73
442.842	1	80
443.012	1	91
443.183	1	76
443.353	1	85
443.524	1	69
443.694	1	87
443.865	1	69
444.035	1	80
444.206	1	72
444.376	1	73
444.547	1	79
444.717	1	76
444.888	1	72
445.058	1	83
445.229	1	71
445.399	1	87
445.570	1	81
445.740	1	88
445.911	1	64
446.081	1	72
446.252	1	77
446.422	1	78
446.593	1	67
446.763	1	90
446.934	1	71
447.104	1	67
447.275	1	67
447.445	1	73
447.616	1	64
447.786	1	95
447.957	1	73
448.127	1	75
448.298	1	68
448.468	1	69
448.639	1	90
448.809	1	82
448.979	1	66
449.150	1	72
449.320	1	62
449.491	1	66
449.661	1	65
449.832	1	63
450.002	1	61
450.173	1	59
450.343	1	92
450.514	1	70
450.684	1	69
450.855	1	84
451.025	1	69
451.196	1	58
451.366	1	73
451.537	1	71
451.707	1	76
451.878	1	61
452.048	1	71
452.218	1	69
452.389	1	81
452.559	1	79
452.730	1	70
452.900	1	76
453.071	1	73
453.241	1	60
453.412	1	74
453.582	1	80
453.753	1	68
453.923	1	72
454.093	1	73
454.264	1	74
454.434	1	79
454.605	1	77
454.775	1	61
454.946	1	73
455.116	1	62
455.287	1	72
455.457	1	76
455.628	1	68
455.798	1	64
455.968	1	70
456.139	1	69
456.309	1	75
456.480	1	60
456.650	1	56
456.821	1	70
456.991	1	56
457.161	1	72
457.332	1	74
457.502	1	69
457.673	1	72
457.843	1	61
458.014	1	61
458.184	1	66
458.355	1	65
458.525	1	67
458.695	1	69
458.866	1	57
459.036	1	65
459.207	1	62
459.377	1	64
459.548	1	70
459.718	1	56
459.888	1	67
460.059	1	66
460.229	1	62
460.400	1	59
460.570	1	70
460.740	1	58
460.911	1	66
461.081	1	62
461.252	1	64
461.422	1	56
461.593	1	58
461.763	1	62
461.933	1	66
462.104	1	52
462.274	1	62
462.445	1	59
462.615	1	59
462.785	1	52
462.956	1	55
463.126	1	73
463.297	1	56
463.467	1	64
463.638	1	53
463.808	1	53
463.978	1	61
464.149	1	60
464.319	1	58
464.490	1	61
464.660	1	63
464.830	1	50
465.001	1	46
465.171	1	54
465.342	1	52
465.512	1	58
465.682	1	59
465.853	1	70
466.023	1	69
466.194	1	54
466.364	1	51
466.534	1	49
466.705	1	59
466.875	1	54
467.045	1	65
467.216	1	56
467.386	1	61
467.557	1	60
467.727	1	57
467.897	1	65
468.068	1	57
468.238	1	55
468.409	1	67
468.579	1	52
468.749	1	57
468.920	1	68
469.090	1	47
469.260	1	65
469.431	1	51
469.601	1	56
469.772	1	48
469.942	1	58
470.112	1	59
470.283	1	54
470.453	1	59
470.623	1	58
470.794	1	51
470.964	1	57
471.135	1	57
471.305	1	54
471.475	1	60
471.646	1	49
471.816	1	62
471.986	1	49
472.157	1	51
472.327	1	47
472.497	1	64
472.668	1	49
472.838	1	44
473.009	1	55
473.179	1	57
473.349	1	37
473.520	1	42
473.690	1	49
473.860	1	55
474.031	1	42
474.201	1	52
474.371	1	62
474.542	1	54
474.712	1	47
474.882	1	44
475.053	1	45
475.223	1	42
475.394	1	40
475.564	1	54
475.734	1	44
475.905	1	49
476.075	1	37
476.245	1	51
476.416	1	50
476.586	1	58
476.756	1	42
476.927	1	52
477.097	1	51
477.267	1	56
477.438	1	41
477.608	1	47
477.778	1	52
477.949	1	61
478.119	1	45
478.289	1	42
478.460	1	49
478.630	1	56
478.800	1	48
478.971	1	46
479.141	1	49
479.311	1	45
479.482	1	38
479.652	1	50
479.822	1	45
479.993	1	50
480.163	1	47
480.333	1	52
480.504	1	56
480.674	1	37
480.844	1	47
481.015	1	53
481.185	1	52
481.355	1	41
481.525	1	42
481.696	1	44
481.866	1	40
482.036	1	47
482.207	1	51
482.377	1	39
482.547	1	39
482.718	1	37
482.888	1	50
483.058	1	46
483.229	1	46
483.399	1	41
483.569	1	33
483.740	1	47
483.910	1	54
484.080	1	53
484.250	1	45
484.421	1	52
484.591	1	44
484.761	1	42
484.932	1	50
485.102	1	42
485.272	1	39
485.443	1	42
485.613	1	27
485.783	1	43
485.953	1	35
486.124	1	48
486.294	1	41
486.464	1	54
486.635	1	35
486.805	1	40
486.975	1	45
487.146	1	42
487.316	1	31
487.486	1	40
487.656	1	50
487.827	1	42
487.997	1	44
488.167	1	42
488.338	1	49
488.508	1	39
488.678	1	44
488.848	1	48
489.019	1	34
489.189	1	34
489.359	1	39
489.529	1	30
489.700	1	43
489.870	1	35
490.040	1	34
490.211	1	34
490.381	1	57
490.551	1	29
490.721	1	51
490.892	1	51
491.062	1	39
491.232	1	42
491.402	1	39
491.573	1	40
491.743	1	28
491.913	1	45
492.084	1	35
492.254	1	50
492.424	1	37
492.594	1	29
492.765	1	35
492.935	1	38
493.105	1	38
493.275	1	33
493.446	1	40
493.616	1	21
493.786	1	33
493.956	1	30
494.127	1	33
494.297	1	43
494.467	1	34
494.637	1	45
494.808	1	32
494.978	1	21
495.148	1	41
495.318	1	39
495.489	1	39
495.659	1	37
495.829	1	45
495.999	1	37
496.170	1	47
496.340	1	28
496.510	1	42
496.680	1	37
496.851	1	44
497.021	1	45
497.191	1	33
497.361	1	41
497.532	1	35
497.702	1	32
497.872	1	32
498.042	1	46
498.213	1	26
498.383	1	41
498.553	1	33
498.723	1	22
498.894	1	41
499.064	1	33
499.234	1	28
499.404	1	37
499.574	1	36
499.745	1	30
499.915	1	33
500.085	1	29
500.255	1	32
500.426	1	30
500.596	1	39
500.766	1	27
500.936	1	37
501.106	1	30
501.277	1	28
501.447	1	30
501.617	1	22
501.787	1	37
501.958	1	30
502.128	1	30
502.298	1	36
502.468	1	37
502.638	1	41
502.809	1	40
502.979	1	36
503.149	1	31
503.319	1	32
503.489	1	29
503.660	1	39
503.830	1	32
504.000	1	37
504.170	1	33
504.340	1	25
504.511	1	31
504.681	1	30
504.851	1	35
505.021	1	31
505.192	1	37
505.362	1	36
505.532	1	40
505.702	1	30
505.872	1	35
506.043	1	26
506.213	1	32
506.383	1	20
506.553	1	33
506.723	1	30
506.893	1	19
507.064	1	30
507.234	1	26
507.404	1	37
507.574	1	23
507.744	1	30
507.915	1	31
508.085	1	25
508.255	1	28
508.425	1	16
508.595	1	22
508.766	1	33
508.936	1	25
509.106	1	23
509.276	1	37
509.446	1	13
509.616	1	36
509.787	1	37
509.957	1	24
510.127	1	31
510.297	1	27
510.467	1	22
510.638	1	17
510.808	1	28
510.978	1	24
511.148	1	11
511.318	1	44
511.488	1	31
511.659	1	12
511.829	1	22
511.999	1	26
512.169	1	16
512.339	1	24
512.509	1	31
512.680	1	26
512.850	1	27
513.020	1	34
513.190	1	30
513.360	1	23
513.530	1	25
513.700	1	26
513.871	1	28
514.041	1	33
514.211	1	38
514.381	1	23
514.551	1	38
514.721	1	25
514.892	1	15
515.062	1	23
515.232	1	22
515.402	1	27
515.572	1	24
515.742	1	14
515.912	1	26
516.083	1	18
516.253	1	14
516.423	1	22
516.593	1	23
516.763	1	24
516.933	1	17
517.104	1	29
517.274	1	20
517.444	1	27
517.614	1	33
517.784	1	27
517.954	1	11
518.124	1	25
518.294	1	33
518.465	1	24
518.635	1	16
518.805	1	23
518.975	1	22
519.145	1	20
519.315	1	31
519.485	1	17
519.656	1	18
519.826	1	27
519.996	1	22
520.166	1	21
520.336	1	27
520.506	1	25
520.676	1	14
520.846	1	21
521.017	1	14
521.187	1	18
521.357	1	16
521.527	1	17
521.697	1	13
521.867	1	16
522.037	1	21
522.207	1	15
522.377	1	15
522.548	1	15
522.718	1	30
522.888	1	13
523.058	1	16
523.228	1	28
523.398	1	15
523.568	1	18
523.738	1	20
523.909	1	19
524.079	1	30
524.249	1	6
524.419	1	16
524.589	1	30
524.759	1	17
524.929	1	22
525.099	1	22
525.269	1	24
525.439	1	22
525.610	1	27
525.780	1	31
525.950	1	19
526.120	1	19
526.290	1	10
526.460	1	24
526.630	1	22
526.800	1	18
526.970	1	21
527.140	1	26
527.311	1	11
527.481	1	14
527.651	1	20
527.821	1	18
527.991	1	20
528.161	1	11
528.331	1	15
528.501	1	24
528.671	1	21
528.841	1	22
529.011	1	14
529.181	1	23
529.352	1	16
529.522	1	5
529.692	1	11
529.862	1	21
530.032	1	15
530.202	1	31
530.372	1	17
530.542	1	18
530.712	1	7
530.882	1	15
531.052	1	23
531.222	1	12
531.392	1	14
531.563	1	21
531.733	1	21
531.903	1	25
532.073	1	9
532.243	1	13
532.413	1	17
532.583	1	21
532.753	1	23
532.923	1	22
533.093	1	7
533.263	1	12
533.433	1	20
533.603	1	13
533.773	1	17
533.943	1	17
534.113	1	21
534.284	1	21
534.454	1	10
534.624	1	13
534.794	1	16
534.964	1	20
535.134	1	18
535.304	1	23
535.474	1	3
535.644	1	26
535.814	1	14
535.984	1	14
536.154	1	24
536.324	1	12
536.494	1	17
536.664	1	2
536.834	1	7
537.004	1	10
537.174	1	15
537.344	1	19
537.514	1	23
537.685	1	14
537.855	1	27
538.025	1	11
538.195	1	15
538.365	1	22
538.535	1	15
538.705	1	18
538.875	1	9
539.045	1	14
539.215	1	26
539.385	1	17
539.555	1	13
539.725	1	26
539.895	1	20
540.065	1	12
540.235	1	3
540.405	1	29
540.575	1	23
540.745	1	13
540.915	1	19
541.085	1	13
541.255	1	24
541.425	1	5
541.595	1	12
541.765	1	11
541.935	1	20
542.105	1	18
542.275	1	3
542.445	1	19
542.615	1	15
542.785	1	24
542.955	1	14
543.125	1	14
543.295	1	18
543.465	1	9
543.635	1	0
543.805	1	12
543.975	1	11
544.145	1	8
544.315	1	4
544.485	1	15
544.655	1	22
544.825	1	20
544.995	1	8
545.165	1	34
545.335	1	8
545.505	1	18
545.675	1	24
545.845	1	9
546.015	1	24
546.185	1	3
546.355	1	16
546.525	1	10
546.695	1	21
546.865	1	10
547.035	1	20
547.205	1	13
547.375	1	24
547.545	1	10
547.715	1	19
547.885	1	18
548.055	1	15
548.225	1	8
548.395	1	22
548.565	1	13
548.735	1	9
548.905	1	19
549.075	1	13
549.245	1	26
549.415	1	18
549.585	1	12
549.755	1	13
549.925	1	12
550.095	1	16
550.265	1	2
550.435	1	17
550.605	1	10
550.775	1	21
550.945	1	12
551.115	1	0
551.285	1	1
551.455	1	4
551.625	1	10
551.795	1	11
551.965	1	7
552.135	1	3
552.305	1	19
552.475	1	19
552.645	1	26
552.815	1	6
552.985	1	1
553.155	1	12
553.325	1	11
553.495	1	16
553.665	1	14
553.835	1	9
554.004	1	-2
554.174	1	0
554.344	1	18
554.514	1	10
554.684	1	12
554.854	1	8
555.024	1	19
555.194	1	18
555.364	1	13
555.534	1	16
555.704	1	14
555.874	1	14
556.044	1	2
556.214	1	4
556.384	1	6
556.554	1	0
556.724	1	2
556.894	1	4
557.064	1	2
557.234	1	7
557.404	1	15
557.573	1	9
557.743	1	18
557.913	1	10
558.083	1	-2
558.253	1	14
558.423	1	4
558.593	1	13
558.763	1	14
558.933	1	13
559.103	1	12
559.273	1	20
559.443	1	7
559.613	1	8
559.783	1	4
559.953	1	5
560.122	1	2
560.292	1	9
560.462	1	6
560.632	1	11
560.802	1	15
560.972	1	9
561.142	1	12
561.312	1	12
561.482	1	9
561.652	1	5
561.822	1	6
561.992	1	5
562.162	1	3
562.331	1	-3
562.501	1	8
562.671	1	20
562.841	1	16
563.011	1	21
563.181	1	15
563.351	1	8
563.521	1	15
563.691	1	3
563.861	1	12
564.031	1	14
564.201	1	10
564.370	1	18
564.540	1	14
564.710	1	13
564.880	1	17
565.050	1	3
565.220	1	4
565.390	1	12
565.560	1	19
565.730	1	6
565.900	1	10
566.069	1	31
566.239	1	6
566.409	1	16
566.579	1	12
566.749	1	17
566.919	1	8
567.089	1	9
567.259	1	7
567.429	1	8
567.599	1	21
567.768	1	10
567.938	1	6
568.108	1	9
568.278	1	13
568.448	1	22
568.618	1	14
568.788	1	12
568.958	1	30
569.128	1	9
569.297	1	9
569.467	1	16
569.637	1	16
569.807	1	11
569.977	1	15
570.147	1	6
570.317	1	22
570.487	1	15
570.656	1	9
570.826	1	19
570.996	1	4
571.166	1	3
571.336	1	21
571.506	1	11
571.676	1	17
571.846	1	5
572.015	1	10
572.185	1	14
572.355	1	6
572.525	1	9
572.695	1	16
572.865	1	19
573.035	1	8
573.205	1	1
573.374	1	7
573.544	1	2
573.714	1	20
573.884	1	16
574.054	1	21
574.224	1	15
574.394	1	9
574.563	1	7
574.733	1	2
574.903	1	14
575.073	1	14
575.243	1	9
575.413	1	14
575.583	1	13
575.752	1	14
575.922	1	14
576.092	1	13
576.262	1	18
576.432	1	12
576.602	1	0
576.772	1	4
576.941	1	11
577.111	1	17
577.281	1	1
577.451	1	15
577.621	1	14
577.791	1	2
577.960	1	14
578.130	1	0
578.300	1	16
578.470	1	7
578.640	1	8
578.810	1	5
578.979	1	11
579.149	1	12
579.319	1	10
579.489	1	6
579.659	1	-10
579.829	1	9
579.998	1	4
580.168	1	8
580.338	1	11
580.508	1	4
580.678	1	1
580.848	1	19
581.017	1	20
581.187	1	2
581.357	1	2
581.527	1	4
581.697	1	4
581.867	1	7
582.036	1	7
582.206	1	14
582.376	1	10
582.546	1	8
582.716	1	7
582.885	1	11
583.055	1	6
583.225	1	-6
583.395	1	11
583.565	1	12
583.735	1	4
583.904	1	7
584.074	1	10
584.244	1	10
584.414	1	10
584.584	1	5
584.753	1	17
584.923	1	6
585.093	1	9
585.263	1	21
585.433	1	7
585.602	1	1
585.772	1	9
585.942	1	1
586.112	1	15
586.282	1	8
586.451	1	-1
586.621	1	13
586.791	1	10
586.961	1	10
587.131	1	7
587.300	1	1
587.470	1	15
587.640	1	10
587.810	1	5
587.980	1	11
588.149	1	19
588.319	1	11
588.489	1	18
588.659	1	0
588.829	1	5
588.998	1	10
589.168	1	10
589.338	1	15
589.508	1	10
589.677	1	13
589.847	1	5
590.017	1	20
590.187	1	2
590.357	1	18
590.526	1	18
590.696	1	21
590.866	1	10
591.036	1	10
591.205	1	-1
591.375	1	8
591.545	1	9
591.715	1	10
591.885	1	18
592.054	1	10
592.224	1	13
592.394	1	10
592.564	1	2
592.733	1	18
592.903	1	12
593.073	1	8
593.243	1	18
593.412	1	2
593.582	1	9
593.752	1	13
593.922	1	10
594.091	1	21
594.261	1	14
594.431	1	6
594.601	1	16
594.771	1	4
594.940	1	16
595.110	1	13
595.280	1	3
595.450	1	7
595.619	1	10
595.789	1	11
595.959	1	4
596.129	1	11
596.298	1	15
596.468	1	9
596.638	1	14
596.808	1	22
596.977	1	25
597.147	1	12
597.317	1	12
597.487	1	-4
597.656	1	10
597.826	1	0
597.996	1	18
598.166	1	4
598.335	1	16
598.505	1	9
598.675	1	-1
598.844	1	9
599.014	1	8
599.184	1	26
599.354	1	7
599.523	1	6
599.693	1	12
599.863	1	7
600.033	1	14
600.202	1	5
600.372	1	10
600.542	1	20
600.712	1	16
600.881	1	12
601.051	1	7
601.221	1	12
601.390	1	8
601.560	1	2
601.730	1	14
601.900	1	8
602.069	1	12
602.239	1	-12
602.409	1	25
602.578	1	7
602.748	1	5
602.918	1	5
603.088	1	13
603.257	1	24
603.427	1	11
603.597	1	16
603.767	1	12
603.936	1	11
604.106	1	14
604.276	1	3
604.445	1	1
604.615	1	-6
604.785	1	10
604.954	1	22
605.124	1	5
605.294	1	22
605.464	1	16
605.633	1	13
605.803	1	6
605.973	1	12
606.142	1	15
606.312	1	0
606.482	1	11
606.652	1	11
606.821	1	15
606.991	1	20
607.161	1	18
607.330	1	5
607.500	1	-2
607.670	1	9
607.839	1	7
608.009	1	4
608.179	1	9
608.348	1	22
608.518	1	11
608.688	1	20
608.858	1	8
609.027	1	9
609.197	1	18
609.367	1	-2
609.536	1	-3
609.706	1	10
609.876	1	6
610.045	1	8
610.215	1	7
610.385	1	16
610.554	1	1
610.724	1	24
610.894	1	7
611.063	1	-1
611.233	1	11
611.403	1	13
611.572	1	12
611.742	1	7
611.912	1	19
612.081	1	12
612.251	1	22
612.421	1	5
612.590	1	1
612.760	1	12
612.930	1	3
613.099	1	17
613.269	1	15
613.439	1	18
613.608	1	22
613.778	1	6
613.948	1	14
614.117	1	9
614.287	1	9
614.457	1	10
614.626	1	10
614.796	1	14
614.966	1	15
615.135	1	12
615.305	1	18
615.475	1	14
615.644	1	18
615.814	1	12
615.984	1	8
616.153	1	11
616.323	1	6
616.493	1	13
616.662	1	18
616.832	1	17
617.002	1	22
617.171	1	8
617.341	1	9
617.511	1	7
617.680	1	17
617.850	1	18
618.019	1	13
618.189	1	13
618.359	1	11
618.528	1	14
618.698	1	11
618.868	1	19
619.037	1	18
619.207	1	11
619.377	1	15
619.546	1	9
619.716	1	16
619.885	1	22
620.055	1	17
620.225	1	12
620.394	1	17
620.564	1	21
620.734	1	9
620.903	1	19
621.073	1	21
621.242	1	2
621.412	1	5
621.582	1	9
621.751	1	-1
621.921	1	16
622.091	1	10
622.260	1	20
622.430	1	20
622.599	1	24
622.769	1	13
622.939	1	16
623.108	1	16
623.278	1	17
623.448	1	10
623.617	1	12
623.787	1	20
623.956	1	6
624.126	1	30
624.296	1	21
624.465	1	7
624.635	1	6
624.804	1	15
624.974	1	5
625.144	1	17
625.313	1	7
625.483	1	7
625.652	1	13
625.822	1	15
625.992	1	16
626.161	1	13
626.331	1	15
626.501	1	16
626.670	1	10
626.840	1	10
627.009	1	12
627.179	1	10
627.348	1	9
627.518	1	23
627.688	1	15
627.857	1	14
628.027	1	19
628.196	1	14
628.366	1	16
628.536	1	8
628.705	1	16
628.875	1	13
629.044	1	8
629.214	1	14
629.384	1	21
629.553	1	9
629.723	1	11
629.892	1	11
630.062	1	24
630.232	1	3
630.401	1	17
630.571	1	11
630.740	1	10
630.910	1	23
631.079	1	15
631.249	1	-4
631.419	1	15
631.588	1	-5
631.758	1	17
631.927	1	15
632.097	1	14
632.266	1	5
632.436	1	8
632.606	1	21
632.775	1	21
632.945	1	10
633.114	1	13
633.284	1	10
633.453	1	19
633.623	1	14
633.793	1	11
633.962	1	1
634.132	1	17
634.301	1	16
634.471	1	23
634.640	1	26
634.810	1	18
634.979	1	28
635.149	1	16
635.319	1	23
635.488	1	16
635.658	1	10
635.827	1	16
635.997	1	12
636.166	1	20
636.336	1	23
636.505	1	20
636.675	1	13
636.845	1	19
637.014	1	17
637.184	1	12
637.353	1	10
637.523	1	15
637.692	1	16
637.862	1	14
638.031	1	19
638.201	1	18
638.370	1	21
638.540	1	15
638.710	1	12
638.879	1	12
639.049	1	20
639.218	1	3
639.388	1	24
639.557	1	19
639.727	1	9
639.896	1	20
640.066	1	11
640.235	1	6
640.405	1	15
640.574	1	18
640.744	1	18
640.914	1	19
641.083	1	10
641.253	1	19
641.422	1	22
641.592	1	13
641.761	1	19
641.931	1	5
642.100	1	18
642.270	1	20
642.439	1	12
642.609	1	20
642.778	1	12
642.948	1	16
643.117	1	16
643.287	1	13
643.456	1	17
643.626	1	18
643.795	1	8
643.965	1	20
644.134	1	15
644.304	1	28
644.473	1	16
644.643	1	12
644.812	1	15
644.982	1	11
645.151	1	16
645.321	1	15
645.490	1	21
645.660	1	15
645.829	1	10
645.999	1	23
646.168	1	19
646.338	1	3
646.507	1	12
646.677	1	22
646.846	1	16
647.016	1	20
647.185	1	16
647.355	1	14
647.524	1	21
647.694	1	19
647.863	1	21
648.033	1	24
648.202	1	16
648.372	1	10
648.541	1	19
648.711	1	18
648.880	1	27
649.050	1	22
649.219	1	15
649.389	1	19
649.558	1	13
649.728	1	14
649.897	1	13
650.067	1	8
650.236	1	20
650.406	1	11
650.575	1	21
650.745	1	24
650.914	1	17
651.084	1	8
651.253	1	26
651.423	1	14
651.592	1	14
651.762	1	22
651.931	1	24
652.101	1	20
652.270	1	17
652.440	1	16
652.609	1	14
652.778	1	25
652.948	1	18
653.117	1	26
653.287	1	24
653.456	1	16
653.626	1	18
653.795	1	22
653.965	1	19
654.134	1	23
654.304	1	24
654.473	1	17
654.643	1	23
654.812	1	19
654.982	1	16
655.151	1	32
655.320	1	26
655.490	1	11
655.659	1	15
655.829	1	6
655.998	1	19
656.168	1	15
656.337	1	23
656.507	1	14
656.676	1	13
656.846	1	9
657.015	1	22
657.184	1	14
657.354	1	12
657.523	1	18
657.693	1	23
657.862	1	18
658.032	1	17
658.201	1	16
658.371	1	24
658.540	1	28
658.709	1	16
658.879	1	16
659.048	1	11
659.218	1	23
659.387	1	19
659.557	1	14
659.726	1	26
659.895	1	9
660.065	1	19
660.234	1	19
660.404	1	48
660.573	1	14
660.743	1	23
660.912	1	31
661.081	1	7
661.251	1	11
661.420	1	17
661.590	1	30
661.759	1	15
661.929	1	27
662.098	1	18
662.267	1	26
662.437	1	16
662.606	1	12
662.776	1	13
662.945	1	21
663.115	1	13
663.284	1	12
663.453	1	8
663.623	1	20
663.792	1	12
663.962	1	19
664.131	1	11
664.300	1	15
664.470	1	10
664.639	1	14
664.809	1	17
664.978	1	32
665.148	1	22
665.317	1	25
665.486	1	11
665.656	1	20
665.825	1	15
665.995	1	12
666.164	1	21
666.333	1	23
666.503	1	33
666.672	1	20
666.842	1	13
667.011	1	20
667.180	1	16
667.350	1	27
667.519	1	8
667.689	1	28
667.858	1	32
668.027	1	29
668.197	1	26
668.366	1	24
668.536	1	15
668.705	1	23
668.874	1	23
669.044	1	20
669.213	1	19
669.382	1	21
669.552	1	17
669.721	1	16
669.891	1	15
670.060	1	17
670.229	1	17
670.399	1	28
670.568	1	25
670.738	1	17
670.907	1	15
671.076	1	23
671.246	1	10
671.415	1	29
671.584	1	16
671.754	1	29
671.923	1	14
672.093	1	27
672.262	1	18
672.431	1	29
672.601	1	11
672.770	1	28
672.939	1	12
673.109	1	16
673.278	1	33
673.448	1	22
673.617	1	21
673.786	1	12
