325.333	1	5
325.504	1	10
325.675	1	2
325.846	1	4
326.017	1	14
326.188	1	2
326.359	1	20
326.531	1	0
326.702	1	14
326.873	1	15
327.044	1	8
327.215	1	3
327.386	1	-3
327.557	1	15
327.728	1	-7
327.899	1	12
328.070	1	8
328.241	1	10
328.412	1	2
328.583	1	3
328.754	1	7
328.926	1	3
329.097	1	12
329.268	1	11
329.439	1	2
329.610	1	10
329.781	1	15
329.952	1	12
330.123	1	1
330.294	1	4
330.465	1	15
330.636	1	0
330.807	1	4
330.978	1	6
331.149	1	10
331.320	1	4
331.492	1	9
331.663	1	8
331.834	1	7
332.005	1	3
332.176	1	15
332.347	1	16
332.518	1	8
332.689	1	16
332.860	1	14
333.031	1	10
333.202	1	18
333.373	1	10
333.544	1	6
333.715	1	2
333.886	1	6
334.057	1	5
334.228	1	16
334.399	1	9
334.570	1	14
334.741	1	12
334.912	1	14
335.084	1	5
335.255	1	8
335.426	1	-1
335.597	1	6
335.768	1	5
335.939	1	4
336.110	1	14
336.281	1	18
336.452	1	14
336.623	1	5
336.794	1	-4
336.965	1	4
337.136	1	5
337.307	1	7
337.478	1	9
337.649	1	-2
337.820	1	13
337.991	1	12
338.162	1	11
338.333	1	8
338.504	1	2
338.675	1	6
338.846	1	8
339.017	1	4
339.188	1	14
339.359	1	7
339.530	1	16
339.701	1	11
339.872	1	5
340.043	1	18
340.214	1	6
340.385	1	10
340.556	1	14
340.727	1	14
340.898	1	6
341.069	1	23
341.240	1	22
341.411	1	8
341.582	1	12
341.753	1	11
341.924	1	10
342.095	1	3
342.266	1	4
342.437	1	10
342.608	1	1
342.779	1	13
342.950	1	11
343.121	1	15
343.292	1	17
343.463	1	13
343.634	1	26
343.805	1	1
343.976	1	14
344.147	1	16
344.318	1	4
344.489	1	21
344.660	1	20
344.831	1	14
345.002	1	16
345.173	1	7
345.344	1	14
345.515	1	8
345.686	1	8
345.857	1	16
346.028	1	17
346.199	1	8
346.370	1	14
346.541	1	24
346.712	1	9
346.883	1	11
347.054	1	7
347.225	1	13
347.396	1	19
347.567	1	20
347.738	1	10
347.909	1	14
348.080	1	8
348.251	1	2
348.422	1	15
348.593	1	8
348.764	1	18
348.935	1	15
349.106	1	5
349.277	1	29
349.448	1	19
349.619	1	20
349.790	1	16
349.961	1	12
350.132	1	7
350.303	1	14
350.474	1	22
350.645	1	13
350.816	1	17
350.987	1	16
351.157	1	18
351.328	1	13
351.499	1	17
351.670	1	21
351.841	1	8
352.012	1	14
352.183	1	11
352.354	1	15
352.525	1	18
352.696	1	11
352.867	1	14
353.038	1	17
353.209	1	21
353.380	1	21
353.551	1	15
353.722	1	7
353.893	1	16
354.064	1	15
354.235	1	10
354.406	1	16
354.576	1	13
354.747	1	19
354.918	1	18
355.089	1	16
355.260	1	29
355.431	1	18
355.602	1	25
355.773	1	18
355.944	1	22
356.115	1	9
356.286	1	13
356.457	1	18
356.628	1	23
356.799	1	8
356.970	1	10
357.141	1	30
357.311	1	16
357.482	1	21
357.653	1	13
357.824	1	26
357.995	1	27
358.166	1	18
358.337	1	12
358.508	1	9
358.679	1	19
358.850	1	24
359.021	1	27
359.192	1	20
359.363	1	14
359.533	1	15
359.704	1	16
359.875	1	29
360.046	1	13
360.217	1	13
360.388	1	22
360.559	1	19
360.730	1	10
360.901	1	18
361.072	1	11
361.243	1	20
361.414	1	18
361.584	1	21
361.755	1	18
361.926	1	17
362.097	1	14
362.268	1	28
362.439	1	12
362.610	1	14
362.781	1	18
362.952	1	33
363.123	1	27
363.293	1	11
363.464	1	22
363.635	1	17
363.806	1	20
363.977	1	18
364.148	1	15
364.319	1	17
364.490	1	25
364.661	1	31
364.832	1	33
365.002	1	27
365.173	1	12
365.344	1	13
365.515	1	19
365.686	1	18
365.857	1	22
366.028	1	15
366.199	1	13
366.370	1	25
366.540	1	30
366.711	1	25
366.882	1	15
367.053	1	24
367.224	1	7
367.395	1	19
367.566	1	21
367.737	1	37
367.908	1	18
368.078	1	32
368.249	1	22
368.420	1	16
368.591	1	34
368.762	1	29
368.933	1	14
369.104	1	21
369.274	1	12
369.445	1	23
369.616	1	24
369.787	1	15
369.958	1	19
370.129	1	25
370.300	1	18
370.471	1	26
370.641	1	26
370.812	1	12
370.983	1	23
371.154	1	24
371.325	1	26
371.496	1	14
371.667	1	28
371.837	1	21
372.008	1	26
372.179	1	26
372.350	1	38
372.521	1	25
372.692	1	21
372.863	1	24
373.033	1	25
373.204	1	22
373.375	1	24
373.546	1	24
373.717	1	14
373.888	1	24
374.059	1	36
374.229	1	26
374.400	1	15
374.571	1	29
374.742	1	22
374.913	1	16
375.084	1	24
375.254	1	24
375.425	1	14
375.596	1	24
375.767	1	23
375.938	1	27
376.109	1	8
376.279	1	13
376.450	1	20
376.621	1	31
376.792	1	14
376.963	1	23
377.134	1	27
377.304	1	25
377.475	1	21
377.646	1	20
377.817	1	13
377.988	1	25
378.159	1	21
378.329	1	23
378.500	1	24
378.671	1	30
378.842	1	21
379.013	1	26
379.184	1	29
379.354	1	10
379.525	1	22
379.696	1	23
379.867	1	11
380.038	1	18
380.209	1	20
380.379	1	26
380.550	1	17
380.721	1	27
380.892	1	22
381.063	1	26
381.233	1	17
381.404	1	32
381.575	1	20
381.746	1	23
381.917	1	16
382.087	1	19
382.258	1	18
382.429	1	33
382.600	1	32
382.771	1	29
382.941	1	27
383.112	1	32
383.283	1	24
383.454	1	22
383.625	1	25
383.795	1	28
383.966	1	18
384.137	1	22
384.308	1	29
384.479	1	32
384.649	1	16
384.820	1	19
384.991	1	23
385.162	1	30
385.333	1	28
385.503	1	17
385.674	1	34
385.845	1	33
386.016	1	30
386.187	1	24
386.357	1	33
386.528	1	21
386.699	1	28
386.870	1	33
387.041	1	11
387.211	1	37
387.382	1	32
387.553	1	23
387.724	1	26
387.894	1	25
388.065	1	16
388.236	1	25
388.407	1	20
388.578	1	12
388.748	1	35
388.919	1	38
389.090	1	33
389.261	1	39
389.431	1	36
389.602	1	29
389.773	1	34
389.944	1	23
390.114	1	40
390.285	1	22
390.456	1	26
390.627	1	31
390.798	1	31
390.968	1	26
391.139	1	30
391.310	1	36
391.481	1	27
391.651	1	44
391.822	1	23
391.993	1	41
392.164	1	16
392.334	1	34
392.505	1	28
392.676	1	27
392.847	1	31
393.017	1	44
393.188	1	31
393.359	1	46
393.530	1	31
393.700	1	23
393.871	1	27
394.042	1	19
394.213	1	34
394.383	1	35
394.554	1	27
394.725	1	32
394.896	1	35
395.066	1	34
395.237	1	23
395.408	1	27
395.579	1	45
395.749	1	20
395.920	1	30
396.091	1	32
396.262	1	23
396.432	1	37
396.603	1	31
396.774	1	31
396.945	1	30
397.115	1	43
397.286	1	36
397.457	1	37
397.627	1	35
397.798	1	27
397.969	1	19
398.140	1	36
398.310	1	34
398.481	1	23
398.652	1	48
398.823	1	35
398.993	1	32
399.164	1	26
399.335	1	37
399.505	1	34
399.676	1	26
399.847	1	36
400.018	1	34
400.188	1	25
400.359	1	36
400.530	1	37
400.700	1	30
400.871	1	47
401.042	1	23
401.213	1	26
401.383	1	35
401.554	1	30
401.725	1	28
401.895	1	42
402.066	1	32
402.237	1	33
402.408	1	43
402.578	1	33
402.749	1	32
402.920	1	29
403.090	1	39
403.261	1	35
403.432	1	32
403.603	1	33
403.773	1	54
403.944	1	33
404.115	1	44
404.285	1	41
404.456	1	43
404.627	1	24
404.797	1	27
404.968	1	45
405.139	1	32
405.310	1	29
405.480	1	38
405.651	1	43
405.822	1	37
405.992	1	37
406.163	1	52
406.334	1	30
406.504	1	23
406.675	1	27
406.846	1	39
407.016	1	31
407.187	1	55
407.358	1	40
407.528	1	27
407.699	1	46
407.870	1	20
408.041	1	45
408.211	1	30
408.382	1	17
408.553	1	22
408.723	1	42
408.894	1	29
409.065	1	45
409.235	1	47
409.406	1	26
409.577	1	43
409.747	1	33
409.918	1	21
410.089	1	33
410.259	1	38
410.430	1	31
410.601	1	43
410.771	1	49
410.942	1	59
411.113	1	34
411.283	1	33
411.454	1	33
411.625	1	33
411.795	1	42
411.966	1	36
412.137	1	32
412.307	1	44
412.478	1	45
412.649	1	37
412.819	1	38
412.990	1	38
413.161	1	31
413.331	1	38
413.502	1	31
413.672	1	39
413.843	1	46
414.014	1	42
414.184	1	33
414.355	1	43
414.526	1	44
414.696	1	40
414.867	1	40
415.038	1	27
415.208	1	38
415.379	1	39
415.550	1	53
415.720	1	40
415.891	1	39
416.062	1	22
416.232	1	30
416.403	1	39
416.573	1	32
416.744	1	29
416.915	1	37
417.085	1	34
417.256	1	45
417.427	1	44
417.597	1	17
417.768	1	28
417.939	1	45
418.109	1	29
418.280	1	30
418.450	1	32
418.621	1	26
418.792	1	43
418.962	1	40
419.133	1	34
419.304	1	42
419.474	1	33
419.645	1	41
419.815	1	34
419.986	1	18
420.157	1	20
420.327	1	40
420.498	1	28
420.669	1	25
420.839	1	39
421.010	1	39
421.180	1	31
421.351	1	39
421.522	1	41
421.692	1	42
421.863	1	43
422.033	1	36
422.204	1	37
422.375	1	36
422.545	1	41
422.716	1	31
422.886	1	37
423.057	1	26
423.228	1	28
423.398	1	38
423.569	1	32
423.740	1	31
423.910	1	28
424.081	1	36
424.251	1	26
424.422	1	45
424.593	1	35
424.763	1	33
424.934	1	28
425.104	1	28
425.275	1	43
425.445	1	40
425.616	1	28
425.787	1	29
425.957	1	29
426.128	1	24
426.298	1	24
426.469	1	17
426.640	1	40
426.810	1	20
426.981	1	32
427.151	1	41
427.322	1	32
427.493	1	35
427.663	1	34
427.834	1	45
428.004	1	37
428.175	1	27
428.345	1	25
428.516	1	30
428.687	1	16
428.857	1	36
429.028	1	24
429.198	1	25
429.369	1	34
429.540	1	25
429.710	1	45
429.881	1	38
430.051	1	40
430.222	1	19
430.392	1	37
430.563	1	36
430.734	1	27
430.904	1	47
431.075	1	33
431.245	1	29
431.416	1	35
431.586	1	30
431.757	1	32
431.927	1	33
432.098	1	28
432.269	1	35
432.439	1	49
432.610	1	34
432.780	1	35
432.951	1	22
433.121	1	43
433.292	1	33
433.462	1	17
433.633	1	24
433.804	1	46
433.974	1	14
434.145	1	28
434.315	1	25
434.486	1	22
434.656	1	34
434.827	1	31
434.997	1	21
435.168	1	29
435.339	1	32
435.509	1	31
435.680	1	28
435.850	1	24
436.021	1	36
436.191	1	28
436.362	1	30
436.532	1	32
436.703	1	32
436.873	1	37
437.044	1	30
437.214	1	41
437.385	1	33
437.556	1	30
437.726	1	33
437.897	1	30
438.067	1	20
438.238	1	23
438.408	1	32
438.579	1	41
438.749	1	29
438.920	1	31
439.090	1	38
439.261	1	17
439.431	1	29
439.602	1	28
439.772	1	34
439.943	1	34
440.113	1	19
440.284	1	32
440.455	1	34
440.625	1	34
440.796	1	37
440.966	1	28
441.137	1	30
441.307	1	32
441.478	1	16
441.648	1	23
441.819	1	26
441.989	1	18
442.160	1	17
442.330	1	28
442.501	1	30
442.671	1	27
442.842	1	30
443.012	1	29
443.183	1	23
443.353	1	28
443.524	1	20
443.694	1	26
443.865	1	20
444.035	1	22
444.206	1	38
444.376	1	31
444.547	1	26
444.717	1	34
444.888	1	29
445.058	1	26
445.229	1	30
445.399	1	42
445.570	1	30
445.740	1	27
445.911	1	16
446.081	1	26
446.252	1	19
446.422	1	23
446.593	1	15
446.763	1	33
446.934	1	14
447.104	1	25
447.275	1	19
447.445	1	16
447.616	1	17
447.786	1	31
447.957	1	26
448.127	1	17
448.298	1	14
448.468	1	21
448.639	1	30
448.809	1	32
448.979	1	15
449.150	1	30
449.320	1	21
449.491	1	21
449.661	1	31
449.832	1	10
450.002	1	15
450.173	1	29
450.343	1	33
450.514	1	23
450.684	1	29
450.855	1	27
451.025	1	26
451.196	1	16
451.366	1	26
451.537	1	24
451.707	1	18
451.878	1	17
452.048	1	22
452.218	1	24
452.389	1	32
452.559	1	21
452.730	1	21
452.900	1	23
453.071	1	23
453.241	1	16
453.412	1	30
453.582	1	23
453.753	1	20
453.923	1	33
454.093	1	23
454.264	1	22
454.434	1	31
454.605	1	16
454.775	1	16
454.946	1	23
455.116	1	15
455.287	1	24
455.457	1	25
455.628	1	15
455.798	1	20
455.968	1	40
456.139	1	19
456.309	1	30
456.480	1	23
456.650	1	20
456.821	1	34
456.991	1	14
457.161	1	11
457.332	1	33
457.502	1	31
457.673	1	27
457.843	1	4
458.014	1	25
458.184	1	23
458.355	1	22
458.525	1	28
458.695	1	33
458.866	1	19
459.036	1	28
459.207	1	36
459.377	1	22
459.548	1	27
459.718	1	7
459.888	1	21
460.059	1	25
460.229	1	21
460.400	1	18
460.570	1	22
460.740	1	22
460.911	1	15
461.081	1	12
461.252	1	18
461.422	1	14
461.593	1	18
461.763	1	23
461.933	1	22
462.104	1	31
462.274	1	17
462.445	1	22
462.615	1	15
462.785	1	24
462.956	1	13
463.126	1	15
463.297	1	21
463.467	1	20
463.638	1	15
463.808	1	15
463.978	1	26
464.149	1	23
464.319	1	18
464.490	1	14
464.660	1	33
464.830	1	15
465.001	1	17
465.171	1	10
465.342	1	17
465.512	1	23
465.682	1	29
465.853	1	32
466.023	1	36
466.194	1	13
466.364	1	12
466.534	1	14
466.705	1	17
466.875	1	8
467.045	1	31
467.216	1	12
467.386	1	20
467.557	1	26
467.727	1	23
467.897	1	35
468.068	1	18
468.238	1	19
468.409	1	24
468.579	1	27
468.749	1	19
468.920	1	20
469.090	1	20
469.260	1	28
469.431	1	17
469.601	1	12
469.772	1	23
469.942	1	20
470.112	1	11
470.283	1	21
470.453	1	26
470.623	1	19
470.794	1	13
470.964	1	24
471.135	1	23
471.305	1	28
471.475	1	16
471.646	1	21
471.816	1	14
471.986	1	22
472.157	1	6
472.327	1	27
472.497	1	20
472.668	1	16
472.838	1	20
473.009	1	27
473.179	1	19
473.349	1	12
473.520	1	0
473.690	1	13
473.860	1	12
474.031	1	11
474.201	1	18
474.371	1	21
474.542	1	23
474.712	1	3
474.882	1	21
475.053	1	11
475.223	1	12
475.394	1	5
475.564	1	15
475.734	1	18
475.905	1	12
476.075	1	20
476.245	1	16
476.416	1	25
476.586	1	23
476.756	1	9
476.927	1	8
477.097	1	20
477.267	1	13
477.438	1	11
477.608	1	15
477.778	1	18
477.949	1	22
478.119	1	9
478.289	1	9
478.460	1	21
478.630	1	19
478.800	1	15
478.971	1	16
479.141	1	22
479.311	1	8
479.482	1	6
479.652	1	20
479.822	1	12
479.993	1	17
480.163	1	16
480.333	1	28
480.504	1	10
480.674	1	12
480.844	1	2
481.015	1	16
481.185	1	24
481.355	1	14
481.525	1	14
481.696	1	25
481.866	1	17
482.036	1	13
482.207	1	17
482.377	1	8
482.547	1	23
482.718	1	8
482.888	1	-1
483.058	1	15
483.229	1	21
483.399	1	12
483.569	1	-6
483.740	1	20
483.910	1	20
484.080	1	21
484.250	1	15
484.421	1	13
484.591	1	18
484.761	1	20
484.932	1	23
485.102	1	1
485.272	1	15
485.443	1	12
485.613	1	10
485.783	1	6
485.953	1	6
486.124	1	23
486.294	1	16
486.464	1	10
486.635	1	7
486.805	1	25
486.975	1	17
487.146	1	14
487.316	1	12
487.486	1	8
487.656	1	20
487.827	1	14
487.997	1	21
488.167	1	24
488.338	1	13
488.508	1	18
488.678	1	17
488.848	1	20
489.019	1	16
489.189	1	-3
489.359	1	9
489.529	1	8
489.700	1	12
489.870	1	6
490.040	1	11
490.211	1	10
490.381	1	38
490.551	1	6
490.721	1	18
490.892	1	18
491.062	1	7
491.232	1	13
491.402	1	1
491.573	1	9
491.743	1	9
491.913	1	10
492.084	1	12
492.254	1	20
492.424	1	11
492.594	1	13
492.765	1	17
492.935	1	8
493.105	1	1
493.275	1	9
493.446	1	7
493.616	1	2
493.786	1	16
493.956	1	16
494.127	1	7
494.297	1	18
494.467	1	6
494.637	1	9
494.808	1	3
494.978	1	-5
495.148	1	20
495.318	1	15
495.489	1	17
495.659	1	11
495.829	1	18
495.999	1	13
496.170	1	1
496.340	1	9
496.510	1	20
496.680	1	14
496.851	1	15
497.021	1	20
497.191	1	6
497.361	1	13
497.532	1	14
497.702	1	8
497.872	1	15
498.042	1	18
498.213	1	8
498.383	1	18
498.553	1	18
498.723	1	4
498.894	1	17
499.064	1	10
499.234	1	17
499.404	1	14
499.574	1	14
499.745	1	4
499.915	1	7
500.085	1	-5
500.255	1	12
500.426	1	4
500.596	1	20
500.766	1	16
500.936	1	10
501.106	1	15
501.277	1	19
501.447	1	0
501.617	1	7
501.787	1	12
501.958	1	10
502.128	1	5
502.298	1	11
502.468	1	20
502.638	1	25
502.809	1	15
502.979	1	14
503.149	1	11
503.319	1	17
503.489	1	13
503.660	1	7
503.830	1	11
504.000	1	11
504.170	1	4
504.340	1	1
504.511	1	12
504.681	1	8
504.851	1	9
505.021	1	7
505.192	1	13
505.362	1	10
505.532	1	12
505.702	1	9
505.872	1	8
506.043	1	-4
506.213	1	-2
506.383	1	1
506.553	1	13
506.723	1	13
506.893	1	4
507.064	1	19
507.234	1	3
507.404	1	19
507.574	1	3
507.744	1	6
507.915	1	8
508.085	1	3
508.255	1	12
508.425	1	15
508.595	1	13
508.766	1	13
508.936	1	7
509.106	1	11
509.276	1	10
509.446	1	-4
509.616	1	16
509.787	1	15
509.957	1	10
510.127	1	1
510.297	1	15
510.467	1	17
510.638	1	2
510.808	1	0
510.978	1	13
511.148	1	5
511.318	1	15
511.488	1	-5
511.659	1	0
511.829	1	6
511.999	1	7
512.169	1	5
512.339	1	16
512.509	1	10
512.680	1	10
512.850	1	11
513.020	1	6
513.190	1	3
513.360	1	11
513.530	1	17
513.700	1	10
513.871	1	10
514.041	1	11
514.211	1	12
514.381	1	1
514.551	1	15
514.721	1	11
514.892	1	11
515.062	1	7
515.232	1	13
515.402	1	16
515.572	1	12
515.742	1	5
515.912	1	15
516.083	1	12
516.253	1	0
516.423	1	7
516.593	1	4
516.763	1	18
516.933	1	17
517.104	1	8
517.274	1	2
517.444	1	6
517.614	1	9
517.784	1	9
517.954	1	6
518.124	1	-4
518.294	1	19
518.465	1	3
518.635	1	1
518.805	1	1
518.975	1	11
519.145	1	13
519.315	1	15
519.485	1	4
519.656	1	5
519.826	1	11
519.996	1	7
520.166	1	11
520.336	1	22
520.506	1	9
520.676	1	11
520.846	1	11
521.017	1	8
521.187	1	-4
521.357	1	-2
521.527	1	13
521.697	1	7
521.867	1	7
522.037	1	7
522.207	1	10
522.377	1	7
522.548	1	6
522.718	1	12
522.888	1	-3
523.058	1	6
523.228	1	7
523.398	1	2
523.568	1	3
523.738	1	3
523.909	1	11
524.079	1	15
524.249	1	8
524.419	1	4
524.589	1	6
524.759	1	11
524.929	1	18
525.099	1	10
525.269	1	13
525.439	1	6
525.610	1	8
525.780	1	6
525.950	1	8
526.120	1	15
526.290	1	12
526.460	1	17
526.630	1	7
526.800	1	3
526.970	1	10
527.140	1	14
527.311	1	1
527.481	1	-2
527.651	1	6
527.821	1	5
527.991	1	11
528.161	1	6
528.331	1	0
528.501	1	17
528.671	1	7
528.841	1	8
529.011	1	7
529.181	1	16
529.352	1	6
529.522	1	-11
529.692	1	6
529.862	1	12
530.032	1	8
530.202	1	8
530.372	1	1
530.542	1	5
530.712	1	8
530.882	1	3
531.052	1	8
531.222	1	6
531.392	1	3
531.563	1	-3
531.733	1	14
531.903	1	10
532.073	1	6
532.243	1	5
532.413	1	16
532.583	1	8
532.753	1	5
532.923	1	9
533.093	1	4
533.263	1	6
533.433	1	13
533.603	1	9
533.773	1	10
533.943	1	-1
534.113	1	7
534.284	1	10
534.454	1	2
534.624	1	4
534.794	1	6
534.964	1	10
535.134	1	2
535.304	1	9
535.474	1	1
535.644	1	6
535.814	1	7
535.984	1	1
536.154	1	3
536.324	1	6
536.494	1	15
536.664	1	-6
536.834	1	-3
537.004	1	-4
537.174	1	10
537.344	1	19
537.514	1	5
537.685	1	10
537.855	1	11
538.025	1	6
538.195	1	2
538.365	1	5
538.535	1	7
538.705	1	-1
538.875	1	8
539.045	1	10
539.215	1	12
539.385	1	6
539.555	1	-5
539.725	1	8
539.895	1	12
540.065	1	-2
540.235	1	-1
540.405	1	18
540.575	1	-3
540.745	1	10
540.915	1	8
541.085	1	2
541.255	1	-5
541.425	1	4
541.595	1	-2
541.765	1	12
541.935	1	2
542.105	1	3
542.275	1	-1
542.445	1	9
542.615	1	10
542.785	1	13
542.955	1	7
543.125	1	6
543.295	1	8
543.465	1	8
543.635	1	-1
543.805	1	12
543.975	1	3
544.145	1	6
544.315	1	2
544.485	1	4
544.655	1	13
544.825	1	10
544.995	1	5
545.165	1	12
545.335	1	-8
545.505	1	4
545.675	1	9
545.845	1	1
546.015	1	8
546.185	1	-5
546.355	1	2
546.525	1	0
546.695	1	8
546.865	1	9
547.035	1	8
547.205	1	6
547.375	1	8
547.545	1	-1
547.715	1	4
547.885	1	15
548.055	1	7
548.225	1	0
548.395	1	17
548.565	1	10
548.735	1	17
548.905	1	-1
549.075	1	11
549.245	1	6
549.415	1	22
549.585	1	11
549.755	1	11
549.925	1	3
550.095	1	8
550.265	1	0
550.435	1	-1
550.605	1	3
550.775	1	3
550.945	1	-4
551.115	1	0
551.285	1	1
551.455	1	7
551.625	1	3
551.795	1	15
551.965	1	9
552.135	1	-3
552.305	1	8
552.475	1	17
552.645	1	13
552.815	1	6
552.985	1	-4
553.155	1	7
553.325	1	-2
553.495	1	6
553.665	1	5
553.835	1	9
554.004	1	8
554.174	1	-1
554.344	1	10
554.514	1	8
554.684	1	4
554.854	1	-5
555.024	1	6
555.194	1	19
555.364	1	1
555.534	1	13
555.704	1	10
555.874	1	14
556.044	1	9
556.214	1	-1
556.384	1	13
556.554	1	4
556.724	1	-9
556.894	1	4
557.064	1	-6
557.234	1	11
557.404	1	2
557.573	1	11
557.743	1	12
557.913	1	4
558.083	1	-2
558.253	1	8
558.423	1	4
558.593	1	11
558.763	1	0
558.933	1	7
559.103	1	0
559.273	1	16
559.443	1	-6
559.613	1	4
559.783	1	8
559.953	1	7
560.122	1	0
560.292	1	8
560.462	1	3
560.632	1	5
560.802	1	5
560.972	1	4
561.142	1	6
561.312	1	4
561.482	1	-5
561.652	1	12
561.822	1	1
561.992	1	6
562.162	1	-6
562.331	1	1
562.501	1	10
562.671	1	12
562.841	1	4
563.011	1	11
563.181	1	11
563.351	1	11
563.521	1	-1
563.691	1	2
563.861	1	17
564.031	1	3
564.201	1	5
564.370	1	9
564.540	1	1
564.710	1	15
564.880	1	3
565.050	1	6
565.220	1	4
565.390	1	14
565.560	1	0
565.730	1	9
565.900	1	-6
566.069	1	9
566.239	1	-11
566.409	1	12
566.579	1	3
566.749	1	16
566.919	1	3
567.089	1	6
567.259	1	4
567.429	1	8
567.599	1	0
567.768	1	3
567.938	1	-3
568.108	1	4
568.278	1	6
568.448	1	11
568.618	1	15
568.788	1	9
568.958	1	14
569.128	1	11
569.297	1	-4
569.467	1	1
569.637	1	-5
569.807	1	8
569.977	1	10
570.147	1	-2
570.317	1	12
570.487	1	10
570.656	1	5
570.826	1	13
570.996	1	-3
571.166	1	-3
571.336	1	1
571.506	1	2
571.676	1	20
571.846	1	8
572.015	1	5
572.185	1	5
572.355	1	0
572.525	1	3
572.695	1	10
572.865	1	-8
573.035	1	3
573.205	1	-7
573.374	1	4
573.544	1	-12
573.714	1	13
573.884	1	11
574.054	1	7
574.224	1	13
574.394	1	-5
574.563	1	-1
574.733	1	-5
574.903	1	8
575.073	1	-2
575.243	1	9
575.413	1	8
575.583	1	1
575.752	1	1
575.922	1	3
576.092	1	16
576.262	1	7
576.432	1	5
576.602	1	5
576.772	1	-6
576.941	1	15
577.111	1	6
577.281	1	14
577.451	1	12
577.621	1	3
577.791	1	-1
577.960	1	9
578.130	1	-2
578.300	1	-1
578.470	1	11
578.640	1	3
578.810	1	3
578.979	1	5
579.149	1	4
579.319	1	3
579.489	1	1
579.659	1	3
579.829	1	-6
579.998	1	3
580.168	1	5
580.338	1	-7
580.508	1	4
580.678	1	-8
580.848	1	6
581.017	1	9
581.187	1	-2
581.357	1	0
581.527	1	-7
581.697	1	4
581.867	1	3
582.036	1	0
582.206	1	4
582.376	1	-1
582.546	1	-1
582.716	1	-6
582.885	1	6
583.055	1	-4
583.225	1	3
583.395	1	4
583.565	1	2
583.735	1	8
583.904	1	-2
584.074	1	5
584.244	1	10
584.414	1	-3
584.584	1	2
584.753	1	16
584.923	1	-1
585.093	1	1
585.263	1	9
585.433	1	11
585.602	1	2
585.772	1	-3
585.942	1	-4
586.112	1	-1
586.282	1	3
586.451	1	-7
586.621	1	6
586.791	1	9
586.961	1	15
587.131	1	12
587.300	1	-12
587.470	1	7
587.640	1	0
587.810	1	-2
587.980	1	3
588.149	1	10
588.319	1	3
588.489	1	16
588.659	1	2
588.829	1	9
588.998	1	9
589.168	1	-2
589.338	1	15
589.508	1	8
589.677	1	11
589.847	1	1
590.017	1	8
590.187	1	-1
590.357	1	1
590.526	1	12
590.696	1	14
590.866	1	10
591.036	1	2
591.205	1	-4
591.375	1	7
591.545	1	-1
591.715	1	13
591.885	1	4
592.054	1	12
592.224	1	7
592.394	1	4
592.564	1	-4
592.733	1	7
592.903	1	-3
593.073	1	0
593.243	1	13
593.412	1	5
593.582	1	11
593.752	1	12
593.922	1	-3
594.091	1	9
594.261	1	-2
594.431	1	3
594.601	1	-2
594.771	1	-7
594.940	1	7
595.110	1	14
595.280	1	4
595.450	1	1
595.619	1	1
595.789	1	5
595.959	1	-7
596.129	1	16
596.298	1	6
596.468	1	1
596.638	1	8
596.808	1	20
596.977	1	16
597.147	1	11
597.317	1	2
597.487	1	-6
597.656	1	0
597.826	1	-1
597.996	1	9
598.166	1	-3
598.335	1	9
598.505	1	12
598.675	1	8
598.844	1	-2
599.014	1	0
599.184	1	15
599.354	1	7
599.523	1	3
599.693	1	9
599.863	1	7
600.033	1	2
600.202	1	-9
600.372	1	9
600.542	1	12
600.712	1	14
600.881	1	-5
601.051	1	5
601.221	1	0
601.390	1	5
601.560	1	3
601.730	1	8
601.900	1	3
602.069	1	8
602.239	1	-6
602.409	1	9
602.578	1	-5
602.748	1	5
602.918	1	-4
603.088	1	8
603.257	1	11
603.427	1	6
603.597	1	10
603.767	1	1
603.936	1	10
604.106	1	9
604.276	1	0
604.445	1	2
604.615	1	-12
604.785	1	7
604.954	1	20
605.124	1	-8
605.294	1	2
605.464	1	15
605.633	1	12
605.803	1	5
605.973	1	6
606.142	1	14
606.312	1	4
606.482	1	-2
606.652	1	10
606.821	1	-1
606.991	1	9
607.161	1	16
607.330	1	-3
607.500	1	11
607.670	1	-5
607.839	1	12
608.009	1	4
608.179	1	-2
608.348	1	15
608.518	1	6
608.688	1	6
608.858	1	5
609.027	1	17
609.197	1	8
609.367	1	6
609.536	1	11
609.706	1	4
609.876	1	2
610.045	1	6
610.215	1	7
610.385	1	5
610.554	1	-2
610.724	1	14
610.894	1	15
611.063	1	-8
611.233	1	14
611.403	1	2
611.572	1	-3
611.742	1	1
611.912	1	8
612.081	1	-1
612.251	1	7
612.421	1	5
612.590	1	0
612.760	1	7
612.930	1	-6
613.099	1	17
613.269	1	8
613.439	1	8
613.608	1	5
613.778	1	8
613.948	1	12
614.117	1	7
614.287	1	0
614.457	1	-1
614.626	1	-6
614.796	1	3
614.966	1	1
615.135	1	8
615.305	1	6
615.475	1	8
615.644	1	6
615.814	1	-3
615.984	1	-3
616.153	1	-7
616.323	1	6
616.493	1	12
616.662	1	0
616.832	1	12
617.002	1	7
617.171	1	6
617.341	1	13
617.511	1	11
617.680	1	13
617.850	1	1
618.019	1	6
618.189	1	6
618.359	1	-6
618.528	1	5
618.698	1	8
618.868	1	18
619.037	1	5
619.207	1	4
619.377	1	12
619.546	1	4
619.716	1	1
619.885	1	16
620.055	1	7
620.225	1	13
620.394	1	6
620.564	1	15
620.734	1	13
620.903	1	9
621.073	1	10
621.242	1	-3
621.412	1	0
621.582	1	-5
621.751	1	11
621.921	1	8
622.091	1	3
622.260	1	9
622.430	1	11
622.599	1	5
622.769	1	6
622.939	1	8
623.108	1	11
623.278	1	9
623.448	1	5
623.617	1	7
623.787	1	16
623.956	1	4
624.126	1	19
624.296	1	11
624.465	1	-2
624.635	1	3
624.804	1	9
624.974	1	5
625.144	1	11
625.313	1	3
625.483	1	6
625.652	1	13
625.822	1	5
625.992	1	5
626.161	1	1
626.331	1	-7
626.501	1	6
626.670	1	3
626.840	1	-7
627.009	1	1
627.179	1	19
627.348	1	11
627.518	1	25
627.688	1	6
627.857	1	-2
628.027	1	-1
628.196	1	9
628.366	1	9
628.536	1	3
628.705	1	-1
628.875	1	10
629.044	1	1
629.214	1	9
629.384	1	7
629.553	1	11
629.723	1	5
629.892	1	4
630.062	1	16
630.232	1	1
630.401	1	3
630.571	1	8
630.740	1	7
630.910	1	6
631.079	1	4
631.249	1	4
631.419	1	14
631.588	1	-11
631.758	1	0
631.927	1	7
632.097	1	8
632.266	1	3
632.436	1	-3
632.606	1	12
632.775	1	8
632.945	1	0
633.114	1	2
633.284	1	2
633.453	1	8
633.623	1	1
633.793	1	7
633.962	1	-5
634.132	1	17
634.301	1	12
634.471	1	19
634.640	1	9
634.810	1	13
634.979	1	20
635.149	1	6
635.319	1	9
635.488	1	7
635.658	1	-6
635.827	1	5
635.997	1	-6
636.166	1	5
636.336	1	8
636.505	1	16
636.675	1	0
636.845	1	6
637.014	1	19
637.184	1	2
637.353	1	-2
637.523	1	12
637.692	1	5
637.862	1	-1
638.031	1	3
638.201	1	18
638.370	1	8
638.540	1	4
638.710	1	8
638.879	1	1
639.049	1	0
639.218	1	5
639.388	1	12
639.557	1	6
639.727	1	-2
639.896	1	4
640.066	1	7
640.235	1	7
640.405	1	7
640.574	1	16
640.744	1	11
640.914	1	5
641.083	1	8
641.253	1	9
641.422	1	8
641.592	1	12
641.761	1	12
641.931	1	-6
642.100	1	3
642.270	1	12
642.439	1	1
642.609	1	6
642.778	1	12
642.948	1	10
643.117	1	10
643.287	1	-4
643.456	1	-2
643.626	1	5
643.795	1	10
643.965	1	9
644.134	1	7
644.304	1	13
644.473	1	0
644.643	1	-1
644.812	1	8
644.982	1	14
645.151	1	4
645.321	1	12
645.490	1	10
645.660	1	-1
645.829	1	6
645.999	1	18
646.168	1	9
646.338	1	-4
646.507	1	0
646.677	1	15
646.846	1	13
647.016	1	8
647.185	1	9
647.355	1	9
647.524	1	7
647.694	1	9
647.863	1	9
648.033	1	4
648.202	1	2
648.372	1	11
648.541	1	10
648.711	1	7
648.880	1	13
649.050	1	11
649.219	1	1
649.389	1	7
649.558	1	1
649.728	1	-1
649.897	1	0
650.067	1	9
650.236	1	11
650.406	1	-5
650.575	1	15
650.745	1	8
650.914	1	12
651.084	1	0
651.253	1	11
651.423	1	0
651.592	1	8
651.762	1	7
651.931	1	9
652.101	1	4
652.270	1	4
652.440	1	7
652.609	1	9
652.778	1	0
652.948	1	-3
653.117	1	23
653.287	1	10
653.456	1	5
653.626	1	3
653.795	1	4
653.965	1	14
654.134	1	2
654.304	1	10
654.473	1	7
654.643	1	9
654.812	1	8
654.982	1	14
655.151	1	15
655.320	1	8
655.490	1	-2
655.659	1	8
655.829	1	6
655.998	1	7
656.168	1	-2
656.337	1	9
656.507	1	3
656.676	1	2
656.846	1	-1
657.015	1	15
657.184	1	8
657.354	1	1
657.523	1	1
657.693	1	0
657.862	1	4
658.032	1	-1
658.201	1	4
658.371	1	7
658.540	1	20
658.709	1	10
658.879	1	-4
659.048	1	5
659.218	1	11
659.387	1	6
659.557	1	6
659.726	1	3
659.895	1	3
660.065	1	8
660.234	1	7
660.404	1	21
660.573	1	15
660.743	1	7
660.912	1	17
661.081	1	4
661.251	1	8
661.420	1	6
661.590	1	10
661.759	1	-3
661.929	1	22
662.098	1	5
662.267	1	13
662.437	1	0
662.606	1	10
662.776	1	15
662.945	1	5
663.115	1	-5
663.284	1	-5
663.453	1	2
663.623	1	3
663.792	1	11
663.962	1	5
664.131	1	10
664.300	1	2
664.470	1	-1
664.639	1	9
664.809	1	2
664.978	1	10
665.148	1	19
665.317	1	4
665.486	1	2
665.656	1	3
665.825	1	12
665.995	1	16
666.164	1	13
666.333	1	5
666.503	1	13
666.672	1	7
666.842	1	5
667.011	1	4
667.180	1	6
667.350	1	15
667.519	1	2
667.689	1	12
667.858	1	17
668.027	1	11
668.197	1	6
668.366	1	14
668.536	1	8
668.705	1	15
668.874	1	15
669.044	1	1
669.213	1	0
669.382	1	12
669.552	1	-1
669.721	1	12
669.891	1	8
670.060	1	8
670.229	1	8
670.399	1	4
670.568	1	14
670.738	1	-3
670.907	1	9
671.076	1	5
671.246	1	-14
671.415	1	2
671.584	1	5
671.754	1	11
671.923	1	3
672.093	1	20
672.262	1	15
672.431	1	18
672.601	1	5
672.770	1	2
672.939	1	2
673.109	1	2
673.278	1	23
673.448	1	4
673.617	1	13
673.786	1	4
