325.333	1	-2
325.504	1	11
325.675	1	1
325.846	1	3
326.017	1	-1
326.188	1	15
326.359	1	5
326.531	1	-2
326.702	1	8
326.873	1	16
327.044	1	-6
327.215	1	1
327.386	1	-6
327.557	1	10
327.728	1	-8
327.899	1	6
328.070	1	5
328.241	1	12
328.412	1	-1
328.583	1	17
328.754	1	0
328.926	1	0
329.097	1	-1
329.268	1	10
329.439	1	6
329.610	1	12
329.781	1	17
329.952	1	6
330.123	1	8
330.294	1	14
330.465	1	20
330.636	1	17
330.807	1	7
330.978	1	9
331.149	1	2
331.320	1	9
331.492	1	15
331.663	1	3
331.834	1	5
332.005	1	-1
332.176	1	11
332.347	1	10
332.518	1	5
332.689	1	13
332.860	1	5
333.031	1	10
333.202	1	8
333.373	1	10
333.544	1	-2
333.715	1	-4
333.886	1	-2
334.057	1	5
334.228	1	9
334.399	1	3
334.570	1	19
334.741	1	10
334.912	1	8
335.084	1	4
335.255	1	4
335.426	1	-1
335.597	1	5
335.768	1	-4
335.939	1	11
336.110	1	10
336.281	1	5
336.452	1	20
336.623	1	9
336.794	1	-6
336.965	1	6
337.136	1	-2
337.307	1	7
337.478	1	14
337.649	1	0
337.820	1	8
337.991	1	14
338.162	1	13
338.333	1	12
338.504	1	6
338.675	1	4
338.846	1	8
339.017	1	3
339.188	1	13
339.359	1	8
339.530	1	2
339.701	1	6
339.872	1	7
340.043	1	9
340.214	1	8
340.385	1	17
340.556	1	16
340.727	1	8
340.898	1	14
341.069	1	15
341.240	1	10
341.411	1	11
341.582	1	3
341.753	1	13
341.924	1	6
342.095	1	9
342.266	1	-3
342.437	1	5
342.608	1	-10
342.779	1	3
342.950	1	19
343.121	1	15
343.292	1	15
343.463	1	14
343.634	1	12
343.805	1	0
343.976	1	2
344.147	1	10
344.318	1	2
344.489	1	12
344.660	1	6
344.831	1	18
345.002	1	8
345.173	1	9
345.344	1	5
345.515	1	4
345.686	1	11
345.857	1	9
346.028	1	15
346.199	1	7
346.370	1	1
346.541	1	30
346.712	1	10
346.883	1	10
347.054	1	11
347.225	1	1
347.396	1	12
347.567	1	6
347.738	1	12
347.909	1	6
348.080	1	10
348.251	1	1
348.422	1	18
348.593	1	4
348.764	1	1
348.935	1	1
349.106	1	7
349.277	1	20
349.448	1	7
349.619	1	14
349.790	1	12
349.961	1	14
350.132	1	6
350.303	1	18
350.474	1	11
350.645	1	6
350.816	1	14
350.987	1	4
351.157	1	9
351.328	1	15
351.499	1	15
351.670	1	6
351.841	1	3
352.012	1	17
352.183	1	2
352.354	1	18
352.525	1	2
352.696	1	11
352.867	1	0
353.038	1	10
353.209	1	18
353.380	1	15
353.551	1	18
353.722	1	7
353.893	1	12
354.064	1	22
354.235	1	11
354.406	1	9
354.576	1	8
354.747	1	15
354.918	1	13
355.089	1	5
355.260	1	28
355.431	1	14
355.602	1	10
355.773	1	13
355.944	1	14
356.115	1	2
356.286	1	11
356.457	1	18
356.628	1	19
356.799	1	6
356.970	1	14
357.141	1	19
357.311	1	15
357.482	1	11
357.653	1	10
357.824	1	28
357.995	1	23
358.166	1	4
358.337	1	10
358.508	1	13
358.679	1	8
358.850	1	8
359.021	1	8
359.192	1	6
359.363	1	16
359.533	1	10
359.704	1	17
359.875	1	30
360.046	1	14
360.217	1	21
360.388	1	3
360.559	1	23
360.730	1	11
360.901	1	17
361.072	1	11
361.243	1	13
361.414	1	13
361.584	1	19
361.755	1	16
361.926	1	10
362.097	1	13
362.268	1	4
362.439	1	12
362.610	1	9
362.781	1	-2
362.952	1	26
363.123	1	24
363.293	1	17
363.464	1	16
363.635	1	19
363.806	1	16
363.977	1	4
364.148	1	3
364.319	1	10
364.490	1	19
364.661	1	10
364.832	1	16
365.002	1	13
365.173	1	13
365.344	1	18
365.515	1	7
365.686	1	16
365.857	1	19
366.028	1	14
366.199	1	16
366.370	1	29
366.540	1	22
366.711	1	19
366.882	1	5
367.053	1	18
367.224	1	4
367.395	1	16
367.566	1	20
367.737	1	17
367.908	1	20
368.078	1	27
368.249	1	11
368.420	1	24
368.591	1	28
368.762	1	16
368.933	1	5
369.104	1	13
369.274	1	14
369.445	1	12
369.616	1	14
369.787	1	12
369.958	1	23
370.129	1	17
370.300	1	14
370.471	1	30
370.641	1	9
370.812	1	12
370.983	1	13
371.154	1	16
371.325	1	13
371.496	1	18
371.667	1	25
371.837	1	32
372.008	1	11
372.179	1	23
372.350	1	11
372.521	1	20
372.692	1	22
372.863	1	19
373.033	1	17
373.204	1	13
373.375	1	22
373.546	1	30
373.717	1	12
373.888	1	10
374.059	1	22
374.229	1	22
374.400	1	12
374.571	1	16
374.742	1	19
374.913	1	12
375.084	1	13
375.254	1	23
375.425	1	9
375.596	1	15
375.767	1	17
375.938	1	23
376.109	1	13
376.279	1	13
376.450	1	10
376.621	1	25
376.792	1	23
376.963	1	26
377.134	1	14
377.304	1	14
377.475	1	17
377.646	1	12
377.817	1	12
377.988	1	18
378.159	1	13
378.329	1	10
378.500	1	21
378.671	1	20
378.842	1	9
379.013	1	20
379.184	1	13
379.354	1	8
379.525	1	18
379.696	1	14
379.867	1	15
380.038	1	5
380.209	1	16
380.379	1	17
380.550	1	17
380.721	1	20
380.892	1	18
381.063	1	22
381.233	1	16
381.404	1	19
381.575	1	20
381.746	1	20
381.917	1	12
382.087	1	17
382.258	1	23
382.429	1	26
382.600	1	21
382.771	1	19
382.941	1	15
383.112	1	21
383.283	1	22
383.454	1	15
383.625	1	23
383.795	1	21
383.966	1	15
384.137	1	29
384.308	1	26
384.479	1	13
384.649	1	21
384.820	1	21
384.991	1	23
385.162	1	14
385.333	1	21
385.503	1	20
385.674	1	21
385.845	1	15
386.016	1	26
386.187	1	6
386.357	1	19
386.528	1	20
386.699	1	16
386.870	1	21
387.041	1	14
387.211	1	20
387.382	1	22
387.553	1	24
387.724	1	16
387.894	1	11
388.065	1	21
388.236	1	20
388.407	1	31
388.578	1	17
388.748	1	29
388.919	1	23
389.090	1	22
389.261	1	22
389.431	1	25
389.602	1	21
389.773	1	29
389.944	1	23
390.114	1	22
390.285	1	20
390.456	1	20
390.627	1	27
390.798	1	31
390.968	1	11
391.139	1	20
391.310	1	27
391.481	1	17
391.651	1	20
391.822	1	11
391.993	1	16
392.164	1	9
392.334	1	24
392.505	1	11
392.676	1	26
392.847	1	28
393.017	1	26
393.188	1	15
393.359	1	38
393.530	1	30
393.700	1	22
393.871	1	20
394.042	1	6
394.213	1	25
394.383	1	28
394.554	1	17
394.725	1	34
394.896	1	17
395.066	1	30
395.237	1	23
395.408	1	23
395.579	1	30
395.749	1	19
395.920	1	18
396.091	1	26
396.262	1	18
396.432	1	14
396.603	1	26
396.774	1	28
396.945	1	23
397.115	1	29
397.286	1	16
397.457	1	26
397.627	1	23
397.798	1	14
397.969	1	10
398.140	1	19
398.310	1	27
398.481	1	21
398.652	1	32
398.823	1	27
398.993	1	17
399.164	1	24
399.335	1	24
399.505	1	20
399.676	1	22
399.847	1	20
400.018	1	24
400.188	1	24
400.359	1	20
400.530	1	24
400.700	1	24
400.871	1	37
401.042	1	24
401.213	1	9
401.383	1	14
401.554	1	19
401.725	1	30
401.895	1	25
402.066	1	22
402.237	1	28
402.408	1	32
402.578	1	24
402.749	1	24
402.920	1	20
403.090	1	20
403.261	1	26
403.432	1	25
403.603	1	23
403.773	1	31
403.944	1	27
404.115	1	31
404.285	1	17
404.456	1	29
404.627	1	18
404.797	1	20
404.968	1	40
405.139	1	19
405.310	1	19
405.480	1	27
405.651	1	28
405.822	1	25
405.992	1	10
406.163	1	25
406.334	1	11
406.504	1	25
406.675	1	20
406.846	1	29
407.016	1	12
407.187	1	34
407.358	1	30
407.528	1	21
407.699	1	21
407.870	1	32
408.041	1	20
408.211	1	18
408.382	1	30
408.553	1	26
408.723	1	17
408.894	1	29
409.065	1	30
409.235	1	24
409.406	1	20
409.577	1	27
409.747	1	22
409.918	1	18
410.089	1	22
410.259	1	34
410.430	1	17
410.601	1	24
410.771	1	22
410.942	1	27
411.113	1	17
411.283	1	17
411.454	1	13
411.625	1	17
411.795	1	24
411.966	1	29
412.137	1	20
412.307	1	27
412.478	1	35
412.649	1	19
412.819	1	18
412.990	1	32
413.161	1	25
413.331	1	24
413.502	1	31
413.672	1	25
413.843	1	32
414.014	1	42
414.184	1	17
414.355	1	30
414.526	1	25
414.696	1	29
414.867	1	29
415.038	1	16
415.208	1	23
415.379	1	25
415.550	1	36
415.720	1	25
415.891	1	19
416.062	1	38
416.232	1	19
416.403	1	28
416.573	1	31
416.744	1	27
416.915	1	21
417.085	1	26
417.256	1	42
417.427	1	35
417.597	1	21
417.768	1	22
417.939	1	36
418.109	1	22
418.280	1	19
418.450	1	37
418.621	1	18
418.792	1	26
418.962	1	33
419.133	1	26
419.304	1	9
419.474	1	34
419.645	1	23
419.815	1	29
419.986	1	27
420.157	1	17
420.327	1	22
420.498	1	22
420.669	1	27
420.839	1	24
421.010	1	24
421.180	1	26
421.351	1	21
421.522	1	22
421.692	1	22
421.863	1	26
422.033	1	35
422.204	1	28
422.375	1	16
422.545	1	16
422.716	1	21
422.886	1	17
423.057	1	20
423.228	1	14
423.398	1	30
423.569	1	22
423.740	1	14
423.910	1	16
424.081	1	25
424.251	1	22
424.422	1	32
424.593	1	23
424.763	1	22
424.934	1	22
425.104	1	20
425.275	1	29
425.445	1	25
425.616	1	25
425.787	1	12
425.957	1	23
426.128	1	19
426.298	1	6
426.469	1	16
426.640	1	37
426.810	1	20
426.981	1	27
427.151	1	43
427.322	1	21
427.493	1	18
427.663	1	22
427.834	1	7
428.004	1	24
428.175	1	16
428.345	1	12
428.516	1	32
428.687	1	30
428.857	1	19
429.028	1	25
429.198	1	31
429.369	1	12
429.540	1	15
429.710	1	29
429.881	1	18
430.051	1	28
430.222	1	22
430.392	1	32
430.563	1	40
430.734	1	12
430.904	1	17
431.075	1	26
431.245	1	18
431.416	1	17
431.586	1	16
431.757	1	24
431.927	1	23
432.098	1	15
432.269	1	12
432.439	1	27
432.610	1	32
432.780	1	14
432.951	1	15
433.121	1	16
433.292	1	14
433.462	1	10
433.633	1	22
433.804	1	25
433.974	1	18
434.145	1	25
434.315	1	28
434.486	1	11
434.656	1	23
434.827	1	26
434.997	1	22
435.168	1	30
435.339	1	28
435.509	1	30
435.680	1	21
435.850	1	23
436.021	1	21
436.191	1	19
436.362	1	26
436.532	1	35
436.703	1	15
436.873	1	35
437.044	1	15
437.214	1	30
437.385	1	32
437.556	1	18
437.726	1	11
437.897	1	24
438.067	1	14
438.238	1	15
438.408	1	23
438.579	1	25
438.749	1	22
438.920	1	20
439.090	1	16
439.261	1	13
439.431	1	23
439.602	1	26
439.772	1	23
439.943	1	18
440.113	1	6
440.284	1	15
440.455	1	24
440.625	1	28
440.796	1	26
440.966	1	20
441.137	1	18
441.307	1	19
441.478	1	16
441.648	1	16
441.819	1	19
441.989	1	28
442.160	1	18
442.330	1	17
442.501	1	33
442.671	1	11
442.842	1	23
443.012	1	35
443.183	1	25
443.353	1	18
443.524	1	22
443.694	1	19
443.865	1	24
444.035	1	15
444.206	1	19
444.376	1	17
444.547	1	27
444.717	1	18
444.888	1	17
445.058	1	24
445.229	1	17
445.399	1	29
445.570	1	31
445.740	1	20
445.911	1	9
446.081	1	21
446.252	1	27
446.422	1	21
446.593	1	11
446.763	1	26
446.934	1	15
447.104	1	20
447.275	1	10
447.445	1	13
447.616	1	19
447.786	1	24
447.957	1	12
448.127	1	11
448.298	1	12
448.468	1	9
448.639	1	20
448.809	1	17
448.979	1	19
449.150	1	22
449.320	1	7
449.491	1	12
449.661	1	12
449.832	1	11
450.002	1	16
450.173	1	20
450.343	1	32
450.514	1	20
450.684	1	19
450.855	1	25
451.025	1	15
451.196	1	4
451.366	1	13
451.537	1	17
451.707	1	24
451.878	1	15
452.048	1	19
452.218	1	11
452.389	1	25
452.559	1	26
452.730	1	6
452.900	1	14
453.071	1	21
453.241	1	11
453.412	1	9
453.582	1	21
453.753	1	13
453.923	1	24
454.093	1	27
454.264	1	14
454.434	1	23
454.605	1	19
454.775	1	14
454.946	1	10
455.116	1	7
455.287	1	24
455.457	1	25
455.628	1	4
455.798	1	17
455.968	1	18
456.139	1	13
456.309	1	25
456.480	1	15
456.650	1	12
456.821	1	16
456.991	1	17
457.161	1	17
457.332	1	15
457.502	1	17
457.673	1	20
457.843	1	12
458.014	1	23
458.184	1	15
458.355	1	11
458.525	1	10
458.695	1	21
458.866	1	24
459.036	1	24
459.207	1	21
459.377	1	13
459.548	1	22
459.718	1	15
459.888	1	22
460.059	1	25
460.229	1	14
460.400	1	6
460.570	1	19
460.740	1	17
460.911	1	17
461.081	1	10
461.252	1	14
461.422	1	12
461.593	1	10
461.763	1	18
461.933	1	15
462.104	1	23
462.274	1	18
462.445	1	15
462.615	1	17
462.785	1	23
462.956	1	20
463.126	1	16
463.297	1	24
463.467	1	22
463.638	1	13
463.808	1	19
463.978	1	7
464.149	1	6
464.319	1	19
464.490	1	26
464.660	1	23
464.830	1	10
465.001	1	-1
465.171	1	7
465.342	1	12
465.512	1	15
465.682	1	20
465.853	1	14
466.023	1	30
466.194	1	8
466.364	1	16
466.534	1	13
466.705	1	19
466.875	1	18
467.045	1	23
467.216	1	14
467.386	1	23
467.557	1	22
467.727	1	23
467.897	1	34
468.068	1	13
468.238	1	16
468.409	1	19
468.579	1	11
468.749	1	13
468.920	1	18
469.090	1	5
469.260	1	24
469.431	1	17
469.601	1	17
469.772	1	9
469.942	1	19
470.112	1	17
470.283	1	14
470.453	1	16
470.623	1	13
470.794	1	14
470.964	1	21
471.135	1	19
471.305	1	7
471.475	1	20
471.646	1	20
471.816	1	13
471.986	1	9
472.157	1	14
472.327	1	15
472.497	1	21
472.668	1	10
472.838	1	13
473.009	1	6
473.179	1	23
473.349	1	13
473.520	1	14
473.690	1	12
473.860	1	6
474.031	1	9
474.201	1	17
474.371	1	14
474.542	1	24
474.712	1	7
474.882	1	13
475.053	1	10
475.223	1	10
475.394	1	9
475.564	1	11
475.734	1	16
475.905	1	17
476.075	1	0
476.245	1	13
476.416	1	14
476.586	1	15
476.756	1	2
476.927	1	16
477.097	1	10
477.267	1	23
477.438	1	8
477.608	1	8
477.778	1	14
477.949	1	8
478.119	1	14
478.289	1	5
478.460	1	14
478.630	1	22
478.800	1	11
478.971	1	8
479.141	1	10
479.311	1	7
479.482	1	-5
479.652	1	16
479.822	1	3
479.993	1	19
480.163	1	20
480.333	1	22
480.504	1	6
480.674	1	5
480.844	1	6
481.015	1	10
481.185	1	6
481.355	1	13
481.525	1	5
481.696	1	8
481.866	1	9
482.036	1	13
482.207	1	15
482.377	1	18
482.547	1	14
482.718	1	11
482.888	1	-4
483.058	1	14
483.229	1	27
483.399	1	7
483.569	1	4
483.740	1	14
483.910	1	26
484.080	1	24
484.250	1	-1
484.421	1	17
484.591	1	16
484.761	1	8
484.932	1	19
485.102	1	-1
485.272	1	7
485.443	1	9
485.613	1	4
485.783	1	16
485.953	1	4
486.124	1	10
486.294	1	6
486.464	1	3
486.635	1	2
486.805	1	23
486.975	1	14
487.146	1	17
487.316	1	5
487.486	1	10
487.656	1	15
487.827	1	13
487.997	1	12
488.167	1	24
488.338	1	1
488.508	1	5
488.678	1	19
488.848	1	7
489.019	1	2
489.189	1	3
489.359	1	4
489.529	1	-4
489.700	1	2
489.870	1	13
490.040	1	-4
490.211	1	7
490.381	1	22
490.551	1	7
490.721	1	8
490.892	1	22
491.062	1	9
491.232	1	1
491.402	1	-4
491.573	1	-1
491.743	1	9
491.913	1	5
492.084	1	7
492.254	1	14
492.424	1	5
492.594	1	7
492.765	1	11
492.935	1	-1
493.105	1	-10
493.275	1	13
493.446	1	19
493.616	1	-1
493.786	1	9
493.956	1	6
494.127	1	8
494.297	1	19
494.467	1	11
494.637	1	8
494.808	1	8
494.978	1	-3
495.148	1	19
495.318	1	5
495.489	1	10
495.659	1	13
495.829	1	8
495.999	1	6
496.170	1	3
496.340	1	-2
496.510	1	19
496.680	1	13
496.851	1	18
497.021	1	11
497.191	1	3
497.361	1	10
497.532	1	12
497.702	1	11
497.872	1	14
498.042	1	24
498.213	1	4
498.383	1	10
498.553	1	11
498.723	1	2
498.894	1	18
499.064	1	4
499.234	1	10
499.404	1	9
499.574	1	20
499.745	1	6
499.915	1	0
500.085	1	7
500.255	1	1
500.426	1	5
500.596	1	20
500.766	1	3
500.936	1	3
501.106	1	8
501.277	1	10
501.447	1	10
501.617	1	5
501.787	1	9
501.958	1	5
502.128	1	11
502.298	1	15
502.468	1	8
502.638	1	23
502.809	1	11
502.979	1	11
503.149	1	13
503.319	1	9
503.489	1	8
503.660	1	19
503.830	1	11
504.000	1	8
504.170	1	7
504.340	1	5
504.511	1	15
504.681	1	-1
504.851	1	-4
505.021	1	5
505.192	1	15
505.362	1	15
505.532	1	6
505.702	1	11
505.872	1	12
506.043	1	3
506.213	1	7
506.383	1	0
506.553	1	11
506.723	1	4
506.893	1	10
507.064	1	12
507.234	1	0
507.404	1	8
507.574	1	6
507.744	1	6
507.915	1	9
508.085	1	9
508.255	1	5
508.425	1	14
508.595	1	-3
508.766	1	9
508.936	1	14
509.106	1	-1
509.276	1	12
509.446	1	-1
509.616	1	16
509.787	1	9
509.957	1	12
510.127	1	9
510.297	1	2
510.467	1	16
510.638	1	6
510.808	1	4
510.978	1	7
511.148	1	2
511.318	1	12
511.488	1	-1
511.659	1	-5
511.829	1	0
511.999	1	4
512.169	1	-7
512.339	1	10
512.509	1	5
512.680	1	7
512.850	1	14
513.020	1	9
513.190	1	5
513.360	1	7
513.530	1	7
513.700	1	21
513.871	1	12
514.041	1	15
514.211	1	10
514.381	1	4
514.551	1	3
514.721	1	19
514.892	1	8
515.062	1	7
515.232	1	1
515.402	1	17
515.572	1	2
515.742	1	3
515.912	1	11
516.083	1	8
516.253	1	1
516.423	1	2
516.593	1	8
516.763	1	0
516.933	1	2
517.104	1	7
517.274	1	11
517.444	1	1
517.614	1	-2
517.784	1	6
517.954	1	11
518.124	1	5
518.294	1	13
518.465	1	15
518.635	1	-11
518.805	1	3
518.975	1	8
519.145	1	5
519.315	1	8
519.485	1	8
519.656	1	16
519.826	1	5
519.996	1	-4
520.166	1	7
520.336	1	20
520.506	1	12
520.676	1	9
520.846	1	12
521.017	1	6
521.187	1	0
521.357	1	2
521.527	1	1
521.697	1	2
521.867	1	5
522.037	1	1
522.207	1	8
522.377	1	4
522.548	1	10
522.718	1	8
522.888	1	-2
523.058	1	-1
523.228	1	19
523.398	1	1
523.568	1	2
523.738	1	9
523.909	1	3
524.079	1	11
524.249	1	-2
524.419	1	-2
524.589	1	15
524.759	1	4
524.929	1	13
525.099	1	12
525.269	1	7
525.439	1	2
525.610	1	4
525.780	1	10
525.950	1	10
526.120	1	7
526.290	1	9
526.460	1	9
526.630	1	6
526.800	1	3
526.970	1	6
527.140	1	11
527.311	1	-1
527.481	1	0
527.651	1	8
527.821	1	-1
527.991	1	1
528.161	1	1
528.331	1	4
528.501	1	6
528.671	1	13
528.841	1	6
529.011	1	5
529.181	1	14
529.352	1	6
529.522	1	-4
529.692	1	-2
529.862	1	1
530.032	1	0
530.202	1	10
530.372	1	1
530.542	1	1
530.712	1	-10
530.882	1	2
531.052	1	5
531.222	1	0
531.392	1	2
531.563	1	4
531.733	1	14
531.903	1	6
532.073	1	7
532.243	1	12
532.413	1	3
532.583	1	-6
532.753	1	-1
532.923	1	7
533.093	1	0
533.263	1	2
533.433	1	6
533.603	1	0
533.773	1	3
533.943	1	9
534.113	1	13
534.284	1	7
534.454	1	1
534.624	1	5
534.794	1	9
534.964	1	7
535.134	1	5
535.304	1	5
535.474	1	-7
535.644	1	9
535.814	1	7
535.984	1	2
536.154	1	6
536.324	1	1
536.494	1	14
536.664	1	-9
536.834	1	2
537.004	1	3
537.174	1	10
537.344	1	9
537.514	1	13
537.685	1	0
537.855	1	13
538.025	1	-1
538.195	1	14
538.365	1	-4
538.535	1	13
538.705	1	4
538.875	1	5
539.045	1	1
539.215	1	11
539.385	1	7
539.555	1	2
539.725	1	9
539.895	1	12
540.065	1	7
540.235	1	-1
540.405	1	13
540.575	1	12
540.745	1	4
540.915	1	6
541.085	1	6
541.255	1	6
541.425	1	-8
541.595	1	-10
541.765	1	9
541.935	1	9
542.105	1	-3
542.275	1	8
542.445	1	3
542.615	1	16
542.785	1	12
542.955	1	8
543.125	1	2
543.295	1	17
543.465	1	3
543.635	1	-4
543.805	1	6
543.975	1	0
544.145	1	12
544.315	1	7
544.485	1	7
544.655	1	5
544.825	1	4
544.995	1	10
545.165	1	23
545.335	1	-5
545.505	1	3
545.675	1	11
545.845	1	-3
546.015	1	3
546.185	1	-2
546.355	1	3
546.525	1	2
546.695	1	8
546.865	1	-9
547.035	1	9
547.205	1	12
547.375	1	5
547.545	1	7
547.715	1	7
547.885	1	9
548.055	1	2
548.225	1	-6
548.395	1	20
548.565	1	2
548.735	1	9
548.905	1	5
549.075	1	7
549.245	1	4
549.415	1	6
549.585	1	12
549.755	1	0
549.925	1	-2
550.095	1	-1
550.265	1	-1
550.435	1	4
550.605	1	5
550.775	1	5
550.945	1	3
551.115	1	0
551.285	1	9
551.455	1	-3
551.625	1	3
551.795	1	10
551.965	1	3
552.135	1	-8
552.305	1	9
552.475	1	12
552.645	1	16
552.815	1	1
552.985	1	-1
553.155	1	7
553.325	1	-2
553.495	1	-3
553.665	1	13
553.835	1	-10
554.004	1	5
554.174	1	-5
554.344	1	4
554.514	1	8
554.684	1	5
554.854	1	1
555.024	1	12
555.194	1	0
555.364	1	1
555.534	1	4
555.704	1	-11
555.874	1	16
556.044	1	-3
556.214	1	-5
556.384	1	5
556.554	1	-3
556.724	1	1
556.894	1	5
557.064	1	2
557.234	1	-3
557.404	1	10
557.573	1	5
557.743	1	4
557.913	1	-3
558.083	1	-5
558.253	1	5
558.423	1	3
558.593	1	11
558.763	1	2
558.933	1	3
559.103	1	-6
559.273	1	1
559.443	1	-5
559.613	1	3
559.783	1	10
559.953	1	3
560.122	1	5
560.292	1	4
560.462	1	6
560.632	1	4
560.802	1	3
560.972	1	1
561.142	1	7
561.312	1	-1
561.482	1	9
561.652	1	2
561.822	1	10
561.992	1	3
562.162	1	-1
562.331	1	0
562.501	1	-4
562.671	1	-1
562.841	1	7
563.011	1	8
563.181	1	17
563.351	1	4
563.521	1	6
563.691	1	-2
563.861	1	11
564.031	1	0
564.201	1	4
564.370	1	4
564.540	1	6
564.710	1	9
564.880	1	15
565.050	1	-2
565.220	1	5
565.390	1	8
565.560	1	4
565.730	1	6
565.900	1	-7
566.069	1	3
566.239	1	-8
566.409	1	8
566.579	1	2
566.749	1	17
566.919	1	2
567.089	1	-7
567.259	1	7
567.429	1	-3
567.599	1	1
567.768	1	7
567.938	1	-13
568.108	1	1
568.278	1	-1
568.448	1	8
568.618	1	14
568.788	1	4
568.958	1	19
569.128	1	-4
569.297	1	6
569.467	1	14
569.637	1	1
569.807	1	7
569.977	1	-3
570.147	1	-5
570.317	1	13
570.487	1	6
570.656	1	7
570.826	1	6
570.996	1	3
571.166	1	-4
571.336	1	6
571.506	1	-5
571.676	1	9
571.846	1	0
572.015	1	2
572.185	1	7
572.355	1	-1
572.525	1	10
572.695	1	14
572.865	1	-1
573.035	1	-2
573.205	1	-4
573.374	1	-2
573.544	1	4
573.714	1	9
573.884	1	11
574.054	1	9
574.224	1	7
574.394	1	1
574.563	1	4
574.733	1	-1
574.903	1	14
575.073	1	-2
575.243	1	6
575.413	1	0
575.583	1	1
575.752	1	-7
575.922	1	-1
576.092	1	8
576.262	1	4
576.432	1	12
576.602	1	0
576.772	1	-3
576.941	1	5
577.111	1	3
577.281	1	14
577.451	1	8
577.621	1	-1
577.791	1	-6
577.960	1	8
578.130	1	-5
578.300	1	4
578.470	1	-3
578.640	1	3
578.810	1	12
578.979	1	1
579.149	1	0
579.319	1	-10
579.489	1	-2
579.659	1	1
579.829	1	6
579.998	1	6
580.168	1	0
580.338	1	5
580.508	1	7
580.678	1	-7
580.848	1	3
581.017	1	17
581.187	1	7
581.357	1	1
581.527	1	-7
581.697	1	5
581.867	1	-10
582.036	1	-5
582.206	1	7
582.376	1	4
582.546	1	3
582.716	1	5
582.885	1	9
583.055	1	3
583.225	1	-5
583.395	1	4
583.565	1	18
583.735	1	6
583.904	1	1
584.074	1	2
584.244	1	9
584.414	1	1
584.584	1	0
584.753	1	11
584.923	1	0
585.093	1	8
585.263	1	6
585.433	1	1
585.602	1	4
585.772	1	10
585.942	1	-9
586.112	1	9
586.282	1	4
586.451	1	-3
586.621	1	4
586.791	1	1
586.961	1	11
587.131	1	9
587.300	1	-2
587.470	1	4
587.640	1	-8
587.810	1	-1
587.980	1	9
588.149	1	5
588.319	1	2
588.489	1	12
588.659	1	4
588.829	1	9
588.998	1	15
589.168	1	-4
589.338	1	14
589.508	1	1
589.677	1	10
589.847	1	3
590.017	1	8
590.187	1	4
590.357	1	-9
590.526	1	13
590.696	1	8
590.866	1	7
591.036	1	-2
591.205	1	-7
591.375	1	8
591.545	1	0
591.715	1	5
591.885	1	5
592.054	1	5
592.224	1	4
592.394	1	7
592.564	1	-3
592.733	1	17
592.903	1	3
593.073	1	3
593.243	1	1
593.412	1	0
593.582	1	9
593.752	1	4
593.922	1	1
594.091	1	8
594.261	1	5
594.431	1	5
594.601	1	4
594.771	1	-4
594.940	1	2
595.110	1	6
595.280	1	3
595.450	1	8
595.619	1	3
595.789	1	6
595.959	1	5
596.129	1	14
596.298	1	8
596.468	1	-1
596.638	1	14
596.808	1	7
596.977	1	6
597.147	1	6
597.317	1	-3
597.487	1	2
597.656	1	5
597.826	1	-5
597.996	1	8
598.166	1	-2
598.335	1	12
598.505	1	5
598.675	1	1
598.844	1	-3
599.014	1	3
599.184	1	18
599.354	1	-1
599.523	1	0
599.693	1	8
599.863	1	-6
600.033	1	-4
600.202	1	-1
600.372	1	1
600.542	1	11
600.712	1	6
600.881	1	1
601.051	1	-4
601.221	1	-4
601.390	1	3
601.560	1	5
601.730	1	10
601.900	1	8
602.069	1	7
602.239	1	-5
602.409	1	11
602.578	1	-8
602.748	1	14
602.918	1	1
603.088	1	5
603.257	1	5
603.427	1	4
603.597	1	5
603.767	1	1
603.936	1	20
604.106	1	9
604.276	1	-6
604.445	1	4
604.615	1	-5
604.785	1	2
604.954	1	15
605.124	1	-3
605.294	1	8
605.464	1	11
605.633	1	14
605.803	1	0
605.973	1	0
606.142	1	1
606.312	1	-4
606.482	1	7
606.652	1	5
606.821	1	6
606.991	1	1
607.161	1	23
607.330	1	-2
607.500	1	5
607.670	1	-7
607.839	1	8
608.009	1	-16
608.179	1	7
608.348	1	12
608.518	1	6
608.688	1	4
608.858	1	-3
609.027	1	3
609.197	1	5
609.367	1	4
609.536	1	-1
609.706	1	7
609.876	1	-4
610.045	1	0
610.215	1	1
610.385	1	18
610.554	1	-5
610.724	1	20
610.894	1	1
611.063	1	-3
611.233	1	8
611.403	1	6
611.572	1	3
611.742	1	-2
611.912	1	2
612.081	1	6
612.251	1	10
612.421	1	-1
612.590	1	-6
612.760	1	4
612.930	1	0
613.099	1	13
613.269	1	3
613.439	1	9
613.608	1	8
613.778	1	5
613.948	1	15
614.117	1	7
614.287	1	4
614.457	1	-10
614.626	1	-3
614.796	1	0
614.966	1	-5
615.135	1	3
615.305	1	1
615.475	1	3
615.644	1	8
615.814	1	4
615.984	1	1
616.153	1	-4
616.323	1	-2
616.493	1	10
616.662	1	8
616.832	1	2
617.002	1	11
617.171	1	1
617.341	1	5
617.511	1	1
617.680	1	8
617.850	1	-2
618.019	1	4
618.189	1	6
618.359	1	-2
618.528	1	8
618.698	1	10
618.868	1	19
619.037	1	8
619.207	1	-5
619.377	1	6
619.546	1	-4
619.716	1	1
619.885	1	9
620.055	1	-1
620.225	1	7
620.394	1	11
620.564	1	6
620.734	1	4
620.903	1	5
621.073	1	11
621.242	1	-6
621.412	1	-3
621.582	1	-2
621.751	1	2
621.921	1	2
622.091	1	-2
622.260	1	11
622.430	1	10
622.599	1	7
622.769	1	0
622.939	1	11
623.108	1	10
623.278	1	16
623.448	1	6
623.617	1	3
623.787	1	5
623.956	1	-4
624.126	1	18
624.296	1	10
624.465	1	4
624.635	1	-1
624.804	1	2
624.974	1	7
625.144	1	9
625.313	1	3
625.483	1	4
625.652	1	8
625.822	1	8
625.992	1	0
626.161	1	-5
626.331	1	2
626.501	1	8
626.670	1	5
626.840	1	-3
627.009	1	3
627.179	1	10
627.348	1	2
627.518	1	21
627.688	1	5
627.857	1	6
628.027	1	8
628.196	1	5
628.366	1	1
628.536	1	-2
628.705	1	3
628.875	1	-3
629.044	1	-8
629.214	1	5
629.384	1	9
629.553	1	6
629.723	1	4
629.892	1	-5
630.062	1	17
630.232	1	-9
630.401	1	12
630.571	1	6
630.740	1	10
630.910	1	9
631.079	1	9
631.249	1	-3
631.419	1	9
631.588	1	-5
631.758	1	-1
631.927	1	5
632.097	1	13
632.266	1	12
632.436	1	-3
632.606	1	8
632.775	1	3
632.945	1	-2
633.114	1	1
633.284	1	3
633.453	1	6
633.623	1	5
633.793	1	2
633.962	1	-2
634.132	1	16
634.301	1	6
634.471	1	15
634.640	1	13
634.810	1	12
634.979	1	16
635.149	1	4
635.319	1	7
635.488	1	7
635.658	1	-2
635.827	1	10
635.997	1	5
636.166	1	-1
636.336	1	7
636.505	1	7
636.675	1	0
636.845	1	12
637.014	1	15
637.184	1	1
637.353	1	7
637.523	1	2
637.692	1	13
637.862	1	-6
638.031	1	0
638.201	1	12
638.370	1	5
638.540	1	-1
638.710	1	8
638.879	1	3
639.049	1	2
639.218	1	-3
639.388	1	10
639.557	1	13
639.727	1	7
639.896	1	2
640.066	1	10
640.235	1	2
640.405	1	2
640.574	1	-1
640.744	1	20
640.914	1	1
641.083	1	4
641.253	1	5
641.422	1	5
641.592	1	1
641.761	1	8
641.931	1	-4
642.100	1	3
642.270	1	8
642.439	1	0
642.609	1	10
642.778	1	9
642.948	1	2
643.117	1	10
643.287	1	-6
643.456	1	-4
643.626	1	-1
643.795	1	-3
643.965	1	3
644.134	1	1
644.304	1	13
644.473	1	-2
644.643	1	-1
644.812	1	2
644.982	1	1
645.151	1	-2
645.321	1	-1
645.490	1	10
645.660	1	7
645.829	1	-1
645.999	1	16
646.168	1	7
646.338	1	2
646.507	1	3
646.677	1	15
646.846	1	9
647.016	1	0
647.185	1	6
647.355	1	10
647.524	1	3
647.694	1	10
647.863	1	2
648.033	1	7
648.202	1	1
648.372	1	3
648.541	1	6
648.711	1	4
648.880	1	0
649.050	1	5
649.219	1	-2
649.389	1	10
649.558	1	8
649.728	1	5
649.897	1	-2
650.067	1	-4
650.236	1	18
650.406	1	-7
650.575	1	7
650.745	1	1
650.914	1	14
651.084	1	-5
651.253	1	10
651.423	1	-1
651.592	1	4
651.762	1	10
651.931	1	2
652.101	1	5
652.270	1	0
652.440	1	6
652.609	1	7
652.778	1	19
652.948	1	-2
653.117	1	25
653.287	1	4
653.456	1	8
653.626	1	3
653.795	1	-1
653.965	1	6
654.134	1	6
654.304	1	9
654.473	1	7
654.643	1	4
654.812	1	8
654.982	1	19
655.151	1	8
655.320	1	4
655.490	1	7
655.659	1	3
655.829	1	-7
655.998	1	9
656.168	1	0
656.337	1	5
656.507	1	10
656.676	1	-2
656.846	1	1
657.015	1	9
657.184	1	0
657.354	1	2
657.523	1	7
657.693	1	7
657.862	1	8
658.032	1	-5
658.201	1	3
658.371	1	7
658.540	1	13
658.709	1	6
658.879	1	-12
659.048	1	0
659.218	1	4
659.387	1	5
659.557	1	8
659.726	1	13
659.895	1	-7
660.065	1	11
660.234	1	1
660.404	1	26
660.573	1	6
660.743	1	15
660.912	1	5
661.081	1	8
661.251	1	0
661.420	1	13
661.590	1	5
661.759	1	8
661.929	1	9
662.098	1	18
662.267	1	10
662.437	1	15
662.606	1	9
662.776	1	7
662.945	1	10
663.115	1	-8
663.284	1	-2
663.453	1	5
663.623	1	6
663.792	1	0
663.962	1	0
664.131	1	3
664.300	1	0
664.470	1	2
664.639	1	2
664.809	1	10
664.978	1	9
665.148	1	14
665.317	1	5
665.486	1	-2
665.656	1	-3
665.825	1	7
665.995	1	11
666.164	1	11
666.333	1	2
666.503	1	19
666.672	1	8
666.842	1	-4
667.011	1	1
667.180	1	3
667.350	1	5
667.519	1	4
667.689	1	16
667.858	1	16
668.027	1	0
668.197	1	-1
668.366	1	4
668.536	1	4
668.705	1	5
668.874	1	11
669.044	1	9
669.213	1	11
669.382	1	19
669.552	1	-2
669.721	1	-6
669.891	1	-1
670.060	1	-1
670.229	1	9
670.399	1	7
670.568	1	16
670.738	1	3
670.907	1	4
671.076	1	8
671.246	1	-3
671.415	1	6
671.584	1	-5
671.754	1	10
671.923	1	0
672.093	1	14
672.262	1	6
672.431	1	19
672.601	1	2
672.770	1	3
672.939	1	-2
673.109	1	10
673.278	1	11
673.448	1	6
673.617	1	7
673.786	1	5
