325.333	1	15
325.504	1	22
325.675	1	21
325.846	1	29
326.017	1	17
326.188	1	26
326.359	1	25
326.531	1	19
326.702	1	22
326.873	1	30
327.044	1	20
327.215	1	19
327.386	1	15
327.557	1	33
327.728	1	4
327.899	1	17
328.070	1	32
328.241	1	22
328.412	1	15
328.583	1	22
328.754	1	19
328.926	1	17
329.097	1	19
329.268	1	30
329.439	1	21
329.610	1	23
329.781	1	35
329.952	1	15
330.123	1	20
330.294	1	28
330.465	1	30
330.636	1	27
330.807	1	27
330.978	1	26
331.149	1	35
331.320	1	32
331.492	1	33
331.663	1	31
331.834	1	19
332.005	1	19
332.176	1	27
332.347	1	27
332.518	1	19
332.689	1	31
332.860	1	27
333.031	1	38
333.202	1	51
333.373	1	31
333.544	1	27
333.715	1	31
333.886	1	30
334.057	1	26
334.228	1	35
334.399	1	31
334.570	1	39
334.741	1	32
334.912	1	38
335.084	1	37
335.255	1	30
335.426	1	38
335.597	1	34
335.768	1	16
335.939	1	34
336.110	1	33
336.281	1	26
336.452	1	46
336.623	1	39
336.794	1	25
336.965	1	38
337.136	1	32
337.307	1	40
337.478	1	28
337.649	1	35
337.820	1	36
337.991	1	40
338.162	1	36
338.333	1	40
338.504	1	33
338.675	1	41
338.846	1	41
339.017	1	40
339.188	1	45
339.359	1	42
339.530	1	40
339.701	1	40
339.872	1	35
340.043	1	37
340.214	1	42
340.385	1	45
340.556	1	35
340.727	1	27
340.898	1	30
341.069	1	39
341.240	1	53
341.411	1	46
341.582	1	45
341.753	1	28
341.924	1	41
342.095	1	31
342.266	1	41
342.437	1	36
342.608	1	33
342.779	1	39
342.950	1	44
343.121	1	45
343.292	1	39
343.463	1	44
343.634	1	54
343.805	1	38
343.976	1	45
344.147	1	45
344.318	1	42
344.489	1	47
344.660	1	45
344.831	1	49
345.002	1	54
345.173	1	49
345.344	1	34
345.515	1	52
345.686	1	49
345.857	1	51
346.028	1	51
346.199	1	54
346.370	1	43
346.541	1	68
346.712	1	38
346.883	1	58
347.054	1	46
347.225	1	41
347.396	1	48
347.567	1	53
347.738	1	51
347.909	1	53
348.080	1	44
348.251	1	54
348.422	1	50
348.593	1	56
348.764	1	48
348.935	1	57
349.106	1	57
349.277	1	63
349.448	1	54
349.619	1	61
349.790	1	60
349.961	1	55
350.132	1	50
350.303	1	62
350.474	1	62
350.645	1	55
350.816	1	55
350.987	1	59
351.157	1	60
351.328	1	66
351.499	1	57
351.670	1	62
351.841	1	57
352.012	1	56
352.183	1	50
352.354	1	58
352.525	1	50
352.696	1	52
352.867	1	50
353.038	1	63
353.209	1	71
353.380	1	69
353.551	1	68
353.722	1	56
353.893	1	63
354.064	1	66
354.235	1	62
354.406	1	66
354.576	1	62
354.747	1	69
354.918	1	70
355.089	1	64
355.260	1	69
355.431	1	64
355.602	1	72
355.773	1	70
355.944	1	64
356.115	1	58
356.286	1	67
356.457	1	73
356.628	1	72
356.799	1	65
356.970	1	66
357.141	1	76
357.311	1	74
357.482	1	68
357.653	1	49
357.824	1	78
357.995	1	70
358.166	1	63
358.337	1	69
358.508	1	75
358.679	1	70
358.850	1	67
359.021	1	69
359.192	1	74
359.363	1	62
359.533	1	64
359.704	1	73
359.875	1	89
360.046	1	71
360.217	1	68
360.388	1	71
360.559	1	78
360.730	1	68
360.901	1	69
361.072	1	69
361.243	1	72
361.414	1	76
361.584	1	68
361.755	1	64
361.926	1	71
362.097	1	70
362.268	1	66
362.439	1	77
362.610	1	67
362.781	1	76
362.952	1	80
363.123	1	97
363.293	1	78
363.464	1	74
363.635	1	80
363.806	1	74
363.977	1	73
364.148	1	67
364.319	1	74
364.490	1	78
364.661	1	81
364.832	1	81
365.002	1	77
365.173	1	73
365.344	1	75
365.515	1	73
365.686	1	72
365.857	1	86
366.028	1	76
366.199	1	81
366.370	1	82
366.540	1	77
366.711	1	76
366.882	1	72
367.053	1	74
367.224	1	75
367.395	1	71
367.566	1	86
367.737	1	83
367.908	1	69
368.078	1	89
368.249	1	71
368.420	1	79
368.591	1	86
368.762	1	70
368.933	1	74
369.104	1	80
369.274	1	94
369.445	1	82
369.616	1	81
369.787	1	84
369.958	1	83
370.129	1	83
370.300	1	79
370.471	1	91
370.641	1	83
370.812	1	82
370.983	1	87
371.154	1	81
371.325	1	87
371.496	1	73
371.667	1	82
371.837	1	90
372.008	1	72
372.179	1	81
372.350	1	87
372.521	1	79
372.692	1	88
372.863	1	77
373.033	1	91
373.204	1	79
373.375	1	85
373.546	1	91
373.717	1	77
373.888	1	85
374.059	1	94
374.229	1	83
374.400	1	73
374.571	1	87
374.742	1	91
374.913	1	73
375.084	1	95
375.254	1	87
375.425	1	89
375.596	1	63
375.767	1	92
375.938	1	94
376.109	1	81
376.279	1	84
376.450	1	92
376.621	1	94
376.792	1	90
376.963	1	80
377.134	1	93
377.304	1	81
377.475	1	95
377.646	1	88
377.817	1	76
377.988	1	95
378.159	1	87
378.329	1	93
378.500	1	87
378.671	1	94
378.842	1	84
379.013	1	91
379.184	1	97
379.354	1	77
379.525	1	89
379.696	1	92
379.867	1	98
380.038	1	85
380.209	1	88
380.379	1	79
380.550	1	100
380.721	1	100
380.892	1	88
381.063	1	100
381.233	1	83
381.404	1	96
381.575	1	100
381.746	1	98
381.917	1	89
382.087	1	94
382.258	1	91
382.429	1	105
382.600	1	108
382.771	1	110
382.941	1	88
383.112	1	94
383.283	1	102
383.454	1	101
383.625	1	114
383.795	1	98
383.966	1	99
384.137	1	104
384.308	1	99
384.479	1	98
384.649	1	86
384.820	1	103
384.991	1	102
385.162	1	88
385.333	1	105
385.503	1	101
385.674	1	97
385.845	1	98
386.016	1	93
386.187	1	102
386.357	1	112
386.528	1	97
386.699	1	99
386.870	1	94
387.041	1	102
387.211	1	96
387.382	1	102
387.553	1	98
387.724	1	93
387.894	1	94
388.065	1	95
388.236	1	97
388.407	1	104
388.578	1	99
388.748	1	102
388.919	1	110
389.090	1	113
389.261	1	112
389.431	1	105
389.602	1	103
389.773	1	106
389.944	1	106
390.114	1	108
390.285	1	97
390.456	1	101
390.627	1	105
390.798	1	117
390.968	1	102
391.139	1	113
391.310	1	122
391.481	1	101
391.651	1	117
391.822	1	106
391.993	1	119
392.164	1	101
392.334	1	113
392.505	1	94
392.676	1	116
392.847	1	111
393.017	1	122
393.188	1	103
393.359	1	123
393.530	1	110
393.700	1	117
393.871	1	99
394.042	1	109
394.213	1	117
394.383	1	115
394.554	1	122
394.725	1	106
394.896	1	113
395.066	1	106
395.237	1	101
395.408	1	116
395.579	1	99
395.749	1	112
395.920	1	113
396.091	1	113
396.262	1	113
396.432	1	114
396.603	1	118
396.774	1	110
396.945	1	114
397.115	1	114
397.286	1	107
397.457	1	123
397.627	1	103
397.798	1	96
397.969	1	104
398.140	1	115
398.310	1	108
398.481	1	118
398.652	1	131
398.823	1	100
398.993	1	111
399.164	1	110
399.335	1	106
399.505	1	119
399.676	1	110
399.847	1	128
400.018	1	119
400.188	1	120
400.359	1	108
400.530	1	111
400.700	1	121
400.871	1	132
401.042	1	112
401.213	1	104
401.383	1	109
401.554	1	124
401.725	1	117
401.895	1	126
402.066	1	110
402.237	1	127
402.408	1	128
402.578	1	120
402.749	1	110
402.920	1	117
403.090	1	128
403.261	1	125
403.432	1	133
403.603	1	115
403.773	1	131
403.944	1	125
404.115	1	122
404.285	1	121
404.456	1	113
404.627	1	112
404.797	1	106
404.968	1	131
405.139	1	113
405.310	1	114
405.480	1	113
405.651	1	128
405.822	1	118
405.992	1	119
406.163	1	116
406.334	1	112
406.504	1	116
406.675	1	116
406.846	1	131
407.016	1	111
407.187	1	125
407.358	1	129
407.528	1	116
407.699	1	125
407.870	1	116
408.041	1	115
408.211	1	108
408.382	1	116
408.553	1	116
408.723	1	129
408.894	1	113
409.065	1	138
409.235	1	122
409.406	1	131
409.577	1	120
409.747	1	114
409.918	1	115
410.089	1	121
410.259	1	124
410.430	1	122
410.601	1	122
410.771	1	136
410.942	1	126
411.113	1	114
411.283	1	125
411.454	1	126
411.625	1	122
411.795	1	134
411.966	1	119
412.137	1	116
412.307	1	126
412.478	1	129
412.649	1	121
412.819	1	122
412.990	1	117
413.161	1	113
413.331	1	114
413.502	1	120
413.672	1	125
413.843	1	124
414.014	1	124
414.184	1	115
414.355	1	129
414.526	1	117
414.696	1	126
414.867	1	127
415.038	1	116
415.208	1	115
415.379	1	113
415.550	1	133
415.720	1	127
415.891	1	122
416.062	1	124
416.232	1	108
416.403	1	108
416.573	1	123
416.744	1	115
416.915	1	127
417.085	1	118
417.256	1	116
417.427	1	125
417.597	1	116
417.768	1	122
417.939	1	123
418.109	1	126
418.280	1	110
418.450	1	124
418.621	1	108
418.792	1	116
418.962	1	107
419.133	1	111
419.304	1	113
419.474	1	103
419.645	1	115
419.815	1	118
419.986	1	107
420.157	1	100
420.327	1	116
420.498	1	105
420.669	1	113
420.839	1	108
421.010	1	119
421.180	1	121
421.351	1	118
421.522	1	110
421.692	1	118
421.863	1	114
422.033	1	119
422.204	1	107
422.375	1	101
422.545	1	120
422.716	1	92
422.886	1	116
423.057	1	104
423.228	1	110
423.398	1	113
423.569	1	121
423.740	1	114
423.910	1	108
424.081	1	106
424.251	1	117
424.422	1	121
424.593	1	115
424.763	1	112
424.934	1	105
425.104	1	106
425.275	1	110
425.445	1	116
425.616	1	105
425.787	1	99
425.957	1	119
426.128	1	108
426.298	1	101
426.469	1	103
426.640	1	127
426.810	1	102
426.981	1	105
427.151	1	109
427.322	1	109
427.493	1	113
427.663	1	104
427.834	1	118
428.004	1	104
428.175	1	109
428.345	1	108
428.516	1	110
428.687	1	110
428.857	1	107
429.028	1	97
429.198	1	104
429.369	1	107
429.540	1	104
429.710	1	108
429.881	1	108
430.051	1	92
430.222	1	110
430.392	1	109
430.563	1	117
430.734	1	104
430.904	1	100
431.075	1	109
431.245	1	111
431.416	1	111
431.586	1	100
431.757	1	110
431.927	1	103
432.098	1	107
432.269	1	90
432.439	1	115
432.610	1	113
432.780	1	111
432.951	1	100
433.121	1	91
433.292	1	93
433.462	1	106
433.633	1	103
433.804	1	106
433.974	1	89
434.145	1	105
434.315	1	107
434.486	1	99
434.656	1	93
434.827	1	95
434.997	1	104
435.168	1	113
435.339	1	104
435.509	1	108
435.680	1	98
435.850	1	98
436.021	1	100
436.191	1	109
436.362	1	105
436.532	1	109
436.703	1	104
436.873	1	99
437.044	1	96
437.214	1	114
437.385	1	114
437.556	1	100
437.726	1	100
437.897	1	94
438.067	1	97
438.238	1	97
438.408	1	95
438.579	1	109
438.749	1	97
438.920	1	108
439.090	1	104
439.261	1	96
439.431	1	114
439.602	1	97
439.772	1	103
439.943	1	96
440.113	1	88
440.284	1	107
440.455	1	104
440.625	1	107
440.796	1	99
440.966	1	96
441.137	1	94
441.307	1	106
441.478	1	90
441.648	1	91
441.819	1	93
441.989	1	113
442.160	1	86
442.330	1	95
442.501	1	100
442.671	1	102
442.842	1	88
443.012	1	103
443.183	1	100
443.353	1	102
443.524	1	73
443.694	1	98
443.865	1	82
444.035	1	90
444.206	1	90
444.376	1	85
444.547	1	90
444.717	1	91
444.888	1	87
445.058	1	102
445.229	1	97
445.399	1	104
445.570	1	80
445.740	1	76
445.911	1	82
446.081	1	92
446.252	1	95
446.422	1	80
446.593	1	79
446.763	1	98
446.934	1	86
447.104	1	88
447.275	1	83
447.445	1	79
447.616	1	81
447.786	1	97
447.957	1	98
448.127	1	80
448.298	1	79
448.468	1	81
448.639	1	88
448.809	1	87
448.979	1	81
449.150	1	88
449.320	1	90
449.491	1	81
449.661	1	74
449.832	1	80
450.002	1	80
450.173	1	87
450.343	1	94
450.514	1	82
450.684	1	90
450.855	1	91
451.025	1	98
451.196	1	76
451.366	1	83
451.537	1	92
451.707	1	83
451.878	1	82
452.048	1	85
452.218	1	78
452.389	1	87
452.559	1	83
452.730	1	83
452.900	1	84
453.071	1	94
453.241	1	72
453.412	1	78
453.582	1	83
453.753	1	78
453.923	1	92
454.093	1	85
454.264	1	91
454.434	1	91
454.605	1	82
454.775	1	73
454.946	1	78
455.116	1	82
455.287	1	81
455.457	1	85
455.628	1	82
455.798	1	76
455.968	1	90
456.139	1	81
456.309	1	83
456.480	1	71
456.650	1	68
456.821	1	87
456.991	1	79
457.161	1	68
457.332	1	89
457.502	1	87
457.673	1	82
457.843	1	70
458.014	1	82
458.184	1	74
458.355	1	65
458.525	1	75
458.695	1	80
458.866	1	72
459.036	1	80
459.207	1	78
459.377	1	75
459.548	1	76
459.718	1	69
459.888	1	68
460.059	1	83
460.229	1	63
460.400	1	73
460.570	1	78
460.740	1	71
460.911	1	68
461.081	1	70
461.252	1	63
461.422	1	71
461.593	1	61
461.763	1	75
461.933	1	81
462.104	1	76
462.274	1	77
462.445	1	71
462.615	1	72
462.785	1	63
462.956	1	71
463.126	1	73
463.297	1	83
463.467	1	70
463.638	1	62
463.808	1	64
463.978	1	67
464.149	1	74
464.319	1	80
464.490	1	74
464.660	1	79
464.830	1	68
465.001	1	61
465.171	1	49
465.342	1	72
465.512	1	70
465.682	1	80
465.853	1	60
466.023	1	75
466.194	1	54
466.364	1	66
466.534	1	63
466.705	1	65
466.875	1	72
467.045	1	85
467.216	1	62
467.386	1	67
467.557	1	72
467.727	1	69
467.897	1	74
468.068	1	62
468.238	1	57
468.409	1	77
468.579	1	67
468.749	1	62
468.920	1	79
469.090	1	55
469.260	1	74
469.431	1	65
469.601	1	58
469.772	1	61
469.942	1	69
470.112	1	66
470.283	1	62
470.453	1	67
470.623	1	59
470.794	1	58
470.964	1	58
471.135	1	65
471.305	1	74
471.475	1	65
471.646	1	60
471.816	1	64
471.986	1	61
472.157	1	54
472.327	1	63
472.497	1	67
472.668	1	47
472.838	1	57
473.009	1	64
473.179	1	61
473.349	1	66
473.520	1	50
473.690	1	74
473.860	1	66
474.031	1	47
474.201	1	60
474.371	1	69
474.542	1	60
474.712	1	58
474.882	1	66
475.053	1	45
475.223	1	57
475.394	1	56
475.564	1	62
475.734	1	50
475.905	1	55
476.075	1	61
476.245	1	59
476.416	1	60
476.586	1	46
476.756	1	59
476.927	1	59
477.097	1	66
477.267	1	58
477.438	1	52
477.608	1	56
477.778	1	56
477.949	1	63
478.119	1	52
478.289	1	45
478.460	1	55
478.630	1	57
478.800	1	68
478.971	1	44
479.141	1	54
479.311	1	50
479.482	1	49
479.652	1	66
479.822	1	49
479.993	1	63
480.163	1	52
480.333	1	69
480.504	1	62
480.674	1	56
480.844	1	43
481.015	1	62
481.185	1	57
481.355	1	53
481.525	1	54
481.696	1	47
481.866	1	45
482.036	1	50
482.207	1	56
482.377	1	55
482.547	1	47
482.718	1	42
482.888	1	45
483.058	1	50
483.229	1	61
483.399	1	53
483.569	1	43
483.740	1	50
483.910	1	58
484.080	1	65
484.250	1	53
484.421	1	54
484.591	1	55
484.761	1	51
484.932	1	57
485.102	1	36
485.272	1	42
485.443	1	48
485.613	1	37
485.783	1	55
485.953	1	43
486.124	1	51
486.294	1	49
486.464	1	62
486.635	1	47
486.805	1	68
486.975	1	56
487.146	1	48
487.316	1	45
487.486	1	41
487.656	1	56
487.827	1	48
487.997	1	58
488.167	1	51
488.338	1	57
488.508	1	37
488.678	1	55
488.848	1	50
489.019	1	43
489.189	1	40
489.359	1	49
489.529	1	44
489.700	1	46
489.870	1	39
490.040	1	39
490.211	1	54
490.381	1	56
490.551	1	41
490.721	1	63
490.892	1	64
491.062	1	42
491.232	1	47
491.402	1	35
491.573	1	52
491.743	1	39
491.913	1	40
492.084	1	46
492.254	1	50
492.424	1	34
492.594	1	35
492.765	1	41
492.935	1	39
493.105	1	43
493.275	1	51
493.446	1	42
493.616	1	35
493.786	1	38
493.956	1	40
494.127	1	42
494.297	1	37
494.467	1	36
494.637	1	47
494.808	1	46
494.978	1	44
495.148	1	58
495.318	1	39
495.489	1	39
495.659	1	49
495.829	1	48
495.999	1	36
496.170	1	38
496.340	1	31
496.510	1	50
496.680	1	48
496.851	1	51
497.021	1	48
497.191	1	52
497.361	1	46
497.532	1	49
497.702	1	41
497.872	1	37
498.042	1	44
498.213	1	40
498.383	1	46
498.553	1	44
498.723	1	37
498.894	1	49
499.064	1	30
499.234	1	45
499.404	1	35
499.574	1	42
499.745	1	30
499.915	1	27
500.085	1	37
500.255	1	36
500.426	1	39
500.596	1	46
500.766	1	43
500.936	1	29
501.106	1	41
501.277	1	49
501.447	1	43
501.617	1	36
501.787	1	45
501.958	1	27
502.128	1	39
502.298	1	41
502.468	1	39
502.638	1	47
502.809	1	44
502.979	1	43
503.149	1	36
503.319	1	49
503.489	1	35
503.660	1	30
503.830	1	35
504.000	1	40
504.170	1	35
504.340	1	31
504.511	1	51
504.681	1	29
504.851	1	40
505.021	1	41
505.192	1	38
505.362	1	42
505.532	1	33
505.702	1	41
505.872	1	38
506.043	1	27
506.213	1	26
506.383	1	30
506.553	1	37
506.723	1	34
506.893	1	38
507.064	1	44
507.234	1	30
507.404	1	48
507.574	1	38
507.744	1	34
507.915	1	35
508.085	1	38
508.255	1	36
508.425	1	35
508.595	1	24
508.766	1	43
508.936	1	33
509.106	1	35
509.276	1	35
509.446	1	26
509.616	1	37
509.787	1	34
509.957	1	41
510.127	1	34
510.297	1	32
510.467	1	41
510.638	1	40
510.808	1	35
510.978	1	41
511.148	1	26
511.318	1	44
511.488	1	33
511.659	1	21
511.829	1	25
511.999	1	27
512.169	1	31
512.339	1	31
512.509	1	31
512.680	1	31
512.850	1	37
513.020	1	41
513.190	1	34
513.360	1	29
513.530	1	37
513.700	1	31
513.871	1	38
514.041	1	38
514.211	1	37
514.381	1	20
514.551	1	18
514.721	1	25
514.892	1	28
515.062	1	17
515.232	1	27
515.402	1	38
515.572	1	19
515.742	1	21
515.912	1	48
516.083	1	23
516.253	1	30
516.423	1	33
516.593	1	29
516.763	1	36
516.933	1	22
517.104	1	21
517.274	1	31
517.444	1	32
517.614	1	11
517.784	1	32
517.954	1	27
518.124	1	19
518.294	1	34
518.465	1	29
518.635	1	20
518.805	1	20
518.975	1	27
519.145	1	22
519.315	1	29
519.485	1	21
519.656	1	29
519.826	1	24
519.996	1	20
520.166	1	31
520.336	1	31
520.506	1	20
520.676	1	28
520.846	1	30
521.017	1	14
521.187	1	30
521.357	1	25
521.527	1	18
521.697	1	27
521.867	1	21
522.037	1	30
522.207	1	31
522.377	1	14
522.548	1	32
522.718	1	35
522.888	1	17
523.058	1	29
523.228	1	31
523.398	1	23
523.568	1	29
523.738	1	20
523.909	1	26
524.079	1	29
524.249	1	20
524.419	1	23
524.589	1	37
524.759	1	21
524.929	1	18
525.099	1	30
525.269	1	22
525.439	1	21
525.610	1	23
525.780	1	30
525.950	1	25
526.120	1	23
526.290	1	23
526.460	1	21
526.630	1	21
526.800	1	17
526.970	1	23
527.140	1	30
527.311	1	10
527.481	1	22
527.651	1	13
527.821	1	21
527.991	1	18
528.161	1	25
528.331	1	11
528.501	1	23
528.671	1	25
528.841	1	24
529.011	1	8
529.181	1	27
529.352	1	15
529.522	1	11
529.692	1	22
529.862	1	25
530.032	1	10
530.202	1	22
530.372	1	19
530.542	1	23
530.712	1	16
530.882	1	11
531.052	1	22
531.222	1	22
531.392	1	25
531.563	1	15
531.733	1	26
531.903	1	23
532.073	1	19
532.243	1	23
532.413	1	25
532.583	1	18
532.753	1	18
532.923	1	30
533.093	1	14
533.263	1	22
533.433	1	27
533.603	1	17
533.773	1	13
533.943	1	25
534.113	1	28
534.284	1	15
534.454	1	21
534.624	1	12
534.794	1	16
534.964	1	20
535.134	1	8
535.304	1	21
535.474	1	12
535.644	1	25
535.814	1	20
535.984	1	7
536.154	1	24
536.324	1	7
536.494	1	26
536.664	1	8
536.834	1	18
537.004	1	11
537.174	1	21
537.344	1	25
537.514	1	19
537.685	1	25
537.855	1	20
538.025	1	20
538.195	1	25
538.365	1	15
538.535	1	20
538.705	1	16
538.875	1	21
539.045	1	13
539.215	1	23
539.385	1	9
539.555	1	19
539.725	1	29
539.895	1	27
540.065	1	9
540.235	1	3
540.405	1	27
540.575	1	23
540.745	1	18
540.915	1	22
541.085	1	17
541.255	1	15
541.425	1	12
541.595	1	3
541.765	1	16
541.935	1	21
542.105	1	11
542.275	1	14
542.445	1	12
542.615	1	24
542.785	1	21
542.955	1	20
543.125	1	11
543.295	1	22
543.465	1	17
543.635	1	3
543.805	1	29
543.975	1	12
544.145	1	23
544.315	1	4
544.485	1	15
544.655	1	22
544.825	1	20
544.995	1	22
545.165	1	21
545.335	1	7
545.505	1	17
545.675	1	16
545.845	1	14
546.015	1	20
546.185	1	10
546.355	1	8
546.525	1	18
546.695	1	26
546.865	1	2
547.035	1	18
547.205	1	16
547.375	1	22
547.545	1	15
547.715	1	18
547.885	1	28
548.055	1	22
548.225	1	13
548.395	1	22
548.565	1	16
548.735	1	21
548.905	1	12
549.075	1	16
549.245	1	17
549.415	1	21
549.585	1	27
549.755	1	14
549.925	1	3
550.095	1	15
550.265	1	16
550.435	1	19
550.605	1	18
550.775	1	20
550.945	1	7
551.115	1	12
551.285	1	6
551.455	1	17
551.625	1	24
551.795	1	20
551.965	1	22
552.135	1	3
552.305	1	12
552.475	1	16
552.645	1	27
552.815	1	11
552.985	1	9
553.155	1	8
553.325	1	16
553.495	1	16
553.665	1	20
553.835	1	10
554.004	1	9
554.174	1	6
554.344	1	18
554.514	1	13
554.684	1	4
554.854	1	9
555.024	1	21
555.194	1	23
555.364	1	15
555.534	1	11
555.704	1	5
555.874	1	7
556.044	1	16
556.214	1	5
556.384	1	17
556.554	1	13
556.724	1	8
556.894	1	12
557.064	1	20
557.234	1	17
557.404	1	12
557.573	1	14
557.743	1	17
557.913	1	12
558.083	1	4
558.253	1	4
558.423	1	16
558.593	1	16
558.763	1	13
558.933	1	19
559.103	1	13
559.273	1	11
559.443	1	9
559.613	1	6
559.783	1	13
559.953	1	10
560.122	1	6
560.292	1	15
560.462	1	3
560.632	1	16
560.802	1	8
560.972	1	20
561.142	1	22
561.312	1	7
561.482	1	10
561.652	1	12
561.822	1	13
561.992	1	12
562.162	1	6
562.331	1	3
562.501	1	11
562.671	1	16
562.841	1	22
563.011	1	15
563.181	1	21
563.351	1	18
563.521	1	12
563.691	1	7
563.861	1	15
564.031	1	14
564.201	1	3
564.370	1	18
564.540	1	27
564.710	1	22
564.880	1	23
565.050	1	13
565.220	1	3
565.390	1	12
565.560	1	16
565.730	1	20
565.900	1	5
566.069	1	12
566.239	1	0
566.409	1	15
566.579	1	2
566.749	1	26
566.919	1	14
567.089	1	15
567.259	1	11
567.429	1	8
567.599	1	4
567.768	1	2
567.938	1	4
568.108	1	16
568.278	1	14
568.448	1	22
568.618	1	17
568.788	1	16
568.958	1	27
569.128	1	6
569.297	1	17
569.467	1	11
569.637	1	5
569.807	1	3
569.977	1	14
570.147	1	10
570.317	1	30
570.487	1	5
570.656	1	10
570.826	1	27
570.996	1	6
571.166	1	11
571.336	1	17
571.506	1	15
571.676	1	17
571.846	1	8
572.015	1	15
572.185	1	14
572.355	1	15
572.525	1	11
572.695	1	14
572.865	1	6
573.035	1	11
573.205	1	-3
573.374	1	9
573.544	1	0
573.714	1	16
573.884	1	22
574.054	1	16
574.224	1	17
574.394	1	10
574.563	1	12
574.733	1	2
574.903	1	14
575.073	1	8
575.243	1	18
575.413	1	9
575.583	1	10
575.752	1	11
575.922	1	6
576.092	1	10
576.262	1	21
576.432	1	18
576.602	1	4
576.772	1	-6
576.941	1	23
577.111	1	12
577.281	1	15
577.451	1	13
577.621	1	5
577.791	1	-3
577.960	1	21
578.130	1	5
578.300	1	18
578.470	1	17
578.640	1	10
578.810	1	13
578.979	1	16
579.149	1	9
579.319	1	2
579.489	1	9
579.659	1	11
579.829	1	11
579.998	1	8
580.168	1	5
580.338	1	9
580.508	1	9
580.678	1	5
580.848	1	18
581.017	1	29
581.187	1	0
581.357	1	7
581.527	1	10
581.697	1	12
581.867	1	12
582.036	1	4
582.206	1	8
582.376	1	14
582.546	1	9
582.716	1	7
582.885	1	3
583.055	1	13
583.225	1	1
583.395	1	11
583.565	1	21
583.735	1	0
583.904	1	13
584.074	1	14
584.244	1	21
584.414	1	16
584.584	1	13
584.753	1	13
584.923	1	12
585.093	1	6
585.263	1	19
585.433	1	7
585.602	1	17
585.772	1	8
585.942	1	8
586.112	1	13
586.282	1	13
586.451	1	7
586.621	1	14
586.791	1	14
586.961	1	18
587.131	1	13
587.300	1	-13
587.470	1	6
587.640	1	5
587.810	1	12
587.980	1	22
588.149	1	25
588.319	1	19
588.489	1	16
588.659	1	9
588.829	1	11
588.998	1	15
589.168	1	3
589.338	1	16
589.508	1	12
589.677	1	16
589.847	1	5
590.017	1	6
590.187	1	6
590.357	1	17
590.526	1	17
590.696	1	22
590.866	1	12
591.036	1	17
591.205	1	2
591.375	1	6
591.545	1	7
591.715	1	7
591.885	1	10
592.054	1	15
592.224	1	13
592.394	1	10
592.564	1	14
592.733	1	13
592.903	1	6
593.073	1	14
593.243	1	23
593.412	1	4
593.582	1	20
593.752	1	19
593.922	1	13
594.091	1	17
594.261	1	13
594.431	1	9
594.601	1	13
594.771	1	10
594.940	1	9
595.110	1	8
595.280	1	10
595.450	1	13
595.619	1	17
595.789	1	8
595.959	1	17
596.129	1	17
596.298	1	15
596.468	1	13
596.638	1	11
596.808	1	19
596.977	1	16
597.147	1	25
597.317	1	9
597.487	1	2
597.656	1	13
597.826	1	3
597.996	1	14
598.166	1	19
598.335	1	16
598.505	1	21
598.675	1	4
598.844	1	22
599.014	1	9
599.184	1	24
599.354	1	10
599.523	1	9
599.693	1	24
599.863	1	15
600.033	1	14
600.202	1	8
600.372	1	11
600.542	1	15
600.712	1	19
600.881	1	12
601.051	1	10
601.221	1	17
601.390	1	11
601.560	1	7
601.730	1	12
601.900	1	15
602.069	1	15
602.239	1	1
602.409	1	17
602.578	1	4
602.748	1	5
602.918	1	4
603.088	1	14
603.257	1	21
603.427	1	12
603.597	1	9
603.767	1	20
603.936	1	16
604.106	1	18
604.276	1	6
604.445	1	21
604.615	1	-1
604.785	1	7
604.954	1	20
605.124	1	6
605.294	1	16
605.464	1	19
605.633	1	12
605.803	1	4
605.973	1	13
606.142	1	18
606.312	1	1
606.482	1	4
606.652	1	16
606.821	1	18
606.991	1	17
607.161	1	26
607.330	1	-5
607.500	1	9
607.670	1	13
607.839	1	15
608.009	1	5
608.179	1	5
608.348	1	20
608.518	1	21
608.688	1	22
608.858	1	16
609.027	1	15
609.197	1	20
609.367	1	8
609.536	1	3
609.706	1	13
609.876	1	0
610.045	1	8
610.215	1	6
610.385	1	22
610.554	1	12
610.724	1	14
610.894	1	22
611.063	1	9
611.233	1	7
611.403	1	5
611.572	1	16
611.742	1	6
611.912	1	12
612.081	1	15
612.251	1	18
612.421	1	16
612.590	1	6
612.760	1	13
612.930	1	3
613.099	1	20
613.269	1	7
613.439	1	19
613.608	1	28
613.778	1	11
613.948	1	17
614.117	1	18
614.287	1	10
614.457	1	1
614.626	1	12
614.796	1	6
614.966	1	10
615.135	1	5
615.305	1	14
615.475	1	15
615.644	1	19
615.814	1	14
615.984	1	10
616.153	1	1
616.323	1	2
616.493	1	23
616.662	1	8
616.832	1	18
617.002	1	17
617.171	1	14
617.341	1	9
617.511	1	14
617.680	1	17
617.850	1	6
618.019	1	23
618.189	1	9
618.359	1	8
618.528	1	21
618.698	1	15
618.868	1	22
619.037	1	11
619.207	1	18
619.377	1	11
619.546	1	12
619.716	1	6
619.885	1	26
620.055	1	16
620.225	1	21
620.394	1	18
620.564	1	14
620.734	1	13
620.903	1	12
621.073	1	17
621.242	1	-4
621.412	1	13
621.582	1	14
621.751	1	7
621.921	1	12
622.091	1	2
622.260	1	18
622.430	1	25
622.599	1	23
622.769	1	10
622.939	1	17
623.108	1	19
623.278	1	19
623.448	1	10
623.617	1	23
623.787	1	19
623.956	1	10
624.126	1	21
624.296	1	22
624.465	1	16
624.635	1	9
624.804	1	18
624.974	1	22
625.144	1	20
625.313	1	18
625.483	1	18
625.652	1	19
625.822	1	10
625.992	1	25
626.161	1	8
626.331	1	10
626.501	1	23
626.670	1	10
626.840	1	5
627.009	1	20
627.179	1	10
627.348	1	22
627.518	1	30
627.688	1	9
627.857	1	6
628.027	1	15
628.196	1	11
628.366	1	7
628.536	1	13
628.705	1	21
628.875	1	11
629.044	1	9
629.214	1	13
629.384	1	18
629.553	1	21
629.723	1	8
629.892	1	20
630.062	1	23
630.232	1	2
630.401	1	9
630.571	1	13
630.740	1	12
630.910	1	27
631.079	1	19
631.249	1	16
631.419	1	22
631.588	1	4
631.758	1	15
631.927	1	15
632.097	1	24
632.266	1	17
632.436	1	11
632.606	1	14
632.775	1	23
632.945	1	14
633.114	1	12
633.284	1	8
633.453	1	10
633.623	1	17
633.793	1	13
633.962	1	3
634.132	1	32
634.301	1	19
634.471	1	16
634.640	1	29
634.810	1	27
634.979	1	23
635.149	1	15
635.319	1	16
635.488	1	15
635.658	1	9
635.827	1	21
635.997	1	16
636.166	1	24
636.336	1	26
636.505	1	19
636.675	1	10
636.845	1	18
637.014	1	15
637.184	1	22
637.353	1	23
637.523	1	19
637.692	1	27
637.862	1	17
638.031	1	20
638.201	1	23
638.370	1	25
638.540	1	8
638.710	1	19
638.879	1	16
639.049	1	23
639.218	1	15
639.388	1	24
639.557	1	16
639.727	1	23
639.896	1	17
640.066	1	17
640.235	1	16
640.405	1	20
640.574	1	18
640.744	1	29
640.914	1	30
641.083	1	11
641.253	1	16
641.422	1	15
641.592	1	24
641.761	1	25
641.931	1	17
642.100	1	17
642.270	1	20
642.439	1	22
642.609	1	28
642.778	1	25
642.948	1	13
643.117	1	24
643.287	1	12
643.456	1	15
643.626	1	7
643.795	1	13
643.965	1	20
644.134	1	18
644.304	1	19
644.473	1	14
644.643	1	17
644.812	1	19
644.982	1	19
645.151	1	20
645.321	1	12
645.490	1	24
645.660	1	27
645.829	1	18
645.999	1	26
646.168	1	22
646.338	1	15
646.507	1	19
646.677	1	32
646.846	1	19
647.016	1	19
647.185	1	18
647.355	1	13
647.524	1	20
647.694	1	18
647.863	1	22
648.033	1	17
648.202	1	18
648.372	1	18
648.541	1	25
648.711	1	19
648.880	1	30
649.050	1	21
649.219	1	18
649.389	1	23
649.558	1	20
649.728	1	19
649.897	1	11
650.067	1	13
650.236	1	28
650.406	1	9
650.575	1	33
650.745	1	26
650.914	1	23
651.084	1	10
651.253	1	28
651.423	1	13
651.592	1	27
651.762	1	22
651.931	1	22
652.101	1	23
652.270	1	17
652.440	1	31
652.609	1	16
652.778	1	26
652.948	1	11
653.117	1	33
653.287	1	21
653.456	1	37
653.626	1	17
653.795	1	29
653.965	1	34
654.134	1	10
654.304	1	14
654.473	1	17
654.643	1	25
654.812	1	17
654.982	1	21
655.151	1	31
655.320	1	17
655.490	1	11
655.659	1	26
655.829	1	15
655.998	1	14
656.168	1	12
656.337	1	26
656.507	1	15
656.676	1	20
656.846	1	19
657.015	1	40
657.184	1	12
657.354	1	10
657.523	1	22
657.693	1	13
657.862	1	29
658.032	1	15
658.201	1	13
658.371	1	31
658.540	1	32
658.709	1	31
658.879	1	11
659.048	1	12
659.218	1	24
659.387	1	24
659.557	1	24
659.726	1	27
659.895	1	24
660.065	1	26
660.234	1	24
660.404	1	43
660.573	1	20
660.743	1	29
660.912	1	33
661.081	1	22
661.251	1	10
661.420	1	27
661.590	1	25
661.759	1	20
661.929	1	28
662.098	1	25
662.267	1	26
662.437	1	23
662.606	1	24
662.776	1	20
662.945	1	29
663.115	1	6
663.284	1	17
663.453	1	14
663.623	1	23
663.792	1	21
663.962	1	22
664.131	1	16
664.300	1	29
664.470	1	3
664.639	1	16
664.809	1	31
664.978	1	15
665.148	1	26
665.317	1	23
665.486	1	22
665.656	1	21
665.825	1	21
665.995	1	28
666.164	1	29
666.333	1	26
666.503	1	36
666.672	1	24
666.842	1	7
667.011	1	18
667.180	1	18
667.350	1	35
667.519	1	15
667.689	1	30
667.858	1	25
668.027	1	20
668.197	1	22
668.366	1	35
668.536	1	18
668.705	1	26
668.874	1	32
669.044	1	21
669.213	1	19
669.382	1	26
669.552	1	23
669.721	1	19
669.891	1	20
670.060	1	14
670.229	1	21
670.399	1	23
670.568	1	35
670.738	1	29
670.907	1	23
671.076	1	30
671.246	1	22
671.415	1	27
671.584	1	7
671.754	1	31
671.923	1	22
672.093	1	33
672.262	1	21
672.431	1	36
672.601	1	22
672.770	1	18
672.939	1	17
673.109	1	17
673.278	1	32
673.448	1	12
673.617	1	9
673.786	1	19
