325.333	1	5
325.504	1	18
325.675	1	17
325.846	1	10
326.017	1	16
326.188	1	20
326.359	1	15
326.531	1	21
326.702	1	20
326.873	1	15
327.044	1	24
327.215	1	4
327.386	1	20
327.557	1	30
327.728	1	4
327.899	1	12
328.070	1	12
328.241	1	15
328.412	1	8
328.583	1	14
328.754	1	11
328.926	1	10
329.097	1	9
329.268	1	19
329.439	1	12
329.610	1	14
329.781	1	20
329.952	1	21
330.123	1	15
330.294	1	16
330.465	1	19
330.636	1	11
330.807	1	10
330.978	1	25
331.149	1	16
331.320	1	14
331.492	1	22
331.663	1	11
331.834	1	23
332.005	1	11
332.176	1	17
332.347	1	22
332.518	1	9
332.689	1	22
332.860	1	19
333.031	1	16
333.202	1	21
333.373	1	13
333.544	1	14
333.715	1	19
333.886	1	21
334.057	1	18
334.228	1	22
334.399	1	17
334.570	1	22
334.741	1	18
334.912	1	25
335.084	1	19
335.255	1	19
335.426	1	11
335.597	1	15
335.768	1	18
335.939	1	19
336.110	1	14
336.281	1	23
336.452	1	28
336.623	1	24
336.794	1	14
336.965	1	15
337.136	1	17
337.307	1	34
337.478	1	14
337.649	1	13
337.820	1	24
337.991	1	24
338.162	1	19
338.333	1	30
338.504	1	15
338.675	1	16
338.846	1	30
339.017	1	19
339.188	1	19
339.359	1	25
339.530	1	17
339.701	1	16
339.872	1	20
340.043	1	32
340.214	1	33
340.385	1	25
340.556	1	22
340.727	1	29
340.898	1	10
341.069	1	38
341.240	1	45
341.411	1	36
341.582	1	31
341.753	1	18
341.924	1	32
342.095	1	31
342.266	1	21
342.437	1	35
342.608	1	27
342.779	1	36
342.950	1	31
343.121	1	29
343.292	1	26
343.463	1	32
343.634	1	40
343.805	1	24
343.976	1	34
344.147	1	32
344.318	1	31
344.489	1	34
344.660	1	38
344.831	1	25
345.002	1	25
345.173	1	31
345.344	1	13
345.515	1	23
345.686	1	30
345.857	1	35
346.028	1	35
346.199	1	37
346.370	1	30
346.541	1	56
346.712	1	34
346.883	1	36
347.054	1	29
347.225	1	26
347.396	1	34
347.567	1	28
347.738	1	29
347.909	1	46
348.080	1	33
348.251	1	30
348.422	1	39
348.593	1	36
348.764	1	28
348.935	1	28
349.106	1	33
349.277	1	53
349.448	1	40
349.619	1	36
349.790	1	42
349.961	1	32
350.132	1	32
350.303	1	50
350.474	1	41
350.645	1	38
350.816	1	35
350.987	1	32
351.157	1	37
351.328	1	32
351.499	1	40
351.670	1	43
351.841	1	36
352.012	1	32
352.183	1	38
352.354	1	44
352.525	1	31
352.696	1	37
352.867	1	27
353.038	1	48
353.209	1	45
353.380	1	51
353.551	1	48
353.722	1	40
353.893	1	40
354.064	1	43
354.235	1	38
354.406	1	41
354.576	1	34
354.747	1	45
354.918	1	42
355.089	1	45
355.260	1	42
355.431	1	53
355.602	1	41
355.773	1	41
355.944	1	43
356.115	1	37
356.286	1	35
356.457	1	36
356.628	1	59
356.799	1	41
356.970	1	31
357.141	1	59
357.311	1	50
357.482	1	40
357.653	1	39
357.824	1	53
357.995	1	42
358.166	1	54
358.337	1	30
358.508	1	36
358.679	1	38
358.850	1	45
359.021	1	53
359.192	1	45
359.363	1	50
359.533	1	41
359.704	1	58
359.875	1	56
360.046	1	37
360.217	1	40
360.388	1	44
360.559	1	59
360.730	1	41
360.901	1	50
361.072	1	45
361.243	1	45
361.414	1	41
361.584	1	54
361.755	1	55
361.926	1	41
362.097	1	50
362.268	1	48
362.439	1	41
362.610	1	44
362.781	1	50
362.952	1	56
363.123	1	52
363.293	1	51
363.464	1	49
363.635	1	49
363.806	1	47
363.977	1	48
364.148	1	41
364.319	1	49
364.490	1	50
364.661	1	55
364.832	1	64
365.002	1	52
365.173	1	52
365.344	1	41
365.515	1	54
365.686	1	44
365.857	1	52
366.028	1	38
366.199	1	44
366.370	1	50
366.540	1	53
366.711	1	48
366.882	1	42
367.053	1	42
367.224	1	48
367.395	1	51
367.566	1	58
367.737	1	50
367.908	1	52
368.078	1	60
368.249	1	53
368.420	1	57
368.591	1	58
368.762	1	51
368.933	1	47
369.104	1	51
369.274	1	53
369.445	1	50
369.616	1	49
369.787	1	53
369.958	1	50
370.129	1	64
370.300	1	47
370.471	1	62
370.641	1	51
370.812	1	53
370.983	1	56
371.154	1	54
371.325	1	58
371.496	1	54
371.667	1	58
371.837	1	63
372.008	1	60
372.179	1	51
372.350	1	51
372.521	1	45
372.692	1	50
372.863	1	51
373.033	1	57
373.204	1	59
373.375	1	51
373.546	1	57
373.717	1	40
373.888	1	48
374.059	1	61
374.229	1	51
374.400	1	44
374.571	1	57
374.742	1	59
374.913	1	58
375.084	1	61
375.254	1	59
375.425	1	49
375.596	1	47
375.767	1	56
375.938	1	57
376.109	1	48
376.279	1	41
376.450	1	58
376.621	1	59
376.792	1	54
376.963	1	52
377.134	1	60
377.304	1	56
377.475	1	55
377.646	1	61
377.817	1	49
377.988	1	50
378.159	1	45
378.329	1	54
378.500	1	56
378.671	1	66
378.842	1	49
379.013	1	54
379.184	1	64
379.354	1	47
379.525	1	54
379.696	1	54
379.867	1	53
380.038	1	42
380.209	1	53
380.379	1	62
380.550	1	64
380.721	1	77
380.892	1	63
381.063	1	58
381.233	1	52
381.404	1	63
381.575	1	59
381.746	1	54
381.917	1	52
382.087	1	59
382.258	1	64
382.429	1	70
382.600	1	66
382.771	1	60
382.941	1	61
383.112	1	60
383.283	1	66
383.454	1	61
383.625	1	73
383.795	1	67
383.966	1	64
384.137	1	69
384.308	1	48
384.479	1	64
384.649	1	60
384.820	1	68
384.991	1	69
385.162	1	70
385.333	1	69
385.503	1	68
385.674	1	65
385.845	1	66
386.016	1	71
386.187	1	56
386.357	1	62
386.528	1	58
386.699	1	58
386.870	1	61
387.041	1	72
387.211	1	64
387.382	1	66
387.553	1	53
387.724	1	62
387.894	1	60
388.065	1	63
388.236	1	67
388.407	1	74
388.578	1	54
388.748	1	71
388.919	1	72
389.090	1	68
389.261	1	58
389.431	1	83
389.602	1	68
389.773	1	65
389.944	1	61
390.114	1	74
390.285	1	64
390.456	1	65
390.627	1	77
390.798	1	75
390.968	1	62
391.139	1	62
391.310	1	82
391.481	1	60
391.651	1	71
391.822	1	66
391.993	1	66
392.164	1	58
392.334	1	77
392.505	1	62
392.676	1	73
392.847	1	70
393.017	1	83
393.188	1	59
393.359	1	69
393.530	1	76
393.700	1	75
393.871	1	68
394.042	1	57
394.213	1	76
394.383	1	74
394.554	1	61
394.725	1	79
394.896	1	70
395.066	1	72
395.237	1	68
395.408	1	85
395.579	1	71
395.749	1	67
395.920	1	70
396.091	1	67
396.262	1	74
396.432	1	65
396.603	1	77
396.774	1	65
396.945	1	85
397.115	1	80
397.286	1	71
397.457	1	65
397.627	1	64
397.798	1	60
397.969	1	66
398.140	1	80
398.310	1	80
398.481	1	67
398.652	1	78
398.823	1	71
398.993	1	67
399.164	1	77
399.335	1	64
399.505	1	77
399.676	1	78
399.847	1	78
400.018	1	74
400.188	1	77
400.359	1	66
400.530	1	76
400.700	1	66
400.871	1	84
401.042	1	74
401.213	1	65
401.383	1	62
401.554	1	69
401.725	1	84
401.895	1	84
402.066	1	71
402.237	1	88
402.408	1	85
402.578	1	71
402.749	1	73
402.920	1	66
403.090	1	75
403.261	1	83
403.432	1	78
403.603	1	73
403.773	1	92
403.944	1	78
404.115	1	88
404.285	1	76
404.456	1	77
404.627	1	67
404.797	1	69
404.968	1	78
405.139	1	66
405.310	1	69
405.480	1	65
405.651	1	84
405.822	1	82
405.992	1	76
406.163	1	81
406.334	1	66
406.504	1	74
406.675	1	64
406.846	1	70
407.016	1	71
407.187	1	77
407.358	1	74
407.528	1	71
407.699	1	76
407.870	1	75
408.041	1	82
408.211	1	70
408.382	1	78
408.553	1	71
408.723	1	68
408.894	1	74
409.065	1	74
409.235	1	91
409.406	1	80
409.577	1	87
409.747	1	73
409.918	1	70
410.089	1	74
410.259	1	86
410.430	1	72
410.601	1	77
410.771	1	81
410.942	1	79
411.113	1	68
411.283	1	63
411.454	1	82
411.625	1	71
411.795	1	84
411.966	1	81
412.137	1	64
412.307	1	83
412.478	1	77
412.649	1	79
412.819	1	71
412.990	1	72
413.161	1	73
413.331	1	77
413.502	1	79
413.672	1	70
413.843	1	77
414.014	1	81
414.184	1	68
414.355	1	76
414.526	1	91
414.696	1	83
414.867	1	83
415.038	1	76
415.208	1	93
415.379	1	69
415.550	1	85
415.720	1	83
415.891	1	76
416.062	1	73
416.232	1	59
416.403	1	74
416.573	1	79
416.744	1	74
416.915	1	78
417.085	1	89
417.256	1	73
417.427	1	81
417.597	1	68
417.768	1	71
417.939	1	85
418.109	1	71
418.280	1	69
418.450	1	81
418.621	1	66
418.792	1	78
418.962	1	90
419.133	1	69
419.304	1	61
419.474	1	68
419.645	1	74
419.815	1	80
419.986	1	68
420.157	1	54
420.327	1	75
420.498	1	70
420.669	1	78
420.839	1	74
421.010	1	77
421.180	1	77
421.351	1	69
421.522	1	63
421.692	1	69
421.863	1	81
422.033	1	77
422.204	1	79
422.375	1	71
422.545	1	68
422.716	1	75
422.886	1	63
423.057	1	65
423.228	1	59
423.398	1	63
423.569	1	69
423.740	1	63
423.910	1	62
424.081	1	71
424.251	1	59
424.422	1	76
424.593	1	67
424.763	1	75
424.934	1	59
425.104	1	79
425.275	1	83
425.445	1	76
425.616	1	64
425.787	1	68
425.957	1	76
426.128	1	65
426.298	1	54
426.469	1	66
426.640	1	74
426.810	1	70
426.981	1	75
427.151	1	74
427.322	1	71
427.493	1	68
427.663	1	84
427.834	1	66
428.004	1	60
428.175	1	71
428.345	1	63
428.516	1	78
428.687	1	70
428.857	1	61
429.028	1	69
429.198	1	68
429.369	1	64
429.540	1	67
429.710	1	63
429.881	1	64
430.051	1	66
430.222	1	66
430.392	1	87
430.563	1	75
430.734	1	84
430.904	1	56
431.075	1	70
431.245	1	66
431.416	1	66
431.586	1	65
431.757	1	67
431.927	1	67
432.098	1	65
432.269	1	66
432.439	1	85
432.610	1	68
432.780	1	76
432.951	1	58
433.121	1	74
433.292	1	64
433.462	1	69
433.633	1	51
433.804	1	69
433.974	1	64
434.145	1	67
434.315	1	62
434.486	1	58
434.656	1	64
434.827	1	61
434.997	1	63
435.168	1	70
435.339	1	64
435.509	1	74
435.680	1	69
435.850	1	55
436.021	1	56
436.191	1	55
436.362	1	69
436.532	1	70
436.703	1	70
436.873	1	74
437.044	1	63
437.214	1	73
437.385	1	57
437.556	1	60
437.726	1	65
437.897	1	60
438.067	1	50
438.238	1	63
438.408	1	69
438.579	1	71
438.749	1	67
438.920	1	67
439.090	1	72
439.261	1	54
439.431	1	57
439.602	1	61
439.772	1	70
439.943	1	57
440.113	1	61
440.284	1	61
440.455	1	63
440.625	1	72
440.796	1	70
440.966	1	59
441.137	1	71
441.307	1	71
441.478	1	64
441.648	1	61
441.819	1	73
441.989	1	60
442.160	1	55
442.330	1	64
442.501	1	65
442.671	1	57
442.842	1	54
443.012	1	62
443.183	1	51
443.353	1	62
443.524	1	67
443.694	1	54
443.865	1	62
444.035	1	56
444.206	1	55
444.376	1	60
444.547	1	57
444.717	1	57
444.888	1	50
445.058	1	65
445.229	1	58
445.399	1	63
445.570	1	70
445.740	1	64
445.911	1	36
446.081	1	61
446.252	1	54
446.422	1	62
446.593	1	47
446.763	1	65
446.934	1	46
447.104	1	54
447.275	1	51
447.445	1	44
447.616	1	50
447.786	1	56
447.957	1	57
448.127	1	51
448.298	1	46
448.468	1	62
448.639	1	54
448.809	1	66
448.979	1	52
449.150	1	52
449.320	1	50
449.491	1	58
449.661	1	54
449.832	1	60
450.002	1	42
450.173	1	47
450.343	1	71
450.514	1	55
450.684	1	53
450.855	1	54
451.025	1	58
451.196	1	48
451.366	1	57
451.537	1	57
451.707	1	61
451.878	1	40
452.048	1	56
452.218	1	54
452.389	1	56
452.559	1	52
452.730	1	47
452.900	1	54
453.071	1	47
453.241	1	37
453.412	1	50
453.582	1	62
453.753	1	61
453.923	1	56
454.093	1	52
454.264	1	49
454.434	1	56
454.605	1	56
454.775	1	44
454.946	1	49
455.116	1	53
455.287	1	61
455.457	1	51
455.628	1	52
455.798	1	57
455.968	1	54
456.139	1	58
456.309	1	69
456.480	1	49
456.650	1	44
456.821	1	62
456.991	1	49
457.161	1	55
457.332	1	47
457.502	1	50
457.673	1	57
457.843	1	34
458.014	1	56
458.184	1	49
458.355	1	41
458.525	1	57
458.695	1	52
458.866	1	50
459.036	1	64
459.207	1	50
459.377	1	44
459.548	1	55
459.718	1	44
459.888	1	53
460.059	1	54
460.229	1	56
460.400	1	33
460.570	1	54
460.740	1	45
460.911	1	43
461.081	1	38
461.252	1	43
461.422	1	38
461.593	1	34
461.763	1	51
461.933	1	48
462.104	1	45
462.274	1	51
462.445	1	58
462.615	1	46
462.785	1	44
462.956	1	43
463.126	1	56
463.297	1	41
463.467	1	57
463.638	1	45
463.808	1	46
463.978	1	47
464.149	1	41
464.319	1	49
464.490	1	53
464.660	1	51
464.830	1	40
465.001	1	41
465.171	1	39
465.342	1	50
465.512	1	51
465.682	1	51
465.853	1	55
466.023	1	58
466.194	1	37
466.364	1	40
466.534	1	45
466.705	1	45
466.875	1	44
467.045	1	51
467.216	1	45
467.386	1	45
467.557	1	49
467.727	1	42
467.897	1	49
468.068	1	47
468.238	1	53
468.409	1	47
468.579	1	46
468.749	1	43
468.920	1	53
469.090	1	33
469.260	1	51
469.431	1	34
469.601	1	48
469.772	1	41
469.942	1	47
470.112	1	43
470.283	1	35
470.453	1	42
470.623	1	34
470.794	1	37
470.964	1	46
471.135	1	49
471.305	1	37
471.475	1	50
471.646	1	43
471.816	1	51
471.986	1	39
472.157	1	32
472.327	1	44
472.497	1	38
472.668	1	35
472.838	1	34
473.009	1	50
473.179	1	50
473.349	1	37
473.520	1	38
473.690	1	34
473.860	1	39
474.031	1	38
474.201	1	47
474.371	1	47
474.542	1	43
474.712	1	28
474.882	1	42
475.053	1	28
475.223	1	36
475.394	1	36
475.564	1	49
475.734	1	31
475.905	1	38
476.075	1	40
476.245	1	44
476.416	1	33
476.586	1	38
476.756	1	31
476.927	1	37
477.097	1	48
477.267	1	35
477.438	1	34
477.608	1	36
477.778	1	42
477.949	1	44
478.119	1	29
478.289	1	29
478.460	1	45
478.630	1	43
478.800	1	31
478.971	1	29
479.141	1	49
479.311	1	20
479.482	1	22
479.652	1	47
479.822	1	35
479.993	1	45
480.163	1	38
480.333	1	48
480.504	1	38
480.674	1	31
480.844	1	37
481.015	1	36
481.185	1	43
481.355	1	33
481.525	1	28
481.696	1	31
481.866	1	37
482.036	1	32
482.207	1	39
482.377	1	36
482.547	1	29
482.718	1	31
482.888	1	33
483.058	1	48
483.229	1	33
483.399	1	29
483.569	1	31
483.740	1	34
483.910	1	43
484.080	1	55
484.250	1	30
484.421	1	42
484.591	1	29
484.761	1	39
484.932	1	40
485.102	1	21
485.272	1	33
485.443	1	43
485.613	1	26
485.783	1	30
485.953	1	29
486.124	1	31
486.294	1	32
486.464	1	40
486.635	1	18
486.805	1	42
486.975	1	32
487.146	1	23
487.316	1	26
487.486	1	24
487.656	1	31
487.827	1	27
487.997	1	42
488.167	1	35
488.338	1	34
488.508	1	38
488.678	1	30
488.848	1	39
489.019	1	30
489.189	1	13
489.359	1	35
489.529	1	28
489.700	1	28
489.870	1	30
490.040	1	28
490.211	1	31
490.381	1	48
490.551	1	25
490.721	1	30
490.892	1	36
491.062	1	29
491.232	1	22
491.402	1	12
491.573	1	39
491.743	1	26
491.913	1	21
492.084	1	32
492.254	1	46
492.424	1	17
492.594	1	19
492.765	1	32
492.935	1	14
493.105	1	21
493.275	1	37
493.446	1	27
493.616	1	12
493.786	1	22
493.956	1	20
494.127	1	23
494.297	1	37
494.467	1	21
494.637	1	30
494.808	1	33
494.978	1	14
495.148	1	35
495.318	1	34
495.489	1	23
495.659	1	21
495.829	1	29
495.999	1	12
496.170	1	28
496.340	1	24
496.510	1	28
496.680	1	35
496.851	1	31
497.021	1	37
497.191	1	22
497.361	1	26
497.532	1	20
497.702	1	21
497.872	1	23
498.042	1	29
498.213	1	28
498.383	1	24
498.553	1	23
498.723	1	29
498.894	1	24
499.064	1	21
499.234	1	34
499.404	1	24
499.574	1	31
499.745	1	17
499.915	1	16
500.085	1	4
500.255	1	27
500.426	1	24
500.596	1	18
500.766	1	28
500.936	1	17
501.106	1	22
501.277	1	32
501.447	1	19
501.617	1	17
501.787	1	23
501.958	1	18
502.128	1	22
502.298	1	28
502.468	1	30
502.638	1	29
502.809	1	29
502.979	1	15
503.149	1	27
503.319	1	19
503.489	1	18
503.660	1	20
503.830	1	23
504.000	1	30
504.170	1	22
504.340	1	16
504.511	1	36
504.681	1	17
504.851	1	8
505.021	1	33
505.192	1	23
505.362	1	26
505.532	1	26
505.702	1	15
505.872	1	24
506.043	1	13
506.213	1	25
506.383	1	15
506.553	1	26
506.723	1	15
506.893	1	18
507.064	1	24
507.234	1	14
507.404	1	26
507.574	1	20
507.744	1	17
507.915	1	18
508.085	1	18
508.255	1	21
508.425	1	16
508.595	1	10
508.766	1	19
508.936	1	19
509.106	1	20
509.276	1	19
509.446	1	11
509.616	1	22
509.787	1	14
509.957	1	14
510.127	1	23
510.297	1	22
510.467	1	19
510.638	1	7
510.808	1	17
510.978	1	22
511.148	1	13
511.318	1	26
511.488	1	12
511.659	1	16
511.829	1	13
511.999	1	19
512.169	1	10
512.339	1	25
512.509	1	30
512.680	1	23
512.850	1	15
513.020	1	19
513.190	1	17
513.360	1	18
513.530	1	19
513.700	1	24
513.871	1	18
514.041	1	23
514.211	1	26
514.381	1	11
514.551	1	22
514.721	1	21
514.892	1	14
515.062	1	13
515.232	1	16
515.402	1	21
515.572	1	20
515.742	1	11
515.912	1	33
516.083	1	11
516.253	1	20
516.423	1	15
516.593	1	16
516.763	1	16
516.933	1	13
517.104	1	16
517.274	1	19
517.444	1	16
517.614	1	11
517.784	1	10
517.954	1	23
518.124	1	10
518.294	1	21
518.465	1	14
518.635	1	19
518.805	1	15
518.975	1	21
519.145	1	16
519.315	1	28
519.485	1	15
519.656	1	15
519.826	1	17
519.996	1	24
520.166	1	20
520.336	1	30
520.506	1	12
520.676	1	30
520.846	1	22
521.017	1	15
521.187	1	22
521.357	1	10
521.527	1	14
521.697	1	2
521.867	1	14
522.037	1	17
522.207	1	16
522.377	1	11
522.548	1	18
522.718	1	25
522.888	1	18
523.058	1	16
523.228	1	16
523.398	1	17
523.568	1	7
523.738	1	17
523.909	1	15
524.079	1	19
524.249	1	14
524.419	1	10
524.589	1	22
524.759	1	8
524.929	1	11
525.099	1	20
525.269	1	16
525.439	1	16
525.610	1	17
525.780	1	15
525.950	1	16
526.120	1	21
526.290	1	17
526.460	1	22
526.630	1	15
526.800	1	13
526.970	1	19
527.140	1	21
527.311	1	7
527.481	1	9
527.651	1	12
527.821	1	9
527.991	1	21
528.161	1	12
528.331	1	10
528.501	1	16
528.671	1	27
528.841	1	17
529.011	1	3
529.181	1	24
529.352	1	11
529.522	1	5
529.692	1	10
529.862	1	21
530.032	1	1
530.202	1	14
530.372	1	6
530.542	1	17
530.712	1	4
530.882	1	6
531.052	1	22
531.222	1	13
531.392	1	4
531.563	1	10
531.733	1	10
531.903	1	5
532.073	1	10
532.243	1	9
532.413	1	4
532.583	1	1
532.753	1	6
532.923	1	23
533.093	1	4
533.263	1	12
533.433	1	14
533.603	1	6
533.773	1	20
533.943	1	8
534.113	1	20
534.284	1	18
534.454	1	11
534.624	1	6
534.794	1	18
534.964	1	9
535.134	1	6
535.304	1	17
535.474	1	9
535.644	1	18
535.814	1	9
535.984	1	13
536.154	1	17
536.324	1	6
536.494	1	10
536.664	1	2
536.834	1	3
537.004	1	10
537.174	1	17
537.344	1	14
537.514	1	15
537.685	1	16
537.855	1	14
538.025	1	12
538.195	1	9
538.365	1	14
538.535	1	8
538.705	1	7
538.875	1	8
539.045	1	13
539.215	1	15
539.385	1	11
539.555	1	9
539.725	1	18
539.895	1	18
540.065	1	12
540.235	1	4
540.405	1	14
540.575	1	25
540.745	1	10
540.915	1	16
541.085	1	13
541.255	1	20
541.425	1	5
541.595	1	-1
541.765	1	18
541.935	1	13
542.105	1	10
542.275	1	11
542.445	1	12
542.615	1	15
542.785	1	16
542.955	1	14
543.125	1	12
543.295	1	17
543.465	1	1
543.635	1	-4
543.805	1	16
543.975	1	13
544.145	1	17
544.315	1	10
544.485	1	15
544.655	1	18
544.825	1	14
544.995	1	18
545.165	1	24
545.335	1	9
545.505	1	10
545.675	1	13
545.845	1	2
546.015	1	8
546.185	1	3
546.355	1	2
546.525	1	13
546.695	1	9
546.865	1	9
547.035	1	8
547.205	1	13
547.375	1	18
547.545	1	9
547.715	1	13
547.885	1	22
548.055	1	16
548.225	1	13
548.395	1	13
548.565	1	9
548.735	1	17
548.905	1	16
549.075	1	11
549.245	1	8
549.415	1	19
549.585	1	9
549.755	1	9
549.925	1	5
550.095	1	5
550.265	1	2
550.435	1	6
550.605	1	6
550.775	1	18
550.945	1	8
551.115	1	8
551.285	1	6
551.455	1	4
551.625	1	10
551.795	1	10
551.965	1	3
552.135	1	3
552.305	1	7
552.475	1	12
552.645	1	28
552.815	1	12
552.985	1	4
553.155	1	-3
553.325	1	10
553.495	1	10
553.665	1	9
553.835	1	3
554.004	1	8
554.174	1	5
554.344	1	4
554.514	1	9
554.684	1	13
554.854	1	4
555.024	1	22
555.194	1	7
555.364	1	12
555.534	1	9
555.704	1	5
555.874	1	6
556.044	1	12
556.214	1	-10
556.384	1	14
556.554	1	-1
556.724	1	5
556.894	1	4
557.064	1	7
557.234	1	10
557.404	1	9
557.573	1	-5
557.743	1	12
557.913	1	14
558.083	1	1
558.253	1	1
558.423	1	7
558.593	1	8
558.763	1	13
558.933	1	13
559.103	1	8
559.273	1	8
559.443	1	2
559.613	1	-1
559.783	1	4
559.953	1	6
560.122	1	0
560.292	1	-2
560.462	1	13
560.632	1	10
560.802	1	7
560.972	1	11
561.142	1	17
561.312	1	7
561.482	1	4
561.652	1	2
561.822	1	5
561.992	1	5
562.162	1	8
562.331	1	2
562.501	1	4
562.671	1	3
562.841	1	17
563.011	1	12
563.181	1	17
563.351	1	4
563.521	1	16
563.691	1	3
563.861	1	15
564.031	1	12
564.201	1	8
564.370	1	12
564.540	1	22
564.710	1	14
564.880	1	17
565.050	1	-2
565.220	1	7
565.390	1	14
565.560	1	11
565.730	1	3
565.900	1	3
566.069	1	14
566.239	1	-4
566.409	1	15
566.579	1	11
566.749	1	26
566.919	1	8
567.089	1	8
567.259	1	18
567.429	1	13
567.599	1	2
567.768	1	2
567.938	1	9
568.108	1	7
568.278	1	3
568.448	1	5
568.618	1	23
568.788	1	18
568.958	1	15
569.128	1	16
569.297	1	10
569.467	1	11
569.637	1	4
569.807	1	10
569.977	1	4
570.147	1	0
570.317	1	14
570.487	1	10
570.656	1	6
570.826	1	24
570.996	1	4
571.166	1	12
571.336	1	10
571.506	1	4
571.676	1	21
571.846	1	5
572.015	1	3
572.185	1	10
572.355	1	8
572.525	1	2
572.695	1	5
572.865	1	3
573.035	1	0
573.205	1	-11
573.374	1	9
573.544	1	13
573.714	1	7
573.884	1	21
574.054	1	19
574.224	1	3
574.394	1	7
574.563	1	11
574.733	1	8
574.903	1	6
575.073	1	3
575.243	1	8
575.413	1	8
575.583	1	0
575.752	1	5
575.922	1	13
576.092	1	1
576.262	1	7
576.432	1	11
576.602	1	4
576.772	1	-8
576.941	1	16
577.111	1	13
577.281	1	9
577.451	1	11
577.621	1	6
577.791	1	-4
577.960	1	12
578.130	1	-3
578.300	1	15
578.470	1	4
578.640	1	13
578.810	1	11
578.979	1	15
579.149	1	-1
579.319	1	-1
579.489	1	7
579.659	1	6
579.829	1	-3
579.998	1	4
580.168	1	13
580.338	1	8
580.508	1	10
580.678	1	1
580.848	1	8
581.017	1	15
581.187	1	7
581.357	1	2
581.527	1	10
581.697	1	15
581.867	1	10
582.036	1	1
582.206	1	12
582.376	1	6
582.546	1	9
582.716	1	0
582.885	1	15
583.055	1	17
583.225	1	0
583.395	1	11
583.565	1	16
583.735	1	9
583.904	1	4
584.074	1	8
584.244	1	18
584.414	1	4
584.584	1	4
584.753	1	11
584.923	1	10
585.093	1	4
585.263	1	18
585.433	1	0
585.602	1	7
585.772	1	8
585.942	1	-3
586.112	1	14
586.282	1	7
586.451	1	-1
586.621	1	16
586.791	1	1
586.961	1	7
587.131	1	12
587.300	1	-9
587.470	1	5
587.640	1	2
587.810	1	-3
587.980	1	19
588.149	1	19
588.319	1	5
588.489	1	17
588.659	1	1
588.829	1	5
588.998	1	9
589.168	1	7
589.338	1	10
589.508	1	16
589.677	1	1
589.847	1	7
590.017	1	11
590.187	1	7
590.357	1	4
590.526	1	15
590.696	1	9
590.866	1	16
591.036	1	7
591.205	1	-2
591.375	1	4
591.545	1	13
591.715	1	16
591.885	1	15
592.054	1	7
592.224	1	7
592.394	1	5
592.564	1	4
592.733	1	12
592.903	1	12
593.073	1	1
593.243	1	11
593.412	1	0
593.582	1	12
593.752	1	6
593.922	1	4
594.091	1	21
594.261	1	9
594.431	1	11
594.601	1	13
594.771	1	-7
594.940	1	4
595.110	1	8
595.280	1	3
595.450	1	0
595.619	1	17
595.789	1	1
595.959	1	8
596.129	1	14
596.298	1	6
596.468	1	8
596.638	1	13
596.808	1	16
596.977	1	10
597.147	1	14
597.317	1	3
597.487	1	6
597.656	1	12
597.826	1	3
597.996	1	9
598.166	1	6
598.335	1	19
598.505	1	8
598.675	1	1
598.844	1	8
599.014	1	13
599.184	1	17
599.354	1	1
599.523	1	3
599.693	1	12
599.863	1	-1
600.033	1	6
600.202	1	3
600.372	1	4
600.542	1	11
600.712	1	8
600.881	1	13
601.051	1	6
601.221	1	8
601.390	1	-3
601.560	1	9
601.730	1	15
601.900	1	11
602.069	1	13
602.239	1	-1
602.409	1	21
602.578	1	1
602.748	1	7
602.918	1	7
603.088	1	7
603.257	1	8
603.427	1	2
603.597	1	1
603.767	1	6
603.936	1	20
604.106	1	23
604.276	1	10
604.445	1	9
604.615	1	4
604.785	1	9
604.954	1	4
605.124	1	1
605.294	1	9
605.464	1	18
605.633	1	24
605.803	1	11
605.973	1	8
606.142	1	22
606.312	1	6
606.482	1	0
606.652	1	15
606.821	1	10
606.991	1	8
607.161	1	10
607.330	1	0
607.500	1	-1
607.670	1	0
607.839	1	15
608.009	1	2
608.179	1	1
608.348	1	20
608.518	1	14
608.688	1	11
608.858	1	1
609.027	1	16
609.197	1	19
609.367	1	4
609.536	1	-1
609.706	1	12
609.876	1	4
610.045	1	12
610.215	1	14
610.385	1	17
610.554	1	15
610.724	1	13
610.894	1	18
611.063	1	9
611.233	1	18
611.403	1	10
611.572	1	17
611.742	1	14
611.912	1	3
612.081	1	11
612.251	1	9
612.421	1	14
612.590	1	7
612.760	1	21
612.930	1	7
613.099	1	15
613.269	1	8
613.439	1	11
613.608	1	17
613.778	1	7
613.948	1	24
614.117	1	13
614.287	1	10
614.457	1	0
614.626	1	-4
614.796	1	5
614.966	1	-1
615.135	1	6
615.305	1	5
615.475	1	15
615.644	1	15
615.814	1	12
615.984	1	0
616.153	1	9
616.323	1	-2
616.493	1	8
616.662	1	14
616.832	1	13
617.002	1	20
617.171	1	6
617.341	1	13
617.511	1	2
617.680	1	11
617.850	1	4
618.019	1	18
618.189	1	10
618.359	1	11
618.528	1	14
618.698	1	8
618.868	1	17
619.037	1	13
619.207	1	14
619.377	1	11
619.546	1	11
619.716	1	4
619.885	1	22
620.055	1	9
620.225	1	13
620.394	1	16
620.564	1	15
620.734	1	10
620.903	1	15
621.073	1	21
621.242	1	-5
621.412	1	9
621.582	1	6
621.751	1	8
621.921	1	8
622.091	1	12
622.260	1	16
622.430	1	9
622.599	1	18
622.769	1	16
622.939	1	15
623.108	1	19
623.278	1	15
623.448	1	8
623.617	1	6
623.787	1	12
623.956	1	12
624.126	1	12
624.296	1	15
624.465	1	3
624.635	1	9
624.804	1	8
624.974	1	8
625.144	1	17
625.313	1	19
625.483	1	12
625.652	1	10
625.822	1	5
625.992	1	8
626.161	1	1
626.331	1	4
626.501	1	7
626.670	1	2
626.840	1	4
627.009	1	9
627.179	1	12
627.348	1	21
627.518	1	18
627.688	1	11
627.857	1	0
628.027	1	12
628.196	1	14
628.366	1	14
628.536	1	12
628.705	1	4
628.875	1	15
629.044	1	11
629.214	1	10
629.384	1	6
629.553	1	10
629.723	1	0
629.892	1	12
630.062	1	20
630.232	1	6
630.401	1	12
630.571	1	14
630.740	1	19
630.910	1	18
631.079	1	13
631.249	1	8
631.419	1	11
631.588	1	7
631.758	1	14
631.927	1	6
632.097	1	13
632.266	1	15
632.436	1	6
632.606	1	18
632.775	1	22
632.945	1	3
633.114	1	8
633.284	1	-1
633.453	1	12
633.623	1	16
633.793	1	13
633.962	1	-4
634.132	1	17
634.301	1	21
634.471	1	14
634.640	1	16
634.810	1	21
634.979	1	21
635.149	1	11
635.319	1	16
635.488	1	10
635.658	1	-2
635.827	1	11
635.997	1	10
636.166	1	9
636.336	1	10
636.505	1	17
636.675	1	11
636.845	1	18
637.014	1	21
637.184	1	11
637.353	1	14
637.523	1	9
637.692	1	22
637.862	1	2
638.031	1	4
638.201	1	17
638.370	1	11
638.540	1	7
638.710	1	12
638.879	1	9
639.049	1	24
639.218	1	10
639.388	1	23
639.557	1	7
639.727	1	7
639.896	1	16
640.066	1	2
640.235	1	16
640.405	1	13
640.574	1	11
640.744	1	19
640.914	1	12
641.083	1	10
641.253	1	18
641.422	1	12
641.592	1	12
641.761	1	18
641.931	1	6
642.100	1	7
642.270	1	15
642.439	1	9
642.609	1	20
642.778	1	11
642.948	1	8
643.117	1	13
643.287	1	4
643.456	1	2
643.626	1	19
643.795	1	14
643.965	1	9
644.134	1	14
644.304	1	21
644.473	1	7
644.643	1	12
644.812	1	16
644.982	1	17
645.151	1	12
645.321	1	14
645.490	1	18
645.660	1	9
645.829	1	8
645.999	1	19
646.168	1	25
646.338	1	18
646.507	1	7
646.677	1	16
646.846	1	14
647.016	1	10
647.185	1	10
647.355	1	8
647.524	1	15
647.694	1	15
647.863	1	15
648.033	1	13
648.202	1	16
648.372	1	10
648.541	1	19
648.711	1	13
648.880	1	12
649.050	1	18
649.219	1	5
649.389	1	16
649.558	1	8
649.728	1	16
649.897	1	21
650.067	1	9
650.236	1	19
650.406	1	-2
650.575	1	12
650.745	1	18
650.914	1	19
651.084	1	16
651.253	1	15
651.423	1	7
651.592	1	17
651.762	1	17
651.931	1	19
652.101	1	9
652.270	1	12
652.440	1	21
652.609	1	11
652.778	1	19
652.948	1	-1
653.117	1	24
653.287	1	10
653.456	1	21
653.626	1	7
653.795	1	8
653.965	1	23
654.134	1	8
654.304	1	30
654.473	1	29
654.643	1	18
654.812	1	21
654.982	1	16
655.151	1	16
655.320	1	13
655.490	1	7
655.659	1	16
655.829	1	14
655.998	1	14
656.168	1	4
656.337	1	12
656.507	1	3
656.676	1	15
656.846	1	5
657.015	1	24
657.184	1	11
657.354	1	4
657.523	1	14
657.693	1	13
657.862	1	7
658.032	1	9
658.201	1	16
658.371	1	16
658.540	1	28
658.709	1	17
658.879	1	1
659.048	1	2
659.218	1	9
659.387	1	18
659.557	1	8
659.726	1	20
659.895	1	5
660.065	1	16
660.234	1	20
660.404	1	28
660.573	1	19
660.743	1	15
660.912	1	13
661.081	1	15
661.251	1	10
661.420	1	15
661.590	1	19
661.759	1	14
661.929	1	19
662.098	1	23
662.267	1	30
662.437	1	19
662.606	1	17
662.776	1	10
662.945	1	29
663.115	1	5
663.284	1	7
663.453	1	11
663.623	1	15
663.792	1	16
663.962	1	13
664.131	1	10
664.300	1	17
664.470	1	4
664.639	1	13
664.809	1	17
664.978	1	12
665.148	1	28
665.317	1	10
665.486	1	15
665.656	1	9
665.825	1	7
665.995	1	22
666.164	1	17
666.333	1	23
666.503	1	28
666.672	1	16
666.842	1	0
667.011	1	16
667.180	1	16
667.350	1	25
667.519	1	12
667.689	1	28
667.858	1	26
668.027	1	16
668.197	1	16
668.366	1	24
668.536	1	23
668.705	1	20
668.874	1	19
669.044	1	11
669.213	1	26
669.382	1	24
669.552	1	5
669.721	1	14
669.891	1	6
670.060	1	11
670.229	1	18
670.399	1	11
670.568	1	23
670.738	1	12
670.907	1	19
671.076	1	15
671.246	1	7
671.415	1	21
671.584	1	14
671.754	1	19
671.923	1	13
672.093	1	27
672.262	1	11
672.431	1	26
672.601	1	4
672.770	1	13
672.939	1	13
673.109	1	12
673.278	1	22
673.448	1	18
673.617	1	13
673.786	1	13
