325.333	1	5
325.504	1	8
325.675	1	4
325.846	1	2
326.017	1	6
326.188	1	-3
326.359	1	9
326.531	1	-4
326.702	1	0
326.873	1	9
327.044	1	-1
327.215	1	-7
327.386	1	0
327.557	1	7
327.728	1	-9
327.899	1	8
328.070	1	5
328.241	1	6
328.412	1	-11
328.583	1	-1
328.754	1	-3
328.926	1	2
329.097	1	7
329.268	1	5
329.439	1	-4
329.610	1	2
329.781	1	4
329.952	1	-1
330.123	1	-3
330.294	1	4
330.465	1	14
330.636	1	-5
330.807	1	4
330.978	1	0
331.149	1	5
331.320	1	5
331.492	1	10
331.663	1	1
331.834	1	10
332.005	1	-2
332.176	1	2
332.347	1	0
332.518	1	-9
332.689	1	5
332.860	1	0
333.031	1	8
333.202	1	8
333.373	1	12
333.544	1	2
333.715	1	-6
333.886	1	3
334.057	1	-1
334.228	1	1
334.399	1	-7
334.570	1	8
334.741	1	14
334.912	1	8
335.084	1	-2
335.255	1	0
335.426	1	-2
335.597	1	10
335.768	1	-7
335.939	1	7
336.110	1	-2
336.281	1	1
336.452	1	6
336.623	1	-4
336.794	1	5
336.965	1	0
337.136	1	7
337.307	1	2
337.478	1	0
337.649	1	-2
337.820	1	-1
337.991	1	0
338.162	1	-6
338.333	1	-1
338.504	1	-4
338.675	1	0
338.846	1	-1
339.017	1	11
339.188	1	3
339.359	1	1
339.530	1	7
339.701	1	3
339.872	1	1
340.043	1	5
340.214	1	4
340.385	1	1
340.556	1	4
340.727	1	4
340.898	1	0
341.069	1	-1
341.240	1	15
341.411	1	5
341.582	1	0
341.753	1	-1
341.924	1	-1
342.095	1	4
342.266	1	-11
342.437	1	8
342.608	1	-7
342.779	1	2
342.950	1	-1
343.121	1	8
343.292	1	5
343.463	1	17
343.634	1	6
343.805	1	-4
343.976	1	10
344.147	1	13
344.318	1	2
344.489	1	-1
344.660	1	4
344.831	1	3
345.002	1	-4
345.173	1	10
345.344	1	-4
345.515	1	8
345.686	1	0
345.857	1	11
346.028	1	9
346.199	1	12
346.370	1	2
346.541	1	14
346.712	1	1
346.883	1	4
347.054	1	-4
347.225	1	2
347.396	1	6
347.567	1	4
347.738	1	7
347.909	1	2
348.080	1	-3
348.251	1	0
348.422	1	6
348.593	1	-2
348.764	1	-1
348.935	1	-5
349.106	1	-1
349.277	1	7
349.448	1	3
349.619	1	12
349.790	1	11
349.961	1	8
350.132	1	-6
350.303	1	8
350.474	1	11
350.645	1	-1
350.816	1	17
350.987	1	-6
351.157	1	6
351.328	1	16
351.499	1	4
351.670	1	9
351.841	1	-6
352.012	1	7
352.183	1	-3
352.354	1	2
352.525	1	-2
352.696	1	-3
352.867	1	-5
353.038	1	6
353.209	1	6
353.380	1	14
353.551	1	1
353.722	1	7
353.893	1	-2
354.064	1	10
354.235	1	9
354.406	1	3
354.576	1	2
354.747	1	3
354.918	1	2
355.089	1	9
355.260	1	1
355.431	1	7
355.602	1	-3
355.773	1	8
355.944	1	0
356.115	1	0
356.286	1	1
356.457	1	5
356.628	1	12
356.799	1	-2
356.970	1	4
357.141	1	13
357.311	1	10
357.482	1	3
357.653	1	3
357.824	1	10
357.995	1	8
358.166	1	2
358.337	1	4
358.508	1	0
358.679	1	1
358.850	1	13
359.021	1	3
359.192	1	3
359.363	1	10
359.533	1	7
359.704	1	16
359.875	1	18
360.046	1	-2
360.217	1	2
360.388	1	-2
360.559	1	12
360.730	1	-6
360.901	1	5
361.072	1	3
361.243	1	6
361.414	1	7
361.584	1	18
361.755	1	6
361.926	1	5
362.097	1	0
362.268	1	7
362.439	1	-1
362.610	1	3
362.781	1	-4
362.952	1	0
363.123	1	15
363.293	1	0
363.464	1	6
363.635	1	8
363.806	1	6
363.977	1	-5
364.148	1	-5
364.319	1	5
364.490	1	10
364.661	1	8
364.832	1	13
365.002	1	7
365.173	1	1
365.344	1	3
365.515	1	1
365.686	1	8
365.857	1	3
366.028	1	-1
366.199	1	12
366.370	1	9
366.540	1	16
366.711	1	8
366.882	1	0
367.053	1	-4
367.224	1	-5
367.395	1	9
367.566	1	9
367.737	1	8
367.908	1	0
368.078	1	20
368.249	1	11
368.420	1	6
368.591	1	8
368.762	1	4
368.933	1	6
369.104	1	6
369.274	1	4
369.445	1	10
369.616	1	11
369.787	1	4
369.958	1	7
370.129	1	6
370.300	1	7
370.471	1	9
370.641	1	6
370.812	1	1
370.983	1	1
371.154	1	10
371.325	1	8
371.496	1	6
371.667	1	10
371.837	1	8
372.008	1	5
372.179	1	10
372.350	1	4
372.521	1	9
372.692	1	10
372.863	1	7
373.033	1	10
373.204	1	-8
373.375	1	4
373.546	1	15
373.717	1	12
373.888	1	3
374.059	1	21
374.229	1	5
374.400	1	0
374.571	1	9
374.742	1	10
374.913	1	1
375.084	1	5
375.254	1	12
375.425	1	-1
375.596	1	7
375.767	1	3
375.938	1	9
376.109	1	0
376.279	1	-3
376.450	1	8
376.621	1	9
376.792	1	3
376.963	1	4
377.134	1	18
377.304	1	12
377.475	1	1
377.646	1	11
377.817	1	-3
377.988	1	2
378.159	1	-3
378.329	1	4
378.500	1	4
378.671	1	7
378.842	1	3
379.013	1	6
379.184	1	17
379.354	1	-9
379.525	1	3
379.696	1	-3
379.867	1	5
380.038	1	4
380.209	1	5
380.379	1	2
380.550	1	12
380.721	1	16
380.892	1	15
381.063	1	-2
381.233	1	-10
381.404	1	8
381.575	1	18
381.746	1	12
381.917	1	3
382.087	1	13
382.258	1	1
382.429	1	8
382.600	1	3
382.771	1	12
382.941	1	7
383.112	1	2
383.283	1	7
383.454	1	-4
383.625	1	7
383.795	1	10
383.966	1	1
384.137	1	6
384.308	1	8
384.479	1	4
384.649	1	2
384.820	1	4
384.991	1	3
385.162	1	10
385.333	1	7
385.503	1	6
385.674	1	8
385.845	1	11
386.016	1	15
386.187	1	-1
386.357	1	6
386.528	1	6
386.699	1	4
386.870	1	9
387.041	1	0
387.211	1	6
387.382	1	6
387.553	1	5
387.724	1	-9
387.894	1	-1
388.065	1	7
388.236	1	9
388.407	1	7
388.578	1	-1
388.748	1	11
388.919	1	17
389.090	1	2
389.261	1	12
389.431	1	14
389.602	1	5
389.773	1	9
389.944	1	4
390.114	1	10
390.285	1	11
390.456	1	8
390.627	1	14
390.798	1	12
390.968	1	0
391.139	1	2
391.310	1	23
391.481	1	0
391.651	1	7
391.822	1	-5
391.993	1	9
392.164	1	-2
392.334	1	6
392.505	1	-2
392.676	1	8
392.847	1	-4
393.017	1	15
393.188	1	6
393.359	1	11
393.530	1	2
393.700	1	10
393.871	1	11
394.042	1	3
394.213	1	7
394.383	1	7
394.554	1	4
394.725	1	6
394.896	1	14
395.066	1	0
395.237	1	4
395.408	1	3
395.579	1	9
395.749	1	18
395.920	1	12
396.091	1	5
396.262	1	10
396.432	1	-1
396.603	1	4
396.774	1	7
396.945	1	11
397.115	1	16
397.286	1	7
397.457	1	2
397.627	1	12
397.798	1	1
397.969	1	7
398.140	1	-1
398.310	1	11
398.481	1	-7
398.652	1	21
398.823	1	5
398.993	1	5
399.164	1	13
399.335	1	10
399.505	1	12
399.676	1	9
399.847	1	8
400.018	1	9
400.188	1	8
400.359	1	6
400.530	1	-2
400.700	1	0
400.871	1	11
401.042	1	7
401.213	1	-1
401.383	1	3
401.554	1	7
401.725	1	6
401.895	1	14
402.066	1	4
402.237	1	13
402.408	1	11
402.578	1	2
402.749	1	-3
402.920	1	-1
403.090	1	5
403.261	1	15
403.432	1	9
403.603	1	2
403.773	1	16
403.944	1	4
404.115	1	6
404.285	1	9
404.456	1	12
404.627	1	8
404.797	1	7
404.968	1	20
405.139	1	13
405.310	1	6
405.480	1	11
405.651	1	12
405.822	1	11
405.992	1	7
406.163	1	16
406.334	1	2
406.504	1	9
406.675	1	14
406.846	1	14
407.016	1	0
407.187	1	28
407.358	1	12
407.528	1	-2
407.699	1	11
407.870	1	9
408.041	1	8
408.211	1	3
408.382	1	16
408.553	1	6
408.723	1	13
408.894	1	13
409.065	1	6
409.235	1	10
409.406	1	8
409.577	1	19
409.747	1	0
409.918	1	-3
410.089	1	7
410.259	1	19
410.430	1	4
410.601	1	7
410.771	1	9
410.942	1	20
411.113	1	-9
411.283	1	0
411.454	1	6
411.625	1	3
411.795	1	8
411.966	1	13
412.137	1	6
412.307	1	8
412.478	1	16
412.649	1	1
412.819	1	6
412.990	1	4
413.161	1	12
413.331	1	8
413.502	1	11
413.672	1	0
413.843	1	14
414.014	1	13
414.184	1	14
414.355	1	17
414.526	1	17
414.696	1	10
414.867	1	13
415.038	1	2
415.208	1	8
415.379	1	7
415.550	1	17
415.720	1	4
415.891	1	7
416.062	1	8
416.232	1	1
416.403	1	9
416.573	1	7
416.744	1	6
416.915	1	9
417.085	1	16
417.256	1	11
417.427	1	20
417.597	1	4
417.768	1	-2
417.939	1	14
418.109	1	3
418.280	1	14
418.450	1	4
418.621	1	3
418.792	1	10
418.962	1	9
419.133	1	7
419.304	1	5
419.474	1	6
419.645	1	5
419.815	1	11
419.986	1	12
420.157	1	7
420.327	1	7
420.498	1	7
420.669	1	11
420.839	1	20
421.010	1	16
421.180	1	10
421.351	1	14
421.522	1	9
421.692	1	9
421.863	1	6
422.033	1	12
422.204	1	17
422.375	1	5
422.545	1	8
422.716	1	6
422.886	1	5
423.057	1	0
423.228	1	5
423.398	1	6
423.569	1	11
423.740	1	3
423.910	1	5
424.081	1	4
424.251	1	-2
424.422	1	18
424.593	1	9
424.763	1	14
424.934	1	11
425.104	1	8
425.275	1	5
425.445	1	14
425.616	1	8
425.787	1	2
425.957	1	14
426.128	1	-1
426.298	1	-10
426.469	1	0
426.640	1	8
426.810	1	8
426.981	1	1
427.151	1	14
427.322	1	4
427.493	1	8
427.663	1	11
427.834	1	15
428.004	1	-4
428.175	1	3
428.345	1	0
428.516	1	11
428.687	1	6
428.857	1	3
429.028	1	11
429.198	1	4
429.369	1	2
429.540	1	-5
429.710	1	7
429.881	1	3
430.051	1	3
430.222	1	-1
430.392	1	21
430.563	1	23
430.734	1	6
430.904	1	5
431.075	1	3
431.245	1	15
431.416	1	8
431.586	1	7
431.757	1	4
431.927	1	5
432.098	1	4
432.269	1	3
432.439	1	22
432.610	1	11
432.780	1	13
432.951	1	-4
433.121	1	4
433.292	1	-1
433.462	1	8
433.633	1	5
433.804	1	20
433.974	1	0
434.145	1	12
434.315	1	5
434.486	1	3
434.656	1	7
434.827	1	4
434.997	1	10
435.168	1	10
435.339	1	8
435.509	1	6
435.680	1	3
435.850	1	8
436.021	1	6
436.191	1	9
436.362	1	-3
436.532	1	16
436.703	1	0
436.873	1	11
437.044	1	3
437.214	1	12
437.385	1	4
437.556	1	8
437.726	1	1
437.897	1	8
438.067	1	-3
438.238	1	0
438.408	1	3
438.579	1	18
438.749	1	15
438.920	1	7
439.090	1	9
439.261	1	-1
439.431	1	6
439.602	1	3
439.772	1	3
439.943	1	6
440.113	1	-2
440.284	1	3
440.455	1	5
440.625	1	10
440.796	1	9
440.966	1	2
441.137	1	7
441.307	1	14
441.478	1	2
441.648	1	2
441.819	1	5
441.989	1	-2
442.160	1	-7
442.330	1	1
442.501	1	10
442.671	1	5
442.842	1	2
443.012	1	24
443.183	1	6
443.353	1	13
443.524	1	-1
443.694	1	6
443.865	1	-5
444.035	1	3
444.206	1	5
444.376	1	3
444.547	1	2
444.717	1	10
444.888	1	5
445.058	1	17
445.229	1	4
445.399	1	15
445.570	1	10
445.740	1	1
445.911	1	-5
446.081	1	11
446.252	1	8
446.422	1	5
446.593	1	8
446.763	1	10
446.934	1	3
447.104	1	6
447.275	1	-1
447.445	1	0
447.616	1	4
447.786	1	8
447.957	1	8
448.127	1	3
448.298	1	-3
448.468	1	3
448.639	1	8
448.809	1	2
448.979	1	5
449.150	1	11
449.320	1	0
449.491	1	7
449.661	1	5
449.832	1	-1
450.002	1	-1
450.173	1	3
450.343	1	11
450.514	1	4
450.684	1	10
450.855	1	9
451.025	1	6
451.196	1	-5
451.366	1	6
451.537	1	-1
451.707	1	12
451.878	1	7
452.048	1	4
452.218	1	1
452.389	1	8
452.559	1	16
452.730	1	2
452.900	1	3
453.071	1	4
453.241	1	-3
453.412	1	6
453.582	1	5
453.753	1	2
453.923	1	5
454.093	1	4
454.264	1	12
454.434	1	7
454.605	1	12
454.775	1	-10
454.946	1	8
455.116	1	3
455.287	1	9
455.457	1	1
455.628	1	-4
455.798	1	-3
455.968	1	8
456.139	1	1
456.309	1	21
456.480	1	4
456.650	1	-1
456.821	1	16
456.991	1	-2
457.161	1	5
457.332	1	6
457.502	1	13
457.673	1	4
457.843	1	8
458.014	1	12
458.184	1	5
458.355	1	1
458.525	1	-4
458.695	1	11
458.866	1	11
459.036	1	12
459.207	1	12
459.377	1	0
459.548	1	9
459.718	1	10
459.888	1	1
460.059	1	8
460.229	1	4
460.400	1	3
460.570	1	7
460.740	1	9
460.911	1	11
461.081	1	2
461.252	1	1
461.422	1	2
461.593	1	9
461.763	1	12
461.933	1	5
462.104	1	6
462.274	1	4
462.445	1	4
462.615	1	11
462.785	1	5
462.956	1	3
463.126	1	6
463.297	1	12
463.467	1	8
463.638	1	8
463.808	1	8
463.978	1	1
464.149	1	3
464.319	1	7
464.490	1	7
464.660	1	21
464.830	1	1
465.001	1	-4
465.171	1	-1
465.342	1	5
465.512	1	14
465.682	1	10
465.853	1	12
466.023	1	15
466.194	1	-14
466.364	1	2
466.534	1	-11
466.705	1	3
466.875	1	14
467.045	1	22
467.216	1	9
467.386	1	4
467.557	1	4
467.727	1	10
467.897	1	17
468.068	1	-10
468.238	1	-9
468.409	1	5
468.579	1	12
468.749	1	7
468.920	1	9
469.090	1	14
469.260	1	16
469.431	1	0
469.601	1	8
469.772	1	1
469.942	1	10
470.112	1	4
470.283	1	8
470.453	1	9
470.623	1	4
470.794	1	9
470.964	1	15
471.135	1	10
471.305	1	12
471.475	1	1
471.646	1	5
471.816	1	3
471.986	1	-3
472.157	1	5
472.327	1	18
472.497	1	9
472.668	1	0
472.838	1	2
473.009	1	6
473.179	1	8
473.349	1	-4
473.520	1	7
473.690	1	8
473.860	1	1
474.031	1	11
474.201	1	14
474.371	1	18
474.542	1	16
474.712	1	5
474.882	1	-2
475.053	1	-4
475.223	1	-8
475.394	1	-2
475.564	1	9
475.734	1	-1
475.905	1	2
476.075	1	3
476.245	1	3
476.416	1	11
476.586	1	11
476.756	1	6
476.927	1	8
477.097	1	9
477.267	1	13
477.438	1	-4
477.608	1	7
477.778	1	9
477.949	1	9
478.119	1	-5
478.289	1	1
478.460	1	10
478.630	1	-1
478.800	1	17
478.971	1	8
479.141	1	3
479.311	1	-1
479.482	1	-10
479.652	1	13
479.822	1	0
479.993	1	1
480.163	1	8
480.333	1	24
480.504	1	-4
480.674	1	-1
480.844	1	6
481.015	1	15
481.185	1	11
481.355	1	-4
481.525	1	-9
481.696	1	-5
481.866	1	2
482.036	1	7
482.207	1	9
482.377	1	2
482.547	1	2
482.718	1	0
482.888	1	-6
483.058	1	4
483.229	1	23
483.399	1	11
483.569	1	-5
483.740	1	4
483.910	1	9
484.080	1	20
484.250	1	6
484.421	1	10
484.591	1	0
484.761	1	3
484.932	1	6
485.102	1	-3
485.272	1	-4
485.443	1	0
485.613	1	-1
485.783	1	4
485.953	1	5
486.124	1	12
486.294	1	5
486.464	1	5
486.635	1	5
486.805	1	18
486.975	1	14
487.146	1	-2
487.316	1	-1
487.486	1	3
487.656	1	4
487.827	1	7
487.997	1	0
488.167	1	6
488.338	1	1
488.508	1	3
488.678	1	10
488.848	1	5
489.019	1	-1
489.189	1	3
489.359	1	6
489.529	1	-5
489.700	1	2
489.870	1	7
490.040	1	-1
490.211	1	0
490.381	1	15
490.551	1	-9
490.721	1	10
490.892	1	16
491.062	1	10
491.232	1	6
491.402	1	-7
491.573	1	10
491.743	1	2
491.913	1	11
492.084	1	3
492.254	1	11
492.424	1	-5
492.594	1	3
492.765	1	15
492.935	1	0
493.105	1	-1
493.275	1	4
493.446	1	3
493.616	1	-2
493.786	1	3
493.956	1	7
494.127	1	7
494.297	1	10
494.467	1	9
494.637	1	12
494.808	1	-1
494.978	1	-4
495.148	1	14
495.318	1	6
495.489	1	12
495.659	1	7
495.829	1	7
495.999	1	-7
496.170	1	10
496.340	1	3
496.510	1	25
496.680	1	6
496.851	1	13
497.021	1	15
497.191	1	-2
497.361	1	6
497.532	1	7
497.702	1	4
497.872	1	4
498.042	1	6
498.213	1	1
498.383	1	7
498.553	1	9
498.723	1	-4
498.894	1	12
499.064	1	-10
499.234	1	8
499.404	1	7
499.574	1	9
499.745	1	-5
499.915	1	7
500.085	1	1
500.255	1	6
500.426	1	0
500.596	1	8
500.766	1	4
500.936	1	2
501.106	1	1
501.277	1	6
501.447	1	-2
501.617	1	3
501.787	1	8
501.958	1	-1
502.128	1	10
502.298	1	8
502.468	1	2
502.638	1	15
502.809	1	0
502.979	1	5
503.149	1	7
503.319	1	7
503.489	1	8
503.660	1	1
503.830	1	4
504.000	1	0
504.170	1	2
504.340	1	-2
504.511	1	11
504.681	1	1
504.851	1	-3
505.021	1	5
505.192	1	5
505.362	1	8
505.532	1	6
505.702	1	12
505.872	1	3
506.043	1	-5
506.213	1	4
506.383	1	-7
506.553	1	13
506.723	1	-2
506.893	1	3
507.064	1	7
507.234	1	-7
507.404	1	7
507.574	1	2
507.744	1	5
507.915	1	8
508.085	1	3
508.255	1	0
508.425	1	5
508.595	1	-1
508.766	1	7
508.936	1	1
509.106	1	6
509.276	1	-3
509.446	1	-1
509.616	1	6
509.787	1	4
509.957	1	-5
510.127	1	1
510.297	1	3
510.467	1	8
510.638	1	-5
510.808	1	-10
510.978	1	7
511.148	1	1
511.318	1	10
511.488	1	3
511.659	1	-6
511.829	1	10
511.999	1	5
512.169	1	-1
512.339	1	6
512.509	1	-2
512.680	1	0
512.850	1	-3
513.020	1	-2
513.190	1	-2
513.360	1	2
513.530	1	7
513.700	1	14
513.871	1	7
514.041	1	11
514.211	1	8
514.381	1	-3
514.551	1	-6
514.721	1	5
514.892	1	6
515.062	1	-7
515.232	1	-5
515.402	1	8
515.572	1	-3
515.742	1	6
515.912	1	10
516.083	1	5
516.253	1	0
516.423	1	5
516.593	1	9
516.763	1	10
516.933	1	6
517.104	1	7
517.274	1	3
517.444	1	1
517.614	1	-1
517.784	1	4
517.954	1	5
518.124	1	-9
518.294	1	8
518.465	1	1
518.635	1	7
518.805	1	-1
518.975	1	8
519.145	1	11
519.315	1	5
519.485	1	-2
519.656	1	5
519.826	1	5
519.996	1	7
520.166	1	2
520.336	1	13
520.506	1	5
520.676	1	-2
520.846	1	12
521.017	1	-2
521.187	1	1
521.357	1	0
521.527	1	-3
521.697	1	-7
521.867	1	4
522.037	1	5
522.207	1	6
522.377	1	14
522.548	1	2
522.718	1	9
522.888	1	-1
523.058	1	-9
523.228	1	12
523.398	1	2
523.568	1	5
523.738	1	-7
523.909	1	12
524.079	1	7
524.249	1	-1
524.419	1	-2
524.589	1	5
524.759	1	0
524.929	1	-1
525.099	1	12
525.269	1	4
525.439	1	3
525.610	1	-1
525.780	1	9
525.950	1	8
526.120	1	-3
526.290	1	-3
526.460	1	5
526.630	1	2
526.800	1	-4
526.970	1	1
527.140	1	2
527.311	1	0
527.481	1	9
527.651	1	3
527.821	1	-7
527.991	1	6
528.161	1	6
528.331	1	-6
528.501	1	-1
528.671	1	-3
528.841	1	8
529.011	1	3
529.181	1	8
529.352	1	2
529.522	1	-13
529.692	1	0
529.862	1	-5
530.032	1	0
530.202	1	7
530.372	1	-4
530.542	1	7
530.712	1	-12
530.882	1	-8
531.052	1	-2
531.222	1	6
531.392	1	0
531.563	1	-2
531.733	1	11
531.903	1	-6
532.073	1	3
532.243	1	-4
532.413	1	5
532.583	1	-5
532.753	1	-9
532.923	1	7
533.093	1	-5
533.263	1	-10
533.433	1	12
533.603	1	5
533.773	1	2
533.943	1	0
534.113	1	1
534.284	1	6
534.454	1	2
534.624	1	-5
534.794	1	-1
534.964	1	13
535.134	1	-5
535.304	1	8
535.474	1	-5
535.644	1	7
535.814	1	-2
535.984	1	-8
536.154	1	4
536.324	1	-10
536.494	1	10
536.664	1	-8
536.834	1	-1
537.004	1	0
537.174	1	6
537.344	1	9
537.514	1	0
537.685	1	4
537.855	1	5
538.025	1	-3
538.195	1	5
538.365	1	1
538.535	1	5
538.705	1	-5
538.875	1	5
539.045	1	-3
539.215	1	11
539.385	1	-12
539.555	1	0
539.725	1	-1
539.895	1	15
540.065	1	0
540.235	1	-3
540.405	1	2
540.575	1	-1
540.745	1	-6
540.915	1	-1
541.085	1	3
541.255	1	5
541.425	1	-12
541.595	1	-8
541.765	1	2
541.935	1	2
542.105	1	3
542.275	1	-4
542.445	1	2
542.615	1	-2
542.785	1	10
542.955	1	1
543.125	1	-8
543.295	1	12
543.465	1	7
543.635	1	-14
543.805	1	6
543.975	1	6
544.145	1	0
544.315	1	5
544.485	1	-1
544.655	1	7
544.825	1	-1
544.995	1	1
545.165	1	5
545.335	1	-4
545.505	1	4
545.675	1	3
545.845	1	3
546.015	1	3
546.185	1	5
546.355	1	-7
546.525	1	-7
546.695	1	1
546.865	1	2
547.035	1	1
547.205	1	2
547.375	1	9
547.545	1	1
547.715	1	0
547.885	1	7
548.055	1	1
548.225	1	-2
548.395	1	7
548.565	1	0
548.735	1	11
548.905	1	-5
549.075	1	2
549.245	1	4
549.415	1	9
549.585	1	-1
549.755	1	2
549.925	1	-1
550.095	1	-2
550.265	1	1
550.435	1	-2
550.605	1	3
550.775	1	0
550.945	1	-3
551.115	1	-1
551.285	1	0
551.455	1	-1
551.625	1	7
551.795	1	9
551.965	1	0
552.135	1	-9
552.305	1	5
552.475	1	4
552.645	1	13
552.815	1	-1
552.985	1	0
553.155	1	-6
553.325	1	12
553.495	1	-1
553.665	1	2
553.835	1	-3
554.004	1	4
554.174	1	-12
554.344	1	2
554.514	1	9
554.684	1	-6
554.854	1	-4
555.024	1	21
555.194	1	16
555.364	1	3
555.534	1	-1
555.704	1	2
555.874	1	6
556.044	1	-1
556.214	1	-8
556.384	1	7
556.554	1	-3
556.724	1	0
556.894	1	3
557.064	1	-12
557.234	1	5
557.404	1	-2
557.573	1	4
557.743	1	1
557.913	1	-8
558.083	1	-3
558.253	1	3
558.423	1	-6
558.593	1	9
558.763	1	-1
558.933	1	-1
559.103	1	-2
559.273	1	8
559.443	1	-5
559.613	1	-3
559.783	1	3
559.953	1	0
560.122	1	7
560.292	1	10
560.462	1	3
560.632	1	0
560.802	1	7
560.972	1	6
561.142	1	1
561.312	1	1
561.482	1	-4
561.652	1	-7
561.822	1	3
561.992	1	8
562.162	1	2
562.331	1	-6
562.501	1	-6
562.671	1	5
562.841	1	14
563.011	1	11
563.181	1	6
563.351	1	-6
563.521	1	5
563.691	1	-8
563.861	1	13
564.031	1	7
564.201	1	-4
564.370	1	10
564.540	1	2
564.710	1	2
564.880	1	-2
565.050	1	4
565.220	1	2
565.390	1	-3
565.560	1	7
565.730	1	0
565.900	1	-4
566.069	1	6
566.239	1	-9
566.409	1	6
566.579	1	2
566.749	1	15
566.919	1	8
567.089	1	2
567.259	1	4
567.429	1	-5
567.599	1	0
567.768	1	-7
567.938	1	-13
568.108	1	-2
568.278	1	8
568.448	1	-3
568.618	1	12
568.788	1	-3
568.958	1	10
569.128	1	7
569.297	1	-10
569.467	1	1
569.637	1	2
569.807	1	-6
569.977	1	2
570.147	1	-7
570.317	1	9
570.487	1	-1
570.656	1	-7
570.826	1	11
570.996	1	-2
571.166	1	-8
571.336	1	5
571.506	1	1
571.676	1	6
571.846	1	-5
572.015	1	13
572.185	1	5
572.355	1	-5
572.525	1	-2
572.695	1	12
572.865	1	-9
573.035	1	-1
573.205	1	-7
573.374	1	-3
573.544	1	-12
573.714	1	0
573.884	1	11
574.054	1	6
574.224	1	4
574.394	1	-14
574.563	1	4
574.733	1	-9
574.903	1	6
575.073	1	-3
575.243	1	-6
575.413	1	2
575.583	1	8
575.752	1	2
575.922	1	3
576.092	1	3
576.262	1	5
576.432	1	11
576.602	1	-3
576.772	1	-3
576.941	1	9
577.111	1	0
577.281	1	3
577.451	1	9
577.621	1	1
577.791	1	-10
577.960	1	3
578.130	1	-8
578.300	1	4
578.470	1	5
578.640	1	5
578.810	1	2
578.979	1	3
579.149	1	-3
579.319	1	-3
579.489	1	3
579.659	1	-7
579.829	1	6
579.998	1	-1
580.168	1	-1
580.338	1	-9
580.508	1	1
580.678	1	-5
580.848	1	12
581.017	1	12
581.187	1	-5
581.357	1	-10
581.527	1	3
581.697	1	4
581.867	1	-6
582.036	1	-5
582.206	1	4
582.376	1	4
582.546	1	-4
582.716	1	-7
582.885	1	1
583.055	1	1
583.225	1	-3
583.395	1	5
583.565	1	13
583.735	1	-7
583.904	1	-4
584.074	1	10
584.244	1	11
584.414	1	-1
584.584	1	-4
584.753	1	14
584.923	1	8
585.093	1	0
585.263	1	6
585.433	1	-2
585.602	1	-1
585.772	1	8
585.942	1	3
586.112	1	-4
586.282	1	-1
586.451	1	-3
586.621	1	6
586.791	1	6
586.961	1	5
587.131	1	5
587.300	1	-10
587.470	1	-7
587.640	1	-8
587.810	1	-2
587.980	1	9
588.149	1	4
588.319	1	-3
588.489	1	8
588.659	1	-1
588.829	1	9
588.998	1	11
589.168	1	3
589.338	1	4
589.508	1	8
589.677	1	0
589.847	1	-1
590.017	1	1
590.187	1	3
590.357	1	-2
590.526	1	7
590.696	1	6
590.866	1	4
591.036	1	-2
591.205	1	-7
591.375	1	5
591.545	1	0
591.715	1	10
591.885	1	8
592.054	1	3
592.224	1	0
592.394	1	0
592.564	1	0
592.733	1	2
592.903	1	-10
593.073	1	2
593.243	1	0
593.412	1	-5
593.582	1	6
593.752	1	7
593.922	1	-5
594.091	1	4
594.261	1	0
594.431	1	2
594.601	1	7
594.771	1	-7
594.940	1	2
595.110	1	14
595.280	1	4
595.450	1	5
595.619	1	-4
595.789	1	-7
595.959	1	-5
596.129	1	2
596.298	1	-8
596.468	1	7
596.638	1	9
596.808	1	17
596.977	1	8
597.147	1	8
597.317	1	-8
597.487	1	-3
597.656	1	2
597.826	1	-6
597.996	1	11
598.166	1	7
598.335	1	7
598.505	1	8
598.675	1	-4
598.844	1	5
599.014	1	2
599.184	1	11
599.354	1	1
599.523	1	-4
599.693	1	8
599.863	1	8
600.033	1	5
600.202	1	1
600.372	1	-3
600.542	1	7
600.712	1	7
600.881	1	6
601.051	1	-2
601.221	1	5
601.390	1	9
601.560	1	-2
601.730	1	3
601.900	1	2
602.069	1	1
602.239	1	-9
602.409	1	20
602.578	1	-2
602.748	1	7
602.918	1	-4
603.088	1	10
603.257	1	5
603.427	1	6
603.597	1	7
603.767	1	3
603.936	1	12
604.106	1	12
604.276	1	2
604.445	1	-1
604.615	1	-14
604.785	1	3
604.954	1	11
605.124	1	-6
605.294	1	0
605.464	1	4
605.633	1	12
605.803	1	-3
605.973	1	-2
606.142	1	5
606.312	1	-9
606.482	1	-7
606.652	1	12
606.821	1	1
606.991	1	0
607.161	1	16
607.330	1	1
607.500	1	1
607.670	1	-13
607.839	1	0
608.009	1	-4
608.179	1	-5
608.348	1	7
608.518	1	1
608.688	1	12
608.858	1	-3
609.027	1	1
609.197	1	9
609.367	1	1
609.536	1	-7
609.706	1	4
609.876	1	-3
610.045	1	2
610.215	1	2
610.385	1	10
610.554	1	-5
610.724	1	8
610.894	1	10
611.063	1	-5
611.233	1	6
611.403	1	-2
611.572	1	6
611.742	1	-5
611.912	1	10
612.081	1	-2
612.251	1	18
612.421	1	-4
612.590	1	-2
612.760	1	-5
612.930	1	-5
613.099	1	6
613.269	1	-7
613.439	1	7
613.608	1	11
613.778	1	-5
613.948	1	6
614.117	1	8
614.287	1	1
614.457	1	-4
614.626	1	-13
614.796	1	-8
614.966	1	-8
615.135	1	-5
615.305	1	0
615.475	1	-2
615.644	1	8
615.814	1	10
615.984	1	-5
616.153	1	-1
616.323	1	-5
616.493	1	3
616.662	1	5
616.832	1	-3
617.002	1	13
617.171	1	-10
617.341	1	0
617.511	1	6
617.680	1	13
617.850	1	-4
618.019	1	6
618.189	1	1
618.359	1	0
618.528	1	-2
618.698	1	0
618.868	1	7
619.037	1	1
619.207	1	-1
619.377	1	12
619.546	1	1
619.716	1	2
619.885	1	12
620.055	1	10
620.225	1	0
620.394	1	6
620.564	1	4
620.734	1	-5
620.903	1	-4
621.073	1	9
621.242	1	-10
621.412	1	-8
621.582	1	1
621.751	1	-2
621.921	1	15
622.091	1	-3
622.260	1	3
622.430	1	-3
622.599	1	13
622.769	1	1
622.939	1	0
623.108	1	5
623.278	1	10
623.448	1	1
623.617	1	4
623.787	1	-1
623.956	1	-2
624.126	1	8
624.296	1	8
624.465	1	-6
624.635	1	-8
624.804	1	1
624.974	1	4
625.144	1	-1
625.313	1	-3
625.483	1	2
625.652	1	-4
625.822	1	-1
625.992	1	5
626.161	1	-3
626.331	1	-1
626.501	1	12
626.670	1	-9
626.840	1	-7
627.009	1	2
627.179	1	3
627.348	1	7
627.518	1	7
627.688	1	6
627.857	1	5
628.027	1	5
628.196	1	4
628.366	1	-6
628.536	1	-6
628.705	1	4
628.875	1	5
629.044	1	-1
629.214	1	4
629.384	1	8
629.553	1	7
629.723	1	7
629.892	1	0
630.062	1	10
630.232	1	-4
630.401	1	2
630.571	1	-4
630.740	1	-2
630.910	1	1
631.079	1	-3
631.249	1	-2
631.419	1	7
631.588	1	-2
631.758	1	-5
631.927	1	-1
632.097	1	10
632.266	1	2
632.436	1	-5
632.606	1	3
632.775	1	1
632.945	1	-1
633.114	1	-3
633.284	1	1
633.453	1	1
633.623	1	2
633.793	1	1
633.962	1	-12
634.132	1	13
634.301	1	3
634.471	1	9
634.640	1	5
634.810	1	10
634.979	1	5
635.149	1	6
635.319	1	2
635.488	1	5
635.658	1	-12
635.827	1	0
635.997	1	1
636.166	1	3
636.336	1	6
636.505	1	11
636.675	1	5
636.845	1	8
637.014	1	11
637.184	1	-3
637.353	1	1
637.523	1	-6
637.692	1	12
637.862	1	-7
638.031	1	-1
638.201	1	11
638.370	1	9
638.540	1	6
638.710	1	8
638.879	1	0
639.049	1	3
639.218	1	-3
639.388	1	3
639.557	1	4
639.727	1	1
639.896	1	-1
640.066	1	-3
640.235	1	12
640.405	1	3
640.574	1	7
640.744	1	4
640.914	1	1
641.083	1	-7
641.253	1	-1
641.422	1	4
641.592	1	2
641.761	1	9
641.931	1	4
642.100	1	13
642.270	1	8
642.439	1	-7
642.609	1	3
642.778	1	11
642.948	1	0
643.117	1	3
643.287	1	-1
643.456	1	-7
643.626	1	4
643.795	1	9
643.965	1	0
644.134	1	5
644.304	1	4
644.473	1	10
644.643	1	3
644.812	1	7
644.982	1	-5
645.151	1	4
645.321	1	-1
645.490	1	6
645.660	1	8
645.829	1	4
645.999	1	13
646.168	1	7
646.338	1	-2
646.507	1	-7
646.677	1	10
646.846	1	9
647.016	1	7
647.185	1	2
647.355	1	1
647.524	1	0
647.694	1	-1
647.863	1	-5
648.033	1	-1
648.202	1	0
648.372	1	-2
648.541	1	5
648.711	1	5
648.880	1	10
649.050	1	11
649.219	1	-4
649.389	1	1
649.558	1	2
649.728	1	10
649.897	1	5
650.067	1	3
650.236	1	10
650.406	1	-2
650.575	1	0
650.745	1	3
650.914	1	1
651.084	1	-3
651.253	1	5
651.423	1	-13
651.592	1	8
651.762	1	1
651.931	1	-1
652.101	1	0
652.270	1	-5
652.440	1	1
652.609	1	2
652.778	1	11
652.948	1	0
653.117	1	12
653.287	1	-1
653.456	1	9
653.626	1	7
653.795	1	5
653.965	1	6
654.134	1	-1
654.304	1	3
654.473	1	5
654.643	1	8
654.812	1	1
654.982	1	4
655.151	1	12
655.320	1	0
655.490	1	-10
655.659	1	6
655.829	1	-7
655.998	1	14
656.168	1	-5
656.337	1	8
656.507	1	-4
656.676	1	3
656.846	1	0
657.015	1	10
657.184	1	-2
657.354	1	1
657.523	1	5
657.693	1	2
657.862	1	-7
658.032	1	-6
658.201	1	5
658.371	1	5
658.540	1	13
658.709	1	6
658.879	1	-6
659.048	1	-12
659.218	1	0
659.387	1	6
659.557	1	4
659.726	1	4
659.895	1	-1
660.065	1	1
660.234	1	1
660.404	1	18
660.573	1	12
660.743	1	1
660.912	1	1
661.081	1	-7
661.251	1	-12
661.420	1	5
661.590	1	5
661.759	1	-6
661.929	1	9
662.098	1	8
662.267	1	6
662.437	1	13
662.606	1	6
662.776	1	9
662.945	1	5
663.115	1	-12
663.284	1	-7
663.453	1	0
663.623	1	1
663.792	1	5
663.962	1	-7
664.131	1	-12
664.300	1	3
664.470	1	-7
664.639	1	-2
664.809	1	4
664.978	1	4
665.148	1	8
665.317	1	-2
665.486	1	1
665.656	1	2
665.825	1	3
665.995	1	8
666.164	1	20
666.333	1	6
666.503	1	13
666.672	1	2
666.842	1	-11
667.011	1	8
667.180	1	-4
667.350	1	8
667.519	1	-5
667.689	1	15
667.858	1	12
668.027	1	12
668.197	1	8
668.366	1	2
668.536	1	6
668.705	1	1
668.874	1	3
669.044	1	-3
669.213	1	0
669.382	1	13
669.552	1	7
669.721	1	5
669.891	1	-3
670.060	1	-4
670.229	1	5
670.399	1	12
670.568	1	13
670.738	1	-6
670.907	1	1
671.076	1	0
671.246	1	1
671.415	1	10
671.584	1	-2
671.754	1	5
671.923	1	2
672.093	1	6
672.262	1	5
672.431	1	4
672.601	1	-3
672.770	1	5
672.939	1	-1
673.109	1	4
673.278	1	7
673.448	1	-4
673.617	1	-1
673.786	1	-2
