325.333	1	-1
325.504	1	3
325.675	1	0
325.846	1	8
326.017	1	5
326.188	1	-1
326.359	1	11
326.531	1	-7
326.702	1	-2
326.873	1	6
327.044	1	-4
327.215	1	1
327.386	1	-5
327.557	1	14
327.728	1	-9
327.899	1	-1
328.070	1	4
328.241	1	6
328.412	1	-6
328.583	1	1
328.754	1	-2
328.926	1	-2
329.097	1	10
329.268	1	2
329.439	1	8
329.610	1	11
329.781	1	9
329.952	1	5
330.123	1	-1
330.294	1	-2
330.465	1	11
330.636	1	-3
330.807	1	0
330.978	1	-2
331.149	1	4
331.320	1	4
331.492	1	8
331.663	1	-4
331.834	1	2
332.005	1	0
332.176	1	2
332.347	1	6
332.518	1	-2
332.689	1	12
332.860	1	-3
333.031	1	-2
333.202	1	20
333.373	1	5
333.544	1	-1
333.715	1	0
333.886	1	3
334.057	1	0
334.228	1	13
334.399	1	1
334.570	1	4
334.741	1	9
334.912	1	1
335.084	1	6
335.255	1	4
335.426	1	-5
335.597	1	8
335.768	1	-5
335.939	1	1
336.110	1	0
336.281	1	3
336.452	1	19
336.623	1	6
336.794	1	5
336.965	1	1
337.136	1	-1
337.307	1	3
337.478	1	3
337.649	1	-5
337.820	1	4
337.991	1	10
338.162	1	2
338.333	1	0
338.504	1	-13
338.675	1	-2
338.846	1	7
339.017	1	1
339.188	1	13
339.359	1	9
339.530	1	1
339.701	1	2
339.872	1	2
340.043	1	8
340.214	1	-5
340.385	1	9
340.556	1	7
340.727	1	-3
340.898	1	-2
341.069	1	15
341.240	1	15
341.411	1	11
341.582	1	7
341.753	1	-2
341.924	1	3
342.095	1	2
342.266	1	-1
342.437	1	6
342.608	1	-6
342.779	1	0
342.950	1	9
343.121	1	9
343.292	1	5
343.463	1	4
343.634	1	11
343.805	1	2
343.976	1	5
344.147	1	14
344.318	1	-2
344.489	1	-7
344.660	1	0
344.831	1	5
345.002	1	3
345.173	1	-1
345.344	1	-1
345.515	1	2
345.686	1	6
345.857	1	6
346.028	1	12
346.199	1	4
346.370	1	-2
346.541	1	15
346.712	1	3
346.883	1	-3
347.054	1	-10
347.225	1	2
347.396	1	4
347.567	1	9
347.738	1	3
347.909	1	5
348.080	1	-3
348.251	1	4
348.422	1	7
348.593	1	1
348.764	1	-1
348.935	1	9
349.106	1	1
349.277	1	14
349.448	1	5
349.619	1	2
349.790	1	12
349.961	1	9
350.132	1	3
350.303	1	7
350.474	1	4
350.645	1	-4
350.816	1	20
350.987	1	0
351.157	1	4
351.328	1	7
351.499	1	6
351.670	1	0
351.841	1	-1
352.012	1	6
352.183	1	-4
352.354	1	7
352.525	1	-4
352.696	1	7
352.867	1	3
353.038	1	6
353.209	1	14
353.380	1	7
353.551	1	8
353.722	1	0
353.893	1	7
354.064	1	8
354.235	1	5
354.406	1	-9
354.576	1	-4
354.747	1	-2
354.918	1	8
355.089	1	4
355.260	1	11
355.431	1	9
355.602	1	8
355.773	1	14
355.944	1	1
356.115	1	-10
356.286	1	5
356.457	1	11
356.628	1	15
356.799	1	-1
356.970	1	4
357.141	1	21
357.311	1	10
357.482	1	2
357.653	1	5
357.824	1	14
357.995	1	7
358.166	1	7
358.337	1	7
358.508	1	0
358.679	1	0
358.850	1	5
359.021	1	6
359.192	1	2
359.363	1	9
359.533	1	7
359.704	1	7
359.875	1	6
360.046	1	-2
360.217	1	7
360.388	1	2
360.559	1	12
360.730	1	4
360.901	1	4
361.072	1	-4
361.243	1	9
361.414	1	0
361.584	1	9
361.755	1	10
361.926	1	-8
362.097	1	5
362.268	1	7
362.439	1	3
362.610	1	6
362.781	1	3
362.952	1	12
363.123	1	10
363.293	1	4
363.464	1	-4
363.635	1	4
363.806	1	13
363.977	1	0
364.148	1	-2
364.319	1	0
364.490	1	13
364.661	1	15
364.832	1	21
365.002	1	7
365.173	1	5
365.344	1	10
365.515	1	6
365.686	1	2
365.857	1	7
366.028	1	-3
366.199	1	8
366.370	1	6
366.540	1	12
366.711	1	8
366.882	1	-4
367.053	1	13
367.224	1	8
367.395	1	13
367.566	1	7
367.737	1	-1
367.908	1	-1
368.078	1	18
368.249	1	7
368.420	1	7
368.591	1	12
368.762	1	6
368.933	1	-3
369.104	1	10
369.274	1	0
369.445	1	3
369.616	1	11
369.787	1	4
369.958	1	8
370.129	1	12
370.300	1	6
370.471	1	11
370.641	1	6
370.812	1	15
370.983	1	0
371.154	1	9
371.325	1	17
371.496	1	1
371.667	1	8
371.837	1	15
372.008	1	2
372.179	1	5
372.350	1	2
372.521	1	10
372.692	1	4
372.863	1	0
373.033	1	12
373.204	1	2
373.375	1	7
373.546	1	12
373.717	1	0
373.888	1	13
374.059	1	20
374.229	1	15
374.400	1	-6
374.571	1	17
374.742	1	0
374.913	1	8
375.084	1	8
375.254	1	21
375.425	1	-3
375.596	1	4
375.767	1	3
375.938	1	14
376.109	1	5
376.279	1	5
376.450	1	11
376.621	1	26
376.792	1	6
376.963	1	4
377.134	1	11
377.304	1	5
377.475	1	9
377.646	1	-3
377.817	1	-9
377.988	1	1
378.159	1	5
378.329	1	8
378.500	1	11
378.671	1	12
378.842	1	1
379.013	1	6
379.184	1	17
379.354	1	-4
379.525	1	14
379.696	1	-5
379.867	1	9
380.038	1	4
380.209	1	5
380.379	1	7
380.550	1	8
380.721	1	9
380.892	1	10
381.063	1	7
381.233	1	3
381.404	1	14
381.575	1	12
381.746	1	11
381.917	1	9
382.087	1	6
382.258	1	1
382.429	1	16
382.600	1	20
382.771	1	10
382.941	1	8
383.112	1	4
383.283	1	9
383.454	1	5
383.625	1	7
383.795	1	7
383.966	1	5
384.137	1	8
384.308	1	17
384.479	1	6
384.649	1	16
384.820	1	5
384.991	1	12
385.162	1	18
385.333	1	13
385.503	1	16
385.674	1	7
385.845	1	11
386.016	1	11
386.187	1	1
386.357	1	15
386.528	1	6
386.699	1	-2
386.870	1	8
387.041	1	5
387.211	1	3
387.382	1	8
387.553	1	10
387.724	1	-5
387.894	1	8
388.065	1	5
388.236	1	7
388.407	1	5
388.578	1	1
388.748	1	5
388.919	1	13
389.090	1	13
389.261	1	9
389.431	1	18
389.602	1	5
389.773	1	8
389.944	1	5
390.114	1	10
390.285	1	1
390.456	1	-2
390.627	1	10
390.798	1	8
390.968	1	1
391.139	1	3
391.310	1	17
391.481	1	-2
391.651	1	8
391.822	1	9
391.993	1	5
392.164	1	-1
392.334	1	3
392.505	1	0
392.676	1	14
392.847	1	9
393.017	1	19
393.188	1	8
393.359	1	12
393.530	1	16
393.700	1	13
393.871	1	0
394.042	1	-9
394.213	1	15
394.383	1	13
394.554	1	10
394.725	1	8
394.896	1	5
395.066	1	7
395.237	1	7
395.408	1	15
395.579	1	10
395.749	1	5
395.920	1	16
396.091	1	7
396.262	1	14
396.432	1	8
396.603	1	7
396.774	1	12
396.945	1	9
397.115	1	9
397.286	1	16
397.457	1	5
397.627	1	15
397.798	1	-1
397.969	1	8
398.140	1	15
398.310	1	9
398.481	1	0
398.652	1	20
398.823	1	9
398.993	1	5
399.164	1	6
399.335	1	5
399.505	1	10
399.676	1	10
399.847	1	5
400.018	1	13
400.188	1	10
400.359	1	5
400.530	1	16
400.700	1	2
400.871	1	19
401.042	1	0
401.213	1	3
401.383	1	10
401.554	1	15
401.725	1	18
401.895	1	24
402.066	1	2
402.237	1	8
402.408	1	13
402.578	1	12
402.749	1	12
402.920	1	11
403.090	1	3
403.261	1	17
403.432	1	8
403.603	1	-4
403.773	1	13
403.944	1	2
404.115	1	17
404.285	1	7
404.456	1	14
404.627	1	5
404.797	1	0
404.968	1	19
405.139	1	9
405.310	1	14
405.480	1	9
405.651	1	22
405.822	1	17
405.992	1	1
406.163	1	10
406.334	1	3
406.504	1	7
406.675	1	10
406.846	1	8
407.016	1	9
407.187	1	24
407.358	1	7
407.528	1	0
407.699	1	12
407.870	1	1
408.041	1	9
408.211	1	4
408.382	1	14
408.553	1	-3
408.723	1	14
408.894	1	18
409.065	1	12
409.235	1	11
409.406	1	8
409.577	1	13
409.747	1	-4
409.918	1	-1
410.089	1	17
410.259	1	20
410.430	1	6
410.601	1	14
410.771	1	16
410.942	1	11
411.113	1	10
411.283	1	9
411.454	1	7
411.625	1	19
411.795	1	8
411.966	1	6
412.137	1	13
412.307	1	7
412.478	1	17
412.649	1	1
412.819	1	9
412.990	1	12
413.161	1	13
413.331	1	8
413.502	1	15
413.672	1	13
413.843	1	7
414.014	1	17
414.184	1	2
414.355	1	19
414.526	1	20
414.696	1	9
414.867	1	22
415.038	1	11
415.208	1	15
415.379	1	12
415.550	1	7
415.720	1	8
415.891	1	3
416.062	1	14
416.232	1	14
416.403	1	7
416.573	1	16
416.744	1	7
416.915	1	16
417.085	1	7
417.256	1	15
417.427	1	22
417.597	1	0
417.768	1	7
417.939	1	17
418.109	1	15
418.280	1	6
418.450	1	8
418.621	1	9
418.792	1	1
418.962	1	18
419.133	1	4
419.304	1	15
419.474	1	15
419.645	1	13
419.815	1	12
419.986	1	7
420.157	1	4
420.327	1	2
420.498	1	9
420.669	1	6
420.839	1	14
421.010	1	17
421.180	1	19
421.351	1	17
421.522	1	3
421.692	1	18
421.863	1	12
422.033	1	4
422.204	1	14
422.375	1	5
422.545	1	22
422.716	1	-4
422.886	1	9
423.057	1	5
423.228	1	4
423.398	1	13
423.569	1	8
423.740	1	6
423.910	1	1
424.081	1	14
424.251	1	10
424.422	1	23
424.593	1	19
424.763	1	6
424.934	1	6
425.104	1	6
425.275	1	9
425.445	1	15
425.616	1	17
425.787	1	12
425.957	1	17
426.128	1	4
426.298	1	-2
426.469	1	8
426.640	1	12
426.810	1	5
426.981	1	13
427.151	1	16
427.322	1	21
427.493	1	11
427.663	1	-1
427.834	1	8
428.004	1	5
428.175	1	-2
428.345	1	-6
428.516	1	7
428.687	1	15
428.857	1	4
429.028	1	12
429.198	1	2
429.369	1	6
429.540	1	-1
429.710	1	12
429.881	1	1
430.051	1	13
430.222	1	2
430.392	1	14
430.563	1	15
430.734	1	14
430.904	1	17
431.075	1	5
431.245	1	12
431.416	1	4
431.586	1	7
431.757	1	12
431.927	1	7
432.098	1	4
432.269	1	8
432.439	1	23
432.610	1	14
432.780	1	10
432.951	1	20
433.121	1	9
433.292	1	9
433.462	1	0
433.633	1	3
433.804	1	25
433.974	1	10
434.145	1	17
434.315	1	7
434.486	1	6
434.656	1	13
434.827	1	6
434.997	1	8
435.168	1	5
435.339	1	4
435.509	1	9
435.680	1	2
435.850	1	9
436.021	1	3
436.191	1	13
436.362	1	2
436.532	1	15
436.703	1	6
436.873	1	14
437.044	1	3
437.214	1	22
437.385	1	17
437.556	1	7
437.726	1	4
437.897	1	6
438.067	1	-2
438.238	1	1
438.408	1	2
438.579	1	16
438.749	1	9
438.920	1	6
439.090	1	7
439.261	1	6
439.431	1	5
439.602	1	7
439.772	1	3
439.943	1	10
440.113	1	2
440.284	1	5
440.455	1	5
440.625	1	20
440.796	1	13
440.966	1	1
441.137	1	7
441.307	1	9
441.478	1	11
441.648	1	0
441.819	1	13
441.989	1	12
442.160	1	2
442.330	1	6
442.501	1	12
442.671	1	13
442.842	1	-2
443.012	1	14
443.183	1	3
443.353	1	7
443.524	1	2
443.694	1	-2
443.865	1	10
444.035	1	8
444.206	1	14
444.376	1	9
444.547	1	6
444.717	1	8
444.888	1	7
445.058	1	17
445.229	1	8
445.399	1	16
445.570	1	18
445.740	1	5
445.911	1	-1
446.081	1	13
446.252	1	15
446.422	1	13
446.593	1	0
446.763	1	21
446.934	1	4
447.104	1	6
447.275	1	6
447.445	1	3
447.616	1	8
447.786	1	10
447.957	1	14
448.127	1	0
448.298	1	7
448.468	1	10
448.639	1	10
448.809	1	13
448.979	1	0
449.150	1	16
449.320	1	7
449.491	1	-2
449.661	1	11
449.832	1	5
450.002	1	9
450.173	1	5
450.343	1	12
450.514	1	16
450.684	1	13
450.855	1	11
451.025	1	7
451.196	1	-3
451.366	1	8
451.537	1	13
451.707	1	5
451.878	1	-2
452.048	1	7
452.218	1	5
452.389	1	13
452.559	1	8
452.730	1	7
452.900	1	11
453.071	1	8
453.241	1	1
453.412	1	3
453.582	1	10
453.753	1	3
453.923	1	12
454.093	1	12
454.264	1	13
454.434	1	12
454.605	1	4
454.775	1	3
454.946	1	1
455.116	1	-5
455.287	1	13
455.457	1	18
455.628	1	7
455.798	1	9
455.968	1	12
456.139	1	7
456.309	1	20
456.480	1	-3
456.650	1	4
456.821	1	8
456.991	1	-1
457.161	1	0
457.332	1	13
457.502	1	16
457.673	1	4
457.843	1	-1
458.014	1	-1
458.184	1	7
458.355	1	-5
458.525	1	3
458.695	1	17
458.866	1	15
459.036	1	4
459.207	1	3
459.377	1	4
459.548	1	14
459.718	1	2
459.888	1	9
460.059	1	14
460.229	1	8
460.400	1	5
460.570	1	17
460.740	1	9
460.911	1	1
461.081	1	-1
461.252	1	9
461.422	1	4
461.593	1	7
461.763	1	2
461.933	1	18
462.104	1	6
462.274	1	11
462.445	1	3
462.615	1	13
462.785	1	-1
462.956	1	-4
463.126	1	6
463.297	1	12
463.467	1	5
463.638	1	8
463.808	1	6
463.978	1	11
464.149	1	1
464.319	1	5
464.490	1	4
464.660	1	17
464.830	1	7
465.001	1	1
465.171	1	4
465.342	1	2
465.512	1	11
465.682	1	3
465.853	1	9
466.023	1	20
466.194	1	-3
466.364	1	8
466.534	1	0
466.705	1	10
466.875	1	12
467.045	1	9
467.216	1	9
467.386	1	1
467.557	1	6
467.727	1	6
467.897	1	18
468.068	1	12
468.238	1	-1
468.409	1	15
468.579	1	15
468.749	1	10
468.920	1	12
469.090	1	0
469.260	1	11
469.431	1	-3
469.601	1	8
469.772	1	13
469.942	1	10
470.112	1	10
470.283	1	10
470.453	1	4
470.623	1	9
470.794	1	-2
470.964	1	7
471.135	1	12
471.305	1	7
471.475	1	18
471.646	1	10
471.816	1	2
471.986	1	3
472.157	1	8
472.327	1	2
472.497	1	5
472.668	1	-3
472.838	1	11
473.009	1	8
473.179	1	20
473.349	1	8
473.520	1	0
473.690	1	5
473.860	1	2
474.031	1	1
474.201	1	3
474.371	1	18
474.542	1	10
474.712	1	-3
474.882	1	12
475.053	1	1
475.223	1	-1
475.394	1	-10
475.564	1	-3
475.734	1	2
475.905	1	8
476.075	1	0
476.245	1	5
476.416	1	10
476.586	1	0
476.756	1	4
476.927	1	5
477.097	1	16
477.267	1	5
477.438	1	-3
477.608	1	2
477.778	1	2
477.949	1	3
478.119	1	-4
478.289	1	-9
478.460	1	13
478.630	1	8
478.800	1	9
478.971	1	6
479.141	1	2
479.311	1	-6
479.482	1	-4
479.652	1	14
479.822	1	3
479.993	1	18
480.163	1	6
480.333	1	18
480.504	1	3
480.674	1	-7
480.844	1	5
481.015	1	10
481.185	1	14
481.355	1	-4
481.525	1	-3
481.696	1	4
481.866	1	7
482.036	1	-2
482.207	1	3
482.377	1	5
482.547	1	5
482.718	1	-5
482.888	1	-8
483.058	1	6
483.229	1	8
483.399	1	-4
483.569	1	-6
483.740	1	12
483.910	1	18
484.080	1	16
484.250	1	-1
484.421	1	10
484.591	1	7
484.761	1	4
484.932	1	10
485.102	1	3
485.272	1	4
485.443	1	5
485.613	1	-1
485.783	1	8
485.953	1	0
486.124	1	9
486.294	1	9
486.464	1	3
486.635	1	3
486.805	1	9
486.975	1	7
487.146	1	8
487.316	1	-6
487.486	1	1
487.656	1	12
487.827	1	-1
487.997	1	5
488.167	1	8
488.338	1	4
488.508	1	6
488.678	1	10
488.848	1	4
489.019	1	11
489.189	1	0
489.359	1	1
489.529	1	-3
489.700	1	-4
489.870	1	4
490.040	1	-5
490.211	1	2
490.381	1	23
490.551	1	-1
490.721	1	13
490.892	1	12
491.062	1	8
491.232	1	6
491.402	1	-7
491.573	1	0
491.743	1	5
491.913	1	4
492.084	1	9
492.254	1	6
492.424	1	-1
492.594	1	-1
492.765	1	9
492.935	1	-7
493.105	1	-3
493.275	1	3
493.446	1	15
493.616	1	-5
493.786	1	5
493.956	1	7
494.127	1	9
494.297	1	10
494.467	1	3
494.637	1	8
494.808	1	1
494.978	1	-3
495.148	1	13
495.318	1	5
495.489	1	6
495.659	1	6
495.829	1	3
495.999	1	2
496.170	1	-1
496.340	1	5
496.510	1	14
496.680	1	1
496.851	1	12
497.021	1	14
497.191	1	-4
497.361	1	10
497.532	1	4
497.702	1	5
497.872	1	14
498.042	1	12
498.213	1	2
498.383	1	5
498.553	1	4
498.723	1	-2
498.894	1	16
499.064	1	-5
499.234	1	15
499.404	1	6
499.574	1	-8
499.745	1	-4
499.915	1	1
500.085	1	-1
500.255	1	-4
500.426	1	0
500.596	1	9
500.766	1	-2
500.936	1	4
501.106	1	11
501.277	1	4
501.447	1	5
501.617	1	-2
501.787	1	10
501.958	1	-1
502.128	1	4
502.298	1	11
502.468	1	7
502.638	1	14
502.809	1	12
502.979	1	7
503.149	1	0
503.319	1	6
503.489	1	4
503.660	1	0
503.830	1	5
504.000	1	-1
504.170	1	-1
504.340	1	3
504.511	1	10
504.681	1	1
504.851	1	14
505.021	1	7
505.192	1	8
505.362	1	13
505.532	1	-2
505.702	1	-3
505.872	1	6
506.043	1	-9
506.213	1	8
506.383	1	-10
506.553	1	2
506.723	1	8
506.893	1	7
507.064	1	15
507.234	1	-8
507.404	1	4
507.574	1	-6
507.744	1	2
507.915	1	13
508.085	1	0
508.255	1	5
508.425	1	-1
508.595	1	0
508.766	1	8
508.936	1	1
509.106	1	2
509.276	1	2
509.446	1	-11
509.616	1	15
509.787	1	4
509.957	1	5
510.127	1	5
510.297	1	6
510.467	1	6
510.638	1	-7
510.808	1	1
510.978	1	3
511.148	1	-7
511.318	1	17
511.488	1	3
511.659	1	-9
511.829	1	-4
511.999	1	1
512.169	1	-3
512.339	1	1
512.509	1	8
512.680	1	10
512.850	1	8
513.020	1	-3
513.190	1	3
513.360	1	6
513.530	1	6
513.700	1	6
513.871	1	4
514.041	1	4
514.211	1	15
514.381	1	-5
514.551	1	0
514.721	1	3
514.892	1	4
515.062	1	2
515.232	1	5
515.402	1	11
515.572	1	5
515.742	1	10
515.912	1	10
516.083	1	3
516.253	1	-6
516.423	1	2
516.593	1	3
516.763	1	12
516.933	1	1
517.104	1	9
517.274	1	3
517.444	1	7
517.614	1	-3
517.784	1	1
517.954	1	0
518.124	1	-7
518.294	1	12
518.465	1	4
518.635	1	3
518.805	1	5
518.975	1	8
519.145	1	1
519.315	1	8
519.485	1	8
519.656	1	14
519.826	1	11
519.996	1	3
520.166	1	-1
520.336	1	12
520.506	1	9
520.676	1	7
520.846	1	0
521.017	1	2
521.187	1	-3
521.357	1	2
521.527	1	2
521.697	1	-1
521.867	1	-6
522.037	1	-1
522.207	1	0
522.377	1	4
522.548	1	5
522.718	1	-1
522.888	1	0
523.058	1	-6
523.228	1	0
523.398	1	3
523.568	1	-6
523.738	1	9
523.909	1	1
524.079	1	9
524.249	1	-2
524.419	1	7
524.589	1	8
524.759	1	3
524.929	1	1
525.099	1	15
525.269	1	4
525.439	1	-3
525.610	1	3
525.780	1	13
525.950	1	7
526.120	1	3
526.290	1	-6
526.460	1	4
526.630	1	3
526.800	1	-5
526.970	1	7
527.140	1	13
527.311	1	2
527.481	1	-1
527.651	1	5
527.821	1	-2
527.991	1	11
528.161	1	4
528.331	1	-6
528.501	1	0
528.671	1	5
528.841	1	3
529.011	1	4
529.181	1	15
529.352	1	9
529.522	1	1
529.692	1	0
529.862	1	3
530.032	1	0
530.202	1	3
530.372	1	7
530.542	1	6
530.712	1	-13
530.882	1	3
531.052	1	6
531.222	1	2
531.392	1	3
531.563	1	4
531.733	1	6
531.903	1	7
532.073	1	-7
532.243	1	6
532.413	1	9
532.583	1	2
532.753	1	3
532.923	1	1
533.093	1	0
533.263	1	-3
533.433	1	5
533.603	1	7
533.773	1	-1
533.943	1	3
534.113	1	8
534.284	1	4
534.454	1	0
534.624	1	-7
534.794	1	4
534.964	1	-1
535.134	1	7
535.304	1	6
535.474	1	-5
535.644	1	12
535.814	1	-2
535.984	1	0
536.154	1	10
536.324	1	-5
536.494	1	7
536.664	1	-4
536.834	1	3
537.004	1	-3
537.174	1	9
537.344	1	13
537.514	1	6
537.685	1	-5
537.855	1	9
538.025	1	2
538.195	1	2
538.365	1	3
538.535	1	-3
538.705	1	2
538.875	1	6
539.045	1	7
539.215	1	10
539.385	1	-1
539.555	1	7
539.725	1	3
539.895	1	11
540.065	1	-6
540.235	1	-11
540.405	1	3
540.575	1	4
540.745	1	-4
540.915	1	9
541.085	1	11
541.255	1	11
541.425	1	-6
541.595	1	-9
541.765	1	0
541.935	1	7
542.105	1	-11
542.275	1	9
542.445	1	4
542.615	1	9
542.785	1	6
542.955	1	3
543.125	1	0
543.295	1	14
543.465	1	7
543.635	1	-6
543.805	1	-1
543.975	1	0
544.145	1	-2
544.315	1	0
544.485	1	-4
544.655	1	1
544.825	1	6
544.995	1	-1
545.165	1	12
545.335	1	-5
545.505	1	1
545.675	1	6
545.845	1	3
546.015	1	0
546.185	1	1
546.355	1	-4
546.525	1	4
546.695	1	4
546.865	1	0
547.035	1	0
547.205	1	11
547.375	1	13
547.545	1	-2
547.715	1	7
547.885	1	1
548.055	1	4
548.225	1	-4
548.395	1	12
548.565	1	5
548.735	1	2
548.905	1	-2
549.075	1	2
549.245	1	5
549.415	1	2
549.585	1	8
549.755	1	3
549.925	1	6
550.095	1	-4
550.265	1	1
550.435	1	-6
550.605	1	7
550.775	1	3
550.945	1	-2
551.115	1	-9
551.285	1	-2
551.455	1	-1
551.625	1	2
551.795	1	4
551.965	1	10
552.135	1	-4
552.305	1	-2
552.475	1	8
552.645	1	9
552.815	1	-7
552.985	1	-9
553.155	1	3
553.325	1	-4
553.495	1	-6
553.665	1	2
553.835	1	-1
554.004	1	-1
554.174	1	-2
554.344	1	2
554.514	1	3
554.684	1	0
554.854	1	-7
555.024	1	14
555.194	1	7
555.364	1	7
555.534	1	15
555.704	1	2
555.874	1	1
556.044	1	3
556.214	1	-12
556.384	1	8
556.554	1	-6
556.724	1	-14
556.894	1	6
557.064	1	2
557.234	1	-4
557.404	1	8
557.573	1	0
557.743	1	-2
557.913	1	6
558.083	1	-5
558.253	1	0
558.423	1	3
558.593	1	10
558.763	1	10
558.933	1	5
559.103	1	-4
559.273	1	3
559.443	1	-10
559.613	1	-4
559.783	1	-5
559.953	1	0
560.122	1	9
560.292	1	7
560.462	1	8
560.632	1	2
560.802	1	0
560.972	1	-3
561.142	1	-4
561.312	1	3
561.482	1	2
561.652	1	1
561.822	1	-5
561.992	1	-1
562.162	1	-4
562.331	1	-10
562.501	1	-2
562.671	1	8
562.841	1	7
563.011	1	6
563.181	1	5
563.351	1	-3
563.521	1	9
563.691	1	1
563.861	1	4
564.031	1	1
564.201	1	-5
564.370	1	5
564.540	1	13
564.710	1	4
564.880	1	7
565.050	1	-7
565.220	1	1
565.390	1	-2
565.560	1	3
565.730	1	-1
565.900	1	-15
566.069	1	15
566.239	1	-7
566.409	1	10
566.579	1	3
566.749	1	14
566.919	1	1
567.089	1	1
567.259	1	5
567.429	1	-5
567.599	1	-5
567.768	1	-2
567.938	1	-10
568.108	1	10
568.278	1	10
568.448	1	9
568.618	1	12
568.788	1	3
568.958	1	20
569.128	1	-1
569.297	1	-1
569.467	1	3
569.637	1	-1
569.807	1	-9
569.977	1	6
570.147	1	2
570.317	1	6
570.487	1	4
570.656	1	-3
570.826	1	8
570.996	1	-4
571.166	1	-5
571.336	1	7
571.506	1	2
571.676	1	6
571.846	1	-4
572.015	1	-3
572.185	1	-2
572.355	1	4
572.525	1	-6
572.695	1	13
572.865	1	2
573.035	1	-5
573.205	1	-5
573.374	1	-1
573.544	1	-8
573.714	1	15
573.884	1	8
574.054	1	1
574.224	1	3
574.394	1	-1
574.563	1	6
574.733	1	-5
574.903	1	-1
575.073	1	7
575.243	1	7
575.413	1	-2
575.583	1	0
575.752	1	4
575.922	1	1
576.092	1	2
576.262	1	-3
576.432	1	9
576.602	1	-4
576.772	1	-6
576.941	1	11
577.111	1	2
577.281	1	4
577.451	1	7
577.621	1	-3
577.791	1	-12
577.960	1	6
578.130	1	-3
578.300	1	6
578.470	1	1
578.640	1	-1
578.810	1	8
578.979	1	-1
579.149	1	-7
579.319	1	-7
579.489	1	1
579.659	1	-6
579.829	1	-4
579.998	1	1
580.168	1	1
580.338	1	5
580.508	1	4
580.678	1	-3
580.848	1	5
581.017	1	15
581.187	1	-7
581.357	1	-4
581.527	1	-2
581.697	1	7
581.867	1	-4
582.036	1	5
582.206	1	2
582.376	1	-4
582.546	1	-7
582.716	1	0
582.885	1	-4
583.055	1	4
583.225	1	-5
583.395	1	4
583.565	1	11
583.735	1	-7
583.904	1	4
584.074	1	0
584.244	1	8
584.414	1	6
584.584	1	-8
584.753	1	4
584.923	1	-3
585.093	1	2
585.263	1	2
585.433	1	-8
585.602	1	-2
585.772	1	3
585.942	1	-4
586.112	1	2
586.282	1	6
586.451	1	-3
586.621	1	9
586.791	1	7
586.961	1	-6
587.131	1	10
587.300	1	-11
587.470	1	-4
587.640	1	-5
587.810	1	-5
587.980	1	10
588.149	1	11
588.319	1	5
588.489	1	0
588.659	1	-4
588.829	1	4
588.998	1	7
589.168	1	1
589.338	1	12
589.508	1	1
589.677	1	-3
589.847	1	12
590.017	1	7
590.187	1	-4
590.357	1	-8
590.526	1	13
590.696	1	2
590.866	1	6
591.036	1	4
591.205	1	-6
591.375	1	-1
591.545	1	-7
591.715	1	8
591.885	1	4
592.054	1	1
592.224	1	7
592.394	1	0
592.564	1	1
592.733	1	8
592.903	1	-4
593.073	1	-3
593.243	1	5
593.412	1	-1
593.582	1	12
593.752	1	2
593.922	1	-3
594.091	1	3
594.261	1	3
594.431	1	-1
594.601	1	-2
594.771	1	-6
594.940	1	3
595.110	1	4
595.280	1	-1
595.450	1	-2
595.619	1	-2
595.789	1	0
595.959	1	3
596.129	1	13
596.298	1	8
596.468	1	5
596.638	1	-3
596.808	1	13
596.977	1	4
597.147	1	2
597.317	1	-7
597.487	1	-1
597.656	1	9
597.826	1	-13
597.996	1	0
598.166	1	-5
598.335	1	13
598.505	1	3
598.675	1	0
598.844	1	3
599.014	1	2
599.184	1	10
599.354	1	-4
599.523	1	-3
599.693	1	-1
599.863	1	4
600.033	1	0
600.202	1	-8
600.372	1	-1
600.542	1	6
600.712	1	3
600.881	1	-1
601.051	1	0
601.221	1	-1
601.390	1	6
601.560	1	-1
601.730	1	4
601.900	1	6
602.069	1	5
602.239	1	-7
602.409	1	11
602.578	1	-3
602.748	1	1
602.918	1	-4
603.088	1	2
603.257	1	20
603.427	1	2
603.597	1	5
603.767	1	0
603.936	1	11
604.106	1	11
604.276	1	2
604.445	1	6
604.615	1	-6
604.785	1	-4
604.954	1	5
605.124	1	1
605.294	1	7
605.464	1	20
605.633	1	4
605.803	1	-8
605.973	1	-3
606.142	1	11
606.312	1	-8
606.482	1	1
606.652	1	11
606.821	1	0
606.991	1	6
607.161	1	1
607.330	1	-3
607.500	1	3
607.670	1	1
607.839	1	5
608.009	1	-8
608.179	1	1
608.348	1	13
608.518	1	-3
608.688	1	6
608.858	1	3
609.027	1	4
609.197	1	5
609.367	1	-1
609.536	1	2
609.706	1	-7
609.876	1	-3
610.045	1	-2
610.215	1	-1
610.385	1	8
610.554	1	-6
610.724	1	16
610.894	1	6
611.063	1	-4
611.233	1	5
611.403	1	7
611.572	1	1
611.742	1	-3
611.912	1	0
612.081	1	4
612.251	1	5
612.421	1	6
612.590	1	-1
612.760	1	5
612.930	1	-5
613.099	1	10
613.269	1	1
613.439	1	4
613.608	1	7
613.778	1	1
613.948	1	3
614.117	1	11
614.287	1	2
614.457	1	7
614.626	1	-3
614.796	1	-4
614.966	1	-11
615.135	1	-2
615.305	1	1
615.475	1	7
615.644	1	4
615.814	1	-3
615.984	1	-9
616.153	1	1
616.323	1	-3
616.493	1	10
616.662	1	8
616.832	1	1
617.002	1	15
617.171	1	-1
617.341	1	2
617.511	1	1
617.680	1	10
617.850	1	2
618.019	1	6
618.189	1	0
618.359	1	0
618.528	1	7
618.698	1	7
618.868	1	4
619.037	1	1
619.207	1	8
619.377	1	-1
619.546	1	5
619.716	1	2
619.885	1	15
620.055	1	10
620.225	1	2
620.394	1	8
620.564	1	0
620.734	1	5
620.903	1	9
621.073	1	-4
621.242	1	-7
621.412	1	2
621.582	1	-3
621.751	1	-4
621.921	1	-8
622.091	1	-1
622.260	1	6
622.430	1	0
622.599	1	2
622.769	1	3
622.939	1	9
623.108	1	6
623.278	1	12
623.448	1	5
623.617	1	-2
623.787	1	4
623.956	1	-9
624.126	1	9
624.296	1	15
624.465	1	4
624.635	1	-3
624.804	1	3
624.974	1	-1
625.144	1	5
625.313	1	-2
625.483	1	-4
625.652	1	15
625.822	1	-2
625.992	1	8
626.161	1	-4
626.331	1	2
626.501	1	6
626.670	1	5
626.840	1	-1
627.009	1	1
627.179	1	1
627.348	1	7
627.518	1	6
627.688	1	9
627.857	1	-7
628.027	1	8
628.196	1	-2
628.366	1	-4
628.536	1	0
628.705	1	-2
628.875	1	4
629.044	1	-2
629.214	1	-6
629.384	1	0
629.553	1	8
629.723	1	-3
629.892	1	4
630.062	1	12
630.232	1	-7
630.401	1	2
630.571	1	0
630.740	1	12
630.910	1	5
631.079	1	5
631.249	1	-5
631.419	1	7
631.588	1	-9
631.758	1	-1
631.927	1	-1
632.097	1	9
632.266	1	0
632.436	1	-2
632.606	1	2
632.775	1	1
632.945	1	-8
633.114	1	5
633.284	1	-2
633.453	1	3
633.623	1	6
633.793	1	11
633.962	1	-8
634.132	1	11
634.301	1	2
634.471	1	7
634.640	1	5
634.810	1	4
634.979	1	13
635.149	1	4
635.319	1	8
635.488	1	1
635.658	1	-3
635.827	1	3
635.997	1	2
636.166	1	3
636.336	1	8
636.505	1	17
636.675	1	-7
636.845	1	3
637.014	1	10
637.184	1	1
637.353	1	0
637.523	1	1
637.692	1	4
637.862	1	-5
638.031	1	3
638.201	1	15
638.370	1	3
638.540	1	8
638.710	1	6
638.879	1	-4
639.049	1	5
639.218	1	-2
639.388	1	12
639.557	1	0
639.727	1	1
639.896	1	0
640.066	1	3
640.235	1	12
640.405	1	7
640.574	1	11
640.744	1	7
640.914	1	0
641.083	1	-3
641.253	1	0
641.422	1	6
641.592	1	-4
641.761	1	13
641.931	1	0
642.100	1	11
642.270	1	-3
642.439	1	-2
642.609	1	3
642.778	1	-4
642.948	1	-3
643.117	1	7
643.287	1	-2
643.456	1	-4
643.626	1	2
643.795	1	-3
643.965	1	10
644.134	1	6
644.304	1	1
644.473	1	-3
644.643	1	-2
644.812	1	0
644.982	1	1
645.151	1	4
645.321	1	1
645.490	1	6
645.660	1	9
645.829	1	1
645.999	1	7
646.168	1	7
646.338	1	-1
646.507	1	-1
646.677	1	9
646.846	1	6
647.016	1	10
647.185	1	-3
647.355	1	-3
647.524	1	-7
647.694	1	5
647.863	1	5
648.033	1	3
648.202	1	1
648.372	1	7
648.541	1	7
648.711	1	7
648.880	1	7
649.050	1	3
649.219	1	-10
649.389	1	7
649.558	1	-2
649.728	1	-2
649.897	1	1
650.067	1	1
650.236	1	9
650.406	1	-4
650.575	1	1
650.745	1	1
650.914	1	3
651.084	1	0
651.253	1	4
651.423	1	-2
651.592	1	4
651.762	1	-2
651.931	1	4
652.101	1	-2
652.270	1	6
652.440	1	3
652.609	1	7
652.778	1	1
652.948	1	7
653.117	1	16
653.287	1	3
653.456	1	7
653.626	1	-1
653.795	1	3
653.965	1	1
654.134	1	-6
654.304	1	11
654.473	1	6
654.643	1	8
654.812	1	3
654.982	1	4
655.151	1	8
655.320	1	-4
655.490	1	-8
655.659	1	4
655.829	1	-4
655.998	1	8
656.168	1	-3
656.337	1	2
656.507	1	3
656.676	1	8
656.846	1	-4
657.015	1	15
657.184	1	-5
657.354	1	0
657.523	1	4
657.693	1	-4
657.862	1	7
658.032	1	-5
658.201	1	4
658.371	1	3
658.540	1	12
658.709	1	7
658.879	1	-4
659.048	1	-5
659.218	1	-2
659.387	1	0
659.557	1	5
659.726	1	13
659.895	1	-5
660.065	1	3
660.234	1	12
660.404	1	17
660.573	1	-2
660.743	1	5
660.912	1	5
661.081	1	-7
661.251	1	-6
661.420	1	9
661.590	1	9
661.759	1	8
661.929	1	7
662.098	1	2
662.267	1	9
662.437	1	11
662.606	1	6
662.776	1	-1
662.945	1	11
663.115	1	-15
663.284	1	0
663.453	1	4
663.623	1	10
663.792	1	-2
663.962	1	3
664.131	1	-7
664.300	1	-1
664.470	1	-3
664.639	1	-5
664.809	1	8
664.978	1	2
665.148	1	12
665.317	1	5
665.486	1	10
665.656	1	-1
665.825	1	1
665.995	1	4
666.164	1	9
666.333	1	8
666.503	1	13
666.672	1	2
666.842	1	-5
667.011	1	2
667.180	1	-1
667.350	1	6
667.519	1	1
667.689	1	12
667.858	1	17
668.027	1	6
668.197	1	8
668.366	1	9
668.536	1	1
668.705	1	12
668.874	1	4
669.044	1	-3
669.213	1	1
669.382	1	14
669.552	1	8
669.721	1	2
669.891	1	-10
670.060	1	-2
670.229	1	8
670.399	1	0
670.568	1	5
670.738	1	-2
670.907	1	-4
671.076	1	3
671.246	1	2
671.415	1	2
671.584	1	3
671.754	1	7
671.923	1	3
672.093	1	6
672.262	1	9
672.431	1	16
672.601	1	-3
672.770	1	1
672.939	1	5
673.109	1	0
673.278	1	10
673.448	1	-4
673.617	1	2
673.786	1	-4
