325.333	1	-1
325.504	1	9
325.675	1	-7
325.846	1	1
326.017	1	-4
326.188	1	5
326.359	1	4
326.531	1	3
326.702	1	4
326.873	1	2
327.044	1	-2
327.215	1	-7
327.386	1	-5
327.557	1	13
327.728	1	-8
327.899	1	2
328.070	1	6
328.241	1	2
328.412	1	-5
328.583	1	6
328.754	1	-4
328.926	1	2
329.097	1	4
329.268	1	5
329.439	1	4
329.610	1	6
329.781	1	2
329.952	1	3
330.123	1	-4
330.294	1	10
330.465	1	11
330.636	1	2
330.807	1	-5
330.978	1	7
331.149	1	-3
331.320	1	4
331.492	1	12
331.663	1	7
331.834	1	-2
332.005	1	1
332.176	1	-2
332.347	1	8
332.518	1	-7
332.689	1	5
332.860	1	-13
333.031	1	5
333.202	1	7
333.373	1	-3
333.544	1	4
333.715	1	0
333.886	1	3
334.057	1	4
334.228	1	10
334.399	1	0
334.570	1	13
334.741	1	4
334.912	1	13
335.084	1	0
335.255	1	2
335.426	1	-8
335.597	1	4
335.768	1	-8
335.939	1	-2
336.110	1	-3
336.281	1	-1
336.452	1	14
336.623	1	4
336.794	1	3
336.965	1	2
337.136	1	6
337.307	1	5
337.478	1	1
337.649	1	-3
337.820	1	-5
337.991	1	3
338.162	1	5
338.333	1	3
338.504	1	-5
338.675	1	0
338.846	1	-2
339.017	1	2
339.188	1	-2
339.359	1	6
339.530	1	-3
339.701	1	-4
339.872	1	-4
340.043	1	1
340.214	1	9
340.385	1	4
340.556	1	1
340.727	1	-6
340.898	1	8
341.069	1	12
341.240	1	11
341.411	1	5
341.582	1	-7
341.753	1	-2
341.924	1	3
342.095	1	2
342.266	1	0
342.437	1	-4
342.608	1	-1
342.779	1	0
342.950	1	5
343.121	1	7
343.292	1	2
343.463	1	-2
343.634	1	8
343.805	1	-5
343.976	1	-2
344.147	1	8
344.318	1	7
344.489	1	12
344.660	1	8
344.831	1	2
345.002	1	2
345.173	1	2
345.344	1	0
345.515	1	-1
345.686	1	2
345.857	1	10
346.028	1	9
346.199	1	-3
346.370	1	-3
346.541	1	20
346.712	1	-3
346.883	1	6
347.054	1	4
347.225	1	-7
347.396	1	1
347.567	1	2
347.738	1	5
347.909	1	1
348.080	1	-5
348.251	1	4
348.422	1	1
348.593	1	9
348.764	1	-2
348.935	1	1
349.106	1	-6
349.277	1	13
349.448	1	3
349.619	1	7
349.790	1	14
349.961	1	6
350.132	1	0
350.303	1	12
350.474	1	9
350.645	1	2
350.816	1	10
350.987	1	6
351.157	1	-3
351.328	1	1
351.499	1	-6
351.670	1	4
351.841	1	6
352.012	1	-2
352.183	1	1
352.354	1	-2
352.525	1	-2
352.696	1	4
352.867	1	-5
353.038	1	1
353.209	1	7
353.380	1	4
353.551	1	7
353.722	1	-1
353.893	1	0
354.064	1	5
354.235	1	7
354.406	1	-7
354.576	1	-5
354.747	1	-3
354.918	1	14
355.089	1	11
355.260	1	1
355.431	1	12
355.602	1	-1
355.773	1	6
355.944	1	-2
356.115	1	-2
356.286	1	4
356.457	1	5
356.628	1	9
356.799	1	3
356.970	1	3
357.141	1	14
357.311	1	10
357.482	1	2
357.653	1	3
357.824	1	18
357.995	1	6
358.166	1	7
358.337	1	0
358.508	1	4
358.679	1	3
358.850	1	7
359.021	1	6
359.192	1	6
359.363	1	1
359.533	1	0
359.704	1	0
359.875	1	20
360.046	1	13
360.217	1	8
360.388	1	-1
360.559	1	5
360.730	1	-4
360.901	1	12
361.072	1	4
361.243	1	-4
361.414	1	7
361.584	1	10
361.755	1	12
361.926	1	-1
362.097	1	10
362.268	1	10
362.439	1	1
362.610	1	-8
362.781	1	0
362.952	1	6
363.123	1	8
363.293	1	1
363.464	1	10
363.635	1	5
363.806	1	8
363.977	1	2
364.148	1	-5
364.319	1	1
364.490	1	6
364.661	1	-3
364.832	1	11
365.002	1	5
365.173	1	3
365.344	1	4
365.515	1	6
365.686	1	11
365.857	1	6
366.028	1	-3
366.199	1	11
366.370	1	6
366.540	1	11
366.711	1	0
366.882	1	13
367.053	1	2
367.224	1	2
367.395	1	2
367.566	1	11
367.737	1	9
367.908	1	8
368.078	1	19
368.249	1	-6
368.420	1	12
368.591	1	10
368.762	1	2
368.933	1	0
369.104	1	6
369.274	1	9
369.445	1	9
369.616	1	13
369.787	1	6
369.958	1	17
370.129	1	8
370.300	1	4
370.471	1	14
370.641	1	4
370.812	1	8
370.983	1	3
371.154	1	1
371.325	1	2
371.496	1	-3
371.667	1	9
371.837	1	2
372.008	1	4
372.179	1	4
372.350	1	12
372.521	1	5
372.692	1	-3
372.863	1	-7
373.033	1	9
373.204	1	-11
373.375	1	14
373.546	1	12
373.717	1	-3
373.888	1	-3
374.059	1	13
374.229	1	9
374.400	1	-1
374.571	1	11
374.742	1	4
374.913	1	-3
375.084	1	8
375.254	1	15
375.425	1	-7
375.596	1	9
375.767	1	1
375.938	1	13
376.109	1	-9
376.279	1	0
376.450	1	0
376.621	1	13
376.792	1	5
376.963	1	5
377.134	1	7
377.304	1	9
377.475	1	5
377.646	1	9
377.817	1	-3
377.988	1	0
378.159	1	0
378.329	1	13
378.500	1	-2
378.671	1	17
378.842	1	3
379.013	1	16
379.184	1	19
379.354	1	-5
379.525	1	9
379.696	1	-3
379.867	1	2
380.038	1	-4
380.209	1	10
380.379	1	1
380.550	1	2
380.721	1	13
380.892	1	9
381.063	1	2
381.233	1	-9
381.404	1	5
381.575	1	7
381.746	1	14
381.917	1	-1
382.087	1	10
382.258	1	16
382.429	1	5
382.600	1	6
382.771	1	7
382.941	1	9
383.112	1	1
383.283	1	9
383.454	1	3
383.625	1	0
383.795	1	3
383.966	1	-1
384.137	1	8
384.308	1	9
384.479	1	12
384.649	1	12
384.820	1	-2
384.991	1	17
385.162	1	5
385.333	1	5
385.503	1	-6
385.674	1	5
385.845	1	13
386.016	1	15
386.187	1	2
386.357	1	19
386.528	1	4
386.699	1	-4
386.870	1	6
387.041	1	1
387.211	1	-1
387.382	1	3
387.553	1	9
387.724	1	5
387.894	1	7
388.065	1	2
388.236	1	3
388.407	1	12
388.578	1	-1
388.748	1	4
388.919	1	8
389.090	1	12
389.261	1	11
389.431	1	13
389.602	1	8
389.773	1	10
389.944	1	0
390.114	1	12
390.285	1	7
390.456	1	2
390.627	1	3
390.798	1	9
390.968	1	0
391.139	1	4
391.310	1	18
391.481	1	2
391.651	1	11
391.822	1	-5
391.993	1	10
392.164	1	-2
392.334	1	5
392.505	1	-2
392.676	1	7
392.847	1	1
393.017	1	12
393.188	1	-1
393.359	1	18
393.530	1	10
393.700	1	9
393.871	1	7
394.042	1	1
394.213	1	17
394.383	1	3
394.554	1	13
394.725	1	6
394.896	1	9
395.066	1	9
395.237	1	9
395.408	1	5
395.579	1	5
395.749	1	2
395.920	1	10
396.091	1	-3
396.262	1	8
396.432	1	5
396.603	1	12
396.774	1	2
396.945	1	10
397.115	1	14
397.286	1	4
397.457	1	14
397.627	1	-1
397.798	1	4
397.969	1	-1
398.140	1	12
398.310	1	3
398.481	1	5
398.652	1	14
398.823	1	5
398.993	1	5
399.164	1	14
399.335	1	9
399.505	1	14
399.676	1	8
399.847	1	2
400.018	1	10
400.188	1	0
400.359	1	6
400.530	1	3
400.700	1	6
400.871	1	17
401.042	1	6
401.213	1	-4
401.383	1	-3
401.554	1	1
401.725	1	6
401.895	1	16
402.066	1	10
402.237	1	13
402.408	1	4
402.578	1	6
402.749	1	4
402.920	1	6
403.090	1	6
403.261	1	9
403.432	1	12
403.603	1	-5
403.773	1	13
403.944	1	8
404.115	1	10
404.285	1	4
404.456	1	9
404.627	1	0
404.797	1	3
404.968	1	18
405.139	1	4
405.310	1	8
405.480	1	1
405.651	1	19
405.822	1	4
405.992	1	10
406.163	1	8
406.334	1	5
406.504	1	2
406.675	1	6
406.846	1	6
407.016	1	2
407.187	1	15
407.358	1	13
407.528	1	10
407.699	1	6
407.870	1	-5
408.041	1	16
408.211	1	12
408.382	1	8
408.553	1	5
408.723	1	16
408.894	1	2
409.065	1	6
409.235	1	6
409.406	1	5
409.577	1	16
409.747	1	-4
409.918	1	8
410.089	1	2
410.259	1	12
410.430	1	7
410.601	1	20
410.771	1	13
410.942	1	14
411.113	1	7
411.283	1	1
411.454	1	6
411.625	1	6
411.795	1	12
411.966	1	14
412.137	1	2
412.307	1	11
412.478	1	11
412.649	1	9
412.819	1	6
412.990	1	1
413.161	1	-1
413.331	1	9
413.502	1	8
413.672	1	14
413.843	1	16
414.014	1	9
414.184	1	0
414.355	1	18
414.526	1	22
414.696	1	6
414.867	1	11
415.038	1	4
415.208	1	10
415.379	1	10
415.550	1	14
415.720	1	12
415.891	1	9
416.062	1	0
416.232	1	4
416.403	1	12
416.573	1	16
416.744	1	6
416.915	1	8
417.085	1	9
417.256	1	2
417.427	1	21
417.597	1	-8
417.768	1	10
417.939	1	16
418.109	1	12
418.280	1	4
418.450	1	4
418.621	1	10
418.792	1	9
418.962	1	15
419.133	1	4
419.304	1	14
419.474	1	0
419.645	1	7
419.815	1	12
419.986	1	9
420.157	1	-2
420.327	1	2
420.498	1	-3
420.669	1	13
420.839	1	11
421.010	1	16
421.180	1	7
421.351	1	11
421.522	1	-2
421.692	1	12
421.863	1	8
422.033	1	13
422.204	1	11
422.375	1	8
422.545	1	7
422.716	1	5
422.886	1	8
423.057	1	2
423.228	1	-2
423.398	1	15
423.569	1	11
423.740	1	2
423.910	1	-1
424.081	1	9
424.251	1	-5
424.422	1	11
424.593	1	-1
424.763	1	15
424.934	1	1
425.104	1	14
425.275	1	13
425.445	1	12
425.616	1	-1
425.787	1	-5
425.957	1	3
426.128	1	-12
426.298	1	0
426.469	1	3
426.640	1	19
426.810	1	-5
426.981	1	-1
427.151	1	17
427.322	1	9
427.493	1	14
427.663	1	5
427.834	1	6
428.004	1	9
428.175	1	17
428.345	1	6
428.516	1	12
428.687	1	2
428.857	1	-1
429.028	1	13
429.198	1	6
429.369	1	-2
429.540	1	2
429.710	1	6
429.881	1	6
430.051	1	3
430.222	1	7
430.392	1	14
430.563	1	10
430.734	1	10
430.904	1	-2
431.075	1	11
431.245	1	12
431.416	1	8
431.586	1	0
431.757	1	5
431.927	1	4
432.098	1	0
432.269	1	4
432.439	1	16
432.610	1	17
432.780	1	13
432.951	1	0
433.121	1	4
433.292	1	4
433.462	1	-4
433.633	1	7
433.804	1	8
433.974	1	-8
434.145	1	10
434.315	1	-4
434.486	1	3
434.656	1	0
434.827	1	4
434.997	1	-3
435.168	1	9
435.339	1	8
435.509	1	11
435.680	1	-2
435.850	1	1
436.021	1	8
436.191	1	8
436.362	1	6
436.532	1	11
436.703	1	3
436.873	1	12
437.044	1	6
437.214	1	14
437.385	1	7
437.556	1	3
437.726	1	8
437.897	1	2
438.067	1	-7
438.238	1	4
438.408	1	5
438.579	1	7
438.749	1	9
438.920	1	2
439.090	1	8
439.261	1	3
439.431	1	3
439.602	1	10
439.772	1	11
439.943	1	-1
440.113	1	-1
440.284	1	6
440.455	1	12
440.625	1	21
440.796	1	3
440.966	1	-1
441.137	1	4
441.307	1	4
441.478	1	6
441.648	1	6
441.819	1	8
441.989	1	4
442.160	1	-4
442.330	1	10
442.501	1	14
442.671	1	4
442.842	1	2
443.012	1	9
443.183	1	10
443.353	1	4
443.524	1	-6
443.694	1	5
443.865	1	7
444.035	1	1
444.206	1	3
444.376	1	9
444.547	1	2
444.717	1	3
444.888	1	6
445.058	1	21
445.229	1	5
445.399	1	9
445.570	1	14
445.740	1	14
445.911	1	-3
446.081	1	15
446.252	1	1
446.422	1	5
446.593	1	-2
446.763	1	18
446.934	1	1
447.104	1	4
447.275	1	-1
447.445	1	1
447.616	1	-1
447.786	1	10
447.957	1	8
448.127	1	3
448.298	1	-2
448.468	1	2
448.639	1	8
448.809	1	14
448.979	1	-9
449.150	1	2
449.320	1	2
449.491	1	-1
449.661	1	4
449.832	1	8
450.002	1	-4
450.173	1	11
450.343	1	11
450.514	1	5
450.684	1	5
450.855	1	8
451.025	1	1
451.196	1	3
451.366	1	9
451.537	1	10
451.707	1	5
451.878	1	-2
452.048	1	9
452.218	1	-2
452.389	1	9
452.559	1	7
452.730	1	0
452.900	1	3
453.071	1	1
453.241	1	-2
453.412	1	5
453.582	1	9
453.753	1	0
453.923	1	9
454.093	1	13
454.264	1	8
454.434	1	10
454.605	1	7
454.775	1	-9
454.946	1	-2
455.116	1	7
455.287	1	4
455.457	1	12
455.628	1	0
455.798	1	-6
455.968	1	5
456.139	1	1
456.309	1	21
456.480	1	0
456.650	1	7
456.821	1	16
456.991	1	-10
457.161	1	5
457.332	1	5
457.502	1	7
457.673	1	6
457.843	1	-7
458.014	1	5
458.184	1	6
458.355	1	3
458.525	1	1
458.695	1	14
458.866	1	9
459.036	1	15
459.207	1	6
459.377	1	7
459.548	1	12
459.718	1	-5
459.888	1	5
460.059	1	13
460.229	1	6
460.400	1	-2
460.570	1	-1
460.740	1	6
460.911	1	-1
461.081	1	-9
461.252	1	4
461.422	1	1
461.593	1	5
461.763	1	3
461.933	1	9
462.104	1	8
462.274	1	5
462.445	1	-3
462.615	1	13
462.785	1	6
462.956	1	3
463.126	1	6
463.297	1	21
463.467	1	9
463.638	1	-1
463.808	1	7
463.978	1	5
464.149	1	6
464.319	1	6
464.490	1	8
464.660	1	15
464.830	1	2
465.001	1	3
465.171	1	-2
465.342	1	3
465.512	1	8
465.682	1	5
465.853	1	10
466.023	1	12
466.194	1	0
466.364	1	2
466.534	1	6
466.705	1	7
466.875	1	12
467.045	1	6
467.216	1	4
467.386	1	9
467.557	1	5
467.727	1	9
467.897	1	14
468.068	1	9
468.238	1	-5
468.409	1	7
468.579	1	7
468.749	1	10
468.920	1	7
469.090	1	0
469.260	1	17
469.431	1	1
469.601	1	6
469.772	1	2
469.942	1	14
470.112	1	-4
470.283	1	6
470.453	1	5
470.623	1	4
470.794	1	7
470.964	1	6
471.135	1	9
471.305	1	9
471.475	1	5
471.646	1	8
471.816	1	7
471.986	1	-2
472.157	1	-2
472.327	1	2
472.497	1	-1
472.668	1	-1
472.838	1	19
473.009	1	-1
473.179	1	8
473.349	1	-2
473.520	1	3
473.690	1	1
473.860	1	2
474.031	1	1
474.201	1	12
474.371	1	12
474.542	1	11
474.712	1	3
474.882	1	2
475.053	1	7
475.223	1	2
475.394	1	5
475.564	1	3
475.734	1	6
475.905	1	3
476.075	1	4
476.245	1	5
476.416	1	1
476.586	1	9
476.756	1	4
476.927	1	11
477.097	1	7
477.267	1	10
477.438	1	-7
477.608	1	2
477.778	1	6
477.949	1	8
478.119	1	0
478.289	1	-8
478.460	1	7
478.630	1	10
478.800	1	13
478.971	1	-1
479.141	1	7
479.311	1	-2
479.482	1	-13
479.652	1	9
479.822	1	1
479.993	1	14
480.163	1	5
480.333	1	18
480.504	1	6
480.674	1	-5
480.844	1	-3
481.015	1	2
481.185	1	9
481.355	1	4
481.525	1	-2
481.696	1	1
481.866	1	4
482.036	1	-5
482.207	1	5
482.377	1	4
482.547	1	7
482.718	1	-3
482.888	1	-12
483.058	1	4
483.229	1	3
483.399	1	6
483.569	1	-1
483.740	1	10
483.910	1	7
484.080	1	19
484.250	1	0
484.421	1	12
484.591	1	11
484.761	1	-1
484.932	1	12
485.102	1	-8
485.272	1	2
485.443	1	0
485.613	1	-4
485.783	1	4
485.953	1	1
486.124	1	7
486.294	1	8
486.464	1	0
486.635	1	2
486.805	1	-4
486.975	1	3
487.146	1	10
487.316	1	1
487.486	1	-1
487.656	1	6
487.827	1	5
487.997	1	5
488.167	1	8
488.338	1	5
488.508	1	8
488.678	1	6
488.848	1	-4
489.019	1	3
489.189	1	-3
489.359	1	0
489.529	1	-9
489.700	1	1
489.870	1	0
490.040	1	-2
490.211	1	-1
490.381	1	18
490.551	1	3
490.721	1	6
490.892	1	10
491.062	1	-3
491.232	1	-3
491.402	1	-4
491.573	1	6
491.743	1	0
491.913	1	-4
492.084	1	9
492.254	1	7
492.424	1	0
492.594	1	-10
492.765	1	8
492.935	1	4
493.105	1	0
493.275	1	1
493.446	1	9
493.616	1	-8
493.786	1	4
493.956	1	6
494.127	1	0
494.297	1	5
494.467	1	10
494.637	1	3
494.808	1	-5
494.978	1	-4
495.148	1	12
495.318	1	-2
495.489	1	7
495.659	1	10
495.829	1	14
495.999	1	-3
496.170	1	-2
496.340	1	4
496.510	1	10
496.680	1	9
496.851	1	8
497.021	1	4
497.191	1	4
497.361	1	4
497.532	1	13
497.702	1	11
497.872	1	0
498.042	1	12
498.213	1	0
498.383	1	9
498.553	1	3
498.723	1	4
498.894	1	14
499.064	1	-14
499.234	1	2
499.404	1	3
499.574	1	2
499.745	1	-1
499.915	1	-10
500.085	1	3
500.255	1	3
500.426	1	-3
500.596	1	10
500.766	1	8
500.936	1	1
501.106	1	8
501.277	1	9
501.447	1	3
501.617	1	4
501.787	1	10
501.958	1	-3
502.128	1	1
502.298	1	7
502.468	1	8
502.638	1	16
502.809	1	11
502.979	1	8
503.149	1	4
503.319	1	3
503.489	1	5
503.660	1	8
503.830	1	6
504.000	1	4
504.170	1	-3
504.340	1	2
504.511	1	14
504.681	1	3
504.851	1	-2
505.021	1	6
505.192	1	2
505.362	1	4
505.532	1	2
505.702	1	-1
505.872	1	5
506.043	1	-11
506.213	1	6
506.383	1	-9
506.553	1	7
506.723	1	5
506.893	1	7
507.064	1	3
507.234	1	5
507.404	1	9
507.574	1	3
507.744	1	-8
507.915	1	6
508.085	1	8
508.255	1	4
508.425	1	2
508.595	1	-3
508.766	1	12
508.936	1	-3
509.106	1	1
509.276	1	6
509.446	1	-13
509.616	1	11
509.787	1	5
509.957	1	10
510.127	1	4
510.297	1	4
510.467	1	7
510.638	1	2
510.808	1	-8
510.978	1	14
511.148	1	-5
511.318	1	9
511.488	1	-3
511.659	1	-15
511.829	1	-1
511.999	1	-2
512.169	1	-5
512.339	1	3
512.509	1	9
512.680	1	6
512.850	1	11
513.020	1	2
513.190	1	3
513.360	1	-3
513.530	1	4
513.700	1	-3
513.871	1	10
514.041	1	-4
514.211	1	11
514.381	1	2
514.551	1	0
514.721	1	6
514.892	1	8
515.062	1	-4
515.232	1	-4
515.402	1	6
515.572	1	-2
515.742	1	-3
515.912	1	14
516.083	1	3
516.253	1	-5
516.423	1	1
516.593	1	6
516.763	1	9
516.933	1	1
517.104	1	-1
517.274	1	4
517.444	1	4
517.614	1	-4
517.784	1	1
517.954	1	-3
518.124	1	-7
518.294	1	10
518.465	1	3
518.635	1	-10
518.805	1	3
518.975	1	-2
519.145	1	3
519.315	1	4
519.485	1	-6
519.656	1	9
519.826	1	0
519.996	1	4
520.166	1	5
520.336	1	5
520.506	1	1
520.676	1	0
520.846	1	9
521.017	1	-5
521.187	1	2
521.357	1	3
521.527	1	6
521.697	1	1
521.867	1	-9
522.037	1	2
522.207	1	1
522.377	1	3
522.548	1	10
522.718	1	7
522.888	1	-2
523.058	1	-4
523.228	1	15
523.398	1	-5
523.568	1	-11
523.738	1	2
523.909	1	2
524.079	1	6
524.249	1	-4
524.419	1	-1
524.589	1	5
524.759	1	4
524.929	1	7
525.099	1	7
525.269	1	6
525.439	1	-3
525.610	1	2
525.780	1	1
525.950	1	3
526.120	1	11
526.290	1	3
526.460	1	5
526.630	1	-4
526.800	1	-3
526.970	1	-1
527.140	1	-2
527.311	1	-2
527.481	1	-5
527.651	1	-4
527.821	1	3
527.991	1	1
528.161	1	3
528.331	1	-4
528.501	1	3
528.671	1	3
528.841	1	13
529.011	1	-1
529.181	1	0
529.352	1	-3
529.522	1	-12
529.692	1	1
529.862	1	5
530.032	1	5
530.202	1	10
530.372	1	0
530.542	1	-3
530.712	1	-8
530.882	1	4
531.052	1	1
531.222	1	-3
531.392	1	-6
531.563	1	2
531.733	1	9
531.903	1	-7
532.073	1	5
532.243	1	5
532.413	1	4
532.583	1	0
532.753	1	4
532.923	1	2
533.093	1	0
533.263	1	-3
533.433	1	3
533.603	1	7
533.773	1	-1
533.943	1	14
534.113	1	-1
534.284	1	11
534.454	1	4
534.624	1	0
534.794	1	3
534.964	1	4
535.134	1	-8
535.304	1	10
535.474	1	-7
535.644	1	4
535.814	1	5
535.984	1	-6
536.154	1	5
536.324	1	-7
536.494	1	1
536.664	1	-11
536.834	1	11
537.004	1	-8
537.174	1	5
537.344	1	12
537.514	1	5
537.685	1	1
537.855	1	5
538.025	1	-1
538.195	1	7
538.365	1	0
538.535	1	12
538.705	1	-3
538.875	1	2
539.045	1	-7
539.215	1	9
539.385	1	4
539.555	1	0
539.725	1	9
539.895	1	6
540.065	1	4
540.235	1	-8
540.405	1	8
540.575	1	11
540.745	1	2
540.915	1	-1
541.085	1	-5
541.255	1	-7
541.425	1	-11
541.595	1	-11
541.765	1	-1
541.935	1	7
542.105	1	-1
542.275	1	8
542.445	1	3
542.615	1	10
542.785	1	4
542.955	1	-6
543.125	1	-6
543.295	1	15
543.465	1	-2
543.635	1	-6
543.805	1	3
543.975	1	-4
544.145	1	-2
544.315	1	-8
544.485	1	4
544.655	1	4
544.825	1	5
544.995	1	0
545.165	1	8
545.335	1	-1
545.505	1	2
545.675	1	3
545.845	1	-3
546.015	1	5
546.185	1	-9
546.355	1	-2
546.525	1	-3
546.695	1	-4
546.865	1	4
547.035	1	5
547.205	1	2
547.375	1	8
547.545	1	-6
547.715	1	5
547.885	1	3
548.055	1	-8
548.225	1	-9
548.395	1	17
548.565	1	-4
548.735	1	5
548.905	1	1
549.075	1	6
549.245	1	3
549.415	1	11
549.585	1	4
549.755	1	-4
549.925	1	2
550.095	1	-6
550.265	1	-12
550.435	1	6
550.605	1	0
550.775	1	1
550.945	1	-8
551.115	1	-4
551.285	1	8
551.455	1	-7
551.625	1	-1
551.795	1	9
551.965	1	1
552.135	1	-19
552.305	1	11
552.475	1	10
552.645	1	18
552.815	1	-5
552.985	1	-1
553.155	1	-7
553.325	1	1
553.495	1	-5
553.665	1	6
553.835	1	-3
554.004	1	-9
554.174	1	-5
554.344	1	-1
554.514	1	0
554.684	1	-3
554.854	1	-8
555.024	1	14
555.194	1	6
555.364	1	1
555.534	1	11
555.704	1	6
555.874	1	7
556.044	1	-1
556.214	1	-2
556.384	1	4
556.554	1	-8
556.724	1	-10
556.894	1	5
557.064	1	-3
557.234	1	0
557.404	1	7
557.573	1	4
557.743	1	-1
557.913	1	-1
558.083	1	-4
558.253	1	-8
558.423	1	-1
558.593	1	6
558.763	1	3
558.933	1	4
559.103	1	-6
559.273	1	9
559.443	1	1
559.613	1	-3
559.783	1	6
559.953	1	0
560.122	1	-6
560.292	1	-4
560.462	1	-2
560.632	1	-1
560.802	1	-14
560.972	1	11
561.142	1	4
561.312	1	-3
561.482	1	-4
561.652	1	7
561.822	1	10
561.992	1	7
562.162	1	-4
562.331	1	0
562.501	1	-6
562.671	1	1
562.841	1	4
563.011	1	11
563.181	1	12
563.351	1	-3
563.521	1	3
563.691	1	-6
563.861	1	7
564.031	1	5
564.201	1	-11
564.370	1	6
564.540	1	6
564.710	1	6
564.880	1	5
565.050	1	-8
565.220	1	3
565.390	1	-1
565.560	1	4
565.730	1	1
565.900	1	-8
566.069	1	11
566.239	1	-1
566.409	1	7
566.579	1	1
566.749	1	7
566.919	1	-3
567.089	1	-10
567.259	1	8
567.429	1	-1
567.599	1	-4
567.768	1	2
567.938	1	-10
568.108	1	2
568.278	1	1
568.448	1	14
568.618	1	9
568.788	1	-5
568.958	1	8
569.128	1	-2
569.297	1	-5
569.467	1	4
569.637	1	-10
569.807	1	-2
569.977	1	5
570.147	1	-9
570.317	1	19
570.487	1	1
570.656	1	5
570.826	1	8
570.996	1	2
571.166	1	-1
571.336	1	7
571.506	1	4
571.676	1	14
571.846	1	-13
572.015	1	6
572.185	1	-2
572.355	1	-3
572.525	1	5
572.695	1	4
572.865	1	1
573.035	1	-4
573.205	1	-3
573.374	1	5
573.544	1	5
573.714	1	3
573.884	1	13
574.054	1	7
574.224	1	0
574.394	1	-2
574.563	1	8
574.733	1	0
574.903	1	0
575.073	1	4
575.243	1	4
575.413	1	4
575.583	1	-3
575.752	1	-9
575.922	1	-5
576.092	1	6
576.262	1	7
576.432	1	10
576.602	1	0
576.772	1	-8
576.941	1	9
577.111	1	9
577.281	1	0
577.451	1	2
577.621	1	-3
577.791	1	-4
577.960	1	5
578.130	1	-5
578.300	1	15
578.470	1	2
578.640	1	1
578.810	1	-4
578.979	1	3
579.149	1	-12
579.319	1	-6
579.489	1	1
579.659	1	2
579.829	1	4
579.998	1	1
580.168	1	5
580.338	1	5
580.508	1	3
580.678	1	-8
580.848	1	0
581.017	1	11
581.187	1	-4
581.357	1	-7
581.527	1	-7
581.697	1	4
581.867	1	-2
582.036	1	-4
582.206	1	0
582.376	1	-5
582.546	1	0
582.716	1	-4
582.885	1	9
583.055	1	1
583.225	1	-3
583.395	1	9
583.565	1	4
583.735	1	-6
583.904	1	3
584.074	1	3
584.244	1	9
584.414	1	5
584.584	1	-8
584.753	1	10
584.923	1	2
585.093	1	3
585.263	1	3
585.433	1	4
585.602	1	3
585.772	1	6
585.942	1	6
586.112	1	2
586.282	1	-5
586.451	1	-9
586.621	1	4
586.791	1	-2
586.961	1	-9
587.131	1	9
587.300	1	-13
587.470	1	-5
587.640	1	-5
587.810	1	-2
587.980	1	0
588.149	1	10
588.319	1	0
588.489	1	5
588.659	1	-10
588.829	1	2
588.998	1	6
589.168	1	-5
589.338	1	2
589.508	1	5
589.677	1	-1
589.847	1	3
590.017	1	-2
590.187	1	0
590.357	1	-2
590.526	1	7
590.696	1	2
590.866	1	6
591.036	1	4
591.205	1	1
591.375	1	-5
591.545	1	-1
591.715	1	1
591.885	1	-6
592.054	1	6
592.224	1	-10
592.394	1	-1
592.564	1	-8
592.733	1	0
592.903	1	4
593.073	1	10
593.243	1	-5
593.412	1	-1
593.582	1	7
593.752	1	11
593.922	1	0
594.091	1	8
594.261	1	14
594.431	1	2
594.601	1	-2
594.771	1	-6
594.940	1	1
595.110	1	-3
595.280	1	-7
595.450	1	-6
595.619	1	3
595.789	1	0
595.959	1	6
596.129	1	13
596.298	1	19
596.468	1	5
596.638	1	5
596.808	1	7
596.977	1	0
597.147	1	6
597.317	1	1
597.487	1	-9
597.656	1	5
597.826	1	3
597.996	1	11
598.166	1	1
598.335	1	7
598.505	1	7
598.675	1	-1
598.844	1	-5
599.014	1	3
599.184	1	13
599.354	1	-7
599.523	1	-5
599.693	1	7
599.863	1	0
600.033	1	10
600.202	1	-9
600.372	1	-2
600.542	1	1
600.712	1	7
600.881	1	-1
601.051	1	1
601.221	1	5
601.390	1	1
601.560	1	6
601.730	1	4
601.900	1	-2
602.069	1	8
602.239	1	-7
602.409	1	16
602.578	1	-1
602.748	1	-2
602.918	1	-8
603.088	1	-1
603.257	1	-2
603.427	1	-4
603.597	1	1
603.767	1	-6
603.936	1	5
604.106	1	-2
604.276	1	2
604.445	1	-2
604.615	1	-4
604.785	1	4
604.954	1	8
605.124	1	2
605.294	1	3
605.464	1	15
605.633	1	10
605.803	1	-1
605.973	1	-1
606.142	1	5
606.312	1	-4
606.482	1	7
606.652	1	11
606.821	1	5
606.991	1	1
607.161	1	13
607.330	1	-3
607.500	1	-1
607.670	1	-3
607.839	1	0
608.009	1	-10
608.179	1	-5
608.348	1	17
608.518	1	0
608.688	1	12
608.858	1	1
609.027	1	5
609.197	1	7
609.367	1	-1
609.536	1	-10
609.706	1	-3
609.876	1	-2
610.045	1	-6
610.215	1	2
610.385	1	15
610.554	1	-1
610.724	1	7
610.894	1	3
611.063	1	-6
611.233	1	4
611.403	1	0
611.572	1	1
611.742	1	-2
611.912	1	0
612.081	1	2
612.251	1	8
612.421	1	4
612.590	1	-5
612.760	1	1
612.930	1	3
613.099	1	13
613.269	1	4
613.439	1	3
613.608	1	14
613.778	1	-9
613.948	1	12
614.117	1	-6
614.287	1	4
614.457	1	-3
614.626	1	-8
614.796	1	-2
614.966	1	2
615.135	1	1
615.305	1	6
615.475	1	1
615.644	1	12
615.814	1	-5
615.984	1	-1
616.153	1	-7
616.323	1	-7
616.493	1	9
616.662	1	2
616.832	1	14
617.002	1	10
617.171	1	-7
617.341	1	2
617.511	1	-1
617.680	1	-5
617.850	1	-7
618.019	1	4
618.189	1	5
618.359	1	-4
618.528	1	8
618.698	1	7
618.868	1	16
619.037	1	-6
619.207	1	0
619.377	1	2
619.546	1	3
619.716	1	5
619.885	1	17
620.055	1	8
620.225	1	-4
620.394	1	8
620.564	1	2
620.734	1	2
620.903	1	5
621.073	1	-1
621.242	1	-9
621.412	1	-2
621.582	1	10
621.751	1	1
621.921	1	0
622.091	1	2
622.260	1	8
622.430	1	10
622.599	1	3
622.769	1	6
622.939	1	9
623.108	1	13
623.278	1	14
623.448	1	5
623.617	1	-6
623.787	1	7
623.956	1	-9
624.126	1	6
624.296	1	3
624.465	1	-3
624.635	1	3
624.804	1	5
624.974	1	5
625.144	1	7
625.313	1	-3
625.483	1	-4
625.652	1	0
625.822	1	-1
625.992	1	2
626.161	1	-7
626.331	1	0
626.501	1	3
626.670	1	0
626.840	1	-3
627.009	1	2
627.179	1	7
627.348	1	-1
627.518	1	12
627.688	1	6
627.857	1	-7
628.027	1	7
628.196	1	6
628.366	1	-11
628.536	1	-5
628.705	1	-6
628.875	1	3
629.044	1	-5
629.214	1	-1
629.384	1	2
629.553	1	9
629.723	1	0
629.892	1	7
630.062	1	4
630.232	1	-7
630.401	1	6
630.571	1	4
630.740	1	2
630.910	1	3
631.079	1	4
631.249	1	-7
631.419	1	5
631.588	1	-10
631.758	1	2
631.927	1	-1
632.097	1	0
632.266	1	-3
632.436	1	-2
632.606	1	-4
632.775	1	9
632.945	1	-9
633.114	1	-6
633.284	1	3
633.453	1	-2
633.623	1	2
633.793	1	1
633.962	1	-5
634.132	1	4
634.301	1	11
634.471	1	9
634.640	1	14
634.810	1	6
634.979	1	1
635.149	1	3
635.319	1	3
635.488	1	-2
635.658	1	-7
635.827	1	-1
635.997	1	3
636.166	1	-2
636.336	1	12
636.505	1	7
636.675	1	-4
636.845	1	0
637.014	1	3
637.184	1	2
637.353	1	13
637.523	1	2
637.692	1	2
637.862	1	1
638.031	1	7
638.201	1	6
638.370	1	-1
638.540	1	-2
638.710	1	-1
638.879	1	-1
639.049	1	4
639.218	1	-8
639.388	1	7
639.557	1	0
639.727	1	3
639.896	1	4
640.066	1	-3
640.235	1	7
640.405	1	-1
640.574	1	6
640.744	1	8
640.914	1	-2
641.083	1	-4
641.253	1	1
641.422	1	-1
641.592	1	2
641.761	1	9
641.931	1	-5
642.100	1	10
642.270	1	6
642.439	1	-7
642.609	1	0
642.778	1	0
642.948	1	4
643.117	1	4
643.287	1	3
643.456	1	-13
643.626	1	2
643.795	1	8
643.965	1	-6
644.134	1	8
644.304	1	6
644.473	1	-7
644.643	1	-2
644.812	1	-1
644.982	1	-1
645.151	1	-15
645.321	1	0
645.490	1	5
645.660	1	4
645.829	1	-4
645.999	1	6
646.168	1	1
646.338	1	-1
646.507	1	3
646.677	1	4
646.846	1	-3
647.016	1	-3
647.185	1	-3
647.355	1	2
647.524	1	-11
647.694	1	1
647.863	1	-2
648.033	1	12
648.202	1	1
648.372	1	3
648.541	1	7
648.711	1	0
648.880	1	10
649.050	1	9
649.219	1	-8
649.389	1	6
649.558	1	1
649.728	1	-4
649.897	1	-1
650.067	1	-3
650.236	1	3
650.406	1	-8
650.575	1	4
650.745	1	2
650.914	1	10
651.084	1	-5
651.253	1	2
651.423	1	-8
651.592	1	7
651.762	1	9
651.931	1	1
652.101	1	8
652.270	1	-6
652.440	1	15
652.609	1	-1
652.778	1	9
652.948	1	-9
653.117	1	16
653.287	1	-2
653.456	1	12
653.626	1	11
653.795	1	-5
653.965	1	4
654.134	1	3
654.304	1	0
654.473	1	4
654.643	1	7
654.812	1	7
654.982	1	5
655.151	1	8
655.320	1	-1
655.490	1	-2
655.659	1	-2
655.829	1	-10
655.998	1	1
656.168	1	-6
656.337	1	3
656.507	1	8
656.676	1	-6
656.846	1	-6
657.015	1	9
657.184	1	-8
657.354	1	0
657.523	1	-2
657.693	1	6
657.862	1	6
658.032	1	-10
658.201	1	-19
658.371	1	3
658.540	1	14
658.709	1	12
658.879	1	-8
659.048	1	-4
659.218	1	-6
659.387	1	2
659.557	1	6
659.726	1	5
659.895	1	-1
660.065	1	-1
660.234	1	13
660.404	1	21
660.573	1	5
660.743	1	-1
660.912	1	6
661.081	1	-9
661.251	1	-8
661.420	1	2
661.590	1	5
661.759	1	8
661.929	1	-1
662.098	1	13
662.267	1	13
662.437	1	5
662.606	1	-2
662.776	1	4
662.945	1	9
663.115	1	-13
663.284	1	-7
663.453	1	-6
663.623	1	3
663.792	1	2
663.962	1	3
664.131	1	-6
664.300	1	0
664.470	1	-2
664.639	1	-2
664.809	1	-10
664.978	1	8
665.148	1	12
665.317	1	1
665.486	1	0
665.656	1	-5
665.825	1	3
665.995	1	8
666.164	1	11
666.333	1	1
666.503	1	3
666.672	1	8
666.842	1	-11
667.011	1	3
667.180	1	-2
667.350	1	12
667.519	1	-8
667.689	1	17
667.858	1	3
668.027	1	-2
668.197	1	7
668.366	1	6
668.536	1	3
668.705	1	6
668.874	1	2
669.044	1	-1
669.213	1	-5
669.382	1	18
669.552	1	-1
669.721	1	0
669.891	1	-6
670.060	1	7
670.229	1	3
670.399	1	6
670.568	1	1
670.738	1	2
670.907	1	4
671.076	1	8
671.246	1	-5
671.415	1	0
671.584	1	1
671.754	1	4
671.923	1	5
672.093	1	11
672.262	1	4
672.431	1	18
672.601	1	-9
672.770	1	3
672.939	1	3
673.109	1	-9
673.278	1	11
673.448	1	-1
673.617	1	-3
673.786	1	2
