325.333	1	6
325.504	1	16
325.675	1	2
325.846	1	4
326.017	1	5
326.188	1	1
326.359	1	6
326.531	1	-6
326.702	1	7
326.873	1	2
327.044	1	4
327.215	1	0
327.386	1	-7
327.557	1	14
327.728	1	-10
327.899	1	5
328.070	1	-6
328.241	1	3
328.412	1	-7
328.583	1	7
328.754	1	-5
328.926	1	2
329.097	1	0
329.268	1	5
329.439	1	1
329.610	1	5
329.781	1	6
329.952	1	2
330.123	1	1
330.294	1	3
330.465	1	13
330.636	1	-4
330.807	1	-10
330.978	1	14
331.149	1	0
331.320	1	-8
331.492	1	10
331.663	1	1
331.834	1	1
332.005	1	-4
332.176	1	-3
332.347	1	15
332.518	1	2
332.689	1	0
332.860	1	4
333.031	1	0
333.202	1	7
333.373	1	7
333.544	1	-1
333.715	1	-4
333.886	1	0
334.057	1	3
334.228	1	5
334.399	1	10
334.570	1	16
334.741	1	9
334.912	1	7
335.084	1	4
335.255	1	5
335.426	1	-3
335.597	1	1
335.768	1	0
335.939	1	10
336.110	1	3
336.281	1	4
336.452	1	13
336.623	1	-4
336.794	1	-1
336.965	1	-3
337.136	1	8
337.307	1	8
337.478	1	5
337.649	1	-9
337.820	1	-6
337.991	1	10
338.162	1	10
338.333	1	-3
338.504	1	-1
338.675	1	-4
338.846	1	8
339.017	1	4
339.188	1	5
339.359	1	-2
339.530	1	10
339.701	1	-4
339.872	1	1
340.043	1	13
340.214	1	3
340.385	1	7
340.556	1	7
340.727	1	-2
340.898	1	2
341.069	1	13
341.240	1	7
341.411	1	10
341.582	1	7
341.753	1	2
341.924	1	7
342.095	1	3
342.266	1	-1
342.437	1	-1
342.608	1	0
342.779	1	-3
342.950	1	-2
343.121	1	1
343.292	1	2
343.463	1	15
343.634	1	17
343.805	1	-1
343.976	1	14
344.147	1	7
344.318	1	-2
344.489	1	2
344.660	1	9
344.831	1	4
345.002	1	5
345.173	1	7
345.344	1	2
345.515	1	6
345.686	1	6
345.857	1	5
346.028	1	10
346.199	1	11
346.370	1	4
346.541	1	13
346.712	1	3
346.883	1	5
347.054	1	-5
347.225	1	3
347.396	1	4
347.567	1	8
347.738	1	2
347.909	1	3
348.080	1	1
348.251	1	-1
348.422	1	10
348.593	1	5
348.764	1	-6
348.935	1	2
349.106	1	-2
349.277	1	21
349.448	1	5
349.619	1	-1
349.790	1	22
349.961	1	13
350.132	1	5
350.303	1	19
350.474	1	8
350.645	1	-7
350.816	1	7
350.987	1	7
351.157	1	10
351.328	1	3
351.499	1	-1
351.670	1	8
351.841	1	-3
352.012	1	8
352.183	1	-2
352.354	1	3
352.525	1	-1
352.696	1	-3
352.867	1	1
353.038	1	8
353.209	1	-1
353.380	1	6
353.551	1	3
353.722	1	2
353.893	1	8
354.064	1	11
354.235	1	5
354.406	1	5
354.576	1	3
354.747	1	9
354.918	1	9
355.089	1	2
355.260	1	-2
355.431	1	9
355.602	1	11
355.773	1	-3
355.944	1	7
356.115	1	-6
356.286	1	8
356.457	1	5
356.628	1	10
356.799	1	-3
356.970	1	5
357.141	1	17
357.311	1	13
357.482	1	7
357.653	1	0
357.824	1	17
357.995	1	6
358.166	1	8
358.337	1	1
358.508	1	5
358.679	1	4
358.850	1	9
359.021	1	1
359.192	1	5
359.363	1	8
359.533	1	1
359.704	1	15
359.875	1	17
360.046	1	4
360.217	1	5
360.388	1	3
360.559	1	10
360.730	1	2
360.901	1	3
361.072	1	-3
361.243	1	11
361.414	1	7
361.584	1	10
361.755	1	15
361.926	1	-3
362.097	1	4
362.268	1	0
362.439	1	6
362.610	1	2
362.781	1	3
362.952	1	6
363.123	1	17
363.293	1	1
363.464	1	5
363.635	1	13
363.806	1	8
363.977	1	3
364.148	1	-8
364.319	1	2
364.490	1	10
364.661	1	11
364.832	1	17
365.002	1	5
365.173	1	9
365.344	1	5
365.515	1	5
365.686	1	7
365.857	1	12
366.028	1	4
366.199	1	10
366.370	1	9
366.540	1	12
366.711	1	0
366.882	1	10
367.053	1	9
367.224	1	-1
367.395	1	2
367.566	1	9
367.737	1	13
367.908	1	5
368.078	1	20
368.249	1	6
368.420	1	8
368.591	1	13
368.762	1	15
368.933	1	-2
369.104	1	19
369.274	1	2
369.445	1	15
369.616	1	8
369.787	1	10
369.958	1	13
370.129	1	4
370.300	1	4
370.471	1	13
370.641	1	4
370.812	1	5
370.983	1	-1
371.154	1	4
371.325	1	19
371.496	1	1
371.667	1	11
371.837	1	7
372.008	1	4
372.179	1	12
372.350	1	0
372.521	1	11
372.692	1	8
372.863	1	10
373.033	1	8
373.204	1	6
373.375	1	7
373.546	1	19
373.717	1	-2
373.888	1	11
374.059	1	14
374.229	1	14
374.400	1	0
374.571	1	11
374.742	1	3
374.913	1	-1
375.084	1	3
375.254	1	10
375.425	1	2
375.596	1	6
375.767	1	16
375.938	1	6
376.109	1	5
376.279	1	6
376.450	1	5
376.621	1	16
376.792	1	7
376.963	1	10
377.134	1	12
377.304	1	4
377.475	1	5
377.646	1	4
377.817	1	-5
377.988	1	7
378.159	1	-3
378.329	1	8
378.500	1	12
378.671	1	10
378.842	1	-3
379.013	1	2
379.184	1	18
379.354	1	-6
379.525	1	15
379.696	1	3
379.867	1	9
380.038	1	3
380.209	1	5
380.379	1	15
380.550	1	13
380.721	1	9
380.892	1	13
381.063	1	6
381.233	1	9
381.404	1	6
381.575	1	16
381.746	1	11
381.917	1	9
382.087	1	0
382.258	1	15
382.429	1	12
382.600	1	6
382.771	1	6
382.941	1	9
383.112	1	-1
383.283	1	15
383.454	1	0
383.625	1	11
383.795	1	-1
383.966	1	6
384.137	1	14
384.308	1	13
384.479	1	7
384.649	1	5
384.820	1	10
384.991	1	4
385.162	1	11
385.333	1	11
385.503	1	13
385.674	1	8
385.845	1	11
386.016	1	7
386.187	1	3
386.357	1	17
386.528	1	0
386.699	1	2
386.870	1	17
387.041	1	5
387.211	1	-1
387.382	1	7
387.553	1	6
387.724	1	10
387.894	1	8
388.065	1	9
388.236	1	11
388.407	1	17
388.578	1	7
388.748	1	7
388.919	1	19
389.090	1	10
389.261	1	14
389.431	1	22
389.602	1	-1
389.773	1	-2
389.944	1	-2
390.114	1	20
390.285	1	10
390.456	1	11
390.627	1	10
390.798	1	16
390.968	1	8
391.139	1	10
391.310	1	8
391.481	1	8
391.651	1	11
391.822	1	3
391.993	1	4
392.164	1	-4
392.334	1	10
392.505	1	11
392.676	1	20
392.847	1	3
393.017	1	15
393.188	1	5
393.359	1	21
393.530	1	15
393.700	1	16
393.871	1	3
394.042	1	4
394.213	1	13
394.383	1	9
394.554	1	7
394.725	1	3
394.896	1	10
395.066	1	12
395.237	1	9
395.408	1	8
395.579	1	10
395.749	1	17
395.920	1	14
396.091	1	11
396.262	1	13
396.432	1	6
396.603	1	4
396.774	1	7
396.945	1	11
397.115	1	10
397.286	1	11
397.457	1	9
397.627	1	9
397.798	1	-5
397.969	1	9
398.140	1	15
398.310	1	15
398.481	1	10
398.652	1	18
398.823	1	6
398.993	1	8
399.164	1	6
399.335	1	3
399.505	1	-2
399.676	1	8
399.847	1	16
400.018	1	18
400.188	1	1
400.359	1	4
400.530	1	10
400.700	1	11
400.871	1	20
401.042	1	8
401.213	1	-1
401.383	1	7
401.554	1	14
401.725	1	14
401.895	1	11
402.066	1	12
402.237	1	7
402.408	1	18
402.578	1	14
402.749	1	12
402.920	1	15
403.090	1	19
403.261	1	25
403.432	1	5
403.603	1	9
403.773	1	8
403.944	1	7
404.115	1	28
404.285	1	16
404.456	1	9
404.627	1	9
404.797	1	0
404.968	1	20
405.139	1	9
405.310	1	10
405.480	1	8
405.651	1	17
405.822	1	1
405.992	1	7
406.163	1	23
406.334	1	2
406.504	1	4
406.675	1	13
406.846	1	5
407.016	1	7
407.187	1	29
407.358	1	18
407.528	1	-1
407.699	1	14
407.870	1	9
408.041	1	18
408.211	1	4
408.382	1	8
408.553	1	11
408.723	1	18
408.894	1	14
409.065	1	13
409.235	1	16
409.406	1	2
409.577	1	17
409.747	1	12
409.918	1	1
410.089	1	13
410.259	1	14
410.430	1	9
410.601	1	12
410.771	1	18
410.942	1	16
411.113	1	-6
411.283	1	20
411.454	1	12
411.625	1	11
411.795	1	7
411.966	1	31
412.137	1	7
412.307	1	16
412.478	1	13
412.649	1	10
412.819	1	6
412.990	1	8
413.161	1	14
413.331	1	17
413.502	1	13
413.672	1	7
413.843	1	13
414.014	1	14
414.184	1	10
414.355	1	22
414.526	1	22
414.696	1	19
414.867	1	19
415.038	1	5
415.208	1	18
415.379	1	15
415.550	1	10
415.720	1	12
415.891	1	15
416.062	1	12
416.232	1	15
416.403	1	10
416.573	1	25
416.744	1	20
416.915	1	11
417.085	1	18
417.256	1	17
417.427	1	13
417.597	1	0
417.768	1	9
417.939	1	16
418.109	1	13
418.280	1	11
418.450	1	16
418.621	1	18
418.792	1	13
418.962	1	10
419.133	1	12
419.304	1	25
419.474	1	10
419.645	1	12
419.815	1	11
419.986	1	7
420.157	1	4
420.327	1	8
420.498	1	17
420.669	1	17
420.839	1	4
421.010	1	12
421.180	1	13
421.351	1	10
421.522	1	0
421.692	1	10
421.863	1	17
422.033	1	15
422.204	1	20
422.375	1	16
422.545	1	9
422.716	1	10
422.886	1	9
423.057	1	13
423.228	1	7
423.398	1	14
423.569	1	14
423.740	1	5
423.910	1	4
424.081	1	24
424.251	1	4
424.422	1	14
424.593	1	7
424.763	1	14
424.934	1	9
425.104	1	7
425.275	1	15
425.445	1	14
425.616	1	12
425.787	1	4
425.957	1	16
426.128	1	3
426.298	1	2
426.469	1	-1
426.640	1	12
426.810	1	6
426.981	1	17
427.151	1	19
427.322	1	15
427.493	1	7
427.663	1	7
427.834	1	14
428.004	1	19
428.175	1	5
428.345	1	5
428.516	1	16
428.687	1	12
428.857	1	13
429.028	1	5
429.198	1	1
429.369	1	12
429.540	1	5
429.710	1	20
429.881	1	7
430.051	1	4
430.222	1	-7
430.392	1	16
430.563	1	15
430.734	1	13
430.904	1	13
431.075	1	11
431.245	1	14
431.416	1	9
431.586	1	3
431.757	1	14
431.927	1	11
432.098	1	7
432.269	1	6
432.439	1	16
432.610	1	14
432.780	1	20
432.951	1	6
433.121	1	7
433.292	1	9
433.462	1	4
433.633	1	10
433.804	1	15
433.974	1	-2
434.145	1	8
434.315	1	5
434.486	1	7
434.656	1	7
434.827	1	3
434.997	1	14
435.168	1	10
435.339	1	10
435.509	1	8
435.680	1	2
435.850	1	0
436.021	1	12
436.191	1	7
436.362	1	6
436.532	1	12
436.703	1	5
436.873	1	22
437.044	1	7
437.214	1	15
437.385	1	19
437.556	1	4
437.726	1	7
437.897	1	4
438.067	1	5
438.238	1	-4
438.408	1	7
438.579	1	11
438.749	1	3
438.920	1	1
439.090	1	9
439.261	1	3
439.431	1	11
439.602	1	7
439.772	1	16
439.943	1	7
440.113	1	6
440.284	1	0
440.455	1	20
440.625	1	22
440.796	1	9
440.966	1	8
441.137	1	18
441.307	1	17
441.478	1	5
441.648	1	3
441.819	1	12
441.989	1	4
442.160	1	-2
442.330	1	9
442.501	1	14
442.671	1	10
442.842	1	3
443.012	1	15
443.183	1	13
443.353	1	11
443.524	1	3
443.694	1	8
443.865	1	6
444.035	1	4
444.206	1	0
444.376	1	5
444.547	1	2
444.717	1	10
444.888	1	12
445.058	1	21
445.229	1	16
445.399	1	7
445.570	1	17
445.740	1	15
445.911	1	-8
446.081	1	3
446.252	1	16
446.422	1	10
446.593	1	9
446.763	1	33
446.934	1	6
447.104	1	13
447.275	1	2
447.445	1	2
447.616	1	1
447.786	1	12
447.957	1	7
448.127	1	3
448.298	1	-9
448.468	1	5
448.639	1	13
448.809	1	26
448.979	1	3
449.150	1	6
449.320	1	2
449.491	1	2
449.661	1	8
449.832	1	-2
450.002	1	2
450.173	1	12
450.343	1	22
450.514	1	10
450.684	1	5
450.855	1	12
451.025	1	18
451.196	1	-5
451.366	1	17
451.537	1	12
451.707	1	8
451.878	1	2
452.048	1	6
452.218	1	7
452.389	1	5
452.559	1	9
452.730	1	4
452.900	1	13
453.071	1	7
453.241	1	-3
453.412	1	2
453.582	1	20
453.753	1	9
453.923	1	14
454.093	1	10
454.264	1	17
454.434	1	6
454.605	1	10
454.775	1	2
454.946	1	5
455.116	1	-2
455.287	1	10
455.457	1	7
455.628	1	9
455.798	1	5
455.968	1	10
456.139	1	3
456.309	1	24
456.480	1	-2
456.650	1	-3
456.821	1	6
456.991	1	0
457.161	1	7
457.332	1	11
457.502	1	0
457.673	1	11
457.843	1	2
458.014	1	3
458.184	1	15
458.355	1	7
458.525	1	4
458.695	1	11
458.866	1	2
459.036	1	9
459.207	1	7
459.377	1	1
459.548	1	9
459.718	1	3
459.888	1	12
460.059	1	16
460.229	1	10
460.400	1	3
460.570	1	13
460.740	1	4
460.911	1	6
461.081	1	2
461.252	1	0
461.422	1	-1
461.593	1	13
461.763	1	9
461.933	1	10
462.104	1	5
462.274	1	5
462.445	1	7
462.615	1	16
462.785	1	8
462.956	1	-4
463.126	1	8
463.297	1	10
463.467	1	9
463.638	1	9
463.808	1	18
463.978	1	9
464.149	1	-1
464.319	1	3
464.490	1	3
464.660	1	21
464.830	1	3
465.001	1	7
465.171	1	-3
465.342	1	1
465.512	1	8
465.682	1	15
465.853	1	8
466.023	1	16
466.194	1	-4
466.364	1	5
466.534	1	-7
466.705	1	7
466.875	1	14
467.045	1	18
467.216	1	9
467.386	1	9
467.557	1	15
467.727	1	9
467.897	1	20
468.068	1	4
468.238	1	-2
468.409	1	14
468.579	1	10
468.749	1	18
468.920	1	5
469.090	1	7
469.260	1	18
469.431	1	15
469.601	1	5
469.772	1	9
469.942	1	4
470.112	1	7
470.283	1	6
470.453	1	10
470.623	1	10
470.794	1	0
470.964	1	19
471.135	1	4
471.305	1	3
471.475	1	13
471.646	1	10
471.816	1	5
471.986	1	-2
472.157	1	-6
472.327	1	10
472.497	1	5
472.668	1	4
472.838	1	5
473.009	1	5
473.179	1	17
473.349	1	7
473.520	1	-6
473.690	1	3
473.860	1	-2
474.031	1	0
474.201	1	11
474.371	1	20
474.542	1	6
474.712	1	3
474.882	1	10
475.053	1	1
475.223	1	5
475.394	1	5
475.564	1	12
475.734	1	-6
475.905	1	8
476.075	1	2
476.245	1	7
476.416	1	7
476.586	1	9
476.756	1	-2
476.927	1	12
477.097	1	12
477.267	1	9
477.438	1	-4
477.608	1	16
477.778	1	3
477.949	1	11
478.119	1	6
478.289	1	-9
478.460	1	11
478.630	1	14
478.800	1	11
478.971	1	-3
479.141	1	6
479.311	1	5
479.482	1	-8
479.652	1	14
479.822	1	0
479.993	1	16
480.163	1	5
480.333	1	16
480.504	1	6
480.674	1	4
480.844	1	0
481.015	1	11
481.185	1	9
481.355	1	-1
481.525	1	-3
481.696	1	2
481.866	1	10
482.036	1	3
482.207	1	0
482.377	1	4
482.547	1	5
482.718	1	-4
482.888	1	-4
483.058	1	6
483.229	1	8
483.399	1	9
483.569	1	-7
483.740	1	12
483.910	1	13
484.080	1	19
484.250	1	-1
484.421	1	13
484.591	1	4
484.761	1	11
484.932	1	18
485.102	1	2
485.272	1	1
485.443	1	10
485.613	1	-3
485.783	1	-7
485.953	1	1
486.124	1	11
486.294	1	4
486.464	1	12
486.635	1	-3
486.805	1	18
486.975	1	0
487.146	1	2
487.316	1	0
487.486	1	0
487.656	1	14
487.827	1	1
487.997	1	6
488.167	1	5
488.338	1	14
488.508	1	6
488.678	1	8
488.848	1	9
489.019	1	2
489.189	1	4
489.359	1	6
489.529	1	-6
489.700	1	12
489.870	1	1
490.040	1	-4
490.211	1	2
490.381	1	17
490.551	1	2
490.721	1	3
490.892	1	15
491.062	1	-4
491.232	1	9
491.402	1	-4
491.573	1	10
491.743	1	5
491.913	1	4
492.084	1	5
492.254	1	21
492.424	1	-1
492.594	1	-4
492.765	1	2
492.935	1	-5
493.105	1	-1
493.275	1	0
493.446	1	5
493.616	1	-8
493.786	1	4
493.956	1	2
494.127	1	2
494.297	1	17
494.467	1	8
494.637	1	11
494.808	1	2
494.978	1	-3
495.148	1	18
495.318	1	5
495.489	1	7
495.659	1	7
495.829	1	4
495.999	1	-10
496.170	1	7
496.340	1	-4
496.510	1	12
496.680	1	6
496.851	1	14
497.021	1	13
497.191	1	1
497.361	1	10
497.532	1	6
497.702	1	4
497.872	1	4
498.042	1	19
498.213	1	-2
498.383	1	3
498.553	1	7
498.723	1	8
498.894	1	9
499.064	1	-9
499.234	1	12
499.404	1	10
499.574	1	5
499.745	1	-2
499.915	1	6
500.085	1	-3
500.255	1	2
500.426	1	1
500.596	1	6
500.766	1	7
500.936	1	5
501.106	1	5
501.277	1	13
501.447	1	4
501.617	1	2
501.787	1	15
501.958	1	2
502.128	1	6
502.298	1	10
502.468	1	9
502.638	1	12
502.809	1	8
502.979	1	11
503.149	1	12
503.319	1	9
503.489	1	-1
503.660	1	3
503.830	1	6
504.000	1	-1
504.170	1	-3
504.340	1	0
504.511	1	10
504.681	1	-2
504.851	1	0
505.021	1	5
505.192	1	0
505.362	1	2
505.532	1	0
505.702	1	8
505.872	1	1
506.043	1	-7
506.213	1	5
506.383	1	-5
506.553	1	8
506.723	1	8
506.893	1	4
507.064	1	10
507.234	1	-4
507.404	1	6
507.574	1	-2
507.744	1	-5
507.915	1	8
508.085	1	6
508.255	1	-2
508.425	1	1
508.595	1	0
508.766	1	5
508.936	1	-4
509.106	1	1
509.276	1	8
509.446	1	0
509.616	1	17
509.787	1	1
509.957	1	8
510.127	1	1
510.297	1	6
510.467	1	10
510.638	1	6
510.808	1	3
510.978	1	5
511.148	1	10
511.318	1	20
511.488	1	9
511.659	1	-9
511.829	1	-3
511.999	1	-3
512.169	1	0
512.339	1	1
512.509	1	11
512.680	1	3
512.850	1	9
513.020	1	-1
513.190	1	-3
513.360	1	3
513.530	1	16
513.700	1	1
513.871	1	6
514.041	1	5
514.211	1	4
514.381	1	-5
514.551	1	11
514.721	1	-8
514.892	1	8
515.062	1	0
515.232	1	1
515.402	1	9
515.572	1	0
515.742	1	4
515.912	1	11
516.083	1	-2
516.253	1	-5
516.423	1	-2
516.593	1	3
516.763	1	15
516.933	1	8
517.104	1	0
517.274	1	7
517.444	1	3
517.614	1	-1
517.784	1	1
517.954	1	-5
518.124	1	-1
518.294	1	8
518.465	1	2
518.635	1	0
518.805	1	8
518.975	1	6
519.145	1	1
519.315	1	9
519.485	1	-7
519.656	1	9
519.826	1	4
519.996	1	-8
520.166	1	3
520.336	1	8
520.506	1	6
520.676	1	-8
520.846	1	8
521.017	1	-1
521.187	1	-7
521.357	1	1
521.527	1	6
521.697	1	0
521.867	1	3
522.037	1	-3
522.207	1	-12
522.377	1	2
522.548	1	-6
522.718	1	6
522.888	1	-4
523.058	1	2
523.228	1	10
523.398	1	1
523.568	1	-4
523.738	1	2
523.909	1	-4
524.079	1	12
524.249	1	6
524.419	1	0
524.589	1	9
524.759	1	2
524.929	1	5
525.099	1	11
525.269	1	20
525.439	1	2
525.610	1	2
525.780	1	3
525.950	1	6
526.120	1	12
526.290	1	10
526.460	1	8
526.630	1	4
526.800	1	-4
526.970	1	0
527.140	1	8
527.311	1	5
527.481	1	0
527.651	1	0
527.821	1	-6
527.991	1	20
528.161	1	0
528.331	1	0
528.501	1	-1
528.671	1	2
528.841	1	4
529.011	1	5
529.181	1	15
529.352	1	-1
529.522	1	-10
529.692	1	-5
529.862	1	1
530.032	1	-1
530.202	1	6
530.372	1	1
530.542	1	3
530.712	1	-6
530.882	1	-1
531.052	1	10
531.222	1	2
531.392	1	-2
531.563	1	-3
531.733	1	9
531.903	1	-2
532.073	1	9
532.243	1	17
532.413	1	7
532.583	1	-5
532.753	1	2
532.923	1	11
533.093	1	-5
533.263	1	-6
533.433	1	6
533.603	1	-2
533.773	1	7
533.943	1	0
534.113	1	6
534.284	1	9
534.454	1	5
534.624	1	-2
534.794	1	3
534.964	1	15
535.134	1	-1
535.304	1	9
535.474	1	-6
535.644	1	17
535.814	1	-9
535.984	1	-11
536.154	1	4
536.324	1	-5
536.494	1	2
536.664	1	-1
536.834	1	5
537.004	1	3
537.174	1	2
537.344	1	10
537.514	1	-2
537.685	1	0
537.855	1	2
538.025	1	12
538.195	1	7
538.365	1	1
538.535	1	-5
538.705	1	-1
538.875	1	11
539.045	1	-6
539.215	1	7
539.385	1	-3
539.555	1	-6
539.725	1	12
539.895	1	6
540.065	1	-1
540.235	1	-8
540.405	1	10
540.575	1	15
540.745	1	7
540.915	1	-3
541.085	1	0
541.255	1	4
541.425	1	0
541.595	1	-3
541.765	1	3
541.935	1	10
542.105	1	3
542.275	1	-1
542.445	1	-7
542.615	1	6
542.785	1	13
542.955	1	2
543.125	1	-6
543.295	1	14
543.465	1	-4
543.635	1	3
543.805	1	1
543.975	1	-4
544.145	1	-5
544.315	1	-4
544.485	1	0
544.655	1	13
544.825	1	4
544.995	1	0
545.165	1	4
545.335	1	-7
545.505	1	4
545.675	1	9
545.845	1	-8
546.015	1	-1
546.185	1	5
546.355	1	-3
546.525	1	5
546.695	1	5
546.865	1	-7
547.035	1	2
547.205	1	-2
547.375	1	4
547.545	1	5
547.715	1	1
547.885	1	12
548.055	1	0
548.225	1	-2
548.395	1	8
548.565	1	-3
548.735	1	-2
548.905	1	9
549.075	1	4
549.245	1	13
549.415	1	6
549.585	1	6
549.755	1	-4
549.925	1	0
550.095	1	-2
550.265	1	-14
550.435	1	7
550.605	1	2
550.775	1	4
550.945	1	1
551.115	1	-9
551.285	1	1
551.455	1	-2
551.625	1	6
551.795	1	1
551.965	1	2
552.135	1	-10
552.305	1	6
552.475	1	5
552.645	1	12
552.815	1	-4
552.985	1	1
553.155	1	4
553.325	1	5
553.495	1	-11
553.665	1	7
553.835	1	0
554.004	1	1
554.174	1	6
554.344	1	3
554.514	1	4
554.684	1	-4
554.854	1	-1
555.024	1	7
555.194	1	8
555.364	1	2
555.534	1	14
555.704	1	1
555.874	1	7
556.044	1	0
556.214	1	-8
556.384	1	7
556.554	1	-4
556.724	1	-1
556.894	1	3
557.064	1	0
557.234	1	0
557.404	1	6
557.573	1	3
557.743	1	7
557.913	1	-2
558.083	1	-5
558.253	1	-4
558.423	1	1
558.593	1	3
558.763	1	10
558.933	1	1
559.103	1	1
559.273	1	-1
559.443	1	11
559.613	1	-7
559.783	1	2
559.953	1	-10
560.122	1	0
560.292	1	5
560.462	1	-3
560.632	1	-3
560.802	1	0
560.972	1	6
561.142	1	6
561.312	1	1
561.482	1	0
561.652	1	2
561.822	1	5
561.992	1	6
562.162	1	-5
562.331	1	-6
562.501	1	1
562.671	1	5
562.841	1	14
563.011	1	8
563.181	1	11
563.351	1	-3
563.521	1	5
563.691	1	-2
563.861	1	6
564.031	1	2
564.201	1	4
564.370	1	12
564.540	1	7
564.710	1	5
564.880	1	13
565.050	1	-3
565.220	1	-4
565.390	1	3
565.560	1	14
565.730	1	8
565.900	1	-6
566.069	1	4
566.239	1	-7
566.409	1	5
566.579	1	1
566.749	1	14
566.919	1	5
567.089	1	-3
567.259	1	-3
567.429	1	1
567.599	1	3
567.768	1	1
567.938	1	-12
568.108	1	8
568.278	1	3
568.448	1	9
568.618	1	8
568.788	1	16
568.958	1	12
569.128	1	3
569.297	1	-1
569.467	1	8
569.637	1	4
569.807	1	-2
569.977	1	9
570.147	1	-5
570.317	1	13
570.487	1	-1
570.656	1	5
570.826	1	15
570.996	1	-11
571.166	1	7
571.336	1	11
571.506	1	-4
571.676	1	7
571.846	1	-8
572.015	1	-1
572.185	1	-1
572.355	1	-9
572.525	1	-2
572.695	1	9
572.865	1	-1
573.035	1	1
573.205	1	-9
573.374	1	0
573.544	1	-3
573.714	1	8
573.884	1	9
574.054	1	8
574.224	1	-2
574.394	1	-5
574.563	1	15
574.733	1	4
574.903	1	-2
575.073	1	-4
575.243	1	0
575.413	1	-3
575.583	1	2
575.752	1	2
575.922	1	-5
576.092	1	2
576.262	1	8
576.432	1	3
576.602	1	0
576.772	1	-8
576.941	1	8
577.111	1	4
577.281	1	13
577.451	1	16
577.621	1	-2
577.791	1	-6
577.960	1	8
578.130	1	-6
578.300	1	-2
578.470	1	-3
578.640	1	9
578.810	1	1
578.979	1	-2
579.149	1	-4
579.319	1	-5
579.489	1	-1
579.659	1	3
579.829	1	1
579.998	1	2
580.168	1	3
580.338	1	3
580.508	1	1
580.678	1	-2
580.848	1	1
581.017	1	10
581.187	1	6
581.357	1	-11
581.527	1	7
581.697	1	1
581.867	1	4
582.036	1	1
582.206	1	3
582.376	1	4
582.546	1	4
582.716	1	-3
582.885	1	8
583.055	1	1
583.225	1	-2
583.395	1	5
583.565	1	15
583.735	1	-3
583.904	1	-5
584.074	1	2
584.244	1	9
584.414	1	6
584.584	1	-3
584.753	1	5
584.923	1	5
585.093	1	5
585.263	1	9
585.433	1	-3
585.602	1	6
585.772	1	0
585.942	1	-4
586.112	1	3
586.282	1	-3
586.451	1	-2
586.621	1	11
586.791	1	10
586.961	1	5
587.131	1	10
587.300	1	-10
587.470	1	3
587.640	1	-5
587.810	1	3
587.980	1	5
588.149	1	13
588.319	1	-2
588.489	1	12
588.659	1	-1
588.829	1	1
588.998	1	11
589.168	1	-8
589.338	1	8
589.508	1	1
589.677	1	2
589.847	1	-2
590.017	1	-5
590.187	1	-4
590.357	1	-1
590.526	1	20
590.696	1	3
590.866	1	2
591.036	1	-4
591.205	1	-10
591.375	1	-2
591.545	1	0
591.715	1	9
591.885	1	4
592.054	1	1
592.224	1	-1
592.394	1	2
592.564	1	-3
592.733	1	13
592.903	1	7
593.073	1	-2
593.243	1	7
593.412	1	-1
593.582	1	8
593.752	1	4
593.922	1	-1
594.091	1	10
594.261	1	5
594.431	1	1
594.601	1	10
594.771	1	-3
594.940	1	0
595.110	1	1
595.280	1	-3
595.450	1	2
595.619	1	-1
595.789	1	4
595.959	1	1
596.129	1	8
596.298	1	15
596.468	1	-2
596.638	1	11
596.808	1	6
596.977	1	2
597.147	1	10
597.317	1	-1
597.487	1	2
597.656	1	1
597.826	1	-4
597.996	1	3
598.166	1	1
598.335	1	8
598.505	1	-2
598.675	1	1
598.844	1	5
599.014	1	-8
599.184	1	19
599.354	1	3
599.523	1	-4
599.693	1	-2
599.863	1	-3
600.033	1	4
600.202	1	-1
600.372	1	0
600.542	1	3
600.712	1	7
600.881	1	4
601.051	1	7
601.221	1	-3
601.390	1	13
601.560	1	-1
601.730	1	2
601.900	1	2
602.069	1	0
602.239	1	-7
602.409	1	14
602.578	1	-6
602.748	1	6
602.918	1	-2
603.088	1	8
603.257	1	4
603.427	1	-1
603.597	1	-6
603.767	1	-1
603.936	1	10
604.106	1	6
604.276	1	0
604.445	1	0
604.615	1	1
604.785	1	5
604.954	1	13
605.124	1	-10
605.294	1	2
605.464	1	13
605.633	1	4
605.803	1	2
605.973	1	1
606.142	1	10
606.312	1	5
606.482	1	8
606.652	1	8
606.821	1	4
606.991	1	5
607.161	1	8
607.330	1	-6
607.500	1	-1
607.670	1	-8
607.839	1	9
608.009	1	-8
608.179	1	1
608.348	1	13
608.518	1	0
608.688	1	7
608.858	1	-2
609.027	1	13
609.197	1	8
609.367	1	0
609.536	1	-9
609.706	1	4
609.876	1	1
610.045	1	2
610.215	1	3
610.385	1	12
610.554	1	1
610.724	1	7
610.894	1	14
611.063	1	-1
611.233	1	5
611.403	1	-3
611.572	1	11
611.742	1	-1
611.912	1	-1
612.081	1	3
612.251	1	10
612.421	1	9
612.590	1	-3
612.760	1	4
612.930	1	-4
613.099	1	6
613.269	1	-5
613.439	1	8
613.608	1	16
613.778	1	-11
613.948	1	13
614.117	1	3
614.287	1	-6
614.457	1	-1
614.626	1	-4
614.796	1	0
614.966	1	-4
615.135	1	1
615.305	1	-4
615.475	1	4
615.644	1	2
615.814	1	-1
615.984	1	5
616.153	1	1
616.323	1	0
616.493	1	8
616.662	1	6
616.832	1	1
617.002	1	11
617.171	1	-4
617.341	1	-4
617.511	1	-3
617.680	1	4
617.850	1	6
618.019	1	9
618.189	1	0
618.359	1	-2
618.528	1	13
618.698	1	8
618.868	1	8
619.037	1	0
619.207	1	2
619.377	1	0
619.546	1	1
619.716	1	-3
619.885	1	6
620.055	1	8
620.225	1	3
620.394	1	7
620.564	1	2
620.734	1	0
620.903	1	-2
621.073	1	9
621.242	1	-11
621.412	1	6
621.582	1	3
621.751	1	-1
621.921	1	5
622.091	1	14
622.260	1	6
622.430	1	1
622.599	1	8
622.769	1	2
622.939	1	11
623.108	1	-5
623.278	1	0
623.448	1	-2
623.617	1	2
623.787	1	13
623.956	1	0
624.126	1	10
624.296	1	10
624.465	1	0
624.635	1	-1
624.804	1	-1
624.974	1	-5
625.144	1	9
625.313	1	-3
625.483	1	4
625.652	1	-7
625.822	1	-5
625.992	1	6
626.161	1	-2
626.331	1	1
626.501	1	4
626.670	1	5
626.840	1	0
627.009	1	5
627.179	1	7
627.348	1	16
627.518	1	11
627.688	1	-1
627.857	1	8
628.027	1	5
628.196	1	9
628.366	1	-10
628.536	1	0
628.705	1	0
628.875	1	-1
629.044	1	-1
629.214	1	7
629.384	1	-1
629.553	1	7
629.723	1	1
629.892	1	6
630.062	1	12
630.232	1	-6
630.401	1	0
630.571	1	-1
630.740	1	1
630.910	1	3
631.079	1	8
631.249	1	-6
631.419	1	3
631.588	1	-11
631.758	1	8
631.927	1	-4
632.097	1	10
632.266	1	-3
632.436	1	-5
632.606	1	-2
632.775	1	7
632.945	1	-1
633.114	1	2
633.284	1	-6
633.453	1	6
633.623	1	7
633.793	1	0
633.962	1	-7
634.132	1	12
634.301	1	3
634.471	1	7
634.640	1	12
634.810	1	13
634.979	1	8
635.149	1	8
635.319	1	11
635.488	1	-1
635.658	1	-11
635.827	1	6
635.997	1	2
636.166	1	3
636.336	1	0
636.505	1	10
636.675	1	-6
636.845	1	2
637.014	1	9
637.184	1	-2
637.353	1	1
637.523	1	10
637.692	1	6
637.862	1	-5
638.031	1	1
638.201	1	7
638.370	1	6
638.540	1	0
638.710	1	1
638.879	1	-6
639.049	1	6
639.218	1	0
639.388	1	12
639.557	1	-1
639.727	1	-1
639.896	1	-3
640.066	1	9
640.235	1	5
640.405	1	3
640.574	1	4
640.744	1	8
640.914	1	1
641.083	1	-4
641.253	1	2
641.422	1	7
641.592	1	7
641.761	1	4
641.931	1	2
642.100	1	6
642.270	1	6
642.439	1	5
642.609	1	16
642.778	1	2
642.948	1	-1
643.117	1	11
643.287	1	5
643.456	1	-11
643.626	1	3
643.795	1	4
643.965	1	6
644.134	1	-1
644.304	1	5
644.473	1	0
644.643	1	-8
644.812	1	9
644.982	1	5
645.151	1	0
645.321	1	3
645.490	1	7
645.660	1	6
645.829	1	-5
645.999	1	8
646.168	1	9
646.338	1	-1
646.507	1	-8
646.677	1	6
646.846	1	7
647.016	1	12
647.185	1	5
647.355	1	-2
647.524	1	-6
647.694	1	-2
647.863	1	-1
648.033	1	4
648.202	1	3
648.372	1	7
648.541	1	10
648.711	1	6
648.880	1	11
649.050	1	3
649.219	1	5
649.389	1	6
649.558	1	-2
649.728	1	-1
649.897	1	-8
650.067	1	1
650.236	1	6
650.406	1	-9
650.575	1	1
650.745	1	19
650.914	1	6
651.084	1	-1
651.253	1	-2
651.423	1	-6
651.592	1	7
651.762	1	11
651.931	1	5
652.101	1	6
652.270	1	5
652.440	1	6
652.609	1	1
652.778	1	5
652.948	1	-3
653.117	1	19
653.287	1	0
653.456	1	3
653.626	1	-3
653.795	1	12
653.965	1	13
654.134	1	9
654.304	1	9
654.473	1	11
654.643	1	5
654.812	1	-2
654.982	1	3
655.151	1	5
655.320	1	3
655.490	1	-4
655.659	1	-1
655.829	1	-3
655.998	1	7
656.168	1	-5
656.337	1	6
656.507	1	9
656.676	1	5
656.846	1	-6
657.015	1	13
657.184	1	-9
657.354	1	-4
657.523	1	5
657.693	1	8
657.862	1	4
658.032	1	-13
658.201	1	-2
658.371	1	-4
658.540	1	13
658.709	1	9
658.879	1	-10
659.048	1	-8
659.218	1	8
659.387	1	8
659.557	1	7
659.726	1	-4
659.895	1	1
660.065	1	-4
660.234	1	5
660.404	1	20
660.573	1	-2
660.743	1	1
660.912	1	8
661.081	1	-8
661.251	1	6
661.420	1	12
661.590	1	0
661.759	1	-3
661.929	1	15
662.098	1	5
662.267	1	8
662.437	1	1
662.606	1	8
662.776	1	8
662.945	1	12
663.115	1	-10
663.284	1	-4
663.453	1	-5
663.623	1	2
663.792	1	-1
663.962	1	-1
664.131	1	-2
664.300	1	6
664.470	1	1
664.639	1	-1
664.809	1	6
664.978	1	2
665.148	1	8
665.317	1	-3
665.486	1	3
665.656	1	-4
665.825	1	0
665.995	1	5
666.164	1	5
666.333	1	9
666.503	1	10
666.672	1	2
666.842	1	-1
667.011	1	5
667.180	1	-2
667.350	1	14
667.519	1	-5
667.689	1	12
667.858	1	12
668.027	1	-7
668.197	1	3
668.366	1	9
668.536	1	-8
668.705	1	12
668.874	1	5
669.044	1	0
669.213	1	-5
669.382	1	13
669.552	1	-2
669.721	1	-7
669.891	1	-11
670.060	1	-9
670.229	1	-5
670.399	1	4
670.568	1	5
670.738	1	0
670.907	1	8
671.076	1	0
671.246	1	-5
671.415	1	6
671.584	1	-5
671.754	1	8
671.923	1	1
672.093	1	8
672.262	1	10
672.431	1	14
672.601	1	2
672.770	1	-5
672.939	1	8
673.109	1	0
673.278	1	16
673.448	1	-2
673.617	1	1
673.786	1	-4
