325.333	1	0
325.504	1	13
325.675	1	1
325.846	1	0
326.017	1	2
326.188	1	-3
326.359	1	8
326.531	1	0
326.702	1	3
326.873	1	9
327.044	1	6
327.215	1	-8
327.386	1	2
327.557	1	14
327.728	1	-5
327.899	1	-1
328.070	1	0
328.241	1	13
328.412	1	-4
328.583	1	-9
328.754	1	1
328.926	1	8
329.097	1	2
329.268	1	4
329.439	1	5
329.610	1	7
329.781	1	7
329.952	1	0
330.123	1	-1
330.294	1	7
330.465	1	9
330.636	1	-4
330.807	1	-6
330.978	1	7
331.149	1	-4
331.320	1	14
331.492	1	14
331.663	1	4
331.834	1	4
332.005	1	4
332.176	1	4
332.347	1	13
332.518	1	-9
332.689	1	10
332.860	1	2
333.031	1	8
333.202	1	14
333.373	1	4
333.544	1	2
333.715	1	4
333.886	1	5
334.057	1	8
334.228	1	7
334.399	1	3
334.570	1	-3
334.741	1	0
334.912	1	5
335.084	1	0
335.255	1	-4
335.426	1	3
335.597	1	11
335.768	1	-4
335.939	1	1
336.110	1	2
336.281	1	4
336.452	1	17
336.623	1	6
336.794	1	-1
336.965	1	0
337.136	1	3
337.307	1	9
337.478	1	2
337.649	1	-1
337.820	1	-3
337.991	1	8
338.162	1	2
338.333	1	4
338.504	1	-2
338.675	1	0
338.846	1	0
339.017	1	6
339.188	1	2
339.359	1	6
339.530	1	3
339.701	1	5
339.872	1	10
340.043	1	11
340.214	1	7
340.385	1	8
340.556	1	5
340.727	1	3
340.898	1	2
341.069	1	7
341.240	1	15
341.411	1	8
341.582	1	1
341.753	1	5
341.924	1	5
342.095	1	4
342.266	1	-4
342.437	1	4
342.608	1	-2
342.779	1	-1
342.950	1	10
343.121	1	8
343.292	1	11
343.463	1	12
343.634	1	8
343.805	1	3
343.976	1	7
344.147	1	9
344.318	1	-3
344.489	1	4
344.660	1	14
344.831	1	10
345.002	1	2
345.173	1	11
345.344	1	1
345.515	1	6
345.686	1	0
345.857	1	10
346.028	1	16
346.199	1	6
346.370	1	0
346.541	1	16
346.712	1	1
346.883	1	9
347.054	1	6
347.225	1	8
347.396	1	9
347.567	1	18
347.738	1	7
347.909	1	5
348.080	1	9
348.251	1	0
348.422	1	6
348.593	1	12
348.764	1	-3
348.935	1	4
349.106	1	5
349.277	1	14
349.448	1	-1
349.619	1	6
349.790	1	10
349.961	1	12
350.132	1	6
350.303	1	14
350.474	1	6
350.645	1	1
350.816	1	10
350.987	1	-1
351.157	1	5
351.328	1	17
351.499	1	2
351.670	1	14
351.841	1	-4
352.012	1	13
352.183	1	4
352.354	1	5
352.525	1	-5
352.696	1	5
352.867	1	-5
353.038	1	3
353.209	1	9
353.380	1	13
353.551	1	12
353.722	1	3
353.893	1	5
354.064	1	6
354.235	1	5
354.406	1	10
354.576	1	4
354.747	1	7
354.918	1	7
355.089	1	8
355.260	1	14
355.431	1	14
355.602	1	6
355.773	1	-4
355.944	1	3
356.115	1	1
356.286	1	5
356.457	1	2
356.628	1	14
356.799	1	6
356.970	1	0
357.141	1	20
357.311	1	2
357.482	1	3
357.653	1	4
357.824	1	8
357.995	1	14
358.166	1	3
358.337	1	7
358.508	1	5
358.679	1	3
358.850	1	3
359.021	1	2
359.192	1	16
359.363	1	9
359.533	1	13
359.704	1	12
359.875	1	14
360.046	1	9
360.217	1	6
360.388	1	9
360.559	1	8
360.730	1	7
360.901	1	6
361.072	1	9
361.243	1	6
361.414	1	9
361.584	1	15
361.755	1	17
361.926	1	7
362.097	1	11
362.268	1	-3
362.439	1	15
362.610	1	3
362.781	1	8
362.952	1	15
363.123	1	25
363.293	1	5
363.464	1	6
363.635	1	14
363.806	1	10
363.977	1	15
364.148	1	1
364.319	1	11
364.490	1	9
364.661	1	15
364.832	1	13
365.002	1	9
365.173	1	10
365.344	1	2
365.515	1	11
365.686	1	16
365.857	1	9
366.028	1	2
366.199	1	10
366.370	1	16
366.540	1	21
366.711	1	8
366.882	1	9
367.053	1	3
367.224	1	1
367.395	1	14
367.566	1	15
367.737	1	17
367.908	1	5
368.078	1	20
368.249	1	10
368.420	1	20
368.591	1	12
368.762	1	11
368.933	1	7
369.104	1	12
369.274	1	0
369.445	1	14
369.616	1	15
369.787	1	19
369.958	1	15
370.129	1	9
370.300	1	14
370.471	1	12
370.641	1	14
370.812	1	11
370.983	1	8
371.154	1	12
371.325	1	17
371.496	1	8
371.667	1	16
371.837	1	19
372.008	1	12
372.179	1	15
372.350	1	16
372.521	1	11
372.692	1	14
372.863	1	14
373.033	1	19
373.204	1	11
373.375	1	12
373.546	1	20
373.717	1	6
373.888	1	13
374.059	1	21
374.229	1	10
374.400	1	9
374.571	1	16
374.742	1	14
374.913	1	0
375.084	1	7
375.254	1	31
375.425	1	14
375.596	1	6
375.767	1	8
375.938	1	13
376.109	1	0
376.279	1	2
376.450	1	15
376.621	1	23
376.792	1	14
376.963	1	18
377.134	1	17
377.304	1	16
377.475	1	9
377.646	1	8
377.817	1	-9
377.988	1	5
378.159	1	14
378.329	1	11
378.500	1	14
378.671	1	18
378.842	1	8
379.013	1	23
379.184	1	24
379.354	1	7
379.525	1	8
379.696	1	6
379.867	1	13
380.038	1	4
380.209	1	4
380.379	1	12
380.550	1	12
380.721	1	19
380.892	1	15
381.063	1	15
381.233	1	2
381.404	1	15
381.575	1	5
381.746	1	14
381.917	1	5
382.087	1	16
382.258	1	14
382.429	1	14
382.600	1	16
382.771	1	12
382.941	1	11
383.112	1	7
383.283	1	14
383.454	1	8
383.625	1	10
383.795	1	14
383.966	1	10
384.137	1	15
384.308	1	8
384.479	1	6
384.649	1	18
384.820	1	7
384.991	1	9
385.162	1	11
385.333	1	21
385.503	1	18
385.674	1	16
385.845	1	10
386.016	1	18
386.187	1	8
386.357	1	20
386.528	1	11
386.699	1	17
386.870	1	23
387.041	1	8
387.211	1	17
387.382	1	15
387.553	1	12
387.724	1	1
387.894	1	14
388.065	1	11
388.236	1	6
388.407	1	15
388.578	1	8
388.748	1	8
388.919	1	21
389.090	1	11
389.261	1	18
389.431	1	19
389.602	1	17
389.773	1	19
389.944	1	5
390.114	1	19
390.285	1	-4
390.456	1	9
390.627	1	17
390.798	1	20
390.968	1	13
391.139	1	14
391.310	1	21
391.481	1	1
391.651	1	20
391.822	1	13
391.993	1	21
392.164	1	-4
392.334	1	24
392.505	1	4
392.676	1	14
392.847	1	17
393.017	1	37
393.188	1	11
393.359	1	15
393.530	1	20
393.700	1	10
393.871	1	15
394.042	1	0
394.213	1	8
394.383	1	17
394.554	1	11
394.725	1	11
394.896	1	17
395.066	1	15
395.237	1	9
395.408	1	16
395.579	1	15
395.749	1	14
395.920	1	17
396.091	1	19
396.262	1	10
396.432	1	16
396.603	1	8
396.774	1	7
396.945	1	11
397.115	1	19
397.286	1	16
397.457	1	11
397.627	1	19
397.798	1	6
397.969	1	10
398.140	1	23
398.310	1	15
398.481	1	7
398.652	1	25
398.823	1	14
398.993	1	16
399.164	1	13
399.335	1	17
399.505	1	20
399.676	1	18
399.847	1	10
400.018	1	16
400.188	1	6
400.359	1	13
400.530	1	23
400.700	1	13
400.871	1	26
401.042	1	17
401.213	1	7
401.383	1	9
401.554	1	12
401.725	1	24
401.895	1	21
402.066	1	26
402.237	1	16
402.408	1	19
402.578	1	14
402.749	1	16
402.920	1	13
403.090	1	17
403.261	1	22
403.432	1	25
403.603	1	23
403.773	1	27
403.944	1	17
404.115	1	20
404.285	1	8
404.456	1	16
404.627	1	7
404.797	1	14
404.968	1	22
405.139	1	18
405.310	1	18
405.480	1	19
405.651	1	20
405.822	1	17
405.992	1	12
406.163	1	23
406.334	1	5
406.504	1	16
406.675	1	10
406.846	1	10
407.016	1	14
407.187	1	28
407.358	1	9
407.528	1	8
407.699	1	26
407.870	1	18
408.041	1	22
408.211	1	13
408.382	1	4
408.553	1	10
408.723	1	22
408.894	1	13
409.065	1	28
409.235	1	17
409.406	1	6
409.577	1	19
409.747	1	14
409.918	1	13
410.089	1	27
410.259	1	23
410.430	1	12
410.601	1	14
410.771	1	19
410.942	1	28
411.113	1	13
411.283	1	26
411.454	1	16
411.625	1	17
411.795	1	16
411.966	1	19
412.137	1	15
412.307	1	24
412.478	1	18
412.649	1	11
412.819	1	15
412.990	1	14
413.161	1	22
413.331	1	26
413.502	1	12
413.672	1	19
413.843	1	13
414.014	1	21
414.184	1	9
414.355	1	27
414.526	1	21
414.696	1	25
414.867	1	28
415.038	1	15
415.208	1	21
415.379	1	13
415.550	1	24
415.720	1	16
415.891	1	19
416.062	1	16
416.232	1	15
416.403	1	17
416.573	1	25
416.744	1	10
416.915	1	21
417.085	1	37
417.256	1	24
417.427	1	25
417.597	1	18
417.768	1	15
417.939	1	26
418.109	1	10
418.280	1	12
418.450	1	18
418.621	1	14
418.792	1	28
418.962	1	18
419.133	1	25
419.304	1	31
419.474	1	12
419.645	1	16
419.815	1	27
419.986	1	10
420.157	1	16
420.327	1	17
420.498	1	15
420.669	1	13
420.839	1	17
421.010	1	20
421.180	1	24
421.351	1	9
421.522	1	17
421.692	1	17
421.863	1	21
422.033	1	18
422.204	1	19
422.375	1	12
422.545	1	15
422.716	1	15
422.886	1	18
423.057	1	9
423.228	1	10
423.398	1	16
423.569	1	15
423.740	1	14
423.910	1	11
424.081	1	21
424.251	1	16
424.422	1	23
424.593	1	14
424.763	1	22
424.934	1	13
425.104	1	11
425.275	1	19
425.445	1	18
425.616	1	1
425.787	1	8
425.957	1	11
426.128	1	4
426.298	1	7
426.469	1	5
426.640	1	25
426.810	1	11
426.981	1	5
427.151	1	25
427.322	1	19
427.493	1	19
427.663	1	13
427.834	1	17
428.004	1	17
428.175	1	18
428.345	1	4
428.516	1	22
428.687	1	10
428.857	1	4
429.028	1	15
429.198	1	5
429.369	1	4
429.540	1	13
429.710	1	12
429.881	1	10
430.051	1	16
430.222	1	3
430.392	1	25
430.563	1	18
430.734	1	17
430.904	1	7
431.075	1	25
431.245	1	18
431.416	1	18
431.586	1	6
431.757	1	16
431.927	1	9
432.098	1	12
432.269	1	19
432.439	1	22
432.610	1	17
432.780	1	18
432.951	1	4
433.121	1	10
433.292	1	11
433.462	1	16
433.633	1	14
433.804	1	27
433.974	1	1
434.145	1	28
434.315	1	6
434.486	1	9
434.656	1	19
434.827	1	11
434.997	1	13
435.168	1	17
435.339	1	19
435.509	1	26
435.680	1	10
435.850	1	8
436.021	1	12
436.191	1	9
436.362	1	13
436.532	1	14
436.703	1	10
436.873	1	16
437.044	1	9
437.214	1	26
437.385	1	18
437.556	1	12
437.726	1	14
437.897	1	4
438.067	1	8
438.238	1	4
438.408	1	8
438.579	1	18
438.749	1	17
438.920	1	14
439.090	1	20
439.261	1	4
439.431	1	19
439.602	1	16
439.772	1	19
439.943	1	7
440.113	1	6
440.284	1	8
440.455	1	21
440.625	1	23
440.796	1	17
440.966	1	10
441.137	1	22
441.307	1	11
441.478	1	10
441.648	1	15
441.819	1	21
441.989	1	17
442.160	1	4
442.330	1	12
442.501	1	14
442.671	1	11
442.842	1	16
443.012	1	18
443.183	1	18
443.353	1	19
443.524	1	16
443.694	1	6
443.865	1	12
444.035	1	9
444.206	1	13
444.376	1	21
444.547	1	16
444.717	1	18
444.888	1	17
445.058	1	25
445.229	1	16
445.399	1	11
445.570	1	16
445.740	1	10
445.911	1	6
446.081	1	20
446.252	1	15
446.422	1	14
446.593	1	7
446.763	1	32
446.934	1	0
447.104	1	15
447.275	1	11
447.445	1	6
447.616	1	16
447.786	1	27
447.957	1	12
448.127	1	11
448.298	1	10
448.468	1	3
448.639	1	17
448.809	1	22
448.979	1	6
449.150	1	13
449.320	1	13
449.491	1	4
449.661	1	15
449.832	1	12
450.002	1	5
450.173	1	10
450.343	1	26
450.514	1	8
450.684	1	15
450.855	1	15
451.025	1	17
451.196	1	13
451.366	1	9
451.537	1	11
451.707	1	12
451.878	1	4
452.048	1	14
452.218	1	11
452.389	1	12
452.559	1	14
452.730	1	10
452.900	1	18
453.071	1	4
453.241	1	1
453.412	1	6
453.582	1	14
453.753	1	5
453.923	1	17
454.093	1	19
454.264	1	2
454.434	1	14
454.605	1	4
454.775	1	11
454.946	1	6
455.116	1	1
455.287	1	13
455.457	1	22
455.628	1	9
455.798	1	18
455.968	1	15
456.139	1	20
456.309	1	17
456.480	1	12
456.650	1	0
456.821	1	11
456.991	1	12
457.161	1	11
457.332	1	11
457.502	1	18
457.673	1	23
457.843	1	7
458.014	1	15
458.184	1	12
458.355	1	2
458.525	1	9
458.695	1	14
458.866	1	11
459.036	1	19
459.207	1	8
459.377	1	17
459.548	1	9
459.718	1	5
459.888	1	9
460.059	1	15
460.229	1	1
460.400	1	14
460.570	1	20
460.740	1	22
460.911	1	11
461.081	1	6
461.252	1	8
461.422	1	10
461.593	1	12
461.763	1	21
461.933	1	15
462.104	1	4
462.274	1	14
462.445	1	11
462.615	1	21
462.785	1	13
462.956	1	2
463.126	1	15
463.297	1	19
463.467	1	2
463.638	1	14
463.808	1	9
463.978	1	5
464.149	1	7
464.319	1	7
464.490	1	13
464.660	1	21
464.830	1	3
465.001	1	2
465.171	1	-4
465.342	1	7
465.512	1	9
465.682	1	15
465.853	1	11
466.023	1	27
466.194	1	-6
466.364	1	13
466.534	1	4
466.705	1	11
466.875	1	17
467.045	1	21
467.216	1	10
467.386	1	11
467.557	1	18
467.727	1	12
467.897	1	18
468.068	1	2
468.238	1	8
468.409	1	12
468.579	1	9
468.749	1	7
468.920	1	17
469.090	1	1
469.260	1	22
469.431	1	9
469.601	1	7
469.772	1	2
469.942	1	11
470.112	1	7
470.283	1	4
470.453	1	11
470.623	1	13
470.794	1	6
470.964	1	14
471.135	1	18
471.305	1	8
471.475	1	11
471.646	1	11
471.816	1	13
471.986	1	2
472.157	1	6
472.327	1	4
472.497	1	18
472.668	1	10
472.838	1	14
473.009	1	7
473.179	1	17
473.349	1	2
473.520	1	7
473.690	1	2
473.860	1	7
474.031	1	4
474.201	1	7
474.371	1	14
474.542	1	20
474.712	1	5
474.882	1	9
475.053	1	0
475.223	1	2
475.394	1	-1
475.564	1	10
475.734	1	14
475.905	1	11
476.075	1	4
476.245	1	13
476.416	1	16
476.586	1	6
476.756	1	-1
476.927	1	12
477.097	1	16
477.267	1	9
477.438	1	3
477.608	1	2
477.778	1	16
477.949	1	11
478.119	1	2
478.289	1	10
478.460	1	13
478.630	1	12
478.800	1	14
478.971	1	7
479.141	1	4
479.311	1	7
479.482	1	-5
479.652	1	17
479.822	1	9
479.993	1	18
480.163	1	8
480.333	1	24
480.504	1	5
480.674	1	-5
480.844	1	-2
481.015	1	11
481.185	1	8
481.355	1	9
481.525	1	-8
481.696	1	15
481.866	1	9
482.036	1	14
482.207	1	3
482.377	1	15
482.547	1	6
482.718	1	7
482.888	1	3
483.058	1	11
483.229	1	24
483.399	1	0
483.569	1	-4
483.740	1	7
483.910	1	19
484.080	1	19
484.250	1	4
484.421	1	21
484.591	1	7
484.761	1	2
484.932	1	20
485.102	1	4
485.272	1	5
485.443	1	1
485.613	1	4
485.783	1	12
485.953	1	10
486.124	1	16
486.294	1	11
486.464	1	7
486.635	1	2
486.805	1	17
486.975	1	2
487.146	1	9
487.316	1	-11
487.486	1	3
487.656	1	21
487.827	1	19
487.997	1	12
488.167	1	13
488.338	1	7
488.508	1	-3
488.678	1	6
488.848	1	15
489.019	1	1
489.189	1	-3
489.359	1	-3
489.529	1	3
489.700	1	4
489.870	1	8
490.040	1	-3
490.211	1	7
490.381	1	20
490.551	1	3
490.721	1	7
490.892	1	22
491.062	1	6
491.232	1	10
491.402	1	-1
491.573	1	12
491.743	1	5
491.913	1	15
492.084	1	5
492.254	1	20
492.424	1	0
492.594	1	-1
492.765	1	10
492.935	1	0
493.105	1	1
493.275	1	15
493.446	1	0
493.616	1	1
493.786	1	13
493.956	1	8
494.127	1	11
494.297	1	21
494.467	1	1
494.637	1	5
494.808	1	4
494.978	1	2
495.148	1	17
495.318	1	11
495.489	1	5
495.659	1	0
495.829	1	4
495.999	1	4
496.170	1	8
496.340	1	-1
496.510	1	16
496.680	1	14
496.851	1	27
497.021	1	14
497.191	1	4
497.361	1	15
497.532	1	18
497.702	1	3
497.872	1	10
498.042	1	15
498.213	1	9
498.383	1	12
498.553	1	11
498.723	1	3
498.894	1	10
499.064	1	-2
499.234	1	11
499.404	1	11
499.574	1	4
499.745	1	5
499.915	1	-5
500.085	1	11
500.255	1	9
500.426	1	7
500.596	1	18
500.766	1	6
500.936	1	-2
501.106	1	7
501.277	1	5
501.447	1	2
501.617	1	2
501.787	1	10
501.958	1	-2
502.128	1	-1
502.298	1	5
502.468	1	8
502.638	1	20
502.809	1	13
502.979	1	3
503.149	1	0
503.319	1	12
503.489	1	5
503.660	1	-2
503.830	1	11
504.000	1	5
504.170	1	3
504.340	1	-2
504.511	1	11
504.681	1	5
504.851	1	1
505.021	1	9
505.192	1	5
505.362	1	12
505.532	1	12
505.702	1	0
505.872	1	10
506.043	1	-6
506.213	1	6
506.383	1	8
506.553	1	11
506.723	1	-3
506.893	1	4
507.064	1	9
507.234	1	-6
507.404	1	6
507.574	1	5
507.744	1	7
507.915	1	8
508.085	1	6
508.255	1	0
508.425	1	7
508.595	1	-4
508.766	1	11
508.936	1	5
509.106	1	9
509.276	1	10
509.446	1	-11
509.616	1	18
509.787	1	7
509.957	1	5
510.127	1	10
510.297	1	9
510.467	1	4
510.638	1	-3
510.808	1	-1
510.978	1	18
511.148	1	0
511.318	1	18
511.488	1	8
511.659	1	-6
511.829	1	7
511.999	1	4
512.169	1	-11
512.339	1	2
512.509	1	5
512.680	1	11
512.850	1	6
513.020	1	0
513.190	1	0
513.360	1	8
513.530	1	5
513.700	1	8
513.871	1	8
514.041	1	8
514.211	1	21
514.381	1	2
514.551	1	5
514.721	1	9
514.892	1	7
515.062	1	-3
515.232	1	7
515.402	1	17
515.572	1	3
515.742	1	3
515.912	1	2
516.083	1	5
516.253	1	6
516.423	1	-7
516.593	1	10
516.763	1	13
516.933	1	7
517.104	1	0
517.274	1	5
517.444	1	2
517.614	1	-7
517.784	1	7
517.954	1	4
518.124	1	-7
518.294	1	14
518.465	1	-6
518.635	1	0
518.805	1	13
518.975	1	9
519.145	1	-3
519.315	1	9
519.485	1	-2
519.656	1	13
519.826	1	12
519.996	1	0
520.166	1	3
520.336	1	6
520.506	1	9
520.676	1	8
520.846	1	5
521.017	1	-6
521.187	1	4
521.357	1	5
521.527	1	-7
521.697	1	7
521.867	1	1
522.037	1	5
522.207	1	-1
522.377	1	10
522.548	1	3
522.718	1	2
522.888	1	6
523.058	1	-3
523.228	1	8
523.398	1	-11
523.568	1	-1
523.738	1	6
523.909	1	8
524.079	1	9
524.249	1	-6
524.419	1	1
524.589	1	9
524.759	1	2
524.929	1	6
525.099	1	13
525.269	1	3
525.439	1	6
525.610	1	11
525.780	1	7
525.950	1	-1
526.120	1	9
526.290	1	3
526.460	1	14
526.630	1	8
526.800	1	2
526.970	1	10
527.140	1	8
527.311	1	4
527.481	1	-4
527.651	1	0
527.821	1	-2
527.991	1	16
528.161	1	6
528.331	1	-6
528.501	1	-3
528.671	1	6
528.841	1	10
529.011	1	-3
529.181	1	5
529.352	1	4
529.522	1	-2
529.692	1	4
529.862	1	1
530.032	1	6
530.202	1	10
530.372	1	2
530.542	1	10
530.712	1	4
530.882	1	-1
531.052	1	2
531.222	1	-2
531.392	1	-10
531.563	1	2
531.733	1	11
531.903	1	9
532.073	1	6
532.243	1	10
532.413	1	8
532.583	1	-6
532.753	1	7
532.923	1	6
533.093	1	-13
533.263	1	-3
533.433	1	9
533.603	1	1
533.773	1	5
533.943	1	16
534.113	1	9
534.284	1	-2
534.454	1	6
534.624	1	4
534.794	1	7
534.964	1	8
535.134	1	1
535.304	1	10
535.474	1	-6
535.644	1	9
535.814	1	8
535.984	1	-2
536.154	1	5
536.324	1	-1
536.494	1	14
536.664	1	-4
536.834	1	1
537.004	1	-8
537.174	1	10
537.344	1	15
537.514	1	7
537.685	1	6
537.855	1	2
538.025	1	7
538.195	1	8
538.365	1	-4
538.535	1	0
538.705	1	-3
538.875	1	-1
539.045	1	1
539.215	1	13
539.385	1	-5
539.555	1	3
539.725	1	16
539.895	1	8
540.065	1	2
540.235	1	-1
540.405	1	17
540.575	1	-2
540.745	1	2
540.915	1	8
541.085	1	6
541.255	1	3
541.425	1	-1
541.595	1	-10
541.765	1	2
541.935	1	8
542.105	1	-5
542.275	1	10
542.445	1	1
542.615	1	14
542.785	1	3
542.955	1	0
543.125	1	9
543.295	1	12
543.465	1	2
543.635	1	-8
543.805	1	1
543.975	1	-3
544.145	1	7
544.315	1	1
544.485	1	5
544.655	1	12
544.825	1	1
544.995	1	9
545.165	1	2
545.335	1	-2
545.505	1	6
545.675	1	16
545.845	1	-4
546.015	1	9
546.185	1	-5
546.355	1	1
546.525	1	0
546.695	1	1
546.865	1	-5
547.035	1	2
547.205	1	8
547.375	1	6
547.545	1	-1
547.715	1	3
547.885	1	15
548.055	1	2
548.225	1	5
548.395	1	10
548.565	1	8
548.735	1	-2
548.905	1	-1
549.075	1	0
549.245	1	7
549.415	1	7
549.585	1	4
549.755	1	16
549.925	1	4
550.095	1	5
550.265	1	-4
550.435	1	-7
550.605	1	-1
550.775	1	9
550.945	1	4
551.115	1	5
551.285	1	-2
551.455	1	0
551.625	1	11
551.795	1	9
551.965	1	3
552.135	1	-6
552.305	1	2
552.475	1	11
552.645	1	7
552.815	1	9
552.985	1	-5
553.155	1	11
553.325	1	3
553.495	1	2
553.665	1	1
553.835	1	-6
554.004	1	-1
554.174	1	-2
554.344	1	7
554.514	1	2
554.684	1	-2
554.854	1	-3
555.024	1	7
555.194	1	15
555.364	1	2
555.534	1	13
555.704	1	-3
555.874	1	3
556.044	1	-5
556.214	1	-13
556.384	1	9
556.554	1	-2
556.724	1	-8
556.894	1	1
557.064	1	-4
557.234	1	3
557.404	1	9
557.573	1	-2
557.743	1	4
557.913	1	7
558.083	1	0
558.253	1	-3
558.423	1	-2
558.593	1	6
558.763	1	7
558.933	1	5
559.103	1	4
559.273	1	6
559.443	1	-3
559.613	1	-4
559.783	1	-5
559.953	1	-2
560.122	1	-3
560.292	1	8
560.462	1	5
560.632	1	8
560.802	1	0
560.972	1	11
561.142	1	-2
561.312	1	-3
561.482	1	-3
561.652	1	7
561.822	1	6
561.992	1	5
562.162	1	-3
562.331	1	-4
562.501	1	-5
562.671	1	5
562.841	1	5
563.011	1	11
563.181	1	15
563.351	1	-2
563.521	1	6
563.691	1	-2
563.861	1	5
564.031	1	4
564.201	1	-4
564.370	1	8
564.540	1	12
564.710	1	13
564.880	1	9
565.050	1	-6
565.220	1	-7
565.390	1	2
565.560	1	10
565.730	1	2
565.900	1	-3
566.069	1	9
566.239	1	-12
566.409	1	8
566.579	1	4
566.749	1	12
566.919	1	-1
567.089	1	3
567.259	1	10
567.429	1	3
567.599	1	-1
567.768	1	4
567.938	1	-4
568.108	1	8
568.278	1	-10
568.448	1	15
568.618	1	1
568.788	1	6
568.958	1	11
569.128	1	12
569.297	1	3
569.467	1	6
569.637	1	-2
569.807	1	0
569.977	1	1
570.147	1	0
570.317	1	10
570.487	1	10
570.656	1	6
570.826	1	18
570.996	1	-6
571.166	1	-3
571.336	1	6
571.506	1	12
571.676	1	6
571.846	1	4
572.015	1	2
572.185	1	1
572.355	1	0
572.525	1	7
572.695	1	8
572.865	1	-5
573.035	1	8
573.205	1	-2
573.374	1	10
573.544	1	1
573.714	1	7
573.884	1	12
574.054	1	8
574.224	1	7
574.394	1	4
574.563	1	0
574.733	1	0
574.903	1	7
575.073	1	-9
575.243	1	-2
575.413	1	2
575.583	1	-4
575.752	1	2
575.922	1	6
576.092	1	2
576.262	1	7
576.432	1	8
576.602	1	5
576.772	1	-6
576.941	1	0
577.111	1	6
577.281	1	0
577.451	1	6
577.621	1	-2
577.791	1	3
577.960	1	10
578.130	1	-1
578.300	1	7
578.470	1	-1
578.640	1	9
578.810	1	4
578.979	1	6
579.149	1	-2
579.319	1	-4
579.489	1	-4
579.659	1	-5
579.829	1	-1
579.998	1	6
580.168	1	5
580.338	1	1
580.508	1	-1
580.678	1	-11
580.848	1	6
581.017	1	17
581.187	1	1
581.357	1	-5
581.527	1	-3
581.697	1	4
581.867	1	3
582.036	1	6
582.206	1	8
582.376	1	2
582.546	1	-3
582.716	1	-8
582.885	1	2
583.055	1	2
583.225	1	-7
583.395	1	9
583.565	1	6
583.735	1	1
583.904	1	-3
584.074	1	6
584.244	1	6
584.414	1	4
584.584	1	-8
584.753	1	3
584.923	1	1
585.093	1	6
585.263	1	11
585.433	1	2
585.602	1	2
585.772	1	1
585.942	1	3
586.112	1	2
586.282	1	-2
586.451	1	-8
586.621	1	3
586.791	1	8
586.961	1	0
587.131	1	11
587.300	1	-2
587.470	1	3
587.640	1	-7
587.810	1	-10
587.980	1	8
588.149	1	12
588.319	1	-3
588.489	1	-4
588.659	1	-3
588.829	1	9
588.998	1	11
589.168	1	2
589.338	1	5
589.508	1	5
589.677	1	4
589.847	1	0
590.017	1	0
590.187	1	-8
590.357	1	-6
590.526	1	11
590.696	1	11
590.866	1	13
591.036	1	2
591.205	1	-5
591.375	1	-1
591.545	1	-3
591.715	1	4
591.885	1	7
592.054	1	4
592.224	1	11
592.394	1	-2
592.564	1	0
592.733	1	0
592.903	1	2
593.073	1	1
593.243	1	6
593.412	1	-8
593.582	1	12
593.752	1	6
593.922	1	-1
594.091	1	4
594.261	1	-3
594.431	1	4
594.601	1	4
594.771	1	-4
594.940	1	0
595.110	1	1
595.280	1	-3
595.450	1	3
595.619	1	7
595.789	1	1
595.959	1	3
596.129	1	9
596.298	1	7
596.468	1	4
596.638	1	9
596.808	1	9
596.977	1	6
597.147	1	4
597.317	1	0
597.487	1	4
597.656	1	1
597.826	1	-1
597.996	1	5
598.166	1	0
598.335	1	9
598.505	1	10
598.675	1	0
598.844	1	-2
599.014	1	-1
599.184	1	7
599.354	1	-6
599.523	1	5
599.693	1	11
599.863	1	6
600.033	1	9
600.202	1	-10
600.372	1	7
600.542	1	8
600.712	1	13
600.881	1	7
601.051	1	1
601.221	1	-2
601.390	1	2
601.560	1	0
601.730	1	6
601.900	1	3
602.069	1	0
602.239	1	-3
602.409	1	13
602.578	1	3
602.748	1	11
602.918	1	2
603.088	1	0
603.257	1	2
603.427	1	-4
603.597	1	-2
603.767	1	7
603.936	1	6
604.106	1	6
604.276	1	2
604.445	1	-7
604.615	1	-12
604.785	1	4
604.954	1	6
605.124	1	-9
605.294	1	2
605.464	1	6
605.633	1	10
605.803	1	3
605.973	1	1
606.142	1	5
606.312	1	5
606.482	1	-4
606.652	1	10
606.821	1	9
606.991	1	13
607.161	1	19
607.330	1	-4
607.500	1	9
607.670	1	5
607.839	1	10
608.009	1	-7
608.179	1	-6
608.348	1	18
608.518	1	6
608.688	1	5
608.858	1	-4
609.027	1	8
609.197	1	8
609.367	1	5
609.536	1	-2
609.706	1	-1
609.876	1	-1
610.045	1	-5
610.215	1	2
610.385	1	16
610.554	1	-7
610.724	1	16
610.894	1	8
611.063	1	-9
611.233	1	7
611.403	1	7
611.572	1	7
611.742	1	-3
611.912	1	-6
612.081	1	6
612.251	1	5
612.421	1	-7
612.590	1	3
612.760	1	7
612.930	1	-10
613.099	1	7
613.269	1	13
613.439	1	7
613.608	1	10
613.778	1	0
613.948	1	0
614.117	1	3
614.287	1	-1
614.457	1	-3
614.626	1	2
614.796	1	-2
614.966	1	-2
615.135	1	2
615.305	1	2
615.475	1	1
615.644	1	1
615.814	1	4
615.984	1	2
616.153	1	-2
616.323	1	-1
616.493	1	10
616.662	1	3
616.832	1	8
617.002	1	12
617.171	1	-8
617.341	1	-5
617.511	1	-8
617.680	1	5
617.850	1	7
618.019	1	4
618.189	1	9
618.359	1	0
618.528	1	8
618.698	1	1
618.868	1	11
619.037	1	2
619.207	1	-3
619.377	1	6
619.546	1	2
619.716	1	6
619.885	1	11
620.055	1	6
620.225	1	8
620.394	1	3
620.564	1	11
620.734	1	5
620.903	1	8
621.073	1	4
621.242	1	-12
621.412	1	6
621.582	1	4
621.751	1	-5
621.921	1	0
622.091	1	3
622.260	1	11
622.430	1	3
622.599	1	4
622.769	1	-4
622.939	1	12
623.108	1	5
623.278	1	1
623.448	1	-5
623.617	1	-3
623.787	1	11
623.956	1	-6
624.126	1	13
624.296	1	4
624.465	1	-11
624.635	1	1
624.804	1	5
624.974	1	3
625.144	1	11
625.313	1	-7
625.483	1	-1
625.652	1	8
625.822	1	1
625.992	1	5
626.161	1	-8
626.331	1	5
626.501	1	8
626.670	1	-7
626.840	1	1
627.009	1	4
627.179	1	-1
627.348	1	6
627.518	1	12
627.688	1	2
627.857	1	2
628.027	1	5
628.196	1	13
628.366	1	-3
628.536	1	6
628.705	1	3
628.875	1	3
629.044	1	-2
629.214	1	2
629.384	1	6
629.553	1	8
629.723	1	-5
629.892	1	1
630.062	1	17
630.232	1	-5
630.401	1	0
630.571	1	-1
630.740	1	3
630.910	1	-3
631.079	1	14
631.249	1	-5
631.419	1	9
631.588	1	-9
631.758	1	1
631.927	1	5
632.097	1	9
632.266	1	4
632.436	1	6
632.606	1	10
632.775	1	7
632.945	1	-6
633.114	1	3
633.284	1	-12
633.453	1	1
633.623	1	0
633.793	1	4
633.962	1	-5
634.132	1	8
634.301	1	7
634.471	1	7
634.640	1	13
634.810	1	13
634.979	1	9
635.149	1	8
635.319	1	6
635.488	1	5
635.658	1	-2
635.827	1	7
635.997	1	-5
636.166	1	1
636.336	1	3
636.505	1	9
636.675	1	-5
636.845	1	8
637.014	1	7
637.184	1	-5
637.353	1	2
637.523	1	-5
637.692	1	12
637.862	1	-8
638.031	1	8
638.201	1	6
638.370	1	2
638.540	1	2
638.710	1	11
638.879	1	6
639.049	1	4
639.218	1	-8
639.388	1	5
639.557	1	9
639.727	1	0
639.896	1	13
640.066	1	-1
640.235	1	-2
640.405	1	4
640.574	1	10
640.744	1	4
640.914	1	4
641.083	1	-5
641.253	1	3
641.422	1	8
641.592	1	3
641.761	1	9
641.931	1	2
642.100	1	9
642.270	1	4
642.439	1	3
642.609	1	8
642.778	1	11
642.948	1	-8
643.117	1	11
643.287	1	-3
643.456	1	-5
643.626	1	10
643.795	1	-4
643.965	1	4
644.134	1	6
644.304	1	12
644.473	1	5
644.643	1	-3
644.812	1	7
644.982	1	8
645.151	1	-1
645.321	1	-1
645.490	1	10
645.660	1	1
645.829	1	-5
645.999	1	19
646.168	1	5
646.338	1	3
646.507	1	-11
646.677	1	10
646.846	1	7
647.016	1	3
647.185	1	3
647.355	1	5
647.524	1	-4
647.694	1	3
647.863	1	-4
648.033	1	9
648.202	1	10
648.372	1	-8
648.541	1	6
648.711	1	-1
648.880	1	8
649.050	1	4
649.219	1	5
649.389	1	1
649.558	1	3
649.728	1	-2
649.897	1	2
650.067	1	-4
650.236	1	20
650.406	1	-13
650.575	1	0
650.745	1	-1
650.914	1	5
651.084	1	5
651.253	1	11
651.423	1	0
651.592	1	3
651.762	1	8
651.931	1	8
652.101	1	9
652.270	1	0
652.440	1	-1
652.609	1	7
652.778	1	1
652.948	1	-6
653.117	1	17
653.287	1	6
653.456	1	4
653.626	1	0
653.795	1	3
653.965	1	13
654.134	1	-8
654.304	1	2
654.473	1	9
654.643	1	14
654.812	1	7
654.982	1	6
655.151	1	11
655.320	1	4
655.490	1	-9
655.659	1	3
655.829	1	-11
655.998	1	4
656.168	1	-6
656.337	1	-2
656.507	1	-3
656.676	1	10
656.846	1	-1
657.015	1	17
657.184	1	2
657.354	1	0
657.523	1	3
657.693	1	2
657.862	1	2
658.032	1	3
658.201	1	8
658.371	1	2
658.540	1	19
658.709	1	6
658.879	1	-8
659.048	1	-4
659.218	1	0
659.387	1	7
659.557	1	13
659.726	1	8
659.895	1	-6
660.065	1	2
660.234	1	10
660.404	1	18
660.573	1	8
660.743	1	8
660.912	1	2
661.081	1	-1
661.251	1	2
661.420	1	9
661.590	1	15
661.759	1	5
661.929	1	14
662.098	1	8
662.267	1	8
662.437	1	11
662.606	1	4
662.776	1	-1
662.945	1	14
663.115	1	-15
663.284	1	-1
663.453	1	-2
663.623	1	8
663.792	1	-3
663.962	1	5
664.131	1	0
664.300	1	3
664.470	1	-2
664.639	1	-5
664.809	1	7
664.978	1	6
665.148	1	12
665.317	1	-3
665.486	1	8
665.656	1	-2
665.825	1	6
665.995	1	7
666.164	1	17
666.333	1	-1
666.503	1	13
666.672	1	5
666.842	1	-3
667.011	1	8
667.180	1	6
667.350	1	13
667.519	1	-2
667.689	1	15
667.858	1	19
668.027	1	3
668.197	1	14
668.366	1	17
668.536	1	-5
668.705	1	7
668.874	1	0
669.044	1	7
669.213	1	2
669.382	1	16
669.552	1	5
669.721	1	6
669.891	1	-3
670.060	1	-12
670.229	1	8
670.399	1	12
670.568	1	14
670.738	1	-8
670.907	1	10
671.076	1	6
671.246	1	-2
671.415	1	1
671.584	1	3
671.754	1	14
671.923	1	1
672.093	1	7
672.262	1	4
672.431	1	12
672.601	1	-7
672.770	1	4
672.939	1	3
673.109	1	10
673.278	1	6
673.448	1	-1
673.617	1	5
673.786	1	2
