325.333	1	-2
325.504	1	11
325.675	1	1
325.846	1	-2
326.017	1	3
326.188	1	4
326.359	1	11
326.531	1	-5
326.702	1	8
326.873	1	-1
327.044	1	-1
327.215	1	-2
327.386	1	0
327.557	1	13
327.728	1	-11
327.899	1	7
328.070	1	-1
328.241	1	7
328.412	1	-4
328.583	1	5
328.754	1	-1
328.926	1	5
329.097	1	15
329.268	1	8
329.439	1	-1
329.610	1	3
329.781	1	12
329.952	1	-1
330.123	1	5
330.294	1	10
330.465	1	13
330.636	1	9
330.807	1	4
330.978	1	7
331.149	1	2
331.320	1	-1
331.492	1	9
331.663	1	6
331.834	1	14
332.005	1	8
332.176	1	10
332.347	1	6
332.518	1	-3
332.689	1	11
332.860	1	2
333.031	1	6
333.202	1	6
333.373	1	5
333.544	1	-4
333.715	1	4
333.886	1	12
334.057	1	7
334.228	1	-5
334.399	1	7
334.570	1	9
334.741	1	6
334.912	1	10
335.084	1	5
335.255	1	1
335.426	1	2
335.597	1	5
335.768	1	-4
335.939	1	-5
336.110	1	5
336.281	1	2
336.452	1	13
336.623	1	3
336.794	1	3
336.965	1	6
337.136	1	2
337.307	1	8
337.478	1	4
337.649	1	5
337.820	1	-3
337.991	1	11
338.162	1	4
338.333	1	6
338.504	1	2
338.675	1	12
338.846	1	11
339.017	1	-2
339.188	1	10
339.359	1	4
339.530	1	2
339.701	1	1
339.872	1	5
340.043	1	15
340.214	1	5
340.385	1	8
340.556	1	10
340.727	1	3
340.898	1	2
341.069	1	15
341.240	1	8
341.411	1	2
341.582	1	1
341.753	1	-3
341.924	1	6
342.095	1	6
342.266	1	0
342.437	1	7
342.608	1	-4
342.779	1	-6
342.950	1	11
343.121	1	1
343.292	1	-5
343.463	1	3
343.634	1	17
343.805	1	4
343.976	1	13
344.147	1	-6
344.318	1	9
344.489	1	4
344.660	1	5
344.831	1	7
345.002	1	9
345.173	1	17
345.344	1	-6
345.515	1	5
345.686	1	5
345.857	1	9
346.028	1	17
346.199	1	5
346.370	1	-3
346.541	1	20
346.712	1	-1
346.883	1	10
347.054	1	-3
347.225	1	4
347.396	1	9
347.567	1	8
347.738	1	4
347.909	1	10
348.080	1	-3
348.251	1	3
348.422	1	9
348.593	1	3
348.764	1	2
348.935	1	1
349.106	1	-4
349.277	1	19
349.448	1	10
349.619	1	13
349.790	1	12
349.961	1	4
350.132	1	0
350.303	1	19
350.474	1	7
350.645	1	4
350.816	1	13
350.987	1	1
351.157	1	2
351.328	1	16
351.499	1	9
351.670	1	13
351.841	1	2
352.012	1	5
352.183	1	-7
352.354	1	-1
352.525	1	2
352.696	1	3
352.867	1	10
353.038	1	1
353.209	1	15
353.380	1	12
353.551	1	19
353.722	1	5
353.893	1	5
354.064	1	5
354.235	1	11
354.406	1	3
354.576	1	6
354.747	1	8
354.918	1	19
355.089	1	5
355.260	1	13
355.431	1	14
355.602	1	4
355.773	1	17
355.944	1	7
356.115	1	-1
356.286	1	13
356.457	1	8
356.628	1	16
356.799	1	4
356.970	1	-4
357.141	1	14
357.311	1	15
357.482	1	-1
357.653	1	1
357.824	1	17
357.995	1	15
358.166	1	6
358.337	1	5
358.508	1	5
358.679	1	1
358.850	1	1
359.021	1	1
359.192	1	13
359.363	1	5
359.533	1	5
359.704	1	10
359.875	1	19
360.046	1	11
360.217	1	5
360.388	1	13
360.559	1	8
360.730	1	7
360.901	1	11
361.072	1	8
361.243	1	5
361.414	1	11
361.584	1	4
361.755	1	6
361.926	1	4
362.097	1	13
362.268	1	7
362.439	1	4
362.610	1	7
362.781	1	9
362.952	1	10
363.123	1	20
363.293	1	12
363.464	1	5
363.635	1	8
363.806	1	13
363.977	1	9
364.148	1	4
364.319	1	7
364.490	1	10
364.661	1	8
364.832	1	15
365.002	1	17
365.173	1	8
365.344	1	14
365.515	1	7
365.686	1	8
365.857	1	10
366.028	1	7
366.199	1	8
366.370	1	22
366.540	1	11
366.711	1	8
366.882	1	2
367.053	1	11
367.224	1	7
367.395	1	12
367.566	1	11
367.737	1	11
367.908	1	13
368.078	1	28
368.249	1	3
368.420	1	12
368.591	1	18
368.762	1	6
368.933	1	5
369.104	1	11
369.274	1	9
369.445	1	6
369.616	1	14
369.787	1	12
369.958	1	14
370.129	1	13
370.300	1	10
370.471	1	18
370.641	1	2
370.812	1	3
370.983	1	13
371.154	1	12
371.325	1	19
371.496	1	7
371.667	1	21
371.837	1	16
372.008	1	15
372.179	1	19
372.350	1	16
372.521	1	11
372.692	1	8
372.863	1	14
373.033	1	18
373.204	1	12
373.375	1	5
373.546	1	22
373.717	1	8
373.888	1	8
374.059	1	21
374.229	1	20
374.400	1	7
374.571	1	16
374.742	1	13
374.913	1	1
375.084	1	12
375.254	1	13
375.425	1	2
375.596	1	11
375.767	1	16
375.938	1	16
376.109	1	-5
376.279	1	11
376.450	1	10
376.621	1	22
376.792	1	10
376.963	1	3
377.134	1	16
377.304	1	13
377.475	1	7
377.646	1	9
377.817	1	-2
377.988	1	4
378.159	1	2
378.329	1	4
378.500	1	4
378.671	1	10
378.842	1	1
379.013	1	12
379.184	1	21
379.354	1	-2
379.525	1	14
379.696	1	18
379.867	1	15
380.038	1	-2
380.209	1	7
380.379	1	15
380.550	1	9
380.721	1	15
380.892	1	24
381.063	1	9
381.233	1	4
381.404	1	8
381.575	1	11
381.746	1	7
381.917	1	2
382.087	1	15
382.258	1	4
382.429	1	15
382.600	1	4
382.771	1	19
382.941	1	13
383.112	1	3
383.283	1	15
383.454	1	17
383.625	1	18
383.795	1	9
383.966	1	12
384.137	1	19
384.308	1	16
384.479	1	1
384.649	1	18
384.820	1	13
384.991	1	13
385.162	1	18
385.333	1	25
385.503	1	18
385.674	1	18
385.845	1	18
386.016	1	12
386.187	1	3
386.357	1	11
386.528	1	5
386.699	1	11
386.870	1	14
387.041	1	8
387.211	1	14
387.382	1	17
387.553	1	13
387.724	1	15
387.894	1	13
388.065	1	20
388.236	1	7
388.407	1	10
388.578	1	-2
388.748	1	7
388.919	1	19
389.090	1	12
389.261	1	14
389.431	1	27
389.602	1	9
389.773	1	11
389.944	1	5
390.114	1	12
390.285	1	1
390.456	1	9
390.627	1	13
390.798	1	20
390.968	1	21
391.139	1	18
391.310	1	21
391.481	1	7
391.651	1	19
391.822	1	9
391.993	1	20
392.164	1	-2
392.334	1	12
392.505	1	8
392.676	1	22
392.847	1	16
393.017	1	32
393.188	1	17
393.359	1	26
393.530	1	11
393.700	1	15
393.871	1	12
394.042	1	8
394.213	1	11
394.383	1	17
394.554	1	8
394.725	1	16
394.896	1	15
395.066	1	18
395.237	1	8
395.408	1	21
395.579	1	20
395.749	1	14
395.920	1	15
396.091	1	7
396.262	1	13
396.432	1	8
396.603	1	11
396.774	1	12
396.945	1	13
397.115	1	22
397.286	1	17
397.457	1	15
397.627	1	14
397.798	1	11
397.969	1	8
398.140	1	14
398.310	1	14
398.481	1	25
398.652	1	31
398.823	1	9
398.993	1	21
399.164	1	12
399.335	1	12
399.505	1	17
399.676	1	11
399.847	1	13
400.018	1	11
400.188	1	6
400.359	1	11
400.530	1	5
400.700	1	12
400.871	1	29
401.042	1	14
401.213	1	-6
401.383	1	4
401.554	1	13
401.725	1	12
401.895	1	16
402.066	1	12
402.237	1	18
402.408	1	16
402.578	1	29
402.749	1	15
402.920	1	10
403.090	1	16
403.261	1	20
403.432	1	12
403.603	1	17
403.773	1	25
403.944	1	15
404.115	1	20
404.285	1	6
404.456	1	14
404.627	1	10
404.797	1	4
404.968	1	30
405.139	1	6
405.310	1	16
405.480	1	16
405.651	1	20
405.822	1	20
405.992	1	12
406.163	1	14
406.334	1	5
406.504	1	10
406.675	1	7
406.846	1	15
407.016	1	12
407.187	1	17
407.358	1	6
407.528	1	15
407.699	1	15
407.870	1	14
408.041	1	19
408.211	1	17
408.382	1	9
408.553	1	13
408.723	1	26
408.894	1	14
409.065	1	15
409.235	1	25
409.406	1	10
409.577	1	22
409.747	1	4
409.918	1	12
410.089	1	22
410.259	1	20
410.430	1	13
410.601	1	11
410.771	1	19
410.942	1	17
411.113	1	5
411.283	1	20
411.454	1	15
411.625	1	17
411.795	1	23
411.966	1	19
412.137	1	11
412.307	1	21
412.478	1	25
412.649	1	20
412.819	1	18
412.990	1	22
413.161	1	24
413.331	1	17
413.502	1	16
413.672	1	21
413.843	1	19
414.014	1	26
414.184	1	10
414.355	1	29
414.526	1	19
414.696	1	12
414.867	1	31
415.038	1	11
415.208	1	19
415.379	1	15
415.550	1	16
415.720	1	21
415.891	1	11
416.062	1	10
416.232	1	-1
416.403	1	16
416.573	1	16
416.744	1	23
416.915	1	17
417.085	1	18
417.256	1	19
417.427	1	31
417.597	1	-1
417.768	1	15
417.939	1	23
418.109	1	16
418.280	1	12
418.450	1	19
418.621	1	13
418.792	1	14
418.962	1	13
419.133	1	13
419.304	1	17
419.474	1	17
419.645	1	11
419.815	1	21
419.986	1	5
420.157	1	6
420.327	1	23
420.498	1	15
420.669	1	17
420.839	1	14
421.010	1	16
421.180	1	25
421.351	1	18
421.522	1	10
421.692	1	27
421.863	1	17
422.033	1	24
422.204	1	20
422.375	1	21
422.545	1	20
422.716	1	10
422.886	1	14
423.057	1	4
423.228	1	12
423.398	1	16
423.569	1	16
423.740	1	3
423.910	1	2
424.081	1	14
424.251	1	4
424.422	1	18
424.593	1	20
424.763	1	21
424.934	1	10
425.104	1	15
425.275	1	10
425.445	1	26
425.616	1	10
425.787	1	7
425.957	1	17
426.128	1	1
426.298	1	9
426.469	1	10
426.640	1	23
426.810	1	9
426.981	1	17
427.151	1	22
427.322	1	22
427.493	1	1
427.663	1	15
427.834	1	12
428.004	1	8
428.175	1	10
428.345	1	12
428.516	1	11
428.687	1	15
428.857	1	10
429.028	1	21
429.198	1	5
429.369	1	6
429.540	1	14
429.710	1	8
429.881	1	10
430.051	1	15
430.222	1	7
430.392	1	17
430.563	1	18
430.734	1	10
430.904	1	13
431.075	1	13
431.245	1	11
431.416	1	13
431.586	1	15
431.757	1	15
431.927	1	18
432.098	1	18
432.269	1	3
432.439	1	30
432.610	1	8
432.780	1	19
432.951	1	12
433.121	1	11
433.292	1	6
433.462	1	14
433.633	1	9
433.804	1	26
433.974	1	8
434.145	1	17
434.315	1	14
434.486	1	5
434.656	1	16
434.827	1	17
434.997	1	16
435.168	1	16
435.339	1	15
435.509	1	16
435.680	1	8
435.850	1	4
436.021	1	15
436.191	1	13
436.362	1	13
436.532	1	18
436.703	1	15
436.873	1	20
437.044	1	8
437.214	1	15
437.385	1	24
437.556	1	15
437.726	1	10
437.897	1	0
438.067	1	3
438.238	1	14
438.408	1	13
438.579	1	20
438.749	1	19
438.920	1	15
439.090	1	22
439.261	1	6
439.431	1	16
439.602	1	15
439.772	1	17
439.943	1	15
440.113	1	5
440.284	1	11
440.455	1	15
440.625	1	23
440.796	1	14
440.966	1	5
441.137	1	18
441.307	1	6
441.478	1	9
441.648	1	12
441.819	1	24
441.989	1	13
442.160	1	4
442.330	1	22
442.501	1	18
442.671	1	18
442.842	1	0
443.012	1	17
443.183	1	15
443.353	1	18
443.524	1	-2
443.694	1	13
443.865	1	11
444.035	1	15
444.206	1	9
444.376	1	9
444.547	1	9
444.717	1	11
444.888	1	5
445.058	1	26
445.229	1	9
445.399	1	17
445.570	1	18
445.740	1	14
445.911	1	1
446.081	1	14
446.252	1	6
446.422	1	13
446.593	1	11
446.763	1	26
446.934	1	5
447.104	1	8
447.275	1	14
447.445	1	11
447.616	1	6
447.786	1	8
447.957	1	15
448.127	1	7
448.298	1	11
448.468	1	9
448.639	1	16
448.809	1	10
448.979	1	-1
449.150	1	11
449.320	1	7
449.491	1	2
449.661	1	10
449.832	1	10
450.002	1	8
450.173	1	13
450.343	1	17
450.514	1	17
450.684	1	12
450.855	1	11
451.025	1	8
451.196	1	2
451.366	1	13
451.537	1	13
451.707	1	12
451.878	1	5
452.048	1	10
452.218	1	11
452.389	1	8
452.559	1	15
452.730	1	-1
452.900	1	13
453.071	1	9
453.241	1	-3
453.412	1	11
453.582	1	14
453.753	1	9
453.923	1	12
454.093	1	20
454.264	1	4
454.434	1	18
454.605	1	13
454.775	1	6
454.946	1	2
455.116	1	8
455.287	1	19
455.457	1	16
455.628	1	7
455.798	1	4
455.968	1	19
456.139	1	13
456.309	1	15
456.480	1	3
456.650	1	0
456.821	1	14
456.991	1	12
457.161	1	8
457.332	1	16
457.502	1	15
457.673	1	11
457.843	1	4
458.014	1	7
458.184	1	14
458.355	1	5
458.525	1	3
458.695	1	17
458.866	1	6
459.036	1	19
459.207	1	13
459.377	1	8
459.548	1	17
459.718	1	6
459.888	1	12
460.059	1	21
460.229	1	7
460.400	1	0
460.570	1	14
460.740	1	15
460.911	1	5
461.081	1	3
461.252	1	6
461.422	1	0
461.593	1	3
461.763	1	9
461.933	1	8
462.104	1	22
462.274	1	13
462.445	1	10
462.615	1	10
462.785	1	8
462.956	1	5
463.126	1	5
463.297	1	10
463.467	1	24
463.638	1	15
463.808	1	20
463.978	1	6
464.149	1	14
464.319	1	9
464.490	1	12
464.660	1	12
464.830	1	2
465.001	1	-2
465.171	1	8
465.342	1	13
465.512	1	10
465.682	1	15
465.853	1	14
466.023	1	25
466.194	1	0
466.364	1	10
466.534	1	-6
466.705	1	9
466.875	1	18
467.045	1	15
467.216	1	0
467.386	1	12
467.557	1	19
467.727	1	9
467.897	1	15
468.068	1	9
468.238	1	4
468.409	1	17
468.579	1	14
468.749	1	11
468.920	1	16
469.090	1	4
469.260	1	18
469.431	1	4
469.601	1	8
469.772	1	0
469.942	1	9
470.112	1	8
470.283	1	18
470.453	1	16
470.623	1	8
470.794	1	-3
470.964	1	9
471.135	1	12
471.305	1	9
471.475	1	12
471.646	1	4
471.816	1	16
471.986	1	0
472.157	1	6
472.327	1	10
472.497	1	14
472.668	1	5
472.838	1	11
473.009	1	7
473.179	1	11
473.349	1	-2
473.520	1	-1
473.690	1	12
473.860	1	-1
474.031	1	-1
474.201	1	8
474.371	1	17
474.542	1	9
474.712	1	5
474.882	1	10
475.053	1	3
475.223	1	0
475.394	1	0
475.564	1	3
475.734	1	3
475.905	1	18
476.075	1	8
476.245	1	16
476.416	1	6
476.586	1	3
476.756	1	4
476.927	1	16
477.097	1	13
477.267	1	11
477.438	1	-3
477.608	1	15
477.778	1	18
477.949	1	13
478.119	1	4
478.289	1	0
478.460	1	13
478.630	1	19
478.800	1	18
478.971	1	2
479.141	1	15
479.311	1	12
479.482	1	-11
479.652	1	15
479.822	1	4
479.993	1	14
480.163	1	7
480.333	1	27
480.504	1	5
480.674	1	5
480.844	1	7
481.015	1	4
481.185	1	3
481.355	1	9
481.525	1	-10
481.696	1	3
481.866	1	9
482.036	1	8
482.207	1	15
482.377	1	7
482.547	1	-4
482.718	1	-3
482.888	1	-7
483.058	1	9
483.229	1	14
483.399	1	5
483.569	1	-2
483.740	1	13
483.910	1	6
484.080	1	14
484.250	1	8
484.421	1	22
484.591	1	2
484.761	1	1
484.932	1	20
485.102	1	1
485.272	1	5
485.443	1	2
485.613	1	7
485.783	1	2
485.953	1	8
486.124	1	15
486.294	1	10
486.464	1	7
486.635	1	-5
486.805	1	13
486.975	1	8
487.146	1	3
487.316	1	-6
487.486	1	-6
487.656	1	15
487.827	1	5
487.997	1	14
488.167	1	16
488.338	1	8
488.508	1	4
488.678	1	9
488.848	1	13
489.019	1	-2
489.189	1	0
489.359	1	3
489.529	1	-4
489.700	1	-3
489.870	1	3
490.040	1	-1
490.211	1	2
490.381	1	28
490.551	1	-2
490.721	1	13
490.892	1	18
491.062	1	2
491.232	1	8
491.402	1	0
491.573	1	7
491.743	1	6
491.913	1	11
492.084	1	8
492.254	1	10
492.424	1	-2
492.594	1	-1
492.765	1	11
492.935	1	5
493.105	1	-3
493.275	1	6
493.446	1	8
493.616	1	1
493.786	1	10
493.956	1	-2
494.127	1	8
494.297	1	9
494.467	1	5
494.637	1	8
494.808	1	7
494.978	1	-8
495.148	1	19
495.318	1	11
495.489	1	6
495.659	1	11
495.829	1	19
495.999	1	-1
496.170	1	7
496.340	1	1
496.510	1	11
496.680	1	11
496.851	1	10
497.021	1	9
497.191	1	9
497.361	1	11
497.532	1	10
497.702	1	4
497.872	1	2
498.042	1	18
498.213	1	0
498.383	1	15
498.553	1	8
498.723	1	5
498.894	1	16
499.064	1	-2
499.234	1	12
499.404	1	9
499.574	1	9
499.745	1	9
499.915	1	6
500.085	1	-9
500.255	1	5
500.426	1	-2
500.596	1	13
500.766	1	1
500.936	1	10
501.106	1	14
501.277	1	9
501.447	1	-8
501.617	1	8
501.787	1	15
501.958	1	3
502.128	1	12
502.298	1	10
502.468	1	7
502.638	1	10
502.809	1	12
502.979	1	13
503.149	1	3
503.319	1	9
503.489	1	5
503.660	1	8
503.830	1	5
504.000	1	10
504.170	1	2
504.340	1	9
504.511	1	4
504.681	1	-7
504.851	1	10
505.021	1	6
505.192	1	13
505.362	1	13
505.532	1	13
505.702	1	-2
505.872	1	2
506.043	1	-3
506.213	1	-3
506.383	1	-2
506.553	1	3
506.723	1	14
506.893	1	11
507.064	1	8
507.234	1	0
507.404	1	6
507.574	1	-4
507.744	1	1
507.915	1	9
508.085	1	17
508.255	1	1
508.425	1	7
508.595	1	8
508.766	1	6
508.936	1	1
509.106	1	3
509.276	1	9
509.446	1	-14
509.616	1	6
509.787	1	7
509.957	1	8
510.127	1	8
510.297	1	-1
510.467	1	14
510.638	1	-5
510.808	1	-7
510.978	1	3
511.148	1	-2
511.318	1	18
511.488	1	-1
511.659	1	-3
511.829	1	1
511.999	1	9
512.169	1	4
512.339	1	15
512.509	1	7
512.680	1	2
512.850	1	5
513.020	1	6
513.190	1	9
513.360	1	-4
513.530	1	8
513.700	1	7
513.871	1	10
514.041	1	7
514.211	1	20
514.381	1	-1
514.551	1	10
514.721	1	10
514.892	1	-1
515.062	1	1
515.232	1	0
515.402	1	14
515.572	1	2
515.742	1	0
515.912	1	8
516.083	1	0
516.253	1	5
516.423	1	0
516.593	1	-2
516.763	1	5
516.933	1	1
517.104	1	5
517.274	1	8
517.444	1	8
517.614	1	-4
517.784	1	10
517.954	1	2
518.124	1	-3
518.294	1	10
518.465	1	4
518.635	1	-2
518.805	1	4
518.975	1	6
519.145	1	-1
519.315	1	7
519.485	1	-6
519.656	1	7
519.826	1	1
519.996	1	-5
520.166	1	-1
520.336	1	14
520.506	1	13
520.676	1	1
520.846	1	11
521.017	1	-6
521.187	1	-2
521.357	1	4
521.527	1	5
521.697	1	-2
521.867	1	7
522.037	1	1
522.207	1	-3
522.377	1	-1
522.548	1	7
522.718	1	15
522.888	1	-7
523.058	1	-8
523.228	1	9
523.398	1	-6
523.568	1	-4
523.738	1	3
523.909	1	5
524.079	1	4
524.249	1	-1
524.419	1	5
524.589	1	15
524.759	1	13
524.929	1	1
525.099	1	13
525.269	1	9
525.439	1	-12
525.610	1	7
525.780	1	3
525.950	1	12
526.120	1	13
526.290	1	9
526.460	1	8
526.630	1	2
526.800	1	7
526.970	1	4
527.140	1	12
527.311	1	1
527.481	1	4
527.651	1	2
527.821	1	-6
527.991	1	18
528.161	1	2
528.331	1	-1
528.501	1	2
528.671	1	13
528.841	1	7
529.011	1	-4
529.181	1	11
529.352	1	9
529.522	1	-1
529.692	1	0
529.862	1	2
530.032	1	4
530.202	1	11
530.372	1	2
530.542	1	16
530.712	1	-5
530.882	1	-3
531.052	1	2
531.222	1	8
531.392	1	2
531.563	1	7
531.733	1	8
531.903	1	2
532.073	1	7
532.243	1	5
532.413	1	12
532.583	1	-13
532.753	1	2
532.923	1	14
533.093	1	-1
533.263	1	-3
533.433	1	3
533.603	1	0
533.773	1	3
533.943	1	4
534.113	1	10
534.284	1	9
534.454	1	2
534.624	1	-7
534.794	1	4
534.964	1	12
535.134	1	1
535.304	1	13
535.474	1	-4
535.644	1	15
535.814	1	-5
535.984	1	-4
536.154	1	4
536.324	1	-4
536.494	1	-2
536.664	1	-1
536.834	1	-2
537.004	1	-3
537.174	1	11
537.344	1	11
537.514	1	6
537.685	1	-5
537.855	1	5
538.025	1	4
538.195	1	3
538.365	1	1
538.535	1	5
538.705	1	2
538.875	1	8
539.045	1	0
539.215	1	16
539.385	1	5
539.555	1	7
539.725	1	7
539.895	1	13
540.065	1	-4
540.235	1	-1
540.405	1	10
540.575	1	9
540.745	1	11
540.915	1	1
541.085	1	2
541.255	1	1
541.425	1	-7
541.595	1	-4
541.765	1	14
541.935	1	6
542.105	1	4
542.275	1	7
542.445	1	-5
542.615	1	5
542.785	1	9
542.955	1	-3
543.125	1	-4
543.295	1	3
543.465	1	4
543.635	1	-13
543.805	1	-2
543.975	1	6
544.145	1	13
544.315	1	2
544.485	1	-2
544.655	1	6
544.825	1	3
544.995	1	9
545.165	1	5
545.335	1	0
545.505	1	-2
545.675	1	11
545.845	1	-12
546.015	1	-1
546.185	1	1
546.355	1	-5
546.525	1	6
546.695	1	0
546.865	1	0
547.035	1	-1
547.205	1	6
547.375	1	2
547.545	1	-3
547.715	1	7
547.885	1	7
548.055	1	8
548.225	1	1
548.395	1	13
548.565	1	-14
548.735	1	1
548.905	1	2
549.075	1	12
549.245	1	2
549.415	1	5
549.585	1	2
549.755	1	1
549.925	1	2
550.095	1	4
550.265	1	-6
550.435	1	12
550.605	1	8
550.775	1	9
550.945	1	-5
551.115	1	-11
551.285	1	5
551.455	1	-1
551.625	1	5
551.795	1	2
551.965	1	4
552.135	1	-10
552.305	1	2
552.475	1	11
552.645	1	11
552.815	1	-1
552.985	1	-2
553.155	1	0
553.325	1	1
553.495	1	6
553.665	1	7
553.835	1	-2
554.004	1	0
554.174	1	-2
554.344	1	1
554.514	1	7
554.684	1	0
554.854	1	-6
555.024	1	9
555.194	1	8
555.364	1	9
555.534	1	9
555.704	1	2
555.874	1	1
556.044	1	6
556.214	1	-11
556.384	1	-2
556.554	1	-7
556.724	1	-13
556.894	1	-2
557.064	1	-2
557.234	1	0
557.404	1	6
557.573	1	6
557.743	1	1
557.913	1	-4
558.083	1	0
558.253	1	-5
558.423	1	6
558.593	1	6
558.763	1	12
558.933	1	7
559.103	1	-4
559.273	1	-2
559.443	1	4
559.613	1	-5
559.783	1	3
559.953	1	-1
560.122	1	-3
560.292	1	3
560.462	1	-3
560.632	1	5
560.802	1	-1
560.972	1	7
561.142	1	1
561.312	1	5
561.482	1	12
561.652	1	10
561.822	1	0
561.992	1	3
562.162	1	-4
562.331	1	-6
562.501	1	-4
562.671	1	14
562.841	1	7
563.011	1	14
563.181	1	8
563.351	1	9
563.521	1	3
563.691	1	5
563.861	1	7
564.031	1	4
564.201	1	-10
564.370	1	1
564.540	1	4
564.710	1	7
564.880	1	-2
565.050	1	-5
565.220	1	-5
565.390	1	2
565.560	1	5
565.730	1	0
565.900	1	0
566.069	1	12
566.239	1	3
566.409	1	3
566.579	1	11
566.749	1	3
566.919	1	0
567.089	1	0
567.259	1	11
567.429	1	-4
567.599	1	-7
567.768	1	-8
567.938	1	-9
568.108	1	8
568.278	1	-5
568.448	1	14
568.618	1	4
568.788	1	2
568.958	1	5
569.128	1	4
569.297	1	-5
569.467	1	6
569.637	1	1
569.807	1	-7
569.977	1	-5
570.147	1	-1
570.317	1	13
570.487	1	3
570.656	1	4
570.826	1	3
570.996	1	-4
571.166	1	-4
571.336	1	-2
571.506	1	10
571.676	1	18
571.846	1	1
572.015	1	2
572.185	1	-1
572.355	1	-3
572.525	1	11
572.695	1	-3
572.865	1	-1
573.035	1	3
573.205	1	-15
573.374	1	1
573.544	1	-7
573.714	1	1
573.884	1	15
574.054	1	10
574.224	1	5
574.394	1	-4
574.563	1	4
574.733	1	-5
574.903	1	7
575.073	1	-5
575.243	1	5
575.413	1	-3
575.583	1	1
575.752	1	3
575.922	1	2
576.092	1	1
576.262	1	1
576.432	1	3
576.602	1	-6
576.772	1	-5
576.941	1	7
577.111	1	0
577.281	1	13
577.451	1	13
577.621	1	4
577.791	1	-6
577.960	1	-1
578.130	1	-1
578.300	1	5
578.470	1	5
578.640	1	1
578.810	1	3
578.979	1	1
579.149	1	-5
579.319	1	4
579.489	1	-1
579.659	1	-1
579.829	1	0
579.998	1	-6
580.168	1	4
580.338	1	6
580.508	1	1
580.678	1	-5
580.848	1	1
581.017	1	20
581.187	1	-2
581.357	1	-9
581.527	1	0
581.697	1	4
581.867	1	5
582.036	1	3
582.206	1	-3
582.376	1	-5
582.546	1	0
582.716	1	-8
582.885	1	5
583.055	1	1
583.225	1	-5
583.395	1	7
583.565	1	11
583.735	1	1
583.904	1	6
584.074	1	4
584.244	1	3
584.414	1	5
584.584	1	-5
584.753	1	8
584.923	1	4
585.093	1	0
585.263	1	12
585.433	1	0
585.602	1	2
585.772	1	0
585.942	1	-4
586.112	1	-1
586.282	1	0
586.451	1	-5
586.621	1	12
586.791	1	1
586.961	1	4
587.131	1	3
587.300	1	-8
587.470	1	-5
587.640	1	-4
587.810	1	-4
587.980	1	-3
588.149	1	11
588.319	1	11
588.489	1	2
588.659	1	-7
588.829	1	2
588.998	1	4
589.168	1	0
589.338	1	1
589.508	1	8
589.677	1	4
589.847	1	3
590.017	1	7
590.187	1	-6
590.357	1	3
590.526	1	6
590.696	1	-3
590.866	1	4
591.036	1	-3
591.205	1	-12
591.375	1	7
591.545	1	0
591.715	1	10
591.885	1	3
592.054	1	9
592.224	1	2
592.394	1	6
592.564	1	-10
592.733	1	9
592.903	1	-2
593.073	1	2
593.243	1	14
593.412	1	-4
593.582	1	12
593.752	1	0
593.922	1	0
594.091	1	5
594.261	1	-5
594.431	1	-11
594.601	1	12
594.771	1	-5
594.940	1	6
595.110	1	4
595.280	1	5
595.450	1	3
595.619	1	5
595.789	1	1
595.959	1	-9
596.129	1	8
596.298	1	11
596.468	1	4
596.638	1	16
596.808	1	15
596.977	1	9
597.147	1	15
597.317	1	-2
597.487	1	-7
597.656	1	-8
597.826	1	-3
597.996	1	9
598.166	1	5
598.335	1	5
598.505	1	2
598.675	1	2
598.844	1	4
599.014	1	1
599.184	1	18
599.354	1	4
599.523	1	-2
599.693	1	3
599.863	1	-4
600.033	1	3
600.202	1	-14
600.372	1	-3
600.542	1	7
600.712	1	6
600.881	1	4
601.051	1	1
601.221	1	7
601.390	1	7
601.560	1	-4
601.730	1	5
601.900	1	-1
602.069	1	7
602.239	1	-8
602.409	1	12
602.578	1	-3
602.748	1	0
602.918	1	-9
603.088	1	7
603.257	1	5
603.427	1	11
603.597	1	6
603.767	1	9
603.936	1	3
604.106	1	-4
604.276	1	-5
604.445	1	3
604.615	1	-11
604.785	1	8
604.954	1	15
605.124	1	-7
605.294	1	1
605.464	1	17
605.633	1	11
605.803	1	-3
605.973	1	8
606.142	1	3
606.312	1	-6
606.482	1	-9
606.652	1	9
606.821	1	2
606.991	1	-5
607.161	1	11
607.330	1	-6
607.500	1	-2
607.670	1	3
607.839	1	9
608.009	1	-8
608.179	1	-3
608.348	1	16
608.518	1	1
608.688	1	14
608.858	1	-4
609.027	1	6
609.197	1	7
609.367	1	2
609.536	1	-10
609.706	1	4
609.876	1	-11
610.045	1	-3
610.215	1	3
610.385	1	7
610.554	1	-2
610.724	1	9
610.894	1	2
611.063	1	-2
611.233	1	7
611.403	1	3
611.572	1	2
611.742	1	-4
611.912	1	-6
612.081	1	5
612.251	1	15
612.421	1	7
612.590	1	0
612.760	1	3
612.930	1	1
613.099	1	4
613.269	1	-3
613.439	1	8
613.608	1	8
613.778	1	2
613.948	1	4
614.117	1	6
614.287	1	-2
614.457	1	-1
614.626	1	-5
614.796	1	-2
614.966	1	-4
615.135	1	-8
615.305	1	-2
615.475	1	1
615.644	1	10
615.814	1	-1
615.984	1	3
616.153	1	-2
616.323	1	2
616.493	1	10
616.662	1	10
616.832	1	1
617.002	1	13
617.171	1	-4
617.341	1	2
617.511	1	7
617.680	1	2
617.850	1	7
618.019	1	4
618.189	1	12
618.359	1	1
618.528	1	11
618.698	1	-1
618.868	1	8
619.037	1	-2
619.207	1	9
619.377	1	2
619.546	1	2
619.716	1	3
619.885	1	14
620.055	1	8
620.225	1	9
620.394	1	-3
620.564	1	4
620.734	1	-3
620.903	1	4
621.073	1	9
621.242	1	-10
621.412	1	6
621.582	1	4
621.751	1	0
621.921	1	12
622.091	1	6
622.260	1	9
622.430	1	-1
622.599	1	7
622.769	1	6
622.939	1	12
623.108	1	3
623.278	1	1
623.448	1	3
623.617	1	-1
623.787	1	5
623.956	1	-3
624.126	1	10
624.296	1	2
624.465	1	4
624.635	1	-6
624.804	1	-2
624.974	1	0
625.144	1	12
625.313	1	-2
625.483	1	-1
625.652	1	-2
625.822	1	-1
625.992	1	-2
626.161	1	-5
626.331	1	2
626.501	1	10
626.670	1	-6
626.840	1	-4
627.009	1	2
627.179	1	2
627.348	1	5
627.518	1	6
627.688	1	5
627.857	1	-1
628.027	1	5
628.196	1	4
628.366	1	10
628.536	1	1
628.705	1	7
628.875	1	1
629.044	1	-3
629.214	1	1
629.384	1	0
629.553	1	8
629.723	1	0
629.892	1	-5
630.062	1	8
630.232	1	-9
630.401	1	9
630.571	1	4
630.740	1	8
630.910	1	12
631.079	1	-4
631.249	1	-6
631.419	1	10
631.588	1	-16
631.758	1	-3
631.927	1	0
632.097	1	9
632.266	1	1
632.436	1	-1
632.606	1	7
632.775	1	5
632.945	1	-3
633.114	1	-3
633.284	1	-4
633.453	1	3
633.623	1	-4
633.793	1	-2
633.962	1	-2
634.132	1	13
634.301	1	9
634.471	1	6
634.640	1	9
634.810	1	13
634.979	1	1
635.149	1	5
635.319	1	6
635.488	1	15
635.658	1	-6
635.827	1	7
635.997	1	4
636.166	1	5
636.336	1	10
636.505	1	2
636.675	1	1
636.845	1	8
637.014	1	6
637.184	1	-1
637.353	1	8
637.523	1	6
637.692	1	6
637.862	1	-5
638.031	1	1
638.201	1	4
638.370	1	7
638.540	1	10
638.710	1	13
638.879	1	-6
639.049	1	2
639.218	1	-3
639.388	1	11
639.557	1	-4
639.727	1	-6
639.896	1	-2
640.066	1	4
640.235	1	9
640.405	1	4
640.574	1	7
640.744	1	6
640.914	1	9
641.083	1	-6
641.253	1	1
641.422	1	2
641.592	1	10
641.761	1	7
641.931	1	0
642.100	1	3
642.270	1	3
642.439	1	0
642.609	1	8
642.778	1	8
642.948	1	-8
643.117	1	5
643.287	1	3
643.456	1	-2
643.626	1	9
643.795	1	2
643.965	1	3
644.134	1	4
644.304	1	9
644.473	1	-1
644.643	1	2
644.812	1	5
644.982	1	7
645.151	1	-5
645.321	1	1
645.490	1	6
645.660	1	6
645.829	1	4
645.999	1	10
646.168	1	10
646.338	1	-4
646.507	1	2
646.677	1	17
646.846	1	4
647.016	1	0
647.185	1	-2
647.355	1	7
647.524	1	4
647.694	1	1
647.863	1	-1
648.033	1	4
648.202	1	3
648.372	1	6
648.541	1	3
648.711	1	4
648.880	1	5
649.050	1	9
649.219	1	-1
649.389	1	5
649.558	1	-4
649.728	1	5
649.897	1	-2
650.067	1	0
650.236	1	11
650.406	1	2
650.575	1	5
650.745	1	7
650.914	1	11
651.084	1	-4
651.253	1	3
651.423	1	-6
651.592	1	3
651.762	1	4
651.931	1	9
652.101	1	7
652.270	1	9
652.440	1	11
652.609	1	0
652.778	1	3
652.948	1	-9
653.117	1	16
653.287	1	4
653.456	1	10
653.626	1	6
653.795	1	5
653.965	1	13
654.134	1	-1
654.304	1	-3
654.473	1	7
654.643	1	12
654.812	1	-3
654.982	1	12
655.151	1	9
655.320	1	7
655.490	1	-7
655.659	1	8
655.829	1	-6
655.998	1	-3
656.168	1	-2
656.337	1	7
656.507	1	-10
656.676	1	1
656.846	1	-4
657.015	1	8
657.184	1	-3
657.354	1	13
657.523	1	8
657.693	1	1
657.862	1	2
658.032	1	1
658.201	1	5
658.371	1	-1
658.540	1	16
658.709	1	8
658.879	1	-9
659.048	1	-1
659.218	1	14
659.387	1	7
659.557	1	7
659.726	1	12
659.895	1	-4
660.065	1	-2
660.234	1	-3
660.404	1	18
660.573	1	-2
660.743	1	1
660.912	1	8
661.081	1	5
661.251	1	3
661.420	1	7
661.590	1	3
661.759	1	5
661.929	1	7
662.098	1	3
662.267	1	7
662.437	1	1
662.606	1	-1
662.776	1	6
662.945	1	9
663.115	1	-11
663.284	1	-10
663.453	1	4
663.623	1	4
663.792	1	-8
663.962	1	1
664.131	1	-1
664.300	1	3
664.470	1	-9
664.639	1	5
664.809	1	2
664.978	1	6
665.148	1	6
665.317	1	0
665.486	1	3
665.656	1	5
665.825	1	2
665.995	1	5
666.164	1	9
666.333	1	8
666.503	1	18
666.672	1	10
666.842	1	-7
667.011	1	5
667.180	1	-2
667.350	1	17
667.519	1	-8
667.689	1	16
667.858	1	18
668.027	1	3
668.197	1	3
668.366	1	11
668.536	1	3
668.705	1	5
668.874	1	13
669.044	1	6
669.213	1	0
669.382	1	18
669.552	1	1
669.721	1	5
669.891	1	-2
670.060	1	-1
670.229	1	2
670.399	1	2
670.568	1	11
670.738	1	2
670.907	1	1
671.076	1	12
671.246	1	6
671.415	1	12
671.584	1	-2
671.754	1	0
671.923	1	9
672.093	1	1
672.262	1	-5
672.431	1	13
672.601	1	4
672.770	1	6
672.939	1	-2
673.109	1	-3
673.278	1	14
673.448	1	-9
673.617	1	1
673.786	1	2
