325.333	1	-1
325.504	1	6
325.675	1	3
325.846	1	5
326.017	1	4
326.188	1	4
326.359	1	5
326.531	1	4
326.702	1	5
326.873	1	17
327.044	1	13
327.215	1	-7
327.386	1	-6
327.557	1	10
327.728	1	-5
327.899	1	1
328.070	1	5
328.241	1	15
328.412	1	-4
328.583	1	11
328.754	1	-7
328.926	1	-3
329.097	1	5
329.268	1	4
329.439	1	8
329.610	1	6
329.781	1	20
329.952	1	11
330.123	1	6
330.294	1	5
330.465	1	9
330.636	1	6
330.807	1	-2
330.978	1	23
331.149	1	-1
331.320	1	4
331.492	1	6
331.663	1	9
331.834	1	10
332.005	1	0
332.176	1	1
332.347	1	6
332.518	1	-3
332.689	1	8
332.860	1	-4
333.031	1	17
333.202	1	11
333.373	1	7
333.544	1	-3
333.715	1	8
333.886	1	3
334.057	1	12
334.228	1	7
334.399	1	2
334.570	1	6
334.741	1	21
334.912	1	4
335.084	1	8
335.255	1	6
335.426	1	-2
335.597	1	10
335.768	1	-3
335.939	1	10
336.110	1	6
336.281	1	14
336.452	1	16
336.623	1	10
336.794	1	-3
336.965	1	7
337.136	1	8
337.307	1	13
337.478	1	3
337.649	1	2
337.820	1	-6
337.991	1	16
338.162	1	11
338.333	1	6
338.504	1	-3
338.675	1	-1
338.846	1	9
339.017	1	0
339.188	1	12
339.359	1	5
339.530	1	1
339.701	1	6
339.872	1	8
340.043	1	16
340.214	1	11
340.385	1	10
340.556	1	10
340.727	1	-6
340.898	1	4
341.069	1	9
341.240	1	19
341.411	1	10
341.582	1	19
341.753	1	3
341.924	1	10
342.095	1	9
342.266	1	4
342.437	1	14
342.608	1	-5
342.779	1	8
342.950	1	14
343.121	1	0
343.292	1	5
343.463	1	10
343.634	1	15
343.805	1	9
343.976	1	-2
344.147	1	1
344.318	1	10
344.489	1	17
344.660	1	15
344.831	1	6
345.002	1	12
345.173	1	10
345.344	1	-3
345.515	1	13
345.686	1	0
345.857	1	14
346.028	1	17
346.199	1	13
346.370	1	7
346.541	1	21
346.712	1	6
346.883	1	15
347.054	1	4
347.225	1	7
347.396	1	18
347.567	1	8
347.738	1	3
347.909	1	17
348.080	1	0
348.251	1	8
348.422	1	15
348.593	1	24
348.764	1	14
348.935	1	9
349.106	1	5
349.277	1	18
349.448	1	9
349.619	1	13
349.790	1	20
349.961	1	15
350.132	1	8
350.303	1	16
350.474	1	6
350.645	1	5
350.816	1	17
350.987	1	4
351.157	1	5
351.328	1	16
351.499	1	16
351.670	1	9
351.841	1	9
352.012	1	19
352.183	1	6
352.354	1	7
352.525	1	0
352.696	1	8
352.867	1	8
353.038	1	18
353.209	1	20
353.380	1	18
353.551	1	11
353.722	1	15
353.893	1	1
354.064	1	20
354.235	1	12
354.406	1	-6
354.576	1	6
354.747	1	11
354.918	1	13
355.089	1	11
355.260	1	15
355.431	1	16
355.602	1	29
355.773	1	10
355.944	1	13
356.115	1	8
356.286	1	0
356.457	1	12
356.628	1	21
356.799	1	14
356.970	1	10
357.141	1	16
357.311	1	25
357.482	1	19
357.653	1	11
357.824	1	30
357.995	1	4
358.166	1	12
358.337	1	10
358.508	1	14
358.679	1	3
358.850	1	10
359.021	1	16
359.192	1	11
359.363	1	14
359.533	1	20
359.704	1	15
359.875	1	23
360.046	1	15
360.217	1	10
360.388	1	16
360.559	1	20
360.730	1	8
360.901	1	19
361.072	1	14
361.243	1	6
361.414	1	10
361.584	1	21
361.755	1	16
361.926	1	-1
362.097	1	14
362.268	1	15
362.439	1	17
362.610	1	15
362.781	1	18
362.952	1	18
363.123	1	23
363.293	1	14
363.464	1	19
363.635	1	17
363.806	1	16
363.977	1	7
364.148	1	16
364.319	1	14
364.490	1	8
364.661	1	10
364.832	1	14
365.002	1	21
365.173	1	14
365.344	1	14
365.515	1	13
365.686	1	18
365.857	1	24
366.028	1	8
366.199	1	11
366.370	1	13
366.540	1	25
366.711	1	11
366.882	1	14
367.053	1	15
367.224	1	3
367.395	1	14
367.566	1	18
367.737	1	29
367.908	1	10
368.078	1	36
368.249	1	6
368.420	1	20
368.591	1	23
368.762	1	15
368.933	1	11
369.104	1	26
369.274	1	12
369.445	1	25
369.616	1	23
369.787	1	18
369.958	1	32
370.129	1	15
370.300	1	19
370.471	1	12
370.641	1	13
370.812	1	13
370.983	1	14
371.154	1	19
371.325	1	13
371.496	1	11
371.667	1	22
371.837	1	25
372.008	1	21
372.179	1	16
372.350	1	16
372.521	1	12
372.692	1	17
372.863	1	10
373.033	1	13
373.204	1	15
373.375	1	10
373.546	1	25
373.717	1	8
373.888	1	7
374.059	1	26
374.229	1	24
374.400	1	19
374.571	1	14
374.742	1	16
374.913	1	6
375.084	1	17
375.254	1	23
375.425	1	1
375.596	1	17
375.767	1	17
375.938	1	23
376.109	1	10
376.279	1	20
376.450	1	13
376.621	1	26
376.792	1	15
376.963	1	13
377.134	1	18
377.304	1	9
377.475	1	21
377.646	1	8
377.817	1	10
377.988	1	10
378.159	1	12
378.329	1	16
378.500	1	24
378.671	1	17
378.842	1	11
379.013	1	22
379.184	1	23
379.354	1	12
379.525	1	17
379.696	1	20
379.867	1	18
380.038	1	8
380.209	1	5
380.379	1	20
380.550	1	13
380.721	1	26
380.892	1	32
381.063	1	25
381.233	1	4
381.404	1	30
381.575	1	12
381.746	1	9
381.917	1	23
382.087	1	22
382.258	1	13
382.429	1	15
382.600	1	22
382.771	1	39
382.941	1	18
383.112	1	12
383.283	1	28
383.454	1	14
383.625	1	27
383.795	1	23
383.966	1	14
384.137	1	22
384.308	1	21
384.479	1	27
384.649	1	17
384.820	1	16
384.991	1	17
385.162	1	25
385.333	1	25
385.503	1	11
385.674	1	29
385.845	1	22
386.016	1	19
386.187	1	23
386.357	1	18
386.528	1	21
386.699	1	29
386.870	1	23
387.041	1	18
387.211	1	25
387.382	1	15
387.553	1	18
387.724	1	15
387.894	1	24
388.065	1	18
388.236	1	13
388.407	1	20
388.578	1	21
388.748	1	20
388.919	1	25
389.090	1	24
389.261	1	26
389.431	1	30
389.602	1	24
389.773	1	21
389.944	1	8
390.114	1	20
390.285	1	9
390.456	1	9
390.627	1	27
390.798	1	24
390.968	1	29
391.139	1	19
391.310	1	30
391.481	1	14
391.651	1	20
391.822	1	17
391.993	1	29
392.164	1	15
392.334	1	20
392.505	1	12
392.676	1	26
392.847	1	25
393.017	1	26
393.188	1	18
393.359	1	21
393.530	1	24
393.700	1	23
393.871	1	12
394.042	1	17
394.213	1	23
394.383	1	20
394.554	1	16
394.725	1	22
394.896	1	20
395.066	1	20
395.237	1	17
395.408	1	26
395.579	1	21
395.749	1	32
395.920	1	34
396.091	1	14
396.262	1	23
396.432	1	20
396.603	1	17
396.774	1	12
396.945	1	21
397.115	1	19
397.286	1	30
397.457	1	27
397.627	1	29
397.798	1	27
397.969	1	18
398.140	1	40
398.310	1	30
398.481	1	11
398.652	1	29
398.823	1	33
398.993	1	21
399.164	1	21
399.335	1	24
399.505	1	11
399.676	1	20
399.847	1	28
400.018	1	17
400.188	1	20
400.359	1	27
400.530	1	18
400.700	1	22
400.871	1	33
401.042	1	17
401.213	1	13
401.383	1	18
401.554	1	30
401.725	1	31
401.895	1	30
402.066	1	28
402.237	1	21
402.408	1	28
402.578	1	27
402.749	1	22
402.920	1	17
403.090	1	23
403.261	1	21
403.432	1	14
403.603	1	22
403.773	1	33
403.944	1	16
404.115	1	23
404.285	1	20
404.456	1	30
404.627	1	18
404.797	1	16
404.968	1	41
405.139	1	12
405.310	1	17
405.480	1	28
405.651	1	33
405.822	1	26
405.992	1	35
406.163	1	27
406.334	1	22
406.504	1	16
406.675	1	15
406.846	1	30
407.016	1	17
407.187	1	35
407.358	1	26
407.528	1	14
407.699	1	21
407.870	1	15
408.041	1	31
408.211	1	14
408.382	1	25
408.553	1	18
408.723	1	26
408.894	1	18
409.065	1	25
409.235	1	25
409.406	1	22
409.577	1	33
409.747	1	20
409.918	1	15
410.089	1	36
410.259	1	34
410.430	1	26
410.601	1	31
410.771	1	33
410.942	1	37
411.113	1	17
411.283	1	22
411.454	1	24
411.625	1	27
411.795	1	21
411.966	1	31
412.137	1	35
412.307	1	28
412.478	1	33
412.649	1	32
412.819	1	21
412.990	1	26
413.161	1	30
413.331	1	23
413.502	1	23
413.672	1	26
413.843	1	32
414.014	1	27
414.184	1	26
414.355	1	29
414.526	1	30
414.696	1	26
414.867	1	32
415.038	1	16
415.208	1	23
415.379	1	27
415.550	1	34
415.720	1	17
415.891	1	20
416.062	1	24
416.232	1	19
416.403	1	22
416.573	1	26
416.744	1	21
416.915	1	28
417.085	1	30
417.256	1	38
417.427	1	31
417.597	1	17
417.768	1	23
417.939	1	30
418.109	1	19
418.280	1	16
418.450	1	28
418.621	1	13
418.792	1	22
418.962	1	22
419.133	1	22
419.304	1	21
419.474	1	19
419.645	1	18
419.815	1	41
419.986	1	15
420.157	1	8
420.327	1	23
420.498	1	19
420.669	1	25
420.839	1	25
421.010	1	27
421.180	1	28
421.351	1	18
421.522	1	21
421.692	1	33
421.863	1	25
422.033	1	29
422.204	1	24
422.375	1	29
422.545	1	26
422.716	1	27
422.886	1	24
423.057	1	18
423.228	1	22
423.398	1	27
423.569	1	28
423.740	1	16
423.910	1	14
424.081	1	21
424.251	1	11
424.422	1	21
424.593	1	20
424.763	1	25
424.934	1	19
425.104	1	25
425.275	1	32
425.445	1	29
425.616	1	11
425.787	1	33
425.957	1	23
426.128	1	12
426.298	1	12
426.469	1	16
426.640	1	26
426.810	1	16
426.981	1	23
427.151	1	30
427.322	1	23
427.493	1	13
427.663	1	23
427.834	1	21
428.004	1	24
428.175	1	17
428.345	1	15
428.516	1	29
428.687	1	21
428.857	1	17
429.028	1	11
429.198	1	22
429.369	1	22
429.540	1	17
429.710	1	16
429.881	1	22
430.051	1	32
430.222	1	18
430.392	1	30
430.563	1	20
430.734	1	24
430.904	1	26
431.075	1	16
431.245	1	23
431.416	1	16
431.586	1	14
431.757	1	25
431.927	1	21
432.098	1	25
432.269	1	12
432.439	1	32
432.610	1	22
432.780	1	26
432.951	1	16
433.121	1	16
433.292	1	20
433.462	1	19
433.633	1	21
433.804	1	25
433.974	1	10
434.145	1	18
434.315	1	22
434.486	1	19
434.656	1	21
434.827	1	20
434.997	1	20
435.168	1	18
435.339	1	17
435.509	1	19
435.680	1	15
435.850	1	17
436.021	1	24
436.191	1	24
436.362	1	21
436.532	1	22
436.703	1	16
436.873	1	29
437.044	1	23
437.214	1	27
437.385	1	12
437.556	1	21
437.726	1	14
437.897	1	16
438.067	1	16
438.238	1	12
438.408	1	28
438.579	1	20
438.749	1	26
438.920	1	22
439.090	1	32
439.261	1	19
439.431	1	15
439.602	1	23
439.772	1	10
439.943	1	9
440.113	1	17
440.284	1	14
440.455	1	25
440.625	1	26
440.796	1	30
440.966	1	15
441.137	1	21
441.307	1	19
441.478	1	19
441.648	1	14
441.819	1	22
441.989	1	16
442.160	1	10
442.330	1	20
442.501	1	21
442.671	1	8
442.842	1	5
443.012	1	30
443.183	1	20
443.353	1	20
443.524	1	12
443.694	1	22
443.865	1	13
444.035	1	15
444.206	1	17
444.376	1	24
444.547	1	21
444.717	1	17
444.888	1	28
445.058	1	26
445.229	1	16
445.399	1	31
445.570	1	25
445.740	1	18
445.911	1	5
446.081	1	24
446.252	1	15
446.422	1	19
446.593	1	18
446.763	1	25
446.934	1	10
447.104	1	23
447.275	1	15
447.445	1	8
447.616	1	8
447.786	1	17
447.957	1	26
448.127	1	17
448.298	1	22
448.468	1	22
448.639	1	30
448.809	1	31
448.979	1	15
449.150	1	18
449.320	1	14
449.491	1	13
449.661	1	10
449.832	1	12
450.002	1	12
450.173	1	16
450.343	1	29
450.514	1	16
450.684	1	19
450.855	1	17
451.025	1	17
451.196	1	9
451.366	1	15
451.537	1	13
451.707	1	20
451.878	1	14
452.048	1	15
452.218	1	14
452.389	1	20
452.559	1	21
452.730	1	15
452.900	1	30
453.071	1	12
453.241	1	16
453.412	1	4
453.582	1	14
453.753	1	19
453.923	1	17
454.093	1	26
454.264	1	23
454.434	1	18
454.605	1	16
454.775	1	11
454.946	1	16
455.116	1	14
455.287	1	15
455.457	1	19
455.628	1	17
455.798	1	21
455.968	1	13
456.139	1	19
456.309	1	24
456.480	1	11
456.650	1	13
456.821	1	23
456.991	1	17
457.161	1	18
457.332	1	20
457.502	1	23
457.673	1	18
457.843	1	15
458.014	1	19
458.184	1	28
458.355	1	7
458.525	1	12
458.695	1	15
458.866	1	22
459.036	1	19
459.207	1	20
459.377	1	21
459.548	1	20
459.718	1	12
459.888	1	13
460.059	1	16
460.229	1	16
460.400	1	6
460.570	1	20
460.740	1	21
460.911	1	8
461.081	1	15
461.252	1	14
461.422	1	12
461.593	1	14
461.763	1	12
461.933	1	14
462.104	1	11
462.274	1	5
462.445	1	11
462.615	1	20
462.785	1	19
462.956	1	14
463.126	1	18
463.297	1	27
463.467	1	14
463.638	1	4
463.808	1	17
463.978	1	3
464.149	1	13
464.319	1	10
464.490	1	16
464.660	1	28
464.830	1	10
465.001	1	8
465.171	1	5
465.342	1	13
465.512	1	18
465.682	1	13
465.853	1	22
466.023	1	30
466.194	1	6
466.364	1	14
466.534	1	10
466.705	1	25
466.875	1	17
467.045	1	18
467.216	1	14
467.386	1	13
467.557	1	28
467.727	1	17
467.897	1	26
468.068	1	7
468.238	1	12
468.409	1	21
468.579	1	17
468.749	1	16
468.920	1	23
469.090	1	16
469.260	1	23
469.431	1	10
469.601	1	14
469.772	1	5
469.942	1	21
470.112	1	17
470.283	1	9
470.453	1	9
470.623	1	12
470.794	1	9
470.964	1	17
471.135	1	22
471.305	1	18
471.475	1	19
471.646	1	21
471.816	1	17
471.986	1	17
472.157	1	5
472.327	1	14
472.497	1	21
472.668	1	14
472.838	1	19
473.009	1	12
473.179	1	23
473.349	1	12
473.520	1	6
473.690	1	19
473.860	1	9
474.031	1	7
474.201	1	17
474.371	1	17
474.542	1	22
474.712	1	5
474.882	1	11
475.053	1	10
475.223	1	4
475.394	1	-1
475.564	1	12
475.734	1	11
475.905	1	16
476.075	1	-1
476.245	1	25
476.416	1	21
476.586	1	14
476.756	1	-2
476.927	1	3
477.097	1	21
477.267	1	14
477.438	1	8
477.608	1	16
477.778	1	6
477.949	1	17
478.119	1	11
478.289	1	1
478.460	1	8
478.630	1	16
478.800	1	14
478.971	1	19
479.141	1	6
479.311	1	13
479.482	1	2
479.652	1	20
479.822	1	9
479.993	1	16
480.163	1	13
480.333	1	16
480.504	1	9
480.674	1	5
480.844	1	6
481.015	1	19
481.185	1	8
481.355	1	11
481.525	1	3
481.696	1	12
481.866	1	14
482.036	1	6
482.207	1	2
482.377	1	17
482.547	1	5
482.718	1	3
482.888	1	6
483.058	1	21
483.229	1	20
483.399	1	11
483.569	1	5
483.740	1	3
483.910	1	26
484.080	1	10
484.250	1	13
484.421	1	18
484.591	1	20
484.761	1	21
484.932	1	15
485.102	1	1
485.272	1	-1
485.443	1	12
485.613	1	5
485.783	1	16
485.953	1	-4
486.124	1	20
486.294	1	6
486.464	1	9
486.635	1	8
486.805	1	18
486.975	1	14
487.146	1	9
487.316	1	-4
487.486	1	8
487.656	1	9
487.827	1	9
487.997	1	18
488.167	1	22
488.338	1	14
488.508	1	15
488.678	1	7
488.848	1	10
489.019	1	4
489.189	1	1
489.359	1	8
489.529	1	4
489.700	1	12
489.870	1	6
490.040	1	3
490.211	1	12
490.381	1	26
490.551	1	-4
490.721	1	20
490.892	1	15
491.062	1	7
491.232	1	8
491.402	1	4
491.573	1	14
491.743	1	3
491.913	1	7
492.084	1	17
492.254	1	14
492.424	1	3
492.594	1	-6
492.765	1	10
492.935	1	2
493.105	1	8
493.275	1	13
493.446	1	16
493.616	1	-1
493.786	1	8
493.956	1	10
494.127	1	10
494.297	1	12
494.467	1	7
494.637	1	14
494.808	1	3
494.978	1	2
495.148	1	14
495.318	1	14
495.489	1	10
495.659	1	15
495.829	1	19
495.999	1	9
496.170	1	9
496.340	1	11
496.510	1	25
496.680	1	9
496.851	1	20
497.021	1	9
497.191	1	12
497.361	1	24
497.532	1	8
497.702	1	9
497.872	1	7
498.042	1	13
498.213	1	3
498.383	1	3
498.553	1	8
498.723	1	8
498.894	1	13
499.064	1	-2
499.234	1	13
499.404	1	13
499.574	1	9
499.745	1	-1
499.915	1	-3
500.085	1	0
500.255	1	12
500.426	1	12
500.596	1	12
500.766	1	16
500.936	1	8
501.106	1	5
501.277	1	17
501.447	1	-6
501.617	1	7
501.787	1	16
501.958	1	10
502.128	1	6
502.298	1	7
502.468	1	11
502.638	1	20
502.809	1	17
502.979	1	8
503.149	1	8
503.319	1	12
503.489	1	12
503.660	1	13
503.830	1	3
504.000	1	12
504.170	1	2
504.340	1	-6
504.511	1	12
504.681	1	6
504.851	1	4
505.021	1	9
505.192	1	14
505.362	1	12
505.532	1	8
505.702	1	-3
505.872	1	19
506.043	1	-2
506.213	1	11
506.383	1	1
506.553	1	11
506.723	1	9
506.893	1	-3
507.064	1	10
507.234	1	0
507.404	1	14
507.574	1	3
507.744	1	-3
507.915	1	8
508.085	1	3
508.255	1	-4
508.425	1	10
508.595	1	-3
508.766	1	17
508.936	1	-1
509.106	1	6
509.276	1	18
509.446	1	-7
509.616	1	20
509.787	1	9
509.957	1	10
510.127	1	8
510.297	1	13
510.467	1	14
510.638	1	-5
510.808	1	-4
510.978	1	1
511.148	1	7
511.318	1	17
511.488	1	11
511.659	1	-13
511.829	1	4
511.999	1	4
512.169	1	9
512.339	1	11
512.509	1	10
512.680	1	7
512.850	1	3
513.020	1	4
513.190	1	-1
513.360	1	9
513.530	1	6
513.700	1	18
513.871	1	8
514.041	1	12
514.211	1	18
514.381	1	-4
514.551	1	7
514.721	1	10
514.892	1	3
515.062	1	2
515.232	1	-1
515.402	1	14
515.572	1	4
515.742	1	5
515.912	1	22
516.083	1	2
516.253	1	0
516.423	1	5
516.593	1	12
516.763	1	7
516.933	1	-1
517.104	1	4
517.274	1	10
517.444	1	9
517.614	1	5
517.784	1	8
517.954	1	13
518.124	1	-4
518.294	1	20
518.465	1	7
518.635	1	-3
518.805	1	5
518.975	1	6
519.145	1	2
519.315	1	18
519.485	1	2
519.656	1	13
519.826	1	11
519.996	1	-6
520.166	1	10
520.336	1	10
520.506	1	15
520.676	1	-1
520.846	1	16
521.017	1	-6
521.187	1	7
521.357	1	11
521.527	1	8
521.697	1	4
521.867	1	3
522.037	1	8
522.207	1	11
522.377	1	-3
522.548	1	1
522.718	1	10
522.888	1	-5
523.058	1	-6
523.228	1	5
523.398	1	6
523.568	1	13
523.738	1	3
523.909	1	3
524.079	1	7
524.249	1	-1
524.419	1	-1
524.589	1	14
524.759	1	10
524.929	1	-3
525.099	1	9
525.269	1	9
525.439	1	-4
525.610	1	1
525.780	1	14
525.950	1	10
526.120	1	7
526.290	1	14
526.460	1	9
526.630	1	4
526.800	1	2
526.970	1	5
527.140	1	4
527.311	1	-6
527.481	1	3
527.651	1	5
527.821	1	-3
527.991	1	5
528.161	1	8
528.331	1	4
528.501	1	7
528.671	1	5
528.841	1	9
529.011	1	5
529.181	1	18
529.352	1	3
529.522	1	2
529.692	1	4
529.862	1	7
530.032	1	6
530.202	1	3
530.372	1	1
530.542	1	14
530.712	1	-7
530.882	1	-2
531.052	1	3
531.222	1	2
531.392	1	-3
531.563	1	0
531.733	1	11
531.903	1	0
532.073	1	-2
532.243	1	4
532.413	1	9
532.583	1	0
532.753	1	5
532.923	1	18
533.093	1	-1
533.263	1	-3
533.433	1	1
533.603	1	2
533.773	1	4
533.943	1	14
534.113	1	9
534.284	1	13
534.454	1	7
534.624	1	6
534.794	1	4
534.964	1	7
535.134	1	4
535.304	1	6
535.474	1	-5
535.644	1	21
535.814	1	3
535.984	1	-3
536.154	1	0
536.324	1	3
536.494	1	11
536.664	1	2
536.834	1	6
537.004	1	1
537.174	1	4
537.344	1	11
537.514	1	1
537.685	1	4
537.855	1	5
538.025	1	7
538.195	1	10
538.365	1	9
538.535	1	5
538.705	1	1
538.875	1	9
539.045	1	3
539.215	1	12
539.385	1	-6
539.555	1	0
539.725	1	2
539.895	1	12
540.065	1	9
540.235	1	-2
540.405	1	16
540.575	1	5
540.745	1	-5
540.915	1	3
541.085	1	0
541.255	1	11
541.425	1	1
541.595	1	-7
541.765	1	8
541.935	1	8
542.105	1	1
542.275	1	6
542.445	1	1
542.615	1	13
542.785	1	17
542.955	1	-1
543.125	1	3
543.295	1	21
543.465	1	2
543.635	1	-6
543.805	1	10
543.975	1	0
544.145	1	0
544.315	1	-8
544.485	1	-6
544.655	1	5
544.825	1	6
544.995	1	7
545.165	1	17
545.335	1	0
545.505	1	5
545.675	1	7
545.845	1	0
546.015	1	10
546.185	1	6
546.355	1	1
546.525	1	8
546.695	1	1
546.865	1	-3
547.035	1	2
547.205	1	5
547.375	1	13
547.545	1	4
547.715	1	10
547.885	1	10
548.055	1	6
548.225	1	-5
548.395	1	14
548.565	1	5
548.735	1	6
548.905	1	6
549.075	1	11
549.245	1	9
549.415	1	3
549.585	1	9
549.755	1	10
549.925	1	-2
550.095	1	-6
550.265	1	-11
550.435	1	8
550.605	1	6
550.775	1	7
550.945	1	1
551.115	1	5
551.285	1	-10
551.455	1	0
551.625	1	9
551.795	1	1
551.965	1	-1
552.135	1	-10
552.305	1	3
552.475	1	12
552.645	1	16
552.815	1	4
552.985	1	-4
553.155	1	13
553.325	1	5
553.495	1	5
553.665	1	4
553.835	1	-3
554.004	1	1
554.174	1	-2
554.344	1	1
554.514	1	4
554.684	1	-1
554.854	1	-6
555.024	1	17
555.194	1	13
555.364	1	10
555.534	1	6
555.704	1	1
555.874	1	9
556.044	1	4
556.214	1	-6
556.384	1	5
556.554	1	-5
556.724	1	1
556.894	1	7
557.064	1	-1
557.234	1	-4
557.404	1	8
557.573	1	3
557.743	1	-1
557.913	1	3
558.083	1	-5
558.253	1	2
558.423	1	6
558.593	1	7
558.763	1	12
558.933	1	-2
559.103	1	-6
559.273	1	4
559.443	1	-6
559.613	1	4
559.783	1	5
559.953	1	0
560.122	1	-3
560.292	1	4
560.462	1	2
560.632	1	-1
560.802	1	3
560.972	1	-1
561.142	1	8
561.312	1	5
561.482	1	6
561.652	1	1
561.822	1	8
561.992	1	-1
562.162	1	8
562.331	1	-14
562.501	1	-4
562.671	1	4
562.841	1	12
563.011	1	7
563.181	1	13
563.351	1	2
563.521	1	10
563.691	1	-4
563.861	1	16
564.031	1	2
564.201	1	-2
564.370	1	6
564.540	1	8
564.710	1	9
564.880	1	11
565.050	1	-6
565.220	1	-2
565.390	1	5
565.560	1	10
565.730	1	11
565.900	1	-6
566.069	1	14
566.239	1	2
566.409	1	17
566.579	1	7
566.749	1	8
566.919	1	2
567.089	1	-7
567.259	1	-5
567.429	1	6
567.599	1	2
567.768	1	-5
567.938	1	0
568.108	1	11
568.278	1	5
568.448	1	10
568.618	1	10
568.788	1	-4
568.958	1	13
569.128	1	9
569.297	1	4
569.467	1	1
569.637	1	-4
569.807	1	9
569.977	1	14
570.147	1	-14
570.317	1	15
570.487	1	1
570.656	1	-8
570.826	1	7
570.996	1	-2
571.166	1	-3
571.336	1	4
571.506	1	9
571.676	1	19
571.846	1	-7
572.015	1	-4
572.185	1	7
572.355	1	14
572.525	1	1
572.695	1	6
572.865	1	0
573.035	1	3
573.205	1	2
573.374	1	3
573.544	1	4
573.714	1	16
573.884	1	12
574.054	1	13
574.224	1	14
574.394	1	-5
574.563	1	-4
574.733	1	3
574.903	1	1
575.073	1	1
575.243	1	-5
575.413	1	8
575.583	1	-3
575.752	1	10
575.922	1	8
576.092	1	2
576.262	1	10
576.432	1	-1
576.602	1	-1
576.772	1	-8
576.941	1	6
577.111	1	5
577.281	1	7
577.451	1	16
577.621	1	12
577.791	1	-5
577.960	1	5
578.130	1	-2
578.300	1	4
578.470	1	11
578.640	1	11
578.810	1	6
578.979	1	6
579.149	1	-1
579.319	1	1
579.489	1	-2
579.659	1	-6
579.829	1	0
579.998	1	6
580.168	1	9
580.338	1	5
580.508	1	7
580.678	1	-8
580.848	1	8
581.017	1	29
581.187	1	6
581.357	1	1
581.527	1	0
581.697	1	-1
581.867	1	-2
582.036	1	-2
582.206	1	8
582.376	1	7
582.546	1	3
582.716	1	5
582.885	1	11
583.055	1	6
583.225	1	-4
583.395	1	3
583.565	1	14
583.735	1	-5
583.904	1	6
584.074	1	9
584.244	1	8
584.414	1	4
584.584	1	-9
584.753	1	6
584.923	1	3
585.093	1	1
585.263	1	11
585.433	1	6
585.602	1	-4
585.772	1	11
585.942	1	-8
586.112	1	0
586.282	1	3
586.451	1	-3
586.621	1	9
586.791	1	3
586.961	1	6
587.131	1	13
587.300	1	-13
587.470	1	-8
587.640	1	2
587.810	1	-4
587.980	1	8
588.149	1	8
588.319	1	6
588.489	1	5
588.659	1	-6
588.829	1	11
588.998	1	10
589.168	1	5
589.338	1	13
589.508	1	7
589.677	1	1
589.847	1	5
590.017	1	7
590.187	1	-1
590.357	1	2
590.526	1	11
590.696	1	7
590.866	1	6
591.036	1	1
591.205	1	-4
591.375	1	1
591.545	1	7
591.715	1	19
591.885	1	4
592.054	1	8
592.224	1	8
592.394	1	-6
592.564	1	0
592.733	1	5
592.903	1	1
593.073	1	9
593.243	1	10
593.412	1	-1
593.582	1	8
593.752	1	8
593.922	1	1
594.091	1	13
594.261	1	-1
594.431	1	4
594.601	1	-2
594.771	1	-9
594.940	1	10
595.110	1	6
595.280	1	2
595.450	1	6
595.619	1	1
595.789	1	0
595.959	1	0
596.129	1	8
596.298	1	10
596.468	1	6
596.638	1	8
596.808	1	18
596.977	1	10
597.147	1	5
597.317	1	0
597.487	1	-2
597.656	1	0
597.826	1	-3
597.996	1	2
598.166	1	7
598.335	1	2
598.505	1	2
598.675	1	-1
598.844	1	9
599.014	1	0
599.184	1	16
599.354	1	-2
599.523	1	4
599.693	1	10
599.863	1	0
600.033	1	7
600.202	1	-4
600.372	1	-5
600.542	1	6
600.712	1	4
600.881	1	1
601.051	1	7
601.221	1	-3
601.390	1	8
601.560	1	-10
601.730	1	7
601.900	1	7
602.069	1	7
602.239	1	-15
602.409	1	15
602.578	1	-3
602.748	1	4
602.918	1	3
603.088	1	8
603.257	1	8
603.427	1	-6
603.597	1	0
603.767	1	-3
603.936	1	14
604.106	1	15
604.276	1	7
604.445	1	7
604.615	1	7
604.785	1	-2
604.954	1	4
605.124	1	-10
605.294	1	8
605.464	1	14
605.633	1	7
605.803	1	0
605.973	1	-1
606.142	1	6
606.312	1	-6
606.482	1	-2
606.652	1	18
606.821	1	16
606.991	1	12
607.161	1	16
607.330	1	-6
607.500	1	-3
607.670	1	4
607.839	1	10
608.009	1	-7
608.179	1	2
608.348	1	18
608.518	1	5
608.688	1	5
608.858	1	3
609.027	1	-3
609.197	1	8
609.367	1	-8
609.536	1	-4
609.706	1	1
609.876	1	-3
610.045	1	1
610.215	1	2
610.385	1	14
610.554	1	7
610.724	1	20
610.894	1	11
611.063	1	-4
611.233	1	4
611.403	1	2
611.572	1	7
611.742	1	3
611.912	1	-3
612.081	1	15
612.251	1	12
612.421	1	5
612.590	1	-2
612.760	1	3
612.930	1	-5
613.099	1	10
613.269	1	1
613.439	1	13
613.608	1	16
613.778	1	8
613.948	1	12
614.117	1	-6
614.287	1	2
614.457	1	-7
614.626	1	2
614.796	1	-4
614.966	1	9
615.135	1	4
615.305	1	14
615.475	1	6
615.644	1	6
615.814	1	4
615.984	1	-5
616.153	1	9
616.323	1	-3
616.493	1	5
616.662	1	13
616.832	1	18
617.002	1	16
617.171	1	-4
617.341	1	8
617.511	1	-3
617.680	1	0
617.850	1	-4
618.019	1	10
618.189	1	4
618.359	1	9
618.528	1	13
618.698	1	4
618.868	1	-1
619.037	1	-4
619.207	1	10
619.377	1	7
619.546	1	-3
619.716	1	-3
619.885	1	19
620.055	1	11
620.225	1	14
620.394	1	3
620.564	1	17
620.734	1	-8
620.903	1	6
621.073	1	8
621.242	1	-10
621.412	1	7
621.582	1	4
621.751	1	3
621.921	1	3
622.091	1	0
622.260	1	12
622.430	1	0
622.599	1	2
622.769	1	7
622.939	1	15
623.108	1	11
623.278	1	14
623.448	1	0
623.617	1	6
623.787	1	13
623.956	1	-4
624.126	1	15
624.296	1	11
624.465	1	-5
624.635	1	7
624.804	1	10
624.974	1	7
625.144	1	7
625.313	1	4
625.483	1	-2
625.652	1	3
625.822	1	4
625.992	1	2
626.161	1	-1
626.331	1	-1
626.501	1	4
626.670	1	8
626.840	1	0
627.009	1	-1
627.179	1	8
627.348	1	-4
627.518	1	19
627.688	1	5
627.857	1	-3
628.027	1	3
628.196	1	15
628.366	1	7
628.536	1	-3
628.705	1	1
628.875	1	1
629.044	1	1
629.214	1	6
629.384	1	9
629.553	1	4
629.723	1	7
629.892	1	2
630.062	1	14
630.232	1	4
630.401	1	-2
630.571	1	4
630.740	1	4
630.910	1	5
631.079	1	2
631.249	1	-2
631.419	1	7
631.588	1	-2
631.758	1	-2
631.927	1	5
632.097	1	12
632.266	1	11
632.436	1	1
632.606	1	4
632.775	1	8
632.945	1	-1
633.114	1	6
633.284	1	0
633.453	1	5
633.623	1	9
633.793	1	5
633.962	1	-7
634.132	1	8
634.301	1	16
634.471	1	11
634.640	1	14
634.810	1	7
634.979	1	13
635.149	1	11
635.319	1	2
635.488	1	5
635.658	1	-14
635.827	1	8
635.997	1	1
636.166	1	-1
636.336	1	8
636.505	1	20
636.675	1	4
636.845	1	11
637.014	1	5
637.184	1	6
637.353	1	-2
637.523	1	5
637.692	1	3
637.862	1	8
638.031	1	4
638.201	1	13
638.370	1	7
638.540	1	-1
638.710	1	8
638.879	1	4
639.049	1	1
639.218	1	0
639.388	1	15
639.557	1	13
639.727	1	2
639.896	1	0
640.066	1	3
640.235	1	9
640.405	1	-1
640.574	1	6
640.744	1	11
640.914	1	7
641.083	1	9
641.253	1	-2
641.422	1	9
641.592	1	8
641.761	1	24
641.931	1	-10
642.100	1	4
642.270	1	6
642.439	1	-5
642.609	1	5
642.778	1	12
642.948	1	5
643.117	1	15
643.287	1	-1
643.456	1	-10
643.626	1	10
643.795	1	9
643.965	1	2
644.134	1	16
644.304	1	7
644.473	1	6
644.643	1	-7
644.812	1	10
644.982	1	5
645.151	1	2
645.321	1	-3
645.490	1	10
645.660	1	-5
645.829	1	6
645.999	1	15
646.168	1	6
646.338	1	-1
646.507	1	-3
646.677	1	11
646.846	1	7
647.016	1	9
647.185	1	4
647.355	1	-3
647.524	1	5
647.694	1	2
647.863	1	6
648.033	1	7
648.202	1	5
648.372	1	2
648.541	1	-4
648.711	1	8
648.880	1	16
649.050	1	10
649.219	1	4
649.389	1	11
649.558	1	6
649.728	1	2
649.897	1	-4
650.067	1	-1
650.236	1	7
650.406	1	-5
650.575	1	5
650.745	1	15
650.914	1	4
651.084	1	-4
651.253	1	6
651.423	1	-3
651.592	1	9
651.762	1	5
651.931	1	8
652.101	1	6
652.270	1	-2
652.440	1	8
652.609	1	12
652.778	1	13
652.948	1	-7
653.117	1	8
653.287	1	13
653.456	1	12
653.626	1	13
653.795	1	10
653.965	1	11
654.134	1	10
654.304	1	6
654.473	1	7
654.643	1	1
654.812	1	-2
654.982	1	10
655.151	1	13
655.320	1	1
655.490	1	1
655.659	1	8
655.829	1	-1
655.998	1	8
656.168	1	-2
656.337	1	10
656.507	1	-2
656.676	1	8
656.846	1	5
657.015	1	16
657.184	1	-1
657.354	1	3
657.523	1	4
657.693	1	10
657.862	1	2
658.032	1	2
658.201	1	-9
658.371	1	5
658.540	1	4
658.709	1	5
658.879	1	-10
659.048	1	-11
659.218	1	3
659.387	1	9
659.557	1	-2
659.726	1	7
659.895	1	3
660.065	1	5
660.234	1	5
660.404	1	11
660.573	1	2
660.743	1	11
660.912	1	18
661.081	1	9
661.251	1	1
661.420	1	5
661.590	1	2
661.759	1	-1
661.929	1	18
662.098	1	5
662.267	1	9
662.437	1	12
662.606	1	9
662.776	1	5
662.945	1	11
663.115	1	-10
663.284	1	-2
663.453	1	7
663.623	1	6
663.792	1	7
663.962	1	3
664.131	1	8
664.300	1	2
664.470	1	1
664.639	1	2
664.809	1	13
664.978	1	7
665.148	1	12
665.317	1	-4
665.486	1	3
665.656	1	-1
665.825	1	2
665.995	1	11
666.164	1	9
666.333	1	11
666.503	1	16
666.672	1	12
666.842	1	-1
667.011	1	3
667.180	1	8
667.350	1	11
667.519	1	3
667.689	1	6
667.858	1	9
668.027	1	-1
668.197	1	4
668.366	1	14
668.536	1	3
668.705	1	11
668.874	1	2
669.044	1	8
669.213	1	8
669.382	1	13
669.552	1	7
669.721	1	5
669.891	1	1
670.060	1	-2
670.229	1	10
670.399	1	17
670.568	1	19
670.738	1	4
670.907	1	3
671.076	1	2
671.246	1	-3
671.415	1	5
671.584	1	6
671.754	1	11
671.923	1	9
672.093	1	8
672.262	1	12
672.431	1	13
672.601	1	2
672.770	1	5
672.939	1	2
673.109	1	10
673.278	1	9
673.448	1	3
673.617	1	5
673.786	1	8
