325.333	1	-8
325.504	1	6
325.675	1	-6
325.846	1	1
326.017	1	3
326.188	1	3
326.359	1	9
326.531	1	0
326.702	1	2
326.873	1	1
327.044	1	6
327.215	1	0
327.386	1	-9
327.557	1	13
327.728	1	-8
327.899	1	-8
328.070	1	2
328.241	1	-4
328.412	1	4
328.583	1	5
328.754	1	-2
328.926	1	3
329.097	1	0
329.268	1	2
329.439	1	-2
329.610	1	6
329.781	1	6
329.952	1	-3
330.123	1	-3
330.294	1	3
330.465	1	15
330.636	1	-7
330.807	1	-2
330.978	1	4
331.149	1	3
331.320	1	4
331.492	1	7
331.663	1	3
331.834	1	5
332.005	1	1
332.176	1	8
332.347	1	14
332.518	1	-6
332.689	1	5
332.860	1	-5
333.031	1	3
333.202	1	10
333.373	1	-2
333.544	1	-5
333.715	1	2
333.886	1	0
334.057	1	-1
334.228	1	10
334.399	1	-4
334.570	1	13
334.741	1	-5
334.912	1	10
335.084	1	-2
335.255	1	0
335.426	1	-6
335.597	1	11
335.768	1	-9
335.939	1	-5
336.110	1	1
336.281	1	5
336.452	1	10
336.623	1	3
336.794	1	0
336.965	1	2
337.136	1	-1
337.307	1	5
337.478	1	-1
337.649	1	5
337.820	1	-4
337.991	1	5
338.162	1	4
338.333	1	-6
338.504	1	1
338.675	1	-1
338.846	1	5
339.017	1	7
339.188	1	4
339.359	1	-2
339.530	1	1
339.701	1	0
339.872	1	2
340.043	1	2
340.214	1	6
340.385	1	14
340.556	1	-6
340.727	1	-7
340.898	1	-3
341.069	1	5
341.240	1	13
341.411	1	7
341.582	1	2
341.753	1	1
341.924	1	7
342.095	1	2
342.266	1	-6
342.437	1	9
342.608	1	-4
342.779	1	-2
342.950	1	9
343.121	1	7
343.292	1	0
343.463	1	2
343.634	1	11
343.805	1	-1
343.976	1	-4
344.147	1	7
344.318	1	1
344.489	1	8
344.660	1	5
344.831	1	3
345.002	1	-6
345.173	1	8
345.344	1	-10
345.515	1	-2
345.686	1	0
345.857	1	15
346.028	1	12
346.199	1	9
346.370	1	1
346.541	1	17
346.712	1	-1
346.883	1	14
347.054	1	-4
347.225	1	-3
347.396	1	-3
347.567	1	6
347.738	1	9
347.909	1	3
348.080	1	-7
348.251	1	8
348.422	1	9
348.593	1	5
348.764	1	-5
348.935	1	-6
349.106	1	-4
349.277	1	12
349.448	1	3
349.619	1	13
349.790	1	9
349.961	1	2
350.132	1	5
350.303	1	10
350.474	1	1
350.645	1	-6
350.816	1	14
350.987	1	-7
351.157	1	4
351.328	1	10
351.499	1	3
351.670	1	5
351.841	1	8
352.012	1	10
352.183	1	-6
352.354	1	5
352.525	1	4
352.696	1	0
352.867	1	-1
353.038	1	1
353.209	1	11
353.380	1	11
353.551	1	6
353.722	1	3
353.893	1	-1
354.064	1	6
354.235	1	3
354.406	1	2
354.576	1	4
354.747	1	-2
354.918	1	0
355.089	1	2
355.260	1	7
355.431	1	6
355.602	1	11
355.773	1	6
355.944	1	7
356.115	1	1
356.286	1	7
356.457	1	-6
356.628	1	17
356.799	1	-1
356.970	1	2
357.141	1	4
357.311	1	14
357.482	1	13
357.653	1	-11
357.824	1	11
357.995	1	6
358.166	1	8
358.337	1	3
358.508	1	10
358.679	1	-1
358.850	1	4
359.021	1	6
359.192	1	0
359.363	1	1
359.533	1	7
359.704	1	9
359.875	1	24
360.046	1	4
360.217	1	5
360.388	1	-1
360.559	1	15
360.730	1	4
360.901	1	2
361.072	1	-9
361.243	1	3
361.414	1	5
361.584	1	9
361.755	1	13
361.926	1	3
362.097	1	5
362.268	1	2
362.439	1	-2
362.610	1	5
362.781	1	2
362.952	1	2
363.123	1	13
363.293	1	1
363.464	1	7
363.635	1	7
363.806	1	10
363.977	1	1
364.148	1	-7
364.319	1	5
364.490	1	8
364.661	1	17
364.832	1	10
365.002	1	13
365.173	1	2
365.344	1	-1
365.515	1	13
365.686	1	-1
365.857	1	17
366.028	1	4
366.199	1	12
366.370	1	18
366.540	1	5
366.711	1	5
366.882	1	17
367.053	1	2
367.224	1	-2
367.395	1	9
367.566	1	11
367.737	1	12
367.908	1	8
368.078	1	20
368.249	1	-2
368.420	1	3
368.591	1	13
368.762	1	12
368.933	1	0
369.104	1	11
369.274	1	11
369.445	1	8
369.616	1	19
369.787	1	6
369.958	1	10
370.129	1	9
370.300	1	-4
370.471	1	20
370.641	1	3
370.812	1	-1
370.983	1	-2
371.154	1	15
371.325	1	6
371.496	1	7
371.667	1	9
371.837	1	18
372.008	1	9
372.179	1	4
372.350	1	12
372.521	1	4
372.692	1	9
372.863	1	4
373.033	1	9
373.204	1	0
373.375	1	10
373.546	1	8
373.717	1	1
373.888	1	6
374.059	1	19
374.229	1	19
374.400	1	-4
374.571	1	6
374.742	1	-1
374.913	1	7
375.084	1	6
375.254	1	18
375.425	1	-5
375.596	1	-6
375.767	1	9
375.938	1	6
376.109	1	-9
376.279	1	-2
376.450	1	4
376.621	1	17
376.792	1	4
376.963	1	5
377.134	1	22
377.304	1	1
377.475	1	7
377.646	1	4
377.817	1	-4
377.988	1	7
378.159	1	0
378.329	1	21
378.500	1	5
378.671	1	4
378.842	1	5
379.013	1	16
379.184	1	15
379.354	1	-7
379.525	1	5
379.696	1	0
379.867	1	11
380.038	1	-8
380.209	1	-5
380.379	1	6
380.550	1	2
380.721	1	10
380.892	1	11
381.063	1	6
381.233	1	1
381.404	1	9
381.575	1	18
381.746	1	3
381.917	1	-1
382.087	1	5
382.258	1	8
382.429	1	4
382.600	1	10
382.771	1	7
382.941	1	7
383.112	1	-1
383.283	1	15
383.454	1	0
383.625	1	6
383.795	1	4
383.966	1	1
384.137	1	13
384.308	1	6
384.479	1	1
384.649	1	5
384.820	1	7
384.991	1	8
385.162	1	5
385.333	1	10
385.503	1	18
385.674	1	11
385.845	1	15
386.016	1	12
386.187	1	5
386.357	1	8
386.528	1	0
386.699	1	8
386.870	1	13
387.041	1	8
387.211	1	11
387.382	1	6
387.553	1	3
387.724	1	-7
387.894	1	-1
388.065	1	9
388.236	1	-2
388.407	1	4
388.578	1	5
388.748	1	5
388.919	1	8
389.090	1	12
389.261	1	5
389.431	1	18
389.602	1	2
389.773	1	6
389.944	1	3
390.114	1	16
390.285	1	3
390.456	1	10
390.627	1	-2
390.798	1	12
390.968	1	3
391.139	1	2
391.310	1	13
391.481	1	0
391.651	1	9
391.822	1	7
391.993	1	19
392.164	1	-4
392.334	1	7
392.505	1	-4
392.676	1	12
392.847	1	11
393.017	1	20
393.188	1	9
393.359	1	15
393.530	1	16
393.700	1	15
393.871	1	2
394.042	1	-4
394.213	1	20
394.383	1	16
394.554	1	9
394.725	1	9
394.896	1	11
395.066	1	9
395.237	1	5
395.408	1	0
395.579	1	10
395.749	1	2
395.920	1	3
396.091	1	6
396.262	1	11
396.432	1	9
396.603	1	4
396.774	1	14
396.945	1	16
397.115	1	14
397.286	1	2
397.457	1	12
397.627	1	3
397.798	1	3
397.969	1	-3
398.140	1	13
398.310	1	12
398.481	1	4
398.652	1	23
398.823	1	2
398.993	1	1
399.164	1	9
399.335	1	9
399.505	1	8
399.676	1	-2
399.847	1	12
400.018	1	15
400.188	1	9
400.359	1	12
400.530	1	9
400.700	1	5
400.871	1	18
401.042	1	4
401.213	1	-7
401.383	1	11
401.554	1	14
401.725	1	19
401.895	1	13
402.066	1	19
402.237	1	9
402.408	1	12
402.578	1	11
402.749	1	3
402.920	1	7
403.090	1	4
403.261	1	15
403.432	1	5
403.603	1	5
403.773	1	16
403.944	1	15
404.115	1	12
404.285	1	3
404.456	1	8
404.627	1	0
404.797	1	4
404.968	1	20
405.139	1	7
405.310	1	1
405.480	1	8
405.651	1	11
405.822	1	21
405.992	1	20
406.163	1	2
406.334	1	-4
406.504	1	6
406.675	1	4
406.846	1	5
407.016	1	6
407.187	1	12
407.358	1	11
407.528	1	-5
407.699	1	11
407.870	1	-1
408.041	1	14
408.211	1	0
408.382	1	7
408.553	1	-1
408.723	1	15
408.894	1	22
409.065	1	10
409.235	1	6
409.406	1	10
409.577	1	17
409.747	1	0
409.918	1	2
410.089	1	14
410.259	1	11
410.430	1	5
410.601	1	17
410.771	1	12
410.942	1	17
411.113	1	-5
411.283	1	5
411.454	1	5
411.625	1	5
411.795	1	15
411.966	1	16
412.137	1	9
412.307	1	11
412.478	1	15
412.649	1	9
412.819	1	-4
412.990	1	7
413.161	1	12
413.331	1	7
413.502	1	7
413.672	1	4
413.843	1	16
414.014	1	12
414.184	1	13
414.355	1	14
414.526	1	3
414.696	1	12
414.867	1	10
415.038	1	5
415.208	1	12
415.379	1	12
415.550	1	11
415.720	1	17
415.891	1	8
416.062	1	4
416.232	1	11
416.403	1	9
416.573	1	9
416.744	1	9
416.915	1	9
417.085	1	17
417.256	1	15
417.427	1	15
417.597	1	-2
417.768	1	1
417.939	1	18
418.109	1	5
418.280	1	6
418.450	1	2
418.621	1	9
418.792	1	1
418.962	1	12
419.133	1	7
419.304	1	13
419.474	1	0
419.645	1	6
419.815	1	12
419.986	1	4
420.157	1	-9
420.327	1	8
420.498	1	12
420.669	1	13
420.839	1	-7
421.010	1	20
421.180	1	9
421.351	1	9
421.522	1	3
421.692	1	12
421.863	1	18
422.033	1	20
422.204	1	8
422.375	1	6
422.545	1	11
422.716	1	14
422.886	1	8
423.057	1	6
423.228	1	1
423.398	1	10
423.569	1	5
423.740	1	3
423.910	1	2
424.081	1	8
424.251	1	4
424.422	1	1
424.593	1	4
424.763	1	11
424.934	1	7
425.104	1	7
425.275	1	11
425.445	1	14
425.616	1	5
425.787	1	4
425.957	1	5
426.128	1	1
426.298	1	4
426.469	1	-1
426.640	1	16
426.810	1	5
426.981	1	10
427.151	1	17
427.322	1	17
427.493	1	4
427.663	1	4
427.834	1	11
428.004	1	9
428.175	1	8
428.345	1	1
428.516	1	11
428.687	1	11
428.857	1	1
429.028	1	2
429.198	1	-4
429.369	1	3
429.540	1	9
429.710	1	8
429.881	1	5
430.051	1	3
430.222	1	5
430.392	1	13
430.563	1	15
430.734	1	5
430.904	1	4
431.075	1	7
431.245	1	12
431.416	1	14
431.586	1	3
431.757	1	8
431.927	1	10
432.098	1	7
432.269	1	0
432.439	1	14
432.610	1	12
432.780	1	11
432.951	1	-4
433.121	1	12
433.292	1	6
433.462	1	3
433.633	1	9
433.804	1	17
433.974	1	7
434.145	1	-2
434.315	1	8
434.486	1	6
434.656	1	6
434.827	1	7
434.997	1	11
435.168	1	19
435.339	1	15
435.509	1	14
435.680	1	3
435.850	1	0
436.021	1	10
436.191	1	8
436.362	1	4
436.532	1	12
436.703	1	6
436.873	1	19
437.044	1	4
437.214	1	14
437.385	1	5
437.556	1	0
437.726	1	6
437.897	1	2
438.067	1	6
438.238	1	0
438.408	1	-1
438.579	1	16
438.749	1	10
438.920	1	-2
439.090	1	13
439.261	1	2
439.431	1	13
439.602	1	2
439.772	1	14
439.943	1	8
440.113	1	0
440.284	1	3
440.455	1	17
440.625	1	9
440.796	1	10
440.966	1	3
441.137	1	14
441.307	1	9
441.478	1	8
441.648	1	10
441.819	1	14
441.989	1	5
442.160	1	8
442.330	1	3
442.501	1	11
442.671	1	11
442.842	1	-4
443.012	1	19
443.183	1	6
443.353	1	9
443.524	1	2
443.694	1	2
443.865	1	5
444.035	1	3
444.206	1	6
444.376	1	17
444.547	1	13
444.717	1	13
444.888	1	5
445.058	1	14
445.229	1	13
445.399	1	4
445.570	1	13
445.740	1	11
445.911	1	0
446.081	1	0
446.252	1	17
446.422	1	13
446.593	1	5
446.763	1	14
446.934	1	-4
447.104	1	7
447.275	1	-1
447.445	1	-4
447.616	1	-5
447.786	1	14
447.957	1	13
448.127	1	10
448.298	1	2
448.468	1	0
448.639	1	7
448.809	1	14
448.979	1	7
449.150	1	9
449.320	1	7
449.491	1	3
449.661	1	-3
449.832	1	3
450.002	1	1
450.173	1	8
450.343	1	14
450.514	1	8
450.684	1	13
450.855	1	16
451.025	1	10
451.196	1	2
451.366	1	4
451.537	1	13
451.707	1	10
451.878	1	5
452.048	1	8
452.218	1	3
452.389	1	-2
452.559	1	8
452.730	1	6
452.900	1	4
453.071	1	3
453.241	1	2
453.412	1	-1
453.582	1	6
453.753	1	5
453.923	1	11
454.093	1	5
454.264	1	1
454.434	1	7
454.605	1	17
454.775	1	-5
454.946	1	2
455.116	1	4
455.287	1	-1
455.457	1	12
455.628	1	4
455.798	1	-1
455.968	1	8
456.139	1	4
456.309	1	14
456.480	1	11
456.650	1	4
456.821	1	8
456.991	1	3
457.161	1	3
457.332	1	11
457.502	1	11
457.673	1	7
457.843	1	-1
458.014	1	4
458.184	1	9
458.355	1	-1
458.525	1	11
458.695	1	5
458.866	1	14
459.036	1	11
459.207	1	-1
459.377	1	8
459.548	1	2
459.718	1	-4
459.888	1	13
460.059	1	12
460.229	1	5
460.400	1	-2
460.570	1	11
460.740	1	9
460.911	1	12
461.081	1	4
461.252	1	5
461.422	1	-8
461.593	1	0
461.763	1	12
461.933	1	8
462.104	1	8
462.274	1	10
462.445	1	14
462.615	1	8
462.785	1	-1
462.956	1	5
463.126	1	17
463.297	1	11
463.467	1	5
463.638	1	5
463.808	1	4
463.978	1	2
464.149	1	8
464.319	1	15
464.490	1	6
464.660	1	4
464.830	1	3
465.001	1	2
465.171	1	-7
465.342	1	-3
465.512	1	6
465.682	1	5
465.853	1	17
466.023	1	24
466.194	1	-6
466.364	1	7
466.534	1	-6
466.705	1	9
466.875	1	6
467.045	1	9
467.216	1	3
467.386	1	12
467.557	1	17
467.727	1	12
467.897	1	21
468.068	1	4
468.238	1	0
468.409	1	11
468.579	1	8
468.749	1	-1
468.920	1	14
469.090	1	9
469.260	1	15
469.431	1	-1
469.601	1	4
469.772	1	0
469.942	1	0
470.112	1	-2
470.283	1	12
470.453	1	12
470.623	1	8
470.794	1	4
470.964	1	10
471.135	1	10
471.305	1	4
471.475	1	6
471.646	1	9
471.816	1	8
471.986	1	2
472.157	1	0
472.327	1	6
472.497	1	-1
472.668	1	-1
472.838	1	13
473.009	1	-3
473.179	1	15
473.349	1	0
473.520	1	-12
473.690	1	3
473.860	1	7
474.031	1	4
474.201	1	9
474.371	1	11
474.542	1	11
474.712	1	6
474.882	1	0
475.053	1	-2
475.223	1	4
475.394	1	1
475.564	1	7
475.734	1	3
475.905	1	9
476.075	1	8
476.245	1	9
476.416	1	13
476.586	1	2
476.756	1	-10
476.927	1	3
477.097	1	16
477.267	1	6
477.438	1	6
477.608	1	0
477.778	1	8
477.949	1	16
478.119	1	-4
478.289	1	0
478.460	1	0
478.630	1	13
478.800	1	7
478.971	1	0
479.141	1	6
479.311	1	-2
479.482	1	-2
479.652	1	8
479.822	1	5
479.993	1	9
480.163	1	10
480.333	1	15
480.504	1	2
480.674	1	-8
480.844	1	2
481.015	1	9
481.185	1	9
481.355	1	6
481.525	1	-12
481.696	1	4
481.866	1	3
482.036	1	5
482.207	1	-1
482.377	1	0
482.547	1	-2
482.718	1	-4
482.888	1	-4
483.058	1	10
483.229	1	8
483.399	1	4
483.569	1	-1
483.740	1	7
483.910	1	11
484.080	1	9
484.250	1	1
484.421	1	13
484.591	1	5
484.761	1	-4
484.932	1	17
485.102	1	-7
485.272	1	5
485.443	1	3
485.613	1	0
485.783	1	-7
485.953	1	4
486.124	1	5
486.294	1	6
486.464	1	-1
486.635	1	1
486.805	1	6
486.975	1	4
487.146	1	-4
487.316	1	-1
487.486	1	1
487.656	1	1
487.827	1	2
487.997	1	5
488.167	1	3
488.338	1	12
488.508	1	0
488.678	1	18
488.848	1	3
489.019	1	1
489.189	1	6
489.359	1	2
489.529	1	-5
489.700	1	2
489.870	1	6
490.040	1	-6
490.211	1	8
490.381	1	13
490.551	1	1
490.721	1	14
490.892	1	16
491.062	1	5
491.232	1	-7
491.402	1	-9
491.573	1	8
491.743	1	-3
491.913	1	12
492.084	1	3
492.254	1	13
492.424	1	-3
492.594	1	3
492.765	1	10
492.935	1	-1
493.105	1	-4
493.275	1	10
493.446	1	2
493.616	1	-8
493.786	1	-4
493.956	1	3
494.127	1	5
494.297	1	19
494.467	1	-6
494.637	1	6
494.808	1	3
494.978	1	-6
495.148	1	11
495.318	1	11
495.489	1	3
495.659	1	9
495.829	1	11
495.999	1	-7
496.170	1	0
496.340	1	-1
496.510	1	21
496.680	1	14
496.851	1	10
497.021	1	5
497.191	1	8
497.361	1	4
497.532	1	2
497.702	1	7
497.872	1	2
498.042	1	15
498.213	1	-3
498.383	1	2
498.553	1	4
498.723	1	3
498.894	1	15
499.064	1	-9
499.234	1	14
499.404	1	4
499.574	1	2
499.745	1	1
499.915	1	7
500.085	1	-2
500.255	1	4
500.426	1	-2
500.596	1	9
500.766	1	4
500.936	1	-2
501.106	1	8
501.277	1	8
501.447	1	2
501.617	1	-2
501.787	1	3
501.958	1	-5
502.128	1	-1
502.298	1	9
502.468	1	3
502.638	1	14
502.809	1	13
502.979	1	13
503.149	1	4
503.319	1	9
503.489	1	-1
503.660	1	4
503.830	1	2
504.000	1	-2
504.170	1	-3
504.340	1	-4
504.511	1	18
504.681	1	-4
504.851	1	-2
505.021	1	16
505.192	1	3
505.362	1	6
505.532	1	8
505.702	1	0
505.872	1	8
506.043	1	-8
506.213	1	0
506.383	1	1
506.553	1	6
506.723	1	3
506.893	1	4
507.064	1	10
507.234	1	-2
507.404	1	12
507.574	1	6
507.744	1	-3
507.915	1	-1
508.085	1	2
508.255	1	2
508.425	1	2
508.595	1	1
508.766	1	12
508.936	1	1
509.106	1	8
509.276	1	12
509.446	1	-2
509.616	1	17
509.787	1	0
509.957	1	6
510.127	1	7
510.297	1	8
510.467	1	1
510.638	1	-15
510.808	1	-3
510.978	1	-1
511.148	1	-3
511.318	1	19
511.488	1	-7
511.659	1	-9
511.829	1	-7
511.999	1	5
512.169	1	-4
512.339	1	-2
512.509	1	5
512.680	1	-5
512.850	1	5
513.020	1	4
513.190	1	4
513.360	1	6
513.530	1	6
513.700	1	10
513.871	1	7
514.041	1	5
514.211	1	16
514.381	1	-4
514.551	1	0
514.721	1	5
514.892	1	8
515.062	1	-4
515.232	1	3
515.402	1	11
515.572	1	6
515.742	1	4
515.912	1	5
516.083	1	3
516.253	1	-8
516.423	1	7
516.593	1	-1
516.763	1	6
516.933	1	-1
517.104	1	8
517.274	1	5
517.444	1	1
517.614	1	2
517.784	1	9
517.954	1	6
518.124	1	-4
518.294	1	11
518.465	1	-1
518.635	1	2
518.805	1	8
518.975	1	15
519.145	1	2
519.315	1	0
519.485	1	4
519.656	1	7
519.826	1	0
519.996	1	-3
520.166	1	8
520.336	1	3
520.506	1	12
520.676	1	11
520.846	1	-6
521.017	1	-6
521.187	1	-7
521.357	1	2
521.527	1	-5
521.697	1	0
521.867	1	7
522.037	1	2
522.207	1	1
522.377	1	8
522.548	1	0
522.718	1	3
522.888	1	-7
523.058	1	2
523.228	1	3
523.398	1	0
523.568	1	1
523.738	1	4
523.909	1	5
524.079	1	1
524.249	1	-10
524.419	1	-2
524.589	1	9
524.759	1	2
524.929	1	5
525.099	1	9
525.269	1	-2
525.439	1	-2
525.610	1	4
525.780	1	10
525.950	1	-1
526.120	1	0
526.290	1	7
526.460	1	6
526.630	1	16
526.800	1	6
526.970	1	4
527.140	1	8
527.311	1	-3
527.481	1	-2
527.651	1	-5
527.821	1	-1
527.991	1	6
528.161	1	7
528.331	1	-2
528.501	1	-1
528.671	1	6
528.841	1	6
529.011	1	-1
529.181	1	5
529.352	1	-7
529.522	1	-16
529.692	1	4
529.862	1	0
530.032	1	-1
530.202	1	2
530.372	1	8
530.542	1	4
530.712	1	-4
530.882	1	1
531.052	1	2
531.222	1	-3
531.392	1	2
531.563	1	3
531.733	1	9
531.903	1	1
532.073	1	3
532.243	1	-1
532.413	1	10
532.583	1	-6
532.753	1	6
532.923	1	9
533.093	1	-6
533.263	1	-7
533.433	1	-3
533.603	1	14
533.773	1	8
533.943	1	2
534.113	1	11
534.284	1	4
534.454	1	-2
534.624	1	-5
534.794	1	-7
534.964	1	4
535.134	1	4
535.304	1	8
535.474	1	-8
535.644	1	10
535.814	1	-4
535.984	1	-5
536.154	1	6
536.324	1	6
536.494	1	6
536.664	1	-10
536.834	1	1
537.004	1	-4
537.174	1	2
537.344	1	4
537.514	1	1
537.685	1	7
537.855	1	8
538.025	1	1
538.195	1	0
538.365	1	4
538.535	1	0
538.705	1	-3
538.875	1	6
539.045	1	1
539.215	1	10
539.385	1	-8
539.555	1	-3
539.725	1	1
539.895	1	10
540.065	1	-3
540.235	1	-2
540.405	1	18
540.575	1	8
540.745	1	-3
540.915	1	1
541.085	1	11
541.255	1	6
541.425	1	-7
541.595	1	-9
541.765	1	0
541.935	1	6
542.105	1	-6
542.275	1	5
542.445	1	-1
542.615	1	10
542.785	1	8
542.955	1	5
543.125	1	-8
543.295	1	9
543.465	1	-4
543.635	1	-8
543.805	1	2
543.975	1	5
544.145	1	2
544.315	1	-3
544.485	1	6
544.655	1	5
544.825	1	4
544.995	1	7
545.165	1	11
545.335	1	-8
545.505	1	2
545.675	1	11
545.845	1	-6
546.015	1	-1
546.185	1	-1
546.355	1	-4
546.525	1	7
546.695	1	0
546.865	1	-1
547.035	1	-3
547.205	1	-1
547.375	1	0
547.545	1	-10
547.715	1	4
547.885	1	4
548.055	1	0
548.225	1	-2
548.395	1	17
548.565	1	-4
548.735	1	-1
548.905	1	-4
549.075	1	8
549.245	1	11
549.415	1	4
549.585	1	4
549.755	1	-3
549.925	1	0
550.095	1	1
550.265	1	-2
550.435	1	3
550.605	1	1
550.775	1	8
550.945	1	-1
551.115	1	4
551.285	1	1
551.455	1	2
551.625	1	3
551.795	1	-5
551.965	1	7
552.135	1	-13
552.305	1	1
552.475	1	3
552.645	1	13
552.815	1	-5
552.985	1	-10
553.155	1	-3
553.325	1	-5
553.495	1	4
553.665	1	5
553.835	1	-2
554.004	1	2
554.174	1	-6
554.344	1	9
554.514	1	6
554.684	1	-3
554.854	1	-4
555.024	1	14
555.194	1	2
555.364	1	3
555.534	1	7
555.704	1	-3
555.874	1	4
556.044	1	1
556.214	1	-8
556.384	1	5
556.554	1	-4
556.724	1	-11
556.894	1	5
557.064	1	9
557.234	1	2
557.404	1	19
557.573	1	-6
557.743	1	-1
557.913	1	-8
558.083	1	0
558.253	1	7
558.423	1	-7
558.593	1	6
558.763	1	-5
558.933	1	3
559.103	1	1
559.273	1	8
559.443	1	-2
559.613	1	-1
559.783	1	2
559.953	1	-8
560.122	1	1
560.292	1	4
560.462	1	-4
560.632	1	-4
560.802	1	1
560.972	1	14
561.142	1	-11
561.312	1	4
561.482	1	-8
561.652	1	-1
561.822	1	-2
561.992	1	5
562.162	1	-5
562.331	1	-3
562.501	1	-6
562.671	1	13
562.841	1	9
563.011	1	13
563.181	1	12
563.351	1	-3
563.521	1	8
563.691	1	-12
563.861	1	3
564.031	1	-1
564.201	1	-10
564.370	1	10
564.540	1	7
564.710	1	0
564.880	1	14
565.050	1	-11
565.220	1	-2
565.390	1	5
565.560	1	5
565.730	1	11
565.900	1	-6
566.069	1	10
566.239	1	-9
566.409	1	11
566.579	1	3
566.749	1	17
566.919	1	0
567.089	1	-6
567.259	1	7
567.429	1	2
567.599	1	1
567.768	1	-4
567.938	1	-5
568.108	1	7
568.278	1	3
568.448	1	3
568.618	1	4
568.788	1	6
568.958	1	10
569.128	1	3
569.297	1	5
569.467	1	5
569.637	1	-4
569.807	1	7
569.977	1	6
570.147	1	-7
570.317	1	2
570.487	1	2
570.656	1	3
570.826	1	11
570.996	1	-3
571.166	1	-8
571.336	1	2
571.506	1	4
571.676	1	11
571.846	1	-2
572.015	1	0
572.185	1	-3
572.355	1	-3
572.525	1	-1
572.695	1	2
572.865	1	0
573.035	1	8
573.205	1	-6
573.374	1	-13
573.544	1	1
573.714	1	13
573.884	1	10
574.054	1	2
574.224	1	-4
574.394	1	-11
574.563	1	5
574.733	1	-4
574.903	1	4
575.073	1	5
575.243	1	1
575.413	1	7
575.583	1	7
575.752	1	-1
575.922	1	1
576.092	1	-2
576.262	1	5
576.432	1	15
576.602	1	-3
576.772	1	-11
576.941	1	8
577.111	1	-1
577.281	1	9
577.451	1	5
577.621	1	2
577.791	1	-7
577.960	1	13
578.130	1	-1
578.300	1	6
578.470	1	6
578.640	1	1
578.810	1	7
578.979	1	7
579.149	1	-8
579.319	1	1
579.489	1	-2
579.659	1	0
579.829	1	-3
579.998	1	-9
580.168	1	1
580.338	1	2
580.508	1	6
580.678	1	-12
580.848	1	3
581.017	1	13
581.187	1	-7
581.357	1	-14
581.527	1	2
581.697	1	-1
581.867	1	-13
582.036	1	-1
582.206	1	11
582.376	1	-6
582.546	1	1
582.716	1	-1
582.885	1	2
583.055	1	4
583.225	1	-6
583.395	1	4
583.565	1	9
583.735	1	-3
583.904	1	0
584.074	1	0
584.244	1	6
584.414	1	5
584.584	1	-7
584.753	1	-1
584.923	1	2
585.093	1	-7
585.263	1	11
585.433	1	-3
585.602	1	-1
585.772	1	4
585.942	1	5
586.112	1	-1
586.282	1	-1
586.451	1	-10
586.621	1	1
586.791	1	6
586.961	1	-3
587.131	1	11
587.300	1	-12
587.470	1	-1
587.640	1	-3
587.810	1	-7
587.980	1	16
588.149	1	8
588.319	1	2
588.489	1	7
588.659	1	5
588.829	1	1
588.998	1	7
589.168	1	-12
589.338	1	-1
589.508	1	0
589.677	1	4
589.847	1	-3
590.017	1	8
590.187	1	-7
590.357	1	-4
590.526	1	10
590.696	1	14
590.866	1	6
591.036	1	0
591.205	1	-2
591.375	1	-3
591.545	1	10
591.715	1	6
591.885	1	9
592.054	1	-1
592.224	1	1
592.394	1	5
592.564	1	0
592.733	1	4
592.903	1	3
593.073	1	0
593.243	1	8
593.412	1	-8
593.582	1	6
593.752	1	10
593.922	1	1
594.091	1	6
594.261	1	-4
594.431	1	-2
594.601	1	0
594.771	1	-5
594.940	1	3
595.110	1	7
595.280	1	-5
595.450	1	-1
595.619	1	-6
595.789	1	3
595.959	1	-3
596.129	1	13
596.298	1	13
596.468	1	4
596.638	1	3
596.808	1	6
596.977	1	6
597.147	1	3
597.317	1	5
597.487	1	4
597.656	1	-4
597.826	1	-5
597.996	1	5
598.166	1	3
598.335	1	3
598.505	1	1
598.675	1	5
598.844	1	5
599.014	1	-4
599.184	1	13
599.354	1	-3
599.523	1	5
599.693	1	2
599.863	1	1
600.033	1	-7
600.202	1	-1
600.372	1	-4
600.542	1	3
600.712	1	0
600.881	1	9
601.051	1	7
601.221	1	-7
601.390	1	5
601.560	1	2
601.730	1	0
601.900	1	5
602.069	1	4
602.239	1	-6
602.409	1	5
602.578	1	2
602.748	1	8
602.918	1	-6
603.088	1	0
603.257	1	8
603.427	1	4
603.597	1	-1
603.767	1	3
603.936	1	12
604.106	1	8
604.276	1	-11
604.445	1	-2
604.615	1	0
604.785	1	-8
604.954	1	9
605.124	1	0
605.294	1	0
605.464	1	0
605.633	1	9
605.803	1	5
605.973	1	2
606.142	1	3
606.312	1	-9
606.482	1	-6
606.652	1	9
606.821	1	4
606.991	1	7
607.161	1	10
607.330	1	1
607.500	1	-1
607.670	1	0
607.839	1	7
608.009	1	-9
608.179	1	2
608.348	1	7
608.518	1	-4
608.688	1	4
608.858	1	5
609.027	1	2
609.197	1	9
609.367	1	2
609.536	1	-2
609.706	1	-1
609.876	1	-8
610.045	1	-6
610.215	1	0
610.385	1	12
610.554	1	-5
610.724	1	8
610.894	1	6
611.063	1	-5
611.233	1	10
611.403	1	1
611.572	1	2
611.742	1	-4
611.912	1	-2
612.081	1	7
612.251	1	7
612.421	1	9
612.590	1	0
612.760	1	5
612.930	1	2
613.099	1	12
613.269	1	8
613.439	1	-5
613.608	1	21
613.778	1	-1
613.948	1	11
614.117	1	1
614.287	1	0
614.457	1	-1
614.626	1	-9
614.796	1	0
614.966	1	-8
615.135	1	-1
615.305	1	-1
615.475	1	9
615.644	1	7
615.814	1	-8
615.984	1	-3
616.153	1	0
616.323	1	-13
616.493	1	6
616.662	1	0
616.832	1	6
617.002	1	12
617.171	1	-4
617.341	1	-1
617.511	1	2
617.680	1	8
617.850	1	1
618.019	1	7
618.189	1	3
618.359	1	-3
618.528	1	13
618.698	1	-4
618.868	1	12
619.037	1	6
619.207	1	1
619.377	1	-8
619.546	1	1
619.716	1	3
619.885	1	14
620.055	1	7
620.225	1	5
620.394	1	11
620.564	1	10
620.734	1	6
620.903	1	2
621.073	1	6
621.242	1	-7
621.412	1	3
621.582	1	-2
621.751	1	4
621.921	1	2
622.091	1	9
622.260	1	1
622.430	1	1
622.599	1	8
622.769	1	6
622.939	1	6
623.108	1	7
623.278	1	8
623.448	1	6
623.617	1	3
623.787	1	6
623.956	1	-4
624.126	1	18
624.296	1	5
624.465	1	-1
624.635	1	5
624.804	1	4
624.974	1	5
625.144	1	4
625.313	1	-2
625.483	1	-4
625.652	1	6
625.822	1	-4
625.992	1	13
626.161	1	-9
626.331	1	2
626.501	1	5
626.670	1	-2
626.840	1	-1
627.009	1	1
627.179	1	-3
627.348	1	-3
627.518	1	7
627.688	1	-4
627.857	1	-7
628.027	1	3
628.196	1	8
628.366	1	1
628.536	1	3
628.705	1	0
628.875	1	1
629.044	1	-4
629.214	1	5
629.384	1	5
629.553	1	1
629.723	1	2
629.892	1	1
630.062	1	11
630.232	1	0
630.401	1	-1
630.571	1	2
630.740	1	1
630.910	1	14
631.079	1	2
631.249	1	-9
631.419	1	5
631.588	1	-10
631.758	1	-4
631.927	1	-3
632.097	1	10
632.266	1	0
632.436	1	-5
632.606	1	2
632.775	1	2
632.945	1	-11
633.114	1	-3
633.284	1	3
633.453	1	4
633.623	1	1
633.793	1	5
633.962	1	-3
634.132	1	10
634.301	1	0
634.471	1	6
634.640	1	12
634.810	1	6
634.979	1	11
635.149	1	3
635.319	1	1
635.488	1	8
635.658	1	-8
635.827	1	0
635.997	1	-4
636.166	1	9
636.336	1	-5
636.505	1	12
636.675	1	-1
636.845	1	0
637.014	1	2
637.184	1	1
637.353	1	14
637.523	1	1
637.692	1	-6
637.862	1	-2
638.031	1	8
638.201	1	7
638.370	1	-1
638.540	1	-4
638.710	1	10
638.879	1	8
639.049	1	1
639.218	1	3
639.388	1	6
639.557	1	-2
639.727	1	1
639.896	1	-1
640.066	1	0
640.235	1	2
640.405	1	3
640.574	1	5
640.744	1	5
640.914	1	3
641.083	1	-1
641.253	1	-3
641.422	1	8
641.592	1	-2
641.761	1	14
641.931	1	2
642.100	1	10
642.270	1	5
642.439	1	-1
642.609	1	-1
642.778	1	4
642.948	1	-1
643.117	1	14
643.287	1	-2
643.456	1	-2
643.626	1	-7
643.795	1	-2
643.965	1	0
644.134	1	-8
644.304	1	19
644.473	1	0
644.643	1	-4
644.812	1	5
644.982	1	2
645.151	1	2
645.321	1	-3
645.490	1	11
645.660	1	1
645.829	1	6
645.999	1	24
646.168	1	11
646.338	1	-1
646.507	1	-2
646.677	1	-2
646.846	1	8
647.016	1	0
647.185	1	4
647.355	1	2
647.524	1	-2
647.694	1	10
647.863	1	0
648.033	1	6
648.202	1	0
648.372	1	-1
648.541	1	0
648.711	1	12
648.880	1	12
649.050	1	9
649.219	1	2
649.389	1	8
649.558	1	-1
649.728	1	-3
649.897	1	3
650.067	1	-7
650.236	1	10
650.406	1	-15
650.575	1	4
650.745	1	0
650.914	1	2
651.084	1	-10
651.253	1	7
651.423	1	-9
651.592	1	-2
651.762	1	2
651.931	1	-2
652.101	1	4
652.270	1	-1
652.440	1	6
652.609	1	5
652.778	1	7
652.948	1	-10
653.117	1	18
653.287	1	-2
653.456	1	8
653.626	1	7
653.795	1	5
653.965	1	9
654.134	1	0
654.304	1	11
654.473	1	8
654.643	1	2
654.812	1	1
654.982	1	11
655.151	1	6
655.320	1	0
655.490	1	-3
655.659	1	-1
655.829	1	5
655.998	1	6
656.168	1	3
656.337	1	4
656.507	1	2
656.676	1	-2
656.846	1	-12
657.015	1	12
657.184	1	-2
657.354	1	2
657.523	1	8
657.693	1	4
657.862	1	2
658.032	1	-4
658.201	1	1
658.371	1	8
658.540	1	10
658.709	1	0
658.879	1	-12
659.048	1	5
659.218	1	7
659.387	1	12
659.557	1	3
659.726	1	7
659.895	1	-4
660.065	1	2
660.234	1	7
660.404	1	12
660.573	1	3
660.743	1	4
660.912	1	9
661.081	1	2
661.251	1	1
661.420	1	8
661.590	1	5
661.759	1	-3
661.929	1	11
662.098	1	4
662.267	1	6
662.437	1	3
662.606	1	10
662.776	1	6
662.945	1	11
663.115	1	-9
663.284	1	-15
663.453	1	2
663.623	1	3
663.792	1	-1
663.962	1	2
664.131	1	7
664.300	1	-1
664.470	1	-2
664.639	1	5
664.809	1	-6
664.978	1	3
665.148	1	8
665.317	1	2
665.486	1	2
665.656	1	0
665.825	1	-3
665.995	1	4
666.164	1	10
666.333	1	6
666.503	1	24
666.672	1	4
666.842	1	-9
667.011	1	8
667.180	1	1
667.350	1	13
667.519	1	-8
667.689	1	15
667.858	1	10
668.027	1	3
668.197	1	1
668.366	1	5
668.536	1	2
668.705	1	12
668.874	1	10
669.044	1	-3
669.213	1	1
669.382	1	12
669.552	1	-1
669.721	1	-4
669.891	1	-6
670.060	1	-3
670.229	1	4
670.399	1	2
670.568	1	8
670.738	1	-3
670.907	1	14
671.076	1	6
671.246	1	-8
671.415	1	-1
671.584	1	-5
671.754	1	5
671.923	1	-2
672.093	1	17
672.262	1	-1
672.431	1	10
672.601	1	-3
672.770	1	1
672.939	1	3
673.109	1	0
673.278	1	15
673.448	1	-8
673.617	1	-6
673.786	1	-2
