325.333	1	17
325.504	1	21
325.675	1	10
325.846	1	19
326.017	1	18
326.188	1	27
326.359	1	27
326.531	1	27
326.702	1	26
326.873	1	17
327.044	1	18
327.215	1	19
327.386	1	14
327.557	1	25
327.728	1	7
327.899	1	23
328.070	1	25
328.241	1	20
328.412	1	20
328.583	1	27
328.754	1	13
328.926	1	27
329.097	1	25
329.268	1	15
329.439	1	26
329.610	1	24
329.781	1	25
329.952	1	23
330.123	1	17
330.294	1	16
330.465	1	24
330.636	1	19
330.807	1	18
330.978	1	31
331.149	1	28
331.320	1	25
331.492	1	35
331.663	1	29
331.834	1	30
332.005	1	19
332.176	1	27
332.347	1	35
332.518	1	11
332.689	1	31
332.860	1	23
333.031	1	27
333.202	1	34
333.373	1	35
333.544	1	16
333.715	1	35
333.886	1	28
334.057	1	25
334.228	1	36
334.399	1	24
334.570	1	38
334.741	1	30
334.912	1	41
335.084	1	31
335.255	1	25
335.426	1	33
335.597	1	41
335.768	1	22
335.939	1	23
336.110	1	31
336.281	1	35
336.452	1	24
336.623	1	27
336.794	1	29
336.965	1	27
337.136	1	23
337.307	1	40
337.478	1	31
337.649	1	23
337.820	1	29
337.991	1	41
338.162	1	39
338.333	1	38
338.504	1	26
338.675	1	27
338.846	1	33
339.017	1	34
339.188	1	36
339.359	1	35
339.530	1	27
339.701	1	30
339.872	1	35
340.043	1	39
340.214	1	44
340.385	1	40
340.556	1	40
340.727	1	42
340.898	1	34
341.069	1	36
341.240	1	47
341.411	1	45
341.582	1	51
341.753	1	40
341.924	1	32
342.095	1	42
342.266	1	25
342.437	1	35
342.608	1	34
342.779	1	36
342.950	1	42
343.121	1	48
343.292	1	44
343.463	1	48
343.634	1	46
343.805	1	39
343.976	1	43
344.147	1	42
344.318	1	34
344.489	1	42
344.660	1	48
344.831	1	37
345.002	1	43
345.173	1	48
345.344	1	29
345.515	1	42
345.686	1	43
345.857	1	53
346.028	1	52
346.199	1	49
346.370	1	44
346.541	1	62
346.712	1	47
346.883	1	47
347.054	1	37
347.225	1	48
347.396	1	49
347.567	1	50
347.738	1	54
347.909	1	52
348.080	1	50
348.251	1	38
348.422	1	58
348.593	1	51
348.764	1	51
348.935	1	49
349.106	1	50
349.277	1	55
349.448	1	54
349.619	1	46
349.790	1	54
349.961	1	60
350.132	1	52
350.303	1	61
350.474	1	57
350.645	1	43
350.816	1	59
350.987	1	44
351.157	1	55
351.328	1	54
351.499	1	51
351.670	1	52
351.841	1	47
352.012	1	58
352.183	1	49
352.354	1	54
352.525	1	46
352.696	1	66
352.867	1	52
353.038	1	61
353.209	1	61
353.380	1	51
353.551	1	48
353.722	1	52
353.893	1	56
354.064	1	61
354.235	1	59
354.406	1	59
354.576	1	56
354.747	1	62
354.918	1	72
355.089	1	54
355.260	1	64
355.431	1	64
355.602	1	62
355.773	1	66
355.944	1	62
356.115	1	58
356.286	1	63
356.457	1	66
356.628	1	73
356.799	1	63
356.970	1	70
357.141	1	69
357.311	1	62
357.482	1	54
357.653	1	56
357.824	1	75
357.995	1	64
358.166	1	68
358.337	1	69
358.508	1	58
358.679	1	59
358.850	1	64
359.021	1	70
359.192	1	63
359.363	1	59
359.533	1	69
359.704	1	65
359.875	1	64
360.046	1	66
360.217	1	66
360.388	1	62
360.559	1	70
360.730	1	59
360.901	1	70
361.072	1	64
361.243	1	63
361.414	1	69
361.584	1	63
361.755	1	75
361.926	1	63
362.097	1	71
362.268	1	78
362.439	1	75
362.610	1	73
362.781	1	69
362.952	1	67
363.123	1	81
363.293	1	66
363.464	1	71
363.635	1	70
363.806	1	72
363.977	1	70
364.148	1	53
364.319	1	73
364.490	1	71
364.661	1	74
364.832	1	80
365.002	1	74
365.173	1	68
365.344	1	69
365.515	1	72
365.686	1	69
365.857	1	80
366.028	1	72
366.199	1	78
366.370	1	81
366.540	1	81
366.711	1	71
366.882	1	62
367.053	1	73
367.224	1	66
367.395	1	78
367.566	1	83
367.737	1	70
367.908	1	63
368.078	1	86
368.249	1	69
368.420	1	89
368.591	1	91
368.762	1	64
368.933	1	76
369.104	1	79
369.274	1	65
369.445	1	83
369.616	1	67
369.787	1	75
369.958	1	81
370.129	1	81
370.300	1	62
370.471	1	90
370.641	1	69
370.812	1	72
370.983	1	72
371.154	1	80
371.325	1	82
371.496	1	73
371.667	1	91
371.837	1	83
372.008	1	77
372.179	1	75
372.350	1	76
372.521	1	77
372.692	1	82
372.863	1	73
373.033	1	78
373.204	1	78
373.375	1	70
373.546	1	87
373.717	1	71
373.888	1	68
374.059	1	98
374.229	1	88
374.400	1	80
374.571	1	72
374.742	1	80
374.913	1	72
375.084	1	73
375.254	1	90
375.425	1	69
375.596	1	74
375.767	1	74
375.938	1	77
376.109	1	68
376.279	1	78
376.450	1	73
376.621	1	96
376.792	1	79
376.963	1	77
377.134	1	92
377.304	1	80
377.475	1	82
377.646	1	82
377.817	1	80
377.988	1	60
378.159	1	79
378.329	1	77
378.500	1	82
378.671	1	86
378.842	1	79
379.013	1	77
379.184	1	77
379.354	1	58
379.525	1	93
379.696	1	83
379.867	1	87
380.038	1	75
380.209	1	87
380.379	1	93
380.550	1	88
380.721	1	85
380.892	1	88
381.063	1	78
381.233	1	80
381.404	1	82
381.575	1	97
381.746	1	84
381.917	1	90
382.087	1	94
382.258	1	86
382.429	1	99
382.600	1	100
382.771	1	87
382.941	1	85
383.112	1	92
383.283	1	100
383.454	1	88
383.625	1	95
383.795	1	92
383.966	1	85
384.137	1	99
384.308	1	92
384.479	1	93
384.649	1	95
384.820	1	86
384.991	1	94
385.162	1	90
385.333	1	91
385.503	1	99
385.674	1	77
385.845	1	92
386.016	1	92
386.187	1	92
386.357	1	101
386.528	1	82
386.699	1	84
386.870	1	92
387.041	1	91
387.211	1	83
387.382	1	88
387.553	1	98
387.724	1	89
387.894	1	85
388.065	1	82
388.236	1	90
388.407	1	87
388.578	1	89
388.748	1	103
388.919	1	98
389.090	1	97
389.261	1	103
389.431	1	100
389.602	1	95
389.773	1	111
389.944	1	100
390.114	1	97
390.285	1	89
390.456	1	96
390.627	1	113
390.798	1	104
390.968	1	107
391.139	1	97
391.310	1	117
391.481	1	93
391.651	1	103
391.822	1	103
391.993	1	99
392.164	1	97
392.334	1	109
392.505	1	88
392.676	1	100
392.847	1	96
393.017	1	123
393.188	1	102
393.359	1	109
393.530	1	109
393.700	1	96
393.871	1	92
394.042	1	89
394.213	1	100
394.383	1	109
394.554	1	101
394.725	1	109
394.896	1	101
395.066	1	97
395.237	1	108
395.408	1	103
395.579	1	108
395.749	1	106
395.920	1	113
396.091	1	105
396.262	1	95
396.432	1	93
396.603	1	97
396.774	1	96
396.945	1	105
397.115	1	105
397.286	1	115
397.457	1	111
397.627	1	105
397.798	1	104
397.969	1	96
398.140	1	106
398.310	1	99
398.481	1	105
398.652	1	119
398.823	1	106
398.993	1	100
399.164	1	103
399.335	1	105
399.505	1	105
399.676	1	110
399.847	1	101
400.018	1	104
400.188	1	107
400.359	1	109
400.530	1	110
400.700	1	99
400.871	1	127
401.042	1	103
401.213	1	93
401.383	1	105
401.554	1	105
401.725	1	112
401.895	1	119
402.066	1	114
402.237	1	129
402.408	1	111
402.578	1	120
402.749	1	108
402.920	1	109
403.090	1	108
403.261	1	120
403.432	1	122
403.603	1	110
403.773	1	116
403.944	1	107
404.115	1	115
404.285	1	106
404.456	1	113
404.627	1	106
404.797	1	95
404.968	1	117
405.139	1	116
405.310	1	108
405.480	1	113
405.651	1	125
405.822	1	114
405.992	1	116
406.163	1	133
406.334	1	102
406.504	1	111
406.675	1	114
406.846	1	115
407.016	1	114
407.187	1	113
407.358	1	112
407.528	1	106
407.699	1	111
407.870	1	99
408.041	1	118
408.211	1	104
408.382	1	104
408.553	1	112
408.723	1	129
408.894	1	124
409.065	1	114
409.235	1	110
409.406	1	112
409.577	1	109
409.747	1	106
409.918	1	106
410.089	1	110
410.259	1	114
410.430	1	115
410.601	1	106
410.771	1	107
410.942	1	108
411.113	1	104
411.283	1	112
411.454	1	103
411.625	1	109
411.795	1	122
411.966	1	116
412.137	1	110
412.307	1	112
412.478	1	124
412.649	1	114
412.819	1	106
412.990	1	104
413.161	1	116
413.331	1	105
413.502	1	103
413.672	1	116
413.843	1	105
414.014	1	111
414.184	1	120
414.355	1	124
414.526	1	117
414.696	1	110
414.867	1	114
415.038	1	110
415.208	1	126
415.379	1	108
415.550	1	118
415.720	1	103
415.891	1	109
416.062	1	114
416.232	1	104
416.403	1	107
416.573	1	118
416.744	1	117
416.915	1	119
417.085	1	112
417.256	1	112
417.427	1	119
417.597	1	92
417.768	1	99
417.939	1	120
418.109	1	106
418.280	1	106
418.450	1	102
418.621	1	106
418.792	1	115
418.962	1	105
419.133	1	108
419.304	1	101
419.474	1	110
419.645	1	104
419.815	1	115
419.986	1	105
420.157	1	96
420.327	1	104
420.498	1	98
420.669	1	106
420.839	1	116
421.010	1	116
421.180	1	107
421.351	1	103
421.522	1	95
421.692	1	111
421.863	1	114
422.033	1	116
422.204	1	102
422.375	1	114
422.545	1	112
422.716	1	96
422.886	1	98
423.057	1	98
423.228	1	100
423.398	1	104
423.569	1	108
423.740	1	109
423.910	1	102
424.081	1	97
424.251	1	93
424.422	1	104
424.593	1	86
424.763	1	109
424.934	1	106
425.104	1	103
425.275	1	106
425.445	1	112
425.616	1	95
425.787	1	96
425.957	1	107
426.128	1	91
426.298	1	96
426.469	1	97
426.640	1	114
426.810	1	101
426.981	1	101
427.151	1	117
427.322	1	105
427.493	1	103
427.663	1	101
427.834	1	105
428.004	1	100
428.175	1	98
428.345	1	96
428.516	1	107
428.687	1	94
428.857	1	96
429.028	1	95
429.198	1	91
429.369	1	110
429.540	1	104
429.710	1	92
429.881	1	91
430.051	1	99
430.222	1	78
430.392	1	100
430.563	1	112
430.734	1	93
430.904	1	107
431.075	1	102
431.245	1	99
431.416	1	113
431.586	1	89
431.757	1	110
431.927	1	94
432.098	1	98
432.269	1	97
432.439	1	110
432.610	1	95
432.780	1	92
432.951	1	88
433.121	1	89
433.292	1	89
433.462	1	79
433.633	1	93
433.804	1	107
433.974	1	97
434.145	1	94
434.315	1	87
434.486	1	97
434.656	1	90
434.827	1	105
434.997	1	98
435.168	1	92
435.339	1	94
435.509	1	95
435.680	1	100
435.850	1	97
436.021	1	105
436.191	1	97
436.362	1	82
436.532	1	103
436.703	1	104
436.873	1	102
437.044	1	95
437.214	1	99
437.385	1	106
437.556	1	97
437.726	1	83
437.897	1	97
438.067	1	83
438.238	1	91
438.408	1	99
438.579	1	94
438.749	1	100
438.920	1	94
439.090	1	101
439.261	1	91
439.431	1	95
439.602	1	90
439.772	1	92
439.943	1	91
440.113	1	80
440.284	1	89
440.455	1	100
440.625	1	92
440.796	1	95
440.966	1	90
441.137	1	95
441.307	1	108
441.478	1	80
441.648	1	96
441.819	1	98
441.989	1	86
442.160	1	84
442.330	1	87
442.501	1	93
442.671	1	94
442.842	1	90
443.012	1	88
443.183	1	89
443.353	1	87
443.524	1	78
443.694	1	73
443.865	1	84
444.035	1	86
444.206	1	91
444.376	1	83
444.547	1	75
444.717	1	92
444.888	1	81
445.058	1	97
445.229	1	76
445.399	1	78
445.570	1	89
445.740	1	78
445.911	1	73
446.081	1	106
446.252	1	81
446.422	1	87
446.593	1	73
446.763	1	87
446.934	1	71
447.104	1	76
447.275	1	84
447.445	1	83
447.616	1	70
447.786	1	86
447.957	1	86
448.127	1	72
448.298	1	77
448.468	1	76
448.639	1	73
448.809	1	88
448.979	1	85
449.150	1	81
449.320	1	81
449.491	1	72
449.661	1	83
449.832	1	75
450.002	1	79
450.173	1	87
450.343	1	82
450.514	1	79
450.684	1	80
450.855	1	90
451.025	1	72
451.196	1	65
451.366	1	86
451.537	1	88
451.707	1	81
451.878	1	82
452.048	1	74
452.218	1	72
452.389	1	76
452.559	1	83
452.730	1	86
452.900	1	81
453.071	1	74
453.241	1	72
453.412	1	87
453.582	1	70
453.753	1	61
453.923	1	80
454.093	1	92
454.264	1	70
454.434	1	81
454.605	1	75
454.775	1	71
454.946	1	74
455.116	1	64
455.287	1	84
455.457	1	83
455.628	1	78
455.798	1	72
455.968	1	72
456.139	1	69
456.309	1	85
456.480	1	82
456.650	1	63
456.821	1	77
456.991	1	75
457.161	1	71
457.332	1	74
457.502	1	70
457.673	1	85
457.843	1	68
458.014	1	62
458.184	1	82
458.355	1	66
458.525	1	76
458.695	1	69
458.866	1	62
459.036	1	74
459.207	1	72
459.377	1	59
459.548	1	64
459.718	1	64
459.888	1	79
460.059	1	74
460.229	1	64
460.400	1	61
460.570	1	74
460.740	1	67
460.911	1	70
461.081	1	69
461.252	1	64
461.422	1	69
461.593	1	65
461.763	1	73
461.933	1	69
462.104	1	73
462.274	1	57
462.445	1	67
462.615	1	76
462.785	1	67
462.956	1	58
463.126	1	71
463.297	1	71
463.467	1	63
463.638	1	60
463.808	1	60
463.978	1	59
464.149	1	61
464.319	1	64
464.490	1	66
464.660	1	74
464.830	1	75
465.001	1	67
465.171	1	62
465.342	1	57
465.512	1	67
465.682	1	71
465.853	1	71
466.023	1	71
466.194	1	54
466.364	1	71
466.534	1	49
466.705	1	66
466.875	1	64
467.045	1	68
467.216	1	68
467.386	1	58
467.557	1	75
467.727	1	55
467.897	1	67
468.068	1	60
468.238	1	56
468.409	1	69
468.579	1	72
468.749	1	64
468.920	1	78
469.090	1	58
469.260	1	76
469.431	1	57
469.601	1	56
469.772	1	51
469.942	1	70
470.112	1	58
470.283	1	58
470.453	1	60
470.623	1	64
470.794	1	44
470.964	1	63
471.135	1	65
471.305	1	60
471.475	1	62
471.646	1	57
471.816	1	56
471.986	1	52
472.157	1	58
472.327	1	54
472.497	1	65
472.668	1	51
472.838	1	65
473.009	1	59
473.179	1	62
473.349	1	56
473.520	1	46
473.690	1	48
473.860	1	50
474.031	1	49
474.201	1	62
474.371	1	53
474.542	1	71
474.712	1	54
474.882	1	48
475.053	1	51
475.223	1	59
475.394	1	48
475.564	1	52
475.734	1	55
475.905	1	55
476.075	1	50
476.245	1	47
476.416	1	56
476.586	1	53
476.756	1	47
476.927	1	52
477.097	1	48
477.267	1	50
477.438	1	47
477.608	1	49
477.778	1	61
477.949	1	50
478.119	1	41
478.289	1	52
478.460	1	54
478.630	1	56
478.800	1	52
478.971	1	48
479.141	1	47
479.311	1	54
479.482	1	31
479.652	1	55
479.822	1	46
479.993	1	63
480.163	1	57
480.333	1	64
480.504	1	54
480.674	1	36
480.844	1	45
481.015	1	49
481.185	1	56
481.355	1	40
481.525	1	41
481.696	1	43
481.866	1	55
482.036	1	48
482.207	1	50
482.377	1	55
482.547	1	47
482.718	1	37
482.888	1	49
483.058	1	60
483.229	1	53
483.399	1	50
483.569	1	41
483.740	1	49
483.910	1	57
484.080	1	59
484.250	1	51
484.421	1	49
484.591	1	38
484.761	1	51
484.932	1	57
485.102	1	42
485.272	1	40
485.443	1	59
485.613	1	47
485.783	1	35
485.953	1	41
486.124	1	45
486.294	1	46
486.464	1	48
486.635	1	43
486.805	1	48
486.975	1	41
487.146	1	47
487.316	1	43
487.486	1	42
487.656	1	48
487.827	1	45
487.997	1	44
488.167	1	49
488.338	1	47
488.508	1	39
488.678	1	50
488.848	1	52
489.019	1	35
489.189	1	39
489.359	1	39
489.529	1	40
489.700	1	46
489.870	1	49
490.040	1	37
490.211	1	35
490.381	1	59
490.551	1	38
490.721	1	47
490.892	1	54
491.062	1	32
491.232	1	41
491.402	1	34
491.573	1	36
491.743	1	40
491.913	1	52
492.084	1	45
492.254	1	41
492.424	1	27
492.594	1	29
492.765	1	46
492.935	1	39
493.105	1	38
493.275	1	50
493.446	1	43
493.616	1	36
493.786	1	39
493.956	1	40
494.127	1	36
494.297	1	40
494.467	1	42
494.637	1	41
494.808	1	36
494.978	1	35
495.148	1	44
495.318	1	53
495.489	1	43
495.659	1	38
495.829	1	45
495.999	1	32
496.170	1	41
496.340	1	42
496.510	1	43
496.680	1	42
496.851	1	44
497.021	1	45
497.191	1	36
497.361	1	36
497.532	1	40
497.702	1	35
497.872	1	38
498.042	1	39
498.213	1	38
498.383	1	50
498.553	1	44
498.723	1	40
498.894	1	45
499.064	1	21
499.234	1	43
499.404	1	36
499.574	1	37
499.745	1	28
499.915	1	34
500.085	1	31
500.255	1	32
500.426	1	24
500.596	1	38
500.766	1	26
500.936	1	25
501.106	1	29
501.277	1	33
501.447	1	19
501.617	1	31
501.787	1	44
501.958	1	21
502.128	1	40
502.298	1	46
502.468	1	37
502.638	1	52
502.809	1	45
502.979	1	37
503.149	1	36
503.319	1	49
503.489	1	36
503.660	1	36
503.830	1	44
504.000	1	30
504.170	1	31
504.340	1	26
504.511	1	40
504.681	1	39
504.851	1	32
505.021	1	42
505.192	1	37
505.362	1	39
505.532	1	35
505.702	1	32
505.872	1	40
506.043	1	30
506.213	1	31
506.383	1	27
506.553	1	28
506.723	1	30
506.893	1	33
507.064	1	32
507.234	1	30
507.404	1	50
507.574	1	31
507.744	1	34
507.915	1	36
508.085	1	31
508.255	1	22
508.425	1	33
508.595	1	14
508.766	1	25
508.936	1	34
509.106	1	35
509.276	1	32
509.446	1	18
509.616	1	42
509.787	1	16
509.957	1	25
510.127	1	32
510.297	1	26
510.467	1	35
510.638	1	31
510.808	1	15
510.978	1	35
511.148	1	33
511.318	1	39
511.488	1	30
511.659	1	18
511.829	1	15
511.999	1	24
512.169	1	11
512.339	1	32
512.509	1	26
512.680	1	23
512.850	1	33
513.020	1	25
513.190	1	24
513.360	1	35
513.530	1	28
513.700	1	30
513.871	1	33
514.041	1	28
514.211	1	35
514.381	1	27
514.551	1	21
514.721	1	19
514.892	1	24
515.062	1	25
515.232	1	19
515.402	1	31
515.572	1	26
515.742	1	21
515.912	1	27
516.083	1	26
516.253	1	30
516.423	1	20
516.593	1	31
516.763	1	30
516.933	1	18
517.104	1	27
517.274	1	17
517.444	1	25
517.614	1	16
517.784	1	21
517.954	1	22
518.124	1	13
518.294	1	27
518.465	1	28
518.635	1	26
518.805	1	20
518.975	1	21
519.145	1	29
519.315	1	24
519.485	1	20
519.656	1	39
519.826	1	17
519.996	1	20
520.166	1	21
520.336	1	32
520.506	1	22
520.676	1	22
520.846	1	22
521.017	1	22
521.187	1	24
521.357	1	26
521.527	1	19
521.697	1	13
521.867	1	14
522.037	1	23
522.207	1	22
522.377	1	23
522.548	1	23
522.718	1	24
522.888	1	14
523.058	1	15
523.228	1	27
523.398	1	10
523.568	1	5
523.738	1	23
523.909	1	33
524.079	1	24
524.249	1	17
524.419	1	29
524.589	1	23
524.759	1	23
524.929	1	20
525.099	1	28
525.269	1	25
525.439	1	19
525.610	1	19
525.780	1	20
525.950	1	18
526.120	1	32
526.290	1	28
526.460	1	14
526.630	1	27
526.800	1	11
526.970	1	18
527.140	1	14
527.311	1	15
527.481	1	20
527.651	1	19
527.821	1	11
527.991	1	27
528.161	1	20
528.331	1	12
528.501	1	22
528.671	1	26
528.841	1	21
529.011	1	12
529.181	1	28
529.352	1	21
529.522	1	8
529.692	1	29
529.862	1	22
530.032	1	18
530.202	1	25
530.372	1	22
530.542	1	25
530.712	1	10
530.882	1	18
531.052	1	23
531.222	1	17
531.392	1	16
531.563	1	25
531.733	1	29
531.903	1	22
532.073	1	11
532.243	1	27
532.413	1	31
532.583	1	13
532.753	1	16
532.923	1	24
533.093	1	13
533.263	1	14
533.433	1	10
533.603	1	17
533.773	1	16
533.943	1	21
534.113	1	27
534.284	1	20
534.454	1	15
534.624	1	18
534.794	1	21
534.964	1	28
535.134	1	11
535.304	1	14
535.474	1	9
535.644	1	29
535.814	1	4
535.984	1	9
536.154	1	23
536.324	1	13
536.494	1	19
536.664	1	6
536.834	1	11
537.004	1	16
537.174	1	20
537.344	1	25
537.514	1	17
537.685	1	20
537.855	1	10
538.025	1	16
538.195	1	18
538.365	1	27
538.535	1	17
538.705	1	13
538.875	1	23
539.045	1	20
539.215	1	29
539.385	1	21
539.555	1	11
539.725	1	17
539.895	1	21
540.065	1	19
540.235	1	10
540.405	1	26
540.575	1	19
540.745	1	7
540.915	1	19
541.085	1	13
541.255	1	18
541.425	1	8
541.595	1	7
541.765	1	19
541.935	1	23
542.105	1	13
542.275	1	14
542.445	1	17
542.615	1	29
542.785	1	18
542.955	1	8
543.125	1	13
543.295	1	24
543.465	1	15
543.635	1	-1
543.805	1	11
543.975	1	12
544.145	1	18
544.315	1	10
544.485	1	24
544.655	1	20
544.825	1	16
544.995	1	12
545.165	1	18
545.335	1	2
545.505	1	11
545.675	1	21
545.845	1	4
546.015	1	25
546.185	1	7
546.355	1	8
546.525	1	12
546.695	1	26
546.865	1	12
547.035	1	20
547.205	1	20
547.375	1	21
547.545	1	15
547.715	1	13
547.885	1	27
548.055	1	12
548.225	1	10
548.395	1	33
548.565	1	8
548.735	1	19
548.905	1	7
549.075	1	21
549.245	1	22
549.415	1	18
549.585	1	27
549.755	1	11
549.925	1	9
550.095	1	4
550.265	1	3
550.435	1	2
550.605	1	9
550.775	1	15
550.945	1	11
551.115	1	7
551.285	1	8
551.455	1	14
551.625	1	11
551.795	1	17
551.965	1	15
552.135	1	-2
552.305	1	18
552.475	1	17
552.645	1	25
552.815	1	10
552.985	1	15
553.155	1	14
553.325	1	8
553.495	1	10
553.665	1	22
553.835	1	12
554.004	1	12
554.174	1	9
554.344	1	19
554.514	1	18
554.684	1	7
554.854	1	8
555.024	1	21
555.194	1	16
555.364	1	18
555.534	1	14
555.704	1	13
555.874	1	23
556.044	1	12
556.214	1	4
556.384	1	21
556.554	1	-2
556.724	1	0
556.894	1	16
557.064	1	8
557.234	1	9
557.404	1	10
557.573	1	16
557.743	1	15
557.913	1	14
558.083	1	7
558.253	1	11
558.423	1	1
558.593	1	14
558.763	1	19
558.933	1	18
559.103	1	8
559.273	1	23
559.443	1	7
559.613	1	0
559.783	1	19
559.953	1	6
560.122	1	13
560.292	1	26
560.462	1	7
560.632	1	11
560.802	1	2
560.972	1	27
561.142	1	16
561.312	1	9
561.482	1	7
561.652	1	12
561.822	1	4
561.992	1	15
562.162	1	8
562.331	1	4
562.501	1	7
562.671	1	15
562.841	1	13
563.011	1	18
563.181	1	23
563.351	1	5
563.521	1	13
563.691	1	12
563.861	1	14
564.031	1	4
564.201	1	6
564.370	1	9
564.540	1	19
564.710	1	12
564.880	1	13
565.050	1	8
565.220	1	10
565.390	1	6
565.560	1	21
565.730	1	19
565.900	1	10
566.069	1	13
566.239	1	2
566.409	1	13
566.579	1	16
566.749	1	20
566.919	1	11
567.089	1	15
567.259	1	19
567.429	1	9
567.599	1	14
567.768	1	11
567.938	1	3
568.108	1	10
568.278	1	13
568.448	1	13
568.618	1	23
568.788	1	19
568.958	1	26
569.128	1	20
569.297	1	16
569.467	1	5
569.637	1	4
569.807	1	11
569.977	1	15
570.147	1	6
570.317	1	18
570.487	1	20
570.656	1	2
570.826	1	21
570.996	1	11
571.166	1	16
571.336	1	10
571.506	1	12
571.676	1	16
571.846	1	10
572.015	1	11
572.185	1	0
572.355	1	5
572.525	1	10
572.695	1	13
572.865	1	3
573.035	1	13
573.205	1	-3
573.374	1	4
573.544	1	9
573.714	1	11
573.884	1	19
574.054	1	19
574.224	1	12
574.394	1	6
574.563	1	13
574.733	1	-1
574.903	1	7
575.073	1	12
575.243	1	4
575.413	1	13
575.583	1	8
575.752	1	6
575.922	1	2
576.092	1	11
576.262	1	15
576.432	1	15
576.602	1	3
576.772	1	-2
576.941	1	18
577.111	1	13
577.281	1	16
577.451	1	13
577.621	1	3
577.791	1	5
577.960	1	18
578.130	1	8
578.300	1	13
578.470	1	5
578.640	1	10
578.810	1	13
578.979	1	7
579.149	1	13
579.319	1	3
579.489	1	12
579.659	1	4
579.829	1	9
579.998	1	7
580.168	1	3
580.338	1	11
580.508	1	4
580.678	1	9
580.848	1	13
581.017	1	26
581.187	1	9
581.357	1	5
581.527	1	10
581.697	1	9
581.867	1	5
582.036	1	2
582.206	1	12
582.376	1	10
582.546	1	8
582.716	1	5
582.885	1	13
583.055	1	0
583.225	1	-1
583.395	1	13
583.565	1	11
583.735	1	13
583.904	1	4
584.074	1	7
584.244	1	13
584.414	1	8
584.584	1	3
584.753	1	14
584.923	1	6
585.093	1	7
585.263	1	16
585.433	1	7
585.602	1	13
585.772	1	8
585.942	1	-4
586.112	1	17
586.282	1	15
586.451	1	9
586.621	1	13
586.791	1	22
586.961	1	7
587.131	1	10
587.300	1	-6
587.470	1	13
587.640	1	8
587.810	1	-1
587.980	1	21
588.149	1	9
588.319	1	13
588.489	1	15
588.659	1	-2
588.829	1	9
588.998	1	16
589.168	1	5
589.338	1	10
589.508	1	9
589.677	1	5
589.847	1	12
590.017	1	12
590.187	1	4
590.357	1	-1
590.526	1	19
590.696	1	13
590.866	1	19
591.036	1	8
591.205	1	3
591.375	1	9
591.545	1	0
591.715	1	24
591.885	1	13
592.054	1	12
592.224	1	7
592.394	1	14
592.564	1	11
592.733	1	10
592.903	1	17
593.073	1	14
593.243	1	15
593.412	1	-1
593.582	1	14
593.752	1	15
593.922	1	8
594.091	1	15
594.261	1	10
594.431	1	3
594.601	1	15
594.771	1	1
594.940	1	15
595.110	1	6
595.280	1	5
595.450	1	17
595.619	1	6
595.789	1	10
595.959	1	5
596.129	1	7
596.298	1	15
596.468	1	16
596.638	1	19
596.808	1	21
596.977	1	12
597.147	1	13
597.317	1	3
597.487	1	12
597.656	1	12
597.826	1	10
597.996	1	10
598.166	1	11
598.335	1	15
598.505	1	16
598.675	1	9
598.844	1	11
599.014	1	7
599.184	1	25
599.354	1	4
599.523	1	4
599.693	1	2
599.863	1	12
600.033	1	7
600.202	1	-2
600.372	1	7
600.542	1	19
600.712	1	13
600.881	1	10
601.051	1	8
601.221	1	6
601.390	1	19
601.560	1	10
601.730	1	15
601.900	1	6
602.069	1	14
602.239	1	1
602.409	1	13
602.578	1	7
602.748	1	15
602.918	1	8
603.088	1	9
603.257	1	19
603.427	1	8
603.597	1	10
603.767	1	12
603.936	1	15
604.106	1	18
604.276	1	7
604.445	1	8
604.615	1	-2
604.785	1	5
604.954	1	12
605.124	1	0
605.294	1	13
605.464	1	21
605.633	1	14
605.803	1	1
605.973	1	15
606.142	1	17
606.312	1	1
606.482	1	7
606.652	1	11
606.821	1	18
606.991	1	11
607.161	1	28
607.330	1	6
607.500	1	14
607.670	1	14
607.839	1	14
608.009	1	-1
608.179	1	7
608.348	1	22
608.518	1	16
608.688	1	18
608.858	1	8
609.027	1	13
609.197	1	18
609.367	1	9
609.536	1	3
609.706	1	14
609.876	1	8
610.045	1	18
610.215	1	10
610.385	1	19
610.554	1	10
610.724	1	16
610.894	1	13
611.063	1	14
611.233	1	30
611.403	1	10
611.572	1	7
611.742	1	11
611.912	1	11
612.081	1	12
612.251	1	19
612.421	1	10
612.590	1	8
612.760	1	7
612.930	1	4
613.099	1	20
613.269	1	13
613.439	1	17
613.608	1	27
613.778	1	5
613.948	1	17
614.117	1	10
614.287	1	7
614.457	1	8
614.626	1	4
614.796	1	7
614.966	1	6
615.135	1	3
615.305	1	13
615.475	1	16
615.644	1	23
615.814	1	17
615.984	1	16
616.153	1	16
616.323	1	-2
616.493	1	16
616.662	1	20
616.832	1	15
617.002	1	17
617.171	1	10
617.341	1	11
617.511	1	24
617.680	1	20
617.850	1	6
618.019	1	14
618.189	1	20
618.359	1	15
618.528	1	18
618.698	1	11
618.868	1	17
619.037	1	16
619.207	1	15
619.377	1	18
619.546	1	12
619.716	1	15
619.885	1	25
620.055	1	11
620.225	1	18
620.394	1	20
620.564	1	12
620.734	1	6
620.903	1	15
621.073	1	17
621.242	1	2
621.412	1	15
621.582	1	16
621.751	1	6
621.921	1	7
622.091	1	10
622.260	1	20
622.430	1	11
622.599	1	29
622.769	1	15
622.939	1	28
623.108	1	11
623.278	1	18
623.448	1	12
623.617	1	6
623.787	1	14
623.956	1	7
624.126	1	13
624.296	1	23
624.465	1	21
624.635	1	11
624.804	1	21
624.974	1	15
625.144	1	25
625.313	1	2
625.483	1	12
625.652	1	16
625.822	1	11
625.992	1	17
626.161	1	8
626.331	1	19
626.501	1	22
626.670	1	14
626.840	1	19
627.009	1	23
627.179	1	12
627.348	1	14
627.518	1	21
627.688	1	9
627.857	1	1
628.027	1	18
628.196	1	15
628.366	1	16
628.536	1	17
628.705	1	17
628.875	1	5
629.044	1	10
629.214	1	12
629.384	1	18
629.553	1	15
629.723	1	12
629.892	1	11
630.062	1	16
630.232	1	12
630.401	1	14
630.571	1	15
630.740	1	12
630.910	1	10
631.079	1	19
631.249	1	10
631.419	1	17
631.588	1	5
631.758	1	11
631.927	1	15
632.097	1	24
632.266	1	24
632.436	1	12
632.606	1	15
632.775	1	21
632.945	1	2
633.114	1	17
633.284	1	7
633.453	1	13
633.623	1	16
633.793	1	18
633.962	1	13
634.132	1	24
634.301	1	11
634.471	1	14
634.640	1	14
634.810	1	20
634.979	1	22
635.149	1	17
635.319	1	18
635.488	1	14
635.658	1	8
635.827	1	11
635.997	1	6
636.166	1	18
636.336	1	19
636.505	1	24
636.675	1	9
636.845	1	24
637.014	1	16
637.184	1	10
637.353	1	18
637.523	1	16
637.692	1	18
637.862	1	15
638.031	1	15
638.201	1	20
638.370	1	14
638.540	1	20
638.710	1	24
638.879	1	6
639.049	1	12
639.218	1	11
639.388	1	24
639.557	1	8
639.727	1	15
639.896	1	9
640.066	1	10
640.235	1	19
640.405	1	13
640.574	1	24
640.744	1	24
640.914	1	27
641.083	1	15
641.253	1	10
641.422	1	18
641.592	1	14
641.761	1	20
641.931	1	13
642.100	1	23
642.270	1	23
642.439	1	16
642.609	1	30
642.778	1	23
642.948	1	15
643.117	1	19
643.287	1	18
643.456	1	5
643.626	1	22
643.795	1	16
643.965	1	24
644.134	1	16
644.304	1	21
644.473	1	19
644.643	1	7
644.812	1	25
644.982	1	18
645.151	1	4
645.321	1	14
645.490	1	26
645.660	1	21
645.829	1	11
645.999	1	20
646.168	1	16
646.338	1	23
646.507	1	7
646.677	1	21
646.846	1	23
647.016	1	16
647.185	1	18
647.355	1	21
647.524	1	18
647.694	1	19
647.863	1	17
648.033	1	27
648.202	1	19
648.372	1	18
648.541	1	16
648.711	1	19
648.880	1	24
649.050	1	21
649.219	1	11
649.389	1	16
649.558	1	10
649.728	1	17
649.897	1	19
650.067	1	8
650.236	1	24
650.406	1	15
650.575	1	19
650.745	1	19
650.914	1	21
651.084	1	12
651.253	1	12
651.423	1	10
651.592	1	29
651.762	1	22
651.931	1	30
652.101	1	17
652.270	1	19
652.440	1	25
652.609	1	11
652.778	1	22
652.948	1	15
653.117	1	24
653.287	1	12
653.456	1	25
653.626	1	24
653.795	1	21
653.965	1	29
654.134	1	17
654.304	1	17
654.473	1	19
654.643	1	23
654.812	1	24
654.982	1	25
655.151	1	31
655.320	1	10
655.490	1	19
655.659	1	20
655.829	1	7
655.998	1	23
656.168	1	24
656.337	1	21
656.507	1	14
656.676	1	21
656.846	1	28
657.015	1	29
657.184	1	14
657.354	1	30
657.523	1	21
657.693	1	27
657.862	1	26
658.032	1	14
658.201	1	20
658.371	1	9
658.540	1	31
658.709	1	24
658.879	1	16
659.048	1	17
659.218	1	20
659.387	1	11
659.557	1	21
659.726	1	22
659.895	1	20
660.065	1	30
660.234	1	29
660.404	1	30
660.573	1	22
660.743	1	31
660.912	1	34
661.081	1	13
661.251	1	32
661.420	1	30
661.590	1	30
661.759	1	21
661.929	1	24
662.098	1	24
662.267	1	28
662.437	1	18
662.606	1	26
662.776	1	22
662.945	1	21
663.115	1	14
663.284	1	17
663.453	1	26
663.623	1	16
663.792	1	18
663.962	1	20
664.131	1	20
664.300	1	17
664.470	1	12
664.639	1	18
664.809	1	32
664.978	1	24
665.148	1	28
665.317	1	17
665.486	1	18
665.656	1	26
665.825	1	19
665.995	1	20
666.164	1	36
666.333	1	26
666.503	1	30
666.672	1	26
666.842	1	7
667.011	1	21
667.180	1	12
667.350	1	26
667.519	1	10
667.689	1	31
667.858	1	37
668.027	1	17
668.197	1	27
668.366	1	19
668.536	1	20
668.705	1	31
668.874	1	22
669.044	1	21
669.213	1	19
669.382	1	33
669.552	1	21
669.721	1	15
669.891	1	20
670.060	1	12
670.229	1	20
670.399	1	23
670.568	1	40
670.738	1	13
670.907	1	20
671.076	1	31
671.246	1	14
671.415	1	32
671.584	1	13
671.754	1	27
671.923	1	27
672.093	1	29
672.262	1	22
672.431	1	42
672.601	1	16
672.770	1	18
672.939	1	29
673.109	1	28
673.278	1	26
673.448	1	29
673.617	1	17
673.786	1	22
