325.333	1	3
325.504	1	10
325.675	1	0
325.846	1	6
326.017	1	10
326.188	1	3
326.359	1	15
326.531	1	-8
326.702	1	7
326.873	1	5
327.044	1	4
327.215	1	-1
327.386	1	7
327.557	1	15
327.728	1	-5
327.899	1	9
328.070	1	15
328.241	1	7
328.412	1	6
328.583	1	13
328.754	1	6
328.926	1	0
329.097	1	4
329.268	1	14
329.439	1	10
329.610	1	6
329.781	1	12
329.952	1	9
330.123	1	-1
330.294	1	12
330.465	1	19
330.636	1	2
330.807	1	7
330.978	1	4
331.149	1	-3
331.320	1	12
331.492	1	10
331.663	1	8
331.834	1	6
332.005	1	6
332.176	1	8
332.347	1	17
332.518	1	2
332.689	1	7
332.860	1	3
333.031	1	-1
333.202	1	11
333.373	1	9
333.544	1	1
333.715	1	0
333.886	1	-3
334.057	1	6
334.228	1	21
334.399	1	3
334.570	1	10
334.741	1	10
334.912	1	12
335.084	1	-1
335.255	1	-5
335.426	1	-9
335.597	1	10
335.768	1	-5
335.939	1	7
336.110	1	-3
336.281	1	13
336.452	1	16
336.623	1	8
336.794	1	1
336.965	1	5
337.136	1	6
337.307	1	5
337.478	1	5
337.649	1	4
337.820	1	-2
337.991	1	15
338.162	1	2
338.333	1	5
338.504	1	-3
338.675	1	2
338.846	1	11
339.017	1	2
339.188	1	5
339.359	1	1
339.530	1	7
339.701	1	3
339.872	1	5
340.043	1	4
340.214	1	15
340.385	1	1
340.556	1	10
340.727	1	6
340.898	1	9
341.069	1	14
341.240	1	15
341.411	1	20
341.582	1	2
341.753	1	7
341.924	1	2
342.095	1	10
342.266	1	-10
342.437	1	9
342.608	1	-7
342.779	1	7
342.950	1	12
343.121	1	9
343.292	1	8
343.463	1	7
343.634	1	12
343.805	1	0
343.976	1	15
344.147	1	13
344.318	1	6
344.489	1	7
344.660	1	14
344.831	1	15
345.002	1	8
345.173	1	16
345.344	1	-11
345.515	1	9
345.686	1	13
345.857	1	17
346.028	1	18
346.199	1	3
346.370	1	4
346.541	1	14
346.712	1	10
346.883	1	16
347.054	1	13
347.225	1	2
347.396	1	10
347.567	1	9
347.738	1	7
347.909	1	11
348.080	1	-5
348.251	1	12
348.422	1	18
348.593	1	13
348.764	1	10
348.935	1	0
349.106	1	5
349.277	1	15
349.448	1	9
349.619	1	12
349.790	1	19
349.961	1	9
350.132	1	10
350.303	1	11
350.474	1	9
350.645	1	5
350.816	1	17
350.987	1	1
351.157	1	7
351.328	1	21
351.499	1	17
351.670	1	9
351.841	1	6
352.012	1	13
352.183	1	-7
352.354	1	4
352.525	1	-2
352.696	1	9
352.867	1	-6
353.038	1	15
353.209	1	13
353.380	1	16
353.551	1	14
353.722	1	2
353.893	1	2
354.064	1	12
354.235	1	12
354.406	1	18
354.576	1	0
354.747	1	15
354.918	1	17
355.089	1	7
355.260	1	18
355.431	1	18
355.602	1	18
355.773	1	10
355.944	1	14
356.115	1	0
356.286	1	3
356.457	1	17
356.628	1	22
356.799	1	17
356.970	1	13
357.141	1	18
357.311	1	18
357.482	1	9
357.653	1	3
357.824	1	16
357.995	1	19
358.166	1	11
358.337	1	9
358.508	1	17
358.679	1	9
358.850	1	9
359.021	1	22
359.192	1	9
359.363	1	17
359.533	1	9
359.704	1	7
359.875	1	22
360.046	1	10
360.217	1	13
360.388	1	9
360.559	1	20
360.730	1	12
360.901	1	22
361.072	1	8
361.243	1	12
361.414	1	11
361.584	1	14
361.755	1	25
361.926	1	6
362.097	1	16
362.268	1	14
362.439	1	8
362.610	1	6
362.781	1	9
362.952	1	18
363.123	1	25
363.293	1	17
363.464	1	24
363.635	1	19
363.806	1	17
363.977	1	9
364.148	1	2
364.319	1	13
364.490	1	11
364.661	1	16
364.832	1	21
365.002	1	14
365.173	1	12
365.344	1	10
365.515	1	13
365.686	1	8
365.857	1	13
366.028	1	10
366.199	1	13
366.370	1	11
366.540	1	9
366.711	1	7
366.882	1	4
367.053	1	14
367.224	1	13
367.395	1	26
367.566	1	23
367.737	1	21
367.908	1	6
368.078	1	28
368.249	1	13
368.420	1	21
368.591	1	24
368.762	1	26
368.933	1	8
369.104	1	12
369.274	1	10
369.445	1	22
369.616	1	21
369.787	1	13
369.958	1	12
370.129	1	22
370.300	1	15
370.471	1	26
370.641	1	18
370.812	1	13
370.983	1	12
371.154	1	24
371.325	1	15
371.496	1	21
371.667	1	22
371.837	1	9
372.008	1	8
372.179	1	11
372.350	1	14
372.521	1	13
372.692	1	14
372.863	1	1
373.033	1	25
373.204	1	17
373.375	1	11
373.546	1	19
373.717	1	9
373.888	1	14
374.059	1	24
374.229	1	14
374.400	1	11
374.571	1	19
374.742	1	16
374.913	1	0
375.084	1	16
375.254	1	29
375.425	1	9
375.596	1	23
375.767	1	16
375.938	1	22
376.109	1	10
376.279	1	16
376.450	1	15
376.621	1	29
376.792	1	15
376.963	1	14
377.134	1	30
377.304	1	18
377.475	1	21
377.646	1	23
377.817	1	1
377.988	1	5
378.159	1	12
378.329	1	15
378.500	1	20
378.671	1	14
378.842	1	16
379.013	1	12
379.184	1	27
379.354	1	13
379.525	1	22
379.696	1	13
379.867	1	15
380.038	1	12
380.209	1	12
380.379	1	19
380.550	1	18
380.721	1	32
380.892	1	16
381.063	1	18
381.233	1	-1
381.404	1	20
381.575	1	10
381.746	1	22
381.917	1	9
382.087	1	18
382.258	1	23
382.429	1	16
382.600	1	17
382.771	1	19
382.941	1	16
383.112	1	20
383.283	1	27
383.454	1	20
383.625	1	22
383.795	1	18
383.966	1	14
384.137	1	22
384.308	1	18
384.479	1	15
384.649	1	22
384.820	1	11
384.991	1	5
385.162	1	19
385.333	1	15
385.503	1	12
385.674	1	8
385.845	1	22
386.016	1	20
386.187	1	18
386.357	1	17
386.528	1	16
386.699	1	15
386.870	1	23
387.041	1	15
387.211	1	16
387.382	1	14
387.553	1	20
387.724	1	6
387.894	1	10
388.065	1	31
388.236	1	14
388.407	1	14
388.578	1	10
388.748	1	19
388.919	1	22
389.090	1	24
389.261	1	22
389.431	1	33
389.602	1	25
389.773	1	19
389.944	1	15
390.114	1	21
390.285	1	15
390.456	1	16
390.627	1	11
390.798	1	22
390.968	1	7
391.139	1	12
391.310	1	20
391.481	1	7
391.651	1	23
391.822	1	12
391.993	1	21
392.164	1	8
392.334	1	19
392.505	1	13
392.676	1	23
392.847	1	25
393.017	1	24
393.188	1	17
393.359	1	25
393.530	1	23
393.700	1	21
393.871	1	21
394.042	1	19
394.213	1	26
394.383	1	26
394.554	1	18
394.725	1	15
394.896	1	17
395.066	1	15
395.237	1	16
395.408	1	19
395.579	1	15
395.749	1	18
395.920	1	19
396.091	1	15
396.262	1	30
396.432	1	9
396.603	1	13
396.774	1	21
396.945	1	17
397.115	1	25
397.286	1	22
397.457	1	14
397.627	1	20
397.798	1	18
397.969	1	26
398.140	1	24
398.310	1	19
398.481	1	19
398.652	1	26
398.823	1	16
398.993	1	17
399.164	1	20
399.335	1	15
399.505	1	32
399.676	1	18
399.847	1	30
400.018	1	22
400.188	1	19
400.359	1	14
400.530	1	15
400.700	1	24
400.871	1	27
401.042	1	17
401.213	1	9
401.383	1	22
401.554	1	21
401.725	1	25
401.895	1	24
402.066	1	18
402.237	1	22
402.408	1	17
402.578	1	18
402.749	1	15
402.920	1	15
403.090	1	19
403.261	1	34
403.432	1	14
403.603	1	13
403.773	1	31
403.944	1	16
404.115	1	30
404.285	1	25
404.456	1	24
404.627	1	19
404.797	1	12
404.968	1	27
405.139	1	21
405.310	1	16
405.480	1	21
405.651	1	29
405.822	1	19
405.992	1	21
406.163	1	31
406.334	1	11
406.504	1	13
406.675	1	8
406.846	1	19
407.016	1	14
407.187	1	25
407.358	1	20
407.528	1	14
407.699	1	21
407.870	1	14
408.041	1	22
408.211	1	22
408.382	1	8
408.553	1	17
408.723	1	24
408.894	1	26
409.065	1	28
409.235	1	26
409.406	1	14
409.577	1	23
409.747	1	20
409.918	1	28
410.089	1	33
410.259	1	29
410.430	1	22
410.601	1	22
410.771	1	35
410.942	1	28
411.113	1	14
411.283	1	27
411.454	1	21
411.625	1	21
411.795	1	17
411.966	1	22
412.137	1	15
412.307	1	26
412.478	1	22
412.649	1	31
412.819	1	19
412.990	1	21
413.161	1	33
413.331	1	27
413.502	1	29
413.672	1	34
413.843	1	17
414.014	1	33
414.184	1	29
414.355	1	31
414.526	1	35
414.696	1	35
414.867	1	22
415.038	1	21
415.208	1	33
415.379	1	23
415.550	1	25
415.720	1	28
415.891	1	17
416.062	1	19
416.232	1	24
416.403	1	19
416.573	1	28
416.744	1	32
416.915	1	27
417.085	1	22
417.256	1	30
417.427	1	24
417.597	1	11
417.768	1	14
417.939	1	27
418.109	1	26
418.280	1	20
418.450	1	18
418.621	1	13
418.792	1	13
418.962	1	16
419.133	1	18
419.304	1	27
419.474	1	20
419.645	1	20
419.815	1	21
419.986	1	16
420.157	1	9
420.327	1	20
420.498	1	17
420.669	1	23
420.839	1	16
421.010	1	26
421.180	1	27
421.351	1	18
421.522	1	18
421.692	1	18
421.863	1	22
422.033	1	33
422.204	1	15
422.375	1	29
422.545	1	16
422.716	1	18
422.886	1	22
423.057	1	19
423.228	1	16
423.398	1	20
423.569	1	23
423.740	1	14
423.910	1	13
424.081	1	15
424.251	1	13
424.422	1	27
424.593	1	11
424.763	1	23
424.934	1	18
425.104	1	31
425.275	1	28
425.445	1	24
425.616	1	20
425.787	1	20
425.957	1	25
426.128	1	11
426.298	1	18
426.469	1	14
426.640	1	28
426.810	1	13
426.981	1	24
427.151	1	19
427.322	1	24
427.493	1	12
427.663	1	22
427.834	1	19
428.004	1	18
428.175	1	12
428.345	1	8
428.516	1	24
428.687	1	14
428.857	1	18
429.028	1	19
429.198	1	7
429.369	1	21
429.540	1	5
429.710	1	27
429.881	1	20
430.051	1	20
430.222	1	11
430.392	1	29
430.563	1	27
430.734	1	26
430.904	1	13
431.075	1	17
431.245	1	19
431.416	1	21
431.586	1	20
431.757	1	23
431.927	1	28
432.098	1	19
432.269	1	13
432.439	1	35
432.610	1	23
432.780	1	19
432.951	1	18
433.121	1	20
433.292	1	16
433.462	1	12
433.633	1	13
433.804	1	30
433.974	1	16
434.145	1	17
434.315	1	12
434.486	1	15
434.656	1	15
434.827	1	16
434.997	1	18
435.168	1	17
435.339	1	10
435.509	1	24
435.680	1	18
435.850	1	9
436.021	1	26
436.191	1	22
436.362	1	14
436.532	1	26
436.703	1	11
436.873	1	20
437.044	1	9
437.214	1	27
437.385	1	20
437.556	1	21
437.726	1	20
437.897	1	11
438.067	1	12
438.238	1	12
438.408	1	19
438.579	1	29
438.749	1	22
438.920	1	17
439.090	1	19
439.261	1	12
439.431	1	15
439.602	1	22
439.772	1	38
439.943	1	16
440.113	1	13
440.284	1	11
440.455	1	14
440.625	1	23
440.796	1	27
440.966	1	7
441.137	1	17
441.307	1	18
441.478	1	13
441.648	1	6
441.819	1	21
441.989	1	15
442.160	1	1
442.330	1	20
442.501	1	16
442.671	1	21
442.842	1	13
443.012	1	15
443.183	1	19
443.353	1	21
443.524	1	10
443.694	1	10
443.865	1	19
444.035	1	10
444.206	1	19
444.376	1	27
444.547	1	18
444.717	1	23
444.888	1	16
445.058	1	23
445.229	1	18
445.399	1	15
445.570	1	26
445.740	1	22
445.911	1	1
446.081	1	20
446.252	1	10
446.422	1	18
446.593	1	15
446.763	1	38
446.934	1	16
447.104	1	9
447.275	1	10
447.445	1	6
447.616	1	10
447.786	1	11
447.957	1	5
448.127	1	12
448.298	1	9
448.468	1	15
448.639	1	27
448.809	1	17
448.979	1	18
449.150	1	5
449.320	1	10
449.491	1	8
449.661	1	13
449.832	1	12
450.002	1	21
450.173	1	19
450.343	1	25
450.514	1	13
450.684	1	19
450.855	1	26
451.025	1	8
451.196	1	4
451.366	1	9
451.537	1	17
451.707	1	16
451.878	1	9
452.048	1	5
452.218	1	19
452.389	1	20
452.559	1	22
452.730	1	10
452.900	1	28
453.071	1	20
453.241	1	20
453.412	1	5
453.582	1	25
453.753	1	15
453.923	1	16
454.093	1	18
454.264	1	22
454.434	1	18
454.605	1	18
454.775	1	10
454.946	1	9
455.116	1	15
455.287	1	14
455.457	1	22
455.628	1	11
455.798	1	7
455.968	1	13
456.139	1	15
456.309	1	18
456.480	1	12
456.650	1	12
456.821	1	19
456.991	1	10
457.161	1	20
457.332	1	20
457.502	1	19
457.673	1	13
457.843	1	11
458.014	1	13
458.184	1	23
458.355	1	20
458.525	1	16
458.695	1	19
458.866	1	22
459.036	1	20
459.207	1	25
459.377	1	13
459.548	1	24
459.718	1	11
459.888	1	12
460.059	1	14
460.229	1	15
460.400	1	6
460.570	1	17
460.740	1	22
460.911	1	10
461.081	1	11
461.252	1	19
461.422	1	17
461.593	1	22
461.763	1	9
461.933	1	17
462.104	1	23
462.274	1	18
462.445	1	11
462.615	1	15
462.785	1	18
462.956	1	15
463.126	1	14
463.297	1	10
463.467	1	18
463.638	1	9
463.808	1	18
463.978	1	9
464.149	1	16
464.319	1	20
464.490	1	19
464.660	1	31
464.830	1	13
465.001	1	5
465.171	1	2
465.342	1	11
465.512	1	21
465.682	1	12
465.853	1	18
466.023	1	34
466.194	1	16
466.364	1	12
466.534	1	6
466.705	1	11
466.875	1	15
467.045	1	11
467.216	1	11
467.386	1	14
467.557	1	18
467.727	1	13
467.897	1	18
468.068	1	13
468.238	1	3
468.409	1	14
468.579	1	24
468.749	1	20
468.920	1	21
469.090	1	7
469.260	1	29
469.431	1	15
469.601	1	9
469.772	1	13
469.942	1	10
470.112	1	5
470.283	1	17
470.453	1	10
470.623	1	18
470.794	1	2
470.964	1	16
471.135	1	16
471.305	1	9
471.475	1	12
471.646	1	15
471.816	1	13
471.986	1	8
472.157	1	3
472.327	1	16
472.497	1	17
472.668	1	12
472.838	1	16
473.009	1	17
473.179	1	8
473.349	1	8
473.520	1	3
473.690	1	11
473.860	1	8
474.031	1	10
474.201	1	13
474.371	1	20
474.542	1	16
474.712	1	3
474.882	1	14
475.053	1	0
475.223	1	6
475.394	1	4
475.564	1	8
475.734	1	5
475.905	1	4
476.075	1	7
476.245	1	20
476.416	1	17
476.586	1	11
476.756	1	11
476.927	1	9
477.097	1	21
477.267	1	11
477.438	1	2
477.608	1	11
477.778	1	11
477.949	1	16
478.119	1	-1
478.289	1	-2
478.460	1	17
478.630	1	20
478.800	1	25
478.971	1	8
479.141	1	10
479.311	1	0
479.482	1	-10
479.652	1	7
479.822	1	1
479.993	1	27
480.163	1	10
480.333	1	30
480.504	1	14
480.674	1	1
480.844	1	14
481.015	1	17
481.185	1	12
481.355	1	2
481.525	1	-3
481.696	1	16
481.866	1	10
482.036	1	5
482.207	1	11
482.377	1	19
482.547	1	10
482.718	1	6
482.888	1	0
483.058	1	11
483.229	1	12
483.399	1	13
483.569	1	3
483.740	1	13
483.910	1	22
484.080	1	21
484.250	1	14
484.421	1	21
484.591	1	16
484.761	1	11
484.932	1	18
485.102	1	4
485.272	1	4
485.443	1	15
485.613	1	-1
485.783	1	9
485.953	1	7
486.124	1	12
486.294	1	5
486.464	1	11
486.635	1	5
486.805	1	17
486.975	1	7
487.146	1	7
487.316	1	6
487.486	1	5
487.656	1	13
487.827	1	12
487.997	1	5
488.167	1	17
488.338	1	15
488.508	1	14
488.678	1	17
488.848	1	18
489.019	1	15
489.189	1	8
489.359	1	6
489.529	1	7
489.700	1	9
489.870	1	0
490.040	1	-5
490.211	1	5
490.381	1	21
490.551	1	3
490.721	1	8
490.892	1	31
491.062	1	8
491.232	1	8
491.402	1	-1
491.573	1	0
491.743	1	-1
491.913	1	7
492.084	1	6
492.254	1	17
492.424	1	6
492.594	1	12
492.765	1	8
492.935	1	3
493.105	1	6
493.275	1	12
493.446	1	5
493.616	1	0
493.786	1	6
493.956	1	13
494.127	1	11
494.297	1	16
494.467	1	-3
494.637	1	8
494.808	1	7
494.978	1	-1
495.148	1	16
495.318	1	0
495.489	1	10
495.659	1	11
495.829	1	12
495.999	1	3
496.170	1	6
496.340	1	3
496.510	1	20
496.680	1	12
496.851	1	15
497.021	1	18
497.191	1	11
497.361	1	13
497.532	1	14
497.702	1	8
497.872	1	3
498.042	1	22
498.213	1	3
498.383	1	9
498.553	1	12
498.723	1	10
498.894	1	14
499.064	1	-5
499.234	1	10
499.404	1	9
499.574	1	12
499.745	1	3
499.915	1	6
500.085	1	-2
500.255	1	7
500.426	1	-4
500.596	1	20
500.766	1	9
500.936	1	8
501.106	1	13
501.277	1	13
501.447	1	8
501.617	1	7
501.787	1	21
501.958	1	12
502.128	1	7
502.298	1	11
502.468	1	11
502.638	1	14
502.809	1	24
502.979	1	4
503.149	1	8
503.319	1	9
503.489	1	18
503.660	1	7
503.830	1	6
504.000	1	6
504.170	1	8
504.340	1	4
504.511	1	8
504.681	1	-1
504.851	1	11
505.021	1	5
505.192	1	9
505.362	1	14
505.532	1	9
505.702	1	1
505.872	1	7
506.043	1	-1
506.213	1	5
506.383	1	-1
506.553	1	2
506.723	1	2
506.893	1	3
507.064	1	4
507.234	1	3
507.404	1	21
507.574	1	6
507.744	1	-6
507.915	1	17
508.085	1	6
508.255	1	18
508.425	1	5
508.595	1	3
508.766	1	8
508.936	1	4
509.106	1	6
509.276	1	9
509.446	1	-2
509.616	1	17
509.787	1	5
509.957	1	5
510.127	1	11
510.297	1	6
510.467	1	10
510.638	1	0
510.808	1	5
510.978	1	2
511.148	1	-1
511.318	1	14
511.488	1	6
511.659	1	-5
511.829	1	9
511.999	1	7
512.169	1	10
512.339	1	6
512.509	1	12
512.680	1	6
512.850	1	10
513.020	1	-3
513.190	1	2
513.360	1	2
513.530	1	12
513.700	1	9
513.871	1	14
514.041	1	9
514.211	1	25
514.381	1	-1
514.551	1	9
514.721	1	9
514.892	1	4
515.062	1	-2
515.232	1	1
515.402	1	15
515.572	1	14
515.742	1	5
515.912	1	19
516.083	1	1
516.253	1	12
516.423	1	-5
516.593	1	16
516.763	1	13
516.933	1	0
517.104	1	-6
517.274	1	6
517.444	1	3
517.614	1	-3
517.784	1	17
517.954	1	-2
518.124	1	3
518.294	1	9
518.465	1	4
518.635	1	6
518.805	1	5
518.975	1	6
519.145	1	2
519.315	1	13
519.485	1	12
519.656	1	4
519.826	1	11
519.996	1	-2
520.166	1	8
520.336	1	9
520.506	1	10
520.676	1	-4
520.846	1	12
521.017	1	7
521.187	1	9
521.357	1	3
521.527	1	12
521.697	1	4
521.867	1	9
522.037	1	15
522.207	1	4
522.377	1	-1
522.548	1	4
522.718	1	5
522.888	1	2
523.058	1	4
523.228	1	12
523.398	1	3
523.568	1	-4
523.738	1	5
523.909	1	3
524.079	1	11
524.249	1	-2
524.419	1	-3
524.589	1	15
524.759	1	8
524.929	1	12
525.099	1	7
525.269	1	5
525.439	1	2
525.610	1	11
525.780	1	9
525.950	1	10
526.120	1	2
526.290	1	-8
526.460	1	10
526.630	1	10
526.800	1	1
526.970	1	3
527.140	1	14
527.311	1	-5
527.481	1	6
527.651	1	-2
527.821	1	-3
527.991	1	12
528.161	1	8
528.331	1	1
528.501	1	2
528.671	1	9
528.841	1	13
529.011	1	-2
529.181	1	19
529.352	1	0
529.522	1	-5
529.692	1	-1
529.862	1	4
530.032	1	5
530.202	1	14
530.372	1	7
530.542	1	6
530.712	1	-8
530.882	1	-1
531.052	1	7
531.222	1	2
531.392	1	-1
531.563	1	5
531.733	1	6
531.903	1	8
532.073	1	-3
532.243	1	6
532.413	1	13
532.583	1	2
532.753	1	8
532.923	1	8
533.093	1	-3
533.263	1	-5
533.433	1	7
533.603	1	-3
533.773	1	11
533.943	1	4
534.113	1	4
534.284	1	9
534.454	1	8
534.624	1	-1
534.794	1	15
534.964	1	4
535.134	1	9
535.304	1	6
535.474	1	-8
535.644	1	10
535.814	1	-1
535.984	1	0
536.154	1	5
536.324	1	4
536.494	1	11
536.664	1	-10
536.834	1	7
537.004	1	-4
537.174	1	4
537.344	1	14
537.514	1	8
537.685	1	8
537.855	1	2
538.025	1	6
538.195	1	8
538.365	1	9
538.535	1	-7
538.705	1	2
538.875	1	3
539.045	1	-4
539.215	1	8
539.385	1	-1
539.555	1	-3
539.725	1	6
539.895	1	9
540.065	1	3
540.235	1	2
540.405	1	11
540.575	1	12
540.745	1	2
540.915	1	8
541.085	1	-3
541.255	1	1
541.425	1	-5
541.595	1	-7
541.765	1	0
541.935	1	15
542.105	1	-1
542.275	1	4
542.445	1	7
542.615	1	7
542.785	1	13
542.955	1	2
543.125	1	4
543.295	1	19
543.465	1	1
543.635	1	-11
543.805	1	9
543.975	1	6
544.145	1	11
544.315	1	-7
544.485	1	4
544.655	1	7
544.825	1	7
544.995	1	-2
545.165	1	10
545.335	1	1
545.505	1	8
545.675	1	7
545.845	1	5
546.015	1	1
546.185	1	2
546.355	1	9
546.525	1	12
546.695	1	4
546.865	1	-6
547.035	1	10
547.205	1	5
547.375	1	4
547.545	1	0
547.715	1	6
547.885	1	12
548.055	1	4
548.225	1	-2
548.395	1	10
548.565	1	-3
548.735	1	6
548.905	1	1
549.075	1	4
549.245	1	8
549.415	1	9
549.585	1	10
549.755	1	11
549.925	1	-5
550.095	1	8
550.265	1	-11
550.435	1	0
550.605	1	2
550.775	1	8
550.945	1	4
551.115	1	3
551.285	1	-1
551.455	1	-4
551.625	1	9
551.795	1	5
551.965	1	2
552.135	1	-10
552.305	1	8
552.475	1	12
552.645	1	18
552.815	1	-5
552.985	1	6
553.155	1	-1
553.325	1	6
553.495	1	0
553.665	1	11
553.835	1	-5
554.004	1	10
554.174	1	5
554.344	1	-6
554.514	1	6
554.684	1	-1
554.854	1	0
555.024	1	6
555.194	1	5
555.364	1	2
555.534	1	3
555.704	1	3
555.874	1	13
556.044	1	0
556.214	1	-12
556.384	1	1
556.554	1	1
556.724	1	-5
556.894	1	-7
557.064	1	1
557.234	1	4
557.404	1	5
557.573	1	-1
557.743	1	6
557.913	1	0
558.083	1	0
558.253	1	1
558.423	1	-2
558.593	1	3
558.763	1	2
558.933	1	5
559.103	1	-1
559.273	1	7
559.443	1	-4
559.613	1	-8
559.783	1	13
559.953	1	0
560.122	1	1
560.292	1	8
560.462	1	3
560.632	1	-2
560.802	1	-5
560.972	1	7
561.142	1	7
561.312	1	3
561.482	1	2
561.652	1	6
561.822	1	3
561.992	1	3
562.162	1	1
562.331	1	-3
562.501	1	3
562.671	1	14
562.841	1	3
563.011	1	13
563.181	1	13
563.351	1	-10
563.521	1	14
563.691	1	-1
563.861	1	2
564.031	1	-1
564.201	1	-2
564.370	1	10
564.540	1	8
564.710	1	12
564.880	1	14
565.050	1	-7
565.220	1	10
565.390	1	6
565.560	1	16
565.730	1	11
565.900	1	-8
566.069	1	8
566.239	1	-1
566.409	1	9
566.579	1	0
566.749	1	17
566.919	1	11
567.089	1	7
567.259	1	-2
567.429	1	3
567.599	1	1
567.768	1	-1
567.938	1	-5
568.108	1	3
568.278	1	-4
568.448	1	16
568.618	1	8
568.788	1	3
568.958	1	15
569.128	1	8
569.297	1	3
569.467	1	16
569.637	1	1
569.807	1	1
569.977	1	5
570.147	1	-8
570.317	1	15
570.487	1	1
570.656	1	4
570.826	1	10
570.996	1	2
571.166	1	6
571.336	1	13
571.506	1	-4
571.676	1	6
571.846	1	3
572.015	1	2
572.185	1	2
572.355	1	5
572.525	1	5
572.695	1	4
572.865	1	-3
573.035	1	-3
573.205	1	-4
573.374	1	9
573.544	1	5
573.714	1	15
573.884	1	8
574.054	1	9
574.224	1	9
574.394	1	-2
574.563	1	0
574.733	1	-4
574.903	1	11
575.073	1	5
575.243	1	-2
575.413	1	6
575.583	1	1
575.752	1	-2
575.922	1	4
576.092	1	7
576.262	1	-2
576.432	1	1
576.602	1	-1
576.772	1	-7
576.941	1	9
577.111	1	7
577.281	1	8
577.451	1	9
577.621	1	11
577.791	1	-7
577.960	1	10
578.130	1	-8
578.300	1	8
578.470	1	6
578.640	1	-2
578.810	1	0
578.979	1	4
579.149	1	4
579.319	1	5
579.489	1	2
579.659	1	2
579.829	1	0
579.998	1	-5
580.168	1	3
580.338	1	0
580.508	1	6
580.678	1	-10
580.848	1	5
581.017	1	15
581.187	1	-6
581.357	1	-14
581.527	1	2
581.697	1	7
581.867	1	0
582.036	1	-4
582.206	1	1
582.376	1	5
582.546	1	3
582.716	1	-3
582.885	1	-2
583.055	1	7
583.225	1	1
583.395	1	2
583.565	1	14
583.735	1	-4
583.904	1	-1
584.074	1	6
584.244	1	8
584.414	1	3
584.584	1	-4
584.753	1	9
584.923	1	8
585.093	1	5
585.263	1	17
585.433	1	-4
585.602	1	8
585.772	1	-3
585.942	1	0
586.112	1	7
586.282	1	-1
586.451	1	-5
586.621	1	11
586.791	1	1
586.961	1	11
587.131	1	3
587.300	1	-11
587.470	1	-3
587.640	1	4
587.810	1	2
587.980	1	14
588.149	1	8
588.319	1	5
588.489	1	5
588.659	1	-4
588.829	1	2
588.998	1	10
589.168	1	2
589.338	1	10
589.508	1	7
589.677	1	7
589.847	1	10
590.017	1	1
590.187	1	-11
590.357	1	1
590.526	1	17
590.696	1	6
590.866	1	9
591.036	1	6
591.205	1	-4
591.375	1	-3
591.545	1	2
591.715	1	8
591.885	1	9
592.054	1	0
592.224	1	0
592.394	1	10
592.564	1	-2
592.733	1	12
592.903	1	-5
593.073	1	-1
593.243	1	5
593.412	1	-6
593.582	1	11
593.752	1	6
593.922	1	-3
594.091	1	10
594.261	1	-8
594.431	1	-1
594.601	1	11
594.771	1	2
594.940	1	5
595.110	1	-1
595.280	1	2
595.450	1	4
595.619	1	-6
595.789	1	-7
595.959	1	-3
596.129	1	-1
596.298	1	-6
596.468	1	4
596.638	1	15
596.808	1	16
596.977	1	3
597.147	1	11
597.317	1	6
597.487	1	0
597.656	1	1
597.826	1	4
597.996	1	14
598.166	1	0
598.335	1	3
598.505	1	6
598.675	1	2
598.844	1	3
599.014	1	-7
599.184	1	16
599.354	1	11
599.523	1	-10
599.693	1	4
599.863	1	-2
600.033	1	-2
600.202	1	-8
600.372	1	-7
600.542	1	8
600.712	1	9
600.881	1	9
601.051	1	4
601.221	1	1
601.390	1	1
601.560	1	0
601.730	1	13
601.900	1	4
602.069	1	5
602.239	1	-4
602.409	1	14
602.578	1	-1
602.748	1	5
602.918	1	-5
603.088	1	1
603.257	1	0
603.427	1	-9
603.597	1	3
603.767	1	-1
603.936	1	12
604.106	1	2
604.276	1	4
604.445	1	-1
604.615	1	0
604.785	1	4
604.954	1	12
605.124	1	3
605.294	1	1
605.464	1	13
605.633	1	9
605.803	1	-2
605.973	1	-3
606.142	1	13
606.312	1	4
606.482	1	5
606.652	1	7
606.821	1	8
606.991	1	9
607.161	1	20
607.330	1	-10
607.500	1	1
607.670	1	-3
607.839	1	16
608.009	1	-6
608.179	1	3
608.348	1	23
608.518	1	5
608.688	1	13
608.858	1	5
609.027	1	-11
609.197	1	9
609.367	1	5
609.536	1	0
609.706	1	-1
609.876	1	-3
610.045	1	-7
610.215	1	-4
610.385	1	15
610.554	1	-5
610.724	1	9
610.894	1	11
611.063	1	2
611.233	1	5
611.403	1	0
611.572	1	5
611.742	1	4
611.912	1	2
612.081	1	13
612.251	1	13
612.421	1	5
612.590	1	0
612.760	1	11
612.930	1	-2
613.099	1	4
613.269	1	2
613.439	1	4
613.608	1	14
613.778	1	-1
613.948	1	7
614.117	1	2
614.287	1	7
614.457	1	-4
614.626	1	0
614.796	1	9
614.966	1	3
615.135	1	2
615.305	1	-1
615.475	1	8
615.644	1	4
615.814	1	-5
615.984	1	0
616.153	1	3
616.323	1	-5
616.493	1	10
616.662	1	5
616.832	1	12
617.002	1	11
617.171	1	1
617.341	1	-3
617.511	1	9
617.680	1	4
617.850	1	3
618.019	1	2
618.189	1	9
618.359	1	0
618.528	1	4
618.698	1	3
618.868	1	10
619.037	1	4
619.207	1	-5
619.377	1	9
619.546	1	1
619.716	1	-1
619.885	1	18
620.055	1	20
620.225	1	8
620.394	1	2
620.564	1	4
620.734	1	2
620.903	1	-1
621.073	1	1
621.242	1	4
621.412	1	5
621.582	1	-2
621.751	1	3
621.921	1	7
622.091	1	1
622.260	1	1
622.430	1	3
622.599	1	9
622.769	1	3
622.939	1	9
623.108	1	8
623.278	1	16
623.448	1	1
623.617	1	2
623.787	1	3
623.956	1	1
624.126	1	12
624.296	1	10
624.465	1	-4
624.635	1	-7
624.804	1	10
624.974	1	9
625.144	1	17
625.313	1	-4
625.483	1	5
625.652	1	4
625.822	1	14
625.992	1	-3
626.161	1	6
626.331	1	2
626.501	1	8
626.670	1	6
626.840	1	6
627.009	1	9
627.179	1	-5
627.348	1	8
627.518	1	14
627.688	1	6
627.857	1	8
628.027	1	0
628.196	1	6
628.366	1	8
628.536	1	2
628.705	1	2
628.875	1	11
629.044	1	-7
629.214	1	2
629.384	1	-1
629.553	1	9
629.723	1	-1
629.892	1	-1
630.062	1	7
630.232	1	4
630.401	1	3
630.571	1	6
630.740	1	1
630.910	1	2
631.079	1	1
631.249	1	-1
631.419	1	7
631.588	1	-9
631.758	1	0
631.927	1	5
632.097	1	10
632.266	1	7
632.436	1	-3
632.606	1	7
632.775	1	16
632.945	1	-4
633.114	1	2
633.284	1	1
633.453	1	0
633.623	1	3
633.793	1	16
633.962	1	0
634.132	1	6
634.301	1	14
634.471	1	17
634.640	1	11
634.810	1	6
634.979	1	15
635.149	1	1
635.319	1	1
635.488	1	-5
635.658	1	0
635.827	1	6
635.997	1	7
636.166	1	16
636.336	1	8
636.505	1	19
636.675	1	7
636.845	1	4
637.014	1	11
637.184	1	0
637.353	1	9
637.523	1	9
637.692	1	11
637.862	1	-3
638.031	1	9
638.201	1	4
638.370	1	5
638.540	1	-1
638.710	1	2
638.879	1	-5
639.049	1	12
639.218	1	-2
639.388	1	11
639.557	1	2
639.727	1	10
639.896	1	-5
640.066	1	-4
640.235	1	9
640.405	1	-1
640.574	1	16
640.744	1	4
640.914	1	11
641.083	1	5
641.253	1	10
641.422	1	13
641.592	1	6
641.761	1	14
641.931	1	-7
642.100	1	3
642.270	1	6
642.439	1	5
642.609	1	3
642.778	1	1
642.948	1	-1
643.117	1	11
643.287	1	2
643.456	1	-12
643.626	1	3
643.795	1	7
643.965	1	11
644.134	1	5
644.304	1	8
644.473	1	-2
644.643	1	6
644.812	1	4
644.982	1	7
645.151	1	-2
645.321	1	4
645.490	1	8
645.660	1	3
645.829	1	-4
645.999	1	8
646.168	1	12
646.338	1	3
646.507	1	-16
646.677	1	9
646.846	1	10
647.016	1	13
647.185	1	10
647.355	1	12
647.524	1	3
647.694	1	13
647.863	1	-2
648.033	1	11
648.202	1	4
648.372	1	10
648.541	1	1
648.711	1	0
648.880	1	14
649.050	1	9
649.219	1	0
649.389	1	9
649.558	1	-2
649.728	1	-3
649.897	1	-2
650.067	1	-1
650.236	1	17
650.406	1	3
650.575	1	9
650.745	1	6
650.914	1	1
651.084	1	1
651.253	1	1
651.423	1	-6
651.592	1	13
651.762	1	4
651.931	1	10
652.101	1	-1
652.270	1	-2
652.440	1	9
652.609	1	6
652.778	1	10
652.948	1	-2
653.117	1	8
653.287	1	3
653.456	1	3
653.626	1	4
653.795	1	8
653.965	1	15
654.134	1	-1
654.304	1	7
654.473	1	7
654.643	1	6
654.812	1	8
654.982	1	6
655.151	1	5
655.320	1	6
655.490	1	1
655.659	1	7
655.829	1	3
655.998	1	5
656.168	1	-7
656.337	1	6
656.507	1	1
656.676	1	8
656.846	1	-7
657.015	1	19
657.184	1	-4
657.354	1	-1
657.523	1	5
657.693	1	11
657.862	1	6
658.032	1	-6
658.201	1	5
658.371	1	7
658.540	1	12
658.709	1	2
658.879	1	-5
659.048	1	8
659.218	1	4
659.387	1	4
659.557	1	17
659.726	1	21
659.895	1	1
660.065	1	9
660.234	1	6
660.404	1	14
660.573	1	8
660.743	1	9
660.912	1	9
661.081	1	0
661.251	1	-1
661.420	1	3
661.590	1	10
661.759	1	2
661.929	1	19
662.098	1	4
662.267	1	15
662.437	1	7
662.606	1	8
662.776	1	13
662.945	1	17
663.115	1	-5
663.284	1	-1
663.453	1	4
663.623	1	2
663.792	1	5
663.962	1	3
664.131	1	3
664.300	1	7
664.470	1	0
664.639	1	4
664.809	1	1
664.978	1	8
665.148	1	9
665.317	1	0
665.486	1	4
665.656	1	5
665.825	1	6
665.995	1	6
666.164	1	11
666.333	1	8
666.503	1	13
666.672	1	7
666.842	1	-4
667.011	1	2
667.180	1	5
667.350	1	11
667.519	1	-4
667.689	1	18
667.858	1	10
668.027	1	5
668.197	1	8
668.366	1	11
668.536	1	0
668.705	1	11
668.874	1	5
669.044	1	3
669.213	1	3
669.382	1	14
669.552	1	4
669.721	1	11
669.891	1	0
670.060	1	-4
670.229	1	4
670.399	1	6
670.568	1	15
670.738	1	-5
670.907	1	6
671.076	1	11
671.246	1	-6
671.415	1	2
671.584	1	4
671.754	1	11
671.923	1	1
672.093	1	10
672.262	1	14
672.431	1	18
672.601	1	6
672.770	1	-5
672.939	1	5
673.109	1	0
673.278	1	23
673.448	1	-3
673.617	1	1
673.786	1	0
