325.333	1	3
325.504	1	5
325.675	1	-8
325.846	1	-3
326.017	1	0
326.188	1	-1
326.359	1	0
326.531	1	1
326.702	1	7
326.873	1	9
327.044	1	3
327.215	1	0
327.386	1	2
327.557	1	8
327.728	1	-9
327.899	1	-5
328.070	1	5
328.241	1	4
328.412	1	-7
328.583	1	1
328.754	1	-2
328.926	1	6
329.097	1	8
329.268	1	0
329.439	1	4
329.610	1	3
329.781	1	9
329.952	1	5
330.123	1	-9
330.294	1	5
330.465	1	7
330.636	1	-1
330.807	1	1
330.978	1	4
331.149	1	-2
331.320	1	5
331.492	1	3
331.663	1	2
331.834	1	2
332.005	1	8
332.176	1	13
332.347	1	10
332.518	1	-3
332.689	1	11
332.860	1	-5
333.031	1	-1
333.202	1	8
333.373	1	3
333.544	1	-4
333.715	1	-3
333.886	1	-2
334.057	1	7
334.228	1	6
334.399	1	0
334.570	1	7
334.741	1	11
334.912	1	7
335.084	1	-2
335.255	1	0
335.426	1	-6
335.597	1	6
335.768	1	-5
335.939	1	4
336.110	1	1
336.281	1	3
336.452	1	16
336.623	1	7
336.794	1	-3
336.965	1	-3
337.136	1	1
337.307	1	5
337.478	1	5
337.649	1	-2
337.820	1	-8
337.991	1	8
338.162	1	9
338.333	1	-1
338.504	1	-3
338.675	1	-3
338.846	1	6
339.017	1	-2
339.188	1	4
339.359	1	1
339.530	1	4
339.701	1	-7
339.872	1	-6
340.043	1	8
340.214	1	7
340.385	1	10
340.556	1	3
340.727	1	5
340.898	1	-3
341.069	1	5
341.240	1	4
341.411	1	2
341.582	1	13
341.753	1	8
341.924	1	-2
342.095	1	4
342.266	1	-13
342.437	1	6
342.608	1	-4
342.779	1	-7
342.950	1	-1
343.121	1	8
343.292	1	4
343.463	1	2
343.634	1	9
343.805	1	-2
343.976	1	6
344.147	1	3
344.318	1	6
344.489	1	1
344.660	1	-3
344.831	1	-2
345.002	1	-2
345.173	1	7
345.344	1	4
345.515	1	3
345.686	1	4
345.857	1	5
346.028	1	12
346.199	1	3
346.370	1	-5
346.541	1	8
346.712	1	-4
346.883	1	1
347.054	1	-3
347.225	1	-4
347.396	1	13
347.567	1	11
347.738	1	2
347.909	1	-3
348.080	1	3
348.251	1	-4
348.422	1	-11
348.593	1	2
348.764	1	1
348.935	1	-3
349.106	1	0
349.277	1	7
349.448	1	14
349.619	1	11
349.790	1	9
349.961	1	3
350.132	1	1
350.303	1	7
350.474	1	-1
350.645	1	-7
350.816	1	11
350.987	1	0
351.157	1	3
351.328	1	1
351.499	1	-6
351.670	1	11
351.841	1	-6
352.012	1	1
352.183	1	-4
352.354	1	2
352.525	1	-2
352.696	1	4
352.867	1	-1
353.038	1	4
353.209	1	6
353.380	1	0
353.551	1	8
353.722	1	1
353.893	1	3
354.064	1	6
354.235	1	4
354.406	1	-3
354.576	1	-2
354.747	1	2
354.918	1	4
355.089	1	3
355.260	1	10
355.431	1	11
355.602	1	2
355.773	1	5
355.944	1	8
356.115	1	-8
356.286	1	1
356.457	1	5
356.628	1	17
356.799	1	-2
356.970	1	5
357.141	1	7
357.311	1	8
357.482	1	-3
357.653	1	4
357.824	1	11
357.995	1	13
358.166	1	6
358.337	1	3
358.508	1	3
358.679	1	0
358.850	1	-1
359.021	1	0
359.192	1	7
359.363	1	3
359.533	1	1
359.704	1	2
359.875	1	16
360.046	1	0
360.217	1	1
360.388	1	11
360.559	1	7
360.730	1	-2
360.901	1	0
361.072	1	2
361.243	1	4
361.414	1	5
361.584	1	14
361.755	1	7
361.926	1	-3
362.097	1	5
362.268	1	-1
362.439	1	6
362.610	1	5
362.781	1	2
362.952	1	4
363.123	1	13
363.293	1	13
363.464	1	5
363.635	1	10
363.806	1	7
363.977	1	2
364.148	1	-5
364.319	1	9
364.490	1	5
364.661	1	10
364.832	1	9
365.002	1	7
365.173	1	11
365.344	1	4
365.515	1	6
365.686	1	-1
365.857	1	14
366.028	1	1
366.199	1	15
366.370	1	11
366.540	1	4
366.711	1	3
366.882	1	2
367.053	1	6
367.224	1	-2
367.395	1	5
367.566	1	10
367.737	1	4
367.908	1	7
368.078	1	21
368.249	1	8
368.420	1	10
368.591	1	14
368.762	1	10
368.933	1	-1
369.104	1	9
369.274	1	0
369.445	1	9
369.616	1	9
369.787	1	5
369.958	1	14
370.129	1	10
370.300	1	5
370.471	1	9
370.641	1	5
370.812	1	8
370.983	1	2
371.154	1	14
371.325	1	9
371.496	1	-4
371.667	1	8
371.837	1	8
372.008	1	9
372.179	1	4
372.350	1	9
372.521	1	-3
372.692	1	7
372.863	1	3
373.033	1	11
373.204	1	3
373.375	1	3
373.546	1	14
373.717	1	1
373.888	1	1
374.059	1	23
374.229	1	4
374.400	1	-1
374.571	1	11
374.742	1	0
374.913	1	3
375.084	1	3
375.254	1	19
375.425	1	-6
375.596	1	7
375.767	1	4
375.938	1	8
376.109	1	-1
376.279	1	-2
376.450	1	9
376.621	1	16
376.792	1	3
376.963	1	5
377.134	1	13
377.304	1	10
377.475	1	6
377.646	1	9
377.817	1	-8
377.988	1	-2
378.159	1	0
378.329	1	7
378.500	1	1
378.671	1	8
378.842	1	2
379.013	1	15
379.184	1	14
379.354	1	3
379.525	1	-5
379.696	1	-6
379.867	1	5
380.038	1	-6
380.209	1	3
380.379	1	5
380.550	1	5
380.721	1	14
380.892	1	-2
381.063	1	6
381.233	1	0
381.404	1	7
381.575	1	13
381.746	1	15
381.917	1	0
382.087	1	6
382.258	1	3
382.429	1	13
382.600	1	14
382.771	1	12
382.941	1	5
383.112	1	3
383.283	1	14
383.454	1	0
383.625	1	9
383.795	1	6
383.966	1	11
384.137	1	3
384.308	1	11
384.479	1	11
384.649	1	16
384.820	1	6
384.991	1	9
385.162	1	2
385.333	1	1
385.503	1	4
385.674	1	14
385.845	1	3
386.016	1	3
386.187	1	5
386.357	1	6
386.528	1	-10
386.699	1	1
386.870	1	10
387.041	1	2
387.211	1	2
387.382	1	10
387.553	1	6
387.724	1	-5
387.894	1	-2
388.065	1	4
388.236	1	-5
388.407	1	11
388.578	1	-4
388.748	1	9
388.919	1	11
389.090	1	6
389.261	1	6
389.431	1	18
389.602	1	2
389.773	1	5
389.944	1	1
390.114	1	3
390.285	1	-6
390.456	1	4
390.627	1	8
390.798	1	16
390.968	1	-3
391.139	1	7
391.310	1	18
391.481	1	-2
391.651	1	7
391.822	1	-3
391.993	1	7
392.164	1	3
392.334	1	8
392.505	1	-1
392.676	1	14
392.847	1	7
393.017	1	18
393.188	1	7
393.359	1	11
393.530	1	12
393.700	1	11
393.871	1	1
394.042	1	0
394.213	1	11
394.383	1	7
394.554	1	7
394.725	1	3
394.896	1	6
395.066	1	7
395.237	1	5
395.408	1	6
395.579	1	9
395.749	1	8
395.920	1	3
396.091	1	5
396.262	1	5
396.432	1	0
396.603	1	18
396.774	1	-2
396.945	1	3
397.115	1	11
397.286	1	4
397.457	1	7
397.627	1	12
397.798	1	7
397.969	1	3
398.140	1	4
398.310	1	13
398.481	1	2
398.652	1	8
398.823	1	10
398.993	1	12
399.164	1	6
399.335	1	3
399.505	1	0
399.676	1	12
399.847	1	3
400.018	1	13
400.188	1	7
400.359	1	-2
400.530	1	0
400.700	1	4
400.871	1	9
401.042	1	2
401.213	1	-2
401.383	1	6
401.554	1	13
401.725	1	11
401.895	1	10
402.066	1	-2
402.237	1	0
402.408	1	22
402.578	1	7
402.749	1	6
402.920	1	7
403.090	1	14
403.261	1	18
403.432	1	5
403.603	1	-1
403.773	1	15
403.944	1	7
404.115	1	21
404.285	1	1
404.456	1	11
404.627	1	-4
404.797	1	2
404.968	1	11
405.139	1	6
405.310	1	7
405.480	1	10
405.651	1	14
405.822	1	14
405.992	1	4
406.163	1	18
406.334	1	-3
406.504	1	11
406.675	1	-2
406.846	1	4
407.016	1	4
407.187	1	18
407.358	1	-1
407.528	1	1
407.699	1	7
407.870	1	7
408.041	1	14
408.211	1	4
408.382	1	8
408.553	1	3
408.723	1	15
408.894	1	11
409.065	1	14
409.235	1	6
409.406	1	9
409.577	1	11
409.747	1	3
409.918	1	3
410.089	1	11
410.259	1	9
410.430	1	3
410.601	1	13
410.771	1	8
410.942	1	25
411.113	1	2
411.283	1	8
411.454	1	7
411.625	1	6
411.795	1	8
411.966	1	16
412.137	1	5
412.307	1	16
412.478	1	10
412.649	1	-3
412.819	1	9
412.990	1	4
413.161	1	4
413.331	1	8
413.502	1	10
413.672	1	11
413.843	1	10
414.014	1	12
414.184	1	3
414.355	1	12
414.526	1	-3
414.696	1	5
414.867	1	12
415.038	1	-4
415.208	1	7
415.379	1	16
415.550	1	16
415.720	1	5
415.891	1	2
416.062	1	11
416.232	1	3
416.403	1	6
416.573	1	13
416.744	1	1
416.915	1	13
417.085	1	11
417.256	1	9
417.427	1	17
417.597	1	-6
417.768	1	4
417.939	1	12
418.109	1	6
418.280	1	9
418.450	1	7
418.621	1	1
418.792	1	0
418.962	1	18
419.133	1	1
419.304	1	13
419.474	1	11
419.645	1	0
419.815	1	9
419.986	1	2
420.157	1	12
420.327	1	14
420.498	1	8
420.669	1	13
420.839	1	14
421.010	1	16
421.180	1	5
421.351	1	6
421.522	1	-1
421.692	1	12
421.863	1	10
422.033	1	18
422.204	1	21
422.375	1	8
422.545	1	9
422.716	1	-6
422.886	1	0
423.057	1	4
423.228	1	-2
423.398	1	13
423.569	1	4
423.740	1	5
423.910	1	1
424.081	1	18
424.251	1	-4
424.422	1	13
424.593	1	9
424.763	1	11
424.934	1	5
425.104	1	4
425.275	1	8
425.445	1	10
425.616	1	0
425.787	1	3
425.957	1	10
426.128	1	1
426.298	1	7
426.469	1	-3
426.640	1	8
426.810	1	8
426.981	1	5
427.151	1	19
427.322	1	12
427.493	1	9
427.663	1	3
427.834	1	2
428.004	1	0
428.175	1	6
428.345	1	6
428.516	1	5
428.687	1	3
428.857	1	-4
429.028	1	8
429.198	1	-4
429.369	1	1
429.540	1	2
429.710	1	7
429.881	1	0
430.051	1	-3
430.222	1	0
430.392	1	10
430.563	1	6
430.734	1	9
430.904	1	5
431.075	1	8
431.245	1	10
431.416	1	7
431.586	1	-3
431.757	1	10
431.927	1	9
432.098	1	9
432.269	1	7
432.439	1	14
432.610	1	4
432.780	1	14
432.951	1	3
433.121	1	12
433.292	1	2
433.462	1	8
433.633	1	6
433.804	1	13
433.974	1	2
434.145	1	13
434.315	1	10
434.486	1	2
434.656	1	-1
434.827	1	2
434.997	1	4
435.168	1	5
435.339	1	2
435.509	1	2
435.680	1	0
435.850	1	-6
436.021	1	4
436.191	1	5
436.362	1	0
436.532	1	10
436.703	1	-3
436.873	1	10
437.044	1	1
437.214	1	25
437.385	1	15
437.556	1	9
437.726	1	-3
437.897	1	3
438.067	1	1
438.238	1	-1
438.408	1	2
438.579	1	14
438.749	1	8
438.920	1	3
439.090	1	8
439.261	1	1
439.431	1	1
439.602	1	11
439.772	1	14
439.943	1	11
440.113	1	3
440.284	1	2
440.455	1	15
440.625	1	16
440.796	1	17
440.966	1	1
441.137	1	-1
441.307	1	9
441.478	1	4
441.648	1	2
441.819	1	9
441.989	1	11
442.160	1	-9
442.330	1	3
442.501	1	5
442.671	1	13
442.842	1	7
443.012	1	10
443.183	1	5
443.353	1	6
443.524	1	3
443.694	1	0
443.865	1	10
444.035	1	-8
444.206	1	9
444.376	1	5
444.547	1	8
444.717	1	3
444.888	1	7
445.058	1	16
445.229	1	11
445.399	1	17
445.570	1	19
445.740	1	6
445.911	1	-3
446.081	1	6
446.252	1	1
446.422	1	7
446.593	1	-4
446.763	1	22
446.934	1	0
447.104	1	7
447.275	1	3
447.445	1	3
447.616	1	0
447.786	1	19
447.957	1	13
448.127	1	7
448.298	1	4
448.468	1	0
448.639	1	20
448.809	1	11
448.979	1	-2
449.150	1	5
449.320	1	3
449.491	1	4
449.661	1	12
449.832	1	-5
450.002	1	8
450.173	1	1
450.343	1	15
450.514	1	2
450.684	1	4
450.855	1	8
451.025	1	3
451.196	1	-8
451.366	1	13
451.537	1	-3
451.707	1	6
451.878	1	1
452.048	1	15
452.218	1	0
452.389	1	10
452.559	1	15
452.730	1	9
452.900	1	14
453.071	1	-3
453.241	1	4
453.412	1	-3
453.582	1	8
453.753	1	-1
453.923	1	18
454.093	1	3
454.264	1	-6
454.434	1	16
454.605	1	12
454.775	1	-7
454.946	1	4
455.116	1	4
455.287	1	5
455.457	1	12
455.628	1	1
455.798	1	2
455.968	1	-1
456.139	1	6
456.309	1	16
456.480	1	6
456.650	1	-1
456.821	1	6
456.991	1	5
457.161	1	17
457.332	1	2
457.502	1	2
457.673	1	0
457.843	1	8
458.014	1	9
458.184	1	4
458.355	1	2
458.525	1	6
458.695	1	1
458.866	1	16
459.036	1	15
459.207	1	9
459.377	1	5
459.548	1	8
459.718	1	-5
459.888	1	11
460.059	1	11
460.229	1	5
460.400	1	9
460.570	1	10
460.740	1	7
460.911	1	10
461.081	1	3
461.252	1	5
461.422	1	-3
461.593	1	11
461.763	1	12
461.933	1	7
462.104	1	10
462.274	1	10
462.445	1	7
462.615	1	2
462.785	1	2
462.956	1	0
463.126	1	11
463.297	1	7
463.467	1	16
463.638	1	8
463.808	1	13
463.978	1	5
464.149	1	-2
464.319	1	1
464.490	1	4
464.660	1	15
464.830	1	2
465.001	1	6
465.171	1	-3
465.342	1	0
465.512	1	-2
465.682	1	3
465.853	1	5
466.023	1	23
466.194	1	-6
466.364	1	7
466.534	1	-2
466.705	1	12
466.875	1	21
467.045	1	7
467.216	1	8
467.386	1	6
467.557	1	19
467.727	1	-4
467.897	1	15
468.068	1	5
468.238	1	3
468.409	1	9
468.579	1	14
468.749	1	9
468.920	1	8
469.090	1	-2
469.260	1	10
469.431	1	4
469.601	1	11
469.772	1	3
469.942	1	6
470.112	1	-1
470.283	1	9
470.453	1	6
470.623	1	13
470.794	1	-2
470.964	1	13
471.135	1	15
471.305	1	4
471.475	1	10
471.646	1	3
471.816	1	5
471.986	1	0
472.157	1	5
472.327	1	-1
472.497	1	6
472.668	1	1
472.838	1	-1
473.009	1	6
473.179	1	7
473.349	1	8
473.520	1	3
473.690	1	9
473.860	1	-3
474.031	1	-1
474.201	1	5
474.371	1	8
474.542	1	5
474.712	1	-4
474.882	1	2
475.053	1	5
475.223	1	0
475.394	1	3
475.564	1	9
475.734	1	2
475.905	1	10
476.075	1	5
476.245	1	8
476.416	1	2
476.586	1	2
476.756	1	1
476.927	1	13
477.097	1	9
477.267	1	6
477.438	1	0
477.608	1	11
477.778	1	7
477.949	1	10
478.119	1	2
478.289	1	-7
478.460	1	2
478.630	1	10
478.800	1	8
478.971	1	8
479.141	1	7
479.311	1	8
479.482	1	-14
479.652	1	17
479.822	1	2
479.993	1	17
480.163	1	3
480.333	1	17
480.504	1	3
480.674	1	-12
480.844	1	-5
481.015	1	7
481.185	1	9
481.355	1	0
481.525	1	-1
481.696	1	6
481.866	1	-1
482.036	1	6
482.207	1	0
482.377	1	10
482.547	1	-4
482.718	1	-1
482.888	1	-10
483.058	1	3
483.229	1	5
483.399	1	5
483.569	1	-1
483.740	1	5
483.910	1	14
484.080	1	22
484.250	1	4
484.421	1	11
484.591	1	0
484.761	1	2
484.932	1	14
485.102	1	-6
485.272	1	-6
485.443	1	11
485.613	1	0
485.783	1	3
485.953	1	0
486.124	1	4
486.294	1	11
486.464	1	2
486.635	1	-8
486.805	1	14
486.975	1	3
487.146	1	9
487.316	1	0
487.486	1	-3
487.656	1	6
487.827	1	9
487.997	1	2
488.167	1	3
488.338	1	1
488.508	1	6
488.678	1	12
488.848	1	8
489.019	1	-3
489.189	1	-2
489.359	1	3
489.529	1	6
489.700	1	-3
489.870	1	-6
490.040	1	-7
490.211	1	-4
490.381	1	17
490.551	1	-2
490.721	1	11
490.892	1	10
491.062	1	-3
491.232	1	7
491.402	1	-5
491.573	1	3
491.743	1	1
491.913	1	9
492.084	1	-1
492.254	1	21
492.424	1	2
492.594	1	-1
492.765	1	0
492.935	1	4
493.105	1	-2
493.275	1	11
493.446	1	5
493.616	1	-8
493.786	1	9
493.956	1	6
494.127	1	7
494.297	1	6
494.467	1	2
494.637	1	1
494.808	1	5
494.978	1	-4
495.148	1	7
495.318	1	3
495.489	1	7
495.659	1	5
495.829	1	11
495.999	1	3
496.170	1	7
496.340	1	2
496.510	1	12
496.680	1	2
496.851	1	6
497.021	1	6
497.191	1	2
497.361	1	6
497.532	1	13
497.702	1	-8
497.872	1	12
498.042	1	8
498.213	1	0
498.383	1	8
498.553	1	12
498.723	1	4
498.894	1	14
499.064	1	-1
499.234	1	3
499.404	1	4
499.574	1	4
499.745	1	2
499.915	1	-3
500.085	1	-2
500.255	1	-5
500.426	1	-2
500.596	1	5
500.766	1	2
500.936	1	5
501.106	1	14
501.277	1	9
501.447	1	-6
501.617	1	3
501.787	1	13
501.958	1	-1
502.128	1	-4
502.298	1	10
502.468	1	9
502.638	1	13
502.809	1	7
502.979	1	10
503.149	1	-2
503.319	1	3
503.489	1	2
503.660	1	2
503.830	1	5
504.000	1	-1
504.170	1	2
504.340	1	-3
504.511	1	10
504.681	1	4
504.851	1	0
505.021	1	16
505.192	1	13
505.362	1	6
505.532	1	8
505.702	1	1
505.872	1	6
506.043	1	-12
506.213	1	-7
506.383	1	1
506.553	1	7
506.723	1	-7
506.893	1	6
507.064	1	11
507.234	1	-10
507.404	1	15
507.574	1	13
507.744	1	-3
507.915	1	-3
508.085	1	1
508.255	1	5
508.425	1	5
508.595	1	-11
508.766	1	8
508.936	1	3
509.106	1	-5
509.276	1	11
509.446	1	-12
509.616	1	7
509.787	1	1
509.957	1	7
510.127	1	6
510.297	1	6
510.467	1	-2
510.638	1	-2
510.808	1	-9
510.978	1	-2
511.148	1	0
511.318	1	18
511.488	1	-1
511.659	1	-9
511.829	1	2
511.999	1	3
512.169	1	0
512.339	1	2
512.509	1	5
512.680	1	-1
512.850	1	-4
513.020	1	2
513.190	1	-2
513.360	1	3
513.530	1	5
513.700	1	6
513.871	1	15
514.041	1	5
514.211	1	13
514.381	1	-6
514.551	1	4
514.721	1	-2
514.892	1	3
515.062	1	-3
515.232	1	-3
515.402	1	3
515.572	1	-2
515.742	1	7
515.912	1	8
516.083	1	0
516.253	1	-3
516.423	1	0
516.593	1	6
516.763	1	2
516.933	1	0
517.104	1	-4
517.274	1	1
517.444	1	5
517.614	1	1
517.784	1	-1
517.954	1	4
518.124	1	-9
518.294	1	14
518.465	1	4
518.635	1	0
518.805	1	3
518.975	1	6
519.145	1	0
519.315	1	7
519.485	1	2
519.656	1	0
519.826	1	4
519.996	1	-5
520.166	1	3
520.336	1	3
520.506	1	2
520.676	1	-1
520.846	1	1
521.017	1	0
521.187	1	4
521.357	1	9
521.527	1	-4
521.697	1	-1
521.867	1	-2
522.037	1	14
522.207	1	4
522.377	1	-4
522.548	1	0
522.718	1	7
522.888	1	-2
523.058	1	7
523.228	1	1
523.398	1	0
523.568	1	1
523.738	1	-4
523.909	1	5
524.079	1	5
524.249	1	-7
524.419	1	3
524.589	1	5
524.759	1	5
524.929	1	6
525.099	1	4
525.269	1	17
525.439	1	4
525.610	1	7
525.780	1	10
525.950	1	4
526.120	1	7
526.290	1	9
526.460	1	8
526.630	1	-4
526.800	1	-3
526.970	1	1
527.140	1	0
527.311	1	-7
527.481	1	-1
527.651	1	-1
527.821	1	1
527.991	1	6
528.161	1	7
528.331	1	-1
528.501	1	4
528.671	1	-4
528.841	1	3
529.011	1	-4
529.181	1	2
529.352	1	6
529.522	1	-2
529.692	1	7
529.862	1	-3
530.032	1	3
530.202	1	10
530.372	1	-1
530.542	1	1
530.712	1	-1
530.882	1	0
531.052	1	5
531.222	1	-1
531.392	1	-3
531.563	1	-1
531.733	1	5
531.903	1	6
532.073	1	2
532.243	1	4
532.413	1	8
532.583	1	3
532.753	1	-7
532.923	1	10
533.093	1	-11
533.263	1	-6
533.433	1	1
533.603	1	-2
533.773	1	5
533.943	1	11
534.113	1	7
534.284	1	2
534.454	1	3
534.624	1	1
534.794	1	-2
534.964	1	8
535.134	1	0
535.304	1	-2
535.474	1	-2
535.644	1	6
535.814	1	-2
535.984	1	-1
536.154	1	4
536.324	1	-9
536.494	1	9
536.664	1	-9
536.834	1	2
537.004	1	-8
537.174	1	5
537.344	1	8
537.514	1	5
537.685	1	7
537.855	1	-3
538.025	1	-7
538.195	1	5
538.365	1	0
538.535	1	-2
538.705	1	-4
538.875	1	9
539.045	1	2
539.215	1	6
539.385	1	0
539.555	1	1
539.725	1	2
539.895	1	9
540.065	1	7
540.235	1	-10
540.405	1	10
540.575	1	7
540.745	1	-1
540.915	1	2
541.085	1	2
541.255	1	4
541.425	1	-1
541.595	1	-9
541.765	1	0
541.935	1	8
542.105	1	2
542.275	1	1
542.445	1	0
542.615	1	17
542.785	1	3
542.955	1	-6
543.125	1	-2
543.295	1	3
543.465	1	-6
543.635	1	-15
543.805	1	-2
543.975	1	-7
544.145	1	0
544.315	1	-1
544.485	1	13
544.655	1	7
544.825	1	1
544.995	1	14
545.165	1	6
545.335	1	-6
545.505	1	1
545.675	1	5
545.845	1	-7
546.015	1	2
546.185	1	-2
546.355	1	0
546.525	1	-8
546.695	1	-3
546.865	1	-4
547.035	1	1
547.205	1	5
547.375	1	9
547.545	1	-3
547.715	1	-2
547.885	1	3
548.055	1	10
548.225	1	-4
548.395	1	8
548.565	1	0
548.735	1	2
548.905	1	5
549.075	1	5
549.245	1	5
549.415	1	9
549.585	1	5
549.755	1	-2
549.925	1	-8
550.095	1	-7
550.265	1	-2
550.435	1	-1
550.605	1	-1
550.775	1	6
550.945	1	-4
551.115	1	0
551.285	1	7
551.455	1	9
551.625	1	1
551.795	1	4
551.965	1	4
552.135	1	-9
552.305	1	3
552.475	1	12
552.645	1	11
552.815	1	-1
552.985	1	-1
553.155	1	8
553.325	1	1
553.495	1	-2
553.665	1	-3
553.835	1	-3
554.004	1	-8
554.174	1	-10
554.344	1	-3
554.514	1	5
554.684	1	2
554.854	1	-1
555.024	1	16
555.194	1	0
555.364	1	2
555.534	1	4
555.704	1	-7
555.874	1	7
556.044	1	-1
556.214	1	-21
556.384	1	3
556.554	1	-5
556.724	1	-9
556.894	1	6
557.064	1	0
557.234	1	11
557.404	1	5
557.573	1	2
557.743	1	1
557.913	1	-6
558.083	1	0
558.253	1	9
558.423	1	0
558.593	1	8
558.763	1	3
558.933	1	10
559.103	1	0
559.273	1	2
559.443	1	5
559.613	1	-5
559.783	1	7
559.953	1	2
560.122	1	0
560.292	1	5
560.462	1	-6
560.632	1	-3
560.802	1	-1
560.972	1	-8
561.142	1	11
561.312	1	-2
561.482	1	-1
561.652	1	5
561.822	1	0
561.992	1	8
562.162	1	-2
562.331	1	-7
562.501	1	-11
562.671	1	12
562.841	1	0
563.011	1	6
563.181	1	5
563.351	1	6
563.521	1	6
563.691	1	-3
563.861	1	1
564.031	1	10
564.201	1	-6
564.370	1	-1
564.540	1	4
564.710	1	9
564.880	1	-1
565.050	1	-3
565.220	1	-7
565.390	1	3
565.560	1	4
565.730	1	8
565.900	1	-5
566.069	1	15
566.239	1	-14
566.409	1	2
566.579	1	2
566.749	1	10
566.919	1	-6
567.089	1	-7
567.259	1	5
567.429	1	-1
567.599	1	4
567.768	1	-1
567.938	1	-13
568.108	1	1
568.278	1	1
568.448	1	13
568.618	1	9
568.788	1	-1
568.958	1	0
569.128	1	6
569.297	1	4
569.467	1	4
569.637	1	6
569.807	1	-3
569.977	1	0
570.147	1	-11
570.317	1	7
570.487	1	7
570.656	1	-3
570.826	1	6
570.996	1	8
571.166	1	2
571.336	1	11
571.506	1	0
571.676	1	10
571.846	1	0
572.015	1	-4
572.185	1	-2
572.355	1	-2
572.525	1	2
572.695	1	2
572.865	1	-4
573.035	1	-2
573.205	1	-5
573.374	1	5
573.544	1	6
573.714	1	5
573.884	1	2
574.054	1	8
574.224	1	1
574.394	1	-5
574.563	1	4
574.733	1	-1
574.903	1	10
575.073	1	-3
575.243	1	-1
575.413	1	0
575.583	1	1
575.752	1	3
575.922	1	11
576.092	1	-1
576.262	1	11
576.432	1	4
576.602	1	-1
576.772	1	-18
576.941	1	10
577.111	1	2
577.281	1	0
577.451	1	11
577.621	1	2
577.791	1	-5
577.960	1	3
578.130	1	-6
578.300	1	6
578.470	1	-2
578.640	1	-2
578.810	1	0
578.979	1	-1
579.149	1	1
579.319	1	4
579.489	1	3
579.659	1	-4
579.829	1	-1
579.998	1	-4
580.168	1	-10
580.338	1	8
580.508	1	4
580.678	1	-7
580.848	1	-5
581.017	1	9
581.187	1	0
581.357	1	-8
581.527	1	-6
581.697	1	7
581.867	1	-9
582.036	1	-2
582.206	1	-3
582.376	1	-11
582.546	1	7
582.716	1	-8
582.885	1	3
583.055	1	-11
583.225	1	-5
583.395	1	12
583.565	1	11
583.735	1	-3
583.904	1	-1
584.074	1	-1
584.244	1	3
584.414	1	3
584.584	1	-6
584.753	1	6
584.923	1	7
585.093	1	-5
585.263	1	8
585.433	1	-3
585.602	1	1
585.772	1	4
585.942	1	-6
586.112	1	-3
586.282	1	1
586.451	1	-7
586.621	1	2
586.791	1	-5
586.961	1	1
587.131	1	7
587.300	1	-18
587.470	1	-3
587.640	1	0
587.810	1	-7
587.980	1	12
588.149	1	8
588.319	1	5
588.489	1	9
588.659	1	-8
588.829	1	-1
588.998	1	10
589.168	1	9
589.338	1	2
589.508	1	7
589.677	1	-4
589.847	1	0
590.017	1	0
590.187	1	-5
590.357	1	-7
590.526	1	10
590.696	1	7
590.866	1	3
591.036	1	1
591.205	1	-10
591.375	1	0
591.545	1	-5
591.715	1	2
591.885	1	11
592.054	1	9
592.224	1	8
592.394	1	0
592.564	1	-7
592.733	1	5
592.903	1	-1
593.073	1	1
593.243	1	13
593.412	1	-3
593.582	1	6
593.752	1	10
593.922	1	-4
594.091	1	8
594.261	1	2
594.431	1	-2
594.601	1	6
594.771	1	-11
594.940	1	9
595.110	1	8
595.280	1	-1
595.450	1	5
595.619	1	-4
595.789	1	-2
595.959	1	-6
596.129	1	5
596.298	1	6
596.468	1	2
596.638	1	4
596.808	1	13
596.977	1	-1
597.147	1	0
597.317	1	3
597.487	1	-3
597.656	1	-2
597.826	1	3
597.996	1	9
598.166	1	4
598.335	1	-4
598.505	1	0
598.675	1	-13
598.844	1	2
599.014	1	4
599.184	1	13
599.354	1	7
599.523	1	3
599.693	1	1
599.863	1	-3
600.033	1	0
600.202	1	-7
600.372	1	2
600.542	1	3
600.712	1	-4
600.881	1	-1
601.051	1	2
601.221	1	-8
601.390	1	7
601.560	1	-3
601.730	1	3
601.900	1	1
602.069	1	6
602.239	1	-11
602.409	1	8
602.578	1	9
602.748	1	8
602.918	1	-1
603.088	1	2
603.257	1	19
603.427	1	-6
603.597	1	4
603.767	1	-1
603.936	1	1
604.106	1	3
604.276	1	2
604.445	1	-1
604.615	1	-9
604.785	1	1
604.954	1	5
605.124	1	1
605.294	1	2
605.464	1	9
605.633	1	9
605.803	1	-1
605.973	1	0
606.142	1	10
606.312	1	-4
606.482	1	-4
606.652	1	13
606.821	1	8
606.991	1	7
607.161	1	15
607.330	1	-4
607.500	1	0
607.670	1	-1
607.839	1	4
608.009	1	-8
608.179	1	0
608.348	1	3
608.518	1	4
608.688	1	4
608.858	1	-8
609.027	1	-2
609.197	1	1
609.367	1	-6
609.536	1	-8
609.706	1	4
609.876	1	-3
610.045	1	-1
610.215	1	-5
610.385	1	5
610.554	1	-5
610.724	1	8
610.894	1	-2
611.063	1	-10
611.233	1	5
611.403	1	0
611.572	1	5
611.742	1	0
611.912	1	1
612.081	1	6
612.251	1	11
612.421	1	2
612.590	1	-12
612.760	1	5
612.930	1	-8
613.099	1	2
613.269	1	-1
613.439	1	11
613.608	1	14
613.778	1	-2
613.948	1	3
614.117	1	2
614.287	1	-2
614.457	1	-4
614.626	1	-2
614.796	1	3
614.966	1	1
615.135	1	-1
615.305	1	-1
615.475	1	1
615.644	1	7
615.814	1	-1
615.984	1	0
616.153	1	4
616.323	1	-5
616.493	1	8
616.662	1	8
616.832	1	6
617.002	1	9
617.171	1	-6
617.341	1	-2
617.511	1	0
617.680	1	7
617.850	1	0
618.019	1	8
618.189	1	4
618.359	1	0
618.528	1	9
618.698	1	10
618.868	1	6
619.037	1	-4
619.207	1	2
619.377	1	7
619.546	1	3
619.716	1	-3
619.885	1	11
620.055	1	2
620.225	1	7
620.394	1	9
620.564	1	8
620.734	1	1
620.903	1	-3
621.073	1	1
621.242	1	-7
621.412	1	4
621.582	1	-2
621.751	1	-6
621.921	1	0
622.091	1	3
622.260	1	2
622.430	1	3
622.599	1	2
622.769	1	1
622.939	1	14
623.108	1	10
623.278	1	5
623.448	1	-3
623.617	1	-7
623.787	1	8
623.956	1	-9
624.126	1	5
624.296	1	2
624.465	1	3
624.635	1	-8
624.804	1	7
624.974	1	-2
625.144	1	6
625.313	1	-3
625.483	1	6
625.652	1	6
625.822	1	3
625.992	1	0
626.161	1	4
626.331	1	4
626.501	1	0
626.670	1	-4
626.840	1	-4
627.009	1	8
627.179	1	-1
627.348	1	3
627.518	1	5
627.688	1	1
627.857	1	-8
628.027	1	3
628.196	1	3
628.366	1	-10
628.536	1	1
628.705	1	6
628.875	1	-5
629.044	1	-11
629.214	1	4
629.384	1	1
629.553	1	5
629.723	1	-6
629.892	1	4
630.062	1	10
630.232	1	-4
630.401	1	0
630.571	1	5
630.740	1	0
630.910	1	7
631.079	1	2
631.249	1	2
631.419	1	2
631.588	1	-11
631.758	1	0
631.927	1	1
632.097	1	2
632.266	1	-2
632.436	1	-1
632.606	1	4
632.775	1	2
632.945	1	2
633.114	1	-1
633.284	1	-1
633.453	1	0
633.623	1	2
633.793	1	3
633.962	1	0
634.132	1	11
634.301	1	11
634.471	1	4
634.640	1	15
634.810	1	-1
634.979	1	8
635.149	1	-10
635.319	1	3
635.488	1	0
635.658	1	-2
635.827	1	8
635.997	1	-7
636.166	1	5
636.336	1	6
636.505	1	10
636.675	1	-9
636.845	1	4
637.014	1	-1
637.184	1	-3
637.353	1	1
637.523	1	-4
637.692	1	3
637.862	1	0
638.031	1	-1
638.201	1	7
638.370	1	5
638.540	1	4
638.710	1	7
638.879	1	9
639.049	1	9
639.218	1	-9
639.388	1	13
639.557	1	3
639.727	1	-2
639.896	1	2
640.066	1	-4
640.235	1	10
640.405	1	-8
640.574	1	6
640.744	1	11
640.914	1	-6
641.083	1	-5
641.253	1	4
641.422	1	3
641.592	1	-2
641.761	1	17
641.931	1	-4
642.100	1	9
642.270	1	-3
642.439	1	-2
642.609	1	6
642.778	1	-3
642.948	1	2
643.117	1	7
643.287	1	-3
643.456	1	-5
643.626	1	0
643.795	1	10
643.965	1	0
644.134	1	-1
644.304	1	8
644.473	1	-1
644.643	1	-5
644.812	1	8
644.982	1	4
645.151	1	1
645.321	1	-5
645.490	1	0
645.660	1	3
645.829	1	-2
645.999	1	8
646.168	1	2
646.338	1	5
646.507	1	3
646.677	1	16
646.846	1	-1
647.016	1	2
647.185	1	-7
647.355	1	-2
647.524	1	-6
647.694	1	6
647.863	1	6
648.033	1	7
648.202	1	5
648.372	1	-6
648.541	1	-5
648.711	1	5
648.880	1	9
649.050	1	6
649.219	1	5
649.389	1	5
649.558	1	-3
649.728	1	1
649.897	1	-5
650.067	1	1
650.236	1	7
650.406	1	-14
650.575	1	2
650.745	1	3
650.914	1	4
651.084	1	-1
651.253	1	4
651.423	1	-5
651.592	1	1
651.762	1	4
651.931	1	2
652.101	1	5
652.270	1	-4
652.440	1	7
652.609	1	-2
652.778	1	3
652.948	1	0
653.117	1	18
653.287	1	-3
653.456	1	14
653.626	1	-7
653.795	1	5
653.965	1	4
654.134	1	-4
654.304	1	-2
654.473	1	6
654.643	1	6
654.812	1	-7
654.982	1	3
655.151	1	12
655.320	1	5
655.490	1	-5
655.659	1	1
655.829	1	-4
655.998	1	6
656.168	1	-10
656.337	1	12
656.507	1	-3
656.676	1	-2
656.846	1	-6
657.015	1	9
657.184	1	-7
657.354	1	-2
657.523	1	3
657.693	1	-4
657.862	1	6
658.032	1	-9
658.201	1	3
658.371	1	1
658.540	1	17
658.709	1	2
658.879	1	-6
659.048	1	-5
659.218	1	0
659.387	1	5
659.557	1	0
659.726	1	4
659.895	1	-7
660.065	1	6
660.234	1	7
660.404	1	18
660.573	1	0
660.743	1	-7
660.912	1	5
661.081	1	10
661.251	1	-4
661.420	1	5
661.590	1	3
661.759	1	5
661.929	1	4
662.098	1	0
662.267	1	10
662.437	1	1
662.606	1	4
662.776	1	8
662.945	1	13
663.115	1	-12
663.284	1	-6
663.453	1	5
663.623	1	-1
663.792	1	-6
663.962	1	-2
664.131	1	-3
664.300	1	-1
664.470	1	-10
664.639	1	-3
664.809	1	5
664.978	1	2
665.148	1	12
665.317	1	-13
665.486	1	4
665.656	1	9
665.825	1	10
665.995	1	4
666.164	1	8
666.333	1	-2
666.503	1	18
666.672	1	1
666.842	1	-11
667.011	1	-1
667.180	1	2
667.350	1	14
667.519	1	-3
667.689	1	2
667.858	1	9
668.027	1	-1
668.197	1	2
668.366	1	7
668.536	1	6
668.705	1	9
668.874	1	10
669.044	1	-2
669.213	1	3
669.382	1	15
669.552	1	2
669.721	1	-3
669.891	1	4
670.060	1	-6
670.229	1	8
670.399	1	4
670.568	1	12
670.738	1	-2
670.907	1	1
671.076	1	-5
671.246	1	-2
671.415	1	6
671.584	1	-2
671.754	1	1
671.923	1	-7
672.093	1	3
672.262	1	2
672.431	1	3
672.601	1	-6
672.770	1	0
672.939	1	-4
673.109	1	5
673.278	1	5
673.448	1	5
673.617	1	1
673.786	1	-10
