325.333	1	7
325.504	1	11
325.675	1	7
325.846	1	10
326.017	1	4
326.188	1	14
326.359	1	13
326.531	1	6
326.702	1	12
326.873	1	25
327.044	1	6
327.215	1	15
327.386	1	7
327.557	1	20
327.728	1	-2
327.899	1	13
328.070	1	19
328.241	1	17
328.412	1	2
328.583	1	16
328.754	1	13
328.926	1	9
329.097	1	6
329.268	1	14
329.439	1	10
329.610	1	13
329.781	1	22
329.952	1	23
330.123	1	9
330.294	1	8
330.465	1	17
330.636	1	5
330.807	1	3
330.978	1	18
331.149	1	12
331.320	1	10
331.492	1	29
331.663	1	19
331.834	1	15
332.005	1	2
332.176	1	12
332.347	1	13
332.518	1	5
332.689	1	19
332.860	1	6
333.031	1	28
333.202	1	15
333.373	1	15
333.544	1	7
333.715	1	19
333.886	1	9
334.057	1	13
334.228	1	19
334.399	1	13
334.570	1	23
334.741	1	26
334.912	1	18
335.084	1	6
335.255	1	10
335.426	1	6
335.597	1	17
335.768	1	6
335.939	1	24
336.110	1	14
336.281	1	18
336.452	1	22
336.623	1	12
336.794	1	4
336.965	1	18
337.136	1	13
337.307	1	28
337.478	1	12
337.649	1	11
337.820	1	5
337.991	1	21
338.162	1	21
338.333	1	14
338.504	1	7
338.675	1	7
338.846	1	19
339.017	1	13
339.188	1	17
339.359	1	7
339.530	1	15
339.701	1	18
339.872	1	17
340.043	1	15
340.214	1	23
340.385	1	19
340.556	1	21
340.727	1	15
340.898	1	18
341.069	1	20
341.240	1	24
341.411	1	21
341.582	1	8
341.753	1	5
341.924	1	18
342.095	1	23
342.266	1	5
342.437	1	18
342.608	1	9
342.779	1	20
342.950	1	18
343.121	1	22
343.292	1	23
343.463	1	21
343.634	1	17
343.805	1	21
343.976	1	24
344.147	1	14
344.318	1	10
344.489	1	18
344.660	1	16
344.831	1	15
345.002	1	15
345.173	1	26
345.344	1	13
345.515	1	28
345.686	1	17
345.857	1	29
346.028	1	26
346.199	1	22
346.370	1	16
346.541	1	36
346.712	1	11
346.883	1	24
347.054	1	15
347.225	1	19
347.396	1	18
347.567	1	19
347.738	1	25
347.909	1	21
348.080	1	22
348.251	1	21
348.422	1	26
348.593	1	22
348.764	1	18
348.935	1	24
349.106	1	20
349.277	1	29
349.448	1	12
349.619	1	26
349.790	1	28
349.961	1	15
350.132	1	27
350.303	1	21
350.474	1	29
350.645	1	17
350.816	1	30
350.987	1	22
351.157	1	15
351.328	1	32
351.499	1	23
351.670	1	21
351.841	1	27
352.012	1	24
352.183	1	19
352.354	1	27
352.525	1	23
352.696	1	31
352.867	1	15
353.038	1	29
353.209	1	30
353.380	1	27
353.551	1	35
353.722	1	17
353.893	1	23
354.064	1	27
354.235	1	17
354.406	1	25
354.576	1	21
354.747	1	28
354.918	1	33
355.089	1	28
355.260	1	28
355.431	1	36
355.602	1	19
355.773	1	29
355.944	1	41
356.115	1	17
356.286	1	30
356.457	1	28
356.628	1	37
356.799	1	27
356.970	1	14
357.141	1	33
357.311	1	49
357.482	1	31
357.653	1	32
357.824	1	39
357.995	1	34
358.166	1	26
358.337	1	34
358.508	1	35
358.679	1	22
358.850	1	33
359.021	1	35
359.192	1	25
359.363	1	35
359.533	1	31
359.704	1	29
359.875	1	47
360.046	1	31
360.217	1	20
360.388	1	33
360.559	1	39
360.730	1	22
360.901	1	37
361.072	1	35
361.243	1	25
361.414	1	32
361.584	1	40
361.755	1	33
361.926	1	33
362.097	1	40
362.268	1	22
362.439	1	29
362.610	1	34
362.781	1	22
362.952	1	40
363.123	1	53
363.293	1	35
363.464	1	30
363.635	1	40
363.806	1	46
363.977	1	23
364.148	1	27
364.319	1	27
364.490	1	30
364.661	1	34
364.832	1	46
365.002	1	36
365.173	1	38
365.344	1	38
365.515	1	36
365.686	1	47
365.857	1	36
366.028	1	35
366.199	1	36
366.370	1	47
366.540	1	36
366.711	1	37
366.882	1	26
367.053	1	37
367.224	1	27
367.395	1	31
367.566	1	45
367.737	1	39
367.908	1	37
368.078	1	54
368.249	1	32
368.420	1	39
368.591	1	47
368.762	1	45
368.933	1	31
369.104	1	42
369.274	1	33
369.445	1	42
369.616	1	38
369.787	1	44
369.958	1	41
370.129	1	40
370.300	1	41
370.471	1	52
370.641	1	39
370.812	1	38
370.983	1	31
371.154	1	44
371.325	1	47
371.496	1	28
371.667	1	42
371.837	1	39
372.008	1	39
372.179	1	33
372.350	1	44
372.521	1	43
372.692	1	43
372.863	1	39
373.033	1	46
373.204	1	39
373.375	1	31
373.546	1	45
373.717	1	32
373.888	1	38
374.059	1	51
374.229	1	43
374.400	1	33
374.571	1	49
374.742	1	46
374.913	1	32
375.084	1	53
375.254	1	50
375.425	1	35
375.596	1	34
375.767	1	40
375.938	1	31
376.109	1	32
376.279	1	38
376.450	1	36
376.621	1	49
376.792	1	39
376.963	1	50
377.134	1	52
377.304	1	47
377.475	1	39
377.646	1	39
377.817	1	24
377.988	1	33
378.159	1	40
378.329	1	49
378.500	1	48
378.671	1	34
378.842	1	35
379.013	1	40
379.184	1	59
379.354	1	33
379.525	1	42
379.696	1	34
379.867	1	35
380.038	1	32
380.209	1	40
380.379	1	39
380.550	1	51
380.721	1	52
380.892	1	46
381.063	1	35
381.233	1	29
381.404	1	52
381.575	1	40
381.746	1	53
381.917	1	43
382.087	1	39
382.258	1	46
382.429	1	49
382.600	1	51
382.771	1	52
382.941	1	35
383.112	1	38
383.283	1	56
383.454	1	40
383.625	1	47
383.795	1	43
383.966	1	45
384.137	1	41
384.308	1	38
384.479	1	40
384.649	1	56
384.820	1	39
384.991	1	40
385.162	1	49
385.333	1	49
385.503	1	43
385.674	1	46
385.845	1	58
386.016	1	46
386.187	1	45
386.357	1	45
386.528	1	41
386.699	1	45
386.870	1	49
387.041	1	48
387.211	1	44
387.382	1	55
387.553	1	52
387.724	1	43
387.894	1	43
388.065	1	50
388.236	1	39
388.407	1	47
388.578	1	32
388.748	1	47
388.919	1	57
389.090	1	44
389.261	1	55
389.431	1	53
389.602	1	51
389.773	1	51
389.944	1	46
390.114	1	55
390.285	1	35
390.456	1	43
390.627	1	51
390.798	1	58
390.968	1	46
391.139	1	46
391.310	1	56
391.481	1	43
391.651	1	55
391.822	1	38
391.993	1	55
392.164	1	36
392.334	1	48
392.505	1	34
392.676	1	51
392.847	1	49
393.017	1	59
393.188	1	51
393.359	1	55
393.530	1	55
393.700	1	52
393.871	1	43
394.042	1	48
394.213	1	48
394.383	1	68
394.554	1	41
394.725	1	62
394.896	1	51
395.066	1	45
395.237	1	50
395.408	1	58
395.579	1	48
395.749	1	51
395.920	1	59
396.091	1	47
396.262	1	48
396.432	1	47
396.603	1	41
396.774	1	60
396.945	1	54
397.115	1	56
397.286	1	55
397.457	1	56
397.627	1	46
397.798	1	50
397.969	1	47
398.140	1	60
398.310	1	45
398.481	1	53
398.652	1	49
398.823	1	52
398.993	1	56
399.164	1	62
399.335	1	35
399.505	1	46
399.676	1	51
399.847	1	48
400.018	1	50
400.188	1	57
400.359	1	45
400.530	1	52
400.700	1	54
400.871	1	62
401.042	1	42
401.213	1	38
401.383	1	43
401.554	1	66
401.725	1	59
401.895	1	57
402.066	1	66
402.237	1	55
402.408	1	71
402.578	1	60
402.749	1	54
402.920	1	56
403.090	1	57
403.261	1	59
403.432	1	57
403.603	1	48
403.773	1	62
403.944	1	53
404.115	1	57
404.285	1	52
404.456	1	51
404.627	1	46
404.797	1	55
404.968	1	67
405.139	1	49
405.310	1	57
405.480	1	55
405.651	1	63
405.822	1	59
405.992	1	60
406.163	1	58
406.334	1	47
406.504	1	50
406.675	1	42
406.846	1	50
407.016	1	47
407.187	1	70
407.358	1	61
407.528	1	42
407.699	1	60
407.870	1	53
408.041	1	57
408.211	1	46
408.382	1	50
408.553	1	59
408.723	1	57
408.894	1	63
409.065	1	61
409.235	1	65
409.406	1	66
409.577	1	54
409.747	1	52
409.918	1	52
410.089	1	61
410.259	1	59
410.430	1	51
410.601	1	53
410.771	1	61
410.942	1	66
411.113	1	41
411.283	1	48
411.454	1	51
411.625	1	58
411.795	1	56
411.966	1	57
412.137	1	50
412.307	1	57
412.478	1	62
412.649	1	52
412.819	1	46
412.990	1	53
413.161	1	61
413.331	1	62
413.502	1	47
413.672	1	62
413.843	1	65
414.014	1	61
414.184	1	59
414.355	1	61
414.526	1	59
414.696	1	64
414.867	1	60
415.038	1	41
415.208	1	49
415.379	1	63
415.550	1	63
415.720	1	71
415.891	1	44
416.062	1	48
416.232	1	49
416.403	1	60
416.573	1	53
416.744	1	54
416.915	1	62
417.085	1	67
417.256	1	63
417.427	1	60
417.597	1	60
417.768	1	43
417.939	1	68
418.109	1	57
418.280	1	47
418.450	1	64
418.621	1	49
418.792	1	54
418.962	1	69
419.133	1	52
419.304	1	58
419.474	1	55
419.645	1	49
419.815	1	61
419.986	1	51
420.157	1	51
420.327	1	62
420.498	1	50
420.669	1	56
420.839	1	39
421.010	1	60
421.180	1	54
421.351	1	51
421.522	1	57
421.692	1	57
421.863	1	60
422.033	1	59
422.204	1	53
422.375	1	52
422.545	1	52
422.716	1	47
422.886	1	45
423.057	1	45
423.228	1	54
423.398	1	61
423.569	1	57
423.740	1	43
423.910	1	39
424.081	1	52
424.251	1	50
424.422	1	51
424.593	1	39
424.763	1	58
424.934	1	49
425.104	1	50
425.275	1	54
425.445	1	60
425.616	1	58
425.787	1	49
425.957	1	57
426.128	1	38
426.298	1	45
426.469	1	42
426.640	1	69
426.810	1	56
426.981	1	48
427.151	1	59
427.322	1	51
427.493	1	50
427.663	1	52
427.834	1	53
428.004	1	52
428.175	1	59
428.345	1	42
428.516	1	60
428.687	1	42
428.857	1	54
429.028	1	52
429.198	1	42
429.369	1	44
429.540	1	50
429.710	1	56
429.881	1	45
430.051	1	44
430.222	1	41
430.392	1	55
430.563	1	57
430.734	1	47
430.904	1	49
431.075	1	55
431.245	1	44
431.416	1	49
431.586	1	44
431.757	1	49
431.927	1	44
432.098	1	41
432.269	1	54
432.439	1	58
432.610	1	61
432.780	1	54
432.951	1	52
433.121	1	49
433.292	1	46
433.462	1	45
433.633	1	41
433.804	1	57
433.974	1	39
434.145	1	55
434.315	1	46
434.486	1	56
434.656	1	51
434.827	1	51
434.997	1	44
435.168	1	42
435.339	1	55
435.509	1	52
435.680	1	40
435.850	1	40
436.021	1	53
436.191	1	42
436.362	1	48
436.532	1	59
436.703	1	50
436.873	1	50
437.044	1	34
437.214	1	65
437.385	1	56
437.556	1	50
437.726	1	39
437.897	1	49
438.067	1	43
438.238	1	41
438.408	1	52
438.579	1	51
438.749	1	51
438.920	1	51
439.090	1	51
439.261	1	35
439.431	1	45
439.602	1	54
439.772	1	50
439.943	1	52
440.113	1	34
440.284	1	42
440.455	1	54
440.625	1	51
440.796	1	54
440.966	1	40
441.137	1	45
441.307	1	51
441.478	1	39
441.648	1	37
441.819	1	53
441.989	1	46
442.160	1	37
442.330	1	43
442.501	1	52
442.671	1	45
442.842	1	36
443.012	1	50
443.183	1	36
443.353	1	46
443.524	1	40
443.694	1	49
443.865	1	45
444.035	1	34
444.206	1	45
444.376	1	43
444.547	1	48
444.717	1	44
444.888	1	35
445.058	1	55
445.229	1	33
445.399	1	51
445.570	1	61
445.740	1	41
445.911	1	25
446.081	1	49
446.252	1	46
446.422	1	34
446.593	1	37
446.763	1	50
446.934	1	39
447.104	1	38
447.275	1	45
447.445	1	35
447.616	1	38
447.786	1	42
447.957	1	36
448.127	1	29
448.298	1	37
448.468	1	39
448.639	1	50
448.809	1	45
448.979	1	33
449.150	1	51
449.320	1	47
449.491	1	37
449.661	1	37
449.832	1	42
450.002	1	32
450.173	1	46
450.343	1	55
450.514	1	51
450.684	1	48
450.855	1	47
451.025	1	43
451.196	1	26
451.366	1	40
451.537	1	30
451.707	1	42
451.878	1	31
452.048	1	40
452.218	1	33
452.389	1	58
452.559	1	41
452.730	1	38
452.900	1	42
453.071	1	37
453.241	1	31
453.412	1	43
453.582	1	44
453.753	1	34
453.923	1	54
454.093	1	35
454.264	1	53
454.434	1	40
454.605	1	45
454.775	1	43
454.946	1	39
455.116	1	28
455.287	1	38
455.457	1	45
455.628	1	26
455.798	1	32
455.968	1	44
456.139	1	51
456.309	1	45
456.480	1	37
456.650	1	34
456.821	1	47
456.991	1	30
457.161	1	39
457.332	1	42
457.502	1	34
457.673	1	44
457.843	1	46
458.014	1	39
458.184	1	40
458.355	1	38
458.525	1	38
458.695	1	39
458.866	1	44
459.036	1	43
459.207	1	44
459.377	1	42
459.548	1	47
459.718	1	31
459.888	1	36
460.059	1	34
460.229	1	36
460.400	1	33
460.570	1	45
460.740	1	42
460.911	1	44
461.081	1	24
461.252	1	32
461.422	1	20
461.593	1	22
461.763	1	45
461.933	1	26
462.104	1	35
462.274	1	36
462.445	1	34
462.615	1	36
462.785	1	36
462.956	1	31
463.126	1	32
463.297	1	33
463.467	1	32
463.638	1	37
463.808	1	26
463.978	1	37
464.149	1	37
464.319	1	29
464.490	1	32
464.660	1	48
464.830	1	30
465.001	1	29
465.171	1	22
465.342	1	44
465.512	1	32
465.682	1	33
465.853	1	41
466.023	1	40
466.194	1	28
466.364	1	39
466.534	1	20
466.705	1	23
466.875	1	42
467.045	1	33
467.216	1	25
467.386	1	39
467.557	1	39
467.727	1	34
467.897	1	41
468.068	1	34
468.238	1	30
468.409	1	29
468.579	1	31
468.749	1	37
468.920	1	30
469.090	1	21
469.260	1	39
469.431	1	25
469.601	1	19
469.772	1	22
469.942	1	39
470.112	1	20
470.283	1	27
470.453	1	37
470.623	1	29
470.794	1	24
470.964	1	37
471.135	1	32
471.305	1	25
471.475	1	28
471.646	1	21
471.816	1	21
471.986	1	26
472.157	1	21
472.327	1	22
472.497	1	41
472.668	1	23
472.838	1	35
473.009	1	34
473.179	1	31
473.349	1	30
473.520	1	19
473.690	1	28
473.860	1	25
474.031	1	28
474.201	1	33
474.371	1	33
474.542	1	44
474.712	1	28
474.882	1	15
475.053	1	28
475.223	1	21
475.394	1	20
475.564	1	28
475.734	1	17
475.905	1	29
476.075	1	15
476.245	1	33
476.416	1	25
476.586	1	17
476.756	1	11
476.927	1	20
477.097	1	27
477.267	1	29
477.438	1	22
477.608	1	22
477.778	1	32
477.949	1	29
478.119	1	20
478.289	1	23
478.460	1	26
478.630	1	30
478.800	1	28
478.971	1	24
479.141	1	21
479.311	1	21
479.482	1	2
479.652	1	31
479.822	1	13
479.993	1	28
480.163	1	29
480.333	1	39
480.504	1	21
480.674	1	19
480.844	1	22
481.015	1	30
481.185	1	26
481.355	1	20
481.525	1	27
481.696	1	21
481.866	1	21
482.036	1	28
482.207	1	17
482.377	1	24
482.547	1	26
482.718	1	28
482.888	1	13
483.058	1	29
483.229	1	30
483.399	1	19
483.569	1	11
483.740	1	20
483.910	1	34
484.080	1	47
484.250	1	21
484.421	1	21
484.591	1	28
484.761	1	23
484.932	1	27
485.102	1	20
485.272	1	14
485.443	1	28
485.613	1	29
485.783	1	22
485.953	1	17
486.124	1	26
486.294	1	27
486.464	1	25
486.635	1	23
486.805	1	26
486.975	1	24
487.146	1	25
487.316	1	17
487.486	1	17
487.656	1	30
487.827	1	18
487.997	1	22
488.167	1	28
488.338	1	28
488.508	1	20
488.678	1	28
488.848	1	27
489.019	1	19
489.189	1	17
489.359	1	20
489.529	1	25
489.700	1	13
489.870	1	18
490.040	1	15
490.211	1	21
490.381	1	42
490.551	1	15
490.721	1	18
490.892	1	23
491.062	1	21
491.232	1	13
491.402	1	14
491.573	1	25
491.743	1	25
491.913	1	26
492.084	1	25
492.254	1	39
492.424	1	14
492.594	1	13
492.765	1	16
492.935	1	15
493.105	1	5
493.275	1	20
493.446	1	25
493.616	1	7
493.786	1	15
493.956	1	24
494.127	1	24
494.297	1	17
494.467	1	17
494.637	1	13
494.808	1	15
494.978	1	14
495.148	1	33
495.318	1	17
495.489	1	22
495.659	1	19
495.829	1	23
495.999	1	16
496.170	1	13
496.340	1	12
496.510	1	30
496.680	1	19
496.851	1	22
497.021	1	27
497.191	1	5
497.361	1	24
497.532	1	24
497.702	1	15
497.872	1	19
498.042	1	36
498.213	1	17
498.383	1	21
498.553	1	17
498.723	1	10
498.894	1	29
499.064	1	8
499.234	1	21
499.404	1	20
499.574	1	26
499.745	1	13
499.915	1	13
500.085	1	1
500.255	1	14
500.426	1	8
500.596	1	22
500.766	1	12
500.936	1	10
501.106	1	13
501.277	1	29
501.447	1	14
501.617	1	14
501.787	1	22
501.958	1	16
502.128	1	17
502.298	1	10
502.468	1	14
502.638	1	32
502.809	1	18
502.979	1	21
503.149	1	15
503.319	1	23
503.489	1	17
503.660	1	14
503.830	1	16
504.000	1	20
504.170	1	16
504.340	1	13
504.511	1	29
504.681	1	9
504.851	1	17
505.021	1	19
505.192	1	16
505.362	1	19
505.532	1	16
505.702	1	21
505.872	1	20
506.043	1	3
506.213	1	10
506.383	1	15
506.553	1	15
506.723	1	19
506.893	1	16
507.064	1	16
507.234	1	9
507.404	1	21
507.574	1	13
507.744	1	16
507.915	1	20
508.085	1	14
508.255	1	13
508.425	1	8
508.595	1	13
508.766	1	14
508.936	1	11
509.106	1	11
509.276	1	21
509.446	1	0
509.616	1	26
509.787	1	2
509.957	1	14
510.127	1	15
510.297	1	8
510.467	1	12
510.638	1	-1
510.808	1	16
510.978	1	14
511.148	1	11
511.318	1	17
511.488	1	11
511.659	1	3
511.829	1	9
511.999	1	9
512.169	1	11
512.339	1	15
512.509	1	12
512.680	1	15
512.850	1	14
513.020	1	15
513.190	1	10
513.360	1	14
513.530	1	17
513.700	1	25
513.871	1	21
514.041	1	14
514.211	1	24
514.381	1	10
514.551	1	15
514.721	1	14
514.892	1	23
515.062	1	13
515.232	1	2
515.402	1	20
515.572	1	5
515.742	1	15
515.912	1	25
516.083	1	11
516.253	1	12
516.423	1	16
516.593	1	9
516.763	1	18
516.933	1	16
517.104	1	12
517.274	1	10
517.444	1	13
517.614	1	13
517.784	1	5
517.954	1	15
518.124	1	3
518.294	1	30
518.465	1	5
518.635	1	-2
518.805	1	7
518.975	1	9
519.145	1	15
519.315	1	24
519.485	1	9
519.656	1	11
519.826	1	22
519.996	1	12
520.166	1	17
520.336	1	13
520.506	1	18
520.676	1	4
520.846	1	16
521.017	1	9
521.187	1	8
521.357	1	13
521.527	1	10
521.697	1	5
521.867	1	5
522.037	1	14
522.207	1	11
522.377	1	16
522.548	1	16
522.718	1	14
522.888	1	9
523.058	1	5
523.228	1	13
523.398	1	10
523.568	1	16
523.738	1	2
523.909	1	19
524.079	1	19
524.249	1	9
524.419	1	3
524.589	1	14
524.759	1	10
524.929	1	10
525.099	1	15
525.269	1	14
525.439	1	9
525.610	1	17
525.780	1	13
525.950	1	15
526.120	1	24
526.290	1	15
526.460	1	17
526.630	1	21
526.800	1	10
526.970	1	20
527.140	1	10
527.311	1	10
527.481	1	4
527.651	1	9
527.821	1	-1
527.991	1	28
528.161	1	15
528.331	1	5
528.501	1	12
528.671	1	9
528.841	1	18
529.011	1	3
529.181	1	17
529.352	1	12
529.522	1	4
529.692	1	10
529.862	1	6
530.032	1	15
530.202	1	9
530.372	1	9
530.542	1	16
530.712	1	-2
530.882	1	5
531.052	1	7
531.222	1	11
531.392	1	4
531.563	1	16
531.733	1	23
531.903	1	18
532.073	1	8
532.243	1	13
532.413	1	14
532.583	1	-3
532.753	1	6
532.923	1	17
533.093	1	7
533.263	1	5
533.433	1	14
533.603	1	14
533.773	1	12
533.943	1	9
534.113	1	8
534.284	1	10
534.454	1	11
534.624	1	5
534.794	1	15
534.964	1	10
535.134	1	8
535.304	1	17
535.474	1	9
535.644	1	10
535.814	1	5
535.984	1	5
536.154	1	10
536.324	1	3
536.494	1	13
536.664	1	-2
536.834	1	6
537.004	1	-1
537.174	1	13
537.344	1	11
537.514	1	10
537.685	1	11
537.855	1	9
538.025	1	12
538.195	1	15
538.365	1	11
538.535	1	1
538.705	1	10
538.875	1	13
539.045	1	5
539.215	1	14
539.385	1	0
539.555	1	7
539.725	1	13
539.895	1	9
540.065	1	6
540.235	1	0
540.405	1	19
540.575	1	12
540.745	1	5
540.915	1	6
541.085	1	8
541.255	1	7
541.425	1	1
541.595	1	-4
541.765	1	15
541.935	1	17
542.105	1	11
542.275	1	13
542.445	1	8
542.615	1	8
542.785	1	10
542.955	1	6
543.125	1	13
543.295	1	15
543.465	1	2
543.635	1	-1
543.805	1	13
543.975	1	1
544.145	1	9
544.315	1	-2
544.485	1	12
544.655	1	11
544.825	1	8
544.995	1	7
545.165	1	15
545.335	1	2
545.505	1	14
545.675	1	9
545.845	1	-4
546.015	1	12
546.185	1	3
546.355	1	7
546.525	1	4
546.695	1	2
546.865	1	1
547.035	1	6
547.205	1	8
547.375	1	12
547.545	1	3
547.715	1	13
547.885	1	14
548.055	1	18
548.225	1	1
548.395	1	23
548.565	1	-1
548.735	1	16
548.905	1	2
549.075	1	11
549.245	1	14
549.415	1	11
549.585	1	9
549.755	1	18
549.925	1	4
550.095	1	4
550.265	1	0
550.435	1	3
550.605	1	4
550.775	1	9
550.945	1	6
551.115	1	4
551.285	1	3
551.455	1	7
551.625	1	15
551.795	1	2
551.965	1	6
552.135	1	-11
552.305	1	9
552.475	1	15
552.645	1	25
552.815	1	2
552.985	1	4
553.155	1	6
553.325	1	2
553.495	1	11
553.665	1	13
553.835	1	-1
554.004	1	1
554.174	1	4
554.344	1	11
554.514	1	5
554.684	1	5
554.854	1	1
555.024	1	18
555.194	1	13
555.364	1	11
555.534	1	14
555.704	1	5
555.874	1	11
556.044	1	7
556.214	1	3
556.384	1	6
556.554	1	5
556.724	1	2
556.894	1	5
557.064	1	7
557.234	1	9
557.404	1	1
557.573	1	2
557.743	1	6
557.913	1	6
558.083	1	-2
558.253	1	11
558.423	1	3
558.593	1	12
558.763	1	9
558.933	1	9
559.103	1	9
559.273	1	13
559.443	1	0
559.613	1	4
559.783	1	6
559.953	1	1
560.122	1	4
560.292	1	9
560.462	1	9
560.632	1	12
560.802	1	11
560.972	1	11
561.142	1	6
561.312	1	16
561.482	1	5
561.652	1	9
561.822	1	8
561.992	1	8
562.162	1	-1
562.331	1	0
562.501	1	3
562.671	1	6
562.841	1	29
563.011	1	11
563.181	1	22
563.351	1	4
563.521	1	4
563.691	1	-3
563.861	1	18
564.031	1	0
564.201	1	12
564.370	1	21
564.540	1	8
564.710	1	23
564.880	1	11
565.050	1	6
565.220	1	1
565.390	1	6
565.560	1	4
565.730	1	13
565.900	1	2
566.069	1	13
566.239	1	1
566.409	1	21
566.579	1	10
566.749	1	12
566.919	1	4
567.089	1	-2
567.259	1	6
567.429	1	3
567.599	1	6
567.768	1	3
567.938	1	-6
568.108	1	11
568.278	1	8
568.448	1	19
568.618	1	1
568.788	1	15
568.958	1	15
569.128	1	11
569.297	1	4
569.467	1	14
569.637	1	-5
569.807	1	10
569.977	1	5
570.147	1	2
570.317	1	14
570.487	1	9
570.656	1	5
570.826	1	13
570.996	1	2
571.166	1	-2
571.336	1	13
571.506	1	6
571.676	1	10
571.846	1	-1
572.015	1	2
572.185	1	1
572.355	1	0
572.525	1	9
572.695	1	8
572.865	1	5
573.035	1	5
573.205	1	1
573.374	1	3
573.544	1	2
573.714	1	4
573.884	1	11
574.054	1	10
574.224	1	5
574.394	1	4
574.563	1	10
574.733	1	2
574.903	1	0
575.073	1	5
575.243	1	12
575.413	1	-4
575.583	1	2
575.752	1	4
575.922	1	7
576.092	1	16
576.262	1	2
576.432	1	11
576.602	1	2
576.772	1	9
576.941	1	8
577.111	1	14
577.281	1	18
577.451	1	4
577.621	1	-3
577.791	1	-3
577.960	1	17
578.130	1	-5
578.300	1	6
578.470	1	20
578.640	1	10
578.810	1	4
578.979	1	5
579.149	1	11
579.319	1	3
579.489	1	1
579.659	1	12
579.829	1	-2
579.998	1	5
580.168	1	-2
580.338	1	3
580.508	1	13
580.678	1	2
580.848	1	5
581.017	1	20
581.187	1	3
581.357	1	-7
581.527	1	1
581.697	1	6
581.867	1	1
582.036	1	3
582.206	1	5
582.376	1	10
582.546	1	0
582.716	1	6
582.885	1	0
583.055	1	3
583.225	1	-1
583.395	1	9
583.565	1	20
583.735	1	5
583.904	1	12
584.074	1	11
584.244	1	12
584.414	1	8
584.584	1	-2
584.753	1	8
584.923	1	6
585.093	1	-10
585.263	1	8
585.433	1	3
585.602	1	4
585.772	1	5
585.942	1	-4
586.112	1	10
586.282	1	1
586.451	1	-4
586.621	1	11
586.791	1	8
586.961	1	6
587.131	1	14
587.300	1	1
587.470	1	6
587.640	1	2
587.810	1	0
587.980	1	9
588.149	1	15
588.319	1	6
588.489	1	7
588.659	1	-1
588.829	1	3
588.998	1	20
589.168	1	1
589.338	1	12
589.508	1	2
589.677	1	6
589.847	1	2
590.017	1	14
590.187	1	-4
590.357	1	3
590.526	1	15
590.696	1	11
590.866	1	8
591.036	1	4
591.205	1	-2
591.375	1	10
591.545	1	8
591.715	1	9
591.885	1	6
592.054	1	8
592.224	1	6
592.394	1	8
592.564	1	9
592.733	1	10
592.903	1	0
593.073	1	12
593.243	1	7
593.412	1	6
593.582	1	4
593.752	1	17
593.922	1	8
594.091	1	18
594.261	1	6
594.431	1	-1
594.601	1	1
594.771	1	-5
594.940	1	10
595.110	1	11
595.280	1	5
595.450	1	9
595.619	1	9
595.789	1	-1
595.959	1	2
596.129	1	15
596.298	1	6
596.468	1	9
596.638	1	10
596.808	1	11
596.977	1	15
597.147	1	18
597.317	1	9
597.487	1	4
597.656	1	8
597.826	1	3
597.996	1	6
598.166	1	1
598.335	1	8
598.505	1	5
598.675	1	14
598.844	1	12
599.014	1	5
599.184	1	14
599.354	1	5
599.523	1	13
599.693	1	10
599.863	1	8
600.033	1	-2
600.202	1	-3
600.372	1	-7
600.542	1	20
600.712	1	6
600.881	1	-2
601.051	1	10
601.221	1	0
601.390	1	12
601.560	1	2
601.730	1	18
601.900	1	11
602.069	1	15
602.239	1	-6
602.409	1	11
602.578	1	5
602.748	1	11
602.918	1	-5
603.088	1	5
603.257	1	9
603.427	1	10
603.597	1	11
603.767	1	5
603.936	1	6
604.106	1	1
604.276	1	5
604.445	1	4
604.615	1	2
604.785	1	3
604.954	1	10
605.124	1	-5
605.294	1	12
605.464	1	7
605.633	1	15
605.803	1	5
605.973	1	14
606.142	1	16
606.312	1	-2
606.482	1	4
606.652	1	18
606.821	1	12
606.991	1	3
607.161	1	13
607.330	1	10
607.500	1	3
607.670	1	-1
607.839	1	11
608.009	1	0
608.179	1	-4
608.348	1	8
608.518	1	10
608.688	1	13
608.858	1	5
609.027	1	12
609.197	1	20
609.367	1	9
609.536	1	4
609.706	1	9
609.876	1	-8
610.045	1	5
610.215	1	2
610.385	1	16
610.554	1	3
610.724	1	16
610.894	1	8
611.063	1	-1
611.233	1	11
611.403	1	1
611.572	1	11
611.742	1	0
611.912	1	2
612.081	1	17
612.251	1	14
612.421	1	13
612.590	1	0
612.760	1	2
612.930	1	1
613.099	1	17
613.269	1	10
613.439	1	10
613.608	1	9
613.778	1	11
613.948	1	16
614.117	1	13
614.287	1	11
614.457	1	-1
614.626	1	-3
614.796	1	7
614.966	1	3
615.135	1	4
615.305	1	7
615.475	1	9
615.644	1	14
615.814	1	10
615.984	1	3
616.153	1	2
616.323	1	-9
616.493	1	11
616.662	1	11
616.832	1	6
617.002	1	22
617.171	1	-6
617.341	1	6
617.511	1	13
617.680	1	7
617.850	1	3
618.019	1	11
618.189	1	17
618.359	1	3
618.528	1	17
618.698	1	9
618.868	1	14
619.037	1	1
619.207	1	3
619.377	1	19
619.546	1	10
619.716	1	5
619.885	1	18
620.055	1	7
620.225	1	6
620.394	1	0
620.564	1	15
620.734	1	-1
620.903	1	15
621.073	1	11
621.242	1	1
621.412	1	0
621.582	1	2
621.751	1	-3
621.921	1	11
622.091	1	3
622.260	1	13
622.430	1	10
622.599	1	17
622.769	1	11
622.939	1	10
623.108	1	16
623.278	1	7
623.448	1	6
623.617	1	7
623.787	1	12
623.956	1	5
624.126	1	22
624.296	1	14
624.465	1	6
624.635	1	11
624.804	1	1
624.974	1	2
625.144	1	15
625.313	1	-1
625.483	1	11
625.652	1	8
625.822	1	12
625.992	1	10
626.161	1	1
626.331	1	15
626.501	1	5
626.670	1	-2
626.840	1	1
627.009	1	13
627.179	1	12
627.348	1	12
627.518	1	12
627.688	1	6
627.857	1	12
628.027	1	11
628.196	1	13
628.366	1	3
628.536	1	5
628.705	1	2
628.875	1	8
629.044	1	7
629.214	1	1
629.384	1	8
629.553	1	10
629.723	1	13
629.892	1	5
630.062	1	19
630.232	1	1
630.401	1	14
630.571	1	-2
630.740	1	16
630.910	1	12
631.079	1	15
631.249	1	2
631.419	1	9
631.588	1	4
631.758	1	8
631.927	1	0
632.097	1	19
632.266	1	0
632.436	1	8
632.606	1	15
632.775	1	12
632.945	1	8
633.114	1	7
633.284	1	1
633.453	1	5
633.623	1	3
633.793	1	5
633.962	1	2
634.132	1	22
634.301	1	9
634.471	1	16
634.640	1	17
634.810	1	23
634.979	1	15
635.149	1	14
635.319	1	8
635.488	1	6
635.658	1	2
635.827	1	11
635.997	1	5
636.166	1	12
636.336	1	7
636.505	1	18
636.675	1	4
636.845	1	13
637.014	1	15
637.184	1	7
637.353	1	14
637.523	1	9
637.692	1	11
637.862	1	1
638.031	1	15
638.201	1	19
638.370	1	18
638.540	1	6
638.710	1	25
638.879	1	4
639.049	1	7
639.218	1	-2
639.388	1	18
639.557	1	7
639.727	1	6
639.896	1	12
640.066	1	6
640.235	1	15
640.405	1	4
640.574	1	15
640.744	1	18
640.914	1	23
641.083	1	-2
641.253	1	8
641.422	1	16
641.592	1	4
641.761	1	19
641.931	1	3
642.100	1	18
642.270	1	11
642.439	1	-3
642.609	1	20
642.778	1	14
642.948	1	15
643.117	1	10
643.287	1	3
643.456	1	-4
643.626	1	13
643.795	1	10
643.965	1	9
644.134	1	2
644.304	1	15
644.473	1	5
644.643	1	8
644.812	1	13
644.982	1	9
645.151	1	12
645.321	1	0
645.490	1	9
645.660	1	13
645.829	1	13
645.999	1	22
646.168	1	15
646.338	1	13
646.507	1	3
646.677	1	14
646.846	1	18
647.016	1	5
647.185	1	10
647.355	1	10
647.524	1	12
647.694	1	7
647.863	1	12
648.033	1	7
648.202	1	12
648.372	1	7
648.541	1	18
648.711	1	8
648.880	1	17
649.050	1	15
649.219	1	4
649.389	1	13
649.558	1	10
649.728	1	10
649.897	1	5
650.067	1	4
650.236	1	23
650.406	1	-2
650.575	1	17
650.745	1	14
650.914	1	14
651.084	1	10
651.253	1	9
651.423	1	9
651.592	1	11
651.762	1	7
651.931	1	10
652.101	1	11
652.270	1	12
652.440	1	8
652.609	1	2
652.778	1	10
652.948	1	13
653.117	1	22
653.287	1	17
653.456	1	20
653.626	1	15
653.795	1	10
653.965	1	16
654.134	1	9
654.304	1	14
654.473	1	16
654.643	1	8
654.812	1	8
654.982	1	16
655.151	1	10
655.320	1	13
655.490	1	-3
655.659	1	4
655.829	1	3
655.998	1	3
656.168	1	12
656.337	1	9
656.507	1	12
656.676	1	3
656.846	1	6
657.015	1	15
657.184	1	7
657.354	1	8
657.523	1	9
657.693	1	9
657.862	1	8
658.032	1	1
658.201	1	8
658.371	1	9
658.540	1	26
658.709	1	14
658.879	1	1
659.048	1	7
659.218	1	12
659.387	1	8
659.557	1	11
659.726	1	14
659.895	1	11
660.065	1	14
660.234	1	23
660.404	1	22
660.573	1	4
660.743	1	6
660.912	1	13
661.081	1	14
661.251	1	1
661.420	1	10
661.590	1	11
661.759	1	14
661.929	1	15
662.098	1	8
662.267	1	11
662.437	1	17
662.606	1	21
662.776	1	17
662.945	1	20
663.115	1	-1
663.284	1	12
663.453	1	7
663.623	1	8
663.792	1	11
663.962	1	3
664.131	1	8
664.300	1	14
664.470	1	-3
664.639	1	8
664.809	1	8
664.978	1	19
665.148	1	15
665.317	1	11
665.486	1	11
665.656	1	7
665.825	1	15
665.995	1	7
666.164	1	15
666.333	1	12
666.503	1	24
666.672	1	14
666.842	1	-3
667.011	1	29
667.180	1	5
667.350	1	16
667.519	1	5
667.689	1	26
667.858	1	26
668.027	1	4
668.197	1	14
668.366	1	19
668.536	1	8
668.705	1	10
668.874	1	10
669.044	1	4
669.213	1	8
669.382	1	21
669.552	1	7
669.721	1	16
669.891	1	4
670.060	1	11
670.229	1	16
670.399	1	15
670.568	1	19
670.738	1	6
670.907	1	13
671.076	1	12
671.246	1	5
671.415	1	14
671.584	1	14
671.754	1	21
671.923	1	9
672.093	1	22
672.262	1	9
672.431	1	18
672.601	1	-1
672.770	1	10
672.939	1	12
673.109	1	7
673.278	1	31
673.448	1	21
673.617	1	7
673.786	1	4
