325.333	1	11
325.504	1	10
325.675	1	8
325.846	1	6
326.017	1	18
326.188	1	16
326.359	1	15
326.531	1	9
326.702	1	9
326.873	1	14
327.044	1	4
327.215	1	3
327.386	1	-3
327.557	1	29
327.728	1	-2
327.899	1	11
328.070	1	10
328.241	1	12
328.412	1	3
328.583	1	7
328.754	1	1
328.926	1	7
329.097	1	8
329.268	1	13
329.439	1	12
329.610	1	18
329.781	1	19
329.952	1	13
330.123	1	11
330.294	1	7
330.465	1	25
330.636	1	6
330.807	1	6
330.978	1	19
331.149	1	8
331.320	1	9
331.492	1	16
331.663	1	0
331.834	1	17
332.005	1	8
332.176	1	15
332.347	1	13
332.518	1	14
332.689	1	22
332.860	1	14
333.031	1	10
333.202	1	20
333.373	1	18
333.544	1	0
333.715	1	-1
333.886	1	3
334.057	1	10
334.228	1	17
334.399	1	13
334.570	1	23
334.741	1	22
334.912	1	16
335.084	1	6
335.255	1	13
335.426	1	9
335.597	1	21
335.768	1	7
335.939	1	20
336.110	1	13
336.281	1	12
336.452	1	15
336.623	1	14
336.794	1	9
336.965	1	15
337.136	1	9
337.307	1	15
337.478	1	9
337.649	1	19
337.820	1	6
337.991	1	21
338.162	1	21
338.333	1	9
338.504	1	14
338.675	1	12
338.846	1	16
339.017	1	22
339.188	1	17
339.359	1	26
339.530	1	7
339.701	1	19
339.872	1	27
340.043	1	9
340.214	1	15
340.385	1	26
340.556	1	24
340.727	1	9
340.898	1	14
341.069	1	21
341.240	1	31
341.411	1	17
341.582	1	10
341.753	1	19
341.924	1	22
342.095	1	15
342.266	1	8
342.437	1	10
342.608	1	10
342.779	1	14
342.950	1	16
343.121	1	22
343.292	1	19
343.463	1	26
343.634	1	25
343.805	1	11
343.976	1	21
344.147	1	23
344.318	1	14
344.489	1	26
344.660	1	23
344.831	1	18
345.002	1	14
345.173	1	20
345.344	1	11
345.515	1	26
345.686	1	20
345.857	1	16
346.028	1	24
346.199	1	21
346.370	1	27
346.541	1	30
346.712	1	16
346.883	1	30
347.054	1	12
347.225	1	13
347.396	1	20
347.567	1	22
347.738	1	18
347.909	1	27
348.080	1	13
348.251	1	15
348.422	1	27
348.593	1	21
348.764	1	14
348.935	1	24
349.106	1	18
349.277	1	35
349.448	1	15
349.619	1	24
349.790	1	31
349.961	1	27
350.132	1	25
350.303	1	25
350.474	1	18
350.645	1	19
350.816	1	27
350.987	1	19
351.157	1	24
351.328	1	30
351.499	1	18
351.670	1	29
351.841	1	13
352.012	1	30
352.183	1	9
352.354	1	19
352.525	1	24
352.696	1	25
352.867	1	14
353.038	1	33
353.209	1	27
353.380	1	34
353.551	1	37
353.722	1	25
353.893	1	26
354.064	1	29
354.235	1	21
354.406	1	40
354.576	1	22
354.747	1	29
354.918	1	27
355.089	1	28
355.260	1	28
355.431	1	21
355.602	1	30
355.773	1	21
355.944	1	12
356.115	1	29
356.286	1	29
356.457	1	32
356.628	1	38
356.799	1	32
356.970	1	25
357.141	1	31
357.311	1	37
357.482	1	20
357.653	1	24
357.824	1	45
357.995	1	25
358.166	1	38
358.337	1	24
358.508	1	24
358.679	1	29
358.850	1	31
359.021	1	23
359.192	1	30
359.363	1	46
359.533	1	27
359.704	1	36
359.875	1	48
360.046	1	27
360.217	1	23
360.388	1	33
360.559	1	37
360.730	1	27
360.901	1	28
361.072	1	31
361.243	1	35
361.414	1	19
361.584	1	31
361.755	1	44
361.926	1	22
362.097	1	26
362.268	1	35
362.439	1	24
362.610	1	31
362.781	1	36
362.952	1	27
363.123	1	50
363.293	1	33
363.464	1	27
363.635	1	40
363.806	1	39
363.977	1	27
364.148	1	25
364.319	1	24
364.490	1	25
364.661	1	42
364.832	1	35
365.002	1	36
365.173	1	37
365.344	1	29
365.515	1	39
365.686	1	38
365.857	1	39
366.028	1	27
366.199	1	29
366.370	1	34
366.540	1	36
366.711	1	28
366.882	1	32
367.053	1	25
367.224	1	31
367.395	1	34
367.566	1	36
367.737	1	47
367.908	1	30
368.078	1	43
368.249	1	28
368.420	1	32
368.591	1	43
368.762	1	37
368.933	1	29
369.104	1	43
369.274	1	33
369.445	1	32
369.616	1	40
369.787	1	38
369.958	1	32
370.129	1	35
370.300	1	34
370.471	1	33
370.641	1	37
370.812	1	34
370.983	1	24
371.154	1	44
371.325	1	44
371.496	1	27
371.667	1	40
371.837	1	43
372.008	1	40
372.179	1	37
372.350	1	35
372.521	1	34
372.692	1	46
372.863	1	34
373.033	1	32
373.204	1	41
373.375	1	32
373.546	1	36
373.717	1	29
373.888	1	39
374.059	1	46
374.229	1	50
374.400	1	34
374.571	1	38
374.742	1	42
374.913	1	27
375.084	1	40
375.254	1	41
375.425	1	30
375.596	1	39
375.767	1	37
375.938	1	35
376.109	1	28
376.279	1	40
376.450	1	41
376.621	1	47
376.792	1	33
376.963	1	40
377.134	1	42
377.304	1	35
377.475	1	44
377.646	1	39
377.817	1	27
377.988	1	38
378.159	1	35
378.329	1	38
378.500	1	40
378.671	1	42
378.842	1	37
379.013	1	35
379.184	1	46
379.354	1	28
379.525	1	36
379.696	1	32
379.867	1	36
380.038	1	31
380.209	1	37
380.379	1	44
380.550	1	41
380.721	1	50
380.892	1	35
381.063	1	40
381.233	1	27
381.404	1	50
381.575	1	40
381.746	1	47
381.917	1	37
382.087	1	41
382.258	1	45
382.429	1	50
382.600	1	49
382.771	1	44
382.941	1	44
383.112	1	41
383.283	1	42
383.454	1	33
383.625	1	45
383.795	1	48
383.966	1	45
384.137	1	48
384.308	1	55
384.479	1	45
384.649	1	46
384.820	1	43
384.991	1	47
385.162	1	40
385.333	1	48
385.503	1	43
385.674	1	37
385.845	1	56
386.016	1	40
386.187	1	35
386.357	1	45
386.528	1	36
386.699	1	47
386.870	1	54
387.041	1	34
387.211	1	48
387.382	1	51
387.553	1	38
387.724	1	34
387.894	1	47
388.065	1	43
388.236	1	42
388.407	1	43
388.578	1	40
388.748	1	45
388.919	1	51
389.090	1	41
389.261	1	49
389.431	1	60
389.602	1	42
389.773	1	47
389.944	1	41
390.114	1	51
390.285	1	44
390.456	1	51
390.627	1	56
390.798	1	52
390.968	1	41
391.139	1	39
391.310	1	52
391.481	1	45
391.651	1	53
391.822	1	47
391.993	1	65
392.164	1	40
392.334	1	55
392.505	1	34
392.676	1	45
392.847	1	48
393.017	1	56
393.188	1	48
393.359	1	45
393.530	1	50
393.700	1	50
393.871	1	31
394.042	1	48
394.213	1	49
394.383	1	50
394.554	1	36
394.725	1	44
394.896	1	45
395.066	1	56
395.237	1	45
395.408	1	46
395.579	1	44
395.749	1	44
395.920	1	43
396.091	1	45
396.262	1	57
396.432	1	46
396.603	1	50
396.774	1	39
396.945	1	53
397.115	1	57
397.286	1	52
397.457	1	47
397.627	1	53
397.798	1	40
397.969	1	37
398.140	1	58
398.310	1	42
398.481	1	47
398.652	1	50
398.823	1	55
398.993	1	50
399.164	1	51
399.335	1	40
399.505	1	57
399.676	1	48
399.847	1	50
400.018	1	44
400.188	1	46
400.359	1	47
400.530	1	61
400.700	1	40
400.871	1	64
401.042	1	45
401.213	1	47
401.383	1	46
401.554	1	52
401.725	1	54
401.895	1	60
402.066	1	43
402.237	1	41
402.408	1	60
402.578	1	57
402.749	1	48
402.920	1	52
403.090	1	53
403.261	1	59
403.432	1	50
403.603	1	45
403.773	1	57
403.944	1	45
404.115	1	59
404.285	1	41
404.456	1	56
404.627	1	48
404.797	1	41
404.968	1	63
405.139	1	49
405.310	1	41
405.480	1	46
405.651	1	69
405.822	1	56
405.992	1	51
406.163	1	59
406.334	1	44
406.504	1	36
406.675	1	52
406.846	1	45
407.016	1	50
407.187	1	63
407.358	1	51
407.528	1	40
407.699	1	56
407.870	1	54
408.041	1	58
408.211	1	45
408.382	1	56
408.553	1	55
408.723	1	53
408.894	1	49
409.065	1	63
409.235	1	58
409.406	1	48
409.577	1	54
409.747	1	45
409.918	1	45
410.089	1	55
410.259	1	62
410.430	1	43
410.601	1	50
410.771	1	63
410.942	1	58
411.113	1	40
411.283	1	53
411.454	1	48
411.625	1	52
411.795	1	51
411.966	1	60
412.137	1	48
412.307	1	52
412.478	1	56
412.649	1	55
412.819	1	55
412.990	1	50
413.161	1	53
413.331	1	52
413.502	1	48
413.672	1	64
413.843	1	58
414.014	1	56
414.184	1	48
414.355	1	55
414.526	1	56
414.696	1	59
414.867	1	71
415.038	1	40
415.208	1	61
415.379	1	55
415.550	1	59
415.720	1	57
415.891	1	55
416.062	1	54
416.232	1	41
416.403	1	57
416.573	1	56
416.744	1	53
416.915	1	54
417.085	1	52
417.256	1	56
417.427	1	61
417.597	1	49
417.768	1	50
417.939	1	55
418.109	1	51
418.280	1	45
418.450	1	54
418.621	1	49
418.792	1	48
418.962	1	54
419.133	1	40
419.304	1	50
419.474	1	45
419.645	1	58
419.815	1	49
419.986	1	52
420.157	1	39
420.327	1	55
420.498	1	40
420.669	1	59
420.839	1	51
421.010	1	47
421.180	1	49
421.351	1	53
421.522	1	35
421.692	1	57
421.863	1	52
422.033	1	56
422.204	1	55
422.375	1	54
422.545	1	52
422.716	1	42
422.886	1	47
423.057	1	52
423.228	1	41
423.398	1	56
423.569	1	57
423.740	1	49
423.910	1	45
424.081	1	47
424.251	1	44
424.422	1	50
424.593	1	54
424.763	1	48
424.934	1	50
425.104	1	41
425.275	1	59
425.445	1	53
425.616	1	47
425.787	1	41
425.957	1	61
426.128	1	37
426.298	1	43
426.469	1	34
426.640	1	59
426.810	1	45
426.981	1	57
427.151	1	59
427.322	1	55
427.493	1	47
427.663	1	51
427.834	1	44
428.004	1	52
428.175	1	39
428.345	1	43
428.516	1	50
428.687	1	45
428.857	1	35
429.028	1	49
429.198	1	46
429.369	1	46
429.540	1	42
429.710	1	40
429.881	1	39
430.051	1	46
430.222	1	39
430.392	1	56
430.563	1	54
430.734	1	49
430.904	1	42
431.075	1	43
431.245	1	53
431.416	1	43
431.586	1	47
431.757	1	54
431.927	1	46
432.098	1	38
432.269	1	45
432.439	1	71
432.610	1	54
432.780	1	43
432.951	1	45
433.121	1	47
433.292	1	48
433.462	1	40
433.633	1	40
433.804	1	39
433.974	1	41
434.145	1	47
434.315	1	49
434.486	1	41
434.656	1	56
434.827	1	38
434.997	1	51
435.168	1	48
435.339	1	51
435.509	1	54
435.680	1	43
435.850	1	37
436.021	1	43
436.191	1	51
436.362	1	51
436.532	1	48
436.703	1	33
436.873	1	37
437.044	1	46
437.214	1	61
437.385	1	51
437.556	1	45
437.726	1	30
437.897	1	33
438.067	1	40
438.238	1	47
438.408	1	42
438.579	1	59
438.749	1	38
438.920	1	49
439.090	1	51
439.261	1	42
439.431	1	56
439.602	1	43
439.772	1	47
439.943	1	46
440.113	1	34
440.284	1	57
440.455	1	47
440.625	1	55
440.796	1	38
440.966	1	28
441.137	1	47
441.307	1	40
441.478	1	40
441.648	1	39
441.819	1	56
441.989	1	52
442.160	1	31
442.330	1	59
442.501	1	51
442.671	1	30
442.842	1	34
443.012	1	55
443.183	1	38
443.353	1	43
443.524	1	32
443.694	1	44
443.865	1	45
444.035	1	38
444.206	1	35
444.376	1	39
444.547	1	32
444.717	1	46
444.888	1	45
445.058	1	47
445.229	1	40
445.399	1	49
445.570	1	48
445.740	1	37
445.911	1	30
446.081	1	45
446.252	1	37
446.422	1	38
446.593	1	26
446.763	1	57
446.934	1	40
447.104	1	41
447.275	1	39
447.445	1	38
447.616	1	43
447.786	1	43
447.957	1	43
448.127	1	38
448.298	1	39
448.468	1	38
448.639	1	47
448.809	1	49
448.979	1	38
449.150	1	33
449.320	1	38
449.491	1	28
449.661	1	42
449.832	1	37
450.002	1	34
450.173	1	43
450.343	1	51
450.514	1	48
450.684	1	44
450.855	1	39
451.025	1	38
451.196	1	29
451.366	1	41
451.537	1	39
451.707	1	37
451.878	1	35
452.048	1	35
452.218	1	31
452.389	1	51
452.559	1	41
452.730	1	34
452.900	1	41
453.071	1	31
453.241	1	27
453.412	1	36
453.582	1	48
453.753	1	38
453.923	1	34
454.093	1	52
454.264	1	42
454.434	1	42
454.605	1	39
454.775	1	26
454.946	1	36
455.116	1	35
455.287	1	37
455.457	1	37
455.628	1	28
455.798	1	34
455.968	1	38
456.139	1	38
456.309	1	41
456.480	1	33
456.650	1	28
456.821	1	38
456.991	1	37
457.161	1	27
457.332	1	31
457.502	1	45
457.673	1	40
457.843	1	23
458.014	1	44
458.184	1	36
458.355	1	27
458.525	1	31
458.695	1	45
458.866	1	38
459.036	1	48
459.207	1	37
459.377	1	39
459.548	1	43
459.718	1	37
459.888	1	39
460.059	1	31
460.229	1	34
460.400	1	40
460.570	1	35
460.740	1	31
460.911	1	36
461.081	1	28
461.252	1	30
461.422	1	21
461.593	1	42
461.763	1	44
461.933	1	31
462.104	1	33
462.274	1	36
462.445	1	36
462.615	1	47
462.785	1	33
462.956	1	33
463.126	1	31
463.297	1	32
463.467	1	36
463.638	1	34
463.808	1	26
463.978	1	38
464.149	1	39
464.319	1	25
464.490	1	35
464.660	1	43
464.830	1	24
465.001	1	25
465.171	1	29
465.342	1	26
465.512	1	45
465.682	1	27
465.853	1	44
466.023	1	46
466.194	1	12
466.364	1	27
466.534	1	19
466.705	1	33
466.875	1	27
467.045	1	23
467.216	1	29
467.386	1	30
467.557	1	41
467.727	1	39
467.897	1	35
468.068	1	36
468.238	1	29
468.409	1	37
468.579	1	37
468.749	1	29
468.920	1	37
469.090	1	32
469.260	1	36
469.431	1	33
469.601	1	31
469.772	1	18
469.942	1	40
470.112	1	29
470.283	1	29
470.453	1	38
470.623	1	32
470.794	1	16
470.964	1	42
471.135	1	25
471.305	1	18
471.475	1	38
471.646	1	31
471.816	1	31
471.986	1	33
472.157	1	24
472.327	1	36
472.497	1	32
472.668	1	19
472.838	1	32
473.009	1	39
473.179	1	30
473.349	1	32
473.520	1	24
473.690	1	21
473.860	1	32
474.031	1	23
474.201	1	33
474.371	1	31
474.542	1	34
474.712	1	30
474.882	1	23
475.053	1	20
475.223	1	26
475.394	1	19
475.564	1	20
475.734	1	25
475.905	1	21
476.075	1	16
476.245	1	26
476.416	1	24
476.586	1	19
476.756	1	23
476.927	1	22
477.097	1	33
477.267	1	25
477.438	1	17
477.608	1	27
477.778	1	36
477.949	1	22
478.119	1	11
478.289	1	20
478.460	1	23
478.630	1	26
478.800	1	29
478.971	1	23
479.141	1	21
479.311	1	22
479.482	1	11
479.652	1	34
479.822	1	20
479.993	1	30
480.163	1	21
480.333	1	30
480.504	1	24
480.674	1	16
480.844	1	17
481.015	1	18
481.185	1	22
481.355	1	19
481.525	1	16
481.696	1	13
481.866	1	16
482.036	1	20
482.207	1	27
482.377	1	25
482.547	1	14
482.718	1	13
482.888	1	15
483.058	1	20
483.229	1	21
483.399	1	20
483.569	1	18
483.740	1	15
483.910	1	29
484.080	1	31
484.250	1	28
484.421	1	23
484.591	1	16
484.761	1	26
484.932	1	25
485.102	1	24
485.272	1	21
485.443	1	26
485.613	1	24
485.783	1	24
485.953	1	16
486.124	1	40
486.294	1	9
486.464	1	20
486.635	1	21
486.805	1	21
486.975	1	21
487.146	1	17
487.316	1	11
487.486	1	15
487.656	1	34
487.827	1	14
487.997	1	8
488.167	1	22
488.338	1	24
488.508	1	20
488.678	1	18
488.848	1	21
489.019	1	25
489.189	1	15
489.359	1	13
489.529	1	10
489.700	1	21
489.870	1	15
490.040	1	10
490.211	1	14
490.381	1	36
490.551	1	15
490.721	1	23
490.892	1	35
491.062	1	25
491.232	1	19
491.402	1	11
491.573	1	19
491.743	1	11
491.913	1	22
492.084	1	15
492.254	1	27
492.424	1	9
492.594	1	8
492.765	1	20
492.935	1	12
493.105	1	18
493.275	1	15
493.446	1	23
493.616	1	11
493.786	1	21
493.956	1	20
494.127	1	20
494.297	1	22
494.467	1	16
494.637	1	27
494.808	1	15
494.978	1	14
495.148	1	39
495.318	1	21
495.489	1	21
495.659	1	27
495.829	1	17
495.999	1	11
496.170	1	27
496.340	1	19
496.510	1	23
496.680	1	14
496.851	1	32
497.021	1	21
497.191	1	16
497.361	1	13
497.532	1	10
497.702	1	22
497.872	1	7
498.042	1	29
498.213	1	13
498.383	1	22
498.553	1	20
498.723	1	12
498.894	1	29
499.064	1	7
499.234	1	23
499.404	1	22
499.574	1	24
499.745	1	7
499.915	1	5
500.085	1	6
500.255	1	9
500.426	1	19
500.596	1	19
500.766	1	17
500.936	1	14
501.106	1	15
501.277	1	24
501.447	1	11
501.617	1	15
501.787	1	19
501.958	1	9
502.128	1	21
502.298	1	18
502.468	1	14
502.638	1	30
502.809	1	24
502.979	1	21
503.149	1	15
503.319	1	24
503.489	1	21
503.660	1	17
503.830	1	13
504.000	1	23
504.170	1	1
504.340	1	19
504.511	1	20
504.681	1	14
504.851	1	11
505.021	1	15
505.192	1	17
505.362	1	19
505.532	1	23
505.702	1	13
505.872	1	18
506.043	1	5
506.213	1	16
506.383	1	16
506.553	1	22
506.723	1	15
506.893	1	14
507.064	1	17
507.234	1	5
507.404	1	21
507.574	1	14
507.744	1	2
507.915	1	16
508.085	1	12
508.255	1	12
508.425	1	15
508.595	1	15
508.766	1	17
508.936	1	10
509.106	1	12
509.276	1	21
509.446	1	-4
509.616	1	20
509.787	1	14
509.957	1	21
510.127	1	13
510.297	1	17
510.467	1	13
510.638	1	7
510.808	1	9
510.978	1	9
511.148	1	11
511.318	1	20
511.488	1	12
511.659	1	2
511.829	1	12
511.999	1	14
512.169	1	9
512.339	1	14
512.509	1	16
512.680	1	20
512.850	1	12
513.020	1	13
513.190	1	6
513.360	1	18
513.530	1	23
513.700	1	23
513.871	1	20
514.041	1	20
514.211	1	20
514.381	1	17
514.551	1	9
514.721	1	13
514.892	1	12
515.062	1	8
515.232	1	12
515.402	1	18
515.572	1	12
515.742	1	12
515.912	1	11
516.083	1	8
516.253	1	7
516.423	1	12
516.593	1	21
516.763	1	16
516.933	1	11
517.104	1	12
517.274	1	17
517.444	1	5
517.614	1	10
517.784	1	10
517.954	1	16
518.124	1	3
518.294	1	14
518.465	1	15
518.635	1	9
518.805	1	12
518.975	1	11
519.145	1	7
519.315	1	10
519.485	1	2
519.656	1	19
519.826	1	16
519.996	1	10
520.166	1	16
520.336	1	18
520.506	1	13
520.676	1	14
520.846	1	5
521.017	1	5
521.187	1	14
521.357	1	11
521.527	1	10
521.697	1	1
521.867	1	16
522.037	1	7
522.207	1	12
522.377	1	10
522.548	1	12
522.718	1	14
522.888	1	9
523.058	1	5
523.228	1	16
523.398	1	8
523.568	1	7
523.738	1	11
523.909	1	8
524.079	1	10
524.249	1	9
524.419	1	5
524.589	1	15
524.759	1	10
524.929	1	14
525.099	1	12
525.269	1	17
525.439	1	5
525.610	1	14
525.780	1	19
525.950	1	12
526.120	1	15
526.290	1	20
526.460	1	15
526.630	1	6
526.800	1	13
526.970	1	5
527.140	1	10
527.311	1	-2
527.481	1	6
527.651	1	-1
527.821	1	1
527.991	1	13
528.161	1	13
528.331	1	7
528.501	1	9
528.671	1	18
528.841	1	7
529.011	1	-4
529.181	1	16
529.352	1	9
529.522	1	1
529.692	1	19
529.862	1	13
530.032	1	4
530.202	1	14
530.372	1	4
530.542	1	19
530.712	1	-5
530.882	1	2
531.052	1	18
531.222	1	1
531.392	1	9
531.563	1	9
531.733	1	19
531.903	1	8
532.073	1	0
532.243	1	12
532.413	1	17
532.583	1	5
532.753	1	10
532.923	1	14
533.093	1	-3
533.263	1	-1
533.433	1	13
533.603	1	7
533.773	1	6
533.943	1	12
534.113	1	10
534.284	1	12
534.454	1	8
534.624	1	8
534.794	1	5
534.964	1	10
535.134	1	7
535.304	1	15
535.474	1	2
535.644	1	21
535.814	1	8
535.984	1	1
536.154	1	20
536.324	1	-9
536.494	1	10
536.664	1	-4
536.834	1	8
537.004	1	10
537.174	1	17
537.344	1	10
537.514	1	17
537.685	1	17
537.855	1	9
538.025	1	5
538.195	1	8
538.365	1	3
538.535	1	11
538.705	1	7
538.875	1	16
539.045	1	3
539.215	1	14
539.385	1	12
539.555	1	8
539.725	1	11
539.895	1	14
540.065	1	6
540.235	1	10
540.405	1	19
540.575	1	17
540.745	1	5
540.915	1	17
541.085	1	4
541.255	1	8
541.425	1	-3
541.595	1	0
541.765	1	8
541.935	1	16
542.105	1	3
542.275	1	11
542.445	1	4
542.615	1	26
542.785	1	17
542.955	1	14
543.125	1	-5
543.295	1	12
543.465	1	2
543.635	1	4
543.805	1	5
543.975	1	2
544.145	1	17
544.315	1	4
544.485	1	9
544.655	1	9
544.825	1	6
544.995	1	17
545.165	1	21
545.335	1	3
545.505	1	15
545.675	1	11
545.845	1	1
546.015	1	-1
546.185	1	9
546.355	1	-6
546.525	1	9
546.695	1	2
546.865	1	5
547.035	1	3
547.205	1	12
547.375	1	9
547.545	1	4
547.715	1	15
547.885	1	12
548.055	1	15
548.225	1	9
548.395	1	24
548.565	1	3
548.735	1	9
548.905	1	5
549.075	1	14
549.245	1	12
549.415	1	2
549.585	1	14
549.755	1	5
549.925	1	8
550.095	1	4
550.265	1	6
550.435	1	1
550.605	1	2
550.775	1	16
550.945	1	7
551.115	1	5
551.285	1	5
551.455	1	2
551.625	1	15
551.795	1	6
551.965	1	5
552.135	1	-12
552.305	1	1
552.475	1	12
552.645	1	16
552.815	1	9
552.985	1	6
553.155	1	2
553.325	1	12
553.495	1	6
553.665	1	11
553.835	1	1
554.004	1	16
554.174	1	9
554.344	1	14
554.514	1	18
554.684	1	6
554.854	1	4
555.024	1	16
555.194	1	16
555.364	1	6
555.534	1	14
555.704	1	3
555.874	1	16
556.044	1	8
556.214	1	1
556.384	1	5
556.554	1	-4
556.724	1	-12
556.894	1	7
557.064	1	7
557.234	1	11
557.404	1	6
557.573	1	6
557.743	1	9
557.913	1	1
558.083	1	2
558.253	1	6
558.423	1	-3
558.593	1	15
558.763	1	9
558.933	1	14
559.103	1	-12
559.273	1	9
559.443	1	4
559.613	1	11
559.783	1	7
559.953	1	3
560.122	1	4
560.292	1	0
560.462	1	8
560.632	1	11
560.802	1	7
560.972	1	15
561.142	1	9
561.312	1	4
561.482	1	6
561.652	1	8
561.822	1	8
561.992	1	8
562.162	1	2
562.331	1	-2
562.501	1	8
562.671	1	5
562.841	1	16
563.011	1	15
563.181	1	20
563.351	1	2
563.521	1	10
563.691	1	2
563.861	1	12
564.031	1	8
564.201	1	11
564.370	1	15
564.540	1	4
564.710	1	5
564.880	1	4
565.050	1	-3
565.220	1	6
565.390	1	14
565.560	1	10
565.730	1	7
565.900	1	-10
566.069	1	15
566.239	1	-4
566.409	1	15
566.579	1	11
566.749	1	22
566.919	1	5
567.089	1	4
567.259	1	5
567.429	1	4
567.599	1	5
567.768	1	3
567.938	1	-5
568.108	1	10
568.278	1	6
568.448	1	17
568.618	1	9
568.788	1	2
568.958	1	14
569.128	1	1
569.297	1	-2
569.467	1	5
569.637	1	-9
569.807	1	7
569.977	1	9
570.147	1	-8
570.317	1	18
570.487	1	2
570.656	1	7
570.826	1	14
570.996	1	-2
571.166	1	2
571.336	1	4
571.506	1	3
571.676	1	16
571.846	1	3
572.015	1	5
572.185	1	3
572.355	1	3
572.525	1	3
572.695	1	11
572.865	1	4
573.035	1	12
573.205	1	-13
573.374	1	7
573.544	1	3
573.714	1	19
573.884	1	14
574.054	1	13
574.224	1	7
574.394	1	-2
574.563	1	-1
574.733	1	4
574.903	1	7
575.073	1	1
575.243	1	-2
575.413	1	7
575.583	1	5
575.752	1	2
575.922	1	4
576.092	1	14
576.262	1	11
576.432	1	13
576.602	1	-4
576.772	1	-14
576.941	1	4
577.111	1	11
577.281	1	3
577.451	1	22
577.621	1	4
577.791	1	-1
577.960	1	9
578.130	1	1
578.300	1	3
578.470	1	7
578.640	1	10
578.810	1	4
578.979	1	14
579.149	1	-6
579.319	1	-2
579.489	1	0
579.659	1	1
579.829	1	4
579.998	1	10
580.168	1	-5
580.338	1	6
580.508	1	2
580.678	1	-6
580.848	1	10
581.017	1	18
581.187	1	7
581.357	1	-1
581.527	1	11
581.697	1	14
581.867	1	4
582.036	1	8
582.206	1	2
582.376	1	12
582.546	1	8
582.716	1	-1
582.885	1	9
583.055	1	10
583.225	1	6
583.395	1	11
583.565	1	14
583.735	1	0
583.904	1	5
584.074	1	7
584.244	1	15
584.414	1	2
584.584	1	4
584.753	1	8
584.923	1	10
585.093	1	1
585.263	1	12
585.433	1	3
585.602	1	4
585.772	1	8
585.942	1	-5
586.112	1	3
586.282	1	4
586.451	1	-3
586.621	1	17
586.791	1	11
586.961	1	16
587.131	1	13
587.300	1	-11
587.470	1	2
587.640	1	1
587.810	1	-4
587.980	1	8
588.149	1	11
588.319	1	3
588.489	1	14
588.659	1	-7
588.829	1	6
588.998	1	10
589.168	1	6
589.338	1	2
589.508	1	19
589.677	1	1
589.847	1	5
590.017	1	9
590.187	1	5
590.357	1	6
590.526	1	11
590.696	1	14
590.866	1	10
591.036	1	11
591.205	1	-2
591.375	1	1
591.545	1	-3
591.715	1	9
591.885	1	11
592.054	1	11
592.224	1	-5
592.394	1	5
592.564	1	3
592.733	1	8
592.903	1	10
593.073	1	-3
593.243	1	6
593.412	1	4
593.582	1	15
593.752	1	12
593.922	1	-2
594.091	1	11
594.261	1	8
594.431	1	4
594.601	1	9
594.771	1	-6
594.940	1	10
595.110	1	5
595.280	1	6
595.450	1	7
595.619	1	13
595.789	1	3
595.959	1	1
596.129	1	21
596.298	1	11
596.468	1	3
596.638	1	18
596.808	1	21
596.977	1	16
597.147	1	14
597.317	1	11
597.487	1	5
597.656	1	-4
597.826	1	2
597.996	1	8
598.166	1	13
598.335	1	16
598.505	1	6
598.675	1	3
598.844	1	-2
599.014	1	-4
599.184	1	18
599.354	1	4
599.523	1	12
599.693	1	8
599.863	1	1
600.033	1	7
600.202	1	0
600.372	1	-2
600.542	1	17
600.712	1	9
600.881	1	10
601.051	1	6
601.221	1	-5
601.390	1	4
601.560	1	4
601.730	1	7
601.900	1	4
602.069	1	3
602.239	1	-5
602.409	1	12
602.578	1	4
602.748	1	9
602.918	1	-3
603.088	1	8
603.257	1	9
603.427	1	0
603.597	1	7
603.767	1	-2
603.936	1	9
604.106	1	6
604.276	1	3
604.445	1	-1
604.615	1	-5
604.785	1	4
604.954	1	11
605.124	1	1
605.294	1	3
605.464	1	8
605.633	1	21
605.803	1	4
605.973	1	3
606.142	1	13
606.312	1	3
606.482	1	1
606.652	1	14
606.821	1	9
606.991	1	8
607.161	1	17
607.330	1	0
607.500	1	10
607.670	1	5
607.839	1	12
608.009	1	-3
608.179	1	3
608.348	1	11
608.518	1	8
608.688	1	8
608.858	1	6
609.027	1	10
609.197	1	3
609.367	1	11
609.536	1	2
609.706	1	14
609.876	1	8
610.045	1	5
610.215	1	6
610.385	1	12
610.554	1	2
610.724	1	11
610.894	1	10
611.063	1	3
611.233	1	3
611.403	1	3
611.572	1	0
611.742	1	8
611.912	1	7
612.081	1	16
612.251	1	12
612.421	1	6
612.590	1	1
612.760	1	5
612.930	1	8
613.099	1	16
613.269	1	12
613.439	1	15
613.608	1	14
613.778	1	2
613.948	1	7
614.117	1	4
614.287	1	-1
614.457	1	2
614.626	1	3
614.796	1	8
614.966	1	5
615.135	1	1
615.305	1	1
615.475	1	3
615.644	1	8
615.814	1	9
615.984	1	-1
616.153	1	-3
616.323	1	4
616.493	1	12
616.662	1	13
616.832	1	2
617.002	1	11
617.171	1	-3
617.341	1	6
617.511	1	8
617.680	1	5
617.850	1	-7
618.019	1	10
618.189	1	9
618.359	1	0
618.528	1	9
618.698	1	6
618.868	1	17
619.037	1	5
619.207	1	10
619.377	1	7
619.546	1	7
619.716	1	0
619.885	1	23
620.055	1	15
620.225	1	1
620.394	1	10
620.564	1	10
620.734	1	2
620.903	1	0
621.073	1	15
621.242	1	5
621.412	1	10
621.582	1	15
621.751	1	8
621.921	1	7
622.091	1	0
622.260	1	16
622.430	1	12
622.599	1	13
622.769	1	7
622.939	1	15
623.108	1	13
623.278	1	7
623.448	1	3
623.617	1	11
623.787	1	9
623.956	1	3
624.126	1	23
624.296	1	8
624.465	1	5
624.635	1	9
624.804	1	6
624.974	1	13
625.144	1	17
625.313	1	4
625.483	1	6
625.652	1	5
625.822	1	12
625.992	1	10
626.161	1	0
626.331	1	12
626.501	1	14
626.670	1	8
626.840	1	0
627.009	1	9
627.179	1	8
627.348	1	20
627.518	1	17
627.688	1	3
627.857	1	9
628.027	1	13
628.196	1	6
628.366	1	-2
628.536	1	3
628.705	1	1
628.875	1	13
629.044	1	6
629.214	1	8
629.384	1	19
629.553	1	3
629.723	1	9
629.892	1	4
630.062	1	13
630.232	1	2
630.401	1	4
630.571	1	6
630.740	1	2
630.910	1	14
631.079	1	11
631.249	1	0
631.419	1	9
631.588	1	-11
631.758	1	8
631.927	1	8
632.097	1	12
632.266	1	9
632.436	1	-2
632.606	1	12
632.775	1	20
632.945	1	0
633.114	1	1
633.284	1	7
633.453	1	3
633.623	1	4
633.793	1	10
633.962	1	6
634.132	1	14
634.301	1	11
634.471	1	23
634.640	1	9
634.810	1	18
634.979	1	9
635.149	1	11
635.319	1	12
635.488	1	12
635.658	1	4
635.827	1	12
635.997	1	7
636.166	1	8
636.336	1	9
636.505	1	17
636.675	1	6
636.845	1	10
637.014	1	12
637.184	1	6
637.353	1	9
637.523	1	9
637.692	1	11
637.862	1	8
638.031	1	11
638.201	1	20
638.370	1	14
638.540	1	8
638.710	1	12
638.879	1	3
639.049	1	11
639.218	1	5
639.388	1	15
639.557	1	13
639.727	1	1
639.896	1	6
640.066	1	16
640.235	1	11
640.405	1	7
640.574	1	6
640.744	1	22
640.914	1	8
641.083	1	8
641.253	1	2
641.422	1	11
641.592	1	11
641.761	1	16
641.931	1	3
642.100	1	11
642.270	1	10
642.439	1	5
642.609	1	8
642.778	1	10
642.948	1	8
643.117	1	12
643.287	1	2
643.456	1	4
643.626	1	6
643.795	1	6
643.965	1	18
644.134	1	9
644.304	1	15
644.473	1	8
644.643	1	0
644.812	1	10
644.982	1	9
645.151	1	3
645.321	1	-4
645.490	1	19
645.660	1	10
645.829	1	7
645.999	1	22
646.168	1	13
646.338	1	1
646.507	1	3
646.677	1	10
646.846	1	14
647.016	1	6
647.185	1	5
647.355	1	14
647.524	1	7
647.694	1	9
647.863	1	18
648.033	1	8
648.202	1	4
648.372	1	4
648.541	1	15
648.711	1	4
648.880	1	13
649.050	1	22
649.219	1	8
649.389	1	12
649.558	1	-2
649.728	1	7
649.897	1	7
650.067	1	1
650.236	1	15
650.406	1	-2
650.575	1	17
650.745	1	13
650.914	1	14
651.084	1	6
651.253	1	7
651.423	1	4
651.592	1	-2
651.762	1	12
651.931	1	13
652.101	1	10
652.270	1	10
652.440	1	15
652.609	1	8
652.778	1	7
652.948	1	4
653.117	1	19
653.287	1	12
653.456	1	8
653.626	1	12
653.795	1	21
653.965	1	9
654.134	1	1
654.304	1	11
654.473	1	21
654.643	1	16
654.812	1	14
654.982	1	15
655.151	1	13
655.320	1	6
655.490	1	4
655.659	1	5
655.829	1	6
655.998	1	7
656.168	1	1
656.337	1	16
656.507	1	-4
656.676	1	18
656.846	1	6
657.015	1	14
657.184	1	6
657.354	1	6
657.523	1	11
657.693	1	5
657.862	1	4
658.032	1	-5
658.201	1	9
658.371	1	15
658.540	1	21
658.709	1	23
658.879	1	-6
659.048	1	3
659.218	1	6
659.387	1	14
659.557	1	8
659.726	1	12
659.895	1	10
660.065	1	8
660.234	1	14
660.404	1	25
660.573	1	11
660.743	1	11
660.912	1	14
661.081	1	8
661.251	1	9
661.420	1	7
661.590	1	13
661.759	1	11
661.929	1	23
662.098	1	10
662.267	1	11
662.437	1	20
662.606	1	18
662.776	1	12
662.945	1	17
663.115	1	2
663.284	1	0
663.453	1	5
663.623	1	14
663.792	1	2
663.962	1	7
664.131	1	12
664.300	1	4
664.470	1	0
664.639	1	8
664.809	1	6
664.978	1	11
665.148	1	17
665.317	1	12
665.486	1	10
665.656	1	4
665.825	1	19
665.995	1	19
666.164	1	17
666.333	1	8
666.503	1	20
666.672	1	16
666.842	1	-9
667.011	1	12
667.180	1	14
667.350	1	25
667.519	1	0
667.689	1	16
667.858	1	20
668.027	1	16
668.197	1	19
668.366	1	14
668.536	1	8
668.705	1	17
668.874	1	16
669.044	1	11
669.213	1	6
669.382	1	17
669.552	1	6
669.721	1	10
669.891	1	3
670.060	1	-1
670.229	1	9
670.399	1	12
670.568	1	8
670.738	1	3
670.907	1	16
671.076	1	18
671.246	1	5
671.415	1	14
671.584	1	7
671.754	1	20
671.923	1	7
672.093	1	15
672.262	1	15
672.431	1	18
672.601	1	8
672.770	1	14
672.939	1	8
673.109	1	16
673.278	1	22
673.448	1	6
673.617	1	4
673.786	1	8
