325.333	1	-5
325.504	1	12
325.675	1	0
325.846	1	6
326.017	1	2
326.188	1	-3
326.359	1	13
326.531	1	-4
326.702	1	2
326.873	1	4
327.044	1	2
327.215	1	7
327.386	1	-1
327.557	1	8
327.728	1	-15
327.899	1	-2
328.070	1	2
328.241	1	5
328.412	1	-1
328.583	1	1
328.754	1	1
328.926	1	7
329.097	1	6
329.268	1	1
329.439	1	9
329.610	1	6
329.781	1	7
329.952	1	8
330.123	1	-3
330.294	1	8
330.465	1	13
330.636	1	8
330.807	1	-1
330.978	1	12
331.149	1	5
331.320	1	2
331.492	1	5
331.663	1	8
331.834	1	3
332.005	1	1
332.176	1	6
332.347	1	14
332.518	1	0
332.689	1	5
332.860	1	-3
333.031	1	9
333.202	1	4
333.373	1	-4
333.544	1	-3
333.715	1	-1
333.886	1	-4
334.057	1	-3
334.228	1	7
334.399	1	3
334.570	1	11
334.741	1	15
334.912	1	0
335.084	1	3
335.255	1	-2
335.426	1	-2
335.597	1	5
335.768	1	3
335.939	1	-4
336.110	1	5
336.281	1	5
336.452	1	10
336.623	1	7
336.794	1	-1
336.965	1	-2
337.136	1	3
337.307	1	14
337.478	1	-6
337.649	1	-1
337.820	1	-1
337.991	1	14
338.162	1	5
338.333	1	-1
338.504	1	-3
338.675	1	1
338.846	1	-1
339.017	1	8
339.188	1	2
339.359	1	-8
339.530	1	3
339.701	1	0
339.872	1	6
340.043	1	4
340.214	1	1
340.385	1	4
340.556	1	2
340.727	1	4
340.898	1	-3
341.069	1	10
341.240	1	3
341.411	1	0
341.582	1	8
341.753	1	1
341.924	1	6
342.095	1	-1
342.266	1	-10
342.437	1	-4
342.608	1	-4
342.779	1	1
342.950	1	8
343.121	1	5
343.292	1	7
343.463	1	0
343.634	1	12
343.805	1	-7
343.976	1	0
344.147	1	11
344.318	1	2
344.489	1	-3
344.660	1	-1
344.831	1	-1
345.002	1	1
345.173	1	14
345.344	1	-6
345.515	1	0
345.686	1	-4
345.857	1	8
346.028	1	11
346.199	1	12
346.370	1	6
346.541	1	15
346.712	1	-3
346.883	1	9
347.054	1	0
347.225	1	-2
347.396	1	2
347.567	1	5
347.738	1	2
347.909	1	4
348.080	1	-3
348.251	1	2
348.422	1	-3
348.593	1	0
348.764	1	4
348.935	1	1
349.106	1	5
349.277	1	5
349.448	1	2
349.619	1	3
349.790	1	21
349.961	1	-1
350.132	1	7
350.303	1	7
350.474	1	6
350.645	1	-8
350.816	1	12
350.987	1	1
351.157	1	0
351.328	1	2
351.499	1	2
351.670	1	12
351.841	1	-4
352.012	1	-5
352.183	1	-15
352.354	1	-5
352.525	1	-8
352.696	1	-3
352.867	1	-7
353.038	1	10
353.209	1	8
353.380	1	16
353.551	1	6
353.722	1	8
353.893	1	6
354.064	1	-5
354.235	1	2
354.406	1	-3
354.576	1	-5
354.747	1	4
354.918	1	9
355.089	1	3
355.260	1	7
355.431	1	8
355.602	1	8
355.773	1	2
355.944	1	1
356.115	1	-9
356.286	1	2
356.457	1	0
356.628	1	13
356.799	1	-4
356.970	1	2
357.141	1	6
357.311	1	11
357.482	1	0
357.653	1	2
357.824	1	18
357.995	1	5
358.166	1	4
358.337	1	2
358.508	1	3
358.679	1	-3
358.850	1	15
359.021	1	8
359.192	1	7
359.363	1	-2
359.533	1	0
359.704	1	6
359.875	1	8
360.046	1	1
360.217	1	0
360.388	1	6
360.559	1	8
360.730	1	-7
360.901	1	12
361.072	1	-1
361.243	1	6
361.414	1	2
361.584	1	17
361.755	1	4
361.926	1	2
362.097	1	-9
362.268	1	16
362.439	1	-3
362.610	1	2
362.781	1	3
362.952	1	4
363.123	1	13
363.293	1	2
363.464	1	4
363.635	1	4
363.806	1	5
363.977	1	-1
364.148	1	-4
364.319	1	5
364.490	1	9
364.661	1	6
364.832	1	8
365.002	1	9
365.173	1	6
365.344	1	-1
365.515	1	15
365.686	1	2
365.857	1	5
366.028	1	-4
366.199	1	5
366.370	1	15
366.540	1	12
366.711	1	-2
366.882	1	-2
367.053	1	4
367.224	1	-9
367.395	1	19
367.566	1	11
367.737	1	18
367.908	1	9
368.078	1	14
368.249	1	9
368.420	1	1
368.591	1	10
368.762	1	8
368.933	1	4
369.104	1	8
369.274	1	5
369.445	1	2
369.616	1	5
369.787	1	8
369.958	1	18
370.129	1	15
370.300	1	7
370.471	1	11
370.641	1	5
370.812	1	3
370.983	1	13
371.154	1	15
371.325	1	7
371.496	1	6
371.667	1	6
371.837	1	14
372.008	1	1
372.179	1	7
372.350	1	6
372.521	1	10
372.692	1	10
372.863	1	0
373.033	1	7
373.204	1	-3
373.375	1	4
373.546	1	14
373.717	1	-6
373.888	1	6
374.059	1	15
374.229	1	5
374.400	1	3
374.571	1	14
374.742	1	5
374.913	1	-6
375.084	1	2
375.254	1	15
375.425	1	3
375.596	1	6
375.767	1	7
375.938	1	5
376.109	1	3
376.279	1	0
376.450	1	5
376.621	1	8
376.792	1	2
376.963	1	4
377.134	1	18
377.304	1	5
377.475	1	6
377.646	1	5
377.817	1	-5
377.988	1	9
378.159	1	-7
378.329	1	-3
378.500	1	3
378.671	1	10
378.842	1	2
379.013	1	12
379.184	1	8
379.354	1	-5
379.525	1	8
379.696	1	6
379.867	1	-6
380.038	1	-9
380.209	1	-5
380.379	1	5
380.550	1	7
380.721	1	16
380.892	1	13
381.063	1	2
381.233	1	-8
381.404	1	4
381.575	1	8
381.746	1	10
381.917	1	-3
382.087	1	7
382.258	1	10
382.429	1	9
382.600	1	11
382.771	1	4
382.941	1	4
383.112	1	2
383.283	1	12
383.454	1	4
383.625	1	12
383.795	1	13
383.966	1	3
384.137	1	3
384.308	1	-1
384.479	1	7
384.649	1	14
384.820	1	10
384.991	1	-1
385.162	1	14
385.333	1	-1
385.503	1	10
385.674	1	7
385.845	1	2
386.016	1	6
386.187	1	-6
386.357	1	7
386.528	1	-8
386.699	1	3
386.870	1	9
387.041	1	2
387.211	1	3
387.382	1	4
387.553	1	5
387.724	1	-6
387.894	1	0
388.065	1	12
388.236	1	0
388.407	1	8
388.578	1	-1
388.748	1	6
388.919	1	1
389.090	1	18
389.261	1	14
389.431	1	10
389.602	1	1
389.773	1	-4
389.944	1	2
390.114	1	15
390.285	1	7
390.456	1	-3
390.627	1	-1
390.798	1	19
390.968	1	7
391.139	1	5
391.310	1	14
391.481	1	-6
391.651	1	5
391.822	1	8
391.993	1	10
392.164	1	-14
392.334	1	7
392.505	1	0
392.676	1	17
392.847	1	4
393.017	1	16
393.188	1	0
393.359	1	12
393.530	1	8
393.700	1	12
393.871	1	1
394.042	1	-13
394.213	1	7
394.383	1	15
394.554	1	9
394.725	1	15
394.896	1	10
395.066	1	6
395.237	1	6
395.408	1	13
395.579	1	8
395.749	1	5
395.920	1	6
396.091	1	10
396.262	1	16
396.432	1	6
396.603	1	-2
396.774	1	3
396.945	1	11
397.115	1	12
397.286	1	11
397.457	1	6
397.627	1	2
397.798	1	0
397.969	1	11
398.140	1	8
398.310	1	10
398.481	1	4
398.652	1	17
398.823	1	3
398.993	1	6
399.164	1	12
399.335	1	6
399.505	1	5
399.676	1	-1
399.847	1	11
400.018	1	12
400.188	1	13
400.359	1	-3
400.530	1	6
400.700	1	4
400.871	1	25
401.042	1	2
401.213	1	1
401.383	1	1
401.554	1	6
401.725	1	12
401.895	1	13
402.066	1	0
402.237	1	10
402.408	1	2
402.578	1	5
402.749	1	1
402.920	1	2
403.090	1	2
403.261	1	10
403.432	1	17
403.603	1	2
403.773	1	11
403.944	1	7
404.115	1	10
404.285	1	8
404.456	1	15
404.627	1	-1
404.797	1	0
404.968	1	19
405.139	1	5
405.310	1	11
405.480	1	3
405.651	1	20
405.822	1	8
405.992	1	6
406.163	1	15
406.334	1	4
406.504	1	6
406.675	1	-5
406.846	1	6
407.016	1	3
407.187	1	22
407.358	1	3
407.528	1	8
407.699	1	7
407.870	1	8
408.041	1	6
408.211	1	10
408.382	1	10
408.553	1	7
408.723	1	15
408.894	1	11
409.065	1	18
409.235	1	8
409.406	1	12
409.577	1	10
409.747	1	6
409.918	1	1
410.089	1	9
410.259	1	18
410.430	1	-1
410.601	1	7
410.771	1	3
410.942	1	13
411.113	1	-3
411.283	1	4
411.454	1	-2
411.625	1	10
411.795	1	6
411.966	1	20
412.137	1	1
412.307	1	13
412.478	1	11
412.649	1	2
412.819	1	2
412.990	1	4
413.161	1	1
413.331	1	14
413.502	1	11
413.672	1	11
413.843	1	21
414.014	1	4
414.184	1	2
414.355	1	22
414.526	1	8
414.696	1	18
414.867	1	15
415.038	1	5
415.208	1	13
415.379	1	16
415.550	1	5
415.720	1	2
415.891	1	12
416.062	1	12
416.232	1	5
416.403	1	5
416.573	1	13
416.744	1	6
416.915	1	18
417.085	1	11
417.256	1	10
417.427	1	6
417.597	1	6
417.768	1	6
417.939	1	15
418.109	1	6
418.280	1	5
418.450	1	11
418.621	1	3
418.792	1	0
418.962	1	5
419.133	1	3
419.304	1	7
419.474	1	6
419.645	1	-5
419.815	1	7
419.986	1	2
420.157	1	-4
420.327	1	3
420.498	1	6
420.669	1	11
420.839	1	6
421.010	1	18
421.180	1	5
421.351	1	9
421.522	1	-4
421.692	1	17
421.863	1	10
422.033	1	13
422.204	1	19
422.375	1	8
422.545	1	14
422.716	1	4
422.886	1	10
423.057	1	-1
423.228	1	-2
423.398	1	10
423.569	1	12
423.740	1	6
423.910	1	9
424.081	1	8
424.251	1	3
424.422	1	1
424.593	1	0
424.763	1	10
424.934	1	1
425.104	1	10
425.275	1	-1
425.445	1	12
425.616	1	1
425.787	1	-3
425.957	1	11
426.128	1	-3
426.298	1	-4
426.469	1	-3
426.640	1	9
426.810	1	1
426.981	1	4
427.151	1	15
427.322	1	9
427.493	1	20
427.663	1	6
427.834	1	10
428.004	1	5
428.175	1	9
428.345	1	2
428.516	1	16
428.687	1	0
428.857	1	1
429.028	1	6
429.198	1	2
429.369	1	0
429.540	1	-2
429.710	1	0
429.881	1	4
430.051	1	8
430.222	1	4
430.392	1	7
430.563	1	6
430.734	1	11
430.904	1	5
431.075	1	11
431.245	1	11
431.416	1	11
431.586	1	-3
431.757	1	13
431.927	1	-1
432.098	1	10
432.269	1	7
432.439	1	12
432.610	1	11
432.780	1	13
432.951	1	2
433.121	1	3
433.292	1	-1
433.462	1	8
433.633	1	-2
433.804	1	14
433.974	1	-6
434.145	1	5
434.315	1	3
434.486	1	6
434.656	1	-1
434.827	1	-1
434.997	1	11
435.168	1	8
435.339	1	6
435.509	1	12
435.680	1	-1
435.850	1	0
436.021	1	10
436.191	1	7
436.362	1	4
436.532	1	5
436.703	1	3
436.873	1	7
437.044	1	1
437.214	1	17
437.385	1	18
437.556	1	8
437.726	1	-3
437.897	1	10
438.067	1	0
438.238	1	-7
438.408	1	3
438.579	1	10
438.749	1	0
438.920	1	12
439.090	1	13
439.261	1	1
439.431	1	5
439.602	1	5
439.772	1	12
439.943	1	4
440.113	1	-6
440.284	1	3
440.455	1	9
440.625	1	11
440.796	1	14
440.966	1	-1
441.137	1	8
441.307	1	5
441.478	1	10
441.648	1	7
441.819	1	19
441.989	1	13
442.160	1	-4
442.330	1	5
442.501	1	15
442.671	1	6
442.842	1	3
443.012	1	7
443.183	1	4
443.353	1	7
443.524	1	7
443.694	1	5
443.865	1	9
444.035	1	2
444.206	1	8
444.376	1	4
444.547	1	11
444.717	1	8
444.888	1	2
445.058	1	5
445.229	1	6
445.399	1	16
445.570	1	13
445.740	1	17
445.911	1	-10
446.081	1	8
446.252	1	6
446.422	1	8
446.593	1	3
446.763	1	15
446.934	1	9
447.104	1	14
447.275	1	-4
447.445	1	2
447.616	1	3
447.786	1	14
447.957	1	7
448.127	1	-4
448.298	1	5
448.468	1	2
448.639	1	9
448.809	1	15
448.979	1	7
449.150	1	-2
449.320	1	11
449.491	1	5
449.661	1	15
449.832	1	4
450.002	1	-3
450.173	1	7
450.343	1	13
450.514	1	3
450.684	1	5
450.855	1	4
451.025	1	5
451.196	1	4
451.366	1	10
451.537	1	2
451.707	1	12
451.878	1	0
452.048	1	10
452.218	1	5
452.389	1	7
452.559	1	4
452.730	1	7
452.900	1	7
453.071	1	4
453.241	1	2
453.412	1	5
453.582	1	7
453.753	1	4
453.923	1	13
454.093	1	9
454.264	1	5
454.434	1	9
454.605	1	5
454.775	1	2
454.946	1	7
455.116	1	2
455.287	1	1
455.457	1	6
455.628	1	-2
455.798	1	4
455.968	1	12
456.139	1	6
456.309	1	5
456.480	1	6
456.650	1	2
456.821	1	13
456.991	1	2
457.161	1	-1
457.332	1	4
457.502	1	7
457.673	1	9
457.843	1	5
458.014	1	15
458.184	1	8
458.355	1	-7
458.525	1	-2
458.695	1	12
458.866	1	6
459.036	1	15
459.207	1	15
459.377	1	1
459.548	1	10
459.718	1	-7
459.888	1	11
460.059	1	12
460.229	1	8
460.400	1	-2
460.570	1	14
460.740	1	9
460.911	1	2
461.081	1	3
461.252	1	0
461.422	1	-7
461.593	1	4
461.763	1	13
461.933	1	0
462.104	1	4
462.274	1	2
462.445	1	9
462.615	1	13
462.785	1	5
462.956	1	-2
463.126	1	10
463.297	1	7
463.467	1	5
463.638	1	0
463.808	1	7
463.978	1	3
464.149	1	15
464.319	1	7
464.490	1	13
464.660	1	17
464.830	1	5
465.001	1	-9
465.171	1	-3
465.342	1	7
465.512	1	13
465.682	1	9
465.853	1	18
466.023	1	19
466.194	1	-10
466.364	1	-6
466.534	1	0
466.705	1	5
466.875	1	5
467.045	1	15
467.216	1	4
467.386	1	9
467.557	1	12
467.727	1	2
467.897	1	21
468.068	1	0
468.238	1	3
468.409	1	8
468.579	1	10
468.749	1	10
468.920	1	15
469.090	1	-4
469.260	1	16
469.431	1	-1
469.601	1	5
469.772	1	-2
469.942	1	9
470.112	1	7
470.283	1	8
470.453	1	-1
470.623	1	6
470.794	1	2
470.964	1	6
471.135	1	8
471.305	1	5
471.475	1	7
471.646	1	8
471.816	1	8
471.986	1	0
472.157	1	4
472.327	1	7
472.497	1	13
472.668	1	7
472.838	1	7
473.009	1	9
473.179	1	6
473.349	1	-3
473.520	1	-6
473.690	1	9
473.860	1	0
474.031	1	-4
474.201	1	7
474.371	1	10
474.542	1	16
474.712	1	-2
474.882	1	4
475.053	1	0
475.223	1	-5
475.394	1	-2
475.564	1	1
475.734	1	8
475.905	1	3
476.075	1	3
476.245	1	14
476.416	1	9
476.586	1	7
476.756	1	-3
476.927	1	4
477.097	1	12
477.267	1	8
477.438	1	-1
477.608	1	13
477.778	1	8
477.949	1	10
478.119	1	3
478.289	1	7
478.460	1	0
478.630	1	12
478.800	1	2
478.971	1	8
479.141	1	-4
479.311	1	-1
479.482	1	-14
479.652	1	10
479.822	1	-9
479.993	1	11
480.163	1	1
480.333	1	15
480.504	1	-2
480.674	1	-2
480.844	1	4
481.015	1	11
481.185	1	5
481.355	1	2
481.525	1	-3
481.696	1	6
481.866	1	3
482.036	1	-1
482.207	1	5
482.377	1	5
482.547	1	2
482.718	1	-2
482.888	1	-5
483.058	1	6
483.229	1	3
483.399	1	1
483.569	1	1
483.740	1	8
483.910	1	16
484.080	1	17
484.250	1	4
484.421	1	7
484.591	1	12
484.761	1	3
484.932	1	7
485.102	1	-3
485.272	1	-2
485.443	1	18
485.613	1	-8
485.783	1	7
485.953	1	-8
486.124	1	10
486.294	1	-1
486.464	1	7
486.635	1	1
486.805	1	16
486.975	1	3
487.146	1	6
487.316	1	0
487.486	1	-1
487.656	1	10
487.827	1	6
487.997	1	0
488.167	1	5
488.338	1	5
488.508	1	-5
488.678	1	9
488.848	1	11
489.019	1	6
489.189	1	-16
489.359	1	5
489.529	1	-8
489.700	1	5
489.870	1	0
490.040	1	2
490.211	1	1
490.381	1	20
490.551	1	1
490.721	1	1
490.892	1	12
491.062	1	-1
491.232	1	6
491.402	1	-2
491.573	1	0
491.743	1	2
491.913	1	1
492.084	1	9
492.254	1	17
492.424	1	-3
492.594	1	-7
492.765	1	3
492.935	1	-1
493.105	1	-3
493.275	1	-1
493.446	1	5
493.616	1	-12
493.786	1	1
493.956	1	3
494.127	1	-1
494.297	1	10
494.467	1	5
494.637	1	8
494.808	1	-1
494.978	1	-5
495.148	1	10
495.318	1	7
495.489	1	5
495.659	1	2
495.829	1	8
495.999	1	-3
496.170	1	6
496.340	1	-6
496.510	1	23
496.680	1	4
496.851	1	12
497.021	1	15
497.191	1	9
497.361	1	16
497.532	1	16
497.702	1	-6
497.872	1	-2
498.042	1	14
498.213	1	-5
498.383	1	7
498.553	1	4
498.723	1	1
498.894	1	16
499.064	1	-1
499.234	1	12
499.404	1	4
499.574	1	3
499.745	1	-1
499.915	1	-2
500.085	1	-4
500.255	1	5
500.426	1	3
500.596	1	11
500.766	1	2
500.936	1	4
501.106	1	6
501.277	1	5
501.447	1	-4
501.617	1	-3
501.787	1	12
501.958	1	-5
502.128	1	14
502.298	1	6
502.468	1	9
502.638	1	11
502.809	1	9
502.979	1	4
503.149	1	-2
503.319	1	1
503.489	1	0
503.660	1	1
503.830	1	13
504.000	1	-1
504.170	1	2
504.340	1	-6
504.511	1	9
504.681	1	-1
504.851	1	-4
505.021	1	-3
505.192	1	7
505.362	1	2
505.532	1	-2
505.702	1	4
505.872	1	3
506.043	1	-10
506.213	1	2
506.383	1	-4
506.553	1	3
506.723	1	13
506.893	1	0
507.064	1	8
507.234	1	-7
507.404	1	17
507.574	1	4
507.744	1	1
507.915	1	7
508.085	1	1
508.255	1	1
508.425	1	3
508.595	1	-8
508.766	1	2
508.936	1	3
509.106	1	16
509.276	1	8
509.446	1	-14
509.616	1	15
509.787	1	-6
509.957	1	1
510.127	1	4
510.297	1	5
510.467	1	5
510.638	1	-2
510.808	1	-10
510.978	1	12
511.148	1	1
511.318	1	19
511.488	1	-2
511.659	1	-5
511.829	1	0
511.999	1	-5
512.169	1	-7
512.339	1	4
512.509	1	3
512.680	1	7
512.850	1	2
513.020	1	1
513.190	1	2
513.360	1	6
513.530	1	11
513.700	1	11
513.871	1	2
514.041	1	2
514.211	1	17
514.381	1	-5
514.551	1	-2
514.721	1	6
514.892	1	11
515.062	1	3
515.232	1	-7
515.402	1	13
515.572	1	6
515.742	1	1
515.912	1	13
516.083	1	9
516.253	1	-2
516.423	1	-2
516.593	1	10
516.763	1	6
516.933	1	2
517.104	1	5
517.274	1	6
517.444	1	-4
517.614	1	0
517.784	1	12
517.954	1	4
518.124	1	-7
518.294	1	10
518.465	1	8
518.635	1	-4
518.805	1	4
518.975	1	0
519.145	1	8
519.315	1	2
519.485	1	-4
519.656	1	12
519.826	1	9
519.996	1	5
520.166	1	8
520.336	1	8
520.506	1	7
520.676	1	4
520.846	1	7
521.017	1	-9
521.187	1	6
521.357	1	-7
521.527	1	3
521.697	1	-8
521.867	1	-1
522.037	1	6
522.207	1	7
522.377	1	4
522.548	1	-2
522.718	1	3
522.888	1	-4
523.058	1	1
523.228	1	6
523.398	1	2
523.568	1	2
523.738	1	8
523.909	1	4
524.079	1	6
524.249	1	-7
524.419	1	3
524.589	1	7
524.759	1	-2
524.929	1	-2
525.099	1	11
525.269	1	5
525.439	1	7
525.610	1	3
525.780	1	8
525.950	1	2
526.120	1	5
526.290	1	3
526.460	1	8
526.630	1	-3
526.800	1	-2
526.970	1	8
527.140	1	2
527.311	1	-3
527.481	1	0
527.651	1	3
527.821	1	-3
527.991	1	-2
528.161	1	2
528.331	1	1
528.501	1	-6
528.671	1	4
528.841	1	16
529.011	1	-2
529.181	1	5
529.352	1	-7
529.522	1	-4
529.692	1	2
529.862	1	1
530.032	1	5
530.202	1	3
530.372	1	4
530.542	1	4
530.712	1	-8
530.882	1	-2
531.052	1	5
531.222	1	-2
531.392	1	2
531.563	1	-11
531.733	1	13
531.903	1	-3
532.073	1	-5
532.243	1	1
532.413	1	-1
532.583	1	1
532.753	1	0
532.923	1	9
533.093	1	-6
533.263	1	-3
533.433	1	3
533.603	1	5
533.773	1	2
533.943	1	12
534.113	1	-1
534.284	1	0
534.454	1	5
534.624	1	-2
534.794	1	2
534.964	1	3
535.134	1	9
535.304	1	5
535.474	1	-9
535.644	1	12
535.814	1	-7
535.984	1	1
536.154	1	4
536.324	1	3
536.494	1	-2
536.664	1	0
536.834	1	4
537.004	1	-3
537.174	1	3
537.344	1	9
537.514	1	-4
537.685	1	2
537.855	1	5
538.025	1	-4
538.195	1	9
538.365	1	-8
538.535	1	3
538.705	1	2
538.875	1	3
539.045	1	7
539.215	1	11
539.385	1	-7
539.555	1	-9
539.725	1	3
539.895	1	11
540.065	1	-1
540.235	1	-12
540.405	1	20
540.575	1	4
540.745	1	-1
540.915	1	0
541.085	1	0
541.255	1	3
541.425	1	-8
541.595	1	-5
541.765	1	-13
541.935	1	4
542.105	1	-8
542.275	1	-6
542.445	1	-2
542.615	1	3
542.785	1	10
542.955	1	1
543.125	1	-4
543.295	1	5
543.465	1	2
543.635	1	-7
543.805	1	5
543.975	1	-5
544.145	1	9
544.315	1	-9
544.485	1	4
544.655	1	1
544.825	1	4
544.995	1	10
545.165	1	12
545.335	1	-5
545.505	1	2
545.675	1	6
545.845	1	-1
546.015	1	5
546.185	1	-10
546.355	1	1
546.525	1	1
546.695	1	-2
546.865	1	-13
547.035	1	-8
547.205	1	7
547.375	1	6
547.545	1	-5
547.715	1	5
547.885	1	0
548.055	1	-6
548.225	1	-6
548.395	1	8
548.565	1	0
548.735	1	0
548.905	1	0
549.075	1	8
549.245	1	-3
549.415	1	-2
549.585	1	6
549.755	1	-6
549.925	1	-4
550.095	1	-3
550.265	1	-7
550.435	1	2
550.605	1	0
550.775	1	10
550.945	1	4
551.115	1	-1
551.285	1	-5
551.455	1	-13
551.625	1	0
551.795	1	8
551.965	1	1
552.135	1	-7
552.305	1	-1
552.475	1	15
552.645	1	14
552.815	1	-8
552.985	1	-12
553.155	1	-1
553.325	1	-2
553.495	1	1
553.665	1	0
553.835	1	3
554.004	1	-5
554.174	1	-9
554.344	1	-4
554.514	1	12
554.684	1	-4
554.854	1	-3
555.024	1	10
555.194	1	2
555.364	1	3
555.534	1	10
555.704	1	-1
555.874	1	-1
556.044	1	6
556.214	1	-9
556.384	1	-2
556.554	1	-5
556.724	1	-2
556.894	1	-7
557.064	1	-14
557.234	1	2
557.404	1	-1
557.573	1	8
557.743	1	6
557.913	1	3
558.083	1	-12
558.253	1	1
558.423	1	-6
558.593	1	-2
558.763	1	4
558.933	1	3
559.103	1	-3
559.273	1	-1
559.443	1	-1
559.613	1	2
559.783	1	2
559.953	1	3
560.122	1	-4
560.292	1	9
560.462	1	4
560.632	1	2
560.802	1	4
560.972	1	10
561.142	1	9
561.312	1	9
561.482	1	7
561.652	1	-1
561.822	1	2
561.992	1	-2
562.162	1	3
562.331	1	-1
562.501	1	-3
562.671	1	5
562.841	1	2
563.011	1	9
563.181	1	16
563.351	1	-4
563.521	1	3
563.691	1	-5
563.861	1	2
564.031	1	4
564.201	1	-5
564.370	1	6
564.540	1	7
564.710	1	9
564.880	1	10
565.050	1	-2
565.220	1	-6
565.390	1	5
565.560	1	4
565.730	1	0
565.900	1	-6
566.069	1	13
566.239	1	-3
566.409	1	9
566.579	1	0
566.749	1	11
566.919	1	5
567.089	1	3
567.259	1	8
567.429	1	10
567.599	1	-9
567.768	1	-2
567.938	1	-14
568.108	1	-4
568.278	1	-3
568.448	1	8
568.618	1	11
568.788	1	-4
568.958	1	15
569.128	1	7
569.297	1	4
569.467	1	1
569.637	1	3
569.807	1	3
569.977	1	7
570.147	1	-10
570.317	1	16
570.487	1	3
570.656	1	-9
570.826	1	24
570.996	1	-4
571.166	1	3
571.336	1	10
571.506	1	4
571.676	1	3
571.846	1	0
572.015	1	8
572.185	1	9
572.355	1	-5
572.525	1	1
572.695	1	2
572.865	1	-12
573.035	1	-1
573.205	1	-1
573.374	1	-8
573.544	1	0
573.714	1	12
573.884	1	9
574.054	1	9
574.224	1	5
574.394	1	-1
574.563	1	-3
574.733	1	-3
574.903	1	1
575.073	1	3
575.243	1	1
575.413	1	8
575.583	1	-1
575.752	1	2
575.922	1	-3
576.092	1	2
576.262	1	2
576.432	1	3
576.602	1	-5
576.772	1	-11
576.941	1	8
577.111	1	6
577.281	1	10
577.451	1	13
577.621	1	-5
577.791	1	-1
577.960	1	4
578.130	1	-5
578.300	1	3
578.470	1	5
578.640	1	0
578.810	1	5
578.979	1	5
579.149	1	1
579.319	1	1
579.489	1	-5
579.659	1	4
579.829	1	1
579.998	1	-7
580.168	1	-2
580.338	1	2
580.508	1	-6
580.678	1	5
580.848	1	7
581.017	1	5
581.187	1	-8
581.357	1	-13
581.527	1	-6
581.697	1	1
581.867	1	-9
582.036	1	-4
582.206	1	8
582.376	1	0
582.546	1	-3
582.716	1	1
582.885	1	4
583.055	1	2
583.225	1	-8
583.395	1	0
583.565	1	18
583.735	1	1
583.904	1	-6
584.074	1	1
584.244	1	10
584.414	1	5
584.584	1	-8
584.753	1	9
584.923	1	0
585.093	1	-6
585.263	1	6
585.433	1	-3
585.602	1	-5
585.772	1	8
585.942	1	-6
586.112	1	0
586.282	1	3
586.451	1	-8
586.621	1	5
586.791	1	-4
586.961	1	8
587.131	1	14
587.300	1	-11
587.470	1	7
587.640	1	1
587.810	1	-5
587.980	1	4
588.149	1	6
588.319	1	1
588.489	1	8
588.659	1	-4
588.829	1	4
588.998	1	7
589.168	1	-6
589.338	1	6
589.508	1	2
589.677	1	3
589.847	1	-8
590.017	1	4
590.187	1	6
590.357	1	-10
590.526	1	10
590.696	1	1
590.866	1	1
591.036	1	-4
591.205	1	-6
591.375	1	1
591.545	1	3
591.715	1	4
591.885	1	13
592.054	1	8
592.224	1	2
592.394	1	2
592.564	1	1
592.733	1	-2
592.903	1	1
593.073	1	-6
593.243	1	-1
593.412	1	-9
593.582	1	1
593.752	1	4
593.922	1	-4
594.091	1	-2
594.261	1	2
594.431	1	-3
594.601	1	-8
594.771	1	-10
594.940	1	-2
595.110	1	-2
595.280	1	1
595.450	1	-1
595.619	1	0
595.789	1	8
595.959	1	-5
596.129	1	5
596.298	1	6
596.468	1	-1
596.638	1	11
596.808	1	2
596.977	1	10
597.147	1	2
597.317	1	-9
597.487	1	-3
597.656	1	8
597.826	1	-6
597.996	1	-6
598.166	1	2
598.335	1	8
598.505	1	4
598.675	1	5
598.844	1	-4
599.014	1	-3
599.184	1	9
599.354	1	3
599.523	1	-8
599.693	1	10
599.863	1	4
600.033	1	-5
600.202	1	1
600.372	1	7
600.542	1	9
600.712	1	-3
600.881	1	-4
601.051	1	-2
601.221	1	-8
601.390	1	-3
601.560	1	-1
601.730	1	1
601.900	1	-1
602.069	1	6
602.239	1	1
602.409	1	6
602.578	1	-10
602.748	1	7
602.918	1	7
603.088	1	0
603.257	1	3
603.427	1	1
603.597	1	-2
603.767	1	-2
603.936	1	11
604.106	1	6
604.276	1	1
604.445	1	0
604.615	1	-9
604.785	1	-12
604.954	1	7
605.124	1	-5
605.294	1	1
605.464	1	13
605.633	1	5
605.803	1	-7
605.973	1	-6
606.142	1	3
606.312	1	0
606.482	1	-4
606.652	1	11
606.821	1	4
606.991	1	9
607.161	1	19
607.330	1	-7
607.500	1	-8
607.670	1	0
607.839	1	5
608.009	1	-7
608.179	1	-7
608.348	1	16
608.518	1	2
608.688	1	8
608.858	1	-4
609.027	1	-2
609.197	1	11
609.367	1	1
609.536	1	-6
609.706	1	-7
609.876	1	1
610.045	1	1
610.215	1	0
610.385	1	13
610.554	1	2
610.724	1	6
610.894	1	6
611.063	1	-3
611.233	1	5
611.403	1	-11
611.572	1	-1
611.742	1	0
611.912	1	0
612.081	1	6
612.251	1	8
612.421	1	3
612.590	1	-10
612.760	1	2
612.930	1	-7
613.099	1	2
613.269	1	1
613.439	1	2
613.608	1	16
613.778	1	-4
613.948	1	1
614.117	1	5
614.287	1	8
614.457	1	-10
614.626	1	-4
614.796	1	-8
614.966	1	-4
615.135	1	5
615.305	1	-3
615.475	1	11
615.644	1	3
615.814	1	-3
615.984	1	-11
616.153	1	-5
616.323	1	-7
616.493	1	2
616.662	1	7
616.832	1	1
617.002	1	12
617.171	1	-8
617.341	1	7
617.511	1	-1
617.680	1	10
617.850	1	-3
618.019	1	4
618.189	1	7
618.359	1	-4
618.528	1	1
618.698	1	-3
618.868	1	19
619.037	1	-2
619.207	1	9
619.377	1	9
619.546	1	-5
619.716	1	2
619.885	1	14
620.055	1	11
620.225	1	5
620.394	1	4
620.564	1	-3
620.734	1	-2
620.903	1	7
621.073	1	-4
621.242	1	-9
621.412	1	-1
621.582	1	-5
621.751	1	-4
621.921	1	1
622.091	1	4
622.260	1	2
622.430	1	2
622.599	1	7
622.769	1	1
622.939	1	4
623.108	1	6
623.278	1	6
623.448	1	0
623.617	1	1
623.787	1	5
623.956	1	-6
624.126	1	6
624.296	1	3
624.465	1	0
624.635	1	5
624.804	1	5
624.974	1	3
625.144	1	16
625.313	1	0
625.483	1	-1
625.652	1	0
625.822	1	3
625.992	1	-2
626.161	1	-12
626.331	1	-5
626.501	1	11
626.670	1	-5
626.840	1	-9
627.009	1	4
627.179	1	6
627.348	1	12
627.518	1	9
627.688	1	-5
627.857	1	-7
628.027	1	3
628.196	1	-1
628.366	1	-4
628.536	1	13
628.705	1	2
628.875	1	2
629.044	1	-9
629.214	1	-8
629.384	1	5
629.553	1	10
629.723	1	7
629.892	1	-8
630.062	1	5
630.232	1	4
630.401	1	7
630.571	1	-3
630.740	1	-3
630.910	1	6
631.079	1	1
631.249	1	-3
631.419	1	5
631.588	1	-15
631.758	1	-1
631.927	1	0
632.097	1	4
632.266	1	9
632.436	1	5
632.606	1	4
632.775	1	8
632.945	1	-5
633.114	1	0
633.284	1	-4
633.453	1	-3
633.623	1	0
633.793	1	1
633.962	1	-7
634.132	1	3
634.301	1	3
634.471	1	7
634.640	1	5
634.810	1	6
634.979	1	20
635.149	1	4
635.319	1	-1
635.488	1	1
635.658	1	0
635.827	1	1
635.997	1	-5
636.166	1	11
636.336	1	1
636.505	1	12
636.675	1	-11
636.845	1	5
637.014	1	3
637.184	1	-5
637.353	1	-5
637.523	1	-1
637.692	1	4
637.862	1	-6
638.031	1	7
638.201	1	7
638.370	1	5
638.540	1	-2
638.710	1	9
638.879	1	0
639.049	1	7
639.218	1	-3
639.388	1	10
639.557	1	-4
639.727	1	1
639.896	1	6
640.066	1	2
640.235	1	7
640.405	1	1
640.574	1	3
640.744	1	3
640.914	1	-1
641.083	1	1
641.253	1	-1
641.422	1	7
641.592	1	7
641.761	1	6
641.931	1	-4
642.100	1	1
642.270	1	6
642.439	1	-2
642.609	1	6
642.778	1	1
642.948	1	-6
643.117	1	3
643.287	1	3
643.456	1	-10
643.626	1	-3
643.795	1	4
643.965	1	0
644.134	1	0
644.304	1	2
644.473	1	3
644.643	1	-1
644.812	1	5
644.982	1	-3
645.151	1	6
645.321	1	-2
645.490	1	3
645.660	1	2
645.829	1	4
645.999	1	19
646.168	1	11
646.338	1	1
646.507	1	-11
646.677	1	6
646.846	1	6
647.016	1	5
647.185	1	4
647.355	1	1
647.524	1	-7
647.694	1	3
647.863	1	-3
648.033	1	-2
648.202	1	1
648.372	1	-1
648.541	1	-2
648.711	1	7
648.880	1	-2
649.050	1	-3
649.219	1	7
649.389	1	9
649.558	1	-3
649.728	1	0
649.897	1	-2
650.067	1	-1
650.236	1	18
650.406	1	-13
650.575	1	4
650.745	1	1
650.914	1	2
651.084	1	9
651.253	1	2
651.423	1	-1
651.592	1	2
651.762	1	5
651.931	1	8
652.101	1	5
652.270	1	-1
652.440	1	-4
652.609	1	17
652.778	1	5
652.948	1	0
653.117	1	12
653.287	1	3
653.456	1	7
653.626	1	4
653.795	1	4
653.965	1	8
654.134	1	-5
654.304	1	6
654.473	1	3
654.643	1	9
654.812	1	-4
654.982	1	6
655.151	1	4
655.320	1	3
655.490	1	-3
655.659	1	0
655.829	1	0
655.998	1	-5
656.168	1	0
656.337	1	12
656.507	1	-1
656.676	1	-3
656.846	1	-12
657.015	1	12
657.184	1	-14
657.354	1	1
657.523	1	-4
657.693	1	-3
657.862	1	-1
658.032	1	-7
658.201	1	1
658.371	1	-1
658.540	1	8
658.709	1	7
658.879	1	-13
659.048	1	0
659.218	1	3
659.387	1	8
659.557	1	7
659.726	1	8
659.895	1	-6
660.065	1	3
660.234	1	2
660.404	1	27
660.573	1	11
660.743	1	-5
660.912	1	15
661.081	1	2
661.251	1	1
661.420	1	3
661.590	1	7
661.759	1	4
661.929	1	2
662.098	1	10
662.267	1	9
662.437	1	-2
662.606	1	1
662.776	1	9
662.945	1	3
663.115	1	-14
663.284	1	-7
663.453	1	-3
663.623	1	6
663.792	1	-7
663.962	1	1
664.131	1	-4
664.300	1	-4
664.470	1	-12
664.639	1	-9
664.809	1	1
664.978	1	-3
665.148	1	6
665.317	1	2
665.486	1	-4
665.656	1	-6
665.825	1	0
665.995	1	0
666.164	1	15
666.333	1	6
666.503	1	1
666.672	1	2
666.842	1	-15
667.011	1	-2
667.180	1	-1
667.350	1	12
667.519	1	-5
667.689	1	17
667.858	1	13
668.027	1	6
668.197	1	10
668.366	1	8
668.536	1	-2
668.705	1	5
668.874	1	7
669.044	1	4
669.213	1	8
669.382	1	6
669.552	1	-3
669.721	1	-2
669.891	1	-10
670.060	1	0
670.229	1	1
670.399	1	1
670.568	1	20
670.738	1	-7
670.907	1	-6
671.076	1	3
671.246	1	-8
671.415	1	2
671.584	1	-6
671.754	1	2
671.923	1	3
672.093	1	9
672.262	1	3
672.431	1	9
672.601	1	-5
672.770	1	3
672.939	1	3
673.109	1	4
673.278	1	1
673.448	1	-9
673.617	1	3
673.786	1	-2
