325.333	1	22
325.504	1	35
325.675	1	19
325.846	1	26
326.017	1	18
326.188	1	29
326.359	1	25
326.531	1	26
326.702	1	21
326.873	1	28
327.044	1	27
327.215	1	17
327.386	1	23
327.557	1	44
327.728	1	24
327.899	1	29
328.070	1	26
328.241	1	32
328.412	1	26
328.583	1	36
328.754	1	21
328.926	1	28
329.097	1	31
329.268	1	36
329.439	1	34
329.610	1	43
329.781	1	35
329.952	1	35
330.123	1	30
330.294	1	32
330.465	1	39
330.636	1	35
330.807	1	27
330.978	1	40
331.149	1	27
331.320	1	38
331.492	1	34
331.663	1	38
331.834	1	36
332.005	1	27
332.176	1	45
332.347	1	35
332.518	1	29
332.689	1	38
332.860	1	36
333.031	1	54
333.202	1	53
333.373	1	40
333.544	1	36
333.715	1	40
333.886	1	40
334.057	1	38
334.228	1	47
334.399	1	45
334.570	1	39
334.741	1	41
334.912	1	52
335.084	1	46
335.255	1	45
335.426	1	40
335.597	1	46
335.768	1	40
335.939	1	39
336.110	1	44
336.281	1	45
336.452	1	52
336.623	1	46
336.794	1	41
336.965	1	42
337.136	1	47
337.307	1	47
337.478	1	53
337.649	1	49
337.820	1	41
337.991	1	50
338.162	1	46
338.333	1	42
338.504	1	41
338.675	1	48
338.846	1	59
339.017	1	56
339.188	1	57
339.359	1	51
339.530	1	53
339.701	1	54
339.872	1	53
340.043	1	44
340.214	1	54
340.385	1	65
340.556	1	63
340.727	1	40
340.898	1	54
341.069	1	59
341.240	1	56
341.411	1	63
341.582	1	53
341.753	1	46
341.924	1	53
342.095	1	44
342.266	1	54
342.437	1	55
342.608	1	52
342.779	1	42
342.950	1	56
343.121	1	64
343.292	1	49
343.463	1	61
343.634	1	51
343.805	1	49
343.976	1	50
344.147	1	63
344.318	1	67
344.489	1	55
344.660	1	62
344.831	1	69
345.002	1	61
345.173	1	64
345.344	1	52
345.515	1	59
345.686	1	61
345.857	1	72
346.028	1	79
346.199	1	72
346.370	1	66
346.541	1	78
346.712	1	66
346.883	1	75
347.054	1	71
347.225	1	64
347.396	1	82
347.567	1	70
347.738	1	73
347.909	1	77
348.080	1	72
348.251	1	59
348.422	1	80
348.593	1	80
348.764	1	65
348.935	1	60
349.106	1	78
349.277	1	82
349.448	1	78
349.619	1	72
349.790	1	77
349.961	1	73
350.132	1	69
350.303	1	74
350.474	1	84
350.645	1	59
350.816	1	83
350.987	1	67
351.157	1	74
351.328	1	75
351.499	1	75
351.670	1	84
351.841	1	79
352.012	1	95
352.183	1	71
352.354	1	86
352.525	1	77
352.696	1	75
352.867	1	72
353.038	1	88
353.209	1	89
353.380	1	69
353.551	1	95
353.722	1	86
353.893	1	87
354.064	1	90
354.235	1	87
354.406	1	91
354.576	1	84
354.747	1	83
354.918	1	95
355.089	1	85
355.260	1	92
355.431	1	90
355.602	1	89
355.773	1	99
355.944	1	93
356.115	1	88
356.286	1	82
356.457	1	92
356.628	1	114
356.799	1	93
356.970	1	88
357.141	1	112
357.311	1	94
357.482	1	80
357.653	1	81
357.824	1	106
357.995	1	97
358.166	1	100
358.337	1	89
358.508	1	96
358.679	1	90
358.850	1	111
359.021	1	98
359.192	1	102
359.363	1	93
359.533	1	101
359.704	1	98
359.875	1	97
360.046	1	97
360.217	1	88
360.388	1	104
360.559	1	117
360.730	1	96
360.901	1	94
361.072	1	97
361.243	1	89
361.414	1	103
361.584	1	107
361.755	1	105
361.926	1	94
362.097	1	99
362.268	1	99
362.439	1	96
362.610	1	104
362.781	1	106
362.952	1	104
363.123	1	99
363.293	1	115
363.464	1	105
363.635	1	98
363.806	1	108
363.977	1	96
364.148	1	101
364.319	1	97
364.490	1	109
364.661	1	107
364.832	1	118
365.002	1	116
365.173	1	106
365.344	1	110
365.515	1	107
365.686	1	116
365.857	1	119
366.028	1	96
366.199	1	101
366.370	1	105
366.540	1	110
366.711	1	106
366.882	1	100
367.053	1	110
367.224	1	107
367.395	1	102
367.566	1	117
367.737	1	107
367.908	1	100
368.078	1	123
368.249	1	107
368.420	1	116
368.591	1	124
368.762	1	113
368.933	1	106
369.104	1	115
369.274	1	111
369.445	1	112
369.616	1	116
369.787	1	116
369.958	1	113
370.129	1	117
370.300	1	112
370.471	1	124
370.641	1	110
370.812	1	111
370.983	1	112
371.154	1	116
371.325	1	116
371.496	1	109
371.667	1	129
371.837	1	122
372.008	1	126
372.179	1	119
372.350	1	118
372.521	1	125
372.692	1	117
372.863	1	118
373.033	1	115
373.204	1	102
373.375	1	118
373.546	1	126
373.717	1	109
373.888	1	106
374.059	1	121
374.229	1	114
374.400	1	109
374.571	1	117
374.742	1	118
374.913	1	118
375.084	1	120
375.254	1	127
375.425	1	109
375.596	1	113
375.767	1	121
375.938	1	129
376.109	1	114
376.279	1	114
376.450	1	132
376.621	1	132
376.792	1	127
376.963	1	114
377.134	1	142
377.304	1	130
377.475	1	115
377.646	1	119
377.817	1	109
377.988	1	118
378.159	1	118
378.329	1	130
378.500	1	115
378.671	1	121
378.842	1	115
379.013	1	136
379.184	1	132
379.354	1	120
379.525	1	125
379.696	1	121
379.867	1	119
380.038	1	113
380.209	1	134
380.379	1	121
380.550	1	128
380.721	1	137
380.892	1	127
381.063	1	136
381.233	1	123
381.404	1	133
381.575	1	133
381.746	1	134
381.917	1	131
382.087	1	131
382.258	1	132
382.429	1	131
382.600	1	130
382.771	1	147
382.941	1	132
383.112	1	135
383.283	1	137
383.454	1	140
383.625	1	136
383.795	1	147
383.966	1	125
384.137	1	142
384.308	1	144
384.479	1	142
384.649	1	132
384.820	1	146
384.991	1	139
385.162	1	135
385.333	1	129
385.503	1	144
385.674	1	148
385.845	1	138
386.016	1	143
386.187	1	131
386.357	1	144
386.528	1	133
386.699	1	145
386.870	1	141
387.041	1	138
387.211	1	133
387.382	1	148
387.553	1	133
387.724	1	139
387.894	1	134
388.065	1	149
388.236	1	133
388.407	1	146
388.578	1	139
388.748	1	144
388.919	1	151
389.090	1	151
389.261	1	155
389.431	1	153
389.602	1	157
389.773	1	154
389.944	1	157
390.114	1	157
390.285	1	137
390.456	1	142
390.627	1	153
390.798	1	163
390.968	1	148
391.139	1	147
391.310	1	166
391.481	1	147
391.651	1	151
391.822	1	163
391.993	1	147
392.164	1	144
392.334	1	152
392.505	1	141
392.676	1	160
392.847	1	159
393.017	1	163
393.188	1	159
393.359	1	159
393.530	1	157
393.700	1	155
393.871	1	146
394.042	1	144
394.213	1	160
394.383	1	164
394.554	1	157
394.725	1	155
394.896	1	151
395.066	1	146
395.237	1	142
395.408	1	155
395.579	1	153
395.749	1	162
395.920	1	153
396.091	1	148
396.262	1	170
396.432	1	155
396.603	1	146
396.774	1	148
396.945	1	166
397.115	1	165
397.286	1	146
397.457	1	152
397.627	1	152
397.798	1	159
397.969	1	159
398.140	1	151
398.310	1	166
398.481	1	160
398.652	1	158
398.823	1	146
398.993	1	155
399.164	1	157
399.335	1	147
399.505	1	158
399.676	1	162
399.847	1	147
400.018	1	167
400.188	1	165
400.359	1	152
400.530	1	160
400.700	1	166
400.871	1	172
401.042	1	161
401.213	1	150
401.383	1	163
401.554	1	160
401.725	1	170
401.895	1	162
402.066	1	157
402.237	1	176
402.408	1	171
402.578	1	162
402.749	1	168
402.920	1	174
403.090	1	176
403.261	1	174
403.432	1	178
403.603	1	169
403.773	1	180
403.944	1	165
404.115	1	177
404.285	1	172
404.456	1	169
404.627	1	167
404.797	1	157
404.968	1	171
405.139	1	169
405.310	1	163
405.480	1	178
405.651	1	178
405.822	1	172
405.992	1	161
406.163	1	161
406.334	1	160
406.504	1	168
406.675	1	158
406.846	1	152
407.016	1	158
407.187	1	174
407.358	1	166
407.528	1	156
407.699	1	161
407.870	1	154
408.041	1	168
408.211	1	154
408.382	1	174
408.553	1	166
408.723	1	175
408.894	1	167
409.065	1	172
409.235	1	173
409.406	1	157
409.577	1	174
409.747	1	155
409.918	1	163
410.089	1	153
410.259	1	173
410.430	1	157
410.601	1	168
410.771	1	172
410.942	1	175
411.113	1	160
411.283	1	176
411.454	1	163
411.625	1	168
411.795	1	171
411.966	1	181
412.137	1	174
412.307	1	180
412.478	1	180
412.649	1	163
412.819	1	177
412.990	1	165
413.161	1	172
413.331	1	170
413.502	1	179
413.672	1	166
413.843	1	192
414.014	1	185
414.184	1	164
414.355	1	190
414.526	1	178
414.696	1	158
414.867	1	185
415.038	1	155
415.208	1	177
415.379	1	168
415.550	1	179
415.720	1	176
415.891	1	171
416.062	1	162
416.232	1	160
416.403	1	172
416.573	1	171
416.744	1	159
416.915	1	160
417.085	1	183
417.256	1	182
417.427	1	165
417.597	1	156
417.768	1	162
417.939	1	177
418.109	1	161
418.280	1	158
418.450	1	159
418.621	1	168
418.792	1	168
418.962	1	171
419.133	1	146
419.304	1	156
419.474	1	153
419.645	1	162
419.815	1	153
419.986	1	146
420.157	1	146
420.327	1	156
420.498	1	147
420.669	1	152
420.839	1	147
421.010	1	175
421.180	1	163
421.351	1	154
421.522	1	160
421.692	1	159
421.863	1	165
422.033	1	177
422.204	1	161
422.375	1	169
422.545	1	154
422.716	1	143
422.886	1	144
423.057	1	158
423.228	1	139
423.398	1	165
423.569	1	160
423.740	1	149
423.910	1	138
424.081	1	159
424.251	1	149
424.422	1	161
424.593	1	164
424.763	1	146
424.934	1	153
425.104	1	153
425.275	1	164
425.445	1	157
425.616	1	146
425.787	1	156
425.957	1	166
426.128	1	151
426.298	1	143
426.469	1	142
426.640	1	163
426.810	1	146
426.981	1	153
427.151	1	161
427.322	1	152
427.493	1	156
427.663	1	140
427.834	1	151
428.004	1	156
428.175	1	161
428.345	1	146
428.516	1	159
428.687	1	143
428.857	1	136
429.028	1	151
429.198	1	140
429.369	1	151
429.540	1	136
429.710	1	151
429.881	1	148
430.051	1	132
430.222	1	135
430.392	1	158
430.563	1	156
430.734	1	135
430.904	1	141
431.075	1	135
431.245	1	141
431.416	1	147
431.586	1	138
431.757	1	143
431.927	1	137
432.098	1	141
432.269	1	124
432.439	1	142
432.610	1	151
432.780	1	145
432.951	1	121
433.121	1	137
433.292	1	126
433.462	1	138
433.633	1	144
433.804	1	153
433.974	1	141
434.145	1	146
434.315	1	127
434.486	1	138
434.656	1	145
434.827	1	142
434.997	1	132
435.168	1	143
435.339	1	154
435.509	1	138
435.680	1	139
435.850	1	134
436.021	1	134
436.191	1	139
436.362	1	133
436.532	1	157
436.703	1	130
436.873	1	134
437.044	1	135
437.214	1	152
437.385	1	151
437.556	1	140
437.726	1	138
437.897	1	127
438.067	1	137
438.238	1	137
438.408	1	135
438.579	1	132
438.749	1	143
438.920	1	139
439.090	1	138
439.261	1	144
439.431	1	132
439.602	1	135
439.772	1	142
439.943	1	136
440.113	1	130
440.284	1	122
440.455	1	140
440.625	1	144
440.796	1	136
440.966	1	137
441.137	1	133
441.307	1	138
441.478	1	130
441.648	1	125
441.819	1	130
441.989	1	127
442.160	1	118
442.330	1	130
442.501	1	135
442.671	1	129
442.842	1	129
443.012	1	151
443.183	1	126
443.353	1	122
443.524	1	120
443.694	1	121
443.865	1	128
444.035	1	119
444.206	1	139
444.376	1	124
444.547	1	124
444.717	1	117
444.888	1	118
445.058	1	127
445.229	1	114
445.399	1	134
445.570	1	144
445.740	1	124
445.911	1	117
446.081	1	122
446.252	1	124
446.422	1	124
446.593	1	121
446.763	1	122
446.934	1	120
447.104	1	126
447.275	1	106
447.445	1	118
447.616	1	136
447.786	1	124
447.957	1	119
448.127	1	124
448.298	1	102
448.468	1	113
448.639	1	113
448.809	1	129
448.979	1	108
449.150	1	119
449.320	1	121
449.491	1	107
449.661	1	116
449.832	1	108
450.002	1	116
450.173	1	124
450.343	1	116
450.514	1	116
450.684	1	116
450.855	1	131
451.025	1	126
451.196	1	109
451.366	1	126
451.537	1	111
451.707	1	103
451.878	1	120
452.048	1	101
452.218	1	115
452.389	1	123
452.559	1	123
452.730	1	109
452.900	1	123
453.071	1	112
453.241	1	113
453.412	1	108
453.582	1	111
453.753	1	108
453.923	1	104
454.093	1	118
454.264	1	116
454.434	1	120
454.605	1	118
454.775	1	100
454.946	1	98
455.116	1	110
455.287	1	104
455.457	1	114
455.628	1	99
455.798	1	93
455.968	1	109
456.139	1	105
456.309	1	127
456.480	1	89
456.650	1	102
456.821	1	104
456.991	1	94
457.161	1	92
457.332	1	110
457.502	1	112
457.673	1	107
457.843	1	96
458.014	1	93
458.184	1	109
458.355	1	115
458.525	1	97
458.695	1	105
458.866	1	98
459.036	1	114
459.207	1	102
459.377	1	107
459.548	1	108
459.718	1	102
459.888	1	113
460.059	1	105
460.229	1	94
460.400	1	98
460.570	1	94
460.740	1	113
460.911	1	97
461.081	1	93
461.252	1	99
461.422	1	90
461.593	1	96
461.763	1	94
461.933	1	105
462.104	1	104
462.274	1	99
462.445	1	92
462.615	1	92
462.785	1	95
462.956	1	99
463.126	1	98
463.297	1	104
463.467	1	98
463.638	1	93
463.808	1	98
463.978	1	89
464.149	1	107
464.319	1	96
464.490	1	94
464.660	1	100
464.830	1	88
465.001	1	92
465.171	1	87
465.342	1	93
465.512	1	96
465.682	1	99
465.853	1	91
466.023	1	100
466.194	1	79
466.364	1	90
466.534	1	80
466.705	1	97
466.875	1	100
467.045	1	93
467.216	1	94
467.386	1	91
467.557	1	92
467.727	1	93
467.897	1	97
468.068	1	80
468.238	1	89
468.409	1	94
468.579	1	87
468.749	1	93
468.920	1	94
469.090	1	82
469.260	1	94
469.431	1	85
469.601	1	77
469.772	1	83
469.942	1	94
470.112	1	84
470.283	1	91
470.453	1	90
470.623	1	86
470.794	1	80
470.964	1	95
471.135	1	87
471.305	1	79
471.475	1	79
471.646	1	83
471.816	1	83
471.986	1	78
472.157	1	73
472.327	1	87
472.497	1	92
472.668	1	77
472.838	1	90
473.009	1	79
473.179	1	84
473.349	1	75
473.520	1	81
473.690	1	96
473.860	1	75
474.031	1	64
474.201	1	101
474.371	1	86
474.542	1	82
474.712	1	67
474.882	1	80
475.053	1	73
475.223	1	64
475.394	1	76
475.564	1	75
475.734	1	83
475.905	1	78
476.075	1	72
476.245	1	84
476.416	1	76
476.586	1	81
476.756	1	78
476.927	1	83
477.097	1	83
477.267	1	80
477.438	1	68
477.608	1	80
477.778	1	74
477.949	1	76
478.119	1	73
478.289	1	68
478.460	1	68
478.630	1	81
478.800	1	81
478.971	1	69
479.141	1	70
479.311	1	61
479.482	1	65
479.652	1	79
479.822	1	79
479.993	1	86
480.163	1	74
480.333	1	92
480.504	1	72
480.674	1	59
480.844	1	68
481.015	1	79
481.185	1	76
481.355	1	69
481.525	1	63
481.696	1	73
481.866	1	79
482.036	1	74
482.207	1	85
482.377	1	79
482.547	1	60
482.718	1	65
482.888	1	63
483.058	1	74
483.229	1	71
483.399	1	71
483.569	1	59
483.740	1	65
483.910	1	83
484.080	1	84
484.250	1	73
484.421	1	80
484.591	1	71
484.761	1	63
484.932	1	81
485.102	1	57
485.272	1	66
485.443	1	83
485.613	1	63
485.783	1	67
485.953	1	70
486.124	1	81
486.294	1	71
486.464	1	56
486.635	1	62
486.805	1	88
486.975	1	64
487.146	1	74
487.316	1	65
487.486	1	51
487.656	1	70
487.827	1	63
487.997	1	67
488.167	1	68
488.338	1	65
488.508	1	65
488.678	1	71
488.848	1	77
489.019	1	60
489.189	1	64
489.359	1	59
489.529	1	62
489.700	1	57
489.870	1	64
490.040	1	52
490.211	1	48
490.381	1	79
490.551	1	59
490.721	1	62
490.892	1	75
491.062	1	66
491.232	1	63
491.402	1	58
491.573	1	55
491.743	1	57
491.913	1	68
492.084	1	52
492.254	1	72
492.424	1	66
492.594	1	48
492.765	1	52
492.935	1	51
493.105	1	53
493.275	1	65
493.446	1	53
493.616	1	59
493.786	1	57
493.956	1	56
494.127	1	60
494.297	1	64
494.467	1	65
494.637	1	57
494.808	1	60
494.978	1	50
495.148	1	68
495.318	1	60
495.489	1	62
495.659	1	52
495.829	1	57
495.999	1	49
496.170	1	63
496.340	1	53
496.510	1	69
496.680	1	45
496.851	1	63
497.021	1	55
497.191	1	49
497.361	1	56
497.532	1	56
497.702	1	49
497.872	1	48
498.042	1	64
498.213	1	50
498.383	1	60
498.553	1	50
498.723	1	48
498.894	1	55
499.064	1	47
499.234	1	57
499.404	1	56
499.574	1	66
499.745	1	44
499.915	1	56
500.085	1	48
500.255	1	52
500.426	1	46
500.596	1	57
500.766	1	50
500.936	1	63
501.106	1	61
501.277	1	56
501.447	1	48
501.617	1	47
501.787	1	54
501.958	1	50
502.128	1	56
502.298	1	59
502.468	1	59
502.638	1	71
502.809	1	62
502.979	1	58
503.149	1	53
503.319	1	61
503.489	1	57
503.660	1	54
503.830	1	48
504.000	1	48
504.170	1	47
504.340	1	51
504.511	1	65
504.681	1	46
504.851	1	48
505.021	1	48
505.192	1	53
505.362	1	51
505.532	1	53
505.702	1	53
505.872	1	61
506.043	1	37
506.213	1	45
506.383	1	40
506.553	1	61
506.723	1	53
506.893	1	42
507.064	1	48
507.234	1	40
507.404	1	59
507.574	1	46
507.744	1	45
507.915	1	48
508.085	1	59
508.255	1	47
508.425	1	46
508.595	1	37
508.766	1	49
508.936	1	48
509.106	1	47
509.276	1	45
509.446	1	41
509.616	1	52
509.787	1	50
509.957	1	43
510.127	1	42
510.297	1	43
510.467	1	49
510.638	1	29
510.808	1	40
510.978	1	55
511.148	1	39
511.318	1	53
511.488	1	38
511.659	1	37
511.829	1	43
511.999	1	41
512.169	1	34
512.339	1	41
512.509	1	51
512.680	1	43
512.850	1	53
513.020	1	49
513.190	1	37
513.360	1	34
513.530	1	59
513.700	1	41
513.871	1	48
514.041	1	46
514.211	1	52
514.381	1	34
514.551	1	46
514.721	1	51
514.892	1	48
515.062	1	43
515.232	1	29
515.402	1	43
515.572	1	40
515.742	1	44
515.912	1	49
516.083	1	41
516.253	1	39
516.423	1	36
516.593	1	46
516.763	1	30
516.933	1	37
517.104	1	33
517.274	1	29
517.444	1	41
517.614	1	37
517.784	1	35
517.954	1	45
518.124	1	34
518.294	1	50
518.465	1	31
518.635	1	36
518.805	1	39
518.975	1	40
519.145	1	33
519.315	1	45
519.485	1	34
519.656	1	50
519.826	1	45
519.996	1	34
520.166	1	42
520.336	1	42
520.506	1	43
520.676	1	34
520.846	1	40
521.017	1	33
521.187	1	36
521.357	1	36
521.527	1	35
521.697	1	31
521.867	1	36
522.037	1	35
522.207	1	35
522.377	1	32
522.548	1	28
522.718	1	47
522.888	1	38
523.058	1	33
523.228	1	40
523.398	1	32
523.568	1	36
523.738	1	36
523.909	1	35
524.079	1	50
524.249	1	29
524.419	1	39
524.589	1	50
524.759	1	37
524.929	1	40
525.099	1	41
525.269	1	41
525.439	1	29
525.610	1	36
525.780	1	40
525.950	1	35
526.120	1	33
526.290	1	43
526.460	1	45
526.630	1	42
526.800	1	34
526.970	1	35
527.140	1	34
527.311	1	25
527.481	1	37
527.651	1	29
527.821	1	25
527.991	1	33
528.161	1	36
528.331	1	28
528.501	1	27
528.671	1	34
528.841	1	33
529.011	1	20
529.181	1	44
529.352	1	36
529.522	1	20
529.692	1	29
529.862	1	27
530.032	1	37
530.202	1	32
530.372	1	28
530.542	1	38
530.712	1	29
530.882	1	23
531.052	1	33
531.222	1	29
531.392	1	27
531.563	1	26
531.733	1	32
531.903	1	37
532.073	1	36
532.243	1	25
532.413	1	44
532.583	1	28
532.753	1	13
532.923	1	38
533.093	1	27
533.263	1	21
533.433	1	36
533.603	1	37
533.773	1	26
533.943	1	34
534.113	1	31
534.284	1	26
534.454	1	30
534.624	1	31
534.794	1	29
534.964	1	34
535.134	1	39
535.304	1	24
535.474	1	18
535.644	1	45
535.814	1	9
535.984	1	25
536.154	1	33
536.324	1	21
536.494	1	34
536.664	1	26
536.834	1	22
537.004	1	29
537.174	1	33
537.344	1	26
537.514	1	30
537.685	1	41
537.855	1	25
538.025	1	28
538.195	1	34
538.365	1	23
538.535	1	28
538.705	1	25
538.875	1	25
539.045	1	28
539.215	1	39
539.385	1	11
539.555	1	17
539.725	1	37
539.895	1	34
540.065	1	26
540.235	1	22
540.405	1	31
540.575	1	28
540.745	1	24
540.915	1	28
541.085	1	16
541.255	1	24
541.425	1	19
541.595	1	14
541.765	1	29
541.935	1	28
542.105	1	30
542.275	1	35
542.445	1	22
542.615	1	30
542.785	1	39
542.955	1	21
543.125	1	19
543.295	1	32
543.465	1	19
543.635	1	13
543.805	1	29
543.975	1	16
544.145	1	24
544.315	1	22
544.485	1	21
544.655	1	29
544.825	1	23
544.995	1	27
545.165	1	28
545.335	1	9
545.505	1	25
545.675	1	25
545.845	1	19
546.015	1	27
546.185	1	16
546.355	1	21
546.525	1	18
546.695	1	22
546.865	1	21
547.035	1	28
547.205	1	24
547.375	1	22
547.545	1	20
547.715	1	26
547.885	1	25
548.055	1	21
548.225	1	18
548.395	1	27
548.565	1	17
548.735	1	20
548.905	1	29
549.075	1	25
549.245	1	18
549.415	1	26
549.585	1	26
549.755	1	21
549.925	1	21
550.095	1	31
550.265	1	8
550.435	1	18
550.605	1	19
550.775	1	17
550.945	1	18
551.115	1	24
551.285	1	13
551.455	1	16
551.625	1	26
551.795	1	25
551.965	1	16
552.135	1	17
552.305	1	20
552.475	1	32
552.645	1	35
552.815	1	14
552.985	1	25
553.155	1	16
553.325	1	22
553.495	1	26
553.665	1	22
553.835	1	25
554.004	1	13
554.174	1	11
554.344	1	24
554.514	1	16
554.684	1	16
554.854	1	19
555.024	1	27
555.194	1	18
555.364	1	20
555.534	1	24
555.704	1	24
555.874	1	12
556.044	1	14
556.214	1	7
556.384	1	16
556.554	1	8
556.724	1	15
556.894	1	14
557.064	1	28
557.234	1	13
557.404	1	23
557.573	1	23
557.743	1	22
557.913	1	13
558.083	1	11
558.253	1	15
558.423	1	15
558.593	1	30
558.763	1	20
558.933	1	21
559.103	1	14
559.273	1	21
559.443	1	26
559.613	1	10
559.783	1	22
559.953	1	18
560.122	1	17
560.292	1	15
560.462	1	7
560.632	1	9
560.802	1	22
560.972	1	29
561.142	1	23
561.312	1	16
561.482	1	16
561.652	1	19
561.822	1	19
561.992	1	23
562.162	1	6
562.331	1	16
562.501	1	14
562.671	1	22
562.841	1	19
563.011	1	22
563.181	1	28
563.351	1	22
563.521	1	25
563.691	1	2
563.861	1	16
564.031	1	12
564.201	1	11
564.370	1	22
564.540	1	26
564.710	1	32
564.880	1	23
565.050	1	16
565.220	1	8
565.390	1	14
565.560	1	26
565.730	1	12
565.900	1	12
566.069	1	27
566.239	1	11
566.409	1	17
566.579	1	22
566.749	1	23
566.919	1	26
567.089	1	12
567.259	1	19
567.429	1	19
567.599	1	11
567.768	1	18
567.938	1	6
568.108	1	19
568.278	1	20
568.448	1	21
568.618	1	20
568.788	1	11
568.958	1	33
569.128	1	12
569.297	1	14
569.467	1	16
569.637	1	9
569.807	1	19
569.977	1	20
570.147	1	17
570.317	1	28
570.487	1	22
570.656	1	8
570.826	1	24
570.996	1	19
571.166	1	10
571.336	1	22
571.506	1	18
571.676	1	24
571.846	1	15
572.015	1	16
572.185	1	14
572.355	1	12
572.525	1	9
572.695	1	22
572.865	1	8
573.035	1	10
573.205	1	8
573.374	1	14
573.544	1	11
573.714	1	23
573.884	1	25
574.054	1	18
574.224	1	13
574.394	1	7
574.563	1	23
574.733	1	10
574.903	1	10
575.073	1	11
575.243	1	8
575.413	1	9
575.583	1	17
575.752	1	7
575.922	1	11
576.092	1	10
576.262	1	15
576.432	1	17
576.602	1	14
576.772	1	0
576.941	1	18
577.111	1	20
577.281	1	20
577.451	1	15
577.621	1	9
577.791	1	3
577.960	1	21
578.130	1	10
578.300	1	24
578.470	1	10
578.640	1	16
578.810	1	10
578.979	1	16
579.149	1	14
579.319	1	10
579.489	1	14
579.659	1	6
579.829	1	16
579.998	1	14
580.168	1	13
580.338	1	19
580.508	1	13
580.678	1	10
580.848	1	20
581.017	1	25
581.187	1	13
581.357	1	4
581.527	1	13
581.697	1	17
581.867	1	11
582.036	1	9
582.206	1	14
582.376	1	11
582.546	1	14
582.716	1	6
582.885	1	17
583.055	1	15
583.225	1	11
583.395	1	21
583.565	1	27
583.735	1	3
583.904	1	10
584.074	1	14
584.244	1	10
584.414	1	16
584.584	1	11
584.753	1	20
584.923	1	20
585.093	1	15
585.263	1	15
585.433	1	8
585.602	1	10
585.772	1	13
585.942	1	12
586.112	1	15
586.282	1	15
586.451	1	9
586.621	1	12
586.791	1	15
586.961	1	21
587.131	1	22
587.300	1	-6
587.470	1	8
587.640	1	6
587.810	1	9
587.980	1	18
588.149	1	27
588.319	1	12
588.489	1	17
588.659	1	11
588.829	1	15
588.998	1	19
589.168	1	12
589.338	1	21
589.508	1	17
589.677	1	8
589.847	1	9
590.017	1	13
590.187	1	17
590.357	1	4
590.526	1	27
590.696	1	19
590.866	1	23
591.036	1	10
591.205	1	4
591.375	1	18
591.545	1	14
591.715	1	16
591.885	1	18
592.054	1	3
592.224	1	10
592.394	1	21
592.564	1	12
592.733	1	17
592.903	1	11
593.073	1	12
593.243	1	25
593.412	1	3
593.582	1	20
593.752	1	18
593.922	1	15
594.091	1	18
594.261	1	11
594.431	1	8
594.601	1	19
594.771	1	8
594.940	1	18
595.110	1	16
595.280	1	19
595.450	1	17
595.619	1	12
595.789	1	13
595.959	1	9
596.129	1	20
596.298	1	23
596.468	1	15
596.638	1	28
596.808	1	21
596.977	1	28
597.147	1	19
597.317	1	20
597.487	1	13
597.656	1	16
597.826	1	11
597.996	1	20
598.166	1	15
598.335	1	21
598.505	1	21
598.675	1	10
598.844	1	14
599.014	1	17
599.184	1	15
599.354	1	4
599.523	1	12
599.693	1	20
599.863	1	12
600.033	1	20
600.202	1	16
600.372	1	21
600.542	1	22
600.712	1	7
600.881	1	19
601.051	1	13
601.221	1	13
601.390	1	16
601.560	1	10
601.730	1	16
601.900	1	21
602.069	1	17
602.239	1	3
602.409	1	21
602.578	1	13
602.748	1	22
602.918	1	10
603.088	1	22
603.257	1	22
603.427	1	14
603.597	1	16
603.767	1	17
603.936	1	19
604.106	1	19
604.276	1	15
604.445	1	19
604.615	1	14
604.785	1	9
604.954	1	25
605.124	1	25
605.294	1	17
605.464	1	22
605.633	1	31
605.803	1	9
605.973	1	19
606.142	1	18
606.312	1	13
606.482	1	11
606.652	1	20
606.821	1	23
606.991	1	16
607.161	1	28
607.330	1	8
607.500	1	23
607.670	1	19
607.839	1	27
608.009	1	4
608.179	1	10
608.348	1	24
608.518	1	12
608.688	1	28
608.858	1	15
609.027	1	23
609.197	1	16
609.367	1	16
609.536	1	11
609.706	1	19
609.876	1	7
610.045	1	19
610.215	1	13
610.385	1	19
610.554	1	14
610.724	1	25
610.894	1	17
611.063	1	11
611.233	1	22
611.403	1	19
611.572	1	24
611.742	1	4
611.912	1	12
612.081	1	19
612.251	1	18
612.421	1	23
612.590	1	10
612.760	1	10
612.930	1	11
613.099	1	27
613.269	1	16
613.439	1	14
613.608	1	18
613.778	1	21
613.948	1	17
614.117	1	16
614.287	1	17
614.457	1	4
614.626	1	18
614.796	1	11
614.966	1	24
615.135	1	14
615.305	1	15
615.475	1	26
615.644	1	22
615.814	1	17
615.984	1	4
616.153	1	14
616.323	1	4
616.493	1	14
616.662	1	26
616.832	1	26
617.002	1	27
617.171	1	14
617.341	1	24
617.511	1	15
617.680	1	22
617.850	1	16
618.019	1	21
618.189	1	20
618.359	1	16
618.528	1	25
618.698	1	19
618.868	1	32
619.037	1	15
619.207	1	21
619.377	1	18
619.546	1	16
619.716	1	23
619.885	1	39
620.055	1	21
620.225	1	22
620.394	1	27
620.564	1	24
620.734	1	13
620.903	1	15
621.073	1	17
621.242	1	13
621.412	1	18
621.582	1	15
621.751	1	13
621.921	1	16
622.091	1	11
622.260	1	21
622.430	1	20
622.599	1	23
622.769	1	17
622.939	1	25
623.108	1	19
623.278	1	26
623.448	1	11
623.617	1	23
623.787	1	28
623.956	1	19
624.126	1	27
624.296	1	21
624.465	1	13
624.635	1	24
624.804	1	20
624.974	1	19
625.144	1	16
625.313	1	20
625.483	1	18
625.652	1	23
625.822	1	15
625.992	1	23
626.161	1	12
626.331	1	11
626.501	1	16
626.670	1	16
626.840	1	12
627.009	1	17
627.179	1	28
627.348	1	18
627.518	1	33
627.688	1	21
627.857	1	23
628.027	1	7
628.196	1	18
628.366	1	17
628.536	1	24
628.705	1	20
628.875	1	25
629.044	1	10
629.214	1	21
629.384	1	25
629.553	1	27
629.723	1	17
629.892	1	21
630.062	1	32
630.232	1	12
630.401	1	23
630.571	1	23
630.740	1	20
630.910	1	23
631.079	1	25
631.249	1	6
631.419	1	26
631.588	1	12
631.758	1	8
631.927	1	18
632.097	1	28
632.266	1	20
632.436	1	18
632.606	1	16
632.775	1	17
632.945	1	17
633.114	1	20
633.284	1	20
633.453	1	20
633.623	1	25
633.793	1	16
633.962	1	16
634.132	1	27
634.301	1	27
634.471	1	30
634.640	1	36
634.810	1	27
634.979	1	28
635.149	1	30
635.319	1	20
635.488	1	16
635.658	1	20
635.827	1	22
635.997	1	22
636.166	1	34
636.336	1	25
636.505	1	29
636.675	1	25
636.845	1	26
637.014	1	22
637.184	1	20
637.353	1	19
637.523	1	23
637.692	1	22
637.862	1	15
638.031	1	22
638.201	1	33
638.370	1	26
638.540	1	23
638.710	1	29
638.879	1	15
639.049	1	25
639.218	1	10
639.388	1	25
639.557	1	20
639.727	1	21
639.896	1	17
640.066	1	33
640.235	1	24
640.405	1	28
640.574	1	30
640.744	1	27
640.914	1	26
641.083	1	13
641.253	1	24
641.422	1	24
641.592	1	20
641.761	1	33
641.931	1	15
642.100	1	24
642.270	1	24
642.439	1	33
642.609	1	29
642.778	1	36
642.948	1	32
643.117	1	21
643.287	1	25
643.456	1	18
643.626	1	28
643.795	1	28
643.965	1	28
644.134	1	30
644.304	1	35
644.473	1	21
644.643	1	29
644.812	1	36
644.982	1	13
645.151	1	24
645.321	1	23
645.490	1	26
645.660	1	18
645.829	1	26
645.999	1	24
646.168	1	30
646.338	1	26
646.507	1	12
646.677	1	28
646.846	1	42
647.016	1	25
647.185	1	16
647.355	1	24
647.524	1	22
647.694	1	30
647.863	1	22
648.033	1	23
648.202	1	34
648.372	1	14
648.541	1	27
648.711	1	27
648.880	1	30
649.050	1	28
649.219	1	18
649.389	1	24
649.558	1	27
649.728	1	20
649.897	1	25
650.067	1	15
650.236	1	37
650.406	1	26
650.575	1	31
650.745	1	39
650.914	1	32
651.084	1	17
651.253	1	39
651.423	1	24
651.592	1	27
651.762	1	33
651.931	1	31
652.101	1	16
652.270	1	31
652.440	1	48
652.609	1	32
652.778	1	36
652.948	1	22
653.117	1	44
653.287	1	38
653.456	1	19
653.626	1	33
653.795	1	39
653.965	1	41
654.134	1	31
654.304	1	41
654.473	1	32
654.643	1	34
654.812	1	38
654.982	1	40
655.151	1	27
655.320	1	35
655.490	1	26
655.659	1	29
655.829	1	25
655.998	1	35
656.168	1	29
656.337	1	33
656.507	1	31
656.676	1	34
656.846	1	29
657.015	1	44
657.184	1	32
657.354	1	33
657.523	1	35
657.693	1	32
657.862	1	28
658.032	1	30
658.201	1	31
658.371	1	29
658.540	1	40
658.709	1	40
658.879	1	19
659.048	1	23
659.218	1	34
659.387	1	23
659.557	1	23
659.726	1	45
659.895	1	21
660.065	1	33
660.234	1	31
660.404	1	47
660.573	1	21
660.743	1	25
660.912	1	42
661.081	1	26
661.251	1	25
661.420	1	38
661.590	1	23
661.759	1	37
661.929	1	40
662.098	1	30
662.267	1	45
662.437	1	37
662.606	1	25
662.776	1	29
662.945	1	40
663.115	1	23
663.284	1	25
663.453	1	34
663.623	1	38
663.792	1	35
663.962	1	33
664.131	1	35
664.300	1	37
664.470	1	16
664.639	1	26
664.809	1	37
664.978	1	25
665.148	1	46
665.317	1	33
665.486	1	36
665.656	1	35
665.825	1	38
665.995	1	35
666.164	1	38
666.333	1	32
666.503	1	50
666.672	1	35
666.842	1	30
667.011	1	43
667.180	1	30
667.350	1	37
667.519	1	25
667.689	1	35
667.858	1	43
668.027	1	39
668.197	1	34
668.366	1	44
668.536	1	36
668.705	1	40
668.874	1	41
669.044	1	41
669.213	1	43
669.382	1	44
669.552	1	39
669.721	1	32
669.891	1	33
670.060	1	33
670.229	1	33
670.399	1	41
670.568	1	42
670.738	1	28
670.907	1	35
671.076	1	52
671.246	1	37
671.415	1	49
671.584	1	28
671.754	1	45
671.923	1	28
672.093	1	36
672.262	1	27
672.431	1	35
672.601	1	36
672.770	1	28
672.939	1	30
673.109	1	42
673.278	1	46
673.448	1	37
673.617	1	33
673.786	1	27
