325.333	1	8
325.504	1	11
325.675	1	10
325.846	1	12
326.017	1	0
326.188	1	10
326.359	1	21
326.531	1	4
326.702	1	12
326.873	1	9
327.044	1	8
327.215	1	4
327.386	1	5
327.557	1	20
327.728	1	4
327.899	1	11
328.070	1	8
328.241	1	13
328.412	1	12
328.583	1	4
328.754	1	4
328.926	1	8
329.097	1	17
329.268	1	14
329.439	1	13
329.610	1	14
329.781	1	17
329.952	1	11
330.123	1	5
330.294	1	14
330.465	1	15
330.636	1	7
330.807	1	13
330.978	1	4
331.149	1	0
331.320	1	9
331.492	1	19
331.663	1	8
331.834	1	11
332.005	1	3
332.176	1	14
332.347	1	20
332.518	1	-6
332.689	1	12
332.860	1	1
333.031	1	5
333.202	1	15
333.373	1	11
333.544	1	-4
333.715	1	5
333.886	1	4
334.057	1	13
334.228	1	13
334.399	1	9
334.570	1	18
334.741	1	20
334.912	1	17
335.084	1	12
335.255	1	11
335.426	1	4
335.597	1	20
335.768	1	-3
335.939	1	6
336.110	1	6
336.281	1	11
336.452	1	21
336.623	1	12
336.794	1	11
336.965	1	7
337.136	1	14
337.307	1	17
337.478	1	9
337.649	1	7
337.820	1	8
337.991	1	20
338.162	1	14
338.333	1	11
338.504	1	7
338.675	1	13
338.846	1	17
339.017	1	19
339.188	1	20
339.359	1	12
339.530	1	12
339.701	1	7
339.872	1	15
340.043	1	8
340.214	1	13
340.385	1	14
340.556	1	19
340.727	1	15
340.898	1	12
341.069	1	19
341.240	1	19
341.411	1	17
341.582	1	19
341.753	1	7
341.924	1	15
342.095	1	8
342.266	1	-1
342.437	1	22
342.608	1	9
342.779	1	11
342.950	1	5
343.121	1	14
343.292	1	18
343.463	1	20
343.634	1	25
343.805	1	20
343.976	1	16
344.147	1	20
344.318	1	8
344.489	1	18
344.660	1	23
344.831	1	11
345.002	1	11
345.173	1	21
345.344	1	13
345.515	1	22
345.686	1	13
345.857	1	15
346.028	1	20
346.199	1	26
346.370	1	13
346.541	1	28
346.712	1	6
346.883	1	15
347.054	1	9
347.225	1	12
347.396	1	19
347.567	1	14
347.738	1	22
347.909	1	21
348.080	1	7
348.251	1	14
348.422	1	20
348.593	1	10
348.764	1	8
348.935	1	11
349.106	1	9
349.277	1	30
349.448	1	21
349.619	1	20
349.790	1	29
349.961	1	25
350.132	1	21
350.303	1	21
350.474	1	20
350.645	1	8
350.816	1	25
350.987	1	8
351.157	1	20
351.328	1	23
351.499	1	22
351.670	1	27
351.841	1	9
352.012	1	6
352.183	1	8
352.354	1	20
352.525	1	18
352.696	1	8
352.867	1	16
353.038	1	13
353.209	1	23
353.380	1	20
353.551	1	29
353.722	1	15
353.893	1	12
354.064	1	17
354.235	1	19
354.406	1	22
354.576	1	18
354.747	1	26
354.918	1	16
355.089	1	27
355.260	1	20
355.431	1	30
355.602	1	25
355.773	1	23
355.944	1	24
356.115	1	13
356.286	1	18
356.457	1	27
356.628	1	36
356.799	1	20
356.970	1	23
357.141	1	26
357.311	1	30
357.482	1	19
357.653	1	13
357.824	1	38
357.995	1	24
358.166	1	22
358.337	1	26
358.508	1	23
358.679	1	19
358.850	1	31
359.021	1	21
359.192	1	17
359.363	1	32
359.533	1	15
359.704	1	32
359.875	1	29
360.046	1	12
360.217	1	30
360.388	1	19
360.559	1	36
360.730	1	23
360.901	1	21
361.072	1	19
361.243	1	19
361.414	1	16
361.584	1	26
361.755	1	29
361.926	1	18
362.097	1	37
362.268	1	28
362.439	1	25
362.610	1	33
362.781	1	30
362.952	1	28
363.123	1	37
363.293	1	16
363.464	1	17
363.635	1	19
363.806	1	29
363.977	1	16
364.148	1	11
364.319	1	24
364.490	1	34
364.661	1	29
364.832	1	31
365.002	1	23
365.173	1	25
365.344	1	18
365.515	1	17
365.686	1	21
365.857	1	24
366.028	1	23
366.199	1	35
366.370	1	36
366.540	1	33
366.711	1	21
366.882	1	23
367.053	1	22
367.224	1	12
367.395	1	24
367.566	1	34
367.737	1	29
367.908	1	30
368.078	1	45
368.249	1	25
368.420	1	24
368.591	1	37
368.762	1	25
368.933	1	11
369.104	1	30
369.274	1	24
369.445	1	29
369.616	1	29
369.787	1	27
369.958	1	28
370.129	1	26
370.300	1	29
370.471	1	37
370.641	1	22
370.812	1	40
370.983	1	18
371.154	1	33
371.325	1	30
371.496	1	21
371.667	1	31
371.837	1	26
372.008	1	31
372.179	1	28
372.350	1	28
372.521	1	36
372.692	1	23
372.863	1	19
373.033	1	39
373.204	1	33
373.375	1	27
373.546	1	43
373.717	1	25
373.888	1	31
374.059	1	42
374.229	1	33
374.400	1	25
374.571	1	28
374.742	1	34
374.913	1	21
375.084	1	26
375.254	1	48
375.425	1	11
375.596	1	28
375.767	1	37
375.938	1	28
376.109	1	28
376.279	1	24
376.450	1	20
376.621	1	47
376.792	1	24
376.963	1	27
377.134	1	34
377.304	1	17
377.475	1	32
377.646	1	23
377.817	1	15
377.988	1	32
378.159	1	21
378.329	1	28
378.500	1	26
378.671	1	38
378.842	1	25
379.013	1	29
379.184	1	44
379.354	1	27
379.525	1	28
379.696	1	24
379.867	1	35
380.038	1	19
380.209	1	24
380.379	1	27
380.550	1	40
380.721	1	24
380.892	1	33
381.063	1	40
381.233	1	18
381.404	1	30
381.575	1	35
381.746	1	34
381.917	1	35
382.087	1	40
382.258	1	45
382.429	1	38
382.600	1	35
382.771	1	40
382.941	1	33
383.112	1	41
383.283	1	37
383.454	1	28
383.625	1	35
383.795	1	40
383.966	1	32
384.137	1	30
384.308	1	45
384.479	1	36
384.649	1	31
384.820	1	33
384.991	1	26
385.162	1	30
385.333	1	44
385.503	1	34
385.674	1	36
385.845	1	37
386.016	1	42
386.187	1	36
386.357	1	42
386.528	1	30
386.699	1	32
386.870	1	42
387.041	1	25
387.211	1	38
387.382	1	28
387.553	1	27
387.724	1	29
387.894	1	22
388.065	1	25
388.236	1	32
388.407	1	32
388.578	1	22
388.748	1	41
388.919	1	45
389.090	1	43
389.261	1	42
389.431	1	52
389.602	1	35
389.773	1	33
389.944	1	40
390.114	1	47
390.285	1	36
390.456	1	29
390.627	1	43
390.798	1	52
390.968	1	32
391.139	1	35
391.310	1	46
391.481	1	32
391.651	1	44
391.822	1	42
391.993	1	44
392.164	1	33
392.334	1	40
392.505	1	30
392.676	1	45
392.847	1	39
393.017	1	50
393.188	1	33
393.359	1	48
393.530	1	40
393.700	1	50
393.871	1	30
394.042	1	30
394.213	1	45
394.383	1	40
394.554	1	37
394.725	1	43
394.896	1	36
395.066	1	44
395.237	1	35
395.408	1	52
395.579	1	42
395.749	1	44
395.920	1	47
396.091	1	44
396.262	1	43
396.432	1	36
396.603	1	44
396.774	1	39
396.945	1	44
397.115	1	47
397.286	1	38
397.457	1	39
397.627	1	42
397.798	1	36
397.969	1	34
398.140	1	41
398.310	1	37
398.481	1	35
398.652	1	48
398.823	1	39
398.993	1	47
399.164	1	43
399.335	1	41
399.505	1	40
399.676	1	39
399.847	1	38
400.018	1	42
400.188	1	41
400.359	1	36
400.530	1	44
400.700	1	34
400.871	1	50
401.042	1	31
401.213	1	37
401.383	1	41
401.554	1	46
401.725	1	51
401.895	1	51
402.066	1	47
402.237	1	41
402.408	1	44
402.578	1	39
402.749	1	43
402.920	1	37
403.090	1	55
403.261	1	41
403.432	1	45
403.603	1	37
403.773	1	49
403.944	1	39
404.115	1	50
404.285	1	42
404.456	1	45
404.627	1	44
404.797	1	31
404.968	1	54
405.139	1	47
405.310	1	42
405.480	1	42
405.651	1	49
405.822	1	40
405.992	1	44
406.163	1	43
406.334	1	28
406.504	1	43
406.675	1	42
406.846	1	35
407.016	1	37
407.187	1	55
407.358	1	39
407.528	1	33
407.699	1	47
407.870	1	37
408.041	1	45
408.211	1	40
408.382	1	40
408.553	1	46
408.723	1	48
408.894	1	49
409.065	1	49
409.235	1	46
409.406	1	48
409.577	1	46
409.747	1	38
409.918	1	42
410.089	1	45
410.259	1	52
410.430	1	46
410.601	1	40
410.771	1	50
410.942	1	59
411.113	1	37
411.283	1	44
411.454	1	45
411.625	1	54
411.795	1	44
411.966	1	56
412.137	1	44
412.307	1	56
412.478	1	44
412.649	1	40
412.819	1	36
412.990	1	54
413.161	1	49
413.331	1	60
413.502	1	48
413.672	1	46
413.843	1	47
414.014	1	49
414.184	1	51
414.355	1	46
414.526	1	55
414.696	1	49
414.867	1	49
415.038	1	28
415.208	1	49
415.379	1	44
415.550	1	58
415.720	1	47
415.891	1	43
416.062	1	41
416.232	1	42
416.403	1	44
416.573	1	42
416.744	1	50
416.915	1	45
417.085	1	52
417.256	1	39
417.427	1	59
417.597	1	44
417.768	1	42
417.939	1	44
418.109	1	46
418.280	1	42
418.450	1	48
418.621	1	46
418.792	1	47
418.962	1	57
419.133	1	50
419.304	1	40
419.474	1	35
419.645	1	42
419.815	1	45
419.986	1	39
420.157	1	39
420.327	1	33
420.498	1	36
420.669	1	41
420.839	1	41
421.010	1	44
421.180	1	38
421.351	1	44
421.522	1	35
421.692	1	42
421.863	1	42
422.033	1	42
422.204	1	39
422.375	1	45
422.545	1	55
422.716	1	39
422.886	1	46
423.057	1	38
423.228	1	44
423.398	1	36
423.569	1	42
423.740	1	37
423.910	1	32
424.081	1	40
424.251	1	38
424.422	1	53
424.593	1	45
424.763	1	45
424.934	1	32
425.104	1	51
425.275	1	42
425.445	1	37
425.616	1	45
425.787	1	36
425.957	1	49
426.128	1	30
426.298	1	36
426.469	1	35
426.640	1	45
426.810	1	26
426.981	1	35
427.151	1	42
427.322	1	42
427.493	1	30
427.663	1	42
427.834	1	37
428.004	1	35
428.175	1	46
428.345	1	42
428.516	1	49
428.687	1	39
428.857	1	37
429.028	1	45
429.198	1	38
429.369	1	43
429.540	1	36
429.710	1	40
429.881	1	41
430.051	1	39
430.222	1	33
430.392	1	51
430.563	1	41
430.734	1	37
430.904	1	35
431.075	1	49
431.245	1	44
431.416	1	36
431.586	1	40
431.757	1	36
431.927	1	43
432.098	1	34
432.269	1	34
432.439	1	50
432.610	1	45
432.780	1	40
432.951	1	43
433.121	1	39
433.292	1	35
433.462	1	37
433.633	1	33
433.804	1	43
433.974	1	29
434.145	1	42
434.315	1	30
434.486	1	37
434.656	1	36
434.827	1	47
434.997	1	35
435.168	1	40
435.339	1	40
435.509	1	47
435.680	1	32
435.850	1	36
436.021	1	38
436.191	1	39
436.362	1	27
436.532	1	42
436.703	1	33
436.873	1	41
437.044	1	31
437.214	1	47
437.385	1	32
437.556	1	40
437.726	1	38
437.897	1	31
438.067	1	39
438.238	1	28
438.408	1	46
438.579	1	41
438.749	1	32
438.920	1	32
439.090	1	40
439.261	1	37
439.431	1	32
439.602	1	42
439.772	1	44
439.943	1	33
440.113	1	33
440.284	1	32
440.455	1	46
440.625	1	46
440.796	1	45
440.966	1	25
441.137	1	35
441.307	1	42
441.478	1	38
441.648	1	36
441.819	1	41
441.989	1	43
442.160	1	28
442.330	1	40
442.501	1	37
442.671	1	33
442.842	1	35
443.012	1	48
443.183	1	31
443.353	1	33
443.524	1	36
443.694	1	26
443.865	1	26
444.035	1	36
444.206	1	41
444.376	1	26
444.547	1	40
444.717	1	39
444.888	1	26
445.058	1	39
445.229	1	44
445.399	1	31
445.570	1	49
445.740	1	34
445.911	1	22
446.081	1	45
446.252	1	33
446.422	1	29
446.593	1	29
446.763	1	53
446.934	1	17
447.104	1	33
447.275	1	25
447.445	1	26
447.616	1	35
447.786	1	40
447.957	1	28
448.127	1	34
448.298	1	20
448.468	1	23
448.639	1	36
448.809	1	31
448.979	1	22
449.150	1	39
449.320	1	26
449.491	1	28
449.661	1	32
449.832	1	36
450.002	1	27
450.173	1	42
450.343	1	36
450.514	1	44
450.684	1	32
450.855	1	26
451.025	1	39
451.196	1	14
451.366	1	31
451.537	1	35
451.707	1	31
451.878	1	37
452.048	1	30
452.218	1	34
452.389	1	37
452.559	1	36
452.730	1	30
452.900	1	37
453.071	1	34
453.241	1	26
453.412	1	25
453.582	1	28
453.753	1	28
453.923	1	41
454.093	1	24
454.264	1	39
454.434	1	37
454.605	1	39
454.775	1	20
454.946	1	27
455.116	1	31
455.287	1	28
455.457	1	42
455.628	1	21
455.798	1	26
455.968	1	33
456.139	1	37
456.309	1	43
456.480	1	25
456.650	1	30
456.821	1	38
456.991	1	22
457.161	1	36
457.332	1	40
457.502	1	28
457.673	1	34
457.843	1	32
458.014	1	22
458.184	1	30
458.355	1	24
458.525	1	34
458.695	1	39
458.866	1	23
459.036	1	31
459.207	1	33
459.377	1	37
459.548	1	19
459.718	1	33
459.888	1	36
460.059	1	29
460.229	1	29
460.400	1	28
460.570	1	24
460.740	1	29
460.911	1	28
461.081	1	20
461.252	1	20
461.422	1	10
461.593	1	23
461.763	1	30
461.933	1	21
462.104	1	22
462.274	1	25
462.445	1	10
462.615	1	29
462.785	1	27
462.956	1	20
463.126	1	22
463.297	1	31
463.467	1	29
463.638	1	27
463.808	1	23
463.978	1	11
464.149	1	37
464.319	1	23
464.490	1	23
464.660	1	34
464.830	1	25
465.001	1	20
465.171	1	8
465.342	1	22
465.512	1	29
465.682	1	34
465.853	1	22
466.023	1	39
466.194	1	27
466.364	1	18
466.534	1	7
466.705	1	35
466.875	1	36
467.045	1	25
467.216	1	32
467.386	1	31
467.557	1	27
467.727	1	25
467.897	1	42
468.068	1	11
468.238	1	22
468.409	1	36
468.579	1	22
468.749	1	23
468.920	1	31
469.090	1	6
469.260	1	36
469.431	1	15
469.601	1	23
469.772	1	22
469.942	1	27
470.112	1	29
470.283	1	12
470.453	1	33
470.623	1	35
470.794	1	10
470.964	1	36
471.135	1	33
471.305	1	29
471.475	1	24
471.646	1	23
471.816	1	24
471.986	1	16
472.157	1	19
472.327	1	30
472.497	1	26
472.668	1	16
472.838	1	29
473.009	1	23
473.179	1	25
473.349	1	7
473.520	1	16
473.690	1	22
473.860	1	17
474.031	1	22
474.201	1	21
474.371	1	26
474.542	1	25
474.712	1	10
474.882	1	17
475.053	1	13
475.223	1	23
475.394	1	15
475.564	1	17
475.734	1	12
475.905	1	15
476.075	1	10
476.245	1	15
476.416	1	17
476.586	1	25
476.756	1	20
476.927	1	21
477.097	1	26
477.267	1	17
477.438	1	14
477.608	1	18
477.778	1	24
477.949	1	21
478.119	1	12
478.289	1	9
478.460	1	29
478.630	1	28
478.800	1	25
478.971	1	12
479.141	1	18
479.311	1	17
479.482	1	7
479.652	1	17
479.822	1	11
479.993	1	28
480.163	1	18
480.333	1	33
480.504	1	19
480.674	1	17
480.844	1	11
481.015	1	15
481.185	1	20
481.355	1	18
481.525	1	6
481.696	1	26
481.866	1	17
482.036	1	18
482.207	1	12
482.377	1	24
482.547	1	8
482.718	1	11
482.888	1	12
483.058	1	20
483.229	1	26
483.399	1	21
483.569	1	10
483.740	1	24
483.910	1	31
484.080	1	34
484.250	1	15
484.421	1	34
484.591	1	27
484.761	1	20
484.932	1	30
485.102	1	1
485.272	1	16
485.443	1	18
485.613	1	16
485.783	1	9
485.953	1	7
486.124	1	24
486.294	1	25
486.464	1	23
486.635	1	17
486.805	1	26
486.975	1	23
487.146	1	16
487.316	1	10
487.486	1	8
487.656	1	27
487.827	1	16
487.997	1	15
488.167	1	27
488.338	1	12
488.508	1	27
488.678	1	30
488.848	1	13
489.019	1	25
489.189	1	8
489.359	1	9
489.529	1	11
489.700	1	19
489.870	1	14
490.040	1	6
490.211	1	14
490.381	1	32
490.551	1	5
490.721	1	21
490.892	1	27
491.062	1	11
491.232	1	23
491.402	1	15
491.573	1	27
491.743	1	14
491.913	1	17
492.084	1	18
492.254	1	28
492.424	1	7
492.594	1	18
492.765	1	17
492.935	1	3
493.105	1	4
493.275	1	18
493.446	1	12
493.616	1	5
493.786	1	15
493.956	1	18
494.127	1	14
494.297	1	23
494.467	1	13
494.637	1	19
494.808	1	15
494.978	1	9
495.148	1	27
495.318	1	13
495.489	1	22
495.659	1	19
495.829	1	13
495.999	1	12
496.170	1	10
496.340	1	5
496.510	1	26
496.680	1	15
496.851	1	18
497.021	1	18
497.191	1	10
497.361	1	23
497.532	1	25
497.702	1	11
497.872	1	13
498.042	1	24
498.213	1	9
498.383	1	17
498.553	1	18
498.723	1	16
498.894	1	20
499.064	1	1
499.234	1	23
499.404	1	25
499.574	1	11
499.745	1	8
499.915	1	13
500.085	1	9
500.255	1	12
500.426	1	10
500.596	1	17
500.766	1	14
500.936	1	25
501.106	1	16
501.277	1	23
501.447	1	14
501.617	1	17
501.787	1	15
501.958	1	3
502.128	1	12
502.298	1	18
502.468	1	15
502.638	1	14
502.809	1	22
502.979	1	15
503.149	1	15
503.319	1	28
503.489	1	11
503.660	1	10
503.830	1	16
504.000	1	10
504.170	1	11
504.340	1	5
504.511	1	15
504.681	1	16
504.851	1	6
505.021	1	13
505.192	1	7
505.362	1	18
505.532	1	14
505.702	1	18
505.872	1	16
506.043	1	-4
506.213	1	10
506.383	1	7
506.553	1	9
506.723	1	5
506.893	1	12
507.064	1	14
507.234	1	10
507.404	1	22
507.574	1	9
507.744	1	6
507.915	1	24
508.085	1	3
508.255	1	6
508.425	1	10
508.595	1	5
508.766	1	18
508.936	1	-5
509.106	1	13
509.276	1	23
509.446	1	-5
509.616	1	19
509.787	1	11
509.957	1	14
510.127	1	8
510.297	1	9
510.467	1	8
510.638	1	-1
510.808	1	0
510.978	1	17
511.148	1	10
511.318	1	11
511.488	1	15
511.659	1	9
511.829	1	3
511.999	1	17
512.169	1	6
512.339	1	11
512.509	1	11
512.680	1	8
512.850	1	17
513.020	1	16
513.190	1	6
513.360	1	13
513.530	1	13
513.700	1	15
513.871	1	18
514.041	1	15
514.211	1	19
514.381	1	3
514.551	1	9
514.721	1	15
514.892	1	17
515.062	1	10
515.232	1	2
515.402	1	24
515.572	1	11
515.742	1	12
515.912	1	26
516.083	1	6
516.253	1	6
516.423	1	1
516.593	1	22
516.763	1	15
516.933	1	12
517.104	1	3
517.274	1	8
517.444	1	7
517.614	1	4
517.784	1	17
517.954	1	5
518.124	1	-3
518.294	1	14
518.465	1	6
518.635	1	8
518.805	1	11
518.975	1	15
519.145	1	-1
519.315	1	18
519.485	1	8
519.656	1	9
519.826	1	9
519.996	1	1
520.166	1	7
520.336	1	22
520.506	1	12
520.676	1	8
520.846	1	8
521.017	1	-1
521.187	1	10
521.357	1	6
521.527	1	7
521.697	1	-4
521.867	1	1
522.037	1	17
522.207	1	14
522.377	1	10
522.548	1	13
522.718	1	16
522.888	1	5
523.058	1	11
523.228	1	14
523.398	1	4
523.568	1	3
523.738	1	12
523.909	1	14
524.079	1	7
524.249	1	-2
524.419	1	11
524.589	1	10
524.759	1	11
524.929	1	8
525.099	1	4
525.269	1	10
525.439	1	3
525.610	1	8
525.780	1	11
525.950	1	15
526.120	1	13
526.290	1	10
526.460	1	23
526.630	1	9
526.800	1	1
526.970	1	12
527.140	1	16
527.311	1	2
527.481	1	14
527.651	1	7
527.821	1	10
527.991	1	18
528.161	1	12
528.331	1	4
528.501	1	19
528.671	1	22
528.841	1	9
529.011	1	10
529.181	1	12
529.352	1	13
529.522	1	-8
529.692	1	9
529.862	1	8
530.032	1	4
530.202	1	16
530.372	1	12
530.542	1	19
530.712	1	7
530.882	1	0
531.052	1	9
531.222	1	10
531.392	1	1
531.563	1	8
531.733	1	10
531.903	1	8
532.073	1	0
532.243	1	10
532.413	1	13
532.583	1	2
532.753	1	4
532.923	1	17
533.093	1	5
533.263	1	5
533.433	1	12
533.603	1	4
533.773	1	3
533.943	1	7
534.113	1	10
534.284	1	17
534.454	1	18
534.624	1	11
534.794	1	13
534.964	1	9
535.134	1	5
535.304	1	9
535.474	1	-1
535.644	1	14
535.814	1	7
535.984	1	-6
536.154	1	14
536.324	1	-4
536.494	1	8
536.664	1	-4
536.834	1	9
537.004	1	4
537.174	1	15
537.344	1	14
537.514	1	9
537.685	1	11
537.855	1	5
538.025	1	5
538.195	1	19
538.365	1	11
538.535	1	6
538.705	1	2
538.875	1	15
539.045	1	10
539.215	1	9
539.385	1	2
539.555	1	1
539.725	1	10
539.895	1	20
540.065	1	4
540.235	1	0
540.405	1	14
540.575	1	8
540.745	1	11
540.915	1	16
541.085	1	-1
541.255	1	11
541.425	1	4
541.595	1	-7
541.765	1	5
541.935	1	15
542.105	1	6
542.275	1	11
542.445	1	3
542.615	1	10
542.785	1	8
542.955	1	-2
543.125	1	0
543.295	1	21
543.465	1	-1
543.635	1	1
543.805	1	10
543.975	1	9
544.145	1	5
544.315	1	0
544.485	1	12
544.655	1	12
544.825	1	8
544.995	1	12
545.165	1	15
545.335	1	0
545.505	1	9
545.675	1	10
545.845	1	8
546.015	1	3
546.185	1	5
546.355	1	4
546.525	1	10
546.695	1	-1
546.865	1	2
547.035	1	13
547.205	1	5
547.375	1	15
547.545	1	4
547.715	1	14
547.885	1	13
548.055	1	16
548.225	1	5
548.395	1	21
548.565	1	0
548.735	1	10
548.905	1	2
549.075	1	16
549.245	1	13
549.415	1	14
549.585	1	7
549.755	1	7
549.925	1	1
550.095	1	6
550.265	1	-1
550.435	1	9
550.605	1	10
550.775	1	7
550.945	1	10
551.115	1	4
551.285	1	-2
551.455	1	0
551.625	1	6
551.795	1	11
551.965	1	6
552.135	1	-8
552.305	1	6
552.475	1	16
552.645	1	16
552.815	1	11
552.985	1	2
553.155	1	0
553.325	1	3
553.495	1	0
553.665	1	5
553.835	1	6
554.004	1	6
554.174	1	1
554.344	1	2
554.514	1	13
554.684	1	11
554.854	1	-2
555.024	1	22
555.194	1	7
555.364	1	2
555.534	1	11
555.704	1	13
555.874	1	17
556.044	1	5
556.214	1	-5
556.384	1	9
556.554	1	1
556.724	1	-7
556.894	1	11
557.064	1	8
557.234	1	4
557.404	1	6
557.573	1	9
557.743	1	2
557.913	1	2
558.083	1	1
558.253	1	6
558.423	1	7
558.593	1	6
558.763	1	9
558.933	1	8
559.103	1	1
559.273	1	2
559.443	1	1
559.613	1	-4
559.783	1	5
559.953	1	-1
560.122	1	7
560.292	1	12
560.462	1	11
560.632	1	12
560.802	1	1
560.972	1	9
561.142	1	3
561.312	1	5
561.482	1	5
561.652	1	15
561.822	1	-1
561.992	1	7
562.162	1	7
562.331	1	4
562.501	1	7
562.671	1	8
562.841	1	8
563.011	1	15
563.181	1	13
563.351	1	3
563.521	1	10
563.691	1	-1
563.861	1	12
564.031	1	3
564.201	1	4
564.370	1	12
564.540	1	5
564.710	1	8
564.880	1	7
565.050	1	6
565.220	1	1
565.390	1	6
565.560	1	6
565.730	1	10
565.900	1	-2
566.069	1	12
566.239	1	-5
566.409	1	13
566.579	1	6
566.749	1	16
566.919	1	6
567.089	1	-3
567.259	1	10
567.429	1	4
567.599	1	2
567.768	1	1
567.938	1	-8
568.108	1	9
568.278	1	6
568.448	1	16
568.618	1	13
568.788	1	11
568.958	1	15
569.128	1	7
569.297	1	0
569.467	1	6
569.637	1	2
569.807	1	-2
569.977	1	5
570.147	1	1
570.317	1	17
570.487	1	7
570.656	1	-2
570.826	1	13
570.996	1	4
571.166	1	7
571.336	1	5
571.506	1	4
571.676	1	15
571.846	1	-1
572.015	1	9
572.185	1	11
572.355	1	0
572.525	1	1
572.695	1	4
572.865	1	4
573.035	1	7
573.205	1	-1
573.374	1	7
573.544	1	1
573.714	1	17
573.884	1	10
574.054	1	12
574.224	1	5
574.394	1	-2
574.563	1	0
574.733	1	3
574.903	1	11
575.073	1	8
575.243	1	-2
575.413	1	6
575.583	1	2
575.752	1	1
575.922	1	9
576.092	1	6
576.262	1	1
576.432	1	15
576.602	1	0
576.772	1	0
576.941	1	12
577.111	1	16
577.281	1	6
577.451	1	13
577.621	1	10
577.791	1	-8
577.960	1	3
578.130	1	-3
578.300	1	5
578.470	1	7
578.640	1	9
578.810	1	12
578.979	1	8
579.149	1	4
579.319	1	-2
579.489	1	7
579.659	1	-7
579.829	1	6
579.998	1	3
580.168	1	6
580.338	1	3
580.508	1	-1
580.678	1	-9
580.848	1	15
581.017	1	25
581.187	1	1
581.357	1	-3
581.527	1	-4
581.697	1	6
581.867	1	5
582.036	1	11
582.206	1	-1
582.376	1	0
582.546	1	3
582.716	1	7
582.885	1	3
583.055	1	14
583.225	1	-2
583.395	1	11
583.565	1	11
583.735	1	4
583.904	1	2
584.074	1	7
584.244	1	8
584.414	1	11
584.584	1	0
584.753	1	13
584.923	1	3
585.093	1	7
585.263	1	9
585.433	1	7
585.602	1	-5
585.772	1	5
585.942	1	-3
586.112	1	5
586.282	1	1
586.451	1	-5
586.621	1	8
586.791	1	15
586.961	1	12
587.131	1	4
587.300	1	-13
587.470	1	4
587.640	1	3
587.810	1	-1
587.980	1	1
588.149	1	7
588.319	1	3
588.489	1	10
588.659	1	1
588.829	1	5
588.998	1	15
589.168	1	2
589.338	1	13
589.508	1	6
589.677	1	11
589.847	1	3
590.017	1	-2
590.187	1	-1
590.357	1	-6
590.526	1	8
590.696	1	5
590.866	1	17
591.036	1	4
591.205	1	-3
591.375	1	10
591.545	1	7
591.715	1	9
591.885	1	12
592.054	1	-1
592.224	1	11
592.394	1	-2
592.564	1	4
592.733	1	4
592.903	1	11
593.073	1	8
593.243	1	9
593.412	1	4
593.582	1	8
593.752	1	5
593.922	1	2
594.091	1	15
594.261	1	8
594.431	1	2
594.601	1	7
594.771	1	3
594.940	1	8
595.110	1	12
595.280	1	12
595.450	1	9
595.619	1	10
595.789	1	-1
595.959	1	-1
596.129	1	9
596.298	1	6
596.468	1	12
596.638	1	17
596.808	1	9
596.977	1	9
597.147	1	14
597.317	1	2
597.487	1	-8
597.656	1	0
597.826	1	-3
597.996	1	9
598.166	1	9
598.335	1	23
598.505	1	9
598.675	1	2
598.844	1	1
599.014	1	8
599.184	1	11
599.354	1	-5
599.523	1	-4
599.693	1	6
599.863	1	5
600.033	1	8
600.202	1	8
600.372	1	-1
600.542	1	21
600.712	1	9
600.881	1	6
601.051	1	-1
601.221	1	12
601.390	1	11
601.560	1	-5
601.730	1	12
601.900	1	5
602.069	1	14
602.239	1	-3
602.409	1	13
602.578	1	4
602.748	1	7
602.918	1	5
603.088	1	0
603.257	1	15
603.427	1	7
603.597	1	7
603.767	1	-3
603.936	1	15
604.106	1	13
604.276	1	5
604.445	1	2
604.615	1	-5
604.785	1	-2
604.954	1	9
605.124	1	2
605.294	1	1
605.464	1	16
605.633	1	17
605.803	1	-1
605.973	1	1
606.142	1	9
606.312	1	-3
606.482	1	0
606.652	1	17
606.821	1	3
606.991	1	8
607.161	1	16
607.330	1	-1
607.500	1	5
607.670	1	3
607.839	1	18
608.009	1	3
608.179	1	-7
608.348	1	14
608.518	1	5
608.688	1	15
608.858	1	1
609.027	1	12
609.197	1	7
609.367	1	6
609.536	1	-6
609.706	1	7
609.876	1	3
610.045	1	9
610.215	1	2
610.385	1	15
610.554	1	-3
610.724	1	9
610.894	1	3
611.063	1	0
611.233	1	8
611.403	1	-2
611.572	1	10
611.742	1	-1
611.912	1	7
612.081	1	5
612.251	1	5
612.421	1	8
612.590	1	2
612.760	1	9
612.930	1	-1
613.099	1	14
613.269	1	1
613.439	1	11
613.608	1	10
613.778	1	3
613.948	1	16
614.117	1	7
614.287	1	11
614.457	1	-3
614.626	1	-3
614.796	1	3
614.966	1	1
615.135	1	-4
615.305	1	7
615.475	1	14
615.644	1	20
615.814	1	2
615.984	1	13
616.153	1	9
616.323	1	-4
616.493	1	10
616.662	1	-10
616.832	1	9
617.002	1	16
617.171	1	0
617.341	1	13
617.511	1	3
617.680	1	12
617.850	1	-1
618.019	1	8
618.189	1	2
618.359	1	11
618.528	1	13
618.698	1	10
618.868	1	14
619.037	1	13
619.207	1	4
619.377	1	14
619.546	1	8
619.716	1	5
619.885	1	14
620.055	1	9
620.225	1	12
620.394	1	6
620.564	1	11
620.734	1	5
620.903	1	1
621.073	1	12
621.242	1	-9
621.412	1	8
621.582	1	7
621.751	1	10
621.921	1	5
622.091	1	0
622.260	1	12
622.430	1	9
622.599	1	13
622.769	1	12
622.939	1	2
623.108	1	11
623.278	1	11
623.448	1	0
623.617	1	-8
623.787	1	13
623.956	1	0
624.126	1	18
624.296	1	7
624.465	1	5
624.635	1	8
624.804	1	14
624.974	1	3
625.144	1	9
625.313	1	2
625.483	1	7
625.652	1	12
625.822	1	9
625.992	1	11
626.161	1	-3
626.331	1	-1
626.501	1	10
626.670	1	6
626.840	1	4
627.009	1	6
627.179	1	9
627.348	1	11
627.518	1	14
627.688	1	4
627.857	1	5
628.027	1	8
628.196	1	0
628.366	1	9
628.536	1	8
628.705	1	5
628.875	1	3
629.044	1	1
629.214	1	4
629.384	1	11
629.553	1	8
629.723	1	10
629.892	1	13
630.062	1	12
630.232	1	2
630.401	1	1
630.571	1	4
630.740	1	1
630.910	1	22
631.079	1	12
631.249	1	-1
631.419	1	18
631.588	1	1
631.758	1	3
631.927	1	7
632.097	1	10
632.266	1	15
632.436	1	-1
632.606	1	5
632.775	1	16
632.945	1	9
633.114	1	11
633.284	1	5
633.453	1	1
633.623	1	12
633.793	1	2
633.962	1	0
634.132	1	8
634.301	1	14
634.471	1	24
634.640	1	9
634.810	1	18
634.979	1	4
635.149	1	6
635.319	1	12
635.488	1	2
635.658	1	-10
635.827	1	11
635.997	1	0
636.166	1	8
636.336	1	13
636.505	1	13
636.675	1	3
636.845	1	12
637.014	1	13
637.184	1	9
637.353	1	14
637.523	1	7
637.692	1	10
637.862	1	8
638.031	1	10
638.201	1	13
638.370	1	17
638.540	1	1
638.710	1	10
638.879	1	5
639.049	1	9
639.218	1	0
639.388	1	15
639.557	1	-1
639.727	1	-1
639.896	1	10
640.066	1	3
640.235	1	9
640.405	1	7
640.574	1	16
640.744	1	16
640.914	1	10
641.083	1	7
641.253	1	2
641.422	1	16
641.592	1	4
641.761	1	5
641.931	1	-2
642.100	1	18
642.270	1	7
642.439	1	7
642.609	1	7
642.778	1	10
642.948	1	0
643.117	1	10
643.287	1	-5
643.456	1	-1
643.626	1	3
643.795	1	7
643.965	1	8
644.134	1	5
644.304	1	20
644.473	1	3
644.643	1	-1
644.812	1	6
644.982	1	0
645.151	1	0
645.321	1	5
645.490	1	15
645.660	1	12
645.829	1	2
645.999	1	15
646.168	1	14
646.338	1	9
646.507	1	-1
646.677	1	13
646.846	1	7
647.016	1	8
647.185	1	4
647.355	1	13
647.524	1	0
647.694	1	1
647.863	1	0
648.033	1	10
648.202	1	3
648.372	1	-3
648.541	1	13
648.711	1	15
648.880	1	13
649.050	1	6
649.219	1	4
649.389	1	13
649.558	1	10
649.728	1	7
649.897	1	-2
650.067	1	-2
650.236	1	20
650.406	1	-1
650.575	1	11
650.745	1	5
650.914	1	14
651.084	1	-1
651.253	1	9
651.423	1	-4
651.592	1	14
651.762	1	10
651.931	1	8
652.101	1	14
652.270	1	5
652.440	1	13
652.609	1	9
652.778	1	8
652.948	1	5
653.117	1	20
653.287	1	1
653.456	1	7
653.626	1	6
653.795	1	15
653.965	1	15
654.134	1	5
654.304	1	15
654.473	1	14
654.643	1	8
654.812	1	10
654.982	1	10
655.151	1	18
655.320	1	7
655.490	1	7
655.659	1	1
655.829	1	8
655.998	1	8
656.168	1	1
656.337	1	6
656.507	1	8
656.676	1	16
656.846	1	8
657.015	1	14
657.184	1	3
657.354	1	8
657.523	1	2
657.693	1	4
657.862	1	5
658.032	1	0
658.201	1	2
658.371	1	14
658.540	1	22
658.709	1	4
658.879	1	-6
659.048	1	8
659.218	1	8
659.387	1	8
659.557	1	15
659.726	1	6
659.895	1	1
660.065	1	7
660.234	1	15
660.404	1	24
660.573	1	15
660.743	1	6
660.912	1	16
661.081	1	0
661.251	1	2
661.420	1	21
661.590	1	11
661.759	1	4
661.929	1	13
662.098	1	25
662.267	1	21
662.437	1	15
662.606	1	11
662.776	1	17
662.945	1	15
663.115	1	-9
663.284	1	9
663.453	1	2
663.623	1	4
663.792	1	4
663.962	1	19
664.131	1	10
664.300	1	0
664.470	1	-2
664.639	1	5
664.809	1	12
664.978	1	11
665.148	1	10
665.317	1	4
665.486	1	6
665.656	1	6
665.825	1	7
665.995	1	17
666.164	1	7
666.333	1	12
666.503	1	12
666.672	1	5
666.842	1	-3
667.011	1	16
667.180	1	10
667.350	1	18
667.519	1	2
667.689	1	23
667.858	1	17
668.027	1	14
668.197	1	18
668.366	1	8
668.536	1	10
668.705	1	9
668.874	1	13
669.044	1	11
669.213	1	15
669.382	1	17
669.552	1	10
669.721	1	2
669.891	1	3
670.060	1	8
670.229	1	16
670.399	1	14
670.568	1	14
670.738	1	5
670.907	1	11
671.076	1	16
671.246	1	1
671.415	1	15
671.584	1	-3
671.754	1	15
671.923	1	2
672.093	1	14
672.262	1	13
672.431	1	17
672.601	1	10
672.770	1	-3
672.939	1	3
673.109	1	7
673.278	1	14
673.448	1	9
673.617	1	11
673.786	1	12
