325.333	1	0
325.504	1	5
325.675	1	-4
325.846	1	4
326.017	1	13
326.188	1	4
326.359	1	10
326.531	1	-10
326.702	1	-1
326.873	1	5
327.044	1	3
327.215	1	1
327.386	1	-3
327.557	1	23
327.728	1	-12
327.899	1	10
328.070	1	8
328.241	1	-1
328.412	1	-9
328.583	1	-1
328.754	1	-7
328.926	1	6
329.097	1	6
329.268	1	9
329.439	1	5
329.610	1	6
329.781	1	6
329.952	1	-1
330.123	1	-7
330.294	1	3
330.465	1	12
330.636	1	1
330.807	1	4
330.978	1	11
331.149	1	7
331.320	1	2
331.492	1	8
331.663	1	4
331.834	1	4
332.005	1	1
332.176	1	4
332.347	1	3
332.518	1	-9
332.689	1	11
332.860	1	5
333.031	1	10
333.202	1	8
333.373	1	10
333.544	1	-5
333.715	1	-7
333.886	1	1
334.057	1	2
334.228	1	6
334.399	1	-5
334.570	1	20
334.741	1	10
334.912	1	6
335.084	1	13
335.255	1	-1
335.426	1	2
335.597	1	6
335.768	1	-5
335.939	1	2
336.110	1	0
336.281	1	5
336.452	1	18
336.623	1	12
336.794	1	2
336.965	1	3
337.136	1	5
337.307	1	9
337.478	1	2
337.649	1	-1
337.820	1	-8
337.991	1	12
338.162	1	6
338.333	1	-2
338.504	1	-2
338.675	1	-3
338.846	1	6
339.017	1	6
339.188	1	6
339.359	1	7
339.530	1	2
339.701	1	10
339.872	1	3
340.043	1	4
340.214	1	13
340.385	1	2
340.556	1	6
340.727	1	-2
340.898	1	-4
341.069	1	9
341.240	1	22
341.411	1	6
341.582	1	7
341.753	1	-2
341.924	1	4
342.095	1	3
342.266	1	-8
342.437	1	3
342.608	1	-15
342.779	1	6
342.950	1	9
343.121	1	3
343.292	1	-2
343.463	1	15
343.634	1	11
343.805	1	5
343.976	1	11
344.147	1	4
344.318	1	1
344.489	1	3
344.660	1	8
344.831	1	1
345.002	1	4
345.173	1	10
345.344	1	-1
345.515	1	13
345.686	1	3
345.857	1	9
346.028	1	12
346.199	1	4
346.370	1	5
346.541	1	16
346.712	1	9
346.883	1	9
347.054	1	2
347.225	1	-2
347.396	1	3
347.567	1	17
347.738	1	3
347.909	1	5
348.080	1	-2
348.251	1	5
348.422	1	8
348.593	1	2
348.764	1	-3
348.935	1	-6
349.106	1	5
349.277	1	14
349.448	1	3
349.619	1	10
349.790	1	17
349.961	1	11
350.132	1	1
350.303	1	13
350.474	1	9
350.645	1	3
350.816	1	8
350.987	1	1
351.157	1	7
351.328	1	11
351.499	1	11
351.670	1	16
351.841	1	1
352.012	1	11
352.183	1	3
352.354	1	5
352.525	1	1
352.696	1	0
352.867	1	2
353.038	1	8
353.209	1	11
353.380	1	6
353.551	1	11
353.722	1	9
353.893	1	4
354.064	1	5
354.235	1	14
354.406	1	4
354.576	1	-1
354.747	1	10
354.918	1	6
355.089	1	13
355.260	1	18
355.431	1	19
355.602	1	3
355.773	1	10
355.944	1	9
356.115	1	-3
356.286	1	2
356.457	1	13
356.628	1	21
356.799	1	5
356.970	1	6
357.141	1	19
357.311	1	16
357.482	1	2
357.653	1	-4
357.824	1	15
357.995	1	5
358.166	1	9
358.337	1	-9
358.508	1	17
358.679	1	8
358.850	1	7
359.021	1	14
359.192	1	4
359.363	1	5
359.533	1	8
359.704	1	16
359.875	1	7
360.046	1	5
360.217	1	8
360.388	1	14
360.559	1	13
360.730	1	3
360.901	1	16
361.072	1	7
361.243	1	5
361.414	1	5
361.584	1	11
361.755	1	7
361.926	1	0
362.097	1	7
362.268	1	3
362.439	1	4
362.610	1	5
362.781	1	3
362.952	1	9
363.123	1	19
363.293	1	6
363.464	1	5
363.635	1	6
363.806	1	5
363.977	1	6
364.148	1	11
364.319	1	7
364.490	1	5
364.661	1	11
364.832	1	20
365.002	1	7
365.173	1	15
365.344	1	11
365.515	1	12
365.686	1	16
365.857	1	23
366.028	1	-1
366.199	1	9
366.370	1	24
366.540	1	19
366.711	1	14
366.882	1	6
367.053	1	2
367.224	1	8
367.395	1	10
367.566	1	15
367.737	1	13
367.908	1	7
368.078	1	17
368.249	1	2
368.420	1	10
368.591	1	20
368.762	1	6
368.933	1	-1
369.104	1	4
369.274	1	7
369.445	1	16
369.616	1	15
369.787	1	19
369.958	1	10
370.129	1	11
370.300	1	8
370.471	1	22
370.641	1	1
370.812	1	10
370.983	1	11
371.154	1	14
371.325	1	7
371.496	1	10
371.667	1	17
371.837	1	10
372.008	1	3
372.179	1	11
372.350	1	10
372.521	1	9
372.692	1	13
372.863	1	9
373.033	1	25
373.204	1	8
373.375	1	12
373.546	1	11
373.717	1	3
373.888	1	6
374.059	1	21
374.229	1	14
374.400	1	11
374.571	1	21
374.742	1	9
374.913	1	-4
375.084	1	13
375.254	1	10
375.425	1	1
375.596	1	14
375.767	1	14
375.938	1	11
376.109	1	8
376.279	1	6
376.450	1	10
376.621	1	22
376.792	1	14
376.963	1	13
377.134	1	13
377.304	1	17
377.475	1	18
377.646	1	18
377.817	1	2
377.988	1	10
378.159	1	5
378.329	1	1
378.500	1	9
378.671	1	9
378.842	1	10
379.013	1	14
379.184	1	20
379.354	1	0
379.525	1	17
379.696	1	3
379.867	1	1
380.038	1	-2
380.209	1	0
380.379	1	11
380.550	1	13
380.721	1	15
380.892	1	6
381.063	1	14
381.233	1	4
381.404	1	15
381.575	1	11
381.746	1	11
381.917	1	7
382.087	1	14
382.258	1	14
382.429	1	17
382.600	1	23
382.771	1	13
382.941	1	14
383.112	1	5
383.283	1	12
383.454	1	5
383.625	1	7
383.795	1	9
383.966	1	0
384.137	1	18
384.308	1	19
384.479	1	13
384.649	1	24
384.820	1	12
384.991	1	17
385.162	1	8
385.333	1	24
385.503	1	10
385.674	1	12
385.845	1	12
386.016	1	11
386.187	1	20
386.357	1	12
386.528	1	12
386.699	1	6
386.870	1	9
387.041	1	9
387.211	1	13
387.382	1	6
387.553	1	7
387.724	1	9
387.894	1	14
388.065	1	16
388.236	1	5
388.407	1	14
388.578	1	-1
388.748	1	9
388.919	1	23
389.090	1	12
389.261	1	18
389.431	1	23
389.602	1	14
389.773	1	21
389.944	1	10
390.114	1	16
390.285	1	6
390.456	1	12
390.627	1	18
390.798	1	18
390.968	1	3
391.139	1	7
391.310	1	31
391.481	1	-6
391.651	1	12
391.822	1	15
391.993	1	16
392.164	1	-4
392.334	1	7
392.505	1	0
392.676	1	13
392.847	1	14
393.017	1	24
393.188	1	17
393.359	1	17
393.530	1	24
393.700	1	12
393.871	1	-1
394.042	1	14
394.213	1	9
394.383	1	12
394.554	1	13
394.725	1	24
394.896	1	18
395.066	1	14
395.237	1	6
395.408	1	20
395.579	1	18
395.749	1	16
395.920	1	17
396.091	1	10
396.262	1	11
396.432	1	9
396.603	1	17
396.774	1	12
396.945	1	13
397.115	1	24
397.286	1	13
397.457	1	12
397.627	1	7
397.798	1	10
397.969	1	0
398.140	1	21
398.310	1	15
398.481	1	14
398.652	1	21
398.823	1	19
398.993	1	16
399.164	1	17
399.335	1	3
399.505	1	10
399.676	1	14
399.847	1	5
400.018	1	12
400.188	1	16
400.359	1	17
400.530	1	19
400.700	1	9
400.871	1	31
401.042	1	16
401.213	1	4
401.383	1	8
401.554	1	11
401.725	1	20
401.895	1	21
402.066	1	4
402.237	1	29
402.408	1	14
402.578	1	16
402.749	1	15
402.920	1	8
403.090	1	14
403.261	1	19
403.432	1	19
403.603	1	10
403.773	1	23
403.944	1	19
404.115	1	19
404.285	1	4
404.456	1	15
404.627	1	7
404.797	1	1
404.968	1	19
405.139	1	15
405.310	1	14
405.480	1	14
405.651	1	23
405.822	1	20
405.992	1	18
406.163	1	12
406.334	1	14
406.504	1	15
406.675	1	14
406.846	1	14
407.016	1	18
407.187	1	20
407.358	1	20
407.528	1	13
407.699	1	11
407.870	1	14
408.041	1	18
408.211	1	13
408.382	1	16
408.553	1	20
408.723	1	14
408.894	1	18
409.065	1	19
409.235	1	25
409.406	1	11
409.577	1	22
409.747	1	13
409.918	1	12
410.089	1	13
410.259	1	22
410.430	1	17
410.601	1	13
410.771	1	21
410.942	1	28
411.113	1	-2
411.283	1	12
411.454	1	13
411.625	1	11
411.795	1	16
411.966	1	20
412.137	1	16
412.307	1	16
412.478	1	23
412.649	1	11
412.819	1	17
412.990	1	16
413.161	1	20
413.331	1	23
413.502	1	11
413.672	1	17
413.843	1	21
414.014	1	27
414.184	1	3
414.355	1	23
414.526	1	20
414.696	1	14
414.867	1	25
415.038	1	21
415.208	1	12
415.379	1	19
415.550	1	21
415.720	1	11
415.891	1	17
416.062	1	13
416.232	1	4
416.403	1	17
416.573	1	21
416.744	1	15
416.915	1	22
417.085	1	20
417.256	1	14
417.427	1	16
417.597	1	8
417.768	1	12
417.939	1	31
418.109	1	19
418.280	1	25
418.450	1	10
418.621	1	6
418.792	1	14
418.962	1	18
419.133	1	14
419.304	1	14
419.474	1	15
419.645	1	22
419.815	1	23
419.986	1	9
420.157	1	5
420.327	1	19
420.498	1	5
420.669	1	21
420.839	1	15
421.010	1	11
421.180	1	15
421.351	1	14
421.522	1	14
421.692	1	27
421.863	1	12
422.033	1	29
422.204	1	17
422.375	1	19
422.545	1	14
422.716	1	15
422.886	1	14
423.057	1	12
423.228	1	8
423.398	1	9
423.569	1	28
423.740	1	10
423.910	1	9
424.081	1	12
424.251	1	13
424.422	1	20
424.593	1	12
424.763	1	7
424.934	1	19
425.104	1	16
425.275	1	18
425.445	1	14
425.616	1	14
425.787	1	13
425.957	1	15
426.128	1	-1
426.298	1	3
426.469	1	3
426.640	1	21
426.810	1	12
426.981	1	16
427.151	1	26
427.322	1	11
427.493	1	7
427.663	1	16
427.834	1	14
428.004	1	13
428.175	1	17
428.345	1	11
428.516	1	18
428.687	1	14
428.857	1	11
429.028	1	16
429.198	1	13
429.369	1	8
429.540	1	8
429.710	1	18
429.881	1	8
430.051	1	7
430.222	1	11
430.392	1	22
430.563	1	23
430.734	1	11
430.904	1	8
431.075	1	13
431.245	1	5
431.416	1	12
431.586	1	7
431.757	1	29
431.927	1	16
432.098	1	5
432.269	1	13
432.439	1	25
432.610	1	22
432.780	1	21
432.951	1	7
433.121	1	16
433.292	1	6
433.462	1	14
433.633	1	11
433.804	1	26
433.974	1	3
434.145	1	19
434.315	1	17
434.486	1	16
434.656	1	14
434.827	1	13
434.997	1	20
435.168	1	9
435.339	1	20
435.509	1	26
435.680	1	13
435.850	1	11
436.021	1	14
436.191	1	12
436.362	1	9
436.532	1	17
436.703	1	13
436.873	1	10
437.044	1	11
437.214	1	26
437.385	1	9
437.556	1	19
437.726	1	12
437.897	1	15
438.067	1	0
438.238	1	2
438.408	1	6
438.579	1	13
438.749	1	15
438.920	1	9
439.090	1	22
439.261	1	8
439.431	1	19
439.602	1	2
439.772	1	22
439.943	1	4
440.113	1	2
440.284	1	14
440.455	1	16
440.625	1	23
440.796	1	19
440.966	1	10
441.137	1	18
441.307	1	11
441.478	1	19
441.648	1	8
441.819	1	24
441.989	1	9
442.160	1	5
442.330	1	13
442.501	1	17
442.671	1	10
442.842	1	12
443.012	1	11
443.183	1	11
443.353	1	11
443.524	1	15
443.694	1	7
443.865	1	12
444.035	1	6
444.206	1	4
444.376	1	13
444.547	1	8
444.717	1	6
444.888	1	10
445.058	1	21
445.229	1	11
445.399	1	15
445.570	1	25
445.740	1	18
445.911	1	-1
446.081	1	18
446.252	1	13
446.422	1	18
446.593	1	-4
446.763	1	15
446.934	1	2
447.104	1	9
447.275	1	3
447.445	1	0
447.616	1	7
447.786	1	16
447.957	1	16
448.127	1	3
448.298	1	11
448.468	1	10
448.639	1	12
448.809	1	20
448.979	1	13
449.150	1	10
449.320	1	7
449.491	1	15
449.661	1	15
449.832	1	11
450.002	1	1
450.173	1	17
450.343	1	24
450.514	1	12
450.684	1	6
450.855	1	16
451.025	1	17
451.196	1	1
451.366	1	7
451.537	1	10
451.707	1	13
451.878	1	7
452.048	1	16
452.218	1	9
452.389	1	18
452.559	1	16
452.730	1	3
452.900	1	9
453.071	1	8
453.241	1	3
453.412	1	9
453.582	1	14
453.753	1	5
453.923	1	23
454.093	1	17
454.264	1	14
454.434	1	8
454.605	1	9
454.775	1	2
454.946	1	5
455.116	1	6
455.287	1	13
455.457	1	7
455.628	1	6
455.798	1	11
455.968	1	13
456.139	1	13
456.309	1	16
456.480	1	0
456.650	1	8
456.821	1	8
456.991	1	10
457.161	1	13
457.332	1	11
457.502	1	19
457.673	1	17
457.843	1	1
458.014	1	13
458.184	1	9
458.355	1	-5
458.525	1	6
458.695	1	10
458.866	1	13
459.036	1	19
459.207	1	10
459.377	1	4
459.548	1	9
459.718	1	1
459.888	1	8
460.059	1	20
460.229	1	5
460.400	1	5
460.570	1	12
460.740	1	11
460.911	1	-4
461.081	1	9
461.252	1	9
461.422	1	2
461.593	1	13
461.763	1	10
461.933	1	14
462.104	1	25
462.274	1	1
462.445	1	12
462.615	1	12
462.785	1	10
462.956	1	2
463.126	1	13
463.297	1	13
463.467	1	17
463.638	1	9
463.808	1	8
463.978	1	4
464.149	1	7
464.319	1	1
464.490	1	8
464.660	1	18
464.830	1	13
465.001	1	-2
465.171	1	4
465.342	1	9
465.512	1	12
465.682	1	2
465.853	1	12
466.023	1	18
466.194	1	1
466.364	1	1
466.534	1	5
466.705	1	19
466.875	1	12
467.045	1	19
467.216	1	9
467.386	1	2
467.557	1	14
467.727	1	11
467.897	1	24
468.068	1	6
468.238	1	1
468.409	1	17
468.579	1	10
468.749	1	9
468.920	1	17
469.090	1	1
469.260	1	14
469.431	1	4
469.601	1	6
469.772	1	11
469.942	1	2
470.112	1	8
470.283	1	17
470.453	1	19
470.623	1	16
470.794	1	-2
470.964	1	9
471.135	1	14
471.305	1	9
471.475	1	8
471.646	1	9
471.816	1	12
471.986	1	2
472.157	1	8
472.327	1	11
472.497	1	10
472.668	1	-1
472.838	1	3
473.009	1	15
473.179	1	14
473.349	1	7
473.520	1	4
473.690	1	4
473.860	1	4
474.031	1	7
474.201	1	7
474.371	1	13
474.542	1	13
474.712	1	-6
474.882	1	4
475.053	1	6
475.223	1	1
475.394	1	-7
475.564	1	3
475.734	1	11
475.905	1	1
476.075	1	-2
476.245	1	19
476.416	1	11
476.586	1	12
476.756	1	2
476.927	1	2
477.097	1	7
477.267	1	7
477.438	1	8
477.608	1	1
477.778	1	15
477.949	1	21
478.119	1	-3
478.289	1	0
478.460	1	16
478.630	1	3
478.800	1	12
478.971	1	4
479.141	1	10
479.311	1	0
479.482	1	-7
479.652	1	5
479.822	1	6
479.993	1	14
480.163	1	11
480.333	1	17
480.504	1	9
480.674	1	-4
480.844	1	6
481.015	1	16
481.185	1	5
481.355	1	2
481.525	1	5
481.696	1	13
481.866	1	4
482.036	1	6
482.207	1	5
482.377	1	9
482.547	1	-10
482.718	1	5
482.888	1	0
483.058	1	13
483.229	1	9
483.399	1	9
483.569	1	2
483.740	1	10
483.910	1	11
484.080	1	20
484.250	1	0
484.421	1	4
484.591	1	8
484.761	1	8
484.932	1	14
485.102	1	-7
485.272	1	13
485.443	1	5
485.613	1	0
485.783	1	7
485.953	1	-4
486.124	1	8
486.294	1	5
486.464	1	9
486.635	1	6
486.805	1	9
486.975	1	13
487.146	1	13
487.316	1	1
487.486	1	-6
487.656	1	19
487.827	1	10
487.997	1	7
488.167	1	15
488.338	1	7
488.508	1	7
488.678	1	11
488.848	1	13
489.019	1	8
489.189	1	-9
489.359	1	4
489.529	1	0
489.700	1	8
489.870	1	0
490.040	1	-3
490.211	1	4
490.381	1	20
490.551	1	-1
490.721	1	15
490.892	1	20
491.062	1	12
491.232	1	10
491.402	1	-4
491.573	1	11
491.743	1	8
491.913	1	1
492.084	1	1
492.254	1	14
492.424	1	6
492.594	1	-2
492.765	1	9
492.935	1	3
493.105	1	-1
493.275	1	4
493.446	1	9
493.616	1	-6
493.786	1	6
493.956	1	9
494.127	1	9
494.297	1	15
494.467	1	-3
494.637	1	10
494.808	1	-7
494.978	1	8
495.148	1	9
495.318	1	5
495.489	1	12
495.659	1	14
495.829	1	9
495.999	1	4
496.170	1	0
496.340	1	2
496.510	1	22
496.680	1	5
496.851	1	11
497.021	1	17
497.191	1	8
497.361	1	11
497.532	1	17
497.702	1	3
497.872	1	-1
498.042	1	10
498.213	1	1
498.383	1	5
498.553	1	10
498.723	1	3
498.894	1	15
499.064	1	5
499.234	1	19
499.404	1	1
499.574	1	16
499.745	1	6
499.915	1	5
500.085	1	0
500.255	1	3
500.426	1	4
500.596	1	8
500.766	1	6
500.936	1	1
501.106	1	4
501.277	1	10
501.447	1	3
501.617	1	4
501.787	1	13
501.958	1	-6
502.128	1	4
502.298	1	14
502.468	1	1
502.638	1	11
502.809	1	8
502.979	1	13
503.149	1	2
503.319	1	8
503.489	1	0
503.660	1	8
503.830	1	-2
504.000	1	4
504.170	1	1
504.340	1	11
504.511	1	8
504.681	1	-8
504.851	1	5
505.021	1	4
505.192	1	0
505.362	1	12
505.532	1	4
505.702	1	6
505.872	1	5
506.043	1	2
506.213	1	2
506.383	1	4
506.553	1	8
506.723	1	2
506.893	1	-3
507.064	1	7
507.234	1	4
507.404	1	15
507.574	1	3
507.744	1	2
507.915	1	13
508.085	1	7
508.255	1	7
508.425	1	3
508.595	1	-2
508.766	1	5
508.936	1	0
509.106	1	4
509.276	1	-1
509.446	1	-5
509.616	1	6
509.787	1	7
509.957	1	5
510.127	1	8
510.297	1	-2
510.467	1	14
510.638	1	-6
510.808	1	8
510.978	1	7
511.148	1	2
511.318	1	14
511.488	1	-5
511.659	1	-9
511.829	1	5
511.999	1	7
512.169	1	1
512.339	1	-4
512.509	1	11
512.680	1	7
512.850	1	5
513.020	1	-1
513.190	1	0
513.360	1	0
513.530	1	8
513.700	1	8
513.871	1	4
514.041	1	4
514.211	1	18
514.381	1	-5
514.551	1	9
514.721	1	9
514.892	1	5
515.062	1	-1
515.232	1	-2
515.402	1	8
515.572	1	2
515.742	1	-1
515.912	1	11
516.083	1	2
516.253	1	10
516.423	1	-1
516.593	1	3
516.763	1	14
516.933	1	-1
517.104	1	0
517.274	1	-4
517.444	1	12
517.614	1	6
517.784	1	2
517.954	1	6
518.124	1	-6
518.294	1	3
518.465	1	5
518.635	1	-3
518.805	1	-1
518.975	1	9
519.145	1	12
519.315	1	12
519.485	1	0
519.656	1	4
519.826	1	7
519.996	1	4
520.166	1	9
520.336	1	12
520.506	1	5
520.676	1	7
520.846	1	-1
521.017	1	0
521.187	1	-1
521.357	1	0
521.527	1	0
521.697	1	-2
521.867	1	-1
522.037	1	5
522.207	1	0
522.377	1	-1
522.548	1	5
522.718	1	16
522.888	1	-5
523.058	1	-1
523.228	1	-3
523.398	1	2
523.568	1	-6
523.738	1	-5
523.909	1	7
524.079	1	9
524.249	1	2
524.419	1	-8
524.589	1	4
524.759	1	0
524.929	1	0
525.099	1	8
525.269	1	9
525.439	1	-1
525.610	1	15
525.780	1	10
525.950	1	7
526.120	1	0
526.290	1	2
526.460	1	8
526.630	1	6
526.800	1	6
526.970	1	2
527.140	1	8
527.311	1	-2
527.481	1	4
527.651	1	6
527.821	1	-5
527.991	1	4
528.161	1	1
528.331	1	-6
528.501	1	1
528.671	1	7
528.841	1	2
529.011	1	3
529.181	1	10
529.352	1	1
529.522	1	-4
529.692	1	9
529.862	1	2
530.032	1	5
530.202	1	4
530.372	1	1
530.542	1	3
530.712	1	-3
530.882	1	6
531.052	1	2
531.222	1	11
531.392	1	-2
531.563	1	1
531.733	1	14
531.903	1	-3
532.073	1	0
532.243	1	8
532.413	1	10
532.583	1	-4
532.753	1	2
532.923	1	9
533.093	1	-1
533.263	1	-11
533.433	1	4
533.603	1	2
533.773	1	-3
533.943	1	8
534.113	1	9
534.284	1	10
534.454	1	11
534.624	1	-5
534.794	1	1
534.964	1	-4
535.134	1	0
535.304	1	15
535.474	1	-6
535.644	1	10
535.814	1	0
535.984	1	3
536.154	1	9
536.324	1	-9
536.494	1	-3
536.664	1	-11
536.834	1	0
537.004	1	7
537.174	1	2
537.344	1	10
537.514	1	-1
537.685	1	4
537.855	1	4
538.025	1	0
538.195	1	6
538.365	1	0
538.535	1	-7
538.705	1	-7
538.875	1	13
539.045	1	7
539.215	1	16
539.385	1	-4
539.555	1	0
539.725	1	4
539.895	1	15
540.065	1	3
540.235	1	-2
540.405	1	12
540.575	1	8
540.745	1	4
540.915	1	15
541.085	1	5
541.255	1	7
541.425	1	-11
541.595	1	0
541.765	1	0
541.935	1	1
542.105	1	5
542.275	1	2
542.445	1	3
542.615	1	11
542.785	1	5
542.955	1	1
543.125	1	-8
543.295	1	16
543.465	1	1
543.635	1	-8
543.805	1	3
543.975	1	0
544.145	1	9
544.315	1	-1
544.485	1	1
544.655	1	13
544.825	1	1
544.995	1	7
545.165	1	6
545.335	1	-7
545.505	1	2
545.675	1	6
545.845	1	-8
546.015	1	3
546.185	1	-1
546.355	1	0
546.525	1	5
546.695	1	0
546.865	1	-1
547.035	1	-2
547.205	1	7
547.375	1	4
547.545	1	5
547.715	1	8
547.885	1	0
548.055	1	0
548.225	1	-2
548.395	1	13
548.565	1	-3
548.735	1	3
548.905	1	7
549.075	1	1
549.245	1	-4
549.415	1	5
549.585	1	8
549.755	1	-5
549.925	1	2
550.095	1	0
550.265	1	-4
550.435	1	-4
550.605	1	7
550.775	1	6
550.945	1	1
551.115	1	-1
551.285	1	-6
551.455	1	-7
551.625	1	3
551.795	1	7
551.965	1	-5
552.135	1	-8
552.305	1	5
552.475	1	12
552.645	1	8
552.815	1	2
552.985	1	3
553.155	1	-7
553.325	1	-4
553.495	1	5
553.665	1	-1
553.835	1	3
554.004	1	0
554.174	1	-1
554.344	1	-9
554.514	1	6
554.684	1	-5
554.854	1	-3
555.024	1	7
555.194	1	7
555.364	1	9
555.534	1	7
555.704	1	-2
555.874	1	5
556.044	1	2
556.214	1	-5
556.384	1	6
556.554	1	5
556.724	1	-11
556.894	1	5
557.064	1	-2
557.234	1	3
557.404	1	10
557.573	1	8
557.743	1	-5
557.913	1	4
558.083	1	4
558.253	1	1
558.423	1	1
558.593	1	-3
558.763	1	-1
558.933	1	2
559.103	1	-2
559.273	1	5
559.443	1	0
559.613	1	-2
559.783	1	7
559.953	1	2
560.122	1	6
560.292	1	0
560.462	1	-3
560.632	1	0
560.802	1	-1
560.972	1	4
561.142	1	7
561.312	1	5
561.482	1	3
561.652	1	3
561.822	1	-4
561.992	1	7
562.162	1	-2
562.331	1	-1
562.501	1	-5
562.671	1	8
562.841	1	14
563.011	1	7
563.181	1	8
563.351	1	3
563.521	1	3
563.691	1	-9
563.861	1	3
564.031	1	0
564.201	1	-2
564.370	1	9
564.540	1	7
564.710	1	14
564.880	1	14
565.050	1	-11
565.220	1	-5
565.390	1	13
565.560	1	4
565.730	1	2
565.900	1	-12
566.069	1	8
566.239	1	-3
566.409	1	7
566.579	1	2
566.749	1	10
566.919	1	3
567.089	1	-1
567.259	1	12
567.429	1	3
567.599	1	3
567.768	1	-2
567.938	1	-15
568.108	1	1
568.278	1	-5
568.448	1	13
568.618	1	16
568.788	1	-2
568.958	1	12
569.128	1	4
569.297	1	-4
569.467	1	7
569.637	1	-3
569.807	1	5
569.977	1	1
570.147	1	-5
570.317	1	21
570.487	1	2
570.656	1	6
570.826	1	7
570.996	1	8
571.166	1	5
571.336	1	10
571.506	1	-3
571.676	1	10
571.846	1	1
572.015	1	5
572.185	1	4
572.355	1	1
572.525	1	-5
572.695	1	-1
572.865	1	-8
573.035	1	1
573.205	1	4
573.374	1	-4
573.544	1	4
573.714	1	10
573.884	1	6
574.054	1	6
574.224	1	1
574.394	1	-7
574.563	1	1
574.733	1	-4
574.903	1	9
575.073	1	5
575.243	1	-4
575.413	1	11
575.583	1	-3
575.752	1	-3
575.922	1	-2
576.092	1	0
576.262	1	10
576.432	1	9
576.602	1	-8
576.772	1	-11
576.941	1	10
577.111	1	10
577.281	1	18
577.451	1	6
577.621	1	-5
577.791	1	-2
577.960	1	3
578.130	1	-4
578.300	1	6
578.470	1	4
578.640	1	9
578.810	1	2
578.979	1	13
579.149	1	-2
579.319	1	-1
579.489	1	4
579.659	1	-6
579.829	1	2
579.998	1	5
580.168	1	5
580.338	1	-1
580.508	1	1
580.678	1	-9
580.848	1	11
581.017	1	16
581.187	1	-1
581.357	1	-4
581.527	1	-3
581.697	1	4
581.867	1	-2
582.036	1	-1
582.206	1	-4
582.376	1	-3
582.546	1	3
582.716	1	-6
582.885	1	10
583.055	1	1
583.225	1	-3
583.395	1	3
583.565	1	14
583.735	1	-8
583.904	1	-3
584.074	1	0
584.244	1	12
584.414	1	7
584.584	1	4
584.753	1	14
584.923	1	8
585.093	1	-4
585.263	1	-7
585.433	1	-10
585.602	1	-2
585.772	1	7
585.942	1	4
586.112	1	7
586.282	1	3
586.451	1	1
586.621	1	4
586.791	1	1
586.961	1	2
587.131	1	10
587.300	1	-9
587.470	1	6
587.640	1	0
587.810	1	-7
587.980	1	8
588.149	1	9
588.319	1	7
588.489	1	4
588.659	1	-5
588.829	1	7
588.998	1	12
589.168	1	-1
589.338	1	1
589.508	1	8
589.677	1	5
589.847	1	6
590.017	1	2
590.187	1	-6
590.357	1	3
590.526	1	9
590.696	1	-3
590.866	1	0
591.036	1	2
591.205	1	-8
591.375	1	2
591.545	1	-4
591.715	1	4
591.885	1	-4
592.054	1	-2
592.224	1	3
592.394	1	0
592.564	1	-7
592.733	1	4
592.903	1	3
593.073	1	1
593.243	1	0
593.412	1	-6
593.582	1	6
593.752	1	4
593.922	1	0
594.091	1	15
594.261	1	5
594.431	1	2
594.601	1	2
594.771	1	-3
594.940	1	5
595.110	1	7
595.280	1	-7
595.450	1	6
595.619	1	-3
595.789	1	0
595.959	1	0
596.129	1	6
596.298	1	10
596.468	1	1
596.638	1	4
596.808	1	6
596.977	1	10
597.147	1	-3
597.317	1	2
597.487	1	-3
597.656	1	-6
597.826	1	-8
597.996	1	7
598.166	1	2
598.335	1	-7
598.505	1	7
598.675	1	0
598.844	1	-13
599.014	1	2
599.184	1	6
599.354	1	-5
599.523	1	-4
599.693	1	0
599.863	1	4
600.033	1	6
600.202	1	-5
600.372	1	3
600.542	1	5
600.712	1	5
600.881	1	3
601.051	1	8
601.221	1	-6
601.390	1	8
601.560	1	-5
601.730	1	-2
601.900	1	8
602.069	1	-3
602.239	1	-8
602.409	1	15
602.578	1	6
602.748	1	8
602.918	1	0
603.088	1	10
603.257	1	7
603.427	1	3
603.597	1	2
603.767	1	-2
603.936	1	6
604.106	1	2
604.276	1	4
604.445	1	2
604.615	1	-3
604.785	1	-6
604.954	1	1
605.124	1	-3
605.294	1	4
605.464	1	9
605.633	1	7
605.803	1	-6
605.973	1	6
606.142	1	12
606.312	1	3
606.482	1	-16
606.652	1	6
606.821	1	10
606.991	1	7
607.161	1	12
607.330	1	-6
607.500	1	-3
607.670	1	-11
607.839	1	9
608.009	1	0
608.179	1	0
608.348	1	11
608.518	1	4
608.688	1	10
608.858	1	0
609.027	1	1
609.197	1	4
609.367	1	0
609.536	1	7
609.706	1	-4
609.876	1	2
610.045	1	-1
610.215	1	3
610.385	1	7
610.554	1	-4
610.724	1	2
610.894	1	10
611.063	1	-1
611.233	1	2
611.403	1	-2
611.572	1	9
611.742	1	4
611.912	1	3
612.081	1	2
612.251	1	3
612.421	1	8
612.590	1	-4
612.760	1	13
612.930	1	-5
613.099	1	7
613.269	1	-2
613.439	1	9
613.608	1	20
613.778	1	8
613.948	1	18
614.117	1	-3
614.287	1	-2
614.457	1	2
614.626	1	-3
614.796	1	2
614.966	1	0
615.135	1	-3
615.305	1	4
615.475	1	3
615.644	1	13
615.814	1	2
615.984	1	-4
616.153	1	-7
616.323	1	-4
616.493	1	4
616.662	1	6
616.832	1	-1
617.002	1	7
617.171	1	-3
617.341	1	3
617.511	1	-5
617.680	1	0
617.850	1	-5
618.019	1	-4
618.189	1	8
618.359	1	6
618.528	1	5
618.698	1	0
618.868	1	12
619.037	1	-6
619.207	1	2
619.377	1	4
619.546	1	-1
619.716	1	3
619.885	1	15
620.055	1	9
620.225	1	12
620.394	1	8
620.564	1	6
620.734	1	3
620.903	1	3
621.073	1	2
621.242	1	-5
621.412	1	0
621.582	1	-1
621.751	1	8
621.921	1	4
622.091	1	-4
622.260	1	1
622.430	1	0
622.599	1	6
622.769	1	5
622.939	1	12
623.108	1	1
623.278	1	8
623.448	1	5
623.617	1	-3
623.787	1	3
623.956	1	-7
624.126	1	7
624.296	1	10
624.465	1	1
624.635	1	-1
624.804	1	4
624.974	1	8
625.144	1	15
625.313	1	0
625.483	1	0
625.652	1	8
625.822	1	10
625.992	1	9
626.161	1	-2
626.331	1	5
626.501	1	11
626.670	1	0
626.840	1	0
627.009	1	-2
627.179	1	7
627.348	1	9
627.518	1	7
627.688	1	-1
627.857	1	-2
628.027	1	2
628.196	1	0
628.366	1	5
628.536	1	7
628.705	1	2
628.875	1	7
629.044	1	-7
629.214	1	4
629.384	1	-2
629.553	1	-1
629.723	1	8
629.892	1	-3
630.062	1	19
630.232	1	-6
630.401	1	10
630.571	1	1
630.740	1	2
630.910	1	4
631.079	1	10
631.249	1	-8
631.419	1	3
631.588	1	-8
631.758	1	5
631.927	1	4
632.097	1	8
632.266	1	5
632.436	1	-1
632.606	1	6
632.775	1	10
632.945	1	6
633.114	1	-1
633.284	1	-10
633.453	1	5
633.623	1	7
633.793	1	0
633.962	1	2
634.132	1	9
634.301	1	9
634.471	1	10
634.640	1	6
634.810	1	16
634.979	1	7
635.149	1	3
635.319	1	5
635.488	1	-3
635.658	1	-9
635.827	1	-1
635.997	1	2
636.166	1	6
636.336	1	19
636.505	1	15
636.675	1	-1
636.845	1	1
637.014	1	1
637.184	1	0
637.353	1	4
637.523	1	6
637.692	1	5
637.862	1	-8
638.031	1	4
638.201	1	15
638.370	1	12
638.540	1	-3
638.710	1	10
638.879	1	-10
639.049	1	9
639.218	1	-1
639.388	1	10
639.557	1	-3
639.727	1	-2
639.896	1	2
640.066	1	-2
640.235	1	8
640.405	1	-2
640.574	1	4
640.744	1	5
640.914	1	4
641.083	1	-5
641.253	1	3
641.422	1	8
641.592	1	6
641.761	1	16
641.931	1	0
642.100	1	14
642.270	1	2
642.439	1	-1
642.609	1	0
642.778	1	5
642.948	1	5
643.117	1	6
643.287	1	3
643.456	1	-14
643.626	1	4
643.795	1	10
643.965	1	3
644.134	1	11
644.304	1	14
644.473	1	-8
644.643	1	-3
644.812	1	0
644.982	1	5
645.151	1	-1
645.321	1	3
645.490	1	16
645.660	1	3
645.829	1	-1
645.999	1	5
646.168	1	-1
646.338	1	-4
646.507	1	-14
646.677	1	9
646.846	1	8
647.016	1	3
647.185	1	1
647.355	1	-2
647.524	1	-3
647.694	1	4
647.863	1	3
648.033	1	4
648.202	1	14
648.372	1	-3
648.541	1	7
648.711	1	4
648.880	1	4
649.050	1	4
649.219	1	-4
649.389	1	13
649.558	1	9
649.728	1	3
649.897	1	0
650.067	1	0
650.236	1	17
650.406	1	-1
650.575	1	6
650.745	1	8
650.914	1	9
651.084	1	0
651.253	1	10
651.423	1	-2
651.592	1	3
651.762	1	9
651.931	1	3
652.101	1	10
652.270	1	-4
652.440	1	2
652.609	1	-3
652.778	1	9
652.948	1	-5
653.117	1	13
653.287	1	1
653.456	1	0
653.626	1	3
653.795	1	14
653.965	1	6
654.134	1	2
654.304	1	11
654.473	1	3
654.643	1	12
654.812	1	0
654.982	1	5
655.151	1	9
655.320	1	-2
655.490	1	-3
655.659	1	3
655.829	1	-4
655.998	1	2
656.168	1	3
656.337	1	4
656.507	1	3
656.676	1	-2
656.846	1	0
657.015	1	18
657.184	1	-3
657.354	1	2
657.523	1	6
657.693	1	-2
657.862	1	6
658.032	1	1
658.201	1	1
658.371	1	9
658.540	1	9
658.709	1	7
658.879	1	-12
659.048	1	-7
659.218	1	-2
659.387	1	11
659.557	1	3
659.726	1	10
659.895	1	-4
660.065	1	7
660.234	1	5
660.404	1	17
660.573	1	10
660.743	1	6
660.912	1	4
661.081	1	2
661.251	1	-6
661.420	1	-1
661.590	1	2
661.759	1	7
661.929	1	8
662.098	1	6
662.267	1	13
662.437	1	7
662.606	1	9
662.776	1	-1
662.945	1	6
663.115	1	-7
663.284	1	-2
663.453	1	-6
663.623	1	9
663.792	1	0
663.962	1	1
664.131	1	1
664.300	1	6
664.470	1	-3
664.639	1	-4
664.809	1	13
664.978	1	7
665.148	1	12
665.317	1	-4
665.486	1	7
665.656	1	3
665.825	1	4
665.995	1	6
666.164	1	7
666.333	1	4
666.503	1	8
666.672	1	9
666.842	1	-6
667.011	1	5
667.180	1	3
667.350	1	12
667.519	1	-3
667.689	1	12
667.858	1	14
668.027	1	1
668.197	1	11
668.366	1	3
668.536	1	-2
668.705	1	13
668.874	1	8
669.044	1	-7
669.213	1	5
669.382	1	13
669.552	1	-3
669.721	1	-4
669.891	1	-8
670.060	1	1
670.229	1	4
670.399	1	15
670.568	1	12
670.738	1	4
670.907	1	0
671.076	1	6
671.246	1	1
671.415	1	4
671.584	1	5
671.754	1	14
671.923	1	2
672.093	1	13
672.262	1	10
672.431	1	14
672.601	1	-1
672.770	1	-2
672.939	1	5
673.109	1	-1
673.278	1	8
673.448	1	-4
673.617	1	1
673.786	1	-9
