325.333	1	24
325.504	1	37
325.675	1	18
325.846	1	15
326.017	1	21
326.188	1	27
326.359	1	29
326.531	1	15
326.702	1	31
326.873	1	31
327.044	1	24
327.215	1	21
327.386	1	20
327.557	1	35
327.728	1	19
327.899	1	25
328.070	1	32
328.241	1	30
328.412	1	22
328.583	1	28
328.754	1	13
328.926	1	28
329.097	1	23
329.268	1	22
329.439	1	27
329.610	1	29
329.781	1	39
329.952	1	33
330.123	1	29
330.294	1	37
330.465	1	39
330.636	1	29
330.807	1	30
330.978	1	33
331.149	1	28
331.320	1	24
331.492	1	39
331.663	1	34
331.834	1	19
332.005	1	26
332.176	1	27
332.347	1	32
332.518	1	32
332.689	1	39
332.860	1	27
333.031	1	36
333.202	1	39
333.373	1	36
333.544	1	35
333.715	1	36
333.886	1	36
334.057	1	44
334.228	1	40
334.399	1	33
334.570	1	35
334.741	1	37
334.912	1	48
335.084	1	32
335.255	1	41
335.426	1	40
335.597	1	38
335.768	1	38
335.939	1	37
336.110	1	35
336.281	1	40
336.452	1	46
336.623	1	40
336.794	1	30
336.965	1	43
337.136	1	49
337.307	1	47
337.478	1	40
337.649	1	37
337.820	1	32
337.991	1	48
338.162	1	42
338.333	1	49
338.504	1	38
338.675	1	43
338.846	1	44
339.017	1	47
339.188	1	57
339.359	1	38
339.530	1	37
339.701	1	49
339.872	1	39
340.043	1	56
340.214	1	38
340.385	1	47
340.556	1	52
340.727	1	56
340.898	1	46
341.069	1	47
341.240	1	52
341.411	1	52
341.582	1	49
341.753	1	45
341.924	1	44
342.095	1	54
342.266	1	41
342.437	1	45
342.608	1	42
342.779	1	43
342.950	1	57
343.121	1	52
343.292	1	61
343.463	1	52
343.634	1	60
343.805	1	57
343.976	1	54
344.147	1	59
344.318	1	56
344.489	1	62
344.660	1	59
344.831	1	49
345.002	1	57
345.173	1	58
345.344	1	40
345.515	1	51
345.686	1	50
345.857	1	64
346.028	1	66
346.199	1	66
346.370	1	65
346.541	1	74
346.712	1	51
346.883	1	68
347.054	1	52
347.225	1	61
347.396	1	62
347.567	1	70
347.738	1	68
347.909	1	77
348.080	1	53
348.251	1	61
348.422	1	63
348.593	1	68
348.764	1	70
348.935	1	73
349.106	1	58
349.277	1	68
349.448	1	65
349.619	1	68
349.790	1	76
349.961	1	69
350.132	1	69
350.303	1	82
350.474	1	68
350.645	1	66
350.816	1	75
350.987	1	69
351.157	1	62
351.328	1	74
351.499	1	70
351.670	1	70
351.841	1	69
352.012	1	65
352.183	1	68
352.354	1	79
352.525	1	66
352.696	1	73
352.867	1	69
353.038	1	74
353.209	1	78
353.380	1	76
353.551	1	86
353.722	1	71
353.893	1	83
354.064	1	77
354.235	1	78
354.406	1	72
354.576	1	79
354.747	1	90
354.918	1	79
355.089	1	84
355.260	1	83
355.431	1	76
355.602	1	76
355.773	1	75
355.944	1	77
356.115	1	65
356.286	1	84
356.457	1	84
356.628	1	101
356.799	1	76
356.970	1	77
357.141	1	83
357.311	1	82
357.482	1	80
357.653	1	70
357.824	1	95
357.995	1	88
358.166	1	84
358.337	1	78
358.508	1	82
358.679	1	76
358.850	1	86
359.021	1	78
359.192	1	81
359.363	1	86
359.533	1	86
359.704	1	88
359.875	1	96
360.046	1	83
360.217	1	87
360.388	1	87
360.559	1	93
360.730	1	86
360.901	1	92
361.072	1	83
361.243	1	81
361.414	1	74
361.584	1	87
361.755	1	95
361.926	1	90
362.097	1	94
362.268	1	84
362.439	1	90
362.610	1	88
362.781	1	85
362.952	1	105
363.123	1	100
363.293	1	94
363.464	1	97
363.635	1	102
363.806	1	96
363.977	1	86
364.148	1	81
364.319	1	94
364.490	1	98
364.661	1	104
364.832	1	101
365.002	1	104
365.173	1	84
365.344	1	97
365.515	1	105
365.686	1	97
365.857	1	102
366.028	1	95
366.199	1	100
366.370	1	95
366.540	1	97
366.711	1	88
366.882	1	92
367.053	1	99
367.224	1	84
367.395	1	105
367.566	1	108
367.737	1	93
367.908	1	106
368.078	1	112
368.249	1	93
368.420	1	99
368.591	1	103
368.762	1	107
368.933	1	86
369.104	1	105
369.274	1	89
369.445	1	109
369.616	1	109
369.787	1	103
369.958	1	104
370.129	1	111
370.300	1	101
370.471	1	115
370.641	1	96
370.812	1	104
370.983	1	95
371.154	1	111
371.325	1	110
371.496	1	95
371.667	1	113
371.837	1	110
372.008	1	107
372.179	1	111
372.350	1	108
372.521	1	99
372.692	1	109
372.863	1	94
373.033	1	118
373.204	1	94
373.375	1	107
373.546	1	110
373.717	1	102
373.888	1	103
374.059	1	111
374.229	1	96
374.400	1	105
374.571	1	108
374.742	1	115
374.913	1	110
375.084	1	110
375.254	1	110
375.425	1	97
375.596	1	100
375.767	1	113
375.938	1	101
376.109	1	98
376.279	1	100
376.450	1	110
376.621	1	104
376.792	1	106
376.963	1	101
377.134	1	117
377.304	1	104
377.475	1	110
377.646	1	110
377.817	1	97
377.988	1	114
378.159	1	111
378.329	1	113
378.500	1	115
378.671	1	116
378.842	1	112
379.013	1	115
379.184	1	114
379.354	1	101
379.525	1	106
379.696	1	108
379.867	1	113
380.038	1	108
380.209	1	117
380.379	1	131
380.550	1	121
380.721	1	129
380.892	1	125
381.063	1	113
381.233	1	108
381.404	1	126
381.575	1	117
381.746	1	128
381.917	1	124
382.087	1	135
382.258	1	112
382.429	1	123
382.600	1	113
382.771	1	125
382.941	1	120
383.112	1	120
383.283	1	127
383.454	1	128
383.625	1	115
383.795	1	118
383.966	1	115
384.137	1	128
384.308	1	127
384.479	1	120
384.649	1	133
384.820	1	128
384.991	1	118
385.162	1	122
385.333	1	119
385.503	1	131
385.674	1	112
385.845	1	121
386.016	1	130
386.187	1	123
386.357	1	133
386.528	1	112
386.699	1	121
386.870	1	127
387.041	1	123
387.211	1	126
387.382	1	133
387.553	1	117
387.724	1	126
387.894	1	131
388.065	1	120
388.236	1	126
388.407	1	135
388.578	1	131
388.748	1	137
388.919	1	145
389.090	1	132
389.261	1	142
389.431	1	136
389.602	1	145
389.773	1	130
389.944	1	129
390.114	1	149
390.285	1	130
390.456	1	129
390.627	1	130
390.798	1	142
390.968	1	127
391.139	1	140
391.310	1	132
391.481	1	121
391.651	1	143
391.822	1	124
391.993	1	136
392.164	1	129
392.334	1	139
392.505	1	123
392.676	1	140
392.847	1	142
393.017	1	139
393.188	1	125
393.359	1	125
393.530	1	139
393.700	1	144
393.871	1	127
394.042	1	126
394.213	1	127
394.383	1	135
394.554	1	124
394.725	1	141
394.896	1	135
395.066	1	141
395.237	1	134
395.408	1	147
395.579	1	138
395.749	1	143
395.920	1	144
396.091	1	137
396.262	1	134
396.432	1	135
396.603	1	136
396.774	1	149
396.945	1	137
397.115	1	139
397.286	1	136
397.457	1	143
397.627	1	133
397.798	1	136
397.969	1	137
398.140	1	142
398.310	1	138
398.481	1	133
398.652	1	143
398.823	1	145
398.993	1	146
399.164	1	141
399.335	1	139
399.505	1	149
399.676	1	151
399.847	1	142
400.018	1	138
400.188	1	148
400.359	1	135
400.530	1	140
400.700	1	146
400.871	1	156
401.042	1	141
401.213	1	144
401.383	1	132
401.554	1	146
401.725	1	152
401.895	1	144
402.066	1	141
402.237	1	152
402.408	1	142
402.578	1	149
402.749	1	155
402.920	1	158
403.090	1	153
403.261	1	153
403.432	1	152
403.603	1	134
403.773	1	166
403.944	1	145
404.115	1	156
404.285	1	155
404.456	1	152
404.627	1	136
404.797	1	159
404.968	1	152
405.139	1	136
405.310	1	142
405.480	1	139
405.651	1	154
405.822	1	153
405.992	1	148
406.163	1	160
406.334	1	141
406.504	1	148
406.675	1	143
406.846	1	146
407.016	1	138
407.187	1	156
407.358	1	139
407.528	1	148
407.699	1	143
407.870	1	143
408.041	1	141
408.211	1	142
408.382	1	144
408.553	1	138
408.723	1	154
408.894	1	151
409.065	1	157
409.235	1	167
409.406	1	146
409.577	1	156
409.747	1	152
409.918	1	148
410.089	1	157
410.259	1	165
410.430	1	150
410.601	1	141
410.771	1	147
410.942	1	148
411.113	1	137
411.283	1	152
411.454	1	147
411.625	1	159
411.795	1	150
411.966	1	153
412.137	1	151
412.307	1	144
412.478	1	155
412.649	1	148
412.819	1	144
412.990	1	156
413.161	1	151
413.331	1	160
413.502	1	167
413.672	1	156
413.843	1	160
414.014	1	152
414.184	1	142
414.355	1	144
414.526	1	159
414.696	1	161
414.867	1	155
415.038	1	141
415.208	1	154
415.379	1	152
415.550	1	156
415.720	1	158
415.891	1	138
416.062	1	156
416.232	1	143
416.403	1	143
416.573	1	161
416.744	1	132
416.915	1	149
417.085	1	149
417.256	1	150
417.427	1	159
417.597	1	134
417.768	1	147
417.939	1	151
418.109	1	151
418.280	1	144
418.450	1	149
418.621	1	147
418.792	1	139
418.962	1	138
419.133	1	138
419.304	1	140
419.474	1	142
419.645	1	138
419.815	1	130
419.986	1	129
420.157	1	127
420.327	1	153
420.498	1	134
420.669	1	151
420.839	1	154
421.010	1	145
421.180	1	140
421.351	1	137
421.522	1	136
421.692	1	132
421.863	1	142
422.033	1	152
422.204	1	147
422.375	1	156
422.545	1	136
422.716	1	139
422.886	1	134
423.057	1	137
423.228	1	128
423.398	1	137
423.569	1	146
423.740	1	137
423.910	1	139
424.081	1	140
424.251	1	127
424.422	1	146
424.593	1	121
424.763	1	140
424.934	1	139
425.104	1	136
425.275	1	143
425.445	1	148
425.616	1	137
425.787	1	127
425.957	1	147
426.128	1	131
426.298	1	121
426.469	1	134
426.640	1	146
426.810	1	131
426.981	1	147
427.151	1	140
427.322	1	139
427.493	1	129
427.663	1	141
427.834	1	137
428.004	1	136
428.175	1	135
428.345	1	130
428.516	1	138
428.687	1	136
428.857	1	133
429.028	1	137
429.198	1	129
429.369	1	129
429.540	1	145
429.710	1	138
429.881	1	126
430.051	1	127
430.222	1	123
430.392	1	133
430.563	1	152
430.734	1	136
430.904	1	139
431.075	1	137
431.245	1	142
431.416	1	122
431.586	1	126
431.757	1	132
431.927	1	131
432.098	1	139
432.269	1	118
432.439	1	142
432.610	1	132
432.780	1	130
432.951	1	127
433.121	1	126
433.292	1	124
433.462	1	123
433.633	1	131
433.804	1	141
433.974	1	125
434.145	1	136
434.315	1	132
434.486	1	129
434.656	1	138
434.827	1	119
434.997	1	131
435.168	1	124
435.339	1	144
435.509	1	129
435.680	1	131
435.850	1	116
436.021	1	124
436.191	1	133
436.362	1	128
436.532	1	139
436.703	1	130
436.873	1	137
437.044	1	131
437.214	1	136
437.385	1	130
437.556	1	132
437.726	1	123
437.897	1	129
438.067	1	130
438.238	1	119
438.408	1	133
438.579	1	113
438.749	1	134
438.920	1	141
439.090	1	125
439.261	1	124
439.431	1	124
439.602	1	119
439.772	1	130
439.943	1	128
440.113	1	116
440.284	1	129
440.455	1	125
440.625	1	126
440.796	1	130
440.966	1	117
441.137	1	119
441.307	1	135
441.478	1	120
441.648	1	115
441.819	1	134
441.989	1	120
442.160	1	113
442.330	1	124
442.501	1	127
442.671	1	116
442.842	1	129
443.012	1	118
443.183	1	119
443.353	1	124
443.524	1	116
443.694	1	113
443.865	1	115
444.035	1	115
444.206	1	114
444.376	1	117
444.547	1	115
444.717	1	123
444.888	1	109
445.058	1	124
445.229	1	118
445.399	1	120
445.570	1	130
445.740	1	121
445.911	1	106
446.081	1	116
446.252	1	111
446.422	1	118
446.593	1	118
446.763	1	127
446.934	1	104
447.104	1	111
447.275	1	106
447.445	1	115
447.616	1	111
447.786	1	122
447.957	1	109
448.127	1	111
448.298	1	99
448.468	1	102
448.639	1	121
448.809	1	116
448.979	1	102
449.150	1	104
449.320	1	112
449.491	1	104
449.661	1	119
449.832	1	110
450.002	1	99
450.173	1	102
450.343	1	127
450.514	1	112
450.684	1	116
450.855	1	107
451.025	1	122
451.196	1	102
451.366	1	114
451.537	1	108
451.707	1	108
451.878	1	103
452.048	1	114
452.218	1	113
452.389	1	110
452.559	1	115
452.730	1	100
452.900	1	110
453.071	1	110
453.241	1	91
453.412	1	103
453.582	1	105
453.753	1	107
453.923	1	115
454.093	1	108
454.264	1	110
454.434	1	109
454.605	1	101
454.775	1	100
454.946	1	96
455.116	1	99
455.287	1	115
455.457	1	110
455.628	1	103
455.798	1	103
455.968	1	104
456.139	1	105
456.309	1	110
456.480	1	109
456.650	1	97
456.821	1	113
456.991	1	104
457.161	1	93
457.332	1	120
457.502	1	108
457.673	1	101
457.843	1	89
458.014	1	98
458.184	1	101
458.355	1	95
458.525	1	98
458.695	1	111
458.866	1	88
459.036	1	107
459.207	1	105
459.377	1	103
459.548	1	102
459.718	1	83
459.888	1	94
460.059	1	94
460.229	1	79
460.400	1	93
460.570	1	112
460.740	1	109
460.911	1	93
461.081	1	84
461.252	1	99
461.422	1	91
461.593	1	98
461.763	1	96
461.933	1	90
462.104	1	91
462.274	1	91
462.445	1	92
462.615	1	104
462.785	1	99
462.956	1	96
463.126	1	93
463.297	1	95
463.467	1	91
463.638	1	79
463.808	1	95
463.978	1	86
464.149	1	86
464.319	1	99
464.490	1	84
464.660	1	109
464.830	1	88
465.001	1	82
465.171	1	86
465.342	1	84
465.512	1	99
465.682	1	87
465.853	1	89
466.023	1	99
466.194	1	73
466.364	1	89
466.534	1	83
466.705	1	90
466.875	1	85
467.045	1	95
467.216	1	88
467.386	1	85
467.557	1	89
467.727	1	83
467.897	1	93
468.068	1	83
468.238	1	91
468.409	1	78
468.579	1	84
468.749	1	97
468.920	1	90
469.090	1	79
469.260	1	109
469.431	1	86
469.601	1	82
469.772	1	90
469.942	1	88
470.112	1	86
470.283	1	79
470.453	1	94
470.623	1	81
470.794	1	87
470.964	1	87
471.135	1	101
471.305	1	74
471.475	1	93
471.646	1	81
471.816	1	96
471.986	1	82
472.157	1	83
472.327	1	90
472.497	1	75
472.668	1	79
472.838	1	84
473.009	1	80
473.179	1	94
473.349	1	82
473.520	1	81
473.690	1	79
473.860	1	74
474.031	1	75
474.201	1	85
474.371	1	94
474.542	1	94
474.712	1	69
474.882	1	76
475.053	1	76
475.223	1	70
475.394	1	72
475.564	1	91
475.734	1	71
475.905	1	66
476.075	1	72
476.245	1	78
476.416	1	84
476.586	1	76
476.756	1	86
476.927	1	79
477.097	1	77
477.267	1	73
477.438	1	74
477.608	1	84
477.778	1	82
477.949	1	87
478.119	1	59
478.289	1	70
478.460	1	87
478.630	1	79
478.800	1	73
478.971	1	69
479.141	1	73
479.311	1	72
479.482	1	65
479.652	1	85
479.822	1	67
479.993	1	86
480.163	1	80
480.333	1	87
480.504	1	77
480.674	1	69
480.844	1	69
481.015	1	75
481.185	1	78
481.355	1	71
481.525	1	65
481.696	1	72
481.866	1	70
482.036	1	79
482.207	1	68
482.377	1	75
482.547	1	72
482.718	1	75
482.888	1	72
483.058	1	76
483.229	1	75
483.399	1	75
483.569	1	79
483.740	1	66
483.910	1	73
484.080	1	83
484.250	1	74
484.421	1	75
484.591	1	71
484.761	1	70
484.932	1	79
485.102	1	64
485.272	1	54
485.443	1	71
485.613	1	64
485.783	1	68
485.953	1	68
486.124	1	67
486.294	1	88
486.464	1	68
486.635	1	59
486.805	1	86
486.975	1	71
487.146	1	68
487.316	1	65
487.486	1	63
487.656	1	63
487.827	1	66
487.997	1	60
488.167	1	79
488.338	1	68
488.508	1	55
488.678	1	70
488.848	1	62
489.019	1	57
489.189	1	62
489.359	1	60
489.529	1	57
489.700	1	59
489.870	1	59
490.040	1	51
490.211	1	62
490.381	1	87
490.551	1	52
490.721	1	71
490.892	1	69
491.062	1	55
491.232	1	56
491.402	1	52
491.573	1	64
491.743	1	53
491.913	1	57
492.084	1	69
492.254	1	76
492.424	1	60
492.594	1	64
492.765	1	65
492.935	1	45
493.105	1	51
493.275	1	58
493.446	1	69
493.616	1	51
493.786	1	55
493.956	1	57
494.127	1	71
494.297	1	60
494.467	1	54
494.637	1	68
494.808	1	54
494.978	1	56
495.148	1	74
495.318	1	58
495.489	1	55
495.659	1	67
495.829	1	65
495.999	1	51
496.170	1	63
496.340	1	58
496.510	1	63
496.680	1	68
496.851	1	69
497.021	1	62
497.191	1	62
497.361	1	62
497.532	1	55
497.702	1	63
497.872	1	60
498.042	1	65
498.213	1	56
498.383	1	58
498.553	1	57
498.723	1	56
498.894	1	63
499.064	1	47
499.234	1	52
499.404	1	58
499.574	1	52
499.745	1	57
499.915	1	53
500.085	1	62
500.255	1	50
500.426	1	50
500.596	1	56
500.766	1	56
500.936	1	59
501.106	1	57
501.277	1	60
501.447	1	54
501.617	1	58
501.787	1	64
501.958	1	56
502.128	1	33
502.298	1	62
502.468	1	53
502.638	1	68
502.809	1	57
502.979	1	57
503.149	1	52
503.319	1	53
503.489	1	57
503.660	1	56
503.830	1	53
504.000	1	52
504.170	1	40
504.340	1	54
504.511	1	61
504.681	1	51
504.851	1	54
505.021	1	55
505.192	1	54
505.362	1	54
505.532	1	56
505.702	1	38
505.872	1	62
506.043	1	44
506.213	1	51
506.383	1	43
506.553	1	60
506.723	1	49
506.893	1	41
507.064	1	48
507.234	1	50
507.404	1	59
507.574	1	44
507.744	1	38
507.915	1	56
508.085	1	47
508.255	1	40
508.425	1	56
508.595	1	38
508.766	1	52
508.936	1	40
509.106	1	50
509.276	1	55
509.446	1	45
509.616	1	59
509.787	1	48
509.957	1	49
510.127	1	49
510.297	1	41
510.467	1	48
510.638	1	43
510.808	1	36
510.978	1	52
511.148	1	34
511.318	1	57
511.488	1	47
511.659	1	38
511.829	1	47
511.999	1	44
512.169	1	39
512.339	1	44
512.509	1	50
512.680	1	38
512.850	1	45
513.020	1	45
513.190	1	41
513.360	1	45
513.530	1	53
513.700	1	49
513.871	1	49
514.041	1	55
514.211	1	53
514.381	1	44
514.551	1	42
514.721	1	39
514.892	1	47
515.062	1	47
515.232	1	38
515.402	1	51
515.572	1	42
515.742	1	42
515.912	1	42
516.083	1	49
516.253	1	40
516.423	1	38
516.593	1	43
516.763	1	48
516.933	1	42
517.104	1	42
517.274	1	40
517.444	1	45
517.614	1	32
517.784	1	42
517.954	1	44
518.124	1	36
518.294	1	52
518.465	1	52
518.635	1	31
518.805	1	37
518.975	1	43
519.145	1	47
519.315	1	50
519.485	1	45
519.656	1	38
519.826	1	44
519.996	1	40
520.166	1	36
520.336	1	54
520.506	1	44
520.676	1	34
520.846	1	44
521.017	1	36
521.187	1	40
521.357	1	60
521.527	1	34
521.697	1	34
521.867	1	46
522.037	1	35
522.207	1	34
522.377	1	33
522.548	1	40
522.718	1	45
522.888	1	34
523.058	1	37
523.228	1	42
523.398	1	30
523.568	1	31
523.738	1	33
523.909	1	45
524.079	1	41
524.249	1	32
524.419	1	41
524.589	1	43
524.759	1	42
524.929	1	34
525.099	1	46
525.269	1	40
525.439	1	44
525.610	1	43
525.780	1	42
525.950	1	41
526.120	1	44
526.290	1	43
526.460	1	43
526.630	1	39
526.800	1	33
526.970	1	34
527.140	1	44
527.311	1	37
527.481	1	32
527.651	1	32
527.821	1	35
527.991	1	41
528.161	1	42
528.331	1	36
528.501	1	46
528.671	1	34
528.841	1	29
529.011	1	35
529.181	1	44
529.352	1	28
529.522	1	20
529.692	1	35
529.862	1	35
530.032	1	40
530.202	1	44
530.372	1	42
530.542	1	31
530.712	1	21
530.882	1	36
531.052	1	27
531.222	1	32
531.392	1	36
531.563	1	31
531.733	1	47
531.903	1	33
532.073	1	38
532.243	1	38
532.413	1	33
532.583	1	28
532.753	1	35
532.923	1	45
533.093	1	24
533.263	1	22
533.433	1	41
533.603	1	38
533.773	1	25
533.943	1	40
534.113	1	38
534.284	1	30
534.454	1	31
534.624	1	30
534.794	1	32
534.964	1	37
535.134	1	27
535.304	1	36
535.474	1	25
535.644	1	46
535.814	1	25
535.984	1	25
536.154	1	38
536.324	1	34
536.494	1	41
536.664	1	22
536.834	1	32
537.004	1	27
537.174	1	38
537.344	1	34
537.514	1	32
537.685	1	32
537.855	1	24
538.025	1	26
538.195	1	27
538.365	1	26
538.535	1	34
538.705	1	22
538.875	1	29
539.045	1	33
539.215	1	35
539.385	1	23
539.555	1	36
539.725	1	26
539.895	1	38
540.065	1	34
540.235	1	18
540.405	1	39
540.575	1	36
540.745	1	11
540.915	1	30
541.085	1	34
541.255	1	37
541.425	1	23
541.595	1	21
541.765	1	31
541.935	1	40
542.105	1	29
542.275	1	34
542.445	1	27
542.615	1	46
542.785	1	40
542.955	1	13
543.125	1	21
543.295	1	41
543.465	1	28
543.635	1	18
543.805	1	34
543.975	1	26
544.145	1	20
544.315	1	39
544.485	1	28
544.655	1	22
544.825	1	32
544.995	1	26
545.165	1	30
545.335	1	19
545.505	1	23
545.675	1	25
545.845	1	20
546.015	1	24
546.185	1	16
546.355	1	16
546.525	1	22
546.695	1	30
546.865	1	28
547.035	1	28
547.205	1	37
547.375	1	32
547.545	1	21
547.715	1	30
547.885	1	20
548.055	1	24
548.225	1	18
548.395	1	41
548.565	1	20
548.735	1	35
548.905	1	20
549.075	1	24
549.245	1	29
549.415	1	28
549.585	1	26
549.755	1	27
549.925	1	28
550.095	1	21
550.265	1	13
550.435	1	31
550.605	1	20
550.775	1	30
550.945	1	21
551.115	1	13
551.285	1	22
551.455	1	25
551.625	1	29
551.795	1	31
551.965	1	21
552.135	1	6
552.305	1	34
552.475	1	24
552.645	1	32
552.815	1	22
552.985	1	17
553.155	1	9
553.325	1	15
553.495	1	27
553.665	1	21
553.835	1	12
554.004	1	13
554.174	1	11
554.344	1	25
554.514	1	30
554.684	1	17
554.854	1	11
555.024	1	35
555.194	1	21
555.364	1	23
555.534	1	24
555.704	1	24
555.874	1	22
556.044	1	21
556.214	1	8
556.384	1	26
556.554	1	15
556.724	1	16
556.894	1	20
557.064	1	16
557.234	1	28
557.404	1	17
557.573	1	27
557.743	1	22
557.913	1	32
558.083	1	15
558.253	1	14
558.423	1	25
558.593	1	27
558.763	1	23
558.933	1	12
559.103	1	19
559.273	1	20
559.443	1	11
559.613	1	10
559.783	1	23
559.953	1	18
560.122	1	20
560.292	1	16
560.462	1	22
560.632	1	23
560.802	1	17
560.972	1	17
561.142	1	16
561.312	1	23
561.482	1	25
561.652	1	21
561.822	1	18
561.992	1	21
562.162	1	11
562.331	1	14
562.501	1	10
562.671	1	21
562.841	1	33
563.011	1	21
563.181	1	29
563.351	1	14
563.521	1	22
563.691	1	21
563.861	1	24
564.031	1	17
564.201	1	13
564.370	1	23
564.540	1	19
564.710	1	23
564.880	1	19
565.050	1	15
565.220	1	20
565.390	1	23
565.560	1	20
565.730	1	19
565.900	1	12
566.069	1	25
566.239	1	9
566.409	1	22
566.579	1	23
566.749	1	31
566.919	1	24
567.089	1	10
567.259	1	17
567.429	1	18
567.599	1	10
567.768	1	19
567.938	1	9
568.108	1	28
568.278	1	25
568.448	1	28
568.618	1	23
568.788	1	20
568.958	1	29
569.128	1	19
569.297	1	17
569.467	1	18
569.637	1	25
569.807	1	18
569.977	1	24
570.147	1	26
570.317	1	21
570.487	1	21
570.656	1	25
570.826	1	19
570.996	1	14
571.166	1	24
571.336	1	24
571.506	1	20
571.676	1	25
571.846	1	7
572.015	1	22
572.185	1	22
572.355	1	18
572.525	1	10
572.695	1	21
572.865	1	19
573.035	1	21
573.205	1	14
573.374	1	22
573.544	1	12
573.714	1	29
573.884	1	22
574.054	1	22
574.224	1	19
574.394	1	14
574.563	1	20
574.733	1	16
574.903	1	21
575.073	1	15
575.243	1	17
575.413	1	17
575.583	1	9
575.752	1	15
575.922	1	26
576.092	1	15
576.262	1	21
576.432	1	19
576.602	1	18
576.772	1	13
576.941	1	24
577.111	1	13
577.281	1	23
577.451	1	24
577.621	1	21
577.791	1	7
577.960	1	19
578.130	1	17
578.300	1	12
578.470	1	18
578.640	1	16
578.810	1	20
578.979	1	11
579.149	1	14
579.319	1	13
579.489	1	19
579.659	1	13
579.829	1	19
579.998	1	11
580.168	1	7
580.338	1	21
580.508	1	18
580.678	1	8
580.848	1	26
581.017	1	26
581.187	1	17
581.357	1	9
581.527	1	13
581.697	1	20
581.867	1	12
582.036	1	17
582.206	1	9
582.376	1	24
582.546	1	12
582.716	1	12
582.885	1	13
583.055	1	20
583.225	1	11
583.395	1	27
583.565	1	26
583.735	1	15
583.904	1	6
584.074	1	22
584.244	1	18
584.414	1	21
584.584	1	7
584.753	1	22
584.923	1	19
585.093	1	15
585.263	1	24
585.433	1	17
585.602	1	12
585.772	1	16
585.942	1	4
586.112	1	16
586.282	1	20
586.451	1	3
586.621	1	28
586.791	1	15
586.961	1	20
587.131	1	21
587.300	1	-9
587.470	1	8
587.640	1	14
587.810	1	16
587.980	1	22
588.149	1	20
588.319	1	23
588.489	1	30
588.659	1	10
588.829	1	14
588.998	1	15
589.168	1	16
589.338	1	11
589.508	1	22
589.677	1	18
589.847	1	15
590.017	1	20
590.187	1	18
590.357	1	24
590.526	1	32
590.696	1	25
590.866	1	17
591.036	1	15
591.205	1	6
591.375	1	15
591.545	1	15
591.715	1	18
591.885	1	15
592.054	1	16
592.224	1	19
592.394	1	15
592.564	1	14
592.733	1	15
592.903	1	18
593.073	1	13
593.243	1	21
593.412	1	15
593.582	1	29
593.752	1	21
593.922	1	12
594.091	1	21
594.261	1	14
594.431	1	6
594.601	1	14
594.771	1	7
594.940	1	17
595.110	1	20
595.280	1	17
595.450	1	16
595.619	1	10
595.789	1	15
595.959	1	22
596.129	1	16
596.298	1	30
596.468	1	23
596.638	1	23
596.808	1	18
596.977	1	24
597.147	1	22
597.317	1	9
597.487	1	15
597.656	1	13
597.826	1	12
597.996	1	20
598.166	1	22
598.335	1	22
598.505	1	16
598.675	1	9
598.844	1	17
599.014	1	23
599.184	1	32
599.354	1	3
599.523	1	13
599.693	1	23
599.863	1	15
600.033	1	12
600.202	1	12
600.372	1	22
600.542	1	17
600.712	1	23
600.881	1	17
601.051	1	11
601.221	1	21
601.390	1	22
601.560	1	10
601.730	1	28
601.900	1	8
602.069	1	19
602.239	1	3
602.409	1	22
602.578	1	4
602.748	1	21
602.918	1	3
603.088	1	25
603.257	1	20
603.427	1	10
603.597	1	12
603.767	1	22
603.936	1	18
604.106	1	20
604.276	1	9
604.445	1	12
604.615	1	7
604.785	1	21
604.954	1	28
605.124	1	9
605.294	1	14
605.464	1	22
605.633	1	29
605.803	1	14
605.973	1	17
606.142	1	15
606.312	1	11
606.482	1	15
606.652	1	22
606.821	1	29
606.991	1	18
607.161	1	32
607.330	1	10
607.500	1	17
607.670	1	4
607.839	1	27
608.009	1	14
608.179	1	22
608.348	1	31
608.518	1	14
608.688	1	18
608.858	1	10
609.027	1	22
609.197	1	17
609.367	1	18
609.536	1	14
609.706	1	12
609.876	1	12
610.045	1	19
610.215	1	18
610.385	1	23
610.554	1	8
610.724	1	19
610.894	1	14
611.063	1	1
611.233	1	26
611.403	1	20
611.572	1	17
611.742	1	9
611.912	1	8
612.081	1	25
612.251	1	16
612.421	1	25
612.590	1	9
612.760	1	22
612.930	1	10
613.099	1	25
613.269	1	25
613.439	1	18
613.608	1	24
613.778	1	19
613.948	1	21
614.117	1	20
614.287	1	17
614.457	1	16
614.626	1	12
614.796	1	10
614.966	1	19
615.135	1	17
615.305	1	23
615.475	1	16
615.644	1	30
615.814	1	10
615.984	1	18
616.153	1	10
616.323	1	11
616.493	1	25
616.662	1	37
616.832	1	17
617.002	1	26
617.171	1	20
617.341	1	12
617.511	1	23
617.680	1	13
617.850	1	20
618.019	1	19
618.189	1	24
618.359	1	15
618.528	1	32
618.698	1	15
618.868	1	32
619.037	1	19
619.207	1	15
619.377	1	25
619.546	1	18
619.716	1	10
619.885	1	38
620.055	1	15
620.225	1	16
620.394	1	23
620.564	1	25
620.734	1	19
620.903	1	23
621.073	1	22
621.242	1	17
621.412	1	22
621.582	1	14
621.751	1	17
621.921	1	18
622.091	1	12
622.260	1	21
622.430	1	23
622.599	1	24
622.769	1	22
622.939	1	17
623.108	1	16
623.278	1	24
623.448	1	10
623.617	1	26
623.787	1	17
623.956	1	9
624.126	1	27
624.296	1	21
624.465	1	16
624.635	1	14
624.804	1	19
624.974	1	22
625.144	1	28
625.313	1	19
625.483	1	16
625.652	1	23
625.822	1	19
625.992	1	26
626.161	1	13
626.331	1	22
626.501	1	11
626.670	1	10
626.840	1	16
627.009	1	16
627.179	1	24
627.348	1	23
627.518	1	27
627.688	1	23
627.857	1	15
628.027	1	22
628.196	1	19
628.366	1	15
628.536	1	27
628.705	1	23
628.875	1	28
629.044	1	12
629.214	1	18
629.384	1	25
629.553	1	29
629.723	1	11
629.892	1	22
630.062	1	34
630.232	1	11
630.401	1	20
630.571	1	20
630.740	1	17
630.910	1	11
631.079	1	14
631.249	1	12
631.419	1	32
631.588	1	16
631.758	1	16
631.927	1	20
632.097	1	29
632.266	1	19
632.436	1	14
632.606	1	23
632.775	1	25
632.945	1	16
633.114	1	27
633.284	1	11
633.453	1	25
633.623	1	31
633.793	1	21
633.962	1	18
634.132	1	38
634.301	1	26
634.471	1	27
634.640	1	29
634.810	1	27
634.979	1	19
635.149	1	19
635.319	1	19
635.488	1	19
635.658	1	20
635.827	1	25
635.997	1	24
636.166	1	34
636.336	1	25
636.505	1	27
636.675	1	21
636.845	1	18
637.014	1	19
637.184	1	26
637.353	1	27
637.523	1	21
637.692	1	26
637.862	1	20
638.031	1	34
638.201	1	37
638.370	1	23
638.540	1	31
638.710	1	33
638.879	1	17
639.049	1	36
639.218	1	26
639.388	1	29
639.557	1	29
639.727	1	22
639.896	1	27
640.066	1	20
640.235	1	20
640.405	1	17
640.574	1	34
640.744	1	26
640.914	1	26
641.083	1	19
641.253	1	19
641.422	1	27
641.592	1	14
641.761	1	30
641.931	1	18
642.100	1	26
642.270	1	32
642.439	1	19
642.609	1	27
642.778	1	29
642.948	1	19
643.117	1	27
643.287	1	18
643.456	1	9
643.626	1	34
643.795	1	32
643.965	1	18
644.134	1	21
644.304	1	43
644.473	1	23
644.643	1	20
644.812	1	29
644.982	1	16
645.151	1	12
645.321	1	9
645.490	1	33
645.660	1	21
645.829	1	26
645.999	1	30
646.168	1	27
646.338	1	28
646.507	1	18
646.677	1	30
646.846	1	39
647.016	1	21
647.185	1	21
647.355	1	29
647.524	1	24
647.694	1	27
647.863	1	27
648.033	1	23
648.202	1	31
648.372	1	25
648.541	1	23
648.711	1	23
648.880	1	20
649.050	1	27
649.219	1	15
649.389	1	32
649.558	1	23
649.728	1	27
649.897	1	29
650.067	1	20
650.236	1	44
650.406	1	18
650.575	1	26
650.745	1	26
650.914	1	25
651.084	1	28
651.253	1	32
651.423	1	20
651.592	1	26
651.762	1	31
651.931	1	20
652.101	1	27
652.270	1	25
652.440	1	26
652.609	1	29
652.778	1	27
652.948	1	26
653.117	1	50
653.287	1	21
653.456	1	37
653.626	1	28
653.795	1	25
653.965	1	36
654.134	1	21
654.304	1	29
654.473	1	35
654.643	1	31
654.812	1	25
654.982	1	38
655.151	1	31
655.320	1	25
655.490	1	24
655.659	1	22
655.829	1	21
655.998	1	42
656.168	1	19
656.337	1	29
656.507	1	24
656.676	1	30
656.846	1	26
657.015	1	34
657.184	1	21
657.354	1	27
657.523	1	25
657.693	1	16
657.862	1	35
658.032	1	15
658.201	1	17
658.371	1	40
658.540	1	36
658.709	1	31
658.879	1	28
659.048	1	16
659.218	1	31
659.387	1	38
659.557	1	29
659.726	1	44
659.895	1	40
660.065	1	20
660.234	1	34
660.404	1	51
660.573	1	26
660.743	1	35
660.912	1	42
661.081	1	21
661.251	1	28
661.420	1	38
661.590	1	24
661.759	1	41
661.929	1	41
662.098	1	29
662.267	1	36
662.437	1	36
662.606	1	23
662.776	1	35
662.945	1	35
663.115	1	8
663.284	1	25
663.453	1	25
663.623	1	26
663.792	1	30
663.962	1	19
664.131	1	20
664.300	1	36
664.470	1	26
664.639	1	33
664.809	1	37
664.978	1	35
665.148	1	38
665.317	1	29
665.486	1	33
665.656	1	29
665.825	1	34
665.995	1	35
666.164	1	39
666.333	1	33
666.503	1	46
666.672	1	33
666.842	1	20
667.011	1	29
667.180	1	28
667.350	1	33
667.519	1	15
667.689	1	31
667.858	1	44
668.027	1	27
668.197	1	40
668.366	1	46
668.536	1	16
668.705	1	42
668.874	1	33
669.044	1	20
669.213	1	31
669.382	1	56
669.552	1	30
669.721	1	28
669.891	1	35
670.060	1	29
670.229	1	41
670.399	1	35
670.568	1	38
670.738	1	25
670.907	1	40
671.076	1	44
671.246	1	6
671.415	1	31
671.584	1	24
671.754	1	25
671.923	1	26
672.093	1	30
672.262	1	29
672.431	1	42
672.601	1	34
672.770	1	22
672.939	1	31
673.109	1	41
673.278	1	33
673.448	1	33
673.617	1	34
673.786	1	20
