325.333	1	0
325.504	1	11
325.675	1	11
325.846	1	-6
326.017	1	3
326.188	1	8
326.359	1	8
326.531	1	5
326.702	1	11
326.873	1	13
327.044	1	-1
327.215	1	4
327.386	1	1
327.557	1	12
327.728	1	-9
327.899	1	7
328.070	1	7
328.241	1	6
328.412	1	2
328.583	1	12
328.754	1	-2
328.926	1	-6
329.097	1	5
329.268	1	6
329.439	1	-2
329.610	1	8
329.781	1	12
329.952	1	6
330.123	1	-5
330.294	1	7
330.465	1	22
330.636	1	0
330.807	1	4
330.978	1	8
331.149	1	0
331.320	1	-1
331.492	1	7
331.663	1	4
331.834	1	6
332.005	1	-2
332.176	1	2
332.347	1	10
332.518	1	0
332.689	1	10
332.860	1	-3
333.031	1	5
333.202	1	7
333.373	1	5
333.544	1	-1
333.715	1	4
333.886	1	0
334.057	1	-4
334.228	1	4
334.399	1	9
334.570	1	8
334.741	1	10
334.912	1	9
335.084	1	6
335.255	1	5
335.426	1	-2
335.597	1	8
335.768	1	1
335.939	1	0
336.110	1	6
336.281	1	-3
336.452	1	15
336.623	1	3
336.794	1	4
336.965	1	-4
337.136	1	-2
337.307	1	15
337.478	1	4
337.649	1	1
337.820	1	3
337.991	1	17
338.162	1	5
338.333	1	2
338.504	1	2
338.675	1	3
338.846	1	7
339.017	1	2
339.188	1	12
339.359	1	3
339.530	1	6
339.701	1	2
339.872	1	8
340.043	1	15
340.214	1	11
340.385	1	15
340.556	1	15
340.727	1	-13
340.898	1	4
341.069	1	9
341.240	1	10
341.411	1	12
341.582	1	11
341.753	1	5
341.924	1	9
342.095	1	8
342.266	1	6
342.437	1	7
342.608	1	-5
342.779	1	6
342.950	1	8
343.121	1	4
343.292	1	5
343.463	1	10
343.634	1	15
343.805	1	6
343.976	1	4
344.147	1	9
344.318	1	1
344.489	1	2
344.660	1	10
344.831	1	1
345.002	1	-1
345.173	1	7
345.344	1	2
345.515	1	8
345.686	1	5
345.857	1	6
346.028	1	22
346.199	1	4
346.370	1	6
346.541	1	18
346.712	1	3
346.883	1	12
347.054	1	-3
347.225	1	4
347.396	1	10
347.567	1	12
347.738	1	11
347.909	1	4
348.080	1	14
348.251	1	-3
348.422	1	17
348.593	1	14
348.764	1	6
348.935	1	13
349.106	1	3
349.277	1	23
349.448	1	5
349.619	1	21
349.790	1	13
349.961	1	19
350.132	1	6
350.303	1	14
350.474	1	12
350.645	1	2
350.816	1	14
350.987	1	-1
351.157	1	8
351.328	1	8
351.499	1	5
351.670	1	12
351.841	1	4
352.012	1	6
352.183	1	1
352.354	1	9
352.525	1	4
352.696	1	10
352.867	1	4
353.038	1	12
353.209	1	20
353.380	1	7
353.551	1	15
353.722	1	9
353.893	1	2
354.064	1	9
354.235	1	10
354.406	1	8
354.576	1	5
354.747	1	16
354.918	1	17
355.089	1	12
355.260	1	19
355.431	1	7
355.602	1	4
355.773	1	11
355.944	1	12
356.115	1	-3
356.286	1	11
356.457	1	11
356.628	1	21
356.799	1	5
356.970	1	11
357.141	1	16
357.311	1	20
357.482	1	1
357.653	1	3
357.824	1	20
357.995	1	8
358.166	1	11
358.337	1	7
358.508	1	11
358.679	1	11
358.850	1	9
359.021	1	14
359.192	1	8
359.363	1	6
359.533	1	4
359.704	1	11
359.875	1	27
360.046	1	12
360.217	1	19
360.388	1	7
360.559	1	18
360.730	1	1
360.901	1	11
361.072	1	5
361.243	1	12
361.414	1	0
361.584	1	12
361.755	1	18
361.926	1	7
362.097	1	11
362.268	1	11
362.439	1	7
362.610	1	3
362.781	1	14
362.952	1	13
363.123	1	24
363.293	1	11
363.464	1	15
363.635	1	17
363.806	1	11
363.977	1	6
364.148	1	3
364.319	1	10
364.490	1	14
364.661	1	11
364.832	1	15
365.002	1	9
365.173	1	14
365.344	1	8
365.515	1	17
365.686	1	13
365.857	1	13
366.028	1	11
366.199	1	16
366.370	1	12
366.540	1	20
366.711	1	18
366.882	1	10
367.053	1	14
367.224	1	0
367.395	1	12
367.566	1	21
367.737	1	26
367.908	1	4
368.078	1	27
368.249	1	11
368.420	1	14
368.591	1	12
368.762	1	9
368.933	1	3
369.104	1	11
369.274	1	14
369.445	1	15
369.616	1	11
369.787	1	16
369.958	1	19
370.129	1	14
370.300	1	11
370.471	1	19
370.641	1	13
370.812	1	13
370.983	1	14
371.154	1	22
371.325	1	8
371.496	1	8
371.667	1	19
371.837	1	18
372.008	1	16
372.179	1	14
372.350	1	20
372.521	1	14
372.692	1	12
372.863	1	11
373.033	1	18
373.204	1	15
373.375	1	14
373.546	1	23
373.717	1	11
373.888	1	5
374.059	1	27
374.229	1	15
374.400	1	7
374.571	1	23
374.742	1	8
374.913	1	4
375.084	1	17
375.254	1	28
375.425	1	0
375.596	1	13
375.767	1	12
375.938	1	22
376.109	1	2
376.279	1	1
376.450	1	17
376.621	1	21
376.792	1	13
376.963	1	11
377.134	1	17
377.304	1	11
377.475	1	17
377.646	1	14
377.817	1	8
377.988	1	5
378.159	1	12
378.329	1	18
378.500	1	16
378.671	1	14
378.842	1	11
379.013	1	17
379.184	1	16
379.354	1	2
379.525	1	15
379.696	1	9
379.867	1	14
380.038	1	5
380.209	1	12
380.379	1	15
380.550	1	17
380.721	1	21
380.892	1	13
381.063	1	18
381.233	1	12
381.404	1	12
381.575	1	15
381.746	1	20
381.917	1	1
382.087	1	16
382.258	1	12
382.429	1	22
382.600	1	16
382.771	1	28
382.941	1	20
383.112	1	10
383.283	1	15
383.454	1	18
383.625	1	15
383.795	1	20
383.966	1	14
384.137	1	17
384.308	1	28
384.479	1	17
384.649	1	18
384.820	1	11
384.991	1	20
385.162	1	14
385.333	1	24
385.503	1	15
385.674	1	15
385.845	1	22
386.016	1	17
386.187	1	9
386.357	1	22
386.528	1	6
386.699	1	17
386.870	1	19
387.041	1	4
387.211	1	14
387.382	1	10
387.553	1	21
387.724	1	19
387.894	1	12
388.065	1	18
388.236	1	12
388.407	1	19
388.578	1	2
388.748	1	12
388.919	1	22
389.090	1	25
389.261	1	28
389.431	1	27
389.602	1	17
389.773	1	12
389.944	1	12
390.114	1	26
390.285	1	14
390.456	1	6
390.627	1	11
390.798	1	31
390.968	1	19
391.139	1	10
391.310	1	18
391.481	1	8
391.651	1	21
391.822	1	8
391.993	1	18
392.164	1	0
392.334	1	23
392.505	1	12
392.676	1	21
392.847	1	23
393.017	1	23
393.188	1	6
393.359	1	19
393.530	1	20
393.700	1	20
393.871	1	17
394.042	1	10
394.213	1	14
394.383	1	23
394.554	1	11
394.725	1	17
394.896	1	22
395.066	1	20
395.237	1	9
395.408	1	11
395.579	1	18
395.749	1	16
395.920	1	14
396.091	1	12
396.262	1	27
396.432	1	16
396.603	1	14
396.774	1	18
396.945	1	17
397.115	1	24
397.286	1	10
397.457	1	18
397.627	1	19
397.798	1	12
397.969	1	12
398.140	1	27
398.310	1	21
398.481	1	21
398.652	1	15
398.823	1	21
398.993	1	28
399.164	1	23
399.335	1	12
399.505	1	8
399.676	1	19
399.847	1	19
400.018	1	18
400.188	1	15
400.359	1	18
400.530	1	16
400.700	1	19
400.871	1	29
401.042	1	16
401.213	1	7
401.383	1	22
401.554	1	14
401.725	1	17
401.895	1	19
402.066	1	21
402.237	1	22
402.408	1	20
402.578	1	17
402.749	1	15
402.920	1	13
403.090	1	22
403.261	1	24
403.432	1	16
403.603	1	16
403.773	1	26
403.944	1	21
404.115	1	19
404.285	1	14
404.456	1	18
404.627	1	13
404.797	1	13
404.968	1	33
405.139	1	21
405.310	1	14
405.480	1	11
405.651	1	29
405.822	1	15
405.992	1	13
406.163	1	23
406.334	1	9
406.504	1	15
406.675	1	11
406.846	1	29
407.016	1	15
407.187	1	19
407.358	1	24
407.528	1	14
407.699	1	22
407.870	1	10
408.041	1	20
408.211	1	17
408.382	1	15
408.553	1	19
408.723	1	19
408.894	1	27
409.065	1	19
409.235	1	16
409.406	1	16
409.577	1	30
409.747	1	21
409.918	1	15
410.089	1	20
410.259	1	18
410.430	1	15
410.601	1	16
410.771	1	22
410.942	1	31
411.113	1	16
411.283	1	20
411.454	1	17
411.625	1	18
411.795	1	22
411.966	1	26
412.137	1	13
412.307	1	27
412.478	1	21
412.649	1	25
412.819	1	13
412.990	1	17
413.161	1	18
413.331	1	27
413.502	1	23
413.672	1	20
413.843	1	27
414.014	1	18
414.184	1	20
414.355	1	29
414.526	1	23
414.696	1	22
414.867	1	25
415.038	1	15
415.208	1	14
415.379	1	11
415.550	1	23
415.720	1	19
415.891	1	16
416.062	1	24
416.232	1	8
416.403	1	23
416.573	1	22
416.744	1	22
416.915	1	22
417.085	1	21
417.256	1	15
417.427	1	22
417.597	1	15
417.768	1	3
417.939	1	26
418.109	1	17
418.280	1	21
418.450	1	15
418.621	1	14
418.792	1	16
418.962	1	19
419.133	1	16
419.304	1	18
419.474	1	19
419.645	1	14
419.815	1	15
419.986	1	17
420.157	1	13
420.327	1	24
420.498	1	11
420.669	1	25
420.839	1	14
421.010	1	25
421.180	1	21
421.351	1	24
421.522	1	11
421.692	1	20
421.863	1	23
422.033	1	29
422.204	1	17
422.375	1	21
422.545	1	14
422.716	1	13
422.886	1	16
423.057	1	10
423.228	1	16
423.398	1	28
423.569	1	24
423.740	1	13
423.910	1	8
424.081	1	16
424.251	1	18
424.422	1	28
424.593	1	19
424.763	1	20
424.934	1	7
425.104	1	22
425.275	1	14
425.445	1	18
425.616	1	14
425.787	1	12
425.957	1	24
426.128	1	12
426.298	1	4
426.469	1	14
426.640	1	24
426.810	1	21
426.981	1	24
427.151	1	21
427.322	1	25
427.493	1	18
427.663	1	13
427.834	1	22
428.004	1	11
428.175	1	18
428.345	1	5
428.516	1	19
428.687	1	17
428.857	1	18
429.028	1	13
429.198	1	11
429.369	1	16
429.540	1	12
429.710	1	14
429.881	1	8
430.051	1	11
430.222	1	20
430.392	1	11
430.563	1	27
430.734	1	17
430.904	1	15
431.075	1	16
431.245	1	5
431.416	1	14
431.586	1	14
431.757	1	25
431.927	1	17
432.098	1	19
432.269	1	16
432.439	1	25
432.610	1	20
432.780	1	18
432.951	1	17
433.121	1	26
433.292	1	8
433.462	1	18
433.633	1	16
433.804	1	22
433.974	1	10
434.145	1	13
434.315	1	17
434.486	1	11
434.656	1	12
434.827	1	15
434.997	1	17
435.168	1	21
435.339	1	15
435.509	1	27
435.680	1	19
435.850	1	9
436.021	1	16
436.191	1	18
436.362	1	10
436.532	1	24
436.703	1	18
436.873	1	33
437.044	1	15
437.214	1	28
437.385	1	13
437.556	1	17
437.726	1	11
437.897	1	6
438.067	1	11
438.238	1	13
438.408	1	14
438.579	1	23
438.749	1	14
438.920	1	10
439.090	1	11
439.261	1	17
439.431	1	11
439.602	1	10
439.772	1	18
439.943	1	18
440.113	1	16
440.284	1	13
440.455	1	14
440.625	1	25
440.796	1	13
440.966	1	12
441.137	1	14
441.307	1	27
441.478	1	14
441.648	1	15
441.819	1	15
441.989	1	19
442.160	1	1
442.330	1	8
442.501	1	18
442.671	1	11
442.842	1	15
443.012	1	16
443.183	1	16
443.353	1	9
443.524	1	17
443.694	1	9
443.865	1	11
444.035	1	0
444.206	1	19
444.376	1	15
444.547	1	10
444.717	1	17
444.888	1	9
445.058	1	32
445.229	1	14
445.399	1	23
445.570	1	27
445.740	1	26
445.911	1	2
446.081	1	21
446.252	1	21
446.422	1	13
446.593	1	14
446.763	1	21
446.934	1	10
447.104	1	14
447.275	1	8
447.445	1	15
447.616	1	11
447.786	1	16
447.957	1	14
448.127	1	17
448.298	1	0
448.468	1	14
448.639	1	19
448.809	1	16
448.979	1	8
449.150	1	14
449.320	1	9
449.491	1	-3
449.661	1	9
449.832	1	0
450.002	1	1
450.173	1	14
450.343	1	20
450.514	1	19
450.684	1	13
450.855	1	18
451.025	1	15
451.196	1	10
451.366	1	19
451.537	1	18
451.707	1	18
451.878	1	9
452.048	1	18
452.218	1	20
452.389	1	17
452.559	1	18
452.730	1	9
452.900	1	15
453.071	1	19
453.241	1	10
453.412	1	16
453.582	1	11
453.753	1	6
453.923	1	11
454.093	1	13
454.264	1	15
454.434	1	10
454.605	1	11
454.775	1	6
454.946	1	9
455.116	1	17
455.287	1	15
455.457	1	23
455.628	1	-1
455.798	1	11
455.968	1	11
456.139	1	17
456.309	1	25
456.480	1	10
456.650	1	9
456.821	1	18
456.991	1	15
457.161	1	12
457.332	1	13
457.502	1	18
457.673	1	18
457.843	1	8
458.014	1	17
458.184	1	11
458.355	1	8
458.525	1	13
458.695	1	16
458.866	1	15
459.036	1	26
459.207	1	17
459.377	1	19
459.548	1	15
459.718	1	10
459.888	1	18
460.059	1	19
460.229	1	7
460.400	1	11
460.570	1	19
460.740	1	13
460.911	1	14
461.081	1	8
461.252	1	10
461.422	1	10
461.593	1	15
461.763	1	12
461.933	1	13
462.104	1	16
462.274	1	17
462.445	1	13
462.615	1	25
462.785	1	21
462.956	1	19
463.126	1	19
463.297	1	17
463.467	1	18
463.638	1	11
463.808	1	7
463.978	1	7
464.149	1	17
464.319	1	1
464.490	1	10
464.660	1	15
464.830	1	12
465.001	1	3
465.171	1	1
465.342	1	6
465.512	1	9
465.682	1	7
465.853	1	15
466.023	1	25
466.194	1	-2
466.364	1	10
466.534	1	-1
466.705	1	8
466.875	1	6
467.045	1	17
467.216	1	2
467.386	1	16
467.557	1	26
467.727	1	16
467.897	1	32
468.068	1	10
468.238	1	3
468.409	1	19
468.579	1	15
468.749	1	18
468.920	1	22
469.090	1	-5
469.260	1	19
469.431	1	3
469.601	1	14
469.772	1	7
469.942	1	17
470.112	1	18
470.283	1	14
470.453	1	12
470.623	1	13
470.794	1	6
470.964	1	19
471.135	1	21
471.305	1	11
471.475	1	17
471.646	1	13
471.816	1	10
471.986	1	4
472.157	1	0
472.327	1	4
472.497	1	6
472.668	1	8
472.838	1	14
473.009	1	14
473.179	1	18
473.349	1	8
473.520	1	0
473.690	1	13
473.860	1	11
474.031	1	12
474.201	1	11
474.371	1	27
474.542	1	19
474.712	1	13
474.882	1	8
475.053	1	-3
475.223	1	3
475.394	1	-2
475.564	1	16
475.734	1	10
475.905	1	9
476.075	1	3
476.245	1	3
476.416	1	2
476.586	1	16
476.756	1	10
476.927	1	9
477.097	1	15
477.267	1	12
477.438	1	-1
477.608	1	9
477.778	1	8
477.949	1	27
478.119	1	3
478.289	1	4
478.460	1	13
478.630	1	11
478.800	1	15
478.971	1	-2
479.141	1	16
479.311	1	8
479.482	1	0
479.652	1	16
479.822	1	0
479.993	1	17
480.163	1	2
480.333	1	20
480.504	1	9
480.674	1	-1
480.844	1	0
481.015	1	20
481.185	1	12
481.355	1	7
481.525	1	-5
481.696	1	11
481.866	1	6
482.036	1	6
482.207	1	5
482.377	1	12
482.547	1	3
482.718	1	7
482.888	1	-4
483.058	1	20
483.229	1	14
483.399	1	11
483.569	1	5
483.740	1	9
483.910	1	22
484.080	1	23
484.250	1	3
484.421	1	17
484.591	1	7
484.761	1	11
484.932	1	19
485.102	1	-5
485.272	1	6
485.443	1	6
485.613	1	2
485.783	1	2
485.953	1	-10
486.124	1	10
486.294	1	8
486.464	1	12
486.635	1	5
486.805	1	25
486.975	1	1
487.146	1	6
487.316	1	3
487.486	1	6
487.656	1	16
487.827	1	7
487.997	1	7
488.167	1	18
488.338	1	12
488.508	1	13
488.678	1	5
488.848	1	6
489.019	1	3
489.189	1	-2
489.359	1	3
489.529	1	9
489.700	1	2
489.870	1	11
490.040	1	-2
490.211	1	2
490.381	1	29
490.551	1	4
490.721	1	19
490.892	1	14
491.062	1	-4
491.232	1	6
491.402	1	9
491.573	1	10
491.743	1	-4
491.913	1	10
492.084	1	6
492.254	1	17
492.424	1	2
492.594	1	8
492.765	1	10
492.935	1	1
493.105	1	4
493.275	1	17
493.446	1	11
493.616	1	0
493.786	1	6
493.956	1	3
494.127	1	9
494.297	1	11
494.467	1	0
494.637	1	17
494.808	1	7
494.978	1	11
495.148	1	15
495.318	1	-2
495.489	1	11
495.659	1	14
495.829	1	12
495.999	1	9
496.170	1	4
496.340	1	5
496.510	1	18
496.680	1	9
496.851	1	12
497.021	1	18
497.191	1	9
497.361	1	10
497.532	1	12
497.702	1	8
497.872	1	10
498.042	1	12
498.213	1	-1
498.383	1	10
498.553	1	10
498.723	1	10
498.894	1	14
499.064	1	6
499.234	1	5
499.404	1	4
499.574	1	12
499.745	1	6
499.915	1	6
500.085	1	-1
500.255	1	7
500.426	1	1
500.596	1	18
500.766	1	4
500.936	1	6
501.106	1	0
501.277	1	12
501.447	1	-9
501.617	1	8
501.787	1	13
501.958	1	-6
502.128	1	1
502.298	1	21
502.468	1	8
502.638	1	15
502.809	1	8
502.979	1	13
503.149	1	10
503.319	1	9
503.489	1	4
503.660	1	8
503.830	1	20
504.000	1	2
504.170	1	10
504.340	1	-1
504.511	1	6
504.681	1	-8
504.851	1	-1
505.021	1	12
505.192	1	2
505.362	1	14
505.532	1	6
505.702	1	5
505.872	1	8
506.043	1	-9
506.213	1	3
506.383	1	-1
506.553	1	16
506.723	1	2
506.893	1	8
507.064	1	12
507.234	1	10
507.404	1	12
507.574	1	9
507.744	1	-2
507.915	1	14
508.085	1	6
508.255	1	-1
508.425	1	3
508.595	1	-2
508.766	1	13
508.936	1	6
509.106	1	13
509.276	1	11
509.446	1	1
509.616	1	25
509.787	1	7
509.957	1	4
510.127	1	7
510.297	1	4
510.467	1	6
510.638	1	5
510.808	1	5
510.978	1	6
511.148	1	1
511.318	1	18
511.488	1	-3
511.659	1	-12
511.829	1	0
511.999	1	6
512.169	1	-1
512.339	1	10
512.509	1	10
512.680	1	-1
512.850	1	12
513.020	1	-1
513.190	1	5
513.360	1	6
513.530	1	19
513.700	1	14
513.871	1	7
514.041	1	8
514.211	1	14
514.381	1	1
514.551	1	3
514.721	1	5
514.892	1	1
515.062	1	-2
515.232	1	3
515.402	1	18
515.572	1	3
515.742	1	8
515.912	1	14
516.083	1	0
516.253	1	-2
516.423	1	7
516.593	1	7
516.763	1	2
516.933	1	3
517.104	1	5
517.274	1	8
517.444	1	7
517.614	1	1
517.784	1	5
517.954	1	0
518.124	1	-3
518.294	1	8
518.465	1	7
518.635	1	-6
518.805	1	4
518.975	1	13
519.145	1	7
519.315	1	5
519.485	1	-2
519.656	1	8
519.826	1	9
519.996	1	0
520.166	1	9
520.336	1	21
520.506	1	10
520.676	1	1
520.846	1	16
521.017	1	-1
521.187	1	4
521.357	1	8
521.527	1	6
521.697	1	-2
521.867	1	-4
522.037	1	-3
522.207	1	2
522.377	1	4
522.548	1	6
522.718	1	9
522.888	1	3
523.058	1	1
523.228	1	6
523.398	1	-5
523.568	1	-3
523.738	1	1
523.909	1	2
524.079	1	6
524.249	1	2
524.419	1	9
524.589	1	15
524.759	1	10
524.929	1	0
525.099	1	9
525.269	1	4
525.439	1	5
525.610	1	4
525.780	1	14
525.950	1	5
526.120	1	9
526.290	1	10
526.460	1	-1
526.630	1	9
526.800	1	8
526.970	1	0
527.140	1	15
527.311	1	-2
527.481	1	1
527.651	1	-1
527.821	1	0
527.991	1	5
528.161	1	4
528.331	1	2
528.501	1	11
528.671	1	13
528.841	1	6
529.011	1	0
529.181	1	16
529.352	1	1
529.522	1	-12
529.692	1	-3
529.862	1	4
530.032	1	3
530.202	1	9
530.372	1	0
530.542	1	12
530.712	1	1
530.882	1	3
531.052	1	12
531.222	1	-2
531.392	1	-3
531.563	1	-3
531.733	1	6
531.903	1	0
532.073	1	4
532.243	1	1
532.413	1	13
532.583	1	-3
532.753	1	9
532.923	1	7
533.093	1	1
533.263	1	1
533.433	1	7
533.603	1	3
533.773	1	5
533.943	1	7
534.113	1	5
534.284	1	10
534.454	1	2
534.624	1	2
534.794	1	-2
534.964	1	2
535.134	1	3
535.304	1	6
535.474	1	-5
535.644	1	19
535.814	1	1
535.984	1	2
536.154	1	0
536.324	1	-2
536.494	1	4
536.664	1	0
536.834	1	-2
537.004	1	0
537.174	1	12
537.344	1	10
537.514	1	6
537.685	1	2
537.855	1	0
538.025	1	13
538.195	1	5
538.365	1	10
538.535	1	3
538.705	1	2
538.875	1	7
539.045	1	0
539.215	1	0
539.385	1	-2
539.555	1	-7
539.725	1	3
539.895	1	4
540.065	1	-3
540.235	1	-3
540.405	1	11
540.575	1	9
540.745	1	1
540.915	1	3
541.085	1	9
541.255	1	16
541.425	1	-7
541.595	1	-3
541.765	1	2
541.935	1	15
542.105	1	0
542.275	1	-2
542.445	1	3
542.615	1	7
542.785	1	10
542.955	1	-2
543.125	1	3
543.295	1	9
543.465	1	-3
543.635	1	-5
543.805	1	7
543.975	1	-4
544.145	1	14
544.315	1	1
544.485	1	4
544.655	1	5
544.825	1	2
544.995	1	7
545.165	1	9
545.335	1	-6
545.505	1	3
545.675	1	6
545.845	1	-3
546.015	1	12
546.185	1	-9
546.355	1	4
546.525	1	5
546.695	1	-1
546.865	1	2
547.035	1	1
547.205	1	11
547.375	1	14
547.545	1	2
547.715	1	8
547.885	1	2
548.055	1	0
548.225	1	0
548.395	1	17
548.565	1	3
548.735	1	4
548.905	1	6
549.075	1	10
549.245	1	2
549.415	1	0
549.585	1	5
549.755	1	6
549.925	1	9
550.095	1	-8
550.265	1	-3
550.435	1	0
550.605	1	3
550.775	1	4
550.945	1	-2
551.115	1	8
551.285	1	-1
551.455	1	-3
551.625	1	-4
551.795	1	6
551.965	1	7
552.135	1	-9
552.305	1	6
552.475	1	9
552.645	1	14
552.815	1	8
552.985	1	-4
553.155	1	0
553.325	1	-3
553.495	1	2
553.665	1	8
553.835	1	1
554.004	1	-1
554.174	1	-1
554.344	1	6
554.514	1	5
554.684	1	-1
554.854	1	2
555.024	1	10
555.194	1	8
555.364	1	7
555.534	1	11
555.704	1	-1
555.874	1	5
556.044	1	4
556.214	1	-9
556.384	1	5
556.554	1	-4
556.724	1	-3
556.894	1	2
557.064	1	-2
557.234	1	11
557.404	1	9
557.573	1	6
557.743	1	5
557.913	1	6
558.083	1	-8
558.253	1	3
558.423	1	8
558.593	1	6
558.763	1	5
558.933	1	5
559.103	1	4
559.273	1	6
559.443	1	-1
559.613	1	2
559.783	1	-4
559.953	1	-9
560.122	1	2
560.292	1	-3
560.462	1	5
560.632	1	2
560.802	1	-5
560.972	1	8
561.142	1	5
561.312	1	5
561.482	1	6
561.652	1	6
561.822	1	7
561.992	1	-5
562.162	1	-5
562.331	1	-12
562.501	1	-8
562.671	1	15
562.841	1	7
563.011	1	9
563.181	1	14
563.351	1	-1
563.521	1	3
563.691	1	8
563.861	1	7
564.031	1	5
564.201	1	0
564.370	1	11
564.540	1	9
564.710	1	5
564.880	1	10
565.050	1	-2
565.220	1	-5
565.390	1	7
565.560	1	4
565.730	1	8
565.900	1	-7
566.069	1	12
566.239	1	0
566.409	1	3
566.579	1	1
566.749	1	12
566.919	1	-2
567.089	1	-5
567.259	1	6
567.429	1	8
567.599	1	3
567.768	1	-1
567.938	1	-4
568.108	1	10
568.278	1	1
568.448	1	14
568.618	1	7
568.788	1	9
568.958	1	15
569.128	1	7
569.297	1	0
569.467	1	4
569.637	1	1
569.807	1	8
569.977	1	9
570.147	1	-1
570.317	1	10
570.487	1	1
570.656	1	-1
570.826	1	12
570.996	1	-4
571.166	1	4
571.336	1	4
571.506	1	11
571.676	1	13
571.846	1	0
572.015	1	3
572.185	1	9
572.355	1	3
572.525	1	-4
572.695	1	3
572.865	1	-5
573.035	1	6
573.205	1	-10
573.374	1	0
573.544	1	4
573.714	1	19
573.884	1	6
574.054	1	4
574.224	1	3
574.394	1	-1
574.563	1	1
574.733	1	4
574.903	1	7
575.073	1	2
575.243	1	0
575.413	1	14
575.583	1	2
575.752	1	0
575.922	1	0
576.092	1	8
576.262	1	3
576.432	1	5
576.602	1	-7
576.772	1	0
576.941	1	8
577.111	1	16
577.281	1	-1
577.451	1	7
577.621	1	6
577.791	1	-4
577.960	1	3
578.130	1	-5
578.300	1	10
578.470	1	3
578.640	1	0
578.810	1	6
578.979	1	10
579.149	1	-4
579.319	1	9
579.489	1	-2
579.659	1	-2
579.829	1	-5
579.998	1	3
580.168	1	4
580.338	1	8
580.508	1	3
580.678	1	-4
580.848	1	6
581.017	1	14
581.187	1	3
581.357	1	1
581.527	1	7
581.697	1	6
581.867	1	-3
582.036	1	1
582.206	1	6
582.376	1	-3
582.546	1	-1
582.716	1	-3
582.885	1	5
583.055	1	1
583.225	1	-2
583.395	1	1
583.565	1	20
583.735	1	-2
583.904	1	-1
584.074	1	0
584.244	1	6
584.414	1	-4
584.584	1	-2
584.753	1	10
584.923	1	5
585.093	1	-1
585.263	1	5
585.433	1	1
585.602	1	10
585.772	1	-1
585.942	1	-2
586.112	1	7
586.282	1	-7
586.451	1	-10
586.621	1	2
586.791	1	2
586.961	1	8
587.131	1	11
587.300	1	-5
587.470	1	5
587.640	1	-4
587.810	1	-5
587.980	1	12
588.149	1	6
588.319	1	4
588.489	1	9
588.659	1	1
588.829	1	10
588.998	1	7
589.168	1	3
589.338	1	5
589.508	1	13
589.677	1	-3
589.847	1	1
590.017	1	1
590.187	1	-8
590.357	1	8
590.526	1	12
590.696	1	12
590.866	1	8
591.036	1	3
591.205	1	-12
591.375	1	2
591.545	1	-4
591.715	1	9
591.885	1	8
592.054	1	6
592.224	1	-2
592.394	1	9
592.564	1	2
592.733	1	7
592.903	1	-6
593.073	1	-4
593.243	1	12
593.412	1	2
593.582	1	4
593.752	1	8
593.922	1	-1
594.091	1	7
594.261	1	-2
594.431	1	0
594.601	1	5
594.771	1	-6
594.940	1	1
595.110	1	1
595.280	1	10
595.450	1	-5
595.619	1	8
595.789	1	-7
595.959	1	-8
596.129	1	3
596.298	1	3
596.468	1	3
596.638	1	6
596.808	1	15
596.977	1	6
597.147	1	11
597.317	1	8
597.487	1	2
597.656	1	7
597.826	1	0
597.996	1	5
598.166	1	-3
598.335	1	6
598.505	1	4
598.675	1	4
598.844	1	3
599.014	1	-4
599.184	1	10
599.354	1	-2
599.523	1	3
599.693	1	5
599.863	1	-3
600.033	1	4
600.202	1	-1
600.372	1	0
600.542	1	10
600.712	1	7
600.881	1	7
601.051	1	2
601.221	1	6
601.390	1	9
601.560	1	-1
601.730	1	1
601.900	1	9
602.069	1	-5
602.239	1	-14
602.409	1	9
602.578	1	-3
602.748	1	12
602.918	1	-8
603.088	1	7
603.257	1	12
603.427	1	-3
603.597	1	9
603.767	1	6
603.936	1	21
604.106	1	7
604.276	1	-6
604.445	1	5
604.615	1	-7
604.785	1	1
604.954	1	7
605.124	1	6
605.294	1	4
605.464	1	19
605.633	1	9
605.803	1	3
605.973	1	-3
606.142	1	5
606.312	1	2
606.482	1	6
606.652	1	13
606.821	1	6
606.991	1	4
607.161	1	14
607.330	1	-2
607.500	1	-2
607.670	1	4
607.839	1	5
608.009	1	0
608.179	1	-4
608.348	1	10
608.518	1	-4
608.688	1	6
608.858	1	2
609.027	1	4
609.197	1	7
609.367	1	-1
609.536	1	-3
609.706	1	5
609.876	1	0
610.045	1	1
610.215	1	7
610.385	1	3
610.554	1	3
610.724	1	15
610.894	1	3
611.063	1	-3
611.233	1	11
611.403	1	2
611.572	1	15
611.742	1	-4
611.912	1	2
612.081	1	8
612.251	1	4
612.421	1	8
612.590	1	-1
612.760	1	1
612.930	1	-1
613.099	1	14
613.269	1	11
613.439	1	3
613.608	1	16
613.778	1	2
613.948	1	7
614.117	1	4
614.287	1	-7
614.457	1	-3
614.626	1	-7
614.796	1	5
614.966	1	0
615.135	1	-5
615.305	1	4
615.475	1	7
615.644	1	12
615.814	1	-1
615.984	1	-6
616.153	1	7
616.323	1	-1
616.493	1	13
616.662	1	4
616.832	1	7
617.002	1	-1
617.171	1	5
617.341	1	5
617.511	1	-3
617.680	1	-3
617.850	1	-1
618.019	1	7
618.189	1	9
618.359	1	-2
618.528	1	10
618.698	1	5
618.868	1	11
619.037	1	-4
619.207	1	1
619.377	1	6
619.546	1	8
619.716	1	9
619.885	1	12
620.055	1	0
620.225	1	11
620.394	1	3
620.564	1	-1
620.734	1	-2
620.903	1	0
621.073	1	0
621.242	1	-3
621.412	1	-4
621.582	1	6
621.751	1	-3
621.921	1	3
622.091	1	-2
622.260	1	13
622.430	1	3
622.599	1	8
622.769	1	0
622.939	1	7
623.108	1	7
623.278	1	15
623.448	1	-6
623.617	1	9
623.787	1	10
623.956	1	-8
624.126	1	6
624.296	1	15
624.465	1	-6
624.635	1	-2
624.804	1	0
624.974	1	8
625.144	1	14
625.313	1	5
625.483	1	1
625.652	1	-2
625.822	1	1
625.992	1	3
626.161	1	-5
626.331	1	1
626.501	1	10
626.670	1	6
626.840	1	-3
627.009	1	4
627.179	1	6
627.348	1	4
627.518	1	16
627.688	1	-3
627.857	1	2
628.027	1	8
628.196	1	5
628.366	1	1
628.536	1	-4
628.705	1	-9
628.875	1	-3
629.044	1	-9
629.214	1	4
629.384	1	8
629.553	1	11
629.723	1	7
629.892	1	0
630.062	1	12
630.232	1	-3
630.401	1	3
630.571	1	1
630.740	1	-3
630.910	1	6
631.079	1	4
631.249	1	0
631.419	1	11
631.588	1	-1
631.758	1	9
631.927	1	-10
632.097	1	7
632.266	1	5
632.436	1	-10
632.606	1	9
632.775	1	3
632.945	1	-5
633.114	1	9
633.284	1	2
633.453	1	-4
633.623	1	4
633.793	1	-5
633.962	1	7
634.132	1	11
634.301	1	4
634.471	1	18
634.640	1	16
634.810	1	13
634.979	1	8
635.149	1	8
635.319	1	8
635.488	1	5
635.658	1	-13
635.827	1	-2
635.997	1	5
636.166	1	10
636.336	1	8
636.505	1	8
636.675	1	2
636.845	1	5
637.014	1	0
637.184	1	7
637.353	1	0
637.523	1	2
637.692	1	0
637.862	1	-4
638.031	1	4
638.201	1	9
638.370	1	8
638.540	1	1
638.710	1	1
638.879	1	0
639.049	1	4
639.218	1	-2
639.388	1	6
639.557	1	2
639.727	1	0
639.896	1	5
640.066	1	2
640.235	1	15
640.405	1	8
640.574	1	8
640.744	1	9
640.914	1	5
641.083	1	-1
641.253	1	6
641.422	1	8
641.592	1	4
641.761	1	13
641.931	1	0
642.100	1	4
642.270	1	4
642.439	1	7
642.609	1	2
642.778	1	1
642.948	1	5
643.117	1	7
643.287	1	-3
643.456	1	-6
643.626	1	7
643.795	1	5
643.965	1	1
644.134	1	10
644.304	1	12
644.473	1	3
644.643	1	-2
644.812	1	4
644.982	1	13
645.151	1	3
645.321	1	1
645.490	1	16
645.660	1	10
645.829	1	7
645.999	1	7
646.168	1	16
646.338	1	-5
646.507	1	-2
646.677	1	9
646.846	1	11
647.016	1	5
647.185	1	5
647.355	1	5
647.524	1	1
647.694	1	7
647.863	1	8
648.033	1	11
648.202	1	5
648.372	1	-4
648.541	1	8
648.711	1	3
648.880	1	18
649.050	1	12
649.219	1	6
649.389	1	1
649.558	1	4
649.728	1	2
649.897	1	4
650.067	1	-2
650.236	1	9
650.406	1	-12
650.575	1	9
650.745	1	7
650.914	1	17
651.084	1	-4
651.253	1	3
651.423	1	2
651.592	1	2
651.762	1	3
651.931	1	3
652.101	1	-1
652.270	1	9
652.440	1	11
652.609	1	1
652.778	1	12
652.948	1	-7
653.117	1	13
653.287	1	0
653.456	1	4
653.626	1	13
653.795	1	10
653.965	1	9
654.134	1	9
654.304	1	1
654.473	1	6
654.643	1	8
654.812	1	-2
654.982	1	9
655.151	1	17
655.320	1	2
655.490	1	-4
655.659	1	6
655.829	1	-7
655.998	1	6
656.168	1	0
656.337	1	6
656.507	1	-3
656.676	1	0
656.846	1	7
657.015	1	14
657.184	1	-6
657.354	1	-1
657.523	1	5
657.693	1	6
657.862	1	-1
658.032	1	-10
658.201	1	-3
658.371	1	5
658.540	1	8
658.709	1	5
658.879	1	-11
659.048	1	2
659.218	1	1
659.387	1	9
659.557	1	11
659.726	1	10
659.895	1	3
660.065	1	4
660.234	1	5
660.404	1	17
660.573	1	9
660.743	1	5
660.912	1	8
661.081	1	0
661.251	1	0
661.420	1	9
661.590	1	-5
661.759	1	3
661.929	1	19
662.098	1	9
662.267	1	1
662.437	1	1
662.606	1	6
662.776	1	5
662.945	1	16
663.115	1	-2
663.284	1	-5
663.453	1	5
663.623	1	4
663.792	1	6
663.962	1	3
664.131	1	5
664.300	1	5
664.470	1	5
664.639	1	-2
664.809	1	11
664.978	1	8
665.148	1	15
665.317	1	-1
665.486	1	0
665.656	1	1
665.825	1	7
665.995	1	4
666.164	1	4
666.333	1	6
666.503	1	13
666.672	1	5
666.842	1	-4
667.011	1	4
667.180	1	5
667.350	1	16
667.519	1	-1
667.689	1	10
667.858	1	9
668.027	1	9
668.197	1	5
668.366	1	10
668.536	1	3
668.705	1	15
668.874	1	8
669.044	1	7
669.213	1	1
669.382	1	7
669.552	1	1
669.721	1	8
669.891	1	3
670.060	1	4
670.229	1	6
670.399	1	6
670.568	1	17
670.738	1	-7
670.907	1	4
671.076	1	5
671.246	1	-5
671.415	1	10
671.584	1	-4
671.754	1	5
671.923	1	2
672.093	1	0
672.262	1	6
672.431	1	12
672.601	1	-5
672.770	1	6
672.939	1	3
673.109	1	6
673.278	1	17
673.448	1	4
673.617	1	5
673.786	1	0
