325.333	1	1
325.504	1	15
325.675	1	0
325.846	1	12
326.017	1	7
326.188	1	1
326.359	1	23
326.531	1	8
326.702	1	10
326.873	1	18
327.044	1	2
327.215	1	-4
327.386	1	6
327.557	1	10
327.728	1	-2
327.899	1	1
328.070	1	3
328.241	1	7
328.412	1	-2
328.583	1	5
328.754	1	1
328.926	1	4
329.097	1	3
329.268	1	-3
329.439	1	9
329.610	1	8
329.781	1	13
329.952	1	-3
330.123	1	4
330.294	1	4
330.465	1	13
330.636	1	3
330.807	1	3
330.978	1	6
331.149	1	12
331.320	1	8
331.492	1	17
331.663	1	10
331.834	1	4
332.005	1	2
332.176	1	4
332.347	1	9
332.518	1	0
332.689	1	13
332.860	1	1
333.031	1	11
333.202	1	15
333.373	1	13
333.544	1	3
333.715	1	8
333.886	1	8
334.057	1	6
334.228	1	6
334.399	1	7
334.570	1	12
334.741	1	12
334.912	1	7
335.084	1	11
335.255	1	0
335.426	1	-3
335.597	1	10
335.768	1	1
335.939	1	4
336.110	1	1
336.281	1	10
336.452	1	15
336.623	1	11
336.794	1	-2
336.965	1	7
337.136	1	11
337.307	1	8
337.478	1	0
337.649	1	1
337.820	1	4
337.991	1	10
338.162	1	7
338.333	1	7
338.504	1	3
338.675	1	3
338.846	1	5
339.017	1	5
339.188	1	13
339.359	1	11
339.530	1	3
339.701	1	7
339.872	1	11
340.043	1	11
340.214	1	9
340.385	1	18
340.556	1	7
340.727	1	5
340.898	1	6
341.069	1	10
341.240	1	20
341.411	1	11
341.582	1	19
341.753	1	4
341.924	1	4
342.095	1	12
342.266	1	-4
342.437	1	4
342.608	1	-5
342.779	1	7
342.950	1	7
343.121	1	2
343.292	1	15
343.463	1	13
343.634	1	14
343.805	1	7
343.976	1	6
344.147	1	12
344.318	1	2
344.489	1	10
344.660	1	2
344.831	1	11
345.002	1	5
345.173	1	20
345.344	1	4
345.515	1	13
345.686	1	3
345.857	1	14
346.028	1	16
346.199	1	11
346.370	1	1
346.541	1	21
346.712	1	9
346.883	1	21
347.054	1	5
347.225	1	10
347.396	1	14
347.567	1	5
347.738	1	17
347.909	1	11
348.080	1	15
348.251	1	11
348.422	1	11
348.593	1	13
348.764	1	1
348.935	1	8
349.106	1	-2
349.277	1	18
349.448	1	6
349.619	1	12
349.790	1	19
349.961	1	6
350.132	1	6
350.303	1	22
350.474	1	8
350.645	1	7
350.816	1	17
350.987	1	9
351.157	1	9
351.328	1	13
351.499	1	19
351.670	1	19
351.841	1	4
352.012	1	13
352.183	1	6
352.354	1	7
352.525	1	4
352.696	1	15
352.867	1	1
353.038	1	11
353.209	1	20
353.380	1	20
353.551	1	22
353.722	1	11
353.893	1	17
354.064	1	16
354.235	1	8
354.406	1	1
354.576	1	4
354.747	1	18
354.918	1	21
355.089	1	8
355.260	1	22
355.431	1	14
355.602	1	15
355.773	1	8
355.944	1	9
356.115	1	9
356.286	1	14
356.457	1	12
356.628	1	27
356.799	1	7
356.970	1	11
357.141	1	26
357.311	1	13
357.482	1	13
357.653	1	5
357.824	1	19
357.995	1	22
358.166	1	10
358.337	1	14
358.508	1	12
358.679	1	14
358.850	1	11
359.021	1	14
359.192	1	20
359.363	1	16
359.533	1	21
359.704	1	10
359.875	1	28
360.046	1	20
360.217	1	18
360.388	1	18
360.559	1	22
360.730	1	0
360.901	1	14
361.072	1	18
361.243	1	12
361.414	1	19
361.584	1	26
361.755	1	27
361.926	1	9
362.097	1	21
362.268	1	18
362.439	1	11
362.610	1	11
362.781	1	18
362.952	1	20
363.123	1	20
363.293	1	21
363.464	1	20
363.635	1	14
363.806	1	16
363.977	1	9
364.148	1	2
364.319	1	22
364.490	1	18
364.661	1	22
364.832	1	23
365.002	1	20
365.173	1	14
365.344	1	13
365.515	1	22
365.686	1	17
365.857	1	19
366.028	1	8
366.199	1	19
366.370	1	21
366.540	1	21
366.711	1	16
366.882	1	13
367.053	1	8
367.224	1	12
367.395	1	22
367.566	1	29
367.737	1	22
367.908	1	12
368.078	1	30
368.249	1	22
368.420	1	22
368.591	1	25
368.762	1	25
368.933	1	7
369.104	1	18
369.274	1	15
369.445	1	22
369.616	1	17
369.787	1	17
369.958	1	22
370.129	1	23
370.300	1	22
370.471	1	18
370.641	1	16
370.812	1	16
370.983	1	18
371.154	1	26
371.325	1	24
371.496	1	8
371.667	1	14
371.837	1	18
372.008	1	18
372.179	1	16
372.350	1	16
372.521	1	18
372.692	1	19
372.863	1	13
373.033	1	17
373.204	1	11
373.375	1	26
373.546	1	14
373.717	1	8
373.888	1	20
374.059	1	26
374.229	1	16
374.400	1	9
374.571	1	25
374.742	1	15
374.913	1	15
375.084	1	28
375.254	1	28
375.425	1	10
375.596	1	18
375.767	1	12
375.938	1	17
376.109	1	11
376.279	1	13
376.450	1	22
376.621	1	21
376.792	1	18
376.963	1	19
377.134	1	20
377.304	1	8
377.475	1	16
377.646	1	19
377.817	1	9
377.988	1	11
378.159	1	9
378.329	1	31
378.500	1	13
378.671	1	21
378.842	1	24
379.013	1	25
379.184	1	31
379.354	1	14
379.525	1	20
379.696	1	12
379.867	1	13
380.038	1	6
380.209	1	6
380.379	1	21
380.550	1	24
380.721	1	20
380.892	1	15
381.063	1	18
381.233	1	8
381.404	1	20
381.575	1	26
381.746	1	13
381.917	1	12
382.087	1	11
382.258	1	10
382.429	1	22
382.600	1	19
382.771	1	31
382.941	1	22
383.112	1	15
383.283	1	18
383.454	1	23
383.625	1	20
383.795	1	23
383.966	1	11
384.137	1	35
384.308	1	25
384.479	1	21
384.649	1	28
384.820	1	26
384.991	1	22
385.162	1	32
385.333	1	24
385.503	1	27
385.674	1	21
385.845	1	26
386.016	1	23
386.187	1	18
386.357	1	25
386.528	1	16
386.699	1	23
386.870	1	28
387.041	1	12
387.211	1	16
387.382	1	19
387.553	1	28
387.724	1	12
387.894	1	13
388.065	1	28
388.236	1	18
388.407	1	22
388.578	1	5
388.748	1	20
388.919	1	31
389.090	1	19
389.261	1	26
389.431	1	23
389.602	1	23
389.773	1	30
389.944	1	15
390.114	1	31
390.285	1	13
390.456	1	13
390.627	1	20
390.798	1	16
390.968	1	18
391.139	1	11
391.310	1	26
391.481	1	12
391.651	1	30
391.822	1	14
391.993	1	28
392.164	1	12
392.334	1	27
392.505	1	7
392.676	1	21
392.847	1	16
393.017	1	24
393.188	1	22
393.359	1	31
393.530	1	31
393.700	1	18
393.871	1	19
394.042	1	8
394.213	1	29
394.383	1	27
394.554	1	23
394.725	1	21
394.896	1	22
395.066	1	27
395.237	1	23
395.408	1	23
395.579	1	13
395.749	1	22
395.920	1	23
396.091	1	23
396.262	1	27
396.432	1	19
396.603	1	23
396.774	1	16
396.945	1	26
397.115	1	27
397.286	1	24
397.457	1	28
397.627	1	27
397.798	1	21
397.969	1	14
398.140	1	21
398.310	1	22
398.481	1	18
398.652	1	24
398.823	1	20
398.993	1	19
399.164	1	22
399.335	1	17
399.505	1	13
399.676	1	16
399.847	1	15
400.018	1	27
400.188	1	31
400.359	1	20
400.530	1	19
400.700	1	29
400.871	1	26
401.042	1	23
401.213	1	20
401.383	1	13
401.554	1	27
401.725	1	38
401.895	1	27
402.066	1	24
402.237	1	34
402.408	1	22
402.578	1	28
402.749	1	30
402.920	1	24
403.090	1	18
403.261	1	40
403.432	1	26
403.603	1	22
403.773	1	42
403.944	1	12
404.115	1	31
404.285	1	26
404.456	1	26
404.627	1	15
404.797	1	26
404.968	1	28
405.139	1	25
405.310	1	31
405.480	1	20
405.651	1	43
405.822	1	24
405.992	1	25
406.163	1	34
406.334	1	18
406.504	1	20
406.675	1	33
406.846	1	21
407.016	1	17
407.187	1	42
407.358	1	28
407.528	1	12
407.699	1	27
407.870	1	13
408.041	1	26
408.211	1	17
408.382	1	22
408.553	1	25
408.723	1	36
408.894	1	24
409.065	1	20
409.235	1	36
409.406	1	15
409.577	1	38
409.747	1	27
409.918	1	20
410.089	1	27
410.259	1	43
410.430	1	17
410.601	1	18
410.771	1	31
410.942	1	39
411.113	1	23
411.283	1	17
411.454	1	36
411.625	1	27
411.795	1	24
411.966	1	28
412.137	1	34
412.307	1	29
412.478	1	23
412.649	1	29
412.819	1	21
412.990	1	21
413.161	1	35
413.331	1	28
413.502	1	23
413.672	1	39
413.843	1	29
414.014	1	27
414.184	1	25
414.355	1	30
414.526	1	25
414.696	1	21
414.867	1	35
415.038	1	17
415.208	1	31
415.379	1	31
415.550	1	26
415.720	1	23
415.891	1	19
416.062	1	27
416.232	1	22
416.403	1	27
416.573	1	39
416.744	1	23
416.915	1	27
417.085	1	34
417.256	1	26
417.427	1	34
417.597	1	15
417.768	1	16
417.939	1	28
418.109	1	26
418.280	1	28
418.450	1	13
418.621	1	17
418.792	1	33
418.962	1	24
419.133	1	13
419.304	1	32
419.474	1	27
419.645	1	23
419.815	1	37
419.986	1	18
420.157	1	14
420.327	1	27
420.498	1	21
420.669	1	26
420.839	1	23
421.010	1	26
421.180	1	20
421.351	1	31
421.522	1	19
421.692	1	30
421.863	1	38
422.033	1	30
422.204	1	25
422.375	1	30
422.545	1	15
422.716	1	30
422.886	1	18
423.057	1	24
423.228	1	25
423.398	1	31
423.569	1	28
423.740	1	18
423.910	1	16
424.081	1	29
424.251	1	23
424.422	1	23
424.593	1	16
424.763	1	37
424.934	1	20
425.104	1	28
425.275	1	30
425.445	1	32
425.616	1	25
425.787	1	18
425.957	1	22
426.128	1	27
426.298	1	12
426.469	1	19
426.640	1	32
426.810	1	21
426.981	1	18
427.151	1	31
427.322	1	24
427.493	1	21
427.663	1	20
427.834	1	22
428.004	1	23
428.175	1	20
428.345	1	3
428.516	1	26
428.687	1	23
428.857	1	20
429.028	1	21
429.198	1	29
429.369	1	28
429.540	1	25
429.710	1	32
429.881	1	14
430.051	1	23
430.222	1	19
430.392	1	24
430.563	1	30
430.734	1	23
430.904	1	21
431.075	1	23
431.245	1	21
431.416	1	22
431.586	1	12
431.757	1	28
431.927	1	23
432.098	1	21
432.269	1	18
432.439	1	38
432.610	1	23
432.780	1	25
432.951	1	17
433.121	1	18
433.292	1	17
433.462	1	17
433.633	1	15
433.804	1	36
433.974	1	8
434.145	1	20
434.315	1	15
434.486	1	19
434.656	1	30
434.827	1	20
434.997	1	24
435.168	1	21
435.339	1	14
435.509	1	26
435.680	1	13
435.850	1	9
436.021	1	25
436.191	1	25
436.362	1	17
436.532	1	26
436.703	1	9
436.873	1	33
437.044	1	16
437.214	1	35
437.385	1	30
437.556	1	14
437.726	1	20
437.897	1	13
438.067	1	11
438.238	1	19
438.408	1	25
438.579	1	23
438.749	1	15
438.920	1	13
439.090	1	26
439.261	1	12
439.431	1	17
439.602	1	20
439.772	1	21
439.943	1	25
440.113	1	17
440.284	1	17
440.455	1	23
440.625	1	29
440.796	1	30
440.966	1	15
441.137	1	23
441.307	1	23
441.478	1	20
441.648	1	11
441.819	1	24
441.989	1	24
442.160	1	9
442.330	1	13
442.501	1	20
442.671	1	11
442.842	1	20
443.012	1	27
443.183	1	19
443.353	1	28
443.524	1	21
443.694	1	13
443.865	1	19
444.035	1	15
444.206	1	25
444.376	1	22
444.547	1	23
444.717	1	25
444.888	1	20
445.058	1	30
445.229	1	15
445.399	1	29
445.570	1	20
445.740	1	29
445.911	1	11
446.081	1	33
446.252	1	15
446.422	1	18
446.593	1	16
446.763	1	35
446.934	1	13
447.104	1	22
447.275	1	14
447.445	1	3
447.616	1	23
447.786	1	26
447.957	1	24
448.127	1	27
448.298	1	19
448.468	1	16
448.639	1	28
448.809	1	16
448.979	1	13
449.150	1	17
449.320	1	15
449.491	1	14
449.661	1	21
449.832	1	11
450.002	1	3
450.173	1	15
450.343	1	32
450.514	1	13
450.684	1	20
450.855	1	17
451.025	1	14
451.196	1	4
451.366	1	20
451.537	1	21
451.707	1	18
451.878	1	15
452.048	1	14
452.218	1	16
452.389	1	29
452.559	1	29
452.730	1	12
452.900	1	27
453.071	1	18
453.241	1	22
453.412	1	12
453.582	1	16
453.753	1	24
453.923	1	17
454.093	1	15
454.264	1	20
454.434	1	16
454.605	1	11
454.775	1	5
454.946	1	18
455.116	1	12
455.287	1	4
455.457	1	27
455.628	1	7
455.798	1	19
455.968	1	23
456.139	1	11
456.309	1	30
456.480	1	10
456.650	1	15
456.821	1	19
456.991	1	13
457.161	1	13
457.332	1	23
457.502	1	23
457.673	1	21
457.843	1	6
458.014	1	16
458.184	1	13
458.355	1	20
458.525	1	23
458.695	1	12
458.866	1	26
459.036	1	22
459.207	1	17
459.377	1	18
459.548	1	19
459.718	1	8
459.888	1	13
460.059	1	18
460.229	1	7
460.400	1	15
460.570	1	30
460.740	1	14
460.911	1	17
461.081	1	14
461.252	1	13
461.422	1	14
461.593	1	14
461.763	1	23
461.933	1	18
462.104	1	13
462.274	1	5
462.445	1	23
462.615	1	20
462.785	1	20
462.956	1	8
463.126	1	24
463.297	1	19
463.467	1	10
463.638	1	10
463.808	1	18
463.978	1	10
464.149	1	19
464.319	1	11
464.490	1	12
464.660	1	30
464.830	1	10
465.001	1	9
465.171	1	11
465.342	1	11
465.512	1	15
465.682	1	23
465.853	1	20
466.023	1	37
466.194	1	8
466.364	1	14
466.534	1	6
466.705	1	12
466.875	1	20
467.045	1	22
467.216	1	8
467.386	1	14
467.557	1	18
467.727	1	17
467.897	1	30
468.068	1	20
468.238	1	12
468.409	1	20
468.579	1	19
468.749	1	18
468.920	1	15
469.090	1	7
469.260	1	26
469.431	1	9
469.601	1	10
469.772	1	21
469.942	1	21
470.112	1	7
470.283	1	22
470.453	1	19
470.623	1	21
470.794	1	20
470.964	1	25
471.135	1	19
471.305	1	11
471.475	1	20
471.646	1	17
471.816	1	6
471.986	1	9
472.157	1	8
472.327	1	18
472.497	1	11
472.668	1	8
472.838	1	24
473.009	1	19
473.179	1	14
473.349	1	12
473.520	1	4
473.690	1	17
473.860	1	4
474.031	1	7
474.201	1	15
474.371	1	22
474.542	1	21
474.712	1	0
474.882	1	23
475.053	1	15
475.223	1	15
475.394	1	14
475.564	1	5
475.734	1	2
475.905	1	8
476.075	1	8
476.245	1	17
476.416	1	20
476.586	1	13
476.756	1	-2
476.927	1	16
477.097	1	17
477.267	1	12
477.438	1	1
477.608	1	13
477.778	1	12
477.949	1	19
478.119	1	-2
478.289	1	6
478.460	1	23
478.630	1	16
478.800	1	20
478.971	1	13
479.141	1	10
479.311	1	15
479.482	1	-4
479.652	1	14
479.822	1	-3
479.993	1	22
480.163	1	17
480.333	1	32
480.504	1	17
480.674	1	5
480.844	1	6
481.015	1	13
481.185	1	14
481.355	1	5
481.525	1	-3
481.696	1	5
481.866	1	13
482.036	1	5
482.207	1	9
482.377	1	13
482.547	1	5
482.718	1	3
482.888	1	8
483.058	1	13
483.229	1	13
483.399	1	11
483.569	1	8
483.740	1	13
483.910	1	22
484.080	1	24
484.250	1	8
484.421	1	13
484.591	1	21
484.761	1	11
484.932	1	26
485.102	1	-10
485.272	1	6
485.443	1	16
485.613	1	17
485.783	1	8
485.953	1	5
486.124	1	12
486.294	1	16
486.464	1	10
486.635	1	2
486.805	1	20
486.975	1	2
487.146	1	9
487.316	1	6
487.486	1	6
487.656	1	12
487.827	1	22
487.997	1	16
488.167	1	8
488.338	1	13
488.508	1	11
488.678	1	14
488.848	1	14
489.019	1	6
489.189	1	7
489.359	1	5
489.529	1	-1
489.700	1	11
489.870	1	3
490.040	1	-3
490.211	1	-2
490.381	1	27
490.551	1	12
490.721	1	14
490.892	1	26
491.062	1	3
491.232	1	6
491.402	1	8
491.573	1	16
491.743	1	3
491.913	1	7
492.084	1	10
492.254	1	25
492.424	1	9
492.594	1	7
492.765	1	9
492.935	1	9
493.105	1	-9
493.275	1	19
493.446	1	9
493.616	1	5
493.786	1	5
493.956	1	10
494.127	1	16
494.297	1	18
494.467	1	8
494.637	1	13
494.808	1	1
494.978	1	5
495.148	1	23
495.318	1	12
495.489	1	14
495.659	1	21
495.829	1	10
495.999	1	1
496.170	1	14
496.340	1	6
496.510	1	29
496.680	1	9
496.851	1	15
497.021	1	19
497.191	1	12
497.361	1	21
497.532	1	6
497.702	1	15
497.872	1	0
498.042	1	26
498.213	1	8
498.383	1	16
498.553	1	10
498.723	1	5
498.894	1	18
499.064	1	-3
499.234	1	14
499.404	1	8
499.574	1	6
499.745	1	1
499.915	1	6
500.085	1	3
500.255	1	12
500.426	1	1
500.596	1	14
500.766	1	14
500.936	1	6
501.106	1	15
501.277	1	18
501.447	1	1
501.617	1	8
501.787	1	16
501.958	1	-7
502.128	1	8
502.298	1	18
502.468	1	14
502.638	1	17
502.809	1	4
502.979	1	7
503.149	1	11
503.319	1	14
503.489	1	8
503.660	1	3
503.830	1	10
504.000	1	3
504.170	1	11
504.340	1	9
504.511	1	12
504.681	1	3
504.851	1	11
505.021	1	4
505.192	1	10
505.362	1	14
505.532	1	15
505.702	1	7
505.872	1	8
506.043	1	-5
506.213	1	5
506.383	1	3
506.553	1	13
506.723	1	7
506.893	1	8
507.064	1	5
507.234	1	-1
507.404	1	11
507.574	1	9
507.744	1	2
507.915	1	4
508.085	1	10
508.255	1	9
508.425	1	8
508.595	1	2
508.766	1	11
508.936	1	4
509.106	1	10
509.276	1	12
509.446	1	-9
509.616	1	12
509.787	1	11
509.957	1	16
510.127	1	6
510.297	1	7
510.467	1	14
510.638	1	-4
510.808	1	3
510.978	1	8
511.148	1	-5
511.318	1	19
511.488	1	6
511.659	1	-4
511.829	1	3
511.999	1	-2
512.169	1	8
512.339	1	12
512.509	1	13
512.680	1	-2
512.850	1	6
513.020	1	5
513.190	1	12
513.360	1	7
513.530	1	13
513.700	1	12
513.871	1	4
514.041	1	8
514.211	1	13
514.381	1	-5
514.551	1	13
514.721	1	11
514.892	1	10
515.062	1	1
515.232	1	3
515.402	1	19
515.572	1	5
515.742	1	9
515.912	1	6
516.083	1	5
516.253	1	8
516.423	1	7
516.593	1	8
516.763	1	7
516.933	1	2
517.104	1	4
517.274	1	14
517.444	1	-2
517.614	1	7
517.784	1	11
517.954	1	0
518.124	1	-2
518.294	1	18
518.465	1	4
518.635	1	6
518.805	1	5
518.975	1	7
519.145	1	5
519.315	1	12
519.485	1	3
519.656	1	17
519.826	1	12
519.996	1	5
520.166	1	3
520.336	1	16
520.506	1	4
520.676	1	4
520.846	1	6
521.017	1	-4
521.187	1	5
521.357	1	9
521.527	1	12
521.697	1	8
521.867	1	8
522.037	1	7
522.207	1	2
522.377	1	8
522.548	1	9
522.718	1	10
522.888	1	1
523.058	1	1
523.228	1	10
523.398	1	8
523.568	1	-1
523.738	1	-1
523.909	1	11
524.079	1	6
524.249	1	7
524.419	1	-3
524.589	1	9
524.759	1	2
524.929	1	18
525.099	1	8
525.269	1	7
525.439	1	8
525.610	1	12
525.780	1	10
525.950	1	13
526.120	1	2
526.290	1	12
526.460	1	6
526.630	1	14
526.800	1	5
526.970	1	9
527.140	1	-4
527.311	1	-1
527.481	1	4
527.651	1	-10
527.821	1	-2
527.991	1	11
528.161	1	6
528.331	1	2
528.501	1	9
528.671	1	8
528.841	1	6
529.011	1	-3
529.181	1	10
529.352	1	-1
529.522	1	1
529.692	1	11
529.862	1	7
530.032	1	1
530.202	1	11
530.372	1	8
530.542	1	12
530.712	1	-10
530.882	1	-5
531.052	1	9
531.222	1	6
531.392	1	-1
531.563	1	3
531.733	1	10
531.903	1	3
532.073	1	10
532.243	1	17
532.413	1	4
532.583	1	-3
532.753	1	-4
532.923	1	16
533.093	1	-5
533.263	1	0
533.433	1	8
533.603	1	8
533.773	1	14
533.943	1	2
534.113	1	4
534.284	1	17
534.454	1	5
534.624	1	-1
534.794	1	16
534.964	1	11
535.134	1	4
535.304	1	13
535.474	1	-11
535.644	1	8
535.814	1	-8
535.984	1	-3
536.154	1	14
536.324	1	-2
536.494	1	12
536.664	1	-10
536.834	1	3
537.004	1	-1
537.174	1	11
537.344	1	9
537.514	1	6
537.685	1	10
537.855	1	9
538.025	1	7
538.195	1	3
538.365	1	6
538.535	1	4
538.705	1	4
538.875	1	6
539.045	1	10
539.215	1	13
539.385	1	-4
539.555	1	-5
539.725	1	13
539.895	1	15
540.065	1	6
540.235	1	1
540.405	1	8
540.575	1	10
540.745	1	4
540.915	1	5
541.085	1	9
541.255	1	5
541.425	1	-2
541.595	1	-4
541.765	1	11
541.935	1	17
542.105	1	4
542.275	1	0
542.445	1	-4
542.615	1	13
542.785	1	13
542.955	1	5
543.125	1	-1
543.295	1	15
543.465	1	4
543.635	1	2
543.805	1	6
543.975	1	1
544.145	1	-3
544.315	1	2
544.485	1	8
544.655	1	16
544.825	1	-3
544.995	1	3
545.165	1	11
545.335	1	1
545.505	1	5
545.675	1	3
545.845	1	-9
546.015	1	1
546.185	1	-2
546.355	1	-2
546.525	1	-3
546.695	1	4
546.865	1	-5
547.035	1	8
547.205	1	-2
547.375	1	9
547.545	1	-2
547.715	1	5
547.885	1	9
548.055	1	5
548.225	1	-3
548.395	1	18
548.565	1	1
548.735	1	8
548.905	1	-6
549.075	1	3
549.245	1	9
549.415	1	-1
549.585	1	9
549.755	1	6
549.925	1	2
550.095	1	-9
550.265	1	-8
550.435	1	6
550.605	1	4
550.775	1	3
550.945	1	0
551.115	1	-4
551.285	1	-4
551.455	1	-2
551.625	1	14
551.795	1	9
551.965	1	6
552.135	1	-8
552.305	1	0
552.475	1	13
552.645	1	9
552.815	1	2
552.985	1	-6
553.155	1	9
553.325	1	-3
553.495	1	12
553.665	1	10
553.835	1	-2
554.004	1	0
554.174	1	4
554.344	1	6
554.514	1	7
554.684	1	1
554.854	1	-4
555.024	1	15
555.194	1	7
555.364	1	5
555.534	1	8
555.704	1	-3
555.874	1	10
556.044	1	2
556.214	1	-4
556.384	1	4
556.554	1	-3
556.724	1	-4
556.894	1	4
557.064	1	-8
557.234	1	8
557.404	1	-1
557.573	1	-3
557.743	1	1
557.913	1	0
558.083	1	-7
558.253	1	0
558.423	1	2
558.593	1	8
558.763	1	4
558.933	1	3
559.103	1	9
559.273	1	2
559.443	1	0
559.613	1	-4
559.783	1	9
559.953	1	9
560.122	1	7
560.292	1	8
560.462	1	0
560.632	1	3
560.802	1	1
560.972	1	1
561.142	1	7
561.312	1	5
561.482	1	9
561.652	1	8
561.822	1	10
561.992	1	6
562.162	1	-5
562.331	1	2
562.501	1	-4
562.671	1	9
562.841	1	9
563.011	1	8
563.181	1	12
563.351	1	0
563.521	1	10
563.691	1	0
563.861	1	2
564.031	1	4
564.201	1	-9
564.370	1	16
564.540	1	8
564.710	1	12
564.880	1	13
565.050	1	7
565.220	1	-1
565.390	1	10
565.560	1	2
565.730	1	5
565.900	1	-14
566.069	1	9
566.239	1	-4
566.409	1	11
566.579	1	11
566.749	1	9
566.919	1	8
567.089	1	1
567.259	1	5
567.429	1	-4
567.599	1	-8
567.768	1	4
567.938	1	-7
568.108	1	6
568.278	1	-3
568.448	1	14
568.618	1	18
568.788	1	11
568.958	1	13
569.128	1	6
569.297	1	-8
569.467	1	-3
569.637	1	-4
569.807	1	-3
569.977	1	6
570.147	1	-3
570.317	1	16
570.487	1	-1
570.656	1	-7
570.826	1	12
570.996	1	11
571.166	1	2
571.336	1	3
571.506	1	-3
571.676	1	11
571.846	1	6
572.015	1	-7
572.185	1	0
572.355	1	7
572.525	1	7
572.695	1	4
572.865	1	0
573.035	1	10
573.205	1	5
573.374	1	-2
573.544	1	3
573.714	1	9
573.884	1	12
574.054	1	9
574.224	1	-2
574.394	1	-6
574.563	1	5
574.733	1	-1
574.903	1	5
575.073	1	4
575.243	1	5
575.413	1	7
575.583	1	6
575.752	1	-1
575.922	1	7
576.092	1	-2
576.262	1	2
576.432	1	9
576.602	1	5
576.772	1	-4
576.941	1	8
577.111	1	13
577.281	1	11
577.451	1	11
577.621	1	8
577.791	1	-10
577.960	1	6
578.130	1	-7
578.300	1	2
578.470	1	6
578.640	1	4
578.810	1	7
578.979	1	14
579.149	1	-3
579.319	1	3
579.489	1	2
579.659	1	3
579.829	1	-6
579.998	1	3
580.168	1	6
580.338	1	1
580.508	1	7
580.678	1	2
580.848	1	4
581.017	1	14
581.187	1	0
581.357	1	-11
581.527	1	6
581.697	1	-1
581.867	1	-4
582.036	1	-3
582.206	1	3
582.376	1	2
582.546	1	5
582.716	1	4
582.885	1	0
583.055	1	4
583.225	1	-7
583.395	1	4
583.565	1	3
583.735	1	-2
583.904	1	-6
584.074	1	5
584.244	1	10
584.414	1	13
584.584	1	-5
584.753	1	9
584.923	1	10
585.093	1	-1
585.263	1	7
585.433	1	0
585.602	1	2
585.772	1	7
585.942	1	1
586.112	1	7
586.282	1	-2
586.451	1	-11
586.621	1	7
586.791	1	9
586.961	1	4
587.131	1	16
587.300	1	-6
587.470	1	-3
587.640	1	3
587.810	1	-10
587.980	1	11
588.149	1	8
588.319	1	5
588.489	1	11
588.659	1	3
588.829	1	5
588.998	1	1
589.168	1	2
589.338	1	11
589.508	1	-1
589.677	1	6
589.847	1	7
590.017	1	10
590.187	1	3
590.357	1	3
590.526	1	16
590.696	1	8
590.866	1	5
591.036	1	-2
591.205	1	-10
591.375	1	-2
591.545	1	7
591.715	1	4
591.885	1	10
592.054	1	3
592.224	1	8
592.394	1	0
592.564	1	0
592.733	1	6
592.903	1	13
593.073	1	-2
593.243	1	9
593.412	1	1
593.582	1	6
593.752	1	10
593.922	1	-2
594.091	1	13
594.261	1	-3
594.431	1	8
594.601	1	14
594.771	1	-3
594.940	1	-6
595.110	1	4
595.280	1	-8
595.450	1	5
595.619	1	5
595.789	1	1
595.959	1	6
596.129	1	14
596.298	1	7
596.468	1	5
596.638	1	13
596.808	1	5
596.977	1	14
597.147	1	7
597.317	1	4
597.487	1	-3
597.656	1	5
597.826	1	0
597.996	1	6
598.166	1	-1
598.335	1	10
598.505	1	8
598.675	1	-1
598.844	1	3
599.014	1	-8
599.184	1	14
599.354	1	10
599.523	1	2
599.693	1	5
599.863	1	-4
600.033	1	0
600.202	1	-5
600.372	1	2
600.542	1	8
600.712	1	6
600.881	1	7
601.051	1	-1
601.221	1	0
601.390	1	9
601.560	1	0
601.730	1	6
601.900	1	5
602.069	1	-2
602.239	1	0
602.409	1	4
602.578	1	-2
602.748	1	5
602.918	1	-5
603.088	1	17
603.257	1	16
603.427	1	-3
603.597	1	11
603.767	1	-3
603.936	1	19
604.106	1	3
604.276	1	3
604.445	1	-2
604.615	1	-4
604.785	1	2
604.954	1	4
605.124	1	-6
605.294	1	6
605.464	1	15
605.633	1	9
605.803	1	10
605.973	1	1
606.142	1	10
606.312	1	5
606.482	1	1
606.652	1	16
606.821	1	11
606.991	1	9
607.161	1	11
607.330	1	1
607.500	1	3
607.670	1	6
607.839	1	-4
608.009	1	3
608.179	1	-7
608.348	1	14
608.518	1	-5
608.688	1	11
608.858	1	-4
609.027	1	5
609.197	1	12
609.367	1	7
609.536	1	-11
609.706	1	7
609.876	1	6
610.045	1	-3
610.215	1	1
610.385	1	11
610.554	1	-3
610.724	1	11
610.894	1	7
611.063	1	0
611.233	1	7
611.403	1	-2
611.572	1	0
611.742	1	-1
611.912	1	7
612.081	1	8
612.251	1	13
612.421	1	2
612.590	1	0
612.760	1	5
612.930	1	4
613.099	1	9
613.269	1	0
613.439	1	17
613.608	1	14
613.778	1	10
613.948	1	8
614.117	1	-1
614.287	1	8
614.457	1	-1
614.626	1	2
614.796	1	5
614.966	1	-3
615.135	1	4
615.305	1	5
615.475	1	7
615.644	1	7
615.814	1	7
615.984	1	2
616.153	1	-6
616.323	1	-6
616.493	1	-2
616.662	1	16
616.832	1	9
617.002	1	13
617.171	1	-6
617.341	1	1
617.511	1	16
617.680	1	5
617.850	1	-3
618.019	1	14
618.189	1	8
618.359	1	-1
618.528	1	10
618.698	1	4
618.868	1	3
619.037	1	0
619.207	1	6
619.377	1	6
619.546	1	7
619.716	1	5
619.885	1	20
620.055	1	13
620.225	1	5
620.394	1	9
620.564	1	8
620.734	1	0
620.903	1	10
621.073	1	10
621.242	1	-8
621.412	1	8
621.582	1	1
621.751	1	1
621.921	1	2
622.091	1	4
622.260	1	7
622.430	1	7
622.599	1	16
622.769	1	5
622.939	1	14
623.108	1	7
623.278	1	10
623.448	1	-3
623.617	1	-4
623.787	1	2
623.956	1	0
624.126	1	11
624.296	1	17
624.465	1	2
624.635	1	1
624.804	1	7
624.974	1	10
625.144	1	5
625.313	1	3
625.483	1	3
625.652	1	-1
625.822	1	0
625.992	1	2
626.161	1	-8
626.331	1	15
626.501	1	12
626.670	1	5
626.840	1	0
627.009	1	3
627.179	1	1
627.348	1	7
627.518	1	13
627.688	1	-1
627.857	1	-3
628.027	1	14
628.196	1	6
628.366	1	0
628.536	1	6
628.705	1	3
628.875	1	4
629.044	1	-5
629.214	1	0
629.384	1	8
629.553	1	11
629.723	1	5
629.892	1	1
630.062	1	6
630.232	1	-3
630.401	1	0
630.571	1	10
630.740	1	-1
630.910	1	11
631.079	1	0
631.249	1	3
631.419	1	12
631.588	1	-6
631.758	1	-6
631.927	1	2
632.097	1	12
632.266	1	9
632.436	1	-2
632.606	1	5
632.775	1	7
632.945	1	-4
633.114	1	4
633.284	1	-1
633.453	1	14
633.623	1	10
633.793	1	6
633.962	1	0
634.132	1	6
634.301	1	10
634.471	1	12
634.640	1	8
634.810	1	19
634.979	1	14
635.149	1	14
635.319	1	5
635.488	1	8
635.658	1	1
635.827	1	3
635.997	1	0
636.166	1	3
636.336	1	6
636.505	1	-1
636.675	1	3
636.845	1	7
637.014	1	2
637.184	1	-1
637.353	1	3
637.523	1	13
637.692	1	8
637.862	1	-6
638.031	1	13
638.201	1	8
638.370	1	2
638.540	1	0
638.710	1	4
638.879	1	-2
639.049	1	1
639.218	1	7
639.388	1	10
639.557	1	4
639.727	1	-1
639.896	1	5
640.066	1	10
640.235	1	10
640.405	1	5
640.574	1	3
640.744	1	8
640.914	1	11
641.083	1	3
641.253	1	2
641.422	1	10
641.592	1	6
641.761	1	13
641.931	1	-1
642.100	1	3
642.270	1	6
642.439	1	4
642.609	1	7
642.778	1	12
642.948	1	-5
643.117	1	10
643.287	1	-1
643.456	1	1
643.626	1	-2
643.795	1	6
643.965	1	0
644.134	1	-2
644.304	1	5
644.473	1	2
644.643	1	13
644.812	1	10
644.982	1	4
645.151	1	1
645.321	1	-2
645.490	1	13
645.660	1	13
645.829	1	-1
645.999	1	16
646.168	1	6
646.338	1	-3
646.507	1	-4
646.677	1	13
646.846	1	7
647.016	1	7
647.185	1	7
647.355	1	5
647.524	1	-3
647.694	1	7
647.863	1	-1
648.033	1	4
648.202	1	13
648.372	1	7
648.541	1	9
648.711	1	14
648.880	1	12
649.050	1	5
649.219	1	-2
649.389	1	7
649.558	1	2
649.728	1	6
649.897	1	4
650.067	1	0
650.236	1	16
650.406	1	-4
650.575	1	10
650.745	1	5
650.914	1	8
651.084	1	5
651.253	1	6
651.423	1	9
651.592	1	11
651.762	1	5
651.931	1	10
652.101	1	1
652.270	1	0
652.440	1	4
652.609	1	6
652.778	1	6
652.948	1	2
653.117	1	10
653.287	1	2
653.456	1	6
653.626	1	10
653.795	1	11
653.965	1	14
654.134	1	8
654.304	1	9
654.473	1	7
654.643	1	11
654.812	1	5
654.982	1	3
655.151	1	5
655.320	1	6
655.490	1	-1
655.659	1	4
655.829	1	-7
655.998	1	7
656.168	1	7
656.337	1	1
656.507	1	4
656.676	1	4
656.846	1	6
657.015	1	15
657.184	1	-5
657.354	1	5
657.523	1	3
657.693	1	3
657.862	1	3
658.032	1	9
658.201	1	0
658.371	1	8
658.540	1	11
658.709	1	12
658.879	1	-13
659.048	1	0
659.218	1	3
659.387	1	13
659.557	1	4
659.726	1	20
659.895	1	-4
660.065	1	13
660.234	1	10
660.404	1	18
660.573	1	10
660.743	1	6
660.912	1	14
661.081	1	5
661.251	1	7
661.420	1	18
661.590	1	8
661.759	1	1
661.929	1	16
662.098	1	7
662.267	1	5
662.437	1	6
662.606	1	4
662.776	1	10
662.945	1	17
663.115	1	-6
663.284	1	-3
663.453	1	2
663.623	1	6
663.792	1	4
663.962	1	4
664.131	1	3
664.300	1	8
664.470	1	-5
664.639	1	0
664.809	1	5
664.978	1	15
665.148	1	11
665.317	1	-6
665.486	1	3
665.656	1	-6
665.825	1	4
665.995	1	10
666.164	1	14
666.333	1	5
666.503	1	23
666.672	1	6
666.842	1	-1
667.011	1	0
667.180	1	10
667.350	1	13
667.519	1	2
667.689	1	12
667.858	1	22
668.027	1	2
668.197	1	5
668.366	1	9
668.536	1	4
668.705	1	14
668.874	1	14
669.044	1	14
669.213	1	9
669.382	1	15
669.552	1	2
669.721	1	1
669.891	1	-1
670.060	1	-3
670.229	1	2
670.399	1	5
670.568	1	6
670.738	1	0
670.907	1	6
671.076	1	11
671.246	1	-13
671.415	1	4
671.584	1	4
671.754	1	3
671.923	1	1
672.093	1	11
672.262	1	10
672.431	1	17
672.601	1	-5
672.770	1	-12
672.939	1	2
673.109	1	2
673.278	1	11
673.448	1	8
673.617	1	11
673.786	1	1
