325.333	1	5
325.504	1	13
325.675	1	5
325.846	1	-4
326.017	1	3
326.188	1	5
326.359	1	12
326.531	1	0
326.702	1	10
326.873	1	7
327.044	1	0
327.215	1	5
327.386	1	0
327.557	1	16
327.728	1	-9
327.899	1	8
328.070	1	7
328.241	1	2
328.412	1	-7
328.583	1	1
328.754	1	-3
328.926	1	0
329.097	1	13
329.268	1	-3
329.439	1	9
329.610	1	5
329.781	1	4
329.952	1	3
330.123	1	2
330.294	1	5
330.465	1	13
330.636	1	-5
330.807	1	2
330.978	1	7
331.149	1	5
331.320	1	1
331.492	1	7
331.663	1	0
331.834	1	7
332.005	1	-9
332.176	1	-2
332.347	1	4
332.518	1	0
332.689	1	12
332.860	1	0
333.031	1	11
333.202	1	10
333.373	1	6
333.544	1	-5
333.715	1	-1
333.886	1	4
334.057	1	0
334.228	1	14
334.399	1	4
334.570	1	3
334.741	1	10
334.912	1	10
335.084	1	4
335.255	1	7
335.426	1	5
335.597	1	13
335.768	1	-7
335.939	1	6
336.110	1	2
336.281	1	9
336.452	1	10
336.623	1	4
336.794	1	-1
336.965	1	11
337.136	1	9
337.307	1	11
337.478	1	3
337.649	1	4
337.820	1	3
337.991	1	10
338.162	1	9
338.333	1	9
338.504	1	-4
338.675	1	8
338.846	1	1
339.017	1	10
339.188	1	1
339.359	1	5
339.530	1	-6
339.701	1	7
339.872	1	5
340.043	1	23
340.214	1	-1
340.385	1	13
340.556	1	12
340.727	1	3
340.898	1	-5
341.069	1	8
341.240	1	11
341.411	1	6
341.582	1	3
341.753	1	3
341.924	1	4
342.095	1	-4
342.266	1	-3
342.437	1	8
342.608	1	-6
342.779	1	-5
342.950	1	7
343.121	1	3
343.292	1	10
343.463	1	4
343.634	1	12
343.805	1	2
343.976	1	1
344.147	1	6
344.318	1	4
344.489	1	13
344.660	1	-1
344.831	1	6
345.002	1	1
345.173	1	11
345.344	1	-1
345.515	1	-4
345.686	1	9
345.857	1	7
346.028	1	10
346.199	1	16
346.370	1	0
346.541	1	17
346.712	1	-7
346.883	1	2
347.054	1	3
347.225	1	7
347.396	1	13
347.567	1	15
347.738	1	8
347.909	1	9
348.080	1	2
348.251	1	-8
348.422	1	10
348.593	1	7
348.764	1	10
348.935	1	3
349.106	1	-3
349.277	1	20
349.448	1	4
349.619	1	10
349.790	1	12
349.961	1	8
350.132	1	2
350.303	1	7
350.474	1	3
350.645	1	0
350.816	1	15
350.987	1	0
351.157	1	3
351.328	1	9
351.499	1	12
351.670	1	16
351.841	1	5
352.012	1	9
352.183	1	-8
352.354	1	13
352.525	1	-7
352.696	1	-4
352.867	1	-2
353.038	1	8
353.209	1	17
353.380	1	4
353.551	1	19
353.722	1	9
353.893	1	-3
354.064	1	6
354.235	1	-2
354.406	1	-1
354.576	1	10
354.747	1	12
354.918	1	22
355.089	1	12
355.260	1	2
355.431	1	16
355.602	1	11
355.773	1	8
355.944	1	11
356.115	1	0
356.286	1	6
356.457	1	3
356.628	1	16
356.799	1	9
356.970	1	11
357.141	1	8
357.311	1	18
357.482	1	-3
357.653	1	-2
357.824	1	10
357.995	1	8
358.166	1	12
358.337	1	6
358.508	1	10
358.679	1	4
358.850	1	2
359.021	1	4
359.192	1	0
359.363	1	4
359.533	1	4
359.704	1	11
359.875	1	17
360.046	1	9
360.217	1	9
360.388	1	8
360.559	1	1
360.730	1	-7
360.901	1	7
361.072	1	-9
361.243	1	2
361.414	1	2
361.584	1	8
361.755	1	10
361.926	1	2
362.097	1	4
362.268	1	9
362.439	1	3
362.610	1	11
362.781	1	8
362.952	1	10
363.123	1	27
363.293	1	4
363.464	1	9
363.635	1	14
363.806	1	9
363.977	1	2
364.148	1	0
364.319	1	5
364.490	1	7
364.661	1	12
364.832	1	14
365.002	1	10
365.173	1	7
365.344	1	13
365.515	1	19
365.686	1	5
365.857	1	13
366.028	1	18
366.199	1	11
366.370	1	13
366.540	1	15
366.711	1	6
366.882	1	7
367.053	1	5
367.224	1	11
367.395	1	8
367.566	1	6
367.737	1	15
367.908	1	13
368.078	1	17
368.249	1	-1
368.420	1	11
368.591	1	23
368.762	1	9
368.933	1	5
369.104	1	8
369.274	1	7
369.445	1	7
369.616	1	10
369.787	1	11
369.958	1	18
370.129	1	11
370.300	1	7
370.471	1	16
370.641	1	8
370.812	1	13
370.983	1	16
371.154	1	12
371.325	1	15
371.496	1	5
371.667	1	15
371.837	1	8
372.008	1	2
372.179	1	12
372.350	1	16
372.521	1	20
372.692	1	12
372.863	1	13
373.033	1	16
373.204	1	-1
373.375	1	16
373.546	1	13
373.717	1	-2
373.888	1	7
374.059	1	19
374.229	1	15
374.400	1	5
374.571	1	8
374.742	1	12
374.913	1	0
375.084	1	13
375.254	1	19
375.425	1	5
375.596	1	1
375.767	1	12
375.938	1	15
376.109	1	5
376.279	1	5
376.450	1	-1
376.621	1	26
376.792	1	5
376.963	1	15
377.134	1	16
377.304	1	11
377.475	1	8
377.646	1	5
377.817	1	3
377.988	1	14
378.159	1	8
378.329	1	17
378.500	1	9
378.671	1	14
378.842	1	6
379.013	1	22
379.184	1	16
379.354	1	-2
379.525	1	3
379.696	1	10
379.867	1	4
380.038	1	0
380.209	1	1
380.379	1	13
380.550	1	15
380.721	1	26
380.892	1	8
381.063	1	9
381.233	1	2
381.404	1	15
381.575	1	19
381.746	1	10
381.917	1	3
382.087	1	8
382.258	1	19
382.429	1	18
382.600	1	7
382.771	1	11
382.941	1	14
383.112	1	7
383.283	1	8
383.454	1	22
383.625	1	9
383.795	1	5
383.966	1	8
384.137	1	10
384.308	1	19
384.479	1	12
384.649	1	9
384.820	1	11
384.991	1	9
385.162	1	18
385.333	1	14
385.503	1	17
385.674	1	10
385.845	1	18
386.016	1	19
386.187	1	3
386.357	1	23
386.528	1	0
386.699	1	14
386.870	1	14
387.041	1	10
387.211	1	3
387.382	1	11
387.553	1	6
387.724	1	3
387.894	1	5
388.065	1	10
388.236	1	5
388.407	1	15
388.578	1	6
388.748	1	14
388.919	1	27
389.090	1	14
389.261	1	21
389.431	1	19
389.602	1	11
389.773	1	9
389.944	1	8
390.114	1	13
390.285	1	9
390.456	1	-2
390.627	1	14
390.798	1	6
390.968	1	7
391.139	1	16
391.310	1	26
391.481	1	0
391.651	1	20
391.822	1	19
391.993	1	19
392.164	1	2
392.334	1	18
392.505	1	3
392.676	1	21
392.847	1	4
393.017	1	10
393.188	1	9
393.359	1	20
393.530	1	16
393.700	1	13
393.871	1	8
394.042	1	17
394.213	1	27
394.383	1	12
394.554	1	12
394.725	1	19
394.896	1	7
395.066	1	14
395.237	1	14
395.408	1	12
395.579	1	17
395.749	1	20
395.920	1	12
396.091	1	3
396.262	1	20
396.432	1	17
396.603	1	12
396.774	1	6
396.945	1	19
397.115	1	20
397.286	1	8
397.457	1	18
397.627	1	13
397.798	1	4
397.969	1	4
398.140	1	32
398.310	1	19
398.481	1	10
398.652	1	28
398.823	1	7
398.993	1	14
399.164	1	5
399.335	1	12
399.505	1	17
399.676	1	14
399.847	1	14
400.018	1	10
400.188	1	14
400.359	1	15
400.530	1	10
400.700	1	7
400.871	1	24
401.042	1	14
401.213	1	9
401.383	1	3
401.554	1	14
401.725	1	27
401.895	1	19
402.066	1	11
402.237	1	17
402.408	1	30
402.578	1	16
402.749	1	9
402.920	1	3
403.090	1	9
403.261	1	14
403.432	1	28
403.603	1	8
403.773	1	23
403.944	1	10
404.115	1	21
404.285	1	16
404.456	1	8
404.627	1	10
404.797	1	-2
404.968	1	26
405.139	1	17
405.310	1	14
405.480	1	16
405.651	1	22
405.822	1	27
405.992	1	13
406.163	1	19
406.334	1	4
406.504	1	11
406.675	1	5
406.846	1	15
407.016	1	14
407.187	1	23
407.358	1	22
407.528	1	6
407.699	1	12
407.870	1	11
408.041	1	23
408.211	1	10
408.382	1	10
408.553	1	8
408.723	1	14
408.894	1	24
409.065	1	15
409.235	1	15
409.406	1	13
409.577	1	14
409.747	1	11
409.918	1	10
410.089	1	17
410.259	1	21
410.430	1	19
410.601	1	18
410.771	1	19
410.942	1	23
411.113	1	11
411.283	1	16
411.454	1	16
411.625	1	11
411.795	1	19
411.966	1	18
412.137	1	11
412.307	1	12
412.478	1	22
412.649	1	9
412.819	1	9
412.990	1	10
413.161	1	19
413.331	1	13
413.502	1	11
413.672	1	17
413.843	1	19
414.014	1	17
414.184	1	11
414.355	1	20
414.526	1	26
414.696	1	17
414.867	1	19
415.038	1	7
415.208	1	25
415.379	1	12
415.550	1	26
415.720	1	16
415.891	1	14
416.062	1	15
416.232	1	14
416.403	1	17
416.573	1	27
416.744	1	12
416.915	1	20
417.085	1	23
417.256	1	19
417.427	1	17
417.597	1	12
417.768	1	8
417.939	1	18
418.109	1	20
418.280	1	9
418.450	1	11
418.621	1	9
418.792	1	5
418.962	1	12
419.133	1	6
419.304	1	7
419.474	1	12
419.645	1	15
419.815	1	16
419.986	1	8
420.157	1	8
420.327	1	21
420.498	1	13
420.669	1	14
420.839	1	18
421.010	1	26
421.180	1	10
421.351	1	7
421.522	1	8
421.692	1	22
421.863	1	18
422.033	1	15
422.204	1	16
422.375	1	18
422.545	1	15
422.716	1	11
422.886	1	20
423.057	1	12
423.228	1	11
423.398	1	21
423.569	1	15
423.740	1	6
423.910	1	9
424.081	1	11
424.251	1	14
424.422	1	19
424.593	1	5
424.763	1	12
424.934	1	14
425.104	1	11
425.275	1	21
425.445	1	26
425.616	1	8
425.787	1	10
425.957	1	18
426.128	1	-1
426.298	1	2
426.469	1	13
426.640	1	15
426.810	1	9
426.981	1	1
427.151	1	24
427.322	1	18
427.493	1	10
427.663	1	12
427.834	1	16
428.004	1	11
428.175	1	12
428.345	1	11
428.516	1	19
428.687	1	15
428.857	1	8
429.028	1	18
429.198	1	5
429.369	1	15
429.540	1	5
429.710	1	14
429.881	1	8
430.051	1	17
430.222	1	10
430.392	1	27
430.563	1	14
430.734	1	20
430.904	1	12
431.075	1	15
431.245	1	18
431.416	1	14
431.586	1	1
431.757	1	18
431.927	1	17
432.098	1	14
432.269	1	14
432.439	1	32
432.610	1	16
432.780	1	18
432.951	1	9
433.121	1	6
433.292	1	9
433.462	1	13
433.633	1	8
433.804	1	28
433.974	1	1
434.145	1	10
434.315	1	8
434.486	1	16
434.656	1	7
434.827	1	7
434.997	1	13
435.168	1	7
435.339	1	17
435.509	1	12
435.680	1	0
435.850	1	5
436.021	1	4
436.191	1	15
436.362	1	19
436.532	1	15
436.703	1	5
436.873	1	19
437.044	1	5
437.214	1	23
437.385	1	19
437.556	1	14
437.726	1	13
437.897	1	17
438.067	1	6
438.238	1	9
438.408	1	5
438.579	1	23
438.749	1	15
438.920	1	9
439.090	1	20
439.261	1	14
439.431	1	13
439.602	1	15
439.772	1	13
439.943	1	9
440.113	1	13
440.284	1	10
440.455	1	13
440.625	1	22
440.796	1	24
440.966	1	11
441.137	1	15
441.307	1	17
441.478	1	8
441.648	1	6
441.819	1	21
441.989	1	4
442.160	1	6
442.330	1	17
442.501	1	19
442.671	1	9
442.842	1	11
443.012	1	21
443.183	1	7
443.353	1	18
443.524	1	5
443.694	1	5
443.865	1	10
444.035	1	5
444.206	1	15
444.376	1	18
444.547	1	18
444.717	1	10
444.888	1	14
445.058	1	26
445.229	1	16
445.399	1	6
445.570	1	22
445.740	1	11
445.911	1	6
446.081	1	12
446.252	1	18
446.422	1	21
446.593	1	9
446.763	1	22
446.934	1	-3
447.104	1	11
447.275	1	13
447.445	1	11
447.616	1	8
447.786	1	6
447.957	1	13
448.127	1	2
448.298	1	1
448.468	1	11
448.639	1	12
448.809	1	20
448.979	1	2
449.150	1	19
449.320	1	4
449.491	1	2
449.661	1	2
449.832	1	5
450.002	1	7
450.173	1	15
450.343	1	13
450.514	1	15
450.684	1	13
450.855	1	13
451.025	1	7
451.196	1	5
451.366	1	11
451.537	1	14
451.707	1	9
451.878	1	0
452.048	1	1
452.218	1	5
452.389	1	24
452.559	1	15
452.730	1	13
452.900	1	2
453.071	1	16
453.241	1	1
453.412	1	-1
453.582	1	11
453.753	1	7
453.923	1	12
454.093	1	10
454.264	1	15
454.434	1	15
454.605	1	19
454.775	1	-1
454.946	1	10
455.116	1	2
455.287	1	10
455.457	1	10
455.628	1	1
455.798	1	1
455.968	1	14
456.139	1	18
456.309	1	21
456.480	1	1
456.650	1	3
456.821	1	19
456.991	1	7
457.161	1	15
457.332	1	15
457.502	1	11
457.673	1	12
457.843	1	2
458.014	1	17
458.184	1	10
458.355	1	9
458.525	1	11
458.695	1	9
458.866	1	14
459.036	1	12
459.207	1	15
459.377	1	13
459.548	1	19
459.718	1	4
459.888	1	6
460.059	1	18
460.229	1	11
460.400	1	10
460.570	1	24
460.740	1	19
460.911	1	8
461.081	1	8
461.252	1	7
461.422	1	0
461.593	1	8
461.763	1	17
461.933	1	12
462.104	1	18
462.274	1	15
462.445	1	6
462.615	1	16
462.785	1	10
462.956	1	9
463.126	1	14
463.297	1	5
463.467	1	14
463.638	1	4
463.808	1	10
463.978	1	9
464.149	1	16
464.319	1	12
464.490	1	3
464.660	1	19
464.830	1	15
465.001	1	1
465.171	1	-3
465.342	1	0
465.512	1	15
465.682	1	12
465.853	1	17
466.023	1	20
466.194	1	5
466.364	1	13
466.534	1	-5
466.705	1	12
466.875	1	18
467.045	1	18
467.216	1	9
467.386	1	12
467.557	1	6
467.727	1	11
467.897	1	15
468.068	1	10
468.238	1	6
468.409	1	19
468.579	1	10
468.749	1	12
468.920	1	12
469.090	1	3
469.260	1	20
469.431	1	6
469.601	1	7
469.772	1	1
469.942	1	14
470.112	1	10
470.283	1	10
470.453	1	13
470.623	1	9
470.794	1	5
470.964	1	13
471.135	1	18
471.305	1	7
471.475	1	4
471.646	1	10
471.816	1	15
471.986	1	11
472.157	1	-1
472.327	1	12
472.497	1	2
472.668	1	2
472.838	1	2
473.009	1	8
473.179	1	15
473.349	1	5
473.520	1	0
473.690	1	10
473.860	1	9
474.031	1	7
474.201	1	14
474.371	1	16
474.542	1	19
474.712	1	0
474.882	1	6
475.053	1	1
475.223	1	4
475.394	1	6
475.564	1	13
475.734	1	-3
475.905	1	6
476.075	1	5
476.245	1	18
476.416	1	-2
476.586	1	7
476.756	1	10
476.927	1	13
477.097	1	7
477.267	1	11
477.438	1	-1
477.608	1	18
477.778	1	-3
477.949	1	9
478.119	1	5
478.289	1	-1
478.460	1	12
478.630	1	14
478.800	1	13
478.971	1	2
479.141	1	5
479.311	1	4
479.482	1	-1
479.652	1	14
479.822	1	7
479.993	1	19
480.163	1	3
480.333	1	16
480.504	1	8
480.674	1	-3
480.844	1	3
481.015	1	4
481.185	1	17
481.355	1	2
481.525	1	1
481.696	1	4
481.866	1	6
482.036	1	11
482.207	1	6
482.377	1	14
482.547	1	3
482.718	1	7
482.888	1	-3
483.058	1	10
483.229	1	13
483.399	1	2
483.569	1	3
483.740	1	2
483.910	1	11
484.080	1	21
484.250	1	9
484.421	1	8
484.591	1	7
484.761	1	8
484.932	1	14
485.102	1	0
485.272	1	4
485.443	1	18
485.613	1	0
485.783	1	9
485.953	1	-4
486.124	1	8
486.294	1	10
486.464	1	2
486.635	1	0
486.805	1	10
486.975	1	7
487.146	1	14
487.316	1	4
487.486	1	6
487.656	1	17
487.827	1	5
487.997	1	5
488.167	1	6
488.338	1	8
488.508	1	9
488.678	1	7
488.848	1	6
489.019	1	2
489.189	1	2
489.359	1	3
489.529	1	6
489.700	1	-2
489.870	1	4
490.040	1	1
490.211	1	11
490.381	1	18
490.551	1	5
490.721	1	13
490.892	1	12
491.062	1	10
491.232	1	12
491.402	1	0
491.573	1	4
491.743	1	0
491.913	1	11
492.084	1	11
492.254	1	16
492.424	1	-9
492.594	1	9
492.765	1	3
492.935	1	-9
493.105	1	0
493.275	1	9
493.446	1	12
493.616	1	-4
493.786	1	3
493.956	1	3
494.127	1	5
494.297	1	12
494.467	1	2
494.637	1	12
494.808	1	3
494.978	1	0
495.148	1	16
495.318	1	3
495.489	1	11
495.659	1	7
495.829	1	11
495.999	1	-2
496.170	1	4
496.340	1	8
496.510	1	16
496.680	1	9
496.851	1	7
497.021	1	7
497.191	1	1
497.361	1	13
497.532	1	14
497.702	1	1
497.872	1	9
498.042	1	13
498.213	1	8
498.383	1	11
498.553	1	10
498.723	1	1
498.894	1	12
499.064	1	-4
499.234	1	15
499.404	1	8
499.574	1	11
499.745	1	1
499.915	1	6
500.085	1	-3
500.255	1	7
500.426	1	-7
500.596	1	7
500.766	1	6
500.936	1	2
501.106	1	7
501.277	1	13
501.447	1	2
501.617	1	6
501.787	1	11
501.958	1	3
502.128	1	0
502.298	1	10
502.468	1	1
502.638	1	24
502.809	1	14
502.979	1	8
503.149	1	3
503.319	1	14
503.489	1	10
503.660	1	6
503.830	1	15
504.000	1	6
504.170	1	4
504.340	1	-10
504.511	1	8
504.681	1	2
504.851	1	7
505.021	1	6
505.192	1	9
505.362	1	7
505.532	1	6
505.702	1	10
505.872	1	13
506.043	1	-10
506.213	1	-6
506.383	1	-4
506.553	1	10
506.723	1	15
506.893	1	1
507.064	1	5
507.234	1	-4
507.404	1	3
507.574	1	9
507.744	1	2
507.915	1	3
508.085	1	4
508.255	1	8
508.425	1	2
508.595	1	7
508.766	1	10
508.936	1	5
509.106	1	10
509.276	1	-4
509.446	1	4
509.616	1	20
509.787	1	6
509.957	1	6
510.127	1	1
510.297	1	9
510.467	1	0
510.638	1	2
510.808	1	0
510.978	1	-1
511.148	1	-1
511.318	1	10
511.488	1	4
511.659	1	-7
511.829	1	7
511.999	1	1
512.169	1	4
512.339	1	4
512.509	1	10
512.680	1	-1
512.850	1	6
513.020	1	2
513.190	1	6
513.360	1	9
513.530	1	16
513.700	1	9
513.871	1	5
514.041	1	7
514.211	1	11
514.381	1	-5
514.551	1	5
514.721	1	12
514.892	1	0
515.062	1	-9
515.232	1	1
515.402	1	17
515.572	1	-3
515.742	1	12
515.912	1	8
516.083	1	5
516.253	1	0
516.423	1	6
516.593	1	6
516.763	1	4
516.933	1	3
517.104	1	-8
517.274	1	1
517.444	1	19
517.614	1	3
517.784	1	10
517.954	1	2
518.124	1	7
518.294	1	15
518.465	1	4
518.635	1	-1
518.805	1	-7
518.975	1	9
519.145	1	1
519.315	1	9
519.485	1	5
519.656	1	16
519.826	1	8
519.996	1	-3
520.166	1	2
520.336	1	11
520.506	1	6
520.676	1	2
520.846	1	9
521.017	1	-4
521.187	1	4
521.357	1	1
521.527	1	-2
521.697	1	1
521.867	1	-3
522.037	1	6
522.207	1	3
522.377	1	8
522.548	1	4
522.718	1	8
522.888	1	-2
523.058	1	2
523.228	1	8
523.398	1	-1
523.568	1	0
523.738	1	5
523.909	1	2
524.079	1	8
524.249	1	3
524.419	1	5
524.589	1	9
524.759	1	15
524.929	1	9
525.099	1	9
525.269	1	0
525.439	1	-3
525.610	1	8
525.780	1	22
525.950	1	1
526.120	1	11
526.290	1	11
526.460	1	1
526.630	1	7
526.800	1	-6
526.970	1	6
527.140	1	5
527.311	1	6
527.481	1	-5
527.651	1	-1
527.821	1	0
527.991	1	7
528.161	1	12
528.331	1	-2
528.501	1	9
528.671	1	11
528.841	1	7
529.011	1	-3
529.181	1	11
529.352	1	5
529.522	1	-7
529.692	1	-2
529.862	1	14
530.032	1	1
530.202	1	7
530.372	1	3
530.542	1	8
530.712	1	-13
530.882	1	-6
531.052	1	4
531.222	1	0
531.392	1	5
531.563	1	5
531.733	1	12
531.903	1	8
532.073	1	-1
532.243	1	12
532.413	1	2
532.583	1	0
532.753	1	1
532.923	1	1
533.093	1	-5
533.263	1	-2
533.433	1	9
533.603	1	9
533.773	1	11
533.943	1	6
534.113	1	3
534.284	1	10
534.454	1	1
534.624	1	6
534.794	1	7
534.964	1	6
535.134	1	-3
535.304	1	12
535.474	1	-2
535.644	1	6
535.814	1	-3
535.984	1	-1
536.154	1	7
536.324	1	-1
536.494	1	9
536.664	1	-5
536.834	1	-1
537.004	1	4
537.174	1	1
537.344	1	14
537.514	1	3
537.685	1	9
537.855	1	0
538.025	1	-2
538.195	1	3
538.365	1	6
538.535	1	-2
538.705	1	2
538.875	1	1
539.045	1	5
539.215	1	13
539.385	1	5
539.555	1	-6
539.725	1	4
539.895	1	15
540.065	1	7
540.235	1	-7
540.405	1	12
540.575	1	5
540.745	1	1
540.915	1	8
541.085	1	4
541.255	1	7
541.425	1	-4
541.595	1	-16
541.765	1	1
541.935	1	7
542.105	1	2
542.275	1	5
542.445	1	4
542.615	1	13
542.785	1	7
542.955	1	6
543.125	1	-2
543.295	1	11
543.465	1	-2
543.635	1	-7
543.805	1	9
543.975	1	-1
544.145	1	6
544.315	1	-10
544.485	1	0
544.655	1	-1
544.825	1	5
544.995	1	11
545.165	1	10
545.335	1	1
545.505	1	5
545.675	1	3
545.845	1	-12
546.015	1	6
546.185	1	-2
546.355	1	-5
546.525	1	0
546.695	1	10
546.865	1	0
547.035	1	1
547.205	1	9
547.375	1	6
547.545	1	-1
547.715	1	4
547.885	1	13
548.055	1	1
548.225	1	3
548.395	1	10
548.565	1	4
548.735	1	0
548.905	1	-2
549.075	1	9
549.245	1	6
549.415	1	3
549.585	1	8
549.755	1	7
549.925	1	0
550.095	1	0
550.265	1	0
550.435	1	3
550.605	1	9
550.775	1	1
550.945	1	0
551.115	1	-10
551.285	1	-3
551.455	1	-5
551.625	1	8
551.795	1	8
551.965	1	4
552.135	1	-7
552.305	1	6
552.475	1	6
552.645	1	14
552.815	1	10
552.985	1	1
553.155	1	-8
553.325	1	6
553.495	1	8
553.665	1	1
553.835	1	0
554.004	1	-5
554.174	1	1
554.344	1	3
554.514	1	7
554.684	1	-5
554.854	1	-9
555.024	1	9
555.194	1	12
555.364	1	4
555.534	1	5
555.704	1	-5
555.874	1	2
556.044	1	4
556.214	1	-12
556.384	1	7
556.554	1	0
556.724	1	-9
556.894	1	7
557.064	1	5
557.234	1	8
557.404	1	7
557.573	1	4
557.743	1	3
557.913	1	-4
558.083	1	-3
558.253	1	1
558.423	1	9
558.593	1	5
558.763	1	6
558.933	1	9
559.103	1	-4
559.273	1	-1
559.443	1	-10
559.613	1	-6
559.783	1	14
559.953	1	3
560.122	1	9
560.292	1	9
560.462	1	5
560.632	1	4
560.802	1	4
560.972	1	6
561.142	1	2
561.312	1	-2
561.482	1	-5
561.652	1	0
561.822	1	-1
561.992	1	8
562.162	1	-2
562.331	1	-1
562.501	1	4
562.671	1	10
562.841	1	13
563.011	1	7
563.181	1	10
563.351	1	0
563.521	1	10
563.691	1	-6
563.861	1	6
564.031	1	-7
564.201	1	-3
564.370	1	11
564.540	1	2
564.710	1	8
564.880	1	9
565.050	1	-3
565.220	1	0
565.390	1	5
565.560	1	-2
565.730	1	4
565.900	1	-5
566.069	1	9
566.239	1	-6
566.409	1	8
566.579	1	7
566.749	1	2
566.919	1	-3
567.089	1	-3
567.259	1	0
567.429	1	1
567.599	1	-2
567.768	1	14
567.938	1	-8
568.108	1	12
568.278	1	3
568.448	1	16
568.618	1	4
568.788	1	-1
568.958	1	13
569.128	1	7
569.297	1	5
569.467	1	0
569.637	1	-5
569.807	1	1
569.977	1	9
570.147	1	-9
570.317	1	6
570.487	1	2
570.656	1	6
570.826	1	8
570.996	1	-8
571.166	1	0
571.336	1	11
571.506	1	-4
571.676	1	13
571.846	1	3
572.015	1	3
572.185	1	5
572.355	1	1
572.525	1	2
572.695	1	11
572.865	1	-1
573.035	1	-5
573.205	1	-6
573.374	1	0
573.544	1	-7
573.714	1	9
573.884	1	7
574.054	1	12
574.224	1	8
574.394	1	-5
574.563	1	0
574.733	1	-3
574.903	1	0
575.073	1	0
575.243	1	-4
575.413	1	5
575.583	1	-1
575.752	1	9
575.922	1	-6
576.092	1	3
576.262	1	-6
576.432	1	9
576.602	1	-4
576.772	1	-6
576.941	1	0
577.111	1	2
577.281	1	4
577.451	1	10
577.621	1	-5
577.791	1	-8
577.960	1	10
578.130	1	-9
578.300	1	14
578.470	1	-3
578.640	1	8
578.810	1	1
578.979	1	6
579.149	1	-7
579.319	1	1
579.489	1	5
579.659	1	1
579.829	1	5
579.998	1	3
580.168	1	-4
580.338	1	6
580.508	1	0
580.678	1	2
580.848	1	3
581.017	1	20
581.187	1	7
581.357	1	2
581.527	1	-6
581.697	1	1
581.867	1	-3
582.036	1	-9
582.206	1	2
582.376	1	-1
582.546	1	-2
582.716	1	0
582.885	1	10
583.055	1	-3
583.225	1	-7
583.395	1	2
583.565	1	12
583.735	1	-3
583.904	1	-2
584.074	1	-5
584.244	1	6
584.414	1	3
584.584	1	-12
584.753	1	2
584.923	1	3
585.093	1	-1
585.263	1	1
585.433	1	-1
585.602	1	4
585.772	1	2
585.942	1	-5
586.112	1	1
586.282	1	4
586.451	1	-13
586.621	1	8
586.791	1	-3
586.961	1	-3
587.131	1	10
587.300	1	-16
587.470	1	-1
587.640	1	1
587.810	1	-1
587.980	1	8
588.149	1	9
588.319	1	2
588.489	1	1
588.659	1	-5
588.829	1	1
588.998	1	5
589.168	1	5
589.338	1	1
589.508	1	6
589.677	1	0
589.847	1	5
590.017	1	3
590.187	1	-3
590.357	1	-1
590.526	1	11
590.696	1	-1
590.866	1	4
591.036	1	0
591.205	1	-6
591.375	1	5
591.545	1	1
591.715	1	8
591.885	1	4
592.054	1	4
592.224	1	13
592.394	1	-3
592.564	1	-9
592.733	1	6
592.903	1	3
593.073	1	7
593.243	1	7
593.412	1	-6
593.582	1	4
593.752	1	4
593.922	1	1
594.091	1	11
594.261	1	5
594.431	1	-2
594.601	1	0
594.771	1	2
594.940	1	9
595.110	1	-1
595.280	1	-3
595.450	1	-5
595.619	1	6
595.789	1	-1
595.959	1	2
596.129	1	2
596.298	1	6
596.468	1	2
596.638	1	17
596.808	1	5
596.977	1	8
597.147	1	11
597.317	1	5
597.487	1	-2
597.656	1	-3
597.826	1	-2
597.996	1	14
598.166	1	0
598.335	1	7
598.505	1	5
598.675	1	-7
598.844	1	-4
599.014	1	5
599.184	1	21
599.354	1	-2
599.523	1	-2
599.693	1	3
599.863	1	2
600.033	1	3
600.202	1	0
600.372	1	-7
600.542	1	14
600.712	1	2
600.881	1	0
601.051	1	-6
601.221	1	-2
601.390	1	10
601.560	1	-2
601.730	1	0
601.900	1	5
602.069	1	1
602.239	1	-8
602.409	1	4
602.578	1	5
602.748	1	10
602.918	1	4
603.088	1	5
603.257	1	12
603.427	1	2
603.597	1	6
603.767	1	-2
603.936	1	2
604.106	1	1
604.276	1	1
604.445	1	-6
604.615	1	-8
604.785	1	-6
604.954	1	9
605.124	1	3
605.294	1	1
605.464	1	7
605.633	1	8
605.803	1	-1
605.973	1	-3
606.142	1	7
606.312	1	0
606.482	1	-1
606.652	1	2
606.821	1	8
606.991	1	5
607.161	1	15
607.330	1	-12
607.500	1	10
607.670	1	-3
607.839	1	3
608.009	1	-4
608.179	1	-3
608.348	1	10
608.518	1	5
608.688	1	5
608.858	1	10
609.027	1	-5
609.197	1	13
609.367	1	4
609.536	1	4
609.706	1	-1
609.876	1	-1
610.045	1	7
610.215	1	2
610.385	1	6
610.554	1	-1
610.724	1	12
610.894	1	12
611.063	1	-5
611.233	1	10
611.403	1	2
611.572	1	12
611.742	1	-7
611.912	1	1
612.081	1	7
612.251	1	14
612.421	1	3
612.590	1	1
612.760	1	5
612.930	1	-1
613.099	1	6
613.269	1	2
613.439	1	7
613.608	1	21
613.778	1	1
613.948	1	5
614.117	1	2
614.287	1	10
614.457	1	-2
614.626	1	0
614.796	1	-6
614.966	1	2
615.135	1	-6
615.305	1	9
615.475	1	3
615.644	1	14
615.814	1	-3
615.984	1	6
616.153	1	8
616.323	1	-7
616.493	1	7
616.662	1	6
616.832	1	3
617.002	1	6
617.171	1	-15
617.341	1	2
617.511	1	9
617.680	1	0
617.850	1	3
618.019	1	6
618.189	1	5
618.359	1	2
618.528	1	15
618.698	1	3
618.868	1	12
619.037	1	-1
619.207	1	0
619.377	1	3
619.546	1	8
619.716	1	-5
619.885	1	18
620.055	1	6
620.225	1	13
620.394	1	8
620.564	1	-1
620.734	1	3
620.903	1	8
621.073	1	3
621.242	1	-11
621.412	1	5
621.582	1	-5
621.751	1	1
621.921	1	1
622.091	1	4
622.260	1	10
622.430	1	8
622.599	1	4
622.769	1	6
622.939	1	6
623.108	1	-1
623.278	1	6
623.448	1	2
623.617	1	-4
623.787	1	15
623.956	1	1
624.126	1	18
624.296	1	2
624.465	1	0
624.635	1	-1
624.804	1	-2
624.974	1	-1
625.144	1	5
625.313	1	-12
625.483	1	-6
625.652	1	2
625.822	1	1
625.992	1	4
626.161	1	-2
626.331	1	2
626.501	1	11
626.670	1	8
626.840	1	4
627.009	1	-8
627.179	1	3
627.348	1	9
627.518	1	8
627.688	1	7
627.857	1	1
628.027	1	16
628.196	1	9
628.366	1	0
628.536	1	-4
628.705	1	-1
628.875	1	8
629.044	1	6
629.214	1	1
629.384	1	7
629.553	1	9
629.723	1	3
629.892	1	7
630.062	1	6
630.232	1	-6
630.401	1	1
630.571	1	4
630.740	1	6
630.910	1	3
631.079	1	6
631.249	1	-3
631.419	1	6
631.588	1	-11
631.758	1	0
631.927	1	-2
632.097	1	12
632.266	1	8
632.436	1	5
632.606	1	10
632.775	1	6
632.945	1	-2
633.114	1	8
633.284	1	0
633.453	1	4
633.623	1	5
633.793	1	0
633.962	1	-4
634.132	1	10
634.301	1	9
634.471	1	13
634.640	1	-2
634.810	1	10
634.979	1	5
635.149	1	-1
635.319	1	9
635.488	1	-4
635.658	1	3
635.827	1	6
635.997	1	-5
636.166	1	14
636.336	1	5
636.505	1	15
636.675	1	-4
636.845	1	-2
637.014	1	9
637.184	1	5
637.353	1	2
637.523	1	6
637.692	1	2
637.862	1	-7
638.031	1	3
638.201	1	4
638.370	1	5
638.540	1	4
638.710	1	11
638.879	1	2
639.049	1	-1
639.218	1	-1
639.388	1	11
639.557	1	-4
639.727	1	1
639.896	1	3
640.066	1	6
640.235	1	8
640.405	1	0
640.574	1	2
640.744	1	7
640.914	1	10
641.083	1	-1
641.253	1	4
641.422	1	8
641.592	1	0
641.761	1	8
641.931	1	-8
642.100	1	14
642.270	1	4
642.439	1	-3
642.609	1	3
642.778	1	6
642.948	1	3
643.117	1	3
643.287	1	-5
643.456	1	-1
643.626	1	7
643.795	1	4
643.965	1	0
644.134	1	9
644.304	1	8
644.473	1	6
644.643	1	0
644.812	1	0
644.982	1	5
645.151	1	1
645.321	1	6
645.490	1	14
645.660	1	6
645.829	1	-4
645.999	1	11
646.168	1	4
646.338	1	6
646.507	1	-10
646.677	1	11
646.846	1	4
647.016	1	13
647.185	1	1
647.355	1	4
647.524	1	-3
647.694	1	6
647.863	1	-2
648.033	1	9
648.202	1	15
648.372	1	-1
648.541	1	7
648.711	1	10
648.880	1	4
649.050	1	3
649.219	1	-8
649.389	1	7
649.558	1	0
649.728	1	3
649.897	1	-6
650.067	1	-3
650.236	1	11
650.406	1	-1
650.575	1	4
650.745	1	-2
650.914	1	5
651.084	1	-3
651.253	1	1
651.423	1	-4
651.592	1	1
651.762	1	6
651.931	1	12
652.101	1	-7
652.270	1	6
652.440	1	1
652.609	1	-3
652.778	1	3
652.948	1	-2
653.117	1	20
653.287	1	-5
653.456	1	7
653.626	1	2
653.795	1	16
653.965	1	5
654.134	1	-4
654.304	1	5
654.473	1	5
654.643	1	10
654.812	1	-7
654.982	1	9
655.151	1	9
655.320	1	1
655.490	1	-3
655.659	1	0
655.829	1	-3
655.998	1	2
656.168	1	3
656.337	1	2
656.507	1	1
656.676	1	4
656.846	1	1
657.015	1	16
657.184	1	-7
657.354	1	3
657.523	1	7
657.693	1	4
657.862	1	4
658.032	1	-1
658.201	1	4
658.371	1	3
658.540	1	13
658.709	1	6
658.879	1	-4
659.048	1	-4
659.218	1	0
659.387	1	2
659.557	1	2
659.726	1	8
659.895	1	-1
660.065	1	5
660.234	1	3
660.404	1	12
660.573	1	4
660.743	1	4
660.912	1	10
661.081	1	2
661.251	1	-9
661.420	1	9
661.590	1	6
661.759	1	-4
661.929	1	7
662.098	1	1
662.267	1	15
662.437	1	11
662.606	1	6
662.776	1	9
662.945	1	10
663.115	1	2
663.284	1	-1
663.453	1	-1
663.623	1	10
663.792	1	-2
663.962	1	3
664.131	1	1
664.300	1	-1
664.470	1	0
664.639	1	2
664.809	1	0
664.978	1	9
665.148	1	7
665.317	1	2
665.486	1	5
665.656	1	0
665.825	1	3
665.995	1	10
666.164	1	8
666.333	1	9
666.503	1	9
666.672	1	-2
666.842	1	-4
667.011	1	3
667.180	1	-6
667.350	1	12
667.519	1	-3
667.689	1	14
667.858	1	3
668.027	1	0
668.197	1	-1
668.366	1	13
668.536	1	1
668.705	1	7
668.874	1	0
669.044	1	6
669.213	1	4
669.382	1	11
669.552	1	-2
669.721	1	-1
669.891	1	-6
670.060	1	3
670.229	1	-1
670.399	1	9
670.568	1	1
670.738	1	6
670.907	1	0
671.076	1	4
671.246	1	-9
671.415	1	10
671.584	1	4
671.754	1	13
671.923	1	-5
672.093	1	2
672.262	1	-5
672.431	1	20
672.601	1	-6
672.770	1	1
672.939	1	-3
673.109	1	1
673.278	1	9
673.448	1	6
673.617	1	4
673.786	1	1
