325.333	1	9
325.504	1	21
325.675	1	6
325.846	1	10
326.017	1	13
326.188	1	13
326.359	1	14
326.531	1	4
326.702	1	11
326.873	1	6
327.044	1	8
327.215	1	0
327.386	1	11
327.557	1	15
327.728	1	5
327.899	1	5
328.070	1	21
328.241	1	19
328.412	1	14
328.583	1	11
328.754	1	11
328.926	1	7
329.097	1	9
329.268	1	16
329.439	1	15
329.610	1	14
329.781	1	18
329.952	1	11
330.123	1	13
330.294	1	13
330.465	1	18
330.636	1	6
330.807	1	12
330.978	1	22
331.149	1	16
331.320	1	22
331.492	1	21
331.663	1	13
331.834	1	13
332.005	1	14
332.176	1	7
332.347	1	21
332.518	1	8
332.689	1	10
332.860	1	9
333.031	1	23
333.202	1	29
333.373	1	20
333.544	1	5
333.715	1	8
333.886	1	16
334.057	1	17
334.228	1	23
334.399	1	16
334.570	1	20
334.741	1	17
334.912	1	19
335.084	1	17
335.255	1	11
335.426	1	13
335.597	1	23
335.768	1	3
335.939	1	20
336.110	1	13
336.281	1	17
336.452	1	16
336.623	1	21
336.794	1	14
336.965	1	17
337.136	1	11
337.307	1	17
337.478	1	15
337.649	1	11
337.820	1	20
337.991	1	18
338.162	1	23
338.333	1	15
338.504	1	9
338.675	1	13
338.846	1	10
339.017	1	21
339.188	1	20
339.359	1	7
339.530	1	14
339.701	1	14
339.872	1	23
340.043	1	21
340.214	1	16
340.385	1	24
340.556	1	12
340.727	1	16
340.898	1	15
341.069	1	19
341.240	1	26
341.411	1	23
341.582	1	26
341.753	1	14
341.924	1	25
342.095	1	13
342.266	1	3
342.437	1	16
342.608	1	10
342.779	1	6
342.950	1	16
343.121	1	23
343.292	1	19
343.463	1	28
343.634	1	32
343.805	1	8
343.976	1	15
344.147	1	25
344.318	1	17
344.489	1	23
344.660	1	23
344.831	1	12
345.002	1	16
345.173	1	24
345.344	1	25
345.515	1	15
345.686	1	19
345.857	1	36
346.028	1	25
346.199	1	16
346.370	1	17
346.541	1	33
346.712	1	22
346.883	1	20
347.054	1	19
347.225	1	19
347.396	1	30
347.567	1	17
347.738	1	20
347.909	1	35
348.080	1	18
348.251	1	18
348.422	1	30
348.593	1	17
348.764	1	17
348.935	1	22
349.106	1	22
349.277	1	42
349.448	1	26
349.619	1	28
349.790	1	39
349.961	1	30
350.132	1	15
350.303	1	33
350.474	1	28
350.645	1	14
350.816	1	31
350.987	1	4
351.157	1	25
351.328	1	31
351.499	1	25
351.670	1	23
351.841	1	29
352.012	1	28
352.183	1	21
352.354	1	38
352.525	1	23
352.696	1	35
352.867	1	21
353.038	1	34
353.209	1	41
353.380	1	36
353.551	1	37
353.722	1	25
353.893	1	36
354.064	1	33
354.235	1	27
354.406	1	30
354.576	1	26
354.747	1	28
354.918	1	36
355.089	1	38
355.260	1	27
355.431	1	38
355.602	1	38
355.773	1	28
355.944	1	30
356.115	1	22
356.286	1	26
356.457	1	39
356.628	1	42
356.799	1	17
356.970	1	35
357.141	1	46
357.311	1	36
357.482	1	35
357.653	1	32
357.824	1	45
357.995	1	41
358.166	1	37
358.337	1	31
358.508	1	45
358.679	1	39
358.850	1	34
359.021	1	24
359.192	1	32
359.363	1	31
359.533	1	34
359.704	1	36
359.875	1	49
360.046	1	34
360.217	1	29
360.388	1	37
360.559	1	42
360.730	1	42
360.901	1	31
361.072	1	35
361.243	1	37
361.414	1	36
361.584	1	38
361.755	1	46
361.926	1	30
362.097	1	36
362.268	1	28
362.439	1	36
362.610	1	35
362.781	1	31
362.952	1	38
363.123	1	54
363.293	1	43
363.464	1	22
363.635	1	43
363.806	1	41
363.977	1	33
364.148	1	31
364.319	1	32
364.490	1	40
364.661	1	43
364.832	1	40
365.002	1	28
365.173	1	43
365.344	1	37
365.515	1	34
365.686	1	41
365.857	1	48
366.028	1	33
366.199	1	47
366.370	1	42
366.540	1	48
366.711	1	39
366.882	1	31
367.053	1	36
367.224	1	36
367.395	1	33
367.566	1	49
367.737	1	51
367.908	1	39
368.078	1	51
368.249	1	35
368.420	1	32
368.591	1	45
368.762	1	37
368.933	1	39
369.104	1	44
369.274	1	39
369.445	1	48
369.616	1	40
369.787	1	44
369.958	1	41
370.129	1	46
370.300	1	40
370.471	1	48
370.641	1	41
370.812	1	42
370.983	1	46
371.154	1	48
371.325	1	57
371.496	1	44
371.667	1	39
371.837	1	46
372.008	1	37
372.179	1	48
372.350	1	47
372.521	1	41
372.692	1	32
372.863	1	45
373.033	1	44
373.204	1	43
373.375	1	47
373.546	1	55
373.717	1	39
373.888	1	43
374.059	1	49
374.229	1	50
374.400	1	42
374.571	1	46
374.742	1	41
374.913	1	30
375.084	1	52
375.254	1	56
375.425	1	38
375.596	1	35
375.767	1	42
375.938	1	43
376.109	1	24
376.279	1	32
376.450	1	44
376.621	1	54
376.792	1	40
376.963	1	49
377.134	1	51
377.304	1	46
377.475	1	44
377.646	1	44
377.817	1	26
377.988	1	36
378.159	1	49
378.329	1	41
378.500	1	45
378.671	1	45
378.842	1	42
379.013	1	54
379.184	1	59
379.354	1	33
379.525	1	42
379.696	1	38
379.867	1	45
380.038	1	32
380.209	1	36
380.379	1	51
380.550	1	47
380.721	1	44
380.892	1	46
381.063	1	48
381.233	1	36
381.404	1	48
381.575	1	45
381.746	1	47
381.917	1	41
382.087	1	50
382.258	1	43
382.429	1	46
382.600	1	50
382.771	1	60
382.941	1	39
383.112	1	43
383.283	1	59
383.454	1	45
383.625	1	51
383.795	1	54
383.966	1	48
384.137	1	53
384.308	1	50
384.479	1	45
384.649	1	49
384.820	1	48
384.991	1	48
385.162	1	45
385.333	1	45
385.503	1	55
385.674	1	47
385.845	1	54
386.016	1	54
386.187	1	44
386.357	1	67
386.528	1	40
386.699	1	49
386.870	1	53
387.041	1	43
387.211	1	49
387.382	1	39
387.553	1	56
387.724	1	35
387.894	1	46
388.065	1	46
388.236	1	45
388.407	1	53
388.578	1	43
388.748	1	54
388.919	1	53
389.090	1	52
389.261	1	60
389.431	1	52
389.602	1	48
389.773	1	47
389.944	1	51
390.114	1	53
390.285	1	46
390.456	1	47
390.627	1	57
390.798	1	62
390.968	1	46
391.139	1	54
391.310	1	61
391.481	1	48
391.651	1	52
391.822	1	52
391.993	1	52
392.164	1	44
392.334	1	57
392.505	1	43
392.676	1	54
392.847	1	64
393.017	1	63
393.188	1	45
393.359	1	62
393.530	1	60
393.700	1	59
393.871	1	51
394.042	1	47
394.213	1	58
394.383	1	63
394.554	1	43
394.725	1	57
394.896	1	58
395.066	1	59
395.237	1	59
395.408	1	59
395.579	1	57
395.749	1	64
395.920	1	52
396.091	1	50
396.262	1	56
396.432	1	53
396.603	1	45
396.774	1	50
396.945	1	71
397.115	1	64
397.286	1	54
397.457	1	58
397.627	1	54
397.798	1	47
397.969	1	52
398.140	1	60
398.310	1	59
398.481	1	51
398.652	1	52
398.823	1	53
398.993	1	59
399.164	1	60
399.335	1	60
399.505	1	41
399.676	1	45
399.847	1	48
400.018	1	51
400.188	1	58
400.359	1	48
400.530	1	47
400.700	1	53
400.871	1	68
401.042	1	64
401.213	1	42
401.383	1	42
401.554	1	58
401.725	1	64
401.895	1	61
402.066	1	59
402.237	1	64
402.408	1	58
402.578	1	65
402.749	1	61
402.920	1	58
403.090	1	59
403.261	1	67
403.432	1	58
403.603	1	48
403.773	1	78
403.944	1	61
404.115	1	56
404.285	1	62
404.456	1	60
404.627	1	54
404.797	1	47
404.968	1	67
405.139	1	54
405.310	1	63
405.480	1	56
405.651	1	63
405.822	1	62
405.992	1	64
406.163	1	64
406.334	1	56
406.504	1	51
406.675	1	59
406.846	1	51
407.016	1	53
407.187	1	63
407.358	1	60
407.528	1	51
407.699	1	69
407.870	1	52
408.041	1	58
408.211	1	49
408.382	1	59
408.553	1	56
408.723	1	65
408.894	1	61
409.065	1	58
409.235	1	63
409.406	1	59
409.577	1	71
409.747	1	45
409.918	1	59
410.089	1	57
410.259	1	59
410.430	1	64
410.601	1	56
410.771	1	66
410.942	1	67
411.113	1	53
411.283	1	66
411.454	1	56
411.625	1	56
411.795	1	60
411.966	1	64
412.137	1	50
412.307	1	60
412.478	1	70
412.649	1	65
412.819	1	54
412.990	1	64
413.161	1	60
413.331	1	63
413.502	1	71
413.672	1	58
413.843	1	72
414.014	1	65
414.184	1	58
414.355	1	67
414.526	1	73
414.696	1	67
414.867	1	68
415.038	1	52
415.208	1	63
415.379	1	64
415.550	1	67
415.720	1	67
415.891	1	59
416.062	1	59
416.232	1	57
416.403	1	54
416.573	1	63
416.744	1	56
416.915	1	71
417.085	1	56
417.256	1	59
417.427	1	62
417.597	1	57
417.768	1	49
417.939	1	66
418.109	1	52
418.280	1	50
418.450	1	56
418.621	1	65
418.792	1	56
418.962	1	54
419.133	1	52
419.304	1	53
419.474	1	54
419.645	1	63
419.815	1	66
419.986	1	64
420.157	1	56
420.327	1	60
420.498	1	46
420.669	1	53
420.839	1	51
421.010	1	61
421.180	1	59
421.351	1	52
421.522	1	55
421.692	1	72
421.863	1	59
422.033	1	63
422.204	1	61
422.375	1	57
422.545	1	48
422.716	1	57
422.886	1	57
423.057	1	43
423.228	1	52
423.398	1	54
423.569	1	55
423.740	1	49
423.910	1	49
424.081	1	47
424.251	1	51
424.422	1	55
424.593	1	63
424.763	1	62
424.934	1	55
425.104	1	62
425.275	1	58
425.445	1	56
425.616	1	54
425.787	1	54
425.957	1	53
426.128	1	43
426.298	1	47
426.469	1	49
426.640	1	62
426.810	1	39
426.981	1	54
427.151	1	65
427.322	1	54
427.493	1	48
427.663	1	50
427.834	1	52
428.004	1	48
428.175	1	60
428.345	1	56
428.516	1	60
428.687	1	56
428.857	1	50
429.028	1	47
429.198	1	51
429.369	1	53
429.540	1	53
429.710	1	51
429.881	1	53
430.051	1	66
430.222	1	53
430.392	1	57
430.563	1	55
430.734	1	48
430.904	1	57
431.075	1	56
431.245	1	53
431.416	1	54
431.586	1	45
431.757	1	52
431.927	1	56
432.098	1	56
432.269	1	51
432.439	1	56
432.610	1	55
432.780	1	59
432.951	1	46
433.121	1	54
433.292	1	36
433.462	1	52
433.633	1	39
433.804	1	51
433.974	1	46
434.145	1	49
434.315	1	44
434.486	1	55
434.656	1	47
434.827	1	50
434.997	1	54
435.168	1	50
435.339	1	51
435.509	1	68
435.680	1	45
435.850	1	51
436.021	1	48
436.191	1	52
436.362	1	50
436.532	1	50
436.703	1	53
436.873	1	52
437.044	1	57
437.214	1	63
437.385	1	55
437.556	1	60
437.726	1	45
437.897	1	41
438.067	1	52
438.238	1	41
438.408	1	52
438.579	1	59
438.749	1	45
438.920	1	47
439.090	1	51
439.261	1	48
439.431	1	52
439.602	1	43
439.772	1	52
439.943	1	56
440.113	1	45
440.284	1	49
440.455	1	55
440.625	1	63
440.796	1	51
440.966	1	35
441.137	1	49
441.307	1	62
441.478	1	46
441.648	1	51
441.819	1	47
441.989	1	48
442.160	1	29
442.330	1	53
442.501	1	52
442.671	1	45
442.842	1	36
443.012	1	59
443.183	1	47
443.353	1	41
443.524	1	43
443.694	1	52
443.865	1	41
444.035	1	44
444.206	1	46
444.376	1	56
444.547	1	51
444.717	1	48
444.888	1	48
445.058	1	60
445.229	1	50
445.399	1	59
445.570	1	56
445.740	1	48
445.911	1	27
446.081	1	44
446.252	1	43
446.422	1	46
446.593	1	38
446.763	1	52
446.934	1	46
447.104	1	50
447.275	1	48
447.445	1	36
447.616	1	46
447.786	1	48
447.957	1	43
448.127	1	42
448.298	1	34
448.468	1	42
448.639	1	54
448.809	1	50
448.979	1	38
449.150	1	48
449.320	1	45
449.491	1	51
449.661	1	43
449.832	1	40
450.002	1	42
450.173	1	44
450.343	1	54
450.514	1	46
450.684	1	42
450.855	1	46
451.025	1	46
451.196	1	33
451.366	1	39
451.537	1	41
451.707	1	47
451.878	1	37
452.048	1	33
452.218	1	49
452.389	1	42
452.559	1	48
452.730	1	41
452.900	1	49
453.071	1	41
453.241	1	44
453.412	1	34
453.582	1	40
453.753	1	34
453.923	1	52
454.093	1	44
454.264	1	48
454.434	1	44
454.605	1	49
454.775	1	37
454.946	1	44
455.116	1	33
455.287	1	47
455.457	1	48
455.628	1	35
455.798	1	37
455.968	1	40
456.139	1	45
456.309	1	48
456.480	1	36
456.650	1	26
456.821	1	45
456.991	1	28
457.161	1	40
457.332	1	51
457.502	1	50
457.673	1	52
457.843	1	25
458.014	1	42
458.184	1	31
458.355	1	47
458.525	1	34
458.695	1	40
458.866	1	38
459.036	1	50
459.207	1	44
459.377	1	40
459.548	1	47
459.718	1	31
459.888	1	42
460.059	1	48
460.229	1	31
460.400	1	29
460.570	1	47
460.740	1	35
460.911	1	35
461.081	1	29
461.252	1	40
461.422	1	31
461.593	1	35
461.763	1	41
461.933	1	41
462.104	1	37
462.274	1	38
462.445	1	29
462.615	1	50
462.785	1	30
462.956	1	38
463.126	1	40
463.297	1	44
463.467	1	29
463.638	1	41
463.808	1	40
463.978	1	26
464.149	1	46
464.319	1	40
464.490	1	31
464.660	1	48
464.830	1	36
465.001	1	40
465.171	1	29
465.342	1	31
465.512	1	42
465.682	1	40
465.853	1	36
466.023	1	50
466.194	1	36
466.364	1	30
466.534	1	30
466.705	1	23
466.875	1	33
467.045	1	41
467.216	1	29
467.386	1	23
467.557	1	42
467.727	1	39
467.897	1	53
468.068	1	34
468.238	1	38
468.409	1	37
468.579	1	42
468.749	1	37
468.920	1	47
469.090	1	29
469.260	1	45
469.431	1	27
469.601	1	27
469.772	1	33
469.942	1	41
470.112	1	34
470.283	1	38
470.453	1	40
470.623	1	29
470.794	1	30
470.964	1	38
471.135	1	35
471.305	1	29
471.475	1	37
471.646	1	42
471.816	1	38
471.986	1	33
472.157	1	33
472.327	1	43
472.497	1	38
472.668	1	28
472.838	1	41
473.009	1	37
473.179	1	41
473.349	1	36
473.520	1	27
473.690	1	27
473.860	1	27
474.031	1	30
474.201	1	25
474.371	1	47
474.542	1	39
474.712	1	23
474.882	1	30
475.053	1	26
475.223	1	23
475.394	1	21
475.564	1	34
475.734	1	24
475.905	1	23
476.075	1	24
476.245	1	20
476.416	1	24
476.586	1	28
476.756	1	33
476.927	1	30
477.097	1	23
477.267	1	31
477.438	1	14
477.608	1	26
477.778	1	36
477.949	1	29
478.119	1	18
478.289	1	18
478.460	1	27
478.630	1	36
478.800	1	30
478.971	1	25
479.141	1	26
479.311	1	26
479.482	1	16
479.652	1	35
479.822	1	19
479.993	1	39
480.163	1	33
480.333	1	45
480.504	1	31
480.674	1	26
480.844	1	27
481.015	1	32
481.185	1	30
481.355	1	18
481.525	1	24
481.696	1	26
481.866	1	23
482.036	1	31
482.207	1	15
482.377	1	28
482.547	1	29
482.718	1	20
482.888	1	20
483.058	1	41
483.229	1	25
483.399	1	21
483.569	1	29
483.740	1	20
483.910	1	28
484.080	1	39
484.250	1	26
484.421	1	31
484.591	1	27
484.761	1	13
484.932	1	33
485.102	1	16
485.272	1	24
485.443	1	27
485.613	1	15
485.783	1	13
485.953	1	19
486.124	1	23
486.294	1	31
486.464	1	20
486.635	1	13
486.805	1	34
486.975	1	19
487.146	1	21
487.316	1	20
487.486	1	22
487.656	1	39
487.827	1	37
487.997	1	22
488.167	1	37
488.338	1	27
488.508	1	16
488.678	1	32
488.848	1	23
489.019	1	19
489.189	1	28
489.359	1	17
489.529	1	17
489.700	1	26
489.870	1	23
490.040	1	6
490.211	1	24
490.381	1	36
490.551	1	17
490.721	1	29
490.892	1	39
491.062	1	22
491.232	1	18
491.402	1	6
491.573	1	26
491.743	1	22
491.913	1	11
492.084	1	20
492.254	1	26
492.424	1	9
492.594	1	20
492.765	1	27
492.935	1	14
493.105	1	9
493.275	1	21
493.446	1	30
493.616	1	16
493.786	1	21
493.956	1	23
494.127	1	15
494.297	1	24
494.467	1	18
494.637	1	24
494.808	1	21
494.978	1	7
495.148	1	31
495.318	1	21
495.489	1	19
495.659	1	20
495.829	1	20
495.999	1	13
496.170	1	9
496.340	1	11
496.510	1	33
496.680	1	21
496.851	1	25
497.021	1	24
497.191	1	18
497.361	1	27
497.532	1	16
497.702	1	11
497.872	1	18
498.042	1	20
498.213	1	16
498.383	1	22
498.553	1	23
498.723	1	23
498.894	1	24
499.064	1	3
499.234	1	26
499.404	1	24
499.574	1	18
499.745	1	14
499.915	1	11
500.085	1	2
500.255	1	21
500.426	1	14
500.596	1	25
500.766	1	23
500.936	1	26
501.106	1	11
501.277	1	24
501.447	1	8
501.617	1	17
501.787	1	18
501.958	1	14
502.128	1	32
502.298	1	33
502.468	1	23
502.638	1	41
502.809	1	25
502.979	1	19
503.149	1	27
503.319	1	14
503.489	1	21
503.660	1	19
503.830	1	8
504.000	1	16
504.170	1	12
504.340	1	21
504.511	1	27
504.681	1	17
504.851	1	17
505.021	1	17
505.192	1	24
505.362	1	14
505.532	1	15
505.702	1	6
505.872	1	22
506.043	1	4
506.213	1	16
506.383	1	6
506.553	1	22
506.723	1	20
506.893	1	17
507.064	1	19
507.234	1	15
507.404	1	22
507.574	1	23
507.744	1	13
507.915	1	27
508.085	1	17
508.255	1	15
508.425	1	11
508.595	1	7
508.766	1	20
508.936	1	15
509.106	1	13
509.276	1	16
509.446	1	6
509.616	1	29
509.787	1	12
509.957	1	17
510.127	1	20
510.297	1	18
510.467	1	14
510.638	1	3
510.808	1	18
510.978	1	14
511.148	1	-2
511.318	1	24
511.488	1	9
511.659	1	9
511.829	1	21
511.999	1	11
512.169	1	6
512.339	1	15
512.509	1	7
512.680	1	15
512.850	1	24
513.020	1	20
513.190	1	6
513.360	1	10
513.530	1	12
513.700	1	23
513.871	1	22
514.041	1	16
514.211	1	25
514.381	1	5
514.551	1	12
514.721	1	14
514.892	1	9
515.062	1	8
515.232	1	11
515.402	1	18
515.572	1	6
515.742	1	7
515.912	1	7
516.083	1	10
516.253	1	11
516.423	1	13
516.593	1	11
516.763	1	13
516.933	1	14
517.104	1	10
517.274	1	14
517.444	1	14
517.614	1	5
517.784	1	20
517.954	1	14
518.124	1	7
518.294	1	14
518.465	1	21
518.635	1	14
518.805	1	15
518.975	1	13
519.145	1	13
519.315	1	21
519.485	1	10
519.656	1	15
519.826	1	20
519.996	1	7
520.166	1	13
520.336	1	17
520.506	1	16
520.676	1	7
520.846	1	17
521.017	1	15
521.187	1	5
521.357	1	15
521.527	1	17
521.697	1	10
521.867	1	10
522.037	1	21
522.207	1	13
522.377	1	5
522.548	1	7
522.718	1	15
522.888	1	-2
523.058	1	7
523.228	1	18
523.398	1	10
523.568	1	12
523.738	1	25
523.909	1	23
524.079	1	16
524.249	1	6
524.419	1	15
524.589	1	15
524.759	1	13
524.929	1	14
525.099	1	20
525.269	1	18
525.439	1	10
525.610	1	13
525.780	1	16
525.950	1	15
526.120	1	10
526.290	1	15
526.460	1	21
526.630	1	11
526.800	1	11
526.970	1	14
527.140	1	14
527.311	1	12
527.481	1	13
527.651	1	9
527.821	1	12
527.991	1	13
528.161	1	9
528.331	1	7
528.501	1	11
528.671	1	15
528.841	1	27
529.011	1	9
529.181	1	19
529.352	1	5
529.522	1	8
529.692	1	-1
529.862	1	14
530.032	1	4
530.202	1	21
530.372	1	17
530.542	1	24
530.712	1	-1
530.882	1	13
531.052	1	11
531.222	1	0
531.392	1	4
531.563	1	2
531.733	1	17
531.903	1	11
532.073	1	18
532.243	1	7
532.413	1	7
532.583	1	0
532.753	1	8
532.923	1	20
533.093	1	11
533.263	1	-6
533.433	1	16
533.603	1	5
533.773	1	17
533.943	1	11
534.113	1	15
534.284	1	18
534.454	1	6
534.624	1	16
534.794	1	14
534.964	1	11
535.134	1	-1
535.304	1	16
535.474	1	0
535.644	1	22
535.814	1	3
535.984	1	8
536.154	1	23
536.324	1	9
536.494	1	11
536.664	1	-5
536.834	1	11
537.004	1	5
537.174	1	10
537.344	1	22
537.514	1	5
537.685	1	6
537.855	1	14
538.025	1	11
538.195	1	12
538.365	1	17
538.535	1	1
538.705	1	3
538.875	1	14
539.045	1	12
539.215	1	22
539.385	1	3
539.555	1	4
539.725	1	12
539.895	1	21
540.065	1	9
540.235	1	6
540.405	1	16
540.575	1	12
540.745	1	-1
540.915	1	9
541.085	1	8
541.255	1	14
541.425	1	-2
541.595	1	-1
541.765	1	8
541.935	1	20
542.105	1	4
542.275	1	7
542.445	1	10
542.615	1	19
542.785	1	12
542.955	1	2
543.125	1	0
543.295	1	19
543.465	1	8
543.635	1	-6
543.805	1	9
543.975	1	4
544.145	1	7
544.315	1	0
544.485	1	11
544.655	1	8
544.825	1	8
544.995	1	14
545.165	1	4
545.335	1	3
545.505	1	1
545.675	1	19
545.845	1	-3
546.015	1	9
546.185	1	2
546.355	1	3
546.525	1	8
546.695	1	11
546.865	1	-4
547.035	1	5
547.205	1	10
547.375	1	18
547.545	1	0
547.715	1	8
547.885	1	15
548.055	1	9
548.225	1	4
548.395	1	21
548.565	1	9
548.735	1	4
548.905	1	12
549.075	1	14
549.245	1	8
549.415	1	17
549.585	1	14
549.755	1	12
549.925	1	3
550.095	1	2
550.265	1	1
550.435	1	17
550.605	1	13
550.775	1	15
550.945	1	10
551.115	1	16
551.285	1	-1
551.455	1	-4
551.625	1	8
551.795	1	12
551.965	1	6
552.135	1	-2
552.305	1	8
552.475	1	21
552.645	1	18
552.815	1	3
552.985	1	7
553.155	1	2
553.325	1	8
553.495	1	7
553.665	1	11
553.835	1	-3
554.004	1	0
554.174	1	5
554.344	1	5
554.514	1	14
554.684	1	5
554.854	1	2
555.024	1	17
555.194	1	12
555.364	1	-1
555.534	1	7
555.704	1	7
555.874	1	16
556.044	1	2
556.214	1	-1
556.384	1	11
556.554	1	9
556.724	1	0
556.894	1	5
557.064	1	5
557.234	1	7
557.404	1	20
557.573	1	6
557.743	1	11
557.913	1	7
558.083	1	3
558.253	1	10
558.423	1	-6
558.593	1	15
558.763	1	3
558.933	1	9
559.103	1	-2
559.273	1	8
559.443	1	6
559.613	1	10
559.783	1	9
559.953	1	9
560.122	1	12
560.292	1	6
560.462	1	3
560.632	1	10
560.802	1	9
560.972	1	10
561.142	1	10
561.312	1	5
561.482	1	7
561.652	1	6
561.822	1	8
561.992	1	3
562.162	1	3
562.331	1	-7
562.501	1	5
562.671	1	13
562.841	1	15
563.011	1	15
563.181	1	21
563.351	1	3
563.521	1	6
563.691	1	2
563.861	1	15
564.031	1	-1
564.201	1	4
564.370	1	9
564.540	1	6
564.710	1	17
564.880	1	14
565.050	1	13
565.220	1	3
565.390	1	3
565.560	1	15
565.730	1	13
565.900	1	-1
566.069	1	14
566.239	1	-6
566.409	1	22
566.579	1	15
566.749	1	7
566.919	1	12
567.089	1	1
567.259	1	6
567.429	1	1
567.599	1	8
567.768	1	-1
567.938	1	-4
568.108	1	16
568.278	1	10
568.448	1	6
568.618	1	7
568.788	1	10
568.958	1	21
569.128	1	9
569.297	1	2
569.467	1	11
569.637	1	5
569.807	1	8
569.977	1	8
570.147	1	-1
570.317	1	13
570.487	1	7
570.656	1	4
570.826	1	14
570.996	1	5
571.166	1	8
571.336	1	9
571.506	1	15
571.676	1	7
571.846	1	3
572.015	1	8
572.185	1	17
572.355	1	10
572.525	1	-1
572.695	1	5
572.865	1	11
573.035	1	-2
573.205	1	-8
573.374	1	6
573.544	1	3
573.714	1	14
573.884	1	8
574.054	1	14
574.224	1	9
574.394	1	-4
574.563	1	9
574.733	1	6
574.903	1	7
575.073	1	9
575.243	1	1
575.413	1	13
575.583	1	-7
575.752	1	4
575.922	1	-6
576.092	1	2
576.262	1	8
576.432	1	5
576.602	1	1
576.772	1	5
576.941	1	11
577.111	1	12
577.281	1	16
577.451	1	7
577.621	1	-1
577.791	1	1
577.960	1	11
578.130	1	0
578.300	1	7
578.470	1	9
578.640	1	5
578.810	1	10
578.979	1	6
579.149	1	-2
579.319	1	-5
579.489	1	5
579.659	1	-4
579.829	1	5
579.998	1	1
580.168	1	3
580.338	1	3
580.508	1	4
580.678	1	7
580.848	1	9
581.017	1	16
581.187	1	7
581.357	1	-3
581.527	1	2
581.697	1	10
581.867	1	-2
582.036	1	-2
582.206	1	10
582.376	1	5
582.546	1	-3
582.716	1	2
582.885	1	14
583.055	1	16
583.225	1	3
583.395	1	7
583.565	1	11
583.735	1	4
583.904	1	7
584.074	1	9
584.244	1	11
584.414	1	3
584.584	1	-3
584.753	1	18
584.923	1	13
585.093	1	2
585.263	1	8
585.433	1	4
585.602	1	5
585.772	1	7
585.942	1	8
586.112	1	5
586.282	1	9
586.451	1	3
586.621	1	7
586.791	1	14
586.961	1	3
587.131	1	18
587.300	1	-11
587.470	1	11
587.640	1	2
587.810	1	-1
587.980	1	11
588.149	1	14
588.319	1	11
588.489	1	13
588.659	1	-2
588.829	1	7
588.998	1	10
589.168	1	6
589.338	1	18
589.508	1	12
589.677	1	11
589.847	1	0
590.017	1	6
590.187	1	0
590.357	1	2
590.526	1	17
590.696	1	7
590.866	1	17
591.036	1	5
591.205	1	3
591.375	1	2
591.545	1	9
591.715	1	13
591.885	1	12
592.054	1	8
592.224	1	6
592.394	1	1
592.564	1	3
592.733	1	8
592.903	1	6
593.073	1	11
593.243	1	7
593.412	1	9
593.582	1	8
593.752	1	14
593.922	1	-2
594.091	1	12
594.261	1	-2
594.431	1	2
594.601	1	5
594.771	1	-4
594.940	1	6
595.110	1	10
595.280	1	-1
595.450	1	7
595.619	1	3
595.789	1	6
595.959	1	4
596.129	1	12
596.298	1	5
596.468	1	6
596.638	1	18
596.808	1	18
596.977	1	11
597.147	1	9
597.317	1	9
597.487	1	4
597.656	1	8
597.826	1	1
597.996	1	18
598.166	1	-2
598.335	1	16
598.505	1	12
598.675	1	2
598.844	1	0
599.014	1	11
599.184	1	20
599.354	1	10
599.523	1	1
599.693	1	4
599.863	1	1
600.033	1	2
600.202	1	-2
600.372	1	2
600.542	1	6
600.712	1	13
600.881	1	9
601.051	1	2
601.221	1	3
601.390	1	6
601.560	1	3
601.730	1	13
601.900	1	5
602.069	1	3
602.239	1	-1
602.409	1	18
602.578	1	11
602.748	1	9
602.918	1	-3
603.088	1	2
603.257	1	6
603.427	1	6
603.597	1	10
603.767	1	8
603.936	1	9
604.106	1	4
604.276	1	5
604.445	1	6
604.615	1	-4
604.785	1	1
604.954	1	13
605.124	1	14
605.294	1	9
605.464	1	10
605.633	1	18
605.803	1	6
605.973	1	-2
606.142	1	3
606.312	1	3
606.482	1	4
606.652	1	20
606.821	1	20
606.991	1	12
607.161	1	17
607.330	1	1
607.500	1	9
607.670	1	7
607.839	1	17
608.009	1	4
608.179	1	7
608.348	1	23
608.518	1	6
608.688	1	16
608.858	1	13
609.027	1	6
609.197	1	10
609.367	1	5
609.536	1	-2
609.706	1	8
609.876	1	2
610.045	1	5
610.215	1	11
610.385	1	13
610.554	1	4
610.724	1	12
610.894	1	8
611.063	1	2
611.233	1	12
611.403	1	11
611.572	1	10
611.742	1	4
611.912	1	3
612.081	1	12
612.251	1	10
612.421	1	6
612.590	1	0
612.760	1	3
612.930	1	3
613.099	1	5
613.269	1	11
613.439	1	12
613.608	1	23
613.778	1	4
613.948	1	6
614.117	1	8
614.287	1	9
614.457	1	0
614.626	1	-3
614.796	1	1
614.966	1	-9
615.135	1	1
615.305	1	7
615.475	1	13
615.644	1	18
615.814	1	4
615.984	1	3
616.153	1	0
616.323	1	-8
616.493	1	13
616.662	1	14
616.832	1	11
617.002	1	11
617.171	1	2
617.341	1	6
617.511	1	11
617.680	1	14
617.850	1	11
618.019	1	11
618.189	1	7
618.359	1	7
618.528	1	26
618.698	1	12
618.868	1	19
619.037	1	10
619.207	1	7
619.377	1	19
619.546	1	9
619.716	1	-1
619.885	1	15
620.055	1	13
620.225	1	11
620.394	1	7
620.564	1	7
620.734	1	7
620.903	1	9
621.073	1	13
621.242	1	-9
621.412	1	4
621.582	1	4
621.751	1	7
621.921	1	5
622.091	1	0
622.260	1	11
622.430	1	10
622.599	1	15
622.769	1	4
622.939	1	17
623.108	1	11
623.278	1	11
623.448	1	-4
623.617	1	5
623.787	1	6
623.956	1	9
624.126	1	17
624.296	1	16
624.465	1	0
624.635	1	-1
624.804	1	9
624.974	1	5
625.144	1	9
625.313	1	-3
625.483	1	10
625.652	1	6
625.822	1	5
625.992	1	2
626.161	1	7
626.331	1	12
626.501	1	14
626.670	1	-2
626.840	1	5
627.009	1	5
627.179	1	7
627.348	1	9
627.518	1	13
627.688	1	9
627.857	1	10
628.027	1	14
628.196	1	5
628.366	1	13
628.536	1	9
628.705	1	12
628.875	1	14
629.044	1	-2
629.214	1	11
629.384	1	16
629.553	1	10
629.723	1	5
629.892	1	10
630.062	1	10
630.232	1	3
630.401	1	-1
630.571	1	6
630.740	1	10
630.910	1	19
631.079	1	11
631.249	1	3
631.419	1	15
631.588	1	-5
631.758	1	10
631.927	1	12
632.097	1	3
632.266	1	13
632.436	1	1
632.606	1	9
632.775	1	9
632.945	1	7
633.114	1	9
633.284	1	17
633.453	1	4
633.623	1	15
633.793	1	5
633.962	1	2
634.132	1	21
634.301	1	20
634.471	1	18
634.640	1	18
634.810	1	10
634.979	1	7
635.149	1	6
635.319	1	11
635.488	1	17
635.658	1	1
635.827	1	5
635.997	1	12
636.166	1	8
636.336	1	8
636.505	1	19
636.675	1	9
636.845	1	2
637.014	1	16
637.184	1	13
637.353	1	25
637.523	1	8
637.692	1	18
637.862	1	3
638.031	1	9
638.201	1	11
638.370	1	12
638.540	1	2
638.710	1	10
638.879	1	2
639.049	1	14
639.218	1	13
639.388	1	14
639.557	1	14
639.727	1	13
639.896	1	7
640.066	1	7
640.235	1	8
640.405	1	10
640.574	1	20
640.744	1	6
640.914	1	15
641.083	1	5
641.253	1	8
641.422	1	14
641.592	1	21
641.761	1	20
641.931	1	2
642.100	1	18
642.270	1	9
642.439	1	0
642.609	1	16
642.778	1	20
642.948	1	-2
643.117	1	9
643.287	1	8
643.456	1	6
643.626	1	8
643.795	1	17
643.965	1	6
644.134	1	12
644.304	1	23
644.473	1	14
644.643	1	5
644.812	1	8
644.982	1	7
645.151	1	12
645.321	1	15
645.490	1	15
645.660	1	11
645.829	1	5
645.999	1	23
646.168	1	16
646.338	1	4
646.507	1	1
646.677	1	21
646.846	1	11
647.016	1	8
647.185	1	10
647.355	1	11
647.524	1	17
647.694	1	12
647.863	1	9
648.033	1	8
648.202	1	8
648.372	1	6
648.541	1	6
648.711	1	15
648.880	1	15
649.050	1	13
649.219	1	5
649.389	1	23
649.558	1	10
649.728	1	15
649.897	1	1
650.067	1	1
650.236	1	17
650.406	1	5
650.575	1	14
650.745	1	9
650.914	1	20
651.084	1	5
651.253	1	11
651.423	1	9
651.592	1	4
651.762	1	7
651.931	1	15
652.101	1	16
652.270	1	9
652.440	1	9
652.609	1	10
652.778	1	13
652.948	1	6
653.117	1	33
653.287	1	9
653.456	1	15
653.626	1	22
653.795	1	9
653.965	1	13
654.134	1	7
654.304	1	8
654.473	1	7
654.643	1	20
654.812	1	15
654.982	1	9
655.151	1	15
655.320	1	10
655.490	1	11
655.659	1	14
655.829	1	-1
655.998	1	17
656.168	1	7
656.337	1	6
656.507	1	8
656.676	1	18
656.846	1	1
657.015	1	16
657.184	1	-3
657.354	1	6
657.523	1	11
657.693	1	5
657.862	1	11
658.032	1	8
658.201	1	-4
658.371	1	8
658.540	1	18
658.709	1	20
658.879	1	7
659.048	1	6
659.218	1	10
659.387	1	14
659.557	1	9
659.726	1	23
659.895	1	9
660.065	1	12
660.234	1	11
660.404	1	28
660.573	1	15
660.743	1	7
660.912	1	16
661.081	1	-5
661.251	1	13
661.420	1	16
661.590	1	21
661.759	1	13
661.929	1	21
662.098	1	12
662.267	1	15
662.437	1	19
662.606	1	10
662.776	1	11
662.945	1	16
663.115	1	-1
663.284	1	10
663.453	1	3
663.623	1	7
663.792	1	9
663.962	1	12
664.131	1	5
664.300	1	9
664.470	1	5
664.639	1	5
664.809	1	12
664.978	1	18
665.148	1	23
665.317	1	15
665.486	1	13
665.656	1	6
665.825	1	17
665.995	1	16
666.164	1	14
666.333	1	13
666.503	1	19
666.672	1	15
666.842	1	-9
667.011	1	11
667.180	1	12
667.350	1	15
667.519	1	8
667.689	1	19
667.858	1	25
668.027	1	11
668.197	1	17
668.366	1	20
668.536	1	12
668.705	1	20
668.874	1	15
669.044	1	8
669.213	1	14
669.382	1	18
669.552	1	17
669.721	1	13
669.891	1	7
670.060	1	1
670.229	1	3
670.399	1	26
670.568	1	21
670.738	1	13
670.907	1	11
671.076	1	13
671.246	1	9
671.415	1	10
671.584	1	9
671.754	1	27
671.923	1	9
672.093	1	14
672.262	1	19
672.431	1	16
672.601	1	4
672.770	1	12
672.939	1	10
673.109	1	9
673.278	1	20
673.448	1	6
673.617	1	16
673.786	1	10
