325.333	1	4
325.504	1	11
325.675	1	11
325.846	1	10
326.017	1	-2
326.188	1	11
326.359	1	9
326.531	1	3
326.702	1	4
326.873	1	10
327.044	1	5
327.215	1	0
327.386	1	5
327.557	1	15
327.728	1	1
327.899	1	16
328.070	1	10
328.241	1	4
328.412	1	5
328.583	1	9
328.754	1	1
328.926	1	1
329.097	1	10
329.268	1	5
329.439	1	10
329.610	1	19
329.781	1	14
329.952	1	10
330.123	1	7
330.294	1	5
330.465	1	14
330.636	1	3
330.807	1	10
330.978	1	11
331.149	1	10
331.320	1	8
331.492	1	17
331.663	1	13
331.834	1	10
332.005	1	6
332.176	1	9
332.347	1	10
332.518	1	9
332.689	1	6
332.860	1	2
333.031	1	16
333.202	1	16
333.373	1	18
333.544	1	7
333.715	1	1
333.886	1	12
334.057	1	8
334.228	1	14
334.399	1	11
334.570	1	12
334.741	1	16
334.912	1	14
335.084	1	4
335.255	1	17
335.426	1	2
335.597	1	18
335.768	1	9
335.939	1	14
336.110	1	11
336.281	1	8
336.452	1	21
336.623	1	11
336.794	1	15
336.965	1	12
337.136	1	-2
337.307	1	9
337.478	1	7
337.649	1	7
337.820	1	3
337.991	1	16
338.162	1	19
338.333	1	9
338.504	1	14
338.675	1	15
338.846	1	10
339.017	1	7
339.188	1	17
339.359	1	11
339.530	1	5
339.701	1	16
339.872	1	9
340.043	1	18
340.214	1	21
340.385	1	18
340.556	1	23
340.727	1	10
340.898	1	7
341.069	1	22
341.240	1	24
341.411	1	10
341.582	1	11
341.753	1	6
341.924	1	15
342.095	1	18
342.266	1	4
342.437	1	14
342.608	1	6
342.779	1	17
342.950	1	14
343.121	1	17
343.292	1	10
343.463	1	26
343.634	1	25
343.805	1	5
343.976	1	3
344.147	1	10
344.318	1	17
344.489	1	13
344.660	1	6
344.831	1	10
345.002	1	10
345.173	1	11
345.344	1	14
345.515	1	19
345.686	1	9
345.857	1	17
346.028	1	18
346.199	1	13
346.370	1	13
346.541	1	16
346.712	1	10
346.883	1	21
347.054	1	14
347.225	1	4
347.396	1	14
347.567	1	23
347.738	1	23
347.909	1	19
348.080	1	6
348.251	1	14
348.422	1	25
348.593	1	20
348.764	1	5
348.935	1	23
349.106	1	20
349.277	1	28
349.448	1	21
349.619	1	16
349.790	1	20
349.961	1	15
350.132	1	19
350.303	1	32
350.474	1	13
350.645	1	9
350.816	1	30
350.987	1	18
351.157	1	16
351.328	1	21
351.499	1	25
351.670	1	11
351.841	1	13
352.012	1	13
352.183	1	13
352.354	1	26
352.525	1	9
352.696	1	19
352.867	1	18
353.038	1	24
353.209	1	30
353.380	1	26
353.551	1	21
353.722	1	20
353.893	1	15
354.064	1	23
354.235	1	27
354.406	1	15
354.576	1	23
354.747	1	18
354.918	1	28
355.089	1	19
355.260	1	28
355.431	1	22
355.602	1	19
355.773	1	21
355.944	1	28
356.115	1	15
356.286	1	18
356.457	1	30
356.628	1	32
356.799	1	12
356.970	1	26
357.141	1	34
357.311	1	31
357.482	1	30
357.653	1	3
357.824	1	41
357.995	1	35
358.166	1	18
358.337	1	19
358.508	1	26
358.679	1	10
358.850	1	17
359.021	1	21
359.192	1	22
359.363	1	28
359.533	1	15
359.704	1	23
359.875	1	32
360.046	1	17
360.217	1	20
360.388	1	23
360.559	1	26
360.730	1	21
360.901	1	19
361.072	1	28
361.243	1	18
361.414	1	26
361.584	1	31
361.755	1	23
361.926	1	6
362.097	1	23
362.268	1	19
362.439	1	22
362.610	1	31
362.781	1	15
362.952	1	29
363.123	1	36
363.293	1	21
363.464	1	16
363.635	1	38
363.806	1	32
363.977	1	15
364.148	1	24
364.319	1	25
364.490	1	24
364.661	1	28
364.832	1	34
365.002	1	29
365.173	1	17
365.344	1	13
365.515	1	23
365.686	1	20
365.857	1	40
366.028	1	19
366.199	1	34
366.370	1	35
366.540	1	35
366.711	1	24
366.882	1	23
367.053	1	23
367.224	1	24
367.395	1	19
367.566	1	23
367.737	1	39
367.908	1	30
368.078	1	41
368.249	1	27
368.420	1	27
368.591	1	31
368.762	1	19
368.933	1	19
369.104	1	39
369.274	1	26
369.445	1	20
369.616	1	38
369.787	1	25
369.958	1	24
370.129	1	32
370.300	1	15
370.471	1	34
370.641	1	22
370.812	1	30
370.983	1	20
371.154	1	28
371.325	1	40
371.496	1	23
371.667	1	27
371.837	1	30
372.008	1	26
372.179	1	25
372.350	1	20
372.521	1	24
372.692	1	22
372.863	1	30
373.033	1	29
373.204	1	30
373.375	1	34
373.546	1	39
373.717	1	28
373.888	1	24
374.059	1	43
374.229	1	31
374.400	1	14
374.571	1	37
374.742	1	23
374.913	1	19
375.084	1	37
375.254	1	29
375.425	1	25
375.596	1	25
375.767	1	16
375.938	1	32
376.109	1	10
376.279	1	24
376.450	1	31
376.621	1	36
376.792	1	32
376.963	1	32
377.134	1	35
377.304	1	30
377.475	1	34
377.646	1	21
377.817	1	21
377.988	1	28
378.159	1	17
378.329	1	36
378.500	1	35
378.671	1	38
378.842	1	27
379.013	1	26
379.184	1	34
379.354	1	17
379.525	1	19
379.696	1	20
379.867	1	24
380.038	1	13
380.209	1	19
380.379	1	25
380.550	1	30
380.721	1	35
380.892	1	26
381.063	1	21
381.233	1	22
381.404	1	34
381.575	1	26
381.746	1	34
381.917	1	27
382.087	1	24
382.258	1	41
382.429	1	34
382.600	1	29
382.771	1	40
382.941	1	36
383.112	1	37
383.283	1	36
383.454	1	32
383.625	1	38
383.795	1	39
383.966	1	33
384.137	1	40
384.308	1	38
384.479	1	34
384.649	1	37
384.820	1	29
384.991	1	35
385.162	1	29
385.333	1	37
385.503	1	27
385.674	1	35
385.845	1	41
386.016	1	26
386.187	1	33
386.357	1	40
386.528	1	16
386.699	1	30
386.870	1	29
387.041	1	25
387.211	1	44
387.382	1	31
387.553	1	35
387.724	1	27
387.894	1	41
388.065	1	35
388.236	1	34
388.407	1	44
388.578	1	39
388.748	1	38
388.919	1	39
389.090	1	44
389.261	1	46
389.431	1	36
389.602	1	34
389.773	1	38
389.944	1	44
390.114	1	41
390.285	1	21
390.456	1	36
390.627	1	40
390.798	1	35
390.968	1	31
391.139	1	37
391.310	1	48
391.481	1	28
391.651	1	36
391.822	1	40
391.993	1	34
392.164	1	24
392.334	1	38
392.505	1	38
392.676	1	39
392.847	1	37
393.017	1	40
393.188	1	28
393.359	1	45
393.530	1	46
393.700	1	47
393.871	1	22
394.042	1	39
394.213	1	43
394.383	1	33
394.554	1	36
394.725	1	49
394.896	1	34
395.066	1	28
395.237	1	35
395.408	1	39
395.579	1	33
395.749	1	45
395.920	1	45
396.091	1	36
396.262	1	41
396.432	1	36
396.603	1	30
396.774	1	27
396.945	1	33
397.115	1	40
397.286	1	45
397.457	1	40
397.627	1	37
397.798	1	44
397.969	1	39
398.140	1	37
398.310	1	38
398.481	1	29
398.652	1	49
398.823	1	35
398.993	1	43
399.164	1	46
399.335	1	36
399.505	1	41
399.676	1	47
399.847	1	45
400.018	1	42
400.188	1	39
400.359	1	40
400.530	1	38
400.700	1	34
400.871	1	45
401.042	1	41
401.213	1	33
401.383	1	37
401.554	1	40
401.725	1	49
401.895	1	37
402.066	1	51
402.237	1	47
402.408	1	43
402.578	1	42
402.749	1	42
402.920	1	43
403.090	1	39
403.261	1	47
403.432	1	46
403.603	1	35
403.773	1	42
403.944	1	37
404.115	1	56
404.285	1	33
404.456	1	47
404.627	1	35
404.797	1	32
404.968	1	50
405.139	1	43
405.310	1	42
405.480	1	37
405.651	1	54
405.822	1	41
405.992	1	43
406.163	1	45
406.334	1	31
406.504	1	39
406.675	1	30
406.846	1	50
407.016	1	36
407.187	1	50
407.358	1	43
407.528	1	22
407.699	1	37
407.870	1	27
408.041	1	52
408.211	1	35
408.382	1	46
408.553	1	39
408.723	1	46
408.894	1	46
409.065	1	47
409.235	1	45
409.406	1	40
409.577	1	37
409.747	1	29
409.918	1	25
410.089	1	48
410.259	1	47
410.430	1	31
410.601	1	43
410.771	1	49
410.942	1	54
411.113	1	43
411.283	1	35
411.454	1	35
411.625	1	29
411.795	1	35
411.966	1	47
412.137	1	35
412.307	1	52
412.478	1	41
412.649	1	48
412.819	1	41
412.990	1	51
413.161	1	55
413.331	1	43
413.502	1	43
413.672	1	42
413.843	1	43
414.014	1	39
414.184	1	38
414.355	1	54
414.526	1	54
414.696	1	47
414.867	1	45
415.038	1	36
415.208	1	47
415.379	1	36
415.550	1	55
415.720	1	46
415.891	1	36
416.062	1	42
416.232	1	47
416.403	1	47
416.573	1	48
416.744	1	35
416.915	1	46
417.085	1	46
417.256	1	48
417.427	1	47
417.597	1	38
417.768	1	35
417.939	1	50
418.109	1	39
418.280	1	31
418.450	1	35
418.621	1	44
418.792	1	39
418.962	1	52
419.133	1	33
419.304	1	32
419.474	1	37
419.645	1	35
419.815	1	49
419.986	1	42
420.157	1	23
420.327	1	48
420.498	1	41
420.669	1	39
420.839	1	43
421.010	1	40
421.180	1	46
421.351	1	48
421.522	1	31
421.692	1	49
421.863	1	42
422.033	1	50
422.204	1	43
422.375	1	45
422.545	1	41
422.716	1	44
422.886	1	42
423.057	1	41
423.228	1	31
423.398	1	38
423.569	1	40
423.740	1	35
423.910	1	35
424.081	1	43
424.251	1	34
424.422	1	48
424.593	1	44
424.763	1	37
424.934	1	32
425.104	1	46
425.275	1	41
425.445	1	34
425.616	1	38
425.787	1	41
425.957	1	41
426.128	1	22
426.298	1	35
426.469	1	35
426.640	1	49
426.810	1	32
426.981	1	36
427.151	1	42
427.322	1	39
427.493	1	48
427.663	1	39
427.834	1	30
428.004	1	43
428.175	1	38
428.345	1	29
428.516	1	45
428.687	1	33
428.857	1	30
429.028	1	38
429.198	1	38
429.369	1	34
429.540	1	33
429.710	1	39
429.881	1	29
430.051	1	47
430.222	1	38
430.392	1	46
430.563	1	39
430.734	1	48
430.904	1	35
431.075	1	41
431.245	1	37
431.416	1	34
431.586	1	36
431.757	1	47
431.927	1	31
432.098	1	40
432.269	1	41
432.439	1	38
432.610	1	38
432.780	1	43
432.951	1	31
433.121	1	34
433.292	1	35
433.462	1	33
433.633	1	33
433.804	1	52
433.974	1	28
434.145	1	41
434.315	1	33
434.486	1	34
434.656	1	32
434.827	1	35
434.997	1	47
435.168	1	39
435.339	1	28
435.509	1	39
435.680	1	42
435.850	1	32
436.021	1	33
436.191	1	25
436.362	1	32
436.532	1	45
436.703	1	24
436.873	1	40
437.044	1	34
437.214	1	29
437.385	1	47
437.556	1	35
437.726	1	32
437.897	1	27
438.067	1	20
438.238	1	33
438.408	1	29
438.579	1	43
438.749	1	29
438.920	1	39
439.090	1	36
439.261	1	21
439.431	1	37
439.602	1	33
439.772	1	32
439.943	1	38
440.113	1	29
440.284	1	36
440.455	1	46
440.625	1	47
440.796	1	40
440.966	1	32
441.137	1	29
441.307	1	33
441.478	1	34
441.648	1	32
441.819	1	40
441.989	1	51
442.160	1	21
442.330	1	39
442.501	1	37
442.671	1	29
442.842	1	31
443.012	1	36
443.183	1	36
443.353	1	34
443.524	1	27
443.694	1	30
443.865	1	39
444.035	1	37
444.206	1	39
444.376	1	33
444.547	1	35
444.717	1	32
444.888	1	38
445.058	1	38
445.229	1	34
445.399	1	36
445.570	1	37
445.740	1	33
445.911	1	21
446.081	1	27
446.252	1	40
446.422	1	32
446.593	1	13
446.763	1	45
446.934	1	30
447.104	1	31
447.275	1	31
447.445	1	13
447.616	1	28
447.786	1	33
447.957	1	25
448.127	1	34
448.298	1	32
448.468	1	22
448.639	1	33
448.809	1	51
448.979	1	18
449.150	1	17
449.320	1	32
449.491	1	28
449.661	1	29
449.832	1	30
450.002	1	30
450.173	1	32
450.343	1	46
450.514	1	32
450.684	1	31
450.855	1	34
451.025	1	37
451.196	1	20
451.366	1	36
451.537	1	30
451.707	1	37
451.878	1	28
452.048	1	33
452.218	1	36
452.389	1	39
452.559	1	44
452.730	1	32
452.900	1	38
453.071	1	25
453.241	1	27
453.412	1	29
453.582	1	28
453.753	1	26
453.923	1	37
454.093	1	25
454.264	1	32
454.434	1	28
454.605	1	35
454.775	1	26
454.946	1	27
455.116	1	16
455.287	1	27
455.457	1	34
455.628	1	18
455.798	1	16
455.968	1	37
456.139	1	31
456.309	1	43
456.480	1	33
456.650	1	24
456.821	1	32
456.991	1	19
457.161	1	28
457.332	1	29
457.502	1	30
457.673	1	32
457.843	1	11
458.014	1	30
458.184	1	32
458.355	1	18
458.525	1	16
458.695	1	35
458.866	1	20
459.036	1	38
459.207	1	40
459.377	1	22
459.548	1	35
459.718	1	22
459.888	1	33
460.059	1	34
460.229	1	17
460.400	1	22
460.570	1	37
460.740	1	28
460.911	1	18
461.081	1	25
461.252	1	27
461.422	1	26
461.593	1	36
461.763	1	25
461.933	1	26
462.104	1	31
462.274	1	31
462.445	1	20
462.615	1	24
462.785	1	35
462.956	1	19
463.126	1	21
463.297	1	34
463.467	1	12
463.638	1	21
463.808	1	29
463.978	1	19
464.149	1	31
464.319	1	28
464.490	1	29
464.660	1	41
464.830	1	30
465.001	1	4
465.171	1	21
465.342	1	27
465.512	1	31
465.682	1	24
465.853	1	32
466.023	1	31
466.194	1	18
466.364	1	23
466.534	1	6
466.705	1	18
466.875	1	27
467.045	1	23
467.216	1	26
467.386	1	21
467.557	1	34
467.727	1	25
467.897	1	44
468.068	1	13
468.238	1	22
468.409	1	41
468.579	1	31
468.749	1	22
468.920	1	36
469.090	1	17
469.260	1	29
469.431	1	23
469.601	1	23
469.772	1	27
469.942	1	37
470.112	1	17
470.283	1	23
470.453	1	26
470.623	1	34
470.794	1	13
470.964	1	21
471.135	1	29
471.305	1	19
471.475	1	17
471.646	1	24
471.816	1	19
471.986	1	13
472.157	1	11
472.327	1	17
472.497	1	26
472.668	1	18
472.838	1	30
473.009	1	21
473.179	1	33
473.349	1	2
473.520	1	6
473.690	1	21
473.860	1	14
474.031	1	17
474.201	1	25
474.371	1	29
474.542	1	23
474.712	1	21
474.882	1	22
475.053	1	13
475.223	1	14
475.394	1	1
475.564	1	20
475.734	1	14
475.905	1	21
476.075	1	13
476.245	1	24
476.416	1	26
476.586	1	23
476.756	1	16
476.927	1	17
477.097	1	25
477.267	1	17
477.438	1	11
477.608	1	23
477.778	1	13
477.949	1	25
478.119	1	7
478.289	1	10
478.460	1	23
478.630	1	19
478.800	1	21
478.971	1	6
479.141	1	24
479.311	1	17
479.482	1	6
479.652	1	25
479.822	1	13
479.993	1	27
480.163	1	20
480.333	1	29
480.504	1	17
480.674	1	15
480.844	1	21
481.015	1	20
481.185	1	29
481.355	1	13
481.525	1	9
481.696	1	10
481.866	1	29
482.036	1	18
482.207	1	7
482.377	1	21
482.547	1	6
482.718	1	8
482.888	1	14
483.058	1	24
483.229	1	25
483.399	1	15
483.569	1	8
483.740	1	14
483.910	1	24
484.080	1	34
484.250	1	18
484.421	1	18
484.591	1	18
484.761	1	14
484.932	1	34
485.102	1	11
485.272	1	13
485.443	1	14
485.613	1	5
485.783	1	16
485.953	1	13
486.124	1	12
486.294	1	17
486.464	1	19
486.635	1	6
486.805	1	24
486.975	1	14
487.146	1	13
487.316	1	12
487.486	1	20
487.656	1	28
487.827	1	19
487.997	1	21
488.167	1	35
488.338	1	17
488.508	1	20
488.678	1	24
488.848	1	13
489.019	1	8
489.189	1	14
489.359	1	15
489.529	1	13
489.700	1	13
489.870	1	16
490.040	1	10
490.211	1	14
490.381	1	30
490.551	1	0
490.721	1	10
490.892	1	27
491.062	1	8
491.232	1	17
491.402	1	6
491.573	1	10
491.743	1	13
491.913	1	11
492.084	1	11
492.254	1	21
492.424	1	10
492.594	1	9
492.765	1	18
492.935	1	11
493.105	1	13
493.275	1	12
493.446	1	14
493.616	1	3
493.786	1	12
493.956	1	10
494.127	1	20
494.297	1	23
494.467	1	7
494.637	1	22
494.808	1	9
494.978	1	5
495.148	1	22
495.318	1	13
495.489	1	9
495.659	1	20
495.829	1	19
495.999	1	19
496.170	1	12
496.340	1	18
496.510	1	17
496.680	1	19
496.851	1	19
497.021	1	19
497.191	1	12
497.361	1	14
497.532	1	17
497.702	1	13
497.872	1	14
498.042	1	30
498.213	1	19
498.383	1	22
498.553	1	9
498.723	1	7
498.894	1	24
499.064	1	3
499.234	1	13
499.404	1	21
499.574	1	15
499.745	1	1
499.915	1	5
500.085	1	6
500.255	1	17
500.426	1	7
500.596	1	15
500.766	1	9
500.936	1	12
501.106	1	20
501.277	1	17
501.447	1	6
501.617	1	13
501.787	1	21
501.958	1	9
502.128	1	20
502.298	1	21
502.468	1	14
502.638	1	24
502.809	1	26
502.979	1	10
503.149	1	17
503.319	1	17
503.489	1	13
503.660	1	15
503.830	1	7
504.000	1	10
504.170	1	17
504.340	1	6
504.511	1	13
504.681	1	4
504.851	1	5
505.021	1	14
505.192	1	12
505.362	1	10
505.532	1	16
505.702	1	14
505.872	1	14
506.043	1	4
506.213	1	11
506.383	1	10
506.553	1	15
506.723	1	0
506.893	1	10
507.064	1	19
507.234	1	3
507.404	1	25
507.574	1	10
507.744	1	-2
507.915	1	18
508.085	1	9
508.255	1	10
508.425	1	2
508.595	1	5
508.766	1	15
508.936	1	7
509.106	1	15
509.276	1	11
509.446	1	2
509.616	1	19
509.787	1	12
509.957	1	15
510.127	1	11
510.297	1	7
510.467	1	21
510.638	1	9
510.808	1	8
510.978	1	16
511.148	1	7
511.318	1	25
511.488	1	11
511.659	1	-5
511.829	1	7
511.999	1	10
512.169	1	8
512.339	1	7
512.509	1	11
512.680	1	6
512.850	1	13
513.020	1	10
513.190	1	12
513.360	1	14
513.530	1	12
513.700	1	14
513.871	1	11
514.041	1	10
514.211	1	22
514.381	1	4
514.551	1	13
514.721	1	19
514.892	1	15
515.062	1	-2
515.232	1	6
515.402	1	11
515.572	1	13
515.742	1	14
515.912	1	10
516.083	1	14
516.253	1	8
516.423	1	3
516.593	1	12
516.763	1	11
516.933	1	15
517.104	1	12
517.274	1	20
517.444	1	10
517.614	1	9
517.784	1	12
517.954	1	-1
518.124	1	-1
518.294	1	18
518.465	1	7
518.635	1	6
518.805	1	11
518.975	1	8
519.145	1	7
519.315	1	7
519.485	1	4
519.656	1	13
519.826	1	8
519.996	1	2
520.166	1	14
520.336	1	18
520.506	1	14
520.676	1	7
520.846	1	14
521.017	1	3
521.187	1	1
521.357	1	5
521.527	1	9
521.697	1	8
521.867	1	4
522.037	1	6
522.207	1	10
522.377	1	-4
522.548	1	11
522.718	1	9
522.888	1	0
523.058	1	-2
523.228	1	15
523.398	1	3
523.568	1	8
523.738	1	11
523.909	1	15
524.079	1	11
524.249	1	7
524.419	1	4
524.589	1	7
524.759	1	-2
524.929	1	15
525.099	1	24
525.269	1	7
525.439	1	-2
525.610	1	21
525.780	1	12
525.950	1	6
526.120	1	14
526.290	1	12
526.460	1	13
526.630	1	13
526.800	1	7
526.970	1	8
527.140	1	14
527.311	1	6
527.481	1	1
527.651	1	11
527.821	1	2
527.991	1	9
528.161	1	11
528.331	1	-7
528.501	1	12
528.671	1	12
528.841	1	16
529.011	1	3
529.181	1	16
529.352	1	7
529.522	1	-2
529.692	1	3
529.862	1	10
530.032	1	6
530.202	1	9
530.372	1	-1
530.542	1	10
530.712	1	7
530.882	1	5
531.052	1	14
531.222	1	6
531.392	1	2
531.563	1	8
531.733	1	7
531.903	1	7
532.073	1	12
532.243	1	12
532.413	1	15
532.583	1	-6
532.753	1	11
532.923	1	17
533.093	1	9
533.263	1	-5
533.433	1	9
533.603	1	11
533.773	1	3
533.943	1	15
534.113	1	10
534.284	1	12
534.454	1	0
534.624	1	0
534.794	1	7
534.964	1	7
535.134	1	2
535.304	1	13
535.474	1	-6
535.644	1	7
535.814	1	0
535.984	1	4
536.154	1	7
536.324	1	3
536.494	1	11
536.664	1	3
536.834	1	-4
537.004	1	4
537.174	1	9
537.344	1	6
537.514	1	6
537.685	1	8
537.855	1	6
538.025	1	11
538.195	1	6
538.365	1	11
538.535	1	10
538.705	1	0
538.875	1	9
539.045	1	9
539.215	1	12
539.385	1	4
539.555	1	9
539.725	1	5
539.895	1	16
540.065	1	4
540.235	1	7
540.405	1	21
540.575	1	8
540.745	1	1
540.915	1	13
541.085	1	4
541.255	1	8
541.425	1	0
541.595	1	0
541.765	1	15
541.935	1	24
542.105	1	11
542.275	1	1
542.445	1	10
542.615	1	11
542.785	1	11
542.955	1	-1
543.125	1	3
543.295	1	13
543.465	1	11
543.635	1	-7
543.805	1	9
543.975	1	7
544.145	1	5
544.315	1	-3
544.485	1	2
544.655	1	9
544.825	1	5
544.995	1	9
545.165	1	7
545.335	1	4
545.505	1	9
545.675	1	5
545.845	1	2
546.015	1	7
546.185	1	2
546.355	1	-2
546.525	1	2
546.695	1	14
546.865	1	2
547.035	1	8
547.205	1	5
547.375	1	16
547.545	1	-2
547.715	1	1
547.885	1	3
548.055	1	11
548.225	1	5
548.395	1	14
548.565	1	6
548.735	1	7
548.905	1	2
549.075	1	5
549.245	1	12
549.415	1	13
549.585	1	10
549.755	1	6
549.925	1	5
550.095	1	4
550.265	1	-6
550.435	1	2
550.605	1	12
550.775	1	17
550.945	1	2
551.115	1	1
551.285	1	1
551.455	1	2
551.625	1	14
551.795	1	5
551.965	1	5
552.135	1	-6
552.305	1	0
552.475	1	5
552.645	1	8
552.815	1	1
552.985	1	7
553.155	1	6
553.325	1	9
553.495	1	3
553.665	1	7
553.835	1	-4
554.004	1	3
554.174	1	4
554.344	1	1
554.514	1	1
554.684	1	2
554.854	1	-3
555.024	1	7
555.194	1	3
555.364	1	7
555.534	1	17
555.704	1	0
555.874	1	5
556.044	1	3
556.214	1	5
556.384	1	12
556.554	1	-1
556.724	1	-1
556.894	1	5
557.064	1	0
557.234	1	1
557.404	1	9
557.573	1	17
557.743	1	3
557.913	1	0
558.083	1	-1
558.253	1	-1
558.423	1	1
558.593	1	10
558.763	1	4
558.933	1	4
559.103	1	2
559.273	1	7
559.443	1	10
559.613	1	6
559.783	1	7
559.953	1	7
560.122	1	-1
560.292	1	10
560.462	1	5
560.632	1	5
560.802	1	0
560.972	1	7
561.142	1	12
561.312	1	5
561.482	1	0
561.652	1	8
561.822	1	7
561.992	1	8
562.162	1	3
562.331	1	-4
562.501	1	8
562.671	1	12
562.841	1	11
563.011	1	7
563.181	1	12
563.351	1	1
563.521	1	8
563.691	1	-3
563.861	1	16
564.031	1	4
564.201	1	3
564.370	1	21
564.540	1	10
564.710	1	19
564.880	1	3
565.050	1	2
565.220	1	-1
565.390	1	10
565.560	1	15
565.730	1	7
565.900	1	-2
566.069	1	15
566.239	1	-3
566.409	1	4
566.579	1	9
566.749	1	19
566.919	1	4
567.089	1	3
567.259	1	1
567.429	1	9
567.599	1	-1
567.768	1	3
567.938	1	-1
568.108	1	4
568.278	1	-3
568.448	1	8
568.618	1	14
568.788	1	11
568.958	1	16
569.128	1	6
569.297	1	5
569.467	1	4
569.637	1	-3
569.807	1	-5
569.977	1	2
570.147	1	1
570.317	1	21
570.487	1	6
570.656	1	2
570.826	1	18
570.996	1	1
571.166	1	2
571.336	1	10
571.506	1	1
571.676	1	10
571.846	1	3
572.015	1	6
572.185	1	7
572.355	1	5
572.525	1	4
572.695	1	6
572.865	1	2
573.035	1	-2
573.205	1	2
573.374	1	-4
573.544	1	2
573.714	1	14
573.884	1	21
574.054	1	13
574.224	1	9
574.394	1	-1
574.563	1	3
574.733	1	3
574.903	1	10
575.073	1	-5
575.243	1	6
575.413	1	10
575.583	1	-4
575.752	1	8
575.922	1	1
576.092	1	0
576.262	1	3
576.432	1	9
576.602	1	-4
576.772	1	0
576.941	1	14
577.111	1	14
577.281	1	4
577.451	1	6
577.621	1	-4
577.791	1	-5
577.960	1	11
578.130	1	5
578.300	1	5
578.470	1	3
578.640	1	5
578.810	1	6
578.979	1	8
579.149	1	1
579.319	1	11
579.489	1	8
579.659	1	-1
579.829	1	0
579.998	1	0
580.168	1	-1
580.338	1	9
580.508	1	2
580.678	1	-6
580.848	1	3
581.017	1	17
581.187	1	10
581.357	1	-6
581.527	1	9
581.697	1	5
581.867	1	0
582.036	1	5
582.206	1	3
582.376	1	6
582.546	1	7
582.716	1	2
582.885	1	7
583.055	1	7
583.225	1	-6
583.395	1	5
583.565	1	14
583.735	1	-2
583.904	1	-3
584.074	1	0
584.244	1	5
584.414	1	12
584.584	1	-3
584.753	1	15
584.923	1	5
585.093	1	2
585.263	1	6
585.433	1	8
585.602	1	-2
585.772	1	6
585.942	1	-2
586.112	1	2
586.282	1	5
586.451	1	4
586.621	1	7
586.791	1	6
586.961	1	6
587.131	1	13
587.300	1	-15
587.470	1	8
587.640	1	-6
587.810	1	3
587.980	1	13
588.149	1	14
588.319	1	9
588.489	1	8
588.659	1	0
588.829	1	7
588.998	1	15
589.168	1	7
589.338	1	14
589.508	1	9
589.677	1	2
589.847	1	10
590.017	1	4
590.187	1	6
590.357	1	0
590.526	1	8
590.696	1	6
590.866	1	1
591.036	1	14
591.205	1	-3
591.375	1	4
591.545	1	3
591.715	1	13
591.885	1	8
592.054	1	9
592.224	1	6
592.394	1	10
592.564	1	2
592.733	1	13
592.903	1	0
593.073	1	-1
593.243	1	17
593.412	1	8
593.582	1	21
593.752	1	3
593.922	1	3
594.091	1	10
594.261	1	-1
594.431	1	2
594.601	1	3
594.771	1	2
594.940	1	14
595.110	1	3
595.280	1	2
595.450	1	12
595.619	1	4
595.789	1	-3
595.959	1	3
596.129	1	10
596.298	1	13
596.468	1	2
596.638	1	23
596.808	1	22
596.977	1	12
597.147	1	9
597.317	1	3
597.487	1	-5
597.656	1	6
597.826	1	-1
597.996	1	12
598.166	1	0
598.335	1	11
598.505	1	6
598.675	1	0
598.844	1	-3
599.014	1	6
599.184	1	11
599.354	1	4
599.523	1	2
599.693	1	20
599.863	1	1
600.033	1	2
600.202	1	1
600.372	1	1
600.542	1	5
600.712	1	7
600.881	1	5
601.051	1	11
601.221	1	4
601.390	1	3
601.560	1	1
601.730	1	15
601.900	1	18
602.069	1	11
602.239	1	-18
602.409	1	11
602.578	1	-3
602.748	1	8
602.918	1	6
603.088	1	8
603.257	1	19
603.427	1	9
603.597	1	4
603.767	1	2
603.936	1	17
604.106	1	7
604.276	1	-4
604.445	1	2
604.615	1	-3
604.785	1	2
604.954	1	13
605.124	1	-1
605.294	1	20
605.464	1	13
605.633	1	17
605.803	1	1
605.973	1	9
606.142	1	7
606.312	1	5
606.482	1	-2
606.652	1	8
606.821	1	5
606.991	1	12
607.161	1	24
607.330	1	2
607.500	1	1
607.670	1	-1
607.839	1	3
608.009	1	-8
608.179	1	0
608.348	1	13
608.518	1	4
608.688	1	10
608.858	1	1
609.027	1	14
609.197	1	8
609.367	1	3
609.536	1	-2
609.706	1	6
609.876	1	4
610.045	1	-1
610.215	1	1
610.385	1	8
610.554	1	8
610.724	1	12
610.894	1	7
611.063	1	-9
611.233	1	10
611.403	1	3
611.572	1	10
611.742	1	-5
611.912	1	11
612.081	1	-1
612.251	1	16
612.421	1	-1
612.590	1	0
612.760	1	5
612.930	1	3
613.099	1	9
613.269	1	3
613.439	1	10
613.608	1	7
613.778	1	7
613.948	1	14
614.117	1	15
614.287	1	9
614.457	1	1
614.626	1	-1
614.796	1	-1
614.966	1	1
615.135	1	-3
615.305	1	10
615.475	1	8
615.644	1	4
615.814	1	10
615.984	1	0
616.153	1	8
616.323	1	2
616.493	1	9
616.662	1	6
616.832	1	1
617.002	1	12
617.171	1	0
617.341	1	1
617.511	1	8
617.680	1	9
617.850	1	7
618.019	1	14
618.189	1	7
618.359	1	-2
618.528	1	7
618.698	1	2
618.868	1	22
619.037	1	3
619.207	1	10
619.377	1	12
619.546	1	7
619.716	1	3
619.885	1	17
620.055	1	8
620.225	1	2
620.394	1	12
620.564	1	12
620.734	1	-3
620.903	1	9
621.073	1	9
621.242	1	-3
621.412	1	2
621.582	1	3
621.751	1	4
621.921	1	3
622.091	1	3
622.260	1	11
622.430	1	0
622.599	1	20
622.769	1	11
622.939	1	13
623.108	1	4
623.278	1	7
623.448	1	6
623.617	1	6
623.787	1	11
623.956	1	3
624.126	1	21
624.296	1	2
624.465	1	3
624.635	1	7
624.804	1	5
624.974	1	5
625.144	1	8
625.313	1	0
625.483	1	10
625.652	1	7
625.822	1	5
625.992	1	7
626.161	1	-3
626.331	1	2
626.501	1	14
626.670	1	1
626.840	1	2
627.009	1	-7
627.179	1	9
627.348	1	10
627.518	1	11
627.688	1	1
627.857	1	-1
628.027	1	14
628.196	1	13
628.366	1	4
628.536	1	12
628.705	1	3
628.875	1	7
629.044	1	9
629.214	1	10
629.384	1	8
629.553	1	8
629.723	1	7
629.892	1	5
630.062	1	12
630.232	1	-3
630.401	1	8
630.571	1	7
630.740	1	13
630.910	1	9
631.079	1	7
631.249	1	1
631.419	1	21
631.588	1	-3
631.758	1	7
631.927	1	5
632.097	1	8
632.266	1	5
632.436	1	1
632.606	1	11
632.775	1	12
632.945	1	-3
633.114	1	5
633.284	1	6
633.453	1	15
633.623	1	5
633.793	1	-1
633.962	1	0
634.132	1	9
634.301	1	7
634.471	1	17
634.640	1	11
634.810	1	10
634.979	1	7
635.149	1	10
635.319	1	4
635.488	1	10
635.658	1	1
635.827	1	12
635.997	1	-1
636.166	1	13
636.336	1	6
636.505	1	22
636.675	1	-8
636.845	1	13
637.014	1	14
637.184	1	11
637.353	1	6
637.523	1	1
637.692	1	19
637.862	1	0
638.031	1	9
638.201	1	14
638.370	1	10
638.540	1	5
638.710	1	13
638.879	1	1
639.049	1	12
639.218	1	-6
639.388	1	20
639.557	1	3
639.727	1	-1
639.896	1	4
640.066	1	13
640.235	1	7
640.405	1	10
640.574	1	14
640.744	1	11
640.914	1	9
641.083	1	0
641.253	1	7
641.422	1	14
641.592	1	6
641.761	1	9
641.931	1	-3
642.100	1	14
642.270	1	13
642.439	1	4
642.609	1	1
642.778	1	8
642.948	1	-1
643.117	1	15
643.287	1	7
643.456	1	6
643.626	1	13
643.795	1	13
643.965	1	9
644.134	1	5
644.304	1	18
644.473	1	5
644.643	1	4
644.812	1	11
644.982	1	7
645.151	1	4
645.321	1	-2
645.490	1	12
645.660	1	9
645.829	1	-1
645.999	1	25
646.168	1	9
646.338	1	11
646.507	1	4
646.677	1	14
646.846	1	16
647.016	1	14
647.185	1	6
647.355	1	2
647.524	1	16
647.694	1	7
647.863	1	11
648.033	1	11
648.202	1	11
648.372	1	9
648.541	1	3
648.711	1	1
648.880	1	14
649.050	1	15
649.219	1	10
649.389	1	14
649.558	1	6
649.728	1	7
649.897	1	12
650.067	1	-4
650.236	1	17
650.406	1	-7
650.575	1	9
650.745	1	6
650.914	1	8
651.084	1	-6
651.253	1	15
651.423	1	4
651.592	1	1
651.762	1	5
651.931	1	3
652.101	1	3
652.270	1	10
652.440	1	14
652.609	1	8
652.778	1	12
652.948	1	4
653.117	1	9
653.287	1	12
653.456	1	17
653.626	1	11
653.795	1	11
653.965	1	24
654.134	1	2
654.304	1	11
654.473	1	8
654.643	1	18
654.812	1	11
654.982	1	8
655.151	1	12
655.320	1	6
655.490	1	-2
655.659	1	4
655.829	1	-2
655.998	1	15
656.168	1	0
656.337	1	16
656.507	1	6
656.676	1	5
656.846	1	-2
657.015	1	17
657.184	1	-6
657.354	1	-5
657.523	1	2
657.693	1	8
657.862	1	5
658.032	1	2
658.201	1	3
658.371	1	3
658.540	1	15
658.709	1	17
658.879	1	-10
659.048	1	-2
659.218	1	6
659.387	1	5
659.557	1	15
659.726	1	13
659.895	1	4
660.065	1	14
660.234	1	5
660.404	1	20
660.573	1	1
660.743	1	11
660.912	1	7
661.081	1	8
661.251	1	4
661.420	1	11
661.590	1	10
661.759	1	7
661.929	1	15
662.098	1	9
662.267	1	8
662.437	1	15
662.606	1	3
662.776	1	10
662.945	1	20
663.115	1	-2
663.284	1	0
663.453	1	10
663.623	1	9
663.792	1	9
663.962	1	1
664.131	1	-2
664.300	1	7
664.470	1	0
664.639	1	7
664.809	1	15
664.978	1	10
665.148	1	16
665.317	1	3
665.486	1	10
665.656	1	10
665.825	1	14
665.995	1	6
666.164	1	15
666.333	1	12
666.503	1	14
666.672	1	6
666.842	1	-1
667.011	1	11
667.180	1	9
667.350	1	17
667.519	1	1
667.689	1	21
667.858	1	15
668.027	1	6
668.197	1	14
668.366	1	12
668.536	1	12
668.705	1	8
668.874	1	15
669.044	1	2
669.213	1	4
669.382	1	21
669.552	1	3
669.721	1	6
669.891	1	-3
670.060	1	8
670.229	1	14
670.399	1	12
670.568	1	25
670.738	1	3
670.907	1	14
671.076	1	11
671.246	1	-6
671.415	1	11
671.584	1	6
671.754	1	11
671.923	1	15
672.093	1	10
672.262	1	20
672.431	1	14
672.601	1	2
672.770	1	-3
672.939	1	10
673.109	1	1
673.278	1	22
673.448	1	9
673.617	1	15
673.786	1	11
