325.333	1	4
325.504	1	2
325.675	1	3
325.846	1	5
326.017	1	11
326.188	1	11
326.359	1	15
326.531	1	1
326.702	1	10
326.873	1	13
327.044	1	8
327.215	1	7
327.386	1	6
327.557	1	17
327.728	1	3
327.899	1	3
328.070	1	10
328.241	1	17
328.412	1	6
328.583	1	14
328.754	1	-2
328.926	1	10
329.097	1	10
329.268	1	11
329.439	1	12
329.610	1	13
329.781	1	13
329.952	1	9
330.123	1	4
330.294	1	3
330.465	1	23
330.636	1	7
330.807	1	6
330.978	1	19
331.149	1	20
331.320	1	13
331.492	1	10
331.663	1	5
331.834	1	14
332.005	1	4
332.176	1	10
332.347	1	15
332.518	1	-1
332.689	1	12
332.860	1	5
333.031	1	12
333.202	1	19
333.373	1	14
333.544	1	3
333.715	1	8
333.886	1	17
334.057	1	8
334.228	1	21
334.399	1	14
334.570	1	8
334.741	1	10
334.912	1	15
335.084	1	16
335.255	1	6
335.426	1	6
335.597	1	20
335.768	1	4
335.939	1	14
336.110	1	8
336.281	1	21
336.452	1	20
336.623	1	13
336.794	1	3
336.965	1	8
337.136	1	16
337.307	1	16
337.478	1	4
337.649	1	4
337.820	1	8
337.991	1	19
338.162	1	13
338.333	1	13
338.504	1	5
338.675	1	9
338.846	1	15
339.017	1	20
339.188	1	20
339.359	1	2
339.530	1	16
339.701	1	3
339.872	1	21
340.043	1	9
340.214	1	19
340.385	1	12
340.556	1	17
340.727	1	13
340.898	1	13
341.069	1	23
341.240	1	20
341.411	1	17
341.582	1	21
341.753	1	15
341.924	1	23
342.095	1	15
342.266	1	3
342.437	1	8
342.608	1	11
342.779	1	11
342.950	1	22
343.121	1	14
343.292	1	20
343.463	1	23
343.634	1	16
343.805	1	12
343.976	1	20
344.147	1	20
344.318	1	17
344.489	1	21
344.660	1	10
344.831	1	11
345.002	1	5
345.173	1	17
345.344	1	11
345.515	1	22
345.686	1	22
345.857	1	16
346.028	1	33
346.199	1	20
346.370	1	14
346.541	1	29
346.712	1	4
346.883	1	15
347.054	1	9
347.225	1	14
347.396	1	26
347.567	1	25
347.738	1	27
347.909	1	25
348.080	1	7
348.251	1	18
348.422	1	20
348.593	1	17
348.764	1	2
348.935	1	11
349.106	1	14
349.277	1	30
349.448	1	17
349.619	1	20
349.790	1	31
349.961	1	19
350.132	1	18
350.303	1	27
350.474	1	19
350.645	1	19
350.816	1	28
350.987	1	12
351.157	1	19
351.328	1	32
351.499	1	29
351.670	1	23
351.841	1	14
352.012	1	21
352.183	1	14
352.354	1	19
352.525	1	12
352.696	1	19
352.867	1	11
353.038	1	29
353.209	1	20
353.380	1	38
353.551	1	25
353.722	1	22
353.893	1	14
354.064	1	26
354.235	1	22
354.406	1	25
354.576	1	17
354.747	1	28
354.918	1	19
355.089	1	35
355.260	1	27
355.431	1	23
355.602	1	23
355.773	1	21
355.944	1	24
356.115	1	18
356.286	1	23
356.457	1	21
356.628	1	27
356.799	1	13
356.970	1	22
357.141	1	32
357.311	1	19
357.482	1	16
357.653	1	23
357.824	1	39
357.995	1	26
358.166	1	34
358.337	1	20
358.508	1	23
358.679	1	29
358.850	1	25
359.021	1	21
359.192	1	30
359.363	1	24
359.533	1	31
359.704	1	35
359.875	1	30
360.046	1	26
360.217	1	32
360.388	1	24
360.559	1	21
360.730	1	26
360.901	1	18
361.072	1	19
361.243	1	33
361.414	1	16
361.584	1	31
361.755	1	36
361.926	1	22
362.097	1	14
362.268	1	32
362.439	1	22
362.610	1	28
362.781	1	25
362.952	1	26
363.123	1	41
363.293	1	28
363.464	1	19
363.635	1	41
363.806	1	28
363.977	1	25
364.148	1	28
364.319	1	13
364.490	1	27
364.661	1	33
364.832	1	31
365.002	1	22
365.173	1	33
365.344	1	23
365.515	1	40
365.686	1	26
365.857	1	23
366.028	1	17
366.199	1	33
366.370	1	26
366.540	1	39
366.711	1	31
366.882	1	18
367.053	1	39
367.224	1	25
367.395	1	24
367.566	1	38
367.737	1	34
367.908	1	34
368.078	1	45
368.249	1	49
368.420	1	26
368.591	1	42
368.762	1	32
368.933	1	20
369.104	1	37
369.274	1	27
369.445	1	28
369.616	1	42
369.787	1	40
369.958	1	22
370.129	1	30
370.300	1	39
370.471	1	34
370.641	1	29
370.812	1	31
370.983	1	14
371.154	1	39
371.325	1	42
371.496	1	31
371.667	1	44
371.837	1	37
372.008	1	31
372.179	1	35
372.350	1	41
372.521	1	31
372.692	1	31
372.863	1	30
373.033	1	43
373.204	1	23
373.375	1	28
373.546	1	36
373.717	1	17
373.888	1	22
374.059	1	42
374.229	1	35
374.400	1	25
374.571	1	31
374.742	1	36
374.913	1	24
375.084	1	30
375.254	1	49
375.425	1	20
375.596	1	30
375.767	1	32
375.938	1	30
376.109	1	26
376.279	1	29
376.450	1	30
376.621	1	38
376.792	1	36
376.963	1	30
377.134	1	35
377.304	1	32
377.475	1	39
377.646	1	23
377.817	1	30
377.988	1	32
378.159	1	21
378.329	1	34
378.500	1	29
378.671	1	28
378.842	1	35
379.013	1	39
379.184	1	35
379.354	1	27
379.525	1	32
379.696	1	24
379.867	1	37
380.038	1	30
380.209	1	15
380.379	1	36
380.550	1	40
380.721	1	34
380.892	1	35
381.063	1	39
381.233	1	24
381.404	1	38
381.575	1	33
381.746	1	36
381.917	1	32
382.087	1	49
382.258	1	35
382.429	1	47
382.600	1	34
382.771	1	45
382.941	1	26
383.112	1	40
383.283	1	49
383.454	1	34
383.625	1	42
383.795	1	45
383.966	1	26
384.137	1	36
384.308	1	42
384.479	1	46
384.649	1	39
384.820	1	39
384.991	1	45
385.162	1	42
385.333	1	41
385.503	1	47
385.674	1	30
385.845	1	35
386.016	1	36
386.187	1	34
386.357	1	55
386.528	1	31
386.699	1	41
386.870	1	44
387.041	1	42
387.211	1	39
387.382	1	33
387.553	1	36
387.724	1	34
387.894	1	46
388.065	1	47
388.236	1	37
388.407	1	43
388.578	1	40
388.748	1	45
388.919	1	39
389.090	1	44
389.261	1	44
389.431	1	52
389.602	1	47
389.773	1	38
389.944	1	44
390.114	1	50
390.285	1	38
390.456	1	25
390.627	1	42
390.798	1	43
390.968	1	47
391.139	1	34
391.310	1	57
391.481	1	47
391.651	1	42
391.822	1	36
391.993	1	46
392.164	1	30
392.334	1	44
392.505	1	31
392.676	1	43
392.847	1	42
393.017	1	53
393.188	1	41
393.359	1	46
393.530	1	45
393.700	1	50
393.871	1	42
394.042	1	29
394.213	1	47
394.383	1	44
394.554	1	50
394.725	1	49
394.896	1	35
395.066	1	46
395.237	1	49
395.408	1	49
395.579	1	40
395.749	1	39
395.920	1	43
396.091	1	33
396.262	1	53
396.432	1	32
396.603	1	54
396.774	1	33
396.945	1	43
397.115	1	47
397.286	1	42
397.457	1	38
397.627	1	38
397.798	1	38
397.969	1	39
398.140	1	53
398.310	1	48
398.481	1	40
398.652	1	53
398.823	1	40
398.993	1	51
399.164	1	57
399.335	1	47
399.505	1	36
399.676	1	45
399.847	1	47
400.018	1	45
400.188	1	49
400.359	1	35
400.530	1	49
400.700	1	42
400.871	1	61
401.042	1	39
401.213	1	28
401.383	1	34
401.554	1	45
401.725	1	43
401.895	1	56
402.066	1	45
402.237	1	42
402.408	1	36
402.578	1	44
402.749	1	38
402.920	1	36
403.090	1	41
403.261	1	58
403.432	1	45
403.603	1	42
403.773	1	58
403.944	1	51
404.115	1	53
404.285	1	44
404.456	1	49
404.627	1	37
404.797	1	42
404.968	1	58
405.139	1	42
405.310	1	37
405.480	1	43
405.651	1	51
405.822	1	56
405.992	1	39
406.163	1	46
406.334	1	35
406.504	1	42
406.675	1	56
406.846	1	42
407.016	1	45
407.187	1	48
407.358	1	39
407.528	1	43
407.699	1	43
407.870	1	40
408.041	1	48
408.211	1	39
408.382	1	53
408.553	1	45
408.723	1	52
408.894	1	48
409.065	1	51
409.235	1	39
409.406	1	41
409.577	1	49
409.747	1	41
409.918	1	42
410.089	1	52
410.259	1	55
410.430	1	41
410.601	1	45
410.771	1	51
410.942	1	59
411.113	1	31
411.283	1	39
411.454	1	37
411.625	1	43
411.795	1	52
411.966	1	51
412.137	1	45
412.307	1	50
412.478	1	55
412.649	1	49
412.819	1	56
412.990	1	52
413.161	1	44
413.331	1	50
413.502	1	48
413.672	1	54
413.843	1	62
414.014	1	50
414.184	1	48
414.355	1	57
414.526	1	54
414.696	1	48
414.867	1	53
415.038	1	38
415.208	1	61
415.379	1	48
415.550	1	56
415.720	1	39
415.891	1	43
416.062	1	51
416.232	1	49
416.403	1	60
416.573	1	47
416.744	1	44
416.915	1	52
417.085	1	61
417.256	1	39
417.427	1	53
417.597	1	35
417.768	1	36
417.939	1	49
418.109	1	48
418.280	1	42
418.450	1	49
418.621	1	38
418.792	1	48
418.962	1	44
419.133	1	43
419.304	1	47
419.474	1	44
419.645	1	41
419.815	1	46
419.986	1	36
420.157	1	41
420.327	1	46
420.498	1	39
420.669	1	51
420.839	1	36
421.010	1	41
421.180	1	42
421.351	1	41
421.522	1	39
421.692	1	47
421.863	1	44
422.033	1	45
422.204	1	38
422.375	1	52
422.545	1	36
422.716	1	39
422.886	1	43
423.057	1	36
423.228	1	37
423.398	1	44
423.569	1	45
423.740	1	47
423.910	1	40
424.081	1	35
424.251	1	42
424.422	1	50
424.593	1	44
424.763	1	46
424.934	1	43
425.104	1	47
425.275	1	49
425.445	1	43
425.616	1	33
425.787	1	40
425.957	1	53
426.128	1	26
426.298	1	26
426.469	1	41
426.640	1	51
426.810	1	39
426.981	1	39
427.151	1	43
427.322	1	43
427.493	1	52
427.663	1	48
427.834	1	37
428.004	1	52
428.175	1	46
428.345	1	25
428.516	1	44
428.687	1	45
428.857	1	40
429.028	1	36
429.198	1	34
429.369	1	47
429.540	1	30
429.710	1	40
429.881	1	43
430.051	1	45
430.222	1	35
430.392	1	52
430.563	1	50
430.734	1	45
430.904	1	47
431.075	1	41
431.245	1	37
431.416	1	38
431.586	1	40
431.757	1	40
431.927	1	34
432.098	1	36
432.269	1	43
432.439	1	53
432.610	1	43
432.780	1	48
432.951	1	35
433.121	1	44
433.292	1	35
433.462	1	32
433.633	1	40
433.804	1	43
433.974	1	35
434.145	1	40
434.315	1	45
434.486	1	48
434.656	1	39
434.827	1	44
434.997	1	41
435.168	1	32
435.339	1	41
435.509	1	38
435.680	1	40
435.850	1	36
436.021	1	44
436.191	1	46
436.362	1	29
436.532	1	46
436.703	1	41
436.873	1	43
437.044	1	43
437.214	1	57
437.385	1	45
437.556	1	38
437.726	1	40
437.897	1	36
438.067	1	48
438.238	1	41
438.408	1	38
438.579	1	41
438.749	1	37
438.920	1	33
439.090	1	37
439.261	1	32
439.431	1	40
439.602	1	44
439.772	1	43
439.943	1	41
440.113	1	37
440.284	1	37
440.455	1	44
440.625	1	43
440.796	1	37
440.966	1	38
441.137	1	39
441.307	1	48
441.478	1	35
441.648	1	38
441.819	1	46
441.989	1	41
442.160	1	27
442.330	1	30
442.501	1	43
442.671	1	37
442.842	1	31
443.012	1	43
443.183	1	33
443.353	1	35
443.524	1	45
443.694	1	33
443.865	1	37
444.035	1	40
444.206	1	42
444.376	1	34
444.547	1	32
444.717	1	45
444.888	1	42
445.058	1	51
445.229	1	35
445.399	1	42
445.570	1	52
445.740	1	36
445.911	1	23
446.081	1	37
446.252	1	35
446.422	1	43
446.593	1	28
446.763	1	55
446.934	1	23
447.104	1	39
447.275	1	22
447.445	1	30
447.616	1	40
447.786	1	32
447.957	1	46
448.127	1	27
448.298	1	21
448.468	1	44
448.639	1	43
448.809	1	31
448.979	1	31
449.150	1	33
449.320	1	25
449.491	1	31
449.661	1	32
449.832	1	16
450.002	1	29
450.173	1	36
450.343	1	41
450.514	1	34
450.684	1	40
450.855	1	42
451.025	1	37
451.196	1	35
451.366	1	41
451.537	1	28
451.707	1	35
451.878	1	27
452.048	1	35
452.218	1	34
452.389	1	47
452.559	1	36
452.730	1	39
452.900	1	30
453.071	1	37
453.241	1	35
453.412	1	16
453.582	1	40
453.753	1	37
453.923	1	29
454.093	1	38
454.264	1	38
454.434	1	26
454.605	1	39
454.775	1	20
454.946	1	17
455.116	1	29
455.287	1	36
455.457	1	30
455.628	1	32
455.798	1	35
455.968	1	24
456.139	1	34
456.309	1	45
456.480	1	24
456.650	1	27
456.821	1	31
456.991	1	22
457.161	1	30
457.332	1	29
457.502	1	31
457.673	1	36
457.843	1	21
458.014	1	32
458.184	1	32
458.355	1	19
458.525	1	44
458.695	1	32
458.866	1	30
459.036	1	34
459.207	1	36
459.377	1	21
459.548	1	29
459.718	1	39
459.888	1	26
460.059	1	35
460.229	1	31
460.400	1	24
460.570	1	32
460.740	1	31
460.911	1	23
461.081	1	27
461.252	1	27
461.422	1	17
461.593	1	33
461.763	1	22
461.933	1	21
462.104	1	29
462.274	1	29
462.445	1	23
462.615	1	26
462.785	1	39
462.956	1	21
463.126	1	25
463.297	1	33
463.467	1	28
463.638	1	22
463.808	1	19
463.978	1	22
464.149	1	25
464.319	1	15
464.490	1	24
464.660	1	37
464.830	1	35
465.001	1	26
465.171	1	22
465.342	1	31
465.512	1	36
465.682	1	22
465.853	1	42
466.023	1	39
466.194	1	12
466.364	1	27
466.534	1	14
466.705	1	32
466.875	1	23
467.045	1	35
467.216	1	31
467.386	1	23
467.557	1	34
467.727	1	30
467.897	1	37
468.068	1	21
468.238	1	27
468.409	1	37
468.579	1	28
468.749	1	32
468.920	1	34
469.090	1	30
469.260	1	34
469.431	1	19
469.601	1	22
469.772	1	18
469.942	1	30
470.112	1	22
470.283	1	26
470.453	1	25
470.623	1	20
470.794	1	19
470.964	1	36
471.135	1	23
471.305	1	18
471.475	1	25
471.646	1	23
471.816	1	31
471.986	1	25
472.157	1	21
472.327	1	26
472.497	1	29
472.668	1	17
472.838	1	31
473.009	1	18
473.179	1	25
473.349	1	25
473.520	1	18
473.690	1	22
473.860	1	30
474.031	1	20
474.201	1	29
474.371	1	31
474.542	1	35
474.712	1	23
474.882	1	16
475.053	1	18
475.223	1	14
475.394	1	17
475.564	1	17
475.734	1	15
475.905	1	19
476.075	1	22
476.245	1	27
476.416	1	23
476.586	1	25
476.756	1	6
476.927	1	17
477.097	1	23
477.267	1	26
477.438	1	10
477.608	1	29
477.778	1	25
477.949	1	24
478.119	1	13
478.289	1	16
478.460	1	33
478.630	1	18
478.800	1	21
478.971	1	26
479.141	1	24
479.311	1	21
479.482	1	10
479.652	1	18
479.822	1	9
479.993	1	25
480.163	1	22
480.333	1	42
480.504	1	20
480.674	1	11
480.844	1	2
481.015	1	14
481.185	1	28
481.355	1	23
481.525	1	15
481.696	1	13
481.866	1	29
482.036	1	12
482.207	1	13
482.377	1	22
482.547	1	12
482.718	1	18
482.888	1	5
483.058	1	22
483.229	1	23
483.399	1	18
483.569	1	10
483.740	1	26
483.910	1	28
484.080	1	26
484.250	1	12
484.421	1	22
484.591	1	28
484.761	1	19
484.932	1	27
485.102	1	4
485.272	1	13
485.443	1	9
485.613	1	16
485.783	1	16
485.953	1	16
486.124	1	20
486.294	1	21
486.464	1	24
486.635	1	17
486.805	1	22
486.975	1	15
487.146	1	14
487.316	1	1
487.486	1	21
487.656	1	26
487.827	1	15
487.997	1	14
488.167	1	19
488.338	1	17
488.508	1	2
488.678	1	31
488.848	1	16
489.019	1	24
489.189	1	8
489.359	1	16
489.529	1	11
489.700	1	13
489.870	1	16
490.040	1	4
490.211	1	18
490.381	1	24
490.551	1	21
490.721	1	24
490.892	1	32
491.062	1	11
491.232	1	11
491.402	1	11
491.573	1	18
491.743	1	6
491.913	1	16
492.084	1	21
492.254	1	32
492.424	1	9
492.594	1	1
492.765	1	18
492.935	1	12
493.105	1	6
493.275	1	19
493.446	1	19
493.616	1	10
493.786	1	6
493.956	1	21
494.127	1	14
494.297	1	18
494.467	1	10
494.637	1	27
494.808	1	21
494.978	1	4
495.148	1	28
495.318	1	13
495.489	1	19
495.659	1	18
495.829	1	13
495.999	1	8
496.170	1	12
496.340	1	14
496.510	1	17
496.680	1	19
496.851	1	25
497.021	1	13
497.191	1	11
497.361	1	31
497.532	1	21
497.702	1	15
497.872	1	10
498.042	1	23
498.213	1	16
498.383	1	18
498.553	1	11
498.723	1	14
498.894	1	22
499.064	1	-3
499.234	1	18
499.404	1	21
499.574	1	10
499.745	1	7
499.915	1	0
500.085	1	15
500.255	1	11
500.426	1	10
500.596	1	29
500.766	1	14
500.936	1	10
501.106	1	16
501.277	1	29
501.447	1	15
501.617	1	9
501.787	1	11
501.958	1	8
502.128	1	15
502.298	1	13
502.468	1	6
502.638	1	26
502.809	1	24
502.979	1	15
503.149	1	14
503.319	1	21
503.489	1	11
503.660	1	4
503.830	1	20
504.000	1	12
504.170	1	7
504.340	1	19
504.511	1	24
504.681	1	6
504.851	1	7
505.021	1	14
505.192	1	17
505.362	1	12
505.532	1	14
505.702	1	14
505.872	1	14
506.043	1	1
506.213	1	8
506.383	1	7
506.553	1	12
506.723	1	9
506.893	1	8
507.064	1	25
507.234	1	5
507.404	1	13
507.574	1	10
507.744	1	14
507.915	1	18
508.085	1	10
508.255	1	11
508.425	1	9
508.595	1	1
508.766	1	19
508.936	1	18
509.106	1	13
509.276	1	15
509.446	1	1
509.616	1	24
509.787	1	14
509.957	1	22
510.127	1	18
510.297	1	20
510.467	1	9
510.638	1	6
510.808	1	9
510.978	1	19
511.148	1	11
511.318	1	35
511.488	1	5
511.659	1	-6
511.829	1	2
511.999	1	13
512.169	1	18
512.339	1	18
512.509	1	18
512.680	1	13
512.850	1	15
513.020	1	13
513.190	1	3
513.360	1	15
513.530	1	18
513.700	1	22
513.871	1	19
514.041	1	15
514.211	1	22
514.381	1	12
514.551	1	14
514.721	1	9
514.892	1	8
515.062	1	13
515.232	1	-2
515.402	1	19
515.572	1	0
515.742	1	16
515.912	1	17
516.083	1	9
516.253	1	14
516.423	1	16
516.593	1	6
516.763	1	11
516.933	1	17
517.104	1	7
517.274	1	13
517.444	1	10
517.614	1	5
517.784	1	9
517.954	1	7
518.124	1	1
518.294	1	14
518.465	1	8
518.635	1	1
518.805	1	9
518.975	1	9
519.145	1	8
519.315	1	16
519.485	1	3
519.656	1	15
519.826	1	8
519.996	1	7
520.166	1	10
520.336	1	19
520.506	1	7
520.676	1	9
520.846	1	16
521.017	1	1
521.187	1	4
521.357	1	17
521.527	1	15
521.697	1	5
521.867	1	9
522.037	1	16
522.207	1	13
522.377	1	4
522.548	1	6
522.718	1	18
522.888	1	-3
523.058	1	4
523.228	1	19
523.398	1	7
523.568	1	10
523.738	1	13
523.909	1	23
524.079	1	12
524.249	1	10
524.419	1	-1
524.589	1	15
524.759	1	1
524.929	1	13
525.099	1	16
525.269	1	18
525.439	1	-2
525.610	1	21
525.780	1	16
525.950	1	14
526.120	1	6
526.290	1	8
526.460	1	9
526.630	1	12
526.800	1	6
526.970	1	10
527.140	1	22
527.311	1	6
527.481	1	-5
527.651	1	11
527.821	1	4
527.991	1	6
528.161	1	4
528.331	1	5
528.501	1	9
528.671	1	7
528.841	1	12
529.011	1	10
529.181	1	27
529.352	1	11
529.522	1	3
529.692	1	0
529.862	1	9
530.032	1	-3
530.202	1	11
530.372	1	12
530.542	1	18
530.712	1	-2
530.882	1	-1
531.052	1	9
531.222	1	10
531.392	1	9
531.563	1	8
531.733	1	12
531.903	1	10
532.073	1	6
532.243	1	22
532.413	1	14
532.583	1	5
532.753	1	-1
532.923	1	16
533.093	1	11
533.263	1	1
533.433	1	15
533.603	1	6
533.773	1	17
533.943	1	11
534.113	1	17
534.284	1	8
534.454	1	11
534.624	1	4
534.794	1	9
534.964	1	2
535.134	1	8
535.304	1	18
535.474	1	-2
535.644	1	14
535.814	1	1
535.984	1	4
536.154	1	1
536.324	1	1
536.494	1	16
536.664	1	10
536.834	1	6
537.004	1	5
537.174	1	13
537.344	1	12
537.514	1	3
537.685	1	9
537.855	1	-3
538.025	1	7
538.195	1	10
538.365	1	9
538.535	1	14
538.705	1	7
538.875	1	17
539.045	1	7
539.215	1	6
539.385	1	0
539.555	1	8
539.725	1	18
539.895	1	15
540.065	1	7
540.235	1	0
540.405	1	14
540.575	1	12
540.745	1	11
540.915	1	3
541.085	1	3
541.255	1	12
541.425	1	-6
541.595	1	1
541.765	1	1
541.935	1	17
542.105	1	2
542.275	1	8
542.445	1	8
542.615	1	16
542.785	1	12
542.955	1	10
543.125	1	-2
543.295	1	15
543.465	1	1
543.635	1	-2
543.805	1	15
543.975	1	3
544.145	1	5
544.315	1	3
544.485	1	10
544.655	1	9
544.825	1	9
544.995	1	9
545.165	1	17
545.335	1	-3
545.505	1	15
545.675	1	10
545.845	1	6
546.015	1	10
546.185	1	4
546.355	1	8
546.525	1	7
546.695	1	12
546.865	1	1
547.035	1	6
547.205	1	13
547.375	1	7
547.545	1	9
547.715	1	6
547.885	1	11
548.055	1	11
548.225	1	2
548.395	1	20
548.565	1	-4
548.735	1	11
548.905	1	4
549.075	1	16
549.245	1	19
549.415	1	5
549.585	1	8
549.755	1	1
549.925	1	7
550.095	1	9
550.265	1	-5
550.435	1	9
550.605	1	7
550.775	1	6
550.945	1	2
551.115	1	1
551.285	1	0
551.455	1	0
551.625	1	3
551.795	1	5
551.965	1	7
552.135	1	-6
552.305	1	10
552.475	1	11
552.645	1	16
552.815	1	3
552.985	1	7
553.155	1	3
553.325	1	5
553.495	1	2
553.665	1	10
553.835	1	1
554.004	1	2
554.174	1	-3
554.344	1	9
554.514	1	17
554.684	1	5
554.854	1	-3
555.024	1	17
555.194	1	12
555.364	1	2
555.534	1	8
555.704	1	4
555.874	1	11
556.044	1	1
556.214	1	-5
556.384	1	10
556.554	1	-3
556.724	1	-4
556.894	1	1
557.064	1	7
557.234	1	8
557.404	1	10
557.573	1	1
557.743	1	10
557.913	1	-1
558.083	1	2
558.253	1	-1
558.423	1	-1
558.593	1	12
558.763	1	6
558.933	1	11
559.103	1	2
559.273	1	6
559.443	1	-1
559.613	1	1
559.783	1	4
559.953	1	3
560.122	1	8
560.292	1	-1
560.462	1	3
560.632	1	4
560.802	1	11
560.972	1	9
561.142	1	0
561.312	1	7
561.482	1	6
561.652	1	19
561.822	1	0
561.992	1	1
562.162	1	6
562.331	1	-1
562.501	1	2
562.671	1	12
562.841	1	14
563.011	1	14
563.181	1	17
563.351	1	-8
563.521	1	10
563.691	1	9
563.861	1	2
564.031	1	6
564.201	1	0
564.370	1	15
564.540	1	13
564.710	1	15
564.880	1	13
565.050	1	5
565.220	1	-2
565.390	1	8
565.560	1	6
565.730	1	8
565.900	1	6
566.069	1	8
566.239	1	-2
566.409	1	11
566.579	1	-3
566.749	1	13
566.919	1	1
567.089	1	-6
567.259	1	11
567.429	1	6
567.599	1	1
567.768	1	-1
567.938	1	-1
568.108	1	6
568.278	1	3
568.448	1	9
568.618	1	9
568.788	1	15
568.958	1	18
569.128	1	10
569.297	1	-3
569.467	1	12
569.637	1	-8
569.807	1	3
569.977	1	8
570.147	1	5
570.317	1	19
570.487	1	2
570.656	1	0
570.826	1	17
570.996	1	2
571.166	1	9
571.336	1	6
571.506	1	1
571.676	1	13
571.846	1	-1
572.015	1	3
572.185	1	7
572.355	1	5
572.525	1	0
572.695	1	9
572.865	1	3
573.035	1	3
573.205	1	-5
573.374	1	2
573.544	1	-2
573.714	1	12
573.884	1	11
574.054	1	7
574.224	1	9
574.394	1	2
574.563	1	7
574.733	1	7
574.903	1	8
575.073	1	2
575.243	1	-3
575.413	1	8
575.583	1	3
575.752	1	6
575.922	1	7
576.092	1	8
576.262	1	9
576.432	1	-3
576.602	1	3
576.772	1	-6
576.941	1	18
577.111	1	5
577.281	1	11
577.451	1	10
577.621	1	6
577.791	1	-4
577.960	1	14
578.130	1	3
578.300	1	4
578.470	1	6
578.640	1	-2
578.810	1	12
578.979	1	14
579.149	1	7
579.319	1	-5
579.489	1	2
579.659	1	5
579.829	1	2
579.998	1	-5
580.168	1	-1
580.338	1	7
580.508	1	10
580.678	1	3
580.848	1	11
581.017	1	22
581.187	1	4
581.357	1	-5
581.527	1	7
581.697	1	11
581.867	1	4
582.036	1	-4
582.206	1	16
582.376	1	4
582.546	1	13
582.716	1	0
582.885	1	7
583.055	1	9
583.225	1	-4
583.395	1	7
583.565	1	12
583.735	1	3
583.904	1	-3
584.074	1	8
584.244	1	9
584.414	1	9
584.584	1	7
584.753	1	14
584.923	1	6
585.093	1	10
585.263	1	8
585.433	1	8
585.602	1	7
585.772	1	4
585.942	1	-7
586.112	1	0
586.282	1	3
586.451	1	2
586.621	1	4
586.791	1	10
586.961	1	8
587.131	1	9
587.300	1	-21
587.470	1	4
587.640	1	3
587.810	1	-6
587.980	1	16
588.149	1	10
588.319	1	4
588.489	1	18
588.659	1	-1
588.829	1	-1
588.998	1	6
589.168	1	-2
589.338	1	11
589.508	1	9
589.677	1	2
589.847	1	6
590.017	1	10
590.187	1	6
590.357	1	1
590.526	1	16
590.696	1	16
590.866	1	8
591.036	1	4
591.205	1	-1
591.375	1	12
591.545	1	8
591.715	1	6
591.885	1	1
592.054	1	11
592.224	1	1
592.394	1	11
592.564	1	0
592.733	1	16
592.903	1	-3
593.073	1	5
593.243	1	8
593.412	1	-4
593.582	1	12
593.752	1	12
593.922	1	5
594.091	1	11
594.261	1	5
594.431	1	8
594.601	1	3
594.771	1	0
594.940	1	1
595.110	1	5
595.280	1	-6
595.450	1	10
595.619	1	1
595.789	1	-2
595.959	1	1
596.129	1	11
596.298	1	14
596.468	1	3
596.638	1	15
596.808	1	12
596.977	1	16
597.147	1	16
597.317	1	9
597.487	1	-3
597.656	1	7
597.826	1	4
597.996	1	8
598.166	1	2
598.335	1	3
598.505	1	2
598.675	1	3
598.844	1	3
599.014	1	7
599.184	1	17
599.354	1	2
599.523	1	1
599.693	1	16
599.863	1	5
600.033	1	3
600.202	1	5
600.372	1	2
600.542	1	10
600.712	1	2
600.881	1	7
601.051	1	5
601.221	1	6
601.390	1	6
601.560	1	-1
601.730	1	4
601.900	1	10
602.069	1	6
602.239	1	-1
602.409	1	19
602.578	1	4
602.748	1	0
602.918	1	0
603.088	1	-1
603.257	1	8
603.427	1	-2
603.597	1	9
603.767	1	5
603.936	1	15
604.106	1	8
604.276	1	0
604.445	1	8
604.615	1	-2
604.785	1	4
604.954	1	17
605.124	1	9
605.294	1	5
605.464	1	13
605.633	1	19
605.803	1	-2
605.973	1	11
606.142	1	8
606.312	1	2
606.482	1	8
606.652	1	6
606.821	1	6
606.991	1	12
607.161	1	21
607.330	1	2
607.500	1	-3
607.670	1	3
607.839	1	10
608.009	1	-1
608.179	1	6
608.348	1	20
608.518	1	14
608.688	1	3
608.858	1	3
609.027	1	11
609.197	1	9
609.367	1	-3
609.536	1	1
609.706	1	1
609.876	1	-2
610.045	1	3
610.215	1	1
610.385	1	7
610.554	1	2
610.724	1	13
610.894	1	14
611.063	1	1
611.233	1	5
611.403	1	6
611.572	1	5
611.742	1	8
611.912	1	12
612.081	1	1
612.251	1	20
612.421	1	14
612.590	1	2
612.760	1	6
612.930	1	4
613.099	1	4
613.269	1	10
613.439	1	8
613.608	1	19
613.778	1	0
613.948	1	9
614.117	1	13
614.287	1	9
614.457	1	4
614.626	1	-2
614.796	1	-1
614.966	1	6
615.135	1	0
615.305	1	5
615.475	1	7
615.644	1	3
615.814	1	6
615.984	1	4
616.153	1	6
616.323	1	2
616.493	1	2
616.662	1	10
616.832	1	4
617.002	1	11
617.171	1	4
617.341	1	8
617.511	1	15
617.680	1	1
617.850	1	-5
618.019	1	10
618.189	1	4
618.359	1	14
618.528	1	11
618.698	1	12
618.868	1	10
619.037	1	13
619.207	1	0
619.377	1	10
619.546	1	0
619.716	1	0
619.885	1	14
620.055	1	3
620.225	1	15
620.394	1	11
620.564	1	14
620.734	1	8
620.903	1	9
621.073	1	11
621.242	1	-5
621.412	1	8
621.582	1	2
621.751	1	7
621.921	1	10
622.091	1	8
622.260	1	2
622.430	1	9
622.599	1	9
622.769	1	5
622.939	1	8
623.108	1	10
623.278	1	12
623.448	1	5
623.617	1	-2
623.787	1	11
623.956	1	0
624.126	1	19
624.296	1	14
624.465	1	1
624.635	1	4
624.804	1	9
624.974	1	14
625.144	1	10
625.313	1	-4
625.483	1	5
625.652	1	6
625.822	1	7
625.992	1	7
626.161	1	6
626.331	1	-4
626.501	1	14
626.670	1	12
626.840	1	5
627.009	1	9
627.179	1	11
627.348	1	4
627.518	1	18
627.688	1	3
627.857	1	16
628.027	1	11
628.196	1	13
628.366	1	9
628.536	1	7
628.705	1	-6
628.875	1	8
629.044	1	3
629.214	1	5
629.384	1	16
629.553	1	9
629.723	1	2
629.892	1	13
630.062	1	8
630.232	1	-7
630.401	1	2
630.571	1	8
630.740	1	11
630.910	1	14
631.079	1	14
631.249	1	11
631.419	1	3
631.588	1	8
631.758	1	-1
631.927	1	8
632.097	1	19
632.266	1	11
632.436	1	-6
632.606	1	11
632.775	1	9
632.945	1	3
633.114	1	-5
633.284	1	1
633.453	1	3
633.623	1	8
633.793	1	6
633.962	1	0
634.132	1	17
634.301	1	10
634.471	1	16
634.640	1	10
634.810	1	13
634.979	1	13
635.149	1	7
635.319	1	7
635.488	1	12
635.658	1	-3
635.827	1	6
635.997	1	5
636.166	1	8
636.336	1	3
636.505	1	18
636.675	1	4
636.845	1	16
637.014	1	13
637.184	1	9
637.353	1	13
637.523	1	6
637.692	1	3
637.862	1	8
638.031	1	15
638.201	1	20
638.370	1	12
638.540	1	3
638.710	1	6
638.879	1	6
639.049	1	7
639.218	1	1
639.388	1	16
639.557	1	1
639.727	1	6
639.896	1	7
640.066	1	2
640.235	1	14
640.405	1	0
640.574	1	10
640.744	1	13
640.914	1	12
641.083	1	3
641.253	1	4
641.422	1	11
641.592	1	5
641.761	1	22
641.931	1	-3
642.100	1	11
642.270	1	7
642.439	1	-2
642.609	1	9
642.778	1	13
642.948	1	-4
643.117	1	12
643.287	1	-6
643.456	1	1
643.626	1	13
643.795	1	8
643.965	1	8
644.134	1	6
644.304	1	16
644.473	1	8
644.643	1	-1
644.812	1	10
644.982	1	6
645.151	1	0
645.321	1	1
645.490	1	10
645.660	1	9
645.829	1	14
645.999	1	16
646.168	1	20
646.338	1	4
646.507	1	-2
646.677	1	9
646.846	1	7
647.016	1	11
647.185	1	7
647.355	1	2
647.524	1	3
647.694	1	12
647.863	1	12
648.033	1	11
648.202	1	0
648.372	1	11
648.541	1	3
648.711	1	4
648.880	1	10
649.050	1	21
649.219	1	4
649.389	1	10
649.558	1	10
649.728	1	10
649.897	1	2
650.067	1	5
650.236	1	8
650.406	1	1
650.575	1	6
650.745	1	11
650.914	1	9
651.084	1	6
651.253	1	13
651.423	1	2
651.592	1	11
651.762	1	12
651.931	1	10
652.101	1	2
652.270	1	-1
652.440	1	12
652.609	1	9
652.778	1	8
652.948	1	4
653.117	1	20
653.287	1	9
653.456	1	13
653.626	1	10
653.795	1	5
653.965	1	18
654.134	1	7
654.304	1	8
654.473	1	7
654.643	1	16
654.812	1	14
654.982	1	16
655.151	1	18
655.320	1	11
655.490	1	3
655.659	1	6
655.829	1	-3
655.998	1	10
656.168	1	-1
656.337	1	14
656.507	1	6
656.676	1	5
656.846	1	7
657.015	1	21
657.184	1	6
657.354	1	9
657.523	1	11
657.693	1	7
657.862	1	2
658.032	1	5
658.201	1	5
658.371	1	17
658.540	1	19
658.709	1	20
658.879	1	-7
659.048	1	-4
659.218	1	18
659.387	1	6
659.557	1	15
659.726	1	19
659.895	1	14
660.065	1	9
660.234	1	4
660.404	1	22
660.573	1	14
660.743	1	5
660.912	1	20
661.081	1	7
661.251	1	-1
661.420	1	11
661.590	1	11
661.759	1	3
661.929	1	20
662.098	1	16
662.267	1	17
662.437	1	2
662.606	1	7
662.776	1	6
662.945	1	17
663.115	1	-2
663.284	1	0
663.453	1	9
663.623	1	7
663.792	1	4
663.962	1	5
664.131	1	10
664.300	1	5
664.470	1	5
664.639	1	11
664.809	1	15
664.978	1	20
665.148	1	13
665.317	1	5
665.486	1	11
665.656	1	12
665.825	1	11
665.995	1	-1
666.164	1	22
666.333	1	7
666.503	1	20
666.672	1	19
666.842	1	0
667.011	1	8
667.180	1	14
667.350	1	14
667.519	1	-3
667.689	1	17
667.858	1	20
668.027	1	7
668.197	1	10
668.366	1	18
668.536	1	9
668.705	1	12
668.874	1	12
669.044	1	7
669.213	1	7
669.382	1	19
669.552	1	6
669.721	1	3
669.891	1	3
670.060	1	-1
670.229	1	12
670.399	1	14
670.568	1	12
670.738	1	11
670.907	1	10
671.076	1	11
671.246	1	4
671.415	1	11
671.584	1	-2
671.754	1	12
671.923	1	9
672.093	1	14
672.262	1	2
672.431	1	17
672.601	1	7
672.770	1	1
672.939	1	0
673.109	1	6
673.278	1	21
673.448	1	6
673.617	1	7
673.786	1	3
