325.333	1	16
325.504	1	13
325.675	1	12
325.846	1	19
326.017	1	16
326.188	1	20
326.359	1	26
326.531	1	22
326.702	1	26
326.873	1	26
327.044	1	15
327.215	1	11
327.386	1	16
327.557	1	24
327.728	1	2
327.899	1	26
328.070	1	21
328.241	1	21
328.412	1	11
328.583	1	33
328.754	1	13
328.926	1	15
329.097	1	27
329.268	1	22
329.439	1	26
329.610	1	28
329.781	1	23
329.952	1	27
330.123	1	20
330.294	1	17
330.465	1	28
330.636	1	22
330.807	1	13
330.978	1	21
331.149	1	24
331.320	1	31
331.492	1	32
331.663	1	14
331.834	1	23
332.005	1	20
332.176	1	27
332.347	1	24
332.518	1	17
332.689	1	37
332.860	1	11
333.031	1	41
333.202	1	45
333.373	1	24
333.544	1	21
333.715	1	20
333.886	1	24
334.057	1	34
334.228	1	29
334.399	1	21
334.570	1	36
334.741	1	42
334.912	1	26
335.084	1	31
335.255	1	19
335.426	1	16
335.597	1	30
335.768	1	13
335.939	1	29
336.110	1	38
336.281	1	25
336.452	1	44
336.623	1	31
336.794	1	27
336.965	1	23
337.136	1	31
337.307	1	32
337.478	1	16
337.649	1	33
337.820	1	29
337.991	1	36
338.162	1	32
338.333	1	34
338.504	1	29
338.675	1	40
338.846	1	30
339.017	1	37
339.188	1	35
339.359	1	41
339.530	1	31
339.701	1	37
339.872	1	33
340.043	1	36
340.214	1	33
340.385	1	38
340.556	1	28
340.727	1	25
340.898	1	34
341.069	1	36
341.240	1	49
341.411	1	47
341.582	1	47
341.753	1	26
341.924	1	39
342.095	1	41
342.266	1	33
342.437	1	27
342.608	1	32
342.779	1	36
342.950	1	40
343.121	1	46
343.292	1	38
343.463	1	39
343.634	1	44
343.805	1	43
343.976	1	45
344.147	1	43
344.318	1	43
344.489	1	44
344.660	1	45
344.831	1	43
345.002	1	36
345.173	1	48
345.344	1	34
345.515	1	48
345.686	1	40
345.857	1	48
346.028	1	48
346.199	1	48
346.370	1	45
346.541	1	55
346.712	1	38
346.883	1	48
347.054	1	36
347.225	1	46
347.396	1	55
347.567	1	51
347.738	1	46
347.909	1	51
348.080	1	43
348.251	1	45
348.422	1	51
348.593	1	47
348.764	1	45
348.935	1	44
349.106	1	39
349.277	1	60
349.448	1	51
349.619	1	54
349.790	1	51
349.961	1	49
350.132	1	45
350.303	1	65
350.474	1	44
350.645	1	42
350.816	1	52
350.987	1	45
351.157	1	48
351.328	1	61
351.499	1	51
351.670	1	50
351.841	1	51
352.012	1	58
352.183	1	48
352.354	1	58
352.525	1	61
352.696	1	45
352.867	1	51
353.038	1	58
353.209	1	66
353.380	1	57
353.551	1	61
353.722	1	59
353.893	1	61
354.064	1	63
354.235	1	59
354.406	1	70
354.576	1	52
354.747	1	52
354.918	1	63
355.089	1	59
355.260	1	66
355.431	1	52
355.602	1	61
355.773	1	57
355.944	1	52
356.115	1	57
356.286	1	58
356.457	1	66
356.628	1	65
356.799	1	49
356.970	1	57
357.141	1	64
357.311	1	72
357.482	1	50
357.653	1	51
357.824	1	72
357.995	1	65
358.166	1	61
358.337	1	55
358.508	1	61
358.679	1	55
358.850	1	62
359.021	1	68
359.192	1	64
359.363	1	66
359.533	1	63
359.704	1	61
359.875	1	77
360.046	1	53
360.217	1	62
360.388	1	64
360.559	1	69
360.730	1	62
360.901	1	71
361.072	1	70
361.243	1	68
361.414	1	63
361.584	1	77
361.755	1	57
361.926	1	63
362.097	1	69
362.268	1	72
362.439	1	68
362.610	1	68
362.781	1	69
362.952	1	73
363.123	1	77
363.293	1	71
363.464	1	61
363.635	1	61
363.806	1	70
363.977	1	67
364.148	1	55
364.319	1	65
364.490	1	72
364.661	1	72
364.832	1	80
365.002	1	68
365.173	1	67
365.344	1	71
365.515	1	72
365.686	1	70
365.857	1	73
366.028	1	67
366.199	1	70
366.370	1	84
366.540	1	79
366.711	1	70
366.882	1	69
367.053	1	74
367.224	1	58
367.395	1	71
367.566	1	74
367.737	1	71
367.908	1	69
368.078	1	81
368.249	1	71
368.420	1	66
368.591	1	83
368.762	1	74
368.933	1	66
369.104	1	81
369.274	1	70
369.445	1	73
369.616	1	80
369.787	1	68
369.958	1	75
370.129	1	76
370.300	1	66
370.471	1	95
370.641	1	71
370.812	1	67
370.983	1	67
371.154	1	70
371.325	1	79
371.496	1	70
371.667	1	88
371.837	1	71
372.008	1	75
372.179	1	73
372.350	1	75
372.521	1	74
372.692	1	81
372.863	1	76
373.033	1	73
373.204	1	69
373.375	1	84
373.546	1	80
373.717	1	73
373.888	1	63
374.059	1	81
374.229	1	76
374.400	1	70
374.571	1	82
374.742	1	81
374.913	1	68
375.084	1	76
375.254	1	89
375.425	1	71
375.596	1	78
375.767	1	72
375.938	1	80
376.109	1	70
376.279	1	68
376.450	1	76
376.621	1	86
376.792	1	72
376.963	1	79
377.134	1	82
377.304	1	84
377.475	1	80
377.646	1	76
377.817	1	71
377.988	1	74
378.159	1	63
378.329	1	85
378.500	1	78
378.671	1	78
378.842	1	75
379.013	1	81
379.184	1	89
379.354	1	73
379.525	1	75
379.696	1	78
379.867	1	95
380.038	1	78
380.209	1	72
380.379	1	88
380.550	1	80
380.721	1	88
380.892	1	86
381.063	1	86
381.233	1	67
381.404	1	93
381.575	1	90
381.746	1	95
381.917	1	82
382.087	1	89
382.258	1	95
382.429	1	93
382.600	1	87
382.771	1	86
382.941	1	82
383.112	1	92
383.283	1	102
383.454	1	91
383.625	1	101
383.795	1	86
383.966	1	92
384.137	1	89
384.308	1	95
384.479	1	93
384.649	1	98
384.820	1	89
384.991	1	82
385.162	1	92
385.333	1	87
385.503	1	87
385.674	1	97
385.845	1	98
386.016	1	96
386.187	1	83
386.357	1	103
386.528	1	90
386.699	1	92
386.870	1	92
387.041	1	83
387.211	1	90
387.382	1	89
387.553	1	89
387.724	1	81
387.894	1	91
388.065	1	90
388.236	1	87
388.407	1	103
388.578	1	76
388.748	1	97
388.919	1	98
389.090	1	95
389.261	1	101
389.431	1	102
389.602	1	95
389.773	1	96
389.944	1	98
390.114	1	94
390.285	1	97
390.456	1	92
390.627	1	92
390.798	1	99
390.968	1	93
391.139	1	103
391.310	1	99
391.481	1	93
391.651	1	101
391.822	1	101
391.993	1	92
392.164	1	99
392.334	1	90
392.505	1	86
392.676	1	99
392.847	1	101
393.017	1	99
393.188	1	98
393.359	1	106
393.530	1	107
393.700	1	107
393.871	1	96
394.042	1	95
394.213	1	103
394.383	1	99
394.554	1	94
394.725	1	103
394.896	1	104
395.066	1	100
395.237	1	96
395.408	1	105
395.579	1	105
395.749	1	103
395.920	1	106
396.091	1	102
396.262	1	106
396.432	1	99
396.603	1	101
396.774	1	96
396.945	1	91
397.115	1	97
397.286	1	92
397.457	1	86
397.627	1	110
397.798	1	87
397.969	1	101
398.140	1	95
398.310	1	106
398.481	1	99
398.652	1	107
398.823	1	107
398.993	1	100
399.164	1	102
399.335	1	97
399.505	1	98
399.676	1	92
399.847	1	100
400.018	1	104
400.188	1	102
400.359	1	103
400.530	1	98
400.700	1	93
400.871	1	109
401.042	1	103
401.213	1	96
401.383	1	113
401.554	1	103
401.725	1	106
401.895	1	116
402.066	1	109
402.237	1	116
402.408	1	113
402.578	1	116
402.749	1	102
402.920	1	101
403.090	1	111
403.261	1	119
403.432	1	116
403.603	1	106
403.773	1	114
403.944	1	107
404.115	1	116
404.285	1	93
404.456	1	112
404.627	1	111
404.797	1	101
404.968	1	120
405.139	1	110
405.310	1	109
405.480	1	108
405.651	1	114
405.822	1	112
405.992	1	112
406.163	1	112
406.334	1	103
406.504	1	105
406.675	1	101
406.846	1	107
407.016	1	96
407.187	1	118
407.358	1	114
407.528	1	95
407.699	1	112
407.870	1	117
408.041	1	97
408.211	1	106
408.382	1	107
408.553	1	101
408.723	1	110
408.894	1	108
409.065	1	115
409.235	1	116
409.406	1	105
409.577	1	110
409.747	1	112
409.918	1	109
410.089	1	108
410.259	1	125
410.430	1	105
410.601	1	107
410.771	1	112
410.942	1	118
411.113	1	102
411.283	1	103
411.454	1	112
411.625	1	102
411.795	1	111
411.966	1	113
412.137	1	106
412.307	1	111
412.478	1	110
412.649	1	114
412.819	1	98
412.990	1	113
413.161	1	116
413.331	1	112
413.502	1	109
413.672	1	107
413.843	1	119
414.014	1	109
414.184	1	107
414.355	1	126
414.526	1	109
414.696	1	114
414.867	1	111
415.038	1	104
415.208	1	109
415.379	1	111
415.550	1	128
415.720	1	123
415.891	1	113
416.062	1	111
416.232	1	104
416.403	1	112
416.573	1	107
416.744	1	122
416.915	1	108
417.085	1	113
417.256	1	109
417.427	1	109
417.597	1	99
417.768	1	102
417.939	1	117
418.109	1	97
418.280	1	105
418.450	1	107
418.621	1	105
418.792	1	106
418.962	1	113
419.133	1	104
419.304	1	101
419.474	1	101
419.645	1	114
419.815	1	107
419.986	1	95
420.157	1	96
420.327	1	99
420.498	1	99
420.669	1	110
420.839	1	106
421.010	1	105
421.180	1	102
421.351	1	106
421.522	1	100
421.692	1	95
421.863	1	96
422.033	1	112
422.204	1	98
422.375	1	113
422.545	1	106
422.716	1	108
422.886	1	102
423.057	1	90
423.228	1	96
423.398	1	105
423.569	1	112
423.740	1	97
423.910	1	94
424.081	1	103
424.251	1	101
424.422	1	111
424.593	1	96
424.763	1	99
424.934	1	99
425.104	1	97
425.275	1	104
425.445	1	102
425.616	1	107
425.787	1	98
425.957	1	105
426.128	1	86
426.298	1	95
426.469	1	96
426.640	1	108
426.810	1	107
426.981	1	102
427.151	1	112
427.322	1	109
427.493	1	99
427.663	1	96
427.834	1	109
428.004	1	100
428.175	1	108
428.345	1	95
428.516	1	104
428.687	1	97
428.857	1	94
429.028	1	106
429.198	1	86
429.369	1	92
429.540	1	93
429.710	1	92
429.881	1	95
430.051	1	104
430.222	1	92
430.392	1	107
430.563	1	98
430.734	1	102
430.904	1	95
431.075	1	103
431.245	1	90
431.416	1	86
431.586	1	94
431.757	1	103
431.927	1	92
432.098	1	92
432.269	1	82
432.439	1	106
432.610	1	100
432.780	1	86
432.951	1	87
433.121	1	89
433.292	1	85
433.462	1	85
433.633	1	98
433.804	1	113
433.974	1	85
434.145	1	95
434.315	1	88
434.486	1	95
434.656	1	103
434.827	1	90
434.997	1	95
435.168	1	94
435.339	1	104
435.509	1	99
435.680	1	98
435.850	1	91
436.021	1	99
436.191	1	85
436.362	1	91
436.532	1	103
436.703	1	92
436.873	1	105
437.044	1	102
437.214	1	108
437.385	1	92
437.556	1	90
437.726	1	86
437.897	1	93
438.067	1	76
438.238	1	88
438.408	1	92
438.579	1	94
438.749	1	94
438.920	1	92
439.090	1	104
439.261	1	100
439.431	1	102
439.602	1	86
439.772	1	85
439.943	1	91
440.113	1	68
440.284	1	90
440.455	1	96
440.625	1	91
440.796	1	100
440.966	1	96
441.137	1	86
441.307	1	97
441.478	1	92
441.648	1	73
441.819	1	102
441.989	1	89
442.160	1	77
442.330	1	91
442.501	1	92
442.671	1	86
442.842	1	68
443.012	1	87
443.183	1	83
443.353	1	86
443.524	1	79
443.694	1	62
443.865	1	87
444.035	1	77
444.206	1	92
444.376	1	85
444.547	1	88
444.717	1	80
444.888	1	81
445.058	1	98
445.229	1	89
445.399	1	86
445.570	1	96
445.740	1	89
445.911	1	71
446.081	1	87
446.252	1	80
446.422	1	80
446.593	1	68
446.763	1	92
446.934	1	64
447.104	1	81
447.275	1	74
447.445	1	67
447.616	1	71
447.786	1	86
447.957	1	84
448.127	1	72
448.298	1	72
448.468	1	85
448.639	1	82
448.809	1	95
448.979	1	76
449.150	1	86
449.320	1	68
449.491	1	71
449.661	1	79
449.832	1	79
450.002	1	67
450.173	1	81
450.343	1	90
450.514	1	82
450.684	1	82
450.855	1	88
451.025	1	70
451.196	1	74
451.366	1	80
451.537	1	79
451.707	1	66
451.878	1	75
452.048	1	78
452.218	1	78
452.389	1	79
452.559	1	88
452.730	1	71
452.900	1	79
453.071	1	71
453.241	1	65
453.412	1	76
453.582	1	83
453.753	1	67
453.923	1	88
454.093	1	82
454.264	1	79
454.434	1	76
454.605	1	77
454.775	1	69
454.946	1	70
455.116	1	59
455.287	1	73
455.457	1	81
455.628	1	65
455.798	1	74
455.968	1	76
456.139	1	75
456.309	1	83
456.480	1	61
456.650	1	74
456.821	1	73
456.991	1	66
457.161	1	74
457.332	1	79
457.502	1	74
457.673	1	71
457.843	1	65
458.014	1	76
458.184	1	68
458.355	1	66
458.525	1	71
458.695	1	70
458.866	1	76
459.036	1	77
459.207	1	62
459.377	1	70
459.548	1	74
459.718	1	57
459.888	1	72
460.059	1	65
460.229	1	65
460.400	1	69
460.570	1	72
460.740	1	72
460.911	1	67
461.081	1	62
461.252	1	76
461.422	1	58
461.593	1	70
461.763	1	73
461.933	1	58
462.104	1	62
462.274	1	59
462.445	1	68
462.615	1	61
462.785	1	62
462.956	1	64
463.126	1	62
463.297	1	76
463.467	1	64
463.638	1	58
463.808	1	68
463.978	1	55
464.149	1	68
464.319	1	63
464.490	1	59
464.660	1	73
464.830	1	59
465.001	1	65
465.171	1	63
465.342	1	51
465.512	1	66
465.682	1	63
465.853	1	68
466.023	1	75
466.194	1	52
466.364	1	74
466.534	1	55
466.705	1	65
466.875	1	64
467.045	1	66
467.216	1	63
467.386	1	50
467.557	1	68
467.727	1	61
467.897	1	60
468.068	1	63
468.238	1	57
468.409	1	66
468.579	1	57
468.749	1	64
468.920	1	69
469.090	1	55
469.260	1	65
469.431	1	61
469.601	1	61
469.772	1	61
469.942	1	58
470.112	1	62
470.283	1	57
470.453	1	56
470.623	1	57
470.794	1	48
470.964	1	74
471.135	1	67
471.305	1	55
471.475	1	55
471.646	1	58
471.816	1	60
471.986	1	51
472.157	1	56
472.327	1	65
472.497	1	62
472.668	1	43
472.838	1	64
473.009	1	58
473.179	1	65
473.349	1	61
473.520	1	42
473.690	1	57
473.860	1	55
474.031	1	46
474.201	1	62
474.371	1	63
474.542	1	65
474.712	1	43
474.882	1	54
475.053	1	46
475.223	1	49
475.394	1	39
475.564	1	54
475.734	1	49
475.905	1	55
476.075	1	55
476.245	1	63
476.416	1	54
476.586	1	53
476.756	1	49
476.927	1	58
477.097	1	53
477.267	1	47
477.438	1	42
477.608	1	55
477.778	1	53
477.949	1	59
478.119	1	44
478.289	1	47
478.460	1	51
478.630	1	59
478.800	1	54
478.971	1	48
479.141	1	47
479.311	1	54
479.482	1	37
479.652	1	56
479.822	1	42
479.993	1	62
480.163	1	51
480.333	1	69
480.504	1	49
480.674	1	44
480.844	1	49
481.015	1	54
481.185	1	54
481.355	1	49
481.525	1	33
481.696	1	55
481.866	1	52
482.036	1	49
482.207	1	47
482.377	1	43
482.547	1	41
482.718	1	50
482.888	1	40
483.058	1	52
483.229	1	53
483.399	1	48
483.569	1	41
483.740	1	47
483.910	1	49
484.080	1	63
484.250	1	50
484.421	1	52
484.591	1	47
484.761	1	47
484.932	1	56
485.102	1	35
485.272	1	38
485.443	1	50
485.613	1	39
485.783	1	49
485.953	1	41
486.124	1	53
486.294	1	55
486.464	1	48
486.635	1	36
486.805	1	58
486.975	1	48
487.146	1	48
487.316	1	35
487.486	1	45
487.656	1	46
487.827	1	41
487.997	1	43
488.167	1	48
488.338	1	46
488.508	1	47
488.678	1	53
488.848	1	38
489.019	1	45
489.189	1	39
489.359	1	40
489.529	1	50
489.700	1	42
489.870	1	37
490.040	1	29
490.211	1	42
490.381	1	51
490.551	1	41
490.721	1	46
490.892	1	61
491.062	1	37
491.232	1	43
491.402	1	46
491.573	1	37
491.743	1	38
491.913	1	37
492.084	1	41
492.254	1	47
492.424	1	28
492.594	1	38
492.765	1	40
492.935	1	35
493.105	1	34
493.275	1	43
493.446	1	34
493.616	1	24
493.786	1	40
493.956	1	35
494.127	1	42
494.297	1	50
494.467	1	34
494.637	1	42
494.808	1	33
494.978	1	25
495.148	1	42
495.318	1	41
495.489	1	39
495.659	1	38
495.829	1	36
495.999	1	34
496.170	1	40
496.340	1	35
496.510	1	57
496.680	1	29
496.851	1	43
497.021	1	45
497.191	1	28
497.361	1	43
497.532	1	40
497.702	1	36
497.872	1	39
498.042	1	50
498.213	1	42
498.383	1	40
498.553	1	37
498.723	1	25
498.894	1	48
499.064	1	23
499.234	1	40
499.404	1	46
499.574	1	48
499.745	1	35
499.915	1	29
500.085	1	33
500.255	1	30
500.426	1	28
500.596	1	28
500.766	1	32
500.936	1	34
501.106	1	28
501.277	1	42
501.447	1	29
501.617	1	33
501.787	1	40
501.958	1	34
502.128	1	37
502.298	1	34
502.468	1	44
502.638	1	49
502.809	1	30
502.979	1	38
503.149	1	36
503.319	1	30
503.489	1	35
503.660	1	31
503.830	1	28
504.000	1	33
504.170	1	40
504.340	1	36
504.511	1	46
504.681	1	31
504.851	1	29
505.021	1	41
505.192	1	32
505.362	1	36
505.532	1	37
505.702	1	39
505.872	1	30
506.043	1	28
506.213	1	38
506.383	1	22
506.553	1	38
506.723	1	28
506.893	1	31
507.064	1	31
507.234	1	27
507.404	1	37
507.574	1	18
507.744	1	26
507.915	1	39
508.085	1	26
508.255	1	33
508.425	1	31
508.595	1	21
508.766	1	33
508.936	1	37
509.106	1	26
509.276	1	41
509.446	1	25
509.616	1	31
509.787	1	43
509.957	1	31
510.127	1	30
510.297	1	29
510.467	1	38
510.638	1	15
510.808	1	22
510.978	1	35
511.148	1	16
511.318	1	41
511.488	1	24
511.659	1	21
511.829	1	26
511.999	1	23
512.169	1	26
512.339	1	34
512.509	1	24
512.680	1	38
512.850	1	36
513.020	1	24
513.190	1	32
513.360	1	29
513.530	1	28
513.700	1	37
513.871	1	34
514.041	1	30
514.211	1	40
514.381	1	21
514.551	1	21
514.721	1	38
514.892	1	23
515.062	1	17
515.232	1	27
515.402	1	31
515.572	1	25
515.742	1	32
515.912	1	36
516.083	1	19
516.253	1	29
516.423	1	11
516.593	1	24
516.763	1	26
516.933	1	23
517.104	1	25
517.274	1	25
517.444	1	25
517.614	1	27
517.784	1	27
517.954	1	23
518.124	1	25
518.294	1	23
518.465	1	22
518.635	1	22
518.805	1	22
518.975	1	33
519.145	1	23
519.315	1	32
519.485	1	37
519.656	1	22
519.826	1	17
519.996	1	22
520.166	1	19
520.336	1	29
520.506	1	20
520.676	1	25
520.846	1	25
521.017	1	17
521.187	1	17
521.357	1	13
521.527	1	20
521.697	1	21
521.867	1	13
522.037	1	23
522.207	1	23
522.377	1	19
522.548	1	14
522.718	1	18
522.888	1	18
523.058	1	19
523.228	1	28
523.398	1	13
523.568	1	23
523.738	1	28
523.909	1	29
524.079	1	26
524.249	1	17
524.419	1	11
524.589	1	36
524.759	1	15
524.929	1	15
525.099	1	28
525.269	1	22
525.439	1	16
525.610	1	21
525.780	1	22
525.950	1	19
526.120	1	24
526.290	1	33
526.460	1	26
526.630	1	28
526.800	1	15
526.970	1	20
527.140	1	17
527.311	1	9
527.481	1	22
527.651	1	16
527.821	1	10
527.991	1	17
528.161	1	28
528.331	1	18
528.501	1	31
528.671	1	34
528.841	1	12
529.011	1	18
529.181	1	28
529.352	1	2
529.522	1	12
529.692	1	27
529.862	1	22
530.032	1	21
530.202	1	30
530.372	1	28
530.542	1	25
530.712	1	1
530.882	1	7
531.052	1	23
531.222	1	20
531.392	1	19
531.563	1	15
531.733	1	19
531.903	1	20
532.073	1	23
532.243	1	22
532.413	1	17
532.583	1	9
532.753	1	14
532.923	1	28
533.093	1	10
533.263	1	6
533.433	1	18
533.603	1	18
533.773	1	15
533.943	1	17
534.113	1	16
534.284	1	20
534.454	1	17
534.624	1	21
534.794	1	19
534.964	1	24
535.134	1	7
535.304	1	23
535.474	1	14
535.644	1	27
535.814	1	8
535.984	1	18
536.154	1	18
536.324	1	9
536.494	1	11
536.664	1	3
536.834	1	17
537.004	1	5
537.174	1	15
537.344	1	35
537.514	1	17
537.685	1	18
537.855	1	5
538.025	1	14
538.195	1	16
538.365	1	15
538.535	1	14
538.705	1	11
538.875	1	27
539.045	1	22
539.215	1	24
539.385	1	11
539.555	1	15
539.725	1	19
539.895	1	19
540.065	1	13
540.235	1	13
540.405	1	25
540.575	1	27
540.745	1	13
540.915	1	23
541.085	1	17
541.255	1	20
541.425	1	7
541.595	1	14
541.765	1	20
541.935	1	20
542.105	1	14
542.275	1	16
542.445	1	14
542.615	1	18
542.785	1	25
542.955	1	16
543.125	1	16
543.295	1	28
543.465	1	29
543.635	1	1
543.805	1	27
543.975	1	16
544.145	1	19
544.315	1	8
544.485	1	12
544.655	1	27
544.825	1	16
544.995	1	16
545.165	1	18
545.335	1	8
545.505	1	8
545.675	1	20
545.845	1	3
546.015	1	19
546.185	1	10
546.355	1	8
546.525	1	13
546.695	1	12
546.865	1	12
547.035	1	14
547.205	1	21
547.375	1	25
547.545	1	20
547.715	1	29
547.885	1	12
548.055	1	19
548.225	1	16
548.395	1	23
548.565	1	13
548.735	1	2
548.905	1	6
549.075	1	15
549.245	1	9
549.415	1	20
549.585	1	21
549.755	1	13
549.925	1	13
550.095	1	11
550.265	1	1
550.435	1	7
550.605	1	14
550.775	1	11
550.945	1	14
551.115	1	6
551.285	1	5
551.455	1	7
551.625	1	18
551.795	1	20
551.965	1	13
552.135	1	5
552.305	1	20
552.475	1	21
552.645	1	26
552.815	1	10
552.985	1	4
553.155	1	6
553.325	1	2
553.495	1	8
553.665	1	13
553.835	1	10
554.004	1	6
554.174	1	3
554.344	1	12
554.514	1	24
554.684	1	5
554.854	1	16
555.024	1	19
555.194	1	23
555.364	1	7
555.534	1	18
555.704	1	12
555.874	1	21
556.044	1	16
556.214	1	4
556.384	1	16
556.554	1	10
556.724	1	6
556.894	1	23
557.064	1	7
557.234	1	7
557.404	1	12
557.573	1	13
557.743	1	3
557.913	1	5
558.083	1	12
558.253	1	4
558.423	1	16
558.593	1	15
558.763	1	20
558.933	1	20
559.103	1	-1
559.273	1	10
559.443	1	-2
559.613	1	9
559.783	1	2
559.953	1	21
560.122	1	13
560.292	1	16
560.462	1	4
560.632	1	20
560.802	1	11
560.972	1	9
561.142	1	12
561.312	1	8
561.482	1	16
561.652	1	8
561.822	1	4
561.992	1	11
562.162	1	17
562.331	1	5
562.501	1	3
562.671	1	17
562.841	1	19
563.011	1	16
563.181	1	24
563.351	1	5
563.521	1	16
563.691	1	3
563.861	1	23
564.031	1	9
564.201	1	-8
564.370	1	8
564.540	1	18
564.710	1	15
564.880	1	21
565.050	1	12
565.220	1	11
565.390	1	9
565.560	1	18
565.730	1	16
565.900	1	5
566.069	1	21
566.239	1	-3
566.409	1	21
566.579	1	13
566.749	1	25
566.919	1	15
567.089	1	13
567.259	1	12
567.429	1	11
567.599	1	4
567.768	1	13
567.938	1	-5
568.108	1	10
568.278	1	16
568.448	1	15
568.618	1	20
568.788	1	21
568.958	1	15
569.128	1	17
569.297	1	6
569.467	1	14
569.637	1	7
569.807	1	12
569.977	1	14
570.147	1	0
570.317	1	27
570.487	1	3
570.656	1	9
570.826	1	8
570.996	1	14
571.166	1	13
571.336	1	11
571.506	1	7
571.676	1	22
571.846	1	5
572.015	1	13
572.185	1	8
572.355	1	11
572.525	1	6
572.695	1	16
572.865	1	8
573.035	1	8
573.205	1	2
573.374	1	1
573.544	1	3
573.714	1	31
573.884	1	9
574.054	1	15
574.224	1	11
574.394	1	4
574.563	1	11
574.733	1	12
574.903	1	10
575.073	1	8
575.243	1	7
575.413	1	15
575.583	1	6
575.752	1	4
575.922	1	10
576.092	1	3
576.262	1	11
576.432	1	17
576.602	1	12
576.772	1	4
576.941	1	19
577.111	1	15
577.281	1	14
577.451	1	15
577.621	1	18
577.791	1	3
577.960	1	12
578.130	1	4
578.300	1	16
578.470	1	7
578.640	1	12
578.810	1	6
578.979	1	15
579.149	1	1
579.319	1	4
579.489	1	19
579.659	1	5
579.829	1	15
579.998	1	11
580.168	1	14
580.338	1	8
580.508	1	3
580.678	1	2
580.848	1	7
581.017	1	21
581.187	1	11
581.357	1	-7
581.527	1	2
581.697	1	17
581.867	1	6
582.036	1	8
582.206	1	15
582.376	1	2
582.546	1	8
582.716	1	7
582.885	1	19
583.055	1	8
583.225	1	6
583.395	1	19
583.565	1	16
583.735	1	0
583.904	1	14
584.074	1	14
584.244	1	10
584.414	1	11
584.584	1	-1
584.753	1	18
584.923	1	18
585.093	1	9
585.263	1	10
585.433	1	12
585.602	1	6
585.772	1	13
585.942	1	6
586.112	1	13
586.282	1	7
586.451	1	-3
586.621	1	6
586.791	1	10
586.961	1	18
587.131	1	14
587.300	1	0
587.470	1	6
587.640	1	1
587.810	1	4
587.980	1	11
588.149	1	16
588.319	1	5
588.489	1	13
588.659	1	-1
588.829	1	11
588.998	1	12
589.168	1	1
589.338	1	20
589.508	1	9
589.677	1	11
589.847	1	10
590.017	1	18
590.187	1	10
590.357	1	13
590.526	1	14
590.696	1	12
590.866	1	12
591.036	1	10
591.205	1	5
591.375	1	11
591.545	1	13
591.715	1	16
591.885	1	17
592.054	1	12
592.224	1	6
592.394	1	8
592.564	1	7
592.733	1	20
592.903	1	9
593.073	1	8
593.243	1	17
593.412	1	9
593.582	1	11
593.752	1	10
593.922	1	18
594.091	1	13
594.261	1	11
594.431	1	17
594.601	1	6
594.771	1	5
594.940	1	3
595.110	1	17
595.280	1	4
595.450	1	9
595.619	1	7
595.789	1	-1
595.959	1	8
596.129	1	15
596.298	1	13
596.468	1	12
596.638	1	19
596.808	1	25
596.977	1	20
597.147	1	14
597.317	1	11
597.487	1	4
597.656	1	15
597.826	1	0
597.996	1	22
598.166	1	13
598.335	1	19
598.505	1	13
598.675	1	9
598.844	1	11
599.014	1	7
599.184	1	21
599.354	1	18
599.523	1	2
599.693	1	10
599.863	1	9
600.033	1	17
600.202	1	2
600.372	1	5
600.542	1	16
600.712	1	16
600.881	1	6
601.051	1	12
601.221	1	9
601.390	1	20
601.560	1	1
601.730	1	7
601.900	1	14
602.069	1	10
602.239	1	-6
602.409	1	17
602.578	1	7
602.748	1	18
602.918	1	2
603.088	1	11
603.257	1	12
603.427	1	9
603.597	1	12
603.767	1	8
603.936	1	23
604.106	1	8
604.276	1	11
604.445	1	12
604.615	1	5
604.785	1	9
604.954	1	16
605.124	1	3
605.294	1	6
605.464	1	20
605.633	1	23
605.803	1	10
605.973	1	2
606.142	1	7
606.312	1	10
606.482	1	6
606.652	1	13
606.821	1	18
606.991	1	17
607.161	1	24
607.330	1	10
607.500	1	12
607.670	1	0
607.839	1	20
608.009	1	9
608.179	1	14
608.348	1	18
608.518	1	10
608.688	1	16
608.858	1	11
609.027	1	17
609.197	1	22
609.367	1	5
609.536	1	4
609.706	1	6
609.876	1	11
610.045	1	4
610.215	1	9
610.385	1	11
610.554	1	8
610.724	1	13
610.894	1	5
611.063	1	3
611.233	1	20
611.403	1	9
611.572	1	10
611.742	1	14
611.912	1	4
612.081	1	9
612.251	1	22
612.421	1	17
612.590	1	11
612.760	1	10
612.930	1	8
613.099	1	29
613.269	1	13
613.439	1	22
613.608	1	25
613.778	1	6
613.948	1	16
614.117	1	17
614.287	1	7
614.457	1	3
614.626	1	1
614.796	1	11
614.966	1	2
615.135	1	12
615.305	1	12
615.475	1	19
615.644	1	14
615.814	1	11
615.984	1	5
616.153	1	15
616.323	1	10
616.493	1	22
616.662	1	21
616.832	1	14
617.002	1	12
617.171	1	1
617.341	1	8
617.511	1	11
617.680	1	12
617.850	1	7
618.019	1	6
618.189	1	15
618.359	1	7
618.528	1	18
618.698	1	16
618.868	1	15
619.037	1	13
619.207	1	18
619.377	1	20
619.546	1	12
619.716	1	7
619.885	1	22
620.055	1	11
620.225	1	17
620.394	1	11
620.564	1	20
620.734	1	18
620.903	1	16
621.073	1	15
621.242	1	-3
621.412	1	15
621.582	1	14
621.751	1	14
621.921	1	13
622.091	1	10
622.260	1	7
622.430	1	19
622.599	1	19
622.769	1	11
622.939	1	13
623.108	1	19
623.278	1	6
623.448	1	12
623.617	1	12
623.787	1	29
623.956	1	13
624.126	1	21
624.296	1	11
624.465	1	13
624.635	1	3
624.804	1	25
624.974	1	22
625.144	1	22
625.313	1	7
625.483	1	13
625.652	1	11
625.822	1	11
625.992	1	6
626.161	1	1
626.331	1	11
626.501	1	17
626.670	1	12
626.840	1	4
627.009	1	9
627.179	1	11
627.348	1	19
627.518	1	16
627.688	1	15
627.857	1	9
628.027	1	20
628.196	1	21
628.366	1	11
628.536	1	15
628.705	1	15
628.875	1	18
629.044	1	6
629.214	1	12
629.384	1	16
629.553	1	19
629.723	1	16
629.892	1	11
630.062	1	27
630.232	1	2
630.401	1	21
630.571	1	8
630.740	1	12
630.910	1	25
631.079	1	17
631.249	1	13
631.419	1	19
631.588	1	10
631.758	1	13
631.927	1	14
632.097	1	16
632.266	1	12
632.436	1	14
632.606	1	17
632.775	1	20
632.945	1	14
633.114	1	11
633.284	1	12
633.453	1	13
633.623	1	22
633.793	1	10
633.962	1	1
634.132	1	18
634.301	1	13
634.471	1	17
634.640	1	24
634.810	1	28
634.979	1	17
635.149	1	17
635.319	1	14
635.488	1	13
635.658	1	6
635.827	1	28
635.997	1	10
636.166	1	18
636.336	1	14
636.505	1	23
636.675	1	12
636.845	1	24
637.014	1	18
637.184	1	16
637.353	1	13
637.523	1	19
637.692	1	18
637.862	1	16
638.031	1	13
638.201	1	21
638.370	1	16
638.540	1	21
638.710	1	14
638.879	1	12
639.049	1	24
639.218	1	10
639.388	1	15
639.557	1	14
639.727	1	17
639.896	1	12
640.066	1	13
640.235	1	19
640.405	1	22
640.574	1	16
640.744	1	18
640.914	1	20
641.083	1	9
641.253	1	13
641.422	1	24
641.592	1	28
641.761	1	27
641.931	1	17
642.100	1	18
642.270	1	23
642.439	1	17
642.609	1	19
642.778	1	17
642.948	1	16
643.117	1	15
643.287	1	17
643.456	1	15
643.626	1	31
643.795	1	17
643.965	1	12
644.134	1	16
644.304	1	22
644.473	1	19
644.643	1	12
644.812	1	20
644.982	1	13
645.151	1	20
645.321	1	17
645.490	1	25
645.660	1	22
645.829	1	10
645.999	1	24
646.168	1	24
646.338	1	23
646.507	1	5
646.677	1	26
646.846	1	19
647.016	1	20
647.185	1	15
647.355	1	27
647.524	1	17
647.694	1	25
647.863	1	6
648.033	1	19
648.202	1	14
648.372	1	13
648.541	1	26
648.711	1	17
648.880	1	25
649.050	1	25
649.219	1	21
649.389	1	15
649.558	1	21
649.728	1	19
649.897	1	14
650.067	1	19
650.236	1	25
650.406	1	7
650.575	1	20
650.745	1	23
650.914	1	20
651.084	1	16
651.253	1	8
651.423	1	8
651.592	1	22
651.762	1	20
651.931	1	29
652.101	1	25
652.270	1	18
652.440	1	26
652.609	1	17
652.778	1	17
652.948	1	14
653.117	1	32
653.287	1	20
653.456	1	22
653.626	1	26
653.795	1	18
653.965	1	23
654.134	1	8
654.304	1	20
654.473	1	23
654.643	1	27
654.812	1	7
654.982	1	21
655.151	1	24
655.320	1	24
655.490	1	15
655.659	1	26
655.829	1	12
655.998	1	18
656.168	1	24
656.337	1	18
656.507	1	17
656.676	1	18
656.846	1	16
657.015	1	27
657.184	1	15
657.354	1	26
657.523	1	14
657.693	1	14
657.862	1	18
658.032	1	13
658.201	1	18
658.371	1	21
658.540	1	21
658.709	1	16
658.879	1	15
659.048	1	13
659.218	1	28
659.387	1	20
659.557	1	25
659.726	1	21
659.895	1	20
660.065	1	22
660.234	1	24
660.404	1	28
660.573	1	26
660.743	1	22
660.912	1	23
661.081	1	20
661.251	1	14
661.420	1	17
661.590	1	20
661.759	1	22
661.929	1	39
662.098	1	27
662.267	1	28
662.437	1	31
662.606	1	13
662.776	1	20
662.945	1	32
663.115	1	3
663.284	1	6
663.453	1	13
663.623	1	17
663.792	1	17
663.962	1	25
664.131	1	21
664.300	1	23
664.470	1	11
664.639	1	12
664.809	1	27
664.978	1	23
665.148	1	26
665.317	1	7
665.486	1	24
665.656	1	22
665.825	1	20
665.995	1	21
666.164	1	26
666.333	1	21
666.503	1	31
666.672	1	21
666.842	1	11
667.011	1	12
667.180	1	26
667.350	1	34
667.519	1	26
667.689	1	23
667.858	1	31
668.027	1	16
668.197	1	19
668.366	1	24
668.536	1	16
668.705	1	31
668.874	1	22
669.044	1	27
669.213	1	19
669.382	1	35
669.552	1	17
669.721	1	14
669.891	1	10
670.060	1	10
670.229	1	25
670.399	1	26
670.568	1	31
670.738	1	14
670.907	1	27
671.076	1	22
671.246	1	14
671.415	1	29
671.584	1	25
671.754	1	28
671.923	1	23
672.093	1	29
672.262	1	8
672.431	1	26
672.601	1	12
672.770	1	24
672.939	1	26
673.109	1	28
673.278	1	28
673.448	1	14
673.617	1	12
673.786	1	16
