325.333	1	5
325.504	1	6
325.675	1	0
325.846	1	6
326.017	1	8
326.188	1	6
326.359	1	9
326.531	1	9
326.702	1	5
326.873	1	7
327.044	1	2
327.215	1	-1
327.386	1	-2
327.557	1	8
327.728	1	-11
327.899	1	5
328.070	1	0
328.241	1	4
328.412	1	-10
328.583	1	8
328.754	1	-1
328.926	1	2
329.097	1	10
329.268	1	0
329.439	1	-8
329.610	1	7
329.781	1	13
329.952	1	6
330.123	1	-10
330.294	1	-1
330.465	1	13
330.636	1	1
330.807	1	-4
330.978	1	3
331.149	1	8
331.320	1	6
331.492	1	10
331.663	1	2
331.834	1	4
332.005	1	-4
332.176	1	4
332.347	1	-2
332.518	1	-2
332.689	1	6
332.860	1	1
333.031	1	9
333.202	1	17
333.373	1	5
333.544	1	2
333.715	1	4
333.886	1	-6
334.057	1	0
334.228	1	9
334.399	1	5
334.570	1	9
334.741	1	-1
334.912	1	2
335.084	1	3
335.255	1	-2
335.426	1	3
335.597	1	-3
335.768	1	-12
335.939	1	1
336.110	1	4
336.281	1	10
336.452	1	19
336.623	1	4
336.794	1	0
336.965	1	10
337.136	1	7
337.307	1	5
337.478	1	-4
337.649	1	3
337.820	1	1
337.991	1	5
338.162	1	12
338.333	1	-1
338.504	1	2
338.675	1	6
338.846	1	8
339.017	1	8
339.188	1	-1
339.359	1	-4
339.530	1	-1
339.701	1	-4
339.872	1	8
340.043	1	8
340.214	1	11
340.385	1	8
340.556	1	4
340.727	1	-3
340.898	1	4
341.069	1	6
341.240	1	8
341.411	1	5
341.582	1	5
341.753	1	1
341.924	1	4
342.095	1	1
342.266	1	1
342.437	1	2
342.608	1	-8
342.779	1	3
342.950	1	1
343.121	1	3
343.292	1	1
343.463	1	7
343.634	1	16
343.805	1	0
343.976	1	6
344.147	1	0
344.318	1	8
344.489	1	3
344.660	1	4
344.831	1	1
345.002	1	1
345.173	1	6
345.344	1	-8
345.515	1	3
345.686	1	1
345.857	1	6
346.028	1	8
346.199	1	1
346.370	1	8
346.541	1	18
346.712	1	3
346.883	1	3
347.054	1	-4
347.225	1	-4
347.396	1	4
347.567	1	3
347.738	1	11
347.909	1	3
348.080	1	-1
348.251	1	2
348.422	1	12
348.593	1	12
348.764	1	-1
348.935	1	5
349.106	1	2
349.277	1	8
349.448	1	3
349.619	1	7
349.790	1	8
349.961	1	8
350.132	1	0
350.303	1	22
350.474	1	8
350.645	1	0
350.816	1	14
350.987	1	-1
351.157	1	2
351.328	1	1
351.499	1	-3
351.670	1	10
351.841	1	3
352.012	1	10
352.183	1	-10
352.354	1	2
352.525	1	-2
352.696	1	5
352.867	1	1
353.038	1	7
353.209	1	9
353.380	1	12
353.551	1	12
353.722	1	11
353.893	1	5
354.064	1	5
354.235	1	2
354.406	1	2
354.576	1	6
354.747	1	13
354.918	1	7
355.089	1	1
355.260	1	12
355.431	1	-1
355.602	1	7
355.773	1	7
355.944	1	7
356.115	1	-1
356.286	1	2
356.457	1	5
356.628	1	18
356.799	1	2
356.970	1	4
357.141	1	16
357.311	1	11
357.482	1	6
357.653	1	0
357.824	1	23
357.995	1	7
358.166	1	13
358.337	1	-6
358.508	1	15
358.679	1	6
358.850	1	6
359.021	1	3
359.192	1	6
359.363	1	12
359.533	1	4
359.704	1	14
359.875	1	17
360.046	1	9
360.217	1	10
360.388	1	4
360.559	1	5
360.730	1	3
360.901	1	0
361.072	1	5
361.243	1	2
361.414	1	2
361.584	1	9
361.755	1	9
361.926	1	3
362.097	1	-3
362.268	1	1
362.439	1	4
362.610	1	12
362.781	1	-3
362.952	1	14
363.123	1	21
363.293	1	10
363.464	1	-2
363.635	1	15
363.806	1	9
363.977	1	1
364.148	1	1
364.319	1	8
364.490	1	14
364.661	1	13
364.832	1	15
365.002	1	9
365.173	1	9
365.344	1	3
365.515	1	5
365.686	1	2
365.857	1	10
366.028	1	6
366.199	1	9
366.370	1	16
366.540	1	10
366.711	1	11
366.882	1	2
367.053	1	14
367.224	1	-11
367.395	1	12
367.566	1	12
367.737	1	14
367.908	1	6
368.078	1	23
368.249	1	11
368.420	1	16
368.591	1	15
368.762	1	10
368.933	1	2
369.104	1	14
369.274	1	1
369.445	1	8
369.616	1	5
369.787	1	8
369.958	1	11
370.129	1	20
370.300	1	7
370.471	1	20
370.641	1	11
370.812	1	8
370.983	1	7
371.154	1	17
371.325	1	16
371.496	1	-5
371.667	1	13
371.837	1	7
372.008	1	10
372.179	1	11
372.350	1	6
372.521	1	6
372.692	1	5
372.863	1	6
373.033	1	4
373.204	1	13
373.375	1	5
373.546	1	15
373.717	1	-1
373.888	1	5
374.059	1	22
374.229	1	14
374.400	1	-4
374.571	1	13
374.742	1	11
374.913	1	6
375.084	1	8
375.254	1	12
375.425	1	-1
375.596	1	9
375.767	1	3
375.938	1	13
376.109	1	2
376.279	1	1
376.450	1	0
376.621	1	19
376.792	1	12
376.963	1	12
377.134	1	19
377.304	1	0
377.475	1	9
377.646	1	12
377.817	1	-5
377.988	1	9
378.159	1	9
378.329	1	12
378.500	1	12
378.671	1	17
378.842	1	-1
379.013	1	14
379.184	1	18
379.354	1	-12
379.525	1	9
379.696	1	4
379.867	1	12
380.038	1	-3
380.209	1	-1
380.379	1	6
380.550	1	7
380.721	1	19
380.892	1	11
381.063	1	21
381.233	1	7
381.404	1	8
381.575	1	14
381.746	1	11
381.917	1	4
382.087	1	10
382.258	1	2
382.429	1	9
382.600	1	12
382.771	1	9
382.941	1	13
383.112	1	5
383.283	1	19
383.454	1	8
383.625	1	11
383.795	1	18
383.966	1	2
384.137	1	-1
384.308	1	14
384.479	1	11
384.649	1	9
384.820	1	1
384.991	1	8
385.162	1	12
385.333	1	17
385.503	1	5
385.674	1	9
385.845	1	20
386.016	1	8
386.187	1	4
386.357	1	14
386.528	1	5
386.699	1	5
386.870	1	8
387.041	1	10
387.211	1	16
387.382	1	9
387.553	1	-1
387.724	1	3
387.894	1	11
388.065	1	8
388.236	1	1
388.407	1	6
388.578	1	3
388.748	1	6
388.919	1	15
389.090	1	6
389.261	1	11
389.431	1	19
389.602	1	11
389.773	1	7
389.944	1	4
390.114	1	19
390.285	1	-1
390.456	1	11
390.627	1	8
390.798	1	18
390.968	1	9
391.139	1	9
391.310	1	20
391.481	1	3
391.651	1	15
391.822	1	6
391.993	1	8
392.164	1	-1
392.334	1	5
392.505	1	-4
392.676	1	15
392.847	1	14
393.017	1	26
393.188	1	-3
393.359	1	17
393.530	1	22
393.700	1	16
393.871	1	-1
394.042	1	3
394.213	1	17
394.383	1	16
394.554	1	6
394.725	1	17
394.896	1	4
395.066	1	8
395.237	1	8
395.408	1	13
395.579	1	2
395.749	1	14
395.920	1	6
396.091	1	6
396.262	1	8
396.432	1	13
396.603	1	10
396.774	1	6
396.945	1	14
397.115	1	15
397.286	1	6
397.457	1	13
397.627	1	-1
397.798	1	1
397.969	1	2
398.140	1	14
398.310	1	10
398.481	1	11
398.652	1	18
398.823	1	14
398.993	1	13
399.164	1	10
399.335	1	10
399.505	1	11
399.676	1	9
399.847	1	6
400.018	1	8
400.188	1	9
400.359	1	5
400.530	1	12
400.700	1	7
400.871	1	22
401.042	1	-1
401.213	1	-4
401.383	1	5
401.554	1	9
401.725	1	13
401.895	1	15
402.066	1	14
402.237	1	14
402.408	1	14
402.578	1	7
402.749	1	13
402.920	1	4
403.090	1	9
403.261	1	10
403.432	1	13
403.603	1	7
403.773	1	23
403.944	1	10
404.115	1	16
404.285	1	5
404.456	1	7
404.627	1	9
404.797	1	1
404.968	1	17
405.139	1	5
405.310	1	8
405.480	1	11
405.651	1	14
405.822	1	18
405.992	1	4
406.163	1	18
406.334	1	1
406.504	1	15
406.675	1	9
406.846	1	13
407.016	1	5
407.187	1	24
407.358	1	13
407.528	1	8
407.699	1	5
407.870	1	1
408.041	1	18
408.211	1	3
408.382	1	14
408.553	1	14
408.723	1	16
408.894	1	19
409.065	1	17
409.235	1	7
409.406	1	9
409.577	1	16
409.747	1	1
409.918	1	5
410.089	1	20
410.259	1	20
410.430	1	0
410.601	1	11
410.771	1	16
410.942	1	25
411.113	1	2
411.283	1	10
411.454	1	1
411.625	1	3
411.795	1	18
411.966	1	19
412.137	1	10
412.307	1	16
412.478	1	12
412.649	1	14
412.819	1	6
412.990	1	5
413.161	1	13
413.331	1	11
413.502	1	10
413.672	1	16
413.843	1	16
414.014	1	9
414.184	1	16
414.355	1	19
414.526	1	16
414.696	1	16
414.867	1	19
415.038	1	15
415.208	1	26
415.379	1	8
415.550	1	20
415.720	1	5
415.891	1	9
416.062	1	14
416.232	1	11
416.403	1	11
416.573	1	8
416.744	1	11
416.915	1	20
417.085	1	18
417.256	1	16
417.427	1	20
417.597	1	0
417.768	1	-2
417.939	1	18
418.109	1	14
418.280	1	10
418.450	1	10
418.621	1	14
418.792	1	17
418.962	1	12
419.133	1	10
419.304	1	6
419.474	1	9
419.645	1	4
419.815	1	21
419.986	1	15
420.157	1	10
420.327	1	14
420.498	1	9
420.669	1	11
420.839	1	3
421.010	1	12
421.180	1	7
421.351	1	9
421.522	1	1
421.692	1	19
421.863	1	11
422.033	1	18
422.204	1	21
422.375	1	17
422.545	1	11
422.716	1	3
422.886	1	11
423.057	1	3
423.228	1	17
423.398	1	11
423.569	1	15
423.740	1	5
423.910	1	5
424.081	1	11
424.251	1	9
424.422	1	17
424.593	1	7
424.763	1	8
424.934	1	9
425.104	1	12
425.275	1	12
425.445	1	15
425.616	1	7
425.787	1	9
425.957	1	13
426.128	1	-6
426.298	1	13
426.469	1	2
426.640	1	26
426.810	1	11
426.981	1	16
427.151	1	22
427.322	1	16
427.493	1	9
427.663	1	6
427.834	1	13
428.004	1	8
428.175	1	9
428.345	1	3
428.516	1	22
428.687	1	18
428.857	1	5
429.028	1	8
429.198	1	2
429.369	1	1
429.540	1	1
429.710	1	3
429.881	1	8
430.051	1	9
430.222	1	9
430.392	1	19
430.563	1	10
430.734	1	12
430.904	1	4
431.075	1	13
431.245	1	9
431.416	1	14
431.586	1	10
431.757	1	15
431.927	1	14
432.098	1	16
432.269	1	3
432.439	1	21
432.610	1	14
432.780	1	6
432.951	1	-3
433.121	1	12
433.292	1	14
433.462	1	6
433.633	1	12
433.804	1	17
433.974	1	5
434.145	1	16
434.315	1	8
434.486	1	16
434.656	1	14
434.827	1	8
434.997	1	11
435.168	1	7
435.339	1	10
435.509	1	11
435.680	1	1
435.850	1	1
436.021	1	16
436.191	1	5
436.362	1	11
436.532	1	15
436.703	1	8
436.873	1	11
437.044	1	10
437.214	1	19
437.385	1	3
437.556	1	17
437.726	1	2
437.897	1	0
438.067	1	10
438.238	1	1
438.408	1	13
438.579	1	19
438.749	1	5
438.920	1	11
439.090	1	8
439.261	1	-3
439.431	1	9
439.602	1	16
439.772	1	17
439.943	1	6
440.113	1	-1
440.284	1	19
440.455	1	7
440.625	1	18
440.796	1	13
440.966	1	-1
441.137	1	11
441.307	1	17
441.478	1	11
441.648	1	9
441.819	1	17
441.989	1	6
442.160	1	3
442.330	1	12
442.501	1	11
442.671	1	-1
442.842	1	6
443.012	1	19
443.183	1	9
443.353	1	8
443.524	1	2
443.694	1	11
443.865	1	13
444.035	1	6
444.206	1	8
444.376	1	10
444.547	1	1
444.717	1	9
444.888	1	-3
445.058	1	22
445.229	1	7
445.399	1	20
445.570	1	17
445.740	1	14
445.911	1	1
446.081	1	6
446.252	1	1
446.422	1	13
446.593	1	2
446.763	1	25
446.934	1	3
447.104	1	15
447.275	1	11
447.445	1	0
447.616	1	7
447.786	1	8
447.957	1	7
448.127	1	4
448.298	1	2
448.468	1	7
448.639	1	17
448.809	1	19
448.979	1	-2
449.150	1	4
449.320	1	14
449.491	1	7
449.661	1	14
449.832	1	5
450.002	1	1
450.173	1	15
450.343	1	20
450.514	1	16
450.684	1	8
450.855	1	12
451.025	1	6
451.196	1	-4
451.366	1	8
451.537	1	7
451.707	1	8
451.878	1	11
452.048	1	12
452.218	1	16
452.389	1	10
452.559	1	12
452.730	1	-1
452.900	1	13
453.071	1	8
453.241	1	-1
453.412	1	8
453.582	1	9
453.753	1	6
453.923	1	13
454.093	1	9
454.264	1	8
454.434	1	13
454.605	1	12
454.775	1	-3
454.946	1	9
455.116	1	3
455.287	1	5
455.457	1	23
455.628	1	6
455.798	1	4
455.968	1	11
456.139	1	2
456.309	1	14
456.480	1	7
456.650	1	2
456.821	1	16
456.991	1	4
457.161	1	1
457.332	1	15
457.502	1	9
457.673	1	8
457.843	1	-2
458.014	1	13
458.184	1	9
458.355	1	10
458.525	1	5
458.695	1	16
458.866	1	3
459.036	1	10
459.207	1	14
459.377	1	2
459.548	1	13
459.718	1	-1
459.888	1	15
460.059	1	13
460.229	1	11
460.400	1	13
460.570	1	19
460.740	1	16
460.911	1	11
461.081	1	3
461.252	1	9
461.422	1	0
461.593	1	8
461.763	1	16
461.933	1	11
462.104	1	5
462.274	1	12
462.445	1	6
462.615	1	17
462.785	1	2
462.956	1	13
463.126	1	8
463.297	1	11
463.467	1	4
463.638	1	13
463.808	1	11
463.978	1	7
464.149	1	14
464.319	1	3
464.490	1	19
464.660	1	17
464.830	1	5
465.001	1	2
465.171	1	-8
465.342	1	-3
465.512	1	2
465.682	1	18
465.853	1	7
466.023	1	24
466.194	1	-1
466.364	1	7
466.534	1	0
466.705	1	3
466.875	1	14
467.045	1	14
467.216	1	13
467.386	1	7
467.557	1	15
467.727	1	13
467.897	1	21
468.068	1	-1
468.238	1	12
468.409	1	8
468.579	1	9
468.749	1	15
468.920	1	11
469.090	1	4
469.260	1	17
469.431	1	-2
469.601	1	8
469.772	1	5
469.942	1	18
470.112	1	13
470.283	1	3
470.453	1	8
470.623	1	13
470.794	1	4
470.964	1	11
471.135	1	17
471.305	1	9
471.475	1	18
471.646	1	12
471.816	1	3
471.986	1	5
472.157	1	3
472.327	1	7
472.497	1	5
472.668	1	-9
472.838	1	17
473.009	1	9
473.179	1	14
473.349	1	2
473.520	1	2
473.690	1	2
473.860	1	6
474.031	1	-1
474.201	1	14
474.371	1	10
474.542	1	18
474.712	1	6
474.882	1	5
475.053	1	7
475.223	1	-1
475.394	1	1
475.564	1	2
475.734	1	9
475.905	1	7
476.075	1	0
476.245	1	9
476.416	1	9
476.586	1	9
476.756	1	7
476.927	1	14
477.097	1	14
477.267	1	-1
477.438	1	-6
477.608	1	6
477.778	1	17
477.949	1	21
478.119	1	-4
478.289	1	-7
478.460	1	10
478.630	1	17
478.800	1	8
478.971	1	2
479.141	1	2
479.311	1	3
479.482	1	-5
479.652	1	17
479.822	1	5
479.993	1	18
480.163	1	6
480.333	1	11
480.504	1	2
480.674	1	-2
480.844	1	2
481.015	1	2
481.185	1	13
481.355	1	6
481.525	1	-2
481.696	1	5
481.866	1	7
482.036	1	-7
482.207	1	5
482.377	1	9
482.547	1	8
482.718	1	1
482.888	1	-10
483.058	1	5
483.229	1	19
483.399	1	10
483.569	1	7
483.740	1	7
483.910	1	12
484.080	1	15
484.250	1	0
484.421	1	4
484.591	1	9
484.761	1	5
484.932	1	17
485.102	1	-4
485.272	1	3
485.443	1	8
485.613	1	-9
485.783	1	12
485.953	1	-6
486.124	1	3
486.294	1	9
486.464	1	11
486.635	1	-6
486.805	1	9
486.975	1	8
487.146	1	1
487.316	1	2
487.486	1	3
487.656	1	14
487.827	1	5
487.997	1	5
488.167	1	5
488.338	1	13
488.508	1	4
488.678	1	13
488.848	1	11
489.019	1	7
489.189	1	-1
489.359	1	8
489.529	1	-1
489.700	1	7
489.870	1	3
490.040	1	-8
490.211	1	3
490.381	1	24
490.551	1	-8
490.721	1	5
490.892	1	25
491.062	1	3
491.232	1	13
491.402	1	-7
491.573	1	7
491.743	1	8
491.913	1	9
492.084	1	11
492.254	1	11
492.424	1	-1
492.594	1	1
492.765	1	8
492.935	1	-3
493.105	1	0
493.275	1	7
493.446	1	13
493.616	1	-5
493.786	1	12
493.956	1	2
494.127	1	7
494.297	1	14
494.467	1	9
494.637	1	10
494.808	1	1
494.978	1	-6
495.148	1	14
495.318	1	6
495.489	1	9
495.659	1	8
495.829	1	7
495.999	1	8
496.170	1	0
496.340	1	-6
496.510	1	10
496.680	1	12
496.851	1	11
497.021	1	18
497.191	1	5
497.361	1	8
497.532	1	10
497.702	1	-8
497.872	1	3
498.042	1	12
498.213	1	-7
498.383	1	9
498.553	1	-1
498.723	1	4
498.894	1	14
499.064	1	-1
499.234	1	3
499.404	1	-1
499.574	1	4
499.745	1	-1
499.915	1	-7
500.085	1	-1
500.255	1	7
500.426	1	-2
500.596	1	11
500.766	1	4
500.936	1	6
501.106	1	8
501.277	1	7
501.447	1	-2
501.617	1	10
501.787	1	5
501.958	1	2
502.128	1	2
502.298	1	5
502.468	1	9
502.638	1	17
502.809	1	14
502.979	1	11
503.149	1	7
503.319	1	17
503.489	1	11
503.660	1	6
503.830	1	5
504.000	1	2
504.170	1	-4
504.340	1	-8
504.511	1	8
504.681	1	3
504.851	1	-4
505.021	1	-1
505.192	1	6
505.362	1	12
505.532	1	15
505.702	1	-1
505.872	1	7
506.043	1	-17
506.213	1	3
506.383	1	-9
506.553	1	7
506.723	1	-1
506.893	1	4
507.064	1	9
507.234	1	-5
507.404	1	15
507.574	1	2
507.744	1	-3
507.915	1	9
508.085	1	6
508.255	1	4
508.425	1	2
508.595	1	-4
508.766	1	11
508.936	1	2
509.106	1	-4
509.276	1	17
509.446	1	-6
509.616	1	4
509.787	1	4
509.957	1	4
510.127	1	-2
510.297	1	3
510.467	1	6
510.638	1	-9
510.808	1	4
510.978	1	3
511.148	1	-2
511.318	1	2
511.488	1	1
511.659	1	-13
511.829	1	2
511.999	1	7
512.169	1	1
512.339	1	11
512.509	1	-3
512.680	1	2
512.850	1	0
513.020	1	2
513.190	1	-1
513.360	1	3
513.530	1	8
513.700	1	7
513.871	1	14
514.041	1	1
514.211	1	13
514.381	1	-3
514.551	1	7
514.721	1	7
514.892	1	10
515.062	1	5
515.232	1	-4
515.402	1	9
515.572	1	2
515.742	1	-2
515.912	1	13
516.083	1	5
516.253	1	-9
516.423	1	1
516.593	1	-1
516.763	1	5
516.933	1	8
517.104	1	2
517.274	1	7
517.444	1	1
517.614	1	-4
517.784	1	6
517.954	1	-2
518.124	1	2
518.294	1	4
518.465	1	6
518.635	1	-1
518.805	1	12
518.975	1	7
519.145	1	-6
519.315	1	13
519.485	1	-6
519.656	1	7
519.826	1	2
519.996	1	8
520.166	1	0
520.336	1	8
520.506	1	0
520.676	1	2
520.846	1	-1
521.017	1	-5
521.187	1	0
521.357	1	-8
521.527	1	0
521.697	1	-8
521.867	1	2
522.037	1	11
522.207	1	0
522.377	1	-7
522.548	1	1
522.718	1	9
522.888	1	-1
523.058	1	-2
523.228	1	1
523.398	1	7
523.568	1	3
523.738	1	0
523.909	1	7
524.079	1	15
524.249	1	-12
524.419	1	-1
524.589	1	2
524.759	1	10
524.929	1	-4
525.099	1	2
525.269	1	9
525.439	1	-2
525.610	1	4
525.780	1	3
525.950	1	12
526.120	1	7
526.290	1	9
526.460	1	13
526.630	1	3
526.800	1	-2
526.970	1	0
527.140	1	12
527.311	1	-3
527.481	1	-2
527.651	1	5
527.821	1	-8
527.991	1	0
528.161	1	7
528.331	1	8
528.501	1	3
528.671	1	-4
528.841	1	-4
529.011	1	1
529.181	1	8
529.352	1	-2
529.522	1	-8
529.692	1	2
529.862	1	2
530.032	1	6
530.202	1	9
530.372	1	-1
530.542	1	0
530.712	1	-5
530.882	1	2
531.052	1	5
531.222	1	-4
531.392	1	4
531.563	1	-1
531.733	1	16
531.903	1	1
532.073	1	5
532.243	1	7
532.413	1	15
532.583	1	1
532.753	1	1
532.923	1	5
533.093	1	-3
533.263	1	-3
533.433	1	13
533.603	1	3
533.773	1	6
533.943	1	4
534.113	1	4
534.284	1	14
534.454	1	-7
534.624	1	-2
534.794	1	2
534.964	1	1
535.134	1	4
535.304	1	8
535.474	1	-5
535.644	1	7
535.814	1	-1
535.984	1	-3
536.154	1	6
536.324	1	-7
536.494	1	7
536.664	1	-12
536.834	1	4
537.004	1	0
537.174	1	8
537.344	1	6
537.514	1	4
537.685	1	4
537.855	1	1
538.025	1	8
538.195	1	5
538.365	1	2
538.535	1	3
538.705	1	1
538.875	1	9
539.045	1	-3
539.215	1	8
539.385	1	9
539.555	1	0
539.725	1	5
539.895	1	10
540.065	1	5
540.235	1	0
540.405	1	10
540.575	1	7
540.745	1	3
540.915	1	0
541.085	1	-7
541.255	1	7
541.425	1	-5
541.595	1	-3
541.765	1	0
541.935	1	7
542.105	1	-2
542.275	1	1
542.445	1	9
542.615	1	6
542.785	1	5
542.955	1	2
543.125	1	-3
543.295	1	9
543.465	1	-4
543.635	1	-12
543.805	1	3
543.975	1	-2
544.145	1	0
544.315	1	-6
544.485	1	2
544.655	1	4
544.825	1	3
544.995	1	9
545.165	1	7
545.335	1	2
545.505	1	4
545.675	1	3
545.845	1	-8
546.015	1	6
546.185	1	-5
546.355	1	5
546.525	1	-9
546.695	1	3
546.865	1	1
547.035	1	6
547.205	1	-3
547.375	1	7
547.545	1	6
547.715	1	6
547.885	1	11
548.055	1	0
548.225	1	-5
548.395	1	13
548.565	1	0
548.735	1	9
548.905	1	-2
549.075	1	2
549.245	1	9
549.415	1	5
549.585	1	1
549.755	1	-5
549.925	1	-2
550.095	1	-6
550.265	1	-13
550.435	1	9
550.605	1	7
550.775	1	-3
550.945	1	-2
551.115	1	0
551.285	1	-7
551.455	1	-4
551.625	1	4
551.795	1	4
551.965	1	3
552.135	1	-6
552.305	1	2
552.475	1	13
552.645	1	9
552.815	1	3
552.985	1	-5
553.155	1	1
553.325	1	7
553.495	1	-1
553.665	1	1
553.835	1	-5
554.004	1	0
554.174	1	-2
554.344	1	-6
554.514	1	3
554.684	1	5
554.854	1	-1
555.024	1	10
555.194	1	10
555.364	1	-6
555.534	1	3
555.704	1	-1
555.874	1	5
556.044	1	4
556.214	1	-9
556.384	1	11
556.554	1	-3
556.724	1	-5
556.894	1	-1
557.064	1	-4
557.234	1	3
557.404	1	7
557.573	1	10
557.743	1	-2
557.913	1	-1
558.083	1	-6
558.253	1	2
558.423	1	-3
558.593	1	2
558.763	1	10
558.933	1	7
559.103	1	-3
559.273	1	5
559.443	1	2
559.613	1	-5
559.783	1	0
559.953	1	5
560.122	1	-2
560.292	1	-2
560.462	1	-3
560.632	1	2
560.802	1	-4
560.972	1	6
561.142	1	6
561.312	1	9
561.482	1	3
561.652	1	10
561.822	1	-2
561.992	1	0
562.162	1	-4
562.331	1	-4
562.501	1	-2
562.671	1	5
562.841	1	15
563.011	1	6
563.181	1	10
563.351	1	5
563.521	1	-1
563.691	1	-2
563.861	1	7
564.031	1	5
564.201	1	-1
564.370	1	5
564.540	1	14
564.710	1	11
564.880	1	9
565.050	1	0
565.220	1	1
565.390	1	0
565.560	1	3
565.730	1	9
565.900	1	-9
566.069	1	14
566.239	1	-3
566.409	1	13
566.579	1	2
566.749	1	8
566.919	1	1
567.089	1	-6
567.259	1	17
567.429	1	7
567.599	1	1
567.768	1	3
567.938	1	-7
568.108	1	6
568.278	1	6
568.448	1	3
568.618	1	10
568.788	1	2
568.958	1	9
569.128	1	-3
569.297	1	4
569.467	1	9
569.637	1	-7
569.807	1	10
569.977	1	4
570.147	1	2
570.317	1	6
570.487	1	6
570.656	1	-4
570.826	1	6
570.996	1	1
571.166	1	3
571.336	1	7
571.506	1	-1
571.676	1	10
571.846	1	3
572.015	1	4
572.185	1	7
572.355	1	4
572.525	1	-2
572.695	1	-2
572.865	1	1
573.035	1	7
573.205	1	-2
573.374	1	0
573.544	1	-15
573.714	1	12
573.884	1	15
574.054	1	12
574.224	1	8
574.394	1	-10
574.563	1	-3
574.733	1	2
574.903	1	3
575.073	1	4
575.243	1	-7
575.413	1	-1
575.583	1	4
575.752	1	2
575.922	1	-3
576.092	1	5
576.262	1	1
576.432	1	7
576.602	1	-7
576.772	1	-5
576.941	1	13
577.111	1	10
577.281	1	2
577.451	1	10
577.621	1	0
577.791	1	-6
577.960	1	4
578.130	1	-5
578.300	1	3
578.470	1	7
578.640	1	5
578.810	1	8
578.979	1	0
579.149	1	-11
579.319	1	8
579.489	1	5
579.659	1	-2
579.829	1	2
579.998	1	2
580.168	1	-2
580.338	1	-7
580.508	1	3
580.678	1	0
580.848	1	-7
581.017	1	16
581.187	1	0
581.357	1	-13
581.527	1	6
581.697	1	12
581.867	1	-5
582.036	1	-6
582.206	1	1
582.376	1	1
582.546	1	-6
582.716	1	-5
582.885	1	0
583.055	1	1
583.225	1	-3
583.395	1	0
583.565	1	1
583.735	1	4
583.904	1	-3
584.074	1	-3
584.244	1	13
584.414	1	5
584.584	1	3
584.753	1	16
584.923	1	5
585.093	1	7
585.263	1	10
585.433	1	-3
585.602	1	11
585.772	1	11
585.942	1	-3
586.112	1	-6
586.282	1	1
586.451	1	-6
586.621	1	12
586.791	1	7
586.961	1	2
587.131	1	10
587.300	1	-17
587.470	1	3
587.640	1	-6
587.810	1	-2
587.980	1	7
588.149	1	9
588.319	1	-4
588.489	1	10
588.659	1	-10
588.829	1	-2
588.998	1	4
589.168	1	0
589.338	1	6
589.508	1	5
589.677	1	1
589.847	1	7
590.017	1	0
590.187	1	-5
590.357	1	0
590.526	1	9
590.696	1	8
590.866	1	-2
591.036	1	2
591.205	1	-13
591.375	1	-6
591.545	1	0
591.715	1	6
591.885	1	2
592.054	1	-1
592.224	1	-1
592.394	1	6
592.564	1	-5
592.733	1	7
592.903	1	9
593.073	1	9
593.243	1	10
593.412	1	-5
593.582	1	13
593.752	1	5
593.922	1	-6
594.091	1	4
594.261	1	1
594.431	1	5
594.601	1	8
594.771	1	-13
594.940	1	-5
595.110	1	-2
595.280	1	-10
595.450	1	-2
595.619	1	4
595.789	1	-4
595.959	1	-5
596.129	1	3
596.298	1	1
596.468	1	5
596.638	1	10
596.808	1	0
596.977	1	13
597.147	1	5
597.317	1	6
597.487	1	0
597.656	1	2
597.826	1	-2
597.996	1	7
598.166	1	1
598.335	1	8
598.505	1	3
598.675	1	-10
598.844	1	6
599.014	1	2
599.184	1	9
599.354	1	-9
599.523	1	-2
599.693	1	5
599.863	1	2
600.033	1	-8
600.202	1	-3
600.372	1	1
600.542	1	4
600.712	1	2
600.881	1	2
601.051	1	6
601.221	1	-3
601.390	1	5
601.560	1	-1
601.730	1	8
601.900	1	2
602.069	1	11
602.239	1	-9
602.409	1	15
602.578	1	-9
602.748	1	6
602.918	1	3
603.088	1	11
603.257	1	3
603.427	1	4
603.597	1	6
603.767	1	0
603.936	1	7
604.106	1	-1
604.276	1	2
604.445	1	0
604.615	1	-4
604.785	1	3
604.954	1	2
605.124	1	4
605.294	1	5
605.464	1	7
605.633	1	5
605.803	1	-12
605.973	1	7
606.142	1	8
606.312	1	-3
606.482	1	-8
606.652	1	15
606.821	1	14
606.991	1	6
607.161	1	13
607.330	1	-7
607.500	1	-2
607.670	1	-2
607.839	1	9
608.009	1	-2
608.179	1	1
608.348	1	8
608.518	1	4
608.688	1	14
608.858	1	-3
609.027	1	-4
609.197	1	13
609.367	1	4
609.536	1	3
609.706	1	0
609.876	1	2
610.045	1	0
610.215	1	2
610.385	1	10
610.554	1	9
610.724	1	9
610.894	1	10
611.063	1	-7
611.233	1	9
611.403	1	3
611.572	1	7
611.742	1	-1
611.912	1	-9
612.081	1	7
612.251	1	5
612.421	1	5
612.590	1	1
612.760	1	3
612.930	1	-7
613.099	1	9
613.269	1	-2
613.439	1	7
613.608	1	12
613.778	1	2
613.948	1	1
614.117	1	-1
614.287	1	1
614.457	1	-3
614.626	1	1
614.796	1	-4
614.966	1	-4
615.135	1	-5
615.305	1	0
615.475	1	-6
615.644	1	9
615.814	1	-3
615.984	1	-8
616.153	1	-8
616.323	1	-2
616.493	1	-1
616.662	1	-3
616.832	1	4
617.002	1	7
617.171	1	-8
617.341	1	0
617.511	1	4
617.680	1	7
617.850	1	8
618.019	1	5
618.189	1	5
618.359	1	4
618.528	1	15
618.698	1	0
618.868	1	10
619.037	1	5
619.207	1	4
619.377	1	5
619.546	1	-2
619.716	1	-1
619.885	1	22
620.055	1	10
620.225	1	1
620.394	1	6
620.564	1	5
620.734	1	-1
620.903	1	0
621.073	1	7
621.242	1	-7
621.412	1	-2
621.582	1	1
621.751	1	0
621.921	1	4
622.091	1	1
622.260	1	3
622.430	1	2
622.599	1	2
622.769	1	6
622.939	1	10
623.108	1	3
623.278	1	1
623.448	1	4
623.617	1	4
623.787	1	8
623.956	1	-7
624.126	1	15
624.296	1	9
624.465	1	1
624.635	1	2
624.804	1	5
624.974	1	4
625.144	1	6
625.313	1	-4
625.483	1	1
625.652	1	3
625.822	1	-5
625.992	1	10
626.161	1	-9
626.331	1	2
626.501	1	5
626.670	1	5
626.840	1	-10
627.009	1	5
627.179	1	4
627.348	1	-1
627.518	1	11
627.688	1	6
627.857	1	1
628.027	1	3
628.196	1	3
628.366	1	-2
628.536	1	7
628.705	1	10
628.875	1	-3
629.044	1	-1
629.214	1	-7
629.384	1	1
629.553	1	7
629.723	1	1
629.892	1	4
630.062	1	12
630.232	1	-9
630.401	1	1
630.571	1	7
630.740	1	0
630.910	1	12
631.079	1	5
631.249	1	-6
631.419	1	3
631.588	1	-7
631.758	1	3
631.927	1	0
632.097	1	13
632.266	1	1
632.436	1	-3
632.606	1	5
632.775	1	8
632.945	1	2
633.114	1	1
633.284	1	-9
633.453	1	2
633.623	1	7
633.793	1	7
633.962	1	-4
634.132	1	5
634.301	1	6
634.471	1	14
634.640	1	10
634.810	1	10
634.979	1	7
635.149	1	6
635.319	1	3
635.488	1	-1
635.658	1	-4
635.827	1	6
635.997	1	-1
636.166	1	3
636.336	1	6
636.505	1	14
636.675	1	-2
636.845	1	1
637.014	1	8
637.184	1	0
637.353	1	3
637.523	1	6
637.692	1	11
637.862	1	-8
638.031	1	2
638.201	1	10
638.370	1	11
638.540	1	5
638.710	1	8
638.879	1	1
639.049	1	10
639.218	1	5
639.388	1	14
639.557	1	3
639.727	1	10
639.896	1	3
640.066	1	-3
640.235	1	4
640.405	1	-3
640.574	1	-1
640.744	1	8
640.914	1	0
641.083	1	-5
641.253	1	-5
641.422	1	5
641.592	1	9
641.761	1	7
641.931	1	-4
642.100	1	3
642.270	1	10
642.439	1	-8
642.609	1	9
642.778	1	-3
642.948	1	-4
643.117	1	2
643.287	1	-9
643.456	1	-4
643.626	1	13
643.795	1	10
643.965	1	3
644.134	1	-3
644.304	1	18
644.473	1	2
644.643	1	0
644.812	1	-2
644.982	1	-1
645.151	1	0
645.321	1	1
645.490	1	3
645.660	1	9
645.829	1	3
645.999	1	21
646.168	1	5
646.338	1	-7
646.507	1	-4
646.677	1	8
646.846	1	8
647.016	1	-3
647.185	1	8
647.355	1	6
647.524	1	0
647.694	1	6
647.863	1	5
648.033	1	6
648.202	1	-8
648.372	1	0
648.541	1	12
648.711	1	7
648.880	1	3
649.050	1	6
649.219	1	-3
649.389	1	3
649.558	1	0
649.728	1	6
649.897	1	-6
650.067	1	-4
650.236	1	14
650.406	1	-10
650.575	1	1
650.745	1	11
650.914	1	7
651.084	1	2
651.253	1	8
651.423	1	-2
651.592	1	-3
651.762	1	8
651.931	1	2
652.101	1	-2
652.270	1	2
652.440	1	3
652.609	1	7
652.778	1	8
652.948	1	-2
653.117	1	12
653.287	1	2
653.456	1	0
653.626	1	1
653.795	1	9
653.965	1	1
654.134	1	0
654.304	1	4
654.473	1	0
654.643	1	12
654.812	1	1
654.982	1	4
655.151	1	8
655.320	1	4
655.490	1	-4
655.659	1	2
655.829	1	-2
655.998	1	13
656.168	1	-1
656.337	1	18
656.507	1	-5
656.676	1	2
656.846	1	-3
657.015	1	16
657.184	1	1
657.354	1	-12
657.523	1	-5
657.693	1	-2
657.862	1	-4
658.032	1	-4
658.201	1	5
658.371	1	5
658.540	1	11
658.709	1	10
658.879	1	-9
659.048	1	3
659.218	1	-1
659.387	1	1
659.557	1	0
659.726	1	11
659.895	1	-2
660.065	1	7
660.234	1	7
660.404	1	11
660.573	1	6
660.743	1	-2
660.912	1	22
661.081	1	2
661.251	1	-4
661.420	1	9
661.590	1	1
661.759	1	13
661.929	1	13
662.098	1	6
662.267	1	10
662.437	1	4
662.606	1	-3
662.776	1	-1
662.945	1	8
663.115	1	-16
663.284	1	1
663.453	1	-6
663.623	1	2
663.792	1	-1
663.962	1	6
664.131	1	12
664.300	1	4
664.470	1	-13
664.639	1	-11
664.809	1	4
664.978	1	0
665.148	1	13
665.317	1	-4
665.486	1	1
665.656	1	2
665.825	1	3
665.995	1	3
666.164	1	5
666.333	1	2
666.503	1	15
666.672	1	7
666.842	1	-10
667.011	1	-2
667.180	1	6
667.350	1	15
667.519	1	-4
667.689	1	13
667.858	1	4
668.027	1	0
668.197	1	4
668.366	1	7
668.536	1	0
668.705	1	5
668.874	1	13
669.044	1	-3
669.213	1	6
669.382	1	6
669.552	1	4
669.721	1	-1
669.891	1	-8
670.060	1	-6
670.229	1	-3
670.399	1	18
670.568	1	15
670.738	1	0
670.907	1	5
671.076	1	0
671.246	1	-10
671.415	1	0
671.584	1	-7
671.754	1	11
671.923	1	3
672.093	1	9
672.262	1	5
672.431	1	18
672.601	1	-3
672.770	1	-2
672.939	1	-6
673.109	1	7
673.278	1	6
673.448	1	-6
673.617	1	5
673.786	1	-3
