325.333	1	3
325.504	1	4
325.675	1	-4
325.846	1	6
326.017	1	11
326.188	1	6
326.359	1	12
326.531	1	2
326.702	1	12
326.873	1	7
327.044	1	7
327.215	1	-1
327.386	1	-4
327.557	1	14
327.728	1	-2
327.899	1	11
328.070	1	12
328.241	1	12
328.412	1	6
328.583	1	2
328.754	1	1
328.926	1	1
329.097	1	16
329.268	1	4
329.439	1	8
329.610	1	7
329.781	1	18
329.952	1	16
330.123	1	6
330.294	1	13
330.465	1	11
330.636	1	14
330.807	1	11
330.978	1	11
331.149	1	8
331.320	1	4
331.492	1	23
331.663	1	2
331.834	1	12
332.005	1	4
332.176	1	2
332.347	1	11
332.518	1	7
332.689	1	11
332.860	1	5
333.031	1	9
333.202	1	5
333.373	1	7
333.544	1	5
333.715	1	11
333.886	1	3
334.057	1	4
334.228	1	14
334.399	1	6
334.570	1	18
334.741	1	15
334.912	1	6
335.084	1	4
335.255	1	0
335.426	1	2
335.597	1	9
335.768	1	12
335.939	1	2
336.110	1	8
336.281	1	12
336.452	1	11
336.623	1	9
336.794	1	19
336.965	1	8
337.136	1	16
337.307	1	16
337.478	1	12
337.649	1	2
337.820	1	3
337.991	1	26
338.162	1	15
338.333	1	2
338.504	1	4
338.675	1	8
338.846	1	11
339.017	1	10
339.188	1	16
339.359	1	3
339.530	1	4
339.701	1	8
339.872	1	0
340.043	1	5
340.214	1	6
340.385	1	13
340.556	1	6
340.727	1	15
340.898	1	6
341.069	1	21
341.240	1	13
341.411	1	8
341.582	1	20
341.753	1	9
341.924	1	10
342.095	1	11
342.266	1	5
342.437	1	16
342.608	1	1
342.779	1	8
342.950	1	11
343.121	1	16
343.292	1	17
343.463	1	14
343.634	1	14
343.805	1	9
343.976	1	4
344.147	1	21
344.318	1	13
344.489	1	11
344.660	1	13
344.831	1	11
345.002	1	12
345.173	1	15
345.344	1	7
345.515	1	16
345.686	1	7
345.857	1	10
346.028	1	19
346.199	1	21
346.370	1	9
346.541	1	26
346.712	1	5
346.883	1	18
347.054	1	7
347.225	1	13
347.396	1	16
347.567	1	15
347.738	1	15
347.909	1	26
348.080	1	2
348.251	1	7
348.422	1	15
348.593	1	2
348.764	1	8
348.935	1	20
349.106	1	3
349.277	1	18
349.448	1	10
349.619	1	16
349.790	1	16
349.961	1	16
350.132	1	21
350.303	1	18
350.474	1	25
350.645	1	9
350.816	1	18
350.987	1	15
351.157	1	12
351.328	1	10
351.499	1	10
351.670	1	13
351.841	1	8
352.012	1	25
352.183	1	10
352.354	1	12
352.525	1	3
352.696	1	11
352.867	1	5
353.038	1	24
353.209	1	18
353.380	1	24
353.551	1	19
353.722	1	28
353.893	1	15
354.064	1	18
354.235	1	24
354.406	1	22
354.576	1	17
354.747	1	17
354.918	1	16
355.089	1	27
355.260	1	21
355.431	1	32
355.602	1	16
355.773	1	16
355.944	1	18
356.115	1	7
356.286	1	12
356.457	1	24
356.628	1	23
356.799	1	14
356.970	1	18
357.141	1	24
357.311	1	20
357.482	1	21
357.653	1	14
357.824	1	29
357.995	1	25
358.166	1	12
358.337	1	10
358.508	1	19
358.679	1	6
358.850	1	15
359.021	1	21
359.192	1	18
359.363	1	25
359.533	1	11
359.704	1	16
359.875	1	29
360.046	1	6
360.217	1	18
360.388	1	17
360.559	1	25
360.730	1	17
360.901	1	14
361.072	1	20
361.243	1	17
361.414	1	17
361.584	1	20
361.755	1	19
361.926	1	14
362.097	1	16
362.268	1	15
362.439	1	18
362.610	1	15
362.781	1	6
362.952	1	24
363.123	1	33
363.293	1	15
363.464	1	15
363.635	1	14
363.806	1	30
363.977	1	19
364.148	1	15
364.319	1	13
364.490	1	28
364.661	1	23
364.832	1	32
365.002	1	28
365.173	1	22
365.344	1	13
365.515	1	23
365.686	1	10
365.857	1	27
366.028	1	16
366.199	1	25
366.370	1	24
366.540	1	17
366.711	1	18
366.882	1	15
367.053	1	27
367.224	1	17
367.395	1	18
367.566	1	31
367.737	1	24
367.908	1	21
368.078	1	36
368.249	1	23
368.420	1	24
368.591	1	27
368.762	1	14
368.933	1	5
369.104	1	25
369.274	1	17
369.445	1	18
369.616	1	29
369.787	1	22
369.958	1	25
370.129	1	26
370.300	1	14
370.471	1	33
370.641	1	15
370.812	1	29
370.983	1	21
371.154	1	29
371.325	1	20
371.496	1	13
371.667	1	33
371.837	1	24
372.008	1	13
372.179	1	24
372.350	1	22
372.521	1	25
372.692	1	25
372.863	1	14
373.033	1	30
373.204	1	14
373.375	1	28
373.546	1	30
373.717	1	19
373.888	1	19
374.059	1	25
374.229	1	22
374.400	1	16
374.571	1	32
374.742	1	28
374.913	1	23
375.084	1	23
375.254	1	33
375.425	1	22
375.596	1	10
375.767	1	27
375.938	1	21
376.109	1	16
376.279	1	9
376.450	1	23
376.621	1	32
376.792	1	24
376.963	1	23
377.134	1	31
377.304	1	15
377.475	1	21
377.646	1	25
377.817	1	16
377.988	1	15
378.159	1	16
378.329	1	26
378.500	1	21
378.671	1	15
378.842	1	16
379.013	1	30
379.184	1	29
379.354	1	15
379.525	1	18
379.696	1	23
379.867	1	29
380.038	1	19
380.209	1	17
380.379	1	27
380.550	1	31
380.721	1	37
380.892	1	21
381.063	1	25
381.233	1	19
381.404	1	22
381.575	1	29
381.746	1	33
381.917	1	24
382.087	1	39
382.258	1	31
382.429	1	32
382.600	1	26
382.771	1	37
382.941	1	28
383.112	1	22
383.283	1	41
383.454	1	29
383.625	1	29
383.795	1	32
383.966	1	23
384.137	1	18
384.308	1	33
384.479	1	12
384.649	1	35
384.820	1	26
384.991	1	28
385.162	1	36
385.333	1	28
385.503	1	31
385.674	1	30
385.845	1	42
386.016	1	33
386.187	1	25
386.357	1	33
386.528	1	34
386.699	1	28
386.870	1	36
387.041	1	21
387.211	1	36
387.382	1	22
387.553	1	21
387.724	1	30
387.894	1	20
388.065	1	23
388.236	1	23
388.407	1	26
388.578	1	19
388.748	1	29
388.919	1	32
389.090	1	32
389.261	1	33
389.431	1	38
389.602	1	47
389.773	1	37
389.944	1	24
390.114	1	38
390.285	1	30
390.456	1	22
390.627	1	31
390.798	1	46
390.968	1	28
391.139	1	36
391.310	1	27
391.481	1	22
391.651	1	32
391.822	1	25
391.993	1	38
392.164	1	13
392.334	1	32
392.505	1	23
392.676	1	27
392.847	1	29
393.017	1	51
393.188	1	24
393.359	1	48
393.530	1	41
393.700	1	31
393.871	1	32
394.042	1	22
394.213	1	47
394.383	1	29
394.554	1	34
394.725	1	37
394.896	1	25
395.066	1	34
395.237	1	37
395.408	1	29
395.579	1	36
395.749	1	31
395.920	1	28
396.091	1	24
396.262	1	35
396.432	1	26
396.603	1	30
396.774	1	36
396.945	1	46
397.115	1	40
397.286	1	30
397.457	1	45
397.627	1	23
397.798	1	34
397.969	1	26
398.140	1	43
398.310	1	38
398.481	1	37
398.652	1	36
398.823	1	30
398.993	1	39
399.164	1	19
399.335	1	32
399.505	1	31
399.676	1	25
399.847	1	38
400.018	1	31
400.188	1	21
400.359	1	33
400.530	1	39
400.700	1	27
400.871	1	54
401.042	1	32
401.213	1	17
401.383	1	29
401.554	1	39
401.725	1	46
401.895	1	42
402.066	1	28
402.237	1	31
402.408	1	35
402.578	1	36
402.749	1	24
402.920	1	33
403.090	1	24
403.261	1	47
403.432	1	40
403.603	1	34
403.773	1	44
403.944	1	36
404.115	1	46
404.285	1	43
404.456	1	30
404.627	1	29
404.797	1	35
404.968	1	40
405.139	1	37
405.310	1	29
405.480	1	32
405.651	1	34
405.822	1	42
405.992	1	37
406.163	1	31
406.334	1	30
406.504	1	37
406.675	1	21
406.846	1	31
407.016	1	30
407.187	1	36
407.358	1	39
407.528	1	33
407.699	1	28
407.870	1	34
408.041	1	39
408.211	1	21
408.382	1	37
408.553	1	30
408.723	1	36
408.894	1	38
409.065	1	43
409.235	1	37
409.406	1	38
409.577	1	42
409.747	1	34
409.918	1	25
410.089	1	39
410.259	1	40
410.430	1	42
410.601	1	31
410.771	1	43
410.942	1	45
411.113	1	28
411.283	1	39
411.454	1	29
411.625	1	31
411.795	1	36
411.966	1	43
412.137	1	33
412.307	1	42
412.478	1	45
412.649	1	40
412.819	1	43
412.990	1	46
413.161	1	39
413.331	1	33
413.502	1	33
413.672	1	45
413.843	1	39
414.014	1	39
414.184	1	34
414.355	1	47
414.526	1	44
414.696	1	43
414.867	1	38
415.038	1	27
415.208	1	39
415.379	1	45
415.550	1	39
415.720	1	38
415.891	1	33
416.062	1	36
416.232	1	35
416.403	1	46
416.573	1	44
416.744	1	30
416.915	1	43
417.085	1	39
417.256	1	44
417.427	1	41
417.597	1	30
417.768	1	28
417.939	1	44
418.109	1	41
418.280	1	39
418.450	1	37
418.621	1	22
418.792	1	33
418.962	1	47
419.133	1	28
419.304	1	36
419.474	1	39
419.645	1	46
419.815	1	38
419.986	1	28
420.157	1	33
420.327	1	37
420.498	1	30
420.669	1	34
420.839	1	25
421.010	1	48
421.180	1	38
421.351	1	32
421.522	1	32
421.692	1	40
421.863	1	44
422.033	1	39
422.204	1	40
422.375	1	42
422.545	1	36
422.716	1	32
422.886	1	36
423.057	1	40
423.228	1	23
423.398	1	44
423.569	1	37
423.740	1	20
423.910	1	28
424.081	1	27
424.251	1	24
424.422	1	35
424.593	1	34
424.763	1	48
424.934	1	35
425.104	1	39
425.275	1	40
425.445	1	35
425.616	1	29
425.787	1	30
425.957	1	36
426.128	1	27
426.298	1	27
426.469	1	28
426.640	1	49
426.810	1	37
426.981	1	28
427.151	1	47
427.322	1	41
427.493	1	41
427.663	1	27
427.834	1	31
428.004	1	40
428.175	1	19
428.345	1	26
428.516	1	42
428.687	1	30
428.857	1	31
429.028	1	33
429.198	1	23
429.369	1	33
429.540	1	41
429.710	1	32
429.881	1	32
430.051	1	30
430.222	1	29
430.392	1	40
430.563	1	39
430.734	1	27
430.904	1	33
431.075	1	35
431.245	1	33
431.416	1	30
431.586	1	25
431.757	1	42
431.927	1	36
432.098	1	33
432.269	1	27
432.439	1	47
432.610	1	35
432.780	1	39
432.951	1	24
433.121	1	36
433.292	1	28
433.462	1	20
433.633	1	29
433.804	1	45
433.974	1	20
434.145	1	34
434.315	1	31
434.486	1	29
434.656	1	30
434.827	1	38
434.997	1	34
435.168	1	39
435.339	1	23
435.509	1	33
435.680	1	32
435.850	1	24
436.021	1	35
436.191	1	26
436.362	1	27
436.532	1	32
436.703	1	22
436.873	1	44
437.044	1	17
437.214	1	28
437.385	1	34
437.556	1	34
437.726	1	28
437.897	1	27
438.067	1	23
438.238	1	27
438.408	1	37
438.579	1	42
438.749	1	26
438.920	1	32
439.090	1	33
439.261	1	23
439.431	1	31
439.602	1	20
439.772	1	38
439.943	1	29
440.113	1	26
440.284	1	27
440.455	1	30
440.625	1	42
440.796	1	39
440.966	1	22
441.137	1	34
441.307	1	39
441.478	1	17
441.648	1	34
441.819	1	29
441.989	1	23
442.160	1	26
442.330	1	22
442.501	1	36
442.671	1	29
442.842	1	20
443.012	1	27
443.183	1	27
443.353	1	37
443.524	1	24
443.694	1	22
443.865	1	29
444.035	1	22
444.206	1	16
444.376	1	38
444.547	1	25
444.717	1	37
444.888	1	29
445.058	1	31
445.229	1	22
445.399	1	47
445.570	1	35
445.740	1	19
445.911	1	17
446.081	1	28
446.252	1	33
446.422	1	28
446.593	1	22
446.763	1	40
446.934	1	21
447.104	1	43
447.275	1	26
447.445	1	18
447.616	1	27
447.786	1	30
447.957	1	24
448.127	1	33
448.298	1	12
448.468	1	25
448.639	1	36
448.809	1	33
448.979	1	21
449.150	1	31
449.320	1	14
449.491	1	28
449.661	1	31
449.832	1	21
450.002	1	27
450.173	1	24
450.343	1	25
450.514	1	29
450.684	1	25
450.855	1	25
451.025	1	26
451.196	1	13
451.366	1	26
451.537	1	26
451.707	1	18
451.878	1	20
452.048	1	30
452.218	1	23
452.389	1	31
452.559	1	28
452.730	1	24
452.900	1	27
453.071	1	18
453.241	1	18
453.412	1	27
453.582	1	26
453.753	1	20
453.923	1	31
454.093	1	27
454.264	1	17
454.434	1	26
454.605	1	26
454.775	1	19
454.946	1	23
455.116	1	21
455.287	1	23
455.457	1	29
455.628	1	20
455.798	1	18
455.968	1	25
456.139	1	18
456.309	1	30
456.480	1	18
456.650	1	17
456.821	1	25
456.991	1	21
457.161	1	22
457.332	1	29
457.502	1	25
457.673	1	30
457.843	1	14
458.014	1	24
458.184	1	28
458.355	1	14
458.525	1	26
458.695	1	16
458.866	1	26
459.036	1	25
459.207	1	25
459.377	1	18
459.548	1	28
459.718	1	12
459.888	1	20
460.059	1	22
460.229	1	9
460.400	1	16
460.570	1	21
460.740	1	22
460.911	1	20
461.081	1	18
461.252	1	20
461.422	1	6
461.593	1	18
461.763	1	27
461.933	1	24
462.104	1	29
462.274	1	26
462.445	1	20
462.615	1	19
462.785	1	14
462.956	1	19
463.126	1	17
463.297	1	23
463.467	1	24
463.638	1	28
463.808	1	21
463.978	1	11
464.149	1	23
464.319	1	15
464.490	1	15
464.660	1	30
464.830	1	22
465.001	1	15
465.171	1	17
465.342	1	17
465.512	1	30
465.682	1	17
465.853	1	29
466.023	1	32
466.194	1	12
466.364	1	20
466.534	1	4
466.705	1	18
466.875	1	27
467.045	1	25
467.216	1	20
467.386	1	16
467.557	1	23
467.727	1	10
467.897	1	35
468.068	1	24
468.238	1	14
468.409	1	19
468.579	1	20
468.749	1	23
468.920	1	28
469.090	1	18
469.260	1	25
469.431	1	11
469.601	1	18
469.772	1	20
469.942	1	30
470.112	1	20
470.283	1	23
470.453	1	23
470.623	1	29
470.794	1	12
470.964	1	21
471.135	1	25
471.305	1	4
471.475	1	23
471.646	1	12
471.816	1	18
471.986	1	2
472.157	1	20
472.327	1	24
472.497	1	15
472.668	1	6
472.838	1	24
473.009	1	17
473.179	1	24
473.349	1	19
473.520	1	0
473.690	1	24
473.860	1	11
474.031	1	28
474.201	1	18
474.371	1	26
474.542	1	22
474.712	1	7
474.882	1	14
475.053	1	12
475.223	1	14
475.394	1	12
475.564	1	16
475.734	1	18
475.905	1	21
476.075	1	12
476.245	1	26
476.416	1	20
476.586	1	13
476.756	1	17
476.927	1	21
477.097	1	26
477.267	1	13
477.438	1	11
477.608	1	18
477.778	1	17
477.949	1	13
478.119	1	8
478.289	1	18
478.460	1	24
478.630	1	26
478.800	1	21
478.971	1	15
479.141	1	16
479.311	1	12
479.482	1	0
479.652	1	15
479.822	1	7
479.993	1	31
480.163	1	26
480.333	1	33
480.504	1	9
480.674	1	11
480.844	1	9
481.015	1	17
481.185	1	14
481.355	1	7
481.525	1	11
481.696	1	23
481.866	1	15
482.036	1	12
482.207	1	12
482.377	1	20
482.547	1	11
482.718	1	-3
482.888	1	5
483.058	1	17
483.229	1	18
483.399	1	7
483.569	1	13
483.740	1	18
483.910	1	24
484.080	1	30
484.250	1	14
484.421	1	22
484.591	1	11
484.761	1	9
484.932	1	21
485.102	1	5
485.272	1	8
485.443	1	18
485.613	1	10
485.783	1	9
485.953	1	11
486.124	1	11
486.294	1	8
486.464	1	17
486.635	1	5
486.805	1	29
486.975	1	15
487.146	1	19
487.316	1	13
487.486	1	7
487.656	1	23
487.827	1	19
487.997	1	5
488.167	1	21
488.338	1	15
488.508	1	18
488.678	1	24
488.848	1	14
489.019	1	13
489.189	1	16
489.359	1	6
489.529	1	5
489.700	1	12
489.870	1	16
490.040	1	7
490.211	1	9
490.381	1	23
490.551	1	11
490.721	1	9
490.892	1	26
491.062	1	18
491.232	1	14
491.402	1	-1
491.573	1	13
491.743	1	12
491.913	1	16
492.084	1	7
492.254	1	26
492.424	1	6
492.594	1	1
492.765	1	15
492.935	1	1
493.105	1	1
493.275	1	19
493.446	1	12
493.616	1	4
493.786	1	5
493.956	1	13
494.127	1	8
494.297	1	19
494.467	1	6
494.637	1	15
494.808	1	11
494.978	1	11
495.148	1	8
495.318	1	16
495.489	1	17
495.659	1	22
495.829	1	15
495.999	1	8
496.170	1	9
496.340	1	15
496.510	1	18
496.680	1	17
496.851	1	23
497.021	1	19
497.191	1	17
497.361	1	19
497.532	1	25
497.702	1	22
497.872	1	17
498.042	1	19
498.213	1	2
498.383	1	18
498.553	1	8
498.723	1	13
498.894	1	23
499.064	1	12
499.234	1	5
499.404	1	9
499.574	1	19
499.745	1	11
499.915	1	3
500.085	1	3
500.255	1	11
500.426	1	9
500.596	1	13
500.766	1	12
500.936	1	4
501.106	1	10
501.277	1	18
501.447	1	6
501.617	1	10
501.787	1	10
501.958	1	0
502.128	1	8
502.298	1	12
502.468	1	9
502.638	1	15
502.809	1	16
502.979	1	6
503.149	1	6
503.319	1	4
503.489	1	11
503.660	1	11
503.830	1	10
504.000	1	0
504.170	1	3
504.340	1	9
504.511	1	21
504.681	1	2
504.851	1	9
505.021	1	2
505.192	1	4
505.362	1	13
505.532	1	17
505.702	1	8
505.872	1	12
506.043	1	-1
506.213	1	10
506.383	1	-1
506.553	1	10
506.723	1	10
506.893	1	9
507.064	1	11
507.234	1	2
507.404	1	14
507.574	1	15
507.744	1	3
507.915	1	18
508.085	1	10
508.255	1	10
508.425	1	13
508.595	1	8
508.766	1	11
508.936	1	15
509.106	1	17
509.276	1	8
509.446	1	-2
509.616	1	20
509.787	1	14
509.957	1	11
510.127	1	13
510.297	1	17
510.467	1	11
510.638	1	-1
510.808	1	5
510.978	1	15
511.148	1	6
511.318	1	12
511.488	1	11
511.659	1	-8
511.829	1	5
511.999	1	11
512.169	1	2
512.339	1	10
512.509	1	10
512.680	1	14
512.850	1	11
513.020	1	9
513.190	1	6
513.360	1	8
513.530	1	8
513.700	1	21
513.871	1	12
514.041	1	18
514.211	1	23
514.381	1	6
514.551	1	0
514.721	1	6
514.892	1	13
515.062	1	7
515.232	1	5
515.402	1	9
515.572	1	4
515.742	1	10
515.912	1	14
516.083	1	7
516.253	1	5
516.423	1	4
516.593	1	8
516.763	1	16
516.933	1	6
517.104	1	3
517.274	1	6
517.444	1	7
517.614	1	-1
517.784	1	7
517.954	1	10
518.124	1	4
518.294	1	15
518.465	1	7
518.635	1	-3
518.805	1	7
518.975	1	9
519.145	1	18
519.315	1	15
519.485	1	3
519.656	1	16
519.826	1	8
519.996	1	3
520.166	1	9
520.336	1	6
520.506	1	14
520.676	1	-5
520.846	1	12
521.017	1	1
521.187	1	0
521.357	1	7
521.527	1	5
521.697	1	2
521.867	1	6
522.037	1	11
522.207	1	5
522.377	1	6
522.548	1	8
522.718	1	12
522.888	1	4
523.058	1	4
523.228	1	10
523.398	1	4
523.568	1	8
523.738	1	16
523.909	1	6
524.079	1	9
524.249	1	5
524.419	1	9
524.589	1	24
524.759	1	12
524.929	1	5
525.099	1	14
525.269	1	13
525.439	1	1
525.610	1	16
525.780	1	13
525.950	1	13
526.120	1	12
526.290	1	11
526.460	1	2
526.630	1	14
526.800	1	8
526.970	1	10
527.140	1	5
527.311	1	6
527.481	1	2
527.651	1	8
527.821	1	5
527.991	1	14
528.161	1	4
528.331	1	-1
528.501	1	11
528.671	1	14
528.841	1	17
529.011	1	1
529.181	1	9
529.352	1	6
529.522	1	-4
529.692	1	4
529.862	1	6
530.032	1	5
530.202	1	8
530.372	1	7
530.542	1	10
530.712	1	2
530.882	1	7
531.052	1	5
531.222	1	1
531.392	1	2
531.563	1	-2
531.733	1	16
531.903	1	15
532.073	1	4
532.243	1	8
532.413	1	17
532.583	1	2
532.753	1	7
532.923	1	11
533.093	1	11
533.263	1	2
533.433	1	9
533.603	1	5
533.773	1	7
533.943	1	5
534.113	1	9
534.284	1	4
534.454	1	3
534.624	1	-3
534.794	1	11
534.964	1	11
535.134	1	4
535.304	1	10
535.474	1	3
535.644	1	16
535.814	1	5
535.984	1	-4
536.154	1	10
536.324	1	-4
536.494	1	14
536.664	1	-2
536.834	1	1
537.004	1	5
537.174	1	7
537.344	1	16
537.514	1	8
537.685	1	6
537.855	1	7
538.025	1	3
538.195	1	5
538.365	1	11
538.535	1	11
538.705	1	-3
538.875	1	12
539.045	1	4
539.215	1	15
539.385	1	4
539.555	1	5
539.725	1	11
539.895	1	9
540.065	1	4
540.235	1	-3
540.405	1	14
540.575	1	10
540.745	1	-2
540.915	1	9
541.085	1	5
541.255	1	8
541.425	1	2
541.595	1	0
541.765	1	8
541.935	1	11
542.105	1	-5
542.275	1	4
542.445	1	1
542.615	1	12
542.785	1	7
542.955	1	7
543.125	1	-2
543.295	1	16
543.465	1	9
543.635	1	-8
543.805	1	5
543.975	1	-5
544.145	1	8
544.315	1	-1
544.485	1	-1
544.655	1	10
544.825	1	6
544.995	1	15
545.165	1	14
545.335	1	-2
545.505	1	4
545.675	1	18
545.845	1	-4
546.015	1	14
546.185	1	-3
546.355	1	-9
546.525	1	-5
546.695	1	11
546.865	1	-8
547.035	1	11
547.205	1	6
547.375	1	15
547.545	1	4
547.715	1	7
547.885	1	11
548.055	1	9
548.225	1	1
548.395	1	12
548.565	1	1
548.735	1	7
548.905	1	1
549.075	1	13
549.245	1	10
549.415	1	15
549.585	1	10
549.755	1	17
549.925	1	-3
550.095	1	11
550.265	1	-2
550.435	1	9
550.605	1	12
550.775	1	16
550.945	1	3
551.115	1	5
551.285	1	2
551.455	1	-6
551.625	1	5
551.795	1	3
551.965	1	10
552.135	1	-5
552.305	1	15
552.475	1	8
552.645	1	9
552.815	1	13
552.985	1	0
553.155	1	5
553.325	1	3
553.495	1	6
553.665	1	7
553.835	1	-6
554.004	1	2
554.174	1	2
554.344	1	3
554.514	1	8
554.684	1	10
554.854	1	7
555.024	1	18
555.194	1	4
555.364	1	3
555.534	1	8
555.704	1	2
555.874	1	12
556.044	1	1
556.214	1	3
556.384	1	6
556.554	1	6
556.724	1	-1
556.894	1	2
557.064	1	2
557.234	1	-2
557.404	1	7
557.573	1	1
557.743	1	12
557.913	1	3
558.083	1	3
558.253	1	-10
558.423	1	-4
558.593	1	6
558.763	1	4
558.933	1	12
559.103	1	3
559.273	1	9
559.443	1	1
559.613	1	-1
559.783	1	6
559.953	1	9
560.122	1	-6
560.292	1	4
560.462	1	-4
560.632	1	7
560.802	1	3
560.972	1	9
561.142	1	7
561.312	1	1
561.482	1	1
561.652	1	4
561.822	1	-2
561.992	1	2
562.162	1	1
562.331	1	0
562.501	1	4
562.671	1	10
562.841	1	2
563.011	1	16
563.181	1	10
563.351	1	4
563.521	1	7
563.691	1	-7
563.861	1	4
564.031	1	2
564.201	1	-2
564.370	1	14
564.540	1	12
564.710	1	8
564.880	1	7
565.050	1	0
565.220	1	0
565.390	1	5
565.560	1	7
565.730	1	2
565.900	1	-6
566.069	1	17
566.239	1	-5
566.409	1	9
566.579	1	9
566.749	1	11
566.919	1	-2
567.089	1	0
567.259	1	7
567.429	1	-3
567.599	1	-4
567.768	1	2
567.938	1	-8
568.108	1	5
568.278	1	5
568.448	1	11
568.618	1	6
568.788	1	8
568.958	1	14
569.128	1	1
569.297	1	5
569.467	1	9
569.637	1	-2
569.807	1	5
569.977	1	6
570.147	1	-3
570.317	1	13
570.487	1	7
570.656	1	1
570.826	1	11
570.996	1	-5
571.166	1	-5
571.336	1	11
571.506	1	4
571.676	1	13
571.846	1	0
572.015	1	6
572.185	1	3
572.355	1	-6
572.525	1	1
572.695	1	9
572.865	1	4
573.035	1	11
573.205	1	-4
573.374	1	6
573.544	1	-7
573.714	1	7
573.884	1	8
574.054	1	15
574.224	1	1
574.394	1	-3
574.563	1	0
574.733	1	9
574.903	1	15
575.073	1	10
575.243	1	1
575.413	1	14
575.583	1	-1
575.752	1	9
575.922	1	2
576.092	1	4
576.262	1	3
576.432	1	16
576.602	1	-1
576.772	1	-3
576.941	1	5
577.111	1	9
577.281	1	6
577.451	1	11
577.621	1	0
577.791	1	-3
577.960	1	10
578.130	1	-6
578.300	1	4
578.470	1	5
578.640	1	3
578.810	1	0
578.979	1	0
579.149	1	3
579.319	1	1
579.489	1	9
579.659	1	-5
579.829	1	-1
579.998	1	4
580.168	1	1
580.338	1	12
580.508	1	10
580.678	1	-2
580.848	1	7
581.017	1	16
581.187	1	9
581.357	1	-4
581.527	1	0
581.697	1	10
581.867	1	5
582.036	1	-1
582.206	1	9
582.376	1	2
582.546	1	5
582.716	1	0
582.885	1	2
583.055	1	4
583.225	1	-1
583.395	1	5
583.565	1	11
583.735	1	-1
583.904	1	5
584.074	1	8
584.244	1	3
584.414	1	3
584.584	1	-2
584.753	1	15
584.923	1	5
585.093	1	1
585.263	1	7
585.433	1	5
585.602	1	8
585.772	1	2
585.942	1	4
586.112	1	5
586.282	1	7
586.451	1	1
586.621	1	5
586.791	1	4
586.961	1	8
587.131	1	9
587.300	1	-4
587.470	1	-3
587.640	1	5
587.810	1	0
587.980	1	13
588.149	1	12
588.319	1	4
588.489	1	11
588.659	1	0
588.829	1	2
588.998	1	7
589.168	1	4
589.338	1	11
589.508	1	8
589.677	1	-4
589.847	1	6
590.017	1	7
590.187	1	4
590.357	1	4
590.526	1	19
590.696	1	6
590.866	1	9
591.036	1	1
591.205	1	-3
591.375	1	0
591.545	1	3
591.715	1	9
591.885	1	3
592.054	1	2
592.224	1	2
592.394	1	5
592.564	1	-4
592.733	1	18
592.903	1	7
593.073	1	-1
593.243	1	13
593.412	1	0
593.582	1	6
593.752	1	10
593.922	1	6
594.091	1	10
594.261	1	-2
594.431	1	7
594.601	1	7
594.771	1	-2
594.940	1	1
595.110	1	4
595.280	1	4
595.450	1	7
595.619	1	4
595.789	1	5
595.959	1	-6
596.129	1	14
596.298	1	6
596.468	1	12
596.638	1	3
596.808	1	10
596.977	1	15
597.147	1	2
597.317	1	6
597.487	1	2
597.656	1	3
597.826	1	-2
597.996	1	12
598.166	1	1
598.335	1	8
598.505	1	3
598.675	1	1
598.844	1	-3
599.014	1	11
599.184	1	29
599.354	1	6
599.523	1	2
599.693	1	17
599.863	1	4
600.033	1	7
600.202	1	-6
600.372	1	-3
600.542	1	15
600.712	1	5
600.881	1	3
601.051	1	0
601.221	1	-2
601.390	1	8
601.560	1	6
601.730	1	6
601.900	1	1
602.069	1	6
602.239	1	-8
602.409	1	7
602.578	1	2
602.748	1	7
602.918	1	9
603.088	1	17
603.257	1	13
603.427	1	-2
603.597	1	7
603.767	1	1
603.936	1	14
604.106	1	6
604.276	1	0
604.445	1	4
604.615	1	-9
604.785	1	1
604.954	1	13
605.124	1	9
605.294	1	4
605.464	1	17
605.633	1	9
605.803	1	-4
605.973	1	4
606.142	1	11
606.312	1	0
606.482	1	1
606.652	1	14
606.821	1	7
606.991	1	8
607.161	1	19
607.330	1	2
607.500	1	7
607.670	1	4
607.839	1	1
608.009	1	2
608.179	1	0
608.348	1	14
608.518	1	7
608.688	1	17
608.858	1	6
609.027	1	9
609.197	1	11
609.367	1	5
609.536	1	-7
609.706	1	3
609.876	1	-3
610.045	1	11
610.215	1	-5
610.385	1	22
610.554	1	-1
610.724	1	21
610.894	1	8
611.063	1	-9
611.233	1	17
611.403	1	4
611.572	1	12
611.742	1	3
611.912	1	11
612.081	1	-1
612.251	1	9
612.421	1	4
612.590	1	-6
612.760	1	6
612.930	1	-2
613.099	1	7
613.269	1	5
613.439	1	15
613.608	1	16
613.778	1	4
613.948	1	7
614.117	1	6
614.287	1	0
614.457	1	4
614.626	1	0
614.796	1	6
614.966	1	1
615.135	1	5
615.305	1	4
615.475	1	15
615.644	1	12
615.814	1	2
615.984	1	-6
616.153	1	6
616.323	1	0
616.493	1	13
616.662	1	7
616.832	1	2
617.002	1	16
617.171	1	-3
617.341	1	11
617.511	1	6
617.680	1	12
617.850	1	-4
618.019	1	3
618.189	1	6
618.359	1	8
618.528	1	6
618.698	1	2
618.868	1	12
619.037	1	2
619.207	1	8
619.377	1	6
619.546	1	7
619.716	1	2
619.885	1	15
620.055	1	10
620.225	1	-6
620.394	1	9
620.564	1	18
620.734	1	5
620.903	1	9
621.073	1	13
621.242	1	2
621.412	1	12
621.582	1	7
621.751	1	-1
621.921	1	14
622.091	1	-1
622.260	1	4
622.430	1	12
622.599	1	10
622.769	1	10
622.939	1	8
623.108	1	19
623.278	1	10
623.448	1	-2
623.617	1	0
623.787	1	5
623.956	1	-4
624.126	1	14
624.296	1	10
624.465	1	-1
624.635	1	2
624.804	1	11
624.974	1	14
625.144	1	14
625.313	1	5
625.483	1	7
625.652	1	7
625.822	1	1
625.992	1	1
626.161	1	-6
626.331	1	-1
626.501	1	8
626.670	1	2
626.840	1	-7
627.009	1	6
627.179	1	11
627.348	1	5
627.518	1	8
627.688	1	5
627.857	1	6
628.027	1	5
628.196	1	11
628.366	1	5
628.536	1	10
628.705	1	5
628.875	1	3
629.044	1	-5
629.214	1	-1
629.384	1	9
629.553	1	7
629.723	1	4
629.892	1	2
630.062	1	23
630.232	1	-3
630.401	1	0
630.571	1	10
630.740	1	9
630.910	1	8
631.079	1	4
631.249	1	-3
631.419	1	7
631.588	1	0
631.758	1	12
631.927	1	3
632.097	1	12
632.266	1	3
632.436	1	4
632.606	1	16
632.775	1	8
632.945	1	-2
633.114	1	5
633.284	1	-2
633.453	1	5
633.623	1	12
633.793	1	0
633.962	1	-2
634.132	1	4
634.301	1	12
634.471	1	16
634.640	1	10
634.810	1	10
634.979	1	26
635.149	1	8
635.319	1	11
635.488	1	-1
635.658	1	6
635.827	1	7
635.997	1	3
636.166	1	3
636.336	1	14
636.505	1	15
636.675	1	1
636.845	1	17
637.014	1	5
637.184	1	-1
637.353	1	6
637.523	1	6
637.692	1	10
637.862	1	-4
638.031	1	9
638.201	1	14
638.370	1	11
638.540	1	2
638.710	1	12
638.879	1	-2
639.049	1	5
639.218	1	3
639.388	1	21
639.557	1	2
639.727	1	2
639.896	1	7
640.066	1	1
640.235	1	18
640.405	1	-2
640.574	1	12
640.744	1	11
640.914	1	4
641.083	1	-1
641.253	1	4
641.422	1	12
641.592	1	3
641.761	1	15
641.931	1	6
642.100	1	17
642.270	1	7
642.439	1	5
642.609	1	15
642.778	1	2
642.948	1	1
643.117	1	9
643.287	1	2
643.456	1	-5
643.626	1	11
643.795	1	8
643.965	1	11
644.134	1	0
644.304	1	13
644.473	1	2
644.643	1	1
644.812	1	3
644.982	1	4
645.151	1	4
645.321	1	6
645.490	1	17
645.660	1	6
645.829	1	-3
645.999	1	15
646.168	1	12
646.338	1	3
646.507	1	2
646.677	1	17
646.846	1	11
647.016	1	3
647.185	1	3
647.355	1	1
647.524	1	1
647.694	1	1
647.863	1	6
648.033	1	14
648.202	1	8
648.372	1	-1
648.541	1	8
648.711	1	7
648.880	1	17
649.050	1	7
649.219	1	2
649.389	1	9
649.558	1	4
649.728	1	6
649.897	1	7
650.067	1	7
650.236	1	11
650.406	1	-10
650.575	1	14
650.745	1	3
650.914	1	7
651.084	1	0
651.253	1	11
651.423	1	-1
651.592	1	-2
651.762	1	15
651.931	1	4
652.101	1	4
652.270	1	7
652.440	1	10
652.609	1	11
652.778	1	10
652.948	1	6
653.117	1	25
653.287	1	2
653.456	1	2
653.626	1	10
653.795	1	9
653.965	1	12
654.134	1	12
654.304	1	11
654.473	1	7
654.643	1	5
654.812	1	4
654.982	1	13
655.151	1	13
655.320	1	1
655.490	1	-8
655.659	1	5
655.829	1	4
655.998	1	11
656.168	1	3
656.337	1	13
656.507	1	8
656.676	1	7
656.846	1	2
657.015	1	13
657.184	1	-5
657.354	1	5
657.523	1	2
657.693	1	1
657.862	1	11
658.032	1	5
658.201	1	4
658.371	1	9
658.540	1	9
658.709	1	4
658.879	1	-8
659.048	1	4
659.218	1	8
659.387	1	6
659.557	1	14
659.726	1	9
659.895	1	4
660.065	1	15
660.234	1	16
660.404	1	25
660.573	1	13
660.743	1	8
660.912	1	15
661.081	1	2
661.251	1	4
661.420	1	14
661.590	1	9
661.759	1	3
661.929	1	10
662.098	1	15
662.267	1	7
662.437	1	15
662.606	1	2
662.776	1	11
662.945	1	9
663.115	1	-1
663.284	1	-6
663.453	1	-3
663.623	1	6
663.792	1	-1
663.962	1	8
664.131	1	4
664.300	1	11
664.470	1	-6
664.639	1	1
664.809	1	3
664.978	1	7
665.148	1	17
665.317	1	4
665.486	1	7
665.656	1	-5
665.825	1	12
665.995	1	16
666.164	1	14
666.333	1	-5
666.503	1	15
666.672	1	11
666.842	1	-4
667.011	1	2
667.180	1	10
667.350	1	11
667.519	1	-2
667.689	1	12
667.858	1	25
668.027	1	13
668.197	1	6
668.366	1	15
668.536	1	6
668.705	1	9
668.874	1	10
669.044	1	9
669.213	1	2
669.382	1	20
669.552	1	10
669.721	1	6
669.891	1	4
670.060	1	-8
670.229	1	7
670.399	1	9
670.568	1	28
670.738	1	9
670.907	1	8
671.076	1	12
671.246	1	-4
671.415	1	10
671.584	1	-4
671.754	1	4
671.923	1	2
672.093	1	23
672.262	1	4
672.431	1	12
672.601	1	-3
672.770	1	6
672.939	1	9
673.109	1	4
673.278	1	13
673.448	1	-1
673.617	1	2
673.786	1	-6
