325.333	1	-1
325.504	1	4
325.675	1	3
325.846	1	2
326.017	1	8
326.188	1	6
326.359	1	8
326.531	1	-1
326.702	1	1
326.873	1	12
327.044	1	7
327.215	1	-4
327.386	1	-3
327.557	1	12
327.728	1	-12
327.899	1	13
328.070	1	2
328.241	1	12
328.412	1	-2
328.583	1	-4
328.754	1	4
328.926	1	0
329.097	1	8
329.268	1	1
329.439	1	8
329.610	1	1
329.781	1	8
329.952	1	2
330.123	1	-3
330.294	1	-2
330.465	1	8
330.636	1	6
330.807	1	5
330.978	1	11
331.149	1	5
331.320	1	4
331.492	1	9
331.663	1	1
331.834	1	-1
332.005	1	-3
332.176	1	-2
332.347	1	8
332.518	1	0
332.689	1	4
332.860	1	-2
333.031	1	10
333.202	1	22
333.373	1	3
333.544	1	-5
333.715	1	0
333.886	1	-7
334.057	1	-2
334.228	1	1
334.399	1	4
334.570	1	19
334.741	1	12
334.912	1	10
335.084	1	1
335.255	1	-4
335.426	1	0
335.597	1	9
335.768	1	0
335.939	1	-2
336.110	1	8
336.281	1	2
336.452	1	13
336.623	1	2
336.794	1	-1
336.965	1	1
337.136	1	0
337.307	1	9
337.478	1	-2
337.649	1	8
337.820	1	2
337.991	1	11
338.162	1	1
338.333	1	-6
338.504	1	0
338.675	1	3
338.846	1	12
339.017	1	-2
339.188	1	6
339.359	1	7
339.530	1	9
339.701	1	3
339.872	1	3
340.043	1	12
340.214	1	5
340.385	1	4
340.556	1	12
340.727	1	4
340.898	1	10
341.069	1	11
341.240	1	7
341.411	1	5
341.582	1	2
341.753	1	6
341.924	1	3
342.095	1	-2
342.266	1	-8
342.437	1	8
342.608	1	-4
342.779	1	13
342.950	1	7
343.121	1	6
343.292	1	2
343.463	1	8
343.634	1	9
343.805	1	0
343.976	1	6
344.147	1	2
344.318	1	2
344.489	1	4
344.660	1	8
344.831	1	9
345.002	1	0
345.173	1	5
345.344	1	-4
345.515	1	0
345.686	1	12
345.857	1	11
346.028	1	8
346.199	1	7
346.370	1	0
346.541	1	19
346.712	1	12
346.883	1	5
347.054	1	2
347.225	1	-3
347.396	1	14
347.567	1	6
347.738	1	5
347.909	1	14
348.080	1	-3
348.251	1	5
348.422	1	9
348.593	1	6
348.764	1	0
348.935	1	6
349.106	1	11
349.277	1	11
349.448	1	6
349.619	1	6
349.790	1	18
349.961	1	3
350.132	1	3
350.303	1	14
350.474	1	13
350.645	1	6
350.816	1	14
350.987	1	3
351.157	1	0
351.328	1	10
351.499	1	4
351.670	1	6
351.841	1	-2
352.012	1	12
352.183	1	1
352.354	1	13
352.525	1	8
352.696	1	3
352.867	1	4
353.038	1	8
353.209	1	8
353.380	1	7
353.551	1	20
353.722	1	12
353.893	1	3
354.064	1	12
354.235	1	6
354.406	1	7
354.576	1	-2
354.747	1	2
354.918	1	20
355.089	1	10
355.260	1	11
355.431	1	19
355.602	1	7
355.773	1	4
355.944	1	4
356.115	1	-6
356.286	1	9
356.457	1	11
356.628	1	23
356.799	1	1
356.970	1	7
357.141	1	10
357.311	1	13
357.482	1	3
357.653	1	-1
357.824	1	17
357.995	1	12
358.166	1	8
358.337	1	-3
358.508	1	9
358.679	1	3
358.850	1	10
359.021	1	9
359.192	1	12
359.363	1	6
359.533	1	2
359.704	1	8
359.875	1	17
360.046	1	3
360.217	1	6
360.388	1	10
360.559	1	13
360.730	1	10
360.901	1	10
361.072	1	3
361.243	1	10
361.414	1	-4
361.584	1	17
361.755	1	7
361.926	1	7
362.097	1	-4
362.268	1	12
362.439	1	8
362.610	1	8
362.781	1	3
362.952	1	16
363.123	1	15
363.293	1	11
363.464	1	7
363.635	1	7
363.806	1	9
363.977	1	1
364.148	1	-2
364.319	1	8
364.490	1	13
364.661	1	6
364.832	1	13
365.002	1	20
365.173	1	2
365.344	1	5
365.515	1	7
365.686	1	10
365.857	1	12
366.028	1	4
366.199	1	8
366.370	1	17
366.540	1	8
366.711	1	11
366.882	1	9
367.053	1	9
367.224	1	5
367.395	1	12
367.566	1	14
367.737	1	17
367.908	1	5
368.078	1	32
368.249	1	2
368.420	1	6
368.591	1	5
368.762	1	14
368.933	1	0
369.104	1	22
369.274	1	10
369.445	1	7
369.616	1	15
369.787	1	0
369.958	1	10
370.129	1	10
370.300	1	11
370.471	1	19
370.641	1	14
370.812	1	11
370.983	1	7
371.154	1	14
371.325	1	8
371.496	1	11
371.667	1	7
371.837	1	10
372.008	1	6
372.179	1	13
372.350	1	14
372.521	1	4
372.692	1	9
372.863	1	5
373.033	1	23
373.204	1	0
373.375	1	7
373.546	1	15
373.717	1	0
373.888	1	0
374.059	1	19
374.229	1	14
374.400	1	5
374.571	1	18
374.742	1	4
374.913	1	0
375.084	1	9
375.254	1	19
375.425	1	3
375.596	1	1
375.767	1	13
375.938	1	9
376.109	1	-1
376.279	1	1
376.450	1	8
376.621	1	20
376.792	1	6
376.963	1	9
377.134	1	23
377.304	1	13
377.475	1	8
377.646	1	0
377.817	1	-2
377.988	1	10
378.159	1	7
378.329	1	4
378.500	1	9
378.671	1	12
378.842	1	10
379.013	1	18
379.184	1	18
379.354	1	6
379.525	1	15
379.696	1	4
379.867	1	17
380.038	1	2
380.209	1	4
380.379	1	11
380.550	1	13
380.721	1	12
380.892	1	14
381.063	1	9
381.233	1	-4
381.404	1	12
381.575	1	-1
381.746	1	10
381.917	1	3
382.087	1	17
382.258	1	14
382.429	1	11
382.600	1	10
382.771	1	20
382.941	1	11
383.112	1	13
383.283	1	13
383.454	1	5
383.625	1	12
383.795	1	11
383.966	1	9
384.137	1	8
384.308	1	17
384.479	1	9
384.649	1	13
384.820	1	12
384.991	1	11
385.162	1	16
385.333	1	15
385.503	1	6
385.674	1	10
385.845	1	5
386.016	1	24
386.187	1	0
386.357	1	17
386.528	1	9
386.699	1	16
386.870	1	13
387.041	1	10
387.211	1	14
387.382	1	8
387.553	1	7
387.724	1	-4
387.894	1	7
388.065	1	5
388.236	1	10
388.407	1	9
388.578	1	5
388.748	1	13
388.919	1	12
389.090	1	7
389.261	1	14
389.431	1	18
389.602	1	17
389.773	1	7
389.944	1	8
390.114	1	5
390.285	1	7
390.456	1	8
390.627	1	19
390.798	1	13
390.968	1	9
391.139	1	11
391.310	1	24
391.481	1	10
391.651	1	18
391.822	1	10
391.993	1	18
392.164	1	-2
392.334	1	15
392.505	1	0
392.676	1	13
392.847	1	7
393.017	1	19
393.188	1	15
393.359	1	23
393.530	1	16
393.700	1	12
393.871	1	13
394.042	1	1
394.213	1	7
394.383	1	15
394.554	1	26
394.725	1	13
394.896	1	18
395.066	1	8
395.237	1	15
395.408	1	8
395.579	1	20
395.749	1	11
395.920	1	8
396.091	1	12
396.262	1	8
396.432	1	1
396.603	1	5
396.774	1	10
396.945	1	21
397.115	1	19
397.286	1	11
397.457	1	10
397.627	1	12
397.798	1	13
397.969	1	10
398.140	1	9
398.310	1	9
398.481	1	4
398.652	1	20
398.823	1	11
398.993	1	7
399.164	1	12
399.335	1	14
399.505	1	16
399.676	1	14
399.847	1	1
400.018	1	12
400.188	1	18
400.359	1	13
400.530	1	24
400.700	1	2
400.871	1	26
401.042	1	4
401.213	1	9
401.383	1	10
401.554	1	13
401.725	1	20
401.895	1	24
402.066	1	6
402.237	1	14
402.408	1	12
402.578	1	9
402.749	1	9
402.920	1	18
403.090	1	13
403.261	1	25
403.432	1	19
403.603	1	10
403.773	1	20
403.944	1	10
404.115	1	15
404.285	1	16
404.456	1	9
404.627	1	10
404.797	1	11
404.968	1	22
405.139	1	13
405.310	1	16
405.480	1	7
405.651	1	26
405.822	1	16
405.992	1	3
406.163	1	17
406.334	1	1
406.504	1	6
406.675	1	8
406.846	1	17
407.016	1	6
407.187	1	26
407.358	1	17
407.528	1	11
407.699	1	3
407.870	1	-1
408.041	1	20
408.211	1	10
408.382	1	26
408.553	1	4
408.723	1	22
408.894	1	7
409.065	1	14
409.235	1	22
409.406	1	17
409.577	1	15
409.747	1	4
409.918	1	11
410.089	1	15
410.259	1	18
410.430	1	8
410.601	1	13
410.771	1	16
410.942	1	15
411.113	1	-4
411.283	1	13
411.454	1	16
411.625	1	12
411.795	1	13
411.966	1	26
412.137	1	14
412.307	1	29
412.478	1	16
412.649	1	12
412.819	1	16
412.990	1	11
413.161	1	17
413.331	1	14
413.502	1	16
413.672	1	18
413.843	1	19
414.014	1	7
414.184	1	18
414.355	1	24
414.526	1	20
414.696	1	17
414.867	1	23
415.038	1	-1
415.208	1	16
415.379	1	10
415.550	1	24
415.720	1	17
415.891	1	8
416.062	1	16
416.232	1	12
416.403	1	11
416.573	1	24
416.744	1	21
416.915	1	16
417.085	1	16
417.256	1	22
417.427	1	15
417.597	1	1
417.768	1	8
417.939	1	25
418.109	1	10
418.280	1	11
418.450	1	14
418.621	1	6
418.792	1	3
418.962	1	15
419.133	1	15
419.304	1	22
419.474	1	10
419.645	1	10
419.815	1	22
419.986	1	12
420.157	1	5
420.327	1	6
420.498	1	12
420.669	1	17
420.839	1	8
421.010	1	16
421.180	1	12
421.351	1	12
421.522	1	4
421.692	1	20
421.863	1	16
422.033	1	16
422.204	1	13
422.375	1	24
422.545	1	16
422.716	1	10
422.886	1	11
423.057	1	14
423.228	1	5
423.398	1	11
423.569	1	15
423.740	1	5
423.910	1	4
424.081	1	17
424.251	1	8
424.422	1	19
424.593	1	16
424.763	1	22
424.934	1	12
425.104	1	17
425.275	1	22
425.445	1	19
425.616	1	9
425.787	1	3
425.957	1	26
426.128	1	3
426.298	1	2
426.469	1	12
426.640	1	19
426.810	1	4
426.981	1	13
427.151	1	17
427.322	1	12
427.493	1	9
427.663	1	15
427.834	1	9
428.004	1	8
428.175	1	19
428.345	1	13
428.516	1	18
428.687	1	1
428.857	1	15
429.028	1	3
429.198	1	12
429.369	1	0
429.540	1	16
429.710	1	12
429.881	1	10
430.051	1	7
430.222	1	17
430.392	1	23
430.563	1	18
430.734	1	7
430.904	1	5
431.075	1	8
431.245	1	15
431.416	1	9
431.586	1	5
431.757	1	18
431.927	1	14
432.098	1	13
432.269	1	20
432.439	1	15
432.610	1	21
432.780	1	14
432.951	1	4
433.121	1	13
433.292	1	5
433.462	1	6
433.633	1	5
433.804	1	17
433.974	1	4
434.145	1	7
434.315	1	6
434.486	1	11
434.656	1	20
434.827	1	4
434.997	1	11
435.168	1	16
435.339	1	8
435.509	1	9
435.680	1	22
435.850	1	12
436.021	1	12
436.191	1	-1
436.362	1	6
436.532	1	19
436.703	1	5
436.873	1	23
437.044	1	3
437.214	1	27
437.385	1	15
437.556	1	9
437.726	1	6
437.897	1	8
438.067	1	0
438.238	1	8
438.408	1	16
438.579	1	20
438.749	1	28
438.920	1	12
439.090	1	8
439.261	1	3
439.431	1	17
439.602	1	22
439.772	1	21
439.943	1	6
440.113	1	-2
440.284	1	9
440.455	1	9
440.625	1	22
440.796	1	13
440.966	1	-1
441.137	1	13
441.307	1	13
441.478	1	12
441.648	1	7
441.819	1	14
441.989	1	16
442.160	1	-1
442.330	1	16
442.501	1	13
442.671	1	7
442.842	1	6
443.012	1	17
443.183	1	14
443.353	1	5
443.524	1	3
443.694	1	13
443.865	1	11
444.035	1	15
444.206	1	12
444.376	1	9
444.547	1	15
444.717	1	14
444.888	1	-1
445.058	1	26
445.229	1	12
445.399	1	16
445.570	1	23
445.740	1	16
445.911	1	-9
446.081	1	12
446.252	1	13
446.422	1	19
446.593	1	3
446.763	1	14
446.934	1	2
447.104	1	11
447.275	1	6
447.445	1	5
447.616	1	10
447.786	1	18
447.957	1	15
448.127	1	4
448.298	1	1
448.468	1	3
448.639	1	11
448.809	1	15
448.979	1	9
449.150	1	12
449.320	1	4
449.491	1	9
449.661	1	6
449.832	1	2
450.002	1	9
450.173	1	10
450.343	1	16
450.514	1	13
450.684	1	10
450.855	1	18
451.025	1	14
451.196	1	3
451.366	1	12
451.537	1	5
451.707	1	5
451.878	1	1
452.048	1	6
452.218	1	4
452.389	1	15
452.559	1	11
452.730	1	19
452.900	1	14
453.071	1	10
453.241	1	-8
453.412	1	1
453.582	1	5
453.753	1	0
453.923	1	13
454.093	1	23
454.264	1	11
454.434	1	15
454.605	1	20
454.775	1	5
454.946	1	11
455.116	1	10
455.287	1	3
455.457	1	13
455.628	1	1
455.798	1	13
455.968	1	22
456.139	1	16
456.309	1	22
456.480	1	3
456.650	1	7
456.821	1	7
456.991	1	3
457.161	1	16
457.332	1	8
457.502	1	9
457.673	1	11
457.843	1	8
458.014	1	9
458.184	1	11
458.355	1	13
458.525	1	9
458.695	1	8
458.866	1	11
459.036	1	19
459.207	1	12
459.377	1	12
459.548	1	10
459.718	1	1
459.888	1	11
460.059	1	13
460.229	1	10
460.400	1	3
460.570	1	18
460.740	1	10
460.911	1	16
461.081	1	3
461.252	1	3
461.422	1	1
461.593	1	7
461.763	1	11
461.933	1	16
462.104	1	12
462.274	1	5
462.445	1	11
462.615	1	10
462.785	1	15
462.956	1	0
463.126	1	12
463.297	1	14
463.467	1	11
463.638	1	1
463.808	1	3
463.978	1	5
464.149	1	14
464.319	1	11
464.490	1	11
464.660	1	10
464.830	1	9
465.001	1	0
465.171	1	6
465.342	1	-2
465.512	1	14
465.682	1	9
465.853	1	23
466.023	1	31
466.194	1	6
466.364	1	4
466.534	1	5
466.705	1	12
466.875	1	8
467.045	1	21
467.216	1	3
467.386	1	13
467.557	1	13
467.727	1	13
467.897	1	22
468.068	1	8
468.238	1	0
468.409	1	19
468.579	1	11
468.749	1	19
468.920	1	18
469.090	1	3
469.260	1	20
469.431	1	2
469.601	1	1
469.772	1	3
469.942	1	14
470.112	1	6
470.283	1	8
470.453	1	5
470.623	1	13
470.794	1	12
470.964	1	10
471.135	1	11
471.305	1	4
471.475	1	13
471.646	1	3
471.816	1	7
471.986	1	4
472.157	1	11
472.327	1	5
472.497	1	4
472.668	1	1
472.838	1	14
473.009	1	5
473.179	1	6
473.349	1	-3
473.520	1	0
473.690	1	17
473.860	1	10
474.031	1	7
474.201	1	8
474.371	1	20
474.542	1	9
474.712	1	-1
474.882	1	12
475.053	1	4
475.223	1	-1
475.394	1	-3
475.564	1	6
475.734	1	11
475.905	1	17
476.075	1	2
476.245	1	23
476.416	1	9
476.586	1	8
476.756	1	3
476.927	1	3
477.097	1	14
477.267	1	6
477.438	1	3
477.608	1	3
477.778	1	10
477.949	1	9
478.119	1	4
478.289	1	5
478.460	1	6
478.630	1	15
478.800	1	15
478.971	1	2
479.141	1	13
479.311	1	3
479.482	1	-1
479.652	1	7
479.822	1	5
479.993	1	16
480.163	1	19
480.333	1	15
480.504	1	8
480.674	1	-9
480.844	1	8
481.015	1	4
481.185	1	13
481.355	1	8
481.525	1	1
481.696	1	-7
481.866	1	1
482.036	1	4
482.207	1	5
482.377	1	13
482.547	1	1
482.718	1	6
482.888	1	-5
483.058	1	19
483.229	1	11
483.399	1	13
483.569	1	3
483.740	1	9
483.910	1	14
484.080	1	27
484.250	1	-1
484.421	1	10
484.591	1	8
484.761	1	9
484.932	1	12
485.102	1	0
485.272	1	2
485.443	1	10
485.613	1	5
485.783	1	8
485.953	1	3
486.124	1	4
486.294	1	12
486.464	1	13
486.635	1	4
486.805	1	26
486.975	1	11
487.146	1	9
487.316	1	1
487.486	1	-3
487.656	1	3
487.827	1	4
487.997	1	11
488.167	1	10
488.338	1	11
488.508	1	9
488.678	1	2
488.848	1	13
489.019	1	-8
489.189	1	5
489.359	1	-4
489.529	1	-1
489.700	1	-2
489.870	1	8
490.040	1	-3
490.211	1	5
490.381	1	28
490.551	1	3
490.721	1	17
490.892	1	13
491.062	1	1
491.232	1	14
491.402	1	-3
491.573	1	-1
491.743	1	-3
491.913	1	6
492.084	1	15
492.254	1	18
492.424	1	8
492.594	1	-1
492.765	1	3
492.935	1	5
493.105	1	-3
493.275	1	9
493.446	1	18
493.616	1	-12
493.786	1	6
493.956	1	5
494.127	1	5
494.297	1	15
494.467	1	9
494.637	1	15
494.808	1	3
494.978	1	-10
495.148	1	12
495.318	1	3
495.489	1	3
495.659	1	9
495.829	1	9
495.999	1	7
496.170	1	6
496.340	1	4
496.510	1	11
496.680	1	1
496.851	1	14
497.021	1	13
497.191	1	4
497.361	1	4
497.532	1	11
497.702	1	8
497.872	1	6
498.042	1	7
498.213	1	-4
498.383	1	8
498.553	1	9
498.723	1	3
498.894	1	21
499.064	1	5
499.234	1	6
499.404	1	7
499.574	1	4
499.745	1	10
499.915	1	2
500.085	1	-2
500.255	1	-2
500.426	1	5
500.596	1	11
500.766	1	8
500.936	1	6
501.106	1	7
501.277	1	12
501.447	1	-11
501.617	1	9
501.787	1	4
501.958	1	3
502.128	1	3
502.298	1	8
502.468	1	6
502.638	1	16
502.809	1	12
502.979	1	8
503.149	1	0
503.319	1	9
503.489	1	13
503.660	1	4
503.830	1	5
504.000	1	10
504.170	1	-4
504.340	1	-1
504.511	1	12
504.681	1	9
504.851	1	0
505.021	1	12
505.192	1	10
505.362	1	8
505.532	1	3
505.702	1	8
505.872	1	6
506.043	1	-5
506.213	1	8
506.383	1	-2
506.553	1	17
506.723	1	-1
506.893	1	1
507.064	1	9
507.234	1	1
507.404	1	15
507.574	1	-1
507.744	1	4
507.915	1	3
508.085	1	8
508.255	1	-2
508.425	1	3
508.595	1	-2
508.766	1	5
508.936	1	13
509.106	1	8
509.276	1	13
509.446	1	-2
509.616	1	10
509.787	1	6
509.957	1	5
510.127	1	3
510.297	1	2
510.467	1	3
510.638	1	-9
510.808	1	7
510.978	1	0
511.148	1	0
511.318	1	16
511.488	1	6
511.659	1	0
511.829	1	5
511.999	1	-2
512.169	1	0
512.339	1	6
512.509	1	-4
512.680	1	10
512.850	1	2
513.020	1	10
513.190	1	1
513.360	1	6
513.530	1	12
513.700	1	11
513.871	1	12
514.041	1	6
514.211	1	19
514.381	1	0
514.551	1	8
514.721	1	0
514.892	1	4
515.062	1	3
515.232	1	6
515.402	1	9
515.572	1	6
515.742	1	2
515.912	1	14
516.083	1	-3
516.253	1	6
516.423	1	-6
516.593	1	16
516.763	1	11
516.933	1	-4
517.104	1	1
517.274	1	8
517.444	1	2
517.614	1	-4
517.784	1	10
517.954	1	-10
518.124	1	-3
518.294	1	16
518.465	1	9
518.635	1	-1
518.805	1	2
518.975	1	5
519.145	1	4
519.315	1	1
519.485	1	0
519.656	1	-4
519.826	1	10
519.996	1	8
520.166	1	4
520.336	1	18
520.506	1	1
520.676	1	0
520.846	1	8
521.017	1	-3
521.187	1	-1
521.357	1	2
521.527	1	2
521.697	1	2
521.867	1	6
522.037	1	9
522.207	1	11
522.377	1	1
522.548	1	2
522.718	1	4
522.888	1	0
523.058	1	-2
523.228	1	2
523.398	1	5
523.568	1	0
523.738	1	4
523.909	1	7
524.079	1	6
524.249	1	-1
524.419	1	4
524.589	1	16
524.759	1	-4
524.929	1	9
525.099	1	9
525.269	1	7
525.439	1	1
525.610	1	4
525.780	1	12
525.950	1	0
526.120	1	1
526.290	1	8
526.460	1	7
526.630	1	5
526.800	1	-2
526.970	1	1
527.140	1	0
527.311	1	-2
527.481	1	7
527.651	1	-6
527.821	1	0
527.991	1	10
528.161	1	3
528.331	1	3
528.501	1	4
528.671	1	3
528.841	1	11
529.011	1	-12
529.181	1	12
529.352	1	5
529.522	1	-6
529.692	1	-1
529.862	1	1
530.032	1	1
530.202	1	6
530.372	1	7
530.542	1	4
530.712	1	-3
530.882	1	-5
531.052	1	8
531.222	1	9
531.392	1	6
531.563	1	3
531.733	1	10
531.903	1	-1
532.073	1	5
532.243	1	0
532.413	1	14
532.583	1	2
532.753	1	1
532.923	1	6
533.093	1	-2
533.263	1	-7
533.433	1	7
533.603	1	3
533.773	1	0
533.943	1	-1
534.113	1	6
534.284	1	9
534.454	1	6
534.624	1	-5
534.794	1	9
534.964	1	5
535.134	1	-4
535.304	1	1
535.474	1	0
535.644	1	13
535.814	1	-4
535.984	1	0
536.154	1	2
536.324	1	-2
536.494	1	6
536.664	1	-1
536.834	1	8
537.004	1	-2
537.174	1	-2
537.344	1	13
537.514	1	-3
537.685	1	5
537.855	1	0
538.025	1	5
538.195	1	7
538.365	1	8
538.535	1	6
538.705	1	4
538.875	1	5
539.045	1	-1
539.215	1	13
539.385	1	-4
539.555	1	3
539.725	1	5
539.895	1	13
540.065	1	-4
540.235	1	-4
540.405	1	11
540.575	1	6
540.745	1	-1
540.915	1	3
541.085	1	-3
541.255	1	1
541.425	1	-5
541.595	1	-3
541.765	1	4
541.935	1	7
542.105	1	0
542.275	1	-3
542.445	1	-4
542.615	1	11
542.785	1	9
542.955	1	3
543.125	1	6
543.295	1	14
543.465	1	-3
543.635	1	-15
543.805	1	8
543.975	1	-2
544.145	1	3
544.315	1	-1
544.485	1	1
544.655	1	10
544.825	1	8
544.995	1	2
545.165	1	14
545.335	1	-5
545.505	1	-5
545.675	1	3
545.845	1	-9
546.015	1	3
546.185	1	2
546.355	1	-2
546.525	1	0
546.695	1	1
546.865	1	-9
547.035	1	2
547.205	1	4
547.375	1	4
547.545	1	4
547.715	1	4
547.885	1	9
548.055	1	9
548.225	1	-5
548.395	1	14
548.565	1	-2
548.735	1	5
548.905	1	4
549.075	1	10
549.245	1	3
549.415	1	4
549.585	1	6
549.755	1	5
549.925	1	2
550.095	1	1
550.265	1	-5
550.435	1	4
550.605	1	6
550.775	1	5
550.945	1	2
551.115	1	-8
551.285	1	-12
551.455	1	-5
551.625	1	-3
551.795	1	1
551.965	1	0
552.135	1	-13
552.305	1	2
552.475	1	15
552.645	1	16
552.815	1	6
552.985	1	-11
553.155	1	-4
553.325	1	1
553.495	1	-1
553.665	1	5
553.835	1	-4
554.004	1	-8
554.174	1	2
554.344	1	3
554.514	1	4
554.684	1	-6
554.854	1	-3
555.024	1	11
555.194	1	15
555.364	1	3
555.534	1	9
555.704	1	-5
555.874	1	9
556.044	1	6
556.214	1	-11
556.384	1	0
556.554	1	-1
556.724	1	-2
556.894	1	4
557.064	1	3
557.234	1	3
557.404	1	6
557.573	1	-4
557.743	1	2
557.913	1	-4
558.083	1	-8
558.253	1	-3
558.423	1	-8
558.593	1	2
558.763	1	-1
558.933	1	8
559.103	1	3
559.273	1	13
559.443	1	-2
559.613	1	-2
559.783	1	0
559.953	1	1
560.122	1	-5
560.292	1	3
560.462	1	-8
560.632	1	3
560.802	1	3
560.972	1	-1
561.142	1	2
561.312	1	1
561.482	1	11
561.652	1	4
561.822	1	-4
561.992	1	3
562.162	1	0
562.331	1	-2
562.501	1	0
562.671	1	8
562.841	1	11
563.011	1	-2
563.181	1	11
563.351	1	1
563.521	1	12
563.691	1	-3
563.861	1	14
564.031	1	-6
564.201	1	5
564.370	1	9
564.540	1	2
564.710	1	12
564.880	1	1
565.050	1	1
565.220	1	-1
565.390	1	-7
565.560	1	5
565.730	1	2
565.900	1	-8
566.069	1	9
566.239	1	-6
566.409	1	8
566.579	1	3
566.749	1	11
566.919	1	-4
567.089	1	7
567.259	1	1
567.429	1	1
567.599	1	-1
567.768	1	4
567.938	1	-12
568.108	1	5
568.278	1	-7
568.448	1	14
568.618	1	7
568.788	1	7
568.958	1	11
569.128	1	0
569.297	1	4
569.467	1	5
569.637	1	-5
569.807	1	7
569.977	1	8
570.147	1	-2
570.317	1	18
570.487	1	2
570.656	1	0
570.826	1	9
570.996	1	1
571.166	1	4
571.336	1	3
571.506	1	-4
571.676	1	6
571.846	1	-5
572.015	1	0
572.185	1	6
572.355	1	2
572.525	1	-1
572.695	1	-6
572.865	1	-4
573.035	1	4
573.205	1	-5
573.374	1	-3
573.544	1	-13
573.714	1	1
573.884	1	9
574.054	1	3
574.224	1	1
574.394	1	4
574.563	1	0
574.733	1	5
574.903	1	1
575.073	1	-1
575.243	1	2
575.413	1	4
575.583	1	1
575.752	1	-1
575.922	1	-2
576.092	1	-1
576.262	1	5
576.432	1	8
576.602	1	-5
576.772	1	-11
576.941	1	11
577.111	1	5
577.281	1	22
577.451	1	10
577.621	1	11
577.791	1	-9
577.960	1	5
578.130	1	-12
578.300	1	3
578.470	1	0
578.640	1	-5
578.810	1	-4
578.979	1	6
579.149	1	-5
579.319	1	-2
579.489	1	-5
579.659	1	4
579.829	1	3
579.998	1	-7
580.168	1	-1
580.338	1	10
580.508	1	2
580.678	1	-2
580.848	1	3
581.017	1	20
581.187	1	7
581.357	1	-14
581.527	1	-1
581.697	1	2
581.867	1	-10
582.036	1	2
582.206	1	0
582.376	1	-2
582.546	1	5
582.716	1	-5
582.885	1	2
583.055	1	9
583.225	1	-5
583.395	1	4
583.565	1	14
583.735	1	-6
583.904	1	-4
584.074	1	4
584.244	1	3
584.414	1	10
584.584	1	-1
584.753	1	5
584.923	1	1
585.093	1	3
585.263	1	1
585.433	1	-7
585.602	1	1
585.772	1	3
585.942	1	-13
586.112	1	10
586.282	1	-4
586.451	1	-12
586.621	1	7
586.791	1	-2
586.961	1	-6
587.131	1	11
587.300	1	-8
587.470	1	3
587.640	1	0
587.810	1	10
587.980	1	5
588.149	1	5
588.319	1	9
588.489	1	9
588.659	1	-4
588.829	1	-4
588.998	1	-4
589.168	1	7
589.338	1	6
589.508	1	2
589.677	1	1
589.847	1	-1
590.017	1	1
590.187	1	-2
590.357	1	-2
590.526	1	11
590.696	1	7
590.866	1	15
591.036	1	3
591.205	1	-9
591.375	1	-2
591.545	1	0
591.715	1	1
591.885	1	1
592.054	1	8
592.224	1	-5
592.394	1	6
592.564	1	-5
592.733	1	7
592.903	1	-1
593.073	1	1
593.243	1	1
593.412	1	-5
593.582	1	10
593.752	1	5
593.922	1	-2
594.091	1	12
594.261	1	6
594.431	1	4
594.601	1	2
594.771	1	-1
594.940	1	14
595.110	1	-1
595.280	1	-4
595.450	1	3
595.619	1	-1
595.789	1	-2
595.959	1	-2
596.129	1	13
596.298	1	13
596.468	1	2
596.638	1	12
596.808	1	11
596.977	1	6
597.147	1	-3
597.317	1	-1
597.487	1	0
597.656	1	-2
597.826	1	-3
597.996	1	7
598.166	1	0
598.335	1	12
598.505	1	10
598.675	1	-7
598.844	1	-4
599.014	1	-4
599.184	1	19
599.354	1	3
599.523	1	10
599.693	1	12
599.863	1	10
600.033	1	-6
600.202	1	-2
600.372	1	-10
600.542	1	-4
600.712	1	5
600.881	1	3
601.051	1	-4
601.221	1	2
601.390	1	2
601.560	1	-5
601.730	1	-3
601.900	1	10
602.069	1	6
602.239	1	-8
602.409	1	5
602.578	1	-3
602.748	1	-2
602.918	1	-1
603.088	1	10
603.257	1	13
603.427	1	1
603.597	1	5
603.767	1	-2
603.936	1	10
604.106	1	7
604.276	1	-6
604.445	1	2
604.615	1	-3
604.785	1	11
604.954	1	17
605.124	1	-2
605.294	1	3
605.464	1	1
605.633	1	7
605.803	1	-6
605.973	1	2
606.142	1	-2
606.312	1	3
606.482	1	-7
606.652	1	15
606.821	1	2
606.991	1	5
607.161	1	20
607.330	1	-9
607.500	1	5
607.670	1	-10
607.839	1	8
608.009	1	-3
608.179	1	-4
608.348	1	19
608.518	1	1
608.688	1	10
608.858	1	-1
609.027	1	4
609.197	1	-1
609.367	1	-5
609.536	1	-4
609.706	1	-3
609.876	1	5
610.045	1	3
610.215	1	5
610.385	1	10
610.554	1	9
610.724	1	11
610.894	1	3
611.063	1	-11
611.233	1	10
611.403	1	-3
611.572	1	8
611.742	1	-2
611.912	1	5
612.081	1	6
612.251	1	14
612.421	1	9
612.590	1	-1
612.760	1	3
612.930	1	0
613.099	1	7
613.269	1	7
613.439	1	0
613.608	1	13
613.778	1	-2
613.948	1	2
614.117	1	3
614.287	1	-1
614.457	1	2
614.626	1	-4
614.796	1	5
614.966	1	-4
615.135	1	-3
615.305	1	2
615.475	1	6
615.644	1	8
615.814	1	-4
615.984	1	1
616.153	1	5
616.323	1	3
616.493	1	7
616.662	1	8
616.832	1	0
617.002	1	5
617.171	1	-7
617.341	1	5
617.511	1	6
617.680	1	4
617.850	1	-3
618.019	1	8
618.189	1	-2
618.359	1	6
618.528	1	5
618.698	1	6
618.868	1	1
619.037	1	0
619.207	1	3
619.377	1	7
619.546	1	3
619.716	1	3
619.885	1	20
620.055	1	8
620.225	1	2
620.394	1	4
620.564	1	3
620.734	1	-2
620.903	1	1
621.073	1	5
621.242	1	-3
621.412	1	-2
621.582	1	-3
621.751	1	-3
621.921	1	2
622.091	1	1
622.260	1	-1
622.430	1	9
622.599	1	5
622.769	1	3
622.939	1	3
623.108	1	8
623.278	1	8
623.448	1	-2
623.617	1	2
623.787	1	4
623.956	1	-9
624.126	1	10
624.296	1	9
624.465	1	12
624.635	1	7
624.804	1	4
624.974	1	2
625.144	1	6
625.313	1	-1
625.483	1	-3
625.652	1	-4
625.822	1	2
625.992	1	-3
626.161	1	-3
626.331	1	9
626.501	1	17
626.670	1	1
626.840	1	-3
627.009	1	-5
627.179	1	1
627.348	1	4
627.518	1	21
627.688	1	0
627.857	1	-4
628.027	1	11
628.196	1	5
628.366	1	10
628.536	1	-10
628.705	1	3
628.875	1	0
629.044	1	0
629.214	1	7
629.384	1	11
629.553	1	1
629.723	1	1
629.892	1	3
630.062	1	13
630.232	1	-6
630.401	1	-11
630.571	1	-6
630.740	1	3
630.910	1	9
631.079	1	-2
631.249	1	-1
631.419	1	4
631.588	1	-10
631.758	1	-6
631.927	1	-6
632.097	1	10
632.266	1	8
632.436	1	-5
632.606	1	7
632.775	1	9
632.945	1	-5
633.114	1	-4
633.284	1	-4
633.453	1	-2
633.623	1	2
633.793	1	3
633.962	1	-10
634.132	1	8
634.301	1	1
634.471	1	13
634.640	1	1
634.810	1	18
634.979	1	8
635.149	1	5
635.319	1	-1
635.488	1	4
635.658	1	-10
635.827	1	11
635.997	1	3
636.166	1	8
636.336	1	2
636.505	1	13
636.675	1	3
636.845	1	3
637.014	1	5
637.184	1	-5
637.353	1	6
637.523	1	-1
637.692	1	1
637.862	1	-3
638.031	1	8
638.201	1	19
638.370	1	2
638.540	1	5
638.710	1	2
638.879	1	-3
639.049	1	3
639.218	1	-10
639.388	1	10
639.557	1	-3
639.727	1	-1
639.896	1	5
640.066	1	-1
640.235	1	8
640.405	1	12
640.574	1	11
640.744	1	10
640.914	1	8
641.083	1	-10
641.253	1	2
641.422	1	4
641.592	1	2
641.761	1	11
641.931	1	-9
642.100	1	16
642.270	1	-1
642.439	1	-3
642.609	1	-8
642.778	1	6
642.948	1	8
643.117	1	10
643.287	1	-6
643.456	1	3
643.626	1	3
643.795	1	8
643.965	1	-4
644.134	1	-6
644.304	1	8
644.473	1	-6
644.643	1	-2
644.812	1	3
644.982	1	2
645.151	1	9
645.321	1	5
645.490	1	9
645.660	1	0
645.829	1	-2
645.999	1	4
646.168	1	12
646.338	1	-5
646.507	1	-5
646.677	1	14
646.846	1	14
647.016	1	1
647.185	1	-2
647.355	1	-1
647.524	1	-8
647.694	1	-1
647.863	1	1
648.033	1	4
648.202	1	4
648.372	1	3
648.541	1	7
648.711	1	7
648.880	1	11
649.050	1	18
649.219	1	0
649.389	1	12
649.558	1	0
649.728	1	5
649.897	1	2
650.067	1	-6
650.236	1	5
650.406	1	-8
650.575	1	10
650.745	1	13
650.914	1	14
651.084	1	-5
651.253	1	-3
651.423	1	-2
651.592	1	6
651.762	1	-4
651.931	1	6
652.101	1	-1
652.270	1	4
652.440	1	6
652.609	1	9
652.778	1	6
652.948	1	-4
653.117	1	18
653.287	1	0
653.456	1	7
653.626	1	4
653.795	1	7
653.965	1	6
654.134	1	3
654.304	1	15
654.473	1	5
654.643	1	13
654.812	1	7
654.982	1	4
655.151	1	16
655.320	1	-1
655.490	1	-13
655.659	1	4
655.829	1	-5
655.998	1	-3
656.168	1	0
656.337	1	0
656.507	1	-6
656.676	1	-2
656.846	1	-4
657.015	1	14
657.184	1	0
657.354	1	3
657.523	1	2
657.693	1	5
657.862	1	2
658.032	1	-3
658.201	1	1
658.371	1	1
658.540	1	22
658.709	1	9
658.879	1	-12
659.048	1	4
659.218	1	7
659.387	1	-1
659.557	1	-1
659.726	1	10
659.895	1	3
660.065	1	5
660.234	1	10
660.404	1	19
660.573	1	11
660.743	1	6
660.912	1	14
661.081	1	-2
661.251	1	-1
661.420	1	4
661.590	1	-3
661.759	1	7
661.929	1	15
662.098	1	14
662.267	1	7
662.437	1	15
662.606	1	3
662.776	1	0
662.945	1	2
663.115	1	-1
663.284	1	4
663.453	1	-2
663.623	1	6
663.792	1	-4
663.962	1	0
664.131	1	5
664.300	1	8
664.470	1	-1
664.639	1	-11
664.809	1	-7
664.978	1	14
665.148	1	9
665.317	1	0
665.486	1	0
665.656	1	0
665.825	1	5
665.995	1	1
666.164	1	9
666.333	1	4
666.503	1	20
666.672	1	3
666.842	1	-2
667.011	1	-3
667.180	1	4
667.350	1	7
667.519	1	0
667.689	1	15
667.858	1	19
668.027	1	-1
668.197	1	13
668.366	1	11
668.536	1	-4
668.705	1	9
668.874	1	5
669.044	1	-1
669.213	1	5
669.382	1	14
669.552	1	-3
669.721	1	-2
669.891	1	-7
670.060	1	0
670.229	1	5
670.399	1	3
670.568	1	22
670.738	1	-4
670.907	1	8
671.076	1	6
671.246	1	0
671.415	1	6
671.584	1	3
671.754	1	5
671.923	1	0
672.093	1	11
672.262	1	13
672.431	1	17
672.601	1	-7
672.770	1	-2
672.939	1	12
673.109	1	11
673.278	1	17
673.448	1	1
673.617	1	-2
673.786	1	1
