325.333	1	6
325.504	1	8
325.675	1	7
325.846	1	2
326.017	1	2
326.188	1	7
326.359	1	6
326.531	1	1
326.702	1	1
326.873	1	7
327.044	1	-3
327.215	1	0
327.386	1	-6
327.557	1	13
327.728	1	0
327.899	1	2
328.070	1	5
328.241	1	15
328.412	1	-4
328.583	1	5
328.754	1	-5
328.926	1	4
329.097	1	10
329.268	1	3
329.439	1	4
329.610	1	12
329.781	1	16
329.952	1	11
330.123	1	5
330.294	1	5
330.465	1	13
330.636	1	9
330.807	1	6
330.978	1	8
331.149	1	12
331.320	1	4
331.492	1	15
331.663	1	8
331.834	1	3
332.005	1	-5
332.176	1	11
332.347	1	15
332.518	1	3
332.689	1	11
332.860	1	0
333.031	1	11
333.202	1	12
333.373	1	9
333.544	1	3
333.715	1	2
333.886	1	13
334.057	1	8
334.228	1	6
334.399	1	9
334.570	1	10
334.741	1	13
334.912	1	10
335.084	1	6
335.255	1	10
335.426	1	0
335.597	1	1
335.768	1	3
335.939	1	3
336.110	1	10
336.281	1	15
336.452	1	14
336.623	1	11
336.794	1	3
336.965	1	12
337.136	1	6
337.307	1	7
337.478	1	6
337.649	1	9
337.820	1	5
337.991	1	15
338.162	1	12
338.333	1	7
338.504	1	3
338.675	1	7
338.846	1	5
339.017	1	10
339.188	1	7
339.359	1	6
339.530	1	0
339.701	1	10
339.872	1	11
340.043	1	13
340.214	1	14
340.385	1	9
340.556	1	11
340.727	1	11
340.898	1	5
341.069	1	15
341.240	1	20
341.411	1	15
341.582	1	7
341.753	1	4
341.924	1	10
342.095	1	8
342.266	1	2
342.437	1	6
342.608	1	-4
342.779	1	3
342.950	1	23
343.121	1	13
343.292	1	6
343.463	1	9
343.634	1	16
343.805	1	11
343.976	1	14
344.147	1	11
344.318	1	17
344.489	1	5
344.660	1	13
344.831	1	8
345.002	1	11
345.173	1	20
345.344	1	-1
345.515	1	13
345.686	1	7
345.857	1	13
346.028	1	15
346.199	1	12
346.370	1	6
346.541	1	23
346.712	1	-4
346.883	1	14
347.054	1	2
347.225	1	5
347.396	1	10
347.567	1	13
347.738	1	10
347.909	1	6
348.080	1	4
348.251	1	6
348.422	1	17
348.593	1	10
348.764	1	4
348.935	1	12
349.106	1	17
349.277	1	18
349.448	1	2
349.619	1	12
349.790	1	13
349.961	1	9
350.132	1	20
350.303	1	15
350.474	1	16
350.645	1	6
350.816	1	24
350.987	1	12
351.157	1	5
351.328	1	15
351.499	1	14
351.670	1	15
351.841	1	5
352.012	1	13
352.183	1	2
352.354	1	16
352.525	1	1
352.696	1	7
352.867	1	3
353.038	1	10
353.209	1	18
353.380	1	18
353.551	1	21
353.722	1	14
353.893	1	12
354.064	1	18
354.235	1	9
354.406	1	12
354.576	1	12
354.747	1	13
354.918	1	15
355.089	1	9
355.260	1	15
355.431	1	15
355.602	1	12
355.773	1	17
355.944	1	4
356.115	1	2
356.286	1	10
356.457	1	15
356.628	1	18
356.799	1	5
356.970	1	7
357.141	1	24
357.311	1	26
357.482	1	18
357.653	1	9
357.824	1	26
357.995	1	15
358.166	1	13
358.337	1	4
358.508	1	14
358.679	1	10
358.850	1	8
359.021	1	21
359.192	1	13
359.363	1	16
359.533	1	12
359.704	1	15
359.875	1	30
360.046	1	11
360.217	1	15
360.388	1	8
360.559	1	17
360.730	1	15
360.901	1	17
361.072	1	8
361.243	1	13
361.414	1	14
361.584	1	15
361.755	1	18
361.926	1	7
362.097	1	14
362.268	1	12
362.439	1	10
362.610	1	13
362.781	1	10
362.952	1	20
363.123	1	24
363.293	1	4
363.464	1	19
363.635	1	25
363.806	1	15
363.977	1	16
364.148	1	7
364.319	1	22
364.490	1	18
364.661	1	18
364.832	1	18
365.002	1	22
365.173	1	24
365.344	1	14
365.515	1	19
365.686	1	15
365.857	1	17
366.028	1	10
366.199	1	20
366.370	1	23
366.540	1	15
366.711	1	16
366.882	1	16
367.053	1	18
367.224	1	11
367.395	1	19
367.566	1	18
367.737	1	14
367.908	1	13
368.078	1	27
368.249	1	16
368.420	1	17
368.591	1	26
368.762	1	12
368.933	1	16
369.104	1	17
369.274	1	16
369.445	1	13
369.616	1	26
369.787	1	20
369.958	1	24
370.129	1	13
370.300	1	19
370.471	1	18
370.641	1	14
370.812	1	17
370.983	1	13
371.154	1	22
371.325	1	23
371.496	1	19
371.667	1	32
371.837	1	17
372.008	1	20
372.179	1	19
372.350	1	21
372.521	1	10
372.692	1	14
372.863	1	13
373.033	1	28
373.204	1	24
373.375	1	15
373.546	1	32
373.717	1	6
373.888	1	17
374.059	1	16
374.229	1	22
374.400	1	14
374.571	1	22
374.742	1	22
374.913	1	4
375.084	1	19
375.254	1	27
375.425	1	9
375.596	1	12
375.767	1	17
375.938	1	17
376.109	1	20
376.279	1	7
376.450	1	15
376.621	1	22
376.792	1	14
376.963	1	17
377.134	1	26
377.304	1	20
377.475	1	16
377.646	1	15
377.817	1	12
377.988	1	14
378.159	1	15
378.329	1	18
378.500	1	19
378.671	1	24
378.842	1	18
379.013	1	20
379.184	1	23
379.354	1	15
379.525	1	21
379.696	1	14
379.867	1	22
380.038	1	20
380.209	1	21
380.379	1	13
380.550	1	26
380.721	1	29
380.892	1	24
381.063	1	15
381.233	1	5
381.404	1	28
381.575	1	22
381.746	1	28
381.917	1	20
382.087	1	13
382.258	1	16
382.429	1	19
382.600	1	15
382.771	1	25
382.941	1	17
383.112	1	24
383.283	1	28
383.454	1	20
383.625	1	14
383.795	1	18
383.966	1	20
384.137	1	31
384.308	1	28
384.479	1	22
384.649	1	33
384.820	1	12
384.991	1	13
385.162	1	30
385.333	1	17
385.503	1	16
385.674	1	32
385.845	1	23
386.016	1	17
386.187	1	21
386.357	1	27
386.528	1	15
386.699	1	20
386.870	1	25
387.041	1	24
387.211	1	19
387.382	1	17
387.553	1	23
387.724	1	12
387.894	1	23
388.065	1	17
388.236	1	18
388.407	1	17
388.578	1	16
388.748	1	22
388.919	1	36
389.090	1	22
389.261	1	22
389.431	1	39
389.602	1	15
389.773	1	25
389.944	1	19
390.114	1	28
390.285	1	11
390.456	1	11
390.627	1	19
390.798	1	28
390.968	1	18
391.139	1	12
391.310	1	32
391.481	1	14
391.651	1	18
391.822	1	19
391.993	1	27
392.164	1	9
392.334	1	23
392.505	1	10
392.676	1	34
392.847	1	20
393.017	1	38
393.188	1	22
393.359	1	23
393.530	1	29
393.700	1	27
393.871	1	23
394.042	1	10
394.213	1	28
394.383	1	25
394.554	1	18
394.725	1	26
394.896	1	18
395.066	1	33
395.237	1	16
395.408	1	22
395.579	1	28
395.749	1	31
395.920	1	19
396.091	1	16
396.262	1	29
396.432	1	11
396.603	1	13
396.774	1	19
396.945	1	23
397.115	1	27
397.286	1	24
397.457	1	31
397.627	1	24
397.798	1	22
397.969	1	12
398.140	1	24
398.310	1	30
398.481	1	19
398.652	1	30
398.823	1	29
398.993	1	21
399.164	1	28
399.335	1	25
399.505	1	19
399.676	1	27
399.847	1	12
400.018	1	12
400.188	1	18
400.359	1	22
400.530	1	27
400.700	1	18
400.871	1	24
401.042	1	20
401.213	1	15
401.383	1	18
401.554	1	16
401.725	1	36
401.895	1	27
402.066	1	10
402.237	1	40
402.408	1	31
402.578	1	21
402.749	1	25
402.920	1	21
403.090	1	20
403.261	1	31
403.432	1	24
403.603	1	26
403.773	1	29
403.944	1	28
404.115	1	38
404.285	1	16
404.456	1	34
404.627	1	30
404.797	1	15
404.968	1	40
405.139	1	31
405.310	1	23
405.480	1	27
405.651	1	32
405.822	1	27
405.992	1	23
406.163	1	27
406.334	1	12
406.504	1	21
406.675	1	18
406.846	1	20
407.016	1	17
407.187	1	31
407.358	1	15
407.528	1	21
407.699	1	27
407.870	1	27
408.041	1	30
408.211	1	11
408.382	1	43
408.553	1	12
408.723	1	24
408.894	1	34
409.065	1	30
409.235	1	27
409.406	1	29
409.577	1	25
409.747	1	24
409.918	1	20
410.089	1	22
410.259	1	40
410.430	1	20
410.601	1	18
410.771	1	32
410.942	1	23
411.113	1	16
411.283	1	23
411.454	1	26
411.625	1	27
411.795	1	24
411.966	1	43
412.137	1	26
412.307	1	28
412.478	1	41
412.649	1	30
412.819	1	21
412.990	1	28
413.161	1	37
413.331	1	18
413.502	1	38
413.672	1	32
413.843	1	35
414.014	1	34
414.184	1	32
414.355	1	43
414.526	1	43
414.696	1	36
414.867	1	34
415.038	1	18
415.208	1	32
415.379	1	33
415.550	1	37
415.720	1	16
415.891	1	34
416.062	1	27
416.232	1	28
416.403	1	35
416.573	1	34
416.744	1	28
416.915	1	34
417.085	1	38
417.256	1	30
417.427	1	33
417.597	1	17
417.768	1	26
417.939	1	33
418.109	1	23
418.280	1	28
418.450	1	29
418.621	1	22
418.792	1	21
418.962	1	27
419.133	1	20
419.304	1	26
419.474	1	22
419.645	1	34
419.815	1	28
419.986	1	22
420.157	1	23
420.327	1	30
420.498	1	25
420.669	1	37
420.839	1	20
421.010	1	25
421.180	1	31
421.351	1	27
421.522	1	16
421.692	1	34
421.863	1	26
422.033	1	28
422.204	1	32
422.375	1	27
422.545	1	21
422.716	1	31
422.886	1	33
423.057	1	13
423.228	1	27
423.398	1	28
423.569	1	22
423.740	1	24
423.910	1	17
424.081	1	26
424.251	1	25
424.422	1	28
424.593	1	22
424.763	1	29
424.934	1	18
425.104	1	25
425.275	1	20
425.445	1	34
425.616	1	20
425.787	1	15
425.957	1	33
426.128	1	13
426.298	1	17
426.469	1	23
426.640	1	29
426.810	1	15
426.981	1	25
427.151	1	25
427.322	1	20
427.493	1	21
427.663	1	26
427.834	1	16
428.004	1	18
428.175	1	24
428.345	1	16
428.516	1	31
428.687	1	28
428.857	1	17
429.028	1	22
429.198	1	31
429.369	1	7
429.540	1	16
429.710	1	22
429.881	1	16
430.051	1	24
430.222	1	9
430.392	1	27
430.563	1	22
430.734	1	17
430.904	1	20
431.075	1	30
431.245	1	22
431.416	1	20
431.586	1	26
431.757	1	13
431.927	1	14
432.098	1	15
432.269	1	22
432.439	1	35
432.610	1	27
432.780	1	21
432.951	1	14
433.121	1	18
433.292	1	21
433.462	1	13
433.633	1	21
433.804	1	28
433.974	1	17
434.145	1	16
434.315	1	23
434.486	1	27
434.656	1	29
434.827	1	10
434.997	1	22
435.168	1	24
435.339	1	9
435.509	1	32
435.680	1	21
435.850	1	17
436.021	1	30
436.191	1	24
436.362	1	18
436.532	1	36
436.703	1	16
436.873	1	25
437.044	1	23
437.214	1	24
437.385	1	27
437.556	1	25
437.726	1	24
437.897	1	22
438.067	1	15
438.238	1	23
438.408	1	14
438.579	1	22
438.749	1	39
438.920	1	25
439.090	1	24
439.261	1	32
439.431	1	23
439.602	1	16
439.772	1	30
439.943	1	16
440.113	1	16
440.284	1	14
440.455	1	19
440.625	1	26
440.796	1	23
440.966	1	24
441.137	1	15
441.307	1	21
441.478	1	22
441.648	1	20
441.819	1	26
441.989	1	17
442.160	1	5
442.330	1	18
442.501	1	22
442.671	1	25
442.842	1	11
443.012	1	31
443.183	1	13
443.353	1	21
443.524	1	15
443.694	1	18
443.865	1	17
444.035	1	11
444.206	1	24
444.376	1	19
444.547	1	22
444.717	1	17
444.888	1	22
445.058	1	29
445.229	1	23
445.399	1	28
445.570	1	28
445.740	1	11
445.911	1	6
446.081	1	20
446.252	1	20
446.422	1	16
446.593	1	10
446.763	1	33
446.934	1	10
447.104	1	15
447.275	1	13
447.445	1	18
447.616	1	17
447.786	1	22
447.957	1	22
448.127	1	16
448.298	1	8
448.468	1	17
448.639	1	15
448.809	1	26
448.979	1	8
449.150	1	13
449.320	1	23
449.491	1	8
449.661	1	23
449.832	1	15
450.002	1	11
450.173	1	20
450.343	1	32
450.514	1	24
450.684	1	20
450.855	1	27
451.025	1	18
451.196	1	11
451.366	1	19
451.537	1	25
451.707	1	20
451.878	1	16
452.048	1	18
452.218	1	16
452.389	1	19
452.559	1	18
452.730	1	22
452.900	1	16
453.071	1	10
453.241	1	11
453.412	1	14
453.582	1	11
453.753	1	11
453.923	1	28
454.093	1	16
454.264	1	12
454.434	1	26
454.605	1	23
454.775	1	11
454.946	1	10
455.116	1	16
455.287	1	21
455.457	1	27
455.628	1	15
455.798	1	13
455.968	1	21
456.139	1	19
456.309	1	31
456.480	1	12
456.650	1	6
456.821	1	12
456.991	1	12
457.161	1	19
457.332	1	24
457.502	1	22
457.673	1	21
457.843	1	7
458.014	1	20
458.184	1	18
458.355	1	11
458.525	1	17
458.695	1	23
458.866	1	23
459.036	1	19
459.207	1	19
459.377	1	20
459.548	1	18
459.718	1	5
459.888	1	14
460.059	1	27
460.229	1	14
460.400	1	9
460.570	1	20
460.740	1	20
460.911	1	14
461.081	1	10
461.252	1	16
461.422	1	14
461.593	1	21
461.763	1	20
461.933	1	15
462.104	1	19
462.274	1	13
462.445	1	12
462.615	1	25
462.785	1	18
462.956	1	22
463.126	1	17
463.297	1	28
463.467	1	20
463.638	1	14
463.808	1	13
463.978	1	8
464.149	1	18
464.319	1	8
464.490	1	17
464.660	1	25
464.830	1	23
465.001	1	12
465.171	1	15
465.342	1	12
465.512	1	18
465.682	1	23
465.853	1	11
466.023	1	27
466.194	1	2
466.364	1	23
466.534	1	7
466.705	1	18
466.875	1	23
467.045	1	22
467.216	1	15
467.386	1	9
467.557	1	16
467.727	1	21
467.897	1	25
468.068	1	12
468.238	1	13
468.409	1	15
468.579	1	23
468.749	1	18
468.920	1	15
469.090	1	14
469.260	1	23
469.431	1	4
469.601	1	15
469.772	1	14
469.942	1	13
470.112	1	14
470.283	1	17
470.453	1	19
470.623	1	16
470.794	1	8
470.964	1	23
471.135	1	15
471.305	1	14
471.475	1	20
471.646	1	22
471.816	1	18
471.986	1	10
472.157	1	7
472.327	1	15
472.497	1	21
472.668	1	19
472.838	1	14
473.009	1	11
473.179	1	21
473.349	1	6
473.520	1	10
473.690	1	15
473.860	1	14
474.031	1	8
474.201	1	24
474.371	1	26
474.542	1	19
474.712	1	14
474.882	1	16
475.053	1	13
475.223	1	8
475.394	1	4
475.564	1	18
475.734	1	6
475.905	1	11
476.075	1	15
476.245	1	24
476.416	1	14
476.586	1	13
476.756	1	10
476.927	1	14
477.097	1	14
477.267	1	16
477.438	1	8
477.608	1	12
477.778	1	18
477.949	1	28
478.119	1	3
478.289	1	15
478.460	1	15
478.630	1	21
478.800	1	13
478.971	1	9
479.141	1	12
479.311	1	6
479.482	1	-5
479.652	1	22
479.822	1	6
479.993	1	28
480.163	1	25
480.333	1	26
480.504	1	11
480.674	1	3
480.844	1	7
481.015	1	10
481.185	1	18
481.355	1	9
481.525	1	-2
481.696	1	12
481.866	1	15
482.036	1	4
482.207	1	7
482.377	1	11
482.547	1	4
482.718	1	2
482.888	1	6
483.058	1	16
483.229	1	12
483.399	1	4
483.569	1	8
483.740	1	14
483.910	1	18
484.080	1	28
484.250	1	4
484.421	1	9
484.591	1	11
484.761	1	8
484.932	1	22
485.102	1	-3
485.272	1	4
485.443	1	19
485.613	1	8
485.783	1	13
485.953	1	-3
486.124	1	19
486.294	1	11
486.464	1	8
486.635	1	2
486.805	1	21
486.975	1	0
487.146	1	9
487.316	1	8
487.486	1	9
487.656	1	19
487.827	1	12
487.997	1	9
488.167	1	15
488.338	1	13
488.508	1	13
488.678	1	18
488.848	1	9
489.019	1	13
489.189	1	10
489.359	1	5
489.529	1	2
489.700	1	9
489.870	1	8
490.040	1	0
490.211	1	1
490.381	1	18
490.551	1	8
490.721	1	11
490.892	1	21
491.062	1	10
491.232	1	11
491.402	1	5
491.573	1	15
491.743	1	4
491.913	1	7
492.084	1	12
492.254	1	23
492.424	1	0
492.594	1	1
492.765	1	17
492.935	1	10
493.105	1	4
493.275	1	12
493.446	1	8
493.616	1	3
493.786	1	14
493.956	1	9
494.127	1	8
494.297	1	18
494.467	1	8
494.637	1	13
494.808	1	7
494.978	1	-1
495.148	1	17
495.318	1	8
495.489	1	17
495.659	1	13
495.829	1	10
495.999	1	4
496.170	1	0
496.340	1	0
496.510	1	16
496.680	1	8
496.851	1	11
497.021	1	20
497.191	1	16
497.361	1	11
497.532	1	12
497.702	1	15
497.872	1	3
498.042	1	12
498.213	1	8
498.383	1	6
498.553	1	13
498.723	1	7
498.894	1	21
499.064	1	2
499.234	1	18
499.404	1	14
499.574	1	2
499.745	1	6
499.915	1	-1
500.085	1	-3
500.255	1	2
500.426	1	14
500.596	1	16
500.766	1	7
500.936	1	15
501.106	1	10
501.277	1	13
501.447	1	-5
501.617	1	8
501.787	1	18
501.958	1	2
502.128	1	7
502.298	1	15
502.468	1	9
502.638	1	25
502.809	1	18
502.979	1	12
503.149	1	16
503.319	1	7
503.489	1	12
503.660	1	7
503.830	1	-1
504.000	1	9
504.170	1	5
504.340	1	5
504.511	1	17
504.681	1	3
504.851	1	18
505.021	1	8
505.192	1	11
505.362	1	10
505.532	1	13
505.702	1	6
505.872	1	11
506.043	1	-14
506.213	1	2
506.383	1	-7
506.553	1	19
506.723	1	9
506.893	1	17
507.064	1	8
507.234	1	3
507.404	1	11
507.574	1	10
507.744	1	-3
507.915	1	6
508.085	1	2
508.255	1	7
508.425	1	-4
508.595	1	3
508.766	1	20
508.936	1	10
509.106	1	8
509.276	1	12
509.446	1	-8
509.616	1	23
509.787	1	1
509.957	1	13
510.127	1	12
510.297	1	20
510.467	1	12
510.638	1	3
510.808	1	-2
510.978	1	10
511.148	1	2
511.318	1	17
511.488	1	3
511.659	1	-7
511.829	1	0
511.999	1	7
512.169	1	4
512.339	1	11
512.509	1	8
512.680	1	13
512.850	1	10
513.020	1	10
513.190	1	0
513.360	1	6
513.530	1	10
513.700	1	9
513.871	1	12
514.041	1	13
514.211	1	14
514.381	1	2
514.551	1	3
514.721	1	10
514.892	1	7
515.062	1	14
515.232	1	-1
515.402	1	5
515.572	1	10
515.742	1	11
515.912	1	19
516.083	1	5
516.253	1	-9
516.423	1	6
516.593	1	9
516.763	1	12
516.933	1	0
517.104	1	-2
517.274	1	10
517.444	1	-1
517.614	1	1
517.784	1	5
517.954	1	9
518.124	1	-7
518.294	1	2
518.465	1	12
518.635	1	2
518.805	1	-3
518.975	1	9
519.145	1	12
519.315	1	18
519.485	1	2
519.656	1	17
519.826	1	15
519.996	1	6
520.166	1	6
520.336	1	23
520.506	1	11
520.676	1	1
520.846	1	10
521.017	1	-2
521.187	1	0
521.357	1	1
521.527	1	-1
521.697	1	4
521.867	1	3
522.037	1	8
522.207	1	13
522.377	1	11
522.548	1	17
522.718	1	10
522.888	1	-7
523.058	1	-6
523.228	1	8
523.398	1	-1
523.568	1	8
523.738	1	7
523.909	1	15
524.079	1	9
524.249	1	0
524.419	1	7
524.589	1	10
524.759	1	8
524.929	1	6
525.099	1	20
525.269	1	8
525.439	1	4
525.610	1	16
525.780	1	3
525.950	1	3
526.120	1	-2
526.290	1	14
526.460	1	7
526.630	1	5
526.800	1	0
526.970	1	12
527.140	1	9
527.311	1	1
527.481	1	0
527.651	1	3
527.821	1	-1
527.991	1	16
528.161	1	0
528.331	1	-1
528.501	1	11
528.671	1	14
528.841	1	13
529.011	1	6
529.181	1	12
529.352	1	2
529.522	1	-9
529.692	1	5
529.862	1	4
530.032	1	0
530.202	1	15
530.372	1	8
530.542	1	3
530.712	1	-4
530.882	1	1
531.052	1	11
531.222	1	-1
531.392	1	-2
531.563	1	0
531.733	1	13
531.903	1	6
532.073	1	2
532.243	1	14
532.413	1	19
532.583	1	-8
532.753	1	2
532.923	1	11
533.093	1	-5
533.263	1	3
533.433	1	3
533.603	1	1
533.773	1	-2
533.943	1	12
534.113	1	7
534.284	1	10
534.454	1	3
534.624	1	9
534.794	1	3
534.964	1	18
535.134	1	8
535.304	1	4
535.474	1	-5
535.644	1	15
535.814	1	-3
535.984	1	1
536.154	1	2
536.324	1	-1
536.494	1	5
536.664	1	-2
536.834	1	12
537.004	1	-4
537.174	1	5
537.344	1	10
537.514	1	5
537.685	1	6
537.855	1	7
538.025	1	6
538.195	1	10
538.365	1	8
538.535	1	8
538.705	1	3
538.875	1	9
539.045	1	8
539.215	1	12
539.385	1	-2
539.555	1	2
539.725	1	6
539.895	1	11
540.065	1	6
540.235	1	-1
540.405	1	10
540.575	1	10
540.745	1	1
540.915	1	3
541.085	1	8
541.255	1	8
541.425	1	5
541.595	1	-11
541.765	1	2
541.935	1	7
542.105	1	-1
542.275	1	8
542.445	1	0
542.615	1	15
542.785	1	4
542.955	1	4
543.125	1	-2
543.295	1	12
543.465	1	6
543.635	1	1
543.805	1	2
543.975	1	-2
544.145	1	5
544.315	1	0
544.485	1	5
544.655	1	14
544.825	1	6
544.995	1	9
545.165	1	7
545.335	1	-8
545.505	1	1
545.675	1	8
545.845	1	-14
546.015	1	3
546.185	1	-8
546.355	1	-5
546.525	1	1
546.695	1	13
546.865	1	2
547.035	1	8
547.205	1	4
547.375	1	14
547.545	1	5
547.715	1	16
547.885	1	6
548.055	1	6
548.225	1	2
548.395	1	12
548.565	1	-3
548.735	1	6
548.905	1	-6
549.075	1	7
549.245	1	12
549.415	1	6
549.585	1	7
549.755	1	4
549.925	1	-2
550.095	1	-9
550.265	1	-5
550.435	1	6
550.605	1	2
550.775	1	5
550.945	1	0
551.115	1	-1
551.285	1	-5
551.455	1	1
551.625	1	6
551.795	1	0
551.965	1	2
552.135	1	-7
552.305	1	10
552.475	1	11
552.645	1	11
552.815	1	8
552.985	1	-5
553.155	1	-2
553.325	1	0
553.495	1	6
553.665	1	11
553.835	1	-7
554.004	1	-5
554.174	1	-5
554.344	1	10
554.514	1	11
554.684	1	0
554.854	1	-5
555.024	1	10
555.194	1	9
555.364	1	6
555.534	1	10
555.704	1	-4
555.874	1	5
556.044	1	4
556.214	1	-6
556.384	1	7
556.554	1	-2
556.724	1	-2
556.894	1	0
557.064	1	10
557.234	1	3
557.404	1	3
557.573	1	8
557.743	1	4
557.913	1	-3
558.083	1	-2
558.253	1	-2
558.423	1	7
558.593	1	-2
558.763	1	6
558.933	1	0
559.103	1	1
559.273	1	-4
559.443	1	6
559.613	1	-4
559.783	1	11
559.953	1	0
560.122	1	-8
560.292	1	5
560.462	1	-1
560.632	1	1
560.802	1	1
560.972	1	11
561.142	1	8
561.312	1	4
561.482	1	-2
561.652	1	7
561.822	1	-6
561.992	1	-2
562.162	1	0
562.331	1	-10
562.501	1	-2
562.671	1	6
562.841	1	16
563.011	1	15
563.181	1	11
563.351	1	-1
563.521	1	-6
563.691	1	-3
563.861	1	7
564.031	1	-2
564.201	1	0
564.370	1	10
564.540	1	5
564.710	1	9
564.880	1	-1
565.050	1	2
565.220	1	3
565.390	1	9
565.560	1	5
565.730	1	3
565.900	1	0
566.069	1	11
566.239	1	-2
566.409	1	8
566.579	1	12
566.749	1	11
566.919	1	6
567.089	1	-5
567.259	1	5
567.429	1	-2
567.599	1	2
567.768	1	4
567.938	1	-3
568.108	1	12
568.278	1	-8
568.448	1	8
568.618	1	6
568.788	1	-1
568.958	1	11
569.128	1	0
569.297	1	3
569.467	1	12
569.637	1	10
569.807	1	2
569.977	1	-2
570.147	1	3
570.317	1	12
570.487	1	0
570.656	1	7
570.826	1	15
570.996	1	-4
571.166	1	-4
571.336	1	6
571.506	1	2
571.676	1	20
571.846	1	1
572.015	1	13
572.185	1	1
572.355	1	8
572.525	1	0
572.695	1	9
572.865	1	-5
573.035	1	3
573.205	1	-6
573.374	1	5
573.544	1	-1
573.714	1	15
573.884	1	12
574.054	1	9
574.224	1	-5
574.394	1	-3
574.563	1	-5
574.733	1	-6
574.903	1	8
575.073	1	4
575.243	1	7
575.413	1	8
575.583	1	15
575.752	1	2
575.922	1	-2
576.092	1	5
576.262	1	14
576.432	1	9
576.602	1	-7
576.772	1	-5
576.941	1	2
577.111	1	16
577.281	1	13
577.451	1	15
577.621	1	4
577.791	1	-9
577.960	1	9
578.130	1	-2
578.300	1	9
578.470	1	6
578.640	1	3
578.810	1	11
578.979	1	3
579.149	1	-9
579.319	1	-3
579.489	1	10
579.659	1	-1
579.829	1	-1
579.998	1	-9
580.168	1	-5
580.338	1	4
580.508	1	-2
580.678	1	0
580.848	1	8
581.017	1	22
581.187	1	-4
581.357	1	-5
581.527	1	0
581.697	1	12
581.867	1	4
582.036	1	-4
582.206	1	4
582.376	1	7
582.546	1	8
582.716	1	-2
582.885	1	5
583.055	1	-2
583.225	1	4
583.395	1	10
583.565	1	12
583.735	1	-11
583.904	1	-3
584.074	1	4
584.244	1	4
584.414	1	6
584.584	1	3
584.753	1	14
584.923	1	6
585.093	1	0
585.263	1	0
585.433	1	-6
585.602	1	7
585.772	1	3
585.942	1	1
586.112	1	9
586.282	1	0
586.451	1	-1
586.621	1	5
586.791	1	9
586.961	1	-2
587.131	1	17
587.300	1	-7
587.470	1	7
587.640	1	-2
587.810	1	1
587.980	1	11
588.149	1	9
588.319	1	8
588.489	1	17
588.659	1	6
588.829	1	5
588.998	1	4
589.168	1	0
589.338	1	6
589.508	1	2
589.677	1	6
589.847	1	0
590.017	1	7
590.187	1	5
590.357	1	-4
590.526	1	18
590.696	1	-1
590.866	1	4
591.036	1	-4
591.205	1	-7
591.375	1	-5
591.545	1	3
591.715	1	3
591.885	1	-1
592.054	1	10
592.224	1	1
592.394	1	2
592.564	1	-2
592.733	1	2
592.903	1	7
593.073	1	-1
593.243	1	11
593.412	1	-8
593.582	1	2
593.752	1	5
593.922	1	0
594.091	1	9
594.261	1	1
594.431	1	-2
594.601	1	3
594.771	1	1
594.940	1	6
595.110	1	8
595.280	1	-2
595.450	1	4
595.619	1	-1
595.789	1	6
595.959	1	1
596.129	1	7
596.298	1	12
596.468	1	1
596.638	1	7
596.808	1	11
596.977	1	11
597.147	1	17
597.317	1	4
597.487	1	-5
597.656	1	1
597.826	1	-3
597.996	1	0
598.166	1	5
598.335	1	5
598.505	1	1
598.675	1	2
598.844	1	-1
599.014	1	11
599.184	1	6
599.354	1	8
599.523	1	-4
599.693	1	2
599.863	1	-2
600.033	1	8
600.202	1	7
600.372	1	0
600.542	1	12
600.712	1	4
600.881	1	2
601.051	1	0
601.221	1	5
601.390	1	5
601.560	1	-2
601.730	1	8
601.900	1	-2
602.069	1	6
602.239	1	-9
602.409	1	20
602.578	1	0
602.748	1	11
602.918	1	-3
603.088	1	13
603.257	1	3
603.427	1	8
603.597	1	7
603.767	1	3
603.936	1	7
604.106	1	1
604.276	1	7
604.445	1	2
604.615	1	-2
604.785	1	6
604.954	1	1
605.124	1	-4
605.294	1	5
605.464	1	12
605.633	1	14
605.803	1	4
605.973	1	0
606.142	1	10
606.312	1	-9
606.482	1	1
606.652	1	7
606.821	1	2
606.991	1	6
607.161	1	18
607.330	1	-6
607.500	1	7
607.670	1	-11
607.839	1	21
608.009	1	-5
608.179	1	-14
608.348	1	14
608.518	1	10
608.688	1	12
608.858	1	6
609.027	1	0
609.197	1	9
609.367	1	0
609.536	1	-2
609.706	1	8
609.876	1	4
610.045	1	-5
610.215	1	1
610.385	1	15
610.554	1	-12
610.724	1	3
610.894	1	6
611.063	1	0
611.233	1	7
611.403	1	0
611.572	1	8
611.742	1	0
611.912	1	4
612.081	1	5
612.251	1	14
612.421	1	4
612.590	1	0
612.760	1	6
612.930	1	0
613.099	1	1
613.269	1	6
613.439	1	6
613.608	1	9
613.778	1	0
613.948	1	8
614.117	1	6
614.287	1	2
614.457	1	6
614.626	1	1
614.796	1	0
614.966	1	-5
615.135	1	-5
615.305	1	0
615.475	1	10
615.644	1	7
615.814	1	6
615.984	1	-3
616.153	1	-3
616.323	1	-9
616.493	1	3
616.662	1	9
616.832	1	10
617.002	1	14
617.171	1	-4
617.341	1	2
617.511	1	-3
617.680	1	9
617.850	1	-3
618.019	1	4
618.189	1	7
618.359	1	4
618.528	1	11
618.698	1	7
618.868	1	10
619.037	1	4
619.207	1	3
619.377	1	9
619.546	1	-1
619.716	1	-1
619.885	1	21
620.055	1	3
620.225	1	15
620.394	1	11
620.564	1	5
620.734	1	11
620.903	1	7
621.073	1	10
621.242	1	-2
621.412	1	10
621.582	1	0
621.751	1	2
621.921	1	5
622.091	1	7
622.260	1	2
622.430	1	4
622.599	1	12
622.769	1	8
622.939	1	12
623.108	1	6
623.278	1	8
623.448	1	7
623.617	1	-2
623.787	1	8
623.956	1	-5
624.126	1	9
624.296	1	9
624.465	1	4
624.635	1	6
624.804	1	6
624.974	1	0
625.144	1	10
625.313	1	-4
625.483	1	4
625.652	1	4
625.822	1	1
625.992	1	9
626.161	1	-1
626.331	1	5
626.501	1	16
626.670	1	4
626.840	1	-1
627.009	1	6
627.179	1	2
627.348	1	14
627.518	1	9
627.688	1	-2
627.857	1	1
628.027	1	6
628.196	1	8
628.366	1	4
628.536	1	11
628.705	1	3
628.875	1	6
629.044	1	-5
629.214	1	4
629.384	1	1
629.553	1	4
629.723	1	4
629.892	1	4
630.062	1	17
630.232	1	-9
630.401	1	1
630.571	1	6
630.740	1	2
630.910	1	4
631.079	1	4
631.249	1	-1
631.419	1	10
631.588	1	-10
631.758	1	-2
631.927	1	7
632.097	1	13
632.266	1	6
632.436	1	-6
632.606	1	7
632.775	1	15
632.945	1	-2
633.114	1	-4
633.284	1	5
633.453	1	5
633.623	1	7
633.793	1	0
633.962	1	7
634.132	1	7
634.301	1	8
634.471	1	7
634.640	1	10
634.810	1	7
634.979	1	19
635.149	1	2
635.319	1	9
635.488	1	12
635.658	1	0
635.827	1	7
635.997	1	1
636.166	1	5
636.336	1	5
636.505	1	17
636.675	1	-6
636.845	1	-2
637.014	1	12
637.184	1	9
637.353	1	-4
637.523	1	7
637.692	1	9
637.862	1	2
638.031	1	0
638.201	1	22
638.370	1	6
638.540	1	7
638.710	1	7
638.879	1	0
639.049	1	14
639.218	1	2
639.388	1	14
639.557	1	9
639.727	1	-1
639.896	1	6
640.066	1	-1
640.235	1	5
640.405	1	1
640.574	1	4
640.744	1	10
640.914	1	13
641.083	1	-2
641.253	1	0
641.422	1	5
641.592	1	8
641.761	1	10
641.931	1	3
642.100	1	6
642.270	1	6
642.439	1	0
642.609	1	4
642.778	1	12
642.948	1	1
643.117	1	-2
643.287	1	2
643.456	1	-7
643.626	1	0
643.795	1	2
643.965	1	1
644.134	1	6
644.304	1	15
644.473	1	1
644.643	1	-6
644.812	1	6
644.982	1	2
645.151	1	-1
645.321	1	7
645.490	1	11
645.660	1	10
645.829	1	-5
645.999	1	23
646.168	1	3
646.338	1	0
646.507	1	-3
646.677	1	9
646.846	1	11
647.016	1	8
647.185	1	6
647.355	1	5
647.524	1	3
647.694	1	4
647.863	1	1
648.033	1	5
648.202	1	4
648.372	1	8
648.541	1	6
648.711	1	10
648.880	1	12
649.050	1	10
649.219	1	-6
649.389	1	11
649.558	1	10
649.728	1	-5
649.897	1	2
650.067	1	3
650.236	1	9
650.406	1	-5
650.575	1	13
650.745	1	5
650.914	1	7
651.084	1	-4
651.253	1	1
651.423	1	5
651.592	1	0
651.762	1	2
651.931	1	4
652.101	1	8
652.270	1	6
652.440	1	6
652.609	1	4
652.778	1	11
652.948	1	2
653.117	1	13
653.287	1	4
653.456	1	8
653.626	1	7
653.795	1	4
653.965	1	10
654.134	1	2
654.304	1	7
654.473	1	5
654.643	1	10
654.812	1	15
654.982	1	5
655.151	1	9
655.320	1	7
655.490	1	3
655.659	1	6
655.829	1	4
655.998	1	9
656.168	1	-4
656.337	1	9
656.507	1	-1
656.676	1	5
656.846	1	7
657.015	1	16
657.184	1	4
657.354	1	-2
657.523	1	3
657.693	1	2
657.862	1	4
658.032	1	-2
658.201	1	3
658.371	1	7
658.540	1	10
658.709	1	9
658.879	1	-9
659.048	1	14
659.218	1	13
659.387	1	-1
659.557	1	7
659.726	1	16
659.895	1	-3
660.065	1	15
660.234	1	6
660.404	1	16
660.573	1	12
660.743	1	5
660.912	1	10
661.081	1	8
661.251	1	3
661.420	1	9
661.590	1	11
661.759	1	3
661.929	1	18
662.098	1	10
662.267	1	14
662.437	1	2
662.606	1	2
662.776	1	5
662.945	1	8
663.115	1	-4
663.284	1	4
663.453	1	5
663.623	1	9
663.792	1	1
663.962	1	-4
664.131	1	3
664.300	1	5
664.470	1	3
664.639	1	-2
664.809	1	8
664.978	1	11
665.148	1	15
665.317	1	9
665.486	1	6
665.656	1	-7
665.825	1	13
665.995	1	4
666.164	1	7
666.333	1	3
666.503	1	18
666.672	1	10
666.842	1	-1
667.011	1	10
667.180	1	0
667.350	1	20
667.519	1	1
667.689	1	21
667.858	1	12
668.027	1	1
668.197	1	5
668.366	1	14
668.536	1	-1
668.705	1	11
668.874	1	8
669.044	1	1
669.213	1	11
669.382	1	22
669.552	1	3
669.721	1	-7
669.891	1	-4
670.060	1	9
670.229	1	-2
670.399	1	13
670.568	1	16
670.738	1	1
670.907	1	2
671.076	1	5
671.246	1	-13
671.415	1	8
671.584	1	4
671.754	1	5
671.923	1	13
672.093	1	8
672.262	1	9
672.431	1	17
672.601	1	-6
672.770	1	3
672.939	1	-2
673.109	1	10
673.278	1	10
673.448	1	11
673.617	1	5
673.786	1	7
