325.333	1	5
325.504	1	16
325.675	1	12
325.846	1	4
326.017	1	8
326.188	1	15
326.359	1	16
326.531	1	4
326.702	1	9
326.873	1	17
327.044	1	8
327.215	1	2
327.386	1	1
327.557	1	17
327.728	1	0
327.899	1	10
328.070	1	13
328.241	1	4
328.412	1	11
328.583	1	11
328.754	1	5
328.926	1	11
329.097	1	14
329.268	1	5
329.439	1	17
329.610	1	18
329.781	1	15
329.952	1	4
330.123	1	6
330.294	1	11
330.465	1	18
330.636	1	10
330.807	1	13
330.978	1	12
331.149	1	5
331.320	1	14
331.492	1	8
331.663	1	10
331.834	1	6
332.005	1	14
332.176	1	11
332.347	1	11
332.518	1	2
332.689	1	15
332.860	1	0
333.031	1	9
333.202	1	20
333.373	1	15
333.544	1	9
333.715	1	4
333.886	1	7
334.057	1	3
334.228	1	15
334.399	1	4
334.570	1	18
334.741	1	14
334.912	1	18
335.084	1	11
335.255	1	18
335.426	1	11
335.597	1	18
335.768	1	4
335.939	1	13
336.110	1	17
336.281	1	18
336.452	1	15
336.623	1	9
336.794	1	8
336.965	1	6
337.136	1	9
337.307	1	22
337.478	1	9
337.649	1	12
337.820	1	7
337.991	1	24
338.162	1	18
338.333	1	14
338.504	1	9
338.675	1	9
338.846	1	14
339.017	1	24
339.188	1	22
339.359	1	13
339.530	1	9
339.701	1	13
339.872	1	8
340.043	1	22
340.214	1	17
340.385	1	25
340.556	1	10
340.727	1	20
340.898	1	13
341.069	1	21
341.240	1	19
341.411	1	18
341.582	1	19
341.753	1	13
341.924	1	16
342.095	1	20
342.266	1	12
342.437	1	16
342.608	1	5
342.779	1	14
342.950	1	12
343.121	1	17
343.292	1	20
343.463	1	23
343.634	1	25
343.805	1	8
343.976	1	9
344.147	1	18
344.318	1	11
344.489	1	10
344.660	1	19
344.831	1	10
345.002	1	12
345.173	1	17
345.344	1	16
345.515	1	26
345.686	1	20
345.857	1	18
346.028	1	26
346.199	1	17
346.370	1	20
346.541	1	33
346.712	1	8
346.883	1	10
347.054	1	3
347.225	1	7
347.396	1	21
347.567	1	25
347.738	1	19
347.909	1	19
348.080	1	21
348.251	1	18
348.422	1	22
348.593	1	19
348.764	1	18
348.935	1	14
349.106	1	8
349.277	1	30
349.448	1	26
349.619	1	29
349.790	1	23
349.961	1	21
350.132	1	16
350.303	1	25
350.474	1	23
350.645	1	21
350.816	1	26
350.987	1	13
351.157	1	17
351.328	1	21
351.499	1	19
351.670	1	34
351.841	1	14
352.012	1	26
352.183	1	15
352.354	1	14
352.525	1	16
352.696	1	30
352.867	1	9
353.038	1	25
353.209	1	27
353.380	1	29
353.551	1	27
353.722	1	20
353.893	1	19
354.064	1	23
354.235	1	19
354.406	1	22
354.576	1	13
354.747	1	29
354.918	1	26
355.089	1	21
355.260	1	16
355.431	1	22
355.602	1	25
355.773	1	22
355.944	1	27
356.115	1	13
356.286	1	20
356.457	1	23
356.628	1	39
356.799	1	22
356.970	1	14
357.141	1	40
357.311	1	35
357.482	1	27
357.653	1	27
357.824	1	43
357.995	1	38
358.166	1	33
358.337	1	25
358.508	1	26
358.679	1	28
358.850	1	34
359.021	1	22
359.192	1	30
359.363	1	28
359.533	1	31
359.704	1	33
359.875	1	30
360.046	1	35
360.217	1	26
360.388	1	28
360.559	1	30
360.730	1	13
360.901	1	23
361.072	1	24
361.243	1	28
361.414	1	24
361.584	1	30
361.755	1	43
361.926	1	17
362.097	1	26
362.268	1	26
362.439	1	25
362.610	1	22
362.781	1	19
362.952	1	20
363.123	1	35
363.293	1	36
363.464	1	30
363.635	1	27
363.806	1	33
363.977	1	25
364.148	1	15
364.319	1	33
364.490	1	32
364.661	1	28
364.832	1	38
365.002	1	36
365.173	1	22
365.344	1	35
365.515	1	35
365.686	1	30
365.857	1	43
366.028	1	28
366.199	1	35
366.370	1	45
366.540	1	37
366.711	1	24
366.882	1	35
367.053	1	34
367.224	1	14
367.395	1	29
367.566	1	31
367.737	1	34
367.908	1	20
368.078	1	44
368.249	1	30
368.420	1	35
368.591	1	39
368.762	1	42
368.933	1	24
369.104	1	30
369.274	1	35
369.445	1	33
369.616	1	33
369.787	1	46
369.958	1	39
370.129	1	43
370.300	1	30
370.471	1	36
370.641	1	27
370.812	1	28
370.983	1	28
371.154	1	34
371.325	1	30
371.496	1	29
371.667	1	41
371.837	1	30
372.008	1	40
372.179	1	31
372.350	1	25
372.521	1	38
372.692	1	29
372.863	1	31
373.033	1	48
373.204	1	25
373.375	1	29
373.546	1	42
373.717	1	20
373.888	1	26
374.059	1	47
374.229	1	29
374.400	1	36
374.571	1	39
374.742	1	25
374.913	1	37
375.084	1	41
375.254	1	41
375.425	1	24
375.596	1	34
375.767	1	33
375.938	1	34
376.109	1	35
376.279	1	33
376.450	1	39
376.621	1	47
376.792	1	27
376.963	1	28
377.134	1	35
377.304	1	29
377.475	1	24
377.646	1	29
377.817	1	23
377.988	1	20
378.159	1	32
378.329	1	34
378.500	1	32
378.671	1	37
378.842	1	21
379.013	1	38
379.184	1	40
379.354	1	21
379.525	1	35
379.696	1	35
379.867	1	43
380.038	1	24
380.209	1	24
380.379	1	38
380.550	1	38
380.721	1	43
380.892	1	39
381.063	1	37
381.233	1	29
381.404	1	46
381.575	1	40
381.746	1	46
381.917	1	26
382.087	1	36
382.258	1	48
382.429	1	38
382.600	1	30
382.771	1	43
382.941	1	36
383.112	1	34
383.283	1	48
383.454	1	31
383.625	1	44
383.795	1	36
383.966	1	47
384.137	1	39
384.308	1	45
384.479	1	37
384.649	1	47
384.820	1	39
384.991	1	37
385.162	1	33
385.333	1	49
385.503	1	38
385.674	1	38
385.845	1	51
386.016	1	44
386.187	1	27
386.357	1	43
386.528	1	31
386.699	1	37
386.870	1	44
387.041	1	38
387.211	1	42
387.382	1	43
387.553	1	41
387.724	1	31
387.894	1	45
388.065	1	38
388.236	1	40
388.407	1	40
388.578	1	42
388.748	1	48
388.919	1	50
389.090	1	45
389.261	1	54
389.431	1	54
389.602	1	41
389.773	1	39
389.944	1	39
390.114	1	52
390.285	1	41
390.456	1	32
390.627	1	53
390.798	1	44
390.968	1	42
391.139	1	48
391.310	1	47
391.481	1	33
391.651	1	42
391.822	1	45
391.993	1	49
392.164	1	27
392.334	1	44
392.505	1	31
392.676	1	51
392.847	1	38
393.017	1	48
393.188	1	51
393.359	1	47
393.530	1	54
393.700	1	45
393.871	1	45
394.042	1	37
394.213	1	56
394.383	1	40
394.554	1	44
394.725	1	44
394.896	1	55
395.066	1	36
395.237	1	41
395.408	1	44
395.579	1	42
395.749	1	32
395.920	1	48
396.091	1	33
396.262	1	50
396.432	1	33
396.603	1	57
396.774	1	45
396.945	1	48
397.115	1	46
397.286	1	38
397.457	1	45
397.627	1	43
397.798	1	44
397.969	1	37
398.140	1	42
398.310	1	39
398.481	1	34
398.652	1	52
398.823	1	47
398.993	1	46
399.164	1	44
399.335	1	47
399.505	1	48
399.676	1	34
399.847	1	42
400.018	1	39
400.188	1	43
400.359	1	37
400.530	1	43
400.700	1	52
400.871	1	52
401.042	1	47
401.213	1	30
401.383	1	45
401.554	1	45
401.725	1	49
401.895	1	50
402.066	1	51
402.237	1	46
402.408	1	58
402.578	1	57
402.749	1	39
402.920	1	41
403.090	1	54
403.261	1	59
403.432	1	44
403.603	1	41
403.773	1	49
403.944	1	53
404.115	1	67
404.285	1	47
404.456	1	45
404.627	1	34
404.797	1	44
404.968	1	71
405.139	1	35
405.310	1	52
405.480	1	42
405.651	1	56
405.822	1	44
405.992	1	45
406.163	1	58
406.334	1	48
406.504	1	44
406.675	1	46
406.846	1	47
407.016	1	43
407.187	1	59
407.358	1	49
407.528	1	38
407.699	1	45
407.870	1	49
408.041	1	57
408.211	1	29
408.382	1	53
408.553	1	44
408.723	1	58
408.894	1	42
409.065	1	54
409.235	1	50
409.406	1	42
409.577	1	54
409.747	1	42
409.918	1	31
410.089	1	51
410.259	1	50
410.430	1	48
410.601	1	51
410.771	1	46
410.942	1	62
411.113	1	38
411.283	1	45
411.454	1	50
411.625	1	42
411.795	1	44
411.966	1	54
412.137	1	44
412.307	1	51
412.478	1	52
412.649	1	54
412.819	1	49
412.990	1	49
413.161	1	52
413.331	1	48
413.502	1	47
413.672	1	38
413.843	1	55
414.014	1	57
414.184	1	51
414.355	1	56
414.526	1	50
414.696	1	44
414.867	1	54
415.038	1	45
415.208	1	49
415.379	1	53
415.550	1	59
415.720	1	51
415.891	1	57
416.062	1	43
416.232	1	40
416.403	1	49
416.573	1	63
416.744	1	37
416.915	1	53
417.085	1	57
417.256	1	46
417.427	1	56
417.597	1	41
417.768	1	40
417.939	1	51
418.109	1	56
418.280	1	45
418.450	1	43
418.621	1	35
418.792	1	43
418.962	1	53
419.133	1	47
419.304	1	50
419.474	1	38
419.645	1	45
419.815	1	62
419.986	1	52
420.157	1	46
420.327	1	45
420.498	1	41
420.669	1	47
420.839	1	41
421.010	1	42
421.180	1	50
421.351	1	46
421.522	1	43
421.692	1	51
421.863	1	44
422.033	1	54
422.204	1	41
422.375	1	52
422.545	1	41
422.716	1	36
422.886	1	43
423.057	1	37
423.228	1	41
423.398	1	49
423.569	1	43
423.740	1	41
423.910	1	45
424.081	1	46
424.251	1	36
424.422	1	46
424.593	1	44
424.763	1	39
424.934	1	44
425.104	1	51
425.275	1	46
425.445	1	52
425.616	1	42
425.787	1	44
425.957	1	52
426.128	1	33
426.298	1	31
426.469	1	31
426.640	1	52
426.810	1	50
426.981	1	49
427.151	1	48
427.322	1	50
427.493	1	44
427.663	1	43
427.834	1	44
428.004	1	50
428.175	1	42
428.345	1	32
428.516	1	44
428.687	1	36
428.857	1	36
429.028	1	39
429.198	1	40
429.369	1	51
429.540	1	32
429.710	1	50
429.881	1	31
430.051	1	37
430.222	1	41
430.392	1	53
430.563	1	37
430.734	1	48
430.904	1	43
431.075	1	44
431.245	1	49
431.416	1	50
431.586	1	33
431.757	1	46
431.927	1	36
432.098	1	40
432.269	1	41
432.439	1	54
432.610	1	44
432.780	1	46
432.951	1	35
433.121	1	46
433.292	1	39
433.462	1	40
433.633	1	38
433.804	1	59
433.974	1	28
434.145	1	48
434.315	1	38
434.486	1	37
434.656	1	46
434.827	1	38
434.997	1	51
435.168	1	54
435.339	1	46
435.509	1	41
435.680	1	41
435.850	1	30
436.021	1	45
436.191	1	43
436.362	1	38
436.532	1	54
436.703	1	34
436.873	1	44
437.044	1	38
437.214	1	51
437.385	1	45
437.556	1	45
437.726	1	32
437.897	1	39
438.067	1	33
438.238	1	43
438.408	1	35
438.579	1	52
438.749	1	48
438.920	1	42
439.090	1	47
439.261	1	36
439.431	1	35
439.602	1	40
439.772	1	46
439.943	1	29
440.113	1	35
440.284	1	40
440.455	1	49
440.625	1	49
440.796	1	47
440.966	1	30
441.137	1	29
441.307	1	49
441.478	1	46
441.648	1	37
441.819	1	45
441.989	1	39
442.160	1	33
442.330	1	37
442.501	1	39
442.671	1	31
442.842	1	33
443.012	1	50
443.183	1	40
443.353	1	38
443.524	1	37
443.694	1	37
443.865	1	43
444.035	1	32
444.206	1	41
444.376	1	44
444.547	1	30
444.717	1	41
444.888	1	36
445.058	1	57
445.229	1	34
445.399	1	48
445.570	1	49
445.740	1	36
445.911	1	29
446.081	1	37
446.252	1	44
446.422	1	45
446.593	1	33
446.763	1	49
446.934	1	32
447.104	1	31
447.275	1	35
447.445	1	31
447.616	1	34
447.786	1	34
447.957	1	38
448.127	1	28
448.298	1	33
448.468	1	31
448.639	1	50
448.809	1	43
448.979	1	28
449.150	1	33
449.320	1	41
449.491	1	31
449.661	1	33
449.832	1	32
450.002	1	27
450.173	1	39
450.343	1	47
450.514	1	36
450.684	1	37
450.855	1	42
451.025	1	37
451.196	1	24
451.366	1	41
451.537	1	34
451.707	1	32
451.878	1	28
452.048	1	30
452.218	1	33
452.389	1	40
452.559	1	42
452.730	1	39
452.900	1	44
453.071	1	46
453.241	1	34
453.412	1	40
453.582	1	36
453.753	1	26
453.923	1	31
454.093	1	42
454.264	1	36
454.434	1	28
454.605	1	40
454.775	1	26
454.946	1	29
455.116	1	34
455.287	1	43
455.457	1	41
455.628	1	33
455.798	1	27
455.968	1	43
456.139	1	42
456.309	1	40
456.480	1	28
456.650	1	31
456.821	1	32
456.991	1	32
457.161	1	33
457.332	1	23
457.502	1	32
457.673	1	38
457.843	1	24
458.014	1	27
458.184	1	31
458.355	1	28
458.525	1	22
458.695	1	41
458.866	1	32
459.036	1	38
459.207	1	25
459.377	1	41
459.548	1	28
459.718	1	27
459.888	1	29
460.059	1	32
460.229	1	38
460.400	1	14
460.570	1	32
460.740	1	34
460.911	1	29
461.081	1	20
461.252	1	34
461.422	1	28
461.593	1	19
461.763	1	32
461.933	1	44
462.104	1	32
462.274	1	34
462.445	1	31
462.615	1	26
462.785	1	28
462.956	1	28
463.126	1	32
463.297	1	28
463.467	1	31
463.638	1	28
463.808	1	31
463.978	1	36
464.149	1	30
464.319	1	28
464.490	1	35
464.660	1	36
464.830	1	27
465.001	1	17
465.171	1	28
465.342	1	28
465.512	1	32
465.682	1	32
465.853	1	37
466.023	1	35
466.194	1	21
466.364	1	21
466.534	1	15
466.705	1	32
466.875	1	30
467.045	1	30
467.216	1	22
467.386	1	30
467.557	1	26
467.727	1	25
467.897	1	30
468.068	1	21
468.238	1	24
468.409	1	27
468.579	1	25
468.749	1	32
468.920	1	30
469.090	1	14
469.260	1	28
469.431	1	16
469.601	1	29
469.772	1	16
469.942	1	28
470.112	1	32
470.283	1	22
470.453	1	27
470.623	1	25
470.794	1	29
470.964	1	19
471.135	1	35
471.305	1	37
471.475	1	25
471.646	1	24
471.816	1	28
471.986	1	23
472.157	1	15
472.327	1	18
472.497	1	19
472.668	1	21
472.838	1	29
473.009	1	25
473.179	1	25
473.349	1	15
473.520	1	17
473.690	1	25
473.860	1	27
474.031	1	14
474.201	1	20
474.371	1	35
474.542	1	32
474.712	1	22
474.882	1	22
475.053	1	15
475.223	1	18
475.394	1	23
475.564	1	15
475.734	1	14
475.905	1	35
476.075	1	20
476.245	1	33
476.416	1	26
476.586	1	27
476.756	1	17
476.927	1	28
477.097	1	26
477.267	1	23
477.438	1	14
477.608	1	17
477.778	1	29
477.949	1	24
478.119	1	17
478.289	1	14
478.460	1	21
478.630	1	30
478.800	1	27
478.971	1	19
479.141	1	17
479.311	1	30
479.482	1	2
479.652	1	25
479.822	1	18
479.993	1	29
480.163	1	30
480.333	1	32
480.504	1	14
480.674	1	16
480.844	1	9
481.015	1	27
481.185	1	27
481.355	1	24
481.525	1	10
481.696	1	16
481.866	1	28
482.036	1	20
482.207	1	17
482.377	1	15
482.547	1	18
482.718	1	21
482.888	1	13
483.058	1	22
483.229	1	19
483.399	1	19
483.569	1	9
483.740	1	12
483.910	1	37
484.080	1	44
484.250	1	22
484.421	1	31
484.591	1	30
484.761	1	13
484.932	1	26
485.102	1	21
485.272	1	18
485.443	1	20
485.613	1	17
485.783	1	18
485.953	1	8
486.124	1	18
486.294	1	22
486.464	1	19
486.635	1	17
486.805	1	25
486.975	1	23
487.146	1	17
487.316	1	16
487.486	1	16
487.656	1	24
487.827	1	17
487.997	1	28
488.167	1	25
488.338	1	18
488.508	1	7
488.678	1	14
488.848	1	26
489.019	1	16
489.189	1	9
489.359	1	13
489.529	1	11
489.700	1	13
489.870	1	19
490.040	1	11
490.211	1	18
490.381	1	30
490.551	1	8
490.721	1	25
490.892	1	27
491.062	1	10
491.232	1	13
491.402	1	18
491.573	1	20
491.743	1	12
491.913	1	19
492.084	1	21
492.254	1	35
492.424	1	10
492.594	1	3
492.765	1	13
492.935	1	11
493.105	1	9
493.275	1	14
493.446	1	20
493.616	1	9
493.786	1	17
493.956	1	19
494.127	1	19
494.297	1	21
494.467	1	17
494.637	1	19
494.808	1	8
494.978	1	7
495.148	1	23
495.318	1	22
495.489	1	17
495.659	1	15
495.829	1	15
495.999	1	14
496.170	1	13
496.340	1	10
496.510	1	26
496.680	1	19
496.851	1	15
497.021	1	23
497.191	1	16
497.361	1	15
497.532	1	22
497.702	1	14
497.872	1	14
498.042	1	24
498.213	1	13
498.383	1	15
498.553	1	20
498.723	1	23
498.894	1	20
499.064	1	8
499.234	1	16
499.404	1	18
499.574	1	12
499.745	1	10
499.915	1	7
500.085	1	11
500.255	1	15
500.426	1	7
500.596	1	23
500.766	1	15
500.936	1	20
501.106	1	18
501.277	1	19
501.447	1	1
501.617	1	16
501.787	1	22
501.958	1	17
502.128	1	12
502.298	1	23
502.468	1	12
502.638	1	27
502.809	1	21
502.979	1	17
503.149	1	20
503.319	1	16
503.489	1	26
503.660	1	12
503.830	1	18
504.000	1	13
504.170	1	5
504.340	1	6
504.511	1	15
504.681	1	12
504.851	1	6
505.021	1	12
505.192	1	13
505.362	1	17
505.532	1	20
505.702	1	18
505.872	1	24
506.043	1	0
506.213	1	6
506.383	1	9
506.553	1	17
506.723	1	6
506.893	1	8
507.064	1	18
507.234	1	15
507.404	1	15
507.574	1	19
507.744	1	11
507.915	1	9
508.085	1	10
508.255	1	11
508.425	1	5
508.595	1	4
508.766	1	21
508.936	1	9
509.106	1	4
509.276	1	21
509.446	1	1
509.616	1	21
509.787	1	22
509.957	1	20
510.127	1	19
510.297	1	23
510.467	1	11
510.638	1	6
510.808	1	7
510.978	1	18
511.148	1	12
511.318	1	27
511.488	1	8
511.659	1	2
511.829	1	13
511.999	1	7
512.169	1	-3
512.339	1	16
512.509	1	8
512.680	1	19
512.850	1	10
513.020	1	12
513.190	1	7
513.360	1	10
513.530	1	9
513.700	1	19
513.871	1	13
514.041	1	21
514.211	1	27
514.381	1	4
514.551	1	16
514.721	1	4
514.892	1	12
515.062	1	7
515.232	1	12
515.402	1	27
515.572	1	7
515.742	1	9
515.912	1	17
516.083	1	12
516.253	1	6
516.423	1	9
516.593	1	15
516.763	1	11
516.933	1	8
517.104	1	13
517.274	1	15
517.444	1	13
517.614	1	11
517.784	1	15
517.954	1	20
518.124	1	1
518.294	1	26
518.465	1	8
518.635	1	2
518.805	1	3
518.975	1	12
519.145	1	7
519.315	1	21
519.485	1	14
519.656	1	24
519.826	1	20
519.996	1	15
520.166	1	11
520.336	1	13
520.506	1	6
520.676	1	9
520.846	1	16
521.017	1	-2
521.187	1	0
521.357	1	15
521.527	1	13
521.697	1	11
521.867	1	11
522.037	1	22
522.207	1	5
522.377	1	2
522.548	1	12
522.718	1	21
522.888	1	5
523.058	1	0
523.228	1	12
523.398	1	10
523.568	1	0
523.738	1	13
523.909	1	11
524.079	1	13
524.249	1	6
524.419	1	6
524.589	1	11
524.759	1	6
524.929	1	17
525.099	1	16
525.269	1	18
525.439	1	1
525.610	1	19
525.780	1	18
525.950	1	11
526.120	1	14
526.290	1	12
526.460	1	15
526.630	1	11
526.800	1	2
526.970	1	3
527.140	1	11
527.311	1	0
527.481	1	6
527.651	1	4
527.821	1	12
527.991	1	21
528.161	1	6
528.331	1	0
528.501	1	20
528.671	1	6
528.841	1	9
529.011	1	9
529.181	1	24
529.352	1	4
529.522	1	-1
529.692	1	6
529.862	1	17
530.032	1	4
530.202	1	11
530.372	1	11
530.542	1	22
530.712	1	-7
530.882	1	-1
531.052	1	6
531.222	1	1
531.392	1	0
531.563	1	8
531.733	1	10
531.903	1	18
532.073	1	8
532.243	1	25
532.413	1	17
532.583	1	1
532.753	1	1
532.923	1	13
533.093	1	4
533.263	1	5
533.433	1	15
533.603	1	8
533.773	1	13
533.943	1	20
534.113	1	9
534.284	1	6
534.454	1	10
534.624	1	7
534.794	1	3
534.964	1	11
535.134	1	0
535.304	1	12
535.474	1	3
535.644	1	13
535.814	1	6
535.984	1	-1
536.154	1	9
536.324	1	4
536.494	1	14
536.664	1	-6
536.834	1	11
537.004	1	6
537.174	1	5
537.344	1	19
537.514	1	4
537.685	1	8
537.855	1	-1
538.025	1	10
538.195	1	5
538.365	1	6
538.535	1	15
538.705	1	0
538.875	1	8
539.045	1	7
539.215	1	13
539.385	1	10
539.555	1	6
539.725	1	11
539.895	1	20
540.065	1	7
540.235	1	3
540.405	1	18
540.575	1	17
540.745	1	11
540.915	1	0
541.085	1	10
541.255	1	10
541.425	1	-2
541.595	1	-4
541.765	1	9
541.935	1	20
542.105	1	10
542.275	1	9
542.445	1	13
542.615	1	17
542.785	1	15
542.955	1	10
543.125	1	4
543.295	1	15
543.465	1	9
543.635	1	3
543.805	1	4
543.975	1	3
544.145	1	14
544.315	1	2
544.485	1	7
544.655	1	7
544.825	1	10
544.995	1	12
545.165	1	16
545.335	1	0
545.505	1	15
545.675	1	9
545.845	1	5
546.015	1	14
546.185	1	-1
546.355	1	9
546.525	1	6
546.695	1	6
546.865	1	4
547.035	1	5
547.205	1	0
547.375	1	14
547.545	1	4
547.715	1	9
547.885	1	13
548.055	1	7
548.225	1	8
548.395	1	15
548.565	1	3
548.735	1	1
548.905	1	5
549.075	1	13
549.245	1	12
549.415	1	12
549.585	1	10
549.755	1	9
549.925	1	-7
550.095	1	0
550.265	1	-4
550.435	1	-2
550.605	1	8
550.775	1	10
550.945	1	5
551.115	1	5
551.285	1	-3
551.455	1	3
551.625	1	12
551.795	1	6
551.965	1	0
552.135	1	-8
552.305	1	7
552.475	1	13
552.645	1	18
552.815	1	16
552.985	1	2
553.155	1	7
553.325	1	9
553.495	1	2
553.665	1	9
553.835	1	1
554.004	1	7
554.174	1	0
554.344	1	3
554.514	1	6
554.684	1	8
554.854	1	2
555.024	1	13
555.194	1	10
555.364	1	9
555.534	1	11
555.704	1	6
555.874	1	0
556.044	1	9
556.214	1	0
556.384	1	7
556.554	1	4
556.724	1	-2
556.894	1	5
557.064	1	0
557.234	1	7
557.404	1	14
557.573	1	8
557.743	1	6
557.913	1	4
558.083	1	1
558.253	1	8
558.423	1	6
558.593	1	6
558.763	1	17
558.933	1	9
559.103	1	9
559.273	1	5
559.443	1	12
559.613	1	3
559.783	1	6
559.953	1	5
560.122	1	11
560.292	1	12
560.462	1	2
560.632	1	10
560.802	1	2
560.972	1	10
561.142	1	6
561.312	1	8
561.482	1	0
561.652	1	7
561.822	1	3
561.992	1	7
562.162	1	-3
562.331	1	-6
562.501	1	-2
562.671	1	9
562.841	1	9
563.011	1	15
563.181	1	18
563.351	1	8
563.521	1	13
563.691	1	4
563.861	1	6
564.031	1	4
564.201	1	5
564.370	1	11
564.540	1	7
564.710	1	13
564.880	1	7
565.050	1	-2
565.220	1	-6
565.390	1	7
565.560	1	8
565.730	1	6
565.900	1	-5
566.069	1	21
566.239	1	-1
566.409	1	10
566.579	1	13
566.749	1	17
566.919	1	4
567.089	1	9
567.259	1	11
567.429	1	6
567.599	1	2
567.768	1	-5
567.938	1	0
568.108	1	4
568.278	1	10
568.448	1	18
568.618	1	8
568.788	1	-2
568.958	1	14
569.128	1	9
569.297	1	4
569.467	1	-2
569.637	1	0
569.807	1	12
569.977	1	7
570.147	1	-1
570.317	1	12
570.487	1	7
570.656	1	5
570.826	1	17
570.996	1	2
571.166	1	6
571.336	1	12
571.506	1	8
571.676	1	10
571.846	1	1
572.015	1	9
572.185	1	9
572.355	1	6
572.525	1	6
572.695	1	15
572.865	1	0
573.035	1	10
573.205	1	1
573.374	1	-1
573.544	1	-4
573.714	1	5
573.884	1	20
574.054	1	10
574.224	1	5
574.394	1	10
574.563	1	14
574.733	1	3
574.903	1	10
575.073	1	3
575.243	1	-5
575.413	1	2
575.583	1	-2
575.752	1	7
575.922	1	6
576.092	1	3
576.262	1	2
576.432	1	10
576.602	1	3
576.772	1	7
576.941	1	16
577.111	1	0
577.281	1	12
577.451	1	16
577.621	1	7
577.791	1	-6
577.960	1	8
578.130	1	2
578.300	1	6
578.470	1	9
578.640	1	9
578.810	1	7
578.979	1	6
579.149	1	-4
579.319	1	0
579.489	1	1
579.659	1	7
579.829	1	-1
579.998	1	2
580.168	1	-6
580.338	1	6
580.508	1	7
580.678	1	7
580.848	1	3
581.017	1	21
581.187	1	-2
581.357	1	-7
581.527	1	0
581.697	1	7
581.867	1	5
582.036	1	4
582.206	1	5
582.376	1	-4
582.546	1	8
582.716	1	3
582.885	1	5
583.055	1	7
583.225	1	5
583.395	1	12
583.565	1	12
583.735	1	4
583.904	1	3
584.074	1	5
584.244	1	9
584.414	1	5
584.584	1	-1
584.753	1	14
584.923	1	8
585.093	1	6
585.263	1	7
585.433	1	-1
585.602	1	2
585.772	1	0
585.942	1	9
586.112	1	5
586.282	1	13
586.451	1	-4
586.621	1	7
586.791	1	9
586.961	1	1
587.131	1	9
587.300	1	-7
587.470	1	4
587.640	1	4
587.810	1	-4
587.980	1	16
588.149	1	22
588.319	1	-6
588.489	1	12
588.659	1	0
588.829	1	-3
588.998	1	15
589.168	1	4
589.338	1	4
589.508	1	9
589.677	1	8
589.847	1	-2
590.017	1	12
590.187	1	8
590.357	1	0
590.526	1	13
590.696	1	9
590.866	1	6
591.036	1	17
591.205	1	-11
591.375	1	6
591.545	1	7
591.715	1	13
591.885	1	10
592.054	1	6
592.224	1	4
592.394	1	11
592.564	1	-7
592.733	1	13
592.903	1	5
593.073	1	11
593.243	1	6
593.412	1	-7
593.582	1	3
593.752	1	2
593.922	1	-3
594.091	1	15
594.261	1	-4
594.431	1	10
594.601	1	-3
594.771	1	0
594.940	1	-3
595.110	1	9
595.280	1	7
595.450	1	2
595.619	1	4
595.789	1	3
595.959	1	5
596.129	1	11
596.298	1	24
596.468	1	3
596.638	1	18
596.808	1	9
596.977	1	16
597.147	1	11
597.317	1	2
597.487	1	-2
597.656	1	5
597.826	1	4
597.996	1	2
598.166	1	11
598.335	1	1
598.505	1	5
598.675	1	-1
598.844	1	3
599.014	1	-3
599.184	1	11
599.354	1	7
599.523	1	8
599.693	1	14
599.863	1	2
600.033	1	4
600.202	1	-5
600.372	1	-4
600.542	1	15
600.712	1	0
600.881	1	2
601.051	1	4
601.221	1	9
601.390	1	3
601.560	1	1
601.730	1	11
601.900	1	8
602.069	1	15
602.239	1	-5
602.409	1	19
602.578	1	12
602.748	1	8
602.918	1	2
603.088	1	10
603.257	1	19
603.427	1	-1
603.597	1	2
603.767	1	7
603.936	1	14
604.106	1	7
604.276	1	-1
604.445	1	2
604.615	1	2
604.785	1	-4
604.954	1	12
605.124	1	1
605.294	1	9
605.464	1	23
605.633	1	13
605.803	1	3
605.973	1	2
606.142	1	1
606.312	1	2
606.482	1	2
606.652	1	16
606.821	1	8
606.991	1	16
607.161	1	16
607.330	1	-7
607.500	1	1
607.670	1	-5
607.839	1	7
608.009	1	-1
608.179	1	4
608.348	1	13
608.518	1	-2
608.688	1	17
608.858	1	7
609.027	1	12
609.197	1	7
609.367	1	-4
609.536	1	-2
609.706	1	4
609.876	1	-1
610.045	1	1
610.215	1	8
610.385	1	17
610.554	1	9
610.724	1	11
610.894	1	11
611.063	1	-2
611.233	1	16
611.403	1	3
611.572	1	10
611.742	1	-4
611.912	1	4
612.081	1	-2
612.251	1	20
612.421	1	11
612.590	1	8
612.760	1	17
612.930	1	4
613.099	1	11
613.269	1	3
613.439	1	12
613.608	1	19
613.778	1	2
613.948	1	5
614.117	1	16
614.287	1	6
614.457	1	1
614.626	1	-1
614.796	1	1
614.966	1	-2
615.135	1	8
615.305	1	9
615.475	1	14
615.644	1	14
615.814	1	4
615.984	1	-2
616.153	1	2
616.323	1	-8
616.493	1	15
616.662	1	20
616.832	1	10
617.002	1	26
617.171	1	4
617.341	1	2
617.511	1	3
617.680	1	13
617.850	1	6
618.019	1	3
618.189	1	1
618.359	1	-6
618.528	1	11
618.698	1	5
618.868	1	25
619.037	1	8
619.207	1	11
619.377	1	12
619.546	1	2
619.716	1	6
619.885	1	9
620.055	1	1
620.225	1	9
620.394	1	5
620.564	1	18
620.734	1	7
620.903	1	2
621.073	1	19
621.242	1	-9
621.412	1	1
621.582	1	12
621.751	1	-1
621.921	1	12
622.091	1	4
622.260	1	18
622.430	1	18
622.599	1	8
622.769	1	8
622.939	1	10
623.108	1	13
623.278	1	6
623.448	1	7
623.617	1	-1
623.787	1	13
623.956	1	1
624.126	1	17
624.296	1	19
624.465	1	2
624.635	1	-4
624.804	1	16
624.974	1	-1
625.144	1	11
625.313	1	13
625.483	1	8
625.652	1	16
625.822	1	4
625.992	1	4
626.161	1	2
626.331	1	-1
626.501	1	8
626.670	1	6
626.840	1	3
627.009	1	3
627.179	1	9
627.348	1	4
627.518	1	25
627.688	1	7
627.857	1	13
628.027	1	0
628.196	1	12
628.366	1	2
628.536	1	14
628.705	1	7
628.875	1	6
629.044	1	8
629.214	1	8
629.384	1	9
629.553	1	5
629.723	1	13
629.892	1	5
630.062	1	16
630.232	1	-8
630.401	1	6
630.571	1	16
630.740	1	2
630.910	1	12
631.079	1	8
631.249	1	2
631.419	1	6
631.588	1	-13
631.758	1	5
631.927	1	13
632.097	1	3
632.266	1	7
632.436	1	9
632.606	1	12
632.775	1	10
632.945	1	0
633.114	1	4
633.284	1	2
633.453	1	12
633.623	1	14
633.793	1	10
633.962	1	8
634.132	1	20
634.301	1	9
634.471	1	12
634.640	1	13
634.810	1	21
634.979	1	19
635.149	1	15
635.319	1	23
635.488	1	6
635.658	1	2
635.827	1	9
635.997	1	9
636.166	1	15
636.336	1	0
636.505	1	19
636.675	1	-8
636.845	1	14
637.014	1	6
637.184	1	12
637.353	1	6
637.523	1	12
637.692	1	16
637.862	1	3
638.031	1	12
638.201	1	13
638.370	1	8
638.540	1	5
638.710	1	13
638.879	1	13
639.049	1	14
639.218	1	7
639.388	1	11
639.557	1	0
639.727	1	8
639.896	1	9
640.066	1	10
640.235	1	14
640.405	1	12
640.574	1	10
640.744	1	16
640.914	1	12
641.083	1	1
641.253	1	3
641.422	1	13
641.592	1	11
641.761	1	14
641.931	1	2
642.100	1	11
642.270	1	14
642.439	1	6
642.609	1	10
642.778	1	13
642.948	1	-3
643.117	1	11
643.287	1	5
643.456	1	-6
643.626	1	7
643.795	1	7
643.965	1	20
644.134	1	11
644.304	1	10
644.473	1	-4
644.643	1	2
644.812	1	12
644.982	1	8
645.151	1	4
645.321	1	2
645.490	1	13
645.660	1	15
645.829	1	6
645.999	1	17
646.168	1	15
646.338	1	-2
646.507	1	-4
646.677	1	9
646.846	1	11
647.016	1	16
647.185	1	12
647.355	1	10
647.524	1	12
647.694	1	7
647.863	1	10
648.033	1	10
648.202	1	5
648.372	1	-2
648.541	1	12
648.711	1	7
648.880	1	12
649.050	1	8
649.219	1	7
649.389	1	17
649.558	1	6
649.728	1	-4
649.897	1	11
650.067	1	6
650.236	1	20
650.406	1	4
650.575	1	11
650.745	1	16
650.914	1	11
651.084	1	-2
651.253	1	19
651.423	1	1
651.592	1	12
651.762	1	9
651.931	1	12
652.101	1	3
652.270	1	8
652.440	1	10
652.609	1	15
652.778	1	13
652.948	1	4
653.117	1	25
653.287	1	5
653.456	1	19
653.626	1	11
653.795	1	11
653.965	1	14
654.134	1	-4
654.304	1	6
654.473	1	4
654.643	1	18
654.812	1	9
654.982	1	13
655.151	1	17
655.320	1	7
655.490	1	5
655.659	1	10
655.829	1	-3
655.998	1	4
656.168	1	-2
656.337	1	13
656.507	1	2
656.676	1	7
656.846	1	6
657.015	1	19
657.184	1	9
657.354	1	12
657.523	1	7
657.693	1	-1
657.862	1	9
658.032	1	10
658.201	1	9
658.371	1	20
658.540	1	12
658.709	1	15
658.879	1	1
659.048	1	3
659.218	1	7
659.387	1	12
659.557	1	5
659.726	1	21
659.895	1	6
660.065	1	12
660.234	1	11
660.404	1	24
660.573	1	8
660.743	1	6
660.912	1	0
661.081	1	11
661.251	1	6
661.420	1	8
661.590	1	12
661.759	1	5
661.929	1	17
662.098	1	15
662.267	1	11
662.437	1	18
662.606	1	6
662.776	1	9
662.945	1	19
663.115	1	-5
663.284	1	-3
663.453	1	9
663.623	1	11
663.792	1	15
663.962	1	0
664.131	1	7
664.300	1	13
664.470	1	-9
664.639	1	0
664.809	1	12
664.978	1	19
665.148	1	15
665.317	1	5
665.486	1	11
665.656	1	7
665.825	1	18
665.995	1	6
666.164	1	18
666.333	1	9
666.503	1	23
666.672	1	6
666.842	1	-1
667.011	1	4
667.180	1	10
667.350	1	18
667.519	1	7
667.689	1	16
667.858	1	20
668.027	1	5
668.197	1	13
668.366	1	10
668.536	1	11
668.705	1	17
668.874	1	11
669.044	1	17
669.213	1	13
669.382	1	16
669.552	1	7
669.721	1	1
669.891	1	2
670.060	1	7
670.229	1	14
670.399	1	9
670.568	1	14
670.738	1	-5
670.907	1	7
671.076	1	19
671.246	1	5
671.415	1	16
671.584	1	8
671.754	1	10
671.923	1	14
672.093	1	12
672.262	1	12
672.431	1	17
672.601	1	7
672.770	1	3
672.939	1	17
673.109	1	6
673.278	1	19
673.448	1	5
673.617	1	12
673.786	1	-1
