325.333	1	-7
325.504	1	8
325.675	1	0
325.846	1	2
326.017	1	0
326.188	1	-2
326.359	1	5
326.531	1	-7
326.702	1	6
326.873	1	3
327.044	1	-4
327.215	1	2
327.386	1	-6
327.557	1	8
327.728	1	-15
327.899	1	2
328.070	1	4
328.241	1	12
328.412	1	2
328.583	1	1
328.754	1	-2
328.926	1	-2
329.097	1	5
329.268	1	-2
329.439	1	-3
329.610	1	6
329.781	1	13
329.952	1	2
330.123	1	-8
330.294	1	2
330.465	1	14
330.636	1	5
330.807	1	3
330.978	1	2
331.149	1	1
331.320	1	3
331.492	1	4
331.663	1	7
331.834	1	1
332.005	1	-3
332.176	1	-5
332.347	1	11
332.518	1	-2
332.689	1	3
332.860	1	-10
333.031	1	13
333.202	1	5
333.373	1	7
333.544	1	2
333.715	1	5
333.886	1	0
334.057	1	5
334.228	1	2
334.399	1	2
334.570	1	3
334.741	1	7
334.912	1	19
335.084	1	1
335.255	1	0
335.426	1	-5
335.597	1	8
335.768	1	-1
335.939	1	3
336.110	1	-3
336.281	1	2
336.452	1	13
336.623	1	7
336.794	1	-5
336.965	1	0
337.136	1	1
337.307	1	9
337.478	1	3
337.649	1	0
337.820	1	0
337.991	1	10
338.162	1	8
338.333	1	4
338.504	1	-10
338.675	1	7
338.846	1	8
339.017	1	4
339.188	1	-1
339.359	1	7
339.530	1	1
339.701	1	6
339.872	1	3
340.043	1	7
340.214	1	9
340.385	1	8
340.556	1	11
340.727	1	0
340.898	1	-2
341.069	1	10
341.240	1	5
341.411	1	2
341.582	1	5
341.753	1	2
341.924	1	7
342.095	1	-3
342.266	1	-9
342.437	1	0
342.608	1	-5
342.779	1	4
342.950	1	8
343.121	1	9
343.292	1	10
343.463	1	10
343.634	1	11
343.805	1	-1
343.976	1	-3
344.147	1	8
344.318	1	1
344.489	1	-3
344.660	1	12
344.831	1	-2
345.002	1	5
345.173	1	6
345.344	1	-3
345.515	1	7
345.686	1	1
345.857	1	4
346.028	1	12
346.199	1	9
346.370	1	0
346.541	1	11
346.712	1	-3
346.883	1	10
347.054	1	-4
347.225	1	5
347.396	1	3
347.567	1	-6
347.738	1	2
347.909	1	5
348.080	1	1
348.251	1	9
348.422	1	5
348.593	1	9
348.764	1	0
348.935	1	1
349.106	1	-1
349.277	1	18
349.448	1	11
349.619	1	3
349.790	1	5
349.961	1	-2
350.132	1	2
350.303	1	13
350.474	1	12
350.645	1	-1
350.816	1	19
350.987	1	4
351.157	1	13
351.328	1	2
351.499	1	8
351.670	1	5
351.841	1	4
352.012	1	10
352.183	1	0
352.354	1	2
352.525	1	-6
352.696	1	6
352.867	1	-7
353.038	1	7
353.209	1	10
353.380	1	5
353.551	1	12
353.722	1	12
353.893	1	0
354.064	1	11
354.235	1	7
354.406	1	-1
354.576	1	-3
354.747	1	9
354.918	1	12
355.089	1	5
355.260	1	9
355.431	1	15
355.602	1	0
355.773	1	8
355.944	1	2
356.115	1	5
356.286	1	-3
356.457	1	9
356.628	1	14
356.799	1	9
356.970	1	7
357.141	1	15
357.311	1	15
357.482	1	-3
357.653	1	-3
357.824	1	19
357.995	1	9
358.166	1	8
358.337	1	5
358.508	1	11
358.679	1	0
358.850	1	8
359.021	1	8
359.192	1	-2
359.363	1	4
359.533	1	1
359.704	1	9
359.875	1	25
360.046	1	8
360.217	1	5
360.388	1	14
360.559	1	11
360.730	1	2
360.901	1	1
361.072	1	8
361.243	1	2
361.414	1	10
361.584	1	8
361.755	1	9
361.926	1	1
362.097	1	-4
362.268	1	8
362.439	1	-4
362.610	1	1
362.781	1	3
362.952	1	10
363.123	1	25
363.293	1	12
363.464	1	16
363.635	1	8
363.806	1	-3
363.977	1	7
364.148	1	1
364.319	1	1
364.490	1	-1
364.661	1	15
364.832	1	9
365.002	1	13
365.173	1	6
365.344	1	7
365.515	1	9
365.686	1	6
365.857	1	10
366.028	1	3
366.199	1	1
366.370	1	14
366.540	1	16
366.711	1	7
366.882	1	1
367.053	1	6
367.224	1	3
367.395	1	13
367.566	1	12
367.737	1	7
367.908	1	8
368.078	1	14
368.249	1	3
368.420	1	9
368.591	1	15
368.762	1	7
368.933	1	2
369.104	1	11
369.274	1	-3
369.445	1	11
369.616	1	6
369.787	1	12
369.958	1	9
370.129	1	14
370.300	1	8
370.471	1	22
370.641	1	11
370.812	1	-1
370.983	1	6
371.154	1	4
371.325	1	15
371.496	1	5
371.667	1	18
371.837	1	5
372.008	1	12
372.179	1	9
372.350	1	13
372.521	1	8
372.692	1	5
372.863	1	1
373.033	1	2
373.204	1	-2
373.375	1	8
373.546	1	26
373.717	1	2
373.888	1	10
374.059	1	18
374.229	1	10
374.400	1	1
374.571	1	11
374.742	1	4
374.913	1	3
375.084	1	3
375.254	1	22
375.425	1	-8
375.596	1	4
375.767	1	7
375.938	1	5
376.109	1	9
376.279	1	8
376.450	1	7
376.621	1	14
376.792	1	3
376.963	1	7
377.134	1	10
377.304	1	6
377.475	1	2
377.646	1	1
377.817	1	11
377.988	1	-4
378.159	1	6
378.329	1	2
378.500	1	8
378.671	1	10
378.842	1	9
379.013	1	13
379.184	1	18
379.354	1	2
379.525	1	5
379.696	1	2
379.867	1	6
380.038	1	-2
380.209	1	-2
380.379	1	14
380.550	1	6
380.721	1	21
380.892	1	12
381.063	1	12
381.233	1	4
381.404	1	11
381.575	1	13
381.746	1	7
381.917	1	4
382.087	1	16
382.258	1	7
382.429	1	7
382.600	1	6
382.771	1	10
382.941	1	11
383.112	1	6
383.283	1	19
383.454	1	6
383.625	1	15
383.795	1	11
383.966	1	14
384.137	1	10
384.308	1	9
384.479	1	7
384.649	1	11
384.820	1	6
384.991	1	9
385.162	1	10
385.333	1	10
385.503	1	16
385.674	1	10
385.845	1	11
386.016	1	7
386.187	1	-4
386.357	1	12
386.528	1	2
386.699	1	9
386.870	1	8
387.041	1	9
387.211	1	13
387.382	1	10
387.553	1	3
387.724	1	1
387.894	1	8
388.065	1	6
388.236	1	0
388.407	1	0
388.578	1	2
388.748	1	17
388.919	1	15
389.090	1	14
389.261	1	11
389.431	1	18
389.602	1	15
389.773	1	8
389.944	1	5
390.114	1	16
390.285	1	6
390.456	1	4
390.627	1	9
390.798	1	19
390.968	1	2
391.139	1	10
391.310	1	11
391.481	1	7
391.651	1	7
391.822	1	5
391.993	1	20
392.164	1	2
392.334	1	11
392.505	1	3
392.676	1	22
392.847	1	9
393.017	1	11
393.188	1	13
393.359	1	7
393.530	1	13
393.700	1	6
393.871	1	2
394.042	1	3
394.213	1	19
394.383	1	11
394.554	1	4
394.725	1	10
394.896	1	10
395.066	1	11
395.237	1	9
395.408	1	14
395.579	1	17
395.749	1	14
395.920	1	11
396.091	1	9
396.262	1	10
396.432	1	9
396.603	1	5
396.774	1	8
396.945	1	19
397.115	1	9
397.286	1	10
397.457	1	19
397.627	1	13
397.798	1	-2
397.969	1	7
398.140	1	11
398.310	1	9
398.481	1	2
398.652	1	20
398.823	1	7
398.993	1	10
399.164	1	-1
399.335	1	1
399.505	1	4
399.676	1	12
399.847	1	8
400.018	1	9
400.188	1	10
400.359	1	6
400.530	1	13
400.700	1	8
400.871	1	21
401.042	1	13
401.213	1	-4
401.383	1	4
401.554	1	17
401.725	1	10
401.895	1	14
402.066	1	6
402.237	1	16
402.408	1	7
402.578	1	7
402.749	1	8
402.920	1	10
403.090	1	13
403.261	1	11
403.432	1	12
403.603	1	16
403.773	1	16
403.944	1	13
404.115	1	2
404.285	1	6
404.456	1	16
404.627	1	9
404.797	1	1
404.968	1	18
405.139	1	10
405.310	1	10
405.480	1	10
405.651	1	21
405.822	1	17
405.992	1	9
406.163	1	8
406.334	1	3
406.504	1	-1
406.675	1	5
406.846	1	15
407.016	1	11
407.187	1	16
407.358	1	20
407.528	1	0
407.699	1	11
407.870	1	10
408.041	1	20
408.211	1	10
408.382	1	15
408.553	1	14
408.723	1	17
408.894	1	20
409.065	1	15
409.235	1	11
409.406	1	13
409.577	1	17
409.747	1	1
409.918	1	9
410.089	1	15
410.259	1	13
410.430	1	13
410.601	1	9
410.771	1	18
410.942	1	13
411.113	1	3
411.283	1	5
411.454	1	3
411.625	1	1
411.795	1	12
411.966	1	12
412.137	1	10
412.307	1	7
412.478	1	13
412.649	1	11
412.819	1	15
412.990	1	10
413.161	1	21
413.331	1	21
413.502	1	13
413.672	1	20
413.843	1	15
414.014	1	15
414.184	1	4
414.355	1	18
414.526	1	20
414.696	1	15
414.867	1	18
415.038	1	9
415.208	1	22
415.379	1	14
415.550	1	19
415.720	1	14
415.891	1	15
416.062	1	5
416.232	1	8
416.403	1	9
416.573	1	7
416.744	1	14
416.915	1	17
417.085	1	15
417.256	1	15
417.427	1	18
417.597	1	1
417.768	1	4
417.939	1	6
418.109	1	9
418.280	1	13
418.450	1	2
418.621	1	4
418.792	1	5
418.962	1	17
419.133	1	7
419.304	1	15
419.474	1	18
419.645	1	9
419.815	1	16
419.986	1	13
420.157	1	-2
420.327	1	16
420.498	1	10
420.669	1	13
420.839	1	12
421.010	1	16
421.180	1	14
421.351	1	8
421.522	1	6
421.692	1	19
421.863	1	13
422.033	1	17
422.204	1	14
422.375	1	19
422.545	1	11
422.716	1	10
422.886	1	8
423.057	1	9
423.228	1	6
423.398	1	15
423.569	1	10
423.740	1	1
423.910	1	8
424.081	1	6
424.251	1	7
424.422	1	20
424.593	1	7
424.763	1	12
424.934	1	10
425.104	1	9
425.275	1	22
425.445	1	12
425.616	1	5
425.787	1	6
425.957	1	22
426.128	1	2
426.298	1	4
426.469	1	4
426.640	1	28
426.810	1	4
426.981	1	6
427.151	1	13
427.322	1	12
427.493	1	8
427.663	1	14
427.834	1	10
428.004	1	7
428.175	1	14
428.345	1	3
428.516	1	21
428.687	1	10
428.857	1	2
429.028	1	13
429.198	1	-2
429.369	1	9
429.540	1	8
429.710	1	10
429.881	1	8
430.051	1	5
430.222	1	9
430.392	1	10
430.563	1	15
430.734	1	16
430.904	1	6
431.075	1	15
431.245	1	15
431.416	1	9
431.586	1	12
431.757	1	19
431.927	1	19
432.098	1	16
432.269	1	1
432.439	1	20
432.610	1	12
432.780	1	10
432.951	1	-4
433.121	1	18
433.292	1	12
433.462	1	3
433.633	1	17
433.804	1	26
433.974	1	7
434.145	1	12
434.315	1	2
434.486	1	10
434.656	1	0
434.827	1	8
434.997	1	6
435.168	1	9
435.339	1	4
435.509	1	15
435.680	1	8
435.850	1	5
436.021	1	12
436.191	1	10
436.362	1	8
436.532	1	25
436.703	1	2
436.873	1	13
437.044	1	7
437.214	1	21
437.385	1	5
437.556	1	10
437.726	1	2
437.897	1	10
438.067	1	-4
438.238	1	2
438.408	1	6
438.579	1	17
438.749	1	18
438.920	1	8
439.090	1	13
439.261	1	4
439.431	1	11
439.602	1	8
439.772	1	12
439.943	1	13
440.113	1	-1
440.284	1	1
440.455	1	15
440.625	1	16
440.796	1	17
440.966	1	-3
441.137	1	0
441.307	1	12
441.478	1	11
441.648	1	11
441.819	1	9
441.989	1	12
442.160	1	4
442.330	1	9
442.501	1	15
442.671	1	7
442.842	1	3
443.012	1	16
443.183	1	4
443.353	1	9
443.524	1	10
443.694	1	10
443.865	1	7
444.035	1	8
444.206	1	5
444.376	1	12
444.547	1	12
444.717	1	5
444.888	1	9
445.058	1	21
445.229	1	10
445.399	1	14
445.570	1	21
445.740	1	11
445.911	1	-12
446.081	1	2
446.252	1	13
446.422	1	6
446.593	1	-1
446.763	1	18
446.934	1	2
447.104	1	16
447.275	1	5
447.445	1	-3
447.616	1	14
447.786	1	12
447.957	1	9
448.127	1	4
448.298	1	0
448.468	1	1
448.639	1	6
448.809	1	15
448.979	1	2
449.150	1	18
449.320	1	-5
449.491	1	-3
449.661	1	1
449.832	1	14
450.002	1	0
450.173	1	10
450.343	1	7
450.514	1	6
450.684	1	4
450.855	1	20
451.025	1	7
451.196	1	6
451.366	1	5
451.537	1	2
451.707	1	12
451.878	1	4
452.048	1	8
452.218	1	3
452.389	1	12
452.559	1	12
452.730	1	7
452.900	1	5
453.071	1	1
453.241	1	-2
453.412	1	6
453.582	1	8
453.753	1	9
453.923	1	13
454.093	1	14
454.264	1	14
454.434	1	12
454.605	1	-5
454.775	1	5
454.946	1	-1
455.116	1	-2
455.287	1	6
455.457	1	13
455.628	1	5
455.798	1	3
455.968	1	14
456.139	1	10
456.309	1	21
456.480	1	16
456.650	1	-4
456.821	1	4
456.991	1	1
457.161	1	7
457.332	1	13
457.502	1	14
457.673	1	8
457.843	1	13
458.014	1	5
458.184	1	8
458.355	1	5
458.525	1	11
458.695	1	-2
458.866	1	7
459.036	1	20
459.207	1	6
459.377	1	12
459.548	1	11
459.718	1	0
459.888	1	1
460.059	1	18
460.229	1	11
460.400	1	6
460.570	1	17
460.740	1	10
460.911	1	8
461.081	1	0
461.252	1	9
461.422	1	4
461.593	1	5
461.763	1	8
461.933	1	7
462.104	1	8
462.274	1	9
462.445	1	6
462.615	1	21
462.785	1	6
462.956	1	4
463.126	1	4
463.297	1	11
463.467	1	13
463.638	1	2
463.808	1	9
463.978	1	6
464.149	1	16
464.319	1	5
464.490	1	6
464.660	1	19
464.830	1	2
465.001	1	7
465.171	1	-2
465.342	1	2
465.512	1	18
465.682	1	9
465.853	1	17
466.023	1	19
466.194	1	-3
466.364	1	4
466.534	1	-3
466.705	1	12
466.875	1	6
467.045	1	17
467.216	1	1
467.386	1	15
467.557	1	10
467.727	1	12
467.897	1	27
468.068	1	8
468.238	1	-4
468.409	1	7
468.579	1	13
468.749	1	16
468.920	1	14
469.090	1	-4
469.260	1	17
469.431	1	4
469.601	1	11
469.772	1	-4
469.942	1	12
470.112	1	9
470.283	1	11
470.453	1	11
470.623	1	13
470.794	1	0
470.964	1	15
471.135	1	13
471.305	1	5
471.475	1	9
471.646	1	5
471.816	1	2
471.986	1	11
472.157	1	-4
472.327	1	12
472.497	1	10
472.668	1	4
472.838	1	7
473.009	1	7
473.179	1	12
473.349	1	1
473.520	1	4
473.690	1	9
473.860	1	2
474.031	1	3
474.201	1	9
474.371	1	17
474.542	1	14
474.712	1	-6
474.882	1	11
475.053	1	7
475.223	1	7
475.394	1	-5
475.564	1	10
475.734	1	6
475.905	1	7
476.075	1	-2
476.245	1	14
476.416	1	-5
476.586	1	7
476.756	1	1
476.927	1	12
477.097	1	11
477.267	1	-1
477.438	1	0
477.608	1	11
477.778	1	16
477.949	1	8
478.119	1	-2
478.289	1	-2
478.460	1	5
478.630	1	21
478.800	1	11
478.971	1	6
479.141	1	6
479.311	1	7
479.482	1	-13
479.652	1	6
479.822	1	0
479.993	1	17
480.163	1	3
480.333	1	22
480.504	1	4
480.674	1	-2
480.844	1	-3
481.015	1	1
481.185	1	8
481.355	1	-4
481.525	1	-5
481.696	1	13
481.866	1	7
482.036	1	4
482.207	1	-1
482.377	1	2
482.547	1	1
482.718	1	-1
482.888	1	-6
483.058	1	12
483.229	1	5
483.399	1	2
483.569	1	4
483.740	1	5
483.910	1	13
484.080	1	17
484.250	1	1
484.421	1	8
484.591	1	7
484.761	1	2
484.932	1	13
485.102	1	-3
485.272	1	1
485.443	1	9
485.613	1	2
485.783	1	1
485.953	1	0
486.124	1	2
486.294	1	7
486.464	1	8
486.635	1	-5
486.805	1	19
486.975	1	4
487.146	1	6
487.316	1	-2
487.486	1	3
487.656	1	16
487.827	1	4
487.997	1	8
488.167	1	13
488.338	1	4
488.508	1	3
488.678	1	8
488.848	1	9
489.019	1	3
489.189	1	-3
489.359	1	-4
489.529	1	-2
489.700	1	2
489.870	1	8
490.040	1	-7
490.211	1	7
490.381	1	8
490.551	1	-1
490.721	1	7
490.892	1	17
491.062	1	-3
491.232	1	-2
491.402	1	1
491.573	1	0
491.743	1	-1
491.913	1	8
492.084	1	13
492.254	1	17
492.424	1	-3
492.594	1	-1
492.765	1	1
492.935	1	-4
493.105	1	-3
493.275	1	11
493.446	1	13
493.616	1	1
493.786	1	7
493.956	1	5
494.127	1	5
494.297	1	6
494.467	1	3
494.637	1	18
494.808	1	0
494.978	1	-4
495.148	1	12
495.318	1	9
495.489	1	11
495.659	1	9
495.829	1	10
495.999	1	-4
496.170	1	10
496.340	1	0
496.510	1	13
496.680	1	8
496.851	1	10
497.021	1	12
497.191	1	3
497.361	1	4
497.532	1	7
497.702	1	9
497.872	1	6
498.042	1	4
498.213	1	5
498.383	1	10
498.553	1	6
498.723	1	-2
498.894	1	17
499.064	1	5
499.234	1	11
499.404	1	4
499.574	1	9
499.745	1	5
499.915	1	2
500.085	1	2
500.255	1	10
500.426	1	2
500.596	1	6
500.766	1	2
500.936	1	3
501.106	1	4
501.277	1	11
501.447	1	0
501.617	1	6
501.787	1	17
501.958	1	-5
502.128	1	6
502.298	1	6
502.468	1	-1
502.638	1	14
502.809	1	7
502.979	1	10
503.149	1	3
503.319	1	11
503.489	1	7
503.660	1	10
503.830	1	9
504.000	1	-3
504.170	1	-1
504.340	1	6
504.511	1	5
504.681	1	3
504.851	1	4
505.021	1	0
505.192	1	5
505.362	1	4
505.532	1	7
505.702	1	8
505.872	1	7
506.043	1	-9
506.213	1	5
506.383	1	-5
506.553	1	4
506.723	1	-10
506.893	1	-4
507.064	1	8
507.234	1	-3
507.404	1	12
507.574	1	2
507.744	1	0
507.915	1	11
508.085	1	3
508.255	1	3
508.425	1	5
508.595	1	-5
508.766	1	12
508.936	1	4
509.106	1	3
509.276	1	6
509.446	1	-8
509.616	1	21
509.787	1	6
509.957	1	13
510.127	1	6
510.297	1	-6
510.467	1	-6
510.638	1	-4
510.808	1	0
510.978	1	7
511.148	1	4
511.318	1	11
511.488	1	2
511.659	1	-12
511.829	1	7
511.999	1	-6
512.169	1	1
512.339	1	1
512.509	1	7
512.680	1	4
512.850	1	5
513.020	1	8
513.190	1	4
513.360	1	1
513.530	1	7
513.700	1	11
513.871	1	10
514.041	1	10
514.211	1	16
514.381	1	-1
514.551	1	0
514.721	1	7
514.892	1	-2
515.062	1	5
515.232	1	-12
515.402	1	12
515.572	1	-1
515.742	1	0
515.912	1	13
516.083	1	-11
516.253	1	-1
516.423	1	-1
516.593	1	8
516.763	1	6
516.933	1	8
517.104	1	-5
517.274	1	3
517.444	1	1
517.614	1	-8
517.784	1	9
517.954	1	-3
518.124	1	-5
518.294	1	6
518.465	1	-1
518.635	1	0
518.805	1	7
518.975	1	9
519.145	1	2
519.315	1	11
519.485	1	-6
519.656	1	7
519.826	1	7
519.996	1	3
520.166	1	5
520.336	1	7
520.506	1	5
520.676	1	-7
520.846	1	11
521.017	1	-12
521.187	1	-4
521.357	1	0
521.527	1	0
521.697	1	-4
521.867	1	-5
522.037	1	9
522.207	1	-5
522.377	1	-2
522.548	1	0
522.718	1	7
522.888	1	-2
523.058	1	3
523.228	1	7
523.398	1	-3
523.568	1	-4
523.738	1	-1
523.909	1	14
524.079	1	5
524.249	1	2
524.419	1	2
524.589	1	7
524.759	1	5
524.929	1	1
525.099	1	10
525.269	1	10
525.439	1	-3
525.610	1	13
525.780	1	7
525.950	1	10
526.120	1	4
526.290	1	7
526.460	1	3
526.630	1	16
526.800	1	4
526.970	1	8
527.140	1	2
527.311	1	-5
527.481	1	4
527.651	1	14
527.821	1	-8
527.991	1	15
528.161	1	2
528.331	1	6
528.501	1	4
528.671	1	5
528.841	1	6
529.011	1	5
529.181	1	12
529.352	1	-6
529.522	1	-6
529.692	1	2
529.862	1	0
530.032	1	8
530.202	1	-4
530.372	1	3
530.542	1	8
530.712	1	-8
530.882	1	2
531.052	1	3
531.222	1	2
531.392	1	5
531.563	1	-3
531.733	1	9
531.903	1	-4
532.073	1	4
532.243	1	7
532.413	1	3
532.583	1	-11
532.753	1	0
532.923	1	12
533.093	1	-3
533.263	1	-4
533.433	1	8
533.603	1	-5
533.773	1	4
533.943	1	8
534.113	1	4
534.284	1	7
534.454	1	2
534.624	1	-4
534.794	1	1
534.964	1	10
535.134	1	-6
535.304	1	3
535.474	1	-7
535.644	1	15
535.814	1	1
535.984	1	2
536.154	1	-9
536.324	1	-1
536.494	1	0
536.664	1	-7
536.834	1	-2
537.004	1	0
537.174	1	3
537.344	1	14
537.514	1	6
537.685	1	6
537.855	1	10
538.025	1	2
538.195	1	3
538.365	1	4
538.535	1	2
538.705	1	-2
538.875	1	15
539.045	1	7
539.215	1	12
539.385	1	3
539.555	1	-3
539.725	1	-10
539.895	1	4
540.065	1	10
540.235	1	-6
540.405	1	14
540.575	1	6
540.745	1	-4
540.915	1	1
541.085	1	5
541.255	1	6
541.425	1	-5
541.595	1	-6
541.765	1	4
541.935	1	7
542.105	1	-4
542.275	1	2
542.445	1	1
542.615	1	9
542.785	1	10
542.955	1	7
543.125	1	2
543.295	1	10
543.465	1	-8
543.635	1	-14
543.805	1	-2
543.975	1	-5
544.145	1	6
544.315	1	-3
544.485	1	-4
544.655	1	3
544.825	1	1
544.995	1	7
545.165	1	9
545.335	1	1
545.505	1	-5
545.675	1	-3
545.845	1	-4
546.015	1	-1
546.185	1	0
546.355	1	0
546.525	1	10
546.695	1	2
546.865	1	-6
547.035	1	3
547.205	1	6
547.375	1	10
547.545	1	0
547.715	1	6
547.885	1	9
548.055	1	8
548.225	1	-8
548.395	1	15
548.565	1	-6
548.735	1	-1
548.905	1	-1
549.075	1	5
549.245	1	5
549.415	1	11
549.585	1	3
549.755	1	-5
549.925	1	-6
550.095	1	4
550.265	1	-12
550.435	1	0
550.605	1	-2
550.775	1	4
550.945	1	1
551.115	1	1
551.285	1	-2
551.455	1	6
551.625	1	16
551.795	1	-3
551.965	1	-4
552.135	1	-11
552.305	1	4
552.475	1	9
552.645	1	16
552.815	1	-2
552.985	1	-2
553.155	1	7
553.325	1	-4
553.495	1	2
553.665	1	-3
553.835	1	0
554.004	1	3
554.174	1	-5
554.344	1	4
554.514	1	5
554.684	1	-4
554.854	1	-3
555.024	1	11
555.194	1	-2
555.364	1	10
555.534	1	3
555.704	1	3
555.874	1	-5
556.044	1	-2
556.214	1	-8
556.384	1	-1
556.554	1	5
556.724	1	-15
556.894	1	10
557.064	1	-8
557.234	1	3
557.404	1	4
557.573	1	2
557.743	1	3
557.913	1	2
558.083	1	-4
558.253	1	0
558.423	1	4
558.593	1	7
558.763	1	3
558.933	1	2
559.103	1	-2
559.273	1	4
559.443	1	-5
559.613	1	-3
559.783	1	2
559.953	1	6
560.122	1	3
560.292	1	6
560.462	1	2
560.632	1	3
560.802	1	-6
560.972	1	-9
561.142	1	4
561.312	1	-2
561.482	1	-2
561.652	1	6
561.822	1	-1
561.992	1	-3
562.162	1	4
562.331	1	-3
562.501	1	6
562.671	1	-4
562.841	1	10
563.011	1	13
563.181	1	7
563.351	1	3
563.521	1	5
563.691	1	-2
563.861	1	9
564.031	1	7
564.201	1	-6
564.370	1	-3
564.540	1	6
564.710	1	4
564.880	1	7
565.050	1	2
565.220	1	-7
565.390	1	10
565.560	1	0
565.730	1	13
565.900	1	-5
566.069	1	1
566.239	1	-11
566.409	1	13
566.579	1	3
566.749	1	25
566.919	1	-5
567.089	1	-8
567.259	1	4
567.429	1	1
567.599	1	-6
567.768	1	2
567.938	1	-9
568.108	1	10
568.278	1	-5
568.448	1	10
568.618	1	16
568.788	1	-2
568.958	1	9
569.128	1	2
569.297	1	5
569.467	1	6
569.637	1	-3
569.807	1	-2
569.977	1	-6
570.147	1	-3
570.317	1	14
570.487	1	7
570.656	1	-4
570.826	1	11
570.996	1	0
571.166	1	1
571.336	1	3
571.506	1	1
571.676	1	7
571.846	1	3
572.015	1	4
572.185	1	3
572.355	1	-2
572.525	1	6
572.695	1	3
572.865	1	-1
573.035	1	3
573.205	1	-3
573.374	1	-5
573.544	1	1
573.714	1	3
573.884	1	9
574.054	1	3
574.224	1	4
574.394	1	-2
574.563	1	-4
574.733	1	-4
574.903	1	6
575.073	1	-1
575.243	1	-5
575.413	1	6
575.583	1	2
575.752	1	9
575.922	1	-2
576.092	1	3
576.262	1	0
576.432	1	9
576.602	1	2
576.772	1	-10
576.941	1	11
577.111	1	3
577.281	1	-2
577.451	1	11
577.621	1	1
577.791	1	-12
577.960	1	6
578.130	1	-7
578.300	1	2
578.470	1	-3
578.640	1	4
578.810	1	8
578.979	1	-2
579.149	1	-3
579.319	1	1
579.489	1	1
579.659	1	2
579.829	1	-1
579.998	1	-3
580.168	1	-4
580.338	1	7
580.508	1	1
580.678	1	-3
580.848	1	0
581.017	1	22
581.187	1	1
581.357	1	-4
581.527	1	1
581.697	1	15
581.867	1	-12
582.036	1	-9
582.206	1	-4
582.376	1	2
582.546	1	-4
582.716	1	0
582.885	1	-1
583.055	1	-1
583.225	1	-7
583.395	1	5
583.565	1	7
583.735	1	-9
583.904	1	-2
584.074	1	3
584.244	1	1
584.414	1	3
584.584	1	-7
584.753	1	16
584.923	1	0
585.093	1	-3
585.263	1	9
585.433	1	-11
585.602	1	1
585.772	1	-3
585.942	1	-8
586.112	1	4
586.282	1	5
586.451	1	-2
586.621	1	11
586.791	1	3
586.961	1	-5
587.131	1	2
587.300	1	-16
587.470	1	-3
587.640	1	-9
587.810	1	4
587.980	1	5
588.149	1	5
588.319	1	-2
588.489	1	12
588.659	1	-6
588.829	1	-5
588.998	1	13
589.168	1	4
589.338	1	0
589.508	1	7
589.677	1	-3
589.847	1	1
590.017	1	2
590.187	1	-1
590.357	1	-4
590.526	1	12
590.696	1	3
590.866	1	12
591.036	1	-5
591.205	1	-3
591.375	1	-2
591.545	1	-6
591.715	1	2
591.885	1	6
592.054	1	6
592.224	1	7
592.394	1	2
592.564	1	-10
592.733	1	5
592.903	1	5
593.073	1	7
593.243	1	7
593.412	1	2
593.582	1	12
593.752	1	5
593.922	1	-4
594.091	1	14
594.261	1	-3
594.431	1	-8
594.601	1	5
594.771	1	-4
594.940	1	2
595.110	1	7
595.280	1	-3
595.450	1	3
595.619	1	1
595.789	1	1
595.959	1	-5
596.129	1	9
596.298	1	0
596.468	1	2
596.638	1	6
596.808	1	8
596.977	1	9
597.147	1	18
597.317	1	2
597.487	1	-3
597.656	1	3
597.826	1	1
597.996	1	6
598.166	1	-1
598.335	1	11
598.505	1	7
598.675	1	-4
598.844	1	-2
599.014	1	1
599.184	1	4
599.354	1	-10
599.523	1	5
599.693	1	4
599.863	1	-4
600.033	1	-2
600.202	1	-3
600.372	1	3
600.542	1	12
600.712	1	2
600.881	1	-1
601.051	1	-3
601.221	1	-1
601.390	1	8
601.560	1	-7
601.730	1	8
601.900	1	4
602.069	1	3
602.239	1	-12
602.409	1	9
602.578	1	4
602.748	1	6
602.918	1	0
603.088	1	-2
603.257	1	7
603.427	1	-1
603.597	1	-2
603.767	1	-3
603.936	1	11
604.106	1	5
604.276	1	-4
604.445	1	-4
604.615	1	-10
604.785	1	-7
604.954	1	8
605.124	1	1
605.294	1	-2
605.464	1	7
605.633	1	12
605.803	1	4
605.973	1	5
606.142	1	5
606.312	1	-4
606.482	1	-4
606.652	1	9
606.821	1	-2
606.991	1	15
607.161	1	21
607.330	1	-2
607.500	1	2
607.670	1	3
607.839	1	7
608.009	1	-12
608.179	1	-2
608.348	1	16
608.518	1	-6
608.688	1	9
608.858	1	0
609.027	1	-1
609.197	1	8
609.367	1	2
609.536	1	-5
609.706	1	9
609.876	1	2
610.045	1	1
610.215	1	-5
610.385	1	9
610.554	1	-1
610.724	1	13
610.894	1	1
611.063	1	-3
611.233	1	5
611.403	1	4
611.572	1	8
611.742	1	-5
611.912	1	1
612.081	1	0
612.251	1	-1
612.421	1	5
612.590	1	0
612.760	1	4
612.930	1	-4
613.099	1	6
613.269	1	2
613.439	1	16
613.608	1	14
613.778	1	4
613.948	1	8
614.117	1	2
614.287	1	3
614.457	1	3
614.626	1	-5
614.796	1	-2
614.966	1	5
615.135	1	-4
615.305	1	5
615.475	1	5
615.644	1	7
615.814	1	2
615.984	1	-6
616.153	1	4
616.323	1	-11
616.493	1	5
616.662	1	2
616.832	1	5
617.002	1	1
617.171	1	-7
617.341	1	3
617.511	1	5
617.680	1	1
617.850	1	-2
618.019	1	-1
618.189	1	1
618.359	1	-1
618.528	1	11
618.698	1	4
618.868	1	8
619.037	1	-9
619.207	1	2
619.377	1	10
619.546	1	2
619.716	1	6
619.885	1	10
620.055	1	12
620.225	1	4
620.394	1	0
620.564	1	12
620.734	1	0
620.903	1	3
621.073	1	-2
621.242	1	-6
621.412	1	-2
621.582	1	-7
621.751	1	-4
621.921	1	-6
622.091	1	-1
622.260	1	-5
622.430	1	8
622.599	1	13
622.769	1	-5
622.939	1	1
623.108	1	8
623.278	1	8
623.448	1	-11
623.617	1	0
623.787	1	2
623.956	1	-6
624.126	1	20
624.296	1	14
624.465	1	3
624.635	1	-2
624.804	1	0
624.974	1	2
625.144	1	4
625.313	1	-6
625.483	1	-4
625.652	1	-2
625.822	1	0
625.992	1	3
626.161	1	-4
626.331	1	0
626.501	1	2
626.670	1	6
626.840	1	-2
627.009	1	-5
627.179	1	2
627.348	1	6
627.518	1	8
627.688	1	5
627.857	1	2
628.027	1	9
628.196	1	5
628.366	1	0
628.536	1	3
628.705	1	-3
628.875	1	-1
629.044	1	-2
629.214	1	3
629.384	1	10
629.553	1	-2
629.723	1	2
629.892	1	-7
630.062	1	16
630.232	1	-14
630.401	1	-3
630.571	1	3
630.740	1	7
630.910	1	9
631.079	1	8
631.249	1	-2
631.419	1	10
631.588	1	-6
631.758	1	-4
631.927	1	3
632.097	1	7
632.266	1	7
632.436	1	-3
632.606	1	7
632.775	1	3
632.945	1	-4
633.114	1	-5
633.284	1	-3
633.453	1	2
633.623	1	7
633.793	1	0
633.962	1	-4
634.132	1	8
634.301	1	13
634.471	1	10
634.640	1	7
634.810	1	6
634.979	1	5
635.149	1	5
635.319	1	8
635.488	1	1
635.658	1	-3
635.827	1	8
635.997	1	7
636.166	1	6
636.336	1	4
636.505	1	16
636.675	1	-3
636.845	1	11
637.014	1	3
637.184	1	8
637.353	1	7
637.523	1	4
637.692	1	2
637.862	1	7
638.031	1	4
638.201	1	13
638.370	1	8
638.540	1	-3
638.710	1	5
638.879	1	-5
639.049	1	4
639.218	1	-6
639.388	1	11
639.557	1	4
639.727	1	12
639.896	1	-2
640.066	1	-3
640.235	1	3
640.405	1	5
640.574	1	3
640.744	1	12
640.914	1	7
641.083	1	-5
641.253	1	0
641.422	1	6
641.592	1	5
641.761	1	16
641.931	1	-12
642.100	1	3
642.270	1	3
642.439	1	-11
642.609	1	7
642.778	1	9
642.948	1	-5
643.117	1	1
643.287	1	-8
643.456	1	-6
643.626	1	6
643.795	1	12
643.965	1	-5
644.134	1	11
644.304	1	10
644.473	1	-4
644.643	1	-5
644.812	1	2
644.982	1	5
645.151	1	1
645.321	1	-5
645.490	1	6
645.660	1	-7
645.829	1	2
645.999	1	16
646.168	1	6
646.338	1	0
646.507	1	-8
646.677	1	14
646.846	1	11
647.016	1	5
647.185	1	-2
647.355	1	-5
647.524	1	-7
647.694	1	11
647.863	1	2
648.033	1	1
648.202	1	-6
648.372	1	-2
648.541	1	8
648.711	1	9
648.880	1	6
649.050	1	10
649.219	1	-7
649.389	1	3
649.558	1	1
649.728	1	2
649.897	1	-1
650.067	1	-1
650.236	1	12
650.406	1	-5
650.575	1	10
650.745	1	9
650.914	1	1
651.084	1	-7
651.253	1	2
651.423	1	-6
651.592	1	4
651.762	1	-2
651.931	1	7
652.101	1	-1
652.270	1	3
652.440	1	3
652.609	1	3
652.778	1	5
652.948	1	-1
653.117	1	17
653.287	1	7
653.456	1	9
653.626	1	4
653.795	1	2
653.965	1	11
654.134	1	-2
654.304	1	7
654.473	1	0
654.643	1	10
654.812	1	11
654.982	1	15
655.151	1	9
655.320	1	5
655.490	1	-8
655.659	1	0
655.829	1	-4
655.998	1	3
656.168	1	4
656.337	1	12
656.507	1	-2
656.676	1	-1
656.846	1	-1
657.015	1	15
657.184	1	-5
657.354	1	1
657.523	1	5
657.693	1	-2
657.862	1	1
658.032	1	-7
658.201	1	-5
658.371	1	7
658.540	1	19
658.709	1	2
658.879	1	-16
659.048	1	0
659.218	1	11
659.387	1	5
659.557	1	4
659.726	1	8
659.895	1	-7
660.065	1	10
660.234	1	5
660.404	1	23
660.573	1	-3
660.743	1	-3
660.912	1	9
661.081	1	-5
661.251	1	-10
661.420	1	3
661.590	1	11
661.759	1	1
661.929	1	12
662.098	1	3
662.267	1	8
662.437	1	8
662.606	1	3
662.776	1	6
662.945	1	6
663.115	1	-8
663.284	1	-3
663.453	1	4
663.623	1	4
663.792	1	-2
663.962	1	0
664.131	1	-6
664.300	1	5
664.470	1	-8
664.639	1	5
664.809	1	-8
664.978	1	12
665.148	1	14
665.317	1	2
665.486	1	4
665.656	1	-5
665.825	1	7
665.995	1	6
666.164	1	14
666.333	1	0
666.503	1	8
666.672	1	-3
666.842	1	-4
667.011	1	5
667.180	1	1
667.350	1	12
667.519	1	11
667.689	1	19
667.858	1	6
668.027	1	4
668.197	1	6
668.366	1	-1
668.536	1	3
668.705	1	12
668.874	1	3
669.044	1	-6
669.213	1	3
669.382	1	17
669.552	1	1
669.721	1	-4
669.891	1	-3
670.060	1	-1
670.229	1	5
670.399	1	3
670.568	1	16
670.738	1	-1
670.907	1	5
671.076	1	14
671.246	1	0
671.415	1	-1
671.584	1	-4
671.754	1	-7
671.923	1	-4
672.093	1	5
672.262	1	3
672.431	1	19
672.601	1	-1
672.770	1	1
672.939	1	-4
673.109	1	-3
673.278	1	6
673.448	1	3
673.617	1	-7
673.786	1	-3
