325.333	1	-2
325.504	1	5
325.675	1	0
325.846	1	1
326.017	1	2
326.188	1	-2
326.359	1	3
326.531	1	1
326.702	1	-3
326.873	1	15
327.044	1	-2
327.215	1	-7
327.386	1	-11
327.557	1	6
327.728	1	-8
327.899	1	-3
328.070	1	-6
328.241	1	2
328.412	1	1
328.583	1	2
328.754	1	-4
328.926	1	6
329.097	1	9
329.268	1	-4
329.439	1	0
329.610	1	4
329.781	1	11
329.952	1	5
330.123	1	-5
330.294	1	-2
330.465	1	14
330.636	1	-3
330.807	1	6
330.978	1	4
331.149	1	3
331.320	1	-3
331.492	1	10
331.663	1	5
331.834	1	5
332.005	1	-2
332.176	1	3
332.347	1	15
332.518	1	0
332.689	1	9
332.860	1	-5
333.031	1	-2
333.202	1	6
333.373	1	-1
333.544	1	-3
333.715	1	5
333.886	1	2
334.057	1	2
334.228	1	3
334.399	1	0
334.570	1	4
334.741	1	5
334.912	1	3
335.084	1	0
335.255	1	-2
335.426	1	-1
335.597	1	5
335.768	1	-13
335.939	1	1
336.110	1	6
336.281	1	8
336.452	1	10
336.623	1	-11
336.794	1	-2
336.965	1	-1
337.136	1	2
337.307	1	10
337.478	1	5
337.649	1	-6
337.820	1	-7
337.991	1	3
338.162	1	3
338.333	1	3
338.504	1	-8
338.675	1	1
338.846	1	3
339.017	1	4
339.188	1	17
339.359	1	3
339.530	1	0
339.701	1	0
339.872	1	2
340.043	1	2
340.214	1	2
340.385	1	8
340.556	1	3
340.727	1	-4
340.898	1	4
341.069	1	8
341.240	1	7
341.411	1	7
341.582	1	-1
341.753	1	-1
341.924	1	-2
342.095	1	-1
342.266	1	-11
342.437	1	3
342.608	1	-3
342.779	1	2
342.950	1	7
343.121	1	15
343.292	1	0
343.463	1	10
343.634	1	8
343.805	1	1
343.976	1	-4
344.147	1	14
344.318	1	7
344.489	1	7
344.660	1	-3
344.831	1	-4
345.002	1	2
345.173	1	3
345.344	1	-10
345.515	1	9
345.686	1	9
345.857	1	15
346.028	1	13
346.199	1	8
346.370	1	-7
346.541	1	13
346.712	1	0
346.883	1	6
347.054	1	-9
347.225	1	2
347.396	1	8
347.567	1	7
347.738	1	4
347.909	1	3
348.080	1	-1
348.251	1	-1
348.422	1	7
348.593	1	3
348.764	1	-1
348.935	1	-5
349.106	1	-2
349.277	1	8
349.448	1	3
349.619	1	8
349.790	1	2
349.961	1	7
350.132	1	0
350.303	1	12
350.474	1	1
350.645	1	-1
350.816	1	13
350.987	1	0
351.157	1	5
351.328	1	9
351.499	1	7
351.670	1	12
351.841	1	-10
352.012	1	3
352.183	1	6
352.354	1	0
352.525	1	-2
352.696	1	0
352.867	1	-4
353.038	1	11
353.209	1	4
353.380	1	14
353.551	1	12
353.722	1	-1
353.893	1	1
354.064	1	1
354.235	1	3
354.406	1	3
354.576	1	7
354.747	1	8
354.918	1	5
355.089	1	7
355.260	1	11
355.431	1	13
355.602	1	4
355.773	1	4
355.944	1	3
356.115	1	-7
356.286	1	12
356.457	1	2
356.628	1	15
356.799	1	-5
356.970	1	-5
357.141	1	18
357.311	1	10
357.482	1	9
357.653	1	-8
357.824	1	11
357.995	1	5
358.166	1	7
358.337	1	5
358.508	1	4
358.679	1	5
358.850	1	5
359.021	1	10
359.192	1	8
359.363	1	10
359.533	1	2
359.704	1	3
359.875	1	9
360.046	1	6
360.217	1	7
360.388	1	8
360.559	1	8
360.730	1	1
360.901	1	0
361.072	1	-5
361.243	1	1
361.414	1	10
361.584	1	13
361.755	1	12
361.926	1	3
362.097	1	4
362.268	1	0
362.439	1	0
362.610	1	1
362.781	1	8
362.952	1	14
363.123	1	14
363.293	1	3
363.464	1	-1
363.635	1	8
363.806	1	2
363.977	1	1
364.148	1	-3
364.319	1	3
364.490	1	7
364.661	1	9
364.832	1	10
365.002	1	11
365.173	1	10
365.344	1	-1
365.515	1	4
365.686	1	9
365.857	1	16
366.028	1	-2
366.199	1	17
366.370	1	13
366.540	1	8
366.711	1	2
366.882	1	6
367.053	1	5
367.224	1	0
367.395	1	10
367.566	1	9
367.737	1	16
367.908	1	-1
368.078	1	18
368.249	1	-2
368.420	1	7
368.591	1	2
368.762	1	9
368.933	1	-4
369.104	1	4
369.274	1	10
369.445	1	17
369.616	1	6
369.787	1	-2
369.958	1	9
370.129	1	10
370.300	1	5
370.471	1	19
370.641	1	5
370.812	1	17
370.983	1	6
371.154	1	9
371.325	1	5
371.496	1	7
371.667	1	10
371.837	1	9
372.008	1	12
372.179	1	8
372.350	1	6
372.521	1	3
372.692	1	7
372.863	1	5
373.033	1	14
373.204	1	5
373.375	1	10
373.546	1	18
373.717	1	1
373.888	1	5
374.059	1	14
374.229	1	7
374.400	1	-6
374.571	1	9
374.742	1	3
374.913	1	5
375.084	1	8
375.254	1	10
375.425	1	-6
375.596	1	8
375.767	1	5
375.938	1	13
376.109	1	-3
376.279	1	-6
376.450	1	4
376.621	1	22
376.792	1	3
376.963	1	7
377.134	1	15
377.304	1	13
377.475	1	17
377.646	1	4
377.817	1	-5
377.988	1	1
378.159	1	-2
378.329	1	1
378.500	1	11
378.671	1	9
378.842	1	3
379.013	1	12
379.184	1	21
379.354	1	-1
379.525	1	3
379.696	1	3
379.867	1	7
380.038	1	0
380.209	1	0
380.379	1	7
380.550	1	6
380.721	1	12
380.892	1	14
381.063	1	9
381.233	1	-3
381.404	1	7
381.575	1	3
381.746	1	16
381.917	1	4
382.087	1	2
382.258	1	15
382.429	1	7
382.600	1	9
382.771	1	11
382.941	1	-5
383.112	1	8
383.283	1	14
383.454	1	-1
383.625	1	9
383.795	1	11
383.966	1	8
384.137	1	4
384.308	1	-3
384.479	1	6
384.649	1	8
384.820	1	0
384.991	1	-1
385.162	1	7
385.333	1	18
385.503	1	9
385.674	1	1
385.845	1	10
386.016	1	14
386.187	1	0
386.357	1	14
386.528	1	-4
386.699	1	9
386.870	1	4
387.041	1	9
387.211	1	8
387.382	1	3
387.553	1	0
387.724	1	2
387.894	1	3
388.065	1	1
388.236	1	-5
388.407	1	7
388.578	1	9
388.748	1	5
388.919	1	13
389.090	1	13
389.261	1	16
389.431	1	15
389.602	1	11
389.773	1	1
389.944	1	2
390.114	1	7
390.285	1	-2
390.456	1	4
390.627	1	8
390.798	1	13
390.968	1	4
391.139	1	0
391.310	1	25
391.481	1	-2
391.651	1	7
391.822	1	4
391.993	1	13
392.164	1	-6
392.334	1	10
392.505	1	0
392.676	1	13
392.847	1	8
393.017	1	16
393.188	1	1
393.359	1	11
393.530	1	8
393.700	1	6
393.871	1	4
394.042	1	-3
394.213	1	16
394.383	1	6
394.554	1	9
394.725	1	8
394.896	1	3
395.066	1	8
395.237	1	3
395.408	1	9
395.579	1	9
395.749	1	9
395.920	1	15
396.091	1	-4
396.262	1	8
396.432	1	7
396.603	1	4
396.774	1	3
396.945	1	3
397.115	1	13
397.286	1	7
397.457	1	13
397.627	1	15
397.798	1	1
397.969	1	-8
398.140	1	14
398.310	1	9
398.481	1	9
398.652	1	18
398.823	1	4
398.993	1	3
399.164	1	2
399.335	1	8
399.505	1	10
399.676	1	9
399.847	1	0
400.018	1	11
400.188	1	6
400.359	1	9
400.530	1	4
400.700	1	0
400.871	1	17
401.042	1	5
401.213	1	3
401.383	1	10
401.554	1	8
401.725	1	5
401.895	1	17
402.066	1	8
402.237	1	4
402.408	1	20
402.578	1	7
402.749	1	13
402.920	1	0
403.090	1	11
403.261	1	10
403.432	1	16
403.603	1	0
403.773	1	26
403.944	1	7
404.115	1	9
404.285	1	2
404.456	1	6
404.627	1	-2
404.797	1	1
404.968	1	17
405.139	1	8
405.310	1	0
405.480	1	1
405.651	1	10
405.822	1	7
405.992	1	1
406.163	1	9
406.334	1	5
406.504	1	2
406.675	1	8
406.846	1	16
407.016	1	11
407.187	1	14
407.358	1	2
407.528	1	-2
407.699	1	7
407.870	1	2
408.041	1	11
408.211	1	3
408.382	1	11
408.553	1	13
408.723	1	14
408.894	1	12
409.065	1	8
409.235	1	13
409.406	1	4
409.577	1	16
409.747	1	-7
409.918	1	9
410.089	1	9
410.259	1	23
410.430	1	13
410.601	1	15
410.771	1	8
410.942	1	17
411.113	1	6
411.283	1	11
411.454	1	5
411.625	1	10
411.795	1	3
411.966	1	15
412.137	1	6
412.307	1	12
412.478	1	5
412.649	1	0
412.819	1	6
412.990	1	12
413.161	1	6
413.331	1	11
413.502	1	16
413.672	1	14
413.843	1	15
414.014	1	9
414.184	1	8
414.355	1	15
414.526	1	7
414.696	1	10
414.867	1	10
415.038	1	-4
415.208	1	15
415.379	1	16
415.550	1	11
415.720	1	8
415.891	1	3
416.062	1	7
416.232	1	8
416.403	1	9
416.573	1	17
416.744	1	3
416.915	1	15
417.085	1	16
417.256	1	8
417.427	1	10
417.597	1	-5
417.768	1	7
417.939	1	0
418.109	1	8
418.280	1	1
418.450	1	6
418.621	1	11
418.792	1	11
418.962	1	8
419.133	1	12
419.304	1	2
419.474	1	11
419.645	1	14
419.815	1	15
419.986	1	-2
420.157	1	7
420.327	1	6
420.498	1	3
420.669	1	12
420.839	1	9
421.010	1	12
421.180	1	2
421.351	1	13
421.522	1	6
421.692	1	21
421.863	1	5
422.033	1	10
422.204	1	9
422.375	1	17
422.545	1	8
422.716	1	12
422.886	1	13
423.057	1	6
423.228	1	3
423.398	1	18
423.569	1	13
423.740	1	2
423.910	1	8
424.081	1	5
424.251	1	2
424.422	1	12
424.593	1	0
424.763	1	10
424.934	1	-4
425.104	1	11
425.275	1	9
425.445	1	15
425.616	1	1
425.787	1	3
425.957	1	6
426.128	1	-4
426.298	1	4
426.469	1	5
426.640	1	13
426.810	1	1
426.981	1	-4
427.151	1	18
427.322	1	8
427.493	1	11
427.663	1	11
427.834	1	5
428.004	1	14
428.175	1	7
428.345	1	5
428.516	1	13
428.687	1	9
428.857	1	7
429.028	1	15
429.198	1	0
429.369	1	9
429.540	1	-2
429.710	1	12
429.881	1	4
430.051	1	13
430.222	1	4
430.392	1	6
430.563	1	0
430.734	1	7
430.904	1	3
431.075	1	2
431.245	1	7
431.416	1	6
431.586	1	10
431.757	1	11
431.927	1	4
432.098	1	7
432.269	1	2
432.439	1	11
432.610	1	15
432.780	1	11
432.951	1	15
433.121	1	4
433.292	1	2
433.462	1	5
433.633	1	9
433.804	1	10
433.974	1	-7
434.145	1	8
434.315	1	7
434.486	1	-1
434.656	1	4
434.827	1	7
434.997	1	10
435.168	1	8
435.339	1	4
435.509	1	7
435.680	1	-6
435.850	1	-4
436.021	1	8
436.191	1	9
436.362	1	4
436.532	1	16
436.703	1	5
436.873	1	15
437.044	1	4
437.214	1	17
437.385	1	7
437.556	1	1
437.726	1	3
437.897	1	-1
438.067	1	0
438.238	1	8
438.408	1	14
438.579	1	12
438.749	1	6
438.920	1	4
439.090	1	3
439.261	1	7
439.431	1	9
439.602	1	-2
439.772	1	8
439.943	1	1
440.113	1	-8
440.284	1	5
440.455	1	5
440.625	1	14
440.796	1	8
440.966	1	7
441.137	1	8
441.307	1	15
441.478	1	6
441.648	1	3
441.819	1	17
441.989	1	11
442.160	1	-1
442.330	1	8
442.501	1	7
442.671	1	1
442.842	1	3
443.012	1	14
443.183	1	5
443.353	1	12
443.524	1	-1
443.694	1	5
443.865	1	9
444.035	1	5
444.206	1	6
444.376	1	2
444.547	1	14
444.717	1	17
444.888	1	6
445.058	1	12
445.229	1	9
445.399	1	11
445.570	1	17
445.740	1	9
445.911	1	-15
446.081	1	4
446.252	1	8
446.422	1	16
446.593	1	3
446.763	1	18
446.934	1	4
447.104	1	4
447.275	1	7
447.445	1	1
447.616	1	1
447.786	1	13
447.957	1	13
448.127	1	4
448.298	1	1
448.468	1	0
448.639	1	4
448.809	1	12
448.979	1	1
449.150	1	10
449.320	1	3
449.491	1	3
449.661	1	6
449.832	1	0
450.002	1	-5
450.173	1	4
450.343	1	15
450.514	1	5
450.684	1	-1
450.855	1	9
451.025	1	10
451.196	1	0
451.366	1	16
451.537	1	0
451.707	1	3
451.878	1	2
452.048	1	1
452.218	1	-1
452.389	1	11
452.559	1	14
452.730	1	-2
452.900	1	11
453.071	1	12
453.241	1	1
453.412	1	6
453.582	1	8
453.753	1	4
453.923	1	12
454.093	1	1
454.264	1	4
454.434	1	9
454.605	1	5
454.775	1	-7
454.946	1	6
455.116	1	4
455.287	1	16
455.457	1	16
455.628	1	0
455.798	1	4
455.968	1	4
456.139	1	6
456.309	1	15
456.480	1	8
456.650	1	1
456.821	1	12
456.991	1	7
457.161	1	8
457.332	1	16
457.502	1	10
457.673	1	9
457.843	1	-1
458.014	1	3
458.184	1	7
458.355	1	0
458.525	1	11
458.695	1	11
458.866	1	11
459.036	1	13
459.207	1	6
459.377	1	10
459.548	1	13
459.718	1	-9
459.888	1	6
460.059	1	15
460.229	1	8
460.400	1	-1
460.570	1	10
460.740	1	6
460.911	1	10
461.081	1	6
461.252	1	10
461.422	1	-2
461.593	1	8
461.763	1	5
461.933	1	5
462.104	1	11
462.274	1	6
462.445	1	-1
462.615	1	11
462.785	1	-2
462.956	1	4
463.126	1	11
463.297	1	4
463.467	1	12
463.638	1	10
463.808	1	9
463.978	1	1
464.149	1	3
464.319	1	3
464.490	1	8
464.660	1	19
464.830	1	3
465.001	1	-1
465.171	1	-7
465.342	1	3
465.512	1	10
465.682	1	13
465.853	1	15
466.023	1	17
466.194	1	-9
466.364	1	-1
466.534	1	-4
466.705	1	6
466.875	1	11
467.045	1	14
467.216	1	8
467.386	1	16
467.557	1	12
467.727	1	5
467.897	1	21
468.068	1	4
468.238	1	3
468.409	1	11
468.579	1	7
468.749	1	9
468.920	1	15
469.090	1	-9
469.260	1	20
469.431	1	1
469.601	1	5
469.772	1	3
469.942	1	11
470.112	1	6
470.283	1	12
470.453	1	7
470.623	1	12
470.794	1	2
470.964	1	9
471.135	1	12
471.305	1	3
471.475	1	2
471.646	1	10
471.816	1	6
471.986	1	-2
472.157	1	-6
472.327	1	5
472.497	1	11
472.668	1	3
472.838	1	7
473.009	1	3
473.179	1	3
473.349	1	-2
473.520	1	-2
473.690	1	7
473.860	1	4
474.031	1	-2
474.201	1	13
474.371	1	16
474.542	1	15
474.712	1	4
474.882	1	10
475.053	1	-3
475.223	1	1
475.394	1	-6
475.564	1	12
475.734	1	0
475.905	1	8
476.075	1	-3
476.245	1	7
476.416	1	11
476.586	1	8
476.756	1	0
476.927	1	11
477.097	1	5
477.267	1	10
477.438	1	-6
477.608	1	13
477.778	1	6
477.949	1	18
478.119	1	-9
478.289	1	-2
478.460	1	10
478.630	1	14
478.800	1	11
478.971	1	-6
479.141	1	9
479.311	1	-7
479.482	1	-9
479.652	1	11
479.822	1	3
479.993	1	12
480.163	1	6
480.333	1	18
480.504	1	3
480.674	1	-8
480.844	1	-5
481.015	1	4
481.185	1	14
481.355	1	-2
481.525	1	0
481.696	1	-4
481.866	1	2
482.036	1	-3
482.207	1	9
482.377	1	6
482.547	1	-5
482.718	1	-1
482.888	1	-4
483.058	1	13
483.229	1	9
483.399	1	9
483.569	1	1
483.740	1	5
483.910	1	6
484.080	1	9
484.250	1	2
484.421	1	9
484.591	1	8
484.761	1	-1
484.932	1	12
485.102	1	-9
485.272	1	-4
485.443	1	9
485.613	1	-3
485.783	1	1
485.953	1	-4
486.124	1	-2
486.294	1	5
486.464	1	2
486.635	1	5
486.805	1	12
486.975	1	5
487.146	1	0
487.316	1	0
487.486	1	-7
487.656	1	8
487.827	1	2
487.997	1	13
488.167	1	8
488.338	1	16
488.508	1	0
488.678	1	10
488.848	1	4
489.019	1	-5
489.189	1	-2
489.359	1	-5
489.529	1	4
489.700	1	4
489.870	1	0
490.040	1	4
490.211	1	1
490.381	1	23
490.551	1	-5
490.721	1	8
490.892	1	17
491.062	1	4
491.232	1	7
491.402	1	1
491.573	1	4
491.743	1	1
491.913	1	15
492.084	1	3
492.254	1	10
492.424	1	3
492.594	1	3
492.765	1	3
492.935	1	6
493.105	1	-8
493.275	1	4
493.446	1	0
493.616	1	0
493.786	1	1
493.956	1	7
494.127	1	8
494.297	1	10
494.467	1	5
494.637	1	7
494.808	1	-10
494.978	1	-4
495.148	1	17
495.318	1	9
495.489	1	10
495.659	1	7
495.829	1	0
495.999	1	-5
496.170	1	3
496.340	1	0
496.510	1	11
496.680	1	0
496.851	1	8
497.021	1	9
497.191	1	8
497.361	1	14
497.532	1	1
497.702	1	1
497.872	1	6
498.042	1	7
498.213	1	2
498.383	1	13
498.553	1	15
498.723	1	-2
498.894	1	12
499.064	1	-2
499.234	1	7
499.404	1	9
499.574	1	14
499.745	1	8
499.915	1	6
500.085	1	-9
500.255	1	3
500.426	1	1
500.596	1	4
500.766	1	4
500.936	1	-7
501.106	1	4
501.277	1	5
501.447	1	-1
501.617	1	-1
501.787	1	11
501.958	1	-4
502.128	1	4
502.298	1	6
502.468	1	4
502.638	1	18
502.809	1	11
502.979	1	12
503.149	1	2
503.319	1	6
503.489	1	3
503.660	1	10
503.830	1	1
504.000	1	4
504.170	1	-2
504.340	1	1
504.511	1	4
504.681	1	8
504.851	1	3
505.021	1	9
505.192	1	3
505.362	1	10
505.532	1	1
505.702	1	-4
505.872	1	9
506.043	1	-5
506.213	1	1
506.383	1	-2
506.553	1	7
506.723	1	7
506.893	1	4
507.064	1	10
507.234	1	-9
507.404	1	12
507.574	1	5
507.744	1	0
507.915	1	15
508.085	1	-2
508.255	1	1
508.425	1	-4
508.595	1	-3
508.766	1	14
508.936	1	6
509.106	1	1
509.276	1	-4
509.446	1	-5
509.616	1	18
509.787	1	-3
509.957	1	6
510.127	1	6
510.297	1	10
510.467	1	2
510.638	1	-2
510.808	1	5
510.978	1	9
511.148	1	-2
511.318	1	12
511.488	1	-8
511.659	1	-10
511.829	1	-2
511.999	1	0
512.169	1	1
512.339	1	3
512.509	1	4
512.680	1	5
512.850	1	9
513.020	1	3
513.190	1	5
513.360	1	-8
513.530	1	3
513.700	1	3
513.871	1	6
514.041	1	10
514.211	1	7
514.381	1	-4
514.551	1	3
514.721	1	13
514.892	1	2
515.062	1	0
515.232	1	1
515.402	1	19
515.572	1	2
515.742	1	5
515.912	1	5
516.083	1	-3
516.253	1	-2
516.423	1	-7
516.593	1	7
516.763	1	4
516.933	1	0
517.104	1	7
517.274	1	-1
517.444	1	-3
517.614	1	-6
517.784	1	3
517.954	1	3
518.124	1	3
518.294	1	11
518.465	1	4
518.635	1	7
518.805	1	4
518.975	1	3
519.145	1	2
519.315	1	0
519.485	1	-3
519.656	1	4
519.826	1	6
519.996	1	-7
520.166	1	7
520.336	1	4
520.506	1	16
520.676	1	0
520.846	1	-1
521.017	1	-2
521.187	1	4
521.357	1	-2
521.527	1	1
521.697	1	0
521.867	1	1
522.037	1	1
522.207	1	5
522.377	1	0
522.548	1	3
522.718	1	6
522.888	1	-4
523.058	1	4
523.228	1	18
523.398	1	4
523.568	1	2
523.738	1	4
523.909	1	6
524.079	1	7
524.249	1	-5
524.419	1	3
524.589	1	16
524.759	1	-2
524.929	1	8
525.099	1	8
525.269	1	7
525.439	1	-3
525.610	1	4
525.780	1	15
525.950	1	5
526.120	1	4
526.290	1	-1
526.460	1	-1
526.630	1	5
526.800	1	-1
526.970	1	-3
527.140	1	10
527.311	1	1
527.481	1	8
527.651	1	4
527.821	1	-8
527.991	1	7
528.161	1	2
528.331	1	-4
528.501	1	5
528.671	1	5
528.841	1	5
529.011	1	-7
529.181	1	3
529.352	1	3
529.522	1	1
529.692	1	2
529.862	1	11
530.032	1	-3
530.202	1	3
530.372	1	4
530.542	1	15
530.712	1	-8
530.882	1	-3
531.052	1	0
531.222	1	2
531.392	1	-1
531.563	1	1
531.733	1	9
531.903	1	4
532.073	1	-7
532.243	1	15
532.413	1	5
532.583	1	-1
532.753	1	0
532.923	1	14
533.093	1	0
533.263	1	-5
533.433	1	5
533.603	1	3
533.773	1	1
533.943	1	5
534.113	1	0
534.284	1	12
534.454	1	4
534.624	1	-2
534.794	1	-1
534.964	1	3
535.134	1	1
535.304	1	10
535.474	1	-9
535.644	1	0
535.814	1	0
535.984	1	3
536.154	1	9
536.324	1	-8
536.494	1	2
536.664	1	-14
536.834	1	3
537.004	1	2
537.174	1	2
537.344	1	3
537.514	1	-7
537.685	1	5
537.855	1	-2
538.025	1	-2
538.195	1	9
538.365	1	8
538.535	1	-3
538.705	1	5
538.875	1	12
539.045	1	4
539.215	1	8
539.385	1	-8
539.555	1	-1
539.725	1	6
539.895	1	4
540.065	1	8
540.235	1	-8
540.405	1	8
540.575	1	-2
540.745	1	2
540.915	1	1
541.085	1	0
541.255	1	5
541.425	1	4
541.595	1	-9
541.765	1	3
541.935	1	-2
542.105	1	0
542.275	1	-4
542.445	1	1
542.615	1	-1
542.785	1	17
542.955	1	-5
543.125	1	-4
543.295	1	5
543.465	1	7
543.635	1	-17
543.805	1	5
543.975	1	-3
544.145	1	-1
544.315	1	-4
544.485	1	5
544.655	1	6
544.825	1	13
544.995	1	9
545.165	1	9
545.335	1	-2
545.505	1	0
545.675	1	1
545.845	1	-7
546.015	1	5
546.185	1	-2
546.355	1	-4
546.525	1	-1
546.695	1	2
546.865	1	6
547.035	1	10
547.205	1	9
547.375	1	0
547.545	1	4
547.715	1	-2
547.885	1	2
548.055	1	4
548.225	1	-10
548.395	1	16
548.565	1	-5
548.735	1	6
548.905	1	2
549.075	1	14
549.245	1	-2
549.415	1	4
549.585	1	9
549.755	1	7
549.925	1	-1
550.095	1	-8
550.265	1	-6
550.435	1	-2
550.605	1	-7
550.775	1	16
550.945	1	-3
551.115	1	-1
551.285	1	-3
551.455	1	-3
551.625	1	4
551.795	1	-1
551.965	1	-1
552.135	1	-9
552.305	1	12
552.475	1	11
552.645	1	9
552.815	1	-9
552.985	1	-3
553.155	1	1
553.325	1	-8
553.495	1	0
553.665	1	-2
553.835	1	1
554.004	1	-6
554.174	1	-15
554.344	1	1
554.514	1	9
554.684	1	2
554.854	1	-5
555.024	1	11
555.194	1	-2
555.364	1	6
555.534	1	8
555.704	1	-4
555.874	1	3
556.044	1	2
556.214	1	-10
556.384	1	4
556.554	1	3
556.724	1	-11
556.894	1	2
557.064	1	-2
557.234	1	11
557.404	1	2
557.573	1	0
557.743	1	-1
557.913	1	-2
558.083	1	-4
558.253	1	-3
558.423	1	7
558.593	1	7
558.763	1	2
558.933	1	0
559.103	1	-8
559.273	1	12
559.443	1	-8
559.613	1	-5
559.783	1	3
559.953	1	4
560.122	1	-2
560.292	1	0
560.462	1	-1
560.632	1	2
560.802	1	4
560.972	1	3
561.142	1	-2
561.312	1	3
561.482	1	5
561.652	1	6
561.822	1	-8
561.992	1	3
562.162	1	0
562.331	1	-6
562.501	1	3
562.671	1	3
562.841	1	14
563.011	1	7
563.181	1	12
563.351	1	4
563.521	1	6
563.691	1	1
563.861	1	8
564.031	1	2
564.201	1	-2
564.370	1	6
564.540	1	8
564.710	1	0
564.880	1	4
565.050	1	-11
565.220	1	3
565.390	1	5
565.560	1	-4
565.730	1	5
565.900	1	-4
566.069	1	7
566.239	1	-8
566.409	1	4
566.579	1	3
566.749	1	19
566.919	1	4
567.089	1	-2
567.259	1	0
567.429	1	-9
567.599	1	-1
567.768	1	-3
567.938	1	-11
568.108	1	6
568.278	1	3
568.448	1	16
568.618	1	-1
568.788	1	3
568.958	1	6
569.128	1	1
569.297	1	-1
569.467	1	5
569.637	1	-7
569.807	1	-7
569.977	1	0
570.147	1	-1
570.317	1	15
570.487	1	2
570.656	1	-1
570.826	1	6
570.996	1	4
571.166	1	3
571.336	1	11
571.506	1	-2
571.676	1	9
571.846	1	-4
572.015	1	2
572.185	1	5
572.355	1	0
572.525	1	0
572.695	1	0
572.865	1	3
573.035	1	1
573.205	1	-4
573.374	1	2
573.544	1	-5
573.714	1	9
573.884	1	4
574.054	1	10
574.224	1	-3
574.394	1	1
574.563	1	0
574.733	1	-8
574.903	1	1
575.073	1	-4
575.243	1	0
575.413	1	6
575.583	1	-4
575.752	1	-5
575.922	1	-6
576.092	1	7
576.262	1	6
576.432	1	8
576.602	1	-6
576.772	1	-8
576.941	1	3
577.111	1	5
577.281	1	3
577.451	1	6
577.621	1	2
577.791	1	-10
577.960	1	5
578.130	1	-10
578.300	1	1
578.470	1	-5
578.640	1	-1
578.810	1	2
578.979	1	-3
579.149	1	-3
579.319	1	6
579.489	1	4
579.659	1	-5
579.829	1	2
579.998	1	-3
580.168	1	12
580.338	1	-6
580.508	1	-4
580.678	1	-4
580.848	1	3
581.017	1	12
581.187	1	-5
581.357	1	-16
581.527	1	-4
581.697	1	10
581.867	1	-6
582.036	1	-3
582.206	1	-2
582.376	1	-1
582.546	1	2
582.716	1	-7
582.885	1	-1
583.055	1	4
583.225	1	-1
583.395	1	10
583.565	1	9
583.735	1	-3
583.904	1	5
584.074	1	-2
584.244	1	8
584.414	1	3
584.584	1	-8
584.753	1	1
584.923	1	13
585.093	1	4
585.263	1	3
585.433	1	-3
585.602	1	1
585.772	1	9
585.942	1	3
586.112	1	3
586.282	1	2
586.451	1	-15
586.621	1	5
586.791	1	8
586.961	1	8
587.131	1	8
587.300	1	-10
587.470	1	-1
587.640	1	-8
587.810	1	-6
587.980	1	7
588.149	1	8
588.319	1	-1
588.489	1	5
588.659	1	-4
588.829	1	5
588.998	1	-2
589.168	1	4
589.338	1	4
589.508	1	3
589.677	1	4
589.847	1	5
590.017	1	2
590.187	1	-9
590.357	1	6
590.526	1	10
590.696	1	6
590.866	1	-7
591.036	1	-2
591.205	1	-11
591.375	1	-1
591.545	1	3
591.715	1	3
591.885	1	5
592.054	1	9
592.224	1	-4
592.394	1	-2
592.564	1	-1
592.733	1	2
592.903	1	2
593.073	1	6
593.243	1	10
593.412	1	-5
593.582	1	12
593.752	1	15
593.922	1	-4
594.091	1	10
594.261	1	5
594.431	1	-7
594.601	1	0
594.771	1	0
594.940	1	6
595.110	1	2
595.280	1	-2
595.450	1	-4
595.619	1	5
595.789	1	-2
595.959	1	-2
596.129	1	5
596.298	1	14
596.468	1	3
596.638	1	16
596.808	1	15
596.977	1	16
597.147	1	6
597.317	1	-1
597.487	1	-6
597.656	1	1
597.826	1	-2
597.996	1	13
598.166	1	5
598.335	1	7
598.505	1	1
598.675	1	2
598.844	1	1
599.014	1	0
599.184	1	9
599.354	1	-1
599.523	1	-4
599.693	1	5
599.863	1	-10
600.033	1	0
600.202	1	-4
600.372	1	-1
600.542	1	4
600.712	1	4
600.881	1	0
601.051	1	1
601.221	1	1
601.390	1	8
601.560	1	-3
601.730	1	3
601.900	1	9
602.069	1	0
602.239	1	-8
602.409	1	6
602.578	1	0
602.748	1	5
602.918	1	6
603.088	1	8
603.257	1	10
603.427	1	3
603.597	1	12
603.767	1	6
603.936	1	9
604.106	1	-3
604.276	1	-9
604.445	1	7
604.615	1	-12
604.785	1	1
604.954	1	11
605.124	1	2
605.294	1	-2
605.464	1	10
605.633	1	11
605.803	1	0
605.973	1	2
606.142	1	11
606.312	1	2
606.482	1	-7
606.652	1	12
606.821	1	8
606.991	1	4
607.161	1	18
607.330	1	-9
607.500	1	-8
607.670	1	-3
607.839	1	4
608.009	1	-5
608.179	1	3
608.348	1	14
608.518	1	-3
608.688	1	7
608.858	1	-1
609.027	1	-8
609.197	1	2
609.367	1	-1
609.536	1	-2
609.706	1	-2
609.876	1	-1
610.045	1	-1
610.215	1	7
610.385	1	17
610.554	1	-3
610.724	1	13
610.894	1	9
611.063	1	-9
611.233	1	8
611.403	1	1
611.572	1	6
611.742	1	-2
611.912	1	0
612.081	1	1
612.251	1	1
612.421	1	-2
612.590	1	-6
612.760	1	-3
612.930	1	1
613.099	1	13
613.269	1	-11
613.439	1	4
613.608	1	4
613.778	1	-9
613.948	1	2
614.117	1	-2
614.287	1	9
614.457	1	8
614.626	1	1
614.796	1	-7
614.966	1	-4
615.135	1	-6
615.305	1	-4
615.475	1	0
615.644	1	13
615.814	1	-1
615.984	1	6
616.153	1	-10
616.323	1	2
616.493	1	3
616.662	1	-2
616.832	1	5
617.002	1	10
617.171	1	-13
617.341	1	-11
617.511	1	8
617.680	1	-2
617.850	1	-2
618.019	1	-1
618.189	1	1
618.359	1	3
618.528	1	8
618.698	1	9
618.868	1	7
619.037	1	2
619.207	1	3
619.377	1	12
619.546	1	-2
619.716	1	0
619.885	1	9
620.055	1	6
620.225	1	7
620.394	1	3
620.564	1	12
620.734	1	-1
620.903	1	9
621.073	1	2
621.242	1	-6
621.412	1	4
621.582	1	-10
621.751	1	0
621.921	1	2
622.091	1	1
622.260	1	5
622.430	1	-3
622.599	1	7
622.769	1	3
622.939	1	9
623.108	1	7
623.278	1	5
623.448	1	-1
623.617	1	3
623.787	1	13
623.956	1	2
624.126	1	13
624.296	1	12
624.465	1	10
624.635	1	-6
624.804	1	1
624.974	1	2
625.144	1	8
625.313	1	-7
625.483	1	-7
625.652	1	6
625.822	1	-5
625.992	1	-5
626.161	1	-8
626.331	1	2
626.501	1	0
626.670	1	5
626.840	1	-9
627.009	1	6
627.179	1	-2
627.348	1	14
627.518	1	7
627.688	1	-6
627.857	1	-3
628.027	1	7
628.196	1	-5
628.366	1	-4
628.536	1	-1
628.705	1	-2
628.875	1	0
629.044	1	3
629.214	1	8
629.384	1	4
629.553	1	1
629.723	1	-6
629.892	1	8
630.062	1	9
630.232	1	-11
630.401	1	-6
630.571	1	2
630.740	1	10
630.910	1	-3
631.079	1	3
631.249	1	-6
631.419	1	12
631.588	1	-4
631.758	1	5
631.927	1	-1
632.097	1	8
632.266	1	-3
632.436	1	-5
632.606	1	-1
632.775	1	8
632.945	1	0
633.114	1	1
633.284	1	-5
633.453	1	-1
633.623	1	-5
633.793	1	5
633.962	1	-12
634.132	1	14
634.301	1	6
634.471	1	5
634.640	1	9
634.810	1	12
634.979	1	11
635.149	1	-5
635.319	1	1
635.488	1	4
635.658	1	-11
635.827	1	6
635.997	1	0
636.166	1	8
636.336	1	3
636.505	1	10
636.675	1	-1
636.845	1	7
637.014	1	1
637.184	1	-5
637.353	1	0
637.523	1	2
637.692	1	13
637.862	1	-2
638.031	1	-1
638.201	1	5
638.370	1	3
638.540	1	4
638.710	1	7
638.879	1	0
639.049	1	3
639.218	1	-4
639.388	1	8
639.557	1	-4
639.727	1	2
639.896	1	-3
640.066	1	3
640.235	1	11
640.405	1	-2
640.574	1	4
640.744	1	-1
640.914	1	5
641.083	1	-7
641.253	1	-4
641.422	1	11
641.592	1	8
641.761	1	14
641.931	1	-4
642.100	1	3
642.270	1	6
642.439	1	3
642.609	1	7
642.778	1	-1
642.948	1	3
643.117	1	2
643.287	1	-4
643.456	1	-15
643.626	1	2
643.795	1	6
643.965	1	0
644.134	1	1
644.304	1	14
644.473	1	3
644.643	1	-2
644.812	1	3
644.982	1	2
645.151	1	-1
645.321	1	-3
645.490	1	12
645.660	1	-2
645.829	1	2
645.999	1	7
646.168	1	20
646.338	1	-4
646.507	1	-6
646.677	1	5
646.846	1	11
647.016	1	7
647.185	1	-1
647.355	1	1
647.524	1	-7
647.694	1	7
647.863	1	0
648.033	1	1
648.202	1	0
648.372	1	6
648.541	1	4
648.711	1	-5
648.880	1	13
649.050	1	0
649.219	1	-8
649.389	1	9
649.558	1	8
649.728	1	-6
649.897	1	-2
650.067	1	1
650.236	1	9
650.406	1	-18
650.575	1	-9
650.745	1	4
650.914	1	1
651.084	1	4
651.253	1	8
651.423	1	0
651.592	1	2
651.762	1	5
651.931	1	5
652.101	1	0
652.270	1	-4
652.440	1	6
652.609	1	2
652.778	1	13
652.948	1	0
653.117	1	15
653.287	1	1
653.456	1	3
653.626	1	-3
653.795	1	0
653.965	1	5
654.134	1	-2
654.304	1	12
654.473	1	1
654.643	1	4
654.812	1	-4
654.982	1	12
655.151	1	0
655.320	1	-2
655.490	1	-11
655.659	1	-5
655.829	1	0
655.998	1	-6
656.168	1	-9
656.337	1	1
656.507	1	-1
656.676	1	-2
656.846	1	3
657.015	1	10
657.184	1	-8
657.354	1	0
657.523	1	0
657.693	1	1
657.862	1	5
658.032	1	0
658.201	1	-2
658.371	1	6
658.540	1	9
658.709	1	3
658.879	1	-7
659.048	1	-8
659.218	1	-2
659.387	1	3
659.557	1	12
659.726	1	12
659.895	1	-1
660.065	1	1
660.234	1	1
660.404	1	19
660.573	1	6
660.743	1	0
660.912	1	5
661.081	1	1
661.251	1	-1
661.420	1	4
661.590	1	4
661.759	1	0
661.929	1	9
662.098	1	2
662.267	1	10
662.437	1	9
662.606	1	6
662.776	1	0
662.945	1	10
663.115	1	-9
663.284	1	1
663.453	1	-3
663.623	1	1
663.792	1	-3
663.962	1	4
664.131	1	-2
664.300	1	-3
664.470	1	-7
664.639	1	-5
664.809	1	8
664.978	1	6
665.148	1	10
665.317	1	-4
665.486	1	4
665.656	1	0
665.825	1	6
665.995	1	-4
666.164	1	10
666.333	1	-1
666.503	1	12
666.672	1	5
666.842	1	-6
667.011	1	7
667.180	1	12
667.350	1	14
667.519	1	-7
667.689	1	7
667.858	1	8
668.027	1	4
668.197	1	10
668.366	1	8
668.536	1	-2
668.705	1	8
668.874	1	4
669.044	1	5
669.213	1	4
669.382	1	11
669.552	1	-3
669.721	1	4
669.891	1	-6
670.060	1	-6
670.229	1	2
670.399	1	10
670.568	1	14
670.738	1	-2
670.907	1	0
671.076	1	11
671.246	1	-6
671.415	1	15
671.584	1	-2
671.754	1	5
671.923	1	1
672.093	1	1
672.262	1	2
672.431	1	9
672.601	1	-9
672.770	1	-7
672.939	1	1
673.109	1	-5
673.278	1	17
673.448	1	-2
673.617	1	-2
673.786	1	-9
